ch1,ch2,ch3,ch4,ch5,ch6,ch7,ch8,class
-2.88044e-05,3.5253e-05,-8.12287e-05,-6.40934e-06,1.29515e-05,-8.05784e-06,1.1724e-05,1.2474e-05,0
-2.88997e-05,3.42829e-05,-6.6216e-05,-6.6567e-06,1.19454e-05,-8.62662e-06,1.03735e-05,1.12861e-05,0
-3.072e-05,3.31213e-05,-5.32055e-05,-5.40546e-06,1.06717e-05,-7.98784e-06,1.06567e-05,1.01202e-05,0
-3.23927e-05,3.20388e-05,-4.20908e-05,-4.32957e-06,1.00307e-05,-7.70015e-06,1.41241e-05,8.42216e-06,0
-3.20967e-05,2.93904e-05,-2.99815e-05,-7.6857e-06,9.12316e-06,-9.45703e-06,1.67581e-05,4.3429e-06,0
-3.18075e-05,2.56783e-05,-2.02201e-05,-1.39395e-05,9.05467e-06,-1.12302e-05,1.59596e-05,1.54531e-06,0
-3.3286e-05,2.17912e-05,-1.5464e-05,-1.2775e-05,1.06614e-05,-1.02614e-05,1.38528e-05,2.42117e-06,0
-3.4468e-05,1.99226e-05,-1.36966e-05,-2.14246e-06,1.12403e-05,-9.92965e-06,1.13502e-05,3.58973e-06,0
-3.36004e-05,2.02046e-05,-1.04789e-05,1.25871e-05,9.87359e-06,-1.26092e-05,1.07029e-05,3.93511e-06,0
-3.26451e-05,1.96857e-05,-4.91921e-06,2.29372e-05,9.18645e-06,-1.51963e-05,1.07996e-05,4.84938e-06,0
-3.24756e-05,1.87455e-05,-7.70701e-07,2.2831e-05,1.05446e-05,-1.57825e-05,1.05838e-05,5.01581e-06,0
-3.22383e-05,1.8092e-05,5.3771e-07,1.37837e-05,1.31873e-05,-1.5233e-05,1.19304e-05,3.4779e-06,0
-3.14498e-05,1.73292e-05,5.53976e-07,-2.69608e-07,1.5041e-05,-1.47899e-05,1.34934e-05,9.15317e-07,0
-3.09215e-05,1.57515e-05,7.76118e-07,-1.67686e-05,1.51228e-05,-1.41287e-05,1.41871e-05,-8.64902e-07,0
-3.04133e-05,1.48633e-05,1.31113e-06,-3.5148e-05,1.51378e-05,-1.29756e-05,1.41189e-05,-1.5078e-06,0
-2.98073e-05,1.43932e-05,1.55876e-06,-5.04027e-05,1.62464e-05,-1.20208e-05,1.42014e-05,-5.97759e-07,0
-2.98541e-05,1.18211e-05,1.58268e-08,-5.44619e-05,1.79947e-05,-1.19207e-05,1.49475e-05,1.33983e-06,0
-3.08934e-05,7.76297e-06,-1.78259e-06,-4.5373e-05,1.9358e-05,-1.16916e-05,1.65892e-05,2.2728e-06,0
-3.14438e-05,7.59524e-06,-3.32659e-06,-3.2475e-05,1.92129e-05,-1.09271e-05,1.91606e-05,1.6549e-06,0
-3.22233e-05,1.43458e-05,-5.58737e-06,-2.27136e-05,1.72401e-05,-9.84193e-06,2.06452e-05,1.27533e-08,0
-3.3981e-05,2.31668e-05,-7.27823e-06,-1.42513e-05,1.39984e-05,-9.38491e-06,1.98894e-05,-1.05018e-06,0
-3.39526e-05,2.66456e-05,-7.50981e-06,-3.9369e-06,1.09451e-05,-1.03554e-05,1.78835e-05,-1.01304e-06,0
-3.14785e-05,2.21378e-05,-7.19134e-06,8.70356e-06,9.51095e-06,-1.1493e-05,1.55373e-05,-1.57039e-06,0
-2.92579e-05,1.39223e-05,-6.25512e-06,1.63916e-05,1.04539e-05,-1.17982e-05,1.36363e-05,-3.22179e-06,0
-2.79423e-05,6.21506e-06,-5.86994e-06,1.08786e-05,1.2864e-05,-1.15277e-05,1.30006e-05,-4.16817e-06,0
-2.77555e-05,-8.73477e-07,-7.23692e-06,-2.27889e-06,1.40663e-05,-1.15786e-05,1.25437e-05,-4.35594e-06,0
-2.90621e-05,-7.17235e-06,-7.82546e-06,-1.01972e-05,1.5133e-05,-1.24889e-05,1.12818e-05,-5.55514e-06,0
-3.15486e-05,-1.20232e-05,-5.85973e-06,-9.24583e-06,1.64315e-05,-1.23774e-05,1.16564e-05,-7.16805e-06,0
-3.25795e-05,-1.73938e-05,-3.08976e-06,-5.71416e-06,1.52348e-05,-1.03714e-05,1.44502e-05,-7.94486e-06,0
-3.13273e-05,-2.51605e-05,-2.13949e-06,-4.34174e-06,1.19369e-05,-9.83453e-06,1.56879e-05,-7.0894e-06,0
-3.00341e-05,-3.33449e-05,-2.99508e-06,-4.38415e-06,1.07415e-05,-1.13907e-05,1.47597e-05,-5.32987e-06,0
-2.89556e-05,-3.6588e-05,-3.15468e-06,-6.68695e-06,1.22935e-05,-1.28502e-05,1.24825e-05,-5.20166e-06,0
-2.94693e-05,-3.16293e-05,-3.68455e-07,-1.38073e-05,1.39276e-05,-1.38597e-05,9.73174e-06,-5.68076e-06,0
-2.98963e-05,-2.44887e-05,1.63018e-06,-2.60915e-05,1.41211e-05,-1.41266e-05,8.30039e-06,-7.25788e-06,0
-2.92954e-05,-1.94004e-05,-9.02695e-07,-4.03847e-05,1.25455e-05,-1.4518e-05,8.02372e-06,-8.35594e-06,0
-2.94244e-05,-1.42246e-05,-5.20439e-06,-5.12884e-05,1.19719e-05,-1.48132e-05,8.40453e-06,-7.49463e-06,0
-3.04343e-05,-9.39727e-06,-7.78793e-06,-5.2379e-05,1.28881e-05,-1.54213e-05,8.25377e-06,-6.46534e-06,0
-3.03603e-05,-4.89398e-06,-6.0052e-06,-4.2686e-05,1.42083e-05,-1.59214e-05,8.6043e-06,-6.44778e-06,0
-2.92152e-05,-6.99337e-07,-1.31058e-06,-2.61031e-05,1.4428e-05,-1.53837e-05,8.91896e-06,-6.35477e-06,0
-2.85606e-05,2.50459e-06,2.4152e-06,-8.96064e-06,1.2954e-05,-1.5445e-05,7.5731e-06,-4.40175e-06,0
-2.87231e-05,5.30975e-06,3.18029e-06,3.45633e-06,1.07375e-05,-1.52493e-05,5.2959e-06,-4.13908e-06,0
-2.97216e-05,8.10994e-06,1.22292e-06,1.00897e-05,1.03665e-05,-1.29671e-05,4.04602e-06,-6.80192e-06,0
-3.07454e-05,9.93528e-06,-9.75358e-07,1.40133e-05,1.20323e-05,-9.54532e-06,1.64178e-06,-8.91127e-06,0
-3.18736e-05,1.09973e-05,-2.10472e-06,1.84483e-05,1.30837e-05,-6.73506e-06,-9.31938e-06,-8.45387e-06,0
-3.17909e-05,1.37131e-05,-3.1466e-06,2.32237e-05,1.27675e-05,-5.37469e-06,-3.0996e-05,-8.22609e-06,0
-2.91547e-05,2.13215e-05,-4.7692e-06,2.57633e-05,1.20229e-05,-5.62556e-06,-5.15484e-05,-9.15061e-06,0
-2.65983e-05,3.34654e-05,-5.62202e-06,2.20908e-05,1.16966e-05,-6.33624e-06,-5.55107e-05,-9.69527e-06,0
-2.67373e-05,4.53725e-05,-6.05919e-06,1.33084e-05,1.18787e-05,-7.5283e-06,-4.20644e-05,-8.49652e-06,0
-2.77908e-05,5.17282e-05,-6.7976e-06,3.80871e-06,1.26843e-05,-1.00785e-05,-1.95529e-05,-5.39301e-06,0
-2.82144e-05,4.83651e-05,-7.39594e-06,-3.6699e-06,1.32623e-05,-1.32658e-05,6.22099e-06,-2.54842e-06,0
-2.78979e-05,3.62618e-05,-7.55164e-06,-9.11051e-06,1.44243e-05,-1.46625e-05,3.12423e-05,-1.89426e-06,0
-2.85038e-05,2.16701e-05,-7.55332e-06,-1.21802e-05,1.59976e-05,-1.35771e-05,4.9847e-05,-2.62266e-06,0
-3.07054e-05,5.09118e-06,-7.79748e-06,-1.16767e-05,1.74618e-05,-1.16787e-05,5.90608e-05,-3.37727e-06,0
-3.12893e-05,-1.30421e-05,-9.97881e-06,-7.02352e-06,1.85192e-05,-1.1457e-05,6.09735e-05,-1.96616e-06,0
-3.04207e-05,-2.41896e-05,-1.25336e-05,-3.59899e-07,1.84223e-05,-1.10907e-05,5.91095e-05,3.39985e-07,0
-3.03461e-05,-2.41125e-05,-1.31835e-05,2.39915e-06,1.71034e-05,-1.03517e-05,5.50422e-05,-1.30266e-06,0
-3.04104e-05,-1.80067e-05,-1.52922e-05,-9.04787e-08,1.52485e-05,-1.16366e-05,5.00719e-05,-2.6419e-06,0
-3.0229e-05,-1.17016e-05,-1.7217e-05,-3.52972e-06,1.4514e-05,-1.18324e-05,4.377e-05,-3.63826e-07,0
-3.19139e-05,-7.23451e-06,-1.69944e-05,-7.36955e-06,1.56638e-05,-1.06814e-05,3.82738e-05,1.97887e-06,0
-3.27065e-05,-4.68217e-06,-1.62549e-05,-9.17688e-06,1.64978e-05,-9.19425e-06,3.47417e-05,2.992e-06,0
-3.1398e-05,-1.3167e-06,-1.56256e-05,-8.12137e-06,1.54946e-05,-6.90805e-06,2.99109e-05,5.00558e-06,0
-3.0324e-05,2.60593e-06,-1.52282e-05,-7.99906e-06,1.18304e-05,-7.50926e-06,2.53414e-05,7.14382e-06,0
-2.91555e-05,5.70043e-06,-1.44551e-05,-9.30184e-06,8.26473e-06,-1.00225e-05,2.36837e-05,6.60606e-06,0
-2.91959e-05,5.55219e-06,-1.44728e-05,-1.22698e-05,7.89342e-06,-1.01588e-05,2.4985e-05,5.3975e-06,0
-2.96363e-05,3.0752e-06,-1.52543e-05,-1.64487e-05,8.60559e-06,-8.85717e-06,2.63629e-05,4.31192e-06,0
-3.008e-05,2.92496e-06,-1.54593e-05,-1.73167e-05,9.25607e-06,-8.74036e-06,2.41752e-05,2.69054e-06,0
-2.97915e-05,4.97388e-06,-1.37013e-05,-1.13251e-05,1.05403e-05,-9.81538e-06,1.75861e-05,2.16812e-06,0
-2.96025e-05,8.86768e-06,-1.16993e-05,2.1395e-07,1.1609e-05,-1.04917e-05,1.07979e-05,3.43754e-06,0
-2.98076e-05,1.33233e-05,-1.10302e-05,1.21166e-05,1.00008e-05,-1.06337e-05,6.21219e-06,4.24363e-06,0
-3.00364e-05,1.66063e-05,-1.07561e-05,2.02298e-05,6.89874e-06,-1.16078e-05,2.70191e-06,3.87364e-06,0
-3.03508e-05,1.72034e-05,-1.012e-05,2.46069e-05,5.88422e-06,-1.38332e-05,7.71058e-07,3.72673e-06,0
-3.02395e-05,1.51502e-05,-9.02911e-06,2.39963e-05,7.47086e-06,-1.61194e-05,1.24982e-06,2.49093e-06,0
-3.04551e-05,1.27094e-05,-8.27597e-06,1.66487e-05,8.65378e-06,-1.65376e-05,5.24545e-06,2.7039e-07,0
-3.01475e-05,1.1139e-05,-7.32407e-06,4.69606e-06,8.8353e-06,-1.46154e-05,1.36014e-05,-2.69093e-07,0
-2.90574e-05,1.05654e-05,-6.82968e-06,-5.15656e-06,8.51098e-06,-1.29663e-05,2.38024e-05,1.85595e-07,0
-2.78065e-05,1.03662e-05,-8.13987e-06,-1.00936e-05,7.68026e-06,-1.24886e-05,3.09791e-05,1.56025e-07,0
-2.71347e-05,9.60609e-06,-1.13147e-05,-1.25099e-05,7.61011e-06,-1.1774e-05,3.00469e-05,2.05052e-07,0
-2.71362e-05,9.28726e-06,-1.45601e-05,-1.4534e-05,9.63723e-06,-1.10856e-05,2.04643e-05,2.88977e-07,0
-2.8514e-05,9.99998e-06,-1.6553e-05,-1.70973e-05,1.2472e-05,-1.14248e-05,9.2333e-06,2.43538e-07,0
-3.02169e-05,1.11506e-05,-1.68709e-05,-2.00426e-05,1.32224e-05,-1.16604e-05,-1.87795e-06,5.99613e-07,0
-3.08397e-05,1.30372e-05,-1.56561e-05,-2.30339e-05,1.22568e-05,-1.2405e-05,-1.59863e-05,2.20997e-06,0
-3.09216e-05,1.34392e-05,-1.37857e-05,-2.3718e-05,1.269e-05,-1.21439e-05,-3.09759e-05,3.65764e-06,0
-3.04652e-05,1.36661e-05,-1.26213e-05,-1.74512e-05,1.37959e-05,-8.72722e-06,-3.79166e-05,3.58316e-06,0
-2.8837e-05,1.72971e-05,-1.20361e-05,-5.60051e-06,1.22929e-05,-5.32167e-06,-3.30467e-05,1.50536e-06,0
-2.80028e-05,2.11352e-05,-1.27321e-05,6.57794e-06,1.0416e-05,-5.29583e-06,-2.50991e-05,-1.9585e-06,0
-2.81898e-05,2.15528e-05,-1.46298e-05,1.69473e-05,1.27692e-05,-7.28026e-06,-1.9155e-05,-1.25395e-06,0
-2.94864e-05,1.96558e-05,-1.47553e-05,1.92369e-05,1.70837e-05,-1.00452e-05,-1.28694e-05,1.97091e-06,0
-3.09867e-05,1.89185e-05,-1.24112e-05,1.14076e-05,1.85016e-05,-1.18084e-05,-4.74566e-06,2.07663e-06,0
-3.03572e-05,1.96777e-05,-9.4991e-06,1.35399e-06,1.80764e-05,-1.25667e-05,3.46107e-06,6.09041e-07,0
-2.75482e-05,1.93808e-05,-7.98374e-06,-4.90074e-06,1.71455e-05,-1.43655e-05,7.82925e-06,2.33464e-08,0
-2.61403e-05,1.92812e-05,-6.35974e-06,-8.43084e-06,1.67482e-05,-1.57979e-05,8.12304e-06,1.00236e-06,0
-2.73738e-05,2.06338e-05,-4.0069e-06,-1.37819e-05,1.70005e-05,-1.63408e-05,8.71298e-06,2.17145e-06,0
-2.77568e-05,2.1663e-05,-2.81607e-06,-1.90874e-05,1.78776e-05,-1.49322e-05,1.16076e-05,3.30637e-06,0
-2.62252e-05,2.13504e-05,-3.36283e-06,-1.71574e-05,2.04674e-05,-1.28645e-05,1.51104e-05,4.04488e-06,0
-2.40585e-05,2.00193e-05,-4.01264e-06,-3.52315e-06,2.37684e-05,-1.04504e-05,1.62368e-05,3.49322e-06,0
-2.27506e-05,1.86013e-05,-3.19887e-06,1.73373e-05,2.61542e-05,-8.18399e-06,1.43579e-05,1.64419e-06,0
-2.30829e-05,1.68552e-05,-1.22708e-06,3.66014e-05,2.71339e-05,-7.37841e-06,1.15454e-05,3.06386e-07,0
-2.50472e-05,1.45425e-05,-3.52617e-07,5.4336e-05,2.60337e-05,-7.75673e-06,9.53971e-06,9.78342e-07,0
-2.72939e-05,1.25176e-05,-1.49074e-06,7.31503e-05,2.24587e-05,-8.01569e-06,8.27242e-06,1.58054e-06,0
-3.01869e-05,1.33923e-05,-3.47787e-06,8.1283e-05,1.88205e-05,-6.76022e-06,7.86588e-06,9.42365e-07,0
-3.21963e-05,1.70267e-05,-4.0015e-06,6.55734e-05,1.57253e-05,-4.38684e-06,9.13049e-06,2.1597e-07,0
-3.20915e-05,1.79225e-05,-2.48958e-06,3.4814e-05,1.25415e-05,-2.4795e-06,1.13556e-05,2.81143e-07,0
-3.1591e-05,1.39162e-05,-2.08163e-06,7.34867e-06,1.09122e-05,-2.21395e-06,1.33698e-05,-8.98018e-08,0
-3.14377e-05,9.30264e-06,-3.1525e-06,-7.47113e-06,1.21638e-05,-2.15182e-06,1.39158e-05,-1.00199e-06,0
-3.10516e-05,6.61893e-06,-3.41742e-06,-7.01543e-06,1.45301e-05,-1.19114e-06,1.23133e-05,-5.6214e-07,0
-3.06342e-05,3.36765e-06,-2.56452e-06,8.96151e-06,1.68312e-05,4.18327e-07,1.0269e-05,1.97917e-06,0
-3.13181e-05,4.85061e-07,-2.18887e-06,2.96504e-05,1.91634e-05,6.98018e-07,9.86555e-06,4.61526e-06,0
-3.31816e-05,-6.65216e-07,-2.50529e-06,3.62207e-05,2.21798e-05,-1.1542e-06,1.11084e-05,4.63766e-06,0
-3.38839e-05,-8.31005e-08,-2.82726e-06,2.31953e-05,2.43793e-05,-2.83511e-06,1.25465e-05,2.66407e-06,0
-3.30923e-05,3.09878e-06,-3.55681e-06,-2.53168e-06,2.22618e-05,-3.28153e-06,1.31734e-05,1.29996e-06,0
-3.13067e-05,5.45087e-06,-5.24991e-06,-2.43192e-05,1.975e-05,-4.20353e-06,1.33256e-05,2.6597e-06,0
-2.9384e-05,5.7896e-06,-5.32428e-06,-3.17658e-05,2.10208e-05,-5.093e-06,1.23271e-05,5.30296e-06,0
-2.84328e-05,5.06724e-06,-3.75011e-06,-3.18717e-05,2.52432e-05,-6.32076e-06,1.07566e-05,5.69185e-06,0
-2.88398e-05,4.18734e-06,-3.03883e-06,-2.99826e-05,2.92723e-05,-7.44852e-06,1.04308e-05,4.63979e-06,0
-3.00016e-05,6.38697e-06,-2.80777e-06,-3.37227e-05,2.92364e-05,-6.40067e-06,1.13269e-05,4.63162e-06,0
-3.08535e-05,1.18604e-05,-2.35285e-06,-4.39457e-05,2.53312e-05,-4.48494e-06,1.17155e-05,5.82733e-06,0
-3.16831e-05,1.70501e-05,-1.02217e-06,-5.609e-05,2.14102e-05,-4.91289e-06,1.17334e-05,5.70922e-06,0
-3.31503e-05,1.70481e-05,-7.55385e-07,-6.68926e-05,1.9129e-05,-8.17838e-06,1.18645e-05,4.74403e-06,0
-3.39815e-05,1.28761e-05,-1.79586e-06,-7.3701e-05,1.63051e-05,-9.53484e-06,1.31805e-05,3.07376e-06,0
-3.28911e-05,9.64047e-06,-2.77827e-06,-7.69277e-05,1.34064e-05,-7.3489e-06,1.48855e-05,1.59635e-06,0
-3.18302e-05,8.90347e-06,-3.21633e-06,-7.4487e-05,1.1682e-05,-5.7584e-06,1.55414e-05,1.70521e-06,0
-3.07723e-05,8.06258e-06,-3.77174e-06,-6.58494e-05,1.06847e-05,-6.27783e-06,1.69105e-05,1.46219e-06,0
-2.89093e-05,6.1906e-06,-5.68774e-06,-5.3584e-05,1.03214e-05,-7.33579e-06,1.86276e-05,-1.19928e-06,0
-2.73993e-05,4.08469e-06,-8.41722e-06,-4.12458e-05,1.09857e-05,-8.41397e-06,1.97816e-05,-4.04939e-06,0
-2.78061e-05,1.45142e-06,-1.10994e-05,-3.06764e-05,1.12846e-05,-9.03018e-06,1.98992e-05,-4.17071e-06,0
-2.90787e-05,-1.52402e-06,-1.24331e-05,-2.35377e-05,9.09715e-06,-9.92372e-06,1.94306e-05,-4.50588e-06,0
-2.95744e-05,-4.98918e-06,-1.24634e-05,-1.85459e-05,6.15431e-06,-1.13733e-05,1.86818e-05,-5.23003e-06,0
-2.936e-05,-7.88996e-06,-1.24149e-05,-1.31355e-05,5.05936e-06,-1.35826e-05,1.90413e-05,-3.7512e-06,0
-3.01426e-05,-7.52666e-06,-1.33239e-05,-8.38242e-06,5.3191e-06,-1.61495e-05,2.2453e-05,-4.7721e-07,0
-3.17699e-05,-3.33632e-06,-1.38484e-05,-6.40091e-06,4.37073e-06,-1.79561e-05,3.13921e-05,1.29512e-06,0
-3.25538e-05,5.19341e-07,-1.36708e-05,-6.26766e-06,1.54403e-06,-1.88606e-05,4.25759e-05,3.02863e-07,0
-3.21969e-05,3.01906e-06,-1.5005e-05,-5.8973e-06,-1.68105e-06,-1.85518e-05,4.94848e-05,-1.81222e-06,0
-3.11505e-05,5.50915e-06,-1.83258e-05,-5.94556e-06,-3.20981e-06,-1.7612e-05,5.13956e-05,-2.29673e-06,0
-3.06906e-05,8.84158e-06,-2.11464e-05,-8.87253e-06,-2.10588e-06,-1.70468e-05,4.85421e-05,-2.97144e-06,0
-3.25863e-05,1.23915e-05,-2.09423e-05,-1.20283e-05,4.22555e-07,-1.74287e-05,4.0334e-05,-5.32735e-06,0
-3.49382e-05,1.33478e-05,-1.80343e-05,-1.24256e-05,3.24942e-06,-1.6736e-05,2.96581e-05,-6.89519e-06,0
-3.60115e-05,1.25048e-05,-1.38764e-05,-6.11182e-06,6.07207e-06,-1.39002e-05,1.89044e-05,-6.0603e-06,0
-3.69429e-05,1.2354e-05,-1.20141e-05,6.27254e-06,7.14973e-06,-1.12393e-05,8.96764e-06,-2.95329e-06,0
-3.73022e-05,1.38649e-05,-1.18071e-05,1.59775e-05,7.45569e-06,-9.73553e-06,1.50066e-07,5.27909e-07,0
-3.57661e-05,1.51848e-05,-1.04723e-05,1.87688e-05,9.21434e-06,-8.31024e-06,-7.53588e-06,1.5232e-06,0
-3.3303e-05,1.53543e-05,-8.09489e-06,1.71416e-05,1.17523e-05,-6.6928e-06,-1.11462e-05,9.69984e-07,0
-3.2419e-05,1.57077e-05,-6.29649e-06,1.42897e-05,1.41457e-05,-5.67128e-06,-1.13819e-05,9.52562e-07,0
-3.30707e-05,1.58828e-05,-5.9927e-06,9.11337e-06,1.37629e-05,-4.57715e-06,-8.61304e-06,1.01152e-06,0
-3.39568e-05,1.65627e-05,-6.00857e-06,3.61838e-06,1.24329e-05,-3.8378e-06,-5.79573e-06,1.00846e-07,0
-3.4348e-05,1.77809e-05,-6.77363e-06,2.23297e-06,1.18258e-05,-2.84494e-06,-4.25453e-06,-8.97178e-07,0
-3.40475e-05,1.70371e-05,-6.84086e-06,5.17128e-06,1.08883e-05,-1.81488e-06,-1.99499e-06,-1.3084e-06,0
-3.34498e-05,1.3956e-05,-7.58357e-06,1.03052e-05,9.29418e-06,-7.89445e-07,2.66422e-06,-3.21954e-06,0
-3.34895e-05,1.17445e-05,-8.5901e-06,1.61123e-05,7.34983e-06,4.2152e-07,9.21967e-06,-4.94456e-06,0
-3.35809e-05,1.12549e-05,-8.32363e-06,1.94212e-05,6.35127e-06,-7.00208e-07,1.57176e-05,-4.99923e-06,0
-3.29114e-05,1.07381e-05,-7.13149e-06,1.84873e-05,5.94243e-06,-3.24306e-06,2.11534e-05,-3.67377e-06,0
-3.23014e-05,1.0165e-05,-6.04364e-06,1.26111e-05,6.09888e-06,-5.55883e-06,2.41325e-05,-2.0225e-06,0
-3.21405e-05,1.12999e-05,-5.31514e-06,3.22741e-06,7.49788e-06,-6.78052e-06,2.36342e-05,-1.66717e-06,0
-3.08118e-05,1.44032e-05,-3.98767e-06,-4.33353e-06,1.02561e-05,-7.8557e-06,1.92665e-05,-2.57348e-06,0
-2.83243e-05,1.79481e-05,-4.16043e-06,-8.29266e-06,1.23839e-05,-9.151e-06,1.27775e-05,-1.77015e-06,0
-2.68227e-05,2.17466e-05,-6.02334e-06,-1.21693e-05,1.36138e-05,-1.10034e-05,6.24422e-06,1.22833e-06,0
-2.69618e-05,2.52271e-05,-7.76242e-06,-1.64506e-05,1.33202e-05,-1.29059e-05,4.24194e-06,2.41629e-06,0
-2.70751e-05,2.62301e-05,-7.08613e-06,-1.65176e-05,1.06681e-05,-1.43204e-05,7.27333e-06,3.33345e-07,0
-2.69817e-05,2.55241e-05,-4.59638e-06,-9.38759e-06,7.75751e-06,-1.56055e-05,1.24119e-05,-9.7609e-07,0
-2.72095e-05,2.61941e-05,-1.48933e-06,1.37794e-06,7.63779e-06,-1.56532e-05,1.65376e-05,6.22942e-07,0
-2.80007e-05,2.70963e-05,-9.43875e-08,8.15933e-06,9.16059e-06,-1.39739e-05,1.87376e-05,1.80032e-06,0
-2.90824e-05,2.75647e-05,-1.89033e-06,1.14823e-05,9.35048e-06,-1.2129e-05,2.00913e-05,1.21205e-06,0
-2.96052e-05,2.73855e-05,-5.34353e-06,1.43758e-05,9.86828e-06,-1.08122e-05,2.11406e-05,8.30465e-07,0
-2.94923e-05,2.77816e-05,-7.48812e-06,1.56815e-05,1.15682e-05,-1.05326e-05,2.16079e-05,8.4987e-07,0
-2.9009e-05,3.09611e-05,-7.87745e-06,1.46194e-05,1.35376e-05,-1.11804e-05,2.11363e-05,9.64009e-07,0
-2.82661e-05,3.31822e-05,-6.84769e-06,8.33337e-06,1.43385e-05,-1.0871e-05,1.9021e-05,1.17629e-06,0
-2.77586e-05,3.09315e-05,-5.08617e-06,-3.04651e-07,1.5841e-05,-1.09396e-05,1.83968e-05,-1.0012e-07,0
-2.85575e-05,2.60919e-05,-2.99211e-06,-6.51703e-06,1.92002e-05,-1.00452e-05,1.80939e-05,-2.159e-06,0
-2.80374e-05,2.44753e-05,-1.29685e-06,-7.67919e-06,2.12159e-05,-8.55916e-06,1.61943e-05,-3.87096e-06,0
-2.71144e-05,2.57703e-05,-2.13493e-06,-4.25145e-06,1.97193e-05,-8.40685e-06,1.48734e-05,-5.26411e-06,0
-2.6654e-05,2.59744e-05,-3.75347e-06,-1.04727e-06,1.56662e-05,-1.03145e-05,1.38812e-05,-5.97683e-06,0
-2.62537e-05,2.72592e-05,-5.15331e-06,1.24903e-06,1.36427e-05,-1.30312e-05,1.26184e-05,-5.83909e-06,0
-2.72023e-05,2.83319e-05,-5.93802e-06,2.24557e-06,1.36522e-05,-1.41537e-05,9.44093e-06,-4.2275e-06,0
-2.80616e-05,2.80203e-05,-6.95645e-06,7.23116e-08,1.35805e-05,-1.40843e-05,8.76151e-06,-3.19846e-06,0
-2.92513e-05,2.67854e-05,-8.36918e-06,-5.71362e-06,1.39273e-05,-1.35694e-05,9.46256e-06,-4.102e-06,0
-3.16873e-05,2.36493e-05,-9.46991e-06,-1.21849e-05,1.56097e-05,-1.36679e-05,8.22173e-06,-4.62057e-06,0
-3.38066e-05,1.99236e-05,-9.91728e-06,-1.71646e-05,1.60234e-05,-1.49369e-05,6.13989e-06,-2.99987e-06,0
-3.35163e-05,1.67136e-05,-8.89655e-06,-1.76792e-05,1.49669e-05,-1.60918e-05,5.176e-06,-3.4336e-07,0
-3.21331e-05,1.57085e-05,-6.93874e-06,-1.41389e-05,1.45743e-05,-1.5744e-05,5.23527e-06,2.41916e-06,0
-3.18792e-05,1.73192e-05,-5.57232e-06,-1.12197e-05,1.39141e-05,-1.51055e-05,5.16875e-06,5.67233e-06,0
-3.38423e-05,1.97353e-05,-5.51353e-06,-1.15569e-05,1.32335e-05,-1.53324e-05,5.68431e-06,7.38621e-06,0
-3.60807e-05,2.14561e-05,-6.33298e-06,-1.26009e-05,1.36311e-05,-1.54372e-05,7.05179e-06,6.67274e-06,0
-3.56506e-05,2.41913e-05,-6.25185e-06,-1.06496e-05,1.42036e-05,-1.44077e-05,8.5693e-06,5.27747e-06,0
-3.42588e-05,2.91849e-05,-5.04264e-06,-7.9205e-06,1.21514e-05,-1.24952e-05,8.8637e-06,5.01992e-06,0
-3.47249e-05,3.57496e-05,-4.65095e-06,-7.44589e-06,9.92495e-06,-1.07724e-05,9.42761e-06,4.61755e-06,0
-3.53252e-05,4.29647e-05,-5.45174e-06,-6.80063e-06,1.09928e-05,-1.09528e-05,1.0178e-05,4.04869e-06,0
-3.3305e-05,4.78948e-05,-5.70301e-06,-4.00397e-06,1.39339e-05,-1.1053e-05,9.6242e-06,4.80075e-06,0
-3.01889e-05,4.81413e-05,-4.26032e-06,-3.7879e-06,1.43277e-05,-1.0019e-05,8.93208e-06,5.13493e-06,0
-2.93999e-05,4.32238e-05,-3.69345e-06,-7.60666e-06,1.26613e-05,-8.32663e-06,9.81408e-06,4.20126e-06,0
-3.06263e-05,3.39103e-05,-5.59987e-06,-1.04767e-05,1.30538e-05,-6.61367e-06,1.26966e-05,3.20873e-06,0
-3.12342e-05,2.22704e-05,-8.62072e-06,-8.87194e-06,1.41674e-05,-6.78516e-06,1.63811e-05,2.42988e-06,0
-3.12114e-05,9.2859e-06,-1.10355e-05,-6.11734e-06,1.40515e-05,-7.5096e-06,1.94117e-05,5.07011e-07,0
-3.10924e-05,-8.4952e-08,-1.28597e-05,-5.55217e-06,1.29452e-05,-7.5859e-06,2.07734e-05,-1.28642e-06,0
-3.0396e-05,-2.9026e-06,-1.27097e-05,-6.20933e-06,9.83683e-06,-7.02351e-06,1.90062e-05,8.1223e-07,0
-2.97604e-05,-1.78784e-06,-1.22367e-05,-5.09069e-06,8.00793e-06,-6.08586e-06,1.74923e-05,3.81032e-06,0
-2.87931e-05,1.8855e-06,-1.40801e-05,-1.39933e-06,1.0277e-05,-4.76962e-06,1.67013e-05,4.21218e-06,0
-2.82212e-05,4.94115e-06,-1.68223e-05,3.0436e-06,1.3973e-05,-4.14667e-06,1.71384e-05,5.18554e-06,0
-2.95424e-05,6.75168e-06,-1.93658e-05,5.6119e-06,1.59012e-05,-4.26583e-06,1.75943e-05,5.95416e-06,0
-3.12998e-05,8.48089e-06,-2.00909e-05,4.41608e-06,1.64843e-05,-4.75009e-06,1.66071e-05,5.06956e-06,0
-3.38791e-05,8.15832e-06,-1.97499e-05,1.06828e-06,1.72248e-05,-6.45913e-06,1.71148e-05,6.81487e-06,0
-3.5895e-05,4.693e-06,-1.88106e-05,-2.84942e-07,1.8187e-05,-7.60648e-06,1.78918e-05,1.12217e-05,0
-3.54553e-05,2.11442e-06,-1.68866e-05,8.11052e-07,1.81493e-05,-7.89036e-06,1.8342e-05,1.38107e-05,0
-3.37425e-05,2.49704e-06,-1.444e-05,3.07968e-06,1.70783e-05,-6.59661e-06,1.73705e-05,1.39434e-05,0
-3.26629e-05,3.68125e-06,-1.27961e-05,3.18081e-06,1.63536e-05,-4.47967e-06,1.52352e-05,1.25232e-05,0
-3.22636e-05,3.01775e-06,-1.21937e-05,-5.53874e-07,1.54836e-05,-4.36276e-06,1.27018e-05,9.6948e-06,0
-3.24452e-05,7.36457e-07,-1.18746e-05,-4.80822e-06,1.47199e-05,-4.89382e-06,1.11388e-05,6.60259e-06,0
-3.34165e-05,-2.09053e-06,-1.12454e-05,-7.72021e-06,1.43062e-05,-4.16366e-06,1.12658e-05,4.88441e-06,0
-3.37111e-05,-4.86791e-06,-1.06397e-05,-8.20872e-06,1.49478e-05,-3.46335e-06,1.23846e-05,4.85835e-06,0
-3.30409e-05,-6.45905e-06,-1.11853e-05,-4.57447e-06,1.57606e-05,-3.73137e-06,1.39922e-05,5.49542e-06,0
-3.24592e-05,-6.09456e-06,-1.2212e-05,4.73069e-06,1.55617e-05,-3.6773e-06,1.58047e-05,5.57501e-06,0
-3.19907e-05,-3.24425e-06,-1.24009e-05,1.56832e-05,1.54386e-05,-3.07825e-06,1.72778e-05,5.75268e-06,0
-3.1633e-05,-4.99401e-07,-1.17441e-05,2.22362e-05,1.67922e-05,-2.53435e-06,1.7921e-05,6.19879e-06,0
-3.1018e-05,3.08573e-07,-1.04695e-05,2.24432e-05,1.82829e-05,-2.7164e-06,1.79338e-05,4.87226e-06,0
-3.00904e-05,8.50981e-07,-8.79273e-06,1.73676e-05,1.97797e-05,-3.49741e-06,1.72767e-05,2.44317e-06,0
-3.01369e-05,2.87617e-06,-7.04794e-06,8.64642e-06,2.00734e-05,-3.04342e-06,1.52784e-05,1.89132e-06,0
-2.8786e-05,6.61047e-06,-5.09736e-06,3.05943e-06,1.93334e-05,-6.61886e-07,1.31029e-05,2.83892e-06,0
-2.67705e-05,1.05067e-05,-3.4321e-06,3.24786e-06,1.87435e-05,1.67169e-06,1.38209e-05,3.42514e-06,0
-2.66219e-05,1.27195e-05,-3.14795e-06,2.85066e-06,1.76494e-05,2.28282e-06,1.56593e-05,2.71168e-06,0
-2.75598e-05,1.39054e-05,-4.47299e-06,-3.48304e-06,1.52766e-05,1.28549e-06,1.54647e-05,1.54253e-06,0
-2.87266e-05,1.46165e-05,-5.1163e-06,-1.20922e-05,1.16065e-05,2.83e-08,1.4464e-05,4.2959e-07,0
-2.93214e-05,1.43512e-05,-4.98542e-06,-1.8773e-05,8.16459e-06,-2.04352e-06,1.45662e-05,-1.12897e-06,0
-2.88943e-05,1.38336e-05,-4.07973e-06,-2.16511e-05,6.20164e-06,-3.94581e-06,1.45014e-05,-2.5022e-06,0
-2.83881e-05,1.65783e-05,-3.78387e-06,-1.49562e-05,7.84455e-06,-5.37586e-06,1.33499e-05,-3.19782e-06,0
-2.83977e-05,2.03836e-05,-4.71099e-06,-6.5564e-06,9.53072e-06,-7.58927e-06,1.16932e-05,-2.36019e-06,0
-2.77048e-05,2.13842e-05,-4.32825e-06,-6.34153e-06,9.59358e-06,-8.94361e-06,9.80773e-06,3.93741e-07,0
-2.75049e-05,1.94492e-05,-1.93104e-06,-1.16618e-05,8.45715e-06,-9.03986e-06,7.63391e-06,3.20784e-06,0
-2.85303e-05,1.44815e-05,-5.31923e-08,-1.88755e-05,8.28737e-06,-8.48238e-06,6.44651e-06,3.74071e-06,0
-2.87803e-05,8.36157e-06,-7.05216e-07,-2.55359e-05,9.48389e-06,-8.57777e-06,7.04152e-06,4.1486e-06,0
-2.72982e-05,4.14859e-06,-2.22988e-06,-2.84773e-05,1.07059e-05,-1.07374e-05,7.76384e-06,4.91674e-06,0
-2.62318e-05,4.15876e-06,-2.70879e-06,-2.44023e-05,1.24855e-05,-1.3048e-05,6.47884e-06,5.82757e-06,0
-2.65303e-05,7.8354e-06,-2.41759e-06,-1.76779e-05,1.21405e-05,-1.29596e-05,4.88348e-06,6.2856e-06,0
-2.66707e-05,1.10657e-05,-2.58661e-06,-1.87542e-05,8.9742e-06,-1.17761e-05,4.83139e-06,5.127e-06,0
-2.7225e-05,1.16706e-05,-3.87675e-06,-3.30591e-05,5.50188e-06,-1.09481e-05,5.24438e-06,4.44826e-06,0
-2.83569e-05,1.15998e-05,-7.01809e-06,-5.38135e-05,5.18403e-06,-1.02592e-05,5.33006e-06,4.57905e-06,0
-2.90294e-05,1.12299e-05,-1.04467e-05,-6.72384e-05,6.8872e-06,-9.72951e-06,5.63626e-06,3.92111e-06,0
-2.86432e-05,1.02358e-05,-1.15732e-05,-6.4872e-05,7.65321e-06,-1.01e-05,6.99791e-06,1.76003e-06,0
-2.7266e-05,8.89493e-06,-9.95135e-06,-4.95969e-05,7.31857e-06,-9.65607e-06,8.57379e-06,-1.81377e-07,0
-2.5687e-05,7.96639e-06,-1.01059e-05,-2.85246e-05,8.59908e-06,-7.80313e-06,9.71451e-06,-5.31391e-07,0
-2.51082e-05,7.47172e-06,-1.44134e-05,-3.27943e-06,1.18187e-05,-6.33439e-06,9.37066e-06,-2.8148e-07,0
-2.66464e-05,5.60636e-06,-1.93259e-05,2.40547e-05,1.49191e-05,-6.65489e-06,7.33544e-06,-1.9279e-06,0
-3.02018e-05,1.53122e-06,-2.13361e-05,4.64878e-05,1.60519e-05,-9.53433e-06,6.67989e-06,-3.26656e-06,0
-3.24475e-05,-1.7335e-06,-1.99079e-05,5.67915e-05,1.64352e-05,-1.27941e-05,8.35352e-06,-1.9367e-06,0
-3.15834e-05,-3.9653e-06,-1.7237e-05,5.58404e-05,1.84137e-05,-1.37403e-05,1.01358e-05,-9.28372e-07,0
-3.04662e-05,-2.87231e-06,-1.50819e-05,5.06305e-05,2.14262e-05,-1.13184e-05,1.11247e-05,-2.00481e-06,0
-3.06104e-05,7.2792e-06,-1.37849e-05,4.34371e-05,2.16929e-05,-8.94676e-06,1.14925e-05,-2.32807e-06,0
-2.97065e-05,2.18132e-05,-1.44232e-05,3.38963e-05,1.8831e-05,-8.30612e-06,1.35609e-05,-1.65365e-06,0
-2.85843e-05,2.79427e-05,-1.6069e-05,2.51144e-05,1.53061e-05,-8.16128e-06,1.52869e-05,-2.09266e-06,0
-2.90658e-05,2.5608e-05,-1.68925e-05,1.43238e-05,1.03957e-05,-8.7785e-06,1.66066e-05,-2.86865e-06,0
-2.9609e-05,2.22265e-05,-1.59859e-05,2.60691e-06,8.28873e-06,-9.79501e-06,1.89755e-05,-4.2971e-06,0
-3.09198e-05,1.85726e-05,-1.38213e-05,-4.36662e-06,9.14045e-06,-1.02767e-05,2.2475e-05,-5.07175e-06,0
-3.08319e-05,1.52205e-05,-1.27108e-05,-9.71113e-06,8.20641e-06,-1.04113e-05,2.64818e-05,-3.28937e-06,0
-2.88385e-05,1.16527e-05,-1.25025e-05,-1.63922e-05,5.88485e-06,-9.46894e-06,2.73747e-05,-2.35695e-06,0
-2.75403e-05,9.05268e-06,-1.22956e-05,-2.17626e-05,6.0747e-06,-8.04099e-06,2.57394e-05,-4.26464e-06,0
-2.76627e-05,5.86421e-06,-1.14875e-05,-2.08503e-05,8.28836e-06,-8.16241e-06,1.70938e-05,-5.07908e-06,0
-2.77965e-05,-5.29e-07,-9.66096e-06,-1.58526e-05,9.24815e-06,-8.91752e-06,1.31986e-06,-3.33879e-06,0
-2.7315e-05,-8.23901e-06,-7.40135e-06,-1.16271e-05,8.87974e-06,-1.06661e-05,-1.21813e-05,-5.88852e-07,0
-2.72066e-05,-1.20597e-05,-5.5328e-06,-9.57149e-06,8.86865e-06,-1.13504e-05,-1.64112e-05,1.20465e-06,0
-2.81733e-05,-1.00737e-05,-4.33632e-06,-7.83957e-06,9.25623e-06,-1.05193e-05,-1.16466e-05,1.26034e-06,0
-2.98686e-05,-5.12116e-06,-4.05188e-06,-5.1149e-06,8.57223e-06,-1.00059e-05,-2.34245e-06,3.12094e-08,0
-3.09365e-05,7.98198e-07,-4.57704e-06,-1.93074e-06,8.0219e-06,-9.90102e-06,5.82921e-06,-1.65407e-06,0
-3.10465e-05,6.19925e-06,-4.77989e-06,3.21447e-07,9.55757e-06,-9.96621e-06,1.17707e-05,-1.93736e-06,0
-3.00068e-05,9.74144e-06,-4.89562e-06,2.83018e-07,1.18898e-05,-1.06177e-05,1.88688e-05,-1.58927e-06,0
-2.91004e-05,1.08636e-05,-4.59906e-06,-9.49234e-07,1.14433e-05,-1.18798e-05,2.71044e-05,-1.70492e-06,0
-2.89679e-05,1.08593e-05,-2.91562e-06,-1.94821e-06,8.5603e-06,-1.22528e-05,3.29228e-05,-1.76165e-06,0
-2.98835e-05,1.06466e-05,-1.137e-06,-1.60087e-06,6.82947e-06,-1.159e-05,3.29758e-05,-1.20942e-06,0
-3.04729e-05,1.08884e-05,-1.07557e-06,-2.71483e-06,7.92751e-06,-1.12618e-05,2.85168e-05,2.68447e-07,0
-2.97426e-05,1.09283e-05,-1.57903e-06,-8.77114e-06,9.6181e-06,-1.24926e-05,2.3281e-05,2.69118e-06,0
-2.90616e-05,1.0895e-05,-1.20028e-07,-1.76309e-05,8.75852e-06,-1.405e-05,2.09716e-05,5.08017e-06,0
-2.86895e-05,1.08826e-05,1.86114e-06,-2.36277e-05,5.63915e-06,-1.53679e-05,2.1065e-05,5.67684e-06,0
-2.89185e-05,1.07305e-05,1.05388e-06,-2.46342e-05,3.16161e-06,-1.42991e-05,2.02478e-05,5.89052e-06,0
-3.07775e-05,1.16505e-05,-1.73575e-06,-2.39653e-05,2.73464e-06,-1.04626e-05,1.7058e-05,7.26373e-06,0
-3.23179e-05,1.15335e-05,-2.98384e-06,-2.04637e-05,2.64727e-06,-7.07988e-06,1.38833e-05,7.6373e-06,0
-3.24515e-05,8.83433e-06,-3.18396e-06,-3.94875e-06,3.64903e-06,-6.85461e-06,1.24116e-05,7.34587e-06,0
-3.23557e-05,6.48955e-06,-4.64559e-06,2.07978e-05,5.50915e-06,-8.12955e-06,1.3869e-05,6.23437e-06,0
-3.25459e-05,5.06592e-06,-6.66693e-06,3.92113e-05,5.26715e-06,-9.01699e-06,1.4272e-05,4.88224e-06,0
-3.24498e-05,5.52803e-06,-6.80695e-06,5.87732e-05,6.13614e-06,-1.05456e-05,1.17379e-05,3.71062e-06,0
-3.18967e-05,7.67775e-06,-5.95123e-06,8.013e-05,8.13534e-06,-1.17174e-05,9.74709e-06,1.44778e-06,0
-3.22461e-05,9.20699e-06,-5.10875e-06,8.4568e-05,8.04204e-06,-1.15978e-05,8.66777e-06,1.0744e-06,0
-3.28683e-05,1.02537e-05,-3.65053e-06,6.75438e-05,6.45707e-06,-1.07197e-05,7.53121e-06,2.72131e-06,0
-3.21496e-05,1.1923e-05,-3.23298e-06,3.84301e-05,4.38548e-06,-1.06804e-05,5.92333e-06,4.65756e-06,0
-3.15775e-05,1.71018e-05,-5.35088e-06,6.97095e-06,3.63706e-06,-1.17334e-05,5.76009e-06,5.99178e-06,0
-3.08653e-05,2.77957e-05,-8.54462e-06,-2.39642e-05,5.38809e-06,-1.33724e-05,6.05692e-06,7.31651e-06,0
-2.92658e-05,4.05752e-05,-1.12454e-05,-5.04906e-05,7.80655e-06,-1.51806e-05,6.21693e-06,8.08923e-06,0
-2.88885e-05,4.86853e-05,-1.24357e-05,-6.07499e-05,9.71196e-06,-1.59489e-05,5.72565e-06,7.95804e-06,0
-3.00975e-05,4.88787e-05,-1.27962e-05,-4.9399e-05,1.15113e-05,-1.57893e-05,5.41164e-06,6.83166e-06,0
-3.17349e-05,4.0402e-05,-1.36119e-05,-3.13496e-05,1.41205e-05,-1.54736e-05,6.93131e-06,4.61778e-06,0
-3.26286e-05,2.47977e-05,-1.39647e-05,-2.90957e-05,1.82396e-05,-1.43508e-05,7.05828e-06,2.78577e-06,0
-3.30738e-05,6.72652e-06,-1.29215e-05,-4.67912e-05,2.2478e-05,-1.20749e-05,-2.14369e-07,1.92923e-06,0
-3.28387e-05,-9.01281e-06,-1.0716e-05,-6.6979e-05,2.54226e-05,-1.02241e-05,-1.34964e-05,2.09927e-06,0
-3.22281e-05,-1.80782e-05,-8.80873e-06,-7.17195e-05,2.72277e-05,-9.686e-06,-2.33128e-05,3.01322e-06,0
-3.16923e-05,-1.95818e-05,-8.35145e-06,-6.01115e-05,2.89992e-05,-9.57538e-06,-2.31752e-05,4.25663e-06,0
-3.18779e-05,-1.73985e-05,-8.8922e-06,-4.26244e-05,2.98375e-05,-9.40004e-06,-1.26702e-05,3.97453e-06,0
-3.31049e-05,-1.31367e-05,-8.75749e-06,-2.89094e-05,2.91152e-05,-8.95761e-06,2.42201e-06,2.93263e-06,0
-3.39831e-05,-6.40841e-06,-8.3791e-06,-2.12359e-05,2.75414e-05,-8.78637e-06,1.66946e-05,2.22023e-06,0
-3.21924e-05,1.74547e-06,-8.92564e-06,-1.81227e-05,2.60739e-05,-8.73692e-06,2.84939e-05,1.20704e-06,0
-2.91913e-05,9.33547e-06,-1.07178e-05,-1.996e-05,2.40515e-05,-8.96837e-06,3.63586e-05,-7.9708e-07,0
-2.79027e-05,1.53644e-05,-1.19554e-05,-2.51978e-05,2.24031e-05,-8.44256e-06,3.78668e-05,-1.43859e-06,0
-2.89628e-05,2.10284e-05,-1.25051e-05,-2.56643e-05,2.15782e-05,-7.73419e-06,3.57392e-05,-6.98327e-07,0
-2.99971e-05,2.51278e-05,-1.2658e-05,-1.76554e-05,2.25967e-05,-7.85596e-06,3.44121e-05,-1.39057e-06,0
-2.9511e-05,2.8255e-05,-1.11651e-05,-7.96303e-06,2.35855e-05,-7.89625e-06,3.19259e-05,-3.52404e-06,0
-2.91662e-05,3.02444e-05,-8.86468e-06,-4.76667e-06,2.20824e-05,-8.83165e-06,2.88809e-05,-5.04859e-06,0
-2.84529e-05,3.12782e-05,-6.12041e-06,-6.42728e-06,2.14446e-05,-9.18334e-06,2.64735e-05,-4.86251e-06,0
-2.83397e-05,3.41477e-05,-4.08149e-06,-8.63213e-06,2.09095e-05,-9.59791e-06,2.41275e-05,-4.51207e-06,0
-2.75791e-05,3.66508e-05,-4.0936e-06,-1.2463e-05,2.07806e-05,-9.68565e-06,2.3209e-05,-4.19187e-06,0
-2.64911e-05,3.69294e-05,-4.9037e-06,-1.75431e-05,2.07379e-05,-9.48716e-06,2.37517e-05,-4.10446e-06,0
-2.72469e-05,3.37984e-05,-4.93478e-06,-1.97186e-05,2.01681e-05,-1.05964e-05,2.40548e-05,-2.6247e-06,0
-2.89727e-05,2.90381e-05,-4.32548e-06,-1.62299e-05,1.97709e-05,-1.19359e-05,2.15277e-05,-1.08604e-06,0
-2.98834e-05,2.51291e-05,-5.17467e-06,-9.06111e-06,1.96106e-05,-1.33389e-05,1.76475e-05,-9.02689e-07,0
-2.87297e-05,2.23982e-05,-7.13703e-06,-1.26222e-06,1.98491e-05,-1.36857e-05,1.9538e-05,-1.6969e-06,0
-2.68843e-05,2.06868e-05,-8.67287e-06,4.15671e-06,1.95281e-05,-1.32219e-05,2.73898e-05,-3.31232e-06,0
-2.67238e-05,1.80974e-05,-9.50002e-06,7.71384e-06,1.89697e-05,-1.31847e-05,3.45189e-05,-3.24495e-06,0
-2.85491e-05,1.3339e-05,-1.05513e-05,9.84974e-06,1.90195e-05,-1.34114e-05,3.87628e-05,-1.94816e-06,0
-2.91184e-05,9.10916e-06,-1.28064e-05,9.99361e-06,1.94549e-05,-1.35903e-05,3.89788e-05,-3.53733e-07,0
-2.80065e-05,7.59046e-06,-1.47109e-05,8.87184e-06,1.99515e-05,-1.29478e-05,3.48885e-05,7.40349e-07,0
-2.79638e-05,7.20949e-06,-1.43289e-05,8.09184e-06,2.00472e-05,-1.0792e-05,2.75711e-05,1.23701e-06,0
-2.91989e-05,6.06216e-06,-1.12175e-05,7.4154e-06,1.85699e-05,-7.99053e-06,1.65851e-05,8.94555e-07,0
-2.93748e-05,4.7768e-06,-7.51783e-06,6.07094e-06,1.70314e-05,-5.79617e-06,1.57268e-06,-6.94778e-07,0
-2.85437e-05,6.58949e-06,-5.3301e-06,5.33306e-06,1.67965e-05,-4.53332e-06,-1.52847e-05,-2.86584e-06,0
-2.87811e-05,1.12011e-05,-5.22127e-06,5.72131e-06,1.65329e-05,-4.11459e-06,-2.88562e-05,-4.08273e-06,0
-3.07136e-05,1.40415e-05,-5.60355e-06,6.22789e-06,1.59066e-05,-5.16125e-06,-3.43318e-05,-3.66447e-06,0
-3.30172e-05,1.20534e-05,-4.40659e-06,4.99783e-06,1.60683e-05,-6.69986e-06,-3.30262e-05,-2.49045e-06,0
-3.29818e-05,9.88871e-06,-1.36378e-06,3.16131e-06,1.71595e-05,-7.32277e-06,-2.84124e-05,-1.20025e-06,0
-3.11997e-05,1.16689e-05,9.72682e-07,2.30983e-06,1.7643e-05,-7.73739e-06,-2.1683e-05,-5.1359e-07,0
-2.93923e-05,1.6769e-05,5.09643e-07,2.0068e-06,1.68178e-05,-8.54275e-06,-1.41306e-05,4.4096e-07,0
-2.86757e-05,2.11219e-05,-1.48139e-06,2.76069e-06,1.53716e-05,-8.84723e-06,-8.55965e-06,1.50356e-06,0
-2.9908e-05,2.32602e-05,-3.32637e-06,2.63514e-06,1.3267e-05,-8.33666e-06,-6.91176e-06,-1.11325e-07,0
-3.04361e-05,2.4645e-05,-4.91067e-06,1.16765e-06,1.08924e-05,-7.04456e-06,-5.76713e-06,-3.69265e-06,0
-3.01989e-05,2.3122e-05,-7.64152e-06,-6.68727e-07,9.27509e-06,-7.01045e-06,-2.06361e-06,-4.03391e-06,0
-3.03615e-05,2.05885e-05,-1.03419e-05,-1.35972e-06,8.2216e-06,-8.25857e-06,3.0034e-06,-1.53855e-06,0
-3.01367e-05,1.81904e-05,-1.08429e-05,-1.48054e-06,6.51808e-06,-8.7791e-06,7.81839e-06,-5.73088e-07,0
-2.83826e-05,1.57866e-05,-1.03353e-05,-2.4275e-06,5.31836e-06,-8.70127e-06,1.15336e-05,-1.22595e-06,0
-2.75957e-05,1.31139e-05,-9.21269e-06,-6.50628e-07,5.10481e-06,-7.38422e-06,1.14557e-05,-2.0311e-06,0
-2.96391e-05,7.57249e-06,-7.35728e-06,-1.07706e-06,5.45039e-06,-5.50842e-06,8.37569e-06,-2.08107e-06,0
-3.1946e-05,1.95333e-06,-6.32095e-06,-3.47478e-06,5.95528e-06,-6.01091e-06,5.8857e-06,-7.76344e-07,0
-3.42643e-05,-2.44819e-06,-6.2607e-06,-3.88646e-06,8.15341e-06,-8.40716e-06,5.35948e-06,-3.80304e-07,0
-3.63789e-05,-5.86084e-06,-5.34328e-06,-1.68208e-06,1.20087e-05,-8.66615e-06,7.40934e-06,-1.86325e-06,0
-3.82687e-05,-7.16058e-06,-5.20157e-06,1.59904e-06,1.55894e-05,-7.16393e-06,1.10459e-05,-2.84548e-06,0
-3.91792e-05,-5.00966e-06,-7.03538e-06,2.73479e-06,1.82618e-05,-5.70146e-06,1.44203e-05,-2.48036e-06,0
-3.88399e-05,-9.03702e-07,-1.02253e-05,1.7302e-06,1.76453e-05,-5.96148e-06,1.74704e-05,-1.12282e-06,0
-3.73992e-05,1.79221e-06,-1.30516e-05,9.70118e-07,1.37204e-05,-7.59677e-06,1.9231e-05,-1.00648e-06,0
-3.57713e-05,2.68218e-06,-1.35921e-05,3.26809e-06,9.15192e-06,-8.39999e-06,1.72301e-05,-1.73446e-06,0
-3.39385e-05,3.17614e-06,-1.20896e-05,8.39257e-06,6.70935e-06,-8.01781e-06,1.23796e-05,-1.47762e-06,0
-3.18255e-05,3.97419e-06,-9.76161e-06,1.47919e-05,7.23364e-06,-7.48903e-06,8.27907e-06,-5.53679e-07,0
-3.06111e-05,3.87012e-06,-7.01039e-06,1.82579e-05,9.77592e-06,-7.65652e-06,7.90361e-06,3.1651e-07,0
-3.06732e-05,2.99977e-06,-3.4786e-06,1.70878e-05,1.09451e-05,-7.60873e-06,1.08707e-05,3.64035e-07,0
-3.10602e-05,1.86219e-06,-4.11083e-06,1.07717e-05,1.05676e-05,-5.60868e-06,1.48985e-05,-4.71389e-07,0
-3.04236e-05,5.2812e-07,-1.08818e-05,2.77003e-06,1.06433e-05,-2.79765e-06,1.87353e-05,-8.85367e-07,0
-2.98755e-05,-1.25011e-06,-1.856e-05,-3.04263e-06,1.1776e-05,-2.3014e-06,2.235e-05,9.00512e-07,0
-3.03926e-05,-2.0563e-06,-2.20784e-05,-8.02064e-06,1.34672e-05,-4.00004e-06,2.50994e-05,2.42736e-06,0
-3.11705e-05,-1.49147e-06,-2.19979e-05,-1.53074e-05,1.52225e-05,-6.86895e-06,2.5525e-05,2.67143e-06,0
-3.08605e-05,-5.44748e-07,-2.02661e-05,-2.18264e-05,1.60432e-05,-8.79945e-06,2.24708e-05,1.98404e-06,0
-3.01385e-05,-3.22484e-07,-1.75689e-05,-2.17986e-05,1.36665e-05,-8.53224e-06,1.66617e-05,1.30396e-06,0
-3.01183e-05,-4.97773e-07,-1.33481e-05,-1.70746e-05,8.77413e-06,-6.64719e-06,1.22514e-05,1.8157e-06,0
-3.04244e-05,4.09808e-08,-4.49057e-06,-1.35039e-05,7.23178e-06,-4.11097e-06,1.29018e-05,2.28635e-06,0
-2.92954e-05,1.58252e-06,5.22578e-06,-9.38768e-06,7.94023e-06,-3.92214e-06,1.82888e-05,2.52767e-06,0
-2.81186e-05,2.75996e-06,1.22373e-05,-3.88366e-06,6.66035e-06,-6.93144e-06,2.47019e-05,3.26807e-06,0
-2.82775e-05,4.06775e-06,2.15474e-05,-9.15161e-07,5.55901e-06,-9.51228e-06,2.86815e-05,3.40859e-06,0
-2.79345e-05,5.65252e-06,3.58524e-05,1.65337e-06,4.84238e-06,-1.15875e-05,3.12658e-05,1.89363e-06,0
-2.73809e-05,5.63585e-06,5.31735e-05,4.09804e-06,5.03603e-06,-1.36694e-05,3.21423e-05,7.7178e-07,0
-2.73994e-05,5.52109e-06,6.33753e-05,2.39724e-06,5.12367e-06,-1.42148e-05,3.1534e-05,1.61012e-07,0
-2.71297e-05,6.06077e-06,5.78284e-05,-2.31709e-06,5.92587e-06,-1.40688e-05,3.15201e-05,-9.37319e-07,0
-2.81735e-05,6.99379e-06,3.44835e-05,-6.72781e-06,5.77967e-06,-1.34279e-05,3.3945e-05,-1.38418e-06,0
-3.0148e-05,8.50017e-06,-2.28848e-06,-1.07857e-05,4.43762e-06,-1.29758e-05,4.10737e-05,-8.41153e-07,0
-3.04354e-05,1.1177e-05,-4.14288e-05,-1.40257e-05,6.41671e-06,-1.32833e-05,4.84303e-05,-1.12145e-06,0
-2.99607e-05,1.48233e-05,-7.23346e-05,-1.62728e-05,1.11247e-05,-1.3762e-05,5.1366e-05,-2.33461e-06,0
-2.98741e-05,1.80344e-05,-8.80162e-05,-1.98693e-05,1.35692e-05,-1.39338e-05,5.00097e-05,-3.0392e-06,0
-2.92451e-05,1.94349e-05,-8.81755e-05,-2.47025e-05,1.19541e-05,-1.37868e-05,4.42037e-05,-2.57788e-06,0
-2.79172e-05,1.99687e-05,-7.60394e-05,-2.69714e-05,1.01053e-05,-1.29453e-05,3.29e-05,-2.43806e-06,0
-2.73945e-05,2.03975e-05,-6.02522e-05,-2.61566e-05,1.0238e-05,-1.19516e-05,1.80056e-05,-3.33589e-06,0
-2.77691e-05,1.9662e-05,-4.79304e-05,-2.2949e-05,1.20073e-05,-1.23342e-05,4.23912e-06,-4.03187e-06,0
-2.76413e-05,1.79756e-05,-3.93354e-05,-1.80082e-05,1.47086e-05,-1.3318e-05,-5.19961e-06,-3.26833e-06,0
-2.63935e-05,1.71465e-05,-3.08741e-05,-1.12631e-05,1.83239e-05,-1.33832e-05,-1.10787e-05,-1.29991e-06,0
-2.57124e-05,1.77685e-05,-2.1729e-05,-1.96029e-06,2.10769e-05,-1.28469e-05,-1.52076e-05,-2.67591e-07,0
-2.689e-05,1.83658e-05,-1.38297e-05,7.35453e-06,2.1885e-05,-1.32945e-05,-1.69895e-05,-8.52205e-07,0
-2.84754e-05,1.83362e-05,-8.13979e-06,1.0286e-05,2.00032e-05,-1.48437e-05,-1.67712e-05,-1.73222e-06,0
-2.90221e-05,1.86241e-05,-4.38186e-06,8.02149e-06,1.6562e-05,-1.51609e-05,-1.50094e-05,-2.52587e-06,0
-2.8272e-05,1.76607e-05,-2.24057e-06,6.10396e-06,1.46914e-05,-1.37436e-05,-1.18635e-05,-3.75737e-06,0
-2.64491e-05,1.56921e-05,-1.76228e-06,6.09728e-06,1.50192e-05,-1.17317e-05,-8.33105e-06,-5.30694e-06,0
-2.56906e-05,1.6041e-05,-2.77172e-06,5.87769e-06,1.67434e-05,-1.05316e-05,-4.32383e-06,-5.86945e-06,0
-2.62711e-05,1.8704e-05,-4.11653e-06,6.01643e-06,1.92006e-05,-1.06046e-05,-5.13299e-07,-3.50385e-06,0
-2.88756e-05,2.12527e-05,-3.84638e-06,1.39033e-05,2.10568e-05,-1.12386e-05,2.97774e-06,7.9592e-08,0
-3.05638e-05,1.9272e-05,-1.33704e-06,2.37521e-05,2.017e-05,-1.32594e-05,4.84993e-06,1.09955e-06,0
-3.13417e-05,1.5425e-05,1.73864e-06,2.43167e-05,1.66554e-05,-1.53112e-05,6.3458e-06,-2.27907e-06,0
-3.25763e-05,1.28754e-05,2.80169e-06,1.54462e-05,1.35888e-05,-1.7156e-05,9.34844e-06,-3.7134e-06,0
-3.22101e-05,1.06497e-05,2.35885e-06,3.34464e-06,1.1261e-05,-1.94133e-05,1.08381e-05,-1.91311e-06,0
-3.30808e-05,1.1093e-05,7.99166e-07,-6.14551e-06,1.01684e-05,-2.03002e-05,1.06488e-05,2.94021e-07,0
-3.33309e-05,1.60859e-05,-8.17835e-07,-1.23809e-05,9.71582e-06,-1.87727e-05,9.9156e-06,2.98944e-06,0
-3.28954e-05,2.26054e-05,-1.77926e-06,-1.48736e-05,8.66517e-06,-1.72121e-05,8.61752e-06,4.91875e-06,0
-3.27238e-05,2.55206e-05,-2.43488e-06,-1.48444e-05,8.83151e-06,-1.62337e-05,7.20758e-06,6.49699e-06,0
-3.28277e-05,2.55622e-05,-2.30977e-06,-1.43524e-05,1.0135e-05,-1.39544e-05,7.99863e-06,7.85172e-06,0
-3.18691e-05,2.50642e-05,-1.15169e-06,-1.34426e-05,1.38475e-05,-1.18721e-05,1.01659e-05,1.02824e-05,0
-2.98568e-05,2.50206e-05,9.31176e-07,-1.06034e-05,1.82693e-05,-1.10558e-05,1.18129e-05,1.21528e-05,0
-2.81319e-05,2.53109e-05,1.481e-06,-1.20568e-06,2.20782e-05,-1.07134e-05,1.27474e-05,1.22325e-05,0
-2.66735e-05,2.61014e-05,-1.56349e-07,1.21194e-05,2.4436e-05,-9.94677e-06,1.24299e-05,1.01641e-05,0
-2.66445e-05,2.63576e-05,-2.00223e-06,2.20937e-05,2.40614e-05,-9.38031e-06,1.17582e-05,7.66689e-06,0
-2.81236e-05,2.55615e-05,-2.97503e-06,2.72747e-05,2.09258e-05,-9.37595e-06,1.26547e-05,6.96962e-06,0
-2.90917e-05,2.51432e-05,-3.06236e-06,2.91952e-05,1.61156e-05,-1.01943e-05,1.44568e-05,7.62334e-06,0
-2.85739e-05,2.54574e-05,-2.88522e-06,2.69863e-05,1.25614e-05,-1.07484e-05,1.5593e-05,8.06926e-06,0
-2.85071e-05,2.58997e-05,-2.82551e-06,1.89003e-05,1.15637e-05,-9.98639e-06,1.63638e-05,7.7965e-06,0
-2.85106e-05,2.55915e-05,-2.79638e-06,6.55551e-06,1.1509e-05,-8.78765e-06,1.59996e-05,7.61312e-06,0
-2.81961e-05,2.3759e-05,-2.88126e-06,-7.05386e-06,1.00366e-05,-8.84403e-06,1.46693e-05,6.63742e-06,0
-2.76904e-05,2.04804e-05,-4.29565e-06,-2.0718e-05,7.46739e-06,-1.01018e-05,1.35676e-05,5.16357e-06,0
-2.78461e-05,1.76275e-05,-5.603e-06,-3.08353e-05,4.94349e-06,-1.01993e-05,1.46337e-05,4.73812e-06,0
-2.77116e-05,1.54216e-05,-5.08737e-06,-3.4162e-05,4.11263e-06,-9.91523e-06,1.70732e-05,5.87131e-06,0
-2.7633e-05,1.30599e-05,-3.62232e-06,-3.70515e-05,6.26424e-06,-8.55402e-06,1.82672e-05,7.05734e-06,0
-2.72835e-05,1.15838e-05,-2.86644e-06,-4.31085e-05,8.36444e-06,-6.60268e-06,1.94505e-05,6.19523e-06,0
-2.71138e-05,1.17263e-05,-3.43713e-06,-4.7196e-05,6.78552e-06,-7.08708e-06,2.03858e-05,4.87323e-06,0
-2.82138e-05,1.21808e-05,-4.82685e-06,-4.37563e-05,5.66103e-06,-9.65414e-06,1.98414e-05,3.36075e-06,0
-2.90123e-05,1.03339e-05,-5.72814e-06,-3.19041e-05,5.882e-06,-1.23713e-05,1.72738e-05,1.30174e-06,0
-2.96719e-05,9.22637e-06,-5.54234e-06,-1.47957e-05,5.85658e-06,-1.29363e-05,1.45673e-05,8.8308e-07,0
-3.08247e-05,1.10549e-05,-5.7876e-06,1.97846e-06,7.71746e-06,-1.16653e-05,1.4112e-05,-1.39059e-07,0
-3.01816e-05,1.12321e-05,-6.61006e-06,1.42481e-05,1.05133e-05,-8.54231e-06,1.43206e-05,-8.85152e-07,0
-2.81853e-05,1.07944e-05,-6.94903e-06,2.12413e-05,1.08149e-05,-5.2852e-06,1.53843e-05,8.06724e-07,0
-2.8417e-05,1.0857e-05,-6.83279e-06,2.08266e-05,9.61519e-06,-4.27308e-06,1.62613e-05,3.13272e-06,0
-3.03885e-05,1.20378e-05,-7.32047e-06,1.49101e-05,9.32651e-06,-4.80874e-06,1.61588e-05,3.6282e-06,0
-3.15794e-05,1.22773e-05,-7.09282e-06,8.43805e-06,1.02736e-05,-4.69065e-06,1.54167e-05,2.30615e-06,0
-3.04132e-05,1.10811e-05,-5.0114e-06,4.30551e-06,1.12584e-05,-3.81824e-06,1.56525e-05,5.72247e-07,0
-2.9145e-05,1.10531e-05,-2.9449e-06,3.94735e-07,1.07665e-05,-3.06909e-06,1.62363e-05,-1.00314e-06,0
-3.03642e-05,1.13835e-05,-4.13906e-06,-5.09477e-06,9.27691e-06,-1.21356e-06,1.60951e-05,-1.32839e-06,0
-3.18142e-05,1.1526e-05,-7.22586e-06,-9.53466e-06,8.03611e-06,-5.0685e-08,1.66451e-05,-1.9834e-07,0
-3.13107e-05,1.21087e-05,-8.52597e-06,-1.09215e-05,9.05208e-06,-3.74642e-07,1.85747e-05,1.22641e-06,0
-3.09068e-05,1.38043e-05,-9.51064e-06,-9.90463e-06,1.24921e-05,-1.56785e-06,2.01266e-05,1.17491e-06,0
-3.18872e-05,1.5209e-05,-1.14351e-05,-6.35249e-06,1.72333e-05,-2.65171e-06,1.9787e-05,2.68255e-07,0
-3.37741e-05,1.54396e-05,-1.19273e-05,-2.5456e-06,2.09258e-05,-3.70453e-06,1.8723e-05,-9.19808e-07,0
-3.57663e-05,1.55328e-05,-9.85955e-06,-4.97413e-06,2.15599e-05,-4.20529e-06,1.83828e-05,-2.2633e-06,0
-3.63102e-05,1.66583e-05,-7.20212e-06,-1.35963e-05,1.87209e-05,-4.18245e-06,1.94553e-05,-3.70161e-06,0
-3.50683e-05,1.61385e-05,-4.65014e-06,-2.08264e-05,1.56313e-05,-3.93008e-06,1.91849e-05,-5.41949e-06,0
-3.32689e-05,1.52017e-05,-2.71432e-06,-2.26593e-05,1.43402e-05,-2.78454e-06,1.7564e-05,-7.4574e-06,0
-3.08754e-05,1.52633e-05,-2.16004e-06,-2.14254e-05,1.42669e-05,-1.62966e-06,1.65599e-05,-8.8321e-06,0
-2.93114e-05,1.35979e-05,-3.81313e-06,-1.6817e-05,1.45146e-05,-1.78479e-06,1.61863e-05,-9.65353e-06,0
-3.04813e-05,1.02128e-05,-7.72802e-06,-9.01603e-06,1.41455e-05,-2.8761e-06,1.42474e-05,-9.39923e-06,0
-3.29241e-05,7.67087e-06,-1.08115e-05,-1.00034e-06,1.52228e-05,-2.52972e-06,1.12526e-05,-7.78987e-06,0
-3.36601e-05,6.07555e-06,-1.13027e-05,2.32823e-06,1.85348e-05,-1.34217e-06,9.97371e-06,-7.67068e-06,0
-3.36447e-05,6.00988e-06,-1.1199e-05,-4.46735e-06,2.06535e-05,-2.07823e-06,1.16294e-05,-7.91475e-06,0
-3.40861e-05,8.55717e-06,-1.15573e-05,-2.21737e-05,1.77699e-05,-3.80078e-06,1.37931e-05,-5.54125e-06,0
-3.4327e-05,1.65397e-05,-1.19959e-05,-3.57303e-05,1.21263e-05,-5.61989e-06,1.56195e-05,-2.52906e-06,0
-3.37024e-05,2.89752e-05,-1.02401e-05,-3.69405e-05,8.89245e-06,-7.18628e-06,1.5884e-05,-1.91398e-06,0
-3.21439e-05,3.69021e-05,-6.66344e-06,-3.33418e-05,8.86862e-06,-7.76999e-06,1.42002e-05,-2.20318e-06,0
-3.09182e-05,3.75892e-05,-5.22532e-06,-2.99505e-05,8.81261e-06,-8.53641e-06,1.47124e-05,-2.40205e-06,0
-3.06757e-05,3.3179e-05,-4.47864e-06,-2.6717e-05,7.65759e-06,-7.40234e-06,1.70331e-05,-2.76473e-06,0
-3.09833e-05,2.72173e-05,-3.37435e-06,-1.34726e-05,7.26841e-06,-6.12352e-06,1.86547e-05,-2.986e-06,0
-3.0105e-05,1.97829e-05,-2.18954e-06,8.57848e-06,8.23231e-06,-5.90377e-06,1.8455e-05,-2.79737e-06,0
-2.91063e-05,1.24147e-05,-1.89722e-06,2.71703e-05,1.01455e-05,-6.22853e-06,1.7214e-05,-3.26891e-06,0
-2.81346e-05,7.5743e-06,-2.81095e-06,3.23317e-05,1.26741e-05,-7.70436e-06,1.62157e-05,-4.64101e-06,0
-2.73211e-05,2.31806e-06,-4.19399e-06,2.69654e-05,1.56475e-05,-9.61064e-06,1.56908e-05,-6.27107e-06,0
-2.75243e-05,-5.43417e-06,-7.05671e-06,2.0208e-05,1.80195e-05,-1.11844e-05,1.56708e-05,-7.54333e-06,0
-2.87831e-05,-1.48076e-05,-9.79949e-06,1.44852e-05,1.83079e-05,-1.25608e-05,1.71766e-05,-8.97671e-06,0
-3.04321e-05,-2.11998e-05,-1.11294e-05,8.55493e-06,1.71508e-05,-1.49659e-05,1.89041e-05,-9.49732e-06,0
-3.22714e-05,-2.19487e-05,-1.1339e-05,3.97656e-06,1.77305e-05,-1.72514e-05,1.89753e-05,-7.89589e-06,0
-3.42024e-05,-1.86722e-05,-1.12551e-05,3.94206e-06,1.94239e-05,-1.79045e-05,1.7693e-05,-6.09429e-06,0
-3.49889e-05,-1.4393e-05,-1.11292e-05,5.71129e-06,2.04419e-05,-1.69624e-05,1.45648e-05,-5.89151e-06,0
-3.46503e-05,-1.10266e-05,-1.06759e-05,5.11323e-06,2.10787e-05,-1.56105e-05,9.70512e-06,-7.55849e-06,0
-3.39771e-05,-8.26295e-06,-9.60865e-06,1.64643e-06,2.18565e-05,-1.49928e-05,5.8262e-06,-8.63485e-06,0
-3.42034e-05,-4.43219e-06,-7.84205e-06,-9.54311e-07,2.21617e-05,-1.61082e-05,3.79729e-06,-7.73476e-06,0
-3.4711e-05,-1.14386e-06,-6.37401e-06,-4.84378e-06,1.96912e-05,-1.68692e-05,1.35882e-06,-5.08414e-06,0
-3.45306e-05,5.74147e-08,-6.89057e-06,-1.31467e-05,1.45724e-05,-1.60353e-05,-1.75448e-06,-1.94701e-06,0
-3.32749e-05,1.20528e-06,-9.10213e-06,-2.2875e-05,9.12868e-06,-1.59019e-05,-4.20997e-06,6.0918e-07,0
-3.1749e-05,4.31035e-06,-1.03777e-05,-2.84038e-05,6.1796e-06,-1.7016e-05,-3.91927e-06,1.92336e-06,0
-3.10265e-05,7.48556e-06,-9.23261e-06,-3.14917e-05,5.29407e-06,-1.7025e-05,-2.17313e-06,3.13242e-06,0
-3.07821e-05,7.67784e-06,-6.93649e-06,-3.5401e-05,5.48341e-06,-1.53351e-05,-1.88307e-06,3.839e-06,0
-3.09624e-05,6.41009e-06,-5.04965e-06,-3.69261e-05,6.1768e-06,-1.49235e-05,-1.97157e-06,3.5769e-06,0
-3.22156e-05,5.64514e-06,-4.44745e-06,-2.97985e-05,8.15407e-06,-1.70259e-05,-4.02243e-07,3.75986e-06,0
-3.20148e-05,5.88056e-06,-5.38757e-06,-1.45789e-05,1.08565e-05,-1.94785e-05,2.42051e-06,6.56881e-06,0
-3.16415e-05,5.36577e-06,-6.38542e-06,1.65572e-07,1.25635e-05,-2.11129e-05,4.20392e-06,9.13773e-06,0
-3.36544e-05,5.11456e-06,-6.47839e-06,1.37818e-05,1.28293e-05,-1.96745e-05,5.13555e-06,8.67608e-06,0
-3.41765e-05,6.91012e-06,-6.43563e-06,2.34992e-05,1.2442e-05,-1.56277e-05,6.36053e-06,7.83986e-06,0
-3.23164e-05,8.83339e-06,-7.71969e-06,2.84017e-05,1.39195e-05,-1.3193e-05,8.15503e-06,8.58695e-06,0
-2.91772e-05,8.82726e-06,-8.75218e-06,3.85033e-05,1.42043e-05,-1.39109e-05,1.07197e-05,1.02868e-05,0
-2.68673e-05,7.37348e-06,-8.96325e-06,5.03536e-05,1.17893e-05,-1.58666e-05,1.0911e-05,1.05199e-05,0
-2.65627e-05,5.60521e-06,-9.77643e-06,5.22681e-05,9.89047e-06,-1.55809e-05,3.47692e-06,1.08012e-05,0
-2.66883e-05,4.35444e-06,-1.04467e-05,3.96525e-05,9.77415e-06,-1.39535e-05,-6.82868e-06,1.16382e-05,0
-2.71202e-05,6.02626e-06,-9.70841e-06,1.95322e-05,9.90605e-06,-1.35139e-05,-1.23836e-05,1.21218e-05,0
-2.82734e-05,1.18525e-05,-8.53303e-06,3.68384e-06,9.48668e-06,-1.41836e-05,-1.03318e-05,1.09972e-05,0
-2.87421e-05,1.87272e-05,-8.24664e-06,-3.70249e-06,9.75446e-06,-1.30844e-05,-1.44051e-06,9.52768e-06,0
-2.80762e-05,2.19518e-05,-8.77443e-06,-5.57551e-06,1.36778e-05,-9.75743e-06,1.13909e-05,9.76532e-06,0
-2.77083e-05,2.0707e-05,-1.0353e-05,-8.4836e-06,2.02586e-05,-7.43172e-06,2.4514e-05,1.20439e-05,0
-2.70164e-05,1.64348e-05,-1.20239e-05,-1.64209e-05,2.42742e-05,-7.2955e-06,3.54137e-05,1.31806e-05,0
-2.60928e-05,9.88227e-06,-1.19065e-05,-3.00206e-05,2.4385e-05,-8.13253e-06,4.35208e-05,1.06666e-05,0
-2.67197e-05,2.42071e-06,-9.05607e-06,-4.35429e-05,2.27024e-05,-8.40685e-06,4.56738e-05,6.80976e-06,0
-2.79774e-05,-2.26047e-06,-6.88942e-06,-4.84568e-05,2.14343e-05,-8.60718e-06,4.04263e-05,3.30904e-06,0
-2.87134e-05,-1.40275e-06,-8.75871e-06,-3.81106e-05,1.96724e-05,-9.26195e-06,3.24041e-05,1.1033e-06,0
-3.00777e-05,2.97872e-06,-1.38146e-05,-9.27903e-06,1.64847e-05,-9.36607e-06,2.86209e-05,-1.34474e-07,0
-3.10622e-05,6.64468e-06,-1.82387e-05,3.17212e-05,1.27495e-05,-8.65229e-06,2.80161e-05,-7.8688e-07,0
-2.99102e-05,8.15199e-06,-1.87807e-05,6.10827e-05,1.1969e-05,-8.56082e-06,2.76924e-05,-6.0662e-07,0
-2.89228e-05,7.87026e-06,-1.63114e-05,6.06981e-05,1.42441e-05,-8.98113e-06,2.65854e-05,1.1212e-06,0
-3.06686e-05,7.3016e-06,-1.40832e-05,3.76751e-05,1.56097e-05,-8.41052e-06,2.46069e-05,3.3025e-06,0
-3.29705e-05,7.93132e-06,-1.33145e-05,1.14877e-05,1.58588e-05,-7.65207e-06,2.22288e-05,3.17346e-06,0
-3.37384e-05,1.21668e-05,-1.292e-05,-5.81181e-06,1.51226e-05,-8.21858e-06,1.95636e-05,-7.48395e-08,0
-3.37394e-05,1.90015e-05,-1.16953e-05,-1.66619e-05,1.42444e-05,-9.48762e-06,1.85466e-05,-2.0799e-06,0
-3.29444e-05,2.30488e-05,-9.87534e-06,-2.31364e-05,1.27035e-05,-9.37105e-06,1.75109e-05,-2.53186e-07,0
-3.04474e-05,2.545e-05,-9.55109e-06,-2.5904e-05,1.04512e-05,-8.62459e-06,1.44648e-05,1.18685e-06,0
-2.80459e-05,2.79729e-05,-1.05702e-05,-2.91827e-05,9.23509e-06,-9.04378e-06,1.12978e-05,-6.06191e-07,0
-2.81183e-05,3.13414e-05,-1.04476e-05,-3.44129e-05,9.94443e-06,-1.02396e-05,8.15797e-06,-3.23911e-06,0
-2.93572e-05,3.34782e-05,-8.00728e-06,-4.08311e-05,1.14901e-05,-1.0648e-05,5.10609e-06,-3.2974e-06,0
-2.94296e-05,3.07573e-05,-6.03236e-06,-4.65332e-05,1.12753e-05,-9.55939e-06,5.01434e-06,-1.34544e-07,0
-2.83263e-05,2.93977e-05,-5.62065e-06,-4.81049e-05,1.15818e-05,-8.49095e-06,7.43656e-06,3.06792e-06,0
-2.76423e-05,3.44763e-05,-6.68592e-06,-4.34836e-05,1.18691e-05,-8.4174e-06,7.65109e-06,5.02804e-06,0
-2.7897e-05,4.44346e-05,-8.01006e-06,-3.30684e-05,1.16167e-05,-8.6679e-06,5.14635e-06,6.49273e-06,0
-2.83057e-05,5.47985e-05,-8.53414e-06,-2.08098e-05,1.16911e-05,-8.11928e-06,1.47381e-06,6.88024e-06,0
-2.85168e-05,6.04011e-05,-9.17132e-06,-1.28969e-05,1.26275e-05,-7.36715e-06,-1.03816e-06,6.86871e-06,0
-2.90183e-05,5.59799e-05,-9.54307e-06,-1.06936e-05,1.37805e-05,-7.15508e-06,-7.29972e-07,6.75213e-06,0
