ch1,ch2,ch3,ch4,ch5,ch6,ch7,ch8,class
-3.00818e-05,3.18467e-05,-9.77763e-06,-1.13075e-05,5.52859e-06,-7.46405e-06,4.81009e-06,4.43186e-06,0
-2.81579e-05,3.36538e-05,-1.06875e-05,-1.15754e-05,4.99943e-06,-7.4788e-06,5.99851e-06,4.88308e-06,0
-2.59419e-05,3.71901e-05,-1.0216e-05,-1.46482e-05,2.88961e-06,-7.4767e-06,7.88658e-06,4.43653e-06,0
-2.51877e-05,3.96186e-05,-8.41964e-06,-1.69408e-05,6.43761e-07,-7.49289e-06,8.62236e-06,4.90181e-06,0
-2.58193e-05,4.1381e-05,-6.23069e-06,-1.50287e-05,-9.60757e-08,-6.32207e-06,7.96673e-06,4.68069e-06,0
-2.63204e-05,4.04813e-05,-4.25709e-06,-9.50961e-06,1.70655e-06,-5.52262e-06,6.78461e-06,4.41112e-06,0
-2.61041e-05,3.81879e-05,-3.86673e-06,-2.38058e-06,5.54534e-06,-6.91949e-06,7.33805e-06,6.26786e-06,0
-2.48948e-05,3.56544e-05,-5.83603e-06,4.31485e-06,7.75533e-06,-7.19172e-06,9.04294e-06,7.69231e-06,0
-2.47972e-05,3.18302e-05,-8.23199e-06,7.03265e-06,9.03255e-06,-5.63956e-06,1.02086e-05,6.31059e-06,0
-2.53972e-05,2.84473e-05,-7.90054e-06,3.31119e-06,1.15514e-05,-6.03255e-06,1.06011e-05,3.10864e-06,0
-2.55033e-05,2.58604e-05,-6.47485e-06,-3.26928e-06,1.47618e-05,-5.59043e-06,9.13897e-06,1.31111e-06,0
-2.66601e-05,2.48153e-05,-6.17479e-06,-6.57825e-06,1.952e-05,-4.47609e-06,7.94466e-06,2.79442e-06,0
-2.7076e-05,2.55463e-05,-7.21144e-06,-8.10707e-06,1.99175e-05,-4.64444e-06,7.85787e-06,4.32018e-06,0
-2.71798e-05,2.6086e-05,-7.58294e-06,-1.02627e-05,1.53188e-05,-5.1734e-06,7.34851e-06,3.47051e-06,0
-2.79979e-05,2.65528e-05,-6.17117e-06,-1.27771e-05,1.04301e-05,-5.61961e-06,7.90943e-06,1.63245e-06,0
-2.77273e-05,3.13736e-05,-3.57747e-06,-1.35587e-05,6.2358e-06,-4.56331e-06,8.80509e-06,7.01824e-07,0
-2.6636e-05,4.10187e-05,-1.51725e-06,-1.3779e-05,3.12321e-06,-3.16036e-06,8.44496e-06,-4.19329e-07,0
-2.6753e-05,5.10187e-05,-8.57467e-07,-1.57527e-05,2.11786e-06,-2.65531e-06,7.47158e-06,-2.23132e-06,0
-2.79835e-05,5.74865e-05,-8.14754e-07,-1.73541e-05,3.78924e-06,-3.33089e-06,7.34797e-06,-2.43975e-06,0
-2.85456e-05,5.58589e-05,-1.718e-06,-1.82205e-05,6.57129e-06,-3.56228e-06,8.50842e-06,-1.82254e-06,0
-2.83857e-05,4.38152e-05,-4.31153e-06,-1.9141e-05,9.74856e-06,-2.87864e-06,9.60162e-06,-1.11077e-06,0
-2.79837e-05,2.29036e-05,-7.58253e-06,-2.01801e-05,1.20503e-05,-2.59999e-06,9.51801e-06,-4.04246e-08,0
-2.73028e-05,-1.04799e-06,-9.00268e-06,-1.66553e-05,1.33798e-05,-3.09934e-06,9.5101e-06,1.35952e-06,0
-2.64872e-05,-2.12387e-05,-7.94741e-06,-4.91455e-06,1.36807e-05,-3.67404e-06,1.11008e-05,2.82446e-06,0
-2.50198e-05,-2.98362e-05,-5.57384e-06,1.19547e-05,1.30666e-05,-4.78959e-06,1.32755e-05,3.15303e-06,0
-2.38873e-05,-2.51677e-05,-4.34789e-06,2.66481e-05,1.18602e-05,-6.46081e-06,1.43223e-05,1.53389e-06,0
-2.47011e-05,-1.36849e-05,-3.62284e-06,3.56579e-05,1.02815e-05,-7.31791e-06,1.31814e-05,-2.44136e-07,0
-2.59397e-05,-1.60925e-06,-1.42443e-07,3.82811e-05,8.59619e-06,-6.57291e-06,1.08999e-05,-4.92203e-07,0
-2.67195e-05,8.63992e-06,8.91276e-06,3.54901e-05,8.12788e-06,-5.26383e-06,9.36035e-06,-2.53804e-08,0
-2.73075e-05,1.49266e-05,2.23543e-05,2.73614e-05,7.64825e-06,-5.35669e-06,9.50348e-06,-1.98238e-07,0
-2.83634e-05,1.6721e-05,3.59099e-05,1.50306e-05,5.27045e-06,-7.02633e-06,9.75819e-06,-5.91189e-07,0
-2.98466e-05,1.83118e-05,4.90812e-05,4.71246e-06,2.85681e-06,-1.03405e-05,8.05916e-06,-2.51232e-07,0
-3.10941e-05,2.17041e-05,5.88114e-05,-1.43241e-06,2.98797e-06,-1.31466e-05,6.26092e-06,4.85412e-08,0
-3.14581e-05,2.0999e-05,5.45616e-05,-6.82776e-06,4.9953e-06,-1.36281e-05,5.34822e-06,8.03949e-07,0
-3.10695e-05,1.57088e-05,3.43116e-05,-1.23465e-05,6.02527e-06,-1.33046e-05,4.29918e-06,1.6649e-06,0
-3.13016e-05,1.2122e-05,3.84216e-06,-1.69955e-05,6.28425e-06,-1.34914e-05,4.90644e-06,8.08308e-07,0
-3.13126e-05,7.6658e-06,-2.72199e-05,-2.28549e-05,5.93753e-06,-1.40172e-05,7.19189e-06,-1.86586e-06,0
-3.05815e-05,-1.78993e-06,-4.77577e-05,-2.50193e-05,5.02025e-06,-1.39965e-05,8.68404e-06,-3.62188e-06,0
-3.07878e-05,-1.29703e-05,-5.40281e-05,-1.86977e-05,3.30065e-06,-1.39015e-05,8.78573e-06,-4.54194e-06,0
-3.30535e-05,-2.34793e-05,-4.48005e-05,-6.33182e-06,9.46598e-07,-1.51264e-05,8.49762e-06,-4.07947e-06,0
-3.53434e-05,-3.08012e-05,-2.52519e-05,7.13183e-06,1.52736e-06,-1.72091e-05,8.58652e-06,-3.18633e-06,0
-3.63925e-05,-3.31549e-05,-6.29278e-06,1.79522e-05,6.63846e-06,-1.84882e-05,8.46451e-06,-2.58965e-06,0
-3.60767e-05,-3.28645e-05,1.90098e-06,3.20548e-05,1.32588e-05,-1.90744e-05,7.2721e-06,-1.72788e-06,0
-3.52464e-05,-2.91601e-05,-4.18278e-06,5.32787e-05,1.73922e-05,-1.95803e-05,4.01692e-06,-1.3912e-06,0
-3.65195e-05,-2.27552e-05,-1.98278e-05,6.96144e-05,1.88774e-05,-2.02876e-05,-8.42127e-07,-3.09615e-07,0
-3.81389e-05,-1.76214e-05,-3.77013e-05,7.25855e-05,1.83136e-05,-2.20458e-05,-1.98936e-06,4.76748e-07,0
-3.76857e-05,-1.49131e-05,-5.18529e-05,6.55486e-05,1.59222e-05,-2.41933e-05,3.42169e-06,-3.20987e-07,0
-3.61912e-05,-1.33431e-05,-5.91837e-05,4.95404e-05,1.39626e-05,-2.41185e-05,1.22669e-05,-1.57531e-06,0
-3.57356e-05,-1.17307e-05,-5.96428e-05,2.28668e-05,1.48875e-05,-2.11656e-05,2.1675e-05,-7.6467e-07,0
-3.57713e-05,-9.05292e-06,-5.69847e-05,-7.56703e-06,1.86961e-05,-1.84927e-05,2.95694e-05,2.13615e-06,0
-3.56798e-05,-4.66903e-06,-5.34554e-05,-2.98644e-05,2.24817e-05,-1.82269e-05,3.29343e-05,5.66427e-06,0
-3.56168e-05,4.77344e-07,-4.81755e-05,-4.15233e-05,2.47833e-05,-1.91166e-05,3.14189e-05,7.50631e-06,0
-3.54316e-05,4.34911e-06,-4.13523e-05,-4.64864e-05,2.51404e-05,-1.95346e-05,2.87425e-05,7.18509e-06,0
-3.50465e-05,6.86972e-06,-3.41532e-05,-4.59812e-05,2.3178e-05,-1.9527e-05,2.6584e-05,5.42571e-06,0
-3.45657e-05,8.68591e-06,-2.66757e-05,-3.97163e-05,2.02221e-05,-1.99302e-05,2.48548e-05,2.87128e-06,0
-3.45622e-05,9.6714e-06,-1.90184e-05,-3.31761e-05,1.91399e-05,-1.93854e-05,2.37437e-05,9.22211e-07,0
-3.42787e-05,8.73669e-06,-1.30196e-05,-3.22144e-05,1.97532e-05,-1.69233e-05,2.38076e-05,2.18124e-06,0
-3.3249e-05,7.39071e-06,-1.0449e-05,-3.76618e-05,1.9504e-05,-1.49151e-05,2.53167e-05,4.98619e-06,0
-3.17959e-05,8.31792e-06,-9.15738e-06,-4.48961e-05,1.92068e-05,-1.36277e-05,2.68903e-05,5.81972e-06,0
-3.12167e-05,8.75471e-06,-7.20237e-06,-4.86428e-05,2.02652e-05,-1.22265e-05,2.66847e-05,7.40244e-06,0
-3.08134e-05,7.31493e-06,-8.56372e-06,-5.21455e-05,1.99456e-05,-1.15636e-05,2.54323e-05,1.0164e-05,0
-2.98483e-05,6.87008e-06,-1.38081e-05,-5.48678e-05,1.75796e-05,-1.10661e-05,2.50099e-05,1.23147e-05,0
-2.97612e-05,8.55356e-06,-1.83318e-05,-5.41929e-05,1.54673e-05,-9.80142e-06,2.38837e-05,1.24753e-05,0
-3.08065e-05,1.21018e-05,-1.96454e-05,-5.11938e-05,1.51205e-05,-9.47293e-06,2.25721e-05,1.04018e-05,0
-3.11229e-05,1.60798e-05,-1.83964e-05,-4.56172e-05,1.55908e-05,-9.2968e-06,2.11371e-05,8.1263e-06,0
-3.13282e-05,2.10111e-05,-1.65172e-05,-4.10527e-05,1.86022e-05,-8.39293e-06,1.79103e-05,6.32648e-06,0
-3.19648e-05,2.65909e-05,-1.53244e-05,-3.70706e-05,2.26553e-05,-8.02945e-06,1.56514e-05,4.53904e-06,0
-3.13174e-05,2.8536e-05,-1.62271e-05,-2.98761e-05,2.44745e-05,-7.345e-06,1.31566e-05,2.95231e-06,0
-3.05479e-05,2.49691e-05,-1.764e-05,-1.80748e-05,2.32714e-05,-7.12193e-06,4.71364e-06,1.92994e-06,0
-3.00294e-05,1.87339e-05,-1.60103e-05,-5.25948e-06,1.89482e-05,-8.15718e-06,-7.26303e-06,9.27653e-07,0
-2.9674e-05,1.41265e-05,-1.18363e-05,3.48816e-06,1.497e-05,-1.03116e-05,-1.3899e-05,3.16755e-07,0
-2.97359e-05,1.26728e-05,-8.22987e-06,6.93552e-06,1.1706e-05,-1.19441e-05,-1.32402e-05,8.24019e-07,0
-2.90827e-05,1.19872e-05,-4.75328e-06,4.4403e-06,1.00573e-05,-1.16998e-05,-6.86781e-06,1.97119e-06,0
-2.80252e-05,1.05979e-05,7.21697e-07,-3.1124e-06,1.01164e-05,-1.04575e-05,1.96809e-06,1.95337e-06,0
-2.77254e-05,8.6465e-06,6.59581e-06,-1.10124e-05,1.18868e-05,-8.91316e-06,9.94213e-06,8.55928e-07,0
-2.86231e-05,5.89179e-06,9.97976e-06,-1.26391e-05,1.47204e-05,-8.048e-06,1.65406e-05,8.3687e-07,0
-2.98286e-05,5.04692e-06,1.02609e-05,-7.98961e-06,1.71784e-05,-8.18078e-06,2.17069e-05,2.11412e-06,0
-3.02765e-05,9.41256e-06,9.24424e-06,-4.0794e-06,1.66861e-05,-7.24837e-06,2.44037e-05,2.71528e-06,0
-3.07258e-05,1.78287e-05,8.07686e-06,-7.34724e-06,1.32675e-05,-4.59092e-06,2.32754e-05,9.19984e-07,0
-3.15162e-05,2.47255e-05,6.946e-06,-1.68373e-05,1.01549e-05,-3.20796e-06,2.02431e-05,-1.27839e-06,0
-3.10516e-05,2.72967e-05,6.00061e-06,-2.66468e-05,9.86178e-06,-3.1818e-06,1.66303e-05,-1.04535e-06,0
-2.97647e-05,2.91662e-05,4.49087e-06,-3.27354e-05,1.14017e-05,-2.11467e-06,1.32022e-05,7.28548e-09,0
-2.89977e-05,3.75167e-05,3.70552e-06,-3.437e-05,1.10508e-05,-6.35265e-08,1.15164e-05,-5.43361e-07,0
-2.85225e-05,5.10311e-05,5.55861e-06,-3.02903e-05,9.91714e-06,-1.07177e-08,1.11776e-05,-6.90204e-07,0
-2.93592e-05,5.67683e-05,6.95803e-06,-2.19917e-05,8.61673e-06,-2.76995e-06,1.04859e-05,-1.17979e-06,0
-3.09267e-05,5.0273e-05,6.7202e-06,-1.154e-05,7.22813e-06,-4.76684e-06,1.16907e-05,-3.06212e-06,0
-3.1005e-05,3.98271e-05,5.51999e-06,9.08333e-07,6.45799e-06,-4.64856e-06,1.3589e-05,-3.74022e-06,0
-3.01046e-05,2.76765e-05,2.76618e-06,1.1003e-05,5.36281e-06,-5.80834e-06,1.44248e-05,-1.19446e-06,0
-2.84159e-05,1.33995e-05,6.00953e-07,1.4063e-05,4.67548e-06,-8.10628e-06,1.31628e-05,1.45791e-06,0
-2.75449e-05,2.38251e-06,-9.31937e-07,1.32459e-05,7.14465e-06,-7.62358e-06,7.27385e-06,1.10092e-06,0
-2.78335e-05,-3.52077e-06,-5.3634e-07,1.37979e-05,1.15293e-05,-5.0599e-06,-1.40101e-06,-1.05844e-08,0
-2.6662e-05,-5.91707e-06,9.51898e-07,1.38575e-05,1.5324e-05,-1.70057e-06,-7.20062e-06,1.40118e-07,0
-2.71809e-05,-4.86914e-06,1.15714e-06,1.22574e-05,1.62577e-05,2.37339e-07,-4.03291e-06,1.55334e-06,0
-2.91454e-05,-4.02129e-06,1.29586e-06,1.15527e-05,1.42776e-05,2.52642e-07,3.79916e-06,2.48569e-06,0
-3.01196e-05,-4.13334e-06,2.65964e-06,1.22641e-05,1.29465e-05,2.80762e-07,6.82774e-06,1.70073e-06,0
-3.04238e-05,5.00449e-07,4.81308e-06,1.13295e-05,1.24722e-05,8.11966e-07,3.25849e-06,-1.87284e-07,0
-2.96132e-05,1.28123e-05,5.99157e-06,7.76414e-06,1.16906e-05,3.14238e-07,5.12313e-07,-7.26258e-07,0
-2.79897e-05,2.87249e-05,6.49507e-06,2.66936e-06,9.91944e-06,-1.12525e-06,1.26596e-06,-1.69517e-07,0
-2.76297e-05,3.80377e-05,6.77306e-06,2.7366e-07,9.02564e-06,-8.04771e-07,3.46565e-06,1.5878e-06,0
-2.90249e-05,3.78015e-05,6.98817e-06,1.85126e-06,1.01034e-05,-2.71998e-07,6.44015e-06,2.09824e-06,0
-2.93163e-05,3.38515e-05,6.52155e-06,3.80133e-06,1.0477e-05,-1.6602e-06,8.1753e-06,3.91462e-07,0
-2.81865e-05,3.342e-05,6.18349e-06,4.56738e-06,8.66718e-06,-3.89616e-06,6.95739e-06,-9.08749e-07,0
-2.70383e-05,3.80783e-05,6.2456e-06,5.10548e-06,7.08734e-06,-4.10695e-06,4.35759e-06,-1.89695e-06,0
-2.7008e-05,4.2744e-05,5.61447e-06,6.06787e-06,8.79761e-06,-2.78318e-06,5.55722e-06,-3.73458e-06,0
-2.71416e-05,4.21642e-05,4.14879e-06,4.7511e-06,1.237e-05,-2.03051e-06,1.40063e-05,-5.37015e-06,0
-2.76403e-05,3.52915e-05,2.16792e-06,1.44713e-06,1.47903e-05,-3.32542e-06,2.75107e-05,-4.52891e-06,0
-2.90889e-05,2.54018e-05,-2.01631e-07,-1.49323e-07,1.63739e-05,-4.58137e-06,3.81269e-05,-2.6161e-06,0
-3.09444e-05,1.94386e-05,-3.25315e-06,2.78259e-06,1.9025e-05,-3.95104e-06,4.20103e-05,-7.14035e-07,0
-3.12596e-05,2.12862e-05,-5.70713e-06,8.14742e-06,2.11318e-05,-3.0495e-06,4.26585e-05,1.98092e-07,0
-3.0025e-05,2.42007e-05,-6.73448e-06,1.27867e-05,2.06124e-05,-3.59277e-06,4.71291e-05,9.47813e-07,0
-2.97005e-05,2.22694e-05,-8.60988e-06,1.48716e-05,1.73647e-05,-6.10533e-06,5.62739e-05,3.42247e-06,0
-3.07393e-05,1.82413e-05,-1.13848e-05,1.43209e-05,1.29036e-05,-9.36452e-06,6.2577e-05,5.5207e-06,0
-3.28054e-05,1.23795e-05,-1.27915e-05,1.08779e-05,8.5213e-06,-1.24572e-05,5.89652e-05,3.73781e-06,0
-3.43157e-05,2.32318e-06,-1.43661e-05,4.97287e-06,4.85797e-06,-1.38881e-05,4.63634e-05,-2.21882e-07,0
-3.50308e-05,-1.02799e-05,-1.49309e-05,-1.45885e-06,2.76847e-06,-1.42398e-05,2.93525e-05,-3.62561e-06,0
-3.43316e-05,-1.93756e-05,-1.267e-05,-6.18455e-06,2.21912e-06,-1.38947e-05,1.15431e-05,-5.37306e-06,0
-3.26381e-05,-2.27024e-05,-5.9339e-06,-6.68374e-06,9.09465e-07,-1.27914e-05,-4.12182e-06,-4.33954e-06,0
-3.08622e-05,-2.63679e-05,2.19393e-06,-4.73081e-06,-2.86124e-06,-1.08102e-05,-1.95796e-05,-2.51412e-06,0
-2.99848e-05,-2.87279e-05,5.38916e-06,-4.49427e-06,-6.74265e-06,-9.80626e-06,-3.51557e-05,-2.95344e-06,0
-3.20302e-05,-2.69982e-05,4.4638e-06,-8.17972e-06,-9.45166e-06,-1.13614e-05,-4.52689e-05,-3.37887e-06,0
-3.45665e-05,-2.17577e-05,1.25244e-06,-1.30182e-05,-1.20751e-05,-1.28509e-05,-4.58466e-05,-4.14878e-06,0
-3.59864e-05,-1.36522e-05,-1.76495e-06,-1.57775e-05,-1.46429e-05,-1.37959e-05,-4.06111e-05,-5.15913e-06,0
-3.6572e-05,-3.37961e-06,-4.4803e-06,-1.6649e-05,-1.55971e-05,-1.38439e-05,-3.26642e-05,-4.62424e-06,0
-3.53718e-05,5.51462e-06,-7.4379e-06,-1.71743e-05,-1.41905e-05,-1.30856e-05,-2.1573e-05,-4.49545e-06,0
-3.35823e-05,1.01151e-05,-1.27357e-05,-1.73642e-05,-1.02984e-05,-1.30288e-05,-8.87397e-06,-4.41694e-06,0
-3.2737e-05,1.19056e-05,-2.26709e-05,-1.72175e-05,-4.85517e-06,-1.3907e-05,6.64521e-07,-3.6564e-06,0
-3.26361e-05,1.31605e-05,-3.70611e-05,-1.69515e-05,-9.7168e-07,-1.50782e-05,4.87244e-06,-2.81634e-06,0
-3.2376e-05,1.71375e-05,-5.26493e-05,-1.68743e-05,7.83564e-07,-1.55941e-05,6.28948e-06,-3.30659e-06,0
-3.15096e-05,2.17447e-05,-6.24442e-05,-1.52219e-05,2.23267e-06,-1.47683e-05,7.86877e-06,-4.48627e-06,0
-3.01058e-05,2.52265e-05,-6.24566e-05,-9.79901e-06,7.0611e-06,-1.24379e-05,9.70057e-06,-5.58192e-06,0
-2.82751e-05,2.86769e-05,-5.33932e-05,-1.44072e-06,1.6838e-05,-1.01429e-05,1.04784e-05,-4.88465e-06,0
-2.72537e-05,3.22702e-05,-4.01701e-05,6.56096e-06,2.71749e-05,-9.13256e-06,9.79456e-06,-2.79286e-06,0
-2.766e-05,3.4549e-05,-2.88541e-05,9.90713e-06,3.1905e-05,-8.84079e-06,7.86332e-06,-1.52864e-06,0
-2.86631e-05,3.69535e-05,-2.28892e-05,8.04344e-06,3.0127e-05,-7.68759e-06,6.92038e-06,-1.40994e-06,0
-2.93973e-05,3.89846e-05,-2.00731e-05,7.17661e-06,2.66184e-05,-6.10147e-06,8.50847e-06,-9.4146e-07,0
-2.9686e-05,3.79123e-05,-1.73217e-05,1.54572e-05,2.41374e-05,-4.53682e-06,1.20753e-05,4.93709e-08,0
-3.02426e-05,3.429e-05,-1.43906e-05,2.92395e-05,2.35075e-05,-4.48151e-06,1.58067e-05,9.8765e-09,0
-2.99951e-05,3.07885e-05,-1.20397e-05,3.83658e-05,2.46824e-05,-7.01267e-06,1.87504e-05,-5.05213e-07,0
-2.8705e-05,2.91589e-05,-9.01524e-06,3.87881e-05,2.73561e-05,-8.62025e-06,2.12354e-05,-2.50027e-07,0
-2.77267e-05,2.7166e-05,-5.33741e-06,3.2167e-05,3.14093e-05,-7.89653e-06,2.57503e-05,2.24915e-06,0
-2.70749e-05,2.39373e-05,-2.26839e-06,2.18387e-05,3.43604e-05,-5.79917e-06,3.29305e-05,7.04191e-06,0
-2.58877e-05,2.75395e-05,-3.00539e-07,1.01188e-05,3.14461e-05,-5.32746e-06,3.71218e-05,9.61353e-06,0
-2.44638e-05,4.66153e-05,-3.28391e-07,-5.15023e-07,2.67073e-05,-7.55015e-06,3.55004e-05,8.86892e-06,0
-2.50421e-05,7.31903e-05,-1.38516e-06,-7.84075e-06,2.39434e-05,-8.71024e-06,3.24069e-05,7.76306e-06,0
-2.57594e-05,8.83562e-05,3.41728e-08,-1.78567e-05,2.13648e-05,-9.77484e-06,2.8677e-05,6.37401e-06,0
-2.52334e-05,8.65932e-05,3.62608e-06,-3.53783e-05,1.92928e-05,-1.28882e-05,2.43366e-05,5.36266e-06,0
-2.74302e-05,7.2894e-05,6.36246e-06,-4.7844e-05,1.52229e-05,-1.47337e-05,1.94877e-05,4.52642e-06,0
-3.05084e-05,4.93667e-05,6.50701e-06,-4.81833e-05,1.08169e-05,-1.42505e-05,1.41485e-05,1.5679e-06,0
-3.10023e-05,2.20515e-05,4.77679e-06,-4.34304e-05,8.4772e-06,-1.33904e-05,9.43741e-06,-1.69367e-06,0
-3.07773e-05,-3.92354e-06,3.1434e-06,-3.83862e-05,7.84083e-06,-1.29712e-05,5.21811e-06,-2.013e-06,0
-3.05361e-05,-2.9668e-05,1.16242e-06,-3.36964e-05,7.93113e-06,-1.33e-05,3.66171e-06,-2.87722e-07,0
-2.96767e-05,-5.17858e-05,7.30978e-08,-2.74665e-05,8.62701e-06,-1.36122e-05,4.73563e-06,1.77302e-06,0
-2.89372e-05,-6.16432e-05,3.12086e-07,-1.7925e-05,1.13302e-05,-1.37453e-05,7.46099e-06,2.58686e-06,0
-2.85011e-05,-5.74139e-05,1.45999e-06,-5.19373e-06,1.41663e-05,-1.4704e-05,9.75786e-06,2.46577e-06,0
-2.83088e-05,-4.44838e-05,2.31862e-06,5.20372e-06,1.45725e-05,-1.56715e-05,1.03486e-05,2.53423e-06,0
-3.01416e-05,-2.98886e-05,2.51392e-06,8.46543e-06,1.24273e-05,-1.52577e-05,8.97583e-06,4.12604e-06,0
-3.31045e-05,-1.68001e-05,2.52509e-06,5.46927e-06,9.29733e-06,-1.40375e-05,5.92651e-06,5.69974e-06,0
-3.3836e-05,-4.28596e-06,2.28496e-06,1.02537e-06,5.8576e-06,-1.2835e-05,4.12963e-06,4.1444e-06,0
-3.17106e-05,9.31544e-06,9.80527e-07,3.51728e-07,3.31148e-06,-1.12583e-05,6.13577e-06,2.3807e-07,0
-2.95876e-05,2.21102e-05,-1.84828e-06,6.18925e-06,2.87214e-06,-9.58116e-06,1.0614e-05,-2.43824e-06,0
-2.87163e-05,2.89327e-05,-4.89815e-06,1.71703e-05,4.33335e-06,-9.69723e-06,1.58325e-05,-1.85087e-06,0
-2.78431e-05,2.83677e-05,-8.16861e-06,2.70069e-05,6.72327e-06,-1.1415e-05,2.06305e-05,7.13637e-07,0
-2.77875e-05,2.29698e-05,-1.20705e-05,2.98431e-05,9.33539e-06,-1.21638e-05,2.19692e-05,2.61721e-06,0
-2.79426e-05,1.52381e-05,-1.64808e-05,2.46167e-05,1.09885e-05,-1.22971e-05,2.01736e-05,3.05516e-06,0
-2.71419e-05,7.40768e-06,-2.00858e-05,1.50382e-05,1.15974e-05,-1.28861e-05,1.82768e-05,2.71465e-06,0
-2.752e-05,1.44032e-06,-2.21479e-05,7.24249e-06,1.22752e-05,-1.29419e-05,1.9665e-05,1.80473e-06,0
-3.0157e-05,-3.06648e-06,-2.23602e-05,3.8e-06,1.29874e-05,-1.27641e-05,2.32047e-05,-1.02067e-07,0
-3.24945e-05,-7.45481e-06,-2.08114e-05,3.60359e-06,1.48103e-05,-1.29002e-05,2.4036e-05,-2.15914e-06,0
-3.24871e-05,-9.20114e-06,-1.94118e-05,5.70092e-06,1.75309e-05,-1.32163e-05,1.91644e-05,-1.93405e-06,0
-3.15265e-05,-7.76796e-06,-1.51403e-05,6.94383e-06,1.74774e-05,-1.4349e-05,1.15436e-05,-5.85054e-07,0
-3.04314e-05,-4.0194e-06,-4.84639e-06,5.69292e-06,1.47097e-05,-1.55156e-05,7.66844e-06,-1.97039e-07,0
-2.9026e-05,2.79233e-06,9.7564e-06,1.67427e-06,1.2415e-05,-1.45221e-05,9.09102e-06,-2.26035e-06,0
-2.70977e-05,8.89526e-06,2.59692e-05,-2.7901e-06,1.0033e-05,-1.33418e-05,1.27879e-05,-4.10989e-06,0
-2.60387e-05,1.00122e-05,4.11121e-05,2.93529e-07,8.02978e-06,-1.40958e-05,1.74124e-05,-3.89606e-06,0
-2.63036e-05,8.27647e-06,4.9365e-05,1.73169e-05,6.55449e-06,-1.61943e-05,2.13872e-05,-3.55188e-06,0
-2.60154e-05,8.64526e-06,4.37791e-05,3.24498e-05,5.04905e-06,-1.77792e-05,2.15357e-05,-4.1409e-06,0
-2.59386e-05,9.78125e-06,2.33791e-05,2.83588e-05,2.96681e-06,-1.79912e-05,1.99146e-05,-4.68969e-06,0
-2.64871e-05,1.01626e-05,-7.52062e-06,1.01992e-05,1.18514e-06,-1.89111e-05,1.93047e-05,-4.01713e-06,0
-2.69598e-05,1.24717e-05,-3.82322e-05,-9.5243e-06,1.7518e-06,-1.95696e-05,1.92122e-05,-3.52019e-06,0
-2.66924e-05,2.11199e-05,-6.10452e-05,-2.2806e-05,4.9493e-06,-1.89791e-05,1.77599e-05,-4.01029e-06,0
-2.60435e-05,3.35516e-05,-7.13409e-05,-3.09888e-05,8.52452e-06,-1.87488e-05,1.51035e-05,-4.16889e-06,0
-2.51201e-05,4.15179e-05,-6.76816e-05,-3.51401e-05,9.38593e-06,-1.92975e-05,1.29422e-05,-2.82737e-06,0
-2.44788e-05,4.04099e-05,-5.42024e-05,-3.44928e-05,9.65625e-06,-1.81307e-05,1.03689e-05,-3.99342e-07,0
-2.4902e-05,3.20932e-05,-3.90194e-05,-2.91576e-05,1.11681e-05,-1.56097e-05,7.21499e-06,1.68744e-06,0
-2.56657e-05,2.24286e-05,-2.91273e-05,-2.38481e-05,1.3744e-05,-1.4077e-05,5.80392e-06,1.55066e-06,0
-2.66184e-05,1.59543e-05,-2.32651e-05,-2.36997e-05,1.60489e-05,-1.3698e-05,7.62066e-06,7.04195e-07,0
-2.76003e-05,1.25781e-05,-1.70781e-05,-2.68508e-05,1.75069e-05,-1.44157e-05,1.03891e-05,7.18903e-07,0
-2.86432e-05,9.37521e-06,-1.12809e-05,-2.59369e-05,1.86767e-05,-1.59335e-05,1.29292e-05,1.80467e-06,0
-3.01265e-05,5.23384e-06,-9.44189e-06,-1.94337e-05,2.01259e-05,-1.6923e-05,1.57326e-05,3.01345e-06,0
-3.2195e-05,-5.42786e-07,-9.42108e-06,-1.29284e-05,2.08398e-05,-1.65215e-05,1.8134e-05,4.28179e-06,0
-3.36604e-05,-6.27799e-06,-8.99283e-06,-1.09648e-05,1.87397e-05,-1.53857e-05,1.53669e-05,5.46594e-06,0
-3.3169e-05,-7.27401e-06,-8.93858e-06,-1.40699e-05,1.64456e-05,-1.46864e-05,1.54133e-06,5.18354e-06,0
-3.00299e-05,-1.06194e-06,-9.73735e-06,-1.90026e-05,1.6068e-05,-1.37285e-05,-1.538e-05,4.5731e-06,0
-2.78919e-05,6.68683e-06,-8.98638e-06,-2.42487e-05,1.70297e-05,-1.22414e-05,-1.96821e-05,4.6004e-06,0
-2.7986e-05,1.22542e-05,-7.03482e-06,-2.94765e-05,1.85285e-05,-1.21068e-05,-9.18911e-06,5.96566e-06,0
-2.77734e-05,1.68531e-05,-6.48501e-06,-3.47396e-05,2.20012e-05,-1.11179e-05,5.10795e-06,6.95406e-06,0
-2.70029e-05,1.777e-05,-7.38313e-06,-3.78972e-05,2.50224e-05,-9.15788e-06,1.43825e-05,5.90525e-06,0
-2.6744e-05,1.69513e-05,-8.66738e-06,-3.43672e-05,2.4929e-05,-6.73947e-06,2.07296e-05,4.19575e-06,0
-2.86652e-05,1.83638e-05,-7.765e-06,-2.32824e-05,2.35996e-05,-6.3414e-06,2.66376e-05,3.97152e-06,0
-2.95997e-05,1.99732e-05,-5.10415e-06,-8.7733e-06,2.10037e-05,-8.23864e-06,2.69929e-05,4.56764e-06,0
-3.06855e-05,1.99318e-05,-2.56466e-06,2.5534e-06,2.01798e-05,-8.10596e-06,1.90187e-05,4.90692e-06,0
-3.23433e-05,1.64302e-05,3.10066e-07,5.97344e-06,2.00852e-05,-6.34704e-06,9.26611e-06,5.20313e-06,0
-3.29016e-05,1.25943e-05,2.87287e-06,4.61744e-06,1.99047e-05,-4.29548e-06,6.37803e-06,4.94898e-06,0
-3.27378e-05,1.10924e-05,5.39872e-06,3.21816e-06,1.88904e-05,-3.38816e-06,8.89711e-06,4.99597e-06,0
-3.12152e-05,1.1262e-05,9.71847e-06,2.32076e-06,1.61512e-05,-4.09202e-06,1.33088e-05,4.82744e-06,0
-2.92617e-05,1.09409e-05,1.76652e-05,-1.5678e-06,1.30749e-05,-5.10384e-06,1.95342e-05,5.40196e-06,0
-2.87052e-05,9.02315e-06,2.84458e-05,-7.64417e-06,1.0151e-05,-3.87237e-06,2.51742e-05,6.54714e-06,0
-3.03495e-05,7.17288e-06,3.88157e-05,-1.06482e-05,8.69828e-06,-9.86333e-07,2.85789e-05,6.74691e-06,0
-3.1054e-05,5.38793e-06,4.29857e-05,-9.67813e-06,8.25425e-06,9.66462e-07,2.91876e-05,6.02308e-06,0
-3.05018e-05,4.22859e-06,3.68258e-05,-8.1927e-06,9.84924e-06,9.27876e-07,2.64894e-05,5.87673e-06,0
-3.06307e-05,4.66817e-06,2.08992e-05,-7.54445e-06,1.08646e-05,3.78153e-07,2.32125e-05,6.29233e-06,0
-3.21767e-05,5.04677e-06,-5.98649e-07,-6.11814e-06,1.03286e-05,2.26414e-08,2.1138e-05,7.01361e-06,0
-3.33549e-05,1.64371e-06,-2.2287e-05,-3.32338e-06,1.10769e-05,-5.87449e-07,1.93084e-05,8.4286e-06,0
-3.39101e-05,-2.40884e-06,-4.01417e-05,-3.46572e-07,1.52105e-05,-1.02796e-06,1.6828e-05,8.29887e-06,0
-3.48578e-05,-5.53159e-06,-4.85133e-05,-6.72178e-07,2.02627e-05,-6.71283e-07,1.40138e-05,6.63252e-06,0
-3.65576e-05,-1.04991e-05,-4.63786e-05,-2.13128e-06,2.37581e-05,-2.0951e-07,1.26141e-05,4.60874e-06,0
-3.77588e-05,-1.59545e-05,-3.9454e-05,9.82655e-07,2.52231e-05,-1.41897e-06,1.26248e-05,3.09929e-06,0
-3.7313e-05,-1.7887e-05,-3.20536e-05,8.38966e-06,2.6176e-05,-1.72364e-06,1.28595e-05,2.14046e-06,0
-3.48372e-05,-1.46201e-05,-2.43856e-05,1.65311e-05,2.82883e-05,5.83216e-07,1.24569e-05,1.39083e-06,0
-3.25465e-05,-8.37714e-06,-1.74759e-05,2.13142e-05,3.08076e-05,3.02418e-06,1.1018e-05,-8.38686e-07,0
-3.37382e-05,-2.83621e-06,-1.08694e-05,1.91212e-05,3.03657e-05,3.2596e-06,8.67589e-06,-2.71613e-06,0
-3.50837e-05,-3.28617e-07,-7.05269e-06,1.00605e-05,2.4286e-05,2.24216e-06,6.68054e-06,-1.03168e-06,0
-3.61731e-05,-1.0161e-06,-7.99947e-06,-2.58959e-06,1.56202e-05,2.12938e-06,5.34215e-06,2.08063e-06,0
-3.82006e-05,-2.10012e-06,-6.82909e-06,-1.12103e-05,7.86261e-06,1.70098e-06,6.4094e-06,4.01453e-06,0
-3.98243e-05,-1.31883e-06,-4.27116e-06,-1.68727e-05,2.10948e-06,-1.10406e-08,9.72612e-06,4.27587e-06,0
-3.94947e-05,1.21444e-07,-5.24639e-06,-2.31762e-05,-2.22438e-06,-9.47054e-07,8.71145e-06,2.91811e-06,0
-3.6937e-05,1.76692e-06,-7.14944e-06,-2.64578e-05,-3.76131e-06,-1.21633e-06,-2.76053e-06,1.33184e-06,0
-3.53384e-05,4.07221e-06,-8.8537e-06,-2.56356e-05,-3.28117e-06,-2.39528e-06,-1.91599e-05,1.96921e-06,0
-3.44559e-05,5.95451e-06,-8.84476e-06,-2.32269e-05,-6.1101e-07,-4.22226e-06,-2.52943e-05,2.46705e-06,0
-3.24644e-05,9.03529e-06,-7.86252e-06,-3.01662e-05,3.40678e-06,-5.55018e-06,-1.70183e-05,4.1325e-07,0
-3.08979e-05,1.36723e-05,-7.76331e-06,-4.66147e-05,6.03715e-06,-5.49469e-06,-3.54429e-06,-6.55088e-07,0
-3.0375e-05,1.55034e-05,-8.06534e-06,-5.69506e-05,5.61561e-06,-4.98296e-06,5.20614e-06,7.48635e-09,0
-3.00264e-05,1.65878e-05,-8.59414e-06,-5.35042e-05,6.09851e-06,-4.36897e-06,9.96458e-06,-6.95169e-07,0
-3.0523e-05,2.4221e-05,-9.85708e-06,-3.97247e-05,1.12305e-05,-3.66021e-06,1.6585e-05,-3.4416e-06,0
-3.17741e-05,3.82447e-05,-1.11787e-05,-2.42649e-05,1.79109e-05,-3.7004e-06,2.53981e-05,-5.41943e-06,0
-3.20206e-05,5.29097e-05,-1.08108e-05,-1.07122e-05,2.11218e-05,-4.55314e-06,3.35493e-05,-5.72388e-06,0
-3.13876e-05,6.31987e-05,-9.19833e-06,6.17066e-06,1.86302e-05,-6.58088e-06,3.89329e-05,-5.03062e-06,0
-3.08555e-05,6.54463e-05,-6.947e-06,2.85813e-05,1.31761e-05,-8.41515e-06,4.3003e-05,-3.96571e-06,0
-2.98569e-05,5.91448e-05,-5.77448e-06,5.03838e-05,8.33175e-06,-8.9112e-06,4.68051e-05,-3.1542e-06,0
-2.81435e-05,4.62188e-05,-6.11264e-06,6.38323e-05,6.48568e-06,-9.39338e-06,4.81083e-05,-2.28697e-06,0
-2.72649e-05,2.87092e-05,-6.03478e-06,6.48836e-05,6.28758e-06,-1.08384e-05,4.36219e-05,-2.18929e-06,0
-2.75368e-05,7.81845e-06,-4.37104e-06,5.50127e-05,6.85692e-06,-1.21864e-05,3.47089e-05,-2.39515e-06,0
-2.94084e-05,-1.04497e-05,-3.81786e-06,4.05015e-05,7.85416e-06,-1.31058e-05,2.56412e-05,-1.55932e-06,0
-3.19194e-05,-2.01277e-05,-5.62741e-06,2.6825e-05,8.33696e-06,-1.32588e-05,2.09614e-05,-2.70867e-07,0
-3.32284e-05,-2.25813e-05,-7.30373e-06,1.67287e-05,8.68593e-06,-1.15805e-05,2.24264e-05,8.49603e-07,0
-3.2836e-05,-2.28941e-05,-8.22719e-06,1.14876e-05,1.00991e-05,-1.03248e-05,2.48235e-05,1.89596e-06,0
-3.12623e-05,-2.65356e-05,-1.09895e-05,9.32063e-06,1.26091e-05,-1.07509e-05,2.28239e-05,2.23186e-06,0
-3.03664e-05,-3.31911e-05,-1.30885e-05,8.3046e-06,1.71487e-05,-1.02281e-05,1.73031e-05,1.73057e-06,0
-2.97983e-05,-3.6416e-05,-1.39849e-05,7.26847e-06,2.30667e-05,-7.41653e-06,1.30964e-05,2.99976e-07,0
-2.89528e-05,-3.38291e-05,-1.58581e-05,5.23754e-06,2.77009e-05,-5.52453e-06,1.29163e-05,-1.1737e-06,0
-2.86729e-05,-2.48658e-05,-1.83902e-05,4.86813e-06,2.86971e-05,-5.54716e-06,1.36321e-05,-1.737e-06,0
-2.91097e-05,-1.41855e-05,-1.94398e-05,7.32314e-06,2.85098e-05,-5.66254e-06,1.16486e-05,-8.66993e-07,0
-3.00982e-05,-7.09549e-06,-1.81614e-05,8.13266e-06,2.93294e-05,-6.82005e-06,7.04056e-06,1.4811e-07,0
-3.00112e-05,-3.25044e-06,-1.67979e-05,4.55626e-06,2.9222e-05,-8.53758e-06,2.71218e-06,2.53089e-07,0
-2.91239e-05,-4.426e-07,-1.42072e-05,3.78418e-07,2.77661e-05,-9.60584e-06,2.18488e-06,-2.02943e-07,0
-2.91918e-05,4.66616e-06,-1.20559e-05,-2.05047e-06,2.49188e-05,-9.53304e-06,4.36081e-06,-3.57549e-07,0
-2.96929e-05,9.10192e-06,-1.03227e-05,-4.17464e-06,2.23029e-05,-7.82246e-06,4.68548e-06,2.95921e-07,0
-3.07786e-05,1.17117e-05,-9.11807e-06,-6.94864e-06,1.93923e-05,-7.08241e-06,1.94649e-06,1.18902e-06,0
-3.07826e-05,1.37526e-05,-8.34549e-06,-9.23023e-06,1.53963e-05,-8.91655e-06,-3.08873e-08,2.07694e-06,0
-3.00704e-05,1.58228e-05,-8.55977e-06,-9.71743e-06,1.0918e-05,-1.14233e-05,-3.05528e-07,3.22173e-06,0
-2.94248e-05,1.78139e-05,-9.26508e-06,-9.08577e-06,8.05051e-06,-1.22639e-05,-7.63509e-07,4.53628e-06,0
-2.7612e-05,1.86096e-05,-9.74863e-06,-9.9094e-06,7.30659e-06,-1.16964e-05,-1.09258e-06,5.49668e-06,0
-2.64335e-05,1.80848e-05,-1.0126e-05,-1.30124e-05,8.4306e-06,-1.11119e-05,-7.99346e-07,6.4558e-06,0
-2.80956e-05,1.64308e-05,-1.00778e-05,-1.5681e-05,1.13404e-05,-1.05776e-05,-3.08581e-07,7.6458e-06,0
-3.13581e-05,1.43123e-05,-1.00515e-05,-1.87011e-05,1.40563e-05,-1.03995e-05,4.15346e-07,7.48346e-06,0
-3.32292e-05,1.22951e-05,-9.64912e-06,-2.20437e-05,1.57945e-05,-1.10797e-05,1.58461e-06,4.79464e-06,0
-3.2888e-05,1.13894e-05,-1.0221e-05,-2.10977e-05,1.75578e-05,-1.09861e-05,3.03789e-06,2.14907e-06,0
-3.12248e-05,1.15714e-05,-1.06492e-05,-1.41995e-05,1.91356e-05,-8.77051e-06,4.96303e-06,1.63768e-06,0
-3.00115e-05,1.14582e-05,-9.74891e-06,-5.44325e-06,1.96386e-05,-6.57011e-06,7.41149e-06,2.2077e-06,0
-2.98416e-05,9.82428e-06,-7.59469e-06,1.50458e-06,1.98608e-05,-7.23737e-06,1.00334e-05,1.58145e-06,0
-3.06856e-05,6.97291e-06,-6.62406e-06,5.5556e-06,1.98506e-05,-9.11918e-06,1.24006e-05,1.51938e-06,0
-3.2447e-05,4.48535e-06,-6.98279e-06,6.23314e-06,1.92993e-05,-1.03101e-05,1.32811e-05,3.57914e-06,0
-3.37784e-05,4.06758e-06,-7.96559e-06,3.29081e-06,1.76719e-05,-1.17613e-05,1.3097e-05,4.97561e-06,0
-3.31681e-05,7.85101e-06,-9.18088e-06,-7.58093e-07,1.56533e-05,-1.33763e-05,1.32329e-05,3.75322e-06,0
-3.11676e-05,1.53413e-05,-9.81955e-06,-5.27723e-06,1.42409e-05,-1.36167e-05,1.29564e-05,1.81357e-06,0
-2.94708e-05,2.03086e-05,-8.93197e-06,-1.05157e-05,1.48762e-05,-1.13515e-05,1.06677e-05,2.01395e-06,0
-2.80621e-05,2.17057e-05,-5.82699e-06,-1.28733e-05,1.67963e-05,-1.00306e-05,5.7965e-06,3.00125e-06,0
-2.78379e-05,2.46787e-05,-2.50876e-06,-9.27832e-06,1.65521e-05,-1.07659e-05,2.61697e-06,1.19596e-06,0
-2.80468e-05,2.67604e-05,-1.52167e-06,-3.88733e-06,1.52056e-05,-1.14972e-05,5.57108e-06,-1.43456e-06,0
-2.65217e-05,2.54482e-05,-2.1646e-06,-2.42152e-06,1.41354e-05,-1.11195e-05,1.72384e-05,-2.19352e-06,0
-2.62044e-05,2.52311e-05,-2.74951e-06,-1.43437e-06,1.1407e-05,-1.01133e-05,3.28924e-05,-1.58204e-06,0
-2.86813e-05,2.72034e-05,-3.87248e-06,1.40176e-08,8.58419e-06,-8.77076e-06,4.31426e-05,1.20067e-06,0
-3.03377e-05,2.88319e-05,-4.36834e-06,-6.22206e-08,6.97585e-06,-7.24107e-06,4.62695e-05,3.10668e-06,0
-2.88628e-05,2.86911e-05,-4.51023e-06,-1.43033e-06,7.09814e-06,-6.88767e-06,4.28581e-05,1.37349e-06,0
-2.81454e-05,2.90062e-05,-6.22042e-06,-1.66161e-06,8.62507e-06,-7.74297e-06,3.80342e-05,-1.32514e-06,0
-2.93654e-05,2.95248e-05,-8.45622e-06,-2.20061e-06,9.9551e-06,-9.10779e-06,3.76875e-05,-2.09793e-06,0
-3.05467e-05,2.90605e-05,-1.06507e-05,-3.98151e-06,1.1405e-05,-8.86439e-06,3.98087e-05,-2.08323e-06,0
-3.04486e-05,2.87297e-05,-1.29009e-05,-6.28814e-06,1.37794e-05,-7.87635e-06,3.79326e-05,-2.52815e-06,0
-2.88929e-05,2.95078e-05,-1.4878e-05,-9.48618e-06,1.61146e-05,-7.18557e-06,3.01557e-05,-2.84043e-06,0
-2.80783e-05,3.14998e-05,-1.47709e-05,-1.17442e-05,1.60165e-05,-7.12806e-06,1.92887e-05,-3.29301e-06,0
-2.81216e-05,3.28743e-05,-1.25478e-05,-1.23062e-05,1.63002e-05,-8.57296e-06,8.53022e-06,-4.35944e-06,0
-2.84531e-05,3.38765e-05,-1.00086e-05,-1.15464e-05,1.99493e-05,-1.00353e-05,7.97664e-07,-5.31775e-06,0
-2.81734e-05,3.53209e-05,-7.47884e-06,-1.22854e-05,2.52345e-05,-9.9841e-06,-4.91495e-06,-5.97589e-06,0
-2.71932e-05,3.65272e-05,-5.51363e-06,-1.60096e-05,2.79257e-05,-9.06132e-06,-1.33176e-05,-7.48199e-06,0
-2.62571e-05,3.65998e-05,-3.96505e-06,-2.26305e-05,2.66661e-05,-8.95753e-06,-2.62374e-05,-9.29375e-06,0
-2.65985e-05,3.57434e-05,-2.31241e-06,-2.98393e-05,2.33813e-05,-9.47398e-06,-3.78192e-05,-1.02658e-05,0
-2.76001e-05,3.27909e-05,-1.69644e-07,-3.44118e-05,1.9928e-05,-1.04711e-05,-4.1582e-05,-1.02965e-05,0
-2.81548e-05,2.7327e-05,1.574e-07,-3.40784e-05,1.63955e-05,-1.1791e-05,-3.69247e-05,-9.50068e-06,0
-2.82665e-05,2.19087e-05,-1.4473e-06,-3.02151e-05,1.37387e-05,-1.24623e-05,-2.74086e-05,-7.34503e-06,0
-2.93188e-05,1.7812e-05,-1.4963e-06,-2.3228e-05,1.31143e-05,-1.27829e-05,-1.56922e-05,-5.57523e-06,0
-3.05646e-05,1.3879e-05,5.81919e-08,-1.42543e-05,1.3119e-05,-1.33105e-05,-5.12487e-06,-5.53834e-06,0
-3.06498e-05,1.05225e-05,5.16092e-08,-6.44632e-06,1.34658e-05,-1.41908e-05,7.17398e-07,-5.86115e-06,0
-3.01745e-05,9.56978e-06,1.1417e-06,-3.54569e-07,1.26572e-05,-1.49245e-05,2.43243e-06,-6.03383e-06,0
-3.0488e-05,1.27282e-05,3.03845e-06,1.40713e-06,1.15493e-05,-1.53611e-05,2.58281e-06,-6.87049e-06,0
-3.14235e-05,1.68552e-05,4.32601e-06,-2.82097e-06,1.02872e-05,-1.57689e-05,4.04957e-06,-6.79728e-06,0
-3.02011e-05,2.05216e-05,6.07369e-06,-9.7892e-06,7.13096e-06,-1.6914e-05,5.85053e-06,-6.11415e-06,0
-2.9601e-05,2.50672e-05,4.75853e-06,-1.63079e-05,4.85688e-06,-1.89328e-05,6.6584e-06,-6.062e-06,0
-3.1214e-05,2.88228e-05,-1.27776e-06,-2.00653e-05,6.12626e-06,-2.00827e-05,8.96711e-06,-4.72257e-06,0
-3.35064e-05,3.07754e-05,-1.09311e-05,-2.01104e-05,7.80578e-06,-2.03402e-05,1.15894e-05,-1.61484e-06,0
-3.44793e-05,2.96463e-05,-1.84546e-05,-1.83372e-05,6.71968e-06,-1.99716e-05,1.27646e-05,1.21894e-06,0
-3.3102e-05,2.59943e-05,-1.89801e-05,-1.56037e-05,5.24762e-06,-1.90702e-05,1.25923e-05,1.82346e-06,0
-3.21497e-05,2.20517e-05,-1.27488e-05,-1.16238e-05,4.65731e-06,-1.695e-05,1.37652e-05,1.87309e-06,0
-3.11731e-05,2.22362e-05,-4.40175e-06,-6.67598e-06,5.36006e-06,-1.46655e-05,1.76175e-05,2.82189e-06,0
-2.92668e-05,2.93239e-05,1.16293e-07,-1.78279e-06,6.34196e-06,-1.52427e-05,2.10274e-05,4.81733e-06,0
-2.86206e-05,3.8287e-05,-1.94111e-06,1.69465e-06,6.2912e-06,-1.71402e-05,2.02625e-05,6.2536e-06,0
-2.9021e-05,4.07461e-05,-7.95917e-06,2.38274e-06,4.36935e-06,-1.67935e-05,1.76784e-05,7.13675e-06,0
-2.89929e-05,3.47302e-05,-1.44465e-05,1.08008e-06,2.42715e-06,-1.47645e-05,1.6875e-05,6.59134e-06,0
-2.81837e-05,2.4867e-05,-2.1311e-05,3.39377e-07,2.70012e-06,-1.25651e-05,1.79862e-05,5.43397e-06,0
-2.72629e-05,1.63511e-05,-2.81383e-05,1.90238e-06,3.14867e-06,-1.10163e-05,2.11086e-05,4.65039e-06,0
-2.74617e-05,1.02614e-05,-3.33765e-05,3.94141e-06,4.11519e-06,-1.12019e-05,2.40511e-05,3.41162e-06,0
-2.85076e-05,5.84542e-06,-3.5437e-05,4.35917e-06,6.72411e-06,-1.1389e-05,2.37786e-05,2.3965e-06,0
-2.86832e-05,3.05665e-06,-3.44126e-05,4.62596e-06,9.29401e-06,-1.10357e-05,2.0559e-05,2.22104e-06,0
-2.75033e-05,4.70409e-07,-3.01991e-05,6.98405e-06,9.55777e-06,-1.14352e-05,1.84007e-05,3.48412e-06,0
-2.6796e-05,-2.65613e-06,-2.55141e-05,1.11988e-05,8.94702e-06,-1.24928e-05,1.90294e-05,3.92996e-06,0
-2.78892e-05,-4.16863e-06,-2.39268e-05,1.22428e-05,9.09939e-06,-1.35594e-05,2.14903e-05,2.88532e-06,0
-2.96009e-05,-9.52936e-07,-2.42041e-05,3.64852e-06,9.99185e-06,-1.38203e-05,2.33721e-05,1.46235e-06,0
-3.04386e-05,8.56306e-06,-2.39246e-05,-8.98261e-06,9.21902e-06,-1.28157e-05,2.62703e-05,1.00324e-06,0
-3.02442e-05,1.96585e-05,-2.35401e-05,-1.39076e-05,6.05389e-06,-1.12755e-05,3.06201e-05,1.82521e-06,0
-3.09685e-05,2.91651e-05,-2.29241e-05,-9.11957e-06,1.68935e-06,-1.00434e-05,3.36993e-05,3.48505e-06,0
-3.33507e-05,3.96707e-05,-1.9778e-05,-3.49243e-06,-3.10367e-06,-1.06811e-05,3.34811e-05,4.60234e-06,0
-3.38877e-05,4.77046e-05,-1.60481e-05,7.24363e-07,-6.59879e-06,-1.35557e-05,2.87956e-05,4.09215e-06,0
-3.25624e-05,4.64464e-05,-1.22691e-05,5.81608e-06,-6.32067e-06,-1.60752e-05,2.33411e-05,3.28496e-06,0
-3.25634e-05,3.67218e-05,-7.26098e-06,6.87982e-06,-2.77315e-06,-1.5859e-05,2.05692e-05,3.29799e-06,0
-3.25947e-05,2.85887e-05,-2.14687e-07,4.75336e-06,7.01596e-07,-1.49713e-05,1.79393e-05,2.3956e-06,0
-3.05299e-05,3.6729e-05,7.31642e-06,-2.04501e-06,2.33192e-06,-1.51019e-05,1.41586e-05,3.63523e-07,0
-2.82688e-05,6.68988e-05,9.67622e-06,-1.61489e-05,1.69418e-06,-1.49752e-05,9.40656e-06,-1.51895e-06,0
-2.73179e-05,9.82169e-05,7.39081e-06,-3.35597e-05,1.6128e-06,-1.38755e-05,6.33692e-06,-6.78379e-07,0
-2.77025e-05,0.000107303,4.4236e-06,-3.47457e-05,4.43749e-06,-1.21248e-05,6.25384e-06,2.53357e-07,0
-2.866e-05,9.11029e-05,5.21308e-06,-3.99965e-06,1.04039e-05,-1.01283e-05,5.96063e-06,-7.2238e-07,0
-2.88616e-05,5.69641e-05,1.22945e-05,3.9105e-05,1.49811e-05,-7.76708e-06,5.61228e-06,-1.31968e-06,0
-2.86022e-05,1.46326e-05,2.03676e-05,6.46463e-05,1.70406e-05,-5.84981e-06,5.70389e-06,-7.00129e-07,0
-2.87807e-05,-2.53763e-05,1.8954e-05,6.24538e-05,1.95526e-05,-4.01346e-06,5.56794e-06,1.22686e-06,0
-2.82854e-05,-5.81163e-05,5.04038e-06,4.00529e-05,2.33554e-05,-3.04282e-06,5.17941e-06,2.97079e-06,0
-2.70686e-05,-8.69364e-05,-1.39378e-05,1.13985e-05,2.73569e-05,-3.70631e-06,6.00214e-06,4.7061e-06,0
-2.70964e-05,-0.000111817,-3.07516e-05,-1.0912e-05,2.98368e-05,-5.29387e-06,7.66977e-06,5.68677e-06,0
-2.84491e-05,-0.000125949,-4.11864e-05,-2.30051e-05,2.95263e-05,-6.59733e-06,8.65749e-06,5.28009e-06,0
-3.09388e-05,-0.000118814,-4.17263e-05,-2.77708e-05,2.54561e-05,-7.59455e-06,7.79668e-06,3.81067e-06,0
-3.34661e-05,-8.88415e-05,-3.22312e-05,-3.06032e-05,2.02693e-05,-7.43065e-06,5.85674e-06,3.89183e-06,0
-3.38892e-05,-5.03117e-05,-1.66715e-05,-3.45522e-05,1.63342e-05,-5.90507e-06,5.0303e-06,4.728e-06,0
-3.19578e-05,-2.07689e-05,2.25162e-06,-4.04954e-05,1.32941e-05,-5.45043e-06,6.70668e-06,4.59297e-06,0
-3.00704e-05,-7.71624e-06,2.19529e-05,-4.813e-05,9.80439e-06,-7.58945e-06,1.03694e-05,4.34477e-06,0
-2.97264e-05,-9.15697e-06,4.00397e-05,-5.55395e-05,5.94159e-06,-1.09685e-05,1.40817e-05,4.11079e-06,0
-3.00154e-05,-1.64764e-05,5.51547e-05,-6.07341e-05,2.90142e-06,-1.29181e-05,1.59491e-05,5.01325e-06,0
-2.95802e-05,-2.22168e-05,6.4275e-05,-5.96834e-05,1.8084e-06,-1.35605e-05,1.61137e-05,8.10767e-06,0
-2.73358e-05,-2.24127e-05,6.12823e-05,-4.88235e-05,3.43446e-06,-1.31802e-05,1.50377e-05,1.17133e-05,0
-2.51432e-05,-1.62713e-05,4.26e-05,-2.98983e-05,8.90394e-06,-1.20426e-05,1.39058e-05,1.31544e-05,0
-2.60869e-05,-1.00188e-05,1.04759e-05,-1.21087e-05,1.44186e-05,-1.12215e-05,1.3654e-05,1.09714e-05,0
-2.93042e-05,-2.23251e-06,-2.64142e-05,-2.95306e-06,1.49156e-05,-1.19459e-05,1.30028e-05,8.06019e-06,0
-3.23996e-05,7.4762e-06,-5.16665e-05,1.80614e-06,1.11997e-05,-1.23315e-05,1.33871e-05,7.62464e-06,0
-3.36524e-05,1.13711e-05,-6.30271e-05,1.42749e-05,8.69352e-06,-1.09172e-05,1.66484e-05,6.53224e-06,0
-3.44566e-05,1.06746e-05,-6.52777e-05,3.80486e-05,8.84615e-06,-8.72284e-06,2.28038e-05,4.20232e-06,0
-3.55679e-05,1.07907e-05,-5.58683e-05,5.52909e-05,7.26719e-06,-7.84697e-06,2.8658e-05,3.81327e-06,0
-3.66413e-05,1.15379e-05,-4.15321e-05,5.32053e-05,3.30822e-06,-8.86257e-06,3.06065e-05,5.24551e-06,0
-3.70012e-05,1.13205e-05,-2.9811e-05,3.44411e-05,-1.07083e-06,-1.01332e-05,2.895e-05,7.16978e-06,0
-3.48184e-05,1.07448e-05,-2.36069e-05,1.0689e-05,-3.59276e-06,-8.81184e-06,2.65678e-05,7.46666e-06,0
-3.34489e-05,9.49359e-06,-2.13334e-05,-5.23156e-06,-2.1703e-06,-5.49309e-06,2.30377e-05,6.75235e-06,0
-3.43736e-05,9.21406e-06,-2.10637e-05,-9.61313e-06,7.57292e-07,-5.38621e-06,1.54759e-05,6.22023e-06,0
-3.54391e-05,1.14433e-05,-2.11812e-05,-7.18554e-06,2.86797e-06,-7.73132e-06,5.37117e-06,5.38203e-06,0
-3.64066e-05,1.47394e-05,-2.07006e-05,-3.71645e-06,5.13597e-06,-9.32849e-06,-2.38251e-06,4.8259e-06,0
-3.72566e-05,1.62498e-05,-1.9591e-05,3.10784e-07,7.04592e-06,-9.18299e-06,-4.31429e-06,5.02657e-06,0
-3.64334e-05,1.64158e-05,-1.79456e-05,2.44132e-06,7.619e-06,-8.15954e-06,-3.35012e-06,6.65936e-06,0
-3.43213e-05,1.79836e-05,-1.72547e-05,6.11713e-07,7.67744e-06,-7.47346e-06,-1.016e-06,8.16682e-06,0
-3.32739e-05,1.92435e-05,-1.68538e-05,-3.05879e-06,9.63624e-06,-8.25428e-06,5.44385e-06,8.62769e-06,0
-3.43076e-05,1.90729e-05,-1.57719e-05,-3.57889e-06,1.24844e-05,-9.07461e-06,1.55778e-05,8.11119e-06,0
-3.59913e-05,1.90231e-05,-1.42841e-05,-1.3799e-06,1.35578e-05,-7.82075e-06,2.53055e-05,6.83524e-06,0
-3.57277e-05,2.07375e-05,-1.37832e-05,2.39599e-06,1.18922e-05,-6.934e-06,3.12377e-05,4.70513e-06,0
-3.34263e-05,2.20305e-05,-1.28345e-05,6.04055e-06,8.96964e-06,-8.13061e-06,3.35669e-05,3.13312e-06,0
-3.16482e-05,2.06642e-05,-1.08856e-05,4.80299e-06,7.5765e-06,-9.61937e-06,3.28647e-05,2.17638e-06,0
-3.09717e-05,1.75558e-05,-7.69432e-06,-4.23988e-06,8.03448e-06,-1.06615e-05,2.9933e-05,9.85177e-07,0
-2.96546e-05,1.53354e-05,-4.28052e-06,-1.71981e-05,7.68413e-06,-1.13705e-05,2.6185e-05,-2.61232e-07,0
-2.8657e-05,1.31667e-05,-2.66818e-06,-2.89136e-05,6.63676e-06,-1.03972e-05,2.14884e-05,-1.43505e-06,0
-3.02028e-05,1.21112e-05,-1.93859e-06,-3.9635e-05,6.92754e-06,-8.84201e-06,1.57844e-05,-1.49383e-06,0
-3.18899e-05,1.56582e-05,-7.4716e-07,-5.22035e-05,6.86665e-06,-7.6962e-06,1.20855e-05,-6.50145e-07,0
-3.14491e-05,2.07949e-05,5.85833e-07,-6.50347e-05,7.04085e-06,-7.44003e-06,1.22257e-05,8.04353e-07,0
-2.91482e-05,2.59713e-05,3.4924e-06,-7.2346e-05,8.03822e-06,-6.68389e-06,1.64052e-05,2.26042e-06,0
-2.7033e-05,2.78869e-05,6.93171e-06,-6.90067e-05,7.81466e-06,-5.21751e-06,2.0194e-05,1.50509e-06,0
-2.78269e-05,2.56025e-05,8.49731e-06,-5.36984e-05,9.04482e-06,-4.84611e-06,1.97892e-05,6.48404e-08,0
-2.88598e-05,2.2222e-05,8.65907e-06,-3.09519e-05,1.47138e-05,-3.77844e-06,1.85857e-05,-9.3918e-07,0
-2.85959e-05,2.0203e-05,8.05364e-06,-5.82231e-06,2.15743e-05,-3.20745e-06,1.70538e-05,-2.56439e-06,0
-2.82904e-05,2.09235e-05,5.38833e-06,1.65959e-05,2.68912e-05,-2.118e-06,1.46108e-05,-2.09018e-06,0
-2.82038e-05,2.11562e-05,2.33534e-06,3.04467e-05,3.02956e-05,3.76403e-07,1.20186e-05,1.41655e-07,0
-2.7674e-05,2.12345e-05,4.72604e-07,3.18471e-05,3.13815e-05,2.03301e-06,9.85314e-06,1.91892e-06,0
-2.83915e-05,2.17341e-05,2.18807e-07,2.57778e-05,3.12715e-05,2.18225e-06,7.55432e-06,1.39557e-06,0
-2.94899e-05,2.0529e-05,-2.47585e-08,1.97168e-05,3.03924e-05,7.69444e-07,5.09904e-06,-1.15314e-06,0
-2.9484e-05,1.8181e-05,-3.57893e-06,1.76101e-05,3.01023e-05,-7.83477e-07,2.7136e-06,-3.50667e-06,0
-2.99823e-05,1.76201e-05,-9.03313e-06,1.83559e-05,3.09911e-05,-2.43318e-06,1.05492e-06,-4.05733e-06,0
-3.01434e-05,1.85044e-05,-1.40236e-05,2.01443e-05,3.14565e-05,-4.34266e-06,1.84384e-06,-3.28831e-06,0
-2.90285e-05,1.93274e-05,-1.45133e-05,2.10847e-05,3.11266e-05,-5.2574e-06,4.85944e-06,-3.158e-06,0
-2.76272e-05,2.04481e-05,-1.11611e-05,2.03112e-05,3.0967e-05,-3.69286e-06,7.26359e-06,-3.76074e-06,0
-2.66345e-05,2.33393e-05,-6.70038e-06,1.78433e-05,3.18078e-05,-1.84902e-06,7.09392e-06,-4.3254e-06,0
-2.57479e-05,2.7801e-05,-2.8004e-06,1.1865e-05,3.14096e-05,-2.19075e-06,6.567e-06,-4.28949e-06,0
-2.57763e-05,3.03922e-05,5.85636e-07,2.5229e-06,2.81397e-05,-3.76359e-06,6.63042e-06,-3.40465e-06,0
-2.67005e-05,2.96455e-05,3.21401e-06,-6.4088e-06,2.4833e-05,-4.86262e-06,6.78298e-06,-2.51775e-06,0
-2.77615e-05,2.80973e-05,4.24572e-06,-1.23108e-05,2.43607e-05,-4.94019e-06,6.1737e-06,-3.63017e-06,0
-2.79366e-05,2.86962e-05,4.10181e-06,-1.46692e-05,2.57783e-05,-4.20306e-06,4.87911e-06,-5.72045e-06,0
-2.84903e-05,3.09181e-05,2.94507e-06,-1.36569e-05,2.69717e-05,-2.84411e-06,4.59346e-06,-7.16685e-06,0
-2.90398e-05,3.30362e-05,1.10761e-06,-1.30973e-05,2.5281e-05,-2.14766e-06,6.01719e-06,-8.86532e-06,0
-2.87033e-05,3.33264e-05,-1.19089e-07,-1.19517e-05,2.13236e-05,-3.21037e-06,8.01025e-06,-1.0668e-05,0
-2.87601e-05,3.26092e-05,-2.00219e-07,-6.65503e-06,1.88825e-05,-5.29278e-06,1.10458e-05,-1.09439e-05,0
-2.93689e-05,3.21329e-05,-2.30017e-07,-2.70659e-06,1.99972e-05,-5.63217e-06,1.4752e-05,-9.25371e-06,0
-3.07164e-05,3.30393e-05,-1.30231e-06,-4.29791e-06,2.08601e-05,-3.98149e-06,1.82129e-05,-7.86882e-06,0
-3.14309e-05,3.29837e-05,-3.18774e-06,-5.00307e-06,1.74696e-05,-3.20814e-06,2.1018e-05,-9.26833e-06,0
-3.09588e-05,3.13429e-05,-3.48848e-06,-5.67338e-06,1.36391e-05,-3.70732e-06,1.79673e-05,-1.05995e-05,0
-2.9703e-05,3.0415e-05,-2.49856e-06,-8.0715e-06,1.10647e-05,-3.82497e-06,8.44775e-06,-9.00023e-06,0
-2.82493e-05,2.90329e-05,-1.81121e-06,-1.12714e-05,9.40574e-06,-2.51443e-06,-2.72923e-06,-6.53162e-06,0
-2.74171e-05,2.79017e-05,-1.06959e-06,-1.36649e-05,7.7227e-06,-2.77042e-06,-1.02079e-05,-6.50693e-06,0
-2.72482e-05,2.61184e-05,1.19363e-07,-1.27375e-05,6.38793e-06,-5.38803e-06,-8.25356e-06,-8.61718e-06,0
-2.77319e-05,2.26038e-05,1.3641e-07,-1.14479e-05,6.27195e-06,-8.22766e-06,3.15437e-07,-9.0861e-06,0
-2.9382e-05,1.95462e-05,-2.28316e-06,-1.01095e-05,5.33543e-06,-1.10995e-05,7.73735e-06,-7.09486e-06,0
-3.12035e-05,1.78147e-05,-7.03331e-06,-7.41806e-06,5.13693e-06,-1.24325e-05,1.17457e-05,-3.62209e-06,0
-3.08672e-05,1.68937e-05,-1.2946e-05,-3.70163e-06,5.21864e-06,-1.23878e-05,1.75389e-05,-1.71811e-06,0
-3.01091e-05,1.6272e-05,-1.67426e-05,-2.18332e-06,5.52473e-06,-1.3113e-05,2.63186e-05,-3.04593e-06,0
-3.07751e-05,1.51193e-05,-1.79983e-05,-2.41886e-06,5.91932e-06,-1.46232e-05,3.09759e-05,-5.17185e-06,0
-3.23389e-05,1.28925e-05,-1.89559e-05,-3.00315e-06,5.29985e-06,-1.48015e-05,2.91049e-05,-6.68802e-06,0
-3.29296e-05,1.01168e-05,-1.90869e-05,-2.4248e-06,4.67025e-06,-1.39267e-05,2.39464e-05,-7.55716e-06,0
-3.25901e-05,8.25842e-06,-1.82706e-05,-7.49215e-07,4.09901e-06,-1.32291e-05,2.01807e-05,-7.79302e-06,0
-3.19324e-05,7.96182e-06,-1.78035e-05,5.97913e-08,3.46454e-06,-1.23906e-05,1.97711e-05,-6.85902e-06,0
-3.02963e-05,8.75881e-06,-1.80539e-05,6.66575e-07,3.20254e-06,-1.08477e-05,2.04967e-05,-4.79709e-06,0
-2.89062e-05,9.98444e-06,-1.79347e-05,2.56323e-06,3.38634e-06,-9.31541e-06,1.93472e-05,-2.04994e-06,0
-2.94287e-05,1.06058e-05,-1.74604e-05,5.01136e-06,3.42216e-06,-8.94602e-06,1.62068e-05,-5.10816e-07,0
-3.11241e-05,9.3261e-06,-1.63121e-05,5.90062e-06,3.56842e-06,-1.00676e-05,1.39959e-05,-6.61356e-07,0
-3.19197e-05,8.57505e-06,-1.48592e-05,5.93113e-06,3.37653e-06,-1.10389e-05,1.48899e-05,-1.18929e-06,0
-3.18749e-05,1.11444e-05,-1.41631e-05,6.45507e-06,3.93913e-06,-1.10205e-05,1.57482e-05,-1.52459e-06,0
-3.20747e-05,1.31819e-05,-1.37306e-05,7.55784e-06,4.78828e-06,-1.13174e-05,1.28021e-05,-1.49871e-06,0
-3.29029e-05,1.24129e-05,-1.39105e-05,7.39444e-06,4.35456e-06,-1.14444e-05,8.07333e-06,-1.54084e-06,0
-3.29529e-05,1.07617e-05,-1.35882e-05,5.18918e-06,2.7849e-06,-1.20254e-05,5.01627e-06,-1.60202e-06,0
-3.19065e-05,1.0096e-05,-1.30674e-05,2.81432e-06,2.90946e-06,-1.20212e-05,3.71725e-06,-1.2541e-06,0
-2.95e-05,1.00503e-05,-1.22164e-05,3.61714e-06,5.19403e-06,-1.03504e-05,2.33312e-06,-8.14484e-07,0
-2.82806e-05,9.51876e-06,-1.0046e-05,8.02601e-06,7.84155e-06,-8.91092e-06,-4.01107e-07,-1.73361e-07,0
-2.8964e-05,9.72917e-06,-8.32924e-06,1.17854e-05,1.22131e-05,-8.45737e-06,-3.82123e-06,5.30506e-07,0
-2.9704e-05,8.98394e-06,-6.01777e-06,1.11622e-05,1.68725e-05,-1.14233e-05,-4.38025e-06,8.95229e-08,0
-2.91059e-05,7.495e-06,-1.19747e-06,7.12295e-06,1.97046e-05,-1.50868e-05,-1.5877e-07,4.44989e-07,0
-2.73437e-05,7.98192e-06,5.74935e-06,3.17899e-07,1.96391e-05,-1.71725e-05,6.30947e-06,1.59901e-06,0
-2.71205e-05,8.7645e-06,8.82584e-06,-6.70477e-06,1.87082e-05,-1.89745e-05,1.17462e-05,3.20608e-06,0
-2.78581e-05,6.62874e-06,5.72444e-06,-1.21007e-05,1.80535e-05,-2.00347e-05,1.62516e-05,4.7639e-06,0
-2.7641e-05,2.62142e-06,1.59886e-07,-1.51628e-05,1.59849e-05,-1.96623e-05,2.0003e-05,4.48992e-06,0
-2.71895e-05,3.98673e-07,-6.08923e-06,-1.53807e-05,1.47537e-05,-1.77432e-05,2.14201e-05,4.55987e-06,0
-2.79864e-05,2.95029e-06,-1.16816e-05,-1.30722e-05,1.46311e-05,-1.70619e-05,2.12433e-05,6.19282e-06,0
-2.74873e-05,1.00083e-05,-1.63711e-05,-8.8945e-06,1.44063e-05,-1.7617e-05,2.15376e-05,6.92252e-06,0
-2.58444e-05,1.93838e-05,-1.92769e-05,-3.60073e-06,1.31461e-05,-1.91491e-05,2.0499e-05,6.08733e-06,0
-2.50202e-05,2.99791e-05,-1.88111e-05,1.15751e-06,1.08135e-05,-1.98193e-05,1.81402e-05,5.81149e-06,0
-2.56325e-05,3.94629e-05,-1.24029e-05,3.52911e-06,9.88132e-06,-1.84977e-05,1.63852e-05,5.43008e-06,0
-2.72429e-05,4.28179e-05,-2.7959e-06,2.62681e-06,1.09292e-05,-1.59473e-05,1.67477e-05,3.83921e-06,0
-2.86221e-05,3.68507e-05,2.99016e-06,-3.25027e-06,1.22494e-05,-1.42842e-05,2.00151e-05,8.95479e-07,0
-2.9274e-05,2.31691e-05,1.80966e-06,-1.09173e-05,1.25304e-05,-1.43165e-05,2.35139e-05,-1.58635e-06,0
-2.92508e-05,5.14433e-06,-4.16838e-06,-1.64638e-05,1.25822e-05,-1.41717e-05,2.45255e-05,-9.4761e-07,0
-2.90788e-05,-1.04802e-05,-1.19379e-05,-1.82179e-05,1.25674e-05,-1.31162e-05,2.34955e-05,2.57758e-06,0
-2.93267e-05,-1.77904e-05,-1.86947e-05,-1.71228e-05,1.1543e-05,-1.15897e-05,2.14497e-05,5.61025e-06,0
-3.05065e-05,-1.95389e-05,-2.20674e-05,-1.3667e-05,1.03228e-05,-1.14909e-05,1.76141e-05,5.26069e-06,0
-3.12969e-05,-2.30696e-05,-1.94022e-05,-8.81027e-06,1.00234e-05,-1.27851e-05,1.09687e-05,2.3522e-06,0
-3.09632e-05,-2.85319e-05,-1.08168e-05,-4.90791e-06,1.0557e-05,-1.38679e-05,-1.26942e-06,1.15042e-07,0
-3.024e-05,-3.2202e-05,-4.35489e-06,-3.64107e-06,1.19923e-05,-1.2151e-05,-1.48692e-05,-2.56125e-07,0
-3.0992e-05,-3.46458e-05,-4.80776e-06,-2.24148e-06,1.36855e-05,-8.99845e-06,-2.1184e-05,1.09121e-06,0
-3.25463e-05,-3.89982e-05,-7.37087e-06,1.46887e-06,1.60071e-05,-9.07002e-06,-1.58694e-05,3.18432e-06,0
-3.33235e-05,-4.36747e-05,-7.25244e-06,6.45729e-06,2.05167e-05,-1.08546e-05,-4.52553e-06,4.38808e-06,0
-3.31897e-05,-4.02575e-05,-5.65955e-06,1.39542e-05,2.39786e-05,-1.04081e-05,6.44858e-06,4.23447e-06,0
-3.2444e-05,-2.8059e-05,-5.96432e-06,2.12536e-05,2.13978e-05,-9.31407e-06,1.57113e-05,2.15756e-06,0
-3.18696e-05,-1.32439e-05,-9.42246e-06,2.44833e-05,1.69955e-05,-9.57992e-06,2.20988e-05,1.66945e-06,0
-3.04447e-05,-6.63272e-07,-1.60646e-05,1.9568e-05,1.5345e-05,-9.94532e-06,2.67301e-05,4.42159e-06,0
-2.8973e-05,3.1309e-06,-2.1496e-05,7.971e-06,1.55271e-05,-8.68777e-06,2.83749e-05,5.45896e-06,0
-2.8906e-05,3.08465e-07,-2.18858e-05,-1.6508e-06,1.37641e-05,-6.42684e-06,3.01971e-05,3.67065e-06,0
-3.00364e-05,3.87475e-06,-1.88203e-05,-8.46853e-06,1.01081e-05,-5.90896e-06,3.15863e-05,3.16014e-06,0
-3.10353e-05,1.93256e-05,-1.43906e-05,-1.51748e-05,9.86163e-06,-7.75494e-06,2.9813e-05,4.1331e-06,0
-3.13883e-05,3.32782e-05,-1.15089e-05,-2.22821e-05,1.1447e-05,-9.95679e-06,2.59058e-05,6.77761e-06,0
-3.18649e-05,3.60777e-05,-9.79119e-06,-2.87107e-05,1.21191e-05,-1.18938e-05,2.37455e-05,9.09226e-06,0
-3.11897e-05,3.03645e-05,-9.90386e-06,-3.3128e-05,1.39426e-05,-1.38053e-05,2.58615e-05,9.50178e-06,0
-3.05888e-05,2.03269e-05,-1.17625e-05,-3.06902e-05,1.93041e-05,-1.51434e-05,2.95318e-05,9.62428e-06,0
-3.19034e-05,1.03554e-05,-1.33603e-05,-1.97356e-05,2.52482e-05,-1.46463e-05,3.57472e-05,9.59492e-06,0
-3.29019e-05,2.56467e-06,-1.33881e-05,-4.384e-06,3.04766e-05,-1.34427e-05,4.52097e-05,8.99602e-06,0
-3.26871e-05,-2.23384e-06,-1.23835e-05,9.87461e-06,3.46858e-05,-1.29044e-05,5.53361e-05,7.22159e-06,0
-3.27311e-05,-4.54078e-06,-1.31396e-05,1.60717e-05,3.63271e-05,-1.34265e-05,6.35107e-05,6.01308e-06,0
-3.30027e-05,-4.96478e-06,-1.5257e-05,1.34102e-05,3.50221e-05,-1.41503e-05,6.90519e-05,5.52929e-06,0
-3.22055e-05,-5.80537e-06,-1.56137e-05,7.21901e-06,3.32615e-05,-1.41549e-05,6.84088e-05,6.10007e-06,0
-3.03164e-05,-6.91597e-06,-1.386e-05,3.3464e-06,3.3767e-05,-1.36941e-05,5.85936e-05,7.54473e-06,0
-2.95626e-05,-5.39591e-06,-1.35443e-05,1.05647e-06,3.54664e-05,-1.29646e-05,4.01444e-05,8.20393e-06,0
-3.09444e-05,4.58284e-07,-1.45173e-05,-1.49793e-06,3.68955e-05,-1.31088e-05,1.68695e-05,7.23018e-06,0
-3.23929e-05,9.46477e-06,-1.47949e-05,-5.83055e-06,3.71509e-05,-1.39412e-05,-8.75795e-06,5.4965e-06,0
-3.23896e-05,1.94558e-05,-1.49906e-05,-1.12435e-05,3.57101e-05,-1.43981e-05,-3.40713e-05,3.97124e-06,0
-3.04188e-05,2.91659e-05,-1.42741e-05,-1.73559e-05,3.11081e-05,-1.40666e-05,-5.3521e-05,3.88692e-06,0
-2.83691e-05,4.09515e-05,-1.23241e-05,-2.34215e-05,2.53663e-05,-1.37198e-05,-6.3638e-05,4.96305e-06,0
-2.79871e-05,5.60107e-05,-1.05835e-05,-2.56293e-05,2.07255e-05,-1.41788e-05,-6.5997e-05,6.33893e-06,0
-2.91066e-05,6.84865e-05,-7.59423e-06,-2.23051e-05,1.87869e-05,-1.33005e-05,-6.31185e-05,6.71562e-06,0
-2.98575e-05,7.23296e-05,-3.90071e-06,-1.42924e-05,1.67571e-05,-1.03023e-05,-5.43807e-05,5.59012e-06,0
-2.82817e-05,6.65201e-05,-1.38543e-06,-6.90381e-06,1.35339e-05,-8.95712e-06,-4.22595e-05,4.31153e-06,0
-2.67437e-05,5.50326e-05,1.44753e-06,-2.1052e-06,1.20044e-05,-9.14759e-06,-3.17454e-05,1.58104e-06,0
-2.56074e-05,4.35178e-05,4.94652e-06,1.50357e-06,1.10538e-05,-9.51248e-06,-2.1219e-05,-3.2952e-07,0
-2.5257e-05,3.25782e-05,8.68645e-06,3.95012e-06,8.90116e-06,-9.5805e-06,-1.02136e-05,4.53888e-07,0
-2.69799e-05,2.1717e-05,1.53503e-05,5.67474e-06,4.9088e-06,-8.88308e-06,-3.76529e-06,2.73297e-06,0
-2.88975e-05,1.28685e-05,2.41107e-05,2.43549e-06,4.2261e-07,-8.17272e-06,3.69927e-07,4.94623e-06,0
-3.04066e-05,7.43077e-06,3.45392e-05,-4.8417e-06,-1.98862e-06,-7.8643e-06,4.06211e-06,4.45979e-06,0
