ch1,ch2,ch3,ch4,ch5,ch6,ch7,ch8,class
-2.98116e-05,7.45703e-06,-1.06776e-05,6.64176e-05,-4.72904e-06,-8.42397e-06,3.40944e-06,-6.18044e-06,0
-2.98672e-05,1.23616e-05,-6.67028e-06,5.26266e-05,4.24823e-06,-6.18513e-06,2.27095e-05,-6.79496e-06,0
-2.98094e-05,1.76666e-05,-1.99989e-06,4.69667e-05,1.67178e-05,-5.58346e-06,4.0155e-05,-8.38081e-06,0
-2.97796e-05,2.43248e-05,4.16791e-06,4.76559e-05,2.84395e-05,-4.95601e-06,6.3549e-05,-1.04088e-05,0
-2.96215e-05,3.13019e-05,1.09065e-05,4.81314e-05,3.61272e-05,-2.359e-06,0.000116285,-1.03908e-05,0
-2.93571e-05,3.2882e-05,1.33128e-05,4.82786e-05,3.77839e-05,4.10643e-07,0.000231827,-8.87014e-06,0
-3.01963e-05,2.99346e-05,9.54067e-06,5.32551e-05,3.6665e-05,1.52264e-06,0.000419067,-6.45281e-06,0
-3.24766e-05,2.69246e-05,2.40564e-06,5.76683e-05,3.72297e-05,3.66848e-07,0.000623261,-4.25313e-06,0
-3.47446e-05,2.57436e-05,-3.76788e-06,4.89193e-05,3.7361e-05,-1.3245e-06,0.000765147,-2.9444e-06,0
-3.61877e-05,2.56974e-05,-5.68666e-06,2.44647e-05,3.28055e-05,-2.60003e-06,0.000792248,-2.63973e-06,0
-3.60655e-05,2.74964e-05,-4.6186e-06,-1.34073e-06,2.55828e-05,-4.33363e-06,0.000679583,-2.24293e-06,0
-3.47687e-05,3.16369e-05,-4.17204e-06,-1.75841e-05,2.03093e-05,-5.84584e-06,0.000436448,-1.58739e-06,0
-3.3129e-05,3.52054e-05,-5.7174e-06,-2.87858e-05,1.83058e-05,-5.25759e-06,9.89687e-05,-4.86833e-07,0
-3.15154e-05,3.53623e-05,-7.73058e-06,-4.10155e-05,1.71909e-05,-5.47723e-06,-0.000266597,1.52349e-06,0
-3.10542e-05,3.28279e-05,-7.26046e-06,-5.34604e-05,1.62852e-05,-6.90166e-06,-0.000575393,3.94787e-06,0
-3.22414e-05,2.84963e-05,-5.0929e-06,-6.31615e-05,2.01367e-05,-5.9808e-06,-0.000785097,3.95521e-06,0
-3.41595e-05,2.35393e-05,-4.68984e-06,-7.06003e-05,2.9588e-05,-2.88827e-06,-0.000879126,3.06877e-06,0
-3.51351e-05,2.11253e-05,-1.00053e-05,-7.81151e-05,3.59685e-05,-1.29908e-06,-0.000819421,4.73325e-06,0
-3.46367e-05,2.27336e-05,-1.72006e-05,-8.12212e-05,3.37614e-05,-3.06166e-06,-0.000642086,6.60298e-06,0
-3.37103e-05,2.95761e-05,-1.72807e-05,-7.99732e-05,2.6493e-05,-5.19848e-06,-0.00046102,5.63583e-06,0
-3.23578e-05,4.05195e-05,-9.84765e-06,-8.40271e-05,1.80649e-05,-6.05636e-06,-0.00033161,1.49799e-06,0
-3.18975e-05,4.99992e-05,-2.08186e-06,-9.18864e-05,8.72068e-06,-6.90529e-06,-0.000245548,-2.44587e-08,0
-3.13916e-05,5.6479e-05,1.37925e-06,-8.61631e-05,1.44511e-06,-7.60172e-06,-0.000176112,2.05141e-06,0
-2.97442e-05,5.75209e-05,3.98928e-06,-5.50739e-05,2.44501e-06,-6.79727e-06,-0.000113945,3.72128e-06,0
-2.87024e-05,5.07006e-05,6.68953e-06,-6.48716e-06,9.1085e-06,-5.74076e-06,-5.41358e-05,3.84647e-06,0
-2.86325e-05,3.71824e-05,8.12291e-06,3.4757e-05,1.33246e-05,-5.29895e-06,1.30776e-06,3.64962e-06,0
-2.81056e-05,1.75751e-05,7.79176e-06,4.86056e-05,1.25009e-05,-4.04528e-06,3.31389e-05,4.77393e-06,0
-2.65982e-05,-3.86851e-06,6.6955e-06,4.45602e-05,8.944e-06,-4.06626e-06,3.4366e-05,6.2738e-06,0
-2.55391e-05,-2.07523e-05,5.47111e-06,3.4921e-05,3.94076e-06,-5.90483e-06,2.32559e-05,7.36283e-06,0
-2.69628e-05,-2.73658e-05,2.81096e-06,2.21797e-05,5.62291e-07,-6.99874e-06,2.00944e-05,7.22396e-06,0
-3.06185e-05,-2.4944e-05,-1.27121e-06,9.25482e-06,2.80709e-06,-7.36456e-06,2.66179e-05,6.6879e-06,0
-3.41737e-05,-1.74799e-05,-5.96239e-06,5.38206e-06,1.09567e-05,-7.47278e-06,3.84669e-05,6.38271e-06,0
-3.75071e-05,-7.98137e-06,-1.0315e-05,1.70351e-05,2.06864e-05,-7.2953e-06,4.59967e-05,5.04009e-06,0
-3.95854e-05,1.23e-06,-1.42776e-05,3.25383e-05,2.41456e-05,-7.91056e-06,4.38706e-05,3.49354e-06,0
-3.92865e-05,7.52947e-06,-1.85692e-05,3.15139e-05,1.83211e-05,-1.07723e-05,3.7686e-05,2.52171e-06,0
-3.69426e-05,1.02026e-05,-2.21432e-05,1.13483e-05,8.18409e-06,-1.39879e-05,3.51139e-05,2.3644e-06,0
-3.34778e-05,1.03437e-05,-2.17498e-05,-6.41078e-06,1.95937e-06,-1.47614e-05,2.45302e-05,2.02613e-06,0
-3.05616e-05,1.10858e-05,-1.5866e-05,-8.38667e-06,5.03193e-06,-1.23823e-05,6.38681e-06,-1.47458e-07,0
-2.93001e-05,1.34915e-05,-9.85228e-06,7.51288e-07,1.57498e-05,-8.61885e-06,1.12045e-05,-2.78075e-06,0
-2.93403e-05,1.372e-05,-1.02309e-05,1.21471e-05,2.43353e-05,-7.34822e-06,5.3909e-05,-3.49661e-06,0
-2.97194e-05,1.04967e-05,-1.42365e-05,2.16194e-05,2.49178e-05,-9.95966e-06,0.000105314,-3.96603e-06,0
-2.97461e-05,8.0467e-06,-1.54364e-05,3.07877e-05,1.96585e-05,-1.41885e-05,0.000133467,-4.90349e-06,0
-3.02711e-05,8.51501e-06,-1.20304e-05,4.57018e-05,1.2613e-05,-1.67207e-05,0.000140613,-5.58619e-06,0
-3.08829e-05,1.17594e-05,-7.65697e-06,6.6341e-05,6.43649e-06,-1.80688e-05,0.000139479,-4.02448e-06,0
-2.99613e-05,1.45019e-05,-6.87219e-06,7.55089e-05,3.57754e-06,-1.82119e-05,0.000128068,-2.34145e-07,0
-2.82882e-05,1.4467e-05,-8.36687e-06,6.89945e-05,6.09675e-06,-1.65104e-05,9.24955e-05,2.13718e-06,0
-2.7213e-05,1.60053e-05,-7.4941e-06,5.8732e-05,1.01826e-05,-1.62123e-05,3.79063e-05,2.88648e-06,0
-2.5822e-05,3.0368e-05,-3.96398e-06,3.93545e-05,1.05905e-05,-1.65762e-05,-4.65438e-06,2.56716e-06,0
-2.47593e-05,5.7091e-05,-4.47255e-07,1.07219e-05,7.15928e-06,-1.60384e-05,-1.61075e-05,3.51914e-06,0
-2.43034e-05,7.51065e-05,1.62521e-07,-1.86283e-05,-9.8492e-08,-1.6472e-05,8.40131e-06,5.44516e-06,0
-2.4314e-05,7.74499e-05,4.54485e-07,-3.73733e-05,-6.81775e-06,-1.68707e-05,5.87942e-05,6.47824e-06,0
-2.64221e-05,7.10385e-05,3.51805e-07,-4.38429e-05,-7.85329e-06,-1.63175e-05,0.000110324,5.87291e-06,0
-2.84034e-05,5.96688e-05,-1.37866e-06,-4.54752e-05,-5.36323e-06,-1.59741e-05,0.000148297,3.82749e-06,0
-2.83587e-05,4.2277e-05,-4.06115e-06,-4.22691e-05,1.77727e-06,-1.45193e-05,0.000170148,1.81609e-06,0
-2.65248e-05,2.20841e-05,-7.35217e-06,-3.43059e-05,1.18001e-05,-1.27687e-05,0.00017756,9.50865e-07,0
-2.53391e-05,3.02935e-06,-8.99327e-06,-2.51771e-05,1.81935e-05,-1.11619e-05,0.000170312,1.67531e-06,0
-2.66288e-05,-1.35778e-05,-1.01368e-05,-2.29998e-05,1.74919e-05,-1.02234e-05,0.000149175,1.93485e-06,0
-3.0162e-05,-2.70907e-05,-1.41955e-05,-3.31233e-05,1.31701e-05,-1.10499e-05,0.000115914,1.64581e-06,0
-3.46949e-05,-3.83341e-05,-2.18225e-05,-5.29853e-05,1.07672e-05,-1.29065e-05,7.93815e-05,1.55005e-06,0
-3.77601e-05,-4.4692e-05,-2.7375e-05,-6.92278e-05,1.12222e-05,-1.3761e-05,5.27652e-05,1.63159e-06,0
-3.75782e-05,-4.25998e-05,-2.67597e-05,-7.18762e-05,1.24505e-05,-1.18685e-05,4.41173e-05,2.32468e-06,0
-3.56855e-05,-3.40383e-05,-2.16446e-05,-6.26478e-05,1.34476e-05,-9.34471e-06,4.50341e-05,4.93417e-06,0
-3.4411e-05,-2.59863e-05,-1.79733e-05,-4.82931e-05,1.46705e-05,-8.36656e-06,4.07208e-05,7.5291e-06,0
-3.40333e-05,-1.97258e-05,-1.75329e-05,-2.78677e-05,1.55867e-05,-8.78536e-06,3.03079e-05,8.08504e-06,0
-3.39851e-05,-9.36031e-06,-1.802e-05,-2.56941e-06,1.44597e-05,-8.4422e-06,2.84521e-05,8.33125e-06,0
-3.28932e-05,1.6276e-05,-1.70398e-05,1.86155e-05,1.13574e-05,-7.31129e-06,4.08699e-05,7.7938e-06,0
-2.96417e-05,6.99449e-05,-1.31904e-05,3.01359e-05,1.15839e-05,-5.69693e-06,5.34657e-05,6.17474e-06,0
-2.58332e-05,0.000141798,-9.19428e-06,3.33139e-05,1.52468e-05,-5.31763e-06,5.47128e-05,5.35583e-06,0
-2.50642e-05,0.000199191,-1.11356e-05,2.72099e-05,1.33183e-05,-7.54684e-06,5.11686e-05,5.98674e-06,0
-2.69049e-05,0.000225279,-1.81925e-05,1.65816e-05,2.79293e-06,-9.50232e-06,4.91321e-05,5.93645e-06,0
-2.89223e-05,0.00021693,-1.99973e-05,1.32126e-05,-5.27114e-06,-8.66385e-06,4.36892e-05,5.66876e-06,0
-2.96628e-05,0.000171651,-1.12952e-05,1.97827e-05,-1.41224e-06,-6.3327e-06,3.40648e-05,6.55382e-06,0
-2.94646e-05,9.49938e-05,2.4794e-06,2.68164e-05,9.40263e-06,-5.13387e-06,1.94473e-05,6.27702e-06,0
-2.95729e-05,-5.11446e-06,1.39116e-05,2.37209e-05,1.58061e-05,-4.5443e-06,1.57311e-06,5.4382e-06,0
-2.94268e-05,-0.000109698,2.18685e-05,1.05712e-05,1.4344e-05,-5.22499e-06,-9.00927e-06,4.67355e-06,0
-2.89982e-05,-0.000187172,3.23772e-05,-5.83766e-06,1.13328e-05,-5.7826e-06,-6.81481e-06,4.72491e-06,0
-2.88786e-05,-0.000220654,4.56584e-05,-1.25907e-05,1.24725e-05,-2.83041e-06,4.99732e-06,6.20914e-06,0
-2.73285e-05,-0.000208941,5.30908e-05,-1.0432e-05,2.04781e-05,1.30419e-06,2.06299e-05,8.48594e-06,0
-2.59397e-05,-0.000168104,4.51794e-05,-5.73374e-06,3.24465e-05,4.6087e-06,2.99732e-05,9.98122e-06,0
-2.79126e-05,-0.000121812,1.62808e-05,6.27047e-06,3.33276e-05,4.48572e-06,2.52416e-05,9.371e-06,0
-3.34301e-05,-8.234e-05,-2.52975e-05,2.41889e-05,2.03695e-05,-3.07095e-07,9.62858e-06,7.08341e-06,0
-3.88042e-05,-5.31122e-05,-6.17819e-05,3.12631e-05,9.10574e-06,-4.47645e-06,-9.33281e-06,4.00134e-06,0
-3.95394e-05,-3.48708e-05,-8.01105e-05,1.62737e-05,9.5062e-06,-3.60918e-06,-2.91428e-05,2.54719e-06,0
-3.6434e-05,-2.64684e-05,-8.02058e-05,-9.54659e-06,1.58182e-05,-3.82109e-07,-4.40879e-05,2.63024e-06,0
-3.31668e-05,-2.03566e-05,-6.8691e-05,-3.3459e-05,1.9477e-05,6.83513e-07,-3.27326e-05,1.95572e-06,0
-3.14688e-05,-1.03973e-05,-5.26458e-05,-5.1916e-05,1.88289e-05,-6.09088e-07,2.21352e-05,-1.88311e-07,0
-3.04814e-05,2.22129e-06,-4.02065e-05,-5.74238e-05,1.41132e-05,-2.38755e-06,0.000106172,-9.65787e-07,0
-2.9781e-05,1.02975e-05,-3.5145e-05,-4.75128e-05,7.01144e-06,-3.80596e-06,0.000190046,9.52313e-07,0
-3.00131e-05,1.16927e-05,-3.36055e-05,-2.967e-05,8.15307e-07,-4.82623e-06,0.000248304,3.53256e-06,0
-3.10025e-05,1.17169e-05,-3.04866e-05,-6.98731e-06,-1.94205e-06,-5.5776e-06,0.000262139,3.36978e-06,0
-3.08446e-05,1.53494e-05,-2.44951e-05,1.57063e-05,-2.93033e-06,-7.04582e-06,0.000221864,9.97746e-07,0
-2.97178e-05,2.20664e-05,-1.87059e-05,2.90222e-05,-1.95394e-06,-8.06602e-06,0.000130757,1.49557e-07,0
-2.8313e-05,2.72725e-05,-1.44889e-05,3.05954e-05,1.47286e-07,-7.50781e-06,5.36132e-06,1.26773e-06,0
-2.63983e-05,2.87255e-05,-1.18279e-05,2.79861e-05,3.01322e-06,-6.30094e-06,-0.000133099,2.29766e-06,0
-2.40483e-05,2.97745e-05,-1.1309e-05,2.1478e-05,8.02569e-06,-4.05961e-06,-0.000253341,2.44254e-06,0
-2.24621e-05,3.38769e-05,-9.41828e-06,-2.12492e-06,1.74358e-05,2.0788e-07,-0.000317444,1.30545e-06,0
-2.29587e-05,3.72086e-05,-5.95409e-06,-4.36589e-05,2.9848e-05,3.27706e-06,-0.000318671,-1.46277e-06,0
-2.42812e-05,3.48364e-05,-3.04365e-06,-7.75623e-05,3.76299e-05,2.46594e-06,-0.000279503,-3.24305e-06,0
-2.53102e-05,3.11517e-05,-1.64336e-07,-7.66846e-05,4.09472e-05,6.38846e-07,-0.000230877,-2.49692e-06,0
-2.58809e-05,3.35542e-05,3.6271e-06,-5.89175e-05,4.12302e-05,3.25955e-07,-0.000182628,-2.38009e-06,0
-2.67774e-05,4.80187e-05,6.26835e-06,-5.36244e-05,3.33237e-05,-1.34196e-06,-0.00012214,-3.1088e-06,0
-2.77169e-05,6.8565e-05,3.48329e-06,-5.16743e-05,2.01084e-05,-5.6731e-06,-5.40851e-05,-3.05827e-06,0
-2.80614e-05,8.26654e-05,-2.43688e-06,-4.24919e-05,1.05583e-05,-9.03396e-06,5.18516e-06,-3.02114e-06,0
-2.84748e-05,8.60724e-05,-5.62996e-06,-2.83614e-05,9.48069e-06,-9.77925e-06,4.05997e-05,-2.69776e-06,0
-2.91054e-05,7.96487e-05,-5.35116e-06,-1.47089e-05,1.31169e-05,-1.08124e-05,4.75276e-05,-2.28599e-06,0
-3.07941e-05,6.34245e-05,-5.43166e-06,-5.03572e-06,1.25585e-05,-1.4803e-05,2.39622e-05,-1.98734e-06,0
-3.21212e-05,3.69255e-05,-3.90389e-06,3.22316e-07,3.75306e-06,-1.88381e-05,-1.20306e-05,-1.38038e-06,0
-3.29311e-05,6.83548e-06,7.12015e-07,1.15945e-06,-4.21278e-06,-1.9195e-05,-3.17113e-05,-2.91436e-07,0
-3.38001e-05,-1.64778e-05,5.25944e-06,-5.75308e-07,1.14466e-06,-1.64676e-05,-2.46189e-05,1.39725e-06,0
-3.42696e-05,-2.29414e-05,7.61495e-06,-1.92261e-06,1.64352e-05,-1.30736e-05,6.81025e-07,2.84538e-06,0
-3.28652e-05,-1.22639e-05,8.82406e-06,-6.03203e-07,2.67557e-05,-1.1677e-05,2.76608e-05,2.532e-06,0
-3.07238e-05,4.01928e-06,9.42955e-06,5.25852e-06,2.21566e-05,-1.36154e-05,4.8919e-05,1.05524e-06,0
-2.94662e-05,1.46125e-05,8.04014e-06,1.43501e-05,8.80383e-06,-1.63774e-05,5.95683e-05,-3.52494e-07,0
-2.89492e-05,2.18804e-05,5.86379e-06,2.29002e-05,3.17948e-07,-1.73891e-05,5.9318e-05,-1.48146e-06,0
-2.98339e-05,3.20288e-05,3.11439e-06,3.05765e-05,2.32201e-06,-1.69472e-05,5.07009e-05,-2.56532e-06,0
-3.1479e-05,4.31074e-05,-1.97066e-08,3.59745e-05,8.44809e-06,-1.68936e-05,4.05912e-05,-2.51353e-06,0
-3.26679e-05,5.2105e-05,-2.67856e-06,3.79449e-05,1.28003e-05,-1.6789e-05,3.54363e-05,-1.79185e-06,0
-3.23336e-05,6.03684e-05,-4.34141e-06,3.97326e-05,1.79393e-05,-1.49632e-05,3.64289e-05,-2.7812e-06,0
-3.23007e-05,6.26256e-05,-4.85779e-06,4.19002e-05,2.78468e-05,-1.32517e-05,3.87322e-05,-5.02864e-06,0
-3.31028e-05,4.96224e-05,-4.07188e-06,3.86721e-05,3.76233e-05,-1.44261e-05,3.92548e-05,-5.55857e-06,0
-3.32247e-05,2.5873e-05,-5.54812e-06,2.72579e-05,4.01191e-05,-1.65715e-05,3.6085e-05,-3.6619e-06,0
-3.10311e-05,4.7145e-06,-8.00934e-06,1.1748e-05,3.6931e-05,-1.59936e-05,2.70117e-05,-2.43359e-06,0
-2.83473e-05,-8.45849e-06,-7.05839e-06,-2.08618e-06,3.40751e-05,-1.28424e-05,1.2994e-05,-2.45548e-06,0
-2.68899e-05,-1.95242e-05,-3.32147e-06,-1.62624e-05,3.31766e-05,-1.07439e-05,3.29612e-06,-2.71808e-06,0
-2.77797e-05,-2.81333e-05,1.90058e-06,-3.6823e-05,2.95622e-05,-1.15592e-05,5.69127e-06,-4.04814e-06,0
-2.81054e-05,-2.61071e-05,4.85345e-06,-5.20796e-05,2.38401e-05,-1.40091e-05,1.49627e-05,-4.19158e-06,0
-2.6661e-05,-1.81777e-05,5.05585e-06,-4.83623e-05,1.7887e-05,-1.60702e-05,1.28856e-05,-3.0122e-06,0
-2.5654e-05,-1.60702e-05,4.19263e-06,-4.23321e-05,1.26797e-05,-1.6684e-05,-5.31681e-06,-2.57279e-06,0
-2.54604e-05,-1.67526e-05,9.0976e-07,-5.27793e-05,1.11107e-05,-1.73895e-05,-9.67655e-06,-3.67044e-06,0
-2.7253e-05,-1.15678e-05,-3.76897e-06,-7.09287e-05,1.04607e-05,-1.90292e-05,1.79219e-05,-3.48414e-06,0
-2.87017e-05,-1.04848e-06,-9.80596e-06,-7.46438e-05,9.96162e-06,-1.96495e-05,6.82692e-05,-2.569e-07,0
-2.95538e-05,9.00048e-06,-1.35079e-05,-6.30126e-05,1.20637e-05,-1.92686e-05,0.000114374,1.92641e-06,0
-3.07896e-05,1.59274e-05,-1.21781e-05,-5.10081e-05,1.50532e-05,-1.84995e-05,0.000149376,2.65477e-06,0
-3.08774e-05,2.00643e-05,-7.73913e-06,-3.47649e-05,1.58468e-05,-1.63095e-05,0.000197898,1.57347e-06,0
-2.96292e-05,2.3572e-05,-2.62781e-06,1.17852e-06,1.72297e-05,-1.44868e-05,0.000279246,-5.98796e-07,0
-2.92928e-05,2.75514e-05,-6.04376e-07,5.22487e-05,2.00164e-05,-1.2693e-05,0.000381923,-1.68163e-06,0
-2.96178e-05,3.02708e-05,-3.30701e-06,9.52849e-05,1.84648e-05,-1.20136e-05,0.000477881,-1.22608e-06,0
-2.89975e-05,3.43689e-05,-8.41254e-06,0.000117522,9.62072e-06,-1.38901e-05,0.000524914,-8.75977e-07,0
-2.64122e-05,4.5922e-05,-8.99721e-06,0.000118399,-8.32079e-07,-1.50204e-05,0.000463058,-1.11311e-06,0
-2.27586e-05,6.47993e-05,-4.44219e-06,9.49471e-05,-6.66315e-06,-1.31445e-05,0.000274545,-1.24822e-06,0
-2.09234e-05,7.97528e-05,-1.00355e-06,4.3423e-05,-9.46211e-06,-1.05076e-05,4.41526e-06,-2.65963e-06,0
-2.17924e-05,8.00329e-05,-2.27696e-06,-1.91137e-05,-1.0131e-05,-9.80465e-06,-0.000285919,-5.62828e-06,0
-2.34816e-05,6.61548e-05,-5.21361e-06,-6.35423e-05,-9.05633e-06,-1.03476e-05,-0.000550469,-8.71077e-06,0
-2.48072e-05,4.56887e-05,-5.6995e-06,-8.17128e-05,-9.33205e-06,-1.09226e-05,-0.000717964,-1.07755e-05,0
-2.62924e-05,2.53548e-05,-2.90929e-06,-8.57829e-05,-1.10401e-05,-1.08989e-05,-0.000709984,-1.21212e-05,0
-2.79564e-05,8.78498e-06,-9.64902e-07,-8.26534e-05,-1.09979e-05,-1.11021e-05,-0.000549032,-1.19058e-05,0
-2.95184e-05,-2.05987e-06,-4.86594e-06,-7.33701e-05,-1.24935e-05,-1.23034e-05,-0.000360148,-1.06688e-05,0
-2.9245e-05,-6.86016e-06,-1.38819e-05,-4.81594e-05,-2.01119e-05,-1.50962e-05,-0.000233869,-1.04758e-05,0
-2.70387e-05,-4.46227e-06,-1.98608e-05,2.65663e-06,-2.93175e-05,-1.63813e-05,-0.000160988,-1.02962e-05,0
-2.50057e-05,1.85974e-06,-1.62791e-05,5.62579e-05,-3.23139e-05,-1.4759e-05,-9.03828e-05,-8.39837e-06,0
-2.2928e-05,6.02029e-06,-8.23481e-06,8.19347e-05,-2.94785e-05,-1.38794e-05,-1.22342e-05,-6.89249e-06,0
-2.24427e-05,9.91874e-06,-2.3463e-06,7.63918e-05,-2.18529e-05,-1.27427e-05,3.68894e-05,-8.51131e-06,0
-2.33576e-05,1.28087e-05,5.22089e-07,5.92044e-05,-2.69626e-06,-9.40142e-06,3.6455e-05,-1.06526e-05,0
-2.50622e-05,1.01152e-05,1.09104e-06,4.44229e-05,2.14095e-05,-6.2099e-06,2.20476e-05,-9.106e-06,0
-2.86704e-05,5.53683e-06,5.86459e-07,2.75941e-05,2.85231e-05,-6.9964e-06,2.78996e-05,-5.36383e-06,0
-3.10577e-05,3.56888e-06,-1.27462e-06,7.51438e-06,1.6845e-05,-1.24984e-05,4.8302e-05,-1.86148e-06,0
-3.21838e-05,4.73737e-06,-4.22554e-06,-3.35807e-06,5.74981e-06,-1.65765e-05,7.63265e-05,6.13141e-07,0
-3.15708e-05,8.68524e-06,-8.23322e-06,-5.37389e-06,5.14639e-06,-1.66354e-05,9.94005e-05,1.75827e-06,0
-2.97074e-05,1.41365e-05,-1.1881e-05,-5.64253e-06,8.91025e-06,-1.50085e-05,0.00011636,1.42911e-06,0
-2.88306e-05,1.54645e-05,-1.40923e-05,-3.22382e-07,1.04639e-05,-1.30289e-05,0.000124896,1.69606e-06,0
-2.92367e-05,1.1882e-05,-1.46708e-05,9.139e-06,9.29365e-06,-1.195e-05,0.000124884,4.39172e-06,0
-2.92466e-05,1.00081e-05,-1.21823e-05,1.82342e-05,6.41711e-06,-1.20935e-05,0.000117884,5.73642e-06,0
-2.70107e-05,1.51773e-05,-9.18135e-06,2.13539e-05,3.71917e-06,-1.14699e-05,0.000102229,4.69273e-06,0
-2.40716e-05,2.30164e-05,-8.69678e-06,1.36832e-05,1.35834e-06,-9.22353e-06,8.12578e-05,4.17275e-06,0
-2.25442e-05,2.53875e-05,-9.82777e-06,1.41396e-07,-1.25963e-06,-8.41941e-06,5.98281e-05,4.38108e-06,0
-2.37908e-05,2.19961e-05,-8.30828e-06,-8.32477e-06,-3.3279e-06,-8.95396e-06,4.42718e-05,3.55277e-06,0
-2.65873e-05,1.5513e-05,-5.49702e-06,-7.57261e-06,6.35022e-07,-7.90561e-06,3.37967e-05,1.51188e-06,0
-2.97632e-05,7.08197e-06,-5.94271e-06,-2.61366e-06,1.67843e-05,-4.94379e-06,2.69395e-05,-2.50042e-07,0
-3.30516e-05,5.66338e-07,-1.05279e-05,2.19856e-06,4.01054e-05,-2.3302e-06,1.83398e-05,4.67943e-08,0
-3.56209e-05,3.0924e-06,-1.58186e-05,1.71348e-06,5.54329e-05,-2.02447e-06,5.86704e-06,1.1428e-06,0
-3.54161e-05,1.51118e-05,-1.90401e-05,-4.3054e-06,5.39544e-05,-3.88659e-06,-7.13115e-06,7.95399e-07,0
-3.37979e-05,2.82091e-05,-1.98795e-05,-3.17694e-06,4.01962e-05,-6.31709e-06,-1.15685e-05,-2.71273e-07,0
-3.30332e-05,2.95498e-05,-1.9801e-05,1.1999e-05,2.44289e-05,-9.49944e-06,-4.78835e-06,9.0122e-08,0
-3.25923e-05,1.77151e-05,-1.86637e-05,2.85296e-05,1.34126e-05,-1.05787e-05,7.52538e-06,1.13854e-06,0
-3.17983e-05,1.19197e-06,-1.40823e-05,3.24131e-05,1.08851e-05,-6.87739e-06,1.97718e-05,1.38708e-08,0
-3.14457e-05,-1.2805e-05,-8.68275e-06,1.6235e-05,1.52608e-05,-2.35618e-06,3.46315e-05,-2.41212e-06,0
-3.25485e-05,-1.85936e-05,-7.42309e-06,-1.35482e-05,1.95538e-05,-4.6963e-07,4.98784e-05,-3.84298e-06,0
-3.4362e-05,-1.46535e-05,-1.03368e-05,-3.94527e-05,1.9118e-05,-2.30084e-07,5.56646e-05,-3.87793e-06,0
-3.5707e-05,-7.0342e-06,-1.44831e-05,-5.62024e-05,1.2371e-05,-1.62429e-06,5.1521e-05,-2.20346e-06,0
-3.61842e-05,3.23488e-06,-1.68877e-05,-6.18349e-05,3.92451e-06,-3.37483e-06,3.2115e-05,-5.11138e-07,0
-3.60399e-05,2.1288e-05,-1.59203e-05,-5.83676e-05,-9.8256e-07,-2.41747e-06,-3.17317e-06,-6.64604e-07,0
-3.63359e-05,3.91931e-05,-1.54584e-05,-5.30083e-05,-2.23065e-06,-1.58345e-06,-2.7277e-05,-1.15942e-06,0
-3.56705e-05,4.5746e-05,-1.46817e-05,-4.58009e-05,4.46423e-07,-1.53361e-06,-1.36961e-05,-1.98914e-06,0
-3.2497e-05,4.11671e-05,-1.08515e-05,-4.25951e-05,9.64187e-06,7.42241e-07,3.19013e-05,-1.44436e-06,0
-2.98404e-05,2.8904e-05,-8.08349e-06,-4.37131e-05,2.02666e-05,4.23554e-06,7.98885e-05,5.18591e-07,0
-2.81447e-05,1.05309e-05,-7.3696e-06,-4.04678e-05,2.41521e-05,5.35681e-06,0.00010891,1.72303e-06,0
-2.80531e-05,-5.18609e-06,-6.40956e-06,-2.87233e-05,2.19274e-05,3.50275e-06,0.000116468,2.32829e-06,0
-2.84295e-05,-6.24882e-06,-5.20292e-06,-1.57804e-05,1.75438e-05,6.99493e-07,0.000109127,2.69875e-06,0
-2.85681e-05,6.95333e-06,-4.85226e-06,-9.44602e-06,1.54467e-05,4.24185e-07,9.46541e-05,2.52842e-06,0
-2.94995e-05,2.21266e-05,-3.92685e-06,-4.46388e-06,1.72111e-05,2.85383e-06,7.73234e-05,2.71247e-06,0
-3.00067e-05,2.99292e-05,-1.19395e-06,1.40909e-06,1.67463e-05,4.06362e-06,6.59576e-05,4.39023e-06,0
-3.03625e-05,3.01101e-05,-2.7581e-08,2.41106e-06,1.02276e-05,1.13644e-06,6.28878e-05,5.21874e-06,0
-3.10075e-05,2.84025e-05,-1.35286e-06,-3.46973e-06,3.89391e-06,-2.79687e-06,5.69685e-05,4.90745e-06,0
-3.15676e-05,2.89439e-05,-1.41297e-06,-6.63319e-06,4.67571e-06,-2.63666e-06,3.83676e-05,4.95528e-06,0
-3.14343e-05,2.778e-05,2.27232e-06,1.43353e-10,1.25325e-05,4.73694e-07,1.09324e-05,4.82909e-06,0
-3.15988e-05,2.0254e-05,6.2354e-06,1.07999e-05,2.25526e-05,2.60077e-06,-1.77469e-05,3.87213e-06,0
-3.32138e-05,8.9081e-06,4.29621e-06,1.45891e-05,2.77069e-05,1.07851e-06,-4.28893e-05,3.76948e-06,0
-3.62242e-05,-1.77067e-06,-5.19953e-06,1.02515e-05,2.32155e-05,-2.3268e-06,-6.11714e-05,4.79483e-06,0
-3.78531e-05,-7.91765e-06,-1.5103e-05,6.4865e-06,1.21354e-05,-3.53801e-06,-8.18731e-05,5.04064e-06,0
-3.5541e-05,-9.67226e-06,-1.81256e-05,7.9934e-06,1.48642e-06,-1.84081e-06,-0.000120089,4.49213e-06,0
-3.12131e-05,-1.21566e-05,-1.54574e-05,1.16025e-05,-3.68569e-06,-5.41423e-07,-0.000151931,3.79636e-06,0
-2.87319e-05,-1.40248e-05,-1.11591e-05,1.34924e-05,-1.18279e-06,-9.68455e-07,-0.000146911,3.60808e-06,0
-3.00917e-05,-6.76842e-06,-6.23985e-06,8.1748e-06,9.5618e-06,-8.32959e-07,-0.000131634,4.62042e-06,0
-3.29694e-05,5.04324e-06,-3.95876e-06,-2.05891e-05,2.24398e-05,9.80605e-07,-0.000127826,3.71074e-06,0
-3.55316e-05,5.66974e-06,-9.28194e-06,-7.29891e-05,2.42092e-05,8.92092e-07,-0.00011177,1.58368e-06,0
-3.99129e-05,2.02807e-06,-1.77089e-05,-0.000122888,1.44325e-05,-1.28788e-06,-6.3927e-05,1.45274e-06,0
-4.43166e-05,6.25269e-06,-1.97298e-05,-0.000146876,1.02013e-05,-1.29081e-06,-6.15039e-06,2.34508e-06,0
-4.61901e-05,1.07182e-05,-1.67856e-05,-0.000142297,1.55245e-05,-4.59824e-08,3.60177e-05,2.24147e-06,0
-4.39045e-05,1.91107e-05,-1.44318e-05,-0.00010789,1.90017e-05,-1.60561e-06,6.39949e-05,4.11628e-07,0
-3.95545e-05,3.62923e-05,-1.15555e-05,-5.53846e-05,1.73877e-05,-4.74282e-06,7.58139e-05,-1.15938e-06,0
-3.63671e-05,5.12723e-05,-9.90368e-06,-1.41981e-05,1.294e-05,-6.34834e-06,7.31272e-05,2.11252e-07,0
-3.47031e-05,5.55257e-05,-1.08318e-05,1.78669e-05,6.14261e-06,-8.44339e-06,6.53863e-05,3.68486e-06,0
-3.52648e-05,4.54662e-05,-1.23338e-05,5.19925e-05,-1.85014e-07,-1.20224e-05,6.33245e-05,5.86263e-06,0
-3.66436e-05,3.21062e-05,-1.12063e-05,9.17187e-05,3.89218e-06,-1.30331e-05,6.95095e-05,6.22995e-06,0
-3.5786e-05,2.60633e-05,-7.9478e-06,0.000134912,1.78834e-05,-9.11856e-06,8.11483e-05,4.88494e-06,0
-3.19958e-05,2.30983e-05,-4.77986e-06,0.00016461,2.69135e-05,-3.29018e-06,9.36839e-05,3.66918e-06,0
-2.96761e-05,1.33855e-05,-3.97033e-06,0.000158482,2.5571e-05,-7.40524e-07,9.69691e-05,3.18215e-06,0
-3.02243e-05,-8.32399e-06,-6.33519e-06,0.000117853,2.19243e-05,-1.52932e-06,8.67998e-05,3.33601e-06,0
-3.3576e-05,-4.27732e-05,-1.02509e-05,6.97912e-05,2.77852e-05,-3.1982e-06,6.67219e-05,4.03511e-06,0
-3.7358e-05,-8.63351e-05,-1.33856e-05,3.87919e-05,4.56049e-05,-4.01189e-06,4.44951e-05,5.25676e-06,0
-3.95696e-05,-0.000122938,-1.32753e-05,2.79869e-05,6.28374e-05,-4.11226e-06,2.78962e-05,6.51494e-06,0
-3.9322e-05,-0.000135517,-1.21428e-05,1.99817e-05,6.50559e-05,-5.50244e-06,2.63079e-05,6.84367e-06,0
-3.74305e-05,-0.000121423,-1.22396e-05,5.71923e-06,5.34438e-05,-7.00745e-06,3.8587e-05,6.00234e-06,0
-3.60777e-05,-9.28586e-05,-1.17072e-05,-8.13363e-06,3.97574e-05,-7.53297e-06,5.39099e-05,4.3713e-06,0
-3.55385e-05,-6.33884e-05,-7.84726e-06,-1.86706e-05,2.89256e-05,-7.49627e-06,6.69751e-05,4.2311e-06,0
-3.5189e-05,-3.8913e-05,-3.00315e-06,-4.3949e-05,2.09662e-05,-8.20957e-06,8.1312e-05,6.09658e-06,0
-3.48641e-05,-1.43178e-05,-1.15779e-06,-8.64019e-05,1.84278e-05,-9.82246e-06,0.000105,7.85717e-06,0
-3.41352e-05,1.27644e-05,-3.68178e-06,-0.000109491,2.27811e-05,-1.18217e-05,0.000147545,7.76212e-06,0
-3.13146e-05,3.90774e-05,-6.45796e-06,-8.88052e-05,2.99696e-05,-1.30934e-05,0.00020801,6.82486e-06,0
-2.78741e-05,5.52007e-05,-6.99829e-06,-4.66656e-05,3.07384e-05,-1.36502e-05,0.000257354,5.48555e-06,0
-2.58735e-05,5.1517e-05,-7.55446e-06,-7.00428e-06,2.11066e-05,-1.43802e-05,0.000246173,4.00926e-06,0
-2.6273e-05,2.9801e-05,-9.63222e-06,1.80248e-05,5.53124e-06,-1.52216e-05,0.000168243,3.44419e-06,0
-2.72393e-05,-4.51683e-06,-1.24504e-05,3.01927e-05,-1.02225e-05,-1.77804e-05,4.09504e-05,4.40596e-06,0
-2.74526e-05,-3.23507e-05,-1.37872e-05,3.75903e-05,-1.30808e-05,-2.04145e-05,-9.61769e-05,7.53276e-06,0
-2.77962e-05,-4.15567e-05,-1.25775e-05,3.03231e-05,-1.52993e-06,-2.14725e-05,-0.0002121,1.04111e-05,0
-2.93773e-05,-3.87302e-05,-9.90807e-06,-5.4206e-06,1.50489e-05,-2.1867e-05,-0.000300503,9.81665e-06,0
-3.08486e-05,-2.41679e-05,-6.0007e-06,-4.44082e-05,2.95983e-05,-2.0584e-05,-0.000334634,8.18584e-06,0
-3.3293e-05,5.63157e-07,-4.36568e-06,-4.61403e-05,3.33906e-05,-2.03795e-05,-0.000312569,6.62665e-06,0
-3.669e-05,2.44119e-05,-6.64214e-06,-3.04894e-05,2.72604e-05,-2.25618e-05,-0.00024807,4.97158e-06,0
-3.88629e-05,3.60098e-05,-7.41841e-06,-2.61459e-05,1.9216e-05,-2.58611e-05,-0.000174145,6.01395e-06,0
-3.76616e-05,4.0492e-05,-5.41408e-06,-2.6443e-05,1.85505e-05,-2.5385e-05,-0.000105146,1.51318e-05,0
-3.15923e-05,4.78747e-05,-3.18976e-06,-1.86173e-05,2.51916e-05,-1.92996e-05,-4.97005e-05,2.5434e-05,0
-2.43555e-05,6.15492e-05,-2.18619e-06,3.51358e-06,3.57559e-05,-1.24009e-05,-1.44193e-05,2.92014e-05,0
-2.01145e-05,7.72148e-05,-2.54856e-06,3.35827e-05,4.47943e-05,-8.25709e-06,1.88628e-06,3.04936e-05,0
-1.92364e-05,9.1866e-05,-4.23035e-06,6.07172e-05,4.60372e-05,-7.87697e-06,9.46285e-06,2.78189e-05,0
-1.82875e-05,0.000113491,-4.82312e-06,7.55605e-05,4.03372e-05,-8.51002e-06,2.2276e-05,1.74154e-05,0
-1.60155e-05,0.000146593,-3.53713e-06,6.76035e-05,3.24825e-05,-8.14875e-06,3.73248e-05,9.07314e-09,0
-1.39063e-05,0.000181465,-2.21554e-06,3.42676e-05,2.60297e-05,-6.45714e-06,5.01195e-05,-1.69062e-05,0
-1.3245e-05,0.000198811,-2.48383e-06,-1.04541e-05,2.02627e-05,-4.81182e-06,5.74792e-05,-2.92186e-05,0
-1.47997e-05,0.000186448,-3.62557e-06,-4.44913e-05,1.39954e-05,-5.5599e-06,6.5625e-05,-3.57061e-05,0
-1.8157e-05,0.000141019,-6.03028e-06,-5.97812e-05,5.91577e-06,-9.54277e-06,7.40929e-05,-3.50288e-05,0
-2.09482e-05,6.71145e-05,-1.18543e-05,-6.51272e-05,-4.20402e-06,-1.36963e-05,8.3411e-05,-2.95261e-05,0
-2.26164e-05,-1.39535e-05,-1.98749e-05,-5.97958e-05,-1.46432e-05,-1.69699e-05,8.85992e-05,-2.32606e-05,0
-2.41904e-05,-6.804e-05,-2.4298e-05,-2.85274e-05,-2.01511e-05,-1.84028e-05,9.25268e-05,-1.63889e-05,0
-2.57389e-05,-7.99958e-05,-2.27604e-05,2.30327e-05,-1.71048e-05,-1.73219e-05,9.92269e-05,-9.20736e-06,0
-2.66203e-05,-6.2817e-05,-1.94974e-05,6.66807e-05,-6.66642e-06,-1.5197e-05,0.00010563,-4.30059e-06,0
-2.64894e-05,-4.39442e-05,-1.54884e-05,8.40803e-05,6.76768e-06,-1.13821e-05,0.000106357,-2.7493e-06,0
-2.56664e-05,-4.28873e-05,-1.01789e-05,7.2072e-05,1.85555e-05,-7.57862e-06,0.000115817,-5.05365e-06,0
-2.61325e-05,-5.9548e-05,-7.88458e-06,3.35429e-05,1.75463e-05,-9.3021e-06,0.000139384,-6.8134e-06,0
-2.84425e-05,-8.13639e-05,-9.14913e-06,-2.14599e-05,2.55225e-06,-1.42171e-05,0.000167346,-2.40647e-06,0
-3.286e-05,-9.42874e-05,-8.77587e-06,-5.29786e-05,-6.50083e-06,-1.54394e-05,0.00018336,5.40013e-06,0
-3.80535e-05,-9.54688e-05,-6.76408e-06,-5.03301e-05,-1.78199e-06,-1.46159e-05,0.000169981,9.40746e-06,0
-4.09332e-05,-8.65356e-05,-9.9959e-06,-5.93903e-05,1.0705e-06,-1.7307e-05,0.000122244,1.03653e-05,0
-4.06502e-05,-6.93558e-05,-1.73973e-05,-8.1743e-05,-2.64424e-06,-2.18322e-05,6.36096e-05,1.08788e-05,0
-3.61054e-05,-4.75366e-05,-1.64907e-05,-8.51179e-05,3.14904e-06,-2.14039e-05,3.48915e-05,9.77796e-06,0
-2.99374e-05,-2.40029e-05,-7.61807e-06,-6.42192e-05,2.19589e-05,-1.66618e-05,4.29749e-05,7.07671e-06,0
-2.48049e-05,-4.58832e-06,-3.30658e-06,-4.94754e-05,3.49416e-05,-1.45606e-05,0.000101731,5.3078e-06,0
-2.35216e-05,7.21259e-06,-8.30874e-06,-4.97768e-05,3.41979e-05,-1.68412e-05,0.000207673,5.83887e-06,0
-2.47832e-05,1.19522e-05,-1.40934e-05,-4.30077e-05,3.15583e-05,-1.81971e-05,0.000297525,7.33344e-06,0
-2.47626e-05,1.49065e-05,-1.25568e-05,-2.14524e-05,3.35245e-05,-1.59935e-05,0.000295259,9.11405e-06,0
-2.37355e-05,1.79374e-05,-6.29511e-06,2.1835e-06,3.38513e-05,-1.28502e-05,0.000176925,1.03481e-05,0
-2.26241e-05,1.8837e-05,-2.63279e-06,1.08053e-05,2.68055e-05,-1.08812e-05,-4.25821e-05,9.33784e-06,0
-2.28831e-05,1.84924e-05,-3.33249e-06,7.63276e-06,1.33476e-05,-1.03759e-05,-0.000320997,6.70259e-06,0
-2.35589e-05,1.9178e-05,-6.58762e-06,2.64224e-06,-4.42953e-06,-1.16303e-05,-0.00056023,5.44713e-06,0
-2.39491e-05,2.28601e-05,-1.08635e-05,2.02144e-06,-2.19643e-05,-1.51322e-05,-0.000641076,6.67149e-06,0
-2.41189e-05,2.72688e-05,-1.42021e-05,3.43187e-07,-3.37269e-05,-1.94963e-05,-0.000526891,7.79795e-06,0
-2.47227e-05,3.11853e-05,-1.57737e-05,-1.24257e-05,-3.64985e-05,-2.11086e-05,-0.000311388,7.20132e-06,0
-2.48551e-05,3.51868e-05,-1.52294e-05,-3.7832e-05,-3.22155e-05,-1.91088e-05,-0.00012423,5.64078e-06,0
-2.45629e-05,4.00248e-05,-1.37167e-05,-5.92465e-05,-2.0794e-05,-1.52688e-05,-1.57709e-05,4.75702e-06,0
-2.56933e-05,4.22382e-05,-1.30447e-05,-6.0693e-05,-1.15245e-06,-1.09603e-05,3.75998e-05,4.59215e-06,0
-2.7874e-05,4.00981e-05,-1.31504e-05,-3.85941e-05,2.48339e-05,-7.36448e-06,5.68787e-05,3.43549e-06,0
-2.84085e-05,3.63552e-05,-1.03269e-05,-4.04382e-06,5.23788e-05,-4.38464e-06,5.44675e-05,1.29013e-06,0
-2.76204e-05,3.59659e-05,-6.60804e-06,2.22854e-05,6.60519e-05,-2.7302e-06,5.51636e-05,-8.61527e-07,0
-2.74479e-05,3.71026e-05,-6.47243e-06,2.41973e-05,5.59233e-05,-4.4036e-06,6.80573e-05,-2.6448e-06,0
-2.7505e-05,3.77882e-05,-7.87679e-06,5.43725e-06,3.78804e-05,-7.45686e-06,7.94612e-05,-4.67194e-06,0
-2.84367e-05,3.71631e-05,-8.34807e-06,-9.31851e-06,3.15343e-05,-1.01598e-05,8.15942e-05,-6.21302e-06,0
-3.06659e-05,3.28834e-05,-8.83555e-06,-2.85145e-06,3.43509e-05,-1.23872e-05,7.15297e-05,-5.25835e-06,0
-3.4517e-05,3.01557e-05,-1.00006e-05,4.47291e-06,3.43804e-05,-1.35365e-05,5.81499e-05,-3.40321e-06,0
-3.56449e-05,3.28249e-05,-9.11187e-06,-5.89978e-06,3.06692e-05,-1.25999e-05,4.82503e-05,-3.34152e-06,0
-3.30206e-05,3.78433e-05,-4.3606e-06,-7.27993e-06,2.62794e-05,-8.90987e-06,3.88395e-05,-4.85658e-06,0
-2.96622e-05,4.0254e-05,2.99278e-06,1.02281e-05,2.81061e-05,-2.54604e-06,2.91489e-05,-6.46813e-06,0
-2.7024e-05,3.8524e-05,9.08193e-06,2.97628e-05,3.96046e-05,4.12579e-06,1.04727e-05,-6.74023e-06,0
-2.7362e-05,3.52285e-05,9.09418e-06,3.80244e-05,4.97529e-05,5.6562e-06,-1.35782e-05,-5.39603e-06,0
-2.98952e-05,3.59231e-05,4.47524e-06,3.13252e-05,4.88567e-05,1.85509e-06,-3.49726e-05,-3.28582e-06,0
-3.23171e-05,4.10375e-05,-2.67086e-06,4.40843e-06,3.77869e-05,-2.37502e-06,-4.99364e-05,-6.15595e-07,0
-3.28992e-05,4.67453e-05,-7.10588e-06,-3.66043e-05,2.49443e-05,-4.10193e-06,-5.57515e-05,1.85023e-06,0
-3.16717e-05,5.18076e-05,-6.6532e-06,-5.21591e-05,1.55045e-05,-3.56525e-06,-5.52822e-05,2.53452e-06,0
-2.95548e-05,5.75702e-05,-6.58025e-06,-1.13044e-05,7.89375e-06,-2.44215e-06,-5.01573e-05,5.33298e-07,0
-2.65336e-05,6.07527e-05,-7.48463e-06,6.58881e-05,9.72891e-07,-2.75696e-06,-4.18866e-05,-1.80917e-06,0
-2.3568e-05,5.63811e-05,-7.0754e-06,0.00011813,-4.12381e-06,-5.83938e-06,-3.59051e-05,-2.06796e-06,0
-2.40144e-05,4.34947e-05,-6.25991e-06,0.000108271,-7.18593e-06,-9.76445e-06,-3.78703e-05,-4.28403e-07,0
-2.74672e-05,2.65834e-05,-8.93083e-06,5.4554e-05,-5.84512e-06,-1.21313e-05,-4.50772e-05,1.3664e-06,0
-3.01115e-05,1.13545e-05,-1.43945e-05,7.46953e-06,-2.922e-06,-1.35889e-05,-4.7103e-05,7.54786e-07,0
-3.17324e-05,3.19363e-06,-1.93058e-05,1.75224e-06,-6.55426e-06,-1.62559e-05,-3.67798e-05,-1.4501e-06,0
-3.35965e-05,4.16191e-06,-2.08532e-05,2.81895e-05,-1.722e-05,-2.00239e-05,-2.7374e-05,-3.48876e-06,0
-3.42286e-05,7.6784e-06,-1.91107e-05,5.10262e-05,-2.49308e-05,-2.06508e-05,-3.7375e-05,-4.526e-06,0
-3.25812e-05,9.08114e-06,-1.56133e-05,4.40594e-05,-2.36883e-05,-1.57442e-05,-5.47424e-05,-4.54539e-06,0
-3.01886e-05,8.96299e-06,-1.20148e-05,5.94039e-06,-2.01061e-05,-9.47164e-06,-5.06842e-05,-4.1087e-06,0
-2.92433e-05,1.73089e-06,-9.46702e-06,-4.49774e-05,-2.08146e-05,-8.829e-06,-2.14468e-05,-4.90295e-06,0
-3.08441e-05,-1.87037e-05,-8.24236e-06,-6.92087e-05,-2.09384e-05,-1.39695e-05,1.94379e-05,-6.38206e-06,0
-3.43703e-05,-4.27219e-05,-7.77673e-06,-5.43925e-05,-1.71582e-05,-1.94593e-05,6.30407e-05,-7.82261e-06,0
-3.80179e-05,-5.52846e-05,-8.13595e-06,-4.13754e-05,-1.36557e-05,-2.18236e-05,0.000101331,-9.26652e-06,0
-3.86249e-05,-5.22215e-05,-8.3012e-06,-5.38547e-05,-7.00152e-06,-2.01871e-05,0.000126512,-8.46665e-06,0
-3.60998e-05,-4.09363e-05,-6.10899e-06,-4.55246e-05,1.11551e-05,-1.55357e-05,0.000139896,-6.93564e-06,0
-3.41564e-05,-3.22291e-05,-4.73086e-06,2.74054e-05,3.77472e-05,-1.07734e-05,0.00013787,-4.86307e-06,0
-3.2799e-05,-2.61109e-05,-6.76978e-06,0.000121451,5.83808e-05,-6.81373e-06,0.000115058,-2.16009e-06,0
-3.02544e-05,-1.44372e-05,-8.14437e-06,0.000160513,6.25016e-05,-4.15337e-06,7.99762e-05,-4.35698e-07,0
-2.80464e-05,-7.65375e-07,-5.61008e-06,0.000128497,4.93786e-05,-5.95401e-06,5.71364e-05,1.18849e-06,0
-2.93279e-05,7.1203e-06,-1.20899e-06,7.20752e-05,3.24864e-05,-1.05289e-05,5.81395e-05,2.22464e-06,0
-3.31394e-05,9.90008e-06,3.4489e-06,3.57583e-05,2.74154e-05,-1.14722e-05,7.15292e-05,1.71065e-06,0
-3.39878e-05,1.53191e-05,7.68547e-06,4.42723e-06,3.40172e-05,-7.85206e-06,8.52355e-05,-6.41083e-08,0
-3.23094e-05,2.64098e-05,6.34034e-06,-3.77874e-05,3.96559e-05,-4.93465e-06,9.13333e-05,-5.04885e-07,0
-3.02522e-05,3.97974e-05,-1.09796e-06,-6.78799e-05,3.7611e-05,-4.7438e-06,8.76368e-05,7.56171e-08,0
-2.92354e-05,5.4965e-05,-8.26688e-06,-6.50971e-05,3.02902e-05,-7.30009e-06,6.75161e-05,3.14964e-07,0
-3.03848e-05,7.04282e-05,-9.98383e-06,-3.45938e-05,2.16825e-05,-1.04461e-05,3.36816e-05,-4.4942e-07,0
-3.10102e-05,7.99222e-05,-5.79179e-06,-3.97143e-06,1.62163e-05,-1.04836e-05,-3.07705e-06,-1.77013e-06,0
-2.85589e-05,7.83548e-05,3.84257e-07,4.74425e-06,1.78395e-05,-6.21462e-06,-3.17611e-05,-1.71505e-06,0
-2.49914e-05,6.61231e-05,4.46606e-06,-8.14744e-06,2.23383e-05,-8.25375e-07,-4.36531e-05,-3.0332e-07,0
-2.38647e-05,4.57783e-05,2.33817e-06,-3.11245e-05,2.06829e-05,-5.49345e-07,-3.22475e-05,2.3142e-06,0
-2.6194e-05,2.3123e-05,-5.83492e-06,-5.66006e-05,1.58673e-05,-5.44837e-06,-1.9374e-06,4.92583e-06,0
-3.00909e-05,7.88395e-06,-1.40424e-05,-7.77139e-05,1.60909e-05,-1.00477e-05,2.5573e-05,6.01225e-06,0
-3.16005e-05,8.59192e-06,-1.7272e-05,-8.63236e-05,1.73444e-05,-1.09816e-05,2.50565e-05,4.42114e-06,0
-3.07741e-05,2.33552e-05,-1.8415e-05,-7.66232e-05,9.15099e-06,-1.11333e-05,-6.11501e-06,1.93919e-06,0
-3.01823e-05,4.25766e-05,-1.98051e-05,-6.03727e-05,-6.07167e-06,-1.14313e-05,-3.24972e-05,7.46362e-07,0
-3.05936e-05,6.21715e-05,-1.73457e-05,-5.80043e-05,-1.70742e-05,-8.3708e-06,-2.7837e-05,-7.67794e-08,0
-3.01642e-05,8.10862e-05,-1.05656e-05,-7.25301e-05,-1.68588e-05,-2.49817e-06,-6.28579e-06,-1.40276e-06,0
-2.8506e-05,9.24646e-05,-5.72914e-06,-8.66044e-05,-9.43523e-06,1.31957e-06,1.66097e-05,-2.81323e-06,0
-2.7961e-05,9.12424e-05,-7.29543e-06,-8.52191e-05,-3.88942e-06,-8.53331e-08,4.33495e-05,-3.99374e-06,0
-2.83954e-05,7.54347e-05,-1.34667e-05,-7.51112e-05,-7.43703e-06,-4.58938e-06,7.04451e-05,-3.92932e-06,0
-2.83466e-05,4.47662e-05,-1.99679e-05,-7.01666e-05,-2.5056e-05,-7.47971e-06,9.6632e-05,-4.09564e-06,0
-3.28887e-05,-3.68398e-06,-2.28221e-05,-6.18023e-05,-4.73144e-05,-1.00723e-05,0.000124417,-4.0102e-06,0
-4.16972e-05,-5.42636e-05,-1.80702e-05,-4.02832e-05,-4.46391e-05,-1.2424e-05,0.000137535,-2.9461e-06,0
-4.86855e-05,-9.29596e-05,-8.91158e-06,-1.6897e-05,-1.33904e-05,-1.00803e-05,0.000130476,-2.31269e-06,0
-5.0269e-05,-0.000120719,-4.63337e-06,-1.34828e-05,1.78621e-05,-6.63822e-06,0.000114363,1.84968e-07,0
-4.55681e-05,-0.00012988,-8.68563e-06,-3.36007e-05,3.37645e-05,-5.93516e-06,9.7062e-05,4.2235e-06,0
-4.08177e-05,-0.000122517,-1.35622e-05,-5.3246e-05,3.53805e-05,-5.45563e-06,8.49798e-05,5.93964e-06,0
-3.73558e-05,-0.000107539,-1.32485e-05,-5.0558e-05,3.24153e-05,-2.01958e-06,7.42963e-05,5.75616e-06,0
-3.62012e-05,-0.000104119,-9.61606e-06,-2.81461e-05,2.97552e-05,1.7502e-06,6.18548e-05,6.14781e-06,0
-3.92558e-05,-0.000111866,-7.23643e-06,-3.83146e-06,2.79575e-05,1.72217e-06,5.28872e-05,6.77447e-06,0
-4.26994e-05,-0.000113247,-8.6805e-06,1.62144e-05,2.38446e-05,-2.82691e-06,6.68845e-05,7.71321e-06,0
-4.24454e-05,-0.000100267,-1.16766e-05,1.87402e-05,1.64929e-05,-9.05199e-06,0.000106197,8.4193e-06,0
-3.88543e-05,-7.7904e-05,-1.41856e-05,-6.15365e-06,7.8987e-06,-1.28343e-05,0.000168418,8.55244e-06,0
-3.51581e-05,-5.73681e-05,-1.54145e-05,-3.60201e-05,7.60087e-07,-1.32404e-05,0.000241687,8.86895e-06,0
-3.26096e-05,-4.47461e-05,-1.51314e-05,-3.742e-05,-1.95087e-06,-1.28622e-05,0.000275806,9.93756e-06,0
-3.10626e-05,-3.99448e-05,-1.31789e-05,-7.50113e-06,-1.48283e-06,-1.39846e-05,0.000230881,1.02992e-05,0
-2.89419e-05,-3.40803e-05,-9.99726e-06,2.69676e-05,-3.00595e-07,-1.46957e-05,0.000120126,8.30031e-06,0
-2.55345e-05,-2.27081e-05,-6.49998e-06,4.84242e-05,5.70335e-07,-1.32293e-05,-7.57214e-06,5.94751e-06,0
-2.2762e-05,-6.71198e-06,-3.80872e-06,6.09878e-05,3.46599e-06,-1.14253e-05,-0.00012632,5.39761e-06,0
-2.27386e-05,9.07957e-06,-2.06707e-06,7.48513e-05,8.53597e-06,-1.30448e-05,-0.000234043,6.0211e-06,0
-2.43977e-05,2.19136e-05,-7.17266e-07,8.58988e-05,1.07098e-05,-1.8635e-05,-0.000320341,6.68819e-06,0
-2.60212e-05,2.86733e-05,3.90787e-07,8.19056e-05,2.30002e-06,-2.46521e-05,-0.00036282,7.24602e-06,0
-2.65239e-05,3.20196e-05,2.10173e-06,6.40075e-05,-1.04431e-05,-2.6475e-05,-0.000358193,7.37226e-06,0
-2.64694e-05,3.64106e-05,7.97294e-06,4.92632e-05,-1.00737e-05,-2.18445e-05,-0.00032209,6.60713e-06,0
-2.75613e-05,4.24402e-05,1.68705e-05,4.07242e-05,8.96971e-06,-1.46197e-05,-0.000277068,6.18197e-06,0
-3.10887e-05,4.68711e-05,1.72038e-05,1.77797e-05,2.71559e-05,-1.66608e-05,-0.000221659,6.4088e-06,0
-3.64223e-05,4.89584e-05,5.36261e-06,-6.64675e-06,2.86128e-05,-2.81448e-05,-0.000148312,6.5002e-06,0
-4.28328e-05,5.32264e-05,-5.68164e-06,-2.94902e-07,1.77576e-05,-3.12616e-05,-7.53405e-05,6.4324e-06,0
-4.83891e-05,6.3419e-05,-1.24006e-05,1.89502e-05,5.92876e-06,-1.68597e-05,-1.37244e-05,5.10689e-06,0
-4.94417e-05,7.69914e-05,-1.7078e-05,2.28526e-05,3.13177e-06,7.38644e-06,2.95227e-05,3.35785e-06,0
-4.73449e-05,8.49268e-05,-1.7219e-05,2.21769e-05,6.66935e-06,2.37089e-05,5.39534e-05,1.72233e-06,0
-4.61194e-05,8.39957e-05,-1.22858e-05,2.8424e-05,8.85954e-06,2.01476e-05,6.22575e-05,8.06281e-08,0
-4.62552e-05,7.84574e-05,-3.54568e-06,3.16656e-05,1.09272e-05,5.20497e-06,6.11618e-05,-2.30023e-06,0
-4.43091e-05,7.23337e-05,4.34072e-06,3.00014e-05,1.73432e-05,-4.42621e-06,5.66336e-05,-5.01515e-06,0
-3.99888e-05,6.50598e-05,8.44402e-06,2.48045e-05,2.46823e-05,-5.17449e-06,4.67755e-05,-6.28234e-06,0
-3.5914e-05,6.21262e-05,8.32737e-06,1.50232e-05,2.38475e-05,-4.91531e-06,3.66519e-05,-5.68031e-06,0
-3.47933e-05,7.17054e-05,6.17999e-06,-2.47607e-06,1.76023e-05,-8.38255e-06,3.11264e-05,-2.39182e-06,0
-3.36924e-05,9.5791e-05,4.60767e-06,-2.65704e-05,1.65145e-05,-1.38586e-05,3.27689e-05,-2.12444e-07,0
-2.85519e-05,0.000129717,4.19758e-06,-3.89127e-05,2.41312e-05,-1.70392e-05,3.21762e-05,-1.15885e-06,0
-2.00764e-05,0.000168089,4.68068e-06,-2.40507e-05,3.19264e-05,-1.73599e-05,2.17993e-05,-3.26458e-06,0
-1.2356e-05,0.000200698,5.217e-06,1.24071e-05,2.9778e-05,-1.7967e-05,8.89098e-06,-4.66837e-06,0
-9.52854e-06,0.000213997,4.48553e-06,5.32234e-05,2.01371e-05,-2.03034e-05,3.072e-06,-5.46378e-06,0
-1.06344e-05,0.000200426,3.28775e-06,7.83022e-05,1.02935e-05,-2.24567e-05,6.90214e-06,-5.36864e-06,0
-1.30613e-05,0.000160961,2.84922e-06,7.67056e-05,5.8006e-06,-2.28163e-05,1.71189e-05,-4.54075e-06,0
-1.5393e-05,0.00010109,2.91106e-06,5.823e-05,9.08415e-06,-2.12275e-05,3.08823e-05,-5.08719e-06,0
-1.82079e-05,2.54999e-05,3.06362e-06,3.41523e-05,1.81873e-05,-1.50632e-05,4.45474e-05,-6.42707e-06,0
-1.90956e-05,-5.0489e-05,1.40709e-06,4.19208e-06,2.14025e-05,-4.01017e-06,5.25863e-05,-7.23091e-06,0
-1.78904e-05,-0.000108788,-4.92916e-06,-3.04716e-05,9.22001e-06,2.27236e-06,4.9559e-05,-7.24411e-06,0
-1.96339e-05,-0.000142612,-1.20017e-05,-5.02475e-05,-9.01101e-06,-4.45675e-06,3.74612e-05,-7.41972e-06,0
-2.71514e-05,-0.000149052,-1.3282e-05,-3.70262e-05,-1.54363e-05,-1.47492e-05,2.79099e-05,-7.41454e-06,0
-3.64391e-05,-0.00013759,-9.65605e-06,-9.1558e-07,-7.62038e-06,-1.70056e-05,4.24003e-05,-6.43991e-06,0
-4.36146e-05,-0.000124669,-5.65173e-06,2.42954e-05,4.00205e-06,-1.57982e-05,9.10891e-05,-3.05328e-06,0
-5.0455e-05,-0.000112625,-3.83368e-06,2.56687e-05,1.1497e-05,-1.5757e-05,0.000155766,1.87333e-06,0
-5.46992e-05,-0.000103587,-5.84753e-06,1.92656e-05,1.49127e-05,-1.10335e-05,0.000230173,3.9834e-06,0
-4.6276e-05,-9.43179e-05,-1.57147e-05,1.1585e-05,1.54198e-05,-3.84055e-07,0.000333622,3.76602e-06,0
-2.92051e-05,-7.45353e-05,-3.0856e-05,-4.45113e-06,1.13247e-05,5.65436e-06,0.000438734,4.88687e-06,0
-2.33083e-05,-5.03222e-05,-3.74548e-05,-1.79153e-05,1.05061e-05,2.82253e-06,0.000456666,4.89844e-06,0
-2.43516e-05,-3.00816e-05,-3.22591e-05,-2.48325e-05,1.73645e-05,7.7104e-07,0.000362938,2.90295e-06,0
-2.00639e-05,-5.41445e-06,-2.38439e-05,-4.07137e-05,2.13177e-05,9.9297e-07,0.000180736,6.34489e-08,0
-1.26891e-05,3.00175e-05,-1.60951e-05,-5.98592e-05,1.85477e-05,-5.62833e-07,-8.94125e-05,-2.07964e-06,0
-6.83195e-06,6.67911e-05,-1.16061e-05,-6.70021e-05,1.19222e-05,-2.65547e-06,-0.0003625,-2.09823e-06,0
-6.44594e-06,9.48938e-05,-9.72003e-06,-4.92542e-05,5.9411e-06,-6.14523e-06,-0.00051719,-2.32747e-06,0
-7.67518e-06,0.000107776,-1.05001e-05,-9.41105e-06,2.77079e-06,-1.05997e-05,-0.000506057,-3.16636e-06,0
-8.26017e-06,9.95441e-05,-1.18639e-05,3.10348e-05,-1.82276e-06,-1.32417e-05,-0.000400701,-3.17114e-06,0
-8.85346e-06,6.58483e-05,-1.22825e-05,5.15842e-05,-9.7661e-06,-1.38356e-05,-0.000293841,-1.88426e-06,0
-1.17544e-05,1.34819e-05,-1.35354e-05,3.90972e-05,-1.82688e-05,-1.44659e-05,-0.000208388,-5.55074e-07,0
-1.744e-05,-4.10659e-05,-1.53694e-05,-1.51648e-06,-2.31519e-05,-1.72205e-05,-0.000147397,-2.27571e-07,0
-2.37036e-05,-8.47486e-05,-1.72078e-05,-3.35331e-05,-2.47364e-05,-2.27194e-05,-0.000108869,-1.05202e-06,0
-2.78322e-05,-0.000109374,-1.77445e-05,-2.24667e-05,-2.60746e-05,-2.79562e-05,-8.13666e-05,-1.95087e-06,0
-2.82216e-05,-0.00011192,-1.6975e-05,3.43314e-05,-2.63732e-05,-2.97909e-05,-4.96477e-05,-1.82285e-06,0
-2.73316e-05,-9.51321e-05,-1.34476e-05,8.76898e-05,-2.30164e-05,-2.87115e-05,-3.17394e-05,-4.96581e-07,0
-2.88434e-05,-6.79068e-05,-7.54105e-06,7.34538e-05,-1.90621e-05,-2.80929e-05,-4.20866e-05,4.80263e-07,0
-3.464e-05,-4.17282e-05,-2.87152e-06,-1.86708e-05,-1.8554e-05,-2.93149e-05,-5.86195e-05,1.43644e-08,0
-3.98814e-05,-2.28499e-05,-3.37585e-06,-0.000131963,-1.943e-05,-3.0355e-05,-5.43385e-05,-1.53808e-06,0
-4.0959e-05,-9.44993e-06,-7.70653e-06,-0.00019553,-1.02053e-05,-2.92819e-05,-3.13753e-05,-2.84682e-06,0
-4.00939e-05,-7.85299e-08,-1.30647e-05,-0.000190434,1.13093e-05,-2.60794e-05,1.86683e-06,-2.93727e-06,0
-4.04269e-05,7.56395e-06,-1.77217e-05,-0.000142478,2.50741e-05,-2.33998e-05,4.2002e-05,-2.76406e-06,0
-3.97533e-05,1.94624e-05,-1.9248e-05,-9.34021e-05,1.8085e-05,-2.26968e-05,9.20254e-05,-3.5072e-06,0
-3.76229e-05,3.40156e-05,-1.69397e-05,-7.98501e-05,8.72135e-06,-2.13661e-05,0.000148831,-3.4734e-06,0
-3.51747e-05,4.23927e-05,-1.33367e-05,-0.000117052,1.56882e-05,-1.82975e-05,0.000196189,-1.81794e-06,0
-3.22258e-05,4.14284e-05,-1.38515e-05,-0.000167751,2.96071e-05,-1.45342e-05,0.000205851,-3.69165e-07,0
-2.99906e-05,3.4631e-05,-1.68254e-05,-0.000181761,3.48903e-05,-1.13729e-05,0.000161684,1.1789e-06,0
-2.6364e-05,3.04212e-05,-1.48782e-05,-0.000146827,3.33956e-05,-8.95064e-06,8.99846e-05,3.11746e-06,0
-2.09284e-05,3.36696e-05,-1.0744e-05,-9.74053e-05,3.24479e-05,-6.93775e-06,4.5061e-05,4.33673e-06,0
-1.86043e-05,4.11958e-05,-7.36573e-06,-5.21097e-05,3.90869e-05,-5.11531e-06,3.98599e-05,4.35412e-06,0
-1.84942e-05,5.17329e-05,-2.40584e-06,-1.30714e-05,5.22456e-05,3.23471e-09,3.89035e-05,3.7596e-06,0
-1.71495e-05,6.28814e-05,4.57893e-07,8.02861e-06,6.06528e-05,7.14304e-06,3.9174e-05,2.73567e-06,0
-1.53556e-05,6.93923e-05,-2.87924e-07,3.00093e-05,6.03689e-05,1.18039e-05,5.20682e-05,2.14935e-06,0
-1.46871e-05,7.03974e-05,-1.823e-06,5.81518e-05,5.3759e-05,1.13155e-05,7.7152e-05,2.32281e-06,0
-1.72511e-05,7.07069e-05,-2.17987e-06,9.65346e-05,5.08107e-05,8.18047e-06,9.78397e-05,3.46812e-06,0
-2.47921e-05,7.22253e-05,-2.46835e-06,0.000142821,5.62294e-05,5.06637e-06,0.000104791,5.34786e-06,0
-3.19192e-05,8.07051e-05,-4.38339e-07,0.000182315,7.01513e-05,5.95041e-06,9.28694e-05,6.44072e-06,0
-3.33414e-05,0.000101038,4.44681e-06,0.000190191,8.4531e-05,1.07062e-05,7.43247e-05,5.83912e-06,0
-3.2739e-05,0.00012814,3.95822e-06,0.000142989,8.44496e-05,1.10788e-05,7.74813e-05,5.17804e-06,0
-3.25642e-05,0.000151511,-6.74387e-06,5.46133e-05,6.83661e-05,3.85081e-06,0.000107628,5.68362e-06,0
-3.09962e-05,0.000156074,-2.14743e-05,-3.00726e-05,4.65181e-05,-5.74795e-06,0.000138849,5.69074e-06,0
-2.82688e-05,0.000134194,-2.98448e-05,-7.11192e-05,2.89054e-05,-9.15382e-06,0.000149609,4.54715e-06,0
-2.66936e-05,8.63962e-05,-2.85813e-05,-7.56457e-05,1.8632e-05,-7.3663e-06,0.000146895,3.87239e-06,0
-2.54668e-05,2.28305e-05,-2.27447e-05,-7.90054e-05,1.48938e-05,-5.32636e-06,0.000144899,4.62752e-06,0
-2.36066e-05,-3.7544e-05,-1.8621e-05,-0.000101148,1.47045e-05,-4.27915e-06,0.000161276,5.27971e-06,0
-2.16632e-05,-7.97639e-05,-1.74598e-05,-0.000117359,1.75103e-05,-1.23776e-06,0.000196023,4.31976e-06,0
-2.14201e-05,-0.000100353,-1.74933e-05,-0.000101117,2.05408e-05,3.87993e-06,0.000219177,2.53741e-06,0
-2.28992e-05,-9.81982e-05,-1.68335e-05,-5.89981e-05,1.88038e-05,5.87322e-06,0.000185928,2.73144e-06,0
-2.70214e-05,-7.6408e-05,-1.31215e-05,-1.47901e-05,1.34252e-05,2.71291e-06,6.91678e-05,5.52398e-06,0
-3.31773e-05,-4.72749e-05,-7.48508e-06,1.63233e-05,1.24478e-05,-1.60891e-06,-0.000104142,8.88508e-06,0
-4.00677e-05,-2.41098e-05,-5.99398e-06,3.08098e-05,1.81188e-05,-5.86132e-06,-0.000259786,9.44933e-06,0
-4.71184e-05,-1.81627e-05,-1.23972e-05,4.35628e-05,1.95033e-05,-1.12416e-05,-0.000344438,7.44522e-06,0
-4.92865e-05,-2.61786e-05,-2.19754e-05,5.90888e-05,8.02401e-06,-1.60839e-05,-0.000357298,5.98306e-06,0
-4.79025e-05,-3.60408e-05,-2.8274e-05,5.9265e-05,-9.81448e-06,-1.71983e-05,-0.000317948,4.45153e-06,0
-4.55953e-05,-3.81833e-05,-2.72672e-05,4.7156e-05,-1.94298e-05,-1.31993e-05,-0.000220353,3.71855e-06,0
-4.12455e-05,-2.46393e-05,-1.69809e-05,3.89418e-05,-9.90959e-06,-4.99392e-06,-0.000105355,4.62829e-06,0
-3.73653e-05,-3.63087e-06,-6.92074e-06,3.02095e-05,-5.97227e-08,8.7018e-07,-2.21774e-05,5.11189e-06,0
-3.58293e-05,1.2226e-05,-5.78252e-06,2.09957e-05,-6.16632e-06,-6.16012e-07,4.00633e-05,4.86982e-06,0
-3.67246e-05,1.95231e-05,-1.02195e-05,1.16516e-05,-1.62315e-05,-4.40133e-06,8.30212e-05,4.27595e-06,0
-3.93177e-05,1.75416e-05,-1.37878e-05,-3.60988e-06,-2.30271e-05,-6.80789e-06,0.00010066,4.42089e-06,0
-4.17449e-05,1.39795e-05,-1.19874e-05,-5.89123e-06,-1.96768e-05,-5.70506e-06,9.56373e-05,5.73628e-06,0
-4.14996e-05,1.92592e-05,-7.86199e-06,7.60752e-06,-1.01353e-05,-3.00402e-06,9.2246e-05,7.59411e-06,0
-3.90274e-05,3.19472e-05,-5.74448e-06,2.34278e-05,-5.44021e-06,-1.07265e-06,9.85926e-05,8.36302e-06,0
-3.71474e-05,4.35762e-05,-4.62095e-06,2.36434e-05,-1.13588e-05,-7.69648e-07,0.000101297,8.45096e-06,0
-3.66835e-05,5.62352e-05,-2.89e-06,1.09093e-05,-1.97768e-05,-3.37338e-07,7.99268e-05,8.94323e-06,0
-3.61011e-05,7.08376e-05,-1.71482e-06,-2.03313e-06,-1.89156e-05,1.91815e-06,3.5964e-05,9.05012e-06,0
-3.44276e-05,8.30057e-05,-2.40667e-06,-1.37575e-05,-7.36963e-06,4.6727e-06,-7.9919e-06,8.22959e-06,0
-3.18822e-05,8.79786e-05,-3.57443e-06,-2.13299e-05,7.85974e-06,6.17881e-06,-3.55397e-05,6.58733e-06,0
-2.94987e-05,8.67256e-05,-3.49536e-06,-1.64516e-05,1.74191e-05,7.76058e-06,-4.48227e-05,5.11832e-06,0
-2.81054e-05,8.3724e-05,-1.04126e-06,7.26666e-06,2.27888e-05,1.18214e-05,-4.18351e-05,4.66109e-06,0
-2.74623e-05,7.79132e-05,1.56586e-06,3.73168e-05,3.12413e-05,1.61973e-05,-2.38376e-05,5.73556e-06,0
-2.75818e-05,6.64021e-05,1.57817e-06,5.62088e-05,4.1673e-05,1.70981e-05,1.40263e-05,6.05908e-06,0
-2.78785e-05,4.64493e-05,-1.28858e-06,5.00835e-05,4.08963e-05,1.42605e-05,7.24352e-05,3.43369e-06,0
-2.76915e-05,1.74732e-05,-4.75224e-06,1.87743e-05,2.84402e-05,1.08554e-05,0.000146788,-9.4541e-08,0
-2.78205e-05,-1.76372e-05,-6.82681e-06,-2.18898e-05,1.39568e-05,5.88841e-06,0.000231822,-1.44804e-06,0
-2.98995e-05,-5.17199e-05,-6.19351e-06,-4.5602e-05,2.66462e-06,-7.17452e-07,0.000295859,-1.47103e-06,0
-3.18898e-05,-7.4989e-05,3.89077e-07,-3.56153e-05,-2.12012e-06,-6.4293e-06,0.000304396,-1.93948e-06,0
-3.24164e-05,-7.92463e-05,8.9487e-06,9.61778e-06,5.60091e-06,-9.32051e-06,0.000246957,-3.24432e-06,0
-3.26909e-05,-6.87746e-05,1.18344e-05,7.32256e-05,2.29034e-05,-1.15832e-05,0.000113537,-5.34065e-06,0
-3.41116e-05,-5.81056e-05,9.5907e-06,0.000118762,3.84789e-05,-1.49026e-05,-0.000110849,-6.39962e-06,0
-3.58355e-05,-5.44557e-05,6.26928e-06,0.000119755,4.32098e-05,-1.82496e-05,-0.000366209,-5.32557e-06,0
-3.63991e-05,-4.99346e-05,9.1205e-07,8.21316e-05,3.45513e-05,-2.18052e-05,-0.000571203,-4.96066e-06,0
-3.56524e-05,-4.14549e-05,-5.43332e-06,3.73431e-05,1.98954e-05,-2.36271e-05,-0.000633286,-6.54928e-06,0
-3.32402e-05,-2.79914e-05,-7.11028e-06,3.00552e-07,7.16309e-06,-2.16181e-05,-0.000518584,-7.8343e-06,0
-2.93573e-05,-8.8894e-06,-5.19572e-06,-2.54743e-05,2.1177e-06,-1.67805e-05,-0.000320425,-6.89619e-06,0
-2.35106e-05,1.12714e-05,-4.00329e-06,-4.22514e-06,3.85202e-06,-1.36266e-05,-0.000130239,-4.42522e-06,0
-1.91918e-05,2.79034e-05,-3.84482e-06,7.72079e-05,8.14473e-06,-1.24159e-05,-7.87374e-07,-2.97253e-06,0
-1.81695e-05,3.70076e-05,-3.8929e-06,0.000144327,1.44104e-05,-1.02789e-05,8.92215e-05,-3.43281e-06,0
-1.97286e-05,3.86466e-05,-2.09775e-06,0.000123566,1.69898e-05,-1.0012e-05,0.000141478,-4.03047e-06,0
-2.31287e-05,3.52304e-05,-2.03082e-07,4.42681e-05,7.91889e-06,-1.46477e-05,0.000186268,-3.99928e-06,0
-2.47931e-05,3.11216e-05,-2.87101e-06,-2.33573e-05,-1.08354e-05,-2.16298e-05,0.000272609,-3.58278e-06,0
-2.51138e-05,2.86087e-05,-9.17566e-06,-5.61184e-05,-2.56792e-05,-2.58506e-05,0.000411256,-3.76365e-06,0
-2.5241e-05,2.65158e-05,-1.25249e-05,-8.14563e-05,-2.56968e-05,-2.49311e-05,0.000577199,-4.2427e-06,0
-2.62009e-05,1.86367e-05,-1.14394e-05,-0.000102144,-1.64576e-05,-2.03273e-05,0.000707629,-4.38245e-06,0
-2.83071e-05,4.69193e-06,-8.6582e-06,-9.26253e-05,-8.74404e-06,-1.62343e-05,0.000751978,-4.52342e-06,0
-3.09136e-05,-7.4341e-06,-5.69789e-06,-5.63515e-05,-6.2763e-06,-1.23223e-05,0.000674938,-4.17252e-06,0
-3.3606e-05,-1.31879e-05,-6.00761e-06,-1.45469e-05,-1.15275e-05,-8.59066e-06,0.000476066,-4.76107e-06,0
-3.64014e-05,-1.18058e-05,-1.22856e-05,2.46461e-05,-2.01886e-05,-8.84326e-06,0.000181305,-5.97179e-06,0
-3.74426e-05,-1.22967e-06,-1.80227e-05,4.89246e-05,-1.8422e-05,-1.24833e-05,-0.000129175,-6.46571e-06,0
-3.54575e-05,1.7546e-05,-1.5849e-05,2.81288e-05,-4.56734e-06,-1.34883e-05,-0.000353556,-5.56151e-06,0
-3.40424e-05,3.69445e-05,-1.11823e-05,-3.5379e-05,1.05406e-05,-1.18462e-05,-0.000404222,-4.1816e-06,0
-3.52038e-05,4.93238e-05,-1.10928e-05,-9.91506e-05,1.88565e-05,-1.56606e-05,-0.000271096,-3.0288e-06,0
-3.72839e-05,5.25264e-05,-1.42624e-05,-0.00012705,1.61272e-05,-2.38477e-05,-5.13911e-05,-3.3104e-06,0
-3.62474e-05,4.89922e-05,-1.39813e-05,-0.000117003,9.41907e-06,-2.07512e-05,0.000111584,-4.35655e-06,0
-3.22179e-05,4.43919e-05,-7.89976e-06,-8.35739e-05,1.23362e-05,5.73168e-08,0.000160103,-3.61189e-06,0
-3.11208e-05,3.67182e-05,-4.30058e-06,-6.24585e-05,2.19519e-05,1.84557e-05,0.00010575,-1.89487e-06,0
