ch1,ch2,ch3,ch4,ch5,ch6,ch7,ch8,class
-3.10172e-05,8.7339e-06,-8.55562e-06,4.06896e-05,2.97581e-05,-7.22813e-06,1.48859e-05,-4.14698e-06,0
-3.01178e-05,8.54993e-06,-5.72584e-06,3.38718e-05,3.00921e-05,-6.54428e-06,2.09361e-05,-5.6287e-06,0
-2.74668e-05,1.09451e-05,3.53093e-06,2.53257e-05,2.82593e-05,-4.94503e-06,2.86821e-05,-5.36944e-06,0
-2.61941e-05,1.31503e-05,1.31097e-05,1.83672e-05,2.48777e-05,-3.92232e-06,3.1426e-05,-4.19258e-06,0
-2.60282e-05,1.33065e-05,1.71358e-05,1.27109e-06,2.11019e-05,-6.09002e-06,2.94844e-05,-3.15437e-06,0
-2.61729e-05,1.25539e-05,1.46239e-05,-3.26764e-05,1.83304e-05,-9.21466e-06,2.64227e-05,-1.59444e-06,0
-2.71894e-05,1.14426e-05,1.03976e-05,-6.9659e-05,1.6506e-05,-1.00391e-05,2.25474e-05,-2.05522e-06,0
-2.87839e-05,9.34346e-06,9.72026e-06,-9.34522e-05,1.65719e-05,-1.03099e-05,1.55352e-05,-5.06262e-06,0
-2.91543e-05,7.75391e-06,1.43797e-05,-9.9435e-05,1.8269e-05,-1.11448e-05,5.51144e-06,-7.51637e-06,0
-2.76459e-05,6.23822e-06,2.02224e-05,-8.32494e-05,2.0077e-05,-1.09671e-05,-3.2584e-06,-8.76559e-06,0
-2.60183e-05,2.39326e-06,1.85816e-05,-4.99022e-05,2.00174e-05,-8.86876e-06,-6.7e-06,-1.00051e-05,0
-2.50263e-05,-1.26917e-06,7.77017e-06,-9.89408e-06,1.91596e-05,-7.10527e-06,-5.72157e-06,-1.05135e-05,0
-2.58575e-05,-1.97806e-06,-3.44592e-06,3.00756e-05,2.10566e-05,-7.04908e-06,-3.8518e-06,-9.59493e-06,0
-2.81054e-05,-5.33756e-07,-5.91548e-06,6.69345e-05,2.45869e-05,-7.69362e-06,-1.93815e-06,-9.01042e-06,0
-2.90343e-05,2.55595e-06,4.36624e-07,9.11301e-05,2.68936e-05,-7.2699e-06,-1.16606e-06,-8.79179e-06,0
-2.75141e-05,6.20505e-06,1.03997e-05,9.39665e-05,2.76446e-05,-6.5471e-06,-3.08855e-06,-8.10465e-06,0
-2.5866e-05,6.38525e-06,1.79745e-05,7.97974e-05,2.62627e-05,-6.7886e-06,-7.72999e-06,-6.57993e-06,0
-2.62338e-05,1.84472e-06,2.00746e-05,5.88832e-05,2.16128e-05,-7.89111e-06,-1.24002e-05,-4.23965e-06,0
-2.82442e-05,-2.88987e-06,1.67938e-05,3.86426e-05,1.56598e-05,-9.01346e-06,-1.10858e-05,-1.42762e-06,0
-2.88464e-05,-1.67944e-06,9.71896e-06,2.0486e-05,1.22931e-05,-9.89227e-06,-2.57306e-06,1.12438e-06,0
-2.76701e-05,4.56915e-06,-4.04833e-06,1.05531e-06,1.15936e-05,-1.13432e-05,7.95106e-06,2.4183e-06,0
-2.57798e-05,1.01745e-05,-2.2652e-05,-2.05135e-05,9.4903e-06,-1.40011e-05,1.59013e-05,2.00159e-06,0
-2.35206e-05,1.51365e-05,-4.17205e-05,-4.21721e-05,4.89671e-06,-1.73769e-05,2.14046e-05,6.29502e-07,0
-2.37047e-05,2.87933e-05,-5.47013e-05,-5.28977e-05,1.43151e-06,-1.94091e-05,2.45608e-05,-1.17911e-06,0
-2.49734e-05,5.09552e-05,-5.63401e-05,-4.41058e-05,3.25131e-07,-2.21483e-05,2.60666e-05,-2.33408e-06,0
-2.54567e-05,6.8999e-05,-5.29206e-05,-2.82789e-05,-1.22075e-06,-2.59379e-05,2.8076e-05,-1.45539e-06,0
-2.63622e-05,8.12617e-05,-4.59217e-05,-1.57928e-05,-3.58982e-06,-2.59342e-05,2.91082e-05,-8.41663e-07,0
-2.70893e-05,8.79946e-05,-3.6596e-05,-3.70893e-06,-6.32029e-06,-2.26249e-05,2.94273e-05,-8.88684e-07,0
-2.68827e-05,8.43348e-05,-2.87235e-05,7.48299e-06,-9.82955e-06,-2.03699e-05,2.82807e-05,-1.5424e-06,0
-2.55125e-05,6.72543e-05,-2.2069e-05,1.12815e-05,-1.25505e-05,-2.01701e-05,2.56578e-05,-2.13443e-06,0
-2.56548e-05,3.6123e-05,-1.55482e-05,9.76956e-06,-1.37533e-05,-2.06407e-05,2.09472e-05,-9.38027e-08,0
-2.78234e-05,-5.63224e-06,-1.14226e-05,1.05894e-05,-1.48595e-05,-2.06094e-05,1.64971e-05,2.17411e-06,0
-3.04421e-05,-5.03185e-05,-1.02398e-05,1.81038e-05,-1.50385e-05,-2.02346e-05,1.5691e-05,2.15682e-06,0
-3.16967e-05,-8.66132e-05,-9.25324e-06,3.10887e-05,-1.35082e-05,-1.83217e-05,1.65477e-05,1.16211e-06,0
-3.06702e-05,-9.84212e-05,-6.78028e-06,4.37503e-05,-1.17422e-05,-1.51641e-05,1.70418e-05,8.71108e-08,0
-2.94695e-05,-7.88593e-05,-3.46388e-06,4.8064e-05,-1.03386e-05,-1.28619e-05,1.62878e-05,-8.41226e-07,0
-2.9862e-05,-4.61497e-05,-6.17673e-07,3.95606e-05,-7.61256e-06,-1.19706e-05,1.5857e-05,2.08972e-07,0
-3.2226e-05,-2.27205e-05,3.81788e-07,2.08683e-05,-2.75814e-06,-1.16212e-05,1.8259e-05,1.3034e-06,0
-3.46578e-05,-1.44291e-05,-7.12559e-07,2.39315e-06,1.85194e-06,-1.14867e-05,2.79692e-05,9.58297e-08,0
-3.66136e-05,-1.5458e-05,-2.47567e-06,-1.04167e-05,5.13086e-06,-1.21178e-05,4.21093e-05,-8.03057e-07,0
-3.78914e-05,-1.90621e-05,-4.8497e-06,-2.08185e-05,7.64787e-06,-1.3874e-05,5.28108e-05,-1.55047e-07,0
-3.7512e-05,-2.32451e-05,-6.94247e-06,-3.11552e-05,1.01266e-05,-1.52974e-05,5.66348e-05,7.66961e-07,0
-3.45414e-05,-2.73964e-05,-6.88091e-06,-4.2383e-05,1.11591e-05,-1.47585e-05,5.45445e-05,2.01481e-06,0
-2.99652e-05,-2.88259e-05,-2.93096e-06,-5.24492e-05,9.09771e-06,-1.24445e-05,4.75471e-05,3.78062e-06,0
-2.60475e-05,-2.68938e-05,2.13446e-06,-5.5635e-05,5.89766e-06,-8.66421e-06,3.57526e-05,4.8606e-06,0
-2.41732e-05,-2.36353e-05,5.36783e-06,-4.74637e-05,4.18616e-06,-5.83661e-06,1.88309e-05,5.20583e-06,0
-2.45194e-05,-2.12158e-05,4.61162e-06,-2.98135e-05,2.77465e-06,-5.15068e-06,-3.2348e-06,6.32282e-06,0
-2.62164e-05,-1.87738e-05,-1.19934e-06,-9.62337e-06,-1.63027e-06,-5.55141e-06,-2.25339e-05,7.81034e-06,0
-2.67661e-05,-1.24158e-05,-9.35705e-06,3.16944e-06,-7.23697e-06,-5.53482e-06,-2.69811e-05,7.80385e-06,0
-2.68942e-05,-2.00182e-06,-1.70987e-05,-1.19976e-06,-8.65828e-06,-6.62971e-06,-1.81907e-05,5.74128e-06,0
-2.81836e-05,1.03687e-05,-2.03276e-05,-1.78724e-05,-5.94646e-06,-9.45831e-06,-9.24788e-06,2.57425e-06,0
-2.92216e-05,2.01185e-05,-1.79293e-05,-4.39076e-05,-3.66484e-06,-1.16644e-05,-4.46339e-06,1.22064e-06,0
-2.9182e-05,2.33308e-05,-1.34685e-05,-7.4809e-05,-1.93678e-06,-1.33162e-05,-2.4538e-06,3.39963e-06,0
-2.90741e-05,2.2971e-05,-8.39023e-06,-8.60958e-05,2.59119e-06,-1.56596e-05,-2.51831e-06,6.13118e-06,0
-3.02888e-05,2.10079e-05,-2.63469e-06,-6.38292e-05,1.04351e-05,-1.65316e-05,-4.06386e-06,8.32457e-06,0
-3.14221e-05,1.52796e-05,1.90848e-06,-1.76193e-05,1.75864e-05,-1.58161e-05,-7.30172e-06,9.45966e-06,0
-3.15419e-05,6.66839e-06,5.40307e-06,3.11421e-05,2.20365e-05,-1.64421e-05,-9.52162e-06,7.54435e-06,0
-3.12552e-05,2.34463e-06,1.05348e-05,7.60879e-05,2.3334e-05,-1.7784e-05,-8.81988e-06,6.2921e-06,0
-3.04186e-05,8.14174e-06,2.00075e-05,0.00011061,2.38936e-05,-1.77713e-05,-5.24274e-06,5.59698e-06,0
-2.82641e-05,2.23725e-05,3.44563e-05,0.000122713,2.68664e-05,-1.58531e-05,-1.78483e-06,3.77372e-06,0
-2.68446e-05,3.46108e-05,4.5364e-05,0.000107981,2.93522e-05,-1.24786e-05,-3.02208e-07,6.42487e-07,0
-2.73829e-05,3.85796e-05,4.29952e-05,7.52153e-05,2.85418e-05,-9.28469e-06,1.12676e-06,-2.98946e-06,0
-2.84706e-05,3.68517e-05,2.34305e-05,4.18768e-05,2.41978e-05,-9.1065e-06,2.27931e-06,-5.95152e-06,0
-2.9665e-05,3.3593e-05,-9.53589e-06,1.29145e-05,1.91103e-05,-1.17028e-05,3.21471e-06,-7.17663e-06,0
-3.17987e-05,3.18181e-05,-4.54314e-05,-1.12959e-05,1.62129e-05,-1.53198e-05,5.21121e-06,-4.72796e-06,0
-3.41896e-05,2.93585e-05,-7.33113e-05,-2.35304e-05,1.73569e-05,-1.77088e-05,8.6773e-06,8.28304e-08,0
-3.54708e-05,2.27379e-05,-8.50095e-05,-1.9602e-05,2.14437e-05,-1.73589e-05,1.32293e-05,4.26023e-06,0
-3.47064e-05,1.14422e-05,-7.91082e-05,-1.12991e-05,2.52325e-05,-1.5031e-05,1.82873e-05,4.65467e-06,0
-3.21531e-05,-1.60304e-06,-6.10626e-05,-8.61943e-06,2.72325e-05,-1.35856e-05,2.18851e-05,1.91621e-06,0
-3.01134e-05,-1.15274e-05,-4.13655e-05,-1.42609e-05,2.77841e-05,-1.41793e-05,2.30422e-05,-5.70329e-07,0
-2.91177e-05,-1.41972e-05,-2.84162e-05,-2.54081e-05,2.81391e-05,-1.57423e-05,2.16116e-05,-1.02155e-06,0
-2.79179e-05,-1.22186e-05,-2.0913e-05,-3.66634e-05,2.8782e-05,-1.77135e-05,1.90089e-05,-1.36942e-06,0
-2.73093e-05,-1.01784e-05,-1.32958e-05,-4.47371e-05,2.86365e-05,-1.93662e-05,1.69394e-05,-2.46185e-06,0
-2.85231e-05,-8.00188e-06,-7.27199e-06,-4.91984e-05,2.74254e-05,-2.02781e-05,1.59918e-05,-3.2594e-06,0
-2.99302e-05,-2.81881e-06,-4.05485e-06,-5.05689e-05,2.55446e-05,-1.95086e-05,1.59826e-05,-2.31477e-06,0
-2.99887e-05,6.36222e-06,-1.47061e-06,-5.06318e-05,2.44375e-05,-1.85463e-05,1.69548e-05,-1.47409e-06,0
-2.76022e-05,1.83452e-05,6.99556e-07,-5.42934e-05,2.29202e-05,-1.96483e-05,2.05379e-05,-2.63684e-06,0
-2.52817e-05,2.79276e-05,1.22046e-06,-5.68449e-05,2.25463e-05,-2.02042e-05,3.01894e-05,-4.33932e-06,0
-2.65559e-05,3.32115e-05,3.14679e-06,-5.377e-05,2.50986e-05,-1.93148e-05,4.37964e-05,-5.01082e-06,0
-2.78732e-05,3.41462e-05,8.85459e-06,-4.54529e-05,2.62366e-05,-1.66392e-05,5.38313e-05,-4.77092e-06,0
-2.59025e-05,3.15862e-05,1.23975e-05,-2.96122e-05,2.64875e-05,-1.34721e-05,5.70827e-05,-3.51974e-06,0
-2.42065e-05,3.31264e-05,1.03435e-05,-1.02484e-05,2.53943e-05,-1.0785e-05,5.50002e-05,-1.19287e-06,0
-2.42651e-05,4.16769e-05,8.0235e-06,1.31745e-05,2.25907e-05,-9.37255e-06,4.92941e-05,-4.12674e-07,0
-2.50329e-05,5.17427e-05,8.31504e-06,4.03242e-05,2.0515e-05,-1.10678e-05,3.94528e-05,-9.77073e-07,0
-2.60763e-05,5.41503e-05,9.31313e-06,5.70428e-05,2.21124e-05,-1.24219e-05,2.64682e-05,-9.7448e-07,0
-2.6423e-05,4.81811e-05,8.88788e-06,5.19668e-05,2.1987e-05,-1.26086e-05,1.2593e-05,-5.51226e-07,0
-2.65393e-05,3.9734e-05,4.57253e-06,3.42942e-05,1.75998e-05,-1.16853e-05,-1.26076e-07,-1.60456e-07,0
-2.73997e-05,3.0673e-05,-2.50855e-06,1.6587e-05,1.46566e-05,-1.05191e-05,-1.0881e-05,-5.56972e-07,0
-2.97608e-05,1.74314e-05,-1.08894e-05,5.90625e-07,1.41202e-05,-9.19639e-06,-1.7089e-05,-1.95988e-06,0
-3.22938e-05,-1.65063e-07,-1.84808e-05,-1.57295e-05,1.42508e-05,-8.12612e-06,-1.81901e-05,-3.11533e-06,0
-3.40128e-05,-1.79229e-05,-2.24327e-05,-3.02534e-05,1.46417e-05,-6.86192e-06,-1.63369e-05,-4.12874e-06,0
-3.43711e-05,-3.14621e-05,-2.04243e-05,-3.75098e-05,1.56186e-05,-6.62443e-06,-1.28653e-05,-5.65553e-06,0
-3.33891e-05,-4.09055e-05,-1.47746e-05,-3.67654e-05,1.56006e-05,-9.13772e-06,-1.02322e-05,-7.2997e-06,0
-3.25905e-05,-5.03845e-05,-9.6328e-06,-2.94766e-05,1.51633e-05,-1.14648e-05,-1.01346e-05,-7.62377e-06,0
-3.3311e-05,-5.91137e-05,-6.78058e-06,-2.02705e-05,1.35932e-05,-1.23596e-05,-1.09085e-05,-5.9824e-06,0
-3.59571e-05,-5.80639e-05,-7.29274e-06,-1.35362e-05,1.17659e-05,-1.25442e-05,-1.12754e-05,-4.10784e-06,0
-3.83256e-05,-4.02258e-05,-1.09906e-05,-1.19549e-05,1.03568e-05,-1.27016e-05,-1.20771e-05,-2.70001e-06,0
-3.83194e-05,-1.25583e-05,-1.35411e-05,-1.40714e-05,7.3237e-06,-1.28829e-05,-1.03133e-05,-2.83596e-07,0
-3.73908e-05,1.25254e-05,-1.20227e-05,-1.64834e-05,1.54601e-06,-1.33373e-05,-3.79947e-06,1.90461e-06,0
-3.77638e-05,2.79825e-05,-8.83999e-06,-1.42288e-05,-3.21467e-06,-1.42935e-05,2.41354e-06,2.84397e-06,0
-3.83753e-05,3.5154e-05,-5.80088e-06,-7.40419e-06,-2.97162e-06,-1.50481e-05,3.02779e-06,3.24608e-06,0
-3.65434e-05,3.68179e-05,-5.01392e-06,-3.0004e-06,2.83186e-07,-1.49379e-05,-5.24843e-07,3.82333e-06,0
-3.28998e-05,3.59706e-05,-7.13541e-06,-4.36242e-06,2.02786e-06,-1.41941e-05,-2.88093e-06,4.78522e-06,0
-3.13329e-05,3.64211e-05,-1.14389e-05,-4.57107e-06,3.23023e-06,-1.18146e-05,-2.69849e-06,5.89033e-06,0
-3.14306e-05,3.60724e-05,-1.54661e-05,-1.25783e-06,4.94753e-06,-1.0332e-05,-9.60193e-07,5.77043e-06,0
-3.12289e-05,3.26156e-05,-1.69403e-05,7.63442e-07,5.17878e-06,-8.19575e-06,2.56162e-06,4.10838e-06,0
-3.03724e-05,2.58802e-05,-1.51945e-05,2.53084e-06,4.23776e-06,-5.52719e-06,6.22501e-06,2.93003e-06,0
-2.92157e-05,1.80082e-05,-1.25177e-05,6.56463e-06,3.00881e-06,-5.43558e-06,9.37744e-06,2.27217e-06,0
-2.89264e-05,1.38986e-05,-1.18312e-05,9.24729e-06,1.64651e-06,-6.46154e-06,1.26444e-05,2.40195e-06,0
-2.93915e-05,1.59045e-05,-1.14497e-05,5.63274e-06,-3.31698e-07,-6.55031e-06,1.57853e-05,2.55292e-06,0
-2.98762e-05,2.37684e-05,-9.35111e-06,7.56318e-07,2.63817e-07,-4.26348e-06,1.90995e-05,1.06935e-06,0
-2.91682e-05,3.14462e-05,-8.3035e-06,-1.47441e-06,3.5413e-06,-2.13751e-06,2.21892e-05,-1.48893e-06,0
-2.82105e-05,3.42511e-05,-1.03813e-05,-3.96471e-06,6.57925e-06,-1.86246e-06,2.19681e-05,-3.10944e-06,0
-2.77793e-05,3.20403e-05,-1.31033e-05,-4.26715e-06,7.91363e-06,-2.99089e-06,1.89351e-05,-3.35117e-06,0
-2.74409e-05,2.608e-05,-1.45123e-05,-2.76066e-07,7.4121e-06,-4.59538e-06,1.61811e-05,-2.70008e-06,0
-2.66675e-05,1.84655e-05,-1.49376e-05,2.28649e-06,5.92712e-06,-6.31153e-06,1.68839e-05,-1.63645e-06,0
-2.6502e-05,1.41319e-05,-1.48034e-05,2.34024e-06,5.20339e-06,-7.42228e-06,1.94956e-05,-1.51694e-06,0
-2.8175e-05,1.70294e-05,-1.44649e-05,1.53593e-06,5.6051e-06,-8.04954e-06,1.94169e-05,-2.15253e-06,0
-3.02567e-05,2.38614e-05,-1.39205e-05,2.67114e-08,6.11246e-06,-9.39168e-06,1.76836e-05,-1.29955e-06,0
-3.14324e-05,2.74237e-05,-1.23882e-05,-2.78553e-06,6.25305e-06,-1.06148e-05,1.84122e-05,9.37246e-07,0
-3.14043e-05,2.40418e-05,-9.83444e-06,-6.45884e-06,7.08725e-06,-1.003e-05,1.98694e-05,2.30275e-06,0
-3.09009e-05,1.71535e-05,-7.29533e-06,-9.00325e-06,8.49439e-06,-8.98731e-06,1.50753e-05,2.25438e-06,0
-3.03244e-05,1.34051e-05,-6.07334e-06,-9.39284e-06,8.40812e-06,-8.42829e-06,2.96414e-06,1.84844e-06,0
-2.98409e-05,1.59153e-05,-6.76648e-06,-1.0496e-05,8.07555e-06,-7.85818e-06,-9.29497e-06,1.27882e-06,0
-2.87062e-05,1.87818e-05,-8.79536e-06,-1.50385e-05,9.86958e-06,-6.44588e-06,-1.24875e-05,-1.1201e-06,0
-2.67726e-05,1.97078e-05,-9.73872e-06,-2.06374e-05,1.38887e-05,-4.32714e-06,-5.30483e-06,-3.58543e-06,0
-2.58893e-05,2.05433e-05,-8.9704e-06,-2.59106e-05,1.71071e-05,-4.33021e-06,7.43019e-06,-2.79768e-06,0
-2.56024e-05,2.02417e-05,-8.33756e-06,-2.70243e-05,1.89596e-05,-6.14687e-06,1.98315e-05,-5.479e-07,0
-2.51854e-05,1.85043e-05,-8.23863e-06,-2.20494e-05,1.9421e-05,-7.48137e-06,2.85353e-05,5.04451e-07,0
-2.59105e-05,1.61971e-05,-7.6207e-06,-1.68569e-05,1.71322e-05,-7.31585e-06,3.24235e-05,1.09881e-06,0
-2.6244e-05,1.68352e-05,-6.40189e-06,-1.23021e-05,1.36309e-05,-4.67661e-06,3.60899e-05,1.64634e-06,0
-2.60012e-05,1.87019e-05,-5.53419e-06,-9.58608e-06,1.23067e-05,-1.18113e-06,4.20345e-05,1.30979e-06,0
-2.60382e-05,1.84082e-05,-4.54883e-06,-7.86234e-06,1.34221e-05,-4.27401e-07,4.78829e-05,1.59201e-06,0
-2.57538e-05,1.79014e-05,-4.01916e-06,-6.1445e-06,1.47503e-05,-1.68676e-06,5.10419e-05,3.82064e-06,0
-2.49631e-05,1.68081e-05,-3.86147e-06,-4.27031e-06,1.55686e-05,-1.75837e-06,4.94553e-05,5.80874e-06,0
-2.45871e-05,1.50373e-05,-2.69877e-06,3.01414e-06,1.51329e-05,-5.0048e-07,4.42348e-05,8.59927e-06,0
-2.59127e-05,1.29253e-05,-2.75294e-06,1.2469e-05,1.3515e-05,-7.7719e-07,3.71075e-05,1.11725e-05,0
-2.83238e-05,1.32127e-05,-3.68619e-06,2.31598e-05,1.1623e-05,-2.79686e-06,3.16833e-05,1.04964e-05,0
-3.00625e-05,1.53206e-05,-6.16933e-06,3.50892e-05,1.02909e-05,-4.4358e-06,2.66507e-05,1.00458e-05,0
-2.90688e-05,1.63921e-05,-8.60732e-06,4.40511e-05,8.96289e-06,-4.87628e-06,1.82393e-05,1.19368e-05,0
-2.66791e-05,1.6886e-05,-7.27639e-06,4.38568e-05,8.28098e-06,-5.54432e-06,6.1822e-06,1.2981e-05,0
-2.6066e-05,1.68027e-05,-2.75447e-06,3.43681e-05,9.0586e-06,-7.472e-06,-5.14941e-06,1.09055e-05,0
-2.747e-05,1.4918e-05,1.5949e-06,2.22186e-05,1.03528e-05,-9.70738e-06,-1.24771e-05,8.3229e-06,0
-2.80699e-05,1.21075e-05,1.93076e-06,9.78744e-06,1.06403e-05,-1.06373e-05,-1.50123e-05,7.50175e-06,0
-2.72506e-05,1.01073e-05,-2.53887e-06,-5.07814e-06,9.70335e-06,-9.31696e-06,-1.29186e-05,9.05891e-06,0
-2.62956e-05,9.93349e-06,-9.78199e-06,-2.04308e-05,8.81986e-06,-7.94697e-06,-6.87465e-06,1.09743e-05,0
-2.64678e-05,1.20928e-05,-1.53071e-05,-2.77565e-05,8.80924e-06,-8.0632e-06,-1.4911e-06,1.05538e-05,0
-2.85626e-05,1.37774e-05,-1.7515e-05,-2.30271e-05,9.33481e-06,-8.26282e-06,-2.38005e-06,8.79522e-06,0
-3.09436e-05,1.33637e-05,-1.81255e-05,-9.68607e-06,9.61594e-06,-6.97384e-06,-7.77434e-06,7.66001e-06,0
-3.13256e-05,1.14417e-05,-1.93137e-05,3.39929e-06,1.06222e-05,-5.41012e-06,-1.28266e-05,6.67023e-06,0
-3.00478e-05,8.89312e-06,-2.11571e-05,1.28806e-05,1.15271e-05,-5.58594e-06,-1.74732e-05,4.88239e-06,0
-2.91281e-05,3.92071e-06,-2.26964e-05,2.7942e-05,1.25227e-05,-6.36751e-06,-2.76189e-05,3.03256e-06,0
-3.12911e-05,-3.84315e-06,-2.32602e-05,5.0503e-05,1.40547e-05,-6.11625e-06,-3.74177e-05,1.75045e-06,0
-3.53283e-05,-1.2533e-05,-2.47813e-05,6.18369e-05,1.59523e-05,-5.49057e-06,-3.2263e-05,1.80345e-06,0
-3.73409e-05,-1.7137e-05,-2.58207e-05,4.78362e-05,1.7979e-05,-4.55414e-06,-1.21225e-05,3.05832e-06,0
-3.6635e-05,-1.2463e-05,-2.2337e-05,1.53858e-05,1.91468e-05,-3.82774e-06,1.08693e-05,3.58582e-06,0
-3.50675e-05,-1.21315e-06,-1.59076e-05,-1.46691e-05,2.07598e-05,-2.99727e-06,2.97427e-05,3.17876e-06,0
-3.45347e-05,9.18525e-06,-1.1203e-05,-2.94555e-05,2.38965e-05,-1.64066e-06,4.58359e-05,3.8788e-06,0
-3.40551e-05,1.51239e-05,-8.57286e-06,-3.29019e-05,2.74534e-05,-8.82545e-07,5.8845e-05,3.49206e-06,0
-3.57341e-05,1.80857e-05,-6.26596e-06,-3.53575e-05,2.85755e-05,-1.3313e-06,6.57451e-05,3.73708e-06,0
-3.76175e-05,1.78674e-05,-4.88606e-06,-4.24116e-05,2.82065e-05,-1.60846e-06,6.5667e-05,4.84981e-06,0
-3.67826e-05,1.69855e-05,-3.1599e-06,-5.29633e-05,3.06753e-05,-3.41241e-08,5.99255e-05,3.2542e-06,0
-3.4778e-05,1.97387e-05,1.04107e-08,-6.39105e-05,3.78369e-05,2.19866e-06,5.22956e-05,2.78974e-06,0
-3.25502e-05,2.23755e-05,3.19e-06,-7.14404e-05,4.82919e-05,4.43933e-06,4.34814e-05,3.34007e-06,0
-3.09338e-05,2.49442e-05,3.28568e-06,-7.21755e-05,5.64435e-05,5.50238e-06,3.56148e-05,2.70644e-06,0
-3.05122e-05,2.86667e-05,1.28334e-06,-6.90895e-05,5.90097e-05,5.10102e-06,3.11888e-05,1.73054e-06,0
-3.18767e-05,3.13726e-05,7.07972e-07,-6.81096e-05,5.74219e-05,4.60004e-06,2.92702e-05,1.70151e-06,0
-3.41287e-05,3.12172e-05,8.25992e-07,-6.67461e-05,5.37995e-05,4.25773e-06,2.64613e-05,1.34622e-06,0
-3.56295e-05,2.7796e-05,-3.52311e-08,-6.09577e-05,4.93478e-05,3.71863e-06,2.17932e-05,-5.03878e-07,0
-3.4351e-05,2.37436e-05,-3.93155e-06,-4.76496e-05,4.38593e-05,2.41437e-06,1.91836e-05,-2.51792e-06,0
-3.21174e-05,2.18907e-05,-9.8353e-06,-2.99688e-05,3.90461e-05,9.51237e-07,1.90738e-05,-4.29753e-06,0
-3.24029e-05,2.18573e-05,-1.47305e-05,-1.55936e-05,3.58998e-05,1.80986e-07,1.82147e-05,-5.75272e-06,0
-3.55016e-05,2.19611e-05,-1.70634e-05,-3.79438e-06,3.4572e-05,-2.90615e-08,1.49718e-05,-5.81716e-06,0
-3.82531e-05,2.30167e-05,-1.66098e-05,9.89273e-06,3.35356e-05,-6.9129e-07,1.13746e-05,-4.15618e-06,0
-3.8752e-05,2.46159e-05,-1.38704e-05,1.73926e-05,3.01715e-05,-2.09083e-06,8.56831e-06,-2.6804e-06,0
-3.79208e-05,2.53432e-05,-8.67493e-06,6.5502e-06,2.30749e-05,-3.51122e-06,6.35333e-06,-4.10079e-06,0
-3.7435e-05,2.39271e-05,-3.03757e-06,-1.32351e-05,1.33223e-05,-4.08503e-06,4.13107e-06,-7.86743e-06,0
-3.68911e-05,2.1802e-05,1.06118e-07,-1.5168e-05,5.08916e-06,-4.84737e-06,2.05556e-06,-9.47005e-06,0
-3.56364e-05,1.8778e-05,-6.84463e-07,1.6396e-05,2.74763e-06,-6.61722e-06,-4.11035e-07,-8.35839e-06,0
-3.47535e-05,1.54315e-05,-2.70507e-06,7.30323e-05,5.28479e-06,-7.27915e-06,-2.22738e-06,-6.6351e-06,0
-3.45229e-05,1.46945e-05,-1.87354e-06,0.000123374,7.06741e-06,-5.89652e-06,-1.39703e-06,-5.42216e-06,0
-3.52555e-05,1.74385e-05,2.38735e-06,0.000139386,6.73958e-06,-4.24588e-06,1.3471e-07,-4.18197e-06,0
-3.51331e-05,1.91678e-05,5.62786e-06,0.000124583,6.86681e-06,-4.2129e-06,1.44753e-08,-4.00497e-06,0
-3.35513e-05,1.7026e-05,4.58357e-06,9.39708e-05,7.34213e-06,-5.08013e-06,-4.63796e-07,-5.53609e-06,0
-3.28682e-05,1.19183e-05,4.71623e-07,6.15119e-05,5.07374e-06,-7.21221e-06,-9.405e-07,-5.84534e-06,0
-3.3846e-05,7.01587e-06,-2.4902e-06,4.25238e-05,1.62942e-06,-8.09357e-06,-1.98702e-06,-5.20234e-06,0
-3.57292e-05,5.32774e-06,-3.3758e-06,2.74605e-05,6.89613e-07,-6.57485e-06,-4.31528e-06,-3.44754e-06,0
-3.62311e-05,3.98433e-06,-2.61309e-06,1.75076e-06,1.94777e-06,-5.35562e-06,-5.84853e-06,-1.33922e-06,0
-3.59722e-05,5.4396e-06,-5.86515e-07,-2.67839e-05,4.09507e-06,-5.27853e-06,-4.03807e-06,-2.14834e-06,0
-3.57326e-05,9.20949e-06,1.10097e-06,-5.24072e-05,7.31161e-06,-6.78203e-06,-1.6208e-06,-3.40712e-06,0
-3.46518e-05,1.13505e-05,3.18379e-06,-7.12594e-05,8.56859e-06,-8.01144e-06,-4.0953e-07,-3.16718e-06,0
-3.38215e-05,1.45698e-05,3.92847e-06,-7.96572e-05,6.85116e-06,-8.73753e-06,-2.61028e-07,-2.18778e-06,0
-3.37152e-05,1.71147e-05,2.26578e-06,-6.98318e-05,4.44148e-06,-8.03608e-06,-1.21602e-06,-7.62299e-07,0
-3.39726e-05,1.72531e-05,-7.34668e-07,-4.40426e-05,3.28438e-06,-7.2994e-06,-4.53636e-07,1.42814e-06,0
-3.36715e-05,1.56219e-05,-3.27408e-06,-1.77611e-05,3.83318e-06,-8.57617e-06,6.84141e-06,2.48747e-06,0
-3.39396e-05,1.52291e-05,-4.84648e-06,-3.05865e-07,4.43389e-06,-9.72359e-06,1.87378e-05,2.37487e-06,0
-3.29203e-05,1.82593e-05,-6.46716e-06,6.73697e-06,5.15806e-06,-9.15702e-06,2.98626e-05,3.10165e-06,0
-3.03494e-05,2.58407e-05,-7.75189e-06,5.60865e-06,7.19941e-06,-7.07694e-06,3.69264e-05,3.36325e-06,0
-2.9077e-05,3.66632e-05,-8.65677e-06,-3.36639e-06,9.24663e-06,-5.4524e-06,3.83955e-05,3.07087e-06,0
-3.0504e-05,4.50772e-05,-1.07366e-05,-1.89393e-05,8.22811e-06,-6.38674e-06,3.638e-05,2.30929e-06,0
-3.25796e-05,4.79557e-05,-1.35077e-05,-3.99939e-05,4.90354e-06,-1.00218e-05,3.48755e-05,5.57814e-07,0
-3.32082e-05,4.43725e-05,-1.54646e-05,-6.64664e-05,2.20973e-06,-1.41197e-05,3.41804e-05,-1.19055e-06,0
-3.39642e-05,3.59869e-05,-1.80183e-05,-9.27626e-05,1.15067e-06,-1.64895e-05,3.14249e-05,-1.83496e-06,0
-3.48934e-05,2.52758e-05,-2.29807e-05,-0.000103133,6.17252e-07,-1.59623e-05,2.56207e-05,-2.84682e-06,0
-3.4547e-05,1.43593e-05,-2.90146e-05,-8.88023e-05,1.10227e-06,-1.4309e-05,1.87749e-05,-4.9347e-06,0
-3.29176e-05,4.56071e-06,-3.27889e-05,-4.99692e-05,2.8834e-06,-1.43193e-05,1.28031e-05,-7.02199e-06,0
-3.13065e-05,-1.97085e-06,-3.19871e-05,9.48976e-06,6.67934e-06,-1.44983e-05,8.45816e-06,-6.47463e-06,0
-3.04992e-05,-7.89483e-06,-2.70058e-05,7.49342e-05,1.37091e-05,-1.2946e-05,5.27577e-06,-3.32172e-06,0
-3.07784e-05,-9.55564e-06,-2.04225e-05,0.000121243,2.26808e-05,-1.00703e-05,1.50095e-06,-1.51616e-06,0
-3.08279e-05,-4.52579e-06,-1.37683e-05,0.000134817,3.22091e-05,-7.60137e-06,-2.43224e-06,-1.96633e-06,0
-2.89939e-05,-4.36262e-06,-5.71338e-06,0.000123316,4.10399e-05,-7.50586e-06,-3.93345e-06,-2.05829e-06,0
-2.55753e-05,-1.1039e-05,3.085e-06,9.80121e-05,4.52789e-05,-7.87243e-06,-3.53106e-06,-1.29044e-06,0
-2.48862e-05,-1.35128e-05,1.18608e-05,6.7276e-05,4.12717e-05,-8.42136e-06,-3.77992e-06,-9.55586e-07,0
-2.52554e-05,-1.12309e-05,2.54256e-05,3.41637e-05,3.17906e-05,-9.79293e-06,-4.42182e-06,-1.04812e-06,0
-2.44888e-05,-1.03357e-05,4.39639e-05,4.1141e-06,2.35383e-05,-1.23644e-05,-3.7187e-06,-1.58877e-06,0
-2.43147e-05,-1.0469e-05,6.17221e-05,-1.54063e-05,1.96524e-05,-1.39326e-05,6.06079e-08,-3.11702e-06,0
-2.52418e-05,-1.12767e-05,6.98941e-05,-3.46234e-05,1.77911e-05,-1.29163e-05,4.24877e-06,-4.06094e-06,0
-2.61119e-05,-1.24939e-05,6.21393e-05,-7.58046e-05,1.26025e-05,-1.20391e-05,5.79663e-06,-3.74974e-06,0
-2.54206e-05,-1.2772e-05,3.79495e-05,-0.000134161,4.78196e-06,-1.24107e-05,5.54962e-06,-3.70132e-06,0
-2.4791e-05,-1.19528e-05,1.67094e-06,-0.000175349,-1.04987e-06,-1.41867e-05,4.37218e-06,-4.47154e-06,0
-2.5039e-05,-1.12112e-05,-3.68512e-05,-0.000182484,-4.39168e-06,-1.51394e-05,3.93197e-06,-4.89841e-06,0
-2.55447e-05,-1.03757e-05,-6.85013e-05,-0.000153682,-6.60276e-06,-1.55266e-05,4.82577e-06,-4.14845e-06,0
-2.55038e-05,-8.83701e-06,-8.66583e-05,-9.1556e-05,-8.23331e-06,-1.67705e-05,5.47648e-06,-2.2257e-06,0
-2.48992e-05,-5.12463e-06,-8.90648e-05,-1.13873e-05,-9.0348e-06,-1.80249e-05,6.19247e-06,-1.94986e-07,0
-2.38331e-05,3.87206e-07,-7.8017e-05,5.8322e-05,-7.54641e-06,-1.78722e-05,8.92573e-06,8.97615e-07,0
-2.31846e-05,4.22437e-06,-6.29037e-05,9.22776e-05,-1.81567e-06,-1.67679e-05,1.30386e-05,2.18355e-06,0
-2.33881e-05,6.67608e-06,-5.14007e-05,8.80068e-05,6.01041e-06,-1.60995e-05,1.67183e-05,3.25684e-06,0
-2.44368e-05,1.18527e-05,-4.38154e-05,6.52416e-05,1.12949e-05,-1.61262e-05,1.80552e-05,3.22298e-06,0
-2.58516e-05,1.88621e-05,-3.60242e-05,4.84065e-05,1.14806e-05,-1.59014e-05,1.7972e-05,2.33943e-06,0
-2.62617e-05,2.22138e-05,-2.59821e-05,4.19993e-05,8.77424e-06,-1.55805e-05,1.91741e-05,1.68447e-06,0
-2.56583e-05,2.10798e-05,-1.56496e-05,3.6867e-05,6.82852e-06,-1.55963e-05,2.09611e-05,1.29084e-06,0
-2.57303e-05,2.10644e-05,-7.4228e-06,2.20097e-05,6.55079e-06,-1.55035e-05,2.10198e-05,1.62834e-06,0
-2.59785e-05,2.69845e-05,-2.87743e-06,4.42004e-07,6.14947e-06,-1.61487e-05,1.9391e-05,2.34699e-06,0
-2.71116e-05,3.32081e-05,-1.33776e-06,-1.42073e-05,4.20167e-06,-1.78357e-05,1.76551e-05,2.52451e-06,0
-2.96629e-05,3.28342e-05,-9.01045e-07,-1.78744e-05,1.75782e-06,-1.86295e-05,1.69668e-05,2.65593e-06,0
-2.9764e-05,2.95125e-05,-3.41755e-07,-1.90641e-05,1.24673e-06,-1.78132e-05,1.73411e-05,3.59408e-06,0
-2.69807e-05,2.40529e-05,-2.31552e-06,-1.96039e-05,2.35185e-06,-1.76976e-05,1.79502e-05,4.47525e-06,0
-2.58556e-05,1.38329e-05,-6.40167e-06,-1.6688e-05,2.49834e-06,-1.87599e-05,1.72281e-05,5.46652e-06,0
-2.86031e-05,2.01742e-06,-8.49681e-06,-1.44505e-05,1.96336e-06,-1.88562e-05,1.56402e-05,5.48869e-06,0
-3.09691e-05,-5.50631e-06,-7.5259e-06,-1.34971e-05,3.7581e-06,-1.67468e-05,1.46594e-05,3.66318e-06,0
-3.0541e-05,-5.09076e-06,-6.7953e-06,-1.08405e-05,7.00575e-06,-1.6155e-05,1.36708e-05,3.72044e-06,0
-2.84772e-05,-1.39635e-06,-5.36857e-06,-9.48454e-06,9.68695e-06,-1.71296e-05,1.2739e-05,4.19776e-06,0
-2.6484e-05,-1.09507e-06,-3.49774e-06,-1.22709e-05,1.19062e-05,-1.60207e-05,1.38163e-05,3.80414e-06,0
-2.67412e-05,-5.61494e-06,-3.63587e-06,-1.5627e-05,1.42927e-05,-1.33606e-05,1.95797e-05,2.45622e-06,0
-2.71012e-05,-1.03931e-05,-3.48844e-06,-1.57879e-05,1.53784e-05,-1.23771e-05,2.54418e-05,1.69142e-06,0
-2.67566e-05,-8.57916e-06,1.14959e-06,-1.18776e-05,1.39395e-05,-1.30036e-05,2.54873e-05,1.56513e-06,0
-2.72975e-05,1.10132e-06,1.0774e-05,-6.23477e-06,1.26522e-05,-1.36321e-05,2.01733e-05,1.22962e-06,0
-2.91757e-05,1.2504e-05,2.23791e-05,-4.6289e-06,1.23192e-05,-1.5254e-05,1.63652e-05,1.90441e-06,0
-3.07225e-05,2.03347e-05,3.31999e-05,-9.5873e-06,1.14985e-05,-1.73616e-05,1.69844e-05,2.20376e-06,0
-3.03464e-05,2.44398e-05,3.73255e-05,-1.47631e-05,9.21676e-06,-1.80695e-05,1.71274e-05,2.57506e-06,0
-2.95237e-05,2.53621e-05,2.91982e-05,-1.22028e-05,7.29137e-06,-1.7087e-05,1.57555e-05,3.31887e-06,0
-2.9657e-05,2.4809e-05,9.75516e-06,1.17402e-06,6.89589e-06,-1.58035e-05,1.77141e-05,4.87473e-06,0
-3.0804e-05,2.49627e-05,-1.30847e-05,1.94941e-05,8.22847e-06,-1.50384e-05,2.57327e-05,6.31786e-06,0
-3.09122e-05,2.62011e-05,-3.11279e-05,3.32166e-05,9.65124e-06,-1.56735e-05,3.84491e-05,7.43743e-06,0
-3.00759e-05,2.76598e-05,-3.9491e-05,3.49594e-05,1.00285e-05,-1.68729e-05,5.41684e-05,7.17315e-06,0
-2.96068e-05,2.88561e-05,-3.89676e-05,2.46928e-05,1.11264e-05,-1.70694e-05,6.75254e-05,5.8622e-06,0
-3.02921e-05,2.92819e-05,-3.3955e-05,9.52181e-06,1.41808e-05,-1.6829e-05,7.31724e-05,4.12197e-06,0
-3.09122e-05,2.81717e-05,-2.87417e-05,-2.69795e-06,1.79441e-05,-1.59895e-05,6.95088e-05,2.98063e-06,0
-2.98088e-05,2.53275e-05,-2.45811e-05,-1.18106e-05,2.04767e-05,-1.40211e-05,5.79544e-05,3.64426e-06,0
-2.83802e-05,2.37702e-05,-1.98584e-05,-2.06187e-05,2.01178e-05,-1.13463e-05,3.94154e-05,4.01979e-06,0
-2.79782e-05,2.426e-05,-1.33268e-05,-2.64007e-05,1.66926e-05,-8.79393e-06,1.47811e-05,3.67515e-06,0
-2.79294e-05,2.6009e-05,-6.09001e-06,-2.65804e-05,1.3418e-05,-7.59207e-06,-1.24136e-05,3.54681e-06,0
-2.80743e-05,3.27736e-05,9.11632e-08,-2.34853e-05,1.26917e-05,-7.2348e-06,-3.54848e-05,3.63518e-06,0
-2.91947e-05,4.33106e-05,4.5016e-06,-1.79327e-05,1.32942e-05,-7.54839e-06,-4.99081e-05,3.31234e-06,0
-3.08522e-05,4.98759e-05,6.05274e-06,-8.89164e-06,1.35322e-05,-8.15881e-06,-5.5196e-05,3.8364e-06,0
-3.1761e-05,4.64538e-05,1.79881e-06,1.12344e-06,1.3918e-05,-7.5887e-06,-5.00518e-05,3.74794e-06,0
-3.14312e-05,3.4968e-05,-8.35126e-06,6.19036e-06,1.60511e-05,-5.38642e-06,-3.78762e-05,3.64366e-06,0
-3.12371e-05,2.04775e-05,-1.98759e-05,2.2954e-06,1.89929e-05,-5.8444e-06,-2.39705e-05,4.87519e-06,0
-2.91546e-05,4.47597e-06,-2.81436e-05,-7.14185e-06,1.9729e-05,-8.29044e-06,-1.10389e-05,6.44461e-06,0
-2.52535e-05,-9.99973e-06,-2.81658e-05,-1.57992e-05,1.77086e-05,-8.77267e-06,-1.20232e-06,6.65502e-06,0
-2.28526e-05,-1.77232e-05,-2.08762e-05,-1.86528e-05,1.47149e-05,-7.82947e-06,5.10149e-06,6.70024e-06,0
-2.26946e-05,-2.03612e-05,-1.15565e-05,-1.66971e-05,1.34435e-05,-7.03861e-06,7.63743e-06,6.54529e-06,0
-2.49082e-05,-2.31012e-05,-4.59981e-06,-9.85859e-06,1.35521e-05,-6.74427e-06,9.2887e-06,3.85963e-06,0
-2.78668e-05,-2.63923e-05,-1.8221e-06,1.96488e-07,1.6217e-05,-4.12912e-06,1.0558e-05,1.61917e-06,0
-2.9639e-05,-2.92203e-05,-1.81916e-06,7.94861e-06,1.74856e-05,-2.61585e-06,1.06123e-05,1.84358e-06,0
-2.96984e-05,-3.04254e-05,-1.75577e-06,8.65425e-06,1.42111e-05,-3.85142e-06,9.73139e-06,3.14837e-06,0
-2.95995e-05,-2.8244e-05,-7.61211e-07,5.85494e-07,9.17292e-06,-6.18639e-06,9.57527e-06,4.19925e-06,0
-3.01258e-05,-2.10475e-05,-1.5672e-07,-1.15342e-05,4.75519e-06,-8.32582e-06,1.2432e-05,4.23005e-06,0
-3.00807e-05,-9.03831e-06,-1.45692e-06,-2.04795e-05,3.19004e-06,-9.86195e-06,1.62968e-05,4.06752e-06,0
-2.92046e-05,5.17174e-06,-3.86183e-06,-2.13371e-05,3.29163e-06,-1.00725e-05,1.86403e-05,5.15477e-06,0
-2.83818e-05,1.96918e-05,-5.2786e-06,-1.43055e-05,4.19166e-06,-8.9933e-06,1.96444e-05,6.62927e-06,0
-2.83527e-05,3.19387e-05,-5.79267e-06,-4.18113e-06,5.14899e-06,-8.47682e-06,2.1068e-05,6.67579e-06,0
-2.83791e-05,3.93577e-05,-6.55256e-06,1.93475e-06,6.07451e-06,-8.21221e-06,2.10282e-05,5.35517e-06,0
-2.84007e-05,4.48329e-05,-7.16017e-06,3.66854e-07,5.51744e-06,-8.69543e-06,1.70084e-05,4.69606e-06,0
-2.85726e-05,5.15986e-05,-5.03575e-06,-6.53195e-06,4.22744e-06,-1.0045e-05,9.38003e-06,4.41803e-06,0
-2.8972e-05,5.49238e-05,3.85821e-07,-1.58506e-05,3.47668e-06,-1.11298e-05,2.54051e-06,3.41385e-06,0
-3.01061e-05,5.03034e-05,8.11905e-06,-2.71244e-05,3.13904e-06,-1.10629e-05,8.30834e-08,2.53462e-06,0
-3.08342e-05,4.11486e-05,1.78953e-05,-3.65176e-05,2.63336e-06,-1.02221e-05,1.83293e-06,2.37692e-06,0
-2.98499e-05,3.0475e-05,2.87966e-05,-3.75678e-05,1.23041e-06,-8.48587e-06,3.65667e-06,1.65286e-06,0
-2.93174e-05,1.81372e-05,3.84321e-05,-2.07775e-05,1.97411e-07,-7.98309e-06,4.5376e-06,6.60886e-07,0
-2.99442e-05,4.86708e-06,4.58579e-05,1.72887e-05,4.88291e-07,-9.49658e-06,6.22065e-06,1.28684e-06,0
-3.07191e-05,-6.02717e-06,4.6565e-05,5.99467e-05,1.11794e-06,-1.15599e-05,8.28834e-06,1.39164e-06,0
-3.26544e-05,-1.46794e-05,3.67851e-05,7.75264e-05,1.62505e-06,-1.39548e-05,1.0419e-05,-2.00172e-06,0
-3.34926e-05,-2.10963e-05,1.62451e-05,5.66609e-05,1.72733e-06,-1.49103e-05,1.09646e-05,-3.33123e-06,0
-3.38169e-05,-2.25183e-05,-1.22991e-05,1.7848e-05,2.64677e-06,-1.47737e-05,9.96861e-06,-1.23831e-06,0
-3.5443e-05,-1.96115e-05,-3.67101e-05,-1.70614e-05,4.56287e-06,-1.6264e-05,8.78308e-06,-1.57021e-06,0
-3.60523e-05,-1.29175e-05,-5.07125e-05,-3.79283e-05,5.6081e-06,-1.82403e-05,8.16056e-06,-1.51447e-06,0
-3.62871e-05,-4.74305e-06,-5.68971e-05,-4.30502e-05,4.93935e-06,-1.94755e-05,9.7173e-06,-2.20086e-07,0
-3.54099e-05,1.83068e-06,-5.54824e-05,-4.2194e-05,3.01202e-06,-1.92023e-05,1.33513e-05,-5.68144e-07,0
-3.35675e-05,6.60069e-06,-5.0097e-05,-3.58264e-05,2.72329e-06,-1.73957e-05,1.6347e-05,-1.4814e-06,0
-3.34754e-05,9.71037e-06,-4.60443e-05,-2.6494e-05,3.45365e-06,-1.54803e-05,1.72584e-05,-2.26492e-06,0
-3.48474e-05,1.24093e-05,-4.40322e-05,-1.73852e-05,4.43411e-06,-1.45681e-05,1.60613e-05,-3.07273e-06,0
-3.66721e-05,1.67944e-05,-4.19172e-05,-1.41543e-06,6.26627e-06,-1.37429e-05,1.45578e-05,-3.38193e-06,0
-3.75913e-05,2.14641e-05,-3.69803e-05,2.32164e-05,1.027e-05,-1.29051e-05,1.48953e-05,-2.67484e-06,0
-3.6629e-05,2.42807e-05,-2.89632e-05,3.90941e-05,1.51838e-05,-1.23117e-05,1.75669e-05,-2.49183e-06,0
-3.41879e-05,2.50836e-05,-1.95793e-05,3.27628e-05,1.76612e-05,-1.12482e-05,1.96691e-05,-3.4183e-06,0
-3.24893e-05,2.52324e-05,-1.23814e-05,1.29732e-05,1.8021e-05,-9.66876e-06,1.9187e-05,-4.17925e-06,0
-3.2305e-05,2.54771e-05,-9.21079e-06,-4.2489e-06,1.93456e-05,-7.84576e-06,1.75251e-05,-3.90984e-06,0
-3.28657e-05,2.52653e-05,-7.4826e-06,-9.93852e-06,2.2024e-05,-6.49709e-06,1.60638e-05,-3.09267e-06,0
-3.31387e-05,2.43367e-05,-5.85896e-06,-6.16655e-06,2.41638e-05,-5.55163e-06,1.52751e-05,-2.2969e-06,0
-3.28652e-05,2.37376e-05,-6.21832e-06,2.03587e-06,2.5223e-05,-5.89569e-06,1.69756e-05,-1.65632e-06,0
-3.31414e-05,2.35509e-05,-8.22693e-06,7.09039e-06,2.36104e-05,-7.02936e-06,2.18437e-05,-1.70825e-06,0
-3.43972e-05,2.13628e-05,-8.01141e-06,4.87208e-06,1.8653e-05,-7.80938e-06,2.71535e-05,-2.52732e-06,0
-3.47765e-05,1.7153e-05,-3.81455e-06,-4.428e-06,1.21787e-05,-7.35093e-06,3.02412e-05,-3.34554e-06,0
-3.31403e-05,1.33605e-05,7.79354e-07,-1.68897e-05,7.39108e-06,-6.22526e-06,2.99916e-05,-2.54408e-06,0
-3.2357e-05,1.22395e-05,1.62243e-06,-2.81584e-05,6.40379e-06,-5.69166e-06,2.76882e-05,-7.51445e-08,0
-3.25848e-05,1.15465e-05,-2.69124e-06,-3.80329e-05,6.63052e-06,-6.76425e-06,2.35202e-05,1.48364e-06,0
-3.24664e-05,9.32928e-06,-7.92677e-06,-4.64708e-05,6.27127e-06,-7.48835e-06,1.73705e-05,1.10184e-06,0
-3.14461e-05,7.51113e-06,-8.17335e-06,-4.2836e-05,7.64745e-06,-5.96582e-06,1.15542e-05,-5.55079e-07,0
-2.92647e-05,7.69564e-06,-4.24067e-06,-2.72193e-05,7.12963e-06,-3.45036e-06,8.09612e-06,-1.20241e-06,0
-2.79302e-05,1.06731e-05,-1.80716e-06,-1.04226e-05,4.14377e-06,-1.65984e-06,8.37912e-06,1.64448e-06,0
-2.82333e-05,1.36108e-05,-2.1898e-06,2.04548e-06,3.986e-06,-1.87873e-07,1.06204e-05,3.51547e-06,0
-2.80701e-05,1.33865e-05,-1.67514e-06,1.24438e-05,7.13635e-06,5.74636e-07,1.24464e-05,1.61068e-06,0
-2.68241e-05,1.29486e-05,-2.78524e-07,1.82979e-05,1.04657e-05,-1.91701e-06,1.47116e-05,-9.45888e-07,0
-2.68024e-05,1.54317e-05,-6.19572e-07,1.72481e-05,1.14676e-05,-5.78738e-06,1.31617e-05,-1.59952e-06,0
-2.7537e-05,1.80363e-05,-3.48875e-06,1.34025e-05,1.00883e-05,-8.08845e-06,6.42846e-06,-1.65033e-06,0
-2.80787e-05,1.75174e-05,-6.46822e-06,6.32424e-06,8.15493e-06,-8.36898e-06,-3.51974e-06,-1.92989e-06,0
-2.91951e-05,1.42664e-05,-8.98507e-06,2.41068e-06,8.5201e-06,-8.1951e-06,-1.21373e-05,-7.23214e-07,0
-2.94562e-05,1.12848e-05,-1.12406e-05,2.40039e-06,1.08461e-05,-8.79385e-06,-1.36458e-05,1.59089e-06,0
-2.8655e-05,1.01597e-05,-1.36573e-05,5.57662e-06,1.30988e-05,-9.33844e-06,-1.12753e-05,4.04393e-06,0
-2.86859e-05,8.66815e-06,-1.52386e-05,8.20473e-06,1.38357e-05,-9.14437e-06,-1.08719e-05,5.27986e-06,0
-2.97485e-05,4.55888e-06,-1.49396e-05,5.76351e-06,1.27171e-05,-8.82348e-06,-1.53101e-05,5.69371e-06,0
-3.08695e-05,-7.96279e-07,-1.39126e-05,6.66465e-07,9.97905e-06,-8.86677e-06,-1.87267e-05,5.59196e-06,0
-3.20071e-05,-4.27428e-06,-1.24744e-05,1.79073e-06,8.83519e-06,-8.93061e-06,-1.42525e-05,5.20871e-06,0
-3.25895e-05,-5.82381e-06,-1.10357e-05,1.50307e-05,1.06014e-05,-9.52802e-06,-1.22119e-06,5.50413e-06,0
-3.23112e-05,-7.20162e-06,-9.3553e-06,3.20049e-05,1.29698e-05,-1.17106e-05,1.41701e-05,6.06791e-06,0
-3.13456e-05,-8.62581e-06,-7.79516e-06,3.89585e-05,1.51013e-05,-1.37409e-05,2.7893e-05,5.67196e-06,0
-2.92654e-05,-7.2029e-06,-6.45017e-06,3.21479e-05,1.81542e-05,-1.36345e-05,3.97317e-05,3.91557e-06,0
-2.79345e-05,-2.92706e-06,-6.16749e-06,2.15289e-05,2.55685e-05,-1.11573e-05,4.93942e-05,1.97518e-06,0
-2.89756e-05,-5.97595e-07,-6.67778e-06,1.40509e-05,3.70881e-05,-8.00373e-06,5.66357e-05,6.75413e-07,0
-2.94479e-05,-2.94272e-06,-7.36788e-06,5.13989e-06,4.71527e-05,-6.44479e-06,5.84887e-05,9.68189e-07,0
-2.87015e-05,-7.66443e-06,-7.72734e-06,-1.1021e-05,5.10279e-05,-4.6974e-06,5.16325e-05,2.02098e-06,0
-2.9479e-05,-1.09733e-05,-8.67875e-06,-2.84669e-05,4.89756e-05,-3.08472e-06,3.67079e-05,1.64527e-06,0
-3.13458e-05,-1.06578e-05,-1.06545e-05,-4.11606e-05,4.63572e-05,-4.75472e-06,2.08945e-05,1.56722e-06,0
-3.27445e-05,-5.62556e-06,-1.16113e-05,-5.53624e-05,4.50257e-05,-7.95811e-06,1.02425e-05,3.12087e-06,0
-3.39119e-05,2.28004e-06,-9.92698e-06,-7.40443e-05,4.03417e-05,-9.03232e-06,7.68454e-06,2.80272e-06,0
-3.39292e-05,8.83998e-06,-7.49999e-06,-8.76003e-05,3.28713e-05,-8.51941e-06,1.13304e-05,1.19769e-06,0
-3.22711e-05,1.24496e-05,-6.63381e-06,-8.73003e-05,2.66702e-05,-8.71703e-06,1.51542e-05,2.30272e-07,0
-3.01741e-05,2.07584e-05,-5.24129e-06,-7.4367e-05,2.17818e-05,-8.86545e-06,1.5802e-05,-1.27526e-06,0
-2.80547e-05,4.13071e-05,-2.98993e-06,-5.66941e-05,1.93296e-05,-7.56422e-06,1.34226e-05,-1.35293e-06,0
-2.86686e-05,6.72759e-05,-9.97522e-07,-3.54785e-05,1.96664e-05,-6.26617e-06,1.13431e-05,3.32806e-07,0
-3.0756e-05,8.41616e-05,-1.51619e-06,-1.24725e-05,1.84683e-05,-6.27623e-06,1.40262e-05,1.50396e-06,0
-3.11168e-05,8.61447e-05,-4.10575e-06,9.56898e-06,1.69936e-05,-5.53273e-06,1.88443e-05,1.56438e-06,0
-2.94188e-05,7.53434e-05,-4.49198e-06,2.78843e-05,1.69261e-05,-4.54e-06,2.29677e-05,2.84399e-07,0
-2.77289e-05,5.64006e-05,-3.45256e-06,3.79366e-05,1.64611e-05,-4.38194e-06,2.46516e-05,-1.57591e-06,0
-2.76981e-05,3.27011e-05,-2.56752e-06,4.03381e-05,1.60725e-05,-5.18009e-06,2.34943e-05,-2.36721e-06,0
-2.78145e-05,6.23246e-06,-1.28441e-06,3.81462e-05,1.78716e-05,-6.26993e-06,1.91304e-05,-1.74699e-06,0
-2.91283e-05,-1.81708e-05,1.53273e-07,3.26748e-05,1.90363e-05,-6.77369e-06,5.72173e-06,-1.61468e-09,0
-3.08944e-05,-3.37396e-05,8.53562e-07,2.51979e-05,1.67443e-05,-7.06177e-06,-1.5522e-05,9.37869e-07,0
-3.22877e-05,-3.61872e-05,8.25255e-07,2.15721e-05,1.43083e-05,-7.47085e-06,-3.19814e-05,2.61504e-07,0
-3.29264e-05,-2.75504e-05,-6.87857e-08,2.38892e-05,1.45697e-05,-7.58251e-06,-3.25114e-05,8.42631e-07,0
-3.21948e-05,-1.46091e-05,-2.31468e-06,2.89077e-05,1.62435e-05,-6.98706e-06,-1.78208e-05,3.22577e-06,0
-3.12155e-05,-6.62559e-06,-4.59169e-06,3.30239e-05,1.60302e-05,-7.39311e-06,2.72199e-06,3.91254e-06,0
-3.12165e-05,-5.3444e-06,-6.38686e-06,3.42475e-05,1.42343e-05,-8.40868e-06,2.01276e-05,3.29448e-06,0
-3.19899e-05,-4.37611e-06,-6.879e-06,3.19793e-05,1.31406e-05,-8.64145e-06,3.14812e-05,4.14167e-06,0
-3.30635e-05,1.47898e-06,-6.09456e-06,2.65162e-05,1.41164e-05,-7.93815e-06,3.71419e-05,5.51186e-06,0
-3.42536e-05,9.60351e-06,-5.01334e-06,1.62965e-05,1.54452e-05,-6.83383e-06,3.85964e-05,4.8156e-06,0
-3.38698e-05,1.44417e-05,-4.93811e-06,2.15947e-06,1.60094e-05,-5.51617e-06,3.6304e-05,3.11561e-06,0
-3.21999e-05,1.51223e-05,-6.96416e-06,-1.41563e-05,1.57916e-05,-5.05844e-06,3.17366e-05,3.18846e-06,0
-3.05396e-05,1.31908e-05,-8.97182e-06,-3.07783e-05,1.40825e-05,-5.10636e-06,2.76181e-05,2.42063e-06,0
-3.03154e-05,1.16951e-05,-8.94944e-06,-3.99283e-05,1.0599e-05,-4.69381e-06,2.49843e-05,-6.47384e-07,0
-3.11106e-05,1.1467e-05,-8.64192e-06,-3.50097e-05,7.61371e-06,-5.18804e-06,2.45162e-05,-4.02782e-06,0
-3.19038e-05,1.1228e-05,-9.98545e-06,-2.33521e-05,5.42377e-06,-7.59327e-06,2.59865e-05,-5.52806e-06,0
-3.32722e-05,1.22104e-05,-9.89386e-06,-7.96042e-06,5.56653e-06,-9.90996e-06,2.56615e-05,-5.68243e-06,0
-3.50915e-05,1.37799e-05,-5.62619e-06,1.14952e-05,8.75712e-06,-1.05907e-05,2.2461e-05,-4.01777e-06,0
-3.43324e-05,1.55132e-05,-2.90509e-06,1.94945e-05,1.10075e-05,-1.06758e-05,2.03358e-05,-2.06983e-06,0
-3.05988e-05,1.76061e-05,-4.29566e-06,1.32592e-05,1.06868e-05,-1.21131e-05,1.8542e-05,-1.58955e-06,0
-2.77292e-05,1.86049e-05,-6.33543e-06,5.66519e-06,9.3399e-06,-1.34722e-05,1.50555e-05,-8.7509e-07,0
-2.63293e-05,1.91669e-05,-8.22658e-06,2.47653e-06,8.03741e-06,-1.5104e-05,1.11095e-05,-2.08131e-07,0
-2.55706e-05,2.05952e-05,-8.26259e-06,1.35474e-06,5.95215e-06,-1.66167e-05,8.42818e-06,1.70045e-07,0
-2.41856e-05,2.25663e-05,-7.47086e-06,1.54743e-07,4.10524e-06,-1.62727e-05,7.89286e-06,-9.99322e-07,0
-2.38153e-05,2.23075e-05,-7.92316e-06,-3.18755e-06,3.39178e-06,-1.54051e-05,7.31326e-06,-1.83463e-06,0
-2.48862e-05,2.08385e-05,-8.58892e-06,-1.07604e-05,4.0153e-06,-1.30937e-05,5.55082e-06,-2.09146e-06,0
-2.5422e-05,2.0844e-05,-8.91804e-06,-2.01618e-05,5.5926e-06,-1.08015e-05,4.1475e-06,-2.2097e-06,0
-2.58422e-05,2.17313e-05,-9.12543e-06,-2.67387e-05,6.8981e-06,-9.1055e-06,3.78914e-06,-2.47455e-06,0
-2.65731e-05,2.23133e-05,-8.80491e-06,-3.09627e-05,5.91503e-06,-9.27965e-06,4.06786e-06,-1.984e-06,0
-2.70852e-05,2.26278e-05,-6.56361e-06,-3.51268e-05,2.7421e-06,-1.00431e-05,4.38815e-06,-2.33129e-07,0
-2.82517e-05,2.2764e-05,-3.6516e-06,-3.87167e-05,2.79797e-07,-1.00263e-05,4.20874e-06,8.48546e-07,0
-2.96829e-05,2.24177e-05,-2.5132e-06,-3.70964e-05,7.25e-07,-9.83303e-06,4.84756e-06,1.58873e-06,0
-2.89466e-05,2.10112e-05,-3.51961e-06,-2.56101e-05,3.2192e-06,-1.03004e-05,6.82875e-06,1.43573e-06,0
-2.72641e-05,1.81837e-05,-5.57993e-06,-8.08258e-06,4.92243e-06,-1.19377e-05,8.67363e-06,9.54628e-07,0
-2.69114e-05,1.60288e-05,-8.42163e-06,5.24564e-06,4.59373e-06,-1.35464e-05,9.63243e-06,7.90428e-07,0
-2.79465e-05,1.62001e-05,-1.10535e-05,8.41755e-06,4.8147e-06,-1.37052e-05,1.09274e-05,1.55455e-06,0
-2.89705e-05,1.6875e-05,-1.16971e-05,5.18132e-06,7.26846e-06,-1.2691e-05,1.32333e-05,2.97912e-06,0
-2.95975e-05,1.55508e-05,-1.05321e-05,4.24273e-07,1.07353e-05,-1.29912e-05,1.6423e-05,3.79555e-06,0
-2.93049e-05,1.45514e-05,-7.82832e-06,-4.20697e-06,1.31255e-05,-1.33588e-05,2.02316e-05,2.90384e-06,0
-2.94136e-05,1.6928e-05,-4.54546e-06,-6.10334e-06,1.35913e-05,-1.22078e-05,2.21273e-05,2.0986e-06,0
-3.0249e-05,1.86842e-05,-4.31774e-06,6.50134e-07,1.34997e-05,-1.02912e-05,2.12717e-05,1.95912e-06,0
-2.98052e-05,1.8156e-05,-7.04191e-06,1.14952e-05,1.10989e-05,-9.57562e-06,1.87818e-05,2.12519e-06,0
-2.87404e-05,1.85484e-05,-9.44563e-06,1.43587e-05,7.18188e-06,-9.56062e-06,1.71662e-05,3.12163e-06,0
-2.83944e-05,2.19812e-05,-1.03725e-05,7.85295e-06,8.55169e-06,-8.06902e-06,1.96817e-05,4.88441e-06,0
-2.76899e-05,3.14904e-05,-7.90339e-06,-1.93163e-06,1.3459e-05,-6.52294e-06,2.47579e-05,6.37901e-06,0
-2.6791e-05,4.32389e-05,-5.92607e-06,-1.37448e-05,1.52877e-05,-7.10682e-06,2.79201e-05,5.20115e-06,0
-2.66693e-05,5.24998e-05,-6.91989e-06,-2.89919e-05,1.60563e-05,-7.75106e-06,2.8376e-05,2.88331e-06,0
-2.78643e-05,5.82615e-05,-8.23666e-06,-4.35221e-05,1.77734e-05,-8.8496e-06,2.57557e-05,2.31801e-06,0
-3.0642e-05,5.80004e-05,-8.8509e-06,-4.9078e-05,1.95278e-05,-9.46082e-06,2.13608e-05,4.20565e-06,0
-3.13858e-05,4.99764e-05,-8.54888e-06,-4.36849e-05,1.90756e-05,-8.6767e-06,1.86952e-05,5.61446e-06,0
-2.85716e-05,3.47972e-05,-6.96294e-06,-3.2343e-05,1.59711e-05,-7.88363e-06,1.69146e-05,5.3511e-06,0
-2.65862e-05,1.62138e-05,-5.3272e-06,-2.15731e-05,1.44962e-05,-6.72922e-06,1.31857e-05,4.13735e-06,0
-2.64118e-05,-3.68194e-06,-6.36977e-06,-1.72158e-05,1.50463e-05,-6.55519e-06,6.83988e-06,3.46968e-06,0
-2.71642e-05,-1.99371e-05,-9.23484e-06,-1.7944e-05,1.40388e-05,-8.38055e-06,-4.07524e-06,2.53997e-06,0
-3.00547e-05,-2.49164e-05,-1.17741e-05,-1.89887e-05,1.29651e-05,-1.06738e-05,-1.62766e-05,9.34449e-07,0
-3.2504e-05,-1.83015e-05,-1.18117e-05,-1.89526e-05,1.35848e-05,-1.16409e-05,-2.09096e-05,1.81523e-07,0
-3.18716e-05,-7.0595e-06,-9.78781e-06,-2.08177e-05,1.44225e-05,-1.05613e-05,-1.46353e-05,-5.21274e-07,0
-2.95171e-05,3.43579e-06,-8.24965e-06,-2.63004e-05,1.44286e-05,-8.06055e-06,-3.55198e-06,4.8202e-07,0
-2.86281e-05,1.45213e-05,-9.29313e-06,-3.43105e-05,1.22797e-05,-7.35743e-06,4.64494e-06,2.69547e-06,0
-2.88329e-05,2.91684e-05,-1.24383e-05,-4.2563e-05,8.68577e-06,-8.57874e-06,9.05085e-06,4.09435e-06,0
-2.81833e-05,4.34404e-05,-1.57444e-05,-4.59213e-05,4.81308e-06,-9.31639e-06,1.35233e-05,4.19114e-06,0
-2.71878e-05,4.83705e-05,-1.84366e-05,-3.73522e-05,2.16713e-06,-9.59026e-06,1.91981e-05,3.8402e-06,0
-2.71205e-05,4.25426e-05,-2.11436e-05,-1.58901e-05,2.41749e-06,-1.05693e-05,2.18434e-05,4.7621e-06,0
-2.80732e-05,3.26071e-05,-2.26844e-05,8.24119e-06,4.45798e-06,-1.16127e-05,1.91138e-05,6.52579e-06,0
-3.06295e-05,2.41843e-05,-2.08963e-05,2.39832e-05,6.21301e-06,-1.14959e-05,1.26882e-05,6.99029e-06,0
-3.40281e-05,2.20987e-05,-1.64975e-05,3.07569e-05,8.53527e-06,-1.08401e-05,7.63862e-06,7.21159e-06,0
-3.61057e-05,3.44699e-05,-1.31896e-05,3.36256e-05,1.14492e-05,-1.23287e-05,6.47169e-06,7.58784e-06,0
-3.69816e-05,5.59296e-05,-1.42256e-05,3.3978e-05,1.25014e-05,-1.57995e-05,7.60714e-06,6.60458e-06,0
-3.64837e-05,6.67477e-05,-1.6558e-05,3.05462e-05,1.08705e-05,-1.80677e-05,7.83853e-06,5.47083e-06,0
-3.51845e-05,5.95719e-05,-1.59257e-05,2.32503e-05,7.36132e-06,-1.80328e-05,5.9919e-06,4.0992e-06,0
-3.43109e-05,4.12689e-05,-1.22147e-05,1.39247e-05,4.04143e-06,-1.66664e-05,4.52265e-06,2.03388e-06,0
-3.28709e-05,2.65693e-05,-9.92487e-06,6.45797e-06,5.02226e-06,-1.32527e-05,2.95515e-06,1.09892e-07,0
-3.13631e-05,2.11882e-05,-1.08369e-05,1.06026e-06,9.18755e-06,-1.10532e-05,2.24715e-06,-3.0962e-06,0
-3.05945e-05,1.95366e-05,-1.09446e-05,-9.42077e-06,1.23436e-05,-1.23002e-05,4.05907e-06,-6.15226e-06,0
-2.90221e-05,1.77754e-05,-8.87109e-06,-2.08025e-05,1.41108e-05,-1.37052e-05,4.53746e-06,-6.56817e-06,0
-2.84112e-05,8.54053e-06,-6.29122e-06,-2.0436e-05,1.36929e-05,-1.3858e-05,5.04627e-06,-5.0807e-06,0
-2.81009e-05,-1.24117e-05,-5.10723e-06,1.41437e-06,1.18555e-05,-1.31638e-05,1.21874e-05,-3.33925e-06,0
-2.72532e-05,-3.96307e-05,-6.19967e-06,4.91523e-05,1.14979e-05,-1.34418e-05,2.53305e-05,-2.95459e-06,0
-2.90927e-05,-5.87583e-05,-7.2468e-06,9.94981e-05,1.27862e-05,-1.32133e-05,3.63395e-05,-2.82066e-06,0
-3.2308e-05,-6.18072e-05,-6.34721e-06,0.000120248,1.28126e-05,-1.32466e-05,4.09201e-05,-2.8734e-06,0
-3.39491e-05,-5.15703e-05,-4.46633e-06,0.000104815,1.13335e-05,-1.38322e-05,3.76968e-05,-3.10244e-06,0
-3.42179e-05,-3.55307e-05,-3.26179e-06,7.11482e-05,1.17094e-05,-1.32369e-05,2.88434e-05,-2.80264e-06,0
-3.37383e-05,-2.0411e-05,-3.56209e-06,3.90587e-05,1.49287e-05,-1.18533e-05,1.82117e-05,-1.40643e-06,0
-3.13357e-05,-8.23456e-06,-5.32253e-06,1.44454e-05,1.88958e-05,-9.54047e-06,8.55626e-06,-5.77539e-07,0
-2.87859e-05,-7.92439e-07,-8.17202e-06,-4.84532e-06,2.18468e-05,-6.46458e-06,8.87233e-07,-1.33232e-06,0
-2.82124e-05,2.40538e-06,-1.09073e-05,-2.06203e-05,2.28509e-05,-4.21252e-06,-3.83389e-06,-3.20997e-06,0
-2.8957e-05,1.90238e-06,-1.2006e-05,-2.93568e-05,2.16888e-05,-4.244e-06,-8.57475e-07,-5.04624e-06,0
-3.03398e-05,-7.19133e-07,-1.09267e-05,-3.05242e-05,1.87505e-05,-5.18431e-06,1.21649e-05,-5.28331e-06,0
-3.18937e-05,-3.19875e-06,-8.74086e-06,-3.11416e-05,1.58396e-05,-5.89191e-06,3.09553e-05,-4.57729e-06,0
-3.30971e-05,-4.26891e-06,-7.12911e-06,-3.66816e-05,1.42506e-05,-6.28575e-06,4.52962e-05,-3.90311e-06,0
-3.31985e-05,-3.71938e-06,-7.37418e-06,-4.49268e-05,1.42968e-05,-6.19591e-06,5.0172e-05,-3.43381e-06,0
-3.249e-05,-1.88874e-06,-9.13011e-06,-5.31869e-05,1.61923e-05,-5.74211e-06,4.73683e-05,-2.96671e-06,0
-3.24171e-05,-1.78203e-06,-1.12471e-05,-5.82342e-05,1.89444e-05,-5.23457e-06,3.76196e-05,-3.36123e-06,0
-3.31285e-05,-3.64179e-06,-1.39775e-05,-6.07945e-05,2.02258e-05,-4.66336e-06,1.79872e-05,-3.83339e-06,0
-3.36922e-05,-4.95208e-06,-1.65662e-05,-7.08354e-05,1.96473e-05,-3.47081e-06,-8.46355e-06,-3.58711e-06,0
-3.41142e-05,-4.27298e-06,-1.75611e-05,-8.62846e-05,2.02555e-05,-2.21431e-06,-3.02301e-05,-2.2276e-06,0
-3.44894e-05,-1.15739e-06,-1.72268e-05,-8.40969e-05,2.25863e-05,-2.59612e-06,-3.91811e-05,8.70734e-08,0
-3.50548e-05,2.70074e-06,-1.58072e-05,-4.25821e-05,2.3571e-05,-5.36069e-06,-3.88302e-05,2.65045e-07,0
-3.4315e-05,6.21044e-06,-1.4265e-05,2.36987e-05,2.14668e-05,-9.17523e-06,-3.33951e-05,-2.18567e-06,0
-3.29015e-05,8.21893e-06,-1.25034e-05,8.08816e-05,1.87862e-05,-1.07716e-05,-2.49676e-05,-4.46738e-06,0
-3.12344e-05,9.77425e-06,-1.16535e-05,0.000104726,1.92343e-05,-1.1157e-05,-1.69784e-05,-4.77184e-06,0
-3.0056e-05,1.18971e-05,-1.19764e-05,9.49912e-05,2.1582e-05,-9.77585e-06,-1.09851e-05,-4.14909e-06,0
-3.09104e-05,1.31019e-05,-1.15163e-05,7.06324e-05,2.0801e-05,-6.68962e-06,-8.18594e-06,-5.05419e-06,0
-3.10449e-05,1.30034e-05,-1.04608e-05,3.86388e-05,1.65243e-05,-5.38159e-06,-8.15449e-06,-6.80176e-06,0
-2.95104e-05,1.36573e-05,-7.4656e-06,9.35173e-06,1.31456e-05,-6.4181e-06,-7.514e-06,-7.6679e-06,0
-2.78458e-05,1.49111e-05,-4.05482e-06,-9.99673e-06,1.19378e-05,-8.78825e-06,-3.9823e-06,-5.35789e-06,0
-2.61729e-05,1.6578e-05,-2.82657e-06,-2.11769e-05,1.17422e-05,-1.07605e-05,1.42796e-06,-2.36139e-06,0
-2.48439e-05,1.8266e-05,-3.55709e-06,-2.99633e-05,1.21023e-05,-1.11169e-05,3.77875e-06,-4.15882e-07,0
-2.56858e-05,1.95492e-05,-4.9524e-06,-4.09746e-05,1.20229e-05,-9.3765e-06,1.16572e-06,1.95092e-06,0
-2.71439e-05,1.99144e-05,-6.07933e-06,-5.17508e-05,1.0734e-05,-8.01451e-06,-2.21438e-06,3.55804e-06,0
-2.72649e-05,1.83644e-05,-6.13229e-06,-5.83867e-05,9.81149e-06,-7.56729e-06,-3.55705e-06,3.67784e-06,0
-2.63158e-05,1.50732e-05,-4.48571e-06,-5.81221e-05,1.07539e-05,-7.19847e-06,-2.9641e-06,3.26673e-06,0
-2.61668e-05,1.27165e-05,-2.19368e-06,-5.64047e-05,1.19724e-05,-6.46389e-06,-1.33878e-06,2.97498e-06,0
-2.75355e-05,1.2808e-05,-1.07644e-06,-5.79679e-05,1.0967e-05,-5.62939e-06,1.52846e-06,2.51534e-06,0
-2.84495e-05,1.35773e-05,-2.47948e-06,-6.16179e-05,7.63443e-06,-5.51519e-06,5.79219e-06,2.82592e-06,0
-2.79356e-05,1.47628e-05,-5.87825e-06,-6.05352e-05,3.51207e-06,-6.11961e-06,1.13748e-05,3.82127e-06,0
-2.72541e-05,1.55819e-05,-9.86024e-06,-5.07537e-05,1.43435e-07,-7.15774e-06,1.46933e-05,4.90555e-06,0
-2.72518e-05,1.46028e-05,-1.23388e-05,-3.26326e-05,-1.7219e-06,-8.28554e-06,1.43331e-05,4.99633e-06,0
-2.77675e-05,1.13113e-05,-1.17057e-05,-1.2398e-05,-2.77942e-06,-9.01996e-06,1.34712e-05,3.83621e-06,0
-2.79621e-05,8.64947e-06,-9.16549e-06,2.21694e-06,-2.71098e-06,-9.5386e-06,1.43786e-05,1.65452e-06,0
-2.71235e-05,8.33822e-06,-8.61305e-06,9.18271e-06,-1.16345e-06,-9.8873e-06,1.47428e-05,3.10869e-07,0
-2.73695e-05,8.61348e-06,-1.09989e-05,1.3775e-05,2.37565e-06,-9.47068e-06,1.26428e-05,1.17154e-06,0
-2.85606e-05,8.67333e-06,-1.46423e-05,1.81318e-05,7.13412e-06,-8.34425e-06,7.61587e-06,2.78932e-06,0
-3.02995e-05,8.77046e-06,-1.63709e-05,1.70894e-05,9.82576e-06,-7.23439e-06,3.02107e-06,3.80069e-06,0
-3.17071e-05,9.10717e-06,-1.41615e-05,9.25142e-06,1.05125e-05,-7.74878e-06,1.89521e-06,4.18103e-06,0
-3.16059e-05,9.32737e-06,-1.12057e-05,4.48898e-06,1.22035e-05,-1.03716e-05,3.78289e-06,4.73656e-06,0
-3.08884e-05,8.40205e-06,-8.49701e-06,8.50125e-06,1.66202e-05,-1.22428e-05,9.29018e-06,4.06032e-06,0
-3.12474e-05,5.71895e-06,-5.92331e-06,1.69754e-05,2.25576e-05,-1.16838e-05,1.60909e-05,1.54442e-06,0
-3.25237e-05,2.93118e-06,-2.68843e-06,2.30842e-05,2.61605e-05,-1.08669e-05,2.19026e-05,1.21315e-06,0
-3.20609e-05,2.51662e-06,9.53731e-07,2.46454e-05,2.6028e-05,-1.08294e-05,2.5265e-05,3.01517e-06,0
-3.03581e-05,2.63738e-06,5.83524e-06,2.39701e-05,2.31412e-05,-1.22383e-05,2.76886e-05,2.82008e-06,0
-2.96333e-05,2.67521e-06,1.75985e-05,2.02746e-05,1.9584e-05,-1.41311e-05,2.9981e-05,1.12039e-06,0
-3.08235e-05,3.18671e-06,3.59679e-05,1.56629e-05,1.75538e-05,-1.53059e-05,3.15152e-05,-2.93016e-07,0
-3.17896e-05,4.08542e-06,5.59243e-05,5.9125e-06,1.54574e-05,-1.42322e-05,3.26521e-05,-2.06489e-06,0
-3.19462e-05,6.63552e-06,6.87723e-05,-6.25833e-06,1.41938e-05,-1.21547e-05,3.3582e-05,-4.53753e-06,0
-3.24953e-05,1.07247e-05,6.75514e-05,-1.20301e-05,1.5459e-05,-1.04525e-05,3.43435e-05,-5.17164e-06,0
-3.28069e-05,1.40099e-05,4.97261e-05,-9.21116e-06,1.72088e-05,-9.21994e-06,3.5169e-05,-2.28083e-06,0
-3.1682e-05,1.51056e-05,1.89169e-05,-4.74578e-06,1.79734e-05,-8.51212e-06,3.67114e-05,2.91019e-07,0
-2.99022e-05,1.51071e-05,-1.70395e-05,-3.99708e-06,1.71607e-05,-6.34896e-06,3.8657e-05,-1.45363e-07,0
-3.01063e-05,1.60764e-05,-4.95327e-05,-3.63721e-06,1.4787e-05,-3.17704e-06,4.08106e-05,-1.38145e-06,0
-3.17563e-05,1.83642e-05,-7.06868e-05,-9.71754e-07,1.15543e-05,-1.39461e-06,4.21977e-05,-1.74323e-06,0
-3.26254e-05,2.16052e-05,-7.69306e-05,3.84465e-06,9.02719e-06,-2.01331e-06,4.19266e-05,-1.72081e-06,0
-3.24205e-05,2.91419e-05,-6.97927e-05,8.56188e-06,9.25464e-06,-2.85916e-06,3.93097e-05,-2.31803e-06,0
