ch1,ch2,ch3,ch4,ch5,ch6,ch7,ch8,class
3.16163e-05,0.000113165,4.81641e-05,1.70947e-05,1.57805e-05,-8.89945e-06,6.93292e-06,7.91079e-07,0
9.05855e-05,0.000131491,3.86168e-05,7.65184e-06,2.20613e-05,-7.32923e-06,3.28245e-06,2.45862e-06,0
0.000140493,0.000143207,2.9103e-05,-1.10376e-05,2.09912e-05,-6.0125e-06,1.77643e-06,4.78442e-06,0
0.000162877,0.000119313,1.86745e-05,-3.56565e-05,1.67567e-05,-5.80182e-06,-7.70066e-06,7.08786e-06,0
0.000159141,5.28644e-05,5.58387e-06,-4.73424e-05,1.46609e-05,-6.8227e-06,-2.90133e-05,9.61956e-06,0
0.000132879,-2.32442e-05,-9.16605e-06,-2.63834e-05,1.36893e-05,-8.25129e-06,-6.09897e-05,1.11437e-05,0
8.44596e-05,-7.68216e-05,-2.14961e-05,1.55872e-05,1.24587e-05,-8.6596e-06,-0.000110025,1.04631e-05,0
1.58533e-05,-0.000112729,-3.46676e-05,4.80654e-05,1.1766e-05,-8.54409e-06,-0.000193707,8.72058e-06,0
-6.28389e-05,-0.000132086,-5.23555e-05,6.00782e-05,1.13071e-05,-1.01368e-05,-0.000291448,8.38636e-06,0
-0.000134605,-0.000108971,-6.85866e-05,5.74489e-05,9.60318e-06,-1.29017e-05,-0.000302958,9.18903e-06,0
-0.000190706,-3.16609e-05,-7.56333e-05,4.45875e-05,5.44977e-06,-1.57669e-05,-0.000174262,8.82879e-06,0
-0.000226933,6.84549e-05,-6.30312e-05,3.89356e-05,3.59009e-07,-1.94689e-05,1.37459e-05,7.72279e-06,0
-0.000236984,0.000124306,-2.93631e-05,4.52006e-05,-2.22683e-06,-2.17211e-05,0.000159746,7.72122e-06,0
-0.00022625,0.000111514,8.70138e-07,3.53988e-05,1.94986e-06,-2.02311e-05,0.000223433,7.46836e-06,0
-0.000211652,0.000103052,1.03201e-06,6.44772e-07,9.63383e-06,-1.91096e-05,0.000221975,3.8688e-06,0
-0.000193305,0.0001427,-2.31087e-05,-3.28021e-05,1.10534e-05,-1.8297e-05,0.00019406,5.01534e-07,0
-0.000163909,0.000181351,-4.72371e-05,-4.84306e-05,5.09089e-06,-1.5593e-05,0.000168179,5.36664e-09,0
-0.000132812,0.000172672,-5.83649e-05,-5.68491e-05,1.17368e-06,-1.22944e-05,0.000139243,-8.07427e-07,0
-0.000111197,9.29864e-05,-5.25155e-05,-6.43451e-05,2.07399e-06,-1.04469e-05,0.00010352,-2.40439e-06,0
-9.14632e-05,-3.09694e-05,-3.73683e-05,-5.96787e-05,2.57046e-06,-1.07047e-05,7.18924e-05,-3.76536e-06,0
-5.91573e-05,-0.000133395,-1.60246e-05,-3.62276e-05,1.25865e-06,-1.06309e-05,5.73755e-05,-4.24037e-06,0
-2.16683e-05,-0.000183955,6.97445e-06,-4.74809e-06,1.37752e-06,-1.01579e-05,5.23786e-05,-3.01464e-06,0
2.2961e-06,-0.000194262,2.08968e-05,2.01005e-05,6.15703e-06,-9.92123e-06,4.31731e-05,-8.21111e-07,0
3.62248e-06,-0.000173873,1.78369e-05,4.1274e-05,1.38581e-05,-8.91897e-06,2.68868e-05,4.41128e-07,0
-1.37242e-05,-0.000133333,-2.88755e-06,6.66648e-05,2.15382e-05,-7.57483e-06,3.55111e-06,-5.09457e-08,0
-3.68877e-05,-8.94659e-05,-3.14933e-05,8.63367e-05,2.58078e-05,-6.55953e-06,-2.1169e-05,-1.85502e-06,0
-5.31139e-05,-5.73219e-05,-5.69638e-05,8.5322e-05,2.51551e-05,-5.80114e-06,-4.58974e-05,-2.78373e-06,0
-5.03537e-05,-5.26237e-05,-7.17522e-05,6.71592e-05,2.24004e-05,-4.74116e-06,-5.95643e-05,-1.36373e-06,0
-2.25225e-05,-5.72214e-05,-7.48059e-05,4.41659e-05,1.92457e-05,-3.63298e-06,-5.74808e-05,3.35237e-07,0
1.87874e-05,-3.65994e-05,-6.74838e-05,1.77602e-05,1.51004e-05,-2.14892e-06,-4.19206e-05,-1.22879e-06,0
4.29549e-05,2.05896e-05,-5.53213e-05,-1.28081e-05,1.07972e-05,4.723e-08,-2.42231e-05,-4.73034e-06,0
3.3029e-05,8.20583e-05,-4.09234e-05,-4.25117e-05,7.15063e-06,2.37714e-06,-5.4411e-06,-6.08845e-06,0
1.02456e-05,0.000107142,-2.57706e-05,-6.54725e-05,4.31535e-06,3.88825e-06,1.87453e-05,-4.59065e-06,0
7.94103e-06,9.13254e-05,-1.07435e-05,-8.19185e-05,3.3597e-06,5.03944e-06,4.59954e-05,-3.4418e-06,0
2.75808e-05,7.22339e-05,3.67667e-07,-9.2212e-05,4.43842e-06,6.37506e-06,6.63938e-05,-4.00385e-06,0
4.40721e-05,8.47993e-05,7.5187e-06,-9.27972e-05,7.94807e-06,5.92695e-06,7.99527e-05,-3.90151e-06,0
4.79187e-05,0.000113728,1.34147e-05,-8.01541e-05,1.21933e-05,2.20558e-06,9.44292e-05,-3.24213e-06,0
4.75185e-05,0.000108196,1.89759e-05,-5.51935e-05,1.29722e-05,-3.35642e-06,0.000104764,-3.83183e-06,0
4.39173e-05,7.09017e-05,2.41157e-05,-3.3902e-05,8.8436e-06,-9.95321e-06,0.000101022,-4.34436e-06,0
3.87963e-05,7.61411e-05,2.52637e-05,-3.44422e-05,5.79317e-06,-1.61333e-05,8.53894e-05,-4.22628e-06,0
4.29537e-05,0.000138946,1.9211e-05,-4.63832e-05,7.43873e-06,-1.97409e-05,6.54674e-05,-3.76693e-06,0
4.45751e-05,0.000171127,9.74859e-06,-4.14208e-05,1.05844e-05,-1.97689e-05,4.4242e-05,-1.91737e-06,0
2.16226e-05,0.000137178,3.40008e-06,-1.59432e-05,1.4386e-05,-1.68465e-05,2.01346e-05,2.49356e-07,0
-2.09617e-05,8.51251e-05,1.27297e-06,1.74597e-05,1.79459e-05,-1.28993e-05,-1.21256e-06,1.5403e-06,0
-6.30294e-05,4.18894e-05,2.75917e-06,6.78006e-05,2.08888e-05,-9.7472e-06,-1.12393e-05,3.91624e-06,0
-8.98914e-05,4.51078e-06,3.40344e-06,0.000106261,2.39421e-05,-8.3134e-06,-1.89876e-05,6.58879e-06,0
-0.000103326,-5.23181e-05,8.21942e-07,7.5727e-05,2.40228e-05,-8.5443e-06,-2.08544e-05,7.68288e-06,0
-0.000110961,-0.000140855,-2.92723e-06,1.45286e-06,2.12907e-05,-1.09347e-05,-1.95798e-05,7.91176e-06,0
-0.000112181,-0.000228811,-6.30851e-06,-4.58951e-05,1.84608e-05,-1.39094e-05,-3.73858e-05,7.57825e-06,0
-0.000104004,-0.000246097,-7.6253e-06,-5.19227e-05,1.47996e-05,-1.64706e-05,-7.85443e-05,6.92578e-06,0
-8.76831e-05,-0.000179382,-6.80404e-06,-3.90028e-05,1.14037e-05,-1.7036e-05,-0.000121397,4.96591e-06,0
-7.13645e-05,-9.60954e-05,-5.41776e-06,-2.5408e-05,8.09131e-06,-1.58664e-05,-0.000144327,1.6142e-06,0
-6.13861e-05,-4.92162e-05,-1.98907e-06,-2.89952e-05,4.50851e-06,-1.47955e-05,-0.000139866,-1.48974e-06,0
-5.66406e-05,-4.09439e-05,5.22913e-06,-5.5261e-05,2.26394e-06,-1.5364e-05,-0.000115471,-4.82543e-06,0
-5.37941e-05,-4.75238e-05,1.49974e-05,-8.0974e-05,2.4801e-06,-1.69117e-05,-8.53773e-05,-8.2313e-06,0
-4.8439e-05,-4.30324e-05,2.43656e-05,-6.95796e-05,4.23838e-06,-1.7344e-05,-6.5923e-05,-8.60482e-06,0
-3.48319e-05,-1.74235e-05,2.95791e-05,-1.18437e-05,6.02924e-06,-1.67923e-05,-6.1711e-05,-6.02092e-06,0
-1.38339e-05,1.32519e-05,2.60069e-05,6.37872e-05,7.29476e-06,-1.64603e-05,-5.8435e-05,-1.40495e-06,0
2.87987e-06,3.21801e-05,1.68938e-05,0.000113996,7.18449e-06,-1.71169e-05,-4.15511e-05,4.52266e-06,0
5.88345e-06,3.83484e-05,1.06451e-05,0.000114362,5.83064e-06,-1.70592e-05,-1.37832e-05,8.45473e-06,0
-2.64661e-06,3.95231e-05,9.98114e-06,7.53612e-05,4.63692e-06,-1.48506e-05,1.20003e-05,8.84297e-06,0
-1.84727e-05,4.26791e-05,9.0985e-06,2.54187e-05,6.3377e-06,-1.12049e-05,2.88502e-05,8.16222e-06,0
-3.83955e-05,4.83216e-05,-1.1342e-06,-1.22551e-05,9.87305e-06,-8.6864e-06,4.68423e-05,8.89063e-06,0
-5.52919e-05,4.82475e-05,-1.98402e-05,-2.12344e-05,1.1694e-05,-9.06802e-06,8.41838e-05,1.01894e-05,0
-5.79883e-05,4.34179e-05,-3.39512e-05,-7.62952e-06,9.01767e-06,-1.09929e-05,0.000129513,1.11019e-05,0
-4.55619e-05,4.45275e-05,-3.26596e-05,1.05301e-05,7.3259e-06,-1.10005e-05,0.0001552,1.2593e-05,0
-3.46652e-05,5.04068e-05,-1.9829e-05,4.51465e-05,1.45633e-05,-8.901e-06,0.000151032,1.27468e-05,0
-3.26663e-05,4.82237e-05,-4.7517e-06,9.94333e-05,2.3459e-05,-5.55865e-06,0.000113668,1.19097e-05,0
-3.38347e-05,3.38132e-05,3.59151e-06,0.000111465,2.49678e-05,-4.64707e-06,5.19632e-05,1.29795e-05,0
-3.26975e-05,1.21286e-05,1.81266e-06,8.289e-05,2.25196e-05,-6.83142e-06,-1.94643e-05,1.33058e-05,0
-2.7325e-05,-1.1044e-06,-5.96026e-06,5.22562e-05,2.13127e-05,-9.90557e-06,-8.83293e-05,1.20898e-05,0
-2.09658e-05,1.17773e-05,-9.92494e-06,3.52665e-05,1.92702e-05,-1.16106e-05,-0.000132708,1.06183e-05,0
-1.59468e-05,5.12745e-05,-4.1046e-06,5.85317e-05,1.63126e-05,-1.09942e-05,-0.00013685,8.46342e-06,0
-1.27339e-05,0.000113758,1.50494e-06,8.40256e-05,1.74807e-05,-9.68398e-06,-0.000108562,6.96564e-06,0
-1.07181e-05,0.0001827,2.7001e-06,6.14912e-05,2.49628e-05,-5.98045e-06,-7.07874e-05,6.61472e-06,0
-1.10012e-05,0.000217596,1.2143e-06,-1.98051e-05,3.32617e-05,-2.00604e-06,-3.73078e-05,6.45186e-06,0
-1.24817e-05,0.000187745,2.81144e-06,-8.79435e-05,3.42164e-05,4.76855e-07,-8.03754e-06,5.35471e-06,0
-1.15301e-05,0.000101219,1.09571e-05,-9.70025e-05,3.17278e-05,1.19175e-06,1.93894e-05,3.8869e-06,0
-7.17894e-06,-7.06665e-06,1.71653e-05,-7.80912e-05,3.16062e-05,9.91924e-07,3.93343e-05,3.10965e-06,0
-1.88095e-06,-9.46873e-05,8.31052e-06,-5.7046e-05,3.15647e-05,9.97035e-08,4.84199e-05,3.46416e-06,0
1.7281e-06,-0.000136667,-1.81883e-05,-2.85021e-05,3.06558e-05,-2.27905e-06,4.49918e-05,3.40895e-06,0
2.69973e-06,-0.000124898,-4.64128e-05,5.22855e-06,3.0562e-05,-4.39589e-06,2.2066e-05,2.12135e-06,0
5.52267e-07,-5.45335e-05,-5.76011e-05,2.24872e-05,3.01442e-05,-4.42364e-06,-1.78682e-05,1.47875e-06,0
-4.02377e-06,4.6787e-05,-4.65798e-05,2.94919e-05,2.52882e-05,-3.75854e-06,-4.9516e-05,1.15574e-06,0
-6.84188e-06,0.00011708,-2.51289e-05,3.38893e-05,1.8087e-05,-4.66307e-06,-4.27529e-05,-2.31485e-07,0
-2.24902e-06,0.000119917,-6.89079e-06,2.91904e-05,1.48796e-05,-6.07367e-06,6.96377e-06,-3.48029e-06,0
6.32788e-06,7.18875e-05,-6.60138e-07,1.92187e-06,1.63976e-05,-6.87008e-06,7.53665e-05,-6.05082e-06,0
8.21656e-06,7.37708e-06,-5.81072e-06,-3.64044e-05,1.67583e-05,-6.92539e-06,0.000130238,-6.4245e-06,0
-9.32022e-07,-3.99957e-05,-1.40908e-05,-6.35985e-05,1.26145e-05,-7.05796e-06,0.000156935,-4.48604e-06,0
-1.47425e-05,-6.1262e-05,-1.89746e-05,-6.86923e-05,6.96641e-06,-7.21571e-06,0.000158085,-1.44962e-06,0
-2.7846e-05,-8.06572e-05,-2.39145e-05,-6.37628e-05,1.68993e-06,-7.38181e-06,0.000142251,-8.57515e-08,0
-3.95459e-05,-8.83846e-05,-3.13737e-05,-4.81779e-05,-1.0517e-06,-8.52682e-06,0.00012132,-1.4529e-06,0
-5.14853e-05,-4.64034e-05,-3.62139e-05,-2.40237e-05,-8.86853e-07,-1.0209e-05,0.000102316,-3.66742e-06,0
-6.57234e-05,1.907e-05,-3.27386e-05,2.521e-06,2.44015e-07,-1.13078e-05,8.57328e-05,-3.125e-06,0
-7.97931e-05,5.70985e-05,-2.25888e-05,4.10728e-05,5.76086e-06,-1.13604e-05,6.77438e-05,-3.18167e-06,0
-8.60517e-05,5.19619e-05,-1.12227e-05,6.56143e-05,1.05126e-05,-1.10259e-05,5.16801e-05,-5.11207e-06,0
-8.0154e-05,1.11267e-05,-1.35426e-06,3.98751e-05,7.8305e-06,-1.03616e-05,2.96337e-05,-4.46411e-06,0
-6.33126e-05,-4.32457e-05,3.13179e-06,-1.71293e-05,2.42486e-06,-7.97444e-06,-2.61022e-05,-3.68333e-06,0
-4.26874e-05,-8.23945e-05,1.24761e-06,-6.42129e-05,4.684e-07,-6.85017e-06,-9.74283e-05,-5.50647e-06,0
-3.14109e-05,-7.74028e-05,-4.7575e-07,-8.15847e-05,1.23313e-06,-7.87598e-06,-0.000126,-8.5175e-06,0
-3.09289e-05,-3.67412e-05,-6.59464e-08,-8.16507e-05,7.30086e-07,-9.95629e-06,-9.17883e-05,-1.34632e-06,0
-3.19776e-05,1.10866e-05,1.57337e-06,-7.88047e-05,1.83371e-06,-1.23035e-05,-2.84573e-05,1.84613e-05,0
-2.74605e-05,4.5118e-05,5.18761e-06,-7.23868e-05,7.03212e-06,-1.25231e-05,2.3306e-05,3.25006e-05,0
-2.1395e-05,5.80485e-05,9.96006e-06,-6.62691e-05,1.32694e-05,-1.24151e-05,3.85711e-05,3.36364e-05,0
-2.32271e-05,5.52295e-05,1.47339e-05,-7.07217e-05,1.37859e-05,-1.41653e-05,6.26973e-06,2.58116e-05,0
-3.33803e-05,4.58136e-05,1.75597e-05,-8.81834e-05,1.04884e-05,-1.63926e-05,-7.67225e-05,9.77666e-06,0
-4.35459e-05,3.73062e-05,1.80794e-05,-0.000102276,6.30523e-06,-1.65684e-05,-0.000179164,-1.47655e-05,0
-4.77795e-05,3.4613e-05,1.73125e-05,-9.73871e-05,2.14189e-06,-1.53226e-05,-0.000221826,-3.95621e-05,0
-4.94555e-05,3.67168e-05,1.67007e-05,-7.02491e-05,1.00664e-06,-1.41796e-05,-0.000159188,-5.32634e-05,0
-4.76228e-05,2.93912e-05,1.30992e-05,-3.33626e-05,3.31226e-06,-1.39533e-05,-2.64944e-05,-5.40716e-05,0
-3.01561e-05,7.64943e-06,9.39047e-06,7.35798e-06,6.31818e-06,-1.43003e-05,0.000104726,-4.89352e-05,0
1.04074e-05,-1.09647e-05,1.2304e-05,4.92919e-05,6.6813e-06,-1.36838e-05,0.000191683,-4.30303e-05,0
6.2514e-05,-4.58867e-06,2.17535e-05,8.35751e-05,8.64279e-06,-1.0338e-05,0.000228762,-3.54004e-05,0
0.000106202,2.27996e-05,3.3419e-05,9.09294e-05,1.58742e-05,-4.91532e-06,0.000212655,-2.57178e-05,0
0.000122474,5.1191e-05,4.58193e-05,6.36056e-05,2.29831e-05,-2.18088e-06,0.000138903,-1.67414e-05,0
9.56056e-05,6.46771e-05,5.75221e-05,1.33021e-05,2.26769e-05,-4.90248e-06,5.3309e-05,-1.00512e-05,0
3.39592e-05,6.27136e-05,7.02843e-05,-3.85701e-05,1.93154e-05,-8.86737e-06,2.528e-05,-3.71836e-06,0
-3.05321e-05,5.82176e-05,8.20012e-05,-6.81899e-05,1.98605e-05,-8.43072e-06,5.40826e-05,2.06076e-06,0
-7.86094e-05,5.87146e-05,7.86975e-05,-5.05701e-05,2.36561e-05,-5.05326e-06,9.43635e-05,5.72565e-06,0
-0.000116747,5.03942e-05,4.8106e-05,4.27549e-06,2.55887e-05,-2.62773e-06,0.000120192,7.82075e-06,0
-0.000145537,2.57402e-05,-5.42579e-06,4.95151e-05,2.42636e-05,-1.53898e-06,0.00012692,9.58248e-06,0
-0.00015202,-3.4638e-06,-6.08289e-05,6.5885e-05,1.95589e-05,-2.84948e-06,0.000108622,9.03951e-06,0
-0.000137959,-1.71579e-05,-8.98538e-05,6.39835e-05,1.4896e-05,-6.62357e-06,7.33981e-05,4.53117e-06,0
-0.000114707,-6.46511e-06,-9.45776e-05,4.70724e-05,1.64146e-05,-9.57068e-06,3.69603e-05,-5.94357e-07,0
-8.85953e-05,1.75352e-05,-0.00010805,1.62827e-05,1.98121e-05,-9.73558e-06,-5.58773e-07,-2.06503e-06,0
-6.35029e-05,4.65534e-05,-0.00013635,-1.42582e-05,1.97817e-05,-8.41857e-06,-3.20167e-05,-3.86669e-07,0
-4.62855e-05,6.93962e-05,-0.000154971,-4.49801e-05,1.93412e-05,-7.65519e-06,-4.29575e-05,4.05686e-07,0
-4.06466e-05,7.72706e-05,-0.000143055,-8.66006e-05,1.90427e-05,-7.98571e-06,-3.19814e-05,-1.98122e-06,0
-4.16116e-05,7.23781e-05,-0.000114261,-0.00011768,1.52482e-05,-8.47367e-06,-1.27068e-05,-4.80356e-06,0
-4.15014e-05,7.06562e-05,-9.02644e-05,-0.00010451,9.96058e-06,-7.77341e-06,-2.06654e-08,-5.62595e-06,0
-3.73496e-05,7.28197e-05,-7.59985e-05,-5.55281e-05,5.8832e-06,-7.16599e-06,4.58344e-06,-5.81259e-06,0
-3.18275e-05,5.39174e-05,-6.29023e-05,-4.22333e-06,5.3371e-06,-7.51381e-06,7.92933e-06,-6.30102e-06,0
-2.80532e-05,-4.7372e-07,-4.87336e-05,3.13421e-05,8.82173e-06,-7.70657e-06,1.19784e-05,-7.0604e-06,0
-2.71655e-05,-6.84116e-05,-3.59372e-05,5.68692e-05,1.27553e-05,-7.65372e-06,1.37332e-05,-6.54328e-06,0
-2.62766e-05,-0.000102001,-2.35125e-05,7.58496e-05,1.57435e-05,-8.25802e-06,1.00641e-05,-4.40895e-06,0
-2.44727e-05,-7.87358e-05,-1.4153e-05,7.69508e-05,1.76498e-05,-9.6713e-06,2.24849e-06,-1.89598e-06,0
-2.1012e-05,-1.81162e-05,-9.51023e-06,5.97619e-05,1.68987e-05,-1.02781e-05,-6.18999e-06,8.43189e-07,0
-1.61364e-05,5.0693e-05,-9.07366e-06,3.48403e-05,1.18536e-05,-1.08098e-05,-1.62972e-05,3.98385e-06,0
-1.3913e-05,0.000102529,-6.71018e-06,8.99629e-07,4.97476e-06,-1.30464e-05,-3.0884e-05,6.4358e-06,0
-1.76935e-05,0.000126616,8.6452e-08,-4.09168e-05,1.62158e-06,-1.53177e-05,-4.46004e-05,6.94582e-06,0
-2.43731e-05,0.000142468,1.03351e-05,-7.17113e-05,3.35912e-06,-1.52932e-05,-4.75936e-05,5.59631e-06,0
-2.97682e-05,0.000160239,1.75117e-05,-7.64096e-05,7.30669e-06,-1.31823e-05,-3.56414e-05,3.08296e-06,0
-3.3948e-05,0.000155508,1.7961e-05,-6.30872e-05,1.0735e-05,-1.08714e-05,-1.44194e-05,1.36168e-06,0
-3.70589e-05,0.000106481,1.76067e-05,-3.64982e-05,1.19751e-05,-9.89692e-06,2.55803e-06,2.12186e-06,0
-3.89449e-05,3.899e-06,2.28645e-05,1.02008e-05,8.66974e-06,-1.0253e-05,8.09169e-06,4.52711e-06,0
-4.5024e-05,-0.000148589,2.50533e-05,5.87595e-05,2.92498e-06,-1.27728e-05,6.29627e-06,6.20384e-06,0
-5.67015e-05,-0.000274274,2.07233e-05,7.5039e-05,-6.26604e-07,-1.70319e-05,3.74049e-06,5.30331e-06,0
-6.21517e-05,-0.000276085,1.92358e-05,5.89553e-05,9.23709e-07,-1.89889e-05,4.53985e-06,3.18587e-06,0
-5.27503e-05,-0.000155663,2.45692e-05,1.85056e-05,8.12577e-06,-1.59421e-05,7.45493e-06,2.20413e-06,0
-3.5914e-05,-5.98892e-07,2.7859e-05,-2.27003e-05,1.57481e-05,-1.1846e-05,7.5418e-06,2.9539e-06,0
-2.34921e-05,0.000108977,2.16225e-05,-3.20867e-05,1.85566e-05,-1.17473e-05,4.70015e-06,4.22587e-06,0
-1.79025e-05,0.000138703,1.22011e-05,-2.30445e-05,1.74572e-05,-1.26448e-05,3.2794e-06,4.02768e-06,0
-1.63328e-05,8.88068e-05,8.06726e-06,-1.50347e-05,1.60783e-05,-1.05355e-05,3.22851e-06,3.66317e-06,0
-1.47278e-05,4.33288e-06,8.44471e-06,-1.58087e-05,1.67403e-05,-6.59326e-06,2.15456e-06,5.85738e-06,0
-1.22799e-05,-6.65302e-05,5.90532e-06,-2.00781e-05,1.5213e-05,-4.6733e-06,1.36127e-06,9.45726e-06,0
-9.67308e-06,-0.000109783,2.73177e-06,-2.07248e-05,8.52712e-06,-5.49665e-06,4.13173e-06,1.17792e-05,0
-1.09763e-05,-0.000142916,6.34582e-07,1.28608e-06,3.47182e-06,-7.83883e-06,8.42223e-06,1.21716e-05,0
-1.68201e-05,-0.000159923,-9.23526e-07,6.65043e-05,2.36949e-06,-1.01539e-05,1.06448e-05,1.1501e-05,0
-2.06687e-05,-0.000135799,-2.50943e-06,0.000130823,3.89241e-06,-1.10923e-05,1.07684e-05,1.09124e-05,0
-1.85261e-05,-8.14121e-05,-5.09671e-07,0.000145083,6.49629e-06,-9.45716e-06,9.37626e-06,9.5827e-06,0
-1.42822e-05,-3.94035e-05,7.27299e-06,0.000126974,7.45699e-06,-6.07651e-06,8.27256e-06,7.63411e-06,0
-1.39809e-05,-2.83697e-05,1.68728e-05,0.000104162,7.112e-06,-3.3898e-06,7.0293e-06,6.56138e-06,0
-1.76031e-05,-2.08673e-05,2.33417e-05,8.46733e-05,9.35097e-06,7.15936e-09,5.37617e-06,7.25211e-06,0
-2.20586e-05,1.06221e-05,2.29498e-05,7.80538e-05,1.64115e-05,5.08465e-06,5.03074e-06,8.66961e-06,0
-2.72307e-05,6.24596e-05,1.32231e-05,6.49868e-05,2.32633e-05,8.94608e-06,7.20252e-06,9.164e-06,0
-3.69856e-05,0.000104204,-1.97686e-06,-7.99326e-06,2.51063e-05,9.58003e-06,1.12353e-05,9.13557e-06,0
-4.96057e-05,0.000119655,-1.26613e-05,-0.000126202,2.17429e-05,8.3384e-06,1.41042e-05,9.74829e-06,0
-5.37973e-05,0.000113433,-1.74476e-05,-0.000194156,1.60135e-05,6.12798e-06,1.16301e-05,1.12845e-05,0
-4.02269e-05,0.000102281,-2.07711e-05,-0.000167178,1.18295e-05,4.25271e-06,1.83541e-06,1.15327e-05,0
-1.85451e-05,9.19977e-05,-2.72258e-05,-9.92018e-05,1.16452e-05,2.79745e-06,-1.04563e-05,9.82927e-06,0
-1.04781e-05,7.59091e-05,-4.19969e-05,-6.57094e-05,1.10617e-05,-9.92765e-08,-1.49547e-05,8.69776e-06,0
-2.18287e-05,5.52048e-05,-5.90456e-05,-7.3201e-05,8.13464e-06,-4.03879e-06,-6.61104e-06,9.3881e-06,0
-3.04994e-05,4.00083e-05,-5.65215e-05,-6.85898e-05,8.61272e-06,-7.16097e-06,6.5574e-06,1.00631e-05,0
-2.1462e-05,2.12497e-05,-3.33618e-05,-2.69647e-05,1.13331e-05,-9.53183e-06,1.46234e-05,8.70866e-06,0
-5.39546e-06,2.54214e-06,-9.55598e-06,1.94908e-05,1.00013e-05,-1.10926e-05,1.75739e-05,6.65365e-06,0
4.7601e-06,2.14983e-05,6.08959e-06,4.716e-05,4.5675e-06,-1.25932e-05,5.93965e-06,3.72325e-06,0
1.20154e-05,5.32136e-05,1.22126e-05,6.18585e-05,3.29583e-06,-1.46056e-05,-4.01051e-05,-2.62367e-07,0
2.56433e-05,4.72551e-05,1.37932e-05,6.87285e-05,1.23997e-05,-1.51199e-05,-9.3759e-05,-1.2474e-06,0
3.85077e-05,1.97195e-05,1.6694e-05,6.39763e-05,2.90834e-05,-1.14011e-05,-0.00010699,5.05226e-07,0
4.27395e-05,-3.09259e-06,1.83736e-05,4.49447e-05,3.8123e-05,-6.66971e-06,-7.66134e-05,1.86326e-06,0
3.93043e-05,-6.64034e-06,1.70766e-05,1.89027e-05,2.79367e-05,-5.26597e-06,-2.50685e-05,9.9405e-07,0
2.99561e-05,8.98147e-07,1.39553e-05,-1.63588e-05,1.24849e-05,-6.30259e-06,2.7111e-05,-1.10921e-06,0
1.33335e-05,1.07296e-05,9.17861e-06,-4.83067e-05,5.81951e-06,-9.31136e-06,6.79205e-05,-2.42249e-06,0
-1.11539e-05,3.79952e-05,2.36565e-06,-5.12809e-05,9.84785e-06,-1.27252e-05,9.16882e-05,-2.78547e-06,0
-4.03186e-05,6.41953e-05,-3.4843e-06,-2.78363e-05,1.62325e-05,-1.41554e-05,0.000100012,-2.48758e-06,0
-7.55524e-05,4.70014e-05,-6.45504e-06,-3.29717e-06,1.61602e-05,-1.40703e-05,9.85085e-05,-1.64867e-06,0
-0.000112119,-1.3784e-05,-6.40217e-06,1.76158e-06,9.37898e-06,-1.45945e-05,9.30008e-05,-2.24185e-08,0
-0.000135905,-6.38196e-05,-6.81602e-06,-1.19246e-05,1.19147e-06,-1.58827e-05,8.69187e-05,1.94256e-06,0
-0.000131521,-6.84474e-05,-1.39275e-05,-3.32475e-05,-2.58055e-06,-1.61958e-05,7.99335e-05,2.28837e-06,0
-9.91969e-05,-5.41758e-05,-2.72435e-05,-4.87992e-05,-2.57316e-06,-1.47616e-05,7.15619e-05,5.99025e-07,0
-5.56906e-05,-6.13264e-05,-3.4842e-05,-4.92672e-05,2.2901e-07,-1.24444e-05,6.26029e-05,-1.14979e-06,0
-1.35952e-05,-7.08268e-05,-2.63398e-05,-3.35786e-05,3.81816e-06,-9.63621e-06,5.47788e-05,-2.192e-06,0
1.89293e-05,-2.2281e-05,-9.20837e-06,-6.29894e-06,8.29763e-06,-7.90357e-06,4.87025e-05,-2.79082e-06,0
3.34151e-05,9.50766e-05,2.54585e-06,2.4163e-05,1.47358e-05,-9.44464e-06,4.50749e-05,-2.67954e-06,0
3.70854e-05,0.000212945,4.13398e-06,3.30606e-05,2.19588e-05,-1.32276e-05,4.31468e-05,-2.27415e-06,0
3.90472e-05,0.000268206,-1.45439e-06,-4.03971e-06,2.34864e-05,-1.56827e-05,4.27356e-05,-3.31039e-06,0
2.92439e-05,0.000246312,-9.24337e-06,-6.34908e-05,1.73943e-05,-1.61491e-05,4.59996e-05,-4.70497e-06,0
2.00794e-06,0.00015992,-1.38775e-05,-9.93278e-05,9.207e-06,-1.54668e-05,5.11541e-05,-4.75383e-06,0
-3.61685e-05,4.0724e-05,-1.52273e-05,-0.000104343,6.65689e-06,-1.42781e-05,4.71882e-05,-5.38818e-06,0
-7.85019e-05,-9.25799e-05,-1.58254e-05,-9.49679e-05,9.43628e-06,-1.47737e-05,2.62109e-05,-8.01534e-06,0
-0.000120313,-0.000206065,-1.75316e-05,-7.91726e-05,1.02984e-05,-1.81086e-05,-5.04064e-06,-8.68389e-06,0
-0.000150392,-0.000228509,-1.90457e-05,-6.01882e-05,8.26014e-06,-2.1875e-05,-3.42754e-05,-4.1495e-06,0
-0.000153896,-0.000143234,-1.55114e-05,-2.72596e-05,6.22371e-06,-2.2246e-05,-4.67158e-05,7.39063e-06,0
-0.000114343,-4.09886e-05,-9.01392e-06,1.58511e-05,9.35479e-06,-1.96789e-05,-2.82716e-05,1.89661e-05,0
-4.12669e-05,1.19344e-05,-4.55896e-06,4.64245e-05,1.51038e-05,-1.78283e-05,6.29493e-06,2.03959e-05,0
2.11194e-05,2.33145e-05,-4.41946e-07,5.69828e-05,1.88828e-05,-1.57632e-05,3.90834e-05,1.25859e-05,0
4.92561e-05,4.74627e-06,3.33212e-06,4.94922e-05,1.94869e-05,-1.38064e-05,6.71497e-05,1.85995e-06,0
4.80553e-05,-1.78302e-05,8.14813e-06,2.78352e-05,1.68183e-05,-1.29768e-05,7.30571e-05,-5.46288e-06,0
2.52233e-05,-2.60696e-05,1.29161e-05,-4.74516e-06,1.32677e-05,-1.0552e-05,4.71571e-05,-1.00797e-05,0
-1.24991e-05,-2.0919e-05,1.47474e-05,-2.85332e-05,9.70189e-06,-7.00596e-06,3.85966e-06,-1.25851e-05,0
-5.36043e-05,-2.00412e-05,1.45521e-05,-2.96896e-05,9.06901e-06,-4.05051e-06,-3.38641e-05,-1.21023e-05,0
-8.43139e-05,-1.10722e-05,1.51308e-05,-1.73535e-05,8.58707e-06,-3.17868e-06,-4.99941e-05,-9.99228e-06,0
-0.000103413,1.60756e-05,1.71777e-05,1.99125e-06,4.71568e-06,-4.92379e-06,-4.62477e-05,-7.54766e-06,0
-0.000117304,3.4067e-05,1.75155e-05,2.0429e-05,8.17847e-07,-9.52853e-06,-3.33984e-05,-5.63716e-06,0
-0.000123216,3.55001e-05,1.501e-05,1.97121e-05,-8.13247e-07,-1.30755e-05,-1.99087e-05,-4.16849e-06,0
-0.000106934,3.3942e-05,7.45208e-06,-6.16672e-06,5.72684e-07,-1.15853e-05,-1.33301e-05,-3.58661e-06,0
-6.48235e-05,3.8745e-05,-7.60792e-06,-3.17703e-05,3.43291e-06,-7.9249e-06,-1.94034e-05,-4.22951e-06,0
-1.39473e-05,4.36793e-05,-2.64763e-05,-3.04939e-05,5.38744e-06,-6.99322e-06,-6.32765e-05,-4.50472e-06,0
1.85816e-05,4.9055e-05,-3.69894e-05,-8.47012e-06,5.46726e-06,-8.26402e-06,-0.00015869,-3.392e-06,0
1.56891e-05,6.10031e-05,-3.23621e-05,1.40651e-05,6.86663e-06,-7.5825e-06,-0.000237839,-2.14768e-06,0
-1.63813e-05,9.19032e-05,-1.71607e-05,2.55699e-05,1.00174e-05,-5.74009e-06,-0.000214054,-1.29048e-06,0
-5.70743e-05,0.00013814,1.12961e-06,1.40209e-05,1.18819e-05,-5.22211e-06,-9.69275e-05,-3.24447e-07,0
-8.7638e-05,0.000176708,1.75271e-05,-2.0396e-05,1.02636e-05,-6.17023e-06,3.21619e-05,1.29974e-06,0
-9.9165e-05,0.000178185,2.65425e-05,-5.30549e-05,5.81607e-06,-7.40329e-06,0.000111934,2.65737e-06,0
-9.15645e-05,0.000137399,2.32515e-05,-5.005e-05,1.19074e-06,-7.62817e-06,0.000133993,2.16286e-06,0
-7.63453e-05,7.3059e-05,5.92881e-06,-1.26693e-05,-2.15431e-06,-8.10873e-06,0.000125356,8.14121e-08,0
-6.81259e-05,-6.10788e-06,-2.03671e-05,2.73281e-05,-1.04499e-06,-8.71726e-06,0.000109922,-1.66981e-06,0
-7.10286e-05,-9.77821e-05,-4.65465e-05,5.5118e-05,8.64124e-06,-6.33048e-06,9.39743e-05,-1.62644e-06,0
-6.71454e-05,-0.000158612,-6.72006e-05,7.41088e-05,2.47475e-05,-2.68265e-06,7.93963e-05,-6.76209e-07,0
-4.34775e-05,-0.000135363,-7.80735e-05,8.94421e-05,3.32781e-05,-1.26481e-06,6.98753e-05,-2.57546e-06,0
-1.45072e-05,-5.40764e-05,-7.18109e-05,0.000103235,3.02806e-05,-2.45205e-06,6.84486e-05,-3.90921e-06,0
1.42986e-06,-2.85842e-06,-5.48273e-05,0.000110875,2.92304e-05,-3.46292e-06,7.26978e-05,-1.72512e-06,0
-2.4233e-06,-2.52831e-05,-4.16717e-05,8.90803e-05,3.11495e-05,-5.33132e-06,7.50326e-05,3.75705e-07,0
-1.60866e-05,-7.98635e-05,-3.12786e-05,4.13014e-05,2.88093e-05,-8.90042e-06,8.69186e-05,1.20174e-06,0
-2.41875e-05,-0.000115354,-1.84391e-05,5.45702e-06,2.31178e-05,-9.86642e-06,0.00011255,2.00074e-06,0
-2.36108e-05,-0.000118649,-3.74354e-06,-4.06351e-06,1.83699e-05,-8.67523e-06,0.000119254,4.3803e-06,0
-1.35367e-05,-0.00010164,9.83505e-06,3.24014e-07,1.5526e-05,-8.69807e-06,8.58804e-05,6.3971e-06,0
5.80625e-06,-7.14319e-05,1.95158e-05,3.27348e-06,1.29614e-05,-1.2317e-05,4.09218e-05,6.61217e-06,0
2.78547e-05,-2.99034e-05,2.60384e-05,3.5058e-06,1.06855e-05,-1.70007e-05,2.21833e-05,5.23225e-06,0
4.51823e-05,2.92845e-05,3.61822e-05,6.9633e-06,1.17511e-05,-1.70715e-05,2.20815e-05,4.85654e-06,0
5.29973e-05,0.000100598,4.8526e-05,1.17973e-05,1.72252e-05,-1.36774e-05,5.83699e-06,6.5398e-06,0
4.85601e-05,0.000155316,5.08533e-05,7.21521e-06,2.199e-05,-1.16805e-05,-3.79048e-05,8.64208e-06,0
3.28259e-05,0.000170678,3.55131e-05,-2.20984e-07,2.42539e-05,-1.19974e-05,-8.0406e-05,9.36947e-06,0
1.16201e-05,0.000145149,7.57705e-06,7.06118e-06,2.53742e-05,-1.31133e-05,-9.29956e-05,9.38077e-06,0
-1.13542e-05,8.72618e-05,-2.38481e-05,2.73908e-05,2.46779e-05,-1.52953e-05,-7.80019e-05,1.00186e-05,0
-3.8891e-05,3.6127e-06,-5.39534e-05,3.71631e-05,2.0908e-05,-1.92925e-05,-5.64732e-05,1.01164e-05,0
-7.1789e-05,-8.52441e-05,-7.60046e-05,2.22993e-05,1.56086e-05,-2.34232e-05,-4.45871e-05,9.42574e-06,0
-9.70241e-05,-0.000140693,-8.35953e-05,-2.21743e-07,8.46431e-06,-2.60717e-05,-3.67876e-05,7.84703e-06,0
-9.93388e-05,-0.000142121,-7.90133e-05,-1.85227e-05,7.20792e-07,-2.75305e-05,-1.82744e-05,5.96114e-06,0
-7.84891e-05,-0.000107608,-6.88712e-05,-4.59157e-05,-2.96213e-06,-2.85151e-05,2.60218e-06,3.8279e-06,0
-5.04828e-05,-6.96332e-05,-5.76372e-05,-9.07454e-05,-1.72631e-06,-2.91463e-05,7.2188e-06,2.23157e-06,0
-3.11142e-05,-4.20994e-05,-4.61081e-05,-0.00013817,1.56958e-06,-2.9228e-05,2.39192e-06,-6.80546e-07,0
-2.33043e-05,-1.75189e-05,-3.14756e-05,-0.000182306,6.50997e-06,-2.8637e-05,1.05061e-07,-5.47742e-06,0
-2.01154e-05,9.30247e-06,-1.53075e-05,-0.000218115,1.091e-05,-2.57172e-05,-1.58288e-06,-9.71809e-06,0
-1.83792e-05,3.22164e-05,-1.81584e-06,-0.000213495,9.25537e-06,-1.99422e-05,-8.77937e-06,-1.20978e-05,0
-1.92689e-05,4.24092e-05,1.10986e-05,-0.000133913,3.25165e-06,-1.7297e-05,-4.43777e-05,-1.05985e-05,0
-2.63304e-05,4.03347e-05,2.77278e-05,1.36062e-05,1.51835e-06,-1.88138e-05,-9.99291e-05,-5.02338e-06,0
-4.19474e-05,3.27472e-05,4.23614e-05,0.000112977,6.74501e-06,-2.11973e-05,-9.56259e-05,-1.16871e-06,0
-5.71729e-05,2.17513e-05,4.92757e-05,9.58743e-05,1.19356e-05,-2.22979e-05,-1.11063e-05,-1.14902e-06,0
-6.17128e-05,1.07717e-05,5.15409e-05,3.10458e-05,1.43628e-05,-1.97034e-05,7.88133e-05,-1.40774e-06,0
-5.12669e-05,4.74464e-06,5.32962e-05,-1.50898e-05,1.41399e-05,-1.66238e-05,0.000111419,-2.26978e-06,0
-3.17292e-05,8.94863e-06,5.7748e-05,-1.51222e-06,1.25145e-05,-1.51787e-05,8.1234e-05,-2.2241e-06,0
-1.60317e-05,2.14293e-05,6.17496e-05,4.50506e-05,1.33057e-05,-1.19484e-05,3.39322e-05,-1.41598e-06,0
-1.66909e-05,3.44272e-05,6.10968e-05,9.00436e-05,1.93674e-05,-5.65426e-06,8.5969e-06,5.63149e-07,0
-2.83637e-05,4.43284e-05,5.47208e-05,0.000105483,2.62068e-05,-2.13919e-06,7.4173e-06,3.08654e-06,0
-2.8025e-05,4.9417e-05,4.19781e-05,8.30007e-05,2.83034e-05,-3.30466e-06,1.55128e-05,4.67057e-06,0
-1.32767e-05,4.88459e-05,1.93072e-05,5.58101e-05,2.73021e-05,-5.60394e-06,2.35976e-05,5.25864e-06,0
1.14801e-06,4.37749e-05,-1.16797e-05,4.48534e-05,2.73221e-05,-7.0586e-06,3.07946e-05,5.47111e-06,0
1.1278e-05,4.01311e-05,-3.61073e-05,3.80199e-05,2.85242e-05,-7.69121e-06,4.32362e-05,5.55813e-06,0
1.91944e-05,4.03913e-05,-4.47251e-05,1.7015e-05,2.82918e-05,-8.61452e-06,5.65225e-05,4.26978e-06,0
1.87453e-05,4.23996e-05,-4.83259e-05,-8.14941e-06,2.55093e-05,-1.0581e-05,5.60145e-05,3.42693e-06,0
8.75581e-06,4.34398e-05,-5.64647e-05,-2.11029e-05,2.05535e-05,-1.30745e-05,4.18069e-05,4.45126e-06,0
-7.56487e-07,4.52194e-05,-6.23094e-05,-1.18345e-05,1.65495e-05,-1.52048e-05,2.63521e-05,7.42355e-06,0
-3.39844e-06,4.88987e-05,-6.22399e-05,1.34813e-05,1.54301e-05,-1.71316e-05,1.88378e-05,9.11465e-06,0
-3.32593e-06,5.28283e-05,-6.50885e-05,3.49031e-05,1.60803e-05,-1.81994e-05,1.64342e-05,8.60753e-06,0
-5.96903e-06,5.61129e-05,-7.54767e-05,4.03968e-06,1.68183e-05,-1.7627e-05,1.33902e-05,7.74586e-06,0
-1.14462e-05,5.6367e-05,-8.47178e-05,-7.73001e-05,1.89675e-05,-1.63387e-05,5.92523e-06,7.22902e-06,0
-1.81609e-05,4.98271e-05,-8.47291e-05,-0.000144391,2.29137e-05,-1.52808e-05,5.18571e-07,6.10415e-06,0
-2.44662e-05,3.49007e-05,-7.68301e-05,-0.000158752,2.62811e-05,-1.43227e-05,1.04856e-06,4.2526e-06,0
-3.03337e-05,1.22941e-05,-6.99865e-05,-0.000136296,2.83151e-05,-1.2746e-05,1.85175e-06,1.69394e-06,0
-3.42715e-05,-1.0097e-05,-6.50085e-05,-8.56164e-05,2.94654e-05,-9.5733e-06,-1.30432e-07,-8.53587e-08,0
-3.56402e-05,-1.87441e-05,-5.08474e-05,1.97142e-08,2.72524e-05,-6.62256e-06,-1.93279e-06,8.114e-08,0
-3.40568e-05,-1.11187e-05,-2.64248e-05,0.000116365,2.22206e-05,-4.40298e-06,-4.42163e-07,2.31572e-07,0
-3.19759e-05,4.66417e-06,-5.17684e-06,0.000225019,2.01068e-05,-2.65781e-06,5.40474e-06,-1.24295e-06,0
-3.10332e-05,1.71069e-05,-2.61978e-06,0.000223078,2.25675e-05,-1.22474e-06,1.05515e-05,-2.91652e-06,0
-2.94094e-05,2.13523e-05,-1.21807e-05,0.000119692,2.17337e-05,-7.56345e-07,1.43151e-05,-1.02188e-06,0
-2.52306e-05,2.01907e-05,-1.59836e-05,3.00423e-05,1.31086e-05,-1.64943e-06,2.39868e-05,1.83496e-06,0
-1.42553e-05,2.10471e-05,-1.0275e-05,-2.87978e-05,2.40311e-06,-1.42652e-06,3.62182e-05,3.35919e-06,0
9.23391e-06,2.90743e-05,-1.26315e-06,-8.07737e-05,-9.81102e-07,1.26422e-06,4.20726e-05,5.45418e-06,0
3.53138e-05,4.47389e-05,1.20287e-06,-0.000135974,4.13403e-06,5.02389e-06,4.05843e-05,6.02152e-06,0
4.75945e-05,6.57336e-05,-4.31021e-06,-0.000179604,9.87295e-06,7.73315e-06,3.48152e-05,4.56969e-06,0
4.11971e-05,7.54803e-05,-9.88434e-06,-0.000199158,1.40947e-05,9.00855e-06,2.70233e-05,4.00796e-06,0
1.72408e-05,6.20803e-05,-1.10829e-06,-0.000176988,1.93412e-05,9.48837e-06,2.01272e-05,5.15015e-06,0
-1.7296e-05,4.63892e-05,1.77685e-05,-0.000105648,2.71528e-05,8.81992e-06,1.44962e-05,5.22457e-06,0
-5.32226e-05,5.23409e-05,2.44121e-05,-2.51066e-05,3.30942e-05,5.55288e-06,9.86508e-06,3.24642e-06,0
-7.81988e-05,6.57518e-05,1.19696e-05,2.81106e-05,3.10008e-05,1.28199e-06,6.15512e-06,9.04208e-07,0
-8.93454e-05,6.28495e-05,-4.07366e-07,4.55468e-05,2.15796e-05,-2.13415e-06,2.85182e-06,-1.52426e-06,0
-9.10998e-05,3.93195e-05,2.24918e-06,4.2509e-05,1.28486e-05,-4.45988e-06,4.06377e-07,-3.5902e-06,0
-9.00461e-05,2.65958e-06,9.96994e-06,2.64078e-05,9.23362e-06,-5.91605e-06,2.9359e-06,-5.77397e-06,0
-8.95176e-05,-2.72377e-05,1.11749e-05,9.66941e-06,8.34611e-06,-5.66111e-06,6.12459e-06,-7.0181e-06,0
-8.35101e-05,-2.94406e-05,8.4038e-06,1.10686e-06,8.22194e-06,-2.97985e-06,-7.39209e-06,-5.59739e-06,0
-6.58778e-05,-1.00883e-05,9.84866e-06,4.30563e-06,9.17086e-06,3.40788e-07,-4.19972e-05,-1.82675e-06,0
-4.16667e-05,8.68801e-06,1.44947e-05,1.16643e-05,9.97184e-06,9.22431e-07,-6.77038e-05,1.83363e-06,0
-2.41964e-05,2.02799e-05,1.87387e-05,2.18055e-05,8.59256e-06,-1.34617e-06,-5.03689e-05,2.68779e-06,0
-1.99399e-05,2.10496e-05,1.94978e-05,3.24128e-05,5.76095e-06,-2.8648e-06,6.94142e-06,2.43465e-06,0
-2.83324e-05,8.0031e-06,1.74286e-05,3.85264e-05,4.69784e-06,-3.24838e-06,7.06976e-05,8.60303e-06,0
-4.11224e-05,-5.24399e-06,1.64353e-05,2.77982e-05,5.95081e-06,-4.50503e-06,0.000117827,2.46765e-05,0
-4.70227e-05,-1.21685e-05,1.83848e-05,-6.23731e-06,5.01263e-06,-6.05813e-06,0.000141672,3.70881e-05,0
-4.96221e-05,-2.01763e-05,1.99606e-05,-6.05336e-05,4.54308e-07,-8.23352e-06,0.000124353,3.60633e-05,0
-5.65791e-05,-2.29792e-05,2.04259e-05,-0.00011929,-5.72026e-06,-1.31318e-05,6.54118e-05,2.98311e-05,0
-6.0925e-05,-1.04846e-05,2.12094e-05,-0.000156761,-1.11454e-05,-1.93311e-05,-4.59116e-06,1.51609e-05,0
-6.004e-05,1.51707e-05,2.03431e-05,-0.000156974,-9.96107e-06,-2.04912e-05,-4.19237e-05,-9.85154e-06,0
-6.1697e-05,4.03566e-05,1.45486e-05,-0.000118752,-3.41766e-07,-1.47588e-05,-3.93736e-05,-3.48731e-05,0
-7.32253e-05,5.36389e-05,1.84787e-06,-5.36905e-05,1.26061e-05,-8.74412e-06,-2.42979e-05,-4.84362e-05,0
-8.32506e-05,6.47012e-05,-8.30111e-06,2.96755e-05,2.38247e-05,-4.12323e-06,-4.33267e-06,-4.7951e-05,0
-7.41625e-05,7.8694e-05,-9.70748e-06,9.42268e-05,2.79924e-05,-1.17917e-07,1.54786e-05,-4.15802e-05,0
-4.5676e-05,8.58181e-05,-1.23924e-05,0.000116009,2.56049e-05,1.27288e-06,3.09815e-05,-3.43509e-05,0
-1.39595e-05,9.15655e-05,-1.44676e-05,0.000111337,2.25298e-05,-3.47017e-07,3.33377e-05,-2.76298e-05,0
5.50413e-06,8.88146e-05,-6.79596e-06,9.51266e-05,2.4342e-05,-2.21023e-06,2.62823e-05,-1.77515e-05,0
7.2288e-06,4.85042e-05,1.55408e-06,6.77208e-05,2.80333e-05,-3.59827e-06,1.89072e-05,-8.51481e-06,0
-2.77419e-06,-2.56634e-05,-7.42327e-06,3.68176e-05,2.85471e-05,-5.01764e-06,1.54714e-05,-3.67024e-06,0
-9.8237e-06,-8.76004e-05,-2.82071e-05,1.17653e-05,2.67545e-05,-6.10437e-06,1.93675e-05,-1.85037e-06,0
-7.04792e-06,-9.7985e-05,-3.67637e-05,-1.87289e-06,2.42294e-05,-5.81166e-06,2.83031e-05,1.79361e-07,0
-1.55037e-06,-6.78304e-05,-2.70393e-05,-1.96154e-06,2.44543e-05,-3.84946e-06,3.75562e-05,3.42984e-06,0
-4.88387e-06,-3.53193e-05,-1.30022e-05,8.59171e-06,2.89075e-05,-1.9785e-06,3.85622e-05,6.91151e-06,0
-1.27343e-05,-1.55281e-05,-1.11056e-05,2.44281e-05,3.2845e-05,-1.05776e-06,3.04252e-05,9.94291e-06,0
-1.20421e-05,-2.1808e-06,-2.15361e-05,3.88085e-05,3.13246e-05,-2.23652e-06,1.77591e-05,1.13448e-05,0
-2.86787e-06,-6.07302e-06,-3.17563e-05,4.76065e-05,2.68231e-05,-6.0242e-06,7.95713e-06,1.08772e-05,0
1.2781e-06,-3.95093e-05,-2.98323e-05,4.88951e-05,2.222e-05,-1.10312e-05,4.29247e-07,7.5561e-06,0
-3.50147e-06,-7.75768e-05,-1.76671e-05,4.34236e-05,1.8591e-05,-1.33135e-05,-6.90533e-06,3.90378e-06,0
-1.20772e-05,-7.80321e-05,-5.4381e-06,3.35448e-05,1.69589e-05,-1.29212e-05,-1.86681e-05,3.20771e-06,0
-2.31241e-05,-3.21575e-05,3.4221e-07,2.43663e-05,1.69387e-05,-1.37637e-05,-3.80983e-05,4.58289e-06,0
-3.87108e-05,3.18361e-05,9.41694e-07,2.51136e-05,1.57274e-05,-1.55925e-05,-5.98679e-05,5.03675e-06,0
-5.7518e-05,8.80215e-05,-1.07515e-06,4.13207e-05,1.29052e-05,-1.57612e-05,-7.02685e-05,4.99957e-06,0
-7.00663e-05,0.000115532,-6.54225e-06,6.16353e-05,1.13701e-05,-1.42952e-05,-6.52571e-05,3.3908e-06,0
-7.03091e-05,0.000110908,-1.0518e-05,5.31287e-05,1.17536e-05,-1.24181e-05,-5.167e-05,-2.3244e-07,0
-5.8581e-05,0.000110017,-6.02527e-06,7.85171e-06,1.38297e-05,-1.25606e-05,-3.70865e-05,-2.80733e-06,0
-3.09049e-05,0.000139967,1.91933e-06,-3.57326e-05,1.80084e-05,-1.27817e-05,-1.99285e-05,-2.89509e-06,0
-1.99786e-07,0.000175098,4.83965e-06,-4.53385e-05,1.93925e-05,-9.53699e-06,1.08593e-06,-2.81575e-06,0
1.59563e-05,0.000156248,7.08983e-06,-3.09249e-05,1.52072e-05,-6.36661e-06,1.99845e-05,-2.63446e-06,0
1.78848e-05,3.63735e-05,1.02422e-05,-4.35663e-06,1.13389e-05,-6.22786e-06,3.38358e-05,-7.44575e-07,0
6.7113e-06,-0.000127722,7.76889e-06,3.83433e-05,9.46346e-06,-8.09667e-06,4.09256e-05,1.77971e-06,0
-1.26396e-05,-0.000220285,-2.09953e-06,6.01005e-05,7.33581e-06,-1.08912e-05,4.45496e-05,4.00449e-06,0
-2.93019e-05,-0.000217509,-1.42735e-05,4.57975e-05,4.33919e-06,-1.26356e-05,4.65317e-05,5.03498e-06,0
-4.06925e-05,-0.00017203,-2.05153e-05,2.73497e-05,4.08739e-06,-1.20857e-05,4.83006e-05,3.85712e-06,0
-5.75114e-05,-0.000140815,-1.92988e-05,2.07452e-05,6.37632e-06,-1.23899e-05,4.81635e-05,2.05963e-06,0
-7.61009e-05,-0.000121987,-1.50149e-05,4.25463e-06,7.41801e-06,-1.59412e-05,4.61707e-05,1.22386e-06,0
-8.01036e-05,-8.00604e-05,-1.4745e-05,-3.64429e-05,3.74074e-06,-2.08977e-05,4.23246e-05,1.01033e-06,0
-5.91272e-05,-1.06316e-05,-2.1701e-05,-7.49795e-05,-2.07941e-06,-2.35392e-05,3.77835e-05,1.85377e-07,0
-2.10022e-05,6.24016e-05,-2.83963e-05,-9.50773e-05,-3.40495e-06,-2.1212e-05,3.46579e-05,-1.28313e-06,0
1.34934e-05,0.000116295,-2.82163e-05,-0.000106777,-1.16078e-07,-1.58994e-05,3.38652e-05,-2.15962e-06,0
3.03125e-05,0.000131863,-2.57116e-05,-0.000117478,3.57268e-06,-1.19903e-05,3.37621e-05,-1.48398e-06,0
2.77602e-05,9.4644e-05,-2.59045e-05,-0.000117394,4.6564e-06,-1.16261e-05,3.23204e-05,-1.11074e-07,0
1.40707e-05,2.68359e-05,-2.45009e-05,-0.000100667,4.84873e-06,-1.35314e-05,3.00404e-05,6.0023e-07,0
-2.91563e-06,-2.1125e-05,-1.75101e-05,-6.83268e-05,4.228e-06,-1.53933e-05,2.74791e-05,1.35097e-06,0
-2.02259e-05,-1.15574e-05,-5.01946e-06,-1.98242e-05,1.07291e-06,-1.72863e-05,2.44257e-05,1.55007e-06,0
-4.16309e-05,4.24571e-05,1.0919e-05,3.71238e-05,-4.04304e-06,-1.96362e-05,2.04974e-05,2.87595e-07,0
-7.32333e-05,9.12939e-05,2.79628e-05,6.23785e-05,-6.19329e-06,-2.0913e-05,1.67735e-05,-1.65794e-06,0
-0.000112657,9.47421e-05,4.21009e-05,3.10271e-05,-2.25619e-06,-1.91468e-05,1.2739e-05,-1.30209e-06,0
-0.000140907,6.23774e-05,5.51571e-05,-2.02942e-05,8.30923e-06,-1.57376e-05,6.35181e-06,1.17023e-06,0
-0.00014361,9.25475e-06,7.32293e-05,-4.20585e-05,2.18566e-05,-1.4123e-05,-2.52769e-06,2.4807e-06,0
-0.000124542,-6.74539e-05,9.53683e-05,-2.96388e-05,2.64494e-05,-1.62811e-05,-8.0771e-06,2.46801e-06,0
-9.91791e-05,-0.000121591,0.000113742,-1.11149e-05,1.75835e-05,-1.89519e-05,-6.08554e-06,4.6158e-06,0
-8.05536e-05,-0.000109405,0.000117764,-2.22122e-06,7.49567e-06,-1.95789e-05,-4.65763e-08,7.75016e-06,0
-6.17262e-05,-6.87502e-05,8.82272e-05,-3.46524e-06,6.3889e-06,-1.7496e-05,4.50607e-06,9.09918e-06,0
-3.8834e-05,-3.93814e-05,2.3792e-05,-1.50345e-05,1.00324e-05,-1.33642e-05,9.10328e-06,1.065e-05,0
-2.61506e-05,-2.80769e-05,-5.05733e-05,-3.11618e-05,1.03384e-05,-1.2708e-05,1.61866e-05,9.29041e-06,0
-3.07492e-05,-2.6578e-05,-0.000109969,-5.21413e-05,8.2922e-06,-1.45622e-05,2.11271e-05,4.50216e-06,0
-4.18107e-05,-2.3556e-05,-0.000136559,-8.12775e-05,7.81174e-06,-1.50154e-05,2.304e-05,2.60997e-07,0
-4.6495e-05,-2.73546e-05,-0.000132753,-9.87e-05,9.16715e-06,-1.31009e-05,2.49771e-05,-1.97163e-06,0
-4.48637e-05,-3.26489e-05,-0.000112354,-8.28289e-05,9.11739e-06,-1.01456e-05,2.56672e-05,-1.47549e-06,0
-3.60936e-05,-1.06344e-05,-8.92222e-05,-2.97351e-05,7.25375e-06,-7.94839e-06,2.35413e-05,-3.36692e-07,0
-1.2531e-05,4.28222e-05,-6.67722e-05,4.46128e-05,9.73553e-06,-6.08598e-06,1.16493e-05,7.97753e-07,0
1.65565e-05,0.000110976,-4.38218e-05,0.000106018,1.86106e-05,-3.24357e-06,-2.55839e-05,1.00993e-06,0
3.14203e-05,0.000174582,-2.35467e-05,0.000117315,2.86669e-05,-1.00006e-07,-8.12489e-05,-5.57292e-08,0
2.58336e-05,0.000199782,-1.2815e-05,7.47175e-05,3.14468e-05,8.96934e-07,-0.000111655,-6.02927e-07,0
1.20847e-05,0.000167823,-1.26826e-05,1.90291e-05,2.8182e-05,1.16212e-06,-8.72524e-05,2.73855e-07,0
1.15806e-05,0.0001074,-1.50065e-05,-8.97017e-06,2.5335e-05,2.63155e-06,-2.48021e-05,1.58206e-06,0
2.79891e-05,5.76761e-05,-1.48633e-05,-8.7918e-06,2.28897e-05,4.8292e-06,3.2417e-05,3.04317e-06,0
4.19532e-05,1.45279e-05,-1.26485e-05,-6.6336e-07,1.81236e-05,5.1302e-06,5.97984e-05,3.75823e-06,0
4.14547e-05,-3.75101e-05,-1.18732e-05,7.38843e-06,1.18958e-05,3.22079e-06,6.38539e-05,2.79173e-06,0
3.11592e-05,-8.83948e-05,-1.17052e-05,1.74317e-05,9.02935e-06,9.61447e-07,6.39621e-05,2.3905e-06,0
1.98119e-05,-0.000125384,-9.95545e-06,2.52835e-05,1.15344e-05,-9.04026e-07,7.42427e-05,2.98468e-06,0
8.914e-06,-0.000145256,-6.28962e-06,2.04476e-05,1.45943e-05,-1.26949e-06,8.98363e-05,2.99383e-06,0
-8.43301e-06,-0.000126571,-1.28437e-06,9.45267e-07,1.2943e-05,-4.43217e-07,0.000102765,1.10786e-06,0
-3.67818e-05,-6.67374e-05,7.20153e-06,-2.17731e-05,6.55917e-06,-7.27582e-07,0.000120117,-6.53635e-07,0
-6.38502e-05,-4.06784e-07,1.71096e-05,-3.24748e-05,-1.20047e-06,-2.41713e-06,0.000152607,-8.88694e-07,0
-7.65304e-05,4.3178e-05,2.34842e-05,-1.16336e-05,-4.07508e-06,-4.57723e-06,0.000188012,-1.00445e-06,0
-8.0604e-05,6.14325e-05,2.55551e-05,5.21534e-05,1.57901e-07,-6.55571e-06,0.000203442,-1.28827e-06,0
-8.38298e-05,5.83864e-05,2.51358e-05,0.000118172,5.97743e-06,-7.80855e-06,0.000184507,-8.39189e-07,0
-8.48982e-05,3.90717e-05,2.46172e-05,0.000110934,9.52619e-06,-8.4023e-06,0.000135577,3.51339e-07,0
-7.52086e-05,2.24688e-05,2.71703e-05,3.45847e-05,1.05907e-05,-7.97418e-06,5.39167e-05,3.5357e-07,0
-5.19776e-05,2.03972e-05,3.1809e-05,-3.37812e-05,1.12177e-05,-6.89961e-06,-5.73285e-05,-1.55886e-06,0
-2.51154e-05,2.83614e-05,3.45883e-05,-7.88394e-05,1.31864e-05,-6.22773e-06,-0.000168762,-2.51278e-06,0
-9.07546e-06,3.56713e-05,3.34166e-05,-9.52796e-05,1.61943e-05,-5.1387e-06,-0.000255853,-1.49986e-06,0
-6.39735e-06,3.89698e-05,1.8678e-05,-6.56564e-05,1.73106e-05,-5.09834e-06,-0.000338972,3.3424e-07,0
-1.26111e-05,3.81997e-05,-1.56219e-05,-1.95671e-05,1.53887e-05,-5.317e-06,-0.000399821,2.28857e-06,0
-2.29985e-05,3.86507e-05,-4.53289e-05,3.06331e-05,1.54431e-05,-3.15405e-06,-0.000368508,4.00007e-06,0
-2.97937e-05,4.1472e-05,-4.96874e-05,9.2408e-05,1.88272e-05,-2.10258e-06,-0.000250779,4.5929e-06,0
-2.73101e-05,5.48244e-05,-3.70799e-05,0.0001357,2.16009e-05,-2.50036e-06,-9.27074e-05,3.13582e-06,0
-1.79185e-05,8.00803e-05,-2.11785e-05,9.91296e-05,1.86548e-05,-4.81077e-06,4.05305e-05,1.10352e-06,0
-1.26773e-05,0.000102079,-1.49361e-05,-8.24359e-06,1.2555e-05,-5.69665e-06,0.000115876,9.26633e-07,0
-1.60599e-05,0.000116222,-2.01929e-05,-9.93653e-05,1.16222e-05,-2.33271e-06,0.000141323,2.52221e-06,0
-2.59543e-05,0.000112634,-2.99249e-05,-0.000118935,1.61121e-05,2.81101e-06,0.000142098,4.20185e-06,0
-3.86553e-05,7.94604e-05,-3.63692e-05,-9.05947e-05,1.96422e-05,5.91227e-06,0.000134948,4.90067e-06,0
-5.57989e-05,3.27131e-05,-3.78824e-05,-6.18521e-05,1.94211e-05,4.85364e-06,0.000122033,4.10674e-06,0
-7.59724e-05,1.14954e-06,-3.50402e-05,-4.16273e-05,1.70023e-05,3.14589e-06,0.000107214,2.6795e-06,0
-9.0838e-05,-1.70462e-05,-2.86373e-05,-1.08252e-05,1.37017e-05,2.13585e-06,8.96153e-05,1.53731e-06,0
-9.46404e-05,-3.17626e-05,-2.09657e-05,3.20886e-05,1.2761e-05,1.39826e-06,7.55008e-05,1.38003e-06,0
-8.63576e-05,-3.72511e-05,-1.52685e-05,5.30101e-05,1.64489e-05,6.70511e-07,6.64684e-05,2.07673e-06,0
-6.58376e-05,-3.93908e-05,-1.6147e-05,3.23027e-05,2.08815e-05,-4.52597e-07,6.39142e-05,2.7317e-06,0
-3.61928e-05,-5.6567e-05,-2.27947e-05,-5.94926e-06,2.13972e-05,-4.41962e-06,5.59326e-05,2.43948e-06,0
-1.11748e-05,-8.0533e-05,-2.85124e-05,-3.78379e-05,1.65734e-05,-1.08754e-05,3.81173e-05,2.13408e-06,0
-4.23161e-06,-7.72571e-05,-2.88106e-05,-6.57857e-05,7.42177e-06,-1.64778e-05,1.3587e-05,3.30357e-06,0
-9.31854e-06,-3.63278e-05,-2.45569e-05,-8.01926e-05,-2.08713e-07,-1.84681e-05,-7.62702e-06,4.27722e-06,0
-5.03851e-06,1.70283e-05,-1.50518e-05,-6.61331e-05,-1.96015e-06,-1.72202e-05,-2.47605e-05,4.60825e-06,0
7.30426e-06,5.1978e-05,-5.27319e-06,-2.77846e-05,3.45267e-06,-1.32194e-05,-3.92622e-05,6.07902e-06,0
6.30761e-06,5.60329e-05,-2.59183e-06,1.56371e-05,1.19337e-05,-9.10735e-06,-4.82273e-05,7.21348e-06,0
-1.05003e-05,3.53637e-05,-5.38602e-06,4.66453e-05,1.29874e-05,-9.13562e-06,-6.28521e-05,6.26268e-06,0
-2.90157e-05,8.62778e-06,-1.18899e-05,5.49753e-05,8.8078e-06,-1.19776e-05,-0.000113251,5.21011e-06,0
-4.33666e-05,-6.01041e-06,-2.49621e-05,4.73831e-05,7.82109e-06,-1.43157e-05,-0.00015867,5.72999e-06,0
-4.91283e-05,-1.24757e-05,-3.61316e-05,3.5636e-05,1.07767e-05,-1.5037e-05,-0.000127259,6.91817e-06,0
-4.43511e-05,-2.31241e-05,-3.55335e-05,2.03518e-05,1.35001e-05,-1.38287e-05,-3.22249e-05,6.60787e-06,0
-3.41605e-05,-4.38911e-05,-3.01597e-05,9.0023e-06,1.25763e-05,-1.18481e-05,7.14303e-05,4.04084e-06,0
-2.60626e-05,-6.68442e-05,-3.0189e-05,1.15182e-05,1.01819e-05,-1.05506e-05,0.000141702,2.20022e-06,0
-2.61648e-05,-6.42107e-05,-3.42077e-05,2.76488e-05,7.78778e-06,-1.00841e-05,0.000171825,4.69637e-06,0
-3.23597e-05,-2.4757e-05,-3.55621e-05,3.7234e-05,4.40881e-06,-1.18543e-05,0.000168428,1.29744e-05,0
-4.16606e-05,2.62671e-05,-2.88448e-05,2.70921e-05,-1.48902e-06,-1.55527e-05,0.000146176,2.15328e-05,0
-4.95352e-05,5.83894e-05,-1.70572e-05,3.63252e-06,-7.67728e-06,-1.87675e-05,0.000116509,2.16762e-05,0
-5.05062e-05,5.73047e-05,-9.56708e-06,-1.75831e-05,-1.14112e-05,-1.8313e-05,9.17249e-05,1.25103e-05,0
-4.17862e-05,3.58355e-05,-9.02371e-06,-2.64985e-05,-1.06105e-05,-1.5038e-05,7.57566e-05,5.72317e-07,0
-2.61058e-05,2.75237e-05,-1.0769e-05,-2.11976e-05,-5.82257e-06,-1.25608e-05,6.23957e-05,-8.07021e-06,0
-7.97808e-06,5.64596e-05,-8.6619e-06,-1.00144e-05,1.23438e-07,-1.2763e-05,4.8314e-05,-1.15877e-05,0
1.23639e-05,0.000124287,-7.97221e-08,-7.02882e-06,7.58058e-06,-1.36442e-05,3.69928e-05,-1.22258e-05,0
3.18972e-05,0.000203557,1.14484e-05,-1.44976e-05,1.49176e-05,-1.37616e-05,2.68122e-05,-1.41155e-05,0
4.39388e-05,0.000252929,1.94111e-05,-2.25315e-05,1.61838e-05,-1.43784e-05,1.09996e-05,-1.75802e-05,0
4.58931e-05,0.000251598,2.31936e-05,-2.72699e-05,1.01392e-05,-1.65985e-05,-7.62909e-06,-1.89855e-05,0
4.01613e-05,0.000208569,2.62151e-05,-3.80456e-05,4.93607e-06,-1.9723e-05,-2.01772e-05,-1.63418e-05,0
3.08191e-05,0.000142485,3.16898e-05,-5.39196e-05,5.02985e-06,-2.07851e-05,-2.44555e-05,-1.17103e-05,0
1.75582e-05,6.86236e-05,3.86543e-05,-5.89008e-05,8.51229e-06,-1.77329e-05,-2.5326e-05,-7.11684e-06,0
-4.23549e-06,4.75733e-07,4.17792e-05,-5.1697e-05,1.17309e-05,-1.40675e-05,-2.34225e-05,-5.1192e-06,0
-3.23005e-05,-4.0223e-05,3.93342e-05,-5.49755e-05,1.10895e-05,-1.25883e-05,-2.0733e-05,-6.39817e-06,0
-5.99421e-05,-3.79178e-05,3.74352e-05,-6.86702e-05,7.64354e-06,-1.12869e-05,-1.95704e-05,-6.93776e-06,0
-8.09608e-05,-6.07453e-06,3.84e-05,-7.18138e-05,5.73554e-06,-1.10423e-05,-1.88798e-05,-4.8482e-06,0
-8.90878e-05,7.21551e-06,3.52051e-05,-5.81748e-05,7.17103e-06,-1.09626e-05,-1.21924e-05,-2.7908e-06,0
-8.46349e-05,-3.20086e-05,2.28352e-05,-3.317e-05,1.16822e-05,-1.10004e-05,5.42224e-06,-2.77168e-07,0
-7.67229e-05,-9.63663e-05,8.17418e-06,-4.76866e-06,1.62713e-05,-1.1802e-05,2.59332e-05,2.62974e-06,0
-7.26472e-05,-0.000160688,4.73912e-06,2.03368e-05,1.89279e-05,-1.36211e-05,3.83159e-05,3.19333e-06,0
-7.11177e-05,-0.000210703,1.10206e-05,4.32778e-05,2.08818e-05,-1.46907e-05,3.95615e-05,2.6714e-06,0
-6.63059e-05,-0.000216661,1.65317e-05,6.18857e-05,2.21399e-05,-1.49443e-05,3.45542e-05,1.88968e-06,0
-5.73506e-05,-0.000178796,1.9327e-05,7.35349e-05,2.16618e-05,-1.56594e-05,2.52289e-05,-4.88056e-07,0
-4.68657e-05,-0.000129108,1.82553e-05,7.25071e-05,1.78182e-05,-1.55161e-05,5.84525e-06,-2.16825e-06,0
-3.96274e-05,-9.6801e-05,9.04643e-06,3.69554e-05,1.11733e-05,-1.62839e-05,-1.70712e-05,-1.34695e-06,0
-3.9395e-05,-7.62543e-05,-4.85289e-06,-1.55647e-05,6.80659e-06,-1.66358e-05,-4.1079e-05,-1.5871e-07,0
-4.18326e-05,-5.74424e-05,-1.41289e-05,-3.58049e-05,7.46447e-06,-1.55914e-05,-7.01813e-05,3.48038e-08,0
-4.3329e-05,-4.44675e-05,-1.64572e-05,-2.28443e-05,1.1207e-05,-1.27498e-05,-9.36245e-05,-2.1387e-06,0
-4.44676e-05,-3.41961e-05,-1.65062e-05,-1.50091e-05,1.6169e-05,-9.05608e-06,-9.43122e-05,-4.03216e-06,0
-4.34186e-05,-1.95725e-05,-1.82474e-05,-3.53616e-05,2.16374e-05,-6.70259e-06,-6.84661e-05,-4.51605e-06,0
-3.67421e-05,-6.2821e-07,-2.25111e-05,-6.38075e-05,2.67523e-05,-6.44591e-06,-2.72929e-05,-4.62735e-06,0
-2.57544e-05,1.91718e-05,-3.07586e-05,-6.77422e-05,2.82018e-05,-7.52136e-06,1.01137e-05,-4.60135e-06,0
-1.64482e-05,4.30735e-05,-4.22121e-05,-4.06967e-05,2.32373e-05,-9.27599e-06,3.13168e-05,-4.32924e-06,0
-1.5614e-05,7.02714e-05,-4.77363e-05,-8.89281e-06,1.48069e-05,-1.19513e-05,3.9372e-05,-3.39893e-06,0
-1.88342e-05,9.32436e-05,-3.88421e-05,1.45667e-06,8.16135e-06,-1.37408e-05,4.13552e-05,-1.9966e-06,0
-1.03545e-05,9.58024e-05,-2.16198e-05,-1.05324e-05,4.97863e-06,-1.37282e-05,4.14159e-05,-9.66834e-08,0
1.46105e-05,7.56231e-05,-7.71055e-06,-3.11278e-05,6.91314e-06,-1.09374e-05,4.12741e-05,1.20745e-06,0
4.31792e-05,5.65027e-05,2.41975e-06,-4.04034e-05,1.47866e-05,-5.20285e-06,4.23408e-05,1.95858e-06,0
6.08122e-05,6.79225e-05,1.43254e-05,-2.74032e-05,2.44111e-05,5.35737e-07,4.21111e-05,2.70922e-06,0
5.77124e-05,0.000111049,2.53738e-05,3.0413e-07,2.79657e-05,2.26046e-06,4.0737e-05,2.79331e-06,0
3.91465e-05,0.000153062,2.62799e-05,2.11665e-05,2.35907e-05,2.71074e-07,3.94765e-05,1.5291e-06,0
2.84928e-05,0.000159438,9.55818e-06,2.43917e-05,1.56689e-05,-3.34408e-06,3.69951e-05,9.12105e-08,0
4.42636e-05,0.000149868,-2.13172e-05,1.85328e-05,9.20402e-06,-8.15088e-06,3.44115e-05,-9.69759e-07,0
7.89277e-05,0.000175148,-5.47258e-05,1.34838e-05,6.55889e-06,-1.06778e-05,4.03412e-05,-5.966e-07,0
9.95039e-05,0.000215351,-8.8107e-05,1.17984e-05,6.64892e-06,-8.72061e-06,5.5261e-05,1.24119e-07,0
7.82632e-05,0.000191484,-0.000105426,1.638e-05,1.10087e-05,-4.96476e-06,7.20461e-05,9.8704e-07,0
2.40378e-05,8.67246e-05,-9.31934e-05,2.08808e-05,1.55071e-05,-3.90666e-06,9.3462e-05,2.93957e-06,0
-3.8228e-05,-4.81822e-05,-7.17616e-05,2.1241e-05,1.64892e-05,-6.37446e-06,0.000100654,3.77033e-06,0
-9.01419e-05,-0.000160265,-5.80356e-05,2.3201e-05,1.71123e-05,-7.70543e-06,7.28828e-05,3.60179e-06,0
-0.000125181,-0.000224236,-4.97012e-05,2.99475e-05,1.82225e-05,-8.32391e-06,2.54426e-05,3.86712e-06,0
-0.000151003,-0.000274216,-3.91351e-05,2.86193e-05,1.8182e-05,-1.06568e-05,-1.89664e-05,2.87868e-06,0
-0.000169535,-0.000304981,-2.5917e-05,1.56851e-05,1.68564e-05,-1.40422e-05,-4.41978e-05,1.74089e-06,0
-0.000179073,-0.000260019,-1.40137e-05,1.29172e-06,1.54032e-05,-1.51801e-05,-4.87247e-05,1.83703e-06,0
-0.000178363,-0.000151261,-7.72e-06,-1.56313e-05,1.23202e-05,-1.46531e-05,-3.88612e-05,1.72813e-06,0
-0.000169339,-4.58565e-05,-6.40223e-06,-2.88932e-05,8.94445e-06,-1.38179e-05,-2.56725e-05,8.21052e-07,0
-0.000154582,9.47105e-06,-7.00758e-06,-3.11399e-05,7.38413e-06,-1.1118e-05,-1.76957e-05,4.72183e-08,0
-0.000135757,2.32891e-05,-6.23463e-06,-2.29993e-05,7.97172e-06,-7.23809e-06,-1.45901e-05,1.86023e-07,0
-0.000110563,2.14916e-05,-1.36277e-06,-8.37244e-06,1.07484e-05,-3.29249e-06,-1.1035e-05,5.17275e-07,0
-7.01598e-05,1.0206e-05,5.74092e-06,1.35114e-05,1.55634e-05,-1.67029e-06,-2.80846e-06,1.38731e-06,0
-1.88692e-05,-8.43626e-06,1.14811e-05,3.05015e-05,2.01859e-05,-2.07871e-06,7.45765e-06,2.00846e-06,0
2.11343e-05,-1.36458e-05,1.25425e-05,2.68142e-05,2.19036e-05,-3.48816e-06,1.86296e-05,1.5688e-06,0
3.79597e-05,8.30037e-06,9.97286e-06,3.51256e-06,2.17042e-05,-4.23184e-06,2.77847e-05,1.09562e-06,0
3.78431e-05,3.89925e-05,5.76019e-06,-2.79183e-05,2.12247e-05,-4.4058e-06,3.21163e-05,2.12399e-06,0
2.14382e-05,5.04246e-05,3.06335e-06,-4.93497e-05,2.09688e-05,-4.28548e-06,2.91088e-05,3.83908e-06,0
-1.17602e-05,2.58332e-05,2.93291e-06,-4.44371e-05,2.06967e-05,-3.21946e-06,1.7915e-05,4.77589e-06,0
-4.75132e-05,-2.17237e-05,4.10307e-06,-2.08386e-05,1.99442e-05,-2.13317e-06,-4.53408e-07,3.32749e-06,0
-6.64538e-05,-5.10889e-05,3.81858e-06,8.44182e-06,1.78185e-05,-3.79719e-06,-2.11154e-05,1.07441e-06,0
-6.78253e-05,-3.73681e-05,1.32236e-06,4.60431e-05,1.58917e-05,-7.34343e-06,-3.62968e-05,-9.92958e-08,0
-6.54702e-05,3.77728e-06,-2.0123e-07,8.7249e-05,1.71266e-05,-8.80881e-06,-4.37629e-05,-1.46276e-06,0
-6.42838e-05,5.46767e-05,2.13254e-07,0.000134673,2.16384e-05,-8.32891e-06,-6.00435e-05,-2.4701e-06,0
-5.70064e-05,0.000106947,8.83798e-07,0.000163883,2.48038e-05,-7.8403e-06,-8.29594e-05,-2.40836e-06,0
-3.99309e-05,0.000150467,9.61272e-07,0.000125664,2.37825e-05,-8.20205e-06,-7.55413e-05,-1.61879e-06,0
