ch1,ch2,ch3,ch4,ch5,ch6,ch7,ch8,class
-2.23011e-05,-4.78115e-05,-5.29384e-05,3.69359e-05,-1.34954e-05,-2.07341e-05,-1.05198e-05,6.34368e-06,0
-2.14356e-05,-3.62195e-05,-4.76606e-05,4.24916e-05,-9.93583e-06,-1.84591e-05,-1.15623e-05,7.29425e-06,0
-2.10482e-05,2.97287e-06,-3.44708e-05,6.06181e-05,-6.75931e-06,-1.42626e-05,-2.29349e-06,6.09832e-06,0
-1.68699e-05,5.69823e-05,-2.05895e-05,7.01532e-05,-6.69043e-06,-1.16898e-05,8.3234e-06,4.99395e-06,0
-1.72517e-06,9.61405e-05,-1.11465e-05,4.42314e-05,-8.9102e-06,-1.29852e-05,1.34359e-05,7.10422e-06,0
2.66538e-05,0.000121443,-6.50323e-06,-9.12004e-08,-1.07072e-05,-1.65243e-05,1.48415e-05,8.60365e-06,0
5.36835e-05,0.000130937,-6.11905e-06,-4.26022e-05,-1.16795e-05,-1.88199e-05,1.42163e-05,7.62063e-06,0
6.50314e-05,0.000107468,-5.62039e-06,-7.05929e-05,-9.39671e-06,-1.97558e-05,1.03509e-05,5.41228e-06,0
5.76901e-05,4.89742e-05,-1.52476e-06,-7.05709e-05,-2.29105e-06,-1.8876e-05,3.61257e-06,4.10951e-06,0
3.65696e-05,-2.57218e-05,7.54376e-06,-5.15968e-05,8.45117e-06,-1.68076e-05,-2.8049e-06,3.00488e-06,0
8.52712e-06,-8.99442e-05,1.78568e-05,-4.01958e-05,1.72374e-05,-1.48775e-05,-6.18262e-06,1.32605e-06,0
-2.1507e-05,-0.000129635,2.24129e-05,-3.92246e-05,2.2625e-05,-1.33928e-05,-3.27465e-06,-8.35243e-07,0
-4.79932e-05,-0.000139671,1.678e-05,-2.92916e-05,2.76248e-05,-1.14174e-05,4.20487e-06,-1.9468e-06,0
-6.64865e-05,-0.000125079,1.58887e-06,-2.8077e-06,3.32054e-05,-8.27742e-06,1.37241e-05,-2.16904e-06,0
-7.44988e-05,-9.50522e-05,-2.0548e-05,2.88223e-05,3.45755e-05,-5.06518e-06,2.4408e-05,-2.28911e-06,0
-7.32763e-05,-5.73244e-05,-4.26446e-05,4.98611e-05,2.99499e-05,-3.07515e-06,3.6176e-05,-2.59624e-06,0
-6.81544e-05,-2.23027e-05,-5.75528e-05,5.09529e-05,2.3363e-05,-4.11978e-06,4.61671e-05,-3.26516e-06,0
-6.70776e-05,-4.05191e-06,-6.31682e-05,3.80468e-05,2.13884e-05,-8.02375e-06,5.02062e-05,-3.98803e-06,0
-7.25247e-05,7.68317e-07,-5.84619e-05,2.82982e-05,2.4454e-05,-1.19446e-05,4.74477e-05,-3.66984e-06,0
-7.74039e-05,8.31202e-06,-4.31638e-05,2.11915e-05,2.608e-05,-1.34894e-05,4.02822e-05,-2.53712e-06,0
-7.33712e-05,2.60734e-05,-2.411e-05,7.03323e-06,2.35554e-05,-1.3114e-05,3.40175e-05,-2.57785e-06,0
-5.98063e-05,4.55798e-05,-1.1662e-05,-7.09346e-06,1.76621e-05,-1.36683e-05,2.94437e-05,-3.35649e-06,0
-4.28673e-05,5.88394e-05,-1.04473e-05,-5.26963e-06,1.40024e-05,-1.56262e-05,2.64828e-05,-4.99547e-06,0
-3.11253e-05,7.43345e-05,-9.78271e-06,1.94066e-05,1.38745e-05,-1.80902e-05,2.43296e-05,-7.28495e-06,0
-2.60995e-05,8.90916e-05,-2.30521e-06,4.83324e-05,1.31865e-05,-1.99435e-05,1.7032e-05,-6.7154e-06,0
-2.56344e-05,8.02995e-05,5.9062e-06,6.28818e-05,1.03491e-05,-1.95721e-05,5.99829e-06,-3.83487e-06,0
-2.91725e-05,5.33317e-05,1.09805e-05,6.55989e-05,1.15376e-05,-1.75949e-05,2.84445e-07,-2.49047e-06,0
-3.55698e-05,6.39097e-05,1.18477e-05,5.28325e-05,1.99842e-05,-1.41618e-05,5.93706e-07,-1.39299e-06,0
-4.17727e-05,0.000142359,9.13004e-06,2.90424e-05,2.92986e-05,-1.27311e-05,-3.53546e-06,-9.13658e-07,0
-4.27152e-05,0.000250352,3.54394e-06,-7.87645e-07,3.23589e-05,-1.40455e-05,-2.58905e-05,-1.27623e-06,0
-3.78758e-05,0.000332964,-1.03989e-06,-2.90474e-05,2.84515e-05,-1.46387e-05,-5.62699e-05,-2.24971e-06,0
-2.95771e-05,0.000357618,-4.34736e-06,-4.12662e-05,2.59924e-05,-1.34275e-05,-6.93123e-05,-2.07151e-06,0
-1.96672e-05,0.000314269,-6.0815e-06,-3.92191e-05,2.72117e-05,-1.12231e-05,-5.64918e-05,-4.85857e-07,0
-8.12184e-06,0.000198484,-7.96372e-06,-3.66064e-05,2.68339e-05,-9.28061e-06,-2.62684e-05,8.2292e-07,0
9.42933e-06,3.12949e-05,-1.1964e-05,-4.15419e-05,2.0829e-05,-8.67419e-06,6.08152e-06,2.14291e-06,0
3.55032e-05,-0.000132627,-1.43701e-05,-6.17643e-05,8.80868e-06,-1.08546e-05,3.40559e-05,2.41778e-06,0
6.13561e-05,-0.000241472,-1.28084e-05,-0.000107505,-4.77794e-06,-1.49433e-05,5.63888e-05,1.93338e-06,0
7.24847e-05,-0.000281354,-9.78752e-06,-0.000164728,-1.15687e-05,-1.86208e-05,7.17785e-05,1.88358e-06,0
6.31727e-05,-0.000270464,-1.06639e-05,-0.000196477,-7.68563e-06,-1.93366e-05,7.90165e-05,1.96396e-06,0
3.843e-05,-0.000220156,-1.47519e-05,-0.00016738,1.96876e-06,-1.68789e-05,7.70575e-05,5.69572e-07,0
5.1548e-06,-0.000135093,-1.90473e-05,-8.51664e-05,1.09499e-05,-1.29561e-05,6.23341e-05,-4.83167e-07,0
-2.99086e-05,-2.63291e-05,-2.27394e-05,-6.27226e-06,1.71741e-05,-1.00969e-05,3.66192e-05,-4.27389e-07,0
-6.01758e-05,0.00010337,-2.58514e-05,1.85669e-05,2.2353e-05,-8.77638e-06,1.7507e-05,-6.12849e-08,0
-8.18658e-05,0.000255517,-2.47526e-05,4.96373e-06,2.60818e-05,-9.40211e-06,1.91273e-05,4.12886e-07,0
-9.23015e-05,0.000395385,-1.59216e-05,3.38134e-06,2.85142e-05,-1.11903e-05,3.62702e-05,6.58559e-07,0
-8.71704e-05,0.000480762,-2.78327e-06,1.96463e-05,3.123e-05,-1.17394e-05,5.55988e-05,-5.74445e-08,0
-7.14663e-05,0.00050694,4.96226e-06,2.07727e-05,3.55354e-05,-1.22877e-05,6.8409e-05,-1.16877e-06,0
-5.78758e-05,0.000474548,4.5896e-06,1.01777e-05,4.09642e-05,-1.35584e-05,7.36344e-05,-1.33431e-06,0
-5.16375e-05,0.000355545,-2.04263e-07,2.41374e-05,4.42365e-05,-1.40647e-05,7.304e-05,2.64745e-07,0
-4.99496e-05,0.000165736,-5.66267e-06,5.13469e-05,4.28889e-05,-1.36775e-05,6.76341e-05,3.52162e-06,0
-4.92271e-05,-6.02262e-05,-9.22103e-06,7.16856e-05,3.58411e-05,-1.29867e-05,5.75506e-05,5.6376e-06,0
-4.80867e-05,-0.000272884,-1.2214e-05,9.62723e-05,2.91252e-05,-1.31339e-05,4.26316e-05,4.97479e-06,0
-4.83208e-05,-0.000431151,-1.45539e-05,0.000109107,2.60425e-05,-1.38578e-05,2.73622e-05,4.89541e-06,0
-5.33894e-05,-0.000524172,-1.50742e-05,8.97702e-05,2.26118e-05,-1.34544e-05,1.48063e-05,6.01728e-06,0
-5.45969e-05,-0.000527881,-1.25053e-05,5.97671e-05,1.7418e-05,-1.20154e-05,4.15091e-06,4.34792e-06,0
-4.5385e-05,-0.000461164,-7.7643e-06,5.05482e-05,8.53729e-06,-1.22564e-05,-9.19045e-06,2.502e-06,0
-3.80601e-05,-0.00033355,-4.56557e-06,5.37531e-05,1.93185e-06,-1.46426e-05,-2.10043e-05,2.20483e-06,0
-4.27257e-05,-0.000170663,-4.77783e-06,4.19621e-05,2.53447e-06,-1.48903e-05,-2.39209e-05,2.56535e-06,0
-5.73119e-05,3.36924e-06,-5.73073e-06,8.30709e-06,6.26243e-06,-1.23074e-05,-1.93251e-05,3.29982e-06,0
-7.49599e-05,0.000147,-4.31115e-06,-3.15538e-05,6.04775e-06,-9.90982e-06,-9.25258e-06,2.86988e-06,0
-9.00233e-05,0.000218995,1.84738e-07,-5.92238e-05,2.46134e-06,-9.40895e-06,3.08627e-06,1.28882e-06,0
-9.73283e-05,0.000205775,3.88718e-06,-7.47535e-05,1.66711e-07,-9.97875e-06,1.47267e-05,-4.2321e-07,0
-9.42864e-05,0.000101626,4.61283e-06,-8.05461e-05,-1.19922e-06,-1.10935e-05,2.33686e-05,-2.2327e-06,0
-8.50394e-05,-7.07971e-05,6.091e-06,-7.51093e-05,-1.97046e-06,-1.32638e-05,2.72994e-05,-3.74303e-06,0
-7.73968e-05,-0.000254465,1.20675e-05,-5.60056e-05,-1.83744e-06,-1.59212e-05,2.66405e-05,-2.76958e-06,0
-7.6285e-05,-0.000369704,2.13152e-05,-3.19816e-05,8.37293e-07,-1.73328e-05,2.37418e-05,7.77041e-07,0
-8.28399e-05,-0.000392693,2.88634e-05,-1.84285e-05,4.7153e-06,-1.61809e-05,1.88348e-05,4.42358e-06,0
-9.43354e-05,-0.000348101,3.11123e-05,-2.03981e-05,9.1425e-06,-1.18618e-05,1.01673e-05,5.35742e-06,0
-9.72357e-05,-0.000277908,2.66289e-05,-2.39471e-05,1.51422e-05,-6.36183e-06,-1.27674e-06,3.67046e-06,0
-7.70753e-05,-0.000202237,1.44327e-05,-1.3475e-05,2.24504e-05,-2.72865e-06,-1.10832e-05,2.33599e-06,0
-4.43522e-05,-0.000142172,-5.43962e-06,9.77675e-06,2.60287e-05,-1.27293e-06,-1.76752e-05,3.41446e-06,0
-2.60911e-05,-0.000103822,-2.88222e-05,3.54228e-05,2.29748e-05,-2.59468e-06,-2.20428e-05,3.91202e-06,0
-2.36581e-05,-7.85537e-05,-5.07613e-05,4.40795e-05,1.61355e-05,-5.23149e-06,-2.42967e-05,2.96232e-06,0
-1.44851e-05,-6.03186e-05,-6.37565e-05,1.66186e-05,1.03889e-05,-7.0543e-06,-2.43443e-05,4.31105e-06,0
1.09228e-05,-4.61404e-05,-6.35955e-05,-3.48879e-05,7.00941e-06,-8.1649e-06,-2.15185e-05,6.87762e-06,0
3.60154e-05,-2.19574e-05,-5.54046e-05,-7.43558e-05,4.9585e-06,-6.77367e-06,-1.62252e-05,7.35703e-06,0
4.48342e-05,1.96051e-05,-4.58358e-05,-7.72898e-05,3.45852e-06,-4.86989e-06,-1.18431e-05,5.3249e-06,0
4.04259e-05,7.40825e-05,-3.47238e-05,-4.3699e-05,1.33343e-06,-5.13883e-06,-9.86775e-06,2.75041e-06,0
3.28712e-05,0.000127917,-2.3357e-05,2.04404e-06,9.13127e-07,-5.78179e-06,-7.52123e-06,2.46285e-06,0
2.60957e-05,0.000171611,-1.49988e-05,4.5152e-05,1.72212e-06,-5.92474e-06,-3.86081e-06,3.74025e-06,0
2.15331e-05,0.000202143,-7.71636e-06,7.71906e-05,4.67899e-06,-5.10684e-06,-1.33878e-07,3.63417e-06,0
2.15564e-05,0.000229118,-3.26379e-06,8.56081e-05,8.55087e-06,-1.52496e-06,4.0356e-06,2.188e-06,0
2.08965e-05,0.000271342,6.31276e-09,7.20943e-05,9.60434e-06,3.12588e-06,7.48536e-06,2.10196e-06,0
1.74681e-05,0.000300962,1.8498e-06,4.76437e-05,8.04096e-06,3.52189e-06,1.103e-05,4.28349e-06,0
1.11806e-05,0.000295951,2.21801e-06,3.3673e-05,7.76333e-06,9.48627e-07,1.38919e-05,5.60306e-06,0
3.45479e-06,0.000256458,2.63771e-06,3.76285e-05,8.99094e-06,-7.23879e-07,1.28007e-05,4.81132e-06,0
-2.25718e-06,0.000195335,-8.63839e-07,4.15886e-05,4.45854e-06,-3.57735e-07,1.10677e-05,2.76587e-06,0
-7.46039e-06,0.00012631,-9.68789e-06,3.38062e-05,-6.15208e-06,3.62936e-08,8.91805e-06,1.12761e-06,0
-1.68827e-05,7.21335e-05,-1.85419e-05,1.56169e-05,-1.68141e-05,-1.5084e-06,1.50144e-06,8.27128e-07,0
-2.92535e-05,4.22507e-05,-1.97643e-05,-1.37117e-05,-1.74794e-05,-2.99981e-06,-1.29414e-05,1.17357e-06,0
-3.72163e-05,2.54569e-05,-1.68266e-05,-5.7781e-05,-5.24425e-06,-1.21551e-06,-2.65426e-05,6.9042e-07,0
-3.9356e-05,2.80078e-05,-1.69705e-05,-0.000104397,9.27667e-06,2.51856e-06,-3.19585e-05,6.15207e-08,0
-3.7012e-05,6.80977e-05,-2.13116e-05,-0.000126731,1.34837e-05,2.58808e-06,-2.94359e-05,1.13507e-07,0
-2.52912e-05,0.000134171,-2.62896e-05,-0.000111424,8.65619e-06,-1.53914e-06,-2.15589e-05,-1.28571e-06,0
6.11572e-06,0.000196299,-2.73069e-05,-7.22446e-05,7.56726e-06,-4.38632e-06,-9.59085e-06,-4.0646e-06,0
5.40751e-05,0.000251808,-2.16082e-05,-3.07025e-05,1.46675e-05,-1.75748e-06,5.34525e-06,-4.19611e-06,0
9.72201e-05,0.000315882,-1.18599e-05,2.35326e-07,2.13188e-05,4.49616e-06,2.00919e-05,-5.11191e-07,0
0.000117544,0.000379877,-2.91573e-06,1.52356e-05,1.94343e-05,9.63392e-06,3.06741e-05,2.59349e-06,0
0.000113109,0.000398975,4.44345e-06,1.19513e-05,1.27376e-05,1.16964e-05,3.3919e-05,3.23457e-06,0
8.85345e-05,0.000358095,1.03588e-05,-7.41337e-06,6.33927e-06,1.1244e-05,3.35149e-05,1.81975e-06,0
5.25556e-05,0.000274896,1.28322e-05,-2.71595e-05,4.31903e-06,9.23548e-06,3.51664e-05,5.28191e-07,0
1.09446e-05,0.000152967,1.42757e-05,-2.98246e-05,6.09557e-06,7.9882e-06,3.5387e-05,3.90983e-07,0
-3.66212e-05,-4.36964e-06,1.73174e-05,-1.77331e-05,8.65422e-06,6.87787e-06,2.39938e-05,-4.47146e-07,0
-8.45852e-05,-0.000157249,2.11389e-05,-2.33346e-06,1.32502e-05,4.64692e-06,7.59927e-06,-2.18714e-06,0
-0.000126017,-0.000260827,2.71222e-05,8.16345e-06,2.26802e-05,1.13298e-06,-1.31604e-06,-2.346e-06,0
-0.000153581,-0.000320665,3.1487e-05,1.04996e-05,3.05928e-05,-1.94047e-06,2.86574e-06,-1.65574e-06,0
-0.000161498,-0.000348382,2.92467e-05,1.11615e-05,3.01627e-05,-5.94223e-06,1.55327e-05,-1.58669e-06,0
-0.000149716,-0.00034718,1.98859e-05,9.63802e-06,2.36043e-05,-1.20747e-05,2.59939e-05,-1.46433e-06,0
-0.000125293,-0.000318299,1.10648e-05,-3.40802e-07,1.77186e-05,-1.59834e-05,3.41718e-05,-1.07899e-06,0
-8.99916e-05,-0.000250838,5.80695e-06,-1.25687e-05,1.52254e-05,-1.80213e-05,3.84227e-05,5.87205e-07,0
-3.3417e-05,-0.000153087,-1.15592e-06,-1.62716e-05,9.1192e-06,-1.96874e-05,3.74343e-05,1.28252e-06,0
2.706e-05,-5.41462e-05,-7.93639e-06,-7.84416e-06,2.91677e-06,-1.99925e-05,2.96021e-05,8.84795e-07,0
6.40151e-05,1.62169e-05,-1.16712e-05,2.43617e-06,1.35654e-06,-1.76119e-05,2.04242e-05,8.88401e-07,0
7.3927e-05,3.5387e-05,-6.55008e-06,1.4412e-06,2.0684e-06,-1.43645e-05,1.5317e-05,9.83198e-07,0
6.60689e-05,-5.86206e-06,7.20544e-06,-1.48687e-05,2.2159e-06,-1.02138e-05,1.26371e-05,1.56023e-06,0
4.24835e-05,-9.36811e-05,1.82335e-05,-4.1962e-05,2.02775e-06,-4.45853e-06,9.83633e-06,2.31925e-06,0
-2.39643e-07,-0.0002132,1.9034e-05,-7.07595e-05,3.02097e-06,-2.67792e-07,6.72792e-06,3.32899e-06,0
-5.73351e-05,-0.000339811,1.4359e-05,-8.68374e-05,3.70696e-06,-1.27356e-06,5.77418e-06,3.56566e-06,0
-0.000119755,-0.000425698,1.06994e-05,-7.67296e-05,4.04104e-06,-7.30888e-06,7.09684e-06,3.07169e-06,0
-0.000171853,-0.000422148,6.22908e-06,-4.41385e-05,6.14956e-06,-1.4399e-05,1.09363e-05,2.36701e-06,0
-0.0002022,-0.000333439,1.15385e-07,-2.18616e-06,1.26905e-05,-1.87557e-05,1.38603e-05,1.44663e-06,0
-0.000216269,-0.00022702,-3.20411e-06,3.46908e-05,2.1234e-05,-1.93998e-05,1.23802e-05,9.52573e-07,0
-0.000233111,-0.000154347,-2.59176e-06,5.54008e-05,2.66439e-05,-2.02436e-05,4.75787e-06,1.03219e-07,0
-0.00025485,-0.000124977,-3.67385e-06,5.80334e-05,2.41884e-05,-2.29516e-05,-8.32203e-06,-1.25444e-06,0
-0.000251353,-0.000131042,-8.36722e-06,4.84451e-05,1.70745e-05,-2.44963e-05,-2.72287e-05,-1.78718e-06,0
-0.000195682,-0.000136483,-1.45302e-05,3.54726e-05,1.48379e-05,-2.14564e-05,-4.19869e-05,-1.0466e-06,0
-0.00011217,-9.49107e-05,-2.3047e-05,3.03781e-05,2.10076e-05,-1.52181e-05,-4.19772e-05,1.14464e-06,0
-4.77961e-05,-1.58673e-05,-3.63741e-05,3.54673e-05,3.02063e-05,-9.88487e-06,-2.98088e-05,2.87511e-06,0
-2.06242e-05,4.78078e-05,-4.98779e-05,3.65401e-05,3.56804e-05,-7.25017e-06,-1.42997e-05,2.6865e-06,0
-1.81815e-05,6.95945e-05,-5.46568e-05,2.0088e-05,3.41569e-05,-7.87512e-06,-1.30193e-05,1.33251e-06,0
-2.25492e-05,4.69948e-05,-4.49637e-05,-7.1068e-06,2.80437e-05,-1.10273e-05,-3.65021e-05,-4.37442e-07,0
-2.19993e-05,-1.19643e-05,-2.41684e-05,-3.0059e-05,2.13436e-05,-1.50067e-05,-6.29897e-05,-1.24671e-06,0
-1.53685e-05,-4.41708e-05,-2.52227e-06,-3.58798e-05,1.0867e-05,-2.06611e-05,-5.7525e-05,-8.87105e-07,0
-8.2425e-06,-2.67807e-05,1.02798e-05,-2.775e-05,-6.04549e-07,-2.39947e-05,-2.12452e-05,-1.4169e-06,0
-1.11484e-06,1.89521e-06,9.0437e-06,-1.7957e-05,-7.11349e-07,-2.16571e-05,2.01507e-05,-2.82221e-06,0
2.10719e-06,3.33217e-05,-6.32672e-06,1.09788e-05,1.39955e-05,-1.65714e-05,5.5666e-05,-1.50301e-06,0
-2.97942e-06,6.44414e-05,-3.13306e-05,7.25141e-05,3.0941e-05,-1.09558e-05,8.11155e-05,3.6099e-07,0
-1.12527e-05,0.000103999,-5.57095e-05,0.00012737,3.56904e-05,-8.99774e-06,9.59839e-05,4.47028e-07,0
-6.73128e-06,0.000150198,-7.18129e-05,0.000132291,3.13677e-05,-9.98234e-06,0.000100933,1.0575e-07,0
1.40927e-05,0.000177452,-7.80939e-05,9.65947e-05,2.70486e-05,-1.06118e-05,9.56512e-05,7.79115e-07,0
3.72991e-05,0.00016536,-7.578e-05,5.0585e-05,2.5969e-05,-1.02807e-05,8.49413e-05,1.39517e-06,0
5.32255e-05,0.000154462,-6.71188e-05,1.91473e-05,2.65306e-05,-9.97323e-06,7.34805e-05,1.56548e-06,0
5.73034e-05,0.0001866,-5.26435e-05,1.29969e-05,2.58804e-05,-9.10666e-06,6.22065e-05,2.7729e-06,0
4.3209e-05,0.000237315,-3.52209e-05,2.93839e-05,2.56943e-05,-8.33734e-06,5.26519e-05,4.67848e-06,0
1.04961e-05,0.000254603,-1.8773e-05,5.18482e-05,2.73958e-05,-9.58787e-06,4.70219e-05,5.23727e-06,0
-2.9812e-05,0.000220318,-4.90832e-06,5.64171e-05,3.01533e-05,-1.10473e-05,4.49879e-05,3.72714e-06,0
-5.7358e-05,0.000169716,8.6881e-06,2.97509e-05,3.12287e-05,-1.20011e-05,4.66081e-05,2.16034e-06,0
-5.63597e-05,0.000130916,2.20717e-05,-9.96018e-06,2.94221e-05,-1.36123e-05,4.89217e-05,1.3809e-06,0
-3.27979e-05,0.000110042,3.03574e-05,-3.305e-05,2.42628e-05,-1.50827e-05,4.83897e-05,1.52006e-06,0
-1.08911e-05,0.000103212,3.09465e-05,-5.18174e-05,1.77777e-05,-1.4288e-05,4.3568e-05,2.04743e-06,0
-1.19415e-05,0.00011769,2.2591e-05,-8.92748e-05,1.10271e-05,-1.34209e-05,3.50769e-05,4.11324e-06,0
-3.68496e-05,0.000157649,6.53737e-06,-0.000124399,3.84152e-06,-1.57802e-05,2.34188e-05,6.68108e-06,0
-6.75459e-05,0.000215875,-1.33009e-05,-0.000119708,-4.14958e-06,-1.96594e-05,1.47437e-05,7.63412e-06,0
-8.28902e-05,0.000285746,-3.14956e-05,-6.79835e-05,-1.23324e-05,-2.04585e-05,1.42703e-05,6.68125e-06,0
-8.07114e-05,0.000361209,-4.29275e-05,-7.71147e-06,-1.25528e-05,-1.69466e-05,1.77748e-05,6.49119e-06,0
-7.42676e-05,0.000405655,-4.50179e-05,-2.63854e-06,-1.17944e-06,-1.11344e-05,1.83602e-05,8.10663e-06,0
-5.72874e-05,0.000376792,-3.80056e-05,-5.99327e-05,1.137e-05,-7.47904e-06,1.23059e-05,8.69453e-06,0
-1.63929e-05,0.000261051,-2.47668e-05,-0.000115165,1.65303e-05,-5.52821e-06,-3.41599e-06,7.41621e-06,0
4.58528e-05,6.88724e-05,-1.34184e-05,-0.000127984,2.13406e-05,-1.38833e-06,-3.21547e-05,6.2359e-06,0
9.99655e-05,-0.00011183,-9.6859e-06,-0.000115717,2.94207e-05,1.70794e-06,-5.47375e-05,5.79531e-06,0
0.000116704,-0.000204506,-9.86826e-06,-8.28749e-05,3.31523e-05,2.3708e-06,-5.27559e-05,4.13536e-06,0
0.000101041,-0.000211715,-7.09087e-06,-4.30654e-05,2.94835e-05,1.36629e-06,-3.27762e-05,2.27097e-06,0
7.74585e-05,-0.000141181,-2.96715e-06,-3.60389e-05,1.90856e-05,-2.53511e-06,-7.62222e-06,1.52249e-06,0
7.2014e-05,-3.53948e-05,-2.65197e-06,-6.3221e-05,6.49168e-06,-7.64267e-06,1.0513e-05,1.18933e-06,0
8.06127e-05,7.55761e-05,-7.85621e-06,-9.2506e-05,-4.25523e-06,-1.22511e-05,2.37956e-05,1.50819e-06,0
9.1193e-05,0.000173197,-1.34511e-05,-0.000116451,-1.11693e-05,-1.4942e-05,3.51275e-05,1.60808e-06,0
9.86587e-05,0.000231578,-1.36731e-05,-0.000144926,-1.17982e-05,-1.43732e-05,4.1624e-05,2.24111e-06,0
9.52149e-05,0.000221935,-1.04818e-05,-0.00016849,-5.87616e-06,-1.10394e-05,3.94802e-05,3.50046e-06,0
6.24804e-05,0.000139996,-9.06861e-06,-0.000168913,1.93755e-06,-8.98085e-06,3.11912e-05,3.30183e-06,0
1.44133e-05,8.67647e-06,-1.34705e-05,-0.000120995,3.95263e-06,-1.07375e-05,2.22613e-05,1.5664e-06,0
-1.30974e-05,-0.000145298,-2.09677e-05,-1.78165e-05,1.71472e-06,-1.36452e-05,1.61784e-05,-7.08005e-07,0
-1.86213e-05,-0.000275341,-2.52443e-05,0.00012226,3.51937e-06,-1.41018e-05,1.28226e-05,-2.07508e-06,0
-1.54779e-05,-0.000349656,-2.30438e-05,0.000263273,1.3985e-05,-1.12235e-05,9.18638e-06,-2.23333e-06,0
-1.66099e-05,-0.000353182,-1.72455e-05,0.000349112,2.93095e-05,-8.54006e-06,6.88951e-06,-1.17265e-06,0
-3.1034e-05,-0.00030454,-1.3325e-05,0.000336003,4.26577e-05,-8.81814e-06,5.94785e-06,-5.14249e-07,0
-6.41103e-05,-0.000243335,-1.62015e-05,0.000243974,4.72401e-05,-1.07084e-05,6.49e-06,-2.45869e-07,0
-0.000103859,-0.000203391,-2.23674e-05,0.000136734,4.17455e-05,-1.19339e-05,6.38914e-06,1.9296e-07,0
-0.000132881,-0.000163227,-2.10551e-05,6.10217e-05,3.31351e-05,-1.14792e-05,6.77758e-06,-3.41936e-07,0
-0.000138039,-9.74583e-05,-6.5993e-06,1.7199e-05,2.71808e-05,-7.91859e-06,1.41496e-05,-1.40245e-06,0
-0.000124029,-1.25489e-05,1.74212e-05,-2.03959e-05,2.17767e-05,-3.02525e-06,5.03375e-05,-5.51702e-07,0
-0.000107537,6.6695e-05,4.25784e-05,-5.43763e-05,1.40543e-05,-1.3131e-06,0.00013171,1.66324e-06,0
-9.59235e-05,0.00012471,5.77348e-05,-6.83811e-05,7.89387e-06,-3.59234e-06,0.000226297,2.48618e-06,0
-8.60779e-05,0.000163464,5.81768e-05,-6.10878e-05,8.73627e-06,-5.99464e-06,0.000278501,2.28422e-06,0
-8.09763e-05,0.000172743,5.17907e-05,-4.40543e-05,1.24285e-05,-5.64004e-06,0.000257549,2.67715e-06,0
-8.45733e-05,0.000123983,4.87731e-05,-1.74014e-05,1.45006e-05,-3.67489e-06,0.000174488,2.40084e-06,0
-9.08703e-05,2.4551e-05,4.5077e-05,2.68569e-05,1.67645e-05,-2.85088e-06,5.77694e-05,-4.28343e-08,0
-8.93498e-05,-4.91231e-05,3.20794e-05,6.79854e-05,1.60533e-05,-2.86055e-06,-6.90852e-05,-1.62595e-06,0
-7.62429e-05,-7.83346e-05,1.78266e-05,7.78126e-05,1.2141e-05,-4.48791e-06,-0.000183959,-1.92553e-06,0
-5.81845e-05,-7.81125e-05,8.33849e-06,7.64403e-05,9.06797e-06,-6.8977e-06,-0.000265266,-1.20937e-06,0
-3.74375e-05,-4.28956e-05,-7.95442e-07,8.36834e-05,6.60324e-06,-7.46855e-06,-0.000283791,8.39715e-07,0
-1.77891e-05,-8.603e-06,-1.3742e-05,8.27061e-05,5.01457e-06,-6.90338e-06,-0.000243602,1.98834e-06,0
-4.40982e-06,-7.09756e-06,-3.53374e-05,5.32251e-05,4.18625e-06,-4.95719e-06,-0.000179598,1.11855e-06,0
-1.71061e-06,-4.17589e-05,-6.16214e-05,8.48366e-06,1.83874e-06,-3.69387e-06,-0.000129074,-4.27706e-07,0
-9.0055e-06,-7.23696e-05,-7.85313e-05,-2.88531e-05,-1.73927e-06,-4.13832e-06,-9.7649e-05,-2.54359e-07,0
-1.88144e-05,-6.44747e-05,-7.68178e-05,-5.55532e-05,-5.31411e-06,-5.09914e-06,-7.07048e-05,3.98478e-07,0
-2.39027e-05,-2.59371e-05,-5.8976e-05,-7.20079e-05,-7.06651e-06,-5.90571e-06,-4.44234e-05,-5.58091e-07,0
-2.4482e-05,1.61001e-05,-3.34951e-05,-7.4751e-05,-6.10903e-06,-6.28992e-06,-1.823e-05,-2.34451e-06,0
-2.2872e-05,4.06693e-05,-7.9446e-06,-4.7244e-05,-2.2157e-06,-6.98994e-06,4.15519e-06,-3.34777e-06,0
-2.18621e-05,5.98287e-05,1.1833e-05,5.42187e-06,1.83319e-06,-7.71675e-06,2.28899e-05,-3.72939e-06,0
-1.88254e-05,8.84406e-05,2.18613e-05,2.46814e-05,4.90982e-06,-6.7403e-06,3.52882e-05,-4.09705e-06,0
-7.37312e-06,0.000127999,2.27261e-05,-3.08916e-05,6.96168e-06,-4.59002e-06,4.17917e-05,-4.30966e-06,0
9.71518e-06,0.000163063,1.84409e-05,-0.000125536,6.954e-06,-3.32545e-06,4.2406e-05,-4.52737e-06,0
1.85607e-05,0.000180985,1.28256e-05,-0.000201823,6.61695e-06,-3.47952e-06,4.11387e-05,-3.92743e-06,0
1.20698e-05,0.000166987,9.30241e-06,-0.000229545,7.92868e-06,-4.51064e-06,3.75865e-05,-2.18529e-06,0
-3.68029e-06,0.000136686,9.29369e-06,-0.000204556,1.19604e-05,-5.80263e-06,3.29648e-05,-1.18722e-06,0
-2.18917e-05,0.000122563,1.43241e-05,-0.000145037,1.69536e-05,-7.02858e-06,2.7698e-05,-2.18686e-06,0
-3.5344e-05,0.000129386,2.31909e-05,-8.02435e-05,1.73965e-05,-7.62875e-06,2.18482e-05,-2.62505e-06,0
-3.4829e-05,0.000145259,2.91813e-05,-3.0299e-05,1.16601e-05,-6.42942e-06,1.05456e-05,-1.19726e-06,0
-2.25987e-05,0.000173231,2.87628e-05,-9.53566e-07,5.8852e-06,-3.82721e-06,-3.91373e-06,1.39808e-07,0
-1.26911e-05,0.000194415,2.26726e-05,1.43278e-05,2.89445e-06,-2.82264e-06,-9.7588e-06,-1.41175e-06,0
-1.06915e-05,0.000185013,1.17808e-05,1.67743e-05,4.30071e-07,-3.29092e-06,-6.86372e-06,-4.48178e-06,0
-1.55394e-05,0.000126647,1.72239e-06,5.03708e-06,-4.79794e-06,-2.66803e-06,-1.06443e-06,-6.06735e-06,0
-2.95941e-05,6.6513e-06,-2.54724e-07,-8.11436e-06,-9.00765e-06,-2.12171e-06,6.63005e-06,-6.32129e-06,0
-5.10999e-05,-0.000108316,5.76557e-06,-4.83155e-06,-8.85014e-06,-4.4678e-06,1.70355e-05,-6.25896e-06,0
-6.71437e-05,-0.000163574,1.17153e-05,2.46073e-05,-6.86787e-06,-7.15725e-06,2.88266e-05,-6.33388e-06,0
-7.15257e-05,-0.000152908,8.93869e-06,6.31903e-05,-3.36593e-06,-7.15954e-06,4.19389e-05,-5.64665e-06,0
-6.62587e-05,-8.05609e-05,-1.91787e-06,7.59859e-05,2.86617e-06,-8.39043e-06,5.03528e-05,-4.46875e-06,0
-5.81746e-05,1.69247e-05,-1.36378e-05,5.37586e-05,1.27395e-05,-1.14278e-05,5.25924e-05,-3.12654e-06,0
-5.34827e-05,9.30292e-05,-2.72102e-05,1.48126e-05,2.07519e-05,-1.31832e-05,5.06144e-05,-3.26269e-06,0
-5.32072e-05,9.84952e-05,-4.12707e-05,-2.15706e-05,2.35296e-05,-1.4038e-05,4.58994e-05,-5.21778e-06,0
-5.7964e-05,4.75271e-05,-4.50829e-05,-4.13288e-05,2.24997e-05,-1.47603e-05,4.00255e-05,-7.84823e-06,0
-6.71961e-05,-1.901e-06,-3.57784e-05,-4.38919e-05,2.00633e-05,-1.43183e-05,3.58321e-05,-8.87078e-06,0
-7.49041e-05,-6.24374e-06,-1.99852e-05,-3.04538e-05,2.08978e-05,-1.21391e-05,3.46424e-05,-7.19863e-06,0
-7.51274e-05,2.95997e-05,-9.33236e-06,2.08179e-06,2.43111e-05,-9.76913e-06,3.47701e-05,-4.48675e-06,0
-6.96775e-05,6.31826e-05,-9.9706e-06,5.50779e-05,2.67454e-05,-7.55158e-06,3.41137e-05,-1.08771e-06,0
-6.5046e-05,8.92065e-05,-1.73846e-05,0.000108454,2.77551e-05,-6.39063e-06,3.21477e-05,2.55945e-06,0
-6.56331e-05,0.000120991,-2.37669e-05,0.000131155,2.88431e-05,-7.42334e-06,2.8819e-05,4.59143e-06,0
-6.44959e-05,0.000149858,-2.49467e-05,0.000113963,2.81622e-05,-1.08233e-05,2.53429e-05,4.0292e-06,0
-5.16389e-05,0.000139762,-2.21289e-05,7.18993e-05,2.32371e-05,-1.54156e-05,2.27056e-05,2.25896e-06,0
-2.81469e-05,7.27569e-05,-1.65494e-05,3.27389e-05,1.29741e-05,-1.88089e-05,2.0418e-05,1.28066e-06,0
-7.84671e-06,-4.60419e-05,-8.95054e-06,1.85897e-05,-9.45566e-07,-2.01561e-05,1.74101e-05,2.43466e-06,0
-3.97148e-06,-0.00018372,-3.39908e-06,2.60759e-05,-1.12342e-05,-2.08366e-05,1.47688e-05,3.43412e-06,0
-1.72232e-05,-0.000295688,-4.58672e-06,2.38245e-05,-1.24122e-05,-2.10422e-05,1.39523e-05,2.73167e-06,0
-3.47571e-05,-0.00033402,-8.21381e-06,-2.63614e-06,-4.35932e-06,-1.82953e-05,1.49626e-05,8.88137e-07,0
-4.69454e-05,-0.000290922,-5.3524e-06,-3.34913e-05,1.01768e-05,-1.33721e-05,1.70726e-05,1.84972e-07,0
-5.38442e-05,-0.000198706,3.86973e-06,-4.80352e-05,2.65665e-05,-9.69728e-06,1.806e-05,1.70527e-06,0
-5.78492e-05,-7.34352e-05,1.28265e-05,-4.276e-05,3.6039e-05,-8.14418e-06,1.72598e-05,3.01985e-06,0
-6.0263e-05,5.04144e-05,1.39098e-05,-3.096e-05,3.21978e-05,-9.5362e-06,1.60245e-05,2.27255e-06,0
-6.21885e-05,0.000130233,5.01976e-06,-3.80621e-05,2.00247e-05,-1.40612e-05,1.52915e-05,3.2356e-07,0
-6.33278e-05,0.000196544,-8.31115e-06,-6.86395e-05,8.62769e-06,-1.91405e-05,1.58009e-05,-7.80704e-07,0
-5.65283e-05,0.000286749,-2.10169e-05,-9.37938e-05,5.79839e-06,-2.13555e-05,1.5804e-05,-8.84532e-07,0
-3.94119e-05,0.000389248,-3.09783e-05,-9.86407e-05,9.2515e-06,-1.92045e-05,1.41983e-05,-5.52112e-07,0
-2.3667e-05,0.000446426,-3.00755e-05,-8.8541e-05,1.12091e-05,-1.44756e-05,1.14116e-05,1.33564e-06,0
-1.65013e-05,0.000392754,-1.55921e-05,-6.40087e-05,1.0275e-05,-9.61728e-06,4.56581e-06,2.62797e-06,0
-9.55299e-06,0.000257639,1.44702e-06,-4.07355e-05,7.07677e-06,-7.05528e-06,-3.90461e-06,1.91884e-06,0
8.60406e-06,0.000105204,1.14648e-05,-3.40349e-05,3.77749e-06,-6.08571e-06,-7.77757e-06,1.47504e-06,0
3.66217e-05,-1.74635e-05,1.08829e-05,-3.85937e-05,1.11518e-06,-4.22703e-06,-4.49738e-06,1.9031e-06,0
6.11933e-05,-0.000101494,5.71967e-06,-5.19466e-05,3.39713e-06,-5.50199e-07,3.60805e-06,3.80704e-06,0
6.91123e-05,-0.000192154,-1.03981e-06,-6.32067e-05,1.03522e-05,2.01896e-06,1.34531e-05,4.0844e-06,0
5.1802e-05,-0.00030406,-1.35279e-05,-4.51902e-05,1.57522e-05,9.23328e-07,2.20409e-05,3.03889e-06,0
1.59367e-05,-0.000372209,-3.048e-05,1.12774e-05,1.52835e-05,-4.42538e-06,2.68228e-05,2.46047e-06,0
-2.20304e-05,-0.000348439,-4.16256e-05,7.96536e-05,1.26338e-05,-1.17527e-05,2.88413e-05,2.62043e-06,0
-4.91631e-05,-0.000260311,-4.04112e-05,0.000114965,1.5296e-05,-1.61628e-05,2.84435e-05,3.69624e-06,0
-5.97185e-05,-0.000160818,-2.93875e-05,0.000109038,2.07374e-05,-1.62637e-05,2.59708e-05,5.00141e-06,0
-5.78728e-05,-0.000100318,-1.51472e-05,9.23915e-05,2.25079e-05,-1.35538e-05,2.327e-05,5.89605e-06,0
-5.61544e-05,-8.55796e-05,-6.77643e-06,8.03228e-05,1.88718e-05,-1.19329e-05,2.19057e-05,5.79631e-06,0
-6.51157e-05,-5.44303e-05,-7.86423e-06,6.07584e-05,1.22294e-05,-1.4295e-05,2.32743e-05,5.8898e-06,0
-9.03215e-05,2.27903e-05,-1.1245e-05,2.94298e-05,4.58009e-06,-2.03718e-05,2.80173e-05,6.01403e-06,0
-0.000130963,6.48398e-05,-6.88466e-06,9.64367e-06,-5.06516e-07,-2.53834e-05,3.42165e-05,5.3091e-06,0
-0.000155078,-3.48642e-06,3.94201e-06,1.4947e-05,3.27532e-08,-2.54386e-05,3.82724e-05,3.26364e-06,0
-0.000125498,-0.000144805,1.17508e-05,2.59996e-05,3.73409e-06,-2.12985e-05,3.93424e-05,1.31052e-06,0
-6.00815e-05,-0.000261991,1.21012e-05,1.81093e-05,4.05573e-06,-1.78722e-05,3.77571e-05,9.175e-07,0
-5.42696e-06,-0.000284369,1.05445e-05,-4.14813e-06,6.50722e-07,-1.93061e-05,3.31907e-05,1.08182e-06,0
1.58356e-05,-0.000209777,1.1705e-05,-1.76335e-05,-1.12238e-06,-2.1995e-05,2.48251e-05,-6.58219e-08,0
5.46281e-06,-8.55068e-05,1.42549e-05,-9.26734e-06,2.91769e-06,-2.15822e-05,8.60952e-06,-3.43052e-07,0
-2.59791e-05,1.61465e-05,1.25077e-05,7.06148e-06,9.37184e-06,-1.81311e-05,-1.20563e-05,2.64875e-06,0
-8.061e-05,5.09158e-05,2.14468e-06,5.23088e-06,1.19698e-05,-1.53061e-05,-2.61144e-05,6.62456e-06,0
-0.000133899,2.68679e-05,-1.1469e-05,-2.21216e-05,1.06968e-05,-1.51093e-05,-2.82804e-05,7.09867e-06,0
-0.000144513,-7.99377e-06,-2.06241e-05,-5.44291e-05,8.07195e-06,-1.77751e-05,-2.11391e-05,6.19511e-06,0
-0.000106617,-6.53305e-06,-1.75631e-05,-7.82342e-05,6.25665e-06,-2.12377e-05,-1.12327e-05,6.39695e-06,0
-3.0369e-05,3.22584e-05,2.79969e-06,-9.19325e-05,7.54268e-06,-2.21352e-05,-7.58882e-07,6.10942e-06,0
4.321e-05,9.7772e-05,3.0992e-05,-9.9434e-05,1.38031e-05,-2.09147e-05,9.95561e-06,3.92426e-06,0
6.29213e-05,0.000172792,5.1911e-05,-0.000101905,1.9661e-05,-1.86622e-05,1.93396e-05,7.70452e-07,0
3.01295e-05,0.000237919,5.18823e-05,-8.20289e-05,1.70124e-05,-1.8121e-05,2.47496e-05,6.10735e-07,0
4.99434e-06,0.000257499,3.02948e-05,-3.01378e-05,1.00185e-05,-1.84398e-05,2.692e-05,1.93575e-06,0
1.88154e-05,0.000207411,-6.35393e-06,5.01326e-05,7.77288e-06,-1.77088e-05,2.72027e-05,2.17593e-06,0
5.25752e-05,0.000111873,-4.97211e-05,0.000131273,1.28809e-05,-1.52817e-05,2.53409e-05,1.37689e-06,0
7.45409e-05,1.57101e-05,-8.57723e-05,0.000170197,2.11457e-05,-1.3452e-05,2.11347e-05,1.01233e-06,0
6.8174e-05,-5.392e-05,-0.000103977,0.000143629,2.67021e-05,-1.41566e-05,1.64861e-05,1.72171e-07,0
4.58293e-05,-8.65952e-05,-0.000101068,7.23771e-05,2.90922e-05,-1.5542e-05,1.20127e-05,-2.40279e-06,0
2.18333e-05,-7.77657e-05,-8.49168e-05,7.01358e-06,3.1849e-05,-1.6393e-05,1.6669e-06,-4.61225e-06,0
8.44323e-06,-3.85582e-05,-6.62873e-05,-1.72785e-05,3.71547e-05,-1.63394e-05,-1.61089e-05,-4.1782e-06,0
1.16508e-05,8.69772e-06,-5.19191e-05,-3.25997e-06,4.2049e-05,-1.5721e-05,-3.67659e-05,-2.27902e-06,0
2.90045e-05,4.59297e-05,-4.06344e-05,2.68177e-05,4.13135e-05,-1.43788e-05,-5.65304e-05,-5.13618e-07,0
4.75622e-05,7.8028e-05,-3.01915e-05,6.3935e-05,3.29817e-05,-1.43586e-05,-6.66087e-05,1.23557e-06,0
5.73065e-05,0.000116698,-2.12562e-05,0.000116193,2.0111e-05,-1.50821e-05,-5.4085e-05,2.56016e-06,0
5.0183e-05,0.000169059,-1.55186e-05,0.00017342,5.72157e-06,-1.55255e-05,-2.03659e-05,2.86742e-06,0
2.8852e-05,0.000219081,-1.23943e-05,0.000167978,-6.80772e-06,-1.63031e-05,2.13934e-05,2.00169e-06,0
1.0755e-06,0.000239095,-1.009e-05,6.95631e-05,-1.26135e-05,-1.66996e-05,5.57213e-05,8.89107e-07,0
-2.53376e-05,0.000212818,-4.43639e-06,-3.63765e-05,-7.80948e-06,-1.38684e-05,7.32658e-05,7.05477e-07,0
-4.37437e-05,0.000146471,4.2244e-06,-7.23424e-05,4.01352e-06,-8.35856e-06,7.57141e-05,2.36761e-06,0
-5.85343e-05,7.9336e-05,1.05792e-05,-4.06375e-05,1.2519e-05,-5.23977e-06,6.97715e-05,3.54882e-06,0
-7.38115e-05,3.00449e-05,1.59415e-05,1.63611e-05,1.45923e-05,-6.05888e-06,6.03306e-05,3.21053e-06,0
-8.53776e-05,-3.28629e-05,2.83605e-05,6.6439e-05,1.44722e-05,-6.61437e-06,4.9904e-05,2.34879e-06,0
-9.27408e-05,-0.000102282,4.91168e-05,9.99502e-05,1.49344e-05,-7.01074e-06,4.3254e-05,6.0387e-07,0
-9.82243e-05,-0.000150091,6.70477e-05,8.72389e-05,1.53425e-05,-8.12371e-06,4.1131e-05,5.72312e-08,0
-9.41458e-05,-0.000141471,7.14581e-05,1.06595e-06,1.59421e-05,-7.378e-06,3.04625e-05,8.77562e-07,0
-7.32485e-05,-5.02833e-05,6.46699e-05,-9.38102e-05,2.1558e-05,-3.31051e-06,-3.66766e-06,7.86327e-07,0
-4.39518e-05,6.93875e-05,5.28175e-05,-0.000137773,2.94066e-05,2.35703e-06,-4.70697e-05,-3.73733e-07,0
-2.24312e-05,0.000155579,3.70076e-05,-0.00017261,2.9336e-05,4.87574e-06,-6.65795e-05,-2.21202e-06,0
-1.37793e-05,0.000175933,2.00124e-05,-0.000209141,2.35122e-05,3.04762e-06,-5.11692e-05,-3.23105e-06,0
-1.57999e-05,0.000137739,4.11837e-06,-0.000214769,2.04515e-05,-3.4443e-07,-1.61949e-05,-1.98322e-06,0
-2.20246e-05,7.42602e-05,-7.01522e-06,-0.000178444,1.82584e-05,-1.88184e-06,1.68252e-05,4.54343e-07,0
-2.77535e-05,2.22622e-05,-1.81297e-05,-0.000115181,1.06248e-05,-2.62953e-06,4.051e-05,1.18778e-06,0
-2.92905e-05,-7.01997e-06,-2.90859e-05,-4.05439e-05,-1.30039e-06,-3.59863e-06,5.62326e-05,-8.57689e-08,0
-2.68109e-05,-2.81056e-05,-3.40573e-05,2.74253e-05,-7.82713e-06,-4.19994e-06,6.31003e-05,-1.23114e-06,0
-2.18036e-05,-4.16909e-05,-3.31541e-05,7.71302e-05,-5.52743e-06,-4.33927e-06,6.08666e-05,-1.44445e-06,0
-1.66313e-05,-4.31432e-05,-2.73446e-05,0.000115598,-1.31707e-06,-5.18039e-06,5.25381e-05,-9.45424e-07,0
-1.27942e-05,-2.74741e-05,-1.54122e-05,0.000131404,2.8759e-06,-7.21373e-06,4.30952e-05,-2.41917e-07,0
-1.0458e-05,1.35494e-05,1.59913e-06,0.000101695,1.05892e-05,-9.59116e-06,3.44609e-05,-2.66824e-07,0
-1.03661e-05,9.10421e-05,1.42143e-05,3.31921e-05,1.96206e-05,-1.05892e-05,2.677e-05,-9.09146e-07,0
-1.07868e-05,0.000197588,1.34633e-05,-3.17583e-05,2.21637e-05,-9.84003e-06,2.02538e-05,-1.0426e-06,0
-1.04415e-05,0.000296,-2.40697e-06,-6.72119e-05,1.80339e-05,-9.62296e-06,1.64695e-05,-7.46594e-07,0
-1.24246e-05,0.000340009,-2.62539e-05,-7.4586e-05,1.52857e-05,-1.03671e-05,1.52817e-05,-9.72925e-07,0
-2.24961e-05,0.000302859,-5.02036e-05,-6.2371e-05,1.74667e-05,-1.05916e-05,1.56595e-05,-1.96487e-06,0
-3.98711e-05,0.000177137,-6.19741e-05,-3.48949e-05,1.86697e-05,-1.02581e-05,1.66869e-05,-3.38295e-06,0
-5.81325e-05,-7.34329e-06,-5.37927e-05,-1.57321e-05,1.79666e-05,-9.60965e-06,1.76545e-05,-3.62446e-06,0
-7.47868e-05,-0.000193761,-4.14572e-05,-4.01533e-05,1.94891e-05,-9.23674e-06,1.59259e-05,-2.07053e-06,0
-9.19565e-05,-0.000338045,-4.14296e-05,-9.9886e-05,2.20278e-05,-1.24824e-05,1.23295e-05,6.83949e-08,0
-0.000104247,-0.000412322,-4.59653e-05,-0.000149144,2.55311e-05,-1.72961e-05,1.09959e-05,6.96762e-07,0
-0.000105581,-0.000421111,-4.61787e-05,-0.000172099,3.05079e-05,-1.69369e-05,1.04556e-05,3.54923e-07,0
-9.66386e-05,-0.00037952,-4.3604e-05,-0.000183293,3.1491e-05,-1.18462e-05,5.59703e-06,1.40329e-06,0
-8.41434e-05,-0.000292701,-3.93212e-05,-0.000184251,2.69093e-05,-6.60522e-06,-1.4351e-06,2.3297e-06,0
-7.06531e-05,-0.000177261,-3.07839e-05,-0.000164078,2.29875e-05,-2.82684e-06,-5.54479e-06,2.34208e-06,0
-5.32093e-05,-6.86839e-05,-2.04285e-05,-0.000131335,2.03376e-05,-2.2806e-06,-5.9938e-06,2.33469e-06,0
-3.52224e-05,1.18411e-05,-1.49864e-05,-9.58785e-05,1.71268e-05,-3.77276e-06,-4.10256e-06,2.93663e-06,0
-2.11904e-05,7.7595e-05,-1.32167e-05,-4.77109e-05,1.48851e-05,-4.5492e-06,-5.88659e-07,3.86153e-06,0
-1.755e-05,0.000122227,-1.54375e-05,3.92846e-06,1.41324e-05,-4.20368e-06,3.72002e-06,5.26799e-06,0
-1.51745e-05,0.000143865,-2.2687e-05,3.1458e-05,1.31354e-05,-2.74329e-06,1.89316e-06,5.44228e-06,0
1.75603e-05,0.000169368,-2.76863e-05,1.55039e-05,1.05332e-05,-2.69693e-06,-7.36698e-06,2.50309e-06,0
7.81273e-05,0.000201595,-2.41268e-05,-1.68804e-05,8.71748e-06,-3.44299e-06,-2.05452e-05,-1.24913e-06,0
0.000120073,0.000237104,-1.7842e-05,-2.33314e-05,1.09752e-05,-1.34842e-06,-3.28496e-05,-1.86205e-06,0
0.000116522,0.00029304,-1.96486e-05,3.23154e-06,1.61627e-05,2.72419e-06,-3.63065e-05,-4.66244e-07,0
7.84338e-05,0.000337193,-3.01745e-05,4.22374e-05,2.23845e-05,6.05161e-06,-2.76343e-05,5.15913e-07,0
2.73172e-05,0.000287418,-3.76391e-05,6.89446e-05,2.67213e-05,7.39791e-06,-1.03739e-05,1.26656e-06,0
-2.23683e-05,0.000132775,-3.56857e-05,6.46535e-05,2.62422e-05,6.68614e-06,8.55167e-06,1.96697e-06,0
-6.55386e-05,-5.10549e-05,-3.18607e-05,3.53708e-05,2.20912e-05,2.97549e-06,2.5002e-05,2.44641e-06,0
-0.000101715,-0.000192976,-3.11521e-05,1.86472e-05,1.91998e-05,-2.49096e-06,3.82217e-05,2.72216e-06,0
-0.000126796,-0.000259471,-2.96741e-05,4.04316e-05,2.15254e-05,-7.33692e-06,4.86447e-05,3.25893e-06,0
-0.000136176,-0.000230615,-2.76122e-05,8.49581e-05,2.47267e-05,-1.16585e-05,5.68719e-05,2.68377e-06,0
-0.000133822,-0.000131658,-2.60837e-05,0.000117129,2.34656e-05,-1.51221e-05,6.155e-05,1.97695e-06,0
-0.000124718,-1.5478e-05,-1.8261e-05,0.000118518,2.00213e-05,-1.6533e-05,5.97843e-05,3.62862e-06,0
-0.000111505,7.94696e-05,-3.91605e-06,8.99805e-05,1.66466e-05,-1.61832e-05,5.31282e-05,6.90391e-06,0
-9.72516e-05,9.53797e-05,8.32819e-06,4.68467e-05,8.71628e-06,-1.5156e-05,4.29971e-05,7.32902e-06,0
-8.01337e-05,-9.60211e-06,1.6978e-05,3.61244e-06,-2.54161e-06,-1.35564e-05,2.72137e-05,4.86902e-06,0
-6.11553e-05,-0.000158731,2.45512e-05,-3.21347e-05,-9.00793e-06,-1.15826e-05,9.9055e-06,3.43546e-06,0
-5.32567e-05,-0.000231546,2.79156e-05,-6.36096e-05,-9.41239e-06,-1.08281e-05,-9.02597e-06,4.92716e-06,0
-5.80056e-05,-0.000181731,2.37226e-05,-9.41452e-05,-6.76521e-06,-1.15229e-05,-4.18942e-05,5.97698e-06,0
-6.15855e-05,-7.16273e-05,1.75037e-05,-0.000112104,-2.64371e-06,-1.20243e-05,-7.86232e-05,4.86941e-06,0
-6.30305e-05,1.98537e-05,1.29191e-05,-0.000114815,3.01431e-06,-1.26213e-05,-8.94497e-05,3.34269e-06,0
-6.84249e-05,6.4868e-05,8.33198e-06,-0.000105573,1.0523e-05,-1.40316e-05,-6.67343e-05,1.91196e-06,0
-7.36523e-05,2.19717e-05,3.55079e-06,-6.20414e-05,1.70681e-05,-1.50393e-05,-2.27975e-05,5.91287e-07,0
-7.30319e-05,-9.36551e-05,-1.40097e-06,3.45594e-05,1.94573e-05,-1.33952e-05,2.27915e-05,-2.85683e-07,0
-6.61565e-05,-0.000210967,1.22159e-06,0.000152094,1.78698e-05,-1.09113e-05,5.54608e-05,-6.04232e-07,0
-5.07285e-05,-0.000258671,1.23607e-05,0.000234982,1.68054e-05,-1.20369e-05,7.37582e-05,-1.01591e-06,0
-2.5864e-05,-0.000224401,2.37691e-05,0.000258243,1.92802e-05,-1.53881e-05,8.30458e-05,-7.6885e-07,0
-1.68745e-06,-0.000134398,2.87078e-05,0.000235414,2.22829e-05,-1.66276e-05,8.554e-05,-1.41568e-06,0
1.00587e-05,-1.82067e-05,2.78773e-05,0.00019215,2.28274e-05,-1.44529e-05,8.23836e-05,-2.31436e-06,0
4.83345e-06,8.41024e-05,2.91865e-05,0.00013958,2.14806e-05,-9.01149e-06,7.82649e-05,-1.6845e-06,0
-1.00297e-05,0.000147142,3.4807e-05,9.31465e-05,1.95853e-05,-4.07162e-06,7.57268e-05,-5.35983e-07,0
-1.96458e-05,0.000184277,4.18547e-05,8.32524e-05,1.86489e-05,-1.66229e-06,7.28611e-05,-5.88051e-07,0
-8.67211e-06,0.000234789,4.77717e-05,0.000111038,2.12921e-05,9.74897e-07,6.62471e-05,-9.72407e-07,0
2.62754e-05,0.000278794,5.01268e-05,0.000135579,2.46745e-05,3.53864e-06,5.76848e-05,-3.21816e-07,0
7.27088e-05,0.000283051,4.40159e-05,0.000114629,2.1755e-05,1.88166e-06,4.98016e-05,3.09058e-07,0
0.000114867,0.000276494,2.85238e-05,3.74573e-05,1.30409e-05,-3.68111e-06,4.38204e-05,7.13687e-07,0
0.000137165,0.000301056,8.91206e-06,-6.17316e-05,8.06837e-06,-6.78629e-06,3.92197e-05,1.96376e-06,0
0.000131078,0.000305687,-7.58543e-06,-0.000123006,1.11424e-05,-4.15041e-06,3.35918e-05,3.04732e-06,0
9.8822e-05,0.000215909,-1.76308e-05,-0.000130242,1.75649e-05,8.30984e-07,3.53432e-05,1.23596e-06,0
5.11778e-05,3.57225e-05,-2.46429e-05,-0.000133861,2.47684e-05,4.01759e-06,7.41416e-05,-1.76591e-06,0
2.57167e-06,-0.00015886,-3.43886e-05,-0.000169892,3.19506e-05,5.62303e-06,0.000161757,-1.84116e-06,0
-3.85645e-05,-0.000276858,-4.15095e-05,-0.000210771,3.55865e-05,6.29476e-06,0.000247243,-5.71987e-07,0
-7.62071e-05,-0.000283856,-3.66635e-05,-0.000223923,3.04784e-05,4.79532e-06,0.000272753,-9.75071e-07,0
-0.000114227,-0.000216094,-2.51322e-05,-0.0002163,1.58267e-05,-3.13174e-07,0.000220399,-1.54124e-06,0
-0.000146298,-0.000161738,-1.64003e-05,-0.000202832,2.44767e-06,-6.91651e-06,0.000112655,-2.08019e-06,0
-0.000160953,-0.000167136,-3.93479e-06,-0.000165365,9.1591e-07,-1.21661e-05,-2.19095e-05,-3.35872e-06,0
-0.000146814,-0.000191375,1.99652e-05,-0.000101714,1.09348e-05,-1.37216e-05,-0.000154291,-4.44674e-06,0
-0.000108141,-0.000187446,4.32239e-05,-4.30259e-05,2.14462e-05,-1.34594e-05,-0.00026093,-3.80695e-06,0
-6.72012e-05,-0.000147226,4.83714e-05,-1.01937e-06,2.02615e-05,-1.32155e-05,-0.000322805,-3.37078e-06,0
-3.79466e-05,-0.000108383,2.79773e-05,3.05974e-05,1.62339e-05,-1.32363e-05,-0.000306774,-4.57815e-06,0
-2.34481e-05,-0.000104127,-6.87142e-06,3.66996e-05,1.90452e-05,-1.489e-05,-0.000240961,-5.35196e-06,0
-1.69753e-05,-9.58785e-05,-4.05588e-05,4.97221e-06,2.03201e-05,-1.73073e-05,-0.000176289,-5.67023e-06,0
-6.89584e-06,-9.24864e-06,-6.61371e-05,-2.81328e-05,1.49103e-05,-1.92856e-05,-0.000143099,-5.70248e-06,0
7.9489e-06,0.000164887,-7.87489e-05,-2.44386e-05,6.96383e-06,-1.85131e-05,-0.000129305,-5.41883e-06,0
1.9412e-05,0.000344061,-7.91948e-05,1.26948e-05,2.17203e-06,-1.77582e-05,-0.000109419,-4.81667e-06,0
1.69396e-05,0.000448406,-7.25182e-05,5.07646e-05,2.13147e-06,-1.81595e-05,-7.75014e-05,-3.66033e-06,0
-8.07812e-07,0.000490417,-6.17766e-05,7.09529e-05,4.20718e-06,-1.79774e-05,-4.23551e-05,-3.47184e-06,0
-2.4056e-05,0.000502411,-4.60534e-05,6.60908e-05,7.62751e-06,-1.46356e-05,-1.52074e-05,-4.76203e-06,0
-4.14368e-05,0.000435208,-2.41316e-05,2.94066e-05,1.3976e-05,-7.21223e-06,3.55271e-06,-4.71407e-06,0
-5.40347e-05,0.00024283,-2.30203e-06,-1.94532e-05,1.98588e-05,1.17156e-06,2.17205e-07,-2.96694e-06,0
-7.1896e-05,-2.86061e-05,1.12446e-05,-3.90656e-05,2.18541e-05,5.17969e-06,-2.46039e-05,-1.6122e-06,0
-9.58117e-05,-0.000251118,1.7078e-05,-1.20725e-05,2.1124e-05,2.49095e-06,-4.83129e-05,-1.96589e-06,0
-0.000113488,-0.000293526,2.18107e-05,3.45821e-05,1.84095e-05,-3.70399e-06,-4.41251e-05,-2.52807e-06,0
-0.000115742,-0.000151891,2.94518e-05,7.28977e-05,1.26168e-05,-1.09089e-05,-1.66365e-05,-2.12192e-06,0
-0.000103311,-2.17867e-05,3.69202e-05,9.44262e-05,4.48691e-06,-1.53999e-05,1.95728e-05,-1.56702e-06,0
-8.07398e-05,-9.6705e-05,3.64224e-05,9.25016e-05,-2.42402e-06,-1.47942e-05,5.25428e-05,-7.65688e-07,0
-5.51518e-05,-0.00032997,2.4768e-05,6.27384e-05,-2.21007e-06,-1.05628e-05,7.84344e-05,-7.5083e-07,0
-3.63605e-05,-0.000505007,5.96794e-06,2.27282e-05,8.95457e-06,-7.42102e-06,9.4727e-05,-1.79996e-06,0
-2.91019e-05,-0.00049365,-1.43553e-05,2.60376e-06,2.21176e-05,-7.75011e-06,0.000100091,-3.60104e-06,0
-3.03236e-05,-0.000342978,-3.40733e-05,1.19312e-05,2.39645e-05,-1.05406e-05,9.47079e-05,-4.67826e-06,0
-3.39813e-05,-0.000183271,-4.88275e-05,3.09175e-05,1.49323e-05,-1.31059e-05,8.21236e-05,-2.81473e-06,0
-3.62363e-05,-0.000103331,-5.27613e-05,6.40473e-05,5.83697e-06,-1.36821e-05,6.71704e-05,-1.67749e-06,0
-3.35654e-05,-8.12176e-05,-5.26294e-05,0.000117062,2.63988e-06,-1.14791e-05,5.34118e-05,-2.39274e-06,0
-2.73294e-05,-6.90678e-05,-5.08272e-05,0.000145229,2.45609e-06,-8.64801e-06,4.56038e-05,-2.18556e-06,0
-2.23303e-05,-5.42342e-05,-4.02458e-05,0.0001429,-5.03075e-07,-8.41095e-06,4.10343e-05,-1.92974e-06,0
-2.15161e-05,-5.97783e-05,-2.56071e-05,0.000130559,-4.5435e-06,-1.06103e-05,3.72273e-05,-3.3864e-06,0
-2.69806e-05,-8.00589e-05,-1.24694e-05,0.000103883,-4.72948e-06,-1.19287e-05,3.51396e-05,-5.34617e-06,0
-3.46628e-05,-8.324e-05,-3.44281e-06,4.3471e-05,-2.41303e-06,-1.22575e-05,3.34052e-05,-4.59229e-06,0
-5.0168e-05,-6.3887e-05,-1.90091e-06,-4.77796e-05,-1.57748e-06,-1.54912e-05,2.90086e-05,-4.32637e-06,0
-7.53249e-05,-1.95867e-05,-5.05369e-06,-0.000121332,-3.88544e-06,-1.8994e-05,2.38493e-05,-4.8337e-06,0
-8.52426e-05,3.78416e-05,-6.8655e-06,-0.000152331,-5.54985e-06,-1.90254e-05,2.0249e-05,-4.51413e-06,0
-6.15013e-05,7.186e-05,-5.43066e-06,-0.000155413,-3.97972e-06,-1.47413e-05,1.92703e-05,-4.66985e-06,0
-2.47648e-05,5.92848e-05,-4.50869e-06,-0.000155298,-1.62373e-06,-8.91028e-06,1.97395e-05,-3.90858e-06,0
2.74317e-07,2.80673e-05,-9.66884e-06,-0.000142335,9.08151e-07,-5.07357e-06,2.14137e-05,-1.37143e-06,0
9.36637e-06,1.65582e-05,-2.36233e-05,-0.000101229,3.9582e-06,-2.98232e-06,2.22841e-05,1.95552e-06,0
1.02696e-05,3.22131e-05,-3.70228e-05,-4.28903e-05,6.56962e-06,-2.12966e-06,2.27567e-05,3.83717e-06,0
1.20212e-05,6.24144e-05,-3.63028e-05,1.61202e-05,7.28746e-06,-2.20026e-06,2.28333e-05,4.01836e-06,0
1.63668e-05,9.15107e-05,-2.05092e-05,7.8826e-05,6.71385e-06,-2.5124e-06,2.36366e-05,4.09942e-06,0
2.07703e-05,0.000111049,4.20716e-07,0.000127636,6.72305e-06,-1.68951e-06,2.41474e-05,4.29255e-06,0
2.22399e-05,0.000122461,1.83502e-05,0.00012293,7.98098e-06,9.46172e-07,2.41966e-05,4.77965e-06,0
2.09232e-05,0.000134658,3.0375e-05,7.3211e-05,9.85102e-06,3.62789e-06,2.24426e-05,5.23481e-06,0
1.66328e-05,0.000153618,3.38483e-05,9.85823e-06,1.09144e-05,3.51532e-06,2.03796e-05,5.17512e-06,0
1.15699e-05,0.000181125,2.79057e-05,-4.99491e-05,1.12729e-05,1.76524e-07,1.90873e-05,4.94448e-06,0
5.56841e-06,0.000215715,1.89913e-05,-9.81259e-05,1.19392e-05,-3.15774e-06,1.69531e-05,3.8513e-06,0
-1.92289e-06,0.000251472,1.79672e-05,-0.000125895,1.30765e-05,-4.52866e-06,6.57348e-06,2.92066e-06,0
-1.10705e-05,0.000263252,2.56994e-05,-0.00013406,1.59239e-05,-4.74561e-06,-1.67674e-05,1.50694e-06,0
-2.07253e-05,0.00022258,2.96371e-05,-0.000128284,1.99679e-05,-3.9099e-06,-3.85324e-05,-1.37357e-07,0
-2.65907e-05,0.000136484,2.16509e-05,-0.000114332,1.9649e-05,-2.84738e-06,-4.19649e-05,9.2432e-07,0
-2.46979e-05,5.16835e-05,8.97726e-06,-8.70334e-05,1.29302e-05,-2.263e-06,-2.94417e-05,3.75649e-06,0
-2.01609e-05,7.00691e-06,-2.69997e-06,-3.40134e-05,6.59457e-06,-2.38987e-06,-9.3533e-06,6.29777e-06,0
-1.85044e-05,1.78072e-05,-1.733e-05,3.477e-05,1.02732e-05,-3.14571e-06,1.14389e-05,6.48299e-06,0
-3.51144e-06,6.85563e-05,-3.45993e-05,8.55461e-05,1.81402e-05,-3.70825e-06,3.06134e-05,5.24809e-06,0
3.29e-05,0.000119736,-4.62701e-05,0.000111921,2.15738e-05,-4.65957e-06,4.73821e-05,5.23436e-06,0
6.59247e-05,0.000165172,-4.69595e-05,0.000120197,2.17067e-05,-4.92784e-06,5.4913e-05,6.11715e-06,0
7.96027e-05,0.000217615,-4.35781e-05,0.000122927,2.18017e-05,-4.70546e-06,5.68409e-05,8.24421e-06,0
8.35136e-05,0.000267072,-4.28778e-05,0.000142711,2.30792e-05,-5.04653e-06,5.58806e-05,9.21201e-06,0
7.69721e-05,0.000300472,-4.60592e-05,0.000150022,2.19478e-05,-5.11577e-06,5.19763e-05,8.66013e-06,0
4.50929e-05,0.000308753,-4.87421e-05,0.000100256,1.92484e-05,-5.20862e-06,4.53455e-05,8.39949e-06,0
-1.04153e-05,0.000275664,-4.2778e-05,9.27187e-06,1.64858e-05,-5.30936e-06,3.71976e-05,8.2886e-06,0
-7.29381e-05,0.000211289,-2.83325e-05,-6.72784e-05,1.61237e-05,-5.00514e-06,1.91779e-05,8.06318e-06,0
-0.000122448,0.000149697,-1.62834e-05,-9.3558e-05,1.7956e-05,-6.09086e-06,-1.39806e-05,7.70369e-06,0
-0.00014499,0.0001216,-1.45721e-05,-8.76817e-05,1.88319e-05,-9.0078e-06,-4.65499e-05,6.81367e-06,0
-0.000139429,0.000142287,-1.78368e-05,-8.29869e-05,1.66238e-05,-1.21635e-05,-5.90528e-05,4.72027e-06,0
-0.000110246,0.000178906,-1.70176e-05,-7.67813e-05,1.44088e-05,-1.31264e-05,-4.75471e-05,3.17504e-06,0
-7.11406e-05,0.0001478,-9.13541e-06,-4.98144e-05,1.59934e-05,-1.05224e-05,-2.27125e-05,3.52591e-06,0
-4.0422e-05,2.04537e-05,-1.00173e-06,-1.7028e-05,1.56992e-05,-8.43107e-06,3.88097e-06,4.95812e-06,0
-2.50581e-05,-0.000121027,6.08486e-07,-1.21444e-05,7.35051e-06,-9.89483e-06,2.70496e-05,5.31683e-06,0
-7.8613e-06,-0.000194375,-3.29221e-06,-3.11555e-05,-3.06035e-06,-1.15974e-05,4.70998e-05,3.47795e-06,0
2.49162e-05,-0.000214212,-7.48274e-06,-4.84966e-05,-6.95463e-06,-1.10248e-05,6.26599e-05,1.0027e-06,0
5.67337e-05,-0.000244912,-1.13519e-05,-5.79509e-05,-5.53465e-06,-1.17017e-05,7.08289e-05,5.92231e-07,0
5.92167e-05,-0.000296139,-1.53693e-05,-6.76577e-05,-3.38516e-06,-1.55262e-05,7.26184e-05,1.18239e-06,0
2.2868e-05,-0.000299216,-1.38521e-05,-6.33962e-05,-2.73753e-06,-1.91599e-05,7.01549e-05,1.41811e-06,0
-3.82662e-05,-0.000210633,-5.36732e-06,-3.34427e-05,-1.2873e-06,-1.95939e-05,6.83884e-05,1.82586e-06,0
-0.000102723,-8.99681e-05,4.40375e-06,-1.21149e-05,1.04734e-06,-1.84743e-05,8.43132e-05,2.18414e-06,0
-0.000156034,-1.94599e-05,1.00772e-05,-3.42671e-05,2.66123e-06,-1.93251e-05,0.000108045,2.12175e-06,0
-0.000186784,-3.01852e-05,8.74658e-06,-7.49485e-05,6.33627e-07,-2.28584e-05,0.000110288,1.33443e-06,0
-0.000187094,-8.91531e-05,1.64781e-06,-0.000106476,-2.13717e-07,-2.48063e-05,9.39044e-05,7.7643e-07,0
-0.000180228,-0.000134671,-7.34557e-06,-0.000121923,6.00267e-06,-2.2202e-05,7.84172e-05,1.67433e-06,0
-0.000171908,-0.000135577,-1.56639e-05,-0.000117614,8.31353e-06,-1.92942e-05,7.16131e-05,3.21817e-06,0
-0.000143678,-6.44316e-05,-1.71717e-05,-9.43706e-05,1.75619e-06,-1.88995e-05,6.54288e-05,3.76527e-06,0
-0.00010319,9.41824e-05,-7.92699e-06,-5.25066e-05,-2.97377e-06,-1.89043e-05,4.8511e-05,2.80771e-06,0
-6.11824e-05,0.000293366,4.26272e-06,2.67233e-07,-6.87452e-07,-1.84066e-05,1.89968e-05,3.56356e-06,0
-2.29551e-05,0.000480936,1.27567e-05,6.24579e-05,8.02394e-06,-1.63829e-05,-4.28662e-05,5.88923e-06,0
6.29007e-06,0.000605391,1.51213e-05,0.000123847,1.62455e-05,-1.30271e-05,-0.000170854,6.15146e-06,0
1.56534e-05,0.000598966,1.22828e-05,0.000170467,1.84754e-05,-9.66689e-06,-0.000312994,5.63487e-06,0
-1.73263e-06,0.000395256,1.03065e-05,0.000180132,1.69141e-05,-7.71957e-06,-0.000369629,6.28578e-06,0
-4.95465e-05,1.62698e-06,1.56189e-05,0.000138608,1.29145e-05,-1.06601e-05,-0.000322932,7.60895e-06,0
-0.000105779,-0.000414693,2.89758e-05,7.0614e-05,1.02203e-05,-1.54362e-05,-0.000219345,7.74005e-06,0
-0.000132718,-0.000652227,4.23184e-05,1.27225e-05,1.43895e-05,-1.80724e-05,-0.000105375,6.21936e-06,0
-0.000117461,-0.000644149,4.6464e-05,-1.3106e-05,2.65398e-05,-1.83641e-05,8.74831e-07,3.83611e-06,0
-6.93275e-05,-0.000469244,4.12412e-05,-1.51058e-05,3.83236e-05,-1.80785e-05,9.56369e-05,1.75305e-06,0
-8.68631e-06,-0.000256884,3.70893e-05,-2.30779e-05,3.89067e-05,-1.82434e-05,0.000170353,1.31048e-06,0
3.66886e-05,-0.000109384,3.91213e-05,-5.94443e-05,2.86221e-05,-1.6841e-05,0.000215067,2.20698e-06,0
4.2718e-05,-5.71937e-05,4.04782e-05,-0.00011804,1.96531e-05,-1.3304e-05,0.000228891,2.98568e-06,0
2.26234e-05,-5.58136e-05,2.92041e-05,-0.000171251,1.71566e-05,-9.70254e-06,0.000219427,3.05185e-06,0
9.26992e-06,-4.61364e-05,3.33163e-06,-0.000186679,1.81225e-05,-6.94057e-06,0.000197769,2.79308e-06,0
1.98951e-05,-1.3249e-05,-2.25004e-05,-0.000147766,2.01815e-05,-3.05877e-06,0.000169457,1.88625e-06,0
4.0957e-05,2.19914e-05,-3.24939e-05,-7.45246e-05,2.14218e-05,2.98752e-06,0.000132204,1.69646e-07,0
5.18573e-05,4.24878e-05,-3.35056e-05,-5.95689e-06,2.05974e-05,7.43568e-06,9.09137e-05,-1.14514e-06,0
5.30207e-05,5.25797e-05,-4.08662e-05,4.08199e-05,1.88563e-05,3.69361e-06,5.89938e-05,-1.2702e-06,0
6.20464e-05,6.8081e-05,-5.11129e-05,7.36361e-05,1.50328e-05,-5.24792e-06,4.68771e-05,4.36392e-07,0
8.30283e-05,9.32968e-05,-4.58474e-05,9.99177e-05,7.34815e-06,-1.23047e-05,4.85332e-05,1.23586e-06,0
9.98469e-05,0.000127031,-2.15269e-05,0.000111518,1.14108e-06,-1.52058e-05,4.58345e-05,-2.12241e-07,0
9.6349e-05,0.000180546,1.1584e-07,9.68913e-05,-9.20031e-08,-1.34151e-05,1.82812e-05,7.91523e-07,0
7.88213e-05,0.000232372,7.5054e-06,7.11019e-05,2.97108e-06,-1.01652e-05,-3.20568e-05,2.40455e-06,0
6.27635e-05,0.000254714,2.99496e-06,3.19703e-05,9.06885e-06,-8.529e-06,-8.26176e-05,6.22227e-07,0
4.6634e-05,0.000245112,-1.13808e-05,-4.06049e-05,1.2285e-05,-7.86804e-06,-0.000103944,-1.01329e-06,0
1.35501e-05,0.000177839,-3.07574e-05,-9.50358e-05,1.0778e-05,-1.00281e-05,-8.07064e-05,-2.3205e-06,0
-4.06841e-05,5.47096e-05,-4.68023e-05,-7.46266e-05,8.78747e-06,-1.19641e-05,-3.68514e-05,-2.36717e-06,0
-8.70027e-05,-7.54507e-05,-4.99673e-05,-4.47713e-06,7.71634e-06,-1.16453e-05,3.6329e-06,-1.40479e-06,0
-0.000102429,-0.000172595,-3.71016e-05,5.27475e-05,7.77001e-06,-1.06302e-05,3.08861e-05,-3.07736e-06,0
-9.88864e-05,-0.000237216,-2.04236e-05,6.00521e-05,6.65e-06,-9.75016e-06,4.2952e-05,-4.85929e-06,0
-9.70549e-05,-0.00025215,-1.24048e-05,2.38956e-05,1.48837e-06,-1.28457e-05,4.52405e-05,-5.21951e-06,0
-0.000101186,-0.000204286,-1.62872e-05,-2.79592e-05,-5.30405e-06,-1.92557e-05,4.32193e-05,-3.87127e-06,0
-0.00011069,-0.000135151,-2.82392e-05,-5.91885e-05,-7.83646e-06,-2.45649e-05,3.59127e-05,-1.95016e-06,0
-0.000124499,-8.33189e-05,-4.22042e-05,-5.4998e-05,-4.70318e-06,-2.46091e-05,3.49222e-05,-1.44416e-06,0
-0.000131475,-4.49209e-05,-5.38745e-05,-3.01641e-05,2.15456e-06,-2.06109e-05,6.39107e-05,-2.5256e-06,0
-0.000116589,-6.13116e-06,-5.7298e-05,-4.10864e-06,1.05542e-05,-1.48431e-05,0.000104488,-2.17815e-06,0
-8.05448e-05,1.89223e-05,-4.88601e-05,1.79395e-05,1.90817e-05,-9.79739e-06,0.000100333,-5.07124e-07,0
-3.3755e-05,2.23276e-05,-2.97475e-05,3.48601e-05,2.7078e-05,-7.65519e-06,3.45894e-05,3.14954e-07,0
2.68556e-06,1.57558e-05,-7.38678e-06,4.39213e-05,3.09169e-05,-9.43903e-06,-4.53068e-05,1.12723e-06,0
