ch1,ch2,ch3,ch4,ch5,ch6,ch7,ch8,class
-3.1417e-05,6.9936e-06,-8.35871e-06,-3.96731e-05,1.05572e-05,-9.06938e-06,2.61547e-05,2.81245e-06,0
-3.07166e-05,7.292e-06,-6.82551e-06,-3.14286e-05,1.14131e-05,-7.03852e-06,3.73296e-05,2.59317e-06,0
-3.18305e-05,8.10382e-06,-4.96632e-06,-2.90896e-05,9.72605e-06,-6.08951e-06,4.5816e-05,4.28207e-06,0
-3.3704e-05,9.15392e-06,-2.44631e-06,-2.97097e-05,8.00183e-06,-6.86595e-06,5.15202e-05,4.89178e-06,0
-3.48355e-05,1.15437e-05,-1.0524e-06,-2.5829e-05,7.3168e-06,-9.59269e-06,5.34283e-05,5.23768e-06,0
-3.43611e-05,1.23678e-05,-1.23686e-06,-1.34413e-05,7.71518e-06,-1.15384e-05,5.07258e-05,5.85261e-06,0
-3.33278e-05,1.23946e-05,-2.19003e-06,5.58457e-07,8.12004e-06,-1.11978e-05,4.46272e-05,5.34639e-06,0
-3.35933e-05,1.27548e-05,-3.30634e-06,7.68162e-06,8.99391e-06,-9.6792e-06,3.60503e-05,4.91098e-06,0
-3.42e-05,1.53253e-05,-3.35631e-06,5.73402e-06,1.10737e-05,-8.62758e-06,2.70019e-05,6.14816e-06,0
-3.39385e-05,1.82433e-05,-2.27279e-06,6.46063e-07,1.37137e-05,-8.58232e-06,1.91946e-05,7.96947e-06,0
-3.30931e-05,2.00279e-05,-9.05125e-07,-1.22521e-06,1.45477e-05,-8.21173e-06,1.27395e-05,9.78932e-06,0
-3.32191e-05,2.17886e-05,-7.69696e-07,-8.74339e-07,1.3933e-05,-8.42719e-06,6.20138e-06,1.06209e-05,0
-3.3525e-05,2.46626e-05,-1.24119e-06,-2.36882e-06,1.34987e-05,-1.05798e-05,-4.64304e-07,9.68969e-06,0
-3.31956e-05,2.72611e-05,-1.6329e-06,-7.50702e-06,1.42861e-05,-1.32472e-05,-5.15909e-06,8.48299e-06,0
-3.25497e-05,2.85064e-05,-2.17305e-06,-1.44392e-05,1.54182e-05,-1.37505e-05,-7.48286e-06,8.69794e-06,0
-3.18336e-05,2.85658e-05,-3.11921e-06,-2.01098e-05,1.59237e-05,-1.22876e-05,-8.06912e-06,9.2195e-06,0
-3.14948e-05,2.87123e-05,-2.89304e-06,-2.11681e-05,1.5967e-05,-1.12261e-05,-8.55067e-06,8.88616e-06,0
-3.09726e-05,2.89932e-05,-1.81119e-06,-1.80877e-05,1.60468e-05,-1.12904e-05,-1.07748e-05,7.22798e-06,0
-2.97541e-05,2.67406e-05,-2.43715e-06,-1.56812e-05,1.67386e-05,-1.14366e-05,-1.36916e-05,4.68157e-06,0
-2.88634e-05,2.35609e-05,-3.35661e-06,-1.50875e-05,1.74864e-05,-1.16669e-05,-1.43244e-05,2.61244e-06,0
-2.80151e-05,2.10214e-05,-2.93952e-06,-1.15907e-05,1.62762e-05,-1.13502e-05,-1.29373e-05,1.88005e-06,0
-2.74759e-05,2.08226e-05,-3.36825e-06,-3.89879e-06,1.44614e-05,-1.14968e-05,-9.86458e-06,1.27538e-06,0
-2.8167e-05,2.14028e-05,-3.20916e-06,4.37608e-06,1.48575e-05,-1.40295e-05,-6.05209e-06,5.28869e-08,0
-2.93382e-05,2.04335e-05,-2.04712e-06,1.07858e-05,1.47334e-05,-1.63995e-05,-4.88476e-07,3.64385e-07,0
-2.92809e-05,2.02047e-05,-1.72579e-06,1.08348e-05,1.43648e-05,-1.55735e-05,1.75905e-06,3.53948e-07,0
-2.91421e-05,2.11568e-05,-2.53725e-06,6.50562e-06,1.61427e-05,-1.30484e-05,1.20396e-07,-1.36079e-06,0
-2.86575e-05,2.07621e-05,-3.6286e-06,1.06743e-06,1.85385e-05,-1.19323e-05,1.3488e-07,-2.52901e-06,0
-2.65891e-05,2.0345e-05,-3.07272e-06,-4.66906e-06,1.90561e-05,-1.31381e-05,8.74788e-07,-3.28291e-06,0
-2.53487e-05,2.15805e-05,-1.90654e-06,-7.5728e-06,1.82262e-05,-1.41675e-05,3.94029e-06,-3.81878e-06,0
-2.63564e-05,2.16203e-05,-8.0329e-07,-9.61057e-06,1.623e-05,-1.33719e-05,9.73216e-06,-4.57821e-06,0
-2.77659e-05,2.03058e-05,5.32063e-07,-6.74542e-06,1.31738e-05,-1.12425e-05,1.46289e-05,-6.45801e-06,0
-2.76956e-05,1.85442e-05,1.54556e-06,3.3371e-06,1.10635e-05,-8.77244e-06,1.58783e-05,-6.69487e-06,0
-2.72672e-05,1.76141e-05,1.00616e-06,1.32858e-05,1.02808e-05,-7.13847e-06,1.51076e-05,-5.75121e-06,0
-2.74241e-05,2.02868e-05,-8.9548e-07,1.68274e-05,9.9134e-06,-6.4262e-06,1.48438e-05,-5.67456e-06,0
-2.87975e-05,2.41631e-05,-3.92672e-06,1.67577e-05,9.05284e-06,-6.31917e-06,1.56974e-05,-5.02514e-06,0
-3.0004e-05,2.61555e-05,-6.93862e-06,1.55867e-05,9.02207e-06,-7.10344e-06,1.64317e-05,-3.23367e-06,0
-3.01033e-05,2.67325e-05,-8.37533e-06,1.29561e-05,9.99048e-06,-9.15789e-06,1.68292e-05,-8.48067e-07,0
-2.93206e-05,2.65556e-05,-8.08419e-06,8.68478e-06,1.10887e-05,-9.52006e-06,1.95517e-05,7.3691e-07,0
-2.87185e-05,2.42463e-05,-7.67252e-06,1.39108e-07,1.13497e-05,-7.81514e-06,2.68833e-05,4.52172e-07,0
-2.94156e-05,2.05609e-05,-8.2726e-06,-1.2299e-05,9.64387e-06,-7.20505e-06,3.56592e-05,-1.65763e-06,0
-3.13888e-05,1.86545e-05,-9.71516e-06,-2.57202e-05,7.65117e-06,-8.24943e-06,4.00693e-05,-4.16304e-06,0
-3.31803e-05,1.87463e-05,-1.182e-05,-3.61922e-05,6.43318e-06,-9.09725e-06,3.79791e-05,-6.33141e-06,0
-3.39327e-05,1.89958e-05,-1.33593e-05,-4.04175e-05,4.83731e-06,-9.03436e-06,3.2117e-05,-7.73402e-06,0
-3.34639e-05,1.86162e-05,-1.3963e-05,-3.61269e-05,2.98245e-06,-9.15928e-06,2.42578e-05,-7.25102e-06,0
-3.17332e-05,1.82557e-05,-1.38709e-05,-2.47889e-05,2.03811e-06,-8.77021e-06,1.41311e-05,-5.73018e-06,0
-2.98166e-05,1.77716e-05,-1.26146e-05,-8.17142e-06,2.56331e-06,-6.07458e-06,3.99582e-06,-5.31603e-06,0
-2.93615e-05,1.53794e-05,-9.73352e-06,1.23408e-05,3.87477e-06,-2.60513e-06,-3.84717e-06,-6.11857e-06,0
-3.12431e-05,1.14632e-05,-6.72843e-06,3.09844e-05,5.82397e-06,-1.12831e-06,-9.88308e-06,-5.94934e-06,0
-3.34887e-05,9.83688e-06,-7.08309e-06,3.59643e-05,1.10637e-05,-8.47293e-07,-1.49646e-05,-2.8783e-06,0
-3.33426e-05,1.2033e-05,-1.0451e-05,2.9926e-05,2.04776e-05,-9.24095e-08,-1.67191e-05,-2.90204e-07,0
-3.09338e-05,1.53324e-05,-1.22125e-05,2.98765e-05,3.31203e-05,2.15451e-07,-1.24357e-05,3.1589e-07,0
-2.98789e-05,1.55696e-05,-1.09663e-05,3.46426e-05,3.94378e-05,-6.63091e-07,-4.05414e-06,7.79646e-07,0
-2.99089e-05,1.22697e-05,-9.06109e-06,3.45125e-05,3.53172e-05,-1.95333e-06,2.35455e-06,9.66814e-07,0
-2.89994e-05,6.67765e-06,-9.84954e-06,2.84481e-05,2.94069e-05,-2.27093e-06,5.23948e-06,1.05139e-06,0
-2.81293e-05,5.32866e-07,-1.20409e-05,1.99169e-05,2.65885e-05,-1.64353e-06,6.39074e-06,-1.14363e-06,0
-2.87141e-05,-1.51153e-06,-1.37927e-05,1.21465e-05,2.70031e-05,-2.50487e-06,7.21515e-06,-3.36727e-06,0
-2.90107e-05,1.91223e-06,-1.49852e-05,4.76532e-06,2.5054e-05,-4.75236e-06,8.49126e-06,-3.34587e-06,0
-2.85902e-05,6.80878e-06,-1.50778e-05,-2.49394e-06,2.05643e-05,-8.2526e-06,1.10527e-05,-1.94467e-06,0
-2.89603e-05,1.2028e-05,-1.50146e-05,-8.70966e-06,1.61631e-05,-1.14538e-05,1.5211e-05,4.53716e-07,0
-2.85687e-05,1.79402e-05,-1.57628e-05,-1.37478e-05,1.36911e-05,-1.27605e-05,1.93977e-05,2.76779e-06,0
-2.75568e-05,2.14648e-05,-1.70046e-05,-1.63897e-05,1.32099e-05,-1.2548e-05,2.21055e-05,2.67744e-06,0
-2.84184e-05,2.15359e-05,-1.77065e-05,-1.47831e-05,1.35481e-05,-1.10228e-05,2.12436e-05,1.78313e-06,0
-3.03394e-05,1.77183e-05,-1.71909e-05,-1.13914e-05,1.40579e-05,-1.06692e-05,1.82773e-05,1.60051e-06,0
-3.10366e-05,1.3379e-05,-1.65105e-05,-9.37182e-06,1.42606e-05,-1.0609e-05,1.5043e-05,1.31014e-07,0
-3.10635e-05,1.35271e-05,-1.77434e-05,-9.31004e-06,1.53708e-05,-9.65982e-06,1.25915e-05,-5.08953e-07,0
-3.11051e-05,1.79393e-05,-1.93313e-05,-1.02871e-05,1.6665e-05,-8.94547e-06,1.15821e-05,7.20156e-07,0
-3.11627e-05,2.23318e-05,-1.79287e-05,-1.12904e-05,1.68897e-05,-9.17512e-06,1.12487e-05,1.54768e-06,0
-3.04562e-05,2.34516e-05,-1.32707e-05,-1.14237e-05,1.5009e-05,-9.18496e-06,1.17529e-05,1.06855e-06,0
-2.88783e-05,2.17308e-05,-8.87082e-06,-1.11838e-05,1.23432e-05,-9.41223e-06,1.35913e-05,1.27363e-06,0
-2.76907e-05,1.68606e-05,-8.2463e-06,-1.25748e-05,1.04685e-05,-1.1398e-05,1.61418e-05,2.38088e-06,0
-2.66379e-05,1.12254e-05,-1.03626e-05,-1.5121e-05,9.99433e-06,-1.34793e-05,1.79631e-05,3.06736e-06,0
-2.58928e-05,7.7789e-06,-1.2506e-05,-1.64692e-05,9.29162e-06,-1.41692e-05,1.8581e-05,3.13971e-06,0
-2.62576e-05,3.95468e-06,-1.37603e-05,-1.49992e-05,7.84813e-06,-1.34463e-05,1.69369e-05,3.8145e-06,0
-2.69413e-05,-3.01964e-06,-1.29889e-05,-1.35279e-05,6.50455e-06,-1.23787e-05,1.44239e-05,3.98936e-06,0
-2.80337e-05,-1.01822e-05,-1.21619e-05,-1.59217e-05,5.98958e-06,-1.21043e-05,1.42582e-05,3.30386e-06,0
-2.92836e-05,-1.24499e-05,-1.16783e-05,-2.04525e-05,6.61093e-06,-1.18562e-05,1.55375e-05,2.32832e-06,0
-2.95921e-05,-8.23688e-06,-1.10547e-05,-2.09598e-05,9.46635e-06,-1.09213e-05,1.59658e-05,2.20887e-06,0
-3.03247e-05,-1.6514e-07,-1.15075e-05,-1.79323e-05,1.36779e-05,-1.10332e-05,1.56575e-05,2.46568e-06,0
-3.21707e-05,6.64437e-06,-1.13771e-05,-1.75072e-05,1.48282e-05,-1.30928e-05,1.50443e-05,5.45543e-07,0
-3.15017e-05,1.06204e-05,-1.11549e-05,-1.94028e-05,1.18827e-05,-1.49136e-05,1.56383e-05,-1.9533e-06,0
-3.00573e-05,1.62276e-05,-1.03433e-05,-1.99418e-05,8.53969e-06,-1.38997e-05,1.56303e-05,-2.97268e-06,0
-3.03772e-05,2.6226e-05,-8.18966e-06,-1.51841e-05,7.27713e-06,-1.30222e-05,1.41369e-05,-1.70567e-06,0
-3.16737e-05,3.93006e-05,-6.54232e-06,-4.30143e-06,1.01527e-05,-1.42901e-05,1.26178e-05,1.65246e-06,0
-3.30251e-05,4.89276e-05,-5.42458e-06,6.94266e-06,1.51269e-05,-1.59303e-05,1.04581e-05,4.57017e-06,0
-3.31641e-05,5.03872e-05,-6.21329e-06,1.44169e-05,1.82236e-05,-1.57753e-05,9.48208e-06,5.40089e-06,0
-3.34953e-05,4.48814e-05,-7.38046e-06,1.47952e-05,1.88412e-05,-1.4801e-05,9.79147e-06,5.17715e-06,0
-3.26119e-05,3.86451e-05,-6.85318e-06,1.09475e-05,1.68982e-05,-1.50842e-05,1.12015e-05,4.63672e-06,0
-3.08391e-05,3.76232e-05,-6.04392e-06,7.9347e-06,1.44718e-05,-1.60642e-05,1.24683e-05,4.72604e-06,0
-2.97574e-05,4.38431e-05,-5.35402e-06,5.04266e-06,1.2723e-05,-1.60577e-05,1.30728e-05,5.59178e-06,0
-2.97374e-05,5.42203e-05,-5.35679e-06,6.9176e-07,1.22782e-05,-1.5427e-05,1.38937e-05,6.16849e-06,0
-2.94775e-05,6.29115e-05,-6.25662e-06,-3.71451e-06,1.26608e-05,-1.6299e-05,1.43594e-05,3.883e-06,0
-2.97484e-05,6.67691e-05,-7.64227e-06,-5.87683e-06,1.3258e-05,-1.78248e-05,1.40095e-05,-5.44777e-07,0
-3.06908e-05,6.18068e-05,-8.15719e-06,-6.69451e-06,1.33886e-05,-1.80952e-05,1.41536e-05,-3.34976e-06,0
-3.13377e-05,4.59946e-05,-7.06733e-06,-7.1228e-06,1.34608e-05,-1.73301e-05,1.56551e-05,-2.68969e-06,0
-3.18522e-05,1.96546e-05,-6.20229e-06,-8.11702e-06,1.26941e-05,-1.6641e-05,1.70633e-05,-2.13184e-07,0
-3.22335e-05,-1.33352e-05,-6.75414e-06,-9.12387e-06,1.13317e-05,-1.5694e-05,1.70983e-05,1.11009e-06,0
-3.28075e-05,-4.43294e-05,-6.34821e-06,-9.7952e-06,1.10185e-05,-1.41174e-05,1.60422e-05,4.83059e-08,0
-3.22738e-05,-6.38713e-05,-4.75083e-06,-1.0456e-05,1.01846e-05,-1.1672e-05,1.55374e-05,-1.33993e-06,0
-3.09411e-05,-6.5058e-05,-3.85167e-06,-1.05377e-05,8.31683e-06,-9.59894e-06,1.62331e-05,-7.46089e-07,0
-2.97976e-05,-4.82714e-05,-3.56702e-06,-7.91097e-06,8.04929e-06,-8.94877e-06,1.725e-05,1.26375e-07,0
-3.02598e-05,-2.71984e-05,-2.81538e-06,-4.56428e-06,9.64116e-06,-9.52075e-06,1.55899e-05,5.68927e-10,0
-3.21879e-05,-1.16081e-05,-1.64845e-06,-1.45139e-06,1.11174e-05,-9.5173e-06,1.45925e-05,-1.67566e-06,0
-3.31537e-05,-8.2401e-07,-5.65733e-07,1.4561e-06,1.11713e-05,-8.66375e-06,1.99471e-05,-5.12016e-06,0
-3.25512e-05,6.90112e-06,2.91431e-07,6.68881e-07,8.62229e-06,-8.33151e-06,2.80481e-05,-6.17513e-06,0
-3.09279e-05,1.20507e-05,-1.74581e-07,-2.25568e-06,5.17377e-06,-8.02637e-06,3.1697e-05,-3.99816e-06,0
-2.77498e-05,1.41613e-05,-2.17554e-06,-4.30983e-06,4.09062e-06,-6.60053e-06,2.98998e-05,-3.47917e-06,0
-2.63935e-05,1.39133e-05,-3.47309e-06,-4.6363e-06,4.93876e-06,-5.86815e-06,2.32208e-05,-4.21242e-06,0
-2.77363e-05,1.07575e-05,-3.25145e-06,-3.72166e-06,5.66028e-06,-5.67915e-06,1.40286e-05,-4.41874e-06,0
-2.94069e-05,5.40677e-06,-2.94126e-06,-3.24125e-06,7.69949e-06,-5.57559e-06,6.80041e-06,-2.69711e-06,0
-3.06324e-05,1.29566e-06,-2.61104e-06,-3.53295e-06,1.03636e-05,-6.68107e-06,2.02801e-06,-3.56448e-07,0
-3.18769e-05,4.60596e-06,-1.8646e-06,-4.36382e-06,1.04166e-05,-8.69261e-06,-2.92981e-06,5.05721e-07,0
-3.19582e-05,1.79122e-05,-6.39832e-07,-4.85245e-06,8.43588e-06,-1.20466e-05,-9.72736e-06,-6.18851e-07,0
-3.13655e-05,3.23022e-05,-4.1874e-07,-4.25825e-06,6.83549e-06,-1.40289e-05,-1.7074e-05,-9.95366e-07,0
-3.0257e-05,3.79761e-05,-2.18549e-06,-4.74889e-06,5.60888e-06,-1.24851e-05,-2.15301e-05,1.39471e-06,0
-2.84053e-05,3.24034e-05,-3.32564e-06,-6.47724e-06,6.23601e-06,-9.1902e-06,-2.05275e-05,3.00228e-06,0
-2.82294e-05,1.82443e-05,-3.06422e-06,-7.85073e-06,8.56824e-06,-7.28597e-06,-1.61854e-05,4.05591e-06,0
-2.93548e-05,-3.67064e-08,-3.58089e-06,-9.41969e-06,1.09535e-05,-7.89516e-06,-1.07835e-05,3.60441e-06,0
-3.07383e-05,-1.52729e-05,-4.88744e-06,-1.01808e-05,1.38271e-05,-8.46457e-06,-7.63366e-06,1.60357e-06,0
-3.12165e-05,-2.06931e-05,-6.65379e-06,-9.91653e-06,1.72682e-05,-7.84148e-06,-7.60019e-06,9.73319e-08,0
-3.06086e-05,-1.77842e-05,-8.94671e-06,-9.53058e-06,1.96795e-05,-8.01192e-06,-7.41624e-06,-3.45319e-07,0
-2.97793e-05,-1.22844e-05,-1.16026e-05,-7.93512e-06,1.90858e-05,-8.37425e-06,-3.63803e-06,-2.67337e-07,0
-3.07169e-05,-8.01937e-06,-1.35744e-05,-5.53727e-06,1.55925e-05,-7.84303e-06,3.5521e-06,2.1399e-07,0
-3.31639e-05,-4.00493e-06,-1.37992e-05,-4.72278e-06,1.14602e-05,-7.14764e-06,8.25665e-06,1.47902e-06,0
-3.48384e-05,-3.32303e-07,-1.15635e-05,-6.42284e-06,1.00403e-05,-6.96858e-06,3.712e-06,2.70664e-06,0
-3.40456e-05,2.84164e-06,-8.1121e-06,-9.27312e-06,1.22572e-05,-7.57519e-06,-9.02465e-06,3.27243e-06,0
-3.11659e-05,5.6751e-06,-5.74393e-06,-1.08116e-05,1.69206e-05,-9.39092e-06,-2.08366e-05,2.43435e-06,0
-2.92585e-05,7.06422e-06,-5.41095e-06,-9.32296e-06,2.18799e-05,-1.16055e-05,-2.28601e-05,1.27142e-06,0
-2.99019e-05,6.43072e-06,-8.02448e-06,-5.85082e-06,2.49126e-05,-1.17895e-05,-1.30499e-05,7.0594e-07,0
-3.15724e-05,4.67146e-06,-1.15716e-05,-2.76292e-06,2.35014e-05,-9.82932e-06,2.29651e-06,6.53124e-07,0
-3.25429e-05,4.21173e-06,-1.41747e-05,-3.83326e-07,2.05487e-05,-7.28152e-06,1.63127e-05,2.17649e-06,0
-3.15456e-05,5.66993e-06,-1.58317e-05,2.8279e-06,2.0265e-05,-6.26954e-06,2.75936e-05,3.83313e-06,0
-3.05681e-05,9.32323e-06,-1.7405e-05,4.85076e-06,2.22642e-05,-6.32344e-06,3.88879e-05,3.74593e-06,0
-3.14618e-05,1.19437e-05,-2.00369e-05,3.30096e-06,2.71825e-05,-5.60029e-06,4.74247e-05,3.78173e-06,0
-3.1882e-05,1.0315e-05,-2.00957e-05,-8.68785e-08,3.25723e-05,-4.49406e-06,5.00033e-05,5.94157e-06,0
-3.06358e-05,7.03604e-06,-1.70286e-05,-4.41121e-06,3.51309e-05,-3.57768e-06,4.96995e-05,7.5634e-06,0
-2.90304e-05,7.24363e-06,-1.45802e-05,-1.39387e-05,3.29852e-05,-3.42952e-06,5.119e-05,6.15944e-06,0
-2.75272e-05,1.07612e-05,-1.31177e-05,-2.44425e-05,2.65155e-05,-2.77681e-06,5.75703e-05,5.49615e-06,0
-2.68358e-05,1.14038e-05,-1.29441e-05,-2.04301e-05,1.94011e-05,-2.87865e-06,6.48373e-05,6.24611e-06,0
-2.75016e-05,1.04656e-05,-1.2513e-05,-1.26937e-06,1.52507e-05,-4.10838e-06,6.75431e-05,5.95465e-06,0
-2.98306e-05,1.0842e-05,-1.16303e-05,1.67306e-05,1.53314e-05,-5.09932e-06,6.5441e-05,4.89159e-06,0
-3.2071e-05,1.28279e-05,-1.16049e-05,2.08291e-05,1.64527e-05,-5.32897e-06,6.00045e-05,5.62495e-06,0
-3.21828e-05,1.38339e-05,-1.19378e-05,1.15744e-05,1.62595e-05,-3.58635e-06,5.12276e-05,7.57321e-06,0
-3.07603e-05,1.18132e-05,-1.17487e-05,-6.46648e-07,1.47076e-05,-1.55482e-07,3.85646e-05,9.1008e-06,0
-2.93653e-05,8.88963e-06,-1.08139e-05,-7.58581e-06,1.2518e-05,2.08342e-06,2.25871e-05,9.94165e-06,0
-2.9358e-05,7.48577e-06,-8.99744e-06,-9.94114e-06,1.12567e-05,3.19876e-07,5.67451e-06,8.73792e-06,0
-3.04573e-05,9.40394e-06,-7.92272e-06,-7.7926e-06,1.13007e-05,-2.59679e-06,-8.86904e-06,6.48625e-06,0
-3.14066e-05,1.37805e-05,-8.76186e-06,4.10701e-06,1.12384e-05,-4.6729e-06,-1.67423e-05,4.83925e-06,0
-3.09823e-05,1.83758e-05,-9.5142e-06,1.98423e-05,1.04761e-05,-5.83683e-06,-1.73491e-05,3.67586e-06,0
-3.14635e-05,1.98871e-05,-8.64852e-06,2.3143e-05,9.8287e-06,-7.02664e-06,-1.52924e-05,2.16667e-06,0
-3.21876e-05,1.78359e-05,-6.93713e-06,1.07538e-05,1.00561e-05,-8.69421e-06,-1.23719e-05,1.62284e-06,0
-3.09528e-05,1.40421e-05,-6.49575e-06,-5.28024e-06,9.63953e-06,-1.05511e-05,-7.47427e-06,3.06961e-06,0
-2.87472e-05,1.1989e-05,-7.12192e-06,-1.5694e-05,8.61853e-06,-1.18531e-05,-1.92517e-06,4.86343e-06,0
-2.72297e-05,1.35421e-05,-8.40227e-06,-2.12103e-05,9.16888e-06,-1.17211e-05,1.08431e-06,4.83884e-06,0
-2.67155e-05,1.79428e-05,-9.64264e-06,-2.64836e-05,9.78172e-06,-1.03885e-05,1.25098e-06,2.85841e-06,0
-2.62743e-05,2.19295e-05,-9.54854e-06,-3.44507e-05,1.07247e-05,-8.50657e-06,1.43622e-06,6.02342e-07,0
-2.60476e-05,2.34328e-05,-7.60658e-06,-4.54839e-05,1.30316e-05,-6.93462e-06,3.80336e-06,1.57846e-07,0
-2.69356e-05,2.15479e-05,-5.62808e-06,-5.96746e-05,1.33059e-05,-6.26375e-06,6.70546e-06,8.39346e-07,0
-2.73999e-05,1.90405e-05,-5.16806e-06,-7.48779e-05,1.11374e-05,-6.91649e-06,9.10718e-06,1.43327e-06,0
-2.78677e-05,1.75426e-05,-4.95803e-06,-8.46842e-05,1.08633e-05,-8.10906e-06,1.12727e-05,2.12137e-06,0
-2.92193e-05,1.52407e-05,-4.26998e-06,-8.13618e-05,1.04585e-05,-1.12177e-05,1.24525e-05,3.54562e-06,0
-2.91921e-05,1.42753e-05,-4.53881e-06,-6.73959e-05,7.6515e-06,-1.53752e-05,1.11337e-05,4.55884e-06,0
-2.83359e-05,1.49151e-05,-4.42923e-06,-4.88049e-05,5.1253e-06,-1.72125e-05,6.02641e-06,1.791e-06,0
-2.87572e-05,1.72657e-05,-2.78427e-06,-2.8732e-05,4.12518e-06,-1.7246e-05,-2.67403e-07,-1.61599e-06,0
-2.93673e-05,1.93766e-05,-3.76796e-07,-1.06353e-05,5.40497e-06,-1.6743e-05,-3.82412e-06,-6.39419e-07,0
-2.91027e-05,1.68158e-05,1.53718e-06,2.91272e-06,7.01898e-06,-1.58559e-05,-2.64377e-06,2.30059e-06,0
-2.85543e-05,1.28642e-05,1.50082e-06,7.81443e-06,8.81837e-06,-1.43636e-05,1.95375e-06,3.44319e-06,0
-2.78398e-05,1.22383e-05,4.74821e-07,1.88622e-06,1.12978e-05,-1.22612e-05,8.2675e-06,3.2163e-06,0
-2.736e-05,1.44445e-05,-5.09737e-07,-1.14572e-05,1.20228e-05,-1.13575e-05,1.5194e-05,2.46526e-06,0
-2.69778e-05,1.87137e-05,-1.4167e-06,-1.90138e-05,1.09993e-05,-1.23293e-05,2.1332e-05,1.81201e-06,0
-2.72182e-05,2.32248e-05,-3.45055e-06,-1.25678e-05,1.15615e-05,-1.28396e-05,2.47109e-05,1.61183e-06,0
-2.71149e-05,2.52085e-05,-6.06417e-06,5.75243e-06,1.40552e-05,-1.20658e-05,2.56175e-05,1.49838e-06,0
-2.70768e-05,2.3157e-05,-8.92128e-06,2.81618e-05,1.67431e-05,-1.12594e-05,2.59713e-05,1.37705e-06,0
-2.87988e-05,1.81388e-05,-1.17373e-05,4.92015e-05,1.89866e-05,-1.17525e-05,2.57002e-05,1.37183e-06,0
-3.17525e-05,1.12349e-05,-1.40789e-05,6.94063e-05,2.03068e-05,-1.34296e-05,2.58972e-05,1.54259e-06,0
-3.30662e-05,4.1361e-06,-1.44983e-05,8.66618e-05,1.99186e-05,-1.54659e-05,2.71373e-05,1.64813e-06,0
-3.24983e-05,1.69022e-07,-1.2127e-05,9.27674e-05,1.74078e-05,-1.68195e-05,2.83219e-05,2.52085e-06,0
-3.20675e-05,1.60682e-06,-9.05541e-06,8.04493e-05,1.37537e-05,-1.66329e-05,2.71584e-05,3.5889e-06,0
-3.23207e-05,6.99922e-06,-8.15371e-06,5.64348e-05,1.11773e-05,-1.54237e-05,2.43321e-05,3.69441e-06,0
-3.2388e-05,1.23717e-05,-9.55624e-06,3.57549e-05,1.15033e-05,-1.38379e-05,2.31156e-05,3.11033e-06,0
-3.20987e-05,1.56372e-05,-1.12797e-05,2.46716e-05,1.22002e-05,-1.29568e-05,2.3826e-05,2.77528e-06,0
-3.25787e-05,1.76826e-05,-1.29795e-05,1.65761e-05,9.94353e-06,-1.22308e-05,2.46061e-05,3.74987e-06,0
-3.36257e-05,1.71366e-05,-1.40463e-05,4.22709e-06,6.2461e-06,-1.14398e-05,2.36789e-05,4.14237e-06,0
-3.40905e-05,1.2889e-05,-1.52215e-05,-1.20162e-05,6.84132e-06,-1.03133e-05,2.1132e-05,3.11313e-06,0
-3.34811e-05,8.07125e-06,-1.62065e-05,-2.38088e-05,1.00596e-05,-9.16808e-06,1.99835e-05,3.01516e-06,0
-3.39319e-05,6.39522e-06,-1.57474e-05,-2.74433e-05,1.09794e-05,-8.08876e-06,2.08634e-05,4.0706e-06,0
-3.61022e-05,6.11689e-06,-1.70025e-05,-2.42958e-05,1.0447e-05,-7.1842e-06,1.88862e-05,4.02275e-06,0
-3.77323e-05,5.94997e-06,-1.88703e-05,-1.86782e-05,9.97625e-06,-8.29265e-06,7.5622e-06,2.68039e-06,0
-3.77495e-05,7.91561e-06,-1.65507e-05,-1.58244e-05,7.46154e-06,-9.9951e-06,-7.73166e-06,1.04012e-06,0
-3.64372e-05,8.7018e-06,-1.20154e-05,-1.91235e-05,4.15893e-06,-9.58133e-06,-1.58231e-05,3.92789e-07,0
-3.48994e-05,9.96473e-06,-9.06939e-06,-2.56924e-05,4.22882e-06,-7.66794e-06,-1.39607e-05,2.69985e-06,0
-3.43364e-05,1.30287e-05,-9.87447e-06,-2.83046e-05,5.98987e-06,-5.58668e-06,-5.28567e-06,4.75321e-06,0
-3.35715e-05,1.52061e-05,-1.09634e-05,-2.53942e-05,7.04932e-06,-3.76817e-06,3.96421e-06,4.02711e-06,0
-3.37044e-05,1.71543e-05,-9.29289e-06,-1.97036e-05,7.00437e-06,-3.65554e-06,1.21761e-05,2.34204e-06,0
-3.50078e-05,1.91956e-05,-6.47265e-06,-1.60566e-05,7.44516e-06,-4.95939e-06,1.73613e-05,1.61594e-06,0
-3.50681e-05,2.14742e-05,-4.30885e-06,-1.68117e-05,8.2238e-06,-5.66998e-06,1.97262e-05,1.82024e-06,0
-3.24435e-05,2.28924e-05,-2.56615e-06,-2.09278e-05,7.84703e-06,-5.49652e-06,2.03655e-05,1.38239e-06,0
-3.01816e-05,2.26401e-05,-1.79444e-06,-2.86898e-05,7.13947e-06,-5.07923e-06,1.95114e-05,6.88174e-07,0
-3.0277e-05,2.2332e-05,-3.04865e-06,-4.56329e-05,6.11873e-06,-3.59563e-06,1.8705e-05,3.99788e-07,0
-3.12705e-05,2.26085e-05,-5.2873e-06,-6.71004e-05,5.70186e-06,-1.81974e-06,1.71224e-05,1.14899e-06,0
-3.21176e-05,2.33739e-05,-7.1524e-06,-7.78271e-05,8.46549e-06,-5.29098e-07,1.48891e-05,3.11023e-06,0
-3.18052e-05,2.42408e-05,-7.46839e-06,-7.17878e-05,1.31527e-05,-6.04684e-07,1.43131e-05,4.57138e-06,0
-3.03694e-05,2.40348e-05,-8.13646e-06,-5.83004e-05,1.61084e-05,-1.40196e-06,1.68273e-05,3.2106e-06,0
-2.94998e-05,2.18828e-05,-1.00437e-05,-4.71977e-05,1.70396e-05,-9.2772e-07,2.01401e-05,8.49801e-07,0
-3.04983e-05,1.82356e-05,-1.13819e-05,-3.73645e-05,1.88635e-05,-8.44713e-07,2.20149e-05,-8.45405e-08,0
-3.01723e-05,1.4765e-05,-1.04902e-05,-1.8322e-05,2.19854e-05,-2.24646e-06,2.1198e-05,-7.53541e-07,0
-2.7943e-05,1.38528e-05,-9.15703e-06,1.57077e-05,2.35545e-05,-3.83087e-06,1.88065e-05,-1.24023e-06,0
-2.64573e-05,1.6899e-05,-9.89194e-06,5.45272e-05,2.23787e-05,-4.18036e-06,1.72979e-05,-6.16373e-07,0
-2.75847e-05,2.09207e-05,-1.19791e-05,8.39121e-05,1.99479e-05,-4.16933e-06,1.73544e-05,5.97731e-07,0
-2.98366e-05,2.16396e-05,-1.15461e-05,9.209e-05,1.69484e-05,-5.61721e-06,1.7477e-05,8.80555e-07,0
-3.00075e-05,1.87474e-05,-9.28284e-06,7.64635e-05,1.443e-05,-6.05446e-06,1.57033e-05,-5.0527e-07,0
-2.93694e-05,1.54971e-05,-7.18764e-06,4.6979e-05,1.3118e-05,-5.55276e-06,1.31282e-05,-2.20266e-06,0
-3.02666e-05,1.39068e-05,-6.93272e-06,1.42117e-05,9.94974e-06,-7.4601e-06,1.37953e-05,-2.31664e-06,0
-3.0204e-05,1.4491e-05,-8.53669e-06,-1.67698e-05,5.54011e-06,-9.30256e-06,1.61256e-05,-1.80503e-06,0
-2.76768e-05,1.46996e-05,-8.32194e-06,-3.60694e-05,3.34976e-06,-8.94807e-06,1.5614e-05,-1.34721e-06,0
-2.58974e-05,1.35077e-05,-4.6103e-06,-3.9421e-05,3.89359e-06,-7.18921e-06,1.32724e-05,1.97566e-07,0
-2.55358e-05,1.2071e-05,3.91998e-06,-3.68707e-05,4.36313e-06,-6.8851e-06,1.1108e-05,1.8484e-06,0
-2.45581e-05,1.1768e-05,1.81161e-05,-3.49114e-05,5.69777e-06,-8.79735e-06,8.08313e-06,1.56151e-06,0
-2.54125e-05,1.29067e-05,3.75091e-05,-3.27839e-05,8.43256e-06,-1.12058e-05,5.44662e-06,1.28992e-07,0
-2.64149e-05,1.35085e-05,5.78334e-05,-2.60249e-05,8.74653e-06,-1.26706e-05,4.83764e-06,4.23988e-08,0
-2.60221e-05,1.29878e-05,7.2913e-05,-1.007e-05,1.11656e-05,-1.30056e-05,5.0881e-06,-1.11267e-06,0
-2.76387e-05,1.19473e-05,7.39288e-05,1.33719e-05,1.77258e-05,-1.23518e-05,5.88897e-06,-3.43507e-06,0
-3.05901e-05,9.39688e-06,5.46985e-05,3.3548e-05,2.39104e-05,-1.09293e-05,6.69445e-06,-3.43702e-06,0
-3.21353e-05,4.64784e-06,1.69366e-05,4.52852e-05,2.64081e-05,-1.00842e-05,6.70113e-06,-2.57289e-06,0
-3.05421e-05,7.06364e-07,-2.80361e-05,4.82555e-05,2.60087e-05,-9.13495e-06,6.70046e-06,-2.75563e-06,0
-2.76788e-05,-1.09017e-06,-6.61885e-05,4.33938e-05,2.38453e-05,-7.50742e-06,7.96031e-06,-4.03762e-06,0
-2.5939e-05,-6.9104e-07,-8.78859e-05,3.37981e-05,2.16084e-05,-5.92003e-06,9.71094e-06,-5.66067e-06,0
-2.61813e-05,9.31662e-07,-9.1128e-05,2.41812e-05,2.21716e-05,-5.28491e-06,1.01493e-05,-7.19939e-06,0
-2.64254e-05,2.45405e-06,-8.0006e-05,1.85709e-05,2.45427e-05,-5.12402e-06,9.92488e-06,-8.67144e-06,0
-2.54975e-05,3.41053e-06,-6.27764e-05,1.52155e-05,2.68927e-05,-5.38686e-06,1.03286e-05,-9.55175e-06,0
-2.45965e-05,4.6407e-06,-4.92054e-05,1.25048e-05,2.78073e-05,-5.35949e-06,1.03199e-05,-9.98446e-06,0
-2.57381e-05,6.37175e-06,-4.02698e-05,1.05841e-05,2.74821e-05,-6.1068e-06,1.02008e-05,-1.07264e-05,0
-2.80866e-05,8.4244e-06,-3.13034e-05,9.59735e-06,2.65003e-05,-8.42266e-06,1.13294e-05,-1.01888e-05,0
-2.8772e-05,1.06487e-05,-2.12936e-05,5.62297e-06,2.42568e-05,-1.07858e-05,1.23667e-05,-8.33568e-06,0
-2.80517e-05,1.12879e-05,-1.50831e-05,-3.25656e-08,1.9944e-05,-1.24489e-05,1.23398e-05,-7.0608e-06,0
-2.74988e-05,9.78199e-06,-1.26351e-05,-4.28316e-06,1.58609e-05,-1.37099e-05,1.1138e-05,-6.33942e-06,0
-2.86576e-05,8.15013e-06,-9.45981e-06,-6.7148e-06,1.3692e-05,-1.52356e-05,7.23534e-06,-4.36674e-06,0
-3.03001e-05,9.19762e-06,-5.60014e-06,-8.34649e-06,1.37806e-05,-1.68062e-05,2.15368e-06,-2.00522e-06,0
-2.98869e-05,1.15124e-05,-3.66553e-06,-8.56047e-06,1.50225e-05,-1.72201e-05,8.71864e-08,-2.46576e-06,0
-2.83729e-05,1.09023e-05,-4.00903e-06,-6.02986e-06,1.75487e-05,-1.49614e-05,2.75226e-06,-4.49895e-06,0
-2.77913e-05,7.02941e-06,-5.16297e-06,-2.98506e-06,1.88405e-05,-1.13067e-05,6.28119e-06,-5.95318e-06,0
-2.93604e-05,3.39429e-06,-5.24162e-06,-3.76073e-06,1.71489e-05,-1.17757e-05,7.67608e-06,-5.32758e-06,0
-3.09412e-05,2.34048e-06,-4.78741e-06,-7.06014e-06,1.28038e-05,-1.69265e-05,8.86003e-06,-3.44522e-06,0
-3.15253e-05,2.89352e-06,-5.52219e-06,-8.65005e-06,6.9901e-06,-1.96841e-05,1.01405e-05,-1.29449e-06,0
-3.1928e-05,3.5155e-06,-6.83654e-06,-6.75751e-06,4.71279e-06,-1.90298e-05,1.10328e-05,1.18e-06,0
-3.15027e-05,4.62787e-06,-6.83544e-06,1.36763e-06,5.23054e-06,-1.74017e-05,1.22043e-05,2.29692e-06,0
-3.10685e-05,6.81771e-06,-6.77555e-06,9.91084e-06,5.51301e-06,-1.66782e-05,1.27425e-05,2.74982e-06,0
-3.12527e-05,9.27397e-06,-7.54519e-06,1.15077e-05,5.07999e-06,-1.72562e-05,1.23397e-05,1.85526e-06,0
-3.25862e-05,1.08805e-05,-8.18845e-06,6.85314e-06,6.82416e-06,-1.72698e-05,1.10805e-05,-2.90818e-07,0
-3.37218e-05,1.59121e-05,-7.23148e-06,1.04802e-06,9.43162e-06,-1.67211e-05,1.08206e-05,-2.28856e-06,0
-3.33024e-05,2.73187e-05,-4.46976e-06,-5.24801e-06,1.26583e-05,-1.66348e-05,1.1475e-05,-4.28335e-06,0
-3.14732e-05,3.84291e-05,-2.94748e-06,-1.2446e-05,1.61612e-05,-1.58831e-05,1.19566e-05,-5.04212e-06,0
-2.97697e-05,4.26509e-05,-3.22023e-06,-2.03599e-05,1.85597e-05,-1.4248e-05,1.23734e-05,-3.95397e-06,0
-2.92566e-05,4.08381e-05,-3.35271e-06,-2.39235e-05,2.0496e-05,-1.35682e-05,1.174e-05,-2.85309e-06,0
-2.992e-05,3.63452e-05,-2.58701e-06,-1.94519e-05,2.0724e-05,-1.38955e-05,1.06407e-05,-2.32657e-06,0
-3.01171e-05,3.08963e-05,-1.89795e-06,-1.26258e-05,1.90346e-05,-1.36037e-05,1.07055e-05,-1.18079e-06,0
-2.84162e-05,2.64635e-05,-5.78007e-07,-9.6001e-06,1.64777e-05,-1.22577e-05,1.28817e-05,5.473e-07,0
-2.6469e-05,2.28823e-05,1.25744e-06,-1.25566e-05,1.44278e-05,-1.07602e-05,1.54259e-05,3.03808e-06,0
-2.6526e-05,1.76943e-05,2.01176e-06,-1.78412e-05,1.20398e-05,-1.00346e-05,1.73832e-05,4.0688e-06,0
-2.75306e-05,1.07781e-05,1.22852e-06,-2.20364e-05,1.01789e-05,-9.90054e-06,1.85274e-05,3.25691e-06,0
-2.79989e-05,3.07952e-06,3.57919e-08,-2.4186e-05,9.75546e-06,-9.5251e-06,1.89273e-05,3.06344e-06,0
-2.842e-05,-3.65364e-06,-8.63497e-07,-2.60134e-05,1.04321e-05,-1.05882e-05,1.92913e-05,3.05161e-06,0
-2.92895e-05,-4.43414e-06,-1.3217e-06,-2.72504e-05,1.02433e-05,-1.2043e-05,1.8265e-05,3.69344e-06,0
-3.06851e-05,1.6578e-06,-2.07905e-06,-2.58848e-05,9.46254e-06,-1.14655e-05,1.43475e-05,5.5981e-06,0
-3.10362e-05,8.97558e-06,-2.35277e-06,-2.18695e-05,8.73983e-06,-1.04194e-05,1.00101e-05,7.04751e-06,0
-3.06922e-05,1.25333e-05,-1.53061e-06,-1.80242e-05,7.57158e-06,-1.04075e-05,7.03171e-06,6.58953e-06,0
-2.98439e-05,1.24873e-05,-8.98953e-07,-1.71584e-05,6.64445e-06,-8.62573e-06,6.75054e-06,4.43003e-06,0
-3.04194e-05,1.20917e-05,-1.07181e-07,-1.82093e-05,6.32989e-06,-5.71457e-06,9.04591e-06,2.08953e-06,0
-3.22702e-05,1.16868e-05,-5.72583e-07,-1.65273e-05,7.86429e-06,-5.52739e-06,9.2801e-06,1.12848e-06,0
-3.20577e-05,1.01222e-05,-1.27287e-06,-7.96984e-06,9.58486e-06,-8.24857e-06,7.7342e-06,1.48321e-06,0
-3.14278e-05,8.10348e-06,-2.53559e-06,1.08606e-05,9.99198e-06,-1.00337e-05,8.26442e-06,1.15091e-06,0
-3.16446e-05,7.16597e-06,-4.64764e-06,3.3122e-05,1.02105e-05,-1.02086e-05,9.48751e-06,-2.23878e-07,0
-3.30735e-05,8.28144e-06,-3.69879e-06,4.46056e-05,1.11318e-05,-1.10679e-05,1.17795e-05,-1.33553e-06,0
-3.41144e-05,1.34066e-05,-2.7552e-06,4.09807e-05,1.31804e-05,-1.21987e-05,1.52094e-05,-1.93075e-06,0
-3.29587e-05,2.0323e-05,-3.66178e-06,2.86048e-05,1.48341e-05,-1.35739e-05,1.78974e-05,-2.02602e-06,0
-3.08285e-05,2.72007e-05,-4.99753e-06,1.71457e-05,1.45105e-05,-1.36382e-05,1.84866e-05,-4.50568e-07,0
-2.82358e-05,3.67743e-05,-5.13535e-06,7.31078e-06,1.2863e-05,-1.25785e-05,1.79527e-05,1.13629e-06,0
-2.60564e-05,4.74176e-05,-4.36086e-06,-2.24814e-06,1.20627e-05,-1.13757e-05,1.77552e-05,1.04397e-06,0
-2.53793e-05,5.47579e-05,-4.90153e-06,-1.18309e-05,1.15404e-05,-1.06535e-05,1.72456e-05,1.41377e-06,0
-2.70171e-05,5.5052e-05,-5.42934e-06,-1.99048e-05,1.04189e-05,-9.58354e-06,1.63897e-05,2.48799e-06,0
-2.92037e-05,4.66518e-05,-5.19074e-06,-2.5404e-05,1.12084e-05,-7.33873e-06,1.47163e-05,2.22109e-06,0
-3.08858e-05,2.98513e-05,-4.84392e-06,-3.07226e-05,1.47693e-05,-4.83862e-06,1.3265e-05,1.68066e-06,0
-3.18382e-05,8.73078e-06,-5.25351e-06,-3.50596e-05,1.79093e-05,-3.06205e-06,1.20712e-05,2.64284e-06,0
-3.20452e-05,-1.19059e-05,-6.7094e-06,-3.46794e-05,1.74403e-05,-3.26864e-06,1.12676e-05,3.71632e-06,0
-3.23305e-05,-2.79746e-05,-8.67637e-06,-2.81419e-05,1.49545e-05,-5.07251e-06,1.11234e-05,3.88704e-06,0
-3.30533e-05,-3.64676e-05,-9.17049e-06,-2.01372e-05,1.32087e-05,-5.97597e-06,1.20755e-05,3.25482e-06,0
-3.36185e-05,-3.55047e-05,-9.30121e-06,-1.56506e-05,1.39987e-05,-4.48704e-06,1.43005e-05,3.29839e-06,0
-3.31658e-05,-2.56293e-05,-1.03582e-05,-1.5557e-05,1.727e-05,-2.80121e-06,1.7455e-05,4.05662e-06,0
-3.26925e-05,-1.37914e-05,-9.93326e-06,-1.68453e-05,2.12843e-05,-2.5397e-06,2.10865e-05,5.0861e-06,0
-3.22589e-05,-6.82766e-06,-7.55466e-06,-1.70138e-05,2.42525e-05,-4.58411e-06,2.54216e-05,6.5282e-06,0
-3.11986e-05,-4.45079e-06,-5.67359e-06,-1.69001e-05,2.32536e-05,-8.30793e-06,2.77686e-05,7.27216e-06,0
-2.89823e-05,-1.05048e-06,-5.73763e-06,-1.78577e-05,1.87501e-05,-1.1445e-05,2.66548e-05,7.57245e-06,0
-2.73847e-05,3.74569e-06,-8.7599e-06,-1.7067e-05,1.57162e-05,-1.22131e-05,2.67495e-05,8.32245e-06,0
-2.73359e-05,7.23741e-06,-1.31815e-05,-1.59615e-05,1.52297e-05,-1.07954e-05,3.13951e-05,8.59931e-06,0
-2.73808e-05,9.16947e-06,-1.50202e-05,-1.58222e-05,1.50322e-05,-8.21063e-06,3.64305e-05,7.16154e-06,0
-2.76037e-05,1.00782e-05,-1.25106e-05,-1.43926e-05,1.35526e-05,-6.31305e-06,3.62281e-05,5.07957e-06,0
-2.7757e-05,1.22228e-05,-9.52148e-06,-1.62326e-05,1.10566e-05,-6.6938e-06,3.08612e-05,4.51379e-06,0
-2.69172e-05,1.47072e-05,-9.19581e-06,-1.97686e-05,8.07958e-06,-7.95618e-06,2.21688e-05,4.45221e-06,0
-2.62642e-05,1.83104e-05,-1.04236e-05,-1.67672e-05,4.72816e-06,-8.52595e-06,1.03253e-05,3.49496e-06,0
-2.75307e-05,2.41613e-05,-1.16122e-05,-5.7424e-06,3.68288e-06,-7.09189e-06,-1.83147e-06,2.89457e-06,0
-2.93212e-05,3.06428e-05,-1.05392e-05,6.62246e-06,4.84643e-06,-5.24851e-06,-1.20417e-05,2.66611e-06,0
-2.91878e-05,3.50431e-05,-8.27754e-06,1.55147e-05,5.91213e-06,-5.90233e-06,-2.00215e-05,1.76735e-06,0
-2.81528e-05,3.29523e-05,-6.7378e-06,1.70688e-05,7.11633e-06,-7.40455e-06,-2.52201e-05,5.29815e-07,0
-2.7402e-05,2.6246e-05,-6.47272e-06,1.16578e-05,7.66024e-06,-7.42855e-06,-2.66037e-05,1.5312e-07,0
-2.69259e-05,1.70579e-05,-7.41257e-06,6.71049e-06,6.93224e-06,-7.28194e-06,-2.22639e-05,1.14156e-06,0
-2.79005e-05,7.75657e-06,-8.90694e-06,2.5386e-06,7.32605e-06,-7.25948e-06,-1.43645e-05,2.67351e-06,0
-2.91578e-05,-9.97099e-09,-9.56149e-06,-3.03906e-06,1.07201e-05,-5.33498e-06,-5.77957e-06,3.98447e-06,0
-2.81742e-05,-3.79649e-06,-9.3562e-06,-7.43121e-06,1.54425e-05,-2.19586e-06,8.08756e-07,3.96665e-06,0
-2.70502e-05,1.97503e-07,-9.26983e-06,-7.05049e-06,1.91281e-05,-1.08598e-06,4.42597e-06,2.54336e-06,0
-2.77986e-05,1.04491e-05,-1.00907e-05,-4.8952e-06,1.93521e-05,-3.08145e-06,5.24024e-06,1.7865e-06,0
-2.95196e-05,2.08399e-05,-1.11007e-05,-4.08334e-06,1.66463e-05,-5.3339e-06,4.88402e-06,1.96053e-06,0
-3.01896e-05,2.74661e-05,-1.10594e-05,-3.56694e-06,1.45844e-05,-6.68295e-06,5.15631e-06,1.49715e-06,0
-2.96447e-05,3.24748e-05,-1.07882e-05,-2.91483e-06,1.47783e-05,-8.07128e-06,7.17677e-06,1.01351e-06,0
-2.93822e-05,3.49172e-05,-1.17343e-05,-2.99906e-06,1.51339e-05,-9.88359e-06,9.02601e-06,1.22448e-06,0
-2.93617e-05,2.93139e-05,-1.37769e-05,-3.77797e-06,1.30152e-05,-1.15383e-05,7.82923e-06,3.4257e-07,0
-2.94483e-05,1.34787e-05,-1.49756e-05,-4.00692e-06,1.01995e-05,-1.23935e-05,5.91395e-06,-8.65718e-07,0
-2.98595e-05,-9.16341e-06,-1.46432e-05,-3.10537e-06,9.74648e-06,-1.35118e-05,6.97371e-06,-1.26781e-06,0
-3.10928e-05,-3.30453e-05,-1.41729e-05,-9.84163e-07,1.17161e-05,-1.54966e-05,9.54086e-06,-1.72864e-06,0
-3.23075e-05,-4.5289e-05,-1.36016e-05,-5.80293e-08,1.38543e-05,-1.74351e-05,1.2274e-05,-1.51276e-06,0
-3.2468e-05,-3.91121e-05,-1.10953e-05,1.74142e-06,1.5345e-05,-1.69851e-05,1.50283e-05,-3.3286e-07,0
-3.2335e-05,-2.47922e-05,-8.37751e-06,8.02777e-06,1.68595e-05,-1.43949e-05,1.72535e-05,1.00467e-06,0
-3.38095e-05,-1.36777e-05,-7.41563e-06,1.534e-05,1.89662e-05,-1.31769e-05,1.99677e-05,2.67677e-06,0
-3.48119e-05,-7.1803e-06,-6.96732e-06,1.72226e-05,1.75658e-05,-1.54305e-05,2.12106e-05,3.78778e-06,0
-3.391e-05,-1.54493e-06,-6.70409e-06,1.35424e-05,1.27415e-05,-1.8034e-05,2.13532e-05,3.37483e-06,0
-3.30625e-05,4.52231e-06,-8.07051e-06,7.80861e-06,9.92216e-06,-1.84578e-05,2.22664e-05,1.14751e-06,0
-3.32103e-05,9.75345e-06,-1.10784e-05,4.63649e-07,9.3044e-06,-1.67015e-05,2.46825e-05,-1.2341e-06,0
-3.42586e-05,1.48922e-05,-1.54424e-05,-9.41083e-06,1.00046e-05,-1.37061e-05,2.57164e-05,-2.16244e-06,0
-3.47274e-05,1.99311e-05,-1.88371e-05,-1.95442e-05,1.17863e-05,-1.27374e-05,2.49472e-05,-1.84578e-06,0
-3.43148e-05,2.21139e-05,-1.82181e-05,-2.48611e-05,1.29989e-05,-1.3622e-05,2.4478e-05,-1.02256e-06,0
-3.40536e-05,2.13354e-05,-1.66828e-05,-2.58416e-05,1.20015e-05,-1.51934e-05,2.42108e-05,-7.6478e-07,0
-3.39957e-05,1.92005e-05,-1.77633e-05,-2.4293e-05,9.24912e-06,-1.63767e-05,2.48287e-05,-1.55999e-06,0
-3.27724e-05,1.84522e-05,-2.02491e-05,-2.0582e-05,8.7882e-06,-1.60716e-05,2.53686e-05,-3.71704e-06,0
-3.11118e-05,1.93054e-05,-2.05102e-05,-1.4037e-05,1.20888e-05,-1.47995e-05,2.48458e-05,-4.87579e-06,0
-3.0265e-05,2.02689e-05,-1.80928e-05,-2.50168e-06,1.54128e-05,-1.29982e-05,2.46351e-05,-4.02224e-06,0
-2.9507e-05,2.09419e-05,-1.5312e-05,1.67255e-05,1.59204e-05,-1.16509e-05,2.48764e-05,-2.67874e-06,0
-2.90593e-05,2.18203e-05,-1.34767e-05,4.08134e-05,1.33698e-05,-1.15021e-05,2.33533e-05,-2.0455e-06,0
-2.93862e-05,2.24063e-05,-1.22357e-05,5.56143e-05,9.9067e-06,-1.1785e-05,1.9947e-05,-2.4097e-06,0
-2.99077e-05,2.14627e-05,-1.11675e-05,5.12645e-05,7.425e-06,-1.10468e-05,1.60269e-05,-3.44988e-06,0
-2.95978e-05,2.00654e-05,-1.10525e-05,3.38054e-05,6.3204e-06,-9.51209e-06,1.22849e-05,-4.00195e-06,0
-2.97484e-05,1.89046e-05,-1.10705e-05,1.57509e-05,6.16515e-06,-8.57026e-06,9.04428e-06,-4.50387e-06,0
-3.14396e-05,1.80171e-05,-9.77997e-06,4.03849e-06,6.96445e-06,-9.18844e-06,7.4601e-06,-5.36637e-06,0
-3.26445e-05,1.86277e-05,-7.65036e-06,-2.70261e-06,8.50373e-06,-1.04765e-05,8.04857e-06,-4.69396e-06,0
-3.23223e-05,2.08201e-05,-6.22149e-06,-1.08136e-05,9.80323e-06,-1.09786e-05,9.37994e-06,-2.85139e-06,0
-3.15536e-05,2.29601e-05,-5.92996e-06,-2.05977e-05,1.0921e-05,-1.07395e-05,1.02578e-05,-1.29303e-06,0
-3.04421e-05,2.40067e-05,-6.35194e-06,-2.88988e-05,1.1903e-05,-1.11714e-05,1.08503e-05,-4.85527e-07,0
-2.96535e-05,2.38417e-05,-6.50114e-06,-3.73772e-05,1.20247e-05,-1.17134e-05,1.05786e-05,2.77198e-08,0
-2.94443e-05,2.38752e-05,-5.89031e-06,-4.83796e-05,1.3e-05,-1.0853e-05,9.94753e-06,6.38129e-07,0
-2.9317e-05,2.45511e-05,-4.82027e-06,-6.08382e-05,1.64425e-05,-8.71954e-06,9.87e-06,1.29446e-06,0
-2.98277e-05,2.55879e-05,-4.46485e-06,-7.06402e-05,1.98193e-05,-6.21849e-06,9.7898e-06,2.47542e-06,0
-2.93923e-05,2.56295e-05,-5.11212e-06,-6.3875e-05,2.01066e-05,-5.23837e-06,1.02217e-05,3.37977e-06,0
-2.84472e-05,2.42829e-05,-4.74631e-06,-3.65994e-05,1.88495e-05,-6.47425e-06,1.25503e-05,5.08952e-06,0
-2.76332e-05,2.18259e-05,-3.68104e-06,-6.66579e-06,1.90449e-05,-8.29697e-06,1.41863e-05,6.38859e-06,0
-2.66695e-05,1.91692e-05,-3.04169e-06,1.20356e-05,1.94294e-05,-8.36128e-06,1.42021e-05,6.49014e-06,0
-2.69655e-05,1.72317e-05,-2.46907e-06,1.55876e-05,1.83188e-05,-6.48829e-06,1.58785e-05,7.41585e-06,0
-2.77839e-05,1.52162e-05,-1.81151e-06,9.90839e-06,1.65262e-05,-5.22704e-06,1.97558e-05,5.90659e-06,0
-2.80434e-05,1.34377e-05,-8.4954e-07,3.5994e-06,1.5564e-05,-7.10799e-06,2.33614e-05,4.08588e-06,0
-2.8792e-05,1.22027e-05,-7.68088e-07,-1.28066e-07,1.52934e-05,-9.99018e-06,2.30052e-05,2.17545e-06,0
-2.99001e-05,1.17487e-05,-2.32993e-06,-2.53143e-06,1.26765e-05,-1.12014e-05,1.98554e-05,1.04325e-06,0
-2.94174e-05,1.08725e-05,-4.17894e-06,-3.18436e-06,8.56996e-06,-1.1062e-05,1.75699e-05,2.23922e-06,0
-2.90018e-05,8.76086e-06,-5.19616e-06,-4.71344e-06,6.12277e-06,-1.13898e-05,1.79194e-05,3.36799e-06,0
-3.02378e-05,5.60364e-06,-5.69234e-06,-9.02788e-06,5.85068e-06,-1.23209e-05,1.92237e-05,4.23139e-06,0
-3.11969e-05,3.91491e-06,-5.45228e-06,-1.35074e-05,6.5556e-06,-1.20951e-05,1.85293e-05,4.32933e-06,0
-3.11746e-05,5.8283e-06,-4.87483e-06,-1.59654e-05,8.49622e-06,-1.03015e-05,1.64077e-05,4.05794e-06,0
-3.10993e-05,9.08777e-06,-5.83517e-06,-1.69435e-05,1.1381e-05,-8.44681e-06,1.4357e-05,2.98482e-06,0
-3.16151e-05,9.85099e-06,-8.06779e-06,-1.82896e-05,1.18658e-05,-8.0153e-06,1.2853e-05,2.06077e-06,0
-3.27877e-05,7.89117e-06,-9.6944e-06,-1.74462e-05,9.44671e-06,-7.88965e-06,1.15491e-05,2.18077e-06,0
-3.37722e-05,6.55432e-06,-1.07151e-05,-1.16253e-05,7.91452e-06,-7.30724e-06,1.03522e-05,2.03366e-06,0
-3.31035e-05,6.72896e-06,-1.18174e-05,-1.54494e-06,9.01358e-06,-7.0219e-06,9.52124e-06,4.02013e-07,0
-3.12445e-05,6.63534e-06,-1.20403e-05,8.29443e-06,1.08508e-05,-6.35689e-06,9.15985e-06,-4.18991e-07,0
-2.99431e-05,6.86798e-06,-1.07387e-05,1.48064e-05,1.29046e-05,-4.57487e-06,9.08327e-06,-1.02018e-06,0
-2.96336e-05,9.70755e-06,-7.87869e-06,1.52299e-05,1.47702e-05,-3.99879e-06,9.53604e-06,-2.65023e-06,0
-3.05052e-05,1.74854e-05,-6.00831e-06,1.01407e-05,1.59821e-05,-4.09962e-06,9.33306e-06,-2.60917e-06,0
-3.07774e-05,3.13689e-05,-6.74764e-06,4.62194e-06,1.62736e-05,-3.15354e-06,8.56157e-06,3.51594e-07,0
-2.95972e-05,4.30589e-05,-7.01495e-06,2.14933e-06,1.66033e-05,-1.54624e-06,7.34739e-06,2.41349e-06,0
-2.96383e-05,4.45637e-05,-5.14156e-06,2.76e-07,1.67825e-05,3.07673e-07,1.46739e-06,1.40625e-06,0
-3.00462e-05,3.61542e-05,-3.55342e-06,-4.05325e-06,1.60982e-05,5.23095e-07,-6.01528e-06,-1.1929e-06,0
-3.06966e-05,2.24275e-05,-4.02635e-06,-9.55716e-06,1.38552e-05,-7.31858e-07,-6.84457e-06,-1.50838e-06,0
-3.03761e-05,5.62998e-06,-5.57441e-06,-1.16059e-05,1.10194e-05,-1.14157e-06,-1.33195e-06,4.7326e-07,0
-2.86244e-05,-1.12699e-05,-6.84341e-06,-6.59993e-06,1.17662e-05,-1.99962e-07,6.51404e-06,1.30537e-06,0
-2.71782e-05,-2.0295e-05,-6.73841e-06,1.83245e-06,1.57624e-05,3.09388e-07,1.41971e-05,6.49354e-07,0
-2.65423e-05,-2.2401e-05,-5.24049e-06,6.67561e-06,1.75349e-05,-6.04752e-07,1.73668e-05,-9.07904e-07,0
-2.72248e-05,-2.00094e-05,-3.85905e-06,5.23573e-06,1.55158e-05,-7.47205e-07,1.57141e-05,-9.39092e-07,0
-2.7631e-05,-1.49207e-05,-2.90587e-06,3.3981e-07,1.2959e-05,-1.34674e-06,1.46431e-05,5.92303e-07,0
-2.89703e-05,-8.65474e-06,-4.38877e-06,-3.94352e-06,1.31968e-05,-3.87751e-06,1.61168e-05,2.79103e-06,0
-3.03166e-05,-2.25753e-06,-9.63338e-06,-6.81283e-06,1.44015e-05,-6.55355e-06,1.49873e-05,4.71995e-06,0
-3.15599e-05,2.41648e-06,-1.47463e-05,-6.62734e-06,1.33345e-05,-7.59029e-06,5.51518e-06,6.19965e-06,0
-3.34283e-05,6.90285e-06,-1.67406e-05,-2.3757e-06,1.13585e-05,-7.03176e-06,-7.40913e-06,5.55835e-06,0
-3.44574e-05,1.10325e-05,-1.59091e-05,3.72712e-06,1.03808e-05,-5.50398e-06,-1.27857e-05,3.44458e-06,0
-3.43918e-05,1.55469e-05,-1.39142e-05,8.50591e-06,1.02881e-05,-2.61538e-06,-8.01269e-06,1.78535e-06,0
-3.41191e-05,1.98695e-05,-1.156e-05,9.13317e-06,1.06472e-05,2.21627e-07,3.29287e-06,1.41641e-06,0
-3.39524e-05,2.19696e-05,-1.04187e-05,6.82005e-06,1.18608e-05,9.10131e-07,1.76118e-05,1.97753e-06,0
-3.30851e-05,2.18953e-05,-1.02916e-05,6.96878e-06,1.21332e-05,-1.78248e-06,3.20915e-05,1.98758e-06,0
-3.22799e-05,2.10942e-05,-1.02367e-05,1.35651e-05,1.18317e-05,-5.91054e-06,4.37571e-05,1.68158e-06,0
-3.18913e-05,1.91049e-05,-1.09472e-05,2.22646e-05,1.20375e-05,-7.84055e-06,5.04633e-05,1.83628e-06,0
-3.18918e-05,1.61404e-05,-1.23223e-05,2.56655e-05,1.19702e-05,-6.99932e-06,5.1953e-05,2.95121e-06,0
-3.18199e-05,1.27811e-05,-1.32095e-05,2.18177e-05,1.24866e-05,-6.96185e-06,4.98836e-05,3.62199e-06,0
-3.17108e-05,9.09359e-06,-1.24589e-05,1.51768e-05,1.4101e-05,-8.11201e-06,4.52771e-05,4.20152e-06,0
-3.21506e-05,8.75226e-06,-1.09789e-05,9.11338e-06,1.50888e-05,-9.96676e-06,3.92083e-05,5.15237e-06,0
-3.23944e-05,1.28063e-05,-8.99634e-06,6.54059e-06,1.50522e-05,-1.19015e-05,3.43632e-05,5.6422e-06,0
-3.18381e-05,1.54244e-05,-6.92476e-06,1.0599e-05,1.69556e-05,-1.21338e-05,2.99555e-05,5.92428e-06,0
-3.11756e-05,1.36129e-05,-7.24046e-06,1.8273e-05,2.02011e-05,-1.10251e-05,2.53406e-05,5.91085e-06,0
-3.12542e-05,9.41336e-06,-8.69609e-06,2.10201e-05,2.05604e-05,-9.62835e-06,2.10263e-05,4.80578e-06,0
-3.10801e-05,4.37646e-06,-9.84764e-06,1.66811e-05,1.8622e-05,-9.65105e-06,1.70533e-05,3.92724e-06,0
-3.00764e-05,2.26205e-06,-1.11702e-05,7.33075e-06,1.51506e-05,-9.93729e-06,1.31121e-05,4.33685e-06,0
-3.0041e-05,3.86121e-06,-1.05084e-05,-3.32776e-06,1.12473e-05,-9.74147e-06,1.02839e-05,6.9367e-06,0
-3.0422e-05,7.73868e-06,-9.60715e-06,-1.10902e-05,1.03397e-05,-9.37892e-06,9.79782e-06,9.29026e-06,0
-3.10513e-05,1.20958e-05,-9.84294e-06,-1.80889e-05,1.22615e-05,-9.4015e-06,9.16642e-06,8.40311e-06,0
-3.13779e-05,1.45718e-05,-9.45612e-06,-2.77559e-05,1.2962e-05,-1.03181e-05,5.99552e-06,5.05236e-06,0
-3.09316e-05,1.75228e-05,-8.53802e-06,-3.85835e-05,1.24251e-05,-1.12364e-05,2.74601e-06,1.93616e-06,0
-3.00916e-05,1.96058e-05,-7.48336e-06,-3.61092e-05,1.24765e-05,-1.22425e-05,9.83345e-07,2.77341e-06,0
-2.99414e-05,1.91485e-05,-5.17709e-06,-1.43924e-05,1.37357e-05,-1.32853e-05,-5.06438e-07,5.86904e-06,0
-3.11997e-05,1.79793e-05,-2.46037e-06,7.46865e-06,1.50828e-05,-1.47116e-05,-1.0317e-06,6.97889e-06,0
-3.18036e-05,1.80181e-05,-2.29523e-06,1.38204e-05,1.45131e-05,-1.59096e-05,-4.5911e-07,4.1019e-06,0
-3.08348e-05,2.12901e-05,-4.10309e-06,7.36842e-06,1.33125e-05,-1.60275e-05,8.00295e-07,9.16518e-07,0
-2.95445e-05,2.94789e-05,-5.28559e-06,-2.8947e-06,1.17855e-05,-1.54034e-05,3.38524e-06,1.78032e-06,0
-2.9726e-05,4.15448e-05,-5.721e-06,-1.18785e-05,1.03793e-05,-1.37974e-05,5.76379e-06,3.78887e-06,0
-3.04771e-05,5.3466e-05,-7.25597e-06,-1.79424e-05,9.55338e-06,-1.0978e-05,6.99051e-06,4.24264e-06,0
-3.01915e-05,6.32115e-05,-9.99088e-06,-2.13043e-05,8.78768e-06,-8.57679e-06,1.13555e-05,2.34685e-06,0
-2.82975e-05,6.72927e-05,-1.196e-05,-2.38176e-05,6.62566e-06,-8.00164e-06,2.27107e-05,4.74676e-07,0
-2.59552e-05,6.33499e-05,-1.0668e-05,-2.75841e-05,5.02794e-06,-8.10382e-06,3.63464e-05,1.65598e-06,0
-2.51904e-05,5.24706e-05,-6.67507e-06,-3.56271e-05,4.955e-06,-8.38292e-06,4.46899e-05,3.8792e-06,0
-2.71377e-05,3.82363e-05,-3.487e-06,-5.20697e-05,3.8219e-06,-1.02199e-05,4.6592e-05,3.90456e-06,0
-2.98414e-05,2.23775e-05,-3.37584e-06,-7.06131e-05,5.75028e-07,-1.28324e-05,4.23794e-05,2.1336e-06,0
-3.08889e-05,5.54819e-06,-5.7954e-06,-7.46016e-05,-2.33096e-06,-1.35116e-05,3.30694e-05,1.17492e-06,0
-2.99639e-05,-8.7059e-06,-8.05946e-06,-6.17957e-05,-1.74544e-06,-1.42804e-05,2.07436e-05,3.51219e-07,0
-2.78035e-05,-1.81677e-05,-7.8637e-06,-4.64358e-05,5.71997e-07,-1.64173e-05,6.97461e-06,-1.24527e-06,0
-2.58159e-05,-2.52766e-05,-6.58745e-06,-3.88928e-05,1.99107e-06,-1.72791e-05,-7.50204e-06,-2.76716e-06,0
-2.57306e-05,-3.10285e-05,-6.20236e-06,-3.25497e-05,4.50706e-06,-1.58201e-05,-2.45415e-05,-3.13816e-06,0
-2.80263e-05,-3.42034e-05,-6.21636e-06,-1.44151e-05,9.02917e-06,-1.44007e-05,-4.38621e-05,-1.8941e-06,0
-2.97315e-05,-3.04785e-05,-5.79626e-06,1.67986e-05,1.47771e-05,-1.52771e-05,-6.10735e-05,6.85231e-07,0
-2.9039e-05,-2.03297e-05,-5.50324e-06,4.54255e-05,2.05912e-05,-1.67641e-05,-6.51617e-05,2.57935e-06,0
-2.77477e-05,-1.16621e-05,-6.58531e-06,5.85801e-05,2.67431e-05,-1.61596e-05,-5.26545e-05,2.46152e-06,0
-2.67236e-05,-4.87943e-06,-7.50809e-06,5.68875e-05,3.4288e-05,-1.43485e-05,-3.21167e-05,1.67365e-06,0
-2.56478e-05,-6.03659e-07,-7.8667e-06,4.37482e-05,3.74121e-05,-1.20956e-05,-9.15315e-06,1.24169e-06,0
-2.57238e-05,5.76743e-07,-8.9126e-06,2.45618e-05,3.40024e-05,-8.98671e-06,8.38408e-06,1.27907e-06,0
-2.6548e-05,4.48829e-07,-9.48875e-06,7.87034e-06,2.64438e-05,-8.1527e-06,1.95473e-05,1.89674e-06,0
-2.56482e-05,2.11483e-07,-7.73239e-06,1.41454e-06,1.76013e-05,-9.60853e-06,2.76615e-05,2.22506e-06,0
-2.54975e-05,7.58179e-07,-4.64075e-06,1.24847e-06,1.29759e-05,-1.16325e-05,3.32641e-05,3.40036e-06,0
-2.83281e-05,1.20896e-06,-2.59543e-06,9.23843e-07,1.1931e-05,-1.32948e-05,3.62748e-05,4.76793e-06,0
-3.11269e-05,1.67079e-06,-1.11509e-06,2.31005e-06,1.17939e-05,-1.40221e-05,3.67307e-05,4.10088e-06,0
-3.248e-05,2.21622e-06,-5.78313e-07,5.89176e-06,1.22837e-05,-1.33805e-05,3.46558e-05,2.25057e-06,0
-3.2666e-05,1.1005e-06,-1.44306e-06,7.1812e-06,1.21798e-05,-1.27053e-05,3.02294e-05,-4.19402e-07,0
-3.16223e-05,-1.29546e-06,-3.39807e-06,4.70433e-06,1.14221e-05,-1.32413e-05,2.52985e-05,-2.67215e-06,0
-2.97071e-05,-3.21466e-06,-6.17093e-06,7.92295e-07,1.14217e-05,-1.27675e-05,2.14658e-05,-3.97992e-06,0
-2.7924e-05,-3.81023e-06,-8.75615e-06,-2.08245e-06,1.22331e-05,-1.04511e-05,2.07491e-05,-3.6605e-06,0
-2.74813e-05,-3.07186e-06,-1.00196e-05,-2.70613e-06,1.22699e-05,-7.60923e-06,2.23771e-05,-2.55776e-06,0
-2.89993e-05,-1.14011e-06,-9.91094e-06,-1.29063e-06,1.27952e-05,-6.46944e-06,2.45447e-05,-1.77643e-06,0
-3.10881e-05,1.94689e-06,-8.54229e-06,2.42727e-07,1.44989e-05,-7.52256e-06,2.49528e-05,3.9976e-08,0
-3.22178e-05,6.15303e-06,-5.99252e-06,-4.31459e-07,1.54851e-05,-1.01272e-05,2.29619e-05,2.76438e-06,0
-3.16615e-05,1.03748e-05,-4.27241e-06,-2.28627e-06,1.36807e-05,-1.25277e-05,1.96484e-05,3.36351e-06,0
-3.0489e-05,1.15934e-05,-4.55764e-06,-1.43417e-06,1.08736e-05,-1.34709e-05,1.78371e-05,7.43937e-07,0
-3.06938e-05,1.01949e-05,-6.89327e-06,3.9211e-06,1.11325e-05,-1.3005e-05,1.83771e-05,-2.34978e-06,0
-3.20597e-05,9.95317e-06,-1.01931e-05,8.43302e-06,1.29136e-05,-1.29373e-05,1.96314e-05,-3.86038e-06,0
-3.29669e-05,1.36424e-05,-1.21671e-05,7.70725e-06,1.32613e-05,-1.35765e-05,1.87519e-05,-3.81497e-06,0
-3.2465e-05,1.89758e-05,-1.18484e-05,3.03723e-06,1.31933e-05,-1.37648e-05,1.49295e-05,-3.40117e-06,0
-3.14458e-05,2.16528e-05,-1.15197e-05,-2.36076e-06,1.24251e-05,-1.37648e-05,1.18129e-05,-2.87548e-06,0
-3.06555e-05,2.17927e-05,-1.04012e-05,-6.80506e-06,1.18371e-05,-1.36238e-05,1.01844e-05,-1.60366e-06,0
-2.95437e-05,2.13121e-05,-8.62333e-06,-1.03139e-05,1.19837e-05,-1.30493e-05,6.39818e-06,8.376e-07,0
-2.86444e-05,2.11743e-05,-7.294e-06,-1.0959e-05,1.08509e-05,-1.23402e-05,1.37054e-06,3.13057e-06,0
-2.87522e-05,2.2019e-05,-5.34397e-06,-5.83322e-06,1.19093e-05,-1.27193e-05,-4.66653e-08,4.03012e-06,0
-2.78774e-05,2.05527e-05,-5.21439e-06,3.58795e-07,1.69833e-05,-1.33623e-05,2.22565e-06,4.32742e-06,0
-2.66127e-05,1.6538e-05,-6.01182e-06,-3.97462e-07,2.14708e-05,-1.24083e-05,3.87057e-06,4.16923e-06,0
-2.62724e-05,1.28606e-05,-5.46635e-06,-7.69917e-06,2.31047e-05,-9.67093e-06,4.30543e-06,2.7888e-06,0
-2.59313e-05,1.0815e-05,-3.73946e-06,-1.59164e-05,2.31295e-05,-7.90173e-06,4.69092e-06,1.30563e-06,0
-2.68434e-05,8.31013e-06,-2.4727e-06,-2.27397e-05,2.2971e-05,-8.84311e-06,5.73384e-06,1.18025e-06,0
-2.86672e-05,3.14157e-06,-3.47503e-06,-2.76344e-05,2.31989e-05,-1.04335e-05,7.46652e-06,3.22779e-06,0
-3.07936e-05,-6.02602e-07,-6.57914e-06,-2.67759e-05,2.36694e-05,-1.22127e-05,7.87191e-06,5.00805e-06,0
-3.19068e-05,-5.33712e-07,-1.03047e-05,-2.03675e-05,2.31341e-05,-1.4278e-05,6.74307e-06,5.03774e-06,0
-3.21885e-05,3.10706e-06,-1.24101e-05,-1.26492e-05,2.09768e-05,-1.59444e-05,6.14839e-06,3.70855e-06,0
-3.2493e-05,8.46204e-06,-1.20962e-05,-6.54497e-06,1.87457e-05,-1.65862e-05,7.56812e-06,2.87631e-06,0
-3.27944e-05,1.21917e-05,-1.14846e-05,-2.52733e-06,1.70666e-05,-1.56179e-05,9.62882e-06,3.27488e-06,0
-3.33103e-05,1.31373e-05,-1.25499e-05,-2.62273e-09,1.68909e-05,-1.48914e-05,1.07898e-05,2.5403e-06,0
-3.29331e-05,1.29943e-05,-1.51683e-05,1.98701e-06,1.77931e-05,-1.57126e-05,1.0028e-05,1.28394e-06,0
-3.14401e-05,1.3021e-05,-1.72262e-05,3.17679e-06,1.81008e-05,-1.67614e-05,8.21193e-06,1.28268e-06,0
-2.94143e-05,1.31342e-05,-1.67902e-05,1.82917e-06,1.73898e-05,-1.64864e-05,6.4272e-06,1.47556e-06,0
-2.84921e-05,1.34019e-05,-1.47798e-05,-3.66098e-06,1.61705e-05,-1.52747e-05,6.30652e-06,-1.11951e-07,0
-2.91315e-05,1.28044e-05,-1.25618e-05,-1.18812e-05,1.43592e-05,-1.36319e-05,6.80711e-06,-1.57872e-06,0
-3.12988e-05,1.12872e-05,-1.09925e-05,-1.76529e-05,1.25142e-05,-1.18593e-05,6.76402e-06,-1.25287e-06,0
-3.34619e-05,1.12676e-05,-9.48414e-06,-1.84216e-05,1.08377e-05,-1.03837e-05,7.51457e-06,-5.42067e-07,0
-3.43849e-05,1.32624e-05,-7.98696e-06,-1.6335e-05,8.63635e-06,-1.04492e-05,8.11022e-06,-2.94768e-07,0
-3.33605e-05,1.32971e-05,-6.98154e-06,-1.51165e-05,7.59289e-06,-1.16632e-05,7.22235e-06,6.02656e-07,0
-3.08725e-05,1.07543e-05,-6.80317e-06,-1.37087e-05,8.28054e-06,-1.18092e-05,7.46972e-06,-6.36038e-07,0
-2.93981e-05,1.04215e-05,-6.94239e-06,-1.14198e-05,1.02679e-05,-1.15531e-05,1.1044e-05,-2.79544e-06,0
-2.98989e-05,1.24799e-05,-5.74325e-06,-9.73711e-06,1.24582e-05,-1.21495e-05,1.43345e-05,-1.94139e-06,0
-3.05582e-05,1.36316e-05,-4.05602e-06,-1.04851e-05,1.2962e-05,-1.18111e-05,1.46552e-05,1.02932e-06,0
-3.11556e-05,1.40509e-05,-3.76596e-06,-9.55283e-06,1.31317e-05,-8.38533e-06,1.36625e-05,2.29182e-06,0
-3.22403e-05,1.53539e-05,-5.5132e-06,-3.25626e-06,1.45555e-05,-4.26388e-06,1.26031e-05,8.2938e-07,0
-3.31099e-05,1.74252e-05,-7.16144e-06,-1.7391e-07,1.3896e-05,-3.3698e-06,1.20284e-05,6.58466e-07,0
-3.37088e-05,2.0317e-05,-7.92654e-06,-2.25423e-06,1.16643e-05,-5.20851e-06,1.27994e-05,2.49286e-06,0
-3.25347e-05,2.17017e-05,-9.0526e-06,-6.11218e-06,1.16948e-05,-6.83046e-06,1.41205e-05,4.59528e-06,0
-3.06632e-05,2.23667e-05,-9.72688e-06,-1.08987e-05,1.20577e-05,-7.33604e-06,1.37303e-05,4.84465e-06,0
-3.06967e-05,2.25617e-05,-9.62449e-06,-1.81027e-05,1.13842e-05,-6.90057e-06,1.07715e-05,4.07e-06,0
-3.24768e-05,2.03837e-05,-8.7321e-06,-2.55275e-05,1.1336e-05,-6.78168e-06,5.64938e-06,3.52138e-06,0
-3.37745e-05,1.80966e-05,-7.51213e-06,-2.79983e-05,1.17105e-05,-7.78478e-06,2.25307e-07,1.85627e-06,0
-3.43082e-05,1.69099e-05,-7.35644e-06,-2.72472e-05,1.09823e-05,-9.36367e-06,-3.3393e-06,-7.38254e-07,0
-3.42127e-05,1.68193e-05,-9.57617e-06,-2.69188e-05,9.26936e-06,-1.09616e-05,-3.79177e-06,-2.34221e-06,0
-3.32989e-05,1.81051e-05,-1.24952e-05,-2.98494e-05,6.97451e-06,-1.19221e-05,-1.20367e-06,-1.0983e-06,0
-3.28854e-05,2.48227e-05,-1.36761e-05,-3.22574e-05,5.98064e-06,-1.30102e-05,3.37644e-06,1.65494e-06,0
-3.24312e-05,3.87917e-05,-1.26492e-05,-2.56758e-05,5.44925e-06,-1.42653e-05,9.49034e-06,2.21035e-06,0
-3.08608e-05,5.60869e-05,-1.05969e-05,-7.37071e-06,2.7378e-06,-1.47004e-05,1.56607e-05,1.60224e-07,0
-2.9765e-05,7.095e-05,-1.00863e-05,1.43846e-05,7.27365e-07,-1.38106e-05,2.10164e-05,-1.88366e-06,0
