ch1,ch2,ch3,ch4,ch5,ch6,ch7,ch8,class
-2.24942e-05,1.3276e-05,-4.95127e-06,-1.39271e-05,8.54183e-06,-3.15256e-06,1.30386e-05,4.05147e-06,0
-2.27896e-05,1.29521e-05,-8.67289e-06,-6.17628e-06,1.06675e-05,-2.02151e-06,1.25425e-05,2.65871e-06,0
-2.27195e-05,1.26264e-05,-1.28249e-05,-1.02856e-07,1.00058e-05,-2.68961e-06,1.41196e-05,3.11918e-06,0
-2.31404e-05,1.09809e-05,-1.62063e-05,3.35976e-06,8.43634e-06,-2.72331e-06,1.64078e-05,3.24376e-06,0
-2.45947e-05,9.0563e-06,-1.88832e-05,4.81836e-06,8.93363e-06,-1.85969e-06,1.66998e-05,2.89431e-06,0
-2.60276e-05,7.1856e-06,-2.00223e-05,6.11192e-06,9.83116e-06,-2.36773e-06,1.63147e-05,2.357e-06,0
-2.73746e-05,4.43346e-06,-2.22674e-05,5.72246e-06,1.06319e-05,-4.66292e-06,1.6051e-05,2.58315e-06,0
-2.82062e-05,2.22561e-06,-2.55319e-05,4.92452e-06,1.02788e-05,-8.91441e-06,1.5027e-05,3.748e-06,0
-2.75184e-05,2.01319e-06,-2.6983e-05,3.08624e-06,9.71371e-06,-1.2574e-05,1.46074e-05,4.68112e-06,0
-2.68249e-05,5.42203e-06,-2.54353e-05,2.00256e-06,9.86075e-06,-1.4284e-05,1.46667e-05,4.38564e-06,0
-2.71092e-05,1.05751e-05,-2.2282e-05,4.44358e-06,1.1265e-05,-1.34514e-05,1.36602e-05,3.16953e-06,0
-2.67113e-05,1.46273e-05,-1.90812e-05,6.85259e-06,1.23377e-05,-1.10255e-05,1.35562e-05,2.70391e-06,0
-2.6764e-05,1.65528e-05,-1.52491e-05,7.65213e-06,1.22898e-05,-8.68261e-06,1.38501e-05,2.31501e-06,0
-2.79617e-05,1.63391e-05,-1.02552e-05,7.63241e-06,1.22062e-05,-6.77632e-06,1.26397e-05,2.67559e-06,0
-2.91399e-05,1.36537e-05,-6.0188e-06,6.11592e-06,1.27358e-05,-7.19987e-06,9.23605e-06,3.20335e-06,0
-3.02955e-05,1.11843e-05,-3.07902e-06,2.44577e-06,1.38379e-05,-9.04113e-06,6.55131e-06,2.03806e-06,0
-3.16753e-05,9.64582e-06,-9.96378e-07,-1.16445e-06,1.45944e-05,-9.14429e-06,7.48085e-06,2.96264e-08,0
-3.38141e-05,8.16202e-06,5.34045e-07,-3.0766e-06,1.5497e-05,-8.50255e-06,1.14114e-05,-4.91705e-07,0
-3.60918e-05,7.91351e-06,2.02044e-06,-4.01952e-06,1.51066e-05,-9.78897e-06,1.5554e-05,7.05804e-07,0
-3.7218e-05,7.86515e-06,1.76263e-06,-5.62193e-06,1.33676e-05,-1.18036e-05,1.81756e-05,1.72436e-06,0
-3.73e-05,7.06081e-06,-1.34817e-06,-6.68758e-06,1.11501e-05,-1.18472e-05,2.02733e-05,1.34074e-06,0
-3.6706e-05,6.10236e-06,-6.14653e-06,-4.75097e-06,9.60377e-06,-1.00514e-05,2.3959e-05,9.75963e-08,0
-3.51153e-05,5.78877e-06,-9.14115e-06,-1.74883e-06,8.07249e-06,-7.88723e-06,2.84028e-05,-5.09717e-07,0
-3.40952e-05,4.97843e-06,-9.48997e-06,-1.94907e-06,7.66054e-06,-6.5142e-06,3.08181e-05,-7.91726e-07,0
-3.39552e-05,3.74438e-06,-1.06713e-05,-4.06657e-06,9.98086e-06,-6.55196e-06,3.08861e-05,7.33884e-07,0
-3.32548e-05,2.37993e-06,-1.4172e-05,-4.34145e-06,1.55106e-05,-8.21468e-06,2.91714e-05,3.92296e-06,0
-3.15565e-05,2.84304e-06,-1.61993e-05,-4.64636e-06,2.23558e-05,-9.12721e-06,2.53526e-05,7.0196e-06,0
-3.10306e-05,3.2796e-06,-1.38667e-05,-6.97947e-06,2.74563e-05,-7.03849e-06,2.05228e-05,8.5851e-06,0
-3.24099e-05,2.52227e-06,-9.21151e-06,-8.30614e-06,2.86426e-05,-5.11122e-06,1.77519e-05,8.09923e-06,0
-3.30964e-05,1.96483e-06,-4.92028e-06,-8.02278e-06,2.83035e-05,-5.3878e-06,1.64276e-05,7.33343e-06,0
-3.21219e-05,3.72786e-06,-1.85056e-06,-8.2142e-06,2.84231e-05,-8.15651e-06,1.4058e-05,6.86679e-06,0
-3.08628e-05,7.4345e-06,-7.99184e-08,-7.21635e-06,2.50258e-05,-1.29974e-05,1.24374e-05,8.41813e-06,0
-2.99548e-05,8.97799e-06,4.85809e-07,-6.46771e-06,1.86485e-05,-1.63645e-05,1.37038e-05,8.52987e-06,0
-2.90418e-05,8.34833e-06,2.81199e-06,-8.15723e-06,1.22645e-05,-1.56516e-05,1.43535e-05,6.72195e-06,0
-2.97437e-05,6.72441e-06,6.87815e-06,-1.09852e-05,5.30953e-06,-1.25719e-05,1.26125e-05,5.17299e-06,0
-3.04508e-05,5.93972e-06,9.46145e-06,-1.37816e-05,3.8118e-07,-9.7329e-06,1.03026e-05,3.69695e-06,0
-2.95812e-05,5.77965e-06,1.01359e-05,-1.45748e-05,6.52375e-07,-7.99976e-06,9.18622e-06,4.22833e-06,0
-2.83368e-05,5.99272e-06,8.27504e-06,-1.28264e-05,5.28748e-06,-6.57897e-06,8.51854e-06,4.79705e-06,0
-2.7079e-05,7.04706e-06,5.68548e-06,-1.0761e-05,1.14878e-05,-4.70578e-06,8.25432e-06,5.81422e-06,0
-2.75615e-05,8.54711e-06,3.72591e-06,-9.03423e-06,1.61276e-05,-2.46879e-06,9.06782e-06,6.21402e-06,0
-3.04266e-05,8.81863e-06,2.4303e-06,-7.52613e-06,1.93183e-05,-1.1191e-06,8.95765e-06,6.92021e-06,0
-3.36475e-05,8.01312e-06,4.17832e-07,-6.68835e-06,2.19951e-05,-2.12746e-06,8.19617e-06,8.45381e-06,0
-3.53989e-05,7.47862e-06,-4.05691e-06,-6.34148e-06,2.46751e-05,-4.01045e-06,5.79827e-06,9.4634e-06,0
-3.64713e-05,7.78596e-06,-9.98885e-06,-6.08453e-06,2.67007e-05,-5.39697e-06,-8.30907e-07,9.94911e-06,0
-3.7206e-05,8.30252e-06,-1.46182e-05,-4.73873e-06,2.69379e-05,-6.37088e-06,-1.00457e-05,9.12697e-06,0
-3.69208e-05,8.08682e-06,-1.52838e-05,-4.0035e-06,2.38944e-05,-8.48536e-06,-1.56999e-05,7.00838e-06,0
-3.56516e-05,7.21806e-06,-1.23507e-05,-5.08196e-06,2.04313e-05,-1.08925e-05,-1.47862e-05,4.60672e-06,0
-3.51075e-05,5.95848e-06,-9.28832e-06,-5.8812e-06,1.95678e-05,-1.21745e-05,-9.29313e-06,4.48469e-06,0
-3.60729e-05,5.18298e-06,-9.64233e-06,-5.67169e-06,1.86283e-05,-1.26649e-05,-1.27516e-06,6.13364e-06,0
-3.59733e-05,4.41974e-06,-1.16774e-05,-5.06892e-06,1.01088e-05,-1.14558e-05,9.32595e-06,7.45178e-06,0
-3.37863e-05,2.70824e-06,-1.14684e-05,-5.31856e-06,-1.1908e-05,-8.3966e-06,2.16721e-05,8.10961e-06,0
-3.12959e-05,9.88018e-07,-5.9532e-06,-8.11272e-06,-3.76818e-05,-6.33168e-06,3.27351e-05,8.82671e-06,0
-2.98947e-05,1.62915e-06,6.06617e-06,-1.31385e-05,-4.59689e-05,-6.65792e-06,4.10883e-05,7.36683e-06,0
-2.9347e-05,3.50505e-06,2.23628e-05,-1.72677e-05,-3.31107e-05,-6.89656e-06,4.51037e-05,4.46831e-06,0
-2.90044e-05,5.21139e-06,3.84525e-05,-1.92839e-05,-1.42814e-05,-5.22411e-06,4.29834e-05,2.59667e-06,0
-2.78729e-05,6.98839e-06,4.72443e-05,-2.09527e-05,2.24757e-07,-3.54021e-06,3.77394e-05,2.74639e-06,0
-2.6459e-05,9.58459e-06,3.58037e-05,-2.32242e-05,9.48735e-06,-4.05871e-06,3.37319e-05,3.76453e-06,0
-2.54757e-05,1.27961e-05,4.80701e-06,-2.50327e-05,1.37435e-05,-4.70141e-06,3.22164e-05,3.66985e-06,0
-2.65431e-05,1.43925e-05,-3.35816e-05,-2.35921e-05,1.87586e-05,-5.06115e-06,3.13882e-05,2.16158e-06,0
-2.6798e-05,1.32969e-05,-7.00945e-05,-2.01228e-05,3.18934e-05,-5.27867e-06,2.86879e-05,-2.34709e-07,0
-2.43301e-05,1.25517e-05,-9.52949e-05,-1.86333e-05,5.08657e-05,-4.91319e-06,2.45676e-05,-1.02336e-06,0
-2.27917e-05,1.28942e-05,-0.000104265,-1.70264e-05,6.81514e-05,-4.43093e-06,1.9358e-05,6.34484e-07,0
-2.21293e-05,1.40538e-05,-9.60247e-05,-1.15132e-05,6.99109e-05,-3.07182e-06,1.55192e-05,1.9958e-06,0
-2.33155e-05,1.56502e-05,-7.68365e-05,-3.61979e-06,5.81067e-05,-1.42497e-06,1.48761e-05,2.7712e-06,0
-2.54392e-05,1.65579e-05,-5.72087e-05,4.45486e-06,4.55715e-05,-8.97985e-07,1.46744e-05,3.82955e-06,0
-2.83005e-05,1.71331e-05,-4.42201e-05,1.19648e-05,3.68345e-05,-2.04349e-06,1.21902e-05,4.84604e-06,0
-3.42082e-05,1.49773e-05,-3.59666e-05,1.656e-05,3.16553e-05,-2.38278e-06,7.99034e-06,3.1585e-06,0
-4.17712e-05,1.09588e-05,-2.75058e-05,1.76513e-05,2.66718e-05,-8.92904e-07,3.79874e-06,-1.21688e-06,0
-4.67254e-05,7.54566e-06,-1.67641e-05,1.79568e-05,2.12082e-05,-1.08887e-06,1.14131e-06,-4.24206e-06,0
-4.77226e-05,6.17746e-06,-4.95618e-06,2.23475e-05,1.53003e-05,-4.80876e-06,-4.22034e-07,-4.88835e-06,0
-4.60227e-05,5.61572e-06,5.0719e-06,3.18956e-05,1.06737e-05,-9.02725e-06,-2.30048e-06,-3.2224e-06,0
-4.30835e-05,4.72266e-06,1.13423e-05,4.18952e-05,9.07332e-06,-1.08255e-05,-2.80408e-06,-1.47824e-06,0
-3.94874e-05,3.9132e-06,1.28997e-05,4.57449e-05,9.76853e-06,-1.26544e-05,-1.07007e-06,-1.55897e-06,0
-3.3871e-05,3.60764e-06,1.04028e-05,4.04795e-05,7.23345e-06,-1.55169e-05,1.10054e-06,-2.95617e-06,0
-2.64801e-05,2.23041e-06,3.83995e-06,2.87893e-05,-7.79633e-07,-1.75209e-05,2.81036e-06,-3.26755e-06,0
-1.72387e-05,-8.26567e-07,-3.40798e-06,1.61192e-05,-4.31185e-06,-1.83382e-05,4.4579e-06,-6.24926e-07,0
-6.56506e-06,-1.33103e-06,-6.15632e-06,7.29249e-06,1.02862e-05,-1.84888e-05,6.01175e-06,3.22742e-06,0
1.01145e-06,2.34947e-06,-3.73947e-06,2.69132e-06,3.56854e-05,-1.7848e-05,7.44473e-06,4.15012e-06,0
3.24956e-06,6.27077e-06,-1.93854e-07,-3.83615e-07,4.39021e-05,-1.69041e-05,8.62887e-06,2.91947e-06,0
1.53598e-06,8.54677e-06,1.11332e-06,-2.7796e-06,2.83355e-05,-1.64459e-05,1.00033e-05,2.3878e-06,0
-3.88741e-06,1.12389e-05,5.65624e-07,-4.94037e-06,7.08246e-06,-1.72203e-05,1.12544e-05,1.77477e-06,0
-1.0766e-05,1.36095e-05,4.893e-07,-7.24086e-06,-4.50201e-06,-1.83597e-05,1.26506e-05,-1.97748e-07,0
-1.71316e-05,1.43354e-05,3.04319e-06,-6.9114e-06,-3.98656e-06,-1.75046e-05,1.31456e-05,-1.79392e-06,0
-2.391e-05,1.48974e-05,9.10327e-06,-4.91131e-06,2.32431e-06,-1.58853e-05,1.3455e-05,-2.43104e-06,0
-3.17634e-05,1.55338e-05,1.47606e-05,-2.29547e-06,8.34864e-06,-1.51629e-05,1.47648e-05,-2.98634e-06,0
-3.58951e-05,1.37178e-05,1.75186e-05,-5.7398e-07,1.09155e-05,-1.68584e-05,1.51534e-05,-2.90127e-06,0
-3.29947e-05,1.25598e-05,1.9574e-05,-5.45221e-07,1.33908e-05,-1.81256e-05,1.37237e-05,-2.10164e-06,0
-2.70253e-05,1.45513e-05,2.05428e-05,-1.16922e-06,1.56482e-05,-1.40546e-05,1.06428e-05,-1.51635e-06,0
-2.54646e-05,1.71287e-05,1.86239e-05,-2.08086e-06,1.41246e-05,-7.06769e-06,8.29958e-06,-1.66733e-06,0
-2.76769e-05,1.87201e-05,1.58894e-05,-4.37676e-06,9.02698e-06,-6.91563e-07,7.67905e-06,-8.06382e-07,0
-2.97978e-05,1.94723e-05,1.44793e-05,-7.71479e-06,3.10976e-06,1.65943e-06,8.13818e-06,-5.56779e-07,0
-3.09372e-05,2.00325e-05,1.15348e-05,-8.71241e-06,3.16685e-07,1.46562e-06,8.8276e-06,-1.12664e-06,0
-3.08048e-05,2.01484e-05,6.39457e-06,-8.56943e-06,2.8617e-07,2.14356e-06,9.04237e-06,-2.21316e-06,0
-3.05925e-05,2.03809e-05,-2.11493e-07,-8.43955e-06,1.56832e-06,3.175e-06,9.09309e-06,-4.9379e-06,0
-3.05697e-05,2.2061e-05,-8.00344e-06,-9.40962e-06,3.73719e-06,4.40423e-06,8.0595e-06,-6.61805e-06,0
-3.10144e-05,2.41788e-05,-1.5106e-05,-1.09103e-05,7.05572e-06,3.39452e-06,7.361e-06,-6.12643e-06,0
-3.15735e-05,2.48089e-05,-1.83563e-05,-1.24685e-05,1.24687e-05,-8.50628e-07,8.2038e-06,-4.78066e-06,0
-3.30734e-05,2.46295e-05,-1.78737e-05,-1.3336e-05,2.03656e-05,-6.61097e-06,9.29295e-06,-3.80421e-06,0
-3.45039e-05,2.53278e-05,-1.68096e-05,-1.30397e-05,2.58781e-05,-1.17246e-05,9.9346e-06,-3.64298e-06,0
-3.58546e-05,2.52434e-05,-1.57077e-05,-1.10961e-05,2.3843e-05,-1.35695e-05,1.07586e-05,-5.1258e-06,0
-3.68544e-05,2.23565e-05,-1.29759e-05,-5.88791e-06,1.71989e-05,-1.05491e-05,1.26779e-05,-7.02544e-06,0
-3.70908e-05,1.84908e-05,-8.20375e-06,1.46835e-06,1.2919e-05,-6.74982e-06,1.52032e-05,-7.00906e-06,0
-3.6233e-05,1.7152e-05,-3.08231e-06,6.62235e-06,1.16046e-05,-6.25135e-06,1.66695e-05,-5.16442e-06,0
-3.45893e-05,1.986e-05,3.85811e-07,5.26432e-06,1.08277e-05,-8.30032e-06,1.44134e-05,-3.52582e-06,0
-3.29302e-05,2.3352e-05,3.23783e-07,-9.11287e-07,1.07125e-05,-9.42894e-06,1.06904e-05,-4.00448e-06,0
-3.25224e-05,2.48199e-05,-2.15806e-06,-6.95893e-06,1.34922e-05,-9.54787e-06,1.00357e-05,-5.18228e-06,0
-3.33683e-05,2.33387e-05,-5.04694e-06,-1.09134e-05,2.49832e-05,-1.03765e-05,1.14913e-05,-5.49694e-06,0
-3.27842e-05,2.09481e-05,-5.8476e-06,-1.33149e-05,4.44578e-05,-1.00984e-05,1.18319e-05,-5.07268e-06,0
-3.12371e-05,1.97007e-05,-3.03197e-06,-1.02916e-05,5.60996e-05,-9.88854e-06,1.19496e-05,-4.80058e-06,0
-3.03041e-05,1.86988e-05,5.69345e-07,-3.63538e-06,4.8319e-05,-9.91945e-06,1.35292e-05,-4.17563e-06,0
-2.8507e-05,1.85719e-05,5.11196e-07,7.18455e-08,2.69862e-05,-9.88564e-06,1.58659e-05,-3.7749e-06,0
-2.54437e-05,1.74982e-05,-1.94792e-06,-1.59398e-06,7.85974e-06,-1.04476e-05,1.61818e-05,-3.13647e-06,0
-2.54149e-05,1.59857e-05,-2.79563e-06,-2.94844e-06,-3.49661e-06,-1.17866e-05,1.55116e-05,-3.17418e-06,0
-2.84346e-05,1.69686e-05,-1.38924e-06,-1.59332e-06,-1.15441e-05,-1.33119e-05,1.55866e-05,-5.32782e-06,0
-3.12796e-05,1.87979e-05,1.47182e-06,-2.26253e-06,-1.68011e-05,-1.38881e-05,1.51189e-05,-4.73484e-06,0
-3.40143e-05,1.97448e-05,3.43056e-06,-6.59323e-06,-2.23393e-05,-1.36981e-05,1.45803e-05,-2.41819e-06,0
-3.46393e-05,1.76421e-05,4.10662e-06,-1.40183e-05,-2.65972e-05,-1.48473e-05,1.20527e-05,-2.03441e-06,0
-3.36823e-05,1.45046e-05,2.88375e-06,-2.06334e-05,-2.63539e-05,-1.7401e-05,6.26702e-06,-2.42348e-06,0
-3.44029e-05,1.33081e-05,-5.18141e-08,-2.50292e-05,-2.03308e-05,-1.92888e-05,-4.30889e-07,-2.12884e-06,0
-3.56732e-05,1.42501e-05,-2.6704e-06,-2.63781e-05,-1.15917e-05,-2.02145e-05,-2.03323e-06,-3.53099e-07,0
-3.62679e-05,1.67531e-05,-4.86092e-06,-2.50457e-05,-2.67622e-06,-2.05364e-05,2.6677e-06,1.25059e-06,0
-3.65812e-05,1.81919e-05,-7.99441e-06,-2.13527e-05,4.88092e-06,-2.0362e-05,8.61457e-06,9.95665e-07,0
-3.61645e-05,1.77179e-05,-1.22583e-05,-1.75609e-05,1.16041e-05,-1.88596e-05,1.27921e-05,6.58902e-07,0
-3.44805e-05,1.62093e-05,-1.54917e-05,-1.3366e-05,1.88768e-05,-1.7743e-05,1.52846e-05,1.26719e-06,0
-3.33401e-05,1.42107e-05,-1.60613e-05,-6.54093e-06,2.29864e-05,-1.76128e-05,1.64882e-05,1.56373e-06,0
-3.34228e-05,1.15306e-05,-1.43792e-05,7.35477e-07,2.10227e-05,-1.73857e-05,1.75493e-05,3.01565e-07,0
-3.35982e-05,9.97964e-06,-1.3502e-05,7.45226e-06,1.46968e-05,-1.65334e-05,1.99133e-05,-1.61888e-06,0
-3.41026e-05,9.79002e-06,-1.50999e-05,1.36436e-05,9.94646e-06,-1.63591e-05,2.17802e-05,-2.29425e-06,0
-3.58679e-05,1.07054e-05,-1.85654e-05,1.85479e-05,9.01245e-06,-1.86506e-05,2.11718e-05,-2.19943e-06,0
-3.71563e-05,1.38921e-05,-2.04081e-05,2.13184e-05,1.18595e-05,-2.08477e-05,1.90544e-05,-2.08454e-06,0
-3.62256e-05,1.81366e-05,-1.80331e-05,2.30133e-05,1.486e-05,-1.98304e-05,1.7539e-05,-1.50081e-06,0
-3.44005e-05,2.05762e-05,-1.38677e-05,2.29772e-05,1.66181e-05,-1.70609e-05,1.75737e-05,3.60564e-08,0
-3.46122e-05,2.01933e-05,-1.07229e-05,2.07724e-05,1.78295e-05,-1.50144e-05,1.92416e-05,9.36495e-07,0
-3.64847e-05,1.71571e-05,-7.18335e-06,1.56609e-05,1.84158e-05,-1.37362e-05,2.00243e-05,5.63382e-07,0
-3.70688e-05,1.32842e-05,-3.36804e-06,7.54576e-06,1.70371e-05,-1.28297e-05,2.00087e-05,4.99581e-07,0
-3.60461e-05,1.23224e-05,-1.64778e-06,1.15461e-07,1.39279e-05,-1.12949e-05,2.08133e-05,1.11405e-06,0
-3.40318e-05,1.45792e-05,-1.55191e-06,-2.78909e-06,1.33302e-05,-8.97431e-06,2.21535e-05,3.00711e-06,0
-3.25482e-05,1.71417e-05,-2.8691e-06,-5.22316e-06,1.5716e-05,-7.70695e-06,2.25987e-05,4.31986e-06,0
-3.34889e-05,1.89881e-05,-7.62338e-06,-9.52121e-06,2.02188e-05,-6.02187e-06,2.09593e-05,1.73407e-06,0
-3.33942e-05,1.94795e-05,-1.3575e-05,-1.4022e-05,2.53655e-05,-3.20826e-06,1.89414e-05,-1.1937e-06,0
-3.10276e-05,2.00167e-05,-1.58912e-05,-1.73857e-05,2.70502e-05,-3.00234e-06,1.68278e-05,-8.38435e-07,0
-2.91597e-05,2.17573e-05,-1.636e-05,-2.00203e-05,2.54161e-05,-4.00435e-06,1.44715e-05,1.74691e-06,0
-2.87154e-05,2.27447e-05,-1.69016e-05,-2.15036e-05,2.1789e-05,-4.64606e-06,1.27253e-05,4.92586e-06,0
-2.91745e-05,2.21014e-05,-1.73981e-05,-1.96283e-05,1.90658e-05,-5.13751e-06,1.1545e-05,6.44495e-06,0
-2.82492e-05,2.05021e-05,-1.68142e-05,-1.7218e-05,1.79656e-05,-4.77625e-06,7.57924e-06,5.87845e-06,0
-2.72496e-05,2.03923e-05,-1.565e-05,-1.3182e-05,1.75524e-05,-3.64372e-06,-3.22845e-06,5.90328e-06,0
-2.71316e-05,2.02651e-05,-1.29647e-05,-6.09138e-06,1.76922e-05,-3.41814e-06,-1.64316e-05,6.35597e-06,0
-2.76128e-05,2.02375e-05,-1.01065e-05,2.76488e-06,1.71307e-05,-6.17531e-06,-2.36875e-05,6.42402e-06,0
-2.90325e-05,1.94195e-05,-9.99243e-06,9.05586e-06,1.60119e-05,-9.65001e-06,-2.23821e-05,6.82768e-06,0
-3.04252e-05,1.72956e-05,-1.2406e-05,1.13863e-05,1.51256e-05,-1.13816e-05,-1.48112e-05,6.64427e-06,0
-3.02492e-05,1.4485e-05,-1.48685e-05,1.06147e-05,1.58182e-05,-1.27421e-05,-4.20809e-06,5.52357e-06,0
-2.89936e-05,1.12496e-05,-1.4832e-05,7.38389e-06,1.68563e-05,-1.46624e-05,6.29613e-06,4.27048e-06,0
-2.88653e-05,9.22537e-06,-1.362e-05,2.59775e-06,1.70312e-05,-1.59024e-05,1.54813e-05,3.81382e-06,0
-2.99819e-05,8.80031e-06,-1.39738e-05,-2.41877e-06,1.24353e-05,-1.65936e-05,2.34615e-05,3.18711e-06,0
-3.06676e-05,7.87149e-06,-1.64705e-05,-6.08443e-06,1.71486e-07,-1.69475e-05,2.92381e-05,1.29769e-06,0
-3.06481e-05,4.39463e-06,-1.73526e-05,-8.51304e-06,-1.50412e-05,-1.69563e-05,3.24254e-05,-1.50935e-06,0
-3.12173e-05,2.14968e-06,-1.53381e-05,-8.25939e-06,-2.14918e-05,-1.69507e-05,3.42407e-05,-3.33527e-06,0
-3.22889e-05,3.38186e-06,-1.24663e-05,-6.83589e-06,-1.44842e-05,-1.68473e-05,3.49942e-05,-3.70162e-06,0
-3.21775e-05,6.24587e-06,-1.13663e-05,-7.4816e-06,6.54233e-07,-1.64993e-05,3.39518e-05,-4.1637e-06,0
-3.06068e-05,8.20611e-06,-1.09285e-05,-9.68743e-06,1.57448e-05,-1.63827e-05,3.25292e-05,-4.6182e-06,0
-2.91746e-05,8.62782e-06,-9.78173e-06,-1.00336e-05,2.51337e-05,-1.63557e-05,3.08529e-05,-4.92217e-06,0
-2.81877e-05,7.80511e-06,-7.91589e-06,-8.25658e-06,2.78444e-05,-1.63227e-05,2.81126e-05,-5.89376e-06,0
-2.74306e-05,7.34856e-06,-6.25155e-06,-6.01747e-06,2.54525e-05,-1.57976e-05,2.59065e-05,-6.90916e-06,0
-2.7303e-05,7.41886e-06,-5.286e-06,-5.60777e-06,2.36161e-05,-1.38281e-05,2.52049e-05,-6.56311e-06,0
-2.80863e-05,9.01692e-06,-5.4066e-06,-7.15482e-06,2.69827e-05,-1.17656e-05,2.59761e-05,-4.59505e-06,0
-2.75012e-05,1.09953e-05,-8.01679e-06,-9.01624e-06,3.22177e-05,-1.05144e-05,2.46387e-05,-2.59314e-06,0
-2.38168e-05,1.21224e-05,-1.00219e-05,-9.4679e-06,3.61262e-05,-1.1119e-05,1.99086e-05,-3.11828e-06,0
-2.06979e-05,1.22961e-05,-1.01296e-05,-9.69437e-06,3.73809e-05,-1.21858e-05,1.50924e-05,-4.36544e-06,0
-2.0522e-05,1.13922e-05,-1.00657e-05,-1.14136e-05,3.185e-05,-1.24486e-05,1.00876e-05,-2.30254e-06,0
-2.30366e-05,9.89529e-06,-9.94403e-06,-1.31399e-05,2.28821e-05,-1.25389e-05,6.54716e-06,2.16951e-06,0
-2.54944e-05,7.49024e-06,-1.0236e-05,-1.28064e-05,1.61129e-05,-1.22537e-05,5.62563e-06,5.4433e-06,0
-2.52675e-05,5.61543e-06,-9.10397e-06,-1.00794e-05,1.23053e-05,-1.20825e-05,5.456e-06,5.5147e-06,0
-2.44314e-05,6.45385e-06,-7.32034e-06,-7.65034e-06,7.98001e-06,-1.22605e-05,3.6041e-06,4.38743e-06,0
-2.41442e-05,9.05353e-06,-7.91297e-06,-9.04056e-06,3.14783e-06,-1.22846e-05,2.32812e-06,3.47687e-06,0
-2.51473e-05,1.07588e-05,-1.05037e-05,-1.40063e-05,1.05832e-06,-1.11637e-05,3.11984e-06,3.2544e-06,0
-2.7489e-05,1.09534e-05,-1.29303e-05,-1.74404e-05,2.23334e-06,-1.09886e-05,3.4914e-06,2.98236e-06,0
-3.00574e-05,1.09138e-05,-1.42945e-05,-1.69374e-05,3.93481e-06,-1.27156e-05,3.54388e-06,1.71573e-06,0
-3.07686e-05,1.32931e-05,-1.5007e-05,-1.37127e-05,4.54828e-06,-1.46765e-05,4.29542e-06,-1.12934e-07,0
-2.99843e-05,1.68105e-05,-1.53726e-05,-1.06999e-05,6.07299e-06,-1.50218e-05,4.95553e-06,-1.65163e-06,0
-2.95298e-05,1.90614e-05,-1.49677e-05,-9.01866e-06,9.00902e-06,-1.42381e-05,4.41203e-06,-1.1603e-06,0
-2.966e-05,1.92561e-05,-1.28593e-05,-9.38993e-06,1.17596e-05,-1.28052e-05,4.87665e-06,5.27726e-07,0
-2.91496e-05,1.7703e-05,-1.02612e-05,-1.20257e-05,1.28755e-05,-1.06535e-05,6.80846e-06,2.23048e-06,0
-2.72283e-05,1.59508e-05,-7.31602e-06,-1.45657e-05,1.26013e-05,-9.66977e-06,8.41428e-06,3.39679e-06,0
-2.56488e-05,1.57473e-05,-3.12258e-06,-1.52663e-05,1.14043e-05,-1.03794e-05,7.72883e-06,4.21455e-06,0
-2.54273e-05,1.57334e-05,1.67915e-06,-1.58924e-05,1.06083e-05,-1.08917e-05,5.45261e-06,4.44031e-06,0
-2.64779e-05,1.5847e-05,3.94827e-06,-1.57713e-05,1.10331e-05,-9.36651e-06,3.2785e-06,4.56898e-06,0
-2.69754e-05,1.76783e-05,3.20311e-06,-1.10861e-05,1.41969e-05,-7.47102e-06,3.01994e-06,4.16017e-06,0
-2.74064e-05,1.96682e-05,2.17425e-06,-1.89955e-06,2.15155e-05,-6.46387e-06,4.53676e-06,3.36581e-06,0
-2.85843e-05,2.02956e-05,2.27591e-06,5.33436e-06,2.91115e-05,-6.56395e-06,5.74735e-06,3.12905e-06,0
-2.99644e-05,2.07372e-05,2.91972e-06,4.50131e-06,3.14598e-05,-7.35854e-06,6.83019e-06,2.64564e-06,0
-3.11503e-05,2.22164e-05,1.61338e-06,2.26801e-07,2.74647e-05,-6.2229e-06,9.89539e-06,2.864e-06,0
-3.33292e-05,2.43463e-05,-2.99588e-06,-3.21662e-06,1.80046e-05,-4.77488e-06,1.28693e-05,4.92043e-06,0
-3.61676e-05,2.47749e-05,-7.90857e-06,-4.82987e-06,9.34942e-06,-5.46409e-06,1.24455e-05,7.27746e-06,0
-3.65376e-05,2.4833e-05,-1.07906e-05,-5.86e-06,4.42706e-06,-5.32707e-06,1.23742e-05,8.69888e-06,0
-3.6084e-05,2.44024e-05,-1.05285e-05,-1.08883e-05,2.32002e-06,-4.15191e-06,1.39502e-05,7.86633e-06,0
-3.38015e-05,2.33249e-05,-9.39049e-06,-1.65775e-05,2.84431e-06,-3.54565e-06,1.38741e-05,5.18475e-06,0
-3.10269e-05,2.34318e-05,-8.92453e-06,-1.83797e-05,3.13101e-06,-2.54879e-06,1.20226e-05,4.64702e-06,0
-3.06154e-05,2.19789e-05,-7.06196e-06,-2.0131e-05,3.64776e-06,-9.12523e-07,1.14299e-05,5.19409e-06,0
-3.01744e-05,1.90971e-05,-4.26356e-06,-2.338e-05,4.17366e-06,1.10541e-07,1.28794e-05,3.52096e-06,0
-3.03711e-05,1.64014e-05,-2.13151e-06,-2.5629e-05,4.30284e-06,6.47376e-07,1.42342e-05,2.01288e-06,0
-3.14455e-05,1.5788e-05,-9.61556e-07,-2.51916e-05,2.51251e-06,1.48239e-08,1.53323e-05,3.00192e-06,0
-3.25649e-05,1.6398e-05,3.11587e-07,-2.21067e-05,-1.66592e-08,-2.6731e-08,1.5652e-05,4.74709e-06,0
-3.14643e-05,1.63775e-05,1.73774e-06,-1.95362e-05,-1.81912e-06,8.9247e-07,1.368e-05,5.23711e-06,0
-2.94613e-05,1.57162e-05,3.90616e-06,-2.01159e-05,-3.00645e-06,8.2183e-07,1.0948e-05,3.78006e-06,0
-2.84586e-05,1.53648e-05,6.79527e-06,-2.27568e-05,-4.40883e-06,-3.01905e-07,9.13999e-06,1.68445e-06,0
-2.90249e-05,1.55516e-05,8.28035e-06,-2.42071e-05,-6.90481e-06,-2.05296e-06,9.09815e-06,5.14639e-07,0
-2.96455e-05,1.62146e-05,7.18979e-06,-2.09084e-05,-7.84616e-06,-3.7175e-06,1.08339e-05,9.16972e-07,0
-2.9042e-05,1.67886e-05,5.70248e-06,-1.09715e-05,-3.92676e-06,-6.59774e-06,1.30227e-05,2.59347e-06,0
-2.90898e-05,1.59163e-05,5.14385e-06,2.7938e-06,4.76041e-06,-9.94609e-06,1.41324e-05,4.81935e-06,0
-3.00861e-05,1.28897e-05,4.36951e-06,1.39111e-05,1.39467e-05,-1.23921e-05,1.39964e-05,5.57138e-06,0
-3.10628e-05,9.17402e-06,1.76014e-06,1.81297e-05,2.07955e-05,-1.37415e-05,1.34154e-05,4.48964e-06,0
-3.11079e-05,7.29786e-06,-2.46105e-06,1.83145e-05,2.58701e-05,-1.47052e-05,1.36821e-05,3.35585e-06,0
-3.17972e-05,5.05103e-06,-8.36948e-06,1.78231e-05,3.07452e-05,-1.34993e-05,1.44562e-05,2.33744e-06,0
-3.37627e-05,8.7122e-07,-1.48978e-05,1.54658e-05,3.49206e-05,-9.19507e-06,1.46428e-05,1.02237e-06,0
-3.5522e-05,-2.45977e-06,-1.93404e-05,1.13016e-05,3.64916e-05,-6.18171e-06,1.48443e-05,-3.37996e-07,0
-3.52363e-05,-3.85323e-06,-2.15014e-05,6.05218e-06,3.48135e-05,-7.0193e-06,1.43187e-05,-7.04364e-08,0
-3.45219e-05,-2.38858e-06,-2.13027e-05,1.32278e-06,3.3669e-05,-9.95671e-06,1.22051e-05,2.28366e-06,0
-3.49156e-05,1.25821e-06,-1.8946e-05,-1.92631e-06,3.26083e-05,-1.35842e-05,9.75413e-06,3.45401e-06,0
-3.63031e-05,1.72069e-06,-1.72832e-05,-6.37314e-06,3.03034e-05,-1.53114e-05,9.68843e-06,1.50275e-06,0
-3.66565e-05,-3.7268e-07,-1.72912e-05,-8.87906e-06,2.56316e-05,-1.55043e-05,1.04696e-05,-9.30948e-07,0
-3.43774e-05,-5.75772e-07,-1.42506e-05,-7.31391e-06,1.7769e-05,-1.56851e-05,1.12269e-05,-2.93268e-06,0
-3.01581e-05,-1.73506e-07,-7.41607e-06,-6.32179e-06,1.0478e-05,-1.55487e-05,1.17749e-05,-4.14329e-06,0
-2.67186e-05,-1.5046e-06,-1.25087e-06,-7.28652e-06,7.20049e-06,-1.44947e-05,1.05043e-05,-2.28877e-06,0
-2.61472e-05,-2.13257e-06,1.08964e-06,-7.49191e-06,7.27984e-06,-1.18344e-05,1.06569e-05,7.28902e-07,0
-2.64479e-05,-7.69579e-07,-1.06018e-06,-9.02502e-06,5.88963e-06,-1.00313e-05,1.36576e-05,2.01025e-06,0
-2.66903e-05,2.86225e-06,-5.79352e-06,-1.3361e-05,-4.98189e-07,-1.01374e-05,1.67553e-05,1.36491e-06,0
-2.82622e-05,8.66456e-06,-1.03161e-05,-1.68524e-05,-7.83894e-06,-1.08543e-05,1.53159e-05,-3.93892e-07,0
-3.05407e-05,1.38755e-05,-1.01393e-05,-1.8472e-05,-8.77815e-06,-1.04999e-05,1.09454e-05,-2.30563e-06,0
-3.20353e-05,1.51171e-05,-5.83249e-06,-1.76663e-05,-4.80265e-06,-1.04147e-05,8.17377e-06,-4.18208e-06,0
-3.21294e-05,1.36591e-05,-3.09511e-06,-1.46313e-05,4.81749e-07,-1.15589e-05,6.23957e-06,-4.31671e-06,0
-3.16017e-05,1.29346e-05,-4.29786e-06,-9.98747e-06,4.65009e-06,-1.38117e-05,3.33966e-06,-2.36011e-06,0
-3.00034e-05,1.37716e-05,-7.53513e-06,-5.83272e-06,7.14068e-06,-1.65525e-05,7.97083e-07,-9.53806e-07,0
-2.86068e-05,1.65577e-05,-1.03745e-05,-5.29978e-06,8.28779e-06,-1.8119e-05,6.5364e-07,-6.95292e-07,0
-2.92481e-05,2.0453e-05,-1.22862e-05,-7.86049e-06,7.96154e-06,-1.74059e-05,3.64517e-06,8.56686e-08,0
-2.99824e-05,2.29173e-05,-1.47693e-05,-1.10043e-05,6.15602e-06,-1.52904e-05,8.54793e-06,1.68412e-06,0
-2.88321e-05,2.24019e-05,-1.89845e-05,-1.30514e-05,2.31011e-06,-1.18877e-05,1.23241e-05,3.16446e-06,0
-2.62783e-05,2.01225e-05,-2.24404e-05,-1.17751e-05,-1.74967e-06,-7.09059e-06,1.4005e-05,4.30987e-06,0
-2.5627e-05,1.79797e-05,-2.34863e-05,-5.94246e-06,-1.91865e-06,-2.47655e-06,1.46074e-05,5.30878e-06,0
-2.75289e-05,1.78485e-05,-2.18413e-05,2.14041e-06,2.07911e-06,1.7388e-06,1.46193e-05,6.00415e-06,0
-3.03704e-05,1.98676e-05,-1.91066e-05,1.02641e-05,5.79342e-06,4.73475e-06,1.15752e-05,6.30775e-06,0
-3.1691e-05,2.1615e-05,-1.58318e-05,1.65816e-05,8.07084e-06,4.56671e-06,1.97379e-06,5.21545e-06,0
-3.01464e-05,2.11502e-05,-1.11371e-05,1.88956e-05,9.18446e-06,2.66708e-07,-1.15789e-05,2.47763e-06,0
-2.8487e-05,1.96812e-05,-7.41181e-06,1.54028e-05,5.23816e-06,-3.34398e-06,-1.95676e-05,1.29796e-06,0
-2.98542e-05,1.80077e-05,-6.78961e-06,6.93879e-06,-2.4295e-06,-3.91958e-06,-1.88335e-05,2.92624e-06,0
-3.27298e-05,1.7169e-05,-9.47921e-06,-6.30379e-07,-5.58756e-06,-5.00002e-06,-1.11846e-05,3.25246e-06,0
-3.41537e-05,1.77719e-05,-1.16142e-05,-3.52528e-06,-1.12346e-06,-7.83064e-06,1.08048e-06,2.29159e-06,0
-3.32266e-05,1.78394e-05,-1.03722e-05,-3.79412e-06,6.6467e-06,-9.85402e-06,1.23573e-05,3.31257e-06,0
-3.19542e-05,1.59562e-05,-8.23857e-06,-3.38884e-06,1.47202e-05,-1.01413e-05,2.10316e-05,4.41674e-06,0
-3.14009e-05,1.42523e-05,-6.06615e-06,-3.20708e-06,2.10613e-05,-1.13787e-05,2.96121e-05,4.06139e-06,0
-3.07068e-05,1.46836e-05,-1.41536e-06,-4.96276e-06,2.23289e-05,-1.21207e-05,3.78077e-05,4.24292e-06,0
-2.99421e-05,1.57066e-05,5.39116e-06,-7.47363e-06,2.42847e-05,-9.888e-06,4.38554e-05,5.43889e-06,0
-2.93739e-05,1.54084e-05,1.35178e-05,-9.49761e-06,2.6485e-05,-6.56132e-06,4.50446e-05,5.8212e-06,0
-2.8965e-05,1.42497e-05,2.63878e-05,-1.11474e-05,2.54544e-05,-4.94275e-06,4.24657e-05,5.06371e-06,0
-2.91785e-05,1.14003e-05,4.42038e-05,-1.16987e-05,2.28897e-05,-5.68491e-06,3.77338e-05,4.84172e-06,0
-2.9102e-05,8.8565e-06,6.20177e-05,-1.08173e-05,2.0983e-05,-8.17041e-06,3.18428e-05,6.19782e-06,0
-2.963e-05,9.0549e-06,7.00742e-05,-8.65887e-06,2.13184e-05,-1.11914e-05,2.69917e-05,6.88902e-06,0
-3.09923e-05,1.06088e-05,5.92356e-05,-6.689e-06,2.3161e-05,-1.32508e-05,2.30802e-05,6.21888e-06,0
-3.12357e-05,1.19327e-05,2.81515e-05,-7.13183e-06,2.49742e-05,-1.41685e-05,2.00979e-05,4.9358e-06,0
-3.04702e-05,1.22084e-05,-1.49451e-05,-8.79272e-06,2.30618e-05,-1.52764e-05,1.79997e-05,4.96248e-06,0
-3.04068e-05,1.25578e-05,-5.64992e-05,-9.14894e-06,1.69325e-05,-1.68938e-05,1.68661e-05,7.74828e-06,0
-3.15485e-05,1.3113e-05,-8.59527e-05,-8.91518e-06,8.13879e-06,-1.71841e-05,1.67034e-05,1.07844e-05,0
-3.22188e-05,1.37294e-05,-9.77135e-05,-9.82102e-06,9.74431e-07,-1.58368e-05,1.73637e-05,1.12939e-05,0
-3.22865e-05,1.36932e-05,-9.16344e-05,-1.07035e-05,-2.35841e-06,-1.40339e-05,1.83018e-05,9.25978e-06,0
-3.28757e-05,1.29665e-05,-7.25253e-05,-9.09601e-06,-8.52234e-06,-1.279e-05,1.80709e-05,6.24544e-06,0
-3.42856e-05,1.2163e-05,-5.20858e-05,-5.31772e-06,-2.5947e-05,-1.19814e-05,1.46316e-05,3.933e-06,0
-3.50174e-05,1.3603e-05,-3.90314e-05,-2.30885e-06,-3.6395e-05,-1.05664e-05,1.02526e-05,3.90822e-06,0
-3.45851e-05,1.77204e-05,-3.0848e-05,-1.87254e-06,-1.11053e-05,-7.9801e-06,7.8335e-06,4.57368e-06,0
-3.23559e-05,2.13516e-05,-2.40164e-05,-2.17708e-06,2.78944e-05,-5.71355e-06,7.16172e-06,5.3605e-06,0
-3.19194e-05,2.09075e-05,-1.69281e-05,-3.58001e-06,4.47971e-05,-4.56619e-06,6.86252e-06,5.02361e-06,0
-3.2931e-05,1.83653e-05,-9.90287e-06,-7.31249e-06,6.42561e-05,-1.2923e-06,7.36869e-06,2.61754e-06,0
-3.24313e-05,1.72188e-05,-5.1829e-06,-1.01762e-05,0.000102951,3.21596e-06,7.35203e-06,7.11702e-07,0
-3.26591e-05,1.60006e-05,-1.79404e-06,-9.55203e-06,0.000109986,5.11725e-06,6.51445e-06,-1.59126e-06,0
-3.21083e-05,1.3006e-05,-4.46453e-08,-6.80974e-06,5.4962e-05,4.17351e-06,6.56884e-06,-3.03538e-06,0
-3.01364e-05,9.61695e-06,-2.32567e-07,-4.06528e-06,7.00527e-07,2.56412e-06,7.32043e-06,-2.05687e-06,0
-2.98687e-05,8.79315e-06,-1.03308e-06,-3.01707e-06,-1.15021e-05,2.26548e-06,8.71189e-06,-1.3682e-06,0
-3.16303e-05,9.84916e-06,-7.47713e-07,-3.53571e-06,-3.58705e-06,3.12259e-06,1.16235e-05,-1.69885e-06,0
-3.24177e-05,1.1406e-05,2.05178e-07,-3.5323e-06,1.60952e-05,4.61922e-06,1.528e-05,-2.97759e-06,0
-3.15484e-05,1.46135e-05,-1.13225e-06,-2.24827e-06,3.83397e-05,3.10323e-06,1.57775e-05,-3.20161e-06,0
-3.08514e-05,1.74999e-05,-1.80435e-06,-2.76739e-06,4.91467e-05,-2.54213e-06,1.46776e-05,-3.69672e-06,0
-3.05162e-05,1.7001e-05,-4.44815e-07,-3.69115e-06,4.08603e-05,-7.60614e-06,1.46455e-05,-4.42671e-06,0
-3.1127e-05,1.47372e-05,-2.08116e-08,-2.75247e-06,2.71652e-05,-7.56902e-06,1.48002e-05,-5.53485e-06,0
-3.18081e-05,1.48084e-05,8.28438e-07,-9.74062e-07,1.46284e-05,-4.94397e-06,1.47356e-05,-7.34292e-06,0
-3.07984e-05,1.76998e-05,1.73994e-06,1.43666e-07,2.9406e-06,-4.2276e-06,1.48073e-05,-7.13653e-06,0
-2.93221e-05,2.05968e-05,1.15622e-06,-9.20812e-07,-8.56985e-06,-5.97897e-06,1.4331e-05,-5.75867e-06,0
-2.84371e-05,2.24791e-05,-1.58518e-07,-3.45978e-06,-1.5991e-05,-9.58199e-06,1.4787e-05,-4.67207e-06,0
-2.88042e-05,2.21204e-05,-1.66685e-06,-4.98786e-06,-1.48378e-05,-1.31457e-05,1.56178e-05,-4.99348e-06,0
-2.98819e-05,1.97071e-05,-3.20322e-06,-4.44893e-06,-1.01988e-05,-1.53415e-05,1.44109e-05,-5.49669e-06,0
-3.09376e-05,1.7796e-05,-5.02031e-06,-3.91047e-06,-6.6985e-06,-1.67623e-05,1.24402e-05,-5.69542e-06,0
-3.11623e-05,1.85695e-05,-6.15138e-06,-4.14889e-06,-7.01416e-06,-1.84604e-05,1.2747e-05,-5.8344e-06,0
-3.07991e-05,1.98757e-05,-6.2595e-06,-4.95952e-06,-6.3539e-06,-1.93864e-05,1.48298e-05,-5.29886e-06,0
-3.11696e-05,1.95337e-05,-6.71731e-06,-5.73533e-06,-4.10783e-06,-2.0579e-05,1.52416e-05,-3.68859e-06,0
-3.21175e-05,1.81579e-05,-8.47051e-06,-7.9713e-06,-1.98681e-07,-2.0983e-05,1.43746e-05,-3.04516e-06,0
-3.26089e-05,1.62018e-05,-9.80855e-06,-1.11973e-05,2.52522e-06,-1.82252e-05,1.446e-05,-3.59544e-06,0
-3.2703e-05,1.47955e-05,-9.97179e-06,-1.33182e-05,3.64845e-06,-1.34382e-05,1.59163e-05,-3.64981e-06,0
-3.23497e-05,1.53905e-05,-8.71219e-06,-1.36065e-05,2.27445e-06,-6.60568e-06,1.7573e-05,-3.85054e-06,0
-2.99926e-05,1.67776e-05,-6.57732e-06,-1.18173e-05,2.60046e-06,6.32596e-06,1.83e-05,-4.30583e-06,0
-2.71856e-05,1.62191e-05,-5.58316e-06,-8.8857e-06,7.11575e-06,2.25733e-05,1.68483e-05,-3.87184e-06,0
-2.70207e-05,1.39877e-05,-5.79216e-06,-6.7566e-06,1.02139e-05,3.06351e-05,1.53347e-05,-3.1447e-06,0
-2.89646e-05,1.32814e-05,-5.64425e-06,-6.82873e-06,7.89627e-06,2.49944e-05,1.52271e-05,-2.03765e-06,0
-2.98086e-05,1.55963e-05,-4.36104e-06,-7.49257e-06,1.68223e-05,9.06796e-06,1.53097e-05,-5.95127e-07,0
-2.9107e-05,1.79367e-05,-4.45846e-06,-4.54637e-06,4.48609e-05,-2.4712e-06,1.45912e-05,2.2568e-07,0
-2.86228e-05,1.85844e-05,-4.74593e-06,-1.39084e-07,6.05858e-05,-5.39039e-06,1.42103e-05,1.91477e-06,0
-2.93546e-05,1.62001e-05,-4.37842e-06,8.78909e-08,4.72734e-05,-7.0558e-06,1.52989e-05,2.67013e-06,0
-3.03254e-05,1.33907e-05,-6.04336e-06,-6.16248e-06,2.8131e-05,-1.05664e-05,1.71075e-05,7.53889e-07,0
-3.01118e-05,1.49433e-05,-7.77799e-06,-1.75862e-05,1.89964e-05,-1.97215e-05,1.77468e-05,-6.34183e-07,0
-2.9726e-05,1.92606e-05,-8.48085e-06,-2.7684e-05,1.62734e-05,-2.64418e-05,1.72071e-05,-1.7712e-07,0
-2.88031e-05,2.22245e-05,-9.16667e-06,-2.83414e-05,1.1135e-05,-2.41944e-05,1.74638e-05,4.21035e-07,0
-2.85018e-05,2.23037e-05,-1.03913e-05,-1.97643e-05,-1.70416e-06,-1.52391e-05,1.76257e-05,1.54775e-06,0
-2.83145e-05,2.01678e-05,-1.14899e-05,-9.27179e-06,-9.68661e-06,-4.22205e-06,1.8077e-05,3.26627e-06,0
-2.69996e-05,1.69494e-05,-1.11458e-05,5.70219e-07,-1.64526e-06,4.88168e-06,1.96169e-05,3.41848e-06,0
-2.65488e-05,1.65312e-05,-9.16116e-06,9.18585e-06,1.707e-05,6.4507e-06,2.04285e-05,2.43572e-06,0
-2.71186e-05,1.87456e-05,-6.80848e-06,1.41272e-05,3.28728e-05,-7.25013e-07,1.86756e-05,1.62464e-06,0
-2.71493e-05,2.17996e-05,-5.55996e-06,1.38795e-05,3.89027e-05,-9.87092e-06,1.53377e-05,1.61468e-06,0
-2.55637e-05,2.55054e-05,-7.02625e-06,1.00676e-05,3.61056e-05,-1.56755e-05,1.21414e-05,2.61264e-06,0
-2.39585e-05,2.95179e-05,-1.06086e-05,5.30825e-06,2.98932e-05,-1.56892e-05,9.9344e-06,3.11416e-06,0
-2.35615e-05,3.14854e-05,-1.23429e-05,2.23726e-06,2.25747e-05,-1.27593e-05,8.49768e-06,1.8178e-06,0
-2.45225e-05,2.97668e-05,-9.88951e-06,5.94913e-07,1.35027e-05,-8.64737e-06,6.47071e-06,-2.90455e-07,0
-2.47752e-05,2.62482e-05,-4.54563e-06,-1.11574e-07,3.82145e-06,-4.85003e-06,1.47916e-06,-1.26189e-06,0
-2.37698e-05,2.14912e-05,-6.98324e-07,2.19043e-08,-1.01092e-06,-2.33139e-06,-5.26617e-06,-1.75653e-07,0
-2.40112e-05,1.62913e-05,-1.99388e-06,-4.70448e-08,5.04715e-07,-3.31582e-06,-9.65768e-06,2.62022e-06,0
-2.58463e-05,1.17169e-05,-5.79393e-06,-9.7746e-07,2.57579e-06,-7.37467e-06,-9.10178e-06,4.19715e-06,0
-2.73899e-05,8.3169e-06,-6.61324e-06,-2.44882e-06,-1.48281e-06,-1.23122e-05,-3.80795e-06,3.01236e-06,0
-2.81028e-05,6.74775e-06,-6.48464e-06,-4.36487e-06,-8.94029e-06,-1.48925e-05,2.71854e-06,1.60299e-06,0
-2.8859e-05,6.45806e-06,-7.75098e-06,-6.09396e-06,-1.07961e-05,-1.49254e-05,9.24438e-06,2.19944e-06,0
-2.96916e-05,5.81239e-06,-9.53377e-06,-5.80884e-06,-4.87164e-06,-1.44391e-05,1.55232e-05,3.45274e-06,0
-3.03236e-05,5.32275e-06,-1.15334e-05,-5.17875e-06,3.64057e-06,-1.36805e-05,2.1641e-05,4.17606e-06,0
-3.12431e-05,4.56802e-06,-1.1238e-05,-3.44406e-06,7.40842e-06,-1.20308e-05,3.72238e-05,4.21637e-06,0
-3.17704e-05,5.02061e-06,-8.80999e-06,1.13053e-06,8.1616e-06,-1.0596e-05,5.91079e-05,5.36085e-06,0
-3.066e-05,5.83953e-06,-7.42487e-06,4.27421e-06,1.04329e-05,-1.08565e-05,6.99246e-05,6.56434e-06,0
-2.80691e-05,6.94105e-06,-8.73596e-06,2.84074e-06,1.37888e-05,-1.18975e-05,6.82489e-05,6.22847e-06,0
-2.61889e-05,8.62878e-06,-1.07302e-05,1.67826e-07,1.65918e-05,-1.35576e-05,5.70936e-05,5.53188e-06,0
-2.69625e-05,8.44204e-06,-9.9576e-06,-1.55107e-07,1.67402e-05,-1.35398e-05,4.02789e-05,5.4245e-06,0
-2.78607e-05,7.53783e-06,-7.78456e-06,1.87467e-06,1.49502e-05,-1.29485e-05,2.07383e-05,6.15412e-06,0
-2.88281e-05,7.38087e-06,-4.73618e-06,4.82999e-06,1.40008e-05,-1.3683e-05,2.97591e-07,5.95099e-06,0
-3.06227e-05,6.9339e-06,-3.39735e-06,7.00424e-06,1.54936e-05,-1.39444e-05,-1.88848e-05,6.17907e-06,0
-3.08656e-05,5.0923e-06,-4.27529e-06,8.20671e-06,1.71024e-05,-1.27121e-05,-3.29386e-05,6.12604e-06,0
-2.96373e-05,3.33314e-06,-4.90322e-06,8.0572e-06,1.60107e-05,-1.24921e-05,-3.83869e-05,5.40114e-06,0
-2.89637e-05,2.64092e-06,-6.07732e-06,6.86532e-06,1.42916e-05,-1.41921e-05,-3.66513e-05,5.13665e-06,0
-2.86374e-05,3.11272e-06,-7.75679e-06,5.08924e-06,1.35754e-05,-1.55733e-05,-3.06653e-05,5.86585e-06,0
-2.83676e-05,2.62795e-06,-9.49821e-06,3.17926e-06,1.42504e-05,-1.623e-05,-2.4087e-05,6.31155e-06,0
-2.89601e-05,4.609e-07,-1.05207e-05,2.34775e-06,1.56007e-05,-1.70722e-05,-1.63726e-05,5.63228e-06,0
-3.06868e-05,-2.42685e-06,-1.11585e-05,1.45809e-06,1.58963e-05,-1.76434e-05,-8.87351e-06,5.30823e-06,0
-3.22875e-05,-4.81612e-06,-1.14463e-05,9.18725e-09,1.47783e-05,-1.73272e-05,-2.47772e-06,4.10265e-06,0
-3.21308e-05,-6.50038e-06,-1.2104e-05,-1.29352e-06,1.43992e-05,-1.71467e-05,2.28784e-06,1.35665e-06,0
-3.06272e-05,-6.77765e-06,-1.24706e-05,-1.31239e-06,1.44381e-05,-1.80467e-05,5.71225e-06,-2.05038e-06,0
-2.8874e-05,-5.29343e-06,-1.2055e-05,-7.03173e-08,1.32476e-05,-1.92846e-05,8.53427e-06,-3.60579e-06,0
-2.75792e-05,-5.3995e-06,-1.15828e-05,9.09398e-07,1.15842e-05,-1.99033e-05,1.14967e-05,-3.42639e-06,0
-2.73037e-05,-8.0948e-06,-1.26215e-05,-3.54246e-07,1.06213e-05,-2.05643e-05,1.42313e-05,-3.54168e-06,0
-2.74556e-05,-1.02613e-05,-1.36794e-05,-3.63861e-06,1.07663e-05,-2.10063e-05,1.64175e-05,-3.73113e-06,0
-2.76577e-05,-1.07655e-05,-1.3343e-05,-6.33367e-06,1.20864e-05,-2.07104e-05,1.7946e-05,-2.94683e-06,0
-2.8077e-05,-9.97199e-06,-1.45859e-05,-8.08736e-06,1.36351e-05,-2.12946e-05,1.6408e-05,-1.41577e-06,0
-2.83264e-05,-8.75189e-06,-1.70552e-05,-1.03282e-05,1.61202e-05,-2.2061e-05,1.37593e-05,6.75299e-07,0
-2.8694e-05,-6.62949e-06,-1.68854e-05,-1.4343e-05,1.96883e-05,-2.34156e-05,1.22662e-05,2.31283e-06,0
-2.83022e-05,-1.50075e-06,-1.42127e-05,-2.15624e-05,2.18469e-05,-2.48284e-05,1.07201e-05,3.33797e-06,0
-2.77178e-05,3.77414e-06,-1.23901e-05,-2.71934e-05,2.15746e-05,-2.31409e-05,1.03148e-05,3.93612e-06,0
-2.84563e-05,6.54861e-06,-1.06825e-05,-2.84998e-05,1.93662e-05,-2.00778e-05,1.18872e-05,3.66539e-06,0
-3.00383e-05,6.96586e-06,-8.57587e-06,-2.96271e-05,1.65053e-05,-1.87719e-05,1.41043e-05,2.38508e-06,0
-3.01257e-05,5.65106e-06,-5.13047e-06,-3.04175e-05,1.32195e-05,-1.75848e-05,1.38225e-05,-2.3894e-07,0
-2.91935e-05,5.08884e-06,-1.48305e-06,-2.81037e-05,1.19304e-05,-1.6187e-05,1.12195e-05,-8.26446e-07,0
-2.97035e-05,6.99397e-06,-1.07415e-06,-1.98379e-05,1.11514e-05,-1.57544e-05,1.1186e-05,4.92191e-07,0
-3.01997e-05,8.62706e-06,-3.32064e-06,-7.64415e-06,7.97599e-06,-1.61754e-05,1.4106e-05,2.56456e-06,0
-3.07583e-05,7.12369e-06,-6.5248e-06,4.09329e-06,1.81315e-06,-1.76734e-05,1.67478e-05,4.04091e-06,0
-3.27515e-05,5.21097e-06,-7.92526e-06,1.35494e-05,-3.54953e-06,-1.92181e-05,1.7782e-05,3.1203e-06,0
-3.4724e-05,6.29595e-06,-7.28178e-06,1.99965e-05,-1.74377e-06,-1.95086e-05,1.81987e-05,2.08322e-06,0
-3.50138e-05,8.95966e-06,-5.94038e-06,2.33273e-05,5.18526e-06,-1.7935e-05,1.69272e-05,2.80961e-06,0
-3.3579e-05,1.06451e-05,-5.30922e-06,2.06918e-05,8.9643e-06,-1.63608e-05,1.50489e-05,3.66618e-06,0
-3.20467e-05,1.119e-05,-4.84077e-06,1.11149e-05,4.94847e-06,-1.50362e-05,1.27228e-05,1.77325e-06,0
-3.20213e-05,1.13744e-05,-4.44217e-06,3.42781e-07,8.40573e-06,-1.33606e-05,1.13695e-05,-9.97123e-07,0
-3.33649e-05,1.05569e-05,-5.49464e-06,-6.96819e-06,3.28366e-05,-1.16051e-05,1.31137e-05,-1.82294e-06,0
-3.4927e-05,9.04096e-06,-8.90086e-06,-8.76589e-06,7.12967e-05,-1.05631e-05,1.64331e-05,-7.65043e-07,0
-3.57262e-05,8.10289e-06,-1.27144e-05,-5.21973e-06,0.000108199,-9.26119e-06,1.85834e-05,2.34617e-07,0
-3.55912e-05,9.21749e-06,-1.35363e-05,4.05303e-07,0.000120657,-7.27413e-06,1.85912e-05,5.29316e-08,0
-3.48698e-05,1.14921e-05,-1.27509e-05,3.18119e-06,9.16421e-05,-6.56923e-06,1.75369e-05,-1.57776e-06,0
-3.35321e-05,1.10525e-05,-1.22964e-05,3.53801e-06,3.56751e-05,-7.54519e-06,1.69712e-05,-3.37713e-06,0
-3.10585e-05,8.222e-06,-1.41122e-05,6.00202e-06,-1.09892e-05,-7.97958e-06,1.78692e-05,-3.69656e-06,0
-2.9143e-05,4.56559e-06,-1.75487e-05,9.23338e-06,-2.93369e-05,-6.30437e-06,1.85947e-05,-2.77632e-06,0
-2.94074e-05,2.0837e-06,-2.01615e-05,8.94616e-06,-2.87605e-05,-4.33144e-06,1.88871e-05,-1.86243e-06,0
-3.0376e-05,1.57718e-06,-2.21776e-05,1.14427e-06,-2.28691e-05,-4.64966e-06,2.01207e-05,-2.63611e-06,0
-3.10451e-05,1.21625e-06,-2.47959e-05,-7.55852e-06,-1.52336e-05,-5.58085e-06,1.97675e-05,-4.28093e-06,0
-3.16544e-05,2.02615e-06,-2.54821e-05,-5.49532e-06,-8.59118e-06,-4.3192e-06,1.62609e-05,-6.51585e-06,0
-3.09585e-05,2.72587e-06,-2.22282e-05,7.99933e-06,-3.66086e-06,-2.99739e-06,1.44555e-05,-7.85464e-06,0
-2.94714e-05,3.43669e-06,-1.81653e-05,2.27491e-05,1.13898e-06,-2.74397e-06,1.49487e-05,-9.33368e-06,0
-2.90865e-05,6.27007e-06,-1.54745e-05,2.38375e-05,6.91377e-06,-3.56577e-06,1.50772e-05,-1.02681e-05,0
-3.06069e-05,1.05381e-05,-1.13227e-05,3.61356e-06,1.13155e-05,-4.71424e-06,1.42391e-05,-7.44242e-06,0
-3.32129e-05,1.35376e-05,-6.61646e-06,-2.50463e-05,1.30292e-05,-5.02031e-06,1.50025e-05,-4.18055e-06,0
-3.42449e-05,1.42393e-05,-4.47532e-06,-4.49184e-05,1.3412e-05,-4.33566e-06,1.70527e-05,-1.84082e-06,0
-3.24972e-05,1.54546e-05,-4.74136e-06,-5.48162e-05,1.16863e-05,-4.61983e-06,1.74664e-05,-2.37865e-06,0
-2.95505e-05,1.68208e-05,-5.60071e-06,-5.82243e-05,9.68413e-06,-5.53811e-06,1.58087e-05,-3.36724e-06,0
-2.8119e-05,1.80873e-05,-5.20021e-06,-5.54763e-05,9.61912e-06,-4.81856e-06,1.35854e-05,-2.30565e-06,0
-2.82083e-05,1.86776e-05,-3.46497e-06,-4.21845e-05,1.15005e-05,-2.76209e-06,1.24611e-05,-1.20805e-06,0
-2.93559e-05,1.85068e-05,-2.1243e-06,-1.87862e-05,1.49613e-05,-1.90313e-06,1.13856e-05,-1.68021e-06,0
-2.99606e-05,1.85719e-05,-1.79312e-06,9.74852e-06,1.97015e-05,-2.45694e-06,9.32893e-06,-2.98027e-06,0
-3.00326e-05,1.90662e-05,-1.4214e-06,3.73039e-05,2.32519e-05,-3.05247e-06,7.89098e-06,-2.94289e-06,0
-3.04922e-05,2.00806e-05,-8.48058e-07,5.36863e-05,2.35439e-05,-3.45969e-06,7.66481e-06,-2.47502e-06,0
-3.20637e-05,2.03572e-05,-4.51981e-07,5.39677e-05,2.14116e-05,-3.62198e-06,7.54025e-06,-3.24845e-06,0
-3.45049e-05,2.00718e-05,-4.34118e-07,4.50929e-05,1.85795e-05,-4.49307e-06,7.20165e-06,-5.39077e-06,0
-3.60729e-05,1.98269e-05,-1.9774e-08,3.39939e-05,1.58677e-05,-6.17609e-06,6.40435e-06,-6.83678e-06,0
-3.61663e-05,1.95259e-05,-5.40393e-07,1.93657e-05,1.43027e-05,-8.34533e-06,6.14873e-06,-6.57296e-06,0
-3.48704e-05,1.97626e-05,-2.06451e-06,5.50933e-06,1.44397e-05,-1.02953e-05,6.21608e-06,-4.88445e-06,0
-3.41007e-05,1.98307e-05,-3.21806e-06,-3.53836e-07,1.34586e-05,-1.19449e-05,5.81182e-06,-3.80307e-06,0
-3.38703e-05,1.87009e-05,-3.90034e-06,-2.44924e-07,1.0263e-05,-1.26021e-05,5.65102e-06,-2.852e-06,0
-3.31891e-05,1.68412e-05,-4.45715e-06,-8.21129e-07,7.94623e-06,-1.18552e-05,6.58265e-06,-7.90656e-07,0
-3.24513e-05,1.5663e-05,-5.09119e-06,-1.47388e-06,7.63931e-06,-9.34204e-06,6.69466e-06,1.37003e-06,0
-3.26638e-05,1.74628e-05,-6.42504e-06,-8.55444e-07,6.36607e-06,-6.52947e-06,5.81155e-06,1.29474e-06,0
-3.25479e-05,1.89565e-05,-5.9159e-06,3.9787e-07,3.49057e-06,-5.09955e-06,5.20321e-06,1.2254e-06,0
-3.17378e-05,1.79443e-05,-3.50407e-06,1.27375e-06,1.86164e-06,-6.28977e-06,4.36824e-06,2.65893e-06,0
-3.08187e-05,1.64812e-05,-3.0879e-06,5.86552e-08,1.98166e-06,-7.64749e-06,3.46531e-06,2.55936e-06,0
-2.94027e-05,1.57122e-05,-3.81679e-06,-1.30663e-06,2.99834e-06,-6.24968e-06,2.86108e-06,-4.08685e-07,0
-2.90491e-05,1.62216e-05,-3.23892e-06,-4.5306e-07,2.28754e-06,-3.89998e-06,2.97679e-06,-1.45522e-06,0
-2.99596e-05,1.42906e-05,-2.7507e-06,3.05655e-06,5.34751e-07,-7.85727e-07,4.69771e-06,-1.77318e-07,0
-3.07877e-05,1.00743e-05,-4.16053e-06,3.9671e-06,1.53813e-06,2.5144e-06,7.63358e-06,1.14699e-08,0
-3.13796e-05,6.8201e-06,-5.9294e-06,-1.61065e-07,1.95684e-06,3.47926e-06,9.1875e-06,-4.4569e-07,0
-3.20224e-05,5.77376e-06,-6.80072e-06,-3.59437e-06,-1.47995e-06,8.98836e-07,8.7272e-06,-2.33806e-06,0
-3.26056e-05,6.62053e-06,-4.83861e-06,-5.37882e-06,-6.33467e-06,-3.99609e-06,8.84284e-06,-3.9695e-06,0
-3.18965e-05,7.07793e-06,-1.75052e-06,-6.35429e-06,-9.33503e-06,-8.15325e-06,9.96135e-06,-4.81011e-06,0
-3.22006e-05,6.854e-06,-1.99051e-06,-6.61784e-06,-9.92282e-06,-1.02056e-05,9.82635e-06,-4.45225e-06,0
-3.40071e-05,7.23035e-06,-3.7758e-06,-8.29704e-06,-8.94663e-06,-1.18904e-05,9.36706e-06,-4.45166e-06,0
-3.55141e-05,9.34415e-06,-3.05086e-06,-1.29964e-05,-1.32994e-05,-1.34634e-05,9.06755e-06,-4.99896e-06,0
-3.69376e-05,1.0669e-05,-9.09406e-07,-1.86559e-05,-2.32927e-05,-1.36445e-05,8.55151e-06,-3.71858e-06,0
-3.77469e-05,9.51271e-06,-1.63752e-07,-2.21091e-05,-2.63723e-05,-1.18323e-05,9.1488e-06,-6.54525e-07,0
-3.78616e-05,7.79138e-06,-5.3863e-07,-2.22236e-05,-1.56414e-05,-1.07301e-05,1.2207e-05,1.88687e-06,0
-3.79696e-05,8.48837e-06,-8.41088e-07,-1.89463e-05,1.40869e-06,-1.15591e-05,1.66114e-05,3.21946e-06,0
-3.80077e-05,1.11601e-05,-1.68871e-06,-1.60122e-05,1.21209e-05,-1.37636e-05,1.99531e-05,4.10868e-06,0
-3.73051e-05,1.29727e-05,-4.77215e-06,-1.60133e-05,1.42232e-05,-1.75304e-05,2.15337e-05,5.16602e-06,0
-3.5697e-05,1.37565e-05,-1.00729e-05,-1.78424e-05,1.4588e-05,-2.15061e-05,2.14511e-05,6.07365e-06,0
-3.31489e-05,1.47758e-05,-1.63069e-05,-1.85508e-05,2.15345e-05,-2.24755e-05,1.88924e-05,4.5186e-06,0
-3.14536e-05,1.55097e-05,-2.22128e-05,-1.82284e-05,3.74123e-05,-2.03679e-05,1.33797e-05,2.25933e-06,0
-3.22244e-05,1.57551e-05,-2.8491e-05,-1.79802e-05,6.13225e-05,-2.13429e-05,8.13195e-06,2.53135e-06,0
-3.44956e-05,1.56495e-05,-3.59532e-05,-1.75154e-05,9.27379e-05,-2.79727e-05,6.74333e-06,4.80795e-06,0
-3.4094e-05,1.54382e-05,-3.99118e-05,-1.51308e-05,0.00011317,-3.68637e-05,8.64024e-06,5.50439e-06,0
-3.09499e-05,1.755e-05,-3.53401e-05,-1.03227e-05,0.000105085,-4.24711e-05,9.57715e-06,3.99105e-06,0
-2.81689e-05,1.90573e-05,-2.67617e-05,-5.25133e-06,0.000109583,-4.05527e-05,9.00065e-06,3.41411e-06,0
-2.73182e-05,1.68049e-05,-2.30302e-05,-1.23634e-06,0.00014247,-3.28997e-05,8.34781e-06,3.40912e-06,0
-2.76896e-05,1.334e-05,-2.26709e-05,1.85457e-06,0.000141787,-2.33584e-05,8.27597e-06,2.57106e-06,0
-2.78375e-05,1.02904e-05,-1.78427e-05,6.69364e-07,7.74845e-05,-1.57481e-05,1.01232e-05,2.6095e-06,0
-2.88037e-05,7.22828e-06,-6.62788e-06,-1.01394e-05,2.61408e-06,-1.06775e-05,1.10318e-05,3.66935e-06,0
-2.98158e-05,5.81992e-06,7.03047e-06,-2.09734e-05,-3.59735e-05,-1.02397e-05,1.05423e-05,2.95723e-06,0
-2.84094e-05,5.34362e-06,1.5746e-05,-2.31205e-05,-4.91558e-05,-1.52507e-05,1.01357e-05,1.53902e-06,0
-2.67131e-05,5.14026e-06,1.75613e-05,-2.26155e-05,-4.36744e-05,-1.60698e-05,9.32911e-06,8.9091e-07,0
-2.71162e-05,5.0356e-06,1.71315e-05,-2.19389e-05,-2.59304e-05,-9.5383e-06,8.46575e-06,5.73776e-07,0
-2.82535e-05,2.24002e-06,1.54433e-05,-2.00837e-05,-8.54088e-06,-9.35946e-07,7.20679e-06,2.88986e-06,0
-2.93734e-05,-1.32011e-06,1.13073e-05,-1.74747e-05,-1.65052e-07,2.52309e-06,7.27481e-06,4.80122e-06,0
-3.05892e-05,-1.88681e-06,5.25588e-06,-1.46207e-05,1.20893e-06,-2.54926e-06,9.15129e-06,4.88179e-06,0
-3.11901e-05,-9.93647e-07,-3.04157e-06,-1.19919e-05,-5.26908e-07,-1.14515e-05,1.27777e-05,3.52866e-06,0
-3.04852e-05,-6.06846e-07,-1.21724e-05,-8.37061e-06,3.29377e-07,-1.65816e-05,1.61768e-05,6.93513e-07,0
-3.0217e-05,-8.83396e-07,-1.7949e-05,-5.06946e-06,8.20372e-06,-1.66176e-05,1.57977e-05,-9.94584e-07,0
-2.99256e-05,-1.83148e-06,-1.87331e-05,-5.36799e-06,1.92079e-05,-1.41829e-05,1.36544e-05,-6.63597e-07,0
-2.83775e-05,-2.60613e-06,-1.58502e-05,-5.34887e-06,2.86854e-05,-1.07644e-05,1.34154e-05,-1.873e-07,0
-2.65976e-05,-3.49668e-06,-1.34769e-05,1.09445e-07,3.14787e-05,-6.40073e-06,1.46221e-05,-5.89718e-07,0
-2.60276e-05,-3.85181e-06,-1.44206e-05,6.10731e-06,2.91196e-05,-1.70575e-06,1.58322e-05,-2.21136e-07,0
-2.68402e-05,-2.58635e-06,-1.57616e-05,5.22358e-06,2.51705e-05,-1.27409e-07,1.69972e-05,1.04839e-06,0
-2.79486e-05,-9.11696e-07,-1.22848e-05,-3.60185e-07,3.03466e-05,8.84127e-08,1.72822e-05,2.92399e-06,0
-2.81184e-05,-1.0059e-06,-7.49506e-07,-5.5126e-06,4.3634e-05,5.98883e-06,1.58307e-05,4.49316e-06,0
-2.70885e-05,-1.26225e-06,2.02054e-05,-8.90311e-06,4.64009e-05,1.79659e-05,1.39817e-05,5.22222e-06,0
-2.61618e-05,1.64971e-07,4.76539e-05,-8.71242e-06,3.04185e-05,2.49211e-05,1.34154e-05,5.25954e-06,0
-2.6683e-05,1.63606e-06,7.21174e-05,-5.03811e-06,8.59582e-06,2.32218e-05,1.31968e-05,5.57695e-06,0
-2.87949e-05,2.35663e-06,8.37879e-05,-2.18333e-06,-1.38466e-05,1.75112e-05,1.31157e-05,5.85768e-06,0
-3.03085e-05,3.08688e-06,7.81074e-05,-2.07185e-06,-3.34475e-05,1.00391e-05,1.38362e-05,5.94709e-06,0
-2.92095e-05,4.72607e-06,5.5161e-05,-2.56033e-06,-4.59399e-05,3.39543e-06,1.45512e-05,6.3637e-06,0
-2.67116e-05,6.13712e-06,1.92267e-05,-3.71834e-06,-6.34e-05,6.81941e-07,1.50571e-05,6.97682e-06,0
-2.62141e-05,5.08498e-06,-2.14937e-05,-5.90988e-06,-8.88073e-05,5.13792e-07,1.64815e-05,6.66554e-06,0
-2.76939e-05,4.82316e-06,-6.00832e-05,-5.62869e-06,-8.28134e-05,-8.71842e-07,1.61858e-05,6.44675e-06,0
-2.83938e-05,8.23605e-06,-8.4799e-05,-3.55409e-06,-3.27532e-05,-3.12722e-06,1.50908e-05,6.89092e-06,0
-2.89609e-05,1.3964e-05,-9.00774e-05,-4.68838e-06,1.26789e-05,-5.61795e-06,1.55305e-05,6.48194e-06,0
-3.03095e-05,1.78825e-05,-7.85081e-05,-7.64581e-06,2.96447e-05,-6.71487e-06,1.53931e-05,5.72521e-06,0
-3.02487e-05,2.03748e-05,-5.92682e-05,-9.19399e-06,2.90998e-05,-3.3573e-06,1.4286e-05,6.17919e-06,0
-2.85042e-05,2.20722e-05,-4.67234e-05,-7.48425e-06,2.30845e-05,-3.07977e-07,1.26167e-05,6.46956e-06,0
-2.70063e-05,2.19149e-05,-3.93143e-05,-5.37237e-06,1.82047e-05,-1.47949e-06,1.16784e-05,4.57988e-06,0
-2.54706e-05,2.33114e-05,-3.31005e-05,-5.2842e-06,1.55429e-05,-4.41279e-06,1.1004e-05,3.48993e-06,0
-2.46521e-05,2.48981e-05,-2.54822e-05,-6.23271e-06,1.42345e-05,-7.5577e-06,9.62603e-06,4.05585e-06,0
-2.61201e-05,2.73932e-05,-1.78125e-05,-6.58568e-06,1.54776e-05,-1.11678e-05,8.04764e-06,3.74615e-06,0
-2.84166e-05,2.99788e-05,-1.12685e-05,-5.36674e-06,2.17144e-05,-1.4478e-05,7.16406e-06,1.73853e-06,0
-3.10512e-05,3.13639e-05,-5.17363e-06,-3.08778e-06,2.84375e-05,-1.61777e-05,8.54926e-06,1.23436e-06,0
-3.1871e-05,3.12252e-05,-1.39859e-06,-9.98399e-07,2.85958e-05,-1.61821e-05,1.1661e-05,1.86907e-06,0
-2.97187e-05,2.87373e-05,-1.04995e-06,-6.93305e-07,2.29207e-05,-1.5306e-05,1.44595e-05,8.33155e-07,0
-2.71622e-05,2.48674e-05,-3.34842e-06,-7.28263e-07,1.6352e-05,-1.48337e-05,1.5111e-05,-7.18187e-07,0
-2.65906e-05,2.19693e-05,-4.97393e-06,-7.13331e-07,1.2997e-05,-1.52559e-05,1.47413e-05,-1.08086e-06,0
-2.82275e-05,2.12424e-05,-5.30943e-06,-6.93047e-07,1.21472e-05,-1.80081e-05,1.51394e-05,-7.1514e-07,0
-3.00784e-05,2.05556e-05,-5.51269e-06,-1.05985e-06,1.1478e-05,-2.21849e-05,1.51856e-05,-2.28928e-07,0
-2.9935e-05,1.8423e-05,-6.86563e-06,-1.54764e-06,8.53917e-06,-2.46462e-05,1.38235e-05,7.85425e-07,0
-2.77945e-05,1.41106e-05,-7.42764e-06,-1.94354e-06,2.4234e-06,-2.33322e-05,1.23155e-05,1.57974e-06,0
-2.67964e-05,1.11695e-05,-6.42764e-06,-1.93098e-06,-6.27053e-06,-1.76109e-05,1.23104e-05,1.89253e-06,0
-2.79183e-05,1.18707e-05,-3.79739e-06,-6.63778e-07,-1.10593e-05,-6.07887e-06,1.25618e-05,2.8507e-06,0
-2.97516e-05,1.4158e-05,-1.95387e-06,2.07925e-06,-7.12667e-06,7.57323e-06,1.11402e-05,3.28111e-06,0
-3.07416e-05,1.53916e-05,-1.98523e-06,2.57975e-06,1.11293e-06,1.50104e-05,6.02613e-06,2.94576e-06,0
-3.11951e-05,1.54536e-05,-3.76158e-06,1.16005e-06,8.12768e-06,1.16136e-05,-4.22124e-06,4.03335e-06,0
-3.13552e-05,1.51127e-05,-6.24016e-06,1.03158e-06,1.12873e-05,7.33277e-07,-1.47674e-05,4.09401e-06,0
-3.08177e-05,1.49513e-05,-6.19056e-06,9.87656e-07,1.38978e-05,-6.70223e-06,-1.86688e-05,4.71153e-06,0
-2.95427e-05,1.61598e-05,-3.17119e-06,6.12132e-07,2.07327e-05,-8.26351e-06,-1.50479e-05,6.39013e-06,0
-2.92363e-05,1.78628e-05,-2.45408e-06,-7.66889e-07,2.84577e-05,-8.88482e-06,-5.87839e-06,6.10809e-06,0
-2.98628e-05,1.98873e-05,-3.39195e-06,-1.65247e-06,2.98214e-05,-9.65331e-06,4.72168e-06,4.73432e-06,0
-2.97326e-05,2.16094e-05,-3.27461e-06,-2.01524e-06,2.57478e-05,-1.07506e-05,1.42597e-05,2.61335e-06,0
-2.94739e-05,2.18041e-05,-3.89261e-06,-4.82066e-06,2.21502e-05,-1.11704e-05,2.2313e-05,5.57064e-07,0
-2.91218e-05,2.09586e-05,-5.92928e-06,-9.0759e-06,1.98409e-05,-1.22505e-05,2.99645e-05,-2.23987e-06,0
-2.90294e-05,1.84129e-05,-9.46416e-06,-1.12278e-05,1.81609e-05,-1.64023e-05,3.66694e-05,-4.00988e-06,0
-2.94519e-05,1.51311e-05,-1.26818e-05,-1.16718e-05,1.73732e-05,-2.12228e-05,4.02568e-05,-4.12427e-06,0
-3.03187e-05,1.14917e-05,-1.58047e-05,-1.20579e-05,1.95038e-05,-2.27085e-05,4.07138e-05,-4.54203e-06,0
-3.16545e-05,9.46389e-06,-1.73582e-05,-1.37195e-05,2.36287e-05,-2.07885e-05,3.88027e-05,-4.22472e-06,0
-3.14015e-05,8.30035e-06,-1.60659e-05,-1.50319e-05,2.65387e-05,-1.76772e-05,3.7516e-05,-2.29479e-06,0
-2.98179e-05,7.66626e-06,-1.36474e-05,-1.36533e-05,2.84191e-05,-1.49587e-05,3.59377e-05,-4.54445e-07,0
