ch1,ch2,ch3,ch4,ch5,ch6,ch7,ch8,class
3.13811e-05,9.42678e-05,-1.10274e-05,3.17122e-05,1.36958e-05,-7.68692e-06,1.70273e-05,3.86935e-06,0
4.46212e-05,0.000102975,-1.14053e-05,5.97479e-05,4.45574e-05,-2.11683e-07,1.66176e-05,3.36148e-06,0
5.25134e-05,0.000122971,-1.29663e-05,6.74833e-05,5.9731e-05,8.97914e-06,1.54644e-05,2.90795e-06,0
5.55023e-05,0.000126286,-1.68101e-05,5.4926e-05,5.943e-05,1.43474e-05,1.40295e-05,3.50185e-06,0
4.60775e-05,8.79357e-05,-2.10551e-05,3.31107e-05,5.65892e-05,1.09135e-05,1.14675e-05,4.54099e-06,0
1.63945e-05,1.25953e-05,-2.3123e-05,1.51451e-05,6.04094e-05,2.33405e-06,9.38619e-06,4.86696e-06,0
-3.1773e-05,-5.75761e-05,-2.27094e-05,3.90069e-06,6.00544e-05,-7.06896e-06,8.58283e-06,4.14448e-06,0
-8.70788e-05,-8.9499e-05,-2.00816e-05,-5.16231e-06,4.51266e-05,-1.3431e-05,9.55643e-06,2.347e-06,0
-0.000134757,-8.03783e-05,-1.81451e-05,-1.54942e-05,2.58396e-05,-1.72519e-05,1.01606e-05,1.01431e-06,0
-0.000166656,-5.68639e-05,-1.78405e-05,-2.4771e-05,1.30273e-05,-2.12034e-05,1.04397e-05,4.34344e-07,0
-0.000182822,-3.53165e-05,-1.6646e-05,-2.88775e-05,8.5729e-06,-2.30214e-05,1.11376e-05,1.78591e-07,0
-0.00018064,-1.62678e-05,-1.27372e-05,-2.90786e-05,7.37085e-06,-1.86286e-05,1.06672e-05,8.98515e-08,0
-0.000161186,2.5767e-06,-9.69179e-06,-2.65965e-05,-1.61503e-06,-1.26849e-05,9.15043e-06,-5.29647e-07,0
-0.000131699,1.31424e-05,-8.40478e-06,-2.23454e-05,-2.07098e-05,-1.2479e-05,8.54677e-06,-1.69352e-06,0
-0.000100531,1.2287e-05,-5.30572e-06,-1.82931e-05,-3.61634e-05,-1.55555e-05,9.44815e-06,-2.38268e-06,0
-7.49969e-05,4.29897e-06,-8.12554e-07,-1.84622e-05,-3.7482e-05,-1.66305e-05,9.59043e-06,-2.86028e-06,0
-5.7918e-05,-1.00211e-05,3.09111e-06,-2.33244e-05,-2.77793e-05,-1.42647e-05,7.93319e-06,-3.16075e-06,0
-4.71697e-05,-2.75802e-05,6.25844e-06,-2.68854e-05,-9.10174e-06,-9.60908e-06,5.93512e-06,-3.71579e-06,0
-3.91351e-05,-2.76063e-05,8.89677e-06,-2.62066e-05,1.20744e-05,-4.20794e-06,6.10208e-06,-4.78015e-06,0
-3.40024e-05,1.83574e-05,9.77745e-06,-2.31886e-05,1.59428e-05,-1.27709e-06,8.06712e-06,-5.50468e-06,0
-3.32226e-05,9.46e-05,7.52991e-06,-1.97616e-05,-1.39906e-08,-3.07948e-06,8.59212e-06,-5.14097e-06,0
-3.32335e-05,0.00016266,2.69546e-06,-1.8478e-05,-1.06408e-05,-7.54662e-06,6.74292e-06,-2.12415e-06,0
-2.70829e-05,0.000209638,-3.95528e-06,-1.9252e-05,-2.90282e-06,-9.74932e-06,6.54675e-06,1.68214e-06,0
-1.83261e-05,0.000222454,-1.06538e-05,-1.96377e-05,1.93745e-05,-8.09107e-06,8.92945e-06,2.57931e-06,0
-1.48663e-05,0.000173428,-1.58202e-05,-1.60896e-05,5.17629e-05,-4.2814e-06,1.19348e-05,4.37905e-06,0
-1.49954e-05,6.05372e-05,-1.87629e-05,-1.08028e-05,7.22995e-05,-8.86928e-07,1.30367e-05,5.52299e-06,0
-1.62878e-05,-7.6244e-05,-1.87789e-05,-8.36026e-06,7.134e-05,2.08566e-06,1.23056e-05,5.12259e-07,0
-1.91086e-05,-0.000158916,-1.8782e-05,-8.79561e-06,6.31407e-05,3.05684e-06,1.24992e-05,-6.6658e-06,0
-2.20877e-05,-0.000178765,-2.05886e-05,-1.0288e-05,5.41199e-05,6.95757e-07,1.33254e-05,-9.11022e-06,0
-2.55625e-05,-0.000198513,-2.19513e-05,-6.41976e-06,5.35111e-05,-1.81553e-06,1.33283e-05,-6.18701e-06,0
-2.53801e-05,-0.000189402,-1.85212e-05,3.65667e-06,6.06798e-05,-2.19322e-06,1.25745e-05,-3.58812e-06,0
-1.80646e-05,-0.000108608,-8.65325e-06,1.94398e-05,6.03483e-05,-1.41713e-06,1.19325e-05,-1.27171e-06,0
-7.50166e-06,-1.20694e-05,3.84574e-07,3.32135e-05,3.87232e-05,-3.80881e-06,1.07521e-05,7.4347e-07,0
-2.8657e-06,2.58971e-05,6.60425e-07,3.72858e-05,7.20837e-06,-1.02607e-05,1.09417e-05,1.41542e-06,0
-1.12064e-05,6.17533e-06,-6.93188e-06,3.55168e-05,-1.3465e-05,-1.70347e-05,1.30345e-05,1.19606e-06,0
-2.66453e-05,2.55506e-06,-1.72351e-05,3.33602e-05,-1.84488e-05,-1.96507e-05,1.37843e-05,7.10566e-07,0
-3.55349e-05,3.86525e-05,-2.57294e-05,3.01929e-05,-1.82283e-05,-1.90155e-05,1.18843e-05,1.54793e-06,0
-3.67525e-05,6.42768e-05,-2.69446e-05,2.54217e-05,-1.86538e-05,-1.83131e-05,9.24719e-06,2.62191e-06,0
-4.08933e-05,5.377e-05,-1.87558e-05,2.39362e-05,-1.54843e-05,-1.74853e-05,7.91997e-06,1.83244e-06,0
-4.90495e-05,3.93202e-05,-8.59303e-06,2.27529e-05,-9.32136e-06,-1.55035e-05,8.40557e-06,-1.13153e-06,0
-5.40191e-05,4.79852e-05,-3.92872e-06,1.64549e-05,-2.02822e-06,-1.27839e-05,9.70568e-06,-4.19661e-06,0
-5.265e-05,7.13542e-05,-4.00331e-06,7.90721e-06,1.25368e-06,-9.96019e-06,1.01243e-05,-6.10174e-06,0
-4.76199e-05,8.12316e-05,-3.63103e-06,3.94733e-06,6.7902e-06,-8.15364e-06,9.91898e-06,-6.72874e-06,0
-4.03018e-05,6.61268e-05,-2.39567e-07,4.11571e-06,3.95015e-05,-7.46472e-06,1.10011e-05,-6.81337e-06,0
-3.42906e-05,3.84744e-05,3.92269e-06,4.82051e-06,0.000103865,-6.66634e-06,1.29766e-05,-6.06975e-06,0
-3.38324e-05,9.07303e-06,5.42441e-06,2.98727e-06,0.00013944,-6.00754e-06,1.36637e-05,-3.98684e-06,0
-3.20818e-05,-1.30997e-05,2.99533e-06,-1.53304e-06,9.21909e-05,-6.01734e-06,1.39384e-05,-1.60666e-06,0
-1.55976e-05,-1.96297e-05,-2.37627e-06,-5.0794e-06,-1.17695e-05,-6.48232e-06,1.43019e-05,2.00548e-08,0
1.49473e-05,-1.63361e-05,-9.49997e-06,-5.57134e-06,-9.48357e-05,-5.56101e-06,1.4683e-05,-4.2712e-07,0
4.39378e-05,-1.51225e-05,-1.34766e-05,-5.0806e-06,-0.000105924,-2.05998e-06,1.59114e-05,-1.22512e-06,0
5.58368e-05,-1.28543e-05,-1.13181e-05,-7.53007e-06,-6.76372e-05,-6.26913e-07,1.79091e-05,3.44269e-07,0
4.11574e-05,-1.24162e-06,-6.47364e-06,-1.64014e-05,-3.09809e-05,-5.12652e-06,2.06287e-05,3.37679e-06,0
1.49517e-05,5.08825e-06,-4.08435e-06,-2.82578e-05,-1.73165e-05,-7.89811e-06,2.23158e-05,6.34262e-06,0
-1.24147e-06,-4.28912e-06,-6.35849e-06,-4.17076e-05,-2.32508e-05,-4.75726e-06,2.10213e-05,7.51381e-06,0
-6.64305e-06,-6.16508e-06,-1.00349e-05,-6.68071e-05,-3.39207e-05,-5.28527e-07,1.77892e-05,7.90719e-06,0
-2.19123e-06,2.21867e-05,-1.02276e-05,-0.000105431,-3.24905e-05,2.98477e-07,1.41293e-05,7.52325e-06,0
4.56243e-06,6.8937e-05,-8.58368e-06,-0.000127267,-1.79429e-05,-2.39723e-06,1.04232e-05,6.7754e-06,0
7.80824e-06,9.98875e-05,-1.02974e-05,-0.000101342,-6.84115e-07,-7.14548e-06,7.63594e-06,6.53074e-06,0
8.66604e-06,0.000106115,-1.18833e-05,-4.16679e-05,1.17371e-05,-1.11585e-05,6.74494e-06,7.65695e-06,0
4.80659e-06,9.47197e-05,-1.26136e-05,1.95481e-05,1.30527e-05,-1.2842e-05,6.71647e-06,8.2345e-06,0
-4.05522e-06,6.60619e-05,-1.4454e-05,5.74182e-05,6.98664e-06,-1.39464e-05,8.18255e-06,6.29256e-06,0
-1.43124e-05,1.69869e-05,-1.67541e-05,7.01527e-05,5.33761e-06,-1.57248e-05,1.01687e-05,4.70373e-06,0
-2.33827e-05,-4.07063e-05,-1.67918e-05,7.13631e-05,1.08659e-05,-1.79941e-05,1.07234e-05,4.63655e-06,0
-2.90355e-05,-7.0619e-05,-1.27175e-05,7.33124e-05,1.45646e-05,-1.92385e-05,9.38182e-06,5.25652e-06,0
-2.84105e-05,-4.84206e-05,-6.99506e-06,7.67506e-05,8.4897e-06,-1.78246e-05,7.01503e-06,5.44319e-06,0
-2.59336e-05,2.20494e-06,-2.5348e-06,6.90891e-05,-1.68541e-06,-1.34625e-05,5.65648e-06,6.29544e-06,0
-2.73821e-05,4.91568e-05,-1.80567e-06,3.79663e-05,-9.7883e-06,-1.04174e-05,5.84908e-06,6.83903e-06,0
-3.61962e-05,8.39e-05,-4.16438e-06,-1.43922e-05,-8.25608e-06,-1.05277e-05,6.72147e-06,6.57931e-06,0
-4.91436e-05,0.000101858,-7.76897e-06,-6.51544e-05,4.01656e-06,-1.26595e-05,5.88892e-06,5.39714e-06,0
-5.92196e-05,8.77063e-05,-9.93344e-06,-9.44978e-05,1.64722e-05,-1.42231e-05,4.88166e-06,4.08927e-06,0
-6.14904e-05,3.44432e-05,-9.9002e-06,-9.81389e-05,2.83334e-05,-1.31865e-05,5.74748e-06,3.68075e-06,0
-5.77614e-05,-2.99395e-05,-8.8373e-06,-8.33915e-05,5.28489e-05,-1.12562e-05,8.77957e-06,4.06573e-06,0
-5.09271e-05,-6.19243e-05,-8.48893e-06,-5.99424e-05,7.83425e-05,-1.09316e-05,1.12339e-05,3.73591e-06,0
-4.20331e-05,-4.92579e-05,-7.51916e-06,-3.70535e-05,7.85927e-05,-1.11449e-05,1.17722e-05,2.48676e-06,0
-3.47432e-05,-2.26388e-05,-4.08688e-06,-2.2785e-05,5.61015e-05,-1.05305e-05,1.1616e-05,9.12853e-07,0
-3.57248e-05,-1.50292e-06,-2.39393e-07,-2.43703e-05,3.34423e-05,-9.79965e-06,1.09579e-05,-1.04903e-06,0
-4.48224e-05,2.80403e-05,-2.73881e-06,-3.99496e-05,2.00921e-05,-1.09459e-05,1.14237e-05,-1.6135e-06,0
-5.10869e-05,7.48224e-05,-9.80819e-06,-5.45769e-05,9.29055e-06,-1.17889e-05,1.27505e-05,-1.88009e-06,0
-4.89671e-05,0.000106617,-1.40315e-05,-5.20967e-05,4.20244e-06,-7.86229e-06,1.30605e-05,-7.48855e-07,0
-4.48042e-05,8.00103e-05,-1.41981e-05,-2.78055e-05,1.13553e-05,-3.4093e-06,1.20312e-05,1.43436e-06,0
-4.00584e-05,1.29419e-05,-1.04382e-05,1.15796e-05,1.8199e-05,-2.47796e-06,1.12232e-05,1.77106e-06,0
-2.69846e-05,-4.42465e-05,-3.35724e-06,5.1449e-05,1.66118e-05,-5.01885e-06,1.04214e-05,2.35478e-06,0
-1.03316e-05,-4.68456e-05,8.98575e-06,7.29528e-05,1.51298e-05,-7.47023e-06,9.71251e-06,2.35498e-06,0
3.38382e-07,1.13724e-06,2.49428e-05,6.36255e-05,1.0746e-05,-6.65864e-06,9.22015e-06,1.07924e-06,0
5.46365e-06,3.24863e-05,3.60772e-05,2.15317e-05,-4.68961e-06,-5.48129e-06,9.66349e-06,2.04675e-07,0
8.15297e-06,2.87115e-05,4.15209e-05,-3.01168e-05,-1.84898e-05,-5.61233e-06,1.12935e-05,-4.31655e-07,0
8.64423e-06,2.11051e-05,4.78591e-05,-5.29829e-05,-1.99916e-05,-6.4838e-06,1.24246e-05,3.74946e-07,0
3.42038e-06,2.06704e-05,5.08765e-05,-4.25128e-05,-2.30308e-05,-8.18867e-06,1.3235e-05,1.99543e-06,0
-5.18522e-06,1.99544e-05,4.22647e-05,-2.38948e-05,-3.35389e-05,-1.0149e-05,1.48124e-05,2.76438e-06,0
-4.25783e-06,5.85296e-05,2.20119e-05,-5.28676e-06,-4.26213e-05,-9.37599e-06,1.68868e-05,2.62797e-06,0
5.86123e-06,0.000170897,-3.83539e-06,2.13012e-05,-3.93561e-05,-6.07792e-06,1.7853e-05,1.71711e-06,0
1.29805e-05,0.000297911,-3.20636e-05,4.86505e-05,-1.62786e-05,-3.45598e-06,1.7688e-05,7.46431e-07,0
1.12076e-05,0.000356922,-6.06773e-05,6.28072e-05,1.84553e-05,-1.08697e-06,1.72887e-05,-5.98003e-07,0
-3.70763e-06,0.000317109,-8.20341e-05,6.17209e-05,4.56898e-05,9.92219e-07,1.75288e-05,-2.06728e-06,0
-3.38991e-05,0.000183612,-8.96114e-05,4.51218e-05,5.86548e-05,7.26616e-07,1.78281e-05,-2.22689e-06,0
-7.21525e-05,-2.33853e-05,-8.37913e-05,1.78617e-05,6.53548e-05,-1.58265e-06,1.71492e-05,-1.17865e-06,0
-0.000107474,-0.000260357,-7.09933e-05,-2.31761e-06,6.83742e-05,-3.85116e-06,1.62088e-05,8.78642e-07,0
-0.00013742,-0.000455296,-5.84164e-05,-4.09441e-06,6.95539e-05,-7.26793e-06,1.64175e-05,2.89871e-06,0
-0.000157841,-0.00050663,-4.71995e-05,4.27139e-06,7.72187e-05,-1.28821e-05,1.59125e-05,2.88426e-06,0
-0.000152023,-0.000378141,-3.40249e-05,1.12434e-05,8.26557e-05,-1.66541e-05,1.35448e-05,1.21655e-06,0
-0.000108916,-0.000179334,-1.96716e-05,1.07853e-05,6.82269e-05,-1.42681e-05,1.10629e-05,1.09588e-06,0
-4.68826e-05,-5.25855e-05,-8.5454e-06,7.05552e-06,4.45246e-05,-9.36015e-06,9.60317e-06,2.72402e-06,0
1.13717e-07,-2.97919e-05,-3.14357e-06,8.30526e-06,2.68308e-05,-5.96853e-06,9.77352e-06,3.46452e-06,0
2.26557e-05,-4.72548e-05,-3.25932e-06,9.40737e-06,7.08157e-06,-6.59202e-06,1.0553e-05,2.07057e-06,0
2.83578e-05,-3.32114e-05,-4.0342e-06,3.29873e-06,-4.06204e-06,-1.1426e-05,1.16327e-05,3.2497e-07,0
2.34049e-05,8.96341e-06,2.01346e-06,-2.52055e-06,9.734e-06,-1.1909e-05,1.17091e-05,-5.009e-07,0
1.2575e-05,2.59017e-05,1.0321e-05,-1.24029e-06,3.82428e-05,-7.46333e-06,1.0294e-05,1.46356e-07,0
-7.28499e-06,7.35633e-06,1.09e-05,3.50545e-06,6.50841e-05,-5.81703e-06,9.31443e-06,-9.29669e-07,0
-4.45233e-05,-2.273e-05,3.86199e-06,6.87751e-06,7.49698e-05,-1.01247e-05,1.01969e-05,-3.54433e-06,0
-9.16383e-05,-5.23263e-05,-4.6512e-06,8.0421e-06,5.89583e-05,-1.75949e-05,1.16621e-05,-3.39373e-06,0
-0.000122599,-6.43678e-05,-7.74012e-06,6.02386e-06,2.176e-05,-2.06082e-05,1.28183e-05,-6.71183e-07,0
-0.000130178,-4.9786e-05,-6.90917e-06,-1.67866e-08,-1.64037e-05,-1.7485e-05,1.37921e-05,1.19286e-06,0
-0.000118268,-1.18178e-05,-7.6653e-06,-6.38644e-06,-4.10101e-05,-1.22992e-05,1.3394e-05,1.11194e-07,0
-8.95713e-05,5.1207e-05,-9.65342e-06,-9.67819e-06,-4.48191e-05,-9.37205e-06,1.3542e-05,-6.06657e-07,0
-5.70735e-05,0.000127049,-9.51599e-06,-9.56309e-06,-3.17627e-05,-9.8847e-06,1.47296e-05,-1.39186e-07,0
-3.23608e-05,0.000197815,-7.69941e-06,-9.39192e-06,-1.65918e-05,-1.09045e-05,1.48378e-05,8.23295e-07,0
-1.6018e-05,0.000236244,-6.57806e-06,-1.18718e-05,-6.0453e-06,-1.15302e-05,1.36925e-05,9.84127e-07,0
-9.01849e-06,0.000203366,-6.86752e-06,-1.73172e-05,2.69162e-06,-1.15614e-05,1.35968e-05,1.99906e-06,0
-1.40526e-05,8.72752e-05,-8.23812e-06,-2.1557e-05,1.08049e-05,-1.17332e-05,1.50822e-05,3.48168e-06,0
-2.59157e-05,-4.45697e-05,-9.39375e-06,-2.06477e-05,1.37748e-05,-1.20432e-05,1.60528e-05,3.04591e-06,0
-3.84813e-05,-9.47126e-05,-9.86237e-06,-1.81424e-05,1.17292e-05,-1.2547e-05,1.59283e-05,2.25218e-07,0
-4.80955e-05,-6.35282e-05,-9.83951e-06,-1.91332e-05,7.13441e-06,-1.27965e-05,1.48581e-05,-3.64418e-06,0
-4.90225e-05,-3.84517e-05,-1.16922e-05,-2.28909e-05,-2.72852e-07,-1.17471e-05,1.42762e-05,-5.48228e-06,0
-3.81449e-05,-6.04994e-05,-1.46735e-05,-2.51177e-05,-1.42427e-05,-9.98305e-06,1.49348e-05,-5.22739e-06,0
-2.38501e-05,-9.67715e-05,-1.71538e-05,-2.56102e-05,-2.83246e-05,-8.46763e-06,1.48392e-05,-4.49095e-06,0
-1.49031e-05,-0.000110232,-1.88931e-05,-2.46949e-05,-2.99416e-05,-7.82376e-06,1.28291e-05,-5.57387e-06,0
-1.34802e-05,-9.49368e-05,-2.05163e-05,-2.22076e-05,-1.83469e-05,-7.42593e-06,1.03938e-05,-7.47873e-06,0
-1.80916e-05,-7.07305e-05,-2.14566e-05,-2.02737e-05,-6.39353e-06,-6.71546e-06,8.58393e-06,-7.48423e-06,0
-2.42879e-05,-5.24081e-05,-1.91379e-05,-1.74361e-05,-2.30956e-07,-5.96397e-06,7.01027e-06,-4.80858e-06,0
-2.68247e-05,-3.24878e-05,-1.51778e-05,-1.11159e-05,1.23977e-05,-4.14157e-06,4.77581e-06,-2.76359e-06,0
-2.44513e-05,-6.98023e-06,-9.52257e-06,-3.80906e-06,3.89752e-05,-7.55713e-07,4.18469e-06,-2.02382e-06,0
-2.43884e-05,1.76564e-05,-1.25672e-06,4.44487e-06,6.01371e-05,7.43387e-07,6.58791e-06,-2.23755e-07,0
-3.04134e-05,3.82462e-05,4.09877e-06,1.40689e-05,5.87102e-05,-1.70767e-06,9.71673e-06,4.5816e-07,0
-3.22423e-05,6.21553e-05,4.54295e-06,2.17016e-05,4.70116e-05,-5.19572e-06,1.21974e-05,4.99001e-07,0
-2.63802e-05,8.99305e-05,4.88636e-06,2.35222e-05,3.96277e-05,-7.72055e-06,1.32774e-05,-8.92633e-08,0
-1.73763e-05,0.000107546,4.75719e-06,1.56832e-05,4.31944e-05,-6.85025e-06,1.31079e-05,-1.47446e-06,0
-9.2861e-06,0.000108641,3.00801e-06,4.47439e-06,5.50946e-05,-6.36703e-07,1.26036e-05,-3.90167e-07,0
-8.07726e-06,9.50187e-05,1.30568e-06,-1.04198e-06,5.87603e-05,4.92556e-06,1.39566e-05,1.6603e-06,0
-1.16801e-05,7.58202e-05,5.57804e-07,-3.37635e-07,5.04346e-05,6.20848e-06,1.56082e-05,2.89001e-06,0
-1.33212e-05,6.09103e-05,5.33494e-07,2.69401e-06,4.46829e-05,4.53869e-06,1.66286e-05,2.78818e-06,0
-1.34691e-05,5.9598e-05,2.8779e-07,4.70224e-06,4.81703e-05,1.00899e-06,1.73119e-05,2.5816e-06,0
-1.38409e-05,8.4252e-05,-1.65332e-06,4.67196e-06,5.5543e-05,-3.71985e-06,1.62196e-05,2.07119e-06,0
-1.26803e-05,0.000131031,-4.94842e-06,3.28152e-06,5.96245e-05,-6.13003e-06,1.43061e-05,1.37114e-06,0
-1.01105e-05,0.000184185,-7.49856e-06,4.16062e-07,5.51017e-05,-4.84974e-06,1.29772e-05,1.77757e-06,0
-8.22003e-06,0.000231478,-9.29596e-06,-6.46255e-06,3.90506e-05,-3.47336e-06,1.28546e-05,3.31433e-06,0
-8.63124e-06,0.000246503,-9.45618e-06,-1.5911e-05,1.03091e-05,-3.75406e-06,1.26267e-05,5.33865e-06,0
-1.21477e-05,0.000202968,-9.31486e-06,-2.34522e-05,-2.69842e-05,-4.31554e-06,1.21377e-05,5.80199e-06,0
-1.97448e-05,0.000118326,-9.80268e-06,-2.52847e-05,-6.31116e-05,-4.18173e-06,1.19153e-05,3.47546e-06,0
-2.71423e-05,5.63139e-05,-8.60056e-06,-1.99604e-05,-9.07766e-05,-3.76619e-06,1.14701e-05,4.44285e-08,0
-2.71315e-05,4.47343e-05,-5.09582e-06,-1.15566e-05,-0.000105374,-2.04422e-06,1.04434e-05,-5.62607e-07,0
-1.8136e-05,1.48922e-05,-1.64483e-06,-5.87777e-06,-0.000103731,1.36661e-07,1.03841e-05,1.43676e-06,0
-1.0479e-05,-0.000102165,-2.0079e-07,-2.85522e-06,-8.30696e-05,1.13993e-07,1.24004e-05,3.79854e-06,0
-1.31036e-05,-0.000252263,-7.04081e-07,-4.60097e-07,-3.85855e-05,-3.89598e-06,1.51457e-05,5.15513e-06,0
-1.86959e-05,-0.000324662,-3.40496e-06,-5.72427e-08,2.93491e-05,-9.96974e-06,1.65401e-05,5.89935e-06,0
-1.85952e-05,-0.000296418,-7.57831e-06,-1.27181e-06,9.45915e-05,-1.58222e-05,1.55131e-05,6.22796e-06,0
-1.63712e-05,-0.000213821,-1.15891e-05,-2.90284e-06,0.000121066,-2.06275e-05,1.39136e-05,6.44423e-06,0
-1.17673e-05,-0.000104664,-1.39779e-05,-4.95158e-06,0.000101904,-2.38245e-05,1.30608e-05,7.04713e-06,0
-3.73923e-06,3.14465e-06,-1.42084e-05,-5.51404e-06,6.11179e-05,-2.18261e-05,1.2202e-05,7.80578e-06,0
-3.33129e-06,5.41053e-05,-1.60897e-05,-4.6605e-06,2.71935e-05,-1.49613e-05,1.02067e-05,7.66007e-06,0
-1.58143e-05,2.88325e-05,-1.92266e-05,-3.47674e-06,5.00776e-06,-1.20624e-05,8.84077e-06,6.91932e-06,0
-3.3961e-05,-2.45772e-05,-1.87123e-05,-4.17654e-06,2.34033e-06,-1.41154e-05,9.85665e-06,6.58905e-06,0
-5.45865e-05,-5.30771e-05,-1.41133e-05,-3.25836e-06,2.33367e-05,-1.65129e-05,1.09639e-05,6.39638e-06,0
-7.6951e-05,-4.61204e-05,-7.279e-06,3.39267e-06,3.74024e-05,-1.79705e-05,1.14578e-05,5.52643e-06,0
-9.7139e-05,-1.89473e-05,-1.78394e-06,1.07707e-05,2.57967e-05,-1.95263e-05,1.13954e-05,3.4429e-06,0
-0.000110271,4.99256e-06,1.62378e-06,1.56139e-05,1.05741e-06,-2.08925e-05,9.83757e-06,2.38934e-06,0
-0.000106757,2.10377e-05,5.08705e-07,1.47794e-05,-1.77745e-05,-2.17585e-05,7.6266e-06,3.57757e-06,0
-8.43913e-05,3.21125e-05,-5.92275e-06,1.18894e-05,-2.35022e-05,-2.39903e-05,6.79789e-06,5.30156e-06,0
-4.77526e-05,4.22798e-05,-1.33061e-05,1.17131e-05,-2.19581e-05,-2.32581e-05,8.39097e-06,4.94281e-06,0
-3.78283e-06,5.79697e-05,-1.4442e-05,1.14317e-05,-2.48988e-05,-1.7149e-05,1.18417e-05,3.18011e-06,0
2.8226e-05,8.19942e-05,-9.3252e-06,9.77764e-06,-3.74178e-05,-1.11175e-05,1.4643e-05,3.91081e-06,0
3.62774e-05,0.000111728,-4.88387e-06,1.2881e-05,-4.87132e-05,-8.83383e-06,1.47473e-05,7.20403e-06,0
3.4552e-05,0.000126687,-7.44527e-07,2.38456e-05,-4.24074e-05,-7.09684e-06,1.36758e-05,9.38827e-06,0
4.59413e-05,0.000110541,2.9257e-06,3.15215e-05,-2.49521e-05,-3.33439e-06,1.27735e-05,8.85996e-06,0
7.42336e-05,6.77317e-05,3.75268e-06,2.67286e-05,-1.49923e-05,7.70544e-07,1.28576e-05,7.90457e-06,0
9.74117e-05,2.35968e-05,1.59229e-06,9.97476e-06,-1.11205e-05,1.65415e-06,1.38516e-05,8.36402e-06,0
9.72747e-05,5.58725e-06,5.45134e-08,-1.02703e-05,-1.32153e-06,-1.07243e-06,1.55525e-05,9.07722e-06,0
7.38107e-05,2.31413e-05,1.63679e-06,-2.56839e-05,1.63982e-05,-3.92376e-06,1.65991e-05,8.74809e-06,0
3.13836e-05,4.99966e-05,5.68294e-06,-3.5033e-05,3.34799e-05,-6.50489e-06,1.58626e-05,8.08305e-06,0
-2.24623e-05,4.41943e-05,7.86695e-06,-4.29232e-05,4.53371e-05,-8.67947e-06,1.54908e-05,7.64211e-06,0
-7.53335e-05,5.2413e-06,4.46947e-06,-5.07594e-05,5.07234e-05,-9.08917e-06,1.62813e-05,6.94241e-06,0
-0.00011307,-1.33535e-05,-1.33292e-06,-5.3612e-05,5.24048e-05,-6.76523e-06,1.62514e-05,5.9405e-06,0
-0.000128079,7.48645e-06,-4.68712e-06,-5.04157e-05,5.32992e-05,-4.16931e-06,1.41195e-05,5.42379e-06,0
-0.000130821,1.02274e-05,-7.99705e-06,-4.77769e-05,5.17088e-05,-6.51132e-06,1.08928e-05,5.15341e-06,0
-0.000134628,-3.80889e-05,-1.46399e-05,-5.03453e-05,4.25514e-05,-1.31414e-05,8.66113e-06,4.10231e-06,0
-0.000136307,-9.07305e-05,-2.15918e-05,-5.52874e-05,2.76056e-05,-1.89503e-05,8.59252e-06,3.79981e-06,0
-0.000126183,-0.000103182,-2.51413e-05,-5.96495e-05,1.65648e-05,-2.18179e-05,1.017e-05,3.7631e-06,0
-0.000100635,-7.72183e-05,-2.31591e-05,-6.05561e-05,9.97273e-06,-1.86875e-05,1.18296e-05,3.22417e-06,0
-6.50341e-05,-2.40478e-05,-1.83099e-05,-5.96613e-05,4.16768e-06,-1.42115e-05,1.25139e-05,2.63589e-06,0
-3.29737e-05,3.05852e-05,-1.32055e-05,-5.85456e-05,-5.90627e-06,-1.43585e-05,1.22453e-05,2.94826e-07,0
-1.12868e-05,6.5509e-05,-9.32983e-06,-5.60337e-05,-3.43309e-05,-1.52353e-05,1.18726e-05,-3.42508e-06,0
4.11599e-06,9.1719e-05,-6.88126e-06,-4.97152e-05,-6.14719e-05,-1.37214e-05,1.13869e-05,-5.79368e-06,0
1.0229e-05,0.000108054,-5.15306e-06,-3.6189e-05,-5.10707e-05,-1.14568e-05,1.01777e-05,-5.58001e-06,0
-3.54833e-06,8.90306e-05,-8.27954e-06,-1.84669e-05,-4.25031e-06,-1.34214e-05,1.03167e-05,-4.77027e-06,0
-3.35569e-05,2.60545e-05,-1.63035e-05,-1.90485e-06,5.85456e-05,-1.82038e-05,1.23603e-05,-5.2539e-06,0
-6.74043e-05,-4.0049e-05,-2.17366e-05,1.51896e-05,0.000111337,-1.99506e-05,1.45101e-05,-6.80922e-06,0
-9.11902e-05,-6.41493e-05,-1.75823e-05,3.23366e-05,0.000136734,-1.62029e-05,1.55577e-05,-8.44554e-06,0
-9.43888e-05,-5.38084e-05,-5.19816e-06,3.62571e-05,0.000133018,-7.10538e-06,1.6489e-05,-8.79316e-06,0
-7.75274e-05,-1.4651e-05,7.48513e-06,1.90178e-05,0.000107165,1.02444e-06,1.71269e-05,-8.64872e-06,0
-5.08592e-05,7.23095e-05,1.39115e-05,-9.42994e-06,6.48612e-05,2.01472e-06,1.78072e-05,-9.24769e-06,0
-2.9562e-05,0.000181779,9.47359e-06,-3.31533e-05,1.88858e-05,-3.5426e-06,1.80556e-05,-1.08398e-05,0
-2.10517e-05,0.000243006,-2.05434e-06,-4.41351e-05,-1.00815e-05,-8.81638e-06,1.69896e-05,-1.21093e-05,0
-2.72661e-05,0.000203797,-1.08676e-05,-4.49905e-05,-1.06375e-05,-8.88147e-06,1.65612e-05,-1.25284e-05,0
-4.08348e-05,8.37888e-05,-1.29122e-05,-4.26599e-05,2.31718e-05,-7.54012e-06,1.75626e-05,-1.30395e-05,0
-4.89606e-05,-2.33399e-05,-1.07816e-05,-3.8742e-05,8.95516e-05,-9.29421e-06,1.87149e-05,-1.32419e-05,0
-4.4361e-05,-4.36003e-05,-7.74684e-06,-2.37412e-05,0.000148467,-1.31273e-05,1.75111e-05,-1.22409e-05,0
-3.11911e-05,-1.70485e-05,-5.00657e-06,1.35695e-05,0.000140645,-1.62603e-05,1.49143e-05,-1.01341e-05,0
-1.68237e-05,-1.82742e-05,-4.46858e-06,6.67936e-05,6.35936e-05,-1.79258e-05,1.37625e-05,-7.39348e-06,0
-5.49178e-06,-3.89288e-05,-8.32505e-06,0.000107466,-1.47905e-05,-1.80487e-05,1.45723e-05,-5.64408e-06,0
2.09706e-06,-4.74528e-05,-1.5286e-05,0.000113105,-3.90536e-05,-1.81337e-05,1.57432e-05,-6.34914e-06,0
7.42993e-06,-2.0826e-05,-2.26322e-05,8.89348e-05,-2.54848e-05,-1.77971e-05,1.68621e-05,-7.60287e-06,0
9.96743e-06,3.595e-05,-2.81032e-05,5.64942e-05,-1.81592e-05,-1.78078e-05,1.70515e-05,-8.77066e-06,0
6.0675e-06,7.08625e-05,-2.92649e-05,3.62226e-05,-3.18502e-05,-1.7898e-05,1.57195e-05,-8.50815e-06,0
-2.03544e-06,7.7673e-05,-2.78198e-05,3.13375e-05,-5.02842e-05,-1.53321e-05,1.4628e-05,-5.91842e-06,0
-9.08849e-06,6.77015e-05,-2.69082e-05,2.92402e-05,-6.35209e-05,-1.18855e-05,1.49908e-05,-2.22995e-06,0
-2.04274e-05,3.78889e-05,-2.28677e-05,1.93249e-05,-5.73603e-05,-1.22592e-05,1.49373e-05,-1.40167e-06,0
-3.77381e-05,-1.25199e-05,-7.49788e-06,3.79318e-06,-3.3859e-05,-1.66507e-05,1.33845e-05,-2.91881e-06,0
-5.49955e-05,-6.57e-05,1.44358e-05,-1.08581e-05,-1.29268e-05,-2.08045e-05,1.23715e-05,-2.88732e-06,0
-6.10119e-05,-7.08433e-05,3.27084e-05,-2.12811e-05,5.70786e-06,-2.27994e-05,1.32975e-05,-1.67704e-06,0
-4.98118e-05,-2.47583e-05,4.49741e-05,-2.09373e-05,1.31048e-05,-2.18509e-05,1.61429e-05,-4.6507e-07,0
-3.01437e-05,2.7753e-05,4.94041e-05,-1.28828e-05,7.97919e-06,-1.84244e-05,1.85686e-05,5.78315e-07,0
-1.30553e-05,3.36059e-05,4.23933e-05,-4.77126e-06,1.70084e-06,-1.39018e-05,1.88447e-05,9.08777e-07,0
-1.69067e-06,-1.09035e-06,1.9379e-05,4.77225e-07,-7.33819e-07,-1.1066e-05,1.74349e-05,2.66205e-07,0
8.56962e-06,-2.39889e-05,-1.41292e-05,-3.11408e-07,-1.70763e-06,-1.12431e-05,1.58215e-05,8.81314e-07,0
2.27519e-05,-3.53309e-05,-4.5235e-05,-3.02698e-06,-2.94271e-06,-1.41916e-05,1.4759e-05,1.14991e-06,0
3.1398e-05,-6.92008e-05,-6.49991e-05,-5.82457e-06,-6.88143e-06,-1.83919e-05,1.39185e-05,1.4228e-06,0
2.40732e-05,-0.000117601,-7.3078e-05,-1.23057e-05,-1.3754e-05,-1.96251e-05,1.40601e-05,1.92343e-06,0
7.19582e-06,-0.000133945,-7.19632e-05,-2.05398e-05,-1.41205e-05,-1.56745e-05,1.44561e-05,2.50918e-06,0
-9.6364e-06,-0.000100297,-6.40859e-05,-2.25014e-05,-6.52015e-06,-8.09301e-06,1.38802e-05,3.24312e-06,0
-2.73502e-05,-4.33968e-05,-5.18219e-05,-1.71721e-05,-3.47682e-06,-1.10863e-06,1.37649e-05,2.99611e-06,0
-5.48645e-05,-1.88656e-06,-3.92709e-05,-1.00703e-05,-2.00213e-05,6.04254e-07,1.55386e-05,2.22081e-06,0
-9.11958e-05,6.10061e-06,-3.15705e-05,-6.28523e-06,-4.80256e-05,-3.82684e-06,1.80364e-05,2.39222e-06,0
-0.000120356,-7.47093e-06,-2.68613e-05,-7.75861e-06,-5.17607e-05,-9.73321e-06,1.87288e-05,3.95655e-06,0
-0.000124524,-8.57353e-06,-2.08479e-05,-9.93072e-06,-1.24795e-05,-1.23198e-05,1.67325e-05,4.76934e-06,0
-0.000103157,6.66208e-06,-1.5137e-05,-1.01191e-05,3.98342e-05,-1.16911e-05,1.41404e-05,3.43249e-06,0
-7.38739e-05,1.7655e-05,-1.48433e-05,-8.63781e-06,7.10467e-05,-1.13704e-05,1.32915e-05,7.24278e-07,0
-5.23817e-05,2.09409e-05,-1.60025e-05,-3.70358e-06,7.52469e-05,-1.06272e-05,1.3948e-05,-4.077e-07,0
-4.03577e-05,2.21142e-05,-1.06773e-05,3.29461e-06,6.35811e-05,-7.98895e-06,1.37294e-05,-6.32508e-08,0
-3.23339e-05,2.51418e-05,7.8722e-07,9.30444e-06,4.33152e-05,-5.29527e-06,1.11819e-05,1.33442e-06,0
-2.29915e-05,3.951e-05,8.60958e-06,9.95633e-06,1.92594e-05,-1.47882e-06,7.78058e-06,2.84957e-06,0
-1.13692e-05,6.32496e-05,8.83191e-06,-3.99679e-07,-2.14389e-06,2.34592e-06,5.88172e-06,4.34434e-06,0
-5.49566e-06,9.03759e-05,5.88302e-06,-2.09506e-05,-1.92439e-05,2.11524e-06,4.49776e-06,6.32546e-06,0
-1.21502e-05,0.000124331,4.47026e-06,-3.86103e-05,-2.73091e-05,-2.05781e-06,3.1703e-06,8.82703e-06,0
-2.69479e-05,0.000144096,5.1235e-06,-3.4889e-05,-2.26901e-05,-7.36679e-06,4.75034e-06,8.70242e-06,0
-4.1109e-05,0.000119547,6.67773e-06,-1.36056e-05,1.40085e-06,-9.98573e-06,7.73623e-06,5.36514e-06,0
-4.94856e-05,6.62168e-05,1.05708e-05,1.3441e-05,4.45257e-05,-1.1033e-05,9.61071e-06,2.10308e-06,0
-4.95171e-05,2.08847e-05,1.5599e-05,3.60336e-05,7.8963e-05,-1.01017e-05,9.36876e-06,2.811e-07,0
-4.01031e-05,-1.48031e-05,2.10798e-05,4.53027e-05,7.89671e-05,-3.83273e-06,8.00882e-06,1.10373e-06,0
-2.72473e-05,-5.45497e-05,2.32454e-05,4.30801e-05,5.83758e-05,3.03998e-06,6.41133e-06,1.34794e-06,0
-1.95163e-05,-7.70601e-05,1.72218e-05,3.21742e-05,4.2579e-05,4.44335e-06,5.51272e-06,1.1159e-06,0
-1.5635e-05,-5.72936e-05,8.09821e-06,1.39749e-05,3.00761e-05,1.07608e-06,5.97609e-06,6.8033e-07,0
-1.4481e-05,-9.32598e-06,1.45286e-06,-9.45572e-06,1.31501e-05,-4.15895e-06,7.12277e-06,-1.1194e-06,0
-1.57054e-05,3.48164e-05,-3.76859e-06,-3.33425e-05,-1.55967e-06,-9.76359e-06,8.69729e-06,-2.41627e-06,0
-1.84305e-05,4.8689e-05,-8.88646e-06,-4.9973e-05,-4.54285e-06,-1.18537e-05,9.79814e-06,-1.56319e-06,0
-2.28496e-05,4.60712e-05,-1.19879e-05,-5.18507e-05,3.58232e-07,-9.79494e-06,1.05333e-05,3.43159e-07,0
-2.73614e-05,4.79603e-05,-8.7993e-06,-3.9493e-05,4.64334e-06,-6.80657e-06,1.01277e-05,1.04871e-06,0
-2.82557e-05,5.61697e-05,2.99036e-07,-2.1233e-05,5.57461e-06,-5.12026e-06,1.04868e-05,2.10013e-06,0
-2.31487e-05,7.08791e-05,1.00726e-05,-5.2366e-06,4.16937e-06,-4.35268e-06,1.21079e-05,5.14859e-06,0
-1.53812e-05,0.000101,1.52335e-05,8.83177e-06,2.22947e-06,-4.56717e-06,1.30912e-05,8.59687e-06,0
-7.87107e-06,0.000149226,1.42458e-05,2.09799e-05,1.90778e-07,-5.2609e-06,1.29632e-05,8.89163e-06,0
-2.72384e-06,0.000199136,9.18812e-06,2.63757e-05,-1.09365e-07,-4.15101e-06,1.27348e-05,6.30755e-06,0
6.17967e-08,0.000221223,4.1209e-06,2.38956e-05,-8.73181e-08,-2.02941e-06,1.34246e-05,3.57328e-06,0
2.25792e-06,0.000197303,1.93051e-06,1.86994e-05,-1.83992e-06,-1.42923e-06,1.50387e-05,2.08339e-06,0
5.09198e-06,0.000148586,3.2095e-06,1.55345e-05,-3.05397e-06,-2.37178e-06,1.62029e-05,3.08142e-06,0
6.51e-06,9.57138e-05,4.69665e-06,1.37843e-05,2.52025e-06,-3.63579e-06,1.59647e-05,6.14921e-06,0
4.28176e-06,3.26447e-05,1.40945e-06,8.11895e-06,2.4408e-05,-4.57664e-06,1.57643e-05,7.32719e-06,0
1.14546e-06,-2.99749e-05,-2.46806e-06,-4.2633e-06,5.73439e-05,-4.82728e-06,1.71535e-05,6.7558e-06,0
4.30576e-06,-6.35855e-05,-3.15846e-06,-1.86078e-05,7.09513e-05,-5.19651e-06,1.91884e-05,8.01824e-06,0
1.52195e-05,-7.9234e-05,-3.75659e-06,-3.01012e-05,4.89022e-05,-6.57793e-06,1.92569e-05,8.39306e-06,0
1.68199e-05,-8.94611e-05,-8.42233e-06,-3.53706e-05,1.38928e-05,-8.70125e-06,1.91707e-05,5.45746e-06,0
-3.19125e-06,-0.000114415,-1.76112e-05,-3.6231e-05,1.53453e-06,-8.73248e-06,2.04109e-05,2.23902e-06,0
-3.42712e-05,-0.000166696,-2.37263e-05,-3.27414e-05,1.79608e-05,-9.0491e-06,2.12257e-05,4.70401e-08,0
-6.19337e-05,-0.000181656,-2.2812e-05,-2.22014e-05,3.06585e-05,-1.06388e-05,2.15465e-05,1.3132e-07,0
-8.23447e-05,-0.000131205,-1.96972e-05,-9.62647e-06,1.77957e-05,-1.17982e-05,2.19134e-05,2.14924e-06,0
-9.43685e-05,-5.6914e-05,-1.89237e-05,2.24784e-06,-1.93208e-05,-1.36471e-05,2.17731e-05,2.70074e-06,0
-9.17733e-05,5.50732e-06,-1.87056e-05,1.35762e-05,-6.88526e-05,-1.52361e-05,2.06184e-05,2.07999e-06,0
-7.94033e-05,3.77908e-05,-1.77186e-05,2.13293e-05,-9.67629e-05,-1.76519e-05,1.89247e-05,-4.15738e-07,0
-6.23068e-05,5.68807e-05,-1.83855e-05,1.75051e-05,-8.61286e-05,-1.85431e-05,1.81895e-05,-3.13948e-06,0
-4.30293e-05,7.8143e-05,-2.04015e-05,1.15678e-06,-4.60373e-05,-1.44716e-05,1.8564e-05,-4.28957e-06,0
-2.50869e-05,0.000100959,-2.21322e-05,-1.48476e-05,6.77453e-06,-9.24569e-06,1.81722e-05,-3.40385e-06,0
-9.46324e-06,0.000129095,-2.25503e-05,-1.71037e-05,5.18591e-05,-8.48564e-06,1.66506e-05,-1.16453e-06,0
2.33838e-06,0.000162898,-2.04288e-05,-6.0539e-06,7.22169e-05,-1.15158e-05,1.5256e-05,1.25611e-06,0
7.5002e-06,0.000180789,-1.6622e-05,5.02376e-06,6.02676e-05,-1.25716e-05,1.3224e-05,3.06441e-06,0
2.63946e-06,0.000160899,-1.32844e-05,1.08634e-05,3.6541e-05,-1.0429e-05,1.12695e-05,2.29572e-06,0
-9.9982e-06,0.000103927,-1.17508e-05,1.73303e-05,3.12164e-05,-6.74278e-06,1.0573e-05,-6.42873e-07,0
-2.78714e-05,1.96887e-05,-1.16961e-05,2.45734e-05,4.45867e-05,-3.08211e-06,9.96349e-06,-3.38131e-06,0
-4.65474e-05,-7.80617e-05,-1.3084e-05,2.29812e-05,4.87992e-05,-2.09619e-06,7.59943e-06,-3.23202e-06,0
-5.66377e-05,-0.000155615,-1.69272e-05,8.82277e-06,3.34324e-05,-4.30066e-06,4.43568e-06,-1.42599e-06,0
-5.20802e-05,-0.000166339,-2.17455e-05,-1.08149e-05,1.34446e-05,-6.88217e-06,3.48707e-06,4.81987e-07,0
-3.93356e-05,-0.000109581,-2.2683e-05,-2.54916e-05,4.31943e-06,-7.23424e-06,4.17677e-06,1.56779e-06,0
-2.70096e-05,-3.87015e-05,-1.84084e-05,-2.97138e-05,6.08718e-06,-5.45222e-06,4.49176e-06,2.01116e-06,0
-2.19498e-05,-5.90347e-06,-1.32766e-05,-2.07416e-05,1.10309e-05,-3.84436e-06,5.16996e-06,2.22501e-06,0
-2.62635e-05,-7.40234e-06,-7.0673e-06,1.39411e-06,1.3512e-05,-4.3232e-06,7.01757e-06,2.42393e-06,0
-4.25002e-05,-2.18305e-05,-2.84836e-07,2.76385e-05,1.4912e-05,-5.54137e-06,8.73595e-06,2.09821e-06,0
-6.91243e-05,-5.07004e-05,3.65796e-06,3.92763e-05,1.94272e-05,-6.43431e-06,1.03641e-05,1.49963e-06,0
-0.000104011,-8.99547e-05,2.79587e-06,2.25551e-05,2.41069e-05,-7.58981e-06,1.04674e-05,8.35209e-07,0
-0.00012643,-9.35482e-05,-2.74481e-06,-6.11574e-06,2.48274e-05,-7.96124e-06,8.21855e-06,-2.48289e-07,0
-0.000114766,-4.19529e-05,-7.27262e-06,-2.04284e-05,2.70368e-05,-7.95018e-06,7.70331e-06,-1.00463e-06,0
-8.1341e-05,2.32917e-05,-9.24865e-06,-1.70091e-05,3.711e-05,-7.03617e-06,8.89137e-06,-1.73362e-06,0
-4.57237e-05,7.04488e-05,-1.11811e-05,-1.29128e-05,4.48085e-05,-5.62328e-06,9.65463e-06,-1.16792e-06,0
-2.33004e-05,0.000105532,-1.18622e-05,-2.68677e-05,4.29956e-05,-7.05928e-06,8.6437e-06,5.86026e-08,0
-1.2645e-05,0.000138651,-8.91845e-06,-5.18991e-05,3.89372e-05,-9.45442e-06,5.95389e-06,1.29982e-06,0
-8.77346e-06,0.000130348,-2.03289e-06,-6.74726e-05,3.55205e-05,-1.07153e-05,4.47514e-06,1.75029e-06,0
-2.44923e-06,5.57289e-05,3.78491e-06,-6.66855e-05,2.34397e-05,-9.36328e-06,4.07296e-06,1.02326e-06,0
4.49819e-06,-2.97469e-05,5.20199e-06,-5.97172e-05,-3.68399e-06,-7.36249e-06,5.33144e-06,7.00383e-07,0
-1.01925e-06,-6.57398e-05,2.07528e-06,-5.657e-05,-4.23092e-05,-9.00545e-06,6.9487e-06,8.06475e-07,0
-1.85227e-05,-6.39819e-05,-4.50175e-06,-5.65957e-05,-7.89545e-05,-1.31474e-05,7.21698e-06,2.02728e-06,0
-3.62441e-05,-5.67756e-05,-9.70952e-06,-5.42339e-05,-0.000100408,-1.67563e-05,7.34605e-06,3.38037e-06,0
-4.49526e-05,-5.27972e-05,-9.87634e-06,-4.3133e-05,-0.000101426,-1.89841e-05,8.22833e-06,4.23806e-06,0
-4.4617e-05,-4.15641e-05,-6.01335e-06,-2.24257e-05,-8.05562e-05,-1.90529e-05,7.88318e-06,5.25993e-06,0
-3.63984e-05,-1.19517e-05,-5.76126e-07,5.17842e-06,-4.16903e-05,-1.67087e-05,5.91664e-06,6.5042e-06,0
-2.31171e-05,3.39413e-05,4.19911e-06,3.23799e-05,2.82273e-06,-1.38784e-05,5.07549e-06,6.58312e-06,0
-8.44977e-06,8.30235e-05,6.46175e-06,4.99277e-05,4.24193e-05,-1.13487e-05,6.27535e-06,4.87683e-06,0
1.29614e-06,0.000112552,5.93573e-06,5.05925e-05,7.4068e-05,-1.079e-05,8.05938e-06,1.94496e-06,0
7.00138e-06,0.000117496,4.07265e-06,3.75344e-05,0.00010156,-1.14208e-05,8.70921e-06,-4.14424e-07,0
1.40803e-05,0.000113291,4.08211e-06,2.41797e-05,0.000136175,-9.60929e-06,8.78233e-06,-5.44205e-07,0
2.01605e-05,0.000103074,5.50115e-06,2.02662e-05,0.000165554,-6.24921e-06,8.61856e-06,2.674e-07,0
1.51676e-05,7.39227e-05,4.40636e-06,2.16494e-05,0.000153987,-5.23565e-06,7.55562e-06,7.37651e-08,0
4.85167e-08,3.85318e-05,7.86888e-07,2.04776e-05,9.96939e-05,-5.9283e-06,6.23647e-06,-5.66625e-07,0
-1.72654e-05,2.61092e-05,-2.60423e-06,1.58874e-05,4.23199e-05,-6.7201e-06,5.31631e-06,6.98291e-07,0
-3.64799e-05,3.97942e-05,-3.65582e-06,1.15127e-05,6.59745e-06,-9.14098e-06,4.55833e-06,2.42065e-06,0
-6.06646e-05,4.59483e-05,-1.19595e-06,5.38911e-06,-1.14119e-05,-1.30285e-05,3.46818e-06,3.48656e-06,0
-8.49691e-05,4.94015e-06,-5.46214e-07,-9.58235e-06,-2.21523e-05,-1.63484e-05,2.56133e-06,3.97049e-06,0
-8.88403e-05,-6.39863e-05,-5.81389e-06,-2.83606e-05,-2.43708e-05,-1.86756e-05,4.22297e-06,3.41192e-06,0
-7.29736e-05,-9.83451e-05,-1.37169e-05,-4.1802e-05,-7.78374e-06,-1.84841e-05,7.2538e-06,3.30058e-06,0
-5.58624e-05,-7.95063e-05,-1.76931e-05,-4.68873e-05,1.80339e-05,-1.5718e-05,1.03304e-05,5.37156e-06,0
-3.70746e-05,-3.8468e-05,-1.59989e-05,-4.29607e-05,2.74623e-05,-1.33136e-05,1.26863e-05,7.07906e-06,0
-2.09228e-05,-3.40973e-06,-1.48629e-05,-3.64553e-05,1.50073e-05,-1.0539e-05,1.31435e-05,7.73602e-06,0
-1.38705e-05,3.35241e-05,-1.76079e-05,-3.15984e-05,-4.14536e-06,-7.66826e-06,1.26107e-05,7.60913e-06,0
-1.59104e-05,8.24881e-05,-2.08977e-05,-2.6178e-05,-1.86676e-05,-6.94019e-06,1.16175e-05,6.19564e-06,0
-2.41473e-05,0.000116109,-2.09653e-05,-1.70763e-05,-2.39066e-05,-8.24772e-06,9.34606e-06,4.14486e-06,0
-3.5461e-05,9.82814e-05,-1.8041e-05,-4.61958e-06,-2.15062e-05,-9.8587e-06,8.07337e-06,2.01002e-06,0
-4.25425e-05,3.25931e-05,-1.34402e-05,6.06579e-06,-1.69597e-05,-9.88919e-06,8.26555e-06,9.14191e-07,0
-3.55061e-05,-3.84525e-05,-1.03594e-05,1.21522e-05,-1.62018e-05,-8.24153e-06,8.29403e-06,1.14149e-06,0
-1.89025e-05,-8.54219e-05,-1.12276e-05,1.40009e-05,-2.01915e-05,-7.03876e-06,8.53853e-06,2.01138e-06,0
-7.51167e-06,-0.000114395,-1.39388e-05,1.47794e-05,-2.29033e-05,-7.76482e-06,9.38384e-06,2.25386e-06,0
-9.21577e-06,-0.000125854,-1.65129e-05,1.32037e-05,-1.89577e-05,-9.69142e-06,9.53868e-06,2.40363e-06,0
-1.66826e-05,-0.000105102,-1.80425e-05,7.59621e-06,-8.12372e-06,-1.25386e-05,9.00767e-06,2.59159e-06,0
-2.20449e-05,-5.76041e-05,-1.68652e-05,-3.76675e-07,4.81766e-06,-1.48953e-05,9.56881e-06,2.44053e-06,0
-2.18057e-05,-1.04269e-05,-1.32252e-05,-7.09657e-06,1.43306e-05,-1.3964e-05,1.00791e-05,2.17077e-06,0
-1.81662e-05,1.20151e-05,-1.16556e-05,-1.04366e-05,1.78933e-05,-9.67562e-06,9.84016e-06,2.41821e-06,0
-1.50918e-05,7.06113e-06,-1.41932e-05,-1.05333e-05,1.87725e-05,-5.11704e-06,9.57593e-06,3.15575e-06,0
-1.69399e-05,-7.95963e-06,-1.72584e-05,-1.04946e-05,2.13479e-05,-4.34242e-06,1.04724e-05,3.77046e-06,0
-2.11493e-05,-9.48345e-06,-1.90185e-05,-1.27888e-05,2.61921e-05,-7.00186e-06,1.17615e-05,3.63692e-06,0
-2.3034e-05,1.37738e-05,-1.95646e-05,-1.2737e-05,2.87937e-05,-7.74287e-06,1.3202e-05,3.90579e-06,0
-2.42608e-05,5.51748e-05,-1.82935e-05,-7.25833e-06,2.49851e-05,-7.98728e-06,1.43447e-05,4.84536e-06,0
-2.83109e-05,9.68759e-05,-1.63491e-05,-2.9644e-06,1.59595e-05,-1.19392e-05,1.44308e-05,5.9875e-06,0
-3.01332e-05,0.00012504,-1.30748e-05,-4.01319e-06,6.41969e-06,-1.29759e-05,1.36455e-05,5.74322e-06,0
-2.40212e-05,0.000110581,-7.74084e-06,-4.49423e-06,4.38269e-06,-6.48692e-06,1.3254e-05,2.99795e-06,0
-1.69835e-05,2.71617e-05,-3.51095e-06,-2.61992e-06,9.07985e-06,-8.0907e-07,1.32684e-05,1.20165e-06,0
-1.70971e-05,-7.65666e-05,-3.06419e-06,-3.84365e-06,1.16771e-05,-3.18822e-06,1.37762e-05,1.54794e-06,0
-1.57419e-05,-0.000129714,-6.8694e-06,-8.28925e-06,1.13463e-05,-1.09076e-05,1.42879e-05,2.39727e-06,0
-7.34982e-06,-0.000107222,-9.42928e-06,-5.55195e-06,1.0718e-05,-1.63053e-05,1.48317e-05,2.79728e-06,0
-5.0735e-06,-3.34416e-05,-5.86505e-06,8.65588e-06,1.28594e-05,-1.39534e-05,1.58174e-05,2.04601e-06,0
-1.20339e-05,5.83749e-05,-1.92021e-06,2.54475e-05,3.94672e-05,-8.01087e-06,1.59272e-05,1.00039e-06,0
-1.98533e-05,0.000163069,-7.16084e-06,2.96664e-05,0.000101419,-4.39226e-06,1.56402e-05,1.07232e-06,0
-2.11094e-05,0.000240079,-2.1961e-05,2.04915e-05,0.000143296,-4.46826e-06,1.44845e-05,5.79685e-07,0
-1.52916e-05,0.000259835,-3.49364e-05,6.42669e-06,0.000103742,-5.93586e-06,1.31032e-05,-8.68885e-07,0
-1.29397e-05,0.000222757,-3.72521e-05,-8.23808e-06,1.16954e-05,-5.41482e-06,1.33898e-05,-2.26188e-06,0
-2.25514e-05,0.000130996,-3.35646e-05,-1.70833e-05,-5.20285e-05,-3.57249e-06,1.43404e-05,-3.06014e-06,0
-3.37784e-05,-9.20073e-06,-3.03951e-05,-1.95658e-05,-5.54787e-05,-3.59348e-06,1.27736e-05,-2.84538e-06,0
-3.27766e-05,-0.000170445,-2.83681e-05,-2.31241e-05,-2.48397e-05,-7.6052e-06,9.47018e-06,-2.67758e-06,0
-1.95468e-05,-0.000270561,-2.49457e-05,-3.2889e-05,5.39658e-06,-1.16719e-05,6.9978e-06,-2.70415e-06,0
-5.98542e-06,-0.000254384,-1.73201e-05,-4.33281e-05,1.18665e-05,-1.18665e-05,7.06782e-06,-2.2004e-06,0
-2.39483e-06,-0.000164027,-4.05675e-06,-4.34283e-05,-1.27705e-05,-7.47467e-06,9.61553e-06,-2.11354e-06,0
-1.06348e-05,-7.27393e-05,1.40163e-05,-2.21502e-05,-4.77752e-05,-1.88337e-06,1.21618e-05,-3.24748e-06,0
-2.61766e-05,3.24022e-06,3.42264e-05,2.00843e-05,-5.98528e-05,1.01632e-06,1.23439e-05,-3.91873e-06,0
-4.0905e-05,6.616e-05,5.34683e-05,6.64534e-05,-3.88445e-05,-1.14819e-07,1.1011e-05,-2.74627e-06,0
-5.0323e-05,9.7523e-05,6.63258e-05,9.62352e-05,-2.81105e-07,-4.25521e-06,1.09511e-05,-5.62038e-07,0
-5.50233e-05,0.000102236,6.87408e-05,9.85503e-05,3.06515e-05,-7.81925e-06,1.12559e-05,5.14276e-07,0
-5.49577e-05,0.000112653,5.88024e-05,7.64424e-05,3.50832e-05,-9.74689e-06,1.06451e-05,-6.70104e-07,0
-5.20841e-05,0.000115455,3.81192e-05,4.47715e-05,2.54139e-05,-1.15154e-05,1.06411e-05,-2.35527e-06,0
-5.67916e-05,6.15516e-05,9.06107e-06,2.13529e-05,2.7309e-05,-1.58448e-05,1.17447e-05,-2.82948e-06,0
-7.65628e-05,-5.26088e-05,-2.48687e-05,1.33856e-05,3.56075e-05,-2.12989e-05,1.44991e-05,-2.54339e-06,0
-0.000100455,-0.000143472,-5.42374e-05,1.44117e-05,3.11621e-05,-2.24878e-05,1.77252e-05,-9.73331e-07,0
-0.000112276,-0.000167048,-7.13735e-05,1.29752e-05,1.65135e-05,-1.90673e-05,1.91902e-05,1.05672e-06,0
-0.000115098,-0.000190225,-7.65486e-05,5.00798e-06,6.71264e-06,-1.58208e-05,1.98006e-05,1.81848e-06,0
-0.000112722,-0.000193067,-7.11368e-05,-6.93495e-06,3.97125e-06,-1.50427e-05,1.81035e-05,-3.69356e-07,0
-0.00010611,-0.000118882,-5.82221e-05,-1.81897e-05,4.92533e-08,-1.4037e-05,1.57988e-05,-3.43609e-06,0
-9.53666e-05,-3.62041e-05,-4.56195e-05,-2.84864e-05,-1.24647e-05,-1.26261e-05,1.58465e-05,-3.58958e-06,0
-7.3652e-05,-2.88432e-06,-3.61226e-05,-3.77806e-05,-2.85438e-05,-1.31276e-05,1.599e-05,-2.20259e-06,0
-4.53965e-05,-1.0829e-05,-2.69002e-05,-4.56619e-05,-4.28765e-05,-1.46128e-05,1.59094e-05,-1.42518e-06,0
-1.59351e-05,-1.82407e-05,-1.92386e-05,-5.77868e-05,-5.79071e-05,-1.43642e-05,1.68252e-05,-3.51188e-06,0
1.18781e-05,-1.16518e-05,-1.62752e-05,-6.97969e-05,-7.31401e-05,-1.03248e-05,1.80738e-05,-5.00183e-06,0
2.95206e-05,-5.41173e-06,-1.54834e-05,-7.15308e-05,-8.79857e-05,-5.05131e-06,1.79959e-05,-3.38841e-06,0
2.69154e-05,1.15462e-05,-1.21492e-05,-6.07276e-05,-9.32357e-05,-7.89932e-07,1.68425e-05,-3.03743e-06,0
6.59627e-06,4.91023e-05,-5.42538e-06,-4.27056e-05,-7.39444e-05,1.54349e-06,1.67889e-05,-5.5744e-06,0
-1.76193e-05,8.83661e-05,-2.67814e-06,-2.68391e-05,-2.12917e-05,1.8969e-06,1.86156e-05,-7.66041e-06,0
-3.52981e-05,0.00010378,-7.79064e-06,-1.92635e-05,5.90476e-05,-1.88072e-06,2.08196e-05,-7.80393e-06,0
-4.05031e-05,0.000103089,-1.43716e-05,-1.84641e-05,0.000137065,-8.52108e-06,2.11758e-05,-7.08256e-06,0
-3.26016e-05,9.32877e-05,-1.47863e-05,-1.5716e-05,0.000172837,-1.32756e-05,1.97429e-05,-5.64362e-06,0
-1.4303e-05,7.19389e-05,-7.65601e-06,-7.00558e-06,0.000151557,-1.36825e-05,1.87525e-05,-4.71052e-06,0
9.36596e-06,5.31763e-05,1.31908e-06,2.88097e-06,9.47401e-05,-1.02918e-05,1.8961e-05,-4.69373e-06,0
3.32639e-05,6.0892e-05,5.65794e-06,8.18942e-06,3.87269e-05,-6.19351e-06,1.95402e-05,-3.5896e-06,0
4.93974e-05,8.14034e-05,4.23509e-06,9.81295e-06,4.0334e-06,-4.03792e-06,1.92933e-05,-5.95915e-07,0
5.0997e-05,8.2254e-05,1.57402e-06,9.17106e-06,-1.15195e-05,-4.33025e-06,1.84087e-05,1.27137e-06,0
3.38601e-05,4.68583e-05,-1.31204e-06,4.99922e-06,-2.21522e-05,-4.15853e-06,1.78369e-05,5.35776e-07,0
3.11427e-06,6.08448e-06,-3.69806e-06,-3.44128e-06,-3.84645e-05,-5.15874e-06,1.82624e-05,-8.60607e-07,0
-2.65921e-05,7.39087e-06,-4.01401e-06,-1.48809e-05,-4.48745e-05,-7.76429e-06,1.88172e-05,-3.81174e-08,0
-5.1331e-05,3.63233e-05,-3.74834e-06,-2.4034e-05,-2.37641e-05,-1.12497e-05,1.86599e-05,1.20376e-06,0
-7.21347e-05,3.79203e-05,-2.49949e-06,-2.84442e-05,1.35634e-05,-1.61135e-05,1.88368e-05,1.10769e-06,0
-8.2938e-05,1.17246e-05,2.1108e-06,-2.96415e-05,4.3784e-05,-1.96481e-05,1.80932e-05,7.92403e-07,0
-8.20228e-05,-6.44557e-06,7.01371e-06,-2.90216e-05,5.03114e-05,-1.94878e-05,1.7106e-05,1.023e-06,0
-7.01202e-05,-1.03366e-06,7.66364e-06,-2.25964e-05,3.6019e-05,-1.79238e-05,1.61753e-05,2.52372e-06,0
-5.64254e-05,1.4542e-05,5.22116e-06,-1.05558e-05,1.55973e-05,-1.887e-05,1.40519e-05,3.21444e-06,0
-5.29418e-05,1.2491e-05,2.62025e-06,-9.17194e-07,-1.64821e-06,-2.11103e-05,1.32292e-05,2.38927e-06,0
-5.76131e-05,2.63387e-06,7.15377e-07,4.71843e-06,-1.30888e-05,-2.17071e-05,1.44158e-05,1.36219e-06,0
-7.07984e-05,7.06671e-06,1.0258e-06,1.00133e-05,-9.48573e-06,-2.09172e-05,1.39578e-05,1.48183e-06,0
-8.68174e-05,2.71727e-05,2.4118e-06,1.39773e-05,9.74006e-06,-1.98853e-05,1.00852e-05,2.54327e-06,0
-8.85848e-05,5.93255e-05,-2.47613e-07,1.41415e-05,1.53345e-05,-2.05972e-05,7.53661e-06,3.20632e-06,0
-6.69797e-05,0.000105103,-4.32843e-06,1.47071e-05,-2.14894e-06,-2.14486e-05,7.69818e-06,4.07666e-06,0
-3.17399e-05,0.000146764,-6.17392e-06,1.83778e-05,-1.96117e-05,-1.95173e-05,8.73572e-06,5.55733e-06,0
-8.80893e-07,0.000152251,-4.3393e-06,2.47294e-05,-2.53723e-05,-1.47063e-05,1.07646e-05,6.70031e-06,0
1.14742e-05,0.000114572,-9.41305e-07,3.02699e-05,-1.78051e-05,-9.05044e-06,1.15102e-05,5.76277e-06,0
2.81369e-06,5.20285e-05,-2.29804e-07,3.05589e-05,-5.07976e-06,-4.53442e-06,9.7602e-06,3.65772e-06,0
-1.29988e-05,-1.81379e-05,-3.82993e-06,2.5321e-05,-1.10488e-06,-3.75071e-06,8.05728e-06,2.879e-06,0
-2.00406e-05,-8.15369e-05,-1.02585e-05,1.71871e-05,-3.94637e-06,-7.0165e-06,9.31466e-06,2.12758e-06,0
-1.72424e-05,-0.000108457,-1.55373e-05,1.09185e-05,1.14895e-06,-1.00771e-05,1.27801e-05,1.33784e-06,0
-1.3239e-05,-7.62949e-05,-1.58762e-05,1.01935e-05,1.42439e-05,-9.91446e-06,1.56365e-05,2.20724e-06,0
-1.13003e-05,-1.65948e-05,-1.13583e-05,1.61034e-05,2.0126e-05,-8.06812e-06,1.57369e-05,3.92012e-06,0
-1.01245e-05,1.37844e-05,-6.42694e-06,2.39907e-05,1.69241e-05,-6.97223e-06,1.36552e-05,4.54116e-06,0
-8.69668e-06,4.84719e-07,-3.24231e-06,2.79971e-05,1.7646e-05,-6.69254e-06,1.21677e-05,3.43874e-06,0
-7.43974e-06,-1.97027e-05,-1.99703e-06,2.57234e-05,2.65841e-05,-7.40366e-06,1.27642e-05,2.0481e-06,0
-8.47193e-06,-1.6528e-05,-4.16153e-06,1.72122e-05,2.94833e-05,-8.02946e-06,1.39989e-05,2.15253e-06,0
-1.32677e-05,5.09408e-06,-1.06813e-05,6.43817e-06,1.96337e-05,-8.38268e-06,1.51662e-05,3.64165e-06,0
-1.82732e-05,2.55452e-05,-1.50875e-05,3.24397e-07,6.92196e-09,-8.89193e-06,1.70196e-05,4.69246e-06,0
-1.89336e-05,3.02163e-05,-1.33645e-05,-3.44341e-06,-2.33243e-05,-9.77119e-06,1.9184e-05,4.1735e-06,0
-1.36792e-05,1.94771e-05,-1.07797e-05,-1.29102e-05,-3.60114e-05,-1.10944e-05,2.11065e-05,3.83473e-06,0
-6.02407e-06,3.56926e-06,-1.23241e-05,-2.79575e-05,-3.85871e-05,-1.20893e-05,2.19204e-05,3.32631e-06,0
-2.16879e-06,-1.90998e-06,-1.37018e-05,-4.01865e-05,-3.84713e-05,-1.13438e-05,2.14462e-05,1.8906e-06,0
-8.19925e-06,1.16928e-05,-9.9542e-06,-4.37625e-05,1.83744e-06,-8.97314e-06,1.95745e-05,5.74898e-07,0
-2.06694e-05,3.25962e-05,-6.28659e-07,-4.26276e-05,7.82126e-05,-4.94701e-06,1.80296e-05,1.8457e-08,0
-3.10403e-05,5.91616e-05,1.03058e-05,-3.99681e-05,0.000122285,-1.63394e-06,1.79519e-05,9.16927e-07,0
-3.84284e-05,8.24018e-05,1.44051e-05,-3.75043e-05,0.000120371,8.9631e-07,1.74811e-05,3.00357e-07,0
-4.80155e-05,7.58027e-05,1.10676e-05,-4.01884e-05,9.74759e-05,2.8817e-06,1.6276e-05,-1.1882e-06,0
-6.47622e-05,2.91885e-05,6.72601e-06,-4.36543e-05,6.87272e-05,1.84867e-06,1.43175e-05,-1.54041e-06,0
-8.30031e-05,-3.53954e-05,1.13939e-06,-4.22384e-05,3.18651e-05,-7.97409e-07,1.21714e-05,-2.19894e-07,0
-8.65499e-05,-5.98397e-05,-5.51323e-06,-4.22723e-05,-6.04079e-06,-2.67914e-06,1.23575e-05,1.76298e-06,0
-6.719e-05,-2.29151e-05,-9.5475e-06,-4.73914e-05,-2.77759e-05,-3.7821e-06,1.42861e-05,2.82436e-06,0
-3.86596e-05,3.15221e-05,-1.16404e-05,-4.80047e-05,-2.6767e-05,-4.24055e-06,1.54917e-05,2.51192e-06,0
-1.34308e-05,5.17126e-05,-1.22464e-05,-3.28638e-05,-1.04074e-05,-4.15575e-06,1.54425e-05,2.09673e-06,0
2.32568e-06,3.10691e-05,-1.22597e-05,-1.08145e-05,3.32961e-06,-5.52837e-06,1.50022e-05,3.25613e-06,0
5.63447e-06,-1.02667e-05,-1.22465e-05,-6.73475e-07,5.61e-06,-9.00878e-06,1.58645e-05,4.03652e-06,0
-2.80749e-06,-5.02715e-05,-1.31092e-05,-3.08939e-06,1.87996e-06,-1.18701e-05,1.70133e-05,3.19717e-06,0
-2.00467e-05,-6.36863e-05,-1.45002e-05,-5.10805e-06,1.08859e-06,-9.87317e-06,1.65357e-05,6.00249e-07,0
-3.79206e-05,-3.9738e-05,-1.34911e-05,-1.14507e-06,2.54372e-06,-4.78919e-06,1.45475e-05,-1.92401e-07,0
-5.15549e-05,1.58994e-06,-9.82579e-06,4.81054e-06,3.24987e-06,-2.20999e-06,1.14502e-05,1.08631e-06,0
-6.20782e-05,2.88485e-05,-7.58796e-06,9.4319e-06,4.76009e-06,-3.4362e-06,8.70355e-06,1.65789e-06,0
-7.19916e-05,3.19228e-05,-9.97469e-06,1.59167e-05,1.1727e-05,-5.64639e-06,8.04199e-06,4.84446e-07,0
-7.80223e-05,1.33735e-05,-1.55408e-05,2.91121e-05,2.28402e-05,-7.99116e-06,8.53357e-06,-1.67429e-06,0
-7.63252e-05,-2.08962e-05,-1.72118e-05,4.42307e-05,3.00335e-05,-9.84106e-06,8.29938e-06,-3.00129e-06,0
-6.66412e-05,-5.32925e-05,-1.02513e-05,4.67863e-05,2.76835e-05,-1.00415e-05,7.51412e-06,-3.5837e-06,0
-5.27152e-05,-5.86008e-05,2.33181e-07,2.71229e-05,1.84427e-05,-9.5252e-06,8.29876e-06,-4.11265e-06,0
-4.09981e-05,-3.48387e-05,5.26615e-06,-7.17856e-06,9.39501e-06,-9.22317e-06,1.01061e-05,-3.79585e-06,0
-3.68884e-05,-7.50069e-06,1.37726e-06,-3.30906e-05,3.18835e-06,-8.97971e-06,1.08533e-05,-2.73022e-06,0
-3.83097e-05,2.22449e-06,-5.25269e-06,-3.7566e-05,-2.38732e-06,-9.58756e-06,1.09119e-05,-2.23155e-06,0
-4.00268e-05,2.88693e-06,-6.8209e-06,-3.1216e-05,-7.25566e-06,-1.16394e-05,1.03172e-05,-2.73086e-06,0
-3.74596e-05,4.23974e-07,-2.36444e-06,-2.49494e-05,-1.3687e-05,-1.33683e-05,9.89813e-06,-2.95806e-06,0
-2.86933e-05,-8.47879e-06,1.63846e-06,-2.09535e-05,-1.28499e-05,-1.17699e-05,9.77879e-06,-1.71273e-06,0
-2.11463e-05,-1.15589e-05,1.63622e-06,-1.72353e-05,9.48623e-06,-6.60013e-06,9.19734e-06,-8.94154e-07,0
-1.9403e-05,1.48723e-05,-2.82146e-06,-1.11056e-05,3.75573e-05,-1.46043e-06,9.13003e-06,1.00467e-08,0
-1.72434e-05,9.01798e-05,-1.10047e-05,-5.96517e-06,4.38606e-05,-2.72792e-06,1.12703e-05,1.51166e-06,0
-1.36092e-05,0.000174323,-1.74007e-05,-3.2584e-06,3.75574e-05,-1.04558e-05,1.38833e-05,3.23561e-06,0
-1.21844e-05,0.000214299,-2.04185e-05,-5.95499e-07,4.27965e-05,-1.66873e-05,1.50869e-05,6.00843e-06,0
-9.65964e-06,0.000224063,-2.05962e-05,4.32051e-06,4.75428e-05,-1.64828e-05,1.48979e-05,7.59564e-06,0
-3.78853e-06,0.0002166,-1.76465e-05,9.10297e-06,3.51993e-05,-1.10756e-05,1.31707e-05,5.91734e-06,0
1.19086e-06,0.000164258,-1.2972e-05,9.84329e-06,1.17422e-05,-8.62936e-06,1.23127e-05,4.06211e-06,0
-1.64908e-06,5.05798e-05,-1.05018e-05,6.26453e-06,-6.19307e-06,-1.41666e-05,1.09729e-05,3.98151e-06,0
-1.16229e-05,-5.55365e-05,-1.19008e-05,1.06035e-06,-9.70293e-06,-2.35003e-05,8.28451e-06,4.59285e-06,0
-2.03979e-05,-5.41381e-05,-1.50387e-05,-2.90625e-06,-1.60473e-06,-2.63621e-05,7.36017e-06,4.97357e-06,0
-2.34148e-05,2.43778e-05,-1.72211e-05,-5.17956e-06,1.27593e-05,-1.97967e-05,9.00202e-06,4.6479e-06,0
-2.26873e-05,6.935e-05,-1.79621e-05,-5.11551e-06,2.79199e-05,-9.45664e-06,1.11534e-05,4.56938e-06,0
-2.13776e-05,3.24393e-05,-1.90404e-05,-5.91397e-06,4.40176e-05,-1.00997e-06,1.18768e-05,4.12292e-06,0
-2.17113e-05,-5.47387e-05,-2.0941e-05,-1.16158e-05,6.16039e-05,1.44733e-06,1.11216e-05,1.71406e-06,0
-2.46251e-05,-0.000140064,-2.26159e-05,-2.05982e-05,6.93871e-05,-2.51477e-06,1.02632e-05,-4.71837e-07,0
-2.8597e-05,-0.000193275,-2.23466e-05,-2.30413e-05,6.1406e-05,-1.02892e-05,1.08747e-05,3.98614e-07,0
-3.2644e-05,-0.000203979,-1.94545e-05,-1.36492e-05,4.95273e-05,-1.57219e-05,1.191e-05,1.54065e-06,0
-3.73644e-05,-0.000161738,-1.37932e-05,-1.15382e-06,4.46146e-05,-1.39835e-05,1.19331e-05,1.38979e-07,0
-4.03401e-05,-8.65475e-05,-7.8843e-06,6.18244e-06,4.97736e-05,-7.42491e-06,1.11263e-05,-4.63429e-07,0
-3.64615e-05,-3.4931e-05,-5.51012e-06,1.06551e-05,6.00384e-05,-1.5665e-06,1.02246e-05,1.51492e-06,0
-2.54055e-05,-2.55298e-05,-5.89377e-06,1.33225e-05,6.30146e-05,9.80551e-07,9.66629e-06,2.79287e-06,0
-1.5259e-05,-3.58577e-05,-6.07679e-06,1.27017e-05,4.90996e-05,1.44538e-06,9.09991e-06,1.06816e-06,0
-1.59991e-05,-5.13308e-05,-7.81777e-06,8.02097e-06,2.21115e-05,8.38556e-07,8.66095e-06,-2.57424e-06,0
-2.425e-05,-6.22914e-05,-7.66241e-06,1.22137e-06,-2.43763e-06,-7.95444e-07,9.8188e-06,-4.71718e-06,0
-2.69974e-05,-4.52042e-05,-2.89747e-06,-5.37835e-06,-1.27305e-05,7.54615e-07,1.10939e-05,-2.503e-06,0
-2.45959e-05,-1.08909e-05,-9.85858e-07,-1.17459e-05,-4.13413e-06,2.04747e-06,1.01465e-05,-1.48808e-06,0
-2.40891e-05,1.28964e-05,-3.89649e-06,-1.46433e-05,2.24416e-05,-8.73397e-07,7.47111e-06,-3.65365e-06,0
-2.43686e-05,2.41423e-05,-7.10976e-06,-1.13415e-05,4.54379e-05,-5.90525e-06,5.29458e-06,-3.40201e-06,0
-2.46464e-05,2.86832e-05,-7.51028e-06,-1.27832e-06,4.87256e-05,-1.16056e-05,5.72398e-06,-2.15318e-06,0
-2.2806e-05,3.53984e-05,-5.94844e-06,8.8298e-06,6.48104e-05,-1.47092e-05,7.60193e-06,-2.0255e-06,0
-1.23877e-05,5.51548e-05,-4.97831e-06,1.49976e-05,0.000115108,-1.5087e-05,8.42909e-06,-2.23874e-06,0
5.25192e-07,8.32367e-05,-5.57859e-06,1.82018e-05,0.000137988,-1.48933e-05,7.92617e-06,-1.23394e-06,0
5.43106e-06,9.933e-05,-6.89878e-06,1.705e-05,7.97196e-05,-1.46851e-05,8.01153e-06,1.13238e-06,0
1.5545e-06,0.000101253,-7.73623e-06,1.09814e-05,-1.53093e-05,-1.24708e-05,8.25283e-06,3.25516e-06,0
-9.07243e-06,9.95982e-05,-9.90866e-06,5.90805e-06,-6.95889e-05,-6.85844e-06,7.68207e-06,3.3425e-06,0
-2.26169e-05,9.66718e-05,-1.31663e-05,5.4402e-06,-6.64223e-05,-5.60774e-07,7.45968e-06,2.33564e-06,0
-3.52277e-05,7.51721e-05,-1.59206e-05,5.13359e-06,-4.98035e-05,7.03497e-07,8.71073e-06,1.86563e-06,0
-4.64632e-05,2.26478e-05,-1.6569e-05,3.56095e-06,-5.53436e-05,-2.95221e-06,1.0189e-05,1.11536e-06,0
-5.87549e-05,-4.14383e-05,-1.25506e-05,1.94047e-06,-7.53992e-05,-6.61276e-06,1.00367e-05,-3.13663e-07,0
-6.68059e-05,-7.55214e-05,-4.84899e-06,8.91515e-07,-8.67098e-05,-8.00822e-06,8.79004e-06,-3.95465e-07,0
-6.28034e-05,-5.71887e-05,1.27829e-06,-4.26391e-06,-8.07489e-05,-7.76538e-06,8.12314e-06,1.77371e-06,0
