ch1,ch2,ch3,ch4,ch5,ch6,ch7,ch8,class
-3.25064e-05,1.19827e-05,-7.44033e-06,2.52133e-06,1.83969e-05,2.38073e-06,3.95751e-05,7.76568e-06,0
-3.26553e-05,1.17721e-05,-7.96108e-06,-5.16924e-06,1.63128e-05,1.82661e-06,3.85933e-05,7.96913e-06,0
-3.24788e-05,1.1486e-05,-8.53438e-06,-8.74196e-06,1.37104e-05,5.33313e-07,3.53277e-05,8.41717e-06,0
-3.1859e-05,9.9986e-06,-9.00893e-06,-7.46825e-06,1.13017e-05,-1.06622e-06,3.26844e-05,9.34685e-06,0
-3.11122e-05,6.11286e-06,-9.70709e-06,-4.47888e-06,1.02785e-05,-4.5151e-06,3.17771e-05,1.03977e-05,0
-3.10823e-05,1.25846e-06,-9.83219e-06,-2.98836e-06,1.03511e-05,-6.44649e-06,3.11581e-05,9.37182e-06,0
-3.24193e-05,-3.12884e-06,-9.99905e-06,-3.19996e-06,1.02873e-05,-4.40955e-06,2.92202e-05,7.59349e-06,0
-3.27032e-05,-5.6591e-06,-9.26165e-06,-5.58459e-06,1.01973e-05,-2.99086e-06,2.64049e-05,6.49257e-06,0
-3.13283e-05,-7.04494e-06,-9.96683e-06,-1.02146e-05,1.02836e-05,-4.14925e-06,2.29129e-05,5.9257e-06,0
-3.06831e-05,-6.02278e-06,-1.22389e-05,-1.57786e-05,1.03514e-05,-6.61361e-06,2.0519e-05,5.241e-06,0
-3.01977e-05,-1.8945e-06,-1.20011e-05,-2.08086e-05,1.09971e-05,-8.74213e-06,2.03038e-05,5.30538e-06,0
-2.83429e-05,-2.45826e-07,-1.10514e-05,-1.98548e-05,1.23287e-05,-9.5439e-06,1.95283e-05,5.03306e-06,0
-2.76004e-05,-2.50143e-06,-9.57624e-06,-1.47028e-05,1.12221e-05,-9.5651e-06,1.76371e-05,3.99126e-06,0
-2.81575e-05,-2.73469e-06,-7.85552e-06,-1.30846e-05,7.65702e-06,-9.8092e-06,1.49708e-05,2.73737e-06,0
-2.78313e-05,-2.74251e-07,-7.03426e-06,-1.44679e-05,5.54113e-06,-9.01263e-06,1.14707e-05,1.6214e-06,0
-2.75443e-05,2.23504e-06,-7.29761e-06,-1.5272e-05,5.37945e-06,-7.0572e-06,8.16808e-06,1.32066e-06,0
-2.78663e-05,4.73885e-06,-8.17089e-06,-1.43638e-05,7.85388e-06,-6.07702e-06,4.7283e-06,1.6441e-07,0
-2.90617e-05,5.94756e-06,-8.89015e-06,-1.18546e-05,1.00578e-05,-6.16477e-06,1.74997e-06,-1.92577e-06,0
-3.06671e-05,4.15278e-06,-1.06387e-05,-7.90714e-06,9.49162e-06,-6.32199e-06,9.8544e-07,-1.99004e-06,0
-3.1221e-05,1.29469e-06,-1.21964e-05,-5.3939e-06,6.48039e-06,-5.99162e-06,2.50477e-06,8.04536e-07,0
-3.05321e-05,-9.79244e-07,-1.10256e-05,-5.31753e-06,4.15622e-06,-6.48923e-06,4.42961e-06,2.36176e-06,0
-2.93565e-05,-1.23137e-06,-7.63994e-06,-5.22512e-06,5.71789e-06,-7.39746e-06,5.69818e-06,2.43412e-06,0
-2.88082e-05,6.1207e-07,-5.17587e-06,-2.56028e-06,8.89974e-06,-7.55571e-06,6.51885e-06,1.97542e-06,0
-2.81244e-05,1.23083e-06,-5.52246e-06,1.906e-06,1.03163e-05,-7.18703e-06,8.15554e-06,1.14713e-06,0
-2.69891e-05,-4.85399e-07,-8.03735e-06,5.66878e-06,8.63722e-06,-7.39947e-06,1.17084e-05,5.61134e-07,0
-2.62355e-05,-2.78237e-06,-1.0706e-05,7.88435e-06,5.65355e-06,-9.05121e-06,1.53106e-05,7.96424e-08,0
-2.61913e-05,-4.07896e-06,-1.23703e-05,8.27205e-06,3.56337e-06,-1.006e-05,1.64926e-05,-4.6393e-07,0
-2.64392e-05,-4.76119e-06,-1.24715e-05,6.70841e-06,3.99961e-06,-8.64862e-06,1.55955e-05,-1.05146e-06,0
-2.62045e-05,-5.02899e-06,-1.10199e-05,2.77843e-06,5.76265e-06,-6.64983e-06,1.48676e-05,-1.45895e-06,0
-2.6028e-05,-5.2639e-06,-8.18284e-06,-3.12674e-06,8.1308e-06,-5.51109e-06,1.54719e-05,-1.5545e-06,0
-2.74892e-05,-4.14943e-06,-5.19984e-06,-9.82046e-06,1.07463e-05,-4.30799e-06,1.62234e-05,-1.43867e-06,0
-3.001e-05,-1.89764e-06,-4.88444e-06,-1.56854e-05,1.30445e-05,-4.34859e-06,1.73161e-05,-1.69291e-06,0
-3.14559e-05,2.72888e-07,-7.74695e-06,-1.97284e-05,1.53408e-05,-5.38548e-06,1.87442e-05,-3.58176e-06,0
-3.10398e-05,1.77955e-06,-1.07893e-05,-1.97579e-05,1.87624e-05,-5.34444e-06,1.809e-05,-8.40697e-06,0
-2.90396e-05,2.09134e-06,-1.13916e-05,-1.43349e-05,2.24963e-05,-6.35932e-06,1.63214e-05,-1.33636e-05,0
-2.66194e-05,2.31492e-06,-1.17201e-05,-9.16116e-06,2.51859e-05,-7.97577e-06,1.56285e-05,-1.49435e-05,0
-2.5097e-05,3.11976e-06,-1.16263e-05,-7.64156e-06,2.63695e-05,-8.42082e-06,1.55944e-05,-1.37464e-05,0
-2.494e-05,6.25566e-06,-8.78813e-06,-6.11713e-06,2.6612e-05,-7.98208e-06,1.56228e-05,-1.19674e-05,0
-2.54582e-05,1.06686e-05,-5.96343e-06,-4.8889e-06,2.63538e-05,-6.73142e-06,1.6521e-05,-1.06565e-05,0
-2.68067e-05,1.1645e-05,-5.47427e-06,-4.50653e-06,2.45503e-05,-6.97742e-06,1.7965e-05,-9.78674e-06,0
-2.87109e-05,1.1242e-05,-6.08574e-06,-2.58762e-06,2.17019e-05,-6.60946e-06,1.81636e-05,-8.25596e-06,0
-2.91031e-05,1.26903e-05,-6.47357e-06,1.2167e-06,1.93571e-05,-6.1392e-06,1.72812e-05,-6.60788e-06,0
-2.92047e-05,1.34147e-05,-8.55649e-06,6.07263e-06,1.84982e-05,-7.41403e-06,1.60847e-05,-4.24891e-06,0
-2.98752e-05,1.01709e-05,-1.16343e-05,8.85565e-06,1.77285e-05,-8.48695e-06,1.56359e-05,-2.41438e-06,0
-3.04378e-05,6.2647e-06,-1.23277e-05,6.13035e-06,1.762e-05,-8.44234e-06,1.46169e-05,-3.46882e-06,0
-3.05762e-05,4.83111e-06,-1.16573e-05,-2.12499e-06,1.87128e-05,-8.17175e-06,1.22707e-05,-3.8786e-06,0
-2.97767e-05,4.574e-06,-1.3035e-05,-1.3987e-05,1.96045e-05,-9.45692e-06,1.07543e-05,-2.62092e-06,0
-2.92076e-05,3.8885e-06,-1.74177e-05,-2.47047e-05,1.92037e-05,-1.10472e-05,1.00577e-05,-1.59007e-06,0
-2.91882e-05,2.53341e-06,-2.07991e-05,-2.96316e-05,1.77083e-05,-1.15062e-05,8.99498e-06,-1.31449e-06,0
-2.98403e-05,2.61566e-06,-2.03823e-05,-2.8629e-05,1.59537e-05,-1.10225e-05,8.06096e-06,-2.21155e-06,0
-3.05874e-05,3.05116e-06,-1.74298e-05,-2.37611e-05,1.47905e-05,-9.38329e-06,8.32343e-06,-3.36648e-06,0
-3.04203e-05,3.08608e-06,-1.57995e-05,-1.7809e-05,1.4744e-05,-7.01738e-06,9.13909e-06,-3.19665e-06,0
-2.96222e-05,3.44971e-06,-1.53422e-05,-1.30718e-05,1.48615e-05,-6.14728e-06,1.00541e-05,-2.29295e-06,0
-2.96886e-05,4.97495e-06,-1.3423e-05,-9.5797e-06,1.45122e-05,-7.05215e-06,1.11937e-05,-2.0752e-06,0
-3.06528e-05,6.17283e-06,-9.99986e-06,-6.11925e-06,1.421e-05,-8.437e-06,1.17068e-05,-1.45433e-06,0
-3.1668e-05,7.16555e-06,-7.15308e-06,-2.90435e-06,1.54718e-05,-9.18215e-06,1.11122e-05,-3.01537e-07,0
-3.27117e-05,8.94369e-06,-5.94869e-06,1.23599e-06,1.76342e-05,-9.99007e-06,1.05845e-05,7.27532e-07,0
-3.31582e-05,9.32263e-06,-5.07904e-06,1.10023e-05,1.76876e-05,-1.17335e-05,1.08144e-05,1.19441e-06,0
-3.24008e-05,7.79786e-06,-5.21985e-06,2.59133e-05,1.49766e-05,-1.34317e-05,1.18824e-05,3.81594e-07,0
-3.18205e-05,7.9242e-06,-7.21525e-06,3.71559e-05,1.28504e-05,-1.32571e-05,1.29556e-05,-5.16742e-07,0
-3.27862e-05,9.35126e-06,-9.43283e-06,3.83039e-05,1.24145e-05,-1.26262e-05,1.26199e-05,-1.17694e-06,0
-3.49846e-05,9.33637e-06,-9.55215e-06,2.92556e-05,1.30667e-05,-1.40356e-05,1.19489e-05,-2.38412e-06,0
-3.69883e-05,9.99252e-06,-8.44351e-06,1.55432e-05,1.45475e-05,-1.58357e-05,1.21804e-05,-3.2841e-06,0
-3.67367e-05,1.31059e-05,-9.53433e-06,3.87239e-06,1.52465e-05,-1.57397e-05,1.20148e-05,-3.71331e-06,0
-3.57888e-05,1.59049e-05,-1.08836e-05,-5.48337e-06,1.36543e-05,-1.4547e-05,1.10186e-05,-3.42624e-06,0
-3.58546e-05,1.5192e-05,-9.31699e-06,-1.46044e-05,9.2627e-06,-1.47412e-05,1.05598e-05,-2.48087e-06,0
-3.62176e-05,1.57824e-05,-6.639e-06,-2.43916e-05,4.23926e-06,-1.50753e-05,1.00913e-05,-2.81359e-06,0
-3.51699e-05,1.92543e-05,-3.9676e-06,-3.47774e-05,1.93854e-06,-1.38628e-05,8.70991e-06,-3.35868e-06,0
-3.21237e-05,2.27127e-05,-2.73877e-06,-4.52082e-05,4.25869e-06,-1.18922e-05,6.67063e-06,-3.33979e-06,0
-3.00079e-05,2.51138e-05,-2.27219e-06,-4.99409e-05,7.48132e-06,-9.63004e-06,4.43721e-06,-2.46214e-06,0
-3.11243e-05,2.36958e-05,-2.48219e-06,-4.33687e-05,8.79755e-06,-7.72411e-06,3.04813e-06,-1.38418e-06,0
-3.21313e-05,2.00203e-05,-2.34035e-06,-2.64276e-05,1.07168e-05,-6.85736e-06,2.35207e-06,-8.7339e-07,0
-3.0998e-05,1.7588e-05,-9.57448e-07,-5.38321e-06,1.3425e-05,-8.18432e-06,1.40119e-06,-1.70754e-06,0
-2.95545e-05,1.54723e-05,-5.86841e-08,9.36403e-06,1.41014e-05,-9.41397e-06,1.60555e-06,-1.70566e-06,0
-2.82178e-05,1.27255e-05,-1.55628e-07,1.21996e-05,1.37964e-05,-9.43199e-06,3.9918e-06,9.25793e-07,0
-2.77023e-05,1.11565e-05,-1.18843e-06,6.21752e-06,1.48708e-05,-1.02507e-05,5.62353e-06,4.36291e-06,0
-2.76159e-05,1.19812e-05,-1.9071e-06,-7.24966e-07,1.63689e-05,-1.25033e-05,5.26102e-06,7.51013e-06,0
-2.73149e-05,1.48094e-05,-1.67549e-06,-4.30422e-06,1.63564e-05,-1.49251e-05,4.47163e-06,8.74373e-06,0
-2.73611e-05,1.79077e-05,-1.36765e-06,-4.44585e-06,1.43641e-05,-1.59395e-05,5.20613e-06,8.28203e-06,0
-2.80148e-05,2.00406e-05,-1.85288e-06,-4.27049e-06,1.26668e-05,-1.64819e-05,6.93398e-06,7.16312e-06,0
-2.88213e-05,2.15101e-05,-2.33669e-06,-4.73982e-06,1.19685e-05,-1.68624e-05,7.87152e-06,7.32591e-06,0
-3.01388e-05,2.22876e-05,-3.17708e-06,-5.37058e-06,1.20212e-05,-1.72833e-05,8.92587e-06,7.65003e-06,0
-3.18955e-05,2.25377e-05,-4.27235e-06,-7.49982e-06,1.2706e-05,-1.75852e-05,1.10694e-05,6.69307e-06,0
-3.33636e-05,2.35261e-05,-4.35753e-06,-1.0473e-05,1.37869e-05,-1.72089e-05,1.35575e-05,4.53935e-06,0
-3.36653e-05,2.61724e-05,-4.31744e-06,-1.09541e-05,1.5929e-05,-1.55259e-05,1.57866e-05,2.25096e-06,0
-3.2773e-05,2.97855e-05,-5.7147e-06,-8.18406e-06,1.85232e-05,-1.36966e-05,1.66386e-05,1.03243e-06,0
-3.14645e-05,3.32165e-05,-7.21238e-06,-6.80205e-06,1.86155e-05,-1.2386e-05,1.536e-05,2.19034e-06,0
-3.06979e-05,3.52107e-05,-7.86429e-06,-8.43969e-06,1.59091e-05,-1.20627e-05,1.34498e-05,4.15776e-06,0
-3.11567e-05,3.48604e-05,-9.13206e-06,-1.05316e-05,1.32603e-05,-1.17008e-05,1.20218e-05,6.08472e-06,0
-3.21087e-05,3.38886e-05,-1.32019e-05,-1.13624e-05,1.17877e-05,-1.08563e-05,1.25503e-05,6.90805e-06,0
-3.30623e-05,3.40634e-05,-2.01624e-05,-1.11598e-05,1.06798e-05,-1.08012e-05,1.41131e-05,4.33253e-06,0
-3.30762e-05,3.32664e-05,-2.79258e-05,-9.78078e-06,9.5287e-06,-9.87893e-06,1.54814e-05,2.68531e-06,0
-3.27886e-05,3.15856e-05,-3.15685e-05,-7.55475e-06,9.0364e-06,-8.43163e-06,1.6507e-05,3.87231e-06,0
-3.24497e-05,2.97742e-05,-3.09386e-05,-3.86699e-06,1.08647e-05,-8.11639e-06,1.64125e-05,4.65092e-06,0
-3.12755e-05,2.70101e-05,-2.66326e-05,2.64853e-07,1.44804e-05,-9.27869e-06,1.5719e-05,4.41858e-06,0
-2.89968e-05,2.38288e-05,-1.92385e-05,2.21397e-06,1.56033e-05,-1.03554e-05,1.58238e-05,5.54554e-06,0
-2.88892e-05,1.99192e-05,-1.53873e-05,3.65173e-06,1.38459e-05,-1.03765e-05,1.55533e-05,5.72895e-06,0
-3.02196e-05,1.63779e-05,-1.47516e-05,5.1783e-06,1.14819e-05,-9.55649e-06,1.52767e-05,3.84644e-06,0
-3.04916e-05,1.52845e-05,-1.58093e-05,3.91474e-06,9.63152e-06,-8.78248e-06,1.6652e-05,3.42462e-06,0
-3.10013e-05,1.49272e-05,-1.71014e-05,-2.14545e-09,9.91973e-06,-8.46144e-06,1.73269e-05,4.947e-06,0
-3.03608e-05,1.38997e-05,-1.79096e-05,-4.41341e-06,1.07336e-05,-8.38245e-06,1.72588e-05,5.71676e-06,0
-2.89252e-05,1.3695e-05,-1.63447e-05,-6.3767e-06,1.13115e-05,-7.80141e-06,1.72246e-05,5.88039e-06,0
-2.82361e-05,1.40166e-05,-1.27825e-05,-4.84751e-06,1.27696e-05,-6.12382e-06,1.65336e-05,5.23282e-06,0
-2.87916e-05,1.34165e-05,-1.03772e-05,-1.94517e-06,1.3368e-05,-3.52313e-06,1.53377e-05,3.8932e-06,0
-2.85266e-05,1.27289e-05,-8.98936e-06,2.0644e-06,1.19495e-05,-1.10392e-06,1.43204e-05,2.22928e-06,0
-2.76187e-05,1.44994e-05,-8.75211e-06,6.32048e-06,1.00587e-05,-5.53437e-07,1.47264e-05,1.16377e-06,0
-2.71386e-05,1.74046e-05,-8.10597e-06,8.74101e-06,9.19674e-06,-1.11507e-06,1.62569e-05,2.45433e-06,0
-2.67937e-05,1.87092e-05,-6.73079e-06,8.15477e-06,8.88003e-06,-2.337e-06,1.65698e-05,3.56586e-06,0
-2.70057e-05,1.91337e-05,-6.02871e-06,6.88027e-06,8.75203e-06,-4.0583e-06,1.52236e-05,2.77786e-06,0
-2.86989e-05,1.96072e-05,-6.16114e-06,7.67995e-06,9.22716e-06,-5.27269e-06,1.36167e-05,1.26236e-06,0
-2.99756e-05,2.06157e-05,-5.38141e-06,8.14546e-06,1.02981e-05,-5.61544e-06,1.32851e-05,2.33912e-07,0
-2.9037e-05,2.23465e-05,-3.68425e-06,4.74122e-06,1.2012e-05,-6.09486e-06,1.48734e-05,-4.47539e-07,0
-2.7995e-05,2.38598e-05,-2.20772e-06,-1.1356e-06,1.42621e-05,-7.07975e-06,1.72624e-05,7.34725e-07,0
-2.75859e-05,2.37104e-05,-2.53526e-06,-4.76726e-06,1.51171e-05,-7.86957e-06,1.88196e-05,2.08253e-06,0
-2.80806e-05,2.13601e-05,-4.65778e-06,-4.93325e-06,1.50103e-05,-8.9131e-06,1.92856e-05,1.53317e-06,0
-2.99036e-05,1.95125e-05,-6.55649e-06,-4.68061e-06,1.57394e-05,-1.11013e-05,1.92557e-05,1.18989e-06,0
-3.14115e-05,1.81701e-05,-5.64282e-06,-5.00704e-06,1.77575e-05,-1.24116e-05,1.87303e-05,2.90344e-06,0
-3.15194e-05,1.74915e-05,-3.65986e-06,-4.75938e-06,1.93154e-05,-1.18316e-05,1.87007e-05,5.79689e-06,0
-3.17191e-05,1.82757e-05,-3.42237e-06,-3.42293e-06,1.80644e-05,-1.11375e-05,1.80567e-05,8.29284e-06,0
-3.18615e-05,1.80514e-05,-4.91539e-06,-3.5274e-06,1.65195e-05,-1.16871e-05,1.74516e-05,9.30039e-06,0
-3.24122e-05,1.62509e-05,-5.38083e-06,-5.7448e-06,1.55539e-05,-1.28302e-05,2.00393e-05,7.89084e-06,0
-3.22732e-05,1.61683e-05,-4.81364e-06,-7.22201e-06,1.35593e-05,-1.11067e-05,2.41988e-05,6.18595e-06,0
-3.21741e-05,1.75756e-05,-5.41505e-06,-8.81142e-06,1.12066e-05,-8.25761e-06,2.67406e-05,6.27708e-06,0
-3.34129e-05,1.68601e-05,-7.65581e-06,-1.02213e-05,1.02155e-05,-6.90076e-06,2.47638e-05,6.6597e-06,0
-3.27984e-05,1.76562e-05,-1.25114e-05,-1.14571e-05,1.07384e-05,-6.26613e-06,2.06287e-05,6.35492e-06,0
-3.01761e-05,1.88562e-05,-1.75023e-05,-1.05804e-05,1.10084e-05,-5.93198e-06,1.67709e-05,6.52755e-06,0
-2.78826e-05,1.8684e-05,-1.96482e-05,-8.39246e-06,1.07962e-05,-6.52503e-06,1.1541e-05,6.33372e-06,0
-2.78134e-05,1.92401e-05,-1.80821e-05,-8.88491e-06,1.04594e-05,-8.23594e-06,7.71261e-06,5.1996e-06,0
-2.87671e-05,2.08255e-05,-1.60624e-05,-9.22007e-06,1.13591e-05,-9.74168e-06,6.75243e-06,4.13782e-06,0
-2.82018e-05,2.26327e-05,-1.44524e-05,-7.4234e-06,1.29485e-05,-1.02968e-05,5.86356e-06,4.78199e-06,0
-2.68263e-05,2.3039e-05,-1.3349e-05,-5.92522e-06,1.40266e-05,-9.18451e-06,4.9023e-06,5.39596e-06,0
-2.67524e-05,2.23263e-05,-1.28292e-05,-6.83762e-06,1.57608e-05,-7.84251e-06,4.11097e-06,4.1969e-06,0
-2.86927e-05,1.98583e-05,-1.18809e-05,-8.51693e-06,1.74968e-05,-6.27231e-06,2.47428e-06,2.63718e-06,0
-3.12209e-05,1.70533e-05,-1.04582e-05,-9.54667e-06,1.75672e-05,-4.57903e-06,2.4088e-07,2.51681e-06,0
-3.21443e-05,1.50993e-05,-8.47682e-06,-8.69879e-06,1.67439e-05,-3.50371e-06,-2.78224e-07,3.40468e-06,0
-3.09145e-05,1.27049e-05,-6.17106e-06,-6.18212e-06,1.61589e-05,-3.32248e-06,2.63582e-06,4.18297e-06,0
-2.96317e-05,9.23905e-06,-3.82293e-06,-4.36757e-06,1.44268e-05,-4.70382e-06,6.64222e-06,5.3572e-06,0
-3.00254e-05,6.12483e-06,-2.90125e-06,-4.76067e-06,1.15786e-05,-6.71364e-06,7.27205e-06,6.22917e-06,0
-3.1269e-05,3.30629e-06,-3.62255e-06,-5.66216e-06,8.82812e-06,-7.35849e-06,3.13824e-06,6.20075e-06,0
-3.18099e-05,1.6516e-06,-3.29974e-06,-5.11435e-06,7.72169e-06,-7.10698e-06,-1.64058e-06,6.48537e-06,0
-3.13601e-05,1.91719e-07,-1.47552e-06,-4.97824e-06,8.14595e-06,-8.44552e-06,-2.642e-06,7.25425e-06,0
-3.0847e-05,-2.30295e-06,-1.48113e-06,-6.00733e-06,9.74247e-06,-1.04098e-05,1.2635e-06,5.79726e-06,0
-3.03086e-05,-3.93153e-06,-2.18132e-06,-6.48324e-06,1.25194e-05,-1.08248e-05,6.94837e-06,3.295e-06,0
-2.92081e-05,-3.40598e-06,-2.25283e-06,-5.75741e-06,1.32911e-05,-1.02218e-05,1.22225e-05,2.51265e-06,0
-2.90499e-05,-1.97658e-06,-3.16868e-06,-4.77537e-06,1.33799e-05,-1.03984e-05,1.66041e-05,2.96759e-06,0
-3.09688e-05,-1.3532e-06,-6.10344e-06,-3.13202e-06,1.59525e-05,-1.11003e-05,1.95584e-05,1.56262e-06,0
-3.28722e-05,-2.35685e-06,-7.95619e-06,-1.58065e-06,1.82609e-05,-1.18847e-05,2.11905e-05,-7.15158e-07,0
-3.39132e-05,-5.58245e-06,-6.65048e-06,-2.00326e-06,1.82916e-05,-1.19252e-05,2.12379e-05,-1.88196e-06,0
-3.3644e-05,-6.31623e-06,-5.53723e-06,-3.25371e-06,1.66878e-05,-1.19046e-05,1.99964e-05,-2.07712e-06,0
-3.11858e-05,-2.71793e-06,-6.16594e-06,-4.6387e-06,1.53388e-05,-1.19338e-05,1.85854e-05,-1.00682e-06,0
-2.90628e-05,2.59543e-07,-8.23447e-06,-4.02357e-06,1.49827e-05,-1.10071e-05,1.65875e-05,-1.74761e-07,0
-2.85039e-05,-1.53092e-06,-1.0065e-05,-1.10886e-06,1.68446e-05,-1.10111e-05,1.52717e-05,-1.13278e-06,0
-2.84343e-05,-3.47624e-06,-9.39703e-06,9.02217e-07,2.14316e-05,-1.19481e-05,1.49759e-05,-2.33116e-06,0
-2.96256e-05,-2.27026e-06,-7.06397e-06,1.95243e-06,2.46359e-05,-1.14579e-05,1.43874e-05,7.91586e-08,0
-3.17254e-05,-8.25516e-07,-5.11179e-06,1.80851e-06,2.38697e-05,-1.06009e-05,1.4603e-05,2.50697e-06,0
-3.22448e-05,-1.46895e-06,-2.84143e-06,1.14577e-06,2.32615e-05,-1.06655e-05,1.41289e-05,8.46673e-07,0
-3.0545e-05,-2.54292e-06,-1.25298e-06,-6.1653e-07,2.63688e-05,-1.18194e-05,1.28752e-05,-3.04457e-06,0
-2.86905e-05,-2.28601e-06,-5.47458e-07,-2.98297e-06,2.85365e-05,-1.24575e-05,1.19034e-05,-3.93754e-06,0
-2.75118e-05,-1.22535e-06,-8.10526e-08,-2.55351e-06,2.63926e-05,-1.22275e-05,1.19151e-05,-2.93701e-06,0
-2.76187e-05,-7.33014e-07,-4.80286e-07,6.77065e-07,2.12173e-05,-1.25441e-05,1.20636e-05,-3.86571e-06,0
-2.94095e-05,-1.43867e-06,-1.79375e-06,3.02185e-06,1.47868e-05,-1.31827e-05,1.22207e-05,-6.18808e-06,0
-3.09856e-05,-1.96395e-06,-3.38699e-06,1.62428e-06,8.35666e-06,-1.37749e-05,1.22906e-05,-7.99524e-06,0
-3.05027e-05,-2.01724e-06,-3.75041e-06,-2.02289e-06,3.28082e-06,-1.3599e-05,1.21618e-05,-8.35607e-06,0
-2.96595e-05,-5.87994e-07,-2.2891e-06,-5.20565e-06,-2.9485e-07,-1.33045e-05,1.20005e-05,-9.49491e-06,0
-3.16931e-05,1.84862e-06,2.10086e-08,-6.07282e-06,-2.34487e-06,-1.30195e-05,1.14481e-05,-1.12082e-05,0
-3.45454e-05,4.67247e-06,1.06816e-06,-3.9613e-06,-1.50471e-06,-1.249e-05,1.06766e-05,-1.04005e-05,0
-3.49637e-05,6.00672e-06,-6.28143e-07,-4.37981e-08,1.8323e-06,-1.22156e-05,8.81674e-06,-7.2707e-06,0
-3.40297e-05,5.89909e-06,-4.06756e-06,2.35051e-06,5.05604e-06,-1.2379e-05,8.00454e-06,-6.16597e-06,0
-3.30956e-05,5.91548e-06,-5.6603e-06,-4.16685e-08,6.91319e-06,-1.17125e-05,1.01935e-05,-7.33594e-06,0
-3.07841e-05,6.34026e-06,-4.54909e-06,-6.16538e-06,7.26098e-06,-1.00518e-05,1.18257e-05,-7.87143e-06,0
-2.91197e-05,6.5552e-06,-3.91426e-06,-1.1829e-05,6.44198e-06,-8.89773e-06,1.12658e-05,-7.33012e-06,0
-2.92691e-05,6.38866e-06,-6.19523e-06,-1.64579e-05,4.83961e-06,-9.48293e-06,1.18212e-05,-5.9357e-06,0
-2.80682e-05,7.05475e-06,-9.02036e-06,-2.09058e-05,2.78499e-06,-1.01898e-05,1.28194e-05,-3.18242e-06,0
-2.70339e-05,6.68748e-06,-9.92511e-06,-2.32279e-05,2.46759e-06,-1.0271e-05,1.51097e-05,-2.7444e-06,0
-2.70497e-05,4.64819e-06,-9.35997e-06,-2.20775e-05,5.1003e-06,-1.11066e-05,1.74363e-05,-3.21378e-06,0
-2.7729e-05,1.48052e-06,-9.65842e-06,-1.92464e-05,7.21575e-06,-1.24157e-05,1.76272e-05,-2.8899e-06,0
-2.7931e-05,-2.52481e-06,-1.14266e-05,-1.49755e-05,5.92047e-06,-1.19111e-05,1.61091e-05,-3.68708e-06,0
-2.72227e-05,-3.47443e-06,-1.29048e-05,-8.77181e-06,4.35087e-06,-9.89589e-06,1.47812e-05,-4.8984e-06,0
-2.7148e-05,-8.06711e-07,-1.30909e-05,-3.39945e-06,3.78719e-06,-8.92422e-06,1.45617e-05,-4.28886e-06,0
-2.65616e-05,2.51824e-06,-1.20524e-05,1.16988e-07,4.20818e-06,-9.94896e-06,8.27607e-06,-2.01748e-06,0
-2.5965e-05,5.11264e-06,-1.0876e-05,1.63804e-06,3.02885e-06,-1.23874e-05,-4.06085e-06,2.91696e-07,0
-2.59296e-05,7.74949e-06,-9.64298e-06,-1.87858e-07,1.05504e-06,-1.44015e-05,-1.24147e-05,1.91209e-06,0
-2.78502e-05,9.03276e-06,-7.32144e-06,-4.79856e-06,2.11625e-06,-1.47662e-05,-1.13746e-05,1.25851e-06,0
-3.00033e-05,7.80101e-06,-3.37128e-06,-1.20552e-05,6.29335e-06,-1.45856e-05,-4.25538e-06,2.72036e-07,0
-2.95983e-05,5.27327e-06,1.58139e-06,-2.44696e-05,1.12761e-05,-1.50803e-05,4.85124e-06,2.08586e-07,0
-2.87118e-05,3.24043e-06,9.44469e-06,-3.83845e-05,1.38914e-05,-1.64358e-05,1.44705e-05,3.79293e-07,0
-3.00152e-05,2.6614e-06,2.31836e-05,-4.67343e-05,1.33599e-05,-1.80868e-05,2.3167e-05,2.23383e-07,0
-3.23398e-05,2.17733e-06,4.30186e-05,-4.78331e-05,1.0824e-05,-1.86433e-05,2.71599e-05,8.856e-07,0
-3.27675e-05,2.52449e-06,6.34464e-05,-4.50762e-05,9.84387e-06,-1.80066e-05,2.29298e-05,1.51076e-06,0
-3.13707e-05,5.82727e-06,7.39928e-05,-4.44288e-05,1.05723e-05,-1.61789e-05,1.38567e-05,2.84275e-07,0
-2.98831e-05,1.10438e-05,6.59892e-05,-4.42916e-05,1.06089e-05,-1.39043e-05,7.31586e-06,-2.08206e-06,0
-3.01668e-05,1.25834e-05,3.75721e-05,-3.53745e-05,9.86091e-06,-1.23229e-05,6.51925e-06,-4.11847e-06,0
-3.2102e-05,9.97345e-06,-4.44672e-06,-1.31389e-05,1.0939e-05,-1.17992e-05,1.08763e-05,-5.59346e-06,0
-3.42685e-05,6.79157e-06,-4.73683e-05,1.60949e-05,1.25579e-05,-1.12944e-05,1.84203e-05,-4.00784e-06,0
-3.50882e-05,4.20587e-06,-7.96569e-05,4.07577e-05,1.1576e-05,-1.12556e-05,2.58776e-05,-1.32284e-06,0
-3.49331e-05,2.70316e-06,-9.39123e-05,5.26043e-05,1.02396e-05,-1.15745e-05,3.13391e-05,-1.84408e-06,0
-3.39939e-05,2.91902e-06,-9.09114e-05,5.09332e-05,1.23878e-05,-1.14644e-05,3.44846e-05,-2.77228e-06,0
-3.30394e-05,3.87827e-06,-7.76815e-05,3.92291e-05,1.45874e-05,-1.03556e-05,3.4501e-05,-2.51359e-06,0
-3.27876e-05,5.92622e-06,-6.31198e-05,2.38058e-05,1.41668e-05,-8.95181e-06,3.22542e-05,-3.11323e-06,0
-3.30973e-05,7.26493e-06,-5.16813e-05,1.12843e-05,1.33634e-05,-7.2106e-06,3.10761e-05,-3.68639e-06,0
-3.26825e-05,7.43966e-06,-4.28831e-05,5.84316e-06,1.37016e-05,-5.56615e-06,3.01158e-05,-2.61179e-06,0
-3.09352e-05,8.89968e-06,-3.38038e-05,5.12146e-06,1.30789e-05,-5.56157e-06,2.73206e-05,-9.5277e-07,0
-2.99266e-05,1.02238e-05,-2.2554e-05,2.06282e-06,9.98941e-06,-7.10527e-06,2.36224e-05,4.30318e-07,0
-2.94199e-05,1.1127e-05,-1.36853e-05,-1.12157e-06,8.22085e-06,-7.85263e-06,1.99299e-05,6.96097e-07,0
-3.11593e-05,1.20493e-05,-8.62399e-06,4.13137e-07,8.29449e-06,-6.45843e-06,1.6535e-05,-2.20656e-07,0
-3.25086e-05,1.24807e-05,-6.29884e-06,4.88224e-06,8.64368e-06,-6.77393e-06,1.43068e-05,-1.65236e-06,0
-3.02049e-05,1.25969e-05,-5.93506e-06,7.12942e-06,7.69245e-06,-7.80925e-06,1.28248e-05,-2.40541e-06,0
-2.78064e-05,1.29717e-05,-8.03408e-06,7.22974e-06,7.17121e-06,-8.43642e-06,1.12162e-05,-2.36026e-06,0
-2.71663e-05,1.42009e-05,-9.58382e-06,7.44525e-06,7.62642e-06,-8.84827e-06,9.55022e-06,-1.01985e-06,0
-2.75745e-05,1.61876e-05,-9.08774e-06,7.26588e-06,9.07652e-06,-9.31638e-06,8.9328e-06,6.12256e-09,0
-2.74287e-05,1.86039e-05,-7.67895e-06,5.04053e-06,1.0803e-05,-9.27297e-06,9.44815e-06,1.72889e-06,0
-2.68216e-05,2.05288e-05,-6.37475e-06,-1.00299e-07,1.07384e-05,-8.85334e-06,8.99917e-06,4.50681e-06,0
-2.60638e-05,2.11997e-05,-6.7829e-06,-5.7402e-06,1.06368e-05,-8.22993e-06,7.63934e-06,6.8692e-06,0
-2.65446e-05,2.13335e-05,-8.26227e-06,-1.00606e-05,1.13592e-05,-6.01296e-06,5.89203e-06,7.00492e-06,0
-2.94454e-05,2.16055e-05,-9.18164e-06,-1.24692e-05,1.13908e-05,-4.53358e-06,4.84029e-06,3.97456e-06,0
-3.26057e-05,2.26391e-05,-9.16779e-06,-1.30212e-05,1.11145e-05,-4.70523e-06,4.62655e-06,9.44744e-07,0
-3.30021e-05,2.43153e-05,-9.09026e-06,-1.07016e-05,1.32995e-05,-4.49461e-06,4.09507e-06,4.74312e-07,0
-3.17999e-05,2.66035e-05,-7.99895e-06,-6.91873e-06,1.5817e-05,-3.53696e-06,2.6937e-06,1.80597e-06,0
-3.1593e-05,2.8143e-05,-5.90233e-06,-4.68833e-06,1.57968e-05,-3.48432e-06,1.47065e-06,1.18638e-06,0
-3.22205e-05,2.67693e-05,-3.37817e-06,-4.41911e-06,1.41496e-05,-4.42234e-06,1.17402e-06,-9.91556e-07,0
-3.25033e-05,2.33345e-05,-3.61085e-06,-2.85774e-06,1.36085e-05,-6.05236e-06,1.29366e-06,-1.88906e-06,0
-3.16584e-05,2.08309e-05,-5.50995e-06,4.77182e-07,1.41824e-05,-7.12499e-06,1.85299e-06,-6.98158e-07,0
-2.9273e-05,2.08473e-05,-6.15254e-06,4.41003e-06,1.48191e-05,-7.2879e-06,2.40085e-06,4.70445e-07,0
-2.70853e-05,2.23247e-05,-5.70425e-06,9.02971e-06,1.69894e-05,-7.10582e-06,2.94839e-06,1.17224e-06,0
-2.72807e-05,2.32189e-05,-6.3955e-06,1.07293e-05,2.02696e-05,-6.63956e-06,4.44608e-06,1.18218e-06,0
-2.7426e-05,2.28208e-05,-7.56218e-06,5.84772e-06,2.39185e-05,-5.8831e-06,6.39191e-06,1.16358e-06,0
-2.67571e-05,2.25361e-05,-7.82003e-06,-4.11789e-06,2.65891e-05,-5.58521e-06,8.03541e-06,5.06569e-07,0
-2.70292e-05,2.38036e-05,-8.73334e-06,-1.09524e-05,2.72977e-05,-5.90624e-06,9.16811e-06,1.5093e-06,0
-2.91985e-05,2.48808e-05,-1.05086e-05,-1.21929e-05,2.53568e-05,-5.23743e-06,1.05117e-05,3.7518e-06,0
-3.12749e-05,2.43033e-05,-1.15714e-05,-1.18746e-05,2.23837e-05,-1.99669e-06,1.15917e-05,3.08697e-06,0
-3.09961e-05,2.46946e-05,-1.02377e-05,-9.26047e-06,2.14897e-05,7.22761e-07,1.13884e-05,2.07517e-06,0
-3.06164e-05,2.53816e-05,-7.70725e-06,-4.12328e-06,2.12857e-05,1.18488e-06,1.045e-05,2.25723e-06,0
-3.11119e-05,2.32215e-05,-6.95437e-06,6.00421e-07,2.09066e-05,3.26211e-07,8.36684e-06,3.77028e-06,0
-3.06947e-05,2.09995e-05,-6.23719e-06,3.87537e-06,2.02902e-05,-1.59393e-06,6.3554e-06,4.74251e-06,0
-2.91853e-05,2.0189e-05,-2.27164e-06,5.70513e-06,1.96597e-05,-3.44918e-06,4.87541e-06,5.22237e-06,0
-2.80299e-05,2.02303e-05,9.38079e-07,6.22242e-06,1.83619e-05,-5.08217e-06,4.63022e-06,6.14393e-06,0
-2.78025e-05,1.98152e-05,2.16066e-07,5.34184e-06,1.67134e-05,-6.05025e-06,5.31386e-06,6.9679e-06,0
-2.76767e-05,1.92483e-05,-2.30872e-06,2.9566e-06,1.57101e-05,-5.67183e-06,5.55966e-06,7.81792e-06,0
-2.80828e-05,2.02663e-05,-2.55708e-06,-7.94374e-07,1.51921e-05,-4.06853e-06,5.35205e-06,7.22728e-06,0
-2.85344e-05,2.16216e-05,-1.0764e-06,-6.1147e-06,1.53901e-05,-4.00056e-06,5.95374e-06,4.42062e-06,0
-2.85951e-05,2.13387e-05,-6.15737e-07,-1.29228e-05,1.64302e-05,-5.57776e-06,7.47606e-06,1.03673e-06,0
-2.93142e-05,1.85341e-05,-1.80825e-06,-1.98468e-05,1.76617e-05,-6.673e-06,9.91341e-06,-1.77036e-06,0
-3.08674e-05,1.50808e-05,-2.54525e-06,-2.4779e-05,1.8357e-05,-6.69827e-06,1.26579e-05,-4.40556e-06,0
-3.14302e-05,1.21486e-05,-2.6389e-06,-2.70609e-05,1.84072e-05,-6.36541e-06,1.46807e-05,-6.4941e-06,0
-2.93649e-05,9.46668e-06,-3.20448e-06,-2.78929e-05,1.80447e-05,-6.64676e-06,1.59253e-05,-6.57811e-06,0
-2.72178e-05,6.53218e-06,-3.75742e-06,-2.92039e-05,1.89964e-05,-7.85875e-06,1.57134e-05,-4.99316e-06,0
-2.75895e-05,4.85901e-06,-4.06219e-06,-2.88178e-05,2.05578e-05,-8.50074e-06,1.43848e-05,-4.20278e-06,0
-2.93989e-05,4.48549e-06,-3.15593e-06,-2.3492e-05,2.14965e-05,-9.56499e-06,1.16583e-05,-5.5969e-06,0
-3.13295e-05,4.44416e-06,-1.57211e-06,-1.59023e-05,2.24158e-05,-1.20708e-05,9.42699e-06,-7.47174e-06,0
-3.22776e-05,4.73857e-06,-2.57061e-06,-1.02726e-05,2.39538e-05,-1.40521e-05,9.7541e-06,-7.6666e-06,0
-3.12931e-05,5.54717e-06,-6.70821e-06,-8.0113e-06,2.65834e-05,-1.47231e-05,1.15232e-05,-6.7514e-06,0
-3.18567e-05,6.16072e-06,-8.84646e-06,-8.36996e-06,2.92316e-05,-1.40773e-05,1.48639e-05,-6.06633e-06,0
-3.32655e-05,4.31456e-06,-8.33961e-06,-8.11679e-06,2.9196e-05,-1.24786e-05,1.9322e-05,-4.09122e-06,0
-3.28013e-05,4.95612e-07,-8.68017e-06,-6.34229e-06,2.64463e-05,-1.13879e-05,2.23594e-05,-1.59762e-06,0
-3.38561e-05,-1.15832e-06,-1.10397e-05,-3.46736e-06,2.35707e-05,-1.16956e-05,2.3159e-05,-7.77036e-07,0
-3.55073e-05,-8.79817e-07,-1.28925e-05,-1.7297e-06,2.095e-05,-1.24152e-05,2.10895e-05,1.04847e-08,0
-3.39722e-05,7.42286e-07,-1.32486e-05,-4.91763e-06,1.80826e-05,-1.30289e-05,1.87498e-05,1.81728e-06,0
-3.14345e-05,4.15078e-06,-1.31379e-05,-7.37633e-06,1.61408e-05,-1.28581e-05,1.79645e-05,2.88186e-06,0
-3.09228e-05,7.98758e-06,-1.38561e-05,-7.66709e-06,1.3932e-05,-1.20532e-05,1.82174e-05,1.98609e-06,0
-3.13352e-05,1.11661e-05,-1.45972e-05,-7.58355e-06,1.26059e-05,-1.13737e-05,1.7989e-05,1.84999e-06,0
-3.0449e-05,1.15273e-05,-1.31164e-05,-5.9574e-06,1.26695e-05,-1.18575e-05,1.8443e-05,3.90206e-06,0
-2.89364e-05,9.74955e-06,-9.85419e-06,-4.40982e-06,1.23459e-05,-1.28923e-05,1.92868e-05,7.18316e-06,0
-2.79887e-05,7.73454e-06,-7.45724e-06,-3.88408e-06,1.08975e-05,-1.3441e-05,1.83923e-05,9.55435e-06,0
-2.78501e-05,8.16878e-06,-7.5362e-06,-3.93121e-06,9.04083e-06,-1.38696e-05,1.75535e-05,9.71285e-06,0
-2.88644e-05,8.96264e-06,-7.86814e-06,-1.99453e-06,8.75418e-06,-1.45028e-05,1.72559e-05,9.05962e-06,0
-2.95583e-05,7.14381e-06,-7.2952e-06,9.27239e-08,1.04031e-05,-1.57112e-05,1.71654e-05,8.89182e-06,0
-2.88801e-05,5.36254e-06,-6.25508e-06,1.3359e-07,1.36003e-05,-1.7031e-05,1.67862e-05,8.19788e-06,0
-2.92607e-05,5.73658e-06,-6.21269e-06,-9.44265e-07,1.55448e-05,-1.67019e-05,1.69048e-05,7.09196e-06,0
-3.2148e-05,8.06793e-06,-7.23715e-06,-8.94504e-07,1.43902e-05,-1.44823e-05,1.79202e-05,7.01012e-06,0
-3.43324e-05,1.07528e-05,-8.62913e-06,1.06324e-07,1.15572e-05,-1.24616e-05,1.94296e-05,7.08488e-06,0
-3.36576e-05,1.18709e-05,-9.38715e-06,1.03689e-06,1.11703e-05,-1.17099e-05,1.96707e-05,6.56426e-06,0
-3.21507e-05,1.18771e-05,-8.15788e-06,1.93453e-06,1.34216e-05,-1.25298e-05,1.81438e-05,5.33769e-06,0
-3.15603e-05,1.35767e-05,-4.91324e-06,3.73118e-06,1.41809e-05,-1.35673e-05,1.59207e-05,4.19536e-06,0
-3.20543e-05,1.65797e-05,-2.45263e-06,5.7355e-06,1.2184e-05,-1.37614e-05,1.3622e-05,3.92998e-06,0
-3.30786e-05,1.83488e-05,-3.85681e-06,5.76746e-06,1.0122e-05,-1.38165e-05,1.16335e-05,4.19177e-06,0
-3.35573e-05,1.8282e-05,-6.88241e-06,4.4514e-06,9.61376e-06,-1.237e-05,1.0775e-05,3.40826e-06,0
-3.43612e-05,1.75764e-05,-8.69955e-06,2.75839e-06,1.03764e-05,-1.12109e-05,1.1421e-05,2.17144e-06,0
-3.50331e-05,1.71013e-05,-8.3848e-06,1.45708e-06,1.1601e-05,-1.27247e-05,1.15547e-05,2.52349e-06,0
-3.43974e-05,1.64432e-05,-6.45121e-06,-3.88318e-07,1.18963e-05,-1.27535e-05,9.87629e-06,4.06232e-06,0
-3.29287e-05,1.73409e-05,-4.97265e-06,-1.78946e-06,1.0155e-05,-1.00746e-05,7.23596e-06,4.30731e-06,0
-3.10679e-05,2.04487e-05,-3.69437e-06,-4.35229e-06,7.50553e-06,-7.41459e-06,5.64729e-06,3.83201e-06,0
-2.92879e-05,2.15021e-05,-2.98933e-06,-9.4914e-06,7.51954e-06,-6.00163e-06,7.71827e-06,5.33157e-06,0
-2.78922e-05,2.05208e-05,-2.94092e-06,-1.26716e-05,1.04274e-05,-6.33094e-06,9.81359e-06,7.07798e-06,0
-2.66619e-05,2.03766e-05,-2.79463e-06,-1.19604e-05,1.18192e-05,-6.42256e-06,9.36213e-06,6.25198e-06,0
-2.56701e-05,1.92333e-05,-4.7629e-06,-1.03769e-05,1.15258e-05,-4.91938e-06,7.92356e-06,3.7365e-06,0
-2.56188e-05,1.67726e-05,-7.77315e-06,-9.26528e-06,1.0405e-05,-3.90211e-06,7.55516e-06,2.97862e-06,0
-2.59147e-05,1.43208e-05,-8.21721e-06,-8.07182e-06,7.85462e-06,-4.85363e-06,1.05078e-05,3.74632e-06,0
-2.61243e-05,1.20042e-05,-5.44475e-06,-7.18899e-06,6.67016e-06,-6.58719e-06,1.50397e-05,3.71184e-06,0
-2.64802e-05,9.15819e-06,-2.72577e-06,-6.17865e-06,7.64771e-06,-6.94768e-06,1.85e-05,3.32698e-06,0
-2.65234e-05,6.61237e-06,-2.84973e-06,-5.5793e-06,8.25507e-06,-6.96046e-06,1.90842e-05,3.80166e-06,0
-2.61561e-05,4.58419e-06,-4.68865e-06,-4.87379e-06,8.5369e-06,-7.67631e-06,1.9235e-05,5.72816e-06,0
-2.60244e-05,2.98281e-06,-7.18354e-06,-3.90186e-06,1.00783e-05,-9.03695e-06,1.92386e-05,7.28575e-06,0
-2.58614e-05,1.9441e-06,-1.03465e-05,-4.93934e-06,1.15357e-05,-1.09171e-05,1.84905e-05,7.43403e-06,0
-2.62478e-05,6.50261e-07,-1.31579e-05,-6.92251e-06,1.15097e-05,-1.1775e-05,1.62098e-05,6.18396e-06,0
-2.78645e-05,3.63823e-08,-1.58048e-05,-7.85466e-06,9.98297e-06,-1.12535e-05,1.19505e-05,5.66414e-06,0
-2.91024e-05,-2.89077e-08,-1.94627e-05,-8.41304e-06,7.89675e-06,-1.18575e-05,8.24546e-06,5.9325e-06,0
-2.86915e-05,-1.4494e-07,-2.28382e-05,-9.42128e-06,7.00981e-06,-1.45232e-05,6.11433e-06,4.58888e-06,0
-2.77829e-05,-3.93295e-07,-2.3705e-05,-9.60164e-06,8.61798e-06,-1.68801e-05,4.80475e-06,2.54216e-06,0
-2.73036e-05,1.65789e-07,-2.2169e-05,-7.64351e-06,1.01551e-05,-1.76608e-05,4.28467e-06,7.46341e-07,0
-2.66654e-05,9.40851e-07,-2.02738e-05,-5.29593e-06,8.67855e-06,-1.71575e-05,6.41194e-06,3.11404e-07,0
-2.66181e-05,4.05289e-07,-1.96932e-05,-4.42133e-06,5.78402e-06,-1.64389e-05,9.65398e-06,7.55926e-07,0
-2.78182e-05,-4.32133e-07,-2.15755e-05,-4.94587e-06,5.25364e-06,-1.55592e-05,1.14463e-05,2.75266e-07,0
-2.89859e-05,2.37035e-07,-2.52684e-05,-5.20294e-06,5.82965e-06,-1.49315e-05,1.15027e-05,-1.7176e-06,0
-2.89589e-05,3.03059e-06,-2.68415e-05,-4.74576e-06,4.81353e-06,-1.47962e-05,9.20905e-06,-2.2536e-06,0
-2.82555e-05,6.90539e-06,-2.50086e-05,-4.96541e-06,4.18615e-06,-1.47447e-05,6.16443e-06,5.02509e-07,0
-2.91617e-05,8.85912e-06,-2.25505e-05,-4.92079e-06,4.88207e-06,-1.32262e-05,4.40271e-06,3.97151e-06,0
-3.05847e-05,8.62411e-06,-2.05075e-05,-4.52372e-06,5.75409e-06,-1.06022e-05,4.33085e-06,5.12131e-06,0
-2.98415e-05,8.78626e-06,-1.75532e-05,-4.81404e-06,5.69403e-06,-9.15272e-06,7.83133e-06,5.65324e-06,0
-2.85451e-05,1.24012e-05,-1.29572e-05,-5.04016e-06,6.73695e-06,-1.01784e-05,1.30598e-05,6.96901e-06,0
-2.65049e-05,1.88546e-05,-7.93958e-06,-2.49716e-06,7.53208e-06,-1.14662e-05,1.53963e-05,6.44535e-06,0
-2.45777e-05,2.28135e-05,-4.28599e-06,2.98492e-06,6.85925e-06,-1.0346e-05,1.35409e-05,6.07823e-06,0
-2.49131e-05,2.36142e-05,-3.23159e-06,6.15763e-06,8.13244e-06,-7.77731e-06,1.10695e-05,5.62004e-06,0
-2.73806e-05,2.20989e-05,-2.78487e-06,4.06565e-06,8.87157e-06,-4.18827e-06,1.03017e-05,3.68096e-06,0
-2.99577e-05,1.89962e-05,-1.68161e-06,-4.19005e-07,8.11809e-06,-1.56347e-06,1.08828e-05,2.09609e-06,0
-2.99386e-05,1.74549e-05,-7.20608e-07,-2.77532e-06,7.95929e-06,-1.38967e-06,1.09151e-05,6.03237e-07,0
-2.85182e-05,2.00217e-05,-1.53565e-06,-2.02148e-06,9.55892e-06,-3.86752e-06,9.60618e-06,6.02558e-08,0
-2.75553e-05,2.50109e-05,-4.30366e-06,-8.65191e-08,1.06332e-05,-6.67025e-06,1.05285e-05,5.5269e-07,0
-2.75384e-05,2.90431e-05,-5.8857e-06,7.6322e-07,1.20076e-05,-8.4159e-06,1.24451e-05,6.89915e-07,0
-2.80234e-05,3.06838e-05,-6.70731e-06,6.72751e-07,1.37516e-05,-9.4251e-06,1.19124e-05,1.42886e-07,0
-2.88258e-05,2.93773e-05,-8.2888e-06,-1.00213e-07,1.40399e-05,-1.04666e-05,1.07612e-05,-2.92032e-07,0
-2.97979e-05,2.73394e-05,-9.84088e-06,-2.12213e-06,1.37235e-05,-1.17965e-05,1.0432e-05,-8.84656e-07,0
-3.0763e-05,2.6891e-05,-9.9159e-06,-4.53855e-06,1.37216e-05,-1.20855e-05,9.78125e-06,-9.80286e-07,0
-3.11319e-05,2.74016e-05,-8.49924e-06,-6.61511e-06,1.49344e-05,-1.22001e-05,9.63838e-06,-1.58436e-06,0
-3.04171e-05,2.64852e-05,-5.85708e-06,-8.35288e-06,1.52164e-05,-1.30864e-05,1.01594e-05,-4.3819e-06,0
-2.96301e-05,2.49488e-05,-3.56303e-06,-7.62801e-06,1.46099e-05,-1.40305e-05,8.31917e-06,-7.02569e-06,0
-3.01042e-05,2.42837e-05,-3.06991e-06,-2.02727e-06,1.3843e-05,-1.33017e-05,4.53513e-06,-7.33715e-06,0
-3.22234e-05,2.35477e-05,-2.38201e-06,8.29539e-06,1.5328e-05,-1.20517e-05,2.71732e-06,-6.35624e-06,0
-3.36359e-05,2.21502e-05,-1.47933e-06,1.96329e-05,1.84983e-05,-1.13709e-05,3.91426e-06,-4.51118e-06,0
-3.376e-05,2.12588e-05,-1.07814e-06,2.28549e-05,1.95361e-05,-1.1564e-05,7.62082e-06,-1.94143e-06,0
-3.4089e-05,2.17688e-05,5.27958e-08,1.33225e-05,1.67486e-05,-1.18933e-05,1.22829e-05,-3.89875e-07,0
-3.41104e-05,2.40378e-05,4.77723e-07,-6.56641e-06,1.31461e-05,-1.13992e-05,1.64649e-05,4.84526e-08,0
-3.33755e-05,2.73031e-05,-4.74934e-07,-2.9426e-05,1.21362e-05,-1.00246e-05,2.0187e-05,-1.2673e-06,0
-3.31141e-05,2.86089e-05,-7.55847e-07,-4.57616e-05,1.25566e-05,-8.74324e-06,2.23227e-05,-3.58493e-06,0
-3.31762e-05,3.01076e-05,2.85057e-07,-5.54178e-05,1.12854e-05,-7.07976e-06,2.30712e-05,-4.08024e-06,0
-3.36684e-05,3.19719e-05,3.27515e-06,-6.35846e-05,1.15831e-05,-4.37393e-06,2.28259e-05,-3.14337e-06,0
-3.50082e-05,3.19952e-05,4.5558e-06,-6.6336e-05,1.32465e-05,-4.70469e-06,1.9239e-05,-2.16419e-06,0
-3.49802e-05,2.96669e-05,3.55686e-06,-5.6512e-05,1.27117e-05,-8.18432e-06,1.55877e-05,-1.90399e-06,0
-3.3524e-05,2.77667e-05,3.06824e-06,-3.62416e-05,1.40007e-05,-1.07624e-05,1.40369e-05,-3.2164e-06,0
-3.03506e-05,2.74342e-05,2.29611e-06,-1.59391e-05,1.83518e-05,-9.46786e-06,1.37799e-05,-2.31033e-06,0
-2.76715e-05,2.65171e-05,1.51232e-06,-2.30839e-06,2.1946e-05,-7.47299e-06,1.54986e-05,-4.54225e-07,0
-2.83807e-05,2.54117e-05,4.59106e-07,5.91171e-06,2.28901e-05,-7.50001e-06,1.57645e-05,1.19765e-07,0
-3.18862e-05,2.46207e-05,-5.66977e-08,1.21697e-05,2.34143e-05,-7.11932e-06,1.45385e-05,3.8596e-07,0
-3.54021e-05,2.43657e-05,7.99104e-07,1.69075e-05,2.54256e-05,-6.47631e-06,1.19591e-05,6.90964e-07,0
-3.58591e-05,2.23692e-05,2.31003e-06,1.55246e-05,2.79118e-05,-6.55994e-06,9.70903e-06,1.60162e-06,0
-3.48796e-05,1.92914e-05,2.68574e-06,1.0971e-05,2.83311e-05,-7.08796e-06,1.01551e-05,1.84931e-06,0
-3.45584e-05,1.65328e-05,1.36311e-06,8.72407e-06,2.69008e-05,-6.55494e-06,1.14647e-05,6.06774e-07,0
-3.42296e-05,1.45979e-05,-1.50701e-06,8.86497e-06,2.33719e-05,-5.86583e-06,1.21906e-05,-1.87972e-06,0
-3.2635e-05,1.38254e-05,-4.5237e-06,1.129e-05,1.84692e-05,-6.876e-06,1.14473e-05,-4.72551e-06,0
-3.14242e-05,1.46598e-05,-6.23046e-06,1.83749e-05,1.46329e-05,-8.31764e-06,9.99211e-06,-6.01899e-06,0
-3.19046e-05,1.53058e-05,-7.07729e-06,2.73369e-05,1.3636e-05,-8.22347e-06,9.28085e-06,-4.91681e-06,0
-3.28659e-05,1.46267e-05,-8.24248e-06,3.15945e-05,1.42785e-05,-6.78522e-06,9.73796e-06,-2.94471e-06,0
-3.24211e-05,1.41288e-05,-1.09306e-05,2.92524e-05,1.45114e-05,-5.41407e-06,1.05045e-05,-9.75255e-07,0
-3.09796e-05,1.37314e-05,-1.41006e-05,2.0898e-05,1.4802e-05,-5.79037e-06,1.08323e-05,1.89189e-07,0
-2.99893e-05,1.37654e-05,-1.71869e-05,1.00654e-05,1.5238e-05,-7.07802e-06,1.07512e-05,3.46928e-07,0
-2.97506e-05,1.47643e-05,-1.88868e-05,1.57686e-06,1.46893e-05,-7.72412e-06,1.16e-05,6.76855e-07,0
-2.99799e-05,1.71425e-05,-1.79826e-05,-2.52174e-06,1.39345e-05,-7.9264e-06,1.3696e-05,1.64999e-06,0
-3.06127e-05,1.90537e-05,-1.5715e-05,-5.26693e-06,1.40826e-05,-7.34542e-06,1.65361e-05,8.85908e-07,0
-3.13573e-05,1.91849e-05,-1.41178e-05,-7.95399e-06,1.47116e-05,-7.63024e-06,1.86795e-05,-6.12545e-07,0
-3.15562e-05,1.88996e-05,-1.26528e-05,-1.15281e-05,1.39668e-05,-8.92786e-06,1.95e-05,-9.33561e-07,0
-3.13625e-05,1.85406e-05,-1.1377e-05,-1.78532e-05,1.06189e-05,-8.89711e-06,1.90483e-05,8.72477e-08,0
-3.08094e-05,1.61712e-05,-1.23306e-05,-2.72802e-05,9.63313e-06,-7.10902e-06,1.7711e-05,1.27886e-06,0
-3.10548e-05,1.42323e-05,-1.49827e-05,-3.59424e-05,1.06634e-05,-5.60377e-06,1.65951e-05,1.8019e-06,0
-3.38486e-05,1.49488e-05,-1.57735e-05,-3.81672e-05,8.40383e-06,-5.8819e-06,1.51499e-05,1.3586e-06,0
-3.65184e-05,1.50796e-05,-1.34436e-05,-3.17565e-05,3.01259e-06,-6.78442e-06,1.40619e-05,-1.73399e-06,0
-3.56872e-05,1.50791e-05,-1.1244e-05,-2.29261e-05,1.41408e-07,-6.0511e-06,1.43879e-05,-4.57479e-06,0
-3.26183e-05,1.64408e-05,-1.10954e-05,-1.67878e-05,2.2236e-06,-4.85942e-06,1.59799e-05,-4.62007e-06,0
-3.07393e-05,1.67312e-05,-1.24305e-05,-1.34962e-05,5.76355e-06,-5.49787e-06,1.70043e-05,-3.61169e-06,0
-3.07148e-05,1.60234e-05,-1.25893e-05,-1.40112e-05,8.47043e-06,-7.66294e-06,1.78345e-05,-1.08397e-06,0
-3.0481e-05,1.45509e-05,-1.15252e-05,-1.5296e-05,7.73654e-06,-9.29874e-06,1.55726e-05,8.86424e-07,0
-3.07679e-05,1.25894e-05,-1.08908e-05,-1.61042e-05,4.55063e-06,-1.02973e-05,6.00602e-06,4.28682e-07,0
-3.14508e-05,1.17344e-05,-1.08863e-05,-1.66466e-05,-3.62621e-07,-1.11875e-05,-4.6126e-06,9.45383e-08,0
-3.1289e-05,1.31189e-05,-1.25117e-05,-1.69716e-05,-4.10835e-06,-1.07582e-05,-9.7724e-06,1.54411e-06,0
-3.00596e-05,1.59816e-05,-1.49086e-05,-1.79161e-05,-3.594e-06,-1.01821e-05,-8.76843e-06,2.68097e-06,0
-2.88133e-05,1.80208e-05,-1.69796e-05,-2.00549e-05,-1.67779e-06,-1.01161e-05,-3.73667e-06,5.42331e-07,0
-2.93704e-05,1.95524e-05,-1.78593e-05,-2.03142e-05,-1.96417e-06,-1.01988e-05,4.43775e-06,-2.3151e-06,0
-3.10042e-05,2.00866e-05,-1.69017e-05,-1.4195e-05,-3.95797e-06,-9.25538e-06,1.48173e-05,-2.94558e-06,0
-3.11483e-05,1.83776e-05,-1.40759e-05,-4.96447e-07,-3.66379e-06,-7.76387e-06,2.45607e-05,-1.31501e-06,0
-3.00167e-05,1.45159e-05,-1.13643e-05,1.27144e-05,6.62419e-07,-7.13997e-06,3.14484e-05,-3.24734e-07,0
-2.88405e-05,1.13735e-05,-1.10358e-05,1.46886e-05,8.27209e-06,-7.88927e-06,3.40253e-05,-1.16762e-06,0
-2.81388e-05,1.05621e-05,-1.2501e-05,8.84367e-06,1.60752e-05,-8.96598e-06,3.27123e-05,-2.02131e-06,0
-2.87242e-05,1.02971e-05,-1.30794e-05,8.62797e-06,2.17532e-05,-8.89549e-06,2.98904e-05,-1.45636e-06,0
-2.92759e-05,8.82716e-06,-1.19331e-05,1.95562e-05,2.39427e-05,-7.31094e-06,2.74548e-05,-2.68228e-07,0
-2.90892e-05,6.38073e-06,-1.04106e-05,3.42895e-05,2.40204e-05,-4.39098e-06,2.50994e-05,3.46913e-07,0
-2.8008e-05,5.93046e-06,-8.61483e-06,4.07354e-05,2.34866e-05,-2.91812e-06,2.29313e-05,-1.24484e-06,0
-2.68756e-05,7.08345e-06,-6.656e-06,3.0015e-05,2.15308e-05,-4.85937e-06,2.05595e-05,-2.74853e-06,0
-2.79732e-05,6.48921e-06,-5.56669e-06,4.31921e-06,1.81491e-05,-7.4874e-06,1.72109e-05,-1.26077e-06,0
-2.96938e-05,4.3072e-06,-6.2783e-06,-2.51843e-05,1.44375e-05,-7.8574e-06,1.42989e-05,1.03208e-06,0
-3.06133e-05,5.40383e-07,-6.31411e-06,-4.69674e-05,1.24926e-05,-7.0196e-06,1.26001e-05,2.9265e-06,0
-3.10751e-05,-5.08472e-06,-6.26057e-06,-5.372e-05,1.34748e-05,-7.18247e-06,1.18689e-05,4.60532e-06,0
-3.12959e-05,-9.23313e-06,-7.00093e-06,-4.63962e-05,1.34414e-05,-8.46557e-06,1.0899e-05,4.81042e-06,0
-3.25884e-05,-1.05865e-05,-8.07598e-06,-3.79056e-05,1.37501e-05,-8.97924e-06,8.85066e-06,3.57002e-06,0
-3.41303e-05,-1.0656e-05,-9.52014e-06,-3.19751e-05,1.59038e-05,-8.48152e-06,6.76536e-06,2.45724e-06,0
-3.31878e-05,-1.08815e-05,-8.24901e-06,-1.74835e-05,1.79715e-05,-7.07e-06,5.33256e-06,9.06029e-07,0
-3.08852e-05,-1.21588e-05,-5.64414e-06,9.78735e-06,2.08245e-05,-4.7477e-06,4.01076e-06,3.29961e-07,0
-2.99446e-05,-1.18128e-05,-3.72807e-06,3.99718e-05,2.47401e-05,-2.29723e-06,2.22604e-06,1.44976e-07,0
-2.9875e-05,-8.45085e-06,-1.07763e-06,5.81559e-05,2.88424e-05,-2.05429e-06,1.85777e-06,-1.04409e-06,0
-3.10512e-05,-4.43359e-06,1.53867e-06,6.07014e-05,3.06459e-05,-4.05956e-06,1.94799e-06,-2.53496e-06,0
-3.17778e-05,-1.30284e-06,2.01681e-06,5.17383e-05,2.83472e-05,-5.82346e-06,2.27725e-06,-2.46833e-06,0
-3.11597e-05,7.18501e-07,2.37484e-07,3.83499e-05,2.34023e-05,-6.45913e-06,2.98861e-06,-1.98403e-06,0
-3.00038e-05,1.61512e-06,-1.17421e-06,2.7348e-05,2.07025e-05,-6.56125e-06,4.79112e-06,-1.55049e-06,0
-2.90942e-05,9.78589e-07,-1.20195e-06,1.90392e-05,1.96361e-05,-5.77053e-06,7.1295e-06,-5.21971e-07,0
-2.85715e-05,-3.86147e-07,-1.06107e-06,1.21864e-05,1.76176e-05,-4.95379e-06,7.1202e-06,2.60751e-07,0
-2.77875e-05,-1.36731e-06,-1.91549e-06,7.02171e-06,1.37438e-05,-5.54486e-06,6.2198e-06,3.53575e-07,0
-2.77661e-05,-1.61027e-06,-3.87025e-06,3.19936e-06,1.00753e-05,-7.57456e-06,7.25533e-06,1.46595e-07,0
-2.8073e-05,-1.18835e-06,-6.22223e-06,-6.31113e-07,6.9866e-06,-9.79421e-06,1.10501e-05,1.46757e-06,0
-2.8965e-05,-8.906e-08,-7.39427e-06,-4.15061e-06,4.16376e-06,-1.02508e-05,1.521e-05,4.15767e-06,0
-3.04296e-05,1.35825e-06,-6.99254e-06,-6.22374e-06,2.42528e-06,-9.66875e-06,1.82363e-05,7.03122e-06,0
-3.16545e-05,3.10043e-06,-6.67341e-06,-7.2636e-06,1.76193e-06,-8.89492e-06,1.92759e-05,8.70201e-06,0
-3.14634e-05,5.09561e-06,-6.48727e-06,-8.50346e-06,9.70986e-07,-9.03229e-06,1.93943e-05,9.6344e-06,0
-2.99183e-05,5.77077e-06,-5.90211e-06,-8.66349e-06,9.13444e-07,-1.04023e-05,1.95901e-05,9.78247e-06,0
-2.82958e-05,6.47995e-06,-4.52189e-06,-7.37286e-06,4.0353e-06,-1.18198e-05,1.94217e-05,9.2757e-06,0
-2.86468e-05,9.1997e-06,-4.33427e-06,-7.4411e-06,8.31274e-06,-1.1687e-05,1.77978e-05,7.98002e-06,0
-3.0052e-05,1.18939e-05,-6.26913e-06,-8.79103e-06,1.12916e-05,-1.07925e-05,1.50562e-05,6.45066e-06,0
-3.02176e-05,1.23935e-05,-7.45168e-06,-8.96241e-06,1.22444e-05,-1.17409e-05,1.21009e-05,4.35334e-06,0
-3.05043e-05,1.0215e-05,-8.0753e-06,-8.544e-06,1.37459e-05,-1.35468e-05,1.02754e-05,2.57607e-06,0
-3.12702e-05,7.59571e-06,-9.43849e-06,-7.75305e-06,1.51786e-05,-1.33672e-05,1.13044e-05,2.06266e-06,0
-3.05582e-05,7.87862e-06,-9.93491e-06,-6.34128e-06,1.64006e-05,-1.34327e-05,1.39066e-05,6.56707e-07,0
-2.8845e-05,1.07419e-05,-9.48625e-06,-6.15124e-06,1.67458e-05,-1.2958e-05,1.57291e-05,-9.96259e-07,0
-2.77178e-05,1.31397e-05,-9.00171e-06,-8.56824e-06,1.5054e-05,-1.0908e-05,1.49005e-05,-1.21379e-06,0
-2.62967e-05,1.48612e-05,-7.5859e-06,-1.18089e-05,1.28336e-05,-1.0991e-05,1.29516e-05,-1.95362e-06,0
-2.59777e-05,1.48113e-05,-6.33342e-06,-1.32572e-05,1.13482e-05,-1.35801e-05,1.03327e-05,-2.83372e-06,0
-2.63761e-05,1.1837e-05,-5.94246e-06,-1.37522e-05,1.16087e-05,-1.67224e-05,7.58918e-06,-3.30783e-06,0
-2.64154e-05,1.00076e-05,-5.3296e-06,-1.33388e-05,1.1776e-05,-1.84983e-05,7.58845e-06,-5.33485e-06,0
-2.6161e-05,1.13298e-05,-5.89782e-06,-1.35396e-05,1.05539e-05,-1.82279e-05,9.27376e-06,-6.27045e-06,0
-2.59909e-05,1.26776e-05,-8.8858e-06,-1.40972e-05,8.40989e-06,-1.71723e-05,1.21356e-05,-4.70474e-06,0
-2.63886e-05,1.08317e-05,-1.23263e-05,-1.31815e-05,7.32138e-06,-1.7508e-05,1.41912e-05,-1.39757e-06,0
-2.64331e-05,7.0411e-06,-1.3483e-05,-1.10513e-05,8.41855e-06,-1.71497e-05,1.35841e-05,2.01455e-06,0
-2.62704e-05,5.50983e-06,-1.30778e-05,-8.53505e-06,1.07353e-05,-1.48138e-05,1.08637e-05,3.82574e-06,0
-2.66212e-05,6.86921e-06,-1.19239e-05,-7.2794e-06,1.49322e-05,-1.28307e-05,4.6618e-06,3.91665e-06,0
-2.7099e-05,8.58504e-06,-1.07893e-05,-8.01059e-06,2.06985e-05,-1.23399e-05,-5.30102e-06,3.33204e-06,0
-2.79043e-05,9.24017e-06,-9.49876e-06,-1.0012e-05,2.53885e-05,-1.22738e-05,-1.37037e-05,3.02982e-06,0
-2.9593e-05,9.88956e-06,-7.41423e-06,-1.13981e-05,2.56713e-05,-1.1564e-05,-1.40532e-05,2.95825e-06,0
-3.0376e-05,1.15114e-05,-4.09175e-06,-1.27598e-05,2.25529e-05,-1.00554e-05,-7.43086e-06,2.76687e-06,0
-3.00953e-05,1.2009e-05,1.89117e-06,-1.40557e-05,2.00571e-05,-8.73708e-06,1.70299e-06,2.61735e-06,0
-3.00836e-05,1.09046e-05,1.34817e-05,-1.49523e-05,2.05579e-05,-7.10402e-06,1.11805e-05,2.98373e-06,0
-3.03865e-05,1.07799e-05,3.24346e-05,-1.55145e-05,2.35351e-05,-5.23096e-06,2.0345e-05,3.56283e-06,0
-3.03765e-05,1.24757e-05,5.25499e-05,-1.634e-05,2.48356e-05,-5.7196e-06,2.68352e-05,4.0064e-06,0
-3.04339e-05,1.37449e-05,6.34673e-05,-1.69227e-05,2.23758e-05,-7.1805e-06,3.02682e-05,4.78785e-06,0
-3.05727e-05,1.47645e-05,5.6184e-05,-1.51988e-05,1.86028e-05,-7.50222e-06,3.21717e-05,5.82152e-06,0
-3.00089e-05,1.68212e-05,3.00431e-05,-1.43158e-05,1.62688e-05,-6.97987e-06,3.20982e-05,6.06422e-06,0
-2.97302e-05,1.79904e-05,-8.79619e-06,-1.36961e-05,1.35037e-05,-7.14287e-06,3.03601e-05,5.77934e-06,0
-3.13262e-05,1.79371e-05,-4.80526e-05,-1.05435e-05,1.098e-05,-7.72413e-06,2.86027e-05,4.60986e-06,0
-3.32486e-05,1.94792e-05,-8.0314e-05,-7.25065e-06,1.04392e-05,-7.71996e-06,2.72269e-05,1.02497e-06,0
-3.28636e-05,2.1781e-05,-9.94731e-05,-5.93566e-06,1.20954e-05,-7.19425e-06,2.62326e-05,-9.70117e-07,0
-3.12194e-05,2.41012e-05,-0.000101226,-5.76695e-06,1.36585e-05,-7.97222e-06,2.53897e-05,1.96252e-07,0
-3.10193e-05,2.615e-05,-8.92655e-05,-6.50085e-06,1.44541e-05,-9.96358e-06,2.57116e-05,1.33986e-06,0
-3.10867e-05,2.59869e-05,-6.99438e-05,-9.40207e-06,1.63313e-05,-1.00316e-05,2.53324e-05,1.79636e-06,0
-3.16851e-05,2.40246e-05,-5.46418e-05,-1.14111e-05,1.68395e-05,-8.95213e-06,2.21917e-05,2.14972e-06,0
-3.16496e-05,2.15873e-05,-4.34641e-05,-1.2499e-05,1.61166e-05,-8.07197e-06,1.71408e-05,2.43587e-06,0
-3.07532e-05,2.09646e-05,-3.35628e-05,-1.25953e-05,1.5008e-05,-9.0975e-06,1.29943e-05,9.5238e-07,0
-3.23537e-05,2.27332e-05,-2.28177e-05,-1.20616e-05,1.46817e-05,-1.10965e-05,1.08591e-05,-1.82098e-07,0
-3.43694e-05,2.513e-05,-1.29592e-05,-1.16903e-05,1.38763e-05,-1.28244e-05,1.02475e-05,6.81983e-07,0
-3.5099e-05,2.53993e-05,-5.99304e-06,-1.0398e-05,1.31927e-05,-1.41137e-05,1.12743e-05,3.55188e-06,0
-3.4905e-05,2.41028e-05,-6.28552e-07,-9.50701e-06,1.26781e-05,-1.3884e-05,1.0973e-05,6.22608e-06,0
-3.40663e-05,2.26306e-05,3.07273e-06,-1.00525e-05,1.06992e-05,-1.40879e-05,1.00293e-05,6.73501e-06,0
-3.33739e-05,2.13403e-05,3.50103e-06,-1.02358e-05,9.32723e-06,-1.49303e-05,1.02166e-05,6.10319e-06,0
-3.41552e-05,2.01186e-05,-4.68786e-07,-7.77146e-06,9.72886e-06,-1.55173e-05,1.10376e-05,6.62784e-06,0
-3.50534e-05,1.9153e-05,-3.81945e-06,-3.63851e-06,1.21312e-05,-1.63306e-05,1.10015e-05,8.36514e-06,0
-3.39857e-05,1.81801e-05,-4.26702e-06,1.72011e-06,1.45263e-05,-1.82205e-05,1.07087e-05,8.84839e-06,0
-3.09166e-05,1.63885e-05,-3.15481e-06,5.96891e-06,1.50367e-05,-1.97031e-05,1.09287e-05,7.61321e-06,0
-2.86466e-05,1.48331e-05,-2.8374e-06,7.3917e-06,1.38486e-05,-1.98887e-05,1.04982e-05,5.47975e-06,0
-2.9043e-05,1.49574e-05,-2.40012e-06,7.36258e-06,1.33787e-05,-1.95812e-05,8.60664e-06,4.35624e-06,0
-3.05674e-05,1.61667e-05,-2.0618e-06,8.85511e-06,1.27172e-05,-1.89546e-05,6.90201e-06,4.54171e-06,0
-3.14598e-05,1.86188e-05,-1.01926e-06,1.00045e-05,9.69476e-06,-1.71812e-05,5.84688e-06,5.09555e-06,0
-3.05412e-05,2.34427e-05,7.13212e-07,8.68295e-06,4.23008e-06,-1.40504e-05,3.86774e-06,4.75602e-06,0
-2.9264e-05,2.74322e-05,2.25981e-06,6.64436e-06,5.02895e-07,-1.13884e-05,2.73997e-06,2.64019e-06,0
-2.84588e-05,2.97949e-05,3.21802e-06,5.75758e-06,2.02162e-06,-1.09875e-05,4.35133e-06,6.84525e-07,0
-2.80882e-05,3.07733e-05,4.43752e-06,4.98563e-06,5.75551e-06,-1.27912e-05,6.93082e-06,2.55874e-06,0
-2.94681e-05,3.14134e-05,5.21463e-06,1.49472e-08,8.65768e-06,-1.42232e-05,8.18671e-06,5.62549e-06,0
-3.14121e-05,3.13984e-05,5.18455e-06,-1.19103e-05,1.0861e-05,-1.40314e-05,7.7115e-06,6.34318e-06,0
-3.10095e-05,2.80499e-05,4.43841e-06,-2.46923e-05,1.13888e-05,-1.29289e-05,6.63462e-06,3.74343e-06,0
-2.92521e-05,2.49219e-05,3.01768e-06,-3.34697e-05,1.18825e-05,-1.16491e-05,5.24657e-06,-1.90632e-07,0
-2.82519e-05,2.49079e-05,2.8264e-06,-3.70411e-05,1.5877e-05,-9.49981e-06,4.80838e-06,-2.51812e-06,0
-2.63411e-05,2.62241e-05,4.26505e-06,-3.26909e-05,2.23088e-05,-6.36006e-06,7.75618e-06,-2.44383e-06,0
-2.4709e-05,2.76997e-05,5.61914e-06,-2.373e-05,3.11786e-05,-4.25504e-06,1.13114e-05,-1.28467e-06,0
-2.39227e-05,2.76335e-05,4.7714e-06,-1.27266e-05,3.91593e-05,-4.91346e-06,1.25746e-05,-2.17284e-06,0
-2.429e-05,2.52559e-05,3.82711e-06,-4.21433e-06,4.17262e-05,-6.48114e-06,1.23289e-05,-3.79833e-06,0
-2.74091e-05,2.10736e-05,3.68784e-06,-7.58035e-07,3.87394e-05,-6.86311e-06,1.23683e-05,-3.60282e-06,0
-2.82801e-05,1.6718e-05,3.17206e-06,-2.21071e-06,3.22917e-05,-6.62042e-06,1.32398e-05,-2.87174e-06,0
-2.589e-05,1.23151e-05,1.40422e-06,-4.63872e-06,2.70167e-05,-6.18113e-06,1.48429e-05,-3.05156e-06,0
-2.44032e-05,8.50895e-06,-2.95912e-07,-5.02041e-06,2.5434e-05,-5.88825e-06,1.6753e-05,-2.70313e-06,0
-2.60347e-05,6.12323e-06,-2.26435e-06,-3.34951e-06,2.4369e-05,-5.62437e-06,1.82789e-05,-5.6537e-07,0
-2.95604e-05,3.17457e-06,-3.7926e-06,-3.84803e-07,2.11583e-05,-5.11498e-06,1.80617e-05,7.51563e-07,0
-3.23042e-05,3.24036e-07,-3.93461e-06,2.67096e-06,1.74264e-05,-3.36283e-06,1.71015e-05,-1.20456e-06,0
-3.2717e-05,-9.30778e-07,-3.36199e-06,4.46501e-06,1.37218e-05,-1.08265e-06,1.72205e-05,-3.64159e-06,0
-3.21922e-05,2.3758e-08,-4.07751e-06,2.70189e-06,9.38358e-06,-6.1731e-07,1.80126e-05,-4.06054e-06,0
-3.31731e-05,8.66652e-07,-7.87986e-06,-8.64481e-07,6.11982e-06,-2.1468e-06,1.79789e-05,-3.33067e-06,0
-3.51649e-05,-7.15752e-08,-1.33211e-05,-3.4749e-06,4.35826e-06,-4.59665e-06,1.6611e-05,-3.17936e-06,0
-3.52888e-05,-2.13431e-06,-1.74962e-05,-2.50977e-06,2.73029e-06,-6.80507e-06,1.48655e-05,-3.19752e-06,0
-3.25571e-05,-4.56368e-06,-1.90916e-05,2.36699e-06,2.40276e-06,-7.24747e-06,1.35165e-05,-3.1108e-06,0
-2.99726e-05,-6.23773e-06,-1.83326e-05,1.05656e-05,5.00236e-06,-6.77288e-06,1.33349e-05,-2.62027e-06,0
-3.03946e-05,-6.44077e-06,-1.60335e-05,1.71787e-05,8.75071e-06,-6.51972e-06,1.42113e-05,-1.50315e-06,0
-3.25784e-05,-5.95538e-06,-1.34794e-05,1.71246e-05,1.12757e-05,-5.94045e-06,1.48207e-05,-1.60469e-06,0
-3.27184e-05,-5.99793e-06,-1.10456e-05,1.27598e-05,1.1535e-05,-6.24733e-06,1.38056e-05,-3.32747e-06,0
-3.13342e-05,-7.74156e-06,-1.03333e-05,7.96727e-06,9.87692e-06,-7.17839e-06,1.41365e-05,-4.55505e-06,0
-3.09782e-05,-9.65241e-06,-1.23944e-05,3.50723e-06,7.09187e-06,-6.2085e-06,1.57128e-05,-3.77057e-06,0
-3.2204e-05,-9.93497e-06,-1.60564e-05,1.0089e-06,5.04499e-06,-3.15159e-06,1.65155e-05,-2.7853e-06,0
-3.36019e-05,-8.30247e-06,-1.93971e-05,-7.78293e-08,6.47026e-06,-2.08022e-06,1.85397e-05,-2.76901e-06,0
-3.43045e-05,-6.74194e-06,-2.30517e-05,-1.35278e-06,8.41367e-06,-4.31651e-06,2.04904e-05,-2.00055e-06,0
-3.51729e-05,-7.50493e-06,-2.51385e-05,-3.88372e-06,8.43403e-06,-8.02574e-06,2.02856e-05,-2.26109e-06,0
