ch1,ch2,ch3,ch4,ch5,ch6,ch7,ch8,class
-3.1332e-05,5.76362e-06,-7.16902e-06,-3.00141e-05,1.59378e-05,-1.13157e-05,1.61888e-05,6.37362e-07,0
-3.05627e-05,9.42828e-06,-6.51462e-06,-4.19941e-05,1.76294e-05,-9.01709e-06,1.43877e-05,2.6975e-06,0
-2.92002e-05,1.42842e-05,-4.78427e-06,-4.94108e-05,1.74758e-05,-6.8681e-06,1.49123e-05,2.53177e-06,0
-2.7673e-05,2.06892e-05,-3.5084e-06,-4.99287e-05,1.64572e-05,-4.64655e-06,1.40111e-05,2.77489e-06,0
-2.66242e-05,2.27075e-05,-3.273e-06,-4.4456e-05,1.65697e-05,-3.64778e-06,1.00051e-05,5.02666e-06,0
-2.58359e-05,2.28198e-05,-1.36451e-06,-3.47939e-05,1.71598e-05,-2.83204e-06,5.61892e-06,7.23884e-06,0
-2.46508e-05,2.38379e-05,1.84127e-06,-2.19079e-05,1.7824e-05,-3.72024e-06,2.31196e-06,5.55527e-06,0
-2.38804e-05,2.33295e-05,4.32373e-06,-9.83418e-06,1.69526e-05,-6.7414e-06,-1.18101e-06,2.02311e-06,0
-2.50995e-05,1.86402e-05,7.41087e-06,-1.33117e-06,1.50381e-05,-8.71708e-06,-3.18135e-06,7.04846e-07,0
-2.70818e-05,1.14875e-05,1.53973e-05,3.17124e-06,1.39541e-05,-8.00463e-06,-1.49594e-06,1.6859e-06,0
-2.82566e-05,6.5013e-06,3.12904e-05,1.68116e-06,1.39335e-05,-5.13073e-06,2.01068e-06,2.45817e-06,0
-2.99814e-05,2.63126e-06,5.16932e-05,-4.47193e-06,1.47463e-05,-2.49292e-06,4.20746e-06,2.37845e-06,0
-3.19058e-05,-3.08908e-07,6.74945e-05,-9.41719e-06,1.45352e-05,-1.75245e-06,5.25958e-06,2.28914e-06,0
-3.21741e-05,2.28615e-07,6.87132e-05,-8.43995e-06,1.40979e-05,-2.89946e-06,4.60728e-06,5.9912e-07,0
-3.2251e-05,3.89982e-06,4.90655e-05,-2.13289e-06,1.39238e-05,-4.70359e-06,3.46312e-06,-3.23281e-06,0
-3.29078e-05,8.53991e-06,1.11889e-05,6.70664e-06,1.45416e-05,-4.85311e-06,3.64055e-06,-6.87645e-06,0
-3.37959e-05,1.30328e-05,-3.28645e-05,1.25074e-05,1.62676e-05,-3.39184e-06,3.17343e-06,-7.77569e-06,0
-3.44547e-05,1.71315e-05,-6.98549e-05,1.21194e-05,1.83163e-05,-3.71873e-06,3.13593e-06,-6.39572e-06,0
-3.51846e-05,2.04532e-05,-9.24134e-05,6.89304e-06,1.88472e-05,-6.30015e-06,5.79671e-06,-4.99928e-06,0
-3.55336e-05,2.34253e-05,-9.86672e-05,1.68713e-06,1.61395e-05,-7.82175e-06,9.58609e-06,-4.79757e-06,0
-3.55238e-05,2.51601e-05,-9.16283e-05,6.19223e-07,1.13705e-05,-7.89015e-06,1.11021e-05,-4.1635e-06,0
-3.46002e-05,2.53913e-05,-7.7081e-05,8.7812e-06,7.60448e-06,-8.90874e-06,1.08748e-05,-2.58614e-06,0
-3.30775e-05,2.52267e-05,-6.18402e-05,2.87811e-05,6.87483e-06,-1.11513e-05,1.06764e-05,-1.45084e-06,0
-3.2475e-05,2.49621e-05,-4.95602e-05,4.63015e-05,8.66802e-06,-1.27896e-05,1.11547e-05,-1.39782e-06,0
-3.18545e-05,2.46616e-05,-3.84561e-05,4.3227e-05,1.07522e-05,-1.36278e-05,1.16492e-05,-2.31845e-06,0
-3.17231e-05,2.52464e-05,-2.67881e-05,2.49532e-05,1.17451e-05,-1.41117e-05,1.2172e-05,-3.35792e-06,0
-3.23071e-05,2.52854e-05,-1.74965e-05,6.13981e-06,1.15331e-05,-1.31873e-05,1.27136e-05,-2.79025e-06,0
-3.16752e-05,2.42331e-05,-1.24877e-05,-2.73227e-06,1.12038e-05,-1.1689e-05,1.18409e-05,-1.21342e-06,0
-3.02255e-05,2.40529e-05,-8.37479e-06,-3.06191e-06,1.16603e-05,-1.13609e-05,1.04697e-05,-2.98408e-07,0
-3.02028e-05,2.72326e-05,-4.22761e-06,-6.40381e-06,1.06342e-05,-1.17519e-05,1.07961e-05,6.79174e-07,0
-3.07899e-05,3.17859e-05,-1.65199e-06,-1.52264e-05,8.98987e-06,-1.09305e-05,1.18279e-05,3.42567e-06,0
-2.98768e-05,3.54432e-05,-8.67625e-07,-2.32192e-05,1.0665e-05,-9.1413e-06,1.11943e-05,7.23877e-06,0
-2.96028e-05,3.94898e-05,1.6989e-07,-2.98943e-05,1.3646e-05,-7.24895e-06,9.96683e-06,8.09491e-06,0
-2.94368e-05,3.92392e-05,6.73498e-07,-4.08126e-05,1.39741e-05,-7.21866e-06,1.06449e-05,6.49971e-06,0
-2.88387e-05,3.37189e-05,-3.35542e-06,-4.81127e-05,1.41214e-05,-8.44479e-06,1.31172e-05,6.39012e-06,0
-2.88343e-05,2.75655e-05,-1.01969e-05,-4.6717e-05,1.54562e-05,-9.62413e-06,1.49138e-05,6.73707e-06,0
-2.83085e-05,2.16687e-05,-1.47872e-05,-3.92363e-05,1.67685e-05,-1.1694e-05,1.3889e-05,5.70607e-06,0
-2.75104e-05,1.52237e-05,-1.57013e-05,-2.58914e-05,1.68497e-05,-1.16614e-05,1.21372e-05,3.10867e-06,0
-2.62641e-05,1.08985e-05,-1.46168e-05,-9.74476e-06,1.78995e-05,-1.02012e-05,1.11896e-05,1.11433e-06,0
-2.61276e-05,1.06674e-05,-1.35099e-05,2.8279e-06,2.04145e-05,-9.1918e-06,1.08734e-05,1.91283e-06,0
-2.69736e-05,1.33323e-05,-1.31913e-05,1.04038e-05,2.17842e-05,-9.04482e-06,1.04308e-05,3.64667e-06,0
-2.8752e-05,1.77882e-05,-1.25105e-05,1.43262e-05,2.25498e-05,-8.77859e-06,9.19463e-06,5.21284e-06,0
-3.03775e-05,2.10684e-05,-1.11519e-05,1.40032e-05,2.25397e-05,-7.42212e-06,8.97514e-06,5.86887e-06,0
-2.95577e-05,2.36205e-05,-9.89135e-06,1.1436e-05,2.25943e-05,-5.87432e-06,1.02886e-05,4.88495e-06,0
-2.7297e-05,3.03398e-05,-8.93971e-06,8.93043e-06,2.21101e-05,-4.26313e-06,1.165e-05,3.02837e-06,0
-2.60161e-05,4.25318e-05,-7.40555e-06,6.14664e-06,1.96026e-05,-3.70851e-06,1.15005e-05,2.24629e-06,0
-2.65204e-05,5.54212e-05,-5.48762e-06,-1.51751e-07,1.54268e-05,-4.90427e-06,1.1163e-05,2.56713e-06,0
-2.78024e-05,6.29989e-05,-4.19818e-06,-1.04369e-05,1.29212e-05,-7.09606e-06,1.1012e-05,2.38158e-06,0
-2.87419e-05,6.18616e-05,-2.77275e-06,-1.97692e-05,1.31885e-05,-8.93899e-06,9.91128e-06,2.50723e-07,0
-2.88206e-05,5.22927e-05,-8.56762e-07,-2.20563e-05,1.45269e-05,-1.0257e-05,5.4457e-06,-2.55331e-06,0
-2.92212e-05,3.62024e-05,3.45178e-08,-1.99651e-05,1.48357e-05,-1.03144e-05,-4.87977e-06,-3.70813e-06,0
-3.14072e-05,1.68343e-05,-5.65918e-07,-1.80975e-05,1.28315e-05,-9.31459e-06,-1.58448e-05,-3.89285e-06,0
-3.43651e-05,-1.95373e-06,-9.70197e-07,-1.71312e-05,1.07773e-05,-9.11872e-06,-1.68697e-05,-3.82894e-06,0
-3.51023e-05,-1.65224e-05,-1.48444e-07,-1.61673e-05,1.11713e-05,-9.89482e-06,-9.35259e-06,-2.85669e-06,0
-3.38833e-05,-2.19318e-05,2.50454e-07,-1.38307e-05,1.3452e-05,-1.0175e-05,2.84528e-07,-1.49893e-06,0
-3.32707e-05,-1.8012e-05,-2.36808e-07,-8.00773e-06,1.68746e-05,-9.71738e-06,1.33931e-05,-8.88389e-07,0
-3.29084e-05,-9.12828e-06,-5.63238e-07,-1.23072e-06,2.02991e-05,-1.01949e-05,2.74739e-05,-6.51633e-07,0
-3.09527e-05,-1.7263e-06,-2.1202e-06,-2.41828e-07,2.13077e-05,-1.2075e-05,3.87205e-05,2.71167e-07,0
-2.99943e-05,2.5258e-06,-3.98701e-06,-2.29685e-06,2.02697e-05,-1.33237e-05,4.45771e-05,2.7928e-06,0
-3.06193e-05,8.48617e-06,-4.04053e-06,-3.25284e-06,1.72579e-05,-1.40967e-05,4.44573e-05,4.17278e-06,0
-3.02571e-05,1.56113e-05,-1.19459e-06,-3.62456e-06,1.39145e-05,-1.59267e-05,4.10613e-05,2.43958e-06,0
-2.87875e-05,2.06633e-05,2.64926e-06,-4.05793e-06,1.19402e-05,-1.8138e-05,3.71026e-05,6.98593e-07,0
-2.70455e-05,2.13453e-05,3.43896e-06,-4.34655e-06,9.4198e-06,-1.97167e-05,3.41472e-05,1.42892e-06,0
-2.6758e-05,1.93207e-05,7.84532e-08,-5.30346e-06,5.28592e-06,-2.04142e-05,2.91119e-05,2.36567e-06,0
-2.80324e-05,1.79871e-05,-3.47944e-06,-7.41812e-06,1.78061e-06,-2.07651e-05,2.30723e-05,7.68439e-07,0
-2.95183e-05,1.79737e-05,-3.86343e-06,-8.7534e-06,8.90806e-07,-2.06341e-05,1.73802e-05,-1.06353e-06,0
-2.99999e-05,1.82662e-05,-3.95494e-06,-7.42638e-06,3.70796e-06,-1.9616e-05,1.10154e-05,-9.59152e-08,0
-2.9306e-05,1.77296e-05,-5.61878e-06,-1.19756e-06,1.06442e-05,-1.77503e-05,4.32979e-06,1.39479e-06,0
-2.97883e-05,1.6265e-05,-7.46402e-06,7.46475e-06,2.05063e-05,-1.47765e-05,-3.76305e-07,1.83494e-06,0
-3.04825e-05,1.38288e-05,-8.91003e-06,1.0455e-05,2.67414e-05,-1.24748e-05,-1.03931e-06,2.84831e-06,0
-3.04379e-05,1.1485e-05,-1.00185e-05,2.73894e-06,2.58649e-05,-1.16926e-05,2.75754e-06,5.07388e-06,0
-3.04966e-05,9.78549e-06,-9.93874e-06,-1.06071e-05,2.25572e-05,-1.14337e-05,9.94047e-06,7.52385e-06,0
-2.94586e-05,1.01631e-05,-8.53779e-06,-2.08244e-05,1.98655e-05,-1.12734e-05,1.73343e-05,9.55158e-06,0
-2.70222e-05,1.16463e-05,-6.26106e-06,-2.51932e-05,1.78688e-05,-1.12738e-05,2.35256e-05,9.9598e-06,0
-2.46559e-05,1.29574e-05,-3.34592e-06,-2.43612e-05,1.54249e-05,-1.15842e-05,2.57054e-05,8.00799e-06,0
-2.36182e-05,1.35203e-05,-5.21403e-07,-2.11817e-05,1.22909e-05,-1.21865e-05,2.41038e-05,5.45523e-06,0
-2.32793e-05,1.23966e-05,1.22226e-06,-2.07475e-05,9.69257e-06,-1.34932e-05,2.18454e-05,3.34697e-06,0
-2.37899e-05,1.09427e-05,1.51751e-06,-2.42325e-05,9.33556e-06,-1.50966e-05,1.96963e-05,2.36816e-06,0
-2.63213e-05,9.34883e-06,6.67572e-07,-2.45884e-05,1.14506e-05,-1.60688e-05,1.61841e-05,2.24125e-06,0
-2.95718e-05,6.34259e-06,-4.63326e-07,-1.79313e-05,1.32915e-05,-1.49055e-05,1.27863e-05,1.81752e-06,0
-3.14154e-05,1.59693e-06,-1.03218e-06,-9.72895e-06,1.34031e-05,-1.18778e-05,1.05332e-05,1.31983e-06,0
-3.17353e-05,-3.65882e-06,-2.35565e-06,-3.86136e-06,1.46713e-05,-9.0401e-06,9.37175e-06,2.08698e-06,0
-3.07689e-05,-6.40901e-06,-6.25166e-06,7.98848e-06,1.69451e-05,-7.31259e-06,9.81602e-06,2.85808e-06,0
-3.03695e-05,-7.09498e-06,-1.13995e-05,2.94157e-05,1.62185e-05,-6.24975e-06,1.10086e-05,2.55402e-06,0
-3.21724e-05,-1.07355e-05,-1.36999e-05,5.28682e-05,1.18799e-05,-5.90119e-06,1.18262e-05,3.44319e-06,0
-3.44479e-05,-1.55079e-05,-1.18074e-05,7.0439e-05,9.71125e-06,-7.43691e-06,1.27715e-05,5.47266e-06,0
-3.51246e-05,-1.81659e-05,-9.77971e-06,7.61044e-05,1.12142e-05,-9.18429e-06,1.39051e-05,5.82319e-06,0
-3.4923e-05,-2.07445e-05,-8.92719e-06,6.99776e-05,1.31933e-05,-8.21023e-06,1.54976e-05,5.24913e-06,0
-3.37378e-05,-2.26544e-05,-8.3086e-06,5.39138e-05,1.45201e-05,-5.67241e-06,1.73912e-05,5.45342e-06,0
-3.29825e-05,-2.21269e-05,-8.00955e-06,3.50512e-05,1.44605e-05,-2.89201e-06,1.70585e-05,6.11647e-06,0
-3.30399e-05,-1.7804e-05,-8.4903e-06,1.95624e-05,1.27222e-05,-2.09104e-06,1.29773e-05,7.39054e-06,0
-3.26359e-05,-1.17914e-05,-1.08222e-05,1.12486e-05,9.75691e-06,-3.07446e-06,8.43492e-06,8.56592e-06,0
-3.23829e-05,-7.22796e-06,-1.2216e-05,7.06845e-06,7.21315e-06,-2.57205e-06,7.13297e-06,8.23003e-06,0
-3.24862e-05,-4.4988e-06,-1.12755e-05,2.72555e-06,5.70349e-06,-1.03656e-06,7.12161e-06,7.5665e-06,0
-3.24917e-05,-3.89828e-06,-1.01324e-05,-7.30364e-07,5.19266e-06,-1.02265e-06,6.89549e-06,8.28337e-06,0
-3.30188e-05,-3.99482e-06,-9.15751e-06,-2.40776e-06,4.9644e-06,-2.27228e-06,5.78334e-06,1.00328e-05,0
-3.31726e-05,-3.83941e-06,-7.33812e-06,-2.39323e-06,4.31491e-06,-3.46147e-06,5.1177e-06,1.20302e-05,0
-3.04447e-05,-2.70576e-06,-6.37666e-06,-2.10747e-06,4.28541e-06,-4.26224e-06,6.19095e-06,1.29802e-05,0
-2.70934e-05,-1.67198e-06,-8.27685e-06,-2.70459e-06,5.7136e-06,-4.63371e-06,7.98736e-06,1.30336e-05,0
-2.61472e-05,-1.4023e-06,-1.04868e-05,-4.92729e-06,6.57682e-06,-4.8286e-06,8.60312e-06,1.27436e-05,0
-2.76022e-05,-1.55529e-06,-1.10354e-05,-7.13147e-06,4.90231e-06,-5.01818e-06,8.46082e-06,1.29364e-05,0
-2.93646e-05,-1.43186e-06,-1.09101e-05,-1.00632e-05,2.41726e-06,-6.12833e-06,8.54431e-06,1.44041e-05,0
-3.07427e-05,-7.89481e-07,-1.04525e-05,-1.23123e-05,2.10557e-06,-7.05871e-06,8.43384e-06,1.59577e-05,0
-3.08394e-05,-4.99913e-07,-8.91486e-06,-1.3461e-05,4.21588e-06,-6.76117e-06,7.9675e-06,1.61917e-05,0
-3.01767e-05,-3.59497e-07,-7.47487e-06,-1.53626e-05,6.64558e-06,-6.36749e-06,7.74474e-06,1.41773e-05,0
-3.04218e-05,4.58833e-07,-7.55379e-06,-1.7617e-05,8.03254e-06,-7.45831e-06,8.81679e-06,1.03941e-05,0
-3.11656e-05,2.65413e-06,-7.87401e-06,-1.62181e-05,1.08046e-05,-7.82651e-06,1.14545e-05,7.71038e-06,0
-3.16402e-05,6.22714e-06,-7.71451e-06,-1.14118e-05,1.61246e-05,-7.09677e-06,1.42171e-05,6.22188e-06,0
-3.06319e-05,8.24233e-06,-7.38162e-06,-7.46733e-06,2.11769e-05,-8.21075e-06,1.52742e-05,3.81169e-06,0
-2.87004e-05,6.3556e-06,-5.64854e-06,-5.06975e-06,2.35635e-05,-1.04269e-05,1.5176e-05,9.03904e-07,0
-2.75032e-05,4.00767e-06,-2.76966e-06,-3.82062e-06,2.31547e-05,-1.09942e-05,1.38609e-05,-2.19229e-06,0
-2.67055e-05,5.92714e-06,-2.17609e-06,-5.24674e-06,2.43713e-05,-1.02949e-05,1.2293e-05,-3.19096e-06,0
-2.74541e-05,1.11203e-05,-3.01505e-06,-9.33891e-06,2.61362e-05,-9.40473e-06,1.15568e-05,-1.83461e-06,0
-2.73539e-05,1.47295e-05,-3.38413e-06,-1.5797e-05,2.4243e-05,-8.24297e-06,1.05762e-05,-1.59856e-06,0
-2.49811e-05,1.59351e-05,-3.84057e-06,-2.29045e-05,2.1104e-05,-7.75022e-06,1.13097e-05,-1.86622e-06,0
-2.42864e-05,1.61212e-05,-3.84413e-06,-2.67852e-05,1.65765e-05,-7.84981e-06,1.41709e-05,-2.27679e-06,0
-2.52912e-05,1.72425e-05,-5.76231e-06,-2.58319e-05,1.18363e-05,-8.23107e-06,1.59773e-05,-2.50116e-06,0
-2.58582e-05,1.76945e-05,-1.00411e-05,-2.23253e-05,9.89728e-06,-8.32211e-06,1.6284e-05,-1.73023e-06,0
-2.63088e-05,1.61425e-05,-1.30654e-05,-1.85276e-05,1.19045e-05,-8.28694e-06,1.5061e-05,-2.02106e-06,0
-2.76431e-05,1.28791e-05,-1.35768e-05,-1.41605e-05,1.48966e-05,-9.96956e-06,1.37656e-05,-2.01709e-06,0
-2.82949e-05,9.64815e-06,-1.36778e-05,-1.26272e-05,1.49238e-05,-1.12752e-05,1.49246e-05,-1.14661e-06,0
-2.87122e-05,9.17845e-06,-1.48309e-05,-1.33346e-05,1.36412e-05,-9.61943e-06,1.73739e-05,-3.52383e-07,0
-2.97023e-05,1.12844e-05,-1.643e-05,-1.26762e-05,1.40471e-05,-7.07602e-06,1.88154e-05,1.43096e-06,0
-2.99282e-05,1.43294e-05,-1.65439e-05,-1.0832e-05,1.56807e-05,-6.46324e-06,1.89601e-05,2.90796e-06,0
-2.94446e-05,1.6905e-05,-1.41817e-05,-9.10604e-06,1.48294e-05,-8.50606e-06,1.8683e-05,1.91903e-06,0
-3.06536e-05,1.88244e-05,-1.15105e-05,-7.37549e-06,1.10211e-05,-1.01951e-05,1.78494e-05,-8.51901e-07,0
-3.31841e-05,1.96626e-05,-1.09791e-05,-5.54781e-06,7.22372e-06,-1.07596e-05,1.60995e-05,-2.66387e-06,0
-3.45384e-05,2.03329e-05,-1.33357e-05,-4.65295e-06,5.89539e-06,-1.25068e-05,1.28648e-05,-2.41884e-06,0
-3.35936e-05,2.22324e-05,-1.64363e-05,-4.13636e-06,5.80791e-06,-1.52234e-05,6.12649e-06,-1.15856e-06,0
-3.1437e-05,2.5821e-05,-1.82205e-05,-1.49607e-06,5.957e-06,-1.71552e-05,-6.48949e-06,-1.06213e-06,0
-2.97924e-05,2.9899e-05,-1.81973e-05,2.0989e-06,6.8317e-06,-1.75361e-05,-2.05999e-05,-2.17794e-06,0
-2.93751e-05,3.27321e-05,-1.75227e-05,3.58478e-06,8.66071e-06,-1.60902e-05,-2.63975e-05,-3.50025e-06,0
-3.01832e-05,3.39914e-05,-1.69246e-05,2.93715e-06,1.15965e-05,-1.42708e-05,-1.90024e-05,-4.34895e-06,0
-3.11213e-05,3.50647e-05,-1.55091e-05,1.30087e-06,1.47367e-05,-1.27872e-05,-2.77184e-06,-3.45768e-06,0
-3.09527e-05,3.41196e-05,-1.30984e-05,-8.66291e-07,1.66317e-05,-1.26109e-05,1.2281e-05,-1.43639e-06,0
-2.95422e-05,3.21915e-05,-1.00514e-05,-2.4631e-06,1.76601e-05,-1.40803e-05,2.35059e-05,-7.0319e-07,0
-2.8166e-05,3.28809e-05,-7.1217e-06,-2.96215e-06,1.87538e-05,-1.46382e-05,3.15494e-05,-2.96495e-06,0
-2.82181e-05,3.32168e-05,-4.45806e-06,-4.10886e-06,2.18053e-05,-1.33841e-05,3.6337e-05,-5.45582e-06,0
-2.93058e-05,3.18534e-05,-4.318e-07,-9.07588e-06,2.64347e-05,-1.08126e-05,3.53208e-05,-4.78873e-06,0
-2.94295e-05,3.21432e-05,1.30687e-06,-1.6624e-05,3.04842e-05,-8.00743e-06,2.88551e-05,-4.32493e-06,0
-2.83158e-05,3.30787e-05,-1.40687e-06,-2.11851e-05,3.36351e-05,-5.53308e-06,2.37986e-05,-5.20127e-06,0
-2.72938e-05,3.1795e-05,-4.18844e-06,-2.07649e-05,3.29902e-05,-5.34503e-06,2.1513e-05,-5.2829e-06,0
-2.70822e-05,2.98458e-05,-6.00222e-06,-1.82284e-05,3.01252e-05,-5.54739e-06,2.06321e-05,-4.48583e-06,0
-2.73386e-05,2.83992e-05,-6.64022e-06,-1.48579e-05,2.93725e-05,-4.47154e-06,2.02117e-05,-3.1978e-06,0
-2.70511e-05,2.74475e-05,-5.87593e-06,-8.85711e-06,2.76028e-05,-3.97918e-06,2.10112e-05,-3.69075e-06,0
-2.55744e-05,2.60577e-05,-3.63088e-06,-1.6085e-07,2.40486e-05,-3.63487e-06,2.22674e-05,-4.18979e-06,0
-2.55561e-05,2.42842e-05,-3.77505e-06,8.32631e-06,2.07718e-05,-2.94649e-06,2.45106e-05,-4.6307e-06,0
-2.72807e-05,2.49366e-05,-7.30481e-06,1.06092e-05,1.78812e-05,-2.1947e-06,2.71655e-05,-4.93948e-06,0
-2.98479e-05,2.85179e-05,-9.63645e-06,8.48647e-06,1.73204e-05,-2.46428e-06,2.87044e-05,-3.32281e-06,0
-3.25135e-05,3.17348e-05,-8.17047e-06,1.50355e-05,1.85979e-05,-4.15535e-06,2.95747e-05,-2.47656e-07,0
-3.33867e-05,3.21136e-05,-5.22009e-06,3.21332e-05,1.81397e-05,-6.17423e-06,3.02203e-05,1.6047e-06,0
-3.26946e-05,3.07576e-05,-3.23615e-06,4.03317e-05,1.36506e-05,-6.93519e-06,3.07539e-05,-5.73164e-07,0
-3.18841e-05,2.94277e-05,-3.73715e-06,2.6921e-05,9.02465e-06,-7.38732e-06,3.00228e-05,-2.76976e-06,0
-3.20788e-05,2.88434e-05,-6.63461e-06,5.82135e-07,7.17302e-06,-8.04718e-06,2.83834e-05,-2.19184e-06,0
-3.23727e-05,2.98995e-05,-8.32299e-06,-2.13319e-05,7.09065e-06,-8.39002e-06,2.67001e-05,-3.60529e-07,0
-3.30197e-05,3.20704e-05,-7.64584e-06,-2.84473e-05,6.87387e-06,-8.44884e-06,2.778e-05,4.16809e-07,0
-3.4499e-05,3.29109e-05,-5.58937e-06,-2.35605e-05,5.69031e-06,-8.49602e-06,3.37946e-05,-9.67576e-07,0
-3.50134e-05,3.2151e-05,-4.92392e-06,-1.61882e-05,4.60304e-06,-8.46413e-06,4.20497e-05,-4.4036e-06,0
-3.37136e-05,3.24447e-05,-5.54565e-06,-1.33639e-05,5.1415e-06,-8.48195e-06,4.67885e-05,-6.85571e-06,0
-3.18989e-05,3.44802e-05,-7.12232e-06,-1.75519e-05,8.19005e-06,-8.11229e-06,4.44602e-05,-6.36033e-06,0
-3.0708e-05,3.63575e-05,-8.81696e-06,-2.59624e-05,1.22655e-05,-6.65605e-06,3.66199e-05,-4.86236e-06,0
-3.20908e-05,3.75812e-05,-8.30661e-06,-3.01482e-05,1.72137e-05,-6.42761e-06,2.79781e-05,-4.19693e-06,0
-3.43799e-05,4.31681e-05,-7.28206e-06,-2.93726e-05,2.37717e-05,-8.5275e-06,1.94779e-05,-4.15398e-06,0
-3.38587e-05,5.27864e-05,-8.16411e-06,-2.84996e-05,2.95906e-05,-9.69878e-06,1.08736e-05,-3.74091e-06,0
-3.21528e-05,5.50585e-05,-9.31941e-06,-2.91571e-05,2.98143e-05,-9.90918e-06,2.89207e-06,-3.35969e-06,0
-3.25266e-05,4.84025e-05,-1.09647e-05,-3.33694e-05,2.30121e-05,-1.15653e-05,-5.09813e-06,-1.02711e-06,0
-3.21069e-05,4.12491e-05,-1.21323e-05,-4.18811e-05,1.53695e-05,-1.22956e-05,-1.11349e-05,1.62142e-06,0
-2.93031e-05,3.60133e-05,-1.11314e-05,-5.01844e-05,1.07105e-05,-1.08071e-05,-1.25152e-05,6.441e-07,0
-2.70257e-05,3.01112e-05,-9.36004e-06,-5.18484e-05,8.26345e-06,-8.88579e-06,-1.0615e-05,-2.13285e-06,0
-2.54445e-05,2.47733e-05,-7.81337e-06,-4.68301e-05,8.43665e-06,-9.31248e-06,-6.84888e-06,-4.58535e-06,0
-2.58219e-05,2.11762e-05,-7.31595e-06,-3.96155e-05,8.59209e-06,-1.07954e-05,-3.65924e-06,-4.64476e-06,0
-2.70397e-05,1.64477e-05,-7.94569e-06,-3.41082e-05,8.7417e-06,-1.05285e-05,-1.49885e-06,-3.08212e-06,0
-2.83679e-05,7.25139e-06,-7.98413e-06,-3.03261e-05,9.9636e-06,-9.58322e-06,-2.30154e-07,-1.46636e-06,0
-3.11674e-05,-3.53315e-06,-6.37001e-06,-1.15721e-05,1.20724e-05,-9.11061e-06,-1.19697e-06,-1.80138e-07,0
-3.32875e-05,-7.94617e-06,-6.07243e-06,3.66951e-05,1.30881e-05,-1.00775e-05,-2.43213e-06,-7.6505e-07,0
-3.38885e-05,-6.44825e-06,-7.09642e-06,9.31457e-05,1.24159e-05,-1.21743e-05,-1.90733e-06,-2.0656e-06,0
-3.3933e-05,-4.34561e-06,-7.07815e-06,0.000122525,1.26947e-05,-1.44075e-05,-1.5639e-07,-2.35795e-06,0
-3.31134e-05,-4.62874e-06,-5.52867e-06,0.000111726,1.31635e-05,-1.66912e-05,2.33645e-06,-2.5495e-06,0
-3.14821e-05,-5.53796e-06,-4.53556e-06,7.40681e-05,1.2544e-05,-1.89406e-05,4.71921e-06,-3.95719e-06,0
-2.98416e-05,-5.66789e-06,-5.06054e-06,2.99445e-05,1.16835e-05,-1.98946e-05,3.94955e-06,-5.55632e-06,0
-2.95095e-05,-7.63357e-06,-5.59178e-06,-1.12008e-05,1.10995e-05,-1.80719e-05,6.94061e-07,-6.22399e-06,0
-3.05747e-05,-1.19523e-05,-4.43136e-06,-4.43165e-05,9.06113e-06,-1.46995e-05,-1.59708e-06,-5.4732e-06,0
-3.18615e-05,-1.45302e-05,-2.70327e-06,-6.1688e-05,5.8795e-06,-1.24052e-05,-5.78043e-07,-3.79479e-06,0
-3.20908e-05,-1.32866e-05,-3.11324e-06,-6.37129e-05,4.1377e-06,-1.27802e-05,2.46163e-06,-3.09968e-06,0
-3.09282e-05,-1.10852e-05,-4.92633e-06,-6.24716e-05,5.04085e-06,-1.40949e-05,5.85131e-06,-4.21207e-06,0
-2.96064e-05,-8.66678e-06,-6.07309e-06,-6.43114e-05,6.40104e-06,-1.43596e-05,8.74888e-06,-5.50891e-06,0
-2.87691e-05,-5.48579e-06,-7.63543e-06,-6.49995e-05,5.93904e-06,-1.47959e-05,1.15591e-05,-5.61824e-06,0
-2.82584e-05,-2.25701e-06,-1.0961e-05,-5.94395e-05,3.73953e-06,-1.60631e-05,1.60739e-05,-3.94305e-06,0
-2.82909e-05,7.71637e-07,-1.44862e-05,-4.66493e-05,4.62287e-07,-1.7339e-05,2.47766e-05,-1.4545e-06,0
-2.93143e-05,4.34284e-06,-1.6188e-05,-2.77251e-05,-5.76428e-07,-1.71769e-05,3.69535e-05,6.44913e-07,0
-2.99813e-05,6.54505e-06,-1.48768e-05,-7.77073e-06,1.01581e-06,-1.51268e-05,4.75629e-05,1.82343e-06,0
-2.92033e-05,6.55145e-06,-1.1409e-05,7.54054e-06,2.05118e-06,-1.35942e-05,5.23944e-05,2.45744e-06,0
-2.69916e-05,6.53767e-06,-7.23326e-06,1.94153e-05,5.14932e-06,-1.35953e-05,4.96398e-05,1.61322e-06,0
-2.51276e-05,5.89867e-06,-5.14409e-06,2.29199e-05,7.60898e-06,-1.35981e-05,4.03182e-05,-3.23945e-07,0
-2.52269e-05,4.18884e-06,-3.75444e-06,1.6131e-05,7.06153e-06,-1.30858e-05,2.75112e-05,-4.5427e-07,0
-2.56599e-05,5.75004e-07,-1.33526e-06,8.35927e-06,6.95351e-06,-1.21176e-05,1.18665e-05,-1.3234e-07,0
-2.61267e-05,-2.17158e-06,-3.69327e-07,3.9805e-06,7.3111e-06,-1.16309e-05,-5.5608e-06,-5.61638e-07,0
-2.77705e-05,-6.70122e-07,-1.71522e-06,1.53143e-06,8.42476e-06,-1.13708e-05,-2.20351e-05,-1.31772e-07,0
-2.90093e-05,8.58662e-07,-4.30056e-06,1.14138e-06,9.50612e-06,-1.09925e-05,-3.07984e-05,8.94242e-07,0
-2.9585e-05,9.63882e-07,-6.11032e-06,3.17188e-06,1.08698e-05,-1.10204e-05,-2.94646e-05,1.78631e-06,0
-3.09003e-05,3.71573e-06,-7.51696e-06,4.36708e-06,1.195e-05,-1.11761e-05,-2.42567e-05,2.0494e-06,0
-3.27764e-05,1.00425e-05,-9.20914e-06,3.23575e-06,1.16083e-05,-1.17098e-05,-1.815e-05,1.05469e-06,0
-3.41337e-05,1.60152e-05,-1.14608e-05,-3.42816e-08,1.1131e-05,-1.22806e-05,-1.22857e-05,4.14729e-07,0
-3.43877e-05,2.2178e-05,-1.52565e-05,-5.07157e-06,1.15126e-05,-1.217e-05,-6.77004e-06,1.95525e-06,0
-3.44232e-05,2.92408e-05,-1.87013e-05,-1.0907e-05,1.17442e-05,-1.2295e-05,-2.33298e-06,4.18751e-06,0
-3.41175e-05,3.52449e-05,-1.90404e-05,-1.45865e-05,1.23847e-05,-1.36805e-05,1.31092e-06,3.61306e-06,0
-3.29597e-05,3.67733e-05,-1.70436e-05,-1.36191e-05,1.28549e-05,-1.5041e-05,3.48349e-06,2.16001e-06,0
-3.14021e-05,2.82734e-05,-1.54238e-05,-8.82559e-06,1.07639e-05,-1.51707e-05,5.83979e-06,2.77624e-06,0
-3.12713e-05,8.08978e-06,-1.41905e-05,-4.72923e-06,7.02267e-06,-1.48236e-05,9.90325e-06,4.74547e-06,0
-3.2974e-05,-1.76938e-05,-1.2075e-05,-6.04491e-06,3.93302e-06,-1.47752e-05,1.46201e-05,6.36283e-06,0
-3.47317e-05,-3.95346e-05,-9.58666e-06,-9.81891e-06,2.48474e-06,-1.52399e-05,1.74039e-05,6.94038e-06,0
-3.50517e-05,-5.16741e-05,-8.15239e-06,-1.04002e-05,2.51081e-06,-1.56061e-05,1.67326e-05,6.20192e-06,0
-3.37158e-05,-5.2107e-05,-7.77015e-06,-6.31206e-06,2.89703e-06,-1.47121e-05,1.47846e-05,4.89578e-06,0
-3.26242e-05,-4.29302e-05,-7.14329e-06,7.25703e-07,3.00036e-06,-1.27225e-05,1.28657e-05,3.62287e-06,0
-3.34006e-05,-2.92823e-05,-6.65899e-06,9.53942e-06,3.9784e-06,-1.06489e-05,1.14985e-05,2.40504e-06,0
-3.42884e-05,-1.83252e-05,-6.99758e-06,2.12596e-05,5.5115e-06,-8.51168e-06,1.23784e-05,1.69029e-06,0
-3.34171e-05,-1.33373e-05,-7.39852e-06,3.45202e-05,8.51408e-06,-6.36711e-06,1.62049e-05,1.03937e-06,0
-3.20883e-05,-1.2366e-05,-7.12027e-06,4.31483e-05,1.191e-05,-4.95763e-06,1.9557e-05,1.09419e-06,0
-3.11407e-05,-1.36526e-05,-5.80373e-06,4.1958e-05,1.10414e-05,-4.35052e-06,1.9417e-05,6.45434e-07,0
-3.05713e-05,-1.68867e-05,-2.59628e-06,3.04822e-05,8.56167e-06,-5.87481e-06,1.74024e-05,-4.31098e-07,0
-3.01343e-05,-1.73516e-05,1.29191e-07,1.5985e-05,8.68331e-06,-8.45623e-06,1.71963e-05,-1.0886e-06,0
-3.0499e-05,-1.34835e-05,2.82421e-07,4.64408e-06,8.89194e-06,-8.47552e-06,1.7362e-05,-8.40284e-07,0
-3.0232e-05,-8.95234e-06,-8.81624e-07,-1.65584e-06,8.15119e-06,-6.48279e-06,1.67449e-05,-2.09127e-07,0
-2.81763e-05,-3.61349e-06,-1.26558e-06,-6.05387e-08,8.37844e-06,-3.71321e-06,1.68195e-05,-7.69801e-07,0
-2.87346e-05,2.36843e-06,-1.32431e-06,8.74938e-06,1.14375e-05,-7.40002e-07,1.56745e-05,-1.18794e-06,0
-3.12841e-05,8.10897e-06,-2.44817e-06,1.63273e-05,1.46236e-05,1.4599e-06,1.25931e-05,-8.14598e-07,0
-3.14833e-05,1.22219e-05,-4.40437e-06,1.43044e-05,1.52641e-05,2.88513e-06,1.04887e-05,-5.65621e-07,0
-3.03903e-05,1.33954e-05,-6.4617e-06,1.35584e-06,1.47853e-05,3.75919e-06,1.02517e-05,-1.1204e-07,0
-2.96025e-05,1.26586e-05,-7.58205e-06,-1.64014e-05,1.38669e-05,4.06297e-06,1.13598e-05,7.42539e-07,0
-2.95126e-05,1.24263e-05,-8.61751e-06,-2.9297e-05,1.15024e-05,1.92406e-06,1.2618e-05,1.01859e-06,0
-3.06469e-05,1.3248e-05,-1.02743e-05,-3.21008e-05,9.19249e-06,-1.1125e-06,1.36014e-05,1.71193e-07,0
-3.12289e-05,1.42393e-05,-1.29016e-05,-2.504e-05,8.90094e-06,-2.32557e-06,1.44654e-05,2.60023e-08,0
-3.04861e-05,1.51715e-05,-1.54835e-05,-1.46987e-05,9.76497e-06,-2.0207e-06,1.55224e-05,1.73542e-06,0
-2.97294e-05,1.6845e-05,-1.75202e-05,-6.70539e-06,1.1839e-05,-5.74863e-07,1.57879e-05,4.01449e-06,0
-2.99913e-05,1.92319e-05,-1.76646e-05,-1.70912e-06,1.51297e-05,1.13074e-06,1.52857e-05,5.03876e-06,0
-3.04282e-05,2.13533e-05,-1.59187e-05,2.7079e-06,1.86109e-05,1.42715e-06,1.58272e-05,4.14259e-06,0
-2.98792e-05,2.23717e-05,-1.4942e-05,6.68329e-06,2.09103e-05,-6.08364e-08,1.73737e-05,3.05663e-06,0
-2.92791e-05,2.18437e-05,-1.3746e-05,8.33094e-06,2.16111e-05,-1.60208e-06,1.89664e-05,3.24802e-06,0
-2.99325e-05,2.05296e-05,-9.08831e-06,6.54743e-06,1.9593e-05,-2.40979e-06,1.95704e-05,4.57709e-06,0
-3.10901e-05,2.17841e-05,-1.2381e-06,2.70424e-06,1.62992e-05,-3.10518e-06,1.83907e-05,4.63146e-06,0
-3.11074e-05,2.64886e-05,8.90736e-06,-6.65653e-07,1.46288e-05,-3.91282e-06,1.67261e-05,3.32227e-06,0
-2.95203e-05,3.1225e-05,2.21822e-05,-4.50482e-07,1.62452e-05,-4.21829e-06,1.70278e-05,3.93229e-06,0
-2.6446e-05,3.44233e-05,3.88253e-05,5.08074e-06,2.0475e-05,-4.55162e-06,1.78971e-05,6.83084e-06,0
-2.49052e-05,3.56618e-05,5.8051e-05,1.27661e-05,2.34846e-05,-4.9021e-06,1.77981e-05,9.0275e-06,0
-2.71707e-05,3.55517e-05,7.32379e-05,1.93865e-05,2.31654e-05,-5.54878e-06,1.57674e-05,7.70822e-06,0
-3.04905e-05,3.5907e-05,7.43701e-05,2.17868e-05,2.24107e-05,-6.8747e-06,1.32482e-05,5.33961e-06,0
-3.09017e-05,3.59536e-05,5.42258e-05,1.76053e-05,2.22823e-05,-8.82768e-06,1.35117e-05,4.41099e-06,0
-2.8856e-05,3.52036e-05,1.69576e-05,8.72688e-06,2.00834e-05,-1.18892e-05,1.55442e-05,4.58794e-06,0
-2.74699e-05,3.66838e-05,-2.71264e-05,1.10394e-06,1.81053e-05,-1.46204e-05,1.48828e-05,4.90445e-06,0
-2.75973e-05,3.69351e-05,-6.77927e-05,-5.47194e-06,1.91794e-05,-1.50163e-05,1.33232e-05,6.52738e-06,0
-2.76223e-05,3.53169e-05,-9.22306e-05,-1.22983e-05,2.00555e-05,-1.37073e-05,1.29854e-05,8.90724e-06,0
-2.73632e-05,3.61163e-05,-9.61625e-05,-1.72612e-05,1.83039e-05,-1.18151e-05,1.00903e-05,7.86897e-06,0
-2.71747e-05,3.95631e-05,-8.53272e-05,-1.86945e-05,1.56978e-05,-1.01952e-05,6.30084e-06,4.71809e-06,0
-2.80905e-05,4.34069e-05,-6.90307e-05,-1.85558e-05,1.59715e-05,-9.19547e-06,5.43722e-06,1.96566e-06,0
-2.95971e-05,4.41e-05,-5.43974e-05,-1.95467e-05,1.84244e-05,-8.09663e-06,7.81035e-06,1.03798e-06,0
-2.90843e-05,4.19481e-05,-4.26831e-05,-2.24634e-05,1.77107e-05,-7.05877e-06,1.24416e-05,1.31071e-06,0
-2.74108e-05,3.84651e-05,-3.23601e-05,-2.45402e-05,1.53546e-05,-6.79459e-06,1.55775e-05,1.67171e-06,0
-2.59831e-05,3.38208e-05,-2.20998e-05,-2.22404e-05,1.36137e-05,-6.7324e-06,1.49897e-05,2.19309e-06,0
-2.52449e-05,2.62578e-05,-1.32878e-05,-1.67075e-05,1.23717e-05,-5.84525e-06,1.45764e-05,2.19938e-06,0
-2.45243e-05,1.68339e-05,-7.07156e-06,-1.13425e-05,1.21274e-05,-4.69763e-06,1.53071e-05,1.22547e-06,0
-2.52605e-05,9.19732e-06,-3.24304e-06,-8.375e-06,1.36044e-05,-4.71591e-06,1.53462e-05,7.30267e-07,0
-2.80951e-05,5.53472e-06,-1.24257e-06,-6.45908e-06,1.51237e-05,-6.6066e-06,1.50817e-05,1.98886e-06,0
-3.127e-05,5.17304e-06,-1.66725e-06,-5.58105e-06,1.44141e-05,-9.3036e-06,1.49053e-05,2.35743e-06,0
-3.25303e-05,7.37159e-06,-2.17254e-06,-4.48652e-06,1.26624e-05,-1.15872e-05,1.39955e-05,3.93552e-07,0
-3.19565e-05,1.13576e-05,1.82768e-07,-3.18621e-06,1.06591e-05,-1.27121e-05,1.3094e-05,-1.0931e-06,0
-3.13683e-05,1.56341e-05,3.18582e-06,-4.12397e-06,9.06169e-06,-1.18319e-05,1.32145e-05,-8.97343e-07,0
-3.05947e-05,1.8213e-05,3.9935e-06,-7.06717e-06,8.35618e-06,-9.23879e-06,1.32661e-05,-9.42237e-07,0
-3.01326e-05,1.90132e-05,2.25607e-06,-8.83149e-06,8.99356e-06,-7.34355e-06,1.19997e-05,-7.89219e-07,0
-3.12869e-05,1.90563e-05,-2.55532e-07,-8.45032e-06,1.05743e-05,-7.51742e-06,8.76043e-06,-4.59418e-07,0
-3.36061e-05,1.81285e-05,-3.70592e-06,-7.80456e-06,1.17837e-05,-8.70338e-06,7.08377e-07,-8.65585e-07,0
-3.42047e-05,1.86887e-05,-7.75132e-06,-8.71868e-06,1.33054e-05,-8.53013e-06,-1.23336e-05,-7.21568e-07,0
-3.30127e-05,1.95908e-05,-9.81628e-06,-9.68915e-06,1.6227e-05,-9.38083e-06,-1.94054e-05,1.52015e-07,0
-3.25053e-05,2.0566e-05,-9.2263e-06,-7.98151e-06,1.94567e-05,-1.20986e-05,-1.47692e-05,3.33691e-07,0
-3.26101e-05,2.22403e-05,-8.2523e-06,-2.43591e-06,2.02219e-05,-1.32026e-05,-2.43271e-06,4.70062e-07,0
-3.23931e-05,2.05524e-05,-7.14601e-06,4.07379e-06,1.80709e-05,-1.38287e-05,1.13684e-05,1.06069e-06,0
-3.25281e-05,1.60519e-05,-6.8491e-06,8.29757e-06,1.67533e-05,-1.43733e-05,2.25795e-05,2.37721e-06,0
-3.34298e-05,1.30471e-05,-8.40677e-06,8.72649e-06,1.68435e-05,-1.40801e-05,3.10492e-05,3.67687e-06,0
-3.3621e-05,1.27478e-05,-1.00901e-05,3.28536e-06,1.74618e-05,-1.36384e-05,3.6627e-05,5.04134e-06,0
-3.30576e-05,1.35722e-05,-1.01297e-05,-2.96588e-06,1.74415e-05,-1.33834e-05,4.13112e-05,7.58717e-06,0
-3.27022e-05,1.30227e-05,-8.62494e-06,-4.77374e-06,1.61574e-05,-1.37588e-05,4.31612e-05,9.68639e-06,0
-3.17983e-05,1.16865e-05,-9.03365e-06,-5.33011e-06,1.65577e-05,-1.46886e-05,4.06777e-05,1.04811e-05,0
-3.16616e-05,1.05635e-05,-1.11998e-05,-9.74447e-06,1.93594e-05,-1.49314e-05,3.50071e-05,1.0467e-05,0
-3.10051e-05,9.47218e-06,-1.22131e-05,-1.77685e-05,2.05232e-05,-1.54845e-05,2.77043e-05,9.67867e-06,0
-2.90222e-05,8.63716e-06,-1.14456e-05,-2.30016e-05,1.92098e-05,-1.65062e-05,2.25298e-05,8.23876e-06,0
-2.74567e-05,8.03879e-06,-1.14675e-05,-2.28089e-05,1.79808e-05,-1.68572e-05,2.05425e-05,7.39203e-06,0
-2.6701e-05,7.75074e-06,-1.27987e-05,-2.00047e-05,1.82848e-05,-1.70271e-05,1.94884e-05,6.75778e-06,0
-2.63047e-05,7.40164e-06,-1.42039e-05,-1.58102e-05,2.00793e-05,-1.72724e-05,1.71081e-05,5.64573e-06,0
-2.59623e-05,7.22781e-06,-1.56443e-05,-1.06365e-05,2.08742e-05,-1.64505e-05,1.50529e-05,5.1456e-06,0
-2.57811e-05,7.39292e-06,-1.56138e-05,-5.50389e-06,1.95271e-05,-1.52035e-05,1.51334e-05,6.05537e-06,0
-2.63052e-05,6.87101e-06,-1.33314e-05,-2.60116e-06,1.78774e-05,-1.55735e-05,1.6235e-05,6.29632e-06,0
-2.77311e-05,4.22878e-06,-1.09305e-05,-2.94318e-06,1.76177e-05,-1.60058e-05,1.59747e-05,4.03759e-06,0
-2.90071e-05,9.4033e-07,-1.0085e-05,-6.82531e-06,1.73101e-05,-1.53772e-05,1.26871e-05,1.99692e-06,0
-3.0402e-05,-8.70912e-07,-8.91579e-06,-1.16149e-05,1.61684e-05,-1.49572e-05,5.90441e-06,2.58183e-06,0
-3.13311e-05,-7.91293e-07,-7.34328e-06,-1.45329e-05,1.48602e-05,-1.49677e-05,-1.73949e-06,2.8661e-06,0
-3.05433e-05,-3.10027e-07,-5.97969e-06,-1.57937e-05,1.43418e-05,-1.44695e-05,-6.01987e-06,6.00847e-07,0
-3.01298e-05,-1.22424e-06,-4.50781e-06,-1.53641e-05,1.453e-05,-1.41567e-05,-5.06846e-06,-1.32063e-06,0
-3.14401e-05,-2.92335e-06,-3.30388e-06,-1.32857e-05,1.44522e-05,-1.38743e-05,-1.91368e-07,9.66146e-09,0
-3.11642e-05,-3.7298e-06,-1.67429e-06,-1.15096e-05,1.42074e-05,-1.38663e-05,6.54762e-06,2.62376e-06,0
-2.95037e-05,-3.55076e-06,-4.30698e-07,-8.63662e-06,1.51659e-05,-1.42725e-05,1.36843e-05,4.7189e-06,0
-2.85279e-05,-4.09663e-06,-2.58241e-07,-1.20288e-06,1.64069e-05,-1.39673e-05,1.87537e-05,6.62276e-06,0
-2.83969e-05,-4.82595e-06,-5.12201e-07,7.49676e-06,1.60722e-05,-1.25336e-05,2.03971e-05,8.56962e-06,0
-2.83484e-05,-1.74036e-06,-2.6331e-06,9.21231e-06,1.58461e-05,-1.00566e-05,1.89287e-05,8.09917e-06,0
-2.97663e-05,1.28919e-05,-4.64799e-06,4.6532e-06,1.72872e-05,-1.03236e-05,1.64241e-05,4.89793e-06,0
-3.16566e-05,3.55841e-05,-5.38885e-06,1.72994e-07,1.81403e-05,-1.25849e-05,1.28462e-05,4.32134e-06,0
-3.22426e-05,5.26998e-05,-5.82496e-06,-3.46093e-06,1.82938e-05,-1.24944e-05,8.81529e-06,4.54751e-06,0
-3.16662e-05,5.69809e-05,-5.4149e-06,-7.64356e-06,1.95526e-05,-1.12654e-05,6.73333e-06,3.03419e-06,0
-2.99072e-05,4.82076e-05,-3.67343e-06,-1.44668e-05,1.95052e-05,-1.02333e-05,7.32274e-06,1.89423e-06,0
-2.97538e-05,3.2301e-05,-2.30177e-06,-1.98964e-05,1.62898e-05,-9.65579e-06,9.63314e-06,2.10498e-06,0
-3.09724e-05,1.29379e-05,-3.41277e-06,-1.70066e-05,1.2293e-05,-9.58236e-06,1.14113e-05,9.23649e-07,0
-3.18553e-05,-6.69505e-06,-5.23696e-06,-6.6416e-06,1.02405e-05,-1.04667e-05,1.24791e-05,-9.3661e-07,0
-3.23161e-05,-2.07269e-05,-6.51271e-06,4.94568e-06,1.01478e-05,-1.28661e-05,1.24324e-05,-8.60839e-07,0
-3.33044e-05,-2.64495e-05,-7.68147e-06,2.17355e-05,1.19031e-05,-1.5584e-05,9.85075e-06,8.59756e-07,0
-3.37038e-05,-2.76469e-05,-9.95541e-06,4.75576e-05,1.34225e-05,-1.71215e-05,7.31904e-06,1.6318e-06,0
-3.30143e-05,-2.91822e-05,-1.24125e-05,6.88262e-05,1.31624e-05,-1.64988e-05,7.46445e-06,-2.03706e-07,0
-3.32671e-05,-3.07974e-05,-1.35868e-05,6.76676e-05,1.23448e-05,-1.45491e-05,8.3283e-06,-1.83404e-06,0
-3.43977e-05,-2.90254e-05,-1.39097e-05,4.49636e-05,1.12489e-05,-1.27033e-05,8.453e-06,-2.67455e-06,0
-3.48529e-05,-2.27383e-05,-1.56734e-05,1.71948e-05,9.52778e-06,-1.21509e-05,8.00387e-06,-2.81267e-06,0
-3.42452e-05,-1.44404e-05,-1.93565e-05,-3.26892e-06,7.95454e-06,-1.31559e-05,7.02661e-06,-2.88522e-06,0
-3.41111e-05,-6.42763e-06,-2.24716e-05,-1.34679e-05,6.84246e-06,-1.46458e-05,2.7457e-06,-2.28342e-06,0
-3.52979e-05,-8.3321e-07,-2.34431e-05,-1.70749e-05,5.42592e-06,-1.48641e-05,-8.82806e-06,-1.08561e-06,0
-3.59674e-05,3.07204e-06,-2.35392e-05,-1.6449e-05,4.15324e-06,-1.37155e-05,-2.34682e-05,-1.51181e-06,0
-3.39671e-05,6.51128e-06,-2.28653e-05,-1.5098e-05,3.72091e-06,-1.27285e-05,-3.05081e-05,-4.05211e-06,0
-3.05903e-05,9.20483e-06,-1.98463e-05,-2.09467e-05,4.19797e-06,-1.27715e-05,-2.49467e-05,-7.08316e-06,0
-2.85127e-05,1.20652e-05,-1.53619e-05,-3.61132e-05,6.29733e-06,-1.24089e-05,-1.13003e-05,-9.23245e-06,0
-2.86615e-05,1.5284e-05,-1.14604e-05,-5.34229e-05,9.16459e-06,-1.00731e-05,1.80365e-06,-9.504e-06,0
-2.96245e-05,1.8056e-05,-8.10328e-06,-6.52157e-05,1.06108e-05,-7.5038e-06,1.23232e-05,-8.86591e-06,0
-2.91838e-05,2.04212e-05,-5.33322e-06,-6.37506e-05,1.1736e-05,-6.0989e-06,2.05587e-05,-7.14334e-06,0
-2.80995e-05,2.28764e-05,-4.41166e-06,-4.55651e-05,1.28839e-05,-6.67812e-06,2.57266e-05,-4.61107e-06,0
-2.65279e-05,2.5368e-05,-2.35451e-06,-2.3734e-05,1.33526e-05,-7.44128e-06,3.07647e-05,-4.83231e-06,0
-2.47114e-05,2.91324e-05,1.12848e-06,-1.12827e-05,1.41021e-05,-7.07049e-06,3.61718e-05,-6.59702e-06,0
-2.47037e-05,3.31285e-05,3.07875e-06,-7.59987e-06,1.37317e-05,-7.17663e-06,3.91335e-05,-6.95593e-06,0
-2.6198e-05,3.58086e-05,3.28054e-06,-5.62399e-06,1.21132e-05,-8.39844e-06,3.73436e-05,-5.55924e-06,0
-2.84799e-05,3.76848e-05,1.35889e-06,3.89846e-06,1.1366e-05,-9.71476e-06,3.22288e-05,-4.64877e-06,0
-3.00745e-05,3.73681e-05,-2.66744e-06,8.72283e-06,1.03931e-05,-9.02536e-06,2.72965e-05,-5.87261e-06,0
-3.0166e-05,3.58337e-05,-6.01337e-06,-4.27219e-06,8.79104e-06,-7.46462e-06,2.40963e-05,-5.80417e-06,0
-2.92651e-05,3.27906e-05,-7.27778e-06,-2.08323e-05,9.3538e-06,-5.50118e-06,2.22361e-05,-4.99681e-06,0
-2.77323e-05,2.95297e-05,-6.48361e-06,-2.50235e-05,1.32727e-05,-3.43597e-06,1.99849e-05,-4.2701e-06,0
-2.70929e-05,2.75192e-05,-3.46794e-06,-1.93238e-05,1.7957e-05,-2.17642e-06,1.73369e-05,-3.27469e-06,0
-2.89095e-05,2.66275e-05,-3.55262e-07,-1.78513e-05,1.9349e-05,-1.88847e-06,1.75856e-05,-1.92678e-06,0
-3.10506e-05,2.61339e-05,1.39761e-06,-2.38682e-05,1.67773e-05,-2.29085e-06,2.22606e-05,-6.12755e-07,0
-3.05887e-05,2.50159e-05,1.41655e-06,-2.31787e-05,1.37727e-05,-2.60824e-06,2.70837e-05,-1.13851e-06,0
-2.95103e-05,2.46531e-05,-6.86581e-08,-6.24976e-06,1.2005e-05,-2.96558e-06,2.62602e-05,-1.43972e-06,0
-2.94733e-05,2.33202e-05,-2.61557e-06,1.60259e-05,1.09239e-05,-2.9741e-06,2.11804e-05,-4.27957e-07,0
-3.00459e-05,1.97891e-05,-5.12605e-06,2.6217e-05,1.05712e-05,-3.73057e-06,1.64386e-05,9.57821e-07,0
-3.11737e-05,1.56564e-05,-7.10668e-06,2.10477e-05,1.08289e-05,-5.00304e-06,1.28097e-05,1.35497e-06,0
-3.26014e-05,1.45347e-05,-9.60542e-06,1.19203e-05,1.16352e-05,-5.91364e-06,9.45949e-06,2.27749e-06,0
-3.31013e-05,1.71899e-05,-1.11543e-05,7.08286e-06,1.24276e-05,-6.85832e-06,6.29166e-06,3.50316e-06,0
-3.15965e-05,2.06311e-05,-1.02425e-05,8.48669e-06,1.28864e-05,-6.95062e-06,2.94904e-06,3.91189e-06,0
-2.87497e-05,2.16442e-05,-7.5462e-06,1.21119e-05,1.37251e-05,-5.45482e-06,-1.95561e-06,4.03622e-06,0
-2.7597e-05,1.98201e-05,-5.74907e-06,1.32337e-05,1.34222e-05,-3.59375e-06,-7.39491e-06,5.02967e-06,0
-2.84757e-05,1.6606e-05,-5.69037e-06,1.36123e-05,1.12971e-05,-2.18807e-06,-8.95548e-06,5.65573e-06,0
-2.85068e-05,1.4316e-05,-7.16816e-06,1.84232e-05,9.28632e-06,-1.39054e-06,-6.00101e-06,5.31941e-06,0
-2.78211e-05,1.3756e-05,-1.00917e-05,2.58673e-05,8.03995e-06,-2.45218e-07,-3.35421e-06,5.77673e-06,0
-2.819e-05,1.36163e-05,-1.11129e-05,2.6012e-05,9.10431e-06,-2.4685e-07,-2.01596e-06,6.54231e-06,0
-3.02831e-05,1.00302e-05,-1.09051e-05,1.55157e-05,1.15523e-05,-3.16918e-06,-2.08653e-07,5.32778e-06,0
-3.32651e-05,5.2994e-06,-1.06586e-05,2.91978e-06,1.36189e-05,-5.12859e-06,2.40759e-06,4.66191e-06,0
-3.45052e-05,4.08361e-06,-9.87992e-06,-5.63261e-06,1.35973e-05,-5.70975e-06,4.11769e-06,6.68697e-06,0
-3.28311e-05,5.4755e-06,-9.56481e-06,-1.84894e-05,1.14621e-05,-5.71318e-06,4.65226e-06,8.27323e-06,0
-3.10949e-05,1.04899e-05,-9.58164e-06,-3.2992e-05,9.02459e-06,-6.13818e-06,6.12506e-06,6.06634e-06,0
-3.03291e-05,1.4691e-05,-8.22573e-06,-3.57123e-05,7.67173e-06,-7.49964e-06,8.53804e-06,2.77722e-06,0
-2.96741e-05,1.69395e-05,-6.20828e-06,-2.824e-05,9.86221e-06,-8.43653e-06,1.0945e-05,3.5214e-06,0
-2.92217e-05,1.80443e-05,-6.0146e-06,-1.92019e-05,1.3086e-05,-9.90874e-06,1.12169e-05,4.68338e-06,0
-2.92286e-05,1.75787e-05,-6.91e-06,-1.42911e-05,1.41552e-05,-1.11031e-05,9.38755e-06,4.76333e-06,0
-2.81926e-05,1.71245e-05,-8.6089e-06,-1.52561e-05,1.15837e-05,-1.18854e-05,8.51832e-06,4.59429e-06,0
-2.67761e-05,1.77808e-05,-9.44508e-06,-2.02054e-05,7.47231e-06,-1.2176e-05,1.1876e-05,4.28833e-06,0
-2.74376e-05,1.86217e-05,-8.61972e-06,-2.01845e-05,4.80091e-06,-1.19198e-05,1.78847e-05,2.29698e-06,0
-2.92144e-05,1.7417e-05,-7.84664e-06,-1.0811e-05,3.85506e-06,-1.1514e-05,2.23323e-05,-1.25854e-06,0
-2.96293e-05,1.60442e-05,-6.97451e-06,2.11746e-06,4.49679e-06,-1.11849e-05,2.40207e-05,-4.2005e-06,0
-2.87757e-05,1.60412e-05,-4.98335e-06,1.37011e-05,6.41049e-06,-1.01484e-05,2.37239e-05,-5.61642e-06,0
-2.83238e-05,1.70817e-05,-2.77924e-06,2.3569e-05,7.21089e-06,-8.73333e-06,2.31171e-05,-6.89027e-06,0
-2.82437e-05,1.72678e-05,-3.16103e-06,3.11997e-05,5.33549e-06,-8.78985e-06,2.23826e-05,-8.25442e-06,0
-2.83684e-05,1.64292e-05,-5.93536e-06,3.34198e-05,3.65168e-06,-9.59945e-06,2.0898e-05,-7.8419e-06,0
-2.8364e-05,1.51873e-05,-8.30265e-06,2.84995e-05,3.64378e-06,-9.89739e-06,1.76136e-05,-6.16063e-06,0
-2.88956e-05,1.27e-05,-9.28706e-06,1.62861e-05,4.63512e-06,-9.10517e-06,1.42109e-05,-4.57517e-06,0
-3.08175e-05,8.91977e-06,-9.41612e-06,-1.87422e-08,5.26206e-06,-7.10166e-06,1.29839e-05,-4.37912e-06,0
-3.28513e-05,6.44885e-06,-9.09303e-06,-1.49748e-05,5.821e-06,-5.75478e-06,1.21586e-05,-5.42057e-06,0
-3.34752e-05,5.58167e-06,-9.81042e-06,-2.39789e-05,7.50232e-06,-6.95394e-06,1.12474e-05,-5.78199e-06,0
-3.23645e-05,4.26821e-06,-1.2065e-05,-2.86291e-05,1.01648e-05,-8.20693e-06,1.35941e-05,-4.40766e-06,0
-3.03357e-05,1.64624e-06,-1.34636e-05,-3.35635e-05,1.14683e-05,-8.51378e-06,2.10328e-05,-3.01726e-06,0
-2.88397e-05,-7.28927e-07,-1.26704e-05,-3.59113e-05,1.03116e-05,-8.06458e-06,3.20382e-05,-2.84502e-06,0
-2.82989e-05,-2.26495e-06,-1.10343e-05,-2.80521e-05,8.3923e-06,-7.00469e-06,4.10381e-05,-4.64321e-06,0
-2.89603e-05,-4.90599e-06,-1.16278e-05,-1.31239e-05,8.77178e-06,-6.23919e-06,4.44235e-05,-5.87348e-06,0
-2.96342e-05,-5.18193e-06,-1.14919e-05,-5.46595e-06,1.15343e-05,-6.70964e-06,3.99244e-05,-6.13562e-06,0
-3.02446e-05,-1.97159e-06,-1.0022e-05,-5.25888e-06,1.26297e-05,-6.49251e-06,2.68786e-05,-5.75523e-06,0
-2.97186e-05,-2.42417e-07,-9.81006e-06,-5.37962e-06,1.36005e-05,-4.57469e-06,1.05341e-05,-5.65567e-06,0
-2.78057e-05,2.29923e-07,-7.8095e-06,-2.38684e-06,1.51457e-05,-2.83162e-06,-2.30619e-06,-6.24589e-06,0
-2.71869e-05,1.73578e-06,-5.18093e-06,6.51556e-06,1.47672e-05,-3.23628e-06,-1.07825e-05,-5.24491e-06,0
-2.73286e-05,2.87501e-06,-2.11512e-06,1.62199e-05,1.42674e-05,-5.35643e-06,-1.77464e-05,-4.16941e-06,0
-2.73512e-05,3.82448e-06,-3.33262e-08,2.22998e-05,1.44874e-05,-6.86861e-06,-2.16939e-05,-3.431e-06,0
-2.7747e-05,4.43248e-06,-9.69774e-07,1.9978e-05,1.60681e-05,-8.62637e-06,-2.1179e-05,-1.81784e-06,0
-2.75184e-05,5.2401e-06,-3.17849e-06,1.16352e-05,1.75789e-05,-9.05407e-06,-1.47753e-05,3.48386e-07,0
-2.6441e-05,7.23392e-06,-3.73177e-06,4.25369e-07,1.82724e-05,-8.18273e-06,-4.95656e-06,2.38504e-06,0
-2.62059e-05,9.93938e-06,-3.27903e-06,-1.23909e-05,1.90029e-05,-7.38585e-06,4.10077e-06,5.35656e-06,0
-2.67907e-05,1.14649e-05,-4.57628e-06,-2.48303e-05,1.81301e-05,-7.20818e-06,1.02618e-05,7.45819e-06,0
-2.74433e-05,1.06537e-05,-6.15072e-06,-3.24502e-05,1.56113e-05,-6.8793e-06,1.48366e-05,6.22066e-06,0
-2.76491e-05,1.05943e-05,-5.85845e-06,-3.06677e-05,1.34089e-05,-5.77558e-06,1.83292e-05,3.52852e-06,0
-2.81633e-05,1.2852e-05,-3.75413e-06,-2.25329e-05,1.2621e-05,-4.73748e-06,2.05133e-05,2.58683e-06,0
-2.87886e-05,1.64139e-05,-3.8099e-06,-1.23546e-05,1.24481e-05,-4.38933e-06,2.20483e-05,3.56133e-06,0
-2.91399e-05,1.9263e-05,-6.31965e-06,-5.17654e-06,1.19918e-05,-5.11034e-06,2.31594e-05,5.08318e-06,0
-2.92189e-05,2.01308e-05,-8.73205e-06,-5.13108e-07,1.15912e-05,-6.74318e-06,2.46112e-05,6.26971e-06,0
-2.88784e-05,1.91223e-05,-1.00447e-05,4.62197e-06,1.22719e-05,-7.91818e-06,2.55263e-05,6.38337e-06,0
-2.89287e-05,1.65264e-05,-9.66532e-06,1.10678e-05,1.22843e-05,-6.81443e-06,2.4867e-05,6.07711e-06,0
-3.01083e-05,1.28059e-05,-8.12025e-06,1.61976e-05,1.20514e-05,-5.41217e-06,2.32896e-05,6.36827e-06,0
-3.17565e-05,1.07367e-05,-7.63961e-06,2.60503e-05,1.28993e-05,-5.16228e-06,2.20229e-05,6.14031e-06,0
-3.24558e-05,1.16311e-05,-9.86092e-06,4.34151e-05,1.33223e-05,-5.15624e-06,1.93757e-05,4.72623e-06,0
-3.09293e-05,1.29926e-05,-1.33059e-05,5.20524e-05,1.36225e-05,-4.59623e-06,1.67273e-05,3.2138e-06,0
-2.96321e-05,1.32147e-05,-1.31949e-05,3.7794e-05,1.45459e-05,-4.58075e-06,1.57326e-05,1.68177e-06,0
-3.00679e-05,1.35895e-05,-8.3905e-06,4.8119e-06,1.52448e-05,-5.9824e-06,1.55134e-05,2.26217e-06,0
-3.08494e-05,1.43121e-05,-3.08827e-06,-3.55929e-05,1.44785e-05,-6.93974e-06,1.4022e-05,3.68232e-06,0
-3.0816e-05,1.43664e-05,-3.00998e-06,-6.44899e-05,1.1203e-05,-7.36528e-06,1.21045e-05,2.77987e-06,0
-2.87146e-05,1.53653e-05,-6.94788e-06,-7.16529e-05,7.79947e-06,-8.18064e-06,1.08241e-05,2.22472e-06,0
-2.81159e-05,1.62109e-05,-9.20331e-06,-6.54407e-05,6.67561e-06,-8.33927e-06,1.14415e-05,2.58012e-06,0
-2.84068e-05,1.60286e-05,-9.4069e-06,-5.34025e-05,7.93282e-06,-8.99157e-06,1.27338e-05,2.3387e-06,0
-2.88611e-05,1.59311e-05,-8.25053e-06,-4.08288e-05,9.43418e-06,-1.01996e-05,1.24332e-05,1.81977e-06,0
-2.98639e-05,1.5529e-05,-7.09787e-06,-2.96891e-05,9.28429e-06,-1.16864e-05,1.25735e-05,1.42389e-06,0
-3.01061e-05,1.43099e-05,-6.66583e-06,-1.43815e-05,1.03695e-05,-1.23457e-05,1.33795e-05,2.48176e-06,0
-3.16989e-05,1.34196e-05,-7.61442e-06,5.13338e-06,1.24304e-05,-1.10206e-05,1.42163e-05,3.55786e-06,0
-3.28204e-05,1.47396e-05,-9.00473e-06,1.13006e-05,1.27361e-05,-9.84e-06,1.51297e-05,3.21199e-06,0
-3.14583e-05,1.74022e-05,-9.57408e-06,-1.39131e-07,1.39248e-05,-1.05975e-05,1.60375e-05,5.0753e-07,0
-3.06955e-05,1.89646e-05,-8.75615e-06,-1.48482e-05,1.88824e-05,-1.30141e-05,1.51562e-05,-2.08819e-06,0
-3.21325e-05,1.77818e-05,-8.09314e-06,-2.37865e-05,2.34507e-05,-1.51087e-05,1.45271e-05,-1.99933e-06,0
-3.45922e-05,1.39676e-05,-9.33373e-06,-3.01032e-05,2.37258e-05,-1.5957e-05,1.48141e-05,-1.06675e-06,0
-3.71562e-05,9.8432e-06,-1.06627e-05,-3.5504e-05,2.0133e-05,-1.46197e-05,1.43664e-05,2.23168e-08,0
-3.83213e-05,6.88172e-06,-1.05751e-05,-3.81476e-05,1.62149e-05,-1.13443e-05,1.28442e-05,9.60166e-08,0
-3.68247e-05,4.78171e-06,-9.63697e-06,-3.7219e-05,1.4097e-05,-8.73278e-06,1.2344e-05,-9.33377e-07,0
-3.34202e-05,2.88625e-06,-9.34885e-06,-3.22268e-05,1.27625e-05,-8.66419e-06,1.36733e-05,-2.45135e-06,0
-3.03873e-05,1.43217e-06,-1.00978e-05,-2.45772e-05,1.08644e-05,-9.97357e-06,1.51142e-05,-3.76832e-06,0
-2.90995e-05,-7.25303e-08,-1.08186e-05,-1.76192e-05,8.12907e-06,-1.09694e-05,1.59874e-05,-4.87316e-06,0
-2.92796e-05,-2.1093e-06,-1.08964e-05,-1.28305e-05,6.66212e-06,-1.0952e-05,1.52556e-05,-5.21041e-06,0
-2.96863e-05,-3.88751e-06,-1.23599e-05,-4.93946e-06,8.45937e-06,-9.89182e-06,1.49095e-05,-4.21015e-06,0
-2.95504e-05,-5.86316e-06,-1.48811e-05,4.52762e-06,1.20688e-05,-9.14663e-06,1.73222e-05,-3.14423e-06,0
-2.86053e-05,-6.01043e-06,-1.41424e-05,7.58517e-06,1.21475e-05,-9.72448e-06,2.44648e-05,-2.32938e-06,0
-2.80989e-05,-3.52582e-06,-1.06091e-05,4.4622e-06,1.02944e-05,-1.00945e-05,3.74548e-05,-1.83361e-06,0
-2.92231e-05,-2.09177e-06,-8.24826e-06,2.97451e-06,1.064e-05,-8.95627e-06,5.168e-05,-1.30348e-06,0
-3.1576e-05,-1.65821e-06,-6.42092e-06,6.17776e-06,1.26123e-05,-8.54821e-06,5.96302e-05,-4.00306e-08,0
-3.2008e-05,-1.63907e-07,-4.67083e-06,8.1047e-06,1.59039e-05,-9.82279e-06,5.79774e-05,1.27521e-06,0
-3.08418e-05,1.45063e-06,-2.5799e-06,7.45654e-06,1.94859e-05,-1.0239e-05,4.84816e-05,3.00255e-06,0
-3.2333e-05,2.30421e-06,-1.56684e-06,9.02766e-06,2.162e-05,-8.70078e-06,3.53785e-05,3.29234e-06,0
-3.26793e-05,1.49095e-06,-2.41036e-06,1.13933e-05,2.22166e-05,-6.29711e-06,2.06247e-05,3.5798e-06,0
-3.01044e-05,-1.39787e-06,-2.98121e-06,1.29862e-05,2.37468e-05,-5.66647e-06,2.93067e-06,6.81607e-06,0
-2.90083e-05,-4.26535e-06,-3.25367e-06,1.24018e-05,2.42991e-05,-7.66541e-06,-1.75264e-05,9.48783e-06,0
-2.98622e-05,-4.68496e-06,-3.78069e-06,9.53441e-06,2.17006e-05,-9.91688e-06,-3.39981e-05,9.66846e-06,0
-3.0343e-05,-3.46509e-06,-5.11146e-06,5.42165e-06,1.93185e-05,-1.03052e-05,-4.09918e-05,8.94069e-06,0
-3.07485e-05,-2.22061e-06,-6.3163e-06,3.02021e-06,1.91729e-05,-9.83319e-06,-4.16216e-05,8.90905e-06,0
-3.12848e-05,-1.65203e-06,-7.84529e-06,4.97161e-06,2.0352e-05,-9.19631e-06,-4.02665e-05,9.64622e-06,0
-3.18744e-05,-2.37392e-06,-9.27902e-06,8.22625e-06,2.08012e-05,-8.34997e-06,-3.68141e-05,9.90077e-06,0
-3.43887e-05,-4.76133e-06,-1.03906e-05,1.02694e-05,2.09809e-05,-7.08631e-06,-3.02698e-05,9.40768e-06,0
-3.7193e-05,-6.93053e-06,-1.16135e-05,1.06399e-05,2.05456e-05,-7.01028e-06,-2.21859e-05,8.44612e-06,0
-3.75311e-05,-8.1003e-06,-1.37444e-05,1.11638e-05,1.86654e-05,-9.71994e-06,-1.49503e-05,7.80264e-06,0
-3.63819e-05,-9.68903e-06,-1.67155e-05,1.18161e-05,1.67666e-05,-1.22362e-05,-1.01226e-05,7.54636e-06,0
-3.58233e-05,-1.08557e-05,-1.78534e-05,1.063e-05,1.55537e-05,-1.27835e-05,-6.90827e-06,6.71864e-06,0
-3.5848e-05,-1.01782e-05,-1.61753e-05,7.36925e-06,1.42833e-05,-1.20701e-05,-2.65015e-06,5.38361e-06,0
-3.56223e-05,-7.16824e-06,-1.34424e-05,3.29799e-06,1.30708e-05,-1.17814e-05,4.04814e-06,3.71496e-06,0
-3.48509e-05,-2.88509e-06,-1.11082e-05,-1.16694e-06,1.16927e-05,-1.2352e-05,1.15388e-05,2.33063e-06,0
-3.34349e-05,4.01498e-07,-1.01811e-05,-4.41095e-06,9.44566e-06,-1.26276e-05,1.57282e-05,1.71576e-06,0
-3.2122e-05,1.22102e-06,-1.20592e-05,-5.08653e-06,7.66942e-06,-1.25157e-05,1.60474e-05,2.41702e-06,0
-3.20678e-05,5.15255e-07,-1.49798e-05,-3.0792e-06,7.82158e-06,-1.33024e-05,1.55118e-05,2.98497e-06,0
-3.22483e-05,8.47111e-07,-1.76027e-05,2.90397e-07,9.80045e-06,-1.45445e-05,1.60824e-05,2.87693e-06,0
-3.1326e-05,3.86998e-06,-1.86323e-05,2.13172e-06,1.21553e-05,-1.60109e-05,1.8287e-05,2.7947e-06,0
-2.99713e-05,7.44672e-06,-1.71186e-05,1.15908e-07,1.43991e-05,-1.70986e-05,2.14776e-05,2.51594e-06,0
-2.9746e-05,9.57868e-06,-1.34182e-05,-4.89815e-06,1.70864e-05,-1.6424e-05,2.40544e-05,1.86049e-06,0
-3.11696e-05,1.07558e-05,-8.96139e-06,-1.1551e-05,1.93863e-05,-1.49824e-05,2.3379e-05,1.236e-06,0
-3.30663e-05,1.26688e-05,-7.41526e-06,-2.14541e-05,1.94063e-05,-1.48937e-05,2.25719e-05,9.92187e-07,0
-3.32392e-05,1.44517e-05,-9.24091e-06,-2.56083e-05,1.65838e-05,-1.53783e-05,2.31299e-05,-4.32539e-07,0
-3.20485e-05,1.6178e-05,-9.37918e-06,-1.66497e-05,1.45485e-05,-1.49604e-05,2.17755e-05,-1.3456e-06,0
-3.17274e-05,1.7554e-05,-7.39065e-06,-4.0799e-06,1.48553e-05,-1.45552e-05,1.99957e-05,-6.59301e-07,0
-3.19731e-05,1.80362e-05,-5.48023e-06,5.65406e-06,1.39991e-05,-1.45325e-05,1.93457e-05,3.2424e-07,0
-3.28574e-05,1.92944e-05,-3.36222e-06,1.21002e-05,1.35971e-05,-1.38358e-05,1.87383e-05,1.23952e-06,0
-3.33226e-05,2.07351e-05,-1.74498e-06,1.56656e-05,1.39567e-05,-1.35456e-05,1.8947e-05,5.48332e-07,0
-3.28606e-05,2.24242e-05,-1.3946e-06,1.67205e-05,1.4699e-05,-1.48603e-05,1.91835e-05,-1.75857e-07,0
-3.31378e-05,2.476e-05,-3.21245e-06,1.3553e-05,1.56671e-05,-1.61673e-05,1.88003e-05,-5.20801e-08,0
-3.34194e-05,2.69553e-05,-5.34993e-06,6.11894e-06,1.51858e-05,-1.61674e-05,1.97425e-05,1.20156e-06,0
-3.29567e-05,2.72395e-05,-5.8875e-06,-1.19909e-06,1.38981e-05,-1.60961e-05,2.13883e-05,1.79989e-06,0
-3.27979e-05,2.6865e-05,-4.46029e-06,-3.042e-06,1.32301e-05,-1.64771e-05,2.09338e-05,1.05867e-06,0
-3.34562e-05,2.74481e-05,-2.96248e-06,2.00783e-06,1.30634e-05,-1.67395e-05,1.93945e-05,1.00213e-06,0
-3.34042e-05,2.94917e-05,-2.53483e-06,1.14335e-05,1.25132e-05,-1.64151e-05,1.88534e-05,2.02788e-06,0
-3.16949e-05,3.19569e-05,-2.03765e-06,1.91887e-05,1.24195e-05,-1.48755e-05,1.84787e-05,3.54932e-06,0
-2.96122e-05,3.34724e-05,-3.60081e-07,2.207e-05,1.26095e-05,-1.38797e-05,1.85649e-05,4.38825e-06,0
-2.83718e-05,3.35521e-05,2.34108e-06,2.08501e-05,1.26181e-05,-1.42682e-05,1.91427e-05,3.39009e-06,0
-2.79459e-05,3.3164e-05,4.05944e-06,1.63313e-05,1.24561e-05,-1.55474e-05,1.97448e-05,4.22265e-08,0
-2.84206e-05,3.32072e-05,3.33797e-06,8.39182e-06,1.32922e-05,-1.66276e-05,1.94945e-05,-3.53193e-06,0
-2.86983e-05,3.20977e-05,6.68913e-07,-9.09807e-07,1.43982e-05,-1.683e-05,1.81145e-05,-5.8406e-06,0
-2.79725e-05,2.93045e-05,-1.74651e-06,-7.33067e-06,1.47567e-05,-1.58852e-05,1.67427e-05,-5.15068e-06,0
-2.75985e-05,2.62271e-05,-3.48475e-06,-1.01546e-05,1.49288e-05,-1.43184e-05,1.57056e-05,-3.06282e-06,0
-2.7969e-05,2.56884e-05,-5.46449e-06,-1.15956e-05,1.45235e-05,-1.34336e-05,1.42587e-05,-1.57505e-06,0
-2.86806e-05,2.79469e-05,-7.86009e-06,-1.38243e-05,1.33721e-05,-1.29698e-05,1.42143e-05,-8.97737e-07,0
-2.81563e-05,2.94107e-05,-8.19566e-06,-1.66344e-05,1.36233e-05,-1.23257e-05,1.4867e-05,-1.80186e-06,0
-2.72999e-05,2.66555e-05,-6.31684e-06,-1.88157e-05,1.50657e-05,-1.29007e-05,1.40537e-05,-3.68916e-06,0
-2.72554e-05,2.32789e-05,-5.07994e-06,-2.35425e-05,1.64758e-05,-1.23606e-05,1.36861e-05,-3.26001e-06,0
-2.83739e-05,2.26548e-05,-5.13652e-06,-2.99015e-05,1.6189e-05,-1.09016e-05,1.34123e-05,-1.18472e-06,0
-3.09344e-05,2.26673e-05,-6.44079e-06,-3.08999e-05,1.56163e-05,-1.05247e-05,1.03791e-05,-8.67726e-07,0
-3.06061e-05,2.40423e-05,-7.00483e-06,-2.35572e-05,1.66718e-05,-9.94895e-06,3.26864e-06,-1.49251e-06,0
-2.81441e-05,2.57164e-05,-6.77368e-06,-9.10986e-06,1.71693e-05,-9.78213e-06,-3.74334e-06,-1.01032e-06,0
-2.59826e-05,2.59267e-05,-8.36071e-06,9.76597e-06,1.82575e-05,-9.83226e-06,-7.39185e-06,-1.11714e-06,0
-2.47304e-05,2.60608e-05,-1.07065e-05,2.52303e-05,1.89602e-05,-9.26676e-06,-1.22904e-05,-2.23573e-06,0
-2.4962e-05,2.75802e-05,-1.25801e-05,2.63265e-05,1.79538e-05,-9.20991e-06,-1.67176e-05,-2.94982e-06,0
-2.55844e-05,3.07651e-05,-1.27354e-05,1.4045e-05,1.62758e-05,-1.00055e-05,-1.72729e-05,-3.64334e-06,0
-2.60052e-05,3.18493e-05,-1.22408e-05,-1.35412e-07,1.59317e-05,-1.00985e-05,-1.35712e-05,-3.76307e-06,0
-2.53235e-05,3.0389e-05,-1.23133e-05,-1.03203e-05,1.66376e-05,-1.07489e-05,-2.84972e-06,-2.41365e-06,0
-2.54566e-05,3.00283e-05,-1.06553e-05,-1.57367e-05,1.63099e-05,-1.1764e-05,1.25067e-05,4.66253e-07,0
