ch1,ch2,ch3,ch4,ch5,ch6,ch7,ch8,class
-3.0581e-05,1.71099e-05,-9.12453e-06,-8.80112e-06,1.68765e-05,-1.01082e-05,1.06307e-05,1.51975e-06,0
-2.8994e-05,1.58701e-05,-1.08901e-05,-8.64044e-06,1.81989e-05,-1.17977e-05,9.28664e-06,1.7731e-06,0
-2.82648e-05,1.45123e-05,-1.12422e-05,-9.73396e-06,1.93733e-05,-1.16393e-05,7.66913e-06,3.89455e-06,0
-2.88866e-05,1.44199e-05,-1.29654e-05,-9.68496e-06,2.05208e-05,-1.02396e-05,7.33207e-06,5.22553e-06,0
-3.08733e-05,1.6203e-05,-1.72826e-05,-8.75167e-06,2.0992e-05,-9.25571e-06,7.4435e-06,4.8922e-06,0
-3.2611e-05,1.85862e-05,-2.14904e-05,-8.9652e-06,2.01289e-05,-9.18182e-06,7.27353e-06,3.12124e-06,0
-3.26413e-05,2.11895e-05,-2.2487e-05,-1.03425e-05,1.95105e-05,-1.04304e-05,4.73402e-06,1.06936e-06,0
-3.18061e-05,2.35733e-05,-2.02191e-05,-1.01661e-05,2.08582e-05,-1.14837e-05,-3.07347e-06,-1.7284e-07,0
-3.22474e-05,2.53769e-05,-1.77238e-05,-7.96934e-06,2.18188e-05,-1.09571e-05,-1.31558e-05,-1.18483e-06,0
-3.41981e-05,2.70846e-05,-1.58774e-05,-5.2783e-06,1.98165e-05,-1.01541e-05,-1.56826e-05,-3.54666e-06,0
-3.55659e-05,2.88279e-05,-1.36013e-05,-3.18889e-06,1.66166e-05,-1.07116e-05,-7.7793e-06,-6.0922e-06,0
-3.55254e-05,2.90302e-05,-8.25162e-06,-9.45676e-07,1.39228e-05,-1.20706e-05,5.53179e-06,-5.53015e-06,0
-3.45801e-05,2.80333e-05,1.11991e-06,1.24368e-06,1.18369e-05,-1.25099e-05,1.8683e-05,-2.88833e-06,0
-3.41579e-05,2.81162e-05,1.41155e-05,1.77058e-06,1.10405e-05,-1.14526e-05,2.97791e-05,-5.16038e-07,0
-3.44495e-05,3.00269e-05,3.07999e-05,-7.26897e-07,1.18559e-05,-9.67441e-06,4.22757e-05,1.26836e-06,0
-3.32204e-05,3.18187e-05,4.91799e-05,-5.08707e-06,1.27354e-05,-7.95125e-06,5.89456e-05,2.19123e-06,0
-3.19643e-05,3.26936e-05,6.53528e-05,-8.30396e-06,1.40114e-05,-6.42982e-06,7.28531e-05,1.4775e-06,0
-3.23164e-05,3.34615e-05,7.39358e-05,-1.0472e-05,1.55123e-05,-4.96729e-06,7.70443e-05,3.39577e-07,0
-3.23767e-05,3.72256e-05,6.7045e-05,-1.27179e-05,1.6119e-05,-4.16543e-06,7.12976e-05,1.04917e-06,0
-3.12194e-05,4.6077e-05,3.80356e-05,-1.56189e-05,1.75972e-05,-4.2205e-06,6.16718e-05,2.61717e-06,0
-3.06427e-05,5.31043e-05,-1.04468e-05,-1.66187e-05,2.01593e-05,-2.26434e-06,5.29408e-05,1.78589e-06,0
-3.01172e-05,5.16235e-05,-5.82289e-05,-1.39479e-05,1.91233e-05,-7.21561e-07,4.39033e-05,-1.60608e-06,0
-2.73129e-05,4.54032e-05,-9.19708e-05,-1.08396e-05,1.62676e-05,-1.47099e-06,3.40064e-05,-3.64888e-06,0
-2.50808e-05,3.92919e-05,-0.000108007,-8.94379e-06,1.40625e-05,-1.01484e-06,2.14084e-05,-2.16415e-06,0
-2.64809e-05,3.20754e-05,-0.000101462,-7.52255e-06,1.19136e-05,3.99162e-07,8.05633e-06,5.90292e-07,0
-2.95335e-05,2.43299e-05,-8.29589e-05,-5.72118e-06,1.02461e-05,7.17627e-07,-4.57174e-06,2.28109e-06,0
-2.96299e-05,1.65396e-05,-6.45606e-05,-4.35346e-06,7.0563e-06,-8.7353e-07,-1.52707e-05,2.60523e-06,0
-2.76437e-05,6.99719e-06,-5.32375e-05,-5.06032e-06,4.01072e-06,-2.5003e-06,-2.56737e-05,2.50454e-06,0
-2.78078e-05,-3.70039e-06,-4.36529e-05,-6.54472e-06,2.67223e-06,-3.62192e-06,-3.6285e-05,2.41483e-06,0
-2.97905e-05,-1.28916e-05,-3.08787e-05,-7.80963e-06,2.26259e-06,-4.61448e-06,-4.39205e-05,3.2724e-06,0
-3.23943e-05,-1.74723e-05,-1.75525e-05,-8.91903e-06,2.07221e-06,-5.46511e-06,-4.60707e-05,3.8977e-06,0
-3.40984e-05,-1.79757e-05,-1.02064e-05,-9.91586e-06,2.60725e-06,-6.38906e-06,-4.31104e-05,3.66328e-06,0
-3.40847e-05,-1.69907e-05,-9.56207e-06,-1.03094e-05,2.79441e-06,-7.70149e-06,-3.72542e-05,4.08511e-06,0
-3.29749e-05,-1.50375e-05,-1.00705e-05,-1.04766e-05,3.29113e-06,-8.95885e-06,-2.77576e-05,4.95569e-06,0
-3.1637e-05,-1.08279e-05,-1.06776e-05,-1.01836e-05,6.06123e-06,-8.6165e-06,-1.55304e-05,5.58768e-06,0
-3.09843e-05,-5.80776e-06,-9.74926e-06,-8.7949e-06,9.41884e-06,-7.4755e-06,-2.51644e-06,5.84327e-06,0
-3.06246e-05,-2.25317e-06,-7.99895e-06,-7.40043e-06,1.04699e-05,-6.58478e-06,7.62655e-06,6.0149e-06,0
-3.06896e-05,-3.17108e-07,-5.94215e-06,-7.46712e-06,8.96917e-06,-5.59395e-06,1.04691e-05,6.26917e-06,0
-3.06943e-05,2.90643e-07,-5.10093e-06,-8.20972e-06,7.56486e-06,-3.87423e-06,3.38316e-06,6.56161e-06,0
-3.01762e-05,9.11441e-07,-4.95128e-06,-7.58646e-06,8.2696e-06,-2.49303e-06,-6.96794e-06,6.12781e-06,0
-2.87511e-05,4.29449e-06,-5.54208e-06,-5.05764e-06,1.05744e-05,-2.84572e-06,-1.21153e-05,4.84715e-06,0
-2.71714e-05,1.00106e-05,-5.48023e-06,-2.38986e-06,1.19506e-05,-4.43916e-06,-9.71822e-06,3.8333e-06,0
-2.73523e-05,1.35583e-05,-5.18298e-06,-3.04407e-06,1.2391e-05,-4.50538e-06,-7.95497e-07,3.31515e-06,0
-2.79739e-05,1.40459e-05,-4.85091e-06,-7.09988e-06,1.33684e-05,-3.05303e-06,1.17693e-05,3.21247e-06,0
-2.74882e-05,1.45881e-05,-4.5812e-06,-1.08966e-05,1.4902e-05,-3.1838e-06,2.40326e-05,4.13273e-06,0
-2.64107e-05,1.56114e-05,-4.74991e-06,-1.11192e-05,1.45631e-05,-4.94644e-06,3.39702e-05,4.17269e-06,0
-2.54126e-05,1.45704e-05,-4.05946e-06,-7.47393e-06,1.10616e-05,-5.85738e-06,4.02816e-05,3.01795e-06,0
-2.4469e-05,1.19758e-05,-1.38801e-06,-2.58079e-06,8.54096e-06,-5.88468e-06,3.91144e-05,3.27338e-06,0
-2.43665e-05,1.14316e-05,3.63007e-07,-6.71132e-07,8.4409e-06,-6.52895e-06,2.98723e-05,4.50813e-06,0
-2.61266e-05,1.19623e-05,-3.74922e-07,2.83902e-07,9.24941e-06,-7.5862e-06,2.10207e-05,4.39862e-06,0
-2.70572e-05,1.28297e-05,-5.3919e-07,-2.09495e-07,1.14321e-05,-9.34114e-06,1.70588e-05,3.97335e-06,0
-2.62422e-05,1.50847e-05,-2.49037e-07,-1.98836e-06,1.39186e-05,-1.08064e-05,1.4667e-05,2.78796e-06,0
-2.62058e-05,1.63616e-05,4.11984e-07,-1.09462e-06,1.65351e-05,-1.17473e-05,1.2677e-05,1.87552e-06,0
-2.70452e-05,1.68462e-05,1.56961e-06,1.36983e-08,1.78346e-05,-1.28267e-05,1.14241e-05,2.13437e-06,0
-2.81007e-05,1.71719e-05,1.98188e-06,1.90519e-06,1.78072e-05,-1.28697e-05,1.26201e-05,2.34369e-06,0
-3.00231e-05,1.61373e-05,2.44925e-06,4.88235e-06,1.83077e-05,-1.30498e-05,1.54266e-05,3.24885e-06,0
-3.12329e-05,1.34462e-05,4.86962e-06,6.94073e-06,1.83681e-05,-1.33652e-05,1.79977e-05,3.24616e-06,0
-3.07265e-05,1.12613e-05,6.57987e-06,6.40522e-06,1.75029e-05,-1.40309e-05,1.82569e-05,2.38864e-06,0
-3.1379e-05,9.6089e-06,5.2614e-06,5.27906e-06,1.68556e-05,-1.43041e-05,1.68205e-05,2.17811e-06,0
-3.30088e-05,8.52491e-06,2.26768e-06,4.28123e-06,1.6647e-05,-1.39066e-05,1.27124e-05,2.43188e-06,0
-3.3449e-05,1.00079e-05,7.2726e-07,2.92796e-06,1.64353e-05,-1.37356e-05,5.61288e-06,1.87261e-06,0
-3.28177e-05,1.2837e-05,7.4831e-07,1.57475e-06,1.68569e-05,-1.31598e-05,-9.89658e-07,7.05022e-07,0
-3.30045e-05,1.42494e-05,1.53504e-06,-2.34857e-07,1.78449e-05,-1.21679e-05,-3.37116e-06,-6.87065e-07,0
-3.43449e-05,1.34512e-05,2.65301e-06,-1.69965e-06,1.83961e-05,-1.14038e-05,-5.57809e-07,-2.14469e-06,0
-3.51315e-05,1.16185e-05,3.68966e-06,-1.93239e-06,1.77502e-05,-1.27476e-05,4.97567e-06,-2.16712e-06,0
-3.55582e-05,9.14957e-06,3.35144e-06,-6.24082e-07,1.76381e-05,-1.61377e-05,9.83548e-06,-1.5498e-06,0
-3.65442e-05,7.67862e-06,1.47596e-06,-4.29617e-07,1.91403e-05,-1.96269e-05,1.18966e-05,-2.03546e-06,0
-3.73993e-05,8.17741e-06,-4.0249e-07,-2.19861e-06,2.02443e-05,-1.98972e-05,1.21337e-05,-3.59629e-06,0
-3.77189e-05,9.57572e-06,-1.6925e-06,-3.06488e-06,1.96407e-05,-1.77004e-05,1.13565e-05,-5.76954e-06,0
-3.6936e-05,1.02055e-05,-2.00741e-06,-9.79318e-07,1.77015e-05,-1.55859e-05,1.10922e-05,-6.57057e-06,0
-3.49707e-05,9.76912e-06,-1.05376e-06,2.00527e-06,1.49943e-05,-1.45216e-05,1.19292e-05,-4.75785e-06,0
-3.31708e-05,8.53813e-06,-8.32167e-08,3.04689e-06,1.36447e-05,-1.37868e-05,1.33799e-05,-1.94843e-06,0
-3.24134e-05,6.69685e-06,4.9708e-07,7.26807e-07,1.39628e-05,-1.30998e-05,1.51692e-05,-7.24706e-07,0
-3.31219e-05,6.12548e-06,2.17083e-07,-1.17238e-06,1.33132e-05,-1.47204e-05,1.74414e-05,-1.37535e-06,0
-3.37373e-05,6.55118e-06,-1.13007e-06,-1.44701e-06,1.00483e-05,-1.8694e-05,1.8323e-05,-2.71016e-06,0
-3.21569e-05,4.9646e-06,1.81275e-06,-3.80522e-07,6.80833e-06,-2.02836e-05,1.64274e-05,-3.49832e-06,0
-3.00606e-05,2.23312e-06,5.14293e-06,1.64348e-06,6.31875e-06,-2.17634e-05,1.46377e-05,-3.01358e-06,0
-3.07084e-05,5.14846e-07,4.10457e-06,2.84793e-06,8.01663e-06,-2.84881e-05,1.35698e-05,-1.56141e-06,0
-3.14373e-05,-5.07228e-07,2.40519e-06,2.84785e-06,1.13189e-05,-2.71474e-05,1.23048e-05,8.16289e-07,0
-3.08509e-05,-1.0172e-06,4.77288e-07,3.5165e-07,1.40225e-05,-5.13252e-06,1.23184e-05,2.34148e-06,0
-3.03074e-05,-5.69032e-07,-5.68113e-08,-2.23787e-06,1.50662e-05,2.22693e-05,1.22172e-05,2.47966e-06,0
-2.8665e-05,4.68724e-06,-2.48669e-07,-3.59951e-06,1.50905e-05,3.02024e-05,1.15558e-05,3.25207e-06,0
-2.53742e-05,1.50611e-05,-1.93338e-06,-5.11131e-06,1.49043e-05,1.86461e-05,1.0244e-05,4.61543e-06,0
-2.0973e-05,2.38163e-05,-4.35475e-06,-6.50896e-06,1.50547e-05,4.4122e-06,1.0157e-05,6.23168e-06,0
-1.75256e-05,2.66457e-05,-6.64511e-06,-6.58094e-06,1.53536e-05,-5.22133e-06,1.11655e-05,6.67158e-06,0
-1.73175e-05,2.42142e-05,-7.45928e-06,-6.24594e-06,1.44946e-05,-1.11348e-05,1.16952e-05,5.09391e-06,0
-2.00961e-05,1.86786e-05,-5.88092e-06,-6.3128e-06,1.18535e-05,-1.50518e-05,1.28845e-05,3.3679e-06,0
-2.3664e-05,1.30436e-05,-2.94924e-06,-7.02654e-06,1.02633e-05,-1.77023e-05,1.42297e-05,2.21494e-06,0
-2.82885e-05,1.05093e-05,-1.55426e-06,-6.95998e-06,1.03541e-05,-2.00594e-05,1.38303e-05,1.86847e-06,0
-3.26278e-05,1.09642e-05,-1.47354e-06,-6.30405e-06,9.60383e-06,-2.29904e-05,1.14796e-05,1.58688e-06,0
-3.27427e-05,9.56388e-06,-1.65275e-06,-5.74166e-06,7.10104e-06,-2.53102e-05,1.03103e-05,9.78303e-08,0
-2.91745e-05,2.09808e-06,-2.41245e-06,-5.00477e-06,5.14603e-06,-2.5437e-05,1.10933e-05,-2.54953e-06,0
-2.73876e-05,-7.87546e-06,-4.58827e-06,-4.10467e-06,5.40204e-06,-2.43028e-05,1.29035e-05,-3.96415e-06,0
-2.8563e-05,-1.41152e-05,-7.09875e-06,-3.65579e-06,7.26547e-06,-2.42262e-05,1.39522e-05,-4.19988e-06,0
-3.07706e-05,-1.48664e-05,-8.55693e-06,-4.34574e-06,9.66639e-06,-2.42276e-05,1.43229e-05,-4.13295e-06,0
-3.37344e-05,-1.12827e-05,-8.97973e-06,-5.03103e-06,1.2965e-05,-2.10742e-05,1.44334e-05,-2.8656e-06,0
-3.77512e-05,-6.49283e-06,-7.93436e-06,-5.51685e-06,1.78689e-05,-1.72715e-05,1.48106e-05,-1.1215e-06,0
-4.17796e-05,-3.7502e-06,-5.28688e-06,-5.88607e-06,2.16351e-05,-2.00057e-05,1.5778e-05,-1.60364e-06,0
-4.12702e-05,-1.38265e-06,-4.0221e-06,-4.73865e-06,2.1951e-05,-1.92609e-05,1.59857e-05,-3.95471e-06,0
-3.63294e-05,1.66581e-06,-5.82785e-06,-3.2072e-06,2.00968e-05,-7.13981e-06,1.48881e-05,-3.67184e-06,0
-3.32054e-05,2.44253e-06,-9.33492e-06,-4.36035e-06,1.89796e-05,5.12497e-07,1.34813e-05,-1.91688e-06,0
-3.40721e-05,2.95743e-06,-1.15656e-05,-6.86298e-06,1.89569e-05,-2.64866e-06,1.24077e-05,-9.67224e-07,0
-3.56979e-05,4.6906e-06,-1.11986e-05,-8.28539e-06,1.91062e-05,-7.73813e-06,1.29467e-05,1.10388e-06,0
-3.64125e-05,7.10243e-06,-9.98878e-06,-9.1624e-06,1.8393e-05,-6.29621e-06,1.33218e-05,1.75334e-06,0
-3.66434e-05,1.10427e-05,-8.89929e-06,-1.07525e-05,1.68955e-05,3.89975e-07,1.17315e-05,8.32452e-07,0
-3.87881e-05,1.40274e-05,-8.58516e-06,-1.09062e-05,1.70232e-05,4.90266e-06,1.06206e-05,1.61125e-06,0
-4.26453e-05,1.63399e-05,-9.12102e-06,-1.04514e-05,1.99643e-05,3.45248e-06,1.06239e-05,2.00521e-06,0
-4.36536e-05,2.31357e-05,-1.04263e-05,-1.06329e-05,2.36257e-05,2.14599e-07,1.13975e-05,1.02885e-06,0
-4.32443e-05,3.56092e-05,-1.0664e-05,-1.10688e-05,2.57574e-05,-2.96692e-06,1.21275e-05,4.19264e-07,0
-4.68731e-05,4.83729e-05,-9.56098e-06,-1.08687e-05,2.62058e-05,-1.28175e-05,1.06772e-05,1.14032e-06,0
-5.04631e-05,5.54571e-05,-8.50924e-06,-1.15411e-05,2.4509e-05,-2.81799e-05,8.74136e-06,2.79695e-06,0
-4.81889e-05,5.41009e-05,-7.59647e-06,-1.19986e-05,2.1718e-05,-4.68482e-05,8.58833e-06,5.05023e-06,0
-4.08774e-05,4.51087e-05,-8.02822e-06,-1.09947e-05,1.94768e-05,-6.39527e-05,1.0117e-05,7.50874e-06,0
-3.15407e-05,3.12222e-05,-1.05876e-05,-1.12594e-05,1.8321e-05,-6.3873e-05,1.21966e-05,9.46568e-06,0
-2.1275e-05,1.75312e-05,-1.37776e-05,-1.09965e-05,1.86756e-05,-3.5434e-05,1.3149e-05,8.62239e-06,0
-1.06481e-05,1.26909e-05,-1.55544e-05,-8.21601e-06,2.0662e-05,4.58256e-06,1.24785e-05,5.53067e-06,0
-2.68938e-06,2.54227e-05,-1.53606e-05,-4.73511e-06,2.21638e-05,2.7961e-05,1.13507e-05,3.42632e-06,0
-9.798e-09,5.3706e-05,-1.40832e-05,-5.01613e-06,2.1029e-05,3.05739e-05,1.20382e-05,3.90315e-06,0
-5.13799e-06,8.66683e-05,-1.28249e-05,-9.00179e-06,1.8425e-05,2.71761e-05,1.43761e-05,5.2751e-06,0
-1.58373e-05,0.000113109,-1.24088e-05,-1.18473e-05,1.65953e-05,2.63478e-05,1.67677e-05,5.39973e-06,0
-2.53536e-05,0.000121406,-1.29165e-05,-1.00444e-05,1.59778e-05,3.22718e-05,1.73345e-05,5.24252e-06,0
-3.03444e-05,0.000105878,-1.49966e-05,-7.86409e-06,1.62375e-05,5.20753e-05,1.72101e-05,5.74908e-06,0
-3.26232e-05,7.31229e-05,-1.83653e-05,-8.68568e-06,1.71466e-05,7.06025e-05,1.81275e-05,6.18311e-06,0
-3.3546e-05,3.73675e-05,-2.14873e-05,-1.0294e-05,1.61328e-05,6.17048e-05,1.96104e-05,5.06548e-06,0
-3.10263e-05,8.63357e-06,-2.35294e-05,-1.0829e-05,1.30681e-05,3.39866e-05,1.98371e-05,3.17526e-06,0
-2.49846e-05,-1.51697e-05,-2.25187e-05,-1.06781e-05,1.20045e-05,1.28682e-05,1.85636e-05,-1.111e-08,0
-2.02257e-05,-3.84892e-05,-1.94862e-05,-1.08278e-05,1.36447e-05,-2.24525e-06,1.62104e-05,-1.57031e-06,0
-1.59117e-05,-5.61626e-05,-1.66241e-05,-1.12668e-05,1.52002e-05,-2.26929e-05,1.37965e-05,1.69901e-07,0
-1.01119e-05,-6.26467e-05,-1.40949e-05,-1.31514e-05,1.65656e-05,-5.09843e-05,1.26172e-05,1.02247e-06,0
-6.62838e-06,-6.28459e-05,-1.3137e-05,-1.6837e-05,1.78805e-05,-6.26145e-05,1.25608e-05,3.32172e-07,0
-8.94752e-06,-6.1104e-05,-1.25843e-05,-1.70241e-05,1.58332e-05,-5.09265e-05,1.21096e-05,-8.14727e-07,0
-1.6486e-05,-4.75629e-05,-1.29432e-05,-1.65733e-05,9.8713e-06,-5.02563e-05,1.01075e-05,-1.32352e-06,0
-2.4536e-05,-1.77274e-05,-1.45872e-05,-1.68745e-05,5.03041e-06,-6.75124e-05,7.416e-06,-2.70273e-07,0
-2.79127e-05,1.63496e-05,-1.58673e-05,-1.27318e-05,4.80362e-06,-7.7217e-05,6.34031e-06,8.51565e-07,0
-2.72189e-05,4.51603e-05,-1.59416e-05,-7.49316e-06,6.40499e-06,-5.68726e-05,7.64101e-06,4.52416e-07,0
-2.78885e-05,6.93022e-05,-1.31667e-05,-1.44129e-06,8.51572e-06,-2.0733e-05,9.90637e-06,-7.92118e-07,0
-3.14932e-05,8.26508e-05,-1.07313e-05,5.00755e-06,1.06847e-05,-1.49019e-07,1.21834e-05,-1.5862e-06,0
-3.64159e-05,7.87145e-05,-1.08322e-05,7.86229e-06,9.66024e-06,-3.37864e-06,1.32953e-05,-1.65955e-06,0
-3.82808e-05,6.06741e-05,-1.11596e-05,5.56923e-06,7.10786e-06,-1.4849e-05,1.26688e-05,-1.51656e-06,0
-3.71958e-05,3.61292e-05,-1.05895e-05,2.82731e-06,5.4804e-06,-2.13203e-05,1.14468e-05,-6.83304e-07,0
-3.47983e-05,1.16215e-05,-1.05147e-05,2.88993e-06,3.78458e-06,-2.28451e-05,1.18137e-05,8.82665e-08,0
-3.24394e-05,-1.30698e-05,-1.13708e-05,3.88252e-06,2.74651e-06,-2.15681e-05,1.26096e-05,-1.19111e-06,0
-3.14322e-05,-3.32395e-05,-1.14066e-05,3.16022e-06,3.98583e-06,-1.97797e-05,1.25383e-05,-4.08776e-06,0
-3.14627e-05,-4.24052e-05,-1.09411e-05,1.0135e-06,5.86256e-06,-1.81889e-05,1.18797e-05,-5.73039e-06,0
-3.13125e-05,-3.89559e-05,-1.07742e-05,5.73317e-07,7.09824e-06,-1.80122e-05,1.24545e-05,-5.06736e-06,0
-3.02602e-05,-3.00804e-05,-1.0509e-05,1.63015e-06,9.46287e-06,-1.81755e-05,1.41984e-05,-3.82761e-06,0
-3.01162e-05,-2.331e-05,-1.01861e-05,1.41792e-06,1.31095e-05,-1.69641e-05,1.49638e-05,-3.3333e-06,0
-3.03966e-05,-1.9116e-05,-1.03307e-05,-8.94842e-07,1.55701e-05,-1.25043e-05,1.41644e-05,-3.97392e-06,0
-2.95799e-05,-1.51913e-05,-1.11204e-05,-4.27269e-06,1.61692e-05,-8.0422e-06,1.27554e-05,-5.09476e-06,0
-2.87065e-05,-8.94585e-06,-1.17311e-05,-6.59036e-06,1.46947e-05,-7.6826e-06,1.28504e-05,-5.67739e-06,0
-3.03315e-05,-2.03343e-07,-1.16947e-05,-6.73378e-06,1.19282e-05,-1.01749e-05,1.38908e-05,-5.4056e-06,0
-3.23345e-05,7.2788e-06,-1.21574e-05,-5.97909e-06,9.48167e-06,-1.27207e-05,1.38493e-05,-4.37798e-06,0
-3.27375e-05,1.08801e-05,-1.20895e-05,-4.55415e-06,7.83987e-06,-1.41088e-05,1.30243e-05,-2.51451e-06,0
-3.23946e-05,1.27383e-05,-9.83078e-06,-3.57915e-06,7.43618e-06,-1.31023e-05,1.29807e-05,-1.8213e-06,0
-3.20964e-05,1.41079e-05,-8.31399e-06,-3.48422e-06,7.05337e-06,-1.18793e-05,1.48096e-05,-2.90827e-06,0
-3.23038e-05,1.76792e-05,-9.13382e-06,-4.37372e-06,7.7226e-06,-1.25e-05,1.71272e-05,-2.84026e-06,0
-3.25973e-05,2.12867e-05,-9.97366e-06,-3.0831e-06,7.76575e-06,-1.41022e-05,1.79418e-05,-1.64062e-06,0
-3.13937e-05,2.03983e-05,-9.73438e-06,1.02556e-06,7.51787e-06,-1.60319e-05,1.73211e-05,-2.08011e-06,0
-2.99131e-05,1.65781e-05,-8.9897e-06,3.72241e-06,1.01804e-05,-1.63439e-05,1.6532e-05,-2.86958e-06,0
-3.06259e-05,1.31053e-05,-8.88797e-06,4.06557e-06,1.34748e-05,-1.53036e-05,1.72727e-05,-1.97273e-06,0
-3.31992e-05,1.23292e-05,-8.9085e-06,2.19057e-06,1.45254e-05,-1.39476e-05,1.85121e-05,7.27025e-07,0
-3.35887e-05,1.33505e-05,-9.5182e-06,-3.11057e-07,1.23138e-05,-1.16477e-05,1.8286e-05,3.79713e-06,0
-3.17551e-05,1.37958e-05,-1.0299e-05,-2.89482e-06,9.87252e-06,-8.3508e-06,1.74761e-05,4.03364e-06,0
-3.23178e-05,1.21081e-05,-9.11158e-06,-4.62605e-06,8.84707e-06,-7.7425e-06,1.73094e-05,3.72453e-06,0
-3.37663e-05,7.22733e-06,-6.33198e-06,-4.28875e-06,8.52733e-06,-9.40913e-06,1.6999e-05,4.19763e-06,0
-3.33747e-05,1.90093e-06,-3.41786e-06,-2.62754e-06,8.92942e-06,-9.46876e-06,1.58314e-05,4.75948e-06,0
-3.19604e-05,1.47184e-07,-2.57843e-06,-2.54074e-06,9.39213e-06,-7.79657e-06,1.40896e-05,5.49712e-06,0
-3.03347e-05,1.7361e-06,-3.719e-06,-5.84982e-06,8.81263e-06,-7.49611e-06,1.25833e-05,4.07787e-06,0
-2.84659e-05,4.5914e-06,-4.09904e-06,-9.65789e-06,7.10733e-06,-8.64483e-06,1.12504e-05,1.14711e-06,0
-2.83019e-05,6.65184e-06,-3.80534e-06,-1.07199e-05,5.86598e-06,-8.36877e-06,1.03238e-05,-6.83224e-08,0
-2.97076e-05,6.77429e-06,-4.77292e-06,-8.84248e-06,5.90041e-06,-6.19944e-06,1.00343e-05,3.76927e-07,0
-3.02482e-05,6.37929e-06,-5.50376e-06,-6.35404e-06,7.51139e-06,-4.01661e-06,1.04929e-05,5.134e-07,0
-2.83496e-05,6.01761e-06,-5.04959e-06,-4.652e-06,9.95624e-06,-2.90324e-06,1.07058e-05,4.44908e-07,0
-2.49214e-05,6.04515e-06,-5.2986e-06,-3.75767e-06,1.12823e-05,-3.22133e-06,8.98521e-06,3.98208e-07,0
-2.22099e-05,6.70946e-06,-6.01625e-06,-3.59979e-06,1.12084e-05,-4.73243e-06,5.69058e-06,3.96216e-07,0
-2.12602e-05,7.30763e-06,-6.35566e-06,-3.368e-06,1.00809e-05,-5.97049e-06,3.70301e-06,2.892e-07,0
-2.09119e-05,7.33093e-06,-6.87786e-06,-2.87818e-06,7.7939e-06,-5.47382e-06,5.78369e-06,3.68918e-07,0
-1.95986e-05,7.47191e-06,-8.19506e-06,-4.3656e-06,6.48001e-06,-4.04698e-06,9.89823e-06,6.16449e-08,0
-1.86211e-05,7.70042e-06,-9.19409e-06,-6.67985e-06,7.97102e-06,-2.17795e-06,1.18e-05,-1.00346e-06,0
-1.94381e-05,8.01944e-06,-7.55421e-06,-6.34883e-06,1.03785e-05,-9.06768e-08,1.10582e-05,-5.18604e-07,0
-2.10158e-05,7.74745e-06,-5.04454e-06,-3.96843e-06,1.19996e-05,4.72928e-08,1.10588e-05,1.12143e-06,0
-2.27411e-05,7.10295e-06,-4.43094e-06,-2.00708e-07,1.43831e-05,-4.88249e-07,1.27292e-05,2.11246e-06,0
-2.42926e-05,8.12302e-06,-5.42714e-06,3.22437e-06,1.52188e-05,3.32668e-08,1.39047e-05,2.23822e-06,0
-2.47726e-05,8.31343e-06,-8.79388e-06,7.0719e-07,1.02444e-05,6.67655e-07,1.34253e-05,1.21646e-06,0
-2.47492e-05,9.66633e-06,-1.25643e-05,-6.059e-06,5.07897e-06,1.04016e-06,1.11292e-05,5.01619e-07,0
-2.35361e-05,1.22542e-05,-1.41965e-05,-8.97086e-06,6.37772e-06,7.55341e-07,1.08101e-05,5.40718e-07,0
-2.20947e-05,1.42312e-05,-1.43823e-05,-7.42671e-06,1.10878e-05,-7.82404e-07,1.23329e-05,9.41211e-07,0
-2.3469e-05,1.6273e-05,-1.27371e-05,-5.86835e-06,1.40161e-05,-2.4771e-06,7.53948e-06,2.26377e-06,0
-2.69093e-05,1.57426e-05,-1.12284e-05,-5.948e-06,1.38978e-05,-3.85745e-06,4.32478e-06,3.07016e-06,0
-2.7925e-05,1.35675e-05,-1.18132e-05,-6.57374e-06,1.30095e-05,-4.52228e-06,1.62396e-05,2.76719e-06,0
-2.74971e-05,1.21116e-05,-1.38743e-05,-6.70213e-06,1.25936e-05,-4.80198e-06,3.91896e-05,2.49174e-06,0
-2.78752e-05,1.25875e-05,-1.37064e-05,-7.63027e-06,1.07262e-05,-5.15199e-06,6.09182e-05,1.71553e-06,0
-2.80758e-05,1.44088e-05,-1.10263e-05,-8.97095e-06,8.9977e-06,-5.28806e-06,7.16868e-05,-5.22656e-07,0
-2.79925e-05,1.6374e-05,-8.99322e-06,-9.53586e-06,8.58293e-06,-5.52803e-06,6.9101e-05,-2.11236e-06,0
-2.70534e-05,1.75008e-05,-8.6864e-06,-1.05206e-05,7.54971e-06,-5.11596e-06,5.69202e-05,-1.42461e-06,0
-2.60228e-05,1.90854e-05,-7.22976e-06,-1.17468e-05,5.4809e-06,-3.63685e-06,3.91517e-05,2.88295e-07,0
-2.57025e-05,2.29303e-05,-1.58836e-06,-1.03535e-05,3.99949e-06,-2.19628e-06,1.62457e-05,1.1721e-06,0
-2.66757e-05,2.7903e-05,6.96512e-06,-5.13006e-06,3.28299e-06,-1.58764e-06,-8.46593e-06,1.35713e-06,0
-2.83063e-05,3.0792e-05,1.75189e-05,-5.40366e-07,2.54531e-06,-3.54478e-06,-2.70994e-05,1.82895e-06,0
-2.95459e-05,3.03007e-05,3.05207e-05,-5.56217e-07,3.40855e-06,-7.01357e-06,-3.52664e-05,2.6752e-06,0
-3.03503e-05,2.85521e-05,4.81115e-05,-3.73147e-06,6.64175e-06,-7.95325e-06,-3.44977e-05,3.95099e-06,0
-3.13432e-05,2.81001e-05,6.9775e-05,-5.01952e-06,1.07206e-05,-6.03143e-06,-2.6872e-05,4.87953e-06,0
-3.16994e-05,2.87215e-05,8.75139e-05,-1.56954e-06,1.31541e-05,-4.41259e-06,-1.49271e-05,5.95354e-06,0
-3.02459e-05,2.87771e-05,8.71488e-05,3.55378e-06,1.36421e-05,-5.49945e-06,-4.44686e-06,7.1919e-06,0
-2.86793e-05,2.94411e-05,6.32015e-05,5.18504e-06,1.27616e-05,-8.46464e-06,1.32495e-06,8.2195e-06,0
-2.83765e-05,3.08181e-05,2.27059e-05,2.65842e-06,1.02142e-05,-1.14027e-05,3.63252e-06,7.70525e-06,0
-2.96071e-05,3.08259e-05,-2.22938e-05,-1.04179e-06,6.65429e-06,-1.1812e-05,2.96649e-06,6.51483e-06,0
-3.21727e-05,2.96814e-05,-6.1313e-05,-3.04545e-06,4.51128e-06,-1.09855e-05,2.53111e-07,6.97675e-06,0
-3.33232e-05,2.94272e-05,-8.7062e-05,-1.81536e-06,5.28756e-06,-1.1741e-05,-5.03297e-07,6.37322e-06,0
-3.11114e-05,2.86543e-05,-9.60663e-05,6.46405e-07,9.02016e-06,-1.39736e-05,2.94069e-06,6.20775e-06,0
-2.85585e-05,2.59302e-05,-8.78166e-05,1.65567e-06,1.2114e-05,-1.50291e-05,8.73264e-06,6.78403e-06,0
-2.82929e-05,2.14569e-05,-7.14208e-05,2.55069e-06,1.35361e-05,-1.37062e-05,1.31833e-05,5.25046e-06,0
-2.91584e-05,1.77757e-05,-5.78178e-05,3.49649e-06,1.39995e-05,-1.11244e-05,1.35603e-05,3.24033e-06,0
-2.93162e-05,1.59409e-05,-4.81564e-05,2.54509e-06,1.34851e-05,-9.81649e-06,1.20283e-05,3.34181e-06,0
-3.07052e-05,1.28836e-05,-3.87216e-05,-1.42527e-07,1.45886e-05,-1.20427e-05,1.06289e-05,5.52305e-06,0
-3.32896e-05,7.24444e-06,-2.67631e-05,-2.55608e-06,1.58365e-05,-1.52134e-05,7.17123e-06,6.51478e-06,0
-3.40972e-05,4.04138e-06,-1.76587e-05,-2.2874e-06,1.66358e-05,-1.70031e-05,3.15611e-06,5.4867e-06,0
-3.40688e-05,4.67108e-06,-1.28593e-05,-1.78776e-06,1.63073e-05,-1.6018e-05,3.03556e-06,4.22282e-06,0
-3.45208e-05,5.00093e-06,-1.02512e-05,-3.90163e-06,1.38853e-05,-1.41868e-05,7.18716e-06,3.68126e-06,0
-3.59061e-05,3.49994e-06,-8.50898e-06,-7.35309e-06,1.01913e-05,-1.3709e-05,8.79997e-06,2.56418e-06,0
-3.73288e-05,1.94143e-06,-8.7621e-06,-8.99446e-06,7.45735e-06,-1.41466e-05,2.26482e-06,9.94791e-07,0
-3.81793e-05,3.27144e-06,-1.00854e-05,-8.66808e-06,7.099e-06,-1.56976e-05,-7.82668e-06,5.74277e-07,0
-3.78548e-05,5.67237e-06,-1.00094e-05,-8.3834e-06,7.76428e-06,-1.74924e-05,-1.26138e-05,1.39692e-06,0
-3.6993e-05,7.02679e-06,-8.82813e-06,-8.6034e-06,6.604e-06,-1.81735e-05,-8.86181e-06,2.56881e-06,0
-3.65605e-05,7.44351e-06,-6.22108e-06,-8.13954e-06,3.85198e-06,-1.6987e-05,1.75062e-06,2.44227e-06,0
-3.65642e-05,8.37644e-06,-2.49301e-06,-6.92621e-06,4.11651e-06,-1.4652e-05,1.58597e-05,9.31223e-07,0
-3.74358e-05,9.69333e-06,1.21892e-06,-7.49927e-06,8.97091e-06,-1.32674e-05,2.80449e-05,9.17127e-08,0
-3.88127e-05,1.09126e-05,2.21614e-06,-1.06811e-05,1.41979e-05,-1.35452e-05,3.63111e-05,-2.4178e-07,0
-3.97881e-05,1.17617e-05,4.66397e-07,-1.3212e-05,1.4828e-05,-1.32324e-05,4.23024e-05,-1.40341e-06,0
-3.97005e-05,1.15968e-05,-8.46623e-07,-1.06336e-05,1.19572e-05,-1.1604e-05,4.62361e-05,-2.94594e-06,0
-3.9426e-05,1.13356e-05,-5.43738e-07,-5.72272e-06,9.67306e-06,-1.01337e-05,4.68704e-05,-4.16181e-06,0
-3.90101e-05,1.17106e-05,-2.20547e-06,-5.35303e-06,1.00808e-05,-1.05116e-05,4.41446e-05,-5.7599e-06,0
-3.84375e-05,1.08015e-05,-5.86112e-06,-1.03676e-05,1.15372e-05,-1.11329e-05,3.94575e-05,-8.14012e-06,0
-3.7702e-05,8.38582e-06,-8.00712e-06,-1.53825e-05,1.24223e-05,-1.00031e-05,3.59023e-05,-9.20846e-06,0
-3.68341e-05,4.94361e-06,-6.95613e-06,-1.4879e-05,1.24131e-05,-9.40591e-06,3.294e-05,-1.01338e-05,0
-3.59564e-05,1.66998e-06,-5.773e-06,-8.43311e-06,1.22742e-05,-1.01393e-05,2.97336e-05,-1.18125e-05,0
-3.53394e-05,1.38153e-06,-5.13431e-06,2.99655e-06,1.57936e-05,-9.22552e-06,2.78782e-05,-1.26872e-05,0
-3.43901e-05,2.27131e-06,-3.07846e-06,1.28717e-05,2.0955e-05,-7.18598e-06,2.70257e-05,-1.16263e-05,0
-3.40269e-05,2.76403e-06,-2.23384e-06,1.25954e-05,2.09459e-05,-6.87573e-06,2.47628e-05,-8.21544e-06,0
-3.49772e-05,3.49411e-06,-4.13801e-06,7.47792e-06,1.53376e-05,-7.87544e-06,2.022e-05,-5.46408e-06,0
-3.59153e-05,4.80935e-06,-6.31631e-06,2.96492e-06,9.02789e-06,-8.70168e-06,1.48786e-05,-5.31893e-06,0
-3.544e-05,4.85196e-06,-7.6095e-06,-1.17997e-06,8.45468e-06,-7.23529e-06,8.62465e-06,-6.30621e-06,0
-3.36969e-05,5.03929e-06,-1.0206e-05,-4.00477e-06,1.20611e-05,-5.74811e-06,3.23253e-06,-6.55958e-06,0
-3.28026e-05,5.00353e-06,-1.15706e-05,-5.25557e-06,1.65115e-05,-6.40513e-06,-9.07521e-07,-4.91113e-06,0
-3.30429e-05,2.33561e-06,-1.08442e-05,-5.54561e-06,1.97266e-05,-6.91742e-06,-1.98586e-06,-3.13389e-06,0
-3.28801e-05,-1.11423e-06,-1.02978e-05,-4.53782e-06,2.13596e-05,-6.76643e-06,7.09221e-07,-2.91384e-06,0
-3.17515e-05,-4.53347e-06,-9.65142e-06,-1.81043e-06,2.2754e-05,-6.20642e-06,2.92126e-06,-2.21214e-06,0
-3.09653e-05,-6.088e-06,-8.45133e-06,3.42704e-07,2.34522e-05,-5.19335e-06,1.55224e-06,-7.79903e-07,0
-3.11108e-05,-6.48473e-06,-8.67052e-06,-9.07486e-07,2.28804e-05,-4.70365e-06,-1.11903e-06,-2.79216e-07,0
-3.12505e-05,-6.45341e-06,-9.19522e-06,-4.15946e-06,2.15591e-05,-5.19696e-06,-2.63953e-06,-1.82751e-06,0
-3.11821e-05,-7.31471e-06,-8.09546e-06,-5.93448e-06,2.1367e-05,-6.31583e-06,-2.78893e-06,-3.17453e-06,0
-3.13822e-05,-8.35961e-06,-6.82805e-06,-6.20992e-06,2.03617e-05,-7.28431e-06,-5.23382e-07,-3.43624e-06,0
-3.1503e-05,-7.91245e-06,-6.88367e-06,-5.32531e-06,1.8095e-05,-7.30991e-06,2.77571e-06,-3.50529e-06,0
-3.18056e-05,-7.11397e-06,-8.16827e-06,-4.12088e-06,1.63485e-05,-6.47333e-06,5.84623e-06,-2.30715e-06,0
-3.17349e-05,-5.43037e-06,-9.54954e-06,-4.52753e-06,1.67879e-05,-5.59629e-06,8.48125e-06,-1.45145e-07,0
-3.12194e-05,-3.17603e-06,-1.02642e-05,-7.76136e-06,1.72296e-05,-4.31102e-06,1.06888e-05,2.7638e-06,0
-3.23316e-05,-1.49574e-06,-8.58388e-06,-1.16923e-05,1.51968e-05,-3.21214e-06,1.16621e-05,5.81604e-06,0
-3.48955e-05,-1.65394e-06,-6.78458e-06,-1.35546e-05,1.11737e-05,-4.28159e-06,1.27745e-05,7.3637e-06,0
-3.63121e-05,-4.0681e-06,-7.69904e-06,-1.22822e-05,6.59563e-06,-6.60022e-06,1.41008e-05,7.99484e-06,0
-3.60752e-05,-6.98504e-06,-1.05184e-05,-7.45925e-06,3.40009e-06,-7.50065e-06,1.37363e-05,9.30589e-06,0
-3.53393e-05,-6.78466e-06,-1.20658e-05,-1.30938e-06,4.16404e-06,-6.39442e-06,1.23611e-05,1.05237e-05,0
-3.57686e-05,-5.1308e-06,-1.06184e-05,2.43325e-06,7.55687e-06,-5.68622e-06,1.10081e-05,1.11848e-05,0
-3.76776e-05,-3.3222e-06,-9.04431e-06,3.7758e-06,9.04164e-06,-6.91422e-06,9.94156e-06,1.05523e-05,0
-3.82743e-05,-1.41547e-06,-1.05795e-05,5.98182e-06,8.79193e-06,-9.50573e-06,9.59324e-06,1.04245e-05,0
-3.84955e-05,-1.27944e-06,-1.27577e-05,9.32488e-06,1.05441e-05,-1.16383e-05,8.894e-06,1.20108e-05,0
-3.98487e-05,-2.53591e-06,-1.3238e-05,1.19736e-05,1.39287e-05,-1.19289e-05,8.24101e-06,1.33991e-05,0
-3.88599e-05,-2.50883e-06,-1.19178e-05,1.17281e-05,1.802e-05,-1.10191e-05,9.95254e-06,1.31705e-05,0
-3.56931e-05,9.63248e-08,-1.08627e-05,1.04146e-05,2.20563e-05,-1.0206e-05,1.31396e-05,1.10548e-05,0
-3.33077e-05,3.45013e-06,-1.1241e-05,1.24033e-05,2.3372e-05,-8.48167e-06,1.4417e-05,9.14022e-06,0
-3.26831e-05,7.58971e-06,-1.08747e-05,1.47138e-05,2.32503e-05,-5.75103e-06,1.36098e-05,8.17145e-06,0
-3.22474e-05,1.17895e-05,-9.22258e-06,1.53741e-05,2.571e-05,-3.04739e-06,1.34427e-05,7.5438e-06,0
-3.22186e-05,1.51899e-05,-7.30588e-06,1.51748e-05,3.00968e-05,-1.92822e-06,1.34366e-05,8.25071e-06,0
-3.27209e-05,1.81714e-05,-6.56011e-06,1.36125e-05,3.24944e-05,-1.979e-06,1.28569e-05,9.15481e-06,0
-3.32974e-05,2.00318e-05,-5.38648e-06,8.84869e-06,3.08368e-05,-2.40935e-06,1.25036e-05,7.46314e-06,0
-3.39527e-05,2.05528e-05,-4.61006e-06,1.08493e-06,2.62481e-05,-3.39523e-06,1.2663e-05,4.20856e-06,0
-3.36508e-05,2.27744e-05,-4.54549e-06,-6.51352e-06,2.19467e-05,-4.88681e-06,1.28512e-05,2.2063e-06,0
-3.29889e-05,2.70467e-05,-4.51277e-06,-1.27919e-05,1.93532e-05,-7.09445e-06,1.18378e-05,2.27643e-06,0
-3.16813e-05,2.91294e-05,-4.75228e-06,-1.58979e-05,1.85705e-05,-8.17287e-06,1.03321e-05,2.96894e-06,0
-2.97285e-05,2.82533e-05,-5.42301e-06,-1.63334e-05,1.72662e-05,-7.90309e-06,1.0147e-05,3.55913e-06,0
-2.8655e-05,2.76627e-05,-6.42608e-06,-1.76872e-05,1.58722e-05,-7.10914e-06,1.0547e-05,4.26536e-06,0
-2.95097e-05,2.9818e-05,-6.4958e-06,-2.17775e-05,1.62591e-05,-7.04576e-06,1.0295e-05,3.53807e-06,0
-3.01678e-05,3.27279e-05,-5.39942e-06,-2.58497e-05,1.77504e-05,-7.02776e-06,1.00646e-05,3.20175e-07,0
-2.96619e-05,3.39667e-05,-3.8981e-06,-2.94993e-05,1.7567e-05,-6.24556e-06,1.18974e-05,-2.75861e-06,0
-2.90846e-05,3.37189e-05,-3.02126e-06,-3.29311e-05,1.50357e-05,-6.16742e-06,1.51129e-05,-3.70029e-06,0
-2.87615e-05,3.34217e-05,-3.137e-06,-3.22045e-05,1.33183e-05,-7.52281e-06,1.79438e-05,-3.82903e-06,0
-2.90118e-05,3.3308e-05,-3.27429e-06,-2.63514e-05,1.52391e-05,-7.97784e-06,1.94785e-05,-2.57494e-06,0
-3.11169e-05,3.15788e-05,-1.63862e-06,-1.89243e-05,1.85293e-05,-7.15737e-06,1.88764e-05,-1.0851e-07,0
-3.34176e-05,2.76326e-05,-8.66016e-07,-1.14619e-05,1.9792e-05,-6.27175e-06,1.71286e-05,2.23365e-06,0
-3.21252e-05,2.41719e-05,-1.95453e-06,-3.95172e-06,1.92283e-05,-5.93767e-06,1.5616e-05,4.07449e-06,0
-2.93247e-05,2.3716e-05,-2.80692e-06,8.38074e-07,1.74182e-05,-7.16789e-06,1.41151e-05,3.25873e-06,0
-2.77346e-05,2.39288e-05,-2.89216e-06,6.05757e-07,1.3746e-05,-7.96664e-06,1.31002e-05,1.32132e-06,0
-2.67111e-05,2.38933e-05,-3.08472e-06,-2.25644e-06,1.07554e-05,-7.70093e-06,1.29528e-05,-1.23335e-07,0
-2.66896e-05,2.55983e-05,-3.13428e-06,-3.80093e-06,1.01512e-05,-7.1038e-06,1.30355e-05,-1.4678e-06,0
-2.65757e-05,2.86388e-05,-2.33664e-06,-1.40048e-06,1.00397e-05,-6.52968e-06,1.43387e-05,-2.11073e-06,0
-2.55528e-05,3.00581e-05,-3.31238e-06,8.62117e-08,1.18451e-05,-6.58685e-06,1.37699e-05,-1.72231e-06,0
-2.41916e-05,2.70476e-05,-6.05916e-06,-4.20523e-06,1.32587e-05,-6.52319e-06,1.07934e-05,-7.67731e-07,0
-2.37829e-05,2.24008e-05,-7.62946e-06,-1.00003e-05,1.14455e-05,-6.87354e-06,9.61084e-06,-5.84074e-07,0
-2.44925e-05,1.90521e-05,-7.37009e-06,-1.18262e-05,8.93889e-06,-6.98859e-06,9.68758e-06,-1.00553e-06,0
-2.53367e-05,1.57383e-05,-6.62341e-06,-7.9486e-06,7.32579e-06,-5.67716e-06,9.84349e-06,-3.07391e-08,0
-2.64485e-05,1.28932e-05,-6.64989e-06,-4.113e-06,7.136e-06,-4.54182e-06,9.06821e-06,1.13102e-06,0
-2.74664e-05,1.13876e-05,-6.98891e-06,-2.25792e-06,8.37115e-06,-5.49673e-06,8.70342e-06,1.55568e-07,0
-2.78814e-05,9.44013e-06,-7.27993e-06,-1.13576e-06,1.07811e-05,-6.9211e-06,1.03111e-05,-1.39111e-06,0
-2.77667e-05,6.03629e-06,-8.17695e-06,-1.17741e-06,1.44313e-05,-6.19382e-06,1.25836e-05,-2.13049e-06,0
-2.77161e-05,3.81242e-06,-9.16733e-06,-1.62242e-06,1.78892e-05,-3.7224e-06,1.3464e-05,-1.78645e-06,0
-2.82666e-05,4.26513e-06,-1.02276e-05,-2.39538e-06,2.01903e-05,-1.12961e-06,1.32504e-05,-6.02758e-07,0
-2.95523e-05,5.12365e-06,-1.18103e-05,-4.10769e-06,2.12732e-05,-2.83462e-07,1.31513e-05,7.26173e-07,0
-2.95772e-05,5.11234e-06,-1.31208e-05,-5.82052e-06,2.07424e-05,-1.66963e-06,1.32566e-05,2.26281e-07,0
-2.78197e-05,5.43123e-06,-1.36857e-05,-5.05857e-06,1.90742e-05,-4.71369e-06,1.41393e-05,-1.0187e-06,0
-2.57275e-05,6.51177e-06,-1.35099e-05,-2.16026e-06,1.72306e-05,-7.48846e-06,1.44344e-05,-1.30074e-06,0
-2.39521e-05,8.26411e-06,-1.18545e-05,4.92686e-06,1.45932e-05,-9.28519e-06,1.35379e-05,-8.35605e-07,0
-2.21711e-05,1.04205e-05,-9.5741e-06,2.27883e-05,1.21453e-05,-1.03307e-05,1.29318e-05,-4.30183e-07,0
-2.10945e-05,1.34243e-05,-9.20585e-06,4.55322e-05,1.15331e-05,-1.08826e-05,1.3129e-05,-5.98757e-07,0
-2.07247e-05,1.781e-05,-1.09315e-05,6.11088e-05,1.27537e-05,-1.096e-05,1.3186e-05,-1.33655e-06,0
-2.11568e-05,2.10793e-05,-1.21933e-05,7.19018e-05,1.36072e-05,-1.11367e-05,1.30245e-05,-1.5509e-06,0
-2.29445e-05,2.06374e-05,-1.17518e-05,6.93757e-05,1.14012e-05,-1.19605e-05,1.33349e-05,-5.82178e-07,0
-2.48111e-05,1.83253e-05,-9.69271e-06,4.30974e-05,8.88802e-06,-1.31015e-05,1.48933e-05,2.61744e-07,0
-2.59136e-05,1.79669e-05,-8.7179e-06,6.33624e-06,8.00494e-06,-1.30919e-05,1.51321e-05,1.43394e-06,0
-2.75989e-05,1.78459e-05,-9.17059e-06,-2.32459e-05,8.346e-06,-1.33364e-05,1.39625e-05,1.71441e-06,0
-2.9e-05,1.58706e-05,-9.11727e-06,-3.67937e-05,9.38455e-06,-1.61703e-05,1.35104e-05,1.11865e-06,0
-2.90246e-05,1.2938e-05,-1.00677e-05,-3.87228e-05,9.26268e-06,-1.58569e-05,1.4014e-05,9.46695e-07,0
-2.85632e-05,1.02533e-05,-1.09195e-05,-3.51777e-05,1.06686e-05,-1.36918e-05,1.74436e-05,1.6572e-06,0
-2.89812e-05,9.8704e-06,-1.04061e-05,-3.41429e-05,1.20767e-05,-1.36953e-05,2.23162e-05,1.91202e-06,0
-3.02066e-05,9.49229e-06,-8.73411e-06,-4.22549e-05,1.0965e-05,-1.36364e-05,2.43814e-05,2.23453e-06,0
-2.94913e-05,8.92564e-06,-8.14286e-06,-5.69607e-05,1.00067e-05,-1.38245e-05,2.28299e-05,2.73145e-06,0
-2.86601e-05,8.64741e-06,-8.39948e-06,-7.29001e-05,8.99168e-06,-1.32202e-05,2.02436e-05,1.70013e-06,0
-2.96237e-05,8.0245e-06,-7.95273e-06,-8.64516e-05,8.70823e-06,-1.13514e-05,1.86585e-05,-4.94406e-07,0
-3.02614e-05,7.83847e-06,-7.46382e-06,-9.56454e-05,9.85723e-06,-9.32394e-06,1.7659e-05,-2.43112e-06,0
-2.84398e-05,7.76687e-06,-5.88996e-06,-9.21267e-05,1.1116e-05,-9.24945e-06,1.45822e-05,-3.49758e-06,0
-2.69865e-05,8.6544e-06,-2.88898e-06,-7.43507e-05,1.12618e-05,-9.68793e-06,8.92419e-06,-4.26102e-06,0
-2.7512e-05,1.08324e-05,-6.74348e-07,-5.02991e-05,1.1204e-05,-9.52801e-06,4.15686e-06,-4.22722e-06,0
-2.8144e-05,1.3093e-05,-2.06042e-06,-2.62709e-05,1.21537e-05,-1.03165e-05,2.73763e-06,-4.88822e-06,0
-2.91121e-05,1.38128e-05,-6.33369e-06,-7.50084e-06,1.32362e-05,-1.13824e-05,3.33893e-06,-5.64217e-06,0
-3.09371e-05,1.39374e-05,-1.07149e-05,-4.40353e-07,1.3755e-05,-1.16729e-05,4.45615e-06,-5.94265e-06,0
-3.19244e-05,1.37079e-05,-1.26888e-05,-6.36437e-06,1.40516e-05,-1.17738e-05,6.04398e-06,-5.42599e-06,0
-3.03289e-05,1.26827e-05,-1.18953e-05,-1.932e-05,1.49056e-05,-1.28623e-05,7.53109e-06,-3.62558e-06,0
-2.83713e-05,1.06211e-05,-1.04193e-05,-3.01621e-05,1.5658e-05,-1.42843e-05,8.35372e-06,-2.40374e-06,0
-2.826e-05,8.34708e-06,-1.01213e-05,-3.46036e-05,1.4963e-05,-1.65216e-05,7.65439e-06,-3.27979e-06,0
-2.94668e-05,7.28263e-06,-9.60875e-06,-3.5497e-05,1.31641e-05,-1.78759e-05,4.64017e-06,-3.84885e-06,0
-3.05839e-05,7.49246e-06,-7.79477e-06,-3.38762e-05,1.2624e-05,-1.75488e-05,1.52112e-06,-2.16054e-06,0
-3.03963e-05,8.29729e-06,-4.96571e-06,-2.85836e-05,1.55851e-05,-1.69889e-05,1.98138e-06,-4.94604e-07,0
-2.88164e-05,8.98007e-06,-1.98866e-06,-1.59533e-05,2.07275e-05,-1.68026e-05,6.58589e-06,1.63412e-07,0
-2.75045e-05,9.06447e-06,-4.42423e-07,6.22536e-06,2.56373e-05,-1.61662e-05,1.11674e-05,-2.88243e-08,0
-2.77401e-05,9.95226e-06,-1.94842e-06,3.0712e-05,2.79152e-05,-1.64504e-05,1.28011e-05,-1.8095e-06,0
-2.84053e-05,1.3737e-05,-4.45484e-06,4.81861e-05,2.63396e-05,-1.76418e-05,1.40589e-05,-3.96732e-06,0
-2.64272e-05,1.71535e-05,-3.36823e-06,5.81045e-05,2.43883e-05,-1.7342e-05,1.48468e-05,-4.21698e-06,0
-2.43671e-05,1.6217e-05,-7.66636e-07,5.92712e-05,2.46914e-05,-1.53981e-05,1.39204e-05,-2.72943e-06,0
-2.3616e-05,1.61121e-05,1.23018e-07,5.28865e-05,2.38053e-05,-1.2763e-05,1.29146e-05,2.87825e-07,0
-2.3057e-05,1.92641e-05,2.76713e-07,4.14894e-05,1.91761e-05,-1.18358e-05,1.23388e-05,1.29756e-06,0
-2.29123e-05,2.12978e-05,-4.51072e-07,2.67153e-05,1.55902e-05,-1.28082e-05,1.17731e-05,-1.26642e-07,0
-2.28722e-05,2.56115e-05,-3.42673e-06,1.56873e-05,1.6358e-05,-1.41739e-05,1.06361e-05,-5.59439e-07,0
-2.36132e-05,3.27526e-05,-7.19069e-06,1.0589e-05,1.64557e-05,-1.47577e-05,9.20782e-06,-1.52434e-06,0
-2.34093e-05,3.72374e-05,-1.07372e-05,7.99612e-06,1.41405e-05,-1.49647e-05,8.97878e-06,-2.7417e-06,0
-2.21871e-05,3.65361e-05,-1.44343e-05,5.88232e-06,1.27556e-05,-1.41571e-05,1.02652e-05,-7.59418e-07,0
-2.06755e-05,3.30185e-05,-1.78521e-05,4.46248e-06,1.1399e-05,-1.28016e-05,1.03928e-05,2.34357e-06,0
-2.06757e-05,3.14221e-05,-2.01367e-05,2.87963e-06,1.06899e-05,-1.13144e-05,3.4733e-06,3.52947e-06,0
-2.16439e-05,3.3229e-05,-1.95097e-05,1.25943e-06,1.19363e-05,-1.05913e-05,-1.13599e-05,3.76998e-06,0
-2.24663e-05,3.59694e-05,-1.63539e-05,-2.11617e-08,1.11603e-05,-1.21803e-05,-2.53537e-05,4.25486e-06,0
-2.26826e-05,3.78414e-05,-1.29396e-05,-4.52601e-08,6.24554e-06,-1.43306e-05,-3.12246e-05,4.39746e-06,0
-2.31539e-05,3.58795e-05,-9.71888e-06,3.0052e-06,1.6897e-06,-1.51289e-05,-2.68071e-05,4.18949e-06,0
-2.46148e-05,2.54192e-05,-7.19471e-06,7.64077e-06,2.52517e-07,-1.4369e-05,-1.41203e-05,4.57027e-06,0
-2.55493e-05,6.8623e-06,-6.81184e-06,9.15305e-06,-2.48028e-07,-1.36126e-05,2.04043e-06,5.48848e-06,0
-2.52383e-05,-1.27324e-05,-8.1193e-06,5.65993e-06,9.50635e-08,-1.25591e-05,1.67895e-05,6.1028e-06,0
-2.40655e-05,-2.66985e-05,-9.09461e-06,1.88643e-06,2.66817e-06,-1.13563e-05,2.84321e-05,6.354e-06,0
-2.35725e-05,-3.39516e-05,-9.07983e-06,1.27414e-06,6.64591e-06,-1.01674e-05,3.67393e-05,8.13993e-06,0
-2.44069e-05,-3.64415e-05,-9.76648e-06,6.638e-07,9.19953e-06,-8.74785e-06,4.14729e-05,1.0922e-05,0
-2.71654e-05,-3.75393e-05,-1.1865e-05,-3.26954e-06,9.85531e-06,-8.41845e-06,4.354e-05,1.26324e-05,0
-3.09948e-05,-3.55708e-05,-1.39379e-05,-7.08486e-06,9.73789e-06,-9.70602e-06,4.24254e-05,1.19147e-05,0
-3.40179e-05,-2.76215e-05,-1.49101e-05,-7.74236e-06,8.33402e-06,-1.1216e-05,3.91194e-05,1.03391e-05,0
-3.43233e-05,-1.72785e-05,-1.48177e-05,-8.15297e-06,5.7009e-06,-1.179e-05,3.64956e-05,8.42951e-06,0
-3.31627e-05,-6.28752e-06,-1.49366e-05,-9.59836e-06,4.03399e-06,-1.07026e-05,3.46543e-05,4.48526e-06,0
-3.19502e-05,3.54909e-06,-1.56865e-05,-1.26706e-05,4.31741e-06,-9.27584e-06,3.22807e-05,1.72348e-06,0
-3.22479e-05,9.64745e-06,-1.65334e-05,-2.00142e-05,4.26917e-06,-8.65113e-06,3.10587e-05,2.32642e-06,0
-3.12021e-05,1.25492e-05,-1.69491e-05,-2.49247e-05,2.16023e-06,-8.3543e-06,3.19685e-05,3.72249e-06,0
-2.96267e-05,1.26748e-05,-1.71959e-05,-2.2655e-05,-3.8376e-07,-9.06208e-06,3.2643e-05,3.41921e-06,0
-3.08179e-05,1.17019e-05,-1.73383e-05,-2.09437e-05,-3.73514e-07,-1.14933e-05,3.13851e-05,1.10869e-06,0
-3.16794e-05,9.89803e-06,-1.69001e-05,-2.47269e-05,5.29617e-07,-1.38108e-05,2.8617e-05,-6.18558e-07,0
-3.19348e-05,9.30598e-06,-1.68762e-05,-2.96021e-05,2.13209e-07,-1.29527e-05,2.46679e-05,8.4741e-07,0
-3.15424e-05,1.04206e-05,-1.60276e-05,-2.84467e-05,-5.75793e-07,-1.13397e-05,2.14067e-05,3.69306e-06,0
-3.21793e-05,1.23968e-05,-1.43936e-05,-1.82915e-05,6.4783e-07,-1.10011e-05,1.90843e-05,5.28954e-06,0
-3.41789e-05,1.35386e-05,-1.46176e-05,-3.7351e-06,3.68955e-06,-1.14776e-05,1.61951e-05,6.6057e-06,0
-3.65721e-05,1.30929e-05,-1.65232e-05,8.1181e-06,3.24124e-06,-1.17749e-05,1.32076e-05,7.0854e-06,0
-3.81864e-05,1.1211e-05,-1.7419e-05,1.79127e-05,1.37994e-06,-1.10377e-05,1.19741e-05,5.62498e-06,0
-3.84752e-05,8.6869e-06,-1.73131e-05,2.60289e-05,4.16542e-06,-9.8279e-06,1.202e-05,3.86619e-06,0
-3.85649e-05,7.75308e-06,-1.79686e-05,3.11801e-05,9.66797e-06,-8.31108e-06,1.23681e-05,2.95719e-06,0
-3.82696e-05,1.16647e-05,-1.77742e-05,3.29928e-05,1.25742e-05,-5.95237e-06,1.29907e-05,2.83074e-06,0
-3.85186e-05,2.27479e-05,-1.58986e-05,2.79229e-05,1.02365e-05,-3.43052e-06,1.297e-05,2.68448e-06,0
-3.93122e-05,3.45493e-05,-1.27177e-05,1.61562e-05,3.64136e-06,-3.00336e-06,1.26302e-05,1.42083e-06,0
-3.96179e-05,4.04701e-05,-9.92225e-06,4.44597e-06,-3.14696e-06,-5.31175e-06,1.24407e-05,-2.77897e-07,0
-3.84409e-05,4.116e-05,-8.50432e-06,-2.59662e-06,-6.12111e-06,-7.58996e-06,1.17951e-05,-4.96622e-07,0
-3.58475e-05,4.28684e-05,-6.77213e-06,-8.70942e-06,-5.33706e-06,-8.01068e-06,1.06381e-05,6.08203e-07,0
-3.32892e-05,4.91519e-05,-2.00768e-06,-1.75062e-05,-3.80075e-06,-8.45984e-06,1.10086e-05,2.68627e-07,0
-3.14293e-05,5.51181e-05,6.12126e-06,-2.19921e-05,-1.38495e-06,-9.65389e-06,1.28101e-05,-2.03043e-06,0
-3.04022e-05,5.27175e-05,1.61071e-05,-1.4675e-05,5.72739e-06,-1.0754e-05,1.39962e-05,-3.31469e-06,0
-3.06625e-05,4.10346e-05,2.96662e-05,-1.85786e-07,1.63664e-05,-1.05613e-05,1.31451e-05,-2.24876e-06,0
-3.22684e-05,2.28841e-05,4.84172e-05,1.23863e-05,2.56101e-05,-9.72991e-06,1.22524e-05,6.67497e-08,0
-3.32839e-05,2.3612e-06,6.83992e-05,1.98314e-05,3.2335e-05,-9.48381e-06,1.24683e-05,1.11125e-06,0
-3.30153e-05,-1.73276e-05,8.20174e-05,2.12339e-05,3.39175e-05,-8.60569e-06,1.13585e-05,6.69421e-10,0
-3.26532e-05,-2.9965e-05,8.12701e-05,1.76652e-05,3.06196e-05,-7.03183e-06,7.8823e-06,-2.08804e-06,0
-3.15408e-05,-2.6781e-05,5.92848e-05,1.58798e-05,2.9474e-05,-5.39558e-06,4.79957e-06,-3.37904e-06,0
-3.15209e-05,-9.72749e-06,1.98297e-05,1.548e-05,3.38431e-05,-3.7313e-06,4.35147e-06,-2.15887e-06,0
-3.18783e-05,1.06906e-05,-2.48087e-05,1.0572e-05,4.04757e-05,-3.67344e-06,4.01038e-06,2.50582e-07,0
-3.2084e-05,2.39699e-05,-6.18367e-05,7.08912e-07,4.28995e-05,-5.442e-06,2.31672e-06,2.16015e-06,0
-3.37329e-05,2.83196e-05,-8.36343e-05,-1.16063e-05,3.88742e-05,-6.70216e-06,1.22641e-06,2.72139e-06,0
-3.56646e-05,3.11358e-05,-8.92398e-05,-2.46882e-05,3.30433e-05,-6.2101e-06,2.56334e-06,1.07239e-06,0
-3.67033e-05,3.84296e-05,-8.00832e-05,-3.32922e-05,2.79764e-05,-6.21616e-06,6.51601e-06,-5.68368e-07,0
-3.55628e-05,4.77058e-05,-6.40665e-05,-3.40667e-05,2.46319e-05,-8.48239e-06,1.03088e-05,-7.01886e-07,0
-3.42999e-05,5.16991e-05,-4.96396e-05,-3.19554e-05,2.41272e-05,-1.08222e-05,1.16181e-05,-7.81827e-07,0
-3.36904e-05,4.99566e-05,-3.80901e-05,-3.00996e-05,2.45415e-05,-1.11446e-05,1.14975e-05,-5.67036e-07,0
-3.3849e-05,4.59364e-05,-2.8151e-05,-2.69368e-05,2.3466e-05,-1.06992e-05,1.03386e-05,2.9008e-07,0
-3.41455e-05,4.2055e-05,-1.99051e-05,-2.24706e-05,2.0729e-05,-1.06104e-05,9.97554e-06,1.98065e-06,0
-3.4253e-05,3.67905e-05,-1.50581e-05,-2.01016e-05,1.89094e-05,-9.77605e-06,1.03313e-05,3.59568e-06,0
-3.39483e-05,2.95813e-05,-1.43808e-05,-2.05694e-05,1.94788e-05,-8.65167e-06,9.96132e-06,3.22721e-06,0
-3.37154e-05,2.32975e-05,-1.56095e-05,-2.16417e-05,1.99645e-05,-8.19422e-06,9.23722e-06,1.0387e-06,0
-3.37673e-05,1.72176e-05,-1.4869e-05,-1.99645e-05,1.73293e-05,-8.5566e-06,9.48088e-06,-1.77173e-06,0
-3.29794e-05,8.05507e-06,-1.1572e-05,-1.34386e-05,1.40527e-05,-8.34001e-06,1.04239e-05,-3.5697e-06,0
-3.1043e-05,-8.12921e-06,-7.18201e-06,-2.80164e-06,1.36175e-05,-6.63826e-06,1.00315e-05,-3.4938e-06,0
-2.90175e-05,-2.85e-05,-2.44321e-06,6.56762e-06,1.47386e-05,-4.88167e-06,9.59927e-06,-2.11477e-06,0
-2.84535e-05,-4.50112e-05,7.38723e-07,9.79678e-06,1.46978e-05,-4.23524e-06,9.92293e-06,-8.39061e-07,0
-2.95264e-05,-5.21825e-05,-2.93125e-07,8.03198e-06,1.2319e-05,-4.74303e-06,9.46662e-06,-5.0331e-07,0
-3.08086e-05,-4.95663e-05,-3.48297e-06,4.47503e-06,9.15774e-06,-6.33766e-06,8.03141e-06,-5.2998e-07,0
-2.9404e-05,-3.80985e-05,-5.58731e-06,-2.26036e-07,8.28922e-06,-7.99785e-06,7.28104e-06,1.31044e-07,0
-2.67786e-05,-2.13876e-05,-6.83908e-06,-4.55274e-06,8.51761e-06,-8.60387e-06,6.94094e-06,5.34706e-07,0
-2.52945e-05,-1.52628e-06,-6.79725e-06,-2.35778e-06,8.78138e-06,-7.39646e-06,7.84274e-06,5.68377e-07,0
-2.49711e-05,1.9402e-05,-5.55505e-06,5.73905e-06,1.04104e-05,-5.70358e-06,9.93769e-06,1.48412e-06,0
-2.35553e-05,3.40027e-05,-3.29387e-06,1.13654e-05,1.10066e-05,-4.06944e-06,1.21134e-05,3.02073e-06,0
-2.35562e-05,3.50889e-05,-6.12363e-07,1.09346e-05,1.05596e-05,-9.38129e-07,1.36215e-05,4.69287e-06,0
-2.65601e-05,2.51669e-05,6.74622e-07,5.81496e-06,1.08485e-05,-8.40937e-07,1.17388e-05,6.3234e-06,0
-2.93039e-05,1.72094e-05,3.83623e-07,-1.18136e-07,1.06954e-05,-5.73395e-06,9.41316e-06,6.41225e-06,0
-3.12992e-05,1.52727e-05,-1.74856e-06,-6.03024e-06,9.77307e-06,-1.24818e-05,9.59765e-06,5.10186e-06,0
-3.3238e-05,1.57586e-05,-5.02718e-06,-1.08508e-05,1.00943e-05,-2.01535e-05,1.07217e-05,4.59176e-06,0
-3.59633e-05,2.48588e-05,-6.24174e-06,-1.0919e-05,1.20924e-05,-2.67276e-05,1.32835e-05,5.87097e-06,0
-3.79641e-05,3.82871e-05,-6.25042e-06,-7.49911e-06,1.36058e-05,-2.03476e-05,1.60677e-05,6.71642e-06,0
-3.87333e-05,4.5215e-05,-5.51463e-06,-5.48695e-07,1.50486e-05,4.76725e-06,1.63049e-05,3.37939e-06,0
-4.22653e-05,4.68959e-05,-4.17547e-06,1.28412e-05,1.69474e-05,3.06002e-05,1.43327e-05,-1.59091e-06,0
-4.58759e-05,4.89891e-05,-3.8857e-06,3.5795e-05,1.76296e-05,3.50453e-05,1.30036e-05,-3.96502e-06,0
-4.40791e-05,5.2127e-05,-3.59627e-06,5.88289e-05,1.69299e-05,2.05954e-05,1.31401e-05,-3.6511e-06,0
-3.85861e-05,5.04881e-05,-3.25668e-06,6.62369e-05,1.60924e-05,6.1036e-06,1.4047e-05,-2.53293e-06,0
-3.34543e-05,4.09543e-05,-3.59078e-06,5.53383e-05,1.58834e-05,-5.10932e-07,1.56574e-05,-1.08216e-06,0
-3.07854e-05,2.56211e-05,-4.28767e-06,3.65334e-05,1.47783e-05,-3.23235e-06,1.60729e-05,4.7424e-08,0
-2.9471e-05,8.35738e-06,-5.11109e-06,2.02167e-05,1.22748e-05,-9.1339e-06,1.46466e-05,6.52377e-07,0
-2.90854e-05,-9.84609e-06,-5.42318e-06,8.08277e-06,8.93863e-06,-1.86281e-05,1.20458e-05,5.00057e-07,0
-3.10545e-05,-2.61778e-05,-4.53835e-06,-2.68453e-06,5.70894e-06,-2.62801e-05,9.8051e-06,-1.76916e-06,0
-3.65313e-05,-3.53771e-05,-3.03725e-06,-1.49483e-05,4.72009e-06,-2.92e-05,9.11192e-06,-4.73636e-06,0
-4.24881e-05,-3.32843e-05,-2.67988e-06,-2.66028e-05,5.73568e-06,-2.99257e-05,9.31054e-06,-6.56997e-06,0
-4.58787e-05,-2.19316e-05,-4.63539e-06,-3.34797e-05,6.90048e-06,-3.10253e-05,9.71808e-06,-6.94038e-06,0
-4.78376e-05,-7.06198e-06,-8.00531e-06,-3.53682e-05,8.03882e-06,-3.29327e-05,1.01865e-05,-6.04327e-06,0
-4.77918e-05,4.33107e-06,-9.46869e-06,-3.73493e-05,8.64252e-06,-3.38534e-05,1.01018e-05,-4.96691e-06,0
-4.27716e-05,9.84122e-06,-6.84529e-06,-4.20071e-05,8.46552e-06,-3.1119e-05,9.35611e-06,-5.66522e-06,0
-3.49984e-05,1.25289e-05,-3.24702e-06,-4.25062e-05,7.49772e-06,-2.6011e-05,9.79161e-06,-8.77351e-06,0
-2.81986e-05,1.38614e-05,-2.54476e-06,-2.96154e-05,6.59736e-06,-1.97612e-05,1.21475e-05,-1.20168e-05,0
-2.17591e-05,1.33549e-05,-5.85675e-06,-8.72618e-06,7.73732e-06,-7.90873e-06,1.41408e-05,-1.16352e-05,0
-1.76855e-05,1.28784e-05,-7.99018e-06,6.05555e-06,9.94795e-06,4.51903e-06,1.34762e-05,-8.70586e-06,0
-2.07097e-05,1.54277e-05,-6.57714e-06,7.14561e-06,1.14242e-05,4.80858e-06,1.19933e-05,-7.32137e-06,0
-2.72442e-05,2.43817e-05,-2.79699e-06,-3.71145e-06,1.35192e-05,-1.7322e-06,1.13279e-05,-8.35356e-06,0
-2.94372e-05,3.95398e-05,1.61806e-06,-2.16767e-05,1.52159e-05,-5.69782e-06,1.04465e-05,-9.44704e-06,0
-2.42479e-05,5.73518e-05,3.06247e-06,-3.97338e-05,1.30172e-05,-7.93107e-06,1.02663e-05,-8.0082e-06,0
-1.70625e-05,7.13674e-05,2.36215e-06,-5.23129e-05,1.00084e-05,-1.00382e-05,1.0034e-05,-5.61639e-06,0
-1.43305e-05,7.07546e-05,2.02218e-06,-6.38029e-05,8.64385e-06,-1.24675e-05,8.3723e-06,-6.07348e-06,0
-1.39215e-05,5.5405e-05,3.12376e-06,-7.38721e-05,1.02998e-05,-1.40435e-05,6.55793e-06,-8.28077e-06,0
-1.45426e-05,3.60758e-05,4.06518e-06,-7.65141e-05,1.36581e-05,-1.32158e-05,6.88707e-06,-8.02112e-06,0
-1.57716e-05,2.51551e-05,3.7096e-06,-7.36204e-05,1.66431e-05,-1.05901e-05,1.07938e-05,-3.39926e-06,0
-1.61124e-05,2.52584e-05,2.75854e-06,-7.24996e-05,1.81656e-05,-6.39222e-06,1.42349e-05,2.09003e-06,0
-1.60988e-05,3.09029e-05,3.31099e-06,-7.36846e-05,1.73643e-05,-2.11018e-06,1.43264e-05,4.13908e-06,0
-1.69479e-05,3.84061e-05,4.38311e-06,-7.04515e-05,1.46964e-05,8.10531e-07,1.20149e-05,2.63154e-06,0
-1.80869e-05,4.3398e-05,3.38688e-06,-5.61998e-05,1.06139e-05,1.73201e-06,1.02536e-05,1.30037e-06,0
-1.85511e-05,4.14892e-05,5.94873e-07,-3.11515e-05,8.38413e-06,1.93022e-07,9.85253e-06,1.39244e-06,0
-1.93331e-05,3.13446e-05,-1.42947e-06,-2.14364e-06,8.69769e-06,1.39896e-06,1.00433e-05,8.96032e-07,0
-2.19722e-05,1.20543e-05,-1.52838e-06,2.29265e-05,8.48669e-06,8.91534e-06,1.12444e-05,6.54122e-07,0
-2.58176e-05,-1.71369e-05,-9.99159e-07,3.9527e-05,6.31453e-06,1.40796e-05,1.21797e-05,1.24878e-06,0
-2.96709e-05,-5.09962e-05,-1.10769e-06,4.77238e-05,7.22346e-06,8.65862e-06,1.17541e-05,2.34634e-06,0
-3.20607e-05,-7.74999e-05,-2.72724e-06,4.71574e-05,1.21082e-05,-1.58584e-06,1.14636e-05,2.57158e-06,0
-3.09334e-05,-8.76904e-05,-5.70472e-06,3.58032e-05,1.51818e-05,-8.22344e-06,1.33077e-05,1.76451e-06,0
-2.78888e-05,-8.2902e-05,-8.22025e-06,1.88233e-05,1.38976e-05,-1.14513e-05,1.63297e-05,1.45361e-06,0
-2.49949e-05,-7.08973e-05,-8.70999e-06,7.58966e-06,1.25221e-05,-1.3414e-05,1.91497e-05,2.38548e-06,0
-2.25767e-05,-5.71205e-05,-9.4377e-06,4.11077e-06,1.38075e-05,-1.32952e-05,2.12489e-05,2.60222e-06,0
-2.20539e-05,-3.59536e-05,-1.13991e-05,4.82431e-06,1.5994e-05,-1.23599e-05,2.19649e-05,2.4428e-06,0
-2.42497e-05,-1.33027e-06,-1.4068e-05,5.99525e-06,1.65168e-05,-1.10973e-05,2.00747e-05,3.56531e-06,0
-2.64457e-05,3.26339e-05,-1.76874e-05,4.27803e-06,1.48129e-05,-1.01827e-05,1.70088e-05,3.66395e-06,0
-2.68811e-05,5.31129e-05,-2.02643e-05,2.48641e-06,1.4139e-05,-1.08736e-05,1.54156e-05,1.78068e-06,0
-2.66973e-05,5.6532e-05,-2.07612e-05,6.09275e-06,1.77809e-05,-1.03998e-05,1.66874e-05,1.29204e-06,0
-2.64186e-05,4.01817e-05,-1.99291e-05,1.13327e-05,2.33588e-05,-9.70903e-06,1.84871e-05,3.52647e-06,0
-2.65637e-05,1.34687e-05,-1.9328e-05,1.17864e-05,2.571e-05,-1.10437e-05,1.86829e-05,5.81798e-06,0
-2.71272e-05,-1.01181e-05,-2.05591e-05,7.90304e-06,2.44919e-05,-1.23131e-05,1.76217e-05,7.08062e-06,0
-2.83539e-05,-2.55455e-05,-2.23946e-05,2.45581e-06,2.31119e-05,-1.13553e-05,1.62336e-05,8.03581e-06,0
-3.18198e-05,-3.4372e-05,-2.27016e-05,6.14809e-07,2.19339e-05,-1.04348e-05,1.61356e-05,8.50224e-06,0
-3.41533e-05,-3.34317e-05,-2.0139e-05,1.13071e-06,2.02819e-05,-1.10098e-05,1.67591e-05,7.56715e-06,0
-3.16887e-05,-2.4009e-05,-1.75957e-05,1.70672e-06,2.14322e-05,-1.18572e-05,1.71668e-05,6.78236e-06,0
-2.67667e-05,-1.53889e-05,-1.68456e-05,2.78503e-06,2.34051e-05,-1.21213e-05,1.69123e-05,6.82374e-06,0
-2.27405e-05,-1.15253e-05,-1.7339e-05,2.87806e-06,2.25295e-05,-1.01219e-05,1.51226e-05,7.89612e-06,0
-2.09357e-05,-1.13863e-05,-1.78187e-05,1.6798e-06,2.01151e-05,-6.67965e-06,1.23079e-05,9.37757e-06,0
-2.19511e-05,-2.1161e-05,-1.80989e-05,-7.08071e-07,1.98674e-05,-4.7447e-06,1.04092e-05,9.90677e-06,0
-2.44975e-05,-4.43812e-05,-1.77992e-05,-2.88565e-06,2.09708e-05,-5.25887e-06,1.081e-05,9.51206e-06,0
-2.67497e-05,-7.1065e-05,-1.67276e-05,-4.34978e-06,2.01622e-05,-6.28206e-06,1.3269e-05,8.65409e-06,0
-2.90742e-05,-8.76768e-05,-1.63303e-05,-4.9239e-06,1.70404e-05,-7.67018e-06,1.55244e-05,6.73556e-06,0
-3.18133e-05,-8.91073e-05,-1.64173e-05,-5.50602e-06,1.35776e-05,-9.94506e-06,1.6593e-05,4.30336e-06,0
-3.38899e-05,-7.97256e-05,-1.68644e-05,-5.13127e-06,1.16347e-05,-1.27847e-05,1.71381e-05,3.55334e-06,0
-3.36191e-05,-6.42424e-05,-1.7074e-05,-4.22237e-06,1.10666e-05,-1.51544e-05,1.70589e-05,4.57332e-06,0
-3.19545e-05,-4.68205e-05,-1.72241e-05,-4.45647e-06,1.1791e-05,-1.66078e-05,1.65278e-05,5.90835e-06,0
-3.04747e-05,-3.06115e-05,-1.6642e-05,-5.61712e-06,1.30393e-05,-1.82071e-05,1.64151e-05,6.46279e-06,0
-3.00756e-05,-1.77921e-05,-1.66941e-05,-7.17958e-06,1.37284e-05,-2.05869e-05,1.54344e-05,6.32295e-06,0
