ch1,ch2,ch3,ch4,ch5,ch6,ch7,ch8,class
-2.74442e-05,1.50293e-05,8.98211e-06,3.22957e-06,3.81546e-05,-2.34794e-05,2.36772e-05,9.07808e-06,0
-2.79064e-05,1.23452e-05,4.46118e-06,7.78892e-06,5.38779e-05,-3.10381e-05,2.61919e-05,8.03536e-06,0
-2.80416e-05,9.68744e-06,-9.97423e-07,1.04449e-05,5.69887e-05,-2.91723e-05,2.45347e-05,5.20175e-06,0
-2.72354e-05,7.58483e-06,-7.2841e-06,1.37163e-05,5.46163e-05,-1.09448e-05,2.19381e-05,2.51145e-06,0
-2.69093e-05,6.02865e-06,-1.34089e-05,1.70403e-05,6.21434e-05,1.34779e-05,2.01233e-05,1.0831e-06,0
-2.92343e-05,4.54826e-06,-1.99697e-05,1.66358e-05,8.40582e-05,2.42477e-05,1.9169e-05,1.09678e-06,0
-3.12576e-05,1.77414e-06,-2.52689e-05,1.1106e-05,9.31591e-05,1.44859e-05,1.96756e-05,1.82783e-06,0
-2.99255e-05,-1.71644e-06,-2.67609e-05,4.48773e-06,5.52137e-05,-2.54366e-06,1.9968e-05,1.8477e-06,0
-2.72539e-05,-4.64704e-06,-2.44737e-05,7.84162e-07,-1.12079e-05,-1.14012e-05,2.03631e-05,6.50368e-07,0
-2.71019e-05,-5.73037e-06,-2.23662e-05,-1.71347e-06,-5.36748e-05,-1.21472e-05,2.22964e-05,-2.30538e-07,0
-2.89026e-05,-4.35041e-06,-2.22883e-05,-5.67662e-06,-4.6098e-05,-1.12877e-05,2.29549e-05,-2.05292e-06,0
-3.10613e-05,-4.34176e-06,-2.15332e-05,-8.82275e-06,4.73069e-06,-1.06671e-05,1.93035e-05,-4.66154e-06,0
-3.21754e-05,-5.47577e-06,-1.96966e-05,-9.09502e-06,5.63918e-05,-9.57742e-06,1.4281e-05,-4.61005e-06,0
-3.23261e-05,-4.6676e-06,-1.92268e-05,-9.65808e-06,7.83601e-05,-9.04758e-06,1.11101e-05,-3.32612e-06,0
-3.283e-05,-2.14196e-06,-2.0349e-05,-1.1745e-05,8.78448e-05,-1.11643e-05,9.65809e-06,-1.07498e-06,0
-3.17108e-05,-1.08247e-06,-2.09676e-05,-1.42609e-05,9.53506e-05,-1.31408e-05,9.36036e-06,6.2079e-07,0
-2.97558e-05,-9.61991e-07,-2.00551e-05,-1.4427e-05,8.98658e-05,-1.07137e-05,8.52145e-06,-3.02789e-07,0
-2.67755e-05,1.05951e-06,-1.86962e-05,-1.07407e-05,6.05111e-05,-4.64248e-06,7.30844e-06,-2.01771e-06,0
-2.41112e-05,2.9432e-06,-1.67519e-05,-4.69864e-06,2.30113e-05,2.42109e-06,7.85715e-06,-3.06615e-06,0
-2.37952e-05,3.36543e-06,-1.59282e-05,5.03822e-07,-4.74405e-06,8.11104e-06,1.13752e-05,-3.46367e-06,0
-2.50363e-05,1.60266e-06,-1.71432e-05,1.43694e-06,-1.72994e-05,1.07346e-05,1.65071e-05,-2.8951e-06,0
-2.77755e-05,-7.78812e-07,-1.79173e-05,1.5243e-06,-1.62264e-05,6.5372e-06,1.99133e-05,-1.86231e-06,0
-3.26932e-05,-2.14738e-06,-1.8834e-05,2.10715e-06,-8.06302e-06,-3.06907e-06,1.83645e-05,-1.13527e-06,0
-3.80629e-05,-2.3353e-06,-1.8976e-05,8.94805e-07,1.7396e-06,-1.06399e-05,1.39893e-05,-1.46822e-06,0
-4.17485e-05,-1.18401e-06,-1.82188e-05,-1.39081e-06,7.11196e-06,-1.17915e-05,1.26495e-05,-2.83361e-06,0
-4.33408e-05,-5.05025e-07,-1.76314e-05,-2.84541e-06,7.6194e-06,-1.04635e-05,1.58627e-05,-1.90663e-06,0
-4.34351e-05,-1.11793e-06,-1.76121e-05,-4.47521e-06,6.31121e-06,-1.24709e-05,1.99606e-05,5.65059e-07,0
-4.21228e-05,-2.60874e-06,-1.76954e-05,-5.63461e-06,6.61025e-06,-1.5677e-05,2.11878e-05,1.97276e-06,0
-3.95093e-05,-4.19002e-06,-1.85251e-05,-3.73229e-06,5.98707e-06,-1.58735e-05,2.04574e-05,1.8525e-06,0
-3.76671e-05,-4.72521e-06,-2.08175e-05,2.45886e-06,2.52249e-06,-1.48071e-05,1.89024e-05,1.61631e-07,0
-3.62038e-05,-3.14353e-06,-2.2101e-05,1.0272e-05,-4.06408e-06,-1.52878e-05,1.68428e-05,-3.26302e-06,0
-3.52566e-05,-1.34173e-06,-2.0636e-05,1.5474e-05,-9.23144e-06,-1.51392e-05,1.21658e-05,-5.64603e-06,0
-3.58973e-05,-1.31823e-06,-1.9603e-05,1.60076e-05,-1.02441e-05,-1.35341e-05,6.16515e-06,-6.01773e-06,0
-3.70005e-05,-2.96868e-06,-2.08832e-05,1.04184e-05,-8.16338e-06,-1.38412e-05,3.81254e-06,-5.27273e-06,0
-3.6719e-05,-4.79133e-06,-2.24236e-05,1.58992e-06,-6.30756e-06,-1.67741e-05,3.37111e-06,-3.65784e-06,0
-3.47311e-05,-4.68123e-06,-2.24809e-05,-6.91494e-06,-4.0775e-06,-1.95199e-05,-3.00516e-07,-1.55398e-06,0
-3.33966e-05,-7.47946e-07,-2.15842e-05,-1.14647e-05,1.1685e-07,-2.09108e-05,-4.13842e-06,7.87987e-07,0
-3.38507e-05,5.35256e-06,-1.97693e-05,-1.12351e-05,3.63338e-06,-2.01498e-05,-1.12821e-06,2.22265e-06,0
-3.23126e-05,8.48726e-06,-1.45635e-05,-1.01275e-05,5.96755e-06,-1.8461e-05,-6.94327e-06,4.22848e-06,0
-2.93149e-05,1.01974e-05,-1.10435e-05,-9.89657e-06,4.55284e-06,-1.79035e-05,-3.77664e-05,6.0921e-06,0
-2.89171e-05,1.21959e-05,-1.14243e-05,-1.01647e-05,-3.3007e-06,-1.85175e-05,-6.58928e-05,6.49978e-06,0
-2.98641e-05,1.30765e-05,-1.3476e-05,-1.06407e-05,-7.7383e-06,-1.98948e-05,-6.31671e-05,6.55664e-06,0
-3.03134e-05,1.50595e-05,-1.45606e-05,-1.14654e-05,6.24933e-07,-2.21984e-05,-3.56668e-05,6.88926e-06,0
-3.08306e-05,1.78806e-05,-1.37286e-05,-1.08291e-05,1.65597e-05,-2.39739e-05,2.53293e-07,5.43157e-06,0
-3.08947e-05,1.87128e-05,-1.36402e-05,-7.91729e-06,3.03661e-05,-2.41364e-05,3.252e-05,2.04371e-06,0
-2.92309e-05,1.73525e-05,-1.36645e-05,-5.97373e-06,3.49296e-05,-2.29622e-05,5.41628e-05,5.35181e-07,0
-2.7889e-05,1.61566e-05,-1.26421e-05,-6.30522e-06,3.07214e-05,-2.04091e-05,6.29417e-05,-3.10269e-08,0
-2.75521e-05,1.63367e-05,-1.0991e-05,-6.85675e-06,2.28663e-05,-1.81389e-05,6.30038e-05,-8.4482e-07,0
-2.68874e-05,1.7654e-05,-1.0618e-05,-6.57466e-06,1.46464e-05,-1.71963e-05,5.80329e-05,-1.41726e-06,0
-2.64487e-05,2.06213e-05,-1.07106e-05,-9.41212e-06,5.47761e-06,-1.58131e-05,5.12486e-05,-1.78909e-06,0
-2.54338e-05,2.37384e-05,-1.09255e-05,-1.72587e-05,-3.45283e-06,-1.26749e-05,4.51162e-05,-1.51247e-07,0
-2.27117e-05,2.42198e-05,-9.91606e-06,-2.72045e-05,-1.02789e-05,-9.08576e-06,4.01868e-05,8.69761e-06,0
-2.02594e-05,2.15502e-05,-7.3967e-06,-3.43702e-05,-1.38293e-05,-6.17706e-06,3.63298e-05,2.47935e-05,0
-2.16647e-05,1.86172e-05,-5.17868e-06,-3.74789e-05,-1.63125e-05,-3.73991e-06,3.51179e-05,3.70705e-05,0
-2.76227e-05,1.79397e-05,-4.73538e-06,-3.99285e-05,-1.95193e-05,-1.88394e-06,3.57136e-05,3.87178e-05,0
-3.48466e-05,1.78814e-05,-5.7054e-06,-3.69597e-05,-2.14477e-05,-1.5005e-06,3.46641e-05,3.06532e-05,0
-3.93945e-05,1.64063e-05,-5.55447e-06,-1.60811e-05,-1.88237e-05,-2.64688e-06,3.09971e-05,1.35705e-05,0
-4.03249e-05,1.48243e-05,-3.73201e-06,1.97707e-05,-1.2866e-05,-4.27604e-06,2.62336e-05,-1.01203e-05,0
-3.92025e-05,1.53001e-05,-3.10836e-06,4.41256e-05,-8.26373e-06,-4.45107e-06,2.13273e-05,-3.15056e-05,0
-3.73245e-05,1.6811e-05,-5.31041e-06,4.04964e-05,-6.06029e-06,-2.98574e-06,1.67531e-05,-4.30731e-05,0
-3.46386e-05,1.77506e-05,-5.54127e-06,2.07932e-05,-2.4083e-06,-2.88028e-06,1.28448e-05,-4.39781e-05,0
-3.12729e-05,1.70927e-05,-3.37898e-06,4.8495e-06,8.44206e-06,-5.70812e-06,8.39794e-06,-3.83681e-05,0
-2.85383e-05,1.41667e-05,-2.30497e-06,-2.66057e-06,1.70001e-05,-8.21987e-06,4.43015e-06,-3.18079e-05,0
-2.65255e-05,1.02127e-05,-1.70854e-06,-8.4963e-06,1.39524e-05,-8.97636e-06,1.52677e-06,-2.45842e-05,0
-2.63594e-05,6.23523e-06,-7.57405e-07,-1.22029e-05,8.67434e-06,-6.75719e-06,-4.60156e-06,-1.62477e-05,0
-3.08864e-05,3.52961e-06,-4.67583e-07,-1.16106e-05,9.79355e-06,-4.13222e-06,-1.49278e-05,-6.7229e-06,0
-3.87107e-05,3.87855e-06,-3.36968e-09,-8.7555e-06,1.5915e-05,-1.37163e-05,-1.71694e-05,1.31484e-08,0
-4.44019e-05,5.42777e-06,2.17571e-06,-8.16767e-06,2.35704e-05,-2.57428e-05,-9.4016e-06,2.54829e-06,0
-4.49944e-05,4.80928e-06,4.49297e-06,-1.72276e-05,2.99897e-05,-1.77197e-05,-7.17241e-06,4.32739e-06,0
-4.01236e-05,3.01573e-06,5.16199e-06,-3.20402e-05,3.02841e-05,-1.20369e-06,-2.57549e-05,5.56761e-06,0
-3.13056e-05,1.41642e-06,4.07452e-06,-4.68114e-05,2.46811e-05,2.82929e-06,-8.19926e-05,8.88161e-06,0
-2.14745e-05,1.79829e-06,1.15897e-06,-5.97045e-05,1.34256e-05,-5.49298e-06,-0.000146462,1.17743e-05,0
-1.38965e-05,5.03292e-06,-2.68891e-06,-6.37483e-05,5.82722e-06,-1.35856e-05,-0.000152429,1.20227e-05,0
-9.71408e-06,9.76031e-06,-4.33126e-06,-5.76481e-05,8.47268e-06,-1.45423e-05,-8.37081e-05,1.05484e-05,0
-7.32799e-06,1.46318e-05,-3.36408e-06,-4.43658e-05,1.67834e-05,-1.14977e-05,2.01284e-05,8.212e-06,0
-5.22041e-06,1.87277e-05,-2.19098e-06,-2.58999e-05,2.5224e-05,-8.86773e-06,0.000107881,5.11145e-06,0
-4.65332e-06,2.23324e-05,-3.28905e-07,-3.5315e-06,2.92656e-05,-8.42411e-06,0.00015592,3.1325e-06,0
-7.97486e-06,2.52074e-05,1.90147e-06,1.89793e-05,2.95707e-05,-9.89987e-06,0.000165725,3.2977e-06,0
-1.46159e-05,2.7335e-05,3.46754e-06,3.60174e-05,2.52272e-05,-1.39424e-05,0.000153231,3.97857e-06,0
-2.22631e-05,2.86361e-05,3.66774e-06,4.18855e-05,1.92776e-05,-1.8815e-05,0.000133412,4.45991e-06,0
-2.82857e-05,2.91188e-05,2.56851e-06,3.3757e-05,1.55641e-05,-2.37952e-05,0.000112733,3.53809e-06,0
-3.119e-05,2.77378e-05,8.16473e-07,1.85809e-05,1.41549e-05,-2.84009e-05,9.21045e-05,2.74066e-06,0
-3.14082e-05,2.50879e-05,-3.82216e-07,6.7318e-06,1.0531e-05,-2.61466e-05,7.31443e-05,2.99242e-06,0
-2.94957e-05,2.302e-05,-8.73481e-07,1.78317e-06,3.4287e-06,-8.57968e-06,6.16899e-05,4.05621e-06,0
-2.68667e-05,2.2122e-05,-1.32275e-06,-1.77599e-07,-5.4489e-06,2.03973e-05,5.5195e-05,4.74309e-06,0
-2.73924e-05,2.24322e-05,-1.96391e-06,-2.74057e-06,-1.00789e-05,4.27749e-05,4.69797e-05,4.36538e-06,0
-3.13455e-05,2.34662e-05,-3.64423e-06,-6.37838e-06,-7.43192e-06,4.3922e-05,3.28908e-05,1.33875e-06,0
-3.54706e-05,2.50861e-05,-5.55778e-06,-8.75781e-06,-3.76893e-06,3.05104e-05,1.49254e-05,-2.60827e-06,0
-3.58691e-05,2.67803e-05,-6.55685e-06,-9.086e-06,-3.63309e-06,2.01015e-05,-2.8048e-06,-3.70172e-06,0
-3.24452e-05,2.81225e-05,-5.39237e-06,-7.91035e-06,-5.25041e-06,1.85296e-05,-1.27719e-05,-1.87927e-06,0
-2.94361e-05,3.02146e-05,-2.16718e-06,-2.66731e-06,-8.5806e-06,2.12303e-05,-1.48785e-05,1.49188e-06,0
-2.75372e-05,3.18605e-05,1.53585e-06,1.1442e-05,-1.15447e-05,2.40683e-05,-1.24574e-05,4.7989e-06,0
-2.65306e-05,3.08203e-05,3.60192e-06,3.77397e-05,-2.85782e-06,2.16863e-05,-8.06953e-06,5.62598e-06,0
-2.6644e-05,2.75703e-05,2.31779e-06,5.6483e-05,1.9981e-05,1.55113e-05,-8.35644e-06,4.83123e-06,0
-2.74759e-05,2.39251e-05,-6.12768e-07,5.14592e-05,3.73969e-05,1.73377e-05,-1.11833e-05,2.20444e-06,0
-2.90125e-05,2.13033e-05,-3.55153e-06,3.34353e-05,3.80199e-05,2.60395e-05,-1.17863e-05,2.28145e-07,0
-3.2274e-05,2.01108e-05,-6.38704e-06,1.77735e-05,3.11572e-05,2.36891e-05,-1.40547e-05,1.18361e-06,0
-3.80595e-05,1.99882e-05,-6.25363e-06,1.35804e-05,2.47482e-05,-2.30404e-06,-2.01133e-05,3.25875e-06,0
-4.16522e-05,2.08124e-05,-4.4701e-06,8.10484e-06,2.1003e-05,-4.3467e-05,-2.52911e-05,5.66498e-06,0
-4.08229e-05,2.14263e-05,-3.41623e-06,-1.14159e-05,1.80008e-05,-7.68521e-05,-2.31969e-05,8.06295e-06,0
-3.94851e-05,2.00785e-05,-3.74702e-06,-3.82154e-05,1.84434e-05,-7.94113e-05,-1.70765e-05,9.94337e-06,0
-3.9558e-05,1.67143e-05,-3.54035e-06,-4.91803e-05,2.38914e-05,-5.74867e-05,-1.43577e-05,9.84477e-06,0
-4.07573e-05,1.29122e-05,-2.05174e-06,-3.593e-05,3.27048e-05,-3.83215e-05,-1.67891e-05,7.56382e-06,0
-4.12283e-05,1.07996e-05,-2.70317e-06,-1.45804e-05,4.03795e-05,-3.20265e-05,-1.9731e-05,5.89208e-06,0
-3.85845e-05,9.10864e-06,-5.13163e-06,1.48547e-06,4.07829e-05,-3.1452e-05,-1.82412e-05,6.39435e-06,0
-3.34981e-05,6.47046e-06,-7.08796e-06,1.07568e-05,3.21164e-05,-2.86123e-05,-1.34154e-05,6.68035e-06,0
-2.83235e-05,2.2987e-06,-7.65954e-06,1.25263e-05,2.0528e-05,-2.26797e-05,-7.54966e-06,5.75028e-06,0
-2.24311e-05,-8.68281e-07,-8.14344e-06,-2.26104e-06,1.30651e-05,-1.82003e-05,-3.56078e-06,3.51441e-06,0
-1.64805e-05,-8.4044e-07,-8.19342e-06,-3.16363e-05,1.00379e-05,-1.902e-05,-1.57236e-06,1.60081e-06,0
-1.43974e-05,1.51251e-06,-7.32468e-06,-5.64736e-05,7.59977e-06,-2.19084e-05,-8.91328e-07,1.00851e-07,0
-1.75142e-05,3.57035e-06,-6.91357e-06,-6.14152e-05,3.58106e-06,-2.25344e-05,3.58316e-07,-7.59721e-08,0
-2.29266e-05,4.14918e-06,-8.18854e-06,-5.00676e-05,8.51478e-07,-2.08897e-05,3.95239e-06,2.19782e-06,0
-2.69526e-05,5.39678e-06,-9.43946e-06,-3.03786e-05,1.63657e-06,-1.93992e-05,9.88864e-06,4.6482e-06,0
-2.74699e-05,7.68271e-06,-9.218e-06,-9.09002e-06,4.61305e-06,-1.83631e-05,1.5541e-05,4.02923e-06,0
-2.55868e-05,1.18908e-05,-8.72468e-06,9.6214e-06,6.24753e-06,-1.84456e-05,1.82263e-05,2.53714e-06,0
-2.33043e-05,2.12274e-05,-8.84865e-06,1.6172e-05,5.46939e-06,-2.05052e-05,1.61644e-05,2.09192e-06,0
-2.11591e-05,3.20091e-05,-9.6634e-06,6.07574e-06,3.92629e-06,-2.15433e-05,1.00347e-05,1.55702e-06,0
-1.86322e-05,3.79807e-05,-1.03891e-05,-9.80476e-06,1.97262e-06,-1.98021e-05,3.20908e-06,9.24342e-07,0
-1.57978e-05,3.85051e-05,-1.01284e-05,-2.60831e-05,1.8854e-06,-1.83108e-05,-7.16701e-07,-2.75675e-07,0
-1.477e-05,3.42327e-05,-8.65282e-06,-4.93842e-05,3.92294e-06,-1.56881e-05,5.66505e-07,-1.36064e-06,0
-1.49066e-05,2.85914e-05,-7.00456e-06,-6.56022e-05,6.48583e-06,-1.10867e-05,6.4896e-06,-1.55761e-07,0
-1.5334e-05,2.23964e-05,-6.45086e-06,-5.59238e-05,1.1563e-05,-6.527e-06,1.32347e-05,1.90152e-06,0
-1.54957e-05,1.50724e-05,-6.72851e-06,-3.36223e-05,1.88452e-05,-1.7174e-06,1.87368e-05,3.4668e-06,0
-1.73758e-05,6.64654e-06,-9.03753e-06,-1.38081e-05,2.34135e-05,1.74246e-07,2.22049e-05,4.69885e-06,0
-2.39611e-05,-3.25462e-06,-1.30576e-05,-1.99228e-07,2.33864e-05,7.33246e-07,2.20798e-05,5.07302e-06,0
-3.11577e-05,-1.25689e-05,-1.57118e-05,1.94064e-05,2.44263e-05,2.27779e-06,2.0805e-05,4.40089e-06,0
-3.60272e-05,-1.43758e-05,-1.54932e-05,4.34355e-05,2.71486e-05,-2.31664e-07,1.96403e-05,1.49197e-06,0
-3.90864e-05,-8.05262e-06,-1.29098e-05,5.2887e-05,2.82781e-05,-7.3251e-06,1.74573e-05,-1.48673e-06,0
-4.09592e-05,8.90997e-07,-1.0408e-05,4.3332e-05,2.49415e-05,-8.62097e-06,1.2968e-05,-3.74687e-06,0
-4.34875e-05,8.39377e-06,-9.46479e-06,2.32128e-05,1.96666e-05,-7.92567e-07,8.23278e-06,-5.51886e-06,0
-4.72089e-05,1.23213e-05,-1.07886e-05,3.50251e-06,1.58371e-05,4.95059e-06,6.83598e-06,-5.89149e-06,0
-5.02981e-05,1.2527e-05,-1.25791e-05,-1.1064e-05,1.30713e-05,1.35256e-06,1.01612e-05,-5.52583e-06,0
-5.04748e-05,1.22566e-05,-1.27008e-05,-2.038e-05,1.0812e-05,-5.42516e-06,1.3957e-05,-5.76148e-06,0
-4.95394e-05,1.43276e-05,-1.24301e-05,-2.72749e-05,9.24256e-06,-7.99217e-06,1.28858e-05,-5.30581e-06,0
-4.99854e-05,1.63483e-05,-1.31471e-05,-3.24785e-05,9.28063e-06,-6.68474e-06,4.83696e-06,-3.88707e-06,0
-5.09852e-05,1.82588e-05,-1.48031e-05,-3.7553e-05,1.0017e-05,-5.36627e-06,-7.36542e-06,-3.73824e-06,0
-5.12218e-05,2.12435e-05,-1.59314e-05,-4.12139e-05,1.16561e-05,-5.7785e-06,-1.4123e-05,-4.78908e-06,0
-5.02392e-05,2.48975e-05,-1.62455e-05,-3.782e-05,1.30353e-05,-8.66524e-06,-9.53383e-06,-4.84295e-06,0
-4.7577e-05,2.67297e-05,-1.61514e-05,-2.68934e-05,1.25225e-05,-1.31128e-05,4.40124e-06,-4.4607e-06,0
-4.32085e-05,2.68429e-05,-1.56403e-05,-1.55193e-05,8.86047e-06,-1.45854e-05,2.12847e-05,-4.29831e-06,0
-3.88957e-05,2.71673e-05,-1.56473e-05,-9.07527e-06,3.44939e-06,-1.17491e-05,3.41209e-05,-3.42131e-06,0
-3.65252e-05,2.82429e-05,-1.59007e-05,-7.06561e-06,-4.96089e-07,-8.45799e-06,4.01921e-05,-1.1805e-06,0
-3.65483e-05,2.80351e-05,-1.56738e-05,-6.9773e-06,-6.96214e-07,-7.97718e-06,3.99513e-05,1.73781e-06,0
-3.68114e-05,2.72469e-05,-1.45956e-05,-7.42218e-06,5.01484e-07,-8.88648e-06,3.71162e-05,4.47633e-06,0
-3.54828e-05,2.73292e-05,-1.31316e-05,-5.85336e-06,2.19371e-06,-8.51478e-06,3.60583e-05,7.11757e-06,0
-3.32769e-05,2.57456e-05,-1.18681e-05,-1.86162e-06,4.41316e-06,-7.25408e-06,3.49258e-05,8.19622e-06,0
-3.19388e-05,2.32536e-05,-1.04237e-05,2.87174e-06,8.45559e-06,-7.59316e-06,3.24063e-05,6.87797e-06,0
-3.23793e-05,2.40011e-05,-8.64279e-06,7.07657e-06,1.56423e-05,-1.00653e-05,2.99438e-05,4.44155e-06,0
-3.33171e-05,2.63458e-05,-6.86543e-06,9.64988e-06,2.29593e-05,-1.12539e-05,2.80795e-05,3.82489e-06,0
-3.29256e-05,2.7028e-05,-6.78994e-06,1.04961e-05,2.60905e-05,-9.81681e-06,2.62058e-05,4.89071e-06,0
-3.10157e-05,2.66418e-05,-7.89784e-06,7.94881e-06,2.27601e-05,-8.35672e-06,2.40086e-05,6.2333e-06,0
-2.84354e-05,2.59318e-05,-8.59959e-06,4.83176e-06,1.84924e-05,-7.77116e-06,2.21628e-05,6.16119e-06,0
-2.61e-05,2.58531e-05,-1.00369e-05,1.04994e-06,1.64938e-05,-8.39396e-06,2.12785e-05,4.38196e-06,0
-2.46506e-05,2.72807e-05,-1.1657e-05,-4.58975e-06,1.69248e-05,-7.14458e-06,1.90146e-05,3.31751e-06,0
-2.51099e-05,2.91827e-05,-1.33533e-05,-1.59481e-05,1.67592e-05,-2.87547e-06,1.69443e-05,3.40285e-06,0
-2.61139e-05,2.98883e-05,-1.48931e-05,-3.6121e-05,1.59993e-05,3.75229e-07,1.98016e-05,2.61755e-06,0
-2.63211e-05,2.99611e-05,-1.50916e-05,-5.35761e-05,1.14608e-05,-9.14892e-07,2.62477e-05,1.08908e-06,0
-2.67027e-05,3.03684e-05,-1.3388e-05,-5.24026e-05,-1.06497e-05,-3.98362e-06,3.22244e-05,1.3355e-06,0
-2.77693e-05,3.01997e-05,-1.12734e-05,-3.18803e-05,-4.32323e-05,-4.85574e-06,3.48886e-05,3.24674e-06,0
-2.97065e-05,2.82498e-05,-1.13137e-05,-2.66793e-06,-4.87297e-05,-3.72708e-06,3.09848e-05,4.60457e-06,0
-3.14095e-05,2.60462e-05,-1.29289e-05,2.65636e-05,-1.12766e-05,-2.36505e-06,1.93947e-05,4.89423e-06,0
-3.14582e-05,2.46167e-05,-1.41566e-05,5.03689e-05,3.91597e-05,-2.57696e-06,5.94423e-06,5.31408e-06,0
-2.96035e-05,2.2957e-05,-1.38177e-05,6.41442e-05,7.58495e-05,-3.79089e-06,-4.44058e-06,4.86842e-06,0
-2.72807e-05,2.09693e-05,-1.23873e-05,6.23846e-05,9.91169e-05,-5.1609e-06,-1.17012e-05,3.32198e-06,0
-2.52081e-05,1.97373e-05,-1.07038e-05,4.32241e-05,0.000108432,-5.32802e-06,-1.59411e-05,2.36187e-06,0
-2.34309e-05,1.86067e-05,-9.88223e-06,1.69878e-05,9.1276e-05,-6.29738e-06,-1.53549e-05,2.02479e-06,0
-2.2228e-05,1.69723e-05,-9.48615e-06,2.89612e-06,5.3265e-05,-9.56742e-06,-1.04141e-05,1.82171e-06,0
-2.18018e-05,1.50216e-05,-8.37322e-06,4.03214e-06,1.93578e-05,-1.3455e-05,-3.57759e-06,1.86337e-06,0
-2.24811e-05,1.30637e-05,-6.79874e-06,6.53683e-06,1.93475e-06,-1.55621e-05,2.38211e-06,1.93703e-06,0
-2.42345e-05,1.11411e-05,-5.67292e-06,1.7765e-06,-6.05147e-06,-1.55722e-05,5.1497e-06,2.58139e-06,0
-2.67364e-05,1.00667e-05,-4.85348e-06,-4.06045e-06,-1.19541e-05,-1.37976e-05,4.93887e-06,3.41652e-06,0
-2.72158e-05,8.74567e-06,-4.12135e-06,-2.9775e-06,-1.16934e-05,-1.14206e-05,3.42533e-06,1.85849e-06,0
-2.43478e-05,7.21995e-06,-4.25347e-06,9.75007e-07,-4.49799e-06,-9.32296e-06,1.37062e-06,-1.29175e-06,0
-2.23512e-05,7.21233e-06,-3.49308e-06,7.94803e-07,4.20936e-06,-8.17108e-06,-1.03902e-06,-2.37795e-06,0
-2.25686e-05,4.59251e-06,-1.10826e-06,-2.36527e-06,1.17852e-05,-1.08982e-05,-4.87112e-06,-1.00587e-06,0
-2.15777e-05,1.37086e-06,-7.01024e-07,-3.62733e-06,1.55102e-05,-1.39051e-05,-1.08639e-05,1.04822e-06,0
-1.9828e-05,1.93635e-06,-3.99285e-06,-3.3997e-06,1.36094e-05,-1.46853e-05,-2.15722e-05,1.19704e-06,0
-1.97594e-05,3.43927e-06,-7.61743e-06,-4.66442e-06,8.893e-06,-1.55079e-05,-3.23715e-05,-5.11185e-07,0
-2.16095e-05,3.05645e-06,-8.25699e-06,-6.3466e-06,5.30067e-06,-1.54916e-05,-3.32682e-05,-1.99679e-06,0
-2.42934e-05,1.70197e-06,-7.97604e-06,-6.64605e-06,2.7281e-06,-1.46799e-05,-2.37697e-05,-2.28701e-06,0
-2.51454e-05,2.0725e-06,-7.29456e-06,-4.66535e-06,2.36687e-06,-1.38995e-05,-9.78744e-06,-1.11835e-06,0
-2.54381e-05,2.65783e-06,-6.03084e-06,-6.07073e-07,4.78431e-06,-1.31958e-05,2.67777e-06,7.10445e-07,0
-2.65578e-05,3.76316e-06,-4.8151e-06,5.6852e-06,8.23869e-06,-1.24365e-05,1.31576e-05,1.38514e-06,0
-2.71082e-05,6.15512e-06,-3.4471e-06,1.19793e-05,1.11547e-05,-1.2948e-05,2.13709e-05,-4.33275e-07,0
-2.68646e-05,8.53282e-06,-3.19673e-06,1.25074e-05,1.48819e-05,-1.50926e-05,2.78488e-05,-2.03564e-06,0
-2.71283e-05,9.82479e-06,-4.27202e-06,2.67216e-06,1.87142e-05,-1.99554e-05,3.27093e-05,-1.56082e-06,0
-2.89195e-05,9.75658e-06,-6.1392e-06,-1.30164e-05,2.03911e-05,-2.78425e-05,3.56234e-05,-6.34472e-07,0
-3.14134e-05,9.76863e-06,-7.93685e-06,-2.41567e-05,1.99151e-05,-2.93233e-05,3.58481e-05,-6.00058e-07,0
-3.29541e-05,9.81462e-06,-8.53082e-06,-2.60085e-05,1.77711e-05,-1.37887e-05,3.48641e-05,-1.04858e-06,0
-3.18357e-05,8.98962e-06,-7.14642e-06,-2.04821e-05,1.69409e-05,1.1777e-05,3.49729e-05,-1.24199e-06,0
-2.88053e-05,7.9922e-06,-4.96738e-06,-1.35889e-05,1.83931e-05,2.67101e-05,3.54712e-05,-1.67832e-06,0
-2.7445e-05,7.48527e-06,-2.82878e-06,-9.31148e-06,2.01784e-05,2.16558e-05,3.58678e-05,-2.82549e-06,0
-2.94049e-05,6.86744e-06,-4.33903e-07,-8.03356e-06,2.0576e-05,7.98735e-06,3.61169e-05,-3.96859e-06,0
-3.07705e-05,6.34705e-06,2.30951e-06,-7.48386e-06,2.07018e-05,6.71756e-08,3.64061e-05,-4.55343e-06,0
-2.90592e-05,5.28725e-06,3.40524e-06,-7.63729e-06,2.0632e-05,-1.8561e-06,3.58279e-05,-4.48204e-06,0
-2.66034e-05,2.31387e-06,3.96291e-06,-8.58119e-06,2.08012e-05,-3.12075e-06,3.36413e-05,-3.07761e-06,0
-2.72822e-05,-2.15155e-06,5.49141e-06,-9.88965e-06,2.03161e-05,-4.28748e-06,2.98102e-05,4.71635e-07,0
-3.06784e-05,-4.31948e-06,5.56883e-06,-1.12859e-05,1.77533e-05,-4.45046e-06,2.40783e-05,4.38136e-06,0
-3.25299e-05,-2.96585e-06,2.40282e-06,-1.37889e-05,1.35407e-05,-4.53042e-06,1.87196e-05,5.82498e-06,0
-3.15512e-05,-8.71371e-08,-2.46154e-06,-1.95512e-05,1.15345e-05,-3.64703e-06,1.69125e-05,4.87344e-06,0
-3.01584e-05,-1.65992e-07,-6.31894e-06,-2.77558e-05,9.71214e-06,-3.69194e-06,1.49133e-05,3.32904e-06,0
-3.07473e-05,-1.96284e-06,-7.81636e-06,-3.23589e-05,7.78941e-06,-4.79163e-06,1.18451e-05,3.4716e-06,0
-3.35317e-05,-6.08129e-07,-7.61692e-06,-2.69831e-05,8.77498e-06,-5.64672e-06,9.54496e-06,4.9882e-06,0
-3.51452e-05,1.8715e-06,-7.18637e-06,-1.23924e-05,9.5305e-06,-6.8385e-06,9.86004e-06,5.99867e-06,0
-3.56638e-05,3.85826e-06,-6.39281e-06,7.80664e-06,9.57111e-06,-8.95035e-06,1.29996e-05,5.5677e-06,0
-3.68092e-05,5.47511e-06,-5.75738e-06,2.79309e-05,8.75936e-06,-1.10874e-05,1.54706e-05,3.28204e-06,0
-3.6895e-05,5.17894e-06,-4.72977e-06,4.00168e-05,8.0164e-06,-1.21153e-05,1.501e-05,1.64497e-06,0
-3.62194e-05,3.15427e-06,-4.94506e-06,3.69246e-05,7.67441e-06,-1.40231e-05,1.23758e-05,7.54558e-07,0
-3.62768e-05,1.44061e-06,-6.88972e-06,2.48436e-05,8.61676e-06,-1.62597e-05,9.04452e-06,3.50454e-07,0
-3.69208e-05,1.70886e-06,-9.96445e-06,1.65197e-05,9.10764e-06,-1.86481e-05,6.5207e-06,1.30702e-06,0
-3.74135e-05,3.04253e-06,-1.20905e-05,1.22449e-05,7.97182e-06,-1.93216e-05,5.91049e-06,1.75095e-06,0
-3.86118e-05,3.06389e-06,-1.22218e-05,8.8064e-06,7.47306e-06,-1.77092e-05,5.76322e-06,1.11558e-06,0
-3.9743e-05,1.97142e-06,-1.18798e-05,6.4631e-06,7.48454e-06,-1.62276e-05,6.41362e-06,2.57518e-07,0
-3.99069e-05,6.08379e-07,-1.21322e-05,4.11843e-06,6.30857e-06,-1.69267e-05,7.76496e-06,-6.95618e-07,0
-3.97494e-05,1.20367e-06,-1.35116e-05,1.69735e-06,4.45507e-06,-1.82802e-05,8.82464e-06,-1.73248e-06,0
-4.06009e-05,3.37238e-06,-1.4829e-05,8.36974e-07,2.94744e-06,-1.78206e-05,9.45734e-06,-1.55195e-06,0
-4.14627e-05,4.64786e-06,-1.52022e-05,2.67857e-06,1.99238e-06,-1.64386e-05,9.72527e-06,-1.19426e-06,0
-3.96722e-05,3.26938e-06,-1.44068e-05,1.07586e-05,2.59423e-06,-1.44093e-05,8.92799e-06,-2.38324e-06,0
-3.55902e-05,1.35308e-06,-1.46534e-05,2.49628e-05,3.67834e-06,-1.15838e-05,5.79133e-06,-4.55532e-06,0
-3.26718e-05,1.86554e-06,-1.69176e-05,3.47322e-05,3.8988e-06,-9.08891e-06,-7.94929e-07,-4.80036e-06,0
-3.30775e-05,3.54792e-06,-1.94464e-05,3.00858e-05,4.18276e-06,-8.54954e-06,-5.34396e-06,-3.0113e-06,0
-3.55058e-05,4.67825e-06,-1.97522e-05,1.76069e-05,5.49009e-06,-9.97459e-06,-7.45094e-07,-1.98598e-06,0
-3.64504e-05,5.13897e-06,-1.72988e-05,1.02208e-05,5.97297e-06,-1.2053e-05,9.1905e-06,-2.37919e-06,0
-3.28808e-05,6.75384e-06,-1.41171e-05,6.02965e-06,5.1819e-06,-1.33218e-05,1.11798e-05,-3.20513e-06,0
-2.84988e-05,9.97293e-06,-1.32758e-05,-6.10356e-06,4.4825e-06,-1.23133e-05,-4.11028e-06,-3.68116e-06,0
-2.76529e-05,1.23788e-05,-1.47392e-05,-3.21408e-05,3.55093e-06,-1.00151e-05,-2.69855e-05,-5.32125e-06,0
-2.80314e-05,1.31966e-05,-1.6282e-05,-6.80682e-05,2.16218e-06,-9.50987e-06,-4.31809e-05,-6.60736e-06,0
-2.88469e-05,1.55012e-05,-1.71127e-05,-0.00010826,3.9193e-07,-1.09839e-05,-4.2901e-05,-5.40737e-06,0
-2.97201e-05,1.84041e-05,-1.7417e-05,-0.000139569,-8.02224e-07,-1.2505e-05,-2.46545e-05,-4.378e-06,0
-2.99292e-05,1.82173e-05,-1.56817e-05,-0.000149113,-7.49696e-08,-1.16011e-05,-1.17429e-06,-4.63765e-06,0
-3.01124e-05,1.70681e-05,-1.33789e-05,-0.00013954,4.17813e-06,-7.65218e-06,1.78338e-05,-5.69621e-06,0
-2.99935e-05,1.62749e-05,-1.1433e-05,-0.000107932,9.2985e-06,-3.3849e-06,2.8647e-05,-6.52261e-06,0
-3.16418e-05,1.39344e-05,-8.7678e-06,-4.95573e-05,1.05388e-05,-2.847e-06,3.27733e-05,-6.15956e-06,0
-3.2147e-05,1.13443e-05,-6.15329e-06,1.81515e-05,1.10656e-05,-4.40959e-06,3.51321e-05,-6.99458e-06,0
-3.00143e-05,9.29219e-06,-4.9793e-06,6.66108e-05,1.60711e-05,-3.95219e-06,3.88812e-05,-8.27905e-06,0
-2.87169e-05,7.33553e-06,-5.30172e-06,8.32427e-05,2.46371e-05,-1.82851e-06,4.23422e-05,-7.18217e-06,0
-2.86983e-05,4.76927e-06,-5.8882e-06,7.64204e-05,2.86426e-05,-4.78224e-08,4.41213e-05,-4.66159e-06,0
-2.98595e-05,1.81206e-06,-6.60039e-06,6.4257e-05,2.57393e-05,-5.32013e-07,4.60737e-05,-2.11739e-06,0
-3.20924e-05,-1.0445e-06,-7.26039e-06,5.33515e-05,2.1185e-05,-3.49768e-06,4.80783e-05,9.30639e-08,0
-3.40731e-05,-3.24839e-06,-8.28992e-06,4.59791e-05,1.84943e-05,-5.86462e-06,4.82566e-05,1.00121e-06,0
-3.38962e-05,-3.34467e-06,-9.57133e-06,4.34773e-05,1.72561e-05,-5.20019e-06,4.56324e-05,3.71963e-07,0
-3.33205e-05,-1.52796e-06,-1.0584e-05,4.34194e-05,1.59751e-05,-3.77372e-06,4.11145e-05,-2.87289e-07,0
-3.30836e-05,1.31264e-06,-9.89871e-06,4.58889e-05,1.56813e-05,-4.10102e-06,3.63025e-05,3.93331e-07,0
-3.2099e-05,3.74601e-06,-7.8557e-06,5.35729e-05,1.71529e-05,-5.89186e-06,3.24599e-05,1.16116e-06,0
-3.07979e-05,4.6325e-06,-5.80448e-06,6.36823e-05,1.92086e-05,-7.7109e-06,2.82397e-05,9.30467e-07,0
-2.9697e-05,2.92859e-06,-5.60632e-06,6.12557e-05,1.84863e-05,-8.89266e-06,2.20437e-05,6.11093e-07,0
-2.87122e-05,-1.22705e-06,-6.94419e-06,3.80317e-05,1.39937e-05,-9.5671e-06,1.3998e-05,1.35466e-06,0
-2.86366e-05,-6.22712e-06,-9.13418e-06,1.62651e-06,7.88391e-06,-1.01583e-05,8.34889e-06,2.19223e-06,0
-3.00126e-05,-9.37193e-06,-1.06825e-05,-2.98365e-05,2.89529e-06,-9.88232e-06,8.19164e-06,1.54483e-06,0
-3.10033e-05,-9.95968e-06,-9.89911e-06,-4.72499e-05,-4.29993e-07,-8.7826e-06,1.20576e-05,5.20804e-07,0
-3.02103e-05,-8.92007e-06,-8.82273e-06,-5.9347e-05,-4.11005e-06,-8.24865e-06,1.50754e-05,3.76245e-07,0
-2.87319e-05,-7.08478e-06,-7.98698e-06,-7.61642e-05,-9.80151e-06,-7.56318e-06,1.4486e-05,1.85028e-06,0
-2.8367e-05,-5.26471e-06,-4.89932e-06,-8.49527e-05,-1.34088e-05,-6.12175e-06,1.14142e-05,2.87048e-06,0
-2.83669e-05,-2.32977e-06,-6.62585e-07,-7.73364e-05,-1.16618e-05,-5.52765e-06,8.42598e-06,2.09828e-06,0
-2.85018e-05,1.66401e-06,3.37322e-07,-5.66704e-05,-8.17919e-06,-5.00456e-06,8.19983e-06,1.80631e-06,0
-2.88248e-05,4.43384e-06,-1.80686e-06,-1.94523e-05,-6.33556e-06,-4.2289e-06,9.728e-06,1.74925e-06,0
-2.83869e-05,4.28387e-06,-3.16099e-06,2.92324e-05,-4.14784e-06,-4.82811e-06,1.01204e-05,1.49984e-06,0
-2.77345e-05,3.77431e-06,-3.25856e-06,6.29492e-05,7.87795e-07,-5.50351e-06,8.19275e-06,2.26096e-06,0
-2.86462e-05,3.6932e-06,-4.46531e-06,6.15087e-05,6.81658e-06,-4.11826e-06,3.59559e-06,3.19476e-06,0
-2.98273e-05,4.01574e-06,-6.08331e-06,4.18379e-05,1.42937e-05,-3.3465e-07,-6.22358e-07,2.80945e-06,0
-2.88648e-05,3.9398e-06,-6.93025e-06,2.44295e-05,2.28834e-05,2.42325e-06,-1.12257e-06,2.01122e-06,0
-2.706e-05,3.6985e-06,-6.5296e-06,1.70265e-05,3.05343e-05,1.58453e-06,1.56639e-06,2.26555e-06,0
-2.63194e-05,4.72205e-06,-5.01471e-06,2.17875e-05,3.41391e-05,-5.94146e-07,5.02948e-06,3.7989e-06,0
-2.68164e-05,6.65072e-06,-3.12721e-06,3.42052e-05,3.15568e-05,-3.01293e-06,7.50203e-06,5.42089e-06,0
-2.79194e-05,9.72147e-06,-2.41803e-06,3.72043e-05,2.53147e-05,-5.72822e-06,8.89308e-06,5.85542e-06,0
-2.8687e-05,1.22133e-05,-3.83252e-06,1.59423e-05,1.89524e-05,-8.52193e-06,9.10157e-06,5.40134e-06,0
-2.90436e-05,1.46569e-05,-5.98034e-06,-2.06697e-05,1.62889e-05,-1.08601e-05,1.03271e-05,4.62067e-06,0
-2.91813e-05,1.81724e-05,-7.01351e-06,-4.82766e-05,1.95408e-05,-1.13718e-05,1.22693e-05,4.02005e-06,0
-2.94937e-05,2.24873e-05,-6.95617e-06,-5.64439e-05,2.69277e-05,-9.49293e-06,1.27274e-05,3.26839e-06,0
-2.97771e-05,2.6015e-05,-5.47057e-06,-5.24042e-05,3.15076e-05,-6.31131e-06,6.97961e-06,2.85894e-06,0
-2.96374e-05,2.81619e-05,-1.39243e-06,-4.32048e-05,3.08038e-05,-3.85182e-06,-1.0005e-05,2.85364e-06,0
-2.9207e-05,2.92128e-05,4.19773e-06,-3.19045e-05,2.8702e-05,-1.81541e-06,-3.18703e-05,2.69692e-06,0
-2.92297e-05,2.97607e-05,6.47335e-06,-2.30771e-05,2.43079e-05,-2.62712e-07,-4.16039e-05,2.34356e-06,0
-2.97256e-05,3.12087e-05,2.28379e-06,-2.44506e-05,1.35827e-05,-1.42491e-07,-3.08413e-05,2.88761e-06,0
-2.92269e-05,3.34953e-05,-6.42871e-06,-3.39703e-05,-3.90892e-07,-1.17425e-06,-7.91905e-06,5.53023e-06,0
-2.84457e-05,3.49455e-05,-1.53727e-05,-4.14312e-05,-9.31009e-06,-1.80793e-06,1.59645e-05,7.9356e-06,0
-2.84485e-05,3.41555e-05,-2.02485e-05,-4.33054e-05,-8.02306e-06,-2.39821e-06,3.4816e-05,8.29783e-06,0
-2.84376e-05,2.99536e-05,-2.10325e-05,-4.14805e-05,3.01209e-06,-4.26014e-06,4.49435e-05,6.72894e-06,0
-2.83699e-05,2.40855e-05,-2.09991e-05,-3.18996e-05,1.91409e-05,-6.23269e-06,4.72269e-05,3.98455e-06,0
-2.90642e-05,2.01314e-05,-2.15877e-05,-1.80782e-05,3.03222e-05,-7.81562e-06,4.52966e-05,2.57493e-06,0
-3.02104e-05,1.86519e-05,-2.17045e-05,-1.39604e-05,3.14912e-05,-8.99053e-06,4.13135e-05,3.36797e-06,0
-3.01055e-05,2.05292e-05,-2.05184e-05,-2.04341e-05,3.51192e-05,-1.09009e-05,3.76544e-05,4.87829e-06,0
-2.93041e-05,2.42362e-05,-1.93521e-05,-1.8452e-05,4.87171e-05,-1.4811e-05,3.37933e-05,5.29658e-06,0
-3.01989e-05,2.69216e-05,-1.8412e-05,-3.24246e-06,5.43967e-05,-1.76974e-05,2.97623e-05,5.12157e-06,0
-3.04617e-05,2.86034e-05,-1.73808e-05,1.41937e-05,3.71676e-05,-1.82304e-05,2.74311e-05,5.75386e-06,0
-2.83294e-05,2.8808e-05,-1.63701e-05,2.72699e-05,1.35227e-05,-1.85433e-05,2.7776e-05,7.06429e-06,0
-2.65294e-05,2.7301e-05,-1.38031e-05,3.07867e-05,-7.70751e-07,-1.8542e-05,2.81196e-05,7.47442e-06,0
-2.66258e-05,2.46555e-05,-1.14893e-05,2.44529e-05,-3.8388e-06,-1.87498e-05,2.58286e-05,5.80365e-06,0
-2.6069e-05,2.31264e-05,-9.27185e-06,1.25976e-05,-8.63965e-07,-1.99409e-05,1.05189e-05,4.75074e-06,0
-2.54237e-05,2.21016e-05,-5.95252e-06,4.42437e-06,2.57536e-06,-2.06188e-05,-2.20946e-05,4.91967e-06,0
-2.52078e-05,1.97215e-05,-3.38072e-06,9.84167e-06,5.54343e-06,-1.98892e-05,-4.94731e-05,4.04246e-06,0
-2.5469e-05,1.78629e-05,-1.45226e-06,2.76051e-05,1.02985e-05,-1.78113e-05,-4.89115e-05,6.06636e-07,0
-2.69035e-05,1.71612e-05,9.76204e-07,3.819e-05,1.86049e-05,-1.57525e-05,-2.19236e-05,-2.20985e-06,0
-2.80303e-05,1.76978e-05,2.84523e-06,2.73602e-05,2.46247e-05,-1.59608e-05,9.61211e-06,-2.51968e-06,0
-2.86452e-05,1.90309e-05,2.8873e-06,5.52789e-06,2.60758e-05,-1.80729e-05,2.88008e-05,-2.2837e-06,0
-2.8732e-05,2.08842e-05,3.26449e-06,-9.01642e-06,2.46612e-05,-2.01429e-05,3.39812e-05,-2.38205e-06,0
-2.84706e-05,2.16232e-05,4.96763e-06,-1.08105e-05,2.34824e-05,-2.09687e-05,3.34467e-05,-1.69634e-06,0
-2.67163e-05,2.15642e-05,6.13994e-06,-5.36174e-06,2.33103e-05,-2.06002e-05,3.51537e-05,1.06928e-07,0
-2.41445e-05,2.23457e-05,5.70955e-06,-7.42122e-08,2.39626e-05,-1.9707e-05,4.02456e-05,4.81087e-07,0
-2.25689e-05,2.28252e-05,4.64887e-06,7.28784e-07,2.28568e-05,-1.96535e-05,4.37449e-05,1.64663e-08,0
-2.31042e-05,2.07716e-05,3.40571e-06,-4.65444e-06,1.86292e-05,-2.06793e-05,4.05881e-05,6.51342e-07,0
-2.50673e-05,1.70263e-05,1.56931e-06,-1.47583e-05,1.33727e-05,-2.13526e-05,3.35067e-05,1.45987e-06,0
-2.71418e-05,1.4864e-05,-5.12081e-07,-2.10449e-05,8.73973e-06,-2.1764e-05,2.91281e-05,2.08526e-06,0
-2.74536e-05,1.43493e-05,-2.47574e-06,-1.67166e-05,6.60494e-06,-2.11182e-05,2.8916e-05,2.37749e-06,0
-2.58369e-05,1.46823e-05,-3.67558e-06,-5.59482e-06,8.99563e-06,-1.88121e-05,2.83131e-05,9.45933e-07,0
-2.53418e-05,1.56328e-05,-4.54277e-06,2.18821e-06,1.46514e-05,-1.65063e-05,2.46921e-05,4.19384e-07,0
-2.65399e-05,1.5417e-05,-6.42669e-06,2.1517e-06,1.83057e-05,-1.61442e-05,1.97503e-05,8.22827e-06,0
-2.81492e-05,1.29273e-05,-9.32514e-06,1.29769e-06,1.88965e-05,-1.69812e-05,1.58218e-05,2.49049e-05,0
-2.97653e-05,9.58498e-06,-1.44322e-05,2.91236e-06,2.06509e-05,-1.5298e-05,1.44537e-05,3.75712e-05,0
-2.89217e-05,6.83878e-06,-1.99983e-05,2.45209e-06,2.03366e-05,-1.28008e-05,1.36647e-05,3.90898e-05,0
-2.63697e-05,8.05463e-06,-2.29856e-05,-1.42011e-06,1.4989e-05,-1.32665e-05,1.03354e-05,3.0625e-05,0
-2.62834e-05,1.23851e-05,-2.24455e-05,-7.26018e-06,1.18137e-05,-1.49962e-05,7.5566e-06,1.16655e-05,0
-2.80483e-05,1.64997e-05,-2.01364e-05,-1.1254e-05,1.3042e-05,-1.60189e-05,5.54883e-06,-1.42331e-05,0
-2.91912e-05,2.03323e-05,-1.75774e-05,-1.07358e-05,1.72048e-05,-1.58928e-05,2.5701e-06,-3.53127e-05,0
-2.84073e-05,2.26097e-05,-1.56562e-05,-1.04076e-05,1.93328e-05,-1.47696e-05,-1.87485e-06,-4.41989e-05,0
-2.73563e-05,2.44109e-05,-1.42063e-05,-1.72989e-05,1.46642e-05,-1.39094e-05,-5.27275e-06,-4.28021e-05,0
-2.75145e-05,2.57634e-05,-1.1433e-05,-3.05646e-05,6.32611e-06,-1.39518e-05,-4.2791e-06,-3.6744e-05,0
-2.788e-05,2.51513e-05,-1.00421e-05,-4.40868e-05,-3.56056e-06,-1.52257e-05,8.31629e-07,-2.93773e-05,0
-2.79507e-05,2.31979e-05,-1.04947e-05,-5.33809e-05,-1.25734e-05,-1.58937e-05,6.78635e-06,-2.12688e-05,0
-2.84257e-05,2.11261e-05,-1.2418e-05,-5.67008e-05,-1.89773e-05,-1.53347e-05,1.01988e-05,-1.367e-05,0
-2.99621e-05,1.9723e-05,-1.42151e-05,-5.36465e-05,-2.46141e-05,-1.5116e-05,1.2799e-05,-7.71604e-06,0
-3.14021e-05,1.88079e-05,-1.49899e-05,-4.4466e-05,-2.92302e-05,-1.60986e-05,1.58482e-05,-4.26247e-06,0
-3.26053e-05,1.87134e-05,-1.44075e-05,-3.12826e-05,-3.05033e-05,-1.75525e-05,1.85383e-05,-1.84728e-06,0
-3.34605e-05,1.94518e-05,-1.26683e-05,-2.3594e-05,-2.69816e-05,-1.78198e-05,2.12565e-05,1.30745e-07,0
-3.28953e-05,2.18119e-05,-1.09704e-05,-2.92201e-05,-1.95381e-05,-1.72633e-05,2.49126e-05,1.63288e-06,0
-3.18807e-05,2.53201e-05,-8.90448e-06,-3.92466e-05,-9.05871e-06,-1.50153e-05,2.72657e-05,2.9466e-06,0
-3.01878e-05,2.81806e-05,-7.05828e-06,-3.60764e-05,5.87951e-06,-1.02607e-05,2.55791e-05,4.70194e-06,0
-2.80484e-05,2.87436e-05,-5.9437e-06,-1.29333e-05,2.85672e-05,-5.11123e-06,2.13923e-05,5.77167e-06,0
-2.69031e-05,2.73952e-05,-4.95951e-06,2.50476e-05,5.26859e-05,-2.49938e-06,1.83923e-05,5.57154e-06,0
-2.74164e-05,2.53844e-05,-3.23446e-06,6.90522e-05,6.51211e-05,-2.65314e-06,1.62667e-05,7.79197e-06,0
-2.84299e-05,2.22883e-05,-1.34756e-06,0.000111239,6.23527e-05,-3.64275e-06,1.25815e-05,1.22024e-05,0
-2.87596e-05,1.86938e-05,9.61205e-07,0.000147817,5.19735e-05,-2.67124e-06,8.84551e-06,1.12899e-05,0
-2.84577e-05,1.76738e-05,4.09928e-06,0.000162051,4.31071e-05,-2.67032e-09,7.10485e-06,4.09075e-06,0
-2.82725e-05,1.8211e-05,7.02498e-06,0.000139865,3.98546e-05,1.06164e-06,4.99976e-06,-3.94061e-06,0
-3.00718e-05,1.62799e-05,6.7815e-06,9.41748e-05,3.71982e-05,-1.26112e-06,2.67061e-06,-9.18193e-06,0
-3.39124e-05,1.3489e-05,3.34744e-06,4.37328e-05,2.99555e-05,-3.24826e-06,8.94249e-07,-1.23292e-05,0
-3.58587e-05,1.2812e-05,-8.30757e-07,1.00193e-05,2.35586e-05,-2.87886e-06,3.57505e-07,-1.28078e-05,0
-3.4233e-05,1.50496e-05,-6.92219e-06,-8.45e-06,2.0229e-05,-2.84424e-06,1.63943e-06,-1.18999e-05,0
-3.26758e-05,1.75661e-05,-1.64602e-05,-1.96526e-05,1.81972e-05,-4.56256e-06,2.27981e-06,-1.19839e-05,0
-3.19927e-05,1.93e-05,-2.36872e-05,-1.7112e-05,1.67837e-05,-6.62137e-06,1.53576e-06,-9.9989e-06,0
-3.00944e-05,2.1389e-05,-2.65815e-05,-1.27414e-05,1.67983e-05,-5.0701e-06,-2.5051e-06,-6.78446e-06,0
-2.6335e-05,2.07968e-05,-2.59065e-05,-1.54141e-05,1.94007e-05,-1.85531e-06,-1.0949e-05,-3.52142e-06,0
-2.44515e-05,1.73276e-05,-2.14258e-05,-2.42707e-05,2.1502e-05,-3.57856e-07,-1.87711e-05,-2.08565e-06,0
-2.68292e-05,1.4518e-05,-1.68194e-05,-3.24722e-05,2.19093e-05,-1.33674e-06,-2.06574e-05,-2.29463e-06,0
-3.18568e-05,1.29073e-05,-1.45505e-05,-4.13827e-05,2.0604e-05,-3.91415e-06,-1.67635e-05,-4.61007e-07,0
-3.68542e-05,1.14674e-05,-1.42288e-05,-5.112e-05,1.87292e-05,-5.58526e-06,-1.02344e-05,3.21987e-06,0
-4.03308e-05,8.91721e-06,-1.39778e-05,-5.89928e-05,1.61678e-05,-5.05597e-06,-5.22271e-06,8.1856e-06,0
-4.24336e-05,6.28962e-06,-1.35793e-05,-6.59904e-05,1.29428e-05,-3.57138e-06,-1.75418e-06,1.19464e-05,0
-4.27555e-05,5.71343e-06,-1.31447e-05,-6.43528e-05,1.0583e-05,-3.2938e-06,1.58435e-06,1.17615e-05,0
-4.06884e-05,6.28327e-06,-1.46494e-05,-4.32587e-05,9.14762e-06,-3.56981e-06,3.54864e-06,8.52317e-06,0
-3.69595e-05,4.29884e-06,-1.80334e-05,-7.18364e-06,8.61079e-06,-3.11022e-06,4.03132e-06,4.48806e-06,0
-3.40846e-05,-7.72386e-07,-2.14671e-05,2.06022e-05,8.68123e-06,-3.88571e-06,5.47053e-06,1.71063e-06,0
-3.27704e-05,-3.84763e-06,-2.43801e-05,2.80628e-05,8.7257e-06,-7.88176e-06,7.86382e-06,1.09439e-07,0
-3.32161e-05,-1.35857e-06,-2.65796e-05,1.84796e-05,7.58205e-06,-1.55721e-05,8.52361e-06,-9.91978e-07,0
-3.40291e-05,3.46779e-06,-2.7155e-05,3.84146e-06,7.20767e-06,-2.52745e-05,7.94565e-06,-1.83955e-06,0
-3.45759e-05,5.82412e-06,-2.56895e-05,-1.13846e-06,9.54445e-06,-2.88592e-05,9.77569e-06,-2.22236e-06,0
-3.53236e-05,5.91744e-06,-2.36126e-05,1.5754e-05,1.24219e-05,-2.40072e-05,1.53919e-05,-2.18317e-06,0
-3.48361e-05,6.06706e-06,-2.15418e-05,3.59217e-05,1.20723e-05,-1.83503e-05,2.18243e-05,-2.02141e-06,0
-3.20358e-05,7.75348e-06,-1.79388e-05,2.56172e-05,9.2346e-06,-1.54055e-05,2.70809e-05,2.25425e-07,0
-2.91279e-05,1.15404e-05,-1.24691e-05,-1.25378e-05,6.69962e-06,-1.3123e-05,2.8486e-05,5.0398e-06,0
-2.84171e-05,1.45551e-05,-8.93694e-06,-5.15086e-05,4.15036e-06,-1.0522e-05,2.59672e-05,7.72217e-06,0
-2.74372e-05,1.46463e-05,-8.26107e-06,-7.98922e-05,2.44109e-06,-7.33346e-06,2.18801e-05,8.45944e-06,0
-2.65854e-05,1.30604e-05,-6.42367e-06,-9.65924e-05,5.30285e-06,-4.88434e-06,1.41717e-05,9.19376e-06,0
-2.7161e-05,1.05436e-05,-6.39114e-06,-9.98478e-05,8.44787e-06,-5.89716e-06,5.508e-06,1.03103e-05,0
-2.73296e-05,8.30693e-06,-1.0026e-05,-9.02341e-05,7.79118e-06,-7.18024e-06,3.04517e-06,1.04884e-05,0
-2.78518e-05,6.51675e-06,-1.06304e-05,-6.91313e-05,6.95256e-06,-5.46826e-06,7.04344e-06,9.21208e-06,0
-2.83386e-05,5.44199e-06,-6.86569e-06,-4.70869e-05,7.59295e-06,-1.85462e-06,1.46779e-05,8.72253e-06,0
-2.96727e-05,4.27546e-06,-3.18622e-06,-3.13885e-05,9.09629e-06,1.72363e-07,2.39589e-05,8.72898e-06,0
-3.14324e-05,3.12827e-06,-2.73638e-06,-2.01872e-05,1.01674e-05,-3.875e-07,3.21009e-05,7.79535e-06,0
-3.2677e-05,3.26419e-06,-2.68011e-06,-1.14848e-05,9.50714e-06,-8.7989e-07,3.73625e-05,3.31999e-06,0
-3.48002e-05,5.38354e-06,-3.23485e-06,-5.40158e-06,6.67455e-06,-1.88956e-06,3.80677e-05,-1.06904e-06,0
-3.54897e-05,8.67502e-06,-5.61556e-06,-5.24422e-06,3.10032e-06,-3.48997e-06,3.51235e-05,-2.07065e-06,0
-3.44608e-05,1.1375e-05,-8.27537e-06,-8.80171e-06,3.29018e-07,-3.78171e-06,3.12826e-05,-8.04195e-07,0
-3.29694e-05,1.43448e-05,-9.95106e-06,-1.31945e-05,-1.40451e-06,-2.43304e-06,2.68836e-05,1.18686e-06,0
-3.14881e-05,1.70243e-05,-1.0501e-05,-1.60545e-05,-2.57878e-06,-1.81597e-06,2.15131e-05,2.699e-06,0
-2.93209e-05,1.83445e-05,-1.16539e-05,-1.35508e-05,-2.79569e-06,-3.38518e-06,1.52304e-05,4.1521e-06,0
-2.7685e-05,1.87527e-05,-1.30662e-05,-5.99873e-06,-1.74486e-06,-5.72591e-06,9.41243e-06,6.02135e-06,0
-2.83946e-05,2.15188e-05,-1.39996e-05,1.75758e-06,-2.96868e-07,-6.74453e-06,6.67709e-06,7.30445e-06,0
-3.08221e-05,2.97067e-05,-1.30861e-05,4.89097e-06,5.08701e-07,-6.79347e-06,8.1467e-06,6.34855e-06,0
-3.20839e-05,3.95861e-05,-9.2107e-06,5.21457e-06,1.92795e-06,-7.87364e-06,1.06119e-05,4.24316e-06,0
-3.08135e-05,4.41744e-05,-3.5595e-06,4.99118e-06,4.56216e-06,-1.01013e-05,1.06395e-05,3.08478e-06,0
-2.9125e-05,4.143e-05,-3.15768e-07,5.2764e-06,7.6435e-06,-1.1829e-05,8.99517e-06,2.80828e-06,0
-2.90953e-05,3.30655e-05,-1.57203e-07,6.12419e-06,1.0999e-05,-1.17046e-05,6.94053e-06,2.16368e-06,0
-3.02488e-05,2.26457e-05,-7.70957e-07,7.62293e-06,1.36501e-05,-1.03182e-05,2.40573e-06,7.61696e-07,0
-3.00373e-05,1.25628e-05,-8.45222e-07,8.57021e-06,1.47995e-05,-8.64093e-06,-3.65693e-06,-2.83804e-07,0
-2.94239e-05,4.28082e-06,-5.19139e-07,9.66747e-06,1.61062e-05,-7.13125e-06,-6.55357e-06,7.36894e-07,0
-2.97593e-05,2.50007e-06,-6.21905e-07,1.00887e-05,1.85198e-05,-6.039e-06,-3.86959e-06,1.61485e-06,0
-3.06456e-05,5.40246e-06,-3.80684e-07,6.60709e-06,1.98605e-05,-6.30169e-06,1.7229e-06,1.90204e-06,0
-2.9436e-05,6.84589e-06,-2.11345e-09,-6.49552e-07,1.85784e-05,-7.77607e-06,6.42071e-06,2.25253e-06,0
-2.51686e-05,4.44754e-06,-1.50043e-06,-4.12301e-06,1.61534e-05,-1.20855e-05,9.29946e-06,1.85444e-06,0
-2.20334e-05,2.36634e-07,-5.54565e-06,4.50701e-06,1.70943e-05,-1.93806e-05,1.04085e-05,1.17876e-06,0
-2.12479e-05,-2.88757e-06,-8.23147e-06,2.04555e-05,2.02624e-05,-2.75068e-05,1.06582e-05,1.40968e-06,0
-2.3669e-05,-4.99535e-06,-7.1508e-06,3.48717e-05,2.29266e-05,-3.17295e-05,9.30061e-06,1.47476e-06,0
-2.99807e-05,-6.83008e-06,-4.1001e-06,4.19964e-05,2.38047e-05,-1.88921e-05,7.93271e-06,-1.65368e-07,0
-3.69969e-05,-1.00016e-05,-5.25458e-07,3.67118e-05,2.02846e-05,6.94799e-06,8.2853e-06,-1.76569e-06,0
-3.94503e-05,-1.40193e-05,1.82723e-06,1.98196e-05,1.61733e-05,2.3043e-05,1.06413e-05,-3.0012e-06,0
-3.55061e-05,-1.83693e-05,4.48916e-06,-2.4114e-06,1.41334e-05,1.89465e-05,1.41709e-05,-3.3717e-06,0
-3.07282e-05,-2.2309e-05,1.03153e-05,-2.51082e-05,1.45244e-05,4.84763e-06,1.75343e-05,-3.16366e-06,0
-2.85828e-05,-2.48443e-05,2.06613e-05,-4.09133e-05,1.55556e-05,-5.73928e-06,2.14568e-05,-2.99732e-06,0
-2.98815e-05,-2.39494e-05,3.53736e-05,-3.88325e-05,1.48664e-05,-8.09679e-06,2.64092e-05,-3.04537e-06,0
-3.20566e-05,-1.95114e-05,5.10706e-05,-2.14168e-05,1.36202e-05,-6.30959e-06,3.14887e-05,-2.18986e-06,0
-3.35089e-05,-1.33885e-05,6.29748e-05,-3.62923e-06,1.34451e-05,-5.59968e-06,3.46328e-05,-1.41531e-06,0
-3.37432e-05,-7.33624e-06,6.5275e-05,5.47681e-06,1.45262e-05,-5.62889e-06,3.43478e-05,-1.58347e-06,0
-3.26216e-05,-2.38061e-06,5.49357e-05,7.28458e-06,1.53629e-05,-5.65042e-06,2.99288e-05,-8.18914e-07,0
-3.1665e-05,1.65713e-07,3.12521e-05,3.80539e-06,1.57017e-05,-4.82485e-06,2.34668e-05,7.47693e-07,0
-3.16739e-05,-1.74778e-07,-1.36374e-06,-4.38583e-06,1.55209e-05,-3.90834e-06,1.65245e-05,9.19635e-07,0
-3.2695e-05,-7.73452e-07,-3.35816e-05,-1.47914e-05,1.4815e-05,-2.7487e-06,1.08262e-05,6.5149e-07,0
-3.30637e-05,-3.53854e-07,-5.7527e-05,-2.84657e-05,1.38155e-05,-1.61898e-06,7.45002e-06,2.67763e-06,0
-3.22035e-05,1.64746e-06,-7.02163e-05,-3.94031e-05,1.33266e-05,-1.55872e-06,4.72718e-06,5.25721e-06,0
-3.13413e-05,3.60657e-06,-6.96766e-05,-3.26435e-05,1.25273e-05,-2.82601e-06,3.97173e-07,5.7847e-06,0
-3.26834e-05,4.41988e-06,-5.6553e-05,-6.51108e-06,1.12376e-05,-3.57274e-06,-7.30277e-06,3.67084e-06,0
-3.44407e-05,3.49669e-06,-3.90722e-05,2.39549e-05,1.19967e-05,-4.37595e-06,-1.89077e-05,2.13222e-06,0
-3.3784e-05,8.00748e-07,-2.57488e-05,4.31981e-05,1.46869e-05,-6.39348e-06,-2.93698e-05,3.33922e-06,0
-3.20285e-05,-2.91866e-06,-1.89478e-05,3.53083e-05,1.46129e-05,-7.71519e-06,-3.06891e-05,6.2378e-06,0
-3.16407e-05,-3.74792e-06,-1.49632e-05,-1.43579e-06,1.22572e-05,-8.31923e-06,-2.31442e-05,7.50999e-06,0
-3.38711e-05,2.20383e-07,-1.05983e-05,-5.44814e-05,9.8682e-06,-8.00177e-06,-1.16973e-05,6.54391e-06,0
-3.78398e-05,7.34872e-06,-4.58952e-06,-0.000111438,6.72609e-06,-8.07507e-06,1.97398e-06,5.29051e-06,0
-3.77988e-05,1.23543e-05,5.43274e-07,-0.00013622,6.49504e-06,-8.60267e-06,1.50425e-05,4.60311e-06,0
-3.48726e-05,1.43933e-05,1.07968e-06,-0.000125684,9.44503e-06,-8.64755e-06,2.5254e-05,4.12298e-06,0
-3.18344e-05,1.70215e-05,-1.65023e-06,-9.80499e-05,9.45199e-06,-9.01588e-06,3.3637e-05,3.37812e-06,0
-2.82248e-05,1.99819e-05,-3.37707e-06,-4.64018e-05,5.69531e-06,-9.42288e-06,4.15831e-05,3.48252e-06,0
-2.72088e-05,2.0925e-05,-1.46992e-06,9.46629e-06,1.81592e-06,-8.37677e-06,5.07975e-05,5.22996e-06,0
-2.87485e-05,1.8737e-05,3.33477e-06,4.37138e-05,2.52996e-06,-5.52263e-06,5.90791e-05,7.06181e-06,0
-2.96436e-05,1.70234e-05,9.29765e-06,4.36805e-05,8.86112e-06,-3.91941e-06,6.39786e-05,7.87909e-06,0
-3.02474e-05,1.67532e-05,1.30339e-05,2.97545e-05,1.74859e-05,-4.31066e-06,6.41909e-05,8.74824e-06,0
-3.10756e-05,1.81315e-05,1.19831e-05,2.30061e-05,2.28697e-05,-4.52717e-06,6.17866e-05,9.45337e-06,0
-3.18564e-05,1.99891e-05,9.28829e-06,2.57886e-05,2.26794e-05,-4.00801e-06,5.8687e-05,9.12397e-06,0
-3.25576e-05,2.26732e-05,7.98661e-06,3.4106e-05,2.18787e-05,-4.24417e-06,5.26027e-05,8.9554e-06,0
-3.18031e-05,2.42397e-05,6.8749e-06,4.30212e-05,2.02465e-05,-5.66031e-06,4.13015e-05,9.63406e-06,0
-3.07681e-05,2.36987e-05,5.74197e-06,5.20873e-05,1.72377e-05,-7.22407e-06,2.57152e-05,9.83752e-06,0
-2.96988e-05,2.19348e-05,5.40163e-06,5.87915e-05,1.43799e-05,-8.89151e-06,1.06697e-05,8.80396e-06,0
-2.94166e-05,2.06232e-05,4.36808e-06,6.32838e-05,1.2527e-05,-9.79179e-06,2.44674e-07,7.2146e-06,0
-2.99513e-05,2.04559e-05,1.86843e-06,6.20447e-05,1.22776e-05,-9.33979e-06,-5.19084e-06,6.78555e-06,0
-3.07839e-05,1.94104e-05,-1.34999e-06,5.67963e-05,1.31563e-05,-8.56887e-06,-7.58761e-06,7.11901e-06,0
-3.11288e-05,1.74842e-05,-5.15843e-06,4.64869e-05,1.22579e-05,-9.30004e-06,-7.14834e-06,6.82643e-06,0
-3.05089e-05,1.43985e-05,-9.34663e-06,3.28823e-05,8.56121e-06,-1.09781e-05,-5.05853e-06,5.63144e-06,0
-3.03119e-05,1.07799e-05,-1.18542e-05,1.71566e-05,5.82596e-06,-1.25867e-05,-4.34254e-06,3.79608e-06,0
-3.11095e-05,7.77855e-06,-1.06509e-05,2.76699e-06,6.74968e-06,-1.31011e-05,-4.40539e-06,1.61015e-06,0
-3.06243e-05,7.37989e-06,-8.49424e-06,-3.32774e-06,1.05029e-05,-1.28095e-05,-2.4482e-06,5.15656e-07,0
-2.9828e-05,7.39845e-06,-9.47412e-06,6.39583e-06,1.37087e-05,-1.22666e-05,1.01895e-06,5.75724e-07,0
-3.13859e-05,5.46296e-06,-1.29298e-05,2.15639e-05,1.39325e-05,-1.16119e-05,4.10169e-06,1.19561e-06,0
-3.43631e-05,5.78794e-06,-1.50238e-05,2.84777e-05,1.20486e-05,-1.1894e-05,7.63804e-06,2.29599e-06,0
-3.53509e-05,1.26366e-05,-1.42827e-05,2.81565e-05,1.15123e-05,-1.43147e-05,1.16599e-05,3.13737e-06,0
-3.33643e-05,2.01147e-05,-1.32661e-05,2.39206e-05,1.28671e-05,-1.77328e-05,1.29547e-05,3.0958e-06,0
-3.25962e-05,2.21238e-05,-1.4835e-05,1.70833e-05,1.41939e-05,-1.92e-05,1.23662e-05,2.96056e-06,0
-3.24397e-05,2.20913e-05,-1.59308e-05,1.06008e-05,1.4286e-05,-1.98397e-05,1.08019e-05,1.93094e-06,0
-3.13936e-05,2.51476e-05,-1.42886e-05,5.01176e-06,1.49783e-05,-1.97922e-05,9.85313e-06,-7.79258e-07,0
-2.94181e-05,2.88819e-05,-1.27917e-05,-2.12208e-06,1.54032e-05,-1.87359e-05,6.27619e-06,-1.95205e-06,0
-2.82969e-05,2.81545e-05,-1.27965e-05,-9.06842e-06,1.3501e-05,-1.70802e-05,-2.76112e-06,-2.9665e-06,0
-2.76095e-05,2.38098e-05,-1.40483e-05,-2.22816e-05,9.32366e-06,-1.63117e-05,-8.91138e-06,-3.48373e-06,0
-2.60616e-05,1.96526e-05,-1.42581e-05,-3.72521e-05,5.65531e-06,-1.82767e-05,-7.43693e-06,-2.52455e-06,0
-2.60814e-05,1.74156e-05,-1.37611e-05,-4.0113e-05,5.87864e-06,-2.11305e-05,-2.25438e-07,-2.8986e-06,0
-2.76676e-05,1.82539e-05,-1.42555e-05,-3.10275e-05,8.05293e-06,-2.27593e-05,6.30049e-06,-3.91276e-06,0
-2.92586e-05,2.01416e-05,-1.5048e-05,-1.69997e-05,1.13545e-05,-2.22809e-05,1.06664e-05,-4.2349e-06,0
-3.02852e-05,2.0236e-05,-1.55226e-05,-6.13662e-06,1.4616e-05,-2.0825e-05,1.42028e-05,-3.32958e-06,0
-3.01198e-05,1.83413e-05,-1.63041e-05,-4.35151e-06,1.56266e-05,-1.91357e-05,1.82604e-05,-3.32175e-06,0
-2.83717e-05,1.71413e-05,-1.62554e-05,-9.05012e-06,1.60699e-05,-1.70618e-05,2.26162e-05,-4.56838e-06,0
-2.64018e-05,1.84677e-05,-1.46234e-05,-1.20833e-05,1.97783e-05,-1.39355e-05,2.48111e-05,-5.24774e-06,0
-2.54169e-05,1.98827e-05,-1.38156e-05,-5.37076e-06,2.55708e-05,-1.0226e-05,2.66628e-05,-4.67359e-06,0
-2.58868e-05,1.96129e-05,-1.41585e-05,8.39787e-06,2.87481e-05,-7.83232e-06,2.85946e-05,-4.06101e-06,0
-2.63401e-05,1.8318e-05,-1.3805e-05,1.82491e-05,2.83184e-05,-6.80075e-06,2.90044e-05,-4.00511e-06,0
-2.546e-05,1.74258e-05,-1.2228e-05,1.57887e-05,2.62321e-05,-6.78e-06,2.7404e-05,-4.13372e-06,0
-2.47981e-05,1.64653e-05,-1.22223e-05,6.42812e-06,2.54283e-05,-7.39725e-06,2.52059e-05,-4.17135e-06,0
-2.59949e-05,1.63518e-05,-1.43166e-05,1.52112e-07,2.75214e-05,-7.64312e-06,2.33628e-05,-4.05284e-06,0
-2.77698e-05,1.80223e-05,-1.68048e-05,-1.82845e-06,3.19022e-05,-7.27449e-06,2.1624e-05,-4.90835e-06,0
-2.86252e-05,2.09522e-05,-1.92961e-05,-2.65427e-06,3.59362e-05,-7.31974e-06,1.85708e-05,-5.47679e-06,0
-2.84924e-05,2.22814e-05,-2.12478e-05,-5.16899e-06,3.62346e-05,-7.25051e-06,1.29836e-05,-5.13512e-06,0
-2.88839e-05,2.30118e-05,-2.06589e-05,-1.43872e-05,3.13827e-05,-7.01494e-06,7.68997e-06,-4.2738e-06,0
-3.02557e-05,2.44742e-05,-1.84727e-05,-2.82885e-05,2.46541e-05,-6.86079e-06,8.77422e-06,-3.9187e-06,0
-3.04815e-05,2.39396e-05,-1.83006e-05,-4.03575e-05,2.08016e-05,-6.00608e-06,1.48072e-05,-3.22125e-06,0
-2.97545e-05,2.23581e-05,-2.11898e-05,-4.42651e-05,1.77861e-05,-4.53819e-06,1.74558e-05,-2.86302e-06,0
-2.94076e-05,2.3079e-05,-2.39992e-05,-3.68675e-05,1.28102e-05,-4.61927e-06,1.43976e-05,-3.80155e-06,0
-2.83481e-05,2.45149e-05,-2.30803e-05,-2.08851e-05,7.38638e-06,-6.05799e-06,8.44156e-06,-4.26291e-06,0
-2.678e-05,2.48206e-05,-1.97584e-05,-1.80905e-07,4.65159e-06,-7.69751e-06,2.34463e-06,-5.25317e-06,0
-2.58943e-05,2.36807e-05,-1.68738e-05,1.56154e-05,4.39765e-06,-9.81792e-06,8.89696e-07,-4.82978e-06,0
-2.6524e-05,1.96491e-05,-1.56394e-05,2.27221e-05,4.09344e-06,-9.84468e-06,5.63836e-06,-2.71273e-06,0
-2.80269e-05,1.44296e-05,-1.42688e-05,2.21498e-05,3.62917e-06,-8.39864e-06,1.196e-05,-2.15414e-06,0
-2.79446e-05,9.64986e-06,-1.174e-05,1.69777e-05,2.86828e-06,-7.54934e-06,1.55382e-05,-3.21689e-06,0
-2.74701e-05,5.41862e-06,-9.61281e-06,9.76515e-06,2.71914e-06,-7.08852e-06,1.57931e-05,-3.36906e-06,0
-2.70081e-05,3.32601e-06,-8.40559e-06,-2.49824e-07,1.37786e-06,-6.50417e-06,1.44072e-05,-2.78897e-07,0
-2.69933e-05,3.14296e-06,-8.30995e-06,-1.13035e-05,1.13722e-06,-6.19058e-06,1.17424e-05,2.70836e-06,0
-2.79761e-05,3.40408e-06,-8.41539e-06,-1.76568e-05,3.31347e-06,-6.71631e-06,7.83516e-06,3.50347e-06,0
-2.82052e-05,4.40773e-06,-7.59975e-06,-1.84003e-05,4.27341e-06,-8.72906e-06,4.45375e-06,4.15176e-06,0
-2.69634e-05,5.81406e-06,-6.89482e-06,-1.75441e-05,2.84721e-06,-1.15762e-05,2.49725e-06,4.99143e-06,0
-2.51627e-05,5.99597e-06,-7.5287e-06,-1.729e-05,7.96204e-07,-1.22965e-05,1.18747e-06,4.82265e-06,0
-2.45453e-05,3.69394e-06,-9.86435e-06,-1.70932e-05,-4.90587e-07,-1.06311e-05,1.47595e-06,3.47787e-06,0
-2.53598e-05,1.26596e-06,-1.32567e-05,-1.38702e-05,-2.1746e-06,-8.92745e-06,3.59575e-06,1.69339e-06,0
-2.73285e-05,1.08769e-06,-1.62431e-05,-8.32825e-06,-3.12088e-06,-8.86304e-06,6.28416e-06,3.76375e-07,0
-2.98331e-05,2.41045e-06,-1.7968e-05,-8.83949e-06,-2.57439e-06,-9.50643e-06,9.22415e-06,1.03665e-07,0
-3.13792e-05,1.87821e-06,-1.85001e-05,-2.27818e-05,-2.61149e-06,-9.3733e-06,1.15234e-05,3.39356e-07,0
-3.07883e-05,-3.15248e-08,-1.90876e-05,-3.99679e-05,-5.06775e-06,-8.5388e-06,1.08611e-05,4.49366e-07,0
-2.94349e-05,1.40431e-06,-1.97649e-05,-4.40312e-05,-7.99501e-06,-8.03345e-06,6.72883e-06,4.61458e-09,0
-2.9227e-05,5.6473e-06,-1.8749e-05,-3.81883e-05,-8.60342e-06,-7.08574e-06,2.62839e-06,-7.67122e-07,0
-2.97702e-05,8.0154e-06,-1.6351e-05,-3.73557e-05,-7.06135e-06,-5.66783e-06,2.94044e-06,-1.12595e-06,0
-3.02774e-05,7.24057e-06,-1.28889e-05,-4.08431e-05,-3.89674e-06,-5.61226e-06,6.56634e-06,-1.39629e-06,0
-3.00299e-05,5.25061e-06,-8.59424e-06,-3.19836e-05,4.66742e-09,-5.91577e-06,8.91241e-06,-1.50936e-06,0
-2.8273e-05,3.8186e-06,-3.76481e-06,-5.58324e-07,1.94971e-06,-5.54737e-06,7.84971e-06,-1.7485e-07,0
-2.66026e-05,3.32299e-06,1.92082e-06,4.45989e-05,5.35921e-06,-6.0748e-06,5.39868e-06,2.19485e-06,0
-2.59288e-05,5.61545e-06,5.76382e-06,8.59834e-05,1.15694e-05,-5.92794e-06,6.49466e-06,2.77314e-06,0
-2.53011e-05,7.85336e-06,5.50766e-06,0.000121712,2.0361e-05,-4.15486e-06,8.5619e-06,4.23052e-07,0
