ch1,ch2,ch3,ch4,ch5,ch6,ch7,ch8,class
-2.80115e-05,-2.69905e-06,-5.25248e-06,-4.73624e-05,1.91918e-05,-2.21401e-06,5.60151e-06,3.08603e-06,0
-2.89759e-05,-6.6768e-06,-4.76773e-06,-4.1014e-05,2.09179e-05,-1.77884e-06,7.02605e-06,3.49248e-06,0
-2.90671e-05,-8.44746e-06,-2.65766e-06,-3.44199e-05,2.17132e-05,-1.6079e-06,7.47035e-06,3.62899e-06,0
-2.9601e-05,-8.18978e-06,-2.65828e-07,-1.37126e-05,2.4363e-05,-1.64387e-06,8.37085e-06,2.31325e-06,0
-3.02022e-05,-5.70868e-06,1.41051e-06,2.963e-05,3.07915e-05,-1.48665e-06,9.40454e-06,-4.35838e-07,0
-3.01261e-05,-2.21913e-06,2.31417e-06,8.20854e-05,3.82128e-05,-3.06033e-07,1.01167e-05,-1.64846e-06,0
-2.91209e-05,8.96777e-07,2.73202e-06,0.000116103,4.16309e-05,1.34142e-06,1.07946e-05,-4.24508e-07,0
-2.81821e-05,1.57005e-06,2.05368e-06,0.000119324,3.97935e-05,1.5545e-06,1.17546e-05,1.10693e-06,0
-2.73637e-05,-1.39337e-06,8.4905e-07,9.96721e-05,3.55019e-05,-1.54335e-07,1.24061e-05,2.16234e-06,0
-2.72663e-05,-5.21356e-06,-6.66201e-07,6.78034e-05,3.00748e-05,-2.88104e-06,1.24924e-05,4.05369e-06,0
-2.76532e-05,-4.75194e-06,-3.17601e-06,3.161e-05,2.31624e-05,-6.66467e-06,1.19715e-05,5.2902e-06,0
-2.7748e-05,-1.70717e-06,-5.21712e-06,2.99857e-06,1.70427e-05,-9.90604e-06,1.21165e-05,4.45103e-06,0
-2.7907e-05,-1.14905e-06,-6.3362e-06,-7.96271e-06,1.52392e-05,-9.57318e-06,1.38437e-05,2.3112e-06,0
-2.87452e-05,-2.34442e-06,-6.50804e-06,-5.65661e-06,1.50358e-05,-8.06872e-06,1.54521e-05,1.7834e-06,0
-2.88247e-05,-1.31925e-06,-5.68211e-06,-9.6988e-07,1.33762e-05,-8.6404e-06,1.425e-05,2.19783e-06,0
-2.83287e-05,8.84745e-07,-5.42518e-06,-4.05089e-07,1.13828e-05,-1.08735e-05,1.20345e-05,2.71383e-06,0
-2.73443e-05,-6.03923e-07,-7.2066e-06,-3.80999e-06,9.52443e-06,-1.20384e-05,1.10318e-05,2.30912e-06,0
-2.47919e-05,-5.22138e-06,-9.9123e-06,-4.27078e-06,9.73022e-06,-1.19552e-05,1.1989e-05,-8.91687e-08,0
-2.34386e-05,-7.9304e-06,-1.21726e-05,2.94356e-07,1.04996e-05,-1.1539e-05,1.42334e-05,-1.14056e-06,0
-2.49852e-05,-6.1248e-06,-1.28032e-05,6.46015e-06,1.12527e-05,-1.11315e-05,1.53642e-05,-1.97569e-07,0
-2.77872e-05,-2.68216e-06,-1.16909e-05,1.05929e-05,1.45993e-05,-1.14216e-05,1.63234e-05,1.15547e-06,0
-2.80846e-05,-7.19053e-07,-1.05285e-05,1.26444e-05,2.04741e-05,-1.14019e-05,1.84806e-05,2.40168e-06,0
-2.71611e-05,-1.0012e-07,-1.04273e-05,1.23242e-05,2.51749e-05,-1.01863e-05,1.97345e-05,3.52788e-06,0
-2.80455e-05,3.63063e-07,-1.10891e-05,9.60106e-06,2.52923e-05,-8.53479e-06,1.83736e-05,5.12181e-06,0
-2.89216e-05,2.64818e-06,-1.22476e-05,6.33935e-06,2.12307e-05,-7.86454e-06,1.66912e-05,6.41366e-06,0
-2.90209e-05,6.76307e-06,-1.36594e-05,3.23214e-06,1.55508e-05,-8.85101e-06,1.55649e-05,6.31994e-06,0
-2.87275e-05,1.092e-05,-1.4669e-05,-5.82104e-07,1.07977e-05,-1.05012e-05,1.60053e-05,6.32056e-06,0
-2.8196e-05,1.28168e-05,-1.46642e-05,-5.53946e-06,6.39403e-06,-1.2373e-05,1.76463e-05,6.59069e-06,0
-2.87527e-05,1.40044e-05,-1.34521e-05,-9.15766e-06,3.32258e-06,-1.45546e-05,1.8462e-05,6.60472e-06,0
-3.03372e-05,1.65794e-05,-1.24148e-05,-1.14545e-05,2.90346e-06,-1.5185e-05,1.76721e-05,5.82558e-06,0
-3.14926e-05,1.90981e-05,-1.13509e-05,-1.48071e-05,3.75e-06,-1.44093e-05,1.553e-05,5.15218e-06,0
-3.16148e-05,2.06598e-05,-9.59154e-06,-2.13715e-05,4.29859e-06,-1.39717e-05,1.32624e-05,4.64993e-06,0
-3.10975e-05,2.25711e-05,-8.86903e-06,-2.8372e-05,4.52158e-06,-1.38494e-05,1.22729e-05,3.65672e-06,0
-3.04331e-05,2.51105e-05,-1.09289e-05,-3.09727e-05,4.76958e-06,-1.30833e-05,1.28945e-05,2.9923e-06,0
-3.06609e-05,2.49151e-05,-1.47319e-05,-2.83274e-05,5.42077e-06,-1.23591e-05,1.41193e-05,2.84748e-06,0
-3.19264e-05,2.17526e-05,-1.77777e-05,-2.51524e-05,5.74906e-06,-1.20291e-05,1.47231e-05,3.03978e-06,0
-3.32413e-05,2.08351e-05,-1.88206e-05,-2.45427e-05,4.98283e-06,-1.17085e-05,1.42701e-05,3.93228e-06,0
-3.41884e-05,2.55973e-05,-1.8237e-05,-2.57611e-05,3.64195e-06,-1.17657e-05,1.44152e-05,5.86823e-06,0
-3.35674e-05,3.14213e-05,-1.72995e-05,-2.69196e-05,2.62104e-06,-1.33863e-05,1.52355e-05,8.69086e-06,0
-3.21523e-05,3.45648e-05,-1.68023e-05,-2.66454e-05,2.9637e-06,-1.4471e-05,1.60241e-05,1.1744e-05,0
-3.23519e-05,3.59737e-05,-1.52716e-05,-2.49558e-05,3.6033e-06,-1.4747e-05,1.66826e-05,1.25257e-05,0
-3.33256e-05,3.60301e-05,-1.15511e-05,-1.98391e-05,4.50625e-06,-1.53852e-05,1.71603e-05,1.04071e-05,0
-3.37355e-05,3.5423e-05,-8.78453e-06,-1.07554e-05,7.85954e-06,-1.32798e-05,1.81886e-05,7.33905e-06,0
-3.33467e-05,3.35647e-05,-7.88857e-06,-5.0885e-06,1.02703e-05,-1.15786e-05,1.88075e-05,4.31584e-06,0
-3.26546e-05,3.08593e-05,-6.36243e-06,-3.8556e-06,1.01503e-05,-1.22691e-05,1.34337e-05,2.97836e-06,0
-3.10809e-05,2.96235e-05,-6.26826e-06,-3.35883e-06,8.60323e-06,-1.2357e-05,4.01426e-06,3.96375e-06,0
-2.95279e-05,2.87286e-05,-8.81101e-06,-6.21476e-06,8.16445e-06,-1.05619e-05,-3.27549e-06,4.37501e-06,0
-3.03086e-05,2.67098e-05,-1.11798e-05,-1.28318e-05,1.04898e-05,-7.26499e-06,-6.14942e-06,3.54763e-06,0
-3.20773e-05,2.42775e-05,-1.22353e-05,-2.24535e-05,9.80559e-06,-5.50952e-06,-4.68879e-06,2.26984e-06,0
-3.35185e-05,2.32372e-05,-1.22191e-05,-2.93999e-05,6.38739e-06,-6.55266e-06,-1.01771e-06,1.59397e-06,0
-3.38237e-05,2.31778e-05,-1.16802e-05,-3.02762e-05,3.27441e-06,-8.62947e-06,5.19686e-06,2.68732e-06,0
-3.29854e-05,2.33431e-05,-1.14863e-05,-2.86487e-05,3.89316e-06,-9.99297e-06,1.33629e-05,3.96735e-06,0
-3.18507e-05,2.45389e-05,-1.19472e-05,-2.70615e-05,6.86354e-06,-9.87667e-06,2.05562e-05,3.47727e-06,0
-3.15421e-05,2.70198e-05,-1.19289e-05,-2.29376e-05,9.67021e-06,-8.18296e-06,2.41596e-05,1.78521e-06,0
-3.14336e-05,2.76216e-05,-1.09664e-05,-1.48183e-05,1.13718e-05,-5.85408e-06,2.50936e-05,-7.05229e-07,0
-3.03297e-05,2.58862e-05,-8.96828e-06,-6.22423e-06,1.19413e-05,-6.0129e-06,2.49586e-05,-3.69575e-06,0
-2.967e-05,2.52848e-05,-5.40793e-06,2.15355e-08,1.31662e-05,-9.02956e-06,2.40266e-05,-5.36522e-06,0
-3.02414e-05,2.62621e-05,7.17614e-09,2.70413e-06,1.41532e-05,-1.15282e-05,2.29678e-05,-4.88817e-06,0
-3.1122e-05,2.70412e-05,6.89811e-06,3.32093e-06,1.58706e-05,-1.12357e-05,2.26931e-05,-4.29908e-06,0
-3.19199e-05,2.62897e-05,1.47597e-05,3.99958e-06,1.92316e-05,-9.40007e-06,2.1466e-05,-4.42504e-06,0
-3.21759e-05,2.50166e-05,2.58974e-05,5.85177e-06,2.3691e-05,-8.9223e-06,1.76046e-05,-4.21828e-06,0
-3.18834e-05,2.32704e-05,4.25473e-05,7.6762e-06,2.70475e-05,-1.05612e-05,1.22379e-05,-4.26224e-06,0
-3.17558e-05,2.07927e-05,6.25236e-05,6.34115e-06,3.00363e-05,-1.18588e-05,8.02353e-06,-4.40589e-06,0
-3.10695e-05,1.75958e-05,7.76741e-05,-5.99321e-08,3.27365e-05,-1.05909e-05,7.90881e-06,-4.12716e-06,0
-2.99733e-05,1.47214e-05,7.78315e-05,-9.16931e-06,3.24263e-05,-9.72215e-06,1.12608e-05,-4.01925e-06,0
-2.91389e-05,1.22323e-05,5.81817e-05,-1.68889e-05,2.89337e-05,-1.06989e-05,1.38738e-05,-3.3861e-06,0
-2.93387e-05,1.05174e-05,2.11982e-05,-2.05425e-05,2.60882e-05,-1.0225e-05,1.22677e-05,-1.22778e-06,0
-3.00832e-05,9.15474e-06,-2.33563e-05,-2.04522e-05,2.46238e-05,-8.0175e-06,8.13427e-06,4.41442e-07,0
-3.09086e-05,7.94602e-06,-6.34411e-05,-1.87111e-05,2.32151e-05,-6.88985e-06,4.5609e-06,8.50807e-07,0
-3.226e-05,7.5704e-06,-9.14207e-05,-1.77169e-05,2.00949e-05,-6.87536e-06,2.81486e-06,-1.08165e-06,0
-3.25048e-05,8.06434e-06,-9.91145e-05,-1.75868e-05,1.67613e-05,-6.88671e-06,2.61229e-06,-4.6191e-06,0
-3.00292e-05,8.9624e-06,-9.00415e-05,-1.47101e-05,1.74599e-05,-7.76428e-06,2.337e-06,-6.25632e-06,0
-2.73678e-05,8.1122e-06,-7.74813e-05,-7.00141e-06,2.14e-05,-9.78322e-06,1.51198e-06,-5.40606e-06,0
-2.72339e-05,7.09027e-06,-6.72539e-05,9.70652e-07,2.49263e-05,-1.08337e-05,-1.51699e-06,-4.42073e-06,0
-2.83051e-05,7.33358e-06,-6.048e-05,2.02268e-06,2.51196e-05,-1.09839e-05,-4.46162e-06,-4.4134e-06,0
-2.77094e-05,7.90227e-06,-5.21858e-05,-1.59216e-06,2.196e-05,-1.17609e-05,-3.75404e-06,-4.64746e-06,0
-2.57342e-05,9.60916e-06,-4.13785e-05,-4.38396e-06,1.96536e-05,-1.23268e-05,-4.53326e-07,-4.52389e-06,0
-2.66374e-05,1.17444e-05,-3.02613e-05,-5.33883e-06,2.09102e-05,-1.23153e-05,9.63182e-07,-3.05393e-06,0
-2.8542e-05,1.26229e-05,-2.2496e-05,-6.45691e-06,2.10579e-05,-1.08845e-05,8.06543e-07,-2.31804e-06,0
-2.87327e-05,1.17074e-05,-1.85817e-05,-7.79727e-06,1.77023e-05,-8.26757e-06,2.93845e-06,-2.72491e-06,0
-2.88056e-05,1.07167e-05,-1.70503e-05,-8.68136e-06,1.37149e-05,-6.96954e-06,4.99191e-06,-3.41357e-06,0
-2.97779e-05,1.15106e-05,-1.64185e-05,-1.00304e-05,1.12029e-05,-8.1719e-06,5.81457e-06,-4.94893e-06,0
-3.15851e-05,1.31318e-05,-1.45452e-05,-1.06645e-05,1.09293e-05,-1.06544e-05,6.27823e-06,-8.10013e-06,0
-3.31516e-05,1.38082e-05,-1.15805e-05,-9.6528e-06,1.1478e-05,-1.203e-05,6.88229e-06,-1.20267e-05,0
-3.40925e-05,1.34726e-05,-6.74815e-06,-8.1073e-06,1.07818e-05,-1.20135e-05,7.13075e-06,-1.44069e-05,0
-3.37743e-05,1.34434e-05,-2.26393e-06,-7.56898e-06,8.99451e-06,-1.14963e-05,8.12943e-06,-1.36144e-05,0
-3.21156e-05,1.34701e-05,4.63204e-07,-8.09705e-06,7.27123e-06,-1.17434e-05,1.00023e-05,-9.1696e-06,0
-3.0696e-05,1.23734e-05,1.30169e-06,-9.43197e-06,5.55667e-06,-1.36507e-05,1.20326e-05,-5.2689e-06,0
-3.01744e-05,9.70571e-06,2.00251e-06,-8.73659e-06,4.36762e-06,-1.54705e-05,1.40971e-05,-5.24929e-06,0
-2.86824e-05,6.52825e-06,2.5731e-06,-4.096e-06,5.29903e-06,-1.41369e-05,1.60735e-05,-6.64971e-06,0
-2.66236e-05,5.60712e-06,3.13066e-06,9.3006e-07,7.33992e-06,-1.13203e-05,1.71956e-05,-5.86566e-06,0
-2.57236e-05,8.31081e-06,3.53105e-06,3.22001e-06,9.08356e-06,-1.0913e-05,1.66872e-05,-3.68454e-06,0
-2.58732e-05,1.20685e-05,3.20863e-06,3.35872e-06,1.0416e-05,-1.14508e-05,1.57408e-05,-3.49116e-06,0
-2.63295e-05,1.35684e-05,3.36103e-06,3.5704e-06,1.16414e-05,-1.16615e-05,1.46087e-05,-5.22223e-06,0
-2.65451e-05,1.23833e-05,3.66781e-06,3.99474e-06,1.13249e-05,-1.12734e-05,1.25261e-05,-4.28252e-06,0
-2.67996e-05,1.21411e-05,3.71937e-06,2.57304e-06,1.0434e-05,-1.00332e-05,1.12868e-05,-1.05257e-07,0
-2.64893e-05,1.42615e-05,5.60048e-06,2.50071e-07,1.09339e-05,-8.70347e-06,1.16498e-05,2.8796e-06,0
-2.62453e-05,1.59244e-05,6.63514e-06,-7.21549e-07,1.0532e-05,-7.78808e-06,1.07417e-05,3.00477e-06,0
-2.73192e-05,1.41513e-05,5.42769e-06,-2.38686e-06,5.86463e-06,-7.82249e-06,1.04723e-05,1.72655e-06,0
-2.78567e-05,9.18356e-06,5.00901e-06,-6.14151e-06,1.00522e-06,-7.93118e-06,1.11456e-05,1.67666e-06,0
-2.72452e-05,5.73613e-06,4.94852e-06,-7.06686e-06,2.76096e-07,-8.08756e-06,1.21819e-05,3.34278e-06,0
-2.69726e-05,4.65402e-06,3.61281e-06,-3.93927e-06,2.16443e-06,-9.39836e-06,1.37224e-05,4.20453e-06,0
-2.64221e-05,2.56968e-06,1.28035e-06,-1.28738e-06,3.96165e-06,-1.04273e-05,1.35942e-05,4.55548e-06,0
-2.65258e-05,-3.5959e-07,2.37606e-07,-1.57966e-06,3.42202e-06,-1.03438e-05,1.25703e-05,3.75224e-06,0
-2.81183e-05,-3.35847e-06,1.82389e-06,-7.27873e-07,2.70805e-06,-1.12975e-05,1.10031e-05,9.23942e-07,0
-2.97835e-05,-4.49319e-06,4.24716e-06,2.24109e-06,3.24456e-06,-1.24496e-05,9.41859e-06,-8.98644e-07,0
-3.16516e-05,-3.80526e-06,4.57156e-06,2.55327e-06,5.97347e-06,-1.08167e-05,9.19032e-06,-1.63696e-06,0
-3.24706e-05,-1.82281e-06,3.72001e-06,-1.33709e-06,8.60404e-06,-9.10514e-06,1.08297e-05,-8.50734e-07,0
-3.17232e-05,7.84514e-07,2.40593e-06,-6.27193e-06,7.52454e-06,-1.04633e-05,1.49185e-05,6.99773e-07,0
-3.03053e-05,2.17284e-06,5.39186e-07,-8.02911e-06,4.64836e-06,-1.24858e-05,1.81613e-05,1.91536e-06,0
-3.02244e-05,2.30116e-06,-1.0926e-06,-6.75347e-06,3.55128e-06,-1.22461e-05,1.8048e-05,3.58328e-06,0
-3.09772e-05,1.93999e-06,-1.07799e-06,-3.8701e-06,4.46004e-06,-1.05314e-05,1.4251e-05,5.4842e-06,0
-3.01149e-05,1.91805e-06,-5.51682e-07,-2.08793e-06,6.53948e-06,-9.46082e-06,7.64268e-06,6.5834e-06,0
-2.84977e-05,1.0663e-06,-1.58494e-06,-1.50054e-06,1.05933e-05,-8.17568e-06,1.92291e-06,7.23118e-06,0
-2.85989e-05,2.40623e-07,-3.77355e-06,4.97702e-07,1.72801e-05,-6.13734e-06,8.18096e-07,7.42666e-06,0
-3.06723e-05,-6.91657e-07,-4.94589e-06,4.90579e-06,2.4633e-05,-5.48034e-06,4.52289e-06,6.64008e-06,0
-3.2215e-05,-2.76529e-06,-5.81228e-06,1.00088e-05,2.83028e-05,-6.86243e-06,9.43877e-06,5.60899e-06,0
-3.27731e-05,-5.10113e-06,-8.61879e-06,1.30724e-05,2.63741e-05,-7.37531e-06,1.38052e-05,4.04634e-06,0
-3.16077e-05,-5.23519e-06,-1.18256e-05,1.24429e-05,2.02968e-05,-5.95398e-06,1.80411e-05,3.08013e-06,0
-2.99112e-05,-4.01192e-06,-1.24234e-05,9.46227e-06,1.47756e-05,-3.6665e-06,2.20826e-05,3.77594e-06,0
-3.05162e-05,-4.21491e-06,-1.07075e-05,5.47851e-06,1.36279e-05,-7.31021e-07,2.29589e-05,4.5974e-06,0
-3.22421e-05,-5.68803e-06,-9.76548e-06,2.26979e-06,1.50885e-05,2.71821e-07,1.9438e-05,3.36942e-06,0
-3.19227e-05,-5.43413e-06,-1.07485e-05,1.2205e-06,1.69083e-05,-3.61122e-07,1.63535e-05,2.74265e-06,0
-2.93775e-05,-2.00825e-06,-1.13185e-05,4.08259e-08,1.87954e-05,-1.41177e-06,1.73165e-05,4.72035e-06,0
-2.77114e-05,1.91321e-06,-9.47383e-06,-2.4368e-06,1.91055e-05,-3.59904e-06,1.85279e-05,6.47141e-06,0
-2.87403e-05,3.95828e-06,-8.43831e-06,-3.47433e-06,1.91105e-05,-5.26275e-06,1.78796e-05,6.30291e-06,0
-3.06396e-05,4.97676e-06,-9.29496e-06,-5.04768e-06,1.93071e-05,-5.38977e-06,1.6915e-05,5.18407e-06,0
-3.02287e-05,7.60789e-06,-9.98259e-06,-9.751e-06,1.91377e-05,-5.68003e-06,1.70944e-05,4.88227e-06,0
-2.9272e-05,1.18347e-05,-1.09805e-05,-1.423e-05,2.0293e-05,-7.64853e-06,1.82843e-05,5.01533e-06,0
-3.03569e-05,1.48752e-05,-1.14972e-05,-1.69143e-05,1.99478e-05,-8.93702e-06,1.93897e-05,4.04474e-06,0
-3.15317e-05,1.38202e-05,-1.11619e-05,-1.73333e-05,1.63014e-05,-9.43997e-06,2.15178e-05,4.16455e-06,0
-3.21268e-05,1.07473e-05,-1.08889e-05,-1.58648e-05,1.19256e-05,-9.49727e-06,2.26696e-05,5.19668e-06,0
-3.1472e-05,9.74653e-06,-1.06448e-05,-1.21625e-05,9.99157e-06,-9.81723e-06,2.27062e-05,4.69283e-06,0
-3.01725e-05,9.64985e-06,-9.87422e-06,-8.12465e-06,1.01021e-05,-1.10821e-05,2.26004e-05,4.1717e-06,0
-2.9522e-05,9.31045e-06,-9.45934e-06,-4.85027e-06,9.50713e-06,-1.21317e-05,2.15672e-05,6.16883e-06,0
-3.00134e-05,9.53292e-06,-1.07324e-05,-4.07023e-06,8.47618e-06,-1.26989e-05,1.92139e-05,8.32024e-06,0
-3.13164e-05,1.04058e-05,-1.29794e-05,-4.19538e-06,1.08694e-05,-1.28672e-05,1.60927e-05,7.3246e-06,0
-3.36296e-05,1.09246e-05,-1.46651e-05,-1.37171e-06,1.84171e-05,-1.33131e-05,1.37971e-05,5.57213e-06,0
-3.58877e-05,1.02842e-05,-1.54853e-05,4.31801e-06,2.64923e-05,-1.35632e-05,1.25417e-05,5.64621e-06,0
-3.64882e-05,8.98127e-06,-1.60626e-05,8.03355e-06,2.87213e-05,-1.39571e-05,1.16386e-05,6.53384e-06,0
-3.58661e-05,9.01029e-06,-1.57003e-05,5.26677e-06,2.57586e-05,-1.44803e-05,1.0811e-05,5.89737e-06,0
-3.47031e-05,1.19973e-05,-1.46173e-05,-1.01693e-06,2.25925e-05,-1.44124e-05,1.02302e-05,3.94556e-06,0
-3.36923e-05,1.59072e-05,-1.43155e-05,-6.5837e-06,1.96839e-05,-1.41108e-05,8.82861e-06,2.07105e-06,0
-3.34855e-05,1.82681e-05,-1.33825e-05,-1.0347e-05,1.53836e-05,-1.42379e-05,7.78558e-06,9.79285e-07,0
-3.51595e-05,1.88313e-05,-1.02337e-05,-1.46186e-05,1.03426e-05,-1.3841e-05,9.73383e-06,3.09009e-07,0
-3.57887e-05,2.01531e-05,-8.02328e-06,-1.68475e-05,7.58439e-06,-1.24883e-05,1.30784e-05,-5.86247e-07,0
-3.53905e-05,2.06539e-05,-9.79377e-06,-6.82741e-06,7.31259e-06,-1.11608e-05,1.52199e-05,-1.75325e-06,0
-3.52512e-05,1.83379e-05,-1.42483e-05,1.75745e-05,8.17001e-06,-1.20236e-05,1.8207e-05,-1.68853e-06,0
-3.35793e-05,1.47904e-05,-1.50861e-05,3.95482e-05,9.08113e-06,-1.24883e-05,2.11433e-05,-8.8123e-07,0
-3.16192e-05,1.14749e-05,-1.30285e-05,4.62573e-05,1.15787e-05,-8.79613e-06,2.11574e-05,-6.59256e-07,0
-3.06826e-05,9.41654e-06,-1.21587e-05,3.66272e-05,1.56329e-05,-3.93902e-06,1.97497e-05,4.15627e-07,0
-3.13646e-05,7.90201e-06,-1.29452e-05,2.5334e-05,1.68612e-05,-3.71404e-06,1.84911e-05,7.40482e-07,0
-3.44938e-05,6.74092e-06,-1.48621e-05,2.69e-05,1.47927e-05,-7.46731e-06,1.83186e-05,-1.82334e-06,0
-3.57998e-05,6.35729e-06,-1.55343e-05,3.14496e-05,1.09944e-05,-8.86073e-06,1.7589e-05,-4.03111e-06,0
-3.44714e-05,7.2245e-06,-1.41005e-05,2.82439e-05,8.73915e-06,-8.01489e-06,1.46892e-05,-4.05462e-06,0
-3.40032e-05,7.64848e-06,-1.07606e-05,1.7825e-05,8.19037e-06,-6.54577e-06,1.23312e-05,-2.44989e-06,0
-3.40179e-05,6.41282e-06,-8.8384e-06,3.22546e-06,8.19868e-06,-5.0928e-06,1.3285e-05,-2.19167e-08,0
-3.3454e-05,5.20425e-06,-9.20429e-06,-1.40424e-05,9.30382e-06,-3.56647e-06,1.62116e-05,2.25077e-06,0
-3.27415e-05,4.66166e-06,-9.79089e-06,-3.04624e-05,9.14543e-06,-2.56097e-06,1.60767e-05,3.08832e-06,0
-3.23696e-05,3.70656e-06,-9.98931e-06,-4.14673e-05,9.43015e-06,-3.49046e-06,1.43388e-05,2.41616e-06,0
-3.29234e-05,1.59229e-06,-8.87324e-06,-4.16795e-05,1.14215e-05,-4.90022e-06,1.48411e-05,1.59678e-06,0
-3.37492e-05,-1.77119e-07,-6.85117e-06,-3.34679e-05,1.34244e-05,-6.61212e-06,1.61876e-05,6.54092e-07,0
-3.31458e-05,-2.08133e-07,-6.59377e-06,-3.23406e-05,1.35025e-05,-8.56937e-06,1.57995e-05,1.09309e-07,0
-3.17958e-05,9.67182e-07,-7.20716e-06,-4.71282e-05,1.25279e-05,-9.62846e-06,1.42518e-05,5.44269e-08,0
-3.17658e-05,2.88701e-06,-6.89301e-06,-6.73872e-05,1.25404e-05,-9.80864e-06,1.41603e-05,8.38538e-07,0
-3.23299e-05,4.47542e-06,-7.18891e-06,-7.78428e-05,1.22757e-05,-9.95224e-06,1.52335e-05,1.97598e-06,0
-3.19532e-05,4.02368e-06,-9.45978e-06,-7.4329e-05,1.04559e-05,-1.04652e-05,1.58585e-05,1.42902e-06,0
-3.17341e-05,3.30036e-06,-1.17231e-05,-6.15212e-05,8.50535e-06,-1.14867e-05,1.48449e-05,-7.88005e-07,0
-3.22934e-05,5.08154e-06,-1.1803e-05,-4.38962e-05,8.43753e-06,-1.23796e-05,1.29357e-05,-1.4983e-06,0
-3.1995e-05,8.19448e-06,-1.04142e-05,-2.27883e-05,9.05186e-06,-1.27675e-05,1.19119e-05,5.79946e-08,0
-3.06257e-05,9.5934e-06,-8.97364e-06,-8.17023e-08,9.54509e-06,-1.33238e-05,1.21774e-05,2.51499e-06,0
-3.12668e-05,8.35005e-06,-7.37403e-06,2.06773e-05,1.06593e-05,-1.48534e-05,1.23423e-05,4.70555e-06,0
-3.28602e-05,6.62152e-06,-6.12786e-06,3.20167e-05,1.2199e-05,-1.60639e-05,1.21557e-05,5.92962e-06,0
-3.216e-05,6.39672e-06,-5.89939e-06,2.37559e-05,1.39449e-05,-1.49579e-05,1.10474e-05,5.94679e-06,0
-2.91759e-05,7.05486e-06,-5.53521e-06,-1.30931e-07,1.58229e-05,-1.36306e-05,8.82399e-06,5.68603e-06,0
-2.71149e-05,7.41967e-06,-5.52813e-06,-1.91767e-05,1.55776e-05,-1.35477e-05,5.62029e-06,6.0528e-06,0
-2.76932e-05,6.32023e-06,-5.40281e-06,-2.18188e-05,1.32485e-05,-1.33358e-05,3.97244e-06,6.33405e-06,0
-2.841e-05,5.95739e-06,-6.02518e-06,-9.82087e-06,1.15745e-05,-1.34739e-05,5.16957e-06,6.82211e-06,0
-2.83333e-05,8.11912e-06,-7.54645e-06,5.5129e-06,1.15798e-05,-1.44807e-05,8.29365e-06,5.08902e-06,0
-2.82641e-05,1.05642e-05,-7.80471e-06,1.46246e-05,1.01986e-05,-1.46677e-05,9.88671e-06,1.38768e-06,0
-2.63395e-05,1.38386e-05,-6.92794e-06,1.94033e-05,8.15611e-06,-1.40626e-05,9.19066e-06,5.66836e-08,0
-2.40292e-05,1.67004e-05,-5.83444e-06,2.15621e-05,7.87966e-06,-1.23882e-05,8.26637e-06,-1.34845e-06,0
-2.48942e-05,1.71398e-05,-4.14027e-06,2.09414e-05,9.00689e-06,-9.99628e-06,5.6196e-06,-3.47861e-06,0
-2.59902e-05,1.4958e-05,-1.58947e-06,1.51217e-05,1.07751e-05,-9.6675e-06,3.60616e-06,-3.19539e-06,0
-2.4919e-05,1.25494e-05,1.25984e-06,6.81516e-06,1.22682e-05,-1.15e-05,2.96623e-06,-2.29092e-06,0
-2.31434e-05,1.21215e-05,3.51164e-06,5.08079e-07,1.27318e-05,-1.31885e-05,2.95842e-06,-2.29755e-06,0
-2.17131e-05,1.28028e-05,3.65835e-06,-4.09464e-06,1.05916e-05,-1.28522e-05,2.64756e-06,-2.72642e-06,0
-2.16688e-05,1.39014e-05,2.45787e-06,-8.07188e-06,7.46514e-06,-1.19551e-05,2.08222e-06,-1.98775e-06,0
-2.44335e-05,1.51598e-05,2.16814e-06,-1.24909e-05,3.8861e-06,-1.22542e-05,1.83505e-06,-1.53952e-06,0
-2.82839e-05,1.68058e-05,3.74392e-06,-1.64623e-05,3.78233e-09,-1.24503e-05,2.23843e-06,-2.5883e-06,0
-2.91179e-05,1.79842e-05,5.83164e-06,-1.93585e-05,-2.51898e-06,-1.1309e-05,-3.72974e-07,-3.08612e-06,0
-2.76051e-05,1.81765e-05,5.85119e-06,-2.11776e-05,-2.30757e-06,-9.99372e-06,-8.11699e-06,-2.71917e-06,0
-2.63861e-05,1.83823e-05,3.49732e-06,-2.15186e-05,-1.14309e-07,-9.44762e-06,-1.51841e-05,-2.30411e-06,0
-2.69845e-05,1.8648e-05,-9.58076e-08,-2.01194e-05,2.37009e-06,-9.18649e-06,-1.62108e-05,-3.22582e-06,0
-2.84046e-05,1.66279e-05,-5.15121e-06,-1.73925e-05,3.52659e-06,-8.60848e-06,-1.11156e-05,-4.86036e-06,0
-2.86361e-05,1.34079e-05,-1.01277e-05,-1.46467e-05,2.95559e-06,-7.0995e-06,-3.54631e-06,-5.42383e-06,0
-2.87009e-05,1.19657e-05,-1.24659e-05,-1.27954e-05,2.75391e-06,-5.37057e-06,5.12821e-06,-4.89649e-06,0
-3.00394e-05,1.10841e-05,-1.25799e-05,-9.86412e-06,5.94189e-06,-4.41575e-06,1.50051e-05,-4.29422e-06,0
-3.19373e-05,9.33272e-06,-1.20909e-05,-4.72276e-06,1.37517e-05,-3.75508e-06,2.4847e-05,-3.70154e-06,0
-3.25678e-05,6.45651e-06,-1.27035e-05,7.5727e-07,2.12967e-05,-3.07669e-06,3.06849e-05,-2.96922e-06,0
-3.1638e-05,3.47185e-06,-1.52553e-05,2.80537e-06,2.47155e-05,-2.71364e-06,3.28615e-05,-3.17335e-06,0
-2.98942e-05,1.322e-06,-1.82054e-05,-3.19333e-07,2.58977e-05,-1.01953e-06,3.47423e-05,-4.9366e-06,0
-2.86032e-05,-4.72453e-09,-1.98579e-05,-3.38651e-06,2.57852e-05,8.04e-07,3.65686e-05,-6.12409e-06,0
-2.81793e-05,2.22295e-06,-1.91769e-05,-2.74401e-06,2.52975e-05,1.28912e-07,3.63173e-05,-5.08643e-06,0
-2.78045e-05,6.48275e-06,-1.63363e-05,-4.22388e-07,2.62035e-05,-9.29335e-07,3.28974e-05,-2.78077e-06,0
-2.81345e-05,9.56606e-06,-1.43172e-05,4.24913e-06,2.80514e-05,-1.19661e-06,2.84369e-05,-9.87108e-07,0
-2.87781e-05,1.33617e-05,-1.37765e-05,1.00739e-05,2.77866e-05,-2.16914e-06,2.55403e-05,3.5641e-07,0
-2.97164e-05,1.67318e-05,-1.53285e-05,1.22652e-05,2.51507e-05,-4.63653e-06,2.47176e-05,1.05706e-06,0
-3.032e-05,1.66676e-05,-1.68066e-05,1.20274e-05,2.3647e-05,-7.00126e-06,2.30627e-05,3.50432e-07,0
-2.90832e-05,1.51352e-05,-1.44031e-05,1.02352e-05,2.22779e-05,-8.98308e-06,1.81808e-05,-5.27316e-07,0
-2.87911e-05,1.3674e-05,-1.19945e-05,6.10518e-06,1.99159e-05,-1.08436e-05,1.36846e-05,-7.95704e-07,0
-2.86845e-05,1.28058e-05,-9.86077e-06,-2.18073e-07,1.78256e-05,-1.2575e-05,1.21509e-05,-6.20777e-09,0
-2.88918e-05,1.25966e-05,-7.524e-06,-8.62686e-06,1.71823e-05,-1.31495e-05,1.14196e-05,1.60818e-06,0
-2.98935e-05,1.14791e-05,-6.05729e-06,-1.36492e-05,1.58523e-05,-1.24758e-05,1.03218e-05,3.14952e-06,0
-3.08188e-05,8.45675e-06,-6.63279e-06,-1.03075e-05,1.35519e-05,-1.21232e-05,1.01356e-05,2.81456e-06,0
-3.12339e-05,5.66717e-06,-8.27728e-06,-1.2307e-06,1.30225e-05,-1.14707e-05,1.15098e-05,1.18651e-06,0
-3.07532e-05,5.36232e-06,-8.0068e-06,3.54768e-06,1.47012e-05,-1.08713e-05,1.27898e-05,-3.63661e-07,0
-2.92314e-05,5.48345e-06,-5.89815e-06,-1.51566e-06,1.67255e-05,-9.99231e-06,1.28436e-05,-5.90264e-07,0
-2.78794e-05,4.75225e-06,-3.2572e-06,-9.58828e-06,1.75239e-05,-8.33664e-06,1.22599e-05,1.11908e-06,0
-2.82769e-05,5.26822e-06,-1.74172e-06,-1.35452e-05,1.74197e-05,-6.43465e-06,1.188e-05,2.89923e-06,0
-2.90556e-05,8.4614e-06,-1.57098e-06,-1.28073e-05,1.56101e-05,-5.66443e-06,1.05135e-05,2.9666e-06,0
-2.89802e-05,1.06154e-05,-2.64029e-06,-1.13629e-05,1.36502e-05,-6.05209e-06,8.5661e-06,2.64476e-06,0
-2.83001e-05,8.68114e-06,-4.0964e-06,-1.21445e-05,1.27887e-05,-6.65857e-06,8.12364e-06,3.25962e-06,0
-2.74331e-05,5.87279e-06,-5.80581e-06,-1.20431e-05,1.18182e-05,-6.91384e-06,1.01651e-05,2.71461e-06,0
-2.57893e-05,6.83372e-06,-7.30872e-06,-5.59859e-06,1.02746e-05,-6.66926e-06,1.29758e-05,1.01541e-06,0
-2.64746e-05,9.79613e-06,-9.35742e-06,4.92463e-06,9.2577e-06,-6.65755e-06,1.40739e-05,6.42431e-07,0
-3.06824e-05,1.24832e-05,-1.06664e-05,1.36909e-05,1.02749e-05,-6.26681e-06,1.25616e-05,2.72939e-06,0
-3.43589e-05,1.42957e-05,-9.52342e-06,1.92996e-05,1.19252e-05,-6.81434e-06,1.00664e-05,6.19379e-06,0
-3.37238e-05,1.48743e-05,-7.36578e-06,1.97863e-05,1.11781e-05,-1.00235e-05,9.83045e-06,9.76792e-06,0
-3.14078e-05,1.47245e-05,-4.49599e-06,1.64926e-05,1.01646e-05,-1.19807e-05,1.05817e-05,1.12178e-05,0
-3.09228e-05,1.31692e-05,-2.47025e-06,1.10521e-05,9.55821e-06,-1.20125e-05,1.05705e-05,8.74151e-06,0
-3.11501e-05,1.28647e-05,-2.68298e-06,-1.14228e-07,7.49182e-06,-1.33752e-05,1.05759e-05,5.35079e-06,0
-3.03235e-05,1.55081e-05,-7.23682e-07,-1.43903e-05,7.52657e-06,-1.41661e-05,1.09699e-05,5.07823e-06,0
-3.03988e-05,1.77164e-05,3.23144e-06,-2.29659e-05,9.66658e-06,-1.26394e-05,1.24098e-05,6.1942e-06,0
-3.15023e-05,1.99496e-05,9.65481e-06,-2.28931e-05,9.34849e-06,-1.13452e-05,1.20636e-05,5.9504e-06,0
-3.26968e-05,2.19583e-05,2.27617e-05,-1.69081e-05,8.10432e-06,-1.20923e-05,1.00452e-05,3.72786e-06,0
-3.30618e-05,2.39902e-05,4.13272e-05,-9.7629e-06,8.00528e-06,-1.37366e-05,1.06417e-05,1.83901e-06,0
-3.09867e-05,2.73194e-05,6.10334e-05,-6.70988e-06,7.31725e-06,-1.52071e-05,1.29945e-05,2.16405e-06,0
-2.89073e-05,2.93281e-05,7.14081e-05,-7.25548e-06,5.78455e-06,-1.54364e-05,1.55715e-05,2.1718e-06,0
-2.83559e-05,3.05225e-05,6.26574e-05,-7.74881e-06,5.35179e-06,-1.45578e-05,1.68035e-05,4.16332e-07,0
-2.83802e-05,3.0323e-05,3.40554e-05,-8.70416e-06,5.68705e-06,-1.38922e-05,1.67392e-05,-1.74446e-06,0
-2.83509e-05,2.79662e-05,-6.85044e-06,-9.04541e-06,6.43868e-06,-1.38568e-05,1.59449e-05,-2.6317e-06,0
-2.9031e-05,2.44003e-05,-4.93872e-05,-5.95747e-06,7.93904e-06,-1.38493e-05,1.40909e-05,-7.93653e-07,0
-3.00128e-05,2.35164e-05,-8.27938e-05,-1.39833e-06,7.98796e-06,-1.30029e-05,1.286e-05,1.64602e-06,0
-3.09529e-05,2.5976e-05,-0.000100434,2.58867e-06,7.48829e-06,-1.15907e-05,1.29562e-05,1.1897e-06,0
-3.1962e-05,2.83318e-05,-0.000102224,4.5025e-06,8.18341e-06,-1.10522e-05,1.31356e-05,-7.39359e-07,0
-3.22208e-05,2.87557e-05,-9.25854e-05,3.70082e-06,9.63692e-06,-1.09875e-05,1.25606e-05,-1.53251e-06,0
-3.18445e-05,2.88143e-05,-7.72999e-05,9.22138e-07,9.99257e-06,-1.0054e-05,1.19554e-05,-1.60182e-06,0
-3.19294e-05,2.9134e-05,-6.07605e-05,-3.58751e-06,8.59886e-06,-8.79897e-06,1.23402e-05,-1.7972e-06,0
-3.23484e-05,2.854e-05,-4.59879e-05,-8.9605e-06,6.46698e-06,-7.78463e-06,1.35896e-05,-1.27673e-06,0
-3.18675e-05,2.73932e-05,-3.41807e-05,-1.21271e-05,5.05844e-06,-6.10336e-06,1.46229e-05,1.71361e-07,0
-2.972e-05,2.54707e-05,-2.42605e-05,-1.12312e-05,5.11692e-06,-4.99309e-06,1.68238e-05,1.46314e-06,0
-2.7972e-05,2.30397e-05,-1.54765e-05,-9.40947e-06,6.31405e-06,-4.97784e-06,2.1353e-05,7.39406e-07,0
-2.88916e-05,2.12518e-05,-8.11186e-06,-9.86273e-06,7.27014e-06,-4.61303e-06,2.38142e-05,-1.18639e-06,0
-3.11219e-05,2.19733e-05,-3.14195e-06,-1.23392e-05,6.85189e-06,-4.96173e-06,2.23625e-05,-2.02947e-06,0
-3.16636e-05,2.47722e-05,-7.83739e-07,-1.3762e-05,6.01726e-06,-6.15926e-06,2.12293e-05,-1.08588e-06,0
-3.051e-05,2.67101e-05,1.09828e-06,-1.37032e-05,6.54189e-06,-7.01626e-06,2.02368e-05,1.09126e-07,0
-2.99794e-05,2.60807e-05,3.02562e-06,-1.48481e-05,7.00367e-06,-6.92974e-06,1.70886e-05,1.70097e-06,0
-2.95484e-05,2.41813e-05,3.86748e-06,-1.57247e-05,7.19419e-06,-7.38827e-06,1.26873e-05,4.04062e-06,0
-2.88427e-05,2.26432e-05,3.59318e-06,-1.40731e-05,9.51047e-06,-9.92348e-06,1.05825e-05,5.64178e-06,0
-2.95368e-05,2.29563e-05,2.08902e-06,-9.78301e-06,1.24075e-05,-1.2335e-05,1.08831e-05,7.00935e-06,0
-3.08863e-05,2.35013e-05,-9.35202e-08,-5.70253e-06,1.53035e-05,-1.17863e-05,1.01787e-05,7.29092e-06,0
-3.23638e-05,2.39452e-05,-2.3434e-06,-5.41148e-06,1.89271e-05,-1.00776e-05,8.39587e-06,6.69004e-06,0
-3.43699e-05,2.34566e-05,-6.86845e-06,-6.04719e-06,2.23385e-05,-9.14896e-06,7.33013e-06,5.64003e-06,0
-3.56395e-05,2.14736e-05,-1.12469e-05,-8.01701e-06,2.40979e-05,-9.48428e-06,8.31185e-06,5.52224e-06,0
-3.44892e-05,1.99386e-05,-1.23539e-05,-1.10056e-05,2.38261e-05,-1.04212e-05,9.1992e-06,6.211e-06,0
-3.21031e-05,2.01216e-05,-1.118e-05,-1.22035e-05,2.20865e-05,-1.05298e-05,7.92358e-06,6.51315e-06,0
-3.06372e-05,2.00752e-05,-8.30292e-06,-1.14499e-05,2.18285e-05,-1.15169e-05,5.25438e-06,6.61035e-06,0
-3.14195e-05,1.93816e-05,-6.15374e-06,-9.4453e-06,2.34268e-05,-1.24673e-05,2.67413e-06,5.2591e-06,0
-3.32577e-05,1.96939e-05,-5.86315e-06,-9.47772e-06,2.48153e-05,-1.11842e-05,1.75582e-06,4.06625e-06,0
-3.39716e-05,1.9922e-05,-6.44294e-06,-1.09387e-05,2.47618e-05,-9.04122e-06,2.38383e-06,3.88513e-06,0
-3.32942e-05,1.93836e-05,-6.21849e-06,-1.00962e-05,2.29888e-05,-8.29776e-06,3.86618e-06,4.29758e-06,0
-3.18612e-05,1.7848e-05,-5.02323e-06,-7.24204e-06,2.09093e-05,-8.06354e-06,6.06978e-06,3.28586e-06,0
-3.17007e-05,1.76167e-05,-3.19025e-06,-7.16771e-06,1.90412e-05,-7.81339e-06,7.60929e-06,1.03356e-06,0
-3.28547e-05,1.99697e-05,-1.03447e-06,-1.03131e-05,1.66769e-05,-8.80058e-06,4.26231e-06,-1.27299e-06,0
-3.37048e-05,2.37286e-05,-4.64248e-07,-1.29538e-05,1.27716e-05,-1.08675e-05,-5.55262e-06,-3.11201e-06,0
-3.41481e-05,2.60066e-05,-1.38974e-06,-1.38376e-05,9.25307e-06,-1.30758e-05,-1.48962e-05,-3.71793e-06,0
-3.41142e-05,2.67617e-05,-2.48082e-06,-1.42186e-05,7.97961e-06,-1.32253e-05,-1.74962e-05,-4.71217e-06,0
-3.31319e-05,2.67202e-05,-3.60468e-06,-1.57545e-05,8.54046e-06,-1.0944e-05,-1.37776e-05,-6.7662e-06,0
-3.20268e-05,2.57358e-05,-4.30018e-06,-1.73704e-05,1.01641e-05,-1.03782e-05,-6.11559e-06,-8.11065e-06,0
-3.12709e-05,2.52462e-05,-3.78993e-06,-1.4962e-05,1.20245e-05,-1.30967e-05,3.78685e-06,-6.99865e-06,0
-3.15292e-05,2.60341e-05,-2.17607e-06,-6.82323e-06,1.28212e-05,-1.47297e-05,1.57475e-05,-5.79058e-06,0
-3.16367e-05,2.65481e-05,-4.83048e-07,5.13165e-06,1.41861e-05,-1.32221e-05,2.65219e-05,-6.97395e-06,0
-3.06525e-05,2.56175e-05,3.52271e-07,1.61585e-05,1.76949e-05,-1.03967e-05,3.22038e-05,-7.58569e-06,0
-2.97248e-05,2.40956e-05,-2.70531e-07,2.39838e-05,2.15962e-05,-8.62074e-06,3.40382e-05,-5.44222e-06,0
-2.98272e-05,2.59687e-05,-1.64362e-06,2.82397e-05,2.42172e-05,-8.51062e-06,3.38316e-05,-3.36907e-06,0
-3.00548e-05,2.92057e-05,-1.84432e-06,2.54436e-05,2.23325e-05,-8.86357e-06,3.15542e-05,-3.83528e-06,0
-2.97728e-05,3.04171e-05,-1.83606e-06,1.60511e-05,1.71563e-05,-8.40402e-06,2.77133e-05,-5.70981e-06,0
-2.92019e-05,2.96424e-05,-1.61721e-06,3.69079e-06,1.25653e-05,-7.27958e-06,2.50584e-05,-5.64988e-06,0
-2.75781e-05,2.73453e-05,-7.58374e-07,-6.39828e-06,9.098e-06,-5.94514e-06,2.57893e-05,-3.15035e-06,0
-2.5876e-05,2.60481e-05,-6.7373e-07,-1.333e-05,6.95062e-06,-4.32137e-06,2.67768e-05,5.44275e-07,0
-2.58102e-05,2.50522e-05,-2.39288e-06,-2.0198e-05,4.48463e-06,-3.79575e-06,2.6245e-05,2.68699e-06,0
-2.64819e-05,2.56793e-05,-4.43153e-06,-2.3545e-05,2.76876e-06,-4.72246e-06,2.53251e-05,2.20041e-06,0
-2.77354e-05,2.60437e-05,-5.33276e-06,-1.97011e-05,3.6333e-06,-5.43781e-06,2.28186e-05,-4.24731e-08,0
-2.96401e-05,2.56173e-05,-5.3787e-06,-8.9345e-06,5.31955e-06,-6.43431e-06,1.99482e-05,-1.42322e-06,0
-3.02806e-05,2.50164e-05,-5.51477e-06,4.66045e-06,6.67507e-06,-7.80743e-06,1.77199e-05,-1.13397e-06,0
-3.02213e-05,2.44703e-05,-6.40492e-06,1.60819e-05,7.30262e-06,-8.76208e-06,1.58854e-05,-3.29634e-08,0
-2.98254e-05,2.39223e-05,-6.32773e-06,1.97785e-05,7.15859e-06,-1.04967e-05,1.46906e-05,1.00486e-07,0
-2.89554e-05,2.18721e-05,-5.65457e-06,1.50352e-05,7.80054e-06,-1.22239e-05,1.41672e-05,-6.38871e-07,0
-2.81088e-05,1.86746e-05,-5.85368e-06,9.08074e-06,1.12109e-05,-1.1674e-05,1.23135e-05,-7.42657e-08,0
-2.72212e-05,1.60957e-05,-5.76228e-06,6.94087e-06,1.64917e-05,-9.45485e-06,9.18862e-06,5.6806e-07,0
-2.59469e-05,1.5809e-05,-4.15745e-06,6.09553e-06,2.20933e-05,-8.96818e-06,7.19161e-06,1.21088e-06,0
-2.52956e-05,1.58114e-05,-2.58237e-06,1.29278e-06,2.65397e-05,-9.56229e-06,7.12289e-06,2.0169e-06,0
-2.6089e-05,1.36481e-05,-2.11036e-06,-5.51493e-06,2.67429e-05,-9.47638e-06,8.34051e-06,2.83862e-06,0
-2.69997e-05,1.02429e-05,-2.47116e-06,-9.11263e-06,2.3195e-05,-9.17939e-06,9.52118e-06,3.05793e-06,0
-2.67615e-05,9.22698e-06,-2.23101e-06,-8.06567e-06,2.00167e-05,-8.40238e-06,9.80477e-06,2.70941e-06,0
-2.57346e-05,9.9521e-06,-1.87406e-06,-5.38742e-06,1.82065e-05,-6.47615e-06,8.56453e-06,1.83234e-06,0
-2.55449e-05,1.05331e-05,-2.36859e-06,-3.37176e-06,1.73996e-05,-4.96517e-06,6.21195e-06,1.55743e-06,0
-2.69976e-05,1.04213e-05,-2.54504e-06,-1.33576e-06,1.79249e-05,-5.70092e-06,4.1595e-06,1.54795e-06,0
-2.81618e-05,1.02476e-05,-2.87693e-06,-3.17674e-07,1.93816e-05,-7.61841e-06,3.89876e-06,-2.11137e-07,0
-2.80212e-05,1.04184e-05,-3.51784e-06,-1.24107e-06,1.87981e-05,-1.0292e-05,3.87534e-06,-2.49787e-06,0
-2.72954e-05,1.08427e-05,-4.42247e-06,-2.91658e-06,1.47788e-05,-1.08042e-05,4.43847e-06,-3.28736e-06,0
-2.57396e-05,1.24695e-05,-4.75859e-06,-4.35722e-06,9.75386e-06,-8.61453e-06,6.66339e-06,-2.72125e-06,0
-2.41483e-05,1.40375e-05,-4.52045e-06,-3.45879e-06,5.65272e-06,-7.02706e-06,9.0635e-06,-5.21722e-07,0
-2.34308e-05,1.22073e-05,-4.54696e-06,-1.48782e-06,4.1007e-06,-7.83323e-06,1.03106e-05,1.68627e-06,0
-2.42748e-05,9.07306e-06,-3.9131e-06,-1.19993e-06,4.90674e-06,-1.07463e-05,1.0191e-05,3.6886e-06,0
-2.62395e-05,9.41151e-06,-4.88822e-06,-2.82683e-06,6.35969e-06,-1.17199e-05,9.75951e-06,5.07148e-06,0
-2.72049e-05,1.09891e-05,-9.01794e-06,-4.27653e-06,8.00395e-06,-9.44164e-06,1.08927e-05,4.48812e-06,0
-2.71435e-05,1.07872e-05,-1.18045e-05,-4.30279e-06,9.30555e-06,-7.34202e-06,1.16199e-05,3.08853e-06,0
-2.63987e-05,1.05455e-05,-1.18032e-05,-4.39353e-06,1.18883e-05,-7.28373e-06,1.24358e-05,1.81559e-06,0
-2.60596e-05,1.04102e-05,-1.14794e-05,-3.78086e-06,1.54966e-05,-8.17533e-06,1.26453e-05,1.81517e-06,0
-2.73315e-05,9.64892e-06,-1.20478e-05,-1.93055e-06,1.7413e-05,-8.02777e-06,1.2215e-05,2.20571e-06,0
-2.8487e-05,8.54345e-06,-1.28933e-05,1.42384e-07,1.9141e-05,-7.1613e-06,1.31404e-05,2.44406e-06,0
-2.91807e-05,6.87991e-06,-1.2827e-05,3.22314e-06,2.15973e-05,-7.38647e-06,1.38503e-05,2.4322e-06,0
-3.00278e-05,3.98277e-06,-1.21425e-05,5.9438e-06,2.35125e-05,-8.04041e-06,1.50944e-05,3.3405e-06,0
-2.98069e-05,6.07236e-07,-1.07965e-05,5.23642e-06,2.26649e-05,-7.79896e-06,1.67403e-05,5.51914e-06,0
-2.9188e-05,-1.3308e-06,-8.9697e-06,2.27558e-06,2.02877e-05,-7.42904e-06,1.7784e-05,7.25598e-06,0
-3.02025e-05,-2.54114e-06,-7.93494e-06,-3.53879e-07,1.80205e-05,-8.18068e-06,1.72718e-05,7.2721e-06,0
-3.19304e-05,-3.60373e-06,-9.29029e-06,-2.03132e-06,1.60154e-05,-8.92634e-06,1.73592e-05,5.67015e-06,0
-3.22786e-05,-3.88129e-06,-1.24696e-05,-4.35668e-06,1.3844e-05,-9.06884e-06,1.77563e-05,4.09054e-06,0
-3.16463e-05,-1.7694e-06,-1.45117e-05,-8.11045e-06,1.18979e-05,-9.73487e-06,1.61862e-05,3.71438e-06,0
-3.1999e-05,1.29143e-06,-1.297e-05,-1.33646e-05,1.12011e-05,-9.34978e-06,1.31363e-05,4.81737e-06,0
-3.29881e-05,3.07767e-06,-1.00449e-05,-1.6095e-05,1.0939e-05,-6.59001e-06,1.21126e-05,6.30354e-06,0
-3.27055e-05,2.85604e-06,-1.06922e-05,-1.37727e-05,1.06467e-05,-4.53888e-06,1.30534e-05,6.61313e-06,0
-3.0724e-05,7.73278e-07,-1.38429e-05,-1.20485e-05,8.56051e-06,-5.06899e-06,1.29387e-05,5.4552e-06,0
-2.95117e-05,-7.01331e-07,-1.47281e-05,-1.3228e-05,5.98022e-06,-6.15466e-06,1.08154e-05,3.91379e-06,0
-3.0572e-05,-7.92685e-08,-1.26974e-05,-1.39359e-05,5.47619e-06,-7.20427e-06,8.13933e-06,3.71314e-06,0
-3.24226e-05,2.26059e-06,-1.09607e-05,-1.38838e-05,5.79892e-06,-8.46771e-06,8.46198e-06,4.20868e-06,0
-3.31227e-05,4.95402e-06,-1.10153e-05,-1.33776e-05,6.37576e-06,-8.6373e-06,1.08687e-05,3.14543e-06,0
-3.32959e-05,7.04578e-06,-1.22243e-05,-1.26159e-05,6.4099e-06,-8.22403e-06,1.15266e-05,1.25683e-06,0
-3.29582e-05,8.67138e-06,-1.17866e-05,-1.17791e-05,7.10613e-06,-9.27811e-06,1.03978e-05,2.15462e-06,0
-3.1438e-05,1.02817e-05,-9.259e-06,-1.17115e-05,1.026e-05,-1.10149e-05,8.13246e-06,4.53684e-06,0
-3.0542e-05,1.21444e-05,-7.92981e-06,-1.18138e-05,1.58882e-05,-1.15546e-05,5.09561e-06,6.4169e-06,0
-3.0232e-05,1.22595e-05,-7.34004e-06,-1.1669e-05,2.12762e-05,-1.13317e-05,4.41014e-06,7.26931e-06,0
-3.07733e-05,1.05185e-05,-7.51984e-06,-1.37306e-05,2.0608e-05,-1.17848e-05,5.29609e-06,5.79113e-06,0
-3.09145e-05,8.66287e-06,-7.6899e-06,-1.65677e-05,1.59855e-05,-1.24889e-05,6.08387e-06,5.20538e-06,0
-3.0426e-05,6.94195e-06,-8.08404e-06,-1.68535e-05,1.20113e-05,-1.155e-05,7.33915e-06,7.18668e-06,0
-3.12006e-05,7.33395e-06,-1.00323e-05,-1.18797e-05,1.24454e-05,-8.5152e-06,8.9074e-06,8.6169e-06,0
-3.17494e-05,9.40557e-06,-1.11096e-05,-6.94182e-06,1.33501e-05,-6.11534e-06,9.23999e-06,8.39857e-06,0
-3.13604e-05,1.16548e-05,-1.09015e-05,-5.40757e-06,1.17889e-05,-5.75868e-06,8.24202e-06,8.07633e-06,0
-3.12107e-05,1.23659e-05,-1.07198e-05,-4.66909e-06,9.63194e-06,-5.83448e-06,7.00008e-06,8.18807e-06,0
-3.20788e-05,1.09944e-05,-1.21414e-05,-2.78578e-06,7.57889e-06,-6.14254e-06,6.49211e-06,8.8885e-06,0
-3.37426e-05,9.40751e-06,-1.53562e-05,8.76442e-08,6.61955e-06,-6.1995e-06,7.67362e-06,8.57937e-06,0
-3.5092e-05,9.27302e-06,-1.93953e-05,8.61086e-07,7.45676e-06,-5.94789e-06,8.37253e-06,7.02336e-06,0
-3.50548e-05,9.83658e-06,-2.16185e-05,-9.45901e-07,9.56336e-06,-6.47412e-06,6.71281e-06,5.05169e-06,0
-3.43881e-05,9.13062e-06,-1.97868e-05,-3.37732e-06,1.05038e-05,-8.77073e-06,3.68183e-06,3.25127e-06,0
-3.43223e-05,8.28055e-06,-1.65777e-05,-4.2737e-06,1.16589e-05,-1.03545e-05,1.83744e-06,2.62227e-06,0
-3.44356e-05,9.48777e-06,-1.55601e-05,-3.49201e-06,1.31674e-05,-9.77127e-06,2.54119e-06,2.55299e-06,0
-3.3751e-05,1.19406e-05,-1.52871e-05,-2.23699e-06,1.35623e-05,-9.56964e-06,4.40811e-06,1.78474e-06,0
-3.25526e-05,1.35152e-05,-1.37356e-05,-2.63135e-06,1.25235e-05,-1.04771e-05,6.22536e-06,6.52782e-07,0
-3.2214e-05,1.44393e-05,-1.19035e-05,-4.52079e-06,1.12657e-05,-1.04729e-05,9.61226e-06,-1.22302e-06,0
-3.29746e-05,1.56266e-05,-1.10591e-05,-5.20153e-06,9.93872e-06,-8.49442e-06,1.44762e-05,-3.12651e-06,0
-3.31825e-05,1.8145e-05,-1.09105e-05,-3.28311e-06,8.37378e-06,-6.20288e-06,1.63007e-05,-4.31033e-06,0
-3.34466e-05,1.95326e-05,-9.76231e-06,-2.93365e-06,5.22624e-06,-4.58706e-06,1.56686e-05,-4.91963e-06,0
-3.48863e-05,1.93276e-05,-9.41014e-06,-6.00976e-06,3.97707e-06,-4.42251e-06,1.61971e-05,-6.53992e-06,0
-3.4791e-05,2.01741e-05,-9.69156e-06,-1.00921e-05,6.60537e-06,-5.65831e-06,1.85812e-05,-9.23207e-06,0
-3.31762e-05,2.11041e-05,-8.37875e-06,-1.39696e-05,1.04042e-05,-6.86735e-06,2.1051e-05,-8.97361e-06,0
-3.24485e-05,2.02633e-05,-5.46361e-06,-1.51673e-05,1.20795e-05,-7.55532e-06,2.05757e-05,-8.6871e-06,0
-3.16192e-05,1.95337e-05,-1.85979e-06,-1.43948e-05,1.01336e-05,-8.57821e-06,1.84782e-05,-9.91982e-06,0
-3.06668e-05,2.04707e-05,-2.63436e-06,-1.19165e-05,8.57807e-06,-8.65914e-06,1.72788e-05,-1.09781e-05,0
-2.99635e-05,2.04484e-05,-6.39766e-06,-4.58753e-06,1.12037e-05,-8.84397e-06,1.69846e-05,-9.80083e-06,0
-2.98514e-05,1.92406e-05,-7.97932e-06,3.90661e-06,1.50174e-05,-1.03948e-05,1.79566e-05,-8.5863e-06,0
-2.99238e-05,1.79814e-05,-7.28201e-06,6.15161e-06,1.72827e-05,-1.16215e-05,1.94409e-05,-8.13987e-06,0
-2.92107e-05,1.77926e-05,-6.69138e-06,3.86884e-06,1.8475e-05,-1.1735e-05,1.97086e-05,-6.75309e-06,0
-2.95459e-05,1.79157e-05,-8.52669e-06,9.81727e-07,1.82902e-05,-1.09647e-05,1.86591e-05,-5.27038e-06,0
-3.0541e-05,1.61908e-05,-1.01675e-05,-9.1239e-07,1.67831e-05,-1.03763e-05,1.72568e-05,-4.13404e-06,0
-3.15002e-05,1.28967e-05,-1.04811e-05,1.46576e-06,1.4634e-05,-1.03221e-05,1.68732e-05,-5.33076e-06,0
-3.23093e-05,9.32683e-06,-1.03304e-05,7.02148e-06,1.43862e-05,-1.13065e-05,1.71219e-05,-5.53588e-06,0
-3.28014e-05,6.18283e-06,-1.00778e-05,1.19225e-05,1.5501e-05,-1.24182e-05,1.78901e-05,-2.66697e-06,0
-3.28378e-05,3.1138e-06,-8.99209e-06,1.30777e-05,1.76058e-05,-1.20869e-05,1.94905e-05,7.06875e-07,0
-3.21926e-05,-9.93841e-08,-7.86853e-06,1.03641e-05,1.85605e-05,-1.0639e-05,2.05457e-05,1.99821e-06,0
-3.07063e-05,-2.62167e-06,-9.1289e-06,6.99504e-06,1.6709e-05,-9.13652e-06,1.94806e-05,2.67859e-06,0
-2.88479e-05,-3.01233e-06,-1.14283e-05,3.67759e-06,1.44421e-05,-8.33115e-06,1.7587e-05,3.02892e-06,0
-2.78573e-05,-1.33956e-06,-1.22821e-05,-2.42858e-06,1.39099e-05,-8.33556e-06,1.77005e-05,3.25993e-06,0
-2.81389e-05,1.19148e-06,-1.19375e-05,-1.15235e-05,1.41348e-05,-1.00227e-05,1.8512e-05,4.28375e-06,0
-2.88771e-05,3.74248e-06,-1.21034e-05,-1.7398e-05,1.46943e-05,-1.28845e-05,1.75861e-05,5.31163e-06,0
-2.93744e-05,5.96007e-06,-1.24842e-05,-1.64555e-05,1.51348e-05,-1.43603e-05,1.57099e-05,4.9245e-06,0
-2.98854e-05,7.83982e-06,-1.18371e-05,-1.14484e-05,1.39361e-05,-1.43479e-05,1.42737e-05,3.79955e-06,0
-3.03599e-05,8.62202e-06,-1.14586e-05,-7.10742e-06,1.05966e-05,-1.45264e-05,1.3151e-05,3.69293e-06,0
-3.02174e-05,8.51386e-06,-1.20706e-05,-5.81253e-06,8.18393e-06,-1.51435e-05,1.29977e-05,4.28389e-06,0
-3.01464e-05,8.74542e-06,-1.09099e-05,-4.54936e-06,9.27869e-06,-1.37876e-05,1.39548e-05,4.94515e-06,0
-3.10061e-05,1.00281e-05,-7.35644e-06,-2.01954e-06,1.12831e-05,-1.2242e-05,1.49815e-05,4.97361e-06,0
-3.06493e-05,1.1296e-05,-4.86809e-06,5.25377e-07,1.25608e-05,-1.28532e-05,1.29782e-05,3.30149e-06,0
-2.95044e-05,1.06681e-05,-5.40741e-06,1.63604e-06,1.24774e-05,-1.24394e-05,8.28522e-06,-6.46074e-07,0
-2.87483e-05,9.83228e-06,-6.17698e-06,-2.00584e-06,1.03989e-05,-1.11793e-05,5.45848e-06,-3.93657e-06,0
-2.89356e-05,9.06338e-06,-5.44913e-06,-1.04653e-05,6.18386e-06,-1.1167e-05,4.34005e-06,-5.46542e-06,0
-2.89807e-05,9.78697e-06,-2.41199e-06,-2.13811e-05,3.46538e-06,-1.20245e-05,4.39364e-06,-6.12794e-06,0
-2.79795e-05,1.29041e-05,1.60613e-06,-2.93143e-05,2.27616e-06,-1.22108e-05,5.07423e-06,-8.92268e-06,0
-2.83115e-05,1.30438e-05,2.65949e-06,-2.88327e-05,3.61758e-07,-1.23435e-05,5.65281e-06,-1.21875e-05,0
-2.89316e-05,8.45395e-06,6.00981e-07,-2.52126e-05,-7.57984e-07,-1.42853e-05,7.20661e-06,-1.14702e-05,0
-2.86913e-05,4.47364e-06,-2.38859e-06,-2.62875e-05,-6.17057e-07,-1.61269e-05,9.81569e-06,-7.54491e-06,0
-2.95137e-05,3.34759e-06,-4.96428e-06,-2.79999e-05,1.97074e-07,-1.64303e-05,1.05357e-05,-4.4781e-06,0
-3.05432e-05,2.6099e-06,-6.46826e-06,-2.28962e-05,5.0666e-07,-1.5169e-05,8.76185e-06,-2.9775e-06,0
-3.06157e-05,1.94146e-07,-6.70801e-06,-1.31341e-05,1.27333e-06,-1.3947e-05,8.16073e-06,-9.92088e-07,0
-3.01414e-05,-2.98491e-06,-6.46073e-06,-7.33438e-06,3.51504e-06,-1.41239e-05,8.80183e-06,6.58971e-07,0
-2.93286e-05,-4.1577e-06,-6.37691e-06,-7.80353e-06,6.17774e-06,-1.41113e-05,8.93248e-06,6.58043e-07,0
-2.83682e-05,-2.80841e-06,-5.60215e-06,-5.51196e-06,9.0421e-06,-1.33543e-05,8.06438e-06,-1.07885e-06,0
-2.80471e-05,-2.01845e-07,-3.69481e-06,8.23942e-06,1.21524e-05,-1.28218e-05,7.59267e-06,-1.81366e-06,0
-2.87344e-05,1.24709e-06,-1.11293e-06,2.93738e-05,1.51763e-05,-1.29802e-05,8.84323e-06,4.13563e-07,0
-2.96079e-05,3.09247e-06,2.35718e-06,4.4498e-05,1.85744e-05,-1.24789e-05,1.13771e-05,3.23415e-06,0
-3.00591e-05,6.65737e-06,5.685e-06,4.45883e-05,2.21696e-05,-1.06791e-05,1.37093e-05,3.77663e-06,0
-2.90109e-05,1.06103e-05,6.84958e-06,3.10303e-05,2.46426e-05,-8.71523e-06,1.54256e-05,2.44918e-06,0
-2.70789e-05,1.27585e-05,4.33928e-06,1.16408e-05,2.42056e-05,-7.12793e-06,1.73401e-05,6.99905e-07,0
-2.6738e-05,1.25467e-05,4.88393e-07,-6.45544e-06,2.22616e-05,-5.59472e-06,1.89412e-05,-6.67189e-07,0
-2.79011e-05,1.07399e-05,-9.18115e-07,-1.84528e-05,2.24639e-05,-5.19339e-06,1.90768e-05,-1.53921e-06,0
-2.75629e-05,8.06528e-06,1.07595e-07,-1.85714e-05,2.4773e-05,-5.50801e-06,1.79209e-05,-9.16805e-07,0
-2.6313e-05,6.40143e-06,4.41011e-07,-4.85193e-08,2.83307e-05,-5.18952e-06,1.80331e-05,1.24553e-06,0
-2.6441e-05,7.7515e-06,-2.75107e-06,2.90247e-05,3.08251e-05,-4.90596e-06,2.07019e-05,3.58838e-06,0
-2.84159e-05,1.03577e-05,-6.72022e-06,5.09437e-05,2.94738e-05,-4.98265e-06,2.44063e-05,5.60742e-06,0
-3.0421e-05,1.08959e-05,-7.90941e-06,5.97623e-05,2.61641e-05,-4.92771e-06,2.60808e-05,5.49205e-06,0
-3.0376e-05,1.20126e-05,-7.87114e-06,5.92403e-05,2.45004e-05,-5.50469e-06,2.43288e-05,3.61008e-06,0
-2.98225e-05,1.4685e-05,-9.61515e-06,5.29885e-05,2.43772e-05,-7.83988e-06,2.26847e-05,1.60562e-06,0
-3.11927e-05,1.74911e-05,-1.17466e-05,3.99225e-05,2.3682e-05,-9.20503e-06,2.09159e-05,-4.68091e-07,0
-3.19728e-05,1.81304e-05,-1.16827e-05,2.20339e-05,2.42622e-05,-9.6645e-06,1.81764e-05,-1.31905e-06,0
-3.08552e-05,1.64264e-05,-1.19972e-05,3.63366e-06,2.65041e-05,-9.67113e-06,1.81012e-05,-5.12809e-07,0
-3.03892e-05,1.39601e-05,-1.2587e-05,-1.27697e-05,2.73231e-05,-1.00381e-05,1.91637e-05,1.40175e-06,0
-3.12524e-05,1.24934e-05,-1.28455e-05,-2.98434e-05,2.62625e-05,-1.18461e-05,2.01341e-05,1.66877e-06,0
-3.30237e-05,1.21002e-05,-1.30791e-05,-5.1656e-05,2.54837e-05,-1.19176e-05,2.06391e-05,7.34749e-07,0
-3.53327e-05,1.11654e-05,-1.25562e-05,-7.55664e-05,2.59595e-05,-1.0772e-05,1.99301e-05,4.25495e-07,0
-3.76982e-05,1.07608e-05,-1.18188e-05,-9.25113e-05,2.48983e-05,-9.37192e-06,1.90853e-05,1.41484e-06,0
-3.87018e-05,1.16624e-05,-1.0833e-05,-9.39712e-05,2.14276e-05,-9.75e-06,1.90439e-05,3.1174e-06,0
-3.79598e-05,1.4041e-05,-1.07687e-05,-8.11845e-05,1.70718e-05,-1.14412e-05,1.83578e-05,4.48115e-06,0
-3.52543e-05,1.60975e-05,-1.08946e-05,-6.05603e-05,1.34524e-05,-1.17658e-05,1.6936e-05,5.02366e-06,0
-3.21575e-05,1.73334e-05,-1.0775e-05,-4.14958e-05,1.23651e-05,-9.86225e-06,1.77885e-05,4.15907e-06,0
-3.0569e-05,1.76953e-05,-1.08427e-05,-2.88302e-05,1.38767e-05,-7.23706e-06,1.97011e-05,3.5133e-06,0
-3.05407e-05,1.75301e-05,-1.14617e-05,-2.06888e-05,1.51085e-05,-6.06788e-06,1.97102e-05,2.0988e-06,0
-3.22197e-05,1.75606e-05,-1.16984e-05,-1.63215e-05,1.38777e-05,-6.413e-06,1.66896e-05,-2.83421e-07,0
-3.41417e-05,1.93008e-05,-1.12706e-05,-1.56795e-05,1.12632e-05,-8.60768e-06,1.02147e-05,-7.52695e-07,0
-3.40218e-05,2.24024e-05,-1.13218e-05,-1.4615e-05,8.29274e-06,-1.06633e-05,-2.99487e-07,1.21413e-06,0
-3.22037e-05,2.36309e-05,-1.15237e-05,-1.17061e-05,6.7434e-06,-1.13551e-05,-1.07402e-05,2.58247e-06,0
-3.09536e-05,2.22541e-05,-1.17659e-05,-1.05213e-05,7.16392e-06,-1.17769e-05,-1.51353e-05,3.09246e-06,0
-3.05612e-05,1.99225e-05,-1.25311e-05,-1.0486e-05,7.74594e-06,-1.28648e-05,-1.16083e-05,3.50883e-06,0
-3.04665e-05,1.92294e-05,-1.15485e-05,-8.61466e-06,9.23556e-06,-1.3788e-05,-3.41158e-06,4.60177e-06,0
-3.09194e-05,2.04266e-05,-8.52722e-06,-5.21493e-06,1.16644e-05,-1.43673e-05,4.51201e-06,6.35349e-06,0
-3.0722e-05,2.08239e-05,-7.01657e-06,-3.28133e-06,1.22294e-05,-1.52619e-05,1.11053e-05,6.66716e-06,0
-3.09755e-05,2.05236e-05,-7.29105e-06,-1.81888e-06,1.14236e-05,-1.63177e-05,1.70762e-05,6.18552e-06,0
-3.26015e-05,2.10369e-05,-8.20261e-06,1.11082e-06,1.03647e-05,-1.58131e-05,2.35657e-05,6.81774e-06,0
-3.3931e-05,2.0123e-05,-7.70074e-06,3.47231e-06,7.94881e-06,-1.38052e-05,2.91944e-05,6.94235e-06,0
-3.30007e-05,1.9058e-05,-7.16718e-06,2.64966e-06,3.68467e-06,-1.21119e-05,3.07492e-05,6.03556e-06,0
-2.96146e-05,1.86833e-05,-7.39927e-06,1.26405e-06,1.00464e-06,-1.20733e-05,3.00108e-05,5.79014e-06,0
-2.73667e-05,1.70284e-05,-9.9114e-06,1.91795e-06,2.08032e-06,-1.43166e-05,2.95911e-05,4.47559e-06,0
-2.77898e-05,1.43686e-05,-1.3885e-05,2.05021e-06,5.36199e-06,-1.60745e-05,2.91859e-05,1.73674e-06,0
-2.97951e-05,1.23245e-05,-1.48684e-05,1.06655e-06,8.74586e-06,-1.58089e-05,2.73257e-05,-5.68059e-07,0
-3.00352e-05,9.85818e-06,-1.4503e-05,-6.51587e-07,1.04964e-05,-1.55701e-05,2.40996e-05,-2.65936e-06,0
-2.8577e-05,7.32362e-06,-1.34211e-05,-3.90582e-06,1.1554e-05,-1.61502e-05,2.07569e-05,-3.62996e-06,0
-2.81227e-05,5.76093e-06,-1.15175e-05,-6.65286e-06,1.19525e-05,-1.59914e-05,1.84739e-05,-3.6669e-06,0
-2.88433e-05,5.23306e-06,-9.05293e-06,-8.5853e-06,1.15242e-05,-1.4824e-05,1.88983e-05,-3.159e-06,0
-2.95886e-05,5.94756e-06,-6.80031e-06,-8.93454e-06,1.07276e-05,-1.47748e-05,2.00247e-05,-2.98787e-06,0
-3.03289e-05,6.59488e-06,-5.38706e-06,-1.05099e-05,9.2429e-06,-1.52278e-05,1.88356e-05,-3.40119e-06,0
-3.12449e-05,6.53305e-06,-4.85101e-06,-1.82748e-05,6.39591e-06,-1.38612e-05,1.54422e-05,-3.63123e-06,0
-3.07184e-05,5.37828e-06,-5.16805e-06,-2.71875e-05,3.13684e-06,-1.15948e-05,1.19993e-05,-4.68473e-06,0
-2.94591e-05,3.38725e-06,-5.64555e-06,-3.07153e-05,2.2951e-06,-1.0409e-05,9.86889e-06,-6.36574e-06,0
-2.80901e-05,1.12765e-06,-5.95073e-06,-3.04251e-05,4.10433e-06,-1.04653e-05,9.41538e-06,-8.59911e-06,0
-2.67534e-05,1.39975e-06,-6.41147e-06,-3.18389e-05,6.37808e-06,-1.05145e-05,9.3832e-06,-1.04539e-05,0
-2.6472e-05,4.22423e-06,-7.58292e-06,-3.43611e-05,6.9081e-06,-1.02664e-05,7.93066e-06,-1.04801e-05,0
-2.8023e-05,6.51355e-06,-8.37183e-06,-3.38142e-05,5.4206e-06,-9.83411e-06,5.40952e-06,-8.77185e-06,0
-3.01148e-05,6.92023e-06,-7.77306e-06,-2.69296e-05,5.17003e-06,-9.49271e-06,3.42516e-06,-6.71867e-06,0
-3.16118e-05,6.20311e-06,-7.1783e-06,-1.1558e-05,8.06195e-06,-9.43341e-06,2.03182e-06,-3.8239e-06,0
-3.1817e-05,4.30189e-06,-9.51933e-06,9.83049e-06,1.24919e-05,-9.87614e-06,2.01883e-07,-1.4951e-06,0
-3.16464e-05,1.81533e-06,-1.22193e-05,3.04709e-05,1.85585e-05,-9.50511e-06,-2.26542e-06,-5.5145e-07,0
-3.16444e-05,1.55443e-06,-1.04865e-05,4.53982e-05,2.54756e-05,-8.11707e-06,-5.64532e-06,1.27996e-06,0
-3.04767e-05,5.19034e-06,-5.01885e-06,5.18628e-05,3.04095e-05,-6.91213e-06,-7.90748e-06,5.24065e-06,0
-2.86527e-05,9.99406e-06,-3.61255e-07,4.87796e-05,3.21059e-05,-5.74342e-06,-6.85245e-06,9.54276e-06,0
-2.70991e-05,1.22222e-05,5.88305e-07,3.80258e-05,2.87553e-05,-5.22715e-06,-3.32723e-06,1.04879e-05,0
-2.62772e-05,1.22826e-05,4.33798e-07,2.39515e-05,2.2257e-05,-4.64015e-06,5.3181e-07,8.68021e-06,0
-2.58491e-05,1.16985e-05,5.5981e-07,1.38153e-05,1.6949e-05,-4.70595e-06,3.46086e-06,8.98007e-06,0
-2.57309e-05,1.07572e-05,-2.99987e-07,7.35974e-06,1.31599e-05,-5.112e-06,6.09219e-06,9.41714e-06,0
-2.58997e-05,8.79625e-06,-3.5138e-07,1.48833e-06,1.23948e-05,-4.72065e-06,7.6911e-06,8.59244e-06,0
-2.6535e-05,8.0282e-06,2.03738e-06,-5.09157e-07,1.33278e-05,-5.29898e-06,8.24711e-06,8.95952e-06,0
-2.72743e-05,1.07124e-05,3.28966e-06,4.94118e-08,1.46115e-05,-5.61159e-06,8.32645e-06,9.07244e-06,0
-2.69343e-05,1.43904e-05,2.20073e-06,-1.01132e-06,1.58906e-05,-5.16071e-06,8.59774e-06,8.52706e-06,0
-2.53017e-05,1.73553e-05,9.39876e-07,-3.03708e-06,1.66594e-05,-4.641e-06,9.59478e-06,6.74786e-06,0
-2.42506e-05,1.9813e-05,-1.96819e-06,-2.44406e-06,1.84018e-05,-3.73667e-06,8.93307e-06,3.85305e-06,0
-2.5008e-05,2.16928e-05,-6.56602e-06,-3.15594e-07,1.93057e-05,-1.61526e-06,8.23759e-06,1.33377e-06,0
-2.65966e-05,2.20827e-05,-1.04554e-05,1.62492e-06,1.98446e-05,1.14657e-06,9.92272e-06,4.99188e-07,0
-2.72676e-05,2.08976e-05,-1.21576e-05,3.86603e-06,1.98868e-05,2.48199e-06,1.28037e-05,1.80284e-06,0
-2.72061e-05,1.86146e-05,-1.26662e-05,5.18582e-06,1.88099e-05,1.89061e-06,1.68143e-05,3.9784e-06,0
-2.73159e-05,1.58071e-05,-1.29751e-05,3.88223e-06,1.66514e-05,-2.64315e-07,2.0471e-05,4.28134e-06,0
-2.8462e-05,1.29951e-05,-1.3045e-05,1.43143e-06,1.46815e-05,-1.61175e-06,2.06592e-05,2.63313e-06,0
-2.9989e-05,1.03468e-05,-1.1879e-05,1.63106e-06,1.35687e-05,-2.2217e-06,1.79862e-05,1.08945e-06,0
-3.03652e-05,9.31328e-06,-9.85336e-06,5.10558e-06,1.30117e-05,-3.36984e-06,1.49016e-05,1.1522e-06,0
-2.97845e-05,9.21774e-06,-9.62621e-06,9.40386e-06,1.28098e-05,-4.78013e-06,1.22976e-05,1.81715e-06,0
-2.87876e-05,8.5415e-06,-1.1807e-05,1.13101e-05,1.20951e-05,-5.70994e-06,9.92507e-06,1.91282e-06,0
-2.81711e-05,6.84593e-06,-1.39534e-05,1.15103e-05,1.11022e-05,-5.92199e-06,7.61732e-06,1.86632e-06,0
-2.86408e-05,4.49769e-06,-1.44969e-05,1.18196e-05,9.88594e-06,-5.19033e-06,6.1778e-06,1.14728e-06,0
-3.00664e-05,2.19676e-06,-1.55877e-05,1.07598e-05,8.45572e-06,-4.67306e-06,5.87483e-06,-7.7564e-07,0
-3.04942e-05,1.1352e-06,-1.77036e-05,6.39536e-06,7.12989e-06,-5.56277e-06,5.95231e-06,-2.8707e-06,0
-2.92073e-05,2.33263e-06,-1.91966e-05,6.84952e-07,7.38069e-06,-6.20901e-06,6.25212e-06,-3.72065e-06,0
-2.76615e-05,4.16466e-06,-1.90197e-05,-6.23917e-06,7.90343e-06,-6.31359e-06,5.63299e-06,-2.85711e-06,0
-2.67288e-05,4.51788e-06,-1.846e-05,-1.39178e-05,8.14705e-06,-5.85951e-06,2.08286e-06,-1.35738e-06,0
