ch1,ch2,ch3,ch4,ch5,ch6,ch7,ch8,class
-2.70422e-05,1.51777e-05,-7.12192e-06,3.4478e-05,1.64436e-05,-9.61444e-06,1.64613e-05,4.15417e-06,0
-2.82651e-05,1.26892e-05,-4.22948e-06,2.61096e-05,1.77162e-05,-7.73875e-06,1.6748e-05,6.16942e-06,0
-2.8452e-05,9.57916e-06,-2.51016e-06,1.42956e-05,1.64037e-05,-7.2482e-06,1.59819e-05,7.33997e-06,0
-2.79161e-05,6.61426e-06,-3.3288e-06,5.80007e-06,1.24858e-05,-9.41717e-06,1.59435e-05,6.62399e-06,0
-2.91945e-05,5.9776e-06,-4.58422e-06,-5.66674e-08,1.09732e-05,-1.05818e-05,1.47301e-05,4.67759e-06,0
-3.09655e-05,6.92166e-06,-3.08161e-06,-4.82333e-07,1.41472e-05,-9.46008e-06,1.23373e-05,3.23174e-06,0
-3.20991e-05,7.28979e-06,-7.4665e-07,6.02613e-06,1.77911e-05,-8.62305e-06,9.30176e-06,3.35838e-06,0
-3.19395e-05,7.36713e-06,-1.24029e-06,1.04721e-05,1.86965e-05,-1.07329e-05,6.09687e-06,3.24702e-06,0
-3.01994e-05,9.25215e-06,-2.93744e-06,4.39014e-06,1.73616e-05,-1.33419e-05,5.14087e-06,1.43355e-06,0
-3.00231e-05,1.20706e-05,-5.33153e-06,-5.00852e-06,1.53839e-05,-1.35098e-05,5.64393e-06,9.77949e-07,0
-3.01368e-05,1.35174e-05,-5.69777e-06,-7.72519e-06,1.52908e-05,-1.16134e-05,6.7696e-06,2.5514e-06,0
-2.88989e-05,1.3719e-05,-3.74786e-06,-3.06301e-06,1.79229e-05,-7.98158e-06,8.4937e-06,2.98145e-06,0
-2.84062e-05,1.57611e-05,-2.60666e-06,2.43285e-07,1.96639e-05,-4.96645e-06,9.53204e-06,2.86888e-06,0
-3.05787e-05,1.9986e-05,-3.65409e-06,-3.97206e-07,1.76473e-05,-4.83672e-06,9.78088e-06,2.99764e-06,0
-3.30273e-05,2.51632e-05,-5.88801e-06,-1.94513e-06,1.35131e-05,-6.47664e-06,9.18878e-06,3.04858e-06,0
-3.36865e-05,2.97515e-05,-7.55118e-06,-3.42313e-06,1.13164e-05,-7.03221e-06,9.15226e-06,3.19119e-06,0
-3.27724e-05,3.29324e-05,-8.62432e-06,-6.63959e-06,1.18978e-05,-6.69908e-06,1.0355e-05,3.17301e-06,0
-3.14182e-05,3.41262e-05,-9.2691e-06,-9.93212e-06,1.23698e-05,-5.95737e-06,1.16634e-05,1.65405e-06,0
-3.08051e-05,3.20928e-05,-9.31428e-06,-1.11972e-05,1.18456e-05,-5.19575e-06,1.16233e-05,-1.09707e-07,0
-2.99361e-05,2.72203e-05,-8.39436e-06,-1.30536e-05,1.19429e-05,-3.77147e-06,1.05072e-05,-3.66017e-07,0
-2.9338e-05,2.06798e-05,-7.92894e-06,-1.47435e-05,1.33937e-05,-2.69865e-06,9.27515e-06,-8.28396e-08,0
-3.05807e-05,1.21923e-05,-7.71202e-06,-1.48822e-05,1.52562e-05,-2.95638e-06,9.32663e-06,-6.82054e-07,0
-3.36088e-05,3.90258e-06,-6.73692e-06,-1.43758e-05,1.54346e-05,-4.21124e-06,1.09578e-05,-3.14912e-06,0
-3.61294e-05,1.85971e-06,-3.97687e-06,-1.42686e-05,1.35449e-05,-5.96959e-06,1.31941e-05,-5.61518e-06,0
-3.56684e-05,8.02006e-06,-1.68945e-06,-1.49565e-05,1.18604e-05,-7.96421e-06,1.41582e-05,-6.14016e-06,0
-3.30577e-05,1.70225e-05,-2.97574e-07,-1.62336e-05,1.1079e-05,-9.27868e-06,1.30197e-05,-6.24476e-06,0
-3.11267e-05,2.25282e-05,4.14249e-07,-1.64428e-05,1.02728e-05,-1.08688e-05,1.2493e-05,-7.48501e-06,0
-2.98033e-05,2.36659e-05,-1.50729e-06,-1.60094e-05,9.7624e-06,-1.28889e-05,1.40004e-05,-8.50222e-06,0
-2.94925e-05,2.4893e-05,-5.674e-06,-1.58932e-05,9.98837e-06,-1.48879e-05,1.59855e-05,-8.88093e-06,0
-2.99792e-05,2.39612e-05,-7.95715e-06,-1.54611e-05,1.10563e-05,-1.62122e-05,1.56917e-05,-8.90836e-06,0
-2.95698e-05,2.03644e-05,-8.15864e-06,-1.46448e-05,1.08514e-05,-1.54014e-05,1.18502e-05,-9.64513e-06,0
-2.82981e-05,1.80757e-05,-9.99289e-06,-1.4128e-05,8.94368e-06,-1.35055e-05,7.69262e-06,-1.07649e-05,0
-2.79579e-05,1.58468e-05,-1.2506e-05,-1.29215e-05,6.84173e-06,-1.34384e-05,6.60289e-06,-9.98702e-06,0
-2.94299e-05,1.43983e-05,-1.43304e-05,-1.13981e-05,5.71519e-06,-1.56024e-05,7.57937e-06,-7.86746e-06,0
-3.0591e-05,1.38444e-05,-1.40555e-05,-1.07254e-05,6.21246e-06,-1.73187e-05,8.79786e-06,-7.44371e-06,0
-3.04742e-05,1.45955e-05,-1.17802e-05,-1.10882e-05,6.26863e-06,-1.76427e-05,8.45415e-06,-9.14731e-06,0
-2.98076e-05,1.53542e-05,-8.70254e-06,-1.0579e-05,6.39343e-06,-1.69092e-05,8.76105e-06,-9.37637e-06,0
-2.85986e-05,1.52417e-05,-7.3208e-06,-8.81501e-06,6.30213e-06,-1.73586e-05,1.13426e-05,-8.07676e-06,0
-2.75791e-05,1.30363e-05,-6.73776e-06,-6.92448e-06,6.16829e-06,-1.79981e-05,1.35601e-05,-6.97082e-06,0
-2.78423e-05,9.52924e-06,-6.47232e-06,-5.51683e-06,7.88412e-06,-1.68799e-05,1.37983e-05,-5.84891e-06,0
-2.85414e-05,7.47568e-06,-7.02053e-06,-5.59172e-06,1.12952e-05,-1.45544e-05,1.33854e-05,-5.4655e-06,0
-2.83251e-05,7.26371e-06,-6.71379e-06,-7.3183e-06,1.4524e-05,-1.21781e-05,1.38989e-05,-6.09417e-06,0
-2.84208e-05,8.18079e-06,-6.16627e-06,-9.41677e-06,1.57465e-05,-1.01386e-05,1.38508e-05,-6.93729e-06,0
-2.98136e-05,8.15245e-06,-5.56059e-06,-1.02683e-05,1.58043e-05,-8.81013e-06,1.38472e-05,-6.93735e-06,0
-3.14231e-05,7.40633e-06,-5.79163e-06,-9.92812e-06,1.60344e-05,-8.70883e-06,1.53512e-05,-6.99296e-06,0
-3.21865e-05,7.96459e-06,-7.07272e-06,-8.03902e-06,1.67955e-05,-8.49809e-06,1.58949e-05,-8.27427e-06,0
-3.22573e-05,1.11001e-05,-9.18184e-06,-5.33574e-06,1.7814e-05,-6.56466e-06,1.31332e-05,-9.80591e-06,0
-3.19231e-05,1.32267e-05,-1.17957e-05,-3.26305e-06,1.98983e-05,-4.59862e-06,1.03447e-05,-8.82237e-06,0
-3.13428e-05,1.29692e-05,-1.49325e-05,-2.33403e-06,2.24899e-05,-5.29828e-06,9.79909e-06,-5.3304e-06,0
-3.16005e-05,1.17247e-05,-1.71914e-05,-9.28136e-07,2.3414e-05,-7.76097e-06,8.18667e-06,-2.23453e-06,0
-3.12721e-05,1.085e-05,-1.80046e-05,3.43702e-07,2.13107e-05,-9.49691e-06,5.08807e-06,-4.00403e-07,0
-3.00414e-05,1.10686e-05,-1.83289e-05,3.16035e-07,1.74628e-05,-9.68966e-06,3.2816e-06,1.42335e-06,0
-2.91639e-05,1.38772e-05,-1.78224e-05,-9.65129e-07,1.38246e-05,-8.96775e-06,3.20883e-06,3.75758e-06,0
-2.84032e-05,1.59679e-05,-1.80693e-05,-2.7862e-06,9.98661e-06,-8.77482e-06,4.08973e-06,4.51585e-06,0
-2.74434e-05,1.35532e-05,-1.8173e-05,-3.5066e-06,7.29794e-06,-8.10142e-06,4.13737e-06,3.79925e-06,0
-2.72907e-05,1.00083e-05,-1.32879e-05,-4.90438e-06,7.14935e-06,-7.99117e-06,3.25466e-06,2.5146e-06,0
-2.71517e-05,7.64201e-06,-6.05778e-06,-9.91855e-06,7.14301e-06,-9.98844e-06,3.9279e-06,2.21619e-06,0
-2.84525e-05,8.30255e-06,2.4315e-06,-1.69387e-05,6.09385e-06,-1.12566e-05,5.8901e-06,2.58287e-06,0
-3.13005e-05,1.42928e-05,1.57856e-05,-2.06251e-05,4.32775e-06,-1.10864e-05,6.08204e-06,4.15662e-06,0
-3.18923e-05,2.55154e-05,3.40106e-05,-1.96743e-05,1.84274e-06,-1.01297e-05,5.16105e-06,5.4078e-06,0
-3.24168e-05,3.25247e-05,5.4786e-05,-1.64107e-05,1.03164e-06,-7.97044e-06,5.9483e-06,2.99691e-06,0
-3.21958e-05,3.11421e-05,6.96137e-05,-7.83924e-06,2.98765e-06,-5.56299e-06,7.22134e-06,1.11128e-06,0
-3.00455e-05,2.35062e-05,7.05502e-05,9.98499e-06,5.1897e-06,-5.6522e-06,7.5635e-06,2.58379e-06,0
-2.908e-05,1.45328e-05,5.33958e-05,3.03195e-05,6.58072e-06,-6.202e-06,7.15935e-06,7.2291e-06,0
-2.9781e-05,9.56356e-06,2.0945e-05,4.31069e-05,8.63314e-06,-4.79529e-06,7.67662e-06,1.09927e-05,0
-3.0334e-05,5.00778e-06,-1.67093e-05,4.64445e-05,1.30782e-05,-3.55744e-06,1.02739e-05,1.0777e-05,0
-2.96929e-05,-9.19961e-07,-4.96114e-05,4.16601e-05,1.88729e-05,-4.60386e-06,1.25973e-05,7.91071e-06,0
-2.82309e-05,-8.53917e-06,-7.25489e-05,3.18352e-05,2.2658e-05,-5.49392e-06,1.37072e-05,5.88032e-06,0
-2.66615e-05,-1.74032e-05,-8.22626e-05,2.2713e-05,2.38105e-05,-4.47765e-06,1.44164e-05,5.99425e-06,0
-2.74462e-05,-2.577e-05,-7.8235e-05,1.49215e-05,2.34692e-05,-3.36578e-06,1.43305e-05,6.63235e-06,0
-3.03827e-05,-2.98383e-05,-6.51309e-05,5.12234e-06,2.13636e-05,-3.48357e-06,1.41977e-05,6.79728e-06,0
-3.16815e-05,-2.72262e-05,-5.16633e-05,-6.30815e-06,1.80671e-05,-4.83786e-06,1.50049e-05,6.96747e-06,0
-3.02182e-05,-1.87185e-05,-4.31989e-05,-1.5333e-05,1.70237e-05,-6.52898e-06,1.54078e-05,8.20114e-06,0
-2.97722e-05,-8.39618e-06,-3.72413e-05,-2.14326e-05,1.99506e-05,-8.9454e-06,1.40798e-05,8.70311e-06,0
-3.1219e-05,-2.3922e-06,-3.06462e-05,-2.63765e-05,2.19771e-05,-1.17086e-05,1.34357e-05,7.5681e-06,0
-3.21028e-05,-2.14531e-06,-2.27555e-05,-2.99288e-05,1.96703e-05,-1.40539e-05,1.47724e-05,6.20593e-06,0
-3.21733e-05,-2.26837e-06,-1.59752e-05,-3.17469e-05,1.77653e-05,-1.53863e-05,1.58138e-05,6.69303e-06,0
-3.13565e-05,1.15551e-06,-1.1428e-05,-3.08127e-05,1.98902e-05,-1.48938e-05,1.55323e-05,7.61405e-06,0
-3.13345e-05,5.13839e-06,-7.17998e-06,-2.82743e-05,2.33218e-05,-1.34138e-05,1.54904e-05,6.6095e-06,0
-3.29134e-05,6.82826e-06,-3.52892e-06,-2.82286e-05,2.50304e-05,-1.17674e-05,1.63702e-05,5.19084e-06,0
-3.32574e-05,6.38669e-06,-1.77358e-06,-2.9123e-05,2.58586e-05,-9.7121e-06,1.63623e-05,4.97305e-06,0
-3.18732e-05,5.3308e-06,-1.00626e-06,-2.7337e-05,2.71829e-05,-9.29628e-06,1.42845e-05,3.89851e-06,0
-3.16038e-05,3.04863e-06,-3.22398e-07,-2.25343e-05,2.75003e-05,-1.1263e-05,7.36173e-06,2.01965e-06,0
-3.23435e-05,2.26462e-06,8.48154e-08,-1.82209e-05,2.30384e-05,-1.23597e-05,-1.42554e-06,1.31537e-06,0
-3.19089e-05,4.11207e-06,-6.87909e-08,-1.67442e-05,1.67847e-05,-1.11386e-05,-7.34519e-06,-1.40624e-07,0
-3.16214e-05,4.8048e-06,5.34202e-07,-1.5602e-05,1.26708e-05,-1.2031e-05,-1.26719e-05,-2.76479e-06,0
-3.20385e-05,2.17756e-06,-3.32442e-07,-1.29697e-05,1.01942e-05,-1.43713e-05,-1.53418e-05,-3.963e-06,0
-3.24734e-05,-2.80974e-06,-4.14869e-06,-7.03409e-06,8.92843e-06,-1.49929e-05,-1.51044e-05,-3.55804e-06,0
-3.20677e-05,-6.17804e-06,-7.27838e-06,-2.44448e-06,6.54784e-06,-1.46067e-05,-1.23821e-05,-3.5138e-06,0
-3.11041e-05,-7.619e-06,-7.77172e-06,-6.30192e-07,4.69899e-06,-1.37734e-05,-5.44772e-06,-3.77506e-06,0
-3.20928e-05,-5.49774e-06,-8.00306e-06,2.21324e-07,5.1505e-06,-1.27583e-05,3.81036e-06,-2.46458e-06,0
-3.24863e-05,3.36888e-06,-8.80991e-06,-2.93386e-06,6.95589e-06,-1.20808e-05,1.50026e-05,-2.18899e-06,0
-3.14038e-05,1.52021e-05,-1.03497e-05,-1.20388e-05,7.30907e-06,-1.31047e-05,2.72667e-05,-3.43555e-06,0
-3.08856e-05,2.14589e-05,-1.28529e-05,-2.84735e-05,6.02651e-06,-1.32603e-05,3.7087e-05,-4.26012e-06,0
-3.10432e-05,1.95223e-05,-1.47042e-05,-4.67926e-05,4.16388e-06,-1.26006e-05,4.15628e-05,-4.92528e-06,0
-3.10667e-05,1.41569e-05,-1.44457e-05,-5.83198e-05,2.18776e-06,-1.23574e-05,4.12384e-05,-6.63646e-06,0
-3.13625e-05,1.02732e-05,-1.14205e-05,-6.3389e-05,3.16538e-06,-1.25078e-05,3.87549e-05,-7.70665e-06,0
-3.2074e-05,8.77236e-06,-7.58254e-06,-6.73417e-05,9.24245e-06,-1.29186e-05,3.65294e-05,-6.53662e-06,0
-3.187e-05,8.3596e-06,-5.44081e-06,-6.9465e-05,1.78321e-05,-1.27034e-05,3.50541e-05,-5.90133e-06,0
-3.073e-05,1.09173e-05,-5.51416e-06,-6.47369e-05,2.30685e-05,-1.17817e-05,3.45288e-05,-5.59525e-06,0
-3.05589e-05,1.51763e-05,-6.14116e-06,-4.69229e-05,2.31588e-05,-1.00093e-05,3.53654e-05,-4.97574e-06,0
-3.21006e-05,1.63882e-05,-6.02443e-06,-1.30186e-05,2.03829e-05,-7.7351e-06,3.61441e-05,-4.74747e-06,0
-3.20598e-05,1.51804e-05,-5.06785e-06,2.94487e-05,1.84699e-05,-5.68509e-06,3.43657e-05,-5.26189e-06,0
-2.9405e-05,1.32457e-05,-4.35131e-06,6.58881e-05,2.04085e-05,-5.24935e-06,2.92655e-05,-4.25919e-06,0
-2.77831e-05,8.88042e-06,-3.77537e-06,8.11963e-05,2.60035e-05,-6.32537e-06,2.38637e-05,-2.11836e-06,0
-2.79864e-05,1.58545e-06,-2.37333e-06,7.04182e-05,3.13336e-05,-6.92577e-06,2.12011e-05,-1.01443e-06,0
-2.83417e-05,-8.97488e-06,-8.82377e-07,4.55059e-05,3.30631e-05,-6.81539e-06,2.06863e-05,-1.93794e-06,0
-2.92925e-05,-2.24829e-05,-8.19469e-07,2.7388e-05,3.16322e-05,-6.57426e-06,2.12192e-05,-4.6059e-06,0
-2.91467e-05,-3.47277e-05,-1.15787e-06,2.65482e-05,2.88098e-05,-5.77967e-06,2.125e-05,-5.67396e-06,0
-2.74423e-05,-3.72476e-05,-7.74206e-07,3.22324e-05,2.36451e-05,-6.05663e-06,2.01091e-05,-4.61481e-06,0
-2.67319e-05,-2.79365e-05,-9.88763e-07,3.52277e-05,1.78572e-05,-6.59755e-06,1.81562e-05,-3.14369e-06,0
-2.83514e-05,-1.51324e-05,-3.07074e-06,3.21925e-05,1.51041e-05,-6.87365e-06,1.69451e-05,-2.18151e-06,0
-2.97079e-05,-8.85744e-06,-5.30412e-06,2.29155e-05,1.59267e-05,-6.78698e-06,1.55606e-05,-3.8022e-06,0
-2.83641e-05,-8.72466e-06,-7.0664e-06,1.2402e-05,1.75923e-05,-7.34437e-06,1.16381e-05,-5.16555e-06,0
-2.70404e-05,-9.14943e-06,-9.12683e-06,6.28563e-06,1.65542e-05,-9.23471e-06,8.34789e-06,-4.216e-06,0
-2.77588e-05,-7.22527e-06,-9.82057e-06,4.69086e-06,1.3119e-05,-9.53916e-06,6.62157e-06,-3.61158e-06,0
-2.87496e-05,-1.63716e-06,-8.55925e-06,4.15979e-06,1.11811e-05,-9.57861e-06,4.95468e-06,-3.52471e-06,0
-2.92583e-05,6.25442e-06,-6.7601e-06,3.71053e-06,1.2786e-05,-9.56987e-06,1.99312e-06,-3.14412e-06,0
-2.91776e-05,1.76546e-05,-5.55589e-06,1.50315e-06,1.62152e-05,-9.73655e-06,-1.53039e-06,-2.08454e-06,0
-2.86119e-05,3.29071e-05,-5.44959e-06,-4.27395e-07,1.84544e-05,-9.76443e-06,-3.31187e-06,-8.06486e-07,0
-2.81708e-05,4.76533e-05,-6.29986e-06,-1.39085e-06,1.89415e-05,-8.87539e-06,-1.9789e-06,5.04231e-07,0
-2.86008e-05,5.61915e-05,-6.64492e-06,-7.86445e-07,1.8159e-05,-8.85826e-06,2.36086e-06,2.38573e-06,0
-2.86675e-05,5.60325e-05,-5.53913e-06,3.22386e-07,1.57468e-05,-1.01756e-05,7.34937e-06,5.00011e-06,0
-2.92067e-05,4.62927e-05,-4.31035e-06,1.18198e-06,1.28763e-05,-1.10923e-05,1.00145e-05,6.90458e-06,0
-3.17937e-05,3.01952e-05,-4.31281e-06,1.16567e-06,9.81724e-06,-1.12428e-05,1.02452e-05,7.13387e-06,0
-3.44044e-05,1.40716e-05,-4.07726e-06,1.78877e-07,6.89315e-06,-1.13593e-05,1.0681e-05,6.02796e-06,0
-3.51487e-05,2.34295e-06,-2.80838e-06,-2.48135e-07,5.11924e-06,-1.05345e-05,1.2022e-05,5.22797e-06,0
-3.41622e-05,-3.73778e-06,-1.66497e-06,2.71391e-08,5.14698e-06,-9.994e-06,1.2756e-05,5.09289e-06,0
-3.35412e-05,-3.75215e-06,-1.90131e-06,1.7997e-07,6.36291e-06,-1.07571e-05,1.11784e-05,4.78563e-06,0
-3.37989e-05,1.23821e-06,-3.55177e-06,4.18595e-08,8.11851e-06,-1.02562e-05,8.98481e-06,4.30642e-06,0
-3.47747e-05,6.05501e-06,-5.59548e-06,-8.3695e-07,8.25005e-06,-7.11852e-06,7.47605e-06,4.14001e-06,0
-3.61464e-05,7.30614e-06,-6.38583e-06,-3.61977e-06,6.83856e-06,-5.7679e-06,5.40274e-06,4.76497e-06,0
-3.61087e-05,7.41528e-06,-5.52782e-06,-6.25462e-06,5.17581e-06,-8.91808e-06,2.03171e-06,6.5131e-06,0
-3.44925e-05,6.89615e-06,-4.52693e-06,-8.28804e-06,3.58121e-06,-1.28691e-05,1.15763e-07,7.85062e-06,0
-3.46754e-05,4.12183e-06,-5.50824e-06,-8.61279e-06,3.26998e-06,-1.40949e-05,5.75094e-07,7.69309e-06,0
-3.52543e-05,2.16316e-06,-8.39578e-06,-8.21983e-06,4.61306e-06,-1.26132e-05,1.34617e-06,6.70184e-06,0
-3.41442e-05,4.65094e-06,-9.26816e-06,-8.22846e-06,7.12242e-06,-1.08772e-05,3.27606e-06,7.51344e-06,0
-3.30631e-05,1.09151e-05,-6.66734e-06,-7.95792e-06,7.46616e-06,-9.60962e-06,5.04783e-06,1.02937e-05,0
-3.29629e-05,1.63983e-05,-3.79112e-06,-8.85918e-06,5.88795e-06,-7.35733e-06,5.7685e-06,1.18464e-05,0
-3.1898e-05,2.08502e-05,-2.85545e-06,-1.1616e-05,5.18083e-06,-6.82551e-06,5.91572e-06,1.17974e-05,0
-2.89729e-05,2.78332e-05,-2.43626e-06,-1.3602e-05,4.64811e-06,-8.93782e-06,5.13956e-06,1.05386e-05,0
-2.74665e-05,3.39351e-05,-2.52803e-06,-1.37251e-05,4.61836e-06,-1.1169e-05,3.90933e-06,9.29624e-06,0
-2.74405e-05,3.58511e-05,-4.68386e-06,-1.35572e-05,6.12092e-06,-1.11665e-05,4.30851e-06,9.46527e-06,0
-2.71838e-05,3.35649e-05,-7.66998e-06,-1.41282e-05,7.41322e-06,-1.0027e-05,6.13598e-06,1.0024e-05,0
-2.87847e-05,2.80654e-05,-9.78147e-06,-1.41826e-05,5.86669e-06,-8.59439e-06,7.95709e-06,8.66398e-06,0
-2.97822e-05,2.46693e-05,-8.40162e-06,-1.53319e-05,3.40737e-06,-7.07215e-06,9.28158e-06,7.11548e-06,0
-2.97217e-05,2.50525e-05,-5.55478e-06,-1.83133e-05,1.92381e-06,-6.40442e-06,9.24847e-06,6.02549e-06,0
-3.05205e-05,2.75089e-05,-5.78999e-06,-2.08949e-05,7.35069e-07,-6.32963e-06,9.27263e-06,6.23544e-06,0
-3.0387e-05,2.85966e-05,-8.78707e-06,-2.26151e-05,3.40455e-07,-5.83331e-06,9.81412e-06,7.93812e-06,0
-2.842e-05,2.62477e-05,-1.2059e-05,-2.31372e-05,1.90068e-06,-3.5491e-06,1.03734e-05,8.91895e-06,0
-2.59769e-05,2.15917e-05,-1.39436e-05,-2.40804e-05,5.6806e-06,-1.65698e-06,1.02762e-05,8.90932e-06,0
-2.55323e-05,1.69598e-05,-1.44986e-05,-2.43989e-05,8.4635e-06,-2.22126e-06,1.10301e-05,7.50088e-06,0
-2.62735e-05,1.41929e-05,-1.43195e-05,-2.23757e-05,7.52836e-06,-4.3458e-06,1.246e-05,4.72414e-06,0
-2.68879e-05,1.19685e-05,-1.45822e-05,-1.61006e-05,4.59359e-06,-4.94684e-06,1.38183e-05,2.50744e-06,0
-2.67198e-05,9.85627e-06,-1.43187e-05,-6.03013e-06,2.78045e-06,-5.18227e-06,1.47073e-05,3.57573e-06,0
-2.70866e-05,8.86788e-06,-1.2415e-05,4.13139e-06,2.4977e-06,-6.13318e-06,1.48139e-05,6.52855e-06,0
-2.67726e-05,9.81743e-06,-1.04019e-05,1.17171e-05,2.97339e-06,-7.83171e-06,1.48517e-05,8.19556e-06,0
-2.5759e-05,1.14036e-05,-9.44969e-06,1.95563e-05,2.97039e-06,-9.42824e-06,1.50824e-05,7.22932e-06,0
-2.6386e-05,1.19235e-05,-8.31968e-06,2.90109e-05,2.5657e-06,-8.77431e-06,1.43694e-05,5.02709e-06,0
-2.77431e-05,1.27541e-05,-6.80182e-06,3.46563e-05,2.74852e-06,-5.69635e-06,1.32392e-05,2.80011e-06,0
-2.83674e-05,1.41618e-05,-7.17695e-06,3.34992e-05,3.56159e-06,-3.6806e-06,1.3956e-05,1.31033e-06,0
-2.89406e-05,1.69237e-05,-1.07615e-05,2.67559e-05,4.75798e-06,-4.24756e-06,1.56898e-05,1.43936e-06,0
-2.85262e-05,2.26352e-05,-1.47617e-05,1.69489e-05,5.25266e-06,-5.34827e-06,1.70402e-05,2.45758e-06,0
-2.68666e-05,2.63539e-05,-1.60623e-05,5.54142e-06,5.57644e-06,-6.37385e-06,1.5935e-05,2.16158e-06,0
-2.68119e-05,2.43807e-05,-1.40181e-05,-2.24631e-06,7.25545e-06,-6.91196e-06,1.52471e-05,1.49677e-06,0
-2.89462e-05,1.94369e-05,-1.30814e-05,-6.87881e-06,8.61481e-06,-6.752e-06,1.58286e-05,1.28955e-06,0
-3.04032e-05,1.61305e-05,-1.44034e-05,-1.17283e-05,1.06752e-05,-5.69464e-06,1.65903e-05,2.55484e-07,0
-2.90175e-05,1.59007e-05,-1.41488e-05,-1.58001e-05,1.3691e-05,-4.4695e-06,1.70897e-05,-5.4066e-07,0
-2.66109e-05,1.88573e-05,-1.30777e-05,-2.16856e-05,1.54299e-05,-3.34629e-06,1.7201e-05,-1.68258e-06,0
-2.62792e-05,2.41777e-05,-1.19672e-05,-3.21171e-05,1.6049e-05,-4.0572e-06,1.74402e-05,-4.21709e-06,0
-2.73183e-05,2.70994e-05,-1.06206e-05,-4.33471e-05,1.54641e-05,-6.65154e-06,1.65162e-05,-6.04384e-06,0
-2.78837e-05,2.55767e-05,-1.01109e-05,-4.79412e-05,1.43248e-05,-9.16812e-06,1.45336e-05,-4.42193e-06,0
-2.73271e-05,2.09151e-05,-1.02009e-05,-4.81876e-05,1.07768e-05,-1.06432e-05,1.24318e-05,-1.24216e-06,0
-2.57534e-05,1.61446e-05,-9.24926e-06,-4.8638e-05,5.59227e-06,-1.21381e-05,1.13083e-05,2.65355e-07,0
-2.57574e-05,9.67347e-06,-8.15311e-06,-4.77153e-05,1.28858e-06,-1.39233e-05,1.08294e-05,1.64141e-06,0
-2.766e-05,8.67452e-07,-7.71355e-06,-3.66478e-05,-1.21427e-06,-1.51615e-05,1.16402e-05,4.24891e-06,0
-2.97499e-05,-6.46701e-06,-7.51195e-06,-6.8255e-06,-9.25215e-07,-1.4535e-05,1.38384e-05,6.13575e-06,0
-3.11535e-05,-9.4696e-06,-6.69735e-06,3.15903e-05,2.48562e-06,-1.23461e-05,1.46981e-05,6.49307e-06,0
-3.23082e-05,-6.34636e-06,-5.89952e-06,5.53793e-05,6.78629e-06,-1.08461e-05,1.38273e-05,6.0669e-06,0
-3.29182e-05,6.69257e-07,-6.46911e-06,5.5966e-05,1.02844e-05,-1.10905e-05,1.38254e-05,4.01834e-06,0
-3.24738e-05,6.24065e-06,-7.89486e-06,4.50607e-05,1.64367e-05,-1.29164e-05,1.51485e-05,-1.74689e-07,0
-3.19759e-05,6.92619e-06,-8.43948e-06,3.47433e-05,2.76561e-05,-1.42633e-05,1.62366e-05,-2.46657e-06,0
-3.2722e-05,5.1677e-06,-7.99822e-06,2.54872e-05,3.94977e-05,-1.31508e-05,1.73882e-05,-4.3654e-07,0
-3.34454e-05,5.00972e-06,-7.55666e-06,1.03917e-05,4.39206e-05,-1.02267e-05,1.91623e-05,1.4583e-06,0
-3.26748e-05,8.56115e-06,-6.04156e-06,-9.44912e-06,4.01335e-05,-8.09378e-06,1.96804e-05,-1.82669e-07,0
-3.0399e-05,1.42805e-05,-1.39067e-06,-2.50454e-05,3.45297e-05,-6.7383e-06,1.87113e-05,-2.57564e-06,0
-2.78318e-05,1.93323e-05,4.75877e-06,-2.84579e-05,3.13182e-05,-5.49448e-06,1.66715e-05,-2.36694e-06,0
-2.55946e-05,2.19255e-05,9.28238e-06,-2.04972e-05,3.06013e-05,-4.25561e-06,1.42046e-05,-1.74373e-06,0
-2.51211e-05,2.26365e-05,1.06968e-05,-1.52982e-05,3.14687e-05,-3.79495e-06,1.31329e-05,-2.20296e-06,0
-2.71557e-05,2.23845e-05,1.00344e-05,-2.07515e-05,3.0143e-05,-3.31932e-06,1.38034e-05,-1.72578e-06,0
-2.9578e-05,2.09046e-05,8.0432e-06,-3.00398e-05,2.69016e-05,-4.3132e-06,1.45819e-05,-8.12693e-07,0
-3.05084e-05,2.1758e-05,4.27391e-06,-3.48874e-05,2.41432e-05,-6.85116e-06,1.51464e-05,-1.70855e-07,0
-2.88753e-05,2.80223e-05,2.005e-06,-3.05056e-05,2.20061e-05,-7.76099e-06,1.44662e-05,-4.27778e-07,0
-2.70513e-05,3.65141e-05,2.43761e-06,-1.9819e-05,2.26499e-05,-7.19718e-06,1.32859e-05,-1.39906e-06,0
-2.61398e-05,4.42191e-05,4.09218e-06,-9.30612e-06,2.29161e-05,-5.81335e-06,1.43735e-05,-3.04584e-06,0
-2.63425e-05,4.7545e-05,3.59807e-06,-3.90737e-06,2.07193e-05,-4.84003e-06,1.54308e-05,-3.64798e-06,0
-2.64711e-05,4.39014e-05,1.36057e-06,-3.32067e-06,1.86983e-05,-5.8575e-06,1.49588e-05,-3.20768e-06,0
-2.57826e-05,3.51613e-05,-3.91526e-07,-3.28374e-06,1.85793e-05,-7.72277e-06,1.45426e-05,-3.85902e-06,0
-2.61891e-05,2.47629e-05,-1.25398e-06,1.42839e-07,2.09861e-05,-6.9361e-06,1.41647e-05,-4.97541e-06,0
-2.72863e-05,1.44958e-05,-2.60032e-06,3.82065e-06,2.33271e-05,-6.52087e-06,1.32387e-05,-5.60073e-06,0
-2.82137e-05,6.85087e-06,-5.33622e-06,6.87637e-06,2.43378e-05,-7.90605e-06,1.39732e-05,-5.48953e-06,0
-3.06643e-05,3.98979e-06,-8.18e-06,1.10778e-05,2.54258e-05,-9.0285e-06,1.62784e-05,-5.90136e-06,0
-3.33787e-05,4.54956e-06,-1.02178e-05,1.30904e-05,2.64141e-05,-9.51121e-06,1.8074e-05,-6.34211e-06,0
-3.31913e-05,7.18165e-06,-1.1011e-05,1.21957e-05,2.59784e-05,-9.81577e-06,1.82176e-05,-6.77276e-06,0
-3.16492e-05,9.23172e-06,-1.08866e-05,9.23161e-06,2.39785e-05,-9.47446e-06,1.78858e-05,-6.64045e-06,0
-3.14174e-05,9.74296e-06,-1.04734e-05,6.53176e-06,2.13383e-05,-7.76505e-06,1.85867e-05,-5.65114e-06,0
-3.30729e-05,8.90231e-06,-1.20634e-05,4.75306e-06,1.86467e-05,-7.13333e-06,1.86109e-05,-4.32942e-06,0
-3.44069e-05,9.12102e-06,-1.5791e-05,4.08637e-06,1.59003e-05,-7.54605e-06,1.7163e-05,-3.00056e-06,0
-3.38617e-05,1.53306e-05,-2.03856e-05,3.19186e-06,1.29102e-05,-7.71258e-06,1.60402e-05,-2.35217e-06,0
-3.23847e-05,2.7942e-05,-2.33056e-05,1.49309e-06,1.00412e-05,-8.2652e-06,1.70126e-05,-2.22286e-06,0
-3.13394e-05,3.73322e-05,-2.26898e-05,-2.50458e-08,7.9927e-06,-1.10332e-05,1.81044e-05,-2.0753e-06,0
-3.02004e-05,3.75579e-05,-1.98345e-05,1.30499e-07,7.98923e-06,-1.3985e-05,1.60192e-05,-2.83039e-06,0
-2.89861e-05,3.19042e-05,-1.96346e-05,7.28407e-07,9.81472e-06,-1.51332e-05,1.18623e-05,-4.08353e-06,0
-2.92697e-05,2.36275e-05,-2.24463e-05,1.42886e-06,1.12414e-05,-1.6244e-05,1.03758e-05,-3.82958e-06,0
-3.1611e-05,1.65695e-05,-2.30568e-05,1.36929e-06,1.16263e-05,-1.72471e-05,1.0885e-05,-2.93487e-06,0
-3.3709e-05,1.27523e-05,-2.04235e-05,7.8809e-07,1.05414e-05,-1.70151e-05,1.05806e-05,-3.03151e-06,0
-3.42076e-05,1.00791e-05,-1.73829e-05,2.07038e-06,7.32326e-06,-1.68992e-05,9.97316e-06,-4.35522e-06,0
-3.46788e-05,7.13432e-06,-1.63659e-05,3.50455e-06,3.65709e-06,-1.61783e-05,9.30034e-06,-5.90291e-06,0
-3.37446e-05,2.2029e-06,-1.63786e-05,3.44657e-06,3.50741e-06,-1.32573e-05,8.12318e-06,-4.57756e-06,0
-3.09006e-05,-2.72941e-06,-1.59636e-05,2.50015e-06,7.28785e-06,-1.032e-05,6.485e-06,-1.51154e-06,0
-3.03018e-05,-6.98399e-07,-1.65551e-05,3.8591e-07,1.09213e-05,-1.00169e-05,6.7185e-06,-1.10705e-06,0
-3.3173e-05,6.72292e-06,-1.71176e-05,-5.06565e-06,1.12596e-05,-1.2476e-05,8.73587e-06,-1.00154e-06,0
-3.62858e-05,1.36156e-05,-1.60661e-05,-8.4237e-06,8.83829e-06,-1.50065e-05,1.02041e-05,4.70568e-07,0
-3.55983e-05,1.78944e-05,-1.43565e-05,-8.41172e-06,6.13947e-06,-1.48165e-05,9.9866e-06,6.71374e-07,0
-3.24909e-05,1.92754e-05,-1.23708e-05,-7.01535e-06,4.2722e-06,-1.35142e-05,8.24109e-06,-1.29864e-06,0
-3.16676e-05,1.75913e-05,-1.07428e-05,-5.11153e-06,3.86762e-06,-1.32147e-05,7.12719e-06,-2.25322e-06,0
-3.22719e-05,1.53757e-05,-1.05853e-05,-3.83321e-06,4.49838e-06,-1.30469e-05,7.24948e-06,-1.75627e-06,0
-3.27606e-05,1.41508e-05,-1.18148e-05,-3.111e-06,5.3314e-06,-1.38983e-05,8.346e-06,-2.57059e-06,0
-3.25523e-05,1.38469e-05,-1.26728e-05,-4.06234e-06,5.52895e-06,-1.54301e-05,8.44351e-06,-3.95417e-06,0
-3.17884e-05,1.3244e-05,-1.20777e-05,-5.97721e-06,5.38812e-06,-1.6361e-05,7.14875e-06,-3.9816e-06,0
-3.0492e-05,1.31357e-05,-1.06713e-05,-7.69276e-06,4.78435e-06,-1.59557e-05,7.00355e-06,-3.23871e-06,0
-2.92507e-05,1.52546e-05,-9.07182e-06,-7.9674e-06,4.06513e-06,-1.39657e-05,7.90913e-06,-1.88035e-06,0
-2.80829e-05,1.74373e-05,-6.84218e-06,-8.27281e-06,3.87362e-06,-1.12084e-05,8.8107e-06,1.63594e-07,0
-2.69832e-05,1.77405e-05,-4.93623e-06,-8.90251e-06,4.51304e-06,-9.4659e-06,1.02595e-05,1.1564e-06,0
-2.65981e-05,1.71093e-05,-4.3929e-06,-8.5856e-06,5.89308e-06,-8.88332e-06,1.32988e-05,1.49597e-06,0
-2.70598e-05,1.6814e-05,-5.37701e-06,-6.9701e-06,5.61643e-06,-9.15947e-06,1.5727e-05,2.05827e-06,0
-2.80412e-05,1.54944e-05,-6.88469e-06,-5.47997e-06,3.67922e-06,-1.0669e-05,1.52013e-05,1.36268e-06,0
-2.77732e-05,1.3362e-05,-7.26005e-06,-5.0325e-06,2.40865e-06,-1.19376e-05,1.22613e-05,-9.49619e-07,0
-2.70708e-05,1.15103e-05,-6.40742e-06,-5.3674e-06,2.03755e-06,-1.23853e-05,9.85192e-06,-1.25763e-06,0
-2.73065e-05,1.23343e-05,-5.68911e-06,-6.88463e-06,2.09902e-06,-1.28891e-05,9.24932e-06,1.26153e-06,0
-2.82898e-05,1.60037e-05,-6.24715e-06,-8.31582e-06,4.13266e-06,-1.333e-05,9.29818e-06,3.22313e-06,0
-2.9528e-05,1.90965e-05,-8.62139e-06,-8.90358e-06,8.78808e-06,-1.34653e-05,9.76268e-06,2.9972e-06,0
-2.9282e-05,1.89777e-05,-1.05655e-05,-8.45432e-06,1.22536e-05,-1.30799e-05,9.36504e-06,2.86248e-06,0
-2.7505e-05,1.62776e-05,-1.11759e-05,-6.71219e-06,1.25567e-05,-1.28013e-05,8.67928e-06,2.70037e-06,0
-2.66946e-05,1.44476e-05,-1.11675e-05,-7.907e-06,1.16514e-05,-1.37023e-05,1.13605e-05,2.648e-06,0
-2.72091e-05,1.6923e-05,-1.00842e-05,-1.06295e-05,1.05727e-05,-1.52661e-05,1.38137e-05,3.14365e-06,0
-2.87201e-05,2.21199e-05,-9.548e-06,-9.10277e-06,1.03429e-05,-1.63186e-05,1.17627e-05,1.15423e-06,0
-2.91719e-05,2.59818e-05,-9.72701e-06,-6.58439e-06,1.1406e-05,-1.57259e-05,8.94502e-06,-2.10421e-06,0
-2.8349e-05,2.6733e-05,-8.79456e-06,-7.32845e-06,1.376e-05,-1.5464e-05,6.86744e-06,-3.41049e-06,0
-2.8533e-05,2.29255e-05,-8.48738e-06,-7.98278e-06,1.47918e-05,-1.56815e-05,5.71967e-06,-3.13975e-06,0
-2.84281e-05,1.77859e-05,-8.96476e-06,-6.16356e-06,1.41755e-05,-1.63157e-05,7.03774e-06,-4.09771e-06,0
-2.66069e-05,1.47595e-05,-7.89692e-06,-5.51094e-06,1.31993e-05,-1.61774e-05,1.04822e-05,-5.20501e-06,0
-2.64477e-05,1.17526e-05,-6.58759e-06,-4.89287e-06,1.37692e-05,-1.46076e-05,1.24271e-05,-5.53882e-06,0
-2.88007e-05,7.37132e-06,-6.09357e-06,-2.7312e-06,1.57244e-05,-1.23852e-05,1.21566e-05,-5.00299e-06,0
-3.04647e-05,4.08727e-06,-6.50105e-06,-4.41157e-07,1.73788e-05,-9.93218e-06,1.22908e-05,-4.47636e-06,0
-3.1899e-05,2.87878e-06,-6.22112e-06,1.17747e-06,1.81864e-05,-8.78044e-06,1.29055e-05,-4.90732e-06,0
-3.34108e-05,1.89238e-06,-5.31435e-06,1.004e-06,1.75418e-05,-8.42663e-06,1.41101e-05,-5.3168e-06,0
-3.48781e-05,1.04518e-06,-5.37841e-06,-6.98044e-07,1.57266e-05,-8.52177e-06,1.65122e-05,-5.57484e-06,0
-3.60025e-05,9.66173e-07,-6.6689e-06,-2.52886e-06,1.3529e-05,-8.56843e-06,1.92882e-05,-5.507e-06,0
-3.60491e-05,1.41193e-06,-7.58969e-06,-4.5346e-06,1.35022e-05,-9.7477e-06,2.06189e-05,-5.44535e-06,0
-3.52426e-05,1.60526e-06,-7.01256e-06,-6.51916e-06,1.56341e-05,-1.16073e-05,2.03885e-05,-4.85837e-06,0
-3.49366e-05,5.78104e-08,-6.71369e-06,-7.50033e-06,1.84234e-05,-1.28911e-05,1.99829e-05,-4.05219e-06,0
-3.60238e-05,-3.62238e-06,-8.08614e-06,-6.38057e-06,1.85958e-05,-1.36303e-05,2.03481e-05,-3.42839e-06,0
-3.76946e-05,-7.38416e-06,-9.38158e-06,-3.98449e-06,1.73126e-05,-1.3867e-05,2.05025e-05,-3.21658e-06,0
-3.77026e-05,-9.52369e-06,-8.65378e-06,-1.76056e-06,1.84528e-05,-1.32624e-05,1.98747e-05,-2.99196e-06,0
-3.56329e-05,-1.00244e-05,-7.56515e-06,-3.01828e-07,2.12484e-05,-1.19399e-05,1.94567e-05,-2.17306e-06,0
-3.40817e-05,-1.03806e-05,-7.75975e-06,-1.95526e-06,2.21566e-05,-1.10577e-05,1.98215e-05,-6.29508e-07,0
-3.29688e-05,-1.16506e-05,-7.64871e-06,-7.13856e-06,1.93935e-05,-1.02241e-05,1.97016e-05,1.20823e-06,0
-3.22215e-05,-1.17038e-05,-5.1604e-06,-1.42177e-05,1.56368e-05,-8.98288e-06,1.86038e-05,2.89366e-06,0
-3.09849e-05,-8.79706e-06,-3.1013e-06,-1.90776e-05,1.50973e-05,-9.02331e-06,1.38632e-05,4.233e-06,0
-2.85716e-05,-3.60901e-06,-3.40327e-06,-2.0972e-05,1.70568e-05,-9.84841e-06,4.89568e-06,4.61336e-06,0
-2.68304e-05,1.87972e-07,-4.98865e-06,-2.40226e-05,2.02023e-05,-1.07611e-05,-2.4209e-06,4.88343e-06,0
-2.6445e-05,-5.96509e-07,-7.2193e-06,-2.42376e-05,2.32447e-05,-1.20883e-05,-6.39341e-06,6.99178e-06,0
-2.65821e-05,1.05667e-07,-9.25402e-06,-1.64121e-05,2.13192e-05,-1.35976e-05,-5.96142e-06,7.75036e-06,0
-2.68405e-05,9.30318e-06,-1.06454e-05,-5.78828e-06,1.66273e-05,-1.48095e-05,5.52676e-07,7.86476e-06,0
-2.68761e-05,2.1656e-05,-1.23717e-05,3.59588e-06,1.4204e-05,-1.3999e-05,9.95519e-06,9.83679e-06,0
-2.65945e-05,2.85717e-05,-1.37423e-05,1.13463e-05,1.39354e-05,-1.16889e-05,1.72537e-05,1.04924e-05,0
-2.69658e-05,2.97102e-05,-1.24127e-05,1.59485e-05,1.49044e-05,-9.92366e-06,2.18218e-05,1.05767e-05,0
-2.67035e-05,2.73732e-05,-8.29174e-06,1.66879e-05,1.53226e-05,-9.27201e-06,2.37101e-05,1.05754e-05,0
-2.62034e-05,2.07183e-05,-2.80887e-06,1.28242e-05,1.5228e-05,-8.35324e-06,2.18539e-05,1.03786e-05,0
-2.62056e-05,1.12003e-05,3.00101e-06,4.97672e-06,1.51354e-05,-8.22341e-06,1.82492e-05,1.06836e-05,0
-2.66944e-05,7.60842e-07,9.18919e-06,-1.38532e-06,1.47144e-05,-8.17906e-06,1.69289e-05,1.15442e-05,0
-2.81039e-05,-8.86929e-06,1.78273e-05,-3.90765e-06,1.52874e-05,-6.28571e-06,1.84572e-05,1.12669e-05,0
-3.00386e-05,-1.47252e-05,3.26397e-05,-6.08298e-06,1.57026e-05,-5.02802e-06,2.25317e-05,9.34065e-06,0
-3.17014e-05,-1.11148e-05,5.16792e-05,-8.99377e-06,1.56707e-05,-6.61288e-06,2.72121e-05,6.63115e-06,0
-3.31206e-05,4.12211e-06,6.68423e-05,-1.00448e-05,1.69757e-05,-8.98662e-06,2.826e-05,4.16113e-06,0
-3.40102e-05,2.21246e-05,6.98584e-05,-8.23278e-06,1.98012e-05,-9.4332e-06,2.66171e-05,2.81173e-06,0
-3.36867e-05,3.19545e-05,5.58499e-05,-5.51134e-06,2.27908e-05,-7.58848e-06,2.44985e-05,2.39987e-06,0
-3.27617e-05,2.84065e-05,2.55028e-05,-3.49753e-06,2.38049e-05,-4.23456e-06,2.13428e-05,2.56709e-06,0
-3.16745e-05,1.39762e-05,-1.37208e-05,-3.7879e-06,2.09276e-05,-2.84026e-06,1.64484e-05,2.62856e-06,0
-3.18153e-05,-4.74538e-06,-5.10513e-05,-5.79991e-06,1.66529e-05,-4.66386e-06,1.23903e-05,2.37951e-06,0
-3.22142e-05,-2.09918e-05,-7.77286e-05,-6.44587e-06,1.42213e-05,-5.63109e-06,9.83896e-06,1.99001e-06,0
-3.14316e-05,-3.00003e-05,-8.88232e-05,-3.5791e-06,1.45376e-05,-4.3306e-06,8.18443e-06,2.3013e-06,0
-3.02613e-05,-3.0605e-05,-8.58785e-05,-1.68921e-06,1.51971e-05,-2.93093e-06,6.79624e-06,2.68779e-06,0
-2.94469e-05,-2.76416e-05,-7.36162e-05,-6.47291e-06,1.40516e-05,-2.52285e-06,5.06239e-06,3.28103e-06,0
-3.02768e-05,-2.4965e-05,-5.97673e-05,-1.80304e-05,1.2088e-05,-1.79578e-06,7.9486e-07,3.99013e-06,0
-3.1889e-05,-1.98472e-05,-4.88892e-05,-3.14163e-05,1.09033e-05,2.51388e-07,-7.2299e-06,4.75219e-06,0
-3.23449e-05,-1.17286e-05,-3.94185e-05,-3.57235e-05,1.16542e-05,2.63277e-07,-1.51154e-05,5.84897e-06,0
-3.32504e-05,-5.32271e-06,-3.21988e-05,-2.70819e-05,9.78224e-06,-1.98855e-06,-1.78176e-05,6.17566e-06,0
-3.49762e-05,-2.00451e-06,-2.61764e-05,-2.07347e-05,5.89166e-06,-4.18173e-06,-1.39191e-05,7.15312e-06,0
-3.52687e-05,-7.93439e-09,-2.16041e-05,-2.4839e-05,4.75542e-06,-6.24478e-06,-7.90917e-06,8.54692e-06,0
-3.422e-05,1.18767e-06,-1.97122e-05,-3.50498e-05,5.32468e-06,-6.40082e-06,-2.25751e-06,8.52876e-06,0
-3.40574e-05,2.41167e-06,-2.02497e-05,-4.58962e-05,6.19972e-06,-4.69648e-06,3.89353e-06,7.04387e-06,0
-3.56536e-05,3.20224e-06,-2.42487e-05,-4.83598e-05,8.18313e-06,-3.42146e-06,1.06924e-05,5.74432e-06,0
-3.67079e-05,2.70178e-06,-3.01088e-05,-4.4148e-05,9.3818e-06,-4.03524e-06,1.79842e-05,7.47357e-06,0
-3.5563e-05,3.92468e-06,-3.37888e-05,-3.2338e-05,6.45116e-06,-5.75007e-06,2.33171e-05,1.11955e-05,0
-3.50658e-05,7.81934e-06,-3.2157e-05,-1.12448e-05,1.82039e-06,-7.0835e-06,2.53656e-05,1.3835e-05,0
-3.4923e-05,1.29399e-05,-2.63633e-05,1.04845e-05,-2.28761e-06,-8.67984e-06,2.63459e-05,1.46269e-05,0
-3.43563e-05,1.80739e-05,-2.09735e-05,2.20115e-05,-3.91652e-06,-1.03048e-05,2.72919e-05,1.41576e-05,0
-3.40217e-05,2.00772e-05,-1.76604e-05,1.95864e-05,-2.67608e-06,-1.05824e-05,2.62682e-05,1.38319e-05,0
-3.42494e-05,1.80522e-05,-1.59473e-05,1.04679e-05,-4.64046e-07,-1.05368e-05,2.17162e-05,1.4098e-05,0
-3.46403e-05,1.53781e-05,-1.62025e-05,3.01636e-06,2.7022e-06,-1.16227e-05,1.63018e-05,1.29073e-05,0
-3.39168e-05,1.56737e-05,-1.58614e-05,2.93255e-06,8.02452e-06,-1.28954e-05,1.29039e-05,9.15614e-06,0
-3.23211e-05,1.82985e-05,-1.24235e-05,1.0049e-05,1.52674e-05,-1.30004e-05,1.28449e-05,4.72327e-06,0
-2.93163e-05,2.01575e-05,-7.67472e-06,1.70212e-05,2.13976e-05,-1.2745e-05,1.42229e-05,1.92739e-06,0
-2.5727e-05,2.05808e-05,-4.16207e-06,1.69184e-05,2.40906e-05,-1.42995e-05,1.51203e-05,6.01095e-07,0
-2.31893e-05,2.28953e-05,-1.26055e-06,1.52224e-05,2.45821e-05,-1.5565e-05,1.64112e-05,-9.52432e-07,0
-2.35047e-05,2.67488e-05,1.62681e-06,2.10011e-05,2.71368e-05,-1.33605e-05,1.93075e-05,-2.41795e-06,0
-2.47063e-05,2.88596e-05,2.97587e-06,3.12847e-05,3.13468e-05,-1.07079e-05,2.21827e-05,-3.46315e-06,0
-2.5727e-05,2.909e-05,3.54243e-06,3.39687e-05,3.21031e-05,-1.06736e-05,2.18893e-05,-4.6736e-06,0
-2.71531e-05,2.90926e-05,5.6095e-06,2.55306e-05,2.83156e-05,-1.05684e-05,1.91984e-05,-3.99957e-06,0
-2.76643e-05,2.86132e-05,7.18704e-06,1.31715e-05,2.50789e-05,-8.22245e-06,1.70382e-05,-1.30765e-06,0
-2.71315e-05,2.71549e-05,6.36823e-06,5.05815e-06,2.66071e-05,-5.78656e-06,1.69153e-05,-9.32403e-07,0
-2.61317e-05,2.5373e-05,5.59131e-06,5.5502e-06,3.15225e-05,-4.0809e-06,1.71901e-05,-2.72847e-06,0
-2.56285e-05,2.32364e-05,5.34671e-06,9.11017e-06,3.38325e-05,-3.68624e-06,1.58801e-05,-2.36508e-06,0
-2.64022e-05,2.1435e-05,5.09571e-06,9.20305e-06,3.09277e-05,-4.95137e-06,1.25219e-05,-7.99575e-07,0
-2.62245e-05,2.2141e-05,5.93832e-06,4.60058e-06,2.41525e-05,-6.29475e-06,9.23355e-06,-2.28328e-06,0
-2.51066e-05,2.43752e-05,7.24461e-06,-1.93435e-06,1.77768e-05,-5.92639e-06,6.5871e-06,-4.99565e-06,0
-2.54916e-05,2.5e-05,9.62429e-06,-6.05812e-06,1.55147e-05,-3.48976e-06,6.05936e-06,-5.08903e-06,0
-2.54089e-05,2.40475e-05,1.20774e-05,-9.06547e-06,1.70121e-05,-1.39554e-06,1.04327e-05,-3.83499e-06,0
-2.62933e-05,2.34482e-05,1.28707e-05,-1.17653e-05,1.97174e-05,-3.89245e-07,1.58683e-05,-3.11959e-06,0
-2.82224e-05,2.2078e-05,1.18515e-05,-1.33502e-05,2.01182e-05,-1.64703e-06,1.76572e-05,-4.85572e-06,0
-2.83626e-05,1.96101e-05,9.50166e-06,-1.3083e-05,1.83076e-05,-3.59755e-06,1.56061e-05,-6.76203e-06,0
-2.84016e-05,1.93837e-05,7.0551e-06,-1.16357e-05,1.60095e-05,-4.96383e-06,1.13256e-05,-6.41651e-06,0
-2.84409e-05,1.9929e-05,5.87008e-06,-9.24309e-06,1.44459e-05,-5.89003e-06,7.43795e-06,-5.84386e-06,0
-2.84564e-05,1.93637e-05,6.19402e-06,-5.54584e-06,1.32904e-05,-6.93926e-06,5.6099e-06,-6.57611e-06,0
-2.82055e-05,1.77152e-05,5.28806e-06,-1.89127e-06,1.22813e-05,-8.70865e-06,3.7956e-06,-8.06147e-06,0
-2.75589e-05,1.61638e-05,3.13674e-06,-2.75202e-07,1.13411e-05,-9.72439e-06,1.13309e-06,-9.18474e-06,0
-2.66928e-05,1.52487e-05,2.26602e-06,-9.01171e-07,1.14329e-05,-1.00003e-05,-1.7616e-06,-9.44738e-06,0
-2.68234e-05,1.47227e-05,4.2917e-06,-1.2264e-06,1.28362e-05,-9.54138e-06,-4.03442e-06,-9.01349e-06,0
-2.8574e-05,1.50168e-05,7.31535e-06,-1.28535e-06,1.43858e-05,-1.00705e-05,-4.11701e-06,-8.33809e-06,0
-3.00338e-05,1.64104e-05,9.15341e-06,-1.34901e-06,1.48682e-05,-1.13521e-05,-2.05841e-06,-6.78388e-06,0
-3.03223e-05,1.72179e-05,9.35891e-06,-2.25254e-06,1.49905e-05,-1.29466e-05,-6.74208e-08,-4.55522e-06,0
-2.97351e-05,1.53589e-05,8.33004e-06,-4.64473e-06,1.48894e-05,-1.44572e-05,3.45286e-07,-2.15584e-06,0
-2.98536e-05,1.24782e-05,6.95766e-06,-8.11276e-06,1.33246e-05,-1.51808e-05,3.69783e-07,-2.9168e-07,0
-3.02631e-05,1.17521e-05,5.53951e-06,-1.08143e-05,1.15974e-05,-1.44881e-05,2.4501e-07,1.02697e-06,0
-3.01184e-05,1.40798e-05,4.76195e-06,-1.12813e-05,1.0843e-05,-1.23231e-05,-5.4554e-07,1.70703e-06,0
-3.03137e-05,1.65535e-05,4.29665e-06,-1.03147e-05,9.82287e-06,-1.06597e-05,-5.70835e-07,1.20507e-06,0
-3.18834e-05,2.10265e-05,2.37379e-06,-1.12416e-05,7.32784e-06,-1.30687e-05,7.67827e-07,-1.12181e-06,0
-3.13094e-05,3.06527e-05,-4.02829e-07,-1.30814e-05,5.33377e-06,-1.68558e-05,2.10884e-06,-2.78896e-06,0
-2.88029e-05,4.35343e-05,-3.28537e-06,-1.50665e-05,5.179e-06,-1.72001e-05,2.94005e-06,-2.36774e-06,0
-2.83187e-05,5.41713e-05,-4.61687e-06,-1.69352e-05,6.41276e-06,-1.52747e-05,3.97955e-06,-1.29491e-06,0
-2.88177e-05,6.03902e-05,-6.10194e-06,-1.6966e-05,5.97278e-06,-1.26185e-05,8.19219e-06,1.24776e-06,0
-2.99629e-05,5.8069e-05,-8.74404e-06,-1.72065e-05,5.09804e-06,-1.10746e-05,1.13078e-05,4.78449e-06,0
-3.09985e-05,4.4565e-05,-9.95052e-06,-1.59484e-05,8.59374e-06,-1.02022e-05,1.08615e-05,6.43026e-06,0
-3.10349e-05,2.58234e-05,-1.13375e-05,-1.09228e-05,1.53761e-05,-9.90306e-06,1.1089e-05,6.41519e-06,0
-2.99e-05,7.84954e-06,-1.30353e-05,-3.41475e-06,2.09033e-05,-1.08547e-05,1.16403e-05,5.32359e-06,0
-2.89774e-05,-6.16799e-06,-1.53017e-05,2.45641e-06,2.21256e-05,-1.24745e-05,1.28995e-05,4.0512e-06,0
-2.93534e-05,-1.7924e-05,-1.77434e-05,1.85874e-06,1.84772e-05,-1.3195e-05,1.52264e-05,3.04211e-06,0
-2.91225e-05,-2.50786e-05,-1.91502e-05,-2.05069e-06,1.30645e-05,-1.20213e-05,1.77714e-05,2.18965e-06,0
-2.90466e-05,-2.55642e-05,-1.85918e-05,-3.85626e-06,8.94446e-06,-9.989e-06,1.89535e-05,4.66296e-06,0
-2.95871e-05,-2.21616e-05,-1.70856e-05,-3.67691e-06,5.6272e-06,-9.48143e-06,1.9599e-05,9.26206e-06,0
-3.09315e-05,-1.91542e-05,-1.60825e-05,-2.95894e-06,4.68358e-06,-1.14975e-05,1.91302e-05,1.13967e-05,0
-3.32128e-05,-1.50952e-05,-1.57846e-05,-3.53594e-06,6.04673e-06,-1.43545e-05,1.75185e-05,1.02194e-05,0
-3.53561e-05,-8.22973e-06,-1.53129e-05,-5.70759e-06,6.20631e-06,-1.59142e-05,1.56584e-05,8.25755e-06,0
-3.48209e-05,-1.05062e-06,-1.44967e-05,-8.40656e-06,3.86763e-06,-1.60644e-05,1.35528e-05,6.26358e-06,0
-3.21662e-05,3.45189e-06,-1.3309e-05,-9.54775e-06,1.64408e-06,-1.55291e-05,1.31345e-05,5.22457e-06,0
-3.11268e-05,4.78382e-06,-1.17095e-05,-9.09225e-06,2.2287e-06,-1.56531e-05,1.55855e-05,5.19071e-06,0
-3.22543e-05,3.9487e-06,-1.058e-05,-7.82577e-06,5.3999e-06,-1.65646e-05,1.88283e-05,5.15316e-06,0
-3.35002e-05,1.00527e-06,-1.01495e-05,-6.54995e-06,7.57439e-06,-1.59488e-05,1.90446e-05,5.09464e-06,0
-3.33331e-05,-1.94784e-06,-1.03182e-05,-5.44741e-06,6.83145e-06,-1.36082e-05,1.72665e-05,5.50028e-06,0
-3.32384e-05,-4.96913e-06,-1.00898e-05,-4.32296e-06,5.96297e-06,-1.08809e-05,1.66966e-05,6.35345e-06,0
-3.35621e-05,-6.10562e-06,-1.02359e-05,-3.44699e-06,6.3145e-06,-8.47964e-06,1.73676e-05,6.75804e-06,0
-3.28867e-05,-3.3371e-06,-1.06216e-05,-2.7123e-06,6.93912e-06,-6.82663e-06,1.74341e-05,7.46043e-06,0
-3.07573e-05,9.19597e-07,-9.87908e-06,-1.82387e-06,7.65858e-06,-6.25772e-06,1.69324e-05,8.05858e-06,0
-2.9516e-05,3.97813e-06,-9.4664e-06,-6.06215e-07,9.76355e-06,-6.11591e-06,1.69178e-05,6.59663e-06,0
-2.84825e-05,5.42608e-06,-1.07944e-05,-2.74289e-06,1.42375e-05,-4.75519e-06,1.75904e-05,5.60837e-06,0
-2.73948e-05,6.20756e-06,-1.10177e-05,-9.55202e-06,1.89068e-05,-3.80369e-06,1.72467e-05,4.84111e-06,0
-2.8072e-05,9.77513e-06,-1.09697e-05,-1.6002e-05,1.9027e-05,-4.94413e-06,1.58257e-05,2.20591e-06,0
-2.92602e-05,1.36325e-05,-1.07569e-05,-1.83122e-05,1.47632e-05,-4.97828e-06,1.27101e-05,-4.69419e-07,0
-2.97261e-05,1.3371e-05,-9.63831e-06,-1.61808e-05,1.20212e-05,-4.37928e-06,8.98345e-06,-2.05158e-06,0
-2.91802e-05,1.04677e-05,-9.79887e-06,-1.11983e-05,1.29318e-05,-4.75339e-06,7.21998e-06,-2.20473e-06,0
-2.79985e-05,9.45537e-06,-1.11777e-05,-7.06664e-06,1.51256e-05,-3.7039e-06,8.35391e-06,-1.82252e-06,0
-2.79501e-05,1.01447e-05,-1.26524e-05,-4.84862e-06,1.77219e-05,-2.38407e-06,1.06456e-05,-6.67977e-07,0
-3.04364e-05,1.14543e-05,-1.36168e-05,-2.4898e-06,2.09788e-05,-2.99221e-06,1.05487e-05,-2.28459e-06,0
-3.22097e-05,1.2774e-05,-1.42103e-05,-1.41049e-06,2.34315e-05,-4.905e-06,8.55097e-06,-5.03211e-06,0
-3.13104e-05,1.47958e-05,-1.28252e-05,-1.6255e-06,2.3817e-05,-7.87411e-06,6.49206e-06,-5.68618e-06,0
-3.00921e-05,1.69198e-05,-9.7688e-06,-2.19253e-06,2.2767e-05,-1.01105e-05,6.04418e-06,-4.86793e-06,0
-2.97874e-05,1.69105e-05,-8.41114e-06,-4.44127e-06,2.12878e-05,-1.1497e-05,7.51998e-06,-3.72675e-06,0
-2.94631e-05,1.69419e-05,-9.82538e-06,-7.09375e-06,2.06265e-05,-1.22804e-05,9.99862e-06,-3.9332e-06,0
-2.96535e-05,1.66528e-05,-1.07629e-05,-9.18983e-06,2.1875e-05,-1.22544e-05,1.17513e-05,-4.23834e-06,0
-3.08755e-05,1.65674e-05,-1.04054e-05,-9.93987e-06,2.34106e-05,-1.14738e-05,1.26307e-05,-4.70469e-06,0
-3.05828e-05,1.66523e-05,-1.05366e-05,-1.03169e-05,2.26624e-05,-1.02506e-05,1.38736e-05,-6.20834e-06,0
-2.89877e-05,1.68779e-05,-1.0429e-05,-1.11346e-05,2.1353e-05,-8.65583e-06,1.54414e-05,-8.34151e-06,0
-2.85263e-05,1.72922e-05,-9.78223e-06,-1.31641e-05,2.22596e-05,-7.20585e-06,1.69978e-05,-8.86187e-06,0
-3.0313e-05,1.7718e-05,-1.0085e-05,-1.41767e-05,2.44265e-05,-7.23888e-06,1.8342e-05,-8.3147e-06,0
-3.2808e-05,1.65312e-05,-1.14929e-05,-1.01533e-05,2.46433e-05,-8.42176e-06,1.88211e-05,-7.28279e-06,0
-3.36317e-05,1.46313e-05,-1.31842e-05,-1.42342e-06,2.10206e-05,-9.844e-06,1.9664e-05,-5.96772e-06,0
-3.18551e-05,1.44414e-05,-1.44148e-05,7.7177e-06,1.54871e-05,-9.30026e-06,2.10848e-05,-4.98311e-06,0
-2.91176e-05,1.53793e-05,-1.48221e-05,1.33535e-05,1.28046e-05,-7.34596e-06,2.04862e-05,-4.24079e-06,0
-2.87094e-05,1.56112e-05,-1.45203e-05,1.42685e-05,1.3553e-05,-7.08543e-06,1.88925e-05,-2.43309e-06,0
-3.00024e-05,1.39165e-05,-1.36257e-05,1.10289e-05,1.41304e-05,-8.75354e-06,1.96657e-05,-9.72205e-07,0
-3.05002e-05,1.0913e-05,-1.26598e-05,4.38575e-06,1.46547e-05,-9.58803e-06,2.20285e-05,-1.55051e-06,0
-3.10629e-05,1.10109e-05,-1.2211e-05,-5.11996e-06,1.37579e-05,-1.00537e-05,2.34177e-05,-1.39072e-06,0
-3.24721e-05,1.51903e-05,-1.2182e-05,-1.27366e-05,9.41445e-06,-1.17472e-05,2.21952e-05,8.68224e-07,0
-3.30816e-05,2.01068e-05,-1.08245e-05,-1.78424e-05,6.39358e-06,-1.35403e-05,2.00358e-05,3.35674e-06,0
-3.27827e-05,2.21761e-05,-8.45677e-06,-2.26276e-05,8.41513e-06,-1.28269e-05,2.01929e-05,5.02585e-06,0
-3.33451e-05,2.23662e-05,-7.64506e-06,-2.13536e-05,1.02021e-05,-1.22606e-05,2.02757e-05,5.47912e-06,0
-3.48585e-05,2.7294e-05,-7.66937e-06,-8.95882e-06,8.41138e-06,-1.34433e-05,1.96592e-05,5.40582e-06,0
-3.5636e-05,3.49367e-05,-6.74932e-06,5.30599e-06,7.18243e-06,-1.41177e-05,2.02661e-05,6.23828e-06,0
-3.40237e-05,4.09933e-05,-5.55565e-06,1.39355e-05,8.45652e-06,-1.48964e-05,2.0904e-05,6.51895e-06,0
-3.10794e-05,4.35182e-05,-5.79125e-06,1.60833e-05,1.0029e-05,-1.63767e-05,2.03029e-05,5.98298e-06,0
-2.92715e-05,4.25948e-05,-7.62976e-06,1.30048e-05,8.71423e-06,-1.77155e-05,1.9043e-05,4.47365e-06,0
-2.9633e-05,3.88252e-05,-9.18092e-06,7.96027e-06,6.51906e-06,-1.7532e-05,1.65708e-05,3.76935e-06,0
-3.15024e-05,3.29403e-05,-9.11117e-06,3.05937e-06,5.87896e-06,-1.61093e-05,1.2594e-05,4.12789e-06,0
-3.23013e-05,2.64145e-05,-7.7443e-06,-1.16664e-06,5.86509e-06,-1.42845e-05,9.73928e-06,3.24106e-06,0
-3.13031e-05,2.07672e-05,-7.39676e-06,-5.64597e-06,5.9742e-06,-1.39362e-05,9.22724e-06,1.20021e-06,0
-2.88379e-05,1.64458e-05,-8.21464e-06,-1.02397e-05,6.27384e-06,-1.5585e-05,9.34904e-06,-2.05194e-07,0
-2.66437e-05,1.093e-05,-8.73997e-06,-1.54142e-05,5.65521e-06,-1.78781e-05,8.51025e-06,7.2721e-08,0
-2.50676e-05,4.84603e-06,-8.07888e-06,-1.86782e-05,3.52074e-06,-1.93859e-05,7.1932e-06,3.4048e-07,0
-2.53834e-05,1.81263e-06,-6.78516e-06,-1.72196e-05,1.3704e-06,-1.93062e-05,5.89531e-06,-7.50295e-08,0
-2.74129e-05,4.43584e-06,-6.10916e-06,-1.07681e-05,-5.90113e-07,-1.77415e-05,6.28627e-06,-9.88263e-07,0
-2.90577e-05,1.13798e-05,-6.69813e-06,-2.43039e-06,-1.79892e-06,-1.67426e-05,8.6871e-06,-1.68794e-06,0
-2.8939e-05,2.10719e-05,-7.55921e-06,4.75314e-06,-1.63745e-06,-1.63706e-05,1.10711e-05,-1.15965e-06,0
-2.73198e-05,3.27129e-05,-6.76874e-06,9.46666e-06,5.90536e-08,-1.4191e-05,1.22231e-05,-2.08654e-07,0
-2.6156e-05,4.22345e-05,-4.31697e-06,1.09924e-05,1.4623e-06,-1.0456e-05,1.19203e-05,1.10597e-07,0
-2.54284e-05,4.38383e-05,-2.03774e-06,9.48885e-06,1.44215e-06,-7.13206e-06,1.16878e-05,6.50466e-07,0
-2.47512e-05,3.59687e-05,-1.55142e-06,5.49163e-06,1.33227e-06,-5.91014e-06,1.23931e-05,1.47497e-07,0
-2.4209e-05,2.42141e-05,-2.37184e-06,-9.7124e-08,2.52908e-06,-6.08836e-06,1.32873e-05,-2.34142e-06,0
-2.40482e-05,1.38091e-05,-4.34604e-06,-6.66296e-06,2.92601e-06,-5.52135e-06,1.38234e-05,-4.37929e-06,0
-2.35124e-05,7.70012e-06,-5.46546e-06,-1.52916e-05,1.50672e-06,-4.55206e-06,1.32409e-05,-4.28131e-06,0
-2.39274e-05,7.05806e-06,-4.95865e-06,-2.45668e-05,3.11208e-06,-4.21745e-06,1.18054e-05,-2.03786e-06,0
-2.56997e-05,1.04708e-05,-2.56794e-06,-2.98363e-05,8.31432e-06,-4.32598e-06,1.06637e-05,1.28434e-06,0
-2.73602e-05,1.30617e-05,3.17831e-07,-3.15852e-05,1.11443e-05,-2.61961e-06,1.07734e-05,3.08763e-06,0
-2.81568e-05,1.24336e-05,6.52683e-07,-3.07779e-05,9.8427e-06,-1.5684e-06,1.10209e-05,3.10508e-06,0
-2.89947e-05,1.78553e-05,-6.25633e-07,-2.61947e-05,6.86859e-06,-4.85854e-06,1.12023e-05,5.01567e-06,0
-2.92782e-05,2.80829e-05,-2.86047e-06,-1.89027e-05,3.74253e-06,-7.16018e-06,1.19075e-05,7.8581e-06,0
-2.94012e-05,3.28075e-05,-5.97064e-06,-1.23875e-05,2.95516e-06,-6.54401e-06,1.21087e-05,8.85476e-06,0
-3.01439e-05,3.04985e-05,-7.85357e-06,-6.77945e-06,5.77386e-06,-6.11994e-06,1.18673e-05,8.08086e-06,0
-3.05382e-05,2.33474e-05,-1.01545e-05,2.74869e-06,9.77795e-06,-7.23238e-06,1.07398e-05,5.72932e-06,0
-2.95986e-05,1.36358e-05,-1.33859e-05,2.21847e-05,1.13842e-05,-8.39657e-06,8.36227e-06,3.22516e-06,0
-2.94633e-05,3.07991e-06,-1.51332e-05,5.12208e-05,1.13706e-05,-8.2494e-06,6.38655e-06,2.79006e-06,0
-2.98652e-05,-5.93729e-06,-1.51949e-05,7.27286e-05,1.07026e-05,-7.30566e-06,7.20972e-06,4.61362e-06,0
-3.00769e-05,-1.42952e-05,-1.38466e-05,7.28163e-05,9.6773e-06,-6.8658e-06,8.7578e-06,5.94154e-06,0
-3.12612e-05,-2.17831e-05,-1.26946e-05,5.77643e-05,9.89398e-06,-6.73889e-06,1.10455e-05,4.77702e-06,0
-3.29256e-05,-2.52876e-05,-1.2389e-05,4.46593e-05,1.19422e-05,-5.45816e-06,1.3765e-05,3.00928e-06,0
-3.45439e-05,-2.09918e-05,-1.30954e-05,4.34014e-05,1.44507e-05,-3.65395e-06,1.44273e-05,1.62105e-06,0
-3.46977e-05,-9.07383e-06,-1.40723e-05,4.66971e-05,1.56464e-05,-2.90901e-06,1.2477e-05,7.77852e-07,0
-3.35205e-05,5.0305e-06,-1.43539e-05,3.94181e-05,1.5193e-05,-3.39424e-06,1.00967e-05,4.3414e-07,0
-3.23037e-05,1.4953e-05,-1.3296e-05,1.76647e-05,1.38631e-05,-4.81562e-06,9.50646e-06,-1.09804e-06,0
-3.30847e-05,1.8642e-05,-1.24937e-05,-7.61573e-06,1.34701e-05,-7.17249e-06,1.09324e-05,-4.46481e-06,0
-3.40321e-05,1.92182e-05,-1.5122e-05,-3.11375e-05,1.38828e-05,-8.90691e-06,1.43993e-05,-7.24381e-06,0
-3.37017e-05,2.27144e-05,-2.01193e-05,-5.50773e-05,1.32428e-05,-9.07193e-06,1.72618e-05,-6.38571e-06,0
-3.23732e-05,3.01896e-05,-2.1897e-05,-7.83275e-05,1.1069e-05,-8.0398e-06,1.83145e-05,-4.16687e-06,0
-3.17514e-05,3.65986e-05,-1.90362e-05,-9.60521e-05,1.08465e-05,-6.82085e-06,1.80646e-05,-3.58791e-06,0
-3.19483e-05,3.93311e-05,-1.50681e-05,-0.00010536,1.30877e-05,-7.32254e-06,1.71419e-05,-3.89554e-06,0
-3.13965e-05,3.72757e-05,-1.05748e-05,-0.000106391,1.48461e-05,-9.22099e-06,1.6144e-05,-3.40366e-06,0
-3.07984e-05,3.01665e-05,-6.99697e-06,-9.79279e-05,1.53338e-05,-9.8598e-06,1.52555e-05,-2.80666e-06,0
-3.1298e-05,1.74588e-05,-6.47302e-06,-7.9287e-05,1.53107e-05,-9.60359e-06,1.34038e-05,-2.60879e-06,0
-3.19097e-05,3.12017e-07,-6.60873e-06,-5.53182e-05,1.64327e-05,-9.24472e-06,1.07614e-05,-2.89389e-06,0
-3.14651e-05,-1.51692e-05,-6.21985e-06,-2.88737e-05,1.84089e-05,-8.66955e-06,9.0328e-06,-2.30033e-06,0
-3.13276e-05,-1.87693e-05,-4.88856e-06,-3.96581e-06,1.95971e-05,-8.60959e-06,9.73803e-06,-6.0555e-07,0
-3.16862e-05,-1.34116e-05,-3.67386e-06,1.46768e-05,2.1411e-05,-8.17739e-06,1.20385e-05,3.75056e-08,0
-3.10037e-05,-7.92198e-06,-5.22369e-06,2.22936e-05,2.44602e-05,-7.48503e-06,1.28249e-05,9.41217e-08,0
-2.95458e-05,-2.29537e-06,-6.57539e-06,1.77518e-05,2.62925e-05,-7.63276e-06,1.20637e-05,6.78515e-08,0
-2.92667e-05,3.8157e-06,-6.56599e-06,7.00847e-06,2.5416e-05,-7.94813e-06,1.24933e-05,1.43924e-06,0
-2.93196e-05,9.42896e-06,-7.41159e-06,-4.97878e-06,2.16932e-05,-8.94699e-06,1.30159e-05,2.78422e-06,0
-2.91552e-05,1.31507e-05,-8.38107e-06,-1.10981e-05,1.87282e-05,-9.45696e-06,1.46072e-05,1.97244e-06,0
-3.0107e-05,1.47297e-05,-7.47726e-06,-1.10736e-05,1.85302e-05,-9.94051e-06,1.58586e-05,1.36971e-06,0
-3.10411e-05,1.58251e-05,-5.63764e-06,-8.5276e-06,1.94686e-05,-1.1115e-05,1.5673e-05,3.02433e-06,0
-3.05066e-05,1.78134e-05,-4.08368e-06,-5.68822e-06,1.9639e-05,-1.15768e-05,1.58533e-05,4.94794e-06,0
-2.94616e-05,1.92034e-05,-2.83941e-06,-1.51871e-06,1.85583e-05,-1.11757e-05,1.55633e-05,6.3277e-06,0
-2.89559e-05,1.96445e-05,-1.90667e-06,5.53248e-06,1.74746e-05,-1.14951e-05,1.5473e-05,7.7152e-06,0
-2.94446e-05,1.93559e-05,-7.65523e-07,1.51395e-05,1.82688e-05,-1.25649e-05,1.52812e-05,7.12693e-06,0
-3.11743e-05,1.81134e-05,-8.96634e-08,2.51918e-05,2.06141e-05,-1.2228e-05,1.47267e-05,5.04365e-06,0
-3.29356e-05,1.6417e-05,-1.54107e-06,3.01869e-05,2.16729e-05,-1.13859e-05,1.369e-05,3.61093e-06,0
-3.30731e-05,1.59905e-05,-5.29605e-06,2.76589e-05,1.99093e-05,-1.20604e-05,1.25623e-05,3.38671e-06,0
-3.22902e-05,1.70928e-05,-8.77855e-06,2.03819e-05,1.74957e-05,-1.40104e-05,1.18875e-05,3.89583e-06,0
-3.19282e-05,1.82859e-05,-1.03565e-05,1.46327e-05,1.85946e-05,-1.44521e-05,1.19422e-05,4.56565e-06,0
-3.22974e-05,1.98047e-05,-1.04487e-05,1.19262e-05,2.22389e-05,-1.22075e-05,1.1695e-05,4.9819e-06,0
-3.29117e-05,2.24197e-05,-9.91133e-06,9.6282e-06,2.25206e-05,-9.04742e-06,1.06341e-05,6.02028e-06,0
-3.24672e-05,2.5894e-05,-8.10463e-06,5.09142e-06,1.81013e-05,-8.60025e-06,8.37688e-06,7.04825e-06,0
-3.08101e-05,2.70296e-05,-6.08641e-06,2.01789e-08,1.37377e-05,-1.06323e-05,6.46922e-06,6.91992e-06,0
-3.05466e-05,2.61258e-05,-5.26174e-06,-1.57797e-06,1.07301e-05,-1.25099e-05,5.56481e-06,5.26705e-06,0
-3.21223e-05,2.57115e-05,-4.86739e-06,4.98651e-07,8.11218e-06,-1.35131e-05,4.76748e-06,3.59322e-06,0
-3.1811e-05,2.51697e-05,-5.26471e-06,3.62003e-06,5.97833e-06,-1.39172e-05,8.08185e-07,2.54334e-06,0
-2.89756e-05,2.27989e-05,-6.49928e-06,4.20539e-06,5.48783e-06,-1.32045e-05,-5.70023e-06,4.13816e-07,0
-2.77932e-05,1.96262e-05,-6.60817e-06,3.2039e-06,5.58438e-06,-1.21755e-05,-7.71941e-06,-8.52882e-07,0
-2.83165e-05,1.70968e-05,-4.8857e-06,4.22712e-06,6.28869e-06,-1.13604e-05,-4.26189e-06,-4.33199e-07,0
-2.88924e-05,1.331e-05,-4.60201e-06,6.37443e-06,8.48975e-06,-9.9127e-06,9.6919e-07,-1.16208e-06,0
-2.95934e-05,1.05912e-05,-6.97286e-06,5.85514e-06,1.22081e-05,-9.41956e-06,6.53494e-06,-2.30953e-06,0
-3.04262e-05,1.04544e-05,-1.01938e-05,3.38703e-06,1.57218e-05,-1.03752e-05,1.20362e-05,-1.13132e-06,0
-3.10253e-05,1.10589e-05,-1.0807e-05,4.4881e-07,1.56251e-05,-1.09318e-05,1.59133e-05,4.59301e-07,0
-3.03755e-05,1.06435e-05,-8.741e-06,-2.93866e-06,1.42172e-05,-1.14121e-05,2.07217e-05,3.33323e-07,0
-2.89874e-05,9.21798e-06,-7.39603e-06,-4.7207e-06,1.4948e-05,-1.25282e-05,2.62061e-05,-3.82425e-07,0
-2.84914e-05,9.30293e-06,-7.81479e-06,-6.48826e-06,1.60196e-05,-1.30521e-05,2.84089e-05,9.9277e-08,0
-2.93164e-05,9.96472e-06,-7.71944e-06,-9.20646e-06,1.42054e-05,-1.16068e-05,2.71245e-05,1.99643e-06,0
-2.97834e-05,1.03096e-05,-6.28096e-06,-1.11313e-05,1.18505e-05,-9.82104e-06,2.26843e-05,4.03086e-06,0
-2.98061e-05,1.13261e-05,-5.88492e-06,-1.12602e-05,1.05748e-05,-9.09577e-06,1.66149e-05,4.85364e-06,0
-2.93998e-05,1.2471e-05,-6.50097e-06,-1.0436e-05,1.03836e-05,-8.5595e-06,1.36741e-05,3.90074e-06,0
