ch1,ch2,ch3,ch4,ch5,ch6,ch7,ch8,class
-2.86465e-05,6.73581e-06,-1.24742e-05,2.44132e-05,7.34087e-06,1.21647e-05,1.16614e-05,5.12555e-06,0
-3.09123e-05,7.39213e-06,-1.30423e-05,1.74921e-05,2.20433e-06,-3.42744e-06,9.63004e-06,3.00193e-06,0
-3.06968e-05,8.86673e-06,-1.18535e-05,5.13929e-06,-8.42795e-09,-8.76925e-06,6.03721e-06,1.3227e-06,0
-2.91554e-05,1.07269e-05,-1.02529e-05,-7.94137e-06,2.23836e-06,-6.07175e-06,3.65465e-06,1.71587e-06,0
-2.86501e-05,1.23954e-05,-7.84623e-06,-2.00845e-05,5.5725e-06,-3.4738e-06,4.60641e-06,2.54659e-06,0
-2.90109e-05,1.31306e-05,-5.67466e-06,-3.2962e-05,6.66211e-06,-5.06644e-06,5.21863e-06,2.77055e-06,0
-2.86719e-05,1.44108e-05,-4.37769e-06,-4.13742e-05,5.406e-06,-4.9599e-06,4.88745e-06,1.20567e-06,0
-2.88157e-05,1.6613e-05,-3.84525e-06,-4.17384e-05,4.07092e-06,-2.45037e-06,5.78544e-06,-8.10266e-07,0
-3.01555e-05,1.81877e-05,-3.41108e-06,-3.60809e-05,5.49588e-06,-2.13177e-06,5.88802e-06,3.29711e-07,0
-2.90146e-05,1.8496e-05,-2.62051e-06,-2.34006e-05,9.5448e-06,-3.27566e-06,6.32715e-06,1.60654e-06,0
-2.69208e-05,1.75667e-05,-2.41901e-06,-1.48774e-05,1.30008e-05,-3.80077e-06,7.62766e-06,2.30239e-06,0
-2.75914e-05,1.52913e-05,-1.26544e-06,-1.67824e-05,1.5119e-05,-3.82639e-06,8.01741e-06,2.2587e-06,0
-2.9741e-05,1.3337e-05,4.69668e-08,-1.8035e-05,1.64561e-05,-4.20869e-06,7.01572e-06,1.61691e-06,0
-3.14561e-05,1.13632e-05,-1.32593e-06,-1.25749e-05,1.79594e-05,-4.53857e-06,6.12515e-06,1.84877e-06,0
-3.30175e-05,1.00615e-05,-5.18787e-06,-7.76391e-06,1.84158e-05,-5.10596e-06,7.877e-06,2.81432e-06,0
-3.52217e-05,1.10522e-05,-9.79776e-06,-6.56717e-06,1.599e-05,-5.09727e-06,1.15102e-05,4.97835e-06,0
-3.75408e-05,1.37406e-05,-1.52972e-05,-6.11896e-06,1.17146e-05,-4.38737e-06,1.27563e-05,6.37599e-06,0
-3.78055e-05,1.47707e-05,-2.17118e-05,-6.0989e-06,8.73456e-06,-4.06746e-06,1.21893e-05,6.93152e-06,0
-3.57701e-05,1.18713e-05,-2.65188e-05,-8.08936e-06,8.40213e-06,-5.65653e-06,1.2633e-05,7.30623e-06,0
-3.35297e-05,6.62301e-06,-2.85225e-05,-1.17254e-05,7.99825e-06,-8.12624e-06,1.43544e-05,6.63833e-06,0
-3.27242e-05,1.09256e-06,-2.87775e-05,-1.48137e-05,6.73495e-06,-1.02392e-05,1.63202e-05,4.02924e-06,0
-3.21295e-05,-2.04186e-06,-2.74051e-05,-1.83267e-05,5.2635e-06,-1.15635e-05,1.78951e-05,1.07065e-07,0
-3.16359e-05,-7.83593e-07,-2.46504e-05,-2.46737e-05,4.58051e-06,-1.14372e-05,1.85361e-05,-2.05582e-06,0
-3.19635e-05,3.55336e-06,-2.21855e-05,-3.08184e-05,5.64969e-06,-1.11098e-05,1.78984e-05,-1.7499e-06,0
-3.26811e-05,6.61825e-06,-2.01274e-05,-2.98248e-05,8.41249e-06,-1.11679e-05,1.68894e-05,-9.83831e-07,0
-3.2773e-05,7.83169e-06,-1.80615e-05,-2.02433e-05,1.02616e-05,-1.17099e-05,1.66623e-05,6.64293e-09,0
-3.2816e-05,6.55635e-06,-1.7283e-05,-7.73155e-06,1.05789e-05,-1.26495e-05,1.64622e-05,-6.43341e-08,0
-3.32057e-05,3.76711e-06,-1.84105e-05,1.79623e-06,1.0421e-05,-1.50213e-05,1.49991e-05,-9.37598e-07,0
-3.22709e-05,1.87347e-06,-2.08375e-05,7.4617e-06,9.56974e-06,-1.78904e-05,1.315e-05,-5.89251e-07,0
-3.02085e-05,-1.01264e-06,-2.40597e-05,1.10937e-05,8.60054e-06,-1.91784e-05,1.27593e-05,4.23925e-07,0
-2.96809e-05,-5.03269e-06,-2.60419e-05,1.33314e-05,8.5643e-06,-1.93085e-05,1.31164e-05,7.95393e-07,0
-3.09246e-05,-7.57841e-06,-2.51084e-05,1.27675e-05,9.15657e-06,-1.81104e-05,1.17395e-05,-3.14631e-07,0
-3.11546e-05,-7.1517e-06,-2.28515e-05,9.70591e-06,1.06553e-05,-1.45325e-05,1.18567e-05,-1.47743e-06,0
-3.0182e-05,-4.29979e-06,-2.09235e-05,5.56651e-06,1.13812e-05,-1.13776e-05,1.30636e-05,-2.06382e-06,0
-2.84509e-05,-1.58826e-06,-2.0371e-05,2.85514e-06,1.08723e-05,-9.81039e-06,1.19368e-05,-3.01136e-06,0
-2.78435e-05,4.15235e-07,-2.14215e-05,2.19389e-06,1.13272e-05,-8.50805e-06,9.70975e-06,-4.59555e-06,0
-2.95721e-05,3.05853e-06,-2.07828e-05,2.55142e-06,9.68461e-06,-8.84541e-06,8.16944e-06,-4.60265e-06,0
-3.16962e-05,5.39451e-06,-1.78966e-05,3.28338e-06,5.51258e-06,-1.11711e-05,7.64055e-06,-2.55025e-06,0
-3.19877e-05,7.59962e-06,-1.60665e-05,2.92085e-06,2.08455e-06,-1.32007e-05,7.64731e-06,-6.99912e-07,0
-3.06947e-05,1.04551e-05,-1.51924e-05,2.42316e-06,2.52352e-06,-1.30968e-05,8.25248e-06,-1.00153e-06,0
-3.09942e-05,1.08855e-05,-1.26753e-05,3.83412e-06,6.22487e-06,-1.18158e-05,9.55149e-06,-3.67469e-06,0
-3.08738e-05,9.49015e-06,-8.93947e-06,3.58063e-06,8.86267e-06,-1.22462e-05,1.12127e-05,-4.7018e-06,0
-2.89305e-05,1.02987e-05,-6.13156e-06,5.71307e-07,1.06115e-05,-1.34088e-05,1.22733e-05,-4.5136e-06,0
-2.80187e-05,1.4051e-05,-5.35259e-06,-2.27765e-06,1.31637e-05,-1.20351e-05,1.13832e-05,-3.3262e-06,0
-2.88962e-05,1.81753e-05,-6.16337e-06,-5.72437e-06,1.50038e-05,-8.40116e-06,9.04469e-06,-1.6e-06,0
-2.99079e-05,2.02949e-05,-7.0082e-06,-9.7828e-06,1.44235e-05,-5.22033e-06,7.63332e-06,-1.26757e-06,0
-3.08129e-05,2.01114e-05,-7.09727e-06,-1.20442e-05,1.23613e-05,-3.36602e-06,6.87565e-06,-5.36963e-07,0
-3.13756e-05,1.86882e-05,-6.51434e-06,-1.04982e-05,1.07077e-05,-2.51842e-06,6.10311e-06,1.09607e-06,0
-3.05065e-05,1.83062e-05,-6.13881e-06,-6.55105e-06,1.03395e-05,-2.41024e-06,6.44015e-06,2.12657e-06,0
-2.925e-05,1.83935e-05,-6.22424e-06,-2.42526e-06,1.01631e-05,-2.79912e-06,9.14277e-06,3.24296e-06,0
-2.88571e-05,1.73931e-05,-5.26948e-06,-1.22367e-06,8.90912e-06,-4.9322e-06,1.17896e-05,5.65574e-06,0
-2.93893e-05,1.56461e-05,-3.63186e-06,-2.463e-06,7.68213e-06,-7.3726e-06,1.16444e-05,7.30514e-06,0
-2.95805e-05,1.50299e-05,-3.50129e-06,-3.04508e-06,7.52044e-06,-7.60329e-06,9.06268e-06,7.99899e-06,0
-3.00862e-05,1.42387e-05,-5.01178e-06,-2.77151e-06,8.23959e-06,-6.19828e-06,6.01072e-06,8.46068e-06,0
-3.18639e-05,1.27344e-05,-6.92513e-06,-3.95916e-06,9.32282e-06,-5.62724e-06,4.13678e-06,8.95573e-06,0
-3.3294e-05,1.30475e-05,-6.35519e-06,-7.60058e-06,9.54913e-06,-6.39968e-06,3.31791e-06,8.52853e-06,0
-3.34354e-05,1.49733e-05,-4.14823e-06,-1.11196e-05,8.92204e-06,-8.27707e-06,3.74716e-06,7.51073e-06,0
-3.26964e-05,1.71948e-05,-2.64086e-06,-1.49379e-05,8.73923e-06,-9.71577e-06,4.09453e-06,6.50225e-06,0
-2.9784e-05,1.90025e-05,-1.82442e-06,-1.98558e-05,9.01775e-06,-9.60469e-06,3.83004e-06,6.27726e-06,0
-2.65781e-05,1.70562e-05,-2.40729e-06,-2.36889e-05,1.00569e-05,-8.9886e-06,5.24714e-06,6.32259e-06,0
-2.57788e-05,1.29369e-05,-3.39905e-06,-2.31973e-05,1.22279e-05,-8.56033e-06,4.98718e-06,4.0161e-06,0
-2.68037e-05,1.21895e-05,-4.09315e-06,-1.77309e-05,1.20334e-05,-8.56989e-06,2.43349e-06,1.07661e-06,0
-2.78493e-05,1.17262e-05,-3.98947e-06,-9.9577e-06,9.5963e-06,-8.31225e-06,2.02434e-06,7.95024e-07,0
-2.80612e-05,8.80735e-06,-3.44315e-06,-1.54129e-06,1.04695e-05,-9.35315e-06,3.1943e-06,1.25706e-06,0
-2.91257e-05,5.21971e-06,-3.25054e-06,6.69737e-06,1.33063e-05,-1.08784e-05,5.17673e-06,1.42069e-06,0
-3.1777e-05,3.08915e-06,-3.48924e-06,1.33794e-05,1.41802e-05,-1.02828e-05,6.51658e-06,2.74602e-06,0
-3.35498e-05,3.90926e-06,-4.95963e-06,1.53213e-05,1.44449e-05,-9.85293e-06,7.71956e-06,5.04053e-06,0
-3.43655e-05,6.35436e-06,-6.17605e-06,1.30658e-05,1.59112e-05,-9.94541e-06,1.00247e-05,7.13921e-06,0
-3.31685e-05,8.9799e-06,-5.4345e-06,9.29666e-06,1.65596e-05,-9.86778e-06,1.26099e-05,6.59074e-06,0
-3.01808e-05,1.16831e-05,-3.4575e-06,4.54154e-06,1.57221e-05,-9.24383e-06,1.4311e-05,3.86529e-06,0
-2.98294e-05,1.35097e-05,-2.56377e-06,-1.69977e-06,1.51898e-05,-7.6127e-06,1.46193e-05,1.54484e-06,0
-3.10504e-05,1.41729e-05,-3.63973e-06,-7.3993e-06,1.58759e-05,-7.26574e-06,1.44157e-05,2.57017e-06,0
-3.1463e-05,1.39891e-05,-4.93892e-06,-9.61651e-06,1.76196e-05,-8.51047e-06,1.53047e-05,4.39739e-06,0
-3.09136e-05,1.26756e-05,-5.53975e-06,-9.61719e-06,2.00447e-05,-9.32929e-06,1.73282e-05,4.10351e-06,0
-3.03612e-05,1.05762e-05,-5.48061e-06,-1.10382e-05,2.20313e-05,-8.87603e-06,1.95667e-05,1.96166e-06,0
-2.93541e-05,9.03205e-06,-5.20574e-06,-1.47097e-05,2.19901e-05,-7.69714e-06,2.07531e-05,-6.4135e-07,0
-2.91666e-05,8.57611e-06,-5.09622e-06,-1.69857e-05,2.00464e-05,-6.35266e-06,1.96394e-05,-1.41528e-06,0
-3.09545e-05,8.63702e-06,-5.83812e-06,-1.83285e-05,1.72201e-05,-5.57246e-06,1.61299e-05,-1.2418e-06,0
-3.26041e-05,9.20781e-06,-7.3231e-06,-2.25372e-05,1.62113e-05,-4.99631e-06,1.1117e-05,-9.4376e-07,0
-3.25175e-05,1.05567e-05,-8.54378e-06,-3.12224e-05,1.82223e-05,-3.86432e-06,6.28974e-06,7.84326e-07,0
-3.06154e-05,1.26874e-05,-7.43489e-06,-4.46337e-05,2.03275e-05,-2.18237e-06,3.00314e-06,4.05447e-06,0
-2.76837e-05,1.50794e-05,-4.05613e-06,-5.94468e-05,2.03157e-05,-7.98781e-07,2.20588e-06,6.08366e-06,0
-2.5922e-05,1.52803e-05,-1.69321e-06,-6.56912e-05,1.82669e-05,-1.18608e-06,4.82951e-06,5.94008e-06,0
-2.52139e-05,1.1674e-05,-8.91028e-07,-5.99275e-05,1.47932e-05,-3.18154e-06,1.05814e-05,5.37675e-06,0
-2.44303e-05,8.07026e-06,-9.94669e-07,-4.76948e-05,1.32646e-05,-4.12939e-06,1.56512e-05,4.30667e-06,0
-2.51593e-05,7.44512e-06,3.17351e-07,-3.79379e-05,1.41515e-05,-4.09849e-06,1.7818e-05,2.32193e-06,0
-2.67224e-05,8.73078e-06,1.36523e-06,-3.29185e-05,1.54523e-05,-5.09108e-06,1.79159e-05,2.33851e-06,0
-2.644e-05,9.295e-06,-6.83535e-07,-2.32888e-05,1.38958e-05,-6.35055e-06,1.60124e-05,3.45372e-06,0
-2.51174e-05,1.04332e-05,-3.34451e-06,-5.83972e-06,1.06868e-05,-7.40977e-06,1.16709e-05,3.41777e-06,0
-2.47638e-05,1.33555e-05,-6.24797e-06,1.20711e-05,9.28907e-06,-7.84235e-06,8.18697e-06,2.71454e-06,0
-2.54558e-05,1.66279e-05,-6.94906e-06,2.32389e-05,9.45322e-06,-8.11842e-06,8.3553e-06,1.98451e-06,0
-2.72132e-05,1.94386e-05,-5.32269e-06,2.829e-05,1.14412e-05,-8.59833e-06,1.25708e-05,1.83454e-06,0
-2.79627e-05,1.93443e-05,-3.77734e-06,3.05684e-05,1.10951e-05,-1.01192e-05,1.63032e-05,2.91747e-06,0
-2.86147e-05,1.62467e-05,-3.08542e-06,3.00633e-05,1.00345e-05,-1.208e-05,1.60912e-05,4.45413e-06,0
-3.0085e-05,1.17154e-05,-3.5581e-06,2.59786e-05,1.0652e-05,-1.17029e-05,1.37277e-05,5.04964e-06,0
-3.1367e-05,8.81205e-06,-3.20185e-06,1.85633e-05,1.15232e-05,-9.65205e-06,1.23158e-05,5.04484e-06,0
-3.14982e-05,8.40904e-06,-1.81352e-06,1.04476e-05,1.23096e-05,-8.34074e-06,1.26651e-05,5.01026e-06,0
-2.99472e-05,7.67804e-06,-1.50979e-07,5.30355e-06,1.19124e-05,-9.22377e-06,1.32852e-05,6.12314e-06,0
-2.84289e-05,4.85488e-06,9.50253e-07,3.30137e-06,1.09548e-05,-1.13073e-05,1.32835e-05,7.43267e-06,0
-2.76366e-05,1.79616e-06,1.37066e-06,3.07465e-06,1.18325e-05,-1.25135e-05,1.07023e-05,7.24722e-06,0
-2.7114e-05,-9.26223e-08,6.58134e-07,3.6068e-06,1.52887e-05,-1.1377e-05,7.32678e-06,5.67877e-06,0
-2.66896e-05,-1.02679e-06,-8.78195e-07,4.56976e-06,1.88371e-05,-9.73052e-06,6.24016e-06,3.70361e-06,0
-2.71318e-05,-1.92618e-06,-2.67369e-06,5.37616e-06,2.14067e-05,-9.86277e-06,8.50752e-06,2.30903e-06,0
-2.85734e-05,-3.22809e-06,-4.44422e-06,4.14886e-06,2.28419e-05,-1.10101e-05,1.20988e-05,2.43184e-06,0
-3.06107e-05,-3.09522e-06,-6.67568e-06,5.07106e-07,2.18299e-05,-1.25112e-05,1.47969e-05,2.47157e-06,0
-3.28063e-05,-1.87328e-06,-9.48138e-06,-3.44688e-06,1.7887e-05,-1.42584e-05,1.51985e-05,1.02598e-06,0
-3.47995e-05,-1.44827e-06,-1.10292e-05,-5.8029e-06,1.41484e-05,-1.56011e-05,1.38666e-05,-4.73349e-07,0
-3.59567e-05,-1.44178e-06,-1.15682e-05,-4.87819e-06,1.36459e-05,-1.6036e-05,1.31818e-05,-1.60891e-06,0
-3.55923e-05,-7.69497e-07,-1.20912e-05,7.16489e-07,1.61293e-05,-1.60455e-05,1.4451e-05,-2.83853e-06,0
-3.42886e-05,-1.04042e-07,-1.40598e-05,1.40146e-05,1.86022e-05,-1.51143e-05,1.57822e-05,-2.65758e-06,0
-3.4725e-05,6.57067e-07,-1.7019e-05,3.30475e-05,1.9484e-05,-1.36525e-05,1.69949e-05,-1.19156e-07,0
-3.65212e-05,-1.66574e-07,-1.708e-05,4.41276e-05,1.83195e-05,-1.36862e-05,1.81222e-05,1.56878e-06,0
-3.54621e-05,-3.44569e-06,-1.50604e-05,3.92683e-05,1.7226e-05,-1.56133e-05,1.9616e-05,5.75212e-07,0
-3.10851e-05,-5.15169e-06,-1.40205e-05,2.46991e-05,1.95252e-05,-1.64809e-05,2.02609e-05,-1.49577e-06,0
-2.90618e-05,-2.18245e-06,-1.37281e-05,1.03012e-05,2.08597e-05,-1.58673e-05,1.75124e-05,-3.6706e-06,0
-3.12648e-05,1.94006e-06,-1.49361e-05,8.51243e-07,1.89376e-05,-1.525e-05,1.41185e-05,-5.49308e-06,0
-3.34916e-05,3.65996e-06,-1.54361e-05,-5.30533e-06,1.63368e-05,-1.47756e-05,1.25429e-05,-6.12473e-06,0
-3.37629e-05,4.10847e-06,-1.36329e-05,-8.74239e-06,1.45524e-05,-1.43546e-05,1.39866e-05,-6.45303e-06,0
-3.38031e-05,5.3299e-06,-1.15273e-05,-1.1352e-05,1.48334e-05,-1.26443e-05,1.53164e-05,-6.57548e-06,0
-3.46162e-05,7.49379e-06,-8.58281e-06,-1.64097e-05,1.55824e-05,-1.18002e-05,1.54076e-05,-5.56278e-06,0
-3.45073e-05,9.51093e-06,-5.27353e-06,-2.27796e-05,1.62048e-05,-1.07629e-05,1.52521e-05,-4.44124e-06,0
-3.3253e-05,1.15578e-05,-3.18442e-06,-2.84785e-05,1.64641e-05,-9.37449e-06,1.53768e-05,-5.26723e-06,0
-3.01191e-05,1.49355e-05,-2.29249e-06,-3.04442e-05,1.6627e-05,-8.92081e-06,1.51832e-05,-6.4014e-06,0
-2.75018e-05,1.93158e-05,-3.23398e-06,-2.73979e-05,1.61073e-05,-8.68864e-06,1.39515e-05,-5.80702e-06,0
-2.80302e-05,2.1897e-05,-5.20499e-06,-1.88337e-05,1.54041e-05,-7.86524e-06,1.21969e-05,-4.40133e-06,0
-3.04105e-05,2.37863e-05,-6.73767e-06,-7.58125e-06,1.51644e-05,-6.76356e-06,1.06087e-05,-3.26828e-06,0
-3.27589e-05,2.65485e-05,-7.67443e-06,1.5409e-06,1.44699e-05,-7.30997e-06,1.01467e-05,-3.39739e-06,0
-3.45202e-05,2.7772e-05,-8.70149e-06,6.63606e-06,1.35919e-05,-9.33673e-06,1.16178e-05,-4.09693e-06,0
-3.51584e-05,2.60896e-05,-1.05559e-05,6.95188e-06,1.2533e-05,-1.14793e-05,1.47093e-05,-4.90079e-06,0
-3.40046e-05,2.31863e-05,-1.20782e-05,3.98357e-06,1.19811e-05,-1.13417e-05,1.66409e-05,-5.27704e-06,0
-3.30001e-05,2.0983e-05,-1.19933e-05,1.58132e-07,1.16592e-05,-1.02373e-05,1.60945e-05,-4.57732e-06,0
-3.25383e-05,1.96343e-05,-1.08621e-05,4.91431e-07,1.04237e-05,-9.93321e-06,1.40181e-05,-3.53277e-06,0
-3.21187e-05,1.82248e-05,-9.50205e-06,9.76069e-06,7.82268e-06,-1.01e-05,1.23045e-05,-3.17198e-06,0
-3.21164e-05,1.63732e-05,-8.32905e-06,2.28342e-05,7.17899e-06,-9.25544e-06,1.19798e-05,-3.35347e-06,0
-3.25827e-05,1.51362e-05,-8.0246e-06,2.6042e-05,8.74366e-06,-7.83505e-06,1.25851e-05,-3.18191e-06,0
-3.27721e-05,1.59796e-05,-8.5758e-06,1.66499e-05,1.03008e-05,-6.7679e-06,1.24676e-05,-3.67268e-06,0
-3.30104e-05,1.90855e-05,-9.31798e-06,2.20403e-06,1.12357e-05,-6.31274e-06,1.19272e-05,-6.55191e-06,0
-3.27847e-05,2.24576e-05,-1.02135e-05,-9.90204e-06,1.14844e-05,-7.29799e-06,1.2437e-05,-1.08856e-05,0
-3.11608e-05,2.45775e-05,-1.25475e-05,-1.44114e-05,1.07615e-05,-7.89531e-06,1.43957e-05,-1.24055e-05,0
-2.91788e-05,2.53482e-05,-1.45653e-05,-1.0741e-05,1.08692e-05,-7.44407e-06,1.64099e-05,-9.3143e-06,0
-2.83741e-05,2.45234e-05,-1.46345e-05,3.34931e-07,1.27488e-05,-8.99313e-06,1.8418e-05,-7.59341e-06,0
-2.73101e-05,2.31367e-05,-1.39185e-05,1.17506e-05,1.35935e-05,-1.07538e-05,1.93358e-05,-8.48606e-06,0
-2.64617e-05,2.31822e-05,-1.2026e-05,1.24582e-05,1.39533e-05,-1.17217e-05,1.97534e-05,-9.3456e-06,0
-2.7453e-05,2.26973e-05,-1.0533e-05,1.01695e-06,1.5393e-05,-1.29845e-05,2.07122e-05,-9.67417e-06,0
-2.7646e-05,1.98086e-05,-1.10144e-05,-1.36044e-05,1.63701e-05,-1.5186e-05,1.90552e-05,-6.1054e-06,0
-2.71222e-05,1.64405e-05,-1.20899e-05,-2.51149e-05,1.44101e-05,-1.61723e-05,1.58295e-05,-1.16752e-06,0
-2.60793e-05,1.64565e-05,-1.23643e-05,-3.3431e-05,1.1068e-05,-1.42712e-05,1.45135e-05,8.28708e-07,0
-2.53921e-05,1.8961e-05,-1.15955e-05,-3.77859e-05,1.11164e-05,-1.29641e-05,1.49908e-05,7.68597e-08,0
-2.62785e-05,1.92066e-05,-9.58552e-06,-3.72513e-05,1.43962e-05,-1.38895e-05,1.44194e-05,-3.11917e-07,0
-2.71342e-05,2.04188e-05,-6.90699e-06,-3.35761e-05,1.71043e-05,-1.62761e-05,1.23161e-05,1.93746e-06,0
-2.77328e-05,2.33151e-05,-5.43911e-06,-2.95156e-05,1.76408e-05,-1.63101e-05,1.04376e-05,3.81171e-06,0
-2.75273e-05,2.48155e-05,-5.26602e-06,-2.7067e-05,1.64422e-05,-1.39777e-05,9.32154e-06,3.80226e-06,0
-2.63511e-05,2.54928e-05,-5.85359e-06,-2.81553e-05,1.50092e-05,-1.19205e-05,9.19308e-06,2.72408e-06,0
-2.45045e-05,2.72639e-05,-7.41248e-06,-2.96528e-05,1.4616e-05,-1.2872e-05,9.85788e-06,3.17141e-06,0
-2.33408e-05,2.90953e-05,-1.09995e-05,-2.80042e-05,1.55591e-05,-1.44952e-05,1.04877e-05,6.88209e-06,0
-2.41779e-05,2.84172e-05,-1.45604e-05,-2.41674e-05,1.65655e-05,-1.3072e-05,1.15741e-05,1.1103e-05,0
-2.69841e-05,2.65488e-05,-1.50642e-05,-1.97551e-05,1.71591e-05,-9.47036e-06,1.34154e-05,1.18077e-05,0
-3.03034e-05,2.41445e-05,-1.34532e-05,-1.71146e-05,1.72968e-05,-6.85771e-06,1.49853e-05,1.04556e-05,0
-3.13488e-05,2.11001e-05,-1.19033e-05,-1.86105e-05,1.71883e-05,-7.32875e-06,1.50257e-05,1.10541e-05,0
-3.04115e-05,1.99326e-05,-1.11929e-05,-2.44676e-05,1.67037e-05,-9.93459e-06,1.39975e-05,1.26815e-05,0
-3.02284e-05,2.14979e-05,-1.10552e-05,-3.0673e-05,1.57436e-05,-1.15268e-05,1.27493e-05,1.22214e-05,0
-3.14305e-05,2.32715e-05,-1.17882e-05,-3.26356e-05,1.53281e-05,-9.85414e-06,1.15932e-05,9.60956e-06,0
-3.26884e-05,2.46647e-05,-1.3102e-05,-3.1151e-05,1.5829e-05,-6.97521e-06,1.06604e-05,7.09229e-06,0
-3.29233e-05,2.58233e-05,-1.37824e-05,-3.10405e-05,1.71102e-05,-5.32313e-06,1.06257e-05,6.62099e-06,0
-3.03339e-05,2.67321e-05,-1.28003e-05,-3.35446e-05,1.72781e-05,-5.77567e-06,1.15313e-05,8.53807e-06,0
-2.61281e-05,2.73092e-05,-1.15523e-05,-3.22314e-05,1.57298e-05,-7.64113e-06,1.18519e-05,9.84591e-06,0
-2.41327e-05,2.78408e-05,-1.23427e-05,-2.00253e-05,1.52103e-05,-9.72562e-06,1.07786e-05,1.02417e-05,0
-2.50177e-05,2.85708e-05,-1.36069e-05,1.58066e-06,1.57391e-05,-1.12741e-05,9.59054e-06,1.05163e-05,0
-2.58348e-05,2.88008e-05,-1.33261e-05,2.16971e-05,1.5543e-05,-1.25814e-05,9.54672e-06,1.04828e-05,0
-2.62141e-05,2.90114e-05,-1.22045e-05,3.40907e-05,1.52502e-05,-1.22139e-05,1.00919e-05,8.96737e-06,0
-2.78848e-05,2.83429e-05,-1.10591e-05,3.84847e-05,1.56661e-05,-1.02863e-05,9.45532e-06,7.63247e-06,0
-2.91135e-05,2.51934e-05,-9.96494e-06,3.63017e-05,1.66314e-05,-8.7638e-06,7.25271e-06,7.48777e-06,0
-2.96061e-05,2.23709e-05,-8.55948e-06,3.05557e-05,1.84824e-05,-7.87375e-06,6.5082e-06,7.436e-06,0
-2.94356e-05,1.98783e-05,-8.30056e-06,2.06418e-05,1.96886e-05,-8.35436e-06,7.14222e-06,6.13005e-06,0
-2.81004e-05,1.81045e-05,-8.4354e-06,1.40864e-05,1.95496e-05,-9.82292e-06,7.4947e-06,3.0533e-06,0
-2.76083e-05,1.87159e-05,-7.87201e-06,1.44424e-05,1.89163e-05,-1.15009e-05,8.1374e-06,1.9922e-06,0
-2.77933e-05,1.87765e-05,-7.54784e-06,1.68901e-05,1.61175e-05,-1.27741e-05,9.05707e-06,2.85462e-06,0
-2.80465e-05,1.60134e-05,-7.46612e-06,1.76355e-05,1.31312e-05,-1.25547e-05,1.03489e-05,3.64784e-06,0
-2.85138e-05,1.20677e-05,-7.22526e-06,1.79926e-05,1.34966e-05,-1.09437e-05,1.19337e-05,4.32053e-06,0
-2.98784e-05,9.5782e-06,-7.57039e-06,1.84526e-05,1.59195e-05,-8.64814e-06,1.36428e-05,5.66976e-06,0
-3.08196e-05,8.34913e-06,-9.79638e-06,1.60958e-05,1.66445e-05,-7.3314e-06,1.55786e-05,6.15221e-06,0
-3.07721e-05,7.92238e-06,-1.29119e-05,1.11635e-05,1.4553e-05,-7.20563e-06,1.70289e-05,5.95124e-06,0
-3.10768e-05,7.73728e-06,-1.49539e-05,6.52696e-06,1.13077e-05,-7.34828e-06,1.78659e-05,5.97475e-06,0
-3.16894e-05,7.36932e-06,-1.61381e-05,4.0884e-06,8.09715e-06,-7.75659e-06,1.55494e-05,5.76985e-06,0
-3.26294e-05,7.18628e-06,-1.75349e-05,1.51069e-06,5.65872e-06,-8.25693e-06,8.42881e-06,4.84694e-06,0
-3.31027e-05,8.28104e-06,-1.79597e-05,-9.01624e-07,4.36707e-06,-8.6261e-06,6.40244e-07,2.95181e-06,0
-3.26355e-05,9.3737e-06,-1.694e-05,-1.50346e-06,5.33199e-06,-9.24433e-06,-2.97317e-06,1.72554e-06,0
-3.13016e-05,9.34259e-06,-1.61047e-05,3.14589e-07,8.65111e-06,-9.94925e-06,-1.37052e-06,1.23887e-06,0
-3.01434e-05,9.83083e-06,-1.67489e-05,1.93751e-06,1.16931e-05,-1.14213e-05,3.16631e-06,9.24952e-07,0
-3.03947e-05,1.01497e-05,-1.78277e-05,3.06282e-06,1.31689e-05,-1.32893e-05,8.56813e-06,1.57602e-06,0
-3.28321e-05,8.38201e-06,-1.82917e-05,3.47389e-06,1.17533e-05,-1.37465e-05,1.52129e-05,9.52815e-07,0
-3.45754e-05,7.86577e-06,-1.70329e-05,2.83804e-06,8.88585e-06,-1.25307e-05,2.43502e-05,-2.40799e-06,0
-3.31393e-05,1.05693e-05,-1.26616e-05,-2.36388e-06,7.59608e-06,-9.90934e-06,3.36505e-05,-4.77871e-06,0
-3.0177e-05,1.53421e-05,-7.3113e-06,-9.20988e-06,6.63026e-06,-8.25113e-06,3.91863e-05,-4.94122e-06,0
-2.79943e-05,2.24492e-05,-5.71174e-06,-1.02686e-05,4.55915e-06,-8.20382e-06,4.02006e-05,-4.26128e-06,0
-2.7099e-05,3.0354e-05,-6.53175e-06,-1.00452e-05,2.33197e-06,-8.76691e-06,3.87329e-05,-4.6702e-06,0
-2.83851e-05,3.42097e-05,-4.51036e-06,-1.44328e-05,6.06878e-07,-1.04942e-05,3.69956e-05,-4.49435e-06,0
-3.00953e-05,3.13103e-05,-4.98211e-07,-1.90814e-05,9.44802e-07,-1.23111e-05,3.52323e-05,-2.06608e-06,0
-2.93495e-05,2.49056e-05,2.75982e-06,-1.90651e-05,3.43261e-06,-1.21646e-05,3.18987e-05,-1.00519e-06,0
-2.89556e-05,1.66652e-05,3.89407e-06,-1.50315e-05,4.76946e-06,-9.58852e-06,2.69572e-05,-1.41818e-06,0
-2.95314e-05,7.26428e-06,3.24502e-06,-1.15798e-05,4.11861e-06,-6.22471e-06,2.14517e-05,-2.1299e-06,0
-3.07159e-05,-9.98027e-07,3.42572e-06,-1.34329e-05,1.45089e-06,-3.80004e-06,1.72039e-05,-3.01247e-06,0
-3.28438e-05,-6.59123e-06,4.41252e-06,-1.35396e-05,-2.95947e-08,-2.86149e-06,1.50166e-05,-1.62248e-06,0
-3.37688e-05,-8.63216e-06,4.33852e-06,-5.48393e-06,5.04335e-07,-3.43801e-06,1.34963e-05,1.43155e-06,0
-3.33691e-05,-8.79462e-06,2.78136e-06,1.05615e-05,2.57216e-06,-4.21684e-06,1.19436e-05,1.94327e-06,0
-3.35544e-05,-8.9042e-06,8.55321e-07,2.75852e-05,5.06512e-06,-4.69719e-06,1.07491e-05,-1.6566e-06,0
-3.37041e-05,-8.06412e-06,-2.17551e-08,3.53414e-05,6.92687e-06,-5.40502e-06,9.40209e-06,-5.28988e-06,0
-3.25902e-05,-4.62995e-06,7.32836e-07,2.8672e-05,8.29394e-06,-6.45924e-06,7.32733e-06,-5.30486e-06,0
-3.23361e-05,6.80376e-07,5.15133e-07,1.2569e-05,8.59934e-06,-7.77294e-06,5.64526e-06,-2.38833e-06,0
-3.36676e-05,5.36736e-06,-2.09622e-06,-1.97213e-06,8.01857e-06,-9.21166e-06,5.67488e-06,5.4939e-07,0
-3.41238e-05,8.62733e-06,-4.12855e-06,-8.02799e-06,6.71575e-06,-9.35334e-06,6.84416e-06,1.21784e-06,0
-3.24991e-05,1.09703e-05,-3.85085e-06,-5.48609e-06,7.01459e-06,-7.69165e-06,6.418e-06,-7.47689e-07,0
-3.03329e-05,1.21049e-05,-2.20167e-06,1.49009e-06,9.33376e-06,-6.09449e-06,1.55756e-06,-3.80888e-06,0
-2.954e-05,1.05807e-05,-2.5617e-07,8.67513e-06,1.38671e-05,-5.8966e-06,-7.63513e-06,-5.2176e-06,0
-2.99812e-05,6.05078e-06,4.70464e-07,1.35681e-05,1.97211e-05,-6.89057e-06,-1.70993e-05,-5.26488e-06,0
-2.9977e-05,1.73253e-06,-7.58953e-07,1.65409e-05,2.36646e-05,-6.81476e-06,-2.20637e-05,-5.69319e-06,0
-2.92778e-05,1.61913e-06,-2.23388e-06,1.52309e-05,2.24324e-05,-5.77028e-06,-1.98987e-05,-6.45875e-06,0
-2.86341e-05,5.54385e-06,-2.6102e-06,8.67226e-06,1.87326e-05,-5.13808e-06,-1.35028e-05,-6.57409e-06,0
-2.85846e-05,9.5185e-06,-2.56753e-06,1.37545e-08,1.67025e-05,-5.14796e-06,-6.21008e-06,-6.38627e-06,0
-2.84047e-05,9.25043e-06,-3.84602e-06,-5.35501e-06,1.59875e-05,-5.50315e-06,2.27461e-06,-8.02797e-06,0
-2.71465e-05,6.23138e-06,-5.81342e-06,-4.6526e-06,1.47283e-05,-4.82812e-06,1.10598e-05,-9.87492e-06,0
-2.56917e-05,5.72962e-06,-7.58947e-06,-1.39314e-06,1.43563e-05,-4.31886e-06,1.86216e-05,-8.55991e-06,0
-2.47144e-05,7.33677e-06,-6.64809e-06,1.27309e-06,1.46375e-05,-5.85065e-06,2.40654e-05,-5.85039e-06,0
-2.46672e-05,7.38857e-06,-3.88691e-06,3.64125e-06,1.40562e-05,-8.32687e-06,2.74983e-05,-5.25737e-06,0
-2.49267e-05,7.24823e-06,-1.97198e-06,8.32587e-06,1.36439e-05,-9.72145e-06,3.05223e-05,-6.44705e-06,0
-2.50345e-05,7.22402e-06,-7.79585e-07,1.47552e-05,1.32377e-05,-9.45166e-06,3.2245e-05,-7.36364e-06,0
-2.56628e-05,8.09082e-06,-1.70671e-06,1.86917e-05,1.22767e-05,-7.70907e-06,3.12331e-05,-7.69403e-06,0
-2.63229e-05,1.10408e-05,-3.88395e-06,1.69419e-05,1.07739e-05,-6.06607e-06,2.848e-05,-6.11826e-06,0
-2.59051e-05,1.33167e-05,-5.61032e-06,9.77769e-06,9.9812e-06,-6.72619e-06,2.56807e-05,-2.99779e-06,0
-2.66269e-05,1.29789e-05,-6.81864e-06,1.52575e-07,9.53451e-06,-8.25209e-06,2.32693e-05,-5.2864e-07,0
-2.84642e-05,1.14441e-05,-7.71686e-06,-9.83443e-06,8.55482e-06,-9.17626e-06,2.10511e-05,1.57398e-06,0
-2.94474e-05,1.10853e-05,-8.21069e-06,-1.9373e-05,7.34806e-06,-1.06346e-05,2.00577e-05,2.81694e-06,0
-3.02255e-05,1.19074e-05,-9.15647e-06,-2.58514e-05,6.13608e-06,-1.17695e-05,1.95515e-05,3.24407e-06,0
-3.07014e-05,1.31206e-05,-9.80886e-06,-2.75642e-05,5.37407e-06,-1.15965e-05,1.86163e-05,4.61009e-06,0
-3.03072e-05,1.47608e-05,-9.04964e-06,-2.66146e-05,5.99843e-06,-1.11183e-05,1.74455e-05,6.35398e-06,0
-2.97058e-05,1.56832e-05,-7.26353e-06,-2.64691e-05,8.06216e-06,-1.10995e-05,1.61601e-05,7.9059e-06,0
-2.98349e-05,1.39492e-05,-6.40062e-06,-2.67493e-05,1.08615e-05,-1.159e-05,1.37211e-05,1.0088e-05,0
-2.95272e-05,1.0377e-05,-7.02751e-06,-2.40662e-05,1.36055e-05,-1.20156e-05,1.05442e-05,1.16466e-05,0
-2.81681e-05,8.55181e-06,-7.32938e-06,-1.80051e-05,1.63557e-05,-1.19427e-05,7.98439e-06,1.09203e-05,0
-2.65884e-05,1.37338e-05,-5.92486e-06,-1.26036e-05,2.03117e-05,-1.07225e-05,5.75845e-06,8.60987e-06,0
-2.56147e-05,2.47434e-05,-4.05004e-06,-1.25459e-05,2.47412e-05,-8.88557e-06,2.94636e-06,6.13162e-06,0
-2.61555e-05,3.253e-05,-4.68349e-06,-1.53821e-05,2.56842e-05,-7.83508e-06,-4.53446e-07,4.28484e-06,0
-2.73106e-05,3.24097e-05,-7.13028e-06,-1.39754e-05,2.35513e-05,-7.4496e-06,-1.01431e-06,3.49789e-06,0
-2.71028e-05,2.84829e-05,-8.42461e-06,-4.91595e-06,2.03567e-05,-6.91844e-06,2.16479e-06,3.42294e-06,0
-2.65029e-05,2.21252e-05,-7.68956e-06,4.894e-06,1.62702e-05,-6.62251e-06,6.05877e-06,3.65962e-06,0
-2.70014e-05,1.35231e-05,-6.52752e-06,7.73682e-06,1.41807e-05,-6.31975e-06,9.44025e-06,3.90999e-06,0
-2.83485e-05,7.3451e-06,-5.60817e-06,2.66871e-06,1.40642e-05,-6.36855e-06,1.1349e-05,4.17313e-06,0
-2.94301e-05,3.38793e-06,-5.18662e-06,-1.14428e-05,1.44246e-05,-7.7255e-06,1.10192e-05,4.80859e-06,0
-3.04454e-05,-7.12263e-07,-6.44488e-06,-2.89697e-05,1.48769e-05,-9.93545e-06,1.05495e-05,5.60098e-06,0
-3.10325e-05,-4.01933e-06,-7.06228e-06,-3.82736e-05,1.27197e-05,-1.25867e-05,1.21727e-05,6.18439e-06,0
-3.24366e-05,-5.69027e-06,-6.48114e-06,-4.16655e-05,1.03174e-05,-1.42399e-05,1.43672e-05,5.83667e-06,0
-3.47166e-05,-2.85444e-06,-6.85972e-06,-4.7325e-05,8.94352e-06,-1.58161e-05,1.62279e-05,6.00114e-06,0
-3.49002e-05,3.4412e-06,-7.80138e-06,-4.96719e-05,7.01753e-06,-1.80833e-05,1.80357e-05,5.85845e-06,0
-3.41139e-05,1.11451e-05,-9.91834e-06,-4.5145e-05,6.35344e-06,-1.93962e-05,1.72888e-05,4.04634e-06,0
-3.31455e-05,1.80787e-05,-1.21693e-05,-3.75447e-05,5.68061e-06,-1.84801e-05,1.61187e-05,3.57748e-06,0
-3.22527e-05,2.21155e-05,-1.40184e-05,-2.8501e-05,4.88139e-06,-1.5925e-05,1.70076e-05,4.05374e-06,0
-3.22647e-05,2.45116e-05,-1.45558e-05,-1.68135e-05,5.12682e-06,-1.35286e-05,1.86462e-05,5.04624e-06,0
-3.21307e-05,2.371e-05,-1.28305e-05,-2.60468e-06,5.17519e-06,-1.23414e-05,2.06195e-05,5.6127e-06,0
-3.1605e-05,1.97365e-05,-1.04946e-05,8.12595e-06,4.95896e-06,-1.28049e-05,2.18747e-05,4.68833e-06,0
-3.29377e-05,1.51162e-05,-9.3884e-06,1.08028e-05,5.73796e-06,-1.30987e-05,1.98584e-05,3.98441e-06,0
-3.54411e-05,1.30757e-05,-1.00081e-05,6.58099e-06,7.59421e-06,-1.15502e-05,1.53048e-05,3.74083e-06,0
-3.5981e-05,1.43886e-05,-1.22353e-05,2.38375e-06,9.01968e-06,-8.99046e-06,1.14887e-05,3.59473e-06,0
-3.50442e-05,1.66458e-05,-1.47438e-05,2.65637e-06,1.2383e-05,-7.40565e-06,1.01657e-05,3.64913e-06,0
-3.42964e-05,1.74603e-05,-1.55003e-05,4.99185e-06,1.85808e-05,-6.95582e-06,1.20184e-05,4.63287e-06,0
-3.39641e-05,1.66757e-05,-1.46635e-05,6.28273e-06,2.31811e-05,-7.3068e-06,1.53538e-05,5.43026e-06,0
-3.38059e-05,1.60479e-05,-1.33152e-05,4.92884e-06,2.31212e-05,-8.02032e-06,1.76273e-05,5.42737e-06,0
-3.41973e-05,1.57596e-05,-1.27259e-05,1.57865e-06,1.95266e-05,-8.3749e-06,1.82659e-05,4.38186e-06,0
-3.50576e-05,1.34549e-05,-1.25356e-05,-2.14794e-06,1.50488e-05,-8.57176e-06,1.73995e-05,3.49473e-06,0
-3.4965e-05,9.16812e-06,-1.18228e-05,-5.46078e-06,1.21512e-05,-9.05989e-06,1.44445e-05,3.3396e-06,0
-3.34352e-05,5.11641e-06,-1.22322e-05,-8.8956e-06,1.23063e-05,-9.09476e-06,1.02394e-05,2.22876e-06,0
-3.12959e-05,1.1822e-06,-1.46413e-05,-1.20273e-05,1.36453e-05,-7.50679e-06,6.77195e-06,4.91695e-07,0
-2.98282e-05,-2.45607e-06,-1.57948e-05,-1.1174e-05,1.47292e-05,-6.10438e-06,4.94744e-06,-4.78763e-07,0
-3.00862e-05,-1.8608e-06,-1.50507e-05,-5.04239e-06,1.47898e-05,-6.16687e-06,2.3515e-06,7.46188e-07,0
-3.15028e-05,2.02693e-06,-1.43164e-05,6.06767e-06,1.4549e-05,-6.37172e-06,-1.01321e-06,2.08408e-06,0
-3.10077e-05,6.32669e-06,-1.34813e-05,2.31565e-05,1.39022e-05,-5.93611e-06,-2.79428e-06,1.22026e-06,0
-2.93912e-05,8.69313e-06,-1.19967e-05,3.6787e-05,1.07816e-05,-6.09903e-06,-7.17392e-07,-9.41786e-07,0
-2.90912e-05,9.11955e-06,-1.19753e-05,3.37456e-05,8.48872e-06,-7.87793e-06,2.90572e-06,-2.67888e-06,0
-2.9645e-05,1.04693e-05,-1.16694e-05,2.09084e-05,1.04421e-05,-9.44272e-06,6.08316e-06,-5.21129e-06,0
-2.99963e-05,1.1436e-05,-1.00366e-05,8.09921e-06,1.36744e-05,-9.08525e-06,9.91957e-06,-7.03478e-06,0
-2.94403e-05,1.25577e-05,-8.86681e-06,-3.93634e-06,1.45346e-05,-8.46719e-06,1.30337e-05,-6.00819e-06,0
-2.96075e-05,1.44534e-05,-8.48169e-06,-1.1645e-05,1.24194e-05,-7.51549e-06,1.60445e-05,-5.31991e-06,0
-3.01635e-05,1.96033e-05,-8.09444e-06,-1.51322e-05,1.02761e-05,-6.17809e-06,1.76137e-05,-5.42079e-06,0
-3.08045e-05,2.63279e-05,-5.68161e-06,-1.42565e-05,1.01993e-05,-5.98766e-06,1.72607e-05,-4.94636e-06,0
-3.03176e-05,3.0183e-05,-2.30996e-06,-1.18601e-05,1.31695e-05,-5.75733e-06,1.56577e-05,-4.46456e-06,0
-2.87884e-05,2.97994e-05,-2.83226e-07,-1.38172e-05,1.66239e-05,-5.23624e-06,1.55276e-05,-5.21493e-06,0
-2.81404e-05,2.63491e-05,-8.20469e-07,-2.23206e-05,1.79692e-05,-5.47141e-06,1.68081e-05,-6.84212e-06,0
-2.88104e-05,2.36803e-05,-2.16232e-06,-3.27129e-05,1.66713e-05,-5.72767e-06,1.67516e-05,-8.4081e-06,0
-3.04401e-05,2.38116e-05,-2.71354e-06,-3.94249e-05,1.41585e-05,-5.37368e-06,1.60882e-05,-9.04408e-06,0
-3.15372e-05,2.56435e-05,-3.00815e-06,-3.85132e-05,1.28336e-05,-5.14007e-06,1.4964e-05,-8.51733e-06,0
-3.2276e-05,2.59856e-05,-4.53328e-06,-2.87331e-05,1.31338e-05,-4.57361e-06,1.33944e-05,-5.74498e-06,0
-3.27189e-05,2.412e-05,-6.81071e-06,-1.50914e-05,1.51404e-05,-4.25226e-06,1.22258e-05,-1.65691e-06,0
-3.31779e-05,2.19068e-05,-9.04244e-06,-3.77201e-06,1.68907e-05,-5.58903e-06,1.19491e-05,1.04581e-06,0
-3.35907e-05,2.03171e-05,-9.86801e-06,1.77464e-06,1.7163e-05,-7.55207e-06,1.14843e-05,2.31597e-06,0
-3.37209e-05,1.81016e-05,-9.00925e-06,3.49066e-06,1.7249e-05,-8.44586e-06,1.0044e-05,2.72792e-06,0
-3.28142e-05,1.60845e-05,-9.18298e-06,2.11257e-06,1.81712e-05,-8.30771e-06,8.23058e-06,1.89707e-06,0
-3.21038e-05,1.53856e-05,-1.14538e-05,-1.52179e-06,1.78831e-05,-8.30934e-06,8.05892e-06,4.42709e-07,0
-3.19595e-05,1.67158e-05,-1.30586e-05,-4.79013e-06,1.71498e-05,-8.09583e-06,9.25642e-06,-1.6815e-07,0
-2.9605e-05,1.93068e-05,-1.19739e-05,-4.72329e-06,1.63051e-05,-7.33952e-06,1.1314e-05,-8.56452e-07,0
-2.53486e-05,1.99835e-05,-9.6388e-06,-1.17568e-06,1.50368e-05,-7.816e-06,1.30342e-05,-5.09706e-07,0
-2.24958e-05,1.91388e-05,-8.49018e-06,4.66127e-06,1.4927e-05,-1.05194e-05,1.29423e-05,1.50047e-06,0
-2.29888e-05,2.02602e-05,-1.09244e-05,1.13842e-05,1.71307e-05,-1.35113e-05,1.10345e-05,2.28888e-06,0
-2.56798e-05,2.12522e-05,-1.32909e-05,1.8143e-05,1.98019e-05,-1.51572e-05,8.42674e-06,2.09765e-06,0
-2.72469e-05,2.09287e-05,-1.07811e-05,2.41177e-05,2.12054e-05,-1.45462e-05,7.92328e-06,3.20322e-06,0
-2.67534e-05,2.1286e-05,-6.64117e-06,2.61697e-05,2.11452e-05,-1.19417e-05,9.08453e-06,4.40553e-06,0
-2.56401e-05,2.18365e-05,-4.11228e-06,2.33246e-05,1.90898e-05,-9.10674e-06,8.54945e-06,3.82848e-06,0
-2.59377e-05,2.14524e-05,-3.05388e-06,1.65288e-05,1.67344e-05,-6.52496e-06,7.06596e-06,2.38763e-06,0
-2.75004e-05,1.98365e-05,-4.81256e-06,5.57022e-06,1.64061e-05,-6.15778e-06,8.85782e-06,2.85589e-06,0
-2.78866e-05,1.87494e-05,-7.20301e-06,-7.53455e-06,1.71824e-05,-7.95742e-06,1.20267e-05,4.65121e-06,0
-2.77569e-05,1.72528e-05,-7.42022e-06,-2.05323e-05,1.54457e-05,-1.07687e-05,1.27935e-05,6.01764e-06,0
-2.7363e-05,1.44835e-05,-6.15325e-06,-3.08113e-05,1.19213e-05,-1.41292e-05,1.29273e-05,6.51672e-06,0
-2.76762e-05,1.27564e-05,-3.93667e-06,-3.63909e-05,9.71106e-06,-1.75465e-05,1.41017e-05,4.98343e-06,0
-2.77863e-05,1.2735e-05,-1.76809e-06,-3.7622e-05,8.41878e-06,-2.4108e-05,1.64551e-05,3.75118e-06,0
-2.69779e-05,1.22954e-05,-1.26007e-06,-3.61709e-05,7.40183e-06,-3.19504e-05,1.87319e-05,4.54124e-06,0
-2.57855e-05,1.12661e-05,-1.77119e-06,-3.30515e-05,8.70828e-06,-2.85378e-05,1.88837e-05,5.41714e-06,0
-2.51514e-05,9.95927e-06,-2.08216e-06,-2.89257e-05,1.19233e-05,-7.69862e-06,1.78412e-05,6.65383e-06,0
-2.58449e-05,8.59239e-06,-2.47256e-06,-2.46861e-05,1.47714e-05,1.50025e-05,1.70737e-05,8.39793e-06,0
-2.73613e-05,7.15452e-06,-2.90487e-06,-1.99212e-05,1.56042e-05,2.04396e-05,1.59371e-05,1.04605e-05,0
-2.88417e-05,5.24816e-06,-3.33355e-06,-1.53055e-05,1.3982e-05,8.96383e-06,1.38004e-05,1.19521e-05,0
-2.93901e-05,2.45249e-06,-4.43414e-06,-1.05541e-05,1.1066e-05,-3.84073e-06,1.17426e-05,1.14257e-05,0
-2.99243e-05,-4.16393e-07,-6.00231e-06,-5.97265e-06,8.56801e-06,-8.93013e-06,1.00125e-05,9.41043e-06,0
-3.12546e-05,-6.422e-07,-7.31267e-06,-2.4397e-06,7.10078e-06,-9.36137e-06,8.46488e-06,7.30392e-06,0
-3.30562e-05,4.70451e-06,-9.50912e-06,-1.21196e-06,6.54124e-06,-9.42642e-06,7.94954e-06,6.00794e-06,0
-3.27372e-05,1.70461e-05,-1.35157e-05,5.82884e-07,6.69251e-06,-9.02911e-06,8.77764e-06,4.42357e-06,0
-2.96755e-05,3.16538e-05,-1.7339e-05,3.63832e-06,7.26812e-06,-7.68109e-06,1.14464e-05,2.85655e-06,0
-2.61676e-05,4.07844e-05,-1.91531e-05,4.25126e-06,7.77036e-06,-6.2672e-06,1.53197e-05,2.42756e-06,0
-2.42554e-05,4.04179e-05,-1.88453e-05,2.15272e-06,7.57841e-06,-4.79717e-06,1.73579e-05,2.71608e-06,0
-2.48648e-05,3.00083e-05,-1.67667e-05,3.02234e-08,9.32714e-06,-3.69506e-06,1.68991e-05,1.16331e-06,0
-2.76077e-05,1.11461e-05,-1.31747e-05,-8.09346e-07,1.26898e-05,-4.10881e-06,1.54361e-05,-7.71817e-07,0
-3.00062e-05,-1.01515e-05,-9.74573e-06,-1.01426e-06,1.47523e-05,-5.75492e-06,1.49933e-05,-1.54279e-07,0
-3.10576e-05,-2.8709e-05,-9.41779e-06,-4.68976e-06,1.48111e-05,-7.34078e-06,1.64268e-05,1.08508e-06,0
-3.05283e-05,-3.96281e-05,-1.10073e-05,-8.58792e-06,1.43107e-05,-7.32613e-06,1.78237e-05,5.99075e-08,0
-3.01537e-05,-4.20179e-05,-1.21326e-05,-4.64309e-06,1.52909e-05,-4.44815e-06,1.70084e-05,-2.13585e-07,0
-3.05204e-05,-3.83285e-05,-1.27662e-05,1.38781e-06,1.68364e-05,-3.85747e-06,1.59168e-05,2.49279e-06,0
-3.00647e-05,-3.11401e-05,-1.25079e-05,4.62062e-06,1.95341e-05,-5.598e-06,1.65029e-05,3.49361e-06,0
-2.90495e-05,-2.41493e-05,-1.28203e-05,4.3944e-06,2.16147e-05,-7.52244e-06,1.75077e-05,2.68757e-06,0
-2.79964e-05,-1.94874e-05,-1.40584e-05,1.33532e-06,2.09106e-05,-9.3717e-06,1.98771e-05,1.13308e-06,0
-2.71713e-05,-1.78552e-05,-1.35157e-05,-1.98119e-06,1.83822e-05,-8.66383e-06,2.15534e-05,-1.42688e-06,0
-2.8161e-05,-1.37307e-05,-1.1793e-05,-4.26427e-06,1.62138e-05,-8.20853e-06,2.0522e-05,-2.80494e-06,0
-3.045e-05,-6.63306e-06,-1.085e-05,-4.67782e-06,1.6078e-05,-9.33732e-06,1.68399e-05,-1.71037e-06,0
-3.09196e-05,9.63828e-09,-1.12049e-05,-3.14999e-06,1.74968e-05,-1.09802e-05,1.09329e-05,2.378e-07,0
-3.05733e-05,4.07241e-06,-1.1328e-05,-8.10926e-07,1.8994e-05,-1.25538e-05,5.63894e-06,1.99306e-06,0
-3.0212e-05,5.15728e-06,-9.64208e-06,1.20825e-06,1.90645e-05,-1.55867e-05,3.43467e-06,3.02745e-06,0
-2.94883e-05,4.61109e-06,-6.67624e-06,4.58936e-06,1.79473e-05,-1.79566e-05,3.58308e-06,3.02487e-06,0
-2.91088e-05,3.73371e-06,-5.86334e-06,1.00805e-05,1.63579e-05,-1.60506e-05,4.56545e-06,3.1432e-06,0
-2.99732e-05,4.97309e-06,-8.18499e-06,1.65026e-05,1.48749e-05,-1.20634e-05,6.46779e-06,3.726e-06,0
-3.11682e-05,8.42207e-06,-1.13472e-05,2.10809e-05,1.31796e-05,-1.00236e-05,8.49977e-06,3.65161e-06,0
-3.27989e-05,1.24851e-05,-1.3334e-05,2.19391e-05,1.15801e-05,-1.09774e-05,1.02558e-05,1.02039e-06,0
-3.40577e-05,1.41463e-05,-1.34088e-05,1.92847e-05,1.04204e-05,-1.32066e-05,1.12059e-05,-2.87678e-06,0
-3.37993e-05,1.39e-05,-1.29838e-05,1.50026e-05,1.04957e-05,-1.4733e-05,1.09543e-05,-4.21268e-06,0
-3.27482e-05,1.31602e-05,-1.26588e-05,1.10403e-05,1.26675e-05,-1.39347e-05,1.02067e-05,-3.0887e-06,0
-3.18183e-05,1.112e-05,-1.1881e-05,9.70776e-06,1.53963e-05,-1.18928e-05,1.11e-05,-2.07083e-06,0
-3.20468e-05,7.8832e-06,-1.10548e-05,1.1989e-05,1.65443e-05,-9.81429e-06,1.28156e-05,-1.82735e-06,0
-3.23614e-05,6.33581e-06,-1.19597e-05,1.02731e-05,1.64845e-05,-1.00275e-05,1.2502e-05,-3.156e-06,0
-3.21325e-05,7.3221e-06,-1.30834e-05,-1.09472e-06,1.64004e-05,-1.26846e-05,9.97641e-06,-4.95459e-06,0
-3.23485e-05,9.65315e-06,-1.24711e-05,-1.68834e-05,1.76476e-05,-1.5699e-05,7.32179e-06,-4.59576e-06,0
-3.30296e-05,1.07033e-05,-1.20803e-05,-2.89464e-05,1.89553e-05,-1.73334e-05,6.53471e-06,-1.8072e-06,0
-3.37788e-05,1.15646e-05,-1.19756e-05,-3.49817e-05,2.04777e-05,-1.67117e-05,7.64997e-06,1.03927e-07,0
-3.33493e-05,1.50928e-05,-8.81334e-06,-3.57592e-05,2.30574e-05,-1.62722e-05,9.26313e-06,7.39093e-07,0
-3.17336e-05,1.58954e-05,-5.46659e-06,-3.23686e-05,2.3208e-05,-1.73176e-05,9.20504e-06,1.91416e-06,0
-3.01817e-05,1.44093e-05,-5.17159e-06,-2.86681e-05,2.11487e-05,-1.82534e-05,8.60785e-06,3.75028e-06,0
-2.95388e-05,1.62761e-05,-7.46511e-06,-2.39256e-05,1.88683e-05,-1.73309e-05,8.69516e-06,5.96992e-06,0
-3.10615e-05,1.88304e-05,-9.76174e-06,-1.66591e-05,1.57293e-05,-1.59491e-05,7.94945e-06,6.88221e-06,0
-3.22631e-05,1.91785e-05,-9.39731e-06,-9.39525e-06,1.26738e-05,-1.53748e-05,7.23942e-06,7.35911e-06,0
-3.18641e-05,2.03498e-05,-6.97345e-06,-5.08042e-06,1.1693e-05,-1.43519e-05,7.57347e-06,8.72984e-06,0
-3.15096e-05,2.1371e-05,-4.41266e-06,-3.23893e-06,1.39854e-05,-1.29137e-05,7.81097e-06,9.64178e-06,0
-3.21486e-05,2.01341e-05,-3.04953e-06,-1.80627e-06,1.78957e-05,-1.21392e-05,7.53384e-06,1.07282e-05,0
-3.29014e-05,1.82626e-05,-2.23351e-06,3.76643e-07,1.94534e-05,-1.15655e-05,6.75908e-06,1.13877e-05,0
-3.37458e-05,1.74087e-05,-2.49585e-06,3.22151e-06,1.98178e-05,-1.07446e-05,6.29378e-06,1.07841e-05,0
-3.33208e-05,1.9023e-05,-4.10985e-06,5.2598e-06,2.01247e-05,-1.01662e-05,6.97447e-06,1.05207e-05,0
-3.18102e-05,2.0484e-05,-4.7067e-06,6.38061e-06,1.98774e-05,-9.63864e-06,8.4478e-06,9.61981e-06,0
-3.18162e-05,1.88144e-05,-2.92108e-06,5.72976e-06,1.88028e-05,-8.88847e-06,8.89863e-06,7.72472e-06,0
-3.35999e-05,1.53782e-05,-7.525e-07,2.84112e-06,1.7659e-05,-8.42904e-06,8.59495e-06,6.84666e-06,0
-3.53594e-05,1.33056e-05,-1.04655e-07,-1.9937e-06,1.65438e-05,-8.02549e-06,9.53168e-06,7.96946e-06,0
-3.54664e-05,1.34275e-05,-1.14266e-06,-6.20384e-06,1.47227e-05,-7.61515e-06,1.10368e-05,8.86025e-06,0
-3.40219e-05,1.40071e-05,-2.86545e-06,-7.65565e-06,1.31624e-05,-8.02214e-06,1.21972e-05,8.0688e-06,0
-3.18947e-05,1.41764e-05,-4.83821e-06,-6.51304e-06,1.19975e-05,-8.98356e-06,1.43904e-05,7.19797e-06,0
-3.1078e-05,1.37538e-05,-6.39293e-06,-4.05106e-06,9.79307e-06,-9.4292e-06,1.75816e-05,7.62033e-06,0
-3.1029e-05,1.27854e-05,-7.5655e-06,-1.47413e-06,6.78392e-06,-8.89873e-06,1.9928e-05,8.78243e-06,0
-3.10214e-05,1.18948e-05,-8.7814e-06,-4.45902e-07,4.85497e-06,-8.79961e-06,2.0453e-05,8.56377e-06,0
-3.06607e-05,1.25812e-05,-9.58862e-06,-1.26954e-06,4.11516e-06,-1.04262e-05,1.88244e-05,6.85999e-06,0
-3.0146e-05,1.61576e-05,-8.74465e-06,-2.48641e-06,5.8024e-06,-1.33497e-05,1.65536e-05,4.35033e-06,0
-3.0275e-05,2.24306e-05,-5.77295e-06,-2.15824e-06,8.11522e-06,-1.55902e-05,1.52403e-05,1.45864e-06,0
-3.04632e-05,2.74673e-05,-3.26585e-06,-8.5426e-07,8.46356e-06,-1.68186e-05,1.47017e-05,-5.47198e-07,0
-2.93622e-05,2.9251e-05,-2.57626e-06,-2.46615e-06,8.74526e-06,-1.77438e-05,1.34344e-05,-1.88e-06,0
-2.85488e-05,2.99946e-05,-3.26449e-06,-4.87463e-06,1.03315e-05,-1.74371e-05,1.17994e-05,-2.231e-06,0
-3.01958e-05,2.98127e-05,-5.96908e-06,-4.4566e-06,1.12171e-05,-1.75672e-05,1.17246e-05,-3.29556e-06,0
-3.09696e-05,2.89179e-05,-1.01965e-05,-4.16745e-06,1.07331e-05,-1.80547e-05,1.14342e-05,-4.1259e-06,0
-2.9592e-05,2.91087e-05,-1.45943e-05,-5.31798e-06,1.12205e-05,-1.65897e-05,8.21518e-06,-3.81495e-06,0
-2.96047e-05,2.97057e-05,-1.535e-05,-4.09916e-06,1.28345e-05,-1.4103e-05,5.97008e-06,-4.01645e-06,0
-2.98505e-05,2.82756e-05,-1.35583e-05,-8.21425e-07,1.39374e-05,-1.24725e-05,6.30804e-06,-4.34053e-06,0
-2.93439e-05,2.62863e-05,-1.30227e-05,-2.53525e-07,1.47114e-05,-1.35049e-05,8.16852e-06,-4.86656e-06,0
-2.88265e-05,2.66331e-05,-1.17339e-05,-3.12075e-06,1.63967e-05,-1.51392e-05,1.08425e-05,-6.01408e-06,0
-2.90533e-05,2.74457e-05,-8.56171e-06,-4.67973e-06,1.82015e-05,-1.44971e-05,1.329e-05,-7.59586e-06,0
-3.01086e-05,2.54049e-05,-5.49354e-06,-7.86549e-07,1.72214e-05,-1.2337e-05,1.60926e-05,-8.84201e-06,0
-3.07032e-05,2.15108e-05,-3.98835e-06,8.35068e-06,1.47636e-05,-1.13851e-05,1.81606e-05,-8.7638e-06,0
-3.02815e-05,1.79249e-05,-3.09816e-06,1.76046e-05,1.38371e-05,-1.29749e-05,1.9246e-05,-7.42819e-06,0
-2.93295e-05,1.59278e-05,-3.15728e-06,2.50139e-05,1.42943e-05,-1.55703e-05,1.7863e-05,-5.87465e-06,0
-2.89075e-05,1.50605e-05,-4.09662e-06,3.28277e-05,1.34333e-05,-1.6687e-05,1.24458e-05,-4.19257e-06,0
-2.91372e-05,1.42632e-05,-5.2536e-06,3.9152e-05,1.17608e-05,-1.59935e-05,2.20691e-06,-3.18791e-06,0
-3.02137e-05,1.43895e-05,-5.48497e-06,3.61368e-05,1.2806e-05,-1.50725e-05,-9.32626e-06,-3.19751e-06,0
-3.09875e-05,1.53975e-05,-4.70913e-06,2.07336e-05,1.41176e-05,-1.43069e-05,-1.5653e-05,-4.2564e-06,0
-3.05882e-05,1.56064e-05,-4.09706e-06,-1.14198e-06,1.21184e-05,-1.48738e-05,-1.33347e-05,-5.69166e-06,0
-3.00599e-05,1.42766e-05,-4.95969e-06,-2.34704e-05,9.1018e-06,-1.64259e-05,-4.14882e-06,-6.48835e-06,0
-3.1155e-05,1.28646e-05,-6.82104e-06,-4.0613e-05,7.75893e-06,-1.59849e-05,7.35292e-06,-6.47091e-06,0
-3.31242e-05,1.1949e-05,-7.85597e-06,-4.66659e-05,5.71605e-06,-1.33425e-05,1.82222e-05,-7.65061e-06,0
-3.45339e-05,1.03563e-05,-8.58511e-06,-4.34965e-05,3.10476e-06,-1.13161e-05,2.72417e-05,-9.43197e-06,0
-3.4927e-05,7.89004e-06,-9.26773e-06,-3.96673e-05,2.69236e-06,-1.08552e-05,3.39817e-05,-9.59315e-06,0
-3.36069e-05,6.35736e-06,-9.7055e-06,-3.65654e-05,4.41874e-06,-1.07241e-05,3.71703e-05,-8.84545e-06,0
-3.19221e-05,5.47914e-06,-9.84011e-06,-3.27366e-05,5.71944e-06,-8.56448e-06,3.83014e-05,-8.27971e-06,0
-3.09667e-05,3.4998e-06,-8.91461e-06,-3.21148e-05,5.84755e-06,-5.71886e-06,3.88388e-05,-7.73988e-06,0
-2.94345e-05,3.21504e-06,-7.48222e-06,-3.33035e-05,7.12488e-06,-4.30089e-06,3.76347e-05,-7.01514e-06,0
-2.89149e-05,5.08273e-06,-6.51884e-06,-2.96284e-05,8.91127e-06,-3.32127e-06,3.47587e-05,-5.86134e-06,0
-2.8487e-05,4.99574e-06,-6.68064e-06,-2.1543e-05,7.22877e-06,-3.37356e-06,3.15442e-05,-3.84544e-06,0
-2.87789e-05,3.68707e-06,-8.22049e-06,-1.53412e-05,4.23961e-06,-3.13357e-06,3.11246e-05,-2.53817e-06,0
-2.7903e-05,2.21834e-06,-9.34956e-06,-1.29128e-05,6.05714e-06,-6.11152e-07,3.08682e-05,-3.74544e-06,0
-2.73292e-05,1.53702e-06,-8.92565e-06,-1.13223e-05,1.17253e-05,2.47199e-06,2.74641e-05,-4.10148e-06,0
-2.97629e-05,2.40835e-06,-6.85956e-06,-1.1063e-05,1.49626e-05,2.4179e-06,2.4919e-05,-3.50759e-06,0
-3.043e-05,4.32623e-06,-4.21501e-06,-1.12212e-05,1.4353e-05,-1.0698e-06,2.34026e-05,-4.8327e-06,0
-3.04994e-05,4.92749e-06,-9.83076e-07,-1.04273e-05,1.31606e-05,-3.96113e-06,2.07327e-05,-5.68137e-06,0
-3.05235e-05,3.315e-06,4.36886e-07,-1.01718e-05,1.18009e-05,-4.80947e-06,1.70008e-05,-6.14008e-06,0
-2.98921e-05,2.71404e-06,-2.08738e-06,-9.37522e-06,1.08044e-05,-4.84794e-06,1.26306e-05,-7.44949e-06,0
-2.841e-05,3.48874e-06,-5.42865e-06,-6.01235e-06,1.04825e-05,-4.2439e-06,8.70605e-06,-6.94325e-06,0
-2.78085e-05,3.69263e-06,-8.11573e-06,-1.26854e-06,1.00415e-05,-2.4203e-06,7.53636e-06,-4.12351e-06,0
-2.77607e-05,2.0794e-06,-1.01204e-05,-4.11487e-07,9.33761e-06,-1.7764e-06,8.02229e-06,-2.41439e-06,0
-2.81161e-05,2.19501e-06,-1.03804e-05,-7.57973e-06,9.15188e-06,-3.45812e-06,7.56599e-06,-9.68541e-07,0
-2.88418e-05,6.02616e-06,-8.75299e-06,-1.86283e-05,8.4192e-06,-5.74115e-06,6.47059e-06,1.8333e-06,0
-2.95512e-05,1.00173e-05,-6.71781e-06,-2.44456e-05,7.31561e-06,-6.94097e-06,6.73704e-06,4.05417e-06,0
-2.97049e-05,1.05964e-05,-5.57491e-06,-2.31866e-05,7.49939e-06,-7.58884e-06,8.13816e-06,4.27046e-06,0
-2.86943e-05,8.50599e-06,-5.8282e-06,-1.87599e-05,8.24804e-06,-8.84717e-06,8.51042e-06,3.65941e-06,0
-2.83022e-05,6.30989e-06,-6.85331e-06,-1.23331e-05,9.78894e-06,-9.00215e-06,7.26899e-06,3.45775e-06,0
-2.92027e-05,5.52811e-06,-7.53188e-06,1.21861e-07,1.21434e-05,-8.59583e-06,5.95463e-06,3.68959e-06,0
-3.0533e-05,6.50411e-06,-7.20647e-06,2.44598e-05,1.34746e-05,-8.64582e-06,6.02198e-06,3.16062e-06,0
-3.15476e-05,7.06847e-06,-5.4454e-06,5.4515e-05,1.24537e-05,-8.24907e-06,6.408e-06,2.71749e-06,0
-3.29585e-05,5.98338e-06,-3.6054e-06,7.34586e-05,1.13517e-05,-7.02342e-06,7.46874e-06,4.02194e-06,0
-3.31441e-05,5.74162e-06,-3.57879e-06,7.14902e-05,1.10608e-05,-6.00482e-06,9.35713e-06,6.46086e-06,0
-3.14629e-05,6.97441e-06,-4.81502e-06,5.15428e-05,1.03105e-05,-6.45856e-06,1.04526e-05,8.06803e-06,0
-2.9238e-05,7.85185e-06,-6.24941e-06,2.61621e-05,1.0028e-05,-7.66028e-06,9.62757e-06,6.85999e-06,0
-2.68286e-05,1.21598e-05,-6.48413e-06,-4.71974e-06,1.13383e-05,-7.63426e-06,7.5796e-06,4.24652e-06,0
-2.45597e-05,1.6597e-05,-6.02964e-06,-4.23536e-05,1.05895e-05,-7.75095e-06,6.69834e-06,3.97979e-06,0
-2.53775e-05,1.52571e-05,-7.836e-06,-7.08661e-05,6.68006e-06,-7.73361e-06,7.89201e-06,4.99819e-06,0
-2.67228e-05,1.01709e-05,-1.19468e-05,-7.9111e-05,5.2077e-06,-7.92136e-06,1.00796e-05,5.49088e-06,0
-2.59912e-05,3.33043e-06,-1.55426e-05,-6.99525e-05,5.99644e-06,-9.43726e-06,1.22306e-05,5.10606e-06,0
-2.61851e-05,-2.39781e-06,-1.7721e-05,-5.59783e-05,5.00504e-06,-1.07623e-05,1.25238e-05,3.0781e-06,0
-2.72502e-05,-6.21127e-06,-1.83883e-05,-4.14915e-05,3.02446e-06,-1.12448e-05,1.23446e-05,1.50367e-06,0
-2.86638e-05,-4.02525e-06,-1.76163e-05,-2.35863e-05,1.69789e-06,-1.08889e-05,1.37167e-05,-6.73699e-07,0
-2.87781e-05,5.8123e-06,-1.61259e-05,-2.2126e-06,2.26127e-06,-1.10562e-05,1.46713e-05,-2.18779e-06,0
-2.79151e-05,1.88502e-05,-1.35442e-05,1.88741e-05,7.70681e-06,-1.05105e-05,1.46768e-05,-1.18757e-06,0
-2.90307e-05,2.74634e-05,-1.03135e-05,3.42591e-05,1.76383e-05,-8.40486e-06,1.31231e-05,3.70237e-07,0
-3.14542e-05,2.7481e-05,-8.34652e-06,3.97184e-05,2.69539e-05,-5.86469e-06,1.0326e-05,7.87732e-07,0
-3.28195e-05,2.11375e-05,-9.46884e-06,3.44101e-05,2.92524e-05,-5.16971e-06,6.83565e-06,4.00403e-07,0
-3.28182e-05,1.39421e-05,-1.14612e-05,2.46566e-05,2.42908e-05,-6.40035e-06,1.98135e-07,7.4794e-08,0
-3.32655e-05,9.10229e-06,-1.15212e-05,1.56691e-05,1.68482e-05,-7.4455e-06,-8.86046e-06,-3.45797e-07,0
-3.36093e-05,5.44868e-06,-9.85735e-06,7.47135e-06,1.16102e-05,-7.91911e-06,-1.37103e-05,5.8249e-07,0
-3.23611e-05,2.75951e-06,-8.68062e-06,2.24981e-06,1.28074e-05,-8.90933e-06,-1.08537e-05,2.75205e-06,0
-3.10828e-05,-1.01327e-07,-8.26301e-06,5.1692e-06,2.09073e-05,-9.46081e-06,-3.92717e-06,3.31583e-06,0
-3.12529e-05,-3.89517e-06,-7.24154e-06,1.23956e-05,2.94978e-05,-8.5518e-06,2.36102e-06,5.81234e-07,0
-3.15287e-05,-9.25977e-06,-6.1092e-06,1.42047e-05,3.11158e-05,-7.24616e-06,7.88583e-06,-1.99979e-06,0
-3.02343e-05,-1.11066e-05,-5.47311e-06,9.57744e-06,2.72173e-05,-6.66823e-06,1.52316e-05,-1.17811e-06,0
-2.82842e-05,-6.36199e-06,-5.41775e-06,4.25686e-06,2.28881e-05,-6.93153e-06,2.22175e-05,1.90319e-06,0
-2.77418e-05,2.23996e-07,-6.06958e-06,-3.07361e-07,1.97626e-05,-6.71605e-06,2.60225e-05,3.53559e-06,0
-2.97625e-05,4.90009e-06,-6.20402e-06,-4.34692e-06,1.7594e-05,-6.15581e-06,2.74474e-05,2.54701e-06,0
-3.25813e-05,1.01246e-05,-5.33972e-06,-7.7863e-06,1.4844e-05,-5.94529e-06,2.89624e-05,1.9145e-06,0
-3.29515e-05,1.45568e-05,-6.11321e-06,-1.27167e-05,1.2612e-05,-7.51553e-06,2.81273e-05,3.97693e-06,0
-3.19579e-05,1.53867e-05,-7.6306e-06,-1.87504e-05,1.34548e-05,-9.82405e-06,2.3044e-05,6.75508e-06,0
-3.18407e-05,1.27305e-05,-9.16072e-06,-2.5083e-05,1.34447e-05,-1.13577e-05,1.79389e-05,5.07498e-06,0
-3.19284e-05,1.21268e-05,-1.02493e-05,-2.96186e-05,1.27104e-05,-1.0545e-05,1.37836e-05,1.19956e-06,0
-3.09799e-05,1.43383e-05,-1.00759e-05,-2.99491e-05,1.26898e-05,-8.25846e-06,1.20992e-05,-2.04939e-07,0
-2.91295e-05,1.49909e-05,-1.04406e-05,-2.71366e-05,1.17878e-05,-8.25392e-06,1.38643e-05,-4.74214e-07,0
-2.83497e-05,1.49369e-05,-1.15607e-05,-2.23443e-05,1.15291e-05,-9.88995e-06,1.80078e-05,7.11214e-08,0
-2.95383e-05,1.35521e-05,-1.35637e-05,-1.81276e-05,1.34019e-05,-9.83649e-06,2.27518e-05,1.31766e-06,0
-3.19558e-05,1.27279e-05,-1.52548e-05,-1.44505e-05,1.72364e-05,-9.0422e-06,2.58478e-05,2.57235e-06,0
-3.35316e-05,1.34841e-05,-1.47906e-05,-1.16846e-05,1.95011e-05,-9.33605e-06,2.63697e-05,2.98647e-06,0
-3.39828e-05,1.63321e-05,-1.28456e-05,-1.12851e-05,1.77348e-05,-8.61443e-06,2.4753e-05,1.82906e-06,0
-3.2928e-05,1.89695e-05,-1.09475e-05,-1.21584e-05,1.33199e-05,-6.25532e-06,2.32575e-05,5.02105e-07,0
-2.93577e-05,1.94772e-05,-1.07389e-05,-1.07203e-05,1.05625e-05,-5.07526e-06,2.13339e-05,-1.87776e-07,0
-2.6937e-05,1.71595e-05,-1.20924e-05,-6.99423e-06,1.17387e-05,-6.05804e-06,1.88886e-05,-5.75952e-07,0
-2.72134e-05,1.29557e-05,-1.30706e-05,-5.02769e-06,1.44833e-05,-7.01611e-06,1.72449e-05,-1.60568e-06,0
-2.85119e-05,9.07676e-06,-1.26261e-05,-5.0073e-06,1.67889e-05,-7.09382e-06,1.64261e-05,-2.79732e-06,0
-2.908e-05,8.02896e-06,-1.0911e-05,-4.91074e-06,1.75496e-05,-7.13202e-06,1.52389e-05,-2.85535e-06,0
-2.81995e-05,1.01373e-05,-9.11887e-06,-3.39239e-06,1.66251e-05,-8.15594e-06,1.32164e-05,-1.94991e-06,0
-2.6654e-05,1.14805e-05,-7.79921e-06,-2.55037e-06,1.59531e-05,-9.17284e-06,1.1153e-05,-1.02995e-06,0
-2.58829e-05,9.67945e-06,-6.67731e-06,-2.34153e-06,1.55339e-05,-8.77448e-06,1.00831e-05,-1.3365e-06,0
-2.67701e-05,6.80569e-06,-6.37475e-06,-1.46994e-06,1.39632e-05,-7.34421e-06,1.01086e-05,-3.62304e-06,0
-2.81769e-05,6.30954e-06,-7.19892e-06,1.21913e-07,1.17202e-05,-6.97238e-06,9.86623e-06,-5.95502e-06,0
-2.90672e-05,8.23031e-06,-7.1808e-06,2.27554e-07,1.07289e-05,-8.45226e-06,8.12368e-06,-5.04527e-06,0
-2.90716e-05,1.20536e-05,-5.2102e-06,-1.28777e-06,1.1108e-05,-1.00177e-05,5.07373e-06,-1.52846e-06,0
-2.83923e-05,1.58239e-05,-3.0254e-06,-2.27148e-06,1.07568e-05,-1.01426e-05,3.17366e-06,1.12242e-06,0
-2.67774e-05,1.86155e-05,-2.73429e-06,-2.31019e-06,9.2796e-06,-1.03398e-05,2.96527e-06,8.56957e-07,0
-2.43633e-05,1.99962e-05,-3.10901e-06,-2.48368e-06,8.5154e-06,-1.14803e-05,3.73894e-06,-5.70362e-07,0
-2.43709e-05,2.06579e-05,-2.94416e-06,-1.89217e-06,8.22624e-06,-1.18904e-05,5.33915e-06,-1.57926e-06,0
-2.74389e-05,2.18276e-05,-2.92953e-06,8.71635e-07,7.32906e-06,-1.07509e-05,5.40477e-06,-2.35106e-06,0
-2.80466e-05,2.47134e-05,-2.7981e-06,1.96705e-06,5.2147e-06,-9.88241e-06,3.94808e-06,-2.76352e-06,0
-2.7052e-05,2.83145e-05,-3.41753e-06,1.09344e-06,5.3787e-06,-1.15007e-05,4.57796e-06,-2.92078e-06,0
-2.81742e-05,3.19247e-05,-5.61808e-06,3.24323e-06,8.63452e-06,-1.43265e-05,6.32878e-06,-2.93192e-06,0
-2.98018e-05,3.45384e-05,-9.27601e-06,8.20355e-06,9.30673e-06,-1.51671e-05,5.87111e-06,-4.53168e-06,0
-3.07798e-05,3.43476e-05,-1.08774e-05,1.22843e-05,9.14559e-06,-1.35049e-05,4.45149e-06,-6.6221e-06,0
-3.08941e-05,3.21063e-05,-1.04743e-05,1.63479e-05,1.19793e-05,-1.04416e-05,5.18799e-06,-5.42409e-06,0
-2.96867e-05,2.90975e-05,-1.04483e-05,1.93415e-05,1.6733e-05,-7.39783e-06,6.80425e-06,-2.90115e-06,0
-2.82318e-05,2.83567e-05,-1.00666e-05,2.01696e-05,2.02769e-05,-6.48889e-06,6.91536e-06,-2.88219e-06,0
-2.73702e-05,2.88662e-05,-9.32612e-06,2.34135e-05,2.31983e-05,-8.12864e-06,6.58481e-06,-3.13342e-06,0
