ch1,ch2,ch3,ch4,ch5,ch6,ch7,ch8,class
-3.17163e-05,3.18088e-05,-7.35172e-06,-1.42236e-05,-1.89813e-05,-3.35564e-06,1.4411e-05,3.4564e-06,0
-2.83743e-05,1.76942e-05,-4.55159e-06,-2.15651e-05,-7.71637e-06,2.23803e-06,1.1029e-05,3.61962e-06,0
-2.41664e-05,1.65234e-05,-2.05556e-06,-2.10377e-05,1.84179e-05,5.43744e-06,1.0351e-05,2.57807e-06,0
-2.23613e-05,2.92579e-05,-4.04556e-06,-1.81681e-05,4.76172e-05,1.74505e-06,9.52583e-06,1.17611e-06,0
-2.20377e-05,4.13263e-05,-8.43233e-06,-2.02499e-05,6.51106e-05,-6.54498e-06,9.48523e-06,-5.23698e-07,0
-1.82865e-05,5.0863e-05,-1.04292e-05,-2.34992e-05,5.87478e-05,-1.39106e-05,1.10861e-05,-3.13392e-06,0
-1.18792e-05,6.62002e-05,-1.07283e-05,-2.32829e-05,3.18516e-05,-1.71384e-05,1.24888e-05,-5.03506e-06,0
-7.89695e-06,7.84816e-05,-1.15303e-05,-2.07904e-05,-2.25511e-06,-1.76772e-05,1.33976e-05,-5.15981e-06,0
-7.98831e-06,7.2437e-05,-1.36588e-05,-1.56131e-05,-2.99013e-05,-1.71801e-05,1.40544e-05,-4.69945e-06,0
-7.03311e-06,5.13264e-05,-1.53826e-05,-7.36043e-06,-4.60984e-05,-1.46939e-05,1.42179e-05,-4.1721e-06,0
7.85396e-07,3.31067e-05,-1.27764e-05,-5.49543e-07,-5.21377e-05,-1.19377e-05,1.4025e-05,-2.5427e-06,0
1.49848e-05,2.74523e-05,-7.43398e-06,-5.44167e-06,-4.92919e-05,-1.17498e-05,1.4175e-05,-3.38276e-07,0
2.45081e-05,2.14175e-05,-5.11497e-06,-2.1212e-05,-3.50817e-05,-1.40075e-05,1.49545e-05,9.07873e-07,0
2.00252e-05,-1.80382e-06,-7.0151e-06,-3.37151e-05,-1.42752e-05,-1.6102e-05,1.59085e-05,1.4495e-07,0
3.22791e-06,-3.0626e-05,-9.4572e-06,-3.15048e-05,-2.31345e-06,-1.71774e-05,1.6096e-05,-1.05002e-06,0
-1.7251e-05,-3.68003e-05,-1.0821e-05,-2.2429e-05,-4.95259e-07,-1.75595e-05,1.64191e-05,-6.90497e-07,0
-3.58212e-05,-1.96924e-05,-1.22711e-05,-1.74906e-05,1.18174e-05,-1.67132e-05,1.62267e-05,-3.24654e-09,0
-5.25598e-05,1.66849e-06,-1.46655e-05,-1.83378e-05,3.87205e-05,-1.39465e-05,1.41741e-05,-5.89048e-07,0
-7.01364e-05,1.5434e-05,-1.70981e-05,-2.04146e-05,6.02743e-05,-1.21522e-05,1.2204e-05,-1.67426e-06,0
-8.7037e-05,1.74195e-05,-1.73504e-05,-2.13698e-05,6.32946e-05,-1.52037e-05,1.24475e-05,-9.9631e-07,0
-9.40125e-05,1.27485e-05,-1.62703e-05,-2.15201e-05,5.73609e-05,-2.07651e-05,1.39373e-05,8.84953e-07,0
-8.43302e-05,2.94367e-06,-1.56899e-05,-1.86315e-05,5.63781e-05,-2.16176e-05,1.60128e-05,1.7037e-06,0
-6.31014e-05,-2.56163e-05,-1.45935e-05,-9.24999e-06,5.93388e-05,-1.95664e-05,1.82742e-05,2.34108e-06,0
-4.60732e-05,-5.36712e-05,-1.41717e-05,-3.07992e-07,5.41318e-05,-1.87381e-05,1.87485e-05,4.36988e-06,0
-4.38135e-05,-3.80318e-05,-1.38459e-05,1.03658e-06,3.99587e-05,-1.80666e-05,1.84057e-05,5.7722e-06,0
-5.58012e-05,8.54111e-06,-1.25938e-05,7.12412e-07,2.45745e-05,-1.69541e-05,1.8276e-05,4.53572e-06,0
-7.47904e-05,4.06414e-05,-1.01968e-05,-9.72807e-07,8.38276e-06,-1.48617e-05,1.67693e-05,2.07801e-06,0
-9.25192e-05,3.01495e-05,-6.92347e-06,-1.02913e-07,-8.14035e-06,-1.42467e-05,1.48189e-05,1.64346e-06,0
-0.000106797,-3.51508e-06,-6.18212e-06,6.38312e-06,-1.96628e-05,-1.74211e-05,1.50465e-05,2.58592e-06,0
-0.000108702,-2.48667e-05,-6.44266e-06,1.35538e-05,-9.00697e-06,-2.06336e-05,1.73809e-05,2.24056e-06,0
-8.74527e-05,-1.68607e-05,-4.80526e-06,1.65957e-05,2.0543e-05,-1.93418e-05,1.86383e-05,1.40335e-06,0
-4.38684e-05,2.49015e-05,-8.39037e-07,1.4135e-05,4.11251e-05,-1.59205e-05,1.72262e-05,1.82453e-06,0
6.77704e-06,7.69746e-05,2.80272e-06,8.46557e-06,4.61945e-05,-1.32823e-05,1.37996e-05,2.81536e-06,0
4.44193e-05,0.000101785,5.49817e-06,3.39587e-06,5.82011e-05,-1.16589e-05,1.07385e-05,3.02058e-06,0
5.67739e-05,8.23706e-05,9.19689e-06,2.09881e-06,8.38451e-05,-1.00197e-05,9.88219e-06,2.85469e-06,0
4.80392e-05,4.34838e-05,1.50006e-05,5.10478e-06,9.75885e-05,-7.37914e-06,1.05064e-05,2.85185e-06,0
3.84823e-05,1.75316e-05,1.97101e-05,1.30899e-05,8.3811e-05,-4.65524e-06,1.04613e-05,2.92107e-06,0
3.99276e-05,1.04648e-05,1.71506e-05,2.27767e-05,4.97898e-05,-4.06763e-06,9.81014e-06,2.65065e-06,0
4.30798e-05,7.08736e-06,7.23728e-06,2.79152e-05,6.36305e-06,-7.09624e-06,1.03345e-05,2.16876e-06,0
3.53762e-05,4.9549e-06,-4.1089e-06,2.37638e-05,-4.48808e-05,-1.07242e-05,1.15417e-05,2.44866e-06,0
1.90261e-05,1.29201e-05,-1.07464e-05,1.13003e-05,-9.48066e-05,-1.13256e-05,1.24902e-05,2.63841e-06,0
-2.10645e-07,2.79018e-05,-1.16028e-05,-2.49735e-06,-0.000116032,-1.04042e-05,1.27471e-05,1.62081e-06,0
-2.02972e-05,3.93316e-05,-9.55149e-06,-1.03601e-05,-9.01656e-05,-1.03618e-05,1.27307e-05,-1.39608e-07,0
-4.19085e-05,4.2087e-05,-8.14248e-06,-1.07912e-05,-1.59449e-05,-1.10427e-05,1.30214e-05,-1.55995e-06,0
-6.28984e-05,3.75124e-05,-7.06471e-06,-6.12899e-06,9.61792e-05,-1.19956e-05,1.51776e-05,-6.56983e-07,0
-7.61709e-05,2.91531e-05,-3.76165e-06,-8.74404e-07,0.000194348,-1.27795e-05,1.82964e-05,1.70737e-06,0
-7.45328e-05,2.18821e-05,1.74606e-06,4.38323e-07,0.000216969,-1.21219e-05,1.98504e-05,3.27629e-06,0
-5.84355e-05,2.18893e-05,8.92081e-06,-1.3614e-06,0.000180947,-9.28453e-06,1.94825e-05,4.86497e-06,0
-3.98955e-05,2.83347e-05,2.01949e-05,-2.5297e-06,0.000155785,-5.01621e-06,1.96068e-05,5.76944e-06,0
-3.34221e-05,3.01433e-05,3.54034e-05,-2.2321e-06,0.000136032,-9.99167e-07,2.28326e-05,4.42821e-06,0
-4.08351e-05,1.91104e-05,4.60884e-05,-1.618e-06,7.79486e-05,-1.41605e-07,2.62355e-05,3.74543e-06,0
-5.23114e-05,-3.51834e-06,4.30344e-05,-5.87561e-06,5.83069e-06,-5.18473e-06,2.56212e-05,3.20412e-06,0
-5.81765e-05,-1.76701e-05,2.40594e-05,-1.94623e-05,-4.23388e-05,-1.22867e-05,1.994e-05,1.19224e-06,0
-5.53299e-05,-3.65224e-06,-5.56807e-06,-3.28568e-05,-5.77458e-05,-1.45789e-05,1.47028e-05,3.04475e-07,0
-5.0204e-05,1.87852e-05,-4.07346e-05,-3.42683e-05,-5.35641e-05,-1.46962e-05,1.43886e-05,4.96045e-07,0
-4.64891e-05,1.82459e-05,-7.42019e-05,-2.69326e-05,-4.78962e-05,-1.68777e-05,1.57216e-05,5.01318e-07,0
-4.21017e-05,-5.90227e-07,-9.38992e-05,-1.93418e-05,-4.97689e-05,-1.58766e-05,1.6052e-05,5.87383e-07,0
-3.95482e-05,-1.39255e-05,-9.75138e-05,-1.15605e-05,-5.71468e-05,-8.46709e-06,1.40609e-05,1.67332e-06,0
-3.55135e-05,-8.43927e-06,-8.84448e-05,-2.71124e-06,-5.71615e-05,-1.71675e-06,1.0925e-05,1.47728e-06,0
-1.95351e-05,6.90914e-06,-7.45114e-05,5.99139e-06,-4.56625e-05,-1.58414e-06,8.99953e-06,-6.13946e-07,0
4.63156e-06,1.59188e-05,-6.19613e-05,1.07105e-05,-2.7376e-05,-5.11097e-06,9.23108e-06,-2.17134e-06,0
1.99907e-05,1.25246e-05,-5.10324e-05,6.66043e-06,-5.16814e-06,-7.58557e-06,9.82031e-06,-2.38063e-06,0
1.65403e-05,1.33587e-06,-3.99912e-05,-4.47969e-06,1.23307e-05,-8.22241e-06,9.60383e-06,-2.30627e-06,0
-1.17109e-06,-7.72094e-06,-2.80589e-05,-1.51968e-05,1.30108e-05,-7.7002e-06,9.32672e-06,-3.0585e-06,0
-1.92246e-05,-5.45075e-06,-1.80395e-05,-2.14729e-05,-6.09593e-06,-5.94159e-06,9.4851e-06,-4.23754e-06,0
-2.75481e-05,5.54773e-06,-1.11079e-05,-2.53629e-05,-3.62655e-05,-2.87719e-06,9.36934e-06,-4.53356e-06,0
-2.98666e-05,1.13881e-05,-6.53718e-06,-2.92833e-05,-5.75057e-05,5.10106e-07,8.18854e-06,-2.99122e-06,0
-3.51722e-05,4.85479e-06,-3.15171e-06,-3.15687e-05,-5.3492e-05,1.34889e-06,7.23251e-06,-1.62178e-06,0
-4.52185e-05,-8.0269e-06,-2.06737e-06,-3.02975e-05,-2.97912e-05,-1.93977e-06,6.72517e-06,-1.61109e-06,0
-5.05346e-05,-1.86957e-05,-2.19782e-06,-2.54483e-05,-9.0844e-06,-6.26644e-06,5.58771e-06,-1.55646e-06,0
-4.18954e-05,-2.73689e-05,-8.16019e-07,-1.47652e-05,-5.94366e-06,-6.15545e-06,4.03769e-06,-8.78517e-07,0
-2.81901e-05,-2.85207e-05,4.04997e-06,2.7061e-06,-1.43465e-05,1.0999e-07,4.64325e-06,-9.57846e-07,0
-2.96996e-05,-7.72023e-06,1.00648e-05,2.029e-05,-2.00096e-05,7.49272e-06,6.91901e-06,-2.0129e-06,0
-4.73387e-05,2.66879e-05,1.09197e-05,2.78251e-05,-1.96766e-05,9.84816e-06,8.03827e-06,-3.9746e-06,0
-6.69226e-05,4.74393e-05,5.23692e-06,2.42339e-05,-1.85434e-05,6.63029e-06,8.56685e-06,-5.71924e-06,0
-8.22296e-05,3.88237e-05,-9.49542e-07,1.59241e-05,-1.67657e-05,1.11405e-06,9.15174e-06,-5.106e-06,0
-9.11076e-05,1.39368e-05,-2.22589e-06,7.47029e-06,-1.35986e-05,-4.225e-06,8.58991e-06,-3.58474e-06,0
-8.54682e-05,-5.96001e-07,1.86354e-06,2.38647e-06,-9.30088e-06,-7.84806e-06,9.05531e-06,-4.262e-06,0
-6.90394e-05,-5.56574e-06,4.92671e-06,2.92245e-06,-4.59553e-06,-9.28475e-06,9.73516e-06,-5.47379e-06,0
-5.22949e-05,-1.49813e-05,4.24362e-06,2.37068e-06,-2.75839e-06,-8.07096e-06,8.35719e-06,-4.78869e-06,0
-3.99564e-05,-3.58782e-05,2.08529e-06,-5.42162e-06,-7.76357e-06,-5.12838e-06,5.85859e-06,-2.34136e-06,0
-3.43303e-05,-4.71796e-05,3.75267e-07,-1.63397e-05,-1.65722e-05,-3.88107e-06,5.28592e-06,3.84773e-07,0
-2.99986e-05,-3.06184e-05,-4.36789e-07,-2.00993e-05,-2.00946e-05,-4.99796e-06,7.59765e-06,9.42654e-07,0
-2.6336e-05,-5.50643e-06,-8.26633e-07,-1.27319e-05,-1.86636e-05,-6.82088e-06,8.97077e-06,7.92009e-07,0
-2.45232e-05,2.12908e-05,-4.104e-07,-1.25158e-06,-1.59153e-05,-9.83666e-06,7.28403e-06,1.35819e-06,0
-2.52769e-05,4.92884e-05,-1.80027e-07,4.29401e-06,-1.27465e-05,-1.29166e-05,6.01764e-06,1.78101e-06,0
-2.52158e-05,7.09979e-05,-4.92475e-07,5.62681e-06,-9.84806e-06,-1.41781e-05,7.51415e-06,1.24182e-06,0
-2.19655e-05,7.80906e-05,4.15699e-07,1.17789e-05,-6.70659e-06,-1.23495e-05,9.35123e-06,8.86594e-07,0
-1.6107e-05,7.94431e-05,4.95527e-06,2.41285e-05,-8.00797e-06,-7.04268e-06,1.04266e-05,6.21308e-06,0
-7.80679e-06,8.60721e-05,8.78529e-06,3.67417e-05,-1.31975e-05,-2.50617e-06,9.55674e-06,2.2154e-05,0
-3.52681e-06,8.12586e-05,6.64683e-06,4.28116e-05,-2.12643e-06,-1.33278e-06,8.00799e-06,4.08187e-05,0
-9.06422e-06,4.44186e-05,2.89563e-08,4.14627e-05,3.71068e-05,-2.97733e-06,8.62639e-06,4.85724e-05,0
-1.96586e-05,-1.09419e-05,-5.70318e-06,3.20357e-05,8.26392e-05,-5.49785e-06,1.14782e-05,4.27023e-05,0
-2.39784e-05,-4.25747e-05,-8.28913e-06,1.34366e-05,0.000105073,-6.75541e-06,1.35309e-05,2.54822e-05,0
-2.02372e-05,-4.01662e-05,-7.8416e-06,-1.23151e-05,9.54277e-05,-6.51882e-06,1.29174e-05,5.16814e-07,0
-1.71691e-05,-2.96424e-05,-5.33605e-06,-3.75059e-05,7.05581e-05,-5.30981e-06,1.0748e-05,-2.46342e-05,0
-2.28551e-05,-3.76825e-05,-2.78568e-06,-5.18613e-05,5.29976e-05,-4.31037e-06,9.47816e-06,-4.19926e-05,0
-3.46566e-05,-6.90671e-05,-1.97437e-06,-5.08563e-05,4.37517e-05,-5.03635e-06,9.31197e-06,-4.79089e-05,0
-4.50019e-05,-9.88732e-05,-2.12902e-06,-4.20948e-05,2.59291e-05,-7.60472e-06,9.49102e-06,-4.3544e-05,0
-4.72819e-05,-9.30522e-05,-3.8566e-06,-3.004e-05,-7.18653e-07,-8.78172e-06,1.02502e-05,-3.40268e-05,0
-3.96403e-05,-5.69693e-05,-8.50525e-06,-1.47072e-05,-8.96679e-06,-7.29028e-06,9.47748e-06,-2.57472e-05,0
-2.72298e-05,-2.96503e-05,-1.58683e-05,-3.44605e-06,1.27105e-05,-6.30286e-06,5.49242e-06,-1.79076e-05,0
-1.78988e-05,-2.46417e-05,-2.2874e-05,-1.47606e-06,4.5303e-05,-7.33202e-06,1.09677e-06,-9.05432e-06,0
-1.46129e-05,-2.70664e-05,-2.58888e-05,-7.8825e-06,8.37599e-05,-9.77625e-06,-1.42211e-06,-3.17794e-06,0
-1.53763e-05,-2.94242e-05,-2.48039e-05,-1.35274e-05,0.000110299,-1.05763e-05,-2.80285e-06,-1.40729e-06,0
-1.58945e-05,-2.48058e-05,-2.17502e-05,-1.26464e-05,9.34542e-05,-1.16492e-05,-2.98324e-06,-2.04984e-07,0
-2.06485e-05,-8.41977e-06,-2.03338e-05,-1.07032e-05,4.95224e-05,-1.29635e-05,-3.64132e-06,2.78296e-06,0
-3.25969e-05,1.06335e-05,-1.89565e-05,-1.00275e-05,6.04632e-06,-1.18467e-05,-4.88104e-06,6.31755e-06,0
-4.46198e-05,1.83935e-05,-1.48579e-05,-9.42557e-06,-2.70598e-05,-1.19167e-05,-5.81792e-06,9.51343e-06,0
-5.14056e-05,9.07012e-06,-9.74405e-06,-6.22804e-06,-4.90572e-05,-1.24328e-05,-5.43675e-06,1.0863e-05,0
-4.90994e-05,-5.25392e-06,-7.49507e-06,-5.54958e-07,-5.2871e-05,-1.21084e-05,-1.89389e-06,8.81239e-06,0
-4.13543e-05,-1.01678e-05,-7.06424e-06,-8.77951e-07,-3.24005e-05,-9.16894e-06,3.2075e-06,5.86493e-06,0
-3.15854e-05,-3.27357e-06,-6.28359e-06,-1.24488e-05,1.2173e-06,-6.325e-06,8.66113e-06,3.48244e-06,0
-2.35769e-05,7.04158e-06,-5.79487e-06,-2.95011e-05,3.05974e-05,-6.27298e-06,1.38086e-05,1.67114e-06,0
-1.88378e-05,1.65593e-05,-5.69459e-06,-4.17828e-05,4.78815e-05,-6.94593e-06,1.64206e-05,1.11972e-06,0
-1.54846e-05,3.09233e-05,-4.65627e-06,-4.40065e-05,5.52139e-05,-6.16865e-06,1.86523e-05,6.09944e-07,0
-1.31438e-05,5.49085e-05,-3.48701e-06,-3.80358e-05,5.19866e-05,-4.28977e-06,2.3098e-05,-3.19645e-07,0
-1.35043e-05,7.84024e-05,-5.20932e-06,-3.21482e-05,3.54389e-05,-2.95568e-06,2.87137e-05,-1.19248e-06,0
-1.63363e-05,8.84849e-05,-8.97604e-06,-3.0864e-05,8.11751e-06,-3.00446e-06,3.26701e-05,-1.51346e-06,0
-1.87028e-05,8.20717e-05,-1.13935e-05,-2.93914e-05,-1.24729e-05,-5.30832e-06,3.34894e-05,-1.3925e-06,0
-2.10816e-05,6.21081e-05,-9.49994e-06,-2.13438e-05,-1.31716e-05,-7.3745e-06,3.2006e-05,-5.93729e-07,0
-2.39107e-05,3.62636e-05,-4.95706e-06,-6.07388e-06,-7.70879e-07,-8.83396e-06,2.94081e-05,1.87827e-06,0
-2.03167e-05,2.10009e-05,-2.29735e-06,1.01424e-05,1.03462e-05,-1.02391e-05,2.6556e-05,5.04491e-06,0
-1.61949e-06,3.63325e-05,-4.93039e-06,1.92534e-05,1.83343e-05,-1.12744e-05,2.31241e-05,5.54575e-06,0
2.15237e-05,8.29982e-05,-1.12781e-05,1.9823e-05,2.74907e-05,-1.13426e-05,2.05333e-05,3.02173e-06,0
2.91674e-05,0.000130421,-1.55778e-05,1.82929e-05,3.5923e-05,-1.09709e-05,1.93395e-05,1.39148e-06,0
1.71402e-05,0.000139151,-1.58241e-05,2.06018e-05,3.59444e-05,-1.02831e-05,1.82643e-05,1.92311e-06,0
-1.00681e-05,0.000107317,-1.22599e-05,2.86888e-05,2.54301e-05,-1.09107e-05,1.72354e-05,1.54759e-06,0
-4.86747e-05,5.88473e-05,-6.65308e-06,3.90124e-05,1.2763e-05,-1.17199e-05,1.74637e-05,-5.22138e-07,0
-8.6721e-05,5.75143e-06,-1.68516e-06,4.53151e-05,1.70774e-06,-1.20672e-05,1.7305e-05,-6.48197e-07,0
-0.000113664,-6.7876e-05,-6.33209e-07,5.1665e-05,-7.83488e-06,-1.47232e-05,1.53355e-05,9.83155e-07,0
-0.000120943,-0.000138447,-5.50702e-06,5.9464e-05,-1.25836e-05,-1.8312e-05,1.32079e-05,1.32581e-06,0
-0.000106799,-0.000144715,-8.53899e-06,6.01201e-05,-1.02431e-05,-2.17132e-05,1.15129e-05,6.80154e-07,0
-7.29356e-05,-9.25856e-05,-6.46975e-06,5.07035e-05,5.26851e-07,-2.26792e-05,9.93661e-06,-1.56935e-07,0
-2.50923e-05,-2.22687e-05,-5.22975e-06,3.61165e-05,1.49091e-05,-1.94158e-05,8.17657e-06,-2.94574e-07,0
8.4991e-06,3.18415e-05,-8.83731e-06,2.05197e-05,2.19091e-05,-1.53342e-05,7.40018e-06,1.70969e-06,0
7.44097e-06,5.65754e-05,-1.71552e-05,1.5641e-06,2.0493e-05,-1.11713e-05,7.54154e-06,4.25421e-06,0
-1.77141e-05,5.22538e-05,-2.3539e-05,-1.88355e-05,9.61461e-06,-6.47658e-06,8.13374e-06,4.92143e-06,0
-4.37963e-05,3.28511e-05,-2.23018e-05,-3.59114e-05,-1.43466e-05,-4.10358e-06,9.41226e-06,3.63799e-06,0
-5.56401e-05,9.97326e-06,-1.62571e-05,-4.70022e-05,-3.35553e-05,-4.98194e-06,1.01807e-05,2.56657e-06,0
-5.15573e-05,-1.4541e-05,-9.64767e-06,-5.18908e-05,-2.46686e-05,-8.61401e-06,9.81702e-06,2.23318e-06,0
-4.52454e-05,-3.51708e-05,-3.59787e-06,-5.31158e-05,8.51428e-06,-1.30794e-05,8.54823e-06,2.38129e-06,0
-4.57019e-05,-5.39411e-05,1.72994e-06,-5.60308e-05,3.48388e-05,-1.66471e-05,8.04687e-06,1.49294e-06,0
-4.89046e-05,-6.69613e-05,6.72083e-06,-6.35133e-05,2.88968e-05,-1.83642e-05,8.36551e-06,-1.22022e-07,0
-4.84498e-05,-6.1877e-05,9.04497e-06,-7.03726e-05,-5.62266e-06,-1.76094e-05,7.76355e-06,-9.93877e-07,0
-4.06955e-05,-2.57467e-05,7.1243e-06,-6.97156e-05,-4.50861e-05,-1.56042e-05,6.97039e-06,-1.14673e-06,0
-2.67704e-05,2.93207e-05,2.11702e-06,-6.12366e-05,-6.16821e-05,-1.30187e-05,8.46363e-06,-1.3076e-06,0
-5.92529e-06,7.83701e-05,-2.80589e-06,-4.8735e-05,-4.24918e-05,-9.35597e-06,1.14157e-05,-8.22994e-07,0
2.0614e-05,0.00010851,-5.52352e-06,-3.30982e-05,5.76847e-06,-5.44589e-06,1.4374e-05,9.28442e-07,0
4.26136e-05,0.000124572,-6.0634e-06,-1.54846e-05,6.33205e-05,-2.46615e-06,1.73817e-05,2.51006e-06,0
4.73749e-05,0.000115179,-6.73663e-06,1.19357e-06,0.00010801,-2.50625e-06,1.8713e-05,2.81357e-06,0
3.35784e-05,7.31085e-05,-8.52096e-06,1.29863e-05,0.000129034,-6.4633e-06,1.65962e-05,1.06094e-06,0
1.00832e-05,2.99963e-05,-8.37711e-06,2.11571e-05,0.000135491,-8.244e-06,1.31661e-05,4.68634e-07,0
-1.21266e-05,1.62452e-05,-3.99513e-06,2.86401e-05,0.00012933,-5.41912e-06,1.16588e-05,7.58435e-07,0
-2.89937e-05,3.09979e-05,2.04629e-06,3.28057e-05,9.94224e-05,-2.73445e-06,1.16723e-05,1.20795e-06,0
-4.37324e-05,6.01709e-05,5.14738e-06,3.29667e-05,5.36217e-05,-4.15311e-06,1.31588e-05,2.40857e-06,0
-5.89214e-05,8.42405e-05,6.14302e-06,3.07635e-05,1.70509e-05,-1.01842e-05,1.48337e-05,2.90429e-06,0
-6.62954e-05,9.21818e-05,3.25812e-06,2.59734e-05,5.78714e-06,-1.5328e-05,1.58422e-05,2.54073e-06,0
-5.19224e-05,8.16231e-05,-4.39048e-06,1.94428e-05,1.19331e-05,-1.60986e-05,1.56354e-05,3.0232e-06,0
-2.50748e-05,4.32032e-05,-1.21219e-05,1.09673e-05,1.13806e-05,-1.53093e-05,1.41668e-05,5.0716e-06,0
-9.47446e-06,-2.47615e-05,-1.81496e-05,9.79899e-07,-7.66747e-07,-1.62606e-05,1.50663e-05,6.95483e-06,0
-1.52062e-05,-9.04384e-05,-2.33157e-05,-8.28677e-06,-1.12599e-05,-1.93228e-05,1.7025e-05,9.4617e-06,0
-2.82844e-05,-9.87678e-05,-2.56422e-05,-1.37098e-05,-1.46647e-05,-2.14472e-05,1.80391e-05,1.29185e-05,0
-2.7704e-05,-5.01269e-05,-2.46875e-05,-1.43767e-05,-1.05523e-05,-2.09437e-05,1.93269e-05,1.42644e-05,0
-1.79143e-05,8.56683e-06,-2.23166e-05,-1.13123e-05,-5.74741e-06,-1.93014e-05,2.02459e-05,1.37068e-05,0
-1.32537e-05,4.92835e-05,-1.77041e-05,-7.67591e-06,-6.0641e-06,-1.78788e-05,2.07962e-05,1.18659e-05,0
-2.76786e-05,7.06107e-05,-1.27537e-05,-8.33455e-06,-9.46554e-06,-1.83822e-05,2.10608e-05,9.72771e-06,0
-5.83241e-05,6.52879e-05,-8.86008e-06,-1.12441e-05,-9.02781e-06,-1.97796e-05,2.11743e-05,8.03907e-06,0
-8.71832e-05,2.74606e-05,-4.92482e-06,-1.23243e-05,-6.62306e-06,-2.11232e-05,1.96642e-05,6.5164e-06,0
-0.000103421,-9.43999e-06,4.85902e-07,-7.9728e-06,-1.3348e-05,-2.3064e-05,1.65978e-05,5.90628e-06,0
-0.000108456,-1.63495e-05,4.9194e-06,-5.20043e-07,-2.99761e-05,-2.6105e-05,1.37106e-05,5.13432e-06,0
-0.00011095,-3.71841e-06,6.27681e-06,4.43292e-06,-3.9808e-05,-2.91433e-05,1.24792e-05,3.06366e-06,0
-0.000107053,7.5744e-06,7.10393e-06,5.15558e-06,-3.03812e-05,-2.97904e-05,1.30837e-05,-2.56193e-07,0
-8.78646e-05,1.77016e-05,9.76539e-06,3.75133e-06,-1.13293e-05,-2.82434e-05,1.36451e-05,-3.72538e-06,0
-5.69184e-05,3.11657e-05,1.20993e-05,1.90872e-06,7.98877e-07,-2.66108e-05,1.29467e-05,-5.68354e-06,0
-3.07338e-05,3.80762e-05,9.16128e-06,-4.13004e-07,1.52936e-07,-2.58091e-05,1.1921e-05,-4.11221e-06,0
-1.65407e-05,4.16415e-05,1.81646e-06,-2.5343e-06,-5.09906e-06,-2.27419e-05,1.16744e-05,3.98851e-07,0
-1.13605e-05,4.47273e-05,-4.46213e-06,-4.34761e-06,-2.61737e-06,-1.61068e-05,1.08533e-05,4.77498e-06,0
-1.04447e-05,2.88091e-05,-7.55401e-06,-4.66421e-06,1.37736e-05,-1.02953e-05,1.04817e-05,6.46599e-06,0
-1.16064e-05,-1.10963e-05,-1.08718e-05,-1.92646e-06,2.98408e-05,-1.08121e-05,1.17839e-05,6.25908e-06,0
-1.2696e-05,-4.78372e-05,-1.45115e-05,3.99211e-06,2.35396e-05,-1.48297e-05,1.38049e-05,5.24335e-06,0
-1.36751e-05,-5.67201e-05,-1.70916e-05,1.01086e-05,3.4874e-06,-1.52988e-05,1.425e-05,4.73013e-06,0
-1.57113e-05,-3.76875e-05,-1.86432e-05,1.38853e-05,-4.43406e-06,-1.02753e-05,1.3146e-05,5.20316e-06,0
-1.61268e-05,-1.57267e-05,-2.01105e-05,1.18972e-05,4.61066e-06,-4.98273e-06,1.23024e-05,6.0953e-06,0
-1.73144e-05,-1.47116e-06,-1.99246e-05,-3.62799e-06,2.06177e-05,-2.32317e-07,1.22136e-05,5.48526e-06,0
-2.73733e-05,1.32934e-05,-1.51986e-05,-2.89805e-05,3.33099e-05,4.77621e-06,1.13627e-05,5.24016e-06,0
-4.51646e-05,2.50854e-05,-9.15899e-06,-4.74973e-05,3.89492e-05,3.35961e-06,1.01352e-05,6.01548e-06,0
-6.0858e-05,2.76476e-05,-4.51019e-06,-5.45155e-05,3.79548e-05,-3.06814e-06,1.03317e-05,5.50229e-06,0
-6.13273e-05,2.09994e-05,-2.43682e-06,-5.41873e-05,3.17956e-05,-7.49449e-06,1.24132e-05,6.52667e-06,0
-4.53322e-05,1.35556e-05,-5.00592e-06,-5.20895e-05,2.48754e-05,-8.05354e-06,1.54102e-05,8.09392e-06,0
-2.56956e-05,1.13932e-05,-8.81577e-06,-5.01094e-05,1.9106e-05,-6.85802e-06,1.64836e-05,9.89449e-06,0
-1.05423e-05,5.00675e-06,-1.02665e-05,-3.84726e-05,1.62907e-05,-4.40412e-06,1.53921e-05,1.19018e-05,0
-6.24354e-06,-9.26671e-06,-1.04913e-05,-7.59429e-06,1.70503e-05,-1.29754e-06,1.29543e-05,1.22326e-05,0
-7.31388e-06,-1.59838e-05,-1.22273e-05,3.5043e-05,1.98678e-05,-1.32907e-06,1.168e-05,1.01383e-05,0
-6.72783e-06,-9.6292e-06,-1.49071e-05,7.12077e-05,2.41344e-05,-4.25507e-06,1.31682e-05,6.31557e-06,0
-4.64129e-06,-1.31372e-06,-1.49472e-05,8.93351e-05,3.01681e-05,-6.2936e-06,1.48848e-05,2.86367e-06,0
-2.28306e-06,1.93871e-06,-1.39299e-05,8.96483e-05,3.49872e-05,-7.32015e-06,1.47877e-05,1.42125e-06,0
8.32957e-07,2.39988e-06,-1.57707e-05,7.83474e-05,3.48363e-05,-8.76763e-06,1.33042e-05,1.50066e-06,0
3.63259e-06,3.68089e-06,-1.93666e-05,6.49119e-05,2.96438e-05,-9.77925e-06,1.09328e-05,2.11715e-06,0
2.34034e-06,7.17176e-06,-2.17867e-05,5.70019e-05,2.15289e-05,-9.91771e-06,1.0187e-05,3.08932e-06,0
-4.84547e-06,8.84878e-06,-2.38438e-05,5.15495e-05,1.44987e-05,-1.02249e-05,1.19601e-05,3.72608e-06,0
-1.59765e-05,8.00207e-06,-2.6595e-05,4.09838e-05,8.40404e-06,-1.10727e-05,1.3527e-05,4.38513e-06,0
-2.48588e-05,8.43695e-06,-2.99131e-05,2.25803e-05,-6.22755e-06,-1.17098e-05,1.32938e-05,4.56248e-06,0
-2.71215e-05,1.07001e-05,-3.28841e-05,3.31958e-07,-2.91521e-05,-1.23379e-05,1.19732e-05,3.31443e-06,0
-2.4791e-05,1.27589e-05,-3.32806e-05,-1.88636e-05,-3.40448e-05,-1.3644e-05,1.09235e-05,8.99869e-07,0
-2.29348e-05,1.419e-05,-2.92125e-05,-2.9554e-05,-4.41928e-06,-1.51055e-05,1.05971e-05,-5.19176e-07,0
-2.18081e-05,1.60211e-05,-2.18378e-05,-3.50948e-05,4.7874e-05,-1.36351e-05,1.08547e-05,3.9263e-07,0
-2.26679e-05,1.92819e-05,-1.34476e-05,-4.23769e-05,9.42907e-05,-7.74973e-06,1.06192e-05,1.13991e-06,0
-2.98789e-05,2.15408e-05,-6.84107e-06,-5.46217e-05,0.000108116,-3.97153e-06,1.05997e-05,2.71625e-08,0
-4.0459e-05,1.83201e-05,-3.91048e-06,-6.48596e-05,0.000113555,-6.69382e-06,1.11639e-05,-1.99713e-06,0
-4.64268e-05,1.32059e-05,-2.92588e-06,-5.97074e-05,0.000134545,-1.12078e-05,1.11633e-05,-3.81488e-06,0
-4.56217e-05,6.94706e-06,-1.15496e-06,-2.88641e-05,0.000110071,-1.29755e-05,1.08739e-05,-3.90579e-06,0
-3.91187e-05,-4.055e-06,3.62501e-06,1.21531e-05,1.02834e-05,-1.23609e-05,1.06737e-05,-3.0267e-06,0
-3.06609e-05,-1.06773e-05,1.11389e-05,4.05156e-05,-8.17992e-05,-1.42116e-05,9.49819e-06,-2.75899e-06,0
-2.49093e-05,-7.23594e-06,1.72965e-05,4.64807e-05,-0.000119606,-1.70272e-05,8.3833e-06,-3.8916e-06,0
-2.34901e-05,-1.98453e-06,1.68457e-05,2.41722e-05,-0.000139213,-1.66633e-05,8.09372e-06,-6.39861e-06,0
-2.18003e-05,2.42028e-06,1.11145e-05,-1.42006e-05,-0.000157434,-1.49476e-05,7.49199e-06,-8.31421e-06,0
-1.53045e-05,9.37961e-06,6.0738e-06,-4.50679e-05,-0.000155769,-1.27436e-05,7.5793e-06,-7.56834e-06,0
-7.96077e-06,1.60863e-05,7.5278e-06,-5.01135e-05,-0.000105353,-1.11173e-05,9.90819e-06,-6.04227e-06,0
-5.39647e-06,2.01553e-05,1.81252e-05,-3.60204e-05,-8.76716e-06,-8.80078e-06,1.15902e-05,-4.85848e-06,0
-7.38231e-06,2.39303e-05,3.27224e-05,-1.68153e-05,7.58883e-05,-5.79048e-06,1.10414e-05,-4.21065e-06,0
-1.05676e-05,3.21535e-05,4.36568e-05,-3.25733e-06,0.000112606,-4.08982e-06,1.08461e-05,-4.33307e-06,0
-1.4906e-05,4.30041e-05,4.91128e-05,1.22357e-06,0.000124144,-3.83786e-06,1.14018e-05,-3.91678e-06,0
-2.14428e-05,4.53203e-05,5.27534e-05,-3.15132e-06,0.000129389,-3.6703e-06,1.16844e-05,-2.71793e-06,0
-2.93311e-05,3.61267e-05,5.22625e-05,-1.32712e-05,0.000119144,-2.03523e-06,1.14301e-05,-8.00887e-07,0
-3.44223e-05,2.96624e-05,4.07019e-05,-1.84381e-05,8.64099e-05,-4.22593e-07,1.14558e-05,5.51164e-07,0
-3.40436e-05,3.98979e-05,1.48414e-05,-1.29955e-05,4.19942e-05,-8.60167e-07,1.19692e-05,9.09841e-07,0
-2.97326e-05,5.91029e-05,-2.06653e-05,7.98275e-07,4.34997e-06,-2.58461e-06,1.22483e-05,1.10946e-06,0
-2.49543e-05,6.80893e-05,-5.5761e-05,1.44859e-05,-1.19574e-05,-3.44227e-06,1.21495e-05,2.45882e-06,0
-2.38363e-05,5.82867e-05,-8.0851e-05,2.33104e-05,-7.10385e-06,-3.53113e-06,1.3069e-05,3.68627e-06,0
-2.78868e-05,3.48331e-05,-8.97398e-05,2.41256e-05,4.38557e-06,-4.07562e-06,1.48315e-05,3.76746e-06,0
-3.27407e-05,-1.16426e-06,-8.25295e-05,1.71005e-05,8.53762e-06,-5.44945e-06,1.59068e-05,3.52165e-06,0
-3.43683e-05,-5.24055e-05,-6.8377e-05,5.24722e-06,1.06935e-07,-7.55639e-06,1.60995e-05,4.03151e-06,0
-3.4396e-05,-0.000101188,-5.73911e-05,-8.05082e-06,-1.33283e-05,-1.01228e-05,1.65915e-05,4.75201e-06,0
-3.51352e-05,-0.00010693,-4.97739e-05,-2.31566e-05,-2.36937e-05,-1.14986e-05,1.71603e-05,5.6721e-06,0
-3.67309e-05,-6.4759e-05,-4.17067e-05,-3.4382e-05,-3.60849e-05,-1.10363e-05,1.716e-05,5.81718e-06,0
-3.90935e-05,-1.94959e-05,-3.07879e-05,-3.68824e-05,-4.88784e-05,-8.29696e-06,1.63889e-05,4.99882e-06,0
-4.13594e-05,6.23163e-06,-2.00655e-05,-3.25081e-05,-5.33096e-05,-5.32984e-06,1.51545e-05,5.06181e-06,0
-3.9903e-05,2.8253e-05,-1.1962e-05,-1.93309e-05,-4.64351e-05,-6.73899e-06,1.43803e-05,3.51446e-06,0
-3.67061e-05,4.96209e-05,-5.53255e-06,-1.57574e-06,-3.1842e-05,-1.20757e-05,1.33906e-05,1.74118e-06,0
-3.63039e-05,5.74842e-05,-9.80817e-07,1.04489e-05,-1.55117e-05,-1.69436e-05,1.20486e-05,-2.16246e-07,0
-3.65196e-05,5.12395e-05,7.18672e-07,1.68039e-05,1.06442e-06,-1.79502e-05,1.10167e-05,-2.73098e-06,0
-3.49502e-05,4.17574e-05,2.20213e-06,2.52458e-05,1.5946e-05,-1.56696e-05,1.2075e-05,-3.13925e-06,0
-3.47138e-05,3.43173e-05,4.86345e-06,3.1336e-05,2.75151e-05,-1.40986e-05,1.29826e-05,-2.08333e-06,0
-3.69504e-05,1.16104e-05,3.67925e-06,2.31584e-05,3.28559e-05,-1.37684e-05,1.15398e-05,3.33722e-07,0
-3.86451e-05,-2.21995e-05,-3.21663e-06,2.12912e-06,2.87419e-05,-1.35324e-05,9.83488e-06,2.28334e-06,0
-3.90387e-05,-3.27209e-05,-1.09381e-05,-2.34148e-05,1.83082e-05,-1.28744e-05,9.94591e-06,3.06514e-06,0
-3.93709e-05,-1.55329e-05,-1.53107e-05,-4.93972e-05,1.28996e-05,-1.09674e-05,1.21417e-05,1.74175e-06,0
-4.11185e-05,4.48743e-06,-1.82183e-05,-6.94198e-05,1.6691e-05,-9.54772e-06,1.31047e-05,2.15291e-07,0
-4.32189e-05,1.55617e-05,-2.03232e-05,-7.38718e-05,2.10277e-05,-9.4538e-06,1.12817e-05,1.63191e-06,0
-4.18632e-05,2.35832e-05,-2.02093e-05,-6.72142e-05,2.04146e-05,-1.08307e-05,9.3934e-06,3.06133e-06,0
-3.59986e-05,3.30078e-05,-1.81095e-05,-6.09033e-05,2.01761e-05,-1.21947e-05,1.02355e-05,2.30075e-06,0
-3.11393e-05,3.66643e-05,-1.55507e-05,-5.62249e-05,2.36994e-05,-1.21862e-05,1.16803e-05,7.41949e-07,0
-3.0393e-05,2.82231e-05,-1.38351e-05,-5.09033e-05,2.78003e-05,-1.12534e-05,1.13253e-05,2.91992e-07,0
-3.15248e-05,1.60445e-05,-1.32013e-05,-4.55179e-05,3.22405e-05,-9.96459e-06,1.02367e-05,-6.18371e-07,0
-3.34775e-05,1.18529e-05,-1.25473e-05,-4.13589e-05,3.85216e-05,-8.56853e-06,1.06382e-05,-2.46647e-06,0
-3.527e-05,1.82283e-05,-9.8009e-06,-3.81372e-05,4.30662e-05,-7.95166e-06,1.22702e-05,-3.35648e-06,0
-3.08731e-05,3.17568e-05,-4.66458e-06,-3.51434e-05,3.9702e-05,-7.73943e-06,1.29648e-05,-2.81401e-06,0
-1.18707e-05,5.41631e-05,5.06675e-07,-2.75687e-05,2.76367e-05,-5.63849e-06,1.23219e-05,-2.9351e-06,0
2.11304e-05,8.05812e-05,5.61944e-06,-1.32775e-05,8.02977e-06,-2.56339e-06,1.09697e-05,-4.64523e-06,0
4.88601e-05,9.01508e-05,1.07493e-05,2.48719e-06,-1.52206e-05,-8.96258e-07,9.85127e-06,-6.17383e-06,0
5.14143e-05,7.40426e-05,1.32506e-05,9.58457e-06,-3.26866e-05,-1.02188e-06,9.21085e-06,-6.18454e-06,0
3.34026e-05,5.70782e-05,1.17119e-05,8.01344e-06,-3.01079e-05,-1.50882e-06,8.69145e-06,-5.6059e-06,0
6.26381e-06,6.04606e-05,6.14876e-06,2.63626e-06,6.31397e-06,-1.64088e-06,7.91854e-06,-4.33579e-06,0
-2.41002e-05,6.83234e-05,4.34015e-07,-2.80358e-06,6.44159e-05,6.70061e-07,6.97371e-06,-3.18608e-06,0
-6.07108e-05,3.10109e-05,-4.0379e-06,-6.63998e-06,0.000104365,1.85185e-06,5.84845e-06,-2.78333e-06,0
-9.50338e-05,-3.36794e-05,-8.88022e-06,-7.38386e-06,9.59331e-05,-3.7557e-06,4.67413e-06,-1.94788e-06,0
-0.000108127,-4.92512e-05,-1.32252e-05,4.3144e-07,6.5852e-05,-1.05973e-05,4.96387e-06,-1.7958e-06,0
-9.05088e-05,-1.93954e-05,-1.45471e-05,1.32089e-05,6.08686e-05,-1.16369e-05,6.31919e-06,-3.34361e-06,0
-4.92675e-05,6.71437e-06,-1.23121e-05,2.13375e-05,7.19122e-05,-8.18186e-06,6.58198e-06,-4.5203e-06,0
-1.6168e-05,1.59514e-05,-9.74037e-06,2.16242e-05,6.8011e-05,-5.91043e-06,5.84882e-06,-1.43969e-06,0
-7.1099e-06,2.77376e-05,-8.44989e-06,1.67379e-05,3.88405e-05,-6.08456e-06,5.47534e-06,2.34789e-06,0
-1.86749e-05,3.24554e-05,-6.90996e-06,1.21582e-05,-2.23379e-07,-6.72773e-06,7.00499e-06,1.75074e-06,0
-3.86217e-05,1.22172e-05,-4.56197e-06,1.00546e-05,-3.48757e-05,-6.69052e-06,9.72963e-06,-1.02266e-06,0
-5.48227e-05,-3.36414e-05,-3.95075e-06,2.18831e-06,-5.62272e-05,-6.24967e-06,1.22483e-05,-7.71209e-07,0
-6.31645e-05,-8.67397e-05,-5.34942e-06,-1.32857e-05,-5.93037e-05,-7.0796e-06,1.29566e-05,5.80178e-06,0
-6.80356e-05,-0.000113353,-5.83501e-06,-2.19034e-05,-4.80744e-05,-1.01228e-05,1.22156e-05,1.55003e-05,0
-7.24531e-05,-9.34332e-05,-4.11289e-06,-1.09749e-05,-3.23742e-05,-1.33422e-05,1.13392e-05,2.05658e-05,0
-7.19681e-05,-4.32262e-05,-2.72589e-06,1.5266e-05,-1.99635e-05,-1.41555e-05,9.77294e-06,1.62477e-05,0
-6.25977e-05,1.81109e-06,-1.98869e-06,4.31727e-05,-7.33789e-06,-1.06687e-05,9.29152e-06,6.08951e-06,0
-4.64206e-05,3.11727e-05,-1.38767e-06,5.79359e-05,6.21803e-06,-3.82987e-06,1.12242e-05,-2.39523e-06,0
-3.61309e-05,4.29024e-05,-2.5849e-06,4.99201e-05,1.91002e-05,7.81095e-07,1.35192e-05,-6.26041e-06,0
-3.8112e-05,3.23624e-05,-5.93839e-06,2.13109e-05,2.89194e-05,5.99788e-07,1.3466e-05,-7.65645e-06,0
-4.57338e-05,-9.19373e-07,-1.06721e-05,-1.08446e-05,3.64369e-05,-3.17993e-06,1.2048e-05,-8.78459e-06,0
-4.98594e-05,-4.62637e-05,-1.3761e-05,-2.56817e-05,4.07965e-05,-6.79972e-06,1.14289e-05,-8.85516e-06,0
-5.02542e-05,-8.7592e-05,-1.04493e-05,-1.66486e-05,4.41235e-05,-6.6416e-06,1.20523e-05,-7.39262e-06,0
-4.69023e-05,-9.7808e-05,-6.21522e-07,5.69361e-06,4.50642e-05,-4.91981e-06,1.30107e-05,-6.57775e-06,0
-4.25601e-05,-7.5126e-05,7.64936e-06,2.32836e-05,4.34161e-05,-5.25141e-06,1.35231e-05,-8.25337e-06,0
-3.85882e-05,-4.99866e-05,8.95207e-06,2.76199e-05,3.75664e-05,-7.753e-06,1.35286e-05,-1.09072e-05,0
-3.28014e-05,-4.3439e-05,7.82652e-06,2.74557e-05,2.14732e-05,-1.0342e-05,1.3654e-05,-1.2205e-05,0
-2.36279e-05,-4.61261e-05,8.76165e-06,2.44755e-05,2.57079e-06,-9.73676e-06,1.36352e-05,-1.21596e-05,0
-1.72581e-05,-4.20176e-05,9.60046e-06,1.52931e-05,-6.06318e-06,-7.937e-06,1.26726e-05,-1.03925e-05,0
-1.63317e-05,-3.2351e-05,8.72212e-06,5.91775e-06,-8.37038e-06,-8.53525e-06,1.22447e-05,-5.71225e-06,0
-7.81134e-06,-1.64773e-05,9.48254e-06,1.43273e-06,-1.12616e-05,-8.09051e-06,1.30516e-05,-9.38318e-07,0
1.3341e-05,1.52674e-05,1.13276e-05,1.52106e-06,-1.27406e-05,-5.06328e-06,1.41469e-05,-5.67373e-07,0
2.82599e-05,5.62821e-05,8.34251e-06,1.50182e-06,-7.75773e-06,-5.30212e-06,1.50236e-05,-3.82906e-06,0
2.13341e-05,8.14275e-05,2.57913e-06,5.74382e-07,5.04447e-06,-1.06142e-05,1.61752e-05,-7.41871e-06,0
-2.70652e-06,7.63518e-05,-1.29506e-06,-1.71902e-07,2.02136e-05,-1.58629e-05,1.69483e-05,-7.91461e-06,0
-2.59063e-05,5.16863e-05,-3.87834e-06,-2.03153e-06,2.9677e-05,-1.69275e-05,1.63873e-05,-7.0668e-06,0
-3.55174e-05,2.93272e-05,-7.9422e-06,-9.20798e-06,2.84171e-05,-1.56666e-05,1.38303e-05,-7.6498e-06,0
-3.85063e-05,1.29659e-05,-1.23585e-05,-2.09613e-05,2.59595e-05,-1.4726e-05,1.07151e-05,-7.38888e-06,0
-4.25705e-05,7.1817e-07,-1.36731e-05,-3.0423e-05,3.10965e-05,-1.31013e-05,1.02625e-05,-6.29089e-06,0
-5.24294e-05,-1.45304e-05,-1.19537e-05,-3.29024e-05,4.18814e-05,-1.1545e-05,1.26166e-05,-5.25315e-06,0
-6.06801e-05,-3.61874e-05,-8.95707e-06,-3.30058e-05,4.11686e-05,-1.03262e-05,1.47767e-05,-4.13236e-06,0
-5.73702e-05,-4.2766e-05,-8.78547e-06,-3.50732e-05,2.4889e-05,-9.42803e-06,1.5432e-05,-3.27088e-06,0
-4.72895e-05,-7.7593e-06,-1.32738e-05,-3.64159e-05,1.09345e-05,-9.56396e-06,1.52421e-05,-4.04207e-06,0
-4.18409e-05,6.48332e-05,-1.85623e-05,-3.36569e-05,9.85271e-06,-1.06134e-05,1.44702e-05,-4.58919e-06,0
-4.20051e-05,0.000138155,-1.932e-05,-2.63371e-05,8.97361e-06,-1.12411e-05,1.35588e-05,-2.65221e-06,0
-4.09022e-05,0.000169666,-1.58476e-05,-1.68647e-05,-5.77977e-06,-1.13587e-05,1.35284e-05,-3.52252e-07,0
-3.52255e-05,0.000146848,-1.26763e-05,-7.20932e-06,-2.84787e-05,-1.20725e-05,1.45803e-05,6.07676e-07,0
-2.63951e-05,9.50091e-05,-1.31798e-05,-3.10682e-07,-4.93734e-05,-1.35305e-05,1.54295e-05,9.50672e-07,0
-1.83177e-05,4.67621e-05,-1.53e-05,3.38265e-06,-6.28199e-05,-1.34483e-05,1.65969e-05,1.12525e-06,0
-1.38368e-05,1.16038e-05,-1.40882e-05,4.66884e-06,-5.98357e-05,-9.12137e-06,1.78858e-05,4.80952e-07,0
-1.52816e-05,-2.1593e-05,-1.0261e-05,4.15529e-06,-3.50741e-05,-4.72544e-06,1.75659e-05,-4.68312e-08,0
-2.28866e-05,-5.52492e-05,-9.65261e-06,2.52265e-06,-1.9529e-06,-6.46088e-06,1.53943e-05,-2.3919e-07,0
-3.10997e-05,-7.5113e-05,-1.2911e-05,2.32654e-06,2.29004e-05,-1.2295e-05,1.36588e-05,-7.78032e-07,0
-3.26049e-05,-7.10754e-05,-1.29053e-05,6.09241e-06,2.79648e-05,-1.6413e-05,1.36585e-05,-7.84368e-07,0
-2.81147e-05,-4.95031e-05,-6.5879e-06,1.35927e-05,2.0167e-05,-1.64009e-05,1.33742e-05,3.35117e-07,0
-2.42285e-05,-2.50596e-05,6.50687e-07,1.69035e-05,2.26088e-05,-1.11289e-05,1.30193e-05,2.27199e-06,0
-2.64408e-05,-8.61115e-06,1.60057e-06,1.10582e-05,3.05909e-05,-4.19593e-06,1.30124e-05,4.90309e-06,0
-2.86794e-05,1.36528e-06,-2.84886e-06,2.43456e-06,2.93827e-05,-1.20364e-07,1.2462e-05,7.5505e-06,0
-2.46968e-05,1.19479e-05,-6.43192e-06,-3.90448e-06,2.67442e-05,1.68829e-06,1.45535e-05,8.94996e-06,0
-1.97913e-05,1.93926e-05,-7.96859e-06,-6.1564e-06,2.00795e-05,-5.59117e-07,1.75894e-05,7.24788e-06,0
-2.00989e-05,1.44818e-05,-9.44907e-06,-4.94983e-06,1.36028e-05,-5.17032e-06,1.63362e-05,5.09613e-06,0
-2.35643e-05,6.45271e-06,-1.19133e-05,-5.10235e-06,3.14246e-05,-7.69429e-06,1.34767e-05,5.59233e-06,0
-2.3954e-05,5.68742e-06,-1.6209e-05,-9.53698e-06,7.49221e-05,-8.60267e-06,1.323e-05,6.98555e-06,0
-2.16321e-05,1.28519e-05,-2.12583e-05,-1.57377e-05,0.000110838,-9.42686e-06,1.47168e-05,8.64759e-06,0
-2.02e-05,2.26515e-05,-2.32015e-05,-1.96582e-05,0.000102455,-1.02721e-05,1.47168e-05,9.66152e-06,0
-1.98046e-05,2.90187e-05,-2.15337e-05,-2.04649e-05,5.31452e-05,-9.91464e-06,1.34722e-05,7.98242e-06,0
-1.98759e-05,2.99422e-05,-1.88911e-05,-1.94416e-05,-9.19342e-07,-7.84105e-06,1.30979e-05,4.27937e-06,0
-2.0168e-05,2.72678e-05,-1.64542e-05,-1.64838e-05,-3.00831e-05,-4.51476e-06,1.31863e-05,2.83114e-06,0
-1.92137e-05,2.73839e-05,-1.44382e-05,-1.09093e-05,-2.9958e-05,-3.16807e-06,1.25535e-05,3.21137e-06,0
-1.74998e-05,3.12175e-05,-1.17966e-05,-2.70584e-06,-1.28652e-05,-5.00826e-06,1.13555e-05,2.31708e-06,0
-1.7287e-05,3.48215e-05,-9.02386e-06,8.36579e-06,-2.41477e-06,-8.32232e-06,9.92829e-06,9.5742e-07,0
-1.77553e-05,3.33095e-05,-1.14522e-05,2.03561e-05,-1.0549e-05,-1.03662e-05,8.4412e-06,7.21259e-07,0
-1.38218e-05,2.87868e-05,-2.18456e-05,2.82429e-05,-2.47131e-05,-1.06031e-05,8.46796e-06,1.78601e-06,0
-4.68056e-06,2.75742e-05,-3.24138e-05,3.17131e-05,-3.30003e-05,-1.11689e-05,1.05411e-05,2.87836e-06,0
2.55907e-06,3.22505e-05,-3.3669e-05,3.20019e-05,-1.8186e-05,-1.17055e-05,1.18274e-05,2.75894e-06,0
1.44668e-06,3.71125e-05,-2.72078e-05,2.77553e-05,4.80845e-05,-1.12837e-05,1.21223e-05,2.20045e-06,0
-8.69323e-06,3.96951e-05,-2.13915e-05,1.93431e-05,0.000133464,-1.15569e-05,1.29375e-05,2.35256e-06,0
-2.19675e-05,4.46172e-05,-2.11473e-05,8.18729e-06,0.000132094,-1.40898e-05,1.285e-05,2.13635e-06,0
-2.94191e-05,5.15785e-05,-2.56949e-05,-4.41855e-06,2.84628e-05,-1.76194e-05,1.0577e-05,1.15334e-06,0
-3.25708e-05,5.2142e-05,-2.89807e-05,-1.30909e-05,-5.44196e-05,-2.00941e-05,7.14615e-06,2.30084e-07,0
-4.25292e-05,4.12345e-05,-2.8385e-05,-1.37722e-05,-4.15625e-05,-1.9443e-05,5.79042e-06,4.82239e-07,0
-5.6329e-05,2.68951e-05,-2.46818e-05,-1.43208e-05,2.42525e-05,-1.55521e-05,8.18966e-06,1.10071e-06,0
-6.36289e-05,2.05338e-05,-1.85589e-05,-2.21074e-05,7.56334e-05,-1.192e-05,9.75096e-06,2.56778e-06,0
-4.19657e-05,-1.07154e-05,-3.55818e-06,-7.14432e-06,2.19174e-05,-1.18531e-05,1.39429e-05,5.04208e-06,0
-2.71422e-05,-8.92654e-06,-3.85027e-07,-1.00585e-05,9.04117e-06,-1.40215e-05,1.41816e-05,4.36525e-06,0
-1.89359e-05,3.5955e-06,2.08647e-06,-8.29726e-07,1.31814e-05,-1.52378e-05,1.45799e-05,2.7064e-06,0
-1.25572e-05,3.50468e-05,3.53596e-06,6.85134e-06,2.07268e-05,-1.60355e-05,1.45948e-05,1.34095e-06,0
-5.28716e-06,8.02475e-05,3.22063e-06,7.66182e-06,2.27485e-05,-1.44485e-05,1.35631e-05,1.64129e-06,0
-2.92262e-06,0.00012499,2.29507e-06,4.76862e-06,1.85358e-05,-1.29113e-05,1.0374e-05,2.57539e-06,0
-7.85245e-06,0.000160111,2.92556e-06,-3.07512e-07,1.37371e-05,-1.33264e-05,8.80772e-06,2.04778e-06,0
-8.79982e-06,0.000170574,4.0808e-06,-9.55888e-06,9.8511e-06,-1.35447e-05,1.03525e-05,2.5732e-07,0
-3.76121e-06,0.000142281,2.5797e-06,-2.017e-05,9.8232e-06,-1.2594e-05,1.15873e-05,-4.91553e-08,0
3.73294e-07,8.60359e-05,-3.84643e-07,-2.85394e-05,1.40036e-05,-1.26271e-05,1.1933e-05,1.10355e-06,0
-6.74554e-07,2.35477e-05,-3.979e-06,-3.35821e-05,1.88402e-05,-1.41569e-05,1.17368e-05,1.11693e-06,0
-1.03117e-05,-3.11112e-05,-6.73382e-06,-3.47233e-05,2.11422e-05,-1.63539e-05,1.10091e-05,-1.41821e-07,0
-2.75664e-05,-7.53621e-05,-6.62558e-06,-3.05642e-05,2.18307e-05,-1.7398e-05,1.07797e-05,-3.84223e-07,0
-4.73268e-05,-0.000104422,-3.42648e-06,-1.78821e-05,2.36838e-05,-1.76205e-05,1.16004e-05,-8.62276e-07,0
-6.4592e-05,-0.000109705,1.9478e-06,1.3321e-07,2.46442e-05,-1.89317e-05,1.30677e-05,-1.73949e-06,0
-7.90212e-05,-9.13805e-05,6.42805e-06,1.33691e-05,2.31646e-05,-2.06221e-05,1.52075e-05,-1.76407e-06,0
-8.83953e-05,-5.89096e-05,6.6912e-06,1.23636e-05,1.80175e-05,-2.09322e-05,1.57708e-05,-5.48997e-07,0
-8.90225e-05,-2.53441e-05,3.19886e-06,-4.01256e-07,1.27258e-05,-1.77e-05,1.35774e-05,1.152e-07,0
-8.15546e-05,2.48469e-06,-5.09131e-07,-1.27747e-05,1.09565e-05,-1.18323e-05,1.10431e-05,-7.12112e-07,0
-7.54395e-05,1.94979e-05,-1.69491e-06,-1.64414e-05,1.6531e-05,-6.37752e-06,1.03429e-05,-1.17038e-06,0
-7.61362e-05,2.42552e-05,-1.37348e-06,-1.5848e-05,2.56546e-05,-4.36464e-06,1.14395e-05,-6.43713e-07,0
-7.92356e-05,2.10116e-05,-8.68011e-07,-1.66334e-05,3.13571e-05,-6.43028e-06,1.24957e-05,7.76717e-07,0
-7.62688e-05,1.39558e-05,6.00601e-07,-1.29887e-05,3.27882e-05,-1.04431e-05,1.24171e-05,2.01696e-06,0
-6.18121e-05,8.51845e-06,3.65656e-06,-1.54251e-07,3.44358e-05,-1.25174e-05,1.19199e-05,1.12067e-06,0
-3.37935e-05,1.0734e-05,7.39348e-06,1.05932e-05,2.95202e-05,-1.23533e-05,1.19309e-05,-1.49391e-06,0
-9.34799e-07,1.54443e-05,8.64159e-06,1.08838e-05,1.37942e-05,-1.24638e-05,1.21321e-05,-2.86734e-06,0
1.62839e-05,1.24798e-05,6.85891e-06,8.54222e-06,-2.22101e-06,-1.23883e-05,1.30901e-05,-2.25453e-06,0
1.01801e-05,8.40201e-06,4.5209e-06,1.29394e-05,-1.64768e-05,-9.96225e-06,1.50367e-05,-1.84241e-06,0
2.7722e-06,1.19649e-05,3.31153e-06,1.98655e-05,-2.64209e-05,-5.82398e-06,1.55973e-05,-2.25112e-06,0
1.47634e-05,1.5275e-05,3.53607e-07,1.31415e-05,-2.46765e-05,-4.36078e-06,1.291e-05,-2.78378e-06,0
3.64006e-05,1.41604e-05,-5.53972e-06,-3.67833e-06,1.94333e-06,-6.65395e-06,1.02552e-05,-6.9261e-07,0
4.70315e-05,1.41e-05,-9.24002e-06,-1.35676e-05,5.59585e-05,-8.66526e-06,9.41167e-06,2.39329e-06,0
3.8961e-05,1.88294e-05,-1.09446e-05,-1.4651e-05,0.000103739,-8.99513e-06,9.18597e-06,2.60931e-06,0
1.94389e-05,2.56038e-05,-1.21753e-05,-1.42064e-05,0.000117973,-8.32412e-06,1.01174e-05,2.8225e-06,0
-4.94953e-07,3.21142e-05,-9.44279e-06,-1.75236e-05,9.85195e-05,-7.10675e-06,1.01415e-05,3.57819e-06,0
-1.57535e-05,4.10157e-05,2.96486e-07,-2.31349e-05,6.67025e-05,-7.06832e-06,8.95249e-06,2.71661e-06,0
-2.93131e-05,4.83413e-05,1.88467e-05,-2.95961e-05,4.23984e-05,-9.2772e-06,1.0135e-05,-8.10569e-08,0
-4.49675e-05,4.37998e-05,4.43265e-05,-3.17332e-05,2.78783e-05,-1.14917e-05,1.23622e-05,-1.04141e-06,0
-6.1409e-05,2.6747e-05,7.2757e-05,-2.64497e-05,2.06756e-05,-1.3214e-05,1.20126e-05,3.70926e-07,0
-7.06217e-05,1.09797e-05,9.64082e-05,-1.8965e-05,1.75651e-05,-1.49165e-05,1.09045e-05,1.44786e-06,0
-6.6858e-05,6.68037e-06,0.000101823,-1.45343e-05,2.06213e-05,-1.52886e-05,1.11953e-05,2.15605e-06,0
-5.22431e-05,1.05404e-05,8.19067e-05,-1.44403e-05,2.63678e-05,-1.39954e-05,1.0851e-05,2.22489e-06,0
-3.65315e-05,1.20624e-05,4.48346e-05,-1.72678e-05,2.4657e-05,-1.18967e-05,9.23806e-06,1.4017e-06,0
-2.83628e-05,8.0483e-06,1.11523e-06,-2.07793e-05,1.33482e-05,-1.18396e-05,8.12937e-06,5.74858e-07,0
-2.85455e-05,2.21362e-06,-4.36461e-05,-1.92335e-05,1.37989e-06,-1.35309e-05,7.84008e-06,9.53373e-07,0
-3.27033e-05,-1.46638e-06,-8.36265e-05,-1.10833e-05,-7.32537e-06,-1.29996e-05,8.14133e-06,1.58869e-06,0
-3.48443e-05,-9.55083e-07,-0.00011163,-2.05772e-08,-7.33371e-06,-8.68566e-06,9.51472e-06,1.0326e-06,0
-3.09633e-05,4.58505e-06,-0.00012185,1.12003e-05,5.40047e-06,-3.11748e-06,1.09354e-05,-8.39675e-07,0
-2.26447e-05,1.79846e-05,-0.000118844,2.06346e-05,2.11209e-05,-5.27154e-08,1.13107e-05,-1.72994e-06,0
-1.40363e-05,3.87315e-05,-0.000110654,2.30829e-05,2.53446e-05,-1.58364e-06,1.19205e-05,3.89597e-07,0
-8.49168e-06,5.6802e-05,-9.66809e-05,1.96269e-05,2.12119e-05,-3.85687e-06,1.40429e-05,3.58108e-06,0
-6.74446e-06,6.19326e-05,-7.65715e-05,1.4256e-05,1.83818e-05,-5.51412e-06,1.57972e-05,5.46352e-06,0
-8.85638e-06,5.36787e-05,-5.50349e-05,8.61206e-06,1.8548e-05,-7.47402e-06,1.47163e-05,6.17531e-06,0
-1.54785e-05,3.71935e-05,-3.87967e-05,2.85937e-06,2.10817e-05,-8.36067e-06,1.28707e-05,7.57709e-06,0
-2.47231e-05,2.17926e-05,-3.00927e-05,-3.01313e-06,2.58807e-05,-8.83047e-06,1.19818e-05,1.10056e-05,0
-3.66206e-05,7.07674e-06,-2.37992e-05,-6.56858e-06,2.73343e-05,-1.15784e-05,1.12062e-05,1.39842e-05,0
-5.02014e-05,-1.74138e-05,-1.8271e-05,-8.53343e-06,1.09968e-05,-1.45706e-05,1.03741e-05,1.56539e-05,0
-6.08369e-05,-4.67634e-05,-1.61947e-05,-1.25594e-05,-1.37824e-05,-1.49955e-05,1.14048e-05,1.49663e-05,0
-6.16749e-05,-5.9125e-05,-1.74961e-05,-1.94378e-05,-2.36183e-05,-1.43381e-05,1.37738e-05,1.2429e-05,0
-5.35022e-05,-4.50771e-05,-1.79349e-05,-2.78454e-05,-2.16929e-05,-1.37845e-05,1.45455e-05,1.05343e-05,0
-4.35211e-05,-2.15002e-05,-1.77226e-05,-3.58152e-05,-1.71579e-05,-1.34011e-05,1.41604e-05,9.23776e-06,0
-3.59775e-05,-5.4143e-06,-1.73289e-05,-3.68665e-05,-4.57384e-06,-1.02451e-05,1.329e-05,9.10147e-06,0
-2.73653e-05,1.13575e-06,-1.62037e-05,-2.96921e-05,1.27716e-05,-4.62876e-06,1.25017e-05,8.3678e-06,0
-8.89536e-06,5.4541e-06,-1.32192e-05,-2.15791e-05,3.18296e-05,7.289e-07,1.35272e-05,6.0192e-06,0
1.24867e-05,1.32438e-05,-8.59301e-06,-1.70342e-05,5.41013e-05,2.53413e-06,1.5033e-05,2.7301e-06,0
2.08712e-05,2.2429e-05,-5.41692e-06,-1.50859e-05,6.57581e-05,1.19485e-06,1.44188e-05,3.3598e-07,0
1.42679e-05,2.83626e-05,-3.48547e-06,-1.3859e-05,4.60404e-05,-1.07719e-06,1.40607e-05,-7.22836e-07,0
-5.7072e-07,2.84222e-05,-1.99173e-06,-1.07171e-05,-7.70805e-06,-2.55403e-06,1.51664e-05,-4.5479e-07,0
-1.8462e-05,2.40279e-05,-6.2509e-07,-6.67132e-06,-6.80216e-05,-3.18167e-06,1.57318e-05,1.39003e-06,0
-3.70435e-05,1.86141e-05,1.32644e-06,-4.33385e-06,-9.87012e-05,-4.52631e-06,1.5047e-05,3.0708e-06,0
-5.51422e-05,1.55115e-05,4.61887e-06,-2.45435e-06,-8.75134e-05,-6.74448e-06,1.43381e-05,2.57401e-06,0
-7.04004e-05,1.32911e-05,7.18888e-06,-7.1127e-07,-4.59484e-05,-8.24418e-06,1.43662e-05,6.64169e-07,0
-7.87011e-05,9.20112e-06,7.29371e-06,-8.66061e-07,5.98521e-07,-8.38418e-06,1.40167e-05,-1.00352e-07,0
-7.72006e-05,3.50039e-06,4.86952e-06,-1.51722e-06,2.63185e-05,-9.03195e-06,1.31567e-05,-9.945e-07,0
-6.76904e-05,-2.37889e-06,1.64941e-06,-2.25602e-06,2.74767e-05,-9.5969e-06,1.27389e-05,-3.60088e-06,0
-5.47665e-05,-7.85439e-06,-1.1968e-06,-4.51821e-06,1.61416e-05,-9.75506e-06,1.3188e-05,-6.03532e-06,0
-4.40157e-05,-1.0773e-05,-2.24889e-06,-7.93127e-06,-3.42874e-07,-8.92428e-06,1.29879e-05,-5.77727e-06,0
-3.8996e-05,-1.15307e-05,-1.57309e-06,-1.57948e-05,-1.41632e-05,-7.50892e-06,1.08996e-05,-4.58855e-06,0
-3.70443e-05,-9.55902e-06,-1.13295e-06,-2.83681e-05,-1.27436e-05,-6.19063e-06,7.97907e-06,-5.35624e-06,0
-3.31461e-05,-3.7332e-08,2.17216e-07,-3.34467e-05,5.97123e-07,-5.15055e-06,7.35818e-06,-6.10053e-06,0
-2.6893e-05,1.87976e-05,1.02768e-06,-2.47448e-05,7.32567e-06,-5.09195e-06,7.70663e-06,-5.25469e-06,0
-1.98736e-05,4.05629e-05,-2.31063e-06,-7.97362e-06,2.59752e-06,-7.47743e-06,6.3425e-06,-4.33723e-06,0
-1.57747e-05,5.00651e-05,-4.87657e-06,1.08125e-05,-1.39536e-06,-9.53736e-06,5.57121e-06,-1.98226e-06,0
-1.49691e-05,4.59575e-05,-2.38083e-06,2.20085e-05,-2.16753e-07,-7.25466e-06,5.79585e-06,2.93293e-07,0
-1.46779e-05,4.0644e-05,3.2658e-06,2.32441e-05,2.78412e-06,-3.03955e-06,5.66549e-06,2.80756e-07,0
-1.4722e-05,4.12666e-05,8.29846e-06,2.49147e-05,7.24607e-07,-1.15413e-06,6.1786e-06,-1.79227e-10,0
-1.57648e-05,4.40359e-05,9.20851e-06,2.96781e-05,-1.43665e-05,-3.17676e-06,7.57727e-06,3.55693e-07,0
-2.05835e-05,4.20762e-05,7.59729e-06,3.10837e-05,-3.64059e-05,-7.19317e-06,7.90243e-06,7.45781e-07,0
-2.86423e-05,3.47871e-05,3.74869e-06,2.38914e-05,-4.91554e-05,-9.71638e-06,7.36393e-06,4.3309e-07,0
-3.758e-05,2.47545e-05,-6.97805e-07,4.41301e-06,-4.30359e-05,-8.68845e-06,7.02021e-06,3.22333e-07,0
-4.33309e-05,1.5966e-05,-2.5643e-06,-2.14002e-05,-2.44739e-05,-5.60944e-06,8.24931e-06,-2.38901e-10,0
-4.40118e-05,1.29789e-05,-1.14031e-06,-4.09939e-05,-1.15263e-06,-3.12937e-06,1.05133e-05,-1.60265e-06,0
-3.8844e-05,2.10136e-05,2.45171e-06,-4.71085e-05,2.26325e-05,-2.00032e-06,1.14123e-05,-3.00756e-06,0
-2.89458e-05,3.64559e-05,4.96006e-06,-4.50482e-05,3.64349e-05,-2.30804e-06,1.03429e-05,-4.44069e-06,0
-2.10982e-05,4.81548e-05,4.36542e-06,-4.20897e-05,3.54509e-05,-3.98736e-06,7.94364e-06,-6.24952e-06,0
-1.63026e-05,5.02243e-05,7.82915e-07,-4.49757e-05,2.89441e-05,-6.62064e-06,6.32638e-06,-6.40298e-06,0
-1.08485e-05,4.60512e-05,-3.28166e-06,-5.75495e-05,3.16522e-05,-8.96566e-06,7.78567e-06,-4.00233e-06,0
-4.62997e-06,3.93009e-05,-6.1223e-06,-7.05386e-05,4.92024e-05,-9.3652e-06,1.12485e-05,-1.07545e-06,0
-1.34542e-06,2.89075e-05,-7.42196e-06,-7.30919e-05,7.17394e-05,-7.58413e-06,1.32035e-05,2.36514e-07,0
-2.71088e-06,1.37803e-05,-8.20523e-06,-6.5339e-05,8.06823e-05,-6.14469e-06,1.28985e-05,-5.08228e-07,0
-7.49994e-06,-4.79465e-06,-9.86384e-06,-5.66776e-05,7.14403e-05,-6.71062e-06,1.17403e-05,-2.76782e-06,0
-1.52598e-05,-2.33248e-05,-1.2872e-05,-5.05648e-05,5.41434e-05,-8.77445e-06,1.11721e-05,-4.17532e-06,0
-2.8161e-05,-3.77182e-05,-1.75211e-05,-3.95804e-05,3.52011e-05,-1.36076e-05,1.00739e-05,-4.51916e-06,0
-4.36998e-05,-4.14709e-05,-2.21445e-05,-1.2767e-05,1.76092e-05,-2.0361e-05,8.04595e-06,-5.77157e-06,0
-5.41493e-05,-3.31454e-05,-2.22798e-05,2.58557e-05,1.44305e-07,-2.4129e-05,7.81609e-06,-6.38555e-06,0
-5.61213e-05,-2.22983e-05,-1.59903e-05,6.18903e-05,-1.75321e-05,-2.33105e-05,9.58449e-06,-4.52946e-06,0
-5.2097e-05,-1.68235e-05,-8.87801e-06,8.64331e-05,-2.07277e-05,-2.37716e-05,1.13333e-05,-2.33939e-06,0
-4.48355e-05,-1.51125e-05,-5.32348e-06,9.27578e-05,-2.57613e-06,-2.56764e-05,1.25197e-05,-1.75858e-06,0
-3.82227e-05,-1.56424e-05,-5.92319e-06,7.51315e-05,2.58648e-05,-2.39127e-05,1.37406e-05,-2.73343e-06,0
-3.50299e-05,-1.79977e-05,-9.46934e-06,4.39262e-05,5.93936e-05,-1.80312e-05,1.4608e-05,-2.42732e-06,0
-3.20918e-05,-1.70883e-05,-1.0792e-05,2.02228e-05,9.0238e-05,-1.3291e-05,1.33143e-05,-1.09766e-07,0
-3.04646e-05,-9.00282e-06,-8.66886e-06,1.1971e-05,0.00010052,-1.25502e-05,1.10287e-05,1.72345e-06,0
-3.11646e-05,-3.16916e-06,-5.5559e-06,1.59878e-05,8.61562e-05,-1.31969e-05,1.14019e-05,2.41541e-06,0
-3.29591e-05,-9.09578e-06,-3.14584e-06,2.35481e-05,6.5064e-05,-1.3176e-05,1.33534e-05,2.96978e-06,0
-3.38415e-05,-2.02253e-05,-4.66874e-07,2.69054e-05,5.44304e-05,-1.05681e-05,1.41893e-05,5.15742e-06,0
-3.03444e-05,-2.4347e-05,7.60233e-06,2.74009e-05,5.76998e-05,-8.0317e-06,1.53874e-05,7.30101e-06,0
-2.64518e-05,-2.07845e-05,1.92307e-05,3.00057e-05,5.97646e-05,-6.98633e-06,1.56307e-05,7.00424e-06,0
-2.40386e-05,-1.53222e-05,3.45734e-05,3.39553e-05,4.76746e-05,-7.33763e-06,1.40858e-05,6.51708e-06,0
-2.24365e-05,-9.71484e-06,5.22999e-05,3.65811e-05,2.12468e-05,-8.36766e-06,1.24046e-05,7.43381e-06,0
-2.15739e-05,-3.34478e-06,6.31054e-05,3.51592e-05,-1.14555e-05,-9.85049e-06,1.07208e-05,9.53672e-06,0
-2.1311e-05,2.59606e-06,5.97211e-05,2.85847e-05,-3.9763e-05,-1.17956e-05,9.84932e-06,1.21506e-05,0
-2.13956e-05,5.15452e-06,4.08238e-05,1.80913e-05,-5.50913e-05,-1.3347e-05,1.03517e-05,1.32195e-05,0
-2.32486e-05,4.92099e-06,1.18344e-05,6.21014e-06,-5.29805e-05,-1.48867e-05,1.09177e-05,1.21972e-05,0
-2.74381e-05,4.09847e-06,-2.09629e-05,-1.56286e-06,-4.09288e-05,-1.61391e-05,1.04879e-05,1.05229e-05,0
-3.05797e-05,4.68603e-06,-5.06253e-05,-2.19676e-06,-3.06957e-05,-1.65757e-05,1.0717e-05,8.358e-06,0
-3.02431e-05,8.08465e-06,-7.06653e-05,1.42116e-06,-2.64272e-05,-1.54695e-05,1.06697e-05,5.19135e-06,0
-2.66344e-05,1.20503e-05,-7.74014e-05,3.94778e-06,-1.99151e-05,-1.46388e-05,9.63767e-06,1.6507e-06,0
-2.46311e-05,1.11231e-05,-7.25647e-05,2.98164e-06,-8.44864e-06,-1.4978e-05,9.32986e-06,-7.91015e-07,0
-2.64034e-05,7.70993e-06,-5.96458e-05,4.90112e-07,-5.15522e-07,-1.60887e-05,1.03611e-05,-1.83035e-06,0
-2.81334e-05,9.94318e-06,-4.43338e-05,-2.24615e-06,-6.77602e-07,-1.57446e-05,1.1465e-05,-1.82422e-06,0
-2.62478e-05,1.55497e-05,-3.18393e-05,-6.89572e-06,-5.07468e-06,-1.39194e-05,1.25069e-05,-1.13468e-07,0
-2.42725e-05,1.54122e-05,-2.35866e-05,-1.42988e-05,-9.38187e-06,-1.20978e-05,1.30118e-05,4.18615e-07,0
-2.55249e-05,1.14958e-05,-1.82375e-05,-2.341e-05,-9.36595e-06,-9.94321e-06,1.30301e-05,-2.10884e-06,0
-2.84687e-05,1.0544e-05,-1.62216e-05,-2.64441e-05,-5.72196e-06,-9.55414e-06,1.34892e-05,-4.7643e-06,0
-2.91932e-05,1.43124e-05,-1.69244e-05,-1.9139e-05,-1.38107e-06,-1.16606e-05,1.59078e-05,-5.54892e-06,0
-2.45373e-05,1.7907e-05,-1.72506e-05,-8.94888e-06,2.86188e-06,-1.34942e-05,1.81104e-05,-6.07694e-06,0
-1.69186e-05,1.7214e-05,-1.67909e-05,-1.14612e-06,8.87418e-06,-1.36755e-05,1.60067e-05,-6.71267e-06,0
-1.11327e-05,1.62741e-05,-1.51125e-05,1.15901e-05,1.48072e-05,-1.32821e-05,1.46077e-05,-5.30579e-06,0
-9.94545e-06,1.75481e-05,-1.09838e-05,2.98369e-05,1.78944e-05,-1.30196e-05,1.638e-05,-3.67913e-06,0
-1.57004e-05,1.81088e-05,-6.96116e-06,4.26681e-05,1.89663e-05,-1.31223e-05,1.85449e-05,-4.0107e-06,0
-2.95133e-05,1.49454e-05,-6.39097e-06,4.65048e-05,1.95554e-05,-1.46522e-05,1.81294e-05,-5.14079e-06,0
-4.56586e-05,1.05475e-05,-6.05901e-06,4.22443e-05,4.11775e-05,-1.71112e-05,1.53318e-05,-4.7598e-06,0
-5.58095e-05,8.52193e-06,-3.29705e-06,3.25068e-05,9.69512e-05,-2.00724e-05,1.38509e-05,-3.63935e-06,0
-6.32457e-05,8.24481e-06,1.42022e-06,2.21588e-05,0.000137863,-2.18449e-05,1.37183e-05,-4.07714e-06,0
-6.97676e-05,8.38965e-06,4.72676e-06,1.43395e-05,0.000113255,-2.19068e-05,1.33729e-05,-4.5399e-06,0
-6.97358e-05,1.04802e-05,7.17276e-06,3.6615e-06,4.89505e-05,-2.22244e-05,1.25829e-05,-3.24604e-06,0
-6.04468e-05,1.47526e-05,1.1474e-05,-1.30258e-05,5.28801e-07,-2.15545e-05,1.17217e-05,-4.00853e-07,0
-4.44537e-05,1.71482e-05,2.08922e-05,-3.21604e-05,-1.52693e-05,-1.92297e-05,1.31884e-05,1.38063e-06,0
-2.82369e-05,1.37566e-05,3.62232e-05,-4.66842e-05,-1.80159e-05,-1.51554e-05,1.64523e-05,2.69198e-06,0
-1.60981e-05,7.32557e-06,4.92352e-05,-5.32233e-05,-2.11734e-05,-9.81403e-06,1.85815e-05,5.42888e-06,0
-1.03757e-05,4.88406e-06,5.11968e-05,-5.4602e-05,-2.35341e-05,-3.97945e-06,1.9217e-05,8.45876e-06,0
-9.0761e-06,7.85138e-06,3.99328e-05,-5.39402e-05,-2.30175e-05,5.01253e-07,1.92739e-05,9.58993e-06,0
-9.35958e-06,9.39387e-06,1.88019e-05,-5.30104e-05,-1.87464e-05,2.20987e-06,1.92291e-05,9.43442e-06,0
-1.07566e-05,3.532e-06,-9.67127e-06,-5.2432e-05,-6.88038e-06,7.77742e-07,1.86887e-05,1.03227e-05,0
