ch1,ch2,ch3,ch4,ch5,ch6,ch7,ch8,class
-2.79353e-05,4.05573e-05,-1.02913e-05,-2.10318e-06,1.29597e-05,-1.03416e-05,2.70097e-05,2.71219e-06,0
-2.95615e-05,4.14939e-05,-9.12327e-06,5.92865e-07,8.9445e-06,-1.2971e-05,3.74579e-05,1.52406e-06,0
-3.00564e-05,4.43591e-05,-5.35603e-06,6.81243e-06,4.67584e-06,-1.38422e-05,4.51476e-05,-7.09239e-07,0
-3.05939e-05,4.7738e-05,-5.17564e-07,1.43718e-05,2.16005e-06,-1.263e-05,4.63602e-05,-1.66624e-06,0
-3.15607e-05,4.77565e-05,2.64356e-06,1.8188e-05,-1.00424e-06,-1.09274e-05,4.2392e-05,-2.06153e-06,0
-3.20688e-05,4.38427e-05,5.20477e-06,1.55203e-05,-5.18125e-06,-1.06416e-05,3.57278e-05,-3.79673e-06,0
-3.27511e-05,3.93916e-05,7.71399e-06,9.38062e-06,-7.14951e-06,-1.06241e-05,2.67856e-05,-6.34938e-06,0
-3.30666e-05,3.65481e-05,1.02659e-05,3.05402e-06,-4.94051e-06,-1.01512e-05,1.62355e-05,-7.40771e-06,0
-3.26174e-05,3.64206e-05,9.20257e-06,-1.31464e-06,-1.81657e-06,-9.10958e-06,6.00626e-06,-6.02543e-06,0
-3.20479e-05,3.63366e-05,5.97019e-06,-5.86298e-06,-2.39157e-07,-7.1226e-06,-3.57267e-06,-3.95078e-06,0
-3.24514e-05,3.35641e-05,3.28528e-06,-1.29489e-05,2.06491e-06,-5.67419e-06,-1.19949e-05,-3.31971e-06,0
-3.28554e-05,2.92044e-05,1.24987e-06,-2.02665e-05,5.56964e-06,-5.65953e-06,-1.61058e-05,-3.80418e-06,0
-3.31877e-05,2.65524e-05,-1.55902e-06,-2.43211e-05,8.68279e-06,-6.03794e-06,-1.57707e-05,-2.52716e-06,0
-3.31203e-05,2.55984e-05,-2.72834e-06,-2.63185e-05,9.65377e-06,-6.10189e-06,-1.38573e-05,-4.49666e-07,0
-3.19767e-05,2.48733e-05,-1.23168e-06,-2.69689e-05,8.26431e-06,-5.53074e-06,-9.60141e-06,2.23758e-07,0
-2.92874e-05,2.38079e-05,2.74928e-06,-2.38297e-05,5.8012e-06,-4.87815e-06,-3.04636e-06,-3.06892e-07,0
-2.70885e-05,2.24357e-05,7.57251e-06,-1.73452e-05,5.64294e-06,-3.98053e-06,1.06612e-06,-8.70907e-07,0
-2.75451e-05,1.96818e-05,1.15454e-05,-9.00219e-06,7.3351e-06,-4.66667e-06,1.58375e-06,-1.0864e-06,0
-2.9154e-05,1.6171e-05,1.19272e-05,-1.50253e-06,7.87913e-06,-6.81527e-06,1.60186e-06,-6.47575e-07,0
-3.03681e-05,1.45321e-05,6.37991e-06,2.97579e-06,9.80514e-06,-6.66692e-06,1.05461e-06,1.52216e-06,0
-3.03948e-05,1.26466e-05,-5.66084e-06,1.91708e-06,1.44064e-05,-6.70859e-06,-3.01484e-06,3.42593e-06,0
-3.06189e-05,8.9797e-06,-2.48842e-05,-2.21421e-06,1.61233e-05,-7.64303e-06,-8.16726e-06,3.7965e-06,0
-3.08944e-05,4.99614e-06,-4.47037e-05,-5.0075e-06,1.53833e-05,-8.08678e-06,-8.75058e-06,3.8867e-06,0
-3.19039e-05,2.48095e-06,-5.6439e-05,-6.60065e-06,1.62343e-05,-8.27972e-06,-4.55376e-06,3.14244e-06,0
-3.39042e-05,1.84629e-06,-5.64564e-05,-1.15918e-05,1.7152e-05,-7.95905e-06,6.00064e-07,6.51669e-07,0
-3.45548e-05,2.83343e-06,-4.52543e-05,-2.30163e-05,1.86769e-05,-7.46689e-06,4.64325e-06,-1.8185e-06,0
-3.42529e-05,5.26766e-06,-2.79655e-05,-3.2566e-05,2.01167e-05,-6.25595e-06,8.34582e-06,-2.64368e-06,0
-3.3579e-05,8.32371e-06,-1.42497e-05,-3.43518e-05,2.06527e-05,-5.65055e-06,1.14969e-05,-1.73328e-06,0
-3.16525e-05,1.01801e-05,-7.19728e-06,-3.36437e-05,2.0394e-05,-5.66156e-06,1.56389e-05,1.9211e-07,0
-2.97857e-05,9.35605e-06,-4.6338e-06,-3.42352e-05,1.97376e-05,-5.49637e-06,2.16541e-05,2.13794e-07,0
-3.07018e-05,7.28609e-06,-3.64346e-06,-3.00984e-05,2.00072e-05,-6.05781e-06,2.56805e-05,-1.08438e-06,0
-3.32861e-05,5.70706e-06,-2.4664e-06,-1.57525e-05,1.9522e-05,-6.98969e-06,2.68365e-05,-1.91769e-06,0
-3.42378e-05,5.28425e-06,-1.22312e-06,6.61465e-06,1.83716e-05,-7.8454e-06,2.58246e-05,-2.23968e-06,0
-3.24795e-05,6.78672e-06,2.46811e-07,2.87503e-05,1.86704e-05,-7.81695e-06,2.1962e-05,-2.22937e-06,0
-3.00295e-05,8.42159e-06,8.46052e-07,4.19974e-05,1.97111e-05,-7.00822e-06,1.65755e-05,-1.5881e-06,0
-2.84115e-05,8.73908e-06,-4.50208e-07,4.38075e-05,1.93402e-05,-6.21057e-06,1.22523e-05,-6.59224e-07,0
-2.74525e-05,8.81744e-06,-2.29782e-06,3.6539e-05,1.90047e-05,-5.28469e-06,1.01466e-05,2.36276e-07,0
-2.68568e-05,1.06801e-05,-2.52111e-06,2.72262e-05,1.98554e-05,-4.1455e-06,8.72435e-06,1.23315e-06,0
-2.69838e-05,1.42865e-05,-1.33978e-06,2.04312e-05,2.00183e-05,-2.95047e-06,7.08175e-06,2.10507e-06,0
-2.82228e-05,1.71995e-05,-6.75104e-07,1.41271e-05,1.83508e-05,-2.54842e-06,5.83415e-06,3.27092e-06,0
-2.93737e-05,1.74202e-05,-1.02209e-06,7.25542e-06,1.52274e-05,-3.66079e-06,7.10144e-06,3.96158e-06,0
-2.9622e-05,1.57217e-05,-3.69611e-07,2.01069e-06,1.19959e-05,-5.6248e-06,9.78481e-06,4.62793e-06,0
-2.88859e-05,1.36865e-05,3.01757e-06,-1.02284e-06,1.00471e-05,-7.12258e-06,1.14468e-05,5.55868e-06,0
-2.74633e-05,1.16976e-05,6.12047e-06,-2.33429e-06,8.1625e-06,-7.04485e-06,1.19328e-05,6.34663e-06,0
-2.79601e-05,1.1076e-05,6.63603e-06,-2.68346e-06,6.43111e-06,-6.02968e-06,1.04569e-05,6.55829e-06,0
-3.12137e-05,9.89194e-06,7.06894e-06,-9.07842e-07,4.55309e-06,-4.71341e-06,1.5901e-06,6.53706e-06,0
-3.44316e-05,6.57598e-06,7.74638e-06,5.01629e-06,2.68051e-06,-3.97485e-06,-2.35723e-05,6.82623e-06,0
-3.60469e-05,4.85956e-06,6.38702e-06,9.5901e-06,1.3686e-06,-3.93867e-06,-4.68267e-05,6.92647e-06,0
-3.45585e-05,6.94795e-06,3.42152e-06,6.5573e-06,-7.33925e-07,-3.42641e-06,-4.51778e-05,6.46745e-06,0
-3.13971e-05,9.78539e-06,1.05145e-06,-2.63213e-06,-8.45089e-07,-1.75594e-06,-2.35891e-05,5.73445e-06,0
-2.89108e-05,1.1011e-05,-3.28573e-07,-1.39487e-05,9.51723e-07,-2.08084e-08,2.96888e-06,6.05818e-06,0
-2.91599e-05,1.17293e-05,-2.86363e-06,-1.99158e-05,2.52434e-06,-1.20578e-06,2.44979e-05,7.84475e-06,0
-3.1075e-05,1.19489e-05,-6.41776e-06,-1.85041e-05,2.45511e-06,-3.91207e-06,4.12721e-05,8.46896e-06,0
-3.16393e-05,1.18894e-05,-1.01857e-05,-1.37744e-05,1.19238e-06,-5.16866e-06,5.21864e-05,6.80923e-06,0
-3.18427e-05,1.21339e-05,-1.26992e-05,-6.13068e-06,-2.72742e-08,-3.99918e-06,5.72376e-05,5.29249e-06,0
-3.28855e-05,1.152e-05,-1.32929e-05,2.46715e-06,3.63135e-07,-2.57448e-06,5.72183e-05,6.25271e-06,0
-3.48429e-05,9.48842e-06,-1.4872e-05,6.34487e-06,3.1701e-06,-2.20401e-06,5.53094e-05,7.53672e-06,0
-3.55063e-05,6.97582e-06,-1.78973e-05,2.05793e-06,5.84873e-06,-2.64492e-06,5.37341e-05,7.27709e-06,0
-3.37225e-05,4.25991e-06,-2.03929e-05,-7.9797e-06,5.99294e-06,-4.13585e-06,5.33199e-05,6.60147e-06,0
-3.05535e-05,8.17898e-07,-1.95877e-05,-2.06612e-05,4.42364e-06,-5.88086e-06,5.33135e-05,6.18875e-06,0
-2.932e-05,-3.04257e-06,-1.68183e-05,-3.22093e-05,3.88556e-06,-6.36399e-06,5.20304e-05,6.09758e-06,0
-3.0461e-05,-5.96615e-06,-1.47418e-05,-3.82682e-05,3.29548e-06,-5.01749e-06,4.93863e-05,4.77381e-06,0
-3.08976e-05,-6.10212e-06,-1.42455e-05,-3.66961e-05,1.86181e-06,-4.28639e-06,4.43838e-05,2.52658e-06,0
-3.04142e-05,-3.07915e-06,-1.35837e-05,-3.13113e-05,2.45036e-07,-5.09273e-06,3.87634e-05,1.5803e-06,0
-3.00137e-05,2.03846e-06,-1.11703e-05,-2.60915e-05,-5.90649e-07,-6.07669e-06,3.42762e-05,2.30619e-06,0
-3.00019e-05,7.79429e-06,-8.67195e-06,-1.97385e-05,6.2212e-07,-5.97603e-06,3.10705e-05,3.88367e-06,0
-3.04739e-05,1.35199e-05,-7.97844e-06,-1.26033e-05,3.63688e-06,-6.22579e-06,2.70498e-05,5.50142e-06,0
-3.11483e-05,1.82941e-05,-8.38831e-06,-8.11463e-06,5.17693e-06,-7.57907e-06,2.32931e-05,5.53962e-06,0
-3.15665e-05,2.13707e-05,-7.39754e-06,-6.49999e-06,4.7236e-06,-9.58464e-06,1.9912e-05,4.47239e-06,0
-3.1141e-05,2.36249e-05,-4.89515e-06,-4.82301e-06,4.10191e-06,-1.09598e-05,1.6149e-05,3.53649e-06,0
-3.0673e-05,2.49058e-05,-2.95244e-06,-2.22199e-06,4.84529e-06,-1.02168e-05,1.1207e-05,3.15971e-06,0
-3.08339e-05,2.57092e-05,-3.33003e-06,-2.68956e-06,7.03608e-06,-8.56239e-06,6.13625e-06,2.84405e-06,0
-2.98845e-05,2.77418e-05,-4.71897e-06,-8.1939e-06,7.06862e-06,-6.47314e-06,3.13407e-06,1.96513e-06,0
-3.0523e-05,3.0862e-05,-5.53456e-06,-1.23323e-05,5.63767e-06,-5.17874e-06,3.7436e-06,1.47945e-06,0
-3.15679e-05,3.33493e-05,-3.43796e-06,-1.15755e-05,5.06414e-06,-5.48382e-06,5.18337e-06,2.7169e-06,0
-3.14839e-05,3.27791e-05,-2.05373e-07,-1.15281e-05,5.15718e-06,-5.19402e-06,7.199e-06,4.85795e-06,0
-3.20037e-05,2.85268e-05,-5.9883e-07,-1.76449e-05,7.53637e-06,-5.3079e-06,1.14048e-05,5.32045e-06,0
-3.15618e-05,2.13873e-05,-2.25574e-06,-2.8375e-05,1.08232e-05,-6.60016e-06,1.57183e-05,4.18078e-06,0
-3.25889e-05,1.39058e-05,-3.84434e-06,-3.45144e-05,1.24546e-05,-7.47022e-06,1.76993e-05,2.01471e-06,0
-3.40359e-05,8.47963e-06,-5.56329e-06,-2.67917e-05,1.54638e-05,-7.44835e-06,1.33038e-05,-1.66156e-06,0
-3.44036e-05,5.48972e-06,-6.74693e-06,-8.57511e-06,2.19644e-05,-6.33604e-06,7.17871e-06,-3.90517e-06,0
-3.38469e-05,6.03414e-06,-7.59988e-06,8.7164e-06,2.63034e-05,-5.74842e-06,5.6041e-06,-3.1667e-06,0
-3.17817e-05,8.15906e-06,-7.84133e-06,1.84658e-05,2.37872e-05,-5.99855e-06,8.60297e-06,-1.39564e-06,0
-3.03349e-05,9.67349e-06,-9.9341e-06,2.53485e-05,2.00348e-05,-7.2447e-06,1.23908e-05,-1.13827e-06,0
-3.0632e-05,9.77808e-06,-1.33901e-05,3.2824e-05,1.89447e-05,-9.24764e-06,1.36947e-05,-2.24475e-06,0
-3.05297e-05,1.03381e-05,-1.58364e-05,3.4979e-05,2.05213e-05,-1.0679e-05,1.28901e-05,-1.56024e-06,0
-2.92241e-05,1.5458e-05,-1.60008e-05,2.73483e-05,2.36992e-05,-1.16849e-05,1.19693e-05,-3.98334e-08,0
-2.84031e-05,2.56863e-05,-1.48133e-05,1.57937e-05,2.7792e-05,-1.2427e-05,1.09355e-05,3.5102e-07,0
-2.8209e-05,3.85761e-05,-1.29341e-05,8.21741e-06,3.22463e-05,-1.28244e-05,9.56669e-06,-8.78014e-07,0
-2.75765e-05,4.94416e-05,-1.10326e-05,5.21181e-06,3.53971e-05,-1.31354e-05,9.13524e-06,-1.57115e-06,0
-2.65025e-05,5.41299e-05,-9.5338e-06,5.24475e-06,3.62683e-05,-1.35717e-05,8.85998e-06,1.82883e-07,0
-2.70669e-05,4.91151e-05,-7.99667e-06,6.13095e-06,3.51564e-05,-1.30696e-05,5.78655e-06,2.02118e-06,0
-2.92529e-05,3.22703e-05,-7.03017e-06,6.7005e-06,3.3213e-05,-1.14712e-05,-5.21132e-07,1.40707e-06,0
-3.04783e-05,5.69749e-06,-7.18926e-06,6.08003e-06,3.14356e-05,-1.11924e-05,-6.97394e-06,-6.11297e-07,0
-2.92563e-05,-1.9546e-05,-7.95718e-06,4.45989e-06,3.15326e-05,-1.35535e-05,-1.07465e-05,-2.48291e-06,0
-2.76138e-05,-2.8247e-05,-6.97308e-06,3.24257e-06,3.21091e-05,-1.48944e-05,-8.2821e-06,-4.22616e-06,0
-2.80683e-05,-2.13442e-05,-6.57127e-06,1.37885e-06,3.09626e-05,-1.40779e-05,-4.78751e-07,-4.33584e-06,0
-3.01602e-05,-1.10773e-05,-8.34632e-06,-1.65072e-06,2.84386e-05,-1.36909e-05,7.50261e-06,-2.16934e-06,0
-3.23156e-05,-1.0741e-06,-9.04575e-06,-5.22433e-06,2.71074e-05,-1.41825e-05,1.34851e-05,-7.57788e-07,0
-3.32026e-05,7.55487e-06,-8.7765e-06,-7.28047e-06,2.5623e-05,-1.49282e-05,1.62276e-05,-3.10679e-07,0
-3.17364e-05,1.2044e-05,-8.85181e-06,-5.94314e-06,2.23867e-05,-1.60446e-05,1.60507e-05,-7.35926e-07,0
-3.11371e-05,1.032e-05,-9.29276e-06,-5.37965e-06,2.03534e-05,-1.50187e-05,1.481e-05,-2.14361e-06,0
-3.1433e-05,3.24091e-06,-1.12671e-05,-5.42253e-06,2.10896e-05,-1.30315e-05,1.4484e-05,-1.79601e-06,0
-3.03612e-05,-4.42236e-06,-1.29124e-05,-5.41664e-06,2.21601e-05,-1.33446e-05,1.73703e-05,-7.64973e-07,0
-2.97119e-05,-6.82738e-06,-1.47421e-05,-5.53179e-06,2.03615e-05,-1.28426e-05,1.95642e-05,-1.35951e-06,0
-3.06394e-05,-2.91457e-06,-1.54172e-05,-5.46608e-06,1.59505e-05,-1.32993e-05,1.81712e-05,-3.36872e-06,0
-3.14639e-05,3.80797e-06,-1.38766e-05,-7.55679e-06,1.12129e-05,-1.41228e-05,1.61651e-05,-4.21641e-06,0
-2.99951e-05,1.24317e-05,-1.28089e-05,-8.35949e-06,7.84118e-06,-1.41194e-05,1.32206e-05,-3.45135e-06,0
-2.80549e-05,1.91252e-05,-1.26724e-05,-7.97946e-06,7.81653e-06,-1.35633e-05,8.69043e-06,-8.47653e-07,0
-2.854e-05,2.32179e-05,-1.17794e-05,-8.17739e-06,8.9268e-06,-1.32702e-05,3.94177e-06,1.16281e-06,0
-3.03871e-05,2.5438e-05,-9.18083e-06,-8.92314e-06,8.67623e-06,-1.43884e-05,1.26346e-06,9.35006e-07,0
-3.15328e-05,2.38746e-05,-6.42384e-06,-8.59836e-06,8.56234e-06,-1.45584e-05,1.17716e-06,8.56555e-07,0
-3.17615e-05,1.75376e-05,-4.01099e-06,-7.39387e-06,9.6445e-06,-1.32468e-05,3.26524e-06,1.76047e-06,0
-3.16768e-05,8.90078e-06,-2.45912e-06,-6.14223e-06,1.08748e-05,-1.11695e-05,6.56076e-06,3.25084e-06,0
-3.2695e-05,1.20929e-06,-2.5549e-06,-4.82064e-06,1.09559e-05,-1.00279e-05,8.80525e-06,3.82255e-06,0
-3.41475e-05,-4.81781e-06,-5.05686e-06,-4.92742e-06,9.58516e-06,-9.60179e-06,1.07947e-05,2.50817e-06,0
-3.47654e-05,-8.54969e-06,-8.10612e-06,-6.30754e-06,6.95251e-06,-1.01943e-05,1.35681e-05,9.80542e-08,0
-3.47282e-05,-1.14902e-05,-9.05612e-06,-8.14147e-06,4.61722e-06,-1.13573e-05,1.47138e-05,-1.72735e-06,0
-3.48486e-05,-1.44569e-05,-6.85982e-06,-8.12719e-06,2.95879e-06,-1.21474e-05,1.21337e-05,-2.34639e-06,0
-3.46821e-05,-1.42383e-05,-3.34653e-06,-6.4633e-06,3.54855e-06,-1.19584e-05,8.10967e-06,-1.31974e-06,0
-3.3266e-05,-8.18624e-06,-1.61653e-06,-4.37528e-06,7.29945e-06,-1.18086e-05,7.165e-06,3.3221e-07,0
-3.12975e-05,1.05418e-06,-2.95397e-06,-1.86171e-06,1.02894e-05,-1.1346e-05,1.01256e-05,4.60038e-07,0
-3.01107e-05,9.731e-06,-5.89843e-06,4.63939e-06,9.56756e-06,-9.7783e-06,1.21012e-05,-5.26149e-07,0
-2.83898e-05,1.41055e-05,-8.6806e-06,2.10532e-05,9.17482e-06,-8.19088e-06,9.97707e-06,-1.00131e-06,0
-2.66556e-05,1.54042e-05,-1.08475e-05,4.3629e-05,9.93837e-06,-7.16356e-06,7.49414e-06,-3.38598e-06,0
-2.59395e-05,1.70647e-05,-1.2168e-05,5.46473e-05,1.00003e-05,-7.52839e-06,9.56704e-06,-6.04125e-06,0
-2.57747e-05,1.79117e-05,-1.18796e-05,4.67549e-05,9.67986e-06,-9.0579e-06,1.36004e-05,-5.15488e-06,0
-2.70015e-05,1.64729e-05,-1.16409e-05,2.80069e-05,9.06866e-06,-8.28361e-06,1.56987e-05,-2.99877e-06,0
-2.85287e-05,1.58567e-05,-1.32863e-05,8.54184e-06,6.95163e-06,-5.46438e-06,1.75575e-05,-1.94256e-06,0
-2.86612e-05,1.7553e-05,-1.51669e-05,-3.94768e-06,3.11009e-06,-5.34314e-06,1.90832e-05,-2.06222e-06,0
-2.77162e-05,1.9349e-05,-1.69894e-05,-1.00131e-05,1.70921e-06,-9.55884e-06,1.71556e-05,-3.22132e-06,0
-2.69028e-05,1.89951e-05,-1.80725e-05,-1.32789e-05,2.33235e-06,-1.47804e-05,1.13962e-05,-3.85843e-06,0
-2.79758e-05,1.69226e-05,-1.88591e-05,-1.64012e-05,3.76515e-06,-1.58743e-05,7.3314e-06,-3.14239e-06,0
-3.01889e-05,1.59875e-05,-1.93303e-05,-2.14643e-05,4.82863e-06,-1.38883e-05,8.69818e-06,-3.12701e-06,0
-3.02996e-05,1.71952e-05,-1.5684e-05,-3.10115e-05,5.19395e-06,-1.19728e-05,1.07017e-05,-3.22471e-06,0
-2.90452e-05,1.7966e-05,-8.61762e-06,-4.46368e-05,6.98799e-06,-1.08333e-05,1.12418e-05,-9.29781e-07,0
-2.81366e-05,1.70627e-05,-2.35375e-06,-5.7291e-05,9.2943e-06,-1.10751e-05,1.18073e-05,2.44898e-06,0
-2.89096e-05,1.64739e-05,3.9999e-07,-6.143e-05,9.86499e-06,-1.35769e-05,1.23538e-05,2.50923e-06,0
-3.06342e-05,1.64122e-05,2.27509e-06,-5.49809e-05,8.02632e-06,-1.51828e-05,1.25059e-05,-1.01267e-06,0
-3.06356e-05,1.66447e-05,7.94541e-06,-4.14417e-05,7.35682e-06,-1.55121e-05,1.18174e-05,-3.49041e-06,0
-2.81382e-05,1.57474e-05,1.9439e-05,-2.6326e-05,8.72959e-06,-1.5768e-05,8.9461e-06,-3.43418e-06,0
-2.65348e-05,1.34557e-05,3.60572e-05,-1.54809e-05,9.68373e-06,-1.59178e-05,5.45155e-06,-2.60754e-06,0
-2.79615e-05,1.15063e-05,5.18029e-05,-1.19444e-05,9.25494e-06,-1.58568e-05,4.58995e-06,-2.30147e-06,0
-2.98565e-05,1.0659e-05,5.78218e-05,-1.56741e-05,8.71003e-06,-1.55872e-05,5.74872e-06,-2.2875e-06,0
-3.00596e-05,8.46443e-06,4.82452e-05,-2.29985e-05,7.88191e-06,-1.58383e-05,7.16967e-06,-1.27572e-06,0
-2.92026e-05,4.41783e-06,2.47764e-05,-2.86003e-05,6.11643e-06,-1.60302e-05,7.18077e-06,5.26415e-07,0
-2.90588e-05,2.36137e-06,-7.09324e-06,-2.91394e-05,5.10711e-06,-1.56403e-05,5.83325e-06,1.64085e-06,0
-2.92401e-05,9.24191e-06,-3.88134e-05,-2.53101e-05,6.81057e-06,-1.54928e-05,4.13941e-06,8.42355e-07,0
-2.89653e-05,2.55334e-05,-6.16253e-05,-1.73411e-05,1.0524e-05,-1.67206e-05,3.85656e-06,-7.4371e-07,0
-2.71148e-05,4.09945e-05,-7.13536e-05,-6.25611e-06,1.18011e-05,-1.76255e-05,5.42012e-06,-7.12126e-07,0
-2.52002e-05,4.8723e-05,-6.88977e-05,3.47385e-06,1.07766e-05,-1.78981e-05,7.16758e-06,1.79326e-06,0
-2.59861e-05,4.7556e-05,-5.86424e-05,9.75209e-06,1.16237e-05,-1.74198e-05,8.32435e-06,5.56837e-06,0
-2.76998e-05,3.84124e-05,-4.51213e-05,1.33742e-05,1.55974e-05,-1.63588e-05,9.25965e-06,6.95129e-06,0
-2.72487e-05,2.20687e-05,-3.41301e-05,1.28877e-05,1.86077e-05,-1.56238e-05,9.81072e-06,5.34103e-06,0
-2.43854e-05,-1.25492e-06,-2.82973e-05,9.88368e-06,1.72902e-05,-1.47766e-05,1.0928e-05,3.44636e-06,0
-2.22443e-05,-2.16618e-05,-2.33063e-05,7.21061e-06,1.37819e-05,-1.35453e-05,1.38372e-05,1.40927e-06,0
-2.37964e-05,-3.06494e-05,-1.6081e-05,4.3063e-06,1.27254e-05,-1.24859e-05,1.681e-05,1.66536e-07,0
-2.77719e-05,-2.99254e-05,-9.98748e-06,1.57884e-07,1.43166e-05,-1.14282e-05,1.7914e-05,8.09384e-07,0
-3.0369e-05,-2.11318e-05,-8.1045e-06,-2.07984e-06,1.489e-05,-1.10873e-05,1.84108e-05,3.42658e-06,0
-3.0035e-05,-1.25942e-05,-9.23198e-06,6.05521e-07,1.40304e-05,-1.06554e-05,1.80227e-05,6.16294e-06,0
-2.92051e-05,-9.12801e-06,-1.1127e-05,4.22989e-06,1.17993e-05,-1.11754e-05,1.77189e-05,5.6852e-06,0
-2.98616e-05,-7.62403e-06,-1.14885e-05,6.67032e-06,8.95623e-06,-1.18162e-05,1.92769e-05,3.24672e-06,0
-3.07403e-05,-3.71657e-06,-1.10978e-05,7.75194e-06,7.71543e-06,-9.80313e-06,2.03217e-05,3.09823e-06,0
-2.88514e-05,2.63651e-06,-1.06434e-05,4.4653e-06,8.49549e-06,-6.96662e-06,1.70733e-05,3.94795e-06,0
-2.50088e-05,7.14666e-06,-1.03732e-05,-2.02559e-06,9.60173e-06,-3.81099e-06,1.18349e-05,4.42322e-06,0
-2.32359e-05,8.51696e-06,-1.03603e-05,-7.92518e-06,1.02347e-05,-2.33938e-06,1.21207e-05,3.85508e-06,0
-2.48558e-05,8.50722e-06,-9.74677e-06,-1.2585e-05,1.02642e-05,-3.57512e-06,2.05504e-05,1.95189e-06,0
-2.77485e-05,8.54868e-06,-8.91197e-06,-1.68235e-05,9.98697e-06,-5.3793e-06,3.39217e-05,1.62962e-06,0
-2.93761e-05,8.20259e-06,-8.17218e-06,-2.16788e-05,1.01833e-05,-4.95733e-06,4.5917e-05,3.6669e-06,0
-2.94768e-05,1.0429e-05,-7.7408e-06,-2.61545e-05,1.12693e-05,-3.15057e-06,5.27688e-05,6.3897e-06,0
-2.83862e-05,1.88172e-05,-7.1511e-06,-2.69594e-05,1.36585e-05,-2.24269e-06,5.46147e-05,6.85554e-06,0
-2.6806e-05,3.14221e-05,-6.50473e-06,-2.19172e-05,1.63705e-05,-1.66992e-06,5.22141e-05,5.4661e-06,0
-2.65554e-05,3.87528e-05,-5.4348e-06,-1.40459e-05,1.84253e-05,-6.78997e-07,4.28255e-05,4.03965e-06,0
-2.86965e-05,3.58569e-05,-3.98393e-06,-9.10159e-06,2.11451e-05,1.57482e-07,2.44966e-05,3.63206e-06,0
-3.17107e-05,2.70241e-05,-2.9155e-06,-8.11089e-06,2.53637e-05,7.21058e-07,2.14841e-06,3.95472e-06,0
-3.35846e-05,1.77388e-05,-3.13263e-06,-7.29318e-06,2.79024e-05,1.29422e-06,-1.42094e-05,4.68262e-06,0
-3.3237e-05,9.63808e-06,-3.6754e-06,-3.89394e-06,2.7155e-05,1.72158e-06,-1.86383e-05,5.6082e-06,0
-3.14701e-05,3.29679e-06,-3.06904e-06,4.99383e-06,2.33981e-05,1.45082e-06,-1.3869e-05,6.20046e-06,0
-2.98497e-05,-1.47034e-06,-2.24063e-06,1.87634e-05,1.89663e-05,1.17153e-07,-6.68257e-06,4.46519e-06,0
-2.96264e-05,-6.89838e-06,-2.77027e-06,3.27775e-05,1.62766e-05,-1.52627e-06,-2.77625e-06,2.97178e-06,0
-3.02213e-05,-1.47635e-05,-3.22336e-06,4.26981e-05,1.52384e-05,-4.17847e-06,-1.4172e-06,4.2513e-06,0
-3.1439e-05,-2.0012e-05,-3.43112e-06,4.46193e-05,1.58466e-05,-7.27768e-06,1.33392e-06,5.1406e-06,0
-3.24742e-05,-1.67937e-05,-2.55027e-06,3.55124e-05,1.6423e-05,-8.03851e-06,5.25555e-06,5.25211e-06,0
-3.24409e-05,-7.30729e-06,-1.68189e-06,2.04671e-05,1.58175e-05,-7.12683e-06,9.62692e-06,3.90117e-06,0
-3.27606e-05,2.74171e-06,-4.06431e-06,7.34301e-06,1.48996e-05,-7.16581e-06,1.25342e-05,2.85776e-06,0
-3.35135e-05,7.12722e-06,-5.94902e-06,-4.3538e-07,1.49888e-05,-7.94364e-06,1.24892e-05,3.15527e-06,0
-3.48161e-05,6.49824e-06,-5.52967e-06,-1.50876e-06,1.59339e-05,-9.07758e-06,1.01648e-05,3.8375e-06,0
-3.43471e-05,5.93462e-06,-2.78932e-06,-2.55779e-06,1.59178e-05,-8.91704e-06,8.17819e-06,4.6157e-06,0
-3.30888e-05,8.36928e-06,4.27566e-07,-5.6715e-06,1.45022e-05,-6.83495e-06,8.76393e-06,3.95308e-06,0
-3.27535e-05,1.11256e-05,1.06036e-06,-8.40311e-06,1.33212e-05,-4.92911e-06,1.00302e-05,4.34299e-06,0
-3.28851e-05,1.11051e-05,-2.84483e-07,-9.27446e-06,1.23581e-05,-4.80362e-06,1.15319e-05,5.97113e-06,0
-3.37977e-05,8.18615e-06,-2.34435e-06,-7.37664e-06,1.17189e-05,-6.97154e-06,1.23637e-05,4.8754e-06,0
-3.4887e-05,4.78733e-06,-2.80612e-06,-3.72704e-06,1.26501e-05,-9.73783e-06,1.1436e-05,1.76849e-06,0
-3.43797e-05,3.20096e-06,-9.40332e-07,-4.2604e-07,1.40027e-05,-1.12901e-05,9.55489e-06,3.15027e-07,0
-3.23315e-05,4.01699e-06,5.55211e-07,-7.33951e-07,1.36264e-05,-1.16754e-05,8.28892e-06,7.20306e-07,0
-3.19566e-05,4.61597e-06,9.36531e-08,-1.04279e-05,1.28385e-05,-1.19191e-05,8.47896e-06,2.08106e-07,0
-3.35117e-05,3.23258e-06,-1.90727e-06,-2.9973e-05,1.2667e-05,-1.30575e-05,1.02743e-05,-1.61741e-06,0
-3.47168e-05,3.55346e-06,-4.43803e-06,-4.70737e-05,1.17303e-05,-1.42837e-05,1.15215e-05,-2.38816e-06,0
-3.30354e-05,7.38723e-06,-5.19168e-06,-5.21708e-05,1.07332e-05,-1.43048e-05,1.00483e-05,-5.81426e-07,0
-3.03639e-05,1.2041e-05,-3.21142e-06,-4.77829e-05,1.08853e-05,-1.3674e-05,7.33739e-06,1.88886e-06,0
-3.02735e-05,1.30094e-05,-1.67285e-06,-4.03944e-05,1.07197e-05,-1.29032e-05,5.91366e-06,1.56971e-06,0
-3.2581e-05,1.01975e-05,-2.94401e-06,-3.06033e-05,9.18775e-06,-1.23938e-05,6.30538e-06,-1.8262e-06,0
-3.39865e-05,8.99063e-06,-5.41565e-06,-1.39679e-05,7.80018e-06,-1.18145e-05,8.25737e-06,-3.80792e-06,0
-3.35912e-05,1.24065e-05,-7.52183e-06,9.60229e-06,7.09137e-06,-1.16266e-05,1.03571e-05,-3.23209e-06,0
-3.23774e-05,1.53612e-05,-9.71273e-06,3.17335e-05,7.23882e-06,-1.20501e-05,1.16449e-05,-2.1065e-06,0
-3.12916e-05,1.46291e-05,-1.05556e-05,4.656e-05,8.82292e-06,-1.1008e-05,1.29434e-05,4.67254e-07,0
-3.1421e-05,1.23833e-05,-1.0435e-05,4.99969e-05,1.04959e-05,-9.69999e-06,1.43929e-05,3.40809e-06,0
-3.28476e-05,1.16953e-05,-1.05326e-05,4.15522e-05,1.04913e-05,-1.10987e-05,1.77422e-05,4.8112e-06,0
-3.48853e-05,1.35739e-05,-9.90231e-06,2.35239e-05,9.38038e-06,-1.42632e-05,2.36587e-05,4.36744e-06,0
-3.58936e-05,1.73719e-05,-1.10801e-05,3.30648e-06,8.7189e-06,-1.63254e-05,2.92313e-05,3.00617e-06,0
-3.59138e-05,2.0823e-05,-1.32781e-05,-7.24006e-06,7.10565e-06,-1.66093e-05,2.93084e-05,1.00646e-06,0
-3.53133e-05,2.28002e-05,-1.4173e-05,-7.87502e-06,4.80418e-06,-1.52735e-05,2.3691e-05,-1.66977e-06,0
-3.42915e-05,2.43054e-05,-1.42745e-05,-7.13086e-06,4.64143e-06,-1.43396e-05,1.6912e-05,-4.04965e-06,0
-3.33722e-05,2.65258e-05,-1.33655e-05,-9.11941e-06,7.0694e-06,-1.57791e-05,1.05977e-05,-5.07201e-06,0
-3.16281e-05,2.83919e-05,-1.11207e-05,-1.45044e-05,9.13422e-06,-1.57164e-05,1.00386e-05,-4.63301e-06,0
-2.94455e-05,2.7441e-05,-9.91233e-06,-2.5064e-05,9.91496e-06,-1.3111e-05,1.82172e-05,-3.84448e-06,0
-2.94366e-05,2.52548e-05,-1.03685e-05,-3.76752e-05,1.15106e-05,-1.00918e-05,2.7067e-05,-2.89101e-06,0
-2.98617e-05,2.50165e-05,-9.72232e-06,-4.69146e-05,1.11432e-05,-7.63059e-06,3.02046e-05,-4.07329e-06,0
-2.82534e-05,2.65456e-05,-8.34592e-06,-4.64501e-05,9.5936e-06,-5.75363e-06,2.89757e-05,-6.40865e-06,0
-2.73532e-05,2.52974e-05,-6.97993e-06,-3.59745e-05,8.48522e-06,-4.66617e-06,2.54682e-05,-7.36446e-06,0
-2.78411e-05,2.10289e-05,-4.98732e-06,-2.1837e-05,8.35035e-06,-4.71287e-06,1.926e-05,-6.57445e-06,0
-2.79023e-05,1.80285e-05,-3.24576e-06,-7.80326e-06,9.87474e-06,-4.84294e-06,9.88067e-06,-5.08787e-06,0
-2.70906e-05,1.80102e-05,-3.11966e-06,3.90751e-06,1.38658e-05,-3.96735e-06,-2.8661e-07,-4.43665e-06,0
-2.70858e-05,2.00741e-05,-3.1423e-06,1.14636e-05,1.84713e-05,-1.8299e-06,-7.33837e-06,-3.92896e-06,0
-2.90148e-05,2.39677e-05,-2.7921e-06,1.40537e-05,1.88666e-05,-4.31305e-07,-9.89867e-06,-3.12597e-06,0
-3.0298e-05,2.63182e-05,-3.82275e-06,1.28623e-05,1.53674e-05,-3.5581e-07,-1.05179e-05,-1.90559e-06,0
-2.9824e-05,2.25708e-05,-6.04578e-06,9.6778e-06,1.22923e-05,-6.25746e-07,-1.07959e-05,-1.44288e-06,0
-2.94224e-05,1.29193e-05,-7.75204e-06,6.99627e-06,1.34298e-05,5.24347e-07,-9.31173e-06,-1.8786e-06,0
-2.99194e-05,3.14044e-06,-8.04042e-06,8.32034e-06,1.62896e-05,2.91509e-06,-6.8721e-06,-1.61837e-06,0
-3.06797e-05,3.33021e-06,-6.99308e-06,1.37697e-05,1.71522e-05,3.28147e-06,-4.07182e-06,-3.53354e-07,0
-3.09914e-05,2.01279e-05,-5.71014e-06,1.85362e-05,1.71936e-05,1.38791e-06,-6.29087e-07,5.45577e-08,0
-3.01094e-05,4.11492e-05,-5.98094e-06,1.90604e-05,1.86058e-05,-1.3044e-07,2.53529e-06,2.01853e-07,0
-2.79703e-05,4.99874e-05,-7.81203e-06,1.50809e-05,1.88285e-05,-5.41782e-07,6.48528e-06,9.24592e-07,0
-2.7204e-05,4.70798e-05,-8.8457e-06,6.50885e-06,1.7339e-05,6.36188e-07,1.07303e-05,2.23548e-06,0
-3.00043e-05,3.59199e-05,-8.33789e-06,-2.2293e-06,1.45735e-05,1.30413e-06,1.25481e-05,3.48673e-06,0
-3.17849e-05,1.73326e-05,-7.86338e-06,-8.82883e-06,1.1962e-05,-1.38953e-06,1.18005e-05,2.59854e-06,0
-3.03541e-05,-1.0155e-08,-8.29993e-06,-1.51582e-05,1.11908e-05,-4.71261e-06,8.11798e-06,5.72683e-07,0
-2.85972e-05,-8.25585e-06,-9.59135e-06,-2.12888e-05,1.12987e-05,-5.56282e-06,3.27849e-06,-4.17427e-07,0
-2.89052e-05,-1.14379e-05,-1.10107e-05,-2.63743e-05,1.21863e-05,-4.50867e-06,-8.97483e-07,7.05726e-07,0
-2.99413e-05,-1.15296e-05,-1.08271e-05,-2.51316e-05,1.39159e-05,-3.39668e-06,-5.62186e-06,2.52798e-06,0
-3.06719e-05,-1.07936e-05,-9.35267e-06,-1.87688e-05,1.56546e-05,-4.72533e-06,-8.71755e-06,2.87523e-06,0
-3.11733e-05,-9.93276e-06,-7.776e-06,-1.28998e-05,1.74645e-05,-6.18852e-06,-6.45349e-06,2.29923e-06,0
-2.954e-05,-7.14933e-06,-5.31267e-06,-9.44674e-06,1.9625e-05,-6.18556e-06,1.31814e-06,1.56996e-06,0
-2.72823e-05,-1.80427e-06,-3.11449e-06,-9.04097e-06,2.19148e-05,-7.15715e-06,9.45696e-06,2.2884e-06,0
-2.60224e-05,2.33752e-06,-2.25189e-06,-9.60179e-06,2.31413e-05,-8.81024e-06,1.41628e-05,3.66867e-06,0
-2.67315e-05,2.74528e-06,-2.42349e-06,-1.01818e-05,2.27191e-05,-9.48144e-06,1.70419e-05,3.55392e-06,0
-2.90941e-05,1.53662e-06,-4.50621e-06,-1.0485e-05,2.09183e-05,-8.8075e-06,2.01037e-05,3.3669e-06,0
-3.16425e-05,-4.38911e-07,-7.82557e-06,-1.08815e-05,1.92441e-05,-1.03944e-05,2.41382e-05,4.42577e-06,0
-3.18747e-05,6.00318e-07,-1.04266e-05,-1.13864e-05,1.98027e-05,-1.28357e-05,2.74537e-05,5.40691e-06,0
-3.00843e-05,5.44011e-06,-1.21358e-05,-1.27622e-05,2.19638e-05,-1.33279e-05,2.79972e-05,4.47789e-06,0
-2.95456e-05,1.15413e-05,-1.34563e-05,-1.59898e-05,2.39838e-05,-1.24209e-05,2.64456e-05,2.85478e-06,0
-3.0644e-05,1.57039e-05,-1.35029e-05,-1.93201e-05,2.49502e-05,-1.26408e-05,2.47187e-05,2.03453e-06,0
-3.12977e-05,1.86039e-05,-1.20319e-05,-2.08392e-05,2.36907e-05,-1.37912e-05,2.44225e-05,2.05174e-06,0
-3.08796e-05,2.14878e-05,-1.07505e-05,-1.98793e-05,2.06136e-05,-1.40842e-05,2.61597e-05,1.14663e-06,0
-3.01814e-05,2.38153e-05,-1.16648e-05,-1.72388e-05,1.80951e-05,-1.41319e-05,2.88156e-05,1.23078e-07,0
-2.94948e-05,2.52078e-05,-1.44909e-05,-1.50461e-05,1.59137e-05,-1.51493e-05,2.91694e-05,1.35214e-06,0
-3.01222e-05,2.62511e-05,-1.57081e-05,-1.42622e-05,1.48158e-05,-1.69352e-05,2.57627e-05,4.08528e-06,0
-3.25832e-05,2.60404e-05,-1.49894e-05,-1.46742e-05,1.67649e-05,-1.78286e-05,2.09593e-05,6.16399e-06,0
-3.51929e-05,2.49486e-05,-1.40118e-05,-1.15641e-05,2.10369e-05,-1.85824e-05,1.70873e-05,6.52108e-06,0
-3.59636e-05,2.61135e-05,-1.2568e-05,1.53243e-06,2.35547e-05,-1.84323e-05,1.55838e-05,5.88712e-06,0
-3.46807e-05,2.97445e-05,-1.10014e-05,2.0834e-05,2.39301e-05,-1.77036e-05,1.58676e-05,4.05764e-06,0
-3.28548e-05,3.16371e-05,-1.00929e-05,3.52803e-05,2.21318e-05,-1.74109e-05,1.49693e-05,2.36409e-06,0
-3.23555e-05,2.99819e-05,-1.15545e-05,4.00294e-05,1.93757e-05,-1.57147e-05,1.2285e-05,3.01603e-06,0
-3.26903e-05,2.87057e-05,-1.2472e-05,3.64958e-05,1.8947e-05,-1.26876e-05,9.91336e-06,4.12251e-06,0
-3.16114e-05,2.99939e-05,-1.15638e-05,2.81503e-05,1.97824e-05,-1.28084e-05,1.13113e-05,3.70961e-06,0
-2.9196e-05,3.17899e-05,-1.1151e-05,1.71474e-05,1.96663e-05,-1.41278e-05,1.5041e-05,2.09285e-06,0
-2.70646e-05,3.20873e-05,-9.40316e-06,3.20288e-06,1.98554e-05,-1.47117e-05,1.6412e-05,-2.01686e-07,0
-2.68509e-05,3.25978e-05,-8.43928e-06,-9.19062e-06,1.88064e-05,-1.55829e-05,1.41562e-05,-1.2026e-06,0
-2.85053e-05,3.45758e-05,-9.51779e-06,-1.65697e-05,1.65303e-05,-1.63097e-05,1.12567e-05,3.91268e-07,0
-2.74481e-05,4.0402e-05,-1.04423e-05,-1.58559e-05,1.46444e-05,-1.6682e-05,1.1994e-05,2.00179e-06,0
-2.46174e-05,5.09851e-05,-9.98403e-06,-7.90656e-06,1.3323e-05,-1.5987e-05,1.51854e-05,2.42223e-06,0
-2.34175e-05,6.22208e-05,-8.7904e-06,4.98274e-07,1.20813e-05,-1.39627e-05,1.92377e-05,1.54516e-06,0
-2.38975e-05,6.95442e-05,-8.13417e-06,4.97441e-06,8.51015e-06,-1.09325e-05,2.31585e-05,-2.82441e-07,0
-2.65256e-05,7.00497e-05,-8.29086e-06,7.58209e-06,5.18392e-06,-9.25026e-06,2.2722e-05,-1.54375e-06,0
-2.88142e-05,6.37139e-05,-9.64408e-06,1.04095e-05,3.34517e-06,-9.26263e-06,1.72605e-05,-2.82646e-06,0
-2.92404e-05,5.17609e-05,-1.23755e-05,1.12964e-05,2.69388e-06,-1.03105e-05,1.14483e-05,-3.42846e-06,0
-2.95614e-05,3.68312e-05,-1.54052e-05,7.48806e-06,2.57378e-06,-1.20451e-05,8.98635e-06,-2.85026e-06,0
-3.08353e-05,2.58108e-05,-1.67794e-05,4.00861e-07,3.39985e-06,-1.37297e-05,9.94964e-06,-2.58158e-06,0
-3.15339e-05,2.68395e-05,-1.56746e-05,-3.39968e-06,3.9837e-06,-1.36234e-05,1.1955e-05,-3.66948e-06,0
-3.06553e-05,3.82191e-05,-1.28832e-05,-3.06947e-06,3.90747e-06,-1.21841e-05,1.29174e-05,-3.72591e-06,0
-2.87956e-05,4.53089e-05,-1.12723e-05,-2.60886e-06,3.58378e-06,-1.13149e-05,1.29307e-05,-2.40621e-06,0
-2.74211e-05,3.88265e-05,-1.21322e-05,-3.48674e-06,4.02491e-06,-1.20164e-05,1.32832e-05,-1.84212e-06,0
-2.73454e-05,2.2639e-05,-1.28168e-05,-3.45045e-06,5.2142e-06,-1.32105e-05,1.43445e-05,-2.05839e-06,0
-2.75492e-05,5.4297e-06,-1.03797e-05,-3.43887e-06,5.8155e-06,-1.28738e-05,1.44143e-05,-2.9401e-06,0
-2.77393e-05,-1.00749e-05,-7.95225e-06,-5.24705e-06,6.05014e-06,-1.08388e-05,1.29919e-05,-3.72043e-06,0
-2.89624e-05,-2.73245e-05,-7.79556e-06,-7.33652e-06,5.55683e-06,-8.83519e-06,1.18306e-05,-3.26768e-06,0
-2.97553e-05,-4.61323e-05,-7.56617e-06,-8.66139e-06,4.65502e-06,-7.79392e-06,1.1853e-05,-2.90608e-06,0
-2.83736e-05,-6.39606e-05,-6.77793e-06,-1.10959e-05,3.9464e-06,-6.04394e-06,1.34707e-05,-3.78731e-06,0
-2.73134e-05,-7.78231e-05,-6.8098e-06,-1.34597e-05,3.79473e-06,-4.84377e-06,1.51888e-05,-2.58227e-06,0
-2.99903e-05,-8.3442e-05,-8.58081e-06,-1.50668e-05,1.29029e-06,-3.79192e-06,1.50691e-05,5.95626e-07,0
-3.45511e-05,-7.89347e-05,-1.25691e-05,-1.79471e-05,-1.10463e-06,-2.12874e-06,1.37829e-05,5.1536e-07,0
-3.78745e-05,-6.77045e-05,-1.69486e-05,-2.00215e-05,-1.41321e-06,-1.8455e-06,1.27328e-05,-1.60762e-06,0
-3.86424e-05,-5.03385e-05,-1.882e-05,-2.04897e-05,-1.56172e-06,-2.47135e-06,9.63243e-06,-2.37754e-06,0
-3.71144e-05,-2.58433e-05,-1.68448e-05,-2.22188e-05,-2.40438e-06,-3.45913e-06,3.95149e-06,-2.32309e-06,0
-3.55983e-05,-1.49534e-06,-1.27698e-05,-2.27834e-05,-3.68071e-06,-4.96329e-06,2.24609e-06,-1.00633e-06,0
-3.3491e-05,1.31486e-05,-9.51086e-06,-2.02945e-05,-3.82788e-06,-6.5082e-06,6.13572e-06,-8.58895e-08,0
-3.05021e-05,1.61753e-05,-7.95392e-06,-1.61731e-05,-1.34854e-06,-6.08438e-06,9.33364e-06,-1.56049e-06,0
-2.86907e-05,1.3725e-05,-8.2278e-06,-9.21532e-06,3.68018e-06,-4.95898e-06,7.92445e-06,-3.21659e-06,0
-2.93232e-05,8.60572e-06,-9.4032e-06,-2.00643e-06,6.41281e-06,-5.28715e-06,-1.50587e-06,-2.75335e-06,0
-3.03206e-05,6.24409e-07,-1.07962e-05,3.15548e-06,6.17356e-06,-6.65543e-06,-2.16654e-05,-2.93598e-06,0
-3.12032e-05,-8.00478e-06,-1.21495e-05,5.57227e-06,5.85536e-06,-7.92476e-06,-4.01139e-05,-4.72106e-06,0
-3.15175e-05,-1.52545e-05,-1.23286e-05,3.42303e-06,7.50437e-06,-8.42253e-06,-4.01055e-05,-5.91431e-06,0
-3.02734e-05,-2.02542e-05,-1.08676e-05,-1.89241e-06,9.99394e-06,-8.3978e-06,-2.23722e-05,-5.87468e-06,0
-2.8302e-05,-2.15919e-05,-9.72491e-06,-6.85747e-06,1.09418e-05,-7.02616e-06,-7.95715e-07,-4.77335e-06,0
-2.70224e-05,-1.81578e-05,-9.21796e-06,-9.32642e-06,1.07544e-05,-5.94605e-06,1.54882e-05,-3.65927e-06,0
-2.70291e-05,-1.16309e-05,-8.07475e-06,-7.51761e-06,1.16219e-05,-6.92616e-06,2.70883e-05,-3.17924e-06,0
-2.68133e-05,-4.40357e-06,-5.43259e-06,-2.55804e-06,1.36606e-05,-8.99993e-06,3.55058e-05,-2.79211e-06,0
-2.66312e-05,2.19628e-06,-2.33408e-06,1.80456e-06,1.46726e-05,-1.05571e-05,3.94828e-05,-1.42235e-06,0
-2.72472e-05,7.75891e-06,-8.27361e-07,1.76172e-06,1.42572e-05,-1.15166e-05,3.82006e-05,1.69036e-07,0
-2.76088e-05,1.19408e-05,-1.67307e-06,-1.10595e-06,1.30548e-05,-1.17084e-05,3.48292e-05,1.22793e-06,0
-2.69034e-05,1.57985e-05,-3.03074e-06,-1.73862e-06,1.34254e-05,-1.17148e-05,3.38666e-05,2.3312e-06,0
-2.83294e-05,2.1061e-05,-3.03521e-06,-7.70114e-07,1.55814e-05,-1.12613e-05,3.45069e-05,3.65282e-06,0
-3.15954e-05,2.68243e-05,-2.167e-06,-1.32869e-06,1.759e-05,-1.0659e-05,3.46078e-05,4.58059e-06,0
-3.25841e-05,3.08801e-05,-9.28766e-07,-4.93281e-06,1.8297e-05,-1.24051e-05,3.39875e-05,3.43373e-06,0
-3.05159e-05,3.51077e-05,4.49195e-07,-1.42739e-05,1.83254e-05,-1.36407e-05,3.01071e-05,1.17713e-06,0
-2.78874e-05,3.83497e-05,2.33302e-06,-2.42647e-05,1.87182e-05,-1.1184e-05,2.31377e-05,1.60939e-06,0
-2.75394e-05,4.0149e-05,5.1295e-06,-2.5178e-05,1.98205e-05,-8.60899e-06,1.78452e-05,4.09034e-06,0
-2.78185e-05,4.25359e-05,7.44401e-06,-1.76876e-05,2.06247e-05,-7.72876e-06,1.53313e-05,6.02947e-06,0
-2.70941e-05,4.47043e-05,8.081e-06,-6.34809e-06,2.06382e-05,-7.19896e-06,8.78205e-06,6.16617e-06,0
-2.65248e-05,4.39991e-05,7.79717e-06,2.48456e-06,2.08939e-05,-8.46718e-06,1.12781e-06,4.3736e-06,0
-2.62935e-05,4.12124e-05,6.04334e-06,4.43497e-06,2.06652e-05,-9.99141e-06,1.14407e-06,2.17727e-06,0
-2.79515e-05,3.99108e-05,4.7508e-06,1.89543e-06,1.9177e-05,-1.06847e-05,6.59412e-06,2.37253e-06,0
-2.9519e-05,3.7841e-05,3.48527e-06,-1.4899e-06,1.55531e-05,-1.28833e-05,1.26319e-05,3.98243e-06,0
-2.89297e-05,3.3859e-05,1.69591e-06,-5.64551e-06,1.28542e-05,-1.57271e-05,1.6014e-05,3.83409e-06,0
-2.90014e-05,2.69466e-05,9.98243e-07,-1.11581e-05,1.49228e-05,-1.71295e-05,1.6321e-05,3.10604e-06,0
-3.01517e-05,2.17858e-05,-8.34209e-07,-1.79098e-05,1.883e-05,-1.70139e-05,1.42524e-05,3.3942e-06,0
-3.15922e-05,2.64983e-05,-4.75955e-06,-2.52234e-05,2.08867e-05,-1.5547e-05,1.14746e-05,3.12706e-06,0
-3.24211e-05,4.01892e-05,-9.46063e-06,-2.92731e-05,1.98104e-05,-1.45775e-05,9.58193e-06,1.55419e-06,0
-3.07091e-05,5.33809e-05,-1.39772e-05,-2.83956e-05,1.83939e-05,-1.59924e-05,8.65629e-06,9.43479e-07,0
-2.83552e-05,5.85719e-05,-1.73689e-05,-2.43462e-05,1.91342e-05,-1.80289e-05,8.11913e-06,1.91072e-06,0
-2.91175e-05,5.35106e-05,-1.87375e-05,-2.0081e-05,2.12196e-05,-1.82464e-05,7.78601e-06,4.48688e-06,0
-3.20621e-05,3.82683e-05,-1.88597e-05,-1.51309e-05,2.31577e-05,-1.7698e-05,8.43213e-06,6.72872e-06,0
-3.41992e-05,1.50518e-05,-1.83529e-05,-9.2199e-06,2.52677e-05,-1.74435e-05,1.01815e-05,7.18162e-06,0
-3.47881e-05,-1.06423e-05,-1.77831e-05,-4.26018e-06,2.70726e-05,-1.57815e-05,1.20898e-05,7.1991e-06,0
-3.54277e-05,-2.84431e-05,-1.76917e-05,-1.4729e-06,2.61568e-05,-1.28852e-05,1.25887e-05,7.38193e-06,0
-3.58214e-05,-3.18239e-05,-1.76294e-05,-5.97578e-08,2.35395e-05,-1.12533e-05,1.23668e-05,6.39149e-06,0
-3.49036e-05,-1.86335e-05,-1.61377e-05,1.33396e-06,2.05319e-05,-1.13112e-05,1.32919e-05,3.9807e-06,0
-3.37847e-05,6.86895e-06,-1.39153e-05,2.24296e-06,1.91242e-05,-1.13704e-05,1.45496e-05,3.11493e-06,0
-3.36983e-05,3.23182e-05,-1.34678e-05,3.00863e-06,2.00787e-05,-1.04318e-05,1.45459e-05,4.42409e-06,0
-3.38109e-05,4.62003e-05,-1.36961e-05,4.03953e-06,2.13358e-05,-8.50399e-06,1.38164e-05,4.83751e-06,0
-3.40311e-05,4.37443e-05,-1.34741e-05,4.99866e-06,2.20283e-05,-6.04316e-06,1.25974e-05,3.67844e-06,0
-3.44178e-05,2.7425e-05,-1.32526e-05,3.53308e-06,2.13254e-05,-4.56079e-06,1.12258e-05,1.32417e-06,0
-3.44028e-05,1.02925e-05,-1.34175e-05,-6.51463e-07,1.89241e-05,-5.39718e-06,1.15541e-05,-1.92505e-06,0
-3.18167e-05,7.11039e-06,-1.45497e-05,-2.82788e-06,1.78504e-05,-7.02492e-06,1.28621e-05,-3.89454e-06,0
-2.74538e-05,1.79824e-05,-1.50513e-05,-6.01572e-07,1.94912e-05,-6.84119e-06,1.45564e-05,-4.52995e-06,0
-2.5811e-05,2.59491e-05,-1.46159e-05,1.1054e-06,2.27796e-05,-6.2151e-06,1.73196e-05,-3.75834e-06,0
-2.67738e-05,2.16005e-05,-1.37424e-05,1.59468e-07,2.46536e-05,-6.753e-06,2.00333e-05,-3.04443e-06,0
-2.82857e-05,9.58474e-06,-1.30929e-05,-1.64954e-07,2.41032e-05,-5.61158e-06,2.12853e-05,-3.40773e-06,0
-2.88806e-05,-5.39461e-06,-1.18961e-05,1.32826e-06,2.25634e-05,-4.74937e-06,2.10285e-05,-2.43109e-06,0
-2.98076e-05,-2.05801e-05,-1.07613e-05,1.39827e-06,1.96133e-05,-5.50688e-06,2.21659e-05,-8.35947e-07,0
-3.1807e-05,-3.5748e-05,-9.70511e-06,-1.75743e-06,1.69118e-05,-5.69933e-06,2.34661e-05,-1.53884e-06,0
-3.37812e-05,-4.85607e-05,-7.29556e-06,-5.15528e-06,1.50982e-05,-4.54569e-06,2.3032e-05,-2.46453e-06,0
-3.33377e-05,-5.70192e-05,-5.90494e-06,-6.59294e-06,1.45872e-05,-3.24492e-06,2.03813e-05,-7.29591e-07,0
-3.1693e-05,-5.73796e-05,-6.39698e-06,-7.57637e-06,1.51414e-05,-3.22317e-06,1.25391e-05,2.37799e-06,0
-3.20833e-05,-4.98166e-05,-8.54346e-06,-9.55375e-06,1.49604e-05,-4.16098e-06,1.07006e-06,4.04982e-06,0
-3.23419e-05,-3.83701e-05,-1.12168e-05,-1.22805e-05,1.31986e-05,-4.74963e-06,-6.76407e-06,3.03839e-06,0
-3.0827e-05,-2.44884e-05,-1.22338e-05,-1.34386e-05,1.15567e-05,-4.21664e-06,-4.98867e-06,1.05743e-06,0
-2.97409e-05,-9.01996e-06,-1.07725e-05,-1.09248e-05,1.12318e-05,-3.6342e-06,4.83855e-06,1.08977e-06,0
-3.06397e-05,4.3414e-06,-8.67791e-06,-7.1927e-06,1.10769e-05,-3.23421e-06,1.6962e-05,3.18981e-06,0
-3.16708e-05,1.13105e-05,-8.01612e-06,-5.43493e-06,9.74779e-06,-3.30833e-06,2.68114e-05,5.45008e-06,0
-3.11605e-05,1.24483e-05,-9.32043e-06,-5.92967e-06,6.95229e-06,-3.09088e-06,3.25057e-05,8.0278e-06,0
-2.91599e-05,9.7387e-06,-1.06297e-05,-7.1287e-06,4.58994e-06,-2.64299e-06,3.44643e-05,9.61437e-06,0
-2.7583e-05,6.73842e-06,-1.13188e-05,-8.71688e-06,4.33951e-06,-2.02344e-06,3.41009e-05,8.65106e-06,0
-2.81263e-05,5.33856e-06,-1.32564e-05,-1.12885e-05,5.44586e-06,-1.49963e-06,3.14393e-05,6.48209e-06,0
-2.99307e-05,3.84192e-06,-1.63359e-05,-1.36311e-05,6.35803e-06,-5.41651e-08,2.75748e-05,4.47378e-06,0
-3.14221e-05,2.12085e-06,-1.68048e-05,-1.32699e-05,6.68651e-06,1.94209e-06,2.40204e-05,3.23655e-06,0
-3.24433e-05,2.17396e-06,-1.29304e-05,-1.07466e-05,5.51495e-06,1.34118e-06,2.07071e-05,2.37212e-06,0
-3.30809e-05,2.71398e-06,-7.15712e-06,-8.49189e-06,5.24257e-06,-1.54223e-06,1.89209e-05,3.97828e-07,0
-3.38263e-05,1.63252e-06,-1.27066e-06,-6.92815e-06,6.8358e-06,-4.5377e-06,1.83211e-05,-2.45561e-06,0
-3.39736e-05,7.41047e-08,2.92998e-06,-4.91209e-06,8.55645e-06,-6.31775e-06,1.73832e-05,-2.27805e-06,0
-3.2891e-05,3.4606e-07,4.90465e-06,-2.74716e-06,7.63843e-06,-8.34511e-06,1.58431e-05,1.77379e-06,0
-3.1552e-05,2.60715e-06,4.87561e-06,-2.33752e-06,5.16983e-06,-9.55631e-06,1.35828e-05,3.44074e-06,0
-3.1554e-05,4.52441e-06,3.81547e-06,-2.40206e-06,4.62231e-06,-8.88037e-06,8.40058e-06,1.85036e-06,0
-3.23232e-05,5.57415e-06,3.54094e-06,-7.03647e-07,4.13677e-06,-7.71758e-06,2.53761e-06,-1.05299e-06,0
-3.19125e-05,8.30928e-06,1.78872e-06,5.83143e-07,3.29296e-06,-5.50157e-06,5.16781e-07,-2.58417e-06,0
-3.10026e-05,1.21594e-05,-2.03852e-06,1.08605e-06,3.51237e-06,-3.0705e-06,1.9022e-06,-2.36783e-06,0
-3.00321e-05,1.37225e-05,-6.10891e-06,2.36405e-06,5.68032e-06,-2.11402e-06,8.63859e-06,-3.90925e-06,0
-2.80519e-05,1.33892e-05,-9.9829e-06,5.96779e-06,8.07623e-06,-4.70874e-06,2.15582e-05,-4.59483e-06,0
-2.72715e-05,1.52017e-05,-1.38167e-05,8.60753e-06,8.94668e-06,-8.68828e-06,3.64262e-05,-1.78522e-06,0
-2.9018e-05,1.76865e-05,-1.66811e-05,6.77564e-06,6.94944e-06,-1.17662e-05,4.69621e-05,1.26535e-06,0
-3.04573e-05,1.71984e-05,-1.74881e-05,3.26827e-06,2.76409e-06,-1.33999e-05,5.06907e-05,9.9647e-07,0
-3.08501e-05,1.46642e-05,-1.73586e-05,1.1224e-06,-1.3888e-06,-1.43968e-05,4.75702e-05,3.47871e-07,0
-2.99862e-05,1.14356e-05,-1.52963e-05,5.78914e-07,-4.22366e-06,-1.51364e-05,3.62769e-05,-6.52014e-07,0
-2.96725e-05,9.41514e-06,-1.22049e-05,-2.91816e-07,-4.39708e-06,-1.54363e-05,1.46301e-05,-3.55531e-06,0
-3.10192e-05,9.27294e-06,-9.47627e-06,-1.45945e-06,-1.89139e-06,-1.58901e-05,-1.33185e-05,-6.60224e-06,0
-3.29287e-05,1.12884e-05,-7.81649e-06,-3.17265e-06,1.05858e-06,-1.60163e-05,-3.91318e-05,-7.65618e-06,0
-3.27492e-05,1.51354e-05,-6.58654e-06,-4.14379e-06,2.44078e-06,-1.63173e-05,-5.62663e-05,-7.39486e-06,0
-2.97344e-05,1.90384e-05,-4.86573e-06,-3.26736e-06,3.25004e-06,-1.62473e-05,-5.94946e-05,-8.14849e-06,0
-2.70142e-05,2.16182e-05,-2.58419e-06,-1.40065e-06,3.73679e-06,-1.65401e-05,-4.88658e-05,-8.60961e-06,0
-2.67306e-05,2.38035e-05,-4.73722e-07,-1.57322e-07,3.61739e-06,-1.69504e-05,-3.06769e-05,-6.46149e-06,0
-2.77637e-05,2.67766e-05,-4.35227e-07,4.45936e-07,3.95487e-06,-1.69221e-05,-1.34171e-05,-2.75782e-06,0
-2.82059e-05,2.99949e-05,-2.64869e-06,6.76212e-07,5.58448e-06,-1.6977e-05,-1.34426e-06,-1.46663e-07,0
-2.84714e-05,3.19998e-05,-6.33957e-06,1.1562e-06,7.87815e-06,-1.76747e-05,4.77428e-06,1.62623e-06,0
-2.89691e-05,3.37722e-05,-1.0429e-05,1.98427e-06,9.56027e-06,-1.78227e-05,7.19347e-06,2.77745e-06,0
-2.93023e-05,3.58988e-05,-1.25857e-05,2.91422e-06,1.18701e-05,-1.71362e-05,7.41038e-06,3.03069e-06,0
-2.96941e-05,3.69293e-05,-1.20659e-05,4.99707e-06,1.52991e-05,-1.5834e-05,6.03327e-06,2.49904e-06,0
-3.12104e-05,3.78184e-05,-1.12052e-05,5.66756e-06,1.6906e-05,-1.51278e-05,4.55947e-06,1.78583e-06,0
-3.27621e-05,3.80273e-05,-1.00212e-05,4.20815e-06,1.69848e-05,-1.57808e-05,6.9629e-06,-1.00212e-06,0
-3.19542e-05,3.79917e-05,-8.48893e-06,1.64378e-06,1.93022e-05,-1.6332e-05,1.19799e-05,-3.23657e-06,0
-2.98969e-05,3.81814e-05,-7.19107e-06,-1.37256e-06,2.24188e-05,-1.49743e-05,1.41587e-05,-5.63154e-07,0
-2.8228e-05,3.46402e-05,-7.38131e-06,-3.22548e-06,2.20637e-05,-1.34449e-05,1.53298e-05,3.18504e-06,0
-2.56347e-05,3.10596e-05,-8.10596e-06,-5.79027e-06,1.99577e-05,-1.17536e-05,1.841e-05,4.23117e-06,0
-2.46668e-05,3.17183e-05,-8.55242e-06,-1.11106e-05,1.83783e-05,-1.0292e-05,2.14044e-05,4.34386e-06,0
-2.47494e-05,3.44327e-05,-9.20539e-06,-1.44137e-05,1.84457e-05,-1.1627e-05,2.25513e-05,5.0432e-06,0
-2.4606e-05,3.53843e-05,-8.79813e-06,-1.08115e-05,1.96955e-05,-1.33245e-05,2.1226e-05,5.0878e-06,0
-2.55996e-05,3.14272e-05,-7.07811e-06,-6.44625e-06,2.04561e-05,-1.35096e-05,1.83432e-05,4.74367e-06,0
-2.73907e-05,2.49074e-05,-5.78437e-06,-7.64616e-06,2.00954e-05,-1.21842e-05,1.71676e-05,3.78476e-06,0
-2.84364e-05,1.83511e-05,-5.99516e-06,-1.03232e-05,1.88354e-05,-1.13344e-05,2.01634e-05,1.68646e-06,0
-2.79844e-05,1.69294e-05,-6.94344e-06,-8.57686e-06,1.82695e-05,-1.1626e-05,2.7235e-05,7.0441e-07,0
-2.73547e-05,1.93599e-05,-7.34393e-06,-8.54567e-07,2.03076e-05,-1.3342e-05,3.55398e-05,2.72618e-06,0
-2.69656e-05,2.04438e-05,-7.17617e-06,9.35805e-06,2.37502e-05,-1.48713e-05,4.12429e-05,6.07265e-06,0
-2.82644e-05,1.85555e-05,-7.1952e-06,1.81481e-05,2.66116e-05,-1.4617e-05,4.1724e-05,9.11127e-06,0
-3.09512e-05,1.45189e-05,-6.64718e-06,2.24265e-05,2.8739e-05,-1.30337e-05,3.83806e-05,1.00055e-05,0
-3.35687e-05,1.09445e-05,-6.78309e-06,2.01425e-05,2.99308e-05,-1.20484e-05,3.30794e-05,8.29844e-06,0
-3.471e-05,1.11077e-05,-8.70565e-06,9.10797e-06,2.99518e-05,-1.23255e-05,2.63409e-05,6.56713e-06,0
-3.44969e-05,1.54002e-05,-1.08894e-05,-1.10815e-05,2.81456e-05,-1.21772e-05,1.83513e-05,6.14317e-06,0
-3.35524e-05,2.04369e-05,-1.091e-05,-3.67961e-05,2.64125e-05,-1.09125e-05,1.05266e-05,5.60096e-06,0
-3.26966e-05,2.3875e-05,-9.15916e-06,-6.30245e-05,2.47818e-05,-9.76349e-06,2.0783e-06,4.89494e-06,0
-3.228e-05,2.37321e-05,-7.25897e-06,-8.14368e-05,2.21094e-05,-9.20812e-06,-8.76345e-06,5.36063e-06,0
-3.18148e-05,2.00653e-05,-6.74073e-06,-8.27132e-05,1.99669e-05,-8.80329e-06,-2.14954e-05,6.91024e-06,0
-3.19221e-05,1.22475e-05,-8.14459e-06,-6.30611e-05,2.01164e-05,-9.33342e-06,-3.09476e-05,8.34589e-06,0
-3.26686e-05,4.89525e-06,-9.02583e-06,-2.57643e-05,1.94057e-05,-1.04387e-05,-3.20682e-05,8.10408e-06,0
-3.28157e-05,2.24938e-06,-9.80469e-06,1.37245e-05,1.38496e-05,-1.05537e-05,-2.54357e-05,6.50167e-06,0
-3.31052e-05,4.65343e-06,-1.11715e-05,4.02201e-05,7.42901e-06,-8.65526e-06,-1.46933e-05,4.64313e-06,0
-3.33403e-05,9.8821e-06,-1.04897e-05,5.40597e-05,6.73604e-06,-7.4969e-06,-6.14489e-06,4.16416e-06,0
-3.22271e-05,1.37262e-05,-7.00819e-06,5.68762e-05,1.19115e-05,-9.17587e-06,-3.07795e-06,6.33158e-06,0
-3.01955e-05,1.56582e-05,-3.10459e-06,5.06874e-05,1.75683e-05,-1.14541e-05,1.02095e-07,8.99144e-06,0
-2.75477e-05,1.93205e-05,-2.32387e-06,3.61174e-05,1.92265e-05,-1.1343e-05,8.27936e-06,8.77686e-06,0
-2.6895e-05,2.33538e-05,-3.60578e-06,1.62448e-05,1.64515e-05,-9.0763e-06,1.47888e-05,6.47221e-06,0
-2.92431e-05,2.37907e-05,-3.42404e-06,5.81068e-06,1.21447e-05,-7.34504e-06,1.61458e-05,3.95973e-06,0
-3.09387e-05,2.20297e-05,-2.06036e-06,1.40826e-05,9.80595e-06,-6.31194e-06,1.71276e-05,3.39821e-06,0
-2.96478e-05,1.96837e-05,-1.03281e-06,3.037e-05,9.18807e-06,-4.16464e-06,2.04784e-05,2.9909e-06,0
-2.73573e-05,2.12516e-05,-1.6236e-06,3.70675e-05,9.54186e-06,-1.74436e-06,2.41548e-05,2.29343e-06,0
-2.51934e-05,2.8503e-05,-3.60467e-06,2.98751e-05,1.07585e-05,-1.25767e-06,2.75693e-05,2.90303e-06,0
-2.44815e-05,3.51534e-05,-5.17932e-06,1.57465e-05,1.28258e-05,-1.64957e-06,3.16337e-05,3.65711e-06,0
-2.58426e-05,3.40689e-05,-4.87561e-06,5.5135e-06,1.39724e-05,-4.94736e-07,3.55451e-05,5.23263e-06,0
-2.80092e-05,2.6118e-05,-4.41751e-06,2.85106e-06,1.3433e-05,3.47968e-07,3.76155e-05,7.3243e-06,0
-2.91417e-05,1.66239e-05,-4.7053e-06,2.73349e-06,1.41723e-05,-9.66872e-07,3.58241e-05,8.39372e-06,0
-2.86376e-05,1.26314e-05,-4.8933e-06,7.7814e-07,1.70807e-05,-3.99371e-06,3.07489e-05,7.36161e-06,0
-2.76974e-05,2.05343e-05,-5.55777e-06,-3.76936e-06,1.95327e-05,-6.98736e-06,2.49565e-05,6.08797e-06,0
-2.70894e-05,3.65634e-05,-6.2379e-06,-1.11975e-05,1.95094e-05,-7.81239e-06,2.14301e-05,4.84603e-06,0
-2.71254e-05,5.02029e-05,-6.49383e-06,-2.23087e-05,1.77057e-05,-6.97798e-06,1.99443e-05,3.95264e-06,0
-2.67727e-05,5.34734e-05,-7.04666e-06,-3.50563e-05,1.47245e-05,-6.2353e-06,1.72215e-05,3.74375e-06,0
-2.59121e-05,4.51434e-05,-8.42735e-06,-4.51929e-05,1.26342e-05,-5.4845e-06,1.32259e-05,3.51389e-06,0
-2.55332e-05,3.02639e-05,-1.02654e-05,-5.0194e-05,1.20999e-05,-5.15625e-06,1.21945e-05,2.30382e-06,0
-2.65178e-05,1.43979e-05,-1.23732e-05,-5.27532e-05,1.27e-05,-6.61733e-06,1.34713e-05,1.00853e-06,0
-2.86501e-05,2.9138e-08,-1.44622e-05,-5.39276e-05,1.29503e-05,-8.14312e-06,1.49682e-05,1.62824e-06,0
-3.0593e-05,-1.54409e-05,-1.52615e-05,-5.32485e-05,1.3e-05,-7.71611e-06,1.47549e-05,2.8989e-06,0
-3.17191e-05,-3.54224e-05,-1.31902e-05,-5.25229e-05,1.49448e-05,-7.19228e-06,1.2584e-05,2.87207e-06,0
-3.25932e-05,-5.55448e-05,-1.15404e-05,-5.073e-05,1.79009e-05,-8.17412e-06,1.14299e-05,1.83399e-06,0
-3.38804e-05,-6.60307e-05,-1.26528e-05,-4.48549e-05,1.86111e-05,-8.41994e-06,1.03628e-05,8.15075e-07,0
-3.47736e-05,-5.85798e-05,-1.35288e-05,-3.0149e-05,1.76614e-05,-6.86196e-06,8.08402e-06,-1.49557e-06,0
-3.32777e-05,-4.0369e-05,-1.2592e-05,-9.70991e-06,1.85145e-05,-4.71934e-06,6.51346e-06,-2.39e-06,0
-3.13934e-05,-2.38389e-05,-1.06446e-05,6.61899e-06,2.0629e-05,-4.19296e-06,6.47957e-06,-2.36994e-07,0
-3.04741e-05,-1.18125e-05,-1.00986e-05,1.5964e-05,2.13499e-05,-3.7451e-06,5.95495e-06,8.13817e-07,0
-2.97652e-05,-3.9129e-06,-9.27858e-06,1.77181e-05,2.07872e-05,-1.5525e-06,7.25204e-06,3.16311e-07,0
-2.90676e-05,5.82101e-07,-7.08393e-06,1.54825e-05,2.15209e-05,-1.09057e-07,1.10091e-05,5.95666e-07,0
-2.92345e-05,3.06867e-06,-5.32092e-06,1.45681e-05,2.28601e-05,-2.07636e-06,1.45726e-05,4.82718e-07,0
-3.08751e-05,4.58834e-06,-5.43617e-06,1.55893e-05,2.30512e-05,-5.51576e-06,1.56134e-05,-1.34223e-07,0
-3.22437e-05,4.16296e-06,-6.74246e-06,1.49859e-05,2.29901e-05,-7.05696e-06,1.40925e-05,1.13405e-06,0
-3.34284e-05,2.47278e-06,-7.56774e-06,1.07047e-05,2.20917e-05,-7.47915e-06,1.25058e-05,3.09053e-06,0
-3.32039e-05,1.28704e-06,-7.75582e-06,4.90482e-06,2.0127e-05,-7.82877e-06,1.07639e-05,4.38241e-06,0
-3.27907e-05,5.55097e-07,-7.51287e-06,-1.22241e-07,1.79228e-05,-7.5588e-06,9.22603e-06,4.24556e-06,0
-3.27735e-05,-8.0898e-07,-7.28109e-06,-6.57303e-06,1.47592e-05,-6.75211e-06,1.07789e-05,2.26958e-06,0
-3.20381e-05,-1.49149e-06,-6.85824e-06,-1.6142e-05,1.11984e-05,-6.36513e-06,1.59555e-05,2.17089e-08,0
-3.11679e-05,1.91314e-07,-7.02887e-06,-2.59628e-05,8.85349e-06,-6.32821e-06,2.11398e-05,-1.96915e-06,0
-3.03882e-05,4.44618e-06,-7.383e-06,-3.3039e-05,8.8421e-06,-6.2594e-06,2.41197e-05,-3.80394e-06,0
-2.97098e-05,7.81111e-06,-7.54476e-06,-3.69427e-05,9.94405e-06,-6.88395e-06,2.48208e-05,-4.78855e-06,0
-2.91395e-05,8.97144e-06,-6.64735e-06,-3.71527e-05,8.86276e-06,-8.67108e-06,2.33839e-05,-4.36767e-06,0
-2.90634e-05,1.03684e-05,-5.1109e-06,-3.23079e-05,4.61293e-06,-1.1175e-05,2.0487e-05,-4.6167e-06,0
-2.92989e-05,1.23132e-05,-4.83671e-06,-2.47792e-05,1.36856e-06,-1.24596e-05,1.92327e-05,-6.26526e-06,0
-3.01656e-05,1.42619e-05,-5.91066e-06,-1.58583e-05,1.38904e-06,-1.18781e-05,1.87925e-05,-8.07436e-06,0
-3.03091e-05,1.62424e-05,-6.66113e-06,-7.45997e-06,1.54798e-06,-1.17403e-05,1.59268e-05,-9.08859e-06,0
-2.97702e-05,1.94087e-05,-7.17325e-06,-2.20577e-06,1.26161e-06,-1.23986e-05,1.14072e-05,-8.52169e-06,0
-2.98873e-05,2.72854e-05,-8.4343e-06,-1.7818e-06,1.81777e-06,-1.27979e-05,7.95595e-06,-6.70464e-06,0
-3.03987e-05,3.93393e-05,-9.45541e-06,-5.02657e-06,1.07138e-06,-1.19003e-05,7.11108e-06,-5.26739e-06,0
-3.07815e-05,5.03159e-05,-9.13738e-06,-8.76421e-06,-4.52756e-07,-1.17769e-05,6.44743e-06,-5.31454e-06,0
-3.02215e-05,5.88896e-05,-6.17812e-06,-1.12383e-05,-6.93548e-07,-1.39629e-05,5.13102e-06,-7.49567e-06,0
-2.97686e-05,6.58919e-05,-1.91278e-06,-1.26483e-05,-1.06417e-06,-1.75176e-05,5.09388e-06,-1.10758e-05,0
-2.93016e-05,7.11807e-05,-1.05173e-06,-1.0213e-05,-1.26264e-06,-2.06863e-05,6.21251e-06,-1.33979e-05,0
-2.83577e-05,6.97388e-05,-4.23847e-06,-4.44223e-06,9.17397e-07,-2.21214e-05,5.96276e-06,-1.38027e-05,0
-2.80484e-05,6.16041e-05,-6.94053e-06,1.16236e-06,3.85757e-06,-2.11734e-05,4.94487e-06,-1.35987e-05,0
-2.7664e-05,4.85012e-05,-7.11638e-06,6.89615e-06,3.41117e-06,-1.87787e-05,4.89368e-06,-1.3611e-05,0
-2.88457e-05,2.94302e-05,-5.87935e-06,1.30309e-05,1.06971e-06,-1.82461e-05,5.63062e-06,-1.26938e-05,0
-3.07777e-05,5.92747e-06,-5.71972e-06,1.83758e-05,-2.69902e-07,-1.87645e-05,8.38508e-06,-1.04436e-05,0
-3.20327e-05,-2.0126e-05,-6.13106e-06,1.98737e-05,-2.25417e-07,-1.86749e-05,1.16716e-05,-7.32749e-06,0
-3.32078e-05,-3.91714e-05,-5.99352e-06,1.79375e-05,2.47433e-06,-1.80423e-05,1.29042e-05,-4.47063e-06,0
-3.4489e-05,-4.65518e-05,-6.33548e-06,1.33841e-05,5.15373e-06,-1.84208e-05,1.36254e-05,-4.04747e-06,0
-3.39182e-05,-4.35901e-05,-7.1687e-06,8.22789e-06,6.01546e-06,-2.00543e-05,1.6141e-05,-5.793e-06,0
-3.13352e-05,-3.05144e-05,-6.82931e-06,4.60745e-06,7.70434e-06,-2.09856e-05,1.85623e-05,-7.86897e-06,0
-2.96383e-05,-1.37257e-05,-4.80259e-06,4.58221e-06,1.12884e-05,-1.97668e-05,1.89821e-05,-9.9724e-06,0
-2.91361e-05,5.30472e-07,-3.023e-06,7.16675e-06,1.50391e-05,-1.66617e-05,1.86488e-05,-1.18041e-05,0
-3.01298e-05,8.85639e-06,-2.70568e-06,1.01536e-05,1.74727e-05,-1.31039e-05,1.86128e-05,-1.16589e-05,0
-3.0723e-05,1.22979e-05,-3.07907e-06,1.47784e-05,1.86168e-05,-1.05273e-05,1.81639e-05,-8.72566e-06,0
-2.89783e-05,1.39318e-05,-3.01718e-06,2.03365e-05,1.79196e-05,-1.02453e-05,1.63182e-05,-5.08963e-06,0
-2.61562e-05,1.6484e-05,-2.76628e-06,2.06004e-05,1.59904e-05,-1.13147e-05,1.24689e-05,-2.72908e-06,0
-2.50708e-05,1.89727e-05,-3.45529e-06,1.16068e-05,1.4865e-05,-1.14225e-05,7.08647e-06,-1.39353e-06,0
-2.53165e-05,1.92185e-05,-5.82773e-06,7.87365e-08,1.53101e-05,-1.02332e-05,3.84236e-06,-1.03925e-06,0
-2.58063e-05,1.93515e-05,-8.76494e-06,-8.02959e-06,1.48681e-05,-8.9691e-06,3.571e-06,-1.42926e-06,0
-2.59775e-05,2.19239e-05,-1.0578e-05,-1.31669e-05,1.29024e-05,-7.25772e-06,3.84909e-06,-7.69344e-07,0
