ch1,ch2,ch3,ch4,ch5,ch6,ch7,ch8,class
-4.17197e-05,1.25123e-06,-1.09333e-05,-5.61177e-05,-1.82988e-05,1.14333e-05,7.63858e-05,-2.69985e-06,0
-4.02047e-05,6.05477e-06,-6.534e-06,-1.13348e-05,-1.8587e-05,-6.9504e-07,8.94787e-05,-5.41509e-06,0
-3.98709e-05,7.89626e-06,-5.57256e-06,2.98583e-05,-2.21273e-05,-1.72844e-05,9.9094e-05,-7.14483e-06,0
-3.97299e-05,5.6359e-06,-7.46212e-06,4.93475e-05,-3.32237e-05,-2.39312e-05,0.00011489,-7.03538e-06,0
-3.64378e-05,3.1389e-06,-5.96314e-06,4.76109e-05,-3.86976e-05,-2.08945e-05,0.00014214,-6.46702e-06,0
-3.0146e-05,5.06326e-06,-4.92573e-08,2.74757e-05,-2.77569e-05,-1.50521e-05,0.000174048,-6.3512e-06,0
-2.55357e-05,1.0221e-05,3.85894e-06,-6.38871e-06,-9.42272e-06,-1.06589e-05,0.000179681,-5.97919e-06,0
-2.50579e-05,1.64195e-05,9.24405e-07,-3.72402e-05,2.05812e-06,-1.04276e-05,0.000138016,-5.67279e-06,0
-2.73102e-05,2.41926e-05,-4.73492e-06,-4.29977e-05,6.64928e-06,-1.37686e-05,5.17491e-05,-6.81761e-06,0
-2.94053e-05,3.40613e-05,-7.41973e-06,-1.48337e-05,8.91295e-06,-1.8311e-05,-6.46491e-05,-9.13519e-06,0
-3.06075e-05,4.31458e-05,-7.19175e-06,2.56724e-05,8.0231e-06,-2.19748e-05,-0.000189565,-1.02032e-05,0
-3.08051e-05,4.90253e-05,-6.90364e-06,3.87695e-05,8.8432e-07,-2.48437e-05,-0.000292565,-9.14158e-06,0
-3.06149e-05,5.15168e-05,-1.00808e-05,1.84338e-05,-8.80213e-06,-2.6826e-05,-0.000343859,-8.2131e-06,0
-3.04258e-05,5.22862e-05,-1.15034e-05,9.72624e-06,-1.00144e-05,-2.58306e-05,-0.000330932,-6.88383e-06,0
-2.94529e-05,5.00606e-05,-5.84661e-06,3.02747e-05,-2.66773e-06,-2.18366e-05,-0.000286593,-5.23814e-06,0
-3.06737e-05,4.47029e-05,6.85265e-07,4.15757e-05,2.64881e-06,-1.89893e-05,-0.000221716,-2.96236e-06,0
-3.45148e-05,4.1588e-05,1.56282e-06,3.52226e-05,6.96545e-06,-1.90721e-05,-0.000126371,-9.01132e-08,0
-3.81736e-05,3.96774e-05,-3.17383e-06,3.08856e-05,1.50262e-05,-1.70354e-05,-1.89028e-05,1.57668e-06,0
-4.06857e-05,3.21485e-05,-6.21647e-06,2.71642e-05,2.29693e-05,-1.17503e-05,6.67357e-05,1.78968e-06,0
-4.1684e-05,1.4277e-05,-3.5853e-06,1.73812e-05,2.53425e-05,-7.69603e-06,0.000108396,1.86695e-06,0
-4.17844e-05,-1.1503e-05,-2.27695e-07,1.21863e-05,2.16105e-05,-7.43257e-06,0.000140516,1.66273e-07,0
-4.074e-05,-3.32976e-05,-6.213e-07,1.95396e-05,1.67965e-05,-1.08347e-05,0.000167453,-5.69504e-07,0
-3.83645e-05,-3.85173e-05,-1.82672e-06,3.4344e-05,1.37053e-05,-1.42568e-05,0.000158867,1.46112e-06,0
-3.73663e-05,-2.59181e-05,-1.34638e-06,5.22845e-05,1.24136e-05,-1.51266e-05,0.000142874,3.60434e-06,0
-3.84835e-05,-4.77932e-06,-5.96172e-07,6.49681e-05,1.31642e-05,-1.49782e-05,0.000165605,5.6583e-06,0
-3.965e-05,1.68104e-05,2.58526e-06,5.95536e-05,1.4095e-05,-1.6356e-05,0.000192049,6.59347e-06,0
-3.90519e-05,3.43446e-05,5.97306e-06,3.4312e-05,1.01447e-05,-1.894e-05,0.000131544,7.02026e-06,0
-3.70958e-05,4.54248e-05,5.74619e-06,-1.21279e-06,1.5998e-06,-2.27714e-05,-3.2091e-05,6.24013e-06,0
-3.572e-05,4.8703e-05,1.79806e-06,-2.68845e-05,-5.37743e-06,-2.78436e-05,-0.000186216,4.84797e-06,0
-3.52799e-05,4.58813e-05,-3.1646e-06,-2.64946e-05,-6.82874e-06,-3.17155e-05,-0.000224775,2.69111e-06,0
-3.36345e-05,4.19437e-05,-6.05756e-06,-1.93364e-05,-4.29015e-06,-3.10238e-05,-0.000138017,-1.40843e-07,0
-2.95779e-05,3.78878e-05,-6.68473e-06,-3.77293e-05,-9.07351e-07,-2.41491e-05,-1.29722e-05,-1.77689e-06,0
-2.57519e-05,3.08042e-05,-6.43582e-06,-7.63998e-05,-3.89385e-07,-1.2857e-05,6.83256e-05,-1.09558e-06,0
-2.25283e-05,2.17112e-05,-4.42778e-06,-9.55076e-05,-5.36368e-06,-2.12397e-07,0.000104821,5.55631e-07,0
-1.56828e-05,1.41783e-05,-3.08594e-08,-7.84843e-05,-1.06252e-05,1.02298e-05,0.000126504,1.53798e-06,0
-8.42118e-06,8.32568e-06,3.85544e-06,-3.83702e-05,-6.32631e-06,1.31302e-05,0.000113549,1.78899e-06,0
-1.10411e-05,2.81003e-06,3.7718e-06,4.98255e-06,8.15851e-06,5.93341e-06,2.15545e-05,2.57591e-06,0
-2.19399e-05,-4.51965e-06,-3.59624e-07,1.77751e-05,1.53302e-05,-5.65419e-06,-7.98122e-05,4.62927e-06,0
-2.92769e-05,-1.14975e-05,-5.74974e-06,-1.09387e-05,4.76055e-06,-1.416e-05,-7.51575e-05,5.75299e-06,0
-2.91722e-05,-1.12505e-05,-1.08357e-05,-4.06043e-05,-1.16449e-05,-1.88333e-05,1.87445e-05,5.49859e-06,0
-2.50904e-05,-1.46706e-06,-1.41459e-05,-1.94727e-05,-2.09995e-05,-2.15148e-05,8.94885e-05,3.89015e-06,0
-2.28491e-05,8.61149e-06,-1.54087e-05,3.92428e-05,-1.80182e-05,-2.11726e-05,9.5248e-05,1.8977e-06,0
-2.44735e-05,1.52004e-05,-1.72466e-05,5.45416e-05,-8.16676e-06,-2.15073e-05,5.18662e-05,-5.45976e-07,0
-2.8e-05,2.44408e-05,-2.00309e-05,-2.13482e-06,-4.6082e-06,-2.65464e-05,-4.03784e-06,-1.60421e-06,0
-3.16428e-05,4.41265e-05,-2.36046e-05,-8.27939e-05,-8.19181e-06,-3.1776e-05,-3.40219e-05,-6.5223e-07,0
-3.30101e-05,6.6265e-05,-2.62526e-05,-0.000121172,-1.12407e-05,-3.30286e-05,-3.1417e-05,1.24428e-06,0
-3.40898e-05,7.79119e-05,-2.28665e-05,-0.000104512,-7.18264e-06,-3.12724e-05,-1.24072e-05,2.06972e-06,0
-3.75104e-05,8.28591e-05,-1.63997e-05,-6.48128e-05,6.94104e-06,-2.778e-05,7.00652e-06,1.7849e-06,0
-4.02059e-05,8.20721e-05,-1.08594e-05,-2.90547e-05,2.3774e-05,-2.33218e-05,1.77852e-05,3.00825e-06,0
-3.74998e-05,7.61253e-05,-7.03176e-06,-1.71194e-05,3.574e-05,-1.63619e-05,7.16482e-07,2.74597e-06,0
-3.20753e-05,6.25302e-05,-5.62085e-06,6.91067e-07,4.17916e-05,-6.95067e-06,-3.84424e-05,1.41451e-06,0
-2.64931e-05,3.9322e-05,-6.38177e-06,4.79553e-05,4.80015e-05,1.39597e-06,-5.23157e-05,1.284e-06,0
-2.37829e-05,6.46027e-06,-7.35517e-06,0.000102293,5.84158e-05,5.14137e-06,-2.15047e-05,1.96676e-06,0
-2.54829e-05,-2.81282e-05,-5.90144e-06,0.000135858,6.76287e-05,4.03046e-06,2.70897e-05,2.82917e-06,0
-2.64394e-05,-5.16556e-05,-1.75721e-06,0.00013515,6.84327e-05,8.52126e-07,6.28716e-05,4.2913e-06,0
-2.44104e-05,-5.93173e-05,1.81542e-06,0.000103484,5.79803e-05,-2.74264e-06,7.73464e-05,5.35068e-06,0
-2.25838e-05,-5.29282e-05,1.14923e-06,3.84959e-05,4.03951e-05,-5.27614e-06,8.52767e-05,5.65356e-06,0
-2.37111e-05,-3.45883e-05,-2.45419e-06,-4.89732e-05,2.42024e-05,-6.24129e-06,9.92637e-05,5.88814e-06,0
-2.5614e-05,-5.76448e-06,-4.38116e-06,-0.000106357,1.51732e-05,-6.9026e-06,0.000116127,5.18908e-06,0
-2.85957e-05,2.30649e-05,-2.14941e-06,-0.000103552,9.57103e-06,-8.04512e-06,0.000128848,3.27168e-06,0
-3.48361e-05,3.95109e-05,7.60676e-07,-6.8256e-05,1.98536e-06,-9.44029e-06,0.000136115,1.28003e-06,0
-4.30063e-05,3.74105e-05,9.15045e-07,-2.42277e-05,-4.77129e-06,-1.03474e-05,0.000128592,5.46598e-07,0
-4.29743e-05,2.41032e-05,-1.40962e-06,2.15592e-05,-2.23867e-06,-5.83221e-06,0.000103134,6.43053e-07,0
-2.64277e-05,8.6532e-06,-2.96221e-06,4.00409e-05,8.95381e-06,6.40207e-06,7.87059e-05,1.50428e-06,0
-9.46004e-06,-5.08337e-06,-2.53383e-06,8.10342e-06,1.67849e-05,1.38601e-05,8.50741e-05,2.42729e-06,0
-1.40016e-05,-1.52341e-05,-3.88627e-06,-4.32832e-05,1.46576e-05,6.13816e-06,0.000128022,2.57101e-06,0
-2.85002e-05,-2.04062e-05,-8.72601e-06,-6.23074e-05,9.77923e-06,-6.06177e-06,0.000200493,2.32982e-06,0
-3.46569e-05,-1.65348e-05,-1.22986e-05,-4.79639e-05,1.22225e-05,-1.02951e-05,0.000310835,2.43773e-06,0
-3.36324e-05,-1.64657e-06,-1.05876e-05,-3.87482e-05,2.56711e-05,-7.37394e-06,0.000423378,1.39351e-06,0
-2.99068e-05,1.87517e-05,-6.37915e-06,-3.88393e-05,4.28554e-05,-3.20116e-06,0.000459611,3.13323e-07,0
-2.6219e-05,3.34301e-05,-6.02796e-06,-2.37873e-05,5.01001e-05,-3.38172e-07,0.000369485,8.80527e-07,0
-2.51369e-05,4.0086e-05,-9.30706e-06,6.67429e-06,4.99203e-05,1.56318e-06,0.000167378,4.50581e-07,0
-2.94193e-05,4.23541e-05,-1.17029e-05,2.62018e-05,5.07108e-05,-6.14731e-07,-0.000100421,-1.16094e-07,0
-3.51311e-05,3.67646e-05,-1.19226e-05,2.34882e-05,5.0427e-05,-6.21375e-06,-0.000373472,1.26963e-06,0
-3.68488e-05,2.33745e-05,-1.31064e-05,2.93887e-05,4.20676e-05,-1.31254e-05,-0.00055042,3.43845e-06,0
-3.47166e-05,3.7073e-06,-1.62117e-05,5.30997e-05,2.8001e-05,-1.97334e-05,-0.000545603,4.975e-06,0
-3.28007e-05,-1.82419e-05,-1.78647e-05,7.2557e-05,2.1509e-05,-2.12532e-05,-0.000380269,5.17504e-06,0
-3.2992e-05,-3.81741e-05,-1.77587e-05,8.87921e-05,1.92016e-05,-1.43604e-05,-0.000186047,5.02419e-06,0
-3.26135e-05,-5.09214e-05,-1.41148e-05,9.98143e-05,1.37283e-05,6.61036e-06,-5.10186e-05,3.84778e-06,0
-3.10398e-05,-5.2107e-05,-1.01317e-05,9.15366e-05,8.42048e-06,3.48699e-05,2.50164e-05,1.58019e-06,0
-3.16128e-05,-4.63036e-05,-1.18002e-05,4.5513e-05,6.74422e-06,5.17801e-05,8.46482e-05,-8.87585e-07,0
-3.41357e-05,-3.97587e-05,-1.64414e-05,-3.07503e-05,6.11446e-06,4.76275e-05,0.000161217,-2.59549e-06,0
-3.55645e-05,-3.12486e-05,-1.86268e-05,-0.00010327,1.06311e-06,3.15172e-05,0.000211857,-3.76865e-06,0
-3.50781e-05,-1.69724e-05,-1.86323e-05,-0.000147141,-5.06029e-06,1.84927e-05,0.00016469,-5.13876e-06,0
-3.33427e-05,1.7247e-07,-1.77826e-05,-0.000156689,-3.52667e-06,1.26932e-05,3.96072e-05,-5.27148e-06,0
-3.0807e-05,1.47114e-05,-1.4138e-05,-0.000138134,8.44184e-06,9.33414e-06,-7.26273e-05,-4.80277e-06,0
-2.88797e-05,2.16197e-05,-8.46611e-06,-0.00010138,2.23997e-05,-4.45133e-07,-0.000129182,-4.10464e-06,0
-3.02318e-05,2.34281e-05,-5.09641e-06,-5.74001e-05,2.69671e-05,-2.10197e-05,-0.000144606,-2.83496e-06,0
-3.45056e-05,2.50712e-05,-5.91712e-06,-1.68493e-05,2.04849e-05,-4.35198e-05,-0.000150684,-1.18914e-06,0
-3.81341e-05,2.96458e-05,-9.38064e-06,3.49276e-07,1.14804e-05,-5.41618e-05,-0.000159918,1.21871e-08,0
-4.04032e-05,3.78142e-05,-1.25528e-05,-1.10971e-05,7.26631e-06,-5.59304e-05,-0.000177348,4.6702e-07,0
-4.97194e-05,4.74777e-05,-1.28884e-05,-2.90389e-05,8.1343e-06,-6.23613e-05,-0.000199111,1.19442e-08,0
-7.30184e-05,5.33028e-05,-1.14388e-05,-2.60348e-05,8.57832e-06,-7.49551e-05,-0.00018941,-9.43253e-07,0
-9.94804e-05,5.50034e-05,-1.04633e-05,-1.47861e-06,8.11752e-06,-8.02454e-05,-0.000103175,-1.5535e-06,0
-0.00011253,5.57586e-05,-1.24055e-05,1.61268e-05,8.66323e-06,-7.43235e-05,5.13089e-05,-1.48508e-06,0
-0.00010841,5.24276e-05,-1.73508e-05,2.86058e-05,9.22228e-06,-6.69243e-05,0.0002422,4.06625e-07,0
-8.83991e-05,4.26231e-05,-1.98158e-05,6.60695e-05,1.02021e-05,-6.04865e-05,0.000442465,4.45881e-06,0
-6.10714e-05,3.47132e-05,-1.6608e-05,9.88313e-05,1.01691e-05,-4.61087e-05,0.000569921,6.39126e-06,0
-3.4463e-05,3.1434e-05,-1.37704e-05,9.33003e-05,6.42796e-06,-2.43017e-05,0.000511588,4.28199e-06,0
-9.28527e-06,2.64135e-05,-1.36287e-05,0.00010544,1.00398e-06,2.59626e-06,0.000273569,1.35742e-06,0
1.2495e-05,1.68541e-05,-1.49656e-05,0.000156655,-4.89984e-06,3.78666e-05,1.15713e-05,-8.80448e-08,0
2.97884e-05,3.17193e-06,-1.76129e-05,0.000172194,-1.02834e-05,6.24515e-05,-0.000129346,9.81311e-07,0
4.22409e-05,-8.91033e-06,-1.48485e-05,0.000141432,-5.64081e-06,5.79702e-05,-0.000163263,3.13583e-06,0
5.10897e-05,-1.13061e-05,-5.51232e-06,0.000100473,1.3969e-05,3.96813e-05,-0.000143157,3.20306e-06,0
4.82602e-05,-5.27675e-06,2.38466e-06,3.72656e-05,3.28612e-05,2.88452e-05,-7.18977e-05,2.20116e-06,0
3.1372e-05,1.28121e-07,4.19668e-06,-5.9299e-05,3.35291e-05,2.28866e-05,8.26351e-06,1.68203e-06,0
1.30918e-05,1.38901e-06,1.04037e-06,-0.00016738,2.16312e-05,9.55552e-06,3.34052e-05,2.16453e-06,0
4.4587e-06,1.89919e-06,-2.95281e-06,-0.000240678,1.3541e-05,-1.27292e-05,-2.40467e-05,4.05416e-06,0
5.55153e-06,7.83127e-06,-4.82216e-06,-0.000260747,1.44255e-05,-3.30771e-05,-0.000143568,6.08719e-06,0
9.55303e-06,1.76613e-05,-4.00919e-06,-0.000234588,1.93238e-05,-3.77006e-05,-0.000290888,8.23615e-06,0
9.46313e-06,2.61291e-05,1.87816e-07,-0.000180756,2.64425e-05,-3.0842e-05,-0.00041365,9.71349e-06,0
1.38563e-06,3.07075e-05,4.42651e-06,-0.000145092,3.17571e-05,-3.10135e-05,-0.00046232,9.85974e-06,0
-1.02983e-05,3.55386e-05,3.66192e-06,-0.000155154,2.43729e-05,-3.92625e-05,-0.000426374,8.95252e-06,0
-1.99109e-05,4.5516e-05,-5.44504e-07,-0.000167247,5.20556e-06,-3.19534e-05,-0.000345521,7.46604e-06,0
-2.63375e-05,5.63558e-05,-2.53089e-06,-0.000129193,-6.40001e-06,-5.03161e-07,-0.000272524,5.18131e-06,0
-3.3306e-05,6.05986e-05,-4.12304e-07,-5.90736e-05,2.57669e-06,2.82953e-05,-0.000232112,2.59858e-06,0
-4.02201e-05,5.87418e-05,1.66466e-06,-1.40125e-05,2.18777e-05,3.32713e-05,-0.000208718,7.95153e-07,0
-4.52153e-05,5.44293e-05,-1.27594e-06,-2.77266e-05,3.00166e-05,1.64982e-05,-0.00017291,8.69362e-07,0
-4.90828e-05,4.47566e-05,-7.50112e-06,-8.87203e-05,2.21303e-05,-5.29327e-06,-0.000108354,1.36005e-06,0
-5.05167e-05,2.64903e-05,-1.04288e-05,-0.000146741,1.18108e-05,-1.28943e-05,-2.82308e-05,5.24578e-07,0
-4.98407e-05,6.02153e-06,-9.36618e-06,-0.000149533,6.37836e-06,-9.09633e-06,3.09753e-05,-2.7235e-07,0
-4.92778e-05,-8.77845e-06,-1.03004e-05,-9.66876e-05,4.70841e-06,-9.06481e-06,5.09352e-05,1.66455e-07,0
-4.77703e-05,-1.60163e-05,-1.4068e-05,-3.99644e-05,5.13715e-06,-1.39761e-05,2.31643e-05,1.51254e-06,0
-4.16769e-05,-2.08691e-05,-1.52786e-05,5.57354e-06,5.25924e-06,-1.27645e-05,-6.8874e-05,3.85945e-06,0
-3.34598e-05,-2.72808e-05,-1.3918e-05,7.87371e-05,1.60305e-06,-4.12879e-06,-0.000137601,4.8642e-06,0
-2.89579e-05,-3.18251e-05,-1.41911e-05,0.000157617,-2.69e-06,3.74369e-07,-9.91923e-05,2.65303e-06,0
-2.86951e-05,-2.88093e-05,-1.59199e-05,0.000198474,-2.42255e-06,-7.26107e-07,-1.11911e-05,-1.65908e-06,0
-2.98072e-05,-1.27079e-05,-1.68343e-05,0.000213322,1.19045e-06,-2.58638e-06,5.71905e-05,-4.42112e-06,0
-3.03844e-05,5.77857e-06,-1.65058e-05,0.000228817,5.33243e-06,-4.2389e-06,7.29931e-05,-3.60565e-06,0
-3.18743e-05,1.66358e-05,-1.21838e-05,0.000233578,7.85235e-06,-6.01746e-06,8.56641e-05,-2.82949e-06,0
-3.43864e-05,1.75126e-05,-4.21225e-06,0.000204833,9.2659e-06,-1.13032e-05,0.000126523,-3.27318e-06,0
-3.81147e-05,6.12324e-06,3.82619e-07,0.000150776,3.96931e-06,-2.26102e-05,0.000183098,-4.35898e-06,0
-3.98165e-05,-1.17581e-05,-1.42948e-06,0.000100655,-1.03799e-05,-3.46569e-05,0.000233409,-4.85469e-06,0
-3.81141e-05,-2.46173e-05,-5.54732e-06,7.399e-05,-2.21412e-05,-3.69053e-05,0.000260326,-5.15946e-06,0
-3.6806e-05,-2.42285e-05,-7.70095e-06,5.2315e-05,-2.05051e-05,-2.94352e-05,0.000260445,-4.44803e-06,0
-3.61623e-05,-1.05542e-05,-8.30995e-06,5.43861e-06,-8.98804e-06,-1.98573e-05,0.000244626,-3.16162e-06,0
-3.53051e-05,1.09303e-05,-9.52515e-06,-5.80676e-05,3.91958e-06,-1.36963e-05,0.000244097,-2.30676e-06,0
-3.69119e-05,2.92262e-05,-1.2882e-05,-9.84655e-05,1.26565e-05,-1.25124e-05,0.000268402,-2.6062e-06,0
-4.36606e-05,3.84633e-05,-1.80702e-05,-8.69872e-05,1.41874e-05,-1.59409e-05,0.000313996,-4.03982e-06,0
-4.98444e-05,3.99421e-05,-2.33642e-05,-1.54349e-05,1.1243e-05,-2.24743e-05,0.000365255,-4.66576e-06,0
-5.04971e-05,3.62257e-05,-2.54858e-05,7.83587e-05,8.25283e-06,-2.70492e-05,0.000401578,-3.55792e-06,0
-4.69071e-05,2.63956e-05,-2.27728e-05,0.000131515,9.12703e-06,-2.46231e-05,0.00037834,-2.71961e-06,0
-4.27173e-05,1.15073e-05,-1.69969e-05,0.000123614,1.31873e-05,-1.49289e-05,0.000273043,-4.31352e-06,0
-3.76497e-05,6.40416e-08,-1.15512e-05,8.9843e-05,1.64356e-05,-1.50464e-07,0.000121705,-5.94369e-06,0
-3.19577e-05,-4.0638e-07,-8.94289e-06,6.37437e-05,2.08788e-05,2.24088e-05,-5.84145e-06,-6.00304e-06,0
-2.75931e-05,6.58179e-06,-8.01977e-06,4.59406e-05,3.08862e-05,4.18045e-05,-8.19435e-05,-4.33591e-06,0
-2.66436e-05,8.51256e-06,-8.2663e-06,5.53398e-06,3.61741e-05,3.65513e-05,-0.000115877,-2.55887e-06,0
-2.64566e-05,4.09849e-06,-8.0126e-06,-5.89755e-05,3.34253e-05,1.84379e-05,-0.000116781,-1.53211e-06,0
-2.27076e-05,2.68486e-06,-4.85665e-06,-8.9927e-05,4.12442e-05,1.15592e-05,-9.20214e-05,-1.75728e-06,0
-2.20093e-05,8.34533e-06,-4.00766e-07,-5.15343e-05,6.51574e-05,1.02676e-05,-6.41468e-05,-3.25676e-06,0
-3.01163e-05,1.74797e-05,1.82736e-06,4.58042e-05,8.20205e-05,1.54481e-06,-3.68482e-05,-2.7794e-06,0
-3.84691e-05,2.17321e-05,2.84265e-07,0.000143443,6.91819e-05,-1.24223e-05,4.07406e-07,8.81061e-07,0
-3.95993e-05,2.27671e-05,-1.21625e-06,0.000184989,3.88491e-05,-2.08107e-05,3.42216e-05,3.23645e-06,0
-3.61357e-05,2.3388e-05,2.6319e-07,0.000162036,1.70729e-05,-2.22707e-05,4.66475e-05,2.37169e-06,0
-3.21532e-05,2.28663e-05,2.66479e-06,0.000102797,8.50285e-06,-2.59083e-05,5.23338e-06,-7.066e-07,0
-3.21978e-05,2.04471e-05,2.40102e-06,5.23484e-05,7.15172e-06,-3.28436e-05,-7.71855e-05,-1.23439e-06,0
-3.53608e-05,1.45922e-05,-1.98603e-06,1.31402e-05,3.83976e-06,-3.85809e-05,-0.000111226,2.23558e-06,0
-3.90576e-05,1.05052e-05,-6.2236e-06,-2.98631e-05,3.51786e-08,-4.21046e-05,-6.91883e-05,4.9716e-06,0
-4.23166e-05,9.89468e-06,-7.23889e-06,-8.21113e-05,2.23302e-06,-4.08538e-05,-1.27307e-05,5.34224e-06,0
-4.26957e-05,1.32603e-05,-3.88794e-06,-0.000131987,9.08571e-06,-3.5819e-05,2.47128e-05,4.72304e-06,0
-3.95523e-05,1.82013e-05,3.59735e-07,-0.000162959,1.51979e-05,-2.98727e-05,4.12793e-05,3.933e-06,0
-3.51135e-05,2.37008e-05,7.53173e-07,-0.000164092,1.92407e-05,-2.5232e-05,5.48513e-05,2.92687e-06,0
-3.16492e-05,2.98529e-05,-2.60105e-06,-0.000135407,2.52684e-05,-2.39163e-05,0.000100803,3.35618e-06,0
-2.90424e-05,3.61373e-05,-6.31132e-06,-9.32857e-05,3.0829e-05,-2.07525e-05,0.000176011,6.49094e-06,0
-2.62412e-05,4.06893e-05,-7.51001e-06,-5.21264e-05,3.08131e-05,-5.23863e-06,0.000181447,1.01263e-05,0
-2.45779e-05,4.07342e-05,-7.34807e-06,-2.77906e-05,2.11581e-05,2.24405e-05,6.38609e-05,1.06903e-05,0
-2.46122e-05,3.69658e-05,-5.64949e-06,-1.95145e-05,5.93987e-06,4.54407e-05,-0.000100309,8.52331e-06,0
-2.52869e-05,3.18569e-05,-3.88477e-06,-2.05222e-05,-5.05323e-06,4.77983e-05,-0.000200175,6.98262e-06,0
-2.60528e-05,2.68528e-05,-7.11384e-06,-3.20423e-05,-4.4854e-06,3.06335e-05,-0.000194027,7.67336e-06,0
-2.69955e-05,2.15275e-05,-1.53635e-05,-6.23877e-05,7.00743e-06,1.08088e-05,-0.000130685,7.9803e-06,0
-2.66777e-05,1.81217e-05,-2.07991e-05,-0.000104778,2.09632e-05,-5.90806e-07,-6.20841e-05,7.13069e-06,0
-2.32515e-05,2.06467e-05,-1.86871e-05,-0.000138496,2.70495e-05,-2.73495e-06,1.92293e-05,6.29614e-06,0
-1.89663e-05,2.77591e-05,-1.02689e-05,-0.000140809,2.6789e-05,3.97779e-07,0.000121315,5.9231e-06,0
-1.73597e-05,2.91617e-05,-9.82984e-07,-0.000133464,2.29661e-05,4.09808e-06,0.000202078,5.89752e-06,0
-2.0397e-05,2.33223e-05,3.15187e-06,-0.000159196,1.4204e-05,4.52948e-06,0.000217097,6.39876e-06,0
-2.60764e-05,1.593e-05,1.79363e-07,-0.000192013,6.73699e-06,-6.18727e-07,0.000172431,7.03581e-06,0
-3.03021e-05,1.13233e-05,-5.95815e-06,-0.000184696,4.14651e-06,-6.23926e-06,0.000129338,7.80262e-06,0
-3.27981e-05,1.30697e-05,-1.0572e-05,-0.000129832,3.53172e-06,-7.61625e-06,0.000122711,9.32868e-06,0
-3.17021e-05,2.36571e-05,-1.28974e-05,-1.94842e-05,2.98341e-06,-6.97576e-06,0.000149755,1.05447e-05,0
-2.73197e-05,4.28237e-05,-1.3547e-05,0.000122799,2.78336e-06,-3.79423e-06,0.000192209,1.01888e-05,0
-2.47885e-05,7.0849e-05,-1.23858e-05,0.000201164,1.5624e-06,1.49318e-06,0.000230786,8.06271e-06,0
-2.19147e-05,0.00010127,-9.39589e-06,0.000171779,6.60567e-07,2.4074e-06,0.000265871,5.51403e-06,0
-1.97124e-05,0.000121552,-4.81684e-06,0.0001044,2.43768e-06,-1.90247e-06,0.000273604,4.31623e-06,0
-1.92373e-05,0.000122129,-1.58975e-06,5.91723e-05,2.15189e-06,-7.21645e-06,0.000198352,3.03473e-06,0
-2.16932e-05,9.81721e-05,-3.20082e-06,2.23069e-05,-2.05014e-07,-1.32181e-05,2.82255e-05,6.02415e-07,0
-3.07758e-05,5.34961e-05,-7.1796e-06,-3.1518e-06,-1.86083e-06,-1.83768e-05,-0.000202263,-8.9682e-07,0
-3.44314e-05,-2.39287e-06,-9.83346e-06,1.37689e-05,-1.70195e-06,-2.20598e-05,-0.000459977,-2.31432e-07,0
-2.53529e-05,-5.12475e-05,-8.20764e-06,6.49758e-05,7.48115e-06,-2.50323e-05,-0.000663387,6.18295e-07,0
-2.04548e-05,-8.21235e-05,-3.07571e-06,0.000139267,2.98782e-05,-1.40997e-05,-0.000691628,4.9849e-07,0
-3.03911e-05,-0.00010147,1.42746e-06,0.000230366,5.46663e-05,1.5629e-05,-0.000530896,-6.52595e-07,0
-4.3599e-05,-0.000120176,5.35923e-08,0.000272634,6.19893e-05,4.1401e-05,-0.000285268,-2.19585e-06,0
-4.90818e-05,-0.000137986,-7.19971e-06,0.000209836,4.66904e-05,3.45064e-05,-8.16301e-05,-3.1449e-06,0
-4.69928e-05,-0.000143852,-1.48584e-05,8.1395e-05,2.16572e-05,-4.40484e-06,2.30007e-05,-3.64762e-06,0
-4.39137e-05,-0.000132608,-1.9032e-05,-2.87744e-05,1.64712e-06,-4.34481e-05,5.577e-05,-3.68151e-06,0
-4.30051e-05,-0.000109878,-2.02996e-05,-8.84564e-05,-7.73667e-06,-6.33156e-05,6.02114e-05,-4.11585e-06,0
-4.18404e-05,-8.5752e-05,-2.0659e-05,-0.000124785,-7.43067e-06,-6.99762e-05,6.13026e-05,-3.8516e-06,0
-3.86263e-05,-6.6699e-05,-2.066e-05,-0.000161097,-3.27945e-06,-6.72106e-05,7.16575e-05,-2.2607e-06,0
-3.61091e-05,-5.43609e-05,-1.93841e-05,-0.000183878,7.3652e-07,-4.7228e-05,9.3875e-05,-7.57946e-07,0
-3.59232e-05,-4.63108e-05,-1.6004e-05,-0.000184522,6.42552e-06,-1.71078e-05,0.000114923,-2.72746e-07,0
-3.60877e-05,-3.73798e-05,-1.33679e-05,-0.000177842,1.13238e-05,-2.68806e-06,0.000126677,-1.71024e-07,0
-3.64145e-05,-2.51571e-05,-1.53409e-05,-0.000152421,9.00799e-06,-1.12226e-05,0.000124591,-1.89003e-06,0
-3.8554e-05,-1.55467e-05,-1.98554e-05,-0.000107457,6.53586e-07,-2.5997e-05,0.000113358,-4.51485e-06,0
-4.04819e-05,-1.2453e-05,-2.1278e-05,-6.6072e-05,-9.28095e-06,-3.45312e-05,9.36804e-05,-5.76725e-06,0
-4.01326e-05,-1.28414e-05,-2.07467e-05,-1.61485e-05,-1.54762e-05,-3.49309e-05,4.6314e-05,-5.66391e-06,0
-3.8732e-05,-1.17835e-05,-1.98867e-05,4.20777e-05,-1.48998e-05,-3.36052e-05,-3.20579e-05,-4.48249e-06,0
-3.70217e-05,-5.82503e-06,-1.90767e-05,6.39478e-05,-1.23907e-05,-3.27905e-05,-7.65416e-05,-4.2679e-06,0
-3.58853e-05,7.70425e-06,-1.89159e-05,6.22833e-05,-8.38599e-06,-2.55498e-05,-5.29651e-05,-5.07321e-06,0
-3.37485e-05,2.83965e-05,-1.72998e-05,6.62858e-05,-9.76399e-07,-1.62313e-05,1.327e-05,-4.51919e-06,0
-3.10902e-05,4.56732e-05,-1.24947e-05,4.01458e-05,8.1525e-06,-1.21867e-05,9.48505e-05,-2.88314e-06,0
-2.95689e-05,5.37173e-05,-7.06536e-06,-1.98554e-05,1.35429e-05,-1.24313e-05,0.000172716,-1.91178e-06,0
-2.80082e-05,5.10426e-05,-5.44068e-06,-6.44571e-05,1.17387e-05,-1.25382e-05,0.000245728,-1.11387e-06,0
-2.41927e-05,4.04895e-05,-5.7694e-06,-5.4344e-05,1.10883e-05,-7.7635e-06,0.000285335,-4.98462e-07,0
-2.01054e-05,2.49324e-05,-3.87428e-06,-5.26508e-06,1.22924e-05,-2.78801e-06,0.000268538,-4.55868e-08,0
-1.65829e-05,8.20722e-06,-2.98615e-06,4.90807e-05,9.05092e-06,5.54071e-06,0.000172859,6.4735e-07,0
-1.17272e-05,-5.19696e-07,-3.42653e-06,8.6931e-05,1.03761e-05,2.8117e-05,5.60711e-06,1.10576e-06,0
-3.82157e-06,4.47581e-06,-3.79374e-06,8.43007e-05,2.22233e-05,5.19186e-05,-0.000152832,8.45568e-07,0
7.37971e-06,1.78099e-05,-5.77697e-06,3.34668e-05,3.69439e-05,5.32861e-05,-0.000225006,-1.08161e-07,0
1.66002e-05,2.84509e-05,-1.00471e-05,-3.83735e-05,4.20542e-05,3.3134e-05,-0.000162467,-1.40325e-06,0
1.78065e-05,3.90353e-05,-1.46295e-05,-8.40281e-05,3.33819e-05,1.36171e-05,5.24464e-05,-1.90575e-06,0
7.33747e-06,5.42562e-05,-1.51972e-05,-8.76912e-05,1.96806e-05,5.91632e-06,0.000311055,-1.47774e-06,0
-1.53716e-05,6.82657e-05,-1.27435e-05,-6.63012e-05,1.25878e-05,4.84167e-06,0.000433164,-1.10268e-06,0
-4.50179e-05,7.2151e-05,-9.54267e-06,-3.26701e-05,2.17365e-05,4.17344e-06,0.000373894,-5.6749e-07,0
-7.03701e-05,6.81589e-05,-4.92814e-06,1.18547e-05,4.51694e-05,4.08498e-06,0.000225916,-3.41786e-07,0
-8.26266e-05,6.21408e-05,2.79916e-07,4.48827e-05,6.52451e-05,4.27012e-06,6.02904e-05,-8.36317e-07,0
-7.88714e-05,5.49299e-05,2.23266e-06,5.09769e-05,6.61838e-05,1.28991e-06,-0.00011143,-1.24072e-06,0
-6.45597e-05,4.61249e-05,2.71357e-06,5.18356e-05,5.11679e-05,-4.55842e-06,-0.000270807,-1.9582e-06,0
-4.78028e-05,3.97736e-05,4.21495e-06,6.75113e-05,3.64075e-05,-8.30804e-06,-0.00038522,-2.3303e-06,0
-3.42742e-05,3.96134e-05,3.62887e-06,7.17939e-05,2.96795e-05,-9.07068e-06,-0.000432707,-1.78421e-06,0
-2.82942e-05,4.1564e-05,-2.42711e-07,3.29706e-05,2.55161e-05,-1.0933e-05,-0.000424001,-1.21841e-06,0
-2.52704e-05,4.05536e-05,-4.60102e-06,-2.40668e-05,1.90558e-05,-1.34862e-05,-0.000366478,-8.32107e-07,0
-1.7962e-05,3.9463e-05,-7.16175e-06,-4.82352e-05,1.26338e-05,-1.53229e-05,-0.000265486,-8.41829e-07,0
-7.66206e-06,4.17864e-05,-8.09253e-06,-2.74017e-05,9.06484e-06,-1.30796e-05,-0.000140544,-5.66968e-07,0
-5.91374e-06,4.1613e-05,-8.58381e-06,-2.17128e-06,6.62441e-06,-7.55101e-06,-5.16592e-05,-9.76301e-07,0
-1.47162e-05,3.73588e-05,-9.04688e-06,-1.97513e-06,5.87523e-06,-3.50278e-06,-2.93745e-05,-1.43755e-06,0
-1.73598e-05,3.24072e-05,-8.10382e-06,-1.03202e-05,8.83627e-06,5.28084e-07,-2.51825e-05,-1.6203e-06,0
-1.16506e-05,2.73732e-05,-5.91343e-06,-8.48895e-06,1.32165e-05,4.38647e-06,-1.48148e-05,-1.85262e-06,0
-7.98261e-06,2.27247e-05,-4.62426e-06,6.6622e-06,1.34305e-05,4.42714e-06,-4.91835e-06,2.12413e-07,0
-8.89767e-06,1.76861e-05,-4.22225e-06,1.86549e-05,4.74903e-06,1.21104e-06,-2.19926e-06,1.47884e-06,0
-1.17025e-05,1.01475e-05,-5.13047e-06,1.75503e-05,-1.18672e-05,-2.25647e-06,4.12339e-06,8.15406e-07,0
-1.55321e-05,7.55492e-07,-6.35442e-06,8.1843e-06,-2.55723e-05,-8.25268e-06,8.58067e-06,3.20901e-07,0
-1.92572e-05,-6.3172e-06,-6.71217e-06,-2.29845e-05,-2.94153e-05,-1.83665e-05,-3.24103e-06,3.23306e-07,0
-2.15046e-05,-6.45111e-06,-6.02526e-06,-7.72925e-05,-2.65621e-05,-2.69651e-05,-2.28293e-05,3.66751e-07,0
-2.22163e-05,6.36127e-07,-5.66227e-06,-0.000116361,-2.34494e-05,-2.83487e-05,-2.8255e-05,-1.00282e-06,0
-2.10217e-05,8.00164e-06,-6.53179e-06,-9.82934e-05,-2.22541e-05,-2.64878e-05,-1.27762e-05,-3.70085e-06,0
-2.13707e-05,1.20111e-05,-6.17336e-06,-1.98664e-05,-1.84863e-05,-2.92919e-05,2.16074e-05,-5.966e-06,0
-2.86037e-05,1.45229e-05,-2.45033e-06,7.54614e-05,-7.42769e-06,-3.6482e-05,7.54137e-05,-5.61386e-06,0
-4.30656e-05,1.61788e-05,2.16101e-06,0.000118752,9.94709e-06,-4.4345e-05,0.000141123,-3.41151e-06,0
-5.59888e-05,1.68197e-05,2.61934e-06,8.97859e-05,2.64083e-05,-4.87886e-05,0.000209535,-1.93569e-06,0
-5.95087e-05,1.68013e-05,4.82951e-07,3.70986e-05,3.78331e-05,-4.65525e-05,0.00027011,-2.63435e-06,0
-5.39103e-05,1.64735e-05,-1.49938e-06,1.50672e-05,4.36173e-05,-3.95277e-05,0.000312323,-4.3213e-06,0
-4.65167e-05,1.51421e-05,-3.72392e-06,3.24956e-05,4.87605e-05,-3.16921e-05,0.000310342,-4.20525e-06,0
-4.19596e-05,1.52385e-05,-6.31832e-06,7.00204e-05,5.62798e-05,-2.4959e-05,0.000252273,-1.16442e-06,0
-3.91177e-05,1.78171e-05,-6.78023e-06,0.000100681,5.77818e-05,-2.09962e-05,0.000152371,1.26691e-06,0
-3.64808e-05,2.12844e-05,-4.70652e-06,0.000103466,4.69079e-05,-1.75568e-05,3.92964e-05,3.12341e-07,0
-3.48937e-05,2.23499e-05,-2.0939e-06,7.5903e-05,3.02776e-05,-1.37135e-05,-5.11567e-05,-1.56543e-06,0
-3.51579e-05,1.77546e-05,-1.58036e-06,2.9416e-05,1.64152e-05,-1.28523e-05,-0.000106651,-8.02442e-07,0
-3.57307e-05,1.28193e-05,-2.70145e-06,-1.51872e-05,9.32633e-06,-1.2619e-05,-0.000139024,2.31319e-06,0
-3.50311e-05,1.38842e-05,-2.96946e-06,-4.93662e-05,6.62607e-06,-7.80705e-06,-0.000142173,3.87737e-06,0
-3.7134e-05,1.73145e-05,-3.0421e-06,-7.51501e-05,3.03076e-06,-6.74458e-07,-0.000110809,3.5735e-06,0
-4.24879e-05,1.85272e-05,-6.7185e-06,-9.18199e-05,-1.31152e-06,2.2237e-06,-6.15888e-05,2.9595e-06,0
-4.34644e-05,1.83893e-05,-1.2502e-05,-0.000101967,-3.38999e-06,7.08905e-07,-2.32332e-05,3.29868e-06,0
-3.89911e-05,1.81492e-05,-1.48309e-05,-0.000109747,-3.26302e-06,-8.28742e-07,-3.39754e-05,4.14185e-06,0
-3.38749e-05,1.7641e-05,-1.34714e-05,-0.000119909,-2.23953e-06,-2.84422e-06,-7.94448e-05,3.47099e-06,0
-3.21033e-05,1.6534e-05,-1.34397e-05,-0.000132476,-1.50107e-06,-8.00541e-06,-0.000100962,2.55052e-06,0
-2.95914e-05,1.6113e-05,-1.59532e-05,-0.000131568,-1.68683e-06,-9.79546e-06,-7.7061e-05,2.66299e-06,0
-2.39248e-05,2.07421e-05,-1.79382e-05,-0.00011036,1.50292e-06,-6.13315e-06,-2.54466e-05,3.50072e-06,0
-2.00748e-05,2.85665e-05,-1.86205e-05,-7.01546e-05,8.62172e-06,2.12671e-06,2.45539e-05,4.27879e-06,0
-1.48212e-05,3.35928e-05,-1.62919e-05,-1.75921e-05,1.64838e-05,1.29721e-05,5.97691e-05,4.62781e-06,0
-1.02139e-05,3.36275e-05,-1.21087e-05,3.42534e-05,2.35639e-05,1.96012e-05,7.02931e-05,4.10213e-06,0
-1.72526e-05,2.96595e-05,-8.79886e-06,6.84067e-05,2.80394e-05,2.62109e-05,7.73065e-05,3.24727e-06,0
-3.17805e-05,2.45539e-05,-7.27565e-06,7.1862e-05,2.75419e-05,3.8464e-05,0.000140236,2.96641e-06,0
-3.79412e-05,2.23327e-05,-7.5579e-06,3.95979e-05,2.03942e-05,4.76263e-05,0.000286491,3.33291e-06,0
-3.14934e-05,2.35573e-05,-1.06787e-05,-2.82499e-05,7.08136e-06,4.13639e-05,0.000479014,4.74987e-06,0
-2.3051e-05,2.5528e-05,-1.53647e-05,-0.000103656,-6.8776e-06,2.18465e-05,0.000633053,6.01587e-06,0
-1.86567e-05,2.83203e-05,-1.85355e-05,-0.00014105,-1.32957e-05,5.00679e-06,0.000655465,6.00212e-06,0
-1.52804e-05,3.07736e-05,-1.7304e-05,-0.000108039,-1.0228e-05,1.17345e-06,0.000486291,5.10069e-06,0
-1.12617e-05,3.01933e-05,-1.2788e-05,-2.03804e-05,-4.32203e-06,1.83139e-06,0.000167024,4.64277e-06,0
-1.04715e-05,2.59983e-05,-9.88959e-06,5.91112e-05,-1.09528e-06,-6.9299e-06,-0.000176902,4.55561e-06,0
-1.57955e-05,2.32407e-05,-8.58647e-06,7.9062e-05,3.66821e-06,-2.66277e-05,-0.00042061,4.65276e-06,0
-2.46205e-05,2.66519e-05,-9.97299e-06,4.22498e-05,8.0214e-06,-4.51763e-05,-0.00053648,5.33726e-06,0
-3.24464e-05,3.84967e-05,-1.82463e-05,-4.17172e-07,2.73723e-06,-4.89581e-05,-0.00055093,6.136e-06,0
-3.79258e-05,5.57842e-05,-2.572e-05,-1.78568e-06,-3.35224e-06,-3.36877e-05,-0.000465101,6.25163e-06,0
-4.16505e-05,6.43799e-05,-2.45439e-05,1.43089e-05,-1.23061e-06,-1.58295e-05,-0.000317226,6.01558e-06,0
-4.33746e-05,5.21358e-05,-2.15705e-05,2.10533e-05,-2.13298e-06,-1.75465e-05,-0.000204259,6.17516e-06,0
-4.42977e-05,2.52744e-05,-1.99248e-05,3.80278e-05,-8.03352e-06,-3.28895e-05,-0.000212915,7.57552e-06,0
-4.48936e-05,-7.41524e-06,-1.49045e-05,5.29689e-05,-7.19178e-06,-5.12225e-05,-0.000300234,9.91509e-06,0
-4.21295e-05,-2.99565e-05,-5.41895e-06,4.41974e-05,-2.07202e-06,-6.54041e-05,-0.00030542,8.62184e-06,0
-3.53418e-05,-3.54888e-05,2.20284e-06,3.02027e-05,1.53823e-06,-5.92438e-05,-0.000191432,5.01819e-06,0
-2.90576e-05,-3.3701e-05,1.00078e-06,2.56566e-05,3.16138e-06,-4.11397e-05,-4.08601e-05,1.84499e-06,0
-2.70247e-05,-2.9469e-05,-5.01842e-06,1.564e-05,5.43014e-06,-3.39435e-05,8.57295e-05,-7.89123e-07,0
-2.83476e-05,-2.71422e-05,-9.04042e-06,-1.53343e-06,9.17295e-06,-3.82411e-05,0.000131423,-2.81789e-07,0
-3.06727e-05,-2.09216e-05,-1.01993e-05,-1.36435e-05,7.33494e-06,-4.00729e-05,0.000104126,2.73378e-06,0
-3.14558e-05,-1.62861e-05,-9.78948e-06,-3.86375e-05,4.16229e-06,-3.30086e-05,8.41361e-05,4.72051e-06,0
-3.10375e-05,-2.18211e-05,-1.014e-05,-0.000108582,4.38618e-06,-2.06482e-05,0.00013296,4.87723e-06,0
-3.07323e-05,-3.65992e-05,-1.21749e-05,-0.000199075,3.85646e-06,-1.33629e-05,0.000250848,4.46416e-06,0
-3.00764e-05,-5.32211e-05,-1.43565e-05,-0.00024782,8.12634e-06,-1.14764e-05,0.000412478,2.22735e-06,0
-2.73771e-05,-6.42312e-05,-1.3556e-05,-0.000214599,2.57715e-05,-5.05467e-06,0.000561595,-7.38456e-08,0
-1.97538e-05,-6.46931e-05,-9.15435e-06,-0.000115104,4.37423e-05,8.4939e-06,0.000612448,-1.38118e-06,0
-9.71105e-06,-5.36639e-05,-2.91757e-06,7.44531e-06,4.47636e-05,2.25529e-05,0.000518822,-1.57985e-06,0
-4.68542e-06,-3.90331e-05,4.26504e-06,0.000123183,3.5215e-05,3.0376e-05,0.000323881,-8.30211e-07,0
-9.81813e-06,-2.62718e-05,9.09214e-06,0.000197028,2.93259e-05,3.13513e-05,0.000100458,-1.22814e-06,0
-2.10419e-05,-1.43834e-05,6.28703e-06,0.000208246,2.76545e-05,3.38316e-05,-0.000117599,-3.50218e-06,0
-2.9687e-05,1.05936e-06,-1.41171e-06,0.000179922,2.4604e-05,4.09076e-05,-0.000303729,-5.71411e-06,0
-3.25461e-05,1.88921e-05,-6.21618e-06,0.000155624,1.84926e-05,3.25292e-05,-0.000406809,-5.50301e-06,0
-3.45979e-05,3.30993e-05,-7.21008e-06,0.000145633,7.83409e-06,1.30508e-06,-0.000400933,-2.72954e-06,0
-3.74115e-05,3.47059e-05,-6.29383e-06,0.000129948,-3.44495e-06,-3.16413e-05,-0.000328929,1.35254e-06,0
-3.55506e-05,2.38065e-05,-3.8212e-06,8.67811e-05,-8.99528e-06,-4.86893e-05,-0.000238635,2.79448e-06,0
-2.89117e-05,5.54856e-06,-3.77666e-06,1.5917e-05,-7.53646e-06,-5.34963e-05,-0.000158469,7.97359e-07,0
-2.4485e-05,-1.35918e-05,-9.12415e-06,-4.7064e-05,-3.94112e-06,-5.93228e-05,-0.000115101,-2.02191e-06,0
-2.46941e-05,-2.82235e-05,-1.58048e-05,-6.75195e-05,-2.83908e-06,-7.53279e-05,-0.000106094,-3.52168e-06,0
-2.6592e-05,-3.41129e-05,-1.91506e-05,-6.32198e-05,8.61376e-07,-9.73574e-05,-8.95082e-05,-4.1073e-06,0
-3.18227e-05,-2.88417e-05,-1.7194e-05,-3.10807e-05,1.77867e-05,-0.000113921,-5.15791e-05,-3.67294e-06,0
-4.20663e-05,-1.44796e-05,-1.11017e-05,4.88715e-05,4.34365e-05,-8.16692e-05,-9.71158e-06,-2.17543e-06,0
-5.22046e-05,-2.11028e-06,-8.26134e-06,0.00011793,5.02659e-05,1.58905e-05,1.57274e-05,-2.54261e-06,0
-6.09105e-05,5.20053e-08,-8.95016e-06,0.000134695,3.61267e-05,8.87275e-05,1.62128e-05,-4.71421e-06,0
-7.27724e-05,-7.36481e-07,-7.60465e-06,0.000101879,2.50522e-05,7.70398e-05,3.35757e-06,-5.62543e-06,0
-8.48816e-05,3.12827e-06,-6.38841e-06,3.7594e-05,2.32895e-05,2.64676e-05,-1.12386e-05,-4.99574e-06,0
-8.00595e-05,1.05477e-05,-7.77614e-06,-3.4048e-05,2.4579e-05,4.8056e-07,-2.01426e-05,-3.61244e-06,0
-5.50941e-05,1.59069e-05,-1.00313e-05,-9.91798e-05,2.45795e-05,5.93239e-06,-1.46681e-05,-1.63155e-06,0
-3.89839e-05,1.89418e-05,-1.1588e-05,-0.000144177,2.5038e-05,1.01216e-05,1.49366e-05,-2.18774e-07,0
-3.92504e-05,2.0129e-05,-1.19646e-05,-0.000153226,2.51763e-05,5.60011e-06,5.33009e-05,-3.19453e-07,0
-3.66269e-05,2.01389e-05,-9.84134e-06,-0.000101405,2.56181e-05,3.62651e-06,8.17315e-05,-7.85366e-07,0
-2.44133e-05,1.94258e-05,-7.13926e-06,-2.36607e-05,2.98611e-05,8.82468e-06,9.09536e-05,-7.53269e-07,0
-8.16434e-06,2.06755e-05,-4.88004e-06,1.33261e-05,3.90317e-05,1.55887e-05,8.00278e-05,-9.8046e-09,0
5.09724e-06,2.37376e-05,-1.03292e-06,-5.53562e-06,4.74639e-05,1.77988e-05,5.94856e-05,8.21997e-07,0
1.30126e-05,2.45951e-05,5.16073e-06,-3.41077e-05,4.94702e-05,1.38903e-05,3.95713e-05,1.2982e-06,0
1.37616e-05,2.26753e-05,7.89768e-06,-5.04554e-05,4.3855e-05,6.87192e-06,1.82114e-05,2.25205e-06,0
6.87704e-06,2.07473e-05,5.03733e-06,-6.07245e-05,3.19555e-05,-1.17445e-06,-8.70463e-06,3.35202e-06,0
-6.10137e-06,2.11106e-05,3.74002e-06,-5.269e-05,2.08083e-05,-9.35037e-06,-2.25939e-05,3.4672e-06,0
-1.97763e-05,2.51541e-05,6.01316e-06,-3.47013e-05,1.47461e-05,-1.46869e-05,5.01753e-06,2.95471e-06,0
-2.9278e-05,3.39239e-05,6.67683e-06,-3.94384e-05,7.73897e-06,-1.69118e-05,6.50224e-05,2.54326e-06,0
-3.61576e-05,4.28847e-05,3.83634e-06,-6.52181e-05,-8.37333e-06,-1.85465e-05,0.000111587,3.2739e-06,0
-4.222e-05,4.61707e-05,6.58182e-07,-6.5748e-05,-2.60359e-05,-1.97049e-05,0.000146087,7.09636e-06,0
-4.68244e-05,4.39041e-05,-2.1714e-06,-3.6202e-05,-3.36633e-05,-1.88526e-05,0.000204392,1.12563e-05,0
-4.96997e-05,4.06906e-05,-5.8492e-06,-1.86919e-05,-3.31379e-05,-1.50943e-05,0.000264938,1.22249e-05,0
-5.09301e-05,3.93405e-05,-9.31194e-06,-3.32159e-05,-3.34483e-05,-9.00392e-06,0.000271558,9.73704e-06,0
-5.14565e-05,4.26415e-05,-1.07232e-05,-3.49349e-05,-3.524e-05,-5.50906e-06,0.000217788,6.19039e-06,0
-5.15653e-05,4.76332e-05,-1.03963e-05,1.41914e-06,-3.42498e-05,1.69916e-06,0.000155838,4.63691e-06,0
-4.91205e-05,4.87529e-05,-9.52213e-06,1.97429e-05,-2.50149e-05,1.90887e-05,0.000131297,6.08454e-06,0
-4.25819e-05,4.86109e-05,-9.32199e-06,-3.10603e-05,-3.39258e-06,2.31138e-05,0.000149811,6.47849e-06,0
-3.41447e-05,5.04421e-05,-9.95836e-06,-9.21445e-05,1.9985e-05,-3.5269e-06,0.000167636,3.89263e-06,0
-2.71939e-05,5.23752e-05,-1.09217e-05,-0.000110731,2.94188e-05,-2.45707e-05,0.000137251,2.5638e-06,0
-1.81766e-05,5.32788e-05,-7.95068e-06,-9.2404e-05,2.57101e-05,-1.4205e-05,7.02277e-05,3.77071e-06,0
-1.253e-05,5.30578e-05,-2.96115e-06,-3.77356e-05,2.01197e-05,4.09424e-06,-1.86238e-05,6.79658e-06,0
-2.11084e-05,4.8655e-05,-1.91808e-06,1.52751e-05,1.90436e-05,2.25158e-06,-0.000118781,8.95185e-06,0
-3.72481e-05,3.79285e-05,-1.47083e-06,3.69621e-05,2.92313e-05,-1.89301e-05,-0.000195615,8.86319e-06,0
-5.11876e-05,2.10811e-05,2.69407e-07,5.43434e-05,5.1664e-05,-3.44152e-05,-0.000207544,8.22186e-06,0
-6.1356e-05,-1.33612e-07,-2.93384e-06,8.48002e-05,6.30919e-05,-3.74206e-05,-0.000165915,8.32029e-06,0
-6.82438e-05,-1.84075e-05,-1.0563e-05,0.00012726,4.80605e-05,-3.8468e-05,-0.00012325,9.62504e-06,0
-7.2455e-05,-2.40616e-05,-1.48736e-05,0.000196621,2.67477e-05,-3.84754e-05,-9.04461e-05,9.98174e-06,0
-7.31575e-05,-1.65872e-05,-1.20034e-05,0.000274577,2.43611e-05,-2.98833e-05,-4.91982e-05,8.66427e-06,0
-7.03138e-05,-3.63911e-06,-5.67928e-06,0.000323016,3.54192e-05,-1.5793e-05,-7.78837e-06,6.86148e-06,0
-7.17846e-05,5.37077e-06,-1.91459e-06,0.00029773,3.75127e-05,-9.35123e-06,2.85527e-06,5.97144e-06,0
-7.94126e-05,7.66477e-06,-1.92013e-06,0.00019292,2.81816e-05,-1.18595e-05,-1.82905e-05,6.27657e-06,0
-7.74769e-05,6.04346e-06,-2.27039e-06,6.00046e-05,1.83094e-05,-1.26272e-05,-4.19408e-05,6.05674e-06,0
-5.82164e-05,3.5514e-06,6.79043e-07,-3.52483e-05,1.44882e-05,-7.01032e-06,-5.25379e-05,3.97997e-06,0
-3.56452e-05,3.9204e-07,3.555e-06,-6.75842e-05,1.35831e-05,-3.84345e-06,-6.8999e-05,2.20712e-06,0
-2.26092e-05,-5.59648e-06,1.89388e-06,-6.52071e-05,1.12038e-05,-1.19727e-05,-0.000110714,2.34688e-06,0
-1.73956e-05,-1.21231e-05,-4.18119e-06,-6.15671e-05,5.44916e-06,-2.43651e-05,-0.000160686,2.20724e-06,0
-1.25713e-05,-1.02694e-05,-7.82284e-06,-7.1242e-05,-3.57322e-06,-2.25168e-05,-0.000156828,-3.68304e-07,0
-2.89571e-06,5.60265e-06,-4.85833e-06,-9.52721e-05,-1.11031e-05,-4.32916e-06,-6.3771e-05,-4.31771e-06,0
1.12057e-05,2.84779e-05,-3.14461e-07,-0.000125175,-1.28968e-05,9.31219e-06,6.86421e-05,-5.92996e-06,0
2.61951e-05,5.01339e-05,-1.79335e-06,-0.000139206,-9.62619e-06,7.54442e-06,0.000162165,-4.70259e-06,0
3.84573e-05,6.68769e-05,-6.88307e-06,-0.000133664,-1.73412e-06,-3.48189e-08,0.000189226,-3.95597e-06,0
4.33137e-05,7.8543e-05,-8.48413e-06,-0.00011354,6.83645e-06,-4.77833e-06,0.000171391,-4.53883e-06,0
3.66187e-05,8.61745e-05,-7.13024e-06,-8.58255e-05,1.28808e-05,-3.31455e-06,0.000134396,-4.38206e-06,0
2.22524e-05,9.62843e-05,-6.41084e-06,-6.23533e-05,1.82687e-05,6.42858e-06,8.20593e-05,-3.66135e-06,0
1.46139e-05,0.00010504,-1.11246e-05,-6.26424e-05,1.60352e-05,1.38013e-05,3.91787e-05,-2.8942e-06,0
1.22687e-05,9.84874e-05,-1.85203e-05,-6.98885e-05,6.09417e-06,1.11721e-05,3.30911e-05,-1.31978e-06,0
7.04712e-06,7.6281e-05,-2.07302e-05,-5.6718e-05,-2.13492e-06,9.18632e-06,4.17031e-05,2.41297e-07,0
4.89934e-06,4.28963e-05,-1.80231e-05,-1.81102e-05,-5.19452e-06,1.33623e-05,4.33493e-05,-1.1027e-06,0
1.0744e-05,1.0425e-06,-1.41268e-05,4.07091e-05,-1.51241e-06,1.4804e-05,3.03299e-05,-3.30442e-06,0
2.23917e-05,-4.26041e-05,-1.06002e-05,7.76938e-05,8.66566e-06,4.17471e-07,1.53352e-05,-3.68679e-06,0
2.83396e-05,-7.48784e-05,-9.87833e-06,6.75759e-05,1.91664e-05,-2.15082e-05,-2.94664e-06,-3.68094e-06,0
2.53686e-05,-8.72658e-05,-1.1316e-05,3.32686e-05,2.17304e-05,-2.84535e-05,-3.59776e-05,-4.19633e-06,0
1.74044e-05,-8.19678e-05,-1.25497e-05,7.89889e-07,1.38149e-05,-2.06064e-05,-6.05156e-05,-4.08927e-06,0
7.66439e-06,-6.94443e-05,-1.25351e-05,-2.21016e-05,3.23616e-06,-1.76945e-05,-1.9618e-05,-4.09067e-06,0
-5.46026e-06,-5.81347e-05,-1.14521e-05,-2.94112e-05,-2.60716e-06,-2.15806e-05,7.3536e-05,-4.00289e-06,0
-2.14867e-05,-4.83733e-05,-1.17917e-05,-2.65378e-05,-4.24232e-06,-1.71466e-05,0.000112315,-3.3967e-06,0
-3.81638e-05,-3.65162e-05,-1.39177e-05,-2.89312e-05,-6.24993e-06,-4.2991e-06,6.35955e-05,-3.75725e-06,0
-5.6561e-05,-2.46014e-05,-1.71947e-05,-4.35538e-05,-9.08528e-06,5.35376e-06,-1.11533e-06,-4.2776e-06,0
-7.30298e-05,-1.72682e-05,-2.0324e-05,-6.13455e-05,-8.63625e-06,6.63065e-07,-6.44933e-06,-4.3237e-06,0
-8.15619e-05,-1.11144e-05,-2.24936e-05,-7.25094e-05,-3.38803e-06,-1.44817e-05,4.977e-05,-3.29986e-06,0
-7.99636e-05,-1.72832e-06,-2.33789e-05,-7.2597e-05,3.15514e-06,-2.3589e-05,0.000118466,-1.96392e-06,0
-7.29601e-05,1.14903e-05,-2.20373e-05,-5.68989e-05,6.61242e-06,-1.90669e-05,0.000142153,-1.16843e-06,0
-6.37712e-05,2.58108e-05,-1.88472e-05,-2.84981e-05,9.67421e-06,-7.636e-06,0.000104047,-6.91942e-07,0
-5.50152e-05,3.58937e-05,-1.41777e-05,3.30683e-06,1.80121e-05,1.30457e-06,1.59035e-05,8.05824e-07,0
-4.79332e-05,3.76845e-05,-7.79875e-06,2.86343e-05,2.92019e-05,3.05161e-06,-0.000126186,1.40656e-06,0
-4.50746e-05,2.8153e-05,-4.69773e-06,3.53478e-05,3.03217e-05,-4.20215e-07,-0.000256374,7.03466e-07,0
-4.77574e-05,3.80009e-06,-9.00962e-06,3.19935e-05,2.20316e-05,-2.87037e-06,-0.000264287,1.44892e-06,0
-5.64735e-05,-2.58377e-05,-1.41606e-05,4.29945e-05,2.07401e-05,-6.39653e-07,-0.000188078,2.31952e-06,0
-6.93946e-05,-4.57164e-05,-1.47047e-05,5.98088e-05,2.45289e-05,-1.55614e-06,-0.000157131,1.89246e-06,0
-8.38674e-05,-4.99698e-05,-1.09534e-05,5.54505e-05,2.39014e-05,-1.54656e-05,-0.000153839,1.50757e-06,0
-9.36557e-05,-4.28628e-05,-8.46093e-06,1.4083e-05,1.86914e-05,-3.78101e-05,-5.26188e-05,2.33618e-06,0
-9.12734e-05,-2.98821e-05,-1.25853e-05,-2.82375e-05,1.2337e-05,-5.34678e-05,0.000136968,3.31776e-06,0
-7.78278e-05,-1.29093e-05,-1.78929e-05,-3.54538e-05,1.31303e-05,-5.49133e-05,0.000300714,3.74316e-06,0
-5.46562e-05,4.25921e-06,-1.79658e-05,-2.95471e-05,2.07391e-05,-4.96362e-05,0.000363808,4.39793e-06,0
-2.46166e-05,1.88879e-05,-1.51088e-05,-3.81111e-05,2.63826e-05,-4.53767e-05,0.000302533,3.64076e-06,0
-4.1324e-06,2.57575e-05,-1.23049e-05,-6.66298e-05,2.19572e-05,-4.39509e-05,0.000163103,1.23702e-06,0
-2.02923e-06,2.20156e-05,-1.27617e-05,-7.93748e-05,1.18055e-05,-4.07993e-05,4.12154e-06,-4.4174e-07,0
-1.0001e-05,1.36676e-05,-1.56474e-05,-5.98581e-05,5.47706e-06,-3.5379e-05,-0.000122208,-6.65235e-07,0
-1.68133e-05,7.94261e-06,-1.75846e-05,-3.3532e-05,2.80077e-06,-3.0934e-05,-0.000176076,-5.53359e-07,0
-1.87818e-05,7.82289e-06,-1.93766e-05,-1.62932e-05,-9.29379e-09,-3.31524e-05,-0.000121818,-1.71479e-07,0
-2.00559e-05,7.95464e-06,-2.21294e-05,-6.13021e-06,-4.443e-07,-3.44617e-05,1.85131e-05,6.68551e-07,0
-2.25894e-05,3.35731e-06,-2.5224e-05,-4.31978e-06,8.00149e-06,-1.37839e-05,0.000119629,4.70835e-07,0
-2.39503e-05,-1.22373e-06,-2.2674e-05,-5.92549e-06,1.96047e-05,2.58112e-05,9.39134e-05,-1.02298e-06,0
-2.06451e-05,1.44033e-06,-1.17991e-05,-3.21742e-06,2.55092e-05,5.27619e-05,3.24704e-06,-3.52569e-06,0
-1.79791e-05,1.20378e-05,-1.30969e-06,-1.06561e-05,2.70865e-05,5.40781e-05,-3.66656e-05,-4.04369e-06,0
-2.23239e-05,2.23838e-05,-1.48565e-06,-2.61645e-05,3.09222e-05,4.96271e-05,3.30656e-07,-2.07604e-06,0
-3.15463e-05,2.63658e-05,-7.83373e-06,-1.79789e-05,3.6929e-05,4.61426e-05,6.52931e-05,2.17417e-08,0
-3.92747e-05,2.51714e-05,-1.08669e-05,2.88257e-05,4.09462e-05,2.87829e-05,0.000107031,1.52814e-06,0
-4.44332e-05,2.34161e-05,-1.22455e-05,8.67937e-05,3.9134e-05,-5.88057e-06,0.00011258,3.01865e-06,0
-4.74225e-05,2.48036e-05,-1.48238e-05,0.000126678,3.02496e-05,-3.53957e-05,9.01242e-05,4.5056e-06,0
-4.55848e-05,3.14027e-05,-1.5602e-05,0.000125797,1.74629e-05,-4.39434e-05,5.44676e-05,4.10609e-06,0
-3.74563e-05,4.08322e-05,-1.46579e-05,8.11831e-05,8.61052e-06,-3.63002e-05,2.49659e-05,2.58704e-07,0
-2.88823e-05,4.7483e-05,-1.40037e-05,2.85932e-05,1.13989e-05,-2.16383e-05,1.5133e-05,-5.1771e-06,0
-2.31249e-05,4.95718e-05,-1.08324e-05,1.09057e-06,2.13939e-05,-9.13188e-06,8.21688e-06,-8.29438e-06,0
-2.07625e-05,4.9791e-05,-6.27864e-06,-1.04543e-06,3.04192e-05,-3.76325e-06,-1.8386e-05,-7.43866e-06,0
-2.2021e-05,4.97086e-05,-4.21465e-06,8.18399e-06,3.94158e-05,-2.94242e-06,-6.53998e-05,-4.9853e-06,0
-2.33038e-05,4.71352e-05,-3.14435e-06,4.15838e-05,4.60438e-05,-3.97071e-06,-0.000116078,-2.39482e-06,0
-2.22657e-05,4.12264e-05,-2.50649e-06,9.58572e-05,4.0247e-05,-4.51617e-06,-0.000161009,-3.41447e-07,0
-2.14975e-05,3.32462e-05,-2.53095e-06,9.89234e-05,2.75852e-05,-4.37455e-06,-0.00019748,1.51558e-06,0
-2.22965e-05,2.2806e-05,-5.28756e-06,3.38994e-05,1.63566e-05,-3.63645e-06,-0.000216565,4.09409e-06,0
-2.31481e-05,1.14837e-05,-1.00828e-05,-4.48337e-05,6.52741e-06,-2.44886e-06,-0.000221216,5.02661e-06,0
-2.51629e-05,3.66233e-06,-1.14135e-05,-9.62237e-05,-1.43367e-06,-3.80012e-06,-0.000230259,6.29113e-06,0
-2.78969e-05,-1.14714e-06,-1.06695e-05,-0.000112106,-8.00116e-06,-6.50737e-06,-0.000206713,5.83965e-06,0
-3.02337e-05,-1.03347e-06,-1.11263e-05,-0.00011773,-1.36664e-05,-8.93602e-06,-0.000103246,3.04985e-06,0
-3.11104e-05,6.38618e-06,-1.33048e-05,-0.000116111,-2.00447e-05,-9.48316e-06,3.14115e-05,1.54401e-06,0
-3.12395e-05,1.45864e-05,-1.3395e-05,-0.000111416,-2.36477e-05,-9.9618e-06,0.000158879,9.40447e-07,0
-2.97325e-05,1.86264e-05,-9.33421e-06,-0.000113795,-2.08295e-05,-9.36789e-06,0.000264758,1.2994e-07,0
-2.65764e-05,2.27728e-05,-6.10492e-06,-0.000126015,-1.20065e-05,-7.42052e-06,0.000338171,-1.51774e-06,0
-2.4466e-05,2.9854e-05,-7.19036e-06,-0.000133215,-2.59691e-06,-7.15752e-06,0.000374797,-2.82806e-06,0
-2.58783e-05,3.57542e-05,-9.82799e-06,-0.000107787,2.85587e-06,-1.05755e-05,0.000377049,-2.54158e-06,0
-2.9389e-05,3.76216e-05,-1.04684e-05,-3.78605e-05,6.6891e-06,-1.86689e-05,0.000345188,6.31933e-08,0
-3.28577e-05,3.61863e-05,-7.69405e-06,6.13421e-05,1.23665e-05,-2.44179e-05,0.00028215,2.19404e-06,0
-3.36274e-05,3.26753e-05,-2.67202e-06,0.000150519,1.5767e-05,-1.70399e-05,0.00019915,6.88844e-07,0
-3.00678e-05,2.85899e-05,1.37783e-06,0.000185783,1.22786e-05,2.98743e-06,9.49527e-05,-2.93006e-06,0
-2.60137e-05,2.47459e-05,3.94016e-06,0.000150664,1.12014e-05,1.97496e-05,-4.67922e-05,-4.89974e-06,0
-2.52723e-05,2.04105e-05,4.9737e-06,7.00962e-05,2.18679e-05,2.03016e-05,-0.000238621,-5.62099e-06,0
-2.81808e-05,1.48645e-05,4.35689e-06,-1.09624e-05,3.65464e-05,7.316e-06,-0.000427441,-5.98127e-06,0
-3.33495e-05,7.06737e-06,4.30311e-07,-5.42229e-05,3.71392e-05,-7.19178e-06,-0.000519159,-6.34303e-06,0
-3.8859e-05,1.43102e-06,-6.64079e-06,-5.33393e-05,2.28924e-05,-1.59933e-05,-0.000479858,-6.10786e-06,0
-4.01816e-05,5.34023e-06,-1.06312e-05,-2.89034e-05,1.12953e-05,-1.56405e-05,-0.000359855,-4.75369e-06,0
-3.03166e-05,1.61322e-05,-9.10396e-06,-1.182e-05,1.06631e-05,-4.89688e-06,-0.000209455,-3.91112e-06,0
-1.04776e-05,2.47999e-05,-5.12398e-06,-1.42552e-05,1.37604e-05,9.16194e-06,-8.29489e-05,-3.42416e-06,0
-2.40863e-06,2.51968e-05,-1.74717e-06,-2.65395e-05,1.4239e-05,1.4044e-05,2.37103e-06,-2.71493e-06,0
-1.25678e-05,2.06891e-05,-1.91235e-06,-1.88429e-05,1.22061e-05,9.08186e-06,6.11502e-05,-1.02801e-06,0
-2.39262e-05,1.63096e-05,-5.4063e-06,-1.44483e-06,5.94277e-06,5.91546e-07,7.97634e-05,-4.08803e-07,0
-2.83363e-05,1.23273e-05,-8.09338e-06,1.81836e-05,-2.83515e-06,-7.17301e-06,4.43287e-05,-8.45694e-07,0
-2.80233e-05,1.19742e-05,-9.5145e-06,4.82221e-05,-7.54133e-06,-9.34311e-06,4.2942e-06,-1.8326e-06,0
-2.97468e-05,1.80448e-05,-1.0451e-05,6.53214e-05,-1.73336e-08,-4.83387e-06,1.64741e-05,-3.33628e-06,0
-4.04247e-05,2.88187e-05,-9.62625e-06,5.17102e-05,1.80162e-05,2.21388e-06,6.60709e-05,-3.99707e-06,0
-6.12444e-05,3.90293e-05,-8.46451e-06,1.2399e-05,2.66857e-05,5.11423e-06,9.87612e-05,-3.14145e-06,0
-7.89981e-05,4.85455e-05,-5.53953e-06,-7.49014e-06,1.85258e-05,5.31755e-06,7.15902e-05,-2.11695e-06,0
-8.27265e-05,5.84011e-05,2.94727e-07,-1.0369e-06,1.14863e-05,-8.76402e-07,1.33253e-05,-3.10852e-06,0
-7.37511e-05,6.61367e-05,3.672e-06,1.01512e-05,2.29894e-05,-1.76154e-05,-1.89408e-05,-3.91023e-06,0
-5.91186e-05,6.75958e-05,1.36222e-06,9.66127e-06,4.50749e-05,-3.29451e-05,1.18555e-05,-4.31026e-06,0
-4.49939e-05,5.92082e-05,-1.5232e-06,-1.26149e-05,6.09468e-05,-3.21047e-05,7.49913e-05,-3.9325e-06,0
-3.34965e-05,4.31438e-05,-2.24795e-06,-5.12431e-05,6.19439e-05,-1.5378e-05,0.000103479,-2.68486e-06,0
-2.19989e-05,2.36088e-05,-3.11752e-06,-7.50977e-05,4.92586e-05,2.04189e-06,8.94752e-05,-1.17504e-06,0
-2.05701e-06,6.40555e-06,-4.09664e-06,-6.69196e-05,3.28533e-05,1.39286e-05,7.53436e-05,-1.03154e-07,0
2.73944e-05,-5.39739e-06,-2.41948e-06,-4.82826e-05,2.18921e-05,2.78239e-05,8.05735e-05,-7.17258e-07,0
4.65717e-05,-1.47914e-05,2.24026e-07,-1.44344e-05,1.89818e-05,3.81418e-05,9.10459e-05,-2.71852e-06,0
3.25494e-05,-2.53562e-05,-1.4644e-06,5.20288e-05,1.79496e-05,2.6159e-05,9.33923e-05,-3.74696e-06,0
-2.45826e-06,-3.47483e-05,-6.93485e-06,0.000140269,1.0983e-05,-9.15507e-06,8.20298e-05,-2.05802e-06,0
-2.63124e-05,-3.91261e-05,-1.0828e-05,0.000213465,-3.73277e-07,-4.73807e-05,5.96038e-05,9.1973e-09,0
-2.76714e-05,-3.69238e-05,-1.01357e-05,0.000238347,-3.05814e-06,-6.40686e-05,3.52371e-05,2.90449e-07,0
-1.92169e-05,-3.04193e-05,-8.43302e-06,0.00019088,5.84676e-06,-4.85981e-05,2.18585e-05,-5.57751e-07,0
-1.46023e-05,-2.53288e-05,-9.16982e-06,7.78747e-05,1.41918e-05,-2.00335e-05,2.62273e-05,-3.11706e-07,0
-1.92831e-05,-2.39395e-05,-1.24565e-05,-5.49429e-05,1.02588e-05,-1.22078e-05,4.20943e-05,6.38145e-08,0
-2.91381e-05,-2.35634e-05,-1.72617e-05,-0.000133389,-2.33998e-06,-2.64239e-05,5.29698e-05,-5.58711e-07,0
-3.49247e-05,-2.094e-05,-2.16848e-05,-0.000139646,-1.21499e-05,-3.6099e-05,3.63438e-05,-1.54302e-06,0
-3.2353e-05,-1.55551e-05,-2.19226e-05,-0.000121581,-1.32726e-05,-3.00968e-05,-3.35728e-05,-1.20131e-06,0
-2.64562e-05,-1.01299e-05,-1.74229e-05,-0.000103572,-4.91666e-06,-1.71842e-05,-0.000119955,6.33327e-07,0
-2.49783e-05,-6.68184e-06,-1.25821e-05,-9.58831e-05,8.11374e-06,-8.6532e-06,-0.000122228,4.28593e-06,0
-2.53334e-05,-1.79146e-06,-7.24509e-06,-7.79674e-05,1.62359e-05,-5.37864e-06,-1.81705e-05,7.43927e-06,0
-2.37934e-05,5.29087e-06,1.8597e-06,-2.04896e-05,1.82207e-05,-1.96382e-06,0.000105661,5.40244e-06,0
-2.15555e-05,1.52791e-05,1.00376e-05,3.24094e-05,1.90241e-05,8.74824e-07,0.000182683,2.51755e-06,0
-2.03377e-05,2.8635e-05,1.3184e-05,3.09712e-05,2.1593e-05,2.9111e-06,0.000206831,1.9555e-06,0
-2.19346e-05,3.98836e-05,1.06054e-05,-7.69542e-06,2.02156e-05,3.83208e-06,0.000206189,2.47682e-06,0
-2.36713e-05,4.72154e-05,3.02067e-06,-4.80824e-05,1.30518e-05,2.89717e-06,0.000202372,3.18154e-06,0
-2.3765e-05,5.08839e-05,-3.61324e-06,-8.81295e-05,9.41349e-06,2.34176e-06,0.000177014,3.02537e-06,0
-2.50262e-05,4.70852e-05,-6.87775e-06,-0.000128166,5.99185e-06,-4.43028e-06,0.00012865,2.76635e-06,0
-3.14014e-05,3.14915e-05,-9.39837e-06,-0.000135094,2.0134e-06,-1.51807e-05,8.35556e-05,2.29046e-06,0
-3.99998e-05,1.06396e-05,-1.02247e-05,-8.67594e-05,3.9604e-06,-1.79529e-05,3.33413e-05,1.85325e-06,0
-4.2387e-05,-3.50314e-06,-7.28677e-06,-5.08913e-07,1.07597e-05,-1.24574e-05,-4.3299e-05,1.57088e-06,0
-4.09879e-05,-7.75491e-06,-3.30248e-06,7.24293e-05,1.16078e-05,-6.85561e-06,-0.000101232,1.68777e-06,0
-4.38042e-05,-4.84384e-06,-2.43511e-07,9.15457e-05,9.86952e-06,-3.48412e-06,-8.94476e-05,1.04297e-06,0
-4.98606e-05,3.33739e-06,-7.48118e-08,4.91395e-05,1.89265e-05,1.11705e-06,-1.66881e-05,1.09674e-06,0
-5.15181e-05,1.51049e-05,-6.39042e-06,-2.70639e-05,2.92761e-05,6.06827e-06,7.59415e-05,2.94585e-06,0
-4.6206e-05,2.70279e-05,-1.88568e-05,-9.3932e-05,2.28446e-05,7.37325e-06,0.000146836,3.35237e-06,0
-3.39926e-05,3.60767e-05,-2.78398e-05,-0.000134939,5.38069e-06,8.32433e-06,0.000168924,2.58774e-06,0
-1.70129e-05,3.89264e-05,-2.54852e-05,-0.000149103,-2.83069e-06,1.70009e-05,0.000131797,3.2025e-06,0
-2.9713e-06,3.46042e-05,-1.5362e-05,-0.0001224,2.06904e-06,2.59657e-05,3.63459e-05,4.57841e-06,0
1.2865e-06,2.72402e-05,-7.3878e-06,-6.23943e-05,8.7735e-06,1.83659e-05,-9.53258e-05,4.47476e-06,0
-3.89131e-06,2.08685e-05,-5.43632e-06,-1.25381e-05,7.7631e-06,-5.84473e-06,-0.000199159,2.87461e-06,0
-1.37667e-05,1.59567e-05,-5.17522e-06,4.77367e-06,1.79129e-06,-2.78903e-05,-0.000218203,1.07653e-06,0
-2.38962e-05,1.07016e-05,-5.3662e-06,9.96391e-06,-4.38072e-06,-3.31197e-05,-0.000149327,5.51887e-07,0
-3.32394e-05,4.43153e-06,-5.00957e-06,2.94202e-05,-9.33244e-06,-2.17076e-05,-3.47892e-05,2.49176e-06,0
-4.68933e-05,-2.61064e-06,-3.23946e-06,5.02737e-05,-1.06549e-05,-1.62276e-05,7.11322e-05,5.0601e-06,0
