ch1,ch2,ch3,ch4,ch5,ch6,ch7,ch8,class
-2.68444e-05,4.44839e-06,-1.08311e-05,1.20088e-05,1.87376e-05,-1.20069e-05,1.75676e-05,-1.75095e-07,0
-2.83384e-05,2.62996e-06,-8.50269e-06,9.10108e-06,1.92152e-05,-1.04331e-05,2.21942e-05,8.58479e-07,0
-2.88057e-05,4.77844e-06,-5.47434e-06,5.20972e-06,2.07458e-05,-1.0169e-05,2.19951e-05,1.83138e-06,0
-2.92938e-05,1.01127e-05,-2.43139e-06,2.92662e-06,2.07844e-05,-1.19062e-05,1.87962e-05,1.62213e-06,0
-3.07005e-05,1.30749e-05,-9.26016e-07,1.18523e-07,1.91845e-05,-1.10671e-05,1.60866e-05,4.73305e-07,0
-3.10499e-05,1.15064e-05,-1.32182e-06,-2.88719e-06,1.85918e-05,-8.95534e-06,1.2525e-05,9.07975e-07,0
-3.05634e-05,8.57865e-06,-3.03007e-06,-5.36086e-06,1.92392e-05,-7.33975e-06,8.82262e-06,3.00974e-06,0
-2.91846e-05,6.66349e-06,-5.89203e-06,-8.8231e-06,1.94825e-05,-6.82742e-06,5.68013e-06,5.60123e-06,0
-2.77063e-05,6.0669e-06,-8.93815e-06,-1.62687e-05,1.84089e-05,-7.46764e-06,3.69136e-06,4.80292e-06,0
-2.77015e-05,3.32954e-06,-1.31816e-05,-2.69244e-05,1.78511e-05,-7.91737e-06,2.898e-06,3.21071e-06,0
-2.84122e-05,-1.33867e-06,-1.69747e-05,-3.52999e-05,1.86011e-05,-8.27196e-06,3.23637e-06,3.47366e-06,0
-2.90052e-05,-5.86687e-06,-1.82033e-05,-3.57739e-05,1.8485e-05,-8.46837e-06,5.50824e-06,2.72041e-06,0
-2.96063e-05,-1.12853e-05,-1.67923e-05,-2.72363e-05,1.64673e-05,-9.57812e-06,7.80817e-06,9.91668e-07,0
-3.01808e-05,-1.69978e-05,-1.49817e-05,-1.5171e-05,1.47764e-05,-1.12437e-05,8.54768e-06,-2.10463e-07,0
-3.07975e-05,-2.09246e-05,-1.40798e-05,-3.46142e-06,1.56606e-05,-1.33413e-05,6.68826e-06,-5.69926e-07,0
-3.19877e-05,-2.09922e-05,-1.32953e-05,4.70392e-06,1.77269e-05,-1.51e-05,3.64991e-06,-1.06446e-06,0
-3.24702e-05,-1.64319e-05,-1.12979e-05,8.32974e-06,1.89178e-05,-1.53885e-05,1.85954e-06,-1.49443e-06,0
-3.14157e-05,-6.10899e-06,-8.77925e-06,8.40428e-06,1.87653e-05,-1.41231e-05,7.39937e-07,-2.16275e-06,0
-2.89966e-05,9.13345e-06,-7.55263e-06,8.40794e-06,1.81549e-05,-1.26965e-05,-3.51962e-06,-3.82926e-06,0
-2.62305e-05,2.77808e-05,-6.82509e-06,8.54963e-06,1.89165e-05,-1.04459e-05,-8.18714e-06,-5.73514e-06,0
-2.45397e-05,4.52011e-05,-5.40301e-06,4.86477e-06,2.08095e-05,-8.46897e-06,-7.30848e-06,-5.18784e-06,0
-2.4497e-05,5.46255e-05,-4.96875e-06,-3.84428e-06,2.1762e-05,-8.52344e-06,-1.77392e-06,-2.52197e-06,0
-2.47675e-05,5.3446e-05,-6.91147e-06,-1.15114e-05,2.13838e-05,-7.65778e-06,5.16664e-06,-3.79959e-07,0
-2.55678e-05,4.15347e-05,-7.34299e-06,-1.23926e-05,2.14248e-05,-6.38456e-06,1.14007e-05,-1.32394e-06,0
-2.63693e-05,1.92052e-05,-5.48133e-06,-9.76306e-06,2.36128e-05,-6.36953e-06,1.57547e-05,-3.0049e-06,0
-2.68855e-05,-1.05141e-05,-3.34171e-06,-1.00849e-05,2.59554e-05,-7.34553e-06,1.87234e-05,-1.53062e-06,0
-2.77921e-05,-3.54986e-05,-3.98356e-06,-1.44869e-05,2.42274e-05,-7.97892e-06,2.1536e-05,1.74059e-06,0
-2.81441e-05,-4.39746e-05,-8.04467e-06,-1.86346e-05,2.02641e-05,-5.78653e-06,2.52746e-05,4.06357e-06,0
-2.8338e-05,-3.80779e-05,-9.97669e-06,-1.8292e-05,1.9064e-05,-2.13134e-06,2.68084e-05,2.74289e-06,0
-2.80233e-05,-2.41494e-05,-8.69223e-06,-1.29915e-05,2.07587e-05,-5.54865e-07,2.46558e-05,-1.80004e-06,0
-2.8698e-05,-1.09998e-05,-8.14187e-06,-6.35397e-06,2.14476e-05,-2.47103e-06,2.25327e-05,-4.38644e-06,0
-3.01104e-05,-2.66873e-06,-8.80162e-06,-2.79874e-06,1.94058e-05,-5.14675e-06,2.27704e-05,-3.79069e-06,0
-3.07488e-05,1.12428e-06,-1.00191e-05,-1.19556e-06,1.76238e-05,-5.39716e-06,2.40903e-05,-2.0923e-06,0
-3.13111e-05,2.57942e-06,-1.03304e-05,1.35738e-06,1.7222e-05,-3.13778e-06,2.21694e-05,6.6995e-07,0
-3.09929e-05,2.84298e-06,-1.0206e-05,3.47327e-06,1.61793e-05,-9.88903e-08,1.83122e-05,2.74548e-06,0
-3.06234e-05,-1.01806e-07,-9.92843e-06,5.34636e-06,1.41108e-05,8.56248e-07,1.55522e-05,3.50827e-06,0
-3.12034e-05,-2.99538e-06,-8.62622e-06,9.4826e-06,1.23277e-05,-1.63484e-06,1.29541e-05,4.70194e-06,0
-3.13653e-05,-2.82624e-06,-6.90803e-06,1.44886e-05,1.16033e-05,-4.95633e-06,9.55951e-06,6.07222e-06,0
-2.94441e-05,5.03302e-07,-4.8586e-06,1.52716e-05,1.13404e-05,-6.04401e-06,6.56723e-06,6.56712e-06,0
-2.74579e-05,5.14462e-06,-1.86527e-06,1.0409e-05,1.16423e-05,-5.11007e-06,4.8343e-06,6.39167e-06,0
-2.75706e-05,9.43136e-06,1.87047e-06,2.03875e-06,1.23504e-05,-3.76832e-06,2.85957e-06,6.18018e-06,0
-2.86398e-05,1.19033e-05,3.79942e-06,-4.78913e-06,1.2706e-05,-3.84548e-06,-1.36031e-06,5.79935e-06,0
-2.94739e-05,1.32165e-05,3.96256e-06,-7.15619e-06,1.23982e-05,-4.69706e-06,-6.42171e-06,5.31991e-06,0
-3.10424e-05,1.4135e-05,4.11234e-06,-5.44317e-06,1.09094e-05,-4.78079e-06,-8.12592e-06,4.28794e-06,0
-3.33198e-05,1.63961e-05,5.26574e-06,-1.25065e-06,1.00826e-05,-3.45279e-06,-3.98717e-06,2.64289e-06,0
-3.39164e-05,1.97871e-05,8.42245e-06,4.25035e-06,1.18768e-05,-2.3518e-06,4.17115e-06,2.77182e-06,0
-3.34253e-05,2.17899e-05,1.34544e-05,8.33702e-06,1.37414e-05,-3.06862e-06,1.05557e-05,4.04784e-06,0
-3.40504e-05,2.11541e-05,1.78191e-05,7.16567e-06,1.27582e-05,-4.5669e-06,1.27979e-05,3.8452e-06,0
-3.56318e-05,1.89292e-05,2.05403e-05,2.09996e-06,9.09391e-06,-5.51054e-06,1.3508e-05,3.0949e-06,0
-3.55455e-05,1.52241e-05,2.06567e-05,-2.24919e-06,5.95931e-06,-5.47008e-06,1.54411e-05,3.4609e-06,0
-3.25935e-05,1.13605e-05,1.51148e-05,-3.81571e-06,5.65785e-06,-4.6447e-06,1.68842e-05,3.64033e-06,0
-2.89579e-05,9.96005e-06,4.67193e-06,-3.75119e-06,5.89779e-06,-4.14237e-06,1.55229e-05,2.39481e-06,0
-2.73994e-05,1.34107e-05,-8.88748e-06,-3.0962e-06,6.40105e-06,-3.9654e-06,1.39773e-05,1.19091e-06,0
-2.70658e-05,1.86359e-05,-2.16629e-05,-7.26049e-07,7.3216e-06,-3.25172e-06,1.41591e-05,2.21272e-06,0
-2.82656e-05,1.97064e-05,-2.9958e-05,2.32809e-06,7.15327e-06,-2.90753e-06,1.40867e-05,3.4739e-06,0
-3.01453e-05,2.2851e-05,-3.82248e-05,7.86983e-06,6.86979e-06,-3.9305e-06,1.12835e-05,2.40031e-06,0
-3.01551e-05,3.37881e-05,-4.60494e-05,1.94163e-05,8.65504e-06,-5.35723e-06,6.94397e-06,6.46689e-09,0
-3.07836e-05,5.17441e-05,-4.70177e-05,2.77273e-05,1.08535e-05,-4.40618e-06,4.78754e-06,-3.77352e-07,0
-3.18866e-05,6.87854e-05,-3.92046e-05,2.57932e-05,8.46317e-06,-3.08628e-06,5.63281e-06,7.07875e-07,0
-3.24211e-05,7.5702e-05,-3.12981e-05,1.58551e-05,4.34295e-06,-3.49806e-06,7.7243e-06,-6.50348e-07,0
-3.24187e-05,6.92124e-05,-2.71916e-05,3.45389e-06,3.01155e-06,-5.23662e-06,9.01389e-06,-2.08593e-06,0
-3.16085e-05,4.97622e-05,-2.33047e-05,-6.8639e-06,3.83041e-06,-7.40033e-06,9.75896e-06,-2.13075e-06,0
-3.0908e-05,1.83499e-05,-1.90764e-05,-1.34785e-05,5.90298e-06,-8.9107e-06,1.11501e-05,-2.89476e-06,0
-2.92004e-05,-1.62432e-05,-1.5024e-05,-1.77074e-05,7.03778e-06,-9.84719e-06,1.2732e-05,-4.12006e-06,0
-2.69665e-05,-3.59251e-05,-1.31322e-05,-2.2315e-05,6.61404e-06,-8.90952e-06,1.4674e-05,-3.77038e-06,0
-2.61137e-05,-3.58932e-05,-1.30053e-05,-2.553e-05,6.01895e-06,-7.14578e-06,1.65043e-05,-2.49713e-06,0
-2.83707e-05,-2.65716e-05,-1.52669e-05,-2.62433e-05,6.98643e-06,-6.9364e-06,1.72121e-05,-2.29062e-06,0
-3.19485e-05,-1.56313e-05,-1.88376e-05,-2.83157e-05,8.43596e-06,-8.26171e-06,1.67105e-05,-3.20289e-06,0
-3.35829e-05,-4.66503e-06,-2.31677e-05,-3.31652e-05,8.27948e-06,-9.89901e-06,1.31911e-05,-4.38873e-06,0
-3.31575e-05,6.5637e-07,-2.61103e-05,-3.35885e-05,6.28932e-06,-1.14919e-05,6.57433e-07,-4.65599e-06,0
-3.23119e-05,-3.71893e-06,-2.59353e-05,-2.6682e-05,4.74171e-06,-1.35675e-05,-2.10007e-05,-3.65398e-06,0
-3.23658e-05,-1.52949e-05,-2.34903e-05,-1.76384e-05,7.09743e-06,-1.5056e-05,-3.46682e-05,-1.89221e-06,0
-3.33927e-05,-2.84146e-05,-1.93025e-05,-1.24033e-05,1.18543e-05,-1.53679e-05,-2.43446e-05,-1.10248e-06,0
-3.43964e-05,-3.74517e-05,-1.50341e-05,-1.17448e-05,1.33706e-05,-1.51081e-05,3.4465e-06,-1.58999e-06,0
-3.37012e-05,-4.14326e-05,-1.27249e-05,-1.16227e-05,1.00534e-05,-1.40179e-05,3.20133e-05,-2.14215e-06,0
-3.27234e-05,-4.25308e-05,-1.18326e-05,-9.53857e-06,5.98801e-06,-1.2889e-05,5.16411e-05,-2.33529e-06,0
-3.23659e-05,-3.85431e-05,-1.10534e-05,-4.99347e-06,4.14674e-06,-1.20418e-05,6.1207e-05,-3.20936e-06,0
-3.19038e-05,-2.60005e-05,-1.12394e-05,-9.41045e-07,2.38301e-06,-1.11737e-05,6.42511e-05,-5.0328e-06,0
-3.11354e-05,-8.4392e-06,-1.10965e-05,7.35913e-07,-1.99405e-06,-1.27857e-05,6.62488e-05,-5.34308e-06,0
-3.09855e-05,1.82161e-05,-9.13269e-06,7.83942e-07,-6.22334e-06,-1.60965e-05,6.76268e-05,-3.99758e-06,0
-3.16308e-05,5.42313e-05,-6.58763e-06,-7.31889e-07,-7.33103e-06,-1.76234e-05,6.27562e-05,-3.48635e-06,0
-3.12685e-05,8.54839e-05,-3.86503e-06,-2.18238e-06,-5.20868e-06,-1.78647e-05,5.25296e-05,-4.9593e-06,0
-2.89843e-05,0.000101908,-8.38259e-07,-2.50638e-06,7.53677e-07,-1.73779e-05,4.09762e-05,-6.78154e-06,0
-2.70001e-05,0.000100557,3.27118e-06,-2.27741e-06,1.09357e-05,-1.63315e-05,3.1431e-05,-7.1998e-06,0
-2.74609e-05,8.41924e-05,6.64671e-06,-3.48941e-06,1.96327e-05,-1.53963e-05,2.28112e-05,-5.53484e-06,0
-2.91401e-05,5.33344e-05,7.07562e-06,-5.56373e-06,2.36362e-05,-1.52884e-05,1.32503e-05,-2.89921e-06,0
-3.00658e-05,1.36789e-05,6.9667e-06,-4.6082e-06,2.54946e-05,-1.46661e-05,2.76425e-06,-2.15247e-06,0
-3.08752e-05,-2.29034e-05,6.66314e-06,-2.21139e-06,2.75837e-05,-1.26567e-05,-1.02659e-05,-1.92214e-06,0
-3.20924e-05,-4.72472e-05,5.54837e-06,-1.97098e-06,2.89994e-05,-1.06026e-05,-2.21913e-05,-1.71747e-06,0
-3.21249e-05,-5.7074e-05,3.16533e-06,-3.42795e-06,2.7582e-05,-1.04004e-05,-2.79691e-05,-1.89698e-06,0
-3.11411e-05,-5.08194e-05,1.82881e-06,-3.22983e-06,2.45659e-05,-1.15254e-05,-2.56155e-05,-2.26117e-08,0
-3.03182e-05,-2.37014e-05,1.78527e-06,1.2639e-07,2.14774e-05,-1.21313e-05,-1.7629e-05,2.76857e-06,0
-2.96208e-05,1.87766e-05,1.87825e-06,4.95626e-06,2.09517e-05,-1.25663e-05,-7.70673e-06,3.57399e-06,0
-2.905e-05,5.73927e-05,2.97652e-06,7.32357e-06,2.24688e-05,-1.28216e-05,-1.50315e-06,2.53916e-06,0
-2.95125e-05,7.38158e-05,4.0205e-06,5.45887e-06,2.23631e-05,-1.26127e-05,-1.16115e-06,1.42611e-06,0
-3.03411e-05,6.77244e-05,2.58328e-06,2.80633e-06,1.9575e-05,-1.22375e-05,-3.27543e-06,4.30233e-07,0
-3.04129e-05,4.65834e-05,-1.48607e-06,1.24767e-06,1.60468e-05,-1.19128e-05,-3.2428e-06,-8.28885e-07,0
-3.07195e-05,1.83505e-05,-5.539e-06,5.77404e-07,1.26983e-05,-1.05919e-05,-4.78743e-07,-5.00585e-07,0
-3.18056e-05,-8.2416e-06,-7.43381e-06,9.60176e-07,1.04329e-05,-9.00233e-06,3.39409e-06,8.10261e-07,0
-3.25089e-05,-2.82957e-05,-6.85203e-06,2.20906e-06,1.00078e-05,-8.29823e-06,7.73509e-06,7.92718e-07,0
-3.29333e-05,-4.34963e-05,-5.3558e-06,3.14464e-06,1.0833e-05,-7.7127e-06,1.07566e-05,6.37925e-07,0
-3.32393e-05,-5.22265e-05,-5.3317e-06,2.40705e-06,1.14222e-05,-5.902e-06,1.26179e-05,1.19154e-06,0
-3.23064e-05,-4.88016e-05,-7.19925e-06,8.32099e-07,1.19362e-05,-4.61716e-06,1.33539e-05,1.97203e-06,0
-3.06462e-05,-3.54054e-05,-1.01666e-05,2.10346e-08,1.31904e-05,-4.34363e-06,1.41852e-05,2.90668e-06,0
-3.00646e-05,-1.83998e-05,-1.20888e-05,-1.3021e-07,1.32992e-05,-4.80933e-06,1.43984e-05,3.45156e-06,0
-3.09221e-05,-3.308e-07,-1.11945e-05,3.96034e-07,1.29284e-05,-6.5519e-06,1.11948e-05,3.73232e-06,0
-3.11576e-05,1.57167e-05,-7.69797e-06,2.09462e-06,1.21028e-05,-7.25657e-06,3.51551e-06,6.96463e-06,0
-3.0047e-05,2.25888e-05,-3.50999e-06,4.52779e-06,1.28203e-05,-8.6336e-06,-3.02382e-06,1.00044e-05,0
-3.06682e-05,2.18993e-05,-1.03386e-06,6.94945e-06,1.6092e-05,-1.22504e-05,-3.96604e-06,8.38947e-06,0
-3.24879e-05,2.10702e-05,3.11377e-06,7.91428e-06,1.75279e-05,-1.40376e-05,-2.25252e-07,5.70183e-06,0
-3.29783e-05,2.23667e-05,1.08503e-05,7.0025e-06,1.64237e-05,-1.27395e-05,6.23124e-06,5.09638e-06,0
-3.23044e-05,2.49956e-05,2.23187e-05,4.75671e-06,1.4475e-05,-1.191e-05,1.16727e-05,6.62447e-06,0
-3.10358e-05,2.52053e-05,3.55973e-05,1.22319e-06,1.26892e-05,-1.3045e-05,1.71033e-05,8.17666e-06,0
-3.01038e-05,2.53445e-05,4.81298e-05,-3.0769e-06,1.08963e-05,-1.47855e-05,2.38974e-05,8.47284e-06,0
-2.92727e-05,2.79154e-05,5.50255e-05,-8.8998e-06,9.40931e-06,-1.6745e-05,2.94266e-05,8.27519e-06,0
-2.92205e-05,3.1266e-05,4.93677e-05,-1.66048e-05,8.51643e-06,-1.81487e-05,3.15618e-05,7.77673e-06,0
-2.98231e-05,3.31647e-05,2.80462e-05,-2.55569e-05,8.63739e-06,-1.83537e-05,3.14289e-05,6.2304e-06,0
-3.0779e-05,3.11451e-05,-6.3956e-06,-3.30703e-05,1.01548e-05,-1.76624e-05,3.10746e-05,4.69005e-06,0
-3.20932e-05,2.69858e-05,-4.47795e-05,-3.59238e-05,1.2152e-05,-1.64691e-05,3.10947e-05,3.74938e-06,0
-3.28051e-05,2.4007e-05,-7.70111e-05,-3.30043e-05,1.39768e-05,-1.58238e-05,3.10461e-05,2.89834e-06,0
-3.24938e-05,2.21624e-05,-9.53644e-05,-2.59121e-05,1.4384e-05,-1.53366e-05,3.02225e-05,2.99139e-06,0
-3.16846e-05,1.89739e-05,-9.83426e-05,-1.76462e-05,1.22574e-05,-1.4961e-05,2.81445e-05,3.95707e-06,0
-3.12688e-05,1.56507e-05,-8.97836e-05,-9.65661e-06,8.32484e-06,-1.49223e-05,2.0488e-05,3.86501e-06,0
-3.10813e-05,1.43256e-05,-7.52046e-05,-2.31228e-06,3.9852e-06,-1.49496e-05,5.9468e-06,1.40245e-06,0
-2.96267e-05,1.64319e-05,-5.75659e-05,5.38568e-06,5.56014e-07,-1.52965e-05,-6.1756e-06,-1.88997e-06,0
-2.73256e-05,2.11878e-05,-4.02901e-05,1.15727e-05,2.98495e-07,-1.65488e-05,-5.8829e-06,-3.02567e-06,0
-2.66712e-05,2.73095e-05,-2.68495e-05,1.20879e-05,2.73841e-06,-1.75649e-05,4.95983e-06,-8.826e-07,0
-2.77153e-05,3.1529e-05,-1.90193e-05,7.89831e-06,4.28635e-06,-1.6498e-05,1.70953e-05,2.51437e-06,0
-2.87454e-05,3.33643e-05,-1.57794e-05,4.81611e-06,3.23748e-06,-1.35416e-05,2.63342e-05,4.32347e-06,0
-2.88175e-05,3.53758e-05,-1.38498e-05,5.71242e-06,1.6308e-06,-1.06569e-05,3.31168e-05,3.57553e-06,0
-2.87629e-05,3.70733e-05,-1.09042e-05,8.62295e-06,1.60479e-06,-9.86885e-06,3.78206e-05,2.66749e-06,0
-2.88228e-05,3.73041e-05,-7.35747e-06,8.89707e-06,2.07757e-06,-1.14331e-05,3.89519e-05,3.9876e-06,0
-2.90521e-05,3.76694e-05,-5.01992e-06,5.61764e-06,2.41236e-06,-1.31922e-05,3.47738e-05,4.9604e-06,0
-3.0399e-05,3.82602e-05,-2.55538e-06,7.69594e-07,3.14605e-06,-1.41357e-05,2.74906e-05,4.24897e-06,0
-3.25433e-05,3.68239e-05,-4.29025e-08,-2.68543e-06,3.75418e-06,-1.46349e-05,2.18342e-05,2.57128e-06,0
-3.25645e-05,3.26331e-05,1.01711e-06,-3.38926e-06,5.68914e-06,-1.31756e-05,1.98232e-05,2.20037e-06,0
-3.03313e-05,2.86561e-05,1.95117e-06,-5.76624e-06,6.70305e-06,-9.88051e-06,2.03475e-05,4.31855e-06,0
-2.73007e-05,2.79374e-05,3.77622e-06,-6.84433e-06,5.91919e-06,-8.58168e-06,1.96031e-05,4.1953e-06,0
-2.55712e-05,2.98819e-05,5.06775e-06,-4.75014e-06,7.04685e-06,-9.891e-06,1.69304e-05,1.92439e-06,0
-2.47471e-05,3.23881e-05,4.3165e-06,-4.06999e-06,7.86897e-06,-9.82434e-06,1.6026e-05,8.79239e-09,0
-2.42261e-05,3.24854e-05,3.27567e-06,-5.35206e-06,7.72851e-06,-7.98335e-06,1.67759e-05,-4.53696e-07,0
-2.51033e-05,3.19791e-05,4.67276e-06,-7.39284e-06,7.0855e-06,-5.60543e-06,1.81141e-05,5.88096e-07,0
-2.54062e-05,3.12065e-05,7.27232e-06,-9.60605e-06,5.91117e-06,-5.19909e-06,1.84828e-05,1.56223e-06,0
-2.50083e-05,2.90736e-05,7.53644e-06,-1.27298e-05,5.39737e-06,-8.1113e-06,1.61812e-05,1.5157e-06,0
-2.51369e-05,2.73966e-05,5.62609e-06,-1.63078e-05,6.14484e-06,-1.10115e-05,1.15424e-05,1.14204e-06,0
-2.57105e-05,2.60602e-05,2.92797e-06,-1.93302e-05,6.95942e-06,-1.12111e-05,7.09388e-06,1.50857e-06,0
-2.59443e-05,2.39354e-05,1.02064e-06,-1.83846e-05,5.09957e-06,-1.07145e-05,5.66492e-06,1.39449e-06,0
-2.72113e-05,2.00568e-05,1.9084e-06,-1.26746e-05,2.71931e-06,-1.12416e-05,7.08161e-06,6.7856e-07,0
-2.9394e-05,1.56965e-05,4.17204e-06,-6.11947e-06,2.3852e-06,-1.20869e-05,8.91479e-06,1.93931e-07,0
-3.14421e-05,1.28912e-05,4.08633e-06,-2.22369e-06,4.35838e-06,-1.26341e-05,8.75463e-06,-6.93374e-07,0
-3.2177e-05,1.16108e-05,-1.23708e-06,-1.55113e-07,7.35238e-06,-1.18362e-05,6.45395e-06,-2.5551e-06,0
-3.12719e-05,1.0752e-05,-8.87842e-06,1.81839e-06,9.96161e-06,-1.00144e-05,4.35096e-06,-3.94019e-06,0
-2.98169e-05,9.87007e-06,-1.40423e-05,2.52176e-06,1.06812e-05,-8.36357e-06,5.1847e-06,-4.52464e-06,0
-2.94953e-05,9.05799e-06,-1.50561e-05,2.20095e-06,8.02408e-06,-7.67485e-06,7.5648e-06,-4.14208e-06,0
-3.09587e-05,7.56428e-06,-1.26604e-05,6.94824e-07,5.13518e-06,-7.75283e-06,8.01646e-06,-3.73316e-06,0
-3.26519e-05,4.79792e-06,-9.01852e-06,-2.02468e-06,6.20746e-06,-7.2971e-06,4.84508e-06,-4.4955e-06,0
-3.29714e-05,1.83147e-06,-6.45075e-06,-6.20983e-06,8.10531e-06,-5.23445e-06,7.45329e-07,-4.32196e-06,0
-3.18499e-05,2.49031e-06,-5.5467e-06,-1.07791e-05,7.3525e-06,-3.80032e-06,-9.64845e-07,-3.81969e-06,0
-3.16641e-05,5.4132e-06,-5.89882e-06,-1.31301e-05,7.18023e-06,-4.4831e-06,8.5109e-07,-4.28386e-06,0
-3.23637e-05,6.83405e-06,-6.75433e-06,-1.43999e-05,8.28825e-06,-6.05959e-06,3.81659e-06,-3.39088e-06,0
-3.24241e-05,4.73382e-06,-6.43233e-06,-1.54513e-05,8.20532e-06,-5.78749e-06,5.56543e-06,-1.38273e-06,0
-3.2368e-05,1.79266e-06,-4.19724e-06,-1.37246e-05,7.01586e-06,-3.49702e-06,5.42729e-06,-7.47883e-07,0
-3.14068e-05,3.06314e-06,-2.14886e-06,-6.89304e-06,6.30979e-06,-3.53244e-06,5.04264e-06,-5.395e-07,0
-2.94068e-05,6.4389e-06,-1.27145e-06,3.09494e-06,5.93753e-06,-5.28755e-06,7.02954e-06,2.64794e-08,0
-2.82629e-05,1.09263e-05,-2.90976e-06,1.13504e-05,5.62693e-06,-4.28091e-06,1.07467e-05,9.99217e-07,0
-2.91061e-05,1.43673e-05,-6.63067e-06,1.84003e-05,7.30088e-06,-2.37429e-06,1.66691e-05,3.47054e-06,0
-3.08402e-05,1.46948e-05,-7.85702e-06,2.3382e-05,1.19786e-05,-2.13822e-06,2.22787e-05,6.53267e-06,0
-3.23128e-05,1.3893e-05,-4.68215e-06,2.50302e-05,1.67198e-05,-2.18022e-06,2.54598e-05,8.80005e-06,0
-3.37682e-05,1.32614e-05,4.49658e-07,2.53847e-05,1.85895e-05,-2.95309e-06,2.55607e-05,8.726e-06,0
-3.38513e-05,1.28485e-05,4.79144e-06,2.3673e-05,1.80265e-05,-4.86526e-06,2.38882e-05,6.80721e-06,0
-3.34891e-05,1.09826e-05,9.21232e-06,1.81936e-05,1.86586e-05,-6.42894e-06,2.26889e-05,3.75416e-06,0
-3.31428e-05,9.06316e-06,1.52031e-05,9.76872e-06,2.09885e-05,-6.63416e-06,2.02212e-05,1.56663e-06,0
-3.27583e-05,9.15782e-06,2.32688e-05,1.14503e-06,2.2463e-05,-5.99661e-06,1.69478e-05,7.38585e-07,0
-3.2692e-05,1.09821e-05,3.1308e-05,-6.27938e-06,2.23923e-05,-5.18531e-06,1.37599e-05,1.29851e-08,0
-3.35628e-05,1.27678e-05,3.5232e-05,-1.1188e-05,2.20447e-05,-4.70953e-06,1.08973e-05,-1.55653e-07,0
-3.43499e-05,1.45396e-05,3.06395e-05,-1.47747e-05,2.23451e-05,-5.11625e-06,8.6064e-06,1.27023e-07,0
-3.39597e-05,1.64323e-05,1.52249e-05,-2.06964e-05,2.33009e-05,-6.06134e-06,6.80112e-06,9.81278e-07,0
-3.32004e-05,1.60133e-05,-7.71991e-06,-2.9176e-05,2.51045e-05,-6.64387e-06,1.05548e-06,2.1543e-06,0
-3.25204e-05,1.31725e-05,-3.02521e-05,-3.59209e-05,2.63541e-05,-6.54518e-06,-1.56184e-05,3.00585e-06,0
-3.24102e-05,1.05642e-05,-4.63144e-05,-3.73763e-05,2.67882e-05,-5.44417e-06,-3.7456e-05,2.00061e-06,0
-3.25903e-05,9.50836e-06,-5.34085e-05,-3.20447e-05,2.7879e-05,-4.24496e-06,-4.82689e-05,-5.82059e-08,0
-3.33808e-05,1.01786e-05,-5.19105e-05,-2.09451e-05,2.96425e-05,-4.27704e-06,-4.08921e-05,-1.77975e-06,0
-3.35607e-05,1.12942e-05,-4.59309e-05,-4.7924e-06,2.99089e-05,-5.18052e-06,-2.09877e-05,-2.46744e-06,0
-3.23824e-05,1.00595e-05,-3.84718e-05,1.08905e-05,2.85525e-05,-7.08118e-06,2.01947e-06,-2.59632e-06,0
-3.10206e-05,9.25246e-06,-3.01482e-05,1.79147e-05,2.64822e-05,-8.09753e-06,2.18828e-05,-2.811e-06,0
-3.00768e-05,1.04238e-05,-2.33845e-05,1.69321e-05,2.39979e-05,-6.14148e-06,3.65714e-05,-3.20333e-06,0
-2.89759e-05,1.0251e-05,-1.9855e-05,1.07207e-05,2.26592e-05,-3.42746e-06,4.33358e-05,-3.33243e-06,0
-2.83746e-05,8.96949e-06,-1.78221e-05,2.26667e-06,2.26586e-05,-2.72527e-06,4.41353e-05,-3.23397e-06,0
-2.86231e-05,7.78239e-06,-1.6413e-05,-4.26428e-06,2.16092e-05,-4.00515e-06,4.25686e-05,-3.68623e-06,0
-2.96388e-05,8.30608e-06,-1.64754e-05,-7.6684e-06,1.98652e-05,-4.68496e-06,3.91996e-05,-5.86627e-06,0
-2.99834e-05,1.07978e-05,-1.53708e-05,-9.87366e-06,1.86057e-05,-5.03623e-06,3.58275e-05,-6.7345e-06,0
-2.93271e-05,1.0872e-05,-1.14668e-05,-9.39126e-06,1.901e-05,-5.75004e-06,3.37087e-05,-4.51034e-06,0
-2.92049e-05,7.97824e-06,-8.29666e-06,-5.79111e-06,2.12232e-05,-6.32105e-06,3.38386e-05,-1.06137e-06,0
-2.93141e-05,2.64343e-06,-6.20419e-06,-6.34625e-06,2.21949e-05,-6.39192e-06,3.489e-05,1.90792e-06,0
-2.8776e-05,-2.55334e-06,-4.63503e-06,-1.63105e-05,2.02877e-05,-5.73461e-06,3.33487e-05,2.49391e-06,0
-2.76245e-05,-4.53235e-06,-3.61151e-06,-3.07143e-05,1.56958e-05,-5.64794e-06,2.83874e-05,3.30418e-06,0
-2.76407e-05,-4.16455e-06,-2.68853e-06,-4.07299e-05,1.00117e-05,-6.89163e-06,2.35036e-05,4.64462e-06,0
-2.97038e-05,-2.33455e-06,-1.92407e-06,-4.31357e-05,5.36094e-06,-9.17204e-06,2.13516e-05,5.20874e-06,0
-3.18351e-05,-1.29603e-07,-1.40506e-06,-3.99342e-05,3.71102e-06,-1.04833e-05,1.98657e-05,4.71511e-06,0
-3.15405e-05,4.5488e-06,-1.43508e-06,-3.28654e-05,5.03811e-06,-1.02126e-05,1.58475e-05,4.03164e-06,0
-3.00646e-05,1.43475e-05,-2.06581e-06,-2.44305e-05,9.21505e-06,-9.42841e-06,1.10714e-05,3.44617e-06,0
-2.98399e-05,2.70478e-05,-3.43697e-06,-1.7266e-05,1.33569e-05,-9.35953e-06,8.96689e-06,2.46152e-06,0
-3.06946e-05,3.6813e-05,-5.00508e-06,-1.36485e-05,1.51545e-05,-9.38494e-06,1.05135e-05,1.74704e-06,0
-3.07319e-05,4.12071e-05,-6.77462e-06,-1.41703e-05,1.55597e-05,-8.96705e-06,1.37854e-05,1.39312e-06,0
-2.97778e-05,4.04137e-05,-8.10883e-06,-1.59842e-05,1.51354e-05,-8.68613e-06,1.58542e-05,1.19677e-06,0
-2.89809e-05,3.25527e-05,-8.54669e-06,-1.69797e-05,1.47337e-05,-8.69657e-06,1.54511e-05,1.47583e-06,0
-2.89002e-05,1.50577e-05,-9.00845e-06,-1.38415e-05,1.66065e-05,-8.82765e-06,1.23254e-05,2.39864e-06,0
-2.95089e-05,-8.79684e-06,-9.47622e-06,-4.18466e-06,2.26347e-05,-8.2154e-06,9.17848e-06,2.79806e-06,0
-2.96253e-05,-3.09955e-05,-9.10186e-06,9.62831e-06,2.96698e-05,-7.69567e-06,8.51635e-06,2.44805e-06,0
-2.89829e-05,-4.47941e-05,-8.21648e-06,2.26374e-05,3.23852e-05,-7.5097e-06,7.87311e-06,2.20406e-06,0
-2.84511e-05,-4.4766e-05,-7.58865e-06,3.00729e-05,2.91885e-05,-6.55041e-06,4.99791e-06,2.84632e-06,0
-2.88196e-05,-3.23183e-05,-6.57502e-06,2.98719e-05,2.43045e-05,-7.52708e-06,3.72801e-06,2.93866e-06,0
-3.07136e-05,-1.7011e-05,-5.17292e-06,2.52679e-05,2.0332e-05,-1.07275e-05,6.25094e-06,2.03647e-06,0
-3.23638e-05,-7.64627e-06,-3.5855e-06,1.89988e-05,1.77547e-05,-1.1805e-05,1.02044e-05,3.57191e-07,0
-3.26945e-05,-5.08786e-06,-5.80004e-07,1.25317e-05,1.58762e-05,-9.9277e-06,1.62058e-05,-8.2698e-07,0
-3.21003e-05,-3.28637e-06,3.72037e-06,9.58204e-06,1.47406e-05,-9.01651e-06,2.20628e-05,-4.25941e-07,0
-3.21365e-05,1.21345e-06,5.97939e-06,7.10268e-06,1.20362e-05,-1.01692e-05,2.36654e-05,1.08607e-06,0
-3.256e-05,9.39298e-06,3.18271e-06,1.13516e-06,8.2796e-06,-1.09594e-05,2.48329e-05,4.16564e-06,0
-3.06412e-05,2.27872e-05,-2.62587e-06,-3.55675e-06,7.90974e-06,-1.11222e-05,2.61323e-05,6.0964e-06,0
-2.86761e-05,3.56286e-05,-9.75644e-06,-6.78078e-06,9.33485e-06,-9.68846e-06,2.568e-05,7.39939e-06,0
-2.84793e-05,3.93095e-05,-1.68723e-05,-1.14127e-05,1.07779e-05,-8.62693e-06,2.35696e-05,8.10089e-06,0
-2.97741e-05,3.36098e-05,-2.35954e-05,-1.75649e-05,1.10538e-05,-8.29944e-06,2.10922e-05,7.38757e-06,0
-3.10237e-05,2.28128e-05,-2.93642e-05,-2.30873e-05,1.19677e-05,-8.00313e-06,1.77896e-05,5.77778e-06,0
-3.07403e-05,1.26136e-05,-2.92183e-05,-2.5434e-05,1.32799e-05,-8.08906e-06,1.34603e-05,4.69122e-06,0
-3.00985e-05,8.23473e-06,-2.30989e-05,-2.39493e-05,1.45413e-05,-8.38392e-06,9.77955e-06,4.15223e-06,0
-3.07023e-05,8.78948e-06,-1.6258e-05,-1.96467e-05,1.48239e-05,-8.26547e-06,5.02966e-06,2.97236e-06,0
-3.095e-05,1.08297e-05,-1.26983e-05,-1.6049e-05,1.31635e-05,-7.08901e-06,-6.93136e-07,1.71593e-06,0
-2.89433e-05,1.31119e-05,-1.10109e-05,-1.44959e-05,1.09571e-05,-6.3917e-06,-6.26185e-06,-4.83724e-07,0
-2.72829e-05,1.41513e-05,-9.26154e-06,-1.29129e-05,1.0555e-05,-6.89695e-06,-8.67295e-06,-3.08953e-06,0
-2.83687e-05,1.05902e-05,-7.23702e-06,-1.04268e-05,1.31159e-05,-7.69214e-06,-6.10764e-06,-5.13261e-06,0
-2.99582e-05,3.31473e-06,-6.20557e-06,-7.68093e-06,1.56029e-05,-7.57953e-06,-6.81711e-07,-5.26698e-06,0
-2.95033e-05,-4.10079e-06,-6.12082e-06,-1.47377e-06,1.62976e-05,-6.81635e-06,2.64776e-06,-3.05634e-06,0
-2.89136e-05,-1.12004e-05,-5.78789e-06,1.01182e-05,1.48001e-05,-5.99945e-06,2.02853e-06,6.62045e-07,0
-2.98134e-05,-1.85156e-05,-4.79738e-06,2.08429e-05,1.21077e-05,-6.21018e-06,4.58807e-07,2.72546e-06,0
-3.08847e-05,-2.30541e-05,-1.99595e-06,2.37108e-05,8.5162e-06,-7.48105e-06,9.48169e-07,2.04548e-06,0
-3.14221e-05,-2.12027e-05,4.77385e-07,2.06362e-05,5.93143e-06,-9.0737e-06,3.72701e-06,8.56805e-07,0
-3.19266e-05,-1.37755e-05,7.52604e-07,1.56014e-05,4.89111e-06,-9.47783e-06,8.19272e-06,9.46238e-07,0
-3.11901e-05,-4.58111e-06,2.89016e-07,1.12472e-05,4.61904e-06,-9.02886e-06,1.1325e-05,2.02096e-06,0
-3.0021e-05,3.07016e-06,1.59157e-06,9.26086e-06,4.31273e-06,-9.29014e-06,3.35499e-06,4.99659e-06,0
-2.90952e-05,7.95672e-06,2.41985e-06,1.16539e-05,4.63402e-06,-9.55814e-06,-1.84493e-05,7.56715e-06,0
-2.83933e-05,1.26023e-05,9.62061e-07,1.60036e-05,7.72757e-06,-8.38862e-06,-3.58123e-05,7.83905e-06,0
-2.78002e-05,1.73415e-05,2.09742e-06,1.40477e-05,1.23128e-05,-6.03691e-06,-2.38065e-05,6.28977e-06,0
-2.65561e-05,2.02266e-05,4.96705e-06,1.83914e-06,1.64081e-05,-2.15727e-06,1.61808e-05,4.88491e-06,0
-2.48472e-05,2.66876e-05,5.79958e-06,-1.54256e-05,2.00186e-05,6.33768e-07,5.99767e-05,5.30671e-06,0
-2.44864e-05,3.52267e-05,4.91619e-06,-2.81e-05,2.2584e-05,2.22965e-07,8.88869e-05,5.11744e-06,0
-2.52708e-05,3.74233e-05,3.43919e-06,-3.10916e-05,2.28329e-05,-2.06344e-06,9.94623e-05,4.67922e-06,0
-2.66458e-05,3.29406e-05,3.85064e-06,-2.92863e-05,2.05691e-05,-5.07666e-06,9.51329e-05,4.80333e-06,0
-2.79843e-05,2.62075e-05,7.90525e-06,-2.8473e-05,1.7846e-05,-6.60104e-06,8.10577e-05,7.05617e-06,0
-2.71195e-05,2.21561e-05,1.45019e-05,-2.87396e-05,1.48643e-05,-7.08992e-06,6.41167e-05,7.17438e-06,0
-2.68687e-05,2.09448e-05,1.78923e-05,-3.0179e-05,9.9513e-06,-8.29102e-06,4.2913e-05,4.44997e-06,0
-2.72401e-05,1.90535e-05,1.34856e-05,-2.98044e-05,5.22992e-06,-1.05104e-05,1.78492e-05,2.34996e-06,0
-2.81119e-05,1.25559e-05,9.72364e-08,-2.41487e-05,2.86015e-06,-1.19577e-05,-4.97865e-06,2.40018e-06,0
-3.02276e-05,1.13038e-06,-2.03056e-05,-1.32323e-05,3.27534e-06,-1.20831e-05,-1.99171e-05,4.57323e-06,0
-3.20672e-05,-1.04211e-05,-4.13244e-05,-1.81104e-06,4.40695e-06,-1.2375e-05,-2.54993e-05,6.1361e-06,0
-3.26824e-05,-1.88185e-05,-5.45431e-05,7.18007e-06,4.79625e-06,-1.33473e-05,-2.41073e-05,6.58712e-06,0
-3.17527e-05,-1.89805e-05,-5.64377e-05,1.25868e-05,4.77073e-06,-1.45151e-05,-1.93844e-05,6.44269e-06,0
-2.99502e-05,-6.46677e-06,-4.83986e-05,1.33833e-05,4.61348e-06,-1.57144e-05,-1.61152e-05,5.8694e-06,0
-2.85428e-05,1.44278e-05,-3.54065e-05,1.00913e-05,3.95478e-06,-1.70577e-05,-1.45749e-05,3.83317e-06,0
-2.82193e-05,3.5196e-05,-2.47776e-05,3.08724e-06,3.11239e-06,-1.90725e-05,-1.32488e-05,1.05828e-06,0
-2.84991e-05,5.01058e-05,-2.00939e-05,-7.82737e-06,2.33722e-06,-2.02319e-05,-1.00482e-05,-5.23933e-07,0
-2.95453e-05,5.53987e-05,-1.91322e-05,-2.04408e-05,1.49773e-06,-1.93907e-05,-5.31343e-06,3.40603e-07,0
-3.02797e-05,4.96609e-05,-1.75141e-05,-2.72819e-05,8.60607e-07,-1.7855e-05,-1.83038e-06,9.07077e-07,0
-3.00429e-05,3.44724e-05,-1.33173e-05,-2.54177e-05,8.22632e-07,-1.57675e-05,-2.42932e-06,-6.76554e-07,0
-2.95472e-05,1.09486e-05,-8.68046e-06,-2.00459e-05,2.1236e-06,-1.37538e-05,-6.05689e-06,-1.80543e-06,0
-2.87738e-05,-1.35215e-05,-6.30691e-06,-1.77994e-05,5.28119e-06,-1.21742e-05,-1.03474e-05,-1.27989e-06,0
-2.8329e-05,-2.44228e-05,-5.56468e-06,-1.81143e-05,8.9476e-06,-1.04993e-05,-1.31868e-05,-5.51983e-07,0
-2.98881e-05,-1.68976e-05,-6.23966e-06,-1.65498e-05,1.15858e-05,-9.95408e-06,-1.14683e-05,-2.09544e-07,0
-3.15147e-05,-3.71882e-06,-5.74918e-06,-1.16043e-05,1.322e-05,-1.12047e-05,-4.9734e-06,-8.73573e-07,0
-3.06316e-05,9.49975e-06,-3.72735e-06,-7.34677e-06,1.43902e-05,-1.19896e-05,2.18019e-06,-7.09551e-07,0
-2.86019e-05,2.6854e-05,-1.78451e-06,-1.13178e-05,1.62164e-05,-1.19953e-05,7.07271e-06,-8.6179e-07,0
-2.72349e-05,4.17615e-05,-3.4895e-07,-2.02469e-05,1.70813e-05,-1.2019e-05,9.93077e-06,-2.91949e-06,0
-2.69553e-05,5.01497e-05,-9.7258e-07,-2.27332e-05,1.81918e-05,-1.20975e-05,1.09342e-05,-3.62625e-06,0
-2.60266e-05,6.29974e-05,-2.9046e-06,-1.60364e-05,1.88213e-05,-1.21002e-05,1.01501e-05,-2.64051e-06,0
-2.5217e-05,8.0579e-05,-3.54209e-06,-6.48044e-06,1.8925e-05,-1.1161e-05,8.94837e-06,-1.81603e-06,0
-2.61067e-05,8.74818e-05,-3.05149e-06,-3.40757e-07,2.0648e-05,-1.1308e-05,8.08141e-06,-2.03182e-06,0
-2.67449e-05,8.26861e-05,-2.54137e-06,3.71315e-06,2.2671e-05,-1.14599e-05,8.274e-06,-1.6673e-06,0
-2.79297e-05,6.95831e-05,-3.09126e-06,8.73821e-06,2.40059e-05,-1.00959e-05,9.78335e-06,-1.12098e-06,0
-2.84978e-05,5.0925e-05,-4.78613e-06,1.43313e-05,2.26373e-05,-9.20405e-06,1.18853e-05,-5.44507e-07,0
-2.71027e-05,3.02598e-05,-7.08417e-06,1.79136e-05,2.21409e-05,-9.65825e-06,1.3769e-05,-7.55584e-07,0
-2.60946e-05,5.42498e-06,-1.11496e-05,1.75567e-05,2.44167e-05,-9.46939e-06,1.47336e-05,-1.94071e-06,0
-2.65581e-05,-2.95866e-05,-1.62745e-05,1.57435e-05,2.65557e-05,-6.98645e-06,1.59776e-05,-3.27615e-06,0
-2.85268e-05,-6.91431e-05,-1.96552e-05,1.6948e-05,2.61913e-05,-3.89996e-06,1.69188e-05,-4.68703e-06,0
-3.20638e-05,-9.5514e-05,-1.91516e-05,2.15925e-05,2.48134e-05,-1.29328e-06,1.67233e-05,-4.97225e-06,0
-3.56944e-05,-0.00010219,-1.73813e-05,2.49138e-05,2.42195e-05,-6.94111e-07,1.60229e-05,-3.843e-06,0
-3.90078e-05,-9.31465e-05,-1.73255e-05,2.37554e-05,2.31215e-05,-2.3203e-06,1.56505e-05,-3.1675e-06,0
-4.21853e-05,-7.25892e-05,-1.7985e-05,1.9441e-05,2.18641e-05,-4.53252e-06,1.55241e-05,-3.31803e-06,0
-4.33678e-05,-4.37973e-05,-1.68122e-05,1.50416e-05,2.1199e-05,-5.97107e-06,1.58012e-05,-2.75918e-06,0
-4.2652e-05,-1.80697e-05,-1.55249e-05,1.25456e-05,2.04639e-05,-7.67579e-06,1.7226e-05,-1.86914e-06,0
-4.02922e-05,-3.58896e-06,-1.5855e-05,1.03e-05,1.87927e-05,-1.0022e-05,1.98269e-05,-3.97665e-07,0
-3.70232e-05,1.74352e-06,-1.62233e-05,6.8127e-06,1.86234e-05,-1.21362e-05,2.10141e-05,-3.24906e-07,0
-3.51374e-05,5.24328e-06,-1.59284e-05,4.27811e-06,1.93042e-05,-1.27486e-05,1.94909e-05,-3.00859e-06,0
-3.45666e-05,9.49945e-06,-1.42687e-05,1.62423e-06,1.91379e-05,-1.30366e-05,1.66935e-05,-4.59368e-06,0
-3.35975e-05,1.17699e-05,-1.05616e-05,-4.12246e-06,1.90831e-05,-1.47082e-05,1.57225e-05,-2.52674e-06,0
-3.19563e-05,1.38693e-05,-5.82204e-06,-1.07857e-05,1.85929e-05,-1.43531e-05,1.22195e-05,6.32125e-07,0
-3.10926e-05,1.78492e-05,-1.7386e-06,-1.3854e-05,1.68721e-05,-1.19648e-05,6.64273e-07,1.60435e-06,0
-3.09054e-05,2.27621e-05,7.52119e-07,-1.61771e-05,1.47742e-05,-9.24988e-06,-1.17574e-05,1.84609e-06,0
-3.00476e-05,2.8257e-05,1.43944e-06,-2.0526e-05,1.23558e-05,-8.35093e-06,-1.42224e-05,2.01483e-06,0
-2.99293e-05,3.26292e-05,1.79327e-06,-2.47743e-05,9.26204e-06,-9.49286e-06,-8.13512e-06,1.84929e-06,0
-2.87663e-05,3.41371e-05,1.86783e-06,-2.71255e-05,6.82717e-06,-1.05349e-05,-2.39247e-06,3.34101e-06,0
-2.63373e-05,3.41054e-05,7.7824e-07,-2.65316e-05,6.86028e-06,-1.15195e-05,3.10725e-06,4.26553e-06,0
-2.60024e-05,3.27284e-05,-6.85551e-07,-2.44063e-05,9.26959e-06,-1.19912e-05,8.19276e-06,3.5581e-06,0
-2.73474e-05,3.14739e-05,-1.2378e-06,-1.99201e-05,1.00917e-05,-1.2327e-05,1.29313e-05,5.64565e-07,0
-2.73907e-05,3.22644e-05,-4.37232e-07,-1.38935e-05,9.07795e-06,-1.23095e-05,1.71763e-05,-2.30324e-06,0
-2.71469e-05,3.42149e-05,8.37444e-07,-8.92193e-06,8.84473e-06,-1.23559e-05,1.95616e-05,-1.7198e-06,0
-2.76041e-05,3.57852e-05,1.06791e-06,-5.284e-06,9.06995e-06,-1.18706e-05,2.12863e-05,5.71233e-07,0
-2.77524e-05,3.5723e-05,7.48044e-07,-2.28969e-06,9.07866e-06,-1.05232e-05,2.35442e-05,2.96461e-06,0
-2.73974e-05,3.41075e-05,-1.49039e-07,2.8575e-07,8.2256e-06,-8.90401e-06,2.60548e-05,3.92438e-06,0
-2.65291e-05,3.08966e-05,-2.07436e-06,1.15255e-06,7.09707e-06,-8.4325e-06,2.74465e-05,4.04454e-06,0
-2.64807e-05,2.73512e-05,-4.49545e-06,4.07714e-07,6.61791e-06,-9.3237e-06,2.80576e-05,3.30717e-06,0
-2.83542e-05,2.5893e-05,-6.26585e-06,-1.50787e-06,7.16968e-06,-1.03496e-05,2.78138e-05,1.52466e-06,0
-3.14815e-05,2.73122e-05,-6.49103e-06,-3.00488e-06,8.23047e-06,-1.13052e-05,2.7553e-05,-4.71469e-07,0
-3.30526e-05,2.93909e-05,-4.82489e-06,-3.24675e-06,9.7669e-06,-1.14017e-05,2.7676e-05,-1.69078e-06,0
-3.2672e-05,2.98689e-05,-2.07099e-06,-3.64997e-06,1.19729e-05,-9.7941e-06,2.78657e-05,-1.46802e-06,0
-3.18435e-05,3.02081e-05,-6.52665e-07,-5.52586e-06,1.36132e-05,-7.58309e-06,2.66619e-05,-3.38485e-07,0
-3.18189e-05,3.11936e-05,-3.29135e-07,-6.8898e-06,1.54866e-05,-7.98681e-06,2.29618e-05,-7.89091e-08,0
-3.20899e-05,3.16323e-05,3.0979e-07,-4.7097e-06,1.8918e-05,-1.0334e-05,1.63003e-05,-1.155e-06,0
-3.22712e-05,2.99714e-05,8.60629e-07,-5.10492e-07,2.14018e-05,-1.22592e-05,6.02836e-06,-8.2755e-07,0
-3.1347e-05,3.00864e-05,-6.15595e-07,1.72836e-06,2.169e-05,-1.27483e-05,-3.88878e-06,1.29441e-06,0
-2.8585e-05,3.98849e-05,-3.53373e-06,3.06612e-07,2.06756e-05,-1.35041e-05,-7.01682e-06,1.58279e-06,0
-2.5458e-05,5.81533e-05,-5.45552e-06,-2.11643e-06,2.1227e-05,-1.3872e-05,-6.29216e-07,1.51004e-06,0
-2.55021e-05,7.17347e-05,-5.66729e-06,-5.94519e-06,2.38154e-05,-1.26673e-05,1.19047e-05,6.82717e-07,0
-2.7168e-05,7.40286e-05,-6.33024e-06,-1.25234e-05,2.34163e-05,-1.14832e-05,2.46126e-05,-2.46624e-06,0
-2.76208e-05,6.67182e-05,-1.02712e-05,-1.87782e-05,2.19973e-05,-1.10823e-05,3.40813e-05,-3.27982e-06,0
-2.6965e-05,5.03665e-05,-1.56358e-05,-2.41984e-05,2.01415e-05,-1.1603e-05,3.89769e-05,-2.84798e-06,0
-2.70106e-05,2.4977e-05,-1.88853e-05,-2.87451e-05,1.61555e-05,-1.22193e-05,4.03996e-05,-1.48201e-06,0
-2.80704e-05,-7.93293e-07,-1.97806e-05,-3.05333e-05,1.43244e-05,-1.15186e-05,3.84865e-05,-6.37411e-07,0
-2.75856e-05,-1.93226e-05,-1.88429e-05,-2.55936e-05,1.59772e-05,-9.96951e-06,3.33994e-05,-2.18117e-06,0
-2.82117e-05,-2.96473e-05,-1.79075e-05,-1.26903e-05,1.85708e-05,-9.04772e-06,2.55333e-05,-3.66074e-06,0
-2.93632e-05,-3.09634e-05,-1.82479e-05,-7.5517e-07,1.85481e-05,-1.08061e-05,1.79481e-05,-4.42017e-06,0
-3.01255e-05,-2.76158e-05,-1.79821e-05,7.60959e-06,1.63691e-05,-1.36664e-05,1.39241e-05,-3.88515e-06,0
-3.0807e-05,-1.98538e-05,-1.60152e-05,1.62801e-05,1.51156e-05,-1.41207e-05,1.0808e-05,-3.50907e-06,0
-3.07712e-05,-8.35433e-06,-1.26717e-05,2.4835e-05,1.41068e-05,-1.41995e-05,7.49906e-06,-2.97742e-06,0
-2.97692e-05,3.58493e-06,-8.2429e-06,3.10118e-05,1.23628e-05,-1.48027e-05,3.2927e-06,-2.14748e-06,0
-2.90775e-05,1.03778e-05,-1.4401e-06,3.09537e-05,9.51351e-06,-1.48618e-05,7.07876e-07,-6.2593e-07,0
-2.97773e-05,9.56751e-06,9.25168e-06,2.37201e-05,6.17741e-06,-1.34596e-05,2.59076e-06,1.45046e-06,0
-3.09828e-05,2.28569e-06,2.29281e-05,1.50587e-05,4.38597e-06,-1.11664e-05,5.64423e-06,2.05897e-06,0
-3.26291e-05,-9.54496e-06,3.74639e-05,1.18215e-05,4.99855e-06,-9.53103e-06,5.50325e-06,1.42546e-06,0
-3.41655e-05,-1.89855e-05,5.03985e-05,1.37291e-05,5.41761e-06,-9.57025e-06,3.67324e-06,1.44239e-06,0
-3.50798e-05,-1.98373e-05,5.69469e-05,1.52704e-05,3.15762e-06,-1.07235e-05,3.44754e-06,2.29617e-06,0
-3.48786e-05,-1.36742e-05,4.94033e-05,1.2371e-05,-2.7504e-07,-1.04582e-05,3.74826e-06,3.10887e-06,0
-3.41309e-05,-8.05214e-06,2.4641e-05,6.65128e-06,-3.12516e-06,-8.56202e-06,2.67327e-06,3.74973e-06,0
-3.30056e-05,-5.59712e-06,-1.14439e-05,1.85637e-06,-5.03038e-06,-6.37345e-06,1.14563e-06,2.99668e-06,0
-3.18317e-05,-3.53528e-06,-4.72277e-05,-6.28864e-07,-4.7847e-06,-5.55112e-06,1.22383e-06,7.82378e-07,0
-3.09572e-05,-1.186e-06,-7.22441e-05,-2.24063e-06,-1.25296e-06,-6.71924e-06,1.8525e-06,-1.81249e-06,0
-3.18187e-05,-6.87891e-07,-8.24823e-05,-5.94703e-06,2.44646e-06,-6.86263e-06,2.19912e-06,-3.74914e-06,0
-3.43733e-05,7.63108e-07,-7.82958e-05,-9.89138e-06,3.25315e-06,-6.01468e-06,4.51039e-06,-3.86037e-06,0
-3.57231e-05,7.89784e-06,-6.48762e-05,-8.87945e-06,2.0289e-06,-6.78837e-06,9.20957e-06,-6.87013e-07,0
-3.42015e-05,2.24268e-05,-4.8618e-05,-3.10522e-06,6.39381e-07,-7.43709e-06,1.37544e-05,3.39676e-06,0
-3.14374e-05,3.8657e-05,-3.45469e-05,8.65489e-06,-1.09099e-06,-5.56166e-06,1.64616e-05,4.2297e-06,0
-3.04968e-05,5.14045e-05,-2.42743e-05,2.34322e-05,-2.50153e-06,-4.09575e-06,1.63312e-05,9.99889e-07,0
-3.12474e-05,5.66129e-05,-1.65188e-05,2.63413e-05,-2.4019e-06,-4.53553e-06,1.3968e-05,-1.74101e-06,0
-3.18504e-05,5.27149e-05,-9.84104e-06,1.73565e-05,-3.1979e-06,-5.53482e-06,1.18662e-05,1.77997e-07,0
-3.07942e-05,4.23641e-05,-4.64968e-06,6.78279e-06,-4.67365e-06,-6.89292e-06,1.00444e-05,3.35977e-06,0
-2.89349e-05,2.42468e-05,-2.33592e-06,-4.13233e-07,-5.34375e-06,-7.40491e-06,6.02754e-06,2.30583e-06,0
-2.77006e-05,8.83761e-09,-1.75597e-06,-2.54979e-06,-5.70665e-06,-8.4805e-06,-1.33137e-06,-1.23486e-06,0
-2.64524e-05,-2.27557e-05,-3.07828e-06,-5.3414e-06,-5.7861e-06,-9.524e-06,-8.26101e-06,-3.65099e-06,0
-2.49464e-05,-3.50138e-05,-5.1061e-06,-9.18281e-06,-3.37396e-06,-9.81515e-06,-9.65861e-06,-5.06405e-06,0
-2.47629e-05,-3.24353e-05,-7.27124e-06,-9.01398e-06,2.92788e-06,-9.45608e-06,-5.64228e-06,-4.20848e-06,0
-2.73553e-05,-1.97593e-05,-8.12797e-06,-5.98563e-06,7.95253e-06,-8.99006e-06,1.56602e-06,-1.80424e-06,0
-3.10144e-05,-7.13417e-06,-6.25415e-06,-8.67724e-06,8.27714e-06,-9.03941e-06,8.71811e-06,4.21603e-08,0
-3.29168e-05,5.71592e-07,-4.21651e-06,-1.97219e-05,5.22988e-06,-8.35563e-06,1.25179e-05,1.19468e-07,0
-3.21452e-05,3.31762e-06,-4.41583e-06,-3.27127e-05,1.79772e-06,-8.67884e-06,1.38587e-05,-8.3355e-07,0
-3.04885e-05,5.71812e-06,-7.11739e-06,-4.02355e-05,7.58869e-07,-1.02513e-05,1.58121e-05,-1.43965e-06,0
-2.95934e-05,8.45145e-06,-9.96023e-06,-3.9984e-05,3.30907e-06,-1.11149e-05,1.89352e-05,-2.04868e-06,0
-2.94875e-05,1.04532e-05,-1.07629e-05,-3.47994e-05,7.89946e-06,-1.01904e-05,2.16731e-05,-2.39708e-06,0
-2.95939e-05,1.19743e-05,-8.50299e-06,-2.78983e-05,1.25677e-05,-8.23789e-06,2.15629e-05,-2.07462e-06,0
-2.88857e-05,1.28323e-05,-4.1464e-06,-2.13219e-05,1.7736e-05,-6.36436e-06,1.86486e-05,-8.3739e-07,0
-2.77857e-05,1.33508e-05,7.61694e-07,-1.40049e-05,2.39022e-05,-4.63245e-06,1.58935e-05,5.8428e-09,0
-2.79033e-05,1.36503e-05,4.68842e-06,-5.8918e-06,2.99463e-05,-2.21669e-06,1.56601e-05,-6.03466e-07,0
-2.88295e-05,1.50565e-05,6.76811e-06,-6.98841e-08,3.33286e-05,-9.15826e-07,1.73298e-05,-1.57014e-06,0
-2.88732e-05,1.69285e-05,7.35545e-06,1.71055e-06,3.34598e-05,-2.66523e-06,1.87511e-05,-1.28498e-06,0
-2.86935e-05,1.76669e-05,6.17186e-06,4.22524e-06,3.12445e-05,-5.1478e-06,1.95535e-05,2.72807e-07,0
-2.87702e-05,1.54233e-05,4.12072e-06,7.3465e-06,2.72953e-05,-5.71837e-06,1.93961e-05,1.8531e-06,0
-2.92374e-05,1.22842e-05,2.17314e-06,7.41452e-06,2.24254e-05,-4.2957e-06,1.83885e-05,3.87911e-06,0
-3.02662e-05,1.10219e-05,6.12623e-07,7.18453e-06,1.92612e-05,-3.16622e-06,1.80125e-05,6.21511e-06,0
-3.04731e-05,1.15683e-05,1.11867e-07,7.09607e-06,1.85861e-05,-2.90649e-06,1.74764e-05,5.17636e-06,0
-3.03079e-05,1.15958e-05,3.31463e-07,6.44327e-06,1.94856e-05,-2.13075e-06,1.63182e-05,2.54179e-06,0
-3.1226e-05,1.07765e-05,1.15515e-06,5.56586e-06,2.14739e-05,-2.04895e-06,1.69071e-05,2.49163e-06,0
-3.16106e-05,1.04544e-05,4.21545e-07,7.97951e-07,2.2903e-05,-1.65128e-06,1.7263e-05,2.54514e-06,0
-3.07689e-05,1.18777e-05,-2.40517e-06,-5.59118e-06,2.15303e-05,-7.93475e-07,1.56709e-05,2.48972e-06,0
-3.0367e-05,1.35431e-05,-2.38944e-06,-1.11503e-05,1.84298e-05,-1.62517e-06,1.49242e-05,3.01145e-06,0
-2.95228e-05,1.52148e-05,4.10912e-06,-1.91547e-05,1.56882e-05,-2.88424e-06,1.68915e-05,3.45075e-06,0
-2.84732e-05,1.72822e-05,1.59456e-05,-2.91245e-05,1.24865e-05,-4.9426e-06,1.91621e-05,2.67857e-06,0
-2.96365e-05,1.84228e-05,2.87979e-05,-3.34593e-05,8.63369e-06,-7.32947e-06,1.77966e-05,9.59842e-07,0
-3.27763e-05,1.81544e-05,3.31446e-05,-3.03719e-05,5.37648e-06,-8.58164e-06,1.43275e-05,-1.69965e-07,0
-3.50813e-05,1.49147e-05,2.45568e-05,-2.71907e-05,3.22477e-06,-9.52583e-06,1.40619e-05,-7.41021e-08,0
-3.38143e-05,1.1412e-05,5.65971e-06,-2.60774e-05,3.78927e-06,-1.11657e-05,1.82351e-05,1.25103e-06,0
-3.07333e-05,1.75902e-05,-1.75479e-05,-2.66647e-05,6.81646e-06,-1.20779e-05,2.28203e-05,2.90198e-06,0
-2.85794e-05,3.4574e-05,-3.88477e-05,-2.91324e-05,8.84528e-06,-1.20224e-05,2.59668e-05,3.2048e-06,0
-2.83073e-05,4.94678e-05,-5.38931e-05,-3.0767e-05,8.96559e-06,-1.20435e-05,2.80237e-05,9.82485e-07,0
-2.83778e-05,5.21491e-05,-5.82503e-05,-2.80861e-05,9.3436e-06,-1.24612e-05,2.88867e-05,-1.313e-06,0
-2.75707e-05,4.41434e-05,-5.39226e-05,-2.28836e-05,1.1926e-05,-1.28568e-05,2.84134e-05,-2.49474e-06,0
-2.74955e-05,3.31013e-05,-4.52781e-05,-1.91443e-05,1.5055e-05,-1.35413e-05,2.57722e-05,-3.1524e-06,0
-2.89826e-05,2.26108e-05,-3.56521e-05,-1.76372e-05,1.69481e-05,-1.42166e-05,2.17061e-05,-4.18487e-06,0
-3.0468e-05,1.37545e-05,-2.6583e-05,-1.63303e-05,1.7239e-05,-1.37401e-05,1.72528e-05,-6.16516e-06,0
-2.99442e-05,6.13942e-06,-1.99077e-05,-1.40252e-05,1.51518e-05,-1.26543e-05,1.30147e-05,-7.58989e-06,0
-2.93047e-05,-7.93951e-07,-1.61232e-05,-9.50284e-06,1.16284e-05,-1.19048e-05,9.38146e-06,-6.66457e-06,0
-3.00268e-05,-8.21965e-06,-1.50247e-05,-2.36881e-06,1.00236e-05,-1.23549e-05,6.20933e-06,-5.04274e-06,0
-3.1995e-05,-1.78081e-05,-1.51711e-05,5.85628e-06,1.18633e-05,-1.42466e-05,3.5369e-06,-3.94215e-06,0
-3.47194e-05,-2.58516e-05,-1.47734e-05,1.19692e-05,1.41519e-05,-1.59993e-05,1.68008e-06,-2.82218e-06,0
-3.62901e-05,-2.54152e-05,-1.28397e-05,1.58556e-05,1.30353e-05,-1.63193e-05,2.09154e-06,-2.07348e-06,0
-3.54577e-05,-1.67151e-05,-9.72057e-06,2.00553e-05,1.10306e-05,-1.71169e-05,5.93347e-06,-1.94442e-06,0
-3.32983e-05,-6.54948e-06,-7.06704e-06,2.2751e-05,1.17078e-05,-1.6537e-05,1.01589e-05,-1.77323e-06,0
-3.11013e-05,1.4045e-06,-5.35719e-06,1.81077e-05,1.3997e-05,-1.36134e-05,1.07459e-05,-9.19154e-07,0
-2.88676e-05,7.27594e-06,-4.03457e-06,5.76349e-06,1.63295e-05,-1.1925e-05,1.08316e-05,1.47088e-07,0
-2.72128e-05,1.10948e-05,-1.60999e-06,-4.79103e-06,1.67613e-05,-1.18279e-05,1.16343e-05,2.08851e-06,0
-2.7224e-05,1.25908e-05,8.38621e-07,-9.16684e-06,1.57757e-05,-1.0612e-05,1.10221e-05,4.16167e-06,0
-2.81303e-05,1.15767e-05,1.91619e-06,-7.94523e-06,1.58158e-05,-8.23582e-06,1.00727e-05,4.37615e-06,0
-2.80747e-05,9.27038e-06,9.00284e-07,-4.38614e-06,1.68951e-05,-6.51296e-06,9.08612e-06,4.54765e-06,0
-2.74678e-05,7.47889e-06,-3.56641e-07,-3.15411e-06,1.70367e-05,-6.73663e-06,8.4638e-06,5.21058e-06,0
-2.70763e-05,7.65435e-06,-1.24747e-07,-3.12992e-06,1.67996e-05,-7.02225e-06,6.97296e-06,5.43368e-06,0
-2.67153e-05,9.26708e-06,-3.42802e-08,-4.44022e-06,1.78915e-05,-6.5188e-06,5.14529e-06,5.88561e-06,0
-2.67106e-05,1.23199e-05,3.03523e-07,-7.48662e-06,1.7485e-05,-6.50741e-06,4.71821e-06,5.46183e-06,0
-2.59865e-05,1.5229e-05,1.18641e-06,-1.04892e-05,1.48033e-05,-6.08873e-06,6.50601e-06,5.46538e-06,0
-2.46696e-05,1.56875e-05,2.93536e-06,-1.29964e-05,1.16329e-05,-5.54832e-06,8.7054e-06,7.66907e-06,0
-2.35554e-05,1.4139e-05,4.94281e-06,-1.57904e-05,8.57167e-06,-5.66485e-06,8.72546e-06,1.09767e-05,0
-2.27007e-05,1.26833e-05,6.88644e-06,-1.76951e-05,7.29466e-06,-6.12361e-06,7.13155e-06,1.14922e-05,0
-2.28704e-05,1.2524e-05,7.5182e-06,-1.73962e-05,8.57075e-06,-5.80467e-06,4.2891e-06,9.99898e-06,0
-2.44037e-05,1.3276e-05,6.50855e-06,-1.76601e-05,1.05677e-05,-4.87316e-06,1.5743e-06,9.63231e-06,0
-2.58141e-05,1.57366e-05,6.71028e-06,-2.10317e-05,1.14053e-05,-3.87085e-06,-2.77725e-08,9.55172e-06,0
-2.5572e-05,1.88903e-05,8.65941e-06,-2.52699e-05,1.21862e-05,-3.28214e-06,4.21134e-07,8.46648e-06,0
-2.46103e-05,2.16784e-05,9.48903e-06,-2.38823e-05,1.35924e-05,-3.22119e-06,1.23903e-06,5.71402e-06,0
-2.41976e-05,2.32195e-05,6.35751e-06,-1.45382e-05,1.46808e-05,-3.28412e-06,-2.65468e-06,2.86215e-06,0
-2.57034e-05,2.29612e-05,1.46928e-06,-1.7747e-06,1.39858e-05,-3.74039e-06,-1.27586e-05,1.83362e-06,0
-2.83504e-05,2.09595e-05,-4.15338e-06,8.83973e-06,1.13494e-05,-4.10705e-06,-1.87533e-05,2.84958e-06,0
-2.93733e-05,1.90091e-05,-1.09188e-05,1.48831e-05,9.65757e-06,-4.83762e-06,-1.20323e-05,4.58159e-06,0
-2.89581e-05,1.68272e-05,-1.88036e-05,1.69725e-05,1.04035e-05,-6.71406e-06,3.36373e-06,5.19771e-06,0
-2.86991e-05,1.51502e-05,-2.73345e-05,1.51762e-05,1.21823e-05,-7.76476e-06,1.89934e-05,4.47881e-06,0
-3.07847e-05,1.52978e-05,-3.65926e-05,9.10257e-06,1.36313e-05,-8.49616e-06,3.04003e-05,5.19638e-06,0
-3.42423e-05,1.62966e-05,-4.28679e-05,1.27801e-06,1.28331e-05,-9.21351e-06,3.96104e-05,7.44561e-06,0
-3.5372e-05,1.72569e-05,-4.08949e-05,-6.13389e-06,1.0748e-05,-1.11552e-05,4.57817e-05,1.02641e-05,0
-3.4918e-05,1.61288e-05,-3.3442e-05,-1.01179e-05,1.13587e-05,-1.29794e-05,5.01464e-05,1.13537e-05,0
-3.45121e-05,1.5174e-05,-2.72699e-05,-9.71188e-06,1.36597e-05,-1.25808e-05,5.45498e-05,1.01227e-05,0
-3.57245e-05,1.68432e-05,-2.36334e-05,-8.03799e-06,1.61855e-05,-1.22509e-05,5.81185e-05,1.0067e-05,0
-3.66889e-05,1.97602e-05,-2.2144e-05,-6.45863e-06,1.86248e-05,-1.16633e-05,6.05455e-05,1.10374e-05,0
-3.69323e-05,2.13039e-05,-2.11261e-05,-4.86403e-06,2.01853e-05,-1.16946e-05,5.8163e-05,1.01545e-05,0
-3.75951e-05,2.22782e-05,-1.79488e-05,-2.54864e-06,2.21349e-05,-1.27258e-05,5.05058e-05,6.95783e-06,0
-3.76498e-05,2.46063e-05,-1.29952e-05,-1.5859e-06,2.30964e-05,-1.33504e-05,4.0838e-05,4.63874e-06,0
-3.6739e-05,2.65067e-05,-1.0019e-05,-1.7366e-06,2.48717e-05,-1.22352e-05,3.05975e-05,4.80168e-06,0
-3.49101e-05,2.74385e-05,-9.39525e-06,-2.01077e-06,2.75288e-05,-1.0719e-05,2.17137e-05,6.14444e-06,0
-3.32064e-05,2.83468e-05,-7.91389e-06,-6.67043e-07,2.8245e-05,-9.11002e-06,1.5103e-05,6.66048e-06,0
-3.21938e-05,3.22756e-05,-7.10601e-06,5.96808e-06,2.62716e-05,-7.45231e-06,9.01829e-06,5.20667e-06,0
-3.17823e-05,3.74903e-05,-7.44916e-06,1.66787e-05,2.20634e-05,-7.41942e-06,3.32732e-06,4.10028e-06,0
-3.07294e-05,3.96462e-05,-7.82542e-06,2.59071e-05,1.91772e-05,-8.90795e-06,-4.70904e-07,3.98866e-06,0
-2.98443e-05,3.77933e-05,-6.55998e-06,3.01075e-05,1.93747e-05,-9.91142e-06,-2.23014e-06,3.75941e-06,0
-2.98095e-05,3.66336e-05,-5.38762e-06,2.95138e-05,2.10625e-05,-9.83002e-06,-3.44425e-06,3.73452e-06,0
-3.01591e-05,4.02215e-05,-4.4809e-06,2.6141e-05,2.20608e-05,-9.47806e-06,-6.26628e-06,3.20684e-06,0
-3.04659e-05,4.4347e-05,-3.07513e-06,2.43579e-05,2.29031e-05,-8.96674e-06,-1.21554e-05,2.5038e-06,0
-3.0797e-05,4.41211e-05,-1.56605e-06,2.4539e-05,2.3045e-05,-9.72355e-06,-1.96284e-05,2.6946e-06,0
-3.12818e-05,3.78023e-05,1.94067e-08,2.26387e-05,2.15686e-05,-1.23826e-05,-2.51317e-05,3.97299e-06,0
-3.21567e-05,2.78783e-05,-3.09729e-09,1.74647e-05,1.92992e-05,-1.5756e-05,-2.64615e-05,5.0349e-06,0
-3.26702e-05,1.84414e-05,-1.67037e-06,1.04962e-05,1.7629e-05,-1.68042e-05,-2.35077e-05,4.22303e-06,0
-3.17384e-05,1.06106e-05,-4.61929e-06,1.49336e-06,1.72073e-05,-1.43465e-05,-1.75926e-05,1.02679e-06,0
-3.11602e-05,3.8165e-06,-9.28388e-06,-8.09045e-06,1.88073e-05,-1.09621e-05,-1.03474e-05,-3.48905e-06,0
-3.31436e-05,-3.73494e-06,-1.50028e-05,-1.56844e-05,2.06172e-05,-9.69767e-06,-3.83302e-06,-6.45741e-06,0
-3.55965e-05,-1.52957e-05,-1.97006e-05,-2.25807e-05,2.10395e-05,-1.07743e-05,1.15193e-06,-6.60101e-06,0
-3.52811e-05,-2.73481e-05,-2.05045e-05,-2.64589e-05,1.99001e-05,-1.20613e-05,4.7741e-06,-6.20155e-06,0
-3.38277e-05,-3.75437e-05,-1.71386e-05,-2.49122e-05,1.68286e-05,-1.21077e-05,6.75192e-06,-3.89574e-06,0
-3.52414e-05,-3.78555e-05,-1.35736e-05,-2.42071e-05,1.4172e-05,-1.29851e-05,5.93253e-06,-6.87927e-07,0
-3.71007e-05,-2.55613e-05,-1.12212e-05,-2.87669e-05,1.28131e-05,-1.47055e-05,4.26347e-06,-9.59567e-07,0
-3.57819e-05,-1.0642e-05,-8.24423e-06,-3.62312e-05,1.14174e-05,-1.52457e-05,4.47604e-06,-3.85484e-06,0
-3.39041e-05,1.09004e-06,-5.94036e-06,-3.90985e-05,9.45351e-06,-1.40975e-05,5.01324e-06,-7.66377e-06,0
-3.34099e-05,5.00119e-06,-5.29619e-06,-3.47922e-05,7.88047e-06,-1.25474e-05,5.47276e-06,-9.61413e-06,0
-3.34475e-05,5.06223e-06,-5.50177e-06,-2.56139e-05,7.42451e-06,-1.11973e-05,4.90127e-06,-1.06285e-05,0
-3.28424e-05,8.14563e-06,-5.76672e-06,-1.47813e-05,7.80014e-06,-9.73721e-06,-3.24477e-06,-1.27036e-05,0
-3.23743e-05,1.4346e-05,-5.55893e-06,-8.62311e-06,8.56712e-06,-9.13582e-06,-2.22129e-05,-1.40485e-05,0
-3.03743e-05,1.93081e-05,-4.93659e-06,-1.20598e-05,9.10124e-06,-9.58508e-06,-3.92791e-05,-1.24291e-05,0
-2.74867e-05,1.8901e-05,-2.65625e-06,-1.93463e-05,9.22221e-06,-1.1691e-05,-4.07926e-05,-9.07281e-06,0
-2.61107e-05,1.60034e-05,-8.28421e-07,-2.20656e-05,9.56676e-06,-1.35873e-05,-2.48205e-05,-6.10401e-06,0
-2.61504e-05,1.62388e-05,-1.11892e-06,-2.133e-05,9.74758e-06,-1.45702e-05,5.16874e-07,-4.18202e-06,0
-2.57383e-05,2.26131e-05,-1.98206e-06,-1.96408e-05,8.65278e-06,-1.50169e-05,2.42057e-05,-4.3904e-06,0
-2.48337e-05,3.55064e-05,-1.92139e-06,-2.09199e-05,7.272e-06,-1.48296e-05,4.05286e-05,-5.19419e-06,0
-2.54603e-05,5.01207e-05,-1.03761e-06,-2.42432e-05,6.86127e-06,-1.46503e-05,4.85522e-05,-5.55549e-06,0
-2.76139e-05,5.89303e-05,-4.16615e-08,-2.51111e-05,5.34436e-06,-1.52217e-05,4.89808e-05,-5.25079e-06,0
-3.06446e-05,5.74098e-05,2.45419e-07,-2.15571e-05,1.90422e-06,-1.58407e-05,4.16743e-05,-3.88511e-06,0
-3.23366e-05,4.56331e-05,-1.72467e-07,-1.65224e-05,-5.17814e-07,-1.56306e-05,3.0092e-05,-1.07837e-06,0
-3.23638e-05,2.43513e-05,-8.29785e-07,-1.20069e-05,9.12908e-07,-1.51911e-05,2.00676e-05,1.54384e-06,0
-3.21174e-05,-3.20412e-06,-1.26329e-06,-7.45492e-06,4.77276e-06,-1.36251e-05,1.59305e-05,1.58777e-06,0
-3.24937e-05,-2.5479e-05,-6.90363e-07,-3.57495e-06,7.96806e-06,-1.1965e-05,1.77258e-05,-1.11759e-06,0
-3.28075e-05,-3.15314e-05,-1.13275e-06,-2.08627e-06,1.07549e-05,-1.25952e-05,2.26788e-05,-3.79496e-06,0
-3.18335e-05,-2.53402e-05,-3.62751e-06,-1.47441e-06,1.48058e-05,-1.45404e-05,2.91063e-05,-4.24732e-06,0
-3.07849e-05,-1.67787e-05,-5.49032e-06,5.075e-06,2.14371e-05,-1.52981e-05,3.66476e-05,-4.08149e-06,0
-3.05041e-05,-8.16997e-06,-8.20106e-06,2.05182e-05,3.15643e-05,-1.52265e-05,4.23762e-05,-3.4291e-06,0
-3.04366e-05,4.24267e-06,-1.27178e-05,3.7607e-05,4.08063e-05,-1.4864e-05,4.41802e-05,-2.11091e-06,0
-3.15874e-05,1.89447e-05,-2.20071e-05,4.20728e-05,4.11655e-05,-1.55178e-05,4.26175e-05,-1.24832e-06,0
-3.28942e-05,2.98355e-05,-3.6179e-05,3.28127e-05,3.11998e-05,-1.66407e-05,3.82205e-05,-1.98607e-07,0
-3.3401e-05,4.54345e-05,-4.3017e-05,2.1154e-05,2.1217e-05,-1.6068e-05,3.29281e-05,7.52926e-07,0
-3.20507e-05,7.60473e-05,-3.92963e-05,1.2355e-05,1.75948e-05,-1.4675e-05,3.05319e-05,6.02281e-07,0
-2.97234e-05,0.000105745,-3.03062e-05,6.14261e-06,1.58882e-05,-1.23843e-05,2.95148e-05,-4.68113e-07,0
-2.83597e-05,0.000115724,-2.28809e-05,3.44993e-06,1.27684e-05,-1.05986e-05,2.77373e-05,-1.7219e-06,0
-2.90389e-05,0.000104738,-1.91877e-05,2.80325e-06,1.006e-05,-9.06171e-06,2.69358e-05,-2.67162e-06,0
-3.15017e-05,7.3254e-05,-1.63728e-05,1.85323e-06,9.60911e-06,-6.3333e-06,2.53225e-05,-3.3845e-06,0
-3.28081e-05,2.61862e-05,-1.32522e-05,5.09898e-07,1.0116e-05,-4.24985e-06,2.20031e-05,-4.47178e-06,0
-3.18033e-05,-2.2572e-05,-1.00871e-05,-1.02198e-06,1.05503e-05,-5.50562e-06,1.90875e-05,-5.56967e-06,0
-2.90696e-05,-6.07355e-05,-7.23266e-06,-1.89633e-06,1.06132e-05,-8.30281e-06,1.83174e-05,-5.39852e-06,0
-2.7128e-05,-8.36449e-05,-5.49639e-06,-1.92473e-07,1.24124e-05,-8.12924e-06,1.77159e-05,-4.49612e-06,0
-2.61267e-05,-9.09579e-05,-5.92677e-06,3.04967e-06,1.48549e-05,-5.92118e-06,1.55169e-05,-3.35904e-06,0
-2.61147e-05,-8.30011e-05,-7.38584e-06,4.7786e-06,1.53627e-05,-4.02764e-06,1.08431e-05,-3.39088e-06,0
-2.7723e-05,-6.6315e-05,-8.604e-06,2.55117e-06,1.33252e-05,-3.43989e-06,5.79805e-06,-4.10905e-06,0
-2.99888e-05,-5.0541e-05,-8.26273e-06,-3.39851e-06,9.95231e-06,-4.05637e-06,5.18106e-06,-4.21647e-06,0
