ch1,ch2,ch3,ch4,ch5,ch6,ch7,ch8,class
-4.51126e-05,8.35231e-07,-1.94883e-05,2.95102e-05,3.06089e-05,1.9405e-05,-5.50145e-05,8.99394e-06,0
-2.15669e-05,1.30734e-05,-1.6993e-05,8.63388e-05,5.10858e-05,1.29268e-05,-9.04518e-05,3.51676e-06,0
-2.28877e-06,2.27093e-05,-1.41046e-05,9.04663e-05,5.56971e-05,-3.67369e-06,-9.10896e-05,-2.6999e-08,0
-4.98199e-07,2.34149e-05,-9.83133e-06,3.01417e-05,4.86246e-05,-7.64656e-06,-4.84531e-05,-7.85225e-07,0
-9.85091e-06,1.75464e-05,-5.12086e-06,-5.02011e-05,3.15698e-05,2.38344e-05,1.0331e-05,-1.15292e-07,0
-2.13496e-05,1.3043e-05,-7.63856e-07,-7.83823e-05,-1.13527e-06,5.44704e-05,5.48064e-05,-3.64537e-09,0
-3.18199e-05,1.35556e-05,3.93315e-06,-4.67568e-05,-4.39196e-05,2.87023e-05,7.55661e-05,-6.21575e-07,0
-3.95168e-05,1.49226e-05,5.06001e-06,-9.88242e-06,-6.71066e-05,-4.20132e-05,6.92888e-05,-9.47895e-07,0
-4.16161e-05,1.28543e-05,-2.82828e-07,6.49274e-06,-3.50678e-05,-9.04192e-05,3.94935e-05,-1.43188e-06,0
-3.71631e-05,9.86979e-06,-8.85242e-06,2.07368e-05,2.00851e-05,-9.99918e-05,1.32144e-05,-3.63741e-06,0
-3.31308e-05,9.48464e-06,-1.81887e-05,3.36643e-05,-2.23281e-06,-0.000102156,8.64641e-06,-5.71097e-06,0
-3.52389e-05,1.06648e-05,-2.50798e-05,4.08317e-05,-0.000102981,-0.000106199,1.86922e-05,-5.59678e-06,0
-3.8412e-05,1.07211e-05,-2.81536e-05,3.3323e-05,-0.000156652,-9.91267e-05,3.40431e-05,-3.74047e-06,0
-3.43418e-05,1.00854e-05,-2.78813e-05,7.55004e-06,-8.70541e-05,-7.38103e-05,4.97791e-05,-2.49108e-06,0
-1.79351e-05,1.33229e-05,-2.30909e-05,-1.33559e-05,5.77242e-05,-4.4813e-05,6.22863e-05,-3.4298e-06,0
4.30293e-06,2.15346e-05,-1.59635e-05,-4.26299e-05,0.000185605,-2.2386e-05,6.69377e-05,-3.627e-06,0
1.57282e-05,3.19805e-05,-9.7184e-06,-9.52263e-05,0.00024771,1.85168e-05,6.33035e-05,-2.35827e-06,0
1.33871e-05,3.97315e-05,-3.90974e-06,-0.000145757,0.000257293,5.99187e-05,5.27719e-05,-2.24251e-06,0
5.05801e-06,4.13335e-05,-1.71863e-06,-0.00014799,0.000227578,7.6008e-05,3.40098e-05,-3.97953e-06,0
-8.15995e-06,3.97633e-05,-4.72976e-06,-7.41196e-05,0.000148373,7.60023e-05,9.48885e-06,-5.56983e-06,0
-1.96402e-05,3.97562e-05,-8.38415e-06,-1.91366e-05,4.55527e-05,4.46527e-05,-9.24876e-06,-4.96509e-06,0
-2.79302e-05,3.87451e-05,-9.95914e-06,-5.51722e-05,-3.85661e-05,1.02154e-06,-1.19872e-05,-5.63582e-06,0
-3.98871e-05,3.28583e-05,-1.02242e-05,-9.20176e-05,-7.57167e-05,-3.24959e-05,-1.05344e-06,-6.83933e-06,0
-6.06798e-05,2.46503e-05,-9.40023e-06,-2.80317e-05,-7.32255e-05,-5.3367e-05,8.92519e-06,-6.24066e-06,0
-8.05875e-05,1.9313e-05,-2.37389e-07,0.000126429,-4.63415e-05,-5.91395e-05,9.53708e-06,-3.57244e-06,0
-8.68946e-05,1.85861e-05,2.38867e-05,0.000307778,-7.70674e-06,-4.40217e-05,4.95813e-06,-7.0179e-07,0
-7.87593e-05,1.95435e-05,5.60872e-05,0.000430233,3.3413e-05,-1.7539e-05,-5.67092e-07,-3.53197e-07,0
-5.55776e-05,1.99885e-05,8.18398e-05,0.000409855,6.48649e-05,3.43258e-06,-4.58515e-06,-2.41909e-06,0
-2.00303e-05,2.04534e-05,9.00558e-05,0.000262785,7.7925e-05,1.54612e-05,-5.25503e-06,-4.94376e-06,0
1.54732e-05,2.12177e-05,7.47434e-05,9.26069e-05,8.18468e-05,1.62805e-05,-6.52895e-06,-5.28815e-06,0
4.11248e-05,1.98509e-05,3.79086e-05,-1.53744e-05,7.15302e-05,1.42954e-05,-1.53055e-05,-4.2578e-06,0
5.409e-05,1.37715e-05,-9.98211e-06,-5.63848e-05,2.72167e-05,1.34868e-05,-2.88303e-05,-3.20317e-06,0
5.11878e-05,4.80617e-06,-5.44994e-05,-7.7239e-05,-3.26622e-05,4.20897e-06,-3.68169e-05,-2.51354e-06,0
3.88542e-05,8.36268e-07,-8.3827e-05,-0.00012011,-5.01303e-05,-1.49157e-05,-3.29522e-05,-1.92069e-06,0
2.55246e-05,3.08551e-06,-9.4428e-05,-0.000158843,-1.97484e-05,-2.65715e-05,-2.19891e-05,-2.69782e-06,0
1.09133e-05,7.04774e-06,-8.88935e-05,-0.000160534,1.83428e-05,-2.47088e-05,-1.15186e-05,-4.50275e-06,0
-5.89534e-06,1.40636e-05,-7.20622e-05,-0.000124248,3.84339e-05,-1.57669e-05,-7.69465e-06,-5.62655e-06,0
-2.40641e-05,2.41417e-05,-5.04239e-05,-3.60909e-05,3.96477e-05,-9.21401e-06,-1.2269e-05,-4.41148e-06,0
-4.62252e-05,2.97892e-05,-3.34081e-05,8.71395e-05,2.17243e-05,-1.22218e-05,-1.88855e-05,-2.70171e-06,0
-6.95053e-05,2.72258e-05,-2.33572e-05,0.000180794,-1.18545e-05,-2.49704e-05,-1.90785e-05,-1.92436e-06,0
-8.93118e-05,1.76932e-05,-1.64703e-05,0.000187771,-5.65529e-05,-4.01009e-05,-1.15181e-05,-9.95942e-07,0
-0.000107775,1.77629e-06,-1.13579e-05,0.00011673,-0.000100888,-4.83404e-05,7.34681e-07,-7.18615e-07,0
-0.000124089,-1.59474e-05,-7.27051e-06,5.61492e-05,-0.000114678,-4.57928e-05,1.60625e-05,-1.7484e-06,0
-0.000131441,-3.05621e-05,-3.80306e-06,4.27698e-05,-9.81053e-05,-3.33963e-05,3.40533e-05,-8.80885e-07,0
-0.000120773,-4.21873e-05,-5.96435e-07,3.14575e-05,-0.000117809,-7.42025e-06,5.26736e-05,-2.43493e-07,0
-9.60245e-05,-4.97212e-05,1.57061e-06,2.23351e-06,-0.000161696,2.85432e-05,6.60725e-05,-1.07817e-06,0
-8.19258e-05,-5.22022e-05,2.33329e-06,-3.21992e-05,-9.62022e-05,5.30296e-05,7.14404e-05,1.50911e-07,0
-8.56633e-05,-5.35618e-05,2.11957e-06,-7.34572e-05,0.000129954,5.20242e-05,6.96354e-05,1.79351e-06,0
-8.61699e-05,-5.38421e-05,-4.78163e-07,-0.000109692,0.000340339,3.29396e-05,6.20155e-05,3.83784e-06,0
-6.76262e-05,-4.85586e-05,-3.69433e-06,-0.000102647,0.00032113,5.7798e-06,5.10908e-05,6.23381e-06,0
-3.50156e-05,-3.7199e-05,-5.213e-06,-5.47664e-05,0.000100514,-2.51856e-05,3.95178e-05,8.18149e-06,0
-8.75472e-06,-2.443e-05,-7.83555e-06,-2.07126e-06,-0.000140988,-4.97406e-05,2.88134e-05,8.45712e-06,0
-7.07842e-07,-1.15501e-05,-1.09923e-05,2.92654e-05,-0.000254484,-5.81383e-05,1.94255e-05,7.51102e-06,0
1.20983e-06,3.75932e-06,-9.11647e-06,2.93238e-05,-0.000211451,-4.3088e-05,1.25954e-05,7.03452e-06,0
4.39361e-06,1.75138e-05,-3.43722e-06,5.41582e-06,-6.38143e-05,-1.80704e-05,7.6306e-06,7.9827e-06,0
-2.39779e-06,2.26511e-05,-1.19105e-06,-6.47531e-06,0.000137433,-1.41137e-05,1.31197e-06,8.18858e-06,0
-2.06501e-05,1.87845e-05,-4.89091e-06,1.64329e-05,0.000339698,-3.40345e-05,-6.37105e-06,6.44448e-06,0
-3.53987e-05,1.1586e-05,-1.04552e-05,4.61239e-05,0.000442792,-3.65545e-05,-1.1905e-05,4.99793e-06,0
-3.80359e-05,5.95921e-06,-1.47655e-05,4.91296e-05,0.000378473,8.04841e-06,-1.37929e-05,5.1915e-06,0
-3.62028e-05,3.47856e-06,-1.71017e-05,3.04991e-05,0.000191021,6.66326e-05,-1.56748e-05,6.70806e-06,0
-3.27213e-05,5.23284e-06,-1.65573e-05,8.24752e-07,-7.09162e-06,8.6705e-05,-2.01397e-05,7.63461e-06,0
-2.338e-05,1.18669e-05,-1.35626e-05,-4.38217e-05,-0.000141594,6.22764e-05,-2.47393e-05,9.52335e-06,0
-1.31782e-05,1.93841e-05,-9.9099e-06,-0.000119015,-0.000209572,1.44672e-05,-2.71875e-05,1.5553e-05,0
-9.85018e-06,2.15437e-05,-8.77059e-06,-0.000209287,-0.000199863,-3.57459e-05,-2.91615e-05,2.37532e-05,0
-1.0708e-05,1.98386e-05,-1.15641e-05,-0.000237052,-0.000142917,-7.26312e-05,-2.75974e-05,2.67325e-05,0
-1.05959e-05,1.98496e-05,-1.54269e-05,-0.000164255,-0.00011545,-9.89018e-05,-1.55432e-05,2.14467e-05,0
-8.46503e-06,2.02454e-05,-1.62822e-05,-5.02071e-05,-0.000135463,-0.000119137,2.93589e-06,1.33149e-05,0
-8.09518e-06,1.87311e-05,-1.5224e-05,2.81007e-05,-0.000167013,-0.000125761,1.64198e-05,7.04609e-06,0
-7.44664e-06,1.73571e-05,-1.73877e-05,6.10089e-05,-0.000183036,-0.000100435,2.1702e-05,2.72409e-06,0
-4.40431e-06,1.57303e-05,-2.40223e-05,4.14566e-05,-0.000152169,-6.93958e-05,1.71402e-05,-5.47689e-07,0
-1.52817e-06,1.58689e-05,-2.66876e-05,-5.04672e-05,-7.1796e-05,-3.97694e-05,8.53599e-06,-2.52348e-06,0
3.06998e-07,1.73361e-05,-2.14793e-05,-0.000159231,2.33798e-05,2.86802e-05,6.72563e-06,-3.88768e-06,0
-5.44463e-06,1.73077e-05,-1.53101e-05,-0.000247151,0.000126146,7.70287e-05,6.22099e-06,-4.94023e-06,0
-1.74609e-05,1.78949e-05,-1.09008e-05,-0.000301831,0.000207127,5.7285e-05,-2.80103e-07,-6.65257e-06,0
-2.88656e-05,1.86193e-05,-9.26527e-06,-0.000267751,0.00021005,1.41992e-05,-6.00653e-06,-1.00749e-05,0
-3.85942e-05,1.83043e-05,-1.14547e-05,-9.69236e-05,0.000183183,-1.23677e-05,-4.17372e-07,-1.24906e-05,0
-5.17863e-05,1.53261e-05,-1.29628e-05,0.000145752,0.000173637,-1.61164e-05,1.59225e-05,-1.35332e-05,0
-7.38411e-05,1.10919e-05,-9.54358e-06,0.00031077,0.000113259,-1.64224e-05,3.33822e-05,-1.35902e-05,0
-9.57431e-05,6.39474e-06,-1.73264e-06,0.00031693,-1.02747e-05,-2.18913e-05,4.22495e-05,-1.23888e-05,0
-0.000102749,5.46698e-07,8.2282e-06,0.000208721,-0.000108439,-2.97889e-05,4.11541e-05,-1.05142e-05,0
-9.06049e-05,-6.31253e-06,1.66951e-05,0.00011242,-0.00011653,-2.58417e-05,3.70064e-05,-8.72889e-06,0
-6.26891e-05,-1.15721e-05,1.97595e-05,8.188e-05,-6.47041e-05,-9.10203e-06,3.62375e-05,-5.92054e-06,0
-2.57576e-05,-1.22145e-05,1.67591e-05,5.91914e-05,-3.04406e-05,1.52779e-05,3.22574e-05,-1.24753e-06,0
7.16888e-06,-8.75447e-06,1.01647e-05,1.2809e-05,-4.10257e-05,4.24499e-05,3.81375e-06,3.74738e-06,0
2.28037e-05,-2.59618e-06,3.28491e-06,-1.48981e-05,-6.25323e-05,5.09463e-05,-4.63445e-05,6.75997e-06,0
1.7514e-05,4.51929e-06,-1.08506e-06,-8.78582e-06,-6.74389e-05,2.7604e-05,-7.48017e-05,6.04777e-06,0
-1.21706e-06,1.12788e-05,-2.38694e-06,7.80875e-06,-6.01603e-05,-8.27834e-06,-5.26726e-05,4.03533e-06,0
-1.9801e-05,1.51687e-05,-2.77541e-06,2.89278e-05,-6.40703e-05,-2.97745e-05,2.22458e-07,2.20412e-06,0
-3.0996e-05,1.55347e-05,-4.89813e-06,4.46977e-05,-9.8054e-05,-3.55232e-05,4.63912e-05,-3.26144e-07,0
-2.85934e-05,1.35138e-05,-8.07663e-06,2.47123e-05,-0.000145447,-3.19476e-05,6.86753e-05,-3.9345e-06,0
-5.73447e-06,1.1418e-05,-9.44649e-06,-2.85989e-05,-0.000168884,-2.49973e-05,7.21369e-05,-5.08214e-06,0
2.28637e-05,1.08213e-05,-8.61246e-06,-8.08311e-05,-0.00014701,-2.61177e-05,6.78521e-05,-1.63734e-06,0
2.57185e-05,1.26193e-05,-5.30446e-06,-0.000114498,-6.08283e-05,-4.22401e-05,5.84943e-05,1.77822e-06,0
5.02071e-06,1.58547e-05,-5.84742e-07,-0.000102268,8.84504e-05,-4.52826e-05,3.73777e-05,1.63105e-06,0
-6.206e-06,1.98313e-05,2.6258e-06,-1.26231e-05,0.000202202,-2.42856e-06,8.24773e-06,5.95143e-07,0
4.76529e-07,2.56003e-05,2.44239e-06,9.16338e-05,0.000171946,5.3224e-05,-9.2839e-06,2.06541e-06,0
1.93413e-05,3.365e-05,-1.16941e-06,0.000111018,3.02369e-05,6.87985e-05,-6.2653e-06,3.81069e-06,0
3.14925e-05,4.08565e-05,-5.37913e-06,4.30477e-05,-6.12579e-05,4.34439e-05,6.7202e-06,4.03294e-06,0
1.98468e-05,4.41387e-05,-9.66503e-06,-3.98963e-05,-4.91805e-05,-3.37852e-06,1.84683e-05,4.14487e-06,0
4.15268e-06,4.27276e-05,-1.47252e-05,-8.97272e-05,-8.94621e-06,-2.84039e-05,2.03977e-05,3.98225e-06,0
-3.60891e-06,3.80142e-05,-1.85019e-05,-8.75291e-05,2.96716e-05,1.42273e-06,1.71734e-05,3.33469e-06,0
-1.41939e-05,3.38382e-05,-2.05415e-05,-2.82725e-05,6.20229e-05,3.93985e-05,1.59497e-05,3.39195e-06,0
-3.21524e-05,3.15142e-05,-2.0712e-05,4.40772e-05,8.14223e-05,3.04765e-05,1.68133e-05,2.93273e-06,0
-5.41862e-05,2.77068e-05,-1.78672e-05,9.76358e-05,6.93747e-05,-1.03631e-05,1.91324e-05,9.89702e-07,0
-7.64698e-05,1.93093e-05,-1.1566e-05,0.000126977,3.45515e-05,-4.47942e-05,1.1534e-05,-6.61621e-07,0
-8.98443e-05,1.0925e-05,-3.68624e-06,0.000153653,-3.46752e-05,-5.80709e-05,-4.08198e-05,-2.10427e-06,0
-8.81782e-05,7.37997e-06,2.01364e-06,0.000207231,-0.000104041,-5.64892e-05,-0.000131434,-2.9029e-06,0
-7.63908e-05,9.04512e-06,2.17292e-06,0.000236865,-7.94225e-05,-4.89216e-05,-0.000178738,-2.16706e-06,0
-6.32722e-05,1.3053e-05,-1.16173e-06,0.000178452,6.02462e-05,-4.15029e-05,-0.000135943,-1.21942e-06,0
-5.3395e-05,1.68689e-05,-4.51526e-06,7.8021e-05,0.000216188,-3.59371e-05,-3.5748e-05,-1.46725e-06,0
-4.69335e-05,1.86163e-05,-8.04593e-06,2.62888e-05,0.000269428,-2.80085e-05,6.10679e-05,-2.33744e-06,0
-4.20456e-05,1.81527e-05,-9.73047e-06,8.61387e-05,0.000217082,-1.30936e-05,0.000118832,-1.93837e-06,0
-3.59096e-05,1.74486e-05,-8.33686e-06,0.000242176,0.000129091,7.18154e-06,0.000132593,-9.81602e-07,0
-3.00689e-05,1.81699e-05,-5.00158e-06,0.000349977,6.88542e-05,2.36246e-05,0.000111389,-5.15083e-07,0
-2.708e-05,1.97959e-05,-1.98641e-06,0.000252608,4.42052e-05,3.5569e-05,5.17333e-05,-7.19287e-07,0
-2.73837e-05,2.06313e-05,1.70315e-06,-3.60307e-05,3.83788e-05,4.07884e-05,-4.19016e-05,-1.29253e-06,0
-2.80962e-05,2.2412e-05,8.3172e-06,-0.000383817,2.75531e-05,3.33128e-05,-0.000106983,-1.2752e-06,0
-2.50955e-05,2.82981e-05,1.78688e-05,-0.000652226,2.05353e-05,1.70728e-05,-8.74357e-05,-1.01221e-06,0
-1.74021e-05,3.58182e-05,2.49723e-05,-0.000721646,3.20063e-05,3.14154e-06,-1.25478e-05,-1.71696e-06,0
-1.18053e-05,3.8753e-05,2.23828e-05,-0.000588445,4.45984e-05,-1.05843e-05,4.79686e-05,-2.61388e-06,0
-1.3179e-05,3.5474e-05,1.33808e-05,-0.00035496,3.73818e-05,-2.56503e-05,8.01326e-05,-2.51113e-06,0
-1.80735e-05,3.00159e-05,6.8568e-06,-0.000136072,1.79164e-05,-3.34077e-05,0.000114435,-3.20266e-06,0
-2.2053e-05,2.82644e-05,7.03598e-06,-2.06269e-05,1.88377e-05,-3.50486e-05,0.00014885,-4.2234e-06,0
-2.4182e-05,2.92707e-05,6.98381e-06,-4.04852e-05,2.65387e-05,-3.92449e-05,0.000161399,-3.9058e-06,0
-2.49921e-05,2.91915e-05,4.75149e-06,-9.84149e-05,-1.55395e-05,-4.19433e-05,0.000146838,-3.95116e-06,0
-2.58842e-05,2.63994e-05,2.94483e-06,-0.00010527,-7.63068e-05,-4.13753e-05,0.000117238,-3.20201e-06,0
-2.76755e-05,2.19453e-05,-3.28993e-06,-8.706e-05,-0.000103429,-3.65502e-05,8.23472e-05,-1.68631e-06,0
-2.62525e-05,1.97915e-05,-1.26227e-05,-7.33251e-05,-9.36207e-05,-2.85311e-05,3.72654e-05,1.51155e-06,0
-1.61033e-05,2.20458e-05,-1.96296e-05,-4.96092e-05,-5.02204e-05,-2.83379e-05,-1.71036e-05,4.84616e-06,0
2.53493e-07,2.56505e-05,-2.07453e-05,4.08321e-07,2.04676e-06,-4.14281e-05,-4.12476e-05,4.54124e-06,0
1.03375e-05,2.63426e-05,-1.77067e-05,4.744e-05,3.11954e-05,-6.51296e-05,4.43263e-06,3.27885e-06,0
8.31551e-06,2.41983e-05,-1.38676e-05,5.54082e-05,7.15925e-06,-5.4435e-05,9.24286e-05,3.74131e-06,0
-3.72696e-07,2.09072e-05,-1.17639e-05,2.09038e-05,-2.99705e-05,1.16093e-05,0.00016309,6.97724e-06,0
-9.61212e-06,1.80274e-05,-1.41548e-05,-2.0056e-05,-8.00626e-06,6.95739e-05,0.000172922,9.33684e-06,0
-2.04034e-05,1.57315e-05,-1.73959e-05,-3.51271e-05,6.75334e-05,7.42427e-05,0.000120045,1.04282e-05,0
-3.65035e-05,1.37276e-05,-1.66881e-05,-2.45165e-05,9.13614e-05,4.4686e-05,2.94316e-05,1.02755e-05,0
-5.58349e-05,1.13791e-05,-1.48464e-05,5.87179e-07,7.59094e-05,2.46709e-05,-6.29092e-05,9.73631e-06,0
-7.59508e-05,4.33495e-06,-1.75649e-05,3.08329e-05,0.000176084,2.48709e-05,-0.000119799,1.02689e-05,0
-9.72407e-05,-9.52206e-06,-2.33129e-05,6.21792e-05,0.000392078,1.19956e-05,-0.000126231,1.17586e-05,0
-0.000114758,-2.62264e-05,-2.61927e-05,9.83529e-05,0.000502205,-2.84632e-05,-0.000101628,1.26221e-05,0
-0.000117813,-4.12037e-05,-2.34281e-05,0.000142348,0.000353454,-6.40411e-05,-7.6155e-05,1.11181e-05,0
-0.000107098,-5.19967e-05,-1.75927e-05,0.000182089,7.84725e-05,-6.11306e-05,-5.74553e-05,8.44383e-06,0
-9.91559e-05,-5.64997e-05,-1.37021e-05,0.000200845,-8.95267e-05,-3.68283e-05,-3.81578e-05,4.97122e-06,0
-0.000101322,-5.22229e-05,-1.42862e-05,0.00017763,-0.0001048,-2.8044e-05,-1.64965e-05,1.69288e-06,0
-9.55159e-05,-3.65461e-05,-1.80897e-05,9.57006e-05,-0.000104661,-2.5431e-05,-3.68125e-06,-1.33008e-06,0
-6.81508e-05,-1.37089e-05,-2.38534e-05,-2.38655e-05,-0.000136273,6.39002e-08,-2.49974e-06,-2.45411e-06,0
-3.36986e-05,2.54753e-06,-2.96826e-05,-0.000129126,-0.000138591,2.46055e-05,-5.52774e-06,-4.75498e-07,0
-1.43811e-05,6.7778e-06,-3.26677e-05,-0.000180084,-9.31066e-05,2.80076e-05,-7.21837e-06,3.62327e-06,0
-1.32463e-05,7.91544e-06,-3.00297e-05,-0.000179138,-2.35739e-05,2.55856e-05,-5.25494e-06,6.40875e-06,0
-1.78988e-05,1.24822e-05,-2.3645e-05,-0.00013457,2.40334e-06,2.54496e-05,-5.1422e-06,6.95396e-06,0
-2.42393e-05,1.8097e-05,-1.78245e-05,-1.4281e-05,-2.9902e-05,2.50443e-05,-1.91408e-05,5.46047e-06,0
-3.31402e-05,2.05076e-05,-1.39601e-05,0.000112156,-6.27438e-05,1.70123e-05,-3.78826e-05,3.94037e-06,0
-4.46119e-05,2.07724e-05,-9.76619e-06,0.00014675,-8.96285e-05,4.60186e-06,-4.21813e-05,4.47972e-06,0
-5.29498e-05,2.08602e-05,-5.70283e-06,0.000122177,-0.000113229,-4.78931e-06,-3.2098e-05,5.66253e-06,0
-5.29731e-05,1.79598e-05,-5.41234e-06,8.5441e-05,-0.000134366,-5.09981e-06,-1.8674e-05,6.61926e-06,0
-4.60079e-05,1.46695e-05,-6.49077e-06,7.1999e-05,-0.000141018,2.96653e-06,-9.19587e-06,7.60875e-06,0
-2.82766e-05,1.42174e-05,-9.49329e-06,5.8734e-05,-0.000115901,5.15635e-06,-1.57551e-06,7.93508e-06,0
-2.24919e-06,1.54018e-05,-1.31945e-05,2.27683e-05,-6.98373e-05,-4.62424e-06,5.38494e-06,7.64492e-06,0
1.16175e-05,1.51383e-05,-1.42663e-05,4.94546e-06,-1.77416e-05,-2.6444e-05,1.13545e-05,7.95433e-06,0
2.67325e-06,1.28497e-05,-1.35428e-05,3.88482e-05,2.30332e-05,-5.41031e-05,1.82004e-05,8.51395e-06,0
-1.15003e-05,1.25285e-05,-1.16629e-05,0.000139585,3.57002e-05,-7.12753e-05,2.51916e-05,7.96459e-06,0
-1.65512e-05,1.60424e-05,-7.88986e-06,0.000269614,2.56281e-05,-7.43055e-05,2.10056e-05,8.05836e-06,0
-1.5665e-05,2.15266e-05,-3.98654e-06,0.000328626,4.82647e-06,-7.22307e-05,-1.73348e-06,9.96269e-06,0
-1.91215e-05,2.36852e-05,-6.15717e-06,0.000270379,-3.20708e-05,-6.6748e-05,-2.85599e-05,1.10039e-05,0
-3.06424e-05,1.97594e-05,-1.50526e-05,0.000173714,-8.38782e-05,-4.12002e-05,-3.82408e-05,1.15421e-05,0
-4.41753e-05,1.28095e-05,-2.27486e-05,0.000137138,-0.000116147,1.35181e-06,-2.4872e-05,1.15124e-05,0
-5.49717e-05,7.86317e-06,-2.02551e-05,0.000151935,-8.49866e-05,2.45666e-05,1.0938e-07,1.01982e-05,0
-5.85757e-05,7.3747e-06,-8.6113e-06,0.000113256,6.61278e-06,2.20849e-05,2.29872e-05,8.42225e-06,0
-4.83541e-05,1.03144e-05,3.73315e-06,-2.49561e-05,0.000112389,2.36215e-05,3.771e-05,1.04247e-05,0
-2.7497e-05,1.28605e-05,1.19038e-05,-0.000181869,0.000177326,3.82864e-05,4.58479e-05,1.95616e-05,0
-1.00097e-05,1.43542e-05,1.73919e-05,-0.000257501,0.000176553,5.03813e-05,5.02224e-05,3.01985e-05,0
-3.27234e-06,1.6776e-05,1.92619e-05,-0.000260498,0.000123957,4.83438e-05,5.03807e-05,3.48348e-05,0
-4.37855e-06,1.99559e-05,1.42477e-05,-0.00025647,5.42095e-05,3.52577e-05,4.35673e-05,3.28079e-05,0
-6.42366e-06,2.16242e-05,4.56568e-06,-0.000251693,-1.82742e-05,1.9249e-05,3.20526e-05,2.11898e-05,0
-7.19239e-06,2.11723e-05,-4.61846e-06,-0.00019816,-6.69121e-05,2.62121e-06,2.5038e-05,-5.14279e-07,0
-1.05246e-05,1.94082e-05,-1.0279e-05,-7.99154e-05,-5.92749e-05,-2.05196e-05,2.69569e-05,-2.2797e-05,0
-1.37537e-05,1.68361e-05,-1.20058e-05,5.18088e-05,-2.62708e-05,-4.66898e-05,3.31924e-05,-3.74881e-05,0
-7.48997e-06,1.75306e-05,-1.04821e-05,0.00015622,-1.22432e-05,-4.3497e-05,3.70709e-05,-4.23472e-05,0
7.4896e-06,2.33052e-05,-7.93512e-06,0.000208346,-1.70096e-05,-9.77317e-06,3.26509e-05,-3.87117e-05,0
2.02089e-05,3.12634e-05,-5.32129e-06,0.000147148,-3.39834e-06,1.12272e-05,2.50078e-05,-3.274e-05,0
2.42251e-05,3.81566e-05,-6.39762e-06,-2.64431e-05,3.81318e-05,1.46911e-05,2.26393e-05,-2.73845e-05,0
1.92866e-05,4.44022e-05,-9.71122e-06,-0.000206425,8.55038e-05,1.82755e-05,2.45169e-05,-1.9512e-05,0
9.36367e-06,5.37111e-05,-9.55972e-06,-0.000280533,0.000136676,2.58895e-05,2.71512e-05,-1.09843e-05,0
1.87711e-06,6.2815e-05,-5.53215e-06,-0.00023551,0.000159196,3.42904e-05,2.81313e-05,-6.51089e-06,0
2.74741e-06,6.82802e-05,1.17844e-06,-0.000137349,0.000133516,3.70998e-05,2.86065e-05,-5.74283e-06,0
7.82824e-06,6.95855e-05,6.66368e-06,-3.60982e-05,8.69473e-05,3.05983e-05,2.85056e-05,-2.58485e-06,0
8.01628e-06,6.43433e-05,1.01986e-05,5.61268e-05,5.23688e-05,-7.5529e-07,2.85307e-05,3.2533e-06,0
-6.39028e-07,5.51669e-05,1.01694e-05,9.19832e-05,4.71187e-05,-6.23005e-05,2.73565e-05,8.44501e-06,0
-1.62862e-05,4.52038e-05,4.65868e-06,4.93188e-05,4.56949e-05,-0.000113962,2.36546e-05,1.16047e-05,0
-3.09536e-05,3.57491e-05,-3.09841e-06,-1.31978e-05,3.19583e-05,-0.000105293,2.16365e-05,1.1653e-05,0
-4.17215e-05,2.62571e-05,-9.48493e-06,-4.31282e-05,4.77306e-05,-5.80122e-05,2.43094e-05,8.33164e-06,0
-5.39582e-05,1.59247e-05,-1.51517e-05,-3.51334e-05,0.000105345,-3.86466e-05,2.91224e-05,3.66386e-06,0
-6.9398e-05,5.27902e-06,-2.20554e-05,-2.18079e-05,0.000134783,-6.15345e-05,3.11156e-05,5.74005e-07,0
-8.13032e-05,-5.14121e-06,-2.84838e-05,-1.95611e-05,0.000104474,-8.70106e-05,2.69806e-05,-4.38297e-07,0
-8.22701e-05,-1.46569e-05,-3.03105e-05,-2.35918e-05,4.17679e-05,-6.86426e-05,1.67039e-05,2.12486e-07,0
-7.32745e-05,-2.05204e-05,-2.46387e-05,-1.828e-05,-3.01006e-05,7.03729e-06,5.33478e-06,9.56204e-07,0
-6.48884e-05,-2.11909e-05,-1.46359e-05,-2.13881e-06,-8.99161e-05,8.09172e-05,-5.58318e-06,1.68691e-06,0
-6.61565e-05,-1.89453e-05,-5.12048e-06,2.80535e-05,-0.000111905,7.37902e-05,-2.33121e-05,2.9509e-06,0
-7.61768e-05,-1.4908e-05,2.4035e-06,6.60626e-05,-0.000106425,8.55211e-06,-4.83191e-05,4.09729e-06,0
-9.01028e-05,-1.01646e-05,1.08102e-05,8.85766e-05,-7.69612e-05,-4.1793e-05,-6.56708e-05,5.26214e-06,0
-0.00010427,-7.72739e-06,2.12004e-05,8.66815e-05,2.64207e-06,-5.84046e-05,-6.44623e-05,6.45364e-06,0
-0.000115505,-1.10971e-05,3.24339e-05,8.49102e-05,8.02977e-05,-5.84753e-05,-4.44062e-05,5.8456e-06,0
-0.000118736,-1.88366e-05,4.04122e-05,7.46272e-05,5.83351e-05,-5.70808e-05,-8.18566e-06,1.60497e-06,0
-0.000110887,-2.63795e-05,3.70864e-05,2.94632e-05,-6.27937e-05,-5.2612e-05,2.90443e-05,-2.74226e-06,0
-8.84571e-05,-3.0278e-05,1.6121e-05,-3.98187e-05,-0.000212889,-1.92689e-05,5.50061e-05,-2.95369e-06,0
-5.39742e-05,-2.8887e-05,-1.73171e-05,-7.46511e-05,-0.000285487,5.6438e-05,7.0345e-05,-1.0528e-06,0
-2.28751e-05,-2.14421e-05,-5.49061e-05,-3.70371e-05,-0.000243256,9.40268e-05,7.55211e-05,3.04961e-07,0
1.06281e-06,-1.20258e-05,-8.52436e-05,4.23337e-06,-0.000132019,5.9853e-05,7.34425e-05,-1.86689e-07,0
2.00152e-05,-4.70455e-06,-9.14912e-05,4.2308e-06,2.89308e-05,2.20427e-05,6.67621e-05,-5.1048e-07,0
2.99606e-05,2.78111e-06,-7.65542e-05,-2.12348e-05,0.000181689,7.56498e-06,5.8554e-05,-4.62324e-07,0
2.97132e-05,8.59907e-06,-5.58108e-05,-2.24349e-05,0.000253751,3.77475e-06,4.87389e-05,-1.92861e-06,0
1.614e-05,9.63909e-06,-4.14414e-05,1.25876e-05,0.000210186,-6.22479e-06,3.92034e-05,-4.52478e-06,0
-4.75392e-06,7.20193e-06,-3.12547e-05,2.79918e-05,0.000125352,-1.35021e-05,3.24372e-05,-5.63351e-06,0
-1.88876e-05,6.15082e-06,-2.00197e-05,4.90713e-06,0.000110681,-1.51425e-05,2.79821e-05,-4.1802e-06,0
-2.00641e-05,1.0602e-05,-9.4291e-06,-1.17979e-05,0.000180081,-1.46592e-05,2.37497e-05,-2.39988e-06,0
-1.49255e-05,1.77818e-05,-2.31424e-06,-1.28411e-06,0.000249223,-1.90874e-06,1.9815e-05,-2.53582e-06,0
-1.11974e-05,2.13242e-05,2.39492e-06,8.57259e-06,0.000229646,3.13503e-05,1.81565e-05,-4.18662e-06,0
-1.0538e-05,2.046e-05,7.67133e-06,3.78019e-07,0.000123392,6.26115e-05,1.55015e-05,-5.03601e-06,0
-1.19846e-05,1.97281e-05,1.15734e-05,-2.44028e-05,2.20783e-06,6.45708e-05,1.11006e-05,-4.67764e-06,0
-1.45493e-05,2.06218e-05,1.18962e-05,-5.64126e-05,-8.36106e-05,4.37053e-05,7.07581e-06,-2.69691e-06,0
-2.15297e-05,2.11577e-05,8.11817e-06,-8.04649e-05,-0.000143139,1.99741e-05,1.81088e-06,-1.35167e-06,0
-3.46225e-05,2.03753e-05,3.78884e-06,-7.86788e-05,-0.000180726,4.1814e-06,-9.84693e-06,-1.84806e-06,0
-4.80832e-05,1.89724e-05,1.14884e-06,-6.36794e-05,-0.000179694,-1.12288e-05,-2.37697e-05,-2.77621e-06,0
-5.47247e-05,1.74745e-05,-9.79787e-07,-7.18402e-05,-0.000146425,-2.79674e-05,-2.8484e-05,-2.52604e-06,0
-5.4619e-05,1.67636e-05,-4.43509e-06,-0.000100072,-0.000110952,-4.12127e-05,-2.12284e-05,-1.95069e-06,0
-4.79437e-05,1.8508e-05,-6.04232e-06,-9.23291e-05,-7.50737e-05,-5.43158e-05,-1.39787e-05,-2.45993e-06,0
-2.78357e-05,2.20224e-05,-4.55562e-06,-3.10927e-05,-5.06379e-05,-6.83274e-05,-1.56492e-05,-3.81256e-06,0
1.49145e-05,2.52861e-05,-2.17236e-06,3.09458e-05,-6.00059e-05,-5.24733e-05,-2.08076e-05,-3.73077e-06,0
6.0477e-05,2.69909e-05,1.15894e-07,4.56637e-05,-7.6593e-05,1.68083e-06,-2.08026e-05,-2.57592e-06,0
6.23791e-05,2.35818e-05,1.99328e-06,2.82996e-06,-5.36203e-05,3.53712e-05,-1.60769e-05,-3.00774e-06,0
2.22737e-05,1.38991e-05,1.3006e-06,-6.89782e-05,2.12324e-06,7.11812e-06,-1.21161e-05,-4.07399e-06,0
-2.2937e-05,2.10789e-06,-3.74626e-06,-0.000129371,4.48898e-05,-5.27914e-05,-1.03805e-05,-2.9291e-06,0
-4.69676e-05,-5.46331e-07,-8.44522e-06,-0.000156622,6.37201e-05,-8.06854e-05,-7.50153e-06,-1.39964e-06,0
-4.75806e-05,7.60121e-06,-7.93193e-06,-0.000143746,8.36786e-05,-5.56309e-05,-3.08239e-06,-1.37632e-06,0
-5.20324e-05,1.57171e-05,-4.28488e-06,-8.0474e-05,5.63587e-05,-3.80453e-05,1.78998e-06,-4.40086e-07,0
-6.27351e-05,1.74314e-05,-1.22173e-06,2.26561e-05,-4.74191e-05,-5.16511e-05,6.45227e-06,9.48127e-07,0
-6.64804e-05,1.30644e-05,1.72368e-07,0.000114107,-0.000135877,-7.34596e-05,8.7212e-06,2.68161e-06,0
-5.79652e-05,5.94005e-06,2.13491e-06,0.000129739,-0.000125594,-8.06964e-05,1.01553e-05,3.45789e-06,0
-3.47393e-05,-1.17551e-06,2.99047e-06,6.96958e-05,-2.18629e-05,-3.9922e-05,1.12237e-05,3.82036e-06,0
1.38553e-06,-1.88883e-06,1.14685e-07,4.48413e-05,9.91504e-05,3.66538e-05,1.1515e-05,4.05721e-06,0
3.20606e-05,3.70329e-06,-1.85353e-06,0.000122472,0.000204356,7.5299e-05,1.16562e-05,3.92144e-06,0
4.07162e-05,1.02099e-05,-1.5568e-06,0.000222087,0.000336224,4.90752e-05,1.35075e-05,4.03397e-06,0
3.42842e-05,1.28744e-05,-4.24454e-06,0.000200294,0.000498103,4.21078e-06,1.57126e-05,4.61113e-06,0
2.39408e-05,1.18199e-05,-1.19726e-05,3.87278e-05,0.000560932,-1.98323e-05,1.48382e-05,5.03761e-06,0
1.70551e-05,1.05501e-05,-2.03816e-05,-0.000136458,0.000396721,-1.77242e-05,1.12384e-05,5.24612e-06,0
1.01499e-05,1.03564e-05,-2.65542e-05,-0.000214741,4.44047e-05,-7.866e-06,8.66479e-06,5.27277e-06,0
-1.94058e-06,1.02779e-05,-2.8606e-05,-0.000187736,-0.000321994,-2.63439e-06,7.97321e-06,4.1557e-06,0
-1.86991e-05,1.05357e-05,-2.52828e-05,-0.000135757,-0.000537914,-7.54747e-06,7.02624e-06,1.52522e-06,0
-3.3224e-05,1.2766e-05,-1.43048e-05,-7.43865e-05,-0.000540468,-1.36242e-05,7.96024e-06,-1.39391e-06,0
-4.44755e-05,1.42948e-05,1.67349e-06,5.44607e-05,-0.000370401,-2.04491e-05,1.72681e-05,-1.4094e-06,0
-5.57641e-05,1.25016e-05,1.26207e-05,0.000234738,-0.000144707,-3.12884e-05,3.52668e-05,9.8215e-07,0
-6.77245e-05,9.87136e-06,1.44049e-05,0.000370283,3.61646e-05,-4.34901e-05,5.24165e-05,3.26831e-06,0
-7.32689e-05,1.11297e-05,1.28317e-05,0.000394365,0.000152412,-4.92221e-05,6.14029e-05,5.22226e-06,0
-7.09293e-05,1.39645e-05,1.01498e-05,0.000276856,0.000190261,-4.84264e-05,6.41513e-05,7.90936e-06,0
-6.67073e-05,1.21722e-05,5.80239e-06,7.10802e-05,0.000121521,-4.43196e-05,6.37281e-05,8.95168e-06,0
-6.18529e-05,6.26891e-06,1.441e-06,-0.000108461,2.81317e-05,-3.74895e-05,5.42357e-05,7.16177e-06,0
-5.67512e-05,3.6151e-06,-8.41592e-08,-0.000179449,3.16357e-05,-2.8684e-05,2.09058e-06,4.84465e-06,0
-5.20874e-05,4.79786e-06,2.7458e-06,-0.000127304,0.000108252,-1.08304e-05,-0.000107681,3.38975e-06,0
-4.93387e-05,5.90364e-06,5.18361e-06,-4.37684e-05,0.000150073,2.3917e-05,-0.000198903,1.39478e-06,0
-4.9834e-05,4.80768e-06,1.54041e-06,-4.48643e-05,9.99606e-05,3.30975e-05,-0.000179102,-8.52413e-07,0
-4.84133e-05,3.08571e-06,-5.85363e-06,-0.00013901,1.44558e-05,-5.51467e-07,-7.20291e-05,-1.7205e-06,0
-3.90714e-05,5.34754e-06,-1.26858e-05,-0.000225836,-2.79054e-05,-2.27245e-05,3.37537e-05,-1.25348e-06,0
-3.0205e-05,1.18144e-05,-1.74204e-05,-0.000246498,-2.54018e-05,-2.71607e-05,8.50715e-05,-2.25025e-07,0
-2.89225e-05,1.76583e-05,-1.75831e-05,-0.000183027,-9.22896e-06,-2.90468e-05,7.88045e-05,2.75416e-07,0
-3.0433e-05,1.98297e-05,-1.48593e-05,-7.33566e-05,-2.01575e-05,-1.95108e-05,5.18176e-05,-1.07424e-06,0
-3.18671e-05,2.07284e-05,-1.17808e-05,-7.1965e-06,-9.29046e-05,2.82627e-05,1.58521e-05,-1.6703e-06,0
-3.92503e-05,2.09502e-05,-1.18492e-05,5.42316e-06,-0.000227253,7.61847e-05,-9.47828e-06,-1.79986e-06,0
-4.94204e-05,1.7901e-05,-1.47953e-05,2.61695e-05,-0.000339611,7.13484e-05,3.70402e-06,-4.12215e-06,0
-5.26322e-05,1.53359e-05,-1.9165e-05,8.29519e-05,-0.000343407,3.7987e-05,4.7896e-05,-5.82221e-06,0
-5.00234e-05,1.61335e-05,-2.33732e-05,0.000125571,-0.000227327,1.54913e-05,9.62472e-05,-5.15311e-06,0
-4.72598e-05,1.86244e-05,-2.40566e-05,0.000110038,-7.51275e-05,6.81538e-06,0.000134303,-4.54433e-06,0
-4.41755e-05,2.2402e-05,-1.67989e-05,9.02441e-05,2.38211e-05,2.45734e-06,0.000160922,-5.56055e-06,0
-3.90791e-05,2.77782e-05,-1.52582e-06,0.000133858,7.75551e-05,1.71619e-05,0.000165265,-6.03949e-06,0
-3.43829e-05,3.3861e-05,1.06285e-05,0.000215028,0.000132121,4.87431e-05,0.00014581,-6.40256e-06,0
-3.50224e-05,3.60751e-05,1.11152e-05,0.000277052,0.000180738,5.84111e-05,0.000112783,-7.46671e-06,0
-4.38768e-05,3.20141e-05,2.13103e-06,0.000299707,0.000172069,1.42481e-05,8.17831e-05,-8.04183e-06,0
-5.52773e-05,2.45122e-05,-7.08499e-06,0.000276048,0.000124673,-5.15214e-05,5.55631e-05,-6.94248e-06,0
-5.92303e-05,1.77007e-05,-1.08062e-05,0.000220284,0.000117926,-9.18892e-05,3.4376e-05,-5.27288e-06,0
-5.58288e-05,1.28618e-05,-1.05558e-05,0.000171231,0.000152866,-0.00010285,1.98584e-05,-4.9895e-06,0
-5.50007e-05,1.04577e-05,-1.06509e-05,0.000126267,0.000137995,-0.000107873,9.09304e-06,-5.87432e-06,0
-6.00703e-05,9.35798e-06,-1.29483e-05,6.46873e-05,5.2469e-05,-0.000109973,-1.01877e-05,-5.57339e-06,0
-5.95318e-05,1.05391e-05,-1.65163e-05,-3.50082e-05,-4.64909e-05,-5.90801e-05,-3.93352e-05,-3.03125e-06,0
-4.18107e-05,1.72608e-05,-1.79831e-05,-0.000207248,-9.72144e-05,3.45007e-05,-6.40327e-05,-1.01256e-06,0
-2.38064e-05,2.67742e-05,-1.46661e-05,-0.000402737,-7.48132e-05,7.55014e-05,-7.23098e-05,-3.23505e-07,0
-2.44069e-05,3.02277e-05,-7.70356e-06,-0.000476705,-1.11314e-05,5.21804e-05,-6.47717e-05,5.40908e-07,0
-3.267e-05,2.63396e-05,-4.30138e-06,-0.000429353,7.57854e-05,1.11964e-05,-5.39225e-05,4.87933e-07,0
-3.31965e-05,2.14732e-05,-1.07679e-05,-0.000390418,0.000117889,-1.90115e-05,-6.44162e-05,5.01519e-07,0
-2.16794e-05,1.80885e-05,-2.12624e-05,-0.000354557,0.000109354,-3.25873e-05,-0.000122306,-1.1325e-07,0
-1.72064e-06,1.51517e-05,-2.39731e-05,-0.000261392,0.000171112,-3.32325e-05,-0.000214237,-9.5185e-07,0
1.38882e-05,1.51613e-05,-1.73625e-05,-0.000149626,0.000219663,-2.21757e-05,-0.000260409,-5.01436e-07,0
1.30309e-05,1.82813e-05,-1.19001e-05,-9.16234e-05,0.000140609,-1.40459e-05,-0.000203331,1.13676e-06,0
3.2456e-06,1.94403e-05,-1.35697e-05,-9.14132e-05,2.07407e-05,-7.77013e-06,-8.08328e-05,2.45047e-06,0
-4.84192e-06,1.70764e-05,-1.79467e-05,-9.23291e-05,-1.44308e-05,1.52057e-06,5.13366e-05,1.00275e-06,0
-8.92051e-06,1.57252e-05,-1.72082e-05,-5.81393e-05,4.25875e-05,1.47793e-05,0.000148571,-9.54606e-07,0
-1.11671e-05,1.74441e-05,-1.37653e-05,-2.95142e-05,0.000110587,2.27834e-05,0.000193147,-1.63234e-06,0
-1.33967e-05,1.90522e-05,-1.50471e-05,-5.14643e-05,0.000127129,2.11482e-05,0.000195158,-8.6425e-07,0
-1.63247e-05,1.87908e-05,-2.12525e-05,-8.43751e-05,9.54963e-05,1.21618e-05,0.000175037,-3.42209e-07,0
-2.17702e-05,1.61396e-05,-2.72127e-05,-8.28002e-05,7.89919e-05,-1.79025e-06,0.000147732,-4.81235e-07,0
-2.82387e-05,1.16174e-05,-2.97672e-05,-5.53411e-05,0.000100711,-1.65562e-05,0.000117466,-5.35119e-07,0
-3.37636e-05,5.56461e-06,-2.99993e-05,-3.35911e-05,0.000123163,-2.6001e-05,8.85731e-05,3.87614e-07,0
-3.54213e-05,1.52596e-06,-2.90248e-05,-1.98622e-05,9.92282e-05,-2.28125e-05,7.15193e-05,1.28461e-06,0
-3.46246e-05,1.57915e-06,-2.68296e-05,2.31839e-05,4.19552e-05,-7.33475e-06,7.76861e-05,5.04485e-07,0
-3.41768e-05,3.86525e-06,-2.03404e-05,0.000119953,-1.97369e-05,1.33779e-05,0.000105583,-4.28918e-07,0
-3.50367e-05,4.9513e-06,-9.00304e-06,0.000232523,-7.15161e-05,2.94695e-05,0.000145835,5.15547e-07,0
-3.66993e-05,4.43043e-06,2.0781e-06,0.00029064,-0.000113794,3.72917e-05,0.000187223,3.01581e-06,0
-3.86728e-05,3.97475e-06,7.95018e-06,0.000254805,-0.000132903,3.64452e-05,0.000212092,7.4506e-06,0
-4.049e-05,5.53155e-06,8.3484e-06,0.000136178,-9.91244e-05,2.16707e-05,0.000199936,1.45144e-05,0
-4.56881e-05,8.26664e-06,6.29236e-06,8.19584e-06,-4.56286e-05,-2.02595e-05,0.000141619,1.97048e-05,0
-5.17642e-05,8.15431e-06,2.70331e-06,-4.55367e-05,-4.53472e-05,-7.72292e-05,4.30313e-05,1.74879e-05,0
-4.52396e-05,4.23527e-06,-3.75802e-06,-4.13569e-05,-8.42317e-05,-9.54643e-05,-7.24238e-05,9.85162e-06,0
-2.36809e-05,-2.45129e-06,-1.1506e-05,-6.09176e-05,-0.000116378,-5.71403e-05,-0.000174985,2.02865e-06,0
-1.15171e-05,-1.07657e-05,-1.80532e-05,-9.73692e-05,-0.000135005,-2.52947e-05,-0.000227477,-3.22548e-06,0
-2.57808e-05,-1.77353e-05,-2.5114e-05,-8.4126e-05,-0.000123325,-3.51422e-05,-0.000217709,-5.40739e-06,0
-4.07208e-05,-1.96344e-05,-3.10823e-05,-3.64933e-05,-6.7368e-05,-5.85715e-05,-0.000175437,-4.32923e-06,0
-3.37415e-05,-1.64199e-05,-3.13644e-05,-1.90469e-06,1.25025e-06,-6.77262e-05,-0.000134213,-3.84708e-07,0
-1.36146e-05,-8.16609e-06,-2.52433e-05,5.23538e-05,6.35095e-05,-5.33005e-05,-0.000100361,6.12366e-07,0
-1.82885e-06,1.97235e-06,-1.52005e-05,0.000111557,0.000114733,-2.95224e-05,-6.67929e-05,-1.39965e-06,0
-5.38314e-06,9.04736e-06,-6.14805e-06,0.000145916,0.00010841,-1.33493e-05,-3.69523e-05,-2.77916e-06,0
-1.40506e-05,1.07036e-05,-2.18706e-06,0.000124709,4.32688e-05,-6.71823e-06,-1.73388e-05,-4.12073e-06,0
-1.87141e-05,9.15074e-06,-1.96307e-06,8.72027e-06,-4.97025e-05,-3.28436e-06,-3.15807e-06,-6.7977e-06,0
-1.69352e-05,8.05762e-06,1.11662e-06,-4.81001e-05,-0.000165117,1.72579e-06,9.32449e-06,-1.01509e-05,0
-1.67617e-05,8.26026e-06,4.12114e-06,1.38008e-05,-0.000245563,1.51923e-06,1.45932e-05,-1.15218e-05,0
-2.22019e-05,7.55173e-06,-1.78321e-06,7.31535e-05,-0.000164842,-8.6112e-06,1.18342e-05,-1.16741e-05,0
-3.06809e-05,4.04435e-06,-1.3257e-05,7.85251e-05,0.00014218,-1.89062e-05,5.71484e-06,-1.08467e-05,0
-3.5654e-05,1.38957e-07,-1.69246e-05,3.37816e-05,0.000559887,-1.80518e-05,2.70474e-06,-8.53191e-06,0
-3.57822e-05,-9.45654e-07,-5.7055e-06,3.54073e-05,0.000830486,-6.42146e-06,3.19585e-06,-5.10489e-06,0
-3.63008e-05,-5.02014e-08,1.37073e-05,0.000150008,0.000783307,6.23424e-06,5.42726e-06,-1.56026e-06,0
-3.7212e-05,9.61282e-07,2.78321e-05,0.000271404,0.000454801,1.24381e-05,6.50653e-06,1.22568e-06,0
-3.2577e-05,3.99117e-06,3.06004e-05,0.000261549,3.77427e-05,1.36692e-05,6.57053e-06,3.22194e-06,0
-1.83091e-05,9.89703e-06,2.86488e-05,0.000158184,-0.000243415,1.94363e-05,7.09163e-06,4.49691e-06,0
1.33573e-06,1.82209e-05,2.96205e-05,8.00332e-05,-0.000274153,3.21618e-05,8.14148e-06,4.91737e-06,0
2.05021e-05,2.72424e-05,3.29415e-05,4.27544e-05,-0.000165738,3.81889e-05,7.42134e-06,4.39022e-06,0
3.3337e-05,3.52019e-05,3.32418e-05,-2.48146e-05,-0.000116533,2.53124e-05,5.29094e-06,3.62034e-06,0
3.72875e-05,4.21644e-05,2.78282e-05,-0.000167389,-0.000160186,5.3224e-06,5.2113e-06,2.61456e-06,0
3.52222e-05,4.62067e-05,1.64471e-05,-0.000326045,-0.000214419,-1.04329e-06,8.42921e-06,2.49076e-06,0
2.74872e-05,4.53213e-05,4.21194e-06,-0.000404442,-0.000245344,1.38239e-06,1.22928e-05,2.71091e-06,0
2.86388e-06,4.22405e-05,-3.5728e-06,-0.000358757,-0.00026698,-7.43802e-06,1.27693e-05,1.58898e-06,0
-4.11106e-05,4.04606e-05,-5.56654e-06,-0.000233627,-0.000272136,-2.58946e-05,1.19841e-05,5.96302e-07,0
-8.54407e-05,3.99941e-05,-4.32585e-06,-9.59935e-05,-0.00023506,-3.40563e-05,1.20087e-05,1.62011e-06,0
-0.000106333,3.89577e-05,-5.04776e-06,1.72755e-05,-0.000165069,-3.40365e-05,1.47459e-05,3.94139e-06,0
-9.28458e-05,3.69112e-05,-6.94481e-06,8.64202e-05,-9.35952e-05,-4.75931e-05,1.93799e-05,5.71816e-06,0
-6.29123e-05,3.35051e-05,-7.45792e-06,0.000127014,-1.84755e-05,-4.7821e-05,1.90211e-05,6.44661e-06,0
-4.63983e-05,2.37638e-05,-9.16635e-06,0.000137222,4.45278e-05,-6.61355e-06,1.03041e-05,6.09014e-06,0
-5.09402e-05,4.73835e-06,-1.19367e-05,7.71614e-05,7.37406e-05,2.65272e-05,1.852e-06,5.54476e-06,0
-6.04141e-05,-1.70801e-05,-1.65895e-05,4.38974e-06,7.56285e-05,1.35811e-05,-5.35389e-06,6.2478e-06,0
-6.06655e-05,-3.25299e-05,-2.32524e-05,-1.05823e-05,7.29187e-05,-1.82311e-05,-2.15423e-05,7.03048e-06,0
-4.983e-05,-3.65843e-05,-2.73408e-05,2.19053e-05,7.56077e-05,-2.13892e-05,-3.27373e-05,7.72345e-06,0
-3.75429e-05,-3.01676e-05,-2.69736e-05,4.51883e-05,6.17137e-05,4.46518e-06,-1.67041e-05,7.82355e-06,0
-4.14711e-05,-2.05821e-05,-2.24981e-05,3.07883e-05,2.7627e-05,1.97315e-05,2.10788e-05,6.20715e-06,0
-5.46286e-05,-1.3251e-05,-1.6952e-05,2.93884e-06,1.6857e-07,1.32636e-05,5.9362e-05,5.17222e-06,0
-5.95458e-05,-7.89133e-06,-1.45269e-05,-1.96385e-05,-1.65125e-06,2.7674e-06,8.33506e-05,6.52114e-06,0
-5.26928e-05,-3.63674e-06,-1.62047e-05,-2.63395e-05,2.54125e-05,1.69517e-06,9.28092e-05,8.59082e-06,0
-4.42714e-05,-5.70208e-07,-1.74513e-05,-1.31622e-06,7.37016e-05,6.12164e-06,9.0555e-05,8.18093e-06,0
-4.38117e-05,1.00542e-07,-1.69163e-05,5.81624e-05,0.000113227,6.78424e-06,7.9632e-05,5.27778e-06,0
-4.73428e-05,-1.20692e-06,-1.67198e-05,0.000104884,9.85842e-05,-5.20229e-06,6.57457e-05,2.50079e-06,0
-4.81815e-05,-2.236e-06,-1.83408e-05,0.000109339,1.29174e-05,-3.26083e-05,5.10931e-05,4.93039e-07,0
-4.40592e-05,-1.12378e-06,-2.02771e-05,9.82618e-05,-0.000107505,-6.30278e-05,2.99369e-05,-1.74456e-06,0
-3.9205e-05,1.34097e-06,-1.90263e-05,9.68571e-05,-0.000210296,-7.54639e-05,1.33849e-06,-3.76721e-06,0
-3.68774e-05,2.40327e-06,-1.41804e-05,9.04151e-05,-0.000266552,-6.85389e-05,-2.03076e-05,-4.03858e-06,0
-3.92121e-05,-5.23629e-07,-1.10797e-05,7.49355e-05,-0.000258248,-6.01499e-05,-2.13904e-05,-2.52779e-06,0
-4.26696e-05,-8.15652e-06,-1.45828e-05,4.78127e-05,-0.000172383,-5.57553e-05,-4.83672e-06,-6.23715e-07,0
-4.35954e-05,-1.69815e-05,-2.05229e-05,-4.56733e-06,-4.27285e-05,-4.35548e-05,1.88039e-05,8.21291e-07,0
-4.07915e-05,-2.06502e-05,-2.18694e-05,-9.04796e-05,7.77037e-05,-2.0993e-05,3.74765e-05,6.14995e-07,0
-3.4971e-05,-1.35685e-05,-1.58493e-05,-0.000177366,0.000166883,1.12187e-06,3.21906e-05,1.82925e-07,0
-3.15656e-05,-1.35165e-06,-1.16611e-05,-0.000228846,0.000156902,1.2525e-05,9.73923e-06,1.13461e-06,0
-3.30217e-05,6.58221e-06,-1.73096e-05,-0.000264954,6.33762e-06,1.10203e-05,3.69431e-06,1.95511e-06,0
-3.74992e-05,8.65698e-06,-2.36086e-05,-0.000311407,-0.00014612,8.67942e-06,2.23454e-05,3.01639e-06,0
-4.94289e-05,9.5391e-06,-2.08569e-05,-0.000357096,-0.000101929,-6.72678e-07,3.92988e-05,3.19795e-06,0
-5.59318e-05,1.25449e-05,-1.3169e-05,-0.000338966,0.000125069,-2.43258e-05,4.35857e-05,7.35375e-07,0
-4.51598e-05,1.37917e-05,-9.41135e-06,-0.000225828,0.000315368,-4.12166e-05,4.15399e-05,-2.02418e-06,0
-2.71295e-05,1.19177e-05,-9.45298e-06,-3.46996e-05,0.000312726,-4.47545e-05,3.13157e-05,-3.08625e-06,0
-1.3387e-05,9.29667e-06,-8.80062e-06,0.000162951,0.000119103,-3.914e-05,1.55449e-05,-2.61733e-06,0
-9.34969e-06,7.8178e-06,-5.62847e-06,0.000258077,-0.000105723,-3.47047e-05,-5.82608e-06,-1.43815e-06,0
-1.72158e-05,7.46312e-06,-9.25531e-07,0.000243728,-0.00019717,-3.29138e-05,-2.43323e-05,-1.76556e-06,0
-3.51198e-05,5.72863e-06,1.94769e-07,0.000176001,-0.000177706,-1.53218e-05,-2.90359e-05,-2.76116e-06,0
-5.05512e-05,2.58786e-06,-3.94366e-06,9.59892e-05,-0.000152441,1.93213e-06,-1.92339e-05,-1.41848e-06,0
-5.54591e-05,1.74361e-06,-8.63112e-06,1.33563e-05,-0.000116514,8.0509e-06,-5.1918e-06,3.11024e-07,0
-4.98486e-05,2.16463e-06,-1.26845e-05,-7.32903e-05,-2.12164e-05,9.01357e-06,5.52501e-07,2.63904e-07,0
-3.42226e-05,-1.54571e-06,-1.84261e-05,-0.000107019,9.04178e-05,3.60807e-06,-4.32024e-07,-7.19721e-07,0
-3.1938e-06,-7.27175e-06,-2.455e-05,-4.22095e-05,0.000143106,8.62093e-06,1.73221e-06,-6.80296e-07,0
2.8887e-05,-6.03657e-06,-2.72735e-05,5.24272e-05,0.000130385,1.70242e-05,1.16399e-05,1.17451e-06,0
3.20588e-05,4.70467e-06,-2.41245e-05,9.39408e-05,0.000112028,1.10456e-05,2.26243e-05,3.49908e-06,0
4.48256e-06,1.90531e-05,-1.57442e-05,7.38083e-05,0.000147747,8.04157e-06,3.13443e-05,4.87058e-06,0
-2.15538e-05,3.37774e-05,-3.55323e-06,1.23008e-05,0.000236765,3.0493e-05,3.63358e-05,5.83712e-06,0
-2.97816e-05,4.71976e-05,9.3482e-06,-4.4289e-05,0.000297099,6.02581e-05,3.24084e-05,7.14508e-06,0
-2.94278e-05,5.61674e-05,1.79927e-05,-4.25299e-05,0.000274496,6.73393e-05,1.92344e-05,8.32651e-06,0
-2.05871e-05,5.98186e-05,1.94317e-05,1.32295e-05,0.000197529,4.88535e-05,9.17102e-06,8.13758e-06,0
-4.44725e-06,6.05947e-05,1.45592e-05,8.7717e-05,0.000129147,1.18825e-05,7.03124e-06,6.08026e-06,0
3.06814e-06,5.87477e-05,7.53284e-06,0.000159288,0.000127179,-3.1357e-05,6.18359e-06,4.98318e-06,0
-5.66398e-06,5.26229e-05,2.52684e-06,0.000176936,0.00015952,-5.14464e-05,2.49132e-06,8.32459e-06,0
-1.8432e-05,4.73842e-05,1.94071e-07,0.000106472,0.000129628,-3.85661e-05,-3.43562e-07,1.89951e-05,0
-2.32102e-05,4.47435e-05,-9.75255e-07,4.63934e-05,-3.24537e-06,-2.72214e-05,-1.69544e-06,2.91176e-05,0
-2.19295e-05,3.95164e-05,-7.41914e-06,0.000101889,-0.000199429,-2.77541e-05,-3.75817e-06,3.12313e-05,0
-2.56987e-05,2.94233e-05,-1.86634e-05,0.000208155,-0.000331746,-8.52833e-06,-9.40914e-06,2.58719e-05,0
-3.32658e-05,2.16522e-05,-2.26686e-05,0.000197023,-0.00029021,3.06e-05,-3.57231e-05,1.13542e-05,0
-3.59855e-05,2.02621e-05,-1.9337e-05,5.97565e-05,-9.82741e-05,5.69409e-05,-9.60544e-05,-9.60236e-06,0
-3.63781e-05,1.86447e-05,-1.48208e-05,1.52445e-05,0.000112269,5.48042e-05,-0.000172762,-3.03804e-05,0
-3.83433e-05,1.60847e-05,-9.72488e-06,7.97351e-05,0.000202904,3.2545e-05,-0.000195929,-4.2971e-05,0
-3.84036e-05,1.45278e-05,-1.312e-06,7.18994e-05,0.000166712,1.53859e-05,-0.000128222,-4.42601e-05,0
-3.40291e-05,1.56614e-05,6.75603e-06,-5.46506e-05,9.20513e-05,8.31254e-06,-2.37115e-05,-3.70811e-05,0
-2.87233e-05,1.69007e-05,6.82918e-06,-0.000193514,2.7713e-05,-1.5723e-06,5.41384e-05,-2.92103e-05,0
-2.59894e-05,1.71606e-05,6.21387e-07,-0.000237304,-8.75864e-07,-2.14276e-05,8.87292e-05,-2.38757e-05,0
-2.42219e-05,1.80871e-05,-6.77018e-06,-0.000205283,1.65857e-05,-4.5322e-05,0.000104016,-1.7733e-05,0
-2.34547e-05,1.89552e-05,-1.08234e-05,-0.000164458,4.81948e-05,-6.44178e-05,0.000115936,-9.72863e-06,0
-2.54906e-05,1.9026e-05,-1.3543e-05,-0.000140569,4.4108e-05,-7.15837e-05,0.000124247,-2.41904e-06,0
-2.7984e-05,1.7966e-05,-1.66912e-05,-0.000121885,-5.99858e-06,-5.57483e-05,0.000116232,1.25064e-06,0
-2.89016e-05,1.6068e-05,-1.99484e-05,-0.000103722,-6.03629e-05,-2.17813e-05,7.94643e-05,2.19147e-06,0
-2.98029e-05,1.27387e-05,-2.27833e-05,-0.000103247,-8.48818e-05,1.89845e-06,3.12067e-05,3.42654e-06,0
-3.04327e-05,1.09422e-05,-2.18273e-05,-0.00013868,-7.5651e-05,3.78597e-06,1.30736e-05,6.7534e-06,0
-2.91012e-05,1.32252e-05,-1.74949e-05,-0.000182218,-4.25092e-05,2.49393e-06,4.26998e-05,1.06506e-05,0
-2.48991e-05,1.80164e-05,-1.29005e-05,-0.000179954,1.281e-05,6.48046e-06,9.34042e-05,1.29444e-05,0
-1.53178e-05,2.14943e-05,-9.30759e-06,-0.000123389,7.89504e-05,4.98348e-06,0.00012883,1.15207e-05,0
4.19822e-06,2.4391e-05,-4.7165e-06,-6.05553e-05,0.00012592,-9.38175e-06,0.00013272,8.35352e-06,0
3.28822e-05,2.8536e-05,1.30887e-06,-4.49953e-06,0.000116625,-2.32901e-05,0.000115702,6.46056e-06,0
5.72472e-05,3.19364e-05,5.45837e-06,3.32762e-05,5.22006e-05,-2.6341e-05,9.03089e-05,6.36824e-06,0
6.38448e-05,3.25197e-05,3.51472e-06,-1.09509e-05,-2.28822e-05,-2.41827e-05,6.06376e-05,5.79452e-06,0
5.18907e-05,3.48365e-05,-2.8754e-06,-0.000108567,-7.17785e-05,-2.63939e-05,2.75063e-05,4.51716e-06,0
2.72175e-05,4.10214e-05,-5.45588e-06,-0.000145779,-9.74667e-05,-3.9116e-05,3.35327e-07,3.88429e-06,0
-2.79195e-06,4.61501e-05,4.88786e-06,-0.000109103,-0.000106128,-5.92925e-05,-1.19907e-05,3.77556e-06,0
-3.36125e-05,4.45488e-05,2.48296e-05,-5.64799e-05,-0.000106027,-6.68817e-05,-5.7935e-06,4.96846e-06,0
-6.49974e-05,3.61059e-05,4.51904e-05,1.82164e-05,-9.24029e-05,-5.2711e-05,1.19955e-05,7.30267e-06,0
-8.41426e-05,2.66216e-05,5.73179e-05,0.000151986,-6.23229e-05,-3.38227e-05,2.55232e-05,9.07487e-06,0
-8.23749e-05,1.70787e-05,5.03214e-05,0.000246535,-5.67017e-05,-1.93366e-05,2.22103e-05,8.91441e-06,0
-7.35395e-05,7.15203e-06,2.09893e-05,0.000215667,-6.80594e-05,-1.80224e-06,5.25278e-06,7.76903e-06,0
-7.67778e-05,-1.94978e-06,-1.86342e-05,0.000155256,-5.20848e-05,-1.28589e-06,-1.29634e-05,7.38732e-06,0
-9.92867e-05,-1.08841e-05,-4.98656e-05,0.00014205,6.40795e-06,-2.75412e-05,-2.45655e-05,7.30117e-06,0
-0.00012474,-1.95852e-05,-6.63521e-05,0.000144291,0.000122097,-4.32625e-05,-2.89063e-05,7.07121e-06,0
-0.00014183,-2.76694e-05,-7.12114e-05,0.00011342,0.000288708,-3.9604e-05,-3.05899e-05,7.88193e-06,0
-0.000149246,-3.4477e-05,-6.84356e-05,5.16997e-05,0.000378079,-4.25322e-05,-3.06807e-05,9.12827e-06,0
-0.000141898,-3.49127e-05,-5.84392e-05,-1.86052e-05,0.000278024,-6.12068e-05,-2.86202e-05,9.94467e-06,0
-0.000117607,-2.67689e-05,-4.43668e-05,-7.8566e-05,4.82726e-05,-7.65115e-05,-2.59632e-05,1.00781e-05,0
-8.14256e-05,-1.39338e-05,-3.28714e-05,-0.000117919,-0.000170076,-7.59786e-05,-2.32705e-05,8.75583e-06,0
-4.0733e-05,-3.77305e-06,-2.48938e-05,-0.000108223,-0.000257054,-4.97988e-05,-1.88736e-05,6.61955e-06,0
-8.90144e-06,-1.43367e-06,-1.82464e-05,-3.52677e-05,-0.000160612,1.72534e-05,-1.55503e-05,6.26636e-06,0
-8.06559e-06,-4.76889e-06,-1.25784e-05,6.26165e-05,5.37268e-05,9.42882e-05,-1.60673e-05,7.90244e-06,0
-4.45975e-05,-8.66345e-06,-9.94768e-06,0.000118441,0.000208462,0.000138049,-1.95647e-05,8.87168e-06,0
-9.04159e-05,-8.88065e-06,-1.03657e-05,0.000105334,0.000193799,0.000133813,-2.13004e-05,8.25152e-06,0
-0.000105195,-3.23804e-06,-9.17926e-06,6.63303e-05,6.57461e-05,9.39872e-05,-2.00039e-05,7.48239e-06,0
-7.98343e-05,7.39298e-06,-3.94412e-06,4.68075e-05,-6.61035e-05,4.77122e-05,-1.61211e-05,6.98434e-06,0
-4.09003e-05,1.81782e-05,1.16463e-06,5.72385e-05,-0.000156521,1.49625e-05,-9.37546e-06,6.5268e-06,0
-1.52742e-05,2.35887e-05,-2.91823e-08,7.21888e-05,-0.000219339,-3.21222e-06,-1.20857e-06,6.94856e-06,0
7.66835e-07,2.50795e-05,-5.53179e-06,5.03265e-05,-0.00025161,-1.47177e-05,2.85449e-06,8.0513e-06,0
2.10009e-05,2.71641e-05,-7.68522e-06,-6.33997e-06,-0.000222427,-1.96946e-05,2.79908e-07,7.54159e-06,0
4.55338e-05,3.05702e-05,-8.06375e-06,-6.21734e-05,-0.000142039,-1.59468e-05,-3.62469e-06,5.67328e-06,0
5.62925e-05,3.27057e-05,-1.00215e-05,-0.000159646,-3.80723e-05,-6.9583e-06,-3.41871e-06,4.2518e-06,0
4.4898e-05,3.20769e-05,-1.02653e-05,-0.000275407,0.000100732,-1.06735e-06,-4.20032e-08,3.90061e-06,0
2.67041e-05,3.11438e-05,-6.05427e-06,-0.000285812,0.000293945,1.88305e-06,4.49696e-06,4.72258e-06,0
1.27059e-05,2.94816e-05,-4.46589e-07,-0.000127018,0.000434277,2.52971e-06,9.166e-06,4.70995e-06,0
4.62065e-06,2.67409e-05,-2.00726e-06,0.000115023,0.000334412,1.19102e-06,1.26499e-05,3.99747e-06,0
-6.5016e-07,2.33645e-05,-8.27468e-06,0.000260018,7.59913e-05,-2.16155e-06,1.53497e-05,3.81299e-06,0
-5.37379e-06,1.94437e-05,-5.74635e-06,0.000284477,-0.000129695,-3.14601e-06,1.82292e-05,4.11313e-06,0
-6.86071e-06,1.87719e-05,6.06638e-06,0.000206531,-0.000220568,2.85645e-06,2.18914e-05,5.99706e-06,0
-5.68006e-06,2.0794e-05,1.31458e-05,-6.64898e-06,-0.000223519,1.04126e-05,2.5462e-05,8.12418e-06,0
-5.34712e-06,2.09205e-05,9.68241e-06,-0.000243981,-0.000186856,9.66131e-06,2.61661e-05,8.27491e-06,0
-6.21775e-06,1.85411e-05,4.31903e-06,-0.000331258,-8.81464e-05,5.29117e-06,2.14282e-05,5.74866e-06,0
-5.9845e-06,1.63799e-05,2.60846e-06,-0.000242105,6.58368e-05,7.02288e-06,1.60164e-05,3.05858e-06,0
-4.46583e-06,1.72562e-05,3.93792e-06,-6.78957e-05,0.000177538,1.09129e-05,1.62401e-05,1.35346e-06,0
-3.77341e-06,1.96542e-05,7.12896e-06,8.24685e-05,0.000175109,1.23227e-05,2.12192e-05,-5.04753e-07,0
-3.86053e-06,2.32464e-05,1.2563e-05,0.00014745,9.96232e-05,1.19994e-05,2.53262e-05,-1.51325e-06,0
-1.59099e-06,2.85725e-05,1.92256e-05,0.000139854,4.03887e-05,1.399e-05,2.69266e-05,-9.84819e-07,0
3.10202e-06,3.33015e-05,2.4995e-05,0.000100698,1.4977e-05,1.50445e-05,2.65492e-05,-7.49291e-07,0
3.60024e-06,3.42015e-05,2.4991e-05,5.60009e-05,-3.02944e-05,9.26138e-06,2.47787e-05,-1.47576e-06,0
-3.68201e-06,2.8929e-05,1.65328e-05,2.29194e-05,-0.000107715,-3.37813e-06,2.30113e-05,-1.42362e-06,0
-1.53011e-05,2.02436e-05,2.94511e-06,8.98425e-06,-0.000119423,-1.66349e-05,2.23208e-05,-8.21279e-07,0
-2.69003e-05,1.21404e-05,-1.14065e-05,-2.58444e-05,1.22011e-06,-2.66207e-05,2.18232e-05,-6.40717e-07,0
-3.81496e-05,7.79363e-06,-2.15184e-05,-9.67334e-05,0.000150725,-3.50873e-05,1.91934e-05,-1.55334e-06,0
-4.79405e-05,7.0055e-06,-2.35319e-05,-0.000135893,0.000149274,-4.53033e-05,1.09536e-05,-2.16395e-06,0
-5.40565e-05,6.69285e-06,-1.80904e-05,-6.29369e-05,-2.39372e-05,-5.27858e-05,-6.39056e-06,-1.36686e-06,0
-5.4501e-05,5.24174e-06,-1.06506e-05,6.30517e-05,-0.000202514,-4.738e-05,-2.44057e-05,2.30013e-07,0
-4.57395e-05,4.80296e-06,-4.81677e-06,0.000107031,-0.000214294,-2.94312e-05,-2.63834e-05,1.11027e-06,0
-2.60993e-05,6.95794e-06,-2.08794e-06,6.34556e-05,-7.00481e-05,-1.43317e-05,-1.22497e-05,8.91937e-07,0
-8.69719e-06,1.02253e-05,-2.57707e-06,2.01994e-06,7.49709e-05,-1.97403e-05,5.02959e-06,8.88702e-07,0
-9.88528e-06,1.07575e-05,-6.84338e-06,-4.16288e-05,0.000145409,-4.04124e-05,1.79613e-05,1.72846e-06,0
-2.60036e-05,8.93949e-06,-1.02053e-05,-8.06954e-05,0.000135787,-4.30996e-05,2.21563e-05,1.94308e-06,0
-4.22409e-05,9.12962e-06,-1.05392e-05,-0.000120127,6.04114e-05,-3.4644e-06,1.11961e-05,-9.65242e-07,0
-4.97354e-05,9.9756e-06,-1.15247e-05,-0.000108676,8.80838e-06,2.56433e-05,-1.09762e-05,-4.05241e-06,0
-5.05612e-05,9.73418e-06,-1.30245e-05,-4.66014e-05,-2.829e-05,-8.96486e-07,-2.02153e-05,-3.20892e-06,0
-4.76709e-05,7.89528e-06,-1.41921e-05,1.57367e-05,-0.00011363,-3.52969e-05,-9.88189e-06,2.5558e-07,0
-4.6513e-05,6.39626e-06,-1.77585e-05,3.60084e-05,-0.000237648,-4.72066e-05,8.06815e-06,3.7937e-06,0
-4.96641e-05,6.45737e-06,-2.0666e-05,9.91542e-05,-0.000305242,-3.66113e-05,3.05141e-05,5.97883e-06,0
-5.05829e-05,6.76701e-06,-1.41473e-05,0.000296285,-0.00020812,-1.70517e-05,5.59001e-05,6.83801e-06,0
-5.04608e-05,2.751e-06,-4.38389e-06,0.00048829,1.32051e-05,-1.33054e-05,7.76607e-05,6.85273e-06,0
-4.99112e-05,-7.46246e-06,-2.70133e-06,0.000516593,0.000223284,-2.94778e-05,7.52637e-05,6.79939e-06,0
-4.60404e-05,-1.88972e-05,-7.88007e-06,0.000381627,0.000285976,-4.68807e-05,1.38752e-05,5.88421e-06,0
-4.12921e-05,-2.95635e-05,-1.32594e-05,0.000151762,0.000232186,-5.16696e-05,-8.61912e-05,4.88748e-06,0
-3.97456e-05,-3.88728e-05,-1.65128e-05,-0.000135488,0.000184919,-4.50373e-05,-0.000130404,4.09186e-06,0
-3.86338e-05,-4.4272e-05,-1.59063e-05,-0.000397681,0.000174497,-2.59467e-05,-6.94258e-05,2.84725e-06,0
-3.06282e-05,-4.13765e-05,-1.11803e-05,-0.000502269,0.000154907,6.07049e-06,5.99263e-05,1.89956e-06,0
-2.21399e-05,-3.06463e-05,-9.46851e-06,-0.000388258,0.000130734,3.93398e-05,0.000192236,4.92494e-07,0
-2.90486e-05,-1.87622e-05,-1.49429e-05,-0.000156277,0.00013591,5.1566e-05,0.00028487,-1.41454e-06,0
-4.80397e-05,-1.19026e-05,-2.12589e-05,2.00957e-05,0.000144492,4.71845e-05,0.000319385,-4.47514e-06,0
-5.96361e-05,-8.75285e-06,-2.04297e-05,5.29963e-05,0.000119015,4.18591e-05,0.000290858,-8.37754e-06,0
-5.87979e-05,-5.73692e-06,-1.46682e-05,-6.79006e-06,5.85956e-05,3.44412e-05,0.000206019,-1.18471e-05,0
-5.27911e-05,-2.55063e-06,-1.20918e-05,-5.99631e-05,-5.75791e-06,1.18544e-05,8.41984e-05,-1.28988e-05,0
-4.18416e-05,1.01307e-06,-1.22918e-05,-6.0402e-05,-4.71027e-05,-1.69779e-05,-4.51589e-05,-1.17137e-05,0
-2.23284e-05,5.30727e-06,-7.93913e-06,-2.07665e-05,-4.87105e-05,-3.06037e-05,-0.000151133,-9.05683e-06,0
-2.54431e-06,8.22147e-06,-5.27491e-08,1.05268e-05,-2.56059e-05,-3.30771e-05,-0.000201638,-6.37378e-06,0
1.88392e-06,3.39202e-06,-8.41959e-08,1.18123e-05,-1.3862e-05,-3.92709e-05,-0.000191897,-6.28197e-06,0
-1.36168e-05,-6.38459e-06,-8.91746e-06,2.0646e-05,-3.15198e-05,-3.86818e-05,-0.000147428,-7.67146e-06,0
-3.51686e-05,-9.99968e-06,-1.50999e-05,0.000100125,-1.45058e-05,-2.60686e-05,-0.000100244,-7.08676e-06,0
