ch1,ch2,ch3,ch4,ch5,ch6,ch7,ch8,class
-2.60047e-05,8.91149e-06,-1.10417e-05,1.06757e-06,1.52136e-05,-9.86411e-06,1.028e-05,3.82952e-06,0
-2.67253e-05,1.24175e-05,-9.75022e-06,6.73062e-06,1.36038e-05,-9.2392e-06,1.01627e-05,3.64828e-06,0
-2.85867e-05,1.35785e-05,-8.32694e-06,1.21853e-05,1.2493e-05,-8.73725e-06,9.2532e-06,4.43149e-06,0
-3.03703e-05,1.18175e-05,-8.13938e-06,1.36224e-05,1.15951e-05,-9.95465e-06,9.07883e-06,5.06927e-06,0
-3.06665e-05,9.30241e-06,-8.70103e-06,1.0845e-05,1.12431e-05,-1.14743e-05,8.56199e-06,5.8766e-06,0
-3.06713e-05,7.65955e-06,-7.88494e-06,7.97824e-06,1.19755e-05,-1.19064e-05,6.37724e-06,7.17014e-06,0
-3.06746e-05,7.25297e-06,-6.21567e-06,7.65033e-06,1.35353e-05,-1.16971e-05,4.34504e-06,7.75699e-06,0
-3.06866e-05,8.42913e-06,-5.69954e-06,9.32153e-06,1.4704e-05,-1.11962e-05,4.17492e-06,7.64676e-06,0
-3.0579e-05,9.91231e-06,-6.69003e-06,9.75123e-06,1.53081e-05,-1.09188e-05,5.52649e-06,6.39534e-06,0
-3.09244e-05,1.0292e-05,-7.3956e-06,6.75722e-06,1.56552e-05,-1.18152e-05,6.44082e-06,4.55623e-06,0
-3.06247e-05,8.91067e-06,-7.42675e-06,2.64693e-06,1.53944e-05,-1.31713e-05,6.03442e-06,2.96871e-06,0
-2.96026e-05,7.23455e-06,-6.83522e-06,1.11404e-06,1.43528e-05,-1.23667e-05,5.37365e-06,2.5522e-06,0
-2.92058e-05,7.44156e-06,-5.93078e-06,1.74442e-06,1.4479e-05,-1.0567e-05,6.25384e-06,2.62365e-06,0
-2.89974e-05,9.32343e-06,-4.38133e-06,1.87877e-06,1.68171e-05,-9.67935e-06,7.72218e-06,3.17253e-06,0
-2.83432e-05,9.80532e-06,-3.67893e-06,7.97668e-07,1.7636e-05,-8.57816e-06,7.52008e-06,3.89036e-06,0
-2.7932e-05,8.66468e-06,-4.24091e-06,5.47391e-07,1.60365e-05,-7.0526e-06,6.20492e-06,4.97454e-06,0
-2.84836e-05,7.50994e-06,-5.08194e-06,2.32123e-06,1.57955e-05,-6.42851e-06,5.76387e-06,5.72248e-06,0
-2.91526e-05,5.77481e-06,-6.26478e-06,3.95537e-06,1.63755e-05,-6.5957e-06,5.25579e-06,5.1453e-06,0
-2.84803e-05,1.40616e-06,-6.88998e-06,5.61713e-06,1.59318e-05,-4.93559e-06,4.86698e-06,3.75427e-06,0
-2.71786e-05,-2.18044e-06,-6.21966e-06,7.73059e-06,1.50384e-05,-2.25979e-06,5.25018e-06,3.13454e-06,0
-2.70507e-05,-1.14836e-06,-5.60083e-06,7.12972e-06,1.50046e-05,-1.07414e-06,6.20761e-06,2.63887e-06,0
-2.75516e-05,9.13235e-07,-5.22218e-06,4.0806e-06,1.64195e-05,-2.73111e-06,6.65265e-06,3.10248e-06,0
-2.8596e-05,2.53249e-06,-4.91811e-06,2.20099e-06,1.61168e-05,-5.39558e-06,6.19897e-06,4.48163e-06,0
-2.9895e-05,3.80033e-06,-5.60553e-06,9.47959e-07,1.47814e-05,-6.08303e-06,8.00078e-06,4.53295e-06,0
-3.09591e-05,2.86867e-06,-8.43874e-06,-1.90676e-06,1.61643e-05,-5.76936e-06,1.12684e-05,5.74257e-06,0
-2.91799e-05,2.26235e-06,-1.0905e-05,-3.38743e-06,1.8648e-05,-4.04034e-06,1.30029e-05,7.45148e-06,0
-2.75437e-05,2.78073e-06,-1.03302e-05,-3.03326e-06,1.9875e-05,-2.05948e-06,1.31593e-05,6.93787e-06,0
-2.90505e-05,2.39398e-06,-8.10983e-06,-1.99021e-06,1.89821e-05,-7.02741e-07,1.23251e-05,5.59631e-06,0
-3.01638e-05,1.04618e-06,-5.46628e-06,-1.00764e-06,1.78653e-05,-3.91123e-07,1.19493e-05,4.77639e-06,0
-3.02883e-05,1.48876e-06,-3.70309e-06,-1.65098e-06,1.89971e-05,-1.61606e-06,1.15721e-05,4.89304e-06,0
-2.95627e-05,4.43154e-06,-2.98332e-06,-2.57408e-06,2.03374e-05,-2.84688e-06,9.24916e-06,5.80067e-06,0
-2.86608e-05,5.94579e-06,-2.43221e-06,-1.83004e-06,1.93146e-05,-2.67932e-06,3.45434e-06,6.03804e-06,0
-2.90217e-05,6.47582e-06,-4.44966e-07,1.08548e-06,1.74586e-05,-1.57809e-06,-6.10842e-06,5.21708e-06,0
-2.92661e-05,7.24019e-06,2.10026e-06,3.62577e-06,1.5712e-05,-2.01395e-06,-1.44784e-05,3.46125e-06,0
-2.74175e-05,8.17058e-06,3.04099e-06,3.30908e-06,1.33866e-05,-4.58483e-06,-1.73122e-05,2.32724e-06,0
-2.46048e-05,9.02164e-06,2.53193e-06,9.47115e-07,1.22581e-05,-6.1347e-06,-1.32612e-05,2.70741e-06,0
-2.27414e-05,1.0185e-05,2.09088e-06,-5.85431e-07,1.41256e-05,-4.72473e-06,-4.74439e-06,1.67988e-06,0
-2.30299e-05,1.15101e-05,2.77352e-06,-3.31023e-06,1.71082e-05,-2.80299e-06,4.33167e-06,-9.75698e-07,0
-2.46609e-05,1.24103e-05,4.25887e-06,-1.08779e-05,1.83209e-05,-1.6595e-06,1.225e-05,-1.76063e-06,0
-2.66841e-05,1.27249e-05,4.80488e-06,-1.92615e-05,1.71193e-05,-1.06811e-06,1.96347e-05,-8.47075e-07,0
-2.87974e-05,1.26153e-05,3.4923e-06,-2.32258e-05,1.43777e-05,-8.458e-07,2.65689e-05,-8.27067e-08,0
-2.97405e-05,1.17075e-05,2.02635e-07,-2.41549e-05,1.18751e-05,-1.45164e-06,3.18753e-05,1.1152e-06,0
-2.98389e-05,1.01644e-05,-3.98404e-06,-2.37691e-05,1.0607e-05,-2.33651e-06,3.47519e-05,2.53771e-06,0
-3.06216e-05,9.45275e-06,-6.01639e-06,-2.45694e-05,1.16692e-05,-3.07419e-06,3.57014e-05,3.09428e-06,0
-3.14775e-05,8.47235e-06,-4.95374e-06,-2.98147e-05,1.49536e-05,-3.0133e-06,3.61279e-05,2.55716e-06,0
-3.13789e-05,7.37697e-06,-3.11869e-06,-3.22411e-05,1.80119e-05,-2.26767e-06,3.59046e-05,2.16168e-06,0
-3.05113e-05,9.08597e-06,-2.48801e-06,-2.24538e-05,1.98441e-05,-2.63771e-06,3.44385e-05,2.15865e-06,0
-2.89363e-05,1.35171e-05,-2.6884e-06,-1.01259e-05,2.09691e-05,-3.61836e-06,3.0814e-05,1.60459e-06,0
-2.86543e-05,1.63209e-05,-3.23275e-06,-7.57909e-06,2.20897e-05,-4.16307e-06,2.78404e-05,-2.04398e-07,0
-2.96945e-05,1.70761e-05,-5.16432e-06,-1.62952e-05,2.29004e-05,-3.69625e-06,2.83696e-05,-1.53354e-06,0
-3.02058e-05,1.82748e-05,-6.52272e-06,-2.85042e-05,2.01025e-05,-4.42549e-06,3.04463e-05,-9.52726e-07,0
-2.99765e-05,2.13531e-05,-5.76237e-06,-3.37651e-05,1.58734e-05,-5.72712e-06,3.10362e-05,5.42983e-07,0
-2.84158e-05,2.46316e-05,-5.00439e-06,-3.66699e-05,1.44891e-05,-5.491e-06,3.00907e-05,2.10398e-06,0
-2.918e-05,2.38898e-05,-5.96897e-06,-4.03336e-05,1.41493e-05,-5.59163e-06,2.76017e-05,1.91219e-06,0
-3.09583e-05,1.80372e-05,-7.65809e-06,-3.82978e-05,1.27932e-05,-5.29561e-06,2.30991e-05,8.63842e-07,0
-3.02196e-05,9.40338e-06,-8.35228e-06,-2.30385e-05,1.27877e-05,-5.89997e-06,1.78315e-05,2.748e-07,0
-2.95945e-05,-8.06939e-07,-8.97976e-06,3.56906e-06,1.53093e-05,-7.52946e-06,1.27212e-05,-4.14756e-07,0
-2.99989e-05,-1.07828e-05,-1.01523e-05,2.96405e-05,1.81383e-05,-8.14213e-06,8.51689e-06,-1.06147e-06,0
-3.00701e-05,-1.71311e-05,-1.03591e-05,4.54566e-05,2.10788e-05,-7.70932e-06,5.3876e-06,-9.903e-07,0
-2.9097e-05,-1.85706e-05,-8.21379e-06,4.84464e-05,2.43973e-05,-6.55172e-06,2.91973e-06,-5.91381e-07,0
-2.87079e-05,-1.60552e-05,-6.26324e-06,4.18985e-05,2.55214e-05,-4.7263e-06,1.79183e-06,-1.25049e-06,0
-2.89229e-05,-1.02162e-05,-6.27472e-06,3.05852e-05,2.28146e-05,-3.79347e-06,8.77502e-07,-3.75769e-06,0
-2.90506e-05,-2.71697e-06,-6.89439e-06,2.00803e-05,2.0178e-05,-5.25823e-06,-9.15302e-07,-6.01058e-06,0
-2.98179e-05,3.18186e-06,-6.08092e-06,1.34546e-05,2.09169e-05,-6.92534e-06,-2.22913e-06,-5.93456e-06,0
-3.18135e-05,6.27582e-06,-4.51098e-06,1.17048e-05,2.35808e-05,-6.93998e-06,-1.57708e-06,-4.26991e-06,0
-3.29955e-05,7.18572e-06,-3.02026e-06,1.16485e-05,2.35619e-05,-6.0589e-06,1.95227e-07,-2.89092e-06,0
-3.19946e-05,7.56425e-06,-8.15868e-07,8.87029e-06,1.86207e-05,-5.78519e-06,1.39485e-06,-2.96247e-06,0
-3.03735e-05,8.44326e-06,5.53926e-07,3.28569e-06,1.21649e-05,-5.51036e-06,2.31683e-06,-3.37964e-06,0
-3.07618e-05,9.27343e-06,-1.78377e-06,-1.62078e-06,8.34213e-06,-4.61069e-06,3.13318e-06,-3.59833e-06,0
-3.28353e-05,9.79483e-06,-8.84829e-06,-4.95188e-06,6.63579e-06,-4.41288e-06,4.21823e-06,-3.88379e-06,0
-3.40601e-05,9.86203e-06,-1.7533e-05,-7.30336e-06,5.49274e-06,-6.26108e-06,4.35709e-06,-4.24128e-06,0
-3.43549e-05,9.06204e-06,-2.14794e-05,-7.33482e-06,6.36218e-06,-9.17978e-06,4.72814e-06,-4.45356e-06,0
-3.50608e-05,8.90511e-06,-1.97229e-05,-5.1389e-06,9.61847e-06,-1.14424e-05,7.19367e-06,-4.27288e-06,0
-3.62238e-05,1.03775e-05,-1.80291e-05,-1.60804e-06,1.42819e-05,-1.22143e-05,9.62134e-06,-4.09463e-06,0
-3.68768e-05,1.19191e-05,-1.61229e-05,1.99439e-06,1.84303e-05,-1.28726e-05,8.63898e-06,-3.68013e-06,0
-3.57374e-05,1.16512e-05,-1.31763e-05,4.41399e-06,1.98973e-05,-1.27008e-05,4.61568e-06,-2.31009e-06,0
-3.41069e-05,1.23071e-05,-1.16677e-05,4.23354e-06,2.13426e-05,-1.14388e-05,4.11638e-06,-1.81133e-06,0
-3.23188e-05,1.31639e-05,-1.15603e-05,3.50271e-06,2.13424e-05,-1.00076e-05,7.38356e-06,-3.15536e-06,0
-3.0453e-05,1.2995e-05,-1.37864e-05,5.52077e-06,1.7456e-05,-9.25569e-06,9.02518e-06,-4.66671e-06,0
-2.99922e-05,1.35207e-05,-1.56221e-05,8.21677e-06,1.34635e-05,-9.97121e-06,9.01506e-06,-5.1206e-06,0
-3.09306e-05,1.42508e-05,-1.46825e-05,1.08886e-05,1.17771e-05,-1.11922e-05,7.18246e-06,-4.76931e-06,0
-3.27181e-05,1.44874e-05,-1.34839e-05,1.35381e-05,1.03361e-05,-1.33544e-05,4.27735e-06,-3.40784e-06,0
-3.25034e-05,1.40667e-05,-1.20086e-05,1.26611e-05,9.08797e-06,-1.50127e-05,1.9659e-06,-2.66894e-06,0
-3.1645e-05,1.34894e-05,-1.08002e-05,9.20978e-06,1.00357e-05,-1.52341e-05,3.27629e-07,-3.13105e-06,0
-3.00811e-05,1.32784e-05,-9.46538e-06,5.45182e-06,1.00224e-05,-1.54811e-05,6.47808e-07,-4.2493e-06,0
-2.82166e-05,1.6275e-05,-7.83499e-06,1.21125e-06,8.67021e-06,-1.61268e-05,2.17534e-06,-5.03011e-06,0
-2.73513e-05,2.08597e-05,-6.21888e-06,-3.99565e-06,8.04097e-06,-1.63105e-05,3.33445e-06,-4.07038e-06,0
-2.7662e-05,2.42575e-05,-5.06452e-06,-1.05534e-05,8.23191e-06,-1.57041e-05,4.48181e-06,-2.70769e-06,0
-2.81116e-05,2.56297e-05,-4.62981e-06,-1.8174e-05,7.51568e-06,-1.54441e-05,4.84188e-06,-1.67835e-06,0
-2.91008e-05,2.61288e-05,-4.99279e-06,-2.36493e-05,6.29843e-06,-1.54485e-05,4.44398e-06,-1.13711e-06,0
-3.11834e-05,2.56413e-05,-6.0442e-06,-2.47198e-05,6.00369e-06,-1.54904e-05,5.1855e-06,-4.54803e-07,0
-3.24014e-05,2.32758e-05,-7.19738e-06,-2.32486e-05,6.41036e-06,-1.51192e-05,7.48971e-06,-1.03888e-07,0
-3.19964e-05,1.99488e-05,-8.92761e-06,-2.21067e-05,6.66873e-06,-1.36543e-05,1.06887e-05,5.4282e-07,0
-3.06313e-05,1.6561e-05,-1.17668e-05,-2.18195e-05,5.48282e-06,-1.25702e-05,1.32038e-05,1.16563e-06,0
-3.0489e-05,1.43304e-05,-1.53732e-05,-2.09878e-05,2.64347e-06,-1.30848e-05,1.44003e-05,1.17805e-06,0
-3.05885e-05,1.30007e-05,-1.77013e-05,-1.95926e-05,-4.81721e-07,-1.439e-05,1.4974e-05,9.64239e-07,0
-3.0525e-05,1.23906e-05,-1.82581e-05,-1.78106e-05,-1.59196e-06,-1.4346e-05,1.50275e-05,7.96531e-08,0
-3.06347e-05,1.17139e-05,-1.82469e-05,-1.5107e-05,-1.08936e-07,-1.29239e-05,1.3755e-05,-8.49309e-07,0
-3.0909e-05,9.49139e-06,-1.87486e-05,-1.20293e-05,3.06749e-06,-1.20195e-05,1.19175e-05,-1.13053e-06,0
-3.04686e-05,6.9112e-06,-1.9034e-05,-9.22401e-06,4.77719e-06,-1.2641e-05,1.18951e-05,-8.53509e-07,0
-2.9833e-05,9.98171e-06,-1.77599e-05,-5.88423e-06,3.60303e-06,-1.27589e-05,1.32161e-05,-5.21709e-07,0
-2.96154e-05,1.72951e-05,-1.45438e-05,-2.13836e-06,1.96799e-06,-1.14147e-05,1.38933e-05,-4.84596e-07,0
-3.05968e-05,2.30122e-05,-1.13003e-05,-7.65812e-07,1.34105e-06,-1.06994e-05,1.43709e-05,1.6642e-06,0
-3.08213e-05,2.53348e-05,-1.00806e-05,-3.16533e-06,1.20907e-06,-1.13018e-05,1.59357e-05,3.91491e-06,0
-3.01185e-05,2.42815e-05,-9.61587e-06,-2.21393e-06,1.91635e-06,-1.11012e-05,1.6869e-05,5.15309e-06,0
-2.88269e-05,2.14398e-05,-7.80075e-06,3.77166e-06,5.47602e-06,-1.07933e-05,1.72937e-05,7.10068e-06,0
-2.67784e-05,2.01501e-05,-7.05165e-06,1.13177e-05,1.22849e-05,-1.1468e-05,1.89535e-05,7.1594e-06,0
-2.60858e-05,2.11436e-05,-6.97579e-06,1.68191e-05,1.90707e-05,-1.20227e-05,1.83451e-05,6.58121e-06,0
-2.62304e-05,2.23482e-05,-7.48249e-06,1.51202e-05,2.134e-05,-1.34814e-05,1.54909e-05,4.51868e-06,0
-2.67858e-05,2.33344e-05,-8.08908e-06,8.43515e-06,1.8454e-05,-1.40916e-05,1.32169e-05,2.24984e-06,0
-2.73273e-05,2.21052e-05,-8.2822e-06,2.19731e-06,1.37217e-05,-1.28842e-05,1.30302e-05,2.45222e-06,0
-2.80002e-05,2.00731e-05,-8.72228e-06,-2.16962e-06,1.08171e-05,-1.18726e-05,1.56027e-05,5.36823e-06,0
-2.90686e-05,1.85125e-05,-9.02632e-06,-6.28849e-06,9.58227e-06,-1.23435e-05,1.92576e-05,8.60722e-06,0
-3.07078e-05,1.74452e-05,-8.96362e-06,-9.78582e-06,7.38068e-06,-1.43537e-05,2.11827e-05,1.0534e-05,0
-3.24841e-05,1.58374e-05,-7.81236e-06,-1.29533e-05,5.12029e-06,-1.65943e-05,2.05267e-05,1.19739e-05,0
-3.34054e-05,1.31986e-05,-6.61393e-06,-1.55384e-05,5.6808e-06,-1.80064e-05,1.88867e-05,1.34181e-05,0
-3.26079e-05,1.15846e-05,-5.50349e-06,-1.60109e-05,1.04407e-05,-1.75019e-05,1.78539e-05,1.45295e-05,0
-3.0714e-05,1.18384e-05,-4.85197e-06,-1.50977e-05,1.63396e-05,-1.56029e-05,1.78992e-05,1.39606e-05,0
-2.92896e-05,1.30421e-05,-4.05897e-06,-1.5789e-05,2.00154e-05,-1.42464e-05,1.75751e-05,1.22419e-05,0
-2.86784e-05,1.42018e-05,-3.69045e-06,-1.83371e-05,2.1437e-05,-1.48356e-05,1.69974e-05,9.99879e-06,0
-2.79395e-05,1.60075e-05,-4.2429e-06,-2.02205e-05,2.13107e-05,-1.72109e-05,1.59873e-05,8.57099e-06,0
-2.80033e-05,1.67742e-05,-4.9456e-06,-1.97376e-05,1.94334e-05,-1.89684e-05,1.38678e-05,7.75931e-06,0
-2.86437e-05,1.67095e-05,-3.35592e-06,-1.67307e-05,1.67844e-05,-1.78222e-05,1.21633e-05,6.28061e-06,0
-2.8419e-05,1.78239e-05,-2.30824e-06,-1.10992e-05,1.4995e-05,-1.5014e-05,1.31007e-05,4.05907e-06,0
-2.76575e-05,1.83621e-05,-3.34706e-06,-1.65211e-06,1.44418e-05,-1.29519e-05,1.54365e-05,2.04182e-06,0
-2.71367e-05,1.70422e-05,-3.59832e-06,7.97111e-06,1.38007e-05,-1.21905e-05,1.6213e-05,-7.81983e-07,0
-2.78356e-05,1.70266e-05,-2.99414e-06,1.34112e-05,1.17429e-05,-1.17375e-05,1.27481e-05,-2.53437e-06,0
-3.03605e-05,1.85205e-05,-3.08931e-06,1.60059e-05,9.79761e-06,-9.43921e-06,2.96279e-06,-2.63927e-06,0
-3.27861e-05,1.9758e-05,-3.86549e-06,1.54641e-05,1.02759e-05,-6.97883e-06,-9.30955e-06,-4.96752e-07,0
-3.20344e-05,1.98522e-05,-4.67768e-06,7.02855e-06,1.23149e-05,-5.84421e-06,-1.74491e-05,2.72403e-06,0
-2.85789e-05,1.69989e-05,-6.33449e-06,-3.41919e-06,1.30382e-05,-4.54613e-06,-1.82373e-05,9.86269e-07,0
-2.54459e-05,1.30589e-05,-7.92308e-06,-1.09778e-05,1.3486e-05,-2.61873e-06,-1.30202e-05,-3.76331e-06,0
-2.4879e-05,1.17383e-05,-9.0708e-06,-1.93398e-05,1.49881e-05,-9.00647e-07,-4.0408e-06,-4.91974e-06,0
-2.58113e-05,1.088e-05,-9.13736e-06,-2.65217e-05,1.68795e-05,-9.97071e-07,7.93359e-06,-3.22401e-06,0
-2.59256e-05,9.90836e-06,-8.47006e-06,-3.2647e-05,1.83557e-05,-2.69584e-06,1.96572e-05,-1.93326e-06,0
-2.4859e-05,8.80269e-06,-7.54562e-06,-3.79758e-05,1.73842e-05,-5.71676e-06,2.96527e-05,-1.20634e-06,0
-2.43554e-05,7.37556e-06,-7.07148e-06,-4.18163e-05,1.23773e-05,-8.97124e-06,3.63175e-05,-2.23198e-06,0
-2.56368e-05,6.42089e-06,-7.65343e-06,-4.16869e-05,7.63087e-06,-1.03273e-05,3.91139e-05,-4.27213e-06,0
-2.63913e-05,5.77659e-06,-8.17545e-06,-3.76303e-05,6.47875e-06,-1.09231e-05,4.0379e-05,-6.90035e-06,0
-2.56295e-05,6.81463e-06,-7.52269e-06,-3.02722e-05,8.19212e-06,-1.15568e-05,4.09489e-05,-9.07019e-06,0
-2.50065e-05,8.82798e-06,-6.61433e-06,-1.86785e-05,1.09293e-05,-1.17088e-05,3.96886e-05,-9.6348e-06,0
-2.5691e-05,1.03647e-05,-7.22681e-06,-6.25645e-06,1.26861e-05,-1.27017e-05,3.5839e-05,-8.97488e-06,0
-2.67382e-05,9.02529e-06,-9.34729e-06,1.81099e-06,1.38506e-05,-1.40082e-05,3.12274e-05,-7.07773e-06,0
-2.7538e-05,6.48975e-06,-1.102e-05,4.42717e-06,1.47613e-05,-1.45956e-05,2.6804e-05,-3.73935e-06,0
-2.88914e-05,4.47707e-06,-1.11348e-05,6.20274e-06,1.42184e-05,-1.49793e-05,2.36929e-05,-4.33466e-07,0
-3.0117e-05,2.4209e-06,-1.04683e-05,8.37571e-06,1.26056e-05,-1.51118e-05,2.19402e-05,7.67586e-08,0
-3.08086e-05,-4.17855e-07,-8.92272e-06,1.06101e-05,1.3433e-05,-1.41798e-05,2.05423e-05,-1.19414e-06,0
-3.09475e-05,-3.65503e-06,-7.037e-06,1.35844e-05,1.71803e-05,-1.35845e-05,1.81512e-05,-1.86558e-06,0
-3.0388e-05,-5.0942e-06,-6.12855e-06,1.64976e-05,2.13937e-05,-1.37596e-05,1.50905e-05,-6.78912e-07,0
-2.93432e-05,-3.40752e-06,-5.69116e-06,1.44281e-05,2.30436e-05,-1.35791e-05,1.19126e-05,1.18018e-06,0
-2.94863e-05,-6.4907e-07,-4.82334e-06,7.25457e-06,2.2481e-05,-1.33063e-05,7.97099e-06,7.78464e-07,0
-3.04218e-05,1.24242e-06,-4.00521e-06,-5.85268e-07,2.19749e-05,-1.19915e-05,4.85863e-06,-1.65826e-06,0
-2.99068e-05,3.34388e-06,-2.84876e-06,-6.8385e-06,2.08671e-05,-1.11876e-05,4.15698e-06,-2.81394e-06,0
-2.81294e-05,6.06005e-06,-1.65811e-06,-1.42337e-05,1.88704e-05,-1.13214e-05,3.82064e-06,-1.27797e-06,0
-2.71419e-05,9.00532e-06,-2.47285e-06,-2.26682e-05,1.75935e-05,-1.15989e-05,2.93537e-06,1.31945e-07,0
-2.87145e-05,1.37206e-05,-4.78872e-06,-2.77302e-05,1.6755e-05,-1.30546e-05,2.49557e-06,-2.03034e-06,0
-3.16217e-05,2.11624e-05,-7.28473e-06,-2.97792e-05,1.51396e-05,-1.5068e-05,4.44196e-06,-4.27641e-06,0
-3.30311e-05,2.68642e-05,-8.29579e-06,-3.06131e-05,1.29341e-05,-1.49124e-05,7.84673e-06,-2.55785e-06,0
-3.31792e-05,2.93385e-05,-7.13337e-06,-3.16562e-05,1.29029e-05,-1.38772e-05,9.66938e-06,-2.20226e-06,0
-3.26572e-05,2.91023e-05,-5.80304e-06,-3.38148e-05,1.68959e-05,-1.37735e-05,9.97118e-06,-2.74662e-06,0
-3.15805e-05,2.64028e-05,-6.40792e-06,-3.44953e-05,2.0398e-05,-1.28007e-05,8.68268e-06,-2.10526e-06,0
-3.22674e-05,2.36422e-05,-1.10703e-05,-3.05009e-05,1.96717e-05,-1.18876e-05,7.43592e-06,-1.84016e-06,0
-3.37096e-05,2.06823e-05,-1.69251e-05,-2.07818e-05,1.72833e-05,-1.18488e-05,7.64837e-06,-1.27218e-06,0
-3.46776e-05,1.80759e-05,-2.03695e-05,-7.56392e-06,1.66949e-05,-1.17483e-05,8.74677e-06,-1.32303e-06,0
-3.51461e-05,1.76473e-05,-2.08134e-05,4.30874e-06,1.6913e-05,-1.04642e-05,9.65998e-06,-3.43157e-07,0
-3.43006e-05,1.93747e-05,-1.85628e-05,1.31016e-05,1.67513e-05,-9.42619e-06,1.01777e-05,1.56532e-06,0
-3.33821e-05,2.14858e-05,-1.64829e-05,1.81456e-05,1.67939e-05,-8.45889e-06,1.03363e-05,3.60254e-06,0
-3.30597e-05,2.15079e-05,-1.46324e-05,2.09926e-05,1.72792e-05,-7.76913e-06,9.73873e-06,5.10516e-06,0
-3.25383e-05,2.01026e-05,-1.16591e-05,2.03172e-05,1.7405e-05,-8.36654e-06,9.37969e-06,5.56663e-06,0
-3.15364e-05,2.04653e-05,-8.09687e-06,1.60908e-05,1.71836e-05,-8.81261e-06,9.21716e-06,3.94615e-06,0
-3.10592e-05,2.31751e-05,-5.73855e-06,1.19818e-05,1.65688e-05,-7.42186e-06,8.14299e-06,2.0585e-06,0
-3.11098e-05,2.54003e-05,-5.08216e-06,1.04415e-05,1.49386e-05,-5.56925e-06,7.61256e-06,2.8295e-06,0
-3.12692e-05,2.47245e-05,-4.9903e-06,1.05943e-05,1.39501e-05,-6.07422e-06,9.44268e-06,4.85917e-06,0
-3.13874e-05,2.1656e-05,-5.88676e-06,7.55207e-06,1.43222e-05,-6.89606e-06,1.26028e-05,4.9016e-06,0
-3.19324e-05,1.84234e-05,-8.11077e-06,1.02709e-06,1.4928e-05,-5.66881e-06,1.44307e-05,1.86738e-06,0
-3.29321e-05,1.63184e-05,-1.01897e-05,-2.77737e-06,1.37957e-05,-3.04488e-06,1.50656e-05,-5.74192e-07,0
-3.16188e-05,1.53411e-05,-1.07639e-05,6.89032e-07,1.10419e-05,-1.63307e-06,1.4943e-05,-9.12992e-07,0
-2.87585e-05,1.3477e-05,-1.03704e-05,8.00637e-06,7.91079e-06,-1.86201e-06,1.24863e-05,5.5903e-08,0
-2.77421e-05,9.08813e-06,-1.08086e-05,1.15597e-05,6.58656e-06,-2.37924e-06,1.03679e-05,-4.83404e-08,0
-2.88342e-05,5.44963e-06,-1.27848e-05,8.92343e-06,8.45402e-06,-2.45522e-06,1.12708e-05,-1.7853e-06,0
-3.1147e-05,6.13472e-06,-1.45093e-05,4.42415e-06,1.12996e-05,-2.31896e-06,1.34682e-05,-2.7755e-06,0
-3.26402e-05,8.09203e-06,-1.45472e-05,1.90463e-06,1.21871e-05,-2.86081e-06,1.49151e-05,-1.91395e-06,0
-3.22039e-05,9.66641e-06,-1.27119e-05,2.68537e-06,1.27499e-05,-3.29457e-06,1.46663e-05,-7.49545e-07,0
-3.19472e-05,1.11874e-05,-9.86298e-06,4.6359e-06,1.52707e-05,-2.83824e-06,1.34522e-05,1.5792e-06,0
-3.37225e-05,9.71508e-06,-7.88116e-06,6.2316e-06,1.73035e-05,-2.98882e-06,1.32437e-05,5.38884e-06,0
-3.60588e-05,6.76709e-06,-7.02563e-06,6.06979e-06,1.65247e-05,-2.41691e-06,1.46996e-05,7.52009e-06,0
-3.76341e-05,5.41973e-06,-6.58591e-06,5.62666e-06,1.31899e-05,-1.68319e-06,1.70953e-05,5.92439e-06,0
-3.73145e-05,5.16191e-06,-7.48046e-06,6.14339e-06,1.31537e-05,-1.03641e-06,1.82608e-05,3.50667e-06,0
-3.47572e-05,3.89586e-06,-9.58027e-06,7.18972e-06,1.60456e-05,1.14778e-06,1.69842e-05,1.99688e-06,0
-3.22864e-05,1.72107e-06,-1.10818e-05,8.4042e-06,1.74794e-05,1.30693e-06,1.65831e-05,7.38529e-07,0
-3.1281e-05,1.57197e-07,-1.11202e-05,8.09796e-06,1.70003e-05,-7.27352e-07,1.64559e-05,1.05719e-06,0
-3.21216e-05,1.74609e-07,-1.01969e-05,7.69878e-06,1.50152e-05,-1.25539e-06,1.56377e-05,2.4989e-06,0
-3.36891e-05,2.60715e-06,-9.61786e-06,8.35675e-06,1.30406e-05,-1.31576e-06,1.60175e-05,4.55828e-06,0
-3.46062e-05,3.88519e-06,-8.46211e-06,9.90463e-06,1.2751e-05,-3.04112e-06,1.75048e-05,5.70021e-06,0
-3.4978e-05,3.34421e-06,-6.43155e-06,8.78294e-06,1.3537e-05,-4.84875e-06,1.86516e-05,5.75061e-06,0
-3.50325e-05,2.87515e-06,-5.63707e-06,4.03078e-06,1.40522e-05,-5.55489e-06,1.92443e-05,4.42641e-06,0
-3.41006e-05,3.81781e-06,-5.40896e-06,-6.42667e-07,1.47266e-05,-5.80927e-06,1.98807e-05,2.67189e-06,0
-3.2925e-05,7.31125e-06,-4.26258e-06,-3.03772e-06,1.51611e-05,-6.54158e-06,1.96448e-05,1.41983e-06,0
-3.22804e-05,1.28032e-05,-3.4855e-06,-4.13372e-06,1.44876e-05,-7.63601e-06,1.77555e-05,1.19586e-06,0
-3.22297e-05,1.83366e-05,-5.34109e-06,-5.08682e-06,1.28381e-05,-9.01592e-06,1.44583e-05,1.10344e-06,0
-3.24873e-05,2.16524e-05,-8.28163e-06,-6.72718e-06,1.1714e-05,-9.67497e-06,1.16431e-05,5.53009e-07,0
-3.23317e-05,2.39021e-05,-9.59947e-06,-9.35161e-06,1.12241e-05,-9.40173e-06,9.60172e-06,1.08094e-06,0
-3.23073e-05,2.61549e-05,-1.00204e-05,-1.08228e-05,1.15371e-05,-9.01542e-06,8.20392e-06,1.81926e-06,0
-3.34324e-05,2.75374e-05,-1.07332e-05,-1.02512e-05,1.15823e-05,-9.77156e-06,6.20845e-06,1.01194e-06,0
-3.50202e-05,2.83304e-05,-1.06353e-05,-9.83883e-06,1.14618e-05,-1.22495e-05,2.80018e-06,-4.96219e-07,0
-3.47833e-05,3.03233e-05,-9.87359e-06,-1.00903e-05,1.17479e-05,-1.39554e-05,-4.68446e-07,-5.273e-08,0
-3.36166e-05,3.20903e-05,-8.19881e-06,-7.77387e-06,1.23021e-05,-1.26454e-05,-1.29757e-06,2.4506e-06,0
-3.17782e-05,3.29851e-05,-5.39408e-06,-4.71038e-06,1.50529e-05,-1.08516e-05,4.83013e-07,4.74688e-06,0
-2.89677e-05,3.2878e-05,-2.75647e-06,-2.51996e-06,1.92066e-05,-1.01814e-05,3.01626e-06,2.55893e-06,0
-2.7591e-05,3.14233e-05,-8.41669e-07,-1.33319e-07,2.20687e-05,-9.98265e-06,5.56292e-06,-1.24894e-06,0
-2.70728e-05,2.83252e-05,-2.05797e-06,7.98951e-07,2.41637e-05,-1.02764e-05,7.62417e-06,-1.99326e-06,0
-2.76355e-05,2.41992e-05,-3.64515e-06,-5.65994e-08,2.44857e-05,-1.10015e-05,7.4115e-06,1.09304e-07,0
-2.96651e-05,2.23795e-05,-3.17091e-06,-1.6476e-06,2.14307e-05,-1.21599e-05,7.32771e-06,1.4988e-06,0
-3.00654e-05,2.14022e-05,-1.37585e-06,-5.06394e-06,1.77396e-05,-1.26252e-05,9.17018e-06,3.51098e-07,0
-3.06821e-05,1.9166e-05,-1.77915e-07,-1.11806e-05,1.51379e-05,-1.26834e-05,1.02461e-05,-1.16157e-06,0
-3.36731e-05,1.75363e-05,-1.9291e-06,-1.47493e-05,1.17114e-05,-1.28792e-05,1.00813e-05,2.08314e-07,0
-3.46993e-05,1.80261e-05,-4.21328e-06,-1.29939e-05,7.59473e-06,-1.34811e-05,9.4252e-06,4.01097e-06,0
-3.31555e-05,1.95866e-05,-4.51164e-06,-4.44869e-06,4.84955e-06,-1.35873e-05,1.04396e-05,4.26682e-06,0
-3.18686e-05,1.97598e-05,-3.1531e-06,9.70612e-06,4.36993e-06,-1.417e-05,1.29133e-05,1.43698e-06,0
-3.09051e-05,1.74421e-05,-1.95164e-06,1.98387e-05,5.11849e-06,-1.58487e-05,1.45135e-05,-6.00138e-07,0
-2.93209e-05,1.30689e-05,-2.26298e-06,1.95526e-05,7.34461e-06,-1.74982e-05,1.44295e-05,-1.8815e-06,0
-2.86551e-05,1.04778e-05,-4.61353e-06,1.25172e-05,1.10222e-05,-1.85555e-05,1.29321e-05,-2.05257e-06,0
-2.94577e-05,1.01683e-05,-6.21138e-06,5.41686e-06,1.28946e-05,-1.84204e-05,1.26693e-05,-9.50271e-07,0
-3.01271e-05,9.36108e-06,-6.06785e-06,2.43037e-06,1.25282e-05,-1.67488e-05,1.43114e-05,-2.15035e-07,0
-3.11608e-05,7.62306e-06,-5.81395e-06,6.83055e-06,1.20999e-05,-1.44917e-05,1.49862e-05,3.4087e-07,0
-3.2249e-05,6.28848e-06,-5.4026e-06,1.53792e-05,1.26648e-05,-1.28227e-05,1.47614e-05,9.32048e-07,0
-3.26376e-05,6.08586e-06,-5.0112e-06,2.04903e-05,1.30661e-05,-1.22563e-05,1.56752e-05,1.01756e-06,0
-3.20437e-05,7.42445e-06,-6.17173e-06,1.85965e-05,1.26075e-05,-1.35824e-05,1.76115e-05,3.22866e-08,0
-3.10603e-05,1.10411e-05,-8.57099e-06,1.13432e-05,1.04075e-05,-1.49396e-05,1.82065e-05,-1.66622e-06,0
-3.03089e-05,1.45751e-05,-8.91656e-06,-1.05554e-06,6.68133e-06,-1.43037e-05,1.70417e-05,-2.45608e-06,0
-2.98863e-05,1.55821e-05,-7.73406e-06,-2.10416e-05,3.74692e-06,-1.3521e-05,1.64322e-05,-1.98577e-06,0
-2.92469e-05,1.29418e-05,-8.21718e-06,-4.82843e-05,3.8837e-06,-1.49728e-05,1.74814e-05,-1.01557e-06,0
-2.88435e-05,1.04369e-05,-9.89675e-06,-8.02042e-05,4.50584e-06,-1.71603e-05,1.94152e-05,3.10502e-07,0
-2.82735e-05,1.02356e-05,-1.23048e-05,-0.000106271,2.12091e-06,-1.77514e-05,2.03352e-05,1.66484e-06,0
-2.86761e-05,9.146e-06,-1.48684e-05,-0.000111015,-1.84057e-06,-1.65023e-05,1.90242e-05,2.47791e-06,0
-3.07593e-05,6.4352e-06,-1.58031e-05,-9.66013e-05,-3.86674e-06,-1.45966e-05,1.76649e-05,2.35811e-06,0
-3.12854e-05,4.98769e-06,-1.62039e-05,-7.55807e-05,-1.92453e-06,-1.29697e-05,1.74454e-05,1.74406e-06,0
-2.95265e-05,7.12017e-06,-1.36105e-05,-5.70558e-05,1.55429e-06,-1.17866e-05,1.77351e-05,2.58541e-06,0
-2.71073e-05,1.02718e-05,-8.16556e-06,-4.13234e-05,3.40119e-06,-1.01094e-05,1.77093e-05,3.59046e-06,0
-2.62294e-05,1.14688e-05,-6.10989e-06,-2.02935e-05,5.45964e-06,-9.15614e-06,1.76865e-05,2.56956e-06,0
-2.63215e-05,1.11116e-05,-5.25314e-06,7.00237e-06,7.66274e-06,-9.05963e-06,1.79865e-05,2.25154e-06,0
-2.61233e-05,1.09409e-05,-2.93821e-06,3.22042e-05,7.87192e-06,-8.24376e-06,1.53595e-05,2.90032e-06,0
-2.68738e-05,1.08251e-05,-1.13316e-06,4.43888e-05,8.56669e-06,-6.89427e-06,1.11479e-05,3.12701e-06,0
-2.85621e-05,8.77126e-06,-1.98775e-06,4.23636e-05,1.05741e-05,-6.07693e-06,8.58701e-06,2.36208e-06,0
-2.90576e-05,5.94107e-06,-7.21844e-06,3.24092e-05,1.2949e-05,-6.57751e-06,8.01327e-06,8.1358e-07,0
-2.91132e-05,4.49683e-06,-1.30724e-05,2.00876e-05,1.41092e-05,-9.04134e-06,8.87956e-06,-5.26257e-07,0
-2.98732e-05,4.48762e-06,-1.50786e-05,1.05515e-05,1.2148e-05,-1.2078e-05,1.07751e-05,-1.79985e-06,0
-3.01386e-05,4.86498e-06,-1.33345e-05,5.59045e-06,9.33906e-06,-1.3091e-05,1.34801e-05,-1.55709e-06,0
-2.97763e-05,5.22024e-06,-1.04262e-05,3.85376e-06,9.57359e-06,-1.19496e-05,1.45927e-05,2.20787e-07,0
-2.91094e-05,4.44014e-06,-8.5803e-06,3.07771e-06,1.21687e-05,-1.1032e-05,1.46033e-05,1.75823e-06,0
-2.73746e-05,3.02262e-06,-9.1524e-06,2.50877e-06,1.47319e-05,-1.21239e-05,1.47518e-05,7.2757e-07,0
-2.61038e-05,2.77078e-06,-1.16925e-05,2.65676e-06,1.54082e-05,-1.29475e-05,1.38688e-05,-7.67506e-07,0
-2.6471e-05,4.0931e-06,-1.52236e-05,2.83937e-06,1.45681e-05,-1.20414e-05,1.13076e-05,3.00787e-07,0
-2.69467e-05,6.84495e-06,-1.79103e-05,2.47476e-06,1.35407e-05,-1.09211e-05,9.53767e-06,2.35218e-06,0
-2.67847e-05,9.99518e-06,-1.72437e-05,1.2224e-06,1.2768e-05,-1.09521e-05,9.90399e-06,3.5368e-06,0
-2.66494e-05,1.15177e-05,-1.40263e-05,-3.93903e-07,1.13777e-05,-1.13028e-05,9.97816e-06,3.39306e-06,0
-2.69952e-05,1.1732e-05,-1.08071e-05,-2.53426e-06,9.8896e-06,-1.18163e-05,9.27063e-06,2.30824e-06,0
-2.70445e-05,1.35122e-05,-9.1448e-06,-6.25936e-06,1.02625e-05,-1.16015e-05,1.02724e-05,1.34689e-06,0
-2.707e-05,1.5274e-05,-8.66862e-06,-9.68783e-06,1.30973e-05,-1.10018e-05,1.27874e-05,1.40409e-06,0
-2.72808e-05,1.53209e-05,-7.8527e-06,-8.34378e-06,1.87614e-05,-1.17994e-05,1.4166e-05,2.73161e-06,0
-2.69278e-05,1.367e-05,-5.39704e-06,-4.35086e-06,2.41974e-05,-1.21839e-05,1.43481e-05,4.83317e-06,0
-2.57488e-05,1.24751e-05,-2.00166e-06,-1.69518e-06,2.48567e-05,-1.09311e-05,1.42803e-05,5.94807e-06,0
-2.50266e-05,1.45492e-05,-6.40222e-07,-7.20277e-07,1.91442e-05,-1.00591e-05,1.48968e-05,5.34524e-06,0
-2.52921e-05,1.71856e-05,-8.47572e-07,-2.56336e-06,8.69738e-06,-1.1271e-05,1.3343e-05,5.08781e-06,0
-2.60725e-05,1.64165e-05,-2.74448e-06,-5.825e-06,-3.66431e-07,-1.34657e-05,3.70208e-06,5.2954e-06,0
-2.71948e-05,1.38962e-05,-5.65119e-06,-6.12153e-06,-1.77563e-07,-1.34453e-05,-6.83738e-06,5.13189e-06,0
-2.78296e-05,1.34445e-05,-6.97358e-06,-2.99745e-06,5.43399e-06,-1.10929e-05,-8.05368e-06,5.00366e-06,0
-2.72456e-05,1.34733e-05,-7.67486e-06,-1.98901e-06,1.02305e-05,-8.90233e-06,-4.06962e-06,4.30231e-06,0
-2.72871e-05,1.01025e-05,-6.42853e-06,-4.89313e-06,1.29261e-05,-7.10173e-06,3.45824e-07,4.52773e-06,0
-2.89805e-05,5.77899e-06,-4.24761e-06,-1.01514e-05,1.34586e-05,-5.06635e-06,3.83614e-06,5.43784e-06,0
-3.00513e-05,4.70642e-06,-3.54294e-06,-1.54032e-05,1.27916e-05,-4.35576e-06,9.83953e-06,4.13934e-06,0
-3.07005e-05,5.15999e-06,-4.454e-06,-1.84236e-05,1.10062e-05,-5.62962e-06,1.6375e-05,1.5692e-06,0
-3.11194e-05,4.77172e-06,-5.21491e-06,-1.8079e-05,1.06807e-05,-6.35974e-06,1.95902e-05,1.22933e-06,0
-2.96332e-05,3.62025e-06,-5.32606e-06,-1.69309e-05,1.14982e-05,-6.24053e-06,2.05485e-05,1.45755e-06,0
-2.77919e-05,2.27969e-06,-5.85729e-06,-1.67377e-05,1.26066e-05,-6.68103e-06,2.08543e-05,1.79985e-07,0
-2.80913e-05,2.42702e-06,-6.25144e-06,-1.5618e-05,1.354e-05,-7.6795e-06,2.21068e-05,-4.46455e-07,0
-2.95087e-05,2.65128e-06,-6.50194e-06,-1.34543e-05,1.33588e-05,-9.18787e-06,2.41671e-05,1.60531e-06,0
-2.99654e-05,1.39069e-06,-6.56866e-06,-1.08196e-05,1.19546e-05,-9.04897e-06,2.61532e-05,4.51813e-06,0
-3.00158e-05,3.70784e-07,-7.21834e-06,-6.45725e-06,1.01885e-05,-6.52528e-06,2.64336e-05,6.23492e-06,0
-3.00794e-05,3.63529e-07,-8.06368e-06,4.81675e-07,1.01916e-05,-4.26123e-06,2.51555e-05,7.13467e-06,0
-2.96193e-05,9.17417e-07,-8.53708e-06,8.75301e-06,1.2005e-05,-4.58479e-06,2.17161e-05,7.96096e-06,0
-2.86089e-05,2.35715e-06,-8.32494e-06,1.64223e-05,1.41569e-05,-6.65206e-06,1.82028e-05,8.7632e-06,0
-2.71416e-05,4.24492e-06,-8.56453e-06,1.99374e-05,1.49594e-05,-7.87839e-06,1.63215e-05,8.28518e-06,0
-2.61207e-05,5.25952e-06,-9.29962e-06,1.68104e-05,1.40514e-05,-8.29713e-06,1.56198e-05,7.31822e-06,0
-2.71945e-05,7.26937e-06,-9.68747e-06,8.86897e-06,1.28125e-05,-9.28519e-06,1.5162e-05,6.63085e-06,0
-3.00032e-05,9.65481e-06,-1.02232e-05,1.97259e-06,1.23538e-05,-1.12838e-05,1.51523e-05,5.25011e-06,0
-3.24785e-05,9.97762e-06,-1.08274e-05,-1.95788e-06,1.23185e-05,-1.24087e-05,1.58175e-05,2.72481e-06,0
-3.38566e-05,1.00232e-05,-1.3094e-05,-2.67813e-06,1.08973e-05,-1.31742e-05,1.68094e-05,2.1976e-06,0
-3.4091e-05,1.13802e-05,-1.5753e-05,-2.32087e-06,6.68056e-06,-1.34987e-05,1.58915e-05,3.61855e-06,0
-3.38948e-05,1.27422e-05,-1.51095e-05,-3.16791e-06,3.10126e-06,-1.19935e-05,1.22335e-05,3.72582e-06,0
-3.37641e-05,1.36634e-05,-1.18221e-05,-1.57764e-06,3.84606e-06,-9.91771e-06,9.13918e-06,3.21671e-06,0
-3.26242e-05,1.43901e-05,-8.90223e-06,6.94156e-06,8.98452e-06,-8.90498e-06,8.44289e-06,3.71515e-06,0
-3.07628e-05,1.46042e-05,-8.18696e-06,1.81077e-05,1.31054e-05,-8.88759e-06,8.62823e-06,3.71192e-06,0
-3.03158e-05,1.56073e-05,-8.78352e-06,2.12715e-05,1.35132e-05,-8.90348e-06,8.14964e-06,2.63186e-06,0
-3.14169e-05,1.56325e-05,-9.54125e-06,1.51994e-05,1.3754e-05,-8.88974e-06,6.29842e-06,6.71847e-07,0
-3.27538e-05,1.43666e-05,-1.03842e-05,5.70811e-06,1.469e-05,-8.43522e-06,5.50689e-06,-1.07114e-06,0
-3.26762e-05,1.26562e-05,-1.03796e-05,-1.54987e-06,1.67964e-05,-7.70934e-06,5.73816e-06,6.84532e-07,0
-3.06983e-05,9.68598e-06,-1.06153e-05,-6.65443e-06,1.78829e-05,-8.39894e-06,5.32122e-06,3.49934e-06,0
-3.00734e-05,7.4564e-06,-1.08943e-05,-1.12612e-05,1.77033e-05,-9.60868e-06,5.73495e-06,4.42466e-06,0
-3.14577e-05,6.43179e-06,-9.41891e-06,-1.40105e-05,1.70743e-05,-1.13248e-05,7.50796e-06,4.70938e-06,0
-3.11433e-05,7.53128e-06,-6.77324e-06,-1.69663e-05,1.57213e-05,-1.35637e-05,9.76907e-06,5.09067e-06,0
-2.88568e-05,9.02061e-06,-4.18217e-06,-2.21359e-05,1.49406e-05,-1.34544e-05,9.52052e-06,4.65804e-06,0
-2.73434e-05,1.05493e-05,-3.02177e-06,-2.74689e-05,1.48353e-05,-1.25028e-05,6.26505e-06,4.20102e-06,0
-2.79604e-05,1.16764e-05,-3.1619e-06,-3.14575e-05,1.3893e-05,-1.2637e-05,4.12129e-06,4.33861e-06,0
-2.85114e-05,1.23715e-05,-3.65804e-06,-3.2677e-05,1.1865e-05,-1.24484e-05,5.55728e-06,4.47224e-06,0
-2.73859e-05,1.29268e-05,-4.52641e-06,-2.94364e-05,1.11378e-05,-1.0556e-05,7.09253e-06,3.89536e-06,0
-2.66869e-05,1.2262e-05,-6.21574e-06,-2.09063e-05,1.156e-05,-8.32803e-06,7.4559e-06,2.31305e-06,0
-2.71336e-05,1.24195e-05,-7.7485e-06,-1.01707e-05,1.28175e-05,-6.86003e-06,7.32547e-06,1.37817e-08,0
-2.70886e-05,1.41592e-05,-7.29995e-06,-1.25489e-06,1.54259e-05,-6.02066e-06,7.5346e-06,-1.20739e-06,0
-2.63598e-05,1.56961e-05,-4.72105e-06,3.86012e-06,1.84349e-05,-6.22842e-06,6.93578e-06,-9.4323e-07,0
-2.55676e-05,1.40096e-05,-2.86875e-06,5.5361e-06,2.09587e-05,-7.48848e-06,4.46546e-06,-1.14339e-06,0
-2.56373e-05,1.02104e-05,-3.28136e-06,6.79091e-06,2.2806e-05,-8.99413e-06,1.42851e-06,-1.05554e-06,0
-2.73619e-05,8.43323e-06,-3.0236e-06,7.5775e-06,2.24281e-05,-1.04345e-05,9.8329e-09,-3.12011e-07,0
-2.95347e-05,9.24986e-06,-1.31841e-06,8.01527e-06,2.06086e-05,-1.2173e-05,-3.44138e-07,7.84137e-07,0
-3.05966e-05,9.16698e-06,-1.04791e-06,9.67216e-06,1.9813e-05,-1.4015e-05,6.35376e-08,1.17662e-06,0
-2.97574e-05,7.68559e-06,-3.43161e-06,1.11791e-05,2.06702e-05,-1.40268e-05,2.76367e-06,7.92543e-07,0
-2.87776e-05,6.33416e-06,-5.51499e-06,1.04981e-05,2.13341e-05,-1.25355e-05,5.12631e-06,2.74405e-07,0
-2.92389e-05,7.88838e-06,-6.30282e-06,7.95323e-06,2.04106e-05,-1.14346e-05,5.71654e-06,3.81941e-07,0
-3.02997e-05,8.64051e-06,-8.21669e-06,3.95378e-06,1.91334e-05,-1.19199e-05,5.55945e-06,1.88432e-07,0
-3.0449e-05,6.08308e-06,-1.14665e-05,-2.46345e-07,1.77821e-05,-1.29063e-05,6.31509e-06,-9.36426e-07,0
-3.01973e-05,4.11406e-06,-1.27934e-05,-2.54522e-06,1.50125e-05,-1.27579e-05,8.58926e-06,4.85527e-07,0
-2.85378e-05,5.0015e-06,-9.87101e-06,-4.49279e-06,1.30682e-05,-1.23011e-05,1.03583e-05,1.40349e-06,0
-2.67655e-05,7.41877e-06,-6.21035e-06,-7.69987e-06,1.42781e-05,-1.1156e-05,1.11632e-05,-4.22033e-07,0
-2.85733e-05,6.58678e-06,-6.93245e-06,-8.49481e-06,1.64356e-05,-9.22404e-06,1.20497e-05,-1.66339e-06,0
-3.08062e-05,4.50433e-06,-1.08281e-05,-7.87478e-06,1.67258e-05,-8.07399e-06,1.2901e-05,-2.60812e-06,0
-3.09028e-05,4.75528e-06,-1.45268e-05,-7.04547e-06,1.48846e-05,-9.69606e-06,1.40349e-05,-2.56784e-06,0
-3.00998e-05,5.45797e-06,-1.6171e-05,-6.72698e-06,1.4484e-05,-9.46264e-06,1.49382e-05,-2.39556e-06,0
-2.98884e-05,4.50172e-06,-1.57673e-05,-1.02637e-05,1.3231e-05,-6.98408e-06,1.56611e-05,-2.11442e-06,0
-2.99604e-05,2.62115e-06,-1.53708e-05,-1.64866e-05,1.01891e-05,-4.47865e-06,1.62996e-05,-2.54982e-06,0
-2.98833e-05,1.65586e-06,-1.58257e-05,-2.00602e-05,7.08416e-06,-3.55005e-06,1.64619e-05,-4.60224e-06,0
-2.91798e-05,2.45668e-06,-1.76139e-05,-1.87062e-05,6.1958e-06,-3.99057e-06,1.63509e-05,-6.09136e-06,0
-2.84555e-05,3.97921e-06,-1.89494e-05,-1.66075e-05,7.49683e-06,-4.40298e-06,1.56001e-05,-7.06463e-06,0
-2.89057e-05,5.12678e-06,-1.79283e-05,-1.55525e-05,8.15875e-06,-5.20233e-06,1.2226e-05,-5.80432e-06,0
-3.0269e-05,5.22219e-06,-1.56689e-05,-1.48824e-05,8.04512e-06,-5.32908e-06,7.20037e-06,-2.82778e-06,0
-3.13688e-05,4.79765e-06,-1.37871e-05,-1.29487e-05,7.01763e-06,-5.24354e-06,4.16277e-06,-1.74684e-06,0
-3.09452e-05,5.33069e-06,-1.15945e-05,-9.61707e-06,5.69539e-06,-5.41272e-06,4.61871e-06,-3.7705e-06,0
-3.02815e-05,7.29693e-06,-9.56119e-06,-6.43907e-06,4.35072e-06,-6.56727e-06,7.33643e-06,-5.00227e-06,0
-3.11358e-05,1.01291e-05,-9.7852e-06,-4.60421e-06,4.31643e-06,-6.67815e-06,1.07212e-05,-3.57129e-06,0
-3.20312e-05,1.29578e-05,-1.12321e-05,-2.85174e-06,5.91807e-06,-6.52296e-06,1.47024e-05,-2.74058e-06,0
-3.17232e-05,1.4993e-05,-1.29983e-05,5.93104e-07,8.35275e-06,-6.65811e-06,1.87677e-05,-3.65143e-06,0
-3.18737e-05,1.56317e-05,-1.57353e-05,4.8063e-06,9.56434e-06,-7.81534e-06,2.08041e-05,-3.97781e-06,0
-3.27307e-05,1.39491e-05,-1.77561e-05,6.59828e-06,9.94255e-06,-8.68057e-06,2.01595e-05,-3.4154e-06,0
-3.35741e-05,1.20862e-05,-1.69973e-05,6.31912e-06,1.01067e-05,-9.05309e-06,2.02391e-05,-3.59607e-06,0
-3.25514e-05,1.30082e-05,-1.38944e-05,4.49468e-06,9.45037e-06,-1.01992e-05,2.13353e-05,-4.74535e-06,0
-3.10746e-05,1.52445e-05,-1.23091e-05,-9.50043e-07,9.65768e-06,-1.08665e-05,2.1902e-05,-5.56515e-06,0
-3.17177e-05,1.58768e-05,-1.29198e-05,-8.96174e-06,1.3098e-05,-1.09467e-05,2.15069e-05,-6.74699e-06,0
-3.2161e-05,1.46455e-05,-1.31935e-05,-1.30305e-05,1.83483e-05,-9.8267e-06,2.11697e-05,-7.42349e-06,0
-3.03301e-05,1.31759e-05,-1.29191e-05,-9.1944e-06,2.38595e-05,-8.14519e-06,2.31987e-05,-7.17796e-06,0
-2.94265e-05,1.38042e-05,-1.06013e-05,-3.52927e-06,2.72883e-05,-7.19421e-06,2.41215e-05,-7.40928e-06,0
-3.07182e-05,1.44892e-05,-7.32398e-06,-2.63452e-06,2.58409e-05,-6.91282e-06,1.99079e-05,-6.04605e-06,0
-3.15459e-05,1.33162e-05,-5.96823e-06,-8.28824e-06,2.03996e-05,-6.54325e-06,9.60094e-06,-4.19482e-06,0
-3.19553e-05,1.2268e-05,-7.19444e-06,-1.49449e-05,1.4378e-05,-6.23623e-06,-4.8384e-07,-2.65527e-06,0
-3.26773e-05,1.09294e-05,-8.20942e-06,-1.67154e-05,1.14327e-05,-7.13231e-06,-3.6175e-06,-1.63865e-06,0
-3.40809e-05,1.05788e-05,-7.86245e-06,-1.3137e-05,1.13946e-05,-7.81121e-06,-1.53111e-06,6.12055e-07,0
-3.50615e-05,1.03999e-05,-7.93618e-06,-8.56646e-06,1.23405e-05,-7.46455e-06,3.99252e-06,2.60525e-06,0
-3.53183e-05,9.95134e-06,-8.13019e-06,-4.69466e-06,1.28407e-05,-7.51909e-06,1.16429e-05,1.92469e-06,0
-3.49477e-05,9.67486e-06,-7.58978e-06,-3.18242e-06,1.34204e-05,-7.84313e-06,2.02891e-05,1.01908e-06,0
-3.34719e-05,9.69122e-06,-5.64173e-06,-4.30109e-06,1.36283e-05,-7.65209e-06,2.78789e-05,1.82031e-06,0
-3.14926e-05,1.00756e-05,-3.78744e-06,-4.51981e-06,1.36898e-05,-5.79346e-06,3.29836e-05,3.02392e-06,0
-3.06191e-05,9.41352e-06,-3.25462e-06,-5.24599e-06,1.56932e-05,-3.42365e-06,3.46662e-05,2.75981e-06,0
-3.19119e-05,7.51987e-06,-3.95858e-06,-8.72489e-06,1.8985e-05,-1.99509e-06,3.44621e-05,1.87679e-06,0
-3.3471e-05,6.15946e-06,-5.03536e-06,-1.17978e-05,2.1034e-05,-2.64274e-06,3.45343e-05,6.57414e-07,0
-3.33555e-05,6.81599e-06,-4.98666e-06,-6.93099e-06,2.15036e-05,-3.8586e-06,3.43108e-05,-7.5017e-07,0
-3.12411e-05,8.08048e-06,-4.52453e-06,4.9311e-06,2.16215e-05,-4.21128e-06,3.16575e-05,-2.39775e-06,0
-2.96223e-05,9.41653e-06,-4.80895e-06,1.58462e-05,2.18521e-05,-3.75381e-06,2.73591e-05,-3.71663e-06,0
-3.04926e-05,1.16367e-05,-4.98763e-06,2.25791e-05,2.33903e-05,-3.62341e-06,2.3997e-05,-4.60179e-06,0
-3.21162e-05,1.50114e-05,-5.0688e-06,2.81914e-05,2.48917e-05,-5.48582e-06,2.07361e-05,-4.05601e-06,0
-3.28832e-05,1.82289e-05,-4.68623e-06,3.11848e-05,2.23478e-05,-7.9018e-06,1.68649e-05,-2.17329e-06,0
-3.26267e-05,2.09445e-05,-2.97044e-06,2.58166e-05,1.68523e-05,-8.8282e-06,1.32894e-05,3.29065e-08,0
-3.06322e-05,2.14472e-05,-1.43229e-06,1.1174e-05,1.30227e-05,-8.52367e-06,1.17849e-05,1.58053e-06,0
-2.81749e-05,2.0993e-05,-1.09594e-06,-4.8693e-06,1.28985e-05,-9.02262e-06,1.16179e-05,3.06389e-06,0
-2.82095e-05,2.23104e-05,-9.38597e-07,-1.3533e-05,1.38453e-05,-1.07307e-05,1.03665e-05,4.1867e-06,0
-3.01343e-05,2.44162e-05,-7.90357e-08,-1.61697e-05,1.45418e-05,-1.18802e-05,7.92096e-06,4.33934e-06,0
-3.13673e-05,2.55379e-05,-7.22527e-07,-1.71599e-05,1.51846e-05,-1.2075e-05,6.89904e-06,3.99052e-06,0
-3.17509e-05,2.62255e-05,-3.85785e-06,-1.65972e-05,1.48097e-05,-1.06989e-05,7.27979e-06,3.64727e-06,0
-3.20843e-05,2.67993e-05,-6.27223e-06,-1.5859e-05,1.41286e-05,-9.03073e-06,6.33808e-06,4.10527e-06,0
-3.16772e-05,2.61225e-05,-7.01548e-06,-1.81439e-05,1.35403e-05,-8.11835e-06,4.7413e-06,5.14636e-06,0
-3.07464e-05,2.62436e-05,-7.49933e-06,-2.01911e-05,1.18311e-05,-7.02078e-06,4.99846e-06,5.87895e-06,0
-2.94578e-05,2.69182e-05,-5.84005e-06,-2.07506e-05,8.15847e-06,-7.44919e-06,5.88974e-06,4.75067e-06,0
-2.75716e-05,2.75224e-05,-3.05299e-06,-2.64202e-05,4.57265e-06,-8.7735e-06,6.13887e-06,4.31867e-06,0
-2.6395e-05,2.79054e-05,-1.97918e-06,-3.64291e-05,3.70262e-06,-9.65828e-06,5.3428e-06,4.8104e-06,0
-2.75003e-05,2.8299e-05,-2.29154e-06,-3.93199e-05,3.05969e-06,-8.43145e-06,4.64042e-06,3.5404e-06,0
-2.87514e-05,2.89948e-05,-2.46823e-06,-3.12724e-05,9.95331e-07,-6.53806e-06,4.90562e-06,1.0079e-06,0
-2.95015e-05,2.92834e-05,-1.81361e-06,-1.78894e-05,-1.32106e-06,-6.54789e-06,5.02866e-06,-6.13751e-07,0
-3.06891e-05,2.91416e-05,-1.99131e-06,-6.99861e-06,-2.22462e-06,-8.11923e-06,5.25943e-06,-6.67688e-07,0
-3.14252e-05,2.84556e-05,-3.56243e-06,-2.99715e-06,-2.12609e-06,-9.81326e-06,6.89561e-06,-3.04874e-07,0
-3.19144e-05,2.69396e-05,-5.74166e-06,-2.94705e-06,-3.10027e-06,-1.12662e-05,9.59716e-06,2.66415e-07,0
-3.27108e-05,2.5333e-05,-6.49042e-06,-2.90909e-06,-3.51652e-06,-1.30132e-05,1.09469e-05,1.0799e-06,0
-3.34073e-05,2.44222e-05,-5.31919e-06,-2.19472e-06,-1.30819e-06,-1.4047e-05,9.98171e-06,2.20401e-06,0
-3.30924e-05,2.36488e-05,-3.82269e-06,-1.15214e-06,3.64593e-06,-1.36895e-05,8.19001e-06,3.44751e-06,0
-3.22354e-05,2.2692e-05,-3.10791e-06,1.82684e-06,1.1519e-05,-1.23697e-05,7.4565e-06,4.27808e-06,0
-3.17644e-05,2.09017e-05,-3.1161e-06,7.12459e-06,2.17321e-05,-1.17347e-05,8.11488e-06,3.24211e-06,0
-3.2352e-05,1.93411e-05,-4.03787e-06,1.25722e-05,2.98249e-05,-1.21209e-05,9.01837e-06,4.43467e-07,0
-3.24583e-05,1.99918e-05,-5.3103e-06,1.38988e-05,3.30844e-05,-1.25357e-05,8.38405e-06,-1.99183e-06,0
-3.16775e-05,2.22833e-05,-6.41439e-06,5.78372e-06,3.12853e-05,-1.24872e-05,7.80549e-06,-3.54661e-06,0
-3.09489e-05,2.312e-05,-8.59103e-06,-1.26175e-05,2.5259e-05,-1.36865e-05,8.50443e-06,-5.02019e-06,0
-2.98689e-05,2.13536e-05,-9.06434e-06,-3.28652e-05,1.84255e-05,-1.57505e-05,9.81497e-06,-6.35949e-06,0
-2.84075e-05,1.91764e-05,-8.05114e-06,-4.39186e-05,1.58636e-05,-1.57128e-05,1.05543e-05,-7.93303e-06,0
-2.71398e-05,1.96897e-05,-8.94683e-06,-4.25555e-05,1.60139e-05,-1.4337e-05,9.99618e-06,-8.15915e-06,0
-2.77517e-05,2.23893e-05,-9.57622e-06,-3.6126e-05,1.53429e-05,-1.42078e-05,8.87068e-06,-6.0378e-06,0
-2.91724e-05,2.4326e-05,-9.29038e-06,-3.19846e-05,1.46937e-05,-1.45805e-05,8.61409e-06,-5.07748e-06,0
-2.95762e-05,2.57229e-05,-8.44412e-06,-2.41463e-05,1.48062e-05,-1.38474e-05,1.00829e-05,-3.64685e-06,0
-2.89214e-05,2.61412e-05,-7.8731e-06,-6.2589e-06,1.55066e-05,-1.26199e-05,1.26114e-05,-1.00809e-06,0
-2.63831e-05,2.42901e-05,-8.40798e-06,1.94524e-05,1.65513e-05,-1.18034e-05,1.49794e-05,1.4672e-06,0
-2.50785e-05,2.11682e-05,-8.35851e-06,4.47174e-05,2.01954e-05,-1.04169e-05,1.57213e-05,3.47917e-06,0
-2.68916e-05,1.87961e-05,-7.11916e-06,5.69836e-05,2.38764e-05,-8.83687e-06,1.58654e-05,5.24186e-06,0
-2.95266e-05,1.80909e-05,-4.93307e-06,5.45564e-05,2.51617e-05,-7.86369e-06,1.71904e-05,6.91347e-06,0
-3.03355e-05,1.90998e-05,-2.41014e-06,3.97828e-05,2.42293e-05,-6.84277e-06,1.979e-05,6.58838e-06,0
-2.98828e-05,2.1355e-05,-1.54295e-06,1.4606e-05,2.02695e-05,-4.7118e-06,2.19676e-05,4.73945e-06,0
-2.93119e-05,2.31967e-05,-2.52525e-06,-1.01178e-05,1.69395e-05,-3.00472e-06,2.33496e-05,2.23513e-06,0
-2.86555e-05,2.50805e-05,-4.20687e-06,-2.66283e-05,1.53034e-05,-3.31904e-06,2.40365e-05,1.09521e-06,0
-2.88033e-05,2.62759e-05,-6.88171e-06,-3.31625e-05,1.35124e-05,-3.88509e-06,2.33682e-05,1.69313e-06,0
-2.90026e-05,2.5697e-05,-9.9169e-06,-2.55154e-05,1.072e-05,-4.57634e-06,2.15464e-05,3.00553e-06,0
-2.87392e-05,2.53401e-05,-1.35107e-05,-3.75955e-06,8.51312e-06,-4.745e-06,1.953e-05,3.7585e-06,0
-2.80728e-05,2.71049e-05,-1.66852e-05,2.11439e-05,9.41491e-06,-3.67064e-06,1.89934e-05,3.36441e-06,0
-2.75996e-05,2.89795e-05,-1.90232e-05,3.79412e-05,1.22049e-05,-2.2321e-06,1.95548e-05,1.91369e-06,0
-2.69531e-05,2.79126e-05,-1.98639e-05,4.4936e-05,1.47143e-05,-2.02883e-06,2.02208e-05,-6.23125e-08,0
-2.65907e-05,2.52416e-05,-1.82119e-05,4.57662e-05,1.51885e-05,-2.72406e-06,1.9931e-05,-1.87101e-06,0
-2.63033e-05,2.35846e-05,-1.56478e-05,4.07679e-05,1.39787e-05,-3.30862e-06,1.83273e-05,-3.30823e-06,0
-2.60886e-05,2.45953e-05,-1.46442e-05,2.64236e-05,1.29385e-05,-3.25799e-06,1.69897e-05,-3.69234e-06,0
-2.63808e-05,2.57491e-05,-1.46305e-05,5.30024e-06,1.24046e-05,-2.6237e-06,1.59355e-05,-3.09794e-06,0
-2.67757e-05,2.48338e-05,-1.33452e-05,-9.96718e-06,1.18642e-05,-2.24203e-06,1.50138e-05,-2.11735e-06,0
-2.74922e-05,2.21436e-05,-1.26475e-05,-1.25376e-05,1.13185e-05,-2.52164e-06,1.43492e-05,-1.56526e-06,0
-2.89842e-05,1.74721e-05,-1.36243e-05,-8.18533e-06,9.37736e-06,-4.23019e-06,1.20198e-05,-1.51137e-06,0
-3.0234e-05,1.39526e-05,-1.48607e-05,-5.61872e-06,8.77844e-06,-6.64948e-06,9.73866e-06,-1.91445e-06,0
-2.91568e-05,1.2722e-05,-1.55919e-05,-7.55627e-06,8.84489e-06,-7.07139e-06,1.06234e-05,-1.20149e-06,0
-2.78225e-05,1.1252e-05,-1.50839e-05,-1.07565e-05,8.33704e-06,-6.18354e-06,1.1957e-05,3.79146e-07,0
-2.86791e-05,9.226e-06,-1.42907e-05,-1.38355e-05,9.51994e-06,-7.15023e-06,1.1629e-05,2.05244e-06,0
-2.96249e-05,7.95248e-06,-1.2757e-05,-1.37411e-05,9.58022e-06,-8.29305e-06,1.05367e-05,4.039e-06,0
-2.94687e-05,6.69288e-06,-1.10233e-05,-1.24638e-05,8.08816e-06,-7.79044e-06,1.07123e-05,4.60136e-06,0
-2.91055e-05,5.89648e-06,-1.02644e-05,-1.36865e-05,7.00771e-06,-7.4566e-06,1.27831e-05,4.45805e-06,0
-2.88055e-05,7.62252e-06,-9.09792e-06,-1.55003e-05,7.3642e-06,-9.1861e-06,1.40035e-05,3.80992e-06,0
-2.83662e-05,8.53181e-06,-8.91011e-06,-1.75307e-05,7.25119e-06,-1.13278e-05,1.31152e-05,2.25553e-06,0
-2.70569e-05,7.5902e-06,-9.09537e-06,-1.78485e-05,8.02081e-06,-1.31619e-05,1.15719e-05,3.05834e-06,0
-2.62642e-05,6.24151e-06,-9.43885e-06,-1.71034e-05,1.00107e-05,-1.26882e-05,1.20407e-05,5.91603e-06,0
-2.72361e-05,6.11766e-06,-9.58134e-06,-1.61284e-05,1.0749e-05,-9.83564e-06,1.41056e-05,7.64126e-06,0
-2.73592e-05,6.96412e-06,-9.11741e-06,-1.55008e-05,9.18284e-06,-9.20252e-06,1.58326e-05,6.8395e-06,0
-2.66538e-05,6.92782e-06,-8.81248e-06,-1.41556e-05,7.09137e-06,-1.13398e-05,1.52332e-05,5.02343e-06,0
-2.63231e-05,6.36951e-06,-9.49364e-06,-1.16561e-05,5.43632e-06,-1.49029e-05,1.38296e-05,3.37523e-06,0
-2.59898e-05,6.05558e-06,-1.03973e-05,-9.72253e-06,4.57635e-06,-1.73943e-05,1.46283e-05,1.20117e-06,0
-2.67627e-05,6.5962e-06,-1.04189e-05,-8.26974e-06,6.15219e-06,-1.77016e-05,1.63385e-05,-6.18828e-07,0
-2.84675e-05,6.67082e-06,-1.05762e-05,-7.76069e-06,7.47157e-06,-1.67104e-05,1.685e-05,-4.65828e-07,0
-3.025e-05,5.75173e-06,-1.15151e-05,-9.07506e-06,6.84203e-06,-1.69156e-05,1.58361e-05,1.50578e-06,0
-3.15722e-05,3.87425e-06,-1.26721e-05,-1.17793e-05,4.75812e-06,-1.80221e-05,1.47543e-05,3.61794e-06,0
-3.20933e-05,1.9374e-06,-1.25507e-05,-1.35303e-05,3.85011e-06,-1.79359e-05,1.423e-05,5.66586e-06,0
-3.17202e-05,-1.07434e-07,-1.16918e-05,-1.38035e-05,4.9028e-06,-1.6569e-05,1.48947e-05,7.25771e-06,0
-3.16441e-05,-1.33096e-06,-1.13838e-05,-1.37572e-05,6.60329e-06,-1.45287e-05,1.59265e-05,7.49601e-06,0
-3.20258e-05,-6.31585e-07,-1.09898e-05,-1.47257e-05,7.34566e-06,-1.26649e-05,1.59863e-05,6.64436e-06,0
-3.22108e-05,1.13269e-06,-9.78307e-06,-1.55983e-05,7.65265e-06,-1.22802e-05,1.43332e-05,6.66864e-06,0
-3.28375e-05,3.36591e-06,-8.87066e-06,-1.57904e-05,6.87634e-06,-1.40958e-05,1.27128e-05,7.88774e-06,0
-3.32916e-05,3.91607e-06,-7.73926e-06,-1.44647e-05,5.27048e-06,-1.64549e-05,1.27973e-05,8.77329e-06,0
-3.20487e-05,2.55347e-07,-5.73208e-06,-1.13625e-05,5.2819e-06,-1.75045e-05,1.27371e-05,9.54858e-06,0
-3.10159e-05,-4.52986e-06,-3.89893e-06,-9.51116e-06,7.07465e-06,-1.71214e-05,1.08403e-05,1.0774e-05,0
-3.12194e-05,-6.50621e-06,-3.2749e-06,-1.12455e-05,9.68668e-06,-1.79371e-05,9.94576e-06,1.07472e-05,0
-3.13509e-05,-4.73856e-06,-4.97092e-06,-1.50164e-05,1.25782e-05,-1.89411e-05,1.10946e-05,9.51577e-06,0
-3.1159e-05,-2.07478e-06,-7.03689e-06,-1.50486e-05,1.51598e-05,-1.87035e-05,1.18296e-05,6.94211e-06,0
-3.03834e-05,1.13369e-07,-6.35874e-06,-1.10032e-05,1.70801e-05,-1.84771e-05,1.10901e-05,3.18782e-06,0
-2.98183e-05,2.28538e-06,-5.93323e-06,-7.74109e-06,1.99128e-05,-1.78873e-05,1.01259e-05,9.79943e-07,0
-3.06979e-05,2.24651e-06,-5.78197e-06,-4.47069e-06,2.28019e-05,-1.64245e-05,1.10141e-05,1.53567e-06,0
-3.21051e-05,2.1809e-06,-4.91744e-06,1.73901e-06,2.30597e-05,-1.57591e-05,1.266e-05,2.80965e-06,0
-3.14625e-05,2.39603e-06,-3.78702e-06,1.18717e-05,2.11893e-05,-1.61346e-05,1.46513e-05,2.7543e-06,0
-3.01309e-05,2.61511e-06,-3.2976e-06,1.93914e-05,2.02854e-05,-1.57887e-05,1.67703e-05,4.74594e-06,0
-2.90786e-05,2.52121e-06,-4.23745e-06,1.95476e-05,1.89299e-05,-1.47731e-05,1.80345e-05,7.34746e-06,0
-2.92577e-05,2.14132e-06,-4.864e-06,1.31488e-05,1.71341e-05,-1.39021e-05,1.72541e-05,6.30698e-06,0
-3.12566e-05,1.88149e-06,-4.55883e-06,2.93943e-06,1.53107e-05,-1.27865e-05,1.47788e-05,2.1227e-06,0
-3.22135e-05,1.41526e-06,-5.37953e-06,-5.93175e-06,1.35471e-05,-1.18949e-05,1.29539e-05,-4.39282e-07,0
-3.19401e-05,3.59339e-07,-8.758e-06,-9.7207e-06,1.37854e-05,-1.20753e-05,1.20914e-05,7.31584e-07,0
-3.25001e-05,-1.7034e-06,-1.16878e-05,-7.40429e-06,1.60262e-05,-1.11848e-05,1.02471e-05,3.73019e-06,0
-3.45467e-05,-3.20097e-06,-1.28132e-05,-4.44675e-06,1.73831e-05,-9.46254e-06,6.93101e-06,7.16903e-06,0
-3.61491e-05,-4.00102e-06,-1.28129e-05,-6.47526e-06,1.71933e-05,-9.13042e-06,3.74949e-06,8.90875e-06,0
-3.6648e-05,-5.07175e-06,-1.14395e-05,-1.42895e-05,1.8492e-05,-9.06423e-06,3.31754e-06,7.41548e-06,0
-3.6855e-05,-7.16064e-06,-8.59162e-06,-2.33512e-05,2.12641e-05,-7.69129e-06,5.59323e-06,3.47442e-06,0
-3.61126e-05,-9.13561e-06,-7.05606e-06,-2.86475e-05,2.34175e-05,-5.87158e-06,7.03233e-06,4.20083e-07,0
-3.48877e-05,-9.44012e-06,-6.60424e-06,-2.648e-05,2.30317e-05,-4.70235e-06,6.37776e-06,-9.02064e-07,0
-3.51675e-05,-7.57918e-06,-6.71084e-06,-1.72631e-05,2.06341e-05,-4.1603e-06,5.39068e-06,-2.28389e-06,0
-3.59535e-05,-6.63978e-06,-7.52813e-06,-4.73123e-06,1.83866e-05,-4.49928e-06,5.43605e-06,-4.13847e-06,0
-3.52612e-05,-7.43502e-06,-6.92255e-06,6.05639e-06,1.98367e-05,-5.5565e-06,6.76964e-06,-5.75159e-06,0
-3.31728e-05,-7.29556e-06,-4.77517e-06,1.2988e-05,2.41046e-05,-4.18801e-06,7.64895e-06,-6.53233e-06,0
-3.04282e-05,-6.76482e-06,-3.42438e-06,1.80262e-05,2.70908e-05,-7.38027e-07,7.94966e-06,-4.24452e-06,0
-2.91466e-05,-5.78132e-06,-3.75196e-06,2.11897e-05,2.83145e-05,4.31107e-07,1.02211e-05,-1.76134e-06,0
-3.07529e-05,-3.84521e-06,-6.40458e-06,1.99241e-05,2.54039e-05,-8.32149e-07,1.35942e-05,-1.47937e-06,0
-3.23482e-05,-3.43237e-06,-8.71518e-06,1.55477e-05,1.85619e-05,-3.25566e-06,1.49918e-05,-2.97825e-06,0
-3.1498e-05,-3.1031e-06,-7.53511e-06,1.25925e-05,1.52238e-05,-5.84172e-06,1.48633e-05,-3.85075e-06,0
-2.99894e-05,-1.97121e-06,-5.85561e-06,1.11991e-05,1.67755e-05,-6.3267e-06,1.40215e-05,-2.69096e-06,0
-2.91831e-05,2.39164e-07,-4.18938e-06,5.94089e-06,1.79261e-05,-5.76589e-06,1.18957e-05,-1.45781e-06,0
-2.97996e-05,1.92691e-06,-1.78128e-06,-2.23576e-06,1.64446e-05,-6.51314e-06,1.05569e-05,-5.35052e-07,0
-3.07532e-05,7.10787e-07,1.03636e-06,-7.65734e-06,1.39378e-05,-8.87541e-06,1.11636e-05,2.85486e-07,0
-3.02382e-05,-7.58047e-07,2.03587e-06,-1.08407e-05,1.23974e-05,-1.01664e-05,1.17763e-05,1.48771e-06,0
-2.97459e-05,-2.01489e-06,-9.53192e-07,-1.25439e-05,1.32425e-05,-9.08975e-06,1.09048e-05,1.81918e-06,0
-3.00955e-05,-2.49853e-06,-7.37791e-06,-1.53404e-05,1.53841e-05,-7.93461e-06,1.05897e-05,1.78825e-06,0
-3.05587e-05,-4.02072e-06,-1.41891e-05,-1.85877e-05,1.73152e-05,-6.90644e-06,9.54343e-06,1.81008e-06,0
-3.12084e-05,-5.63342e-06,-1.81002e-05,-2.11906e-05,1.81841e-05,-5.50459e-06,7.36233e-06,3.27408e-06,0
-3.15015e-05,-5.65613e-06,-1.85602e-05,-2.25292e-05,1.86006e-05,-4.33437e-06,6.08998e-06,4.60189e-06,0
-3.1006e-05,-4.57113e-06,-1.67655e-05,-2.24584e-05,2.0635e-05,-4.73233e-06,6.12189e-06,4.70683e-06,0
-3.09174e-05,-3.70409e-06,-1.6029e-05,-2.28503e-05,2.24992e-05,-4.92853e-06,7.10261e-06,4.29925e-06,0
-3.10253e-05,-3.19977e-06,-1.6638e-05,-2.44995e-05,2.3116e-05,-4.42771e-06,8.12808e-06,3.96363e-06,0
-3.07431e-05,-1.95648e-06,-1.68072e-05,-2.84957e-05,2.24389e-05,-4.64799e-06,7.92095e-06,3.92866e-06,0
-3.0494e-05,-1.08579e-06,-1.69229e-05,-3.37011e-05,1.98761e-05,-5.6619e-06,5.802e-06,2.92715e-06,0
-3.00098e-05,-1.40926e-06,-1.72644e-05,-3.73841e-05,1.5168e-05,-6.46909e-06,5.01422e-06,1.56047e-06,0
-2.98931e-05,-1.73988e-06,-1.67452e-05,-3.69636e-05,1.06392e-05,-7.40153e-06,6.91129e-06,4.52873e-07,0
