ch1,ch2,ch3,ch4,ch5,ch6,ch7,ch8,class
-3.90193e-05,2.20633e-05,-2.40042e-06,6.53169e-05,2.8867e-05,-8.19051e-06,-0.00017789,2.27854e-06,0
-3.48235e-05,2.4382e-05,-8.82262e-07,7.08642e-05,4.05493e-05,-5.56291e-07,-0.000154114,-1.3761e-06,0
-3.06103e-05,2.85175e-05,1.46692e-06,9.41133e-05,5.33079e-05,5.71279e-06,-0.000100047,-5.92401e-06,0
-2.6627e-05,3.31462e-05,-3.34323e-07,7.14336e-05,5.57285e-05,6.42038e-06,-3.64534e-05,-7.68801e-06,0
-2.49848e-05,3.72805e-05,-5.73383e-06,-1.52529e-05,4.23091e-05,5.26334e-07,3.46017e-05,-7.42071e-06,0
-3.01251e-05,3.61641e-05,-1.15776e-05,-0.000102388,2.24889e-05,-1.01624e-05,0.000156822,-6.8495e-06,0
-3.93601e-05,2.78675e-05,-1.49753e-05,-0.00012948,1.04635e-05,-1.87677e-05,0.000361378,-6.81706e-06,0
-4.54288e-05,1.63722e-05,-1.51521e-05,-0.00010946,8.62155e-06,-2.21664e-05,0.000528457,-9.15468e-06,0
-4.3072e-05,7.64414e-06,-1.46478e-05,-7.59333e-05,1.0323e-05,-2.19648e-05,0.000493863,-1.14898e-05,0
-3.61841e-05,2.85242e-06,-1.51441e-05,-5.18581e-05,9.2158e-06,-2.0086e-05,0.000255524,-1.08988e-05,0
-2.88601e-05,4.58231e-07,-1.47858e-05,-4.52964e-05,4.47601e-06,-1.70601e-05,-4.9989e-05,-8.82893e-06,0
-2.33967e-05,1.0843e-06,-1.26781e-05,-3.4047e-05,-2.51032e-06,-1.25691e-05,-0.000287713,-6.70898e-06,0
-2.38937e-05,7.23591e-07,-1.14249e-05,-8.74641e-06,-5.7513e-06,-9.06395e-06,-0.000368867,-3.77636e-06,0
-2.65488e-05,-4.08148e-07,-1.27038e-05,2.67464e-05,-3.01797e-06,-9.08337e-06,-0.00033116,1.45507e-06,0
-2.66807e-05,-3.86766e-07,-1.41341e-05,6.44697e-05,-2.20682e-06,-1.22778e-05,-0.000245131,4.66315e-06,0
-2.53766e-05,-7.77332e-07,-1.24991e-05,8.43668e-05,-3.65241e-06,-1.33408e-05,-0.000131641,4.53916e-06,0
-2.57187e-05,-6.48331e-07,-9.62427e-06,6.54945e-05,-4.52638e-06,-9.8914e-06,-4.22199e-05,6.13503e-06,0
-2.76131e-05,4.28407e-07,-1.01048e-05,3.35006e-05,-6.31505e-06,-6.18916e-06,3.90874e-05,7.90019e-06,0
-2.7728e-05,5.47847e-07,-1.4152e-05,1.47875e-05,-8.03286e-07,-3.73354e-06,0.00012678,7.89099e-06,0
-2.64075e-05,1.46915e-06,-1.39807e-05,-3.70001e-06,2.26673e-05,1.77419e-06,0.000215215,8.28684e-06,0
-2.63024e-05,2.26538e-06,-6.85196e-06,-1.55428e-05,4.85886e-05,8.07259e-06,0.000261744,9.06343e-06,0
-2.83504e-05,2.22161e-07,-2.12824e-06,-2.17136e-05,5.35142e-05,7.18904e-06,0.000237344,8.42568e-06,0
-3.06692e-05,-2.19724e-06,-3.44849e-06,-4.84277e-05,4.04062e-05,1.18091e-06,0.00014309,8.35753e-06,0
-2.98365e-05,-1.17311e-06,-5.03924e-06,-8.42396e-05,2.90994e-05,-3.23907e-06,-1.89062e-05,1.02258e-05,0
-2.67841e-05,1.82573e-06,-4.81144e-06,-9.43095e-05,2.54266e-05,-4.40321e-06,-0.000209104,1.1851e-05,0
-2.47544e-05,3.03565e-06,-5.67225e-06,-8.14592e-05,2.052e-05,-5.04116e-06,-0.000362104,1.25183e-05,0
-2.43498e-05,2.27241e-06,-7.41368e-06,-6.57679e-05,9.01881e-06,-7.18602e-06,-0.000421428,1.25433e-05,0
-2.38812e-05,1.21573e-06,-7.12153e-06,-5.2833e-05,-2.68325e-06,-7.83973e-06,-0.000384964,1.15221e-05,0
-2.23135e-05,1.34294e-06,-4.93888e-06,-3.6075e-05,-8.27514e-07,-4.55868e-06,-0.000278098,1.03472e-05,0
-2.04325e-05,2.38019e-06,-3.51727e-06,-1.72098e-05,1.56867e-05,2.81793e-07,-0.000162667,9.26408e-06,0
-2.02203e-05,4.69285e-06,-4.5228e-06,-1.5541e-05,2.90117e-05,1.86797e-06,-8.23217e-05,7.59733e-06,0
-2.1431e-05,8.7514e-06,-6.04873e-06,-4.17119e-05,2.83494e-05,6.85553e-07,-4.2758e-05,6.01549e-06,0
-2.41478e-05,1.31632e-05,-7.12826e-06,-7.50317e-05,2.45457e-05,8.90459e-07,-4.42546e-05,4.86518e-06,0
-3.17964e-05,1.59011e-05,-1.12808e-05,-9.36644e-05,2.23533e-05,6.855e-08,-0.00011539,3.58175e-06,0
-4.30672e-05,1.9722e-05,-1.88604e-05,-8.19914e-05,1.63979e-05,-5.87536e-06,-0.000214567,2.19818e-06,0
-4.99205e-05,2.68962e-05,-2.12224e-05,-3.03268e-05,9.86054e-06,-1.22563e-05,-0.000238048,5.52392e-07,0
-5.1024e-05,3.24692e-05,-1.44023e-05,2.98679e-05,1.09958e-05,-1.49612e-05,-0.000181186,4.97598e-07,0
-4.89479e-05,3.38329e-05,-6.696e-06,6.34995e-05,1.94822e-05,-1.61164e-05,-9.58882e-05,3.18795e-06,0
-4.54228e-05,3.16166e-05,-4.99584e-06,6.75016e-05,2.19681e-05,-1.90065e-05,3.59009e-05,7.35155e-06,0
-4.24286e-05,2.76066e-05,-8.52695e-06,6.42515e-05,1.22459e-05,-2.44533e-05,0.000175856,1.01617e-05,0
-3.75313e-05,2.24087e-05,-1.33213e-05,7.92222e-05,-3.96599e-06,-2.50854e-05,0.00025448,1.09812e-05,0
-3.13194e-05,1.40514e-05,-1.6193e-05,0.0001075,-2.01999e-05,-1.73853e-05,0.000282288,9.91878e-06,0
-2.47142e-05,5.41583e-06,-1.44697e-05,0.00010907,-3.23576e-05,-9.83762e-06,0.000293798,7.28339e-06,0
-1.99192e-05,1.88949e-06,-7.49386e-06,6.7539e-05,-3.63744e-05,-7.10234e-06,0.000322832,6.88686e-06,0
-2.22555e-05,2.21538e-06,-2.57257e-06,2.13247e-06,-2.99842e-05,-9.38298e-06,0.000353468,7.10606e-06,0
-3.07178e-05,-7.02902e-07,-5.80667e-06,-5.69009e-05,-2.41871e-05,-1.63615e-05,0.000349849,7.62283e-06,0
-3.92914e-05,-8.77514e-06,-1.31483e-05,-7.61261e-05,-2.44282e-05,-2.57515e-05,0.000291999,8.13759e-06,0
-4.20261e-05,-1.51784e-05,-1.78993e-05,-4.74312e-05,-2.39225e-05,-3.26848e-05,0.000221315,8.18316e-06,0
-4.04244e-05,-1.5217e-05,-1.73932e-05,3.43447e-06,-1.5835e-05,-3.62838e-05,0.000174031,7.40929e-06,0
-3.85517e-05,-9.64189e-06,-1.32174e-05,4.22637e-05,-4.87605e-07,-4.2554e-05,0.000140681,5.81017e-06,0
-3.68277e-05,-2.44641e-06,-7.03844e-06,5.90041e-05,1.42208e-05,-4.89888e-05,0.0001066,5.26326e-06,0
-3.46428e-05,1.48724e-06,-1.76399e-06,6.21812e-05,2.61294e-05,-3.9403e-05,6.82796e-05,5.78707e-06,0
-3.21536e-05,2.89908e-06,-4.11217e-07,7.15197e-05,4.1992e-05,-1.05878e-05,1.70652e-05,7.99298e-06,0
-3.0465e-05,5.08624e-06,-1.82124e-06,9.1598e-05,6.20028e-05,1.25087e-05,-5.28997e-05,1.02861e-05,0
-2.94731e-05,6.79768e-06,-4.91243e-06,0.000101992,7.3615e-05,1.16597e-05,-0.000115721,1.04468e-05,0
-2.73056e-05,6.69332e-06,-9.04689e-06,7.90898e-05,7.08619e-05,-1.33975e-06,-0.000140143,7.55898e-06,0
-2.27559e-05,6.98914e-06,-1.10723e-05,2.76021e-05,6.17223e-05,-6.70861e-06,-0.000124548,4.11879e-06,0
-1.85239e-05,8.35148e-06,-9.06243e-06,-2.34202e-05,5.29305e-05,5.15427e-07,-9.48789e-05,3.01585e-06,0
-1.57881e-05,9.31067e-06,-5.39779e-06,-5.01651e-05,4.19888e-05,1.59382e-05,-7.4659e-05,5.20914e-06,0
-1.34801e-05,9.89237e-06,-3.38072e-06,-5.36707e-05,3.15384e-05,2.92781e-05,-8.88084e-05,6.54105e-06,0
-1.53036e-05,1.21221e-05,-4.38436e-06,-5.33662e-05,2.67454e-05,3.01289e-05,-0.000129862,4.05136e-06,0
-2.28127e-05,1.65905e-05,-7.99619e-06,-6.08476e-05,2.34886e-05,1.98564e-05,-0.000127341,1.05779e-06,0
-2.83088e-05,2.1377e-05,-9.80791e-06,-6.88718e-05,2.06641e-05,8.09533e-06,-6.84179e-05,-6.41243e-07,0
-2.66925e-05,2.49959e-05,-7.65206e-06,-6.71315e-05,2.21513e-05,1.10381e-06,-4.22575e-05,-6.43188e-07,0
-1.98351e-05,2.56237e-05,-5.084e-06,-7.69269e-05,2.03969e-05,-8.68942e-07,-4.31334e-05,1.97399e-07,0
-1.32073e-05,2.49922e-05,-5.97518e-07,-0.000101104,1.21916e-05,-3.5472e-06,2.92452e-06,9.73419e-07,0
-1.37087e-05,2.91315e-05,3.94362e-06,-0.000102724,5.74839e-06,-4.71583e-06,8.61343e-05,5.36734e-07,0
-1.87472e-05,3.31411e-05,1.72639e-06,-9.03708e-05,-8.41401e-08,8.35848e-06,0.000159512,-1.34307e-06,0
-2.32174e-05,3.3607e-05,-4.97456e-06,-7.39529e-05,-8.59346e-06,2.89083e-05,0.000205446,-2.02528e-06,0
-2.57408e-05,3.49711e-05,-9.21052e-06,-2.25116e-05,-1.12509e-05,3.71211e-05,0.000237026,-2.45055e-06,0
-2.62881e-05,3.61952e-05,-8.69379e-06,4.40991e-05,-9.88987e-06,2.05673e-05,0.000248648,-1.42559e-06,0
-2.8431e-05,3.79128e-05,-5.35546e-06,8.02539e-05,-1.29673e-05,-8.18889e-06,0.000231479,4.01795e-07,0
-3.13197e-05,4.12728e-05,-2.20708e-06,7.59197e-05,-1.75552e-05,-2.37291e-05,0.000199531,-3.0286e-07,0
-3.39318e-05,4.68779e-05,-2.88937e-06,5.35844e-05,-1.96518e-05,-2.47276e-05,0.000143202,-2.33773e-06,0
-3.43242e-05,5.5222e-05,-4.68937e-06,2.71691e-05,-1.50695e-05,-2.30217e-05,7.67618e-05,-3.42839e-06,0
-3.29674e-05,6.284e-05,-4.22138e-06,-5.25888e-06,-3.18373e-06,-2.22949e-05,2.76746e-05,-4.85918e-06,0
-3.29921e-05,6.43122e-05,-2.53593e-06,-3.93227e-05,1.16147e-05,-1.75978e-05,-5.02453e-07,-7.53345e-06,0
-3.43185e-05,5.62931e-05,-5.95317e-07,-5.8372e-05,2.50134e-05,-8.9885e-06,-3.48318e-06,-8.51902e-06,0
-3.39848e-05,4.3387e-05,2.91717e-06,-4.98202e-05,3.61469e-05,-7.39157e-07,2.46315e-05,-5.96139e-06,0
-3.13319e-05,3.30132e-05,7.97558e-06,-2.38145e-05,4.18376e-05,3.16523e-06,8.26304e-05,5.34689e-06,0
-2.99132e-05,2.79674e-05,1.02569e-05,5.13653e-06,3.73934e-05,5.86937e-07,0.000144695,2.3838e-05,0
-3.0625e-05,2.45003e-05,7.38222e-06,2.98214e-05,2.38603e-05,-6.3196e-06,0.000174371,3.73521e-05,0
-3.25437e-05,1.78464e-05,2.35149e-06,4.33251e-05,1.038e-05,-1.3371e-05,0.000155446,3.92321e-05,0
-3.38302e-05,8.94754e-06,-1.00316e-06,3.35206e-05,6.2167e-06,-1.91988e-05,9.50786e-05,3.1383e-05,0
-3.47183e-05,-1.04752e-06,-2.41988e-06,9.08974e-08,1.33508e-05,-2.68416e-05,-2.61696e-06,1.33931e-05,0
-3.59213e-05,-1.34468e-05,-4.63555e-06,-5.21488e-05,2.22513e-05,-3.78049e-05,-0.000111153,-1.19865e-05,0
-3.81653e-05,-2.80542e-05,-1.03161e-05,-0.00011355,2.0163e-05,-4.65542e-05,-0.000172524,-3.41101e-05,0
-4.06517e-05,-4.17083e-05,-1.64175e-05,-0.000155288,1.13709e-05,-3.9412e-05,-0.000164634,-4.34506e-05,0
-4.22049e-05,-5.17808e-05,-1.94421e-05,-0.000163637,6.52465e-06,-2.15622e-05,-0.000151389,-4.04647e-05,0
-4.17428e-05,-5.73082e-05,-1.90015e-05,-0.000157723,7.02858e-06,-1.42696e-05,-0.000188336,-3.34369e-05,0
-4.02389e-05,-5.77949e-05,-1.74887e-05,-0.000143083,6.60102e-06,-1.93941e-05,-0.000234529,-2.76468e-05,0
-3.94265e-05,-5.35307e-05,-1.8616e-05,-0.000145232,2.599e-07,-2.26769e-05,-0.000237417,-2.11821e-05,0
-3.75383e-05,-4.6466e-05,-2.3621e-05,-0.000170845,-1.11329e-05,-1.97525e-05,-0.000193836,-1.2498e-05,0
-3.27999e-05,-4.07899e-05,-2.97857e-05,-0.000149031,-2.16487e-05,-2.43319e-05,-0.000115869,-5.57986e-06,0
-2.93586e-05,-3.53862e-05,-3.19494e-05,-6.22786e-05,-2.21088e-05,-3.77898e-05,-4.53368e-05,-2.51012e-06,0
-3.03445e-05,-2.40043e-05,-2.82268e-05,2.99057e-05,-8.38e-06,-4.2759e-05,-2.25338e-06,-9.02338e-07,0
-3.27359e-05,-7.64216e-06,-2.33302e-05,8.36628e-05,7.9839e-06,-3.43659e-05,3.71764e-05,9.15195e-07,0
-3.58631e-05,5.46509e-06,-2.0753e-05,0.000108603,1.59765e-05,-1.89867e-05,8.39069e-05,3.97665e-06,0
-3.88529e-05,1.08711e-05,-1.93077e-05,0.000136537,1.85618e-05,-4.60034e-06,0.000133543,8.45753e-06,0
-3.70919e-05,1.31894e-05,-1.71264e-05,0.000174796,1.88336e-05,-5.25121e-07,0.000194156,1.20605e-05,0
-3.19832e-05,1.44059e-05,-1.34675e-05,0.000191087,1.93156e-05,-1.30884e-05,0.000277569,1.33613e-05,0
-2.82472e-05,1.47392e-05,-9.56833e-06,0.000154019,1.72676e-05,-2.94737e-05,0.000357378,1.20912e-05,0
-2.79344e-05,1.53389e-05,-6.16211e-06,0.00010302,1.49533e-05,-2.04538e-05,0.000384082,1.03642e-05,0
-3.21768e-05,1.58195e-05,-3.65016e-06,8.7382e-05,1.65729e-05,1.80691e-05,0.000309406,9.87119e-06,0
-4.07087e-05,1.73665e-05,-1.41524e-06,0.000105685,1.95459e-05,4.52366e-05,0.000125417,9.9525e-06,0
-5.18333e-05,2.08201e-05,5.04847e-07,0.000123133,1.92047e-05,3.11633e-05,-0.000114439,8.71148e-06,0
-5.90281e-05,2.64035e-05,8.6546e-07,0.00011564,1.25902e-05,-3.03028e-06,-0.000331105,6.84956e-06,0
-5.27204e-05,3.36013e-05,-3.0522e-06,8.21162e-05,3.36872e-06,-2.05683e-05,-0.000458292,6.10741e-06,0
-3.62745e-05,4.02622e-05,-1.01248e-05,4.39921e-05,-1.80227e-06,-1.67866e-05,-0.000460994,9.03305e-06,0
-2.74503e-05,4.39495e-05,-1.54779e-05,4.40815e-05,3.10978e-06,-1.19789e-05,-0.000363001,1.53129e-05,0
-2.99386e-05,4.64008e-05,-1.64228e-05,8.33657e-05,1.36667e-05,-1.50422e-05,-0.000231713,1.89942e-05,0
-3.17135e-05,4.84525e-05,-1.33196e-05,0.000103811,2.0453e-05,-2.03504e-05,-0.00011869,1.70303e-05,0
-2.71578e-05,4.96283e-05,-1.00826e-05,6.38751e-05,1.85074e-05,-2.29489e-05,-3.61063e-05,1.18155e-05,0
-2.08511e-05,4.79825e-05,-1.02984e-05,-1.6568e-05,1.2657e-05,-2.55007e-05,1.41419e-05,6.49662e-06,0
-1.79627e-05,4.16198e-05,-1.30168e-05,-0.000112479,8.5145e-06,-3.00484e-05,3.74877e-05,2.61434e-06,0
-1.91663e-05,3.08763e-05,-1.44732e-05,-0.000188006,5.29334e-06,-3.49028e-05,5.13167e-05,1.0531e-07,0
-2.19022e-05,1.65082e-05,-1.17511e-05,-0.000200357,5.66176e-06,-3.46527e-05,6.94418e-05,-2.13932e-06,0
-2.546e-05,2.16656e-06,-6.38563e-06,-0.000168554,1.83118e-05,-3.04906e-05,8.24078e-05,-4.65147e-06,0
-2.79503e-05,-5.43063e-06,-2.49018e-06,-0.000141603,3.73813e-05,-2.59728e-05,8.303e-05,-6.53147e-06,0
-2.61795e-05,-2.08251e-06,-3.57544e-06,-0.000102992,4.706e-05,-2.09029e-05,5.90614e-05,-6.15136e-06,0
-2.22594e-05,5.6122e-06,-6.00352e-06,-1.9548e-05,4.59499e-05,-1.53612e-05,-3.79735e-05,-4.63599e-06,0
-2.04601e-05,1.05599e-05,-4.58618e-06,0.000109939,3.947e-05,-8.50104e-06,-0.00016684,-3.57756e-06,0
-1.83628e-05,1.33987e-05,-1.97123e-06,0.000237476,3.32568e-05,1.69663e-06,-0.000215525,-2.93086e-06,0
-1.48759e-05,1.19693e-05,9.59391e-07,0.000290464,3.2406e-05,1.26621e-05,-0.000173985,-1.30674e-06,0
-1.33252e-05,4.49336e-06,2.02682e-06,0.000237884,2.96751e-05,1.6862e-05,-9.36803e-05,1.50038e-06,0
-1.34047e-05,-1.60288e-06,-2.80543e-07,8.47239e-05,2.11501e-05,1.77941e-05,-1.72666e-05,4.52011e-06,0
-1.40462e-05,-8.03545e-07,-4.56346e-06,-9.54219e-05,1.38718e-05,3.42044e-05,2.61774e-05,5.74169e-06,0
-1.50402e-05,4.15417e-06,-7.48332e-06,-0.000212179,1.36426e-05,5.66831e-05,4.5317e-05,5.84474e-06,0
-1.62221e-05,1.0344e-05,-8.8683e-06,-0.000234076,1.72882e-05,5.54125e-05,7.0544e-05,5.5417e-06,0
-1.61727e-05,1.70042e-05,-9.78552e-06,-0.000200256,1.59483e-05,3.28526e-05,0.000116154,4.37221e-06,0
-1.60112e-05,2.10337e-05,-1.04565e-05,-0.000148905,1.05726e-05,9.96276e-06,0.000158914,3.21939e-06,0
-1.72054e-05,1.9487e-05,-1.05611e-05,-9.00676e-05,4.27306e-06,-2.53788e-06,0.000180795,3.64416e-06,0
-1.8641e-05,1.4572e-05,-8.55433e-06,-3.99839e-05,1.73147e-06,-8.59919e-06,0.000189648,5.24813e-06,0
-1.91988e-05,1.02384e-05,-4.11573e-06,-3.15965e-06,1.01625e-05,-1.16504e-05,0.000224594,5.41287e-06,0
-1.91781e-05,7.49171e-06,4.06547e-07,2.84395e-05,2.79191e-05,-1.327e-05,0.000287325,4.89443e-06,0
-1.89828e-05,3.62876e-06,1.2953e-06,4.69082e-05,4.2901e-05,-1.32525e-05,0.000291293,4.29508e-06,0
-1.97123e-05,-1.70188e-06,-3.50744e-07,4.07163e-05,4.72966e-05,-1.13075e-05,0.000209337,3.59982e-06,0
-2.37554e-05,-6.00086e-06,-4.24914e-06,1.95689e-05,3.67318e-05,-1.11903e-05,0.00015426,2.88286e-06,0
-3.3075e-05,-8.89274e-06,-1.10198e-05,-6.42004e-06,1.32414e-05,-1.7655e-05,0.000214627,2.94813e-06,0
-4.42223e-05,-1.04511e-05,-1.78932e-05,-2.8052e-05,-9.4601e-06,-2.71342e-05,0.000323994,3.40857e-06,0
-4.8565e-05,-1.00755e-05,-1.92862e-05,-3.54477e-05,-1.90422e-05,-2.80783e-05,0.000359559,3.79397e-06,0
-4.51017e-05,-8.4216e-06,-1.37084e-05,-1.02389e-05,-1.41665e-05,-1.7705e-05,0.000251147,4.20708e-06,0
-4.01818e-05,-5.07001e-06,-3.11538e-06,3.49977e-05,3.67224e-06,-5.2884e-06,2.26674e-05,3.63586e-06,0
-3.59173e-05,-1.13057e-06,6.3559e-06,5.62558e-05,3.02433e-05,1.04885e-06,-0.000213883,2.29059e-06,0
-3.46376e-05,-1.08198e-06,5.79683e-06,4.48719e-05,4.48973e-05,-1.52555e-06,-0.000344242,2.11015e-06,0
-3.63191e-05,-5.71188e-06,-6.85974e-06,1.20075e-05,3.13987e-05,-1.28191e-05,-0.000345107,2.54097e-06,0
-3.39138e-05,-8.41921e-06,-1.8964e-05,-2.5322e-05,6.79318e-06,-2.19955e-05,-0.000233911,1.13037e-06,0
-2.65034e-05,-4.91577e-06,-1.85987e-05,-4.39444e-05,4.04965e-07,-2.02278e-05,-9.19595e-05,-1.49733e-06,0
-2.29282e-05,5.42418e-07,-1.28794e-05,-7.42817e-05,-6.07201e-07,-1.53789e-05,-4.23814e-05,-3.2987e-06,0
-2.81957e-05,3.44764e-06,-1.28498e-05,-0.000100119,-1.45997e-05,-1.34391e-05,-7.43385e-05,-3.824e-06,0
-3.31542e-05,4.2398e-06,-1.55928e-05,-5.77785e-05,-2.15141e-05,-1.19253e-05,-0.000109244,-3.85641e-06,0
-3.29777e-05,7.86448e-06,-1.68216e-05,3.77576e-05,-1.46448e-05,-1.71143e-05,-0.000110361,-4.4174e-06,0
-3.12237e-05,1.32563e-05,-1.44015e-05,0.000120168,-7.09938e-06,-2.88963e-05,-9.93013e-05,-5.51948e-06,0
-2.9618e-05,1.68924e-05,-1.04832e-05,0.000129518,-4.59619e-06,-3.69453e-05,-0.000108127,-5.59682e-06,0
-3.52933e-05,1.91063e-05,-9.92146e-06,6.6014e-05,-7.49301e-07,-3.76342e-05,-0.000133699,-4.26368e-06,0
-5.29313e-05,2.00976e-05,-1.16055e-05,-2.93451e-05,1.28496e-05,-3.30878e-05,-0.000139234,-3.10547e-06,0
-7.66966e-05,2.08348e-05,-1.26004e-05,-9.80592e-05,3.04402e-05,-2.67966e-05,-0.000100587,-3.04471e-06,0
-9.95486e-05,2.26269e-05,-1.02122e-05,-0.000113603,4.07987e-05,-2.24053e-05,-4.23672e-05,-3.42468e-06,0
-0.000117118,2.54716e-05,-6.35442e-06,-8.79418e-05,4.68537e-05,-2.21299e-05,-1.01608e-05,-4.69232e-06,0
-0.000125243,2.6957e-05,-3.7896e-06,-4.85077e-05,5.71703e-05,-2.63188e-05,-1.983e-06,-6.71544e-06,0
-0.000123874,2.6585e-05,-4.60138e-06,-1.65244e-05,6.69458e-05,-3.39016e-05,4.86133e-05,-7.80808e-06,0
-0.000113101,2.79123e-05,-7.34337e-06,4.07698e-06,6.89495e-05,-4.23865e-05,0.000185425,-7.55592e-06,0
-9.25148e-05,3.19091e-05,-1.06203e-05,1.0533e-05,6.47015e-05,-4.56509e-05,0.000371238,-6.6091e-06,0
-6.53843e-05,3.54721e-05,-1.39271e-05,1.56923e-06,5.37882e-05,-3.27849e-05,0.000520299,-5.20674e-06,0
-3.27946e-05,3.84273e-05,-1.67929e-05,-1.83456e-05,3.26683e-05,3.63567e-06,0.0005736,-4.10055e-06,0
1.11553e-05,4.25324e-05,-1.70582e-05,-3.23272e-05,1.05582e-05,5.03487e-05,0.000500099,-1.73378e-06,0
6.42722e-05,4.71131e-05,-1.39244e-05,-3.13973e-05,-2.17355e-07,7.29873e-05,0.000305903,4.57499e-06,0
0.000101646,4.83862e-05,-9.26517e-06,-1.03077e-05,8.00572e-07,5.80178e-05,4.25079e-05,1.33478e-05,0
0.000101701,4.24317e-05,-2.95764e-06,2.82024e-05,6.43726e-06,3.22219e-05,-0.000203732,1.84317e-05,0
7.31236e-05,3.10363e-05,3.7854e-06,6.0215e-05,1.03431e-05,2.6554e-05,-0.00034823,1.59343e-05,0
4.03005e-05,1.75437e-05,7.27896e-06,6.76863e-05,1.06536e-05,3.24455e-05,-0.000380277,9.85859e-06,0
1.86365e-05,3.43391e-06,8.46458e-06,6.2135e-05,1.27649e-05,2.53478e-05,-0.000344395,5.17302e-06,0
7.43138e-06,-8.49294e-06,9.53622e-06,4.4687e-05,2.25732e-05,1.26471e-05,-0.000268205,1.20182e-06,0
-4.53472e-07,-1.42568e-05,8.49584e-06,9.00013e-06,3.5815e-05,6.38214e-06,-0.000202707,-4.80874e-06,0
-5.7078e-06,-7.44411e-06,5.9056e-06,-3.01797e-05,4.20766e-05,3.5242e-06,-0.000198269,-8.89447e-06,0
-1.01007e-05,4.78749e-06,2.42633e-06,-6.05779e-05,3.73152e-05,-5.06958e-06,-0.000230584,-9.70646e-06,0
-1.47863e-05,1.09698e-05,-9.42701e-07,-7.79315e-05,2.78376e-05,-2.04228e-05,-0.000261265,-1.03608e-05,0
-1.86895e-05,1.39499e-05,-2.32354e-06,-5.95848e-05,2.11151e-05,-2.98705e-05,-0.000237466,-1.23721e-05,0
-2.26458e-05,1.69649e-05,-2.29741e-06,-3.99416e-06,1.84365e-05,-3.00282e-05,-0.000152616,-1.66664e-05,0
-2.48504e-05,1.85667e-05,-1.30678e-06,5.79786e-05,1.50235e-05,-2.75687e-05,-7.71349e-05,-1.94238e-05,0
-2.53693e-05,1.73279e-05,-1.15813e-06,8.99133e-05,1.54902e-05,-2.73589e-05,-3.71273e-05,-1.79429e-05,0
-2.60048e-05,1.65554e-05,-3.93232e-06,7.86248e-05,2.42567e-05,-2.46578e-05,-2.25753e-05,-1.32479e-05,0
-2.77679e-05,1.69447e-05,-9.83844e-06,4.34211e-05,2.93199e-05,-1.96703e-05,-6.46959e-06,-8.30488e-06,0
-2.98589e-05,1.71781e-05,-1.67352e-05,5.26158e-06,2.20416e-05,-1.84351e-05,2.11273e-05,-4.84911e-06,0
-3.21181e-05,1.69143e-05,-2.1097e-05,-3.21756e-05,5.94391e-06,-2.12276e-05,5.1183e-05,-2.29828e-06,0
-3.4336e-05,1.68671e-05,-2.27723e-05,-9.43015e-05,-1.08857e-05,-2.57089e-05,7.54527e-05,6.92194e-07,0
-3.41192e-05,1.855e-05,-2.18819e-05,-0.000191072,-1.97547e-05,-2.79793e-05,8.8547e-05,3.15688e-06,0
-3.11391e-05,2.05777e-05,-2.02918e-05,-0.000273235,-1.94304e-05,-2.63636e-05,9.64475e-05,4.59429e-06,0
-2.92464e-05,2.17772e-05,-2.00586e-05,-0.000272298,-1.87918e-05,-2.27671e-05,0.000102722,5.40898e-06,0
-3.02287e-05,2.20307e-05,-2.21605e-05,-0.000178624,-2.5803e-05,-2.10739e-05,0.000105777,4.99504e-06,0
-3.23507e-05,2.23593e-05,-2.6666e-05,-2.82184e-05,-3.69374e-05,-2.16181e-05,0.000102482,3.84908e-06,0
-3.45902e-05,2.27418e-05,-3.17199e-05,0.000127324,-4.25352e-05,-2.30706e-05,0.000108109,1.75601e-06,0
-3.65169e-05,2.27028e-05,-3.37968e-05,0.000229395,-3.83174e-05,-2.34934e-05,0.000128969,4.65274e-07,0
-3.78629e-05,2.31586e-05,-3.07373e-05,0.000241276,-3.13422e-05,-2.18257e-05,0.000162799,1.03981e-06,0
-3.8224e-05,2.57712e-05,-2.30616e-05,0.000173046,-3.08908e-05,-1.98372e-05,0.000201757,9.52525e-07,0
-3.73413e-05,2.92631e-05,-1.16409e-05,7.85845e-05,-3.48862e-05,-1.73012e-05,0.000234251,-6.82351e-07,0
-3.61366e-05,2.82387e-05,1.79939e-07,7.10379e-06,-3.27246e-05,-1.41131e-05,0.000240705,-1.52151e-06,0
-3.72067e-05,2.08584e-05,5.15568e-06,-4.47799e-05,-2.29407e-05,-1.56086e-05,0.000207619,-1.61714e-06,0
-4.07009e-05,1.42691e-05,9.94002e-07,-7.42143e-05,-1.17294e-05,-2.0621e-05,0.000117553,-1.22289e-06,0
-4.50287e-05,1.57392e-05,-2.87144e-06,-5.29582e-05,3.72085e-06,-1.9937e-05,-1.79106e-05,-5.39797e-07,0
-4.74974e-05,2.1525e-05,-2.48515e-07,2.02821e-05,2.27568e-05,-1.00508e-05,-0.000144581,2.0879e-07,0
-4.64545e-05,2.28969e-05,4.09867e-06,9.37953e-05,3.41124e-05,1.4307e-07,-0.00019238,4.37814e-07,0
-4.49562e-05,1.83914e-05,8.27149e-06,0.000129104,3.51546e-05,5.40991e-06,-0.000153699,1.90029e-06,0
-4.35853e-05,1.12114e-05,1.33013e-05,0.000123038,3.32816e-05,1.05218e-05,-8.01718e-05,3.82117e-06,0
-4.1334e-05,8.15642e-06,1.37981e-05,6.86985e-05,3.30258e-05,1.76931e-05,-1.48046e-05,2.82305e-06,0
-3.95749e-05,1.00325e-05,7.85207e-06,6.48745e-06,3.3588e-05,2.68026e-05,1.41751e-05,2.31735e-07,0
-3.63872e-05,1.17542e-05,4.18757e-07,-3.99896e-05,2.90217e-05,3.22861e-05,3.52321e-05,-2.34941e-06,0
-3.17127e-05,1.26462e-05,-3.67007e-06,-7.28813e-05,2.37397e-05,3.12778e-05,5.26203e-05,-3.43818e-06,0
-3.32213e-05,1.19315e-05,-3.5723e-06,-9.00131e-05,2.53635e-05,2.13021e-05,2.86831e-05,-4.50386e-06,0
-4.23929e-05,1.15858e-05,-2.13449e-06,-8.34714e-05,2.95282e-05,2.94756e-06,-2.44097e-05,-4.78923e-06,0
-5.08502e-05,1.16736e-05,-2.81175e-06,-4.59152e-05,2.81493e-05,-2.09287e-05,-2.9952e-05,-3.72259e-06,0
-5.24563e-05,1.27115e-05,-5.36605e-06,1.58881e-05,1.86952e-05,-4.11386e-05,3.16098e-05,-1.79259e-06,0
-4.7005e-05,1.58554e-05,-6.57519e-06,7.74417e-05,1.03713e-05,-4.02477e-05,0.000115607,8.06662e-07,0
-3.98066e-05,1.81145e-05,-5.65197e-06,0.000100057,1.33819e-05,-2.15821e-05,0.000167359,4.10829e-06,0
-3.74568e-05,1.53091e-05,-5.66046e-06,8.33372e-05,2.35278e-05,-5.83488e-06,0.000165748,7.23118e-06,0
-4.18599e-05,8.5278e-06,-9.08108e-06,6.12225e-05,2.77305e-05,-4.52764e-06,0.000142155,8.01509e-06,0
-4.70215e-05,3.20234e-06,-1.4624e-05,5.45648e-05,2.16567e-05,-6.17257e-06,0.000130456,6.65592e-06,0
-4.72032e-05,1.47325e-06,-1.87086e-05,4.6627e-05,1.08157e-05,-2.54754e-08,0.000118258,5.00665e-06,0
-4.32277e-05,1.48228e-06,-1.9944e-05,1.89101e-05,1.24581e-06,2.09786e-06,7.00082e-05,4.34527e-06,0
-3.98403e-05,3.38168e-06,-1.94344e-05,-2.71853e-05,-4.47132e-06,-1.06992e-05,7.89508e-06,3.27274e-06,0
-3.96543e-05,9.70758e-06,-1.70242e-05,-7.81893e-05,-4.47677e-06,-2.58861e-05,-3.38108e-05,1.59822e-06,0
-3.96594e-05,1.76791e-05,-1.31517e-05,-0.00013049,-5.63295e-07,-2.72082e-05,-6.09823e-05,-8.49803e-08,0
-3.72505e-05,2.28669e-05,-7.86565e-06,-0.000185575,4.12366e-06,-1.70505e-05,-8.96016e-05,-9.01571e-07,0
-3.34872e-05,2.58042e-05,-2.81917e-06,-0.000237284,7.19901e-06,-9.83937e-06,-0.000100212,-1.27601e-06,0
-3.16592e-05,2.7615e-05,-5.12999e-06,-0.000245616,5.57027e-06,-1.15451e-05,-8.05593e-05,3.9025e-08,0
-3.1031e-05,2.41318e-05,-1.39806e-05,-0.000166405,3.66515e-06,-1.73254e-05,-4.81075e-05,2.94688e-06,0
-2.92837e-05,1.6298e-05,-1.77939e-05,-2.87163e-05,7.86964e-06,-2.20436e-05,-2.46201e-05,3.83168e-06,0
6.02259e-06,7.41125e-06,-8.20453e-06,-1.36272e-05,1.4111e-05,-2.54133e-05,4.91731e-05,-9.10606e-06,0
1.50154e-05,5.6444e-06,-1.02488e-05,-3.92234e-05,2.23153e-05,-1.95878e-05,5.90103e-06,-8.80928e-06,0
1.84136e-05,4.1801e-06,-1.24075e-05,-4.40105e-05,2.4774e-05,-4.82787e-06,-3.25591e-05,-6.48609e-06,0
1.25265e-05,4.51149e-06,-1.27514e-05,-3.80981e-05,1.95598e-05,3.27322e-06,-5.6593e-05,-3.31888e-06,0
1.77055e-06,3.59511e-06,-1.03875e-05,-3.27641e-05,1.49078e-05,-2.05609e-07,-6.51245e-05,-5.15045e-07,0
-5.29114e-06,2.26659e-06,-8.4543e-06,-3.17169e-05,1.46818e-05,-9.73272e-06,-6.02932e-05,1.16215e-06,0
-8.87064e-06,2.78163e-06,-9.3507e-06,-3.6885e-05,1.75147e-05,-1.57542e-05,-6.56382e-05,1.78268e-06,0
-1.24311e-05,3.55071e-06,-1.01784e-05,-4.84071e-05,1.94474e-05,-1.57372e-05,-9.39219e-05,8.21104e-08,0
-1.79762e-05,3.78581e-06,-8.85849e-06,-5.79817e-05,1.80768e-05,-1.28979e-05,-0.000119545,-2.47828e-06,0
-2.28997e-05,2.76682e-06,-8.16076e-06,-5.71172e-05,1.10653e-05,-1.0861e-05,-0.000143495,-4.4858e-06,0
-2.74682e-05,6.16882e-08,-1.05513e-05,-4.62502e-05,1.8919e-07,-1.16393e-05,-0.000148529,-5.9205e-06,0
-3.3148e-05,-1.55598e-06,-1.28365e-05,-2.92574e-05,-1.03434e-05,-1.44869e-05,-9.54761e-05,-6.63333e-06,0
-3.85254e-05,5.15841e-08,-1.15319e-05,-6.14853e-06,-1.43394e-05,-1.64621e-05,4.88401e-07,-6.26117e-06,0
-4.08803e-05,3.57683e-06,-6.82211e-06,2.04151e-05,-7.87472e-06,-1.62363e-05,9.79884e-05,-5.48693e-06,0
-3.80458e-05,7.21701e-06,-1.54853e-06,4.16218e-05,5.81766e-06,-1.44964e-05,0.000164486,-4.95564e-06,0
-3.22296e-05,9.35939e-06,1.9648e-06,4.82634e-05,2.10848e-05,-1.09548e-05,0.000195589,-4.2895e-06,0
-2.79953e-05,9.48122e-06,1.99441e-06,3.50791e-05,3.00066e-05,-9.22781e-06,0.000201642,-3.88745e-06,0
-2.88755e-05,7.89111e-06,-2.69144e-08,1.52321e-05,3.08111e-05,-1.28601e-05,0.000193916,-3.93734e-06,0
-3.15073e-05,6.86122e-06,-1.67284e-06,6.7393e-06,2.83933e-05,-1.53146e-05,0.00017568,-4.28829e-06,0
-3.2863e-05,7.15136e-06,-2.46677e-06,1.35119e-05,2.60251e-05,-1.94934e-06,0.000147922,-4.42396e-06,0
-3.10177e-05,8.97291e-06,-2.6682e-06,2.68051e-05,2.36275e-05,2.68086e-05,0.000117636,-3.96475e-06,0
-2.62887e-05,1.13183e-05,-2.22645e-06,3.85166e-05,2.19535e-05,4.80608e-05,9.81908e-05,-2.51891e-06,0
-2.18206e-05,1.22763e-05,-1.84691e-06,4.01756e-05,2.00184e-05,4.21813e-05,9.28693e-05,-5.40211e-07,0
-2.44894e-05,1.18237e-05,-2.32361e-06,3.28124e-05,1.90456e-05,1.7818e-05,8.4408e-05,4.70212e-07,0
-3.34035e-05,1.25953e-05,-3.43968e-06,3.26222e-05,2.10119e-05,-9.25258e-07,6.64882e-05,-2.71442e-08,0
-3.82788e-05,1.5106e-05,-5.82267e-06,4.69748e-05,2.25758e-05,-5.91544e-06,4.32242e-05,-7.96808e-07,0
-3.54442e-05,1.6007e-05,-6.96561e-06,5.85364e-05,1.96089e-05,-2.42365e-06,1.6248e-05,-1.46685e-06,0
-2.92631e-05,1.26176e-05,-6.13294e-06,5.11303e-05,1.3665e-05,2.87882e-06,-7.74467e-06,-1.41237e-06,0
-2.79837e-05,7.93416e-06,-5.04659e-06,2.85376e-05,9.86675e-06,4.50268e-06,-1.84098e-05,-1.02123e-06,0
-3.07073e-05,5.37464e-06,-5.40127e-06,-4.10058e-07,8.18673e-06,5.38431e-06,-2.0472e-05,-1.64248e-06,0
-3.07756e-05,3.32726e-06,-7.70907e-06,-2.80585e-05,8.50433e-06,1.06241e-05,-2.39822e-05,-1.46027e-06,0
-2.92518e-05,3.2021e-06,-8.83318e-06,-5.73309e-05,9.09407e-06,1.8772e-05,-2.68928e-05,7.21924e-07,0
-2.88138e-05,2.99402e-06,-8.62293e-06,-9.33628e-05,5.51712e-06,2.27715e-05,-2.53318e-05,3.37172e-06,0
-3.03972e-05,7.4879e-07,-1.00615e-05,-0.000118082,-9.62007e-07,2.00665e-05,-2.32701e-05,5.60703e-06,0
-3.26859e-05,-1.28548e-06,-1.20846e-05,-0.000110452,-5.98043e-06,1.32543e-05,-2.45608e-05,8.18278e-06,0
-3.43767e-05,-1.68024e-06,-1.2377e-05,-6.84129e-05,-7.81087e-06,3.85846e-06,-2.37308e-05,1.51307e-05,0
-3.62506e-05,-1.08937e-08,-1.15178e-05,3.48453e-06,-8.70742e-06,-8.16573e-06,-1.60317e-05,2.43328e-05,0
-3.8828e-05,3.13094e-06,-1.05259e-05,8.3434e-05,-8.65363e-06,-2.12085e-05,-6.60577e-06,2.73838e-05,0
-4.18238e-05,6.0493e-06,-9.92367e-06,0.000114826,-7.61203e-06,-3.27745e-05,5.9392e-07,2.10378e-05,0
-4.37953e-05,8.34597e-06,-8.03932e-06,8.91277e-05,-7.60984e-06,-4.5451e-05,7.38403e-06,9.31272e-06,0
-4.51646e-05,1.2015e-05,-4.44019e-06,7.00861e-05,-7.98164e-06,-6.24106e-05,1.64209e-05,-1.94903e-06,0
-4.66496e-05,1.64779e-05,-1.73759e-06,8.49173e-05,-5.98303e-06,-8.08076e-05,1.8842e-05,-1.09151e-05,0
-4.82761e-05,1.95648e-05,-2.96927e-06,9.9812e-05,-2.41291e-06,-8.56677e-05,7.03183e-06,-1.63833e-05,0
-4.95674e-05,2.14198e-05,-7.27466e-06,8.02662e-05,-7.56401e-07,-6.32525e-05,-9.02761e-06,-1.82564e-05,0
-5.30917e-05,2.36342e-05,-9.74964e-06,1.50739e-05,-2.40562e-07,-2.4922e-05,-1.66445e-05,-1.67513e-05,0
-5.76629e-05,2.76792e-05,-9.26932e-06,-9.10149e-05,4.55625e-07,-8.36818e-07,-1.88167e-05,-1.34161e-05,0
-5.17591e-05,3.27478e-05,-8.0255e-06,-0.000182608,2.14332e-06,8.16223e-07,-2.80289e-05,-9.3232e-06,0
-2.98351e-05,3.55355e-05,-6.95133e-06,-0.000198182,7.98976e-06,-1.92708e-06,-3.76508e-05,-5.09145e-06,0
-1.21974e-05,3.37572e-05,-5.41811e-06,-0.000154873,1.94435e-05,-2.0398e-06,-2.71788e-05,-2.54681e-06,0
-1.62937e-05,2.70283e-05,-3.85998e-06,-9.66172e-05,2.88697e-05,-6.06141e-06,3.81099e-06,-2.5587e-06,0
-2.82426e-05,1.736e-05,-4.97259e-06,-1.69241e-05,3.02866e-05,-1.48784e-05,3.57706e-05,-2.71513e-06,0
-3.05792e-05,8.95925e-06,-9.18224e-06,8.64159e-05,2.55142e-05,-2.24745e-05,5.62274e-05,-9.22569e-07,0
-2.47342e-05,6.50603e-06,-1.2742e-05,0.000160765,1.54672e-05,-2.49608e-05,6.46004e-05,3.24052e-07,0
-2.1033e-05,6.58289e-06,-1.18838e-05,0.000166507,7.9484e-06,-2.45957e-05,6.52483e-05,4.95655e-07,0
-2.28537e-05,4.8503e-06,-9.26436e-06,0.000123687,9.19444e-06,-2.12968e-05,6.30864e-05,1.87538e-06,0
-2.58167e-05,4.96913e-06,-1.23541e-05,6.80129e-05,1.01413e-05,-1.66965e-05,6.44027e-05,4.13897e-06,0
-2.65933e-05,7.27302e-06,-1.76426e-05,1.41878e-05,5.51768e-06,-1.38275e-05,6.5458e-05,6.87254e-06,0
-2.71937e-05,1.1176e-05,-1.69944e-05,-2.89588e-05,-4.02317e-07,-1.03544e-05,6.18136e-05,1.02923e-05,0
-2.78915e-05,1.69284e-05,-1.18594e-05,-6.04672e-05,-2.23334e-06,-8.05666e-06,5.96262e-05,1.03467e-05,0
-2.89294e-05,2.04596e-05,-7.53248e-06,-7.98427e-05,1.63883e-06,-7.388e-06,5.53538e-05,7.68634e-06,0
-3.0659e-05,2.00922e-05,-6.6749e-06,-8.3981e-05,4.88425e-06,-8.66043e-06,4.2209e-05,5.72732e-06,0
-3.34886e-05,1.75418e-05,-8.99416e-06,-7.54856e-05,4.46177e-06,-1.42321e-05,3.20412e-05,6.36286e-06,0
-3.67473e-05,1.5555e-05,-1.11515e-05,-5.81848e-05,6.62974e-06,-2.09975e-05,3.78164e-05,7.7723e-06,0
-3.62925e-05,1.55195e-05,-1.17157e-05,-4.53509e-05,1.36028e-05,-2.30474e-05,6.20321e-05,7.33433e-06,0
-3.267e-05,1.45461e-05,-1.14521e-05,-4.70796e-05,2.02957e-05,-1.98848e-05,8.91054e-05,6.74852e-06,0
-2.98544e-05,1.27545e-05,-9.87414e-06,-6.34929e-05,1.99808e-05,-1.40248e-05,8.46526e-05,5.7653e-06,0
-2.854e-05,1.25327e-05,-7.09615e-06,-8.34227e-05,1.28837e-05,-7.36557e-06,4.14358e-05,5.1431e-06,0
-2.73993e-05,1.38149e-05,-4.28526e-06,-9.34691e-05,5.4489e-06,-3.99966e-06,-9.62641e-06,4.39044e-06,0
-2.80247e-05,1.36818e-05,-5.05867e-06,-9.76674e-05,4.70369e-07,-6.26431e-06,-3.64702e-05,2.75423e-06,0
-3.03825e-05,1.13954e-05,-9.28456e-06,-0.000102982,-3.28092e-06,-1.20658e-05,-3.82341e-05,6.98474e-07,0
-3.19095e-05,1.07342e-05,-1.26888e-05,-9.50119e-05,-3.17981e-06,-1.65099e-05,-3.14132e-05,-1.01114e-06,0
-3.05608e-05,1.45262e-05,-1.07917e-05,-5.49492e-05,5.50225e-06,-2.04229e-05,-2.64628e-05,-1.31308e-06,0
-2.74887e-05,2.05434e-05,-4.85598e-06,8.13921e-06,2.08102e-05,-2.77425e-05,-2.58643e-05,-8.80668e-07,0
-2.71462e-05,2.39856e-05,7.04249e-07,6.65863e-05,3.9703e-05,-2.74187e-05,-3.28189e-05,-1.04489e-06,0
-3.12577e-05,2.41083e-05,4.19298e-06,9.80359e-05,5.56507e-05,-2.00371e-06,-5.06958e-05,-1.93384e-06,0
-3.68246e-05,2.29009e-05,3.91861e-06,8.92353e-05,5.94775e-05,2.9183e-05,-6.67587e-05,-2.03731e-06,0
-4.18509e-05,2.19296e-05,2.11573e-07,5.16534e-05,4.96653e-05,2.25562e-05,-6.88536e-05,2.28205e-07,0
-4.44635e-05,2.104e-05,-3.03677e-06,3.02902e-05,3.5148e-05,-1.42183e-05,-6.0483e-05,3.63773e-06,0
-4.2119e-05,1.85656e-05,-5.35557e-06,4.09579e-05,2.31696e-05,-3.54574e-05,-3.64141e-05,5.87034e-06,0
-3.63996e-05,1.46303e-05,-9.33979e-06,5.58966e-05,1.91842e-05,-3.0338e-05,3.14713e-05,6.33573e-06,0
-3.13648e-05,1.3675e-05,-1.30262e-05,5.02895e-05,2.60807e-05,-1.74414e-05,0.000129121,6.11297e-06,0
-2.94311e-05,1.52281e-05,-1.359e-05,1.80409e-05,3.68405e-05,-7.68482e-06,0.000202105,8.47028e-06,0
-3.01172e-05,1.37372e-05,-1.21116e-05,-1.68985e-05,4.0521e-05,-2.02719e-06,0.000200406,1.09532e-05,0
-3.00474e-05,1.02907e-05,-1.10575e-05,-3.12306e-05,3.46646e-05,1.24736e-06,0.000104991,1.19844e-05,0
-2.82779e-05,8.93914e-06,-1.03787e-05,-2.78987e-05,2.39943e-05,7.38531e-07,-3.75754e-05,1.15319e-05,0
-2.81245e-05,8.71821e-06,-1.06662e-05,-1.81916e-05,1.10272e-05,-3.52116e-06,-0.00017337,7.47027e-06,0
-2.96892e-05,6.2588e-06,-1.22315e-05,-1.76338e-05,3.05445e-06,-7.70297e-06,-0.000268395,2.12049e-06,0
-3.24414e-05,1.77902e-06,-1.39049e-05,-2.63767e-05,2.08915e-06,-1.44149e-05,-0.000318825,-1.87458e-06,0
-3.76704e-05,-1.84224e-06,-1.5909e-05,-3.60764e-05,5.05377e-06,-2.35116e-05,-0.000330854,-3.41453e-06,0
-4.34932e-05,-1.35601e-06,-1.69826e-05,-3.31552e-05,8.84355e-06,-2.8547e-05,-0.000301261,-4.1778e-06,0
-4.44172e-05,2.00335e-06,-1.46959e-05,-1.27872e-05,1.19063e-05,-2.68361e-05,-0.000243689,-5.85006e-06,0
-4.07182e-05,4.22184e-06,-1.08482e-05,1.08588e-05,1.48262e-05,-2.30171e-05,-0.000181888,-6.67389e-06,0
-3.60976e-05,4.56912e-06,-8.6389e-06,2.00398e-05,1.79571e-05,-2.08291e-05,-0.00011646,-5.0363e-06,0
-3.22322e-05,4.3227e-06,-6.55673e-06,5.11153e-06,2.3387e-05,-1.93736e-05,-3.96003e-05,-1.63878e-06,0
-2.79459e-05,4.8309e-06,-2.54829e-06,-2.68667e-05,3.063e-05,-1.52091e-05,3.16335e-05,1.82398e-06,0
-2.33236e-05,5.12238e-06,-4.08807e-07,-6.41416e-05,3.49458e-05,-8.99006e-06,7.16535e-05,3.63685e-06,0
-1.92841e-05,4.9862e-06,-2.86395e-06,-8.76474e-05,3.27444e-05,-5.35012e-06,7.42642e-05,3.97411e-06,0
-1.56745e-05,5.48192e-06,-7.19986e-06,-8.35071e-05,2.75192e-05,-2.73739e-06,6.17881e-05,3.4786e-06,0
-1.37039e-05,7.07149e-06,-9.71598e-06,-5.67999e-05,2.20399e-05,1.9639e-06,5.15708e-05,3.96156e-06,0
-1.47757e-05,7.9428e-06,-8.38059e-06,-2.57107e-05,1.81161e-05,1.22589e-05,3.78771e-05,7.66752e-06,0
-1.9892e-05,7.37668e-06,-4.33793e-06,1.59324e-06,1.61855e-05,2.97807e-05,8.17453e-06,1.81916e-05,0
-2.67642e-05,7.2515e-06,-2.06692e-06,2.17383e-05,1.43843e-05,3.90068e-05,-1.56569e-05,3.36653e-05,0
-3.14112e-05,6.44066e-06,-4.67269e-06,3.04306e-05,1.20857e-05,2.44781e-05,-7.41931e-06,4.16553e-05,0
-3.05477e-05,5.453e-06,-9.93591e-06,2.98872e-05,1.06203e-05,3.51703e-06,2.21289e-05,3.80376e-05,0
-2.60772e-05,7.60921e-06,-1.28797e-05,2.7344e-05,1.02331e-05,-4.33697e-06,5.60414e-05,2.38498e-05,0
-2.21208e-05,1.06475e-05,-1.16162e-05,2.50083e-05,9.16881e-06,-2.0302e-06,9.52049e-05,8.35456e-07,0
-2.22846e-05,9.98735e-06,-9.54645e-06,2.22705e-05,6.59438e-06,5.43963e-07,0.000126071,-2.36563e-05,0
-2.59299e-05,6.85964e-06,-9.42927e-06,2.07331e-05,3.37134e-06,-5.691e-07,0.000112439,-4.11363e-05,0
-2.83338e-05,6.01556e-06,-1.00874e-05,1.96066e-05,2.33593e-06,-2.41923e-06,3.52022e-05,-4.70516e-05,0
-2.66847e-05,9.26303e-06,-8.61279e-06,1.52927e-05,6.07528e-06,-4.44568e-06,-3.46893e-05,-4.36918e-05,0
-2.42166e-05,1.25593e-05,-6.33385e-06,5.77945e-06,9.15049e-06,-6.25266e-06,-3.1444e-05,-3.50063e-05,0
-2.42301e-05,1.27585e-05,-4.63077e-06,-6.87568e-06,7.66582e-06,-5.77132e-06,1.90005e-05,-2.47504e-05,0
-2.53214e-05,1.27194e-05,-2.18822e-06,-1.9564e-05,5.33327e-06,-3.80549e-06,7.68284e-05,-1.3924e-05,0
-2.61054e-05,1.44876e-05,-1.13511e-06,-3.55852e-05,4.78078e-06,-2.37886e-06,0.000103247,-6.01764e-06,0
-2.50959e-05,1.6374e-05,-3.92432e-06,-5.33309e-05,5.92036e-06,-3.26017e-06,9.18628e-05,-2.65531e-06,0
-2.28804e-05,1.5595e-05,-8.95234e-06,-5.28543e-05,5.78482e-06,-4.59089e-06,5.4892e-05,-1.25342e-06,0
-2.26872e-05,1.17191e-05,-1.23157e-05,-2.32171e-05,5.31724e-06,-4.44033e-06,1.61759e-05,-1.48894e-07,0
-2.49084e-05,7.99352e-06,-1.25323e-05,2.2568e-05,5.21381e-06,-3.01893e-06,-8.60722e-06,1.1232e-06,0
-2.49945e-05,7.52566e-06,-1.19714e-05,5.16338e-05,6.48182e-06,-2.17949e-06,-1.7214e-05,3.30543e-06,0
-2.32936e-05,1.02655e-05,-1.29065e-05,5.15087e-05,9.33547e-06,-3.90166e-06,-1.05403e-05,7.55558e-06,0
-2.36779e-05,1.06863e-05,-1.56135e-05,3.81884e-05,1.06619e-05,-5.77461e-06,1.07451e-05,1.0603e-05,0
-2.54541e-05,5.69524e-06,-1.84672e-05,2.37578e-05,8.65495e-06,-6.5762e-06,4.04032e-05,8.9042e-06,0
-2.68831e-05,-1.16466e-06,-1.88985e-05,1.44788e-05,5.58496e-06,-6.32648e-06,6.50051e-05,4.26831e-06,0
-2.82655e-05,-4.91952e-06,-1.74254e-05,1.93149e-05,4.3021e-06,-6.98135e-06,8.28007e-05,1.81159e-06,0
-3.00663e-05,-5.01959e-06,-1.66118e-05,3.73904e-05,2.59413e-06,-9.7834e-06,9.38343e-05,2.72458e-06,0
-3.18276e-05,-3.51135e-06,-1.64186e-05,5.48581e-05,-1.5922e-06,-1.34914e-05,9.96568e-05,5.42506e-06,0
-3.30899e-05,-3.18817e-06,-1.57111e-05,5.48125e-05,-7.06998e-06,-1.60598e-05,9.92386e-05,7.69923e-06,0
-3.3614e-05,-5.19799e-06,-1.38071e-05,3.43154e-05,-8.92565e-06,-1.54751e-05,8.90939e-05,8.94206e-06,0
-3.16717e-05,-6.51703e-06,-8.58054e-06,2.4524e-05,1.1059e-06,-9.72553e-06,6.23488e-05,9.48149e-06,0
-2.71628e-05,-3.69572e-06,-8.31932e-07,4.4692e-05,2.27053e-05,-1.66906e-06,3.25548e-05,1.04683e-05,0
-2.43885e-05,2.50025e-06,3.58402e-06,5.83176e-05,4.09374e-05,1.36801e-06,1.47905e-06,1.12246e-05,0
-2.4419e-05,7.0729e-06,2.408e-06,2.78412e-05,4.50486e-05,-3.28317e-06,-4.74283e-05,9.98717e-06,0
-2.53008e-05,8.39477e-06,-1.61015e-06,-3.18921e-05,3.57507e-05,-9.3078e-06,-0.000101714,6.99072e-06,0
-2.61237e-05,8.95939e-06,-6.53646e-06,-8.87563e-05,2.17223e-05,-1.049e-05,-0.000109281,4.51427e-06,0
-2.77185e-05,8.55323e-06,-9.24747e-06,-0.000127628,1.08517e-05,-1.13796e-05,-4.72131e-05,4.98855e-06,0
-3.07405e-05,6.60133e-06,-8.12878e-06,-0.000135006,2.8546e-06,-1.68251e-05,4.04848e-05,6.33016e-06,0
-3.07792e-05,5.438e-06,-4.53546e-06,-0.000112814,-2.31402e-06,-2.37987e-05,0.000105153,6.5531e-06,0
-2.90748e-05,5.58143e-06,-1.31662e-06,-8.03647e-05,-3.48021e-06,-3.17001e-05,0.000144311,4.50561e-06,0
-3.05582e-05,7.26164e-06,-5.95815e-07,-3.69901e-05,5.38706e-07,-4.11764e-05,0.000166947,2.08719e-06,0
-3.33288e-05,1.1112e-05,-1.65523e-06,1.46996e-05,4.54134e-06,-5.15664e-05,0.000163688,1.39794e-06,0
-3.44476e-05,1.76959e-05,-3.91055e-06,6.77527e-05,2.29613e-06,-4.65862e-05,0.000143069,-8.99577e-07,0
-3.41117e-05,2.43949e-05,-4.82301e-06,0.000100246,1.02738e-06,-8.51629e-06,0.000120227,-4.40203e-06,0
-3.6335e-05,2.83793e-05,-3.91128e-06,8.47535e-05,8.86824e-06,2.72631e-05,0.000108015,-5.33023e-06,0
-3.96102e-05,2.68741e-05,-4.36442e-06,2.78819e-05,1.97422e-05,2.58658e-05,9.76056e-05,-3.49581e-06,0
-3.90433e-05,2.29905e-05,-6.966e-06,-3.39223e-05,2.5052e-05,8.66957e-06,7.24543e-05,-2.5502e-06,0
-3.52762e-05,2.0888e-05,-7.56293e-06,-4.8254e-05,2.34366e-05,5.26037e-06,3.05959e-05,-2.83237e-06,0
-3.30068e-05,1.90587e-05,-4.55121e-06,2.65742e-07,1.867e-05,1.14313e-05,-1.06095e-05,-1.83133e-06,0
-3.37216e-05,1.59699e-05,-9.65059e-07,6.93532e-05,1.77739e-05,1.01389e-05,-3.45417e-05,-1.16307e-06,0
-3.3592e-05,1.3261e-05,1.78873e-06,9.6652e-05,1.98462e-05,1.71638e-06,-5.29845e-05,-3.04685e-06,0
-3.17607e-05,1.19522e-05,3.47257e-06,7.53449e-05,1.86731e-05,-4.77097e-06,-7.88287e-05,-5.84021e-06,0
-3.08761e-05,1.0141e-05,1.51186e-06,4.63883e-05,1.31243e-05,-6.99368e-06,-0.000104094,-6.61367e-06,0
-3.28333e-05,7.23611e-06,-3.3565e-06,3.5181e-05,8.16145e-06,-7.65049e-06,-0.000106118,-5.47841e-06,0
-3.56308e-05,4.00005e-06,-5.8358e-06,3.23867e-05,8.96931e-06,-6.40205e-06,-8.23885e-05,-3.07641e-06,0
-3.61482e-05,3.98781e-06,-4.41816e-06,2.3049e-05,1.40333e-05,-4.00371e-06,-5.14686e-05,-5.29062e-07,0
-3.37652e-05,6.44455e-06,-1.94876e-06,7.44136e-06,1.72537e-05,-2.62058e-06,-3.01822e-05,1.30837e-06,0
-3.17945e-05,7.89386e-06,-2.03994e-06,-1.13862e-05,1.71036e-05,-2.94724e-06,-1.9937e-05,1.92793e-06,0
-3.15215e-05,7.04664e-06,-4.29829e-06,-2.37881e-05,1.56306e-05,-3.7412e-06,-1.21579e-05,1.99656e-06,0
-3.18256e-05,5.86352e-06,-7.11383e-06,-2.50588e-05,1.17778e-05,-5.24457e-06,1.1372e-05,3.34047e-06,0
-3.21117e-05,5.27634e-06,-9.39029e-06,-2.64505e-05,6.11276e-06,-8.07628e-06,5.43972e-05,5.38858e-06,0
-3.19575e-05,5.60973e-06,-1.22946e-05,-3.55985e-05,-1.00956e-07,-9.58791e-06,7.76962e-05,5.3672e-06,0
-3.14578e-05,5.57289e-06,-1.67817e-05,-5.40157e-05,-4.46251e-06,-9.0094e-06,5.38817e-05,3.8637e-06,0
-3.04405e-05,4.61499e-06,-2.03741e-05,-9.53134e-05,-5.48873e-06,-7.91029e-06,1.17981e-05,2.22157e-06,0
-2.93719e-05,4.33122e-06,-2.23643e-05,-0.000157624,-3.66036e-06,-1.04452e-05,-1.32918e-05,1.43475e-06,0
-2.81551e-05,7.80821e-06,-2.19406e-05,-0.000192574,-4.4983e-07,-2.1353e-05,-8.90268e-06,2.09829e-06,0
-2.72093e-05,1.51296e-05,-1.94258e-05,-0.000176595,1.73188e-06,-3.38551e-05,1.7775e-05,1.97191e-06,0
-2.61029e-05,2.0956e-05,-1.61218e-05,-0.000122494,3.93953e-06,-3.3449e-05,5.88985e-05,4.34562e-07,0
-2.47206e-05,2.36089e-05,-1.31367e-05,-3.02746e-05,6.45749e-06,-1.9621e-05,0.000102694,-1.0784e-06,0
-2.42568e-05,2.20198e-05,-1.18692e-05,5.85398e-05,5.83883e-06,-4.70307e-06,0.000135556,-1.58255e-06,0
-2.48222e-05,1.82578e-05,-1.04756e-05,0.000114959,7.08738e-07,9.13541e-08,0.000160283,-8.42814e-07,0
-2.66391e-05,1.5328e-05,-9.60565e-06,0.000150291,2.39584e-07,-8.84878e-06,0.000168348,1.69781e-06,0
-2.98666e-05,1.38631e-05,-1.08747e-05,0.000166406,9.16317e-06,-1.75426e-05,0.000139054,4.21724e-06,0
-3.02819e-05,1.47338e-05,-1.13548e-05,0.000148256,1.99036e-05,-1.7077e-05,6.01346e-05,5.14426e-06,0
-2.68385e-05,1.79615e-05,-8.42594e-06,9.77847e-05,2.37607e-05,-1.19381e-05,-3.84865e-05,4.423e-06,0
-2.06103e-05,2.60734e-05,-3.71744e-06,3.99275e-05,2.17658e-05,-3.84676e-06,-0.000110604,3.57725e-06,0
-1.17028e-05,3.84442e-05,1.18999e-06,-5.5956e-06,1.99084e-05,5.63737e-06,-0.000134328,3.39769e-06,0
-7.65615e-06,4.81238e-05,4.45137e-06,-2.72952e-05,1.64878e-05,7.67256e-06,-0.000129152,3.02871e-06,0
-1.62376e-05,4.81033e-05,2.72238e-06,-2.73126e-05,1.00542e-05,-1.95955e-06,-0.000124978,3.39708e-06,0
-3.29512e-05,3.86942e-05,-2.81054e-06,-5.63869e-06,4.3895e-06,-1.40076e-05,-0.000123674,4.15074e-06,0
-4.46151e-05,2.6821e-05,-7.46219e-06,3.93003e-05,1.58648e-06,-2.05556e-05,-0.000112789,3.56434e-06,0
-4.48742e-05,1.83349e-05,-9.48172e-06,8.59167e-05,8.13086e-07,-2.02229e-05,-8.80378e-05,1.4945e-06,0
-3.67804e-05,1.50499e-05,-9.85712e-06,8.54748e-05,3.89467e-06,-1.64275e-05,-5.8157e-05,-1.49368e-07,0
-2.77332e-05,1.42178e-05,-8.24002e-06,4.10148e-05,1.02576e-05,-1.19419e-05,-3.23925e-05,-2.02831e-08,0
-2.36966e-05,1.32995e-05,-5.71485e-06,-2.94508e-06,1.62419e-05,-9.36014e-06,-1.59301e-05,6.70063e-07,0
-2.48345e-05,1.04131e-05,-5.19445e-06,-3.32052e-05,2.0237e-05,-8.84282e-06,-4.96352e-06,1.75036e-06,0
-2.63273e-05,6.0394e-06,-7.164e-06,-6.65008e-05,2.32049e-05,-1.2849e-05,3.35212e-06,2.77804e-06,0
-2.46039e-05,1.39981e-06,-9.00906e-06,-0.000109862,2.37824e-05,-2.43175e-05,1.07851e-05,1.27047e-06,0
-2.15864e-05,-2.77349e-06,-9.47639e-06,-0.000154484,2.12031e-05,-3.20951e-05,2.00639e-05,-1.90974e-06,0
-1.92592e-05,-4.7648e-06,-9.79401e-06,-0.000183044,1.70524e-05,-1.72068e-05,2.32841e-05,-2.96777e-06,0
-1.93318e-05,-4.64968e-06,-9.84002e-06,-0.000169721,1.21026e-05,1.21739e-05,-2.07608e-05,-2.02404e-06,0
-2.34303e-05,-2.93758e-06,-9.1078e-06,-0.00011615,8.43002e-06,2.2371e-05,-0.000121512,-2.8174e-06,0
-2.71024e-05,1.07363e-06,-9.15582e-06,-6.46538e-05,5.15899e-06,6.80023e-06,-0.000158082,-5.16672e-06,0
-2.95919e-05,4.82892e-06,-8.91041e-06,-2.61086e-05,8.78606e-07,-1.43309e-05,-7.98519e-05,-6.87853e-06,0
-3.52422e-05,6.23875e-06,-7.52323e-06,9.18436e-06,-1.42857e-06,-3.00858e-05,2.07785e-05,-6.96364e-06,0
-4.19143e-05,6.40494e-06,-6.90617e-06,3.03153e-05,-3.53442e-06,-3.87745e-05,8.26623e-05,-5.66303e-06,0
-4.36363e-05,5.44482e-06,-8.02242e-06,4.29478e-05,-4.52867e-06,-4.04605e-05,9.34514e-05,-5.08713e-06,0
-3.93507e-05,6.24633e-06,-8.26151e-06,4.84201e-05,3.15887e-06,-3.6409e-05,9.04391e-05,-5.07454e-06,0
-3.49497e-05,8.14508e-06,-6.52421e-06,4.21906e-05,1.75236e-05,-2.6714e-05,8.78979e-05,-3.7737e-06,0
-3.52465e-05,1.0353e-05,-5.67333e-06,2.77345e-05,2.75795e-05,-1.50881e-05,8.48006e-05,-2.75423e-06,0
-4.35048e-05,1.24652e-05,-6.26102e-06,1.74904e-05,2.51661e-05,-1.20495e-05,8.0563e-05,-2.53345e-06,0
-6.14073e-05,1.15605e-05,-6.93401e-06,1.84471e-05,1.51955e-05,-1.82047e-05,7.78907e-05,-1.54993e-06,0
-8.12327e-05,1.01591e-05,-7.0078e-06,1.99656e-05,8.85508e-06,-2.18126e-05,8.15676e-05,2.40192e-07,0
-9.27117e-05,9.8227e-06,-7.77545e-06,3.59196e-06,8.98206e-06,-1.56289e-05,8.72527e-05,1.1911e-06,0
-9.17397e-05,1.00231e-05,-8.87467e-06,-3.22595e-05,8.37568e-06,-6.05112e-06,8.92125e-05,-4.92167e-08,0
-7.86591e-05,1.08547e-05,-1.02161e-05,-6.85924e-05,3.57626e-06,-3.87958e-07,8.26002e-05,-1.68748e-06,0
-5.98804e-05,1.11992e-05,-1.19481e-05,-8.60009e-05,-1.23339e-06,2.45283e-06,8.02379e-05,-8.63757e-07,0
-4.19327e-05,1.00705e-05,-1.38141e-05,-8.01504e-05,-2.53344e-06,3.79082e-06,8.55309e-05,1.56019e-06,0
-2.72958e-05,9.03621e-06,-1.49171e-05,-6.11437e-05,4.01681e-09,4.44239e-06,9.87999e-05,2.09873e-06,0
-1.47708e-05,9.72606e-06,-1.41133e-05,-3.62483e-05,3.10407e-06,3.93043e-06,0.000114826,1.43629e-07,0
-3.92457e-06,1.13808e-05,-1.15628e-05,-9.98719e-06,4.75751e-06,2.57194e-06,0.000131479,-1.2319e-06,0
5.61999e-06,1.24675e-05,-7.49549e-06,8.62826e-06,7.37401e-06,-1.10597e-06,0.000140884,3.81019e-07,0
1.27075e-05,1.36441e-05,-4.58278e-06,1.09053e-05,1.21561e-05,-7.83533e-06,0.00014998,4.10306e-06,0
1.19102e-05,1.59314e-05,-4.33597e-06,-9.66271e-07,1.78555e-05,-1.29232e-05,0.000162367,9.23244e-06,0
3.07584e-06,1.71756e-05,-4.41755e-06,-1.56681e-05,2.38848e-05,-1.26095e-05,0.000161527,1.61457e-05,0
-5.79842e-06,1.64292e-05,-3.21774e-06,-1.92875e-05,2.94626e-05,-1.42158e-05,0.000122894,2.28939e-05,0
-9.96807e-06,1.64066e-05,-5.08376e-07,-7.37056e-06,3.45417e-05,-2.03665e-05,3.7759e-05,2.33916e-05,0
-1.43184e-05,1.78243e-05,2.33913e-06,1.13851e-05,3.89306e-05,-2.14776e-05,-7.04411e-05,1.68786e-05,0
-1.7899e-05,2.05298e-05,1.56792e-06,2.30959e-05,3.90118e-05,-1.56689e-05,-0.000169299,7.95518e-06,0
-1.98554e-05,2.3053e-05,-3.34886e-06,2.42506e-05,3.42009e-05,-1.15792e-05,-0.000217723,2.59755e-07,0
-2.17226e-05,2.27985e-05,-9.36665e-06,2.237e-05,2.87712e-05,-1.35626e-05,-0.000195866,-4.42515e-06,0
-2.2526e-05,2.23365e-05,-1.30958e-05,2.48079e-05,2.42583e-05,-1.66852e-05,-0.000141001,-8.25046e-06,0
-2.12032e-05,2.22385e-05,-1.1789e-05,3.06878e-05,2.12187e-05,-1.6933e-05,-9.53909e-05,-1.24629e-05,0
-1.83043e-05,2.11087e-05,-8.14719e-06,3.41038e-05,2.16909e-05,-1.4258e-05,-7.72798e-05,-1.6494e-05,0
-1.62285e-05,1.90655e-05,-6.93068e-06,2.94181e-05,2.42235e-05,-8.48218e-06,-7.7472e-05,-1.88772e-05,0
-1.38657e-05,1.82905e-05,-8.03117e-06,1.76703e-05,2.62704e-05,-2.04119e-06,-7.84158e-05,-1.79468e-05,0
-1.35559e-05,1.95218e-05,-9.29332e-06,-3.446e-06,2.86474e-05,2.80337e-06,-6.98133e-05,-1.45272e-05,0
-1.51702e-05,2.01483e-05,-9.45512e-06,-2.94585e-05,3.06914e-05,1.57653e-05,-6.57094e-05,-1.12373e-05,0
-1.77865e-05,1.76423e-05,-8.80347e-06,-3.97617e-05,2.99284e-05,3.80617e-05,-8.32009e-05,-8.80588e-06,0
-2.15422e-05,1.34561e-05,-8.19517e-06,-2.79506e-05,2.61975e-05,4.81529e-05,-0.000106306,-4.53606e-06,0
-2.49857e-05,1.15643e-05,-8.69699e-06,-7.29514e-06,2.11659e-05,3.63843e-05,-0.00011744,-4.64127e-07,0
-2.59264e-05,1.17118e-05,-9.93389e-06,5.12258e-06,1.57746e-05,1.72969e-05,-0.000103965,1.00767e-06,0
-2.50228e-05,1.37411e-05,-1.23365e-05,6.847e-06,1.19462e-05,6.92672e-06,-6.91403e-05,1.07762e-06,0
-2.44061e-05,1.91e-05,-1.48398e-05,5.10246e-06,1.15671e-05,5.81155e-06,-2.05996e-05,1.95034e-06,0
-2.45475e-05,2.80615e-05,-1.39586e-05,7.74923e-06,1.33603e-05,6.80799e-06,2.66258e-05,3.51714e-06,0
-2.64687e-05,3.5327e-05,-1.07692e-05,1.29648e-05,1.10181e-05,4.52288e-06,5.79035e-05,3.4326e-06,0
-3.10428e-05,3.58969e-05,-1.04483e-05,1.32916e-05,2.16404e-06,-3.70271e-06,5.63023e-05,1.27146e-06,0
-3.73906e-05,3.0036e-05,-1.24193e-05,1.1405e-05,-2.50557e-06,-1.25116e-05,1.67663e-05,-8.83705e-07,0
-4.132e-05,2.19898e-05,-1.1106e-05,1.75058e-05,6.54638e-06,-1.58791e-05,-4.07184e-05,-3.41151e-07,0
-4.3587e-05,1.52182e-05,-7.72197e-06,2.69701e-05,2.1081e-05,-1.69355e-05,-7.69065e-05,1.15813e-06,0
-4.75378e-05,7.85558e-06,-8.81004e-06,2.37726e-05,2.81041e-05,-2.31242e-05,-6.85864e-05,1.8101e-06,0
-5.13055e-05,-3.74635e-08,-1.49656e-05,7.29122e-06,2.71545e-05,-3.48262e-05,-9.29798e-06,1.25142e-06,0
-4.86201e-05,-5.03758e-06,-2.13473e-05,-9.77625e-06,2.49473e-05,-4.69693e-05,9.17865e-05,4.62895e-07,0
-4.21932e-05,-5.90587e-06,-2.43827e-05,-1.77813e-05,2.30171e-05,-5.60007e-05,0.000205979,4.91414e-07,0
-4.10211e-05,-5.10803e-06,-2.2378e-05,-1.66298e-05,1.82176e-05,-5.12331e-05,0.000307393,1.99894e-06,0
-4.75429e-05,-4.83705e-06,-1.89352e-05,-1.02256e-05,1.22187e-05,-2.37681e-05,0.000357499,3.29103e-06,0
-5.63993e-05,-5.1576e-06,-1.65483e-05,3.3679e-06,1.05485e-05,4.28589e-06,0.000332781,3.5376e-06,0
-6.27362e-05,-3.58097e-06,-1.70326e-05,2.3067e-05,1.14644e-05,9.93487e-06,0.000288201,3.89323e-06,0
-6.58312e-05,-5.4841e-07,-2.0143e-05,2.40392e-05,8.14931e-06,5.02663e-07,0.000251253,4.82289e-06,0
-5.88091e-05,4.18995e-06,-2.01676e-05,-1.11843e-06,4.68044e-06,-5.54442e-07,0.000176233,7.08163e-06,0
-3.47704e-05,9.25492e-06,-1.44907e-05,-2.55e-05,7.21569e-06,1.17545e-05,5.47842e-05,8.66846e-06,0
-1.38212e-05,1.15209e-05,-8.0828e-06,-3.9408e-05,1.14608e-05,1.80704e-05,-8.28256e-05,8.10319e-06,0
-1.42449e-05,1.28902e-05,-5.89235e-06,-4.60943e-05,1.11662e-05,1.18967e-05,-0.000174578,7.07831e-06,0
-2.44434e-05,1.13251e-05,-6.69052e-06,-2.98444e-05,1.01201e-05,3.23179e-06,-0.000190384,7.14949e-06,0
-3.12948e-05,6.92747e-06,-8.90958e-06,1.83743e-05,5.93867e-06,-6.61029e-07,-0.000159691,1.04622e-05,0
-3.31895e-05,2.55319e-06,-1.1066e-05,7.49384e-05,-4.69625e-06,-1.84054e-06,-0.000142131,1.39984e-05,0
-3.44517e-05,7.98955e-07,-1.24928e-05,0.000109216,-1.38878e-05,-2.40107e-06,-0.000143298,1.5388e-05,0
-3.39885e-05,1.64221e-06,-1.30246e-05,0.000104069,-1.45706e-05,-1.75964e-07,-0.000131931,1.46924e-05,0
-2.92754e-05,3.6065e-06,-1.27061e-05,5.65097e-05,-5.08324e-06,6.27533e-06,-0.000105875,1.0516e-05,0
-1.98601e-05,6.46709e-06,-9.99567e-06,-1.10746e-05,1.37916e-05,1.89137e-05,-8.09027e-05,5.03165e-06,0
-1.05067e-05,9.45102e-06,-3.13846e-06,-4.66699e-05,3.85264e-05,3.40719e-05,-6.672e-05,9.50298e-07,0
-8.65318e-06,1.14364e-05,3.42749e-06,-2.65338e-05,5.55681e-05,3.91836e-05,-5.7351e-05,-1.98365e-07,0
-1.52882e-05,1.08823e-05,5.86934e-06,7.58408e-06,5.63243e-05,2.90292e-05,-5.33973e-05,3.74488e-07,0
-2.30296e-05,1.03194e-05,7.14745e-06,1.25586e-05,4.77129e-05,1.42614e-05,-5.12486e-05,-3.00947e-07,0
-2.60211e-05,1.15877e-05,8.61723e-06,-1.19578e-05,4.05256e-05,4.57478e-06,-4.35981e-05,-3.74262e-06,0
-2.66656e-05,1.28488e-05,6.34548e-06,-4.71645e-05,3.52512e-05,-5.24105e-06,-2.24432e-05,-7.47034e-06,0
-2.84323e-05,1.13703e-05,-4.15804e-07,-7.01601e-05,2.92577e-05,-1.82234e-05,3.47995e-07,-9.25643e-06,0
-2.96492e-05,9.31998e-06,-6.44135e-06,-6.5621e-05,2.33452e-05,-2.29522e-05,1.33416e-05,-7.77938e-06,0
-2.6813e-05,9.32179e-06,-9.06955e-06,-5.50001e-05,1.88867e-05,-1.66727e-05,1.33533e-05,-4.95269e-06,0
-2.02735e-05,1.08433e-05,-8.16919e-06,-6.33233e-05,1.73648e-05,-1.43856e-05,7.14974e-06,-3.5362e-06,0
-1.38216e-05,1.45247e-05,-4.48101e-06,-7.21437e-05,1.79252e-05,-2.56133e-05,8.90681e-06,-2.33585e-06,0
-1.10264e-05,1.72054e-05,-2.91685e-06,-5.91284e-05,1.51768e-05,-4.184e-05,3.08893e-05,-8.73496e-07,0
-1.49177e-05,1.77451e-05,-4.61159e-06,-2.98997e-05,7.02236e-06,-4.55644e-05,6.59627e-05,-1.62231e-06,0
-2.51874e-05,1.81211e-05,-8.36069e-06,-1.62593e-05,-3.59017e-06,-2.13135e-05,9.28876e-05,-2.82395e-06,0
-3.48529e-05,1.6959e-05,-1.01105e-05,-3.16513e-05,-1.50537e-05,1.62339e-05,0.000108092,-2.83482e-06,0
