ch1,ch2,ch3,ch4,ch5,ch6,ch7,ch8,class
-2.66771e-05,2.29133e-05,-6.50398e-06,-6.58121e-06,6.8631e-06,-9.58257e-06,-1.66005e-05,3.8127e-06,0
-2.69635e-05,2.24433e-05,-5.88498e-06,-6.41477e-06,7.06409e-06,-9.83042e-06,-2.38329e-05,3.45291e-06,0
-2.74484e-05,2.24865e-05,-5.8865e-06,-5.70003e-06,4.79466e-06,-9.53685e-06,-2.7162e-05,4.73615e-06,0
-2.77172e-05,2.04832e-05,-6.13275e-06,-3.60486e-06,9.68784e-07,-9.90736e-06,-2.63798e-05,5.61379e-06,0
-2.87721e-05,1.38276e-05,-7.1776e-06,-1.6259e-06,-1.48161e-06,-9.96874e-06,-1.99755e-05,5.46622e-06,0
-2.90995e-05,8.77816e-06,-9.03646e-06,2.14999e-06,-2.00844e-07,-1.07356e-05,-1.05753e-05,5.29103e-06,0
-2.78949e-05,1.01857e-05,-9.93721e-06,1.95416e-05,3.19793e-06,-1.24251e-05,-3.99907e-06,3.50222e-06,0
-2.71402e-05,1.51016e-05,-1.02708e-05,4.33234e-05,5.36869e-06,-1.16605e-05,-2.8782e-06,4.28361e-07,0
-2.83875e-05,2.09808e-05,-1.13821e-05,5.16937e-05,6.36258e-06,-9.20062e-06,-3.82661e-06,-1.48623e-06,0
-2.95758e-05,2.51553e-05,-1.17791e-05,4.3215e-05,8.07687e-06,-7.9597e-06,-2.09889e-06,-1.96224e-06,0
-2.90071e-05,2.56311e-05,-1.13577e-05,2.66126e-05,1.04744e-05,-8.48561e-06,6.59211e-07,-2.82573e-06,0
-2.83832e-05,2.25217e-05,-1.21206e-05,1.35507e-05,1.21974e-05,-9.03948e-06,1.8299e-06,-5.4319e-06,0
-2.98999e-05,1.8318e-05,-1.3568e-05,4.8692e-06,1.29463e-05,-7.20304e-06,2.28375e-06,-6.86696e-06,0
-3.35912e-05,1.6007e-05,-1.43365e-05,-2.84542e-06,1.40101e-05,-4.83535e-06,4.65599e-06,-5.98336e-06,0
-3.62821e-05,2.0631e-05,-1.45457e-05,-9.84589e-06,1.61337e-05,-4.09259e-06,5.28985e-06,-4.74676e-06,0
-3.4974e-05,3.6967e-05,-1.43083e-05,-1.61842e-05,1.77239e-05,-5.49059e-06,4.32539e-06,-4.52129e-06,0
-3.15103e-05,5.97309e-05,-1.43709e-05,-2.10611e-05,1.85509e-05,-7.23536e-06,3.028e-06,-5.34381e-06,0
-2.91925e-05,7.57473e-05,-1.36198e-05,-2.6683e-05,2.08561e-05,-7.91382e-06,5.65464e-07,-5.05451e-06,0
-2.82535e-05,7.67138e-05,-1.11414e-05,-3.44375e-05,2.47534e-05,-9.64716e-06,-2.11309e-06,-4.4171e-06,0
-2.75521e-05,6.41568e-05,-8.89583e-06,-4.01548e-05,2.6297e-05,-1.23987e-05,-3.06798e-06,-4.69897e-06,0
-2.78855e-05,4.3864e-05,-9.1055e-06,-3.64515e-05,2.40005e-05,-1.41809e-05,-9.43552e-07,-4.64014e-06,0
-2.87954e-05,2.34605e-05,-1.09352e-05,-2.47944e-05,2.12671e-05,-1.44896e-05,1.00231e-06,-4.64864e-06,0
-2.91567e-05,8.44071e-06,-1.18681e-05,-1.12673e-05,1.98812e-05,-1.47102e-05,5.5424e-07,-4.74997e-06,0
-2.96074e-05,-9.09188e-07,-1.0683e-05,-1.6056e-06,1.93288e-05,-1.38992e-05,-1.13263e-06,-3.79356e-06,0
-3.0128e-05,-5.19402e-06,-9.11845e-06,4.14607e-06,1.92364e-05,-1.29775e-05,-2.12784e-06,-1.83426e-06,0
-3.00116e-05,-5.5171e-06,-9.22333e-06,8.47226e-06,1.86774e-05,-1.27193e-05,-2.29793e-06,-7.7342e-07,0
-2.98039e-05,-5.36042e-06,-1.00052e-05,1.10427e-05,1.67063e-05,-1.25928e-05,-1.33852e-06,-8.10259e-07,0
-3.00828e-05,-5.39924e-06,-1.04812e-05,7.86891e-06,1.38477e-05,-1.36649e-05,1.32642e-06,-9.19796e-07,0
-2.9644e-05,-2.09773e-06,-1.00229e-05,-9.09156e-07,1.03615e-05,-1.56635e-05,6.90083e-06,-3.34854e-07,0
-2.87385e-05,5.0887e-06,-8.14705e-06,-8.03976e-06,8.01162e-06,-1.54514e-05,1.2939e-05,-2.61501e-07,0
-2.85704e-05,1.17726e-05,-4.85234e-06,-9.3244e-06,8.67495e-06,-1.22839e-05,1.66111e-05,-1.91938e-06,0
-2.92383e-05,1.51063e-05,-1.05925e-06,-5.82514e-06,1.11751e-05,-8.49055e-06,1.82201e-05,-2.48704e-06,0
-3.08174e-05,1.49665e-05,2.76173e-06,-2.54895e-07,1.45781e-05,-7.70363e-06,1.89469e-05,5.77749e-07,0
-3.17881e-05,1.17417e-05,4.8986e-06,3.68932e-06,1.87855e-05,-9.40985e-06,1.9673e-05,2.59075e-06,0
-3.07527e-05,9.13863e-06,5.11117e-06,5.04773e-06,2.03737e-05,-1.04796e-05,1.95113e-05,2.98187e-06,0
-2.92862e-05,1.05951e-05,2.7284e-06,5.03036e-06,1.63909e-05,-9.86004e-06,1.86567e-05,4.09227e-06,0
-2.85861e-05,1.29033e-05,-3.70934e-06,2.32956e-06,1.13707e-05,-9.15953e-06,1.96205e-05,4.44891e-06,0
-2.84287e-05,1.65645e-05,-1.09968e-05,-2.73414e-06,9.72414e-06,-1.07242e-05,2.07031e-05,4.09607e-06,0
-2.92354e-05,2.46284e-05,-1.77879e-05,-6.54319e-06,1.26177e-05,-1.20378e-05,1.9546e-05,2.88e-06,0
-3.00519e-05,3.3575e-05,-2.33101e-05,-6.78299e-06,1.46507e-05,-1.27753e-05,1.7998e-05,2.36416e-06,0
-2.86572e-05,4.27971e-05,-2.56918e-05,-3.87024e-06,1.26957e-05,-1.37674e-05,1.70014e-05,1.26263e-06,0
-2.65269e-05,5.2749e-05,-2.31768e-05,1.70682e-06,9.89224e-06,-1.38225e-05,1.53258e-05,-1.1307e-07,0
-2.51908e-05,5.84885e-05,-1.7677e-05,7.24884e-06,7.33281e-06,-1.2557e-05,1.39854e-05,5.47738e-07,0
-2.49168e-05,5.54005e-05,-1.29565e-05,1.04311e-05,5.71255e-06,-1.12809e-05,1.34684e-05,2.21665e-06,0
-2.51905e-05,4.22222e-05,-1.07261e-05,8.78457e-06,4.56591e-06,-1.09165e-05,1.19786e-05,3.55361e-06,0
-2.51769e-05,1.87001e-05,-9.35034e-06,3.37316e-06,4.47309e-06,-1.09075e-05,1.14661e-05,3.46192e-06,0
-2.50281e-05,-9.92546e-06,-7.84406e-06,-2.40023e-06,4.72585e-06,-1.00597e-05,1.34071e-05,2.03997e-06,0
-2.55817e-05,-3.0895e-05,-7.74989e-06,-7.3517e-06,4.24646e-06,-8.26524e-06,1.68389e-05,7.61173e-07,0
-2.72928e-05,-3.64686e-05,-7.19928e-06,-1.11778e-05,1.50051e-06,-8.08318e-06,2.07935e-05,1.29521e-06,0
-2.87997e-05,-3.17198e-05,-4.79503e-06,-1.27339e-05,-1.57251e-06,-1.03602e-05,2.45822e-05,2.66329e-06,0
-2.95951e-05,-2.62199e-05,-3.06585e-06,-1.11907e-05,-2.17605e-06,-1.225e-05,2.61035e-05,3.68047e-06,0
-3.08242e-05,-2.30375e-05,-4.34079e-06,-8.81336e-06,-2.11453e-06,-1.20463e-05,2.43582e-05,3.81467e-06,0
-3.23302e-05,-1.94891e-05,-6.72005e-06,-8.64582e-06,-3.20988e-06,-1.05875e-05,2.18736e-05,3.34771e-06,0
-3.24832e-05,-1.42014e-05,-7.10786e-06,-1.13025e-05,-3.67575e-06,-9.24035e-06,2.11834e-05,3.06812e-06,0
-3.23516e-05,-8.41708e-06,-4.82362e-06,-1.50075e-05,-2.38161e-06,-9.38005e-06,2.17283e-05,3.54928e-06,0
-3.15608e-05,-2.62759e-06,-2.5905e-06,-2.00168e-05,-6.73694e-07,-1.17611e-05,2.42234e-05,4.37386e-06,0
-2.97855e-05,2.73539e-06,-5.61544e-07,-2.56158e-05,6.4799e-07,-1.35673e-05,2.99152e-05,3.79056e-06,0
-2.9086e-05,6.89778e-06,8.51936e-07,-2.72222e-05,1.68223e-06,-1.23823e-05,4.0312e-05,5.01253e-08,0
-2.84559e-05,9.39038e-06,9.52796e-07,-2.11267e-05,3.4629e-06,-1.11553e-05,5.40975e-05,-3.31979e-06,0
-2.7253e-05,1.20879e-05,6.0496e-07,-7.90859e-06,4.76803e-06,-1.04244e-05,6.26775e-05,-3.69162e-06,0
-2.80961e-05,1.53087e-05,-1.08192e-06,9.91772e-06,5.76691e-06,-9.68141e-06,6.13881e-05,-5.48631e-06,0
-2.97693e-05,1.50333e-05,-4.57854e-06,2.48477e-05,8.33194e-06,-1.12221e-05,5.30177e-05,-8.53025e-06,0
-3.02897e-05,1.31846e-05,-9.1086e-06,3.21056e-05,1.0501e-05,-1.25654e-05,3.77652e-05,-1.08748e-05,0
-3.01728e-05,1.4314e-05,-1.28713e-05,3.21285e-05,1.00329e-05,-1.22907e-05,9.6391e-06,-1.05036e-05,0
-2.84678e-05,1.77717e-05,-1.34244e-05,2.47006e-05,9.28179e-06,-1.10948e-05,-2.63469e-05,-7.65803e-06,0
-2.6359e-05,1.946e-05,-1.05635e-05,1.44932e-05,1.02453e-05,-9.40207e-06,-5.28074e-05,-6.82116e-06,0
-2.52754e-05,1.83143e-05,-8.34585e-06,4.03325e-06,1.10951e-05,-8.42659e-06,-5.8779e-05,-9.01778e-06,0
-2.53853e-05,1.63056e-05,-7.48644e-06,-6.42358e-06,1.05746e-05,-7.58054e-06,-4.6247e-05,-9.17295e-06,0
-2.61295e-05,1.5943e-05,-3.32553e-06,-1.50665e-05,1.2759e-05,-6.72167e-06,-2.88168e-05,-6.87932e-06,0
-2.64284e-05,1.70917e-05,7.62769e-06,-2.14742e-05,1.73282e-05,-5.78585e-06,-1.5656e-05,-5.12066e-06,0
-2.67941e-05,1.8293e-05,2.47406e-05,-2.42642e-05,2.17752e-05,-4.69383e-06,-7.46616e-06,-5.10555e-06,0
-2.75935e-05,1.99926e-05,4.4394e-05,-2.09645e-05,2.36461e-05,-3.32832e-06,-2.73421e-06,-5.59554e-06,0
-2.874e-05,2.09611e-05,6.03774e-05,-1.50502e-05,2.27539e-05,-3.77894e-06,1.937e-06,-5.02517e-06,0
-2.93698e-05,2.07176e-05,6.7695e-05,-1.17276e-05,2.13384e-05,-5.99863e-06,7.78658e-06,-4.23533e-06,0
-2.99007e-05,1.99043e-05,6.36051e-05,-1.04271e-05,2.04053e-05,-7.64798e-06,1.22346e-05,-2.79112e-06,0
-3.12922e-05,1.83657e-05,4.79951e-05,-9.23861e-06,2.14006e-05,-8.04064e-06,1.44179e-05,-1.18369e-06,0
-3.28028e-05,1.53509e-05,2.14663e-05,-8.34865e-06,2.28938e-05,-8.23597e-06,1.78898e-05,5.98116e-07,0
-3.35014e-05,1.21229e-05,-1.44544e-05,-8.23027e-06,2.39043e-05,-8.62913e-06,2.31532e-05,2.93755e-06,0
-3.25877e-05,1.07654e-05,-5.22954e-05,-5.90568e-06,2.49045e-05,-8.67029e-06,2.61962e-05,5.08176e-06,0
-3.13502e-05,1.11875e-05,-8.27355e-05,-4.47547e-07,2.65715e-05,-7.67688e-06,2.39393e-05,5.53485e-06,0
-3.19517e-05,1.10115e-05,-0.000102696,3.55385e-06,2.61461e-05,-6.20563e-06,1.87458e-05,5.18018e-06,0
-3.26794e-05,9.84347e-06,-0.000112818,4.22728e-06,2.30681e-05,-5.71036e-06,1.49231e-05,4.77649e-06,0
-3.17128e-05,8.98273e-06,-0.000111794,4.75446e-06,1.93351e-05,-6.47831e-06,1.40545e-05,5.35667e-06,0
-3.17569e-05,8.35601e-06,-0.000100494,3.79471e-06,1.82548e-05,-9.75869e-06,1.38482e-05,6.50563e-06,0
-3.30474e-05,7.61764e-06,-8.21141e-05,1.10962e-07,1.91735e-05,-1.26464e-05,1.28925e-05,7.27915e-06,0
-3.36629e-05,7.45801e-06,-6.06202e-05,-3.90083e-06,1.8077e-05,-1.16316e-05,1.15862e-05,7.71463e-06,0
-3.32015e-05,7.03592e-06,-4.10289e-05,-5.62783e-06,1.65236e-05,-9.45299e-06,1.17193e-05,6.82954e-06,0
-3.26856e-05,5.39043e-06,-2.70653e-05,-7.9299e-06,1.65251e-05,-9.48746e-06,1.34437e-05,4.96169e-06,0
-3.35536e-05,4.26348e-06,-2.02975e-05,-9.85034e-06,1.65593e-05,-1.01631e-05,1.39819e-05,4.25301e-06,0
-3.41043e-05,3.03815e-06,-1.54597e-05,-7.54589e-06,1.59885e-05,-9.76431e-06,1.33739e-05,4.94613e-06,0
-3.31731e-05,1.90842e-06,-8.98143e-06,-6.38016e-06,1.5946e-05,-9.22128e-06,1.34589e-05,6.29542e-06,0
-3.12939e-05,2.931e-06,-4.50698e-06,-3.8713e-06,1.54815e-05,-8.57079e-06,1.47174e-05,6.61372e-06,0
-3.16851e-05,5.59847e-06,-3.57976e-06,2.27363e-06,1.58732e-05,-8.32583e-06,1.66448e-05,6.92539e-06,0
-3.30788e-05,7.56954e-06,-4.86377e-06,6.30576e-06,1.68488e-05,-9.73838e-06,1.79385e-05,7.23271e-06,0
-3.12981e-05,7.65558e-06,-5.39667e-06,5.3916e-06,1.7399e-05,-1.04871e-05,1.8198e-05,7.23658e-06,0
-2.99378e-05,8.31931e-06,-4.68894e-06,3.94736e-06,1.78871e-05,-1.01629e-05,1.89063e-05,8.45142e-06,0
-3.01856e-05,9.42718e-06,-2.3144e-06,9.75982e-06,1.59922e-05,-9.08199e-06,2.00567e-05,8.67627e-06,0
-3.00391e-05,1.05629e-05,3.52209e-07,2.63988e-05,1.31542e-05,-7.20782e-06,2.05883e-05,8.14866e-06,0
-2.8791e-05,1.21329e-05,2.39817e-06,4.57133e-05,1.2722e-05,-5.40701e-06,2.00484e-05,7.76599e-06,0
-2.77915e-05,1.27922e-05,4.61059e-06,5.60034e-05,1.38411e-05,-4.04081e-06,2.00995e-05,7.53832e-06,0
-2.78986e-05,1.36658e-05,7.63161e-06,5.19994e-05,1.31739e-05,-3.13437e-06,2.09268e-05,5.75412e-06,0
-2.8861e-05,1.52143e-05,1.03606e-05,3.68092e-05,1.23338e-05,-2.36439e-06,2.15725e-05,3.48458e-06,0
-2.99528e-05,1.67033e-05,1.03778e-05,1.93241e-05,1.39807e-05,-2.63685e-06,2.24047e-05,2.51809e-06,0
-3.00156e-05,1.75843e-05,8.38576e-06,4.16869e-06,1.61371e-05,-3.78731e-06,2.31814e-05,2.29015e-06,0
-2.95049e-05,1.77122e-05,5.26798e-06,-9.12242e-06,1.60108e-05,-5.56165e-06,2.24438e-05,1.43279e-06,0
-2.97794e-05,1.74438e-05,1.53122e-06,-2.11633e-05,1.35487e-05,-7.35653e-06,1.96566e-05,-1.98545e-08,0
-3.04956e-05,1.79287e-05,-1.92866e-06,-2.95977e-05,1.18262e-05,-8.46194e-06,1.71347e-05,-9.40605e-07,0
-2.98567e-05,1.76709e-05,-2.47128e-06,-3.47056e-05,1.21943e-05,-9.49583e-06,1.60109e-05,-4.12808e-07,0
-2.94163e-05,1.70553e-05,-8.83713e-07,-3.94834e-05,1.22075e-05,-1.1896e-05,1.47584e-05,8.10546e-08,0
-3.00134e-05,1.92252e-05,-3.10429e-07,-4.72286e-05,9.86058e-06,-1.40593e-05,1.31948e-05,-2.14578e-06,0
-3.16632e-05,2.30245e-05,-1.39079e-06,-5.84714e-05,7.27219e-06,-1.3895e-05,1.2105e-05,-5.54945e-06,0
-3.22044e-05,2.90961e-05,-1.21498e-06,-6.98212e-05,6.113e-06,-1.23529e-05,1.05768e-05,-7.75386e-06,0
-3.16267e-05,4.00717e-05,2.50871e-06,-7.81652e-05,5.16499e-06,-1.22166e-05,8.66068e-06,-8.99417e-06,0
-3.16459e-05,5.2978e-05,6.40535e-06,-8.46665e-05,2.40547e-06,-1.30324e-05,7.73313e-06,-1.00163e-05,0
-3.08072e-05,6.19099e-05,7.21456e-06,-8.46659e-05,-7.62524e-07,-1.32724e-05,7.02793e-06,-8.74701e-06,0
-2.98464e-05,6.1162e-05,4.8436e-06,-6.89845e-05,-2.25699e-06,-1.24658e-05,7.29161e-06,-6.9264e-06,0
-2.8124e-05,4.91107e-05,7.59706e-07,-4.09557e-05,6.59704e-07,-1.18614e-05,8.24147e-06,-6.89441e-06,0
-2.67635e-05,2.84635e-05,-2.21358e-06,-1.43787e-05,9.00334e-06,-1.22319e-05,9.38315e-06,-6.63557e-06,0
-2.58087e-05,3.45314e-06,-3.13939e-06,2.25795e-06,2.04479e-05,-1.32799e-05,1.19904e-05,-6.38833e-06,0
-2.42788e-05,-1.90732e-05,-3.1407e-06,8.919e-06,3.24265e-05,-1.45985e-05,1.33551e-05,-5.84339e-06,0
-2.42358e-05,-3.40015e-05,-5.36462e-06,7.7665e-06,3.68563e-05,-1.46219e-05,1.3383e-05,-3.84957e-06,0
-2.56658e-05,-3.94518e-05,-9.38066e-06,3.47471e-06,3.15036e-05,-1.4823e-05,1.44596e-05,-2.10285e-06,0
-2.86623e-05,-3.67761e-05,-1.15096e-05,3.88242e-07,2.20984e-05,-1.46609e-05,1.6459e-05,-9.06866e-07,0
-3.06757e-05,-3.09045e-05,-1.00542e-05,-4.35402e-07,1.35635e-05,-1.39422e-05,1.40265e-05,3.62171e-07,0
-3.05895e-05,-2.55569e-05,-7.62743e-06,-1.09214e-06,9.50998e-06,-1.41134e-05,6.45526e-06,6.69324e-07,0
-3.04643e-05,-1.98336e-05,-6.3113e-06,-3.67291e-06,8.4591e-06,-1.56759e-05,5.15275e-07,7.31589e-07,0
-3.10151e-05,-1.40126e-05,-5.63308e-06,-6.7726e-06,7.71623e-06,-1.73324e-05,1.69401e-06,9.53082e-07,0
-3.16094e-05,-9.089e-06,-4.4628e-06,-6.57615e-06,6.52887e-06,-1.73782e-05,9.75801e-06,9.61202e-07,0
-3.18083e-05,-5.32275e-06,-3.26844e-06,-1.40691e-06,6.50343e-06,-1.5333e-05,1.93533e-05,2.24069e-06,0
-3.16243e-05,-1.77824e-06,-3.22157e-06,5.17599e-06,7.43867e-06,-1.25841e-05,2.57621e-05,4.26925e-06,0
-3.10999e-05,5.07196e-06,-3.93402e-06,9.35227e-06,7.87566e-06,-1.13898e-05,2.53496e-05,4.82846e-06,0
-3.00948e-05,2.0038e-05,-5.91266e-06,1.07878e-05,7.75414e-06,-1.1536e-05,1.86851e-05,4.17607e-06,0
-2.8564e-05,4.31896e-05,-6.88216e-06,1.14294e-05,7.1237e-06,-1.14386e-05,1.01137e-05,4.532e-06,0
-2.79459e-05,6.45266e-05,-6.85559e-06,1.50058e-05,6.32706e-06,-1.0927e-05,4.58895e-06,5.63599e-06,0
-2.88252e-05,7.46758e-05,-7.83455e-06,2.18881e-05,6.24664e-06,-1.09681e-05,3.42707e-06,6.65134e-06,0
-2.86063e-05,7.57874e-05,-9.4241e-06,2.9031e-05,8.01129e-06,-1.0858e-05,6.38841e-06,5.56682e-06,0
-2.64e-05,7.45169e-05,-9.00846e-06,3.09071e-05,1.019e-05,-9.12157e-06,1.17112e-05,2.84684e-06,0
-2.51015e-05,6.70971e-05,-6.82846e-06,2.40323e-05,1.0871e-05,-6.89531e-06,1.46064e-05,1.93151e-06,0
-2.60916e-05,4.9755e-05,-3.80591e-06,1.24343e-05,1.03253e-05,-6.22286e-06,1.43386e-05,2.42452e-06,0
-2.7992e-05,2.72886e-05,-1.55164e-06,5.29957e-07,1.06222e-05,-6.17204e-06,1.35419e-05,2.54033e-06,0
-2.85156e-05,3.85811e-06,-1.031e-06,-8.47524e-06,1.26201e-05,-5.79216e-06,1.4828e-05,1.7577e-06,0
-2.81334e-05,-2.28024e-05,-1.66472e-07,-9.4055e-06,1.42634e-05,-5.231e-06,1.94494e-05,1.06484e-06,0
-2.76919e-05,-4.78111e-05,-1.318e-07,-4.14672e-06,1.50624e-05,-5.44086e-06,2.40929e-05,3.05255e-07,0
-2.89677e-05,-6.3474e-05,-1.49423e-06,2.43768e-07,1.54041e-05,-5.60831e-06,2.7491e-05,-5.47075e-07,0
-3.00691e-05,-6.7913e-05,-2.34279e-06,1.73886e-06,1.54192e-05,-5.23898e-06,2.8837e-05,6.28089e-07,0
-2.85521e-05,-5.72097e-05,2.34926e-07,3.68787e-06,1.65327e-05,-5.91072e-06,2.80986e-05,3.15401e-06,0
-2.69075e-05,-4.11975e-05,5.60917e-06,1.00455e-05,1.67139e-05,-6.52509e-06,2.68255e-05,5.09926e-06,0
-2.7013e-05,-3.11974e-05,6.67706e-06,1.66097e-05,1.63488e-05,-6.29195e-06,2.65617e-05,5.18273e-06,0
-2.88726e-05,-2.58975e-05,2.36535e-06,1.97792e-05,1.67137e-05,-6.21538e-06,2.87052e-05,4.1373e-06,0
-3.15089e-05,-1.81218e-05,-6.00118e-06,2.09305e-05,1.79266e-05,-6.78666e-06,2.92058e-05,4.6782e-06,0
-3.35574e-05,-9.372e-06,-1.6253e-05,1.87405e-05,1.94416e-05,-7.44702e-06,2.63198e-05,5.31263e-06,0
-3.38748e-05,-3.45702e-06,-2.41832e-05,1.27119e-05,2.04703e-05,-7.18865e-06,2.18461e-05,4.94139e-06,0
-3.41545e-05,1.15823e-06,-2.85937e-05,4.32915e-06,2.14326e-05,-7.03867e-06,1.81129e-05,3.93769e-06,0
-3.48066e-05,5.09314e-06,-2.90502e-05,-3.71037e-06,2.18663e-05,-7.53316e-06,1.62627e-05,3.36695e-06,0
-3.47246e-05,8.54255e-06,-2.67802e-05,-8.19246e-06,2.11653e-05,-8.37253e-06,1.44719e-05,2.92166e-06,0
-3.3859e-05,9.9137e-06,-2.22132e-05,-8.44834e-06,1.86589e-05,-8.53613e-06,1.05878e-05,2.23927e-06,0
-3.31254e-05,1.16157e-05,-1.63963e-05,-8.88837e-06,1.56051e-05,-7.26833e-06,1.90412e-06,1.76266e-06,0
-3.30686e-05,1.51031e-05,-1.07147e-05,-1.2622e-05,1.35848e-05,-6.67937e-06,-1.24798e-05,1.98523e-06,0
-3.32719e-05,1.91215e-05,-7.31079e-06,-1.73379e-05,1.37018e-05,-7.8652e-06,-2.55037e-05,3.8351e-06,0
-3.34311e-05,2.06212e-05,-6.7716e-06,-2.01305e-05,1.46262e-05,-9.69979e-06,-2.70812e-05,5.82204e-06,0
-3.41557e-05,2.11063e-05,-8.23217e-06,-2.01991e-05,1.51595e-05,-1.022e-05,-1.61828e-05,5.57858e-06,0
-3.44976e-05,2.33519e-05,-9.66177e-06,-1.73886e-05,1.45718e-05,-9.37965e-06,-1.27823e-06,2.23598e-06,0
-3.4247e-05,2.78566e-05,-9.82221e-06,-1.26026e-05,1.26197e-05,-8.42954e-06,1.12978e-05,-2.46293e-06,0
-3.41438e-05,3.11957e-05,-9.5642e-06,-9.49041e-06,1.03896e-05,-8.08714e-06,2.01424e-05,-5.5751e-06,0
-3.46346e-05,2.7572e-05,-7.94483e-06,-1.03023e-05,9.08339e-06,-7.66536e-06,2.43026e-05,-4.2936e-06,0
-3.54894e-05,1.98089e-05,-5.02787e-06,-1.39657e-05,7.98598e-06,-7.49409e-06,2.41123e-05,-6.99465e-07,0
-3.54889e-05,1.54723e-05,-4.15016e-06,-1.94761e-05,7.0851e-06,-7.92902e-06,2.3128e-05,1.1746e-06,0
-3.52061e-05,1.54229e-05,-4.83473e-06,-2.63243e-05,7.76477e-06,-8.15781e-06,2.30408e-05,7.33102e-07,0
-3.36214e-05,1.79345e-05,-5.16282e-06,-3.2236e-05,1.1133e-05,-8.27474e-06,2.37809e-05,1.3e-06,0
-3.16378e-05,1.82032e-05,-4.31915e-06,-3.44456e-05,1.57956e-05,-7.92547e-06,2.44402e-05,2.99967e-06,0
-3.15207e-05,1.67146e-05,-2.19002e-06,-2.76157e-05,1.61336e-05,-7.2345e-06,2.19722e-05,2.77145e-06,0
-3.23385e-05,1.80094e-05,-2.72933e-07,-1.26929e-05,1.37042e-05,-6.35999e-06,1.83339e-05,1.63889e-06,0
-3.19116e-05,2.09213e-05,7.67641e-07,-1.24617e-06,1.28305e-05,-5.94407e-06,1.69959e-05,2.09354e-06,0
-3.13265e-05,2.43066e-05,1.02248e-06,4.83154e-06,1.35491e-05,-5.42757e-06,1.85706e-05,3.99794e-06,0
-3.12355e-05,2.55598e-05,1.02103e-06,1.09144e-05,1.48744e-05,-4.71668e-06,2.15903e-05,3.7644e-06,0
-3.17053e-05,2.75096e-05,-1.40172e-07,1.68905e-05,1.69211e-05,-4.3317e-06,2.61196e-05,7.7879e-07,0
-3.33856e-05,3.18492e-05,-2.35036e-06,2.00143e-05,2.03162e-05,-3.97817e-06,3.22016e-05,-6.71604e-07,0
-3.47388e-05,3.66e-05,-4.26517e-06,1.91206e-05,2.19009e-05,-3.13773e-06,3.70582e-05,-5.43045e-07,0
-3.44832e-05,4.07225e-05,-4.58361e-06,1.89744e-05,1.99494e-05,-1.94474e-06,3.86531e-05,-8.6175e-10,0
-3.33806e-05,4.48083e-05,-4.54425e-06,2.17937e-05,1.72055e-05,-1.93529e-06,3.62836e-05,8.55504e-07,0
-3.31483e-05,4.8209e-05,-5.36496e-06,2.31749e-05,1.5809e-05,-3.25564e-06,3.17014e-05,1.5479e-06,0
-3.34514e-05,5.16053e-05,-7.3642e-06,1.74855e-05,1.48058e-05,-4.36893e-06,2.69686e-05,1.30601e-06,0
-3.34569e-05,5.62581e-05,-8.91155e-06,6.78756e-06,1.35527e-05,-4.29709e-06,2.09586e-05,-3.40959e-08,0
-3.32251e-05,5.96895e-05,-8.61645e-06,-2.41441e-06,1.22071e-05,-4.31994e-06,1.00209e-05,-3.07201e-07,0
-3.3187e-05,5.79132e-05,-7.51774e-06,-7.85066e-06,1.08079e-05,-4.46476e-06,-6.07778e-06,1.08004e-06,0
-3.27129e-05,5.02216e-05,-7.06361e-06,-9.42422e-06,1.04288e-05,-4.37913e-06,-2.21506e-05,3.05298e-06,0
-3.11889e-05,3.81104e-05,-6.67806e-06,-7.37048e-06,1.10882e-05,-4.76457e-06,-3.17207e-05,4.40268e-06,0
-2.8868e-05,2.42965e-05,-5.92879e-06,-4.04379e-06,1.26384e-05,-6.17218e-06,-3.24354e-05,4.26311e-06,0
-2.82875e-05,1.54498e-05,-6.48105e-06,-2.75516e-06,1.43442e-05,-7.74577e-06,-2.64125e-05,2.13237e-06,0
-3.08509e-05,1.369e-05,-8.53945e-06,-4.04268e-06,1.60925e-05,-8.65486e-06,-1.72038e-05,7.79468e-07,0
-3.36032e-05,1.33888e-05,-1.12542e-05,-8.70788e-06,1.7811e-05,-8.91604e-06,-8.38777e-06,-1.55273e-07,0
-3.35866e-05,8.85244e-06,-1.31534e-05,-1.65832e-05,1.81619e-05,-9.59514e-06,-1.86317e-06,-2.06564e-06,0
-3.16695e-05,4.05367e-06,-1.35482e-05,-2.69354e-05,1.71586e-05,-1.09813e-05,1.51559e-06,-3.38072e-06,0
-3.05652e-05,5.03158e-06,-1.23235e-05,-3.74009e-05,1.44124e-05,-1.08506e-05,2.75086e-06,-3.1649e-06,0
-3.09781e-05,1.08502e-05,-1.11517e-05,-4.17976e-05,1.13158e-05,-8.72306e-06,2.93379e-06,-2.7586e-06,0
-3.08421e-05,1.62698e-05,-9.78972e-06,-3.4663e-05,7.19809e-06,-7.58095e-06,1.56228e-06,-4.01948e-06,0
-2.98233e-05,1.84808e-05,-9.91442e-06,-2.27396e-05,2.07363e-06,-9.80269e-06,1.10486e-07,-5.52612e-06,0
-2.94029e-05,1.84237e-05,-1.11047e-05,-1.1744e-05,4.78584e-07,-1.06284e-05,4.67478e-07,-7.44006e-06,0
-2.91295e-05,1.71264e-05,-1.00295e-05,-3.58074e-06,2.29866e-06,-8.39385e-06,5.40939e-07,-9.67047e-06,0
-2.90035e-05,1.65578e-05,-8.12672e-06,3.71718e-07,5.60129e-06,-6.82718e-06,1.49282e-06,-1.07361e-05,0
-2.95081e-05,1.71346e-05,-6.30418e-06,4.27003e-06,6.65491e-06,-6.85054e-06,4.46162e-06,-1.02591e-05,0
-2.85815e-05,2.12235e-05,-6.04236e-06,7.95367e-06,3.95771e-06,-8.17963e-06,5.89503e-06,-8.73988e-06,0
-2.48565e-05,3.17515e-05,-6.27696e-06,1.15437e-05,1.72443e-06,-9.81336e-06,4.91677e-06,-7.77203e-06,0
-2.26225e-05,4.20647e-05,-6.44187e-06,1.29213e-05,1.16516e-06,-9.97204e-06,1.67391e-06,-7.83952e-06,0
-2.37636e-05,4.41241e-05,-7.6981e-06,1.38827e-05,9.98164e-07,-1.02196e-05,-1.65484e-06,-7.44364e-06,0
-2.52922e-05,3.63512e-05,-9.08434e-06,2.43388e-05,3.06226e-06,-1.23938e-05,-3.31574e-06,-5.617e-06,0
-2.64299e-05,2.15407e-05,-1.05775e-05,4.82692e-05,8.55872e-06,-1.35034e-05,-2.79202e-06,-3.22056e-06,0
-2.73342e-05,3.58635e-06,-1.16368e-05,6.88039e-05,1.25254e-05,-1.23676e-05,-2.40792e-07,-7.65188e-07,0
-2.82549e-05,-1.15535e-05,-1.10013e-05,6.6572e-05,1.26914e-05,-1.05844e-05,3.87085e-06,1.34567e-06,0
-2.95556e-05,-1.95144e-05,-9.16569e-06,4.04249e-05,1.10173e-05,-9.51325e-06,8.46773e-06,2.69362e-06,0
-3.04757e-05,-2.09281e-05,-8.60541e-06,4.93655e-06,9.30042e-06,-8.92288e-06,1.16932e-05,2.60666e-06,0
-3.0727e-05,-1.92048e-05,-9.29334e-06,-2.34626e-05,9.00943e-06,-9.0903e-06,1.25121e-05,9.30462e-07,0
-3.05047e-05,-1.70867e-05,-9.28678e-06,-4.05135e-05,9.62234e-06,-9.36055e-06,1.26339e-05,-1.14032e-06,0
-2.973e-05,-1.2887e-05,-8.33224e-06,-4.8572e-05,1.02412e-05,-8.7087e-06,1.53039e-05,-1.57746e-06,0
-2.86808e-05,-6.70422e-06,-7.58919e-06,-5.05699e-05,1.1581e-05,-8.09053e-06,1.90714e-05,-7.96599e-07,0
-2.8453e-05,-2.72456e-06,-8.12802e-06,-4.90247e-05,1.36048e-05,-8.06049e-06,2.1115e-05,-1.26261e-06,0
-2.88363e-05,-3.04406e-06,-1.08122e-05,-4.70235e-05,1.37312e-05,-8.14601e-06,2.03948e-05,-2.4478e-06,0
-2.87454e-05,-4.7097e-06,-1.42306e-05,-4.47176e-05,1.08953e-05,-7.73907e-06,1.83606e-05,-2.39566e-06,0
-2.78854e-05,-5.38433e-06,-1.61306e-05,-4.61354e-05,7.73369e-06,-7.56162e-06,1.59859e-05,-4.73083e-07,0
-2.71838e-05,-5.64221e-06,-1.59752e-05,-4.94353e-05,6.51834e-06,-7.85714e-06,1.45381e-05,4.90101e-07,0
-2.70525e-05,-6.64725e-06,-1.47048e-05,-4.65054e-05,6.01001e-06,-9.27633e-06,1.53682e-05,-4.53983e-07,0
-2.71498e-05,-6.32453e-06,-1.28854e-05,-3.59119e-05,6.65824e-06,-1.11348e-05,1.87751e-05,-1.14245e-06,0
-2.80447e-05,-1.58312e-06,-1.22157e-05,-2.11745e-05,8.9748e-06,-1.17495e-05,2.27324e-05,-1.05646e-07,0
-2.89806e-05,1.07752e-06,-1.48167e-05,-1.62905e-05,1.18082e-05,-1.12201e-05,2.308e-05,2.75308e-06,0
-2.91812e-05,-1.55827e-06,-1.69361e-05,-2.18728e-05,1.40183e-05,-1.0865e-05,2.27568e-05,4.19264e-06,0
-2.96979e-05,-5.58193e-06,-1.82239e-05,-2.45942e-05,1.38365e-05,-1.07115e-05,2.3657e-05,3.15299e-06,0
-3.0414e-05,-1.15217e-05,-1.92605e-05,-2.27398e-05,1.26602e-05,-1.07392e-05,2.33745e-05,3.22623e-06,0
-2.96675e-05,-1.42116e-05,-1.85707e-05,-1.92877e-05,1.18433e-05,-1.0992e-05,2.32265e-05,4.77742e-06,0
-2.77002e-05,-1.20718e-05,-1.7195e-05,-1.80989e-05,1.20571e-05,-1.06396e-05,2.21942e-05,4.60415e-06,0
-2.69572e-05,-8.85922e-06,-1.52067e-05,-1.68447e-05,1.48546e-05,-1.11952e-05,1.95176e-05,2.26608e-06,0
-2.7943e-05,-6.92151e-06,-1.35067e-05,-1.46517e-05,1.81712e-05,-1.20258e-05,1.85659e-05,1.17011e-06,0
-2.92044e-05,-6.70291e-06,-1.22624e-05,-1.09164e-05,1.9874e-05,-1.22332e-05,2.34547e-05,1.79227e-06,0
-3.0073e-05,-5.35715e-06,-9.74381e-06,-4.85167e-06,2.03288e-05,-1.25324e-05,3.39555e-05,1.37436e-06,0
-3.11917e-05,-2.17815e-06,-7.00562e-06,1.34496e-06,1.97277e-05,-1.26663e-05,4.51231e-05,6.72917e-07,0
-3.22314e-05,2.04722e-06,-6.62106e-06,4.82384e-06,1.79172e-05,-1.19914e-05,5.21853e-05,1.7213e-06,0
-3.23808e-05,4.58219e-06,-7.66786e-06,4.41674e-06,1.57418e-05,-1.11627e-05,5.29683e-05,3.82047e-06,0
-3.22726e-05,5.2206e-06,-8.09213e-06,4.27864e-06,1.49852e-05,-1.08284e-05,4.80378e-05,5.0886e-06,0
-3.19409e-05,4.52504e-06,-6.03028e-06,7.19868e-06,1.57344e-05,-9.92525e-06,4.12744e-05,5.49934e-06,0
-3.12852e-05,1.92647e-06,-2.95898e-06,1.31468e-05,1.73672e-05,-7.94073e-06,3.56881e-05,4.80303e-06,0
-3.02921e-05,-1.51254e-06,-2.1385e-06,1.87473e-05,1.9787e-05,-4.56232e-06,2.99639e-05,3.88509e-06,0
-2.97173e-05,-2.02669e-06,-3.28661e-06,2.23062e-05,2.26037e-05,-1.68866e-06,2.09838e-05,3.75316e-06,0
-2.95129e-05,1.22662e-06,-3.09603e-06,2.24292e-05,2.52971e-05,-1.02243e-06,8.70947e-06,3.51893e-06,0
-2.98439e-05,5.09674e-06,-2.32181e-06,2.01043e-05,2.75183e-05,-2.15138e-06,-2.58776e-06,3.45315e-06,0
-3.07108e-05,6.93407e-06,-3.18209e-06,1.71555e-05,2.66855e-05,-4.26921e-06,-9.22767e-06,3.69399e-06,0
-3.06164e-05,6.62029e-06,-4.30905e-06,1.66247e-05,2.13048e-05,-5.90112e-06,-1.12199e-05,3.20215e-06,0
-2.91774e-05,6.48833e-06,-5.83025e-06,1.94361e-05,1.72657e-05,-6.95467e-06,-1.2465e-05,2.36518e-06,0
-2.84479e-05,6.95428e-06,-8.56683e-06,2.50846e-05,1.69788e-05,-7.77275e-06,-1.36009e-05,1.31438e-06,0
-3.00548e-05,1.09463e-05,-1.10358e-05,3.07375e-05,1.69169e-05,-9.28152e-06,-1.30273e-05,-6.40054e-07,0
-3.10883e-05,2.50173e-05,-1.31976e-05,3.20497e-05,1.66782e-05,-1.2317e-05,-1.15036e-05,-8.52731e-07,0
-3.07486e-05,4.60274e-05,-1.52763e-05,2.99927e-05,1.54803e-05,-1.26806e-05,-1.09267e-05,-2.52632e-07,0
-2.96385e-05,5.93805e-05,-1.46251e-05,2.59222e-05,1.24714e-05,-1.10219e-05,-9.58502e-06,-7.94845e-07,0
-2.90834e-05,6.71131e-05,-1.1899e-05,1.74111e-05,1.03345e-05,-1.08789e-05,-4.1974e-06,4.06036e-07,0
-3.06499e-05,7.22672e-05,-9.38552e-06,3.87667e-06,1.00326e-05,-1.21467e-05,4.19334e-06,2.5231e-06,0
-3.14085e-05,6.34476e-05,-8.44927e-06,-1.37852e-05,9.03087e-06,-1.20631e-05,1.24978e-05,2.31738e-06,0
-3.19894e-05,4.29629e-05,-6.3985e-06,-3.43466e-05,8.9814e-06,-9.78557e-06,1.75966e-05,7.79819e-07,0
-3.30667e-05,2.13865e-05,-1.39525e-06,-5.01129e-05,1.06234e-05,-8.57381e-06,1.76149e-05,8.16858e-07,0
-3.26816e-05,4.61674e-06,6.42244e-06,-5.6117e-05,1.23097e-05,-8.17049e-06,1.35667e-05,1.88417e-06,0
-3.14146e-05,-8.59837e-06,1.53753e-05,-5.40524e-05,1.28981e-05,-8.26131e-06,7.59971e-06,2.74332e-06,0
-2.93754e-05,-2.06945e-05,2.33318e-05,-4.81061e-05,1.16861e-05,-8.29385e-06,2.98769e-06,3.15749e-06,0
-2.74656e-05,-3.51487e-05,3.0292e-05,-4.09955e-05,1.0038e-05,-9.26868e-06,8.74047e-07,2.37037e-06,0
-2.78149e-05,-4.80391e-05,3.37598e-05,-3.46463e-05,8.87162e-06,-1.05132e-05,-1.03867e-06,1.20195e-06,0
-3.05864e-05,-5.00363e-05,3.07248e-05,-3.26755e-05,8.27808e-06,-1.05055e-05,-3.16551e-06,4.89156e-07,0
-3.30167e-05,-3.94557e-05,2.02367e-05,-3.50997e-05,6.59526e-06,-1.05226e-05,-2.34328e-06,2.95379e-07,0
-3.44226e-05,-2.47907e-05,4.03669e-06,-3.78413e-05,4.45845e-06,-1.20244e-05,1.70612e-06,-3.84989e-07,0
-3.54709e-05,-1.32198e-05,-1.38365e-05,-3.58898e-05,4.71038e-06,-1.38164e-05,7.13964e-06,-1.66569e-06,0
-3.5518e-05,-3.97038e-06,-2.93012e-05,-2.64147e-05,6.56334e-06,-1.44795e-05,1.18192e-05,-3.23196e-06,0
-3.39057e-05,3.866e-06,-4.06999e-05,-1.29521e-05,6.84303e-06,-1.52215e-05,1.32424e-05,-3.786e-06,0
-3.13472e-05,1.17848e-05,-4.5827e-05,-2.42919e-06,6.51477e-06,-1.5578e-05,1.10243e-05,-2.526e-06,0
-2.98747e-05,1.85042e-05,-4.38497e-05,2.02634e-06,6.16737e-06,-1.44151e-05,8.26135e-06,-5.01489e-07,0
-2.96896e-05,2.292e-05,-3.76104e-05,3.14738e-06,4.45999e-06,-1.25753e-05,9.735e-06,2.74785e-06,0
-2.98189e-05,2.55622e-05,-3.01846e-05,5.33874e-06,2.86418e-06,-1.15231e-05,1.41277e-05,5.74526e-06,0
-2.99879e-05,2.70076e-05,-2.09233e-05,1.40124e-05,5.23159e-06,-1.09333e-05,1.75449e-05,7.16627e-06,0
-2.91276e-05,2.57007e-05,-1.12838e-05,2.54402e-05,1.27754e-05,-1.08509e-05,1.80681e-05,7.54809e-06,0
-2.71115e-05,2.33614e-05,-2.61601e-06,2.82111e-05,2.08076e-05,-1.05443e-05,1.70582e-05,6.99777e-06,0
-2.6371e-05,2.144e-05,7.0435e-06,1.96531e-05,2.27183e-05,-9.67821e-06,1.55875e-05,4.70411e-06,0
-2.69338e-05,2.10611e-05,1.28868e-05,7.69708e-06,1.88928e-05,-9.62713e-06,1.4879e-05,1.4205e-06,0
-2.84619e-05,2.05428e-05,1.15961e-05,5.81064e-07,1.49687e-05,-9.9572e-06,1.49842e-05,1.5152e-06,0
-2.96858e-05,1.93279e-05,8.32608e-06,3.66155e-07,1.08905e-05,-1.03893e-05,1.35884e-05,2.90637e-06,0
-2.89338e-05,1.97017e-05,3.99485e-06,3.46248e-06,5.69427e-06,-1.19595e-05,1.10318e-05,3.5335e-06,0
-2.66453e-05,2.58028e-05,-2.38962e-06,6.15935e-06,1.39317e-06,-1.31004e-05,5.66506e-06,4.1681e-06,0
-2.53418e-05,4.03242e-05,-9.87302e-06,1.01441e-05,-4.04137e-07,-1.28079e-05,-7.8573e-06,3.90445e-06,0
-2.76689e-05,5.44365e-05,-1.57246e-05,1.52923e-05,-4.62441e-07,-1.07343e-05,-3.12199e-05,4.89813e-06,0
-2.98778e-05,6.12786e-05,-1.76581e-05,1.88241e-05,2.3112e-07,-7.80912e-06,-5.09485e-05,5.98784e-06,0
-2.84299e-05,6.34316e-05,-1.73731e-05,1.71251e-05,1.45414e-06,-5.38585e-06,-5.06074e-05,5.71482e-06,0
-2.62699e-05,6.27925e-05,-1.51443e-05,1.22922e-05,2.74528e-06,-4.44482e-06,-3.00996e-05,4.04831e-06,0
-2.64251e-05,5.64702e-05,-1.18357e-05,7.43857e-06,2.47821e-06,-6.24242e-06,-9.52699e-07,2.69097e-06,0
-2.7838e-05,4.66762e-05,-8.79726e-06,2.30396e-06,2.63845e-06,-8.90009e-06,2.41328e-05,1.6569e-06,0
-2.89448e-05,3.80098e-05,-7.21014e-06,-2.77204e-06,5.24176e-06,-9.84907e-06,4.24934e-05,1.38665e-06,0
-2.93813e-05,3.43509e-05,-7.49714e-06,-6.97141e-06,7.30408e-06,-9.31659e-06,5.37449e-05,2.02468e-06,0
-2.97923e-05,3.5425e-05,-8.78334e-06,-7.86951e-06,7.06579e-06,-9.86054e-06,5.76926e-05,2.37727e-06,0
-3.08341e-05,3.46451e-05,-9.9557e-06,-6.32445e-06,5.48489e-06,-1.04796e-05,5.72035e-05,3.34931e-06,0
-3.20197e-05,2.18201e-05,-1.1282e-05,-4.84803e-06,5.1265e-06,-9.59369e-06,5.62067e-05,3.95464e-06,0
-3.37012e-05,-2.28846e-06,-1.30905e-05,-3.99744e-06,6.73009e-06,-8.99887e-06,5.58143e-05,1.87364e-06,0
-3.57747e-05,-2.33357e-05,-1.42278e-05,-2.46403e-06,9.98337e-06,-9.2216e-06,5.45134e-05,-1.32578e-06,0
-3.66387e-05,-3.28632e-05,-1.41648e-05,-2.15458e-06,1.32034e-05,-8.87621e-06,5.31997e-05,-1.49625e-06,0
-3.56033e-05,-3.39455e-05,-1.35692e-05,-4.96788e-06,1.67224e-05,-7.45437e-06,5.17604e-05,7.28806e-08,0
-3.43491e-05,-3.17773e-05,-1.2602e-05,-7.93758e-06,2.0327e-05,-5.716e-06,5.00982e-05,8.03515e-07,0
-3.43343e-05,-2.85376e-05,-1.1084e-05,-6.5373e-06,2.18202e-05,-5.34041e-06,4.67746e-05,3.25467e-07,0
-3.43921e-05,-2.67323e-05,-1.04548e-05,-2.31221e-06,2.16426e-05,-6.3374e-06,4.14974e-05,-6.22659e-07,0
-3.38012e-05,-2.72074e-05,-1.08279e-05,1.88748e-06,1.96974e-05,-7.50845e-06,3.45545e-05,-2.01494e-06,0
-3.28063e-05,-2.58847e-05,-1.0595e-05,7.21037e-06,1.78042e-05,-8.02823e-06,2.50526e-05,-2.94394e-06,0
-3.07533e-05,-1.76534e-05,-9.8454e-06,1.27087e-05,1.76923e-05,-7.63516e-06,1.39371e-05,-4.0603e-06,0
-2.96357e-05,-7.71817e-07,-8.60892e-06,1.62319e-05,1.86173e-05,-7.78474e-06,7.94384e-06,-4.90328e-06,0
-2.92219e-05,2.46676e-05,-6.9889e-06,1.01985e-05,1.85297e-05,-8.79206e-06,9.34275e-06,-2.9255e-06,0
-2.9155e-05,4.68497e-05,-6.39868e-06,-6.16798e-06,1.74577e-05,-1.05601e-05,1.24219e-05,-7.44395e-07,0
-2.8773e-05,5.82118e-05,-7.26735e-06,-2.43025e-05,1.83611e-05,-1.14959e-05,1.17772e-05,-2.82515e-06,0
-2.71505e-05,6.17046e-05,-8.90943e-06,-3.7876e-05,1.90149e-05,-1.09514e-05,8.867e-06,-4.85401e-06,0
-2.71737e-05,5.71593e-05,-1.01248e-05,-4.21577e-05,1.7022e-05,-1.13919e-05,7.62044e-06,-3.33555e-06,0
-2.88641e-05,4.71221e-05,-1.07922e-05,-4.24906e-05,1.40825e-05,-1.44256e-05,6.56864e-06,-5.31893e-07,0
-3.03383e-05,3.49044e-05,-9.64091e-06,-4.29226e-05,1.33564e-05,-1.73636e-05,2.83866e-06,1.35621e-06,0
-2.9678e-05,2.47908e-05,-6.30861e-06,-3.87889e-05,1.72625e-05,-1.68972e-05,-3.5674e-06,1.01522e-06,0
-2.88877e-05,1.58457e-05,-1.95448e-06,-2.16406e-05,2.30982e-05,-1.50742e-05,-7.86721e-06,1.05497e-06,0
-2.76946e-05,6.71673e-06,3.60828e-06,8.63249e-06,2.71701e-05,-1.37444e-05,-5.51264e-06,1.18009e-06,0
-2.6707e-05,-3.39592e-06,1.03732e-05,4.20132e-05,2.90035e-05,-1.3627e-05,3.46797e-06,1.7665e-06,0
-2.82704e-05,-1.51474e-05,1.85615e-05,6.45036e-05,2.89665e-05,-1.3424e-05,1.39642e-05,2.63678e-06,0
-3.20845e-05,-2.43926e-05,2.82352e-05,6.49567e-05,2.80635e-05,-1.38564e-05,2.30332e-05,2.28923e-06,0
-3.48158e-05,-2.4736e-05,3.9006e-05,4.81637e-05,2.90325e-05,-1.53339e-05,2.9953e-05,7.1637e-07,0
-3.47142e-05,-1.4785e-05,4.95224e-05,2.82442e-05,3.27656e-05,-1.58372e-05,3.36666e-05,-1.13139e-06,0
-3.49086e-05,-1.61407e-06,5.45694e-05,1.65147e-05,3.53494e-05,-1.41358e-05,3.35404e-05,-2.30303e-06,0
-3.61903e-05,7.72549e-06,4.6841e-05,1.53347e-05,3.39699e-05,-1.11347e-05,2.93305e-05,-3.053e-06,0
-3.63813e-05,1.1272e-05,2.41944e-05,2.10767e-05,3.0926e-05,-8.62715e-06,2.27952e-05,-2.0805e-06,0
-3.39628e-05,1.18713e-05,-7.78161e-06,2.38585e-05,2.81734e-05,-6.41688e-06,1.42852e-05,1.5145e-07,0
-3.15948e-05,1.24073e-05,-3.90153e-05,1.64082e-05,2.49628e-05,-5.89581e-06,2.31237e-06,1.17315e-06,0
-2.98783e-05,1.43743e-05,-6.1868e-05,-1.69038e-07,2.14493e-05,-6.9405e-06,-9.96729e-06,-4.1205e-07,0
-2.83838e-05,1.54105e-05,-7.36439e-05,-1.46399e-05,1.92087e-05,-9.08546e-06,-1.36083e-05,-3.26543e-06,0
-2.77591e-05,1.52937e-05,-7.30149e-05,-1.80874e-05,1.79352e-05,-1.14907e-05,-6.28109e-06,-4.66144e-06,0
-2.82706e-05,1.53408e-05,-6.2943e-05,-1.44567e-05,1.67742e-05,-1.22468e-05,4.65728e-06,-3.45409e-06,0
-2.81244e-05,1.60461e-05,-5.12691e-05,-1.18766e-05,1.66747e-05,-1.14761e-05,1.33652e-05,-1.46168e-06,0
-2.8054e-05,1.79313e-05,-4.25139e-05,-1.05629e-05,1.86606e-05,-1.02386e-05,2.0451e-05,4.11704e-07,0
-2.95037e-05,2.09594e-05,-3.63102e-05,-6.26574e-06,2.20391e-05,-9.49144e-06,2.54277e-05,2.06888e-06,0
-3.06925e-05,2.20186e-05,-3.09295e-05,-3.47834e-06,2.49008e-05,-9.75996e-06,2.71177e-05,5.00632e-06,0
-3.10034e-05,1.8371e-05,-2.73046e-05,-7.50679e-06,2.45795e-05,-1.06431e-05,2.63288e-05,6.62373e-06,0
-3.15805e-05,1.54071e-05,-2.36286e-05,-1.12471e-05,2.18841e-05,-1.10737e-05,2.12561e-05,4.00743e-06,0
-3.22798e-05,1.60609e-05,-1.67377e-05,-1.03294e-05,1.75655e-05,-1.04258e-05,1.16101e-05,1.51393e-06,0
-3.2526e-05,1.96154e-05,-1.0428e-05,-8.63459e-06,1.32865e-05,-1.12482e-05,2.44581e-06,3.02479e-07,0
-3.24607e-05,2.40526e-05,-8.51969e-06,-8.65054e-06,1.18719e-05,-1.11333e-05,-2.45843e-06,1.28613e-06,0
-3.1731e-05,2.72886e-05,-1.01674e-05,-1.32122e-05,1.21949e-05,-1.13163e-05,-3.21616e-06,2.84791e-06,0
-3.03252e-05,3.0061e-05,-1.16042e-05,-1.8775e-05,1.24586e-05,-1.37669e-05,-1.50145e-06,2.35249e-06,0
-2.85827e-05,3.16648e-05,-1.03678e-05,-2.64741e-05,1.26766e-05,-1.47763e-05,-1.20032e-06,3.48028e-07,0
-2.73734e-05,3.33814e-05,-8.01868e-06,-3.46319e-05,1.27949e-05,-1.38799e-05,-1.66016e-06,-3.03532e-07,0
-2.6843e-05,3.63337e-05,-6.54073e-06,-3.66629e-05,1.19319e-05,-1.27345e-05,8.61866e-07,1.13267e-06,0
-2.66091e-05,4.48256e-05,-5.75854e-06,-3.18913e-05,1.06976e-05,-1.33992e-05,7.48101e-06,2.12846e-06,0
-2.62851e-05,5.80359e-05,-6.40685e-06,-2.48428e-05,9.87521e-06,-1.43457e-05,1.51603e-05,2.864e-06,0
-2.58838e-05,6.71523e-05,-7.49678e-06,-1.89499e-05,1.10555e-05,-1.50382e-05,1.98467e-05,3.22714e-06,0
-2.58062e-05,6.72452e-05,-8.66686e-06,-1.31414e-05,1.2742e-05,-1.42325e-05,2.0636e-05,3.38003e-06,0
-2.6441e-05,6.07245e-05,-1.05378e-05,-7.96521e-06,1.27498e-05,-1.17717e-05,1.97649e-05,2.67253e-06,0
-2.80935e-05,5.32368e-05,-1.16479e-05,-6.40533e-06,1.22744e-05,-9.09029e-06,1.98527e-05,1.14432e-06,0
-3.0448e-05,4.65532e-05,-1.14303e-05,-9.83819e-06,1.2289e-05,-8.25341e-06,1.95734e-05,1.21448e-07,0
-3.13845e-05,4.18578e-05,-1.09058e-05,-1.51196e-05,1.13417e-05,-9.49022e-06,1.61249e-05,2.76665e-07,0
-2.95602e-05,4.00084e-05,-1.0593e-05,-2.00583e-05,9.67809e-06,-1.05846e-05,9.20317e-06,1.41903e-06,0
-2.54734e-05,4.01456e-05,-9.10897e-06,-2.35374e-05,8.78442e-06,-9.95797e-06,2.89321e-06,2.8675e-06,0
-2.21994e-05,3.59994e-05,-6.91047e-06,-2.57701e-05,8.83223e-06,-9.58699e-06,3.39873e-09,2.72721e-06,0
-2.2618e-05,2.33252e-05,-5.96251e-06,-2.5632e-05,9.64042e-06,-1.13205e-05,-1.65793e-06,1.48741e-06,0
-2.5628e-05,7.22181e-06,-5.93962e-06,-2.26636e-05,1.02842e-05,-1.421e-05,-2.7447e-06,7.8547e-07,0
-2.94943e-05,-4.10776e-06,-5.76293e-06,-1.74043e-05,1.00227e-05,-1.65885e-05,-1.8402e-06,-7.97322e-07,0
-3.17846e-05,-7.64019e-06,-5.24051e-06,-1.02766e-05,9.80679e-06,-1.6706e-05,-4.1125e-07,-1.63892e-06,0
-3.22747e-05,-3.18343e-06,-3.68754e-06,-3.94383e-06,9.97886e-06,-1.5506e-05,3.18487e-07,-1.41304e-06,0
-3.24864e-05,5.57206e-06,-2.29579e-06,-2.4957e-06,1.09387e-05,-1.22205e-05,6.09346e-06,-1.03522e-06,0
-3.18019e-05,1.33781e-05,-1.04167e-06,-3.76333e-06,1.20136e-05,-9.13068e-06,1.74945e-05,1.28342e-06,0
-3.06651e-05,1.78746e-05,7.97239e-07,-3.64019e-06,1.16982e-05,-6.78583e-06,2.55654e-05,2.54566e-06,0
-3.02585e-05,1.94723e-05,2.66317e-06,-1.51642e-06,1.21565e-05,-4.97473e-06,3.04161e-05,1.69969e-06,0
-3.07015e-05,1.91868e-05,3.92674e-06,1.74074e-06,1.31014e-05,-4.92333e-06,3.3295e-05,5.42305e-07,0
-2.9243e-05,2.04391e-05,4.12476e-06,4.09785e-06,1.54e-05,-5.05196e-06,3.21816e-05,1.71301e-07,0
-2.70791e-05,2.72304e-05,4.51889e-06,4.04153e-06,1.60524e-05,-4.72477e-06,2.60887e-05,4.37942e-07,0
-2.7027e-05,3.42933e-05,6.57612e-06,6.36028e-07,1.40808e-05,-2.54643e-06,1.49807e-05,-8.58683e-07,0
-2.85571e-05,3.49491e-05,8.13756e-06,-4.7255e-06,1.24071e-05,2.33565e-07,-3.07114e-07,-2.52466e-06,0
-2.89005e-05,2.80999e-05,7.34513e-06,-1.02239e-05,8.90711e-06,1.66448e-06,-1.78479e-05,-3.32098e-06,0
-2.62863e-05,1.85089e-05,1.69858e-06,-1.23892e-05,4.7391e-06,1.06087e-06,-3.30005e-05,-2.98968e-06,0
-2.40881e-05,1.29297e-05,-8.08941e-06,-1.05856e-05,2.89254e-06,3.80007e-07,-4.29902e-05,-2.6028e-06,0
-2.45715e-05,1.12845e-05,-1.52769e-05,-7.98065e-06,3.13085e-06,1.67907e-06,-4.42695e-05,-3.05163e-06,0
-2.6399e-05,1.03994e-05,-1.73254e-05,-5.32249e-06,2.74016e-06,3.62556e-06,-3.56961e-05,-4.46676e-06,0
-2.74617e-05,8.58493e-06,-1.52968e-05,-1.657e-06,1.81519e-06,4.48092e-06,-2.12926e-05,-4.99911e-06,0
-2.80166e-05,5.96379e-06,-1.18823e-05,1.51183e-06,1.18035e-06,3.25943e-06,-6.783e-06,-3.14463e-06,0
-2.87104e-05,4.08356e-06,-8.59653e-06,2.32237e-06,1.05459e-06,-9.19571e-08,3.59546e-06,-9.76527e-07,0
-2.93632e-05,2.18794e-06,-6.87578e-06,6.85702e-07,3.61581e-07,-4.24129e-06,8.61159e-06,-7.13176e-07,0
-2.99473e-05,5.07709e-07,-5.94643e-06,-1.83386e-06,-8.54025e-07,-6.83786e-06,1.18464e-05,-1.48341e-06,0
-3.10745e-05,2.03508e-06,-4.71867e-06,-3.71652e-06,-1.12722e-06,-7.21249e-06,1.66501e-05,-4.07695e-07,0
-3.25722e-05,7.61556e-06,-4.4591e-06,-4.08558e-06,-1.12949e-06,-5.83543e-06,2.16172e-05,2.49896e-06,0
-3.36892e-05,1.39106e-05,-5.39541e-06,-4.36984e-06,-2.16006e-06,-4.53003e-06,2.46448e-05,3.9679e-06,0
-3.35264e-05,1.94247e-05,-7.18591e-06,-5.09963e-06,-2.7723e-06,-4.13515e-06,2.57531e-05,2.637e-06,0
-3.21097e-05,2.40152e-05,-8.16615e-06,-4.10874e-06,-1.65384e-06,-3.82896e-06,2.48113e-05,3.39244e-07,0
-3.10835e-05,2.58862e-05,-6.29826e-06,-1.49038e-06,1.49065e-06,-3.04451e-06,2.37037e-05,-2.1677e-06,0
-3.12923e-05,2.40937e-05,-2.78661e-06,2.04438e-06,5.93895e-06,-1.2366e-06,2.16955e-05,-2.97575e-06,0
-3.08729e-05,2.1391e-05,-1.11484e-06,4.68201e-06,9.40586e-06,-7.99712e-08,1.61096e-05,-9.74834e-07,0
-2.94943e-05,1.75415e-05,-1.0778e-06,2.96362e-06,9.0428e-06,-1.87269e-06,1.2577e-05,1.8981e-06,0
-2.87521e-05,9.76409e-06,-1.09122e-06,-3.00476e-06,4.88889e-06,-5.06807e-06,1.49652e-05,2.67312e-06,0
-2.91899e-05,1.91191e-06,6.72121e-07,-8.88765e-06,2.06149e-06,-6.80313e-06,2.00663e-05,2.63771e-06,0
-3.03244e-05,-1.42426e-06,6.66545e-06,-1.0755e-05,2.91072e-06,-5.88222e-06,2.4242e-05,2.50963e-06,0
-3.16465e-05,-2.5825e-06,1.49047e-05,-6.06227e-06,7.99584e-06,-4.47287e-06,2.69303e-05,8.38061e-07,0
-3.35066e-05,-4.37815e-06,2.31569e-05,2.56195e-06,1.60811e-05,-4.62092e-06,2.75285e-05,5.80457e-07,0
-3.39475e-05,-6.32655e-06,2.91776e-05,1.00881e-05,2.23654e-05,-5.99989e-06,2.66178e-05,1.89309e-06,0
-3.32403e-05,-8.04409e-06,2.79683e-05,1.19268e-05,2.32559e-05,-6.01475e-06,2.47379e-05,3.21112e-06,0
-3.29989e-05,-8.50823e-06,1.55683e-05,9.308e-06,2.1885e-05,-4.93125e-06,2.09021e-05,4.01112e-06,0
-3.24151e-05,-5.60311e-06,-6.70503e-06,5.47023e-06,2.02023e-05,-5.21561e-06,1.77616e-05,4.0262e-06,0
-3.12718e-05,-7.28623e-07,-3.24025e-05,2.70383e-06,2.03673e-05,-5.86635e-06,1.68633e-05,3.74425e-06,0
-3.15773e-05,3.07817e-06,-5.43232e-05,7.99606e-07,2.25485e-05,-6.24063e-06,1.71207e-05,4.68949e-06,0
-3.38345e-05,5.4692e-06,-6.67101e-05,-3.29243e-06,2.24708e-05,-6.6434e-06,1.81275e-05,5.70893e-06,0
-3.56233e-05,6.66232e-06,-6.82163e-05,-6.81755e-06,1.92201e-05,-7.44579e-06,1.91984e-05,5.00048e-06,0
-3.65519e-05,6.77307e-06,-6.27545e-05,-8.35657e-06,1.52018e-05,-7.90403e-06,1.86549e-05,3.71625e-06,0
-3.60923e-05,6.28806e-06,-5.49656e-05,-9.65726e-06,1.28542e-05,-8.40187e-06,1.69228e-05,4.10603e-06,0
-3.41941e-05,5.52583e-06,-4.65811e-05,-1.17344e-05,1.17297e-05,-8.5513e-06,1.50538e-05,6.11097e-06,0
-3.25838e-05,4.41788e-06,-3.83631e-05,-1.16821e-05,1.10531e-05,-8.00008e-06,1.3855e-05,7.01829e-06,0
-3.23409e-05,3.23789e-06,-3.13077e-05,-8.37896e-06,1.03898e-05,-7.91955e-06,1.51212e-05,5.63185e-06,0
-3.23219e-05,1.13456e-06,-2.57749e-05,-4.07807e-06,1.15738e-05,-9.67028e-06,1.94921e-05,2.51589e-06,0
-3.16797e-05,-1.47568e-06,-2.00589e-05,-1.87038e-06,1.38222e-05,-1.20619e-05,2.45899e-05,1.20309e-07,0
-3.08643e-05,-2.10522e-06,-1.46734e-05,-2.67248e-06,1.5212e-05,-1.37162e-05,2.83934e-05,6.52796e-07,0
-3.03051e-05,-5.8858e-07,-1.15983e-05,-4.971e-06,1.54017e-05,-1.52196e-05,3.17309e-05,3.48655e-06,0
-3.10313e-05,-4.81711e-07,-9.91135e-06,-7.66328e-06,1.5997e-05,-1.69486e-05,3.21292e-05,5.80504e-06,0
-3.26159e-05,-3.19371e-06,-7.68471e-06,-8.993e-06,1.82887e-05,-1.75618e-05,2.64855e-05,4.84915e-06,0
-3.34871e-05,-5.34406e-06,-4.94886e-06,-8.40559e-06,1.95376e-05,-1.58151e-05,1.66271e-05,6.23442e-07,0
-3.20004e-05,-1.3871e-06,-2.41981e-06,-6.88656e-06,1.7489e-05,-1.5442e-05,5.13074e-06,-3.02936e-06,0
-2.98588e-05,1.14162e-05,-3.4794e-07,-5.07666e-06,1.40876e-05,-1.64285e-05,-5.90967e-06,-4.56925e-06,0
-2.85365e-05,2.47414e-05,-5.51056e-07,-1.00933e-06,1.25835e-05,-1.58093e-05,-1.26705e-05,-3.19731e-06,0
-2.78982e-05,3.1148e-05,-1.54759e-06,5.64508e-06,1.19979e-05,-1.49742e-05,-1.2743e-05,-1.36275e-06,0
-2.79933e-05,2.89351e-05,-4.67947e-07,1.3564e-05,1.06462e-05,-1.55649e-05,-7.68495e-06,-3.04191e-07,0
-2.71108e-05,1.76672e-05,1.0981e-06,2.24079e-05,1.047e-05,-1.64402e-05,-7.29846e-07,1.22429e-07,0
-2.56561e-05,8.58338e-06,1.03209e-06,2.80478e-05,8.8589e-06,-1.74154e-05,4.26908e-06,8.99478e-07,0
-2.55501e-05,6.74615e-06,2.26223e-07,2.7438e-05,5.3658e-06,-1.72418e-05,6.92641e-06,1.61982e-06,0
-2.57153e-05,5.92354e-06,1.23206e-06,2.27976e-05,3.92836e-06,-1.63381e-05,1.00874e-05,5.53575e-07,0
-2.52663e-05,2.09329e-06,2.49773e-06,1.74364e-05,6.27117e-06,-1.73213e-05,1.15197e-05,8.92888e-07,0
-2.54577e-05,-3.00034e-06,3.01714e-06,1.27226e-05,1.11965e-05,-1.88975e-05,8.97365e-06,1.07186e-06,0
-2.63993e-05,-7.91091e-06,2.36505e-06,8.04237e-06,1.39537e-05,-1.95895e-05,3.14652e-06,9.17266e-07,0
-2.68577e-05,-1.27077e-05,-2.53034e-08,5.28588e-06,1.38993e-05,-1.85522e-05,-1.79852e-06,1.25013e-06,0
-2.632e-05,-1.70964e-05,-1.93725e-06,6.29536e-06,1.11613e-05,-1.65535e-05,-1.57259e-06,1.67673e-06,0
-2.54039e-05,-2.47436e-05,-2.4059e-06,7.79802e-06,7.92175e-06,-1.46471e-05,2.80392e-06,1.47587e-06,0
-2.56665e-05,-3.58078e-05,-2.15813e-06,3.81538e-06,7.35352e-06,-1.40957e-05,7.2664e-06,1.55972e-06,0
-2.77436e-05,-4.36199e-05,-2.87198e-06,-8.36295e-06,9.34006e-06,-1.54347e-05,1.11144e-05,1.92929e-06,0
-3.00718e-05,-4.27385e-05,-4.88702e-06,-2.80433e-05,1.11662e-05,-1.73222e-05,1.65189e-05,1.37097e-06,0
-3.11577e-05,-3.61431e-05,-7.01611e-06,-4.73096e-05,1.19238e-05,-1.87008e-05,2.19882e-05,1.16657e-06,0
-3.15441e-05,-2.74822e-05,-6.38356e-06,-5.65029e-05,1.22705e-05,-1.94151e-05,2.63185e-05,1.87814e-06,0
-3.18293e-05,-1.81626e-05,-2.44838e-06,-5.21917e-05,1.14352e-05,-1.83952e-05,3.02234e-05,2.82668e-06,0
-3.09599e-05,-9.27373e-06,1.68671e-06,-3.47816e-05,1.03179e-05,-1.547e-05,3.38802e-05,2.58155e-06,0
-2.9511e-05,-2.52284e-06,4.03341e-06,-7.62103e-06,1.27242e-05,-1.39853e-05,3.48143e-05,2.65495e-06,0
-2.88444e-05,1.96525e-06,4.49791e-06,1.37953e-05,1.93929e-05,-1.42331e-05,3.17978e-05,4.46078e-06,0
-2.87035e-05,4.26276e-06,4.44457e-06,1.45562e-05,2.51505e-05,-1.43776e-05,2.79009e-05,6.09269e-06,0
-2.84183e-05,5.56579e-06,5.87942e-06,2.1316e-07,2.66592e-05,-1.47919e-05,2.64378e-05,5.8585e-06,0
-2.7417e-05,7.09062e-06,7.25567e-06,-1.62707e-05,2.51543e-05,-1.45745e-05,2.68651e-05,4.48832e-06,0
-2.74582e-05,9.54475e-06,7.18401e-06,-2.60035e-05,2.28103e-05,-1.20951e-05,2.65529e-05,2.17964e-06,0
-2.89747e-05,1.38859e-05,7.90776e-06,-2.89863e-05,1.95044e-05,-9.96592e-06,2.45559e-05,4.88563e-07,0
-2.89636e-05,1.78995e-05,1.03096e-05,-3.01366e-05,1.47543e-05,-1.0115e-05,2.33675e-05,-4.12349e-07,0
-2.96815e-05,2.07587e-05,1.07156e-05,-3.30538e-05,1.04268e-05,-1.20971e-05,2.52406e-05,-1.84139e-06,0
-3.15903e-05,2.32374e-05,9.84234e-06,-3.50178e-05,9.16134e-06,-1.31762e-05,2.79694e-05,-6.05793e-07,0
-3.22791e-05,2.30649e-05,1.05658e-05,-3.3121e-05,9.89903e-06,-1.0761e-05,2.76036e-05,1.55183e-06,0
-3.21926e-05,1.98023e-05,1.07821e-05,-3.1537e-05,1.18916e-05,-7.78485e-06,2.53552e-05,9.20159e-07,0
-3.22257e-05,2.01349e-05,8.99284e-06,-3.37872e-05,1.29383e-05,-5.70596e-06,2.2467e-05,-1.17775e-06,0
-3.18486e-05,3.01673e-05,4.56907e-06,-3.72332e-05,1.26329e-05,-3.82503e-06,1.95054e-05,-2.84341e-06,0
-3.05094e-05,4.20874e-05,-3.01225e-06,-3.79983e-05,1.24495e-05,-3.82412e-06,1.76577e-05,-2.20503e-06,0
-2.90583e-05,4.57571e-05,-1.15299e-05,-3.31716e-05,1.08253e-05,-5.4541e-06,1.4507e-05,1.32783e-08,0
-2.7864e-05,4.19135e-05,-1.8151e-05,-2.41022e-05,8.4863e-06,-5.69595e-06,8.27193e-06,2.42784e-06,0
-2.78979e-05,3.50648e-05,-2.18288e-05,-1.65305e-05,7.60196e-06,-3.23197e-06,-5.75167e-08,3.78995e-06,0
-2.67196e-05,2.81572e-05,-2.21425e-05,-1.19925e-05,7.84025e-06,-3.11893e-07,-7.42984e-06,3.25807e-06,0
-2.38397e-05,2.32062e-05,-1.91883e-05,-8.90463e-06,6.92124e-06,4.42075e-07,-1.09761e-05,1.08359e-06,0
-2.21562e-05,2.73815e-05,-1.53595e-05,-5.0004e-06,5.64851e-06,-1.44606e-07,-9.43907e-06,-9.7297e-07,0
-2.34325e-05,4.11463e-05,-1.30389e-05,-1.78742e-06,5.43349e-06,-1.63318e-06,-4.18306e-06,-7.84349e-07,0
-2.61622e-05,5.20279e-05,-1.15992e-05,-9.88357e-08,6.08096e-06,-3.54709e-06,3.69179e-06,5.41774e-07,0
-2.82514e-05,4.79569e-05,-1.06462e-05,1.36654e-06,7.08564e-06,-3.61772e-06,1.10557e-05,7.32036e-07,0
-3.00413e-05,3.11566e-05,-9.61183e-06,3.80701e-06,8.56321e-06,-1.96712e-06,1.3552e-05,1.0206e-07,0
-3.13697e-05,1.07117e-05,-8.42972e-06,5.69338e-06,9.81573e-06,-1.24982e-06,1.13596e-05,-1.93237e-07,0
-3.21043e-05,-9.25088e-06,-7.57776e-06,5.81838e-06,1.14533e-05,-1.82236e-06,9.41139e-06,5.74009e-07,0
-3.26221e-05,-2.68115e-05,-9.30602e-06,6.40455e-06,1.37776e-05,-1.81048e-06,1.01111e-05,1.70734e-06,0
-3.37558e-05,-3.99938e-05,-1.4278e-05,7.74184e-06,1.52366e-05,-2.66727e-06,1.14696e-05,2.19358e-06,0
-3.47452e-05,-4.69712e-05,-2.03357e-05,9.6582e-06,1.56202e-05,-4.9401e-06,1.13508e-05,1.23426e-06,0
-3.48338e-05,-4.51867e-05,-2.65837e-05,1.15634e-05,1.53952e-05,-6.61017e-06,8.89714e-06,-3.59523e-07,0
-3.41363e-05,-3.34811e-05,-3.27242e-05,1.31075e-05,1.50746e-05,-8.45283e-06,5.95889e-06,7.55763e-07,0
-3.31325e-05,-1.51633e-05,-3.43939e-05,1.47168e-05,1.5724e-05,-1.01412e-05,5.64988e-06,2.99823e-06,0
-3.27355e-05,7.71806e-06,-2.98547e-05,1.67584e-05,1.66679e-05,-9.35796e-06,7.6951e-06,4.70492e-06,0
-3.25983e-05,2.84888e-05,-2.197e-05,1.72409e-05,1.55286e-05,-8.17432e-06,8.96781e-06,5.79341e-06,0
-3.2411e-05,4.08976e-05,-1.44535e-05,1.56278e-05,1.39755e-05,-7.78148e-06,2.64386e-06,5.77296e-06,0
-3.11815e-05,4.19754e-05,-1.22741e-05,1.2208e-05,1.48004e-05,-6.94257e-06,-1.66167e-05,5.30578e-06,0
-2.95954e-05,2.77407e-05,-1.28332e-05,6.72604e-06,1.66478e-05,-6.8957e-06,-3.58489e-05,6.10349e-06,0
-2.93895e-05,1.04046e-05,-1.18962e-05,1.96625e-06,1.7851e-05,-7.32696e-06,-3.76196e-05,7.59816e-06,0
-2.98952e-05,-1.46718e-07,-9.70999e-06,-1.7135e-06,1.86109e-05,-8.45142e-06,-2.01163e-05,7.66431e-06,0
-3.13934e-05,-3.93873e-06,-7.37577e-06,-5.44979e-06,1.75719e-05,-1.00825e-05,3.28302e-06,7.53779e-06,0
-3.28945e-05,-1.26015e-06,-5.71332e-06,-7.65267e-06,1.62988e-05,-1.08857e-05,1.9456e-05,8.4309e-06,0
-3.32309e-05,1.60681e-06,-4.63823e-06,-9.15061e-06,1.59648e-05,-1.10738e-05,2.69891e-05,8.40008e-06,0
-3.21888e-05,6.96845e-07,-2.96984e-06,-1.06451e-05,1.5234e-05,-1.1865e-05,3.00086e-05,5.81513e-06,0
-3.1031e-05,-3.30523e-07,-8.31563e-07,-1.12357e-05,1.36236e-05,-1.26091e-05,3.27917e-05,3.53398e-06,0
-3.04329e-05,2.13318e-06,5.39562e-07,-1.18637e-05,1.09667e-05,-1.25038e-05,3.70215e-05,2.69831e-06,0
-3.0097e-05,5.93761e-06,8.017e-07,-1.20112e-05,8.87858e-06,-1.18553e-05,4.07176e-05,2.51657e-06,0
-3.12142e-05,9.14945e-06,4.4045e-08,-1.17358e-05,9.85133e-06,-1.11636e-05,4.00742e-05,2.85103e-06,0
-3.31418e-05,1.14858e-05,-1.00902e-06,-1.52173e-05,1.16185e-05,-1.06139e-05,3.49924e-05,3.39015e-06,0
-3.41425e-05,1.43235e-05,-1.49543e-06,-2.39671e-05,1.01997e-05,-9.26307e-06,2.52046e-05,3.21083e-06,0
-3.43732e-05,1.63423e-05,-1.4675e-06,-3.41019e-05,7.95263e-06,-8.68239e-06,7.07819e-06,1.89009e-06,0
-3.5049e-05,1.54688e-05,-2.52085e-06,-3.94375e-05,7.81634e-06,-9.98609e-06,-1.59592e-05,-5.08036e-07,0
-3.61279e-05,1.30464e-05,-4.42852e-06,-3.60801e-05,8.294e-06,-1.11316e-05,-3.04518e-05,-3.46718e-06,0
-3.70537e-05,1.20805e-05,-6.27644e-06,-2.65681e-05,7.91322e-06,-9.02367e-06,-2.74443e-05,-4.83255e-06,0
-3.71592e-05,1.29346e-05,-9.69032e-06,-1.61994e-05,7.86924e-06,-4.60966e-06,-1.16988e-05,-4.21219e-06,0
-3.69625e-05,1.4963e-05,-1.3654e-05,-4.52569e-06,8.3605e-06,-1.95717e-06,6.32525e-06,-3.63468e-06,0
-3.55668e-05,1.64524e-05,-1.53344e-05,9.44427e-06,1.08872e-05,-4.0173e-06,2.1798e-05,-3.49188e-06,0
-3.34109e-05,1.66193e-05,-1.48611e-05,2.29073e-05,1.39832e-05,-7.99096e-06,3.53281e-05,-2.93641e-06,0
-3.24001e-05,1.6815e-05,-1.30204e-05,3.56958e-05,1.55872e-05,-8.89198e-06,4.5837e-05,-3.0763e-06,0
-3.14992e-05,1.73526e-05,-1.10568e-05,4.63929e-05,1.77104e-05,-6.81715e-06,5.05988e-05,-2.98155e-06,0
-3.02025e-05,2.01401e-05,-8.60643e-06,5.20517e-05,2.22646e-05,-4.13749e-06,4.58464e-05,-2.47889e-06,0
-2.7025e-05,2.78903e-05,-7.5227e-06,4.5751e-05,2.79209e-05,-3.37744e-06,3.55295e-05,-1.62454e-06,0
-2.39216e-05,3.96147e-05,-1.09311e-05,2.87612e-05,2.84549e-05,-4.40838e-06,2.78802e-05,7.34189e-07,0
-2.35324e-05,5.32069e-05,-1.6976e-05,1.05084e-05,2.3593e-05,-5.29421e-06,2.43457e-05,2.20064e-06,0
-2.47754e-05,6.46941e-05,-2.28761e-05,-5.03441e-06,1.89067e-05,-6.08282e-06,2.44753e-05,-8.05567e-07,0
-2.68629e-05,6.79303e-05,-2.41597e-05,-1.73189e-05,1.62725e-05,-5.55537e-06,2.38549e-05,-5.51301e-06,0
-2.69727e-05,6.20917e-05,-2.04435e-05,-2.72206e-05,1.57254e-05,-5.41627e-06,2.26167e-05,-6.16397e-06,0
-2.57906e-05,4.763e-05,-1.62584e-05,-3.13088e-05,1.76612e-05,-6.54295e-06,2.38963e-05,-4.56612e-06,0
