ch1,ch2,ch3,ch4,ch5,ch6,ch7,ch8,class
-2.82402e-05,6.79665e-06,2.76886e-07,-1.751e-05,1.643e-05,-2.33036e-07,3.32436e-05,-2.26548e-06,0
-2.92897e-05,5.24791e-06,-2.98104e-07,-1.47624e-05,1.80763e-05,-2.37287e-06,4.22842e-05,4.66536e-07,0
-3.01548e-05,3.614e-06,-1.83263e-06,-1.61783e-05,1.80793e-05,-4.66211e-06,5.75576e-05,2.36577e-06,0
-3.06808e-05,3.97117e-06,-4.03161e-06,-1.68857e-05,2.00065e-05,-5.43232e-06,6.83858e-05,2.15574e-06,0
-3.17184e-05,5.854e-06,-5.74846e-06,-1.47415e-05,2.40663e-05,-6.43511e-06,7.16864e-05,2.60022e-08,0
-3.26137e-05,7.28729e-06,-5.84596e-06,-1.03256e-05,2.87007e-05,-6.40995e-06,6.61076e-05,-2.67363e-06,0
-3.28643e-05,6.94698e-06,-4.40941e-06,-6.4506e-06,3.00215e-05,-6.38981e-06,5.13044e-05,-2.8247e-06,0
-3.20289e-05,6.32578e-06,-3.22763e-06,-5.88911e-06,2.52796e-05,-7.37813e-06,3.18294e-05,-1.52283e-06,0
-2.98481e-05,6.53899e-06,-3.17525e-06,-7.99295e-06,1.7576e-05,-8.74287e-06,1.0845e-05,-1.29019e-06,0
-2.89985e-05,6.53899e-06,-2.50612e-06,-6.27164e-06,1.32972e-05,-8.83861e-06,-1.11501e-05,-2.30666e-06,0
-2.98201e-05,5.17773e-06,-2.23048e-06,6.27034e-06,1.43884e-05,-8.30149e-06,-3.15091e-05,-2.27812e-06,0
-3.10286e-05,3.68222e-06,-3.02928e-06,2.19763e-05,1.67371e-05,-9.21442e-06,-4.35858e-05,-2.14132e-06,0
-3.21015e-05,2.4129e-06,-4.55331e-06,2.11518e-05,1.78571e-05,-1.08914e-05,-4.40402e-05,-2.1295e-06,0
-3.32284e-05,1.96122e-06,-5.77081e-06,-3.10511e-06,1.8636e-05,-1.05094e-05,-3.63168e-05,-2.81074e-07,0
-3.38608e-05,1.4601e-06,-6.82699e-06,-3.43528e-05,1.99146e-05,-7.64782e-06,-2.65719e-05,2.53879e-06,0
-3.38583e-05,-1.62898e-07,-7.98701e-06,-5.28628e-05,2.04268e-05,-4.99096e-06,-1.7908e-05,3.95616e-06,0
-3.43048e-05,-1.99325e-06,-8.64616e-06,-4.97138e-05,2.00964e-05,-3.75417e-06,-1.15371e-05,3.21224e-06,0
-3.48051e-05,-2.60517e-06,-8.32339e-06,-2.99918e-05,1.89411e-05,-4.68777e-06,-7.70092e-06,1.94248e-06,0
-3.42984e-05,-2.6593e-06,-7.56788e-06,-6.15453e-06,1.78e-05,-6.55464e-06,-5.49091e-06,1.8682e-06,0
-3.27761e-05,-1.67861e-06,-7.15997e-06,1.42884e-05,1.66824e-05,-7.65697e-06,-3.93584e-06,1.56283e-06,0
-3.16609e-05,1.95397e-06,-6.60042e-06,2.75624e-05,1.67979e-05,-7.61538e-06,-3.5374e-06,6.55065e-07,0
-3.22124e-05,5.49451e-06,-5.9092e-06,2.87237e-05,1.81175e-05,-7.50578e-06,-4.26127e-06,2.17182e-06,0
-3.33634e-05,7.24773e-06,-5.16023e-06,1.53128e-05,2.04641e-05,-6.76824e-06,-3.48823e-06,4.15859e-06,0
-3.29067e-05,8.15202e-06,-5.33362e-06,-4.48383e-06,2.42851e-05,-5.97714e-06,1.12667e-06,3.18061e-06,0
-3.09693e-05,9.52097e-06,-6.94545e-06,-1.62355e-05,2.47351e-05,-7.24576e-06,7.09655e-06,2.38182e-06,0
-2.98836e-05,1.23913e-05,-8.5347e-06,-1.51245e-05,2.33557e-05,-8.42477e-06,9.7226e-06,4.47453e-06,0
-3.02926e-05,1.52893e-05,-9.5782e-06,-6.61552e-06,2.32766e-05,-8.20533e-06,9.85005e-06,5.20944e-06,0
-3.07151e-05,1.60525e-05,-1.09706e-05,1.34363e-06,2.31232e-05,-8.12669e-06,9.82907e-06,3.00612e-06,0
-3.06053e-05,1.48022e-05,-1.25768e-05,4.65019e-06,2.14704e-05,-8.90547e-06,1.02282e-05,7.63411e-07,0
-3.03161e-05,1.52131e-05,-1.3121e-05,3.97384e-06,1.90786e-05,-9.47959e-06,1.11671e-05,5.37891e-07,0
-3.1003e-05,1.91835e-05,-1.34687e-05,1.84036e-06,1.79811e-05,-9.64488e-06,1.2848e-05,1.86822e-06,0
-3.06798e-05,2.33687e-05,-1.30622e-05,-1.86171e-06,1.81502e-05,-1.00346e-05,1.70611e-05,3.09735e-06,0
-2.84239e-05,2.4094e-05,-1.25325e-05,-5.6345e-06,1.83222e-05,-1.05791e-05,2.19136e-05,2.41602e-06,0
-2.66049e-05,2.35945e-05,-1.29633e-05,-7.32244e-06,1.71235e-05,-1.02839e-05,2.48246e-05,1.20247e-06,0
-2.57986e-05,2.55761e-05,-1.30716e-05,-8.1689e-06,1.51258e-05,-8.62225e-06,2.47903e-05,2.12536e-06,0
-2.5356e-05,2.80982e-05,-1.16114e-05,-7.99553e-06,1.40733e-05,-7.36547e-06,2.25812e-05,3.09296e-06,0
-2.60539e-05,2.86236e-05,-8.62617e-06,-7.13753e-06,1.45233e-05,-6.77303e-06,2.12668e-05,3.23766e-06,0
-2.77105e-05,2.69987e-05,-6.57851e-06,-7.16064e-06,1.46881e-05,-6.10049e-06,2.16302e-05,3.86476e-06,0
-2.86095e-05,2.55576e-05,-5.75059e-06,-9.54068e-06,1.41843e-05,-5.94032e-06,2.26099e-05,4.62294e-06,0
-2.8223e-05,2.43092e-05,-5.86839e-06,-1.1709e-05,1.37248e-05,-7.50437e-06,2.26582e-05,4.56726e-06,0
-2.74848e-05,2.08633e-05,-6.78347e-06,-1.17969e-05,1.33023e-05,-9.86036e-06,2.15145e-05,3.37092e-06,0
-2.80497e-05,1.52114e-05,-7.69775e-06,-1.10058e-05,1.35524e-05,-1.07759e-05,2.04479e-05,1.14195e-06,0
-2.95145e-05,1.02129e-05,-7.70797e-06,-9.96539e-06,1.52531e-05,-9.73965e-06,1.98825e-05,-1.44916e-06,0
-3.07036e-05,7.47713e-06,-7.4877e-06,-7.66316e-06,1.85257e-05,-8.533e-06,1.89688e-05,-1.94472e-06,0
-3.13884e-05,6.1045e-06,-7.36325e-06,-2.30892e-06,2.17256e-05,-8.18565e-06,1.82487e-05,-4.92003e-07,0
-3.10675e-05,6.6464e-06,-8.21216e-06,5.45561e-06,2.2025e-05,-7.91957e-06,1.84444e-05,-5.35321e-07,0
-3.00729e-05,9.05205e-06,-1.13159e-05,1.21327e-05,1.77058e-05,-8.01749e-06,2.01818e-05,-1.83066e-06,0
-3.01009e-05,1.24126e-05,-1.31386e-05,1.59443e-05,9.57123e-06,-9.50703e-06,2.12246e-05,-2.48943e-06,0
-3.11942e-05,1.60017e-05,-1.23172e-05,1.67047e-05,3.13819e-06,-1.21495e-05,2.15317e-05,-2.69011e-06,0
-3.31804e-05,1.77451e-05,-1.32869e-05,1.43546e-05,1.25479e-06,-1.46896e-05,2.25722e-05,-1.86194e-06,0
-3.49003e-05,1.82186e-05,-1.60868e-05,1.12289e-05,2.82237e-06,-1.57977e-05,2.32547e-05,-1.92658e-06,0
-3.50347e-05,1.75854e-05,-1.61265e-05,1.08819e-05,4.58849e-06,-1.61128e-05,2.33701e-05,-3.25107e-06,0
-3.34948e-05,1.57837e-05,-1.26385e-05,1.13508e-05,4.89597e-06,-1.56477e-05,2.23263e-05,-3.96929e-06,0
-3.28041e-05,1.53721e-05,-9.37427e-06,6.71604e-06,5.94626e-06,-1.33447e-05,2.05855e-05,-4.04738e-06,0
-3.32229e-05,1.5384e-05,-8.0989e-06,-4.36326e-06,6.68002e-06,-1.03066e-05,1.98303e-05,-2.98802e-06,0
-3.26504e-05,1.2882e-05,-7.337e-06,-1.65903e-05,7.35892e-06,-7.85194e-06,1.95303e-05,-1.16093e-06,0
-3.17661e-05,8.71446e-06,-6.50208e-06,-2.18593e-05,7.65426e-06,-6.69611e-06,1.88258e-05,-1.51426e-06,0
-3.20157e-05,6.9398e-06,-5.99367e-06,-1.76686e-05,8.69945e-06,-6.03697e-06,1.8838e-05,-5.63571e-06,0
-3.29286e-05,8.84504e-06,-5.42617e-06,-1.05919e-05,1.05595e-05,-5.8094e-06,2.00668e-05,-8.18071e-06,0
-3.26717e-05,1.19622e-05,-4.04828e-06,-9.33496e-06,1.24713e-05,-4.8136e-06,2.26844e-05,-8.09185e-06,0
-3.21703e-05,1.19647e-05,-3.25899e-06,-1.54408e-05,1.2487e-05,-3.28707e-06,2.4766e-05,-7.17495e-06,0
-3.10401e-05,8.4147e-06,-4.35082e-06,-2.41644e-05,8.09953e-06,-2.43014e-06,2.46531e-05,-5.44091e-06,0
-2.96271e-05,5.33171e-06,-6.24619e-06,-2.73877e-05,1.39963e-06,-3.06667e-06,2.24971e-05,-3.10458e-06,0
-2.97058e-05,5.71064e-06,-7.59213e-06,-1.94362e-05,-3.32941e-06,-3.34563e-06,1.92922e-05,-1.83897e-07,0
-3.13912e-05,8.45573e-06,-8.40049e-06,-3.95068e-06,-5.04461e-06,-2.28813e-06,1.64556e-05,2.23509e-06,0
-3.31507e-05,9.64024e-06,-8.76967e-06,9.17089e-06,-5.46721e-06,-3.14933e-06,1.49589e-05,2.78016e-06,0
-3.43279e-05,8.0713e-06,-8.6468e-06,1.25752e-05,-5.2808e-06,-6.50157e-06,1.45118e-05,1.32218e-06,0
-3.51531e-05,6.52774e-06,-7.46775e-06,3.7243e-06,-5.58947e-06,-9.08663e-06,1.4096e-05,4.48938e-08,0
-3.50391e-05,6.61123e-06,-5.55817e-06,-1.19067e-05,-5.56407e-06,-8.90979e-06,1.3557e-05,-6.94506e-08,0
-3.36244e-05,7.76676e-06,-4.94975e-06,-2.32437e-05,-5.05544e-06,-7.86542e-06,1.31829e-05,5.3311e-07,0
-3.17293e-05,9.8405e-06,-6.83662e-06,-2.40779e-05,-3.39086e-06,-7.45925e-06,1.27813e-05,7.20749e-07,0
-3.05574e-05,1.2133e-05,-9.21832e-06,-1.6569e-05,1.28046e-06,-8.91463e-06,1.17191e-05,1.30691e-06,0
-3.00381e-05,1.42508e-05,-1.01204e-05,-8.33507e-06,9.22171e-06,-1.06945e-05,1.01136e-05,3.00463e-06,0
-2.99896e-05,1.57075e-05,-1.0325e-05,-3.13052e-06,1.68665e-05,-1.04333e-05,9.06832e-06,3.74346e-06,0
-2.9409e-05,1.70002e-05,-1.01196e-05,-1.36097e-06,2.2148e-05,-8.56009e-06,9.06899e-06,2.85156e-06,0
-2.84509e-05,1.82583e-05,-9.43891e-06,-1.1774e-06,2.48549e-05,-6.76797e-06,9.21008e-06,2.40076e-06,0
-2.66586e-05,1.90128e-05,-9.50079e-06,4.1781e-06,2.7044e-05,-5.27924e-06,8.70095e-06,2.45299e-06,0
-2.55804e-05,2.09397e-05,-8.30788e-06,9.58556e-06,2.85377e-05,-5.92494e-06,8.97616e-06,3.87764e-06,0
-2.69209e-05,2.19233e-05,-5.08231e-06,6.27898e-06,2.46919e-05,-8.17976e-06,1.04198e-05,6.9293e-06,0
-2.8761e-05,1.81779e-05,-3.60492e-06,-4.80769e-06,1.89044e-05,-9.90507e-06,1.08506e-05,9.13825e-06,0
-3.02692e-05,1.2663e-05,-4.73393e-06,-1.81199e-05,1.68669e-05,-1.02113e-05,9.51746e-06,1.01153e-05,0
-3.01364e-05,9.65606e-06,-7.11697e-06,-2.31026e-05,1.95167e-05,-9.75702e-06,6.13884e-06,1.1374e-05,0
-2.8406e-05,7.95815e-06,-8.23017e-06,-2.38559e-05,2.21969e-05,-8.93046e-06,2.08274e-06,1.10716e-05,0
-2.73033e-05,6.78479e-06,-8.55421e-06,-2.5579e-05,2.07331e-05,-7.14186e-06,6.05336e-07,1.02233e-05,0
-2.72254e-05,6.85903e-06,-9.37865e-06,-1.96675e-05,1.9081e-05,-6.15412e-06,2.51027e-06,9.95681e-06,0
-2.77168e-05,5.96073e-06,-9.5285e-06,-3.09005e-06,1.90668e-05,-6.48618e-06,4.11275e-06,7.35407e-06,0
-2.90217e-05,4.61468e-06,-9.67838e-06,1.39908e-05,2.12381e-05,-8.14449e-06,3.83747e-06,4.28044e-06,0
-2.97154e-05,4.40354e-06,-8.9971e-06,2.12707e-05,2.38493e-05,-9.3927e-06,2.92905e-06,2.9095e-06,0
-2.89398e-05,3.65413e-06,-6.91639e-06,2.14426e-05,2.45217e-05,-9.20577e-06,4.12292e-06,3.48316e-06,0
-2.81858e-05,2.23183e-06,-5.17653e-06,2.27028e-05,2.3976e-05,-8.84572e-06,6.59867e-06,4.03732e-06,0
-2.93318e-05,1.22014e-06,-5.11519e-06,3.16069e-05,2.4704e-05,-9.34809e-06,8.3699e-06,3.87908e-06,0
-3.14533e-05,1.48903e-06,-5.66252e-06,4.49043e-05,2.5637e-05,-9.09143e-06,1.04479e-05,3.5415e-06,0
-3.2584e-05,3.19823e-06,-6.07868e-06,5.39545e-05,2.33835e-05,-8.26138e-06,1.15175e-05,2.7306e-06,0
-3.26535e-05,6.04758e-06,-6.9374e-06,5.23919e-05,2.01078e-05,-7.99606e-06,1.02646e-05,2.38343e-06,0
-3.18916e-05,1.12738e-05,-7.63114e-06,4.06127e-05,1.82016e-05,-6.88306e-06,6.95942e-06,3.01154e-06,0
-3.01638e-05,2.14909e-05,-6.92728e-06,2.3723e-05,1.71018e-05,-4.65924e-06,4.37107e-06,2.70746e-06,0
-2.83325e-05,3.37399e-05,-5.94389e-06,3.76826e-06,1.42378e-05,-3.81754e-06,4.08195e-06,1.99589e-06,0
-2.80672e-05,3.90212e-05,-8.2255e-06,-1.89848e-05,1.26446e-05,-5.81124e-06,5.24139e-06,2.53591e-06,0
-2.92673e-05,3.54674e-05,-1.40576e-05,-3.8887e-05,1.23137e-05,-8.17109e-06,5.91941e-06,2.94783e-06,0
-3.13191e-05,2.95997e-05,-1.83585e-05,-4.84071e-05,1.0127e-05,-8.83541e-06,6.45603e-06,2.4781e-06,0
-3.25487e-05,2.56665e-05,-1.711e-05,-4.73675e-05,7.29382e-06,-9.21414e-06,8.48461e-06,1.5902e-06,0
-3.3739e-05,2.28822e-05,-1.25627e-05,-4.30774e-05,4.37166e-06,-1.02287e-05,1.1054e-05,8.76761e-08,0
-3.50806e-05,2.02501e-05,-8.87758e-06,-4.01999e-05,1.96766e-06,-1.09915e-05,1.46729e-05,-1.70992e-06,0
-3.61779e-05,1.64718e-05,-8.1907e-06,-3.5076e-05,7.90291e-07,-1.19679e-05,1.79379e-05,-2.91357e-06,0
-3.52993e-05,1.18377e-05,-8.52075e-06,-2.87325e-05,-1.13325e-06,-1.29692e-05,1.85167e-05,-3.5027e-06,0
-3.31051e-05,7.14289e-06,-8.32124e-06,-1.7411e-05,-3.38122e-06,-1.45467e-05,2.02044e-05,-1.75357e-06,0
-3.35073e-05,2.67292e-06,-7.20574e-06,-5.54127e-06,-2.32499e-06,-1.60895e-05,2.13504e-05,1.06056e-06,0
-3.38133e-05,-9.00108e-08,-5.8319e-06,2.14549e-06,1.52582e-06,-1.55924e-05,2.19064e-05,1.34881e-06,0
-3.2913e-05,4.58133e-07,-6.39569e-06,1.73427e-05,4.48892e-06,-1.41625e-05,2.29627e-05,-4.76903e-07,0
-3.05709e-05,5.02026e-06,-7.44532e-06,2.9002e-05,6.1311e-06,-1.29758e-05,2.26842e-05,-2.36615e-06,0
-2.91856e-05,1.13825e-05,-6.48874e-06,2.15199e-05,8.61571e-06,-1.22316e-05,2.24102e-05,-2.47538e-06,0
-2.96816e-05,1.91684e-05,-4.84203e-06,-9.22889e-07,1.2185e-05,-1.16149e-05,2.08321e-05,-1.25055e-06,0
-2.96651e-05,2.56473e-05,-4.08472e-06,-2.01849e-05,1.43861e-05,-1.02857e-05,1.83734e-05,-9.23832e-07,0
-2.85127e-05,2.71646e-05,-3.68654e-06,-1.72101e-05,1.49325e-05,-8.59519e-06,1.62818e-05,-2.06786e-06,0
-2.73989e-05,2.57055e-05,-3.10288e-06,-6.82867e-07,1.47896e-05,-7.61549e-06,1.50524e-05,-2.71094e-06,0
-2.77677e-05,2.4198e-05,-3.45554e-06,5.25908e-06,1.51881e-05,-7.94706e-06,1.45684e-05,-2.64863e-06,0
-2.88902e-05,2.39671e-05,-5.341e-06,-6.45791e-06,1.71745e-05,-7.8884e-06,1.49925e-05,-3.43731e-06,0
-3.02611e-05,2.40514e-05,-7.62506e-06,-2.37297e-05,1.84115e-05,-5.85441e-06,1.48724e-05,-3.77183e-06,0
-3.17232e-05,2.37044e-05,-8.82961e-06,-3.66135e-05,1.64554e-05,-3.70532e-06,1.33201e-05,-2.63123e-06,0
-3.32648e-05,2.37456e-05,-8.73561e-06,-4.27847e-05,1.2244e-05,-4.24624e-06,1.04415e-05,-1.08657e-06,0
-3.33183e-05,2.23934e-05,-8.67427e-06,-4.27345e-05,9.06775e-06,-6.31497e-06,7.43922e-06,3.71044e-08,0
-3.23083e-05,1.68597e-05,-8.47994e-06,-3.72297e-05,7.66845e-06,-7.4102e-06,6.34742e-06,1.25039e-06,0
-3.18577e-05,9.51929e-06,-7.9997e-06,-2.86324e-05,5.83278e-06,-7.04414e-06,6.66007e-06,3.10806e-06,0
-3.23574e-05,2.72983e-06,-7.07618e-06,-2.16233e-05,3.47006e-06,-5.46017e-06,5.64254e-06,4.32999e-06,0
-3.21544e-05,-3.72169e-06,-6.07124e-06,-1.98545e-05,3.96192e-06,-2.07118e-06,3.8703e-06,3.70763e-06,0
-3.07959e-05,-8.14516e-06,-4.92532e-06,-2.3707e-05,7.47113e-06,1.58653e-06,3.8065e-06,3.10662e-06,0
-2.93701e-05,-8.02661e-06,-3.26573e-06,-2.82024e-05,1.12741e-05,1.19772e-06,4.51804e-06,3.04335e-06,0
-2.87268e-05,-3.56523e-06,-4.59514e-06,-2.67784e-05,1.31635e-05,-2.67417e-06,5.1891e-06,3.81947e-06,0
-2.86458e-05,2.77635e-06,-1.08382e-05,-1.77266e-05,1.34665e-05,-5.4094e-06,5.23547e-06,5.50475e-06,0
-2.81473e-05,8.58222e-06,-1.60486e-05,-5.46934e-06,1.50351e-05,-4.60455e-06,5.47495e-06,6.46302e-06,0
-2.72589e-05,1.06847e-05,-1.64695e-05,6.12612e-06,1.99991e-05,-2.93826e-06,6.27417e-06,6.06436e-06,0
-2.8316e-05,1.04881e-05,-1.42902e-05,1.17823e-05,2.48579e-05,-2.25928e-06,9.48863e-06,4.40991e-06,0
-2.92139e-05,1.00074e-05,-1.18279e-05,1.24952e-05,2.70806e-05,-3.0293e-06,1.4242e-05,3.32189e-06,0
-2.85085e-05,9.21936e-06,-8.71584e-06,1.37455e-05,2.57404e-05,-5.11287e-06,1.61318e-05,2.43079e-06,0
-2.80247e-05,9.87077e-06,-3.65164e-06,1.33811e-05,2.15357e-05,-7.27381e-06,1.59026e-05,5.76095e-07,0
-2.62226e-05,1.08969e-05,2.61659e-06,1.63145e-05,2.01785e-05,-8.14852e-06,1.4083e-05,-1.2538e-06,0
-2.4332e-05,1.30036e-05,8.56509e-06,3.72676e-05,2.10807e-05,-6.36281e-06,1.1146e-05,-2.03607e-06,0
-2.32775e-05,1.36894e-05,1.52528e-05,6.82882e-05,1.92651e-05,-5.22319e-06,8.75453e-06,-2.99485e-06,0
-2.35766e-05,1.05841e-05,2.64405e-05,7.54225e-05,1.53655e-05,-6.23687e-06,6.73919e-06,-3.51306e-06,0
-2.44912e-05,7.36258e-06,4.33345e-05,4.63114e-05,1.31589e-05,-7.63542e-06,5.83861e-06,-3.37162e-06,0
-2.52026e-05,6.16595e-06,6.19923e-05,2.88221e-06,1.39676e-05,-8.25754e-06,4.50874e-06,-4.10737e-06,0
-2.55889e-05,6.89507e-06,7.3326e-05,-2.90596e-05,1.45938e-05,-8.84559e-06,1.5911e-06,-4.9925e-06,0
-2.62254e-05,8.45121e-06,7.03542e-05,-4.37512e-05,1.09913e-05,-1.14276e-05,1.42427e-07,-6.32884e-06,0
-2.69829e-05,1.00754e-05,5.19838e-05,-4.78644e-05,6.60007e-06,-1.49142e-05,1.70016e-06,-6.6302e-06,0
-2.79926e-05,1.06544e-05,2.03973e-05,-4.75866e-05,5.79031e-06,-1.67046e-05,4.58178e-06,-4.98448e-06,0
-2.96311e-05,1.01098e-05,-1.9085e-05,-4.59695e-05,7.59098e-06,-1.62707e-05,7.9456e-06,-3.13376e-06,0
-3.08834e-05,9.65556e-06,-5.6804e-05,-4.44644e-05,1.02818e-05,-1.54636e-05,1.15887e-05,-2.1952e-06,0
-3.15573e-05,1.1229e-05,-8.1443e-05,-4.25148e-05,1.22711e-05,-1.48627e-05,1.38462e-05,-1.45862e-06,0
-3.17962e-05,1.45001e-05,-8.74981e-05,-3.80784e-05,1.08707e-05,-1.37633e-05,1.34564e-05,-2.35246e-08,0
-3.13342e-05,1.87723e-05,-7.83577e-05,-3.27931e-05,7.1976e-06,-1.18834e-05,1.17245e-05,1.93941e-06,0
-2.94935e-05,2.31152e-05,-6.31952e-05,-2.67658e-05,5.05812e-06,-1.00338e-05,1.0948e-05,3.69164e-06,0
-2.7549e-05,2.53534e-05,-5.00936e-05,-2.08322e-05,4.48033e-06,-8.93588e-06,1.18996e-05,4.04933e-06,0
-2.68891e-05,2.58408e-05,-4.27975e-05,-1.81977e-05,4.4925e-06,-8.86597e-06,1.41107e-05,3.27565e-06,0
-2.76349e-05,2.67164e-05,-3.91147e-05,-1.93767e-05,4.02731e-06,-1.00732e-05,1.60915e-05,3.33928e-06,0
-2.97705e-05,2.8094e-05,-3.40547e-05,-2.07472e-05,3.76016e-06,-1.20847e-05,1.60064e-05,4.73755e-06,0
-3.20619e-05,2.94161e-05,-2.59079e-05,-2.48025e-05,4.14453e-06,-1.29186e-05,1.48426e-05,4.00604e-06,0
-3.13227e-05,3.02389e-05,-1.8937e-05,-3.64838e-05,2.75542e-06,-1.15906e-05,1.51568e-05,1.06638e-06,0
-2.9191e-05,2.93732e-05,-1.59131e-05,-4.91104e-05,1.77331e-06,-1.19525e-05,1.53709e-05,9.23217e-07,0
-2.86534e-05,2.81492e-05,-1.39292e-05,-5.64169e-05,9.87374e-07,-1.302e-05,1.4933e-05,3.48591e-06,0
-2.97624e-05,2.64596e-05,-1.19136e-05,-6.05394e-05,-1.56545e-06,-1.23215e-05,1.67264e-05,5.07413e-06,0
-3.16351e-05,2.45946e-05,-1.02256e-05,-5.85965e-05,-3.75792e-06,-1.17554e-05,1.92676e-05,5.69867e-06,0
-3.24088e-05,2.38469e-05,-1.01945e-05,-4.46276e-05,-2.67948e-06,-1.32681e-05,2.04977e-05,6.98629e-06,0
-3.06691e-05,2.22875e-05,-1.03766e-05,-1.61993e-05,3.59749e-06,-1.53914e-05,1.93314e-05,9.04758e-06,0
-2.78909e-05,2.08706e-05,-9.64131e-06,1.99109e-05,1.35234e-05,-1.446e-05,1.66097e-05,1.14488e-05,0
-2.71583e-05,2.01797e-05,-7.35318e-06,5.46811e-05,2.24594e-05,-1.2951e-05,1.53464e-05,1.21474e-05,0
-2.88731e-05,1.96261e-05,-5.2841e-06,8.19819e-05,2.51871e-05,-1.27793e-05,1.54573e-05,1.10486e-05,0
-3.04058e-05,1.91478e-05,-5.02665e-06,9.49265e-05,2.34739e-05,-1.32242e-05,1.7123e-05,1.15886e-05,0
-3.01714e-05,1.80367e-05,-3.94653e-06,9.2788e-05,2.22728e-05,-1.13549e-05,1.78101e-05,1.27381e-05,0
-2.93851e-05,1.78173e-05,-2.61845e-06,7.79257e-05,2.35869e-05,-7.8523e-06,1.54805e-05,1.14347e-05,0
-2.94067e-05,1.84005e-05,-2.61704e-06,5.77432e-05,2.37672e-05,-6.85968e-06,1.23361e-05,9.12967e-06,0
-3.03123e-05,1.88312e-05,-3.63687e-06,4.02711e-05,2.15852e-05,-8.35968e-06,1.13817e-05,7.95044e-06,0
-3.1522e-05,1.81775e-05,-4.75441e-06,2.91329e-05,1.9858e-05,-9.32511e-06,1.03446e-05,7.15931e-06,0
-3.30239e-05,1.65611e-05,-6.004e-06,2.23856e-05,1.89154e-05,-9.13246e-06,8.08545e-06,6.32623e-06,0
-3.37102e-05,1.40233e-05,-7.18787e-06,1.89637e-05,1.76328e-05,-9.88615e-06,8.94197e-06,5.8256e-06,0
-3.27409e-05,1.15332e-05,-8.78602e-06,2.08554e-05,1.50536e-05,-1.06352e-05,1.36182e-05,5.25308e-06,0
-3.08865e-05,1.04015e-05,-9.56978e-06,2.38139e-05,1.18799e-05,-1.15174e-05,1.79804e-05,3.83403e-06,0
-3.03544e-05,1.02533e-05,-9.24076e-06,1.94173e-05,9.57621e-06,-1.33616e-05,1.67655e-05,2.88918e-06,0
-3.18153e-05,1.0595e-05,-7.74214e-06,7.67368e-06,8.7572e-06,-1.47448e-05,7.8132e-06,3.98936e-06,0
-3.39521e-05,1.17571e-05,-5.52516e-06,-4.2167e-06,7.95628e-06,-1.39547e-05,-7.16693e-06,5.16392e-06,0
-3.4908e-05,1.4512e-05,-5.22581e-06,-1.49412e-05,7.21903e-06,-1.3002e-05,-2.02644e-05,5.08958e-06,0
-3.38653e-05,1.56491e-05,-6.20676e-06,-2.52746e-05,6.73948e-06,-1.38942e-05,-2.3618e-05,5.07574e-06,0
-3.25169e-05,1.28769e-05,-6.33421e-06,-3.12934e-05,5.77556e-06,-1.53398e-05,-1.68217e-05,4.40487e-06,0
-3.26865e-05,8.70888e-06,-5.85228e-06,-2.91565e-05,4.79331e-06,-1.62085e-05,-6.15979e-06,2.00612e-06,0
-3.39578e-05,7.24574e-06,-4.55735e-06,-2.25366e-05,5.66379e-06,-1.70789e-05,4.04107e-06,1.56465e-06,0
-3.44405e-05,8.4484e-06,-4.75013e-06,-1.85087e-05,8.64367e-06,-1.63415e-05,1.34917e-05,2.61421e-06,0
-3.30682e-05,8.6566e-06,-6.97748e-06,-1.72376e-05,9.53039e-06,-1.47401e-05,2.13806e-05,1.6591e-06,0
-3.11294e-05,8.35213e-06,-8.21679e-06,-1.24825e-05,6.21034e-06,-1.45517e-05,2.78601e-05,1.546e-06,0
-3.04552e-05,6.61742e-06,-8.32672e-06,-3.37698e-06,5.74606e-06,-1.54896e-05,3.02193e-05,1.65791e-06,0
-3.17752e-05,3.45982e-06,-6.76469e-06,4.02683e-06,1.0472e-05,-1.55355e-05,2.91067e-05,7.0769e-07,0
-3.45986e-05,1.24467e-06,-4.38938e-06,6.28245e-06,1.41329e-05,-1.4691e-05,2.64431e-05,2.67508e-07,0
-3.59506e-05,-5.06512e-07,-2.21117e-06,6.96086e-06,1.21112e-05,-1.44418e-05,2.1319e-05,1.46062e-07,0
-3.50349e-05,-4.15099e-07,-4.14638e-07,9.81403e-06,9.95465e-06,-1.319e-05,2.29502e-05,8.64976e-08,0
-3.37631e-05,1.11692e-06,-4.66799e-07,1.51733e-05,1.53868e-05,-1.12837e-05,3.2241e-05,6.45167e-07,0
-3.28553e-05,2.26932e-06,-3.00864e-06,1.91501e-05,2.28829e-05,-1.00697e-05,4.1721e-05,1.4384e-06,0
-3.21037e-05,1.71281e-06,-5.88636e-06,1.77809e-05,2.41713e-05,-1.00172e-05,4.66859e-05,1.11626e-06,0
-3.26283e-05,1.64831e-06,-7.46739e-06,1.18084e-05,1.94776e-05,-1.11097e-05,4.61141e-05,1.26462e-06,0
-3.25081e-05,2.51762e-06,-7.13171e-06,4.80524e-06,1.46089e-05,-1.2894e-05,4.33458e-05,1.67531e-06,0
-2.98836e-05,1.33243e-06,-5.71213e-06,-1.9048e-06,1.24474e-05,-1.30102e-05,3.82913e-05,1.60828e-06,0
-2.81161e-05,-1.84387e-06,-5.64234e-06,-1.15545e-05,1.15944e-05,-1.17517e-05,2.90764e-05,2.23813e-06,0
-2.92778e-05,-3.79436e-06,-6.67913e-06,-2.50205e-05,9.40569e-06,-1.0746e-05,1.69333e-05,3.42718e-06,0
-3.11707e-05,-2.6397e-06,-7.35047e-06,-3.4673e-05,6.85422e-06,-9.79168e-06,7.16008e-06,3.00226e-06,0
-3.1419e-05,-3.59198e-07,-7.67703e-06,-2.99557e-05,6.9399e-06,-7.49539e-06,1.60041e-06,7.78627e-07,0
-3.11164e-05,6.22226e-07,-7.10121e-06,-1.0735e-05,1.12253e-05,-4.53341e-06,-2.63796e-07,-1.70779e-06,0
-3.08278e-05,5.55861e-07,-6.36106e-06,1.21144e-05,1.82379e-05,-4.70687e-06,2.16647e-08,-3.60048e-06,0
-2.94018e-05,3.6806e-07,-7.33384e-06,2.77379e-05,2.4816e-05,-8.9952e-06,2.74428e-06,-4.27713e-06,0
-2.7408e-05,-4.6635e-07,-8.35301e-06,3.30175e-05,3.06451e-05,-1.24394e-05,6.3216e-06,-4.64499e-06,0
-2.62281e-05,-2.81548e-07,-7.94763e-06,3.1362e-05,3.61357e-05,-1.16062e-05,8.42257e-06,-5.12911e-06,0
-2.52821e-05,1.39804e-06,-6.09364e-06,2.60385e-05,3.86229e-05,-8.3772e-06,8.34914e-06,-4.33617e-06,0
-2.52427e-05,4.34097e-06,-3.51788e-06,1.75684e-05,3.54048e-05,-6.18108e-06,5.95216e-06,-3.71977e-06,0
-2.68084e-05,5.92954e-06,-2.90108e-06,7.3811e-06,2.95093e-05,-6.45549e-06,3.77569e-06,-4.94089e-06,0
-2.88301e-05,5.8311e-06,-4.90076e-06,-4.82786e-06,2.4342e-05,-7.36419e-06,3.32487e-06,-5.56055e-06,0
-2.96166e-05,6.45551e-06,-7.90638e-06,-1.7581e-05,2.02863e-05,-8.79232e-06,4.06823e-06,-4.42762e-06,0
-2.85607e-05,7.80413e-06,-9.9298e-06,-2.59629e-05,1.74792e-05,-8.59224e-06,5.48102e-06,-3.0908e-06,0
-2.72402e-05,8.83665e-06,-1.07508e-05,-2.97771e-05,1.52961e-05,-8.11812e-06,6.84857e-06,-2.11847e-06,0
-2.62191e-05,8.64165e-06,-1.12188e-05,-3.11943e-05,1.40767e-05,-7.83968e-06,6.62497e-06,-2.60807e-07,0
-2.52654e-05,8.99553e-06,-1.14658e-05,-3.01124e-05,1.33467e-05,-6.4647e-06,4.04571e-06,6.38224e-08,0
-2.53973e-05,9.99192e-06,-1.29593e-05,-2.78136e-05,1.18944e-05,-6.20159e-06,1.62809e-06,-9.75588e-07,0
-2.62089e-05,1.0147e-05,-1.39527e-05,-2.61475e-05,1.16558e-05,-7.49386e-06,2.45548e-06,-1.04368e-06,0
-2.64252e-05,9.54055e-06,-1.2121e-05,-2.61578e-05,1.28226e-05,-9.98669e-06,4.54843e-06,-1.72398e-06,0
-2.76072e-05,9.00658e-06,-9.43207e-06,-2.50447e-05,1.30798e-05,-1.04866e-05,4.44812e-06,-3.01677e-06,0
-2.93501e-05,9.63332e-06,-8.88996e-06,-2.32984e-05,1.18923e-05,-8.97993e-06,3.41547e-06,-3.90633e-06,0
-3.03922e-05,1.14015e-05,-1.07653e-05,-2.25717e-05,1.01755e-05,-8.57045e-06,3.48672e-06,-4.03423e-06,0
-3.12197e-05,1.21977e-05,-1.26526e-05,-2.07524e-05,1.02776e-05,-9.31496e-06,4.88866e-06,-3.76524e-06,0
-3.14163e-05,1.19734e-05,-1.32127e-05,-1.77161e-05,1.27997e-05,-9.73675e-06,8.15443e-06,-3.01602e-06,0
-3.04913e-05,1.1956e-05,-1.28469e-05,-1.15473e-05,1.55677e-05,-9.87463e-06,1.10121e-05,-1.82506e-06,0
-2.99803e-05,1.09578e-05,-1.30887e-05,-5.16819e-06,1.76065e-05,-9.74072e-06,1.15964e-05,-1.48218e-06,0
-3.07848e-05,8.62841e-06,-1.32119e-05,-4.24792e-06,1.82295e-05,-9.19228e-06,1.13979e-05,-1.84958e-06,0
-3.09711e-05,6.85155e-06,-1.24163e-05,-7.84401e-06,1.72472e-05,-9.72064e-06,1.2761e-05,-1.83521e-06,0
-2.94283e-05,8.12419e-06,-1.24182e-05,-8.93063e-06,1.62917e-05,-1.16453e-05,1.49162e-05,-1.18798e-06,0
-2.8283e-05,1.11853e-05,-1.38573e-05,-5.36751e-06,1.61808e-05,-1.33364e-05,1.59356e-05,-1.50912e-06,0
-2.91526e-05,1.37214e-05,-1.48447e-05,-5.01302e-07,1.59795e-05,-1.38163e-05,1.55517e-05,-2.95042e-06,0
-3.03511e-05,1.58493e-05,-1.41446e-05,1.842e-06,1.54918e-05,-1.4049e-05,1.4295e-05,-3.19272e-06,0
-3.04946e-05,1.73349e-05,-1.23053e-05,-3.2159e-07,1.34871e-05,-1.42519e-05,1.39505e-05,-2.85923e-06,0
-2.99191e-05,1.81003e-05,-1.11636e-05,-6.92306e-06,1.00646e-05,-1.28465e-05,1.52005e-05,-3.04473e-06,0
-2.90199e-05,1.89713e-05,-1.04827e-05,-1.3078e-05,7.86019e-06,-1.08161e-05,1.63543e-05,-2.97039e-06,0
-2.80244e-05,2.00844e-05,-1.04585e-05,-1.15215e-05,8.59557e-06,-9.75346e-06,1.63461e-05,-1.50669e-06,0
-2.74038e-05,2.15582e-05,-1.15525e-05,-2.5428e-06,9.04486e-06,-1.02027e-05,1.60276e-05,1.00519e-06,0
-2.7176e-05,2.35154e-05,-1.10171e-05,8.3911e-06,7.44157e-06,-1.26467e-05,1.54329e-05,1.91246e-06,0
-2.74755e-05,2.51577e-05,-8.35652e-06,1.58173e-05,7.46859e-06,-1.32899e-05,1.54258e-05,1.10758e-06,0
-2.82288e-05,2.73364e-05,-6.60074e-06,1.83696e-05,8.28635e-06,-1.09576e-05,1.69344e-05,1.05976e-06,0
-2.92038e-05,2.89125e-05,-8.60522e-06,1.95983e-05,9.07337e-06,-8.08189e-06,1.82363e-05,2.27056e-06,0
-2.89529e-05,2.78253e-05,-9.63906e-06,2.19856e-05,9.66832e-06,-6.74006e-06,1.9147e-05,3.59316e-06,0
-2.75262e-05,2.78701e-05,-7.81419e-06,2.08791e-05,9.1464e-06,-7.59882e-06,1.98098e-05,2.99431e-06,0
-2.63639e-05,2.97248e-05,-4.75366e-06,1.50513e-05,8.60072e-06,-7.95145e-06,1.97771e-05,6.65631e-07,0
-2.53153e-05,2.97925e-05,-1.2437e-06,7.35401e-06,8.15737e-06,-7.20071e-06,1.80022e-05,3.45451e-07,0
-2.51865e-05,2.97062e-05,3.20213e-07,-3.24354e-06,8.23299e-06,-7.25197e-06,1.60475e-05,2.91453e-06,0
-2.6637e-05,3.01062e-05,-3.77937e-07,-1.44316e-05,8.83458e-06,-7.81366e-06,1.50722e-05,6.05077e-06,0
-2.74204e-05,3.02125e-05,-2.35282e-06,-2.04533e-05,6.85273e-06,-8.58319e-06,1.37896e-05,7.27418e-06,0
-2.73803e-05,2.95153e-05,-5.53437e-06,-1.86981e-05,3.71075e-06,-9.64965e-06,1.22454e-05,6.65442e-06,0
-2.95399e-05,2.98231e-05,-9.10107e-06,-1.50165e-05,3.03315e-06,-9.46246e-06,1.06951e-05,5.17049e-06,0
-3.21488e-05,3.22079e-05,-1.02361e-05,-1.55484e-05,4.26718e-06,-7.78481e-06,1.0123e-05,3.15495e-06,0
-3.24255e-05,3.30818e-05,-8.87086e-06,-1.68358e-05,6.56953e-06,-5.7109e-06,9.87738e-06,1.57203e-06,0
-3.11202e-05,2.94283e-05,-6.86298e-06,-1.66226e-05,8.92604e-06,-5.37189e-06,9.65602e-06,8.00536e-07,0
-3.06875e-05,2.14582e-05,-6.3746e-06,-1.7971e-05,1.02837e-05,-6.22048e-06,9.48354e-06,1.54372e-06,0
-3.09116e-05,1.09565e-05,-7.05106e-06,-2.28697e-05,1.0745e-05,-6.46273e-06,1.04215e-05,3.36466e-06,0
-3.00894e-05,-1.70613e-07,-7.10684e-06,-2.65763e-05,1.04862e-05,-5.64472e-06,1.13843e-05,5.60907e-06,0
-2.9139e-05,-8.91703e-06,-5.90334e-06,-2.44887e-05,9.72955e-06,-5.51889e-06,1.01843e-05,7.13741e-06,0
-2.92767e-05,-1.29411e-05,-5.15026e-06,-2.02859e-05,8.35442e-06,-6.45087e-06,6.63595e-06,7.29903e-06,0
-3.0688e-05,-1.25242e-05,-5.38131e-06,-1.9544e-05,5.93202e-06,-6.29125e-06,2.72493e-06,4.81689e-06,0
-3.18416e-05,-1.12647e-05,-6.67609e-06,-2.35251e-05,4.09338e-06,-5.70322e-06,1.64831e-06,9.16891e-08,0
-3.16861e-05,-1.04023e-05,-8.23014e-06,-3.03535e-05,3.28825e-06,-5.78475e-06,3.9954e-06,-2.76708e-06,0
-3.12477e-05,-7.44832e-06,-8.67657e-06,-3.53603e-05,3.94892e-06,-7.38368e-06,6.8065e-06,-2.88579e-06,0
-3.12006e-05,-2.06505e-06,-9.57166e-06,-3.31915e-05,7.52005e-06,-1.01199e-05,8.12887e-06,-2.59404e-06,0
-3.12022e-05,2.31956e-06,-1.09996e-05,-2.53641e-05,1.09532e-05,-1.17758e-05,7.11299e-06,-3.40818e-06,0
-3.07904e-05,6.09574e-06,-1.17391e-05,-1.80135e-05,1.07388e-05,-1.23228e-05,3.27509e-06,-3.91555e-06,0
-2.98343e-05,1.78461e-05,-1.06635e-05,-1.03118e-05,9.89012e-06,-1.29104e-05,2.23856e-06,-2.9989e-06,0
-2.76369e-05,3.48346e-05,-8.49156e-06,1.50711e-06,1.17599e-05,-1.31995e-05,6.16097e-06,-2.33944e-06,0
-2.46467e-05,4.48035e-05,-7.57987e-06,1.53965e-05,1.42025e-05,-1.36751e-05,1.05943e-05,-1.74442e-06,0
-2.27928e-05,4.6057e-05,-7.33983e-06,1.84659e-05,1.59295e-05,-1.28276e-05,1.19374e-05,-1.38522e-06,0
-2.34817e-05,4.05872e-05,-5.758e-06,3.39593e-06,1.66353e-05,-1.09609e-05,1.08981e-05,-1.60791e-06,0
-2.7204e-05,3.3429e-05,-4.38597e-06,-1.31865e-05,1.57569e-05,-9.64184e-06,8.95001e-06,-2.44018e-06,0
-2.95204e-05,2.50348e-05,-4.54324e-06,-2.40686e-05,1.48859e-05,-9.57463e-06,6.90507e-06,-3.94755e-06,0
-2.85928e-05,1.62811e-05,-5.62953e-06,-3.41784e-05,1.39423e-05,-1.06232e-05,7.26759e-06,-4.25025e-06,0
-2.85845e-05,1.07794e-05,-6.95915e-06,-4.12166e-05,1.46403e-05,-1.03107e-05,1.00222e-05,-3.63149e-06,0
-3.02005e-05,7.68954e-06,-7.20646e-06,-4.24394e-05,1.60857e-05,-9.86661e-06,1.30468e-05,-1.93549e-06,0
-3.19335e-05,4.37939e-06,-6.08384e-06,-3.51715e-05,1.83949e-05,-1.05374e-05,1.37075e-05,-1.07225e-06,0
-3.31612e-05,1.02506e-06,-5.50048e-06,-1.43791e-05,2.22902e-05,-1.14035e-05,1.18146e-05,-4.61705e-07,0
-3.34096e-05,2.7909e-07,-6.12607e-06,1.81972e-05,2.53481e-05,-1.20635e-05,1.11982e-05,1.50211e-06,0
-3.28858e-05,2.73202e-06,-6.43756e-06,5.01113e-05,2.67401e-05,-1.23396e-05,1.21875e-05,3.04802e-06,0
-3.24011e-05,8.79931e-06,-6.48094e-06,6.64319e-05,2.5918e-05,-1.15422e-05,1.27244e-05,2.90554e-06,0
-3.20844e-05,1.47355e-05,-5.96331e-06,6.12016e-05,2.51096e-05,-1.04397e-05,1.30338e-05,1.77716e-06,0
-3.10373e-05,1.70955e-05,-4.23028e-06,4.19639e-05,2.56996e-05,-1.06582e-05,1.33137e-05,5.9031e-07,0
-3.0079e-05,1.64229e-05,-1.90804e-06,1.99725e-05,2.5836e-05,-1.12258e-05,1.29657e-05,-6.50276e-07,0
-3.04008e-05,1.53418e-05,-1.35675e-06,4.08962e-06,2.21383e-05,-1.13997e-05,1.13331e-05,-2.05892e-06,0
-3.05049e-05,1.27729e-05,-3.21677e-06,-2.76596e-06,1.60672e-05,-1.18192e-05,9.58711e-06,-3.00395e-06,0
-2.96315e-05,9.50959e-06,-4.78972e-06,-3.82964e-06,1.12997e-05,-1.25347e-05,9.97284e-06,-8.61276e-07,0
-2.92935e-05,8.29891e-06,-5.35933e-06,-6.73584e-06,8.47272e-06,-1.32825e-05,1.15544e-05,2.24877e-06,0
-3.05513e-05,8.8537e-06,-7.27939e-06,-1.35498e-05,5.20882e-06,-1.24515e-05,1.44658e-05,1.85578e-06,0
-3.23981e-05,8.93663e-06,-9.65953e-06,-1.85619e-05,8.81526e-07,-1.0459e-05,2.66218e-05,-1.96031e-06,0
-3.2355e-05,8.96328e-06,-9.39564e-06,-1.69578e-05,-2.00225e-06,-1.08778e-05,4.7143e-05,-2.66046e-06,0
-3.04229e-05,1.01261e-05,-7.11933e-06,-6.6379e-06,-1.02038e-06,-1.12152e-05,6.23694e-05,-8.50983e-07,0
-2.82612e-05,1.28507e-05,-5.20488e-06,6.50246e-06,4.36881e-06,-8.58899e-06,6.77271e-05,-2.75597e-06,0
-2.64781e-05,1.68756e-05,-6.28777e-06,9.22969e-06,1.37931e-05,-6.01823e-06,6.14623e-05,-6.5471e-06,0
-2.704e-05,1.73529e-05,-8.20788e-06,-5.29846e-07,1.90285e-05,-7.20417e-06,4.46039e-05,-5.70331e-06,0
-2.98554e-05,1.15921e-05,-8.97501e-06,-1.18935e-05,1.67478e-05,-8.57404e-06,2.5557e-05,-2.16806e-06,0
-3.15563e-05,3.68048e-06,-9.0914e-06,-1.34192e-05,1.53707e-05,-7.23239e-06,7.14361e-06,-8.38113e-07,0
-3.2409e-05,-1.79248e-06,-9.85198e-06,9.15294e-06,1.81026e-05,-6.34272e-06,-1.23484e-05,5.38007e-07,0
-3.41768e-05,-2.33492e-06,-1.13829e-05,4.37129e-05,2.44611e-05,-5.40166e-06,-3.0618e-05,2.01015e-06,0
-3.46215e-05,2.61877e-06,-1.251e-05,5.64295e-05,3.13239e-05,-5.39961e-06,-4.02796e-05,3.45716e-06,0
-3.33006e-05,9.44549e-06,-1.30003e-05,4.11979e-05,3.43283e-05,-6.19435e-06,-3.91031e-05,4.81292e-06,0
-3.2894e-05,1.42208e-05,-1.19025e-05,1.11605e-05,3.1865e-05,-6.94606e-06,-3.00482e-05,7.24828e-06,0
-3.2286e-05,1.56401e-05,-8.65804e-06,-1.59375e-05,2.7372e-05,-7.2482e-06,-1.91696e-05,1.02393e-05,0
-3.04367e-05,1.47317e-05,-4.85218e-06,-3.18402e-05,2.36196e-05,-6.66853e-06,-9.91601e-06,1.14094e-05,0
-2.9394e-05,1.42221e-05,-3.88214e-06,-3.72852e-05,2.18303e-05,-5.65205e-06,-3.06679e-06,1.23169e-05,0
-2.98759e-05,1.66148e-05,-4.48641e-06,-3.39901e-05,2.19274e-05,-5.38583e-06,5.23096e-07,1.25815e-05,0
-3.17157e-05,2.03528e-05,-4.30716e-06,-2.35462e-05,2.30716e-05,-6.61206e-06,2.87051e-06,9.48836e-06,0
-3.25764e-05,2.24454e-05,-3.542e-06,-6.96911e-06,2.23609e-05,-7.50621e-06,5.85342e-06,5.5728e-06,0
-3.15165e-05,2.3327e-05,-4.35399e-06,7.51097e-06,1.81277e-05,-8.02062e-06,1.07436e-05,4.15287e-06,0
-3.04982e-05,2.59419e-05,-6.1453e-06,1.07223e-05,1.29469e-05,-8.59156e-06,1.60995e-05,4.40444e-06,0
-3.02234e-05,2.93751e-05,-5.96785e-06,8.3793e-07,9.85786e-06,-8.33333e-06,1.99796e-05,5.36328e-06,0
-3.09994e-05,3.02045e-05,-3.69123e-06,-1.48735e-05,8.89223e-06,-7.46105e-06,2.23272e-05,5.3178e-06,0
-3.24983e-05,2.82583e-05,-3.18223e-06,-2.70151e-05,6.54572e-06,-7.3643e-06,2.38262e-05,3.5359e-06,0
-3.3351e-05,2.56747e-05,-6.00537e-06,-2.44023e-05,1.44064e-06,-7.83495e-06,2.31388e-05,1.9587e-06,0
-3.37079e-05,2.17296e-05,-8.82028e-06,-4.1956e-06,-3.31961e-06,-8.58745e-06,2.05501e-05,2.17596e-06,0
-3.39114e-05,1.60573e-05,-1.01482e-05,2.42353e-05,-6.18273e-06,-9.192e-06,1.89872e-05,2.43295e-06,0
-3.39152e-05,1.30752e-05,-1.08589e-05,5.47741e-05,-8.76989e-06,-1.07252e-05,1.88862e-05,2.13937e-06,0
-3.5122e-05,1.22621e-05,-1.21929e-05,8.67731e-05,-9.82206e-06,-1.16059e-05,1.85971e-05,3.36933e-06,0
-3.61254e-05,8.96162e-06,-1.32512e-05,9.92031e-05,-8.39939e-06,-1.18907e-05,1.89197e-05,3.56277e-06,0
-3.60597e-05,5.85056e-06,-1.35676e-05,7.30324e-05,-5.70654e-06,-1.23876e-05,2.04958e-05,7.4959e-08,0
-3.52871e-05,4.91233e-06,-1.19765e-05,2.28341e-05,-2.66167e-06,-1.20138e-05,2.29526e-05,-2.86098e-06,0
-3.33391e-05,5.61591e-06,-9.68894e-06,-1.65734e-05,5.30023e-06,-1.18721e-05,2.20554e-05,-4.0663e-06,0
-3.19035e-05,7.69462e-06,-8.52353e-06,-3.44155e-05,1.55489e-05,-1.02794e-05,1.68822e-05,-4.13742e-06,0
-3.16804e-05,9.15758e-06,-6.63278e-06,-4.40954e-05,2.05492e-05,-8.14878e-06,1.2827e-05,-4.31258e-06,0
-3.09393e-05,1.04978e-05,-4.6868e-06,-4.16089e-05,2.10793e-05,-4.71262e-06,1.15423e-05,-5.35438e-06,0
-3.04121e-05,1.14622e-05,-4.88376e-06,-2.22827e-05,2.28147e-05,-5.07912e-07,1.33715e-05,-5.09302e-06,0
-3.09692e-05,1.11345e-05,-9.04554e-06,7.82124e-06,2.67908e-05,6.8483e-07,1.55944e-05,-3.11079e-06,0
-3.05111e-05,1.00632e-05,-1.44396e-05,2.83066e-05,2.89165e-05,-1.09479e-06,1.64639e-05,-1.01245e-06,0
-2.96988e-05,8.17116e-06,-1.7149e-05,2.80423e-05,2.81468e-05,-3.76754e-06,1.54291e-05,-1.19636e-06,0
-2.96395e-05,5.04027e-06,-1.70737e-05,1.26516e-05,2.52435e-05,-4.62173e-06,1.45525e-05,-3.0889e-06,0
-3.06679e-05,1.98971e-06,-1.51993e-05,-5.92397e-06,2.19121e-05,-3.99876e-06,1.41067e-05,-4.77134e-06,0
-3.17448e-05,6.69496e-07,-1.30114e-05,-1.80886e-05,1.97518e-05,-3.91837e-06,1.34898e-05,-4.53695e-06,0
-3.09722e-05,1.11622e-06,-1.19261e-05,-2.38167e-05,2.1102e-05,-5.52072e-06,1.28249e-05,-4.31155e-06,0
-2.91678e-05,3.11433e-06,-1.15473e-05,-2.75589e-05,2.29728e-05,-8.00458e-06,1.1737e-05,-5.5807e-06,0
-2.84858e-05,5.69628e-06,-1.03838e-05,-3.50831e-05,2.05104e-05,-9.01646e-06,1.11117e-05,-6.45648e-06,0
-2.88917e-05,7.01686e-06,-8.57985e-06,-4.30275e-05,1.50652e-05,-8.03869e-06,1.1896e-05,-5.67439e-06,0
-2.92323e-05,6.91185e-06,-7.38692e-06,-4.73508e-05,1.16277e-05,-8.30665e-06,1.3539e-05,-3.80494e-06,0
-2.94944e-05,6.34313e-06,-7.2786e-06,-4.95159e-05,1.1029e-05,-1.0216e-05,1.3999e-05,-2.71742e-06,0
-3.02618e-05,5.91755e-06,-6.88165e-06,-5.4216e-05,1.06595e-05,-1.14178e-05,1.42623e-05,-3.04116e-06,0
-3.23711e-05,6.36577e-06,-3.91892e-06,-5.91458e-05,8.89147e-06,-1.1636e-05,1.53791e-05,-3.47152e-06,0
-3.42221e-05,8.42744e-06,1.57675e-06,-5.76348e-05,6.94281e-06,-1.0884e-05,1.71901e-05,-4.30982e-06,0
-3.39902e-05,1.0638e-05,9.6138e-06,-4.69048e-05,6.32656e-06,-1.05796e-05,1.70031e-05,-6.73189e-06,0
-3.27729e-05,1.19961e-05,2.22738e-05,-3.49491e-05,5.72076e-06,-1.23721e-05,1.53093e-05,-7.09097e-06,0
-3.1811e-05,1.45608e-05,3.83239e-05,-3.2647e-05,4.72587e-06,-1.44394e-05,1.45904e-05,-3.32217e-06,0
-3.03697e-05,1.81631e-05,5.35716e-05,-4.10697e-05,3.81141e-06,-1.53577e-05,1.59719e-05,1.17466e-06,0
-2.89601e-05,1.95772e-05,6.47832e-05,-4.60856e-05,3.268e-06,-1.6562e-05,1.81394e-05,3.39036e-06,0
-2.8353e-05,1.86427e-05,6.7498e-05,-3.72902e-05,2.97857e-06,-1.82976e-05,1.90152e-05,4.07867e-06,0
-2.97403e-05,1.68187e-05,5.31705e-05,-2.04404e-05,3.0525e-06,-1.87368e-05,1.71561e-05,6.20026e-06,0
-3.2793e-05,1.53986e-05,2.24604e-05,-4.36353e-06,3.13166e-06,-1.9072e-05,1.38507e-05,7.61695e-06,0
-3.48629e-05,1.52254e-05,-1.63595e-05,7.75225e-06,3.98396e-06,-1.89558e-05,1.35924e-05,7.5927e-06,0
-3.42737e-05,1.51893e-05,-5.65486e-05,1.55813e-05,4.0544e-06,-1.67241e-05,1.88985e-05,8.29505e-06,0
-3.24562e-05,1.47126e-05,-8.78436e-05,1.6606e-05,3.27386e-06,-1.47795e-05,2.45253e-05,8.86661e-06,0
-3.08973e-05,1.52527e-05,-0.000102691,1.21088e-05,3.55386e-06,-1.33778e-05,2.4346e-05,7.672e-06,0
-2.91035e-05,1.79475e-05,-0.000101391,3.87192e-06,4.24314e-06,-1.31759e-05,2.13354e-05,5.37825e-06,0
-2.77732e-05,1.85014e-05,-8.74749e-05,-2.65802e-06,5.08595e-06,-1.28933e-05,1.78908e-05,5.29415e-06,0
-2.78091e-05,1.64209e-05,-6.87502e-05,-7.59076e-06,6.3474e-06,-1.16444e-05,1.40725e-05,6.15036e-06,0
-2.83549e-05,1.5384e-05,-5.33208e-05,-1.65026e-05,8.12335e-06,-1.01597e-05,1.17926e-05,5.55747e-06,0
-2.84963e-05,1.33205e-05,-4.1275e-05,-2.70904e-05,9.08243e-06,-9.07892e-06,9.78971e-06,3.1677e-06,0
-2.93071e-05,1.05891e-05,-2.9465e-05,-3.14326e-05,9.22789e-06,-9.26024e-06,6.4501e-06,2.466e-06,0
-3.02462e-05,8.54972e-06,-1.82235e-05,-3.01135e-05,9.61545e-06,-9.92066e-06,4.54681e-06,3.38869e-06,0
-3.03666e-05,7.2122e-06,-1.07921e-05,-2.78487e-05,1.02792e-05,-1.10681e-05,4.79978e-06,2.27649e-06,0
-2.98235e-05,6.3167e-06,-7.51035e-06,-2.25248e-05,1.01792e-05,-1.20104e-05,3.82875e-06,1.54488e-07,0
-2.95758e-05,5.73316e-06,-5.38459e-06,-1.06765e-05,9.227e-06,-1.22777e-05,-1.24384e-07,-4.44468e-07,0
-2.92902e-05,5.46387e-06,-3.15169e-06,5.98843e-06,9.02409e-06,-1.23437e-05,-4.12229e-06,8.21363e-07,0
-2.86214e-05,4.52593e-06,-2.59415e-06,2.02356e-05,1.11362e-05,-1.20827e-05,-5.6025e-06,1.78218e-06,0
-2.76557e-05,2.76749e-06,-3.93636e-06,2.63223e-05,1.49313e-05,-1.06959e-05,-4.89392e-06,1.44506e-06,0
-2.71051e-05,1.36998e-06,-5.50945e-06,2.64276e-05,1.76666e-05,-1.0344e-05,-2.83215e-06,4.83579e-09,0
-2.70784e-05,1.21005e-06,-6.0136e-06,2.79523e-05,1.88743e-05,-1.24588e-05,6.62981e-07,-8.52521e-07,0
-2.70989e-05,2.07765e-06,-5.04443e-06,3.08664e-05,2.00546e-05,-1.40321e-05,5.19834e-06,-9.78129e-07,0
-2.78358e-05,4.61168e-06,-3.1038e-06,3.0391e-05,2.04969e-05,-1.27382e-05,9.08694e-06,-8.82647e-07,0
-2.89359e-05,6.39799e-06,-2.26248e-06,2.42445e-05,1.80127e-05,-1.00058e-05,9.81936e-06,-1.17338e-06,0
-3.0208e-05,5.8078e-06,-2.15273e-06,1.49023e-05,1.5253e-05,-9.5095e-06,8.11422e-06,-2.62352e-06,0
-2.97383e-05,3.81912e-06,-9.88993e-07,2.03894e-06,1.58494e-05,-1.10281e-05,5.79061e-06,-4.11014e-06,0
-2.73031e-05,4.17928e-06,9.16095e-07,-1.49969e-05,1.73681e-05,-9.49204e-06,4.74068e-06,-3.971e-06,0
-2.57043e-05,6.18111e-06,2.47555e-06,-2.98491e-05,1.65682e-05,-5.84478e-06,5.78616e-06,-2.53924e-06,0
-2.64502e-05,5.44855e-06,2.29163e-06,-3.67599e-05,1.4871e-05,-3.97901e-06,7.0031e-06,-6.20783e-07,0
-2.70958e-05,2.50964e-06,1.34484e-06,-3.86698e-05,1.49914e-05,-5.08769e-06,7.8427e-06,-4.30119e-07,0
-2.67003e-05,-2.08305e-06,6.2777e-07,-3.68756e-05,1.57877e-05,-7.84616e-06,9.34043e-06,-1.56968e-06,0
-2.69449e-05,-6.08933e-06,-4.56006e-07,-2.24266e-05,1.53931e-05,-9.33305e-06,1.327e-05,-1.19174e-06,0
-2.79318e-05,-7.42413e-06,-2.39568e-06,-2.93714e-06,1.456e-05,-7.69205e-06,1.81675e-05,-1.51217e-06,0
-2.87853e-05,-5.94056e-06,-4.0841e-06,6.56317e-06,1.54066e-05,-5.07028e-06,2.09248e-05,-2.49254e-06,0
-2.83267e-05,-3.54647e-06,-4.15351e-06,5.60536e-06,1.62555e-05,-4.8767e-06,2.19818e-05,-2.75942e-06,0
-2.80032e-05,-2.08274e-06,-3.80021e-06,5.00759e-07,1.56355e-05,-5.5202e-06,2.42245e-05,-3.46085e-06,0
-2.84213e-05,-8.14891e-08,-5.18029e-06,-2.28678e-06,1.53731e-05,-6.09016e-06,2.68783e-05,-4.61754e-06,0
-2.85308e-05,2.94903e-06,-6.78314e-06,-2.69208e-06,1.72463e-05,-6.20308e-06,2.9095e-05,-5.57375e-06,0
-2.85237e-05,6.28881e-06,-7.68245e-06,-2.66617e-06,2.01927e-05,-6.20973e-06,3.10524e-05,-5.46844e-06,0
-2.82502e-05,8.4269e-06,-8.40709e-06,-4.45861e-06,2.12762e-05,-6.52122e-06,3.29592e-05,-4.49261e-06,0
-2.70594e-05,7.70924e-06,-8.7491e-06,-6.65783e-06,2.18437e-05,-7.64925e-06,3.21783e-05,-4.01217e-06,0
-2.63931e-05,4.60954e-06,-8.48356e-06,-6.32084e-06,2.25866e-05,-9.24822e-06,2.5169e-05,-3.91864e-06,0
-2.6913e-05,2.30873e-06,-6.48992e-06,-5.55781e-06,2.23003e-05,-1.05855e-05,1.5325e-05,-2.82659e-06,0
-2.75689e-05,2.45995e-06,-4.00364e-06,-6.69123e-06,2.04694e-05,-1.15565e-05,8.7392e-06,-3.33194e-07,0
-2.87708e-05,4.05135e-06,-2.10262e-06,-8.33183e-06,1.83199e-05,-1.09914e-05,7.67625e-06,2.34058e-06,0
-3.1089e-05,5.55773e-06,-3.63188e-07,-8.18607e-06,1.72527e-05,-9.22584e-06,1.03341e-05,2.88292e-06,0
-3.30789e-05,6.85644e-06,8.88136e-07,-5.92977e-06,1.7769e-05,-8.16073e-06,1.55759e-05,1.65552e-06,0
-3.32859e-05,8.47736e-06,9.98342e-07,-2.21747e-06,2.03209e-05,-9.03486e-06,2.15999e-05,9.19267e-07,0
-3.26561e-05,1.00325e-05,3.24134e-07,8.28062e-07,2.34366e-05,-1.00108e-05,2.6815e-05,1.13669e-06,0
-3.2095e-05,1.1805e-05,-1.4744e-07,-4.79115e-08,2.44606e-05,-1.00497e-05,3.11192e-05,2.1967e-06,0
-3.18283e-05,1.21397e-05,-2.03048e-07,-5.38089e-06,2.20916e-05,-1.06555e-05,3.35955e-05,3.60377e-06,0
-3.06317e-05,1.06122e-05,-1.61831e-06,-1.25487e-05,1.65819e-05,-1.22443e-05,3.28779e-05,4.11045e-06,0
-3.02511e-05,9.21961e-06,-5.02163e-06,-1.65308e-05,1.02751e-05,-1.34408e-05,2.9457e-05,2.78101e-06,0
-3.15229e-05,8.05044e-06,-8.02958e-06,-1.31249e-05,5.2908e-06,-1.28269e-05,2.42456e-05,1.26524e-06,0
-3.28188e-05,8.16851e-06,-8.5224e-06,-5.69871e-06,3.01832e-06,-1.04858e-05,1.96415e-05,1.92361e-06,0
-3.43108e-05,7.12224e-06,-8.15499e-06,1.06182e-06,3.946e-06,-9.51059e-06,2.48235e-05,5.01844e-06,0
-3.47014e-05,4.63988e-06,-8.41274e-06,6.036e-06,5.11174e-06,-1.12832e-05,3.91646e-05,5.45887e-06,0
-3.35316e-05,4.57946e-06,-1.00663e-05,1.02243e-05,3.74893e-06,-1.20845e-05,4.89727e-05,3.39789e-06,0
-3.0209e-05,6.25406e-06,-1.24201e-05,1.25917e-05,4.58919e-06,-9.90722e-06,4.9032e-05,2.98529e-06,0
-2.81757e-05,9.41941e-06,-1.39653e-05,1.23602e-05,9.73873e-06,-7.0719e-06,3.8326e-05,3.47141e-06,0
-2.85596e-05,1.13955e-05,-1.69996e-05,1.05347e-05,1.21653e-05,-4.8007e-06,1.85205e-05,3.55514e-06,0
-2.88683e-05,1.11404e-05,-1.96876e-05,7.98504e-06,1.15529e-05,-4.75379e-06,-4.57754e-06,1.63678e-06,0
-2.88982e-05,1.03875e-05,-2.02131e-05,6.7009e-06,1.0758e-05,-5.31044e-06,-2.33257e-05,5.96137e-07,0
-2.81869e-05,1.32744e-05,-1.85731e-05,6.20012e-06,1.19345e-05,-4.29575e-06,-3.34221e-05,1.08447e-06,0
-2.69323e-05,1.81125e-05,-1.54005e-05,4.29059e-06,1.53483e-05,-3.01849e-06,-3.45972e-05,4.78113e-07,0
-2.57971e-05,2.05044e-05,-1.27582e-05,9.38838e-07,1.86025e-05,-1.97998e-06,-2.92064e-05,-1.67626e-06,0
-2.59462e-05,2.19519e-05,-1.14517e-05,-2.15157e-06,1.93162e-05,-2.69276e-06,-2.11118e-05,-2.71322e-06,0
-2.66556e-05,2.4636e-05,-1.03601e-05,-4.09272e-06,1.69524e-05,-5.75289e-06,-1.22314e-05,-1.29385e-06,0
-2.75571e-05,2.7956e-05,-9.69274e-06,-4.78283e-06,1.38161e-05,-8.8151e-06,-4.32234e-06,1.72381e-06,0
-2.82827e-05,2.96654e-05,-1.01495e-05,-3.81106e-06,1.16348e-05,-9.33087e-06,2.61423e-06,5.15005e-06,0
-2.92147e-05,2.98518e-05,-1.05411e-05,-1.53145e-06,1.0813e-05,-9.5809e-06,7.72102e-06,7.3422e-06,0
-2.94171e-05,2.82531e-05,-9.99956e-06,4.07011e-07,9.9658e-06,-1.12041e-05,1.0711e-05,7.33547e-06,0
-2.8749e-05,2.68094e-05,-7.83452e-06,1.32125e-06,9.5419e-06,-1.20305e-05,1.10323e-05,5.49498e-06,0
-2.87509e-05,2.57991e-05,-5.44702e-06,4.39221e-07,1.07011e-05,-1.10704e-05,1.06581e-05,4.01983e-06,0
-2.88873e-05,2.47219e-05,-4.3517e-06,-2.1476e-06,1.2469e-05,-9.26052e-06,1.19507e-05,3.32524e-06,0
-2.83856e-05,2.28975e-05,-3.89862e-06,-5.54017e-06,1.24446e-05,-7.2137e-06,1.56293e-05,3.7423e-06,0
-2.79477e-05,2.04522e-05,-3.60897e-06,-1.06891e-05,1.1214e-05,-7.04382e-06,1.94285e-05,4.24402e-06,0
-2.7767e-05,1.99115e-05,-4.27241e-06,-1.62135e-05,1.05406e-05,-9.02479e-06,2.00389e-05,3.69198e-06,0
-2.77555e-05,2.25535e-05,-4.21823e-06,-1.72869e-05,1.01326e-05,-1.07681e-05,1.90911e-05,2.91602e-06,0
-2.90007e-05,2.37485e-05,-3.63741e-06,-1.25063e-05,1.01768e-05,-9.96532e-06,1.87806e-05,3.03196e-06,0
-3.07052e-05,2.24076e-05,-4.62714e-06,-5.79367e-06,1.02875e-05,-7.76578e-06,1.77799e-05,2.12398e-06,0
-3.03468e-05,2.14372e-05,-6.01497e-06,-1.71579e-06,9.9284e-06,-6.99485e-06,1.6397e-05,-1.10889e-06,0
-2.84882e-05,2.04295e-05,-6.20159e-06,-8.20465e-07,8.82743e-06,-7.85087e-06,1.50115e-05,-3.67788e-06,0
-2.8958e-05,1.8479e-05,-6.96558e-06,1.40244e-06,9.41055e-06,-1.15031e-05,1.29799e-05,-2.91109e-06,0
-3.04404e-05,1.82013e-05,-8.20083e-06,6.10346e-06,1.22582e-05,-1.4029e-05,1.18334e-05,-1.13276e-07,0
-3.1934e-05,2.1342e-05,-7.83247e-06,1.11274e-05,1.39018e-05,-1.30672e-05,1.18818e-05,1.48349e-06,0
-3.33014e-05,2.33038e-05,-6.34231e-06,1.71737e-05,1.41074e-05,-1.15662e-05,1.21524e-05,1.33059e-06,0
-3.3357e-05,2.29324e-05,-5.90789e-06,2.10591e-05,1.37564e-05,-1.10133e-05,1.2902e-05,7.78017e-08,0
-3.25021e-05,2.10866e-05,-5.8128e-06,2.14947e-05,1.61226e-05,-1.04026e-05,1.26252e-05,-1.61222e-06,0
-3.17147e-05,1.88914e-05,-6.02452e-06,1.89062e-05,2.1024e-05,-1.04936e-05,1.03133e-05,-1.53966e-06,0
-3.11199e-05,1.60838e-05,-6.8502e-06,1.39042e-05,2.46188e-05,-1.11857e-05,8.29027e-06,1.70982e-07,0
-3.06694e-05,1.31367e-05,-6.28517e-06,9.13344e-06,2.67468e-05,-1.187e-05,7.76908e-06,1.61706e-06,0
-3.03473e-05,1.18438e-05,-5.90822e-06,3.38981e-06,2.7873e-05,-1.4051e-05,8.91397e-06,2.12571e-06,0
-2.96129e-05,1.19638e-05,-5.32178e-06,-2.91798e-06,2.68171e-05,-1.57912e-05,1.05541e-05,7.01876e-07,0
-2.96819e-05,1.25518e-05,-4.14434e-06,-4.57385e-06,2.43439e-05,-1.5314e-05,1.20204e-05,-1.88552e-06,0
-3.02183e-05,1.26372e-05,-3.36881e-06,1.73984e-06,2.34965e-05,-1.26268e-05,1.29629e-05,-3.34216e-06,0
-3.06127e-05,1.14423e-05,-4.43463e-06,1.12338e-05,2.39199e-05,-9.73195e-06,1.38283e-05,-2.51919e-06,0
-3.07117e-05,8.84135e-06,-7.1194e-06,1.85231e-05,2.35241e-05,-7.5959e-06,1.43101e-05,-2.48824e-07,0
-3.08174e-05,5.25406e-06,-9.24947e-06,2.23783e-05,2.44775e-05,-6.6339e-06,1.4535e-05,1.85466e-06,0
-3.14453e-05,1.21322e-06,-1.08859e-05,2.38558e-05,2.97552e-05,-7.08725e-06,1.48002e-05,2.91158e-06,0
-3.31894e-05,-1.02125e-06,-1.32427e-05,2.28089e-05,3.5013e-05,-8.78569e-06,1.50165e-05,3.63665e-06,0
-3.58336e-05,-1.49699e-07,-1.56634e-05,1.79171e-05,3.36028e-05,-1.1213e-05,1.48972e-05,5.1573e-06,0
-3.75688e-05,2.98611e-06,-1.69406e-05,8.02583e-06,2.55822e-05,-1.30302e-05,1.35641e-05,6.10218e-06,0
-3.76225e-05,5.02576e-06,-1.69584e-05,-3.75327e-06,1.71689e-05,-1.29164e-05,1.26379e-05,4.98996e-06,0
-3.6484e-05,3.89925e-06,-1.48034e-05,-1.0547e-05,1.24772e-05,-1.04286e-05,1.39289e-05,4.65487e-06,0
-3.47996e-05,7.02814e-07,-1.15806e-05,-8.37918e-06,9.6538e-06,-7.23284e-06,1.55428e-05,6.25231e-06,0
-3.35105e-05,-1.52706e-06,-8.89407e-06,-3.0971e-06,6.93691e-06,-6.12066e-06,1.70503e-05,6.82442e-06,0
-3.21292e-05,-1.65187e-06,-5.91985e-06,-7.99804e-06,7.56869e-06,-6.28512e-06,1.9266e-05,5.14166e-06,0
-3.00596e-05,-1.01114e-06,-3.0441e-06,-2.29616e-05,1.14323e-05,-4.236e-06,1.94966e-05,3.82641e-06,0
-2.86764e-05,-9.70636e-07,-2.041e-06,-3.39538e-05,1.21703e-05,-2.3762e-06,1.70456e-05,4.80711e-06,0
-2.83428e-05,-1.5711e-06,-1.8962e-06,-3.84368e-05,8.51906e-06,-1.99868e-06,1.44683e-05,5.17745e-06,0
-2.81536e-05,1.46725e-06,-6.04399e-07,-4.49582e-05,5.46393e-06,-2.61761e-06,1.30172e-05,3.58626e-06,0
-2.72728e-05,6.88588e-06,4.63753e-07,-5.25825e-05,3.56847e-06,-4.13924e-06,1.24589e-05,2.9548e-06,0
-2.6523e-05,1.04644e-05,-1.45252e-06,-5.22471e-05,1.7801e-06,-3.69083e-06,1.33317e-05,3.65537e-06,0
-2.68717e-05,1.15407e-05,-2.55061e-06,-4.27941e-05,1.49604e-06,-2.62584e-06,1.48195e-05,4.08571e-06,0
-2.84758e-05,1.15359e-05,-1.58363e-06,-3.24009e-05,4.59635e-06,-3.5722e-06,1.49056e-05,3.80519e-06,0
-2.99526e-05,1.268e-05,-2.36475e-06,-2.52343e-05,8.61524e-06,-6.10961e-06,1.15496e-05,3.2814e-06,0
-2.96497e-05,1.47595e-05,-4.06296e-06,-2.21033e-05,8.6405e-06,-8.92159e-06,5.28144e-06,3.21028e-06,0
-2.89925e-05,1.54813e-05,-5.2466e-06,-2.17368e-05,4.95408e-06,-1.14973e-05,7.75873e-07,3.77774e-06,0
-3.0041e-05,1.53744e-05,-6.82846e-06,-2.33859e-05,1.1093e-06,-1.22906e-05,7.44659e-07,4.80555e-06,0
-3.17408e-05,1.72723e-05,-8.86602e-06,-2.59226e-05,-1.0491e-06,-1.06668e-05,3.52165e-06,4.65854e-06,0
-3.27684e-05,1.96371e-05,-9.76115e-06,-2.56919e-05,-3.86877e-08,-7.98965e-06,6.31706e-06,2.75899e-06,0
-3.2807e-05,2.01294e-05,-1.07312e-05,-1.39171e-05,3.77212e-06,-5.29245e-06,7.56401e-06,8.45272e-07,0
-3.30731e-05,1.93913e-05,-1.16525e-05,9.27675e-06,7.29296e-06,-3.7362e-06,8.802e-06,1.08793e-06,0
-3.47793e-05,1.9604e-05,-1.1111e-05,2.32223e-05,9.4036e-06,-3.60318e-06,1.03686e-05,2.8117e-06,0
-3.61567e-05,1.9677e-05,-1.01263e-05,1.39674e-05,1.03715e-05,-4.58782e-06,9.68071e-06,3.92167e-06,0
-3.63401e-05,1.85646e-05,-9.97461e-06,-7.39553e-06,1.05478e-05,-5.73926e-06,6.57252e-06,2.764e-06,0
-3.59018e-05,1.76975e-05,-9.47554e-06,-1.77425e-05,1.02085e-05,-6.65271e-06,3.19303e-06,-8.24818e-08,0
-3.52736e-05,1.91149e-05,-7.80014e-06,-8.17958e-06,1.06189e-05,-6.98341e-06,-2.05434e-07,-2.0356e-06,0
-3.49251e-05,2.20554e-05,-6.8233e-06,1.15687e-05,1.18516e-05,-7.10458e-06,-3.93869e-06,-2.35724e-06,0
-3.44105e-05,2.40391e-05,-6.45163e-06,2.57845e-05,1.23599e-05,-8.07473e-06,-6.57181e-06,-1.42658e-06,0
-3.35765e-05,2.58102e-05,-5.4845e-06,3.06814e-05,1.06262e-05,-1.00347e-05,-7.10332e-06,-3.66973e-07,0
-3.25452e-05,3.21609e-05,-3.32701e-06,3.05996e-05,9.59609e-06,-1.08596e-05,-5.0424e-06,-9.23482e-08,0
-3.19459e-05,4.42584e-05,-1.66437e-06,2.44767e-05,1.15247e-05,-8.968e-06,-1.32926e-07,-1.07304e-06,0
-3.18475e-05,5.27249e-05,-1.38667e-06,1.33495e-05,1.54956e-05,-6.90083e-06,5.92184e-06,-2.14978e-06,0
-2.99902e-05,5.12483e-05,1.90897e-07,-6.97446e-06,1.95946e-05,-6.85846e-06,1.01897e-05,-2.21033e-06,0
-2.86876e-05,4.323e-05,2.07434e-06,-2.99262e-05,2.05378e-05,-6.77671e-06,1.22989e-05,-1.89445e-06,0
-2.9007e-05,3.63164e-05,1.06815e-06,-3.96227e-05,1.94913e-05,-5.01749e-06,1.37485e-05,-1.94783e-06,0
-2.91573e-05,3.32263e-05,-2.45078e-06,-3.9209e-05,2.03532e-05,-3.58072e-06,1.47161e-05,-9.60109e-07,0
-2.94613e-05,3.20444e-05,-5.2743e-06,-3.45883e-05,2.0996e-05,-4.04486e-06,1.45346e-05,1.78935e-06,0
-3.07797e-05,3.28927e-05,-5.15601e-06,-2.58103e-05,1.89058e-05,-5.45592e-06,1.37134e-05,2.66522e-06,0
-3.17516e-05,4.07623e-05,-5.10714e-06,-1.91499e-06,1.47875e-05,-8.82151e-06,1.51029e-05,1.12263e-06,0
-3.12249e-05,5.48729e-05,-6.48446e-06,3.65974e-05,1.22442e-05,-1.20864e-05,1.88473e-05,-3.60937e-07,0
-3.17548e-05,6.45812e-05,-6.20909e-06,6.66938e-05,1.31593e-05,-1.3095e-05,2.16772e-05,-3.99356e-07,0
-3.28121e-05,6.43523e-05,-4.53361e-06,6.98829e-05,1.39553e-05,-1.3848e-05,2.20389e-05,6.203e-07,0
-3.31527e-05,5.67301e-05,-5.07464e-06,4.73813e-05,1.27153e-05,-1.461e-05,2.15447e-05,4.72268e-07,0
-3.28189e-05,4.54751e-05,-8.04469e-06,1.76436e-05,1.12017e-05,-1.43147e-05,2.03535e-05,-2.55303e-07,0
-3.14933e-05,3.01391e-05,-1.0212e-05,-1.96182e-06,1.14808e-05,-1.20371e-05,1.85809e-05,1.84377e-07,0
-2.85913e-05,1.14372e-05,-1.01488e-05,-9.22007e-06,1.34688e-05,-9.42211e-06,1.72588e-05,1.51198e-07,0
-2.54662e-05,-9.44139e-06,-9.38033e-06,-1.15068e-05,1.61538e-05,-8.41492e-06,1.5448e-05,-1.43409e-06,0
-2.458e-05,-3.0686e-05,-9.25155e-06,-1.41993e-05,1.60405e-05,-9.2085e-06,1.34598e-05,-1.82214e-06,0
-2.62075e-05,-4.8602e-05,-9.76499e-06,-1.93692e-05,1.28015e-05,-1.01368e-05,1.31373e-05,-4.24623e-07,0
-2.83765e-05,-5.93022e-05,-1.04306e-05,-2.61603e-05,9.98785e-06,-1.05794e-05,1.53611e-05,1.2809e-06,0
-2.99015e-05,-6.27425e-05,-1.10581e-05,-3.46763e-05,1.01312e-05,-1.0817e-05,1.76374e-05,1.47806e-06,0
