ch1,ch2,ch3,ch4,ch5,ch6,ch7,ch8,class
-6.87813e-07,1.91825e-05,1.03845e-05,-4.10342e-06,1.22058e-05,-9.38435e-06,2.58405e-05,2.65513e-06,0
-8.73289e-06,1.75989e-05,7.35239e-06,-1.49911e-06,1.15677e-05,-1.06676e-05,2.81251e-05,2.88086e-06,0
-2.88777e-05,1.44762e-05,4.30267e-06,-4.47833e-06,9.13712e-06,-1.02324e-05,2.92517e-05,4.37046e-06,0
-5.10351e-05,8.96211e-06,-2.39893e-06,-1.00058e-05,6.48986e-06,-1.15835e-05,2.72921e-05,6.00994e-06,0
-6.73899e-05,3.13337e-06,-1.03146e-05,-1.28464e-05,5.03603e-06,-1.48287e-05,2.42149e-05,6.45632e-06,0
-7.38232e-05,-1.02547e-06,-1.66872e-05,-9.10173e-06,4.29044e-06,-1.78003e-05,2.19435e-05,6.20903e-06,0
-6.74128e-05,-3.26424e-06,-2.41072e-05,1.94348e-06,5.30097e-06,-2.0387e-05,1.99005e-05,5.94278e-06,0
-4.66884e-05,-3.33174e-06,-3.26331e-05,2.09569e-05,8.97837e-06,-2.13795e-05,1.87412e-05,5.32127e-06,0
-2.2028e-05,-3.45677e-06,-3.74044e-05,4.45541e-05,1.15233e-05,-1.87649e-05,1.84237e-05,3.63211e-06,0
-1.26209e-05,-8.97265e-06,-3.65863e-05,6.0199e-05,1.05452e-05,-1.43233e-05,1.89292e-05,1.72744e-06,0
-1.81311e-05,-1.8936e-05,-3.4392e-05,5.88427e-05,9.3606e-06,-1.10709e-05,1.98658e-05,8.64297e-07,0
-1.91928e-05,-2.67464e-05,-3.38214e-05,4.46722e-05,9.28328e-06,-8.10248e-06,1.917e-05,8.17122e-07,0
-1.39249e-05,-2.48319e-05,-3.21726e-05,2.48951e-05,1.09882e-05,-1.81223e-06,1.6889e-05,5.85142e-07,0
-1.48939e-05,-1.42092e-05,-3.0476e-05,6.24856e-06,1.44882e-05,1.04717e-05,1.2714e-05,5.68933e-07,0
-2.06769e-05,-5.11946e-06,-3.15002e-05,-6.32102e-06,1.89973e-05,2.16456e-05,8.412e-06,2.40548e-07,0
-2.34467e-05,-5.61918e-07,-3.25774e-05,-1.42031e-05,1.90289e-05,1.82273e-05,8.24436e-06,-6.27082e-07,0
-2.20023e-05,7.3076e-08,-2.88748e-05,-1.77977e-05,1.48429e-05,2.31479e-06,1.07214e-05,2.92969e-07,0
-1.84299e-05,-9.71275e-07,-2.24462e-05,-1.76335e-05,1.28341e-05,-1.16105e-05,1.25536e-05,1.34015e-06,0
-1.40322e-05,5.36056e-07,-1.83008e-05,-1.82608e-05,1.07715e-05,-1.78331e-05,1.348e-05,1.27849e-06,0
-1.15821e-05,3.12873e-06,-1.66029e-05,-2.04761e-05,7.73358e-06,-1.89956e-05,1.43108e-05,-1.47477e-07,0
-1.41334e-05,3.07238e-06,-1.5031e-05,-2.00803e-05,6.45191e-06,-1.85588e-05,1.52986e-05,-1.90943e-06,0
-1.9353e-05,1.46901e-06,-1.11668e-05,-1.83932e-05,7.52997e-06,-1.99215e-05,1.58157e-05,-1.3091e-06,0
-2.52131e-05,2.89341e-07,-6.11805e-06,-1.70361e-05,8.92117e-06,-2.26433e-05,1.50633e-05,2.23105e-07,0
-3.27806e-05,3.40912e-07,-2.91987e-06,-1.54152e-05,8.61991e-06,-2.34727e-05,1.32035e-05,6.81933e-07,0
-4.14915e-05,4.34983e-07,-3.71328e-06,-1.47801e-05,6.45068e-06,-2.30439e-05,1.19022e-05,-1.11944e-07,0
-4.54155e-05,-1.23891e-06,-7.37303e-06,-1.5199e-05,5.01421e-06,-2.15883e-05,1.20648e-05,-1.25829e-06,0
-4.26662e-05,-3.7515e-06,-1.07796e-05,-1.5162e-05,5.08737e-06,-1.83974e-05,1.14608e-05,-1.24788e-06,0
-3.70469e-05,-3.77694e-06,-1.16266e-05,-1.34205e-05,6.47097e-06,-1.56992e-05,1.01032e-05,6.54149e-07,0
-3.09485e-05,-1.89551e-06,-1.02626e-05,-1.08372e-05,8.28109e-06,-1.71447e-05,1.03318e-05,2.5592e-06,0
-2.32464e-05,-4.23499e-07,-9.44431e-06,-9.26545e-06,9.15273e-06,-2.12688e-05,1.17016e-05,2.79338e-06,0
-1.58801e-05,1.70638e-06,-8.9232e-06,-9.6768e-06,8.55668e-06,-2.34231e-05,1.17818e-05,2.77855e-06,0
-1.35224e-05,5.29694e-06,-6.83149e-06,-1.07348e-05,6.4736e-06,-2.22901e-05,1.02737e-05,4.06675e-06,0
-1.65072e-05,8.94009e-06,-4.88845e-06,-1.19638e-05,4.00283e-06,-1.9274e-05,9.64792e-06,6.23258e-06,0
-2.15636e-05,1.215e-05,-4.63943e-06,-1.13702e-05,2.79161e-06,-1.71486e-05,1.07584e-05,7.59612e-06,0
-2.74122e-05,1.43926e-05,-4.29686e-06,-8.70785e-06,3.86617e-06,-1.73873e-05,1.22158e-05,7.20197e-06,0
-3.33096e-05,1.58329e-05,-2.83892e-06,-8.20362e-06,4.76151e-06,-1.76928e-05,1.23739e-05,6.43706e-06,0
-3.76768e-05,1.70422e-05,-2.40653e-06,-9.11e-06,3.08856e-06,-1.54423e-05,1.07674e-05,5.63656e-06,0
-4.09577e-05,1.7306e-05,-4.02839e-06,-9.71825e-06,2.43168e-06,-1.36084e-05,9.93945e-06,5.09925e-06,0
-4.34891e-05,1.68311e-05,-4.63219e-06,-1.07913e-05,9.72197e-06,-1.38799e-05,1.1957e-05,4.54096e-06,0
-4.39258e-05,1.56504e-05,-3.90413e-06,-1.29202e-05,2.36456e-05,-1.30195e-05,1.39969e-05,3.4044e-06,0
-3.94714e-05,1.06729e-05,-3.69355e-06,-1.35316e-05,3.27345e-05,-8.99064e-06,1.33918e-05,2.91995e-06,0
-3.0367e-05,4.46301e-06,-2.81217e-06,-1.24158e-05,3.11958e-05,-4.73904e-06,1.18788e-05,2.06294e-06,0
-2.04697e-05,4.47032e-06,-3.03187e-07,-1.24766e-05,2.58025e-05,-3.56335e-06,1.18598e-05,1.6211e-06,0
-1.63454e-05,7.67062e-06,1.58498e-06,-1.1921e-05,2.25295e-05,-5.20051e-06,1.25322e-05,1.39529e-06,0
-2.02574e-05,9.04039e-06,9.45599e-07,-1.13652e-05,2.0385e-05,-9.85453e-06,1.35882e-05,1.96273e-06,0
-3.04578e-05,9.23093e-06,-8.81454e-07,-1.21025e-05,1.62829e-05,-1.51165e-05,1.41039e-05,3.98999e-06,0
-4.26359e-05,9.13213e-06,-7.64439e-07,-1.24711e-05,1.27364e-05,-1.73251e-05,1.30425e-05,4.32828e-06,0
-5.42592e-05,9.7245e-06,1.57188e-07,-1.02532e-05,1.19463e-05,-1.47227e-05,1.19713e-05,4.17132e-06,0
-6.38724e-05,1.11273e-05,-7.70368e-09,-6.95519e-06,1.18943e-05,-1.11675e-05,1.2491e-05,5.04053e-06,0
-6.85762e-05,1.14948e-05,8.29407e-07,-3.02156e-06,1.10746e-05,-1.43783e-05,1.37396e-05,5.82549e-06,0
-6.78764e-05,1.07443e-05,8.63176e-07,9.81172e-07,9.37421e-06,-2.41493e-05,1.45813e-05,5.37324e-06,0
-6.47873e-05,9.70715e-06,-7.65176e-07,2.76727e-06,8.4275e-06,-3.58532e-05,1.54142e-05,4.63358e-06,0
-6.17658e-05,8.56691e-06,-1.82595e-06,3.73381e-06,8.06969e-06,-4.58483e-05,1.57854e-05,4.30295e-06,0
-5.39321e-05,7.24563e-06,-1.27571e-06,4.37347e-06,7.90094e-06,-5.10122e-05,1.49744e-05,4.31702e-06,0
-3.20201e-05,5.99629e-06,7.39266e-08,3.78644e-06,9.09647e-06,-4.56776e-05,1.38305e-05,4.29371e-06,0
1.15636e-06,5.3726e-06,4.71727e-07,1.55913e-06,1.2906e-05,-2.55686e-05,1.3815e-05,3.76685e-06,0
1.96698e-05,5.51555e-06,-1.20118e-06,-2.32659e-07,1.70617e-05,3.5927e-06,1.43371e-05,3.7828e-06,0
9.93293e-06,7.89015e-06,-4.51966e-06,-3.45993e-07,1.7727e-05,2.34582e-05,1.49729e-05,4.21431e-06,0
-8.23229e-06,1.24203e-05,-7.15152e-06,5.60623e-07,1.45495e-05,2.14109e-05,1.5922e-05,3.90096e-06,0
-1.74149e-05,1.5446e-05,-8.44707e-06,-3.43184e-07,1.08251e-05,7.49053e-06,1.59828e-05,3.19967e-06,0
-2.41728e-05,1.63988e-05,-8.91708e-06,-3.97655e-06,8.95131e-06,-2.45644e-06,1.4179e-05,2.93792e-06,0
-3.54936e-05,1.72775e-05,-9.13011e-06,-6.39119e-06,1.01893e-05,-5.43399e-06,1.14882e-05,1.72419e-06,0
-4.78415e-05,1.75736e-05,-9.59262e-06,-5.36928e-06,1.36187e-05,-5.46456e-06,9.50144e-06,2.4478e-07,0
-5.50556e-05,1.71342e-05,-1.02539e-05,-3.18926e-06,1.54803e-05,-4.06473e-06,9.67228e-06,1.12767e-06,0
-5.47484e-05,1.67064e-05,-1.08368e-05,-2.30163e-06,1.37766e-05,-1.68846e-06,1.16036e-05,3.16829e-06,0
-4.84481e-05,1.74372e-05,-1.08206e-05,-2.82714e-06,1.0177e-05,5.68736e-07,1.33538e-05,2.61797e-06,0
-3.99025e-05,1.88685e-05,-1.01336e-05,-3.43036e-06,8.99224e-06,2.12416e-06,1.17159e-05,1.04035e-06,0
-3.39946e-05,1.93101e-05,-1.04139e-05,-3.59164e-06,9.38869e-06,2.52743e-06,8.62894e-06,5.83739e-07,0
-3.31302e-05,1.78926e-05,-1.08119e-05,-2.97515e-06,8.25383e-06,8.22541e-07,7.41865e-06,7.95463e-08,0
-3.48344e-05,1.63917e-05,-9.94681e-06,-1.09384e-06,7.10334e-06,-1.2052e-06,7.1437e-06,2.14013e-07,0
-3.47481e-05,1.81802e-05,-8.16063e-06,6.332e-07,6.62596e-06,-2.7427e-06,7.73922e-06,7.46784e-07,0
-3.39538e-05,2.16582e-05,-7.05292e-06,8.2166e-07,7.28802e-06,-3.83753e-06,8.47144e-06,8.3974e-07,0
-3.25505e-05,2.40634e-05,-6.28347e-06,-6.479e-07,1.021e-05,-5.11025e-06,8.24542e-06,-2.24062e-07,0
-3.01464e-05,2.57366e-05,-5.24268e-06,-1.77421e-06,1.25678e-05,-6.10454e-06,7.38763e-06,-2.38069e-06,0
-2.67343e-05,2.73766e-05,-5.86706e-06,-1.09555e-06,1.44439e-05,-6.27823e-06,6.76477e-06,-3.62361e-06,0
-2.42155e-05,2.77029e-05,-6.1113e-06,-2.23006e-07,1.5179e-05,-7.21631e-06,6.86833e-06,-4.49096e-06,0
-2.55461e-05,2.42065e-05,-5.25784e-06,1.66969e-06,1.46775e-05,-9.57632e-06,7.88889e-06,-6.03275e-06,0
-2.90707e-05,1.77287e-05,-4.35082e-06,2.81889e-06,1.49942e-05,-1.24047e-05,8.36047e-06,-7.53568e-06,0
-3.14811e-05,1.24917e-05,-5.18251e-06,1.3417e-06,1.52255e-05,-1.48434e-05,8.65023e-06,-7.47858e-06,0
-3.04989e-05,1.00878e-05,-7.59444e-06,-2.45181e-06,1.48908e-05,-1.64517e-05,7.94895e-06,-6.11124e-06,0
-2.81914e-05,7.95546e-06,-9.64046e-06,-6.94584e-06,1.33237e-05,-1.70251e-05,5.97246e-06,-5.5558e-06,0
-2.71573e-05,4.03596e-06,-1.07938e-05,-8.70014e-06,1.12635e-05,-1.71102e-05,5.86414e-06,-5.52778e-06,0
-2.73876e-05,-4.92316e-09,-1.16847e-05,-8.75116e-06,9.69408e-06,-1.64606e-05,1.03196e-05,-4.98881e-06,0
-2.74956e-05,-2.05683e-06,-1.21759e-05,-8.50642e-06,9.60562e-06,-1.4189e-05,1.59977e-05,-3.94108e-06,0
-2.73959e-05,-3.29324e-07,-1.09845e-05,-6.8393e-06,1.0867e-05,-1.16491e-05,1.71452e-05,-4.47507e-06,0
-2.64323e-05,8.39263e-06,-8.97225e-06,-2.6863e-06,1.28649e-05,-1.07095e-05,1.41126e-05,-7.01847e-06,0
-2.06939e-05,2.11571e-05,-7.64805e-06,7.07269e-07,1.46261e-05,-1.0076e-05,1.08695e-05,-9.89046e-06,0
-9.24592e-06,2.6309e-05,-8.17172e-06,1.2446e-06,1.51181e-05,-8.87379e-06,1.10605e-05,-1.18874e-05,0
-7.30601e-07,2.08504e-05,-9.94927e-06,2.94135e-07,1.4186e-05,-8.07468e-06,1.2079e-05,-1.20859e-05,0
-6.44728e-06,1.53919e-05,-1.1954e-05,-2.45555e-06,1.3115e-05,-9.35975e-06,1.18222e-05,-1.08266e-05,0
-2.69708e-05,1.61992e-05,-1.13449e-05,-6.61136e-06,1.2649e-05,-1.15868e-05,1.22445e-05,-9.00469e-06,0
-5.53026e-05,1.66914e-05,-9.35681e-06,-7.04128e-06,1.17121e-05,-1.36427e-05,1.30709e-05,-6.93288e-06,0
-7.99325e-05,1.07606e-05,-9.87203e-06,-5.70182e-06,1.08859e-05,-1.46095e-05,1.35526e-05,-4.4566e-06,0
-8.81343e-05,3.05543e-06,-1.14628e-05,-6.67413e-06,1.06493e-05,-1.50054e-05,1.43174e-05,-1.79943e-06,0
-7.00049e-05,-5.83237e-07,-9.83447e-06,-6.64637e-06,9.99537e-06,-1.65054e-05,1.49213e-05,-1.01497e-06,0
-3.17608e-05,1.25634e-06,-6.43265e-06,-6.19219e-06,9.97247e-06,-1.63134e-05,1.36725e-05,-1.05906e-06,0
-5.24871e-06,1.53688e-06,-6.1978e-06,-9.91513e-06,1.14803e-05,-1.2316e-05,1.1592e-05,-3.29248e-07,0
-5.66519e-06,-4.56707e-06,-8.23802e-06,-1.45356e-05,1.18265e-05,-8.80062e-06,9.79113e-06,1.94741e-07,0
-1.01802e-05,-1.14828e-05,-1.01645e-05,-1.55242e-05,1.03295e-05,-7.983e-06,5.8493e-06,1.0638e-06,0
-2.61284e-06,-1.63357e-05,-1.06034e-05,-1.33659e-05,8.36951e-06,-9.14811e-06,2.6789e-06,8.3452e-07,0
5.77302e-06,-1.93796e-05,-1.03434e-05,-1.06347e-05,6.00653e-06,-1.14847e-05,4.89043e-06,-4.74358e-07,0
7.86505e-06,-1.83317e-05,-9.28388e-06,-8.28638e-06,1.01502e-05,-1.13081e-05,9.93224e-06,-1.06003e-06,0
8.09575e-06,-9.48721e-06,-7.19185e-06,-3.88331e-06,2.24324e-05,-8.92867e-06,1.33781e-05,-6.83609e-07,0
8.38484e-06,4.57719e-06,-5.16572e-06,6.34426e-07,3.1971e-05,-6.91544e-06,1.51249e-05,-1.64807e-06,0
6.9626e-06,1.33898e-05,-5.44878e-06,2.8823e-06,3.28234e-05,-6.35905e-06,1.69607e-05,-2.71635e-06,0
2.86375e-06,1.16484e-05,-9.98592e-06,3.16634e-06,2.62442e-05,-7.16721e-06,1.81811e-05,-2.3611e-06,0
-7.77812e-07,4.04648e-06,-1.51773e-05,3.70204e-06,1.77708e-05,-7.45439e-06,1.80431e-05,-1.95758e-06,0
1.76077e-07,-2.09312e-06,-1.64632e-05,5.32513e-06,1.31121e-05,-6.17832e-06,1.76635e-05,-2.23197e-06,0
5.17507e-06,-3.79797e-06,-1.35516e-05,6.59593e-06,1.35141e-05,-5.30641e-06,1.84837e-05,-3.01875e-06,0
4.85687e-06,-2.75767e-06,-1.07742e-05,4.93864e-06,1.51653e-05,-6.66071e-06,1.95467e-05,-3.0729e-06,0
-6.93415e-06,-5.28198e-07,-1.05578e-05,6.03721e-07,1.5321e-05,-9.68123e-06,1.93617e-05,-1.85757e-06,0
-2.69334e-05,3.13619e-06,-1.17308e-05,-5.33486e-06,1.39093e-05,-1.29908e-05,1.77438e-05,2.46006e-09,0
-4.74032e-05,6.08741e-06,-1.26992e-05,-1.23768e-05,1.22663e-05,-1.57143e-05,1.51175e-05,1.37176e-06,0
-6.37722e-05,4.57936e-06,-1.27289e-05,-1.82917e-05,1.0752e-05,-1.72609e-05,1.1699e-05,3.15036e-06,0
-7.50739e-05,1.69545e-06,-1.2423e-05,-2.04797e-05,8.72499e-06,-1.7755e-05,9.06741e-06,4.68273e-06,0
-8.00014e-05,3.24798e-06,-1.22124e-05,-1.81965e-05,6.55726e-06,-1.70293e-05,8.76622e-06,5.03251e-06,0
-7.70524e-05,8.02385e-06,-1.12532e-05,-1.4122e-05,5.32166e-06,-1.53436e-05,9.96273e-06,3.90154e-06,0
-6.95827e-05,1.14338e-05,-1.09336e-05,-8.56412e-06,5.34718e-06,-1.23212e-05,1.05197e-05,3.06468e-06,0
-6.30163e-05,1.11988e-05,-1.09925e-05,-7.62271e-07,7.73533e-06,-4.83653e-06,9.28948e-06,3.47277e-06,0
-5.95976e-05,8.30555e-06,-8.16904e-06,3.15014e-06,1.26283e-05,3.61538e-06,7.84134e-06,3.86322e-06,0
-5.98446e-05,4.15812e-06,-3.3963e-06,1.14093e-06,1.6614e-05,7.67645e-06,8.03642e-06,2.76757e-06,0
-5.78846e-05,-1.92978e-09,-7.05709e-07,-5.87661e-07,1.84072e-05,5.9523e-06,8.76648e-06,2.31537e-06,0
-4.97254e-05,-2.75516e-06,-8.44738e-07,1.99664e-07,2.18759e-05,1.54331e-06,8.55878e-06,4.95638e-06,0
-3.92357e-05,-4.45507e-06,-1.31472e-06,1.27025e-06,3.33934e-05,-1.19436e-06,3.70745e-06,7.97452e-06,0
-3.34013e-05,-2.15451e-06,-1.58722e-06,1.65958e-06,4.6291e-05,-3.32534e-06,-7.51399e-06,8.00118e-06,0
-3.19972e-05,6.95354e-07,-6.78264e-07,5.83796e-07,4.9271e-05,-4.06607e-06,-1.70221e-05,5.785e-06,0
-3.06987e-05,-3.68987e-07,7.9607e-07,-5.07429e-06,4.05663e-05,-3.55726e-06,-1.92094e-05,4.62944e-06,0
-2.83336e-05,-1.80029e-06,2.01243e-06,-1.23817e-05,2.55331e-05,-3.12889e-06,-1.39391e-05,3.93453e-06,0
-2.48357e-05,1.38115e-06,1.50648e-06,-1.58683e-05,1.31957e-05,-4.95329e-06,-1.60834e-06,2.60818e-06,0
-1.94257e-05,8.69626e-06,-5.36799e-07,-1.51332e-05,7.08507e-06,-8.71753e-06,1.94157e-05,8.6882e-07,0
-1.47041e-05,1.56086e-05,-2.54553e-06,-1.25088e-05,4.73924e-06,-1.19934e-05,4.35102e-05,1.52152e-07,0
-1.59476e-05,2.18096e-05,-4.47049e-06,-1.0942e-05,3.60402e-06,-1.3955e-05,6.13316e-05,7.51503e-07,0
-2.10274e-05,2.75117e-05,-6.10633e-06,-1.32363e-05,3.49802e-06,-1.49519e-05,6.809e-05,1.79568e-06,0
-2.63215e-05,3.05601e-05,-7.28618e-06,-1.80289e-05,4.7058e-06,-1.54057e-05,6.30449e-05,1.861e-06,0
-3.20177e-05,3.00789e-05,-7.3948e-06,-2.0237e-05,7.36885e-06,-1.40569e-05,5.02386e-05,1.18069e-06,0
-4.03061e-05,2.86801e-05,-7.43091e-06,-1.70118e-05,1.04458e-05,-1.18743e-05,3.31021e-05,2.14333e-06,0
-4.90405e-05,2.64599e-05,-8.84563e-06,-1.20361e-05,1.1235e-05,-1.04205e-05,1.63021e-05,4.6532e-06,0
-5.2516e-05,2.41506e-05,-1.25249e-05,-8.48438e-06,9.20463e-06,-9.67384e-06,3.049e-06,6.79917e-06,0
-4.70415e-05,2.32827e-05,-1.79102e-05,-6.13692e-06,7.24706e-06,-1.03891e-05,-3.41066e-06,7.25863e-06,0
-3.67574e-05,2.43982e-05,-2.49708e-05,-4.42259e-06,7.40507e-06,-1.29911e-05,-3.5034e-06,6.43643e-06,0
-3.02683e-05,2.57418e-05,-2.93596e-05,-9.03989e-07,8.65815e-06,-1.33858e-05,-1.33285e-06,6.16489e-06,0
-2.94739e-05,2.44859e-05,-2.59482e-05,4.47442e-06,9.57271e-06,-1.04346e-05,-1.48998e-06,8.22035e-06,0
-3.03857e-05,2.01948e-05,-2.05578e-05,1.00926e-05,1.26586e-05,-5.90354e-06,-2.26512e-06,1.08746e-05,0
-2.96175e-05,1.60972e-05,-2.01027e-05,1.74128e-05,1.7936e-05,-1.59512e-06,8.8648e-07,1.17166e-05,0
-2.80877e-05,1.54386e-05,-2.01613e-05,2.63353e-05,2.15986e-05,2.33319e-06,6.42599e-06,1.10349e-05,0
-2.87581e-05,1.7926e-05,-1.70291e-05,3.07749e-05,2.22892e-05,5.90252e-06,1.11512e-05,8.54453e-06,0
-3.31266e-05,2.05291e-05,-1.45034e-05,2.7854e-05,1.98257e-05,6.0122e-06,1.37078e-05,4.84608e-06,0
-3.75093e-05,2.00544e-05,-1.41024e-05,2.29674e-05,1.6582e-05,1.22815e-06,1.60244e-05,3.18083e-06,0
-3.81084e-05,1.60569e-05,-1.30476e-05,1.85915e-05,1.39378e-05,-4.81993e-06,1.99111e-05,2.93447e-06,0
-3.8673e-05,1.22776e-05,-1.04182e-05,1.11314e-05,1.35403e-05,-8.6813e-06,2.62627e-05,1.53373e-06,0
-4.14347e-05,1.21136e-05,-7.51282e-06,1.98235e-06,1.44184e-05,-1.13494e-05,3.1566e-05,-8.18997e-08,0
-4.26612e-05,1.37268e-05,-5.53977e-06,-5.3137e-06,1.35608e-05,-1.20777e-05,3.0666e-05,-8.43115e-07,0
-4.12278e-05,1.39589e-05,-5.84721e-06,-8.25501e-06,1.05166e-05,-1.06793e-05,2.42146e-05,-1.37141e-06,0
-3.66508e-05,1.21572e-05,-6.84752e-06,-8.17695e-06,5.96366e-06,-9.33634e-06,1.73568e-05,-3.12825e-06,0
-3.16263e-05,1.21617e-05,-7.13227e-06,-8.17441e-06,3.59798e-06,-8.94348e-06,1.26466e-05,-5.61095e-06,0
-2.82505e-05,1.45063e-05,-7.0473e-06,-1.0143e-05,3.59274e-06,-8.14912e-06,9.99559e-06,-7.26493e-06,0
-2.69195e-05,1.71351e-05,-7.21562e-06,-1.39405e-05,3.51041e-06,-6.36117e-06,9.20916e-06,-8.12357e-06,0
-2.67631e-05,1.9793e-05,-7.42599e-06,-1.73471e-05,4.19028e-06,-4.77729e-06,1.04519e-05,-7.1703e-06,0
-2.55415e-05,2.28238e-05,-7.01741e-06,-1.88752e-05,6.5676e-06,-3.72999e-06,1.21969e-05,-5.03672e-06,0
-2.38977e-05,2.51814e-05,-6.74929e-06,-1.85765e-05,8.78854e-06,-4.02125e-06,1.17465e-05,-3.48787e-06,0
-2.1707e-05,2.69517e-05,-6.39571e-06,-1.85971e-05,1.18189e-05,-4.56938e-06,8.89228e-06,-3.78841e-06,0
-1.93387e-05,2.76967e-05,-5.42469e-06,-1.70621e-05,1.56364e-05,-5.38222e-06,6.05228e-06,-5.45173e-06,0
-1.76814e-05,2.58754e-05,-3.15631e-06,-1.24821e-05,1.70953e-05,-7.41293e-06,6.54365e-06,-5.92026e-06,0
-1.82877e-05,2.25659e-05,-1.34733e-06,-5.46269e-06,1.53709e-05,-1.01115e-05,9.98124e-06,-4.27461e-06,0
-1.91346e-05,1.99553e-05,-1.49957e-06,1.64767e-06,1.24174e-05,-1.14921e-05,1.27737e-05,-1.50987e-06,0
-1.96299e-05,1.91941e-05,-1.57686e-06,7.87158e-06,1.02832e-05,-1.12953e-05,1.32966e-05,6.14551e-07,0
-2.18264e-05,1.94273e-05,-7.02998e-07,1.29996e-05,1.02992e-05,-1.20928e-05,1.23491e-05,1.64971e-06,0
-2.50763e-05,1.92888e-05,8.225e-07,1.30387e-05,1.21724e-05,-1.4943e-05,1.00684e-05,1.80801e-06,0
-2.62466e-05,1.97968e-05,1.32497e-06,7.48596e-06,1.34172e-05,-1.89485e-05,7.85952e-06,2.4172e-06,0
-2.49292e-05,2.3135e-05,2.3969e-08,1.22889e-06,1.25881e-05,-2.16008e-05,7.11582e-06,3.9816e-06,0
-2.60107e-05,2.78087e-05,-1.39645e-06,-3.85975e-06,8.52227e-06,-2.22862e-05,6.52833e-06,5.53926e-06,0
-3.26971e-05,3.18938e-05,-1.44653e-06,-8.17842e-06,2.72406e-06,-2.15873e-05,5.64802e-06,6.43739e-06,0
-4.26157e-05,3.46116e-05,-8.71989e-08,-1.09764e-05,1.64918e-07,-2.0332e-05,4.59641e-06,7.39288e-06,0
-4.92202e-05,3.60415e-05,-6.64642e-07,-1.23573e-05,1.70139e-07,-1.83562e-05,3.43832e-06,9.31616e-06,0
-4.94854e-05,3.43525e-05,-5.11046e-06,-1.34251e-05,1.92086e-06,-1.42518e-05,2.60609e-06,1.05894e-05,0
-3.6562e-05,3.05175e-05,-8.5548e-06,-1.50519e-05,6.66999e-06,-8.59748e-06,3.76456e-06,1.13551e-05,0
-1.04443e-05,3.05649e-05,-8.38308e-06,-1.53902e-05,9.14734e-06,-3.72386e-06,9.66561e-06,1.23554e-05,0
7.80351e-06,3.25801e-05,-7.88694e-06,-1.51844e-05,8.82165e-06,-3.42027e-07,1.54785e-05,1.22966e-05,0
3.59667e-06,3.22104e-05,-7.69691e-06,-1.74377e-05,6.94386e-06,1.39357e-07,1.63594e-05,1.03677e-05,0
-8.72837e-06,3.06906e-05,-6.70635e-06,-2.07722e-05,4.55816e-06,-5.4073e-07,1.59938e-05,7.32096e-06,0
-1.15053e-05,3.11806e-05,-5.26717e-06,-2.28085e-05,1.86091e-06,-2.87905e-06,1.59698e-05,6.25378e-06,0
-1.11942e-05,3.25102e-05,-6.53624e-06,-2.01434e-05,2.69404e-06,-8.93812e-06,1.49129e-05,7.47217e-06,0
-1.66591e-05,2.8966e-05,-1.33465e-05,-1.32599e-05,1.1088e-05,-1.55607e-05,1.32189e-05,8.78505e-06,0
-2.62677e-05,2.20473e-05,-2.06621e-05,-7.31078e-06,2.19075e-05,-1.65466e-05,1.25708e-05,8.23226e-06,0
-3.44956e-05,1.33205e-05,-2.25127e-05,-3.70538e-06,3.09308e-05,-9.53851e-06,1.2777e-05,6.46433e-06,0
-3.88502e-05,5.50828e-06,-1.8019e-05,-2.97497e-06,3.53437e-05,-2.69387e-06,1.16222e-05,4.083e-06,0
-3.8375e-05,3.07659e-06,-1.13387e-05,-3.76191e-06,3.37305e-05,-3.38469e-06,8.16295e-06,1.33172e-06,0
-3.35569e-05,6.29041e-06,-7.4254e-06,-4.84433e-06,2.76928e-05,-1.00716e-05,3.73747e-06,-1.02207e-06,0
-2.85764e-05,1.23506e-05,-8.8675e-06,-4.18809e-06,2.1187e-05,-1.50757e-05,5.92814e-07,-2.85368e-06,0
-2.66716e-05,1.78691e-05,-1.38347e-05,-2.28023e-06,1.68338e-05,-1.5876e-05,1.70086e-06,-2.90457e-06,0
-2.7985e-05,2.13492e-05,-1.6097e-05,-1.10879e-06,1.51444e-05,-1.41925e-05,6.58311e-06,-1.69213e-06,0
-3.03246e-05,2.27743e-05,-1.2861e-05,-2.50876e-07,1.48663e-05,-9.22379e-06,9.72116e-06,-7.33932e-07,0
-3.1265e-05,2.41134e-05,-7.23949e-06,1.22146e-06,1.53172e-05,2.69539e-06,7.70827e-06,-1.24621e-06,0
-2.88944e-05,2.58318e-05,-3.30349e-06,2.01659e-06,1.5453e-05,1.9014e-05,2.91265e-06,-1.53343e-06,0
-2.63096e-05,2.74971e-05,-1.23222e-06,3.71696e-07,1.3694e-05,2.70706e-05,-8.74618e-07,-7.31965e-07,0
-2.63264e-05,2.61706e-05,5.48388e-07,-1.89814e-06,1.11288e-05,1.75293e-05,-9.27343e-07,3.57936e-07,0
-2.83236e-05,2.26356e-05,2.79194e-06,-3.24983e-06,9.76924e-06,-5.14904e-07,3.09649e-06,2.46482e-07,0
-2.91599e-05,2.07482e-05,3.90773e-06,-3.63462e-06,8.80189e-06,-1.06329e-05,8.54739e-06,-1.19544e-06,0
-2.84598e-05,2.15253e-05,3.93132e-06,-5.01678e-06,8.35748e-06,-1.12256e-05,1.2539e-05,-3.13511e-06,0
-2.71794e-05,2.45601e-05,4.93706e-06,-7.84605e-06,8.52764e-06,-1.02724e-05,1.51396e-05,-5.09364e-06,0
-2.65985e-05,2.73003e-05,5.86214e-06,-1.04611e-05,7.8398e-06,-1.15519e-05,1.79108e-05,-5.29409e-06,0
-2.77168e-05,2.55008e-05,3.83386e-06,-9.3026e-06,6.53447e-06,-1.28656e-05,2.04956e-05,-3.76283e-06,0
-2.89014e-05,2.01355e-05,1.13453e-06,-4.62006e-06,6.11849e-06,-1.19197e-05,2.26418e-05,-1.88681e-06,0
-2.87267e-05,1.70735e-05,-6.62298e-07,-1.7895e-06,1.09732e-05,-1.00949e-05,2.3671e-05,-1.57612e-06,0
-2.75661e-05,1.77471e-05,-6.76332e-06,-5.99456e-06,1.88345e-05,-9.62484e-06,2.25479e-05,-3.46204e-06,0
-2.70888e-05,1.77971e-05,-1.61855e-05,-1.18884e-05,2.14547e-05,-1.06096e-05,2.12862e-05,-5.03932e-06,0
-2.91365e-05,1.42968e-05,-2.15689e-05,-1.27523e-05,1.72119e-05,-1.31211e-05,2.30957e-05,-4.49875e-06,0
-3.27234e-05,9.65667e-06,-1.84384e-05,-1.17726e-05,1.14601e-05,-1.62986e-05,2.62135e-05,-3.70906e-06,0
-3.44928e-05,8.01736e-06,-9.99885e-06,-1.23973e-05,1.04274e-05,-1.87202e-05,2.86063e-05,-3.72906e-06,0
-3.31171e-05,8.98421e-06,-3.00003e-06,-1.2736e-05,1.50867e-05,-1.77668e-05,2.85559e-05,-4.0698e-06,0
-2.73548e-05,9.51224e-06,-8.58331e-07,-7.7445e-06,2.00159e-05,-1.47438e-05,2.73942e-05,-3.65555e-06,0
-1.90277e-05,9.35862e-06,-2.3647e-06,3.8339e-06,2.05824e-05,-1.43716e-05,2.64657e-05,-3.48896e-06,0
-1.35238e-05,1.0083e-05,-4.66604e-06,1.70493e-05,1.8264e-05,-1.75036e-05,2.43171e-05,-4.15561e-06,0
-1.43059e-05,1.111e-05,-6.7372e-06,2.45033e-05,1.68038e-05,-2.01397e-05,2.15647e-05,-4.10275e-06,0
-1.86649e-05,1.09533e-05,-8.62024e-06,2.47985e-05,1.92767e-05,-1.96733e-05,1.93052e-05,-4.09804e-06,0
-2.46291e-05,8.70337e-06,-1.04879e-05,1.87613e-05,2.15481e-05,-1.80174e-05,1.77866e-05,-4.0106e-06,0
-3.14927e-05,6.43354e-06,-1.14446e-05,8.8988e-06,1.89682e-05,-1.69559e-05,1.56492e-05,-3.01715e-06,0
-3.80639e-05,6.4537e-06,-1.10426e-05,-3.63249e-07,1.43946e-05,-1.67833e-05,1.33049e-05,-1.92865e-06,0
-4.27199e-05,7.79661e-06,-9.97297e-06,-7.15042e-06,1.19347e-05,-1.5869e-05,1.15745e-05,-1.92439e-06,0
-4.47619e-05,8.84553e-06,-1.03907e-05,-1.24061e-05,1.15277e-05,-1.35806e-05,1.15062e-05,-2.61054e-06,0
-4.47757e-05,8.485e-06,-1.25864e-05,-1.55652e-05,1.17203e-05,-1.06034e-05,1.50545e-05,-3.17947e-06,0
-4.33124e-05,6.19713e-06,-1.52291e-05,-1.47094e-05,1.36664e-05,-9.20733e-06,2.62552e-05,-3.49822e-06,0
-4.07567e-05,2.27003e-06,-1.64458e-05,-1.31214e-05,1.54107e-05,-1.03562e-05,4.24651e-05,-2.91556e-06,0
-3.73268e-05,-5.67238e-07,-1.56377e-05,-1.40835e-05,1.33655e-05,-1.20608e-05,5.41895e-05,-1.86873e-06,0
-3.67961e-05,-4.00639e-06,-1.49233e-05,-1.68485e-05,8.87699e-06,-1.39464e-05,5.49045e-05,-1.65685e-06,0
-3.856e-05,-1.00134e-05,-1.37042e-05,-1.93872e-05,7.42757e-06,-1.49202e-05,4.24808e-05,-1.89655e-06,0
-3.9136e-05,-1.49269e-05,-1.10652e-05,-2.03081e-05,1.00828e-05,-1.39441e-05,2.23108e-05,-3.63836e-06,0
-3.74497e-05,-1.73375e-05,-9.1435e-06,-2.01593e-05,1.3939e-05,-1.46549e-05,3.38324e-06,-5.82792e-06,0
-3.51738e-05,-1.89422e-05,-9.5473e-06,-1.95836e-05,1.48084e-05,-1.76306e-05,-1.48634e-05,-5.36834e-06,0
-3.46033e-05,-1.68901e-05,-1.04102e-05,-1.81936e-05,1.18055e-05,-2.00645e-05,-3.46942e-05,-3.22671e-06,0
-3.21757e-05,-1.38594e-05,-1.07634e-05,-1.56769e-05,7.88249e-06,-1.90339e-05,-4.82494e-05,-1.1223e-06,0
-2.78271e-05,-1.30963e-05,-1.05e-05,-1.23053e-05,6.00296e-06,-1.71673e-05,-4.92678e-05,-2.6971e-07,0
-2.4993e-05,-1.15775e-05,-7.7815e-06,-7.77651e-06,7.78185e-06,-1.80415e-05,-4.03608e-05,7.05445e-08,0
-2.47627e-05,-6.04947e-06,-4.19391e-06,-1.23051e-06,1.48041e-05,-1.72189e-05,-2.93503e-05,3.10779e-07,0
-2.60962e-05,1.73745e-06,-1.99932e-06,2.99219e-06,2.67339e-05,-1.49501e-05,-1.97977e-05,1.10329e-07,0
-2.813e-05,6.50838e-06,-1.48034e-06,1.60587e-06,3.55234e-05,-1.30206e-05,-9.6256e-06,-2.15192e-07,0
-2.72794e-05,9.92787e-06,-2.30932e-06,-3.1896e-06,3.53818e-05,-1.19596e-05,-5.69095e-08,3.59634e-08,0
-1.64261e-05,1.47894e-05,-4.34989e-06,-7.52899e-06,2.70783e-05,-1.17976e-05,7.88619e-06,-7.44382e-08,0
-5.28194e-06,1.95137e-05,-6.64628e-06,-9.14894e-06,1.67945e-05,-1.06613e-05,1.47622e-05,-1.86189e-06,0
-7.58832e-06,2.02137e-05,-7.37998e-06,-9.01059e-06,1.1608e-05,-8.12369e-06,1.93659e-05,-3.43637e-06,0
-2.39216e-05,1.87898e-05,-5.93499e-06,-8.53877e-06,1.05601e-05,-4.87445e-06,2.18345e-05,-2.95292e-06,0
-4.43702e-05,1.78236e-05,-3.00805e-06,-9.2831e-06,1.05795e-05,-1.96803e-06,2.38739e-05,-1.91468e-06,0
-5.91024e-05,1.69564e-05,-1.48405e-06,-1.0144e-05,1.09059e-05,7.66227e-07,2.68446e-05,-2.07657e-06,0
-6.46489e-05,1.59431e-05,-2.09403e-06,-8.21437e-06,1.19314e-05,1.80987e-06,3.02753e-05,-1.94126e-06,0
-5.87969e-05,1.6841e-05,-2.08911e-06,-2.31306e-06,1.36222e-05,6.50267e-07,3.18475e-05,-9.73779e-07,0
-4.35294e-05,1.9169e-05,-4.11649e-07,5.37334e-06,1.60776e-05,-1.71875e-06,3.00353e-05,3.51171e-07,0
-3.01561e-05,1.86042e-05,8.91455e-07,1.16575e-05,1.94041e-05,-3.95931e-06,2.75273e-05,1.06093e-06,0
-2.78883e-05,1.41669e-05,4.92998e-07,1.35674e-05,2.14022e-05,-5.92075e-06,2.67974e-05,1.19384e-06,0
-2.73056e-05,7.22027e-06,-1.93139e-06,9.3805e-06,1.9216e-05,-6.61089e-06,2.74763e-05,1.59595e-06,0
-1.84956e-05,-3.81151e-07,-4.38794e-06,2.14148e-06,1.40136e-05,-4.07081e-06,2.86719e-05,2.60795e-06,0
-9.46911e-06,-6.89875e-06,-6.37686e-06,-4.77845e-06,1.02813e-05,-1.50648e-06,2.90446e-05,3.61127e-06,0
-1.14343e-05,-1.13882e-05,-8.64741e-06,-1.14016e-05,9.03544e-06,-2.6066e-06,2.76136e-05,3.32224e-06,0
-2.0205e-05,-9.6266e-06,-9.28048e-06,-1.77142e-05,8.02322e-06,-5.56451e-06,2.47538e-05,2.48774e-06,0
-2.76302e-05,-3.94002e-07,-9.36306e-06,-2.25954e-05,7.11829e-06,-7.8222e-06,2.19879e-05,1.59013e-06,0
-3.17794e-05,4.95296e-06,-1.16592e-05,-2.62918e-05,8.62862e-06,-9.87985e-06,1.98977e-05,1.1491e-06,0
-3.59731e-05,9.75102e-07,-1.58426e-05,-2.80966e-05,1.13018e-05,-1.1729e-05,1.80679e-05,2.83437e-06,0
-4.06424e-05,-4.69173e-06,-1.80856e-05,-2.58797e-05,1.23299e-05,-1.29896e-05,1.68133e-05,6.10618e-06,0
-4.10936e-05,-5.80514e-06,-1.77154e-05,-2.01996e-05,1.12873e-05,-1.27543e-05,1.57557e-05,8.80391e-06,0
-3.78947e-05,-2.91434e-06,-1.83155e-05,-1.4561e-05,1.14749e-05,-1.18839e-05,1.43444e-05,1.08361e-05,0
-3.70879e-05,3.30436e-06,-2.14518e-05,-1.38657e-05,1.3298e-05,-1.0686e-05,1.21618e-05,1.15885e-05,0
-3.80991e-05,9.24116e-06,-2.39867e-05,-1.81711e-05,1.35051e-05,-9.87851e-06,8.33307e-06,1.04135e-05,0
-3.4373e-05,1.31078e-05,-2.18424e-05,-2.06326e-05,1.13541e-05,-9.66243e-06,4.03414e-06,8.31242e-06,0
-2.71968e-05,1.81963e-05,-1.64815e-05,-1.54206e-05,1.13806e-05,-7.78502e-06,2.57479e-06,6.04133e-06,0
-2.29533e-05,2.34846e-05,-1.11954e-05,-3.48521e-06,1.68086e-05,-4.6812e-06,2.47115e-06,5.90181e-06,0
-2.6501e-05,2.40708e-05,-8.39686e-06,1.25033e-05,2.40104e-05,-2.62091e-06,2.93132e-06,7.12238e-06,0
-3.50072e-05,1.78254e-05,-9.2136e-06,2.83294e-05,2.98118e-05,-3.34748e-06,5.08298e-06,7.24e-06,0
-4.11264e-05,1.04343e-05,-1.15755e-05,3.62277e-05,3.25692e-05,-4.85661e-06,6.93624e-06,8.30742e-06,0
-4.07503e-05,8.34224e-06,-1.39761e-05,3.11361e-05,3.26067e-05,-5.38872e-06,7.73285e-06,9.78299e-06,0
-3.57885e-05,1.31413e-05,-1.64298e-05,1.82126e-05,3.09275e-05,-4.5002e-06,8.78443e-06,9.38191e-06,0
-3.20033e-05,2.17123e-05,-1.82313e-05,9.13248e-06,2.70361e-05,-2.48161e-06,1.05279e-05,7.99625e-06,0
-3.01578e-05,3.11325e-05,-1.84681e-05,8.28047e-06,1.95046e-05,-8.4163e-07,1.07348e-05,8.14238e-06,0
-2.68824e-05,3.89737e-05,-1.74644e-05,1.03696e-05,8.71543e-06,-1.39927e-06,9.24946e-06,9.35617e-06,0
-2.29238e-05,4.48126e-05,-1.69318e-05,8.76459e-06,-1.08864e-06,-3.66044e-06,6.65871e-06,9.48853e-06,0
-2.20495e-05,4.90501e-05,-1.66982e-05,3.04715e-06,-4.82335e-06,-5.96243e-06,3.89445e-06,9.0377e-06,0
-2.54495e-05,4.93924e-05,-1.6085e-05,-4.31489e-06,-1.8089e-06,-8.83315e-06,3.60171e-06,9.68849e-06,0
-3.0686e-05,4.42199e-05,-1.62058e-05,-9.56459e-06,4.23555e-06,-1.34485e-05,6.63859e-06,1.12127e-05,0
-3.40851e-05,3.39618e-05,-1.61285e-05,-1.04074e-05,8.34587e-06,-1.99368e-05,9.31658e-06,1.0395e-05,0
-3.33175e-05,2.19202e-05,-1.48624e-05,-9.16973e-06,7.36413e-06,-2.52703e-05,9.48632e-06,6.71599e-06,0
-2.94828e-05,1.10459e-05,-1.282e-05,-8.05197e-06,3.78278e-06,-2.60867e-05,8.7126e-06,5.12133e-06,0
-2.77399e-05,4.8516e-06,-1.04696e-05,-6.36313e-06,3.29477e-06,-1.93895e-05,9.27593e-06,6.79938e-06,0
-3.13304e-05,4.78109e-06,-9.15215e-06,-3.7585e-06,6.59076e-06,-4.13387e-06,1.12259e-05,7.55162e-06,0
-3.56119e-05,5.84085e-06,-9.59001e-06,5.2664e-07,1.21725e-05,1.52885e-05,1.17118e-05,7.25482e-06,0
-3.23204e-05,3.57071e-06,-1.09432e-05,6.34239e-06,1.95417e-05,2.76489e-05,1.06615e-05,5.82267e-06,0
-2.37917e-05,8.79295e-07,-1.00048e-05,1.10048e-05,2.38269e-05,2.07171e-05,9.84106e-06,4.65208e-06,0
-2.00421e-05,4.541e-06,-7.24723e-06,1.31376e-05,2.24931e-05,1.14304e-06,9.05302e-06,5.01962e-06,0
-2.27827e-05,1.05506e-05,-7.50983e-06,1.37264e-05,1.83273e-05,-1.56851e-05,9.79833e-06,3.08291e-06,0
-2.63047e-05,1.52528e-05,-9.71383e-06,1.44827e-05,1.37106e-05,-2.46666e-05,1.06802e-05,-1.55389e-06,0
-2.88905e-05,2.06547e-05,-1.05398e-05,1.59441e-05,1.09247e-05,-2.49691e-05,1.04423e-05,-4.47269e-06,0
-3.24278e-05,2.64939e-05,-8.20364e-06,1.73125e-05,9.22032e-06,-1.94518e-05,1.08889e-05,-4.92643e-06,0
-3.71444e-05,3.13664e-05,-3.3927e-06,1.2134e-05,6.81659e-06,-1.07068e-05,1.06572e-05,-4.77834e-06,0
-4.12344e-05,3.1868e-05,-5.06714e-07,8.19129e-07,3.8812e-06,-3.91483e-06,1.01064e-05,-4.9493e-06,0
-4.25664e-05,2.99746e-05,-9.45398e-07,-9.72366e-06,4.93946e-07,-1.5621e-06,9.59949e-06,-6.6414e-06,0
-4.27169e-05,2.68388e-05,-1.80005e-06,-1.57437e-05,-1.05436e-06,-4.43747e-07,9.41594e-06,-7.66033e-06,0
-4.32957e-05,2.25181e-05,-1.33802e-06,-1.69807e-05,8.93391e-07,1.21274e-06,9.53999e-06,-6.08287e-06,0
-4.45721e-05,1.80659e-05,-1.07057e-06,-1.71482e-05,5.14918e-06,2.6189e-06,1.11289e-05,-3.28011e-06,0
-4.52033e-05,1.48551e-05,-2.26172e-06,-1.66889e-05,1.0572e-05,2.67493e-06,1.24487e-05,-2.16248e-06,0
-4.37051e-05,1.31672e-05,-4.28929e-06,-1.42751e-05,1.56455e-05,2.42315e-06,1.09333e-05,-2.34712e-06,0
-4.09332e-05,1.25393e-05,-5.69422e-06,-9.35093e-06,1.86592e-05,1.48978e-06,8.31983e-06,-2.52848e-06,0
-3.77179e-05,1.2918e-05,-5.4332e-06,-3.81204e-06,2.03117e-05,-1.24533e-06,7.48071e-06,-3.28849e-06,0
-3.41114e-05,1.36407e-05,-3.93178e-06,-3.98975e-07,2.05791e-05,-7.10567e-06,8.84897e-06,-4.13354e-06,0
-3.14971e-05,1.51813e-05,-2.97395e-06,-7.91062e-07,1.81507e-05,-1.56078e-05,1.04589e-05,-3.24967e-06,0
-3.15416e-05,1.61346e-05,-2.66498e-06,-4.34213e-06,1.42052e-05,-2.48403e-05,1.19674e-05,-6.08094e-07,0
-3.23082e-05,1.32156e-05,-1.26068e-06,-7.91081e-06,1.23699e-05,-3.19665e-05,1.29435e-05,-2.52273e-07,0
-3.18641e-05,7.9702e-06,2.3943e-06,-8.74341e-06,1.48027e-05,-3.53842e-05,1.32416e-05,-1.5576e-06,0
-3.05223e-05,5.15016e-06,6.76894e-06,-7.69929e-06,2.00869e-05,-3.2154e-05,1.30739e-05,-8.4394e-07,0
-2.86215e-05,3.95722e-06,8.80949e-06,-7.17242e-06,2.35596e-05,-1.50727e-05,1.27387e-05,-6.04159e-07,0
-2.66174e-05,1.79611e-06,8.49096e-06,-7.90601e-06,2.09075e-05,1.29878e-05,1.11562e-05,-2.43445e-06,0
-2.44722e-05,-1.78805e-06,6.93438e-06,-9.58045e-06,1.3626e-05,3.08047e-05,8.11569e-06,-3.41193e-06,0
-2.27396e-05,-5.7697e-06,4.90161e-06,-1.17904e-05,6.70819e-06,2.33937e-05,6.21469e-06,-4.05817e-06,0
-2.20473e-05,-8.20307e-06,4.94768e-06,-1.45099e-05,3.61774e-06,3.36126e-06,6.47854e-06,-4.85306e-06,0
-2.27313e-05,-6.53726e-06,6.85296e-06,-1.81397e-05,1.34553e-06,-6.57799e-06,7.65499e-06,-6.06573e-06,0
-2.45599e-05,-4.0759e-06,5.75357e-06,-2.24709e-05,-2.75946e-06,-5.29886e-06,9.67065e-06,-7.07748e-06,0
-2.39653e-05,-3.11833e-06,8.85481e-07,-2.52265e-05,-5.6444e-06,-3.21304e-06,1.13292e-05,-5.6474e-06,0
-2.16405e-05,-2.51874e-06,-4.31676e-06,-2.50693e-05,-4.69074e-06,-3.01448e-06,1.16172e-05,-4.34595e-06,0
-2.09857e-05,-1.45035e-06,-9.43811e-06,-2.30607e-05,-1.78789e-06,-4.95261e-06,1.15553e-05,-5.56197e-06,0
-2.15395e-05,-2.20484e-08,-1.70122e-05,-1.94515e-05,2.79113e-06,-6.59406e-06,1.2025e-05,-6.89076e-06,0
-2.19629e-05,-5.00941e-07,-2.50594e-05,-1.31464e-05,1.17186e-05,-7.66906e-06,1.19878e-05,-6.89762e-06,0
-2.2159e-05,-6.67721e-07,-2.59125e-05,-5.73183e-06,2.01251e-05,-1.09185e-05,1.13971e-05,-6.71369e-06,0
-2.27209e-05,3.5596e-07,-1.91431e-05,4.29482e-07,2.2429e-05,-1.70095e-05,1.16368e-05,-5.69627e-06,0
-2.43733e-05,1.80083e-06,-1.19625e-05,4.3561e-06,1.84742e-05,-2.45989e-05,1.21788e-05,-3.87797e-06,0
-2.53396e-05,2.54664e-06,-8.28295e-06,8.92994e-06,1.32158e-05,-2.95015e-05,1.21078e-05,-2.10581e-06,0
-2.09146e-05,3.17363e-06,-1.06056e-05,1.35561e-05,1.16636e-05,-2.84617e-05,1.26434e-05,-1.8638e-06,0
-1.17823e-05,5.54193e-06,-1.90078e-05,1.56849e-05,1.29751e-05,-2.38499e-05,1.46972e-05,-2.95539e-06,0
-3.79749e-06,8.60702e-06,-2.82129e-05,1.46992e-05,1.41346e-05,-1.93344e-05,1.58474e-05,-2.57922e-06,0
-1.34937e-06,1.04533e-05,-3.21803e-05,9.98864e-06,1.32142e-05,-1.64117e-05,1.59886e-05,-6.48224e-07,0
-2.17213e-06,9.91152e-06,-2.95969e-05,3.63393e-06,1.0755e-05,-1.5002e-05,1.68541e-05,1.76642e-07,0
-1.63245e-06,7.64378e-06,-2.39573e-05,-2.92824e-06,7.44704e-06,-1.46237e-05,1.85724e-05,-9.66953e-07,0
1.33033e-07,5.15052e-06,-1.79377e-05,-8.74394e-06,4.36717e-06,-1.50594e-05,1.97556e-05,-2.38563e-06,0
-6.69902e-07,4.88035e-06,-1.25843e-05,-1.06918e-05,1.5101e-06,-1.52451e-05,1.85492e-05,-3.3339e-06,0
-6.2663e-06,6.4649e-06,-8.41138e-06,-7.61384e-06,8.67422e-08,-1.31336e-05,1.28172e-05,-3.95814e-06,0
-1.53284e-05,8.01638e-06,-5.71766e-06,-4.46017e-06,1.93916e-06,-8.57418e-06,4.12385e-06,-4.31859e-06,0
-2.6244e-05,8.87574e-06,-5.08218e-06,-4.58375e-06,4.98778e-06,-5.4949e-06,-1.30554e-06,-3.53666e-06,0
-3.84945e-05,8.43897e-06,-6.63115e-06,-6.08044e-06,6.37036e-06,-8.67786e-06,7.54859e-07,-2.59649e-06,0
-4.96877e-05,8.85594e-06,-8.56064e-06,-5.15947e-06,7.39866e-06,-1.58164e-05,8.77201e-06,-2.03534e-06,0
-5.59496e-05,1.2102e-05,-8.58633e-06,-1.80535e-07,1.10131e-05,-1.83426e-05,1.78776e-05,-1.08098e-06,0
-5.34874e-05,1.56562e-05,-6.75416e-06,6.10251e-06,1.66436e-05,-1.172e-05,2.56328e-05,8.36949e-07,0
-4.13915e-05,1.80902e-05,-3.77887e-06,8.00876e-06,2.02677e-05,-2.26882e-06,3.26719e-05,3.35745e-06,0
-3.05813e-05,1.87272e-05,-2.36319e-06,5.28461e-06,2.11389e-05,2.26076e-06,3.715e-05,6.82308e-06,0
-2.68398e-05,1.95535e-05,-4.05601e-06,8.11722e-07,2.48337e-05,2.45407e-06,3.83985e-05,1.02641e-05,0
-2.8882e-05,2.02114e-05,-4.729e-06,-3.47731e-06,2.98594e-05,8.94478e-08,3.80742e-05,1.08571e-05,0
-3.87145e-05,1.79273e-05,-4.51561e-06,-7.03422e-06,3.2036e-05,-3.85793e-06,3.62199e-05,9.50842e-06,0
-5.30253e-05,1.45994e-05,-6.13493e-06,-9.29397e-06,3.1102e-05,-8.18788e-06,3.32135e-05,7.48598e-06,0
-6.38595e-05,1.12882e-05,-7.46958e-06,-1.04893e-05,2.67705e-05,-1.1618e-05,2.89462e-05,8.08604e-06,0
-6.66648e-05,9.54127e-06,-6.36963e-06,-1.24137e-05,2.31527e-05,-1.3257e-05,2.51454e-05,1.05063e-05,0
-6.41775e-05,7.78384e-06,-5.06102e-06,-1.54481e-05,2.11902e-05,-1.4781e-05,2.16205e-05,1.19259e-05,0
-5.95329e-05,3.23386e-06,-5.07687e-06,-2.05471e-05,1.66417e-05,-1.68558e-05,1.77488e-05,1.18245e-05,0
-5.77005e-05,-3.86909e-06,-5.63617e-06,-2.6645e-05,9.90747e-06,-1.85262e-05,1.35642e-05,1.12662e-05,0
-5.90985e-05,-9.90398e-06,-6.70002e-06,-3.09774e-05,5.3537e-06,-1.81512e-05,9.96085e-06,1.25118e-05,0
-5.9243e-05,-1.2847e-05,-8.23769e-06,-3.15471e-05,3.82942e-06,-1.71889e-05,8.28559e-06,1.40526e-05,0
-5.39309e-05,-1.24833e-05,-9.7097e-06,-2.89328e-05,2.85277e-06,-1.82779e-05,7.07992e-06,1.28245e-05,0
-4.24611e-05,-8.8131e-06,-1.08063e-05,-2.5008e-05,2.33144e-06,-2.02105e-05,4.3827e-06,1.00752e-05,0
-2.89681e-05,-3.8465e-06,-1.07153e-05,-2.07066e-05,3.83319e-06,-2.11256e-05,8.89743e-07,9.72832e-06,0
-1.77503e-05,1.76104e-06,-8.32545e-06,-1.64463e-05,7.25742e-06,-2.13932e-05,3.1238e-07,1.0738e-05,0
-1.1697e-05,9.08904e-06,-4.44669e-06,-1.2403e-05,9.91736e-06,-2.13132e-05,3.32435e-06,1.08567e-05,0
-1.1623e-05,1.70634e-05,-1.88525e-06,-7.4685e-06,1.09891e-05,-2.03995e-05,6.41902e-06,9.60988e-06,0
-1.68631e-05,2.11944e-05,-2.65588e-06,-2.31959e-06,1.189e-05,-2.02081e-05,6.00276e-06,8.43871e-06,0
-2.42123e-05,2.09941e-05,-4.72089e-06,2.96116e-07,1.17276e-05,-2.10413e-05,3.19365e-06,8.0218e-06,0
-3.15004e-05,1.94792e-05,-6.2429e-06,-2.89354e-07,1.09595e-05,-2.18049e-05,-2.54048e-07,7.89399e-06,0
-3.66985e-05,1.94058e-05,-7.21939e-06,-1.43479e-06,1.0598e-05,-2.24233e-05,-3.02642e-06,5.88459e-06,0
-3.9266e-05,1.88718e-05,-7.04239e-06,-1.30306e-06,1.01239e-05,-2.25922e-05,-4.35512e-06,3.06873e-06,0
-3.99331e-05,1.66665e-05,-5.97428e-06,-5.84552e-07,9.48949e-06,-2.16726e-05,-3.09071e-06,3.62616e-06,0
-3.99075e-05,1.53428e-05,-6.39781e-06,-6.01938e-07,9.06281e-06,-2.08783e-05,8.71194e-08,6.61701e-06,0
-3.92387e-05,1.53697e-05,-8.45121e-06,-8.77005e-07,9.65398e-06,-2.10611e-05,3.80897e-06,8.13841e-06,0
-3.99586e-05,1.38582e-05,-1.11345e-05,1.09977e-08,1.13104e-05,-2.16266e-05,7.94786e-06,7.31084e-06,0
-4.09399e-05,1.13761e-05,-1.19061e-05,1.34641e-06,1.52148e-05,-2.0098e-05,1.05627e-05,3.45414e-06,0
-3.86258e-05,1.15921e-05,-1.17369e-05,1.97459e-06,1.86572e-05,-1.60508e-05,1.15893e-05,1.31078e-06,0
-3.47147e-05,1.39115e-05,-1.38706e-05,1.15835e-06,1.93587e-05,-1.10826e-05,1.14152e-05,4.32757e-06,0
-3.04082e-05,1.76315e-05,-1.58944e-05,2.47658e-07,1.93891e-05,-8.49605e-06,1.17695e-05,5.90187e-06,0
-2.73942e-05,2.15259e-05,-1.54315e-05,1.64634e-06,1.97039e-05,-9.30523e-06,1.3086e-05,5.57583e-06,0
-2.5127e-05,2.38895e-05,-1.30895e-05,3.79322e-06,1.99595e-05,-1.1057e-05,1.4326e-05,4.1509e-06,0
-2.29015e-05,2.48454e-05,-1.25731e-05,3.26685e-06,1.92185e-05,-1.32998e-05,1.38052e-05,2.92814e-06,0
-2.25987e-05,2.55087e-05,-1.47653e-05,6.60329e-07,1.79162e-05,-1.18166e-05,8.92582e-06,2.12283e-06,0
-2.60713e-05,2.51344e-05,-1.63739e-05,-1.3768e-06,1.63917e-05,-3.12244e-06,-2.23748e-06,8.00648e-07,0
-3.48846e-05,2.38535e-05,-1.49581e-05,-5.64002e-07,1.59654e-05,1.33338e-05,-1.5002e-05,-1.73835e-06,0
-4.83305e-05,2.27637e-05,-1.1585e-05,2.37477e-06,1.59387e-05,2.8451e-05,-2.14829e-05,-5.30665e-06,0
-6.00884e-05,2.18463e-05,-8.74815e-06,2.78032e-06,1.62461e-05,2.88027e-05,-1.87799e-05,-8.3231e-06,0
-6.05412e-05,2.07021e-05,-6.98491e-06,2.45445e-07,1.74788e-05,1.5478e-05,-8.93961e-06,-9.28076e-06,0
-4.38258e-05,1.92743e-05,-5.96332e-06,-2.00758e-06,1.984e-05,1.76708e-06,1.58275e-06,-7.67679e-06,0
-1.46936e-05,1.77751e-05,-6.0286e-06,-3.09102e-06,2.16019e-05,-4.33609e-06,8.8548e-06,-6.52177e-06,0
1.42774e-05,1.5764e-05,-7.71881e-06,-3.7806e-06,2.05807e-05,-6.37337e-06,1.37402e-05,-6.63326e-06,0
3.5135e-05,1.49524e-05,-9.6822e-06,-4.89995e-06,1.76355e-05,-8.58334e-06,1.86545e-05,-7.49883e-06,0
4.7159e-05,1.78226e-05,-9.72197e-06,-6.29381e-06,1.32531e-05,-1.20704e-05,2.35235e-05,-8.95469e-06,0
5.01881e-05,2.36361e-05,-7.74377e-06,-6.79247e-06,9.73805e-06,-1.55573e-05,2.71413e-05,-1.0984e-05,0
3.96043e-05,2.83929e-05,-5.92758e-06,-6.32472e-06,9.72719e-06,-1.59461e-05,2.94969e-05,-1.11714e-05,0
1.33883e-05,3.05258e-05,-6.25012e-06,-6.33494e-06,1.2672e-05,-1.31048e-05,3.23619e-05,-9.35861e-06,0
-1.87848e-05,3.05028e-05,-7.11768e-06,-7.69871e-06,1.39959e-05,-1.0682e-05,3.64827e-05,-7.05043e-06,0
-4.32539e-05,3.14087e-05,-6.85385e-06,-9.4904e-06,1.0673e-05,-1.03577e-05,4.00629e-05,-4.5406e-06,0
-5.07915e-05,3.47875e-05,-8.31274e-06,-8.57288e-06,7.28162e-06,-1.17211e-05,4.12485e-05,-2.52414e-06,0
-3.93566e-05,3.80958e-05,-1.10404e-05,-4.63678e-06,7.31806e-06,-1.17091e-05,4.07847e-05,-3.23365e-06,0
-2.33939e-05,3.82646e-05,-1.26006e-05,-1.4633e-06,7.44205e-06,-1.05829e-05,3.97511e-05,-4.95235e-06,0
-1.98106e-05,3.42566e-05,-1.32901e-05,6.72056e-07,5.56119e-06,-1.08414e-05,3.77198e-05,-5.91784e-06,0
-2.82121e-05,3.29201e-05,-1.3108e-05,2.85059e-06,2.55014e-06,-1.14912e-05,3.61493e-05,-5.22635e-06,0
-4.11142e-05,3.56547e-05,-1.20695e-05,2.9662e-06,3.00326e-06,-1.07449e-05,3.4688e-05,-4.11432e-06,0
-5.11831e-05,3.64735e-05,-1.05022e-05,2.5257e-06,9.43524e-06,-7.91367e-06,3.68202e-05,-4.06616e-06,0
-5.5878e-05,3.59952e-05,-8.44022e-06,2.08764e-06,1.81373e-05,-6.77391e-06,4.75398e-05,-3.73658e-06,0
-5.77471e-05,3.44858e-05,-5.73765e-06,9.67441e-07,2.16257e-05,-8.46295e-06,5.86883e-05,-3.84199e-06,0
-5.85199e-05,3.2368e-05,-5.05983e-06,-1.15579e-06,1.77098e-05,-9.89417e-06,6.16955e-05,-3.1869e-06,0
-5.85795e-05,2.92779e-05,-6.60458e-06,-3.08924e-06,1.05548e-05,-9.44618e-06,5.51619e-05,-3.73479e-06,0
-5.86528e-05,2.0995e-05,-8.21612e-06,-2.98563e-06,4.55688e-06,-6.39708e-06,4.15516e-05,-4.65892e-06,0
-5.92485e-05,9.27425e-06,-8.29823e-06,-2.43522e-06,2.85547e-06,-4.56303e-06,2.44539e-05,-5.37851e-06,0
-5.81028e-05,-4.87566e-07,-6.11016e-06,-1.18318e-06,5.43681e-06,-6.87216e-06,6.34891e-06,-6.11921e-06,0
-5.41821e-05,-5.43259e-06,-3.36536e-06,-1.89998e-08,1.28674e-05,-1.01228e-05,-9.7205e-06,-4.86126e-06,0
-4.71549e-05,-5.06888e-06,-1.94303e-06,-2.47044e-07,2.24802e-05,-1.17554e-05,-2.11571e-05,-2.32271e-06,0
-3.80373e-05,1.18494e-06,-2.25909e-06,-2.16731e-06,2.83993e-05,-1.27535e-05,-2.67606e-05,-3.97783e-07,0
-2.97332e-05,1.09523e-05,-3.97582e-06,-4.82052e-06,2.48165e-05,-1.50989e-05,-2.80543e-05,2.06407e-07,0
-2.4762e-05,2.00303e-05,-5.56922e-06,-8.50984e-06,1.22621e-05,-1.7991e-05,-2.67436e-05,-6.93018e-08,0
-2.33859e-05,2.42577e-05,-5.0552e-06,-1.24771e-05,-2.3744e-06,-2.00149e-05,-2.39735e-05,-1.14734e-06,0
-2.28259e-05,2.36834e-05,-3.42706e-06,-1.47884e-05,-1.14658e-05,-1.94448e-05,-1.85031e-05,-1.76691e-06,0
-2.15925e-05,2.3134e-05,-2.47011e-06,-1.55885e-05,-1.05289e-05,-1.61128e-05,-1.08438e-05,-1.71283e-06,0
-2.0061e-05,2.43943e-05,-2.48653e-06,-1.5652e-05,-2.85567e-06,-1.20196e-05,-5.05438e-06,-1.36718e-06,0
-1.85266e-05,2.49807e-05,-2.86776e-06,-1.44695e-05,3.68081e-06,-9.90532e-06,-2.66544e-06,-1.31322e-07,0
-1.65307e-05,2.36793e-05,-3.01936e-06,-1.15275e-05,3.81366e-06,-1.06832e-05,-9.01953e-07,1.98567e-06,0
-1.55798e-05,2.16537e-05,-2.18406e-06,-7.7876e-06,-6.50356e-07,-1.20883e-05,2.68367e-06,3.04627e-06,0
-1.83441e-05,1.91627e-05,-1.50934e-06,-4.03443e-06,-4.17588e-06,-1.1357e-05,7.74973e-06,1.74936e-06,0
-2.34461e-05,1.60637e-05,-1.49679e-06,-7.30206e-07,-4.48701e-06,-1.00488e-05,1.03887e-05,3.39572e-07,0
-3.00941e-05,1.45227e-05,-1.3763e-06,4.42313e-06,6.19058e-07,-1.16942e-05,1.13458e-05,1.82152e-06,0
-3.77606e-05,1.55557e-05,-1.46556e-06,8.50217e-06,1.08461e-05,-1.2845e-05,1.16244e-05,3.51436e-06,0
-4.03552e-05,1.32005e-05,-1.54553e-06,7.93075e-06,2.04399e-05,-1.14553e-05,9.7423e-06,4.07858e-06,0
-3.67664e-05,7.88204e-06,-1.68622e-07,7.02109e-06,2.72846e-05,-1.01567e-05,9.02944e-06,4.94964e-06,0
-3.22717e-05,5.36128e-06,1.1372e-06,6.71978e-06,2.83927e-05,-1.14347e-05,8.47772e-06,6.21285e-06,0
-3.05809e-05,6.19133e-06,-4.45989e-07,3.52721e-06,2.47017e-05,-1.21701e-05,7.59779e-06,7.6743e-06,0
-3.2727e-05,9.0156e-06,-2.03365e-06,-1.34166e-06,2.18521e-05,-1.17187e-05,6.88953e-06,8.38236e-06,0
-3.68118e-05,1.05664e-05,-2.57755e-06,-6.1822e-06,1.96938e-05,-1.28482e-05,4.86304e-06,9.49318e-06,0
-3.74589e-05,9.19043e-06,-3.37325e-06,-1.12965e-05,1.64774e-05,-1.28705e-05,4.72364e-06,1.00954e-05,0
-2.77909e-05,8.79227e-06,-4.92203e-06,-1.35002e-05,1.39007e-05,-1.16158e-05,9.31682e-06,8.59643e-06,0
-1.14375e-05,1.13704e-05,-7.08823e-06,-1.17684e-05,1.34545e-05,-9.6724e-06,1.63512e-05,6.56372e-06,0
-6.74045e-06,1.44936e-05,-7.60759e-06,-9.59089e-06,1.36094e-05,-9.03388e-06,2.05597e-05,4.94775e-06,0
-2.22343e-05,1.58023e-05,-7.21148e-06,-8.80165e-06,1.23821e-05,-1.08371e-05,2.0574e-05,4.14865e-06,0
-4.09779e-05,1.51218e-05,-5.73835e-06,-9.62328e-06,9.08743e-06,-1.38953e-05,1.93359e-05,5.03936e-06,0
-5.10303e-05,1.30489e-05,-3.51401e-06,-1.21107e-05,5.19791e-06,-1.59477e-05,1.89859e-05,6.32968e-06,0
-6.15931e-05,9.37956e-06,-2.38032e-06,-1.45592e-05,3.47957e-06,-1.62491e-05,1.94176e-05,6.66667e-06,0
-7.79199e-05,5.20082e-06,-2.51492e-06,-1.54981e-05,5.09531e-06,-1.71018e-05,1.87677e-05,5.79874e-06,0
-8.90181e-05,3.07802e-06,-3.0561e-06,-1.57364e-05,6.98518e-06,-1.84598e-05,1.75098e-05,3.9183e-06,0
-8.28469e-05,3.58626e-06,-4.2074e-06,-1.604e-05,5.8226e-06,-1.83424e-05,1.66412e-05,1.26424e-06,0
-6.04291e-05,7.19303e-06,-6.8073e-06,-1.59248e-05,2.274e-06,-1.64073e-05,1.65929e-05,-7.62676e-07,0
-3.90216e-05,1.37265e-05,-9.25024e-06,-1.40878e-05,1.12704e-06,-1.43758e-05,1.68232e-05,-1.70651e-07,0
-3.77232e-05,1.78089e-05,-1.1062e-05,-9.53474e-06,7.12212e-06,-1.22964e-05,1.74583e-05,2.17888e-06,0
-4.75813e-05,1.71421e-05,-1.28097e-05,-2.82854e-06,1.77212e-05,-1.08934e-05,1.84126e-05,3.49447e-06,0
-4.19212e-05,1.5663e-05,-1.37944e-05,2.72127e-06,2.47232e-05,-1.04115e-05,1.87965e-05,2.0203e-06,0
-1.34583e-05,1.51009e-05,-1.37648e-05,4.8849e-06,2.40276e-05,-9.81219e-06,1.80328e-05,-3.85022e-07,0
1.94802e-05,1.43245e-05,-1.44349e-05,4.59404e-06,1.65098e-05,-9.42575e-06,1.58523e-05,-9.37324e-07,0
2.99452e-05,1.2295e-05,-1.76818e-05,3.93812e-06,6.66935e-06,-8.63894e-06,1.44071e-05,-9.41652e-07,0
2.78784e-05,9.3075e-06,-1.95007e-05,3.25558e-06,7.93707e-08,-4.61802e-06,1.27746e-05,-2.5973e-06,0
4.10698e-05,7.378e-06,-1.61806e-05,1.64142e-07,1.25941e-06,2.24451e-06,1.06555e-05,-2.76251e-06,0
5.42788e-05,3.53887e-06,-1.32545e-05,-3.7464e-06,1.16362e-05,7.60828e-06,9.81921e-06,-1.36668e-06,0
4.08213e-05,-3.35877e-06,-1.33661e-05,-5.4412e-06,2.01902e-05,8.38526e-06,1.11216e-05,-1.97702e-06,0
1.51821e-05,-8.83166e-06,-1.33701e-05,-4.67743e-06,2.30216e-05,7.0671e-06,1.56713e-05,-3.83789e-06,0
5.14323e-06,-9.66082e-06,-1.02486e-05,-1.90016e-07,2.61411e-05,5.61877e-06,2.04193e-05,-4.82025e-06,0
3.57464e-06,-6.99592e-06,-7.01227e-06,7.71631e-06,2.80888e-05,4.58632e-06,2.24478e-05,-3.67207e-06,0
-1.00741e-06,-5.15489e-06,-6.43413e-06,1.19442e-05,2.5604e-05,5.81084e-06,2.20848e-05,-2.82106e-06,0
-8.5194e-06,-5.73087e-06,-7.01756e-06,7.9311e-06,1.8885e-05,7.02766e-06,2.09038e-05,-2.72843e-06,0
-1.49602e-05,-7.51644e-06,-6.83862e-06,1.30553e-06,1.39676e-05,5.66912e-06,1.85132e-05,-2.82901e-06,0
-1.85427e-05,-9.04646e-06,-6.08744e-06,-3.35712e-06,1.13751e-05,3.1236e-06,1.51934e-05,-3.10958e-06,0
-2.11402e-05,-8.95597e-06,-5.36311e-06,-7.32133e-06,1.07777e-05,1.2502e-06,1.27189e-05,-1.56879e-06,0
-2.13327e-05,-6.86508e-06,-4.44962e-06,-1.11338e-05,1.35765e-05,-1.09082e-06,1.09125e-05,-5.75713e-07,0
-1.73591e-05,-3.08791e-06,-4.72987e-06,-1.28541e-05,1.80787e-05,-4.01672e-06,1.00086e-05,-6.75322e-07,0
-8.6109e-06,1.82025e-06,-5.32483e-06,-1.29885e-05,2.19689e-05,-6.37997e-06,9.64159e-06,-1.28481e-06,0
-1.67985e-06,6.48564e-06,-5.99322e-06,-1.07637e-05,2.39017e-05,-7.95041e-06,9.58152e-06,-2.49854e-06,0
-2.60394e-06,1.10404e-05,-8.08663e-06,-4.19259e-06,2.3723e-05,-9.30499e-06,9.68819e-06,-3.84842e-06,0
-1.16e-05,1.48204e-05,-1.22094e-05,3.68766e-06,2.09565e-05,-1.07016e-05,1.05706e-05,-5.1259e-06,0
-2.46107e-05,1.60823e-05,-1.677e-05,8.02777e-06,1.70291e-05,-1.18286e-05,1.30751e-05,-5.99354e-06,0
-3.85898e-05,1.33398e-05,-2.19218e-05,6.0971e-06,1.44608e-05,-1.28112e-05,1.66005e-05,-6.54856e-06,0
-5.07312e-05,6.45719e-06,-2.77479e-05,2.9886e-06,1.43535e-05,-1.32816e-05,1.79567e-05,-7.01484e-06,0
-6.05734e-05,-2.60764e-06,-3.15468e-05,4.65659e-06,1.47713e-05,-1.03598e-05,1.51079e-05,-7.74822e-06,0
-6.69053e-05,-9.87348e-06,-2.95373e-05,8.87347e-06,1.43489e-05,-2.63024e-06,9.98513e-06,-7.72179e-06,0
-6.88416e-05,-1.39368e-05,-2.30176e-05,1.18574e-05,1.27975e-05,3.78179e-06,6.18843e-06,-5.21024e-06,0
-6.76711e-05,-1.63217e-05,-1.63909e-05,1.43688e-05,1.1733e-05,2.87961e-06,5.59151e-06,-1.8325e-06,0
-6.6383e-05,-1.55119e-05,-1.13139e-05,1.30065e-05,1.12827e-05,-3.02821e-06,7.79025e-06,-9.90268e-07,0
-6.5904e-05,-1.1719e-05,-7.86513e-06,4.68565e-06,1.13288e-05,-8.57158e-06,9.78963e-06,-1.98612e-06,0
-6.41764e-05,-8.76271e-06,-5.36125e-06,-5.9399e-06,1.09898e-05,-1.09384e-05,1.00477e-05,-3.38878e-06,0
-6.02058e-05,-5.72539e-06,-4.18498e-06,-1.68542e-05,1.03964e-05,-9.85012e-06,8.75131e-06,-3.04363e-06,0
-5.22531e-05,8.181e-07,-5.29369e-06,-2.51434e-05,9.32353e-06,-6.88122e-06,6.46883e-06,-1.46702e-06,0
-4.60008e-05,9.74298e-06,-6.79284e-06,-2.66403e-05,8.32796e-06,-4.43198e-06,6.95545e-06,4.65776e-07,0
-4.45561e-05,1.6743e-05,-6.52317e-06,-2.36982e-05,9.09942e-06,-5.1047e-06,8.16251e-06,1.56763e-06,0
-4.48328e-05,1.84675e-05,-6.66538e-06,-2.01649e-05,1.11014e-05,-7.00186e-06,7.22562e-06,5.66884e-07,0
-4.51856e-05,1.68517e-05,-8.50987e-06,-1.78768e-05,1.3387e-05,-8.3765e-06,6.40781e-06,-6.54567e-07,0
-4.4528e-05,1.65913e-05,-1.1755e-05,-1.74333e-05,1.43348e-05,-9.39468e-06,6.42227e-06,-1.20299e-06,0
-4.48348e-05,1.88143e-05,-1.5704e-05,-1.83078e-05,1.38077e-05,-9.32122e-06,7.51877e-06,-7.00306e-07,0
-4.45038e-05,2.04268e-05,-1.6875e-05,-2.00256e-05,1.13016e-05,-8.43907e-06,9.39e-06,-6.9134e-07,0
-4.23238e-05,1.95664e-05,-1.4378e-05,-1.92184e-05,8.99605e-06,-6.91435e-06,9.03003e-06,-1.35616e-06,0
-3.92364e-05,1.69784e-05,-1.14738e-05,-1.64497e-05,8.9312e-06,-7.12588e-06,7.31214e-06,-1.50636e-06,0
-3.71597e-05,1.45399e-05,-1.06335e-05,-1.40567e-05,1.23799e-05,-7.2345e-06,7.23473e-06,-8.9565e-07,0
-3.80318e-05,1.05685e-05,-1.1192e-05,-1.28005e-05,1.72217e-05,-6.18441e-06,8.80464e-06,-8.71726e-08,0
-4.06176e-05,4.60607e-06,-1.12373e-05,-1.37691e-05,1.87638e-05,-6.02801e-06,1.05832e-05,-1.975e-07,0
-4.31104e-05,1.43763e-06,-1.06722e-05,-1.59861e-05,1.55062e-05,-7.71288e-06,1.22023e-05,-1.40071e-06,0
-4.46151e-05,3.00542e-06,-9.93681e-06,-1.65154e-05,1.03514e-05,-1.02611e-05,1.30301e-05,-2.241e-06,0
-4.51413e-05,5.41062e-06,-8.95361e-06,-1.38474e-05,6.78091e-06,-1.29745e-05,1.29198e-05,-1.61899e-06,0
-4.27727e-05,5.65356e-06,-7.07345e-06,-1.03712e-05,4.99966e-06,-1.71344e-05,1.30443e-05,8.53921e-08,0
-3.63829e-05,6.14944e-06,-5.79011e-06,-6.08906e-06,5.36141e-06,-2.0054e-05,1.28274e-05,1.22019e-06,0
-2.60787e-05,8.09717e-06,-5.73085e-06,8.09649e-07,7.671e-06,-1.80117e-05,1.12067e-05,1.60764e-06,0
-1.58566e-05,8.87736e-06,-6.55504e-06,7.51292e-06,9.13913e-06,-1.11569e-05,8.66449e-06,2.85107e-06,0
-1.05362e-05,9.26093e-06,-7.40494e-06,8.66577e-06,6.77882e-06,-3.75678e-06,7.51585e-06,4.58283e-06,0
-1.12297e-05,1.03452e-05,-5.69257e-06,4.82967e-06,1.94609e-06,5.36309e-09,7.69603e-06,4.55127e-06,0
-1.39868e-05,1.0455e-05,-2.57687e-06,-2.48606e-07,1.73197e-06,-5.68554e-07,7.14863e-06,2.59061e-06,0
-1.65802e-05,1.00867e-05,-6.82434e-07,-7.6904e-06,1.41874e-05,-1.52608e-06,5.85281e-06,1.86903e-06,0
-2.04462e-05,8.26624e-06,1.08749e-06,-1.70735e-05,3.21728e-05,-9.91642e-07,5.33614e-06,2.50273e-06,0
-2.59405e-05,6.54773e-06,2.5005e-06,-2.18004e-05,4.10767e-05,-7.71773e-07,6.05952e-06,2.92223e-06,0
-3.1004e-05,7.29068e-06,2.67892e-06,-2.18323e-05,3.71579e-05,-1.63143e-06,6.77534e-06,3.98933e-06,0
-3.29256e-05,1.21297e-05,2.41937e-06,-1.98796e-05,3.1402e-05,-3.50124e-06,7.90048e-06,6.00226e-06,0
-3.30134e-05,1.67282e-05,1.89807e-06,-1.90375e-05,3.29432e-05,-6.50867e-06,1.11091e-05,8.61666e-06,0
