ch1,ch2,ch3,ch4,ch5,ch6,ch7,ch8,class
-3.22689e-05,1.75907e-05,-1.87456e-05,-2.32435e-05,8.69716e-06,-1.15076e-05,1.34858e-05,1.9235e-06,0
-3.22434e-05,1.65382e-05,-2.16247e-05,-1.17088e-06,8.06359e-06,-1.44216e-05,1.51982e-05,1.83047e-06,0
-3.12288e-05,1.50244e-05,-1.9379e-05,2.07343e-05,8.76925e-06,-1.5679e-05,1.34616e-05,1.46896e-06,0
-3.02526e-05,1.37142e-05,-1.43146e-05,3.7038e-05,9.75034e-06,-1.59481e-05,4.71281e-06,1.38108e-06,0
-2.89568e-05,1.37674e-05,-1.15369e-05,4.71736e-05,9.60226e-06,-1.61101e-05,-8.95618e-06,1.89509e-07,0
-2.79746e-05,1.40117e-05,-1.20715e-05,5.1093e-05,9.99762e-06,-1.52456e-05,-1.84465e-05,-5.27995e-07,0
-2.81328e-05,1.36618e-05,-1.34159e-05,4.74265e-05,1.10474e-05,-1.41205e-05,-1.73905e-05,5.70071e-07,0
-2.93453e-05,1.29576e-05,-1.34267e-05,3.72697e-05,1.09749e-05,-1.4402e-05,-8.14543e-06,9.78899e-07,0
-2.95559e-05,1.37709e-05,-1.29808e-05,2.49342e-05,9.54913e-06,-1.48515e-05,5.97828e-06,-1.38544e-07,0
-2.86947e-05,1.59388e-05,-1.3959e-05,1.42668e-05,7.88059e-06,-1.30321e-05,2.29696e-05,-1.62519e-06,0
-2.83595e-05,1.88228e-05,-1.63851e-05,8.02796e-06,7.15206e-06,-1.11146e-05,3.88977e-05,-2.7579e-06,0
-2.82715e-05,1.9711e-05,-1.84308e-05,5.37483e-06,7.78406e-06,-1.14941e-05,5.00369e-05,-2.51489e-06,0
-2.76213e-05,1.80521e-05,-2.01441e-05,1.56572e-06,7.448e-06,-1.23582e-05,5.53173e-05,-1.84483e-06,0
-2.73878e-05,1.57606e-05,-2.20518e-05,-3.92589e-06,4.07679e-06,-1.28719e-05,5.38958e-05,-1.31354e-06,0
-2.86759e-05,1.41466e-05,-2.29865e-05,-6.2098e-06,1.29861e-06,-1.4155e-05,4.92415e-05,1.60739e-06,0
-2.94372e-05,1.21253e-05,-2.24559e-05,-4.29331e-06,3.69519e-06,-1.43618e-05,4.31711e-05,6.0594e-06,0
-2.9324e-05,1.20049e-05,-2.11655e-05,1.74526e-06,7.76202e-06,-1.28721e-05,3.72844e-05,6.24544e-06,0
-3.09295e-05,1.26985e-05,-1.84767e-05,6.7947e-06,1.07258e-05,-1.09071e-05,3.2836e-05,3.82303e-06,0
-3.37969e-05,1.19876e-05,-1.49261e-05,5.41744e-06,1.41178e-05,-1.02073e-05,2.87237e-05,3.81935e-06,0
-3.43362e-05,1.24014e-05,-1.09766e-05,2.18872e-06,1.86833e-05,-9.83766e-06,2.16985e-05,5.6549e-06,0
-3.20222e-05,1.26393e-05,-9.07284e-06,1.65146e-06,2.04992e-05,-8.33434e-06,1.22825e-05,6.55983e-06,0
-2.86483e-05,1.12753e-05,-1.11403e-05,1.94285e-06,1.7974e-05,-7.62541e-06,6.5648e-06,5.51964e-06,0
-2.68728e-05,9.84468e-06,-1.25723e-05,1.36448e-06,1.70675e-05,-8.378e-06,5.30792e-06,2.84979e-06,0
-2.8982e-05,1.11412e-05,-1.25526e-05,3.27529e-07,1.90165e-05,-9.06406e-06,5.44188e-06,6.6863e-07,0
-3.17555e-05,1.3907e-05,-1.00351e-05,-1.33421e-06,2.17573e-05,-8.56101e-06,4.66111e-06,-1.41856e-07,0
-3.20454e-05,1.4186e-05,-5.33355e-06,-1.83951e-06,2.35686e-05,-7.62633e-06,3.79177e-06,-1.96082e-06,0
-3.05494e-05,1.08446e-05,-1.21667e-06,-3.5318e-06,2.36579e-05,-5.96641e-06,2.82001e-06,-4.47983e-06,0
-2.94744e-05,6.71239e-06,8.47308e-07,-8.78549e-06,2.31882e-05,-3.79824e-06,2.15574e-06,-6.29943e-06,0
-2.95724e-05,4.70421e-06,1.13648e-06,-1.47427e-05,2.28449e-05,-2.73647e-06,1.81581e-06,-6.4641e-06,0
-2.98862e-05,5.28637e-06,1.34349e-06,-1.87546e-05,2.254e-05,-3.20315e-06,2.59487e-06,-5.9173e-06,0
-2.8775e-05,5.81501e-06,1.58929e-06,-2.00258e-05,2.17749e-05,-4.01559e-06,3.50755e-06,-4.5147e-06,0
-2.64186e-05,4.31898e-06,1.31547e-06,-2.0032e-05,2.04821e-05,-5.47804e-06,5.2007e-06,-3.44291e-06,0
-2.57197e-05,2.39053e-06,-2.78265e-07,-2.23682e-05,1.92427e-05,-7.44077e-06,1.17563e-05,-4.67095e-06,0
-2.75104e-05,2.43474e-06,-2.13831e-06,-2.67594e-05,1.82802e-05,-8.62564e-06,2.23766e-05,-6.52438e-06,0
-2.86476e-05,3.00064e-06,-4.89975e-06,-2.70775e-05,1.8085e-05,-8.10666e-06,3.13164e-05,-5.955e-06,0
-2.73504e-05,1.8022e-06,-8.43576e-06,-2.27527e-05,1.89566e-05,-7.76824e-06,3.39497e-05,-3.3151e-06,0
-2.69818e-05,4.18221e-07,-1.03626e-05,-1.80023e-05,2.01679e-05,-1.04402e-05,3.00076e-05,-1.80823e-06,0
-2.83847e-05,7.94578e-07,-9.84075e-06,-1.34452e-05,2.02461e-05,-1.41358e-05,2.11931e-05,-1.22511e-06,0
-2.87024e-05,2.85808e-06,-7.42687e-06,-9.2186e-06,1.9131e-05,-1.49756e-05,9.99044e-06,-6.23849e-07,0
-2.78269e-05,4.76835e-06,-4.86942e-06,-5.70749e-06,1.86196e-05,-1.21383e-05,-1.07245e-06,-5.19928e-07,0
-2.85877e-05,4.69519e-06,-2.75429e-06,-2.63647e-06,1.81921e-05,-1.02375e-05,-1.13685e-05,-3.58701e-07,0
-2.98392e-05,3.21114e-06,-1.14329e-06,-6.33278e-07,1.62899e-05,-1.09817e-05,-1.93616e-05,-4.63142e-07,0
-2.97706e-05,3.28096e-06,-2.82926e-06,-5.35208e-07,1.55366e-05,-1.12951e-05,-2.23588e-05,-1.51722e-06,0
-2.87402e-05,1.02959e-05,-4.67243e-06,-1.56914e-06,1.71472e-05,-1.1468e-05,-2.1541e-05,-2.82896e-06,0
-2.89169e-05,2.25315e-05,-3.64854e-06,-2.23813e-06,1.77371e-05,-1.21671e-05,-1.72215e-05,-3.91391e-06,0
-3.02376e-05,3.08127e-05,-3.59151e-06,-2.9959e-06,1.6939e-05,-1.36098e-05,-1.05283e-05,-3.17418e-06,0
-2.99046e-05,3.3417e-05,-4.01253e-06,-2.2065e-06,1.64981e-05,-1.41714e-05,-2.69842e-06,-2.51102e-06,0
-2.96477e-05,3.19682e-05,-2.74766e-06,6.398e-07,1.89271e-05,-1.27671e-05,4.32935e-06,-1.2187e-06,0
-3.05044e-05,2.52827e-05,-2.18859e-06,5.65456e-07,2.14873e-05,-1.17735e-05,1.01759e-05,-1.01207e-07,0
-3.12335e-05,1.55871e-05,-2.62884e-06,-5.04255e-06,2.11314e-05,-1.14553e-05,1.57789e-05,1.26605e-07,0
-3.11926e-05,8.17065e-06,-3.62154e-06,-1.36799e-05,1.86831e-05,-1.16303e-05,2.073e-05,1.57978e-06,0
-3.14914e-05,2.06218e-06,-4.72861e-06,-1.94199e-05,1.44122e-05,-1.15531e-05,2.4978e-05,3.64674e-06,0
-3.25389e-05,-5.50505e-06,-4.48276e-06,-8.7103e-06,9.60064e-06,-1.03887e-05,2.73318e-05,5.38054e-06,0
-3.37888e-05,-1.14845e-05,-4.20054e-06,2.02147e-05,5.76508e-06,-7.55562e-06,2.60038e-05,6.16126e-06,0
-3.41455e-05,-1.48925e-05,-4.73319e-06,4.30117e-05,4.92063e-06,-5.10434e-06,2.23521e-05,6.74017e-06,0
-3.28444e-05,-1.58098e-05,-5.64306e-06,4.09529e-05,6.22475e-06,-4.92358e-06,1.91041e-05,7.12973e-06,0
-3.23821e-05,-1.29858e-05,-6.70857e-06,2.06609e-05,7.48177e-06,-6.74853e-06,1.60059e-05,8.49565e-06,0
-3.41084e-05,-7.63893e-06,-7.24336e-06,-1.26714e-06,7.81029e-06,-8.58157e-06,1.39676e-05,1.08005e-05,0
-3.61821e-05,-8.96432e-07,-6.30295e-06,-1.7058e-05,7.7424e-06,-9.80431e-06,1.4136e-05,1.27725e-05,0
-3.58703e-05,5.99262e-06,-5.25866e-06,-2.5424e-05,8.00744e-06,-1.19891e-05,1.71385e-05,1.23502e-05,0
-3.30106e-05,1.01893e-05,-4.91123e-06,-2.69967e-05,8.95247e-06,-1.41956e-05,2.09177e-05,9.60279e-06,0
-2.92081e-05,1.06667e-05,-5.4701e-06,-2.48858e-05,9.86359e-06,-1.43119e-05,2.30443e-05,6.32287e-06,0
-2.6762e-05,1.14907e-05,-7.01429e-06,-2.12044e-05,1.06581e-05,-1.29028e-05,2.26875e-05,2.08954e-06,0
-2.70238e-05,1.59025e-05,-7.96989e-06,-1.53301e-05,1.23425e-05,-1.28877e-05,2.04731e-05,-3.63094e-06,0
-2.87488e-05,2.11777e-05,-6.56301e-06,-9.01003e-06,1.58705e-05,-1.43858e-05,1.66251e-05,-6.90885e-06,0
-2.92694e-05,2.46212e-05,-3.73168e-06,-1.01485e-05,1.95631e-05,-1.62224e-05,1.32066e-05,-5.47119e-06,0
-2.7785e-05,2.80224e-05,-2.05588e-06,-2.10683e-05,2.06315e-05,-1.64709e-05,1.30197e-05,-1.69543e-06,0
-2.71119e-05,3.16707e-05,-3.60204e-06,-3.46203e-05,1.86207e-05,-1.47305e-05,1.48505e-05,1.90514e-06,0
-2.85916e-05,3.10329e-05,-7.04613e-06,-4.33531e-05,1.38721e-05,-1.24167e-05,1.70955e-05,4.33406e-06,0
-3.10063e-05,2.68824e-05,-9.16021e-06,-4.22696e-05,9.7612e-06,-1.116e-05,1.78548e-05,5.24203e-06,0
-3.24475e-05,2.55646e-05,-9.16199e-06,-3.29116e-05,8.4852e-06,-9.83141e-06,1.73479e-05,4.64381e-06,0
-3.24785e-05,2.80847e-05,-8.35521e-06,-2.20495e-05,7.85817e-06,-8.90063e-06,1.80169e-05,2.69682e-06,0
-3.12489e-05,3.07974e-05,-8.18369e-06,-1.28705e-05,7.41373e-06,-9.55045e-06,1.92962e-05,7.24818e-07,0
-2.94747e-05,3.11717e-05,-8.48696e-06,-4.92389e-06,7.51823e-06,-9.20772e-06,1.87848e-05,5.07551e-07,0
-2.89582e-05,2.8973e-05,-8.79636e-06,1.05564e-06,7.55456e-06,-7.43587e-06,1.53454e-05,2.28459e-06,0
-3.02684e-05,2.35791e-05,-9.1238e-06,2.44562e-06,6.91649e-06,-6.37561e-06,1.01194e-05,5.54532e-06,0
-3.23931e-05,1.77315e-05,-9.75425e-06,1.86298e-06,6.6711e-06,-7.94928e-06,7.71102e-06,7.42997e-06,0
-3.38828e-05,1.68475e-05,-1.00106e-05,3.63004e-06,8.31047e-06,-9.99207e-06,8.98779e-06,7.52301e-06,0
-3.35999e-05,2.12158e-05,-8.59482e-06,9.27475e-06,9.19339e-06,-1.08105e-05,1.25009e-05,4.62487e-06,0
-3.18181e-05,2.74106e-05,-6.45494e-06,1.78444e-05,8.41407e-06,-1.1568e-05,1.72373e-05,9.05966e-07,0
-3.08558e-05,3.1404e-05,-5.21851e-06,2.68874e-05,8.46285e-06,-1.18023e-05,2.1753e-05,1.08946e-06,0
-3.10702e-05,3.17755e-05,-4.62591e-06,3.1655e-05,1.02879e-05,-1.08685e-05,2.58871e-05,3.27094e-06,0
-3.01212e-05,3.03516e-05,-3.38464e-06,2.8034e-05,1.16724e-05,-9.00004e-06,2.80451e-05,2.9316e-06,0
-2.83079e-05,2.88611e-05,-1.242e-06,1.94768e-05,1.06698e-05,-8.22768e-06,2.78564e-05,4.76833e-07,0
-2.7982e-05,2.80512e-05,2.67027e-08,1.33028e-05,9.70529e-06,-8.23364e-06,2.61966e-05,-7.69066e-07,0
-2.94048e-05,2.75688e-05,-8.89037e-08,1.05174e-05,1.088e-05,-8.20654e-06,2.42924e-05,-1.18186e-06,0
-3.07874e-05,2.59582e-05,-1.15298e-06,4.23952e-06,1.20198e-05,-7.84412e-06,2.23356e-05,-1.73235e-06,0
-3.22286e-05,2.31923e-05,-2.81387e-06,-7.13575e-06,1.19408e-05,-6.5721e-06,1.87071e-05,-2.46011e-06,0
-3.3776e-05,1.93137e-05,-4.80702e-06,-1.71827e-05,1.12494e-05,-5.31816e-06,1.44449e-05,-2.83812e-06,0
-3.33273e-05,1.33501e-05,-6.60373e-06,-2.1085e-05,8.52468e-06,-4.37277e-06,1.2865e-05,-2.61737e-06,0
-3.12496e-05,7.21014e-06,-7.27615e-06,-1.93463e-05,4.61298e-06,-4.12197e-06,1.27311e-05,-1.48232e-06,0
-2.97099e-05,4.398e-06,-6.7057e-06,-1.6251e-05,3.21139e-06,-3.87831e-06,1.16399e-05,-7.41762e-08,0
-2.96577e-05,4.4976e-06,-6.31675e-06,-1.50529e-05,5.23305e-06,-3.9062e-06,1.13618e-05,1.05892e-07,0
-3.15085e-05,5.56261e-06,-6.99393e-06,-1.30656e-05,7.95676e-06,-5.38146e-06,1.2563e-05,-8.70189e-07,0
-3.2911e-05,5.92676e-06,-7.76325e-06,-8.53671e-06,1.00368e-05,-6.51873e-06,1.38009e-05,-2.01655e-06,0
-3.18503e-05,5.09084e-06,-8.43559e-06,-4.69881e-06,1.2777e-05,-5.3769e-06,1.3292e-05,-1.71808e-06,0
-3.07964e-05,2.93725e-06,-8.65661e-06,-4.93676e-06,1.60831e-05,-4.51614e-06,1.25228e-05,9.76112e-07,0
-3.07881e-05,-1.36773e-06,-8.75177e-06,-7.26461e-06,1.73989e-05,-5.59711e-06,1.26382e-05,2.5624e-06,0
-3.09497e-05,-5.28522e-06,-9.49864e-06,-8.96189e-06,1.41389e-05,-7.31301e-06,1.30593e-05,9.20934e-07,0
-3.03526e-05,-8.249e-06,-9.8247e-06,-9.32941e-06,1.07784e-05,-7.86954e-06,1.38529e-05,-1.62835e-06,0
-2.99343e-05,-9.32139e-06,-1.01541e-05,-7.52158e-06,1.05374e-05,-8.09809e-06,1.26469e-05,-3.73006e-06,0
-2.95527e-05,-8.3304e-06,-1.00429e-05,-4.48686e-06,1.11367e-05,-8.72457e-06,1.00063e-05,-3.83088e-06,0
-2.83595e-05,-7.94495e-06,-1.01644e-05,-2.08804e-06,1.2226e-05,-9.33428e-06,7.64658e-06,-1.91566e-06,0
-2.85103e-05,-7.2739e-06,-1.02931e-05,-2.74619e-07,1.26235e-05,-1.0419e-05,5.56514e-06,-9.92382e-07,0
-3.00181e-05,-4.70895e-06,-8.82202e-06,1.95862e-06,1.27526e-05,-1.20165e-05,4.44096e-06,-8.69635e-07,0
-3.02683e-05,-1.32025e-06,-6.66698e-06,2.33895e-06,1.44218e-05,-1.33592e-05,4.55756e-06,-1.06725e-06,0
-2.98515e-05,9.6027e-07,-4.9452e-06,4.06565e-07,1.75716e-05,-1.36696e-05,5.75797e-06,-1.67313e-06,0
-2.98061e-05,2.76993e-06,-5.29594e-06,-1.82925e-06,2.04765e-05,-1.26278e-05,7.37262e-06,-1.05952e-06,0
-2.99357e-05,5.28863e-06,-7.62923e-06,-3.5487e-06,2.1803e-05,-1.12483e-05,8.7666e-06,-2.97226e-07,0
-2.97109e-05,8.63086e-06,-1.04945e-05,-4.14305e-06,2.17076e-05,-1.14283e-05,8.61115e-06,-3.41717e-07,0
-2.9129e-05,1.107e-05,-1.22499e-05,-3.4798e-06,2.13218e-05,-1.21856e-05,6.66397e-06,-5.04289e-07,0
-2.954e-05,1.15414e-05,-1.27728e-05,-2.86548e-06,2.10701e-05,-1.1891e-05,5.47502e-06,6.3573e-07,0
-3.04264e-05,1.12959e-05,-1.12443e-05,-3.12244e-06,2.02278e-05,-9.95152e-06,6.55078e-06,2.03384e-06,0
-3.0351e-05,1.28832e-05,-8.72103e-06,-4.61982e-06,1.85873e-05,-7.59622e-06,7.7846e-06,1.84995e-06,0
-2.92868e-05,1.6036e-05,-7.92307e-06,-7.48782e-06,1.67678e-05,-6.3562e-06,7.34864e-06,-4.72278e-07,0
-2.8948e-05,1.84403e-05,-9.02967e-06,-9.29534e-06,1.70313e-05,-6.00989e-06,7.16136e-06,-3.45814e-06,0
-2.91789e-05,2.03417e-05,-9.87384e-06,-7.28524e-06,1.98905e-05,-6.28116e-06,8.71033e-06,-4.9e-06,0
-2.9197e-05,2.30358e-05,-9.65232e-06,-2.34655e-06,2.12558e-05,-6.9915e-06,1.14703e-05,-5.32695e-06,0
-2.89134e-05,2.58824e-05,-9.23387e-06,2.02689e-06,1.73718e-05,-7.33946e-06,1.51782e-05,-5.56688e-06,0
-2.82389e-05,2.6075e-05,-9.09449e-06,4.1071e-06,1.00919e-05,-6.67695e-06,1.75226e-05,-4.23397e-06,0
-2.77753e-05,2.31339e-05,-1.0412e-05,7.15541e-06,5.27235e-06,-6.12259e-06,1.73233e-05,-1.28197e-06,0
-2.85784e-05,1.90636e-05,-1.13029e-05,1.15157e-05,5.67517e-06,-6.20373e-06,1.67415e-05,8.28411e-08,0
-2.91027e-05,1.53132e-05,-1.09073e-05,1.28363e-05,8.86062e-06,-5.18059e-06,1.80052e-05,-8.0586e-07,0
-2.78912e-05,1.29962e-05,-1.09067e-05,9.27409e-06,1.22647e-05,-4.22801e-06,1.90756e-05,-1.30499e-06,0
-2.59598e-05,1.23377e-05,-1.02605e-05,2.72663e-06,1.37713e-05,-4.17655e-06,1.70406e-05,-2.10931e-08,0
-2.45155e-05,1.24649e-05,-8.80613e-06,-2.79972e-06,1.33375e-05,-4.20603e-06,1.34493e-05,1.66689e-06,0
-2.42949e-05,1.16882e-05,-9.08393e-06,-6.30837e-06,1.22599e-05,-2.97945e-06,1.00543e-05,2.27536e-06,0
-2.57679e-05,8.94863e-06,-9.90496e-06,-8.39722e-06,1.14438e-05,-1.27909e-06,8.30689e-06,1.2806e-06,0
-2.83095e-05,5.18233e-06,-1.08377e-05,-8.88371e-06,1.0901e-05,-3.43054e-07,7.71978e-06,6.09644e-08,0
-2.977e-05,2.11718e-06,-1.30785e-05,-7.68626e-06,1.0898e-05,-8.64864e-07,7.29764e-06,-5.07465e-07,0
-2.87297e-05,2.1349e-06,-1.58337e-05,-7.56855e-06,1.23808e-05,-2.70698e-06,7.93613e-06,-1.68699e-07,0
-2.80156e-05,3.34711e-06,-1.87251e-05,-9.23127e-06,1.31338e-05,-3.53696e-06,8.93741e-06,7.84762e-07,0
-2.95891e-05,4.23433e-06,-2.09241e-05,-1.18314e-05,1.2616e-05,-4.55506e-06,9.40698e-06,2.29968e-06,0
-3.08756e-05,5.67845e-06,-2.32599e-05,-1.47389e-05,1.197e-05,-5.64389e-06,8.29262e-06,3.48749e-06,0
-3.20722e-05,8.35634e-06,-2.4358e-05,-1.67389e-05,1.32212e-05,-6.22795e-06,5.60074e-06,3.68303e-06,0
-3.32568e-05,1.14726e-05,-2.23366e-05,-1.87252e-05,1.50955e-05,-5.29385e-06,4.36345e-06,3.31333e-06,0
-3.32662e-05,1.59635e-05,-1.80226e-05,-1.95175e-05,1.60708e-05,-3.34176e-06,4.52294e-06,2.78794e-06,0
-3.15011e-05,2.33468e-05,-1.41063e-05,-1.75604e-05,1.84496e-05,-2.34749e-06,3.94402e-06,2.81007e-06,0
-2.989e-05,3.12593e-05,-1.16545e-05,-1.47219e-05,2.18905e-05,-2.65647e-06,3.36194e-06,3.20379e-06,0
-2.98779e-05,3.94105e-05,-1.02416e-05,-1.3835e-05,2.27769e-05,-2.43253e-06,5.40976e-06,3.28222e-06,0
-3.02375e-05,4.92154e-05,-1.00345e-05,-1.6093e-05,1.93842e-05,-1.03909e-06,9.80931e-06,3.40914e-06,0
-2.92678e-05,5.88229e-05,-9.82294e-06,-2.20898e-05,1.55635e-05,-8.5962e-07,1.30412e-05,4.70748e-06,0
-2.75115e-05,6.12167e-05,-8.92098e-06,-2.75635e-05,1.38642e-05,-1.87005e-06,1.42405e-05,6.13874e-06,0
-2.65533e-05,5.03902e-05,-8.03057e-06,-2.71222e-05,1.41097e-05,-2.31903e-06,1.5883e-05,6.93905e-06,0
-2.62586e-05,2.83782e-05,-7.00406e-06,-2.21675e-05,1.65794e-05,-1.98192e-06,1.78805e-05,6.11969e-06,0
-2.78068e-05,3.58938e-06,-5.90083e-06,-1.96833e-05,2.02915e-05,-2.02039e-06,1.82356e-05,4.74396e-06,0
-2.92447e-05,-1.69124e-05,-6.98739e-06,-2.32783e-05,1.91342e-05,-3.03328e-06,1.63825e-05,4.16238e-06,0
-2.94081e-05,-3.12841e-05,-7.86496e-06,-2.46214e-05,1.20188e-05,-5.53262e-06,1.44431e-05,5.23246e-06,0
-3.1546e-05,-4.00866e-05,-7.49066e-06,-1.50247e-05,5.54627e-06,-8.03702e-06,1.46587e-05,5.66038e-06,0
-3.45522e-05,-4.01685e-05,-8.04864e-06,1.90884e-07,3.73249e-06,-8.52549e-06,1.57557e-05,3.66161e-06,0
-3.58554e-05,-3.32818e-05,-1.13681e-05,1.88698e-05,6.69516e-06,-8.97087e-06,1.63652e-05,1.76532e-06,0
-3.63685e-05,-2.43173e-05,-1.40735e-05,3.77585e-05,1.06645e-05,-9.56798e-06,1.31958e-05,-2.64413e-07,0
-3.55617e-05,-1.44219e-05,-1.27766e-05,4.51786e-05,1.2665e-05,-8.381e-06,3.96063e-06,-1.3915e-06,0
-3.36274e-05,-7.50914e-06,-1.0799e-05,4.13486e-05,1.56683e-05,-8.90362e-06,-5.38873e-06,-6.73919e-07,0
-3.23209e-05,-6.1897e-06,-9.96299e-06,3.07948e-05,2.15147e-05,-1.21873e-05,-8.30397e-06,1.46964e-07,0
-3.35823e-05,-6.28635e-06,-1.0373e-05,1.58251e-05,2.47551e-05,-1.4971e-05,-5.1678e-06,-1.32574e-06,0
-3.55951e-05,-4.12122e-06,-9.97649e-06,-3.45519e-06,2.25432e-05,-1.57529e-05,2.17304e-06,-1.85839e-06,0
-3.3731e-05,-1.14251e-07,-8.65112e-06,-2.13454e-05,1.85062e-05,-1.57749e-05,1.07736e-05,-9.3218e-07,0
-3.00072e-05,2.72238e-06,-8.41609e-06,-3.29996e-05,1.46144e-05,-1.5673e-05,1.8142e-05,-1.22654e-06,0
-2.83943e-05,3.22909e-06,-1.02194e-05,-4.17439e-05,1.26311e-05,-1.64367e-05,2.30354e-05,-1.47119e-06,0
-2.91679e-05,4.59498e-06,-1.23655e-05,-4.91238e-05,1.37649e-05,-1.74236e-05,2.57555e-05,-2.16293e-06,0
-3.01419e-05,8.50434e-06,-1.19158e-05,-5.2964e-05,1.57673e-05,-1.80119e-05,2.59698e-05,-2.98423e-06,0
-3.01384e-05,1.31123e-05,-9.23908e-06,-4.94925e-05,1.71583e-05,-1.87872e-05,2.52271e-05,-3.70168e-06,0
-3.03174e-05,1.6798e-05,-6.79579e-06,-3.72683e-05,1.79244e-05,-1.95476e-05,2.55767e-05,-3.98747e-06,0
-3.13166e-05,2.02698e-05,-6.87017e-06,-1.39685e-05,1.79366e-05,-1.92166e-05,2.55656e-05,-3.27728e-06,0
-3.21785e-05,2.28604e-05,-8.33801e-06,1.77737e-05,1.67791e-05,-1.7491e-05,2.42384e-05,-1.42323e-06,0
-3.23821e-05,2.42217e-05,-9.09602e-06,4.92503e-05,1.41337e-05,-1.66568e-05,2.22297e-05,-9.39301e-07,0
-3.28123e-05,2.44422e-05,-8.73533e-06,7.21215e-05,1.1086e-05,-1.66821e-05,2.16784e-05,-2.09794e-06,0
-3.38707e-05,2.39298e-05,-7.86303e-06,7.98104e-05,9.51003e-06,-1.71462e-05,2.21199e-05,-3.32875e-06,0
-3.43093e-05,2.40937e-05,-6.49713e-06,6.94823e-05,9.30886e-06,-1.78068e-05,2.14591e-05,-4.63027e-06,0
-3.30662e-05,2.58763e-05,-4.81517e-06,5.11881e-05,9.50674e-06,-1.85934e-05,1.88372e-05,-4.58224e-06,0
-3.13626e-05,2.64932e-05,-4.43542e-06,3.65018e-05,9.1627e-06,-1.845e-05,1.64065e-05,-3.3672e-06,0
-3.05146e-05,2.65414e-05,-5.51637e-06,2.54003e-05,7.80084e-06,-1.73334e-05,1.4713e-05,-3.61349e-06,0
-3.02447e-05,2.82491e-05,-6.45726e-06,1.42056e-05,6.39132e-06,-1.57254e-05,1.13096e-05,-4.94523e-06,0
-2.91565e-05,2.84815e-05,-6.79871e-06,1.17726e-06,5.98933e-06,-1.34489e-05,5.60539e-06,-4.9589e-06,0
-2.85764e-05,2.57678e-05,-6.92748e-06,-1.07055e-05,6.99003e-06,-1.22711e-05,1.28041e-06,-4.8215e-06,0
-2.99903e-05,2.48563e-05,-6.54957e-06,-1.74948e-05,8.8842e-06,-1.35729e-05,-1.28731e-06,-3.26643e-06,0
-3.09381e-05,2.74797e-05,-6.54001e-06,-1.87189e-05,9.07402e-06,-1.46067e-05,-2.92848e-06,4.78607e-07,0
-2.9133e-05,3.09033e-05,-6.94931e-06,-1.98758e-05,9.01648e-06,-1.38056e-05,-2.95776e-06,1.92743e-06,0
-2.66625e-05,3.28162e-05,-6.34864e-06,-2.41386e-05,1.09078e-05,-1.27103e-05,-7.58945e-07,1.61393e-06,0
-2.61526e-05,3.05246e-05,-6.11945e-06,-2.98629e-05,1.08883e-05,-1.24362e-05,3.0329e-06,1.62287e-06,0
-2.77416e-05,2.69788e-05,-7.58753e-06,-3.36063e-05,1.07445e-05,-1.27826e-05,6.63962e-06,5.07577e-07,0
-3.09983e-05,2.49304e-05,-9.03483e-06,-3.33698e-05,1.3051e-05,-1.29579e-05,1.00912e-05,-6.88615e-07,0
-3.41504e-05,2.59737e-05,-9.99515e-06,-3.25754e-05,1.46994e-05,-1.33299e-05,1.40914e-05,-9.41337e-07,0
-3.55695e-05,3.0275e-05,-8.92141e-06,-3.11876e-05,1.46291e-05,-1.3249e-05,1.80658e-05,-1.8854e-07,0
-3.49586e-05,3.55066e-05,-6.77904e-06,-2.736e-05,1.40041e-05,-1.27492e-05,2.01186e-05,7.75336e-07,0
-3.41779e-05,3.94309e-05,-6.0301e-06,-2.21074e-05,1.34183e-05,-1.32561e-05,2.1862e-05,1.65433e-06,0
-3.40994e-05,4.10901e-05,-7.26423e-06,-1.43676e-05,1.16623e-05,-1.29144e-05,2.38286e-05,2.11562e-06,0
-3.38104e-05,3.8351e-05,-9.40422e-06,-3.57353e-06,1.03916e-05,-1.05848e-05,2.37078e-05,2.57659e-06,0
-3.32748e-05,3.12449e-05,-1.07095e-05,4.3736e-06,1.04845e-05,-8.7483e-06,2.20218e-05,4.02936e-06,0
-3.21126e-05,2.22348e-05,-1.09353e-05,6.16736e-06,1.09353e-05,-8.82955e-06,2.13385e-05,5.32706e-06,0
-3.05521e-05,1.42012e-05,-1.10117e-05,6.59506e-06,1.09975e-05,-8.32306e-06,2.19589e-05,6.07979e-06,0
-2.8931e-05,1.07993e-05,-1.01771e-05,1.10853e-05,9.72486e-06,-5.70766e-06,2.22354e-05,7.31954e-06,0
-2.70414e-05,1.20309e-05,-6.41728e-06,2.05293e-05,7.92443e-06,-3.17554e-06,1.75221e-05,8.051e-06,0
-2.58231e-05,1.5826e-05,-1.31723e-06,2.96472e-05,7.79043e-06,-2.56904e-06,6.48024e-06,7.34397e-06,0
-2.57157e-05,1.94082e-05,2.34644e-06,3.14345e-05,1.09316e-05,-3.73325e-06,-4.28297e-06,6.48665e-06,0
-2.55217e-05,2.17095e-05,3.12009e-06,2.29635e-05,1.60216e-05,-4.75021e-06,-3.90984e-06,6.11546e-06,0
-2.48373e-05,2.32855e-05,2.946e-06,7.9418e-06,2.03402e-05,-5.72239e-06,1.26298e-05,4.93851e-06,0
-2.57733e-05,2.47357e-05,2.8329e-06,-7.29146e-06,2.16881e-05,-6.98209e-06,3.61921e-05,4.12978e-06,0
-2.8083e-05,2.35592e-05,1.00697e-06,-1.73106e-05,2.00862e-05,-8.56143e-06,5.43612e-05,6.19607e-06,0
-2.89827e-05,1.98267e-05,-3.32345e-06,-2.04213e-05,1.6456e-05,-9.44182e-06,6.34942e-05,7.63481e-06,0
-2.77795e-05,1.70494e-05,-6.26919e-06,-1.89111e-05,1.26006e-05,-8.67257e-06,6.4415e-05,5.74025e-06,0
-2.60594e-05,1.69198e-05,-4.64534e-06,-1.57061e-05,9.82671e-06,-8.22943e-06,5.84236e-05,3.00182e-06,0
-2.56784e-05,1.77288e-05,-5.69331e-07,-1.25526e-05,9.9528e-06,-9.26241e-06,4.70844e-05,2.13613e-06,0
-2.5688e-05,1.74286e-05,2.61962e-06,-1.25574e-05,1.01939e-05,-1.07415e-05,2.89187e-05,4.40563e-06,0
-2.55389e-05,2.03403e-05,4.88195e-06,-1.67693e-05,7.9643e-06,-1.20973e-05,7.35566e-06,6.68469e-06,0
-2.48703e-05,3.06743e-05,5.63198e-06,-2.32885e-05,7.21806e-06,-1.23318e-05,-9.98466e-06,4.7787e-06,0
-2.42091e-05,3.67659e-05,3.73846e-06,-3.21796e-05,7.01671e-06,-1.09733e-05,-1.8572e-05,1.23453e-06,0
-2.44294e-05,3.20757e-05,6.78335e-07,-3.79968e-05,7.97001e-06,-9.15987e-06,-1.94736e-05,-7.22929e-07,0
-2.48506e-05,2.30713e-05,-3.14203e-06,-3.70655e-05,1.10174e-05,-7.98017e-06,-1.82262e-05,-3.51719e-07,0
-2.52591e-05,1.51405e-05,-8.29706e-06,-3.12818e-05,1.23452e-05,-7.48702e-06,-1.42007e-05,4.21276e-07,0
-2.56438e-05,1.0379e-05,-1.27371e-05,-2.34319e-05,1.17655e-05,-7.67827e-06,-7.15766e-06,5.58002e-07,0
-2.73272e-05,5.52547e-06,-1.39474e-05,-1.87341e-05,1.09068e-05,-8.31595e-06,-2.84202e-07,1.00936e-06,0
-3.01031e-05,-1.03577e-07,-1.22779e-05,-2.01704e-05,9.36991e-06,-8.37609e-06,4.68099e-06,6.13156e-07,0
-3.15981e-05,-6.99905e-06,-8.22821e-06,-2.45634e-05,7.20752e-06,-8.21577e-06,7.45349e-06,-2.87008e-07,0
-3.12163e-05,-1.39229e-05,-3.23321e-06,-2.47051e-05,5.64028e-06,-8.39116e-06,8.0826e-06,2.16364e-07,0
-3.02643e-05,-2.09536e-05,2.25729e-06,-2.03868e-05,3.73252e-06,-9.01887e-06,7.85622e-06,1.88419e-06,0
-2.97774e-05,-2.62172e-05,9.20821e-06,-1.54706e-05,2.89913e-06,-1.05551e-05,6.79179e-06,2.80899e-06,0
-3.05994e-05,-2.75301e-05,1.88452e-05,-1.15008e-05,5.80435e-06,-1.21579e-05,3.48768e-06,2.70205e-06,0
-3.16809e-05,-2.52431e-05,3.15014e-05,-8.21452e-06,9.77159e-06,-1.22868e-05,1.04578e-07,1.10328e-06,0
-3.16466e-05,-2.24043e-05,4.57423e-05,-5.02844e-06,1.15056e-05,-1.18913e-05,-7.99945e-07,-1.68783e-06,0
-3.18834e-05,-2.04261e-05,5.60992e-05,-1.45516e-06,1.15923e-05,-1.21437e-05,1.2847e-06,-3.17484e-06,0
-3.34705e-05,-1.83187e-05,5.4686e-05,2.39264e-06,1.14985e-05,-1.321e-05,3.18074e-06,-1.37258e-06,0
-3.48155e-05,-1.82769e-05,3.692e-05,4.61888e-06,1.05576e-05,-1.48071e-05,4.25957e-06,1.40511e-06,0
-3.46983e-05,-2.0134e-05,4.34347e-06,2.33148e-06,9.94963e-06,-1.37212e-05,5.8949e-06,2.11611e-06,0
-3.4396e-05,-2.00913e-05,-3.44686e-05,-3.79442e-06,1.04036e-05,-1.00889e-05,7.7073e-06,1.97116e-06,0
-3.49826e-05,-1.60603e-05,-6.79699e-05,-7.4011e-06,1.05884e-05,-7.90405e-06,7.48913e-06,2.97733e-06,0
-3.49586e-05,-1.05845e-05,-8.81881e-05,-7.03442e-06,1.14706e-05,-7.72513e-06,6.24275e-06,3.11324e-06,0
-3.34136e-05,-4.37787e-06,-9.12098e-05,-6.08367e-06,1.19042e-05,-7.68594e-06,6.10018e-06,2.45483e-06,0
-3.16489e-05,9.2928e-07,-7.97519e-05,-7.33834e-06,1.0977e-05,-5.98065e-06,6.85065e-06,3.82374e-06,0
-2.89519e-05,3.75833e-06,-6.33077e-05,-8.9168e-06,1.05578e-05,-4.73753e-06,8.1009e-06,4.34476e-06,0
-2.66968e-05,5.03855e-06,-4.95647e-05,-6.14991e-06,1.03143e-05,-3.85663e-06,7.22893e-06,2.16356e-06,0
-2.6412e-05,4.6748e-06,-4.13333e-05,-1.23056e-06,1.09687e-05,-3.81762e-06,5.29177e-06,9.33343e-07,0
-2.68286e-05,2.88625e-06,-3.32055e-05,3.02032e-06,1.43395e-05,-5.58099e-06,6.07097e-06,2.73836e-06,0
-2.76105e-05,1.05844e-06,-2.42729e-05,5.90175e-06,1.7265e-05,-6.70245e-06,5.57442e-06,4.12387e-06,0
-2.90945e-05,-7.39684e-07,-1.70758e-05,6.90662e-06,1.69393e-05,-8.08245e-06,2.3023e-06,4.84205e-06,0
-3.12352e-05,-1.79397e-06,-1.04044e-05,7.97965e-06,1.6617e-05,-8.47245e-06,1.94783e-06,5.67875e-06,0
-3.14397e-05,-2.05178e-06,-6.09321e-06,7.5025e-06,1.72057e-05,-6.39234e-06,8.14923e-06,3.19629e-06,0
-3.0031e-05,4.55633e-07,-4.73954e-06,4.00025e-06,1.60333e-05,-4.62732e-06,1.72461e-05,1.90799e-07,0
-2.89431e-05,5.206e-06,-5.53528e-06,-1.48435e-06,1.48895e-05,-4.77512e-06,2.21858e-05,5.00309e-07,0
-2.88777e-05,8.86659e-06,-6.77657e-06,-6.47e-06,1.66453e-05,-5.06498e-06,2.43664e-05,2.68373e-06,0
-2.82042e-05,9.57882e-06,-8.90119e-06,-1.01571e-05,1.97594e-05,-3.96564e-06,2.46211e-05,4.26437e-06,0
-2.64792e-05,8.77981e-06,-1.13982e-05,-1.48046e-05,1.99477e-05,-2.36415e-06,2.21537e-05,4.01825e-06,0
-2.54164e-05,9.19121e-06,-1.11589e-05,-2.3603e-05,1.71462e-05,-1.96179e-06,2.01647e-05,3.37979e-06,0
-2.50444e-05,1.12318e-05,-6.7688e-06,-3.51924e-05,1.48349e-05,-4.07393e-06,2.28704e-05,2.61846e-06,0
-2.54697e-05,1.3266e-05,-2.08128e-06,-4.36376e-05,1.39912e-05,-6.83201e-06,3.08602e-05,1.6007e-06,0
-2.58684e-05,1.3786e-05,1.21611e-07,-4.47547e-05,1.41586e-05,-8.05708e-06,3.9926e-05,2.02821e-06,0
-2.60443e-05,1.45202e-05,3.24242e-07,-3.49949e-05,1.4042e-05,-8.22175e-06,4.57427e-05,3.93477e-06,0
-2.62985e-05,1.65079e-05,-7.92182e-08,-1.41511e-05,1.39324e-05,-7.71181e-06,4.58171e-05,5.54372e-06,0
-2.74332e-05,1.90387e-05,5.3042e-07,1.2516e-05,1.56092e-05,-7.3316e-06,3.95107e-05,6.5618e-06,0
-2.8455e-05,1.89477e-05,1.2429e-06,3.4995e-05,1.93315e-05,-7.75056e-06,2.82807e-05,6.16034e-06,0
-2.82626e-05,1.58581e-05,5.64551e-07,4.53744e-05,2.20288e-05,-8.47582e-06,1.53123e-05,4.44864e-06,0
-2.86595e-05,1.14945e-05,-1.3746e-06,4.21613e-05,2.08822e-05,-8.44833e-06,1.8303e-06,3.72878e-06,0
-3.01431e-05,8.49095e-06,-2.54961e-06,3.29798e-05,1.89546e-05,-8.62653e-06,-1.13421e-05,3.66057e-06,0
-3.09977e-05,9.88135e-06,-2.32558e-06,2.80016e-05,1.88241e-05,-9.94339e-06,-2.1271e-05,2.72731e-06,0
-3.12357e-05,1.5302e-05,-5.65594e-08,2.80335e-05,1.88545e-05,-9.56491e-06,-2.4789e-05,1.56425e-06,0
-3.10189e-05,2.21755e-05,2.14502e-06,2.63578e-05,1.80405e-05,-8.22351e-06,-2.23617e-05,6.57715e-07,0
-3.04755e-05,2.8552e-05,3.40349e-06,2.21718e-05,1.67091e-05,-8.81559e-06,-1.91573e-05,2.01724e-06,0
-3.00388e-05,3.18987e-05,5.5372e-06,1.94847e-05,1.62627e-05,-8.55667e-06,-1.78566e-05,5.64548e-06,0
-2.95152e-05,3.37615e-05,7.98616e-06,1.534e-05,1.60389e-05,-7.59805e-06,-1.55018e-05,7.65019e-06,0
-2.95463e-05,3.4763e-05,8.9684e-06,8.44616e-06,1.44863e-05,-8.05688e-06,-9.91088e-06,7.99682e-06,0
-2.98053e-05,3.49201e-05,8.71023e-06,-1.71404e-07,1.22277e-05,-7.82079e-06,-5.67797e-06,6.23502e-06,0
-3.01097e-05,3.45927e-05,6.40496e-06,-1.08451e-05,1.13845e-05,-7.6505e-06,-5.08929e-06,4.2302e-06,0
-3.09322e-05,3.34137e-05,2.16344e-06,-2.04046e-05,1.29371e-05,-7.35459e-06,-3.23801e-06,3.84256e-06,0
-3.08274e-05,3.18898e-05,-1.06228e-06,-2.97301e-05,1.47852e-05,-5.6352e-06,2.23139e-06,4.07846e-06,0
-3.00799e-05,3.16731e-05,-1.48724e-06,-4.012e-05,1.55056e-05,-4.70489e-06,7.59998e-06,3.61821e-06,0
-3.0837e-05,3.53132e-05,-1.47743e-06,-4.61048e-05,1.65663e-05,-5.18487e-06,9.95121e-06,2.90361e-06,0
-3.24683e-05,3.76163e-05,-3.40487e-06,-4.08063e-05,1.72876e-05,-6.69933e-06,1.19937e-05,2.00446e-06,0
-3.20131e-05,3.57531e-05,-5.24008e-06,-2.36744e-05,1.76455e-05,-7.38064e-06,1.40973e-05,-9.18957e-07,0
-3.1102e-05,3.05077e-05,-6.05664e-06,-2.94732e-06,2.00033e-05,-7.71468e-06,1.47723e-05,-3.41962e-06,0
-3.13951e-05,2.5407e-05,-6.88159e-06,1.3445e-05,2.18576e-05,-8.13711e-06,1.4228e-05,-3.37842e-06,0
-3.17524e-05,2.27999e-05,-8.7232e-06,2.38641e-05,1.96916e-05,-8.85774e-06,1.42504e-05,-1.69844e-06,0
-3.23933e-05,2.10453e-05,-1.08913e-05,2.87081e-05,1.41085e-05,-9.32801e-06,1.53301e-05,-3.38974e-07,0
-3.32998e-05,1.83848e-05,-1.28351e-05,2.64775e-05,1.08954e-05,-8.64004e-06,1.49496e-05,6.38706e-08,0
-3.36599e-05,1.47271e-05,-1.456e-05,1.63674e-05,1.26657e-05,-7.87863e-06,1.27701e-05,-1.33537e-06,0
-3.29759e-05,1.08634e-05,-1.65857e-05,1.27593e-06,1.59193e-05,-6.96376e-06,1.22623e-05,-3.20392e-06,0
-3.29273e-05,6.2527e-06,-1.86636e-05,-1.21901e-05,1.64069e-05,-7.36533e-06,1.54224e-05,-3.83488e-06,0
-3.34601e-05,1.5654e-06,-1.99193e-05,-1.86118e-05,1.50412e-05,-9.48102e-06,2.05677e-05,-2.78322e-06,0
-3.41975e-05,-1.09788e-06,-1.97372e-05,-1.7308e-05,1.49241e-05,-1.12728e-05,2.65983e-05,-1.39346e-06,0
-3.52002e-05,5.94868e-07,-1.79355e-05,-1.2189e-05,1.65343e-05,-1.01163e-05,3.0826e-05,-1.00998e-06,0
-3.56546e-05,4.56125e-06,-1.42742e-05,-8.09099e-06,1.95581e-05,-7.88491e-06,3.19703e-05,-1.62108e-06,0
-3.47486e-05,7.17971e-06,-1.16212e-05,-6.32013e-06,2.22356e-05,-6.62276e-06,3.16724e-05,-3.03183e-06,0
-3.41221e-05,9.31469e-06,-1.19297e-05,-6.07764e-06,2.2167e-05,-4.82572e-06,3.06324e-05,-3.89454e-06,0
-3.42982e-05,1.05879e-05,-1.24298e-05,-5.76816e-06,1.98333e-05,-2.95523e-06,2.88623e-05,-4.64057e-06,0
-3.37484e-05,8.93185e-06,-1.1224e-05,-4.47017e-06,1.76972e-05,-3.65931e-06,2.57503e-05,-5.19315e-06,0
-3.19296e-05,6.50678e-06,-8.47579e-06,-3.99997e-06,1.7127e-05,-6.62422e-06,2.37868e-05,-5.76017e-06,0
-3.11555e-05,4.79485e-06,-8.54272e-06,-4.45025e-06,1.76768e-05,-1.0413e-05,2.34762e-05,-5.83285e-06,0
-3.28137e-05,5.17487e-06,-1.08024e-05,-5.08115e-06,1.58047e-05,-1.32015e-05,2.31096e-05,-5.86887e-06,0
-3.35404e-05,5.24557e-06,-1.13836e-05,-5.86409e-06,1.31922e-05,-1.32241e-05,2.41854e-05,-4.93687e-06,0
-3.16514e-05,3.15094e-06,-1.12847e-05,-6.08986e-06,1.28025e-05,-1.27664e-05,2.61345e-05,-3.74817e-06,0
-3.00149e-05,8.24398e-07,-1.21302e-05,-6.67761e-06,1.29927e-05,-1.50437e-05,2.68087e-05,-4.23346e-06,0
-2.95037e-05,-6.80273e-07,-1.34539e-05,-6.73283e-06,1.18129e-05,-1.74045e-05,2.46851e-05,-5.07747e-06,0
-2.88301e-05,5.61435e-09,-1.36564e-05,-5.94612e-06,1.16594e-05,-1.75499e-05,2.00637e-05,-7.48237e-06,0
-2.84218e-05,2.78939e-06,-1.26256e-05,-5.55077e-06,1.3465e-05,-1.74526e-05,1.52386e-05,-9.03139e-06,0
-2.78183e-05,5.3022e-06,-1.12061e-05,-5.13295e-06,1.4271e-05,-1.85642e-05,1.33619e-05,-8.74571e-06,0
-2.62967e-05,5.93975e-06,-1.02353e-05,-5.67667e-06,1.34063e-05,-1.92664e-05,1.39841e-05,-7.69426e-06,0
-2.49075e-05,6.13073e-06,-9.62682e-06,-5.7995e-06,1.17352e-05,-1.83546e-05,1.44391e-05,-6.86231e-06,0
-2.52089e-05,6.44652e-06,-8.97323e-06,-5.44487e-06,1.0772e-05,-1.65894e-05,1.41205e-05,-5.59083e-06,0
-2.62094e-05,6.83938e-06,-7.22867e-06,-5.53808e-06,1.11292e-05,-1.45365e-05,1.28564e-05,-3.04878e-06,0
-2.75882e-05,8.25128e-06,-5.24042e-06,-5.87012e-06,1.15816e-05,-1.34446e-05,1.0409e-05,-5.00591e-07,0
-3.06413e-05,1.21631e-05,-5.01369e-06,-5.86992e-06,1.03165e-05,-1.3368e-05,7.95694e-06,7.20377e-07,0
-3.3653e-05,1.7531e-05,-6.87985e-06,-4.60204e-06,8.95173e-06,-1.38683e-05,6.78474e-06,-4.8934e-07,0
-3.38182e-05,1.95315e-05,-7.52227e-06,-3.49507e-06,9.76263e-06,-1.3323e-05,7.51678e-06,-1.85204e-06,0
-3.25995e-05,1.65155e-05,-5.55476e-06,-3.80267e-06,1.20379e-05,-1.19692e-05,8.85958e-06,-1.92447e-06,0
-3.30567e-05,1.50901e-05,-4.09336e-06,-5.00331e-06,1.23285e-05,-1.08645e-05,8.67965e-06,-1.48797e-06,0
-3.4762e-05,1.93352e-05,-3.82241e-06,-5.67788e-06,9.64914e-06,-1.05373e-05,8.02842e-06,-3.05473e-06,0
-3.53841e-05,2.42443e-05,-4.31409e-06,-6.23594e-06,6.57684e-06,-1.04573e-05,8.46734e-06,-4.42612e-06,0
-3.38557e-05,2.64951e-05,-5.11331e-06,-5.94691e-06,5.80604e-06,-1.07394e-05,1.01171e-05,-3.10273e-06,0
-3.10753e-05,2.81933e-05,-5.01174e-06,-5.62905e-06,8.00671e-06,-1.18444e-05,1.12061e-05,-3.10082e-07,0
-2.97836e-05,3.05255e-05,-4.30576e-06,-5.47059e-06,1.17969e-05,-1.23815e-05,1.12788e-05,2.59874e-06,0
-3.01891e-05,3.40454e-05,-4.90265e-06,-4.14877e-06,1.48579e-05,-1.15698e-05,1.12398e-05,3.31704e-06,0
-3.12707e-05,3.55989e-05,-7.3693e-06,-3.18559e-06,1.57514e-05,-9.94806e-06,1.15478e-05,2.34673e-06,0
-3.24434e-05,3.25377e-05,-9.78287e-06,-3.46417e-06,1.5114e-05,-7.51828e-06,1.27036e-05,1.38811e-06,0
-3.10752e-05,2.90412e-05,-1.00008e-05,-3.44318e-06,1.21683e-05,-6.31296e-06,1.40207e-05,6.17788e-07,0
-2.76759e-05,2.74111e-05,-9.69836e-06,-3.18058e-09,9.83876e-06,-7.85459e-06,1.60226e-05,-3.80744e-08,0
-2.52149e-05,2.70055e-05,-1.06263e-05,5.38335e-06,1.01491e-05,-9.84333e-06,1.94549e-05,-2.79571e-06,0
-2.48749e-05,2.60066e-05,-1.17085e-05,7.5275e-06,1.07242e-05,-1.08036e-05,2.10146e-05,-5.52043e-06,0
-2.77832e-05,2.30034e-05,-1.14928e-05,4.66846e-06,1.09582e-05,-1.02286e-05,1.89872e-05,-5.74867e-06,0
-3.1419e-05,1.94746e-05,-1.09581e-05,-3.50572e-07,1.11947e-05,-9.1897e-06,1.59197e-05,-4.8372e-06,0
-3.30647e-05,1.59356e-05,-1.03366e-05,-3.77613e-06,1.23851e-05,-8.47406e-06,1.49672e-05,-5.00168e-06,0
-3.24419e-05,1.50515e-05,-9.23839e-06,-6.11399e-06,1.29757e-05,-8.0059e-06,1.55453e-05,-5.75171e-06,0
-3.08285e-05,2.17763e-05,-8.54781e-06,-9.28944e-06,1.19686e-05,-8.98425e-06,1.70561e-05,-5.36241e-06,0
-2.96905e-05,3.51543e-05,-7.32943e-06,-1.34318e-05,1.0878e-05,-1.08386e-05,1.88914e-05,-3.42181e-06,0
-2.95969e-05,4.7182e-05,-5.15119e-06,-1.61042e-05,9.76188e-06,-1.1889e-05,1.88069e-05,-2.85931e-07,0
-3.04401e-05,5.12988e-05,-3.52214e-06,-1.68702e-05,8.12239e-06,-1.23502e-05,1.65974e-05,1.58527e-06,0
-3.09483e-05,4.66248e-05,-3.72014e-06,-1.57404e-05,7.6478e-06,-1.30434e-05,1.37214e-05,1.79604e-06,0
-3.07234e-05,3.29325e-05,-4.25012e-06,-1.35476e-05,9.13305e-06,-1.38569e-05,1.22665e-05,1.28761e-06,0
-3.02354e-05,1.26854e-05,-4.30443e-06,-1.27141e-05,1.04026e-05,-1.30504e-05,1.31549e-05,2.24389e-06,0
-2.98588e-05,-6.91574e-06,-4.1503e-06,-1.2405e-05,9.96279e-06,-1.09164e-05,1.5909e-05,3.45001e-06,0
-2.89685e-05,-2.04284e-05,-3.56904e-06,-9.28006e-06,9.23069e-06,-8.59594e-06,2.00729e-05,3.07679e-06,0
-2.80709e-05,-2.85356e-05,-2.11696e-06,-2.44646e-06,8.96139e-06,-7.07296e-06,2.44108e-05,1.86161e-06,0
-2.84926e-05,-3.2806e-05,-8.85683e-07,3.92772e-06,8.33573e-06,-6.60886e-06,2.60497e-05,2.40563e-06,0
-3.10126e-05,-3.27945e-05,-1.3503e-06,7.1006e-06,8.42836e-06,-7.13874e-06,2.53832e-05,5.40951e-06,0
-3.28747e-05,-2.77043e-05,-1.75264e-06,7.36491e-06,8.93144e-06,-8.80264e-06,2.37571e-05,8.68567e-06,0
-3.23244e-05,-1.89781e-05,-1.25577e-06,5.87959e-06,9.14479e-06,-9.3127e-06,2.15097e-05,1.02027e-05,0
-3.10321e-05,-1.22052e-05,-1.35526e-06,1.22412e-06,9.7674e-06,-8.05902e-06,1.7706e-05,1.00806e-05,0
-3.04355e-05,-9.40121e-06,-2.0557e-06,-4.0062e-06,1.04571e-05,-6.41728e-06,1.2639e-05,8.70755e-06,0
-3.04943e-05,-6.30832e-06,-2.79598e-06,-5.49302e-06,9.96629e-06,-6.14998e-06,8.5387e-06,6.43635e-06,0
-3.05887e-05,-1.80833e-06,-3.49621e-06,-4.08645e-06,8.66264e-06,-7.74127e-06,4.40561e-06,4.39842e-06,0
-3.12041e-05,2.17412e-06,-3.8217e-06,-3.81534e-06,1.05251e-05,-7.74257e-06,1.23621e-06,2.11575e-06,0
-3.15294e-05,4.90338e-06,-3.62791e-06,-5.38132e-06,1.42851e-05,-5.94786e-06,6.66488e-08,1.23864e-06,0
-2.9511e-05,6.86352e-06,-4.21526e-06,-7.51273e-06,1.47353e-05,-2.92734e-06,-3.00447e-07,3.58939e-06,0
-2.88213e-05,7.84231e-06,-7.13832e-06,-1.03702e-05,1.49787e-05,2.26811e-07,-1.04255e-06,4.96657e-06,0
-3.11954e-05,6.45592e-06,-1.0922e-05,-1.23178e-05,1.83498e-05,1.06613e-06,-3.58961e-06,4.36459e-06,0
-3.35883e-05,3.69896e-06,-1.42398e-05,-1.26109e-05,2.18705e-05,1.41031e-06,-3.41374e-06,4.32405e-06,0
-3.35961e-05,1.9814e-06,-1.50116e-05,-1.13797e-05,2.18649e-05,1.2123e-06,7.62887e-07,3.59636e-06,0
-3.15819e-05,7.81316e-07,-1.23207e-05,-1.02505e-05,1.8942e-05,1.45829e-06,5.36957e-06,3.64829e-06,0
-3.05933e-05,6.40645e-08,-9.23012e-06,-7.67589e-06,1.57827e-05,2.90384e-06,8.14511e-06,5.63685e-06,0
-2.99937e-05,1.0666e-06,-8.28973e-06,-1.94011e-06,1.34433e-05,3.35141e-06,1.04484e-05,8.08521e-06,0
-3.01313e-05,1.93543e-06,-8.50833e-06,4.04998e-06,1.23958e-05,1.96468e-06,1.26372e-05,9.9238e-06,0
-3.08195e-05,1.4624e-06,-8.37668e-06,6.50915e-06,1.32298e-05,-3.37352e-07,1.19064e-05,1.16052e-05,0
-3.10367e-05,1.18993e-07,-8.16352e-06,3.4553e-06,1.47465e-05,-2.8751e-06,1.00613e-05,1.22419e-05,0
-3.09225e-05,7.81318e-07,-7.75976e-06,-2.16666e-06,1.44052e-05,-5.38408e-06,1.07236e-05,1.17575e-05,0
-3.1106e-05,4.71573e-06,-7.73466e-06,-6.02628e-06,1.19847e-05,-6.26063e-06,1.44144e-05,9.71864e-06,0
-3.21878e-05,8.84161e-06,-9.76518e-06,-6.87121e-06,9.34351e-06,-5.84732e-06,1.88863e-05,7.12734e-06,0
-3.2813e-05,1.00401e-05,-1.36843e-05,-5.17166e-06,8.30239e-06,-6.52213e-06,2.11215e-05,6.60637e-06,0
-3.20478e-05,9.47532e-06,-1.59017e-05,-2.65889e-06,8.31534e-06,-8.7726e-06,1.42085e-05,7.61939e-06,0
-3.06331e-05,9.11212e-06,-1.48073e-05,-1.14628e-06,8.16533e-06,-1.06823e-05,-4.82635e-06,8.48409e-06,0
-2.90627e-05,8.26226e-06,-1.32741e-05,-1.46e-06,8.17204e-06,-1.15288e-05,-2.65561e-05,9.14351e-06,0
-2.76233e-05,6.45023e-06,-1.36433e-05,-3.66856e-06,8.67769e-06,-1.16962e-05,-3.72152e-05,1.07973e-05,0
-2.69108e-05,4.61423e-06,-1.3731e-05,-5.177e-06,7.11829e-06,-1.197e-05,-3.25603e-05,1.18251e-05,0
-2.6522e-05,4.1037e-06,-1.11188e-05,-5.02777e-06,2.73482e-06,-1.27713e-05,-1.88632e-05,1.03166e-05,0
-2.6966e-05,5.24611e-06,-8.41556e-06,-5.01402e-06,-1.77974e-06,-1.36813e-05,-3.31931e-06,8.93499e-06,0
-2.77297e-05,7.19519e-06,-8.83338e-06,-5.72842e-06,-2.93798e-06,-1.32034e-05,1.17902e-05,9.47247e-06,0
-2.78554e-05,8.08766e-06,-1.02403e-05,-4.62075e-06,8.81031e-07,-1.16545e-05,2.48598e-05,7.62846e-06,0
-2.83129e-05,7.14146e-06,-1.09821e-05,-2.37496e-06,4.99001e-06,-1.01805e-05,3.40762e-05,3.02339e-06,0
-2.85495e-05,6.40316e-06,-1.10191e-05,-2.86765e-06,5.9232e-06,-9.41429e-06,3.8983e-05,-2.13711e-07,0
-2.773e-05,9.81269e-06,-1.08237e-05,-5.12637e-06,5.04678e-06,-9.94262e-06,4.05607e-05,-9.63523e-07,0
-2.7531e-05,1.48409e-05,-1.12302e-05,-9.31455e-06,4.76018e-06,-1.01249e-05,4.10051e-05,-1.39477e-06,0
-2.93883e-05,1.74374e-05,-1.31813e-05,-1.64757e-05,5.1952e-06,-1.00494e-05,3.93507e-05,-3.02706e-06,0
-3.13167e-05,1.91224e-05,-1.45825e-05,-2.21267e-05,5.0596e-06,-8.32343e-06,2.74666e-05,-5.79599e-06,0
-3.27783e-05,2.03347e-05,-1.2584e-05,-2.25732e-05,4.81457e-06,-7.43176e-06,8.65644e-06,-8.26971e-06,0
-3.25838e-05,2.01269e-05,-1.05544e-05,-2.03221e-05,5.31048e-06,-9.17914e-06,-1.88499e-06,-1.0242e-05,0
-3.0073e-05,1.95502e-05,-9.32783e-06,-1.66278e-05,6.91259e-06,-1.12762e-05,-2.21789e-07,-1.14125e-05,0
-2.82107e-05,1.90902e-05,-9.15017e-06,-1.10049e-05,8.56215e-06,-1.22801e-05,8.42717e-06,-1.01017e-05,0
-2.8038e-05,2.0235e-05,-9.35104e-06,-5.28475e-06,9.63724e-06,-1.16305e-05,1.947e-05,-7.05674e-06,0
-2.81499e-05,2.38256e-05,-9.28614e-06,-6.54589e-07,9.98778e-06,-1.15306e-05,3.08985e-05,-4.96194e-06,0
-2.75767e-05,2.92912e-05,-9.17879e-06,3.13348e-06,1.06374e-05,-1.24661e-05,3.88866e-05,-4.31253e-06,0
-2.70801e-05,3.53745e-05,-9.25758e-06,4.52231e-06,1.18739e-05,-1.36712e-05,4.29788e-05,-3.16756e-06,0
-2.68143e-05,3.91697e-05,-1.01697e-05,4.24283e-06,1.31356e-05,-1.33655e-05,4.37792e-05,-1.98946e-06,0
-2.80794e-05,3.94477e-05,-1.09248e-05,3.75437e-06,1.41989e-05,-1.17383e-05,4.16693e-05,-1.66703e-06,0
-3.00107e-05,3.70465e-05,-1.01499e-05,1.67808e-06,1.48234e-05,-1.13146e-05,3.70883e-05,-1.87047e-06,0
-3.03928e-05,3.41575e-05,-7.50577e-06,-3.96548e-06,1.57156e-05,-1.27813e-05,3.16286e-05,-2.15517e-06,0
-2.90467e-05,3.16383e-05,-4.87404e-06,-1.13819e-05,1.68561e-05,-1.30546e-05,2.678e-05,-2.40667e-06,0
-2.68248e-05,2.99119e-05,-2.87017e-06,-1.77623e-05,1.74795e-05,-1.18216e-05,2.1974e-05,-2.65726e-06,0
-2.51042e-05,2.88492e-05,-2.58759e-06,-2.36516e-05,1.72046e-05,-1.12784e-05,1.73218e-05,-2.11135e-06,0
-2.51405e-05,2.95977e-05,-4.31592e-06,-2.77988e-05,1.73806e-05,-1.23814e-05,1.60469e-05,-9.49181e-07,0
-2.61078e-05,3.15056e-05,-7.33993e-06,-2.80908e-05,1.80544e-05,-1.37726e-05,2.28806e-05,-3.29928e-07,0
-2.68885e-05,3.30778e-05,-1.13074e-05,-2.40395e-05,1.89333e-05,-1.47475e-05,3.42674e-05,6.49634e-07,0
-2.83045e-05,3.43701e-05,-1.51287e-05,-1.80267e-05,2.08736e-05,-1.64247e-05,4.24645e-05,2.0822e-06,0
-2.93881e-05,3.54968e-05,-1.80369e-05,-1.27819e-05,2.22729e-05,-1.82782e-05,4.3074e-05,2.2864e-06,0
-3.08701e-05,3.76652e-05,-2.0008e-05,-8.2971e-06,2.29622e-05,-1.87782e-05,3.51523e-05,9.05904e-07,0
-3.26837e-05,3.80044e-05,-1.95113e-05,-2.35934e-06,2.48054e-05,-1.86643e-05,2.36875e-05,-7.06504e-07,0
-3.35954e-05,3.33382e-05,-1.77633e-05,6.80145e-06,2.70921e-05,-1.93133e-05,1.33546e-05,-8.08173e-07,0
-3.27922e-05,2.68076e-05,-1.67262e-05,1.73516e-05,2.79647e-05,-1.87733e-05,-2.13438e-07,-1.69793e-07,0
-2.98568e-05,2.25776e-05,-1.64351e-05,2.63733e-05,2.75175e-05,-1.82836e-05,-1.82583e-05,-3.06686e-07,0
-2.67651e-05,1.71951e-05,-1.65981e-05,3.54672e-05,2.69432e-05,-1.84547e-05,-3.33088e-05,7.42084e-07,0
-2.52125e-05,7.35322e-06,-1.57956e-05,4.24144e-05,2.68183e-05,-1.87983e-05,-3.90223e-05,1.94176e-06,0
-2.82645e-05,-3.68746e-06,-1.47776e-05,3.97546e-05,2.69045e-05,-1.80285e-05,-3.83194e-05,9.47456e-07,0
-3.21777e-05,-1.00188e-05,-1.41853e-05,2.53754e-05,2.60586e-05,-1.58918e-05,-3.42607e-05,-1.17108e-06,0
-3.30371e-05,-7.67308e-06,-1.3881e-05,9.23858e-06,2.79752e-05,-1.55584e-05,-2.66079e-05,-3.85923e-06,0
-3.20378e-05,3.22108e-06,-1.40612e-05,-1.1639e-06,3.21061e-05,-1.56339e-05,-1.90787e-05,-4.56313e-06,0
-3.02803e-05,1.70178e-05,-1.30858e-05,-9.36961e-06,3.39436e-05,-1.40198e-05,-1.38872e-05,-3.37114e-06,0
-2.88886e-05,2.48451e-05,-9.43305e-06,-1.63669e-05,3.30454e-05,-1.18421e-05,-9.24948e-06,-2.87707e-06,0
-2.76332e-05,2.60411e-05,-4.37616e-06,-1.50959e-05,3.15099e-05,-9.60143e-06,-4.39002e-06,-1.46001e-06,0
-2.77102e-05,2.24502e-05,-9.98592e-07,-5.77509e-06,2.97293e-05,-7.29114e-06,2.92482e-07,6.31562e-07,0
-2.88476e-05,1.4785e-05,-2.26552e-07,2.40876e-06,2.65023e-05,-5.79875e-06,3.84139e-06,8.2954e-07,0
-3.07006e-05,6.358e-06,-1.07236e-06,6.45165e-06,2.3463e-05,-5.3384e-06,4.98059e-06,5.9053e-07,0
-3.10841e-05,6.37888e-07,-1.75835e-06,7.12456e-06,1.9716e-05,-6.0105e-06,4.73526e-06,1.36978e-06,0
-2.94036e-05,-1.87785e-06,-7.62558e-07,6.13676e-06,1.44132e-05,-7.29245e-06,5.28107e-06,1.63872e-06,0
-2.79603e-05,-3.50751e-06,7.9008e-07,4.27542e-06,9.1588e-06,-7.47548e-06,6.9877e-06,1.09501e-06,0
-2.84307e-05,-6.80397e-06,1.98279e-06,3.95158e-07,6.22745e-06,-5.32748e-06,8.21839e-06,1.25192e-06,0
-3.02844e-05,-1.10053e-05,3.18131e-06,-9.58648e-06,4.63052e-06,-3.31947e-06,8.94971e-06,2.51938e-06,0
-3.2357e-05,-1.23438e-05,4.55641e-06,-2.71159e-05,2.67487e-06,-4.12928e-06,1.09976e-05,3.72734e-06,0
-3.28477e-05,-9.21877e-06,4.2924e-06,-4.86151e-05,6.74049e-08,-6.54378e-06,1.3652e-05,4.62439e-06,0
-3.14012e-05,-3.61852e-06,4.84809e-07,-6.62782e-05,-1.46733e-06,-7.22156e-06,1.47469e-05,5.52259e-06,0
-3.10137e-05,1.11454e-06,-4.57756e-06,-7.43272e-05,-1.41574e-06,-6.04991e-06,1.56117e-05,5.82384e-06,0
-3.31201e-05,4.8777e-06,-7.07519e-06,-7.23975e-05,-1.71616e-06,-4.92362e-06,1.65168e-05,6.46234e-06,0
-3.55541e-05,8.95193e-06,-5.70346e-06,-6.39405e-05,-2.7909e-06,-3.68772e-06,1.60772e-05,7.00973e-06,0
-3.44224e-05,1.24323e-05,-2.1351e-06,-5.27826e-05,-3.80174e-06,-4.87683e-06,1.58409e-05,6.03895e-06,0
-3.16071e-05,1.21764e-05,-1.05871e-06,-3.6029e-05,-3.22141e-06,-9.0239e-06,1.8077e-05,4.513e-06,0
-3.14715e-05,1.09137e-05,-1.27359e-06,-9.2646e-06,-1.54894e-06,-1.26324e-05,2.10135e-05,3.84836e-06,0
-3.26724e-05,1.0947e-05,-1.34531e-06,2.54608e-05,6.65418e-07,-1.44368e-05,2.22164e-05,5.78641e-06,0
-3.20996e-05,1.14859e-05,-2.10648e-06,5.68909e-05,3.3379e-06,-1.40455e-05,2.24591e-05,9.46245e-06,0
-2.98338e-05,1.24519e-05,-3.10028e-06,7.17204e-05,5.73949e-06,-1.04643e-05,2.1684e-05,9.04478e-06,0
-2.7707e-05,1.27993e-05,-5.00438e-06,7.11048e-05,7.96378e-06,-6.80829e-06,2.07504e-05,4.52275e-06,0
-2.76986e-05,1.2537e-05,-7.40956e-06,6.28136e-05,8.22272e-06,-4.82202e-06,2.01487e-05,1.54539e-06,0
-2.86003e-05,9.54286e-06,-1.00706e-05,5.10128e-05,6.8525e-06,-5.43148e-06,1.79993e-05,1.09521e-06,0
-2.96579e-05,5.17712e-06,-1.14257e-05,3.95936e-05,6.09883e-06,-7.52391e-06,1.47229e-05,1.50317e-06,0
-2.98869e-05,3.56524e-06,-1.08484e-05,3.00564e-05,6.9328e-06,-8.01121e-06,1.25325e-05,6.54376e-07,0
-2.96706e-05,4.8564e-06,-8.0265e-06,2.30671e-05,9.97239e-06,-6.95923e-06,1.29668e-05,-1.84128e-06,0
-2.94221e-05,6.54317e-06,-4.05365e-06,1.52057e-05,1.21693e-05,-4.27882e-06,1.45229e-05,-4.22743e-06,0
-2.79324e-05,6.91429e-06,-1.2283e-06,5.22052e-06,1.16019e-05,-1.84146e-06,1.60248e-05,-5.00267e-06,0
-2.60167e-05,5.69699e-06,-1.14146e-06,-3.64817e-06,1.02646e-05,-1.63495e-06,1.75313e-05,-6.05844e-06,0
-2.5653e-05,3.89544e-06,-3.186e-06,-8.20075e-06,1.07958e-05,-4.02175e-06,1.83994e-05,-8.1189e-06,0
-2.73891e-05,1.78421e-06,-5.69547e-06,-7.8676e-06,1.2967e-05,-7.3845e-06,1.85877e-05,-9.39756e-06,0
-2.90397e-05,-1.88143e-07,-6.87057e-06,-6.8665e-06,1.55839e-05,-8.85917e-06,1.86209e-05,-8.2895e-06,0
-3.00147e-05,2.98871e-07,-6.1212e-06,-9.23441e-06,1.71311e-05,-6.98478e-06,1.87485e-05,-5.54507e-06,0
-3.05435e-05,2.85735e-06,-4.88016e-06,-1.54776e-05,1.70806e-05,-4.92363e-06,1.72563e-05,-3.95913e-06,0
-3.15849e-05,4.87577e-06,-4.43873e-06,-2.10312e-05,1.6134e-05,-5.8539e-06,1.47258e-05,-4.07812e-06,0
-3.34036e-05,6.2051e-06,-5.3671e-06,-2.05579e-05,1.51683e-05,-7.65727e-06,1.69155e-05,-3.71379e-06,0
-3.39959e-05,8.73178e-06,-6.08457e-06,-1.64707e-05,1.56571e-05,-8.43527e-06,2.63185e-05,-3.10597e-06,0
-3.24272e-05,1.24123e-05,-5.1279e-06,-1.44523e-05,1.67873e-05,-9.46556e-06,3.68796e-05,-3.71948e-06,0
-3.08672e-05,1.49539e-05,-4.26921e-06,-1.53862e-05,1.76168e-05,-9.63847e-06,4.34061e-05,-3.12377e-06,0
-3.1117e-05,1.48251e-05,-4.21737e-06,-1.76445e-05,1.75901e-05,-8.43547e-06,4.33227e-05,-1.81935e-06,0
-3.3124e-05,1.257e-05,-3.44983e-06,-2.13232e-05,1.72311e-05,-8.79159e-06,3.6519e-05,-1.90634e-06,0
-3.49659e-05,1.22939e-05,-1.94305e-06,-2.59334e-05,1.77726e-05,-8.68306e-06,2.59166e-05,-2.5452e-06,0
-3.42134e-05,1.25498e-05,-2.40088e-07,-2.69668e-05,1.79537e-05,-6.93639e-06,1.09624e-05,-2.77353e-06,0
-3.28737e-05,1.04422e-05,-8.92662e-07,-2.23857e-05,1.83507e-05,-6.30134e-06,-8.38771e-06,-2.12259e-06,0
-3.35792e-05,9.00068e-06,-3.39448e-06,-1.82928e-05,1.8164e-05,-7.18406e-06,-2.72333e-05,-2.7681e-07,0
-3.50271e-05,7.89982e-06,-5.24952e-06,-1.73373e-05,1.58831e-05,-9.56225e-06,-3.71012e-05,-5.10867e-07,0
-3.57687e-05,6.63025e-06,-6.52441e-06,-1.66951e-05,1.40376e-05,-1.00994e-05,-3.34125e-05,-2.06537e-06,0
-3.53658e-05,4.2114e-06,-8.52581e-06,-1.63987e-05,1.36458e-05,-8.75867e-06,-2.10508e-05,-2.13003e-06,0
-3.47038e-05,2.86408e-06,-1.09686e-05,-1.78498e-05,1.3168e-05,-7.85061e-06,-6.36139e-06,-1.24364e-06,0
-3.35576e-05,4.58123e-06,-1.23259e-05,-2.20366e-05,1.20604e-05,-6.78309e-06,5.82366e-06,-2.61637e-07,0
-3.21397e-05,5.9027e-06,-1.16285e-05,-2.64025e-05,1.0777e-05,-5.39833e-06,1.4706e-05,1.0497e-06,0
-3.10829e-05,4.4665e-06,-1.00013e-05,-2.9196e-05,9.10134e-06,-3.80519e-06,1.98107e-05,2.58526e-06,0
-3.0603e-05,2.06497e-06,-1.04485e-05,-2.97282e-05,7.50014e-06,-2.07667e-06,1.93776e-05,2.21023e-06,0
-3.05744e-05,2.49647e-06,-1.30676e-05,-2.81943e-05,7.43863e-06,-2.15819e-07,1.53378e-05,1.17847e-06,0
-3.02928e-05,4.93194e-06,-1.54735e-05,-2.59732e-05,8.53822e-06,7.76826e-07,1.16315e-05,1.13962e-06,0
-2.95775e-05,6.21101e-06,-1.59822e-05,-2.35226e-05,9.96356e-06,1.48286e-06,1.08907e-05,1.51363e-06,0
-2.86586e-05,6.20647e-06,-1.51722e-05,-2.08545e-05,1.24218e-05,1.95178e-06,1.14765e-05,2.23304e-06,0
-2.8697e-05,6.09508e-06,-1.45044e-05,-1.82662e-05,1.40799e-05,1.70712e-06,1.1925e-05,3.49323e-06,0
-3.00411e-05,5.5458e-06,-1.48125e-05,-1.7062e-05,1.34968e-05,-1.19032e-07,1.1469e-05,3.38131e-06,0
-3.20078e-05,5.16807e-06,-1.52516e-05,-1.70659e-05,1.23411e-05,-3.48943e-06,1.04881e-05,2.05037e-06,0
-3.22726e-05,6.20695e-06,-1.51107e-05,-1.67568e-05,1.21317e-05,-7.22397e-06,1.05074e-05,1.56914e-06,0
-3.11281e-05,8.04522e-06,-1.4962e-05,-1.47934e-05,1.2161e-05,-9.1198e-06,1.24057e-05,2.55323e-06,0
-2.9684e-05,8.98602e-06,-1.58708e-05,-1.11494e-05,1.1953e-05,-9.39466e-06,1.53956e-05,3.4482e-06,0
-2.81169e-05,9.69675e-06,-1.60627e-05,-6.86674e-06,1.18304e-05,-8.57165e-06,1.78342e-05,3.87591e-06,0
-2.7716e-05,1.145e-05,-1.49757e-05,-4.46294e-06,1.17634e-05,-7.35648e-06,1.8113e-05,3.53943e-06,0
-2.84464e-05,1.36735e-05,-1.61573e-05,-3.44681e-06,1.24987e-05,-6.58414e-06,1.72998e-05,3.96883e-06,0
-2.90064e-05,1.44536e-05,-1.77412e-05,-1.3641e-06,1.43401e-05,-5.55014e-06,1.73259e-05,6.02736e-06,0
-2.81546e-05,1.42003e-05,-1.6795e-05,8.19142e-08,1.64671e-05,-5.63732e-06,1.76923e-05,7.72302e-06,0
-2.615e-05,1.53591e-05,-1.51339e-05,2.37215e-07,1.79244e-05,-7.10252e-06,1.74261e-05,9.50311e-06,0
-2.67209e-05,1.82702e-05,-1.30086e-05,1.09192e-06,1.63556e-05,-9.79464e-06,1.69052e-05,8.40044e-06,0
-2.89835e-05,2.26088e-05,-1.05754e-05,2.30146e-06,1.35059e-05,-1.01677e-05,1.65936e-05,6.45578e-06,0
-2.86687e-05,2.62688e-05,-7.78565e-06,3.52135e-06,1.21494e-05,-9.69477e-06,1.59757e-05,5.36993e-06,0
-2.72189e-05,2.66638e-05,-6.49275e-06,3.99527e-06,1.18277e-05,-1.15263e-05,1.57103e-05,4.25421e-06,0
-2.67739e-05,2.57208e-05,-7.94275e-06,3.42904e-06,1.19886e-05,-1.23628e-05,1.56882e-05,4.47523e-06,0
-2.7789e-05,2.7501e-05,-9.82087e-06,3.57203e-06,1.18621e-05,-1.13898e-05,1.63756e-05,5.41933e-06,0
-2.95775e-05,3.18882e-05,-9.97627e-06,5.23598e-06,1.19583e-05,-1.12293e-05,1.79396e-05,6.84366e-06,0
-3.0366e-05,3.58851e-05,-6.99769e-06,7.57439e-06,9.86389e-06,-1.30276e-05,1.97498e-05,7.42864e-06,0
-3.05567e-05,3.9682e-05,-3.6646e-06,1.0098e-05,6.44768e-06,-1.48603e-05,2.01454e-05,8.23744e-06,0
-2.97315e-05,4.36879e-05,-3.02969e-06,9.95289e-06,5.00455e-06,-1.63941e-05,1.9017e-05,9.9654e-06,0
-2.80241e-05,4.41679e-05,-3.84406e-06,6.60987e-06,5.72689e-06,-1.69663e-05,1.72431e-05,1.14636e-05,0
-2.71244e-05,3.85673e-05,-4.24131e-06,3.49048e-06,7.23805e-06,-1.6612e-05,1.5754e-05,1.14314e-05,0
-2.70794e-05,3.01815e-05,-4.25208e-06,1.76102e-06,8.17524e-06,-1.56847e-05,1.60583e-05,1.04386e-05,0
-2.7143e-05,2.38869e-05,-3.35297e-06,1.58976e-06,9.42483e-06,-1.43571e-05,1.76367e-05,8.78411e-06,0
-2.8056e-05,2.21562e-05,-2.76658e-06,4.11434e-06,1.0539e-05,-1.41542e-05,1.75838e-05,6.44634e-06,0
-3.02701e-05,2.25191e-05,-3.08694e-06,8.15073e-06,8.84316e-06,-1.6211e-05,1.54583e-05,5.23765e-06,0
-3.15862e-05,2.13439e-05,-3.72356e-06,6.27009e-06,3.63564e-06,-1.88848e-05,1.49441e-05,5.61936e-06,0
-3.18949e-05,1.782e-05,-4.39175e-06,-2.96612e-06,-1.5631e-06,-1.87417e-05,1.65714e-05,6.20062e-06,0
-3.12326e-05,1.21423e-05,-4.46142e-06,-1.30999e-05,-3.17155e-06,-1.57926e-05,1.831e-05,5.45335e-06,0
-2.99547e-05,5.30349e-06,-3.2592e-06,-1.75037e-05,-1.94998e-06,-1.31735e-05,1.86688e-05,4.31281e-06,0
-2.88272e-05,-3.92317e-07,-1.80355e-06,-1.14003e-05,-7.38239e-07,-1.40958e-05,1.89555e-05,2.43605e-06,0
-2.84852e-05,-2.04862e-06,-1.76671e-06,5.68788e-06,1.9317e-07,-1.72665e-05,2.02279e-05,8.54405e-07,0
-2.90675e-05,1.10373e-07,-2.84259e-06,2.34678e-05,2.17842e-06,-1.87736e-05,2.03439e-05,2.50977e-06,0
-2.96624e-05,2.87552e-06,-3.74697e-06,2.97811e-05,4.55507e-06,-1.93238e-05,1.79531e-05,5.6047e-06,0
-2.95729e-05,4.89889e-06,-2.95469e-06,2.01094e-05,5.86703e-06,-2.14753e-05,1.46667e-05,5.97006e-06,0
-2.944e-05,6.24948e-06,-2.56213e-06,1.39734e-06,6.6621e-06,-2.23614e-05,1.23193e-05,4.51067e-06,0
