ch1,ch2,ch3,ch4,ch5,ch6,ch7,ch8,class
-6.14901e-05,-1.89743e-05,5.52029e-06,0.000213646,2.32121e-05,-2.07765e-06,-7.62819e-06,-1.07123e-06,0
-7.1537e-05,3.41739e-06,3.1198e-06,0.00017769,2.30263e-05,-2.21314e-06,-3.13932e-05,-1.35567e-06,0
-7.49424e-05,2.03176e-05,1.19877e-05,0.000113374,2.27775e-05,-1.84561e-06,2.16024e-06,-1.91896e-07,0
-7.3252e-05,3.19728e-05,2.38423e-05,4.56279e-05,2.21611e-05,-3.50786e-06,5.67233e-05,7.90206e-07,0
-6.76521e-05,3.9676e-05,2.85282e-05,1.61427e-05,2.0252e-05,-7.74972e-06,8.30216e-05,2.27515e-07,0
-6.23635e-05,4.17041e-05,2.60351e-05,3.62479e-05,1.76637e-05,-1.13605e-05,5.67967e-05,-2.34126e-07,0
-5.99123e-05,4.55554e-05,1.75397e-05,6.20763e-05,1.76125e-05,-1.14515e-05,-1.38156e-05,-4.42144e-07,0
-5.7913e-05,5.49083e-05,3.36333e-06,4.12901e-05,1.92399e-05,-9.08195e-06,-9.52258e-05,-4.80842e-07,0
-5.3213e-05,6.71365e-05,-1.05791e-05,-1.82822e-05,1.84209e-05,-8.07856e-06,-0.000147407,-9.50712e-07,0
-4.68745e-05,7.33432e-05,-1.73273e-05,-4.50377e-05,1.43446e-05,-9.73884e-06,-0.00014975,-1.34589e-06,0
-4.22751e-05,6.76936e-05,-1.37049e-05,-1.38382e-05,1.04889e-05,-1.23563e-05,-0.000112589,-1.57791e-06,0
-4.23424e-05,4.93508e-05,-3.69619e-06,2.43362e-05,8.29167e-06,-1.38018e-05,-6.30324e-05,-2.33332e-06,0
-4.62572e-05,2.95967e-05,5.41948e-06,1.96652e-05,6.67905e-06,-1.26107e-05,-2.11514e-05,-2.37434e-06,0
-5.0091e-05,1.46181e-05,9.28513e-06,1.49557e-06,6.33776e-06,-9.7906e-06,1.00134e-05,-7.19045e-08,0
-4.87085e-05,6.07584e-07,1.10378e-05,1.93118e-05,9.13086e-06,-7.54125e-06,3.39706e-05,3.17414e-06,0
-4.10749e-05,-1.41901e-05,1.19368e-05,6.62918e-05,1.22978e-05,-6.24863e-06,5.29872e-05,3.82227e-06,0
-3.31534e-05,-2.38821e-05,5.48645e-06,9.21091e-05,1.2883e-05,-5.28427e-06,6.62686e-05,1.6495e-06,0
-3.16906e-05,-1.62273e-05,-5.89777e-06,6.95762e-05,1.40528e-05,-5.20552e-06,7.04096e-05,3.43619e-07,0
-3.68024e-05,7.35733e-06,-8.53831e-06,1.3838e-05,1.76991e-05,-3.54209e-06,6.11142e-05,1.62364e-06,0
-4.41652e-05,2.71253e-05,-6.27361e-06,-4.48056e-05,1.85961e-05,-2.74577e-07,4.01802e-05,3.47639e-06,0
-4.26266e-05,3.4079e-05,-1.6217e-05,-7.85418e-05,1.31947e-05,1.40997e-06,1.54707e-05,3.36647e-06,0
-2.40365e-05,3.49847e-05,-3.25899e-05,-8.65218e-05,5.55781e-06,6.99446e-07,-5.3233e-06,2.59674e-06,0
5.61476e-06,3.16752e-05,-3.96243e-05,-8.28071e-05,1.29919e-06,7.20442e-08,-2.22467e-05,1.91491e-06,0
2.51311e-05,2.95439e-05,-3.10477e-05,-6.88784e-05,2.3915e-06,1.0329e-06,-3.25242e-05,2.04676e-06,0
2.05712e-05,3.33873e-05,-5.20795e-06,-4.24318e-05,8.72763e-06,2.26643e-06,-3.30568e-05,4.05626e-06,0
6.77933e-06,4.50102e-05,2.85989e-05,-1.50044e-05,1.83255e-05,3.83484e-06,-2.70635e-05,5.95069e-06,0
4.84754e-06,7.34311e-05,5.41009e-05,4.84302e-06,2.67886e-05,6.39961e-06,-1.64401e-05,6.59257e-06,0
2.18237e-05,0.000118577,6.5111e-05,2.25774e-05,3.33825e-05,8.43252e-06,-8.00603e-06,5.72768e-06,0
3.9595e-05,0.000163206,6.21604e-05,4.15865e-05,3.50162e-05,7.09983e-06,-8.80957e-06,3.79223e-06,0
4.22168e-05,0.000203083,3.89827e-05,5.18197e-05,2.98633e-05,2.6038e-06,-2.19953e-05,1.71953e-06,0
3.37057e-05,0.000235832,-4.85203e-06,3.72817e-05,2.24325e-05,-2.12204e-06,-3.57661e-05,-1.21346e-07,0
2.81974e-05,0.000243631,-5.48665e-05,-3.12803e-06,1.49851e-05,-4.64343e-06,-3.84273e-05,-1.31982e-06,0
2.94123e-05,0.000207871,-9.12101e-05,-4.03128e-05,9.32398e-06,-5.82807e-06,-3.17149e-05,-2.04369e-06,0
2.96682e-05,0.000132016,-0.000101628,-5.23208e-05,6.60831e-06,-5.24409e-06,-2.42733e-05,-2.82921e-06,0
2.49597e-05,2.85687e-05,-8.93387e-05,-4.45503e-05,9.9376e-06,-2.56791e-06,-2.05045e-05,-4.13908e-06,0
1.38718e-05,-8.3105e-05,-6.37041e-05,-3.12647e-05,1.90455e-05,5.75725e-07,-1.58553e-05,-4.87374e-06,0
-3.17778e-06,-0.000166889,-3.60193e-05,-1.91457e-05,2.42871e-05,1.09033e-06,-8.01379e-06,-4.32742e-06,0
-2.59878e-05,-0.000198791,-1.54137e-05,-1.12742e-05,1.66158e-05,-4.70127e-06,3.46414e-07,-3.33427e-06,0
-4.65555e-05,-0.000181825,-4.18153e-06,-8.59713e-06,-7.10989e-08,-1.42554e-05,6.17158e-06,-2.38234e-06,0
-4.95029e-05,-0.000129991,2.86733e-06,-5.88977e-06,-1.14453e-05,-1.95551e-05,1.39065e-05,-8.44805e-07,0
-2.42313e-05,-5.63927e-05,1.02138e-05,6.0565e-06,-1.00966e-05,-1.72214e-05,2.73991e-05,6.58909e-07,0
2.03124e-05,1.56072e-05,1.6872e-05,2.93516e-05,-1.19529e-06,-1.33049e-05,4.20004e-05,-2.31487e-07,0
6.39503e-05,6.50129e-05,1.7659e-05,5.14635e-05,6.20009e-06,-1.2152e-05,5.13401e-05,-1.34284e-06,0
8.81833e-05,8.47435e-05,8.59702e-06,5.26678e-05,8.73762e-06,-1.20356e-05,5.68564e-05,-7.48288e-07,0
8.22858e-05,7.14407e-05,-1.04368e-05,2.45485e-05,9.0631e-06,-1.21698e-05,6.12462e-05,3.5954e-07,0
4.46946e-05,2.69073e-05,-4.16169e-05,-1.23493e-05,8.28035e-06,-1.2602e-05,6.40736e-05,1.5803e-06,0
-1.20579e-05,-3.01375e-06,-7.23268e-05,-3.29777e-05,2.50314e-06,-1.46276e-05,6.3395e-05,2.27215e-06,0
-7.15338e-05,2.17655e-05,-7.51371e-05,-4.44239e-05,-6.93846e-06,-1.86317e-05,5.90071e-05,2.4523e-06,0
-0.000122659,5.2966e-05,-4.88846e-05,-5.80935e-05,-1.25169e-05,-1.95422e-05,5.24411e-05,3.01367e-06,0
-0.000165058,5.32632e-05,-1.83928e-05,-6.4705e-05,-1.10161e-05,-1.77407e-05,4.82212e-05,3.71574e-06,0
-0.000190329,5.84531e-05,-2.47256e-06,-6.61717e-05,-5.47481e-06,-1.75312e-05,4.6029e-05,4.62904e-06,0
-0.000193887,8.62023e-05,-6.18743e-07,-7.12031e-05,3.59145e-06,-1.87089e-05,3.95829e-05,5.49256e-06,0
-0.000188288,0.000124729,-4.54531e-06,-8.31981e-05,1.17186e-05,-2.1751e-05,2.91909e-05,6.16198e-06,0
-0.000177144,0.000168069,-9.97331e-06,-0.000100795,7.72971e-06,-2.36793e-05,1.90596e-05,6.3197e-06,0
-0.000161086,0.000231576,-1.36664e-05,-0.00011163,-5.93321e-06,-2.14023e-05,1.40634e-05,7.39358e-06,0
-0.000126407,0.000338442,-1.53949e-05,-9.42605e-05,-1.6199e-05,-1.77588e-05,1.37905e-05,7.16827e-06,0
-7.21809e-05,0.000435695,-1.04899e-05,-4.17265e-05,-1.24623e-05,-1.39612e-05,1.58831e-05,3.90739e-06,0
-1.75011e-05,0.000436001,-2.32816e-06,2.31159e-05,1.34454e-06,-9.77372e-06,1.90046e-05,8.01595e-07,0
2.0461e-05,0.000298708,6.24448e-07,7.80879e-05,8.80152e-06,-7.12165e-06,2.16513e-05,4.02675e-07,0
4.95314e-05,5.07582e-05,-2.2809e-06,0.000115385,6.63293e-06,-7.27796e-06,2.26961e-05,1.46885e-06,0
7.48276e-05,-0.000220999,-5.47239e-06,0.000120661,4.20415e-06,-7.3953e-06,1.85012e-05,5.34509e-07,0
8.87439e-05,-0.000433967,-1.76646e-06,7.93989e-05,7.39702e-06,-5.21079e-06,1.18134e-05,-1.13071e-06,0
9.57931e-05,-0.000559254,6.9913e-06,1.47489e-05,1.22637e-05,-1.98024e-06,1.23341e-05,-2.28108e-06,0
8.95854e-05,-0.000602696,1.27352e-05,-2.03576e-05,1.52744e-05,-2.28058e-06,1.96769e-05,-1.80626e-06,0
5.89116e-05,-0.000541568,1.22117e-05,-2.05092e-05,1.52466e-05,-8.51507e-06,2.55103e-05,-9.85849e-07,0
5.20122e-06,-0.000373718,1.13106e-05,-3.22226e-05,1.08014e-05,-1.67668e-05,2.58297e-05,-5.41612e-07,0
-5.30343e-05,-0.000191814,1.46598e-05,-7.1304e-05,3.62585e-06,-2.13467e-05,2.28383e-05,4.05398e-07,0
-9.82032e-05,-0.000106903,2.07369e-05,-0.000111694,-3.65025e-06,-2.14583e-05,1.86209e-05,1.17763e-06,0
-0.000118977,-0.000121199,2.34887e-05,-0.000134067,-7.59699e-06,-2.14599e-05,1.36561e-05,-5.40032e-08,0
-0.000122664,-0.000138189,2.169e-05,-0.000125112,-6.31428e-06,-2.33253e-05,8.96844e-06,-2.53383e-06,0
-0.000124567,-9.54944e-05,1.90433e-05,-6.84176e-05,1.57109e-06,-2.40809e-05,6.62249e-06,-3.66334e-06,0
-0.000121305,-3.43312e-05,1.56884e-05,2.23709e-05,1.14952e-05,-2.16959e-05,6.93421e-06,-3.08145e-06,0
-0.000102945,-2.74251e-05,1.19545e-05,7.50475e-05,1.43752e-05,-2.0316e-05,7.1235e-06,-2.83009e-06,0
-8.01236e-05,-7.77197e-05,1.04143e-05,5.73677e-05,8.77907e-06,-2.0521e-05,4.42628e-06,-5.27833e-06,0
-6.93384e-05,-0.000102984,1.0148e-05,3.03622e-05,3.55959e-06,-1.95888e-05,-1.52341e-08,-6.72042e-06,0
-7.4776e-05,-6.56293e-05,8.81803e-06,3.09594e-05,4.97281e-06,-1.8334e-05,-2.38138e-06,-5.07722e-06,0
-9.29476e-05,-9.89394e-06,5.62474e-06,4.75091e-05,1.55597e-05,-1.60743e-05,-4.94811e-06,-4.69201e-06,0
-0.000114224,2.66534e-05,7.22816e-06,4.92544e-05,3.01269e-05,-1.23473e-05,-9.7931e-06,-5.80206e-06,0
-0.000126547,4.94071e-05,1.59977e-05,1.79134e-05,3.87344e-05,-1.09383e-05,-2.13881e-05,-6.65395e-06,0
-0.000116714,7.71613e-05,2.3839e-05,-3.73175e-05,3.76117e-05,-1.14535e-05,-3.88178e-05,-6.14148e-06,0
-7.658e-05,0.000116259,2.51231e-05,-8.18794e-05,2.93273e-05,-1.17212e-05,-4.80766e-05,-4.2089e-06,0
-1.71552e-05,0.000157935,2.24738e-05,-8.50183e-05,2.17485e-05,-1.00835e-05,-4.18459e-05,-2.84301e-06,0
3.6602e-05,0.000178539,2.06613e-05,-6.30851e-05,1.84045e-05,-7.51597e-06,-2.15627e-05,-1.91792e-06,0
6.79545e-05,0.000189099,1.1416e-05,-4.89135e-05,1.8908e-05,-7.49686e-06,2.90583e-06,-1.48552e-06,0
7.48639e-05,0.000193695,-9.69388e-06,-5.1847e-05,1.87755e-05,-8.13573e-06,1.89229e-05,-1.4925e-06,0
6.59635e-05,0.000175337,-3.72766e-05,-5.74975e-05,1.43501e-05,-8.56562e-06,2.35303e-05,-2.28593e-06,0
5.00938e-05,0.00014179,-6.00244e-05,-4.75792e-05,7.91855e-06,-1.06572e-05,2.21281e-05,-2.23827e-06,0
3.15997e-05,0.000124574,-6.63923e-05,-1.44538e-05,5.12856e-06,-1.40901e-05,2.03335e-05,-1.76239e-06,0
1.08865e-05,0.000124067,-5.29967e-05,2.22777e-05,7.57437e-06,-1.74662e-05,1.91647e-05,-1.06845e-06,0
-1.07555e-05,0.000106148,-2.62878e-05,3.96563e-05,1.1271e-05,-1.86671e-05,1.75109e-05,2.28387e-07,0
-3.19711e-05,4.87766e-05,-5.48754e-07,3.1702e-05,1.48424e-05,-1.65603e-05,1.42574e-05,8.61771e-07,0
-4.73384e-05,-3.69477e-05,1.38138e-05,1.13256e-05,1.80371e-05,-1.5514e-05,1.10605e-05,-6.42797e-07,0
-4.95593e-05,-0.000113504,1.60487e-05,-5.94796e-06,1.91908e-05,-1.87092e-05,1.02287e-05,-3.29554e-06,0
-3.5777e-05,-0.000143602,1.00531e-05,-1.77786e-05,1.66437e-05,-2.41584e-05,1.14729e-05,-3.97663e-06,0
-1.5993e-05,-0.000120699,-3.99858e-06,-2.88036e-05,1.1609e-05,-2.8591e-05,1.34758e-05,-2.74902e-06,0
-3.47225e-07,-7.04007e-05,-2.00002e-05,-3.6883e-05,8.80807e-06,-2.98941e-05,1.53304e-05,-2.60515e-07,0
1.21373e-05,-8.88945e-06,-2.74445e-05,-4.4692e-05,1.25628e-05,-2.74113e-05,1.58339e-05,3.22012e-06,0
1.90124e-05,4.9543e-05,-2.7195e-05,-6.8497e-05,1.90603e-05,-2.21651e-05,1.54977e-05,5.88668e-06,0
1.24231e-05,9.5194e-05,-3.09129e-05,-0.000110831,1.98507e-05,-1.5962e-05,1.61366e-05,5.39513e-06,0
-9.57171e-06,0.000120629,-4.23243e-05,-0.000145216,1.39195e-05,-1.10845e-05,1.59511e-05,4.12176e-06,0
-4.25586e-05,0.000112644,-5.66513e-05,-0.000138308,9.90305e-06,-7.91385e-06,1.26836e-05,4.85508e-06,0
-8.43982e-05,6.65503e-05,-6.75462e-05,-8.30237e-05,1.27431e-05,-6.75692e-06,9.08938e-06,5.8726e-06,0
-0.000122941,1.34338e-05,-6.53701e-05,-3.07307e-06,1.81337e-05,-6.53495e-06,6.65913e-06,4.69097e-06,0
-0.00013813,-2.57454e-05,-4.69899e-05,5.78104e-05,2.06764e-05,-5.1611e-06,5.74234e-06,3.85057e-06,0
-0.000123761,-5.29898e-05,-2.54416e-05,7.41563e-05,1.74622e-05,-4.14169e-06,8.08333e-06,4.66357e-06,0
-9.10976e-05,-5.89784e-05,-1.2051e-05,7.73058e-05,1.25451e-05,-2.83754e-06,1.18854e-05,5.49461e-06,0
-5.47733e-05,-2.66842e-05,-5.42077e-06,7.65372e-05,9.68319e-06,-1.88352e-06,1.40724e-05,5.29071e-06,0
-2.85568e-05,5.38313e-05,-2.43525e-06,3.37477e-05,6.44203e-06,-3.51979e-06,1.08683e-05,4.69635e-06,0
-1.91966e-05,0.000143796,4.73714e-06,-1.8486e-05,2.98327e-06,-7.51267e-06,-6.99357e-06,4.50588e-06,0
-1.51047e-05,0.000181131,1.7865e-05,-1.41959e-05,5.18193e-06,-9.99872e-06,-3.7358e-05,4.96974e-06,0
-5.79237e-06,0.000146437,2.82889e-05,4.49572e-05,1.46819e-05,-5.98978e-06,-5.27244e-05,5.75755e-06,0
6.06075e-06,7.11755e-05,2.9691e-05,0.000107466,2.46352e-05,8.40917e-07,-3.45784e-05,5.95309e-06,0
8.23567e-06,-9.67944e-06,2.35091e-05,0.000139887,3.12856e-05,2.41453e-06,8.85383e-06,6.41523e-06,0
-2.83241e-06,-6.05156e-05,1.61963e-05,0.000141465,3.50061e-05,-8.43117e-07,5.23622e-05,8.37938e-06,0
-1.69961e-05,-6.36699e-05,9.66323e-06,0.000125555,3.5472e-05,-2.95296e-06,7.35576e-05,1.00298e-05,0
-2.68972e-05,-3.46972e-05,-3.1178e-08,0.000103197,2.96741e-05,-2.93464e-06,5.81116e-05,8.37758e-06,0
-3.00131e-05,2.80601e-06,-1.02053e-05,8.8312e-05,2.13164e-05,-3.35608e-06,8.76165e-06,3.90699e-06,0
-2.54516e-05,2.64691e-05,-1.30918e-05,8.56248e-05,1.73031e-05,-2.82578e-06,-3.96455e-05,1.11578e-07,0
-1.23922e-05,2.48258e-05,-9.48027e-06,7.72024e-05,1.56637e-05,5.7472e-08,-5.54937e-05,-3.42166e-07,0
1.56275e-06,8.67922e-06,-6.24491e-06,5.66409e-05,1.25614e-05,2.02716e-06,-3.79133e-05,8.88489e-07,0
6.95316e-06,4.50902e-06,-4.09674e-06,3.92851e-05,7.8851e-06,5.83352e-07,-1.05493e-05,2.03313e-06,0
2.07248e-06,1.85855e-05,1.00929e-06,3.15059e-05,5.17768e-06,-3.15646e-06,1.12567e-05,2.48896e-06,0
-9.00589e-06,3.52419e-05,6.5584e-06,2.16196e-05,6.14208e-06,-5.93844e-06,3.24109e-05,2.13599e-06,0
-2.25601e-05,4.09771e-05,7.53312e-06,1.11277e-05,7.25309e-06,-7.249e-06,5.56551e-05,6.83489e-07,0
-3.46541e-05,4.02502e-05,5.05118e-06,4.18082e-07,4.62245e-06,-9.10649e-06,7.32993e-05,-4.75154e-07,0
-4.20419e-05,4.0253e-05,1.36955e-06,-2.37682e-05,2.11328e-06,-1.08116e-05,8.27726e-05,-6.52757e-07,0
-3.91029e-05,3.95548e-05,-6.28581e-06,-6.4701e-05,3.14835e-06,-1.07467e-05,8.86243e-05,-1.34294e-06,0
-2.34481e-05,4.3418e-05,-2.11154e-05,-9.25995e-05,5.77956e-06,-9.01665e-06,9.1577e-05,-2.18723e-06,0
-9.20811e-06,5.62403e-05,-3.97372e-05,-7.27157e-05,7.09588e-06,-8.06914e-06,8.7368e-05,-1.20242e-06,0
-8.90897e-06,5.51033e-05,-5.38511e-05,-1.05368e-05,5.82299e-06,-1.07223e-05,7.41004e-05,-2.52214e-07,0
-1.69451e-05,3.05906e-05,-5.51722e-05,6.26473e-05,4.49494e-06,-1.49461e-05,4.53774e-05,-1.35859e-06,0
-2.58695e-05,1.42927e-05,-4.34599e-05,0.000105022,6.65998e-06,-1.65955e-05,-3.82737e-05,-1.10731e-06,0
-3.53576e-05,5.44355e-06,-3.0176e-05,0.000101987,1.01036e-05,-1.45597e-05,-0.00016485,8.68125e-07,0
-4.68959e-05,-8.99298e-06,-2.06168e-05,7.47374e-05,1.2406e-05,-1.14394e-05,-0.000228969,2.49259e-06,0
-5.44856e-05,-1.64642e-05,-1.2866e-05,3.19673e-05,1.36675e-05,-9.64672e-06,-0.000176687,2.25731e-06,0
-5.39679e-05,-1.73421e-05,-9.16901e-06,-1.03125e-05,1.63909e-05,-6.47627e-06,-6.21635e-05,4.44907e-07,0
-4.72981e-05,-2.21595e-05,-9.02678e-06,-4.16873e-05,2.12586e-05,-1.72579e-06,4.58504e-05,-9.84295e-07,0
-3.30672e-05,-3.31926e-05,-5.36873e-06,-5.78667e-05,2.37371e-05,1.39428e-06,0.000126163,-1.99841e-06,0
-1.62324e-05,-3.2439e-05,4.23258e-06,-6.01639e-05,2.55378e-05,2.11984e-06,0.000165216,-9.16864e-07,0
-1.56259e-06,-1.91905e-05,1.76107e-05,-5.40144e-05,2.76994e-05,9.74935e-07,0.000150756,2.56521e-06,0
9.25135e-06,-2.60104e-05,2.9796e-05,-4.39754e-05,2.79525e-05,-1.7635e-06,9.95396e-05,6.15971e-06,0
1.10287e-05,-3.61289e-05,3.88258e-05,-3.53838e-05,2.52802e-05,-5.53226e-06,4.93081e-05,7.81904e-06,0
7.55882e-06,1.71529e-05,4.99148e-05,-2.94031e-05,2.17929e-05,-9.07321e-06,2.89651e-05,8.7213e-06,0
1.10067e-05,0.000126299,6.29283e-05,-3.03948e-05,1.91449e-05,-1.07696e-05,4.49763e-05,1.05811e-05,0
2.00638e-05,0.000213558,6.82209e-05,-3.64411e-05,1.84189e-05,-9.65933e-06,8.72975e-05,1.18013e-05,0
2.3345e-05,0.000242177,6.05589e-05,-4.11482e-05,1.91129e-05,-8.57855e-06,0.000122068,1.06458e-05,0
1.0648e-05,0.000225958,4.7375e-05,-3.6034e-05,1.89812e-05,-9.2153e-06,0.000104689,7.96559e-06,0
-2.2254e-05,0.000177891,3.69013e-05,-2.34346e-05,1.79916e-05,-9.91082e-06,2.36124e-05,6.28345e-06,0
-6.65821e-05,0.000103852,3.34473e-05,-8.63025e-06,1.56088e-05,-1.03727e-05,-6.47951e-05,5.79372e-06,0
-0.000100682,2.93299e-06,3.73282e-05,-3.79875e-06,1.24878e-05,-1.08161e-05,-9.91017e-05,6.57841e-06,0
-0.000110401,-0.000127889,4.16011e-05,-2.06884e-05,1.03407e-05,-1.09007e-05,-7.2193e-05,7.09284e-06,0
-0.00010258,-0.000236991,3.10495e-05,-6.21305e-05,8.83117e-06,-1.23847e-05,-1.66802e-05,5.40404e-06,0
-8.9383e-05,-0.000254493,1.55017e-06,-0.000117118,4.19031e-06,-1.54924e-05,3.91451e-05,3.46266e-06,0
-7.23537e-05,-0.000184172,-3.85922e-05,-0.000161955,-2.00095e-06,-1.7431e-05,8.57735e-05,2.86196e-06,0
-5.13677e-05,-0.000104418,-8.0557e-05,-0.000158885,-2.9194e-06,-1.7626e-05,0.000116995,2.46585e-06,0
-3.8403e-05,-7.26569e-05,-0.000115615,-0.000101443,7.63056e-07,-1.74854e-05,0.000121905,1.92554e-06,0
-3.84353e-05,-6.43651e-05,-0.000136139,-3.02039e-05,3.28919e-06,-1.77331e-05,0.000101877,1.63741e-06,0
-4.2067e-05,-4.59721e-05,-0.000131523,3.33007e-05,5.46495e-06,-1.55136e-05,7.43426e-05,2.11654e-06,0
-4.46153e-05,-2.36611e-05,-0.000102941,8.62966e-05,8.30534e-06,-1.25082e-05,4.94442e-05,3.02948e-06,0
-4.27561e-05,-9.50071e-06,-7.33112e-05,0.000121406,9.93992e-06,-1.30639e-05,2.94447e-05,4.03476e-06,0
-3.26532e-05,-9.89276e-06,-5.87542e-05,0.000114125,1.25362e-05,-1.28811e-05,1.3672e-05,3.52912e-06,0
-1.84583e-05,-2.64468e-05,-5.61022e-05,5.68241e-05,1.78233e-05,-9.1597e-06,1.63592e-05,1.85873e-06,0
-1.18028e-05,-4.13841e-05,-5.56226e-05,-2.16398e-05,2.14378e-05,-5.89428e-06,5.59672e-05,1.47854e-06,0
-1.84973e-05,-4.31919e-05,-5.0037e-05,-9.68437e-05,1.70328e-05,-7.20567e-06,0.000117924,1.85266e-06,0
-3.14562e-05,-3.05492e-05,-4.23599e-05,-0.000127153,1.03187e-05,-1.19699e-05,0.000155616,1.22597e-06,0
-4.19138e-05,-3.07467e-06,-3.54853e-05,-9.80668e-05,1.1375e-05,-1.63146e-05,0.000136354,4.73175e-07,0
-4.72634e-05,2.94748e-05,-2.77923e-05,-3.12171e-05,1.85872e-05,-1.58343e-05,6.67477e-05,-6.26131e-08,0
-5.07826e-05,5.36535e-05,-1.8845e-05,4.98107e-05,2.6071e-05,-9.97684e-06,-2.05305e-05,-1.54353e-06,0
-5.51111e-05,5.80252e-05,-1.12352e-05,0.000111102,2.94417e-05,-3.7123e-06,-0.000101774,-2.14769e-06,0
-5.66888e-05,5.03727e-05,-1.01362e-05,0.000115277,2.65953e-05,-1.6099e-06,-0.000164617,-2.65974e-06,0
-5.01448e-05,4.16197e-05,-1.70131e-05,5.69751e-05,2.06648e-05,-3.90449e-06,-0.000194209,-4.02755e-06,0
-3.55482e-05,3.60521e-05,-2.46625e-05,-2.12833e-05,1.49718e-05,-6.73223e-06,-0.000181631,-5.11735e-06,0
-2.06191e-05,3.62495e-05,-2.54531e-05,-8.17428e-05,9.75662e-06,-7.07926e-06,-0.000140356,-4.63823e-06,0
-1.61537e-05,3.90663e-05,-2.27589e-05,-0.000107994,4.91801e-06,-5.47321e-06,-9.76059e-05,-2.928e-06,0
-2.10612e-05,3.66865e-05,-2.38396e-05,-0.000107718,2.13857e-06,-4.86759e-06,-6.65451e-05,-5.85998e-07,0
-2.28488e-05,3.05935e-05,-2.71555e-05,-0.000104584,1.09379e-06,-5.08454e-06,-4.5081e-05,6.59516e-07,0
-1.45569e-05,4.05388e-05,-2.48953e-05,-0.000114918,-1.02799e-06,-4.04612e-06,-2.68226e-05,-1.93376e-07,0
-2.81371e-06,7.77053e-05,-1.43894e-05,-0.000108707,-2.01349e-06,-3.00687e-06,-1.21124e-05,-1.75103e-06,0
1.59393e-06,0.000125494,-1.78282e-06,-5.48347e-05,1.04359e-06,-3.77735e-06,-2.12879e-06,-3.48324e-06,0
-2.62765e-06,0.000162564,7.98097e-06,3.61796e-05,7.59382e-06,-4.24324e-06,2.50543e-06,-5.03323e-06,0
-7.4772e-06,0.000182575,1.7928e-05,0.000134529,1.44686e-05,-3.04624e-06,3.10529e-06,-5.34291e-06,0
-1.11026e-05,0.000178688,2.7516e-05,0.000206611,1.70559e-05,-2.60795e-06,8.85122e-07,-5.09111e-06,0
-1.36031e-05,0.000160117,3.2518e-05,0.000181394,1.48706e-05,-4.77428e-06,-4.7694e-06,-5.3317e-06,0
-1.25498e-05,0.00013822,3.32011e-05,6.45231e-05,1.26025e-05,-5.40297e-06,-9.72372e-06,-5.70019e-06,0
-7.64514e-06,9.57964e-05,2.88594e-05,-2.85407e-05,1.14779e-05,-2.30477e-06,-6.36482e-06,-6.55561e-06,0
9.73562e-07,3.27751e-05,2.34179e-05,-3.93268e-05,8.69754e-06,-3.50933e-08,1.87754e-06,-6.28334e-06,0
5.77459e-06,-4.35291e-05,2.25784e-05,-3.85237e-06,8.45426e-06,-2.05445e-06,5.1132e-06,-4.89076e-06,0
9.71184e-07,-0.000133864,2.39701e-05,2.66491e-05,1.04176e-05,-7.01271e-06,5.34935e-06,-3.64607e-06,0
-4.30788e-06,-0.000182993,2.37456e-05,5.1703e-05,1.19169e-05,-1.07958e-05,9.14236e-06,-3.52739e-06,0
-1.64016e-06,-0.000134417,2.24857e-05,7.08133e-05,1.32725e-05,-1.16768e-05,1.45542e-05,-3.53321e-06,0
6.13197e-06,-5.12008e-06,2.23674e-05,7.57313e-05,1.09059e-05,-1.09929e-05,1.79949e-05,-3.93318e-06,0
9.73716e-06,0.000129591,1.81494e-05,5.28192e-05,7.33155e-06,-1.02026e-05,1.89838e-05,-4.77529e-06,0
8.43656e-07,0.000192917,7.61963e-06,1.37935e-05,5.48126e-06,-9.89113e-06,1.7927e-05,-4.2522e-06,0
-1.65757e-05,0.000177703,-1.61751e-06,-1.90367e-05,5.85229e-06,-8.99003e-06,1.7377e-05,-2.64293e-06,0
-3.29965e-05,0.000120397,-2.84105e-06,-3.54281e-05,7.62852e-06,-7.65692e-06,1.70174e-05,-1.9784e-06,0
-4.31271e-05,4.89679e-05,1.52988e-06,-3.69536e-05,1.07658e-05,-6.6568e-06,1.55649e-05,-2.71454e-06,0
-4.72577e-05,-1.80853e-05,5.0074e-06,-2.39229e-05,1.57107e-05,-6.48572e-06,1.36354e-05,-3.61531e-06,0
-4.85968e-05,-6.92084e-05,4.2962e-06,9.11024e-06,2.35967e-05,-7.76096e-06,1.35045e-05,-4.01192e-06,0
-4.67991e-05,-0.000109071,-1.41406e-06,3.56338e-05,3.31815e-05,-9.23874e-06,1.50998e-05,-3.60827e-06,0
-3.63741e-05,-0.000153037,-9.09908e-06,3.43001e-05,3.75935e-05,-1.06544e-05,1.68966e-05,-3.60522e-06,0
-1.29948e-05,-0.000194458,-1.31339e-05,1.43079e-05,3.39192e-05,-1.30465e-05,1.79456e-05,-2.77979e-06,0
2.73691e-05,-0.000189277,-7.86813e-06,-5.08041e-06,2.52715e-05,-1.67732e-05,1.80757e-05,-4.99453e-07,0
7.87146e-05,-0.000116217,4.85676e-06,-1.99013e-05,1.77544e-05,-1.95841e-05,1.76836e-05,7.51646e-07,0
0.000110103,-2.30037e-05,1.73529e-05,-2.96951e-05,1.47035e-05,-1.84591e-05,1.78966e-05,-3.31039e-07,0
0.000104592,3.94012e-05,2.35614e-05,-4.34997e-05,1.61894e-05,-1.28596e-05,1.9178e-05,-7.94709e-07,0
9.09212e-05,9.17436e-05,2.32613e-05,-6.6983e-05,1.89896e-05,-5.94135e-06,2.04159e-05,-4.85608e-07,0
8.74661e-05,0.000167886,1.78173e-05,-8.63583e-05,2.1425e-05,-4.25472e-07,2.13186e-05,-1.26149e-06,0
6.87983e-05,0.000232945,5.60388e-06,-7.01022e-05,2.34018e-05,2.16661e-06,2.16695e-05,-2.29594e-06,0
1.51145e-05,0.000226106,-1.07565e-05,-1.91177e-05,2.45351e-05,-1.31766e-06,2.18168e-05,-2.40545e-06,0
-6.84176e-05,0.000150362,-2.01745e-05,2.42534e-05,2.42726e-05,-1.02455e-05,2.18861e-05,-9.13354e-07,0
-0.000155489,5.61575e-05,-2.04241e-05,3.10734e-05,2.14131e-05,-1.83001e-05,2.07309e-05,1.30373e-06,0
-0.000222936,-6.15951e-05,-2.78678e-05,-1.55875e-07,1.65326e-05,-2.05903e-05,1.72673e-05,2.50074e-06,0
-0.000256673,-0.000171257,-4.22375e-05,-5.53057e-05,1.41574e-05,-1.90458e-05,1.60021e-05,2.92458e-06,0
-0.000252768,-0.000216361,-4.72332e-05,-0.000118136,1.26388e-05,-1.84297e-05,1.7657e-05,3.58813e-06,0
-0.00023179,-0.000213739,-4.09512e-05,-0.000160522,1.04271e-05,-1.74032e-05,1.81632e-05,2.87631e-06,0
-0.000210074,-0.000172233,-2.72659e-05,-0.000151347,1.25185e-05,-1.64243e-05,1.90362e-05,1.42982e-06,0
-0.00019093,-0.000104794,-1.35061e-05,-9.82504e-05,1.7018e-05,-1.519e-05,2.11597e-05,6.0564e-07,0
-0.000161104,-4.14172e-05,-5.75224e-06,-4.15594e-05,2.06287e-05,-1.34697e-05,2.44917e-05,3.83174e-07,0
-0.000126108,-1.49673e-05,-3.81938e-06,-8.01266e-06,1.92759e-05,-1.36359e-05,2.8467e-05,5.57574e-07,0
-9.86636e-05,-1.99938e-05,-5.67638e-06,1.28149e-05,1.31297e-05,-1.52914e-05,3.28786e-05,7.55403e-07,0
-7.72356e-05,-3.69207e-05,-7.41185e-06,3.10104e-05,5.04112e-06,-1.66687e-05,3.48766e-05,8.71947e-07,0
-5.51492e-05,-5.69144e-05,-7.27355e-06,2.99054e-05,2.27637e-07,-1.50742e-05,2.65462e-05,1.13417e-07,0
-3.09154e-05,-7.24318e-05,-7.51291e-06,1.62089e-05,6.48205e-07,-1.13929e-05,8.30143e-06,6.84044e-08,0
-1.41946e-05,-7.85499e-05,-9.47726e-06,9.29101e-06,2.30014e-06,-8.10457e-06,-5.98694e-06,1.2815e-06,0
-1.20893e-05,-6.8411e-05,-1.15837e-05,6.30202e-06,3.17795e-06,-7.01493e-06,-5.00111e-06,1.94846e-06,0
-2.20139e-05,-4.40688e-05,-1.31298e-05,-2.51942e-06,2.77211e-06,-7.97451e-06,1.06098e-05,1.5119e-06,0
-2.71493e-05,-9.63224e-06,-1.27892e-05,-4.53114e-06,1.66451e-06,-1.08369e-05,3.20519e-05,1.15518e-06,0
-2.12055e-05,2.42227e-05,-8.61659e-06,1.65857e-05,1.00251e-07,-1.2242e-05,4.98637e-05,1.141e-06,0
-1.23885e-05,4.82889e-05,-1.73475e-06,5.73443e-05,1.84298e-06,-1.016e-05,5.88733e-05,4.36161e-07,0
-1.19721e-05,5.50223e-05,3.14715e-06,9.87759e-05,7.56424e-06,-7.15668e-06,5.67539e-05,-8.91671e-07,0
-1.66e-05,5.22545e-05,4.11666e-06,0.000117449,1.3938e-05,-5.5906e-06,4.43156e-05,-1.32663e-06,0
-1.84469e-05,4.79636e-05,5.8066e-06,0.000100015,1.78557e-05,-5.06208e-06,2.8186e-05,-1.1662e-07,0
-1.42368e-05,4.24451e-05,1.29892e-05,5.60059e-05,2.08827e-05,-5.22059e-06,1.67733e-05,1.37215e-06,0
-8.40431e-06,4.09608e-05,2.0882e-05,7.31517e-06,2.40034e-05,-6.335e-06,9.90671e-06,2.09974e-06,0
-3.33252e-06,6.35099e-05,2.12859e-05,-3.29655e-05,2.50562e-05,-7.49023e-06,5.23882e-06,3.6143e-06,0
1.11585e-07,0.000105566,1.35047e-05,-6.23722e-05,2.31573e-05,-6.89991e-06,3.282e-06,5.78655e-06,0
-5.35288e-07,0.000135911,6.00785e-06,-7.69842e-05,2.10642e-05,-6.25688e-06,3.60955e-06,5.21299e-06,0
-4.33547e-06,0.000134302,2.48877e-06,-7.0717e-05,1.98764e-05,-8.5574e-06,4.20645e-06,3.3993e-06,0
-9.68547e-06,9.10854e-05,2.08293e-08,-4.84631e-05,1.78079e-05,-1.05342e-05,2.82226e-06,1.11487e-06,0
-1.25119e-05,3.21362e-05,-3.20348e-07,-2.01905e-05,1.80006e-05,-1.00843e-05,1.74737e-06,8.24779e-08,0
-1.22046e-05,-1.20049e-05,2.23058e-06,1.76925e-05,1.77476e-05,-9.40005e-06,5.99513e-06,1.53178e-06,0
-8.362e-06,-4.17063e-05,1.04233e-05,5.92395e-05,1.50555e-05,-8.95042e-06,1.32752e-05,1.2423e-06,0
-8.65751e-07,-4.86201e-05,2.70951e-05,7.79291e-05,1.23131e-05,-7.34377e-06,1.66588e-05,2.85001e-07,0
4.52981e-06,-3.09139e-05,4.78404e-05,6.90984e-05,8.60676e-06,-7.22478e-06,1.52029e-05,1.66356e-06,0
6.17188e-06,4.8856e-06,6.10697e-05,4.66577e-05,7.50798e-06,-9.60657e-06,1.3107e-05,3.76035e-06,0
8.86944e-06,4.52647e-05,5.9119e-05,3.06283e-05,9.1789e-06,-1.21069e-05,1.35908e-05,6.44695e-06,0
1.36459e-05,7.06469e-05,4.30994e-05,2.5756e-05,1.10735e-05,-1.25947e-05,1.07227e-05,8.544e-06,0
1.90527e-05,8.42238e-05,1.71055e-05,2.0407e-05,1.31043e-05,-1.25416e-05,-2.71334e-06,8.39347e-06,0
2.23008e-05,0.000107967,-1.23502e-05,3.25536e-06,1.42724e-05,-1.26623e-05,-1.88803e-05,7.10472e-06,0
2.27883e-05,0.000145188,-4.11403e-05,-3.02052e-05,1.487e-05,-1.03947e-05,-2.46035e-05,6.09709e-06,0
2.13682e-05,0.000172273,-6.32578e-05,-7.78636e-05,1.54696e-05,-6.89793e-06,-1.70413e-05,6.20834e-06,0
1.72346e-05,0.000163692,-7.65155e-05,-0.000124797,1.65998e-05,-4.29726e-06,-3.51092e-06,6.23352e-06,0
4.68289e-06,0.000101248,-9.05278e-05,-0.000145429,1.82785e-05,-4.39161e-06,9.46196e-06,5.58249e-06,0
-1.74616e-05,-1.9845e-06,-0.00011447,-0.000124033,1.9249e-05,-7.28952e-06,2.14591e-05,4.59677e-06,0
-4.33421e-05,-0.000108612,-0.000138057,-6.79482e-05,1.84114e-05,-1.12266e-05,3.36009e-05,3.75069e-06,0
-6.85788e-05,-0.000175289,-0.000138039,-2.30349e-06,1.8797e-05,-1.33362e-05,4.36312e-05,2.87741e-06,0
-8.9007e-05,-0.000175974,-0.000112262,5.30382e-05,2.43643e-05,-1.19154e-05,4.806e-05,1.0493e-06,0
-9.40792e-05,-0.000118251,-8.05548e-05,8.86665e-05,3.54755e-05,-7.34907e-06,4.8066e-05,-1.83992e-06,0
-7.93787e-05,-4.65891e-05,-5.6666e-05,0.000107932,4.2844e-05,-1.10604e-06,4.6724e-05,-3.47877e-06,0
-5.30867e-05,2.20446e-09,-3.38331e-05,0.000101571,3.81629e-05,2.29513e-06,4.31902e-05,-3.37957e-06,0
-2.51824e-05,1.62154e-05,-6.19034e-06,5.81884e-05,2.96547e-05,1.40879e-06,3.49222e-05,-2.42428e-06,0
-1.97893e-06,1.81243e-05,1.56443e-05,9.95928e-06,2.90787e-05,1.96472e-07,2.57728e-05,-1.23678e-06,0
1.18738e-05,1.93377e-05,2.51291e-05,-1.09379e-05,3.54746e-05,2.07328e-06,2.32188e-05,1.43537e-07,0
1.63558e-05,2.43483e-05,2.72607e-05,-2.71611e-05,3.71765e-05,4.93539e-06,2.60778e-05,1.49114e-06,0
2.12846e-05,2.91342e-05,2.56547e-05,-5.6573e-05,2.81078e-05,3.63946e-06,2.28655e-05,2.4193e-06,0
2.82036e-05,2.87241e-05,1.82601e-05,-6.90487e-05,1.50171e-05,-2.64412e-06,-1.93371e-05,2.18832e-06,0
2.10569e-05,2.3894e-05,7.48569e-06,-3.92096e-05,8.8056e-06,-8.3087e-06,-0.00010624,8.21696e-07,0
5.86258e-07,1.91536e-05,-5.11106e-07,5.54588e-06,8.83905e-06,-9.39232e-06,-0.000182262,-6.67212e-07,0
-1.99349e-05,1.73356e-05,-5.96302e-06,3.63411e-05,9.86688e-06,-7.52545e-06,-0.000200461,-1.27722e-06,0
-3.30115e-05,1.72758e-05,-6.61728e-06,5.14584e-05,1.11059e-05,-5.95213e-06,-0.000157165,-1.42788e-06,0
-3.84093e-05,1.67073e-05,3.8287e-06,5.12259e-05,1.06429e-05,-6.61532e-06,-8.39853e-05,-2.1338e-06,0
-4.44291e-05,1.42501e-05,2.14385e-05,3.80981e-05,8.67777e-06,-8.41237e-06,-7.11771e-06,-2.13686e-06,0
-4.55129e-05,1.48682e-05,3.16966e-05,1.48457e-05,2.37562e-06,-1.2398e-05,4.87129e-05,-1.39964e-06,0
-3.39678e-05,2.4222e-05,3.33967e-05,-9.48459e-06,-6.03341e-06,-1.60288e-05,7.04271e-05,8.91567e-07,0
-1.47644e-05,4.22938e-05,3.66389e-05,-3.06499e-05,-1.23554e-05,-1.70842e-05,8.02159e-05,2.54606e-06,0
-5.83556e-07,5.78409e-05,4.58274e-05,-4.58567e-05,-1.40244e-05,-1.68319e-05,9.9768e-05,1.86968e-06,0
8.64349e-07,6.70665e-05,5.51055e-05,-4.86064e-05,-8.59057e-06,-1.45035e-05,0.000128281,-6.21122e-07,0
-1.02346e-05,7.05084e-05,5.66982e-05,-3.82091e-05,1.63575e-07,-1.10297e-05,0.00015094,-2.77351e-06,0
-2.72608e-05,7.11336e-05,4.80932e-05,-3.09482e-05,6.40159e-06,-9.01746e-06,0.000160284,-2.58343e-06,0
-4.28332e-05,6.79767e-05,2.92318e-05,-3.35835e-05,8.69013e-06,-1.02289e-05,0.000155388,-1.63463e-06,0
-5.54133e-05,5.51647e-05,5.55949e-06,-2.4724e-05,9.28755e-06,-1.19857e-05,0.000140208,-1.57104e-06,0
-6.852e-05,1.4985e-05,-1.20907e-05,1.37246e-05,8.29029e-06,-1.2945e-05,0.000120116,-2.99999e-06,0
-8.40148e-05,-4.55529e-05,-1.52163e-05,6.66222e-05,7.75182e-06,-1.30248e-05,0.000100977,-4.63278e-06,0
-9.61215e-05,-6.05446e-05,-9.7234e-06,9.50592e-05,9.41602e-06,-1.12051e-05,8.26268e-05,-5.30909e-06,0
-9.92975e-05,1.04155e-05,-1.10977e-05,7.36512e-05,1.30186e-05,-8.52089e-06,6.16944e-05,-4.27864e-06,0
-9.0264e-05,0.000124063,-3.25823e-05,1.69757e-05,1.51847e-05,-7.57819e-06,3.85544e-05,-2.5588e-06,0
-6.60244e-05,0.000227213,-7.27457e-05,-4.18846e-05,1.4468e-05,-8.2552e-06,1.95734e-05,-1.37776e-06,0
-2.66683e-05,0.000301434,-0.000103748,-8.74e-05,1.10728e-05,-8.73739e-06,6.80657e-06,-4.94361e-07,0
1.54719e-05,0.000325619,-9.51399e-05,-0.000105655,7.41562e-06,-7.7622e-06,-3.56241e-06,1.10112e-06,0
3.74611e-05,0.000276977,-5.85404e-05,-9.34888e-05,5.46546e-06,-5.72145e-06,-1.49202e-05,2.80905e-06,0
3.0133e-05,0.000164703,-2.30651e-05,-5.98711e-05,5.65316e-06,-4.00354e-06,-2.59805e-05,2.42798e-06,0
9.69948e-06,2.24097e-05,5.70079e-08,-1.8063e-05,6.64617e-06,-3.88848e-06,-3.34993e-05,2.05985e-07,0
-1.09878e-05,-0.000105406,4.21395e-06,1.98642e-05,6.74456e-06,-5.92131e-06,-3.57765e-05,-3.49799e-08,0
-2.57137e-05,-0.000132114,-1.525e-05,4.67237e-05,8.82777e-06,-9.59787e-06,-3.30558e-05,5.96925e-07,0
-2.4034e-05,-5.86092e-05,-4.64265e-05,6.06311e-05,1.26403e-05,-1.39003e-05,-3.03834e-05,7.95739e-07,0
-1.13182e-06,1.61801e-05,-7.61329e-05,6.66838e-05,1.6907e-05,-1.50904e-05,-2.92212e-05,1.50255e-06,0
2.87939e-05,2.4572e-05,-9.79913e-05,5.84161e-05,1.67505e-05,-1.3504e-05,-3.34315e-05,2.16442e-06,0
4.05029e-05,-4.26622e-05,-0.00010445,4.08741e-05,1.14488e-05,-1.24693e-05,-5.55529e-05,2.31433e-06,0
2.85235e-05,-0.000117972,-9.49197e-05,5.10932e-05,6.94206e-06,-1.20248e-05,-8.78814e-05,1.23627e-06,0
4.96253e-07,-0.000164856,-7.53652e-05,8.02607e-05,6.10493e-06,-1.27101e-05,-0.000103953,-1.81387e-07,0
-3.72487e-05,-0.000187526,-5.56298e-05,4.77216e-05,6.87394e-06,-1.5284e-05,-0.000101823,-1.62272e-06,0
-7.69109e-05,-0.000180111,-3.94001e-05,-5.65626e-05,3.60755e-06,-1.99824e-05,-9.16156e-05,-1.15746e-06,0
-0.000114109,-0.000139694,-2.50582e-05,-0.000154656,-1.98959e-06,-2.54018e-05,-7.53267e-05,5.51077e-07,0
-0.00014196,-8.97146e-05,-1.19913e-05,-0.000189963,-3.00617e-06,-2.75343e-05,-4.87395e-05,3.24781e-06,0
-0.000152351,-5.02432e-05,1.28072e-07,-0.00016895,2.87712e-06,-2.52293e-05,-1.15648e-05,5.65812e-06,0
-0.000148141,-1.29135e-05,1.11014e-05,-0.0001115,1.33205e-05,-1.98277e-05,2.63388e-05,5.87225e-06,0
-0.00013599,1.35531e-05,1.84433e-05,-3.23888e-05,2.47546e-05,-1.41785e-05,5.57267e-05,4.24016e-06,0
-0.000118412,9.24744e-06,1.9984e-05,3.61507e-05,3.13918e-05,-1.17245e-05,7.65228e-05,3.21083e-06,0
-9.52728e-05,-2.70338e-05,1.83633e-05,7.16268e-05,3.16325e-05,-1.34993e-05,9.17181e-05,4.05991e-06,0
-7.16469e-05,-8.60571e-05,1.86893e-05,8.24914e-05,3.05666e-05,-1.68609e-05,0.000101005,4.10597e-06,0
-5.38634e-05,-0.000176245,2.01644e-05,8.35654e-05,2.90256e-05,-1.97646e-05,0.000103312,3.11364e-06,0
-3.79144e-05,-0.00025713,1.96371e-05,6.28805e-05,2.29312e-05,-2.10669e-05,9.96765e-05,2.63744e-06,0
-1.49352e-05,-0.000245661,1.80333e-05,1.80219e-05,1.35213e-05,-1.88005e-05,9.42311e-05,3.23937e-06,0
1.62232e-05,-0.000135573,1.63422e-05,-3.58535e-05,6.89892e-06,-1.26629e-05,8.91542e-05,3.68838e-06,0
5.41896e-05,2.75632e-06,1.48324e-05,-8.22848e-05,5.32942e-06,-5.57645e-06,8.11017e-05,4.43629e-06,0
9.29983e-05,0.000111022,1.54042e-05,-0.000105322,6.76565e-06,-1.5485e-06,6.86186e-05,4.40568e-06,0
0.000107841,0.000169067,1.92079e-05,-8.94005e-05,9.13272e-06,2.62216e-07,5.40597e-05,3.02231e-06,0
8.51935e-05,0.00019534,2.38558e-05,-3.88239e-05,1.11318e-05,1.37663e-06,3.69846e-05,2.6352e-06,0
4.16504e-05,0.000194773,2.42806e-05,1.3937e-05,1.07455e-05,1.33356e-07,1.83907e-05,1.83565e-06,0
-1.22847e-05,0.000137274,1.9518e-05,4.91588e-05,1.00247e-05,-4.37633e-06,5.35951e-07,-3.8585e-07,0
-6.5723e-05,4.72433e-05,1.32525e-05,5.81255e-05,1.08984e-05,-7.79959e-06,-1.05874e-05,5.19811e-08,0
-0.00010935,1.10751e-05,8.28414e-06,5.239e-05,1.37156e-05,-4.70228e-06,-1.61384e-05,1.04477e-06,0
-0.00014588,6.28644e-05,8.07477e-06,4.31274e-05,1.68326e-05,-1.48193e-06,-1.89916e-05,-6.54366e-07,0
-0.000168827,0.000143658,8.23271e-06,2.23455e-05,1.6181e-05,-5.44556e-06,-1.87766e-05,-1.93226e-06,0
-0.000168159,0.000148229,5.45536e-06,1.10553e-05,1.58418e-05,-1.09543e-05,-1.91029e-05,-2.0749e-06,0
-0.000141404,4.21456e-05,4.40719e-06,1.78054e-05,1.67198e-05,-1.29874e-05,-1.63258e-05,-2.23007e-06,0
-0.000105341,-9.36485e-05,6.85354e-06,3.37375e-05,1.38372e-05,-1.17366e-05,-1.00347e-05,-7.34372e-07,0
-6.88674e-05,-0.000155195,6.26817e-06,4.78056e-05,1.13217e-05,-7.03532e-06,-3.77633e-06,3.93405e-07,0
-3.00976e-05,-0.000113977,-2.7935e-06,3.64157e-05,1.40744e-05,-1.056e-06,-5.92364e-07,5.10269e-07,0
8.03156e-06,-1.93338e-05,-1.50871e-05,-2.50702e-05,1.94393e-05,2.35487e-06,-1.05098e-07,1.02459e-06,0
2.76666e-05,4.21417e-05,-2.24042e-05,-0.000118927,2.00563e-05,1.55055e-06,1.29637e-05,6.89944e-07,0
1.71842e-05,1.42536e-05,-2.01149e-05,-0.00018787,1.13809e-05,-1.62476e-06,5.9767e-05,1.00975e-06,0
-5.46177e-06,-5.73015e-05,-9.46715e-06,-0.000196402,-1.62137e-06,-3.57267e-06,0.000125123,2.25254e-06,0
-1.63527e-05,-9.32069e-05,4.86789e-06,-0.000139858,-7.88274e-06,-2.59359e-06,0.00016079,3.75647e-06,0
-1.18453e-05,-6.35956e-05,1.50292e-05,-4.31443e-05,-4.41982e-06,7.96362e-08,0.000135572,3.55141e-06,0
-8.71317e-06,-1.40093e-05,1.62333e-05,5.48691e-05,5.26469e-07,1.56801e-06,6.11433e-05,1.33064e-06,0
-1.32874e-05,1.48002e-05,9.87686e-06,0.000110643,9.82649e-08,2.42216e-07,-2.53498e-05,-7.55497e-07,0
-1.48268e-05,4.63831e-05,1.90128e-06,0.000103047,-1.76475e-06,-2.40353e-06,-9.69768e-05,-7.49244e-07,0
3.46662e-06,0.000118048,-2.82945e-06,6.13188e-05,2.8555e-06,-3.05661e-06,-0.000141004,8.12824e-07,0
3.52069e-05,0.000200135,-5.18487e-06,4.30769e-05,1.34575e-05,-8.91659e-07,-0.000150675,1.86162e-06,0
5.70803e-05,0.000238013,-6.58218e-06,5.27594e-05,2.51289e-05,2.37118e-06,-0.000124577,8.83646e-07,0
6.72248e-05,0.000220534,-5.93577e-06,5.49141e-05,3.12962e-05,4.76574e-06,-7.88462e-05,-7.09672e-07,0
7.55654e-05,0.000163805,-4.65508e-06,4.15581e-05,2.93383e-05,6.49566e-06,-4.48148e-05,-1.10067e-06,0
7.57586e-05,8.99244e-05,-3.1874e-06,2.94943e-05,2.40288e-05,7.77595e-06,-5.99672e-05,-1.00522e-06,0
6.52118e-05,1.46602e-05,2.39789e-06,2.31796e-05,2.16821e-05,8.26965e-06,-0.000141275,-1.69607e-06,0
4.48198e-05,-6.1295e-05,9.62149e-06,1.15313e-05,2.20716e-05,8.04153e-06,-0.000209974,-2.86031e-06,0
1.12446e-05,-0.000117105,1.25163e-05,4.63456e-06,1.78315e-05,3.67039e-06,-0.000181068,-3.53449e-06,0
-1.93758e-05,-0.000109596,1.27417e-05,1.44157e-05,1.12393e-05,-2.41101e-06,-8.54211e-05,-3.42075e-06,0
-4.19831e-05,-5.47327e-05,1.76037e-05,2.62055e-05,1.05257e-05,-4.31402e-06,1.49394e-05,-2.1427e-06,0
-7.48639e-05,8.2933e-06,2.69108e-05,2.70592e-05,1.33769e-05,-4.66954e-06,9.26142e-05,-1.25899e-06,0
-0.000114655,6.32176e-05,3.77923e-05,1.35167e-05,1.12575e-05,-6.83386e-06,0.000145819,-1.0973e-07,0
-0.000150489,7.367e-05,4.62627e-05,-1.62874e-05,5.39613e-06,-8.07195e-06,0.000169768,6.74275e-07,0
-0.000174349,2.1115e-05,4.52216e-05,-4.93744e-05,4.47134e-06,-6.9994e-06,0.000165249,8.39805e-07,0
-0.000185709,-6.51191e-05,3.37494e-05,-6.90297e-05,7.55971e-06,-6.4084e-06,0.000140296,1.39277e-07,0
-0.000183407,-0.00014004,1.46063e-05,-7.29413e-05,1.08075e-05,-6.68861e-06,0.000107482,-1.35422e-07,0
-0.000160856,-0.000175371,-8.94019e-06,-7.0765e-05,1.25431e-05,-7.34205e-06,7.76396e-05,8.15583e-07,0
-0.000121309,-0.000170554,-3.2842e-05,-6.16121e-05,1.07291e-05,-9.04252e-06,5.45707e-05,7.84363e-07,0
-7.89083e-05,-0.000125645,-4.94671e-05,-4.57309e-05,6.40829e-06,-1.10035e-05,4.00512e-05,4.10045e-08,0
-4.92427e-05,-5.38714e-05,-5.45483e-05,-3.60838e-05,3.38481e-06,-1.09098e-05,3.1862e-05,-6.02302e-09,0
-3.10418e-05,1.66011e-05,-5.41039e-05,-4.2563e-05,3.29215e-06,-9.19476e-06,2.84068e-05,-8.07067e-08,0
-1.58432e-05,6.56051e-05,-5.35934e-05,-5.37173e-05,2.98293e-06,-7.98253e-06,2.48511e-05,-1.36882e-06,0
6.99379e-07,9.68455e-05,-5.03293e-05,-5.7276e-05,3.53585e-07,-7.48958e-06,1.98767e-05,-3.98997e-07,0
1.19876e-05,0.000124433,-4.10214e-05,-5.05791e-05,-1.0965e-06,-7.45088e-06,1.26782e-05,1.93986e-06,0
1.36942e-05,0.000162012,-2.8479e-05,-1.8368e-05,2.94814e-06,-7.23206e-06,5.54492e-06,1.67549e-06,0
8.68628e-06,0.000214445,-1.7199e-05,4.13908e-05,9.35546e-06,-6.71473e-06,-3.99785e-06,-6.86164e-07,0
4.71976e-06,0.000268259,-9.40435e-06,9.17984e-05,1.20478e-05,-6.87421e-06,-1.50853e-05,-1.3033e-06,0
5.10473e-06,0.000290124,-5.43892e-06,0.00010223,1.06534e-05,-6.76374e-06,-2.15497e-05,1.31216e-07,0
1.2747e-05,0.000247528,-6.85209e-06,8.96137e-05,1.08233e-05,-4.76427e-06,-2.07138e-05,1.20939e-06,0
2.89788e-05,0.000144562,-1.27357e-05,8.12018e-05,1.59986e-05,-3.16195e-06,-3.68703e-05,1.44933e-06,0
4.72925e-05,3.02446e-05,-1.57871e-05,6.95504e-05,2.17989e-05,-3.22012e-06,-0.000100605,1.01761e-06,0
4.98856e-05,-4.82656e-05,-1.18457e-05,3.29978e-05,2.41993e-05,-5.58841e-06,-0.000165754,-3.66839e-07,0
3.08431e-05,-9.35141e-05,-3.41684e-06,-1.02111e-05,2.37589e-05,-8.8697e-06,-0.000141369,-1.25909e-06,0
6.4646e-06,-0.000124644,6.38052e-06,-2.46629e-05,2.25508e-05,-1.07101e-05,-2.37617e-05,-1.40312e-06,0
-1.29543e-05,-0.000153665,1.3254e-05,-6.39231e-06,2.39452e-05,-1.21602e-05,0.000115631,-2.00779e-06,0
-2.78993e-05,-0.000188807,1.08482e-05,1.56072e-05,2.41274e-05,-1.2465e-05,0.000204507,-1.62511e-06,0
-4.09195e-05,-0.000215139,-2.78267e-06,1.99561e-05,1.99108e-05,-1.38935e-05,0.000232539,-1.71363e-07,0
-5.26882e-05,-0.000190711,-1.4266e-05,1.06558e-05,1.4461e-05,-1.65465e-05,0.000212325,6.81343e-07,0
-6.40933e-05,-0.000117695,-1.09778e-05,-3.02521e-06,9.9863e-06,-1.9566e-05,0.000151627,9.60672e-07,0
-7.5575e-05,-5.77943e-05,-3.85748e-06,-1.11665e-05,8.73189e-06,-2.36408e-05,8.89089e-05,1.82525e-06,0
-7.99712e-05,-3.32944e-05,-5.84198e-06,-2.02479e-05,8.02575e-06,-2.6581e-05,4.36086e-05,7.42947e-07,0
-7.11271e-05,-4.02692e-05,-1.64115e-05,-3.17194e-05,6.53579e-06,-2.88687e-05,2.43215e-05,-1.57598e-06,0
-5.67783e-05,-6.78645e-05,-2.87441e-05,-3.84748e-05,5.92379e-06,-2.96706e-05,2.06596e-05,-1.02046e-06,0
-4.42871e-05,-7.46886e-05,-3.50652e-05,-3.37921e-05,5.62092e-06,-2.8864e-05,2.10652e-05,1.67464e-06,0
-3.72815e-05,-4.19106e-05,-3.0436e-05,-1.88414e-05,5.15769e-06,-2.76536e-05,1.73325e-05,2.60924e-06,0
-3.39032e-05,6.94358e-06,-1.8067e-05,-3.40002e-06,7.7365e-06,-2.69376e-05,1.16426e-05,1.02539e-06,0
-3.20448e-05,3.87114e-05,-8.85149e-06,7.48211e-06,1.29719e-05,-2.60908e-05,7.86552e-06,-1.10113e-06,0
-3.13691e-05,3.68775e-05,-7.72611e-06,8.45547e-06,1.65305e-05,-2.45499e-05,1.44091e-06,-1.59159e-06,0
-3.5157e-05,1.32159e-05,-1.00517e-05,-3.41767e-06,1.5978e-05,-2.30792e-05,-9.27166e-06,-6.17939e-07,0
-4.5561e-05,5.69256e-06,-1.06125e-05,-2.70441e-05,1.09225e-05,-2.26169e-05,-2.15756e-05,-8.43117e-08,0
-5.54334e-05,2.68798e-05,-1.02055e-05,-5.03418e-05,4.21704e-06,-2.34235e-05,-2.88739e-05,-4.16948e-07,0
-5.40982e-05,4.98078e-05,-1.0981e-05,-6.60832e-05,-7.16066e-07,-2.35674e-05,-3.17832e-05,-7.39498e-07,0
-3.79571e-05,5.37199e-05,-1.19104e-05,-7.91809e-05,-2.80413e-06,-2.17684e-05,-2.99795e-05,4.53867e-07,0
-1.40282e-05,4.64524e-05,-1.07834e-05,-9.41776e-05,-3.77501e-06,-1.77719e-05,-2.55017e-05,2.17032e-06,0
5.22189e-06,4.12789e-05,-1.05143e-05,-0.00010021,-2.44578e-06,-1.26164e-05,-2.04328e-05,2.24089e-06,0
7.91774e-06,4.22457e-05,-1.62063e-05,-8.29076e-05,3.89676e-07,-8.80284e-06,-2.90837e-05,1.59206e-06,0
-1.63727e-06,4.6808e-05,-2.79682e-05,-4.10934e-05,3.34894e-06,-9.0136e-06,-6.77414e-05,9.82931e-07,0
3.31461e-06,5.67111e-05,-3.91692e-05,1.53349e-05,7.97183e-06,-1.04056e-05,-0.000116058,6.80309e-07,0
2.91559e-05,7.3394e-05,-4.60405e-05,8.12635e-05,1.43472e-05,-7.57637e-06,-0.000123177,1.68737e-06,0
4.46094e-05,9.26396e-05,-4.95655e-05,0.000136789,2.00038e-05,-2.33259e-06,-7.99557e-05,2.349e-06,0
3.53261e-05,0.000111019,-4.65179e-05,0.000147952,2.35342e-05,-2.49191e-06,-1.53164e-05,3.08924e-06,0
1.07808e-05,0.000117337,-3.04948e-05,0.000115115,2.47586e-05,-5.76982e-06,4.32265e-05,3.54915e-06,0
-1.3698e-05,9.86605e-05,-8.6148e-06,6.64231e-05,2.65838e-05,-4.12168e-06,7.98518e-05,4.02658e-06,0
-3.08234e-05,6.0751e-05,-9.33878e-08,2.25514e-05,2.8846e-05,-1.10526e-06,9.64982e-05,4.31202e-06,0
-3.9912e-05,2.89695e-05,-8.20048e-06,-1.25179e-05,2.61064e-05,-4.53875e-07,9.80304e-05,3.73692e-06,0
-4.15506e-05,1.48181e-05,-2.28719e-05,-3.86889e-05,2.00526e-05,-2.74466e-06,8.53906e-05,5.10997e-06,0
-4.51081e-05,1.28414e-05,-2.57478e-05,-5.55766e-05,1.56735e-05,-6.23772e-06,6.79886e-05,7.67148e-06,0
-4.94542e-05,1.83561e-05,-1.20282e-05,-6.46812e-05,1.66486e-05,-7.60323e-06,4.64261e-05,8.16444e-06,0
-4.91275e-05,2.64603e-05,7.10442e-06,-7.22901e-05,2.12713e-05,-8.0485e-06,2.43558e-05,6.15826e-06,0
-4.22322e-05,3.22563e-05,2.06558e-05,-7.14201e-05,2.74559e-05,-6.47279e-06,1.09394e-05,4.54729e-06,0
-3.21818e-05,3.04242e-05,2.4153e-05,-5.83069e-05,2.9876e-05,-3.64004e-06,6.51169e-06,4.02523e-06,0
-2.664e-05,1.61126e-05,2.17709e-05,-5.04578e-05,2.49532e-05,-8.40548e-07,1.32514e-06,3.49611e-06,0
-2.87057e-05,-1.0295e-06,1.4328e-05,-5.73206e-05,1.77229e-05,3.74014e-07,-1.01025e-05,3.18694e-06,0
-3.12624e-05,-5.61699e-06,3.25283e-06,-5.55413e-05,1.13518e-05,-1.30178e-06,-1.79293e-05,2.88791e-06,0
-2.33295e-05,3.83447e-06,-5.64996e-06,-2.05342e-05,8.51854e-06,-4.41885e-06,-1.52638e-05,2.65705e-06,0
-5.69907e-06,1.86848e-05,-7.84052e-06,2.95043e-05,1.1407e-05,-5.69805e-06,-2.55134e-06,3.11366e-06,0
1.08829e-05,3.1855e-05,-5.5815e-06,5.82322e-05,1.88393e-05,-3.54437e-06,1.15217e-05,3.45117e-06,0
1.73436e-05,3.95188e-05,-4.52983e-06,5.42127e-05,2.49296e-05,-7.51469e-07,2.27586e-05,3.31735e-06,0
1.35322e-05,4.40879e-05,-1.10159e-05,3.49663e-05,2.59144e-05,-7.04722e-08,2.83432e-05,3.23587e-06,0
4.19901e-06,5.45e-05,-2.36922e-05,1.80553e-05,2.21388e-05,-2.23773e-06,2.9937e-05,3.02965e-06,0
-4.03373e-06,7.72539e-05,-3.56366e-05,8.3629e-06,1.53462e-05,-4.82508e-06,2.8728e-05,2.3586e-06,0
-9.29516e-06,0.000101884,-3.84899e-05,9.37179e-07,8.77048e-06,-6.41589e-06,2.70429e-05,2.55156e-06,0
-1.65442e-05,0.000100188,-2.88676e-05,-1.47814e-05,4.68649e-06,-6.73703e-06,2.48642e-05,3.17965e-06,0
-3.31554e-05,5.97871e-05,-1.36369e-05,-4.15304e-05,4.40103e-06,-6.71773e-06,2.19521e-05,2.79647e-06,0
-5.68499e-05,8.10616e-06,-4.48624e-06,-5.76733e-05,8.48436e-06,-5.96899e-06,1.04664e-05,1.81556e-06,0
-7.75593e-05,-2.11682e-05,-4.70839e-06,-4.89094e-05,1.29554e-05,-5.64303e-06,-1.06348e-05,2.34081e-06,0
-8.64388e-05,-2.08307e-05,-8.77195e-06,-3.88332e-05,1.56672e-05,-7.45431e-06,-1.94047e-05,3.65021e-06,0
-7.57551e-05,-7.08604e-06,-1.02005e-05,-3.81207e-05,1.58774e-05,-1.16503e-05,3.94389e-06,2.39406e-06,0
-4.73683e-05,-7.48081e-06,-5.56726e-06,-3.60214e-05,1.01999e-05,-1.6291e-05,3.8773e-05,1.18411e-06,0
-2.88274e-05,-2.71783e-05,2.01458e-06,-3.20988e-05,2.13978e-06,-1.67515e-05,3.63551e-05,7.77871e-07,0
-3.61292e-05,-4.76628e-05,1.14311e-05,-1.78296e-05,-4.63019e-06,-1.62137e-05,7.29567e-06,1.10591e-06,0
-5.1114e-05,-5.29959e-05,2.07983e-05,1.90285e-05,-5.50157e-06,-1.60251e-05,5.41644e-07,2.09384e-06,0
-5.52483e-05,-2.89206e-05,2.9064e-05,5.86649e-05,5.4617e-06,-1.25848e-05,1.41563e-05,1.69475e-06,0
-4.31375e-05,3.57748e-05,3.69317e-05,6.41246e-05,2.1259e-05,-8.01332e-06,2.41232e-05,9.04688e-07,0
-2.87305e-05,0.000106848,4.12261e-05,2.88478e-05,2.99969e-05,-5.44931e-06,2.22982e-05,4.24383e-07,0
-2.32778e-05,0.00014145,3.81821e-05,-1.19076e-05,2.94839e-05,-6.80357e-06,3.80691e-07,1.35517e-07,0
-2.61108e-05,0.000144594,2.77018e-05,-2.10261e-05,2.6402e-05,-9.27e-06,-3.92317e-05,1.03566e-06,0
-3.09262e-05,0.000113974,1.67396e-05,-2.28368e-06,2.55039e-05,-1.02666e-05,-6.78424e-05,3.22966e-06,0
-3.65287e-05,2.85357e-05,1.18449e-05,2.4199e-05,2.63208e-05,-9.88699e-06,-6.23935e-05,4.37462e-06,0
-4.53951e-05,-8.57573e-05,1.01838e-05,4.75774e-05,2.66898e-05,-1.02715e-05,-3.10653e-05,3.72266e-06,0
-5.61529e-05,-0.000147068,9.36411e-06,6.30109e-05,2.44721e-05,-1.3179e-05,7.09947e-06,2.60779e-06,0
-6.33537e-05,-0.00010722,1.28393e-05,6.55664e-05,1.82297e-05,-1.64102e-05,3.98819e-05,2.64165e-06,0
-5.69949e-05,2.72445e-06,1.63966e-05,5.6157e-05,1.01717e-05,-1.64033e-05,6.52762e-05,3.34073e-06,0
-3.72768e-05,0.000102132,7.75987e-06,4.31089e-05,3.89386e-06,-1.34484e-05,8.13206e-05,3.05318e-06,0
-1.7808e-05,0.000131987,-9.43811e-06,3.02434e-05,1.7482e-06,-1.18224e-05,8.71751e-05,2.76191e-07,0
-1.14105e-05,9.60872e-05,-1.54647e-05,1.52881e-05,3.57348e-06,-1.24492e-05,8.40592e-05,-3.27395e-06,0
-1.54583e-05,3.32653e-05,-4.31201e-06,-3.39735e-06,4.98479e-06,-1.36726e-05,7.67221e-05,-4.37443e-06,0
-2.33633e-05,-3.06733e-05,9.54989e-06,-2.14438e-05,3.26147e-06,-1.36321e-05,6.68316e-05,-3.37909e-06,0
-3.35898e-05,-9.25348e-05,1.27539e-05,-4.06846e-05,6.90995e-07,-1.25544e-05,5.29764e-05,-2.23858e-06,0
-4.54317e-05,-0.000139978,6.09103e-06,-6.66069e-05,1.16766e-06,-1.14825e-05,3.51124e-05,-1.39849e-06,0
-5.47946e-05,-0.000150501,-9.27599e-06,-8.58457e-05,2.89937e-06,-1.2855e-05,1.92199e-05,-1.79147e-06,0
-6.003e-05,-0.000123709,-3.29916e-05,-5.31696e-05,1.19693e-06,-1.72174e-05,8.73138e-06,-3.49042e-06,0
-6.38516e-05,-8.36856e-05,-5.39733e-05,2.21203e-05,-4.03711e-06,-2.07624e-05,-1.3963e-06,-3.93184e-06,0
-6.83605e-05,-5.01324e-05,-6.88466e-05,5.38358e-05,-7.55707e-06,-2.11205e-05,-2.1024e-05,-2.98898e-06,0
-7.09789e-05,-3.57111e-05,-8.10338e-05,1.7183e-05,-7.40491e-06,-2.04211e-05,-4.55651e-05,-2.29908e-06,0
-6.28118e-05,-2.8463e-05,-8.48327e-05,-3.83988e-05,-3.92722e-06,-1.80399e-05,-5.83685e-05,-3.34367e-06,0
-3.73212e-05,-6.98411e-06,-7.72706e-05,-5.30073e-05,5.26254e-07,-1.63631e-05,-5.56698e-05,-5.25324e-06,0
-6.77321e-06,3.06419e-05,-6.65232e-05,-1.68539e-05,2.87974e-06,-1.58029e-05,-4.13347e-05,-5.94522e-06,0
1.13983e-05,7.54863e-05,-5.53279e-05,3.55007e-05,5.22348e-06,-1.29198e-05,-2.78951e-05,-4.9486e-06,0
1.69774e-05,0.000114144,-4.1859e-05,5.27008e-05,9.01121e-06,-8.92086e-06,-1.86184e-05,-4.3902e-06,0
1.77328e-05,0.000126104,-3.01754e-05,-2.83931e-05,1.39863e-05,-5.0852e-06,-6.50647e-06,-4.61952e-06,0
1.25004e-05,0.000118411,-2.43478e-05,-0.000156434,1.84488e-05,-4.65219e-06,9.91407e-06,-5.23003e-06,0
-5.52135e-06,0.000115438,-2.50003e-05,-0.000221623,2.06269e-05,-6.88333e-06,2.79557e-05,-5.50526e-06,0
-3.11908e-05,0.000124263,-2.64158e-05,-0.000176226,1.89644e-05,-8.92443e-06,4.45675e-05,-5.11237e-06,0
-4.98731e-05,0.000124813,-2.2556e-05,-5.87919e-05,1.44397e-05,-1.04165e-05,5.83098e-05,-5.16373e-06,0
-5.57308e-05,8.4592e-05,-1.13133e-05,5.52589e-05,1.2822e-05,-1.28291e-05,6.74331e-05,-5.86817e-06,0
-5.73935e-05,4.35864e-06,1.73172e-06,0.000120422,1.59031e-05,-1.60375e-05,7.22756e-05,-6.19273e-06,0
-6.04854e-05,-8.68106e-05,1.09337e-05,0.000119044,1.89545e-05,-1.85243e-05,8.98106e-05,-4.82347e-06,0
-6.17058e-05,-0.000148747,1.67355e-05,7.2952e-05,1.83081e-05,-1.96503e-05,0.000139234,-3.4685e-06,0
-5.6485e-05,-0.000154995,2.25943e-05,2.51022e-05,1.63142e-05,-1.84444e-05,0.000202833,-2.84296e-06,0
-4.63459e-05,-0.000117105,3.14251e-05,4.38883e-06,1.57335e-05,-1.62135e-05,0.000236423,-3.16008e-06,0
-3.58318e-05,-7.92158e-05,4.28994e-05,4.97319e-06,1.70922e-05,-1.53107e-05,0.000213996,-3.16349e-06,0
-2.92886e-05,-6.57982e-05,5.59554e-05,1.29449e-05,1.82434e-05,-1.52977e-05,0.000141806,-1.56635e-06,0
-2.76257e-05,-5.44179e-05,6.93435e-05,1.9623e-05,1.74592e-05,-1.4873e-05,4.39984e-05,1.00454e-06,0
-2.58527e-05,-2.47421e-05,7.92556e-05,2.43185e-05,1.84112e-05,-1.4161e-05,-5.49984e-05,3.0579e-06,0
-1.67508e-05,2.68248e-06,7.88708e-05,1.87324e-05,2.27772e-05,-1.17804e-05,-0.000135602,1.78117e-06,0
2.07186e-06,9.45181e-06,6.2842e-05,-3.77507e-06,2.45673e-05,-7.09124e-06,-0.000179121,-1.41179e-06,0
1.90929e-05,6.49627e-06,3.45226e-05,-2.81935e-05,2.02292e-05,-3.75456e-06,-0.000176871,-1.81643e-06,0
1.99734e-05,6.47305e-06,3.2946e-06,-3.79258e-05,1.57649e-05,-4.63887e-06,-0.000144058,-1.58132e-07,0
9.03802e-06,2.29172e-05,-2.52688e-05,-3.2103e-05,1.38746e-05,-7.97591e-06,-0.000111098,1.07377e-07,0
-1.25082e-06,7.20751e-05,-4.41551e-05,-5.68255e-06,1.26522e-05,-9.50273e-06,-9.60602e-05,-2.45047e-07,0
-2.04194e-06,0.000147825,-4.7893e-05,3.3954e-05,1.32776e-05,-7.24147e-06,-9.28262e-05,-2.62559e-07,0
1.20872e-05,0.00022075,-3.96512e-05,3.89217e-05,1.91783e-05,-5.22093e-06,-8.42966e-05,-5.22739e-07,0
2.40539e-05,0.000247768,-3.0871e-05,-1.70967e-05,2.31559e-05,-7.03304e-06,-6.92583e-05,1.3456e-06,0
2.04605e-05,0.000230723,-3.20934e-05,-7.90831e-05,2.23912e-05,-8.8939e-06,-5.2848e-05,5.07963e-06,0
7.3978e-06,0.000193446,-4.30184e-05,-9.36386e-05,2.45411e-05,-7.47151e-06,-3.83299e-05,6.41072e-06,0
-1.68529e-05,0.000122717,-5.56697e-05,-7.52394e-05,2.62199e-05,-7.13823e-06,-2.72864e-05,4.65535e-06,0
-5.02859e-05,3.50724e-05,-6.26638e-05,-4.71667e-05,2.18248e-05,-7.53943e-06,-1.02824e-05,3.75152e-06,0
-7.83977e-05,-3.64885e-05,-5.98403e-05,-1.07898e-05,1.16814e-05,-8.42936e-06,1.53998e-05,4.83116e-06,0
-9.00549e-05,-6.22577e-05,-5.25522e-05,2.62961e-05,2.14551e-06,-1.1088e-05,4.03238e-05,4.59947e-06,0
-8.52516e-05,-2.12616e-05,-4.50161e-05,4.12626e-05,-2.24432e-06,-1.36322e-05,5.32641e-05,3.17007e-06,0
-6.92876e-05,5.70926e-05,-3.2544e-05,3.26544e-05,-1.65073e-06,-1.6007e-05,5.37489e-05,1.93726e-06,0
-5.02678e-05,7.85389e-05,-1.72777e-05,1.33552e-05,2.34954e-06,-1.60486e-05,4.84901e-05,1.15575e-06,0
-3.39563e-05,-2.09322e-05,-6.35015e-06,-4.91202e-06,8.31803e-06,-1.46444e-05,4.26342e-05,6.6866e-07,0
-2.10011e-05,-0.00019076,-2.3465e-06,-1.42675e-05,1.1976e-05,-1.33478e-05,3.912e-05,4.99692e-08,0
-1.38735e-05,-0.000325894,-4.21089e-06,-9.57554e-07,8.32756e-06,-1.41587e-05,3.55393e-05,-2.91761e-07,0
-1.72921e-05,-0.000368886,-1.28558e-05,3.85873e-05,-5.46507e-07,-1.69696e-05,2.22099e-05,9.13078e-07,0
-3.26539e-05,-0.00032181,-2.46023e-05,8.31679e-05,-9.86556e-06,-1.98466e-05,-2.57195e-05,2.84811e-06,0
-5.07391e-05,-0.000215253,-3.10414e-05,0.000112237,-1.36623e-05,-2.09763e-05,-0.000114348,3.61998e-06,0
-6.3692e-05,-0.00010515,-2.78623e-05,0.000127237,-9.24943e-06,-1.97999e-05,-0.000182301,3.54348e-06,0
-7.33304e-05,-3.46808e-05,-1.90729e-05,0.000133682,-2.10289e-06,-1.8137e-05,-0.000165993,4.63638e-06,0
