ch1,ch2,ch3,ch4,ch5,ch6,ch7,ch8,class
-1.91215e-05,8.59857e-06,-7.95732e-05,5.24794e-05,5.59113e-06,-1.71396e-05,2.12216e-05,6.52293e-06,0
-1.376e-05,1.8947e-05,-6.96338e-05,7.0993e-05,3.38306e-05,-1.3494e-08,2.25837e-05,7.72647e-06,0
-9.75599e-06,2.96201e-05,-5.38858e-05,4.71512e-05,5.56394e-05,-8.65087e-07,2.00113e-05,7.42356e-06,0
-1.05158e-05,3.8675e-05,-3.84411e-05,1.98985e-05,6.58675e-05,-8.35504e-06,1.64295e-05,5.90243e-06,0
-1.15184e-05,4.77011e-05,-2.63663e-05,1.4469e-05,6.64655e-05,-1.41384e-05,1.33383e-05,4.87952e-06,0
-1.31181e-05,5.30978e-05,-1.71172e-05,1.45725e-05,5.85114e-05,-1.37924e-05,1.08048e-05,4.75083e-06,0
-1.67436e-05,5.08292e-05,-9.90812e-06,1.26804e-06,4.74803e-05,-1.09908e-05,9.9607e-06,4.36597e-06,0
-2.29501e-05,3.91651e-05,-5.78069e-06,-3.13622e-05,4.10609e-05,-1.00926e-05,9.92762e-06,4.4135e-06,0
-2.92296e-05,2.14395e-05,-5.23621e-06,-6.96997e-05,3.77446e-05,-1.00639e-05,7.76509e-06,4.41075e-06,0
-3.2387e-05,3.35134e-06,-5.78091e-06,-9.82302e-05,3.26778e-05,-9.30889e-06,4.76192e-06,4.25167e-06,0
-3.33215e-05,-9.75707e-06,-4.76864e-06,-0.000119072,2.65049e-05,-7.90537e-06,3.648e-06,3.21096e-06,0
-3.42426e-05,-1.31561e-05,-5.3253e-06,-0.000144228,2.12155e-05,-7.21769e-06,4.55751e-06,2.43576e-06,0
-3.615e-05,-5.82737e-06,-1.00737e-05,-0.000175155,1.68944e-05,-8.86129e-06,7.37508e-06,3.47546e-06,0
-3.75685e-05,6.84086e-06,-1.64646e-05,-0.000186512,1.29823e-05,-1.33569e-05,1.00429e-05,5.49835e-06,0
-3.83458e-05,1.69486e-05,-1.91174e-05,-0.00014273,8.81928e-06,-1.9936e-05,1.09251e-05,6.45564e-06,0
-3.8694e-05,2.06723e-05,-1.9198e-05,-4.65268e-05,5.72871e-06,-2.89028e-05,1.02259e-05,6.23475e-06,0
-3.8435e-05,1.90746e-05,-1.92319e-05,5.4994e-05,6.10983e-06,-3.32134e-05,1.0146e-05,5.44753e-06,0
-3.715e-05,1.58259e-05,-1.8433e-05,0.000129966,8.07319e-06,-1.95876e-05,1.14706e-05,4.39479e-06,0
-3.70211e-05,1.10584e-05,-1.58313e-05,0.000188266,5.85078e-06,7.07726e-06,1.32197e-05,3.4798e-06,0
-3.75674e-05,2.81589e-06,-1.53179e-05,0.000237482,-6.13074e-07,2.21264e-05,1.37101e-05,3.05704e-06,0
-3.66782e-05,-7.80252e-06,-1.78519e-05,0.000236828,-5.98991e-06,1.41998e-05,1.20054e-05,3.06691e-06,0
-3.47082e-05,-1.6574e-05,-1.9596e-05,0.000143415,-7.40449e-06,-1.09954e-06,9.89982e-06,2.50304e-06,0
-3.28484e-05,-2.03466e-05,-1.90996e-05,-1.63924e-06,-5.89997e-06,-7.90942e-06,8.3437e-06,2.50543e-06,0
-3.17451e-05,-1.82042e-05,-1.94487e-05,-0.000106708,-6.4894e-07,-1.41119e-05,7.97936e-06,2.23401e-06,0
-3.22476e-05,-1.1968e-05,-2.17102e-05,-0.000146049,8.20766e-06,-2.49595e-05,8.3911e-06,2.54592e-06,0
-3.35706e-05,-6.7117e-06,-2.27325e-05,-0.000136606,1.45295e-05,-3.09489e-05,9.05361e-06,3.19589e-06,0
-3.40722e-05,-1.94188e-06,-2.06876e-05,-9.70767e-05,1.58274e-05,-3.22673e-05,1.09865e-05,2.91045e-06,0
-3.35689e-05,3.05364e-06,-1.81786e-05,-3.77333e-05,1.5959e-05,-3.46377e-05,1.30578e-05,1.98349e-06,0
-3.19397e-05,5.51322e-06,-1.73956e-05,6.40837e-05,1.71077e-05,-3.66161e-05,1.32704e-05,5.13574e-07,0
-3.1022e-05,1.18221e-05,-1.77154e-05,0.000182512,1.77834e-05,-3.61462e-05,1.13306e-05,-4.45415e-07,0
-3.24052e-05,2.56883e-05,-1.94203e-05,0.000258883,1.2407e-05,-3.60814e-05,1.08508e-05,-1.12535e-06,0
-3.43775e-05,3.74177e-05,-2.26671e-05,0.000281147,9.48563e-07,-3.58332e-05,1.16164e-05,-1.47066e-06,0
-3.64689e-05,4.00108e-05,-2.6754e-05,0.000280673,-9.85469e-06,-3.13403e-05,1.07995e-05,-2.46272e-06,0
-3.98898e-05,3.66169e-05,-3.03444e-05,0.000282986,-1.4491e-05,-2.81263e-05,1.0338e-05,-4.2807e-06,0
-4.39454e-05,2.88612e-05,-3.17169e-05,0.000248612,-1.26139e-05,-2.30142e-05,1.06507e-05,-5.55352e-06,0
-4.63496e-05,1.72819e-05,-3.05001e-05,0.000146451,-8.11077e-06,7.89595e-07,1.0864e-05,-5.82049e-06,0
-4.58949e-05,3.91056e-06,-3.02027e-05,1.13851e-05,-5.49494e-06,3.08158e-05,1.05533e-05,-5.06482e-06,0
-4.42016e-05,-8.37688e-06,-3.22476e-05,-0.000131742,-4.93741e-06,3.39002e-05,1.12909e-05,-4.68345e-06,0
-4.21797e-05,-1.53451e-05,-3.51731e-05,-0.000290597,-3.9935e-07,1.1157e-05,1.24983e-05,-4.85933e-06,0
-3.8102e-05,-1.51912e-05,-3.68875e-05,-0.00046719,9.22121e-06,-7.01564e-06,1.36443e-05,-4.14217e-06,0
-3.19682e-05,-9.70725e-06,-3.83411e-05,-0.000641311,2.13878e-05,-7.3368e-06,1.55462e-05,-2.59474e-06,0
-2.68944e-05,-2.06318e-06,-3.95069e-05,-0.000774941,3.6276e-05,1.86535e-06,1.65931e-05,-2.03312e-06,0
-2.41864e-05,5.97602e-06,-3.87658e-05,-0.000818293,5.2392e-05,8.45304e-06,1.54222e-05,-2.44593e-06,0
-2.40566e-05,1.32801e-05,-3.63161e-05,-0.000726271,6.00369e-05,7.30307e-06,1.33483e-05,-1.81479e-06,0
-2.53102e-05,1.73834e-05,-3.40368e-05,-0.0004764,5.3043e-05,2.03036e-06,1.23109e-05,1.38826e-07,0
-2.63543e-05,1.79343e-05,-3.26376e-05,-0.000113515,3.64273e-05,-1.31753e-06,1.24758e-05,1.41743e-06,0
-2.55131e-05,1.89394e-05,-3.01819e-05,0.00020558,1.92579e-05,-6.64926e-07,1.38664e-05,9.1342e-07,0
-2.4292e-05,2.53594e-05,-2.38645e-05,0.000360733,7.68073e-06,1.81644e-06,1.50242e-05,1.38162e-07,0
-2.61288e-05,3.90581e-05,-1.40007e-05,0.000406617,1.17218e-06,1.51478e-06,1.40361e-05,4.6387e-07,0
-2.74594e-05,5.05069e-05,-1.73747e-06,0.000431922,-3.34633e-06,-1.91039e-06,1.23362e-05,1.46457e-06,0
-2.51994e-05,5.39746e-05,1.08978e-05,0.000463718,-6.35542e-06,-4.48561e-06,1.27792e-05,1.5508e-06,0
-2.31865e-05,4.93249e-05,1.76672e-05,0.000513996,-2.05026e-06,-5.55302e-06,1.38631e-05,1.47582e-06,0
-2.40633e-05,4.02757e-05,1.81938e-05,0.000504936,1.22317e-05,-1.84717e-06,1.4775e-05,2.33032e-06,0
-2.51494e-05,3.29657e-05,1.75243e-05,0.000360981,3.19014e-05,8.15092e-06,1.47814e-05,3.2617e-06,0
-2.22248e-05,2.73537e-05,1.92996e-05,0.000177153,5.07751e-05,1.86391e-05,1.27838e-05,2.76855e-06,0
-1.78173e-05,2.37089e-05,2.00985e-05,8.22546e-05,5.60716e-05,2.2052e-05,9.75568e-06,1.82357e-06,0
-1.67559e-05,1.69419e-05,1.39423e-05,9.38455e-05,4.47262e-05,1.97394e-05,7.36031e-06,2.4656e-06,0
-1.65229e-05,5.40736e-06,4.56908e-06,0.000128657,2.88258e-05,1.95322e-05,7.50152e-06,4.54217e-06,0
-1.53868e-05,-8.37233e-06,2.52004e-07,0.000130787,1.80621e-05,2.05148e-05,9.80162e-06,5.79008e-06,0
-1.53077e-05,-2.03185e-05,-8.80827e-07,0.000106397,1.31668e-05,1.83667e-05,1.22761e-05,5.42954e-06,0
-1.7659e-05,-2.6487e-05,-3.23146e-06,6.86236e-05,8.26849e-06,1.80135e-05,1.42957e-05,4.12389e-06,0
-2.2246e-05,-2.47799e-05,-6.58671e-06,2.3935e-05,2.81499e-06,2.01886e-05,1.53389e-05,1.98574e-06,0
-2.7086e-05,-1.60589e-05,-7.51775e-06,-1.35673e-05,-6.49746e-07,8.62798e-06,1.57943e-05,1.58297e-06,0
-2.95393e-05,-6.51549e-06,-6.07449e-06,-2.82318e-05,-1.85776e-06,-2.46027e-05,1.72548e-05,3.48243e-06,0
-2.88505e-05,-8.73292e-08,-5.17925e-06,-2.3608e-05,-1.41705e-06,-5.89868e-05,1.81695e-05,5.38122e-06,0
-2.80537e-05,4.15836e-06,-5.51727e-06,-6.30139e-06,-1.92397e-07,-6.65649e-05,1.83766e-05,6.07344e-06,0
-2.99472e-05,7.50607e-06,-8.14963e-06,1.28387e-06,4.39228e-07,-4.9266e-05,1.90001e-05,6.60418e-06,0
-3.35076e-05,8.13706e-06,-1.26115e-05,-3.97776e-05,-3.271e-06,-3.37679e-05,2.00868e-05,6.65259e-06,0
-3.6853e-05,6.30272e-06,-1.55221e-05,-0.000134958,-1.31181e-05,-3.30015e-05,2.07569e-05,5.17676e-06,0
-4.04264e-05,4.55225e-06,-1.44431e-05,-0.000232097,-2.45237e-05,-3.81592e-05,2.08279e-05,3.05559e-06,0
-4.27397e-05,6.35629e-06,-1.34788e-05,-0.000285525,-3.14976e-05,-3.90461e-05,1.89754e-05,2.02898e-06,0
-4.02641e-05,1.1713e-05,-1.46645e-05,-0.000290954,-2.91397e-05,-3.45794e-05,1.53271e-05,2.86984e-06,0
-3.39882e-05,1.80894e-05,-1.57549e-05,-0.000253922,-1.81866e-05,-2.84069e-05,1.32915e-05,4.72346e-06,0
-2.86423e-05,2.25917e-05,-1.64926e-05,-0.000169139,-6.29067e-06,-2.30779e-05,1.26782e-05,6.08748e-06,0
-2.67539e-05,2.42796e-05,-1.79564e-05,-6.54095e-05,2.89126e-06,-1.78683e-05,1.04708e-05,4.90776e-06,0
-2.78433e-05,2.33791e-05,-1.68868e-05,-9.07755e-06,1.53621e-05,-1.5734e-05,6.82076e-06,2.05521e-06,0
-2.84475e-05,2.14505e-05,-1.25266e-05,-8.62154e-07,3.66319e-05,-1.78661e-05,4.01092e-06,8.52607e-08,0
-2.36967e-05,2.15059e-05,-6.08258e-06,3.62798e-05,5.68606e-05,-1.68578e-05,3.88545e-06,-5.13704e-07,0
-1.46106e-05,2.3683e-05,2.88331e-06,0.000116728,6.14181e-05,-1.11727e-05,6.48967e-06,-3.616e-07,0
-8.82933e-06,2.89979e-05,1.09674e-05,0.000198259,4.85253e-05,-6.40409e-06,8.61383e-06,3.45819e-07,0
-8.774e-06,3.16756e-05,1.94751e-05,0.000268971,3.07837e-05,-3.47051e-06,1.00478e-05,8.49831e-07,0
-9.4617e-06,2.96129e-05,3.07314e-05,0.00030522,2.17621e-05,-3.15196e-07,1.18822e-05,-4.04607e-07,0
-1.09703e-05,2.77562e-05,4.04635e-05,0.000271307,2.09104e-05,5.19537e-06,1.22551e-05,-2.05481e-06,0
-1.75724e-05,2.70204e-05,4.55615e-05,0.000161239,2.11503e-05,1.51011e-05,1.06198e-05,-2.58785e-06,0
-2.68571e-05,2.93542e-05,4.56932e-05,4.5965e-06,1.97142e-05,2.89861e-05,1.00117e-05,-8.96348e-07,0
-3.66305e-05,3.13125e-05,4.25781e-05,-0.000148038,1.522e-05,3.74458e-05,1.09168e-05,2.51975e-06,0
-4.69487e-05,3.00765e-05,3.76238e-05,-0.000266017,7.13342e-06,3.39816e-05,1.12847e-05,3.06326e-06,0
-4.99044e-05,2.58242e-05,3.2142e-05,-0.000322542,1.28095e-07,2.31636e-05,1.02779e-05,-4.93581e-07,0
-4.27283e-05,2.15023e-05,2.95697e-05,-0.000286839,-9.33895e-07,8.38967e-06,1.00868e-05,-2.71775e-06,0
-3.11154e-05,1.83423e-05,3.06921e-05,-0.000144958,5.21552e-06,-6.41132e-06,1.03369e-05,-6.16461e-08,0
-2.22219e-05,1.6744e-05,3.26854e-05,5.47449e-05,1.24829e-05,-1.47471e-05,1.10617e-05,2.85119e-06,0
-1.96543e-05,1.68934e-05,3.33873e-05,0.000207568,1.4233e-05,-1.66217e-05,1.29475e-05,3.27351e-06,0
-2.2314e-05,1.58625e-05,3.24937e-05,0.000235261,1.16858e-05,-1.91563e-05,1.43273e-05,2.56936e-06,0
-2.6632e-05,1.20005e-05,2.91557e-05,0.000138549,8.24175e-06,-2.39049e-05,1.46651e-05,1.85107e-06,0
-3.06607e-05,6.98315e-06,2.35018e-05,2.66648e-06,3.89231e-06,-3.21238e-05,1.48209e-05,6.29913e-07,0
-3.61508e-05,5.85608e-06,1.74319e-05,-0.000102688,-3.74422e-06,-4.99258e-05,1.61154e-05,-7.3761e-07,0
-4.20119e-05,9.4085e-06,1.34048e-05,-0.000180376,-1.57455e-05,-6.69014e-05,1.7699e-05,-1.72828e-06,0
-4.45992e-05,1.4648e-05,1.00054e-05,-0.00024131,-3.15732e-05,-5.91095e-05,1.84082e-05,-2.22105e-06,0
-4.06759e-05,1.58222e-05,2.49924e-06,-0.00024614,-4.75473e-05,-3.71539e-05,1.79129e-05,-2.14611e-06,0
-3.3224e-05,1.29641e-05,-9.19214e-06,-0.000148111,-5.79538e-05,-3.7012e-05,1.77874e-05,-2.09294e-06,0
-2.85842e-05,9.9705e-06,-1.8096e-05,4.44802e-05,-5.7543e-05,-5.81512e-05,1.76487e-05,-1.40512e-06,0
-2.82581e-05,8.54087e-06,-1.95824e-05,0.00019367,-4.87012e-05,-6.58058e-05,1.78302e-05,-5.11596e-07,0
-2.90501e-05,7.75664e-06,-1.69846e-05,0.000202431,-3.78552e-05,-3.7362e-05,1.81873e-05,5.84722e-08,0
-2.99973e-05,7.49297e-06,-1.71313e-05,0.00013523,-2.61403e-05,5.96468e-06,1.7617e-05,-7.55995e-07,0
-3.06823e-05,7.00964e-06,-2.02433e-05,6.26977e-05,-7.45549e-06,2.45302e-05,1.55493e-05,-2.09739e-06,0
-3.18346e-05,6.22872e-06,-2.08074e-05,-3.21584e-05,2.35926e-05,1.24131e-05,1.34074e-05,-2.25177e-06,0
-3.38212e-05,4.35605e-06,-1.84081e-05,-0.000197344,4.68814e-05,-3.66041e-06,1.3672e-05,-2.78395e-06,0
-3.44545e-05,3.294e-06,-1.60545e-05,-0.000348026,5.00076e-05,-7.12181e-06,1.49943e-05,-4.44475e-06,0
-3.42299e-05,4.58133e-06,-1.23093e-05,-0.000384001,4.91821e-05,-2.58581e-06,1.37834e-05,-4.421e-06,0
-3.40316e-05,5.7201e-06,-7.70148e-06,-0.000309004,5.03804e-05,3.26393e-06,1.11723e-05,-1.74078e-06,0
-3.50836e-05,7.37763e-06,-8.27272e-06,-0.000174969,5.36967e-05,5.61847e-06,9.60181e-06,1.3956e-06,0
-3.63681e-05,8.04902e-06,-1.20725e-05,-5.15339e-05,5.55097e-05,4.97595e-06,8.64246e-06,2.90366e-06,0
-3.63315e-05,6.82855e-06,-1.53737e-05,9.53775e-06,5.03056e-05,2.85921e-06,7.4701e-06,2.99133e-06,0
-3.72537e-05,5.62597e-06,-1.77013e-05,1.52759e-05,3.26768e-05,3.66617e-07,5.15696e-06,1.77503e-06,0
-3.71593e-05,9.26839e-06,-1.91172e-05,3.58453e-05,1.11614e-05,-3.26548e-07,3.506e-06,-7.46571e-08,0
-3.3672e-05,1.66463e-05,-1.70948e-05,9.84798e-05,-1.30196e-06,1.21904e-06,4.92617e-06,-7.56765e-07,0
-2.86386e-05,2.29815e-05,-1.14472e-05,0.00013337,-3.92592e-06,3.79737e-06,8.40311e-06,2.23025e-07,0
-2.5477e-05,2.863e-05,-8.59002e-06,9.23508e-05,9.28671e-07,6.30385e-06,1.08322e-05,6.66879e-07,0
-2.5056e-05,4.04028e-05,-1.15947e-05,3.11742e-06,1.11724e-05,9.04454e-06,1.15966e-05,-6.56743e-07,0
-2.66551e-05,6.11354e-05,-1.96368e-05,-9.92051e-05,2.3661e-05,1.06563e-05,1.11736e-05,-1.21536e-06,0
-2.94141e-05,8.50664e-05,-2.72063e-05,-0.000198406,2.97127e-05,1.02149e-05,8.42394e-06,9.04429e-08,0
-3.08678e-05,0.000103754,-2.71764e-05,-0.000273195,2.94559e-05,8.16428e-06,2.27681e-06,2.28127e-06,0
-3.08492e-05,0.000109171,-1.87006e-05,-0.000262112,2.9792e-05,6.2166e-06,-4.11755e-06,3.44012e-06,0
-3.3627e-05,9.74834e-05,-1.08013e-05,-0.000155188,3.43943e-05,4.49728e-06,-7.63189e-06,3.82173e-06,0
-4.53239e-05,6.91729e-05,-1.15545e-05,-1.56046e-05,3.77544e-05,2.00809e-06,-6.77349e-06,4.16683e-06,0
-6.30917e-05,3.00344e-05,-1.80715e-05,0.000177193,3.75004e-05,-5.49769e-07,-1.50789e-06,4.28919e-06,0
-7.65534e-05,-1.08765e-05,-2.25654e-05,0.000443974,3.66158e-05,-2.30208e-06,5.96738e-06,4.20954e-06,0
-7.92688e-05,-4.62398e-05,-2.15169e-05,0.000647131,4.05183e-05,-4.90804e-06,1.26936e-05,2.84729e-06,0
-7.36252e-05,-6.83431e-05,-1.7424e-05,0.000659179,5.0839e-05,-7.89944e-06,1.78653e-05,3.69515e-07,0
-6.55887e-05,-6.93895e-05,-1.26854e-05,0.000494367,6.07709e-05,-9.40706e-06,2.26047e-05,-1.75806e-06,0
-6.13376e-05,-5.53382e-05,-8.59569e-06,0.000211445,5.97839e-05,-1.05767e-05,2.61781e-05,-2.96883e-06,0
-6.1354e-05,-3.91745e-05,-9.55382e-06,-0.000150479,4.4094e-05,-1.59236e-05,2.7389e-05,-2.62258e-06,0
-5.69862e-05,-2.41846e-05,-1.60959e-05,-0.000488408,2.20474e-05,-2.43389e-05,2.62422e-05,-3.78208e-07,0
-4.00189e-05,-1.1267e-05,-2.09272e-05,-0.000635641,9.69588e-06,-2.54255e-05,2.45202e-05,1.74582e-06,0
-1.18035e-05,-3.17433e-06,-2.19456e-05,-0.000593336,1.20246e-05,-1.38767e-05,2.29851e-05,2.62818e-06,0
1.29367e-05,4.20505e-06,-2.38185e-05,-0.000398567,2.03032e-05,1.2627e-06,2.19161e-05,2.58666e-06,0
1.67766e-05,1.33702e-05,-3.03488e-05,-6.55212e-05,2.49444e-05,3.57804e-06,2.05505e-05,2.47445e-07,0
8.15666e-06,1.8753e-05,-3.90799e-05,0.000221982,1.55756e-05,-1.43727e-05,1.63351e-05,-1.92527e-06,0
8.1712e-06,1.46895e-05,-4.48168e-05,0.000327162,-2.9015e-06,-4.79534e-05,1.11657e-05,-1.81344e-06,0
1.66463e-05,6.56014e-06,-4.78957e-05,0.000282682,-1.94597e-05,-8.07469e-05,8.21377e-06,-4.33134e-08,0
1.98214e-05,-1.56638e-06,-4.85057e-05,0.000210253,-3.00053e-05,-8.79131e-05,7.34126e-06,1.33853e-06,0
1.15735e-05,-1.14353e-05,-4.48465e-05,0.000147718,-3.63924e-05,-4.90473e-05,6.85587e-06,1.62992e-06,0
-2.4806e-06,-2.17909e-05,-3.64154e-05,9.19264e-05,-4.16046e-05,2.08808e-05,6.3431e-06,3.37549e-06,0
-1.64053e-05,-2.82037e-05,-2.87026e-05,3.43568e-05,-4.85996e-05,6.63371e-05,5.74315e-06,5.93052e-06,0
-2.68192e-05,-2.68794e-05,-2.66158e-05,-8.74366e-05,-5.56829e-05,5.25209e-05,5.78143e-06,7.92399e-06,0
-3.307e-05,-2.09295e-05,-2.90723e-05,-0.000295369,-5.30277e-05,8.31138e-06,7.13609e-06,8.49648e-06,0
-3.55208e-05,-1.45658e-05,-2.77742e-05,-0.00049896,-3.23093e-05,-1.98242e-05,7.5277e-06,8.11653e-06,0
-3.6006e-05,-8.16865e-06,-1.68302e-05,-0.000561061,-1.53018e-06,-2.2013e-05,6.6088e-06,8.4232e-06,0
-3.77286e-05,6.74736e-07,-3.12001e-06,-0.00041686,2.1402e-05,-1.51164e-05,5.10946e-06,9.7436e-06,0
-4.14892e-05,1.00712e-05,3.68603e-06,-0.000101283,2.82009e-05,-9.86147e-06,3.32913e-06,1.03015e-05,0
-4.43791e-05,1.69409e-05,3.01729e-06,0.000241822,2.32409e-05,-5.39494e-06,1.82069e-06,9.57535e-06,0
-4.32648e-05,2.06285e-05,4.26373e-06,0.000475325,2.14446e-05,1.38247e-07,1.84312e-06,8.82307e-06,0
-3.79883e-05,2.21412e-05,9.98207e-06,0.000538497,3.41723e-05,5.55735e-06,3.27342e-06,8.15583e-06,0
-3.15489e-05,2.18781e-05,1.54137e-05,0.00048062,5.72557e-05,8.27883e-06,5.00829e-06,6.27548e-06,0
-2.80241e-05,2.25152e-05,1.92369e-05,0.00039018,7.85532e-05,9.61584e-06,6.86364e-06,4.2842e-06,0
-2.84243e-05,2.47198e-05,2.41603e-05,0.000265633,8.70312e-05,9.02106e-06,7.73643e-06,4.86232e-06,0
-3.2318e-05,2.62021e-05,2.64877e-05,7.94756e-05,7.03528e-05,2.72175e-06,6.71095e-06,6.48222e-06,0
-3.68573e-05,2.57686e-05,2.07628e-05,-5.12039e-05,2.91912e-05,-9.10049e-06,6.20363e-06,6.60231e-06,0
-4.01159e-05,2.23359e-05,8.78406e-06,-4.27361e-05,-1.62814e-05,-2.06744e-05,5.77536e-06,6.49709e-06,0
-4.29055e-05,1.63517e-05,-6.04599e-06,7.64491e-05,-5.54346e-05,-2.77721e-05,3.84667e-06,7.40855e-06,0
-4.51709e-05,1.40885e-05,-2.10426e-05,0.000217765,-8.20701e-05,-3.15736e-05,4.09257e-06,8.19276e-06,0
-4.41332e-05,1.63961e-05,-3.71781e-05,0.000295325,-9.27629e-05,-3.38239e-05,8.35414e-06,8.48326e-06,0
-3.99396e-05,1.70085e-05,-5.44298e-05,0.000221536,-9.26206e-05,-3.40107e-05,1.29068e-05,8.59303e-06,0
-3.93751e-05,1.71465e-05,-6.60236e-05,-3.97139e-05,-8.30768e-05,-3.58142e-05,1.42773e-05,8.77201e-06,0
-4.41338e-05,1.94478e-05,-6.71743e-05,-0.000373999,-6.65394e-05,-3.91054e-05,1.30976e-05,9.05216e-06,0
-4.66579e-05,2.41389e-05,-5.77423e-05,-0.000682817,-3.41381e-05,-3.80722e-05,1.15087e-05,7.56058e-06,0
-4.16095e-05,3.00806e-05,-4.30989e-05,-0.000851227,1.80872e-05,-3.16344e-05,1.35104e-05,6.03955e-06,0
-3.41337e-05,3.70766e-05,-3.22398e-05,-0.000807501,6.99252e-05,-2.06716e-05,1.63005e-05,7.11215e-06,0
-2.74547e-05,4.30042e-05,-2.76263e-05,-0.00056051,0.000101621,-7.80464e-06,1.73398e-05,8.65103e-06,0
-2.02965e-05,4.73058e-05,-1.8956e-05,-0.000194823,0.000116497,3.7388e-06,1.8655e-05,7.44993e-06,0
-1.18589e-05,5.11375e-05,-3.20824e-06,0.000108921,0.000122738,1.1951e-05,2.00792e-05,4.38528e-06,0
-4.20549e-07,5.72098e-05,1.24656e-05,0.000222981,0.00011999,2.04072e-05,2.09533e-05,3.23633e-06,0
1.23967e-05,6.31639e-05,2.48345e-05,0.000222853,0.000103329,2.81785e-05,2.01397e-05,2.87271e-06,0
1.98151e-05,6.37216e-05,3.13514e-05,0.000264993,7.36171e-05,2.54845e-05,1.90173e-05,2.28367e-06,0
1.80571e-05,5.90374e-05,3.3789e-05,0.000401132,4.42591e-05,1.48352e-05,1.82694e-05,1.23746e-06,0
1.21188e-05,5.24446e-05,3.95276e-05,0.00057042,3.39999e-05,1.43607e-05,1.79283e-05,6.70514e-07,0
7.52239e-06,4.6768e-05,5.15426e-05,0.000661717,4.93331e-05,2.75975e-05,1.74811e-05,1.60505e-06,0
5.19715e-06,4.03083e-05,6.03754e-05,0.000609601,6.91806e-05,3.343e-05,1.63478e-05,1.85874e-06,0
1.30291e-06,2.96644e-05,5.87197e-05,0.000459226,7.12727e-05,2.0354e-05,1.46232e-05,6.28587e-07,0
-5.5809e-06,1.39564e-05,4.85188e-05,0.000278498,5.44986e-05,1.10375e-06,1.31511e-05,1.94651e-08,0
-1.54762e-05,-5.02624e-07,3.87538e-05,7.93515e-05,3.31131e-05,-1.21864e-05,1.25437e-05,1.09249e-06,0
-2.68868e-05,-8.38519e-06,3.56351e-05,-9.03395e-05,1.77187e-05,-2.18722e-05,1.30408e-05,1.73132e-06,0
-3.62715e-05,-1.0697e-05,3.45e-05,-0.000182089,1.01073e-05,-3.18614e-05,1.42548e-05,1.29387e-06,0
-4.08334e-05,-1.04351e-05,2.53622e-05,-0.000216598,1.08009e-05,-4.07186e-05,1.48286e-05,-1.2389e-07,0
-3.88754e-05,-1.00043e-05,7.54728e-06,-0.000207218,2.26383e-05,-4.09893e-05,1.39884e-05,-3.68192e-06,0
-3.59992e-05,-9.22794e-06,-6.77597e-06,-0.000137563,3.92349e-05,-2.21916e-05,1.22447e-05,-7.29102e-06,0
-3.62666e-05,-6.59023e-06,-1.31122e-05,-4.58856e-05,4.28579e-05,4.94829e-06,1.10011e-05,-7.75833e-06,0
-4.03639e-05,-5.53618e-06,-1.60816e-05,3.19725e-05,2.91145e-05,6.16527e-06,1.05721e-05,-8.31858e-06,0
-4.93234e-05,-5.58344e-06,-1.95204e-05,0.000114363,1.23622e-05,-1.94514e-05,9.3239e-06,-9.63458e-06,0
-6.21791e-05,-7.43636e-06,-2.77272e-05,0.000184335,-2.71234e-06,-4.37465e-05,9.52686e-06,-8.9823e-06,0
-7.55613e-05,-1.27617e-05,-4.25796e-05,0.000250866,-2.20392e-05,-5.72362e-05,1.3865e-05,-8.76715e-06,0
-8.18633e-05,-1.79268e-05,-5.94388e-05,0.00035283,-4.88761e-05,-5.98242e-05,1.70452e-05,-8.40338e-06,0
-7.63958e-05,-1.88572e-05,-6.75057e-05,0.000340856,-7.76055e-05,-5.4726e-05,1.71989e-05,-6.98906e-06,0
-6.28878e-05,-1.38111e-05,-6.37655e-05,9.18093e-05,-9.03582e-05,-4.42001e-05,1.65034e-05,-5.39625e-06,0
-4.87507e-05,-5.99387e-06,-5.1637e-05,-0.000229106,-7.90472e-05,-3.31894e-05,1.58841e-05,-5.10436e-06,0
-3.86385e-05,1.36696e-06,-3.88075e-05,-0.000435089,-5.7405e-05,-2.59525e-05,1.56838e-05,-6.63384e-06,0
-3.28482e-05,7.52726e-06,-2.87036e-05,-0.000493597,-3.74482e-05,-2.1598e-05,1.54468e-05,-7.73446e-06,0
-2.92912e-05,1.47365e-05,-1.2976e-05,-0.000464057,-1.62474e-05,-1.46168e-05,1.54105e-05,-6.28112e-06,0
-2.56561e-05,2.20995e-05,9.67845e-06,-0.000404252,1.60556e-05,-1.09502e-06,1.67047e-05,-3.40878e-06,0
-2.20122e-05,2.52e-05,2.48349e-05,-0.000343767,4.81403e-05,1.29915e-05,1.77177e-05,-1.94949e-06,0
-2.17087e-05,2.20682e-05,1.92232e-05,-0.00027829,4.79339e-05,1.93249e-05,1.68992e-05,-1.47397e-06,0
-2.49645e-05,1.60849e-05,2.14145e-06,-0.000214306,9.86804e-06,1.60597e-05,1.58301e-05,-1.42015e-06,0
-2.93534e-05,1.00775e-05,-9.74686e-06,-0.000162041,-3.77707e-05,9.37029e-06,1.57842e-05,-3.82878e-07,0
-3.37567e-05,5.84331e-06,-9.41244e-06,-6.7196e-05,-6.78778e-05,3.81041e-06,1.60842e-05,1.04966e-06,0
-3.73614e-05,4.26198e-06,-2.03317e-06,8.91543e-05,-7.82439e-05,2.01605e-06,1.6226e-05,1.00218e-06,0
-3.80491e-05,5.56445e-06,6.25371e-06,0.000208646,-7.61477e-05,3.81235e-06,1.61677e-05,4.07466e-07,0
-3.58781e-05,8.55414e-06,1.47831e-05,0.000227887,-6.82894e-05,9.34856e-06,1.56979e-05,1.51034e-06,0
-3.3051e-05,1.246e-05,2.68242e-05,0.000190622,-4.88836e-05,1.59753e-05,1.58693e-05,2.73351e-06,0
-3.01564e-05,1.9094e-05,4.10378e-05,0.000139173,-2.68504e-06,1.47712e-05,1.55544e-05,9.07946e-07,0
-2.86692e-05,2.84914e-05,4.80119e-05,5.77908e-05,5.12724e-05,7.95793e-08,1.3955e-05,-3.72287e-06,0
-2.78402e-05,3.4439e-05,3.97728e-05,-4.49284e-05,7.88103e-05,-1.15647e-05,1.26214e-05,-7.92138e-06,0
-2.54286e-05,3.22527e-05,2.14754e-05,-0.000100342,9.01818e-05,-7.24401e-07,1.25508e-05,-8.39785e-06,0
-2.12574e-05,2.80258e-05,1.04291e-05,-0.000124631,0.000104861,1.68334e-05,1.24715e-05,-3.19005e-06,0
-1.84025e-05,2.66103e-05,8.70558e-06,-0.00011329,0.000114524,2.26858e-05,1.25157e-05,3.93866e-06,0
-1.88676e-05,2.55611e-05,4.24413e-06,-4.59373e-05,0.000110546,2.22695e-05,1.27794e-05,9.2165e-06,0
-1.91897e-05,1.92371e-05,-2.40613e-06,7.39819e-05,0.000112223,1.82663e-05,1.22262e-05,1.07715e-05,0
-1.63768e-05,9.34406e-06,-6.43373e-06,0.000247701,0.000123137,3.71076e-06,1.15351e-05,8.05836e-06,0
-1.18636e-05,4.09031e-06,-5.33194e-06,0.000379476,0.000120082,-2.59988e-05,1.12727e-05,6.14643e-06,0
-9.94769e-06,3.6025e-06,-6.11362e-07,0.000386392,0.000100203,-5.22006e-05,1.08041e-05,5.87585e-06,0
-1.53527e-05,7.07778e-07,-1.5781e-06,0.000243467,7.26564e-05,-5.6979e-05,1.11507e-05,5.44973e-06,0
-2.63908e-05,-4.06568e-06,-6.89047e-06,1.32761e-05,5.23378e-05,-4.63668e-05,1.34255e-05,4.74766e-06,0
-3.84026e-05,-5.294e-06,-1.06582e-05,-0.000183722,4.23538e-05,-2.77605e-05,1.50941e-05,4.52998e-06,0
-4.487e-05,-7.68956e-07,-1.29594e-05,-0.000242536,3.54663e-05,-8.53188e-06,1.46977e-05,3.44075e-06,0
-4.69071e-05,6.1698e-06,-1.57272e-05,-0.000150033,2.77573e-05,-3.78172e-06,1.38904e-05,1.58015e-06,0
-5.31869e-05,1.02058e-05,-1.6818e-05,-1.87064e-05,2.02682e-05,-1.97222e-05,1.33771e-05,1.99053e-06,0
-5.88564e-05,1.05894e-05,-1.54312e-05,6.89923e-05,1.15087e-05,-4.12436e-05,1.25224e-05,4.72325e-06,0
-5.39217e-05,8.72163e-06,-1.45798e-05,0.000124199,1.55004e-06,-5.10696e-05,1.17446e-05,7.24514e-06,0
-3.99994e-05,5.78397e-06,-1.64134e-05,0.000161793,-3.71884e-06,-4.42107e-05,1.15117e-05,7.55499e-06,0
-2.66612e-05,2.10446e-06,-2.02598e-05,0.000124971,-2.41482e-06,-3.15112e-05,1.23801e-05,5.32268e-06,0
-1.92396e-05,-8.89794e-07,-2.44431e-05,1.44341e-05,-7.60334e-07,-2.60931e-05,1.20087e-05,2.66213e-06,0
-1.71888e-05,-3.16054e-06,-2.79122e-05,-6.00417e-05,-5.31137e-06,-3.34453e-05,8.19978e-06,1.9275e-06,0
-1.55158e-05,-3.0125e-06,-2.72671e-05,-4.41486e-05,-1.13217e-05,-4.2476e-05,4.34229e-06,2.23995e-06,0
-1.09908e-05,1.79053e-06,-2.12659e-05,-2.14165e-05,-1.42705e-05,-3.13432e-05,4.74109e-06,1.25667e-06,0
-8.87057e-06,8.95256e-06,-1.48283e-05,-7.55337e-05,-1.81396e-05,5.64088e-06,9.29699e-06,-2.93798e-07,0
-1.50226e-05,1.3365e-05,-1.6008e-05,-0.000232677,-2.84766e-05,4.99853e-05,1.4562e-05,-3.46292e-07,0
-2.51425e-05,1.19576e-05,-2.90943e-05,-0.000544369,-3.92518e-05,7.64009e-05,1.77857e-05,-1.19038e-06,0
-3.06435e-05,6.16151e-06,-5.2105e-05,-0.00097693,-4.2403e-05,6.42611e-05,1.93144e-05,-3.03628e-06,0
-2.98137e-05,-5.13795e-07,-7.71396e-05,-0.00128393,-4.90113e-05,2.2899e-05,1.92852e-05,-4.32498e-06,0
-2.6811e-05,-2.4179e-06,-9.30004e-05,-0.00120473,-7.02982e-05,-8.62806e-06,1.77049e-05,-4.71246e-06,0
-2.61404e-05,-9.58418e-07,-9.13806e-05,-0.000726962,-8.69528e-05,-1.45233e-05,1.66642e-05,-4.69368e-06,0
-2.95224e-05,-3.08414e-06,-7.5059e-05,1.09458e-05,-7.97904e-05,-1.01757e-05,1.54859e-05,-5.95291e-06,0
-3.32352e-05,-6.25802e-06,-5.90883e-05,0.000635883,-5.41706e-05,-9.94215e-06,1.392e-05,-7.3114e-06,0
-3.63654e-05,-5.90174e-06,-4.9559e-05,0.000918779,-2.17297e-05,-1.04659e-05,1.38179e-05,-7.80683e-06,0
-4.27691e-05,-1.92857e-06,-4.11024e-05,0.000968529,6.58383e-06,-7.87244e-06,1.30387e-05,-7.89673e-06,0
-5.22608e-05,1.39081e-06,-3.01699e-05,0.000900364,2.2122e-05,-3.64363e-06,1.07473e-05,-7.90059e-06,0
-5.99304e-05,1.46047e-07,-1.53086e-05,0.00080058,3.35027e-05,-2.44547e-07,1.03923e-05,-7.64234e-06,0
-6.11865e-05,-2.56359e-06,-2.16159e-06,0.000560879,4.35816e-05,6.36882e-07,1.13e-05,-7.66066e-06,0
-5.71626e-05,-2.09449e-06,5.89146e-06,0.000135104,3.80089e-05,3.21238e-06,1.1281e-05,-8.12893e-06,0
-4.92465e-05,2.56492e-06,8.93116e-06,-0.000352944,8.24542e-06,9.04579e-06,1.0566e-05,-8.43791e-06,0
-3.89106e-05,1.03928e-05,1.06595e-05,-0.000618914,-3.73971e-05,1.39278e-05,1.04011e-05,-7.35134e-06,0
-3.06215e-05,2.06846e-05,1.46899e-05,-0.000550915,-7.5438e-05,1.39682e-05,1.0605e-05,-5.73423e-06,0
-2.88091e-05,2.80665e-05,1.5159e-05,-0.000321271,-8.65472e-05,4.84378e-06,1.0792e-05,-3.65037e-06,0
-3.21391e-05,2.81192e-05,4.00821e-06,-0.000168141,-7.75714e-05,-1.64325e-05,1.17125e-05,-1.69546e-06,0
-3.46168e-05,2.50898e-05,-1.19895e-05,-0.000204702,-7.48764e-05,-4.04853e-05,1.25416e-05,-1.19909e-06,0
-3.40456e-05,2.55839e-05,-2.00891e-05,-0.000345031,-8.16219e-05,-5.29289e-05,1.25726e-05,-1.4174e-06,0
-3.26198e-05,2.90239e-05,-1.93713e-05,-0.000437013,-7.7112e-05,-5.04998e-05,1.16474e-05,-2.45565e-06,0
-3.26257e-05,2.99096e-05,-1.66471e-05,-0.000314305,-4.68312e-05,-4.36503e-05,1.05232e-05,-3.84907e-06,0
-3.39505e-05,2.66721e-05,-1.57344e-05,2.77426e-05,3.06567e-06,-3.94937e-05,1.05101e-05,-4.49548e-06,0
-3.36178e-05,2.36209e-05,-1.4215e-05,0.000447441,6.11393e-05,-3.20601e-05,1.13001e-05,-4.34266e-06,0
-2.9556e-05,2.31672e-05,-1.33539e-05,0.000697118,0.000120826,-1.83629e-05,1.13451e-05,-4.84864e-06,0
-2.43688e-05,2.30261e-05,-1.34798e-05,0.000643538,0.000180456,-3.44041e-06,1.0443e-05,-5.02442e-06,0
-1.99143e-05,2.111e-05,-1.28176e-05,0.000359753,0.000230153,6.57131e-06,9.72415e-06,-5.82435e-06,0
-1.60024e-05,1.70998e-05,-9.7264e-06,5.53479e-05,0.00023872,8.12341e-06,1.04626e-05,-7.7225e-06,0
-1.20729e-05,1.50608e-05,-3.95004e-06,-9.16063e-05,0.000192556,4.49908e-07,1.22569e-05,-9.26865e-06,0
-8.03024e-06,2.15433e-05,2.01284e-06,1.6715e-05,0.000115569,-1.40658e-05,1.26377e-05,-7.18447e-06,0
-7.61561e-06,3.93333e-05,2.23027e-06,0.000277075,3.68018e-05,-3.25405e-05,1.18273e-05,-3.31193e-06,0
-1.19727e-05,5.75884e-05,-1.58423e-06,0.00041665,-1.83827e-05,-5.09226e-05,1.24275e-05,-2.19298e-06,0
-1.9097e-05,6.31156e-05,2.31165e-06,0.000320831,-2.33751e-05,-4.51016e-05,1.54549e-05,-2.03771e-06,0
-2.56822e-05,5.75339e-05,1.42341e-05,0.000208229,2.92405e-05,-4.63401e-07,1.92315e-05,-1.33652e-06,0
-2.99523e-05,4.45543e-05,2.25723e-05,0.000159546,9.947e-05,4.08107e-05,2.13562e-05,-5.7045e-07,0
-3.22229e-05,2.53149e-05,2.211e-05,5.97875e-05,0.000129967,4.06663e-05,2.30741e-05,-1.71208e-06,0
-3.29381e-05,3.2736e-06,1.60372e-05,-4.11172e-05,0.000107371,1.14992e-05,2.44578e-05,-2.84074e-06,0
-3.5902e-05,-1.23147e-05,7.74316e-06,-0.000115954,6.69989e-05,-1.69607e-05,2.28903e-05,-2.54633e-06,0
-4.30936e-05,-1.88063e-05,-2.13858e-06,-0.000184954,3.2798e-05,-2.83231e-05,1.8997e-05,-2.01971e-06,0
-5.67449e-05,-2.4539e-05,-8.9965e-06,-0.000233855,6.18312e-06,-2.59703e-05,1.40309e-05,-3.80215e-07,0
-7.20921e-05,-3.03728e-05,-6.22043e-06,-0.000199036,-5.41001e-06,-2.0638e-05,8.70708e-06,1.84394e-06,0
-7.51732e-05,-3.06314e-05,2.33646e-06,-6.74684e-05,-1.20257e-05,-1.59259e-05,5.35197e-06,3.01161e-06,0
-6.50332e-05,-2.31842e-05,6.46723e-06,5.73509e-05,-2.31964e-05,-4.46533e-06,4.09286e-06,2.4664e-06,0
-5.56313e-05,-1.28004e-05,1.86313e-06,4.34006e-05,-3.90347e-05,8.15996e-06,3.44604e-06,2.98284e-06,0
-5.10681e-05,-4.5627e-06,-6.64778e-06,-3.60572e-05,-4.51606e-05,1.079e-05,2.6454e-06,5.50594e-06,0
-4.15949e-05,4.60709e-07,-8.33245e-06,8.06807e-06,-3.20362e-05,4.89542e-06,1.4633e-06,7.89397e-06,0
-2.16231e-05,3.35103e-06,-6.13104e-07,0.000196447,-1.26093e-05,-4.27504e-07,7.353e-07,9.04041e-06,0
4.44768e-06,4.60282e-06,4.60934e-06,0.000330386,-7.64816e-06,3.35477e-06,1.5067e-06,8.60108e-06,0
3.0162e-05,5.46058e-06,-3.95421e-06,0.000273444,-2.344e-05,2.13081e-05,2.33873e-06,7.13764e-06,0
4.8288e-05,8.21647e-06,-2.32332e-05,0.000114764,-3.77894e-05,3.09064e-05,1.99462e-06,5.9422e-06,0
4.91617e-05,1.0838e-05,-4.04879e-05,-1.0114e-05,-3.42136e-05,-8.00783e-06,2.2901e-06,5.59255e-06,0
2.92274e-05,9.07783e-06,-4.84561e-05,-0.000110325,-2.33866e-05,-7.60025e-05,3.77113e-06,5.42328e-06,0
-7.91354e-07,3.70468e-06,-4.88828e-05,-0.000220424,-2.63108e-05,-9.54851e-05,5.25085e-06,5.92124e-06,0
-2.40452e-05,1.05244e-06,-4.4349e-05,-0.000268162,-3.68844e-05,-3.88557e-05,6.45369e-06,6.05106e-06,0
-3.81171e-05,2.27139e-06,-3.61152e-05,-0.000235145,-3.73994e-05,1.58629e-05,8.10196e-06,6.40678e-06,0
-4.70315e-05,1.72372e-06,-2.81079e-05,-0.000211546,-2.44718e-05,8.11281e-06,9.13242e-06,7.82329e-06,0
-4.7008e-05,4.68473e-07,-1.54671e-05,-0.000309701,4.97349e-07,-1.71204e-05,8.75235e-06,1.10342e-05,0
-3.98947e-05,1.68491e-06,1.80103e-06,-0.00058562,4.43518e-05,-1.49023e-05,7.89319e-06,1.42378e-05,0
-3.52045e-05,4.7983e-06,6.5512e-06,-0.000957239,9.18765e-05,-2.07661e-07,7.28776e-06,1.28153e-05,0
-3.75754e-05,8.12961e-06,-9.176e-06,-0.00111435,0.000107502,5.14543e-06,7.16291e-06,7.72381e-06,0
-4.05355e-05,8.60269e-06,-2.92214e-05,-0.000722924,8.56888e-05,-3.59899e-07,8.04801e-06,3.61787e-06,0
-3.17105e-05,6.45662e-06,-3.96365e-05,2.35534e-05,5.42336e-05,-4.85548e-06,9.34507e-06,2.76501e-06,0
-1.61817e-05,5.99791e-06,-3.83965e-05,0.000598341,3.45651e-05,-2.74779e-06,9.88836e-06,2.92371e-06,0
-1.08401e-05,6.94676e-06,-2.6422e-05,0.000757502,2.99653e-05,2.75912e-11,1.10461e-05,2.47081e-06,0
-1.46198e-05,9.57116e-06,-6.84448e-06,0.000535881,3.1248e-05,3.42875e-06,1.28741e-05,4.13322e-07,0
-1.31217e-05,1.61647e-05,1.89512e-05,0.0002196,1.49709e-05,1.14991e-05,1.40149e-05,-5.93077e-07,0
-6.11382e-06,2.10488e-05,4.01621e-05,0.000124393,-3.12895e-05,1.71453e-05,1.43039e-05,2.18877e-07,0
-9.19047e-06,1.88717e-05,4.4684e-05,0.000265345,-9.27645e-05,1.04985e-05,1.24922e-05,7.58237e-07,0
-2.91179e-05,9.71216e-06,3.14609e-05,0.000437798,-0.00014703,-5.06465e-06,1.05959e-05,1.51731e-07,0
-5.66746e-05,5.05387e-07,1.46366e-05,0.000445172,-0.000177242,-1.67203e-05,1.17335e-05,-8.65793e-07,0
-7.69236e-05,-1.30977e-06,6.50557e-06,0.000329946,-0.000171597,-1.76857e-05,1.37955e-05,-1.92844e-07,0
-7.65491e-05,3.3276e-06,2.71165e-06,0.000269271,-0.000127015,-1.05233e-05,1.44038e-05,8.98791e-07,0
-5.91302e-05,7.6456e-06,-6.96783e-06,0.000282967,-4.98823e-05,-3.62544e-07,1.40376e-05,1.49674e-06,0
-4.51463e-05,8.06006e-06,-1.98861e-05,0.000301906,3.68477e-05,8.93287e-06,1.19702e-05,7.0349e-07,0
-4.27319e-05,7.52711e-06,-2.00967e-05,0.000248456,0.000106433,1.49119e-05,7.64546e-06,2.11196e-07,0
-3.90082e-05,1.12528e-05,-1.4367e-06,5.14382e-05,0.000143847,1.52651e-05,2.72619e-06,1.3044e-06,0
-2.45416e-05,2.05246e-05,2.82413e-05,-0.00026121,0.000149126,5.90524e-06,5.26944e-07,3.16949e-06,0
-9.22554e-06,2.86779e-05,5.4744e-05,-0.000482482,0.000135373,-1.63883e-05,1.0998e-06,4.17636e-06,0
-5.5477e-06,2.99315e-05,6.80207e-05,-0.000466368,0.000118179,-4.24221e-05,2.85919e-06,8.11186e-06,0
-1.14565e-05,2.77047e-05,6.63103e-05,-0.00032807,0.000107617,-5.33734e-05,6.42289e-06,2.14832e-05,0
-1.99742e-05,2.60015e-05,5.30382e-05,-0.00017858,0.000102615,-4.75187e-05,1.11898e-05,3.61117e-05,0
-2.83175e-05,2.21136e-05,3.10977e-05,-3.3689e-05,8.98701e-05,-3.92416e-05,1.66502e-05,3.72702e-05,0
-3.42929e-05,1.60069e-05,7.59138e-06,1.99372e-05,7.26053e-05,-3.42552e-05,2.28466e-05,2.76078e-05,0
-3.80395e-05,1.0025e-05,-1.04744e-05,-6.98822e-05,6.88787e-05,-2.80058e-05,2.90333e-05,1.36282e-05,0
-4.24896e-05,3.27069e-06,-2.29463e-05,-0.000232194,6.85358e-05,-1.95365e-05,3.31411e-05,-5.12686e-06,0
-4.72171e-05,-2.10155e-06,-3.28731e-05,-0.000268889,4.12372e-05,-1.64132e-05,3.4503e-05,-2.50958e-05,0
-4.91082e-05,-4.19536e-06,-4.58098e-05,-0.000146442,-1.4946e-05,-2.08824e-05,3.40671e-05,-4.26819e-05,0
-4.65963e-05,-4.49555e-06,-5.91243e-05,-0.00015535,-6.17444e-05,-2.43743e-05,3.2491e-05,-5.02019e-05,0
-4.15405e-05,-1.60751e-06,-6.68776e-05,-0.000352939,-8.40221e-05,-2.25772e-05,3.07839e-05,-4.82283e-05,0
-3.61605e-05,5.59945e-06,-6.46711e-05,-0.000498534,-9.22094e-05,-1.90505e-05,3.11109e-05,-4.25556e-05,0
-2.75352e-05,1.82081e-05,-3.88426e-05,-0.000293016,-8.05871e-05,-1.20185e-05,3.02186e-05,-3.55194e-05,0
-1.81524e-05,3.13811e-05,5.95227e-06,0.000157189,-1.12541e-05,-1.65911e-06,2.78391e-05,-2.71749e-05,0
-1.59368e-05,3.51158e-05,2.87482e-05,0.000325996,0.000108791,5.39491e-06,2.59726e-05,-1.68502e-05,0
-2.27941e-05,2.81772e-05,1.81295e-05,0.000133458,0.00021845,4.27739e-06,2.50346e-05,-8.43033e-06,0
-2.99072e-05,2.16089e-05,1.14683e-05,-4.49522e-05,0.0002991,-3.26591e-06,2.50823e-05,-1.8294e-06,0
-2.97579e-05,2.16245e-05,2.60224e-05,1.86537e-05,0.000340964,-1.09257e-05,2.33969e-05,1.89752e-06,0
-2.54339e-05,2.45393e-05,4.69934e-05,0.000246082,0.000326871,-1.25503e-05,1.88355e-05,2.83718e-06,0
-2.29454e-05,2.83307e-05,5.22802e-05,0.000425039,0.000248396,-8.04048e-06,1.28997e-05,3.93004e-06,0
-2.17377e-05,2.94042e-05,3.45367e-05,0.000443273,0.000132166,-1.85224e-06,9.11005e-06,5.10928e-06,0
-1.7429e-05,2.70215e-05,7.35377e-06,0.000294144,9.80406e-06,5.90829e-06,8.57307e-06,4.93411e-06,0
-1.12175e-05,2.36604e-05,-1.12157e-05,7.74057e-05,-0.000108364,1.62168e-05,1.02235e-05,5.30709e-06,0
-6.17543e-06,2.22553e-05,-1.45781e-05,-6.49702e-05,-0.000213651,2.76296e-05,1.0845e-05,7.1245e-06,0
-5.4909e-06,2.39027e-05,-9.91769e-06,-4.64363e-05,-0.000282335,3.32963e-05,9.74675e-06,7.40001e-06,0
-1.05839e-05,2.73651e-05,-6.36085e-06,0.000130125,-0.000301919,2.57554e-05,8.28965e-06,4.82008e-06,0
-1.94039e-05,3.0679e-05,-9.7946e-06,0.000325039,-0.000297631,7.29434e-06,7.44787e-06,1.5949e-06,0
-2.61461e-05,3.36048e-05,-1.63117e-05,0.000348143,-0.000291333,-8.72797e-06,7.18695e-06,4.73951e-07,0
-2.94332e-05,3.54892e-05,-2.01969e-05,0.00016624,-0.000274471,-1.46095e-05,7.56328e-06,4.79666e-07,0
-3.32564e-05,3.22283e-05,-2.27341e-05,-7.97528e-05,-0.000230886,-1.50226e-05,7.8786e-06,1.09324e-06,0
-3.94802e-05,2.2972e-05,-2.61398e-05,-0.000263437,-0.000169994,-1.53154e-05,7.64421e-06,1.55061e-06,0
-4.58397e-05,1.35149e-05,-2.79989e-05,-0.000296362,-9.6751e-05,-1.57728e-05,7.50658e-06,6.81159e-08,0
-5.07156e-05,1.11085e-05,-2.71084e-05,-0.000202553,-1.27232e-05,-1.47405e-05,8.89254e-06,-2.44862e-06,0
-5.30813e-05,1.76288e-05,-2.26543e-05,-5.36261e-05,7.01801e-05,-1.27992e-05,1.05889e-05,-2.21065e-06,0
-5.2264e-05,3.19216e-05,-1.62465e-05,7.81939e-05,0.000129723,-1.4644e-05,1.04163e-05,8.19978e-07,0
-5.02128e-05,4.80481e-05,-1.04549e-05,0.000131015,0.000160057,-2.01544e-05,1.03962e-05,2.41806e-06,0
-4.84092e-05,5.3861e-05,-7.34643e-06,8.62637e-05,0.000144521,-1.88068e-05,1.01544e-05,1.90359e-06,0
-4.76758e-05,4.77105e-05,-5.94871e-06,3.03344e-05,8.81959e-05,-8.3549e-06,9.76099e-06,2.82706e-06,0
-4.73293e-05,3.39475e-05,-4.84606e-06,2.08379e-05,2.84465e-05,2.20482e-06,1.0105e-05,5.20654e-06,0
-4.46521e-05,1.60216e-05,-3.0933e-06,2.47298e-05,-1.46127e-05,7.56423e-06,1.12206e-05,5.71468e-06,0
-3.89957e-05,1.28211e-06,-5.13288e-07,-9.72791e-05,-2.25874e-05,7.44729e-06,1.13426e-05,5.20404e-06,0
-3.12426e-05,-7.52309e-06,-2.26723e-06,-0.000472334,5.80036e-07,-1.48362e-06,1.06397e-05,6.4273e-06,0
-2.41211e-05,-9.63831e-06,-9.10961e-06,-0.000771602,3.10867e-05,-2.3561e-05,1.09336e-05,6.84596e-06,0
-2.18124e-05,-1.02047e-05,-2.06995e-05,-0.00063719,5.30806e-05,-3.32834e-05,1.11645e-05,6.33555e-06,0
-2.24195e-05,-9.08195e-06,-2.94667e-05,-0.000181145,8.16263e-05,-2.4678e-06,1.12589e-05,7.55542e-06,0
-2.27403e-05,-5.58531e-06,-3.17383e-05,0.000205082,0.000115313,3.54936e-05,1.1067e-05,1.0208e-05,0
-2.42742e-05,-2.11019e-06,-3.15537e-05,0.000335868,0.000124324,3.14736e-05,9.68891e-06,1.24039e-05,0
-3.00115e-05,6.1767e-08,-2.94651e-05,0.000332379,9.46545e-05,-9.43268e-06,8.2939e-06,1.20231e-05,0
-3.80419e-05,-1.17175e-06,-2.38542e-05,0.000318944,4.38147e-05,-4.37874e-05,9.1569e-06,1.02184e-05,0
-4.34913e-05,-5.06549e-06,-1.51063e-05,0.000289823,-2.09735e-06,-4.94614e-05,1.03117e-05,8.99759e-06,0
-4.53449e-05,-1.0362e-05,-1.20173e-05,0.000162691,-2.94437e-05,-4.10731e-05,9.35156e-06,9.55269e-06,0
-4.69018e-05,-1.43111e-05,-2.22788e-05,-7.18351e-05,-3.50651e-05,-3.60197e-05,6.96415e-06,9.24758e-06,0
-5.0049e-05,-1.63487e-05,-4.33848e-05,-0.000332512,-3.02501e-05,-3.60374e-05,4.44898e-06,7.71877e-06,0
-5.26636e-05,-1.54662e-05,-6.2656e-05,-0.000450007,-3.20461e-05,-3.50701e-05,2.87009e-06,7.26745e-06,0
-4.98868e-05,-1.10626e-05,-6.61935e-05,-0.00032972,-4.06306e-05,-2.83723e-05,4.12064e-06,7.82826e-06,0
-4.00791e-05,-1.91253e-06,-5.0532e-05,-2.93045e-05,-3.30176e-05,-1.6753e-05,7.51692e-06,7.62538e-06,0
-2.64725e-05,1.04884e-05,-2.54536e-05,0.00030048,5.49966e-06,-4.35901e-06,9.67566e-06,6.387e-06,0
-1.58753e-05,2.36447e-05,-1.82382e-06,0.00047302,5.75509e-05,4.3128e-06,1.08529e-05,5.85454e-06,0
-1.50994e-05,2.9885e-05,1.22088e-05,0.000400696,8.21187e-05,2.97723e-07,1.25464e-05,5.84536e-06,0
-2.16292e-05,2.62193e-05,1.40416e-05,0.000139488,6.84482e-05,-1.40729e-05,1.29055e-05,5.6264e-06,0
-2.87292e-05,2.0372e-05,9.14632e-06,-9.47686e-05,3.89801e-05,-2.48021e-05,1.09594e-05,6.02053e-06,0
-3.46469e-05,1.50412e-05,1.69506e-06,-7.4605e-05,1.65308e-06,-2.95003e-05,9.07885e-06,7.40442e-06,0
-3.94226e-05,1.17639e-05,-6.1356e-06,0.000196032,-2.49283e-05,-3.16835e-05,1.0939e-05,8.49046e-06,0
-3.92818e-05,1.23864e-05,-4.06457e-06,0.00037796,-1.48387e-05,-3.45232e-05,1.48534e-05,7.04035e-06,0
-3.51137e-05,1.65255e-05,1.32348e-05,0.00030972,-8.60782e-06,-3.94919e-05,1.60811e-05,4.9573e-06,0
-3.31852e-05,2.05571e-05,2.82458e-05,0.000184462,-2.68534e-05,-3.93468e-05,1.60994e-05,4.91361e-06,0
-3.09077e-05,2.19022e-05,3.38878e-05,6.80121e-05,-2.08711e-05,-2.99247e-05,1.55251e-05,5.30217e-06,0
-2.56206e-05,2.34499e-05,3.73513e-05,-5.73107e-05,1.34135e-05,-1.30317e-05,1.66581e-05,6.18061e-06,0
-1.9734e-05,2.1867e-05,3.32691e-05,-0.000185092,3.73048e-05,-2.22927e-06,1.83213e-05,6.28553e-06,0
-1.51067e-05,1.70087e-05,2.04438e-05,-0.000215344,3.06907e-05,-9.44991e-06,1.77647e-05,5.06551e-06,0
-1.6041e-05,1.18365e-05,4.56386e-06,-8.17325e-05,2.1352e-05,-3.17616e-05,1.69723e-05,3.80161e-06,0
-2.31027e-05,7.89709e-06,-7.66825e-06,0.000120324,3.57784e-05,-5.52588e-05,1.66796e-05,3.53787e-06,0
-3.08356e-05,7.9041e-06,-1.13738e-05,0.000225559,5.84346e-05,-6.0803e-05,1.58578e-05,3.61051e-06,0
-3.05048e-05,1.54289e-05,-1.20221e-05,0.000170446,6.93373e-05,-4.60961e-05,1.51288e-05,4.01116e-06,0
-2.49564e-05,3.24218e-05,-1.33989e-05,2.46578e-05,6.4931e-05,-1.55395e-05,1.57843e-05,4.61429e-06,0
-2.68389e-05,4.66434e-05,-1.43892e-05,-0.000185057,5.02856e-05,1.44664e-05,1.70137e-05,4.98322e-06,0
-3.70882e-05,4.47765e-05,-1.58289e-05,-0.000439753,3.43426e-05,1.03994e-05,1.81459e-05,5.09651e-06,0
-4.50244e-05,2.80749e-05,-2.15475e-05,-0.000647368,3.76705e-05,-3.8289e-05,1.79315e-05,3.75613e-06,0
-4.05721e-05,1.32862e-05,-2.86564e-05,-0.000766797,6.36618e-05,-8.95338e-05,1.70401e-05,1.0878e-06,0
-2.69874e-05,1.06937e-05,-3.36e-05,-0.000916038,7.30989e-05,-9.61428e-05,1.5241e-05,-9.71809e-07,0
-2.1601e-05,1.26986e-05,-4.18366e-05,-0.00109302,4.3237e-05,-5.64878e-05,1.33262e-05,-1.46115e-06,0
-3.47397e-05,8.23979e-06,-5.55925e-05,-0.00105621,1.26561e-05,1.27855e-05,1.12768e-05,-1.90728e-06,0
-5.49227e-05,-1.80232e-06,-6.37937e-05,-0.000609221,1.37967e-05,0.000100139,8.58643e-06,-1.95486e-06,0
-6.52889e-05,-1.21783e-05,-6.0408e-05,0.000112684,2.13657e-05,0.000160429,6.44929e-06,-9.23532e-07,0
-6.25731e-05,-2.29524e-05,-5.92291e-05,0.000712865,-6.26847e-06,0.000122841,5.62748e-06,1.46581e-06,0
-5.47241e-05,-3.46976e-05,-6.87435e-05,0.000912304,-6.66586e-05,1.65375e-05,6.05032e-06,6.08773e-06,0
-4.98612e-05,-4.42996e-05,-7.52234e-05,0.000754424,-0.000108612,-5.34957e-05,7.89115e-06,1.19032e-05,0
-4.78362e-05,-4.74451e-05,-5.71861e-05,0.000445982,-0.000101492,-5.80991e-05,1.02903e-05,1.65955e-05,0
-4.36768e-05,-4.38362e-05,-1.85307e-05,0.000221167,-6.80541e-05,-3.79459e-05,1.15395e-05,2.52619e-05,0
-3.90025e-05,-3.73756e-05,1.33731e-05,0.000142215,-3.74699e-05,-2.33545e-05,1.32608e-05,3.56254e-05,0
-3.35553e-05,-2.81055e-05,3.19889e-05,0.000225685,-9.45018e-06,-1.19051e-05,1.70172e-05,3.13763e-05,0
-2.64115e-05,-1.38078e-05,4.80612e-05,0.00037649,3.73048e-05,7.42459e-06,1.96169e-05,1.34687e-05,0
-1.71968e-05,-8.86698e-07,5.06958e-05,0.000345711,8.31428e-05,3.65696e-05,1.87026e-05,-5.95858e-06,0
-2.90241e-06,7.99694e-06,3.19763e-05,0.000158714,9.86797e-05,6.72153e-05,1.54605e-05,-2.09892e-05,0
3.45332e-06,1.17087e-05,2.61543e-06,2.67119e-06,8.07251e-05,8.14672e-05,1.11664e-05,-2.87695e-05,0
-5.23989e-06,1.09044e-05,-2.14839e-05,-1.84102e-05,4.33268e-05,8.3614e-05,7.80546e-06,-3.05542e-05,0
-1.66114e-05,1.02919e-05,-2.51804e-05,7.8225e-05,2.59648e-05,8.71303e-05,5.78785e-06,-2.81081e-05,0
-2.69123e-05,9.16573e-06,-1.0363e-05,0.000260104,2.28925e-05,6.7162e-05,3.62666e-06,-2.24298e-05,0
-3.99087e-05,9.966e-06,1.59565e-05,0.000398186,1.10544e-05,3.75613e-06,8.63874e-07,-1.0712e-05,0
-5.71585e-05,1.44049e-05,4.21278e-05,0.000261653,-9.89019e-06,-6.57539e-05,-1.47866e-06,6.63511e-06,0
-7.65745e-05,1.72287e-05,4.78725e-05,-0.000203317,-3.54559e-05,-7.37441e-05,-5.46876e-06,2.47741e-05,0
-9.15895e-05,1.46951e-05,2.41751e-05,-0.000673163,-5.53544e-05,-1.92576e-05,-1.29366e-05,3.58174e-05,0
-9.441e-05,1.00962e-05,-9.64684e-06,-0.000741535,-5.0979e-05,2.48298e-05,-2.13543e-05,3.43639e-05,0
-8.60908e-05,8.42557e-06,-2.69578e-05,-0.000382932,-1.48012e-05,1.93565e-05,-2.59841e-05,2.28369e-05,0
-7.1755e-05,9.44793e-06,-2.19806e-05,0.000115344,4.15471e-05,-1.11729e-05,-2.38421e-05,9.21263e-06,0
-5.13426e-05,1.21183e-05,-7.91228e-06,0.000484421,9.71341e-05,-3.55568e-05,-1.5967e-05,-7.17229e-07,0
-2.31434e-05,1.63697e-05,-2.23437e-07,0.000596725,0.000125243,-4.27637e-05,-6.62586e-06,-7.78259e-06,0
1.36184e-05,1.98222e-05,-2.38608e-06,0.000380115,0.000122839,-2.02207e-05,-1.45119e-07,-1.34263e-05,0
5.60026e-05,2.04431e-05,-5.6549e-06,-3.91472e-05,0.000104763,2.57646e-05,3.85384e-06,-1.83962e-05,0
8.60484e-05,1.89916e-05,-3.12089e-06,-0.00027539,7.65465e-05,5.27847e-05,7.96196e-06,-2.15231e-05,0
8.11738e-05,1.5879e-05,-9.04063e-07,-0.000150684,3.85566e-05,3.46861e-05,1.09433e-05,-2.25956e-05,0
5.4755e-05,1.58819e-05,6.13825e-07,0.000120678,-1.42825e-06,5.25043e-06,1.18833e-05,-2.18136e-05,0
3.30564e-05,2.20685e-05,6.02683e-06,0.000278677,-3.58513e-05,-2.66289e-06,1.4036e-05,-1.97962e-05,0
1.7955e-05,2.87962e-05,1.00415e-05,0.000181302,-6.35435e-05,-3.17306e-06,1.94385e-05,-1.01939e-05,0
5.6059e-06,3.00608e-05,9.7076e-06,-0.000247861,-8.0216e-05,-1.356e-05,2.68702e-05,2.19072e-05,0
-1.38392e-06,2.63115e-05,8.56121e-06,-0.000865699,-7.10881e-05,-2.75075e-05,3.31135e-05,6.97553e-05,0
-3.97237e-06,2.04156e-05,2.79504e-06,-0.0011751,-5.70929e-05,-2.74724e-05,3.38034e-05,9.8186e-05,0
-7.66195e-06,1.42791e-05,-1.34342e-05,-0.000749954,-6.78083e-05,-7.76078e-06,3.04506e-05,8.80013e-05,0
-1.50298e-05,1.09811e-05,-3.5543e-05,6.15745e-05,-7.08752e-05,1.02948e-05,2.71784e-05,5.46924e-05,0
-2.09329e-05,1.1689e-05,-5.17229e-05,0.000519165,-7.30538e-06,1.01929e-05,2.52829e-05,2.20532e-05,0
-2.07565e-05,1.60059e-05,-4.75463e-05,0.000565481,8.53663e-05,2.87809e-06,2.44158e-05,-2.33663e-06,0
-1.79133e-05,2.20451e-05,-1.98793e-05,0.000496967,0.000135962,1.81173e-06,2.35194e-05,-1.97982e-05,0
-1.48881e-05,2.7102e-05,1.3398e-05,0.00027935,0.000138389,5.29217e-06,2.44115e-05,-3.43564e-05,0
-1.50347e-05,2.78286e-05,3.23595e-05,-0.000127088,8.42469e-05,4.5762e-06,2.43993e-05,-4.46269e-05,0
-1.9625e-05,2.43472e-05,3.10113e-05,-0.000398639,-2.59769e-06,-2.32212e-06,2.158e-05,-5.09788e-05,0
-2.62163e-05,1.72621e-05,1.70354e-05,-0.0002918,-6.82056e-05,-1.16392e-05,1.76879e-05,-5.64134e-05,0
-3.17032e-05,1.19922e-05,2.76782e-06,3.52564e-05,-7.34149e-05,-1.6563e-05,1.41411e-05,-6.08362e-05,0
-3.25488e-05,1.36493e-05,-4.33122e-06,0.000288204,-3.54216e-05,-1.54809e-05,1.14462e-05,-6.20743e-05,0
-2.99116e-05,1.83276e-05,-8.18799e-06,0.000258319,-1.8825e-05,-1.18204e-05,1.0889e-05,-5.65666e-05,0
-2.63426e-05,2.13567e-05,-1.27183e-05,-5.49825e-05,-4.34434e-05,-9.26078e-06,1.29872e-05,-4.66585e-05,0
-2.56609e-05,2.08976e-05,-1.47958e-05,-0.000376912,-7.47119e-05,-1.06605e-05,1.46035e-05,-3.51702e-05,0
-3.00574e-05,2.04676e-05,-1.23215e-05,-0.00031471,-7.97792e-05,-1.78722e-05,1.43997e-05,-2.36099e-05,0
-3.62054e-05,1.87181e-05,-9.37798e-06,0.000180872,-5.78207e-05,-2.67066e-05,1.34807e-05,-1.16347e-05,0
-3.82798e-05,1.24575e-05,-1.09437e-05,0.000742598,-2.14497e-05,-3.0949e-05,1.31798e-05,-4.46262e-07,0
-3.55081e-05,4.76323e-06,-1.64505e-05,0.000961188,4.39302e-05,-3.29815e-05,1.29274e-05,8.67582e-06,0
-3.13385e-05,1.31854e-06,-2.23763e-05,0.000755425,0.000160217,-3.67526e-05,1.31243e-05,1.54002e-05,0
-2.55717e-05,3.22473e-06,-2.20681e-05,0.000361234,0.000262922,-3.60186e-05,1.41187e-05,2.24174e-05,0
-1.70426e-05,8.92556e-06,-9.41975e-06,6.16659e-05,0.000272576,-2.68595e-05,1.61502e-05,2.82904e-05,0
-1.10844e-05,1.42252e-05,6.65808e-06,-9.75321e-05,0.000231101,-1.58454e-05,1.89882e-05,2.94026e-05,0
-1.09673e-05,1.51068e-05,4.12889e-06,-0.000267346,0.000174197,-1.03219e-05,2.24113e-05,2.44944e-05,0
-1.546e-05,1.20996e-05,-1.14562e-05,-0.000495308,8.326e-05,-1.15659e-05,2.53665e-05,1.60263e-05,0
-2.56907e-05,5.22355e-06,-2.04655e-05,-0.000621062,-5.22683e-06,-1.57643e-05,2.60151e-05,5.66708e-06,0
-3.79053e-05,1.59354e-06,-2.22843e-05,-0.000585868,-4.53999e-05,-2.02627e-05,2.48291e-05,-3.82063e-06,0
-5.12837e-05,8.59839e-06,-2.04404e-05,-0.000474682,-2.70898e-05,-2.94303e-05,2.26323e-05,-9.74811e-06,0
-6.63932e-05,1.80654e-05,-1.67093e-05,-0.000364114,-4.26793e-05,-5.78801e-05,1.97106e-05,-1.16936e-05,0
-7.63013e-05,2.11355e-05,-1.12547e-05,-0.000349493,-0.000136524,-9.08228e-05,1.76884e-05,-9.41595e-06,0
-6.80039e-05,2.17775e-05,6.66559e-07,-0.000309438,-0.000177323,-6.82033e-05,1.70432e-05,1.918e-07,0
-5.16338e-05,2.38288e-05,1.95956e-05,-0.000197193,-9.98678e-05,6.2519e-06,1.66993e-05,2.04996e-05,0
-5.104e-05,2.79115e-05,3.11545e-05,-4.99157e-05,8.48338e-05,4.12137e-05,1.5935e-05,3.66048e-05,0
-5.94544e-05,3.66723e-05,2.88803e-05,0.000161384,0.000250015,3.00197e-06,1.43615e-05,3.79704e-05,0
-5.73234e-05,4.71266e-05,2.50888e-05,0.000252358,0.000286005,-4.40775e-05,1.29823e-05,2.7944e-05,0
-4.10804e-05,5.00063e-05,1.96216e-05,0.000126507,0.000266289,-5.00426e-05,1.19934e-05,1.08773e-05,0
-2.78606e-05,4.34213e-05,5.7244e-06,-5.93774e-05,0.000198445,-3.39739e-05,1.07285e-05,-8.77348e-06,0
-2.64631e-05,3.23333e-05,-1.22499e-05,-0.000149928,6.5187e-05,-2.03766e-05,8.91913e-06,-2.93804e-05,0
-2.95342e-05,2.33303e-05,-1.99423e-05,-8.7591e-05,-7.8311e-05,-1.2766e-05,5.919e-06,-4.53424e-05,0
-2.93744e-05,1.93004e-05,-1.43167e-05,6.99843e-05,-0.000161346,-6.64345e-06,8.6663e-07,-4.99495e-05,0
-2.59567e-05,1.78818e-05,-4.99249e-06,0.000205942,-0.000176747,2.31873e-08,-5.07041e-06,-4.4642e-05,0
-2.38907e-05,1.68245e-05,4.72111e-06,0.00029726,-0.000153538,3.72972e-06,-9.07194e-06,-3.61981e-05,0
-2.57872e-05,1.45083e-05,1.67238e-05,0.000407426,-0.000117972,1.19215e-06,-9.01525e-06,-2.8862e-05,0
-3.1053e-05,8.7688e-06,2.92e-05,0.000549298,-9.47866e-05,-6.02963e-06,-4.7322e-06,-2.08059e-05,0
-3.53211e-05,1.64485e-06,3.57537e-05,0.00061901,-8.08851e-05,-1.06912e-05,2.04788e-06,-1.08074e-05,0
-3.68175e-05,-2.69732e-06,3.22895e-05,0.000536992,-5.87548e-05,-1.06436e-05,1.00982e-05,-2.60783e-06,0
-3.67776e-05,-5.62485e-06,1.3088e-05,0.000335885,-1.90331e-05,-8.71051e-06,2.03309e-05,1.20995e-06,0
-3.63169e-05,-8.91243e-06,-2.06185e-05,4.86593e-05,1.21499e-05,-7.56544e-06,3.11405e-05,2.5379e-06,0
-3.63347e-05,-1.12788e-05,-6.23865e-05,-0.00026486,5.69568e-06,-9.20344e-06,3.83435e-05,4.69036e-06,0
-3.96552e-05,-1.14824e-05,-0.000105318,-0.000445116,-3.06557e-05,-1.84146e-05,4.13893e-05,8.3629e-06,0
-4.30849e-05,-9.0383e-06,-0.000137233,-0.000374916,-5.61531e-05,-3.54661e-05,4.34964e-05,9.92972e-06,0
-4.38873e-05,-5.50301e-06,-0.000142197,-9.77058e-05,-4.93123e-05,-5.33732e-05,4.52528e-05,9.8783e-06,0
-4.12021e-05,1.36198e-07,-0.000117204,0.000238814,-1.17779e-05,-5.05364e-05,4.40894e-05,9.88566e-06,0
-3.37617e-05,1.47779e-05,-7.43541e-05,0.00048225,1.44726e-05,-2.71173e-05,4.10556e-05,9.31848e-06,0
-2.49346e-05,3.7019e-05,-3.31694e-05,0.000589019,-6.58649e-06,-1.25754e-05,3.90658e-05,5.88474e-06,0
-2.02556e-05,5.40344e-05,-4.8047e-06,0.000467614,-5.50835e-05,-1.96234e-05,3.69988e-05,-8.25415e-08,0
-1.68674e-05,6.1269e-05,1.70728e-05,6.76158e-05,-8.01805e-05,-3.76961e-05,3.36919e-05,-8.50459e-07,0
-1.46485e-05,5.75974e-05,2.50248e-05,-0.000323076,-7.31631e-05,-5.52786e-05,3.07554e-05,2.10238e-06,0
-2.1395e-05,4.10047e-05,1.61628e-05,-0.000469955,-6.93919e-05,-5.48126e-05,2.78769e-05,4.75837e-06,0
-3.33223e-05,2.46951e-05,5.63728e-06,-0.000483958,-6.98687e-05,-1.87753e-05,2.2909e-05,7.10556e-06,0
-4.28812e-05,1.72526e-05,-4.89928e-06,-0.000519359,-5.18206e-05,1.98669e-05,1.81517e-05,7.74262e-06,0
-4.91462e-05,1.65166e-05,-1.40752e-05,-0.00061503,-2.34923e-05,2.26942e-05,1.56929e-05,7.84233e-06,0
-5.27221e-05,1.51365e-05,-2.271e-05,-0.000691883,-3.10256e-06,-9.16361e-07,1.23508e-05,7.56389e-06,0
-5.15164e-05,8.95843e-06,-3.3944e-05,-0.000709374,2.16794e-05,-2.10829e-05,7.50841e-06,7.32328e-06,0
-4.86963e-05,8.08294e-07,-5.09427e-05,-0.000760002,5.45886e-05,-3.12429e-05,3.40098e-06,5.79178e-06,0
-4.95022e-05,-9.68805e-06,-7.12754e-05,-0.000812959,7.51227e-05,-3.98435e-05,-1.20241e-07,4.19456e-06,0
-5.22629e-05,-2.14308e-05,-8.13491e-05,-0.000619926,7.63737e-05,-4.61392e-05,-3.80735e-06,3.54621e-06,0
-5.22673e-05,-2.7676e-05,-6.90825e-05,-6.43196e-05,7.72299e-05,-4.70214e-05,-7.03492e-06,4.05611e-06,0
-4.89159e-05,-2.339e-05,-3.59256e-05,0.000596219,9.70414e-05,-4.13762e-05,-9.92229e-06,5.02802e-06,0
-4.5424e-05,-1.40967e-05,3.20251e-07,0.00100008,0.000134062,-3.51026e-05,-1.20283e-05,4.91565e-06,0
-4.19014e-05,-9.98707e-07,2.33886e-05,0.000946298,0.000151539,-3.28857e-05,-1.23469e-05,3.99234e-06,0
