ch1,ch2,ch3,ch4,ch5,ch6,ch7,ch8,class
-3.69148e-05,1.35805e-05,-1.08872e-05,0.000141674,3.97389e-05,-3.06031e-06,2.07008e-06,8.79411e-06,0
-3.30788e-05,1.37627e-05,-8.44606e-06,0.000122813,5.7896e-05,-2.59121e-05,-1.5983e-06,9.7541e-06,0
-2.98493e-05,1.37754e-05,-4.54815e-06,7.2622e-05,9.37615e-05,-3.24449e-05,-7.4623e-06,8.58379e-06,0
-2.69072e-05,1.32189e-05,-2.55701e-06,4.82763e-05,0.000111687,-2.68893e-05,-1.18814e-05,6.76866e-06,0
-2.35125e-05,1.25972e-05,-2.429e-06,6.80556e-05,0.000100064,-2.05578e-05,-1.20994e-05,5.76535e-06,0
-1.88914e-05,1.35843e-05,1.86785e-08,6.78991e-05,6.27566e-05,-1.93616e-05,-8.5781e-06,4.87143e-06,0
-1.31263e-05,1.56678e-05,4.98327e-06,3.54271e-06,-1.08472e-06,-1.96445e-05,-4.53595e-06,3.84539e-06,0
-6.23962e-06,1.53564e-05,4.15175e-06,-6.93827e-05,-6.97997e-05,-1.57361e-05,-2.01789e-06,3.02365e-06,0
5.10409e-06,1.29636e-05,-2.04905e-06,-7.6419e-05,-0.000108493,6.34987e-06,1.00312e-06,3.33689e-06,0
1.81682e-05,1.38772e-05,-4.00907e-08,-1.22496e-05,-0.000113661,3.7574e-05,7.63498e-06,3.44921e-06,0
2.32936e-05,1.77459e-05,1.30103e-05,6.20701e-05,-0.000109604,4.77356e-05,1.62889e-05,2.32148e-06,0
1.84646e-05,2.11467e-05,2.48381e-05,0.000100984,-0.000115062,3.16842e-05,2.39533e-05,-1.16728e-06,0
5.63793e-06,2.44988e-05,2.77058e-05,0.000115758,-0.000123109,1.21084e-05,2.91582e-05,-4.68536e-06,0
-1.48812e-05,3.28211e-05,2.15097e-05,0.000106901,-0.00011754,2.84142e-06,3.19717e-05,-4.47175e-06,0
-3.56224e-05,5.34147e-05,1.01201e-05,2.22289e-05,-8.905e-05,3.72231e-07,3.33669e-05,-2.07641e-06,0
-4.83932e-05,7.52875e-05,3.99501e-08,-0.000108118,-3.5101e-05,-3.84506e-06,3.34359e-05,5.64873e-07,0
-5.25555e-05,7.89602e-05,-2.21393e-06,-0.000192223,3.20388e-05,-2.50529e-05,3.39165e-05,3.52431e-06,0
-4.73874e-05,6.20525e-05,-7.56761e-07,-0.000179886,6.76591e-05,-6.70885e-05,3.26237e-05,6.62851e-06,0
-3.60039e-05,3.75232e-05,-9.42203e-07,-8.42649e-05,7.06553e-05,-9.39322e-05,2.96555e-05,8.16145e-06,0
-3.26059e-05,1.74573e-05,1.67095e-06,2.09064e-05,7.2479e-05,-8.67539e-05,2.78802e-05,6.60938e-06,0
-4.16098e-05,2.03017e-06,2.71391e-06,1.69924e-05,5.76625e-05,-5.39427e-05,2.65869e-05,4.315e-06,0
-5.0266e-05,-9.08938e-06,-5.81936e-06,-0.00018137,1.25971e-05,-5.72197e-06,2.65794e-05,3.58848e-06,0
-5.26655e-05,-1.70582e-05,-2.40032e-05,-0.000362515,-4.92307e-05,1.91586e-05,2.63774e-05,3.74997e-06,0
-5.53598e-05,-2.45205e-05,-4.30322e-05,-0.000253436,-9.15484e-05,-4.58288e-06,2.51426e-05,2.45622e-06,0
-6.44053e-05,-3.03006e-05,-5.22424e-05,0.000124229,-9.87566e-05,-5.39122e-05,2.24902e-05,-1.72035e-06,0
-7.37657e-05,-2.99235e-05,-5.06108e-05,0.000443974,-8.78413e-05,-9.13519e-05,1.88764e-05,-6.6524e-06,0
-7.31189e-05,-2.06879e-05,-4.36518e-05,0.000412046,-7.38917e-05,-0.000100246,1.49663e-05,-8.70457e-06,0
-5.98757e-05,-4.19964e-06,-3.40748e-05,7.85133e-05,-3.25409e-05,-8.20325e-05,1.28211e-05,-6.64839e-06,0
-4.5017e-05,1.58106e-05,-2.49695e-05,-0.000339745,7.24447e-05,-5.49205e-05,1.32848e-05,-2.86371e-06,0
-4.14076e-05,3.10926e-05,-1.96707e-05,-0.000551071,0.000210839,-2.47355e-05,1.4161e-05,-3.9917e-07,0
-5.2158e-05,3.49592e-05,-1.21426e-05,-0.000357049,0.000309559,1.24946e-05,1.263e-05,-9.80869e-07,0
-7.1764e-05,2.88203e-05,4.25253e-06,0.000101755,0.000340694,3.68722e-05,8.46463e-06,-3.19305e-06,0
-8.83787e-05,1.86464e-05,1.85517e-05,0.000434077,0.00030629,2.78206e-05,4.30045e-06,-4.77786e-06,0
-9.11631e-05,1.11912e-05,1.6446e-05,0.000421289,0.000215133,8.13022e-06,1.58088e-06,-4.90324e-06,0
-7.94473e-05,1.02456e-05,5.72685e-06,0.000188654,9.22329e-05,8.71914e-06,9.49056e-07,-3.18802e-06,0
-6.16512e-05,1.32656e-05,5.04297e-07,-3.25328e-05,-3.79631e-05,1.83523e-05,1.95892e-06,-2.06456e-07,0
-4.66171e-05,1.71162e-05,6.77347e-07,-0.000105982,-0.000144924,9.58482e-06,3.34473e-06,2.83953e-06,0
-3.74658e-05,1.78639e-05,1.23559e-06,-3.72835e-05,-0.000190003,-1.64023e-05,4.5929e-06,4.00389e-06,0
-2.72851e-05,1.50583e-05,1.45374e-06,6.62766e-05,-0.000154574,-3.10871e-05,7.14464e-06,4.34846e-06,0
-5.97293e-06,1.5874e-05,2.49836e-06,0.000104377,-5.92597e-05,-1.83186e-05,1.14239e-05,5.9869e-06,0
2.96614e-05,2.34117e-05,4.36612e-06,7.9024e-05,4.31165e-05,8.87268e-06,1.6482e-05,7.86124e-06,0
5.83046e-05,3.23082e-05,6.29558e-06,4.6366e-05,9.18091e-05,2.61861e-05,1.76073e-05,9.35439e-06,0
4.95033e-05,3.42733e-05,5.55989e-06,3.76173e-05,8.41391e-05,1.86378e-05,1.65858e-05,1.01855e-05,0
9.27348e-06,2.59368e-05,-1.91753e-06,5.13819e-05,4.19961e-05,-6.29015e-06,1.65077e-05,1.16447e-05,0
-2.26255e-05,1.66743e-05,-1.05249e-05,7.51128e-05,-7.63975e-06,-1.80922e-05,1.7585e-05,1.1086e-05,0
-3.09437e-05,1.55088e-05,-1.34429e-05,6.66816e-05,-4.47993e-05,-1.64126e-05,2.01037e-05,7.68467e-06,0
-2.77077e-05,2.07723e-05,-1.23685e-05,9.59564e-06,-5.39045e-05,2.75828e-06,2.24184e-05,5.38038e-06,0
-2.13542e-05,2.52713e-05,-1.19527e-05,-8.08333e-05,-2.79338e-05,3.15433e-05,2.29475e-05,4.48705e-06,0
-1.8488e-05,2.64936e-05,-1.62429e-05,-0.000160279,5.11842e-06,2.8077e-05,2.1036e-05,5.05344e-06,0
-1.29931e-05,2.50234e-05,-1.91356e-05,-0.000187118,2.53736e-05,6.04689e-06,1.95706e-05,5.8486e-06,0
-6.09732e-06,2.19502e-05,-1.94589e-05,-0.0001899,2.34677e-05,4.6405e-06,1.77703e-05,6.37068e-06,0
-4.19584e-06,1.82807e-05,-2.37901e-05,-0.000227219,1.11818e-05,1.8109e-05,1.50217e-05,6.06453e-06,0
-7.85498e-06,1.24128e-05,-3.4773e-05,-0.000310512,1.64982e-07,3.9574e-06,1.37838e-05,6.04043e-06,0
-1.65592e-05,6.21668e-06,-4.80185e-05,-0.000403389,-8.2516e-06,-3.21509e-05,1.56212e-05,6.41891e-06,0
-2.73312e-05,2.69366e-06,-5.76393e-05,-0.000453545,-1.93284e-05,-5.27658e-05,1.53018e-05,6.67791e-06,0
-3.60541e-05,3.23487e-06,-6.26676e-05,-0.000380104,-4.3465e-05,-5.12892e-05,5.88471e-06,7.52639e-06,0
-3.92076e-05,4.16827e-06,-6.14518e-05,-0.000128577,-7.68761e-05,-4.41334e-05,-1.02978e-05,8.25829e-06,0
-3.7629e-05,5.32763e-06,-5.14888e-05,0.000207897,-9.15856e-05,-3.98308e-05,-2.49061e-05,7.77034e-06,0
-3.25339e-05,9.22572e-06,-3.16251e-05,0.000397361,-7.75052e-05,-3.3504e-05,-3.21019e-05,5.93054e-06,0
-2.28403e-05,1.48618e-05,-8.73859e-06,0.000333314,-5.6799e-05,-2.64542e-05,-3.01541e-05,4.05481e-06,0
-4.5276e-06,1.84215e-05,6.99505e-06,0.000146615,-2.9208e-05,-1.97909e-05,-1.99735e-05,3.06995e-06,0
1.70924e-05,1.83528e-05,1.00365e-05,4.60323e-06,1.37677e-05,-1.70375e-05,-4.04054e-06,3.29156e-06,0
2.90806e-05,1.92381e-05,6.89791e-06,-2.97562e-05,5.56149e-05,-2.43352e-05,1.45029e-05,2.86242e-06,0
2.43122e-05,2.35031e-05,5.74174e-06,2.2155e-05,7.98765e-05,-3.70612e-05,3.11251e-05,2.26278e-06,0
7.94585e-06,2.68765e-05,8.0711e-06,0.000100857,9.33502e-05,-3.0311e-05,4.33506e-05,1.7946e-06,0
-1.25672e-05,2.5519e-05,1.16539e-05,0.000152564,0.000101387,-7.55095e-06,4.93035e-05,2.45554e-06,0
-3.15462e-05,2.10241e-05,1.15209e-05,0.000151601,0.000102042,-3.16118e-06,4.82148e-05,4.18962e-06,0
-4.66142e-05,1.52803e-05,6.73464e-06,0.000123972,0.000102761,-1.91082e-05,4.31609e-05,3.87986e-06,0
-5.86108e-05,8.87903e-06,-2.96496e-07,7.47075e-05,0.000129018,-3.29558e-05,3.58081e-05,3.72438e-06,0
-6.97285e-05,3.38489e-06,-7.52046e-06,-2.62941e-05,0.000157666,-4.03071e-05,3.01799e-05,4.41716e-06,0
-7.87052e-05,-1.51088e-06,-1.64509e-05,-9.25339e-05,0.000109296,-4.63839e-05,2.84242e-05,6.64703e-06,0
-7.99378e-05,-7.45623e-06,-2.92223e-05,-6.04635e-06,-5.29827e-06,-5.04097e-05,2.56572e-05,9.24931e-06,0
-7.39102e-05,-1.24249e-05,-4.42324e-05,0.000189132,-0.000122192,-4.83639e-05,2.13498e-05,8.52371e-06,0
-6.91247e-05,-1.44081e-05,-5.46223e-05,0.000387554,-0.000202696,-2.53087e-05,1.6606e-05,8.82106e-06,0
-6.75083e-05,-1.49198e-05,-5.33275e-05,0.000523026,-0.000211325,4.11942e-05,1.31215e-05,8.84761e-06,0
-6.35756e-05,-1.60918e-05,-3.79352e-05,0.000473426,-0.000157794,0.00010122,9.99379e-06,7.94912e-06,0
-4.92552e-05,-1.05238e-05,-8.3217e-06,0.000146772,-7.33903e-05,9.59328e-05,7.377e-06,7.5442e-06,0
-2.7616e-05,4.18592e-06,2.51293e-05,-0.000354289,1.59923e-05,5.78978e-05,6.92893e-06,7.09859e-06,0
-1.42356e-05,1.7297e-05,4.05509e-05,-0.000767003,0.000106133,3.08847e-05,7.41888e-06,8.08372e-06,0
-1.1841e-05,2.178e-05,2.99112e-05,-0.000845983,0.000183421,2.52912e-05,8.33631e-06,9.09628e-06,0
-1.43438e-05,2.08936e-05,6.64892e-06,-0.000570438,0.000220741,2.69939e-05,9.20903e-06,9.26961e-06,0
-1.78549e-05,1.96574e-05,-1.24553e-05,-0.000157534,0.000208089,2.38319e-05,1.02898e-05,8.52023e-06,0
-2.29635e-05,1.88995e-05,-1.85071e-05,0.000146565,0.000151639,1.13127e-05,1.06898e-05,8.32976e-06,0
-2.63956e-05,1.91278e-05,-1.26953e-05,0.00025591,8.64959e-05,-3.07524e-06,1.07923e-05,9.6485e-06,0
-2.53325e-05,2.28213e-05,3.89865e-07,0.0002293,3.97412e-05,-1.01713e-05,1.05662e-05,1.28351e-05,0
-2.04513e-05,3.06249e-05,1.49108e-05,0.000131531,9.84978e-06,-8.34194e-06,1.10597e-05,1.48624e-05,0
-1.44769e-05,3.88584e-05,2.50857e-05,1.01882e-05,-1.2903e-05,9.36376e-08,1.24322e-05,1.33312e-05,0
-9.42255e-06,4.36609e-05,2.70989e-05,-8.61504e-05,-1.61754e-05,9.5705e-06,1.3034e-05,9.35993e-06,0
-6.71984e-06,4.14225e-05,2.07452e-05,-0.000133042,5.39072e-06,1.66143e-05,1.14362e-05,4.68923e-06,0
-8.37604e-06,3.16454e-05,9.17779e-06,-0.000146792,2.88616e-05,2.32243e-05,9.40568e-06,-9.3002e-08,0
-1.57206e-05,1.87031e-05,-3.5588e-06,-0.000147083,2.97734e-05,2.94783e-05,8.59519e-06,-3.89301e-06,0
-2.77655e-05,9.89765e-06,-1.21997e-05,-0.000133477,1.38388e-05,2.70476e-05,7.99256e-06,-6.93896e-06,0
-3.83428e-05,6.79069e-06,-1.57907e-05,-0.000106439,4.12793e-06,2.99184e-05,8.38408e-06,-9.07407e-06,0
-4.59648e-05,7.34317e-06,-1.6214e-05,-6.54843e-05,7.66715e-06,4.54649e-05,9.51816e-06,-1.00823e-05,0
-5.19724e-05,9.7251e-06,-1.47134e-05,-2.39253e-05,5.77984e-06,3.26108e-05,8.84388e-06,-1.25195e-05,0
-5.53088e-05,9.99552e-06,-1.30851e-05,-1.3312e-05,-1.18503e-05,-1.74104e-05,4.66303e-06,-1.43874e-05,0
-5.70857e-05,5.07141e-06,-1.45784e-05,-4.62415e-05,-3.2539e-05,-5.38116e-05,6.98238e-07,-1.29878e-05,0
-5.95544e-05,-5.86753e-08,-1.90579e-05,-9.40175e-05,-2.9923e-05,-5.68085e-05,1.70816e-06,-1.1178e-05,0
-6.06032e-05,2.62958e-06,-2.19447e-05,-0.000164875,-1.33859e-05,-6.08816e-05,6.51196e-06,-9.97634e-06,0
-5.12934e-05,5.63236e-06,-1.99217e-05,-0.000226934,-7.94405e-07,-8.92698e-05,1.00063e-05,-7.91881e-06,0
-3.07379e-05,2.18816e-07,-1.14619e-05,-0.000141844,8.73357e-06,-0.000101289,1.06187e-05,-6.46878e-06,0
-1.12513e-05,-1.14423e-05,5.5164e-06,0.000137086,-2.83695e-06,-6.47873e-05,9.70543e-06,-4.26882e-06,0
-2.79655e-06,-2.43543e-05,3.17339e-05,0.00042939,-2.08657e-05,-2.26338e-05,8.76907e-06,-2.77937e-06,0
-2.63901e-06,-3.09833e-05,6.34008e-05,0.000529889,-9.2676e-06,-1.2041e-05,8.33291e-06,-2.00385e-06,0
-3.01136e-06,-2.78503e-05,8.50599e-05,0.000392463,2.59298e-05,-9.8172e-06,8.81902e-06,-7.79793e-07,0
-5.54854e-06,-1.91264e-05,8.15901e-05,0.000101702,2.29775e-05,-5.23256e-06,1.02657e-05,5.32054e-07,0
-1.37604e-05,-1.30662e-05,5.08355e-05,-0.000140012,-2.99365e-05,-8.90128e-06,1.05735e-05,2.26069e-06,0
-2.48632e-05,-1.16088e-05,4.97554e-06,-0.000185286,-9.25019e-05,-1.84995e-05,9.58944e-06,2.67171e-06,0
-3.29206e-05,-1.1231e-05,-3.93444e-05,-5.48809e-05,-0.0001162,-2.34139e-05,8.42272e-06,1.69829e-06,0
-3.97656e-05,-9.94055e-06,-7.18638e-05,8.52872e-05,-8.82716e-05,-2.08289e-05,8.23129e-06,9.84633e-07,0
-4.93756e-05,-6.7963e-06,-8.66716e-05,7.33511e-05,-4.16915e-05,-1.59002e-05,1.0398e-05,1.24362e-06,0
-6.18135e-05,-2.62344e-06,-8.66935e-05,-6.54957e-05,-1.02563e-05,-1.39701e-05,1.32265e-05,3.58608e-06,0
-7.31624e-05,2.64123e-07,-7.85986e-05,-0.000162031,4.47699e-06,-1.7685e-05,1.45273e-05,9.57106e-06,0
-7.93514e-05,1.50794e-06,-6.47815e-05,-0.000114095,2.81936e-05,-2.37489e-05,1.49027e-05,1.56836e-05,0
-8.12893e-05,3.71606e-06,-4.51535e-05,-9.98783e-06,5.6161e-05,-2.98833e-05,1.61957e-05,1.89445e-05,0
-8.159e-05,5.28752e-06,-2.63575e-05,1.91833e-06,6.07811e-05,-3.41253e-05,1.72457e-05,1.97403e-05,0
-7.9828e-05,1.98023e-06,-1.67828e-05,-9.68027e-05,1.97908e-05,-3.78164e-05,1.64103e-05,1.79059e-05,0
-7.08343e-05,-5.38541e-06,-1.61039e-05,-0.000132348,-5.04026e-05,-3.85308e-05,1.46894e-05,1.24743e-05,0
-5.01569e-05,-1.0467e-05,-1.56999e-05,4.67169e-05,-0.000107404,-3.438e-05,1.32474e-05,5.14054e-06,0
-1.90438e-05,-9.04239e-06,-1.15182e-05,0.000314737,-0.000112046,-2.56387e-05,1.2827e-05,3.56101e-07,0
1.05216e-05,-2.64498e-06,-4.63877e-06,0.000406752,-7.19258e-05,-1.73723e-05,1.32605e-05,7.88165e-07,0
2.02279e-05,4.73042e-06,3.91269e-06,0.000312388,-2.33917e-05,-1.3206e-05,1.37912e-05,4.13275e-06,0
9.29711e-06,9.81822e-06,6.86863e-06,0.00023,9.07626e-06,-1.30851e-05,1.41448e-05,8.15389e-06,0
-3.95753e-06,1.07261e-05,1.98638e-06,0.000228296,2.57544e-05,-1.25168e-05,1.34729e-05,1.89967e-05,0
-1.2187e-05,9.22138e-06,-7.11234e-06,0.000135238,3.59527e-05,-9.57238e-06,1.22697e-05,3.90989e-05,0
-1.51988e-05,9.46424e-06,-1.42802e-05,-0.000149685,4.16593e-05,-5.93924e-06,1.18418e-05,4.88671e-05,0
-1.63773e-05,1.24559e-05,-1.13679e-05,-0.000394535,4.25416e-05,-2.64129e-06,1.13173e-05,4.3066e-05,0
-1.96772e-05,1.34832e-05,-7.68958e-06,-0.00042823,3.38935e-05,-3.75504e-06,1.0128e-05,2.87604e-05,0
-2.21103e-05,1.49265e-05,-1.15889e-05,-0.000317405,2.27019e-05,-5.35077e-06,9.93974e-06,5.64807e-06,0
-1.86109e-05,2.27117e-05,-1.22543e-05,-0.000204405,4.24928e-05,4.1256e-06,1.1622e-05,-1.82831e-05,0
-9.07555e-06,3.29293e-05,-4.41509e-06,-0.000178342,7.81944e-05,1.96071e-05,1.2448e-05,-3.76239e-05,0
6.423e-07,3.88544e-05,3.68963e-06,-0.000189223,7.87718e-05,2.57862e-05,1.13675e-05,-4.51369e-05,0
1.20882e-05,3.83305e-05,6.7145e-06,-0.000192304,4.36886e-05,2.20032e-05,9.1175e-06,-4.1112e-05,0
2.33716e-05,3.36483e-05,2.09919e-06,-0.000231762,-5.55932e-06,1.27835e-05,8.00203e-06,-3.25123e-05,0
2.37519e-05,2.56077e-05,-5.50634e-06,-0.000220172,-3.98877e-05,2.85067e-06,8.00398e-06,-2.19774e-05,0
1.08126e-05,1.89666e-05,-5.07142e-06,-1.02443e-05,-2.84615e-05,-3.60835e-06,6.32814e-06,-1.02325e-05,0
-8.12664e-06,1.71645e-05,8.38185e-07,0.000250769,1.96536e-05,-6.22895e-06,1.48206e-06,-6.97897e-07,0
-2.44347e-05,2.21592e-05,2.44886e-06,0.00035952,6.2641e-05,-8.45618e-06,-4.3101e-06,3.13057e-06,0
-3.47821e-05,3.38292e-05,-1.88269e-07,0.000329944,8.18106e-05,-1.0774e-05,-6.8218e-06,2.46132e-06,0
-4.15016e-05,4.34267e-05,2.74676e-06,0.000276809,9.14816e-05,-1.0075e-05,-4.51762e-06,1.28385e-06,0
-4.92155e-05,4.08515e-05,1.41438e-05,0.000221295,9.46188e-05,-8.75127e-06,1.26186e-06,1.51688e-06,0
-5.88152e-05,2.53655e-05,2.28561e-05,0.000147639,6.82804e-05,-1.16772e-05,8.28107e-06,2.20711e-06,0
-6.39352e-05,6.77578e-06,1.73424e-05,7.98254e-05,1.90141e-05,-1.51947e-05,1.26202e-05,4.55086e-06,0
-6.08513e-05,-4.44549e-06,2.52276e-06,3.40707e-05,-1.14723e-05,-1.38967e-05,5.67199e-06,6.51493e-06,0
-5.25263e-05,-6.60834e-06,-1.07532e-05,2.29958e-05,-8.26511e-06,-1.03107e-05,-1.30614e-05,5.28842e-06,0
-4.32447e-05,-5.54057e-06,-2.04839e-05,2.59975e-05,1.78509e-07,-9.3079e-06,-3.03114e-05,1.78137e-06,0
-3.70315e-05,-3.751e-06,-2.52369e-05,2.4717e-05,3.60219e-07,-7.51595e-06,-3.53013e-05,-1.0938e-06,0
-3.43307e-05,-1.39867e-06,-2.19038e-05,2.36223e-05,-1.78939e-06,6.97745e-07,-2.8962e-05,-2.07926e-06,0
-3.33939e-05,2.77843e-06,-1.42331e-05,4.0272e-05,2.24337e-06,1.00308e-05,-1.52598e-05,-1.94821e-06,0
-3.37257e-05,9.33717e-06,-4.05897e-06,4.73908e-05,3.08805e-05,1.17364e-05,3.78952e-06,-2.01035e-06,0
-3.39e-05,1.52661e-05,5.84998e-06,1.06154e-05,0.000109475,2.5357e-06,2.68698e-05,-3.20844e-06,0
-3.52732e-05,1.69902e-05,9.84176e-06,-2.35433e-05,0.000230912,-2.19738e-05,5.3264e-05,-5.41256e-06,0
-3.82049e-05,1.88901e-05,6.66648e-06,-4.01003e-05,0.000289635,-3.90254e-05,7.57225e-05,-6.70312e-06,0
-4.26126e-05,2.55432e-05,-9.85103e-08,-8.78196e-05,0.000244027,-2.61813e-05,8.8635e-05,-8.1061e-06,0
-4.70137e-05,3.10581e-05,-3.72852e-06,-0.000153956,0.000143656,-2.86292e-06,9.36219e-05,-9.49335e-06,0
-4.6944e-05,2.96584e-05,-2.84209e-06,-0.000225798,1.37577e-05,7.35741e-06,8.85441e-05,-9.77388e-06,0
-4.40757e-05,2.52504e-05,-2.61906e-06,-0.000260178,-0.000108846,4.00662e-06,7.46794e-05,-8.93389e-06,0
-4.25738e-05,2.23769e-05,-6.00413e-06,-0.00022108,-0.000210708,-9.39361e-07,5.64911e-05,-6.97856e-06,0
-4.37373e-05,1.93527e-05,-8.33148e-06,-0.000148661,-0.000261412,-1.05531e-05,3.9211e-05,-4.70035e-06,0
-4.63911e-05,1.44285e-05,-8.81373e-06,-6.20045e-05,-0.000259977,-2.15992e-05,2.57511e-05,-3.00999e-06,0
-4.36585e-05,9.82047e-06,-8.3547e-06,5.0577e-05,-0.000204861,-2.11379e-05,1.64517e-05,-1.52013e-06,0
-3.04778e-05,6.66919e-06,-8.28668e-06,0.000179246,-0.000108194,-5.39747e-06,1.04981e-05,-4.20184e-07,0
-1.31296e-05,3.26573e-06,-1.02241e-05,0.000259951,-1.11508e-05,9.95749e-06,9.30866e-06,1.13441e-08,0
5.68637e-06,6.71804e-07,-1.29029e-05,0.000266335,8.32648e-05,1.08927e-05,1.31515e-05,1.09345e-06,0
2.39817e-05,5.26284e-07,-1.26239e-05,0.000243546,0.000165367,2.24605e-06,1.77574e-05,1.98693e-06,0
3.13012e-05,2.95075e-06,-8.16579e-06,0.000233994,0.000202812,-6.57167e-06,2.02107e-05,3.06997e-06,0
2.0205e-05,6.27291e-06,-2.73818e-06,0.000216268,0.000170636,-1.10433e-05,2.06053e-05,2.71584e-06,0
-2.85599e-06,8.9015e-06,1.22042e-06,0.000113598,0.000100212,-8.96689e-06,2.1238e-05,-7.90526e-07,0
-2.58473e-05,1.09898e-05,2.43103e-06,-6.55305e-05,3.73404e-05,4.38233e-06,2.12818e-05,-5.80523e-06,0
-4.70872e-05,1.41902e-05,7.62613e-07,-0.000181807,1.37953e-05,1.7919e-05,1.99467e-05,-9.15417e-06,0
-6.54328e-05,1.71234e-05,-3.6649e-06,-0.000177095,1.65765e-05,1.67893e-05,1.70596e-05,-8.78555e-06,0
-7.28252e-05,1.7068e-05,-1.10199e-05,-0.000153332,2.10208e-05,3.56035e-06,1.41733e-05,-5.72208e-06,0
-6.80501e-05,1.5731e-05,-2.16279e-05,-0.00015321,1.44028e-05,-9.0734e-06,1.07784e-05,-4.25626e-06,0
-6.12423e-05,1.63367e-05,-2.98341e-05,-0.000103637,1.11846e-05,-1.74541e-05,7.34837e-06,-5.51559e-06,0
-5.85041e-05,1.91594e-05,-2.56192e-05,-5.38544e-06,1.99787e-05,-2.34118e-05,5.73631e-06,-7.19446e-06,0
-5.61171e-05,2.19147e-05,-9.90308e-06,6.10054e-05,3.76988e-05,-3.11939e-05,6.54428e-06,-7.86505e-06,0
-4.90862e-05,2.25019e-05,3.18196e-06,6.60315e-05,5.201e-05,-4.09811e-05,5.65345e-06,-6.09322e-06,0
-4.2233e-05,2.02495e-05,7.23436e-06,4.62434e-05,4.96605e-05,-4.79452e-05,1.57291e-06,-2.28197e-06,0
-4.32397e-05,1.46724e-05,3.92948e-06,2.3763e-05,2.97244e-05,-5.20892e-05,-1.05955e-06,-2.60369e-07,0
-4.69006e-05,1.03023e-05,-1.75104e-06,-2.45945e-06,-4.45768e-07,-5.68322e-05,-1.27043e-06,-1.44975e-06,0
-4.67525e-05,9.51951e-06,-6.80793e-06,-2.18552e-05,-2.41163e-05,-6.07811e-05,6.74808e-07,-2.95148e-06,0
-4.36626e-05,9.59573e-06,-1.10215e-05,-2.89431e-05,-3.37801e-05,-5.60281e-05,3.58915e-06,-1.44873e-06,0
-3.90236e-05,8.9937e-06,-1.57097e-05,-2.87704e-05,-2.46033e-05,-3.92454e-05,4.35646e-06,1.8861e-06,0
-3.48177e-05,8.16585e-06,-2.41119e-05,-3.31683e-05,-1.25008e-05,-1.94359e-05,2.84159e-06,2.34224e-06,0
-3.32884e-05,9.06967e-06,-3.13353e-05,-4.66473e-05,-6.92186e-06,-1.21409e-05,1.54896e-06,1.15314e-06,0
-3.47152e-05,8.50389e-06,-3.50955e-05,-6.54052e-05,2.4014e-05,-1.957e-05,1.73905e-06,-1.09995e-06,0
-3.80866e-05,4.98632e-06,-3.98942e-05,-6.67297e-05,9.06167e-05,-2.98267e-05,3.24044e-06,-2.90128e-06,0
-4.10935e-05,2.23822e-06,-4.71129e-05,-4.96566e-05,0.000127961,-3.4732e-05,5.4181e-06,-3.4889e-06,0
-3.97958e-05,8.01633e-06,-4.97275e-05,-2.98501e-05,9.90112e-05,-3.23504e-05,8.79074e-06,-3.50739e-06,0
-3.29729e-05,2.60073e-05,-4.28584e-05,1.54406e-05,4.92451e-05,-2.64372e-05,1.12459e-05,-1.8879e-06,0
-2.25185e-05,4.89632e-05,-2.59266e-05,7.06678e-05,2.41757e-05,-2.56926e-05,1.34327e-05,1.9059e-07,0
-1.15778e-05,6.20555e-05,-6.75637e-06,7.45218e-05,1.30848e-05,-3.53227e-05,1.81137e-05,1.25137e-06,0
-2.28587e-06,5.83725e-05,5.08071e-06,1.256e-05,-7.958e-06,-4.55938e-05,2.44037e-05,9.6616e-07,0
3.44622e-06,4.66051e-05,1.27478e-05,-5.80695e-05,-3.92812e-05,-4.50846e-05,2.98016e-05,2.49919e-06,0
2.23884e-06,3.65274e-05,2.20556e-05,-0.000107772,-7.46758e-05,-2.73427e-05,3.16409e-05,5.1373e-06,0
-5.34334e-06,3.22506e-05,2.83555e-05,-0.000155156,-0.000105713,1.2427e-05,2.77625e-05,5.67248e-06,0
-1.47236e-05,3.33652e-05,2.26484e-05,-0.000190921,-0.000109684,4.6369e-05,1.98438e-05,4.44209e-06,0
-2.08615e-05,3.38265e-05,7.69844e-06,-0.000175575,-7.67594e-05,4.52019e-05,1.19933e-05,3.63683e-06,0
-2.225e-05,2.64368e-05,-6.43833e-06,-8.57472e-05,-1.55432e-05,2.74604e-05,5.81226e-06,4.09523e-06,0
-2.61537e-05,1.28442e-05,-1.34102e-05,3.36955e-05,6.65927e-05,1.62752e-05,1.34498e-06,5.43824e-06,0
-4.13734e-05,-1.38442e-06,-1.33335e-05,8.55073e-05,0.000135999,5.35551e-06,-1.70761e-06,6.9041e-06,0
-6.28029e-05,-1.33831e-05,-1.2282e-05,4.92895e-05,0.000145005,-8.79298e-06,-4.1427e-06,6.87383e-06,0
-7.59273e-05,-2.13087e-05,-1.52544e-05,-1.87623e-05,9.75074e-05,-1.81836e-05,-7.48571e-06,6.04755e-06,0
-7.73035e-05,-2.39837e-05,-1.81549e-05,-0.00012172,2.89856e-05,-1.73733e-05,-1.07103e-05,6.99061e-06,0
-7.22236e-05,-2.23811e-05,-1.92931e-05,-0.000259254,-2.97367e-05,2.26925e-06,-1.1074e-05,7.70231e-06,0
-5.669e-05,-1.56638e-05,-1.90487e-05,-0.00029599,-6.93319e-05,3.18733e-05,-7.90821e-06,4.15262e-06,0
-3.23489e-05,-6.77146e-06,-1.79688e-05,-0.000132762,-9.17138e-05,1.14164e-05,-3.41284e-06,-6.62831e-07,0
-5.86089e-06,9.00942e-07,-1.58057e-05,4.28911e-05,-9.73266e-05,-5.04584e-05,-1.29989e-06,-2.18002e-06,0
1.57233e-05,4.25967e-06,-1.44138e-05,1.54246e-05,-8.45568e-05,-5.62787e-05,-2.53424e-06,-4.0695e-07,0
2.17327e-05,5.00101e-06,-1.58309e-05,-7.20467e-05,-5.32156e-05,1.10952e-05,-5.88575e-06,1.64955e-06,0
1.24959e-05,1.03797e-05,-1.82606e-05,7.0616e-06,-9.16962e-06,6.22651e-05,-1.22415e-05,1.93029e-06,0
-2.69774e-06,1.57656e-05,-2.02762e-05,0.000171765,3.12593e-05,4.5614e-05,-1.96542e-05,1.38101e-06,0
-1.44884e-05,1.49632e-05,-2.39498e-05,0.000248748,5.48541e-05,5.51984e-06,-2.13764e-05,1.36222e-06,0
-2.33951e-05,8.03919e-06,-3.33851e-05,0.000219191,5.18596e-05,-1.93988e-05,-1.57123e-05,2.02135e-06,0
-3.09027e-05,1.13259e-06,-4.25956e-05,0.000155562,-2.29528e-06,-2.84423e-05,-5.60752e-06,1.0955e-06,0
-3.39997e-05,-1.31307e-06,-3.91611e-05,7.81741e-05,-7.32001e-05,-3.81583e-05,5.92566e-06,-1.56872e-06,0
-2.92171e-05,2.8395e-06,-1.8604e-05,-2.7356e-05,-9.89363e-05,-4.35882e-05,1.94737e-05,-1.0605e-06,0
-2.02478e-05,1.04606e-05,4.62717e-06,-0.000120159,-5.73098e-05,-2.81785e-05,3.66184e-05,4.89957e-06,0
-1.37885e-05,1.62261e-05,1.61789e-05,-0.000153523,4.40026e-06,2.43093e-06,5.45964e-05,1.1908e-05,0
-1.26032e-05,1.92528e-05,1.68356e-05,-0.000138691,1.57189e-05,2.10472e-05,6.90265e-05,1.26633e-05,0
-1.60588e-05,1.91603e-05,1.34801e-05,-9.22243e-05,-4.05478e-05,1.51049e-05,7.62884e-05,5.27361e-06,0
-2.02472e-05,1.6782e-05,7.96006e-06,1.65699e-05,-0.000104651,1.61184e-06,7.63635e-05,-2.68114e-06,0
-2.27412e-05,1.39052e-05,2.05821e-06,0.000223543,-0.000100694,-4.43836e-06,7.13149e-05,-2.52356e-06,0
-2.30771e-05,1.17561e-05,-3.31038e-07,0.000459485,-2.76214e-05,-2.86221e-06,6.31922e-05,2.99771e-06,0
-2.39654e-05,9.55486e-06,-1.08628e-06,0.000543953,5.7119e-05,-1.95437e-06,5.34847e-05,4.86306e-06,0
-2.64297e-05,8.46685e-06,-5.32479e-06,0.000391103,0.00010913,-3.59499e-06,4.46384e-05,1.92482e-06,0
-2.88006e-05,9.96244e-06,-1.09294e-05,0.000113355,0.000137571,-4.81295e-06,3.8151e-05,-2.1453e-06,0
-2.75492e-05,1.6245e-05,-9.25441e-06,-0.000112717,0.000162467,5.1835e-07,3.07976e-05,-7.68991e-06,0
-2.19878e-05,2.38585e-05,-1.84962e-06,-0.000214316,0.000181042,7.60159e-06,2.07133e-05,-1.53144e-05,0
-1.78365e-05,2.68816e-05,1.1937e-06,-0.000215736,0.0001715,1.02886e-05,1.00225e-05,-2.09945e-05,0
-1.95994e-05,2.39479e-05,-2.19936e-06,-0.000156455,0.000125762,9.17423e-06,1.31416e-06,-2.2304e-05,0
-2.39977e-05,1.79311e-05,-8.12811e-06,-0.000124033,5.40076e-05,7.77767e-06,-3.27216e-06,-2.14438e-05,0
-2.79148e-05,1.13051e-05,-1.71665e-05,-0.000216093,1.3402e-05,-6.282e-06,-7.55024e-06,-1.98504e-05,0
-3.00167e-05,5.37773e-06,-2.34174e-05,-0.000276122,4.26091e-05,-3.12128e-05,-1.29815e-05,-1.78862e-05,0
-3.23132e-05,5.72002e-07,-2.26664e-05,-0.000187912,5.8211e-05,-4.71665e-05,-1.7944e-05,-1.52105e-05,0
-3.50018e-05,1.85449e-06,-1.50945e-05,-7.12354e-05,1.75002e-05,-5.15721e-05,-2.13384e-05,-1.19054e-05,0
-3.45369e-05,1.35277e-05,3.24643e-06,3.43759e-05,-2.49145e-05,-4.60292e-05,-2.12681e-05,-7.12462e-06,0
-2.95613e-05,2.3657e-05,3.45768e-05,0.00015051,-4.36259e-05,-3.19539e-05,-2.00062e-05,-2.04076e-07,0
-2.17719e-05,2.22339e-05,7.178e-05,0.00024285,-4.68636e-05,-1.47908e-05,-1.75484e-05,5.76234e-06,0
-1.49126e-05,1.20918e-05,9.49217e-05,0.000229524,-5.68445e-05,-8.30071e-06,-1.46649e-05,9.55738e-06,0
-1.29725e-05,2.89481e-06,9.1577e-05,0.000106375,-5.66961e-05,-1.73621e-05,-1.1595e-05,1.00468e-05,0
-2.30914e-05,-7.72426e-07,6.1018e-05,-7.67037e-05,-2.83421e-05,-4.25095e-05,-8.39379e-06,5.82936e-06,0
-4.53941e-05,-1.55223e-06,1.04698e-05,-0.000214884,1.4668e-05,-5.46436e-05,-5.3056e-06,-1.4492e-06,0
-6.98283e-05,-3.09748e-06,-4.35752e-05,-0.000235539,5.50638e-05,-1.79432e-05,-1.02867e-06,-8.27357e-06,0
-8.60085e-05,-7.43954e-06,-7.91854e-05,-0.000126474,8.35431e-05,3.42858e-05,5.48078e-06,-1.39359e-05,0
-9.06026e-05,-1.22738e-05,-8.50395e-05,4.56242e-05,9.56506e-05,4.89408e-05,1.29804e-05,-1.74447e-05,0
-8.58921e-05,-1.47216e-05,-7.17517e-05,0.000144338,9.01853e-05,2.67433e-05,1.71964e-05,-1.62728e-05,0
-7.53158e-05,-1.29519e-05,-5.68165e-05,0.000129987,7.35513e-05,5.0533e-06,1.71772e-05,-1.14314e-05,0
-5.95969e-05,-8.57746e-06,-4.70647e-05,5.06944e-05,4.93296e-05,1.14542e-06,1.58016e-05,-6.37951e-06,0
-3.28331e-05,-2.91367e-06,-3.89875e-05,-5.5236e-05,2.72805e-05,1.31812e-05,1.55497e-05,-3.13956e-06,0
9.62587e-06,3.94201e-06,-3.0255e-05,-0.000167629,1.99695e-05,3.26478e-05,1.57972e-05,-9.6528e-07,0
4.5921e-05,9.68926e-06,-2.08966e-05,-0.00020243,3.41568e-05,3.89875e-05,1.60759e-05,9.91611e-07,0
4.09127e-05,9.09799e-06,-1.29031e-05,-0.000130103,4.464e-05,1.65983e-05,1.60094e-05,2.74393e-06,0
-1.11784e-06,2.96123e-07,-8.21569e-06,-1.09755e-05,3.74321e-05,-2.00687e-05,1.38839e-05,4.01706e-06,0
-3.79938e-05,-9.32286e-06,-7.38917e-06,6.9469e-05,2.34251e-05,-4.00204e-05,8.76443e-06,5.12335e-06,0
-4.66713e-05,-1.19156e-05,-8.62295e-06,6.5591e-05,7.48637e-06,-3.40221e-05,2.25206e-06,5.22842e-06,0
-4.01851e-05,-1.01374e-05,-1.01813e-05,1.45432e-05,-1.24381e-05,-1.53888e-05,-3.96767e-06,4.93625e-06,0
-3.36582e-05,-8.30925e-06,-1.08283e-05,2.18087e-05,-2.10713e-05,7.34099e-07,-8.49368e-06,5.63828e-06,0
-3.03643e-05,-3.99178e-06,-9.78161e-06,8.74495e-05,-1.06415e-05,1.00364e-05,-1.189e-05,6.50673e-06,0
-2.83113e-05,5.71635e-07,-9.12572e-06,8.95896e-05,-4.74598e-06,1.60648e-05,-1.33677e-05,7.2626e-06,0
-2.75452e-05,9.26132e-07,-1.28636e-05,-3.55779e-06,-2.3414e-05,1.64424e-05,-1.21221e-05,6.56096e-06,0
-2.95929e-05,-1.42447e-06,-1.72357e-05,-0.00012318,-3.98987e-05,8.16282e-06,-1.10409e-05,6.35617e-06,0
-3.30372e-05,-3.33975e-06,-1.54696e-05,-0.000223807,-3.05504e-05,-2.85232e-06,-1.06364e-05,9.38465e-06,0
-3.4173e-05,-1.56031e-06,-1.19109e-05,-0.000308038,-1.52395e-05,-1.93954e-05,-1.04444e-05,1.2244e-05,0
-3.18093e-05,4.32706e-06,-1.20888e-05,-0.000356268,-1.56624e-05,-4.29445e-05,-8.50839e-06,1.30437e-05,0
-2.88273e-05,9.26627e-06,-1.57233e-05,-0.000298609,-3.72197e-05,-6.13737e-05,-2.31371e-06,1.2203e-05,0
-2.62195e-05,9.04294e-06,-2.27749e-05,-0.000109051,-7.39181e-05,-6.1913e-05,6.90723e-06,1.10863e-05,0
-2.54899e-05,3.81278e-06,-3.38875e-05,0.000129101,-0.000113668,-5.06509e-05,1.58033e-05,1.08088e-05,0
-2.54535e-05,-8.09192e-08,-4.25656e-05,0.000326577,-0.000138782,-3.62225e-05,2.19486e-05,1.23168e-05,0
-2.47855e-05,3.69454e-06,-4.01066e-05,0.000414221,-0.000141781,-1.98582e-05,2.43084e-05,1.4001e-05,0
-2.34677e-05,1.32349e-05,-2.65813e-05,0.00034002,-0.000111226,-3.13327e-06,2.35912e-05,1.50689e-05,0
-2.05437e-05,2.26006e-05,-8.60073e-06,0.000175343,-3.49781e-05,1.3314e-05,2.38693e-05,1.54983e-05,0
-1.74923e-05,2.98893e-05,4.71509e-06,9.20488e-05,5.89596e-05,2.42805e-05,2.64818e-05,1.46662e-05,0
-1.84287e-05,3.49392e-05,8.85859e-06,0.000105967,0.000109095,2.45106e-05,2.87903e-05,1.33961e-05,0
-2.71153e-05,3.76002e-05,6.44799e-06,9.78647e-05,8.93246e-05,1.13152e-05,3.06249e-05,1.23446e-05,0
-4.1304e-05,3.82588e-05,5.57853e-07,5.08822e-06,3.33746e-05,-1.35536e-05,3.17991e-05,1.2721e-05,0
-5.343e-05,3.75649e-05,-5.5077e-06,-0.000101999,2.91969e-07,-4.07814e-05,3.1411e-05,1.39636e-05,0
-5.8051e-05,3.5157e-05,-7.8247e-06,-0.000115043,1.07519e-05,-5.30104e-05,2.87775e-05,1.52231e-05,0
-5.7897e-05,3.29278e-05,-4.61301e-06,-4.59005e-05,4.26899e-05,-4.38028e-05,2.40746e-05,1.54671e-05,0
-5.79244e-05,3.40269e-05,3.26465e-06,-1.10675e-05,7.99649e-05,-2.56305e-05,1.86402e-05,1.5628e-05,0
-5.8798e-05,3.79187e-05,1.42405e-05,-9.9521e-05,0.000121766,-1.54617e-05,1.54268e-05,2.01218e-05,0
-5.27537e-05,4.53284e-05,1.83798e-05,-0.000297572,0.00014863,-1.59704e-05,1.62656e-05,3.52926e-05,0
-3.75855e-05,5.33794e-05,9.08718e-06,-0.000431079,0.000129162,-1.94439e-05,1.75921e-05,5.07806e-05,0
-1.73847e-05,5.70294e-05,-5.44135e-06,-0.000306922,7.17151e-05,-1.92385e-05,1.7331e-05,5.09024e-05,0
4.47386e-06,5.84042e-05,-1.78213e-05,3.52251e-05,1.56293e-05,-1.51423e-05,1.72104e-05,3.78329e-05,0
1.1494e-05,6.34748e-05,-2.47961e-05,0.000370437,-1.75497e-05,-1.01597e-05,1.6758e-05,1.59648e-05,0
-5.45946e-06,7.17741e-05,-2.31577e-05,0.000456945,-3.19993e-05,-7.45126e-06,1.00788e-05,-1.16092e-05,0
-2.78274e-05,7.40651e-05,-1.54789e-05,0.000272929,-3.10779e-05,-9.60287e-06,-5.77483e-06,-3.54397e-05,0
-3.6062e-05,6.43272e-05,-1.13391e-05,5.50165e-05,-1.34673e-05,-1.2638e-05,-2.44323e-05,-4.76223e-05,0
-2.4447e-05,4.57896e-05,-1.11211e-05,-4.35189e-05,-1.31594e-05,-1.17758e-05,-3.61931e-05,-4.68993e-05,0
-3.25507e-06,2.56959e-05,-1.27836e-05,-7.48303e-05,-4.98419e-05,-4.10945e-06,-3.561e-05,-3.49056e-05,0
4.99748e-06,1.26613e-05,-1.56642e-05,-6.45601e-05,-8.26975e-05,8.98089e-06,-2.66909e-05,-1.96172e-05,0
-7.49206e-06,9.13304e-06,-1.73498e-05,2.21099e-05,-9.97586e-05,1.52677e-05,-1.34767e-05,-5.95774e-06,0
-3.09336e-05,1.04166e-05,-1.9699e-05,0.000216515,-0.000114332,6.75663e-06,2.54234e-06,1.19013e-05,0
-5.02506e-05,1.10876e-05,-2.30289e-05,0.000391968,-0.00011453,-4.44181e-06,2.07097e-05,3.3767e-05,0
-5.12492e-05,1.36256e-05,-2.23513e-05,0.000343119,-8.20614e-05,-7.21463e-06,3.98461e-05,4.41787e-05,0
-3.11719e-05,2.10299e-05,-1.20423e-05,0.000100401,5.93213e-06,-4.70481e-06,5.46449e-05,3.55032e-05,0
-4.22289e-06,3.20296e-05,4.96299e-07,-9.16167e-05,0.000157972,-5.56947e-06,6.24532e-05,1.85654e-05,0
9.93476e-06,4.25546e-05,8.59954e-06,-0.000128102,0.000310631,-9.21243e-06,6.51405e-05,4.79092e-06,0
4.70772e-06,4.76091e-05,1.70371e-05,-0.000103205,0.000379959,-7.53438e-06,6.4603e-05,-3.6268e-06,0
-1.47637e-05,4.44235e-05,2.7784e-05,-5.32326e-05,0.000330881,-2.04277e-07,6.1393e-05,-1.06713e-05,0
-3.83731e-05,3.15682e-05,3.33676e-05,5.99063e-05,0.000197281,4.05365e-06,5.68598e-05,-1.96991e-05,0
-5.67879e-05,1.37565e-05,3.14201e-05,0.000186567,5.47995e-05,4.1609e-06,5.12545e-05,-3.01204e-05,0
-6.80534e-05,-1.90557e-06,2.95506e-05,0.000220596,-4.42781e-05,6.23194e-06,4.51917e-05,-3.55247e-05,0
-7.48308e-05,-1.21122e-05,3.02654e-05,0.000157244,-8.51812e-05,5.97782e-06,3.71515e-05,-3.18961e-05,0
-7.75299e-05,-1.6307e-05,2.93971e-05,4.43567e-05,-8.90707e-05,-1.99115e-06,2.56308e-05,-2.38954e-05,0
-7.29287e-05,-1.37611e-05,2.67382e-05,-6.95424e-05,-8.56378e-05,-8.37702e-06,1.37511e-05,-1.53893e-05,0
-5.93613e-05,-6.13736e-06,2.53193e-05,-0.000157747,-6.80513e-05,1.85211e-07,4.04503e-06,-6.81562e-06,0
-4.08822e-05,9.47139e-07,2.01128e-05,-0.000182635,-2.58016e-05,2.3008e-05,-1.94009e-06,-1.69917e-06,0
-2.99074e-05,5.23111e-07,6.87998e-06,-0.000137381,1.08559e-05,4.47521e-05,-2.88204e-06,-2.27714e-08,0
-3.54654e-05,-4.19627e-06,-4.27654e-06,-7.43875e-05,1.97937e-05,4.25615e-05,-3.72332e-06,9.18116e-07,0
-4.57117e-05,-5.78451e-06,-3.57117e-06,-4.43675e-05,4.11342e-06,2.39187e-05,-5.94047e-06,1.71587e-06,0
-4.41528e-05,-2.23446e-06,2.47773e-06,-5.62866e-05,-2.39208e-05,1.50771e-05,-3.4518e-06,2.10056e-06,0
-3.30291e-05,1.92288e-06,4.69074e-06,-0.000100478,-4.01986e-05,1.03265e-05,4.18844e-06,-5.13665e-07,0
-2.61942e-05,5.5424e-06,1.11831e-06,-0.000133112,-2.47882e-05,-1.68774e-07,1.18099e-05,-2.85144e-06,0
-2.73397e-05,8.88406e-06,-3.93881e-06,-0.000139245,-2.34438e-06,-1.17657e-05,1.78874e-05,-1.90692e-06,0
-3.06601e-05,9.16665e-06,-9.43885e-06,-0.000168762,1.00494e-05,-2.16721e-05,2.39028e-05,-1.17983e-07,0
-3.40549e-05,4.92796e-06,-1.71134e-05,-0.000249476,1.76985e-05,-2.93029e-05,2.96897e-05,3.15191e-06,0
-3.95209e-05,-1.24416e-06,-2.41249e-05,-0.000296636,1.97247e-05,-3.19385e-05,3.40334e-05,7.14683e-06,0
-4.61424e-05,-3.09474e-06,-2.77644e-05,-0.000199759,1.91643e-05,-2.87255e-05,3.45075e-05,1.04777e-05,0
-4.80955e-05,-1.42872e-06,-2.61123e-05,-3.55758e-05,8.02616e-06,-2.33454e-05,3.29692e-05,1.21381e-05,0
-4.83227e-05,6.70125e-07,-2.36934e-05,5.49452e-05,-1.46235e-05,-1.96843e-05,3.19488e-05,1.26559e-05,0
-4.74831e-05,1.14749e-06,-2.43414e-05,1.22637e-05,-4.19414e-05,-1.8385e-05,3.4678e-05,1.36488e-05,0
-4.46288e-05,4.13342e-07,-2.27587e-05,-9.95409e-05,-4.85504e-05,-1.70223e-05,4.02564e-05,1.35434e-05,0
-4.26129e-05,-7.78715e-07,-1.53634e-05,-0.000182403,-2.16183e-05,-1.71189e-05,4.43934e-05,1.28679e-05,0
-4.03065e-05,-1.01509e-06,-7.87088e-06,-0.000184213,2.05664e-05,-1.84074e-05,4.33811e-05,1.2026e-05,0
-3.59452e-05,-4.09473e-07,-8.40928e-06,-9.52826e-05,5.94453e-05,-1.45859e-05,3.65029e-05,1.08074e-05,0
-3.05678e-05,2.72954e-07,-1.43831e-05,5.14249e-05,7.72655e-05,-4.26924e-06,2.58098e-05,9.82558e-06,0
-2.70732e-05,1.621e-06,-1.79078e-05,0.000150343,4.66093e-05,8.14351e-07,1.37727e-05,9.50649e-06,0
-2.57737e-05,4.71944e-06,-1.71159e-05,0.000107409,-3.52386e-05,-5.71137e-06,3.83211e-06,7.96501e-06,0
-2.55624e-05,8.59292e-06,-1.48596e-05,7.65239e-06,-0.000116707,-1.51683e-05,-3.36846e-06,4.84563e-06,0
-2.34581e-05,1.19818e-05,-1.30805e-05,1.61699e-05,-0.000144463,-1.82113e-05,-7.66015e-06,1.48152e-06,0
-2.05484e-05,1.43005e-05,-1.18648e-05,0.000185623,-0.000111941,-1.9805e-05,-9.12161e-06,-1.03168e-06,0
-2.1816e-05,1.21768e-05,-1.38705e-05,0.000427364,-5.80378e-05,-3.29603e-05,-8.22071e-06,-1.22297e-06,0
-2.94235e-05,4.99327e-06,-2.23338e-05,0.000581432,-2.68285e-05,-5.38607e-05,-6.61098e-06,2.29775e-08,0
-3.76219e-05,-7.90977e-07,-3.34609e-05,0.000550702,-1.81901e-05,-6.53472e-05,-4.44256e-06,9.55108e-07,0
-3.98491e-05,1.54573e-06,-3.53571e-05,0.000390917,-1.59573e-06,-6.00299e-05,-2.8303e-06,1.25148e-06,0
-3.51911e-05,9.32696e-06,-2.05694e-05,0.000159812,2.04413e-05,-4.43176e-05,-7.77239e-07,2.63439e-07,0
-2.40573e-05,1.82895e-05,3.42699e-06,-0.000115332,3.34023e-05,-2.50712e-05,2.45951e-06,-1.50318e-06,0
-9.05613e-06,2.54647e-05,2.24097e-05,-0.000357447,4.50207e-05,-8.10532e-06,6.1377e-06,-1.84774e-07,0
2.96212e-06,3.00158e-05,2.64669e-05,-0.000498629,5.7522e-05,1.5234e-06,8.38201e-06,7.28697e-06,0
5.36959e-06,3.12025e-05,1.60113e-05,-0.000580427,7.54929e-05,-2.46036e-06,7.74247e-06,1.47112e-05,0
-2.26485e-06,2.69859e-05,-2.49092e-06,-0.000586874,9.14103e-05,-1.80068e-05,6.16794e-06,1.41898e-05,0
-1.02752e-05,2.00924e-05,-1.85394e-05,-0.000418809,7.64152e-05,-6.85213e-06,4.30168e-06,8.52398e-06,0
-1.42409e-05,1.56843e-05,-2.4064e-05,-0.000163584,3.74362e-05,4.71184e-05,3.49666e-06,8.62261e-07,0
-1.87456e-05,1.30978e-05,-2.35281e-05,-8.75608e-06,2.48359e-06,8.18122e-05,5.93041e-06,-4.49214e-06,0
-2.39017e-05,9.728e-06,-2.42643e-05,8.51084e-06,-1.51259e-05,5.66623e-05,1.00705e-05,-6.76388e-06,0
-2.54722e-05,6.40684e-06,-2.73429e-05,1.68659e-05,-1.47383e-05,8.34088e-06,1.24446e-05,-8.17839e-06,0
-2.34835e-05,4.80878e-06,-2.37701e-05,7.22836e-05,-6.86275e-06,-1.93023e-05,1.19645e-05,-9.34335e-06,0
-2.23936e-05,6.12283e-06,-1.14096e-05,0.0001052,-2.92558e-06,-2.19249e-05,1.01566e-05,-9.77158e-06,0
-2.48148e-05,6.75324e-06,2.33897e-06,9.24153e-05,-1.83376e-06,-1.7005e-05,9.74424e-06,-9.3473e-06,0
-3.0639e-05,3.63359e-06,1.12242e-05,7.92497e-05,1.144e-05,-1.46065e-05,1.06527e-05,-9.74345e-06,0
-3.63401e-05,6.28031e-09,1.27197e-05,8.70871e-05,3.00045e-05,-1.59398e-05,1.22379e-05,-1.08405e-05,0
-3.95456e-05,2.02047e-06,9.64737e-06,0.000104822,2.49676e-05,-1.80944e-05,1.56201e-05,-1.12319e-05,0
-3.85201e-05,1.06889e-05,4.52522e-06,0.000112297,7.60183e-06,-1.59388e-05,2.12058e-05,-1.01575e-05,0
-3.4739e-05,1.85259e-05,-1.81615e-06,7.5929e-05,1.28155e-05,-1.36596e-05,2.74151e-05,-8.47289e-06,0
-3.20099e-05,1.77422e-05,-9.10562e-06,-2.92191e-05,3.02175e-05,-1.52642e-05,3.08163e-05,-6.76993e-06,0
-3.1583e-05,7.34371e-06,-1.61611e-05,-0.000190964,2.36049e-05,-1.15761e-05,2.75841e-05,-5.84651e-06,0
-2.90761e-05,-6.95691e-06,-2.40038e-05,-0.000343828,-8.21195e-06,-3.80378e-06,1.93487e-05,-5.86079e-06,0
-2.07476e-05,-1.72759e-05,-3.24419e-05,-0.00039734,-2.99909e-05,-7.71203e-06,1.08039e-05,-7.14272e-06,0
-1.22837e-05,-1.92109e-05,-3.68623e-05,-0.000302877,-2.00285e-05,-2.4561e-05,2.93759e-06,-8.1586e-06,0
-1.1394e-05,-1.34168e-05,-3.28723e-05,-9.37512e-05,8.14087e-06,-4.01947e-05,-3.10479e-06,-8.06593e-06,0
-1.71999e-05,-5.2445e-06,-2.33841e-05,0.000117318,3.38736e-05,-4.69864e-05,-5.80985e-06,-7.16353e-06,0
-2.32208e-05,1.42109e-08,-1.44242e-05,0.00022199,5.49105e-05,-4.50916e-05,-7.20461e-06,-7.16366e-06,0
-2.5091e-05,3.51164e-06,-6.45288e-06,0.000201875,6.3113e-05,-3.38133e-05,-8.96947e-06,-7.55457e-06,0
-2.26111e-05,8.02774e-06,5.75378e-07,7.42631e-05,4.39554e-05,-1.83298e-05,-1.0203e-05,-7.18034e-06,0
-2.00132e-05,1.27015e-05,2.40631e-06,1.90893e-05,1.20762e-05,-4.39559e-06,-9.97433e-06,-6.35458e-06,0
-2.00692e-05,1.54616e-05,-1.87686e-07,0.00017925,-7.28923e-06,2.68066e-05,-8.20167e-06,-4.45346e-06,0
-2.06041e-05,1.42798e-05,-2.29019e-07,0.000273697,4.31254e-06,5.47023e-05,-3.16772e-06,-2.01653e-06,0
-2.19179e-05,9.24583e-06,2.60642e-06,0.000104848,4.21275e-05,3.94987e-05,2.58113e-06,-6.10377e-07,0
-2.37483e-05,4.03699e-06,-1.09665e-06,-6.6205e-05,7.29451e-05,5.83053e-06,4.91328e-06,-9.90336e-07,0
-2.5649e-05,3.82719e-06,-1.1538e-05,-1.10396e-05,8.79821e-05,-1.55504e-05,4.53583e-06,-1.59725e-06,0
-2.90246e-05,1.02131e-05,-1.869e-05,0.000208704,0.00010106,-1.93148e-05,3.29247e-06,-2.00682e-06,0
-3.11462e-05,1.74957e-05,-1.92797e-05,0.000421014,0.000111151,-1.74331e-05,3.86612e-06,-1.58963e-06,0
-3.35792e-05,2.04152e-05,-1.58117e-05,0.000504021,0.000107372,-1.6107e-05,6.19147e-06,-5.61942e-07,0
-4.04099e-05,1.80801e-05,-9.62214e-06,0.000408142,9.58953e-05,-1.54784e-05,9.42523e-06,1.27278e-06,0
-4.80862e-05,1.35581e-05,1.65734e-06,0.000145877,8.27473e-05,-1.37401e-05,1.31186e-05,3.4019e-06,0
-5.06195e-05,1.17174e-05,1.50813e-05,-0.000106365,6.80597e-05,-9.23834e-06,1.5428e-05,2.8524e-06,0
-4.74918e-05,1.38113e-05,2.23829e-05,-0.000193173,5.34268e-05,-8.46515e-06,1.56103e-05,7.90813e-07,0
-4.07098e-05,1.86163e-05,2.06328e-05,-0.000145173,4.12817e-05,-1.26018e-05,1.58044e-05,8.93543e-08,0
-3.23894e-05,2.59325e-05,1.84741e-05,-6.37347e-05,3.39082e-05,-1.66695e-05,1.70183e-05,1.97134e-06,0
-2.38209e-05,3.45233e-05,2.56119e-05,-4.03762e-06,2.99563e-05,-1.36227e-05,1.7511e-05,4.03405e-06,0
-1.66937e-05,3.80873e-05,3.92772e-05,2.12737e-05,2.98222e-05,-7.44697e-06,1.64239e-05,4.04805e-06,0
-1.32563e-05,3.21073e-05,4.9844e-05,4.11823e-06,2.15947e-05,-5.27575e-06,1.48198e-05,2.30138e-06,0
-1.48848e-05,2.15902e-05,5.33738e-05,-2.96507e-05,-6.32809e-06,-9.23269e-06,1.43633e-05,1.34578e-06,0
-1.99357e-05,1.34885e-05,4.89699e-05,-4.01093e-05,-5.42036e-05,-1.44377e-05,1.40572e-05,2.20326e-06,0
-2.65187e-05,7.77051e-06,3.26925e-05,-9.91399e-06,-0.000108555,-1.80905e-05,1.05726e-05,3.12898e-06,0
-3.36275e-05,2.26839e-06,3.04442e-06,1.98138e-05,-0.00015056,-2.03572e-05,4.53536e-06,3.35931e-06,0
-3.91786e-05,-1.86485e-06,-3.62819e-05,8.515e-07,-0.000171209,-2.24771e-05,3.72338e-07,2.93055e-06,0
-4.26213e-05,-3.16327e-06,-7.61717e-05,-6.2812e-05,-0.000161494,-2.32895e-05,-4.61646e-07,3.12925e-06,0
-4.3491e-05,-1.50647e-06,-0.000103473,-0.000119842,-0.000101836,-1.84523e-05,2.11913e-07,5.28412e-06,0
-4.11528e-05,2.02524e-06,-0.000109081,-0.000155076,-8.87697e-06,-5.31312e-06,7.3413e-07,8.68533e-06,0
-3.76645e-05,3.68047e-06,-0.000100823,-0.000168144,6.30043e-05,8.17812e-06,1.12333e-07,8.94941e-06,0
-3.69425e-05,3.25243e-06,-8.83977e-05,-0.000126461,9.04367e-05,1.09637e-05,-4.54656e-06,7.06261e-06,0
-3.70788e-05,6.83163e-06,-7.05867e-05,3.09014e-05,0.00011999,2.3446e-06,-1.54654e-05,5.91854e-06,0
-3.45711e-05,1.31654e-05,-5.15112e-05,0.000215519,0.000203129,-1.4064e-05,-2.49918e-05,5.57217e-06,0
-3.17502e-05,1.66963e-05,-3.20251e-05,0.000237964,0.000280904,-2.71409e-05,-2.54225e-05,4.76946e-06,0
-3.17789e-05,2.0287e-05,-1.48581e-05,0.000158866,0.000258312,-2.86015e-05,-1.96166e-05,3.43929e-06,0
-3.80297e-05,2.18972e-05,-1.15646e-05,7.32221e-05,0.00012344,-2.69413e-05,-9.84415e-06,2.67265e-06,0
-4.61773e-05,1.84226e-05,-1.76539e-05,-2.97209e-05,-3.33397e-05,-3.0355e-05,2.18297e-06,2.48813e-06,0
-4.43816e-05,1.60344e-05,-1.45714e-05,-0.000101474,-8.81537e-05,-2.66482e-05,1.6886e-05,2.33178e-06,0
-3.18906e-05,1.9928e-05,1.82329e-06,-0.000124633,-5.83787e-05,-7.13355e-06,3.48304e-05,1.93087e-06,0
-2.02375e-05,2.42602e-05,1.15138e-05,-0.000161524,-4.85897e-05,1.2177e-05,5.2207e-05,2.63527e-06,0
-1.90492e-05,2.3252e-05,1.89804e-06,-0.000223669,-8.19744e-05,1.39841e-05,6.3854e-05,3.23853e-06,0
-2.43214e-05,2.13521e-05,-1.13709e-05,-0.00024727,-0.00011165,4.07932e-06,6.74044e-05,2.80913e-06,0
-2.85305e-05,2.30886e-05,-8.62576e-06,-0.000197364,-9.42279e-05,-2.55521e-06,6.55305e-05,1.55362e-06,0
-2.82773e-05,2.8137e-05,6.87059e-06,-0.000138758,-3.87375e-05,-2.12816e-06,6.1042e-05,-7.38651e-07,0
-2.48743e-05,3.02792e-05,1.89079e-05,-0.000144656,3.51975e-06,-1.23506e-06,5.58714e-05,-2.52101e-06,0
-2.28545e-05,2.62464e-05,1.91019e-05,-0.000228055,-2.19866e-06,-4.24606e-06,4.99435e-05,-2.95452e-06,0
-2.3415e-05,2.11195e-05,1.08252e-05,-0.000339209,-2.77604e-05,-6.97109e-06,4.37656e-05,-2.92311e-06,0
-2.43475e-05,1.9095e-05,6.7329e-07,-0.000385826,-2.97619e-05,-3.33484e-06,3.85626e-05,-3.11533e-06,0
-2.41249e-05,1.75876e-05,-8.92956e-06,-0.000335752,-1.07502e-05,3.98104e-06,3.41291e-05,-3.00352e-06,0
-2.3583e-05,1.44899e-05,-1.53981e-05,-0.000201171,-1.36681e-06,5.19298e-06,2.81341e-05,-2.43371e-06,0
-2.34391e-05,1.27104e-05,-1.27614e-05,-2.2034e-05,-7.43423e-06,-4.69031e-06,2.13062e-05,-2.42523e-06,0
-2.38182e-05,1.48551e-05,-2.45354e-06,0.000137853,-1.36917e-05,-1.78309e-05,1.74548e-05,-8.58691e-07,0
-2.19923e-05,1.7575e-05,7.48519e-06,0.000233825,-1.10596e-05,-1.69677e-05,1.59809e-05,2.67018e-06,0
-1.88419e-05,1.8822e-05,1.35951e-05,0.000235466,-4.09787e-06,1.16879e-05,1.2386e-05,4.32833e-06,0
-1.74848e-05,2.38189e-05,1.51145e-05,0.000148155,1.92972e-05,4.61316e-05,3.31011e-06,2.41517e-06,0
-1.95945e-05,3.22228e-05,1.38973e-05,7.79933e-05,7.46706e-05,4.38244e-05,-7.52541e-06,-7.58985e-07,0
-2.63546e-05,3.07282e-05,1.13755e-05,9.56045e-05,0.00011732,1.12039e-05,-1.36908e-05,-2.26496e-06,0
-3.3814e-05,1.59623e-05,5.63499e-06,0.000148508,0.000106125,-1.263e-05,-1.50146e-05,-1.81943e-06,0
-3.24289e-05,-6.62142e-07,-1.51275e-06,0.000181363,5.49198e-05,-1.61659e-05,-1.44751e-05,-1.56882e-06,0
-2.50333e-05,-8.14635e-06,-5.19417e-06,0.000178084,1.10042e-05,-1.24341e-05,-1.45265e-05,-8.4005e-07,0
-2.2248e-05,-6.05316e-06,-6.43747e-06,0.000154233,-1.0663e-06,-1.18988e-05,-1.39057e-05,1.10823e-06,0
-2.40304e-05,-8.71994e-08,-4.99098e-06,8.9949e-05,3.45666e-06,-1.55424e-05,-9.52853e-06,1.40581e-06,0
-2.97042e-05,1.405e-05,1.14697e-06,9.51373e-06,1.76335e-05,-2.19644e-05,-1.48551e-06,3.52745e-07,0
-3.95939e-05,2.99742e-05,9.50566e-06,-2.23374e-05,3.15043e-05,-3.29884e-05,6.73159e-06,-1.41534e-06,0
-5.15761e-05,2.97e-05,1.18446e-05,-3.35911e-05,1.74107e-05,-4.57538e-05,1.33051e-05,-2.87816e-06,0
-5.82151e-05,1.08852e-05,3.72203e-06,-4.59917e-05,-3.68867e-05,-5.1378e-05,1.80518e-05,-2.66954e-06,0
-5.6455e-05,-1.0602e-05,-8.06607e-06,-3.21735e-05,-6.18197e-05,-4.52434e-05,2.04751e-05,-1.73675e-06,0
-4.95634e-05,-2.14934e-05,-1.43614e-05,2.96117e-05,-6.20001e-06,-3.30153e-05,2.28585e-05,-8.60247e-07,0
-4.22674e-05,-2.27073e-05,-1.22522e-05,0.000103872,0.000103164,-2.17482e-05,2.5761e-05,8.78705e-07,0
-3.70131e-05,-2.0482e-05,-6.91211e-06,0.00013261,0.00021868,-1.18193e-05,2.77346e-05,2.73447e-06,0
-3.23764e-05,-1.81526e-05,-4.17304e-06,0.000139426,0.000277378,3.26136e-07,2.70942e-05,3.14892e-06,0
-3.15009e-05,-1.66586e-05,-6.62377e-06,0.000190262,0.000230721,9.10872e-06,2.47547e-05,2.2288e-06,0
-3.8529e-05,-1.61697e-05,-1.37668e-05,0.000224088,0.000104452,2.54066e-06,2.23683e-05,3.83986e-07,0
-4.86409e-05,-1.58132e-05,-2.16806e-05,0.000145041,-7.87691e-06,-1.07501e-05,2.12035e-05,-3.77189e-07,0
-4.9919e-05,-1.45754e-05,-2.402e-05,8.06783e-06,-2.89639e-05,-6.39712e-06,2.05477e-05,-6.19807e-07,0
-4.05718e-05,-9.97701e-06,-1.97948e-05,-8.3555e-05,2.92776e-05,1.83782e-05,1.88286e-05,-9.2483e-07,0
-3.03267e-05,-1.63646e-06,-1.28157e-05,-7.97484e-05,7.51946e-05,3.5043e-05,1.57868e-05,-1.20747e-06,0
-2.65246e-05,6.7077e-06,-7.38314e-06,2.16081e-05,6.69307e-05,2.58501e-05,1.24565e-05,-1.62956e-06,0
-2.70262e-05,1.12115e-05,-6.36837e-06,0.000140496,2.2612e-05,4.14055e-06,1.14942e-05,-2.47902e-06,0
-2.57434e-05,1.36761e-05,-7.06203e-06,0.000156464,-4.51849e-05,-1.12255e-05,1.25998e-05,-2.3365e-06,0
-1.61724e-05,1.79147e-05,-5.14802e-06,5.81572e-05,-0.000130959,-1.48411e-05,1.31281e-05,3.35619e-07,0
2.81433e-06,2.23468e-05,-4.127e-06,-0.000112247,-0.000204858,-1.06328e-05,1.20542e-05,2.34228e-06,0
1.96213e-05,2.33598e-05,-7.91657e-06,-0.000252766,-0.000234585,-8.49882e-06,1.00277e-05,2.37752e-06,0
1.97314e-05,2.28469e-05,-1.21072e-05,-0.000254499,-0.000226341,-1.36381e-05,9.97871e-06,2.51732e-06,0
5.41098e-06,2.48942e-05,-1.32702e-05,-0.000180603,-0.000184226,-1.95351e-05,1.26769e-05,3.11933e-06,0
-8.37533e-06,2.87107e-05,-9.14803e-06,-0.00010825,-0.000105631,-1.95077e-05,1.54498e-05,3.51368e-06,0
-3.22599e-06,3.22031e-05,2.74194e-07,-2.82702e-05,-4.49967e-05,-1.61699e-05,1.61707e-05,3.80227e-06,0
1.6251e-05,3.59245e-05,4.60794e-06,2.07939e-05,-4.16074e-05,-1.99141e-05,1.47536e-05,3.63693e-06,0
2.58231e-05,3.86736e-05,2.6827e-06,1.93619e-05,-6.58212e-05,-2.49711e-05,1.39631e-05,5.16574e-06,0
1.82075e-05,4.2205e-05,2.9013e-06,1.14787e-05,-7.77965e-05,-1.99701e-05,1.30067e-05,1.10676e-05,0
-3.55129e-06,4.85317e-05,4.41261e-06,8.38565e-06,-6.12899e-05,-1.56994e-05,8.23838e-06,1.96281e-05,0
-3.04009e-05,5.11509e-05,3.3305e-06,-7.32955e-06,-2.46091e-05,-1.64583e-05,-5.32066e-06,2.46773e-05,0
-5.38399e-05,4.52543e-05,-2.63817e-06,-4.23867e-05,1.33489e-05,-6.35133e-06,-2.35968e-05,2.21946e-05,0
-7.01547e-05,3.46456e-05,-9.79476e-06,-7.04716e-05,4.05495e-05,9.64314e-06,-3.72271e-05,1.49789e-05,0
-7.83183e-05,2.49613e-05,-1.35172e-05,-7.78107e-05,7.30623e-05,1.04123e-05,-4.07163e-05,6.88266e-06,0
-8.04918e-05,1.90345e-05,-1.52981e-05,-6.87644e-05,0.000100895,-4.32417e-06,-3.38992e-05,8.32572e-07,0
-8.08987e-05,1.66498e-05,-1.803e-05,-4.80733e-05,8.46065e-05,-1.88199e-05,-2.13812e-05,-3.88932e-06,0
-8.12364e-05,1.47061e-05,-2.15643e-05,-7.51791e-06,2.7219e-05,-2.39791e-05,-5.68344e-06,-7.41321e-06,0
-8.39381e-05,1.12234e-05,-2.40805e-05,5.56002e-05,-1.53953e-05,-2.35991e-05,1.17182e-05,-8.58902e-06,0
-9.20051e-05,7.18639e-06,-2.15849e-05,9.14336e-05,-1.06204e-05,-2.2593e-05,2.86904e-05,-7.77832e-06,0
-0.000102532,4.209e-06,-1.45429e-05,-1.55604e-06,2.09476e-05,-2.06228e-05,4.28586e-05,-1.62285e-06,0
-0.000109673,1.75823e-06,-1.12236e-05,-0.000204817,4.43385e-05,-1.59062e-05,5.32673e-05,1.4558e-05,0
-0.000108971,1.02751e-06,-1.4792e-05,-0.000290472,4.41821e-05,-1.03181e-05,5.77043e-05,3.55221e-05,0
-0.000100935,3.81487e-06,-1.99266e-05,-0.00014211,2.35423e-05,-7.85839e-06,5.63553e-05,4.50568e-05,0
-9.03442e-05,9.64264e-06,-2.35033e-05,6.17757e-05,-3.30525e-06,-8.18482e-06,5.14042e-05,3.83115e-05,0
-7.98216e-05,1.96394e-05,-2.67987e-05,0.000101516,-2.04005e-05,-7.97535e-06,4.47255e-05,2.11322e-05,0
-6.30774e-05,3.71484e-05,-2.7759e-05,-3.41667e-05,-2.58835e-05,-6.59088e-06,3.60162e-05,-2.97352e-06,0
-3.60389e-05,5.65201e-05,-2.42768e-05,-0.000203885,-2.62114e-05,-4.45563e-06,2.34719e-05,-2.91088e-05,0
-2.1026e-06,6.32014e-05,-1.80862e-05,-0.000326154,-1.85324e-05,-1.50626e-06,8.0905e-06,-4.88908e-05,0
2.76042e-05,4.94672e-05,-1.07773e-05,-0.000388916,1.53319e-05,3.64596e-06,-4.39229e-06,-5.63809e-05,0
3.50699e-05,2.14496e-05,-7.4767e-06,-0.000354607,5.98912e-05,8.61081e-06,-9.29892e-06,-5.50088e-05,0
2.22888e-05,-3.7136e-06,-7.90986e-06,-0.000232232,8.96669e-05,1.19512e-05,-7.55191e-06,-5.04694e-05,0
8.78673e-06,-1.19391e-05,-2.25035e-06,-5.27026e-05,0.000110666,2.49572e-05,-2.13597e-06,-3.95175e-05,0
-6.34542e-07,-5.5118e-06,2.59236e-06,0.000155108,0.000108798,3.66576e-05,3.46879e-06,-2.33281e-05,0
-8.55342e-06,-1.37809e-06,-7.09808e-07,0.000367073,8.51074e-05,3.05775e-05,9.25582e-06,-9.2408e-06,0
-1.41591e-05,-6.30296e-06,-5.75108e-06,0.000493432,6.77224e-05,1.821e-05,1.58574e-05,-9.28579e-07,0
-1.5306e-05,-1.24914e-05,-8.36236e-06,0.000486477,6.16143e-05,6.51351e-06,2.3507e-05,1.79891e-06,0
-1.39386e-05,-1.41779e-05,-8.81526e-06,0.000399694,6.02323e-05,-6.09453e-06,3.16531e-05,4.13423e-06,0
-1.26436e-05,-9.8077e-06,-7.35523e-06,0.000262761,5.07287e-05,-2.52619e-05,3.7299e-05,5.96226e-06,0
-1.20673e-05,-3.25268e-06,-2.79252e-06,0.000151106,2.82718e-05,-5.27249e-05,3.77723e-05,6.47458e-06,0
-1.08195e-05,2.60331e-06,2.09053e-06,8.77596e-05,-2.61758e-07,-8.57104e-05,3.17274e-05,6.85658e-06,0
-1.01734e-05,8.29975e-06,3.43804e-06,6.10656e-05,-2.3475e-05,-0.000111446,2.34505e-05,7.50574e-06,0
-1.7835e-05,1.27342e-05,-4.00744e-07,4.29312e-05,-3.96314e-05,-0.000114876,1.70529e-05,8.6151e-06,0
-2.83648e-05,1.21699e-05,-4.33616e-06,3.35285e-05,-4.21182e-05,-7.92782e-05,1.06307e-05,9.55344e-06,0
-3.02304e-05,9.15629e-06,-7.62179e-06,1.32192e-05,-2.32767e-05,-1.25962e-05,3.26411e-06,9.00849e-06,0
-2.27903e-05,9.36008e-06,-1.23056e-05,-3.53153e-05,1.2283e-05,2.83409e-05,-3.08967e-06,7.02072e-06,0
-1.46765e-05,1.07766e-05,-1.81085e-05,-5.40048e-05,5.53227e-05,1.52499e-05,-6.94839e-06,5.58609e-06,0
-1.09894e-05,1.05482e-05,-2.37599e-05,-1.0786e-05,8.07322e-05,-2.38266e-05,-7.61466e-06,4.7171e-06,0
-1.05561e-05,9.39607e-06,-2.69227e-05,5.14499e-05,6.54893e-05,-5.08559e-05,-5.04922e-06,4.74145e-06,0
-8.15909e-06,1.12235e-05,-2.48437e-05,6.56915e-05,2.41223e-05,-4.28547e-05,-9.16376e-07,6.15191e-06,0
-1.53182e-06,1.70735e-05,-1.54415e-05,5.44173e-05,3.30884e-06,-1.2368e-06,1.95246e-06,7.66695e-06,0
4.48015e-06,2.39551e-05,-2.82193e-06,5.8662e-05,2.47446e-05,3.12191e-05,2.489e-06,8.28236e-06,0
3.90125e-06,2.86755e-05,5.33811e-06,6.27594e-05,6.79243e-05,2.02238e-05,2.28486e-06,8.95373e-06,0
-6.25043e-06,3.05716e-05,4.70659e-06,6.55923e-06,9.52592e-05,-1.48485e-05,2.28505e-06,8.33708e-06,0
-2.32326e-05,3.00348e-05,2.78016e-07,-9.50036e-05,8.22649e-05,-3.97925e-05,3.43823e-06,5.42111e-06,0
-3.81992e-05,2.74804e-05,-5.66864e-06,-0.000177345,2.43616e-05,-4.48212e-05,5.06649e-06,3.34803e-06,0
-4.13668e-05,2.64448e-05,-1.15433e-05,-0.000210883,-4.80968e-05,-3.9172e-05,6.03196e-06,2.44218e-06,0
