ch1,ch2,ch3,ch4,ch5,ch6,ch7,ch8,class
-2.45221e-05,1.77196e-05,7.20839e-06,-4.29713e-05,9.12355e-05,-3.45245e-05,1.38915e-05,4.08068e-06,0
-2.63791e-05,3.47949e-05,1.42404e-05,-0.000112784,0.000107259,2.55416e-05,1.67773e-05,4.91157e-06,0
-1.65253e-05,4.71431e-05,1.51547e-05,-0.000176832,0.000116628,9.98366e-05,1.85677e-05,4.40901e-06,0
-1.55648e-06,5.35961e-05,8.6501e-06,-0.000207696,0.000112233,0.000113216,2.02993e-05,2.55971e-06,0
2.13985e-05,5.28259e-05,1.54607e-06,-0.000194759,8.72461e-05,5.84103e-05,2.28014e-05,9.18897e-07,0
5.47587e-05,3.6568e-05,6.48235e-07,-0.000150825,4.66056e-05,-5.32347e-06,2.439e-05,1.46569e-07,0
7.86661e-05,4.22564e-06,4.89907e-06,-0.000103032,6.95836e-06,-2.96571e-05,2.33911e-05,-3.57993e-07,0
7.69304e-05,-8.66681e-06,8.45046e-06,-6.78407e-05,-1.20487e-05,-1.91565e-05,2.16382e-05,-1.65379e-07,0
5.28864e-05,1.87925e-05,9.0056e-06,-5.32528e-05,-6.40745e-06,-1.49564e-06,2.02715e-05,3.21557e-08,0
1.93605e-05,5.86654e-05,8.12883e-06,-4.88206e-05,5.84787e-06,9.04979e-07,1.90168e-05,1.73586e-07,0
-1.68576e-05,7.64003e-05,5.84326e-06,-4.47469e-05,1.00292e-05,-6.77311e-06,1.82984e-05,6.85911e-07,0
-5.06118e-05,7.56615e-05,8.48578e-07,-3.38675e-05,1.45257e-05,-7.3246e-06,1.82329e-05,5.73524e-07,0
-7.53197e-05,6.86284e-05,-2.90604e-06,-1.96608e-05,2.74673e-05,3.8102e-06,1.78974e-05,1.44481e-06,0
-8.52899e-05,4.67631e-05,-3.01445e-06,-4.43072e-06,3.74205e-05,2.30911e-05,1.72594e-05,3.8409e-06,0
-8.50602e-05,2.0524e-05,-2.12951e-06,5.78299e-06,3.67948e-05,2.76899e-05,1.66058e-05,4.21837e-06,0
-8.41179e-05,3.21093e-05,-1.45421e-06,5.39293e-06,3.22594e-05,-3.44942e-06,1.60457e-05,1.22854e-06,0
-9.26718e-05,7.43719e-05,-3.33528e-06,1.51493e-05,2.99635e-05,-4.98304e-05,1.64614e-05,-3.33591e-06,0
-0.000110468,0.000102702,-7.83129e-06,6.50403e-05,3.41984e-05,-7.51693e-05,1.75606e-05,-8.38537e-06,0
-0.00011033,0.000104659,-1.06548e-05,0.000129293,4.39577e-05,-2.076e-05,1.6099e-05,-1.08857e-05,0
-8.34113e-05,8.99995e-05,-1.36696e-05,0.000144179,4.96204e-05,6.96167e-05,1.30126e-05,-1.11146e-05,0
-5.58726e-05,5.83618e-05,-1.58891e-05,8.89162e-05,4.15944e-05,8.85644e-05,1.14946e-05,-9.49818e-06,0
-4.45546e-05,5.67725e-06,-1.3033e-05,8.99865e-06,2.33435e-05,4.67087e-05,1.07292e-05,-5.95406e-07,0
-4.58255e-05,-4.88742e-05,-9.49455e-06,-4.441e-05,6.74798e-06,-2.2292e-06,9.87846e-06,1.22873e-05,0
-4.70782e-05,-7.52473e-05,-7.52349e-06,-4.91555e-05,-1.08841e-06,-3.42352e-05,1.03543e-05,1.84476e-05,0
-3.93969e-05,-6.19363e-05,-4.95277e-06,-3.29141e-06,2.36468e-06,-4.58404e-05,1.31833e-05,1.36299e-05,0
-2.63321e-05,-3.59104e-05,-2.79231e-06,4.97389e-05,1.62823e-05,-2.07704e-05,1.56001e-05,3.44383e-06,0
-1.59988e-05,-1.81024e-05,-3.6423e-06,6.61401e-05,2.67966e-05,2.2883e-05,1.56475e-05,-6.8678e-06,0
-1.28511e-05,-1.10989e-05,-6.85628e-06,5.01865e-05,2.08635e-05,4.8961e-05,1.33424e-05,-1.43243e-05,0
-1.42813e-05,-8.54274e-06,-1.00395e-05,4.03589e-05,9.34727e-06,5.01851e-05,1.00757e-05,-1.51673e-05,0
-1.24274e-05,-5.10352e-06,-1.23594e-05,5.12619e-05,6.24704e-06,3.89923e-05,8.54641e-06,-1.29616e-05,0
-1.92782e-06,1.21935e-06,-1.40305e-05,6.67617e-05,1.39497e-05,2.75349e-05,9.21771e-06,-1.18095e-05,0
8.02993e-06,1.11409e-05,-1.57453e-05,6.59131e-05,2.54469e-05,1.57273e-05,1.04251e-05,-1.18516e-05,0
4.4363e-06,2.09143e-05,-1.68251e-05,5.26005e-05,3.10443e-05,1.72274e-06,1.03626e-05,-1.10922e-05,0
-1.63574e-05,2.80996e-05,-1.65145e-05,5.27245e-05,2.42127e-05,-1.74811e-05,5.22818e-06,-9.67778e-06,0
-4.1359e-05,3.44084e-05,-1.3953e-05,6.84403e-05,6.65757e-06,-3.89646e-05,-5.95029e-06,-9.47246e-06,0
-5.63462e-05,4.34871e-05,-8.56119e-06,6.03885e-05,-1.4747e-05,-6.19437e-05,-1.5613e-05,-1.05422e-05,0
-5.76633e-05,5.07697e-05,-3.1782e-06,1.32028e-05,-3.07676e-05,-7.66892e-05,-1.51379e-05,-1.08594e-05,0
-4.55482e-05,5.37771e-05,-1.01707e-07,-1.64169e-05,-3.16196e-05,-6.93433e-05,-4.23709e-06,-9.30377e-06,0
-2.09531e-05,5.43088e-05,1.09871e-06,1.66983e-05,-1.56443e-05,-4.13694e-05,9.48117e-06,-7.41129e-06,0
-1.45967e-06,5.28901e-05,2.68057e-06,7.21707e-05,6.25576e-06,-1.66656e-05,2.02404e-05,-5.15178e-06,0
-7.46029e-06,4.50311e-05,6.75808e-06,8.35917e-05,2.02131e-05,-6.83985e-06,2.78811e-05,-2.06992e-06,0
-2.90146e-05,3.01842e-05,1.17591e-05,5.47947e-05,2.19321e-05,-6.29969e-06,3.31546e-05,-9.00546e-07,0
-4.11506e-05,1.52955e-05,1.58827e-05,2.7666e-05,1.65931e-05,-3.9622e-06,3.47011e-05,-1.52815e-06,0
-3.56088e-05,8.67027e-06,1.98724e-05,8.93749e-06,1.15603e-05,-7.77962e-07,3.26979e-05,-1.05155e-06,0
-2.53591e-05,1.33943e-05,1.98405e-05,-1.41845e-05,7.55017e-06,-1.39003e-05,2.95515e-05,2.61203e-07,0
-2.72638e-05,2.08284e-05,1.20346e-05,-4.91862e-05,-1.74278e-06,-3.77412e-05,2.37967e-05,2.66891e-06,0
-4.05975e-05,2.30042e-05,1.7411e-06,-0.000111951,-2.61514e-05,-5.4401e-05,1.66704e-05,4.103e-06,0
-4.36371e-05,2.31824e-05,-5.60526e-06,-0.000187672,-5.89547e-05,-6.19209e-05,1.30812e-05,3.45375e-06,0
-1.69347e-05,2.52337e-05,-9.37035e-06,-0.000240424,-8.50736e-05,-6.33384e-05,1.39239e-05,1.22775e-06,0
2.49402e-05,2.88473e-05,-1.18345e-05,-0.000240036,-9.74666e-05,-5.82636e-05,1.48479e-05,-6.90398e-07,0
5.27451e-05,3.08239e-05,-1.41185e-05,-0.000155545,-9.35908e-05,-4.34592e-05,1.22907e-05,3.97178e-07,0
5.42982e-05,3.29842e-05,-1.57257e-05,-1.30171e-05,-5.06808e-05,-2.38422e-05,8.90538e-06,4.35537e-06,0
2.79967e-05,3.43944e-05,-1.65341e-05,0.000113965,3.58035e-05,2.32892e-06,4.82738e-06,6.98892e-06,0
-1.48011e-05,3.17848e-05,-1.46728e-05,0.000174529,9.70758e-05,2.30585e-05,1.24642e-06,1.33057e-05,0
-5.89181e-05,2.37329e-05,-9.8874e-06,0.000195575,7.51665e-05,1.16607e-05,-1.03002e-06,3.08376e-05,0
-8.963e-05,1.47102e-05,-4.79486e-06,0.000216577,8.26947e-06,-1.42735e-05,-5.10501e-08,4.50483e-05,0
-0.000105098,7.3457e-06,-1.52485e-06,0.000234889,-8.68553e-06,-2.78161e-05,8.74229e-06,4.04019e-05,0
-0.000113778,-2.33834e-06,1.43282e-06,0.000261584,5.56698e-05,-2.37173e-05,2.23178e-05,1.9926e-05,0
-0.000120707,-1.30127e-05,5.39159e-06,0.000289402,0.000139597,-1.0555e-05,3.3616e-05,-1.69064e-06,0
-0.000114256,-1.82729e-05,8.31755e-06,0.000273688,0.000168141,2.3397e-06,3.89685e-05,-1.64702e-05,0
-7.84637e-05,-9.24693e-06,9.0068e-06,0.000196459,0.00013232,7.81219e-06,3.84443e-05,-2.53599e-05,0
-2.6385e-05,1.14509e-05,8.08962e-06,7.638e-05,8.10137e-05,1.90035e-05,3.2296e-05,-2.98059e-05,0
8.19296e-06,3.12341e-05,5.54421e-06,-5.64371e-05,5.3742e-05,4.23041e-05,2.12346e-05,-3.09874e-05,0
1.79856e-05,4.03612e-05,2.63262e-07,-0.000140833,5.04365e-05,4.74892e-05,6.81084e-06,-2.88617e-05,0
2.00194e-05,4.05082e-05,-5.74486e-06,-0.000122223,5.45082e-05,2.53757e-05,-6.66815e-06,-2.20913e-05,0
6.22642e-06,3.58998e-05,-7.64597e-06,-1.86917e-05,5.30823e-05,2.73436e-06,-1.51554e-05,-1.16929e-05,0
-3.24289e-05,3.29066e-05,-4.00511e-06,6.99332e-05,4.1589e-05,-8.23209e-06,-1.82195e-05,-1.47308e-06,0
-7.58275e-05,3.20809e-05,2.79993e-06,4.97845e-05,2.88537e-05,-1.27826e-05,-1.8997e-05,5.75232e-06,0
-9.54747e-05,2.68114e-05,5.76572e-06,-6.83214e-05,1.53828e-05,-8.43683e-06,-1.83839e-05,9.79184e-06,0
-7.98751e-05,1.38272e-05,2.58058e-06,-0.000219606,1.54519e-06,5.04659e-06,-1.45975e-05,1.22676e-05,0
-4.53253e-05,-1.21088e-06,2.19515e-07,-0.000361354,-8.21694e-06,6.88974e-06,-9.09154e-06,1.18043e-05,0
-1.9531e-05,-1.39545e-05,-2.46614e-06,-0.000472696,-2.03842e-05,-8.72007e-06,-4.02841e-06,6.61576e-06,0
-1.44499e-05,-1.87118e-05,-8.20722e-06,-0.000512761,-3.94007e-05,-9.50232e-06,8.26288e-07,2.48178e-06,0
-2.48387e-05,-1.10254e-05,-1.3961e-05,-0.000475271,-4.90624e-05,-7.78028e-06,5.42413e-06,3.65943e-06,0
-3.64704e-05,-1.76464e-06,-1.80907e-05,-0.000381171,-3.67772e-05,-2.69944e-05,8.31852e-06,5.52056e-06,0
-3.82492e-05,2.0334e-06,-2.01099e-05,-0.000244285,-1.39828e-05,-4.23723e-05,1.00669e-05,7.0195e-06,0
-3.06118e-05,3.71512e-06,-2.17527e-05,-0.000116426,1.46147e-06,-3.73018e-05,1.29338e-05,6.77914e-06,0
-2.42009e-05,1.16882e-05,-2.18065e-05,-1.81355e-05,3.97002e-06,-3.04697e-05,1.45492e-05,4.33702e-06,0
-2.65845e-05,2.17366e-05,-1.88204e-05,5.58966e-05,-3.16215e-06,-2.62723e-05,1.06503e-05,1.30279e-06,0
-4.05582e-05,2.59877e-05,-1.4941e-05,9.84118e-05,-1.57683e-05,2.34673e-06,2.52931e-06,6.52048e-06,0
-5.97712e-05,2.37962e-05,-1.23225e-05,9.84799e-05,-3.10593e-05,3.39583e-05,-4.68356e-06,2.4976e-05,0
-7.02213e-05,1.43866e-05,-1.08333e-05,7.70912e-05,-4.24753e-05,3.18405e-05,-7.17526e-06,4.42622e-05,0
-6.63921e-05,-2.46236e-06,-9.92065e-06,6.56862e-05,-3.73188e-05,1.35571e-05,-4.82886e-06,5.31044e-05,0
-5.17153e-05,-2.24021e-05,-1.29991e-05,7.64003e-05,-1.52425e-05,1.25622e-05,-3.57801e-07,4.89915e-05,0
-3.54616e-05,-3.59633e-05,-1.89051e-05,0.000106613,2.94859e-06,2.7682e-05,3.43166e-06,3.23703e-05,0
-2.59237e-05,-4.13923e-05,-2.39801e-05,0.000134729,-8.60542e-07,3.54571e-05,7.5602e-06,6.88369e-06,0
-2.58272e-05,-4.44897e-05,-2.7058e-05,0.000135672,-1.80543e-05,2.82543e-05,1.51144e-05,-1.87228e-05,0
-3.0853e-05,-4.93288e-05,-2.65247e-05,0.000110618,-2.62238e-05,1.5512e-05,2.52609e-05,-3.72129e-05,0
-3.39759e-05,-4.97919e-05,-2.2623e-05,0.000108852,-1.2539e-05,2.75473e-06,3.27294e-05,-4.3728e-05,0
-2.83356e-05,-3.59554e-05,-1.77045e-05,0.00014939,1.85046e-05,-2.48459e-05,3.53661e-05,-3.74012e-05,0
-1.32429e-05,-9.76225e-06,-1.29881e-05,0.0001716,5.40844e-05,-7.19632e-05,3.6489e-05,-2.31564e-05,0
6.79483e-06,1.45068e-05,-1.00329e-05,0.000121342,7.91577e-05,-9.94939e-05,3.85619e-05,-9.82369e-06,0
2.3298e-05,3.2153e-05,-9.74982e-06,3.70189e-05,8.5479e-05,-6.81761e-05,4.08522e-05,-6.63906e-07,0
2.62365e-05,5.15043e-05,-1.16008e-05,-2.90547e-05,7.33318e-05,-7.98834e-06,4.17185e-05,3.40118e-06,0
1.53125e-05,6.56217e-05,-1.37245e-05,-7.27095e-05,4.6737e-05,4.09968e-05,3.91581e-05,1.15927e-06,0
1.13383e-06,6.76628e-05,-1.2609e-05,-0.000109591,1.59458e-05,5.70253e-05,3.43999e-05,-4.52806e-06,0
-6.16863e-06,6.5511e-05,-1.18982e-05,-0.000141969,-5.0461e-06,2.64852e-05,3.13717e-05,-9.90438e-06,0
-5.81064e-06,6.39378e-05,-1.34264e-05,-0.00016736,-1.1909e-05,-9.90242e-06,3.18385e-05,-1.18484e-05,0
-4.35823e-06,6.32636e-05,-1.57786e-05,-0.00018318,-9.06241e-06,-2.9133e-05,3.36056e-05,-7.30185e-06,0
-7.3987e-06,5.91863e-05,-1.88868e-05,-0.000189243,-1.26841e-06,-4.77242e-05,3.18691e-05,-2.21227e-06,0
-1.68397e-05,5.08199e-05,-2.16699e-05,-0.000189438,8.42813e-06,-5.92444e-05,2.78848e-05,-3.39946e-06,0
-2.86428e-05,3.71135e-05,-2.19764e-05,-0.00018278,3.54078e-06,-5.476e-05,2.50239e-05,-6.65217e-06,0
-3.77161e-05,1.71285e-05,-2.09833e-05,-0.00015525,-2.32428e-05,-4.25266e-05,2.24978e-05,-7.58377e-06,0
-4.2392e-05,-2.54415e-06,-2.18527e-05,-9.95253e-05,-3.26895e-05,-2.73989e-05,1.9462e-05,-5.34052e-06,0
-4.19545e-05,-1.57766e-05,-2.14458e-05,-2.92843e-05,4.93426e-07,-1.14531e-05,7.84151e-06,-2.48336e-06,0
-3.84298e-05,-2.03542e-05,-1.83318e-05,2.24633e-05,4.77278e-05,-3.59899e-06,-1.38123e-05,1.23254e-06,0
-3.83102e-05,-1.75058e-05,-1.28708e-05,3.97387e-05,7.18891e-05,-2.68268e-06,-3.24426e-05,4.67846e-06,0
-4.86322e-05,-8.18355e-06,-6.39335e-06,5.16685e-05,6.28585e-05,-3.04553e-06,-3.60927e-05,5.23902e-06,0
-6.38436e-05,5.55247e-06,-3.36499e-07,8.90452e-05,3.58775e-05,6.07085e-07,-2.51385e-05,5.19453e-06,0
-7.27979e-05,2.12586e-05,5.35497e-06,0.00015431,1.31852e-05,9.54343e-06,-9.54769e-06,5.40235e-06,0
-6.98703e-05,3.27556e-05,8.83768e-06,0.000193231,4.83315e-07,1.75394e-05,6.5944e-06,3.74257e-06,0
-5.72131e-05,3.64433e-05,8.50555e-06,0.000166565,-1.26258e-05,1.79374e-05,2.25847e-05,6.75859e-07,0
-3.88731e-05,3.6263e-05,5.76058e-06,0.000102182,-2.92234e-05,1.22576e-05,3.61304e-05,-2.0612e-06,0
-1.34967e-05,3.63699e-05,3.57212e-06,5.02832e-05,-3.92282e-05,9.18526e-06,4.46058e-05,-5.38348e-06,0
1.79087e-05,3.43597e-05,3.26537e-06,2.21423e-05,-3.79568e-05,1.03952e-05,4.80853e-05,-9.66537e-06,0
4.32385e-05,2.59581e-05,2.5773e-06,1.40721e-06,-3.54686e-05,9.28819e-06,4.70862e-05,-8.92965e-06,0
4.84499e-05,1.21467e-05,-7.09652e-07,-1.26548e-05,-3.39942e-05,-6.6772e-07,4.35263e-05,3.90533e-06,0
3.43942e-05,-1.52196e-06,-4.41363e-06,-8.97008e-06,-1.43752e-05,-1.47965e-05,4.02663e-05,2.38666e-05,0
1.22376e-05,-1.02108e-05,-5.31697e-06,6.96684e-06,3.41639e-05,-2.58962e-05,3.75177e-05,3.56366e-05,0
-8.16533e-06,-1.32462e-05,-2.96163e-06,1.3424e-05,8.7201e-05,-2.91742e-05,3.46163e-05,3.12529e-05,0
-2.01857e-05,-9.34002e-06,-4.4294e-07,-4.51314e-06,0.000111279,-2.37172e-05,3.27345e-05,1.74726e-05,0
-2.47303e-05,2.90034e-07,1.51738e-07,-4.58527e-05,9.87975e-05,-1.6296e-05,3.21165e-05,3.11799e-06,0
-2.94481e-05,6.46329e-06,-2.02922e-06,-8.07609e-05,6.08767e-05,-1.54526e-05,2.79443e-05,-9.2622e-06,0
-3.86244e-05,1.86374e-07,-6.12286e-06,-7.89557e-05,1.52611e-05,-2.59785e-05,1.365e-05,-2.12524e-05,0
-4.84365e-05,-1.25216e-05,-7.93077e-06,-3.53633e-05,-3.30664e-06,-4.24418e-05,-7.76679e-06,-3.04753e-05,0
-5.63468e-05,-1.94142e-05,-6.21307e-06,2.74824e-05,1.82364e-05,-3.91929e-05,-2.21554e-05,-3.3161e-05,0
-6.05779e-05,-1.2943e-05,-4.55318e-06,4.17077e-05,5.78891e-05,-1.50624e-05,-2.27169e-05,-3.0886e-05,0
-5.69556e-05,-4.31945e-06,-6.83519e-06,6.31285e-06,0.000100089,-4.12552e-06,-1.48565e-05,-2.53903e-05,0
-4.90546e-05,-8.69468e-06,-1.08287e-05,-4.59832e-06,0.000122768,-1.25523e-05,-2.04134e-06,-1.87858e-05,0
-3.96314e-05,-1.43652e-05,-1.22092e-05,2.60611e-05,9.97799e-05,-1.94184e-05,1.44435e-05,-1.38608e-05,0
-2.8389e-05,-9.64004e-06,-1.11911e-05,6.55716e-05,4.12044e-05,-1.56678e-05,2.91667e-05,-9.21839e-06,0
-1.2658e-05,2.5618e-06,-1.0124e-05,6.14917e-05,-1.42078e-05,-5.4587e-06,3.91372e-05,-3.92977e-06,0
1.1373e-06,1.38248e-05,-8.49387e-06,3.36185e-05,-4.28831e-05,1.32191e-06,4.23044e-05,2.32607e-07,0
2.18515e-06,2.087e-05,-5.66932e-06,2.7334e-05,-4.27957e-05,1.05339e-06,3.96784e-05,2.84392e-06,0
-3.42312e-06,3.03161e-05,-4.68286e-06,4.03921e-05,-3.08221e-05,-1.49078e-06,3.50666e-05,4.46334e-06,0
-4.57438e-06,4.25347e-05,-6.28242e-06,5.85702e-05,-2.03573e-05,-4.33288e-06,3.09299e-05,6.86165e-06,0
8.57633e-07,5.27148e-05,-9.2092e-06,7.79127e-05,-1.15453e-05,-5.52345e-06,2.68984e-05,1.07368e-05,0
5.65415e-06,5.76255e-05,-1.25968e-05,9.69428e-05,-5.90902e-06,-5.62994e-06,2.30388e-05,1.41429e-05,0
2.52652e-06,5.91927e-05,-1.52992e-05,0.000100476,-4.76358e-06,-9.02379e-06,1.84246e-05,1.43309e-05,0
-1.29729e-05,5.81462e-05,-1.68014e-05,8.37616e-05,-6.15581e-06,-1.75893e-05,1.11548e-05,1.17124e-05,0
-3.47551e-05,5.09892e-05,-1.83228e-05,6.57147e-05,-9.06384e-06,-2.58887e-05,3.10235e-06,1.0192e-05,0
-4.89589e-05,3.49023e-05,-1.95915e-05,6.3105e-05,-2.31631e-05,-2.87532e-05,-2.50255e-06,9.68069e-06,0
-4.86979e-05,1.19348e-05,-1.927e-05,4.18597e-05,-5.20876e-05,-2.2305e-05,-3.31265e-06,8.39337e-06,0
-4.03843e-05,-1.11399e-05,-1.84423e-05,-3.59327e-06,-7.90885e-05,-1.52278e-06,-2.16919e-06,7.35159e-06,0
-3.49573e-05,-2.81908e-05,-1.88013e-05,-6.75166e-06,-8.42604e-05,3.05187e-05,-2.44302e-06,8.40978e-06,0
-4.48514e-05,-3.80378e-05,-2.01082e-05,4.28632e-05,-6.10608e-05,4.64399e-05,-3.85831e-06,1.06603e-05,0
-7.32954e-05,-4.34136e-05,-2.25652e-05,8.04572e-05,-7.15038e-06,2.02271e-05,-4.60906e-06,1.16436e-05,0
-9.86963e-05,-4.22725e-05,-2.61396e-05,8.33599e-05,6.18524e-05,-3.042e-05,-4.59788e-06,1.16283e-05,0
-0.000102886,-3.03245e-05,-2.64253e-05,6.21571e-05,0.000105308,-6.46725e-05,-4.52196e-06,1.03924e-05,0
-8.89004e-05,-1.06366e-05,-2.07268e-05,4.65329e-05,8.95714e-05,-7.12949e-05,-4.8586e-06,9.62489e-06,0
-6.41685e-05,9.76405e-06,-1.35428e-05,6.37826e-05,3.16199e-05,-7.07613e-05,-4.76826e-06,1.10768e-05,0
-3.75248e-05,2.8355e-05,-7.96853e-06,0.000126869,-1.89514e-05,-7.119e-05,-3.30413e-06,1.15366e-05,0
-2.53186e-05,4.72689e-05,2.51244e-06,0.000210119,-3.5591e-05,-4.66625e-05,-1.70645e-06,1.02187e-05,0
-3.65738e-05,6.31603e-05,1.39712e-05,0.000204477,-2.18163e-05,1.13068e-05,-9.89239e-07,9.03305e-06,0
-5.94727e-05,7.24812e-05,1.4326e-05,7.28676e-05,-4.6213e-06,4.53241e-05,-1.26466e-06,7.81371e-06,0
-7.02795e-05,8.00645e-05,6.29771e-06,-0.000101137,-5.09589e-06,1.98875e-05,-1.64798e-06,5.74383e-06,0
-5.78797e-05,8.50964e-05,-5.29161e-07,-0.000215906,-1.14661e-05,-2.27384e-05,2.15982e-07,3.62789e-06,0
-3.69663e-05,8.78202e-05,1.47403e-06,-0.000230397,-1.13984e-05,-3.95657e-05,4.23856e-06,2.24064e-06,0
-2.22152e-05,8.67293e-05,1.00605e-05,-0.000193715,-3.84562e-06,-3.23253e-05,8.85222e-06,1.24376e-06,0
-1.71298e-05,8.06713e-05,1.6854e-05,-0.000154015,1.29039e-05,-1.50682e-05,1.12843e-05,6.9642e-07,0
-1.86912e-05,6.47319e-05,1.67689e-05,-0.000137261,3.39749e-05,4.39158e-06,1.1339e-05,8.63702e-07,0
-1.70651e-05,3.12469e-05,9.95133e-06,-0.00014315,4.74748e-05,3.17688e-05,1.00754e-05,2.86562e-06,0
-7.29298e-06,-1.32537e-05,1.0543e-06,-0.000150674,5.01146e-05,6.89389e-05,5.70925e-06,5.99255e-06,0
1.22934e-05,-4.85215e-05,-6.03924e-06,-0.000148345,4.67848e-05,8.2024e-05,-8.95846e-07,8.06259e-06,0
4.06744e-05,-5.83217e-05,-9.19474e-06,-0.00013734,3.65709e-05,5.66577e-05,-5.1514e-06,7.7987e-06,0
6.98718e-05,-4.72665e-05,-9.01e-06,-0.00013207,1.96105e-05,2.18463e-05,-4.38319e-06,7.3064e-06,0
8.3039e-05,-3.0275e-05,-7.83497e-06,-0.000127061,3.77318e-06,3.30669e-06,1.02818e-06,8.79811e-06,0
6.94024e-05,-1.8898e-05,-6.38945e-06,-0.00010121,-3.3736e-06,-3.69457e-08,9.23659e-06,1.01307e-05,0
3.57805e-05,-1.47678e-05,-4.54513e-06,-4.03498e-05,-3.87179e-06,1.80942e-06,1.63909e-05,9.1705e-06,0
-7.25525e-06,-1.83303e-05,-4.45528e-06,3.18485e-05,-3.57491e-06,6.38652e-06,2.03144e-05,6.46036e-06,0
-5.27327e-05,-2.73022e-05,-7.59977e-06,6.25086e-05,-6.61375e-06,1.11009e-05,2.12844e-05,3.59024e-06,0
-8.79949e-05,-3.60956e-05,-1.38911e-05,1.94371e-05,-9.64899e-06,1.10578e-05,2.13453e-05,4.10629e-08,0
-9.46753e-05,-3.99051e-05,-2.20877e-05,-6.09041e-05,-7.04907e-06,9.06106e-06,2.12221e-05,-5.13771e-06,0
-7.88243e-05,-4.02376e-05,-2.6983e-05,-0.00012781,1.51408e-06,9.68127e-06,2.1064e-05,-1.01238e-05,0
-8.20007e-05,-4.5945e-05,-2.42133e-05,-0.000150439,1.13947e-05,-8.71663e-07,2.10638e-05,-1.08663e-05,0
-0.000117147,-6.10069e-05,-1.84212e-05,-0.000101113,1.3328e-05,-2.66448e-05,2.09061e-05,-6.46473e-06,0
-0.000143064,-7.33415e-05,-1.49568e-05,-2.50516e-05,1.05012e-06,-5.08084e-05,1.99164e-05,1.6e-07,0
-0.000130401,-7.22946e-05,-1.31578e-05,-7.43633e-06,-1.10833e-05,-6.36593e-05,1.97636e-05,5.20978e-06,0
-8.81292e-05,-5.78022e-05,-1.02149e-05,-1.71096e-05,3.44423e-07,-5.96014e-05,2.05886e-05,8.62919e-06,0
-4.04403e-05,-3.13327e-05,-4.156e-06,1.53549e-05,3.56996e-05,-2.29308e-05,2.09618e-05,1.0366e-05,0
-1.56927e-05,-6.16316e-06,1.10245e-06,7.72468e-05,5.98719e-05,4.03021e-05,2.00789e-05,9.61913e-06,0
-2.05903e-05,8.3542e-06,2.93248e-06,0.000120798,5.92286e-05,7.26334e-05,1.79829e-05,8.6546e-06,0
-4.0975e-05,1.66569e-05,2.29559e-06,0.000102564,5.30169e-05,4.61438e-05,1.76181e-05,7.91381e-06,0
-6.0423e-05,2.2759e-05,-1.05683e-07,5.35139e-05,4.33665e-05,2.37151e-06,1.8841e-05,6.04944e-06,0
-6.03525e-05,2.90492e-05,-3.21308e-07,1.48887e-05,3.13011e-05,-3.18253e-05,1.76199e-05,1.8131e-06,0
-3.69028e-05,3.50903e-05,8.85779e-07,-9.05548e-06,2.05123e-05,-6.35689e-05,1.43104e-05,-2.68039e-06,0
-1.13146e-05,3.84567e-05,3.34833e-07,-1.42982e-05,1.54836e-05,-9.22495e-05,1.25823e-05,-5.5826e-06,0
-1.54274e-05,3.63619e-05,-3.29998e-06,-9.72583e-06,1.40545e-05,-0.000101538,1.12837e-05,-4.09956e-06,0
-3.92884e-05,3.25942e-05,-8.04475e-06,-1.54124e-05,1.19661e-05,-8.69198e-05,1.00425e-05,1.6016e-06,0
-4.81197e-05,3.3291e-05,-9.28228e-06,-3.81237e-05,5.54556e-06,-5.31493e-05,9.24538e-06,6.77821e-06,0
-3.24223e-05,4.0519e-05,-8.08379e-06,-4.97794e-05,-4.25995e-06,-9.8007e-06,6.98446e-06,7.45892e-06,0
-1.40784e-05,5.03198e-05,-6.81811e-06,-2.02382e-05,-8.99978e-06,1.76203e-05,3.97459e-06,3.41204e-06,0
-6.93202e-06,5.8588e-05,-6.32131e-06,5.96252e-05,-5.7238e-06,1.43148e-05,2.52868e-06,-1.68795e-06,0
-7.90111e-06,6.36043e-05,-5.74196e-06,0.000157455,3.16268e-06,-1.01929e-05,3.55849e-06,-2.98408e-06,0
-1.63051e-05,6.33526e-05,-4.52246e-06,0.000211631,1.39987e-05,-3.14418e-05,5.81731e-06,9.00779e-07,0
-3.29651e-05,5.68231e-05,-3.55472e-06,0.000185359,2.45641e-05,-2.78093e-05,6.1344e-06,4.35449e-06,0
-5.10023e-05,3.77957e-05,-4.00407e-06,0.000103737,3.06378e-05,-6.23753e-07,2.74707e-06,6.25917e-06,0
-5.30345e-05,4.26894e-06,-5.44237e-06,2.62596e-05,3.17088e-05,2.07742e-05,-2.45875e-06,1.09766e-05,0
-4.16642e-05,-3.16085e-05,-6.39458e-06,-1.25677e-05,3.04994e-05,1.27861e-05,-5.66236e-06,1.85861e-05,0
-3.30251e-05,-4.98817e-05,-6.90819e-06,-1.79903e-05,3.07266e-05,-1.58559e-05,-5.18025e-06,2.21493e-05,0
-3.5633e-05,-4.52638e-05,-8.20142e-06,-8.82168e-06,2.97637e-05,-4.40198e-05,-2.97708e-06,1.74607e-05,0
-4.39906e-05,-2.63672e-05,-9.01242e-06,-1.72663e-05,2.28261e-05,-6.55655e-05,-1.17003e-06,9.38928e-06,0
-4.85839e-05,-2.86541e-07,-8.57734e-06,-7.11275e-05,1.15272e-05,-7.75783e-05,6.8332e-07,6.73891e-06,0
-4.32836e-05,2.89317e-05,-9.87308e-06,-0.000133007,1.57602e-06,-7.74279e-05,3.47244e-06,1.80005e-05,0
-3.54339e-05,5.0635e-05,-1.49159e-05,-0.000158552,-6.98175e-06,-7.4456e-05,8.85533e-06,3.78452e-05,0
-3.07841e-05,5.43492e-05,-2.22614e-05,-0.000154826,-1.51643e-05,-6.71487e-05,1.60853e-05,4.58132e-05,0
-2.69248e-05,4.19768e-05,-2.70064e-05,-0.000131945,-2.20347e-05,-4.68034e-05,2.24075e-05,3.85207e-05,0
-6.56479e-06,3.29483e-05,-2.61583e-05,-9.02559e-05,-2.51471e-05,1.28172e-05,2.47849e-05,2.06001e-05,0
3.48851e-05,3.56461e-05,-2.06721e-05,-4.18817e-05,-2.62443e-05,9.65173e-05,2.26309e-05,-5.78452e-06,0
5.95219e-05,2.15642e-05,-1.47056e-05,-8.2226e-06,-2.76647e-05,0.000113109,2.12238e-05,-3.21129e-05,0
5.21613e-05,1.93275e-06,-1.03196e-05,6.17315e-07,-1.9927e-05,6.64273e-05,2.10861e-05,-4.95468e-05,0
4.45672e-05,2.59059e-05,-7.88394e-06,3.19194e-06,5.79518e-06,3.06536e-05,2.06968e-05,-5.15883e-05,0
5.67313e-05,8.53115e-05,-7.90885e-06,1.19171e-05,3.56672e-05,1.75386e-05,2.01351e-05,-4.22048e-05,0
7.36318e-05,0.000130894,-7.36079e-06,2.87219e-05,4.91643e-05,1.63562e-05,1.89167e-05,-3.22663e-05,0
7.02291e-05,0.000125789,-6.21808e-06,5.5841e-05,5.26842e-05,1.97121e-05,1.72883e-05,-1.60087e-05,0
4.1578e-05,7.81813e-05,-6.44212e-06,7.81098e-05,6.05785e-05,1.96659e-05,1.6458e-05,1.3992e-05,0
1.68752e-08,2.67325e-05,-6.9868e-06,7.39439e-05,7.11524e-05,7.92893e-06,1.72013e-05,3.76234e-05,0
-4.26836e-05,-7.63637e-06,-7.44689e-06,4.46637e-05,8.10458e-05,-9.05874e-06,1.76005e-05,3.80093e-05,0
-7.24712e-05,-2.74323e-05,-1.05598e-05,1.97906e-05,0.000110121,-2.10215e-05,1.71066e-05,2.00086e-05,0
-8.03853e-05,-4.25346e-05,-1.68038e-05,1.62399e-05,0.000153366,-2.4199e-05,1.5664e-05,-4.00566e-08,0
-7.21838e-05,-6.40566e-05,-2.09014e-05,8.56906e-06,0.000160838,-2.37958e-05,1.3373e-05,-1.41313e-05,0
-6.42041e-05,-8.89951e-05,-1.93499e-05,-3.81423e-05,0.000109027,-2.65558e-05,1.11775e-05,-2.24076e-05,0
-6.26902e-05,-9.3522e-05,-1.6508e-05,-0.000104137,3.95639e-05,-3.79591e-05,1.14338e-05,-2.81882e-05,0
-6.37243e-05,-6.73444e-05,-1.77203e-05,-0.000134505,2.23194e-06,-5.7168e-05,1.37659e-05,-3.40746e-05,0
-6.42725e-05,-2.75113e-05,-2.02131e-05,-0.000106425,-1.05641e-05,-5.97367e-05,1.44079e-05,-3.86202e-05,0
-6.81998e-05,7.69739e-07,-1.86297e-05,-4.12994e-05,-3.76508e-05,-3.95606e-05,1.06985e-05,-3.85278e-05,0
-7.83006e-05,9.3645e-06,-1.38804e-05,2.67334e-05,-8.49151e-05,-3.37526e-05,4.31841e-06,-3.0599e-05,0
-9.03121e-05,7.24956e-06,-8.81222e-06,8.56892e-05,-0.000121437,-4.55139e-05,1.78368e-06,-1.7532e-05,0
-9.47464e-05,5.79014e-06,-2.48468e-06,0.000137097,-0.000125325,-3.56938e-05,6.79901e-06,-5.00606e-06,0
-8.90999e-05,1.01172e-05,1.30476e-06,0.000151582,-0.000100282,-6.3848e-06,1.6477e-05,2.5545e-06,0
-8.2666e-05,2.24584e-05,-2.3362e-06,0.000100519,-6.29829e-05,1.31943e-05,2.63577e-05,6.48699e-06,0
-7.96259e-05,3.39749e-05,-8.45444e-06,1.25199e-05,-2.2255e-05,1.80627e-05,3.22628e-05,7.66172e-06,0
-6.83683e-05,3.86314e-05,-9.84897e-06,-6.06569e-05,2.5915e-06,4.31216e-05,3.29529e-05,5.54092e-06,0
-5.10779e-05,4.23562e-05,-5.792e-06,-0.000100894,-6.03636e-06,8.72336e-05,3.18949e-05,2.30756e-06,0
-4.84542e-05,4.40509e-05,1.45957e-06,-0.000114116,-3.37612e-05,7.24554e-05,2.97468e-05,2.4688e-06,0
-5.61571e-05,4.36515e-05,1.10986e-05,-0.000114863,-5.56945e-05,-3.7533e-06,2.58654e-05,3.47959e-06,0
-5.60019e-05,3.96195e-05,1.69282e-05,-0.000114466,-5.59277e-05,-4.54542e-05,2.18513e-05,2.40246e-06,0
-4.6121e-05,3.32125e-05,1.86678e-05,-9.76434e-05,-3.90695e-05,-3.67629e-05,1.87887e-05,1.05853e-06,0
-4.17876e-05,2.59161e-05,2.44359e-05,-4.18271e-05,-1.85407e-05,-2.35916e-05,1.56525e-05,4.93432e-07,0
-5.2891e-05,1.71596e-05,3.53355e-05,4.55618e-05,1.35578e-06,-2.96286e-05,1.36804e-05,9.63977e-08,0
-6.50448e-05,1.02434e-05,4.82022e-05,0.000113532,2.32941e-05,-4.97169e-05,1.39697e-05,2.91561e-07,0
-5.82772e-05,8.35449e-06,5.49676e-05,0.000124297,4.3071e-05,-7.23242e-05,1.42111e-05,3.60253e-07,0
-3.44808e-05,1.41043e-05,4.79176e-05,9.86063e-05,5.34954e-05,-9.89968e-05,1.35e-05,1.05186e-07,0
-1.00493e-05,2.36453e-05,2.52888e-05,8.47085e-05,5.52805e-05,-0.000120765,1.2245e-05,-1.20997e-07,0
8.67218e-06,3.2546e-05,-8.89548e-06,0.000103783,5.72941e-05,-0.000115053,9.08702e-06,-2.10725e-06,0
3.14461e-05,3.76586e-05,-4.28625e-05,0.000111907,6.41133e-05,-5.16603e-05,5.64217e-06,-3.67801e-06,0
5.85949e-05,3.87292e-05,-6.56058e-05,5.8804e-05,6.94773e-05,4.74519e-05,3.37263e-06,-2.86007e-06,0
7.27899e-05,3.79835e-05,-7.6459e-05,-2.7731e-05,6.61748e-05,9.87445e-05,9.25619e-07,-6.31116e-07,0
7.21054e-05,3.88624e-05,-7.83611e-05,-8.76883e-05,5.46352e-05,6.82009e-05,-1.09917e-06,1.67167e-06,0
6.76738e-05,4.2954e-05,-7.19618e-05,-9.496e-05,4.19441e-05,8.96302e-06,-2.37093e-07,3.61546e-06,0
5.38595e-05,4.56197e-05,-5.96355e-05,-6.60673e-05,2.85634e-05,-2.99799e-05,3.33647e-06,4.73859e-06,0
2.00099e-05,4.2356e-05,-4.70314e-05,-3.01354e-05,1.41801e-05,-4.19006e-05,5.48625e-06,4.45741e-06,0
-2.21868e-05,3.38473e-05,-3.70347e-05,1.08451e-05,1.77565e-05,-2.82345e-05,4.90831e-06,2.86063e-06,0
-5.08085e-05,2.5015e-05,-2.82138e-05,8.22484e-05,5.62081e-05,1.45728e-06,3.96848e-06,1.90343e-07,0
-5.90542e-05,1.87194e-05,-2.01123e-05,0.000161182,0.000102217,2.1184e-05,5.72236e-06,-2.90089e-06,0
-5.34505e-05,1.57629e-05,-1.44414e-05,0.000177578,0.000116314,2.5661e-05,8.68967e-06,-4.59881e-06,0
-4.7462e-05,1.35799e-05,-1.21572e-05,0.00013557,9.73859e-05,2.11644e-05,1.07114e-05,-4.59704e-06,0
-4.92404e-05,8.04266e-06,-1.15445e-05,7.55088e-05,6.63818e-05,1.27355e-05,1.22928e-05,-3.36481e-06,0
-5.59988e-05,-3.54204e-06,-1.14564e-05,1.4114e-05,2.39106e-05,4.75258e-06,1.16203e-05,-3.35392e-06,0
-5.98462e-05,-1.54501e-05,-9.4517e-06,-2.71521e-05,-2.75173e-05,-2.05363e-06,9.46299e-06,-3.66425e-06,0
-5.17444e-05,-1.94192e-05,-5.05911e-06,-4.21483e-05,-5.95823e-05,-2.74001e-06,1.1392e-05,-3.54985e-06,0
-3.70761e-05,-1.34185e-05,-2.2674e-06,-5.09078e-05,-6.28133e-05,3.02864e-07,1.49751e-05,-4.72624e-06,0
-2.55561e-05,-2.76021e-06,-2.69838e-06,-7.47941e-05,-4.94326e-05,3.16373e-06,1.67847e-05,-3.92922e-06,0
-2.38683e-05,3.0158e-06,-4.87946e-06,-9.68844e-05,-2.39509e-05,2.04961e-06,1.78627e-05,-1.35379e-06,0
-3.14e-05,1.97135e-06,-5.99916e-06,-7.90152e-05,4.7153e-07,-7.37232e-07,1.70162e-05,-2.09096e-08,0
-3.8022e-05,-8.72201e-07,-5.51491e-06,-3.44895e-05,3.95475e-07,-1.04636e-06,1.4822e-05,6.10741e-08,0
-3.62783e-05,1.64844e-06,-6.45615e-06,-1.85819e-05,-1.65388e-05,3.75783e-07,1.38733e-05,-9.74906e-07,0
-2.64404e-05,8.18068e-06,-7.04397e-06,-3.89346e-05,-2.40369e-05,4.87833e-06,1.56321e-05,-2.82337e-06,0
-1.48033e-05,1.30008e-05,-5.65266e-06,-6.20739e-05,-1.92227e-05,1.29652e-05,1.76838e-05,-3.18888e-06,0
2.57432e-06,1.60771e-05,-2.63081e-06,-7.43025e-05,-1.53444e-05,1.63409e-05,1.8751e-05,-2.05274e-06,0
2.72476e-05,1.82502e-05,8.13552e-07,-7.62122e-05,-1.00844e-05,1.20611e-05,1.91668e-05,-9.99559e-07,0
4.88284e-05,2.00757e-05,2.66916e-06,-7.47223e-05,1.96797e-05,6.80004e-06,1.75713e-05,5.77306e-07,0
5.7022e-05,2.06496e-05,1.29849e-06,-7.31565e-05,7.61929e-05,-2.26358e-06,1.4862e-05,9.26417e-07,0
4.8497e-05,1.89957e-05,-2.70962e-06,-7.56037e-05,0.000116238,-1.87359e-05,1.34672e-05,-1.70584e-06,0
2.23216e-05,1.37704e-05,-6.04546e-06,-8.94515e-05,0.000108229,-4.39561e-05,1.3912e-05,-4.37204e-06,0
-1.58497e-05,4.94266e-06,-8.0515e-06,-0.00011385,7.17896e-05,-6.77733e-05,1.53868e-05,-4.56803e-06,0
-5.11001e-05,-5.02729e-06,-9.5019e-06,-0.000132845,3.85966e-05,-7.12333e-05,1.63203e-05,-3.4491e-06,0
-7.19851e-05,-1.11939e-05,-1.05594e-05,-0.000126479,1.57045e-05,-4.45371e-05,1.5846e-05,-3.32128e-06,0
-7.96709e-05,-9.52348e-06,-9.09279e-06,-9.0509e-05,-5.11381e-07,3.969e-06,1.38289e-05,-4.21509e-06,0
-8.6562e-05,-5.08493e-06,-5.98467e-06,-3.67176e-05,-1.10596e-05,3.50505e-05,1.20503e-05,-4.17118e-06,0
-9.76459e-05,-6.32777e-06,-2.83573e-06,1.61566e-05,-2.15943e-05,1.25429e-05,1.36408e-05,-3.51776e-06,0
-9.93979e-05,-1.08415e-05,1.02857e-06,5.17139e-05,-3.35926e-05,-2.67225e-05,1.90063e-05,-2.77817e-06,0
-8.2752e-05,-1.15535e-05,6.1419e-06,6.56892e-05,-4.19028e-05,-2.14085e-05,2.46771e-05,-1.08249e-06,0
-6.10176e-05,-8.813e-06,1.06177e-05,6.94294e-05,-4.86283e-05,1.46805e-05,2.69977e-05,2.81557e-07,0
-4.62752e-05,-5.53246e-06,1.01099e-05,6.66074e-05,-4.98352e-05,3.10816e-05,2.71129e-05,5.68767e-07,0
-3.59124e-05,-1.90002e-06,4.68698e-06,4.83162e-05,-2.34551e-05,1.31577e-05,2.91162e-05,8.4537e-07,0
-2.54902e-05,1.77579e-06,6.68901e-07,2.55224e-05,2.55108e-05,-1.17403e-05,3.16658e-05,2.02243e-06,0
-1.91951e-05,-2.49009e-07,-3.55844e-08,2.08494e-05,8.63093e-05,-2.19269e-05,3.13645e-05,3.95409e-06,0
-2.29958e-05,-9.38029e-06,2.28799e-08,2.506e-05,0.000153036,-1.98137e-05,2.70206e-05,4.65091e-06,0
-3.38161e-05,-1.83603e-05,6.2051e-07,2.11029e-05,0.000187505,-1.5773e-05,1.93321e-05,4.68332e-06,0
-4.2804e-05,-2.11254e-05,2.64725e-06,1.39289e-05,0.000157146,-6.90076e-06,1.0634e-05,5.2259e-06,0
-4.88182e-05,-1.52982e-05,4.88691e-06,2.27811e-05,8.01921e-05,1.01333e-05,1.64756e-06,4.1104e-06,0
-5.82581e-05,-6.76878e-06,5.88124e-06,5.81446e-05,8.8886e-06,1.39405e-05,-7.59928e-06,3.2351e-06,0
-6.41072e-05,-5.91311e-06,5.52367e-06,0.000100098,-3.33235e-05,-4.28488e-06,-1.68499e-05,3.4636e-06,0
-5.24424e-05,-1.38667e-05,3.4048e-06,0.000108381,-4.97906e-05,-2.55952e-05,-2.31441e-05,3.59591e-06,0
-2.84935e-05,-2.28264e-05,3.14944e-07,7.58891e-05,-4.52519e-05,-3.42812e-05,-2.58886e-05,4.02066e-06,0
-4.90443e-06,-2.31755e-05,-4.00681e-06,3.44288e-05,-2.26224e-05,-3.25773e-05,-2.46159e-05,5.27922e-06,0
6.00944e-06,-1.4222e-05,-1.08965e-05,-2.94768e-06,3.36259e-06,-2.66074e-05,-1.93348e-05,7.07136e-06,0
6.25644e-06,-3.95416e-06,-1.76479e-05,-3.14304e-05,1.16625e-05,-1.63715e-05,-1.18284e-05,8.41887e-06,0
3.98344e-06,1.03031e-06,-1.91461e-05,-4.28222e-05,3.73463e-06,-5.94861e-06,-3.76624e-06,8.8197e-06,0
-3.64461e-06,2.61134e-06,-1.57605e-05,-2.84094e-05,-1.86771e-06,1.28252e-05,3.09371e-06,6.91755e-06,0
-1.81634e-05,6.25468e-06,-1.20385e-05,1.27011e-05,2.77369e-06,4.98854e-05,7.06043e-06,4.73409e-06,0
-3.73812e-05,1.11691e-05,-1.02389e-05,5.3754e-05,4.95109e-06,7.54184e-05,7.13181e-06,3.78943e-06,0
-5.75314e-05,1.29003e-05,-8.68886e-06,6.4984e-05,-7.16597e-06,6.19585e-05,4.64163e-06,3.53533e-06,0
-7.61601e-05,1.25698e-05,-5.53731e-06,5.55286e-05,-2.77232e-05,3.04114e-05,-5.23456e-07,2.70509e-06,0
-8.63882e-05,1.39373e-05,-1.25776e-06,5.13861e-05,-3.92566e-05,1.24689e-05,-7.55119e-06,1.40915e-06,0
-8.36653e-05,1.51988e-05,1.16985e-06,6.56782e-05,-3.77425e-05,8.84133e-06,-1.15143e-05,9.09216e-07,0
-7.0956e-05,1.54011e-05,8.12608e-07,0.000101526,-2.69059e-05,6.5774e-06,-7.99839e-06,1.32641e-06,0
-5.4506e-05,1.71571e-05,1.61166e-06,0.000141446,-5.69044e-07,2.23805e-06,6.11778e-07,1.95724e-06,0
-3.21849e-05,2.23405e-05,4.74426e-06,0.000154616,3.45721e-05,-6.71843e-06,1.09036e-05,1.82735e-06,0
-1.12842e-05,2.74383e-05,6.02528e-06,0.000111232,3.78227e-05,-3.04422e-05,2.13496e-05,3.39265e-07,0
-1.15339e-05,2.80472e-05,2.46941e-06,3.67589e-05,1.15913e-06,-6.16946e-05,3.05032e-05,-2.16268e-06,0
-3.21178e-05,2.61153e-05,-4.1528e-06,-1.01384e-06,-3.38996e-05,-7.80865e-05,3.41602e-05,-4.36538e-06,0
-4.65262e-05,2.53397e-05,-9.75721e-06,6.07964e-07,-5.40577e-05,-6.89867e-05,3.22201e-05,-4.67156e-06,0
-3.74661e-05,2.71269e-05,-1.1441e-05,-2.45346e-06,-5.83231e-05,-4.53121e-05,2.95787e-05,-4.69009e-06,0
-1.87581e-05,3.40319e-05,-1.0047e-05,-4.13194e-05,-4.41134e-05,-3.17258e-05,2.84149e-05,-5.537e-06,0
-6.50769e-06,4.44668e-05,-9.57141e-06,-0.000114687,-2.18546e-05,-2.9422e-05,2.81136e-05,-4.75879e-06,0
-5.39604e-06,5.22495e-05,-9.84248e-06,-0.000183614,9.26459e-06,-2.62095e-05,2.79869e-05,-4.42168e-06,0
-1.05259e-05,5.61237e-05,-1.0254e-05,-0.000223957,5.00599e-05,-2.20244e-05,2.69031e-05,-4.9696e-06,0
-1.65212e-05,5.44713e-05,-1.28038e-05,-0.000226719,8.51906e-05,-2.123e-05,2.4152e-05,-2.45446e-06,0
-2.08425e-05,4.55895e-05,-1.77955e-05,-0.000195079,8.74651e-05,-2.04796e-05,2.16276e-05,3.07728e-06,0
-2.16117e-05,3.44884e-05,-2.25091e-05,-0.000152885,5.94757e-05,-1.51029e-05,2.041e-05,6.15986e-06,0
-2.36004e-05,2.42822e-05,-2.43644e-05,-0.000127463,3.22596e-05,-9.40422e-06,2.08352e-05,6.56625e-06,0
-2.72603e-05,1.45938e-05,-2.34805e-05,-0.000118693,2.93642e-05,-6.91271e-06,2.10681e-05,7.05535e-06,0
-2.88006e-05,4.29824e-06,-2.18256e-05,-0.000106031,4.41914e-05,-7.29533e-06,1.93285e-05,7.09813e-06,0
-2.73152e-05,-4.4783e-06,-2.23803e-05,-9.18011e-05,5.77047e-05,-8.17908e-06,1.62727e-05,5.85495e-06,0
-2.45997e-05,-6.49041e-06,-2.50441e-05,-8.8483e-05,7.11998e-05,-9.67346e-06,1.47747e-05,3.27265e-06,0
-2.29808e-05,-7.94703e-08,-2.72564e-05,-6.98126e-05,8.25133e-05,-1.07191e-05,1.43462e-05,1.87529e-06,0
-2.34255e-05,1.2425e-05,-2.82053e-05,6.12841e-06,6.9804e-05,-8.25716e-06,1.239e-05,2.61598e-06,0
-2.65909e-05,2.54239e-05,-2.87893e-05,0.000104165,2.3876e-05,-1.47819e-06,1.01398e-05,3.58004e-06,0
-3.20369e-05,3.27928e-05,-2.97793e-05,0.000140046,-2.28254e-05,4.74215e-06,1.02375e-05,2.86063e-06,0
-3.85942e-05,3.25968e-05,-3.12996e-05,9.64638e-05,-3.78723e-05,5.40363e-06,1.15306e-05,2.27039e-06,0
-4.5325e-05,2.89422e-05,-3.1403e-05,3.49204e-05,-2.33348e-05,8.93643e-07,1.19123e-05,3.62261e-06,0
-5.10035e-05,2.64127e-05,-2.91721e-05,-4.9605e-06,-1.34435e-06,-5.20475e-06,1.19238e-05,5.97151e-06,0
-5.32718e-05,2.75487e-05,-2.58368e-05,-3.95366e-05,1.56208e-05,-1.09996e-05,1.1839e-05,6.78387e-06,0
-5.16836e-05,3.22432e-05,-2.12126e-05,-8.13849e-05,2.35819e-05,-1.65542e-05,1.11367e-05,5.58391e-06,0
-4.64322e-05,3.83527e-05,-1.48192e-05,-0.000116758,2.09146e-05,-1.83445e-05,8.75595e-06,5.20651e-06,0
-3.97106e-05,4.25911e-05,-1.0884e-05,-0.000129823,1.17496e-05,-1.7366e-05,6.43201e-06,5.6557e-06,0
-3.42483e-05,4.30185e-05,-1.10566e-05,-9.17761e-05,1.57381e-05,-1.84818e-05,7.07762e-06,6.55119e-06,0
-3.13887e-05,4.31847e-05,-1.19167e-05,8.0993e-06,5.37996e-05,-1.36567e-05,9.64221e-06,7.90593e-06,0
-3.04902e-05,4.47387e-05,-8.65305e-06,0.000124946,9.21702e-05,1.93815e-06,1.1747e-05,7.73382e-06,0
-2.75619e-05,4.9804e-05,-1.68692e-07,0.000174363,5.82645e-05,9.33749e-06,1.34221e-05,7.13434e-06,0
-2.21157e-05,6.19605e-05,7.44363e-06,8.76727e-05,-3.58519e-05,4.49158e-06,1.53145e-05,7.41381e-06,0
-1.50607e-05,7.31832e-05,9.5987e-06,-5.50524e-05,-9.756e-05,-8.3523e-07,1.65336e-05,8.37213e-06,0
-9.09746e-06,7.76686e-05,8.23023e-06,-0.00012905,-9.53178e-05,-6.07462e-06,1.66121e-05,9.15365e-06,0
-3.44789e-06,7.56019e-05,7.21528e-06,-0.000122841,-8.77205e-05,-1.0039e-05,1.77835e-05,7.91558e-06,0
3.7286e-06,6.07794e-05,7.26253e-06,-6.7019e-05,-0.00011169,-8.19377e-06,2.01321e-05,7.69695e-06,0
5.5077e-06,3.81946e-05,8.59098e-06,-7.08822e-07,-0.000139493,-3.37934e-06,2.1432e-05,9.26423e-06,0
9.71787e-07,2.27978e-05,9.13849e-06,4.44117e-05,-0.00014686,5.36767e-07,2.1849e-05,8.75243e-06,0
-6.38763e-06,1.45862e-05,7.34759e-06,5.31496e-05,-0.000124827,3.90485e-07,2.11473e-05,7.52923e-06,0
-1.61546e-05,4.07318e-06,5.60496e-06,3.42812e-05,-7.46437e-05,-3.02214e-06,1.82895e-05,8.47704e-06,0
-2.81174e-05,-1.30435e-05,5.45264e-06,5.57532e-06,-8.96024e-06,-6.09702e-06,1.4822e-05,9.39582e-06,0
-3.98741e-05,-2.94633e-05,4.76899e-06,-7.69213e-06,4.3835e-05,-7.19662e-06,9.8342e-06,9.99156e-06,0
-4.99561e-05,-3.47117e-05,8.96686e-07,3.02409e-06,6.51339e-05,-7.81823e-06,-2.82004e-06,1.05518e-05,0
-5.84962e-05,-2.57774e-05,-4.20808e-06,1.85706e-05,6.41919e-05,-1.12306e-05,-2.33235e-05,1.06067e-05,0
-6.43226e-05,-9.92329e-06,-6.55103e-06,2.61666e-05,5.70738e-05,-1.54542e-05,-3.96921e-05,1.00126e-05,0
-6.38244e-05,3.58586e-06,-3.8162e-06,2.0837e-05,5.00589e-05,-1.75362e-05,-4.05561e-05,8.32709e-06,0
-5.59205e-05,1.41701e-05,9.57196e-07,8.3317e-06,4.31394e-05,-1.699e-05,-2.61067e-05,4.97406e-06,0
-4.34195e-05,2.42972e-05,1.94883e-06,-4.89015e-06,3.93794e-05,-1.5903e-05,-4.94772e-06,1.57873e-06,0
-2.74384e-05,3.64724e-05,-2.67724e-06,-1.00731e-05,3.73117e-05,-1.38248e-05,1.51826e-05,3.42715e-07,0
-4.5431e-06,5.19045e-05,-8.54561e-06,-6.57537e-06,3.26335e-05,-1.18828e-05,3.20098e-05,1.71841e-07,0
2.62987e-05,6.57401e-05,-1.08835e-05,5.73227e-06,2.40414e-05,-1.14139e-05,4.42545e-05,4.9717e-07,0
5.16215e-05,6.94194e-05,-8.39061e-06,2.48637e-05,1.57886e-05,-1.25812e-05,4.98315e-05,7.99691e-07,0
5.95021e-05,6.19722e-05,-3.88781e-06,4.88301e-05,1.3234e-05,-1.4022e-05,4.96181e-05,3.30312e-07,0
5.64325e-05,4.67033e-05,-1.70724e-06,6.73817e-05,1.47374e-05,-1.21225e-05,4.71436e-05,-5.63686e-07,0
4.69092e-05,2.85253e-05,-2.1962e-06,7.43488e-05,1.58651e-05,-3.34658e-06,4.41466e-05,1.37248e-07,0
2.69872e-05,1.38694e-05,-4.24454e-06,7.33232e-05,1.98743e-05,9.12201e-06,4.11282e-05,1.166e-06,0
2.44154e-06,6.80088e-06,-5.35906e-06,6.91753e-05,2.66177e-05,1.79727e-05,3.7839e-05,1.7764e-06,0
-1.75676e-05,4.42841e-06,-4.9677e-06,6.23771e-05,2.67197e-05,1.83241e-05,3.43701e-05,3.27162e-06,0
-3.40673e-05,-2.17813e-06,-6.10723e-06,5.39349e-05,1.72705e-05,9.06776e-06,3.17251e-05,5.30435e-06,0
-6.64696e-05,-1.68899e-05,-8.60204e-06,3.70411e-05,7.83912e-06,-1.13384e-05,2.38774e-05,6.292e-06,0
-0.000114963,-3.6333e-05,-1.10356e-05,-4.42785e-06,4.69158e-06,-3.95828e-05,3.33041e-06,5.53159e-06,0
-0.000151295,-5.53509e-05,-1.47927e-05,-7.06318e-05,8.94376e-06,-5.72245e-05,-1.88989e-05,2.51287e-06,0
-0.000162162,-6.70415e-05,-1.88873e-05,-0.000126377,1.88388e-05,-5.37521e-05,-2.79302e-05,-1.54292e-06,0
-0.00015474,-6.81582e-05,-2.21469e-05,-0.000129661,3.35845e-05,-4.19102e-05,-2.27777e-05,-3.36414e-06,0
-0.000144644,-6.09983e-05,-2.24563e-05,-8.17787e-05,4.53462e-05,-3.62885e-05,-9.75009e-06,-2.26097e-06,0
-0.000134863,-4.75599e-05,-2.03215e-05,-1.47346e-05,4.4557e-05,-3.45975e-05,4.15904e-06,6.96944e-07,0
-0.000104239,-3.08336e-05,-1.76396e-05,4.46883e-05,3.30536e-05,-2.39387e-05,1.77515e-05,3.5638e-06,0
-5.3364e-05,-1.62986e-05,-1.41125e-05,9.21577e-05,2.03611e-05,-5.23456e-06,3.06092e-05,3.33802e-06,0
-1.75598e-05,-1.01965e-05,-1.16739e-05,0.000110939,1.41405e-05,3.92398e-06,4.02974e-05,2.47265e-07,0
-1.19118e-05,-1.14504e-05,-1.22031e-05,0.000108644,1.07143e-05,-8.91434e-07,4.27436e-05,-3.03411e-06,0
-1.51262e-05,-1.13998e-05,-1.38967e-05,0.000117136,8.7812e-06,-5.8073e-06,3.76944e-05,-6.2024e-06,0
-7.32874e-06,-4.02916e-06,-1.27295e-05,0.000130558,1.09443e-05,1.65815e-06,3.01205e-05,-9.08958e-06,0
6.04842e-06,7.69221e-06,-8.88399e-06,0.000111934,2.03523e-05,1.56247e-05,2.47864e-05,-1.14168e-05,0
1.11583e-05,1.65544e-05,-5.38671e-06,6.72695e-05,3.29794e-05,1.7422e-05,2.22038e-05,-1.29538e-05,0
1.67505e-06,1.99123e-05,-5.43755e-06,4.60094e-05,3.82868e-05,-4.99464e-06,2.05742e-05,-1.29076e-05,0
-1.6572e-05,2.17649e-05,-9.59309e-06,5.59299e-05,3.05705e-05,-4.32887e-05,1.77803e-05,-1.09547e-05,0
-3.25126e-05,2.32302e-05,-1.53344e-05,5.53428e-05,2.58385e-05,-7.7624e-05,1.35059e-05,-7.33284e-06,0
-4.1042e-05,1.91294e-05,-1.98575e-05,1.90428e-05,4.80159e-05,-8.89907e-05,1.10178e-05,-3.16936e-06,0
-4.78016e-05,9.75388e-06,-2.1917e-05,-5.33056e-05,9.04951e-05,-6.46113e-05,1.00782e-05,-1.08334e-06,0
-5.44313e-05,3.72931e-06,-2.15517e-05,-0.000152899,0.000116058,-2.60623e-05,1.03871e-05,-1.61252e-06,0
-5.20077e-05,4.34023e-06,-2.0805e-05,-0.000226715,0.000108513,-2.47722e-05,1.10684e-05,-2.48009e-06,0
-3.12893e-05,9.19749e-06,-2.12276e-05,-0.000231137,9.08656e-05,-5.02784e-05,1.07467e-05,-2.81888e-06,0
1.13523e-06,1.5272e-05,-2.19421e-05,-0.000181353,7.68308e-05,-3.03629e-05,8.90322e-06,-2.30165e-06,0
2.65857e-05,1.96062e-05,-2.11396e-05,-0.000114125,6.14162e-05,3.42884e-05,4.87206e-06,-6.04072e-07,0
3.58222e-05,2.71018e-05,-1.86596e-05,-1.91586e-05,3.84264e-05,6.64761e-05,-4.52236e-06,-4.12854e-07,0
2.79384e-05,3.26719e-05,-1.74842e-05,7.9402e-05,1.66819e-05,4.04642e-05,-1.97608e-05,8.89125e-06,0
1.2131e-05,2.55037e-05,-1.77492e-05,0.000119323,1.80948e-05,9.19e-06,-3.2319e-05,3.02538e-05,0
2.4462e-06,1.48865e-05,-1.58371e-05,0.000112544,3.83673e-05,4.02935e-06,-3.53265e-05,4.35298e-05,0
2.80064e-06,4.36192e-06,-1.34369e-05,8.86193e-05,4.89087e-05,1.02581e-05,-2.91941e-05,4.24463e-05,0
-2.53321e-06,-1.12481e-05,-1.1754e-05,7.88873e-05,3.5168e-05,1.24727e-05,-1.93247e-05,2.80705e-05,0
-2.28527e-05,-2.73367e-05,-8.15791e-06,8.47395e-05,6.73542e-06,7.82754e-06,-9.85406e-06,2.27606e-06,0
-4.42268e-05,-3.39369e-05,-2.75178e-06,7.7396e-05,-1.92038e-05,3.14827e-06,-8.81387e-07,-2.64197e-05,0
-5.41668e-05,-2.49142e-05,3.06555e-06,1.51269e-05,-2.74993e-05,3.10316e-06,8.02779e-06,-4.74409e-05,0
-5.10081e-05,-7.71752e-06,7.24512e-06,-9.05408e-05,-1.556e-05,1.16971e-05,1.63455e-05,-5.38274e-05,0
-4.34828e-05,6.31129e-06,6.40919e-06,-0.00015425,2.59424e-06,2.68887e-05,2.31305e-05,-5.01915e-05,0
-3.654e-05,1.19336e-05,2.97043e-06,-0.000142087,1.42705e-05,4.06335e-05,2.71047e-05,-4.28324e-05,0
-3.17636e-05,1.16618e-05,5.73504e-07,-0.000101221,1.40963e-05,4.11188e-05,2.88932e-05,-3.41151e-05,0
-3.07101e-05,9.59729e-06,-5.05149e-07,-8.8856e-05,5.6554e-06,2.66815e-05,3.02598e-05,-2.45209e-05,0
-3.35444e-05,7.25001e-06,1.31223e-06,-0.000109407,-3.56115e-06,1.0897e-05,3.19116e-05,-1.56253e-05,0
-3.71086e-05,4.3637e-06,3.40763e-06,-0.00013487,-5.31791e-06,-1.25331e-06,3.36588e-05,-8.20894e-06,0
-3.72209e-05,9.40085e-07,2.06272e-06,-0.000129889,2.91067e-06,-2.71125e-05,3.46368e-05,-2.38647e-06,0
-3.66702e-05,-1.45707e-06,-2.33598e-06,-8.89922e-05,1.52305e-05,-7.67594e-05,3.44282e-05,2.80687e-06,0
-4.27739e-05,-2.06521e-06,-5.62685e-06,-3.89021e-05,2.29958e-05,-0.000114552,3.38106e-05,8.06451e-06,0
-6.01848e-05,-3.32049e-07,-5.98194e-06,2.2954e-07,2.14004e-05,-0.000101102,3.35174e-05,1.35287e-05,0
-8.17008e-05,4.9875e-06,-4.47942e-06,3.54341e-05,7.42888e-06,-6.47238e-05,3.27086e-05,1.81429e-05,0
-9.33514e-05,1.60519e-05,-3.88254e-06,6.29787e-05,-2.48977e-05,-4.87497e-05,3.03531e-05,1.8455e-05,0
-8.30214e-05,3.67189e-05,-4.83477e-06,6.74052e-05,-6.96988e-05,-2.15317e-05,2.68797e-05,1.25803e-05,0
-5.58316e-05,7.23137e-05,-5.65573e-06,5.1293e-05,-9.95424e-05,3.08324e-05,2.27201e-05,3.53913e-06,0
-3.15186e-05,0.00011725,-7.51748e-06,3.30725e-05,-9.40333e-05,4.56512e-05,1.74724e-05,-3.22746e-06,0
-1.47807e-05,0.000143266,-1.0327e-05,2.46809e-05,-5.80603e-05,2.45284e-05,1.2952e-05,-6.11162e-06,0
1.41102e-05,0.000134526,-1.0187e-05,1.57203e-05,-8.14563e-06,7.45944e-06,1.05164e-05,-4.36276e-06,0
5.27195e-05,9.59674e-05,-7.07234e-06,7.65389e-06,6.30346e-05,-2.7176e-05,9.35586e-06,-2.2475e-06,0
6.47304e-05,4.4005e-05,-5.90404e-06,1.13848e-05,0.000155108,-6.45352e-05,8.08438e-06,-1.87194e-06,0
5.23053e-05,7.78809e-06,-6.67576e-06,8.84452e-06,0.000214471,-7.05815e-05,7.77525e-06,3.19688e-07,0
3.80476e-05,-3.31646e-06,-7.07036e-06,-9.6867e-06,0.000196671,-5.8932e-05,9.19864e-06,7.78041e-06,0
1.96013e-05,-1.33454e-06,-6.45482e-06,-2.89493e-05,0.000116418,-3.52241e-05,9.21047e-06,1.92543e-05,0
-6.4065e-06,-4.15967e-06,-4.22543e-06,-3.71944e-05,2.9883e-05,3.30433e-05,8.07945e-06,2.70886e-05,0
-3.69809e-05,-1.82706e-05,-2.98477e-06,-2.85357e-05,-3.39195e-05,0.000112022,8.5502e-06,2.47449e-05,0
-4.7293e-05,-4.32658e-05,-3.91784e-06,-1.00195e-05,-6.79642e-05,0.00012985,9.16189e-06,1.48165e-05,0
-2.95171e-05,-6.97714e-05,-5.54664e-06,1.25335e-05,-7.42728e-05,0.00010258,9.86974e-06,5.22241e-06,0
-1.03174e-05,-8.79684e-05,-5.62436e-06,2.35418e-05,-6.47866e-05,6.69359e-05,1.14996e-05,-2.30569e-07,0
-1.45816e-05,-9.68262e-05,-3.13579e-06,1.20702e-05,-4.9926e-05,3.5888e-05,1.25917e-05,-3.399e-06,0
-3.65625e-05,-9.73001e-05,-1.66388e-06,-2.54997e-05,-3.39944e-05,9.28504e-06,1.30294e-05,-6.41852e-06,0
-5.77027e-05,-9.21897e-05,-3.89922e-06,-7.94122e-05,-2.08321e-05,-5.87175e-06,1.33015e-05,-7.53475e-06,0
-6.93122e-05,-8.15887e-05,-7.16311e-06,-0.000112963,-1.53533e-05,-5.15181e-06,1.29028e-05,-8.5474e-06,0
-6.69463e-05,-6.34955e-05,-6.28872e-06,-8.72188e-05,-9.29089e-06,6.2197e-06,1.06102e-05,-1.07384e-05,0
-5.20068e-05,-3.56795e-05,-2.2268e-06,-6.00793e-06,3.43455e-06,1.75059e-05,8.02579e-06,-1.1677e-05,0
-3.16363e-05,-6.45933e-06,-5.07646e-07,7.19747e-05,2.13264e-05,1.98867e-05,6.99645e-06,-1.06009e-05,0
-1.75025e-05,1.34619e-05,-2.70268e-06,8.87881e-05,3.58048e-05,1.57663e-05,7.09453e-06,-8.85624e-06,0
-1.18417e-05,1.86277e-05,-5.28879e-06,4.73574e-05,4.28265e-05,1.00327e-05,6.33076e-06,-7.47636e-06,0
-1.2702e-05,5.65849e-06,-5.59983e-06,-7.41621e-06,3.88198e-05,5.65608e-06,4.38061e-06,-6.23754e-06,0
-1.36878e-05,-3.10476e-05,-2.80125e-06,-4.80102e-05,2.78603e-05,6.2906e-08,3.33849e-06,-4.07975e-06,0
-1.34433e-05,-6.50701e-05,-2.66071e-07,-6.31327e-05,1.53754e-05,-1.06141e-05,5.34493e-06,-1.23038e-06,0
-1.50387e-05,-5.31079e-05,-1.4079e-06,-4.64136e-05,1.01003e-06,-2.57525e-05,9.0068e-06,1.93832e-06,0
-2.18765e-05,-4.78835e-06,-4.7377e-06,-1.43098e-05,-1.50143e-05,-3.1389e-05,1.13738e-05,4.94184e-06,0
-3.44401e-05,3.4797e-05,-6.38959e-06,3.70262e-06,-2.42227e-05,-2.54015e-05,1.26311e-05,5.85092e-06,0
-5.3845e-05,4.62826e-05,-4.56619e-06,4.03309e-06,-2.12197e-05,-2.18224e-05,1.019e-05,3.751e-06,0
-7.24228e-05,4.36906e-05,-2.85984e-06,7.57633e-06,-1.08289e-05,-2.52429e-05,4.91148e-06,1.55363e-06,0
-7.92154e-05,4.27335e-05,-2.43585e-06,3.0763e-05,7.64363e-08,-2.84973e-05,2.5756e-06,2.84085e-06,0
-8.33223e-05,4.36612e-05,-4.78434e-06,4.72896e-05,-2.07304e-06,-3.12342e-05,2.74175e-06,4.78483e-06,0
-9.2957e-05,4.91903e-05,-1.15896e-05,2.6688e-05,-2.14139e-05,-3.41602e-05,1.15106e-06,4.37035e-06,0
-9.09843e-05,6.22614e-05,-1.49236e-05,-1.53714e-05,-3.61223e-05,-2.9478e-05,-1.97738e-07,3.13064e-06,0
-7.32731e-05,6.87502e-05,-1.19347e-05,-4.12095e-05,-2.85348e-05,-1.94753e-05,2.52553e-06,3.01338e-06,0
-6.5322e-05,5.64891e-05,-7.5595e-06,-3.05159e-05,-6.1941e-06,-1.92131e-05,6.00072e-06,4.50199e-06,0
-7.32254e-05,3.32375e-05,-4.28428e-06,2.17566e-05,1.61327e-05,-2.91641e-05,1.02835e-05,5.23662e-06,0
-8.12069e-05,1.33529e-05,-3.09793e-06,9.41933e-05,2.98161e-05,-3.53487e-05,1.50104e-05,3.72048e-06,0
-7.28301e-05,4.32862e-06,-3.2147e-06,0.000129649,3.28255e-05,-2.66716e-05,1.76536e-05,2.76169e-06,0
-4.31631e-05,5.32158e-06,-3.39279e-06,0.000104135,2.79988e-05,-8.02531e-06,1.85151e-05,3.92413e-06,0
-5.96927e-06,7.37929e-06,-3.31224e-06,4.86007e-05,2.25322e-05,6.44997e-06,1.8947e-05,5.14971e-06,0
1.61188e-05,5.88361e-06,-4.29618e-06,6.68815e-06,1.94236e-05,9.83136e-06,1.9514e-05,5.86462e-06,0
1.71029e-05,6.70373e-06,-7.38018e-06,-5.93328e-06,1.92851e-05,3.8304e-06,1.97473e-05,6.29753e-06,0
1.11005e-05,1.61044e-05,-1.20835e-05,-1.93028e-06,2.1773e-05,-9.51806e-06,1.97312e-05,6.36645e-06,0
1.14375e-05,3.11224e-05,-1.48225e-05,1.21525e-06,2.78783e-05,-3.0615e-05,1.98666e-05,6.52202e-06,0
1.65199e-05,4.41845e-05,-1.49219e-05,-3.53567e-06,3.36141e-05,-5.26153e-05,2.16505e-05,6.5722e-06,0
1.25522e-05,5.0588e-05,-1.45252e-05,-1.1962e-05,2.95347e-05,-6.78181e-05,2.3199e-05,5.85241e-06,0
-6.54979e-06,5.0496e-05,-1.64883e-05,-1.978e-05,1.11254e-05,-7.25907e-05,2.23793e-05,4.85754e-06,0
-2.73543e-05,4.55039e-05,-2.13168e-05,-3.1603e-05,-1.58656e-05,-6.42459e-05,1.89778e-05,5.92557e-06,0
-3.65408e-05,3.89767e-05,-2.56021e-05,-5.03985e-05,-3.92847e-05,-4.79478e-05,1.62731e-05,8.59461e-06,0
-3.68569e-05,3.32043e-05,-2.86668e-05,-6.10395e-05,-4.51497e-05,-3.69551e-05,1.52289e-05,9.50881e-06,0
-3.81315e-05,2.82583e-05,-3.17106e-05,-5.28739e-05,-3.13379e-05,-3.47317e-05,1.38668e-05,9.10928e-06,0
-4.43147e-05,2.40873e-05,-3.2725e-05,-3.44923e-05,-3.38798e-06,-3.88099e-05,1.12833e-05,1.00128e-05,0
-5.06505e-05,2.00451e-05,-3.02741e-05,-1.66372e-05,4.84628e-05,-4.44665e-05,8.07908e-06,1.02986e-05,0
-4.90729e-05,1.53838e-05,-2.72682e-05,-6.11157e-07,0.000114633,-4.77935e-05,6.34228e-06,8.03314e-06,0
-3.33911e-05,1.21788e-05,-2.56784e-05,1.52279e-05,0.000138367,-4.69171e-05,6.94632e-06,5.75073e-06,0
-1.11903e-05,1.31989e-05,-2.49402e-05,2.53298e-05,9.51344e-05,-4.00646e-05,8.17884e-06,3.58603e-06,0
2.61047e-06,1.69158e-05,-2.35307e-05,4.44385e-05,2.59723e-05,-2.98635e-05,8.25984e-06,1.78283e-06,0
2.11343e-06,1.89121e-05,-2.04082e-05,7.26167e-05,-5.47819e-06,-2.11877e-05,8.19853e-06,3.3346e-06,0
-8.89319e-06,2.07172e-05,-1.46421e-05,7.65324e-05,5.10341e-06,-1.4968e-05,8.74908e-06,6.07363e-06,0
-2.10779e-05,2.44224e-05,-8.18085e-06,5.48935e-05,7.52361e-06,-1.00011e-05,8.96728e-06,7.19508e-06,0
-3.06398e-05,2.52445e-05,-5.62236e-06,4.33806e-05,-9.65227e-06,-6.07296e-06,8.1393e-06,6.93923e-06,0
-3.62193e-05,2.06168e-05,-6.44519e-06,5.56416e-05,-3.90222e-05,-2.43401e-06,7.27905e-06,7.09713e-06,0
-3.68925e-05,1.31007e-05,-5.76242e-06,5.4253e-05,-6.00942e-05,-8.95697e-07,6.80537e-06,7.58135e-06,0
-3.62842e-05,6.26255e-06,-2.85599e-06,2.94026e-05,-5.16613e-05,-8.6588e-07,5.80347e-06,7.00523e-06,0
-3.90164e-05,-1.25325e-06,-9.94656e-07,1.42428e-05,-2.06863e-05,-2.48575e-06,4.14748e-06,5.62226e-06,0
-4.16775e-05,-8.87983e-06,-1.08629e-06,2.15383e-05,-7.1662e-06,-4.61716e-06,4.24302e-06,4.08597e-06,0
-3.83393e-05,-1.00893e-05,-7.12913e-07,2.89141e-05,-2.09865e-05,-3.56799e-06,6.3899e-06,2.90288e-06,0
-3.06876e-05,-3.06273e-06,-8.95823e-08,2.3799e-05,-2.95716e-05,1.72931e-06,9.12218e-06,1.61564e-06,0
-2.3872e-05,6.45931e-06,-4.42635e-07,1.34469e-05,-2.65275e-05,6.14952e-06,1.11244e-05,1.3403e-07,0
-2.04626e-05,1.39749e-05,-8.81507e-07,2.02393e-06,-2.54262e-05,5.69194e-06,1.16653e-05,-8.63087e-07,0
-1.94052e-05,1.82921e-05,5.89572e-07,-1.45651e-05,-3.43253e-05,2.26399e-06,1.14628e-05,-1.45221e-06,0
-1.83963e-05,2.05534e-05,2.85565e-06,-4.01284e-05,-4.43101e-05,-3.9699e-07,1.1912e-05,-2.42476e-06,0
-1.52024e-05,2.19515e-05,4.55584e-06,-6.13647e-05,-4.77838e-05,-1.50313e-07,1.38042e-05,-4.20983e-06,0
-1.0309e-05,2.36478e-05,6.72345e-06,-6.60398e-05,-4.6948e-05,1.20335e-06,1.58377e-05,-5.17717e-06,0
-6.65177e-06,2.73352e-05,8.96427e-06,-5.1418e-05,-4.6873e-05,9.79334e-07,1.67715e-05,-4.21159e-06,0
-7.02858e-06,3.18582e-05,1.05565e-05,-2.45753e-05,-4.17392e-05,-1.79676e-06,1.60782e-05,-3.16442e-06,0
-9.32588e-06,3.36373e-05,1.14598e-05,-7.31433e-06,-4.1397e-05,-3.95751e-06,1.4242e-05,-1.85548e-06,0
-1.20354e-05,3.24694e-05,1.2579e-05,-2.04476e-05,-7.12909e-05,-3.01095e-06,1.24342e-05,-8.88222e-07,0
-1.54481e-05,3.10443e-05,1.3097e-05,-5.42513e-05,-0.000107437,-9.02468e-07,1.1943e-05,-1.63632e-06,0
-2.00174e-05,2.84012e-05,9.52172e-06,-8.84784e-05,-8.24256e-05,-1.08795e-06,1.3261e-05,-2.28303e-06,0
