ch1,ch2,ch3,ch4,ch5,ch6,ch7,ch8,class
-3.14265e-05,2.10165e-06,-1.8303e-05,-8.99127e-06,1.52182e-05,-2.28843e-05,-4.96426e-06,2.51741e-06,0
-3.05344e-05,2.79965e-06,-1.23213e-05,-2.00654e-05,1.52948e-05,-2.30858e-05,-4.64597e-06,3.20191e-06,0
-2.97333e-05,5.52313e-06,-8.35663e-06,-2.82878e-05,1.66069e-05,-2.26597e-05,-2.64321e-06,3.34871e-06,0
-2.92044e-05,9.42715e-06,-8.1054e-06,-2.47324e-05,1.76453e-05,-2.34299e-05,2.44498e-06,3.07069e-06,0
-2.78646e-05,1.05026e-05,-6.94626e-06,-1.45761e-05,1.89236e-05,-2.40267e-05,6.49098e-06,4.73639e-06,0
-2.54382e-05,1.00932e-05,-3.82056e-06,-6.01468e-06,1.94465e-05,-2.37149e-05,8.0788e-06,4.89706e-06,0
-2.42596e-05,9.84881e-06,-1.73482e-06,-9.01568e-07,1.96306e-05,-2.41203e-05,8.30558e-06,2.88772e-06,0
-2.38162e-05,8.88231e-06,-2.62697e-06,2.19779e-06,2.05512e-05,-2.33292e-05,8.32473e-06,1.46622e-06,0
-2.26676e-05,7.25873e-06,-4.09325e-06,3.90809e-06,2.15899e-05,-2.08713e-05,8.58754e-06,9.33753e-07,0
-2.29366e-05,8.6481e-06,-4.14584e-06,3.90172e-06,2.37273e-05,-1.90737e-05,9.06489e-06,1.929e-06,0
-2.3071e-05,1.18525e-05,-3.10955e-06,2.28854e-06,2.45921e-05,-1.7597e-05,8.92743e-06,2.91527e-06,0
-2.28051e-05,1.27659e-05,-1.61445e-06,1.12526e-06,2.5537e-05,-1.48658e-05,9.17888e-06,3.18617e-06,0
-2.38927e-05,1.10006e-05,-7.59006e-07,1.92842e-06,2.77762e-05,-1.10615e-05,9.96477e-06,3.03175e-06,0
-2.54099e-05,9.49966e-06,-5.8317e-07,3.60896e-06,2.93501e-05,-8.6363e-06,1.18001e-05,2.53972e-06,0
-2.53376e-05,1.0375e-05,-3.09455e-07,4.68084e-06,2.90602e-05,-7.5984e-06,1.32581e-05,2.26259e-06,0
-2.56855e-05,1.27937e-05,1.6503e-08,4.72473e-06,2.79008e-05,-6.56893e-06,1.24694e-05,2.40334e-06,0
-2.77794e-05,1.43126e-05,-5.05382e-07,4.06481e-06,2.66839e-05,-6.30567e-06,1.10563e-05,2.16156e-06,0
-2.95345e-05,1.40481e-05,-1.66171e-06,3.38974e-06,2.58661e-05,-8.88992e-06,1.11086e-05,1.20536e-06,0
-3.03299e-05,1.29146e-05,-3.12943e-06,3.48818e-06,2.63009e-05,-1.25561e-05,1.34059e-05,7.33648e-07,0
-3.03539e-05,1.11285e-05,-4.58304e-06,2.76242e-06,2.64994e-05,-1.42836e-05,1.74472e-05,1.56461e-06,0
-3.03566e-05,8.16638e-06,-5.18133e-06,9.74201e-07,2.59138e-05,-1.38938e-05,2.21613e-05,2.90509e-06,0
-2.90188e-05,4.8499e-06,-4.67159e-06,-4.06423e-07,2.51747e-05,-1.30311e-05,2.58257e-05,3.44027e-06,0
-2.69642e-05,3.62991e-06,-3.97388e-06,-5.21641e-07,2.44344e-05,-1.39284e-05,2.72432e-05,3.83281e-06,0
-2.58987e-05,4.92909e-06,-3.0289e-06,2.62528e-07,2.38453e-05,-1.71394e-05,2.6658e-05,4.7467e-06,0
-2.53781e-05,7.66076e-06,-1.89963e-06,2.65209e-06,2.46094e-05,-1.86596e-05,2.60012e-05,5.44005e-06,0
-2.59268e-05,1.09045e-05,-1.75001e-07,6.47517e-06,2.52482e-05,-1.56185e-05,2.54181e-05,5.05835e-06,0
-2.71741e-05,1.1689e-05,9.54001e-08,8.57485e-06,2.40229e-05,-1.31042e-05,2.24182e-05,4.24269e-06,0
-2.72091e-05,9.41511e-06,-8.2447e-07,8.10381e-06,2.16007e-05,-1.27845e-05,1.48066e-05,4.1568e-06,0
-2.71739e-05,8.25672e-06,-2.07965e-06,5.80739e-06,1.86292e-05,-1.34172e-05,8.95226e-07,3.68251e-06,0
-2.86572e-05,9.78395e-06,-2.69909e-06,3.47555e-06,1.53936e-05,-1.29488e-05,-1.3984e-05,1.68726e-06,0
-2.95239e-05,1.35596e-05,-8.50573e-07,3.04829e-06,1.14051e-05,-1.2467e-05,-2.07007e-05,-6.26237e-07,0
-2.77803e-05,1.72232e-05,1.57564e-06,2.32461e-06,8.28289e-06,-1.39399e-05,-1.89582e-05,-1.26358e-06,0
-2.67662e-05,1.97688e-05,2.95275e-06,-2.10724e-06,7.62972e-06,-1.44407e-05,-1.25313e-05,-1.55566e-07,0
-2.7289e-05,1.92957e-05,1.762e-07,-8.78541e-06,6.20882e-06,-1.50932e-05,-4.89219e-06,7.90007e-07,0
-2.89383e-05,1.28721e-05,-3.19711e-06,-1.49795e-05,3.02811e-06,-1.52024e-05,2.76334e-06,-8.86918e-07,0
-3.0262e-05,1.7484e-06,-3.60229e-06,-1.91821e-05,-3.14413e-07,-1.50557e-05,8.72113e-06,-4.37752e-06,0
-3.14537e-05,-8.96415e-06,-2.97062e-06,-1.98916e-05,-1.90344e-06,-1.45793e-05,1.32739e-05,-5.38381e-06,0
-3.36558e-05,-1.38118e-05,-1.5399e-06,-1.79092e-05,-8.61851e-07,-1.29994e-05,1.8086e-05,-3.4208e-06,0
-3.38358e-05,-1.25841e-05,-4.82516e-07,-1.66027e-05,2.35086e-06,-1.14069e-05,2.29548e-05,-4.78154e-07,0
-3.26926e-05,-8.58303e-06,-9.72793e-07,-1.62792e-05,5.75822e-06,-9.54356e-06,2.59164e-05,1.42692e-06,0
-3.1782e-05,-4.37963e-06,-3.23493e-06,-1.7184e-05,6.46214e-06,-7.2185e-06,2.61415e-05,2.08327e-06,0
-3.203e-05,-1.18912e-06,-6.34345e-06,-1.93038e-05,5.7179e-06,-4.6648e-06,2.57124e-05,2.26446e-06,0
-3.25039e-05,7.28732e-07,-9.47594e-06,-2.05318e-05,5.19185e-06,-3.10707e-06,2.50802e-05,1.87249e-06,0
-3.32226e-05,2.03475e-06,-1.23027e-05,-1.94955e-05,5.45205e-06,-2.76929e-06,2.67389e-05,1.90151e-07,0
-3.44685e-05,2.82034e-06,-1.52957e-05,-1.57901e-05,5.90433e-06,-4.15194e-06,3.1406e-05,-2.17338e-06,0
-3.56905e-05,3.54654e-06,-1.85439e-05,-1.00292e-05,5.0906e-06,-6.13374e-06,3.61033e-05,-3.676e-06,0
-3.66175e-05,4.33355e-06,-2.13931e-05,-4.28601e-06,2.22659e-06,-7.95409e-06,3.7721e-05,-4.76465e-06,0
-3.70206e-05,3.77189e-06,-2.35254e-05,-2.68745e-06,-6.70986e-07,-8.96289e-06,3.6697e-05,-5.33269e-06,0
-3.66036e-05,3.63521e-07,-2.5524e-05,-5.59287e-06,-2.57682e-06,-9.28231e-06,3.50877e-05,-4.96443e-06,0
-3.68155e-05,-4.17378e-06,-2.7001e-05,-8.30488e-06,-3.67254e-06,-9.64448e-06,3.3513e-05,-4.84841e-06,0
-3.75552e-05,-7.208e-06,-2.6663e-05,-7.17044e-06,-3.8725e-06,-9.89689e-06,3.14867e-05,-5.12931e-06,0
-3.63932e-05,-7.84242e-06,-2.42758e-05,-3.99357e-06,-2.44318e-06,-9.13382e-06,2.91174e-05,-4.29062e-06,0
-3.46992e-05,-6.2414e-06,-2.02713e-05,-2.48509e-06,1.36133e-06,-7.28211e-06,2.57342e-05,-2.15352e-06,0
-3.33017e-05,-4.03608e-06,-1.76871e-05,-4.16832e-06,3.7261e-06,-6.27599e-06,2.23968e-05,-3.12358e-07,0
-3.19901e-05,-4.01292e-06,-1.72755e-05,-5.5692e-06,2.77619e-06,-6.75123e-06,2.03326e-05,2.46812e-07,0
-3.18089e-05,-5.84894e-06,-1.70245e-05,-5.51276e-06,5.35634e-07,-6.98825e-06,1.84801e-05,-6.91915e-07,0
-3.27488e-05,-3.17005e-06,-1.4791e-05,-5.69343e-06,5.65809e-07,-5.3491e-06,1.69667e-05,-3.35786e-06,0
-3.29808e-05,4.53729e-06,-1.14134e-05,-6.08963e-06,1.80041e-06,-3.96481e-06,1.64361e-05,-5.77194e-06,0
-3.19842e-05,1.12311e-05,-9.29114e-06,-7.85117e-06,2.54064e-06,-4.58977e-06,1.53942e-05,-5.15437e-06,0
-3.15243e-05,1.47968e-05,-7.40376e-06,-1.00992e-05,6.83249e-06,-5.44676e-06,1.45047e-05,-1.43581e-06,0
-3.19401e-05,1.55006e-05,-5.86515e-06,-8.85917e-06,1.31793e-05,-5.73852e-06,1.41711e-05,8.96483e-07,0
-3.22753e-05,1.45608e-05,-5.52247e-06,-5.79392e-06,1.61129e-05,-6.45261e-06,1.32772e-05,1.13774e-06,0
-3.25182e-05,1.36062e-05,-5.65322e-06,-3.93549e-06,1.48715e-05,-6.4378e-06,1.31452e-05,5.84671e-07,0
-3.34219e-05,1.4138e-05,-5.51501e-06,-2.87487e-06,1.23781e-05,-6.25225e-06,1.34213e-05,9.67768e-07,0
-3.4061e-05,1.40796e-05,-4.35171e-06,-4.38495e-06,1.0556e-05,-7.61424e-06,1.47615e-05,1.79553e-06,0
-3.34965e-05,1.38025e-05,-2.69536e-06,-6.79245e-06,8.15481e-06,-8.51516e-06,1.45705e-05,1.42454e-06,0
-3.36685e-05,1.4877e-05,-1.7752e-06,-9.11862e-06,4.94564e-06,-8.03384e-06,1.16286e-05,2.54827e-07,0
-3.40658e-05,1.61255e-05,-1.27434e-06,-1.25591e-05,3.21054e-06,-8.57267e-06,7.39189e-06,-2.12565e-06,0
-3.34371e-05,1.67965e-05,-1.50836e-06,-1.60027e-05,4.15113e-06,-1.01234e-05,5.0573e-06,-4.31711e-06,0
-3.23218e-05,1.78302e-05,-1.76927e-06,-1.71596e-05,6.53109e-06,-1.0376e-05,5.41375e-06,-4.90528e-06,0
-3.1762e-05,2.00166e-05,-7.29234e-07,-1.57986e-05,7.74292e-06,-9.66969e-06,6.75685e-06,-3.64142e-06,0
-3.14126e-05,2.03593e-05,3.74652e-07,-1.23845e-05,8.25225e-06,-9.91496e-06,8.89003e-06,-4.19259e-06,0
-3.10526e-05,1.87221e-05,1.12269e-06,-8.79146e-06,1.09624e-05,-1.04614e-05,1.17141e-05,-6.67091e-06,0
-3.07369e-05,1.86573e-05,1.52746e-06,-6.95269e-06,1.58936e-05,-1.07415e-05,1.43581e-05,-7.85172e-06,0
-2.96338e-05,2.00779e-05,2.22267e-07,-4.99861e-06,2.08374e-05,-1.12906e-05,1.5392e-05,-6.38671e-06,0
-2.8518e-05,1.93718e-05,-2.39994e-06,-2.03107e-06,2.44252e-05,-1.14392e-05,1.68502e-05,-4.16681e-06,0
-2.82447e-05,1.66745e-05,-4.10755e-06,-3.00059e-07,2.63591e-05,-1.08875e-05,2.11013e-05,-3.18278e-06,0
-2.84358e-05,1.40545e-05,-4.98834e-06,-2.24508e-06,2.53789e-05,-1.04824e-05,2.71009e-05,-4.04315e-06,0
-2.81697e-05,1.39679e-05,-7.04925e-06,-4.91676e-06,2.20669e-05,-1.07469e-05,3.04083e-05,-3.65423e-06,0
-2.84813e-05,1.50513e-05,-1.02154e-05,-1.86887e-06,1.96632e-05,-9.90102e-06,3.25947e-05,-1.1356e-06,0
-2.93187e-05,1.53625e-05,-1.27519e-05,6.57377e-06,2.11297e-05,-6.70523e-06,3.68933e-05,3.48849e-07,0
-2.89755e-05,1.61025e-05,-1.32123e-05,1.62158e-05,2.51856e-05,-4.77304e-06,3.99446e-05,-1.30388e-06,0
-2.83718e-05,1.6692e-05,-1.09479e-05,2.22509e-05,2.81091e-05,-6.58019e-06,3.48988e-05,-3.37147e-06,0
-2.81013e-05,1.52496e-05,-6.98259e-06,1.92351e-05,2.79084e-05,-8.31173e-06,2.35927e-05,-2.1322e-06,0
-2.77318e-05,1.43622e-05,-4.9073e-06,8.82346e-06,2.52381e-05,-7.76926e-06,1.25174e-05,-1.44388e-06,0
-2.7934e-05,1.58718e-05,-4.69856e-06,-9.77941e-07,2.25198e-05,-6.83475e-06,1.3451e-06,-1.07942e-06,0
-2.92351e-05,1.9197e-05,-2.6948e-06,-3.70756e-06,2.1021e-05,-6.47373e-06,-1.01792e-05,-7.41277e-07,0
-3.11808e-05,2.51834e-05,-9.39489e-07,-1.54806e-06,2.16125e-05,-6.13055e-06,-1.84779e-05,5.49378e-07,0
-3.22174e-05,3.44519e-05,-8.10812e-07,-1.03607e-06,2.09996e-05,-6.77465e-06,-2.05724e-05,1.13632e-06,0
-3.17823e-05,4.43088e-05,-2.24002e-06,-4.04361e-06,2.10481e-05,-8.02533e-06,-1.80358e-05,-7.4798e-07,0
-3.07534e-05,5.03549e-05,-7.38901e-06,-4.67519e-06,2.28079e-05,-7.52063e-06,-1.35827e-05,-2.09487e-06,0
-3.01005e-05,5.0302e-05,-1.56553e-05,-2.63186e-06,2.19785e-05,-5.90163e-06,-7.7116e-06,-1.65472e-06,0
-2.96938e-05,4.29581e-05,-2.32603e-05,-9.94327e-07,1.92395e-05,-5.53719e-06,-2.0538e-06,2.95658e-07,0
-2.92964e-05,3.28197e-05,-2.7983e-05,-2.18912e-07,1.73887e-05,-7.35848e-06,1.22806e-06,1.38839e-06,0
-2.81247e-05,2.21426e-05,-2.89238e-05,-1.17159e-07,1.69642e-05,-8.83663e-06,3.96427e-06,8.72154e-07,0
-2.68099e-05,1.05886e-05,-2.46257e-05,-4.75894e-07,1.53426e-05,-7.23115e-06,7.28002e-06,-1.32201e-06,0
-2.75145e-05,-6.24284e-07,-1.69579e-05,-1.90094e-06,1.281e-05,-4.32847e-06,1.01876e-05,-3.27039e-06,0
-3.00013e-05,-6.87792e-06,-9.51114e-06,-3.09527e-06,9.96402e-06,-3.54249e-06,1.17762e-05,-4.45661e-06,0
-3.17887e-05,-5.18806e-06,-6.21701e-06,-2.82893e-06,8.01929e-06,-4.66666e-06,1.18272e-05,-4.82809e-06,0
-3.11627e-05,1.44069e-06,-6.87132e-06,-2.64709e-06,8.2828e-06,-4.17612e-06,1.16321e-05,-3.41491e-06,0
-2.91133e-05,1.12998e-05,-8.15726e-06,-6.10765e-06,1.09993e-05,-1.85627e-06,1.16016e-05,-8.67406e-07,0
-2.70231e-05,2.61227e-05,-8.24449e-06,-1.10865e-05,1.34856e-05,-8.98771e-07,1.14146e-05,6.1569e-07,0
-2.57773e-05,4.21985e-05,-8.08866e-06,-1.31192e-05,1.3986e-05,-3.18905e-06,1.18088e-05,1.65573e-07,0
-2.48587e-05,5.0268e-05,-8.36393e-06,-1.21354e-05,1.24602e-05,-5.60761e-06,1.2451e-05,-2.13307e-07,0
-2.43082e-05,4.9578e-05,-8.44146e-06,-9.29683e-06,1.06805e-05,-4.7766e-06,1.27486e-05,6.30428e-07,0
-2.44003e-05,4.39382e-05,-9.5743e-06,-4.99173e-06,1.10534e-05,-4.22904e-06,1.37318e-05,1.66571e-06,0
-2.47804e-05,3.32365e-05,-1.13598e-05,-1.45099e-06,1.13978e-05,-6.02432e-06,1.44451e-05,1.09882e-06,0
-2.63623e-05,1.92151e-05,-1.47779e-05,2.52011e-06,9.62759e-06,-6.89945e-06,1.24701e-05,-1.36101e-06,0
-2.76927e-05,6.39359e-06,-2.02764e-05,7.8897e-06,5.94245e-06,-5.67935e-06,2.86289e-06,-3.42542e-06,0
-2.90637e-05,-5.73453e-06,-2.52168e-05,1.12763e-05,2.2074e-06,-3.78214e-06,-1.76728e-05,-1.55081e-06,0
-3.14635e-05,-1.65315e-05,-2.63123e-05,8.34307e-06,5.01652e-07,-2.92712e-06,-3.32279e-05,1.13345e-06,0
-3.38752e-05,-2.52523e-05,-2.42591e-05,2.3577e-06,1.56407e-06,-3.99409e-06,-2.95855e-05,7.61567e-07,0
-3.57306e-05,-3.05148e-05,-2.34446e-05,-1.6809e-06,3.67789e-06,-6.46698e-06,-1.2468e-05,-4.7005e-07,0
-3.60296e-05,-2.8706e-05,-2.27432e-05,-3.89233e-06,6.56472e-06,-8.41152e-06,8.72273e-06,-1.65601e-06,0
-3.58794e-05,-2.05736e-05,-1.92837e-05,-8.77975e-06,8.80521e-06,-8.38452e-06,2.78593e-05,-1.08584e-06,0
-3.50811e-05,-1.20521e-05,-1.26829e-05,-2.02538e-05,8.06725e-06,-8.09748e-06,4.39515e-05,2.43435e-06,0
-3.36756e-05,-8.60341e-06,-5.46675e-06,-3.04211e-05,5.72671e-06,-7.74446e-06,5.46059e-05,7.40295e-06,0
-3.32069e-05,-3.13265e-06,1.86384e-06,-3.05035e-05,5.20394e-06,-9.17367e-06,5.8594e-05,9.86165e-06,0
-3.36331e-05,9.92452e-06,1.21164e-05,-2.36252e-05,4.42793e-06,-1.1189e-05,5.5934e-05,9.16514e-06,0
-3.24304e-05,2.79346e-05,2.5291e-05,-1.49632e-05,1.23903e-06,-1.10047e-05,4.92468e-05,8.14941e-06,0
-2.99466e-05,4.39313e-05,3.76492e-05,-6.43651e-06,-6.55559e-07,-9.77909e-06,4.27593e-05,7.43453e-06,0
-2.87232e-05,4.9702e-05,4.39972e-05,-1.18141e-06,-1.00226e-06,-9.70526e-06,3.84606e-05,7.55465e-06,0
-2.88193e-05,4.35302e-05,3.99329e-05,1.10082e-06,-6.0064e-07,-1.21728e-05,3.5035e-05,7.64534e-06,0
-2.96528e-05,2.74165e-05,2.43475e-05,3.05513e-06,8.04351e-07,-1.4714e-05,3.11148e-05,8.01262e-06,0
-3.13983e-05,5.14153e-06,1.71122e-06,4.92983e-06,1.39737e-06,-1.42494e-05,2.93331e-05,9.9203e-06,0
-3.39193e-05,-1.80214e-05,-2.0921e-05,2.79821e-06,-9.92127e-08,-9.69006e-06,3.03628e-05,1.19199e-05,0
-3.61529e-05,-3.45392e-05,-3.80529e-05,-3.41208e-06,-2.18079e-06,-4.82764e-06,3.15905e-05,1.16649e-05,0
-3.73701e-05,-3.82766e-05,-4.66933e-05,-1.05539e-05,-3.07222e-06,-3.98928e-06,3.023e-05,1.0958e-05,0
-3.73259e-05,-2.88278e-05,-4.68909e-05,-1.67581e-05,-2.2524e-06,-6.92113e-06,2.62554e-05,1.19336e-05,0
-3.72922e-05,-1.44335e-05,-4.18104e-05,-1.94814e-05,6.29874e-07,-9.46882e-06,2.02442e-05,1.28398e-05,0
-3.69104e-05,-4.11245e-06,-3.42398e-05,-1.79717e-05,5.25584e-06,-1.01198e-05,1.46113e-05,1.17672e-05,0
-3.6319e-05,1.42412e-06,-2.73302e-05,-1.58724e-05,1.02838e-05,-9.64354e-06,9.51816e-06,1.01938e-05,0
-3.56538e-05,7.03036e-06,-2.20886e-05,-1.62766e-05,1.30909e-05,-9.54316e-06,5.19199e-06,8.57653e-06,0
-3.42137e-05,1.43584e-05,-1.64692e-05,-1.7738e-05,1.3328e-05,-9.98796e-06,3.48298e-06,6.93524e-06,0
-3.24542e-05,1.94921e-05,-9.33939e-06,-1.63139e-05,1.25446e-05,-1.06794e-05,2.26808e-06,3.8743e-06,0
-3.08578e-05,2.03608e-05,-4.66012e-06,-1.2076e-05,1.18776e-05,-1.18372e-05,-7.10392e-07,-1.07118e-06,0
-3.00549e-05,1.80754e-05,-3.74453e-06,-5.86029e-06,1.3721e-05,-1.28013e-05,-4.39838e-06,-3.3711e-06,0
-2.89837e-05,1.59537e-05,-4.04561e-06,2.60963e-06,1.62492e-05,-1.38136e-05,-7.34164e-06,-3.08336e-06,0
-2.77678e-05,1.68734e-05,-4.55106e-06,1.35221e-05,1.63976e-05,-1.47488e-05,-7.63813e-06,-2.85626e-06,0
-2.72201e-05,1.78532e-05,-4.00837e-06,2.38898e-05,1.59586e-05,-1.47744e-05,-5.28662e-06,-2.13492e-06,0
-2.58971e-05,1.72442e-05,-3.34749e-06,2.81337e-05,1.73669e-05,-1.39217e-05,-1.47604e-06,-3.28669e-07,0
-2.53088e-05,1.46499e-05,-4.05296e-06,2.5264e-05,1.84762e-05,-1.31998e-05,1.92962e-06,1.83216e-06,0
-2.68972e-05,1.18659e-05,-5.41145e-06,1.81496e-05,1.70882e-05,-1.22223e-05,3.9255e-06,2.10604e-06,0
-2.92327e-05,1.06619e-05,-4.88168e-06,1.0294e-05,1.50594e-05,-1.14846e-05,4.39854e-06,1.92886e-06,0
-3.08706e-05,9.96008e-06,-2.55713e-06,1.88161e-06,1.20766e-05,-1.10374e-05,4.03562e-06,4.14278e-06,0
-3.15876e-05,1.25091e-05,-7.20468e-08,-4.31411e-06,9.44494e-06,-1.1358e-05,3.87875e-06,5.31987e-06,0
-3.12111e-05,2.26486e-05,8.58166e-07,-9.53924e-06,8.15753e-06,-1.18762e-05,4.52358e-06,4.48939e-06,0
-3.01167e-05,3.77008e-05,3.34152e-07,-1.55946e-05,6.60813e-06,-1.19683e-05,5.6713e-06,3.02731e-06,0
-2.94042e-05,4.74978e-05,-1.37619e-06,-2.04804e-05,4.58599e-06,-1.30234e-05,6.37611e-06,2.79366e-06,0
-2.91902e-05,4.68069e-05,-3.99684e-06,-2.13507e-05,3.88407e-06,-1.50692e-05,6.78246e-06,3.72754e-06,0
-2.8958e-05,3.7152e-05,-6.41898e-06,-1.80049e-05,7.41937e-06,-1.67696e-05,6.11886e-06,4.10217e-06,0
-2.84756e-05,2.50654e-05,-7.8064e-06,-1.37894e-05,1.3335e-05,-1.64251e-05,5.34789e-06,4.36428e-06,0
-2.84278e-05,1.41538e-05,-7.24399e-06,-1.13769e-05,1.79718e-05,-1.38674e-05,4.51612e-06,4.69444e-06,0
-2.86219e-05,5.56573e-06,-5.65829e-06,-1.27623e-05,2.03208e-05,-1.08494e-05,3.51819e-06,4.19804e-06,0
-2.89065e-05,-9.11928e-07,-3.95658e-06,-1.7652e-05,2.08679e-05,-9.28929e-06,2.18753e-06,2.98382e-06,0
-2.94782e-05,-6.61854e-06,-3.0842e-06,-2.39509e-05,1.90227e-05,-9.9138e-06,1.00059e-06,2.51695e-06,0
-3.12596e-05,-1.13657e-05,-3.22699e-06,-2.98607e-05,1.56968e-05,-1.26659e-05,2.73836e-07,2.70061e-06,0
-3.2793e-05,-1.32163e-05,-3.76109e-06,-3.28684e-05,1.38404e-05,-1.53401e-05,8.6257e-07,2.49622e-06,0
-3.07621e-05,-1.02858e-05,-4.8758e-06,-2.80553e-05,1.38717e-05,-1.61377e-05,3.35776e-06,1.84151e-06,0
-2.84983e-05,-4.30732e-06,-5.76365e-06,-1.64225e-05,1.40633e-05,-1.52563e-05,7.98206e-06,1.68578e-06,0
-2.96965e-05,1.79479e-06,-4.99333e-06,-3.15468e-06,1.47421e-05,-1.27628e-05,1.51718e-05,6.42568e-07,0
-3.11756e-05,7.35507e-06,-3.30014e-06,1.05625e-05,1.74961e-05,-8.69319e-06,2.72442e-05,-1.16586e-07,0
-3.00643e-05,1.27831e-05,-2.20743e-06,2.44496e-05,2.08556e-05,-5.61786e-06,4.281e-05,-5.01906e-07,0
-2.68343e-05,1.8836e-05,-1.06507e-06,3.33816e-05,2.26173e-05,-5.47106e-06,5.64591e-05,-1.21648e-06,0
-2.50742e-05,2.42329e-05,-1.35363e-07,3.2875e-05,2.38788e-05,-6.38665e-06,6.4169e-05,-1.53941e-06,0
-2.57779e-05,2.63685e-05,6.73926e-07,2.18669e-05,2.38414e-05,-6.38111e-06,6.37306e-05,-1.89444e-06,0
-2.71002e-05,2.86148e-05,1.42332e-06,8.80972e-06,2.14563e-05,-4.64512e-06,5.9365e-05,-1.43628e-06,0
-2.77767e-05,3.05733e-05,9.03284e-07,3.73608e-07,2.07518e-05,-1.95594e-06,5.2312e-05,-3.86029e-07,0
-2.90776e-05,2.95494e-05,1.81035e-07,-3.43477e-06,2.17835e-05,1.00987e-06,4.11912e-05,-2.2663e-07,0
-3.0627e-05,2.67846e-05,-3.57067e-07,-4.41074e-06,2.13541e-05,3.247e-06,2.46296e-05,-2.43231e-06,0
-3.02245e-05,2.53492e-05,-1.20725e-06,-6.12467e-06,1.90616e-05,4.41287e-06,4.85228e-06,-3.27902e-06,0
-2.90878e-05,2.39652e-05,-3.784e-06,-8.64192e-06,1.91154e-05,3.95088e-06,-1.23403e-05,-1.64551e-06,0
-2.83915e-05,2.03932e-05,-6.12475e-06,-1.15052e-05,2.19494e-05,1.44787e-06,-2.27064e-05,-3.7855e-07,0
-2.87446e-05,1.62569e-05,-6.78236e-06,-1.26496e-05,2.37625e-05,-2.03313e-06,-2.39563e-05,2.8959e-07,0
-2.80576e-05,1.28258e-05,-6.41017e-06,-1.47337e-05,2.33037e-05,-3.83713e-06,-1.95074e-05,7.312e-07,0
-2.59413e-05,1.04418e-05,-6.46102e-06,-1.8624e-05,2.1444e-05,-2.58247e-06,-1.49831e-05,1.55968e-06,0
-2.42629e-05,9.21759e-06,-7.23132e-06,-1.99586e-05,2.01582e-05,-1.02426e-06,-1.54004e-05,2.65983e-06,0
-2.39291e-05,1.08208e-05,-7.14458e-06,-1.57996e-05,2.0278e-05,-8.79723e-07,-2.1643e-05,3.42518e-06,0
-2.45656e-05,1.35183e-05,-6.996e-06,-8.93627e-06,2.16531e-05,-2.77461e-06,-2.663e-05,2.72894e-06,0
-2.57767e-05,1.28704e-05,-7.44078e-06,-2.62728e-06,2.19787e-05,-5.75193e-06,-2.33859e-05,4.826e-07,0
-2.81647e-05,8.76246e-06,-8.77806e-06,3.68249e-06,2.13228e-05,-7.72682e-06,-1.456e-05,-1.6936e-06,0
-3.10087e-05,4.84402e-06,-9.57566e-06,9.4961e-06,2.10701e-05,-8.93863e-06,-6.16583e-06,-2.26517e-06,0
-3.31527e-05,2.07383e-06,-9.39989e-06,1.20606e-05,2.04102e-05,-1.12057e-05,5.95621e-07,-2.19541e-06,0
-3.35367e-05,2.35002e-07,-9.205e-06,1.11922e-05,1.78407e-05,-1.29072e-05,6.57338e-06,-2.86039e-06,0
-3.22272e-05,8.57124e-08,-1.03326e-05,9.36648e-06,1.40973e-05,-1.27552e-05,1.29603e-05,-3.62005e-06,0
-3.21748e-05,3.41997e-07,-1.25152e-05,4.78096e-06,1.07439e-05,-1.18936e-05,1.89352e-05,-2.8122e-06,0
-3.36402e-05,-2.21742e-06,-1.36345e-05,-3.49341e-06,9.92621e-06,-1.08551e-05,2.16332e-05,-1.627e-06,0
-3.34838e-05,-5.62656e-06,-1.22256e-05,-1.20128e-05,1.11599e-05,-9.21568e-06,1.97454e-05,-2.15248e-06,0
-3.03266e-05,-5.01884e-06,-1.01095e-05,-1.75827e-05,1.11207e-05,-7.95785e-06,1.36765e-05,-3.21742e-06,0
-2.68403e-05,-8.77198e-07,-7.96049e-06,-2.03457e-05,1.04478e-05,-9.31931e-06,6.81736e-06,-4.35948e-06,0
-2.80632e-05,2.96992e-06,-6.018e-06,-2.0449e-05,9.96299e-06,-1.19568e-05,-2.91218e-07,-4.66907e-06,0
-3.19418e-05,5.4753e-06,-4.84379e-06,-1.51964e-05,8.67089e-06,-1.41998e-05,-3.72913e-06,-2.71476e-06,0
-3.45175e-05,8.11867e-06,-4.74724e-06,-3.78838e-06,6.32603e-06,-1.54343e-05,-1.00618e-06,-1.24687e-06,0
-3.57751e-05,1.006e-05,-6.77903e-06,4.5203e-06,4.72344e-06,-1.61478e-05,2.11982e-06,-1.93293e-06,0
-3.53448e-05,1.0479e-05,-9.10435e-06,4.42321e-06,5.45573e-06,-1.70172e-05,4.69396e-06,-2.38671e-06,0
-3.49906e-05,8.90582e-06,-9.7386e-06,1.8721e-06,6.01428e-06,-1.85802e-05,5.16963e-06,-2.94096e-07,0
-3.4301e-05,7.64758e-06,-9.05842e-06,-2.77085e-07,4.703e-06,-1.999e-05,4.84187e-06,2.06442e-06,0
-3.13567e-05,8.2332e-06,-7.17104e-06,-1.82155e-06,5.16617e-06,-2.01043e-05,5.74365e-06,4.5415e-07,0
-2.93565e-05,1.01033e-05,-5.31021e-06,-2.7509e-06,8.41939e-06,-1.93807e-05,6.90627e-06,-2.26813e-06,0
-2.86224e-05,1.34716e-05,-4.72459e-06,-3.78917e-06,1.09876e-05,-1.80166e-05,7.16084e-06,-2.26155e-06,0
-2.68439e-05,1.73874e-05,-2.24952e-06,-4.71222e-06,1.13931e-05,-1.6742e-05,7.07599e-06,-1.56508e-06,0
-2.56687e-05,2.04346e-05,5.00621e-06,-5.3865e-06,1.04375e-05,-1.56297e-05,9.15381e-06,-1.77143e-06,0
-2.6296e-05,2.08322e-05,1.66356e-05,-6.36699e-06,9.09301e-06,-1.43193e-05,1.27957e-05,-1.93033e-06,0
-2.74449e-05,1.91946e-05,3.03972e-05,-7.31485e-06,8.21547e-06,-1.33184e-05,1.54766e-05,-1.28613e-06,0
-2.83503e-05,1.65936e-05,4.50607e-05,-6.30611e-06,8.18882e-06,-1.31925e-05,1.61869e-05,-5.39604e-08,0
-2.95266e-05,1.49798e-05,5.55292e-05,-4.78877e-06,9.88829e-06,-1.3755e-05,1.83182e-05,4.70545e-07,0
-3.0434e-05,1.49092e-05,5.45227e-05,-5.85099e-06,1.28513e-05,-1.39349e-05,2.23129e-05,7.58247e-07,0
-2.92682e-05,1.52617e-05,3.83347e-05,-9.63459e-06,1.60621e-05,-1.3617e-05,2.50617e-05,1.53347e-06,0
-2.67982e-05,1.64188e-05,6.98992e-06,-1.27498e-05,1.77582e-05,-1.38987e-05,2.52034e-05,6.23015e-07,0
-2.5273e-05,1.75819e-05,-3.20824e-05,-1.24553e-05,1.59958e-05,-1.48165e-05,2.32919e-05,-1.46348e-06,0
-2.48447e-05,1.67206e-05,-6.60734e-05,-1.00233e-05,1.29765e-05,-1.53287e-05,1.97874e-05,-1.8242e-06,0
-2.52341e-05,1.57565e-05,-8.79494e-05,-7.82555e-06,1.14474e-05,-1.54402e-05,1.63825e-05,-5.79637e-07,0
-2.70101e-05,1.6636e-05,-9.47879e-05,-5.96487e-06,1.21353e-05,-1.54653e-05,1.55622e-05,-4.99705e-08,0
-2.86021e-05,1.7271e-05,-8.43094e-05,-4.85751e-06,1.44059e-05,-1.46213e-05,1.68058e-05,-6.50972e-07,0
-2.91189e-05,1.73342e-05,-6.31662e-05,-5.26571e-06,1.70142e-05,-1.37658e-05,1.65127e-05,1.17946e-07,0
-3.05608e-05,1.75915e-05,-4.31454e-05,-4.56968e-06,1.98445e-05,-1.35859e-05,1.41429e-05,3.29154e-07,0
-3.14412e-05,1.80975e-05,-2.96992e-05,-4.79124e-06,2.23168e-05,-1.33061e-05,1.27233e-05,-4.09402e-07,0
-3.10702e-05,1.8016e-05,-2.07861e-05,-7.28263e-06,2.37246e-05,-1.26763e-05,1.40055e-05,-1.37174e-06,0
-3.03803e-05,1.68617e-05,-1.37953e-05,-8.0341e-06,2.35303e-05,-1.3308e-05,1.58001e-05,-2.3155e-06,0
-3.12477e-05,1.58378e-05,-8.42659e-06,-5.35913e-06,2.06586e-05,-1.36614e-05,1.81486e-05,-1.05235e-06,0
-3.29639e-05,1.44517e-05,-4.69626e-06,-1.24178e-06,1.7969e-05,-1.11932e-05,2.09373e-05,5.79341e-07,0
-3.23096e-05,1.23241e-05,-4.68823e-06,8.43152e-07,1.8533e-05,-8.7545e-06,2.04159e-05,1.95364e-06,0
-3.13303e-05,1.08757e-05,-9.34367e-06,-3.88693e-07,2.06793e-05,-7.47912e-06,1.64748e-05,2.98401e-06,0
-3.01691e-05,1.15895e-05,-1.7029e-05,-4.00984e-06,2.06549e-05,-8.24938e-06,9.52506e-06,3.74929e-06,0
-2.90212e-05,1.43559e-05,-2.43352e-05,-7.69033e-06,1.84724e-05,-9.65706e-06,9.57786e-07,3.95282e-06,0
-2.89976e-05,1.49099e-05,-2.64105e-05,-7.98379e-06,1.72955e-05,-7.72681e-06,-6.00729e-06,5.28424e-06,0
-3.03133e-05,1.10791e-05,-2.3732e-05,-5.65245e-06,1.75854e-05,-4.52699e-06,-7.92624e-06,7.60117e-06,0
-3.20634e-05,4.77781e-06,-2.08644e-05,-3.64135e-06,1.92721e-05,-4.04142e-06,-4.6345e-06,8.72034e-06,0
-3.28727e-05,1.89973e-07,-1.99275e-05,-2.68431e-06,2.06069e-05,-5.54811e-06,2.46558e-07,8.7611e-06,0
-3.33174e-05,-1.66301e-06,-1.90068e-05,-2.73687e-06,1.97748e-05,-5.22968e-06,4.95189e-06,8.07126e-06,0
-3.43285e-05,-1.50741e-06,-1.74585e-05,-2.53957e-06,1.79047e-05,-2.02768e-06,9.72563e-06,7.23189e-06,0
-3.56753e-05,1.27928e-07,-1.5379e-05,-7.26381e-07,1.60959e-05,1.25158e-06,1.20156e-05,6.88896e-06,0
-3.58322e-05,3.9368e-06,-1.32385e-05,5.69833e-07,1.5118e-05,2.13804e-06,1.22159e-05,6.74109e-06,0
-3.50054e-05,9.64879e-06,-1.09652e-05,-2.35265e-07,1.46588e-05,7.82449e-07,1.47439e-05,5.19084e-06,0
-3.37578e-05,1.4224e-05,-8.08806e-06,-9.36692e-07,1.46521e-05,-9.68563e-07,1.97715e-05,3.81971e-06,0
-3.27105e-05,1.63182e-05,-5.25292e-06,-1.35297e-06,1.48731e-05,-1.71093e-06,2.38928e-05,4.33312e-06,0
-3.18473e-05,1.63162e-05,-3.01312e-06,-4.45726e-06,1.44431e-05,-2.44208e-06,2.62739e-05,5.90667e-06,0
-3.10773e-05,1.6004e-05,-2.20972e-06,-9.89358e-06,1.3882e-05,-3.67204e-06,2.72675e-05,6.1605e-06,0
-3.13088e-05,1.6107e-05,-3.17612e-06,-1.45775e-05,1.31289e-05,-4.42552e-06,2.76733e-05,4.9909e-06,0
-3.33213e-05,1.74891e-05,-5.20501e-06,-1.72883e-05,1.17281e-05,-4.42195e-06,2.96711e-05,3.46197e-06,0
-3.44187e-05,1.98973e-05,-6.12862e-06,-1.57479e-05,1.00659e-05,-5.28322e-06,3.24573e-05,2.34056e-06,0
-3.27794e-05,2.06413e-05,-4.46595e-06,-9.65159e-06,7.65051e-06,-7.33982e-06,3.35046e-05,1.78348e-06,0
-3.10985e-05,1.88216e-05,-2.37715e-06,-3.03136e-06,5.87757e-06,-8.54192e-06,3.09933e-05,9.34039e-07,0
-3.04181e-05,1.89191e-05,-1.73179e-06,1.16909e-06,5.2793e-06,-9.02002e-06,2.84071e-05,3.18193e-07,0
-2.99407e-05,2.30021e-05,-6.79004e-07,3.149e-06,4.86623e-06,-7.73458e-06,2.75107e-05,1.98616e-06,0
-2.8115e-05,2.91967e-05,1.87481e-06,4.14903e-06,4.34395e-06,-5.13077e-06,2.82942e-05,2.38103e-06,0
-2.64265e-05,3.50582e-05,5.03126e-06,4.36043e-06,4.10137e-06,-4.49219e-06,2.97336e-05,1.10251e-06,0
-2.60218e-05,3.64658e-05,7.41718e-06,6.8439e-07,4.51417e-06,-5.31846e-06,2.76829e-05,2.13714e-06,0
-2.57709e-05,3.18396e-05,8.35756e-06,-5.37317e-06,4.62828e-06,-4.78958e-06,2.4684e-05,2.40047e-06,0
-2.66837e-05,2.4907e-05,6.45752e-06,-8.04706e-06,4.28402e-06,-4.19786e-06,2.16769e-05,1.63361e-06,0
-2.64512e-05,1.69658e-05,4.04561e-06,-5.89826e-06,2.78111e-06,-5.87254e-06,1.81928e-05,1.40714e-06,0
-2.48718e-05,9.77625e-06,3.6492e-06,-2.58046e-06,1.89913e-06,-7.42534e-06,1.47088e-05,2.45966e-06,0
-2.4054e-05,6.37407e-06,4.35816e-06,-1.26613e-07,4.10487e-06,-7.23758e-06,1.13513e-05,3.3816e-06,0
-2.38028e-05,6.81135e-06,4.93149e-06,2.3894e-06,8.50013e-06,-5.6435e-06,8.49894e-06,2.93989e-06,0
-2.33458e-05,8.81452e-06,4.30309e-06,5.09756e-06,1.24506e-05,-4.58592e-06,5.13004e-06,1.65587e-06,0
-2.29414e-05,9.6615e-06,2.8987e-06,5.63471e-06,1.50195e-05,-5.10636e-06,2.14636e-06,2.258e-07,0
-2.4799e-05,8.64691e-06,2.97632e-07,1.49818e-06,1.5345e-05,-5.87535e-06,1.16969e-06,-4.61919e-07,0
-2.77202e-05,7.41866e-06,-2.55509e-06,-2.66907e-06,1.28922e-05,-5.59992e-06,2.93019e-06,-1.04992e-06,0
-2.93984e-05,7.54397e-06,-4.73459e-06,-3.19221e-06,9.84536e-06,-4.66965e-06,4.78457e-06,-8.86126e-07,0
-2.97029e-05,9.00898e-06,-7.67001e-06,-3.03041e-06,8.06834e-06,-3.42089e-06,5.9624e-06,7.84059e-07,0
-2.92674e-05,1.05497e-05,-1.21343e-05,-5.00624e-06,6.71935e-06,-2.24407e-06,7.84785e-06,2.70924e-06,0
-2.80779e-05,1.01844e-05,-1.56483e-05,-7.02018e-06,5.36792e-06,-1.87357e-06,1.09473e-05,3.74414e-06,0
-2.72539e-05,9.58092e-06,-1.66373e-05,-7.60799e-06,4.88611e-06,-2.65714e-06,1.34566e-05,4.38586e-06,0
-2.73754e-05,1.07055e-05,-1.51367e-05,-8.0274e-06,4.76909e-06,-4.51367e-06,1.48062e-05,4.78185e-06,0
-2.78143e-05,1.27254e-05,-1.25889e-05,-9.20715e-06,4.01032e-06,-6.15177e-06,1.58524e-05,5.09157e-06,0
-2.91006e-05,1.28074e-05,-1.03079e-05,-1.00883e-05,1.55818e-06,-7.48273e-06,1.62835e-05,3.61654e-06,0
-3.10439e-05,1.10075e-05,-6.54528e-06,-9.51225e-06,-8.72237e-07,-7.85797e-06,1.65839e-05,1.05222e-06,0
-3.27631e-05,8.9612e-06,-2.34742e-06,-8.28526e-06,-7.7458e-07,-8.37883e-06,1.73365e-05,-1.35354e-07,0
-3.39771e-05,1.05164e-05,-1.56313e-08,-5.74259e-06,1.89761e-06,-1.01941e-05,1.85731e-05,3.11525e-07,0
-3.39183e-05,1.74574e-05,8.69968e-07,-1.14862e-06,5.6258e-06,-1.04493e-05,1.91288e-05,5.63298e-07,0
-3.27014e-05,2.68473e-05,2.00621e-06,2.09624e-06,9.49839e-06,-8.43607e-06,2.09244e-05,-8.79071e-07,0
-2.98561e-05,3.61994e-05,2.46011e-06,1.5676e-06,1.2142e-05,-6.95953e-06,2.70956e-05,-1.11705e-06,0
-2.63533e-05,4.18965e-05,1.86871e-06,-1.20486e-06,1.15557e-05,-5.50353e-06,3.33912e-05,-5.19033e-07,0
-2.5106e-05,4.0538e-05,1.08428e-06,-4.22864e-06,9.76792e-06,-4.39069e-06,3.52488e-05,2.46327e-07,0
-2.50075e-05,3.23083e-05,5.98584e-07,-7.40852e-06,9.28403e-06,-4.15893e-06,3.33712e-05,1.12455e-06,0
-2.5242e-05,2.12646e-05,3.93045e-07,-9.65719e-06,1.01597e-05,-2.44974e-06,3.01379e-05,1.14181e-06,0
-2.70513e-05,9.32632e-06,-2.38171e-06,-1.00821e-05,1.30466e-05,-1.45635e-06,2.69323e-05,8.6665e-07,0
-2.83699e-05,-6.59865e-07,-6.53729e-06,-1.07232e-05,1.63226e-05,-3.95278e-06,2.17809e-05,-1.35441e-07,0
-2.77542e-05,-3.6225e-06,-1.06444e-05,-1.07164e-05,1.77679e-05,-7.32078e-06,1.43958e-05,-7.46137e-07,0
-2.88983e-05,-1.39858e-06,-1.59895e-05,-1.0445e-05,1.72719e-05,-8.43798e-06,3.49495e-06,5.20151e-07,0
-3.08017e-05,1.19556e-06,-2.13618e-05,-1.08852e-05,1.59157e-05,-7.9921e-06,-8.60369e-06,1.88779e-06,0
-3.15288e-05,2.86262e-06,-2.50252e-05,-1.17705e-05,1.55166e-05,-7.03522e-06,-1.89254e-05,1.69825e-06,0
-3.16802e-05,5.93511e-06,-2.70183e-05,-1.29246e-05,1.67718e-05,-5.69591e-06,-2.37688e-05,2.91413e-06,0
-3.18999e-05,1.04382e-05,-2.81581e-05,-1.34378e-05,1.81826e-05,-5.27114e-06,-2.11792e-05,4.15689e-06,0
-3.3063e-05,1.37951e-05,-2.80553e-05,-1.18531e-05,1.91886e-05,-5.10893e-06,-1.54872e-05,1.43232e-06,0
-3.3994e-05,1.33118e-05,-2.57084e-05,-8.48363e-06,2.0559e-05,-4.02123e-06,-1.02059e-05,-2.81167e-06,0
-3.39044e-05,1.05676e-05,-2.21821e-05,-6.03695e-06,2.00563e-05,-3.81679e-06,-6.44977e-06,-4.9087e-06,0
-3.34164e-05,9.10638e-06,-1.9044e-05,-6.39398e-06,1.62913e-05,-6.17946e-06,-3.11102e-06,-5.54346e-06,0
-3.39519e-05,8.76086e-06,-1.64329e-05,-8.12321e-06,1.32257e-05,-9.27721e-06,-1.74228e-07,-5.38987e-06,0
-3.43304e-05,8.81628e-06,-1.472e-05,-6.75743e-06,1.3728e-05,-9.7348e-06,2.57461e-06,-3.88817e-06,0
-3.34903e-05,7.51716e-06,-1.34738e-05,-1.21724e-06,1.5796e-05,-8.34085e-06,4.97105e-06,-2.00921e-06,0
-3.19192e-05,3.86324e-06,-1.15034e-05,4.69922e-06,1.81754e-05,-8.87283e-06,6.66844e-06,-1.2007e-06,0
-2.99274e-05,8.64191e-07,-8.88712e-06,7.24114e-06,2.03624e-05,-1.18726e-05,6.89631e-06,-1.09802e-06,0
-2.88185e-05,1.04574e-06,-6.52825e-06,6.93185e-06,2.13863e-05,-1.38576e-05,5.73352e-06,-1.31451e-06,0
-2.81044e-05,2.1612e-06,-5.36227e-06,6.48573e-06,2.16624e-05,-1.36181e-05,4.59878e-06,-3.59253e-06,0
-2.71557e-05,2.11043e-06,-6.24788e-06,5.93145e-06,2.09888e-05,-1.32989e-05,5.40446e-06,-5.99311e-06,0
-2.70982e-05,-2.43836e-07,-6.94998e-06,1.35725e-06,1.92028e-05,-1.36952e-05,8.22905e-06,-5.7034e-06,0
-2.75676e-05,-2.79967e-06,-6.82767e-06,-3.45015e-06,1.61025e-05,-1.38175e-05,1.19422e-05,-4.5164e-06,0
-2.90191e-05,-5.24447e-06,-7.47053e-06,-5.78018e-06,1.30312e-05,-1.24923e-05,1.44273e-05,-4.40172e-06,0
-3.05489e-05,-3.9393e-06,-8.14761e-06,-8.78377e-06,1.41463e-05,-1.17962e-05,1.56565e-05,-4.34023e-06,0
-3.02825e-05,2.37983e-07,-7.37528e-06,-1.21081e-05,1.74444e-05,-1.21513e-05,1.69812e-05,-5.00911e-06,0
-2.96692e-05,1.35052e-06,-4.6898e-06,-1.42557e-05,1.92193e-05,-1.20236e-05,1.91156e-05,-5.91169e-06,0
-2.94185e-05,1.07649e-06,-2.07945e-06,-1.46141e-05,1.86958e-05,-1.14309e-05,2.08583e-05,-5.81764e-06,0
-2.87863e-05,2.31216e-06,-2.31407e-06,-1.59703e-05,1.74757e-05,-9.50122e-06,1.98174e-05,-6.11805e-06,0
-2.85015e-05,4.94198e-06,-4.52503e-06,-1.71586e-05,1.62592e-05,-6.67556e-06,9.71652e-06,-5.39472e-06,0
-2.89518e-05,5.81946e-06,-5.44042e-06,-1.57574e-05,1.34344e-05,-4.56143e-06,-1.14094e-05,-3.00124e-06,0
-3.01142e-05,6.94542e-06,-4.75836e-06,-1.15229e-05,1.11996e-05,-5.58221e-06,-3.29263e-05,-1.38843e-06,0
-3.02937e-05,8.43144e-06,-2.59433e-06,-7.0065e-06,1.14762e-05,-8.37265e-06,-4.25494e-05,1.09347e-07,0
-2.97414e-05,9.1489e-06,1.89948e-07,2.98322e-07,1.39554e-05,-1.0459e-05,-3.29198e-05,5.38549e-07,0
-2.98993e-05,9.24851e-06,2.00929e-06,1.30929e-05,1.72542e-05,-1.02027e-05,-1.04847e-05,-2.1552e-07,0
-3.07162e-05,7.84063e-06,3.05698e-06,2.77225e-05,2.06734e-05,-8.42911e-06,1.26135e-05,-3.06886e-09,0
-3.11357e-05,4.4687e-06,3.75342e-06,3.68432e-05,2.32616e-05,-7.5925e-06,3.032e-05,7.45668e-07,0
-3.05623e-05,2.81865e-06,3.60856e-06,3.58839e-05,2.4387e-05,-7.38425e-06,4.30566e-05,1.20523e-06,0
-3.04105e-05,7.98176e-06,2.88862e-06,2.68153e-05,2.4216e-05,-7.86801e-06,5.15639e-05,1.02583e-06,0
-2.99644e-05,1.97463e-05,2.38171e-06,1.34707e-05,2.26809e-05,-1.00198e-05,5.68926e-05,4.86455e-07,0
-2.94388e-05,3.23586e-05,2.16871e-06,5.80106e-08,1.91143e-05,-1.2947e-05,5.97033e-05,-5.11244e-07,0
-2.97481e-05,3.8734e-05,2.0863e-06,-1.26107e-05,1.46493e-05,-1.34468e-05,5.76951e-05,-8.05334e-07,0
-3.02135e-05,3.80923e-05,2.74281e-06,-2.06333e-05,1.2593e-05,-1.13301e-05,5.02335e-05,-3.60841e-07,0
-3.02415e-05,3.27544e-05,3.71897e-06,-2.03364e-05,1.26525e-05,-9.26145e-06,4.1631e-05,-2.36276e-07,0
-3.10224e-05,2.56761e-05,3.2232e-06,-1.32844e-05,1.26571e-05,-9.14749e-06,3.73769e-05,-7.10937e-07,0
-3.14274e-05,1.8048e-05,2.09744e-06,-5.81775e-06,1.16721e-05,-9.71757e-06,3.64183e-05,-7.61623e-07,0
-3.14336e-05,9.8925e-06,1.22482e-06,-2.55963e-06,1.12525e-05,-9.87523e-06,3.4006e-05,8.91992e-07,0
-3.21813e-05,1.99719e-06,1.10976e-06,-4.87803e-06,1.29893e-05,-9.71133e-06,2.87444e-05,5.18333e-06,0
-3.38397e-05,-6.03756e-06,2.36077e-06,-9.42993e-06,1.43502e-05,-1.06263e-05,2.34202e-05,8.85519e-06,0
-3.45621e-05,-1.33577e-05,3.23965e-06,-1.29535e-05,1.34583e-05,-1.21777e-05,2.1013e-05,9.97242e-06,0
-3.36032e-05,-1.76779e-05,1.10118e-06,-1.63817e-05,1.35137e-05,-1.38175e-05,1.95914e-05,1.00136e-05,0
-3.27516e-05,-1.73959e-05,-3.09701e-06,-2.06581e-05,1.48798e-05,-1.57724e-05,1.64374e-05,9.02604e-06,0
-3.14377e-05,-1.2084e-05,-9.45411e-06,-2.59892e-05,1.38121e-05,-1.72861e-05,1.31421e-05,8.44675e-06,0
-3.08973e-05,-3.96405e-06,-1.98113e-05,-3.18058e-05,1.14014e-05,-1.80125e-05,1.02016e-05,8.50829e-06,0
-3.16108e-05,4.04252e-06,-3.15918e-05,-3.52859e-05,1.10292e-05,-1.82358e-05,5.89679e-06,8.69873e-06,0
-3.28581e-05,8.42911e-06,-3.77441e-05,-3.59533e-05,1.44821e-05,-1.84538e-05,1.64735e-07,9.95383e-06,0
-3.31867e-05,9.89459e-06,-3.44701e-05,-3.49673e-05,1.73289e-05,-1.71456e-05,-3.45525e-06,1.23266e-05,0
-3.30057e-05,1.17174e-05,-2.60768e-05,-2.95079e-05,1.66845e-05,-1.67541e-05,-4.40419e-06,1.20452e-05,0
-3.40763e-05,1.34497e-05,-1.89803e-05,-1.81854e-05,1.60105e-05,-1.72258e-05,-4.16478e-06,9.05665e-06,0
-3.52458e-05,1.35686e-05,-1.54776e-05,-4.31493e-06,1.57414e-05,-1.63238e-05,-4.08603e-06,6.49541e-06,0
-3.5064e-05,1.03014e-05,-1.29844e-05,6.41354e-06,1.6147e-05,-1.38743e-05,-5.6248e-06,6.43596e-06,0
-3.44736e-05,3.88066e-06,-1.19909e-05,1.26039e-05,1.55598e-05,-1.10416e-05,-6.64852e-06,8.84545e-06,0
-3.35124e-05,-3.81567e-07,-1.21775e-05,1.51989e-05,1.30564e-05,-9.93667e-06,-4.33082e-06,1.06688e-05,0
-3.10385e-05,9.23937e-07,-1.03897e-05,1.58107e-05,9.35627e-06,-1.04404e-05,1.50081e-06,1.05552e-05,0
-2.93146e-05,6.14769e-06,-6.05904e-06,1.40998e-05,6.02183e-06,-1.16495e-05,7.8995e-06,8.65717e-06,0
-2.99426e-05,1.15813e-05,-1.91277e-06,1.09266e-05,4.40117e-06,-1.2647e-05,1.19115e-05,7.01719e-06,0
-3.17993e-05,1.38818e-05,8.04932e-07,8.69795e-06,3.16761e-06,-1.37989e-05,1.31272e-05,6.54053e-06,0
-3.36181e-05,1.37734e-05,2.72441e-06,7.46196e-06,2.83768e-06,-1.45111e-05,1.26552e-05,6.64701e-06,0
-3.40523e-05,1.38096e-05,3.49296e-06,7.21665e-06,4.6505e-06,-1.4432e-05,1.21336e-05,6.68375e-06,0
-3.29193e-05,1.6136e-05,2.9584e-06,7.2345e-06,7.51282e-06,-1.41661e-05,1.26322e-05,6.02594e-06,0
-3.21727e-05,1.97591e-05,1.63601e-06,4.83173e-06,9.16769e-06,-1.36908e-05,1.30409e-05,4.92856e-06,0
-3.24778e-05,2.23017e-05,3.64119e-07,-2.78559e-07,9.94343e-06,-1.25687e-05,1.28661e-05,3.16441e-06,0
-3.24819e-05,2.45793e-05,-1.69372e-06,-3.69217e-06,1.11836e-05,-1.19321e-05,1.33903e-05,7.13484e-08,0
-3.25143e-05,2.98559e-05,-3.68705e-06,-3.47921e-06,1.23794e-05,-1.19738e-05,1.45361e-05,-2.35692e-06,0
-3.26239e-05,3.98883e-05,-3.73401e-06,-3.4274e-06,1.15168e-05,-1.14271e-05,1.48878e-05,-1.86495e-06,0
-3.1292e-05,5.22784e-05,-2.63558e-06,-6.54353e-06,8.61987e-06,-1.18852e-05,1.40503e-05,-4.36865e-07,0
-2.92227e-05,6.05097e-05,-3.31369e-06,-9.08823e-06,5.23285e-06,-1.43221e-05,1.38344e-05,-2.51642e-07,0
-2.87537e-05,6.18145e-05,-5.19983e-06,-8.09489e-06,2.38783e-06,-1.68842e-05,1.51028e-05,-1.36092e-06,0
-3.00131e-05,5.5116e-05,-8.14025e-06,-6.1378e-06,1.70954e-07,-1.79651e-05,1.67285e-05,-2.15683e-06,0
-3.20995e-05,3.96677e-05,-1.24949e-05,-5.86842e-06,-8.58038e-07,-1.7678e-05,1.73252e-05,-1.04067e-06,0
-3.33669e-05,1.75736e-05,-1.59747e-05,-7.01334e-06,1.0423e-06,-1.66275e-05,1.66284e-05,7.29849e-07,0
-3.25295e-05,-1.71103e-06,-1.58342e-05,-7.37714e-06,5.29307e-06,-1.54589e-05,1.54644e-05,1.97892e-06,0
-3.17046e-05,-8.14075e-06,-1.25745e-05,-5.68992e-06,7.39389e-06,-1.52653e-05,1.37922e-05,3.33984e-06,0
-3.15636e-05,-4.99714e-06,-9.54149e-06,-3.18815e-06,5.42649e-06,-1.67771e-05,1.2637e-05,4.47799e-06,0
-3.06335e-05,4.49179e-06,-8.03462e-06,-2.88979e-06,3.82399e-06,-1.90957e-05,1.19259e-05,4.00795e-06,0
-2.99648e-05,1.67926e-05,-7.93729e-06,-4.61201e-06,4.89531e-06,-1.95398e-05,1.09431e-05,1.88093e-06,0
-3.02844e-05,2.4714e-05,-7.76599e-06,-8.04785e-06,6.9676e-06,-1.91603e-05,1.05726e-05,-3.80878e-07,0
-2.93227e-05,2.33242e-05,-8.59347e-06,-1.43393e-05,7.55507e-06,-1.94346e-05,1.04902e-05,-3.47399e-06,0
-2.80057e-05,1.47158e-05,-1.00055e-05,-2.16977e-05,6.47373e-06,-1.92877e-05,1.08059e-05,-5.65336e-06,0
-2.76444e-05,4.59072e-06,-1.025e-05,-2.70468e-05,4.93203e-06,-1.86819e-05,1.15643e-05,-5.55684e-06,0
-2.67236e-05,-4.48138e-06,-9.49967e-06,-2.95785e-05,3.90382e-06,-1.79916e-05,1.10567e-05,-5.70243e-06,0
-2.62527e-05,-9.85701e-06,-9.34638e-06,-3.13122e-05,3.94131e-06,-1.65998e-05,9.27766e-06,-6.76134e-06,0
-2.78603e-05,-8.8695e-06,-1.08428e-05,-3.18106e-05,5.33354e-06,-1.44928e-05,8.66343e-06,-7.36791e-06,0
-2.99027e-05,-2.05946e-06,-1.25188e-05,-2.62976e-05,7.2856e-06,-1.34458e-05,9.90098e-06,-8.18055e-06,0
-3.08826e-05,5.8355e-06,-1.30661e-05,-1.28675e-05,8.79606e-06,-1.2647e-05,1.18002e-05,-9.60609e-06,0
-3.12408e-05,1.10503e-05,-1.23489e-05,2.99287e-06,1.0967e-05,-1.09379e-05,1.43813e-05,-9.47524e-06,0
-3.09294e-05,1.2479e-05,-1.17919e-05,1.61025e-05,1.34316e-05,-8.7027e-06,1.72107e-05,-8.08677e-06,0
-3.07772e-05,1.04313e-05,-1.22257e-05,2.61591e-05,1.47548e-05,-7.73936e-06,1.83224e-05,-6.89797e-06,0
-3.0823e-05,6.59659e-06,-1.24829e-05,3.26851e-05,1.50469e-05,-8.15053e-06,1.70175e-05,-5.4635e-06,0
-3.17965e-05,5.67322e-06,-1.16808e-05,3.22683e-05,1.44126e-05,-7.46554e-06,1.47976e-05,-3.39216e-06,0
-3.35806e-05,1.00047e-05,-1.08641e-05,2.61374e-05,1.34039e-05,-5.93152e-06,1.2905e-05,-2.17867e-06,0
-3.52577e-05,1.49581e-05,-9.97557e-06,1.76853e-05,1.43211e-05,-5.70889e-06,1.06568e-05,-3.52031e-06,0
-3.60499e-05,1.66267e-05,-8.28724e-06,8.24811e-06,1.64087e-05,-6.10321e-06,8.83156e-06,-5.62588e-06,0
-3.44847e-05,1.66077e-05,-5.94205e-06,5.94597e-07,1.69314e-05,-5.25072e-06,9.09008e-06,-6.81686e-06,0
-3.22638e-05,1.60793e-05,-2.09723e-06,-4.44455e-06,1.58526e-05,-5.27693e-06,9.75601e-06,-7.91218e-06,0
-3.04503e-05,1.53112e-05,3.69433e-06,-5.86644e-06,1.71587e-05,-7.05775e-06,1.0641e-05,-6.56467e-06,0
-2.89465e-05,1.8179e-05,9.67331e-06,-6.94475e-06,2.12247e-05,-8.30695e-06,1.43712e-05,-5.47183e-06,0
-2.69186e-05,2.31404e-05,1.4787e-05,-1.05703e-05,2.36165e-05,-8.41282e-06,1.78689e-05,-5.64763e-06,0
-2.67353e-05,2.67296e-05,2.08019e-05,-1.419e-05,2.27656e-05,-7.6564e-06,1.73787e-05,-5.91401e-06,0
-2.93256e-05,3.05958e-05,2.95953e-05,-1.73246e-05,2.21854e-05,-7.11021e-06,1.52465e-05,-6.79674e-06,0
-3.07437e-05,3.46645e-05,4.18013e-05,-1.96958e-05,2.26499e-05,-5.77134e-06,1.28156e-05,-6.50968e-06,0
-3.03658e-05,3.75808e-05,5.30294e-05,-1.99918e-05,2.12776e-05,-5.10328e-06,9.55763e-06,-5.36911e-06,0
-2.95034e-05,3.87552e-05,5.36319e-05,-1.56524e-05,1.89521e-05,-6.83195e-06,6.36903e-06,-4.4031e-06,0
-2.88622e-05,3.8044e-05,3.86349e-05,-1.09009e-05,1.73525e-05,-8.39759e-06,4.42107e-06,-4.42519e-06,0
-2.74488e-05,3.46844e-05,1.10737e-05,-8.02988e-06,1.71348e-05,-7.43708e-06,3.5086e-06,-3.89165e-06,0
-2.68438e-05,3.06436e-05,-1.92999e-05,-6.31745e-06,1.78563e-05,-5.65324e-06,3.3397e-06,-3.44929e-06,0
-2.72688e-05,2.65807e-05,-4.47852e-05,-7.60844e-06,1.82491e-05,-5.70765e-06,4.22133e-06,-3.43315e-06,0
-2.75771e-05,2.25704e-05,-6.10133e-05,-1.14173e-05,1.66759e-05,-6.02553e-06,5.52168e-06,-3.65945e-06,0
-2.78489e-05,2.07028e-05,-6.71404e-05,-1.49651e-05,1.32687e-05,-5.6544e-06,6.07332e-06,-3.73741e-06,0
-2.75123e-05,2.15638e-05,-6.50451e-05,-1.57255e-05,8.94865e-06,-5.91135e-06,5.76659e-06,-3.27728e-06,0
-2.64918e-05,2.42822e-05,-5.65637e-05,-1.32719e-05,5.76141e-06,-8.16247e-06,5.76258e-06,-1.94086e-06,0
-2.60709e-05,2.64444e-05,-4.64494e-05,-6.89873e-06,6.26157e-06,-9.98516e-06,6.683e-06,8.53091e-07,0
-2.67105e-05,2.68931e-05,-3.95752e-05,1.93348e-06,9.30225e-06,-9.25702e-06,8.35873e-06,3.39541e-06,0
-2.71024e-05,2.58732e-05,-3.67209e-05,9.55087e-06,1.09488e-05,-7.05763e-06,1.01001e-05,4.13009e-06,0
-2.81295e-05,2.41177e-05,-3.49837e-05,1.14212e-05,1.04817e-05,-5.48756e-06,1.19677e-05,2.90248e-06,0
-2.95958e-05,2.23258e-05,-3.36837e-05,9.80381e-06,1.01742e-05,-6.06045e-06,1.55826e-05,9.38115e-07,0
-3.05456e-05,2.17112e-05,-3.06819e-05,1.014e-05,1.07682e-05,-7.65152e-06,1.82763e-05,4.6329e-07,0
-3.14595e-05,2.34162e-05,-2.60553e-05,1.01377e-05,9.03515e-06,-6.77915e-06,1.71642e-05,1.98317e-06,0
-3.18194e-05,2.64832e-05,-2.10661e-05,5.34784e-06,4.4568e-06,-4.433e-06,1.52167e-05,3.65737e-06,0
-3.04738e-05,2.67295e-05,-1.40832e-05,6.13083e-07,1.68722e-06,-3.20671e-06,1.58922e-05,3.88853e-06,0
-2.9112e-05,2.47127e-05,-6.80098e-06,-1.36838e-06,1.96668e-06,-2.87105e-06,1.95572e-05,3.83671e-06,0
-2.89791e-05,2.5301e-05,-1.63095e-06,-2.58773e-06,4.67405e-06,-3.39156e-06,2.14106e-05,5.95269e-06,0
-2.78987e-05,2.75571e-05,1.42765e-06,-3.41705e-06,8.35782e-06,-4.41527e-06,2.05804e-05,8.00413e-06,0
-2.74152e-05,2.83771e-05,8.95369e-07,-3.33357e-06,1.12089e-05,-4.34282e-06,2.00483e-05,8.70231e-06,0
-2.94778e-05,2.87089e-05,-3.25117e-06,-3.09312e-06,1.16905e-05,-3.49018e-06,1.94628e-05,8.84043e-06,0
-3.07845e-05,2.84581e-05,-1.15896e-05,-3.26905e-06,1.17234e-05,-2.99699e-06,1.73874e-05,9.61363e-06,0
-3.10849e-05,2.81071e-05,-2.47701e-05,-2.4555e-06,1.35845e-05,-3.69896e-06,1.57224e-05,1.04402e-05,0
-3.01863e-05,2.76172e-05,-3.67793e-05,-9.78232e-07,1.58723e-05,-5.62692e-06,1.67637e-05,1.14047e-05,0
-2.90036e-05,2.67832e-05,-3.99665e-05,3.825e-07,1.83211e-05,-8.36327e-06,1.75472e-05,1.15316e-05,0
-2.92074e-05,2.70139e-05,-3.4486e-05,7.43511e-07,2.20942e-05,-1.17591e-05,1.56742e-05,9.10139e-06,0
-2.9282e-05,2.84752e-05,-2.52653e-05,-1.37433e-07,2.56176e-05,-1.40253e-05,1.06624e-05,5.93476e-06,0
-2.8501e-05,2.96119e-05,-1.5771e-05,-2.03961e-06,2.57192e-05,-1.44009e-05,6.29537e-06,4.69522e-06,0
-2.80128e-05,2.84446e-05,-9.10146e-06,-3.80889e-06,2.30308e-05,-1.25569e-05,5.79701e-06,6.8369e-06,0
-2.76732e-05,2.63696e-05,-5.45807e-06,-6.11546e-06,1.99108e-05,-1.04452e-05,8.66287e-06,8.74366e-06,0
-2.6813e-05,2.48318e-05,-3.99981e-06,-8.31446e-06,1.82653e-05,-9.29606e-06,1.26737e-05,8.25788e-06,0
-2.66499e-05,2.30834e-05,-3.62105e-06,-9.91294e-06,1.81527e-05,-9.65424e-06,1.45565e-05,5.71824e-06,0
-2.70355e-05,2.08119e-05,-2.86368e-06,-1.22454e-05,1.88781e-05,-1.03158e-05,1.42763e-05,3.7877e-06,0
-2.69506e-05,1.99951e-05,-1.46499e-06,-1.60143e-05,1.98839e-05,-1.07612e-05,1.3937e-05,3.50368e-06,0
-2.61586e-05,2.05701e-05,-1.22987e-06,-1.89827e-05,2.04108e-05,-1.15496e-05,1.51528e-05,3.33303e-06,0
-2.58987e-05,2.11529e-05,-2.47679e-06,-1.90642e-05,2.04266e-05,-1.28555e-05,1.71332e-05,2.98401e-06,0
-2.65968e-05,2.02667e-05,-3.19673e-06,-1.61318e-05,2.07597e-05,-1.32117e-05,2.02771e-05,3.12567e-06,0
-2.80681e-05,1.76129e-05,-2.49024e-06,-1.18956e-05,2.08736e-05,-1.26907e-05,2.71644e-05,3.06904e-06,0
-2.98267e-05,1.36512e-05,-2.47778e-06,-7.39409e-06,1.87264e-05,-1.34119e-05,3.73564e-05,1.98763e-06,0
-3.11507e-05,9.29522e-06,-3.76211e-06,-4.25815e-06,1.48745e-05,-1.44802e-05,4.63263e-05,4.89586e-07,0
-3.10511e-05,6.65793e-06,-4.47559e-06,-4.74007e-06,1.24955e-05,-1.64113e-05,5.04506e-05,7.1698e-07,0
-3.06722e-05,6.77981e-06,-4.50028e-06,-6.43497e-06,1.2734e-05,-1.86705e-05,4.84261e-05,2.08138e-06,0
-3.15173e-05,8.49218e-06,-3.6622e-06,-6.53247e-06,1.46129e-05,-1.964e-05,4.14132e-05,2.18e-06,0
-3.15877e-05,1.03997e-05,-1.92751e-06,-4.922e-06,1.47534e-05,-1.90418e-05,3.18068e-05,3.07242e-06,0
-3.02771e-05,1.23595e-05,1.79974e-06,-2.48953e-06,1.18605e-05,-1.72655e-05,1.91764e-05,3.4251e-06,0
-2.96264e-05,1.22427e-05,5.55761e-06,1.90849e-06,1.08243e-05,-1.63091e-05,3.61031e-06,2.64014e-06,0
-2.87465e-05,1.27005e-05,7.52208e-06,4.62833e-06,1.21459e-05,-1.53078e-05,-1.3431e-05,1.76147e-07,0
-2.78225e-05,1.40842e-05,9.00575e-06,2.93321e-06,1.28928e-05,-1.16789e-05,-2.83099e-05,-2.6532e-06,0
-2.83899e-05,1.16582e-05,1.22968e-05,-1.95501e-06,1.2084e-05,-8.8404e-06,-3.73867e-05,-3.74064e-06,0
-3.06915e-05,9.28497e-06,2.05638e-05,-4.02058e-06,1.08694e-05,-8.80271e-06,-3.96974e-05,-3.55367e-06,0
-3.2691e-05,8.1653e-06,3.28739e-05,-2.03845e-06,9.38592e-06,-1.0653e-05,-3.41206e-05,-2.20357e-06,0
-3.24251e-05,6.82213e-06,4.70359e-05,-1.64516e-06,8.50243e-06,-1.17006e-05,-2.43724e-05,-5.32538e-07,0
-3.14502e-05,3.5686e-06,5.94703e-05,-3.70082e-06,9.12931e-06,-1.02698e-05,-1.50541e-05,1.90971e-06,0
-3.04766e-05,-2.5729e-07,6.43372e-05,-7.45457e-06,9.00879e-06,-7.12508e-06,-8.47136e-06,3.15582e-06,0
-3.01195e-05,-1.37161e-06,5.58861e-05,-1.0566e-05,1.00128e-05,-4.96801e-06,-4.01842e-06,3.00181e-06,0
-3.13564e-05,-1.6335e-06,3.26474e-05,-1.25098e-05,1.28531e-05,-4.14229e-06,-7.13077e-08,2.11756e-06,0
-3.28154e-05,-2.56557e-06,-4.75653e-07,-1.38611e-05,1.41947e-05,-2.98746e-06,3.72597e-06,8.82295e-07,0
-3.23382e-05,-2.71343e-06,-3.40379e-05,-1.4751e-05,1.29509e-05,-1.8448e-06,7.3391e-06,-6.60541e-07,0
-3.13582e-05,-1.19825e-07,-6.01034e-05,-1.49964e-05,1.14681e-05,-2.8502e-06,1.03263e-05,-1.51627e-06,0
-3.14975e-05,2.77121e-06,-7.4298e-05,-1.66867e-05,1.16027e-05,-6.14734e-06,1.32942e-05,-4.7929e-07,0
-3.18822e-05,5.91266e-06,-7.41817e-05,-2.09796e-05,1.25565e-05,-7.80031e-06,1.57689e-05,6.28016e-07,0
-3.07801e-05,1.06133e-05,-6.27302e-05,-2.39832e-05,1.29315e-05,-6.33608e-06,1.86533e-05,7.1564e-07,0
-2.83693e-05,1.51641e-05,-4.78826e-05,-2.19338e-05,1.18807e-05,-3.86537e-06,2.19794e-05,-4.01026e-08,0
-2.63009e-05,1.60468e-05,-3.71124e-05,-1.67378e-05,1.02264e-05,-4.32464e-06,2.39566e-05,-5.94371e-07,0
-2.52507e-05,1.4512e-05,-3.02729e-05,-1.09044e-05,9.34922e-06,-7.38461e-06,2.28166e-05,-1.20834e-06,0
-2.47651e-05,1.39044e-05,-2.43052e-05,-4.98726e-06,1.09964e-05,-1.01425e-05,2.05608e-05,-9.06198e-07,0
-2.52485e-05,1.58878e-05,-2.00742e-05,-5.46923e-07,1.40526e-05,-1.15745e-05,1.96218e-05,8.41756e-07,0
-2.69502e-05,2.10545e-05,-1.7945e-05,8.80109e-07,1.44037e-05,-1.23215e-05,1.92746e-05,1.80407e-06,0
-2.82765e-05,2.83442e-05,-1.71502e-05,-4.84951e-07,1.3864e-05,-1.16376e-05,1.8913e-05,1.70908e-06,0
-3.02352e-05,3.6669e-05,-1.54794e-05,-3.4695e-06,1.4234e-05,-1.08107e-05,1.80175e-05,2.94321e-06,0
-3.18375e-05,4.66596e-05,-1.21369e-05,-6.10749e-06,1.34025e-05,-9.50384e-06,1.70213e-05,3.98092e-06,0
-3.04123e-05,5.99978e-05,-9.27e-06,-6.02277e-06,1.27333e-05,-7.91705e-06,1.77152e-05,6.25613e-07,0
-2.78049e-05,6.99926e-05,-5.97354e-06,-4.70176e-06,1.22493e-05,-7.60324e-06,1.97364e-05,-3.79612e-06,0
-2.63565e-05,7.2156e-05,-4.28794e-06,-5.20411e-06,1.1472e-05,-8.91684e-06,2.11049e-05,-6.51781e-06,0
-2.82317e-05,6.96831e-05,-5.08031e-06,-8.76875e-06,1.21432e-05,-1.13515e-05,2.13886e-05,-7.63071e-06,0
-3.12138e-05,5.84647e-05,-6.04847e-06,-1.34299e-05,1.38148e-05,-1.14659e-05,2.05623e-05,-5.4623e-06,0
-3.32093e-05,3.36354e-05,-6.33948e-06,-1.66139e-05,1.49169e-05,-1.03616e-05,1.93615e-05,-3.72005e-06,0
-3.41526e-05,-1.91601e-06,-6.47524e-06,-1.64919e-05,1.44689e-05,-9.84057e-06,1.77282e-05,-3.79777e-06,0
-3.36887e-05,-3.79567e-05,-6.17039e-06,-1.50927e-05,1.23021e-05,-1.08371e-05,1.65299e-05,-4.8479e-06,0
-3.35857e-05,-6.52261e-05,-5.03227e-06,-1.44266e-05,9.49466e-06,-1.1994e-05,1.62971e-05,-6.8182e-06,0
-3.44835e-05,-7.52389e-05,-4.16533e-06,-1.49468e-05,7.33828e-06,-1.17415e-05,1.71794e-05,-6.64414e-06,0
-3.52955e-05,-6.74843e-05,-4.17483e-06,-1.58008e-05,6.17499e-06,-1.10981e-05,1.7e-05,-4.4338e-06,0
-3.49005e-05,-5.34435e-05,-4.82022e-06,-1.33401e-05,6.20108e-06,-9.39444e-06,1.34115e-05,-2.84743e-06,0
-3.41199e-05,-4.03958e-05,-4.01574e-06,-8.72529e-06,6.17446e-06,-7.01085e-06,9.86108e-06,-1.68739e-06,0
-3.41477e-05,-2.92669e-05,-2.24427e-06,-3.89366e-06,4.28279e-06,-4.97523e-06,9.68429e-06,-1.71989e-07,0
-3.48778e-05,-1.914e-05,-1.6632e-06,-1.66915e-07,1.34339e-06,-4.59757e-06,1.27947e-05,1.73981e-06,0
-3.42211e-05,-1.21524e-05,-2.53388e-06,1.47558e-06,-3.70444e-07,-6.2719e-06,1.6179e-05,3.9873e-06,0
-3.27136e-05,-7.67516e-06,-2.49393e-06,1.26841e-06,3.80052e-08,-9.0188e-06,1.85234e-05,4.44591e-06,0
-3.2233e-05,-4.26057e-06,-5.88473e-07,8.79401e-07,1.66081e-06,-1.13682e-05,2.07222e-05,3.87878e-06,0
-3.16725e-05,-2.04983e-06,8.10027e-07,1.07425e-06,3.19317e-06,-1.24291e-05,2.32861e-05,3.39275e-06,0
-3.02899e-05,-2.67649e-06,-4.80569e-07,1.24221e-06,3.68199e-06,-1.23377e-05,2.485e-05,1.42321e-06,0
-3.00608e-05,-6.01849e-06,-2.75838e-06,3.73774e-06,3.40275e-06,-1.22522e-05,2.49184e-05,-1.15297e-06,0
-3.16517e-05,-8.86171e-06,-4.27291e-06,7.17828e-06,3.88778e-06,-1.25238e-05,2.32258e-05,-2.94714e-07,0
-3.38052e-05,-8.68625e-06,-5.00479e-06,7.85086e-06,4.7816e-06,-1.16643e-05,1.95942e-05,3.74321e-06,0
-3.50683e-05,-7.05084e-06,-5.07889e-06,7.14273e-06,5.13882e-06,-9.12642e-06,1.60166e-05,6.63877e-06,0
-3.53335e-05,-4.39226e-06,-5.10319e-06,6.44557e-06,5.20687e-06,-6.71096e-06,1.40596e-05,6.45826e-06,0
-3.46404e-05,-5.75766e-08,-4.64055e-06,5.84777e-06,4.74895e-06,-6.2054e-06,1.50724e-05,4.90934e-06,0
-3.34797e-05,7.63337e-06,-4.15023e-06,3.81819e-06,4.80512e-06,-5.62355e-06,1.75204e-05,4.68111e-06,0
-3.1155e-05,1.8793e-05,-5.32138e-06,-7.03646e-07,7.10794e-06,-4.50922e-06,1.78716e-05,3.89816e-06,0
-2.82575e-05,2.49733e-05,-6.90295e-06,-5.3734e-06,1.11965e-05,-4.25254e-06,1.44047e-05,3.39377e-06,0
-2.71844e-05,2.51881e-05,-9.51402e-06,-6.02145e-06,1.41988e-05,-2.80136e-06,1.17384e-05,3.63562e-06,0
-2.69709e-05,2.06412e-05,-1.15604e-05,-2.52418e-06,1.71443e-05,-6.40105e-07,1.25885e-05,4.04593e-06,0
-2.6131e-05,1.29818e-05,-1.13396e-05,-1.2297e-06,1.9414e-05,-9.1194e-07,1.2579e-05,5.91961e-06,0
-2.50762e-05,4.37603e-06,-1.1157e-05,-2.36235e-07,1.82378e-05,-2.0278e-06,1.03126e-05,6.79217e-06,0
-2.5283e-05,-4.88232e-06,-9.74986e-06,1.48239e-06,1.49481e-05,-3.78777e-06,6.58438e-06,5.6877e-06,0
-2.51281e-05,-1.31466e-05,-8.16243e-06,2.00507e-06,1.36991e-05,-5.95692e-06,2.97091e-06,4.72045e-06,0
-2.65303e-05,-2.07336e-05,-7.21437e-06,1.08785e-06,1.61121e-05,-7.25175e-06,1.33638e-06,5.33797e-06,0
-2.96727e-05,-2.69896e-05,-7.23686e-06,-1.80438e-06,1.60322e-05,-6.17892e-06,8.8461e-07,6.17213e-06,0
-3.18244e-05,-3.18167e-05,-7.83393e-06,-3.02392e-06,1.19042e-05,-4.4342e-06,8.67181e-07,6.73412e-06,0
-3.30127e-05,-3.27683e-05,-7.73576e-06,-7.35426e-07,7.39773e-06,-4.47165e-06,3.2463e-07,6.64295e-06,0
-3.29937e-05,-2.74502e-05,-7.06549e-06,2.54331e-06,5.06987e-06,-5.83679e-06,3.77878e-07,6.74072e-06,0
