ch1,ch2,ch3,ch4,ch5,ch6,ch7,ch8,class
-3.09668e-05,-1.49153e-05,3.43828e-06,-5.61977e-06,8.45171e-06,-1.18008e-05,1.36022e-05,1.60551e-06,0
-3.14729e-05,-9.22626e-06,1.12319e-07,-1.63356e-06,1.28819e-05,-9.49192e-06,1.37096e-05,2.72631e-06,0
-3.16827e-05,-6.58099e-06,-3.99864e-06,-1.7965e-06,1.48856e-05,-9.8223e-06,1.17575e-05,2.87396e-06,0
-3.24977e-05,-6.22118e-06,-4.80703e-06,-3.08323e-06,1.58723e-05,-1.26493e-05,8.90746e-06,1.6472e-06,0
-3.15258e-05,-4.55997e-06,-4.33818e-06,-8.32703e-06,1.71017e-05,-1.3694e-05,7.05557e-06,1.94551e-06,0
-2.89982e-05,-1.80175e-06,-4.51732e-06,-1.5394e-05,1.79611e-05,-1.1018e-05,9.40595e-06,4.74004e-06,0
-2.83031e-05,-1.11552e-06,-5.80241e-06,-1.33751e-05,1.64216e-05,-8.63973e-06,1.51819e-05,7.49187e-06,0
-2.94119e-05,-2.46617e-06,-8.84424e-06,-6.2742e-06,1.41271e-05,-1.03276e-05,2.09595e-05,8.01136e-06,0
-3.0385e-05,-2.04466e-06,-1.26921e-05,-2.9154e-06,1.44114e-05,-1.2288e-05,2.46902e-05,5.93057e-06,0
-3.06676e-05,-2.83881e-07,-1.75727e-05,-3.65411e-06,1.56878e-05,-1.12475e-05,2.57371e-05,3.89623e-06,0
-3.0088e-05,-1.43765e-07,-2.22786e-05,-6.23812e-06,1.57305e-05,-9.44844e-06,2.6168e-05,4.80919e-06,0
-2.92217e-05,-1.61226e-07,-2.55087e-05,-8.04955e-06,1.457e-05,-9.99287e-06,2.62857e-05,6.08572e-06,0
-3.00224e-05,-1.5089e-06,-2.75639e-05,-7.3112e-06,1.34691e-05,-1.13312e-05,2.48996e-05,5.75899e-06,0
-3.17852e-05,-3.2862e-06,-2.72158e-05,-6.47162e-06,1.38289e-05,-1.20127e-05,2.30072e-05,5.64448e-06,0
-3.23209e-05,-2.59413e-06,-2.36873e-05,-7.63681e-06,1.63582e-05,-1.2282e-05,2.04358e-05,5.36287e-06,0
-3.09013e-05,1.44249e-08,-1.93118e-05,-9.13303e-06,1.89367e-05,-1.23908e-05,1.58622e-05,4.36562e-06,0
-2.81786e-05,3.26938e-06,-1.69806e-05,-1.01248e-05,1.76142e-05,-1.34477e-05,1.13496e-05,3.16616e-06,0
-2.57946e-05,5.24715e-06,-1.73271e-05,-9.00912e-06,1.35469e-05,-1.4133e-05,8.23476e-06,2.0122e-06,0
-2.58044e-05,5.90236e-06,-1.83404e-05,-4.03719e-06,1.04291e-05,-1.33281e-05,6.38458e-06,8.42101e-07,0
-2.79433e-05,4.8797e-06,-1.84167e-05,2.9164e-06,9.31193e-06,-1.2231e-05,5.67135e-06,-1.0246e-06,0
-3.00415e-05,1.8602e-06,-1.88465e-05,8.07529e-06,9.16035e-06,-1.14469e-05,6.46287e-06,-3.0853e-06,0
-3.1331e-05,-9.54789e-07,-1.98452e-05,9.28552e-06,9.29164e-06,-1.12781e-05,8.00667e-06,-3.6955e-06,0
-3.27627e-05,-8.22886e-07,-1.91062e-05,7.92152e-06,8.63802e-06,-1.13456e-05,8.96819e-06,-3.01595e-06,0
-3.43455e-05,-3.95242e-07,-1.62951e-05,5.66688e-06,7.23882e-06,-1.0336e-05,9.18468e-06,-2.27805e-06,0
-3.50933e-05,-4.91896e-07,-1.34786e-05,4.56511e-06,6.1439e-06,-9.60452e-06,9.1164e-06,-8.05855e-07,0
-3.41458e-05,1.01255e-06,-1.18869e-05,6.83061e-06,5.66718e-06,-9.77385e-06,9.68993e-06,1.73603e-06,0
-3.28063e-05,2.76107e-06,-1.02858e-05,7.95117e-06,7.19737e-06,-9.28961e-06,1.1941e-05,4.18699e-06,0
-3.29616e-05,3.69244e-06,-9.01054e-06,3.05058e-06,9.16887e-06,-9.15758e-06,1.39508e-05,5.37496e-06,0
-3.26781e-05,4.28143e-06,-8.78891e-06,-7.53886e-06,9.66069e-06,-1.03305e-05,1.42393e-05,4.13178e-06,0
-3.11194e-05,5.38796e-06,-7.41589e-06,-2.37559e-05,8.69021e-06,-1.23972e-05,1.42688e-05,1.60253e-06,0
-2.95087e-05,7.8874e-06,-6.75529e-06,-4.13491e-05,8.15671e-06,-1.36372e-05,1.39691e-05,1.13093e-06,0
-2.89899e-05,1.00022e-05,-5.34514e-06,-5.23406e-05,1.12855e-05,-1.21982e-05,1.44466e-05,2.85688e-06,0
-2.77606e-05,1.18372e-05,-2.9068e-06,-5.09399e-05,1.71606e-05,-1.03741e-05,1.60447e-05,5.02774e-06,0
-2.71007e-05,1.52902e-05,-3.88925e-06,-4.04837e-05,2.21834e-05,-8.92493e-06,1.81822e-05,6.54674e-06,0
-2.87752e-05,1.88771e-05,-6.53795e-06,-3.16706e-05,2.5949e-05,-7.66298e-06,2.02777e-05,6.04575e-06,0
-2.9423e-05,2.00766e-05,-7.89099e-06,-2.37713e-05,2.65323e-05,-7.92089e-06,2.03724e-05,3.89658e-06,0
-2.89975e-05,1.92905e-05,-6.68551e-06,-8.51356e-06,2.43077e-05,-8.76405e-06,1.82489e-05,4.17223e-06,0
-2.75651e-05,1.91571e-05,-5.91321e-06,1.43092e-05,2.12731e-05,-9.96713e-06,1.66731e-05,4.86415e-06,0
-2.6543e-05,2.00345e-05,-5.72331e-06,3.35482e-05,1.84278e-05,-1.03673e-05,1.57794e-05,3.56948e-06,0
-2.67638e-05,2.25686e-05,-3.93121e-06,3.76738e-05,1.75456e-05,-9.02265e-06,1.44039e-05,1.46002e-06,0
-2.72102e-05,2.60208e-05,-1.96165e-06,3.01402e-05,1.61424e-05,-8.17556e-06,1.56715e-05,-8.63674e-07,0
-2.77207e-05,2.87076e-05,-2.45323e-06,1.88661e-05,1.48903e-05,-9.80893e-06,2.27431e-05,-2.71227e-06,0
-2.85126e-05,2.91396e-05,-5.05037e-06,9.85668e-06,1.49462e-05,-1.25922e-05,3.25727e-05,-3.16747e-06,0
-2.96684e-05,2.89097e-05,-6.90574e-06,5.84537e-06,1.4655e-05,-1.44563e-05,3.99875e-05,-1.64345e-06,0
-3.12073e-05,2.99363e-05,-6.77002e-06,3.74213e-06,1.23874e-05,-1.54688e-05,4.41593e-05,-2.6818e-07,0
-3.23951e-05,3.22235e-05,-5.47645e-06,1.12495e-06,9.14739e-06,-1.64545e-05,4.26705e-05,3.35135e-07,0
-3.12988e-05,3.52118e-05,-5.13977e-06,-1.00642e-06,7.61785e-06,-1.73316e-05,3.4161e-05,1.43546e-06,0
-2.89336e-05,3.61527e-05,-5.37709e-06,6.64582e-07,8.66006e-06,-1.72978e-05,2.13413e-05,3.51303e-06,0
-2.82873e-05,3.45993e-05,-4.65519e-06,4.03064e-06,1.07932e-05,-1.68695e-05,7.43226e-06,4.20897e-06,0
-3.01899e-05,3.34051e-05,-2.8097e-06,4.4733e-06,1.17416e-05,-1.65321e-05,-5.20463e-06,3.98483e-06,0
-3.16175e-05,3.4826e-05,-1.53217e-06,2.76238e-06,1.09589e-05,-1.58555e-05,-1.46917e-05,4.55041e-06,0
-3.07939e-05,3.72857e-05,-1.51999e-06,4.70002e-06,9.32585e-06,-1.39774e-05,-2.02361e-05,5.62652e-06,0
-2.91614e-05,3.82536e-05,-2.48994e-06,1.50619e-05,9.09783e-06,-1.15038e-05,-2.14421e-05,4.72113e-06,0
-2.84182e-05,3.57071e-05,-3.4543e-06,2.92711e-05,9.80496e-06,-1.00266e-05,-1.75882e-05,1.79223e-06,0
-2.77518e-05,3.17857e-05,-3.33731e-06,3.84407e-05,1.03057e-05,-8.67884e-06,-9.76184e-06,7.24585e-07,0
-2.73556e-05,3.20446e-05,-1.62149e-06,4.09259e-05,1.10286e-05,-6.94967e-06,-4.96731e-06,1.73803e-06,0
-2.77038e-05,3.55618e-05,-2.18362e-07,3.84777e-05,1.01015e-05,-6.38908e-06,-1.37195e-05,1.72285e-06,0
-2.81345e-05,3.71025e-05,-7.23198e-07,3.15501e-05,8.55145e-06,-6.81827e-06,-3.52528e-05,7.4514e-07,0
-2.86609e-05,3.5582e-05,-7.95094e-07,1.95003e-05,7.19773e-06,-8.84451e-06,-5.44428e-05,4.7849e-07,0
-2.79455e-05,3.45901e-05,2.15008e-07,5.1309e-06,4.52703e-06,-1.04646e-05,-5.46309e-05,3.88142e-07,0
-2.71531e-05,3.48785e-05,5.25891e-07,-1.0232e-05,2.50312e-06,-7.41066e-06,-4.11408e-05,-8.34848e-07,0
-2.74977e-05,3.27051e-05,-1.36611e-07,-2.88282e-05,2.19866e-06,-3.82374e-06,-2.68195e-05,-1.7056e-06,0
-2.69375e-05,2.90303e-05,-8.66532e-07,-4.26816e-05,4.42416e-06,-3.21278e-06,-1.26447e-05,-1.25146e-06,0
-2.6383e-05,2.53772e-05,-2.25006e-06,-4.43762e-05,7.64598e-06,-3.41949e-06,1.70282e-06,-9.64151e-07,0
-2.64987e-05,2.05544e-05,-4.90922e-06,-3.92837e-05,9.95059e-06,-2.48278e-06,1.57983e-05,-1.43899e-06,0
-2.56879e-05,1.38963e-05,-8.21895e-06,-3.04615e-05,1.26649e-05,-5.94242e-07,2.58694e-05,-2.15221e-06,0
-2.50186e-05,8.97767e-06,-1.12387e-05,-1.7769e-05,1.7159e-05,6.83239e-07,3.00784e-05,-1.74008e-06,0
-2.5411e-05,6.29236e-06,-1.33811e-05,-8.30258e-06,1.98233e-05,8.55784e-07,3.15341e-05,-1.24436e-06,0
-2.60256e-05,3.01244e-06,-1.47399e-05,-5.87162e-06,1.86676e-05,-1.27174e-06,3.31235e-05,-1.41816e-06,0
-2.73362e-05,6.27866e-07,-1.53435e-05,-8.665e-06,1.75669e-05,-3.87311e-06,3.3049e-05,-1.8762e-06,0
-2.89942e-05,1.46769e-06,-1.59184e-05,-1.34162e-05,1.73566e-05,-5.45856e-06,2.84243e-05,-1.67851e-06,0
-2.9337e-05,6.31781e-06,-1.63551e-05,-1.61277e-05,1.63171e-05,-6.93745e-06,2.16121e-05,-1.51528e-06,0
-2.94903e-05,1.23398e-05,-1.56499e-05,-1.56136e-05,1.42921e-05,-7.45573e-06,1.77702e-05,-1.77783e-06,0
-3.08636e-05,1.7201e-05,-1.34654e-05,-1.39405e-05,1.26824e-05,-6.45619e-06,1.94127e-05,-2.3369e-06,0
-3.21139e-05,1.95221e-05,-1.07951e-05,-1.41558e-05,1.12312e-05,-5.98128e-06,2.41714e-05,-2.36263e-06,0
-3.19202e-05,2.04492e-05,-8.89908e-06,-1.75806e-05,1.00758e-05,-6.921e-06,2.77793e-05,-1.81423e-06,0
-3.0385e-05,2.17711e-05,-8.70175e-06,-2.30259e-05,8.78631e-06,-6.8817e-06,2.74207e-05,-2.51737e-06,0
-2.94143e-05,2.45781e-05,-1.0158e-05,-2.71205e-05,6.50296e-06,-5.91238e-06,2.4052e-05,-3.70616e-06,0
-2.94642e-05,2.81972e-05,-1.07522e-05,-2.72421e-05,2.96263e-06,-5.62101e-06,2.09855e-05,-2.90381e-06,0
-2.86803e-05,2.95348e-05,-9.9893e-06,-2.4577e-05,3.46677e-07,-5.32352e-06,1.99313e-05,-6.5296e-07,0
-2.84621e-05,2.68028e-05,-9.29169e-06,-2.11247e-05,1.07571e-06,-3.92287e-06,1.99739e-05,1.51672e-06,0
-2.78157e-05,2.25874e-05,-9.49364e-06,-1.60622e-05,4.42797e-06,-2.78735e-06,1.85806e-05,3.55358e-06,0
-2.60581e-05,2.07348e-05,-1.05882e-05,-8.44565e-06,8.83102e-06,-3.85866e-06,1.60642e-05,2.51506e-06,0
-2.67699e-05,2.16901e-05,-1.19911e-05,-1.08809e-06,1.20821e-05,-5.39033e-06,1.55041e-05,-6.82865e-07,0
-2.93092e-05,2.44585e-05,-1.26079e-05,-4.74935e-07,1.28397e-05,-7.14409e-06,1.52519e-05,-2.45775e-06,0
-3.17795e-05,2.71944e-05,-1.2301e-05,-5.8054e-06,1.58333e-05,-1.0061e-05,1.45774e-05,-3.93255e-06,0
-3.12306e-05,2.85532e-05,-1.15557e-05,-8.02872e-06,2.31643e-05,-1.22353e-05,1.54134e-05,-5.59173e-06,0
-2.71946e-05,2.8766e-05,-1.00655e-05,-6.71031e-06,2.68629e-05,-1.35353e-05,1.7502e-05,-4.86185e-06,0
-2.4576e-05,2.67149e-05,-8.25604e-06,-7.60275e-06,2.512e-05,-1.35837e-05,1.96144e-05,-1.67827e-06,0
-2.56219e-05,2.43477e-05,-7.33008e-06,-1.23314e-05,2.24292e-05,-1.28938e-05,2.07417e-05,1.05729e-06,0
-2.95055e-05,2.44672e-05,-8.00459e-06,-1.70273e-05,2.16084e-05,-1.20592e-05,2.03571e-05,2.0932e-06,0
-3.13265e-05,2.53526e-05,-8.16926e-06,-1.28772e-05,2.1721e-05,-1.0636e-05,1.93219e-05,2.50341e-06,0
-3.07769e-05,2.55228e-05,-6.36051e-06,2.05454e-06,2.16978e-05,-8.96239e-06,1.8658e-05,2.09387e-06,0
-3.07779e-05,2.47115e-05,-4.61176e-06,1.9769e-05,2.31259e-05,-9.14132e-06,1.82251e-05,1.23632e-06,0
-3.00462e-05,2.33301e-05,-4.18736e-06,3.10517e-05,2.47962e-05,-9.62993e-06,1.88916e-05,1.00346e-06,0
-2.81322e-05,2.21704e-05,-4.99328e-06,3.32963e-05,2.63779e-05,-9.41833e-06,1.86201e-05,1.28107e-06,0
-2.69882e-05,2.12932e-05,-5.47059e-06,3.0747e-05,2.87042e-05,-9.69993e-06,1.62957e-05,1.58129e-06,0
-2.72068e-05,1.89939e-05,-4.59656e-06,2.6039e-05,3.03465e-05,-9.85384e-06,1.38418e-05,3.0638e-06,0
-2.81121e-05,1.6251e-05,-2.43221e-06,1.9345e-05,2.95841e-05,-1.04471e-05,1.32717e-05,4.82064e-06,0
-2.94689e-05,1.37982e-05,-2.97376e-07,1.31384e-05,2.68798e-05,-1.18737e-05,1.43567e-05,4.92446e-06,0
-2.9984e-05,1.13854e-05,-4.62392e-07,1.06298e-05,2.35952e-05,-1.3382e-05,1.51712e-05,4.56475e-06,0
-3.04891e-05,9.18557e-06,-2.87036e-06,1.16359e-05,1.93148e-05,-1.30241e-05,1.42614e-05,4.39043e-06,0
-3.12676e-05,7.61911e-06,-6.07404e-06,1.23787e-05,1.48169e-05,-1.18623e-05,1.11458e-05,4.44245e-06,0
-3.19134e-05,6.83036e-06,-8.45116e-06,9.38738e-06,1.31192e-05,-1.13195e-05,7.36858e-06,5.06186e-06,0
-3.17448e-05,6.53371e-06,-9.03472e-06,5.29164e-06,1.57995e-05,-1.1135e-05,5.39184e-06,5.62221e-06,0
-3.08933e-05,6.41883e-06,-8.46748e-06,4.62625e-06,2.05584e-05,-1.06643e-05,6.85872e-06,4.53781e-06,0
-3.12699e-05,5.80417e-06,-7.0107e-06,6.67045e-06,2.43659e-05,-1.09798e-05,1.19624e-05,2.67181e-06,0
-3.31113e-05,5.4937e-06,-3.81801e-06,7.87902e-06,2.69884e-05,-1.1299e-05,1.92539e-05,1.16209e-06,0
-3.48686e-05,6.68058e-06,-1.62889e-06,5.54352e-06,2.78142e-05,-9.9493e-06,2.37055e-05,4.12917e-07,0
-3.49242e-05,7.12587e-06,-2.24183e-06,-1.83535e-06,2.58466e-05,-8.61629e-06,2.47671e-05,-1.23043e-07,0
-3.45667e-05,4.6586e-06,-4.12705e-06,-1.25097e-05,2.16062e-05,-1.03229e-05,2.48093e-05,7.30338e-07,0
-3.4283e-05,2.19342e-06,-6.18915e-06,-2.35372e-05,1.81048e-05,-1.22724e-05,2.35291e-05,3.15995e-06,0
-3.28228e-05,2.28013e-06,-6.66765e-06,-3.6522e-05,1.86586e-05,-1.16887e-05,2.13934e-05,3.382e-06,0
-3.1591e-05,4.67954e-06,-5.39755e-06,-4.60863e-05,2.15853e-05,-1.08398e-05,1.96372e-05,7.96698e-07,0
-3.04e-05,6.37282e-06,-2.81603e-06,-4.66973e-05,2.08097e-05,-1.08182e-05,1.77503e-05,-1.82873e-06,0
-2.95285e-05,7.05835e-06,-7.482e-08,-4.01387e-05,1.67087e-05,-1.13382e-05,1.61081e-05,-2.89135e-06,0
-2.912e-05,8.90415e-06,-1.86508e-07,-2.79188e-05,1.29904e-05,-1.16508e-05,1.57242e-05,-3.49841e-06,0
-2.96781e-05,1.03094e-05,-2.19871e-06,-1.81992e-05,9.53781e-06,-1.04442e-05,1.49048e-05,-3.30546e-06,0
-3.04836e-05,8.95612e-06,-3.58356e-06,-1.34041e-05,8.96881e-06,-7.30363e-06,1.337e-05,-1.21656e-06,0
-2.88637e-05,6.89534e-06,-3.66442e-06,-8.78538e-06,1.0758e-05,-4.98982e-06,9.13109e-06,1.70701e-06,0
-2.72736e-05,5.98871e-06,-4.45633e-06,-3.98232e-06,1.12484e-05,-4.52813e-06,2.05774e-06,2.66773e-06,0
-2.73329e-05,6.96898e-06,-6.40711e-06,-3.84912e-06,9.11408e-06,-5.37415e-06,-2.9809e-06,1.97348e-06,0
-2.70956e-05,9.17297e-06,-7.72081e-06,-8.80347e-06,6.00899e-06,-6.4951e-06,-3.4269e-06,3.1943e-06,0
-2.66611e-05,1.08797e-05,-8.74703e-06,-1.5595e-05,4.35839e-06,-7.0621e-06,1.28746e-07,6.00723e-06,0
-2.71703e-05,1.05449e-05,-1.0127e-05,-2.31958e-05,4.64751e-06,-7.19555e-06,6.74961e-06,7.96801e-06,0
-2.76697e-05,7.72123e-06,-1.303e-05,-2.97986e-05,5.49851e-06,-7.7403e-06,1.45178e-05,7.08387e-06,0
-2.83122e-05,4.64732e-06,-1.82786e-05,-3.17471e-05,6.04825e-06,-9.00797e-06,2.06336e-05,5.5704e-06,0
-2.98131e-05,2.26787e-06,-2.44547e-05,-2.50551e-05,7.12007e-06,-1.15874e-05,2.47016e-05,5.63899e-06,0
-3.14818e-05,7.71446e-07,-2.76856e-05,-1.29703e-05,8.80358e-06,-1.46684e-05,2.62367e-05,4.98475e-06,0
-3.25428e-05,-9.9442e-07,-2.77543e-05,-2.34629e-06,9.90644e-06,-1.5485e-05,2.51653e-05,2.11108e-06,0
-3.307e-05,-3.60353e-06,-2.70847e-05,4.66692e-06,9.44223e-06,-1.37895e-05,2.40094e-05,-1.52578e-06,0
-3.29422e-05,-6.23198e-06,-2.61419e-05,1.08383e-05,7.95078e-06,-1.26261e-05,2.39941e-05,-3.66113e-06,0
-3.26077e-05,-8.4309e-06,-2.49396e-05,1.62151e-05,6.22969e-06,-1.36118e-05,2.4437e-05,-3.51173e-06,0
-3.26796e-05,-9.73219e-06,-2.38664e-05,1.85115e-05,4.82054e-06,-1.52541e-05,2.62928e-05,-3.23947e-06,0
-3.34863e-05,-8.94594e-06,-2.3237e-05,1.76253e-05,4.09229e-06,-1.55315e-05,2.84477e-05,-5.55484e-06,0
-3.44226e-05,-6.4957e-06,-2.17533e-05,1.86244e-05,5.74504e-06,-1.29009e-05,2.75236e-05,-8.87327e-06,0
-3.4965e-05,-4.39216e-06,-1.82697e-05,2.33271e-05,9.81638e-06,-9.90365e-06,2.32671e-05,-9.81231e-06,0
-3.43707e-05,-4.83643e-06,-1.4395e-05,2.78455e-05,1.24386e-05,-8.47274e-06,1.78727e-05,-7.7668e-06,0
-3.36879e-05,-7.57656e-06,-1.13372e-05,2.67046e-05,1.03337e-05,-7.88309e-06,1.39973e-05,-6.78206e-06,0
-3.40516e-05,-8.82217e-06,-1.00442e-05,1.83589e-05,6.40729e-06,-7.89044e-06,1.23421e-05,-6.96247e-06,0
-3.44856e-05,-7.86773e-06,-1.18058e-05,9.44912e-06,5.35837e-06,-7.10104e-06,1.21829e-05,-5.50174e-06,0
-3.55177e-05,-6.3696e-06,-1.29084e-05,7.78635e-07,7.97191e-06,-6.74066e-06,1.36986e-05,-3.50611e-06,0
-3.4882e-05,-4.57112e-06,-1.12696e-05,-1.15918e-05,8.69901e-06,-6.75131e-06,1.48955e-05,-2.71613e-06,0
-3.27828e-05,-3.16081e-06,-9.06883e-06,-2.24029e-05,6.76423e-06,-5.49022e-06,1.09237e-05,-1.66821e-06,0
-3.23722e-05,-1.8052e-06,-7.33573e-06,-2.74242e-05,6.25243e-06,-5.38737e-06,1.80646e-06,3.34442e-07,0
-3.25244e-05,1.20107e-06,-6.52303e-06,-2.73045e-05,6.41886e-06,-6.666e-06,-6.98513e-06,4.547e-07,0
-3.16409e-05,5.15254e-06,-5.95225e-06,-2.10132e-05,6.1702e-06,-8.30047e-06,-1.5671e-05,-1.03047e-06,0
-3.05872e-05,7.40916e-06,-6.27141e-06,-1.39955e-05,4.94469e-06,-8.56401e-06,-2.66487e-05,-6.66632e-07,0
-3.04043e-05,5.96406e-06,-5.94318e-06,-9.59998e-06,5.06767e-06,-7.96426e-06,-3.26617e-05,1.93302e-06,0
-3.03688e-05,2.2676e-06,-4.42994e-06,-6.85497e-06,8.01443e-06,-8.80006e-06,-2.50889e-05,4.24069e-06,0
-2.98163e-05,6.54077e-07,-3.47882e-06,-5.4028e-06,1.10156e-05,-1.02162e-05,-6.33241e-06,5.39667e-06,0
-2.89684e-05,1.16068e-06,-3.83603e-06,-5.90327e-06,1.15977e-05,-1.09281e-05,1.33292e-05,5.52435e-06,0
-2.90558e-05,1.35136e-06,-4.94633e-06,-8.44546e-06,1.16816e-05,-1.05417e-05,2.6773e-05,5.40306e-06,0
-2.96047e-05,1.52587e-06,-4.51048e-06,-1.05458e-05,1.34181e-05,-9.23675e-06,3.50242e-05,5.73528e-06,0
-3.00661e-05,2.82271e-06,-2.74502e-06,-1.13619e-05,1.62469e-05,-7.92585e-06,4.21909e-05,6.62355e-06,0
-3.08017e-05,5.92861e-06,-1.42665e-06,-1.00774e-05,1.79071e-05,-7.63366e-06,4.75242e-05,6.74513e-06,0
-3.07997e-05,1.02958e-05,-2.39485e-06,-6.27344e-06,1.70843e-05,-7.07684e-06,4.81222e-05,6.2716e-06,0
-2.99948e-05,1.34712e-05,-3.87702e-06,-2.40686e-06,1.57726e-05,-7.12787e-06,4.34397e-05,6.52805e-06,0
-2.87869e-05,1.33228e-05,-3.90636e-06,-1.80357e-06,1.61839e-05,-9.34472e-06,3.60192e-05,7.44621e-06,0
-2.72168e-05,1.13054e-05,-2.66162e-06,-2.2548e-06,1.71725e-05,-1.17638e-05,2.93223e-05,6.82212e-06,0
-2.6125e-05,1.10249e-05,-1.74846e-06,-2.24461e-06,1.68092e-05,-1.17401e-05,2.47435e-05,4.47597e-06,0
-2.64753e-05,1.45489e-05,-2.4897e-06,-2.67341e-06,1.60316e-05,-1.01463e-05,2.17627e-05,3.91385e-06,0
-2.67645e-05,2.24887e-05,-3.41446e-06,-1.79282e-06,1.6946e-05,-9.24145e-06,1.74832e-05,6.00645e-06,0
-2.70102e-05,3.50032e-05,-3.74517e-06,-1.23952e-07,1.85107e-05,-9.94005e-06,1.15949e-05,8.283e-06,0
-2.77557e-05,4.71561e-05,-4.65947e-06,1.24741e-06,1.7978e-05,-1.21346e-05,7.87328e-06,7.90863e-06,0
-2.91372e-05,5.55278e-05,-3.99831e-06,2.32717e-07,1.60079e-05,-1.36918e-05,5.96498e-06,6.2306e-06,0
-2.99724e-05,5.96681e-05,-2.21377e-06,-4.86e-06,1.60029e-05,-1.34106e-05,2.90249e-06,4.938e-06,0
-2.86202e-05,5.46932e-05,-1.10372e-06,-1.08266e-05,1.70277e-05,-1.23518e-05,-2.95537e-08,5.46417e-06,0
-2.80878e-05,4.08702e-05,3.35657e-07,-1.41188e-05,1.67488e-05,-1.2207e-05,-2.12446e-06,6.50708e-06,0
-2.76933e-05,2.57978e-05,-6.71953e-07,-1.5092e-05,1.66962e-05,-1.25355e-05,-3.03725e-06,6.27219e-06,0
-2.7884e-05,1.2637e-05,-2.32662e-06,-1.5092e-05,1.72798e-05,-1.25924e-05,-2.95684e-06,5.38343e-06,0
-2.99365e-05,3.27708e-06,-2.92267e-06,-1.39786e-05,1.89675e-05,-1.18083e-05,-3.17979e-06,4.81665e-06,0
-3.14414e-05,-4.98771e-07,-2.85167e-06,-1.48045e-05,1.75284e-05,-1.15233e-05,-3.59633e-06,3.87412e-06,0
-3.15689e-05,2.13511e-07,-1.39031e-06,-1.53101e-05,1.47587e-05,-1.30706e-05,-4.9318e-06,2.80992e-06,0
-2.99474e-05,5.95984e-06,1.00727e-06,-1.13825e-05,1.53512e-05,-1.40948e-05,-5.41e-06,3.15824e-06,0
-2.9024e-05,1.43291e-05,3.57992e-06,-5.75105e-06,1.72977e-05,-1.38018e-05,-3.85681e-06,1.57685e-06,0
-2.91969e-05,2.10044e-05,4.5989e-06,3.05444e-07,1.89136e-05,-1.3836e-05,-1.19e-06,-1.53709e-06,0
-3.11932e-05,2.36185e-05,4.07955e-06,5.50541e-06,1.86661e-05,-1.3979e-05,2.34017e-06,-3.29837e-06,0
-3.38273e-05,2.16668e-05,1.79452e-06,7.22357e-06,1.77998e-05,-1.25004e-05,7.17494e-06,-2.66428e-06,0
-3.43324e-05,1.7053e-05,-1.16867e-06,4.4587e-06,1.63884e-05,-1.14078e-05,1.30577e-05,-2.12657e-06,0
-3.26795e-05,1.19407e-05,-4.75824e-06,8.44571e-07,1.53431e-05,-1.20247e-05,1.72341e-05,-3.24398e-06,0
-3.21583e-05,6.74854e-06,-8.88139e-06,-3.36075e-06,1.52762e-05,-1.28604e-05,1.86366e-05,-4.00579e-06,0
-3.46283e-05,1.77001e-06,-1.24896e-05,-1.14999e-05,1.54837e-05,-1.31537e-05,1.81826e-05,-2.82893e-06,0
-3.66455e-05,-4.7664e-07,-1.54556e-05,-1.97399e-05,1.51074e-05,-1.30413e-05,1.69008e-05,-1.01387e-06,0
-3.61131e-05,2.37067e-06,-1.68053e-05,-1.89272e-05,1.45636e-05,-1.2191e-05,1.52251e-05,-7.89295e-07,0
-3.49072e-05,8.28248e-06,-1.56408e-05,-9.12114e-06,1.45695e-05,-1.09043e-05,1.36428e-05,-1.70461e-06,0
-3.568e-05,1.35348e-05,-1.1502e-05,-7.68987e-07,1.49853e-05,-1.03319e-05,1.32935e-05,-3.0498e-06,0
-3.66065e-05,1.65666e-05,-7.46739e-06,5.40959e-07,1.4929e-05,-9.17278e-06,1.35872e-05,-4.42806e-06,0
-3.56684e-05,1.55657e-05,-7.76935e-06,-2.98993e-06,1.24701e-05,-6.88597e-06,1.27418e-05,-4.86366e-06,0
-3.36074e-05,1.14139e-05,-1.20817e-05,-5.92852e-06,9.35565e-06,-6.50017e-06,1.18867e-05,-4.20175e-06,0
-3.22568e-05,7.75037e-06,-1.45882e-05,-4.94028e-06,5.87447e-06,-8.55931e-06,1.13943e-05,-4.17431e-06,0
-3.23051e-05,6.6071e-06,-1.40192e-05,-2.57364e-06,2.66198e-06,-1.04843e-05,9.11948e-06,-4.0107e-06,0
-3.38011e-05,8.57756e-06,-1.41543e-05,-1.57887e-06,2.83741e-06,-1.15412e-05,4.85126e-06,-3.29509e-06,0
-3.41348e-05,1.38035e-05,-1.61375e-05,-2.82193e-06,4.68123e-06,-1.25721e-05,5.06095e-06,-3.65365e-06,0
-3.37533e-05,1.95831e-05,-1.85394e-05,-5.85089e-06,5.93141e-06,-1.35608e-05,1.17499e-05,-5.07432e-06,0
-3.22259e-05,2.31839e-05,-1.91796e-05,-9.05134e-06,4.9583e-06,-1.39768e-05,1.54652e-05,-5.26506e-06,0
-3.00041e-05,2.66283e-05,-1.89506e-05,-1.34232e-05,3.20114e-06,-1.37919e-05,1.47897e-05,-4.41866e-06,0
-2.82988e-05,2.98997e-05,-1.87666e-05,-1.60192e-05,3.85945e-06,-1.34996e-05,1.32811e-05,-4.83276e-06,0
-2.72813e-05,3.28759e-05,-1.91289e-05,-1.55515e-05,5.40619e-06,-1.33309e-05,1.13828e-05,-5.90207e-06,0
-2.79062e-05,3.36749e-05,-1.8632e-05,-1.25807e-05,7.96594e-06,-1.30024e-05,9.37651e-06,-4.84292e-06,0
-2.79877e-05,3.07195e-05,-1.52274e-05,-6.84454e-06,1.24823e-05,-1.21406e-05,7.61512e-06,-3.26339e-06,0
-2.85415e-05,2.74362e-05,-1.20204e-05,-1.75315e-06,1.68418e-05,-9.83118e-06,6.65868e-06,-3.06745e-06,0
-2.87107e-05,2.79494e-05,-9.31127e-06,1.7222e-06,1.9245e-05,-8.68497e-06,6.33438e-06,-2.99921e-06,0
-2.81555e-05,3.52904e-05,-6.4337e-06,1.05566e-05,2.34489e-05,-8.41164e-06,6.597e-06,-2.94013e-06,0
-2.87679e-05,4.49886e-05,-5.26705e-06,2.83132e-05,3.00684e-05,-7.53726e-06,6.27185e-06,-3.17989e-06,0
-3.00209e-05,4.97241e-05,-6.45744e-06,4.3466e-05,3.32295e-05,-6.75587e-06,6.20352e-06,-3.97802e-06,0
-3.05932e-05,4.9478e-05,-7.69767e-06,4.7455e-05,3.10987e-05,-6.37192e-06,6.23818e-06,-5.32084e-06,0
-3.0807e-05,4.68222e-05,-7.54808e-06,4.32463e-05,2.61741e-05,-6.3823e-06,5.70835e-06,-5.94874e-06,0
-3.01281e-05,4.1798e-05,-6.29594e-06,3.69128e-05,2.13016e-05,-7.58963e-06,4.99246e-06,-4.33565e-06,0
-2.90238e-05,3.61648e-05,-4.69128e-06,3.37698e-05,1.79196e-05,-1.03939e-05,4.468e-06,-1.57665e-06,0
-2.92531e-05,3.2421e-05,-4.14442e-06,3.63188e-05,1.61374e-05,-1.18645e-05,4.53658e-06,-7.22683e-09,0
-3.04624e-05,2.97176e-05,-3.71717e-06,3.7161e-05,1.54225e-05,-1.0699e-05,5.27025e-06,-4.05766e-07,0
-3.16038e-05,2.43181e-05,-2.53288e-06,2.77303e-05,1.49105e-05,-8.3557e-06,7.27836e-06,-1.44101e-06,0
-3.21847e-05,1.40043e-05,-1.60351e-06,9.80088e-06,1.43067e-05,-6.70026e-06,9.91998e-06,-1.86037e-06,0
-3.1332e-05,2.32608e-06,-3.78273e-06,-1.12225e-05,1.31286e-05,-5.7102e-06,1.09087e-05,-2.07189e-06,0
-2.90099e-05,-5.15811e-06,-1.00663e-05,-3.22666e-05,1.14e-05,-6.39842e-06,9.54733e-06,-2.01558e-06,0
-2.83768e-05,-7.4623e-06,-1.80102e-05,-5.01633e-05,9.10583e-06,-7.96764e-06,7.92191e-06,-5.24207e-07,0
-2.94142e-05,-6.40592e-06,-2.16004e-05,-6.02177e-05,6.96082e-06,-7.54916e-06,6.97161e-06,4.0982e-07,0
-3.02754e-05,-3.75317e-06,-1.99576e-05,-6.05716e-05,5.75979e-06,-6.49109e-06,7.75415e-06,-2.00194e-07,0
-3.04621e-05,2.23742e-07,-1.71501e-05,-5.36139e-05,5.963e-06,-6.73303e-06,1.02297e-05,-4.40301e-07,0
-2.94997e-05,3.08848e-06,-1.33538e-05,-4.85512e-05,8.31432e-06,-7.93607e-06,1.34456e-05,1.53615e-08,0
-2.8215e-05,5.76764e-06,-1.17826e-05,-5.20241e-05,7.45129e-06,-9.63177e-06,1.83673e-05,6.53242e-07,0
-2.59107e-05,1.02969e-05,-1.2823e-05,-5.73593e-05,3.82432e-06,-9.14241e-06,2.90839e-05,5.69906e-07,0
-2.38701e-05,1.39142e-05,-1.05032e-05,-5.32639e-05,1.53815e-06,-8.26299e-06,4.63772e-05,-2.90641e-07,0
-2.33372e-05,1.62837e-05,-6.62509e-06,-4.05389e-05,4.89651e-07,-6.87875e-06,6.31794e-05,7.3682e-07,0
-2.45469e-05,1.60894e-05,-6.02911e-06,-2.93436e-05,2.14376e-06,-4.62647e-06,7.20767e-05,2.20826e-06,0
-2.55818e-05,1.39539e-05,-8.42406e-06,-2.42954e-05,4.48498e-06,-2.62686e-06,7.08776e-05,1.44806e-06,0
-2.45584e-05,1.40252e-05,-1.09592e-05,-1.94485e-05,6.47702e-06,-7.61058e-07,6.05733e-05,7.29743e-07,0
-2.62333e-05,1.59737e-05,-1.1957e-05,-9.65912e-06,7.29884e-06,-4.01193e-07,4.38505e-05,2.6452e-06,0
-2.88287e-05,1.55226e-05,-1.23789e-05,3.18836e-06,6.60524e-06,-9.04603e-07,2.44433e-05,5.23921e-06,0
-2.93443e-05,1.08101e-05,-1.2148e-05,1.51951e-05,6.22502e-06,-2.13763e-06,2.68807e-06,5.34645e-06,0
-2.93722e-05,3.40651e-06,-1.1991e-05,2.33482e-05,6.52229e-06,-1.55744e-06,-2.28278e-05,4.01769e-06,0
-3.06096e-05,-4.28702e-06,-1.17948e-05,2.79465e-05,6.89994e-06,3.55605e-07,-4.55618e-05,3.82636e-06,0
-3.25227e-05,-1.02159e-05,-1.06899e-05,2.72921e-05,7.5062e-06,1.70964e-06,-5.65404e-05,3.35781e-06,0
-3.42474e-05,-1.29196e-05,-9.04747e-06,2.07004e-05,9.50165e-06,8.67752e-07,-5.424e-05,1.00484e-06,0
-3.51128e-05,-1.21834e-05,-6.80794e-06,1.13845e-05,1.16114e-05,-1.00378e-06,-4.27856e-05,-1.61594e-06,0
-3.4157e-05,-8.77869e-06,-4.74881e-06,4.16929e-06,1.159e-05,-2.42951e-06,-2.83499e-05,-3.72506e-06,0
-3.30312e-05,-4.57581e-06,-4.54664e-06,2.0455e-06,8.91289e-06,-2.29942e-06,-1.52287e-05,-4.59568e-06,0
-3.2265e-05,-7.67592e-07,-6.0025e-06,2.14595e-06,5.69819e-06,-1.94753e-06,-5.55054e-06,-4.16104e-06,0
-3.20479e-05,3.17168e-06,-7.84563e-06,-2.51968e-06,3.89346e-06,-3.85846e-06,-3.65822e-07,-3.88883e-06,0
-3.20013e-05,6.29444e-06,-1.02912e-05,-1.30723e-05,3.78729e-06,-6.56402e-06,5.4762e-07,-5.18176e-06,0
-3.08834e-05,7.13361e-06,-1.31904e-05,-2.18843e-05,4.36719e-06,-8.45831e-06,1.42737e-07,-7.19145e-06,0
-2.972e-05,6.53498e-06,-1.55129e-05,-2.04638e-05,5.09147e-06,-9.41959e-06,8.36606e-07,-8.35492e-06,0
-3.02351e-05,5.00845e-06,-1.54943e-05,-6.87334e-06,8.77814e-06,-9.56973e-06,3.30287e-06,-8.80866e-06,0
-3.16301e-05,2.51043e-06,-1.27066e-05,1.03536e-05,1.63423e-05,-8.56558e-06,5.23786e-06,-9.92692e-06,0
-3.30248e-05,1.1761e-06,-8.63381e-06,1.96675e-05,2.18707e-05,-8.24572e-06,5.90786e-06,-8.35164e-06,0
-3.29579e-05,1.76602e-06,-6.25728e-06,1.51734e-05,2.10484e-05,-8.20804e-06,7.48647e-06,-3.9473e-06,0
-3.21605e-05,3.41819e-06,-5.21666e-06,1.04261e-06,1.86816e-05,-7.14328e-06,1.05064e-05,1.05023e-06,0
-3.09317e-05,6.27789e-06,-3.31035e-06,-1.2055e-05,1.72707e-05,-5.35889e-06,1.37358e-05,3.23889e-06,0
-2.95732e-05,8.09809e-06,-2.356e-06,-1.81232e-05,1.53714e-05,-6.01965e-06,1.68079e-05,2.80254e-06,0
-2.93173e-05,1.01574e-05,-2.75673e-06,-1.8218e-05,1.40503e-05,-6.5843e-06,1.99164e-05,4.03831e-06,0
-2.94119e-05,1.31987e-05,-2.1794e-06,-1.55875e-05,1.41523e-05,-5.74673e-06,2.11832e-05,3.9723e-06,0
-3.05754e-05,1.38041e-05,-1.50285e-06,-1.28225e-05,1.82309e-05,-5.65992e-06,1.92946e-05,4.03232e-06,0
-3.29849e-05,1.17084e-05,-1.78939e-06,-1.36645e-05,2.20668e-05,-6.00696e-06,1.63498e-05,4.91311e-06,0
-3.42052e-05,8.54702e-06,-2.42822e-06,-1.822e-05,2.17378e-05,-8.00622e-06,1.58003e-05,4.5999e-06,0
-3.4969e-05,7.52123e-06,-3.70271e-06,-2.07165e-05,2.0167e-05,-9.35498e-06,1.75212e-05,3.27344e-06,0
-3.56705e-05,9.22484e-06,-5.1151e-06,-1.91543e-05,1.76523e-05,-9.7212e-06,2.0096e-05,1.64449e-06,0
-3.53567e-05,1.23766e-05,-6.44323e-06,-1.28341e-05,1.63329e-05,-1.04568e-05,2.1776e-05,-5.1185e-08,0
-3.44617e-05,1.44459e-05,-6.22373e-06,-7.65291e-06,1.80851e-05,-1.12282e-05,2.24081e-05,-2.99546e-07,0
-3.32377e-05,1.40874e-05,-4.46215e-06,-1.20816e-05,2.07592e-05,-1.24318e-05,2.28785e-05,1.21373e-06,0
-3.32638e-05,1.12693e-05,-3.20383e-06,-2.48701e-05,1.96553e-05,-1.40529e-05,2.37436e-05,2.99423e-06,0
-3.48464e-05,6.84989e-06,-3.69718e-06,-3.47168e-05,1.45159e-05,-1.52621e-05,2.44749e-05,4.99672e-06,0
-3.64609e-05,3.47351e-06,-5.18755e-06,-3.54213e-05,9.46616e-06,-1.55179e-05,2.47773e-05,6.21095e-06,0
-3.61043e-05,2.48012e-06,-6.59412e-06,-3.21009e-05,7.8616e-06,-1.46455e-05,2.58521e-05,6.59073e-06,0
-3.41298e-05,2.35028e-06,-7.0294e-06,-2.88838e-05,9.80982e-06,-1.35354e-05,2.78984e-05,6.61612e-06,0
-3.09715e-05,2.40273e-06,-6.66363e-06,-2.3275e-05,1.19224e-05,-1.35211e-05,2.9034e-05,5.75727e-06,0
-2.82411e-05,4.83911e-06,-7.00028e-06,-7.30227e-06,1.20184e-05,-1.43637e-05,2.79258e-05,4.35164e-06,0
-2.78841e-05,8.66621e-06,-7.5274e-06,1.90149e-05,1.11376e-05,-1.51466e-05,2.56616e-05,5.04269e-06,0
-2.99646e-05,9.8187e-06,-7.18226e-06,4.45039e-05,1.13052e-05,-1.56676e-05,2.38987e-05,7.14774e-06,0
-3.16687e-05,6.9567e-06,-5.13731e-06,5.68334e-05,1.2455e-05,-1.49254e-05,2.3213e-05,7.1748e-06,0
-3.12305e-05,5.36337e-06,-2.52736e-06,5.57992e-05,1.27801e-05,-1.3652e-05,2.20328e-05,5.58678e-06,0
-2.97347e-05,8.16672e-06,-2.1025e-06,5.07681e-05,1.3474e-05,-1.38386e-05,2.04182e-05,4.46163e-06,0
-2.79825e-05,1.16052e-05,-2.8877e-06,4.39155e-05,1.73727e-05,-1.36694e-05,1.96141e-05,3.8871e-06,0
-2.77653e-05,1.09781e-05,-3.12482e-06,3.40388e-05,2.15525e-05,-1.3087e-05,1.98027e-05,4.7251e-06,0
-2.83513e-05,6.42558e-06,-2.41915e-06,2.21603e-05,2.32683e-05,-1.29612e-05,1.8037e-05,4.9898e-06,0
-2.89064e-05,3.84928e-06,-1.73202e-06,1.23298e-05,2.12759e-05,-1.34202e-05,1.43944e-05,3.18476e-06,0
-2.9244e-05,3.30755e-06,-2.3231e-06,9.64448e-06,1.77094e-05,-1.37122e-05,1.20497e-05,1.90691e-06,0
-2.90443e-05,1.76471e-06,-2.95046e-06,8.77408e-06,1.57308e-05,-1.15608e-05,1.34876e-05,2.95707e-06,0
-2.83492e-05,3.00912e-07,-5.02569e-06,2.40778e-06,1.54849e-05,-8.23581e-06,1.67112e-05,5.26512e-06,0
-2.74817e-05,-2.51815e-06,-7.34217e-06,-1.25162e-05,1.81566e-05,-7.32977e-06,1.67586e-05,7.54977e-06,0
-2.81221e-05,-5.85273e-06,-7.49681e-06,-2.70621e-05,2.11233e-05,-9.39851e-06,1.55003e-05,8.12961e-06,0
-3.00299e-05,-7.77545e-06,-5.52931e-06,-3.23069e-05,2.2555e-05,-1.15436e-05,1.36702e-05,7.76725e-06,0
-3.12519e-05,-7.67162e-06,-3.44952e-06,-3.05464e-05,2.19747e-05,-1.23992e-05,9.44941e-06,7.31275e-06,0
-3.04454e-05,-6.96014e-06,-2.96253e-06,-2.74316e-05,2.04953e-05,-1.25767e-05,3.95131e-06,5.57855e-06,0
-2.86326e-05,-7.44929e-06,-3.0075e-06,-2.60406e-05,1.92281e-05,-1.24401e-05,1.08217e-06,4.38286e-06,0
-2.73608e-05,-7.70808e-06,-3.60453e-06,-2.38417e-05,1.68598e-05,-1.27819e-05,2.91393e-06,4.22076e-06,0
-2.64857e-05,-6.5047e-06,-4.34476e-06,-2.07863e-05,1.39215e-05,-1.51505e-05,8.61658e-06,4.81397e-06,0
-2.57885e-05,-4.62167e-06,-4.54054e-06,-1.92765e-05,1.16702e-05,-1.67925e-05,1.57532e-05,3.92569e-06,0
-2.59311e-05,-4.67796e-06,-4.78333e-06,-1.8347e-05,1.1071e-05,-1.51828e-05,2.10797e-05,2.65344e-06,0
-2.70807e-05,-5.92317e-06,-5.20039e-06,-1.57203e-05,1.12132e-05,-1.25248e-05,2.45566e-05,2.50213e-06,0
-2.87331e-05,-4.58864e-06,-5.48132e-06,-1.34671e-05,1.11056e-05,-1.24436e-05,2.73864e-05,3.41342e-06,0
-2.97627e-05,3.35943e-07,-6.91474e-06,-1.23128e-05,1.024e-05,-1.47709e-05,2.90438e-05,5.78253e-06,0
-2.96337e-05,4.71628e-06,-9.22559e-06,-1.0638e-05,9.02666e-06,-1.62369e-05,2.78771e-05,7.14212e-06,0
-2.89942e-05,5.39548e-06,-9.99781e-06,-6.31307e-06,8.92323e-06,-1.63227e-05,2.5229e-05,5.66768e-06,0
-2.85839e-05,3.49105e-06,-8.28113e-06,-1.40332e-06,1.03017e-05,-1.65273e-05,2.28396e-05,2.94801e-06,0
-2.87636e-05,2.57112e-06,-5.19688e-06,1.91026e-06,1.09388e-05,-1.74031e-05,2.02136e-05,6.30107e-07,0
-2.83591e-05,5.02351e-06,-4.14261e-06,5.05377e-06,1.03201e-05,-1.67514e-05,1.79852e-05,-1.18256e-06,0
-2.78296e-05,8.1095e-06,-5.87406e-06,1.06038e-05,1.02159e-05,-1.46727e-05,1.72065e-05,-2.05789e-06,0
-2.76124e-05,8.51466e-06,-6.85608e-06,1.70033e-05,1.04398e-05,-1.36601e-05,1.70233e-05,-3.42382e-06,0
-2.79648e-05,8.65115e-06,-8.52233e-06,2.29498e-05,9.03779e-06,-1.29921e-05,1.82757e-05,-3.41236e-06,0
-2.8679e-05,9.53726e-06,-1.18739e-05,2.39471e-05,5.35739e-06,-1.16777e-05,2.05489e-05,-6.38319e-07,0
-2.85858e-05,1.17774e-05,-1.228e-05,1.13635e-05,2.42649e-06,-1.04098e-05,2.12749e-05,1.41914e-06,0
-2.6518e-05,1.5003e-05,-7.81921e-06,-7.75139e-06,2.1495e-06,-9.70786e-06,2.05565e-05,3.68494e-06,0
-2.41896e-05,1.69056e-05,-4.57408e-06,-1.48252e-05,1.84075e-06,-1.02783e-05,1.83826e-05,7.54921e-06,0
-2.44795e-05,1.93874e-05,-4.51795e-06,-7.55472e-06,2.91656e-06,-1.18009e-05,1.53559e-05,8.71471e-06,0
-2.54596e-05,2.13204e-05,-4.86982e-06,-9.46229e-07,7.07173e-06,-1.31073e-05,1.32084e-05,5.6101e-06,0
-2.61529e-05,2.04453e-05,-6.7686e-06,-2.44727e-06,1.12473e-05,-1.32424e-05,1.29326e-05,2.35875e-06,0
-2.74564e-05,1.72977e-05,-8.56913e-06,-1.21172e-05,1.164e-05,-1.3267e-05,1.47339e-05,1.65388e-06,0
-2.87271e-05,1.5056e-05,-8.46515e-06,-2.57115e-05,1.04582e-05,-1.37682e-05,1.60798e-05,2.00139e-06,0
-2.96119e-05,1.55909e-05,-8.19791e-06,-3.87024e-05,1.28598e-05,-1.41423e-05,1.41755e-05,1.52504e-06,0
-3.00926e-05,1.76155e-05,-8.97938e-06,-4.75012e-05,1.57843e-05,-1.30717e-05,1.16756e-05,2.56548e-08,0
-2.94971e-05,2.00544e-05,-9.76481e-06,-4.72457e-05,1.69974e-05,-1.09909e-05,1.01038e-05,-1.62748e-06,0
-2.83027e-05,2.23156e-05,-1.04636e-05,-3.6999e-05,1.61188e-05,-9.49198e-06,8.83987e-06,-2.31092e-06,0
-2.71393e-05,2.28089e-05,-1.23835e-05,-2.02757e-05,1.34387e-05,-1.01886e-05,7.80849e-06,-5.41596e-07,0
-2.71128e-05,2.14373e-05,-1.57684e-05,-3.87997e-06,9.56555e-06,-1.22374e-05,7.9914e-06,2.57449e-06,0
-2.90045e-05,2.01124e-05,-1.94282e-05,6.39506e-06,6.64426e-06,-1.2596e-05,8.73918e-06,5.02857e-06,0
-3.12132e-05,1.91656e-05,-2.09265e-05,1.02092e-05,6.34501e-06,-1.23433e-05,9.79071e-06,5.20422e-06,0
-3.11037e-05,1.82186e-05,-2.00315e-05,1.04736e-05,8.68014e-06,-1.36127e-05,1.18462e-05,3.48169e-06,0
-2.9006e-05,1.73276e-05,-1.96128e-05,7.0323e-06,1.19684e-05,-1.46274e-05,1.39755e-05,1.97048e-06,0
-2.74416e-05,1.79851e-05,-2.00572e-05,1.61585e-06,1.32016e-05,-1.26423e-05,1.43079e-05,1.49284e-06,0
-2.76837e-05,2.01246e-05,-1.89378e-05,-1.43694e-06,1.37702e-05,-1.0451e-05,1.18299e-05,2.12593e-06,0
-2.78747e-05,2.11994e-05,-1.57743e-05,-4.69033e-07,1.62229e-05,-1.00413e-05,9.58984e-06,3.03393e-06,0
-2.64218e-05,2.07855e-05,-1.30937e-05,3.14987e-06,1.9324e-05,-9.19335e-06,9.57226e-06,2.95896e-06,0
-2.63273e-05,2.10763e-05,-1.30901e-05,6.16622e-06,2.04893e-05,-6.76286e-06,1.04592e-05,3.01872e-06,0
-2.86222e-05,2.15184e-05,-1.46573e-05,7.68152e-06,1.90429e-05,-4.83912e-06,1.06942e-05,4.37549e-06,0
-3.12965e-05,2.25108e-05,-1.37503e-05,8.2349e-06,1.51365e-05,-4.83438e-06,1.17364e-05,4.35995e-06,0
-3.24049e-05,2.4843e-05,-1.06848e-05,8.17872e-06,1.2986e-05,-4.38941e-06,1.15931e-05,2.91229e-06,0
-3.2535e-05,2.57417e-05,-8.39874e-06,7.66281e-06,1.39165e-05,-3.59826e-06,9.18822e-06,1.90976e-06,0
-3.35427e-05,2.61791e-05,-7.81054e-06,8.83498e-06,1.41097e-05,-4.71803e-06,5.38147e-06,7.032e-07,0
-3.41558e-05,2.78058e-05,-9.2667e-06,1.29663e-05,1.51075e-05,-6.17983e-06,3.00564e-06,-5.78772e-07,0
-3.28604e-05,2.96715e-05,-8.98904e-06,1.49618e-05,1.59448e-05,-7.36163e-06,4.10979e-06,-8.30811e-07,0
-3.09719e-05,3.33539e-05,-6.3495e-06,9.9603e-06,1.45047e-05,-6.89961e-06,6.17464e-06,1.78131e-08,0
-2.98512e-05,3.75732e-05,-3.33689e-06,1.51905e-06,1.60038e-05,-4.27217e-06,7.11871e-06,1.27475e-06,0
-2.92673e-05,3.96582e-05,-1.74637e-06,-4.75901e-06,1.81435e-05,-3.37083e-06,5.16959e-06,1.97746e-06,0
-2.8132e-05,4.06006e-05,-4.34462e-06,-1.04237e-05,1.88526e-05,-5.44824e-06,2.8212e-06,3.17629e-06,0
-2.76332e-05,4.19058e-05,-7.72462e-06,-1.62487e-05,1.77851e-05,-7.11303e-06,2.96091e-06,4.28554e-06,0
-2.94802e-05,4.36075e-05,-8.86999e-06,-1.97766e-05,1.62111e-05,-6.57262e-06,4.5901e-06,4.89733e-06,0
-3.11837e-05,4.26804e-05,-8.49457e-06,-1.8658e-05,1.54892e-05,-5.46789e-06,5.11956e-06,5.16308e-06,0
-3.01341e-05,3.86064e-05,-8.66531e-06,-1.16342e-05,1.46499e-05,-3.89655e-06,4.50209e-06,5.0741e-06,0
-2.77961e-05,3.39276e-05,-8.10025e-06,8.57405e-07,1.5258e-05,-2.8194e-06,-4.33064e-07,6.05467e-06,0
-2.61357e-05,3.10987e-05,-6.18647e-06,1.64422e-05,1.54924e-05,-4.39244e-06,-1.33644e-05,7.25053e-06,0
-2.57479e-05,3.01117e-05,-5.71708e-06,3.00195e-05,1.44716e-05,-7.12171e-06,-2.75906e-05,6.66724e-06,0
-2.6185e-05,2.83878e-05,-7.00819e-06,3.75082e-05,1.31805e-05,-8.76665e-06,-3.16471e-05,5.09691e-06,0
-2.71419e-05,2.553e-05,-7.61447e-06,3.69219e-05,1.35292e-05,-9.33453e-06,-2.12439e-05,5.21538e-06,0
-2.87363e-05,2.29056e-05,-6.9943e-06,2.97258e-05,1.53314e-05,-8.23698e-06,-1.87331e-06,5.46481e-06,0
-3.02172e-05,1.93376e-05,-7.40135e-06,1.90292e-05,1.77978e-05,-5.95104e-06,1.78045e-05,4.21496e-06,0
-3.03375e-05,1.39522e-05,-8.62311e-06,8.37428e-06,1.83162e-05,-4.92089e-06,3.12518e-05,2.50172e-06,0
-2.97658e-05,9.26971e-06,-9.28265e-06,2.1442e-06,1.71009e-05,-5.20933e-06,3.73695e-05,1.20181e-06,0
-3.02559e-05,6.69198e-06,-9.25965e-06,3.64349e-06,1.63631e-05,-5.1282e-06,3.88864e-05,4.22803e-07,0
-2.99363e-05,6.82311e-06,-9.47804e-06,9.65457e-06,1.61781e-05,-4.84262e-06,3.88045e-05,5.64649e-08,0
-2.82529e-05,8.80593e-06,-8.94226e-06,1.47656e-05,1.53046e-05,-4.51656e-06,3.85465e-05,2.82658e-07,0
-2.78273e-05,1.01754e-05,-7.90738e-06,2.14599e-05,1.43434e-05,-4.39511e-06,3.71692e-05,1.29983e-06,0
-3.02399e-05,1.03041e-05,-7.19994e-06,3.2574e-05,1.49066e-05,-4.54803e-06,3.36241e-05,2.8059e-06,0
-3.26555e-05,1.02723e-05,-7.01971e-06,3.98978e-05,1.39985e-05,-5.10337e-06,2.82779e-05,2.63596e-06,0
-3.26455e-05,9.46954e-06,-8.26389e-06,3.70236e-05,1.11987e-05,-6.7712e-06,1.7867e-05,1.0866e-06,0
-3.20841e-05,9.04441e-06,-1.28936e-05,2.66176e-05,1.01276e-05,-8.36358e-06,-4.81064e-06,2.53401e-07,0
-3.36197e-05,1.13492e-05,-1.52178e-05,1.23061e-05,1.12498e-05,-8.02693e-06,-2.92223e-05,8.94542e-07,0
-3.44877e-05,1.07206e-05,-1.20116e-05,-2.01834e-06,1.22621e-05,-6.1462e-06,-3.85871e-05,1.60882e-06,0
-3.27027e-05,7.48403e-06,-8.63475e-06,-1.83487e-05,1.33254e-05,-4.18259e-06,-3.18575e-05,1.05322e-06,0
-3.18748e-05,5.86429e-06,-5.81798e-06,-3.66052e-05,1.39167e-05,-3.09874e-06,-1.56919e-05,6.64635e-07,0
-3.23774e-05,3.22098e-06,-6.21044e-06,-5.11391e-05,1.16686e-05,-1.36268e-06,1.16169e-06,2.12989e-06,0
-3.32453e-05,1.34732e-06,-7.96605e-06,-5.70805e-05,1.05235e-05,1.29722e-06,1.67999e-05,5.70713e-06,0
-3.22778e-05,1.03156e-06,-6.51974e-06,-5.354e-05,1.25573e-05,1.55335e-06,2.96779e-05,6.68971e-06,0
-3.03817e-05,-8.42938e-07,-4.09181e-06,-4.72826e-05,1.32322e-05,4.92118e-07,3.81515e-05,5.18784e-06,0
-2.94436e-05,-5.41641e-06,-2.4233e-06,-4.44326e-05,1.15421e-05,2.1483e-07,4.25339e-05,4.00867e-06,0
-2.96037e-05,-1.06674e-05,-7.05588e-07,-4.61796e-05,7.45634e-06,-6.53991e-07,4.5297e-05,3.80345e-06,0
-3.08263e-05,-1.54805e-05,4.52775e-07,-4.96666e-05,3.86734e-06,-1.82146e-06,4.5747e-05,4.75763e-06,0
-3.14531e-05,-1.9362e-05,2.52654e-07,-5.24445e-05,2.22137e-06,-2.90589e-06,4.24484e-05,6.29077e-06,0
-3.08467e-05,-2.03859e-05,-7.64932e-07,-5.18485e-05,2.04142e-06,-3.57346e-06,3.74565e-05,9.11162e-06,0
-3.02348e-05,-1.81023e-05,-3.41076e-06,-4.49503e-05,2.30186e-06,-4.10542e-06,3.23468e-05,1.11663e-05,0
-3.08468e-05,-1.46987e-05,-5.67118e-06,-3.44405e-05,1.61678e-06,-5.32848e-06,2.87444e-05,1.09377e-05,0
-3.12499e-05,-1.31975e-05,-4.61445e-06,-2.68413e-05,1.02845e-06,-7.45529e-06,2.63524e-05,8.23285e-06,0
-3.12928e-05,-1.43292e-05,-2.15121e-06,-2.41907e-05,2.10625e-06,-9.69696e-06,2.60401e-05,4.87619e-06,0
-3.22436e-05,-1.56319e-05,-1.20615e-06,-2.3296e-05,4.72398e-06,-1.16094e-05,2.65772e-05,2.38388e-06,0
-3.43675e-05,-1.30429e-05,-2.22508e-06,-2.1783e-05,7.65097e-06,-1.40626e-05,2.61316e-05,1.49729e-06,0
-3.62455e-05,-7.49731e-06,-4.73307e-06,-1.92871e-05,1.04145e-05,-1.52822e-05,2.35246e-05,1.22703e-06,0
-3.65586e-05,-2.98846e-06,-8.3344e-06,-1.65843e-05,1.31565e-05,-1.38326e-05,2.05711e-05,1.93926e-06,0
-3.55094e-05,-5.88061e-08,-1.32882e-05,-1.22814e-05,1.72531e-05,-1.09907e-05,1.77367e-05,3.70339e-06,0
-3.49473e-05,6.27185e-06,-1.82553e-05,-6.99534e-06,2.06913e-05,-9.86116e-06,1.58279e-05,3.65578e-06,0
-3.33846e-05,2.1786e-05,-2.0503e-05,-4.45272e-06,2.07101e-05,-1.01714e-05,1.46772e-05,2.54226e-06,0
-2.98816e-05,4.07572e-05,-2.1355e-05,-3.95056e-06,1.88065e-05,-1.07079e-05,1.36627e-05,3.29622e-06,0
-2.77809e-05,5.51387e-05,-2.30734e-05,-5.42371e-06,1.95268e-05,-1.01759e-05,1.23574e-05,4.00964e-06,0
-2.73521e-05,6.42421e-05,-2.49049e-05,-1.3339e-05,1.97618e-05,-6.95583e-06,1.06347e-05,1.28104e-06,0
-2.81548e-05,6.45828e-05,-2.41746e-05,-2.35188e-05,1.79202e-05,-3.97381e-06,8.94615e-06,-7.00122e-07,0
-3.02708e-05,5.36006e-05,-2.27189e-05,-2.70104e-05,1.71153e-05,-3.57311e-06,5.28821e-06,-7.24658e-07,0
-3.22398e-05,3.43114e-05,-2.29377e-05,-2.58938e-05,1.61569e-05,-4.75682e-06,3.73142e-06,-5.4818e-07,0
-3.15727e-05,1.30726e-05,-2.31247e-05,-2.32075e-05,1.58842e-05,-4.99941e-06,5.54753e-06,-8.10465e-07,0
-2.97431e-05,-7.05582e-06,-2.20527e-05,-1.59326e-05,1.64415e-05,-4.33916e-06,7.12829e-06,-2.78191e-06,0
-2.99113e-05,-2.70491e-05,-1.92142e-05,-6.14434e-06,1.61032e-05,-4.84249e-06,6.7631e-06,-4.49428e-06,0
-3.0375e-05,-4.26373e-05,-1.58614e-05,3.27244e-06,1.41839e-05,-5.16976e-06,4.6514e-06,-6.3057e-06,0
-2.9956e-05,-4.69905e-05,-1.27677e-05,1.10717e-05,1.31619e-05,-4.29989e-06,3.33796e-06,-8.39184e-06,0
-2.94358e-05,-3.93656e-05,-1.12356e-05,1.53188e-05,1.31548e-05,-5.1248e-06,3.65773e-06,-9.53159e-06,0
-3.01322e-05,-2.41337e-05,-1.15495e-05,1.67345e-05,1.27675e-05,-8.20094e-06,4.57738e-06,-9.65681e-06,0
-3.24101e-05,-8.26516e-06,-1.15797e-05,1.72657e-05,1.27231e-05,-1.04056e-05,3.8923e-06,-9.22427e-06,0
-3.41797e-05,3.58053e-06,-9.88398e-06,1.53653e-05,1.14154e-05,-9.31627e-06,1.98787e-06,-9.21471e-06,0
-3.47558e-05,1.2296e-05,-7.08459e-06,1.08021e-05,8.88738e-06,-6.60607e-06,1.31971e-06,-1.01142e-05,0
-3.44085e-05,1.93572e-05,-5.11455e-06,7.7249e-06,6.71287e-06,-6.74046e-06,2.6272e-06,-1.03912e-05,0
-3.3809e-05,2.41686e-05,-4.18086e-06,5.09144e-06,6.61224e-06,-9.99339e-06,5.02132e-06,-9.0431e-06,0
-3.33962e-05,2.60945e-05,-4.32452e-06,1.65742e-06,8.70285e-06,-1.27248e-05,6.81074e-06,-8.15331e-06,0
-3.30443e-05,2.74334e-05,-5.27425e-06,-4.66451e-07,1.02979e-05,-1.2334e-05,7.5131e-06,-8.38205e-06,0
-3.31149e-05,2.95621e-05,-5.05754e-06,1.4391e-07,9.09921e-06,-1.09558e-05,7.11181e-06,-8.75666e-06,0
-3.36825e-05,3.11138e-05,-2.37868e-06,3.23805e-06,6.2996e-06,-1.14721e-05,6.49526e-06,-8.43111e-06,0
-3.37136e-05,3.12343e-05,1.33168e-06,8.44396e-06,4.95803e-06,-1.26195e-05,6.71659e-06,-8.46786e-06,0
-3.35176e-05,3.06085e-05,4.40214e-06,1.32041e-05,5.02892e-06,-1.2654e-05,7.94028e-06,-8.99219e-06,0
-3.39028e-05,2.96119e-05,5.93965e-06,1.50705e-05,4.65271e-06,-1.13489e-05,9.61476e-06,-9.63976e-06,0
-3.33176e-05,2.87193e-05,4.87047e-06,1.26402e-05,4.61478e-06,-9.92164e-06,1.2554e-05,-1.01645e-05,0
-3.1561e-05,2.82377e-05,2.24356e-06,6.9819e-06,5.79533e-06,-9.62157e-06,1.47556e-05,-9.02835e-06,0
-3.01119e-05,2.84637e-05,3.03968e-06,3.02453e-06,5.00156e-06,-1.01583e-05,1.37848e-05,-7.59107e-06,0
-2.9397e-05,2.84456e-05,5.39979e-06,1.96989e-06,4.45831e-06,-1.04487e-05,1.25511e-05,-8.11348e-06,0
-2.9489e-05,2.62505e-05,3.98648e-06,6.81406e-07,5.29861e-06,-1.05143e-05,1.52115e-05,-6.6788e-06,0
-2.99804e-05,2.38186e-05,9.52168e-07,-1.3858e-06,6.45084e-06,-1.00912e-05,2.13676e-05,-3.8584e-06,0
-2.95708e-05,2.1719e-05,-8.76643e-07,-2.31007e-06,9.81362e-06,-9.02359e-06,2.60168e-05,-4.0284e-06,0
-2.82951e-05,1.78468e-05,-1.85741e-06,-3.33218e-06,1.23381e-05,-8.98129e-06,2.6745e-05,-6.48243e-06,0
-2.77298e-05,1.36585e-05,-3.47149e-06,-5.55663e-06,1.50374e-05,-1.06315e-05,2.45244e-05,-7.24122e-06,0
-2.88321e-05,1.03716e-05,-5.0485e-06,-7.50169e-06,1.87776e-05,-1.23041e-05,2.07528e-05,-5.09091e-06,0
-3.03488e-05,9.25176e-06,-6.46912e-06,-7.02722e-06,2.22596e-05,-1.2793e-05,1.53276e-05,-3.65259e-06,0
-3.07213e-05,8.48656e-06,-7.83746e-06,-5.15188e-06,2.56117e-05,-1.29477e-05,8.99664e-06,-2.91902e-06,0
-3.04202e-05,6.20947e-06,-8.53975e-06,-3.12569e-06,2.62525e-05,-1.26259e-05,6.85859e-06,-9.52148e-07,0
-2.91954e-05,4.82034e-06,-8.35438e-06,-3.23462e-06,2.4317e-05,-1.194e-05,1.27185e-05,3.04486e-06,0
-2.74457e-05,5.8942e-06,-8.13618e-06,-5.65457e-06,2.21707e-05,-1.14056e-05,2.58348e-05,5.08128e-06,0
-2.70194e-05,9.40403e-06,-9.76354e-06,-8.12242e-06,2.17952e-05,-1.10712e-05,4.16919e-05,4.27598e-06,0
-2.75111e-05,1.33193e-05,-1.41935e-05,-9.84909e-06,2.33261e-05,-1.09227e-05,5.46468e-05,3.29852e-06,0
-2.72024e-05,1.5877e-05,-1.84107e-05,-9.78931e-06,2.42858e-05,-1.16027e-05,5.81974e-05,3.58751e-06,0
-2.65297e-05,1.68929e-05,-1.93533e-05,-5.00601e-06,2.38822e-05,-1.29808e-05,5.14163e-05,4.41411e-06,0
-2.66952e-05,1.84566e-05,-1.71345e-05,3.84845e-06,2.40305e-05,-1.33887e-05,3.86585e-05,4.84415e-06,0
-2.6899e-05,2.10189e-05,-1.3013e-05,1.10269e-05,2.48037e-05,-1.33008e-05,2.13589e-05,4.88933e-06,0
-2.702e-05,2.37747e-05,-8.48978e-06,1.45217e-05,2.49302e-05,-1.3535e-05,3.53484e-09,3.91986e-06,0
-2.80648e-05,2.56609e-05,-4.83477e-06,1.59217e-05,2.36568e-05,-1.33275e-05,-2.29578e-05,3.09744e-06,0
-2.97236e-05,2.74645e-05,-2.79192e-06,1.63539e-05,2.1165e-05,-1.24672e-05,-4.13414e-05,2.80347e-06,0
-3.11648e-05,2.92755e-05,-1.6091e-06,1.69295e-05,1.82199e-05,-1.23466e-05,-4.94063e-05,3.25787e-06,0
-3.19181e-05,2.90865e-05,-1.28737e-06,1.99924e-05,1.45838e-05,-1.19375e-05,-4.74384e-05,3.70105e-06,0
-3.12527e-05,2.72211e-05,-1.70524e-06,2.22915e-05,1.13051e-05,-1.017e-05,-4.02374e-05,3.86181e-06,0
-2.98868e-05,2.52957e-05,-2.50926e-06,1.75181e-05,1.09282e-05,-8.74204e-06,-3.07415e-05,3.61517e-06,0
-2.90942e-05,2.40361e-05,-3.96261e-06,4.46839e-06,1.3883e-05,-9.3786e-06,-2.09056e-05,1.98682e-06,0
-2.92805e-05,2.32913e-05,-6.87591e-06,-1.18519e-05,1.76896e-05,-9.65044e-06,-1.05258e-05,3.1754e-07,0
-2.91521e-05,2.2471e-05,-9.42683e-06,-2.82187e-05,1.81847e-05,-8.45843e-06,-3.141e-06,4.82177e-08,0
-2.83991e-05,2.24779e-05,-1.00903e-05,-4.21524e-05,1.75023e-05,-8.74757e-06,-1.99737e-08,1.19595e-06,0
-2.88661e-05,2.37256e-05,-1.0189e-05,-4.13388e-05,1.66696e-05,-1.03317e-05,4.69734e-06,3.20419e-06,0
-3.06696e-05,2.19839e-05,-9.51088e-06,-2.34455e-05,1.55151e-05,-1.21006e-05,9.31926e-06,4.56117e-06,0
-3.182e-05,1.76852e-05,-9.32833e-06,-3.24534e-06,1.57283e-05,-1.35153e-05,1.054e-05,4.99292e-06,0
-3.0694e-05,1.6906e-05,-9.94801e-06,6.55038e-06,1.45928e-05,-1.42824e-05,9.24897e-06,4.31417e-06,0
-2.84009e-05,1.72963e-05,-9.82787e-06,4.70253e-06,1.35243e-05,-1.33454e-05,7.91193e-06,4.63135e-06,0
-2.69512e-05,1.69585e-05,-1.02711e-05,5.51427e-07,1.31348e-05,-1.14238e-05,7.00547e-06,6.43559e-06,0
-2.60885e-05,1.92901e-05,-9.91044e-06,-4.33644e-06,1.29844e-05,-1.12024e-05,5.22415e-06,8.02528e-06,0
-2.61911e-05,2.15217e-05,-9.11173e-06,-9.68168e-06,1.22552e-05,-1.19385e-05,3.81404e-06,8.20836e-06,0
-2.82451e-05,2.20021e-05,-8.74618e-06,-1.39284e-05,1.15881e-05,-1.26216e-05,2.70009e-06,7.9292e-06,0
-3.04332e-05,2.09189e-05,-8.85757e-06,-1.78482e-05,1.13795e-05,-1.39816e-05,1.97685e-06,7.23518e-06,0
-3.17367e-05,2.05407e-05,-1.01026e-05,-2.41265e-05,1.0449e-05,-1.62626e-05,1.78636e-06,6.4746e-06,0
-3.175e-05,2.16771e-05,-1.09534e-05,-3.29024e-05,9.40972e-06,-1.76394e-05,3.25133e-06,6.30654e-06,0
-3.1387e-05,2.3334e-05,-1.10393e-05,-3.87484e-05,8.69439e-06,-1.7328e-05,7.91513e-06,5.39329e-06,0
-3.159e-05,2.36338e-05,-1.04872e-05,-3.98035e-05,8.95317e-06,-1.69715e-05,1.35965e-05,5.19063e-06,0
-3.19319e-05,2.1055e-05,-9.34656e-06,-3.91113e-05,9.07589e-06,-1.6937e-05,1.84154e-05,4.62197e-06,0
-3.18506e-05,1.799e-05,-8.24278e-06,-4.07221e-05,8.26747e-06,-1.69101e-05,2.18764e-05,2.44055e-06,0
-3.03435e-05,1.67896e-05,-8.41286e-06,-4.41736e-05,6.24219e-06,-1.66817e-05,2.40351e-05,1.42062e-08,0
-2.71577e-05,1.78684e-05,-8.31896e-06,-4.49998e-05,4.57303e-06,-1.59699e-05,2.47758e-05,-7.2304e-07,0
-2.45449e-05,2.02459e-05,-6.57054e-06,-3.75711e-05,4.79385e-06,-1.45612e-05,2.39428e-05,3.64237e-07,0
-2.46428e-05,2.38344e-05,-4.90126e-06,-2.46562e-05,6.70677e-06,-1.39974e-05,2.19311e-05,1.36054e-06,0
-2.61933e-05,2.70673e-05,-4.77681e-06,-1.26342e-05,8.24189e-06,-1.4539e-05,1.99384e-05,-1.01819e-07,0
-2.79659e-05,2.93074e-05,-4.54575e-06,-6.72709e-06,7.16928e-06,-1.49703e-05,1.90641e-05,-2.1534e-06,0
-3.00446e-05,2.83089e-05,-4.34535e-06,-4.65258e-06,4.7572e-06,-1.45109e-05,1.96966e-05,-2.70779e-06,0
-3.18343e-05,2.50475e-05,-5.48983e-06,-1.87157e-06,5.06197e-06,-1.28529e-05,2.07694e-05,-1.44432e-06,0
-3.20953e-05,2.17388e-05,-6.83738e-06,2.56634e-06,8.92979e-06,-1.08892e-05,2.12607e-05,1.0257e-06,0
-3.20281e-05,1.54846e-05,-7.21976e-06,8.00008e-06,1.21534e-05,-1.15144e-05,2.06208e-05,2.77928e-06,0
-3.15392e-05,6.37317e-06,-9.26219e-06,9.55496e-06,1.26138e-05,-1.49692e-05,1.95397e-05,3.74083e-06,0
-3.16604e-05,-9.62143e-07,-1.34068e-05,6.87655e-06,1.1378e-05,-1.65801e-05,1.92849e-05,4.60735e-06,0
-3.31955e-05,-2.76251e-06,-1.72384e-05,4.7209e-06,1.11522e-05,-1.49481e-05,2.03331e-05,2.60013e-06,0
-3.39468e-05,-1.2123e-06,-1.87302e-05,2.91259e-06,1.42617e-05,-1.28521e-05,2.17713e-05,-1.22741e-06,0
-3.34e-05,5.38065e-07,-1.70864e-05,7.60635e-07,1.77181e-05,-1.0941e-05,2.155e-05,-2.17121e-06,0
-3.31727e-05,3.00715e-06,-1.40787e-05,4.78529e-08,2.00115e-05,-9.36064e-06,2.00035e-05,-6.95383e-07,0
-3.33053e-05,6.57488e-06,-9.06606e-06,9.93468e-07,2.15067e-05,-9.83054e-06,1.95922e-05,-2.65989e-07,0
-3.19449e-05,9.07248e-06,-5.35807e-06,1.68426e-06,2.20117e-05,-9.58689e-06,1.95987e-05,-1.75622e-06,0
-3.1072e-05,8.384e-06,-4.94472e-06,2.21809e-06,2.11327e-05,-9.34228e-06,1.84288e-05,-1.56695e-06,0
-3.06164e-05,5.92522e-06,-5.84752e-06,3.57722e-06,1.85474e-05,-1.18456e-05,1.79708e-05,-2.37446e-07,0
-2.98326e-05,3.96855e-06,-6.16346e-06,5.83807e-06,1.59824e-05,-1.44392e-05,1.75259e-05,4.52855e-07,0
-2.95435e-05,2.62525e-06,-5.98711e-06,7.94012e-06,1.32609e-05,-1.42914e-05,1.5559e-05,1.68869e-06,0
-2.90915e-05,6.93451e-07,-7.16604e-06,8.20592e-06,1.0309e-05,-1.3629e-05,1.39143e-05,5.35974e-06,0
-2.76746e-05,-1.37337e-06,-8.6148e-06,7.93722e-06,8.27402e-06,-1.43139e-05,1.33697e-05,7.72529e-06,0
-2.70151e-05,-2.66228e-06,-8.65637e-06,7.97479e-06,7.76401e-06,-1.45356e-05,1.23468e-05,6.77796e-06,0
-2.84862e-05,-3.73177e-06,-7.68514e-06,7.16492e-06,6.95203e-06,-1.40718e-05,1.22102e-05,5.28078e-06,0
-3.02299e-05,-4.70035e-06,-7.53642e-06,2.39015e-06,5.81692e-06,-1.33557e-05,1.31881e-05,3.68296e-06,0
-3.05643e-05,-4.80603e-06,-7.56937e-06,-6.85418e-06,5.41359e-06,-1.30243e-05,1.38847e-05,6.83197e-07,0
-3.05151e-05,-4.15388e-06,-7.8111e-06,-1.77793e-05,5.60466e-06,-1.31772e-05,1.41868e-05,-2.3611e-06,0
-3.05173e-05,-2.4106e-06,-8.66207e-06,-2.55566e-05,6.82509e-06,-1.3317e-05,1.53468e-05,-3.0246e-06,0
-2.82496e-05,7.71499e-07,-8.79519e-06,-2.88807e-05,8.74386e-06,-1.20949e-05,1.59055e-05,-2.37033e-06,0
-2.50236e-05,2.74445e-06,-7.42892e-06,-2.8168e-05,1.11133e-05,-1.02208e-05,1.50468e-05,-1.432e-06,0
-2.41089e-05,2.69758e-06,-7.14595e-06,-2.30254e-05,1.32987e-05,-8.54276e-06,1.5183e-05,-8.06639e-07,0
-2.60735e-05,3.28423e-06,-7.90386e-06,-1.12368e-05,1.377e-05,-6.99258e-06,1.64469e-05,-2.99457e-07,0
-2.81842e-05,5.29083e-06,-7.4357e-06,1.05196e-05,1.1605e-05,-6.53287e-06,1.90334e-05,1.32128e-07,0
-2.80589e-05,7.74797e-06,-6.30206e-06,3.82139e-05,8.12714e-06,-7.20337e-06,1.90751e-05,3.12916e-07,0
-2.7856e-05,9.93801e-06,-4.65117e-06,5.4467e-05,7.24025e-06,-7.6809e-06,1.48618e-05,-2.42473e-07,0
-2.89867e-05,1.16846e-05,-3.2003e-06,5.15175e-05,9.55833e-06,-7.61182e-06,1.20136e-05,-1.50361e-06,0
-2.90855e-05,1.19693e-05,-1.56665e-06,4.4717e-05,1.33327e-05,-6.45884e-06,1.33193e-05,-3.26686e-06,0
-2.74754e-05,1.14592e-05,-1.59778e-06,4.13829e-05,1.70562e-05,-4.53624e-06,1.50357e-05,-5.18417e-06,0
-2.68152e-05,1.21684e-05,-4.80667e-06,3.55762e-05,1.75637e-05,-2.85971e-06,1.69165e-05,-5.1902e-06,0
-2.9043e-05,1.03955e-05,-6.46829e-06,2.55176e-05,1.44337e-05,-2.65523e-06,1.882e-05,-4.56992e-06,0
-3.03083e-05,7.28252e-06,-5.21434e-06,1.28776e-05,1.10626e-05,-3.63417e-06,1.94732e-05,-4.70964e-06,0
-2.98823e-05,6.4062e-06,-4.0049e-06,-1.03351e-06,7.7193e-06,-5.98301e-06,2.06384e-05,-4.85528e-06,0
-2.93206e-05,7.19637e-06,-2.63471e-06,-1.22294e-05,4.62815e-06,-8.17884e-06,2.18318e-05,-5.62638e-06,0
-2.86874e-05,8.18813e-06,-6.12543e-07,-1.63701e-05,4.65653e-06,-6.6349e-06,2.32206e-05,-4.21471e-06,0
-2.82911e-05,8.9947e-06,2.24186e-06,-1.63405e-05,6.88995e-06,-3.30116e-06,2.50872e-05,-1.26695e-06,0
