ch1,ch2,ch3,ch4,ch5,ch6,ch7,ch8,class
-2.40364e-05,2.43315e-05,-6.04542e-06,6.83636e-06,4.58044e-07,-1.27342e-05,2.61053e-05,2.78291e-06,0
-2.32891e-05,2.04697e-05,-5.02906e-06,1.55507e-05,-1.94485e-07,-1.23776e-05,2.18301e-05,2.82893e-06,0
-2.37319e-05,1.74784e-05,-6.8249e-06,2.10414e-05,1.45026e-06,-1.25626e-05,1.93332e-05,1.50048e-06,0
-2.53525e-05,1.67486e-05,-1.03764e-05,2.14346e-05,3.76054e-06,-1.40088e-05,1.69556e-05,-4.04488e-07,0
-2.64197e-05,1.61178e-05,-1.18482e-05,1.75355e-05,7.32765e-06,-1.67889e-05,1.26115e-05,-1.36085e-06,0
-2.75539e-05,1.50171e-05,-1.01184e-05,1.1801e-05,1.22456e-05,-1.84001e-05,6.88992e-06,-1.29436e-07,0
-2.89292e-05,1.27367e-05,-5.77215e-06,5.79367e-06,1.57672e-05,-1.93233e-05,3.03456e-06,2.28362e-06,0
-2.96932e-05,1.0955e-05,-1.37162e-06,4.83096e-07,1.68714e-05,-1.89579e-05,2.56062e-06,2.3471e-06,0
-2.86968e-05,9.57024e-06,3.78911e-08,-3.62374e-06,1.73917e-05,-1.70622e-05,4.28728e-06,2.57909e-07,0
-2.75092e-05,8.60352e-06,-9.45076e-07,-6.75568e-06,1.84261e-05,-1.54232e-05,5.5741e-06,-9.2896e-07,0
-2.78923e-05,9.75558e-06,-1.55775e-06,-1.03774e-05,1.92699e-05,-1.58497e-05,4.05238e-06,-4.16684e-07,0
-3.04033e-05,1.33028e-05,-1.83133e-06,-1.60674e-05,2.0055e-05,-1.62407e-05,-8.65083e-07,9.63755e-07,0
-3.21432e-05,1.63557e-05,-2.14825e-06,-2.27884e-05,1.9847e-05,-1.56841e-05,-5.75904e-06,2.5245e-06,0
-3.17072e-05,1.6419e-05,-2.049e-06,-2.6768e-05,1.88457e-05,-1.51997e-05,-7.99678e-06,3.87969e-06,0
-3.14287e-05,1.51398e-05,-1.33208e-06,-2.55748e-05,1.89692e-05,-1.48871e-05,-1.10231e-05,4.90542e-06,0
-3.25494e-05,1.65995e-05,-4.84852e-07,-2.01609e-05,1.9381e-05,-1.43821e-05,-2.30204e-05,6.00592e-06,0
-3.36638e-05,2.0003e-05,5.30761e-08,-1.24805e-05,1.77826e-05,-1.34377e-05,-4.21944e-05,7.03479e-06,0
-3.36317e-05,2.1947e-05,1.10856e-07,-7.33388e-06,1.59435e-05,-1.35782e-05,-5.38528e-05,7.1342e-06,0
-3.24464e-05,2.29283e-05,-1.22462e-06,-1.02609e-05,1.60198e-05,-1.46014e-05,-4.84543e-05,5.4455e-06,0
-3.13671e-05,2.21678e-05,-4.21121e-06,-2.01543e-05,1.80741e-05,-1.49223e-05,-3.00179e-05,4.54356e-06,0
-3.0663e-05,1.85744e-05,-6.4281e-06,-2.80494e-05,1.87764e-05,-1.49441e-05,-7.70161e-06,4.82128e-06,0
-3.08633e-05,1.25491e-05,-5.27237e-06,-2.7263e-05,1.67362e-05,-1.53516e-05,1.39809e-05,5.01832e-06,0
-3.15997e-05,7.71778e-06,-4.54761e-06,-2.13544e-05,1.47727e-05,-1.57704e-05,2.90501e-05,5.34381e-06,0
-3.16297e-05,5.21777e-06,-4.98709e-06,-1.58235e-05,1.40236e-05,-1.54002e-05,3.53438e-05,5.60725e-06,0
-3.1784e-05,4.26817e-06,-2.91769e-06,-1.39012e-05,1.40317e-05,-1.52024e-05,3.8637e-05,6.51351e-06,0
-3.1213e-05,4.79682e-06,-2.76783e-06,-1.23176e-05,1.51789e-05,-1.58035e-05,3.94012e-05,5.81498e-06,0
-3.1908e-05,5.65805e-06,-6.61804e-06,-7.38844e-06,1.68522e-05,-1.54e-05,3.94344e-05,5.56194e-06,0
-3.36054e-05,4.62334e-06,-1.23736e-05,-4.38743e-06,1.77548e-05,-1.38604e-05,3.83887e-05,6.86739e-06,0
-3.3574e-05,1.66408e-06,-1.95412e-05,-5.40376e-06,1.79799e-05,-1.17608e-05,3.79382e-05,8.53552e-06,0
-3.3082e-05,-1.49196e-06,-2.97282e-05,-7.85444e-06,1.73646e-05,-9.39088e-06,3.80211e-05,9.61657e-06,0
-3.27352e-05,-4.42199e-06,-4.05779e-05,-8.66029e-06,1.69193e-05,-8.14105e-06,3.59995e-05,9.31128e-06,0
-3.2089e-05,-6.15553e-06,-4.80262e-05,-7.75324e-06,1.8181e-05,-9.21999e-06,3.27719e-05,7.97413e-06,0
-3.26407e-05,-6.16478e-06,-4.92023e-05,-6.64045e-06,1.93453e-05,-1.1228e-05,2.92261e-05,5.82723e-06,0
-3.38648e-05,-4.29748e-06,-4.3477e-05,-6.49851e-06,1.88136e-05,-1.18119e-05,2.79141e-05,4.90982e-06,0
-3.4117e-05,-1.66623e-06,-3.43625e-05,-6.97206e-06,1.87463e-05,-1.05968e-05,2.8106e-05,5.61115e-06,0
-3.32963e-05,1.62312e-06,-2.53865e-05,-6.03976e-06,2.07178e-05,-9.69516e-06,2.73735e-05,7.04968e-06,0
-3.22682e-05,5.20754e-06,-1.94633e-05,-3.40276e-06,2.44485e-05,-9.36934e-06,2.3809e-05,7.10463e-06,0
-3.10818e-05,7.39459e-06,-1.60107e-05,-1.16847e-06,2.77052e-05,-8.92677e-06,1.91054e-05,6.27145e-06,0
-2.94302e-05,6.78217e-06,-1.35812e-05,-1.3318e-06,2.94313e-05,-8.51209e-06,1.53989e-05,5.60004e-06,0
-2.89577e-05,3.18752e-06,-1.15721e-05,-2.08542e-06,3.04917e-05,-8.80836e-06,1.34774e-05,4.60024e-06,0
-3.04052e-05,-2.98759e-07,-9.92894e-06,-1.58467e-06,3.0815e-05,-9.91008e-06,9.58431e-06,3.07451e-06,0
-3.19178e-05,-2.90111e-07,-7.18219e-06,1.41206e-08,2.95992e-05,-1.01342e-05,2.36376e-06,2.4527e-06,0
-3.16918e-05,2.68506e-06,-4.75987e-06,4.95065e-07,2.70667e-05,-8.58715e-06,-4.68722e-06,2.50677e-06,0
-3.12583e-05,6.2969e-06,-3.81638e-06,-5.77436e-07,2.38497e-05,-6.86156e-06,-7.649e-06,1.29134e-06,0
-3.23247e-05,8.60966e-06,-4.21377e-06,-1.75934e-06,2.15235e-05,-7.52274e-06,-4.57719e-06,4.36632e-07,0
-3.32745e-05,9.80721e-06,-4.95508e-06,-2.93976e-06,2.20396e-05,-9.23969e-06,3.75423e-06,8.77975e-07,0
-3.34083e-05,1.2845e-05,-3.27312e-06,-4.8614e-06,2.45069e-05,-8.28887e-06,1.18842e-05,2.30126e-06,0
-3.41404e-05,1.64183e-05,-1.1843e-06,-6.06986e-06,2.60039e-05,-5.78257e-06,1.50797e-05,3.87352e-06,0
-3.3914e-05,1.66455e-05,-2.52576e-06,-5.06582e-06,2.58889e-05,-4.39166e-06,1.4453e-05,4.40987e-06,0
-3.22801e-05,1.53682e-05,-4.17636e-06,-4.18099e-06,2.64761e-05,-4.86112e-06,1.3979e-05,4.61656e-06,0
-3.14359e-05,1.42295e-05,-2.76785e-06,-5.75007e-06,2.92293e-05,-4.90374e-06,1.42068e-05,3.84588e-06,0
-3.16407e-05,1.28191e-05,-1.42463e-06,-1.04424e-05,3.32036e-05,-3.82856e-06,1.43748e-05,2.76614e-06,0
-3.1288e-05,1.26652e-05,-4.05821e-06,-1.62648e-05,3.57083e-05,-3.11296e-06,1.68269e-05,2.34435e-06,0
-3.0516e-05,1.42543e-05,-9.4599e-06,-1.95318e-05,3.52098e-05,-1.65416e-06,2.02717e-05,1.80798e-06,0
-2.95427e-05,1.63622e-05,-1.28956e-05,-1.80434e-05,3.1533e-05,-3.52499e-07,2.13759e-05,1.97134e-06,0
-2.87278e-05,1.58753e-05,-1.19908e-05,-1.19616e-05,2.60753e-05,-1.77258e-07,1.82731e-05,3.16228e-06,0
-2.93397e-05,1.36143e-05,-8.99759e-06,-3.58237e-06,2.22997e-05,-1.24117e-06,1.47149e-05,3.24302e-06,0
-3.05365e-05,1.1024e-05,-6.78898e-06,3.79366e-06,2.10408e-05,-2.62026e-06,1.32165e-05,1.79152e-06,0
-3.22123e-05,7.55667e-06,-4.34187e-06,6.84864e-06,2.04509e-05,-3.63305e-06,1.33403e-05,-2.2504e-07,0
-3.34871e-05,5.95344e-06,3.16926e-07,7.03866e-06,1.89257e-05,-4.12125e-06,1.38772e-05,-4.85535e-07,0
-3.29119e-05,8.93211e-06,9.70182e-06,6.44175e-06,1.64542e-05,-4.41563e-06,1.33013e-05,1.61145e-06,0
-3.08129e-05,1.56055e-05,2.36565e-05,5.71463e-06,1.51285e-05,-5.27451e-06,1.11176e-05,2.96574e-06,0
-2.90914e-05,2.08802e-05,4.05422e-05,5.56181e-06,1.50227e-05,-7.5327e-06,7.44854e-06,2.21897e-06,0
-2.85132e-05,2.27988e-05,5.68815e-05,5.0311e-06,1.41065e-05,-1.06784e-05,4.82207e-06,6.01342e-07,0
-2.86636e-05,2.408e-05,6.56413e-05,2.48511e-06,1.15483e-05,-1.16163e-05,5.15022e-06,-8.77008e-08,0
-2.89411e-05,2.54853e-05,5.93879e-05,-3.70225e-06,8.83003e-06,-1.02655e-05,6.94179e-06,-1.25727e-06,0
-2.99817e-05,2.42623e-05,3.69039e-05,-1.18495e-05,7.43579e-06,-9.43622e-06,8.46926e-06,-2.53271e-06,0
-3.19306e-05,2.05728e-05,5.10335e-06,-1.76411e-05,6.94816e-06,-9.36979e-06,1.02117e-05,-2.25278e-06,0
-3.19998e-05,1.81227e-05,-2.33847e-05,-1.80913e-05,5.97283e-06,-9.77633e-06,1.24873e-05,-9.888e-07,0
-2.9781e-05,1.71704e-05,-3.8768e-05,-1.47981e-05,3.73765e-06,-1.09877e-05,1.51261e-05,-7.1898e-07,0
-2.89864e-05,1.5788e-05,-3.88261e-05,-9.34791e-06,2.74627e-06,-1.19206e-05,1.82045e-05,-8.32227e-07,0
-3.12879e-05,1.24652e-05,-2.96548e-05,-3.00338e-06,4.86462e-06,-1.2889e-05,1.95265e-05,-9.87069e-08,0
-3.36317e-05,8.16406e-06,-2.34573e-05,2.00755e-06,8.64477e-06,-1.26216e-05,1.79614e-05,1.99591e-07,0
-3.41774e-05,4.6917e-06,-2.78015e-05,4.16519e-06,1.08746e-05,-1.09511e-05,1.45246e-05,-1.72627e-06,0
-3.26557e-05,2.02471e-06,-4.02746e-05,3.92554e-06,9.7561e-06,-9.98084e-06,7.66755e-06,-4.33328e-06,0
-3.05437e-05,3.60906e-06,-5.18836e-05,1.07313e-06,8.5872e-06,-1.02525e-05,-1.57307e-06,-4.41365e-06,0
-2.98546e-05,9.14496e-06,-5.76114e-05,-2.84584e-06,8.5451e-06,-1.05272e-05,-8.80618e-06,-2.58159e-06,0
-2.99119e-05,1.35951e-05,-5.43057e-05,-4.22407e-06,8.05989e-06,-9.68265e-06,-1.1445e-05,-1.08326e-06,0
-2.87584e-05,1.5583e-05,-4.41114e-05,-4.26266e-06,7.8076e-06,-9.28683e-06,-8.99242e-06,-1.61218e-06,0
-2.56544e-05,1.54207e-05,-3.28553e-05,-4.16816e-06,8.06248e-06,-8.41522e-06,-3.62008e-06,-4.40972e-06,0
-2.37607e-05,1.52292e-05,-2.45732e-05,-3.98887e-06,8.48181e-06,-6.711e-06,2.01547e-06,-5.38494e-06,0
-2.41941e-05,1.55235e-05,-1.88626e-05,-3.29488e-06,9.11276e-06,-6.36261e-06,8.32044e-06,-3.66895e-06,0
-2.5124e-05,1.60104e-05,-1.33279e-05,-1.66249e-06,8.21419e-06,-6.91792e-06,1.39144e-05,-2.6818e-06,0
-2.65447e-05,1.66154e-05,-6.87131e-06,-2.63812e-07,6.00174e-06,-7.03285e-06,1.72213e-05,-3.08608e-06,0
-2.71165e-05,1.75944e-05,1.51141e-07,-1.20897e-06,2.7255e-06,-6.32804e-06,1.97393e-05,-4.49778e-06,0
-2.77896e-05,1.97362e-05,2.27159e-06,-3.80098e-06,-1.70776e-06,-5.91565e-06,2.0933e-05,-5.47175e-06,0
-2.9623e-05,2.13237e-05,-6.36973e-07,-5.78416e-06,-3.86647e-06,-6.57778e-06,1.62624e-05,-5.31031e-06,0
-3.07234e-05,2.03557e-05,-2.35707e-06,-5.70661e-06,-2.57074e-06,-6.33356e-06,6.81456e-06,-4.92369e-06,0
-2.99987e-05,1.8025e-05,7.64453e-07,-2.01776e-06,1.32374e-07,-5.35738e-06,4.58211e-06,-5.26475e-06,0
-2.88702e-05,1.72302e-05,4.65333e-06,4.44519e-06,2.23257e-06,-5.20988e-06,1.70066e-05,-5.78284e-06,0
-2.86425e-05,1.79621e-05,5.42838e-06,9.68089e-06,3.48923e-06,-5.911e-06,3.9147e-05,-6.81648e-06,0
-2.9536e-05,1.81131e-05,3.49194e-06,1.14829e-05,3.49856e-06,-6.22503e-06,5.90274e-05,-7.49514e-06,0
-3.12439e-05,1.60473e-05,6.73302e-07,1.09551e-05,2.16107e-06,-5.68048e-06,6.86643e-05,-5.61283e-06,0
-3.26502e-05,1.25121e-05,-1.65186e-06,8.74965e-06,8.37657e-07,-4.96941e-06,6.84004e-05,-1.68732e-06,0
-3.29414e-05,9.53455e-06,-3.28513e-06,4.49323e-06,5.76256e-07,-4.31601e-06,6.10167e-05,4.06343e-07,0
-3.20156e-05,7.61194e-06,-6.30459e-06,-2.29461e-06,1.17915e-06,-4.82867e-06,4.90172e-05,-8.76029e-07,0
-3.20329e-05,6.10239e-06,-1.09265e-05,-1.03526e-05,1.55695e-06,-6.33069e-06,3.46022e-05,-2.45162e-06,0
-3.25269e-05,4.90353e-06,-1.35864e-05,-1.6931e-05,9.62747e-07,-7.40418e-06,2.05734e-05,-2.30088e-06,0
-3.288e-05,4.05074e-06,-1.24524e-05,-1.91159e-05,1.35394e-06,-6.71902e-06,1.10901e-05,-1.65464e-06,0
-3.23406e-05,4.47372e-06,-7.97576e-06,-1.76889e-05,3.44376e-06,-4.87786e-06,7.37361e-06,-1.11121e-06,0
-3.00449e-05,5.84848e-06,-4.23812e-06,-1.60617e-05,5.16898e-06,-5.63455e-06,7.35403e-06,-7.5719e-08,0
-2.86948e-05,6.34626e-06,-3.70978e-06,-1.64456e-05,5.68295e-06,-8.15084e-06,9.05117e-06,9.50852e-07,0
-2.92565e-05,6.40094e-06,-5.89282e-06,-1.57996e-05,6.26835e-06,-9.38411e-06,1.37495e-05,-1.72721e-07,0
-2.98609e-05,6.23196e-06,-7.91577e-06,-1.30512e-05,6.60225e-06,-1.03655e-05,2.10775e-05,-2.08809e-06,0
-2.92416e-05,6.82837e-06,-9.74799e-06,-9.95593e-06,7.37827e-06,-1.01651e-05,2.6507e-05,-1.31111e-06,0
-2.79623e-05,7.65455e-06,-1.16869e-05,-7.21206e-06,9.24711e-06,-9.16072e-06,2.8619e-05,1.09449e-06,0
-2.73954e-05,5.60428e-06,-1.26208e-05,-5.23562e-06,9.97304e-06,-8.35544e-06,2.53706e-05,1.97008e-06,0
-2.82693e-05,3.75054e-06,-1.22367e-05,-1.8709e-06,9.74081e-06,-7.76263e-06,1.89084e-05,1.50244e-06,0
-2.92295e-05,4.56646e-06,-8.07258e-06,6.90311e-08,8.67161e-06,-6.66722e-06,1.32736e-05,1.78644e-06,0
-2.85339e-05,4.65817e-06,-2.07798e-06,2.84046e-07,7.34884e-06,-5.42042e-06,7.3466e-06,2.23142e-06,0
-2.8258e-05,4.31581e-06,3.21909e-06,3.84228e-07,7.04428e-06,-5.51622e-06,-3.09147e-06,3.33851e-06,0
-2.94282e-05,3.65966e-06,7.69705e-06,5.64246e-07,8.8957e-06,-7.73028e-06,-1.63131e-05,3.34675e-06,0
-3.06461e-05,3.05012e-06,1.04889e-05,7.2637e-07,1.20446e-05,-1.09737e-05,-2.76327e-05,2.0959e-06,0
-3.0845e-05,3.9555e-06,1.06786e-05,4.45268e-07,1.42604e-05,-1.31398e-05,-3.53228e-05,2.02176e-06,0
-2.94374e-05,5.61066e-06,8.30594e-06,5.50857e-07,1.44133e-05,-1.48757e-05,-3.67967e-05,3.64464e-06,0
-2.81762e-05,6.70689e-06,4.45646e-06,4.66289e-07,1.39704e-05,-1.69786e-05,-3.32437e-05,5.33356e-06,0
-2.85763e-05,6.8595e-06,1.36431e-07,1.36872e-07,1.54491e-05,-1.86588e-05,-2.71201e-05,5.94909e-06,0
-2.93054e-05,6.96308e-06,-5.42849e-06,-2.0778e-06,1.70956e-05,-1.81656e-05,-1.96545e-05,6.31909e-06,0
-2.74394e-05,7.3035e-06,-1.30561e-05,-7.77603e-06,1.71361e-05,-1.59856e-05,-9.73534e-06,5.99266e-06,0
-2.39496e-05,7.91893e-06,-1.99188e-05,-1.55367e-05,1.80731e-05,-1.45107e-05,6.52292e-07,4.85935e-06,0
-2.19786e-05,8.1998e-06,-2.05596e-05,-1.88869e-05,2.07555e-05,-1.54728e-05,7.84274e-06,2.12689e-06,0
-2.28025e-05,8.67961e-06,-1.40369e-05,-1.43552e-05,2.23586e-05,-1.68251e-05,1.15973e-05,-1.39617e-06,0
-2.54094e-05,9.49185e-06,-7.08269e-06,-5.9352e-06,2.10718e-05,-1.81386e-05,1.33663e-05,-3.00792e-06,0
-2.72079e-05,1.05816e-05,-5.07766e-06,3.51301e-08,1.90263e-05,-1.93734e-05,1.39281e-05,-3.03672e-06,0
-2.76047e-05,1.13145e-05,-6.43759e-06,2.85718e-07,1.80719e-05,-1.88739e-05,1.29591e-05,-3.92195e-06,0
-2.79649e-05,1.17287e-05,-7.70643e-06,-3.65749e-06,1.65562e-05,-1.69653e-05,1.07275e-05,-5.12739e-06,0
-2.81618e-05,1.31815e-05,-9.22466e-06,-7.0815e-06,1.56689e-05,-1.52084e-05,9.65452e-06,-6.11959e-06,0
-2.87609e-05,1.42074e-05,-1.1241e-05,-7.01798e-06,1.54417e-05,-1.40438e-05,9.91677e-06,-6.53447e-06,0
-2.98511e-05,1.16402e-05,-1.33364e-05,-6.7726e-06,1.57357e-05,-1.32471e-05,9.29597e-06,-5.66177e-06,0
-2.92172e-05,8.3037e-06,-1.50341e-05,-8.60757e-06,1.6522e-05,-1.10805e-05,8.08627e-06,-4.48353e-06,0
-2.73132e-05,8.94447e-06,-1.41141e-05,-9.12941e-06,1.50798e-05,-8.59441e-06,6.8101e-06,-3.6095e-06,0
-2.68655e-05,1.38588e-05,-1.30251e-05,-6.68648e-06,1.2428e-05,-9.35482e-06,6.67662e-06,-4.11983e-06,0
-2.79975e-05,1.96823e-05,-1.2827e-05,-5.04881e-06,1.12336e-05,-9.918e-06,7.11106e-06,-4.37634e-06,0
-2.80034e-05,2.38495e-05,-1.05959e-05,-4.75448e-06,1.15554e-05,-9.72933e-06,8.64214e-06,-2.67663e-06,0
-2.74614e-05,2.80756e-05,-8.39704e-06,-4.34481e-06,1.11159e-05,-9.32655e-06,1.16394e-05,3.74579e-07,0
-2.6097e-05,2.86149e-05,-5.5151e-06,-2.68242e-06,8.94694e-06,-8.11944e-06,1.46494e-05,1.95509e-06,0
-2.50814e-05,2.66982e-05,-1.51563e-06,-4.75692e-07,6.4965e-06,-8.0044e-06,1.65302e-05,8.85385e-07,0
-2.71223e-05,2.5961e-05,2.47969e-06,9.39907e-07,7.03409e-06,-8.36298e-06,1.77173e-05,1.10649e-06,0
-3.02565e-05,2.44155e-05,6.73604e-06,1.20953e-06,1.009e-05,-9.01098e-06,2.03711e-05,1.36845e-06,0
-3.188e-05,2.18495e-05,7.71149e-06,-4.37431e-07,1.29208e-05,-1.0825e-05,2.40492e-05,5.19218e-07,0
-3.15203e-05,1.84568e-05,4.25547e-06,-2.24556e-06,1.28204e-05,-1.28319e-05,2.56396e-05,1.01989e-07,0
-3.06361e-05,1.57158e-05,-2.11237e-06,-2.95667e-06,9.78088e-06,-1.30799e-05,2.47063e-05,7.5241e-07,0
-2.9297e-05,1.50174e-05,-9.87196e-06,-2.84917e-06,6.84633e-06,-1.12678e-05,2.39539e-05,2.24499e-06,0
-2.83566e-05,1.56051e-05,-1.74836e-05,-3.7731e-06,5.25857e-06,-9.52381e-06,2.33596e-05,3.80108e-06,0
-2.80334e-05,1.54951e-05,-2.20511e-05,-6.24436e-06,5.2654e-06,-8.91281e-06,2.22733e-05,6.0837e-06,0
-2.82449e-05,1.49445e-05,-2.27931e-05,-8.82062e-06,6.92122e-06,-9.04438e-06,2.15536e-05,8.65275e-06,0
-2.92895e-05,1.35064e-05,-2.17359e-05,-1.02529e-05,1.00837e-05,-9.69766e-06,2.15299e-05,9.22026e-06,0
-3.10581e-05,1.0976e-05,-1.94592e-05,-9.64881e-06,1.2313e-05,-1.02089e-05,2.14484e-05,6.5831e-06,0
-3.22872e-05,9.72674e-06,-1.59913e-05,-7.26887e-06,1.2226e-05,-1.00336e-05,2.13499e-05,3.1576e-06,0
-3.17518e-05,1.42617e-05,-1.2639e-05,-5.40568e-06,1.14893e-05,-1.00881e-05,2.03573e-05,8.61187e-07,0
-3.04218e-05,2.67308e-05,-1.11734e-05,-4.62398e-06,1.24299e-05,-1.05665e-05,1.83552e-05,-4.32036e-07,0
-3e-05,4.20998e-05,-1.10041e-05,-3.17587e-06,1.38486e-05,-1.05098e-05,1.66426e-05,-1.10969e-06,0
-3.10736e-05,5.22572e-05,-1.12338e-05,-2.43747e-06,1.3795e-05,-1.10926e-05,1.57799e-05,-2.025e-06,0
-3.19104e-05,5.21785e-05,-1.14924e-05,-4.03245e-06,1.22788e-05,-1.20417e-05,1.59048e-05,-2.7115e-06,0
-3.11688e-05,4.61442e-05,-9.34746e-06,-5.28513e-06,1.05064e-05,-1.35323e-05,1.55899e-05,-1.87678e-06,0
-2.97665e-05,3.88613e-05,-6.89638e-06,-1.57602e-06,8.09789e-06,-1.40998e-05,1.44322e-05,-1.51497e-06,0
-2.93877e-05,2.55789e-05,-8.09822e-06,5.22125e-06,5.914e-06,-1.43449e-05,1.20866e-05,-5.5885e-07,0
-2.96275e-05,8.69874e-06,-1.08668e-05,9.29811e-06,6.36676e-06,-1.52002e-05,1.02919e-05,-1.49157e-07,0
-2.97601e-05,-5.6983e-06,-1.27126e-05,7.88036e-06,6.79375e-06,-1.41348e-05,9.87028e-06,-8.69002e-07,0
-2.99153e-05,-1.35487e-05,-1.27302e-05,2.60537e-06,6.51673e-06,-1.34814e-05,1.10021e-05,-1.26311e-06,0
-3.05731e-05,-1.26791e-05,-1.13474e-05,-3.56889e-06,6.23698e-06,-1.49607e-05,1.44006e-05,9.2607e-07,0
-3.11844e-05,-1.1249e-05,-1.00255e-05,-7.674e-06,5.29507e-06,-1.66947e-05,1.76696e-05,4.64851e-06,0
-3.18478e-05,-1.16642e-05,-8.75858e-06,-8.81626e-06,4.47591e-06,-1.75632e-05,1.99528e-05,4.04637e-06,0
-3.16827e-05,-1.2131e-05,-6.91507e-06,-8.80693e-06,7.09553e-06,-1.76407e-05,2.0603e-05,1.94319e-06,0
-3.13184e-05,-1.21768e-05,-5.19553e-06,-7.43942e-06,1.43901e-05,-1.55564e-05,1.96679e-05,1.2019e-06,0
-3.23577e-05,-1.24178e-05,-3.58198e-06,-6.39265e-06,1.98919e-05,-1.34455e-05,1.73545e-05,2.50597e-06,0
-3.32516e-05,-1.35879e-05,-2.8182e-06,-8.29951e-06,2.08656e-05,-1.33697e-05,1.56189e-05,3.20161e-06,0
-3.35659e-05,-1.41734e-05,-3.20702e-06,-1.37163e-05,1.99128e-05,-1.48311e-05,1.51477e-05,3.24493e-06,0
-3.35849e-05,-1.23673e-05,-2.59735e-06,-1.8312e-05,2.01149e-05,-1.63377e-05,1.39902e-05,3.46956e-06,0
-3.3194e-05,-6.04088e-06,-1.17118e-06,-1.67485e-05,2.18094e-05,-1.69209e-05,1.09735e-05,2.77373e-06,0
-3.29628e-05,3.54184e-06,-1.32365e-06,-8.52551e-06,2.26218e-05,-1.63299e-05,7.59314e-06,1.9134e-06,0
-3.34307e-05,1.08033e-05,-2.55851e-06,2.51124e-06,2.21456e-05,-1.46115e-05,7.83995e-06,2.20475e-06,0
-3.42005e-05,1.23696e-05,-3.41323e-06,1.02819e-05,2.06209e-05,-1.27733e-05,1.18738e-05,2.65243e-06,0
-3.49922e-05,1.20952e-05,-4.4414e-06,1.14614e-05,1.96815e-05,-1.05839e-05,1.62303e-05,1.07012e-06,0
-3.60541e-05,1.35414e-05,-4.95979e-06,8.17999e-06,1.95302e-05,-8.96091e-06,1.62746e-05,-7.85312e-07,0
-3.6855e-05,1.57966e-05,-4.80546e-06,4.66839e-06,1.84303e-05,-8.7694e-06,1.25331e-05,-9.9031e-07,0
-3.69115e-05,1.78115e-05,-6.03422e-06,1.72752e-06,1.69085e-05,-9.04145e-06,9.936e-06,8.78209e-08,0
-3.63105e-05,1.95745e-05,-7.24096e-06,-1.77496e-06,1.6209e-05,-8.18549e-06,9.30503e-06,5.5831e-07,0
-3.50722e-05,2.10249e-05,-5.43816e-06,-5.85681e-06,1.59901e-05,-7.5856e-06,8.66208e-06,1.08234e-06,0
-3.36581e-05,2.22827e-05,-1.79547e-06,-7.13147e-06,1.56498e-05,-7.75616e-06,8.74796e-06,1.51528e-06,0
-3.18933e-05,2.22708e-05,1.53279e-07,-1.30847e-06,1.41135e-05,-8.26636e-06,8.24656e-06,9.2686e-07,0
-3.05001e-05,2.13102e-05,-1.59016e-06,9.4978e-06,1.395e-05,-9.18442e-06,5.35781e-06,6.64694e-08,0
-3.04363e-05,1.95389e-05,-2.94991e-06,1.546e-05,1.64535e-05,-1.01615e-05,2.10165e-06,9.8452e-07,0
-2.99512e-05,1.91081e-05,-7.25986e-07,1.36554e-05,2.00541e-05,-1.04408e-05,1.49966e-06,2.83586e-06,0
-2.78107e-05,2.10395e-05,3.6622e-06,5.4382e-06,2.18759e-05,-8.92907e-06,3.40265e-06,3.29819e-06,0
-2.77509e-05,2.27313e-05,6.15018e-06,-5.32669e-06,2.1094e-05,-7.70262e-06,5.74993e-06,3.60805e-06,0
-2.94383e-05,2.41794e-05,3.21163e-06,-1.2232e-05,1.925e-05,-7.79e-06,8.21928e-06,5.94911e-06,0
-2.95074e-05,3.12378e-05,-2.62823e-06,-1.5573e-05,1.72308e-05,-7.32498e-06,9.32683e-06,6.7402e-06,0
-2.90961e-05,4.45221e-05,-8.30913e-06,-1.76993e-05,1.49645e-05,-5.63685e-06,9.47262e-06,5.04851e-06,0
-2.87296e-05,5.26946e-05,-1.58812e-05,-2.2059e-05,1.19626e-05,-3.20201e-06,1.10989e-05,4.06449e-06,0
-2.88976e-05,5.07401e-05,-2.51211e-05,-2.65036e-05,1.15512e-05,-3.48423e-06,1.41856e-05,4.34549e-06,0
-2.97564e-05,4.29922e-05,-3.25162e-05,-3.29316e-05,1.25602e-05,-6.27052e-06,1.69908e-05,4.96503e-06,0
-3.02199e-05,3.46846e-05,-3.70623e-05,-4.27968e-05,1.24775e-05,-7.68381e-06,1.93694e-05,5.2654e-06,0
-3.05652e-05,2.69476e-05,-3.68771e-05,-4.98581e-05,1.1007e-05,-5.72634e-06,2.12254e-05,5.76549e-06,0
-3.1288e-05,1.95184e-05,-3.29308e-05,-4.93845e-05,9.73702e-06,-1.90564e-06,2.14858e-05,5.51643e-06,0
-3.19724e-05,1.14867e-05,-2.79976e-05,-4.19324e-05,9.01578e-06,7.30761e-07,1.99325e-05,4.61383e-06,0
-3.16369e-05,1.66288e-06,-2.26525e-05,-3.07633e-05,9.48584e-06,1.7787e-06,1.66943e-05,3.63468e-06,0
-3.15825e-05,-1.00956e-05,-1.73389e-05,-1.79838e-05,1.22906e-05,2.21256e-06,1.33914e-05,3.89682e-06,0
-3.28487e-05,-2.17364e-05,-1.45722e-05,-8.52713e-06,1.60336e-05,3.27873e-06,1.21809e-05,3.99055e-06,0
-3.38783e-05,-2.91615e-05,-1.41991e-05,-4.25977e-06,1.83899e-05,3.98458e-06,1.11528e-05,2.06263e-06,0
-3.42412e-05,-2.92878e-05,-1.3094e-05,-2.95622e-06,1.79647e-05,3.50751e-06,5.65195e-06,-1.33209e-07,0
-3.42844e-05,-2.07424e-05,-1.10309e-05,-2.25146e-06,1.60957e-05,1.49356e-06,-3.51426e-06,-1.02704e-06,0
-3.39956e-05,-6.84837e-06,-9.19888e-06,-6.76168e-07,1.49394e-05,-8.5491e-07,-1.02024e-05,-1.42325e-06,0
-3.22438e-05,6.01178e-06,-7.29914e-06,3.55805e-06,1.5963e-05,-2.18762e-06,-8.79504e-06,-2.37707e-06,0
-2.9645e-05,1.385e-05,-4.5229e-06,7.89945e-06,1.59204e-05,-2.89778e-06,2.0435e-06,-3.12584e-06,0
-2.87239e-05,1.83511e-05,-3.45486e-06,9.93401e-06,1.21033e-05,-3.68609e-06,1.64798e-05,-1.56131e-06,0
-3.07469e-05,2.05549e-05,-5.28463e-06,1.03905e-05,6.68663e-06,-4.71315e-06,2.79696e-05,7.01249e-07,0
-3.33327e-05,2.00646e-05,-7.469e-06,9.21596e-06,4.25746e-06,-5.75264e-06,3.45452e-05,4.91239e-07,0
-3.40409e-05,1.65359e-05,-6.80029e-06,6.9358e-06,3.68301e-06,-5.29771e-06,3.63387e-05,-7.49742e-07,0
-3.35022e-05,8.49125e-06,-3.81715e-06,4.7464e-06,3.54839e-06,-4.2289e-06,3.47044e-05,7.20374e-07,0
-3.40062e-05,-3.07325e-06,-1.91861e-06,1.63123e-06,3.80506e-06,-3.21636e-06,3.00716e-05,3.72589e-06,0
-3.58744e-05,-9.35222e-06,-3.10587e-06,-9.07636e-07,1.89671e-06,-3.3886e-06,2.2496e-05,4.76373e-06,0
-3.73351e-05,-8.12581e-06,-4.55553e-06,-4.92993e-06,-2.77368e-06,-5.68289e-06,1.45866e-05,4.40374e-06,0
-3.7938e-05,-3.18061e-06,-5.17578e-06,-1.18347e-05,-7.73755e-06,-6.64866e-06,9.13791e-06,2.62665e-06,0
-3.68514e-05,4.5868e-06,-6.64196e-06,-1.71997e-05,-1.08102e-05,-5.87633e-06,7.2253e-06,1.34132e-06,0
-3.48484e-05,1.05812e-05,-7.89169e-06,-2.09651e-05,-1.086e-05,-3.88323e-06,7.86048e-06,1.5269e-06,0
-3.27743e-05,1.48412e-05,-9.46294e-06,-2.24105e-05,-8.40378e-06,-2.20891e-06,9.68291e-06,2.44784e-06,0
-3.09481e-05,1.74603e-05,-1.05453e-05,-2.16752e-05,-5.9895e-06,-2.4578e-06,1.06111e-05,2.6214e-06,0
-3.06456e-05,2.04611e-05,-9.97143e-06,-1.8154e-05,-3.27078e-06,-2.71914e-06,9.54199e-06,1.586e-06,0
-3.07429e-05,2.38822e-05,-7.1384e-06,-1.2969e-05,-2.3437e-07,-1.09109e-06,7.50044e-06,1.0071e-06,0
-3.03354e-05,2.5411e-05,-3.04849e-06,-7.01174e-06,5.40853e-06,4.80045e-07,5.1037e-06,6.42445e-07,0
-2.96655e-05,2.45941e-05,2.11837e-06,-2.58886e-06,1.17638e-05,9.06523e-08,2.96886e-06,1.09824e-07,0
-2.79496e-05,2.26447e-05,1.08019e-05,-2.00884e-07,1.54838e-05,-2.26737e-06,1.52262e-06,-3.54771e-07,0
-2.52137e-05,2.23416e-05,2.24366e-05,3.71363e-06,1.65859e-05,-5.61537e-06,1.61127e-06,3.19636e-08,0
-2.28702e-05,2.31153e-05,2.99462e-05,1.111e-05,1.64742e-05,-7.57776e-06,3.48072e-06,1.47176e-06,0
-2.32798e-05,2.43955e-05,2.6216e-05,1.83607e-05,1.61688e-05,-7.50962e-06,6.56011e-06,3.27606e-06,0
-2.60418e-05,2.55045e-05,1.06507e-05,1.99069e-05,1.47857e-05,-6.93637e-06,8.67992e-06,3.20535e-06,0
-2.84654e-05,2.73642e-05,-1.0592e-05,1.56916e-05,1.33772e-05,-6.78315e-06,9.22639e-06,1.88202e-06,0
-2.90857e-05,2.93761e-05,-3.07676e-05,9.41644e-06,1.16941e-05,-7.99489e-06,9.89548e-06,1.62069e-06,0
-2.88743e-05,3.06852e-05,-4.77734e-05,5.49415e-06,9.39832e-06,-1.17994e-05,1.10796e-05,1.19599e-06,0
-2.85437e-05,3.01786e-05,-5.71905e-05,3.47462e-06,6.50245e-06,-1.52884e-05,1.17514e-05,-5.58844e-07,0
-2.82568e-05,2.75406e-05,-5.70623e-05,2.06865e-06,5.08816e-06,-1.59547e-05,1.12081e-05,-1.54196e-06,0
-2.88246e-05,2.30484e-05,-5.13705e-05,3.63826e-07,6.13568e-06,-1.5789e-05,1.07615e-05,-1.58469e-06,0
-2.97304e-05,1.59774e-05,-4.41623e-05,-5.23056e-07,8.7076e-06,-1.59369e-05,1.17142e-05,-2.12214e-06,0
-3.06289e-05,1.00195e-05,-3.71128e-05,-4.44569e-07,1.14989e-05,-1.57702e-05,1.27177e-05,-2.1533e-06,0
-3.04483e-05,1.0396e-05,-2.98146e-05,6.80492e-08,1.33199e-05,-1.41043e-05,1.2467e-05,-1.40092e-06,0
-2.98783e-05,1.45972e-05,-2.09824e-05,2.17816e-06,1.50033e-05,-1.20055e-05,1.22353e-05,-8.47335e-07,0
-2.93299e-05,1.8103e-05,-1.01412e-05,3.74799e-06,1.68544e-05,-1.27995e-05,1.25396e-05,-1.51681e-06,0
-2.9501e-05,1.66215e-05,-5.23464e-07,2.73073e-06,1.71705e-05,-1.39868e-05,8.94378e-06,-3.51788e-06,0
-3.08684e-05,1.47212e-05,8.83884e-06,2.00607e-06,1.77014e-05,-1.30993e-05,1.64981e-06,-4.94347e-06,0
-3.2077e-05,1.61591e-05,2.17658e-05,2.30283e-06,1.84748e-05,-1.10326e-05,-1.83103e-06,-3.4452e-06,0
-3.15679e-05,1.83311e-05,3.75044e-05,1.06804e-06,1.88628e-05,-9.25237e-06,1.64398e-07,-1.45403e-06,0
-3.01731e-05,2.14157e-05,5.51391e-05,-1.5687e-06,1.92552e-05,-9.88172e-06,4.15972e-06,-1.74957e-06,0
-2.97975e-05,2.20747e-05,6.75249e-05,-2.35444e-06,1.87215e-05,-1.15924e-05,7.44171e-06,-4.09568e-06,0
-2.92552e-05,2.14643e-05,6.68819e-05,-2.48279e-06,1.86658e-05,-1.29428e-05,1.11406e-05,-7.41345e-06,0
-2.93357e-05,2.12921e-05,4.93851e-05,-5.38366e-06,1.78383e-05,-1.34566e-05,1.45584e-05,-9.58888e-06,0
-2.92765e-05,2.1912e-05,1.83547e-05,-1.05294e-05,1.50498e-05,-1.48781e-05,1.7181e-05,-9.53627e-06,0
-2.87618e-05,2.3247e-05,-1.6297e-05,-1.46125e-05,1.21221e-05,-1.75831e-05,1.95754e-05,-7.62582e-06,0
-2.82873e-05,2.72488e-05,-4.53518e-05,-1.31258e-05,1.23244e-05,-1.90495e-05,2.08799e-05,-6.45162e-06,0
-2.81071e-05,3.04584e-05,-6.14139e-05,-6.14893e-06,1.38207e-05,-1.73193e-05,2.06395e-05,-7.07476e-06,0
-2.86215e-05,2.9923e-05,-6.18115e-05,3.04377e-06,1.32611e-05,-1.38915e-05,1.91698e-05,-8.01577e-06,0
-2.97879e-05,2.84456e-05,-4.96882e-05,1.08004e-05,1.12383e-05,-1.2032e-05,1.73197e-05,-7.05386e-06,0
-3.06892e-05,2.79933e-05,-3.40285e-05,1.54178e-05,9.40544e-06,-1.18053e-05,1.5652e-05,-4.6552e-06,0
-3.05698e-05,2.79556e-05,-2.21662e-05,1.62815e-05,7.2373e-06,-1.22437e-05,1.55215e-05,-2.98337e-06,0
-3.01231e-05,2.61421e-05,-1.51065e-05,1.41328e-05,4.06828e-06,-1.25653e-05,1.6605e-05,-1.25644e-06,0
-2.97932e-05,2.29883e-05,-1.11986e-05,9.79861e-06,1.38035e-06,-1.35996e-05,1.75179e-05,5.73329e-07,0
-2.91604e-05,1.82788e-05,-1.09188e-05,3.50766e-06,4.58246e-07,-1.5122e-05,1.74066e-05,1.41062e-06,0
-2.79132e-05,1.29633e-05,-1.18375e-05,-3.60321e-06,1.10913e-06,-1.61693e-05,1.79191e-05,8.99618e-07,0
-2.72857e-05,1.02624e-05,-1.00289e-05,-7.73854e-06,3.49799e-06,-1.53525e-05,1.94881e-05,-2.20257e-07,0
-2.68001e-05,1.19998e-05,-5.45597e-06,-7.22583e-06,6.94431e-06,-1.35132e-05,2.08136e-05,-2.52745e-07,0
-2.7241e-05,1.33755e-05,-2.44047e-06,-7.98881e-06,1.01907e-05,-1.41955e-05,2.04534e-05,8.70124e-07,0
-2.84182e-05,9.74964e-06,-2.28631e-06,-1.22212e-05,1.36565e-05,-1.65013e-05,1.90546e-05,1.57713e-06,0
-2.97409e-05,1.90874e-06,-1.1312e-06,-1.65028e-05,1.52014e-05,-1.72522e-05,1.76069e-05,1.36413e-06,0
-3.0286e-05,-4.17968e-06,-3.10099e-07,-2.34011e-05,1.45846e-05,-1.61255e-05,1.67397e-05,2.06818e-06,0
-2.90612e-05,-7.82117e-06,-6.51045e-07,-3.53712e-05,1.32258e-05,-1.51184e-05,1.73656e-05,5.85131e-06,0
-2.7927e-05,-1.0394e-05,-1.58036e-06,-4.36696e-05,1.17952e-05,-1.56207e-05,1.76631e-05,8.6497e-06,0
-2.89851e-05,-9.87498e-06,-2.67279e-06,-4.32519e-05,1.22291e-05,-1.62608e-05,1.58143e-05,8.83188e-06,0
-3.05478e-05,-6.96594e-06,-3.34726e-06,-3.88886e-05,1.58334e-05,-1.78402e-05,1.1856e-05,8.44872e-06,0
-3.0939e-05,-4.34002e-06,-5.9655e-06,-3.33466e-05,2.10547e-05,-1.93045e-05,8.5309e-06,8.23664e-06,0
-3.16489e-05,-3.03923e-06,-8.20322e-06,-2.48946e-05,2.49204e-05,-1.78485e-05,6.70153e-06,8.93438e-06,0
-3.22532e-05,-1.9789e-06,-9.42369e-06,-1.53549e-05,2.6569e-05,-1.57122e-05,6.33559e-06,1.02197e-05,0
-3.21947e-05,-3.41434e-07,-8.0423e-06,-8.93815e-06,2.66796e-05,-1.40298e-05,7.44897e-06,1.07487e-05,0
-3.26148e-05,3.89141e-06,-5.3361e-06,-5.45297e-06,2.54075e-05,-1.28137e-05,9.34417e-06,9.21367e-06,0
-3.34047e-05,8.77118e-06,-3.93362e-06,-4.17225e-06,2.43623e-05,-1.22951e-05,1.20672e-05,7.83543e-06,0
-3.28521e-05,1.11907e-05,-3.88443e-06,-2.8792e-06,2.21075e-05,-1.34033e-05,1.41445e-05,6.83119e-06,0
-3.21326e-05,1.12003e-05,-4.86232e-06,-1.83695e-06,1.84277e-05,-1.43752e-05,1.41472e-05,6.55021e-06,0
-3.23734e-05,9.86471e-06,-4.6713e-06,-1.60748e-06,1.65795e-05,-1.44085e-05,1.23199e-05,5.49186e-06,0
-3.20826e-05,7.30915e-06,-3.70133e-06,-7.99057e-07,1.72614e-05,-1.43918e-05,1.11893e-05,2.8316e-06,0
-3.0723e-05,3.46121e-06,-2.67124e-06,1.98677e-06,2.0449e-05,-1.34519e-05,1.22595e-05,5.42141e-07,0
-2.92144e-05,1.10367e-06,-2.93636e-06,6.04917e-06,2.46381e-05,-1.18421e-05,1.56602e-05,-3.62338e-07,0
-2.73734e-05,1.48259e-06,-3.21751e-06,8.00383e-06,2.68423e-05,-1.08938e-05,1.92042e-05,1.38508e-07,0
-2.5748e-05,3.22505e-06,-2.65367e-06,6.77553e-06,2.53916e-05,-1.06226e-05,1.991e-05,8.09811e-07,0
-2.55183e-05,4.29822e-06,-1.6877e-06,5.1415e-06,2.22326e-05,-9.40361e-06,1.76491e-05,5.0247e-07,0
-2.64179e-05,3.45238e-06,-1.31448e-06,4.052e-06,2.00288e-05,-7.83968e-06,1.48665e-05,-6.57831e-08,0
-2.79175e-05,8.76651e-07,-1.24528e-06,-1.16088e-06,1.87012e-05,-7.25372e-06,1.31973e-05,1.13973e-06,0
-2.8778e-05,-2.6174e-07,-2.37216e-06,-1.12051e-05,1.62737e-05,-7.66924e-06,1.2469e-05,3.0294e-06,0
-2.90919e-05,2.77485e-06,-3.9226e-06,-2.00366e-05,1.3812e-05,-8.45884e-06,1.27561e-05,5.19124e-06,0
-2.96011e-05,6.53207e-06,-4.74948e-06,-2.21669e-05,1.31935e-05,-9.96297e-06,1.30246e-05,6.28425e-06,0
-2.92697e-05,8.14308e-06,-4.43969e-06,-2.01188e-05,1.53804e-05,-9.57475e-06,1.37877e-05,5.52763e-06,0
-2.87684e-05,7.96929e-06,-3.85253e-06,-1.6128e-05,1.82546e-05,-6.89817e-06,1.52712e-05,4.30637e-06,0
-2.98409e-05,7.67652e-06,-4.16923e-06,-1.13276e-05,2.01148e-05,-4.18451e-06,1.72147e-05,4.10725e-06,0
-3.21219e-05,8.43808e-06,-3.94034e-06,-4.56026e-06,2.1699e-05,-2.50836e-06,1.91535e-05,3.03688e-06,0
-3.27471e-05,9.97639e-06,-3.53818e-06,2.83334e-06,2.25749e-05,-1.86239e-06,1.85031e-05,5.6396e-07,0
-3.12723e-05,1.13993e-05,-3.26748e-06,5.98352e-06,2.16867e-05,-1.9466e-06,1.59726e-05,-6.53358e-07,0
-3.06171e-05,1.27258e-05,-3.52124e-06,7.45226e-06,2.11178e-05,-2.56943e-06,1.42837e-05,-1.38391e-06,0
-2.93879e-05,1.26359e-05,-3.88452e-06,1.05906e-05,2.1473e-05,-2.44943e-06,1.18574e-05,-2.47508e-06,0
-2.74729e-05,1.09605e-05,-2.82263e-06,1.58683e-05,2.20889e-05,-2.11611e-06,9.08447e-06,-2.95565e-06,0
-2.70008e-05,9.9261e-06,-2.19583e-07,1.93987e-05,2.47758e-05,-1.55208e-06,7.1601e-06,-1.82169e-06,0
-2.76486e-05,9.40685e-06,2.39946e-06,2.0548e-05,2.73758e-05,-1.33532e-06,5.2417e-06,-6.75571e-07,0
-2.94268e-05,9.52416e-06,1.2105e-06,1.99951e-05,2.96172e-05,-1.53039e-06,5.53704e-06,7.31493e-07,0
-3.11868e-05,9.74399e-06,-5.2872e-06,1.59053e-05,2.96876e-05,-2.61809e-06,1.11555e-05,2.51148e-06,0
-3.11125e-05,1.02558e-05,-1.56714e-05,9.86101e-06,2.80886e-05,-3.56358e-06,2.04936e-05,3.00551e-06,0
-3.06867e-05,1.05929e-05,-2.85733e-05,4.55018e-06,2.7801e-05,-3.11189e-06,2.86725e-05,2.69582e-06,0
-3.12868e-05,1.00971e-05,-3.94777e-05,1.41632e-06,2.96141e-05,-2.13144e-06,3.23075e-05,2.0511e-06,0
-3.15647e-05,9.94561e-06,-4.31449e-05,1.84874e-06,3.09216e-05,-2.53413e-06,2.95718e-05,-3.69787e-08,0
-3.12737e-05,1.20152e-05,-3.80161e-05,3.92058e-06,2.79639e-05,-3.79533e-06,2.03471e-05,-3.33297e-06,0
-3.11681e-05,1.70862e-05,-2.95915e-05,3.10161e-06,2.33816e-05,-4.22659e-06,7.71566e-06,-4.61074e-06,0
-3.12674e-05,2.24459e-05,-2.25511e-05,1.24439e-07,2.1096e-05,-5.05804e-06,-3.69004e-06,-2.50692e-06,0
-3.11281e-05,2.42958e-05,-1.72926e-05,-1.50174e-06,2.18033e-05,-6.40335e-06,-1.29366e-05,1.56104e-07,0
-3.1142e-05,2.2798e-05,-1.4928e-05,-1.04507e-06,2.35458e-05,-6.04799e-06,-2.03512e-05,5.30831e-07,0
-3.093e-05,2.01304e-05,-1.4619e-05,-1.23894e-06,2.47955e-05,-3.18248e-06,-2.43453e-05,2.8852e-07,0
-3.04768e-05,1.53448e-05,-1.31463e-05,-3.86031e-06,2.26472e-05,-1.9507e-06,-2.35111e-05,3.38304e-07,0
-3.08148e-05,8.68962e-06,-1.05302e-05,-6.4015e-06,1.81249e-05,-4.27341e-06,-1.66848e-05,-1.79751e-07,0
-3.16313e-05,1.35586e-06,-7.91751e-06,-6.5808e-06,1.53499e-05,-7.03297e-06,-5.42734e-06,-1.69041e-06,0
-3.22116e-05,-3.92419e-06,-6.38491e-06,-4.72693e-06,1.35646e-05,-7.48774e-06,4.11762e-06,-3.01268e-06,0
-3.13617e-05,-4.19135e-06,-4.47111e-06,-1.6927e-06,1.14301e-05,-7.01893e-06,1.01491e-05,-1.81686e-06,0
-2.92794e-05,-1.78253e-06,-3.06348e-06,7.56919e-07,9.01086e-06,-7.55707e-06,1.4269e-05,4.69667e-07,0
-2.94364e-05,-2.51704e-07,-3.58448e-06,2.24231e-06,7.76099e-06,-9.92869e-06,1.76941e-05,9.81455e-07,0
-2.99284e-05,9.92117e-07,-2.38902e-06,4.08169e-06,9.62258e-06,-1.28172e-05,2.14817e-05,4.55051e-08,0
-2.8353e-05,1.58603e-06,-4.31347e-07,5.50683e-06,1.05324e-05,-1.40989e-05,2.45972e-05,-9.62859e-07,0
-2.71115e-05,1.69213e-06,1.10526e-06,5.90981e-06,1.04085e-05,-1.34374e-05,2.72468e-05,-2.0564e-06,0
-2.68761e-05,2.79336e-06,2.76438e-06,4.28138e-06,1.2642e-05,-1.17142e-05,2.89557e-05,-2.70169e-06,0
-2.73487e-05,4.0101e-06,6.23336e-06,2.94842e-07,1.46233e-05,-1.03996e-05,2.889e-05,-3.7104e-06,0
-2.57692e-05,4.44871e-06,1.11525e-05,-2.29523e-06,1.47285e-05,-1.08045e-05,2.57325e-05,-4.22902e-06,0
-2.3865e-05,3.55688e-06,1.32138e-05,-4.80433e-06,1.37091e-05,-1.16841e-05,2.0402e-05,-3.39123e-06,0
-2.36425e-05,3.34934e-06,9.10641e-06,-7.29584e-06,1.21859e-05,-1.16092e-05,1.57267e-05,-2.88447e-06,0
-2.51777e-05,3.2945e-06,2.44856e-07,-7.45831e-06,1.09452e-05,-1.16821e-05,1.30883e-05,-2.09784e-06,0
-2.73309e-05,3.03896e-06,-1.10344e-05,-7.22703e-06,1.0301e-05,-1.27703e-05,1.35367e-05,2.02586e-07,0
-2.76225e-05,2.90974e-06,-2.16325e-05,-7.72021e-06,9.79135e-06,-1.31222e-05,1.55945e-05,3.2917e-06,0
-2.84623e-05,7.50336e-07,-2.67522e-05,-8.75144e-06,9.24984e-06,-1.22984e-05,1.72214e-05,5.54852e-06,0
-3.08824e-05,-2.29182e-06,-2.60386e-05,-9.36068e-06,8.19741e-06,-1.18772e-05,1.83738e-05,5.06812e-06,0
-3.35877e-05,-3.08631e-06,-2.25055e-05,-9.65955e-06,6.68947e-06,-1.09376e-05,2.07233e-05,3.19533e-06,0
-3.56418e-05,-5.23461e-07,-1.99285e-05,-9.7804e-06,5.45219e-06,-9.55963e-06,2.43986e-05,3.71795e-06,0
-3.70521e-05,2.68634e-06,-1.83048e-05,-9.73415e-06,4.49797e-06,-9.11888e-06,2.63174e-05,6.60396e-06,0
-3.66347e-05,4.60449e-06,-1.65109e-05,-8.90671e-06,3.23962e-06,-9.72693e-06,1.94874e-05,8.40717e-06,0
-3.51642e-05,5.04545e-06,-1.4201e-05,-7.24721e-06,2.2734e-06,-1.01028e-05,1.46617e-06,7.15547e-06,0
-3.40058e-05,4.45885e-06,-1.16083e-05,-5.44895e-06,1.58731e-06,-9.9246e-06,-1.80374e-05,5.2163e-06,0
-3.35867e-05,3.90674e-06,-1.04509e-05,-4.88065e-06,1.17444e-06,-8.62185e-06,-2.56881e-05,4.88803e-06,0
-3.35337e-05,4.68506e-06,-1.10984e-05,-4.974e-06,9.98747e-07,-6.57619e-06,-1.82764e-05,5.15193e-06,0
-3.26378e-05,6.59987e-06,-1.12721e-05,-4.96686e-06,1.13735e-07,-4.66754e-06,-3.43994e-06,4.70437e-06,0
-3.18175e-05,8.31042e-06,-9.5886e-06,-6.5078e-06,-1.47388e-06,-3.1386e-06,1.02844e-05,3.75323e-06,0
-3.19787e-05,1.03075e-05,-7.76095e-06,-1.0783e-05,-3.07532e-06,-2.30749e-06,1.95822e-05,2.36629e-06,0
-3.20055e-05,1.66062e-05,-8.26907e-06,-1.80432e-05,-4.28272e-06,-2.67798e-06,2.53477e-05,6.4066e-07,0
-3.07991e-05,2.87969e-05,-1.06531e-05,-2.6511e-05,-4.67729e-06,-2.56147e-06,2.89681e-05,-2.65275e-07,0
-2.97571e-05,3.98246e-05,-1.08181e-05,-3.10183e-05,-5.75551e-06,-2.6268e-06,3.41535e-05,-6.90326e-07,0
-2.9942e-05,4.74131e-05,-8.87952e-06,-2.61604e-05,-6.95516e-06,-4.126e-06,4.30404e-05,-9.52798e-07,0
-2.99971e-05,5.11524e-05,-7.54798e-06,-1.30343e-05,-7.09096e-06,-3.46789e-06,4.96393e-05,-3.61364e-07,0
-2.97879e-05,4.88469e-05,-6.67546e-06,-5.99576e-07,-7.17421e-06,-2.36653e-06,5.12575e-05,1.81874e-07,0
-2.98246e-05,4.39586e-05,-4.31211e-06,6.82157e-06,-6.84823e-06,-4.22016e-06,5.17506e-05,1.00811e-06,0
-2.94067e-05,3.80422e-05,-2.4154e-06,9.51074e-06,-7.15098e-06,-8.02063e-06,4.67574e-05,2.39085e-06,0
-3.00588e-05,3.15963e-05,-2.79251e-06,7.63958e-06,-6.11752e-06,-1.01808e-05,2.71643e-05,3.19208e-06,0
-3.14168e-05,2.46417e-05,-1.65273e-06,5.2712e-06,-2.61033e-06,-9.38732e-06,-2.02634e-06,2.71202e-06,0
-3.18349e-05,1.56391e-05,-3.77493e-07,3.95217e-06,1.03709e-06,-7.41454e-06,-2.21807e-05,1.48494e-06,0
-3.101e-05,4.72539e-06,-7.02935e-07,1.09667e-06,3.40511e-06,-6.64451e-06,-2.53964e-05,5.7046e-07,0
-2.91492e-05,-3.49909e-06,-1.8185e-06,-6.61593e-06,4.32507e-06,-6.96946e-06,-1.7183e-05,1.0812e-06,0
-2.74524e-05,-4.13003e-06,-2.2433e-06,-1.63737e-05,5.81226e-06,-7.50634e-06,-9.10955e-06,4.17739e-07,0
-2.75254e-05,1.51494e-06,-9.60834e-07,-2.61546e-05,9.55822e-06,-8.1393e-06,-5.93882e-06,-1.08063e-06,0
-2.84941e-05,9.48176e-06,-1.11935e-06,-3.55131e-05,1.2234e-05,-7.75835e-06,-3.4706e-06,-1.12523e-06,0
-2.98759e-05,1.65172e-05,-2.9982e-06,-4.09728e-05,1.22176e-05,-8.3903e-06,1.30223e-07,-2.41095e-06,0
-3.20969e-05,2.115e-05,-4.07056e-06,-4.18691e-05,1.2767e-05,-9.52916e-06,3.18692e-06,-4.43586e-06,0
-3.31877e-05,2.29847e-05,-2.52803e-06,-3.91803e-05,1.45984e-05,-9.82206e-06,3.95755e-06,-4.3031e-06,0
-3.1668e-05,2.33305e-05,5.8969e-07,-3.2611e-05,1.53157e-05,-9.38505e-06,3.0954e-06,-2.10602e-06,0
-2.93514e-05,2.3638e-05,2.646e-06,-2.19644e-05,1.44699e-05,-9.34738e-06,1.86784e-06,-3.91145e-07,0
-2.80317e-05,2.4908e-05,2.87463e-06,-1.02606e-05,1.36725e-05,-9.01419e-06,3.53469e-06,-4.37939e-07,0
-2.80473e-05,2.68143e-05,2.11593e-06,-1.88019e-06,1.42487e-05,-6.50586e-06,8.50296e-06,-1.91031e-06,0
-2.98037e-05,2.73461e-05,4.44123e-07,2.47632e-06,1.57582e-05,-3.97056e-06,1.40672e-05,-1.49211e-06,0
-3.15714e-05,2.57871e-05,-1.15895e-06,4.54971e-06,1.561e-05,-3.34941e-06,1.71674e-05,-1.81372e-07,0
-3.0928e-05,2.40174e-05,-2.04784e-06,3.74723e-06,1.3626e-05,-4.36119e-06,1.58184e-05,-8.98508e-07,0
-2.89512e-05,2.43526e-05,-1.7551e-06,5.06365e-07,1.06475e-05,-5.73224e-06,1.12855e-05,-1.98352e-06,0
-2.993e-05,2.58723e-05,-2.6033e-07,-2.74812e-06,9.24312e-06,-5.90391e-06,9.42144e-06,-2.12619e-06,0
-3.30107e-05,2.8664e-05,2.80544e-07,-6.03864e-06,1.08931e-05,-4.95816e-06,9.36758e-06,-1.37898e-06,0
-3.44555e-05,3.57252e-05,-9.58656e-07,-8.58082e-06,1.28635e-05,-5.3917e-06,8.97194e-06,-2.72789e-07,0
-3.43765e-05,4.57943e-05,-5.17714e-06,-8.41952e-06,1.32519e-05,-7.84265e-06,9.2742e-06,8.75983e-07,0
-3.33769e-05,5.29282e-05,-1.31446e-05,-8.88494e-06,1.35251e-05,-8.2689e-06,8.93552e-06,2.82094e-06,0
-3.18607e-05,5.6584e-05,-2.26299e-05,-1.07125e-05,1.44042e-05,-6.58936e-06,6.85048e-06,4.16677e-06,0
-3.02441e-05,5.71208e-05,-3.17886e-05,-1.19432e-05,1.41981e-05,-6.59932e-06,3.70925e-06,3.29654e-06,0
-2.6834e-05,4.98511e-05,-3.75359e-05,-1.10523e-05,1.26338e-05,-6.74781e-06,3.32945e-06,3.5108e-06,0
-2.50543e-05,3.18142e-05,-3.62492e-05,-7.39561e-06,1.15166e-05,-6.37079e-06,4.63869e-06,4.90734e-06,0
-2.5559e-05,6.12688e-06,-2.85924e-05,-2.07396e-06,1.02632e-05,-6.15965e-06,6.88202e-06,4.8805e-06,0
-2.70438e-05,-1.78974e-05,-1.95088e-05,1.50035e-06,9.73759e-06,-7.77936e-06,8.98367e-06,3.64957e-06,0
-3.04356e-05,-3.22741e-05,-1.34771e-05,2.12307e-06,1.1151e-05,-9.41463e-06,9.25231e-06,2.66184e-06,0
-3.36612e-05,-3.15915e-05,-1.1668e-05,2.41555e-06,1.15751e-05,-1.01606e-05,9.62662e-06,2.45305e-06,0
-3.49118e-05,-1.81389e-05,-1.2173e-05,4.2076e-06,1.03473e-05,-1.01089e-05,1.11109e-05,1.2952e-06,0
-3.38487e-05,-2.82558e-06,-1.21211e-05,6.87499e-06,1.05226e-05,-8.93946e-06,1.36024e-05,-5.9288e-07,0
-3.31999e-05,7.03174e-06,-1.20397e-05,6.90229e-06,1.37486e-05,-7.66274e-06,1.63015e-05,-9.69453e-07,0
-3.33217e-05,1.2241e-05,-1.20432e-05,6.15696e-06,1.81624e-05,-6.62163e-06,1.83854e-05,2.89684e-07,0
-3.44035e-05,1.58391e-05,-1.3042e-05,6.96606e-06,2.23672e-05,-6.89091e-06,1.89612e-05,2.35639e-06,0
-3.56189e-05,1.88763e-05,-1.43486e-05,8.19804e-06,2.49461e-05,-7.77925e-06,1.88446e-05,5.69959e-06,0
-3.57551e-05,2.09239e-05,-1.51728e-05,7.64053e-06,2.45013e-05,-8.93123e-06,1.8093e-05,9.13359e-06,0
-3.49337e-05,1.97108e-05,-1.67008e-05,5.37732e-06,2.19443e-05,-1.01992e-05,1.59021e-05,9.74046e-06,0
-3.38515e-05,1.55759e-05,-1.80112e-05,1.84237e-06,2.01078e-05,-1.09803e-05,1.29407e-05,7.34929e-06,0
-3.15068e-05,1.17505e-05,-1.75001e-05,-1.90056e-06,2.09891e-05,-9.90231e-06,1.13982e-05,5.48929e-06,0
-2.73842e-05,1.05266e-05,-1.34758e-05,-3.5124e-06,2.43723e-05,-8.72059e-06,1.09683e-05,6.44274e-06,0
-2.38481e-05,1.02817e-05,-4.67132e-06,-1.7982e-06,2.70647e-05,-9.06434e-06,8.94776e-06,7.69926e-06,0
-2.28553e-05,9.38584e-06,9.25776e-06,2.52087e-06,2.77617e-05,-1.05991e-05,6.81086e-06,7.14643e-06,0
-2.44627e-05,7.83721e-06,2.49209e-05,5.06979e-06,2.82861e-05,-1.20974e-05,7.67261e-06,5.91475e-06,0
-2.64633e-05,6.31647e-06,3.70279e-05,4.25972e-06,2.91351e-05,-1.23139e-05,1.15214e-05,5.57343e-06,0
-2.64807e-05,6.26689e-06,4.16111e-05,3.01531e-06,2.81332e-05,-1.15188e-05,1.51546e-05,4.66857e-06,0
-2.50576e-05,8.24876e-06,3.54066e-05,5.03283e-07,2.51193e-05,-1.05816e-05,1.7012e-05,3.52814e-06,0
-2.44216e-05,1.09991e-05,1.63246e-05,-5.46398e-06,2.25651e-05,-1.02745e-05,1.78908e-05,3.11026e-06,0
-2.51952e-05,1.19708e-05,-8.9939e-06,-1.19422e-05,2.31846e-05,-1.06335e-05,1.80163e-05,3.60998e-06,0
-2.76184e-05,9.32163e-06,-3.18302e-05,-1.60871e-05,2.57704e-05,-1.09132e-05,1.63962e-05,4.02708e-06,0
-2.81849e-05,5.76362e-06,-4.71524e-05,-1.70027e-05,2.60526e-05,-1.15243e-05,1.34234e-05,3.12628e-06,0
-2.58073e-05,6.05024e-06,-5.01558e-05,-1.50159e-05,2.35337e-05,-1.13543e-05,1.01244e-05,1.97286e-06,0
-2.5261e-05,7.8611e-06,-4.39792e-05,-1.16074e-05,1.91755e-05,-1.14167e-05,8.14027e-06,-7.77983e-08,0
-2.74804e-05,8.63764e-06,-3.57726e-05,-8.6134e-06,1.60982e-05,-1.29406e-05,8.56678e-06,-8.65444e-07,0
-2.90439e-05,8.95282e-06,-2.92404e-05,-6.61736e-06,1.60236e-05,-1.3769e-05,8.23369e-06,-8.7476e-07,0
-2.87207e-05,8.47026e-06,-2.42495e-05,-5.91428e-06,1.82742e-05,-1.36336e-05,7.81136e-07,-1.17278e-06,0
-2.67478e-05,8.31026e-06,-2.08444e-05,-6.07383e-06,1.96303e-05,-1.38746e-05,-1.1986e-05,-2.1174e-07,0
-2.60897e-05,9.09569e-06,-1.66947e-05,-6.03766e-06,1.82207e-05,-1.52448e-05,-1.92907e-05,1.553e-06,0
-2.76054e-05,9.75278e-06,-1.07157e-05,-5.30026e-06,1.45644e-05,-1.65458e-05,-1.60881e-05,3.12643e-06,0
-2.98472e-05,8.28432e-06,-6.06801e-06,-5.3738e-06,1.1298e-05,-1.63319e-05,-4.16875e-06,2.98856e-06,0
-3.19236e-05,5.55536e-06,-3.87767e-06,-6.35863e-06,1.04232e-05,-1.52679e-05,9.95289e-06,2.27245e-06,0
-3.38707e-05,4.48823e-06,-3.82662e-06,-4.8948e-06,1.10536e-05,-1.43089e-05,2.19137e-05,2.85418e-06,0
-3.57925e-05,5.49233e-06,-4.14691e-06,-1.42411e-06,1.22942e-05,-1.35037e-05,3.10206e-05,4.10609e-06,0
-3.66426e-05,6.62817e-06,-3.45748e-06,4.04272e-08,1.28723e-05,-1.28038e-05,3.74139e-05,4.72058e-06,0
-3.55925e-05,6.17292e-06,-1.22182e-06,-2.17391e-06,1.30215e-05,-1.18894e-05,3.99919e-05,4.07354e-06,0
-3.21795e-05,4.85188e-06,7.93535e-07,-6.41001e-06,1.34514e-05,-1.13172e-05,3.65256e-05,2.59836e-06,0
-2.90814e-05,3.432e-06,1.88618e-06,-9.85368e-06,1.41687e-05,-1.09119e-05,2.75331e-05,1.9166e-06,0
-2.84248e-05,2.2384e-06,1.97682e-06,-1.11281e-05,1.24649e-05,-1.10879e-05,1.68202e-05,3.26585e-06,0
-3.02367e-05,1.41829e-06,6.28027e-07,-1.07376e-05,8.73396e-06,-1.19381e-05,9.73423e-06,6.5938e-06,0
-3.18721e-05,6.6279e-07,-2.60905e-06,-9.50997e-06,4.95816e-06,-1.34892e-05,8.07279e-06,8.1877e-06,0
-3.14613e-05,-5.66157e-07,-6.03696e-06,-8.30325e-06,1.70641e-06,-1.55168e-05,9.76112e-06,5.69773e-06,0
-3.07138e-05,-7.60209e-07,-6.41367e-06,-6.07561e-06,-1.14818e-06,-1.75383e-05,1.2274e-05,1.9473e-06,0
-3.10771e-05,2.21245e-06,-3.89794e-06,-3.06142e-06,-4.76952e-06,-1.81754e-05,1.36394e-05,-2.93111e-07,0
-3.17798e-05,5.14706e-06,-1.7359e-06,-6.03101e-07,-7.4834e-06,-1.63046e-05,1.17804e-05,-9.67603e-07,0
-3.26609e-05,5.25333e-06,-2.66322e-07,1.38132e-06,-8.16114e-06,-1.37473e-05,1.01608e-05,1.14877e-06,0
-3.20015e-05,6.47524e-06,1.39842e-06,1.35482e-06,-9.06035e-06,-1.34672e-05,1.24048e-05,4.60094e-06,0
-3.05218e-05,9.42666e-06,2.05432e-06,-4.77125e-07,-1.00968e-05,-1.33242e-05,1.40036e-05,4.34086e-06,0
-3.13383e-05,1.128e-05,2.84044e-06,-2.19695e-06,-8.08829e-06,-1.1118e-05,1.28326e-05,1.28213e-06,0
-3.2698e-05,1.37366e-05,7.85061e-06,-2.9424e-06,-3.36465e-06,-8.78635e-06,1.25344e-05,-1.59292e-06,0
-3.21126e-05,1.64128e-05,1.97797e-05,-4.56928e-06,1.15927e-06,-6.77776e-06,1.39735e-05,-2.26921e-06,0
-2.96026e-05,1.82381e-05,3.55002e-05,-6.96575e-06,4.01542e-06,-6.33834e-06,1.55845e-05,-1.78847e-06,0
-2.65585e-05,2.03182e-05,4.93285e-05,-7.34768e-06,5.52966e-06,-7.24183e-06,1.61512e-05,-2.41286e-06,0
-2.57304e-05,2.18715e-05,5.28013e-05,-7.19577e-06,7.46781e-06,-7.93574e-06,1.57154e-05,-2.80618e-06,0
-2.73772e-05,2.20841e-05,4.01206e-05,-7.51099e-06,9.4414e-06,-8.80097e-06,1.54968e-05,-2.55201e-06,0
-2.93313e-05,1.91832e-05,1.12137e-05,-5.22571e-06,1.31168e-05,-9.42372e-06,1.6946e-05,-3.05609e-06,0
-3.10576e-05,1.3472e-05,-2.54073e-05,1.151e-06,1.904e-05,-9.63615e-06,1.79042e-05,-3.53765e-06,0
-3.15037e-05,6.84636e-06,-5.64803e-05,7.27029e-06,2.34698e-05,-9.97948e-06,1.6927e-05,-3.81453e-06,0
-3.09197e-05,1.77466e-06,-7.40047e-05,1.02885e-05,2.37038e-05,-1.05053e-05,1.54093e-05,-5.34441e-06,0
-3.13674e-05,6.27571e-09,-7.72185e-05,1.10128e-05,2.15354e-05,-1.03929e-05,1.45868e-05,-7.36162e-06,0
-3.23617e-05,5.43355e-07,-6.83888e-05,1.01811e-05,1.98791e-05,-8.9837e-06,1.49857e-05,-8.4157e-06,0
-3.20871e-05,1.28967e-06,-5.30999e-05,8.41788e-06,1.88535e-05,-7.32005e-06,1.61099e-05,-8.58888e-06,0
-3.1721e-05,1.07617e-06,-3.94263e-05,7.63715e-06,1.9464e-05,-5.54036e-06,1.72051e-05,-7.87687e-06,0
-3.2307e-05,9.97842e-07,-3.00011e-05,8.69542e-06,2.25858e-05,-3.49171e-06,1.68365e-05,-5.98802e-06,0
-3.21434e-05,2.21626e-06,-2.27161e-05,8.51939e-06,2.72551e-05,-4.85225e-07,1.5764e-05,-3.73941e-06,0
-3.09683e-05,5.41331e-06,-1.55456e-05,5.13571e-06,3.00925e-05,2.36748e-06,1.4549e-05,-1.53488e-06,0
-3.00955e-05,7.61152e-06,-1.0668e-05,1.24425e-06,3.07281e-05,1.01633e-06,1.31265e-05,1.2154e-07,0
-2.87487e-05,8.21152e-06,-9.007e-06,-1.2633e-06,3.04031e-05,-3.41716e-06,1.3162e-05,5.52882e-07,0
-2.80899e-05,1.02737e-05,-7.80639e-06,-5.29542e-06,2.88983e-05,-3.89641e-06,1.46626e-05,5.25717e-07,0
-2.99883e-05,1.27996e-05,-6.63235e-06,-1.40184e-05,2.79559e-05,1.36493e-07,1.5481e-05,9.82709e-07,0
-3.22022e-05,1.46109e-05,-4.5953e-06,-2.65085e-05,2.71001e-05,4.08137e-06,1.51737e-05,1.12357e-06,0
-3.16581e-05,1.72777e-05,1.33163e-07,-3.37111e-05,2.39914e-05,4.74398e-06,1.40151e-05,3.20384e-07,0
-3.06243e-05,2.21404e-05,4.39035e-06,-3.07593e-05,1.87485e-05,3.81528e-06,1.46775e-05,-1.31884e-06,0
-3.10501e-05,2.79849e-05,4.94604e-06,-2.34141e-05,1.29942e-05,1.65665e-06,1.59427e-05,-2.06287e-06,0
-3.02867e-05,3.18535e-05,2.23113e-06,-1.71742e-05,9.23483e-06,-1.42904e-06,1.46439e-05,-8.16816e-07,0
-2.91921e-05,3.3286e-05,-2.53115e-07,-1.28427e-05,8.55968e-06,-2.17955e-06,1.31183e-05,1.21564e-06,0
-2.90266e-05,3.22255e-05,-1.44233e-06,-9.21109e-06,1.12042e-05,-2.40177e-06,1.33768e-05,1.92914e-06,0
-2.94901e-05,2.9335e-05,-3.73177e-06,-5.0161e-06,1.67469e-05,-3.65675e-06,1.45681e-05,1.08784e-06,0
-3.05083e-05,2.60803e-05,-6.29842e-06,-4.59745e-07,2.4007e-05,-6.56908e-06,1.44556e-05,2.90797e-07,0
-3.06232e-05,2.29586e-05,-7.48959e-06,1.94566e-06,2.62754e-05,-9.481e-06,1.41039e-05,4.58615e-07,0
-2.91637e-05,1.98994e-05,-8.32559e-06,8.09232e-07,2.29454e-05,-1.28765e-05,1.53098e-05,2.84983e-06,0
-2.68557e-05,1.70847e-05,-9.20143e-06,-3.03204e-06,1.9532e-05,-1.5937e-05,1.72479e-05,5.20876e-06,0
-2.55385e-05,1.48856e-05,-9.24906e-06,-4.74327e-06,1.84986e-05,-1.83054e-05,1.95601e-05,5.16767e-06,0
-2.62782e-05,1.5681e-05,-7.80081e-06,-3.02036e-06,1.84518e-05,-2.00591e-05,2.1637e-05,4.51516e-06,0
-2.80814e-05,2.14167e-05,-5.50758e-06,-1.21844e-06,1.60046e-05,-1.97798e-05,2.41813e-05,4.54181e-06,0
-2.98707e-05,2.84179e-05,-3.09822e-06,-6.08159e-07,1.23212e-05,-1.95082e-05,2.64474e-05,4.10254e-06,0
-3.03421e-05,3.17666e-05,-2.0746e-06,2.27887e-07,1.03716e-05,-1.99741e-05,2.60827e-05,3.40543e-06,0
-2.98173e-05,3.02174e-05,-2.43603e-06,1.65366e-06,1.09307e-05,-2.03666e-05,2.32333e-05,3.4329e-06,0
-2.97241e-05,2.66679e-05,-3.14399e-06,2.13502e-06,1.14939e-05,-1.9261e-05,2.05655e-05,3.99919e-06,0
-3.03132e-05,2.13858e-05,-4.15855e-06,4.91504e-07,1.06914e-05,-1.84526e-05,2.10139e-05,3.70713e-06,0
-3.05308e-05,1.33421e-05,-5.1674e-06,-2.71734e-06,9.15641e-06,-1.94049e-05,2.26514e-05,1.312e-06,0
-3.03977e-05,3.8657e-06,-6.08827e-06,-4.50972e-06,9.91101e-06,-2.12409e-05,2.3164e-05,-1.66578e-06,0
-2.9293e-05,-5.65346e-06,-5.79108e-06,-3.48347e-06,1.23496e-05,-2.23704e-05,2.21544e-05,-2.87694e-06,0
-2.69246e-05,-1.38182e-05,-5.04471e-06,1.85846e-07,1.30646e-05,-2.29434e-05,1.95227e-05,-3.07644e-06,0
-2.59663e-05,-1.65272e-05,-3.95658e-06,4.53901e-06,9.63256e-06,-2.32564e-05,1.56317e-05,-4.29089e-06,0
-2.75101e-05,-1.01587e-05,-2.1547e-06,8.79215e-06,6.37829e-06,-2.23955e-05,1.00108e-05,-5.72796e-06,0
-3.04988e-05,1.15724e-08,-1.5055e-06,1.483e-05,6.93302e-06,-2.1214e-05,2.80587e-06,-6.40673e-06,0
-3.25477e-05,5.09577e-06,-2.78925e-06,1.81343e-05,9.14178e-06,-2.04804e-05,-2.70747e-06,-5.59535e-06,0
-3.19828e-05,5.13855e-06,-7.36617e-06,1.21818e-05,1.12443e-05,-2.04798e-05,-5.50387e-06,-3.55881e-06,0
-3.00152e-05,5.77626e-06,-1.68366e-05,1.02842e-06,1.41443e-05,-2.15872e-05,-7.92238e-06,-2.50862e-06,0
-2.93658e-05,7.43526e-06,-2.38723e-05,-7.05146e-06,1.60264e-05,-2.14544e-05,-8.99214e-06,-2.52554e-06,0
-2.91493e-05,6.58833e-06,-2.37213e-05,-1.44473e-05,1.45692e-05,-1.95626e-05,-7.02817e-06,-1.37235e-06,0
-2.82408e-05,2.84085e-06,-1.75054e-05,-2.40396e-05,1.24433e-05,-1.84754e-05,-4.01734e-06,-9.47046e-07,0
-2.7277e-05,-3.59081e-06,-8.88075e-06,-2.83683e-05,8.96125e-06,-2.04937e-05,-1.89985e-06,-2.96468e-06,0
-2.70759e-05,-1.25982e-05,-3.6529e-06,-2.55872e-05,3.71724e-06,-2.3353e-05,-1.68503e-06,-3.41368e-06,0
-2.82121e-05,-1.92071e-05,-2.83067e-06,-2.12995e-05,-1.99798e-06,-2.42379e-05,-2.17964e-07,-1.26053e-06,0
-3.00787e-05,-1.80354e-05,-6.05827e-06,-1.97969e-05,-5.48715e-06,-2.25303e-05,3.22511e-06,1.60032e-06,0
-3.26085e-05,-8.67809e-06,-1.12653e-05,-1.85791e-05,-5.42089e-06,-1.92847e-05,6.39813e-06,3.65181e-06,0
-3.40816e-05,4.07126e-06,-1.65691e-05,-1.67e-05,-4.63492e-06,-1.84067e-05,1.04194e-05,3.55255e-06,0
-3.32602e-05,1.38838e-05,-1.91388e-05,-1.43123e-05,-5.07411e-06,-1.90736e-05,1.36702e-05,2.89787e-06,0
-3.23737e-05,1.78206e-05,-1.8197e-05,-1.18647e-05,-5.70718e-06,-1.89169e-05,1.41604e-05,3.60469e-06,0
-3.27157e-05,1.7353e-05,-1.58448e-05,-8.08377e-06,-6.10115e-06,-1.77386e-05,1.23855e-05,4.59592e-06,0
-3.28402e-05,1.66669e-05,-1.28361e-05,9.14245e-07,-5.74241e-06,-1.69262e-05,1.13649e-05,4.1547e-06,0
-3.26461e-05,1.7605e-05,-9.51277e-06,1.26212e-05,-3.37147e-06,-1.56889e-05,1.14351e-05,1.83316e-06,0
-3.25902e-05,1.87731e-05,-5.9917e-06,2.24192e-05,8.5675e-07,-1.32958e-05,1.22825e-05,-6.97596e-07,0
-3.21448e-05,1.95434e-05,-3.83594e-06,2.785e-05,6.06851e-06,-1.06915e-05,1.41139e-05,-1.12943e-06,0
-3.11185e-05,2.09416e-05,-5.09713e-06,2.8879e-05,1.13591e-05,-8.77554e-06,1.57349e-05,-5.396e-07,0
-2.97586e-05,2.3035e-05,-9.83974e-06,2.41927e-05,1.53491e-05,-8.36606e-06,1.46341e-05,-9.92341e-07,0
-2.86579e-05,2.37105e-05,-1.55014e-05,1.6188e-05,1.59242e-05,-9.78586e-06,1.14559e-05,-2.28459e-06,0
