ch1,ch2,ch3,ch4,ch5,ch6,ch7,ch8,class
-2.94372e-05,1.98932e-05,-3.61659e-05,7.6221e-06,2.37755e-05,3.36652e-07,1.03226e-05,-1.57029e-06,0
-3.09389e-05,1.72301e-05,-3.20471e-05,6.69061e-06,2.17156e-05,2.1271e-06,7.68336e-06,-2.10688e-06,0
-3.32002e-05,1.46966e-05,-3.47695e-05,6.73627e-06,2.18138e-05,2.99418e-06,7.78261e-06,-3.30141e-06,0
-3.34972e-05,1.18977e-05,-4.44252e-05,5.19577e-06,2.25097e-05,3.27909e-06,1.09033e-05,-3.10836e-06,0
-3.21467e-05,8.81247e-06,-5.60888e-05,6.23587e-07,2.19826e-05,2.34962e-06,1.35893e-05,-1.53332e-06,0
-3.1793e-05,7.20603e-06,-6.44187e-05,-5.16498e-06,2.00486e-05,2.9807e-07,1.48481e-05,4.42517e-07,0
-3.29035e-05,6.64263e-06,-6.51083e-05,-1.0096e-05,1.6808e-05,-1.27351e-06,1.63433e-05,3.31898e-06,0
-3.39599e-05,7.08771e-06,-5.86868e-05,-1.51806e-05,1.1933e-05,-3.04377e-06,1.6267e-05,5.03692e-06,0
-3.38676e-05,7.32252e-06,-5.02913e-05,-2.21999e-05,8.76485e-06,-4.65137e-06,8.5638e-06,4.44105e-06,0
-3.37707e-05,5.49407e-06,-3.807e-05,-2.92438e-05,7.87464e-06,-6.1032e-06,-5.34939e-06,2.91092e-06,0
-3.45375e-05,3.65318e-06,-2.60131e-05,-3.3939e-05,6.94399e-06,-8.17995e-06,-1.33796e-05,2.01015e-06,0
-3.53475e-05,1.9621e-06,-1.98873e-05,-3.61454e-05,6.09752e-06,-9.37621e-06,-1.22724e-05,1.2531e-06,0
-3.50881e-05,4.48566e-07,-1.64742e-05,-3.61309e-05,5.28965e-06,-1.04853e-05,-7.85397e-06,2.36719e-06,0
-3.2939e-05,-3.31278e-07,-1.06067e-05,-3.51126e-05,5.66599e-06,-1.11696e-05,-7.44292e-07,4.23111e-06,0
-3.14019e-05,-1.34586e-06,-2.27433e-06,-3.29992e-05,7.06424e-06,-1.00092e-05,7.39381e-06,4.41206e-06,0
-2.99615e-05,-1.60556e-06,2.26985e-06,-2.96029e-05,9.01448e-06,-7.44151e-06,1.75357e-05,5.10515e-06,0
-2.80482e-05,-1.8928e-06,4.55468e-06,-2.64145e-05,1.1461e-05,-6.24918e-06,2.99608e-05,5.4212e-06,0
-2.76166e-05,-4.00472e-07,6.61408e-06,-2.39001e-05,1.47104e-05,-7.03408e-06,3.92722e-05,4.4491e-06,0
-2.80881e-05,1.64397e-06,8.15017e-06,-2.10531e-05,1.89685e-05,-6.02836e-06,4.24827e-05,4.02599e-06,0
-2.77547e-05,9.75141e-07,9.60762e-06,-1.40191e-05,2.25949e-05,-3.02693e-06,4.10478e-05,4.21001e-06,0
-2.7828e-05,-1.25745e-07,1.17304e-05,-3.06934e-06,2.43559e-05,-1.61538e-06,3.68082e-05,4.03359e-06,0
-2.94617e-05,6.79068e-08,1.35613e-05,5.02788e-06,2.4049e-05,-2.71231e-06,3.14454e-05,3.01354e-06,0
-3.11829e-05,1.50709e-06,1.30957e-05,2.97025e-06,2.24971e-05,-6.89563e-06,2.61436e-05,1.60419e-06,0
-3.19066e-05,2.76916e-06,9.02765e-06,-8.40178e-06,2.12593e-05,-1.15505e-05,2.15647e-05,6.06331e-07,0
-3.18148e-05,3.65006e-06,2.34331e-06,-1.93303e-05,2.2301e-05,-1.16769e-05,1.85959e-05,9.35203e-08,0
-3.22464e-05,4.51583e-06,-5.09661e-06,-2.00392e-05,2.65594e-05,-6.67086e-06,1.71267e-05,2.12564e-08,0
-3.37467e-05,6.89616e-06,-1.40196e-05,-7.68248e-06,3.13381e-05,-1.63986e-06,1.73728e-05,-2.73697e-07,0
-3.56582e-05,1.00095e-05,-2.39092e-05,8.12532e-06,2.93097e-05,-1.44634e-06,1.79054e-05,-8.13532e-07,0
-3.72035e-05,1.15856e-05,-3.38597e-05,1.5668e-05,1.93896e-05,-3.42081e-06,1.7966e-05,-1.17586e-06,0
-3.8059e-05,1.108e-05,-4.05644e-05,1.03022e-05,9.61865e-06,-3.5429e-06,1.75906e-05,-1.39269e-06,0
-3.65791e-05,1.02694e-05,-4.19178e-05,-4.32427e-06,3.17116e-06,-3.63333e-06,1.663e-05,-1.27379e-06,0
-3.34739e-05,1.09335e-05,-3.81935e-05,-1.95532e-05,-3.72945e-06,-6.26879e-06,1.43028e-05,-3.29753e-07,0
-2.98889e-05,1.2156e-05,-3.02651e-05,-2.96303e-05,-1.03887e-05,-1.01321e-05,1.13565e-05,8.20742e-07,0
-2.71257e-05,1.4024e-05,-1.93963e-05,-3.39007e-05,-1.24429e-05,-1.19657e-05,8.86018e-06,1.78796e-06,0
-2.70597e-05,1.61916e-05,-8.58562e-06,-3.14861e-05,-8.79041e-06,-1.06034e-05,7.03847e-06,1.43648e-06,0
-2.87841e-05,1.66592e-05,1.12038e-07,-2.1483e-05,-3.30792e-06,-7.86976e-06,6.46187e-06,-6.69039e-07,0
-3.08804e-05,1.5757e-05,5.80292e-06,-2.50188e-06,7.94091e-07,-5.65793e-06,5.24061e-06,-3.18685e-06,0
-3.14565e-05,1.56297e-05,6.80053e-06,1.76799e-05,4.50876e-06,-5.17817e-06,1.94514e-06,-3.63339e-06,0
-3.05603e-05,1.56294e-05,3.55198e-06,2.97018e-05,8.22925e-06,-5.9959e-06,7.66446e-07,-2.41345e-06,0
-2.86096e-05,1.5205e-05,3.68375e-07,2.9964e-05,9.75713e-06,-6.18632e-06,4.68845e-07,-3.98649e-07,0
-2.66603e-05,1.45215e-05,1.25113e-06,2.427e-05,8.3486e-06,-5.13396e-06,5.76671e-07,8.35127e-07,0
-2.62358e-05,1.2721e-05,5.75107e-06,2.99127e-05,7.11788e-06,-4.37604e-06,3.01283e-06,8.54765e-07,0
-2.63898e-05,1.22001e-05,8.72905e-06,4.03725e-05,6.56001e-06,-5.02879e-06,5.98075e-06,5.66193e-07,0
-2.62436e-05,1.32195e-05,7.76986e-06,3.802e-05,4.72072e-06,-6.96465e-06,1.04716e-05,-1.3815e-06,0
-2.57759e-05,1.44744e-05,4.6625e-06,2.25712e-05,3.27013e-06,-8.83364e-06,1.52828e-05,-2.32378e-06,0
-2.49683e-05,1.47975e-05,2.98828e-06,3.8373e-06,4.72246e-06,-1.08862e-05,1.94263e-05,-6.78697e-07,0
-2.46255e-05,1.48913e-05,5.60212e-06,-1.12512e-05,7.98656e-06,-1.24931e-05,2.11051e-05,1.70208e-06,0
-2.60348e-05,1.55057e-05,9.72014e-06,-2.42362e-05,1.07715e-05,-1.35466e-05,1.95812e-05,2.01817e-06,0
-2.68642e-05,1.55533e-05,1.25078e-05,-3.81901e-05,1.09577e-05,-1.58263e-05,1.58206e-05,4.40217e-07,0
-2.58364e-05,1.58011e-05,1.50683e-05,-5.02883e-05,1.03864e-05,-1.87244e-05,1.11378e-05,-9.70305e-07,0
-2.51015e-05,1.69525e-05,1.74898e-05,-5.57403e-05,1.1887e-05,-2.03082e-05,7.89013e-06,-8.58185e-07,0
-2.68959e-05,1.921e-05,1.77587e-05,-5.62848e-05,1.55471e-05,-2.01891e-05,7.9155e-06,-1.57498e-07,0
-2.98563e-05,1.95501e-05,1.69404e-05,-6.09692e-05,1.9758e-05,-2.02088e-05,9.96621e-06,4.80914e-07,0
-3.13343e-05,1.72e-05,1.66489e-05,-7.71276e-05,2.24204e-05,-2.05515e-05,1.17519e-05,9.45177e-07,0
-3.09819e-05,1.45315e-05,1.62615e-05,-9.86104e-05,2.23616e-05,-2.02045e-05,1.24859e-05,2.89534e-07,0
-2.9303e-05,1.46153e-05,1.26148e-05,-0.000114373,1.97306e-05,-1.8827e-05,1.276e-05,-7.15475e-07,0
-2.75964e-05,1.70501e-05,5.66959e-06,-0.000116663,1.6778e-05,-1.62753e-05,1.36307e-05,-1.70118e-06,0
-2.65096e-05,1.88232e-05,-2.05394e-06,-9.80415e-05,1.58904e-05,-1.20704e-05,1.43998e-05,-2.76349e-06,0
-2.5691e-05,2.04441e-05,-1.0934e-05,-5.56669e-05,1.66785e-05,-8.50494e-06,1.38211e-05,-3.34328e-06,0
-2.5042e-05,2.24171e-05,-2.1609e-05,2.49637e-06,1.62936e-05,-7.28419e-06,1.20619e-05,-2.29899e-06,0
-2.53056e-05,2.15932e-05,-3.19958e-05,6.44424e-05,1.44111e-05,-7.46141e-06,1.00415e-05,2.66634e-07,0
-2.5388e-05,1.84387e-05,-3.99433e-05,0.000111652,1.17631e-05,-8.94274e-06,8.67646e-06,1.1463e-06,0
-2.54593e-05,1.59515e-05,-4.59202e-05,0.000125695,6.67651e-06,-1.21359e-05,8.31889e-06,-1.33395e-06,0
-2.65133e-05,1.24869e-05,-5.21483e-05,0.000107588,-9.16985e-07,-1.67794e-05,6.78676e-06,-1.8198e-06,0
-2.91965e-05,8.30965e-06,-5.31944e-05,7.29833e-05,-5.32509e-06,-1.95422e-05,5.69024e-06,4.44887e-07,0
-3.20364e-05,5.91371e-06,-4.41824e-05,4.76335e-05,-2.02618e-06,-1.9886e-05,4.61372e-06,3.9989e-07,0
-3.37033e-05,3.84155e-06,-3.41895e-05,4.85937e-05,4.01708e-06,-2.05026e-05,-4.04624e-06,-1.8072e-06,0
-3.37194e-05,2.0321e-06,-3.00415e-05,6.51665e-05,-9.50317e-07,-2.1971e-05,-1.86492e-05,-2.85634e-06,0
-3.25813e-05,3.12503e-07,-3.0778e-05,8.10451e-05,-1.41383e-05,-2.21898e-05,-2.90416e-05,-1.89143e-06,0
-3.17856e-05,-6.01468e-07,-2.89909e-05,8.42391e-05,-1.90376e-05,-1.95287e-05,-3.07592e-05,-1.02061e-06,0
-3.10939e-05,4.25305e-07,-2.18764e-05,7.22016e-05,-1.05158e-05,-1.78303e-05,-2.65386e-05,-6.41906e-07,0
-3.18654e-05,1.59523e-06,-1.26179e-05,5.38337e-05,6.25853e-06,-1.816e-05,-2.08847e-05,4.86318e-07,0
-3.36194e-05,2.98969e-06,-9.25193e-07,3.09516e-05,2.32896e-05,-1.90939e-05,-1.33585e-05,1.68873e-06,0
-3.48775e-05,4.28783e-06,9.19851e-06,6.04625e-06,3.76601e-05,-1.96931e-05,-3.61948e-06,1.31514e-06,0
-3.38538e-05,6.37677e-06,1.39691e-05,-1.46223e-05,4.90729e-05,-1.7972e-05,7.39343e-06,1.57136e-07,0
-3.07862e-05,1.00757e-05,1.38245e-05,-2.42949e-05,5.91094e-05,-1.40772e-05,1.74981e-05,-9.31664e-07,0
-2.82351e-05,1.43396e-05,1.26449e-05,-7.58178e-06,6.58147e-05,-9.35481e-06,2.33594e-05,-2.7526e-06,0
-2.71803e-05,1.75666e-05,1.16089e-05,4.23701e-05,6.63719e-05,-4.69997e-06,2.43106e-05,-2.97182e-06,0
-2.63656e-05,2.08505e-05,7.86234e-06,8.77095e-05,6.17763e-05,-1.2589e-06,2.41415e-05,6.58845e-07,0
-2.55107e-05,2.33707e-05,-9.95311e-07,7.71265e-05,5.63506e-05,-2.18475e-07,2.51439e-05,4.75825e-06,0
-2.52602e-05,2.34056e-05,-1.23789e-05,1.48262e-05,5.22907e-05,6.36305e-07,2.59642e-05,5.64114e-06,0
-2.56688e-05,2.18378e-05,-1.96184e-05,-4.45127e-05,4.71413e-05,2.47503e-06,2.78052e-05,4.3074e-06,0
-2.70296e-05,2.06658e-05,-2.02801e-05,-6.35788e-05,3.8439e-05,3.06786e-06,3.17807e-05,3.92319e-06,0
-2.85182e-05,2.01164e-05,-1.72913e-05,-4.84801e-05,2.51027e-05,6.2971e-07,3.91467e-05,4.55975e-06,0
-2.97179e-05,2.1179e-05,-1.4378e-05,-1.98863e-05,1.24992e-05,-2.64648e-06,4.85888e-05,3.52507e-06,0
-3.08162e-05,2.48657e-05,-9.50842e-06,4.54168e-06,6.29148e-06,-4.30297e-06,5.55283e-05,1.6639e-06,0
-3.19763e-05,2.78219e-05,4.47301e-07,1.74097e-05,6.33648e-06,-5.41994e-06,5.73498e-05,2.97723e-07,0
-3.19901e-05,2.86392e-05,1.60254e-05,1.70201e-05,9.00282e-06,-7.52303e-06,5.56056e-05,-6.73616e-08,0
-3.06783e-05,2.64647e-05,3.3209e-05,1.19439e-06,1.22867e-05,-8.66745e-06,5.31042e-05,3.01496e-07,0
-2.98484e-05,2.2391e-05,4.52029e-05,-2.86379e-05,1.56524e-05,-8.62521e-06,4.97147e-05,-5.27303e-07,0
-2.97613e-05,1.94734e-05,5.05892e-05,-6.58751e-05,1.72815e-05,-1.11308e-05,4.68395e-05,-1.0675e-07,0
-2.99339e-05,1.7587e-05,5.39746e-05,-8.97577e-05,1.41324e-05,-1.56311e-05,5.12881e-05,1.83609e-06,0
-3.18894e-05,1.45902e-05,5.41161e-05,-9.17271e-05,6.89167e-06,-1.81505e-05,6.11808e-05,2.85154e-06,0
-3.4698e-05,1.17051e-05,4.34493e-05,-8.56673e-05,2.70662e-07,-1.68114e-05,6.5786e-05,3.68934e-06,0
-3.51426e-05,1.19831e-05,2.00471e-05,-7.36436e-05,-4.22176e-06,-1.53752e-05,5.96152e-05,4.14132e-06,0
-3.41138e-05,1.15987e-05,-1.24214e-05,-5.77625e-05,-5.82909e-06,-1.61199e-05,4.29579e-05,3.52115e-06,0
-3.29593e-05,6.91766e-06,-4.33043e-05,-4.19601e-05,-4.40474e-06,-1.74558e-05,2.03606e-05,1.94015e-06,0
-3.16735e-05,3.99856e-06,-6.35222e-05,-3.25448e-05,-2.38688e-06,-1.83362e-05,-6.55921e-08,5.56845e-07,0
-3.17916e-05,6.96498e-06,-7.18979e-05,-2.78749e-05,-9.5013e-07,-1.81501e-05,-1.37132e-05,5.42876e-07,0
-3.1904e-05,1.07024e-05,-6.99e-05,-2.31453e-05,-2.16303e-07,-1.70415e-05,-2.05985e-05,4.22156e-07,0
-3.16818e-05,1.01452e-05,-6.00174e-05,-1.81502e-05,2.6684e-07,-1.58825e-05,-2.38908e-05,1.14154e-07,0
-3.2087e-05,8.22171e-06,-4.57767e-05,-1.43736e-05,9.94922e-07,-1.57134e-05,-2.61251e-05,1.35622e-06,0
-3.23663e-05,8.54874e-06,-3.21569e-05,-1.38887e-05,2.1265e-06,-1.59941e-05,-2.57826e-05,2.72253e-06,0
-3.22814e-05,1.08565e-05,-2.09154e-05,-1.47201e-05,2.6354e-06,-1.55067e-05,-2.18846e-05,1.27692e-06,0
-3.22338e-05,1.21429e-05,-1.20761e-05,-2.22622e-05,1.90019e-06,-1.34724e-05,-1.6072e-05,-2.72919e-06,0
-3.23285e-05,1.0984e-05,-3.4962e-06,-4.11098e-05,1.43771e-06,-1.17704e-05,-1.07928e-05,-5.06527e-06,0
-3.1184e-05,9.96688e-06,5.62223e-06,-6.44098e-05,2.80647e-06,-1.13523e-05,-6.94609e-06,-5.21627e-06,0
-2.93997e-05,1.11747e-05,1.28721e-05,-7.43392e-05,5.00639e-06,-1.12542e-05,-3.35041e-06,-5.60376e-06,0
-2.84622e-05,1.32814e-05,1.59178e-05,-6.39509e-05,5.2471e-06,-1.15169e-05,2.85328e-06,-6.27861e-06,0
-2.8511e-05,1.48494e-05,1.60434e-05,-3.83313e-05,3.56063e-06,-1.20138e-05,1.17874e-05,-4.82509e-06,0
-2.80429e-05,1.64415e-05,1.5961e-05,-7.28075e-06,2.02794e-06,-1.1352e-05,1.96273e-05,-4.73893e-07,0
-2.8025e-05,1.64469e-05,1.43975e-05,1.93061e-05,1.22826e-06,-9.72299e-06,2.14259e-05,3.21037e-06,0
-2.9614e-05,1.3909e-05,1.07038e-05,3.42803e-05,1.25702e-06,-8.40711e-06,1.45843e-05,4.58157e-06,0
-3.02937e-05,1.19123e-05,6.44701e-06,3.66504e-05,2.04803e-06,-6.60311e-06,1.41867e-06,3.39086e-06,0
-2.89964e-05,1.29278e-05,3.41852e-06,2.75649e-05,3.09672e-06,-3.57687e-06,-1.08735e-05,7.643e-07,0
-2.7331e-05,1.48855e-05,3.20483e-06,1.26897e-05,5.98376e-06,-3.09536e-07,-1.77707e-05,7.90503e-07,0
-2.66354e-05,1.6471e-05,4.226e-06,3.55253e-06,9.66819e-06,9.92251e-07,-1.85695e-05,3.71072e-06,0
-2.7682e-05,1.68725e-05,4.44666e-06,5.22685e-06,9.41435e-06,-2.1229e-07,-1.52047e-05,6.88042e-06,0
-2.94608e-05,1.44776e-05,3.94023e-06,6.41295e-06,5.49053e-06,-2.31385e-06,-1.1395e-05,8.54257e-06,0
-3.13564e-05,1.23327e-05,6.18451e-07,-1.27256e-06,1.23056e-06,-3.37269e-06,-6.86267e-06,7.51581e-06,0
-3.18753e-05,1.18199e-05,-8.78244e-06,-1.21499e-05,-7.35521e-07,-3.5686e-06,-3.02263e-06,5.85892e-06,0
-3.11347e-05,1.31012e-05,-1.92052e-05,-2.06689e-05,5.03802e-07,-3.14613e-06,-1.30843e-06,3.83777e-06,0
-3.17516e-05,1.58017e-05,-2.14411e-05,-2.8645e-05,1.36493e-06,-2.43206e-06,-4.93489e-07,2.12008e-06,0
-3.276e-05,1.59338e-05,-1.88331e-05,-4.15587e-05,5.20901e-07,-1.92802e-06,1.3508e-06,9.14128e-07,0
-3.33952e-05,1.4128e-05,-1.72767e-05,-5.10658e-05,-2.64321e-07,-1.84796e-06,7.43465e-06,4.07823e-07,0
-3.30043e-05,1.20033e-05,-1.89039e-05,-4.52869e-05,-8.11044e-07,-1.56279e-06,1.39885e-05,1.84939e-06,0
-3.19572e-05,1.09576e-05,-2.20694e-05,-2.31172e-05,-1.20067e-06,-1.30794e-06,1.72558e-05,2.88475e-06,0
-3.19935e-05,1.03891e-05,-2.59535e-05,6.515e-06,-8.29037e-07,-2.14974e-06,1.90168e-05,2.1741e-06,0
-3.41923e-05,1.0223e-05,-3.02241e-05,3.45673e-05,-6.7071e-08,-3.34681e-06,2.29099e-05,1.45661e-07,0
-3.75634e-05,1.02683e-05,-3.25946e-05,5.2663e-05,6.1201e-07,-4.17634e-06,2.89722e-05,-4.48248e-07,0
-3.96096e-05,1.03413e-05,-3.28668e-05,5.69821e-05,2.52806e-06,-5.22709e-06,3.21942e-05,1.48595e-06,0
-3.95955e-05,1.10764e-05,-3.25551e-05,4.99034e-05,6.09953e-06,-6.20446e-06,2.92255e-05,3.87192e-06,0
-3.80144e-05,1.22219e-05,-3.05073e-05,4.00793e-05,9.60669e-06,-6.21402e-06,2.29769e-05,3.15825e-06,0
-3.63098e-05,1.40545e-05,-2.41609e-05,4.00029e-05,1.0676e-05,-6.65391e-06,1.72732e-05,-1.57733e-07,0
-3.53393e-05,1.50687e-05,-1.54628e-05,4.95133e-05,1.03745e-05,-8.0949e-06,7.48486e-06,-1.7779e-06,0
-3.497e-05,1.35573e-05,-5.67006e-06,5.255e-05,1.27499e-05,-9.5425e-06,-8.28686e-06,-4.88654e-07,0
-3.5576e-05,1.03438e-05,5.47123e-06,4.13668e-05,1.76768e-05,-9.13266e-06,-2.23845e-05,1.43201e-06,0
-3.62241e-05,8.53422e-06,1.65874e-05,2.65183e-05,2.00437e-05,-6.78531e-06,-2.7131e-05,2.25997e-06,0
-3.5293e-05,8.875e-06,2.42666e-05,2.02212e-05,1.88741e-05,-4.59088e-06,-2.19287e-05,3.50304e-06,0
-3.34328e-05,9.85148e-06,2.7431e-05,2.38838e-05,1.76735e-05,-3.02682e-06,-9.33948e-06,5.7688e-06,0
-3.26017e-05,9.0373e-06,2.4615e-05,2.32044e-05,1.69028e-05,-1.85208e-06,7.75319e-06,8.11765e-06,0
-3.31643e-05,7.24897e-06,1.44423e-05,1.19723e-05,1.69423e-05,-8.50512e-07,2.63291e-05,8.74177e-06,0
-3.45616e-05,5.13212e-06,-3.92664e-06,-1.13007e-06,1.77996e-05,-6.02705e-07,4.46717e-05,6.66964e-06,0
-3.51875e-05,4.20335e-06,-2.39508e-05,-1.25391e-05,1.67501e-05,-1.7623e-06,5.93999e-05,3.76275e-06,0
-3.28128e-05,3.78873e-06,-3.63723e-05,-2.55266e-05,1.53874e-05,-3.28889e-06,6.38633e-05,1.69335e-06,0
-3.04759e-05,2.55464e-06,-3.97887e-05,-4.52358e-05,1.74566e-05,-3.83755e-06,5.91996e-05,1.62601e-06,0
-3.08834e-05,2.36893e-06,-3.91691e-05,-7.01115e-05,2.10582e-05,-3.5817e-06,5.16033e-05,2.38847e-06,0
-3.1746e-05,2.61488e-06,-3.64359e-05,-9.00626e-05,2.42898e-05,-3.8899e-06,4.74434e-05,2.16561e-06,0
-3.04031e-05,1.98592e-06,-3.40751e-05,-9.24553e-05,2.62678e-05,-4.64794e-06,4.65757e-05,1.50889e-06,0
-2.85826e-05,5.95102e-07,-3.94918e-05,-7.24469e-05,2.66153e-05,-5.49318e-06,4.33007e-05,1.39595e-06,0
-2.82201e-05,-2.35926e-06,-5.26085e-05,-3.46649e-05,2.67135e-05,-4.8633e-06,3.75659e-05,2.6531e-06,0
-2.86683e-05,-6.53446e-06,-6.98927e-05,6.84273e-06,2.6974e-05,-4.26785e-06,2.97388e-05,4.6539e-06,0
-2.98077e-05,-1.10592e-05,-8.21174e-05,2.868e-05,2.72338e-05,-5.20125e-06,2.18084e-05,6.33207e-06,0
-2.97283e-05,-1.46075e-05,-7.92288e-05,2.52269e-05,2.6342e-05,-6.27379e-06,1.59823e-05,4.66647e-06,0
-3.03201e-05,-1.63713e-05,-5.9949e-05,1.29796e-05,2.53858e-05,-5.87037e-06,9.25278e-06,2.31982e-06,0
-3.17451e-05,-1.70797e-05,-3.36644e-05,3.89686e-06,2.59256e-05,-5.30845e-06,-5.46614e-06,2.94232e-06,0
-3.17597e-05,-1.63957e-05,-1.17258e-05,-3.62384e-06,2.66887e-05,-6.73748e-06,-2.47126e-05,5.16391e-06,0
-3.03044e-05,-1.52239e-05,2.66901e-06,-1.21523e-05,2.57707e-05,-8.4974e-06,-3.68424e-05,6.47826e-06,0
-2.91929e-05,-1.5104e-05,1.15494e-05,-1.52672e-05,2.30124e-05,-9.20507e-06,-3.67086e-05,6.18236e-06,0
-2.91621e-05,-1.62399e-05,1.70206e-05,-5.71755e-06,1.84789e-05,-9.21304e-06,-2.71929e-05,5.4602e-06,0
-2.8579e-05,-1.65934e-05,1.84705e-05,1.51001e-05,1.29252e-05,-9.35642e-06,-1.24357e-05,4.62238e-06,0
-2.73726e-05,-1.51124e-05,1.57017e-05,3.88458e-05,9.77117e-06,-7.90556e-06,3.8662e-06,4.15177e-06,0
-2.64095e-05,-1.0643e-05,8.95579e-06,5.46575e-05,1.14538e-05,-4.36316e-06,1.90362e-05,3.78533e-06,0
-2.64605e-05,-4.89228e-06,1.75197e-07,5.62627e-05,1.59561e-05,-5.1993e-07,3.13242e-05,2.96254e-06,0
-2.6203e-05,-1.45423e-06,-4.62056e-06,4.58827e-05,1.91445e-05,-3.36615e-07,3.84327e-05,2.50755e-07,0
-2.5606e-05,-9.85032e-07,-2.41529e-06,2.45253e-05,1.8907e-05,-4.14126e-06,3.98806e-05,-1.65775e-06,0
-2.57113e-05,-1.51688e-06,5.98261e-06,-7.15903e-06,1.40856e-05,-9.45942e-06,3.77158e-05,-8.79927e-07,0
-2.64076e-05,-1.12077e-06,1.88875e-05,-3.86248e-05,7.70377e-06,-1.35268e-05,3.45762e-05,5.25898e-07,0
-2.69538e-05,3.19153e-07,3.32339e-05,-6.35598e-05,5.45677e-06,-1.46504e-05,3.07073e-05,2.84109e-07,0
-2.6927e-05,1.37712e-06,4.59407e-05,-7.73618e-05,8.24073e-06,-1.49272e-05,2.75259e-05,-1.47336e-06,0
-2.48695e-05,2.65056e-06,5.35076e-05,-7.11781e-05,1.28331e-05,-1.56902e-05,2.5887e-05,-1.6956e-06,0
-2.24352e-05,3.9784e-06,5.55639e-05,-4.86949e-05,1.62046e-05,-1.46212e-05,2.59496e-05,-1.36418e-06,0
-2.35496e-05,4.46008e-06,4.96084e-05,-3.48243e-05,1.76976e-05,-1.20081e-05,2.59434e-05,-2.14957e-06,0
-2.65804e-05,4.70125e-06,3.23386e-05,-3.65776e-05,1.76954e-05,-1.1758e-05,2.48896e-05,-1.68432e-06,0
-2.88649e-05,4.92651e-06,9.38711e-06,-3.1807e-05,1.75769e-05,-1.23971e-05,2.216e-05,2.86935e-07,0
-2.97524e-05,5.90321e-06,-9.11726e-06,-1.03148e-05,1.76634e-05,-1.20374e-05,1.78627e-05,7.85261e-07,0
-2.97445e-05,5.83776e-06,-2.22123e-05,2.40984e-05,1.73695e-05,-1.12241e-05,1.42437e-05,-9.99057e-07,0
-3.05817e-05,4.57557e-06,-3.20584e-05,5.26147e-05,1.72847e-05,-1.09512e-05,1.02435e-05,-1.56528e-06,0
-3.04094e-05,6.10491e-06,-3.79002e-05,6.54328e-05,1.81015e-05,-1.00252e-05,3.1421e-06,-6.46273e-07,0
-2.98634e-05,1.09643e-05,-4.21355e-05,6.56721e-05,2.27509e-05,-7.05466e-06,-7.27941e-06,6.31279e-07,0
-3.02164e-05,1.66634e-05,-4.63012e-05,5.70951e-05,3.07969e-05,-3.46193e-06,-1.74884e-05,1.04654e-06,0
-3.01699e-05,2.08958e-05,-4.83191e-05,4.19631e-05,3.70101e-05,-1.32284e-06,-2.41156e-05,6.03213e-07,0
-3.01529e-05,2.17221e-05,-4.74938e-05,2.28086e-05,3.79208e-05,-3.33457e-06,-2.53805e-05,1.68674e-06,0
-3.09487e-05,2.18595e-05,-4.43871e-05,7.80583e-06,3.37331e-05,-7.61124e-06,-2.31901e-05,3.90016e-06,0
-3.27636e-05,2.29088e-05,-3.85093e-05,-2.79733e-06,2.8003e-05,-1.15361e-05,-2.0536e-05,4.65736e-06,0
-3.37312e-05,2.34934e-05,-2.91911e-05,-1.27312e-05,2.37973e-05,-1.39761e-05,-1.79985e-05,3.39631e-06,0
-3.2825e-05,2.43548e-05,-1.60605e-05,-2.13973e-05,2.09421e-05,-1.49488e-05,-1.67977e-05,2.29325e-06,0
-3.0652e-05,2.7092e-05,-3.36722e-06,-2.56431e-05,1.73178e-05,-1.55934e-05,-1.80558e-05,1.08095e-06,0
-2.88139e-05,3.05657e-05,4.37571e-06,-2.85305e-05,1.49315e-05,-1.47586e-05,-1.96861e-05,-3.19142e-08,0
-2.8393e-05,3.27229e-05,6.8078e-06,-3.17049e-05,1.63789e-05,-1.19732e-05,-1.86592e-05,-2.06983e-07,0
-2.91931e-05,3.35585e-05,6.21219e-06,-3.35368e-05,1.99127e-05,-9.42999e-06,-1.42672e-05,1.56203e-06,0
-2.84764e-05,3.41603e-05,3.2266e-06,-3.11554e-05,2.30306e-05,-9.94047e-06,-6.55424e-06,3.79383e-06,0
-2.58612e-05,3.48756e-05,-9.19053e-07,-2.5462e-05,2.46029e-05,-1.21462e-05,4.69024e-06,4.03064e-06,0
-2.48509e-05,3.51779e-05,-5.77448e-06,-2.03792e-05,2.31701e-05,-1.39711e-05,1.72604e-05,3.06984e-06,0
-2.62986e-05,3.33706e-05,-9.90964e-06,-1.72545e-05,1.9441e-05,-1.48628e-05,2.64753e-05,3.73546e-06,0
-2.83594e-05,3.03886e-05,-1.11159e-05,-1.64342e-05,1.6875e-05,-1.4603e-05,2.93827e-05,5.48014e-06,0
-3.01171e-05,2.90851e-05,-7.44955e-06,-1.67795e-05,1.50292e-05,-1.38163e-05,2.89511e-05,6.04104e-06,0
-3.08893e-05,3.0339e-05,-3.03089e-08,-1.30845e-05,1.5009e-05,-1.35721e-05,3.14781e-05,5.89677e-06,0
-3.04682e-05,3.26541e-05,6.57134e-06,-3.10528e-06,1.90383e-05,-1.30679e-05,3.81302e-05,4.76161e-06,0
-2.97863e-05,3.33278e-05,1.03675e-05,9.82232e-06,2.35447e-05,-1.22836e-05,4.19632e-05,3.03426e-06,0
-3.00487e-05,3.3302e-05,1.26503e-05,2.30597e-05,2.72504e-05,-1.14916e-05,4.02133e-05,1.49932e-06,0
-2.92162e-05,3.23506e-05,1.35446e-05,3.18948e-05,2.88465e-05,-1.18539e-05,3.5819e-05,-6.58982e-07,0
-2.63612e-05,2.95007e-05,1.37443e-05,3.26399e-05,2.64254e-05,-1.40872e-05,2.92685e-05,-2.96646e-06,0
-2.51276e-05,2.52765e-05,1.63028e-05,2.59696e-05,2.12844e-05,-1.63509e-05,2.19166e-05,-2.62338e-06,0
-2.63149e-05,2.25225e-05,1.80676e-05,1.57988e-05,1.45306e-05,-1.75897e-05,1.54333e-05,-8.51946e-07,0
-2.79576e-05,2.18056e-05,1.85938e-05,1.17282e-05,9.99566e-06,-1.53242e-05,1.16124e-05,-1.45642e-06,0
-2.85484e-05,2.12246e-05,1.49612e-05,2.38558e-05,7.41709e-06,-1.20198e-05,9.5622e-06,-3.04582e-06,0
-2.9178e-05,1.97121e-05,6.02789e-06,4.48207e-05,4.10449e-06,-1.05443e-05,7.93161e-06,-3.62162e-06,0
-3.03362e-05,1.76733e-05,-4.3366e-06,5.22371e-05,5.39324e-07,-1.08972e-05,5.82877e-06,-3.16732e-06,0
-3.25269e-05,1.60176e-05,-1.40699e-05,3.55311e-05,-8.55001e-07,-1.29392e-05,3.00808e-06,-2.5955e-06,0
-3.39512e-05,1.39722e-05,-2.29137e-05,5.12164e-06,-8.1506e-07,-1.53884e-05,1.53061e-06,-2.36323e-06,0
-3.24373e-05,1.27531e-05,-3.19687e-05,-2.43593e-05,5.48114e-07,-1.6945e-05,2.19561e-06,-2.96941e-06,0
-3.03134e-05,1.20005e-05,-4.13015e-05,-4.43756e-05,4.35171e-06,-1.59833e-05,3.85193e-06,-3.73145e-06,0
-2.95815e-05,1.09097e-05,-4.90149e-05,-5.28529e-05,8.31893e-06,-1.3138e-05,5.91209e-06,-2.8593e-06,0
-2.97209e-05,9.37067e-06,-5.21861e-05,-4.91426e-05,1.12174e-05,-1.01287e-05,1.00476e-05,-1.30239e-06,0
-2.98008e-05,8.99221e-06,-4.84681e-05,-3.51753e-05,1.30127e-05,-8.421e-06,1.72098e-05,-7.47422e-07,0
-3.02599e-05,1.11133e-05,-3.55263e-05,-1.71916e-05,1.50077e-05,-8.26232e-06,2.83632e-05,-1.31777e-06,0
-3.07111e-05,1.35348e-05,-1.8594e-05,-5.49033e-06,1.72183e-05,-8.94139e-06,4.41337e-05,1.14768e-07,0
-3.05369e-05,1.45325e-05,-5.8754e-06,-1.03282e-05,1.7991e-05,-9.85816e-06,5.93849e-05,3.07703e-06,0
-3.06759e-05,1.4806e-05,1.60538e-06,-3.15646e-05,1.62286e-05,-9.84997e-06,6.6792e-05,3.82177e-06,0
-3.09424e-05,1.52377e-05,6.2139e-06,-5.58679e-05,1.35963e-05,-9.32203e-06,6.34253e-05,3.81702e-06,0
-3.00989e-05,1.49962e-05,6.71795e-06,-7.14909e-05,1.12267e-05,-8.7132e-06,4.99663e-05,5.13727e-06,0
-2.96297e-05,1.40186e-05,1.74518e-06,-7.8597e-05,9.90584e-06,-8.16845e-06,3.22284e-05,5.53756e-06,0
-2.91588e-05,1.34594e-05,-7.27789e-06,-8.46573e-05,9.36476e-06,-8.65363e-06,1.07282e-05,5.07195e-06,0
-2.70072e-05,1.4302e-05,-1.55345e-05,-9.11156e-05,1.03123e-05,-7.75691e-06,-1.22197e-05,5.00884e-06,0
-2.452e-05,1.67456e-05,-1.83772e-05,-8.38503e-05,1.40681e-05,-7.37906e-06,-2.79493e-05,6.01026e-06,0
-2.36613e-05,1.89759e-05,-1.28115e-05,-5.99186e-05,1.81885e-05,-8.7531e-06,-3.25515e-05,6.24233e-06,0
-2.39509e-05,1.95931e-05,-4.8708e-06,-3.65525e-05,2.0112e-05,-9.71565e-06,-2.91152e-05,6.14169e-06,0
-2.42605e-05,1.73095e-05,5.56583e-07,-1.74847e-05,1.91265e-05,-1.09571e-05,-2.31936e-05,7.63367e-06,0
-2.45983e-05,1.34498e-05,6.77326e-06,6.05399e-06,1.56303e-05,-1.34216e-05,-1.46386e-05,8.981e-06,0
-2.49068e-05,9.8816e-06,1.91135e-05,3.25721e-05,1.09079e-05,-1.41731e-05,-4.79972e-06,9.84339e-06,0
-2.55634e-05,7.67381e-06,4.07814e-05,5.2314e-05,6.06364e-06,-1.17226e-05,4.35667e-06,9.86614e-06,0
-2.66011e-05,7.83626e-06,6.61885e-05,5.52927e-05,3.14752e-06,-9.25911e-06,9.96378e-06,9.92514e-06,0
-2.74482e-05,8.36495e-06,8.63216e-05,3.962e-05,3.87904e-06,-7.51095e-06,1.12407e-05,9.50865e-06,0
-2.84253e-05,6.09765e-06,9.33963e-05,1.41198e-05,5.78664e-06,-7.90504e-06,1.10723e-05,8.46952e-06,0
-2.97757e-05,3.35678e-06,8.48364e-05,-2.20074e-06,5.24571e-06,-9.6108e-06,1.28659e-05,6.40936e-06,0
-3.12672e-05,4.23751e-06,6.03682e-05,2.5385e-06,3.09328e-06,-1.06999e-05,1.65883e-05,3.43163e-06,0
-3.24806e-05,5.50147e-06,2.31521e-05,2.48193e-05,2.25855e-06,-9.79483e-06,1.96167e-05,4.19469e-07,0
-3.28554e-05,3.30368e-06,-1.86479e-05,5.07613e-05,2.99471e-06,-8.61593e-06,2.17065e-05,-2.42485e-06,0
-3.31381e-05,-1.76598e-06,-5.40268e-05,6.0507e-05,4.02808e-06,-7.45112e-06,2.15973e-05,-4.27326e-06,0
-3.24396e-05,-5.81525e-06,-7.41079e-05,4.59027e-05,4.62416e-06,-6.115e-06,2.01987e-05,-5.29175e-06,0
-3.05766e-05,-7.84866e-06,-7.76816e-05,1.69576e-05,4.49258e-06,-5.98546e-06,1.88303e-05,-6.28219e-06,0
-2.94438e-05,-7.93387e-06,-7.26624e-05,-9.99298e-06,2.87625e-06,-6.1862e-06,1.83047e-05,-8.15113e-06,0
-3.00123e-05,-7.17292e-06,-6.89346e-05,-2.51448e-05,-2.0308e-07,-6.60218e-06,1.74108e-05,-9.3303e-06,0
-3.17647e-05,-7.19816e-06,-6.98931e-05,-2.75982e-05,-3.96537e-06,-8.03193e-06,1.47246e-05,-8.5157e-06,0
-3.32418e-05,-8.53361e-06,-6.96159e-05,-2.35765e-05,-6.14615e-06,-1.01398e-05,1.02829e-05,-8.1272e-06,0
-3.29025e-05,-1.03213e-05,-6.3333e-05,-1.81007e-05,-5.92973e-06,-1.09717e-05,6.19047e-06,-9.87995e-06,0
-3.15318e-05,-1.08804e-05,-5.29907e-05,-9.55497e-06,-4.2482e-06,-1.11109e-05,4.67617e-06,-1.06163e-05,0
-3.09874e-05,-8.62013e-06,-4.35065e-05,5.01309e-06,-2.2911e-06,-1.06001e-05,5.73718e-06,-9.52869e-06,0
-3.14292e-05,-2.8874e-06,-3.76417e-05,1.91961e-05,9.38823e-08,-9.89747e-06,6.90964e-06,-8.41e-06,0
-3.14225e-05,3.04247e-06,-3.45228e-05,2.05447e-05,2.30749e-06,-9.69738e-06,6.24369e-06,-7.78605e-06,0
-3.01688e-05,5.55399e-06,-3.50534e-05,8.51858e-06,1.34917e-06,-9.02478e-06,4.24949e-06,-8.11718e-06,0
-2.85771e-05,5.79812e-06,-3.71891e-05,-3.18972e-06,-4.98043e-07,-8.78951e-06,-4.64837e-06,-9.12868e-06,0
-2.88569e-05,9.09635e-06,-3.63018e-05,-7.43146e-06,-6.43185e-07,-1.06931e-05,-1.98373e-05,-9.58064e-06,0
-3.21074e-05,1.09063e-05,-2.80428e-05,-1.37616e-05,7.07906e-07,-1.21927e-05,-2.96007e-05,-8.53043e-06,0
-3.45595e-05,8.32725e-06,-1.61027e-05,-1.86976e-05,4.32482e-06,-1.23403e-05,-2.76529e-05,-7.95818e-06,0
-3.48363e-05,9.67941e-06,-7.35904e-06,-1.11656e-05,8.73347e-06,-1.21141e-05,-1.55234e-05,-8.4986e-06,0
-3.4367e-05,1.55881e-05,-3.02095e-06,3.60202e-06,1.11515e-05,-1.25056e-05,1.11989e-07,-8.09695e-06,0
-3.30574e-05,2.07239e-05,-1.38201e-06,1.13377e-05,1.07198e-05,-1.22194e-05,1.39658e-05,-7.83892e-06,0
-3.06552e-05,2.2869e-05,3.56463e-07,1.47935e-05,8.24094e-06,-9.0462e-06,2.54909e-05,-8.74346e-06,0
-2.96303e-05,2.32507e-05,4.53883e-06,4.27323e-05,4.39602e-06,-6.38427e-06,3.37769e-05,-1.00446e-05,0
-3.00506e-05,2.24249e-05,1.30173e-05,8.97576e-05,2.2349e-06,-5.32606e-06,3.98499e-05,-1.02472e-05,0
-3.00018e-05,2.1939e-05,2.60323e-05,0.000116721,3.94071e-06,-6.06558e-06,4.3064e-05,-9.58721e-06,0
-2.9822e-05,2.27821e-05,4.05748e-05,9.4198e-05,7.64205e-06,-6.93135e-06,4.28128e-05,-8.70545e-06,0
-2.90765e-05,2.35202e-05,5.34025e-05,2.95234e-05,9.02553e-06,-7.59559e-06,4.08862e-05,-6.39918e-06,0
-2.82469e-05,2.30919e-05,6.15675e-05,-3.60708e-05,7.41212e-06,-1.01601e-05,3.92004e-05,-4.38096e-06,0
-2.85406e-05,2.06619e-05,5.8786e-05,-6.94185e-05,5.53281e-06,-1.38188e-05,3.75506e-05,-3.64364e-06,0
-2.99022e-05,1.82369e-05,4.15377e-05,-6.80457e-05,4.96097e-06,-1.64738e-05,3.54419e-05,-3.68837e-06,0
-3.11212e-05,1.68162e-05,1.20818e-05,-5.25998e-05,6.39055e-06,-1.56401e-05,3.40178e-05,-4.0874e-06,0
-3.1666e-05,1.56287e-05,-2.14439e-05,-4.08879e-05,1.01523e-05,-1.36221e-05,3.26341e-05,-3.82631e-06,0
-3.11619e-05,1.46154e-05,-4.95414e-05,-3.94194e-05,1.47975e-05,-1.32689e-05,2.98212e-05,-3.38323e-06,0
-3.00628e-05,1.51974e-05,-6.73045e-05,-4.61222e-05,1.74281e-05,-1.36351e-05,2.50923e-05,-3.39376e-06,0
-2.97295e-05,1.81558e-05,-7.42513e-05,-5.95594e-05,1.8331e-05,-1.28945e-05,1.95407e-05,-1.91937e-06,0
-3.01118e-05,2.36082e-05,-6.9735e-05,-7.63816e-05,1.7868e-05,-1.01336e-05,1.4718e-05,3.63706e-08,0
-3.01383e-05,2.86126e-05,-5.68317e-05,-9.39958e-05,1.48358e-05,-7.18471e-06,1.25859e-05,4.4171e-07,0
-2.89099e-05,2.98699e-05,-4.14508e-05,-0.000108243,9.86464e-06,-7.38266e-06,1.29114e-05,3.39894e-07,0
-2.64578e-05,2.8043e-05,-2.41436e-05,-0.00010961,6.8558e-06,-9.54738e-06,1.38402e-05,1.05804e-06,0
-2.51662e-05,2.57834e-05,-6.10133e-06,-8.77741e-05,8.153e-06,-1.15428e-05,1.31853e-05,1.88812e-06,0
-2.50402e-05,2.47079e-05,7.88563e-06,-4.33909e-05,1.27466e-05,-1.11792e-05,1.03381e-05,1.81624e-06,0
-2.68956e-05,2.30015e-05,1.98283e-05,1.90781e-05,1.43633e-05,-1.0142e-05,8.73677e-06,2.00319e-06,0
-2.95746e-05,2.01537e-05,3.05377e-05,7.80886e-05,1.20441e-05,-1.00552e-05,1.05945e-05,8.42723e-07,0
-2.98628e-05,1.98761e-05,3.18882e-05,0.000111752,1.14712e-05,-8.52785e-06,1.21119e-05,6.63477e-07,0
-2.85357e-05,2.36154e-05,1.98145e-05,0.000120162,1.35029e-05,-7.85999e-06,1.299e-05,2.09455e-06,0
-2.64369e-05,2.57203e-05,-1.40339e-06,0.000104462,1.69814e-05,-7.48233e-06,1.34894e-05,1.43035e-06,0
-2.59658e-05,2.33969e-05,-2.32742e-05,7.78305e-05,1.92934e-05,-6.4373e-06,1.13452e-05,1.3344e-06,0
-2.68082e-05,2.11684e-05,-3.96474e-05,5.12937e-05,2.01444e-05,-7.16566e-06,7.87241e-06,1.80725e-06,0
-2.81459e-05,2.1044e-05,-4.45879e-05,3.0387e-05,2.40991e-05,-8.74825e-06,5.67664e-06,1.29533e-06,0
-3.00189e-05,2.16434e-05,-4.09059e-05,8.59976e-06,3.10832e-05,-9.3292e-06,4.34852e-06,1.66631e-06,0
-3.05696e-05,2.15511e-05,-3.32803e-05,-1.66863e-05,3.53988e-05,-8.86056e-06,3.87867e-06,3.88827e-06,0
-2.90376e-05,2.00817e-05,-2.18157e-05,-3.96109e-05,3.54551e-05,-8.09102e-06,4.7155e-06,5.87003e-06,0
-2.79317e-05,1.74826e-05,-8.57556e-06,-5.35668e-05,3.43195e-05,-8.3137e-06,4.58209e-06,5.95034e-06,0
-2.82612e-05,1.54643e-05,3.87093e-06,-5.69889e-05,3.28498e-05,-1.00156e-05,5.20962e-06,5.70048e-06,0
-2.89649e-05,1.52475e-05,1.4232e-05,-5.39393e-05,2.96346e-05,-1.32834e-05,7.49243e-06,6.0063e-06,0
-3.00463e-05,1.68922e-05,2.21027e-05,-4.6076e-05,2.60977e-05,-1.5828e-05,9.57367e-06,5.69055e-06,0
-3.19052e-05,1.97661e-05,2.72177e-05,-3.71482e-05,2.3847e-05,-1.66652e-05,1.23943e-05,4.16509e-06,0
-3.40298e-05,2.14936e-05,2.95821e-05,-2.82176e-05,2.27211e-05,-1.72371e-05,1.68093e-05,2.74006e-06,0
-3.49355e-05,2.20954e-05,2.77268e-05,-1.99833e-05,2.31144e-05,-1.67214e-05,1.52934e-05,2.38015e-06,0
-3.41664e-05,2.19789e-05,2.15669e-05,-1.16696e-05,2.47319e-05,-1.50952e-05,1.65043e-06,2.61559e-06,0
-3.20335e-05,2.03262e-05,1.24387e-05,-6.00833e-06,2.59427e-05,-1.41816e-05,-1.50836e-05,3.3088e-06,0
-3.04198e-05,1.69692e-05,3.20061e-06,-3.14226e-06,2.57931e-05,-1.37534e-05,-2.16751e-05,5.63885e-06,0
-3.01067e-05,1.43627e-05,-6.03756e-06,-3.43156e-06,2.40914e-05,-1.28732e-05,-1.94598e-05,9.34614e-06,0
-2.99264e-05,1.2402e-05,-1.37276e-05,-3.73942e-06,2.06133e-05,-1.23228e-05,-1.82568e-05,1.18243e-05,0
-2.9711e-05,8.58597e-06,-1.93703e-05,-1.44904e-06,1.63474e-05,-1.2631e-05,-1.72587e-05,1.32053e-05,0
-3.0135e-05,5.2536e-06,-2.56313e-05,5.42898e-07,1.41665e-05,-1.31649e-05,-9.36263e-06,1.4445e-05,0
-3.11216e-05,4.38531e-06,-3.2626e-05,-2.26114e-06,1.31085e-05,-1.144e-05,3.82237e-06,1.45068e-05,0
-3.21898e-05,2.41945e-06,-3.47692e-05,-8.39241e-06,1.27754e-05,-8.4111e-06,1.67155e-05,1.34828e-05,0
-3.23984e-05,-5.00957e-07,-2.7838e-05,-1.32834e-05,1.35891e-05,-6.42865e-06,2.93522e-05,1.1721e-05,0
-3.27824e-05,1.12261e-07,-1.72067e-05,-1.38631e-05,1.41308e-05,-7.09293e-06,4.08949e-05,1.17247e-05,0
-3.39896e-05,3.68255e-06,-1.05954e-05,-8.5604e-06,1.28299e-05,-8.37089e-06,5.02227e-05,1.2698e-05,0
-3.51918e-05,9.49294e-06,-8.43645e-06,1.15583e-06,9.14976e-06,-6.85726e-06,5.63695e-05,1.26172e-05,0
-3.43079e-05,1.62661e-05,-4.58058e-06,7.6406e-06,5.87011e-06,-6.69815e-06,5.74701e-05,1.21217e-05,0
-3.31893e-05,1.99381e-05,1.44775e-06,4.82698e-06,3.19409e-06,-7.88391e-06,5.43132e-05,1.1849e-05,0
-3.538e-05,2.08979e-05,4.91226e-06,-3.438e-06,5.12124e-07,-9.09151e-06,4.76642e-05,1.2717e-05,0
-3.77774e-05,2.14879e-05,4.10984e-06,-1.29486e-05,-2.26613e-06,-1.06777e-05,3.95545e-05,1.21227e-05,0
-3.88368e-05,2.21532e-05,3.24611e-06,-2.07363e-05,-3.25333e-06,-1.21287e-05,3.09585e-05,9.44998e-06,0
-3.78555e-05,2.1593e-05,7.01556e-06,-2.83272e-05,-2.4005e-06,-1.32825e-05,2.35603e-05,7.16852e-06,0
-3.51057e-05,2.0237e-05,1.30614e-05,-3.64302e-05,-4.74528e-07,-1.42529e-05,1.78418e-05,5.66534e-06,0
-3.34176e-05,1.98166e-05,1.76069e-05,-4.33058e-05,2.05133e-06,-1.54074e-05,1.10255e-05,4.69482e-06,0
-3.28283e-05,1.97315e-05,1.8862e-05,-4.82023e-05,4.2917e-06,-1.56589e-05,3.07287e-06,3.76268e-06,0
-3.1931e-05,1.95589e-05,1.44553e-05,-5.22575e-05,7.65389e-06,-1.59298e-05,-5.05291e-06,2.44817e-06,0
-3.10675e-05,1.93532e-05,3.43325e-06,-5.57168e-05,1.23269e-05,-1.63087e-05,-1.30928e-05,1.30449e-06,0
-3.11577e-05,1.8642e-05,-9.37671e-06,-5.71912e-05,1.74737e-05,-1.62337e-05,-1.9937e-05,4.96817e-07,0
-3.08344e-05,1.81275e-05,-1.7284e-05,-5.35021e-05,2.18567e-05,-1.50575e-05,-2.31943e-05,2.90743e-07,0
-2.95852e-05,1.86939e-05,-1.99234e-05,-4.34476e-05,2.4425e-05,-1.30916e-05,-2.26377e-05,4.7819e-07,0
-2.94271e-05,1.97679e-05,-1.96682e-05,-2.563e-05,2.3053e-05,-1.14418e-05,-1.91213e-05,6.7782e-08,0
-3.04915e-05,2.12454e-05,-1.58306e-05,-4.19569e-07,1.84243e-05,-1.06791e-05,-1.36905e-05,-1.46989e-06,0
-3.04998e-05,2.20003e-05,-6.419e-06,2.61166e-05,1.24701e-05,-1.0055e-05,-7.28353e-06,-2.55061e-06,0
-2.95429e-05,2.17374e-05,4.96036e-06,4.731e-05,6.12602e-06,-1.03187e-05,-6.7534e-07,-1.50476e-06,0
-3.0011e-05,2.03949e-05,1.20218e-05,6.07486e-05,1.23056e-06,-1.12188e-05,3.21058e-06,2.92575e-07,0
-3.14631e-05,1.80482e-05,1.30908e-05,6.7742e-05,-1.58966e-07,-1.10637e-05,1.9588e-06,1.53153e-06,0
-3.17327e-05,1.69488e-05,1.27986e-05,6.75901e-05,1.72264e-06,-9.58437e-06,-1.86265e-06,2.58062e-06,0
-3.11359e-05,1.72254e-05,1.4394e-05,5.86636e-05,5.85406e-06,-7.48494e-06,-5.25691e-06,3.81269e-06,0
-3.15801e-05,1.67442e-05,1.43293e-05,4.43482e-05,9.03153e-06,-6.56018e-06,-3.98824e-06,5.38554e-06,0
-3.32051e-05,1.54211e-05,9.81221e-06,2.70705e-05,4.85666e-06,-6.53348e-06,5.89649e-06,5.25647e-06,0
-3.35609e-05,1.51563e-05,5.96524e-06,5.44953e-06,-3.51863e-06,-6.82059e-06,1.77945e-05,3.14571e-06,0
-3.35296e-05,1.48605e-05,4.76873e-06,-2.36563e-05,-7.32535e-06,-6.41136e-06,2.43483e-05,1.1798e-06,0
-3.39968e-05,1.49359e-05,-1.42613e-06,-5.26478e-05,-4.598e-06,-4.64271e-06,2.64908e-05,-6.24184e-07,0
-3.23077e-05,1.69775e-05,-1.46643e-05,-6.80266e-05,-7.81178e-07,-2.1933e-06,2.63382e-05,-8.79211e-07,0
-3.02302e-05,1.68636e-05,-2.87054e-05,-7.07389e-05,-2.68077e-07,-6.89257e-07,2.55718e-05,-1.10518e-07,0
-2.99837e-05,1.34231e-05,-3.70023e-05,-6.5694e-05,-1.32463e-06,-1.27828e-06,2.56411e-05,2.88687e-07,0
-3.09878e-05,8.67393e-06,-4.15826e-05,-5.22256e-05,-2.32952e-06,-2.75794e-06,2.67086e-05,6.62247e-07,0
-3.16079e-05,5.9538e-06,-4.69753e-05,-2.48969e-05,-1.73781e-06,-4.6552e-06,2.79148e-05,9.29798e-07,0
-3.18937e-05,5.42176e-06,-5.2777e-05,8.60618e-06,1.62622e-06,-5.97735e-06,2.93824e-05,7.6256e-07,0
-3.28621e-05,4.01585e-06,-5.49728e-05,3.87324e-05,8.97683e-06,-4.28257e-06,2.98456e-05,-4.11274e-07,0
-3.39841e-05,2.78207e-06,-5.05664e-05,6.07013e-05,1.82857e-05,-1.8737e-07,2.65471e-05,-2.73398e-07,0
-3.33561e-05,3.26282e-06,-4.23747e-05,6.91201e-05,2.49625e-05,3.25895e-06,2.14522e-05,1.28452e-06,0
-3.05579e-05,4.63626e-06,-3.50953e-05,6.42314e-05,2.53919e-05,3.81269e-06,1.88735e-05,2.30208e-06,0
-2.87216e-05,4.65202e-06,-3.16271e-05,5.44824e-05,1.95425e-05,1.7009e-06,1.96194e-05,3.06341e-06,0
-2.91152e-05,2.3966e-06,-3.22909e-05,4.80853e-05,1.27619e-05,-1.09464e-06,2.24318e-05,3.80688e-06,0
-2.97855e-05,-1.39472e-06,-3.46451e-05,4.15056e-05,8.40827e-06,-3.29086e-06,2.85296e-05,3.18552e-06,0
-2.99005e-05,-3.47402e-06,-3.2606e-05,2.8531e-05,7.23666e-06,-4.19169e-06,3.63511e-05,1.33815e-06,0
-3.01495e-05,-1.66236e-06,-2.33356e-05,1.01826e-05,8.51403e-06,-3.36092e-06,4.04406e-05,5.04982e-07,0
-2.98581e-05,3.13382e-06,-1.05775e-05,-4.04461e-06,1.15919e-05,-1.71574e-06,3.76719e-05,1.17772e-06,0
-2.83587e-05,8.7129e-06,-1.0092e-06,-1.06153e-05,1.5885e-05,-6.21689e-07,3.10373e-05,2.56947e-06,0
-2.74764e-05,1.36066e-05,3.36999e-06,-1.31496e-05,1.97587e-05,-2.39431e-07,2.51439e-05,3.04291e-06,0
-2.84808e-05,1.46029e-05,6.36795e-06,-1.48849e-05,2.08782e-05,-1.79732e-06,2.20999e-05,2.36429e-06,0
-2.9471e-05,1.16994e-05,9.257e-06,-1.17946e-05,1.83801e-05,-5.32559e-06,2.05005e-05,1.79456e-06,0
-2.97556e-05,1.03155e-05,1.0538e-05,-3.65942e-06,1.36355e-05,-8.0435e-06,1.90017e-05,1.47383e-06,0
-2.96164e-05,1.15386e-05,1.07879e-05,2.5743e-06,9.77231e-06,-8.59655e-06,1.77767e-05,5.29645e-07,0
-2.88844e-05,1.34047e-05,9.22648e-06,4.42094e-06,8.51303e-06,-7.3453e-06,2.04733e-05,-7.10739e-07,0
-2.77427e-05,1.37494e-05,7.80613e-06,4.45651e-06,1.31012e-05,-5.33145e-06,3.40138e-05,-2.44486e-06,0
-2.73852e-05,1.03165e-05,6.37642e-06,5.11704e-06,2.20109e-05,-2.83019e-06,4.77628e-05,-3.27522e-06,0
-2.84979e-05,7.84612e-06,4.02959e-06,7.78098e-06,2.66717e-05,-2.22378e-06,4.9638e-05,-4.11551e-06,0
-3.02641e-05,7.55456e-06,2.52868e-06,9.17995e-06,2.43552e-05,-4.53411e-06,4.48209e-05,-6.22179e-06,0
-3.14188e-05,5.9815e-06,-8.65452e-07,5.73078e-06,1.9421e-05,-6.93555e-06,4.2458e-05,-8.10575e-06,0
-3.22312e-05,6.25319e-06,-5.4193e-06,1.69094e-06,1.92384e-05,-6.21024e-06,4.2105e-05,-9.56953e-06,0
-3.15642e-05,7.91312e-06,-8.72115e-06,4.33023e-07,2.52522e-05,-4.05746e-06,3.437e-05,-1.0013e-05,0
-2.84969e-05,8.72977e-06,-8.39151e-06,4.55844e-06,3.31888e-05,-2.73116e-06,1.68636e-05,-1.02989e-05,0
-2.61122e-05,8.21398e-06,-5.29465e-06,1.11105e-05,3.79461e-05,-2.27657e-06,-4.75391e-06,-1.03947e-05,0
-2.58068e-05,6.95183e-06,-1.7731e-06,1.29609e-05,3.80876e-05,-2.88427e-06,-1.78712e-05,-1.15193e-05,0
-2.52362e-05,5.49012e-06,1.01459e-06,8.07644e-06,3.60225e-05,-2.62527e-06,-1.76534e-05,-1.37638e-05,0
-2.46423e-05,5.01025e-06,2.91773e-06,2.7377e-06,3.3731e-05,-2.61303e-06,-9.24331e-06,-1.53718e-05,0
-2.44033e-05,6.29514e-06,4.24804e-06,1.04273e-06,3.31154e-05,-3.30349e-06,8.69842e-07,-1.5156e-05,0
-2.36858e-05,8.23075e-06,5.47845e-06,-2.34165e-07,3.39206e-05,-3.8608e-06,8.68703e-06,-1.41644e-05,0
-2.34362e-05,9.77247e-06,6.06056e-06,-6.77579e-06,3.32176e-05,-3.66868e-06,1.09415e-05,-1.29707e-05,0
-2.42487e-05,1.19807e-05,5.42402e-06,-2.0123e-05,2.91609e-05,-4.14896e-06,5.38284e-06,-1.16187e-05,0
-2.63027e-05,1.5337e-05,5.99364e-06,-3.37833e-05,2.36187e-05,-6.12896e-06,-3.86485e-06,-1.04994e-05,0
-2.74813e-05,1.69234e-05,7.62703e-06,-4.41743e-05,1.94924e-05,-7.10867e-06,-1.21904e-05,-8.63119e-06,0
-2.67727e-05,1.6644e-05,7.8356e-06,-5.31406e-05,1.63956e-05,-5.60198e-06,-1.6955e-05,-6.96043e-06,0
-2.55784e-05,1.67236e-05,6.6157e-06,-6.14405e-05,1.28499e-05,-3.29821e-06,-1.80483e-05,-6.34782e-06,0
-2.63946e-05,1.76111e-05,6.52495e-06,-6.66451e-05,9.49348e-06,-2.57671e-06,-1.56733e-05,-6.33503e-06,0
-2.82916e-05,1.71248e-05,6.22663e-06,-6.27379e-05,8.04469e-06,-4.35643e-06,-1.2594e-05,-6.05164e-06,0
-2.86216e-05,1.56311e-05,4.05452e-06,-4.44032e-05,9.57851e-06,-7.81117e-06,-9.03662e-06,-5.88431e-06,0
-2.76236e-05,1.44683e-05,3.19647e-06,-1.46153e-05,1.27981e-05,-1.00328e-05,-4.15003e-06,-4.90174e-06,0
-2.66958e-05,1.48725e-05,4.39326e-06,1.99144e-05,1.43182e-05,-1.05945e-05,-2.09911e-07,-2.95568e-06,0
-2.73199e-05,1.62103e-05,3.60072e-06,4.97268e-05,1.41265e-05,-1.2051e-05,1.19872e-06,-1.90044e-06,0
-2.97693e-05,1.60443e-05,-2.6045e-07,6.26635e-05,1.28885e-05,-1.37566e-05,-1.51863e-06,-2.69473e-06,0
-3.09566e-05,1.44973e-05,-8.54272e-06,5.21958e-05,1.18048e-05,-1.50024e-05,-7.90194e-06,-2.43603e-06,0
-2.99015e-05,1.31632e-05,-1.87271e-05,3.25604e-05,1.27899e-05,-1.6278e-05,-1.00214e-05,-2.24208e-06,0
-2.8842e-05,1.44662e-05,-2.36409e-05,1.94198e-05,1.21176e-05,-1.56221e-05,-4.52469e-06,-2.59573e-06,0
-2.89023e-05,1.71285e-05,-2.27889e-05,9.88534e-06,9.46915e-06,-1.43796e-05,4.69036e-06,-1.80853e-06,0
-2.77161e-05,1.78447e-05,-2.13159e-05,3.37496e-06,6.07471e-06,-1.55421e-05,1.33638e-05,-1.68826e-06,0
-2.62059e-05,1.65013e-05,-2.12992e-05,2.27756e-06,2.64684e-06,-1.96635e-05,1.84761e-05,-9.83876e-07,0
-2.72726e-05,1.47738e-05,-2.23627e-05,-5.39557e-07,1.14887e-06,-2.34235e-05,2.08399e-05,1.7377e-08,0
-2.85186e-05,1.40255e-05,-2.44498e-05,-6.73989e-06,1.31712e-06,-2.48959e-05,2.21403e-05,1.19323e-06,0
-2.96817e-05,1.33649e-05,-2.64557e-05,-1.1486e-06,1.84886e-06,-2.41178e-05,2.19641e-05,8.48502e-07,0
-2.98672e-05,1.19551e-05,-3.01767e-05,2.05176e-05,1.34245e-06,-2.3525e-05,2.04638e-05,-5.64237e-07,0
-2.94283e-05,1.15725e-05,-3.26056e-05,4.7706e-05,1.35527e-06,-2.45076e-05,1.93301e-05,-1.24324e-06,0
-2.95417e-05,1.29192e-05,-2.81778e-05,6.28548e-05,3.63843e-06,-2.48312e-05,1.72713e-05,-1.12889e-06,0
-2.93378e-05,1.36305e-05,-1.8616e-05,5.00538e-05,8.77863e-06,-2.33842e-05,1.48934e-05,-4.20826e-07,0
-2.77238e-05,1.31171e-05,-9.06909e-06,1.47329e-05,1.49518e-05,-2.06915e-05,1.30954e-05,5.28516e-07,0
-2.67569e-05,1.30594e-05,-3.61649e-06,-2.3527e-05,1.96561e-05,-1.80375e-05,1.28918e-05,2.41685e-06,0
-2.84854e-05,1.23999e-05,-3.88883e-06,-4.85434e-05,2.16874e-05,-1.67023e-05,1.45362e-05,4.1229e-06,0
-3.0616e-05,9.66841e-06,-7.81589e-06,-5.52278e-05,2.16658e-05,-1.82027e-05,1.65362e-05,4.97962e-06,0
-3.07597e-05,6.75108e-06,-1.27171e-05,-4.65359e-05,2.18407e-05,-2.06902e-05,1.7563e-05,6.10459e-06,0
-2.9668e-05,6.35728e-06,-1.82016e-05,-3.37828e-05,2.2145e-05,-2.16061e-05,1.73697e-05,7.41715e-06,0
-2.92498e-05,6.96193e-06,-2.26116e-05,-2.99171e-05,1.86673e-05,-2.15489e-05,1.46478e-05,7.10673e-06,0
-2.95374e-05,6.08927e-06,-2.28938e-05,-3.89539e-05,1.07221e-05,-2.25984e-05,1.0484e-05,5.33575e-06,0
-2.93078e-05,6.30675e-06,-1.85571e-05,-5.55958e-05,1.95869e-06,-2.42669e-05,9.05968e-06,2.94579e-06,0
-2.87142e-05,8.28302e-06,-1.39212e-05,-6.87409e-05,-5.64769e-06,-2.59474e-05,8.95961e-06,1.29838e-06,0
-3.06056e-05,8.20695e-06,-1.42716e-05,-7.14781e-05,-1.10944e-05,-2.63951e-05,7.14628e-06,1.15899e-06,0
-3.34887e-05,4.82349e-06,-1.89369e-05,-6.35809e-05,-1.39932e-05,-2.49558e-05,3.57765e-06,1.8284e-06,0
-3.58763e-05,-7.52378e-08,-2.34303e-05,-4.27565e-05,-1.29026e-05,-2.27605e-05,5.85954e-07,1.86657e-06,0
-3.7151e-05,-3.08328e-06,-2.32687e-05,-1.33143e-05,-9.80799e-06,-2.07888e-05,8.76073e-07,1.82442e-06,0
-3.62327e-05,-2.17971e-06,-1.68722e-05,1.39722e-05,-5.13517e-06,-1.91639e-05,4.14814e-06,2.41606e-06,0
-3.3599e-05,2.89248e-06,-1.15133e-05,2.42417e-05,1.385e-06,-1.9071e-05,5.63186e-06,4.43629e-06,0
-3.11071e-05,8.4822e-06,-9.80457e-06,1.6802e-05,7.27355e-06,-1.8715e-05,2.77268e-06,6.52513e-06,0
-2.97644e-05,1.18732e-05,-8.85186e-06,2.98942e-06,1.52694e-05,-1.46369e-05,-5.25063e-07,6.60748e-06,0
-2.83017e-05,1.37248e-05,-8.16172e-06,-1.26001e-05,2.35289e-05,-1.02417e-05,-4.83646e-07,4.42173e-06,0
-2.73326e-05,1.20125e-05,-7.66289e-06,-1.86856e-05,2.67382e-05,-8.17203e-06,2.30256e-06,1.79909e-06,0
-2.63309e-05,9.35888e-06,-6.96092e-06,-1.32047e-05,2.5357e-05,-8.43218e-06,6.64005e-06,2.32806e-06,0
-2.70901e-05,9.04074e-06,-3.56606e-06,-2.66613e-06,2.31564e-05,-9.49577e-06,1.16704e-05,4.36395e-06,0
-3.06134e-05,9.83249e-06,-1.88962e-06,8.28694e-06,2.20915e-05,-9.73199e-06,1.66502e-05,5.84982e-06,0
-3.32221e-05,9.90634e-06,-2.65542e-06,2.1263e-05,2.26168e-05,-9.99502e-06,2.08464e-05,4.93391e-06,0
-3.28574e-05,9.51748e-06,-3.15962e-06,3.23994e-05,2.54727e-05,-1.05397e-05,2.21104e-05,3.08209e-06,0
-3.18643e-05,9.36207e-06,-2.41843e-06,3.29711e-05,2.94242e-05,-9.41525e-06,1.57656e-05,3.04189e-06,0
-3.12943e-05,8.1954e-06,-1.74831e-06,1.82727e-05,3.16549e-05,-7.60062e-06,7.26031e-07,4.26549e-06,0
-3.02665e-05,6.88565e-06,-4.2287e-06,-9.04607e-06,3.00777e-05,-6.89931e-06,-1.4761e-05,5.43212e-06,0
-2.97429e-05,6.83328e-06,-7.42453e-06,-3.72089e-05,2.55519e-05,-6.40163e-06,-2.06274e-05,5.88648e-06,0
-2.96806e-05,8.19329e-06,-6.67864e-06,-5.43805e-05,2.00392e-05,-4.90624e-06,-1.52136e-05,6.15045e-06,0
-2.92878e-05,9.13539e-06,-1.21722e-06,-5.64237e-05,1.69453e-05,-3.00924e-06,-4.50211e-06,6.16143e-06,0
-2.78572e-05,8.13458e-06,4.05267e-06,-4.94857e-05,1.77772e-05,-1.90466e-06,6.7383e-06,6.80915e-06,0
-2.63668e-05,6.26718e-06,6.34249e-06,-3.57423e-05,1.92271e-05,-1.21315e-06,1.66042e-05,7.81721e-06,0
-2.58052e-05,5.23006e-06,4.94054e-06,-1.54855e-05,1.92966e-05,-1.34824e-06,2.39143e-05,7.865e-06,0
-2.65972e-05,5.39662e-06,2.67364e-06,9.84416e-06,1.99132e-05,-2.14029e-06,2.68224e-05,7.89235e-06,0
-2.87074e-05,6.24522e-06,2.96841e-06,3.42203e-05,2.12173e-05,-2.8134e-06,2.51744e-05,9.07509e-06,0
-3.13199e-05,6.92993e-06,5.32444e-06,5.21252e-05,2.10412e-05,-2.91011e-06,2.1918e-05,9.15805e-06,0
-3.30055e-05,7.54125e-06,5.01969e-06,5.86131e-05,1.87926e-05,-3.1991e-06,2.0609e-05,8.0322e-06,0
-3.32898e-05,1.00582e-05,3.24181e-06,5.19087e-05,1.58178e-05,-4.65089e-06,2.08433e-05,8.4478e-06,0
-3.33678e-05,1.22069e-05,1.25396e-06,3.75071e-05,1.47728e-05,-4.94171e-06,1.89265e-05,8.66766e-06,0
-3.37237e-05,9.76788e-06,-3.65077e-06,2.24504e-05,1.43225e-05,-3.32078e-06,1.05158e-05,4.76121e-06,0
-3.49832e-05,4.56111e-06,-9.15156e-06,7.77589e-06,1.05096e-05,-2.25926e-06,-9.31852e-06,5.69893e-07,0
-3.53244e-05,2.2839e-06,-1.28329e-05,-3.8762e-06,8.35733e-06,-3.96571e-06,-2.60279e-05,3.10598e-07,0
-3.43937e-05,3.34442e-06,-1.49581e-05,-1.20106e-05,1.13011e-05,-5.90668e-06,-2.46401e-05,7.48795e-07,0
-3.44588e-05,3.3472e-06,-1.91735e-05,-1.8739e-05,1.30203e-05,-4.91255e-06,-9.58641e-06,1.83993e-06,0
-3.41488e-05,2.978e-06,-2.37232e-05,-2.17337e-05,1.08095e-05,-4.29552e-06,1.08465e-05,2.43221e-06,0
-3.43836e-05,5.42195e-06,-2.54632e-05,-2.39854e-05,6.52517e-06,-5.31606e-06,2.61608e-05,1.92139e-06,0
-3.36946e-05,9.88234e-06,-2.55709e-05,-2.61822e-05,3.61669e-06,-6.74684e-06,3.62766e-05,2.83724e-06,0
-3.08607e-05,1.37067e-05,-2.60048e-05,-2.6612e-05,3.42692e-06,-7.75877e-06,4.26562e-05,4.55336e-06,0
-2.93625e-05,1.61755e-05,-2.79588e-05,-2.28148e-05,3.82907e-06,-8.09001e-06,4.58973e-05,5.15954e-06,0
-3.02215e-05,1.59898e-05,-3.01168e-05,-1.36882e-05,2.38105e-06,-7.02252e-06,4.58169e-05,4.61929e-06,0
-3.24079e-05,1.37992e-05,-3.09833e-05,-9.14034e-07,-2.86383e-07,-4.62123e-06,4.04444e-05,3.26211e-06,0
-3.41433e-05,1.2617e-05,-3.11238e-05,1.05819e-05,-2.64544e-06,-1.92871e-06,3.21489e-05,1.95255e-06,0
-3.43049e-05,1.29295e-05,-2.93341e-05,1.48063e-05,-4.9528e-06,-9.77333e-07,2.58553e-05,2.72742e-06,0
-3.31545e-05,1.46056e-05,-2.36109e-05,9.53288e-06,-5.97682e-06,-2.26354e-06,2.47794e-05,4.1564e-06,0
-3.22287e-05,1.66947e-05,-1.72948e-05,-3.50015e-06,-3.62486e-06,-3.9569e-06,2.77019e-05,4.61316e-06,0
-3.18155e-05,1.84283e-05,-1.43972e-05,-2.03031e-05,7.04751e-07,-5.06387e-06,3.32431e-05,3.17804e-06,0
-3.13529e-05,1.88246e-05,-1.44203e-05,-3.77587e-05,1.82984e-06,-6.44431e-06,3.91367e-05,8.19342e-07,0
-3.02875e-05,1.79499e-05,-1.5467e-05,-5.44535e-05,-1.41891e-06,-7.98055e-06,4.37763e-05,2.50319e-08,0
-2.96137e-05,1.85749e-05,-1.7895e-05,-6.90424e-05,-5.44039e-06,-8.06821e-06,4.31473e-05,1.50319e-06,0
-3.01619e-05,2.15668e-05,-2.02194e-05,-7.35064e-05,-7.03777e-06,-8.22572e-06,3.51459e-05,2.99892e-06,0
-3.21413e-05,2.30681e-05,-1.94198e-05,-5.53459e-05,-4.93088e-06,-9.78004e-06,2.21626e-05,3.72488e-06,0
-3.43566e-05,2.22252e-05,-1.61587e-05,-1.6331e-05,-6.92383e-07,-1.18297e-05,1.13776e-05,4.9289e-06,0
-3.48958e-05,2.28975e-05,-1.2733e-05,2.58693e-05,2.74705e-06,-1.29956e-05,6.3957e-06,6.32485e-06,0
-3.45278e-05,2.54686e-05,-9.84869e-06,5.8397e-05,6.41661e-06,-1.33819e-05,5.78358e-06,6.86578e-06,0
-3.51012e-05,2.80581e-05,-6.90831e-06,7.61368e-05,1.3301e-05,-1.22283e-05,6.20481e-06,6.51621e-06,0
-3.51235e-05,3.05259e-05,-4.09142e-06,7.67549e-05,2.28733e-05,-9.62613e-06,4.02993e-06,7.39397e-06,0
-3.37042e-05,3.34006e-05,-3.96735e-06,7.01082e-05,3.08536e-05,-6.98937e-06,1.34085e-06,8.27594e-06,0
-3.3052e-05,3.70131e-05,-6.29568e-06,6.68244e-05,3.56484e-05,-5.69129e-06,7.64913e-07,7.91345e-06,0
-3.25497e-05,4.1191e-05,-8.32587e-06,5.83317e-05,3.88083e-05,-2.40024e-06,2.74297e-06,7.47074e-06,0
-3.10321e-05,4.32572e-05,-9.94293e-06,3.73316e-05,3.87384e-05,6.6766e-07,7.00225e-06,6.19975e-06,0
-2.94895e-05,4.14166e-05,-9.01564e-06,1.46402e-05,3.45987e-05,6.67939e-07,1.02046e-05,5.96437e-06,0
-2.94944e-05,3.8109e-05,-2.62806e-06,1.7276e-06,2.99691e-05,-3.52282e-07,1.13929e-05,7.06907e-06,0
-3.15868e-05,3.54309e-05,7.29069e-06,-1.17048e-06,2.8031e-05,-8.99058e-07,1.17508e-05,7.19235e-06,0
-3.28741e-05,3.46503e-05,1.78214e-05,-4.0361e-06,2.62941e-05,8.60082e-07,1.15869e-05,6.3839e-06,0
-3.17959e-05,3.58344e-05,3.18569e-05,-1.58262e-05,2.14129e-05,1.35516e-06,1.15333e-05,4.55081e-06,0
-3.05132e-05,3.60804e-05,5.07368e-05,-3.46067e-05,1.32992e-05,-5.20529e-07,1.03829e-05,3.04671e-06,0
-2.97403e-05,3.38653e-05,6.90575e-05,-5.44451e-05,5.48967e-06,-3.3191e-06,1.09952e-05,8.51438e-07,0
-2.96321e-05,3.0425e-05,8.05145e-05,-6.93644e-05,3.05705e-06,-4.57e-06,1.33778e-05,-9.4504e-07,0
-3.06831e-05,2.8185e-05,7.74793e-05,-7.88807e-05,7.08583e-06,-3.52794e-06,1.557e-05,5.07043e-07,0
-3.2125e-05,2.72486e-05,5.61347e-05,-8.63436e-05,1.28881e-05,-1.91245e-06,1.72603e-05,3.5395e-06,0
-3.21956e-05,2.59035e-05,1.94045e-05,-8.73189e-05,1.54404e-05,-1.16934e-06,1.70772e-05,4.93212e-06,0
-3.18721e-05,2.38781e-05,-2.25553e-05,-7.35189e-05,1.42536e-05,-7.86459e-07,1.43564e-05,3.67493e-06,0
-3.24043e-05,2.15182e-05,-5.63009e-05,-4.63177e-05,1.17739e-05,6.64301e-07,1.01622e-05,2.46502e-06,0
-3.33759e-05,1.92421e-05,-7.41898e-05,-1.84261e-05,1.02988e-05,1.88609e-06,5.9522e-06,2.68903e-06,0
-3.43506e-05,1.69945e-05,-7.57351e-05,-1.84742e-06,1.05916e-05,4.92338e-07,2.05909e-06,3.04599e-06,0
-3.49459e-05,1.51711e-05,-6.5325e-05,1.4562e-06,1.18617e-05,-2.44224e-06,8.91695e-08,2.57394e-06,0
-3.43222e-05,1.48324e-05,-4.91262e-05,1.78153e-08,1.29833e-05,-3.41892e-06,2.39428e-06,1.955e-06,0
-3.26391e-05,1.57446e-05,-3.46529e-05,1.74099e-07,1.38412e-05,-2.47151e-06,7.73736e-06,7.89719e-07,0
-3.18484e-05,1.63691e-05,-2.58637e-05,-2.21584e-06,1.3369e-05,-1.71273e-06,1.13594e-05,-1.09591e-06,0
-3.25171e-05,1.50699e-05,-2.10893e-05,-1.05161e-05,1.13009e-05,-1.41169e-06,1.27215e-05,-2.37469e-06,0
-3.39827e-05,1.18822e-05,-1.969e-05,-1.84895e-05,1.013e-05,-2.31294e-06,1.36343e-05,-2.68739e-06,0
-3.63567e-05,9.09562e-06,-2.19066e-05,-2.24917e-05,1.10248e-05,-4.71627e-06,1.35084e-05,-2.76741e-06,0
-3.74152e-05,7.91043e-06,-2.40342e-05,-2.11781e-05,1.305e-05,-5.59292e-06,1.15608e-05,-2.03796e-06,0
-3.53597e-05,7.27605e-06,-2.36823e-05,-1.35338e-05,1.62516e-05,-5.19715e-06,9.95181e-06,-3.54781e-07,0
-3.3213e-05,7.71628e-06,-1.8708e-05,-2.25425e-06,1.9102e-05,-5.48139e-06,9.31784e-06,9.38242e-07,0
-3.15017e-05,1.01329e-05,-1.2054e-05,6.0838e-06,2.10416e-05,-6.11179e-06,9.03018e-06,1.98612e-06,0
-3.00473e-05,1.26032e-05,-8.08892e-06,1.47648e-05,2.36184e-05,-6.89806e-06,9.34981e-06,2.42056e-06,0
-3.0203e-05,1.22838e-05,-6.02635e-06,3.01667e-05,2.64676e-05,-6.9886e-06,1.02659e-05,7.05857e-07,0
-3.06999e-05,1.03367e-05,-6.84157e-06,4.00873e-05,2.8326e-05,-6.93219e-06,1.22056e-05,-2.00747e-06,0
