ch1,ch2,ch3,ch4,ch5,ch6,ch7,ch8,class
-2.75118e-05,1.45464e-05,-5.1766e-06,-0.000102109,5.88724e-05,-9.64354e-06,-5.39151e-05,8.63979e-06,0
-2.78446e-05,1.36872e-05,-7.93831e-06,-0.000117846,3.90954e-05,-9.7974e-06,-5.41798e-05,8.3609e-06,0
-2.68163e-05,1.22872e-05,-6.83857e-06,-0.000103753,2.76611e-05,-8.93873e-06,-3.92091e-05,7.41443e-06,0
-2.76288e-05,7.49193e-06,-5.6136e-06,-9.58832e-05,2.56477e-05,-8.9848e-06,-1.4999e-05,5.63909e-06,0
-3.03018e-05,2.49743e-06,-8.78956e-06,-9.31689e-05,2.19881e-05,-1.07815e-05,5.37701e-06,4.64037e-06,0
-3.29953e-05,1.76288e-06,-1.26126e-05,-8.04378e-05,1.43564e-05,-1.13159e-05,1.35178e-05,4.84778e-06,0
-3.37367e-05,2.95215e-06,-1.3836e-05,-5.4859e-05,5.8581e-06,-1.01363e-05,1.36941e-05,5.65047e-06,0
-3.27666e-05,4.21649e-06,-1.10231e-05,-3.75858e-05,-1.52981e-06,-8.76175e-06,1.04828e-05,5.54637e-06,0
-3.22016e-05,4.82437e-06,-7.3023e-06,-3.47845e-05,-7.7169e-06,-9.36533e-06,4.1449e-06,6.14642e-06,0
-3.23196e-05,6.507e-06,-5.81942e-06,-3.94223e-05,-1.23596e-05,-1.15051e-05,-8.15104e-07,7.58092e-06,0
-3.34487e-05,8.59269e-06,-6.25075e-06,-4.37656e-05,-1.56508e-05,-1.18626e-05,-6.35193e-07,9.37598e-06,0
-3.56436e-05,7.08195e-06,-6.54975e-06,-4.54448e-05,-1.46731e-05,-1.05926e-05,3.02841e-06,9.93894e-06,0
-3.66519e-05,1.89278e-06,-6.22846e-06,-4.40957e-05,-8.04122e-06,-1.11285e-05,7.61855e-06,8.16811e-06,0
-3.2186e-05,-2.88245e-06,-6.81746e-06,-4.29872e-05,4.3852e-07,-1.21122e-05,1.3285e-05,4.8751e-06,0
-2.2887e-05,-3.70678e-06,-9.12068e-06,-5.37042e-05,5.57085e-06,-1.20901e-05,1.91647e-05,1.81316e-06,0
-1.55807e-05,-1.81094e-06,-1.17457e-05,-7.00524e-05,5.82639e-06,-1.26455e-05,2.41572e-05,4.59516e-07,0
-1.56771e-05,6.01982e-07,-1.35675e-05,-7.31275e-05,3.87763e-06,-1.50747e-05,2.64907e-05,-4.48356e-07,0
-2.26748e-05,3.59629e-06,-1.48059e-05,-5.16339e-05,2.65107e-06,-1.72965e-05,2.60341e-05,-1.42423e-06,0
-3.16374e-05,6.86562e-06,-1.57916e-05,-1.84025e-05,3.50983e-06,-1.77131e-05,2.46136e-05,-1.96514e-06,0
-3.85463e-05,7.96738e-06,-1.63782e-05,1.33964e-05,5.3056e-06,-1.58564e-05,2.30298e-05,-2.29621e-06,0
-4.27528e-05,6.82171e-06,-1.52664e-05,3.72318e-05,7.82776e-06,-1.32283e-05,2.04617e-05,-2.86914e-06,0
-4.60719e-05,4.86686e-06,-1.3306e-05,4.75463e-05,1.02925e-05,-1.08063e-05,1.73205e-05,-2.93053e-06,0
-4.87793e-05,3.67046e-06,-1.09918e-05,3.82647e-05,1.02726e-05,-8.82871e-06,1.60541e-05,-2.64851e-06,0
-5.09668e-05,1.81496e-06,-8.69024e-06,2.14756e-05,7.93295e-06,-7.19369e-06,1.69628e-05,-3.05774e-06,0
-5.23016e-05,-9.50076e-07,-7.76446e-06,1.23002e-05,6.30379e-06,-4.26336e-06,1.62248e-05,-3.98189e-06,0
-5.16753e-05,-3.56051e-06,-7.46029e-06,1.02747e-05,6.84184e-06,-1.96857e-06,1.11197e-05,-2.91531e-06,0
-4.97753e-05,-8.25931e-06,-6.43577e-06,9.33335e-06,8.25874e-06,-1.7472e-06,6.8657e-06,-1.60543e-06,0
-4.69864e-05,-1.39221e-05,-7.55603e-06,8.03778e-06,8.63366e-06,-2.06183e-06,7.97283e-06,-9.53199e-08,0
-4.31073e-05,-1.52421e-05,-1.17139e-05,7.92015e-06,7.18981e-06,7.85788e-07,1.10731e-05,1.59861e-06,0
-3.78042e-05,-1.2152e-05,-1.63628e-05,9.78361e-06,7.57782e-06,8.79712e-06,1.3373e-05,-9.97649e-07,0
-3.36601e-05,-9.29577e-06,-1.94576e-05,1.73913e-05,1.05413e-05,1.85074e-05,1.35218e-05,-4.79488e-06,0
-3.01994e-05,-7.66005e-06,-1.99551e-05,3.79003e-05,9.6681e-06,2.27248e-05,1.45209e-05,-5.94004e-06,0
-2.73613e-05,-6.12879e-06,-1.76019e-05,5.92597e-05,5.47718e-06,2.0286e-05,1.62329e-05,-3.33218e-06,0
-2.53054e-05,-4.2418e-06,-1.27899e-05,5.67463e-05,2.53725e-06,1.63633e-05,1.59452e-05,-2.25874e-07,0
-2.21764e-05,-4.76172e-06,-6.40692e-06,3.41412e-05,3.62885e-06,1.56905e-05,1.54929e-05,-9.95066e-09,0
-2.16299e-05,-6.84999e-06,-1.30701e-06,1.20048e-05,1.05674e-05,1.67384e-05,1.59925e-05,-1.72402e-06,0
-2.33897e-05,-6.43182e-06,3.26929e-06,-4.32459e-07,1.88408e-05,1.32208e-05,1.80029e-05,-4.14027e-06,0
-2.54373e-05,-3.16691e-06,1.29706e-05,-6.6969e-06,2.22045e-05,4.13304e-06,1.98276e-05,-6.25786e-06,0
-2.58467e-05,1.24761e-07,2.93525e-05,-1.15957e-05,2.0921e-05,-9.1256e-06,2.13356e-05,-6.76771e-06,0
-2.55142e-05,1.21606e-06,4.91722e-05,-1.95344e-05,1.75574e-05,-2.15839e-05,2.24291e-05,-5.94108e-06,0
-2.6507e-05,1.93807e-06,6.41402e-05,-2.63148e-05,1.37949e-05,-2.67563e-05,2.28637e-05,-6.58832e-06,0
-2.94071e-05,3.76543e-06,6.69878e-05,-2.70485e-05,1.09941e-05,-2.51964e-05,2.16725e-05,-7.73915e-06,0
-3.24965e-05,5.80335e-06,5.52483e-05,-2.09844e-05,8.84415e-06,-2.35151e-05,1.93495e-05,-7.6799e-06,0
-3.33254e-05,6.43837e-06,3.04032e-05,-1.19121e-05,6.62658e-06,-2.37057e-05,1.73337e-05,-6.43705e-06,0
-3.14325e-05,6.7846e-06,-3.48782e-06,-6.60491e-06,4.8337e-06,-2.11331e-05,1.60127e-05,-3.76745e-06,0
-2.78867e-05,7.66694e-06,-3.80918e-05,-8.01347e-06,3.82387e-06,-1.6118e-05,1.49022e-05,-4.96452e-07,0
-2.54023e-05,8.82463e-06,-6.33096e-05,-1.10829e-05,3.70742e-06,-1.2292e-05,1.33951e-05,8.81012e-07,0
-2.47692e-05,1.0405e-05,-7.35596e-05,-1.0452e-05,4.34277e-06,-1.11012e-05,1.20193e-05,1.23637e-07,0
-2.52356e-05,1.298e-05,-7.07475e-05,-6.36795e-06,4.80444e-06,-1.26159e-05,1.21336e-05,-1.46689e-06,0
-2.57446e-05,1.59006e-05,-6.01942e-05,-2.14789e-06,5.90403e-06,-1.53143e-05,1.35333e-05,-2.01527e-06,0
-2.60848e-05,1.67025e-05,-4.68567e-05,-5.94933e-07,6.76452e-06,-1.68516e-05,1.38367e-05,-5.45742e-07,0
-2.46953e-05,1.47779e-05,-3.60521e-05,-2.10624e-06,3.84902e-06,-1.77357e-05,1.29131e-05,1.46081e-06,0
-2.34919e-05,1.34211e-05,-2.85259e-05,-4.59289e-06,9.92749e-08,-1.95507e-05,1.29774e-05,2.99839e-06,0
-2.43974e-05,1.61089e-05,-2.36157e-05,-7.01232e-06,1.10286e-06,-2.00119e-05,1.37821e-05,3.78551e-06,0
-2.6803e-05,1.93486e-05,-1.95429e-05,-8.3712e-06,4.84589e-06,-1.78677e-05,1.40224e-05,3.10029e-06,0
-2.642e-05,1.93102e-05,-1.06133e-05,-6.26647e-06,7.33483e-06,-1.65026e-05,1.3502e-05,2.65767e-06,0
-2.31938e-05,1.86239e-05,-1.29977e-06,-3.11272e-06,5.61927e-06,-1.78436e-05,1.30996e-05,3.63725e-06,0
-2.0778e-05,1.86746e-05,2.05315e-06,-1.31476e-06,3.73428e-06,-1.86411e-05,1.1439e-05,2.46918e-06,0
-1.9838e-05,1.92952e-05,1.42856e-06,-1.67102e-06,8.02132e-06,-1.74954e-05,8.72071e-07,1.96231e-07,0
-2.24179e-05,2.02101e-05,-9.40718e-07,-2.11621e-06,1.42138e-05,-1.72844e-05,-1.51348e-05,-2.08432e-06,0
-2.56593e-05,1.95269e-05,-2.07922e-06,-1.95691e-06,1.76533e-05,-1.77264e-05,-2.35395e-05,-5.1413e-06,0
-2.61259e-05,1.8973e-05,-2.37434e-06,-2.44289e-06,1.85063e-05,-1.81928e-05,-1.89604e-05,-6.42945e-06,0
-2.65837e-05,2.01615e-05,-1.95496e-06,-4.55475e-06,1.83496e-05,-1.72442e-05,-7.18561e-06,-4.6661e-06,0
-2.80915e-05,2.06819e-05,-1.55293e-06,-8.62606e-06,1.49159e-05,-1.48856e-05,4.37991e-06,-2.34457e-06,0
-2.96552e-05,1.86892e-05,-1.36784e-06,-1.11972e-05,6.19414e-06,-1.24633e-05,1.38004e-05,-1.76652e-06,0
-3.07409e-05,1.72637e-05,-1.37879e-06,-1.06869e-05,-3.81453e-06,-8.99663e-06,2.22515e-05,-2.67129e-06,0
-3.04194e-05,1.77668e-05,-2.63307e-06,-9.96979e-06,-9.43013e-06,-5.42103e-06,2.97795e-05,-3.8273e-06,0
-2.91676e-05,1.8133e-05,-4.14959e-06,-8.41636e-06,-7.899e-06,-4.56171e-06,3.30058e-05,-3.64035e-06,0
-2.78306e-05,1.69315e-05,-5.15376e-06,-6.12783e-06,-9.43715e-07,-6.44976e-06,3.17584e-05,-1.34092e-06,0
-2.7068e-05,1.41031e-05,-6.22938e-06,-5.13972e-06,7.39314e-06,-7.95897e-06,3.14802e-05,1.39475e-06,0
-2.70395e-05,1.13386e-05,-8.34786e-06,-5.81448e-06,1.41054e-05,-8.20177e-06,3.48467e-05,2.83052e-06,0
-2.75728e-05,1.00793e-05,-1.0282e-05,-6.24944e-06,1.9186e-05,-8.13758e-06,3.82645e-05,3.19097e-06,0
-2.87712e-05,1.04928e-05,-1.09563e-05,-4.44941e-06,2.16069e-05,-8.43485e-06,3.90738e-05,1.78327e-06,0
-3.0722e-05,1.03463e-05,-1.02757e-05,-5.27925e-07,2.11749e-05,-8.1047e-06,3.8751e-05,-1.076e-06,0
-3.25833e-05,8.76267e-06,-9.15027e-06,2.67394e-06,2.01735e-05,-6.63425e-06,3.85081e-05,-3.39164e-06,0
-3.3263e-05,8.88184e-06,-8.48977e-06,1.2274e-06,1.94561e-05,-5.6719e-06,3.71843e-05,-3.1466e-06,0
-3.23736e-05,1.1634e-05,-8.63057e-06,-2.01134e-06,1.7993e-05,-6.44889e-06,3.49374e-05,-4.45746e-07,0
-3.16987e-05,1.49853e-05,-7.46846e-06,-4.61353e-06,1.57362e-05,-7.18767e-06,3.12159e-05,3.04679e-06,0
-3.16056e-05,1.78471e-05,-5.15587e-06,-6.18494e-06,1.45729e-05,-6.42806e-06,2.6767e-05,4.67932e-06,0
-3.31726e-05,1.84914e-05,-4.58354e-06,-5.86791e-06,1.49322e-05,-6.32615e-06,2.39776e-05,3.83302e-06,0
-3.50774e-05,1.79902e-05,-6.12786e-06,-4.97921e-06,1.49494e-05,-8.3496e-06,2.16385e-05,2.24018e-06,0
-3.41285e-05,1.73921e-05,-7.8106e-06,-3.69098e-06,1.43776e-05,-9.28474e-06,2.07853e-05,1.96032e-07,0
-3.12248e-05,1.68074e-05,-7.42651e-06,-3.38521e-06,1.44477e-05,-7.86715e-06,2.0344e-05,-4.25414e-07,0
-2.81474e-05,1.7926e-05,-6.82185e-06,-3.7666e-06,1.3442e-05,-7.36891e-06,1.76976e-05,1.14253e-06,0
-2.68209e-05,1.99366e-05,-5.97948e-06,-4.71383e-06,1.16706e-05,-1.01212e-05,1.56875e-05,2.88436e-06,0
-2.76243e-05,2.08588e-05,-4.87264e-06,-6.82516e-06,1.30395e-05,-1.19997e-05,1.62213e-05,4.18421e-06,0
-2.88268e-05,2.06437e-05,-5.50963e-06,-8.57987e-06,1.64345e-05,-1.11978e-05,1.72258e-05,4.38928e-06,0
-2.94523e-05,1.89519e-05,-7.84748e-06,-8.74201e-06,1.97424e-05,-1.00473e-05,1.6248e-05,3.04415e-06,0
-3.0169e-05,1.58533e-05,-1.09115e-05,-5.81439e-06,2.21404e-05,-8.7655e-06,1.60437e-05,1.44647e-06,0
-3.18263e-05,1.2195e-05,-1.35769e-05,-2.31967e-06,2.30654e-05,-7.62554e-06,1.58555e-05,1.12444e-07,0
-3.35626e-05,8.99306e-06,-1.70868e-05,-3.79033e-07,2.30466e-05,-6.52459e-06,1.40864e-05,8.15405e-09,0
-3.3256e-05,7.11138e-06,-1.95332e-05,-1.23672e-06,2.40455e-05,-6.40517e-06,1.1601e-05,8.10774e-07,0
-3.25685e-05,6.01899e-06,-1.9332e-05,-3.27084e-06,2.48009e-05,-6.05194e-06,9.78634e-06,6.72233e-07,0
-3.21703e-05,6.10425e-06,-1.73802e-05,-5.18548e-06,2.364e-05,-5.07615e-06,9.12057e-06,3.22975e-07,0
-3.19524e-05,7.31317e-06,-1.6125e-05,-6.09396e-06,2.23275e-05,-4.18377e-06,8.28395e-06,1.20617e-06,0
-3.20711e-05,9.43136e-06,-1.53177e-05,-5.71641e-06,2.23385e-05,-3.49894e-06,7.2875e-06,2.69587e-06,0
-3.22266e-05,1.20589e-05,-1.35426e-05,-5.51716e-06,2.35016e-05,-3.80689e-06,6.18762e-06,4.3512e-06,0
-3.29503e-05,1.52029e-05,-1.16661e-05,-5.05941e-06,2.50448e-05,-5.51905e-06,4.68147e-06,7.14518e-06,0
-3.38802e-05,1.87274e-05,-1.01108e-05,-4.80975e-06,2.66366e-05,-7.00293e-06,2.40056e-06,1.02631e-05,0
-3.47842e-05,2.07275e-05,-9.61738e-06,-5.04918e-06,2.62259e-05,-6.81355e-06,5.8271e-07,1.16898e-05,0
-3.54792e-05,2.0178e-05,-8.92369e-06,-5.18077e-06,2.44234e-05,-5.84569e-06,-8.99193e-07,1.17166e-05,0
-3.48759e-05,1.98291e-05,-7.78482e-06,-5.34978e-06,2.25466e-05,-5.11898e-06,-2.22049e-06,1.0768e-05,0
-3.33866e-05,2.20618e-05,-7.19353e-06,-6.37442e-06,2.17328e-05,-5.48331e-06,-2.7768e-06,8.39128e-06,0
-3.31663e-05,2.45293e-05,-8.77354e-06,-6.35423e-06,2.18333e-05,-7.3157e-06,-1.17743e-06,6.48425e-06,0
-3.34549e-05,2.50042e-05,-1.11877e-05,-5.15685e-06,2.13618e-05,-9.72481e-06,1.62839e-06,5.3741e-06,0
-3.21985e-05,2.28243e-05,-1.22478e-05,-3.55456e-06,2.05616e-05,-1.03076e-05,3.52063e-06,2.34775e-06,0
-3.04407e-05,2.03996e-05,-1.19809e-05,-2.7512e-06,1.99435e-05,-9.57678e-06,3.87503e-06,-3.30621e-06,0
-3.09207e-05,2.08258e-05,-1.03804e-05,-3.08348e-06,1.98497e-05,-9.70375e-06,4.28957e-06,-7.28457e-06,0
-3.26681e-05,2.27522e-05,-6.81805e-06,-4.77261e-06,2.06136e-05,-1.03121e-05,6.8904e-06,-7.05891e-06,0
-3.41297e-05,2.37116e-05,-3.257e-06,-7.22569e-06,2.12059e-05,-1.19256e-05,1.02755e-05,-7.92345e-06,0
-3.34046e-05,2.38674e-05,-1.64708e-06,-9.99866e-06,2.08665e-05,-1.39713e-05,9.95129e-06,-1.06088e-05,0
-3.15375e-05,2.50491e-05,-2.80332e-07,-1.22778e-05,1.97985e-05,-1.45982e-05,6.16505e-06,-1.07322e-05,0
-3.00079e-05,2.70747e-05,1.96803e-06,-1.15684e-05,2.05399e-05,-1.22448e-05,3.2883e-06,-8.84944e-06,0
-2.90743e-05,2.80634e-05,2.73373e-06,-1.03518e-05,2.29306e-05,-8.26143e-06,2.50192e-06,-6.29043e-06,0
-2.74015e-05,2.69979e-05,2.29242e-06,-1.09333e-05,2.42895e-05,-6.90115e-06,1.58728e-06,-3.93225e-06,0
-2.56965e-05,2.47361e-05,3.62537e-06,-1.20917e-05,2.42019e-05,-8.05337e-06,1.0911e-06,-1.19004e-06,0
-2.78527e-05,2.1338e-05,4.84462e-06,-1.158e-05,2.21349e-05,-9.37364e-06,1.82764e-06,2.16324e-06,0
-3.09988e-05,1.65063e-05,2.15425e-06,-9.43461e-06,1.86003e-05,-1.00973e-05,2.52899e-06,3.9475e-06,0
-3.33193e-05,1.2519e-05,-2.54212e-06,-7.44797e-06,1.67185e-05,-1.10342e-05,1.43643e-06,3.14772e-06,0
-3.45595e-05,1.20002e-05,-5.4375e-06,-3.89856e-06,1.63413e-05,-1.10266e-05,-1.48855e-06,1.81615e-06,0
-3.48571e-05,1.39665e-05,-7.29199e-06,1.65245e-06,1.46783e-05,-9.77399e-06,-2.19333e-06,2.14464e-06,0
-3.3945e-05,1.58745e-05,-9.6038e-06,7.08455e-06,1.17467e-05,-9.86297e-06,-7.74356e-07,2.33445e-06,0
-3.30705e-05,1.53146e-05,-1.17934e-05,9.52033e-06,9.96589e-06,-1.08704e-05,7.4373e-07,7.27376e-07,0
-3.34347e-05,1.30699e-05,-1.36719e-05,6.94438e-06,1.12139e-05,-1.05204e-05,1.61306e-06,-1.96342e-06,0
-3.41369e-05,1.18587e-05,-1.54539e-05,-5.95881e-07,1.14868e-05,-9.63654e-06,3.06697e-06,-4.10084e-06,0
-3.44386e-05,1.125e-05,-1.58505e-05,-1.21194e-05,8.5359e-06,-9.3057e-06,5.85609e-06,-4.48515e-06,0
-3.46069e-05,9.80975e-06,-1.52278e-05,-2.55663e-05,5.07576e-06,-9.25965e-06,9.15971e-06,-3.94424e-06,0
-3.54989e-05,8.65763e-06,-1.57544e-05,-3.6545e-05,4.26992e-06,-9.87779e-06,1.12777e-05,-3.3578e-06,0
-3.60958e-05,7.81529e-06,-1.64774e-05,-3.76826e-05,4.91023e-06,-1.04783e-05,1.15271e-05,-2.94944e-06,0
-3.50991e-05,5.46259e-06,-1.51126e-05,-2.93022e-05,5.51516e-06,-1.00209e-05,1.01584e-05,-2.71534e-06,0
-3.32284e-05,3.89799e-06,-1.36666e-05,-1.87564e-05,5.19145e-06,-8.62286e-06,7.77645e-06,-1.92562e-06,0
-3.20752e-05,5.28414e-06,-1.35392e-05,-1.16455e-05,4.57126e-06,-7.30663e-06,6.54872e-06,-1.69834e-06,0
-3.2142e-05,8.38134e-06,-1.36396e-05,-8.13627e-06,7.22244e-06,-7.11356e-06,6.92056e-06,-1.35287e-06,0
-3.30381e-05,1.01989e-05,-1.35025e-05,-5.06433e-06,1.1677e-05,-7.01165e-06,7.6604e-06,-1.34106e-06,0
-3.26469e-05,9.52538e-06,-1.27735e-05,-2.7694e-06,1.39031e-05,-7.07619e-06,1.01415e-05,-1.64577e-06,0
-3.1397e-05,7.09075e-06,-1.23082e-05,-1.79788e-06,1.17665e-05,-8.55847e-06,1.33884e-05,-1.1323e-06,0
-3.0293e-05,6.17683e-06,-1.46099e-05,-1.97782e-06,6.88326e-06,-8.99948e-06,1.13914e-05,-1.33568e-06,0
-2.92928e-05,8.4215e-06,-1.6679e-05,-1.8185e-06,5.08794e-06,-8.42607e-06,4.84796e-06,-1.98059e-06,0
-2.80759e-05,1.03331e-05,-1.52872e-05,3.81775e-07,9.0152e-06,-7.79476e-06,9.48889e-07,-1.3045e-06,0
-2.75797e-05,9.63406e-06,-1.19026e-05,1.53917e-06,1.42757e-05,-6.98662e-06,2.71302e-06,3.0947e-07,0
-2.65396e-05,9.23281e-06,-8.78125e-06,9.92687e-07,1.64033e-05,-6.114e-06,9.4614e-06,1.2543e-06,0
-2.46977e-05,1.0125e-05,-7.36004e-06,-3.26358e-08,1.41262e-05,-5.8109e-06,1.72818e-05,1.04717e-06,0
-2.30427e-05,1.002e-05,-6.41225e-06,-3.66235e-07,1.07884e-05,-7.16124e-06,2.24658e-05,-8.73796e-07,0
-2.33704e-05,8.80375e-06,-5.9091e-06,4.65523e-07,1.02989e-05,-8.03592e-06,2.49886e-05,-1.71606e-06,0
-2.67111e-05,8.84596e-06,-7.2605e-06,1.49677e-06,1.15173e-05,-9.40744e-06,2.75865e-05,-1.28972e-06,0
-2.92324e-05,1.1172e-05,-9.24728e-06,3.57992e-06,1.29723e-05,-1.1269e-05,3.21168e-05,-6.53673e-07,0
-2.99195e-05,1.44234e-05,-1.02023e-05,6.56442e-06,1.28025e-05,-1.14779e-05,3.54639e-05,5.63643e-07,0
-2.87685e-05,1.59668e-05,-1.1209e-05,6.8195e-06,1.02073e-05,-1.08701e-05,3.60082e-05,2.66529e-06,0
-2.70055e-05,1.52087e-05,-1.37406e-05,3.0554e-06,7.76297e-06,-1.0272e-05,3.38872e-05,3.94936e-06,0
-2.64853e-05,1.33997e-05,-1.78204e-05,-8.47174e-07,6.76652e-06,-9.40219e-06,3.03267e-05,3.80103e-06,0
-2.74545e-05,1.08891e-05,-2.09177e-05,-6.71198e-07,5.99008e-06,-8.7532e-06,2.62714e-05,3.45218e-06,0
-2.79274e-05,9.67378e-06,-2.24121e-05,1.53741e-06,5.54712e-06,-9.42622e-06,2.27842e-05,3.4852e-06,0
-2.79031e-05,1.06064e-05,-2.30777e-05,7.29764e-07,6.25589e-06,-1.05069e-05,1.83705e-05,4.28706e-06,0
-2.87803e-05,1.08926e-05,-2.26839e-05,-2.53741e-06,6.29599e-06,-1.12583e-05,1.13953e-05,4.42195e-06,0
-2.99906e-05,9.44523e-06,-1.98717e-05,-4.79436e-06,6.00169e-06,-1.15097e-05,4.07656e-06,3.71566e-06,0
-2.96774e-05,8.92167e-06,-1.4362e-05,-4.82465e-06,7.05895e-06,-1.16016e-05,-2.59764e-06,1.98487e-06,0
-2.71296e-05,8.57223e-06,-7.58306e-06,-3.22713e-06,7.86018e-06,-1.0783e-05,-7.64607e-06,1.35399e-06,0
-2.48667e-05,7.19133e-06,-2.26232e-06,-1.16286e-06,9.52196e-06,-7.73485e-06,-7.68173e-06,2.31823e-06,0
-2.43348e-05,5.99775e-06,-1.82268e-06,-2.09339e-06,1.30929e-05,-3.10911e-06,-2.86463e-06,2.92128e-06,0
-2.4733e-05,7.77607e-06,-4.48341e-06,-4.63102e-06,1.39264e-05,7.40351e-07,3.16162e-06,3.18124e-06,0
-2.66881e-05,1.02779e-05,-6.58872e-06,-4.36922e-06,1.25479e-05,2.02037e-06,8.35316e-06,3.85611e-06,0
-2.78905e-05,1.1993e-05,-8.74438e-06,-3.01507e-06,1.05401e-05,2.26724e-07,1.12583e-05,4.46156e-06,0
-2.82256e-05,1.35575e-05,-1.19191e-05,1.20989e-07,8.89927e-06,-3.21693e-06,1.07229e-05,4.58655e-06,0
-2.86429e-05,1.25738e-05,-1.38375e-05,3.38275e-06,8.36781e-06,-4.82911e-06,9.23059e-06,3.96501e-06,0
-2.71509e-05,1.02746e-05,-1.43282e-05,2.12133e-06,6.86839e-06,-5.73468e-06,1.05379e-05,3.16446e-06,0
-2.63972e-05,1.02588e-05,-1.33877e-05,2.61587e-07,5.43824e-06,-8.26836e-06,1.38833e-05,1.02779e-06,0
-2.57721e-05,1.30835e-05,-1.1326e-05,-2.13851e-06,6.44124e-06,-1.06019e-05,1.63374e-05,-1.20882e-06,0
-2.6556e-05,1.54573e-05,-9.7505e-06,-1.37997e-06,8.82596e-06,-1.14758e-05,1.61335e-05,-1.48353e-06,0
-2.80187e-05,1.62911e-05,-7.64084e-06,7.81147e-06,1.00718e-05,-1.28507e-05,1.50599e-05,-8.93974e-07,0
-2.71239e-05,1.53499e-05,-4.95883e-06,2.06121e-05,1.17673e-05,-1.53693e-05,1.53484e-05,-1.09174e-07,0
-2.54929e-05,1.31336e-05,-2.50871e-06,2.66839e-05,1.38462e-05,-1.71953e-05,1.69363e-05,5.8194e-08,0
-2.56377e-05,1.13173e-05,-1.55172e-06,2.0424e-05,1.48928e-05,-1.76438e-05,1.78996e-05,2.94018e-07,0
-2.70233e-05,1.08799e-05,-2.05499e-06,8.90781e-06,1.48564e-05,-1.64744e-05,1.90992e-05,1.00671e-06,0
-2.79949e-05,1.16111e-05,-3.81088e-06,8.19985e-07,1.4582e-05,-1.43727e-05,2.02381e-05,2.77383e-06,0
-2.86327e-05,1.27357e-05,-5.54808e-06,-2.18525e-06,1.37852e-05,-1.21706e-05,2.00164e-05,3.55662e-06,0
-2.86182e-05,1.46202e-05,-5.41573e-06,-4.01382e-06,1.22462e-05,-1.14349e-05,1.79137e-05,2.47698e-06,0
-2.86752e-05,1.56918e-05,-5.50044e-06,-3.37452e-06,1.2263e-05,-1.25657e-05,1.41104e-05,1.60273e-06,0
-2.95852e-05,1.50163e-05,-6.97487e-06,3.95739e-06,1.44157e-05,-1.35602e-05,1.00268e-05,1.52707e-06,0
-3.10425e-05,1.38223e-05,-7.82585e-06,1.28041e-05,1.70968e-05,-1.33495e-05,8.14194e-06,1.16086e-06,0
-3.20824e-05,1.35505e-05,-6.50895e-06,1.41894e-05,1.79746e-05,-1.30226e-05,1.07475e-05,8.1991e-07,0
-3.33873e-05,1.42486e-05,-4.83102e-06,9.30466e-06,1.64067e-05,-1.42635e-05,1.4988e-05,9.66589e-07,0
-3.41818e-05,1.56638e-05,-3.80511e-06,5.33477e-06,1.33185e-05,-1.6454e-05,1.67461e-05,-2.37158e-07,0
-3.35661e-05,1.84515e-05,-2.66566e-06,5.66263e-06,1.10379e-05,-1.73133e-05,1.54347e-05,-2.82889e-06,0
-3.24384e-05,2.20004e-05,-1.00045e-06,8.59052e-06,1.09355e-05,-1.58014e-05,1.32998e-05,-3.62088e-06,0
-3.23572e-05,2.49242e-05,-1.66936e-07,1.31435e-05,1.29989e-05,-1.33049e-05,1.23626e-05,-2.1698e-06,0
-3.21443e-05,2.53779e-05,-3.57219e-07,1.74751e-05,1.66675e-05,-1.04709e-05,1.35368e-05,-2.176e-06,0
-3.0063e-05,2.37832e-05,-4.18211e-07,1.63029e-05,1.8321e-05,-7.61184e-06,1.49111e-05,-2.9724e-06,0
-2.70593e-05,2.14361e-05,3.74775e-08,8.38811e-06,1.53188e-05,-4.58358e-06,1.47341e-05,-1.03757e-06,0
-2.43077e-05,1.95824e-05,1.23734e-07,-2.63787e-06,1.23975e-05,-2.40027e-06,1.36096e-05,5.56655e-06,0
-2.32154e-05,1.9242e-05,-9.17703e-07,-2.50702e-05,1.13409e-05,-2.16897e-06,1.3303e-05,2.11378e-05,0
-2.47313e-05,1.80353e-05,-1.47634e-06,-5.5832e-05,9.29445e-06,-2.72198e-06,1.24445e-05,3.30273e-05,0
-2.54337e-05,1.58394e-05,-2.53049e-06,-7.54223e-05,6.286e-06,-2.80469e-06,1.16216e-05,3.40842e-05,0
-2.51221e-05,1.5324e-05,-4.95896e-06,-7.74637e-05,3.38432e-06,-2.36393e-06,1.23342e-05,3.28991e-05,0
-2.58267e-05,1.84203e-05,-6.40884e-06,-6.36617e-05,2.41013e-06,-3.65041e-06,1.36069e-05,2.31495e-05,0
-2.76017e-05,2.42552e-05,-5.84333e-06,-3.88979e-05,4.58512e-06,-5.37088e-06,1.44487e-05,4.87624e-06,0
-2.94034e-05,2.69937e-05,-3.13825e-06,-3.17121e-06,8.55594e-06,-4.74187e-06,1.55541e-05,-1.55346e-05,0
-3.04711e-05,2.43757e-05,-3.43458e-09,4.14915e-05,1.12103e-05,-3.48541e-06,1.71473e-05,-2.80244e-05,0
-3.1749e-05,1.81998e-05,1.02733e-06,7.86116e-05,1.33427e-05,-3.39695e-06,1.76169e-05,-3.07001e-05,0
-3.12895e-05,1.23612e-05,9.58493e-08,8.31795e-05,1.39361e-05,-3.62429e-06,1.63579e-05,-2.799e-05,0
-2.98336e-05,1.00986e-05,-3.32831e-06,5.56987e-05,1.339e-05,-3.25856e-06,1.39722e-05,-2.38561e-05,0
-2.90177e-05,1.1246e-05,-7.30202e-06,2.01236e-05,1.29401e-05,-2.35325e-06,1.29424e-05,-1.92363e-05,0
-2.82887e-05,1.22654e-05,-9.28255e-06,-5.7904e-07,1.3043e-05,-1.76498e-06,1.39725e-05,-1.15274e-05,0
-2.72872e-05,1.06716e-05,-9.58193e-06,2.11572e-06,1.44396e-05,-2.03988e-06,1.52857e-05,-3.93137e-06,0
-2.84359e-05,8.10936e-06,-1.0142e-05,1.99219e-05,1.76356e-05,-3.02546e-06,1.48747e-05,1.5099e-06,0
-3.12868e-05,7.11414e-06,-1.07563e-05,3.57582e-05,2.13639e-05,-4.20995e-06,1.37446e-05,4.33011e-06,0
-3.33487e-05,6.48928e-06,-9.27957e-06,3.5547e-05,2.30232e-05,-4.9525e-06,1.20733e-05,5.98329e-06,0
-3.38705e-05,5.19237e-06,-7.03098e-06,2.42269e-05,2.38484e-05,-5.15943e-06,1.0037e-05,5.63235e-06,0
-3.35746e-05,5.65845e-06,-6.21942e-06,1.55509e-05,2.52822e-05,-4.99381e-06,8.1311e-06,5.17008e-06,0
-3.3804e-05,8.107e-06,-6.11366e-06,1.4698e-05,2.68691e-05,-4.79663e-06,6.54482e-06,6.0397e-06,0
-3.36545e-05,1.11487e-05,-4.82852e-06,1.33393e-05,2.54896e-05,-4.6942e-06,5.66756e-06,8.10759e-06,0
-3.29699e-05,1.19733e-05,-3.38111e-06,6.88723e-06,2.06863e-05,-5.18105e-06,5.40455e-06,7.65757e-06,0
-3.24688e-05,1.04428e-05,-4.35048e-06,-9.24421e-07,1.52698e-05,-5.72017e-06,5.4715e-06,4.42558e-06,0
-3.25892e-05,8.7084e-06,-6.95208e-06,-5.69333e-06,1.35672e-05,-6.84435e-06,5.17343e-06,1.65604e-06,0
-3.32872e-05,8.6581e-06,-8.38178e-06,-7.38121e-06,1.55405e-05,-1.03081e-05,4.93578e-06,9.15229e-07,0
-3.4364e-05,7.6658e-06,-7.93831e-06,-7.9837e-06,1.69898e-05,-1.50614e-05,8.2259e-06,2.62396e-06,0
-3.5632e-05,2.85312e-06,-5.76921e-06,-9.74089e-06,1.60381e-05,-1.87237e-05,1.52313e-05,4.81266e-06,0
-3.65371e-05,-2.18751e-06,-4.2538e-06,-1.38755e-05,1.53146e-05,-1.9712e-05,2.21264e-05,2.4686e-06,0
-3.51828e-05,-3.31211e-06,-2.57535e-06,-1.89866e-05,1.4067e-05,-1.91846e-05,2.64187e-05,-1.29911e-06,0
-3.24418e-05,-2.94037e-06,8.86251e-08,-2.04641e-05,1.19211e-05,-1.87326e-05,2.60099e-05,-4.11711e-07,0
-3.1697e-05,-4.43217e-06,3.55456e-06,-1.93013e-05,1.26909e-05,-1.81019e-05,2.36644e-05,2.39761e-06,0
-3.22531e-05,-6.41387e-06,8.36801e-06,-1.81857e-05,1.57338e-05,-1.62881e-05,2.2108e-05,2.38609e-06,0
-3.26283e-05,-6.73972e-06,1.52526e-05,-1.74599e-05,1.79069e-05,-1.38529e-05,2.0557e-05,3.54426e-07,0
-3.30747e-05,-6.45437e-06,2.68268e-05,-1.63364e-05,1.7573e-05,-1.27838e-05,1.85728e-05,-1.32729e-06,0
-3.46651e-05,-8.84325e-06,4.28398e-05,-1.37196e-05,1.60927e-05,-1.31907e-05,1.66892e-05,-2.69188e-06,0
-3.71647e-05,-1.23389e-05,5.99958e-05,-1.11675e-05,1.66744e-05,-1.33696e-05,1.66397e-05,-7.30076e-07,0
-3.8664e-05,-1.37142e-05,6.92456e-05,-1.01643e-05,1.79015e-05,-1.28417e-05,2.0323e-05,3.20872e-06,0
-3.88766e-05,-1.23724e-05,6.1862e-05,-1.0914e-05,1.80945e-05,-1.21882e-05,2.38073e-05,6.7881e-06,0
-3.84923e-05,-8.99765e-06,3.47384e-05,-1.36412e-05,1.76641e-05,-1.12099e-05,2.28472e-05,7.37647e-06,0
-3.80028e-05,-4.82108e-06,-7.42713e-06,-1.91751e-05,1.64859e-05,-1.1385e-05,1.86981e-05,6.12162e-06,0
-3.59996e-05,-1.36453e-06,-5.46613e-05,-2.44202e-05,1.43792e-05,-1.24787e-05,1.3886e-05,4.07893e-06,0
-3.3068e-05,1.12455e-07,-9.44895e-05,-2.73722e-05,1.25797e-05,-1.33712e-05,1.02225e-05,2.40106e-06,0
-3.0567e-05,4.02112e-07,-0.000114438,-2.78269e-05,1.35726e-05,-1.4221e-05,8.96914e-06,2.30679e-06,0
-2.90967e-05,3.83478e-07,-0.000111039,-2.78913e-05,1.61632e-05,-1.57459e-05,1.02703e-05,2.27254e-06,0
-2.99039e-05,7.46327e-07,-9.23727e-05,-2.73868e-05,1.85459e-05,-1.66436e-05,1.26239e-05,1.50019e-06,0
-3.2953e-05,3.433e-06,-7.10418e-05,-2.53202e-05,1.94197e-05,-1.60978e-05,1.43689e-05,9.87752e-07,0
-3.58836e-05,9.70869e-06,-5.55888e-05,-2.17378e-05,1.95829e-05,-1.69409e-05,1.46392e-05,2.68724e-06,0
-3.63633e-05,1.87062e-05,-4.56108e-05,-1.92276e-05,1.82775e-05,-1.97295e-05,1.42493e-05,4.9577e-06,0
-3.59386e-05,2.72471e-05,-3.70602e-05,-1.85055e-05,1.51416e-05,-2.20788e-05,1.39517e-05,5.81967e-06,0
-3.69419e-05,3.22985e-05,-2.7827e-05,-1.96844e-05,1.29003e-05,-2.14706e-05,1.43669e-05,5.21298e-06,0
-3.85241e-05,3.30515e-05,-1.75333e-05,-2.16142e-05,1.25638e-05,-1.93975e-05,1.57265e-05,3.21857e-06,0
-3.77846e-05,2.95567e-05,-9.7384e-06,-2.19104e-05,1.22302e-05,-1.87531e-05,1.60904e-05,1.27225e-06,0
-3.40194e-05,2.19338e-05,-5.68272e-06,-2.38645e-05,1.1666e-05,-1.90641e-05,1.55439e-05,1.55183e-06,0
-3.11217e-05,1.26384e-05,-3.0366e-06,-2.57535e-05,1.18168e-05,-1.99309e-05,1.5954e-05,1.63083e-06,0
-3.2364e-05,5.01422e-06,-9.07904e-07,-2.12573e-05,1.30849e-05,-1.96273e-05,1.45804e-05,-2.24045e-07,0
-3.39431e-05,-2.60633e-06,6.74667e-07,-1.09896e-05,1.31443e-05,-1.86521e-05,1.13767e-05,-2.96698e-06,0
-3.29539e-05,-9.63172e-06,2.46064e-06,2.48812e-06,1.28827e-05,-2.06976e-05,1.01571e-05,-3.69277e-06,0
-3.04433e-05,-1.27891e-05,1.90634e-06,1.3244e-05,1.30059e-05,-2.4144e-05,1.0952e-05,-2.04449e-06,0
-2.7247e-05,-1.19447e-05,8.45575e-07,1.50733e-05,1.29449e-05,-2.57368e-05,1.06316e-05,-8.84747e-07,0
-2.61709e-05,-9.64883e-06,2.27571e-06,1.01233e-05,1.37675e-05,-2.39936e-05,5.74958e-06,-8.72639e-07,0
-2.70073e-05,-9.04325e-06,4.96203e-06,8.02538e-07,1.21893e-05,-2.17256e-05,-4.96261e-06,-2.00127e-07,0
-2.71761e-05,-7.4437e-06,6.82329e-06,-1.02e-05,1.2412e-05,-1.99009e-05,-1.33528e-05,7.6999e-07,0
-2.6032e-05,-4.78383e-06,4.75976e-06,-2.39772e-05,1.69345e-05,-1.86606e-05,-1.17608e-05,5.80701e-07,0
-2.44598e-05,-3.20347e-06,-3.64801e-08,-4.03196e-05,2.09803e-05,-1.77637e-05,3.14224e-07,7.66569e-08,0
-2.3834e-05,-1.8075e-06,-4.35454e-06,-5.32993e-05,2.01025e-05,-1.56774e-05,1.96954e-05,4.78481e-07,0
-2.43166e-05,1.94559e-06,-4.81478e-06,-5.69508e-05,1.65563e-05,-1.33618e-05,3.84264e-05,2.54571e-06,0
-2.52407e-05,6.89752e-06,-1.77454e-06,-5.6015e-05,1.57651e-05,-1.25477e-05,5.16193e-05,3.90662e-06,0
-2.63724e-05,9.18539e-06,2.05039e-06,-5.61758e-05,1.69034e-05,-1.26449e-05,5.85102e-05,4.05642e-06,0
-2.8144e-05,8.7492e-06,5.3468e-06,-5.02656e-05,1.75133e-05,-1.15371e-05,5.80936e-05,3.60951e-06,0
-2.98144e-05,7.76e-06,7.41518e-06,-3.13921e-05,1.70379e-05,-9.9579e-06,5.01815e-05,2.63996e-06,0
-3.09266e-05,7.90852e-06,7.51259e-06,-5.09705e-06,1.64238e-05,-8.97139e-06,3.98686e-05,6.8655e-07,0
-3.13151e-05,8.69317e-06,7.31738e-06,1.70207e-05,1.57539e-05,-7.81868e-06,3.0729e-05,-1.51523e-06,0
-3.04729e-05,9.24877e-06,8.95494e-06,2.92737e-05,1.51229e-05,-5.52687e-06,2.12442e-05,-1.85363e-06,0
-2.7667e-05,9.37919e-06,1.03855e-05,3.02444e-05,1.40627e-05,-4.47761e-06,1.06101e-05,-1.85602e-06,0
-2.45889e-05,1.05299e-05,9.9153e-06,2.12137e-05,1.20786e-05,-5.43745e-06,1.61037e-07,-2.17624e-06,0
-2.34836e-05,1.35126e-05,9.71309e-06,1.00924e-05,1.09011e-05,-6.63091e-06,-9.42775e-06,-8.74094e-07,0
-2.37368e-05,1.6721e-05,1.03669e-05,4.64619e-06,1.23471e-05,-5.46178e-06,-1.58138e-05,1.46534e-06,0
-2.50799e-05,1.67532e-05,9.72082e-06,1.76201e-06,1.42305e-05,-2.17296e-06,-1.68194e-05,2.07424e-06,0
-2.71527e-05,1.52328e-05,8.14639e-06,-2.93025e-06,1.45272e-05,-4.9575e-07,-1.37313e-05,1.08139e-06,0
-2.82427e-05,1.69101e-05,6.51911e-06,-9.25548e-06,1.36539e-05,-1.16601e-06,-9.48617e-06,3.35205e-07,0
-2.74199e-05,2.01182e-05,3.44393e-06,-1.36997e-05,1.23559e-05,-1.78372e-06,-7.38927e-06,4.84771e-07,0
-2.57829e-05,2.11529e-05,3.53455e-07,-1.31581e-05,1.29905e-05,-3.66775e-06,-8.33408e-06,3.82715e-07,0
-2.66453e-05,1.89045e-05,1.98062e-08,-7.57165e-06,1.45271e-05,-5.50731e-06,-9.79856e-06,3.40206e-08,0
-2.82947e-05,1.70314e-05,2.83105e-07,-8.80114e-07,1.2848e-05,-5.50837e-06,-1.06959e-05,-9.00269e-07,0
-2.85689e-05,1.66583e-05,-1.49839e-06,3.0674e-06,9.75775e-06,-5.56413e-06,-8.09403e-06,-1.5527e-06,0
-2.76071e-05,1.53879e-05,-2.89269e-06,3.9304e-06,1.04207e-05,-5.28594e-06,-1.34871e-06,-2.14049e-06,0
-2.65822e-05,1.48664e-05,-1.08179e-06,5.00166e-06,1.32262e-05,-5.63159e-06,4.64995e-06,-3.11497e-06,0
-2.72513e-05,1.53838e-05,2.27254e-06,7.10465e-06,1.41938e-05,-7.00913e-06,9.52414e-06,-3.13193e-06,0
-2.7208e-05,1.83078e-05,3.35813e-06,8.01777e-06,1.40462e-05,-8.2302e-06,1.12407e-05,-4.24074e-06,0
-2.70181e-05,2.06477e-05,1.55584e-06,8.18539e-06,1.50831e-05,-7.70184e-06,9.04217e-06,-5.04312e-06,0
-2.71087e-05,2.04542e-05,-1.4668e-06,5.61843e-06,1.57701e-05,-5.69439e-06,6.44382e-06,-4.06553e-06,0
-2.78988e-05,1.8616e-05,-5.08918e-06,1.87682e-06,1.42343e-05,-5.10312e-06,6.83197e-06,-3.43049e-06,0
-2.86287e-05,1.49227e-05,-8.52813e-06,-1.30649e-06,1.31059e-05,-6.55332e-06,8.75604e-06,-3.53439e-06,0
-2.92296e-05,1.24683e-05,-1.08692e-05,-4.09936e-06,1.33763e-05,-6.63459e-06,9.99336e-06,-3.37013e-06,0
-2.94528e-05,1.38417e-05,-1.09987e-05,-6.50365e-06,1.32185e-05,-3.84547e-06,1.05332e-05,-2.1947e-06,0
-2.9016e-05,1.69674e-05,-9.47779e-06,-9.33521e-06,1.14303e-05,-4.32623e-07,1.04473e-05,4.69575e-08,0
-2.9609e-05,1.80541e-05,-8.61569e-06,-1.28859e-05,1.00888e-05,1.24578e-06,1.12611e-05,1.36562e-06,0
-3.12464e-05,1.72537e-05,-1.02838e-05,-1.30407e-05,1.00072e-05,9.89683e-07,1.26141e-05,5.35314e-07,0
-3.32082e-05,1.57689e-05,-1.29812e-05,9.26613e-07,9.91194e-06,4.03954e-07,1.2986e-05,-7.59679e-07,0
-3.43984e-05,1.58443e-05,-1.48472e-05,3.22305e-05,9.49137e-06,9.6508e-08,1.13801e-05,1.05132e-06,0
-3.55944e-05,1.81705e-05,-1.74736e-05,6.13205e-05,7.93433e-06,-2.80695e-07,8.871e-06,8.65292e-06,0
-3.61384e-05,2.19803e-05,-2.19352e-05,6.3321e-05,5.94995e-06,-9.53708e-07,8.04797e-06,1.77563e-05,0
-3.49411e-05,2.41761e-05,-2.56185e-05,3.78877e-05,5.00295e-06,-2.48697e-06,8.65171e-06,1.94593e-05,0
-3.2764e-05,2.38721e-05,-2.60458e-05,4.60011e-06,5.29603e-06,-4.59525e-06,7.03871e-06,1.30682e-05,0
-3.18452e-05,2.35061e-05,-2.37055e-05,-1.75942e-05,7.62441e-06,-5.92781e-06,5.37502e-06,6.06204e-06,0
-3.17363e-05,2.54219e-05,-2.07195e-05,-2.5261e-05,1.1081e-05,-5.40948e-06,6.59875e-06,1.37748e-06,0
-3.14239e-05,3.16591e-05,-1.89137e-05,-2.90385e-05,1.32067e-05,-3.13054e-06,9.13636e-06,-1.56078e-06,0
-3.1656e-05,4.11603e-05,-1.72195e-05,-3.6483e-05,1.49398e-05,-2.18395e-06,1.15455e-05,-2.96504e-06,0
-3.15044e-05,4.71573e-05,-1.40078e-05,-4.66703e-05,1.53804e-05,-3.9823e-06,1.36895e-05,-2.79514e-06,0
-2.87952e-05,4.65521e-05,-1.11555e-05,-5.82497e-05,1.4398e-05,-5.95246e-06,1.54436e-05,-2.85983e-06,0
-2.66966e-05,4.6397e-05,-1.06846e-05,-6.63985e-05,1.43264e-05,-7.3527e-06,1.60623e-05,-4.15023e-06,0
-2.7759e-05,4.97901e-05,-1.165e-05,-6.36134e-05,1.66942e-05,-7.86387e-06,1.46605e-05,-4.6823e-06,0
-2.77574e-05,5.36294e-05,-1.31685e-05,-4.84941e-05,2.06488e-05,-7.63559e-06,1.1659e-05,-4.44367e-06,0
-2.58545e-05,5.63034e-05,-1.41379e-05,-3.12804e-05,2.36269e-05,-6.87164e-06,7.65424e-06,-4.23823e-06,0
-2.43217e-05,5.4281e-05,-1.41441e-05,-2.20067e-05,2.28253e-05,-5.82817e-06,3.78868e-06,-4.40536e-06,0
-2.46076e-05,4.79197e-05,-1.29845e-05,-1.7423e-05,1.94428e-05,-5.52982e-06,2.52768e-06,-4.05367e-06,0
-2.69041e-05,4.09743e-05,-1.0507e-05,-1.27119e-05,1.71178e-05,-5.15941e-06,3.2084e-06,-2.75356e-06,0
-2.94861e-05,4.1106e-05,-7.33722e-06,-8.97394e-06,1.43818e-05,-4.83265e-06,4.66266e-06,-1.79893e-06,0
-3.0041e-05,5.15566e-05,-4.06897e-06,-8.58584e-06,1.0962e-05,-5.58051e-06,5.97895e-06,-4.68969e-07,0
-2.93621e-05,6.38362e-05,-2.43191e-06,-1.10429e-05,8.06374e-06,-6.38968e-06,8.19982e-06,1.27665e-06,0
-2.83666e-05,7.1716e-05,-2.18746e-06,-1.56787e-05,6.11409e-06,-6.45902e-06,1.09753e-05,2.37871e-06,0
-2.64527e-05,7.11958e-05,-2.45771e-06,-2.07985e-05,5.63875e-06,-6.31791e-06,1.26075e-05,2.65299e-06,0
-2.47864e-05,6.14202e-05,-4.82853e-06,-2.39462e-05,6.38145e-06,-6.2027e-06,1.08421e-05,2.01888e-06,0
-2.49275e-05,4.92454e-05,-1.06767e-05,-2.47628e-05,5.75734e-06,-6.58185e-06,3.1659e-06,1.53077e-06,0
-2.64149e-05,4.4184e-05,-1.75378e-05,-2.33634e-05,3.38711e-06,-7.95347e-06,-8.05524e-06,1.82986e-06,0
-2.7332e-05,4.26482e-05,-2.13072e-05,-2.01285e-05,2.59872e-06,-9.58826e-06,-1.61019e-05,2.27565e-06,0
-2.69718e-05,3.58156e-05,-2.0404e-05,-1.648e-05,4.96735e-06,-9.62975e-06,-1.67601e-05,1.69471e-06,0
-2.57408e-05,2.15093e-05,-1.55478e-05,-1.48047e-05,7.45153e-06,-9.18346e-06,-1.20427e-05,9.24803e-07,0
-2.53593e-05,3.11866e-06,-9.90058e-06,-1.55724e-05,6.41444e-06,-1.08576e-05,-5.13642e-06,6.31538e-07,0
-2.7254e-05,-1.53121e-05,-6.91878e-06,-1.66477e-05,2.97068e-06,-1.36436e-05,2.04858e-06,4.64662e-07,0
-3.06518e-05,-3.16482e-05,-8.1908e-06,-1.42802e-05,-5.69711e-08,-1.55426e-05,9.20091e-06,1.25551e-06,0
-3.22015e-05,-4.37968e-05,-1.16321e-05,-7.46868e-06,-2.73341e-07,-1.64974e-05,1.5875e-05,3.18581e-06,0
-3.04506e-05,-4.97594e-05,-1.41003e-05,-1.09455e-06,3.18015e-06,-1.52994e-05,2.11255e-05,4.75992e-06,0
-2.87375e-05,-4.81283e-05,-1.55851e-05,2.90882e-06,6.59332e-06,-1.39462e-05,2.54358e-05,4.5106e-06,0
-3.01584e-05,-4.22504e-05,-1.69723e-05,5.05142e-06,6.66559e-06,-1.5108e-05,2.9152e-05,4.54387e-06,0
-3.31835e-05,-3.49665e-05,-1.76491e-05,6.3956e-06,5.90136e-06,-1.73248e-05,3.09264e-05,5.5068e-06,0
-3.59515e-05,-2.82292e-05,-1.65535e-05,6.56701e-06,4.53831e-06,-1.85197e-05,3.08837e-05,3.46221e-06,0
-3.92182e-05,-2.21281e-05,-1.39594e-05,5.196e-06,3.85622e-06,-1.81411e-05,2.93372e-05,-1.33384e-06,0
-3.99924e-05,-1.49153e-05,-1.0902e-05,6.23817e-06,6.48355e-06,-1.72837e-05,2.90328e-05,-4.19845e-06,0
-3.72794e-05,-6.04246e-06,-9.35589e-06,7.01168e-06,1.02545e-05,-1.64752e-05,2.99147e-05,-3.96111e-06,0
-3.48923e-05,4.65983e-06,-1.00575e-05,6.54686e-06,1.43461e-05,-1.58234e-05,3.00222e-05,-1.14993e-06,0
-3.44917e-05,1.24253e-05,-9.94178e-06,5.95397e-06,1.56166e-05,-1.54383e-05,3.09179e-05,3.01046e-06,0
-3.51175e-05,1.60797e-05,-1.0262e-05,6.55436e-06,1.42663e-05,-1.61019e-05,3.16681e-05,6.3185e-06,0
-3.54385e-05,1.51015e-05,-1.40638e-05,6.60313e-06,1.45777e-05,-1.5499e-05,2.93799e-05,9.29399e-06,0
-3.52193e-05,9.98822e-06,-1.86092e-05,2.21635e-06,1.54862e-05,-1.35927e-05,2.52405e-05,1.12177e-05,0
-3.53346e-05,5.71356e-06,-2.11408e-05,-1.52927e-06,1.66652e-05,-1.11062e-05,2.23645e-05,1.10268e-05,0
-3.66551e-05,4.78367e-06,-2.07477e-05,-1.53095e-06,1.81138e-05,-9.26192e-06,2.11105e-05,9.76962e-06,0
-3.76249e-05,6.596e-06,-1.91072e-05,-2.72561e-07,2.00331e-05,-9.1004e-06,2.1771e-05,8.11196e-06,0
-3.60801e-05,7.02611e-06,-1.8026e-05,-5.58722e-07,2.13216e-05,-1.04575e-05,2.29197e-05,6.45523e-06,0
-3.39501e-05,4.82986e-06,-1.74867e-05,-1.80149e-06,2.02566e-05,-1.26565e-05,2.24866e-05,4.78876e-06,0
-3.32106e-05,2.97813e-06,-1.73032e-05,-2.30321e-06,1.82214e-05,-1.29845e-05,2.10131e-05,2.97561e-06,0
-3.23661e-05,4.78624e-06,-1.68293e-05,-2.34203e-06,1.77166e-05,-1.25296e-05,2.07899e-05,2.49183e-08,0
-3.09303e-05,8.01961e-06,-1.53161e-05,-3.17348e-06,1.8835e-05,-1.20751e-05,2.05883e-05,-3.51911e-06,0
-2.96076e-05,1.12313e-05,-1.25823e-05,-3.72808e-06,1.95022e-05,-1.12994e-05,1.89169e-05,-5.71676e-06,0
-2.79915e-05,1.5755e-05,-8.9921e-06,-1.19565e-06,2.01255e-05,-9.59598e-06,1.77044e-05,-5.67116e-06,0
-2.63654e-05,2.33901e-05,-6.09803e-06,3.43091e-06,2.25379e-05,-8.21691e-06,1.81822e-05,-3.32462e-06,0
-2.57992e-05,3.39961e-05,-4.85567e-06,4.88492e-06,2.72756e-05,-7.96463e-06,1.81776e-05,-1.62433e-06,0
-2.50488e-05,4.16721e-05,-2.7937e-06,2.74682e-06,3.17492e-05,-8.82615e-06,1.67941e-05,-2.72361e-06,0
-2.43291e-05,4.1727e-05,6.73941e-07,4.62897e-08,3.26087e-05,-1.16941e-05,1.45484e-05,-3.21679e-06,0
-2.45499e-05,3.66641e-05,1.92927e-06,-1.67307e-06,2.95275e-05,-1.51507e-05,1.18836e-05,-2.48916e-06,0
-2.50903e-05,2.98836e-05,-1.16559e-06,-3.28229e-06,2.55618e-05,-1.51684e-05,9.95911e-06,-2.0389e-06,0
-2.71765e-05,2.10736e-05,-3.87628e-06,-4.31475e-06,2.35312e-05,-1.4005e-05,8.07176e-06,5.33659e-07,0
-2.90411e-05,9.39337e-06,-5.21745e-06,3.41152e-06,2.22404e-05,-1.54057e-05,7.60271e-06,3.16278e-06,0
-2.95639e-05,-3.81538e-09,-6.05606e-06,2.05516e-05,2.08679e-05,-1.65633e-05,7.28978e-06,2.42688e-06,0
-2.92926e-05,-4.98187e-06,-4.46015e-06,3.47316e-05,1.95408e-05,-1.56136e-05,5.74469e-06,3.72415e-07,0
-2.69439e-05,-6.2248e-06,-2.88218e-06,3.82008e-05,1.69954e-05,-1.31552e-05,4.02256e-06,-1.45907e-08,0
-2.43035e-05,-3.50378e-06,-1.0216e-06,3.62308e-05,1.31528e-05,-1.173e-05,3.58353e-06,2.89896e-07,0
-2.44436e-05,-9.82922e-07,8.52316e-07,3.41457e-05,8.36857e-06,-1.21642e-05,5.58465e-06,3.0068e-07,0
-2.56355e-05,1.68737e-06,8.88777e-09,3.21787e-05,4.63627e-06,-1.32193e-05,8.31208e-06,1.02042e-06,0
-2.4873e-05,4.02272e-06,-3.05491e-06,2.62504e-05,4.42897e-06,-1.30313e-05,1.06767e-05,7.57476e-07,0
-2.50772e-05,6.37701e-06,-5.90028e-06,1.38425e-05,7.68853e-06,-1.1052e-05,1.08576e-05,-5.00048e-07,0
-2.56699e-05,1.02928e-05,-8.94806e-06,6.31723e-07,9.48925e-06,-8.65002e-06,9.98645e-06,-1.39795e-06,0
-2.43351e-05,1.58052e-05,-1.07419e-05,-1.04423e-05,9.3358e-06,-6.73014e-06,9.91678e-06,-3.84627e-08,0
-2.29908e-05,1.90253e-05,-9.88143e-06,-1.92182e-05,1.09014e-05,-5.79625e-06,1.12939e-05,3.1166e-06,0
-2.42635e-05,1.76538e-05,-8.24028e-06,-2.57572e-05,1.43267e-05,-5.53831e-06,1.35954e-05,5.9868e-06,0
-2.68817e-05,1.44815e-05,-7.1422e-06,-2.76947e-05,1.62565e-05,-5.81972e-06,1.49034e-05,7.62221e-06,0
-2.77924e-05,1.06038e-05,-6.91771e-06,-2.42635e-05,1.44159e-05,-5.68088e-06,1.48444e-05,7.33298e-06,0
-2.74573e-05,6.35546e-06,-5.87648e-06,-1.67598e-05,1.09234e-05,-4.47656e-06,1.56667e-05,5.81704e-06,0
-2.738e-05,4.09923e-06,-3.65843e-06,-1.00279e-05,8.70295e-06,-4.09868e-06,1.83211e-05,3.72444e-06,0
-2.8114e-05,5.09676e-06,-2.37452e-06,-8.82194e-06,9.36258e-06,-5.19976e-06,1.96183e-05,2.2753e-06,0
-2.8741e-05,7.09061e-06,-3.82286e-06,-9.22666e-06,1.11385e-05,-6.27884e-06,1.84379e-05,9.93463e-07,0
-2.95836e-05,8.3955e-06,-6.9057e-06,-6.78845e-06,1.31761e-05,-6.53966e-06,1.64576e-05,-1.53127e-06,0
-3.08729e-05,6.1988e-06,-8.97541e-06,-1.4056e-06,1.42178e-05,-6.72855e-06,1.57014e-05,-4.03115e-06,0
-3.04468e-05,6.85428e-07,-8.80945e-06,5.91274e-06,1.43199e-05,-7.11593e-06,1.60464e-05,-5.55599e-06,0
-2.86481e-05,-4.79039e-06,-9.08576e-06,1.40059e-05,1.69905e-05,-6.30731e-06,1.68597e-05,-7.12756e-06,0
-2.8237e-05,-8.37825e-06,-1.0603e-05,2.03235e-05,2.0046e-05,-4.62122e-06,1.74207e-05,-7.09393e-06,0
-2.82503e-05,-1.00949e-05,-1.20153e-05,2.03837e-05,1.84073e-05,-3.47807e-06,1.65523e-05,-5.59263e-06,0
-2.90065e-05,-1.08279e-05,-1.22202e-05,1.19858e-05,1.48321e-05,-1.98463e-06,1.52523e-05,-4.44534e-06,0
-3.02621e-05,-1.09758e-05,-1.1084e-05,1.8636e-06,1.29344e-05,-1.28386e-06,1.48403e-05,-4.73905e-06,0
-3.21097e-05,-1.20896e-05,-1.07745e-05,-5.99015e-06,1.29071e-05,-2.3491e-06,1.45833e-05,-5.79647e-06,0
-3.26302e-05,-1.49197e-05,-1.21973e-05,-6.74546e-06,1.42634e-05,-4.23014e-06,1.46124e-05,-5.66996e-06,0
-3.18243e-05,-1.47025e-05,-1.24255e-05,-1.9889e-06,1.6196e-05,-4.45054e-06,1.51079e-05,-4.69255e-06,0
-3.18593e-05,-1.03438e-05,-1.21224e-05,-4.08192e-07,1.58009e-05,-4.01714e-06,1.58375e-05,-4.22734e-06,0
-3.02388e-05,-4.00351e-06,-1.22433e-05,-3.78756e-06,1.3625e-05,-4.5689e-06,1.55012e-05,-3.98045e-06,0
-2.93531e-05,2.70664e-06,-1.09809e-05,-7.60996e-06,1.21252e-05,-5.35038e-06,1.35129e-05,-3.36346e-06,0
-2.98773e-05,7.21512e-06,-1.00981e-05,-8.93454e-06,9.87794e-06,-6.998e-06,1.07035e-05,-2.96313e-06,0
-2.983e-05,9.8089e-06,-9.69199e-06,-8.68273e-06,8.64146e-06,-7.98328e-06,9.30947e-06,-2.02549e-06,0
-2.96024e-05,1.17836e-05,-9.64871e-06,-5.90098e-06,9.88657e-06,-7.58603e-06,9.78371e-06,-8.68124e-07,0
-2.99967e-05,1.36491e-05,-1.07583e-05,-3.71542e-06,1.11451e-05,-5.49709e-06,1.05987e-05,-1.04756e-06,0
-3.09287e-05,1.53181e-05,-1.29239e-05,-5.03086e-06,1.16756e-05,-2.96697e-06,1.30273e-05,-1.63991e-06,0
-3.18743e-05,1.78395e-05,-1.42046e-05,-7.16507e-06,1.20822e-05,-6.52178e-07,1.63544e-05,-1.56565e-06,0
-3.18756e-05,2.07253e-05,-1.35667e-05,-7.3911e-06,1.29435e-05,-2.12381e-07,1.84253e-05,-1.38292e-06,0
-3.02905e-05,2.28239e-05,-1.14946e-05,-6.78725e-06,1.43216e-05,-1.60693e-06,1.8178e-05,-1.86418e-06,0
-2.89368e-05,2.42511e-05,-9.49696e-06,-6.56692e-06,1.53637e-05,-3.46001e-06,1.61668e-05,-3.37335e-06,0
-2.86863e-05,2.39441e-05,-9.2402e-06,-6.38908e-06,1.47937e-05,-5.39667e-06,1.46342e-05,-4.65807e-06,0
-2.92708e-05,2.17859e-05,-9.55462e-06,-5.26275e-06,1.15874e-05,-7.32861e-06,1.51907e-05,-5.39453e-06,0
-3.08965e-05,1.87256e-05,-9.72901e-06,-4.83531e-06,6.9082e-06,-8.37525e-06,1.67817e-05,-4.79549e-06,0
-3.21617e-05,1.52026e-05,-9.53139e-06,-6.29909e-06,2.80295e-06,-7.90841e-06,1.77693e-05,-3.15142e-06,0
-3.14119e-05,1.2784e-05,-7.90659e-06,-8.46316e-06,6.09062e-07,-8.20362e-06,1.88228e-05,-1.0271e-06,0
-3.01136e-05,1.326e-05,-6.3917e-06,-8.16397e-06,1.04525e-06,-9.25862e-06,2.3133e-05,1.14081e-06,0
-3.01719e-05,1.4932e-05,-7.4183e-06,-4.50211e-06,5.05208e-06,-9.87361e-06,2.98899e-05,2.338e-06,0
-3.13632e-05,1.47733e-05,-1.04771e-05,-1.13991e-06,1.11187e-05,-9.60225e-06,3.50353e-05,3.15214e-06,0
-3.34158e-05,1.41352e-05,-1.29413e-05,1.19487e-07,1.73604e-05,-9.60705e-06,3.58125e-05,3.63163e-06,0
-3.45448e-05,1.55294e-05,-1.35758e-05,1.50454e-07,2.13833e-05,-8.95522e-06,3.19747e-05,4.1641e-06,0
-3.46783e-05,1.73089e-05,-1.37124e-05,1.16906e-06,2.12512e-05,-8.0231e-06,2.41968e-05,4.98291e-06,0
-3.37548e-05,1.84646e-05,-1.30641e-05,4.15604e-06,1.88368e-05,-7.33721e-06,1.63912e-05,4.93433e-06,0
-3.08033e-05,2.04043e-05,-9.66517e-06,6.75121e-06,1.61359e-05,-6.02942e-06,9.83503e-06,1.80264e-06,0
-2.84908e-05,2.13672e-05,-4.24237e-06,5.67029e-06,1.2996e-05,-4.82773e-06,3.41555e-06,-1.95482e-06,0
-2.76789e-05,2.09999e-05,-1.11801e-06,2.99511e-06,1.11038e-05,-6.03175e-06,-2.07906e-06,-2.25431e-06,0
-2.82204e-05,2.07457e-05,-6.93652e-07,5.48822e-07,1.02764e-05,-8.03692e-06,-7.67493e-06,-4.12341e-07,0
-2.74892e-05,2.04876e-05,-2.5311e-06,-8.87972e-07,8.94407e-06,-8.19662e-06,-9.89042e-06,1.87807e-06,0
-2.6616e-05,1.89323e-05,-4.74181e-06,3.99378e-07,7.6995e-06,-7.79625e-06,-9.80457e-06,2.75663e-06,0
-2.70239e-05,1.62156e-05,-4.86139e-06,6.85718e-07,5.74701e-06,-8.33723e-06,-8.88542e-06,2.61522e-06,0
-2.61384e-05,1.48972e-05,-4.50025e-06,-8.95893e-07,4.92399e-06,-1.00541e-05,-6.67521e-06,2.11891e-06,0
-2.58509e-05,1.53569e-05,-5.28387e-06,-2.41071e-06,6.2924e-06,-1.09568e-05,-3.49988e-06,1.59746e-06,0
-2.73251e-05,1.67467e-05,-8.1781e-06,-2.87628e-06,7.33122e-06,-1.12724e-05,-8.99347e-07,1.36492e-06,0
-2.9462e-05,1.76339e-05,-9.50159e-06,-1.96479e-06,9.03709e-06,-1.15785e-05,1.18857e-06,1.04034e-06,0
-3.06253e-05,1.79681e-05,-9.12841e-06,-5.17078e-07,1.19932e-05,-1.16098e-05,3.49311e-06,1.69471e-06,0
-3.05096e-05,1.85688e-05,-9.37503e-06,1.11225e-07,1.47439e-05,-1.09311e-05,5.68774e-06,2.10294e-06,0
-2.97587e-05,2.01438e-05,-9.30998e-06,3.30998e-07,1.65293e-05,-1.02181e-05,7.70388e-06,1.51226e-06,0
-3.01712e-05,2.23614e-05,-6.96123e-06,1.51206e-06,1.72511e-05,-9.16463e-06,8.02389e-06,1.19414e-06,0
-3.20622e-05,2.48475e-05,-3.14661e-06,2.21689e-06,1.62333e-05,-8.29567e-06,8.50595e-06,1.50885e-06,0
-3.34267e-05,2.71008e-05,-4.81349e-07,1.47785e-06,1.28946e-05,-9.22008e-06,1.01731e-05,1.17701e-06,0
-3.30325e-05,2.75366e-05,3.62626e-07,9.08738e-07,9.60595e-06,-1.12913e-05,1.19993e-05,5.53624e-07,0
-3.16378e-05,2.543e-05,-1.64023e-07,1.03546e-06,9.76451e-06,-1.19553e-05,1.15477e-05,4.1688e-07,0
-3.11873e-05,2.32887e-05,-1.32126e-06,-2.88169e-06,1.48227e-05,-9.59608e-06,1.03628e-05,1.78395e-07,0
-3.18259e-05,2.23147e-05,-3.80777e-06,-1.19172e-05,1.96464e-05,-6.82812e-06,1.03113e-05,-4.05539e-08,0
-3.20899e-05,2.04153e-05,-6.02438e-06,-2.10431e-05,1.84955e-05,-5.96311e-06,1.20614e-05,1.33869e-06,0
-3.07972e-05,1.90505e-05,-6.94849e-06,-2.61028e-05,1.37654e-05,-6.44926e-06,1.36145e-05,1.89754e-06,0
-2.92169e-05,2.08695e-05,-6.96048e-06,-2.60078e-05,1.16014e-05,-6.10602e-06,1.31502e-05,1.25746e-06,0
-2.99835e-05,2.52064e-05,-6.70094e-06,-2.15337e-05,1.20009e-05,-4.79864e-06,1.27179e-05,2.4079e-06,0
-3.29045e-05,2.77083e-05,-5.65018e-06,-1.37172e-05,1.45204e-05,-4.19412e-06,1.4131e-05,5.57725e-06,0
-3.55773e-05,2.67938e-05,-3.51877e-06,-2.77459e-06,1.76536e-05,-4.79282e-06,1.58722e-05,8.49494e-06,0
-3.54875e-05,2.23408e-05,-3.90299e-06,8.25898e-06,1.91371e-05,-6.15932e-06,1.62744e-05,8.89333e-06,0
-3.33432e-05,1.84639e-05,-4.43556e-06,1.58057e-05,1.91696e-05,-8.26297e-06,1.73443e-05,9.15515e-06,0
-3.14054e-05,1.68878e-05,-4.00501e-06,1.68782e-05,1.85687e-05,-9.60878e-06,1.9566e-05,9.41316e-06,0
-3.04287e-05,1.52647e-05,-5.3168e-06,1.35672e-05,1.91846e-05,-9.02013e-06,2.01366e-05,8.52133e-06,0
-2.99489e-05,1.43044e-05,-4.87838e-06,1.19756e-05,1.95644e-05,-7.79251e-06,1.93745e-05,6.25744e-06,0
-3.08427e-05,1.47031e-05,-3.50489e-06,1.36353e-05,1.9196e-05,-8.30777e-06,1.81197e-05,5.68468e-06,0
-3.31661e-05,1.67511e-05,-3.61035e-06,1.7085e-05,1.79568e-05,-9.38543e-06,1.63057e-05,1.39975e-05,0
-3.33219e-05,1.83042e-05,-3.40272e-06,1.96163e-05,1.60627e-05,-9.12316e-06,1.55792e-05,2.85673e-05,0
-3.20631e-05,2.27096e-05,-2.74467e-06,1.89254e-05,1.38603e-05,-8.11748e-06,1.42445e-05,3.78312e-05,0
-3.04342e-05,2.97971e-05,-3.54766e-06,1.28706e-05,1.15784e-05,-7.49251e-06,1.21942e-05,3.91068e-05,0
-2.96712e-05,3.46888e-05,-5.00216e-06,5.10502e-06,9.77344e-06,-8.54732e-06,1.05866e-05,3.34116e-05,0
-3.04757e-05,3.47405e-05,-5.46924e-06,-2.26801e-06,8.63589e-06,-9.81391e-06,1.06636e-05,1.89274e-05,0
-3.17338e-05,3.11163e-05,-4.67013e-06,-1.11354e-05,8.00921e-06,-1.06978e-05,1.2371e-05,-1.3578e-06,0
-3.25585e-05,2.81932e-05,-4.23318e-06,-1.92367e-05,7.56463e-06,-1.17398e-05,1.47732e-05,-2.00679e-05,0
-3.29009e-05,2.7058e-05,-5.13116e-06,-2.09692e-05,7.99696e-06,-1.15532e-05,1.51487e-05,-3.06756e-05,0
-3.32484e-05,2.589e-05,-5.99362e-06,-1.72091e-05,9.14342e-06,-9.45356e-06,1.30081e-05,-3.24822e-05,0
-3.2718e-05,2.33767e-05,-5.47649e-06,-1.60746e-05,9.14106e-06,-8.03185e-06,1.10334e-05,-2.90431e-05,0
-3.16111e-05,2.04223e-05,-3.83983e-06,-2.3031e-05,7.45758e-06,-9.09382e-06,1.07416e-05,-2.38052e-05,0
-3.13821e-05,1.67943e-05,-3.12838e-06,-3.5783e-05,5.61627e-06,-1.20942e-05,1.1257e-05,-1.67112e-05,0
-3.26886e-05,1.19001e-05,-4.31715e-06,-4.50246e-05,3.59359e-06,-1.51148e-05,1.03218e-05,-8.28168e-06,0
-3.37252e-05,5.03937e-06,-6.89351e-06,-4.44227e-05,2.35785e-06,-1.60723e-05,9.14474e-06,-1.72054e-06,0
-3.3391e-05,-2.80349e-06,-8.88274e-06,-3.65587e-05,2.90956e-06,-1.50994e-05,9.26363e-06,1.88563e-06,0
-3.28181e-05,-7.7366e-06,-1.1255e-05,-2.68954e-05,3.55064e-06,-1.35221e-05,9.73162e-06,3.27766e-06,0
-3.3429e-05,-7.05305e-06,-1.30837e-05,-1.56215e-05,2.88946e-06,-1.17008e-05,9.67384e-06,3.72586e-06,0
-3.42043e-05,-4.93128e-06,-1.2026e-05,-3.53725e-06,2.30048e-06,-1.08396e-05,9.34962e-06,4.64992e-06,0
-3.43938e-05,-4.63205e-06,-1.09355e-05,2.74691e-06,3.37748e-06,-1.10261e-05,9.73125e-06,6.58708e-06,0
-3.39772e-05,-4.30502e-06,-1.14871e-05,1.75475e-06,4.38818e-06,-1.17135e-05,1.16759e-05,1.06791e-05,0
-3.35719e-05,-5.58591e-07,-1.38432e-05,-4.02211e-06,5.98722e-06,-1.20771e-05,1.53915e-05,1.44403e-05,0
-3.2649e-05,5.35873e-06,-1.56604e-05,-1.09735e-05,8.13543e-06,-1.17958e-05,1.88909e-05,1.31541e-05,0
-3.12203e-05,1.03044e-05,-1.50198e-05,-1.38732e-05,6.71892e-06,-1.20058e-05,2.02326e-05,7.65652e-06,0
-3.07716e-05,1.38056e-05,-1.34579e-05,-1.54653e-05,4.12034e-06,-1.18569e-05,2.00842e-05,3.90417e-06,0
-3.14076e-05,1.5012e-05,-1.14447e-05,-1.5879e-05,3.97866e-06,-1.33512e-05,1.83845e-05,3.7836e-06,0
-3.23854e-05,1.57762e-05,-1.18225e-05,-1.40124e-05,6.18466e-06,-1.52267e-05,1.69883e-05,5.2105e-06,0
-3.27668e-05,1.7667e-05,-1.26052e-05,-1.18547e-05,7.97149e-06,-1.65597e-05,1.61485e-05,6.78117e-06,0
-3.19153e-05,1.9617e-05,-1.18881e-05,-1.09818e-05,8.16816e-06,-1.67398e-05,1.50093e-05,6.30407e-06,0
-3.10002e-05,2.05058e-05,-1.1214e-05,-9.41266e-06,7.11682e-06,-1.45868e-05,1.2159e-05,5.05665e-06,0
-3.16819e-05,2.0873e-05,-1.14047e-05,-7.40954e-06,3.34048e-06,-1.35872e-05,8.60123e-06,4.32605e-06,0
-3.22109e-05,1.85227e-05,-1.243e-05,-7.92714e-06,-1.14447e-06,-1.38585e-05,5.23911e-06,4.02486e-06,0
-3.27355e-05,1.41188e-05,-1.24679e-05,-8.91655e-06,-3.23352e-06,-1.38671e-05,2.20043e-06,3.85711e-06,0
-3.33735e-05,9.91266e-06,-1.198e-05,-1.01361e-05,-2.39871e-06,-1.35044e-05,2.1428e-06,4.08509e-06,0
-3.42236e-05,6.31393e-06,-1.18403e-05,-1.12207e-05,-2.55054e-07,-1.37231e-05,4.70028e-06,4.72679e-06,0
-3.55721e-05,3.73734e-06,-1.30526e-05,-1.19734e-05,2.60453e-06,-1.38851e-05,7.79939e-06,5.2471e-06,0
-3.69677e-05,2.45529e-06,-1.47589e-05,-1.34347e-05,4.50289e-06,-1.36214e-05,1.0029e-05,5.08663e-06,0
-3.74903e-05,1.69751e-06,-1.61547e-05,-1.69025e-05,4.49037e-06,-1.39097e-05,1.19267e-05,4.2089e-06,0
-3.6759e-05,1.0386e-06,-1.71108e-05,-2.02404e-05,4.04939e-06,-1.47706e-05,1.24844e-05,3.92359e-06,0
-3.59539e-05,7.58091e-07,-1.71604e-05,-2.12259e-05,5.09e-06,-1.53541e-05,1.17094e-05,5.68047e-06,0
-3.45018e-05,8.4959e-07,-1.57567e-05,-1.91786e-05,7.31345e-06,-1.54711e-05,1.02864e-05,8.76603e-06,0
-3.22207e-05,3.12151e-06,-1.43939e-05,-1.44052e-05,1.10607e-05,-1.47054e-05,7.9032e-06,9.21068e-06,0
-3.06729e-05,6.53064e-06,-1.29656e-05,-7.69666e-06,1.75314e-05,-1.30604e-05,5.69872e-06,6.43683e-06,0
-3.02534e-05,9.28371e-06,-9.17582e-06,-1.10474e-06,2.43508e-05,-1.29712e-05,5.33865e-06,3.31596e-06,0
-2.93969e-05,1.04682e-05,-4.61758e-06,2.37955e-06,2.81606e-05,-1.47975e-05,5.98223e-06,2.41808e-06,0
-2.87405e-05,9.91972e-06,-2.52289e-06,4.67263e-06,2.66369e-05,-1.51665e-05,5.39134e-06,2.32102e-06,0
-2.894e-05,7.51491e-06,-2.45364e-06,1.01091e-05,2.22357e-05,-1.31268e-05,4.76863e-06,-1.41848e-07,0
-2.85214e-05,6.38215e-06,-1.67472e-06,1.67599e-05,1.95503e-05,-1.18693e-05,5.23584e-06,-1.24516e-06,0
-2.72863e-05,7.35767e-06,5.33287e-07,2.26333e-05,2.09098e-05,-1.22247e-05,5.05111e-06,8.22543e-07,0
-2.65866e-05,7.67557e-06,3.19228e-06,2.88951e-05,2.32205e-05,-1.12276e-05,4.88075e-06,1.15898e-06,0
-2.66197e-05,5.84293e-06,4.07407e-06,3.06386e-05,2.23403e-05,-1.04483e-05,6.01223e-06,-1.39388e-06,0
-2.6971e-05,3.6654e-06,2.49897e-06,1.96815e-05,1.97338e-05,-1.26434e-05,7.40111e-06,-2.65406e-06,0
-2.67996e-05,3.81821e-06,3.31042e-07,-2.23197e-06,1.66418e-05,-1.48585e-05,6.628e-06,-1.07916e-06,0
-2.68674e-05,4.4132e-06,-9.17623e-07,-2.19834e-05,1.46807e-05,-1.42012e-05,1.71737e-06,6.22447e-08,0
-2.74085e-05,3.70205e-06,-1.41071e-06,-3.12486e-05,1.56527e-05,-1.24613e-05,-1.06596e-05,-3.8057e-07,0
-2.79162e-05,1.64204e-06,-2.22565e-06,-3.24755e-05,1.86073e-05,-1.20094e-05,-2.36573e-05,-2.31607e-07,0
-2.835e-05,1.09396e-06,-3.81131e-06,-3.30807e-05,2.08952e-05,-1.20828e-05,-2.72193e-05,1.34329e-06,0
-2.79672e-05,2.66227e-06,-6.02892e-06,-3.13487e-05,1.96259e-05,-1.31974e-05,-2.00432e-05,1.18469e-06,0
-2.73526e-05,5.81688e-06,-8.49073e-06,-2.14221e-05,1.55531e-05,-1.34565e-05,-5.91997e-06,-5.51445e-08,0
-2.67635e-05,8.66291e-06,-9.73667e-06,-3.36717e-06,1.13221e-05,-1.14058e-05,7.30639e-06,-9.56985e-08,0
-2.645e-05,9.32711e-06,-9.14115e-06,1.70495e-05,9.34461e-06,-1.03708e-05,1.94148e-05,8.01961e-07,0
-2.62073e-05,8.22203e-06,-8.2993e-06,3.32307e-05,1.01962e-05,-1.25965e-05,3.04137e-05,8.38654e-07,0
