ch1,ch2,ch3,ch4,ch5,ch6,ch7,ch8,class
-3.1059e-05,1.79171e-05,-1.86282e-05,-0.000124091,8.5466e-06,-1.8747e-05,-8.54075e-07,-2.67639e-06,0
-3.00579e-05,1.99485e-05,-1.81176e-05,-0.000115489,6.8884e-06,-1.9978e-05,2.51321e-06,-1.72167e-06,0
-2.83461e-05,2.07096e-05,-1.66518e-05,-9.13257e-05,2.64229e-06,-2.05953e-05,9.35352e-06,1.07227e-06,0
-2.76388e-05,1.96425e-05,-1.38354e-05,-5.45879e-05,-7.51147e-07,-2.05061e-05,1.2511e-05,1.67558e-06,0
-2.85029e-05,1.90143e-05,-1.07864e-05,4.59272e-06,-8.26106e-07,-1.96133e-05,1.20901e-05,1.98315e-07,0
-2.95813e-05,1.94923e-05,-8.50388e-06,7.96082e-05,2.05594e-06,-1.89087e-05,1.18977e-05,-3.96803e-07,0
-2.96768e-05,1.99672e-05,-7.22179e-06,0.000144306,7.15527e-06,-1.83216e-05,1.30517e-05,-1.88314e-06,0
-2.96879e-05,2.03002e-05,-6.26461e-06,0.000176506,1.19307e-05,-1.77398e-05,1.44875e-05,-4.83556e-06,0
-2.91385e-05,2.04666e-05,-5.86672e-06,0.000175054,1.26662e-05,-1.67893e-05,1.63306e-05,-6.24024e-06,0
-2.73091e-05,2.11697e-05,-5.06233e-06,0.000153349,9.62678e-06,-1.67542e-05,1.90107e-05,-6.18837e-06,0
-2.54867e-05,2.07766e-05,-3.65829e-06,0.000118767,9.3083e-06,-1.73706e-05,2.10171e-05,-5.96258e-06,0
-2.57881e-05,2.01449e-05,-2.45265e-06,7.70834e-05,1.27122e-05,-1.59519e-05,2.09097e-05,-4.93351e-06,0
-2.68893e-05,2.20269e-05,-2.06481e-06,4.03062e-05,1.90383e-05,-1.30216e-05,2.05386e-05,-4.59513e-06,0
-2.6548e-05,2.41466e-05,-8.74854e-07,1.94318e-05,2.669e-05,-9.56577e-06,1.95166e-05,-6.64742e-06,0
-2.6524e-05,2.46603e-05,7.65615e-07,7.68933e-06,3.12675e-05,-9.00858e-06,1.94846e-05,-8.80842e-06,0
-2.69619e-05,2.3252e-05,1.94882e-07,-6.9938e-06,3.28943e-05,-1.11887e-05,2.12036e-05,-9.13172e-06,0
-2.61995e-05,2.1771e-05,-1.2004e-06,-2.15526e-05,3.21788e-05,-1.13406e-05,2.28974e-05,-8.53675e-06,0
-2.56e-05,2.20727e-05,-2.23313e-06,-2.96117e-05,3.28814e-05,-9.67199e-06,2.17166e-05,-8.57705e-06,0
-2.64807e-05,2.6647e-05,-1.28951e-06,-3.47953e-05,3.27201e-05,-8.85885e-06,1.78455e-05,-9.31521e-06,0
-2.72704e-05,3.55201e-05,-1.17146e-06,-4.00956e-05,3.178e-05,-8.75535e-06,1.45465e-05,-9.2962e-06,0
-2.74732e-05,4.32106e-05,-3.35191e-06,-4.03538e-05,3.15733e-05,-8.28312e-06,1.28747e-05,-9.05673e-06,0
-2.67247e-05,4.51667e-05,-5.47623e-06,-3.28987e-05,2.77096e-05,-8.98852e-06,1.44595e-05,-8.99782e-06,0
-2.61829e-05,4.10139e-05,-5.00843e-06,-2.23128e-05,2.09177e-05,-1.0409e-05,1.85549e-05,-8.88433e-06,0
-2.67855e-05,3.31763e-05,-2.59762e-06,-1.26424e-05,1.63568e-05,-1.12439e-05,2.1636e-05,-8.18459e-06,0
-2.78269e-05,2.42817e-05,-1.06521e-06,-3.87467e-06,1.59753e-05,-1.3e-05,2.03783e-05,-6.53638e-06,0
-2.8839e-05,1.65056e-05,-4.53736e-07,3.65636e-06,1.71351e-05,-1.59437e-05,1.61502e-05,-5.34552e-06,0
-3.03832e-05,9.88629e-06,4.66671e-07,9.18224e-06,1.7689e-05,-1.73968e-05,1.23819e-05,-5.07829e-06,0
-3.11498e-05,2.52256e-06,2.87755e-06,1.2828e-05,1.58741e-05,-1.68326e-05,8.30439e-06,-5.30893e-06,0
-2.93851e-05,-5.65305e-06,4.92384e-06,1.97319e-05,1.31924e-05,-1.62001e-05,-2.22321e-06,-4.71334e-06,0
-2.69715e-05,-1.04146e-05,4.9265e-06,2.97418e-05,1.10323e-05,-1.5974e-05,-2.24953e-05,-3.84105e-06,0
-2.66161e-05,-8.84137e-06,3.17389e-06,3.13059e-05,1.02214e-05,-1.5681e-05,-4.2689e-05,-3.8166e-06,0
-2.80088e-05,-3.64322e-06,1.61234e-06,1.84126e-05,1.12897e-05,-1.44649e-05,-4.59767e-05,-4.3641e-06,0
-2.97719e-05,4.33098e-07,-4.45272e-07,-1.90656e-06,1.25984e-05,-1.26663e-05,-2.81886e-05,-4.54156e-06,0
-2.98851e-05,3.6843e-06,-2.75955e-06,-1.85162e-05,1.06314e-05,-1.22301e-05,1.70862e-07,-2.4298e-06,0
-2.75467e-05,5.77427e-06,-3.86923e-06,-2.50382e-05,7.25931e-06,-1.24827e-05,2.594e-05,-6.80632e-07,0
-2.51269e-05,4.61711e-06,-4.00572e-06,-2.66233e-05,4.80245e-06,-1.11826e-05,4.56124e-05,-6.86659e-08,0
-2.49085e-05,4.43298e-06,-4.45291e-06,-2.66347e-05,1.57755e-06,-8.09716e-06,5.85727e-05,1.17156e-06,0
-2.62802e-05,9.51747e-06,-4.73093e-06,-2.42847e-05,-7.24945e-07,-6.09919e-06,6.36502e-05,1.05494e-06,0
-2.75388e-05,1.47537e-05,-5.67786e-06,-2.13269e-05,-1.62376e-06,-6.94383e-06,6.18844e-05,-9.31976e-07,0
-2.74978e-05,1.43826e-05,-6.84626e-06,-1.93759e-05,-1.09344e-06,-8.08005e-06,5.4837e-05,-2.38861e-06,0
-2.64655e-05,1.23166e-05,-5.42242e-06,-1.97319e-05,1.50725e-06,-8.69771e-06,4.64317e-05,-2.00825e-06,0
-2.7137e-05,1.18917e-05,-3.38015e-06,-1.93562e-05,4.3228e-06,-7.61864e-06,4.0873e-05,-1.71818e-06,0
-2.78606e-05,1.22556e-05,-2.90396e-06,-1.76893e-05,4.92129e-06,-6.23828e-06,3.7182e-05,-3.89716e-07,0
-2.68631e-05,1.15328e-05,-3.58442e-06,-1.36098e-05,3.97685e-06,-5.51667e-06,3.38682e-05,8.70599e-07,0
-2.74007e-05,9.74014e-06,-4.06043e-06,-7.28214e-06,4.69118e-06,-3.16329e-06,3.20476e-05,1.7244e-06,0
-2.91968e-05,7.69233e-06,-3.84206e-06,-3.11697e-06,6.33153e-06,-1.98499e-06,3.02818e-05,3.72517e-06,0
-2.98827e-05,4.90919e-06,-3.32049e-06,-2.36769e-06,8.97028e-06,-1.85691e-06,2.85341e-05,5.74905e-06,0
-2.90542e-05,3.19078e-06,-4.17629e-06,-2.68522e-06,1.2917e-05,-1.42187e-06,2.55042e-05,7.23193e-06,0
-2.83468e-05,2.70326e-06,-5.4456e-06,-3.07371e-06,1.70834e-05,-1.11644e-07,2.16934e-05,7.71357e-06,0
-2.85303e-05,2.86801e-06,-6.33423e-06,-3.0867e-06,2.01798e-05,1.5263e-06,1.68298e-05,6.73207e-06,0
-2.83461e-05,4.60212e-06,-8.45661e-06,-2.28281e-06,2.08663e-05,2.14208e-06,1.07174e-05,5.66282e-06,0
-2.74853e-05,7.44204e-06,-1.0643e-05,-2.38221e-06,1.92966e-05,1.06737e-06,3.41854e-06,6.36379e-06,0
-2.70229e-05,9.30875e-06,-1.10474e-05,-5.53859e-06,1.63802e-05,-1.59415e-06,-4.66156e-06,7.38395e-06,0
-2.80516e-05,9.78031e-06,-9.67788e-06,-1.22052e-05,1.43476e-05,-3.13706e-06,-1.08517e-05,7.85449e-06,0
-2.89473e-05,1.14656e-05,-6.81621e-06,-1.96924e-05,1.39343e-05,-4.07303e-06,-1.27627e-05,7.30646e-06,0
-2.89612e-05,1.58424e-05,-3.98106e-06,-2.50421e-05,1.40631e-05,-5.79072e-06,-1.07619e-05,5.84138e-06,0
-2.92652e-05,2.00746e-05,-2.4538e-06,-2.60957e-05,1.19468e-05,-7.05611e-06,-6.36968e-06,4.06349e-06,0
-3.0748e-05,2.07869e-05,1.95225e-07,-1.93305e-05,9.20491e-06,-6.26474e-06,-1.82203e-07,3.10105e-06,0
-3.31207e-05,1.82141e-05,7.04473e-06,3.52973e-06,8.48813e-06,-4.48623e-06,5.25002e-06,2.28875e-06,0
-3.56662e-05,1.57835e-05,1.86579e-05,4.27496e-05,9.99511e-06,-3.22959e-06,6.29489e-06,5.9478e-07,0
-3.65548e-05,1.647e-05,3.44038e-05,7.1718e-05,1.1171e-05,-3.24508e-06,2.62158e-06,-1.36102e-06,0
-3.5894e-05,1.83708e-05,5.18983e-05,6.62583e-05,1.03358e-05,-3.99619e-06,-2.07043e-07,-1.47367e-06,0
-3.63839e-05,1.76475e-05,6.79514e-05,3.59377e-05,9.56487e-06,-3.16276e-06,-4.38292e-07,8.45822e-07,0
-3.8121e-05,1.26312e-05,7.83811e-05,-3.05822e-07,1.40777e-05,-4.23412e-07,1.38379e-06,2.80337e-06,0
-3.90521e-05,8.96973e-06,7.31236e-05,-2.34541e-05,2.21159e-05,1.76529e-07,3.23429e-06,1.58373e-06,0
-3.94999e-05,1.04631e-05,4.85792e-05,-3.21192e-05,2.6081e-05,-9.11088e-07,5.41857e-06,3.9785e-07,0
-3.97908e-05,1.33105e-05,1.03075e-05,-3.75172e-05,2.50307e-05,-1.12997e-06,1.14486e-05,1.36605e-06,0
-3.88195e-05,1.40983e-05,-3.39751e-05,-3.9651e-05,2.24e-05,-2.12606e-06,1.63169e-05,1.86744e-06,0
-3.74394e-05,1.15743e-05,-7.29443e-05,-3.96511e-05,2.02074e-05,-2.18754e-06,1.60151e-05,1.49946e-06,0
-3.59964e-05,8.25625e-06,-9.66692e-05,-3.65925e-05,1.4829e-05,-1.27571e-06,1.44609e-05,-2.04017e-07,0
-3.47157e-05,5.90729e-06,-0.000100176,-2.07653e-05,9.21392e-06,-1.43592e-06,1.2666e-05,-2.3287e-06,0
-3.42226e-05,4.66994e-06,-8.81023e-05,1.00931e-05,5.88189e-06,-1.30072e-06,1.05759e-05,-4.13972e-06,0
-3.38752e-05,4.00157e-06,-7.04285e-05,3.35348e-05,2.48256e-06,-6.17395e-07,8.88399e-06,-3.8016e-06,0
-3.36462e-05,3.83618e-06,-5.56099e-05,3.80169e-05,-1.61193e-06,-5.77131e-07,7.2406e-06,-1.39551e-06,0
-3.36561e-05,4.30327e-06,-4.53042e-05,2.85039e-05,-4.92361e-06,-2.0884e-06,6.20467e-06,4.98046e-07,0
-3.38065e-05,4.51293e-06,-3.65577e-05,6.93812e-06,-6.1299e-06,-4.41833e-06,7.71173e-06,7.87028e-07,0
-3.3987e-05,4.40533e-06,-2.82688e-05,-2.59985e-05,-5.94881e-06,-6.35239e-06,1.06627e-05,-2.14583e-07,0
-3.3664e-05,3.3991e-06,-2.25325e-05,-6.65398e-05,-4.69355e-06,-5.94108e-06,1.16223e-05,-1.67052e-06,0
-3.28639e-05,1.99398e-06,-2.05595e-05,-0.00010657,-5.19545e-06,-4.00878e-06,1.09259e-05,-2.39197e-06,0
-3.26613e-05,1.82446e-06,-1.9732e-05,-0.000133557,-7.37564e-06,-4.62187e-06,1.07951e-05,-2.14035e-06,0
-3.29516e-05,2.88853e-06,-1.78745e-05,-0.000134026,-7.92084e-06,-7.43319e-06,1.25433e-05,-1.86089e-06,0
-3.2196e-05,4.39867e-06,-1.52748e-05,-0.00011289,-4.84516e-06,-9.03691e-06,1.45995e-05,-1.54139e-06,0
-3.12822e-05,6.44995e-06,-1.33628e-05,-8.75232e-05,-1.85693e-07,-8.21338e-06,1.63366e-05,-1.24406e-06,0
-3.09486e-05,8.34588e-06,-1.20459e-05,-6.48296e-05,3.90681e-06,-6.55688e-06,1.84008e-05,-4.15961e-08,0
-3.0801e-05,9.236e-06,-1.07063e-05,-3.9766e-05,7.72807e-06,-4.74147e-06,1.95882e-05,2.18127e-06,0
-3.01137e-05,9.40303e-06,-8.44397e-06,-1.52265e-05,1.37188e-05,-3.47928e-06,1.9157e-05,3.12582e-06,0
-3.04135e-05,9.59843e-06,-6.37543e-06,6.13111e-06,2.37364e-05,-2.85017e-06,1.84272e-05,2.32728e-06,0
-3.21548e-05,1.08074e-05,-5.55747e-06,2.11201e-05,3.37997e-05,-2.59432e-06,1.94929e-05,4.92363e-07,0
-3.24997e-05,1.07279e-05,-5.30848e-06,2.00738e-05,3.61364e-05,-3.13725e-06,2.12914e-05,-1.97892e-06,0
-3.11198e-05,8.96623e-06,-4.52748e-06,6.4888e-06,3.12818e-05,-4.12384e-06,2.11969e-05,-2.49694e-06,0
-2.75556e-05,7.46565e-06,-1.63672e-06,-2.18295e-06,2.47926e-05,-5.34987e-06,1.80957e-05,-2.0953e-06,0
-2.48818e-05,6.76248e-06,7.75349e-07,2.28421e-06,1.91568e-05,-6.47816e-06,8.92499e-06,-2.38118e-06,0
-2.38744e-05,6.0935e-06,5.68936e-07,1.26683e-05,1.59936e-05,-8.08697e-06,-1.38275e-06,-1.30939e-06,0
-2.34217e-05,3.91629e-06,-9.87478e-07,2.13006e-05,1.43881e-05,-1.10953e-05,-6.21316e-06,4.76205e-07,0
-2.45348e-05,3.90047e-06,-2.05253e-06,2.58343e-05,1.33584e-05,-1.35624e-05,-6.05097e-06,1.39275e-06,0
-2.64312e-05,5.23867e-06,-1.36288e-06,2.65847e-05,1.10012e-05,-1.54057e-05,-3.54086e-06,1.28669e-06,0
-2.73869e-05,6.37488e-06,3.21535e-07,2.30424e-05,8.29953e-06,-1.70047e-05,-7.72472e-07,4.00681e-07,0
-2.52054e-05,6.39534e-06,3.25551e-06,1.67826e-05,7.18679e-06,-1.79884e-05,3.86478e-06,-6.69173e-07,0
-2.4501e-05,5.51769e-06,4.16228e-06,9.43701e-06,8.42639e-06,-1.80441e-05,1.03037e-05,-1.21557e-06,0
-2.60087e-05,6.65749e-06,1.11363e-06,1.42132e-06,9.57408e-06,-1.71866e-05,1.46547e-05,-2.34682e-06,0
-2.72181e-05,8.65279e-06,-1.95643e-06,-4.46412e-06,9.94728e-06,-1.68831e-05,8.99624e-06,-3.51635e-06,0
-2.8018e-05,1.05507e-05,-1.294e-06,-4.84382e-06,1.17549e-05,-1.6782e-05,-3.95233e-06,-2.59854e-06,0
-2.89188e-05,1.2552e-05,9.62799e-07,2.6987e-07,1.52178e-05,-1.70786e-05,-1.10448e-05,-1.21147e-06,0
-2.99435e-05,1.63077e-05,1.66868e-06,8.58718e-06,1.89227e-05,-1.74744e-05,-6.4477e-06,-1.82658e-06,0
-3.352e-05,1.99821e-05,1.35478e-06,1.67065e-05,1.99944e-05,-1.74351e-05,7.28623e-06,-3.62418e-06,0
-4.02754e-05,2.15927e-05,1.03932e-06,2.10835e-05,1.77677e-05,-1.85105e-05,2.5082e-05,-3.56927e-06,0
-4.44553e-05,2.04978e-05,1.19724e-06,2.27501e-05,1.37853e-05,-2.0796e-05,4.10368e-05,-8.73794e-07,0
-4.21737e-05,1.93155e-05,8.99654e-07,2.27079e-05,1.08084e-05,-2.17648e-05,5.04653e-05,2.3294e-06,0
-3.61668e-05,1.96654e-05,-4.56781e-07,1.83181e-05,9.86047e-06,-2.01577e-05,5.3741e-05,3.18402e-06,0
-3.16878e-05,2.05789e-05,-3.4877e-06,9.98364e-06,9.62455e-06,-1.83463e-05,5.41439e-05,2.34266e-06,0
-2.84064e-05,2.06104e-05,-6.69888e-06,4.28747e-06,9.58414e-06,-1.82544e-05,5.27959e-05,2.60187e-06,0
-2.66976e-05,1.96837e-05,-9.48006e-06,5.14022e-06,1.09926e-05,-1.8116e-05,4.85876e-05,3.5297e-06,0
-2.71471e-05,2.06781e-05,-1.14879e-05,6.27823e-06,1.37279e-05,-1.67698e-05,4.20804e-05,4.26203e-06,0
-2.86006e-05,2.35586e-05,-1.15018e-05,-3.64427e-06,1.80338e-05,-1.41255e-05,3.52961e-05,4.26155e-06,0
-2.88454e-05,2.50084e-05,-9.06552e-06,-2.58433e-05,2.16308e-05,-1.18293e-05,2.92222e-05,2.95337e-06,0
-2.93088e-05,2.179e-05,-5.645e-06,-4.35537e-05,2.23892e-05,-1.03331e-05,2.2801e-05,2.42496e-06,0
-3.09146e-05,1.945e-05,-1.13769e-06,-4.74638e-05,2.55439e-05,-8.67564e-06,1.73245e-05,4.07934e-06,0
-3.1164e-05,2.04631e-05,3.01259e-06,-3.6837e-05,3.32793e-05,-7.64378e-06,1.39175e-05,5.82033e-06,0
-3.12267e-05,2.02374e-05,3.07357e-06,-8.16431e-06,3.51205e-05,-7.48328e-06,1.08374e-05,5.92363e-06,0
-3.22605e-05,1.94346e-05,-2.37562e-06,3.14411e-05,2.47545e-05,-9.63026e-06,8.90926e-06,5.95781e-06,0
-3.20701e-05,1.84168e-05,-1.0388e-05,5.65801e-05,7.49835e-06,-1.27201e-05,9.3126e-06,6.46589e-06,0
-3.07507e-05,1.88313e-05,-1.43682e-05,4.31418e-05,-3.92002e-06,-1.31302e-05,8.51472e-06,6.78592e-06,0
-2.9975e-05,2.01819e-05,-1.52826e-05,-3.17876e-06,-3.73599e-06,-1.14734e-05,5.85479e-06,6.24346e-06,0
-2.82904e-05,1.91647e-05,-1.68661e-05,-5.49587e-05,-6.15004e-07,-1.12497e-05,5.05786e-06,4.8059e-06,0
-2.63628e-05,1.77617e-05,-1.86584e-05,-8.79148e-05,-7.14003e-07,-1.30157e-05,5.16146e-06,4.33986e-06,0
-2.68405e-05,1.64827e-05,-1.9812e-05,-0.000102392,-2.44331e-06,-1.42881e-05,4.61137e-06,4.96083e-06,0
-2.80317e-05,1.54515e-05,-2.10864e-05,-9.93063e-05,-1.15616e-06,-1.44269e-05,3.07032e-06,5.31388e-06,0
-2.91432e-05,1.46756e-05,-2.13289e-05,-6.25416e-05,1.6175e-06,-1.46816e-05,4.91726e-07,5.43032e-06,0
-3.02299e-05,1.4084e-05,-1.98077e-05,6.46169e-06,2.85944e-06,-1.48944e-05,-2.09107e-06,5.98411e-06,0
-3.12241e-05,1.51591e-05,-1.80314e-05,6.92358e-05,2.55067e-06,-1.42724e-05,-2.8951e-06,6.34557e-06,0
-3.19193e-05,1.74565e-05,-1.72751e-05,0.000101661,3.94725e-06,-1.38057e-05,-2.22243e-06,7.12217e-06,0
-3.15336e-05,1.783e-05,-1.65142e-05,0.000116417,8.24385e-06,-1.31314e-05,-1.34041e-06,9.31748e-06,0
-3.07976e-05,1.64317e-05,-1.38503e-05,0.000123088,1.15252e-05,-1.19618e-05,6.97387e-07,1.25953e-05,0
-2.99209e-05,1.58128e-05,-1.12025e-05,0.000117824,1.20663e-05,-1.16671e-05,3.68542e-06,1.4618e-05,0
-2.95304e-05,1.4782e-05,-1.13209e-05,9.72543e-05,1.11278e-05,-1.38061e-05,5.91465e-06,1.4893e-05,0
-3.00964e-05,1.23166e-05,-1.33109e-05,6.8209e-05,9.20783e-06,-1.68406e-05,6.98652e-06,1.49358e-05,0
-3.14009e-05,1.11772e-05,-1.4656e-05,4.15568e-05,5.39444e-06,-1.76884e-05,8.03152e-06,1.46639e-05,0
-3.13953e-05,1.33303e-05,-1.47995e-05,2.39117e-05,1.05454e-06,-1.64206e-05,8.00906e-06,1.4274e-05,0
-3.0069e-05,1.55286e-05,-1.34634e-05,8.71971e-06,6.51607e-07,-1.43426e-05,7.73198e-06,1.28788e-05,0
-2.94578e-05,1.42461e-05,-1.18602e-05,-5.60784e-06,6.75806e-06,-1.22797e-05,7.41296e-06,1.02952e-05,0
-3.0161e-05,1.19891e-05,-1.02421e-05,-1.68249e-05,1.56475e-05,-1.0608e-05,6.07602e-06,9.26342e-06,0
-3.02974e-05,1.02669e-05,-8.75389e-06,-3.30791e-05,2.17258e-05,-9.87396e-06,6.50551e-06,9.71788e-06,0
-2.91032e-05,1.04151e-05,-8.43625e-06,-5.15885e-05,2.2431e-05,-9.58298e-06,8.12178e-06,8.51183e-06,0
-2.74984e-05,1.33774e-05,-8.95377e-06,-5.31869e-05,2.2976e-05,-9.11078e-06,8.15853e-06,6.21456e-06,0
-2.66968e-05,1.87011e-05,-8.74138e-06,-3.49477e-05,2.64847e-05,-9.43335e-06,8.38603e-06,5.89882e-06,0
-2.85264e-05,2.9987e-05,-6.04869e-06,-1.62624e-05,2.62365e-05,-1.07294e-05,8.82917e-06,8.39809e-06,0
-3.08762e-05,4.20986e-05,-2.20041e-06,-7.02143e-06,2.4015e-05,-1.1006e-05,8.64584e-06,9.9481e-06,0
-2.92332e-05,4.73904e-05,2.06048e-07,-5.78986e-06,2.76294e-05,-1.03492e-05,9.5169e-06,9.31439e-06,0
-2.59139e-05,4.42926e-05,8.74339e-07,-1.29244e-05,3.27148e-05,-9.17358e-06,1.02721e-05,7.71752e-06,0
-2.58608e-05,3.59844e-05,-1.88231e-07,-2.41227e-05,3.25093e-05,-8.26054e-06,9.8544e-06,5.39437e-06,0
-2.78001e-05,2.6086e-05,-1.86928e-06,-3.51817e-05,2.6577e-05,-8.49522e-06,9.17753e-06,4.19447e-06,0
-2.83884e-05,1.73611e-05,-2.55137e-06,-4.21221e-05,2.01833e-05,-8.84827e-06,9.07626e-06,2.20433e-06,0
-2.94951e-05,1.04154e-05,-3.10782e-06,-4.13128e-05,1.70866e-05,-9.0058e-06,8.772e-06,-2.23166e-07,0
-3.233e-05,3.30602e-06,-3.34796e-06,-3.25016e-05,1.51299e-05,-8.6816e-06,8.34952e-06,-6.26956e-07,0
-3.34998e-05,-1.20983e-06,-3.03012e-06,-2.22235e-05,1.48406e-05,-8.73859e-06,8.75633e-06,2.72104e-07,0
-3.11873e-05,-2.42779e-07,-1.67592e-06,-1.59963e-05,1.60591e-05,-9.31087e-06,1.10212e-05,1.03309e-06,0
-2.74784e-05,4.87819e-06,-8.32404e-07,-1.09613e-05,1.59125e-05,-1.02635e-05,1.57028e-05,1.30086e-06,0
-2.60684e-05,9.46117e-06,-2.20007e-06,-5.76777e-06,1.4908e-05,-1.12026e-05,2.03482e-05,1.39366e-06,0
-2.7795e-05,1.19006e-05,-4.95581e-06,-6.59954e-07,1.5454e-05,-1.16277e-05,2.20555e-05,7.62011e-07,0
-3.07423e-05,1.3009e-05,-6.36106e-06,1.82136e-06,1.71578e-05,-1.23122e-05,2.14893e-05,-5.81176e-07,0
-3.25061e-05,1.28315e-05,-5.88944e-06,1.96072e-06,1.76838e-05,-1.35214e-05,2.1209e-05,-3.13633e-06,0
-3.27686e-05,1.15163e-05,-5.76126e-06,-2.346e-07,1.73105e-05,-1.40777e-05,2.04433e-05,-5.55576e-06,0
-3.20891e-05,1.00433e-05,-6.28364e-06,-4.68448e-06,1.83376e-05,-1.30328e-05,1.74673e-05,-5.3015e-06,0
-3.10937e-05,8.85077e-06,-6.69249e-06,-1.02518e-05,2.08806e-05,-1.1594e-05,1.34195e-05,-3.06227e-06,0
-3.0534e-05,8.51354e-06,-6.47094e-06,-1.31333e-05,2.25105e-05,-1.18422e-05,1.03859e-05,-2.95794e-06,0
-3.09137e-05,9.2283e-06,-5.82458e-06,-1.16798e-05,2.17035e-05,-1.347e-05,8.74631e-06,-4.80056e-06,0
-3.05905e-05,9.84138e-06,-3.73456e-06,-9.31269e-06,2.09681e-05,-1.40151e-05,8.04863e-06,-4.75035e-06,0
-2.92896e-05,8.30867e-06,-1.74046e-06,-9.25187e-06,2.12632e-05,-1.3582e-05,8.36597e-06,-3.74418e-06,0
-2.90681e-05,6.19106e-06,-2.47232e-06,-1.13219e-05,2.08035e-05,-1.30248e-05,8.88252e-06,-3.16672e-06,0
-2.99225e-05,5.94248e-06,-4.47725e-06,-1.43796e-05,1.99616e-05,-1.35419e-05,5.55844e-06,-1.66569e-06,0
-2.98477e-05,6.27076e-06,-5.47155e-06,-1.62823e-05,1.87945e-05,-1.48332e-05,-2.52376e-06,5.52949e-07,0
-2.85043e-05,7.41697e-06,-3.952e-06,-1.75042e-05,1.54911e-05,-1.61154e-05,-9.52238e-06,1.336e-06,0
-2.79924e-05,8.19391e-06,-2.65954e-06,-1.8028e-05,1.26551e-05,-1.48371e-05,-9.56011e-06,1.18749e-06,0
-2.88318e-05,7.46214e-06,-3.02355e-06,-1.62101e-05,1.1094e-05,-1.14812e-05,-3.50478e-06,1.57542e-06,0
-2.93742e-05,5.64098e-06,-2.85181e-06,-1.40443e-05,9.34341e-06,-1.01304e-05,4.69219e-06,-2.40338e-07,0
-2.93364e-05,4.6027e-06,-3.47217e-06,-1.33283e-05,9.04226e-06,-9.62231e-06,1.39512e-05,-1.77356e-06,0
-2.96255e-05,4.79826e-06,-3.95645e-06,-1.5115e-05,8.50848e-06,-9.90014e-06,2.33515e-05,-7.4667e-07,0
-3.0354e-05,6.56104e-06,-4.24778e-06,-1.61798e-05,7.63213e-06,-1.10785e-05,3.21532e-05,1.41102e-06,0
-3.05822e-05,8.26582e-06,-4.98384e-06,-1.63712e-05,6.34792e-06,-1.18506e-05,3.97909e-05,3.02673e-06,0
-3.07893e-05,8.18805e-06,-6.39006e-06,-1.43386e-05,6.68902e-06,-9.87234e-06,4.49707e-05,2.71758e-06,0
-3.24989e-05,8.11425e-06,-6.81331e-06,-1.16706e-05,9.60984e-06,-7.04701e-06,4.73762e-05,2.37265e-06,0
-3.35008e-05,7.05229e-06,-5.81005e-06,-1.01929e-05,1.15352e-05,-6.68865e-06,4.6106e-05,1.62327e-06,0
-3.36402e-05,6.46239e-06,-4.47937e-06,-8.58309e-06,1.01304e-05,-7.27342e-06,4.07548e-05,4.53794e-07,0
-3.26898e-05,7.99573e-06,-3.66692e-06,-8.24497e-06,6.59254e-06,-6.96938e-06,3.27225e-05,-1.04307e-06,0
-3.06635e-05,1.0927e-05,-3.29013e-06,-7.87866e-06,5.00572e-06,-5.41159e-06,2.33142e-05,-2.39766e-06,0
-3.04663e-05,1.30358e-05,-2.34825e-06,-6.25018e-06,7.25459e-06,-3.80827e-06,1.293e-05,-2.91949e-06,0
-3.12992e-05,1.36168e-05,-1.4506e-06,-4.81309e-06,1.04418e-05,-2.43655e-06,2.71348e-06,-2.54423e-06,0
-3.02986e-05,1.28009e-05,-4.65203e-07,-5.98103e-06,1.0576e-05,-2.10275e-06,-3.99807e-06,-3.49314e-06,0
-2.84393e-05,1.0663e-05,3.82497e-07,-9.22929e-06,8.9311e-06,-3.12304e-06,-6.26699e-06,-5.56776e-06,0
-2.83797e-05,7.8042e-06,1.0079e-06,-1.15302e-05,8.15769e-06,-3.8861e-06,-6.7628e-06,-5.74369e-06,0
-2.94484e-05,4.64308e-06,2.14519e-07,-1.18174e-05,9.39236e-06,-3.44837e-06,-4.40781e-06,-4.95383e-06,0
-2.99867e-05,3.54674e-06,-1.60012e-06,-1.11634e-05,1.12411e-05,-3.3444e-06,4.71295e-06,-5.59582e-06,0
-2.9369e-05,4.99683e-06,-5.17919e-06,-8.88536e-06,1.18477e-05,-4.80641e-06,1.72488e-05,-5.7596e-06,0
-2.76965e-05,6.20081e-06,-8.79515e-06,-5.46368e-06,1.1509e-05,-7.14378e-06,2.48944e-05,-2.62022e-06,0
-2.64368e-05,4.50907e-06,-1.21533e-05,-3.4184e-06,1.24364e-05,-9.19207e-06,2.52525e-05,9.73865e-07,0
-2.70774e-05,2.16434e-06,-1.65768e-05,-4.2906e-06,1.20588e-05,-8.28803e-06,2.12515e-05,1.28348e-06,0
-2.85961e-05,2.2287e-06,-2.01557e-05,-4.64779e-06,1.01918e-05,-5.1009e-06,1.50036e-05,5.03346e-07,0
-2.96783e-05,2.89716e-06,-2.17759e-05,-3.24782e-06,9.37949e-06,-3.03695e-06,7.87634e-06,1.10152e-06,0
-3.08324e-05,4.18442e-06,-2.254e-05,-5.87264e-06,7.47633e-06,-3.26025e-06,-2.21943e-06,1.64246e-06,0
-3.16181e-05,5.33559e-06,-2.24925e-05,-9.19179e-06,6.87451e-06,-5.56938e-06,-1.2478e-05,1.18284e-06,0
-3.04828e-05,3.94039e-06,-1.86592e-05,-7.02277e-06,8.58809e-06,-6.80521e-06,-1.84303e-05,3.83859e-07,0
-2.91146e-05,4.08219e-06,-1.4829e-05,-3.52602e-07,9.37436e-06,-4.43066e-06,-2.11677e-05,8.30704e-07,0
-2.70811e-05,5.68679e-06,-1.39954e-05,9.23533e-06,8.54953e-06,-1.50349e-07,-2.21998e-05,1.89116e-06,0
-2.59078e-05,4.63057e-06,-1.30159e-05,1.62906e-05,7.35671e-06,1.45508e-06,-2.27998e-05,2.01999e-06,0
-2.68037e-05,2.16053e-06,-1.32547e-05,1.54431e-05,6.05971e-06,-2.78659e-07,-1.96027e-05,6.01846e-07,0
-2.78921e-05,1.69709e-06,-1.39969e-05,8.00797e-06,5.04961e-06,-3.11679e-06,-1.11668e-05,-4.85852e-07,0
-2.87558e-05,2.17729e-06,-1.52969e-05,-7.00572e-07,4.98598e-06,-4.29992e-06,-1.53251e-06,-2.62283e-07,0
-2.86168e-05,1.96869e-06,-1.66188e-05,-5.93987e-06,5.12086e-06,-4.01502e-06,5.01057e-06,-2.61211e-07,0
-2.94509e-05,1.41669e-06,-1.65916e-05,2.99529e-07,6.32915e-06,-3.32456e-06,7.85893e-06,-1.13167e-06,0
-3.05253e-05,4.28042e-07,-1.66331e-05,2.62617e-05,9.0571e-06,-2.90702e-06,9.86859e-06,-1.60956e-06,0
-3.13649e-05,-2.88283e-08,-1.54474e-05,5.98779e-05,1.14253e-05,-5.28328e-06,1.27865e-05,-1.80072e-06,0
-3.29304e-05,1.67041e-06,-1.3664e-05,7.51491e-05,1.23996e-05,-8.00239e-06,1.47318e-05,-2.90294e-06,0
-3.54523e-05,5.21487e-06,-1.21792e-05,7.20487e-05,1.31048e-05,-8.20468e-06,1.48129e-05,-3.3032e-06,0
-3.70388e-05,8.58246e-06,-1.24506e-05,6.84337e-05,1.46377e-05,-5.99068e-06,1.46073e-05,-1.36338e-06,0
-3.69711e-05,1.06332e-05,-1.28963e-05,6.26854e-05,1.66681e-05,-5.60226e-06,1.4765e-05,1.82408e-06,0
-3.57749e-05,1.23147e-05,-1.2477e-05,4.22543e-05,1.80251e-05,-7.69951e-06,1.5289e-05,4.23383e-06,0
-3.38891e-05,1.42411e-05,-1.19553e-05,8.03282e-06,1.72654e-05,-1.00857e-05,1.53871e-05,4.73576e-06,0
-3.33177e-05,1.52972e-05,-1.08357e-05,-2.77166e-05,1.51827e-05,-1.19394e-05,1.36259e-05,3.9322e-06,0
-3.41854e-05,1.56309e-05,-7.98484e-06,-5.65916e-05,1.19898e-05,-1.29617e-05,1.01717e-05,4.51087e-06,0
-3.5007e-05,1.54396e-05,-5.2362e-06,-7.44139e-05,8.33214e-06,-1.32624e-05,7.84422e-06,7.11359e-06,0
-3.45102e-05,1.45004e-05,-4.83377e-06,-8.43783e-05,6.66411e-06,-1.31492e-05,9.32006e-06,7.78729e-06,0
-3.29538e-05,1.22541e-05,-4.8089e-06,-9.24506e-05,8.83834e-06,-1.25048e-05,1.51619e-05,4.57198e-06,0
-3.17976e-05,1.04767e-05,-4.09259e-06,-9.99548e-05,1.39651e-05,-1.1198e-05,2.18068e-05,1.85498e-06,0
-3.24398e-05,1.04103e-05,-2.30218e-06,-0.00010463,1.8628e-05,-1.09567e-05,2.48506e-05,1.11712e-06,0
-3.26613e-05,1.12969e-05,-4.50897e-07,-0.000101419,1.81995e-05,-1.07219e-05,2.39456e-05,-2.6834e-07,0
-3.26219e-05,1.34221e-05,-3.73993e-07,-8.91724e-05,1.25238e-05,-8.82391e-06,2.23512e-05,-3.28877e-06,0
-3.20255e-05,1.64051e-05,-8.46814e-08,-6.84324e-05,1.01024e-05,-7.68277e-06,2.26922e-05,-6.65047e-06,0
-2.92448e-05,1.98944e-05,-5.3917e-07,-4.32405e-05,1.34508e-05,-8.92552e-06,2.30479e-05,-7.88206e-06,0
-2.67811e-05,2.38777e-05,-3.72246e-06,-2.22726e-05,1.75399e-05,-1.1793e-05,2.221e-05,-8.07725e-06,0
-2.72002e-05,2.67409e-05,-6.72998e-06,-1.08214e-05,1.98645e-05,-1.49578e-05,2.14566e-05,-6.90653e-06,0
-3.0229e-05,2.679e-05,-1.00795e-05,-8.27475e-06,2.1036e-05,-1.71397e-05,2.08551e-05,-2.72243e-06,0
-3.18024e-05,2.49179e-05,-1.34755e-05,-8.20161e-06,2.07254e-05,-1.83413e-05,2.07086e-05,-5.87048e-07,0
-3.13067e-05,2.39e-05,-1.84731e-05,-7.57277e-06,1.89795e-05,-1.81138e-05,1.99461e-05,-2.64737e-06,0
-3.08719e-05,2.2891e-05,-2.29349e-05,-6.15544e-06,1.78791e-05,-1.82498e-05,1.75432e-05,-3.68367e-06,0
-3.06887e-05,2.17069e-05,-2.29238e-05,2.04394e-07,1.83428e-05,-1.87645e-05,1.61269e-05,-2.61084e-06,0
-3.02225e-05,2.17723e-05,-2.15471e-05,9.44574e-06,2.16077e-05,-1.89601e-05,1.75185e-05,-2.30293e-06,0
-2.96671e-05,2.1745e-05,-2.08736e-05,7.94795e-06,2.46478e-05,-1.83285e-05,1.96668e-05,-2.57658e-06,0
-2.92086e-05,2.07114e-05,-1.96943e-05,-4.69183e-06,2.29334e-05,-1.69888e-05,1.99893e-05,-2.94118e-06,0
-2.71673e-05,2.01061e-05,-1.57991e-05,-8.03368e-06,1.96304e-05,-1.58094e-05,1.80155e-05,-3.65774e-06,0
-2.55927e-05,1.9924e-05,-1.08583e-05,5.56507e-06,1.9416e-05,-1.47695e-05,1.35226e-05,-4.76967e-06,0
-2.70737e-05,1.87087e-05,-8.01561e-06,2.40546e-05,2.09634e-05,-1.44171e-05,9.6359e-06,-5.09497e-06,0
-2.98375e-05,1.67874e-05,-7.10297e-06,3.76765e-05,2.13766e-05,-1.4454e-05,9.63676e-06,-4.08245e-06,0
-3.06454e-05,1.52776e-05,-5.77609e-06,4.72843e-05,1.99919e-05,-1.35567e-05,1.15108e-05,-2.038e-06,0
-2.89245e-05,1.61125e-05,-4.94015e-06,5.43138e-05,1.74671e-05,-1.11813e-05,1.26084e-05,-5.17819e-07,0
-2.61688e-05,1.76713e-05,-6.87382e-06,5.43666e-05,1.53422e-05,-9.12287e-06,1.33179e-05,-6.58081e-07,0
-2.43811e-05,1.86492e-05,-1.14087e-05,4.37689e-05,1.39825e-05,-8.35252e-06,1.46404e-05,-1.33161e-06,0
-2.45486e-05,1.98135e-05,-1.62656e-05,2.74383e-05,1.22136e-05,-8.03251e-06,1.64862e-05,-2.25215e-06,0
-2.55043e-05,2.07363e-05,-1.91863e-05,1.41333e-05,9.88374e-06,-6.78445e-06,1.81765e-05,-2.56485e-06,0
-2.54706e-05,2.02943e-05,-1.89591e-05,8.31908e-06,8.5136e-06,-4.52878e-06,1.8204e-05,-1.33262e-06,0
-2.52192e-05,2.09898e-05,-1.42383e-05,8.57777e-06,9.49295e-06,-2.71416e-06,1.77996e-05,-5.08479e-07,0
-2.66393e-05,2.40716e-05,-5.72532e-06,1.43659e-05,1.328e-05,-2.21571e-06,1.67379e-05,-1.53199e-06,0
-2.82193e-05,2.45595e-05,4.14995e-06,2.47713e-05,1.7124e-05,-2.45394e-06,1.29525e-05,-1.05546e-06,0
-2.821e-05,2.22439e-05,1.63003e-05,3.34208e-05,1.79756e-05,-4.48093e-06,9.39388e-06,9.7695e-07,0
-2.60484e-05,1.70463e-05,3.17603e-05,3.49916e-05,1.58351e-05,-5.83666e-06,8.83604e-06,5.43045e-07,0
-2.4961e-05,1.2246e-05,5.09048e-05,2.8794e-05,1.23995e-05,-5.19684e-06,1.17408e-05,-4.71018e-07,0
-2.66783e-05,1.21813e-05,6.85435e-05,1.99222e-05,9.57719e-06,-4.99598e-06,1.66413e-05,8.93356e-07,0
-2.85269e-05,1.18176e-05,6.97758e-05,1.17166e-05,6.13023e-06,-5.27436e-06,2.04285e-05,8.97113e-07,0
-2.95719e-05,8.92039e-06,4.80377e-05,5.66285e-06,2.31486e-06,-6.08986e-06,2.28218e-05,-1.00439e-06,0
-3.06785e-05,5.56077e-06,9.11278e-06,2.33628e-06,-5.63936e-08,-6.9388e-06,2.41224e-05,-1.6748e-06,0
-3.29204e-05,4.9622e-06,-3.59208e-05,-1.70861e-06,5.05607e-07,-8.08228e-06,2.35374e-05,-1.52838e-06,0
-3.47973e-05,6.52903e-06,-7.67099e-05,-1.01957e-05,1.10027e-06,-7.5302e-06,1.97148e-05,-2.60861e-06,0
-3.40192e-05,7.69685e-06,-0.000104125,-2.35197e-05,-3.71844e-07,-5.42654e-06,1.48184e-05,-3.86367e-06,0
-3.26022e-05,8.57769e-06,-0.000111604,-3.77435e-05,-1.23745e-06,-4.9518e-06,1.22794e-05,-4.62524e-06,0
-3.17356e-05,1.0063e-05,-0.000100921,-4.66882e-05,-4.80257e-07,-6.2169e-06,1.27347e-05,-3.83694e-06,0
-3.13723e-05,1.04712e-05,-8.03538e-05,-4.83157e-05,1.91958e-06,-7.3423e-06,1.43776e-05,-2.09904e-06,0
-3.18309e-05,9.31305e-06,-6.0321e-05,-4.25437e-05,5.2568e-06,-8.15843e-06,1.53928e-05,-1.84408e-06,0
-3.27579e-05,1.10378e-05,-4.48586e-05,-2.60952e-05,9.87517e-06,-8.70537e-06,1.54995e-05,-1.99594e-06,0
-3.4137e-05,1.86433e-05,-3.22175e-05,3.14011e-07,1.44766e-05,-8.98966e-06,1.47743e-05,-1.84317e-06,0
-3.56669e-05,2.77751e-05,-1.99857e-05,3.14474e-05,1.76939e-05,-9.1383e-06,1.31618e-05,-1.07735e-06,0
-3.59393e-05,3.15535e-05,-9.2708e-06,6.31632e-05,1.99796e-05,-8.48679e-06,1.06205e-05,9.9209e-07,0
-3.45552e-05,2.92021e-05,-5.83772e-07,8.82079e-05,2.17294e-05,-7.91841e-06,8.50214e-06,4.52086e-06,0
-3.40698e-05,2.30832e-05,8.99844e-06,9.1254e-05,2.12096e-05,-8.32526e-06,8.11873e-06,7.06101e-06,0
-3.5168e-05,1.65238e-05,2.09319e-05,6.3275e-05,1.89362e-05,-8.09789e-06,8.93537e-06,6.56478e-06,0
-3.60599e-05,1.1813e-05,3.32234e-05,1.60625e-05,1.8583e-05,-6.61465e-06,8.44379e-06,3.60859e-06,0
-3.5886e-05,9.76167e-06,3.94669e-05,-2.60014e-05,2.2032e-05,-5.43112e-06,6.69694e-06,2.96809e-06,0
-3.55303e-05,7.77742e-06,3.55583e-05,-5.15478e-05,2.6476e-05,-4.7168e-06,5.49427e-06,6.24482e-06,0
-3.4816e-05,4.71242e-06,2.19358e-05,-6.53352e-05,2.73911e-05,-5.19482e-06,4.93769e-06,9.25549e-06,0
-3.31513e-05,1.16529e-06,1.7688e-06,-7.10088e-05,2.44546e-05,-5.44564e-06,3.51424e-06,8.09005e-06,0
-3.10627e-05,-9.109e-07,-1.88315e-05,-6.56547e-05,1.87326e-05,-4.41631e-06,2.48368e-06,5.04364e-06,0
-3.03276e-05,1.26212e-06,-3.621e-05,-4.87022e-05,1.41995e-05,-3.6166e-06,3.91159e-06,4.17816e-06,0
-3.17407e-05,5.30781e-06,-4.46882e-05,-2.87891e-05,1.38757e-05,-3.61216e-06,5.74004e-06,4.73643e-06,0
-3.40233e-05,8.70578e-06,-4.10381e-05,-1.19195e-05,1.50048e-05,-4.10481e-06,7.95004e-06,5.58172e-06,0
-3.50366e-05,1.11134e-05,-3.18615e-05,2.18446e-06,1.72049e-05,-5.10536e-06,1.15214e-05,4.5313e-06,0
-3.5157e-05,1.16975e-05,-2.2098e-05,1.10228e-05,1.90446e-05,-4.7389e-06,1.30251e-05,2.29737e-06,0
-3.49637e-05,9.59967e-06,-1.3344e-05,1.16307e-05,1.75007e-05,-3.67066e-06,1.1794e-05,2.5784e-06,0
-3.31736e-05,8.01558e-06,-6.2987e-06,5.53883e-06,1.31117e-05,-3.01397e-06,1.0723e-05,4.12094e-06,0
-3.03616e-05,8.27456e-06,-3.35075e-07,-1.68631e-06,9.66582e-06,-2.4173e-06,1.16086e-05,4.52984e-06,0
-2.75558e-05,8.45602e-06,4.74233e-06,-5.3038e-06,9.88808e-06,-1.40782e-06,1.22495e-05,4.14988e-06,0
-2.56532e-05,9.68585e-06,6.62266e-06,-6.41112e-06,1.01737e-05,-2.18182e-07,1.23645e-05,3.45996e-06,0
-2.60232e-05,1.20033e-05,4.41924e-06,-8.19909e-06,6.91309e-06,-8.95465e-07,1.34525e-05,1.98779e-06,0
-2.84636e-05,1.31227e-05,-4.33863e-08,-1.05923e-05,7.95888e-07,-2.99672e-06,1.45356e-05,1.30786e-07,0
-3.0247e-05,1.23734e-05,-3.17047e-06,-1.26312e-05,-3.0263e-06,-4.37453e-06,1.69946e-05,2.83278e-07,0
-3.0439e-05,1.176e-05,-2.60827e-06,-1.28063e-05,-2.05332e-07,-5.00058e-06,1.94273e-05,1.86441e-06,0
-3.06439e-05,1.17447e-05,-3.81881e-08,-8.71185e-06,8.44709e-06,-5.91702e-06,1.94322e-05,3.63664e-06,0
-3.20553e-05,1.21747e-05,2.54076e-06,-4.15908e-06,1.89536e-05,-6.18519e-06,1.75426e-05,4.94772e-06,0
-3.30535e-05,1.38866e-05,4.09375e-06,-3.98962e-06,2.57463e-05,-5.78739e-06,1.56594e-05,5.05618e-06,0
-3.26178e-05,1.6433e-05,4.8469e-06,-7.23801e-06,2.5807e-05,-4.40905e-06,1.4237e-05,4.50813e-06,0
-3.12369e-05,1.79826e-05,5.13117e-06,-1.03409e-05,2.14664e-05,-3.70932e-06,1.28524e-05,3.64878e-06,0
-3.04037e-05,1.75645e-05,5.10949e-06,-1.25303e-05,1.90065e-05,-5.17662e-06,1.14678e-05,2.162e-06,0
-3.14932e-05,1.48471e-05,5.37505e-06,-1.42479e-05,2.12573e-05,-6.70717e-06,1.09171e-05,4.72997e-07,0
-3.25593e-05,9.64898e-06,6.50686e-06,-1.52288e-05,2.43185e-05,-6.18623e-06,1.18063e-05,-6.66551e-07,0
-3.25439e-05,4.69438e-06,8.00592e-06,-1.38729e-05,2.44526e-05,-5.65791e-06,1.32358e-05,-1.02469e-06,0
-3.2326e-05,5.27114e-06,7.78143e-06,-9.86658e-06,2.20994e-05,-6.42535e-06,1.39522e-05,-1.012e-06,0
-3.17932e-05,1.14167e-05,5.5387e-06,-7.07255e-06,2.00651e-05,-7.49621e-06,1.38074e-05,-1.33229e-06,0
-3.16108e-05,1.61545e-05,3.66285e-06,-7.42583e-06,1.78856e-05,-7.8936e-06,1.28348e-05,-2.86549e-06,0
-3.30024e-05,1.77243e-05,3.26809e-06,-1.07773e-05,1.35476e-05,-7.58367e-06,1.10553e-05,-4.78483e-06,0
-3.27355e-05,1.81219e-05,3.83336e-06,-1.24448e-05,7.77971e-06,-6.71215e-06,9.9716e-06,-6.16734e-06,0
-3.10738e-05,1.72096e-05,3.62489e-06,-4.73217e-06,4.65317e-06,-5.09367e-06,9.05928e-06,-5.35991e-06,0
-3.18342e-05,1.38816e-05,1.68024e-06,9.19259e-06,4.53387e-06,-3.23089e-06,7.78828e-06,-2.00428e-06,0
-3.36323e-05,8.48635e-06,-2.68382e-07,1.90158e-05,5.86551e-06,-2.33078e-06,7.70616e-06,-1.33937e-07,0
-3.30349e-05,4.86475e-06,-1.67144e-07,1.93276e-05,7.98405e-06,-2.4202e-06,8.46187e-06,-2.48841e-07,0
-2.97992e-05,6.48942e-06,1.78985e-07,1.2922e-05,9.54217e-06,-3.29728e-06,3.64533e-06,-1.71266e-06,0
-2.86494e-05,1.01655e-05,-6.21533e-07,7.44254e-06,9.65381e-06,-5.7333e-06,-1.22118e-05,-1.51894e-06,0
-2.9601e-05,1.2619e-05,-2.16683e-06,4.11233e-06,8.07117e-06,-7.72833e-06,-3.39394e-05,-2.38687e-07,0
-3.03374e-05,1.40962e-05,-4.09104e-06,4.49394e-08,7.36663e-06,-8.64044e-06,-4.77837e-05,1.21053e-07,0
-3.0397e-05,1.39582e-05,-5.8999e-06,-6.84784e-06,8.66171e-06,-9.70899e-06,-4.44928e-05,3.22214e-07,0
-2.99105e-05,1.27199e-05,-6.50524e-06,-1.25493e-05,1.19844e-05,-1.1772e-05,-2.8495e-05,-4.18564e-07,0
-2.98188e-05,1.07544e-05,-5.59001e-06,-1.27671e-05,1.53292e-05,-1.35675e-05,-8.45935e-06,-6.46098e-07,0
-2.99272e-05,8.49596e-06,-4.53188e-06,-9.35501e-06,1.70388e-05,-1.53586e-05,1.11794e-05,-2.20954e-07,0
-2.93613e-05,7.08221e-06,-3.76714e-06,-6.53403e-06,1.79042e-05,-1.78663e-05,2.70472e-05,5.3902e-07,0
-2.77065e-05,7.99656e-06,-4.30279e-06,-6.56979e-06,2.05741e-05,-2.00869e-05,3.77e-05,7.87389e-07,0
-2.62451e-05,1.10668e-05,-6.24739e-06,-8.32489e-06,2.46214e-05,-1.97026e-05,4.52384e-05,-7.44867e-08,0
-2.50255e-05,1.51763e-05,-8.70724e-06,-1.02208e-05,2.69661e-05,-1.70257e-05,5.10199e-05,-1.35774e-06,0
-2.4274e-05,1.96723e-05,-9.17615e-06,-1.1933e-05,2.49957e-05,-1.433e-05,5.36687e-05,-7.85577e-07,0
-2.4313e-05,2.29162e-05,-6.84522e-06,-1.53004e-05,2.00127e-05,-1.18258e-05,5.27716e-05,2.23857e-06,0
-2.51353e-05,2.39927e-05,-4.67854e-06,-1.79123e-05,1.64068e-05,-9.42663e-06,5.03749e-05,4.20867e-06,0
-2.49748e-05,2.38322e-05,-5.28292e-06,-1.70675e-05,1.47156e-05,-8.32922e-06,4.72166e-05,3.60198e-06,0
-2.34545e-05,2.28775e-05,-6.24957e-06,-1.49739e-05,1.33271e-05,-8.92264e-06,4.02818e-05,3.81594e-06,0
-2.34641e-05,2.09041e-05,-5.56196e-06,-1.15543e-05,1.24065e-05,-9.37215e-06,2.67703e-05,4.49204e-06,0
-2.57584e-05,1.82017e-05,-5.38922e-06,4.8598e-07,1.20866e-05,-1.03676e-05,1.36721e-05,3.61072e-06,0
-2.72919e-05,1.44771e-05,-6.87713e-06,1.47815e-05,1.1898e-05,-1.2282e-05,1.0395e-05,1.63609e-06,0
-2.79459e-05,9.47728e-06,-9.09916e-06,1.64384e-05,1.18069e-05,-1.44939e-05,1.44367e-05,-2.65148e-07,0
-2.89934e-05,5.1586e-06,-9.93477e-06,1.31651e-05,1.20029e-05,-1.60315e-05,2.09893e-05,5.01652e-08,0
-2.88013e-05,3.67493e-06,-8.64897e-06,1.3876e-05,1.68175e-05,-1.54973e-05,3.04159e-05,8.12497e-07,0
-2.79646e-05,2.25827e-06,-8.05447e-06,1.12204e-05,2.48616e-05,-1.44381e-05,3.57643e-05,1.12172e-06,0
-2.76847e-05,-1.85865e-07,-9.6295e-06,-2.46133e-07,2.95433e-05,-1.44595e-05,3.53454e-05,2.85282e-06,0
-2.72297e-05,-2.53606e-06,-1.21914e-05,-1.96899e-05,2.72032e-05,-1.59992e-05,3.59712e-05,4.93502e-06,0
-2.73988e-05,-4.22789e-06,-1.39912e-05,-3.69204e-05,2.16873e-05,-1.75654e-05,3.58874e-05,5.57202e-06,0
-2.96131e-05,-2.5291e-06,-1.36896e-05,-4.04872e-05,1.7174e-05,-1.67556e-05,3.16715e-05,4.17609e-06,0
-3.18916e-05,1.07215e-06,-1.07324e-05,-3.55185e-05,1.34109e-05,-1.4812e-05,2.36203e-05,2.6786e-07,0
-3.26201e-05,4.50995e-06,-7.21423e-06,-3.78733e-05,1.1735e-05,-1.30811e-05,1.4724e-05,-2.56317e-06,0
-3.10785e-05,6.1041e-06,-8.84706e-06,-5.26732e-05,1.12368e-05,-1.3455e-05,7.26458e-06,-1.91935e-06,0
-2.84912e-05,5.50659e-06,-1.30056e-05,-6.99885e-05,8.94058e-06,-1.59885e-05,2.14716e-06,9.00629e-07,0
-2.71651e-05,5.13386e-06,-1.56713e-05,-7.7572e-05,6.34306e-06,-1.83089e-05,-3.28606e-06,3.8791e-06,0
-2.76772e-05,6.65151e-06,-1.38675e-05,-6.79624e-05,5.57391e-06,-1.73224e-05,-8.97699e-06,6.1876e-06,0
-2.76228e-05,9.48776e-06,-8.57439e-06,-4.01068e-05,4.44294e-06,-1.45247e-05,-1.13507e-05,8.15197e-06,0
-2.52573e-05,1.16528e-05,-5.61768e-06,-7.61772e-07,1.59013e-06,-1.26378e-05,-9.38538e-06,9.20797e-06,0
-2.29871e-05,1.37512e-05,-6.18708e-06,3.67003e-05,-9.83668e-07,-1.16878e-05,-6.29643e-06,8.86306e-06,0
-2.30344e-05,1.5451e-05,-7.47154e-06,5.77878e-05,-1.32085e-06,-1.12192e-05,-4.6944e-06,7.79725e-06,0
-2.51692e-05,1.53061e-05,-7.29772e-06,5.64867e-05,-1.03289e-06,-1.02737e-05,-4.15211e-06,6.48668e-06,0
-2.73962e-05,1.28458e-05,-7.14895e-06,4.11447e-05,-7.32354e-07,-9.59295e-06,-3.63427e-06,4.54183e-06,0
-2.83719e-05,9.24092e-06,-8.18427e-06,2.54672e-05,-3.28498e-07,-1.03169e-05,-1.53341e-06,2.50742e-06,0
-2.80903e-05,6.15019e-06,-1.06471e-05,1.48424e-05,-9.8963e-07,-1.25977e-05,1.29501e-06,4.79141e-07,0
-2.81234e-05,4.10465e-06,-1.20438e-05,6.72642e-06,-2.85506e-06,-1.39129e-05,4.53763e-06,-1.89366e-06,0
-2.88275e-05,9.52968e-07,-1.09838e-05,1.19844e-06,-3.2101e-06,-1.35302e-05,6.01741e-06,-3.12623e-06,0
-2.94444e-05,-1.92209e-06,-9.44427e-06,-1.39131e-06,-1.26333e-06,-1.27333e-05,5.32844e-06,-2.52252e-06,0
-2.93105e-05,-1.80134e-06,-9.56718e-06,-1.61224e-06,1.29728e-06,-1.34493e-05,5.26166e-06,-2.42394e-06,0
-2.83117e-05,-6.71044e-07,-9.98568e-06,-2.76148e-07,2.80966e-06,-1.46329e-05,6.40126e-06,-2.96913e-06,0
-2.83422e-05,1.6084e-06,-1.0763e-05,1.40575e-06,4.03141e-06,-1.55486e-05,6.2899e-06,-3.37987e-06,0
-2.95779e-05,3.52721e-06,-1.10328e-05,2.78558e-06,5.07414e-06,-1.62573e-05,7.18389e-06,-3.49243e-06,0
-2.92689e-05,3.80019e-06,-1.16294e-05,6.60076e-06,5.143e-06,-1.54792e-05,1.07181e-05,-2.86228e-06,0
-2.88543e-05,4.95771e-06,-1.37277e-05,1.2485e-05,6.03892e-06,-1.35334e-05,1.41347e-05,-1.89207e-06,0
-2.99395e-05,7.63311e-06,-1.22522e-05,1.5534e-05,6.56685e-06,-1.15911e-05,1.56083e-05,-8.19684e-07,0
-3.01844e-05,9.93294e-06,-8.90825e-06,1.54519e-05,5.41083e-06,-1.18486e-05,1.38411e-05,-1.08593e-06,0
-2.93958e-05,1.08521e-05,-7.2746e-06,1.33022e-05,3.85324e-06,-1.29256e-05,1.10692e-05,-2.42698e-06,0
-2.90413e-05,1.03509e-05,-7.90651e-06,7.41626e-06,3.4796e-06,-1.1945e-05,8.73391e-06,-2.0137e-06,0
-2.91911e-05,1.06171e-05,-1.06828e-05,-4.54292e-06,4.6255e-06,-1.02486e-05,6.55977e-06,-9.68416e-07,0
-2.86595e-05,1.42786e-05,-1.28656e-05,-1.88654e-05,6.10677e-06,-8.76526e-06,6.00602e-06,-1.75717e-06,0
-2.98972e-05,1.80163e-05,-1.36564e-05,-2.76929e-05,4.73081e-06,-9.05455e-06,6.38271e-06,-4.68051e-06,0
-3.20925e-05,1.87054e-05,-1.31943e-05,-2.56285e-05,3.63161e-07,-1.11039e-05,6.60215e-06,-5.92014e-06,0
-3.29604e-05,1.60844e-05,-1.30032e-05,-1.79089e-05,-3.45697e-06,-1.24528e-05,6.7642e-06,-4.78879e-06,0
-3.30981e-05,1.23466e-05,-1.31129e-05,-1.36251e-05,-4.5716e-06,-1.15341e-05,4.31273e-06,-3.05899e-06,0
-3.2806e-05,1.04888e-05,-1.25345e-05,-1.58957e-05,-3.71191e-06,-9.99032e-06,-2.12197e-07,-1.83401e-06,0
-3.23114e-05,1.16201e-05,-1.10261e-05,-1.73586e-05,-2.14585e-06,-1.02416e-05,-3.54287e-06,-1.98431e-06,0
-3.22632e-05,1.38761e-05,-9.99212e-06,-4.31477e-06,1.81118e-06,-1.15494e-05,-3.01898e-06,-2.12518e-06,0
-3.36851e-05,1.52362e-05,-1.0461e-05,2.81643e-05,7.33029e-06,-1.27432e-05,2.45543e-06,-1.51895e-06,0
-3.51673e-05,1.6032e-05,-1.00129e-05,6.38078e-05,1.22325e-05,-1.33207e-05,1.09763e-05,-1.17743e-06,0
-3.48169e-05,1.76558e-05,-7.97401e-06,8.24673e-05,1.70979e-05,-1.34219e-05,1.87735e-05,-1.23887e-06,0
-3.23462e-05,2.09492e-05,-5.12382e-06,8.45069e-05,2.14814e-05,-1.29404e-05,2.31992e-05,8.4926e-07,0
-2.99746e-05,2.44438e-05,-3.56858e-06,7.83353e-05,2.42642e-05,-1.33175e-05,2.44524e-05,4.10596e-06,0
-2.84053e-05,2.71224e-05,-4.1962e-06,6.45344e-05,2.62933e-05,-1.47495e-05,2.47591e-05,5.54353e-06,0
-2.83086e-05,2.89149e-05,-7.00516e-06,3.93649e-05,2.75317e-05,-1.59842e-05,2.54153e-05,3.88922e-06,0
-3.01216e-05,2.91308e-05,-9.36502e-06,4.75554e-06,2.62585e-05,-1.62637e-05,2.56334e-05,1.91344e-06,0
-3.24406e-05,2.7126e-05,-1.03145e-05,-2.98868e-05,2.33096e-05,-1.63139e-05,2.48898e-05,2.2153e-06,0
-3.31558e-05,2.62679e-05,-1.16873e-05,-5.50744e-05,2.16358e-05,-1.64647e-05,2.49307e-05,3.84937e-06,0
-3.16658e-05,2.74947e-05,-1.25345e-05,-7.04332e-05,2.35616e-05,-1.69799e-05,2.61138e-05,3.16034e-06,0
-3.02745e-05,2.75564e-05,-1.39666e-05,-8.06946e-05,2.65818e-05,-1.81263e-05,2.5652e-05,-3.67906e-07,0
-3.16655e-05,2.54294e-05,-1.86089e-05,-9.26919e-05,2.82859e-05,-2.03412e-05,2.41657e-05,-2.58001e-06,0
-3.34272e-05,2.40475e-05,-2.39401e-05,-0.000104438,2.83303e-05,-2.32632e-05,2.33497e-05,-1.68833e-06,0
-3.37178e-05,2.40128e-05,-2.73062e-05,-0.000111813,2.68089e-05,-2.53963e-05,2.23217e-05,-5.08577e-07,0
-3.38909e-05,2.15609e-05,-2.91553e-05,-0.000109233,2.55809e-05,-2.63745e-05,1.93966e-05,7.23039e-08,0
-3.20122e-05,1.73745e-05,-2.92717e-05,-9.86173e-05,2.39869e-05,-2.66576e-05,1.59325e-05,1.59624e-06,0
-2.95512e-05,1.46399e-05,-2.75028e-05,-8.85851e-05,2.33913e-05,-2.56899e-05,1.39619e-05,5.46501e-06,0
-2.71962e-05,1.33003e-05,-2.38422e-05,-7.45167e-05,2.27214e-05,-2.29134e-05,1.42088e-05,8.12667e-06,0
-2.55118e-05,1.27954e-05,-1.95893e-05,-5.20297e-05,2.07953e-05,-1.99611e-05,1.4096e-05,7.56116e-06,0
-2.6849e-05,1.25621e-05,-1.54124e-05,-1.80464e-05,1.84859e-05,-1.84147e-05,1.24885e-05,6.86118e-06,0
-2.98696e-05,1.38748e-05,-1.1749e-05,1.8867e-05,1.60797e-05,-1.80536e-05,1.17674e-05,5.75827e-06,0
-3.1691e-05,1.61465e-05,-9.50265e-06,4.59374e-05,1.55382e-05,-1.80243e-05,1.11994e-05,4.34112e-06,0
-3.22864e-05,1.70973e-05,-9.21844e-06,5.4074e-05,1.78181e-05,-1.72592e-05,1.10843e-05,2.91579e-06,0
-3.29655e-05,1.66156e-05,-8.74615e-06,4.33861e-05,2.29691e-05,-1.41148e-05,1.27603e-05,2.82343e-06,0
-3.33805e-05,1.66265e-05,-6.07728e-06,2.75278e-05,2.91954e-05,-9.4852e-06,1.54549e-05,5.04359e-06,0
-3.30936e-05,1.85506e-05,-2.60329e-06,1.74362e-05,3.27681e-05,-5.20038e-06,1.64658e-05,8.07079e-06,0
-3.22608e-05,2.02754e-05,-5.96153e-07,1.06489e-05,3.13967e-05,-3.07522e-06,1.65444e-05,8.91865e-06,0
-3.14202e-05,2.03289e-05,-1.52937e-06,7.6552e-07,2.68422e-05,-3.36755e-06,1.7361e-05,7.70437e-06,0
-3.05378e-05,1.81428e-05,-3.90921e-06,-7.95929e-06,2.13193e-05,-4.67831e-06,1.84577e-05,5.58378e-06,0
-3.02494e-05,1.57874e-05,-5.99158e-06,-8.31391e-06,1.74715e-05,-5.9748e-06,1.94186e-05,3.57074e-06,0
-3.08913e-05,1.49202e-05,-7.2888e-06,-3.59465e-07,1.70076e-05,-6.84468e-06,2.10055e-05,2.1144e-06,0
-3.15492e-05,1.48097e-05,-7.32111e-06,8.35377e-06,1.92832e-05,-8.14113e-06,2.25911e-05,3.32933e-07,0
-3.10857e-05,1.39007e-05,-6.44664e-06,1.06878e-05,2.12923e-05,-1.06231e-05,2.23785e-05,-1.57194e-06,0
-3.07272e-05,1.2129e-05,-5.21195e-06,5.49267e-06,2.15314e-05,-1.31596e-05,2.04229e-05,-2.25463e-06,0
-3.10427e-05,1.21949e-05,-4.03305e-06,1.07694e-07,2.05654e-05,-1.37251e-05,1.72584e-05,-8.90081e-07,0
-3.09688e-05,1.53576e-05,-3.06244e-06,-3.6191e-07,1.93166e-05,-1.16776e-05,1.55905e-05,3.66753e-07,0
-3.00265e-05,1.70203e-05,-2.9102e-06,3.37977e-06,1.97022e-05,-9.7122e-06,1.58088e-05,-6.92229e-07,0
-2.76767e-05,1.63005e-05,-2.06434e-06,9.7513e-06,2.12263e-05,-8.56398e-06,1.4274e-05,-2.0051e-06,0
-2.53272e-05,1.68138e-05,-2.86827e-07,1.72438e-05,2.24892e-05,-7.43283e-06,1.18754e-05,-2.70259e-06,0
-2.49233e-05,1.57465e-05,-7.53941e-07,2.30211e-05,2.21323e-05,-6.42599e-06,1.46761e-05,-2.97604e-06,0
-2.53382e-05,1.30636e-05,-1.15809e-06,2.57425e-05,1.794e-05,-7.09311e-06,2.29202e-05,-3.26216e-06,0
-2.60561e-05,1.20778e-05,-7.85035e-07,2.58315e-05,1.23766e-05,-9.52107e-06,2.96327e-05,-4.41201e-06,0
-2.76419e-05,1.21213e-05,2.81944e-07,2.34933e-05,9.10657e-06,-9.14438e-06,3.13693e-05,-5.22211e-06,0
-2.87687e-05,1.11872e-05,1.24599e-06,1.75411e-05,8.84003e-06,-6.44498e-06,2.97505e-05,-5.30518e-06,0
-2.73669e-05,8.69979e-06,1.07489e-06,8.2075e-06,9.26421e-06,-4.12373e-06,2.74032e-05,-4.38901e-06,0
-2.48164e-05,6.70151e-06,4.27998e-07,4.25132e-07,8.25319e-06,-3.47983e-06,2.48096e-05,-3.60713e-06,0
-2.54522e-05,5.80504e-06,-5.73798e-07,-4.26866e-06,6.24222e-06,-4.23884e-06,2.03476e-05,-3.50809e-06,0
-2.79005e-05,5.71426e-06,-4.37268e-07,-9.43999e-06,3.82737e-06,-5.26791e-06,1.64193e-05,-5.11742e-06,0
-2.82009e-05,6.14276e-06,5.11203e-07,-1.74084e-05,1.21175e-06,-5.30228e-06,1.35686e-05,-5.99464e-06,0
-2.58488e-05,5.90337e-06,1.30063e-06,-2.54986e-05,-1.22134e-06,-4.33681e-06,8.42393e-06,-4.93757e-06,0
-2.41812e-05,4.28333e-06,1.53609e-06,-2.95829e-05,-1.74991e-06,-4.03748e-06,1.50476e-06,-3.06595e-06,0
-2.53587e-05,2.89974e-06,2.15705e-06,-2.85689e-05,-1.46693e-06,-4.3155e-06,-5.33571e-06,-1.744e-06,0
-2.83226e-05,2.54024e-06,2.02911e-06,-2.45736e-05,-1.32531e-06,-4.81118e-06,-1.33817e-05,-1.7133e-06,0
-3.01296e-05,3.09778e-06,1.45303e-06,-2.03731e-05,-9.89284e-07,-5.65854e-06,-2.37662e-05,-1.52253e-06,0
-2.92853e-05,4.77625e-06,1.68896e-06,-1.68281e-05,4.67252e-07,-6.41091e-06,-3.2497e-05,-1.3883e-06,0
-2.73446e-05,6.07333e-06,1.87812e-06,-1.3965e-05,1.98665e-06,-5.84195e-06,-3.53131e-05,-1.14989e-06,0
-2.60964e-05,6.73927e-06,5.12815e-07,-1.31987e-05,1.4851e-06,-4.41966e-06,-3.23011e-05,-6.33245e-07,0
-2.57934e-05,7.83281e-06,-2.05811e-06,-1.4137e-05,1.39253e-07,-2.4269e-06,-2.56272e-05,2.70802e-07,0
-2.58377e-05,9.33195e-06,-4.43963e-06,-1.4467e-05,3.09534e-07,-4.80144e-07,-1.62385e-05,8.19687e-07,0
-2.70535e-05,1.01431e-05,-5.35723e-06,-1.08647e-05,2.87996e-06,-1.02945e-06,-6.26301e-06,1.4203e-06,0
-2.79639e-05,1.17532e-05,-5.20496e-06,-2.13148e-06,7.3045e-06,-3.16871e-06,-1.27743e-07,1.28426e-06,0
-2.76057e-05,1.44035e-05,-5.24611e-06,7.70795e-06,1.05175e-05,-4.49512e-06,1.85216e-06,4.30711e-07,0
-2.7805e-05,1.50287e-05,-5.38158e-06,1.63273e-05,1.18889e-05,-5.29389e-06,2.24106e-06,-2.07874e-07,0
-2.95911e-05,1.13451e-05,-4.58315e-06,2.44513e-05,1.32031e-05,-5.9551e-06,3.11186e-06,1.54763e-06,0
-3.15909e-05,7.13472e-06,-4.18611e-06,2.75515e-05,1.36038e-05,-4.77139e-06,5.92855e-06,5.80444e-06,0
-3.16963e-05,7.36183e-06,-6.82908e-06,2.10558e-05,1.24968e-05,-3.63551e-06,1.01551e-05,7.49744e-06,0
-3.05209e-05,1.02424e-05,-1.02949e-05,8.40842e-06,1.28472e-05,-6.00146e-06,1.19686e-05,5.8487e-06,0
-2.90448e-05,1.1124e-05,-1.13533e-05,-2.82662e-06,1.5448e-05,-8.24862e-06,1.10684e-05,3.45831e-06,0
-2.78222e-05,9.17719e-06,-1.0883e-05,-1.18939e-05,1.67173e-05,-8.03141e-06,1.1463e-05,1.63996e-06,0
-2.72345e-05,6.48421e-06,-1.09637e-05,-1.60533e-05,1.7471e-05,-5.83182e-06,1.34003e-05,5.36591e-09,0
-2.78478e-05,5.65911e-06,-1.08734e-05,-1.095e-05,1.83254e-05,-3.15945e-06,1.53765e-05,-1.08473e-06,0
-2.86368e-05,6.10023e-06,-1.01887e-05,-1.80524e-06,1.82591e-05,-1.70335e-06,1.68839e-05,-2.4054e-06,0
-2.90329e-05,6.38645e-06,-7.91643e-06,8.70479e-06,1.62573e-05,-2.74018e-06,1.78265e-05,-4.07734e-06,0
-3.00635e-05,6.59203e-06,-5.42717e-06,1.881e-05,1.35282e-05,-5.38268e-06,1.84417e-05,-3.63092e-06,0
-3.00607e-05,4.95783e-06,-3.68768e-06,2.25767e-05,1.19198e-05,-7.22271e-06,1.91846e-05,-3.16799e-06,0
-3.04159e-05,8.6666e-07,-2.11604e-06,1.76065e-05,1.30395e-05,-6.54124e-06,1.94967e-05,-4.07584e-06,0
-3.13755e-05,-3.86494e-06,-6.94676e-07,9.28873e-06,1.6462e-05,-4.14976e-06,1.87064e-05,-5.20333e-06,0
-3.25835e-05,-5.95819e-06,-5.0781e-07,3.57558e-07,1.87467e-05,-2.83894e-06,1.85881e-05,-5.54877e-06,0
-3.30432e-05,-4.46753e-06,-2.11972e-06,-7.50354e-06,1.79546e-05,-3.25502e-06,1.94877e-05,-5.66351e-06,0
-3.27063e-05,-1.364e-06,-3.17714e-06,-1.13753e-05,1.47117e-05,-3.98352e-06,1.97007e-05,-4.8402e-06,0
-3.31866e-05,9.07301e-08,-2.34395e-06,-1.1546e-05,1.09497e-05,-2.39937e-06,1.96332e-05,-2.44423e-06,0
-3.44952e-05,-1.4275e-06,-1.42671e-06,-9.40232e-06,8.06512e-06,-7.01462e-07,2.04764e-05,-1.11121e-06,0
-3.62471e-05,-3.38919e-06,-3.11251e-06,-7.54179e-06,7.37743e-06,-1.35445e-06,2.12552e-05,-1.0209e-06,0
-3.70831e-05,-3.21013e-06,-6.12616e-06,-7.70961e-06,8.36528e-06,-4.11246e-06,2.09398e-05,-7.70229e-07,0
-3.71808e-05,-2.67586e-06,-8.3846e-06,-9.20808e-06,9.96274e-06,-6.29215e-06,2.02364e-05,-1.53525e-07,0
-3.6412e-05,-3.3109e-06,-9.28303e-06,-1.05091e-05,9.05398e-06,-6.8145e-06,1.98455e-05,7.91299e-07,0
-3.50312e-05,-3.83827e-06,-9.91453e-06,-1.467e-05,5.02931e-06,-6.39878e-06,1.9924e-05,3.03017e-06,0
-3.38269e-05,-3.11175e-06,-1.15991e-05,-2.14013e-05,5.64293e-07,-5.4413e-06,1.9613e-05,5.20018e-06,0
-3.34456e-05,-1.87128e-06,-1.31751e-05,-2.48984e-05,-1.23104e-06,-4.5514e-06,1.81716e-05,7.54308e-06,0
-3.32072e-05,-1.36592e-06,-1.38656e-05,-2.46393e-05,1.14448e-06,-5.18134e-06,1.60463e-05,9.67287e-06,0
-3.33237e-05,-7.93443e-08,-1.43317e-05,-2.30841e-05,4.38603e-06,-7.10327e-06,1.49631e-05,9.87265e-06,0
-3.42088e-05,2.29751e-06,-1.48159e-05,-1.99477e-05,5.84112e-06,-9.53695e-06,1.5365e-05,8.88329e-06,0
-3.57948e-05,4.61074e-06,-1.39382e-05,-1.10251e-05,4.6737e-06,-1.21127e-05,1.7418e-05,8.19483e-06,0
-3.66853e-05,5.33565e-06,-1.21447e-05,5.29065e-06,3.4574e-06,-1.28935e-05,1.90124e-05,7.98249e-06,0
-3.62751e-05,5.34291e-06,-1.27133e-05,1.99738e-05,3.09941e-06,-1.14061e-05,1.86401e-05,6.94344e-06,0
-3.49002e-05,7.7298e-06,-1.28006e-05,2.07607e-05,2.71134e-06,-1.04182e-05,1.82776e-05,6.12663e-06,0
-3.41257e-05,1.12965e-05,-1.18649e-05,1.10329e-05,3.65694e-06,-1.11961e-05,1.79533e-05,4.88593e-06,0
-3.56706e-05,1.44548e-05,-1.24539e-05,3.87309e-06,4.22104e-06,-1.09737e-05,1.79816e-05,3.63414e-06,0
-3.74404e-05,1.73008e-05,-1.32343e-05,5.35655e-07,5.12091e-06,-1.17617e-05,1.81632e-05,4.43758e-06,0
-3.67309e-05,1.86264e-05,-1.30378e-05,-4.80511e-06,7.95468e-06,-1.31707e-05,1.59912e-05,5.73146e-06,0
-3.52227e-05,1.74052e-05,-1.28898e-05,-1.59813e-05,1.10033e-05,-1.32019e-05,8.89648e-06,5.67089e-06,0
-3.4579e-05,1.58355e-05,-1.46175e-05,-2.9922e-05,1.22915e-05,-1.18122e-05,1.46729e-06,5.3103e-06,0
-3.44622e-05,1.56183e-05,-1.51332e-05,-3.86051e-05,1.31971e-05,-9.89619e-06,-1.87924e-06,6.80919e-06,0
-3.45323e-05,1.70876e-05,-1.29956e-05,-3.86464e-05,1.38804e-05,-8.34744e-06,-1.89914e-06,8.5512e-06,0
-3.43733e-05,1.96939e-05,-1.09053e-05,-3.32918e-05,1.382e-05,-7.36686e-06,6.93392e-07,8.01639e-06,0
-3.45827e-05,2.1995e-05,-1.02817e-05,-2.24589e-05,1.3871e-05,-8.16931e-06,4.93915e-06,5.98727e-06,0
-3.45812e-05,2.36655e-05,-1.13537e-05,-2.82824e-06,1.46827e-05,-9.54266e-06,1.07616e-05,5.99197e-06,0
-3.44448e-05,2.48603e-05,-1.3464e-05,2.24756e-05,1.63576e-05,-9.39233e-06,1.75389e-05,7.42002e-06,0
-3.51587e-05,2.51493e-05,-1.52059e-05,4.49995e-05,1.74751e-05,-7.47035e-06,2.2659e-05,7.7792e-06,0
-3.68184e-05,2.4479e-05,-1.50373e-05,5.71855e-05,1.91292e-05,-5.30711e-06,2.42093e-05,7.5753e-06,0
-3.69439e-05,2.43594e-05,-1.31427e-05,5.81544e-05,2.12207e-05,-4.69991e-06,2.40015e-05,7.61999e-06,0
-3.57789e-05,2.56643e-05,-1.12521e-05,4.89954e-05,2.07582e-05,-6.11602e-06,2.38101e-05,8.13222e-06,0
-3.48205e-05,2.77175e-05,-9.8788e-06,2.89255e-05,1.57197e-05,-8.07008e-06,2.34644e-05,8.09502e-06,0
-3.36073e-05,2.84578e-05,-9.5058e-06,4.16711e-06,1.01693e-05,-1.00198e-05,2.19438e-05,4.88757e-06,0
-3.25061e-05,2.85393e-05,-9.90543e-06,-1.50717e-05,7.64424e-06,-1.11492e-05,2.06807e-05,-3.43861e-07,0
-3.27991e-05,2.78392e-05,-9.31323e-06,-2.52935e-05,7.5188e-06,-1.08468e-05,2.02242e-05,-2.54928e-06,0
-3.39983e-05,2.54843e-05,-7.69499e-06,-2.68492e-05,7.99524e-06,-9.77288e-06,2.10692e-05,-2.87624e-06,0
-3.43412e-05,2.39908e-05,-7.5389e-06,-2.37516e-05,8.94668e-06,-9.13304e-06,2.29983e-05,-3.41487e-06,0
-3.2977e-05,2.401e-05,-9.05412e-06,-1.91358e-05,1.19831e-05,-9.75419e-06,2.41892e-05,-3.01743e-06,0
-3.06168e-05,2.46819e-05,-1.07418e-05,-1.56204e-05,1.67365e-05,-1.11142e-05,2.55472e-05,-9.46614e-07,0
-3.03237e-05,2.54933e-05,-1.22306e-05,-1.56977e-05,2.07607e-05,-1.03018e-05,2.34241e-05,3.41735e-07,0
-3.13512e-05,2.48768e-05,-1.23922e-05,-1.91567e-05,2.11958e-05,-6.8481e-06,1.74741e-05,1.67997e-07,0
-3.08768e-05,2.1652e-05,-1.16694e-05,-2.26504e-05,1.91212e-05,-3.53681e-06,1.3525e-05,9.08049e-07,0
-3.0189e-05,1.67927e-05,-1.06501e-05,-2.03126e-05,1.84937e-05,-1.74167e-06,1.30618e-05,1.86087e-06,0
