ch1,ch2,ch3,ch4,ch5,ch6,ch7,ch8,class
-4.34816e-05,0.000138783,2.92664e-05,-0.000123689,1.50677e-05,-1.41265e-06,5.31006e-05,-2.26204e-05,0
-3.23046e-05,8.27115e-05,4.19946e-05,-6.84714e-05,8.62819e-06,3.25459e-06,5.6949e-05,-1.80257e-05,0
2.49485e-05,-3.46052e-05,5.5594e-05,-1.59589e-05,5.40963e-06,2.8356e-06,5.53232e-05,-1.31424e-05,0
0.000101466,-0.000112789,6.00131e-05,2.3609e-05,8.02179e-07,-1.04615e-06,4.61361e-05,-9.03582e-06,0
0.000128517,-9.6226e-05,4.9003e-05,3.64151e-05,-7.20352e-06,-5.00986e-06,3.03967e-05,-3.46863e-06,0
9.56131e-05,-1.75458e-06,2.5429e-05,2.21983e-05,-1.11937e-05,-7.25306e-06,1.42729e-05,1.42434e-06,0
5.05075e-05,0.000133167,-4.21483e-06,7.88372e-06,-4.91031e-06,-6.92528e-06,4.93225e-06,1.92442e-06,0
2.57311e-05,0.000275359,-3.89117e-05,-1.10001e-05,3.07839e-06,-7.28725e-06,3.7586e-06,1.92046e-06,0
1.63814e-05,0.000389299,-7.80771e-05,-3.72072e-05,4.53e-07,-8.85888e-06,1.01206e-05,4.30915e-06,0
1.45339e-05,0.000426229,-9.78169e-05,-5.16888e-05,-3.91247e-06,-8.93014e-06,2.28094e-05,6.81514e-06,0
1.6609e-05,0.00038388,-8.76328e-05,-6.55403e-05,3.6412e-06,-7.85232e-06,3.91428e-05,8.45695e-06,0
1.84372e-05,0.000286351,-6.47032e-05,-9.05916e-05,1.32701e-05,-6.07956e-06,5.14525e-05,8.42486e-06,0
1.24573e-05,0.000123869,-3.96543e-05,-9.64405e-05,1.28692e-05,-6.5358e-06,5.28527e-05,9.19831e-06,0
-7.07191e-06,-8.05173e-05,-2.06143e-05,-4.99477e-05,1.10897e-05,-9.94104e-06,4.8087e-05,1.08061e-05,0
-3.43629e-05,-0.000280398,-8.54811e-06,2.71798e-05,1.72379e-05,-1.57172e-05,4.37927e-05,1.01231e-05,0
-5.45342e-05,-0.00038618,-3.38235e-06,5.81883e-05,2.74617e-05,-2.18567e-05,4.19583e-05,7.10069e-06,0
-5.77566e-05,-0.000342771,-3.80193e-06,1.70767e-05,3.06545e-05,-2.40914e-05,3.87187e-05,4.63499e-06,0
-4.87674e-05,-0.000197796,-9.70013e-06,-4.89511e-05,2.49093e-05,-2.23326e-05,3.23624e-05,3.64865e-06,0
-3.48715e-05,-6.66873e-05,-1.79994e-05,-8.39699e-05,2.0598e-05,-1.68124e-05,2.47876e-05,3.79002e-06,0
-1.17896e-05,-5.264e-06,-2.5025e-05,-5.47472e-05,2.12262e-05,-9.7018e-06,1.71401e-05,4.84916e-06,0
2.09759e-05,1.385e-05,-3.1108e-05,9.58969e-06,2.35139e-05,-4.17594e-06,1.02203e-05,6.17098e-06,0
4.49092e-05,2.54899e-05,-3.29216e-05,3.84179e-05,2.18361e-05,-1.48608e-06,2.0032e-06,6.00432e-06,0
4.65336e-05,3.88774e-05,-2.98065e-05,9.0213e-06,1.70786e-05,2.70449e-07,-1.16899e-05,4.98707e-06,0
2.96886e-05,4.76752e-05,-2.42429e-05,-3.35582e-05,1.27153e-05,1.05512e-06,-3.12048e-05,4.7382e-06,0
6.08085e-06,5.82857e-05,-2.02367e-05,-4.88022e-05,1.00899e-05,-5.46889e-07,-5.04878e-05,4.54861e-06,0
-1.55606e-05,7.37742e-05,-1.71946e-05,-3.22736e-05,9.54084e-06,-3.03188e-06,-6.23136e-05,4.4191e-06,0
-2.91087e-05,9.06435e-05,-1.41813e-05,-8.98972e-06,1.03921e-05,-4.85282e-06,-6.13147e-05,3.49555e-06,0
-3.16893e-05,0.000101979,-1.29835e-05,-5.76784e-07,1.14076e-05,-6.41413e-06,-4.98533e-05,1.60841e-06,0
-3.03742e-05,0.000115095,-1.61743e-05,4.22569e-06,1.33566e-05,-8.65815e-06,-3.36521e-05,1.41127e-06,0
-3.29898e-05,0.000134864,-2.19765e-05,2.7695e-05,1.81288e-05,-1.02725e-05,-1.43448e-05,2.72163e-06,0
-3.99412e-05,0.00014763,-3.08088e-05,6.80907e-05,2.37967e-05,-9.76681e-06,5.51512e-06,2.41162e-06,0
-4.64671e-05,0.00011757,-4.39566e-05,0.000105307,2.80792e-05,-7.67452e-06,2.24234e-05,1.42492e-06,0
-4.72075e-05,5.96425e-05,-4.6157e-05,0.000124577,2.61707e-05,-7.82623e-06,3.41965e-05,2.49161e-06,0
-4.28467e-05,4.81486e-05,-2.57519e-05,0.000126126,1.55913e-05,-1.12193e-05,3.81107e-05,4.91441e-06,0
-3.69583e-05,0.000110375,-9.7959e-08,0.000108612,8.58275e-06,-1.21771e-05,3.74963e-05,5.88183e-06,0
-3.73264e-05,0.000194895,1.45076e-05,3.31268e-05,1.28039e-05,-1.11612e-05,3.87463e-05,5.73008e-06,0
-5.04692e-05,0.000182054,1.69625e-05,-8.36435e-05,1.59456e-05,-1.22324e-05,3.80795e-05,4.50606e-06,0
-7.09826e-05,5.19842e-05,1.46364e-05,-0.000171072,1.56964e-05,-1.21529e-05,3.3818e-05,3.11549e-06,0
-9.06248e-05,-9.40451e-05,1.65026e-05,-0.000216096,1.70954e-05,-1.07921e-05,3.1234e-05,2.42288e-06,0
-9.41603e-05,-0.000198644,2.12089e-05,-0.000216088,1.53288e-05,-1.21766e-05,2.9427e-05,8.02146e-07,0
-7.91608e-05,-0.000213052,2.06526e-05,-0.000165667,8.3356e-06,-1.69649e-05,2.85103e-05,-4.39305e-07,0
-6.39064e-05,-0.000153004,1.50832e-05,-7.34972e-05,3.11898e-07,-2.07354e-05,2.92379e-05,1.02817e-06,0
-6.01005e-05,-8.92264e-05,1.32798e-05,2.14372e-05,-4.93457e-06,-1.97407e-05,3.03864e-05,4.13645e-06,0
-6.10121e-05,-5.48281e-05,1.5408e-05,7.64852e-05,-8.68817e-06,-1.55873e-05,2.9584e-05,4.3831e-06,0
-5.16551e-05,-2.49889e-05,1.80155e-05,7.5056e-05,-5.69674e-06,-9.64229e-06,2.60211e-05,1.75627e-06,0
-3.23767e-05,9.40631e-06,1.72077e-05,2.40646e-05,5.85244e-06,-2.42541e-06,2.08425e-05,-4.72292e-07,0
-1.54244e-05,2.41101e-05,1.06409e-05,-5.33644e-05,1.38516e-05,2.53995e-06,1.07194e-05,-5.41477e-07,0
-4.57561e-06,1.82152e-05,-1.2084e-06,-0.000106152,1.33015e-05,3.84093e-06,-9.42598e-06,8.0492e-07,0
2.56035e-06,1.50445e-05,-1.16272e-05,-8.45046e-05,1.28183e-05,2.53045e-06,-3.54427e-05,1.48775e-06,0
3.51405e-06,4.61518e-05,-1.64158e-05,-3.85064e-06,2.1046e-05,-3.55019e-07,-5.2688e-05,1.79276e-06,0
-5.87396e-06,9.3693e-05,-1.72557e-05,8.26442e-05,3.38242e-05,-2.03389e-06,-5.18334e-05,2.02859e-06,0
-2.45195e-05,0.000115502,-1.8539e-05,0.000132731,4.18325e-05,-2.93191e-06,-3.59493e-05,2.1078e-06,0
-4.81967e-05,8.67561e-05,-2.32271e-05,0.000144096,4.04197e-05,-6.41296e-06,-1.48003e-05,2.8579e-06,0
-7.03388e-05,2.58627e-05,-2.77428e-05,0.000143401,3.24968e-05,-1.26491e-05,5.23953e-06,3.28293e-06,0
-8.50152e-05,-3.51137e-05,-2.79012e-05,0.00015593,2.45541e-05,-1.61557e-05,2.25418e-05,1.45586e-06,0
-9.13977e-05,-5.99162e-05,-2.50497e-05,0.000165541,2.08388e-05,-1.27145e-05,3.65362e-05,-5.50304e-07,0
-8.76032e-05,-4.18832e-05,-2.12321e-05,0.000157702,2.067e-05,-3.57986e-06,4.49755e-05,-1.03642e-06,0
-7.62897e-05,-7.50664e-06,-1.3463e-05,0.000139173,1.93754e-05,4.01043e-06,4.62742e-05,-8.02763e-07,0
-7.16658e-05,2.01052e-05,-1.25728e-06,0.000114297,1.50036e-05,4.12294e-06,4.25624e-05,1.03151e-06,0
-8.66427e-05,4.26938e-05,1.29851e-05,7.53814e-05,1.37391e-05,1.00172e-06,3.82729e-05,2.48855e-06,0
-0.000118314,5.76994e-05,2.32211e-05,2.15654e-05,1.6435e-05,-2.33612e-06,3.5882e-05,1.59501e-06,0
-0.000143149,6.50451e-05,2.77516e-05,-4.0132e-05,1.49824e-05,-4.15721e-06,3.48978e-05,1.13982e-06,0
-0.000126859,8.64595e-05,3.11239e-05,-0.000115002,1.00343e-05,-1.33447e-06,3.4905e-05,-2.32172e-08,0
-6.08662e-05,0.000138789,3.38785e-05,-0.000174393,8.52836e-06,3.24891e-06,3.45513e-05,-1.77289e-06,0
1.52741e-05,0.000209133,3.31283e-05,-0.000169873,1.10702e-05,7.08846e-06,3.20133e-05,-1.21901e-06,0
5.43447e-05,0.00024915,2.69204e-05,-0.000105579,1.2757e-05,8.92311e-06,2.8574e-05,-4.70367e-08,0
4.57498e-05,0.000221313,1.90869e-05,-4.8271e-05,1.19812e-05,7.51501e-06,2.48675e-05,9.10145e-07,0
1.29073e-05,0.000123075,1.16728e-05,-4.01368e-05,1.03438e-05,3.35412e-06,2.04895e-05,2.13118e-06,0
-1.26671e-05,-2.08269e-05,1.82027e-06,-4.65429e-05,1.05988e-05,-8.90022e-07,1.49626e-05,3.32677e-06,0
-2.04239e-05,-0.000176073,-7.95527e-06,-3.22702e-05,1.47477e-05,-2.78003e-06,1.13426e-05,3.02043e-06,0
-1.8453e-05,-0.000266548,-1.55542e-05,-3.67634e-06,2.15451e-05,-2.35056e-06,1.02316e-05,2.22417e-06,0
-1.57743e-05,-0.000269128,-1.81354e-05,6.41009e-06,2.47668e-05,-2.76848e-06,9.91424e-06,3.70072e-06,0
-1.68323e-05,-0.000223624,-1.59002e-05,-1.15624e-05,2.12777e-05,-6.33488e-06,9.89328e-06,4.75042e-06,0
-2.27618e-05,-0.000141539,-1.0258e-05,-3.60728e-05,1.58043e-05,-9.60918e-06,6.5673e-06,3.18416e-06,0
-2.71531e-05,-3.74821e-05,-1.50623e-06,-4.34038e-05,1.08135e-05,-1.23773e-05,-1.18459e-06,8.66177e-07,0
-1.95643e-05,5.50801e-05,8.08649e-06,-2.30849e-05,6.19925e-06,-1.50097e-05,-1.0293e-05,-9.0983e-07,0
4.32603e-06,0.000108937,1.55356e-05,1.27895e-05,4.68641e-06,-1.44161e-05,-1.57564e-05,2.02745e-06,0
3.60043e-05,0.000107488,1.79213e-05,3.8074e-05,7.00962e-06,-9.78037e-06,-1.62859e-05,1.50024e-05,0
5.59495e-05,4.42054e-05,1.33222e-05,2.03348e-05,8.0599e-06,-6.84029e-06,-1.42945e-05,3.22593e-05,0
5.30704e-05,-5.80469e-05,1.4917e-07,-3.7638e-05,3.66071e-06,-9.67452e-06,-1.2866e-05,4.20437e-05,0
3.22267e-05,-0.000152292,-1.83382e-05,-9.569e-05,-3.31811e-06,-1.49815e-05,-9.29784e-06,4.37834e-05,0
5.03495e-06,-0.00018796,-3.54594e-05,-0.000112769,-7.90296e-06,-1.79668e-05,-2.98282e-06,4.09334e-05,0
-2.13914e-05,-0.000147111,-4.3778e-05,-7.55304e-05,-9.32812e-06,-1.80664e-05,2.9544e-06,2.90301e-05,0
-4.30141e-05,-7.80905e-05,-4.28432e-05,1.34341e-05,-8.16244e-06,-1.7608e-05,7.90005e-06,6.29345e-06,0
-5.79354e-05,-5.56701e-05,-3.72694e-05,9.79795e-05,-4.38247e-06,-1.61656e-05,1.25788e-05,-1.82952e-05,0
-6.93274e-05,-7.66098e-05,-3.14218e-05,0.000113567,1.05398e-06,-1.29953e-05,1.58556e-05,-3.51659e-05,0
-7.48955e-05,-7.37708e-05,-2.70795e-05,8.11643e-05,8.14223e-06,-1.04157e-05,1.64157e-05,-4.12932e-05,0
-6.20475e-05,-2.94314e-05,-2.4396e-05,5.655e-05,1.35527e-05,-9.97521e-06,1.71239e-05,-4.00897e-05,0
-3.368e-05,2.4663e-05,-2.0871e-05,4.58425e-05,1.18586e-05,-8.51183e-06,1.96462e-05,-3.81917e-05,0
-2.46308e-06,6.52225e-05,-1.54846e-05,8.37985e-06,5.42216e-06,-4.71181e-06,2.33859e-05,-3.77576e-05,0
1.86333e-05,7.96319e-05,-1.39712e-05,-5.16054e-05,3.77443e-08,-1.54624e-06,2.48496e-05,-3.54017e-05,0
2.61143e-05,8.88561e-05,-1.68019e-05,-7.61646e-05,-1.63799e-06,-1.78319e-06,1.14768e-05,-3.20548e-05,0
3.08476e-05,0.000140579,-2.18395e-05,-3.45634e-05,-6.52739e-07,-2.76306e-06,-2.00231e-05,-3.16686e-05,0
3.25048e-05,0.000199142,-2.89786e-05,4.41282e-05,6.63985e-06,-7.35057e-07,-4.65499e-05,-2.85162e-05,0
2.23597e-05,0.000176236,-3.52771e-05,9.4537e-05,1.95951e-05,1.78151e-06,-5.07207e-05,-2.02734e-05,0
-1.84023e-06,7.40807e-05,-3.70566e-05,8.23258e-05,2.46764e-05,5.50451e-07,-3.63735e-05,-1.19018e-05,0
-3.05446e-05,-2.36362e-05,-2.93619e-05,4.17449e-05,2.10356e-05,-2.527e-06,-1.2107e-05,-4.16819e-06,0
-6.18817e-05,-5.93237e-05,-1.58108e-05,1.98146e-05,1.89312e-05,-4.24345e-06,1.52866e-05,2.6552e-06,0
-9.05677e-05,-3.92593e-05,-5.12779e-06,2.12405e-05,2.3414e-05,-4.43511e-06,4.08764e-05,5.79246e-06,0
-0.00010794,4.08778e-07,-1.68556e-06,1.70529e-05,2.8817e-05,-5.04311e-06,5.74195e-05,5.88281e-06,0
-0.000112476,3.65077e-05,-2.73467e-06,-1.66669e-05,2.6532e-05,-7.13139e-06,5.28478e-05,6.25081e-06,0
-0.000105833,9.62014e-05,-3.62565e-06,-6.27057e-05,1.92699e-05,-9.76783e-06,3.0668e-05,7.35155e-06,0
-9.07552e-05,0.0002137,-2.49371e-06,-8.26911e-05,1.37102e-05,-1.04089e-05,1.29744e-05,8.55427e-06,0
-7.26619e-05,0.000366081,8.18483e-07,-7.44261e-05,1.07585e-05,-8.45362e-06,1.01168e-05,8.38586e-06,0
-5.62749e-05,0.000488354,2.64265e-06,-7.06515e-05,5.26063e-06,-8.5941e-06,1.72181e-05,7.73141e-06,0
-4.08374e-05,0.000530181,3.27456e-06,-8.32052e-05,-2.14718e-06,-1.25203e-05,2.71985e-05,7.66855e-06,0
-3.07507e-05,0.000471702,5.72476e-06,-9.03907e-05,-6.68415e-06,-1.78279e-05,3.63237e-05,8.27369e-06,0
-3.23303e-05,0.0002874,8.01387e-06,-7.98364e-05,-8.47368e-06,-2.34019e-05,4.38802e-05,8.6797e-06,0
-4.5606e-05,-4.18201e-06,4.16911e-06,-4.91557e-05,-8.98742e-06,-3.07417e-05,5.06851e-05,9.08539e-06,0
-5.84539e-05,-0.000267307,-2.15033e-06,-9.1415e-07,-4.50017e-06,-3.86061e-05,5.32652e-05,1.01831e-05,0
-6.30612e-05,-0.000366201,-3.33972e-06,4.09546e-05,8.62113e-06,-3.71253e-05,4.7881e-05,1.20507e-05,0
-6.42596e-05,-0.000337393,2.69691e-07,5.12401e-05,2.44978e-05,-1.75561e-05,3.72557e-05,1.46374e-05,0
-6.52724e-05,-0.000292675,4.78635e-06,3.47682e-05,3.39573e-05,8.35764e-06,2.59448e-05,1.25745e-05,0
-5.83831e-05,-0.000288735,7.8869e-06,1.00781e-05,3.37666e-05,1.77767e-05,1.66191e-05,1.4393e-05,0
-4.19382e-05,-0.000337367,5.9193e-06,-6.34115e-06,2.69305e-05,6.26977e-06,4.49392e-06,3.36314e-05,0
-1.45821e-05,-0.000352676,5.51938e-06,-1.52022e-05,2.00759e-05,-7.28199e-06,-1.00548e-05,5.10184e-05,0
2.40329e-05,-0.000258587,1.82384e-05,-3.19078e-05,1.6142e-05,-8.81909e-06,-1.81155e-05,4.48413e-05,0
5.79131e-05,-0.00014279,3.54029e-05,-7.55069e-05,1.21938e-05,-4.46476e-06,-1.55525e-05,2.41924e-05,0
7.04616e-05,-9.27501e-05,4.21129e-05,-0.000141978,6.81339e-06,-4.07178e-06,-7.26616e-06,2.39545e-06,0
5.79862e-05,-6.68915e-05,3.88149e-05,-0.000177892,1.23889e-06,-5.18993e-06,1.57793e-06,-1.51334e-05,0
3.35768e-05,-1.7507e-05,3.31098e-05,-0.00015851,-1.36945e-06,-4.18591e-06,9.89885e-06,-2.48334e-05,0
9.88768e-06,3.16087e-05,2.50934e-05,-0.000123762,-7.6491e-07,-3.3544e-06,1.58754e-05,-2.89438e-05,0
-1.0517e-05,4.45163e-05,1.43462e-05,-9.45482e-05,3.26919e-06,-2.11161e-06,1.8294e-05,-3.08477e-05,0
-2.541e-05,2.54855e-05,2.02481e-06,-4.84297e-05,1.27282e-05,2.24279e-06,1.88101e-05,-3.12388e-05,0
-3.88575e-05,-2.30019e-05,-1.4392e-05,2.26262e-05,2.56727e-05,8.2873e-06,1.88142e-05,-2.79235e-05,0
-5.3277e-05,-7.94471e-05,-3.55863e-05,9.78642e-05,3.41937e-05,9.73221e-06,1.71264e-05,-2.10701e-05,0
-6.61731e-05,-0.000103369,-5.49429e-05,0.000148695,3.41175e-05,3.87673e-06,1.24396e-05,-1.2871e-05,0
-7.17329e-05,-0.000100988,-6.44064e-05,0.000171063,2.87176e-05,-4.62868e-06,4.90399e-06,-4.84581e-06,0
-6.68171e-05,-0.000101938,-6.24445e-05,0.000181628,1.97619e-05,-9.68472e-06,-1.26805e-07,-1.39293e-07,0
-5.56682e-05,-0.000111903,-5.33742e-05,0.000178739,1.16839e-05,-9.88609e-06,1.30098e-06,1.48657e-06,0
-4.32152e-05,-0.000114654,-4.42154e-05,0.000142075,9.47132e-06,-6.73964e-06,5.63779e-06,3.45892e-06,0
-3.48915e-05,-0.000100274,-4.09644e-05,7.55874e-05,1.02687e-05,-4.49046e-06,9.84527e-06,7.11969e-06,0
-3.0537e-05,-6.64407e-05,-4.27797e-05,2.54897e-05,9.03535e-06,-5.08769e-06,1.6998e-05,8.79011e-06,0
-2.67262e-05,-2.23449e-05,-4.18836e-05,2.78369e-05,8.13736e-06,-6.98711e-06,2.99311e-05,6.99149e-06,0
-2.2348e-05,2.59195e-05,-3.38568e-05,6.16728e-05,1.15493e-05,-9.65475e-06,4.55813e-05,2.89946e-06,0
-2.85575e-05,9.30211e-05,-2.37245e-05,8.40819e-05,1.70214e-05,-1.40052e-05,5.80623e-05,-2.44961e-06,0
-5.3073e-05,0.000181146,-1.80152e-05,9.32104e-05,2.34993e-05,-1.90457e-05,6.16324e-05,-8.41611e-06,0
-7.68824e-05,0.000249289,-1.70513e-05,0.000103066,3.02742e-05,-2.28233e-05,5.46277e-05,-1.35233e-05,0
-7.64038e-05,0.000266015,-1.84109e-05,9.83978e-05,3.08271e-05,-2.54344e-05,4.25516e-05,-1.56649e-05,0
-5.50222e-05,0.00024262,-2.00446e-05,6.44163e-05,2.34477e-05,-2.69045e-05,3.13347e-05,-1.27462e-05,0
-3.28462e-05,0.000201782,-2.01916e-05,2.76334e-05,1.32746e-05,-2.68168e-05,2.20354e-05,-7.27754e-06,0
-2.76229e-05,0.000151929,-1.97103e-05,1.84007e-05,4.34508e-06,-2.6696e-05,1.35929e-05,-4.06497e-06,0
-3.77377e-05,8.1994e-05,-1.8691e-05,1.86878e-05,3.39024e-07,-2.63896e-05,6.58533e-06,-3.69454e-06,0
-4.58295e-05,-1.90862e-05,-1.75987e-05,4.3268e-07,2.6523e-06,-2.38341e-05,1.36462e-06,-5.90598e-06,0
-4.01886e-05,-8.12575e-05,-1.68508e-05,-4.70792e-05,6.64883e-06,-1.99373e-05,-2.39173e-07,-6.85148e-06,0
-2.96018e-05,-5.96051e-05,-1.44467e-05,-0.000118996,1.05238e-05,-1.70492e-05,-2.9195e-07,-6.20779e-06,0
-1.95378e-05,5.3173e-06,-1.0064e-05,-0.000202862,1.45999e-05,-1.74802e-05,-1.52145e-06,-5.03037e-06,0
-3.15697e-06,7.28138e-05,-7.23552e-06,-0.000286717,1.54e-05,-1.82852e-05,-2.35795e-06,-1.99351e-06,0
7.27939e-06,0.00011139,-1.12794e-05,-0.00034458,1.29411e-05,-1.71148e-05,-3.03572e-06,1.33703e-06,0
-2.4365e-06,0.000118825,-1.37224e-05,-0.000338085,1.05457e-05,-1.51447e-05,-2.30436e-06,2.51223e-06,0
-1.5823e-05,7.61802e-05,-5.80503e-06,-0.00023688,1.16047e-05,-1.16082e-05,-1.195e-06,1.92589e-06,0
-1.92874e-05,2.27131e-06,5.85322e-06,-7.73647e-05,1.40868e-05,-8.73665e-06,1.1357e-06,2.47683e-06,0
-2.6335e-05,-7.28685e-05,1.32002e-05,7.03481e-05,1.3655e-05,-1.12122e-05,4.26529e-06,4.14798e-06,0
-4.15283e-05,-0.000118873,1.34391e-05,0.000176132,1.22551e-05,-1.77897e-05,5.84098e-06,6.03936e-06,0
-5.52488e-05,-0.000114353,9.53072e-06,0.000214772,1.0261e-05,-2.26134e-05,9.89519e-07,9.55052e-06,0
-5.49908e-05,-8.22001e-05,4.64948e-06,0.000165979,3.75179e-06,-2.20491e-05,-1.57743e-05,1.81144e-05,0
-3.73645e-05,-5.20259e-05,3.66244e-06,6.99141e-05,-4.44637e-06,-1.83813e-05,-4.20673e-05,2.83309e-05,0
-1.52057e-05,-3.6832e-05,9.89104e-06,-8.24752e-06,-8.04318e-06,-1.57943e-05,-6.09921e-05,3.22608e-05,0
-2.25186e-06,-2.74402e-05,1.79014e-05,-4.41013e-05,-5.95263e-06,-1.63205e-05,-5.92467e-05,2.6616e-05,0
1.20795e-05,-1.42923e-05,1.90731e-05,-3.21375e-05,-3.37672e-06,-1.84557e-05,-4.44328e-05,1.48136e-05,0
4.6658e-05,2.18495e-05,1.21147e-05,2.9145e-05,-3.8565e-06,-1.96011e-05,-2.54323e-05,2.46974e-06,0
8.69307e-05,8.9884e-05,4.59079e-06,9.96551e-05,-3.51727e-06,-1.95821e-05,-3.79464e-06,-8.36742e-06,0
9.97437e-05,0.000189166,1.52567e-06,0.000122058,1.95686e-06,-1.94982e-05,2.15736e-05,-1.70406e-05,0
7.66619e-05,0.000311112,7.94622e-07,9.66864e-05,1.06664e-05,-2.07508e-05,4.77208e-05,-2.25618e-05,0
3.42638e-05,0.000434985,1.56223e-06,6.23702e-05,1.69032e-05,-2.34899e-05,6.932e-05,-2.38342e-05,0
-9.73939e-06,0.000485764,3.3204e-06,3.46202e-05,1.99223e-05,-2.50542e-05,8.09338e-05,-2.11801e-05,0
-4.81681e-05,0.000373058,2.88137e-06,7.62513e-06,2.28562e-05,-2.1789e-05,8.26993e-05,-1.54874e-05,0
-7.53657e-05,0.000118254,1.83698e-06,-1.59523e-05,2.8725e-05,-1.79318e-05,7.65886e-05,-1.11823e-05,0
-8.44111e-05,-0.000124639,2.77468e-06,-4.97324e-05,3.57778e-05,-2.17196e-05,6.79306e-05,-7.55435e-06,0
-7.53828e-05,-0.000236894,9.89194e-07,-0.000100466,3.63527e-05,-2.92103e-05,6.23439e-05,-5.52688e-07,0
-4.59136e-05,-0.000204043,-5.51373e-06,-0.000108752,2.13318e-05,-3.06657e-05,5.51826e-05,7.74985e-06,0
-1.29561e-06,-0.000108086,-1.44129e-05,-5.1088e-05,3.56712e-06,-3.01495e-05,4.4322e-05,1.28991e-05,0
4.06333e-05,-3.02004e-05,-2.719e-05,8.50128e-06,1.39058e-06,-3.33486e-05,3.36281e-05,1.33829e-05,0
6.20741e-05,3.17532e-05,-3.79051e-05,1.00698e-05,1.44025e-05,-3.65739e-05,2.44501e-05,9.51493e-06,0
5.76154e-05,8.37264e-05,-4.17595e-05,-3.61928e-05,3.4598e-05,-3.59025e-05,8.46596e-06,1.80762e-06,0
3.00523e-05,0.000119725,-4.34553e-05,-8.20154e-05,5.00154e-05,-3.32132e-05,-1.76668e-05,-2.48077e-06,0
-1.22775e-05,0.000117875,-4.23831e-05,-0.00011549,5.11855e-05,-3.16768e-05,-3.77686e-05,1.75307e-07,0
-4.8733e-05,6.82078e-05,-3.68612e-05,-0.000148286,3.84703e-05,-2.8621e-05,-4.13514e-05,3.61302e-06,0
-7.3333e-05,-1.07593e-05,-3.00583e-05,-0.000162968,2.87342e-05,-2.46977e-05,-2.69787e-05,4.54071e-06,0
-8.03784e-05,-7.52561e-05,-2.27273e-05,-0.000119669,2.74649e-05,-2.17649e-05,5.37122e-07,3.61364e-06,0
-6.96534e-05,-0.000131299,-1.63893e-05,-2.12484e-05,3.02985e-05,-5.92754e-06,2.75513e-05,1.67822e-06,0
-5.62305e-05,-0.000189463,-1.17405e-05,8.35204e-05,3.23056e-05,2.52711e-05,4.31754e-05,4.17113e-07,0
-5.14105e-05,-0.000201512,-5.54381e-06,0.000146703,3.07182e-05,3.9438e-05,4.78311e-05,-3.61262e-07,0
-5.95656e-05,-0.000140689,4.11848e-06,0.000160347,2.47025e-05,2.25429e-05,4.71198e-05,-2.0719e-06,0
-7.57269e-05,-5.23514e-05,1.48269e-05,0.00015644,1.39658e-05,1.5286e-06,4.35248e-05,-3.69124e-06,0
-9.81496e-05,2.11815e-05,2.04423e-05,0.000153059,3.74854e-06,-2.41667e-06,3.78825e-05,-3.19193e-06,0
-0.000123765,9.38205e-05,2.06036e-05,0.000122628,-1.12842e-06,1.90938e-06,2.87499e-05,-1.30904e-06,0
-0.000145102,0.000153576,2.09302e-05,5.33768e-05,8.89663e-07,2.72521e-06,1.83924e-05,-5.91909e-07,0
-0.000152111,0.000156483,2.11093e-05,-3.44809e-06,2.80405e-06,1.67677e-06,1.08343e-05,-1.07495e-06,0
-0.000142566,8.64265e-05,1.48287e-05,-1.25752e-06,-8.41855e-07,1.43083e-06,8.8243e-06,-9.82785e-07,0
-0.000125812,-1.5545e-05,1.26537e-06,4.18025e-05,-8.11662e-06,5.92183e-07,1.02581e-05,-4.78081e-07,0
-0.000112621,-9.14461e-05,-1.20797e-05,6.94693e-05,-9.8529e-06,-2.01408e-07,1.19294e-05,1.6404e-07,0
-0.000106022,-0.000119089,-1.79499e-05,6.00042e-05,-4.17006e-06,-4.09309e-07,1.24188e-05,8.67431e-07,0
-0.000107398,-0.000129048,-2.07227e-05,3.68208e-05,4.00906e-06,-7.5015e-07,9.53451e-06,1.72879e-06,0
-0.000108701,-0.000135009,-2.66772e-05,1.24635e-05,8.44907e-06,2.53274e-07,9.09852e-07,2.15402e-06,0
-9.16765e-05,-0.000112902,-2.94459e-05,-6.50992e-06,7.59489e-06,-6.82652e-07,-1.00089e-05,1.03283e-06,0
-4.68124e-05,-6.75551e-05,-2.27804e-05,-2.02131e-06,5.58763e-06,-3.20259e-06,-1.86194e-05,-3.59844e-07,0
8.52355e-06,-2.8537e-05,-1.41782e-05,-1.12336e-06,5.2131e-06,-4.9842e-06,-2.23222e-05,-8.87761e-07,0
2.69034e-05,-8.76708e-06,-1.20736e-05,-2.9709e-05,7.57804e-06,-3.80101e-06,-2.14009e-05,1.29931e-06,0
-3.75338e-06,-1.65426e-06,-1.3959e-05,-5.90803e-05,1.1907e-05,-4.54693e-06,-1.83365e-05,3.96337e-06,0
-4.23998e-05,-1.86129e-06,-1.70473e-05,-6.23122e-05,1.45382e-05,-1.90279e-05,-1.41472e-05,5.06207e-06,0
-5.04052e-05,2.39175e-06,-2.08406e-05,-5.02799e-05,1.27725e-05,-3.11304e-05,-1.06998e-05,5.37296e-06,0
-2.62954e-05,2.6406e-05,-2.30005e-05,-5.86972e-05,9.85706e-06,-2.0516e-05,-9.9736e-06,5.09548e-06,0
-2.63986e-06,6.59339e-05,-2.38708e-05,-0.000107628,1.25186e-05,-8.94642e-07,-1.02838e-05,4.4335e-06,0
5.15629e-06,0.000101639,-2.1882e-05,-0.000176057,1.83702e-05,1.35844e-05,-7.51068e-06,3.29908e-06,0
3.03281e-06,0.000106692,-1.70721e-05,-0.000225638,2.14271e-05,2.28572e-05,-3.29594e-06,3.45341e-06,0
-4.82704e-07,7.38219e-05,-1.28472e-05,-0.000237331,1.91921e-05,2.32667e-05,1.14552e-06,2.94978e-06,0
1.26167e-07,2.30806e-05,-9.79318e-06,-0.000215604,1.30238e-05,1.63106e-05,4.74795e-06,3.35097e-06,0
1.73043e-06,-3.15448e-05,-7.74729e-06,-0.000173125,9.19715e-06,9.32319e-06,6.19955e-06,5.32308e-06,0
-2.26003e-06,-6.95352e-05,-6.2508e-06,-0.000120196,1.19864e-05,5.64174e-06,7.22398e-06,5.73141e-06,0
-1.25806e-05,-5.74577e-05,-4.63897e-06,-8.16832e-05,2.33722e-05,4.02167e-06,8.92284e-06,3.94252e-06,0
-2.05433e-05,5.93948e-06,-1.12654e-06,-6.9531e-05,3.78891e-05,4.30797e-06,9.89504e-06,2.14314e-06,0
-2.21785e-05,8.34698e-05,5.79781e-06,-6.43806e-05,4.76341e-05,5.37826e-06,9.90763e-06,2.9648e-06,0
-1.88713e-05,0.000144606,1.36698e-05,-5.15616e-05,4.77758e-05,2.12671e-06,1.02913e-05,9.12867e-06,0
-1.32159e-05,0.000181946,1.73506e-05,-2.74514e-05,3.91448e-05,-8.62003e-06,1.2335e-05,2.29532e-05,0
-4.35579e-06,0.000206371,1.6998e-05,8.30872e-06,2.50487e-05,-2.28609e-05,1.66799e-05,3.69891e-05,0
4.32262e-06,0.000236745,1.41846e-05,4.19491e-05,1.29001e-05,-3.2718e-05,2.12801e-05,4.07086e-05,0
8.07423e-06,0.000265975,9.07625e-06,5.10557e-05,7.73714e-06,-3.48019e-05,2.35316e-05,3.23073e-05,0
6.37034e-06,0.000263409,4.25001e-06,3.1671e-05,6.62161e-06,-2.78031e-05,2.3142e-05,1.50286e-05,0
3.03562e-06,0.000227221,5.51399e-06,5.61165e-06,5.3117e-06,-1.47476e-05,2.1644e-05,-8.07357e-06,0
-3.55819e-07,0.000150376,1.67433e-05,-8.97214e-08,5.78591e-06,-5.26748e-06,1.99157e-05,-3.09093e-05,0
-6.97728e-06,3.13078e-06,3.09937e-05,1.79511e-05,1.31092e-05,-4.79717e-06,1.82881e-05,-4.68565e-05,0
-1.95435e-05,-0.000183563,2.81901e-05,6.52932e-05,2.25087e-05,-1.05141e-05,1.69871e-05,-5.077e-05,0
-3.0329e-05,-0.000289561,6.31039e-06,0.000158677,2.14777e-05,-1.57013e-05,1.58839e-05,-4.55663e-05,0
-3.14624e-05,-0.000199395,-1.0705e-05,0.00024933,1.35171e-05,-2.07926e-05,1.69205e-05,-3.90192e-05,0
-2.12594e-05,3.40375e-05,-1.28114e-05,0.000249041,1.15257e-05,-2.52334e-05,1.90309e-05,-3.29636e-05,0
-1.09793e-05,0.000211772,-1.07804e-05,0.000190707,1.53827e-05,-2.27839e-05,1.75104e-05,-2.20776e-05,0
-1.53743e-05,0.000206526,-1.30367e-05,0.000133026,2.25089e-05,-1.62369e-05,1.35034e-05,-7.72762e-06,0
-2.99318e-05,4.61512e-05,-1.09762e-05,5.88342e-05,2.92255e-05,-1.03868e-05,9.5397e-06,1.65697e-06,0
-4.75221e-05,-0.000136567,-3.22192e-06,-8.23821e-06,2.96001e-05,-6.62344e-06,7.80372e-06,6.6909e-06,0
-6.07014e-05,-0.00022681,2.02005e-06,-1.1377e-05,2.3058e-05,-3.44592e-06,1.03584e-05,9.33256e-06,0
-5.9621e-05,-0.000225603,2.64906e-06,5.33118e-05,1.5977e-05,1.12837e-08,1.52208e-05,1.00187e-05,0
-4.25394e-05,-0.000181906,-3.90666e-06,0.000107928,1.29058e-05,2.81973e-06,1.8427e-05,1.18996e-05,0
-2.21602e-05,-0.00014308,-2.03856e-05,9.6516e-05,1.07713e-05,3.24789e-06,1.94793e-05,1.61476e-05,0
-1.02788e-05,-0.000141126,-4.08751e-05,2.44582e-05,8.78908e-06,2.98734e-06,1.98465e-05,1.85394e-05,0
-1.08849e-05,-0.00017098,-5.35494e-05,-6.23051e-05,9.07753e-06,2.5788e-06,1.53216e-05,1.67993e-05,0
-1.91289e-05,-0.000195133,-5.1799e-05,-0.00011837,1.1631e-05,9.65309e-07,5.39582e-06,1.24283e-05,0
-3.06874e-05,-0.000180868,-3.51868e-05,-0.000121421,1.72566e-05,-1.06836e-07,-2.38107e-06,7.6266e-06,0
-4.21543e-05,-0.000134683,-1.08199e-05,-7.75337e-05,2.42388e-05,1.15253e-06,-3.42098e-06,4.85888e-06,0
-5.04204e-05,-7.68349e-05,8.96201e-06,-2.5743e-05,2.68922e-05,4.42244e-06,1.28201e-06,3.99587e-06,0
-5.35872e-05,-2.21592e-05,1.43334e-05,8.65121e-06,2.14836e-05,5.67175e-06,6.92046e-06,3.94928e-06,0
-4.78584e-05,2.01982e-05,7.40134e-06,1.82238e-05,1.11188e-05,3.49083e-06,7.40371e-06,4.70781e-06,0
-3.14718e-05,4.76583e-05,1.24172e-07,1.16886e-05,2.82017e-06,-4.85427e-07,-6.09398e-07,5.53679e-06,0
-1.33157e-05,6.1887e-05,2.54602e-06,5.62818e-06,3.15098e-06,-4.2008e-06,-1.12375e-05,4.29714e-06,0
-8.09607e-06,5.43736e-05,1.50118e-05,9.21931e-06,1.28314e-05,-7.60353e-06,-1.35253e-05,1.54125e-06,0
-1.47691e-05,2.80778e-05,3.13938e-05,8.06918e-06,2.32553e-05,-9.57557e-06,-4.6681e-06,3.09131e-06,0
-1.29387e-05,1.19595e-05,4.29078e-05,1.05215e-06,2.72746e-05,-9.68873e-06,9.52721e-06,1.27468e-05,0
8.68615e-06,2.57005e-05,4.23626e-05,6.26515e-06,2.57675e-05,-9.67623e-06,2.41775e-05,2.38601e-05,0
3.4564e-05,6.34979e-05,2.69637e-05,3.97658e-05,2.11985e-05,-1.12078e-05,3.83873e-05,2.55546e-05,0
4.82623e-05,0.000119479,-2.55729e-06,9.86085e-05,1.73183e-05,-1.25046e-05,5.28348e-05,1.63668e-05,0
3.77349e-05,0.000198061,-3.78232e-05,0.00016079,1.41429e-05,-1.23524e-05,6.42481e-05,6.9533e-06,0
-9.0196e-06,0.000280207,-7.37557e-05,0.000190537,9.21411e-06,-1.28638e-05,6.58099e-05,3.5907e-06,0
-7.58345e-05,0.000310851,-0.000100633,0.000170745,-2.49482e-07,-1.61616e-05,5.19817e-05,3.20506e-06,0
-0.000111098,0.000269102,-0.000105847,0.000148892,-1.0771e-05,-2.13361e-05,3.02274e-05,2.5587e-06,0
-7.95264e-05,0.000197235,-9.27502e-05,0.000158153,-1.11187e-05,-2.65922e-05,1.47533e-05,1.14829e-06,0
1.14856e-06,0.000125901,-7.1199e-05,0.000161048,-1.90841e-06,-3.37064e-05,6.14844e-06,-2.89927e-07,0
6.22356e-05,6.16157e-05,-5.17056e-05,0.000107126,1.09235e-05,-3.85988e-05,-1.17397e-05,-1.53754e-06,0
6.22748e-05,2.73005e-05,-3.44851e-05,-9.59863e-06,2.30772e-05,-2.70495e-05,-4.28934e-05,-3.15474e-06,0
2.56043e-05,1.74759e-05,-1.78565e-05,-0.000137365,2.97299e-05,1.22871e-06,-6.14188e-05,-6.11048e-06,0
1.05245e-06,-3.3828e-05,-2.96696e-06,-0.000212746,3.26174e-05,2.43232e-05,-5.46154e-05,-8.85366e-06,0
-1.6207e-06,-0.000127944,8.48056e-06,-0.000203492,2.96262e-05,2.51134e-05,-2.9028e-05,-8.66283e-06,0
-2.3895e-05,-0.000200465,1.7768e-05,-0.000155129,1.847e-05,1.03246e-05,1.46974e-06,-5.13511e-06,0
-8.83451e-05,-0.000215573,2.32222e-05,-0.000140819,8.38125e-06,-6.29948e-06,2.78422e-05,-8.57086e-07,0
-0.00016681,-0.000183861,2.24992e-05,-0.000174136,8.24553e-06,-1.89735e-05,4.89311e-05,1.94386e-06,0
-0.00021567,-0.000149378,2.06829e-05,-0.000208873,1.57443e-05,-2.40579e-05,6.33622e-05,3.55797e-06,0
-0.000227404,-0.00015968,1.98673e-05,-0.000199102,1.95575e-05,-2.32213e-05,6.91476e-05,5.17099e-06,0
-0.00020882,-0.000198202,1.98287e-05,-0.000144778,1.47029e-05,-2.07302e-05,6.61826e-05,6.00542e-06,0
-0.000160864,-0.000174683,1.90184e-05,-6.187e-05,9.90054e-06,-1.89551e-05,5.9119e-05,4.79607e-06,0
-9.12908e-05,-6.65802e-05,1.76043e-05,1.56004e-05,1.16992e-05,-1.65231e-05,5.02236e-05,2.66366e-06,0
-2.78508e-05,3.7508e-05,1.25905e-05,4.79987e-05,1.18551e-05,-1.36453e-05,4.00943e-05,1.99531e-06,0
4.01274e-06,7.0503e-05,2.90195e-06,3.85437e-05,4.70559e-06,-1.16475e-05,2.92681e-05,2.17216e-06,0
7.15629e-06,6.1376e-05,-1.00872e-05,2.64639e-05,-2.66587e-06,-1.10308e-05,2.22067e-05,5.64113e-07,0
5.92102e-06,5.11618e-05,-2.08879e-05,2.56335e-05,-5.1265e-06,-1.27666e-05,2.00185e-05,-2.25913e-06,0
1.38214e-05,4.77526e-05,-2.52087e-05,2.66873e-05,-5.16586e-06,-1.55357e-05,2.04784e-05,-3.14167e-06,0
2.30739e-05,3.66236e-05,-2.5241e-05,1.48773e-05,-5.51637e-06,-1.61866e-05,1.93347e-05,-2.28442e-06,0
2.53655e-05,7.01337e-06,-2.87424e-05,-1.6602e-05,-6.35057e-06,-1.50001e-05,1.59648e-05,-2.44455e-06,0
1.4733e-05,-3.0781e-05,-3.84682e-05,-7.15617e-05,-7.73482e-06,-1.43252e-05,1.19097e-05,-1.29258e-06,0
-4.26772e-06,-4.12204e-05,-4.45401e-05,-0.0001224,-9.19887e-06,-1.49583e-05,7.4443e-06,1.7493e-06,0
-1.35363e-05,-1.58348e-05,-3.81628e-05,-0.000134103,-1.1043e-05,-1.49584e-05,1.38257e-06,2.36683e-06,0
-4.01959e-07,2.82086e-05,-2.58804e-05,-0.000107292,-1.27549e-05,-1.31689e-05,-4.3873e-06,1.50784e-06,0
2.52418e-05,8.61753e-05,-1.76081e-05,-5.42324e-05,-1.28488e-05,-7.35594e-06,-6.98491e-06,2.54698e-06,0
4.82905e-05,0.000122554,-1.53567e-05,-8.14305e-06,-1.0529e-05,6.75549e-07,-5.67714e-06,3.24643e-06,0
6.21699e-05,8.91455e-05,-1.76038e-05,1.8879e-05,-4.52416e-06,4.34864e-06,-2.30564e-06,2.99027e-06,0
5.72097e-05,8.73523e-07,-2.24401e-05,4.49782e-05,3.42694e-06,2.57518e-06,-6.15115e-07,2.51222e-06,0
3.17167e-05,-5.8489e-05,-2.77334e-05,5.74124e-05,7.66722e-06,-2.2052e-06,6.38928e-07,-9.02721e-07,0
-1.15522e-05,-4.59446e-05,-2.69334e-05,4.18965e-05,4.95487e-06,-6.40669e-06,1.26482e-06,-7.03642e-06,0
-6.94847e-05,1.21606e-05,-1.65224e-05,2.01395e-05,3.2404e-07,-1.24034e-05,-3.50279e-06,-1.24865e-05,0
-0.000115661,5.96644e-05,-1.28948e-06,1.21534e-05,-3.51982e-06,-1.81083e-05,-1.31643e-05,-1.3961e-05,0
-0.000128368,7.08908e-05,8.70164e-06,7.04211e-06,-4.40838e-06,-2.04317e-05,-2.03219e-05,-1.0856e-05,0
-0.000114597,6.61517e-05,1.1551e-05,-1.68258e-05,-1.58217e-06,-1.97457e-05,-1.9849e-05,-5.24294e-06,0
-9.43361e-05,7.98395e-05,1.16725e-05,-5.53026e-05,8.64323e-07,-1.86262e-05,-1.2606e-05,1.05031e-06,0
-7.46029e-05,0.000135419,1.42461e-05,-8.81666e-05,1.61664e-07,-1.91931e-05,-4.7174e-06,5.60137e-06,0
-5.28643e-05,0.000231858,1.76925e-05,-0.000100009,-1.8306e-06,-2.24015e-05,9.49124e-07,6.61412e-06,0
-2.95081e-05,0.000345084,1.85228e-05,-9.09223e-05,-2.33249e-06,-2.71899e-05,5.63278e-06,6.22734e-06,0
-1.60242e-06,0.000430702,1.72503e-05,-7.07032e-05,-2.592e-06,-2.76533e-05,1.21333e-05,6.53334e-06,0
3.17251e-05,0.000467212,1.58669e-05,-5.69542e-05,-2.96701e-06,-2.07825e-05,1.90415e-05,7.12339e-06,0
5.84256e-05,0.00046297,1.62595e-05,-5.59814e-05,-1.52174e-06,-1.0477e-05,2.34615e-05,6.59731e-06,0
7.01049e-05,0.000418491,1.84957e-05,-5.63589e-05,3.27756e-06,-2.85509e-06,2.65708e-05,5.54178e-06,0
8.36108e-05,0.000327891,2.05293e-05,-4.28795e-05,6.88168e-06,1.47254e-06,3.19615e-05,6.36586e-06,0
0.000115156,0.000214558,1.65664e-05,-1.20122e-05,6.63243e-06,8.41336e-07,4.08257e-05,7.54936e-06,0
0.000146887,8.06126e-05,9.58511e-08,2.21825e-05,1.29705e-06,-4.56266e-06,5.05974e-05,6.64105e-06,0
0.000155875,-0.000100992,-2.60506e-05,3.84141e-05,-7.72337e-06,-1.19984e-05,5.54654e-05,4.52573e-06,0
0.000140909,-0.000314641,-4.18636e-05,3.44111e-05,-1.59681e-05,-1.86192e-05,5.27278e-05,2.83518e-06,0
0.000105193,-0.000499199,-3.68535e-05,2.28336e-05,-1.94984e-05,-2.32769e-05,4.6584e-05,2.15611e-06,0
5.62324e-05,-0.000552491,-1.99927e-05,3.6015e-06,-1.76674e-05,-2.36845e-05,4.28317e-05,4.87776e-06,0
-1.10323e-05,-0.00043941,-2.24851e-06,-3.04563e-05,-1.28839e-05,-2.11362e-05,4.27756e-05,8.2507e-06,0
-8.81587e-05,-0.000279352,7.3205e-06,-6.42069e-05,-6.08535e-06,-1.84826e-05,3.94019e-05,5.05834e-06,0
-0.000155684,-0.000166075,7.40294e-06,-7.64104e-05,6.8073e-06,-1.43651e-05,2.74483e-05,1.19937e-05,0
-0.000207532,-0.000114423,1.36042e-06,-7.01333e-05,2.07698e-05,-1.19546e-05,6.92853e-06,3.49462e-05,0
-0.000240707,-0.000105947,-3.84629e-06,-5.70822e-05,2.20829e-05,-1.53978e-05,-1.3237e-05,4.76844e-05,0
-0.000260512,-0.000111347,3.56692e-06,-5.10136e-05,1.95486e-05,-2.03304e-05,-2.29888e-05,3.84466e-05,0
-0.000255343,-0.000122704,2.27646e-05,-5.61775e-05,2.68356e-05,-1.93019e-05,-2.25026e-05,1.57182e-05,0
-0.000219091,-0.000125063,3.97835e-05,-5.65076e-05,4.1484e-05,-1.47401e-05,-1.477e-05,-6.75213e-06,0
-0.000164701,-0.000114212,4.27889e-05,-2.61306e-05,4.94824e-05,-1.0784e-05,-5.781e-06,-2.26235e-05,0
-0.000112254,-9.04229e-05,3.47271e-05,3.17584e-05,4.36185e-05,-7.76489e-06,1.05739e-06,-3.14423e-05,0
-7.47372e-05,-6.35058e-05,2.55459e-05,0.000109714,3.59988e-05,-4.44621e-06,6.42334e-06,-3.53656e-05,0
-5.46561e-05,-4.55006e-05,1.64348e-05,0.000179612,3.48979e-05,-1.14436e-06,9.85265e-06,-3.46193e-05,0
-4.69448e-05,-4.13849e-05,6.09583e-07,0.000179586,3.69278e-05,-7.71212e-07,1.34101e-05,-3.03577e-05,0
-3.96524e-05,-3.88712e-05,-2.33126e-05,8.46726e-05,3.72982e-05,-3.52268e-06,1.79011e-05,-2.37771e-05,0
-2.2527e-05,-2.37639e-05,-4.79944e-05,-4.38076e-05,3.03831e-05,-6.76937e-06,1.91004e-05,-1.42618e-05,0
3.67206e-06,-1.82774e-06,-6.53921e-05,-0.000114155,1.2062e-05,-9.16176e-06,1.31436e-05,-3.76429e-06,0
2.61437e-05,1.1328e-05,-7.61028e-05,-0.00011206,-8.35189e-06,-1.10058e-05,3.03872e-06,4.31293e-06,0
3.85018e-05,1.32167e-05,-8.39071e-05,-6.8278e-05,-1.4368e-05,-1.10442e-05,-1.10034e-05,8.51818e-06,0
3.66362e-05,1.51406e-05,-8.70342e-05,-5.71974e-06,-4.36661e-06,-9.98741e-06,-3.47264e-05,9.80108e-06,0
2.16667e-05,2.31327e-05,-8.13595e-05,5.55191e-05,7.57459e-06,-8.75255e-06,-6.23006e-05,8.39968e-06,0
7.19006e-07,3.86287e-05,-6.4388e-05,9.65228e-05,1.64562e-05,-4.73249e-06,-7.39914e-05,5.58609e-06,0
-1.90785e-05,5.57711e-05,-3.8975e-05,0.000108872,2.9829e-05,2.25399e-06,-6.04136e-05,2.71343e-06,0
-4.0226e-05,6.80736e-05,-1.19276e-05,0.000103357,4.52963e-05,5.54387e-06,-3.33777e-05,1.10467e-06,0
-6.47969e-05,7.56478e-05,1.12792e-05,0.000109902,5.22832e-05,3.52539e-06,-5.04448e-06,-6.02024e-07,0
-8.60211e-05,8.5534e-05,2.97496e-05,0.000151368,5.08927e-05,3.7336e-06,2.35063e-05,-1.72034e-06,0
-9.54623e-05,9.68331e-05,3.94468e-05,0.000222059,5.30774e-05,7.17227e-06,5.03993e-05,-1.88077e-06,0
-9.36109e-05,0.000114432,4.02015e-05,0.000251811,6.29907e-05,9.05002e-06,6.91273e-05,-9.33473e-07,0
-8.36139e-05,0.000150756,3.44155e-05,0.000182125,6.73802e-05,6.34142e-06,7.81442e-05,6.63093e-08,0
-6.45161e-05,0.000193125,2.83768e-05,9.75831e-05,5.43786e-05,1.12053e-06,8.08899e-05,-1.55055e-07,0
-3.18327e-05,0.000218369,2.66738e-05,5.71815e-05,3.67571e-05,-6.95391e-07,7.99606e-05,3.08668e-07,0
5.25493e-06,0.000217094,2.25816e-05,3.10755e-05,2.9954e-05,1.01604e-06,7.59716e-05,1.11701e-06,0
2.33217e-05,0.000160376,9.20446e-06,2.56049e-05,3.00208e-05,3.06264e-06,6.79453e-05,1.24989e-06,0
1.7846e-05,4.74658e-05,-1.32341e-05,3.83338e-05,2.98015e-05,3.60538e-06,5.83991e-05,1.84814e-06,0
1.14399e-06,-6.48363e-05,-3.33704e-05,5.38343e-05,2.67966e-05,2.82031e-06,5.08775e-05,2.44397e-06,0
-1.3312e-05,-0.000139376,-4.1712e-05,5.50084e-05,2.16619e-05,1.68852e-07,4.58354e-05,3.94972e-06,0
-2.34848e-05,-0.000173181,-3.73901e-05,4.21336e-05,1.50468e-05,-5.2214e-06,4.05406e-05,5.55513e-06,0
-2.72214e-05,-0.000151869,-2.64745e-05,2.07615e-05,8.75373e-06,-9.22992e-06,3.46202e-05,6.67822e-06,0
-2.25618e-05,-7.48288e-05,-1.52721e-05,-2.26608e-06,6.53316e-06,-9.4471e-06,3.11413e-05,6.06115e-06,0
-1.89552e-05,1.0634e-07,-6.39168e-06,-1.84518e-05,8.10087e-06,-7.32755e-06,3.09394e-05,3.71572e-06,0
-2.59125e-05,2.45452e-05,1.3599e-07,-2.82027e-05,1.10472e-05,-5.40099e-06,2.984e-05,1.97771e-06,0
-3.57977e-05,1.16559e-05,3.86693e-06,-3.06807e-05,1.37153e-05,-4.73839e-06,2.31291e-05,1.53081e-06,0
-3.26628e-05,2.19651e-06,3.51762e-06,-3.5432e-05,1.65571e-05,-4.52684e-06,1.10566e-05,3.15714e-06,0
-1.61245e-05,2.90092e-05,9.46822e-07,-4.79197e-05,2.06487e-05,-5.02067e-06,-3.71175e-06,4.30188e-06,0
-5.58713e-06,9.96066e-05,-4.02553e-06,-6.80661e-05,2.57748e-05,-6.65887e-06,-1.72481e-05,4.02519e-06,0
-1.8034e-05,0.000179932,-1.45689e-05,-8.39589e-05,2.81558e-05,-9.27061e-06,-2.74023e-05,2.59868e-06,0
-4.15418e-05,0.00019481,-3.00727e-05,-9.07037e-05,2.38226e-05,-1.38682e-05,-3.2731e-05,6.47408e-07,0
-5.03364e-05,9.9866e-05,-4.18246e-05,-8.80618e-05,1.55514e-05,-2.2147e-05,-3.36712e-05,-4.41864e-07,0
-3.97867e-05,-5.22366e-05,-4.20403e-05,-7.63237e-05,9.4501e-06,-2.96105e-05,-3.03286e-05,1.66803e-06,0
-2.34121e-05,-0.000170366,-3.16398e-05,-4.74829e-05,9.18201e-06,-3.02328e-05,-2.21243e-05,3.99496e-06,0
-1.25068e-05,-0.000200716,-2.06136e-05,-7.0945e-06,1.09335e-05,-2.67212e-05,-1.15328e-05,4.78735e-06,0
-1.08009e-05,-0.000122827,-1.88786e-05,2.79483e-05,8.51741e-06,-2.61553e-05,-2.24763e-06,3.6831e-06,0
-1.09727e-05,4.04977e-05,-2.33807e-05,6.27934e-05,6.32473e-06,-2.69336e-05,5.73254e-06,7.83422e-07,0
-2.80952e-06,0.000224129,-2.32979e-05,0.000106571,9.02709e-06,-2.32457e-05,1.17317e-05,-1.04834e-06,0
1.29069e-05,0.000366126,-1.68003e-05,0.000127308,1.11899e-05,-1.86155e-05,1.43013e-05,-2.17151e-06,0
3.83929e-05,0.000442299,-8.97349e-06,8.79259e-05,1.22448e-05,-1.58542e-05,1.52289e-05,-4.12695e-06,0
7.98647e-05,0.000427846,-6.16837e-06,4.76329e-07,1.11173e-05,-1.22505e-05,1.4256e-05,-4.0354e-06,0
0.000111266,0.000289744,-8.25699e-06,-9.0464e-05,6.79051e-06,-8.66518e-06,1.03069e-05,-1.28742e-06,0
0.000106876,5.22682e-05,-8.89213e-06,-0.000151333,3.09682e-06,-6.52847e-06,4.98987e-06,-5.6772e-07,0
6.10205e-05,-0.000222179,-1.11874e-05,-0.000188396,1.57476e-06,1.23789e-05,1.58278e-06,-2.39897e-06,0
-1.79902e-05,-0.000447761,-1.84082e-05,-0.000209565,3.13619e-06,4.75324e-05,2.18303e-06,-3.96045e-06,0
-9.24527e-05,-0.000517847,-2.50649e-05,-0.000202309,6.14208e-06,5.80004e-05,3.90549e-06,-3.53163e-06,0
-0.000130475,-0.000404137,-2.70488e-05,-0.000161325,1.03785e-05,3.68824e-05,2.92228e-06,5.97446e-06,0
-0.000125853,-0.000236953,-2.72697e-05,-0.000103708,1.61253e-05,1.55091e-05,1.04428e-06,2.51212e-05,0
-0.000101288,-0.000125765,-2.51079e-05,-5.3256e-05,1.99601e-05,1.07967e-05,1.58335e-06,3.76957e-05,0
-8.24389e-05,-6.32398e-05,-1.49811e-05,-2.18413e-05,1.67403e-05,1.27586e-05,4.0835e-06,3.80918e-05,0
-7.35179e-05,-8.1069e-06,7.92294e-07,-1.0014e-05,8.78074e-06,1.09639e-05,5.51081e-06,2.91856e-05,0
-6.31653e-05,6.08493e-05,1.34362e-05,-5.99726e-06,5.26031e-06,1.13591e-05,6.80302e-06,1.32544e-05,0
-4.13353e-05,0.000120848,1.79484e-05,5.03407e-06,8.68494e-06,1.93348e-05,8.73092e-06,-7.46127e-06,0
-1.51095e-05,0.000134207,1.39714e-05,1.69175e-05,1.43691e-05,2.60464e-05,9.88202e-06,-2.74261e-05,0
6.9045e-07,8.10375e-05,6.16635e-06,1.58394e-05,1.71077e-05,2.07283e-05,8.89297e-06,-3.83636e-05,0
-1.41219e-06,-1.71516e-05,1.31692e-06,-5.11578e-06,1.63438e-05,6.2419e-06,6.29765e-06,-3.94079e-05,0
-1.82689e-05,-0.000101739,2.67167e-06,-3.77121e-05,1.54986e-05,-1.11996e-05,4.08529e-06,-3.53733e-05,0
-4.24634e-05,-0.00010068,6.5918e-06,-6.71849e-05,1.77412e-05,-3.33537e-05,2.44927e-06,-2.97862e-05,0
-6.1384e-05,-1.20757e-05,6.04117e-06,-8.3611e-05,2.12149e-05,-5.94465e-05,1.26096e-06,-2.11355e-05,0
-6.62018e-05,0.000107798,-1.49133e-07,-9.29237e-05,2.04333e-05,-6.7997e-05,6.76624e-07,-9.17505e-06,0
-5.40843e-05,0.000218271,-6.65007e-06,-0.000110755,1.36018e-05,-4.02041e-05,-2.5221e-06,6.73012e-07,0
-2.96471e-05,0.000286595,-9.84647e-06,-0.000143098,5.59589e-06,-2.76425e-06,-1.40878e-05,1.76365e-06,0
-5.22805e-06,0.000251527,-8.75732e-06,-0.000162703,1.47148e-06,5.44409e-06,-3.51212e-05,-2.5784e-06,0
8.82861e-06,0.000110795,-3.78087e-06,-0.000141222,-4.86221e-07,-1.06562e-05,-5.33854e-05,-4.57484e-06,0
1.41397e-05,-5.30533e-05,1.92377e-06,-7.82494e-05,1.13917e-07,-2.48938e-05,-4.87264e-05,-3.01958e-06,0
2.15062e-05,-0.00019252,8.19361e-06,4.03268e-07,4.6734e-06,-2.78114e-05,-2.22723e-05,2.33484e-06,0
3.42499e-05,-0.000284903,1.84849e-05,5.75132e-05,7.00446e-06,-2.51312e-05,1.1035e-05,1.15287e-05,0
5.27541e-05,-0.00023544,3.47222e-05,7.91169e-05,3.88581e-06,-2.15538e-05,3.77437e-05,1.47609e-05,0
7.13474e-05,-6.63734e-05,5.14624e-05,7.45194e-05,-2.54709e-06,-2.03057e-05,5.32197e-05,1.07815e-05,0
7.07289e-05,8.01756e-05,6.42986e-05,7.19118e-05,-8.29189e-06,-2.02639e-05,6.19548e-05,8.74745e-06,0
4.023e-05,0.000155459,7.36122e-05,8.26006e-05,-8.11783e-06,-1.92383e-05,6.44167e-05,8.67147e-06,0
-1.62952e-05,0.000159692,7.49599e-05,8.82048e-05,-1.61437e-06,-1.93745e-05,6.24849e-05,9.21134e-06,0
-7.94719e-05,0.000132778,6.30628e-05,8.0608e-05,8.53613e-06,-2.24821e-05,5.68083e-05,7.92635e-06,0
-0.000131152,8.81948e-05,3.61538e-05,7.92691e-05,1.70843e-05,-2.69041e-05,4.83791e-05,6.16563e-06,0
-0.000170832,3.38149e-05,-4.63763e-06,9.52438e-05,1.80071e-05,-2.88046e-05,3.47347e-05,7.17924e-06,0
-0.000192695,-5.28782e-06,-4.93804e-05,0.000123706,1.51311e-05,-2.81226e-05,1.93804e-05,1.01364e-05,0
-0.0001899,-3.33343e-05,-8.84521e-05,0.000145432,1.70787e-05,-2.43707e-05,1.06538e-05,1.19934e-05,0
-0.000169097,-6.59057e-05,-0.000115346,0.000130369,2.25782e-05,-1.78373e-05,7.1396e-06,1.17206e-05,0
-0.000143248,-8.03e-05,-0.000121057,7.78748e-05,2.3519e-05,-1.2305e-05,-2.74948e-07,1.00643e-05,0
-0.00011592,-4.94892e-05,-0.000101341,2.66544e-05,1.79197e-05,-1.01461e-05,-1.39616e-05,7.03734e-06,0
-8.7758e-05,-5.09608e-06,-6.65145e-05,1.24309e-06,1.01916e-05,-9.52644e-06,-2.16604e-05,3.86007e-06,0
-6.6705e-05,1.70679e-05,-3.64048e-05,-9.06246e-06,2.89744e-06,-9.98193e-06,-1.41377e-05,4.61872e-07,0
-5.77908e-05,3.95111e-05,-1.97796e-05,-5.82995e-06,-1.64573e-06,-1.2212e-05,4.56559e-06,-2.65932e-06,0
-5.62615e-05,0.000115698,-1.30805e-05,2.08979e-05,-1.81775e-06,-1.49085e-05,2.41177e-05,-4.71416e-06,0
-5.35221e-05,0.000229324,-1.09427e-05,5.48484e-05,5.09825e-07,-1.61462e-05,4.14005e-05,-5.33337e-06,0
-4.39917e-05,0.0003063,-1.15288e-05,6.46204e-05,3.43562e-06,-1.63288e-05,5.66057e-05,-5.16876e-06,0
-2.43313e-05,0.000298457,-1.41689e-05,4.29932e-05,6.36063e-06,-1.80475e-05,6.77181e-05,-5.0447e-06,0
3.29185e-06,0.000222425,-1.77548e-05,3.29437e-06,1.04995e-05,-2.11657e-05,7.10823e-05,-4.78606e-06,0
2.46955e-05,0.000116318,-2.14966e-05,-3.4131e-05,1.6172e-05,-1.98189e-05,6.78082e-05,-3.94729e-06,0
3.05799e-05,1.50342e-05,-2.62139e-05,-5.83339e-05,1.97749e-05,-1.176e-05,6.15968e-05,-4.07853e-06,0
2.8592e-05,-8.16204e-05,-3.10296e-05,-8.20505e-05,1.86489e-05,9.53105e-07,5.63824e-05,-3.92895e-06,0
1.58066e-05,-0.000180941,-3.2886e-05,-0.00010875,1.4846e-05,1.25004e-05,4.91512e-05,-3.24406e-06,0
-1.26997e-05,-0.000216354,-3.03861e-05,-0.000122103,9.64147e-06,9.57124e-06,3.4008e-05,-2.11073e-06,0
-4.1307e-05,-0.000141163,-2.49547e-05,-0.000125732,-4.41767e-07,-6.14028e-06,1.44992e-05,-4.01427e-07,0
-4.94455e-05,-3.78317e-05,-1.55522e-05,-0.000109088,-9.56424e-06,-1.48327e-05,-2.28575e-06,-2.82796e-07,0
-4.0831e-05,2.09056e-05,-6.91516e-07,-0.000105277,-9.71882e-06,-1.19897e-05,-1.29768e-05,-1.38974e-06,0
-3.28399e-05,4.50226e-05,1.54773e-05,-0.000162748,-2.8407e-06,-8.23845e-06,-2.09796e-05,-2.66293e-06,0
-2.76959e-05,6.83975e-05,2.80795e-05,-0.00022141,7.99583e-06,-6.59748e-06,-2.54562e-05,-2.87874e-06,0
-2.14938e-05,0.000100873,3.24589e-05,-0.000220898,1.75497e-05,-9.70864e-06,-2.23046e-05,-2.94381e-06,0
-1.27047e-05,0.000123679,2.5565e-05,-0.000134637,1.96263e-05,-1.28201e-05,-1.31149e-05,-3.58452e-06,0
-5.12725e-06,0.000140491,8.59842e-06,-4.78773e-06,1.40095e-05,3.51454e-06,-4.25304e-06,-2.68272e-06,0
-4.86625e-06,0.000138576,-1.06084e-05,8.38568e-05,1.0612e-05,3.71424e-05,1.13299e-06,-1.69374e-06,0
-1.309e-05,8.91321e-05,-2.29798e-05,0.000124365,1.59346e-05,5.85257e-05,4.8691e-06,-1.77973e-06,0
-2.19813e-05,-4.22373e-06,-2.46416e-05,0.000136427,2.26018e-05,5.09836e-05,8.75584e-06,4.78644e-07,0
-2.28133e-05,-9.68623e-05,-1.90115e-05,0.000108111,2.19391e-05,2.38226e-05,1.276e-05,2.85497e-06,0
-1.57893e-05,-0.000136491,-1.09678e-05,3.5508e-05,1.79836e-05,-3.28894e-06,1.54364e-05,3.0602e-06,0
-8.72558e-06,-9.56491e-05,-2.8877e-06,-2.4206e-05,1.83868e-05,-2.35711e-05,1.72277e-05,1.68196e-06,0
-8.78041e-06,1.26132e-06,3.36559e-06,-1.56184e-05,2.47166e-05,-3.93881e-05,1.91994e-05,-1.77968e-08,0
-1.55803e-05,8.03687e-05,5.32778e-06,4.34915e-05,3.298e-05,-4.73066e-05,2.02953e-05,-5.62024e-07,0
-2.16324e-05,7.52175e-05,4.09294e-07,9.52642e-05,3.83189e-05,-4.42166e-05,1.88776e-05,-2.8243e-07,0
-1.78799e-05,-1.11526e-05,-1.09958e-05,0.00011073,4.14121e-05,-3.42296e-05,1.64152e-05,-2.07413e-08,0
-7.99235e-06,-0.000126862,-2.33755e-05,9.46793e-05,4.29115e-05,-2.53002e-05,1.54819e-05,2.31013e-06,0
-9.98437e-06,-0.000212464,-2.8772e-05,6.04679e-05,3.88307e-05,-2.1522e-05,1.58724e-05,8.94129e-06,0
-2.43014e-05,-0.000218128,-2.66107e-05,2.82896e-05,2.88277e-05,-2.23973e-05,1.54402e-05,1.49081e-05,0
-2.92463e-05,-0.000148095,-2.06668e-05,4.9508e-06,2.03513e-05,-2.35534e-05,1.28683e-05,1.45367e-05,0
-2.44699e-05,-6.20358e-05,-1.30473e-05,-2.75775e-05,1.66145e-05,-2.40104e-05,9.79987e-06,7.76412e-06,0
-2.58108e-05,-5.33605e-06,-4.83511e-06,-6.93564e-05,1.14334e-05,-2.596e-05,8.03548e-06,-8.03167e-07,0
-3.45427e-05,1.22982e-05,5.76547e-06,-8.89499e-05,2.59114e-06,-2.66077e-05,8.36076e-06,-5.7671e-06,0
-4.19635e-05,-2.87349e-06,2.17512e-05,-7.57465e-05,-1.85869e-06,-2.40504e-05,9.48268e-06,-5.10973e-06,0
-4.36135e-05,-2.90799e-05,4.00666e-05,-4.95604e-05,-1.5384e-06,-2.0683e-05,9.33962e-06,-3.63068e-06,0
-4.39082e-05,-5.05329e-05,5.46743e-05,-2.55045e-05,-2.99166e-06,-1.82353e-05,8.32428e-06,-4.96862e-06,0
-4.74884e-05,-5.46036e-05,6.3061e-05,-5.63968e-06,-5.35931e-06,-1.56665e-05,6.82827e-06,-8.81689e-06,0
-4.78199e-05,-4.40518e-05,6.74994e-05,1.82011e-05,-5.6091e-06,-1.11042e-05,5.36889e-06,-1.35506e-05,0
-3.94289e-05,-3.14408e-05,6.5108e-05,4.61833e-05,-5.60002e-06,-7.21823e-06,5.16615e-06,-1.59638e-05,0
-2.8172e-05,-1.11266e-06,5.30012e-05,6.8909e-05,-7.5236e-06,-6.41702e-06,3.60501e-06,-1.79415e-05,0
-2.14518e-05,6.00356e-05,3.7933e-05,8.55747e-05,-7.52441e-06,-7.08692e-06,-4.7554e-06,-2.15164e-05,0
-1.96695e-05,0.000131869,2.26756e-05,8.71315e-05,9.26891e-07,-5.29557e-06,-1.51458e-05,-2.25208e-05,0
-1.49829e-05,0.000172566,5.90002e-06,7.023e-05,1.71625e-05,-1.03414e-06,-1.73864e-05,-1.92462e-05,0
-2.63207e-06,0.00014987,-2.39345e-05,4.31146e-05,3.31941e-05,3.57816e-06,-9.09554e-06,-1.43996e-05,0
1.26444e-05,8.13004e-05,-7.08678e-05,1.16256e-05,4.09244e-05,6.9696e-06,6.73256e-06,-9.555e-06,0
2.36284e-05,2.0086e-05,-0.000112744,-1.99498e-05,3.74871e-05,6.30285e-06,2.40325e-05,-5.59431e-06,0
2.97706e-05,1.44207e-05,-0.00012488,-6.15192e-05,2.69265e-05,2.88121e-06,3.96348e-05,-1.55652e-06,0
3.23068e-05,6.72813e-05,-0.000102147,-0.000113822,1.67075e-05,-5.49251e-07,5.08433e-05,1.78628e-06,0
2.9639e-05,0.000123402,-6.27288e-05,-0.000138964,1.11554e-05,-3.29813e-06,5.66937e-05,1.6911e-06,0
2.13095e-05,0.000126414,-3.20755e-05,-0.000111121,9.69608e-06,-5.11551e-06,5.92466e-05,-4.31959e-07,0
1.05082e-05,7.64822e-05,-2.03746e-05,-5.52686e-05,1.01427e-05,-6.62853e-06,5.94711e-05,-1.82422e-06,0
-2.12824e-06,1.08952e-05,-2.47757e-05,-7.55956e-06,1.16641e-05,-1.01215e-05,5.52014e-05,-2.25352e-06,0
-2.23449e-05,-4.93164e-05,-3.74962e-05,2.12631e-05,1.6216e-05,-1.41458e-05,4.43781e-05,-1.41511e-06,0
-4.97962e-05,-8.86061e-05,-4.3045e-05,3.63285e-05,2.27914e-05,-1.59301e-05,2.96656e-05,1.10163e-06,0
-7.18103e-05,-8.53185e-05,-3.31646e-05,5.25471e-05,2.57735e-05,-1.5879e-05,1.49124e-05,3.54171e-06,0
-8.01427e-05,-5.10827e-05,-1.54953e-05,8.82103e-05,2.3226e-05,-1.56967e-05,2.15131e-06,5.16403e-06,0
-8.19021e-05,-2.71759e-05,-2.06194e-06,0.000139252,1.9106e-05,-1.66302e-05,-8.57325e-06,6.19336e-06,0
-8.55188e-05,-2.65679e-05,3.55106e-06,0.000173652,1.68604e-05,-2.00142e-05,-1.66731e-05,7.21617e-06,0
-8.79097e-05,-2.50708e-05,4.67581e-06,0.000161045,1.82172e-05,-2.27148e-05,-2.20575e-05,8.52935e-06,0
-8.30937e-05,-1.02316e-05,4.58343e-06,0.000110517,2.29987e-05,-2.08027e-05,-2.28433e-05,8.25301e-06,0
-7.25156e-05,1.02049e-05,3.35683e-06,6.80094e-05,2.84333e-05,-1.59571e-05,-2.10452e-05,6.57137e-06,0
-5.46384e-05,3.8714e-05,2.45827e-06,5.35902e-05,2.74451e-05,-1.23512e-05,-2.19655e-05,5.33051e-06,0
-1.44536e-06,9.73072e-05,6.93719e-06,4.02845e-05,1.95208e-05,-1.05287e-05,-2.76676e-05,6.47076e-06,0
8.33666e-05,0.000193374,1.54945e-05,2.14634e-05,1.09362e-05,-7.90578e-06,-4.19981e-05,8.78508e-06,0
0.000139663,0.000281963,2.26502e-05,1.60577e-05,4.54031e-06,-5.58932e-06,-6.58418e-05,8.5422e-06,0
0.000133584,0.000280491,2.59538e-05,2.50077e-05,1.86802e-06,-7.01464e-06,-8.14799e-05,6.9633e-06,0
7.53306e-05,0.000167238,2.46097e-05,2.2733e-05,1.69943e-06,-1.00321e-05,-7.48569e-05,7.005e-06,0
-2.92332e-06,2.09737e-05,2.47146e-05,5.25624e-06,4.69439e-06,-9.24124e-06,-5.20731e-05,9.44887e-06,0
-7.52222e-05,-7.99349e-05,3.00761e-05,2.08316e-05,8.59232e-06,-8.92747e-06,-2.28168e-05,1.16397e-05,0
-0.00012079,-0.000118011,3.80688e-05,7.69165e-05,1.22106e-05,-9.98407e-06,7.04502e-06,1.24946e-05,0
-0.000138967,-0.000122929,4.228e-05,0.000100434,1.51533e-05,-9.88814e-06,3.41394e-05,1.14361e-05,0
-0.000147879,-0.000134838,3.53485e-05,6.0451e-05,1.36726e-05,-9.76791e-06,5.46514e-05,1.03714e-05,0
-0.000157969,-0.000151517,1.74259e-05,1.48168e-05,1.16942e-05,-1.1595e-05,6.7812e-05,1.04104e-05,0
-0.000163167,-0.000138123,-4.97012e-06,-2.72701e-06,9.47875e-06,-1.59813e-05,7.29247e-05,9.67256e-06,0
-0.00014239,-9.16101e-05,-2.0355e-05,-2.22678e-05,3.01009e-06,-1.88075e-05,7.20825e-05,9.1338e-06,0
-8.4635e-05,-3.89541e-05,-2.25851e-05,-5.18031e-05,-5.34535e-06,-1.80598e-05,6.74172e-05,9.06358e-06,0
-1.14182e-05,-5.36162e-06,-1.53067e-05,-7.47922e-05,-6.63751e-06,-1.45143e-05,5.99127e-05,9.49505e-06,0
3.79982e-05,-1.17933e-07,-5.98108e-06,-9.49236e-05,2.46849e-06,-9.84655e-06,5.12768e-05,9.41999e-06,0
5.0064e-05,-1.54072e-05,-1.12281e-07,-0.000108482,1.12539e-05,-4.71843e-06,4.42749e-05,9.42933e-06,0
3.23091e-05,-3.79766e-05,-3.94806e-07,-8.55775e-05,9.03419e-06,-1.07484e-06,4.01346e-05,9.23328e-06,0
1.628e-06,-4.87919e-05,-4.69005e-06,-1.75192e-05,-4.14161e-07,7.10251e-07,3.74474e-05,7.34987e-06,0
-2.22362e-05,-3.08974e-05,-1.10216e-05,3.39366e-05,-5.40471e-06,2.91952e-06,3.52276e-05,4.42394e-06,0
-2.33965e-05,5.38674e-06,-2.2537e-05,-1.12342e-07,-4.16565e-06,4.27123e-06,3.28098e-05,3.62931e-06,0
-3.94562e-06,1.98358e-05,-3.86717e-05,-8.74025e-05,-8.61198e-07,8.4772e-07,3.013e-05,5.00276e-06,0
1.62467e-05,1.01447e-06,-5.28329e-05,-0.000150667,3.20591e-06,-5.43737e-06,2.72743e-05,5.78954e-06,0
1.35177e-05,5.3579e-06,-6.31028e-05,-0.000175272,5.58869e-06,-1.05195e-05,2.47578e-05,3.88632e-06,0
-7.78112e-06,7.36423e-05,-6.7742e-05,-0.000178718,5.07355e-06,-1.28218e-05,1.97878e-05,1.10406e-06,0
-2.24915e-05,0.000172331,-6.11612e-05,-0.000165832,5.64803e-06,-1.20605e-05,1.23516e-05,-2.69177e-07,0
-2.68387e-05,0.000247061,-4.68888e-05,-0.000122101,8.28613e-06,-7.64362e-06,6.80072e-06,5.31753e-08,0
-4.04404e-05,0.000249312,-3.40739e-05,-6.03609e-05,1.11059e-05,2.91876e-07,4.42058e-06,2.74594e-06,0
-7.2688e-05,0.00018157,-2.75141e-05,-3.32778e-05,1.20556e-05,5.30887e-06,4.28547e-06,5.74833e-06,0
-0.000106641,8.37335e-05,-2.20375e-05,-3.44852e-05,9.7672e-06,2.5334e-06,6.0996e-06,6.20778e-06,0
-0.000122761,-1.36857e-05,-1.64777e-05,-2.27221e-05,6.56445e-06,-3.75586e-06,5.26401e-06,5.15497e-06,0
-0.000117789,-7.68986e-05,-1.50367e-05,-1.57049e-07,5.69136e-06,-5.81303e-06,2.32672e-06,6.81648e-06,0
-9.88483e-05,-7.06611e-05,-1.89503e-05,1.5445e-05,7.01835e-06,-4.41317e-06,1.82856e-06,5.30831e-06,0
