ch1,ch2,ch3,ch4,ch5,ch6,ch7,ch8,class
-4.69819e-05,-9.09414e-06,3.70452e-06,-1.8987e-05,-6.08478e-05,-6.65915e-06,8.92325e-06,3.35229e-06,0
-2.95399e-05,3.39353e-05,4.9137e-06,-4.05906e-05,-3.25033e-05,-5.86785e-06,9.99041e-06,3.08931e-06,0
-2.29588e-05,5.58745e-05,4.45311e-06,-6.21225e-05,4.31863e-06,-6.36825e-06,1.04101e-05,2.29601e-06,0
-2.85971e-05,5.37607e-05,2.97351e-06,-7.78382e-05,4.57581e-05,-8.34408e-06,1.04393e-05,1.90938e-06,0
-3.48766e-05,2.6969e-05,3.42112e-06,-8.26839e-05,7.01314e-05,-1.1428e-05,1.09851e-05,2.48454e-06,0
-3.11628e-05,-4.67184e-06,7.88718e-06,-8.07261e-05,6.39732e-05,-1.44905e-05,1.31807e-05,3.92902e-06,0
-1.99583e-05,-6.64217e-06,1.86634e-05,-7.35472e-05,4.31358e-05,-1.57648e-05,1.60863e-05,4.58529e-06,0
-9.37468e-06,2.16724e-05,3.54028e-05,-4.97748e-05,2.27916e-05,-1.48942e-05,1.6436e-05,4.36573e-06,0
-6.45163e-06,3.70777e-05,5.13114e-05,-8.60562e-06,1.90865e-06,-1.41404e-05,1.47125e-05,4.7555e-06,0
-1.22672e-05,2.40299e-05,5.82843e-05,3.69609e-05,-1.75928e-05,-1.52574e-05,1.39182e-05,5.99424e-06,0
-2.21252e-05,1.66385e-05,5.00203e-05,7.46083e-05,-2.92766e-05,-1.65698e-05,1.46244e-05,6.63635e-06,0
-3.13696e-05,2.10013e-05,2.79986e-05,8.64137e-05,-3.59206e-05,-1.38628e-05,1.55469e-05,5.45213e-06,0
-3.96352e-05,2.33004e-05,-4.3096e-06,7.22818e-05,-3.96023e-05,-1.11111e-05,1.56307e-05,3.12769e-06,0
-4.31502e-05,4.24397e-05,-4.03631e-05,5.45811e-05,-4.10804e-05,-1.04396e-05,1.66864e-05,2.17187e-06,0
-3.98873e-05,8.78738e-05,-6.95961e-05,5.01214e-05,-4.32318e-05,-9.91447e-06,1.90486e-05,1.87577e-06,0
-3.65044e-05,0.000133408,-8.58776e-05,5.64276e-05,-3.81333e-05,-1.03908e-05,1.98577e-05,1.94593e-06,0
-3.66616e-05,0.000136983,-8.6541e-05,4.87683e-05,-2.33967e-05,-1.20855e-05,1.87771e-05,7.74677e-07,0
-3.81149e-05,9.87712e-05,-7.76558e-05,2.14064e-05,-9.94497e-06,-1.42973e-05,1.73297e-05,-1.1002e-06,0
-3.7539e-05,7.46111e-05,-6.57005e-05,-8.68185e-06,-2.37328e-06,-1.50358e-05,1.54835e-05,-7.74384e-07,0
-3.62321e-05,9.8706e-05,-5.33589e-05,-2.40236e-05,6.75834e-06,-1.33813e-05,1.48997e-05,3.95892e-07,0
-3.61036e-05,0.000137134,-4.09706e-05,-2.63171e-05,2.34065e-05,-9.38692e-06,1.68132e-05,1.23247e-06,0
-3.41597e-05,0.000102415,-3.07312e-05,-2.75507e-05,3.20542e-05,-6.62329e-06,1.88712e-05,1.06296e-06,0
-2.68103e-05,-3.22206e-05,-2.62073e-05,-3.0901e-05,1.94366e-05,-6.73496e-06,1.97202e-05,1.01616e-06,0
-1.61923e-05,-0.000172908,-2.58537e-05,-3.32774e-05,2.67736e-06,-7.54254e-06,1.90961e-05,8.69929e-07,0
-9.28896e-06,-0.000230994,-2.36105e-05,-3.31249e-05,3.36371e-06,-6.90924e-06,1.76864e-05,3.32854e-07,0
-1.32158e-05,-0.000214815,-1.85794e-05,-3.35389e-05,1.77245e-05,-6.44664e-06,1.66024e-05,-1.923e-07,0
-2.63637e-05,-0.000163194,-1.4725e-05,-3.52651e-05,2.75183e-05,-8.31383e-06,1.59142e-05,-6.99789e-07,0
-3.94995e-05,-7.94318e-05,-1.34559e-05,-3.70058e-05,2.49675e-05,-1.06689e-05,1.53116e-05,-8.08165e-07,0
-4.86396e-05,3.4295e-05,-1.34917e-05,-3.37207e-05,1.51027e-05,-1.11323e-05,1.40952e-05,-6.31349e-07,0
-5.74258e-05,0.000150396,-1.15802e-05,-2.3658e-05,7.9752e-06,-9.93922e-06,1.33343e-05,-2.40093e-06,0
-6.56531e-05,0.000236587,-8.14419e-06,-8.0364e-06,8.26641e-06,-9.50388e-06,1.37475e-05,-4.17493e-06,0
-6.22442e-05,0.000273099,-6.43431e-06,6.82612e-06,1.46898e-05,-9.7368e-06,1.44045e-05,-2.32199e-06,0
-4.01032e-05,0.000244542,-8.09016e-06,1.62388e-05,2.2956e-05,-1.01546e-05,1.45814e-05,1.72851e-06,0
-1.18135e-05,0.000122383,-9.91072e-06,2.1012e-05,2.94513e-05,-1.04493e-05,1.40645e-05,3.80514e-06,0
4.20117e-07,-7.2499e-05,-1.01018e-05,2.57628e-05,3.30247e-05,-1.03838e-05,1.24416e-05,3.7666e-06,0
-9.02778e-06,-0.00024845,-8.92304e-06,3.1758e-05,3.31085e-05,-1.19741e-05,1.01843e-05,3.93174e-06,0
-1.95574e-05,-0.000319934,-6.19597e-06,3.58743e-05,2.90191e-05,-1.44141e-05,9.23068e-06,3.80878e-06,0
-1.56205e-05,-0.000243729,-2.87947e-06,3.81807e-05,2.3465e-05,-1.61186e-05,9.9182e-06,4.4425e-06,0
-1.24577e-05,-0.000110579,8.74178e-09,4.02152e-05,1.98535e-05,-1.66789e-05,1.09805e-05,5.92608e-06,0
-2.7279e-05,-3.3782e-05,3.1552e-06,3.93125e-05,1.80233e-05,-1.57947e-05,1.04909e-05,7.51022e-06,0
-5.71416e-05,-1.98212e-06,6.83846e-06,3.2382e-05,2.06461e-05,-1.52929e-05,8.39475e-06,6.69413e-06,0
-8.88986e-05,2.59723e-05,1.31996e-05,2.44636e-05,2.16166e-05,-1.54111e-05,6.69416e-06,3.30529e-06,0
-0.000107657,6.47017e-05,1.99779e-05,1.98194e-05,1.3094e-05,-1.43303e-05,5.56313e-06,1.2601e-06,0
-0.000102499,8.72992e-05,1.98458e-05,1.48438e-05,6.66232e-06,-1.28719e-05,5.02585e-06,1.46823e-06,0
-7.82431e-05,9.2603e-05,1.35007e-05,8.37123e-06,1.52821e-05,-1.18065e-05,4.36721e-06,1.19972e-06,0
-5.18433e-05,9.49662e-05,4.00258e-06,2.60859e-06,2.94565e-05,-9.79747e-06,3.37556e-06,-3.93597e-07,0
-3.56701e-05,9.85838e-05,-2.32872e-06,-4.82054e-06,3.49869e-05,-7.57942e-06,3.31979e-06,-1.6646e-06,0
-2.99635e-05,0.000101697,-2.94963e-06,-1.59319e-05,3.63064e-05,-6.40924e-06,3.94127e-06,-1.93691e-06,0
-2.9022e-05,9.54566e-05,-1.05718e-06,-2.2298e-05,3.92883e-05,-6.24549e-06,5.37795e-06,-1.1028e-06,0
-2.70081e-05,7.13946e-05,1.88575e-06,-1.25646e-05,5.13283e-05,-5.49133e-06,7.72995e-06,4.80425e-08,0
-1.83183e-05,1.14844e-05,5.79977e-06,1.12985e-05,7.67153e-05,-4.16632e-06,1.08352e-05,7.96387e-08,0
-3.78504e-06,-7.34345e-05,7.2323e-06,3.50825e-05,9.88165e-05,-3.07946e-06,1.33582e-05,-4.94987e-07,0
7.74942e-06,-0.000119379,1.83169e-06,4.30828e-05,9.09225e-05,-3.19955e-06,1.517e-05,-8.73719e-07,0
9.80049e-06,-7.89263e-05,-7.36796e-06,2.95659e-05,5.11037e-05,-3.73433e-06,1.61485e-05,-1.46947e-06,0
4.57445e-06,-3.12891e-06,-1.45673e-05,2.12903e-06,7.93287e-06,-2.99045e-06,1.50122e-05,-7.34201e-07,0
-5.35761e-06,3.64887e-05,-1.47983e-05,-2.5975e-05,-2.01346e-05,-1.73507e-06,1.26633e-05,1.94647e-06,0
-1.75142e-05,3.22335e-05,-1.00849e-05,-4.73279e-05,-4.28917e-05,-1.75809e-06,1.19153e-05,4.39665e-06,0
-2.81849e-05,1.96613e-05,-5.90619e-06,-6.08498e-05,-6.44945e-05,-3.47649e-06,1.24156e-05,4.32379e-06,0
-3.69532e-05,1.49162e-05,-3.99395e-06,-6.90213e-05,-6.07293e-05,-6.15891e-06,1.0835e-05,3.17292e-06,0
-4.4217e-05,7.64726e-06,-3.16052e-06,-7.61494e-05,-2.66032e-05,-8.1582e-06,8.22901e-06,3.51968e-06,0
-4.37064e-05,-3.39259e-07,-2.27418e-06,-8.50268e-05,2.12636e-05,-7.98471e-06,7.80332e-06,4.17887e-06,0
-2.87883e-05,1.3662e-06,-2.97903e-06,-9.42426e-05,6.81584e-05,-8.437e-06,9.50388e-06,4.0652e-06,0
-5.88942e-06,5.70513e-06,-6.84382e-06,-9.75665e-05,7.34367e-05,-1.13389e-05,1.04372e-05,4.15271e-06,0
1.08663e-05,1.04433e-05,-1.24316e-05,-8.82769e-05,1.82217e-05,-1.44569e-05,1.09766e-05,4.23209e-06,0
1.37216e-05,7.36252e-06,-1.92214e-05,-7.28225e-05,-4.10376e-05,-1.41793e-05,1.12977e-05,2.25369e-06,0
4.04321e-06,-3.07523e-06,-2.34828e-05,-5.88238e-05,-5.42012e-05,-1.13603e-05,1.13356e-05,7.3353e-08,0
-1.1073e-05,-2.29914e-06,-2.17804e-05,-4.29669e-05,-3.46958e-05,-6.99174e-06,1.13435e-05,2.55419e-07,0
-2.84077e-05,1.34944e-05,-1.73062e-05,-2.39004e-05,-1.49803e-05,-6.36236e-06,1.09382e-05,7.46063e-07,0
-4.91813e-05,2.54303e-05,-1.2262e-05,-7.58562e-06,-7.62713e-06,-1.2608e-05,1.06896e-05,1.4354e-06,0
-7.1652e-05,3.80548e-05,-6.60497e-06,1.55457e-06,-5.31323e-06,-1.79472e-05,1.04223e-05,1.75597e-06,0
-8.67826e-05,9.23645e-05,-3.51021e-06,6.92232e-06,7.21136e-06,-1.912e-05,1.12722e-05,1.61293e-06,0
-8.29247e-05,0.000188738,-6.43679e-06,1.72683e-05,2.6044e-05,-1.98989e-05,1.27509e-05,1.83436e-06,0
-5.76235e-05,0.000269773,-1.15141e-05,3.73227e-05,3.39732e-05,-2.27301e-05,1.2127e-05,2.00438e-06,0
-2.42377e-05,0.000276829,-1.32211e-05,5.70277e-05,3.06626e-05,-2.37774e-05,9.6736e-06,2.22636e-06,0
-1.3021e-06,0.00020614,-9.92702e-06,6.27962e-05,3.0355e-05,-1.78417e-05,8.80458e-06,2.14771e-06,0
2.69559e-06,8.44338e-05,-2.75847e-06,5.31307e-05,4.0782e-05,-4.76274e-06,1.04666e-05,1.96457e-06,0
-1.49383e-05,-5.0653e-05,3.56597e-06,3.77149e-05,5.40653e-05,3.91849e-06,1.29934e-05,1.42678e-06,0
-4.72222e-05,-0.000169447,4.72744e-06,2.24099e-05,5.48358e-05,-1.31192e-08,1.45452e-05,1.47365e-06,0
-7.42821e-05,-0.000227422,3.14643e-06,9.40483e-06,3.78894e-05,-7.00062e-06,1.50645e-05,2.55318e-06,0
-7.94805e-05,-0.000179977,2.12276e-06,2.40841e-06,1.56496e-05,-6.36567e-06,1.56982e-05,3.77897e-06,0
-6.46083e-05,-6.17734e-05,1.96007e-06,5.94624e-07,1.05564e-06,-1.14435e-06,1.62376e-05,3.77124e-06,0
-4.36765e-05,3.22101e-05,1.35058e-06,-2.62144e-06,-2.19597e-07,1.74113e-06,1.56044e-05,3.00674e-06,0
-2.62998e-05,5.36855e-05,-4.23335e-07,-1.15205e-05,1.06158e-05,7.80004e-07,1.40858e-05,2.6832e-06,0
-1.19635e-05,2.89267e-05,-2.11309e-06,-2.13544e-05,2.81064e-05,-2.40444e-06,1.27151e-05,3.11871e-06,0
-2.23582e-07,-6.4261e-06,-2.48365e-06,-2.25038e-05,4.03864e-05,-4.96215e-06,1.25562e-05,3.15847e-06,0
8.01395e-06,-3.41854e-05,-5.54728e-06,-1.42651e-05,4.13615e-05,-4.58242e-06,1.29435e-05,1.12077e-06,0
1.24605e-05,-3.91019e-05,-1.36656e-05,-7.96217e-06,4.47417e-05,-1.17381e-06,1.2611e-05,-1.61102e-07,0
1.01854e-05,-3.67162e-06,-1.87441e-05,-9.09427e-06,6.63959e-05,2.13358e-06,1.19526e-05,1.72168e-06,0
3.89288e-07,5.48537e-05,-1.63437e-05,-1.04426e-05,8.83769e-05,2.65705e-06,1.12776e-05,3.22613e-06,0
-1.30961e-05,9.10267e-05,-1.07971e-05,-5.50646e-06,7.80328e-05,-8.03902e-07,1.16472e-05,2.99352e-06,0
-2.77018e-05,5.99469e-05,-5.92746e-06,2.48683e-06,4.83899e-05,-4.90052e-06,1.33211e-05,2.89438e-06,0
-3.48148e-05,-3.93741e-05,-1.12155e-06,2.94177e-06,3.22503e-05,-3.1212e-06,1.46316e-05,2.41135e-06,0
-2.75246e-05,-0.000128054,6.47123e-07,-9.34896e-06,2.41978e-05,2.99861e-06,1.44562e-05,1.11488e-06,0
-2.3827e-05,-0.00013943,-1.32525e-06,-2.27873e-05,1.85881e-05,5.183e-06,1.391e-05,-1.09682e-06,0
-3.45941e-05,-7.21069e-05,-3.48324e-06,-2.66675e-05,1.91469e-05,2.40092e-07,1.27315e-05,-3.13181e-06,0
-4.69839e-05,1.98837e-05,-4.69052e-06,-2.45313e-05,2.18199e-06,-9.38445e-06,1.05644e-05,-3.03573e-06,0
-4.9289e-05,6.15592e-05,-3.4856e-06,-2.26665e-05,-3.34007e-05,-1.61209e-05,8.41181e-06,-1.1953e-06,0
-4.50356e-05,3.82159e-05,-2.21774e-06,-2.38316e-05,-5.65144e-05,-1.6974e-05,8.25357e-06,1.3076e-07,0
-4.12384e-05,-7.49241e-06,-1.90315e-06,-2.69432e-05,-3.67222e-05,-1.43003e-05,8.76697e-06,5.39806e-07,0
-3.77905e-05,-2.36727e-05,-4.94583e-06,-3.13964e-05,2.99765e-05,-1.35235e-05,8.93848e-06,-1.05813e-06,0
-3.08932e-05,-1.03476e-05,-9.17732e-06,-3.48236e-05,9.98186e-05,-1.72095e-05,1.02328e-05,-4.94514e-06,0
-1.93134e-05,9.98351e-06,-9.41984e-06,-3.11569e-05,0.000125659,-1.88051e-05,1.07284e-05,-9.54141e-06,0
-1.04314e-05,7.58839e-06,-6.66716e-06,-2.00294e-05,9.13095e-05,-1.59136e-05,1.10614e-05,-1.1079e-05,0
-8.6778e-06,-1.74507e-05,-5.97771e-06,-9.33008e-06,2.1893e-05,-1.23241e-05,1.27307e-05,-7.51514e-06,0
-9.36882e-06,-8.6705e-06,-9.96007e-06,-3.13033e-06,-4.2855e-05,-1.03308e-05,1.45189e-05,-2.14735e-06,0
-6.50904e-06,6.24602e-05,-1.53103e-05,-9.47848e-07,-7.99632e-05,-9.16135e-06,1.5034e-05,1.84156e-06,0
-4.9506e-06,0.000151295,-2.01799e-05,-3.32435e-06,-8.6821e-05,-1.0406e-05,1.55553e-05,3.03367e-06,0
-1.24699e-05,0.000189926,-2.50797e-05,-7.02485e-06,-7.23668e-05,-1.45654e-05,1.716e-05,2.72568e-06,0
-2.94912e-05,0.000149619,-2.8421e-05,-6.02714e-06,-4.94034e-05,-1.98706e-05,1.85806e-05,2.90095e-06,0
-4.90127e-05,3.90629e-05,-2.52462e-05,4.87091e-07,-3.17149e-05,-2.35538e-05,1.87378e-05,4.53992e-06,0
-6.28098e-05,-9.70368e-05,-1.70203e-05,7.30573e-06,-2.2589e-05,-2.40795e-05,1.77851e-05,5.84336e-06,0
-6.30282e-05,-0.000209073,-1.11703e-05,1.23407e-05,-1.96346e-05,-2.09861e-05,1.63685e-05,6.04066e-06,0
-4.20719e-05,-0.000236111,-1.08794e-05,1.88342e-05,-1.47189e-05,-1.5415e-05,1.52485e-05,6.30977e-06,0
-7.29266e-06,-0.000158089,-1.11853e-05,2.88443e-05,1.07469e-06,-1.23039e-05,1.33383e-05,5.48698e-06,0
1.66244e-05,-5.9771e-05,-1.07022e-05,4.18147e-05,2.0192e-05,-1.45899e-05,1.05196e-05,3.25409e-06,0
1.26257e-05,-1.51933e-05,-1.14853e-05,5.42056e-05,2.63917e-05,-1.9312e-05,9.5992e-06,1.98221e-06,0
-9.45087e-06,2.25184e-06,-1.47201e-05,5.9021e-05,2.23751e-05,-2.10395e-05,1.05115e-05,4.23041e-07,0
-2.52086e-05,2.40475e-05,-1.49806e-05,5.30342e-05,2.06331e-05,-1.75229e-05,1.12228e-05,-9.32184e-07,0
-2.8803e-05,4.38088e-05,-7.84824e-06,3.43712e-05,2.99954e-05,-1.18384e-05,1.20837e-05,-8.41324e-08,0
-3.7644e-05,5.01122e-05,-3.11946e-07,1.28691e-05,3.91741e-05,-8.40674e-06,1.38369e-05,4.6597e-07,0
-5.38843e-05,4.17476e-05,2.91835e-06,-1.68171e-06,3.81236e-05,-8.3039e-06,1.55088e-05,8.92187e-07,0
-6.30142e-05,5.73591e-06,2.96687e-06,-1.14202e-05,4.69476e-05,-1.07696e-05,1.52642e-05,7.00629e-07,0
-5.27391e-05,-6.14248e-05,9.37751e-07,-1.91509e-05,7.52068e-05,-1.30367e-05,1.24428e-05,-5.31859e-07,0
-3.24583e-05,-0.000116836,-2.95297e-06,-2.41861e-05,9.60386e-05,-1.2541e-05,9.15157e-06,-2.11441e-06,0
-1.93217e-05,-0.000130981,-6.09792e-06,-2.44183e-05,8.70284e-05,-1.1341e-05,8.94558e-06,-3.33781e-06,0
-1.10632e-05,-0.00010276,-7.02491e-06,-2.04215e-05,5.96585e-05,-1.02653e-05,1.15889e-05,-3.08811e-06,0
-9.14852e-06,-4.95824e-05,-4.8142e-06,-6.99036e-06,3.07903e-05,-9.76063e-06,1.30095e-05,-1.96936e-06,0
-1.7508e-05,1.17197e-05,8.05057e-08,1.30462e-05,6.74321e-06,-1.04134e-05,1.3077e-05,-1.01113e-06,0
-3.46574e-05,7.98312e-05,2.77116e-06,2.98984e-05,-1.64924e-05,-1.16855e-05,1.25742e-05,-1.55141e-06,0
-5.94425e-05,0.000142608,4.40869e-08,3.58421e-05,-3.95492e-05,-1.35213e-05,1.26399e-05,-2.92908e-06,0
-8.63693e-05,0.000168474,-4.47499e-06,2.85001e-05,-5.50599e-05,-1.4736e-05,1.43366e-05,-3.39109e-06,0
-0.000102615,0.000148763,-7.14277e-06,1.03233e-05,-5.32134e-05,-1.46796e-05,1.65305e-05,-2.38597e-06,0
-0.000104089,0.000114157,-9.65955e-06,-1.09516e-05,-3.42055e-05,-1.438e-05,1.78923e-05,-5.35459e-07,0
-9.77924e-05,9.08832e-05,-1.2326e-05,-2.48696e-05,-1.77214e-05,-1.57083e-05,1.83934e-05,7.08379e-07,0
-8.77973e-05,6.99874e-05,-1.28831e-05,-2.7971e-05,-1.12718e-05,-1.79436e-05,1.83071e-05,5.78354e-07,0
-7.60314e-05,3.66786e-05,-1.11226e-05,-2.34225e-05,1.26821e-05,-1.93619e-05,1.71576e-05,1.9629e-06,0
-6.37128e-05,-2.14894e-06,-8.62014e-06,-1.61378e-05,7.677e-05,-2.06267e-05,1.59734e-05,5.33339e-06,0
-4.99679e-05,-2.79307e-05,-8.79631e-06,-9.45969e-06,0.000144911,-2.19256e-05,1.56073e-05,6.69521e-06,0
-3.29403e-05,-2.28879e-05,-1.2873e-05,-6.39558e-06,0.000147727,-2.03445e-05,1.53231e-05,5.05645e-06,0
-2.07474e-05,5.01581e-06,-1.60128e-05,-7.29153e-06,6.92548e-05,-1.72061e-05,1.52069e-05,3.5514e-06,0
-2.38912e-05,2.38987e-05,-1.50022e-05,-1.00707e-05,-2.6864e-05,-1.62086e-05,1.58162e-05,3.85392e-06,0
-3.89071e-05,1.86966e-05,-1.17907e-05,-8.10229e-06,-7.85838e-05,-1.63624e-05,1.54282e-05,4.85694e-06,0
-5.57222e-05,-2.15957e-06,-6.3508e-06,4.49084e-06,-7.93802e-05,-1.50914e-05,1.44994e-05,5.85824e-06,0
-7.10969e-05,-1.83911e-05,1.66658e-06,1.91991e-05,-5.94557e-05,-1.19895e-05,1.45995e-05,5.84314e-06,0
-7.95994e-05,-1.26063e-05,7.06944e-06,2.16608e-05,-3.94035e-05,-7.09808e-06,1.54981e-05,3.22133e-06,0
-7.21853e-05,-4.30085e-06,6.248e-06,1.64913e-05,-3.40506e-06,-1.44751e-06,1.57016e-05,-6.10662e-07,0
-4.77837e-05,-1.18735e-05,3.99397e-06,1.66988e-05,3.65147e-05,2.27626e-06,1.36937e-05,-2.42238e-07,0
-1.70678e-05,-1.16923e-05,3.31882e-06,2.33082e-05,4.94582e-05,3.35937e-06,1.04678e-05,7.93143e-06,0
-6.9176e-08,-4.98219e-06,4.6321e-07,2.02342e-05,3.33577e-05,1.38688e-06,8.72037e-06,2.74574e-05,0
-7.8054e-06,-8.03308e-06,-7.1611e-06,2.29386e-06,4.91509e-06,-2.77092e-06,7.76412e-06,4.49639e-05,0
-2.05835e-05,-1.00685e-05,-1.75234e-05,-1.23473e-05,-1.06788e-05,-4.61566e-06,5.0271e-06,4.83949e-05,0
-8.35632e-06,1.56133e-06,-2.53816e-05,-1.45502e-05,-1.90421e-05,-2.18312e-06,2.88278e-06,4.16625e-05,0
2.36233e-05,1.96058e-05,-2.72744e-05,-1.19984e-05,-2.7198e-05,3.451e-06,2.55402e-06,2.32466e-05,0
4.39292e-05,2.34683e-05,-2.49867e-05,-1.61747e-05,-2.96306e-05,7.63412e-06,2.39476e-06,-1.19658e-06,0
4.07177e-05,1.21492e-05,-2.30415e-05,-2.87878e-05,-2.72658e-05,5.8841e-06,2.45144e-06,-2.42416e-05,0
2.59817e-05,-3.54499e-06,-2.30276e-05,-3.73896e-05,-1.84528e-05,9.5283e-07,2.17409e-06,-4.03508e-05,0
1.23527e-05,-1.42705e-05,-2.30056e-05,-3.16872e-05,-1.31709e-06,-1.7507e-06,1.17902e-06,-4.61216e-05,0
4.50882e-06,-1.77336e-05,-2.14376e-05,-1.54537e-05,1.94335e-05,-2.87289e-06,1.56674e-06,-4.2938e-05,0
8.5119e-07,-1.23301e-05,-1.99793e-05,-7.96159e-07,3.36436e-05,-4.82358e-06,4.62159e-06,-3.60794e-05,0
1.96142e-06,-1.1422e-07,-2.06246e-05,4.97988e-06,3.54446e-05,-6.60814e-06,7.73043e-06,-2.84132e-05,0
1.04466e-05,1.5181e-05,-1.95547e-05,5.01019e-06,2.69247e-05,-6.27707e-06,9.12734e-06,-1.98229e-05,0
2.10657e-05,2.89439e-05,-1.23417e-05,3.29199e-06,1.95821e-05,-4.37214e-06,9.88895e-06,-1.18502e-05,0
2.25186e-05,3.7118e-05,-2.56621e-06,3.41062e-07,1.9961e-05,-2.51864e-06,1.09375e-05,-5.99598e-06,0
8.74292e-06,4.43902e-05,2.81068e-06,-3.43345e-06,2.45018e-05,-1.53962e-06,1.21896e-05,-3.59085e-06,0
-1.90511e-05,5.68995e-05,2.50418e-06,-6.02806e-06,2.43204e-05,-3.70818e-06,1.28388e-05,-2.82593e-06,0
-5.40911e-05,7.3137e-05,-4.64125e-07,-8.88243e-06,1.86139e-05,-6.84457e-06,1.2121e-05,-1.42634e-06,0
-8.20342e-05,8.45301e-05,-3.07419e-06,-1.40571e-05,1.39773e-05,-7.12692e-06,1.07352e-05,1.33968e-07,0
-9.1309e-05,8.38876e-05,-2.97534e-06,-2.00938e-05,1.07386e-05,-5.95484e-06,9.19464e-06,5.149e-07,0
-8.29613e-05,6.33692e-05,1.83624e-09,-2.2893e-05,2.83782e-07,-7.49774e-06,8.69981e-06,1.38459e-06,0
-6.29566e-05,3.37448e-05,3.93226e-06,-1.91946e-05,-1.61528e-05,-1.09866e-05,1.05924e-05,2.64769e-06,0
-3.9911e-05,2.19301e-05,7.96242e-06,-1.09898e-05,-2.58713e-05,-1.26126e-05,1.26956e-05,1.71803e-06,0
-2.17719e-05,2.62018e-05,1.4236e-05,-1.30298e-06,-1.70886e-05,-1.13849e-05,1.25097e-05,-1.62552e-06,0
-1.02426e-05,3.08685e-05,2.40064e-05,9.48576e-06,1.60659e-05,-8.39239e-06,1.06858e-05,-2.72118e-06,0
-6.91094e-07,5.06791e-05,3.52025e-05,1.05403e-05,5.2267e-05,-2.49295e-06,1.10035e-05,-2.51367e-06,0
1.05525e-05,9.12679e-05,4.21449e-05,-5.76888e-06,6.53228e-05,3.35922e-06,1.33199e-05,-1.14649e-06,0
1.45848e-05,0.000118706,3.98564e-05,-2.89714e-05,5.96706e-05,5.90261e-06,1.45387e-05,2.86467e-06,0
5.22104e-06,0.000111363,2.78151e-05,-5.09726e-05,6.0083e-05,2.9863e-06,1.39873e-05,7.41424e-06,0
-7.84908e-06,0.000111768,9.66154e-06,-6.49517e-05,7.97899e-05,-3.00023e-06,1.40343e-05,1.03625e-05,0
-1.49359e-05,0.000140529,-1.02739e-05,-6.77593e-05,9.08216e-05,-6.99582e-06,1.45794e-05,1.04882e-05,0
-1.73108e-05,0.000140596,-3.08299e-05,-6.5114e-05,7.72255e-05,-9.41328e-06,1.47478e-05,8.16901e-06,0
-1.9297e-05,5.36342e-05,-5.19831e-05,-6.27772e-05,6.39048e-05,-1.15047e-05,1.51994e-05,5.64428e-06,0
-2.00954e-05,-7.79292e-05,-6.9815e-05,-6.45061e-05,6.98431e-05,-1.39231e-05,1.5054e-05,4.81583e-06,0
-1.8036e-05,-0.0001557,-7.70936e-05,-5.85726e-05,9.39634e-05,-1.40332e-05,1.49558e-05,3.78012e-06,0
-1.62282e-05,-0.000157796,-7.36049e-05,-2.41782e-05,0.000109732,-1.4091e-05,1.46828e-05,2.8824e-06,0
-1.96571e-05,-0.000121763,-6.56276e-05,3.42655e-05,8.47076e-05,-1.62098e-05,1.40581e-05,2.95067e-06,0
-2.9528e-05,-8.64804e-05,-5.88779e-05,8.93882e-05,2.82112e-05,-1.95996e-05,1.27443e-05,3.11641e-06,0
-4.47481e-05,-5.69321e-05,-5.33798e-05,0.000122337,-1.65304e-05,-2.18959e-05,1.18684e-05,2.25723e-06,0
-6.36817e-05,-2.27996e-05,-4.55588e-05,0.000128259,-3.21889e-05,-2.12243e-05,1.32496e-05,2.03755e-06,0
-8.22496e-05,1.33683e-05,-3.3813e-05,0.000108279,-3.35286e-05,-1.73109e-05,1.57535e-05,2.10603e-06,0
-9.53587e-05,3.3165e-05,-2.31189e-05,7.08744e-05,-3.52795e-05,-1.22208e-05,1.7245e-05,1.87609e-06,0
-0.00010095,3.55747e-05,-1.71805e-05,3.0678e-05,-3.91109e-05,-1.01982e-05,1.71867e-05,2.4373e-06,0
-9.55002e-05,3.86675e-05,-1.15504e-05,4.4634e-07,-4.32214e-05,-1.14594e-05,1.66735e-05,3.76148e-06,0
-7.71586e-05,3.79098e-05,-3.93669e-06,-1.63459e-05,-4.75095e-05,-1.40152e-05,1.63154e-05,5.04691e-06,0
-5.47514e-05,1.02629e-05,2.72356e-06,-2.34787e-05,-4.93573e-05,-1.61305e-05,1.59516e-05,4.71929e-06,0
-3.83484e-05,-4.44761e-05,5.75479e-06,-2.77502e-05,-4.34584e-05,-1.59021e-05,1.46068e-05,2.71463e-06,0
-2.98452e-05,-8.99226e-05,7.71746e-06,-3.09543e-05,-2.87125e-05,-1.29721e-05,1.32626e-05,1.69032e-06,0
-2.29997e-05,-9.13971e-05,1.15872e-05,-2.87589e-05,-9.69294e-06,-1.09883e-05,1.31318e-05,1.86005e-06,0
-1.56504e-05,-5.00796e-05,1.61295e-05,-1.87284e-05,9.02718e-06,-1.26272e-05,1.20157e-05,5.95756e-07,0
-1.39184e-05,-7.289e-06,1.74521e-05,-1.06342e-05,2.20748e-05,-1.42085e-05,1.01958e-05,-1.65077e-06,0
-1.6185e-05,3.60292e-06,1.75704e-05,-1.87115e-05,1.8394e-05,-1.10073e-05,9.8357e-06,-1.73708e-06,0
-1.8602e-05,-4.24403e-06,1.96753e-05,-3.01006e-05,-1.29765e-05,-7.68581e-06,1.19282e-05,1.22353e-07,0
-1.60344e-05,4.94391e-06,1.59646e-05,-2.90859e-05,-4.14123e-05,-1.05832e-05,1.44979e-05,1.95675e-06,0
-6.7557e-06,3.94468e-05,4.86687e-06,-1.87175e-05,-2.74266e-05,-1.79209e-05,1.61562e-05,3.49136e-06,0
-3.58094e-06,7.7788e-05,-2.89313e-06,-5.21429e-06,2.30195e-05,-2.24638e-05,1.88775e-05,3.94109e-06,0
-7.97798e-06,0.000105664,-3.50658e-06,-6.85455e-07,7.91502e-05,-1.95954e-05,2.05902e-05,3.71393e-06,0
-9.92e-06,0.000114812,-2.42439e-06,-1.13674e-05,9.22097e-05,-1.32083e-05,2.07768e-05,4.63689e-06,0
-4.28091e-06,9.66555e-05,-6.78443e-06,-3.01543e-05,5.43135e-05,-9.45883e-06,2.07419e-05,6.46113e-06,0
5.34341e-06,6.78885e-05,-1.47641e-05,-3.3735e-05,1.54677e-05,-7.77943e-06,1.98418e-05,6.36029e-06,0
1.3443e-05,5.41411e-05,-2.00756e-05,-1.10591e-05,9.36959e-06,-6.77527e-06,1.89898e-05,7.02738e-06,0
1.0518e-05,5.23404e-05,-2.10162e-05,2.10704e-05,1.69942e-05,-8.23354e-06,1.89825e-05,9.09717e-06,0
-9.5899e-06,4.00698e-05,-1.87784e-05,4.59337e-05,6.30554e-06,-1.09743e-05,1.93783e-05,1.02926e-05,0
-3.46631e-05,2.36275e-05,-1.45726e-05,6.19827e-05,-1.94833e-05,-1.29627e-05,1.9947e-05,9.69246e-06,0
-4.83866e-05,2.76925e-05,-6.98088e-06,6.80576e-05,-3.5921e-05,-1.28834e-05,1.98823e-05,7.89501e-06,0
-5.23119e-05,3.58845e-05,1.46293e-07,5.79036e-05,-3.32415e-05,-1.06882e-05,1.81977e-05,7.55186e-06,0
-6.32382e-05,1.1283e-05,1.68144e-06,3.55469e-05,-2.84503e-05,-8.42632e-06,1.60833e-05,8.15982e-06,0
-8.67862e-05,-4.09467e-05,-9.7875e-07,7.95266e-06,-3.54235e-05,-8.98456e-06,1.45992e-05,7.44428e-06,0
-0.000110405,-6.56865e-05,-3.51058e-06,-1.99539e-05,-4.45628e-05,-1.21145e-05,1.2506e-05,5.27994e-06,0
-0.000109936,-2.02102e-05,-3.65907e-06,-3.99096e-05,-3.7407e-05,-1.35645e-05,1.03133e-05,4.11261e-06,0
-7.07501e-05,7.22773e-05,-4.57338e-06,-4.70501e-05,-1.6041e-05,-1.164e-05,9.91497e-06,3.82817e-06,0
-7.37927e-06,0.000157548,-1.20009e-05,-4.97494e-05,-2.34476e-06,-7.98521e-06,1.05196e-05,2.58007e-06,0
4.33866e-05,0.000212739,-2.37294e-05,-5.64193e-05,-1.09716e-05,-6.54103e-06,1.06197e-05,7.95793e-07,0
5.81799e-05,0.000232844,-3.17046e-05,-7.10303e-05,-2.93965e-05,-1.05027e-05,1.05887e-05,-7.63344e-08,0
4.42127e-05,0.000218239,-3.16314e-05,-9.08203e-05,-3.83365e-05,-1.5058e-05,1.08568e-05,-1.32798e-06,0
2.01122e-05,0.000171471,-2.347e-05,-0.000102798,-3.12626e-05,-1.38872e-05,1.05406e-05,-1.69937e-06,0
-6.93652e-06,6.78785e-05,-1.1133e-05,-9.71472e-05,-1.41301e-05,-8.00132e-06,9.64997e-06,-2.89988e-07,0
-4.06736e-05,-8.17602e-05,2.53212e-06,-7.41284e-05,5.45743e-07,-1.98174e-06,9.20364e-06,1.56623e-06,0
-8.65226e-05,-0.000188589,1.15196e-05,-3.90779e-05,4.76525e-06,1.01445e-07,1.17125e-05,2.0693e-06,0
-0.000122477,-0.000172578,1.15521e-05,-3.02568e-06,-2.69632e-07,-1.79048e-06,1.4924e-05,-5.64036e-07,0
-0.000130253,-9.60772e-05,7.46638e-06,2.49979e-05,-7.16883e-06,-6.46764e-06,1.50279e-05,-2.15108e-06,0
-0.000123544,-8.92299e-05,2.51465e-06,3.70741e-05,-1.15001e-05,-1.30114e-05,1.56034e-05,-2.95898e-07,0
-0.000111779,-0.000143836,1.47849e-06,2.88431e-05,-1.25206e-05,-1.82042e-05,1.73933e-05,1.14495e-06,0
-0.000103112,-0.00016371,4.88179e-06,9.0679e-06,-1.13284e-05,-2.10309e-05,1.80639e-05,1.4178e-06,0
-9.16148e-05,-0.000134209,5.45927e-06,-1.38025e-05,-7.85996e-06,-2.22561e-05,1.71627e-05,2.74316e-06,0
-7.00039e-05,-0.000105494,4.07069e-07,-3.0385e-05,2.16547e-06,-2.04708e-05,1.41816e-05,2.71938e-06,0
-4.30642e-05,-9.59681e-05,-7.55956e-06,-3.13987e-05,1.5925e-05,-1.54639e-05,1.02939e-05,1.87569e-06,0
-2.49063e-05,-8.60052e-05,-1.6852e-05,-2.26584e-05,2.06949e-05,-1.12207e-05,7.82778e-06,2.81603e-06,0
-1.96476e-05,-4.12997e-05,-2.34287e-05,-1.35684e-05,1.14311e-05,-9.81062e-06,7.74109e-06,4.67307e-06,0
-2.15308e-05,2.66437e-05,-2.20144e-05,-3.07652e-06,1.98947e-06,-9.57105e-06,8.24308e-06,4.83667e-06,0
-2.37982e-05,7.49957e-05,-1.61458e-05,8.31135e-06,1.06776e-05,-9.32414e-06,8.36386e-06,3.30054e-06,0
-2.33893e-05,8.18555e-05,-1.21926e-05,1.51912e-05,3.48732e-05,-9.93681e-06,8.49716e-06,2.34221e-06,0
-2.43907e-05,5.12762e-05,-1.15569e-05,1.44458e-05,5.17504e-05,-1.30005e-05,8.72034e-06,2.38309e-06,0
-2.50653e-05,-1.96836e-06,-1.11863e-05,1.07736e-05,3.86222e-05,-1.76179e-05,1.03627e-05,3.01778e-06,0
-2.16592e-05,-5.52292e-05,-9.41623e-06,7.79628e-06,-1.42543e-06,-1.9206e-05,1.28814e-05,3.47088e-06,0
-1.07865e-05,-7.51463e-05,-7.07487e-06,2.23973e-06,-4.16179e-05,-1.46832e-05,1.36378e-05,4.14063e-06,0
2.20228e-06,-4.83118e-05,-4.98007e-06,-6.60938e-06,-5.40646e-05,-6.36054e-06,1.27355e-05,3.4968e-06,0
7.00806e-06,2.54353e-06,-2.78579e-06,-1.16631e-05,-3.92842e-05,4.80388e-07,1.2902e-05,2.18998e-06,0
-3.68351e-06,4.80541e-05,-3.27715e-06,-9.92937e-06,-2.39268e-05,1.02061e-06,1.42173e-05,2.06116e-06,0
-1.99468e-05,7.95298e-05,-9.73239e-06,-7.91753e-06,-2.17698e-05,-3.79526e-06,1.62209e-05,2.48626e-06,0
-3.08369e-05,8.28313e-05,-1.72351e-05,-9.95209e-06,-2.36766e-05,-1.02001e-05,1.87041e-05,2.75564e-06,0
-3.46538e-05,5.67441e-05,-2.07092e-05,-1.5403e-05,-2.40221e-05,-1.50622e-05,1.96719e-05,7.8725e-07,0
-3.28685e-05,2.25452e-05,-2.29139e-05,-1.83378e-05,-2.50146e-05,-1.53179e-05,1.80983e-05,-2.49262e-06,0
-2.37019e-05,-2.1147e-06,-2.36504e-05,-1.35641e-05,-2.18059e-05,-1.09361e-05,1.59699e-05,-4.19774e-06,0
-1.25878e-05,-2.16051e-05,-2.09991e-05,-5.71013e-06,-5.76963e-06,-6.56179e-06,1.56216e-05,-5.67909e-06,0
-1.06906e-05,-2.86224e-05,-1.61233e-05,1.11083e-06,3.90744e-05,-6.49594e-06,1.39668e-05,-6.72115e-06,0
-1.13841e-05,-3.39841e-06,-1.18687e-05,9.02037e-06,8.78959e-05,-7.02565e-06,1.07927e-05,-6.57302e-06,0
-9.1984e-06,3.49661e-05,-1.37626e-05,1.67326e-05,7.64966e-05,-6.75858e-06,8.56988e-06,-6.78718e-06,0
-8.67719e-06,4.68686e-05,-2.0162e-05,1.96001e-05,-2.18953e-06,-8.6807e-06,8.71099e-06,-7.65838e-06,0
-1.14778e-05,1.21159e-05,-2.42876e-05,1.80906e-05,-6.91612e-05,-1.24442e-05,9.25526e-06,-7.73432e-06,0
-1.6242e-05,-3.61605e-05,-2.17084e-05,1.30861e-05,-5.51815e-05,-1.42149e-05,6.79792e-06,-7.00991e-06,0
-2.12315e-05,-4.11574e-05,-1.11313e-05,9.9737e-06,6.08994e-06,-1.1264e-05,4.01217e-06,-6.68919e-06,0
-2.56463e-05,-8.31996e-06,1.23315e-06,1.69582e-05,4.88099e-05,-6.68752e-06,3.22124e-06,-6.60682e-06,0
-2.577e-05,3.29544e-05,8.47249e-06,2.85262e-05,4.32032e-05,-2.29782e-06,4.47623e-06,-6.4666e-06,0
-2.08244e-05,7.243e-05,1.33242e-05,3.81536e-05,1.14497e-05,2.42123e-06,5.43338e-06,-5.06207e-06,0
-1.04826e-05,9.79641e-05,1.7528e-05,4.19653e-05,5.6388e-06,6.89223e-06,5.7686e-06,-3.81692e-06,0
7.4764e-06,0.000110993,1.75263e-05,3.90849e-05,5.43157e-05,7.91221e-06,6.72834e-06,-4.67181e-06,0
2.77749e-05,0.000130985,1.24569e-05,2.78328e-05,0.000116118,4.61072e-06,7.75002e-06,-7.63699e-06,0
4.03975e-05,0.000167123,5.6985e-06,9.50507e-06,0.000133504,1.20626e-07,8.38101e-06,-1.05077e-05,0
3.59534e-05,0.000211766,-6.46011e-07,-7.65564e-06,0.000114752,-1.70924e-06,9.13553e-06,-1.18929e-05,0
1.7257e-05,0.000258476,-5.89515e-06,-1.82357e-05,9.32862e-05,-7.85738e-07,1.04734e-05,-1.28424e-05,0
-3.57413e-06,0.000291855,-9.53981e-06,-2.19185e-05,8.07149e-05,3.12495e-07,1.09987e-05,-1.3609e-05,0
-1.75203e-05,0.000289157,-9.9776e-06,-2.17008e-05,6.64542e-05,1.06211e-07,9.91927e-06,-1.32861e-05,0
-2.99345e-05,0.000238221,-6.56762e-06,-1.9471e-05,4.99791e-05,4.80633e-07,7.64342e-06,-1.12075e-05,0
-5.05388e-05,0.00013604,-3.73178e-06,-1.72171e-05,3.33164e-05,3.02583e-06,5.24311e-06,-8.11129e-06,0
-7.67346e-05,-6.86836e-06,-7.41625e-06,-1.71196e-05,1.46353e-05,3.57006e-06,3.72509e-06,-5.97998e-06,0
-9.2377e-05,-0.000122547,-1.70814e-05,-1.99938e-05,-5.75353e-06,-6.68999e-08,5.04621e-06,-5.9386e-06,0
-8.90213e-05,-0.000146867,-2.32744e-05,-2.26322e-05,-1.96488e-05,-4.85382e-06,8.86594e-06,-5.85131e-06,0
-7.6009e-05,-0.00013519,-2.04209e-05,-2.35835e-05,-2.40624e-05,-7.7666e-06,1.22692e-05,-5.20472e-06,0
-6.34546e-05,-0.000160594,-1.2907e-05,-2.26282e-05,-2.15236e-05,-1.06571e-05,1.33799e-05,-4.90231e-06,0
-5.48164e-05,-0.000187458,-9.04982e-06,-1.9587e-05,-1.02926e-05,-1.59775e-05,1.34364e-05,-3.57601e-06,0
-4.65909e-05,-0.000159008,-8.77539e-06,-1.50622e-05,7.66607e-06,-2.15922e-05,1.31238e-05,-9.50541e-07,0
-3.62719e-05,-8.9377e-05,-7.87171e-06,-9.4417e-06,2.41137e-05,-2.1081e-05,1.14037e-05,-5.82906e-07,0
-2.87516e-05,-3.02051e-05,-6.67784e-06,-5.3984e-06,3.70135e-05,-1.27565e-05,1.05853e-05,-2.35801e-06,0
-2.29134e-05,8.19627e-06,-6.48274e-06,-3.51585e-06,4.745e-05,-4.54667e-06,1.05959e-05,-3.47584e-06,0
-1.50259e-05,6.36141e-07,-7.20409e-06,-1.09862e-06,5.25349e-05,-3.01852e-06,8.36559e-06,-2.92556e-06,0
-7.52666e-06,-4.95591e-05,-1.00005e-05,1.52733e-06,5.19165e-05,-4.5298e-06,6.19161e-06,-1.51167e-06,0
-4.44674e-07,-5.70052e-05,-1.25145e-05,6.55928e-06,4.82158e-05,-5.56043e-06,7.80261e-06,-3.27694e-08,0
7.23736e-06,-2.2949e-06,-1.02063e-05,1.28156e-05,4.62252e-05,-6.79446e-06,9.99448e-06,2.23855e-06,0
1.27743e-05,5.01644e-05,-5.44636e-06,1.61424e-05,4.37527e-05,-7.5653e-06,1.07922e-05,4.50169e-06,0
9.95415e-06,4.84338e-05,-4.76521e-07,1.74744e-05,3.6539e-05,-8.10374e-06,1.01584e-05,6.43929e-06,0
-5.76687e-06,-3.90457e-07,3.91554e-06,1.90839e-05,3.05453e-05,-1.08856e-05,8.93242e-06,5.94939e-06,0
-3.48531e-05,-6.9822e-05,6.70643e-06,1.84046e-05,3.55161e-05,-1.58224e-05,8.25381e-06,4.71246e-06,0
-7.0623e-05,-0.000126721,5.94308e-06,8.46288e-06,5.25445e-05,-1.71027e-05,7.35188e-06,4.80867e-06,0
-9.60072e-05,-0.000144927,1.10663e-06,-9.82531e-06,7.49247e-05,-1.33023e-05,7.29207e-06,5.70174e-06,0
-9.29402e-05,-0.00012345,-3.04428e-06,-2.39637e-05,8.10835e-05,-1.12165e-05,8.47347e-06,7.26659e-06,0
-6.34936e-05,-8.29206e-05,-3.81743e-06,-2.50903e-05,6.5948e-05,-1.42447e-05,9.43729e-06,8.855e-06,0
-2.91704e-05,-4.5361e-05,-3.18849e-06,-1.81888e-05,5.09373e-05,-1.79153e-05,9.05737e-06,9.76282e-06,0
-8.45096e-06,-1.75428e-05,-1.69406e-06,-1.09606e-05,4.94524e-05,-1.76491e-05,9.35149e-06,9.98544e-06,0
-4.1284e-06,2.0808e-06,1.09879e-06,-7.61782e-06,5.32363e-05,-1.43126e-05,1.06779e-05,1.02566e-05,0
-1.17241e-05,1.41487e-05,5.10342e-06,-7.02617e-06,5.58138e-05,-1.19499e-05,1.14661e-05,8.9552e-06,0
-2.49381e-05,1.80971e-05,8.79757e-06,-5.51076e-06,6.53787e-05,-1.12725e-05,1.21225e-05,6.89771e-06,0
-3.78678e-05,2.28347e-05,1.09449e-05,-1.75696e-06,8.76228e-05,-1.16572e-05,1.2767e-05,6.00952e-06,0
-4.91816e-05,3.59794e-05,1.31299e-05,1.25988e-06,0.000107253,-1.22963e-05,1.15561e-05,6.60669e-06,0
-5.70578e-05,5.20628e-05,1.54586e-05,3.39144e-06,0.000106909,-1.15262e-05,9.91932e-06,7.04056e-06,0
-5.60648e-05,5.89403e-05,1.55004e-05,6.37893e-06,8.96009e-05,-9.59316e-06,1.06433e-05,6.15247e-06,0
-4.28268e-05,5.78874e-05,1.07885e-05,8.71835e-06,6.73278e-05,-7.27129e-06,1.35203e-05,4.70659e-06,0
-2.58895e-05,5.23448e-05,4.42193e-07,8.07725e-06,5.21435e-05,-7.12101e-06,1.62335e-05,5.1199e-06,0
-1.96654e-05,3.94331e-05,-1.37572e-05,5.20534e-06,4.71538e-05,-1.07166e-05,1.76598e-05,6.91074e-06,0
-2.21328e-05,1.28672e-05,-2.71621e-05,1.31977e-06,4.85411e-05,-1.57715e-05,1.94034e-05,7.84433e-06,0
-2.05086e-05,-1.83114e-05,-3.59166e-05,-2.44721e-06,4.85608e-05,-1.62991e-05,2.1405e-05,7.13692e-06,0
-1.13614e-05,-2.60076e-05,-3.94147e-05,-7.0929e-06,3.92855e-05,-1.24721e-05,2.32992e-05,5.7009e-06,0
-3.49323e-08,-4.24584e-06,-3.94848e-05,-1.18994e-05,2.1594e-05,-8.8294e-06,2.40553e-05,5.26299e-06,0
3.65058e-06,2.29438e-05,-3.53284e-05,-1.38335e-05,6.26093e-08,-6.76998e-06,2.31128e-05,5.42583e-06,0
-4.56694e-06,3.87446e-05,-2.61409e-05,-1.42532e-05,-2.37087e-05,-9.05371e-06,2.17632e-05,5.35693e-06,0
-2.28276e-05,3.62528e-05,-1.52079e-05,-1.36952e-05,-3.64872e-05,-1.33698e-05,2.08142e-05,5.67505e-06,0
-4.70496e-05,1.47762e-05,-7.62632e-06,-1.20991e-05,-2.46267e-05,-1.6636e-05,2.01455e-05,6.85813e-06,0
-7.28032e-05,-1.68212e-05,-7.2075e-06,-9.08673e-06,6.17779e-06,-1.73892e-05,1.84084e-05,7.59511e-06,0
-9.45684e-05,-4.21894e-05,-1.1743e-05,-6.5725e-06,3.88211e-05,-1.66971e-05,1.69189e-05,7.46742e-06,0
-0.000105762,-4.38337e-05,-1.54814e-05,-3.9459e-06,6.04274e-05,-1.73244e-05,1.63098e-05,5.87878e-06,0
-0.000102498,-2.88706e-05,-1.66714e-05,-1.41222e-06,6.95126e-05,-1.91342e-05,1.46012e-05,4.03777e-06,0
-8.58083e-05,-1.67864e-05,-1.69002e-05,-1.3159e-07,7.01786e-05,-1.99869e-05,1.25073e-05,2.42981e-06,0
-6.42291e-05,-6.83233e-06,-1.66255e-05,-1.71598e-06,6.8336e-05,-1.93848e-05,1.15726e-05,1.36233e-06,0
-4.50021e-05,1.01629e-05,-1.76504e-05,-7.82759e-06,6.79075e-05,-1.81505e-05,1.19845e-05,1.38566e-06,0
-3.00528e-05,2.84434e-05,-2.13881e-05,-1.43931e-05,6.95126e-05,-1.65447e-05,1.31034e-05,1.28691e-06,0
-1.99074e-05,3.90701e-05,-2.54873e-05,-1.55989e-05,7.52351e-05,-1.4924e-05,1.47939e-05,1.22246e-07,0
-1.52856e-05,4.22441e-05,-2.69288e-05,-9.79113e-06,8.59377e-05,-1.41149e-05,1.69064e-05,-1.84724e-06,0
-1.41958e-05,3.95755e-05,-2.74489e-05,1.10763e-06,9.96994e-05,-1.37622e-05,1.81894e-05,-3.31583e-06,0
-1.46663e-05,3.26792e-05,-2.81986e-05,1.50654e-05,0.000119125,-1.05232e-05,1.66427e-05,-2.62382e-06,0
-1.81413e-05,2.78237e-05,-2.53348e-05,2.76113e-05,0.00013749,-5.67226e-06,1.3522e-05,-2.70215e-07,0
-2.47303e-05,2.75931e-05,-1.65532e-05,3.41591e-05,0.000128398,-2.44288e-06,1.14143e-05,6.91558e-07,0
-3.2019e-05,2.95074e-05,-5.31601e-06,3.33311e-05,8.13654e-05,-1.95408e-06,1.14093e-05,9.34008e-07,0
-3.85049e-05,3.1712e-05,5.53029e-06,2.74415e-05,2.60716e-05,-2.06563e-06,1.23145e-05,2.56445e-06,0
-4.14391e-05,3.76502e-05,1.93483e-05,1.8581e-05,-8.58737e-06,-1.00361e-06,1.28415e-05,4.72862e-06,0
-3.5647e-05,4.78467e-05,3.75024e-05,4.58306e-06,-2.54288e-05,-1.11285e-06,1.44092e-05,6.19978e-06,0
-2.68806e-05,5.42584e-05,5.36426e-05,-1.17609e-05,-3.32037e-05,-4.64578e-06,1.69906e-05,6.07328e-06,0
-2.26358e-05,5.70873e-05,6.2727e-05,-2.08788e-05,-3.2497e-05,-8.65864e-06,1.80734e-05,4.48925e-06,0
-2.26074e-05,6.11121e-05,6.42527e-05,-2.02134e-05,-3.77291e-05,-1.14595e-05,1.66888e-05,2.67851e-06,0
-2.39028e-05,5.86941e-05,5.43228e-05,-1.30092e-05,-5.45739e-05,-1.44498e-05,1.56744e-05,1.02631e-06,0
-2.28844e-05,3.54119e-05,3.27033e-05,-3.09763e-06,-5.3454e-05,-1.80301e-05,1.61084e-05,3.05799e-07,0
-2.21256e-05,-5.62635e-06,3.82621e-06,5.07011e-06,-2.33031e-05,-2.1136e-05,1.63435e-05,-2.11199e-07,0
-2.1769e-05,-3.3863e-05,-2.57323e-05,1.79981e-06,2.576e-05,-1.94547e-05,1.50107e-05,-1.26034e-06,0
-2.05426e-05,-3.20877e-05,-4.78052e-05,-1.35264e-05,7.911e-05,-1.51055e-05,1.35631e-05,-2.50501e-06,0
-1.81797e-05,-1.02499e-05,-6.0407e-05,-2.88103e-05,0.00010884,-1.37821e-05,1.29722e-05,-3.28872e-06,0
-1.12168e-05,1.1619e-05,-6.44257e-05,-3.89419e-05,8.89215e-05,-1.4198e-05,1.14612e-05,-3.24616e-06,0
-1.29329e-06,2.71454e-05,-6.18164e-05,-4.75044e-05,3.65432e-05,-1.3226e-05,1.05026e-05,-1.81201e-06,0
2.59878e-06,4.03982e-05,-5.6174e-05,-5.38698e-05,5.61393e-06,-1.11751e-05,1.14891e-05,1.12345e-06,0
-3.75034e-06,4.75165e-05,-5.16291e-05,-5.77128e-05,1.05869e-05,-9.23659e-06,1.21743e-05,4.5042e-06,0
-1.70981e-05,5.33747e-05,-4.75727e-05,-5.98486e-05,2.52565e-05,-8.38753e-06,1.17757e-05,6.3881e-06,0
-3.01245e-05,6.02401e-05,-4.06964e-05,-5.37935e-05,2.09934e-05,-9.1771e-06,1.1278e-05,6.38005e-06,0
-3.73886e-05,6.60924e-05,-3.11973e-05,-3.60592e-05,-5.62431e-06,-1.0474e-05,1.12728e-05,7.0928e-06,0
-4.03865e-05,6.80651e-05,-2.35185e-05,-1.19876e-05,-4.40611e-05,-1.0251e-05,1.19976e-05,8.37448e-06,0
-4.23915e-05,5.86405e-05,-2.09103e-05,9.3331e-06,-8.33762e-05,-8.51136e-06,1.34993e-05,7.67537e-06,0
-4.33157e-05,3.50476e-05,-1.96182e-05,2.6953e-05,-0.000109788,-7.15897e-06,1.49704e-05,5.64439e-06,0
-3.9913e-05,1.17302e-05,-1.58818e-05,4.41294e-05,-0.000109881,-6.54777e-06,1.42444e-05,5.57144e-06,0
-2.96093e-05,2.34919e-06,-1.34341e-05,5.96369e-05,-8.96567e-05,-6.00952e-06,1.20706e-05,6.71627e-06,0
-1.51609e-05,1.47726e-06,-1.68141e-05,6.66133e-05,-6.48416e-05,-7.06516e-06,1.13156e-05,6.69511e-06,0
-7.36447e-06,-2.24728e-05,-2.31845e-05,6.19388e-05,-3.0406e-05,-9.69448e-06,1.09483e-05,5.11566e-06,0
-1.16052e-05,-7.88209e-05,-2.4624e-05,4.78624e-05,1.10553e-05,-1.01837e-05,9.09996e-06,3.83299e-06,0
-2.10931e-05,-0.000111907,-1.36901e-05,2.44424e-05,3.28673e-05,-7.38877e-06,7.30624e-06,3.5881e-06,0
-2.97811e-05,-8.73335e-05,1.90742e-06,-4.94368e-06,1.83425e-05,-3.76991e-06,6.98503e-06,3.79621e-06,0
-4.27963e-05,-3.65152e-05,9.59073e-06,-2.90359e-05,-1.49073e-05,-2.86888e-06,7.11006e-06,3.80093e-06,0
-6.08494e-05,-2.72874e-06,1.05997e-05,-4.23237e-05,-4.39199e-05,-3.29246e-06,7.15274e-06,2.27054e-06,0
-7.53945e-05,1.14552e-05,1.16463e-05,-5.32349e-05,-5.12484e-05,-6.48553e-07,7.8128e-06,1.12467e-06,0
-7.32232e-05,1.71889e-05,1.23982e-05,-7.05078e-05,-4.09281e-05,1.27248e-06,8.61186e-06,6.8593e-07,0
-4.82414e-05,8.09298e-06,1.0356e-05,-8.83823e-05,-4.25472e-05,-1.73199e-06,9.16724e-06,-2.46754e-07,0
-1.19953e-05,-2.9276e-05,7.03497e-06,-9.10834e-05,-5.65242e-05,-7.74161e-06,9.25056e-06,-8.37583e-07,0
1.3118e-05,-7.43262e-05,2.34726e-06,-6.6583e-05,-6.04322e-05,-1.29491e-05,9.91167e-06,-8.30525e-07,0
1.51099e-05,-7.36321e-05,-1.09297e-06,-2.3194e-05,-5.49033e-05,-1.2704e-05,1.12471e-05,1.79199e-07,0
7.62981e-06,-2.83481e-05,-6.42923e-08,1.24763e-05,-5.63893e-05,-8.56846e-06,1.22416e-05,1.8326e-06,0
2.09836e-06,1.99485e-05,1.82096e-06,2.19498e-05,-6.61831e-05,-4.77396e-06,1.25457e-05,3.22499e-06,0
-2.69753e-06,4.85132e-05,7.85489e-07,4.45509e-06,-6.40133e-05,-3.03705e-06,1.16915e-05,1.9786e-06,0
-1.0319e-05,5.97037e-05,-2.79888e-06,-2.58604e-05,-4.08209e-05,-4.99791e-06,1.1595e-05,-6.6324e-07,0
-2.05178e-05,5.60792e-05,-7.0432e-06,-4.85491e-05,3.49743e-07,-8.53947e-06,1.29877e-05,-2.34818e-06,0
-2.90126e-05,3.96738e-05,-8.26647e-06,-5.29479e-05,5.78604e-05,-9.99494e-06,1.50854e-05,-2.34611e-06,0
-3.1805e-05,2.51617e-05,-5.69831e-06,-4.46748e-05,0.000114097,-8.98484e-06,1.67521e-05,-5.35559e-07,0
-3.04727e-05,1.72353e-05,-2.13291e-06,-3.35196e-05,0.000131355,-8.17892e-06,1.6427e-05,1.0204e-06,0
-3.22329e-05,8.11737e-06,1.26271e-06,-2.07885e-05,8.90471e-05,-8.21414e-06,1.419e-05,2.7914e-06,0
-3.79776e-05,-8.37205e-06,5.75586e-06,-4.51058e-06,1.16162e-05,-7.69911e-06,1.17931e-05,4.36424e-06,0
-4.11714e-05,-2.1504e-05,1.09563e-05,9.55418e-06,-5.65099e-05,-8.41452e-06,1.0387e-05,4.4571e-06,0
-3.80791e-05,-9.00533e-06,1.32513e-05,1.79466e-05,-9.33698e-05,-1.04872e-05,1.0109e-05,3.61647e-06,0
-3.19999e-05,3.23827e-05,1.37331e-05,2.44125e-05,-0.000105829,-1.16533e-05,1.05305e-05,4.05494e-06,0
-2.87575e-05,7.32532e-05,1.74193e-05,2.86077e-05,-0.000104661,-1.21027e-05,1.06099e-05,4.72843e-06,0
-2.94289e-05,7.95681e-05,2.12727e-05,2.99186e-05,-9.32281e-05,-1.11142e-05,1.07593e-05,3.33436e-06,0
-2.89738e-05,4.56273e-05,1.83855e-05,3.53522e-05,-7.51985e-05,-7.28362e-06,1.15029e-05,1.79544e-06,0
-2.65822e-05,4.85038e-06,1.04687e-05,4.47221e-05,-5.93272e-05,-3.6065e-06,1.17984e-05,2.55434e-06,0
-2.42994e-05,-5.74503e-06,1.75503e-06,5.00321e-05,-5.05076e-05,-3.8951e-06,1.24921e-05,5.04365e-06,0
-2.25626e-05,7.25339e-06,-6.83081e-06,4.8179e-05,-4.88862e-05,-6.92043e-06,1.33108e-05,6.44031e-06,0
-2.52182e-05,1.59653e-05,-1.5339e-05,4.30404e-05,-4.24176e-05,-8.83281e-06,1.32122e-05,6.28342e-06,0
-3.20022e-05,1.74169e-05,-2.31308e-05,4.02234e-05,-2.80456e-05,-8.50023e-06,1.31459e-05,7.63169e-06,0
-3.60527e-05,2.18935e-05,-3.21929e-05,3.83881e-05,-2.21653e-05,-8.98949e-06,1.196e-05,7.55767e-06,0
-3.40141e-05,2.41924e-05,-4.35852e-05,3.22143e-05,-3.22284e-05,-1.17929e-05,1.06552e-05,4.83448e-06,0
-2.84516e-05,2.09872e-05,-4.90248e-05,2.05894e-05,-4.60147e-05,-1.42868e-05,1.09339e-05,3.12274e-06,0
-1.76907e-05,3.20816e-05,-4.29395e-05,8.86585e-06,-3.87517e-05,-1.46848e-05,1.18835e-05,3.72982e-06,0
1.02655e-06,7.15584e-05,-3.32279e-05,-2.41335e-06,-5.09116e-06,-1.26759e-05,1.08588e-05,4.6549e-06,0
1.79693e-05,0.000118858,-2.71577e-05,-1.51881e-05,2.7924e-05,-7.46902e-06,7.33832e-06,2.60803e-06,0
2.55562e-05,0.00015703,-2.35687e-05,-2.42286e-05,4.136e-05,3.70623e-07,5.7215e-06,-3.00029e-07,0
2.19337e-05,0.000189799,-1.90425e-05,-2.66412e-05,5.15695e-05,6.27226e-06,6.51172e-06,-2.38511e-06,0
6.53067e-06,0.000223216,-1.26392e-05,-2.76031e-05,6.62017e-05,7.05411e-06,6.68886e-06,-2.65884e-06,0
-1.32653e-05,0.000233021,-8.23088e-06,-2.93045e-05,5.95452e-05,4.93257e-06,7.25644e-06,-2.67714e-06,0
-3.19768e-05,0.000158636,-7.45999e-06,-3.04474e-05,1.96209e-05,1.65878e-06,9.50404e-06,-3.23562e-06,0
-4.72748e-05,2.37666e-05,-8.33711e-06,-3.28836e-05,-3.37279e-05,-1.1948e-06,1.15809e-05,-2.77591e-06,0
-5.86472e-05,-6.09859e-05,-8.16989e-06,-3.59725e-05,-7.87407e-05,-1.63358e-06,1.21024e-05,7.15068e-07,0
-6.29502e-05,-3.61671e-05,-7.93031e-06,-3.61426e-05,-0.000104321,-1.2337e-06,1.19154e-05,7.08678e-06,0
-5.28189e-05,4.62118e-05,-7.57323e-06,-3.12376e-05,-0.000102657,-3.20214e-06,1.17874e-05,1.27273e-05,0
-3.18612e-05,6.9289e-05,-3.59733e-06,-2.14173e-05,-6.85031e-05,-6.87743e-06,1.171e-05,1.38034e-05,0
-1.79202e-05,-2.94645e-05,4.22799e-06,-5.7315e-06,-5.63964e-06,-8.30293e-06,1.15647e-05,8.62088e-06,0
-2.22877e-05,-0.00019428,1.11753e-05,1.51005e-05,5.9549e-05,-7.07813e-06,1.00648e-05,8.10872e-07,0
-4.31069e-05,-0.000322476,1.22943e-05,3.29864e-05,8.82252e-05,-7.9312e-06,7.33854e-06,-5.85559e-06,0
-7.50079e-05,-0.000360271,5.72975e-06,3.8917e-05,6.42173e-05,-1.36716e-05,6.05739e-06,-9.82734e-06,0
-9.88053e-05,-0.000292911,-5.54914e-06,3.10629e-05,1.02685e-05,-1.99047e-05,8.66828e-06,-1.15891e-05,0
-9.53123e-05,-0.000150997,-1.38123e-05,1.34452e-05,-3.52181e-05,-2.17364e-05,1.32624e-05,-1.13071e-05,0
-7.52637e-05,-2.11661e-05,-1.60299e-05,-5.57985e-06,-5.48154e-05,-2.11725e-05,1.62791e-05,-1.0285e-05,0
-6.0636e-05,3.57797e-05,-1.42326e-05,-1.86163e-05,-5.5667e-05,-2.18909e-05,1.72883e-05,-1.03822e-05,0
-5.49233e-05,3.29193e-05,-1.19328e-05,-2.70342e-05,-4.86337e-05,-2.2217e-05,1.71382e-05,-1.1363e-05,0
-4.74259e-05,2.21127e-05,-7.47879e-06,-3.34673e-05,-3.83747e-05,-1.90283e-05,1.57352e-05,-8.76433e-06,0
-3.78618e-05,3.47965e-05,2.51611e-06,-3.7531e-05,-2.55231e-05,-1.45924e-05,1.37238e-05,6.62082e-06,0
-4.10046e-05,4.07724e-05,1.27332e-05,-4.31528e-05,-2.03156e-05,-1.2635e-05,1.32151e-05,2.99167e-05,0
-5.12731e-05,1.39608e-05,1.38638e-05,-5.19095e-05,-2.86078e-05,-1.0315e-05,1.43518e-05,3.85363e-05,0
-5.89305e-05,-1.44915e-05,8.73266e-06,-5.65472e-05,-3.05049e-05,-6.71753e-06,1.48788e-05,3.37434e-05,0
-6.54335e-05,-4.22671e-05,6.74874e-07,-5.45888e-05,-2.04213e-05,-7.14976e-06,1.40699e-05,2.24294e-05,0
-6.09193e-05,-7.85212e-05,-1.21746e-05,-4.71955e-05,-1.42245e-05,-1.11577e-05,1.32073e-05,-1.59573e-07,0
-4.44001e-05,-9.04813e-05,-2.22438e-05,-3.774e-05,-1.72846e-05,-1.33619e-05,1.36308e-05,-2.50029e-05,0
-2.87623e-05,-6.51388e-05,-2.54369e-05,-3.51533e-05,-2.1573e-05,-1.30088e-05,1.54208e-05,-4.36495e-05,0
-2.35153e-05,-9.40262e-06,-2.54237e-05,-3.12136e-05,-1.34458e-05,-1.04075e-05,1.72885e-05,-4.97565e-05,0
-2.70319e-05,3.78121e-05,-2.66112e-05,-6.95342e-06,1.09399e-05,-7.13693e-06,1.81356e-05,-4.56103e-05,0
-3.37529e-05,4.44815e-05,-2.69917e-05,3.63622e-05,3.60249e-05,-5.51538e-06,1.73348e-05,-3.68541e-05,0
-3.7902e-05,3.21643e-05,-2.26106e-05,8.62423e-05,4.81568e-05,-5.48663e-06,1.74799e-05,-2.91658e-05,0
-3.54833e-05,2.74003e-05,-1.51798e-05,0.000120541,4.77737e-05,-7.26058e-06,1.78272e-05,-2.34723e-05,0
-2.67908e-05,3.60474e-05,-8.80723e-06,0.000113684,4.10923e-05,-8.80758e-06,1.68266e-05,-1.64621e-05,0
-1.58741e-05,4.55997e-05,-6.06204e-06,7.15315e-05,3.24953e-05,-1.04264e-05,1.47808e-05,-9.79072e-06,0
-2.92688e-06,5.1886e-05,-4.92544e-06,3.08817e-05,2.31069e-05,-1.16282e-05,1.12432e-05,-6.20428e-06,0
1.47686e-05,6.17675e-05,-2.44227e-06,1.5655e-05,1.71688e-05,-1.01719e-05,7.60822e-06,-5.60875e-06,0
3.06424e-05,8.8571e-05,3.16262e-06,1.90309e-05,1.66073e-05,-6.6094e-06,6.19087e-06,-2.63986e-06,0
3.45546e-05,0.000132079,1.09643e-05,2.43948e-05,1.98901e-05,-5.23161e-06,7.2049e-06,2.76766e-06,0
2.14477e-05,0.000170059,1.71418e-05,2.01721e-05,2.89054e-05,-6.20421e-06,8.23444e-06,7.1517e-06,0
-2.6054e-06,0.000176097,1.80285e-05,3.2965e-06,4.47524e-05,-3.09297e-06,8.91736e-06,8.27299e-06,0
-2.24026e-05,0.000148034,1.3346e-05,-2.08394e-05,5.44507e-05,3.59504e-06,9.16989e-06,7.15264e-06,0
-3.06412e-05,9.35107e-05,4.81443e-06,-4.29988e-05,5.23905e-05,5.41076e-06,9.64003e-06,3.85802e-06,0
-3.95957e-05,1.50001e-05,-3.88399e-06,-5.91184e-05,5.65834e-05,-3.80938e-07,1.00259e-05,3.20791e-07,0
-5.3352e-05,-6.20975e-05,-9.74644e-06,-6.74539e-05,7.18353e-05,-7.52724e-06,8.93482e-06,-1.42911e-06,0
-5.97025e-05,-0.000101527,-1.48009e-05,-6.57539e-05,7.05257e-05,-1.35574e-05,6.67358e-06,-1.10061e-06,0
-4.73256e-05,-8.69843e-05,-2.04548e-05,-5.4835e-05,3.69313e-05,-1.81887e-05,5.75628e-06,-9.94566e-07,0
-1.72464e-05,-2.97398e-05,-2.69065e-05,-3.7043e-05,-2.47321e-06,-1.76508e-05,7.00852e-06,-2.06712e-06,0
1.06715e-05,4.17575e-05,-3.25629e-05,-1.13091e-05,-1.4174e-05,-1.21865e-05,9.57094e-06,-2.81413e-06,0
1.57252e-05,6.68243e-05,-3.38354e-05,1.69052e-05,-1.05291e-05,-8.72135e-06,1.13566e-05,-2.36672e-06,0
3.89272e-06,3.22873e-05,-2.91944e-05,3.57591e-05,-3.1893e-05,-9.30023e-06,1.27976e-05,-1.292e-06,0
-9.98167e-06,-1.09101e-06,-2.07926e-05,3.41069e-05,-6.13256e-05,-1.01931e-05,1.483e-05,-4.3119e-07,0
-2.04127e-05,-4.04351e-06,-1.62529e-05,1.817e-05,-6.30141e-05,-9.1576e-06,1.54805e-05,-2.94799e-07,0
-2.42825e-05,1.66007e-05,-1.79828e-05,3.87898e-06,-3.27905e-05,-6.48546e-06,1.38534e-05,-9.58573e-07,0
-2.90422e-05,3.23551e-05,-1.87432e-05,-5.77269e-06,2.4581e-05,-5.3657e-06,1.25711e-05,-8.47257e-07,0
-3.87867e-05,3.96841e-05,-1.49556e-05,-8.60059e-06,7.66724e-05,-6.88546e-06,1.36381e-05,1.43231e-07,0
-5.0218e-05,5.68149e-05,-1.16687e-05,-8.05316e-06,9.06179e-05,-8.15906e-06,1.30153e-05,2.79298e-06,0
-5.70416e-05,7.59737e-05,-1.07632e-05,-9.23171e-06,6.84215e-05,-8.76205e-06,1.13697e-05,5.45689e-06,0
-5.93193e-05,6.69545e-05,-8.2048e-06,-1.0098e-05,3.61227e-05,-8.29912e-06,1.09014e-05,6.41679e-06,0
-6.13714e-05,1.85062e-05,-4.02834e-06,-8.74131e-06,8.63236e-06,-8.32765e-06,1.14241e-05,5.52511e-06,0
-6.52429e-05,-4.47648e-05,-2.54166e-06,-7.38866e-06,-1.32141e-05,-1.20041e-05,1.05248e-05,4.87468e-06,0
-6.93545e-05,-8.90759e-05,-3.33853e-06,-9.21448e-06,-2.47555e-05,-1.72375e-05,8.22109e-06,5.00843e-06,0
-6.7168e-05,-9.61089e-05,-2.59115e-06,-1.23721e-05,-2.22319e-05,-1.89451e-05,7.5933e-06,5.98472e-06,0
-5.76664e-05,-6.73811e-05,8.19954e-07,-9.58795e-06,-5.85204e-06,-1.67682e-05,9.80049e-06,7.96892e-06,0
-4.59509e-05,-1.75089e-05,4.82538e-06,2.42053e-06,1.78672e-05,-1.61031e-05,1.28727e-05,8.62265e-06,0
-3.51534e-05,1.83432e-05,4.61779e-06,1.82589e-05,3.86153e-05,-1.77742e-05,1.40994e-05,7.01948e-06,0
-2.4752e-05,2.45625e-05,6.39791e-07,3.08914e-05,4.89647e-05,-1.57909e-05,1.42407e-05,6.25676e-06,0
-2.07352e-05,1.74842e-05,-2.96705e-06,3.69091e-05,4.87163e-05,-8.12837e-06,1.48397e-05,6.98479e-06,0
-2.81703e-05,2.12592e-05,-5.75321e-06,3.41892e-05,3.42009e-05,-2.45159e-06,1.57194e-05,6.84377e-06,0
-3.95375e-05,4.03432e-05,-1.03409e-05,2.20599e-05,1.25959e-05,-3.13096e-06,1.59716e-05,6.55445e-06,0
-3.93898e-05,6.35856e-05,-1.60246e-05,5.92032e-06,8.13001e-06,-5.13977e-06,1.67743e-05,6.51231e-06,0
-2.16416e-05,7.69692e-05,-1.8883e-05,-5.52422e-06,2.37836e-05,-4.63961e-06,1.84875e-05,6.40737e-06,0
6.85321e-06,9.47427e-05,-1.75855e-05,-8.25357e-06,4.77193e-05,-2.3343e-06,1.95751e-05,6.39931e-06,0
4.09729e-05,0.000132734,-1.43487e-05,-5.39021e-06,7.28014e-05,2.17689e-06,1.8219e-05,6.87782e-06,0
6.98909e-05,0.000157465,-1.12222e-05,-6.38159e-06,9.09564e-05,5.62732e-06,1.68553e-05,7.62965e-06,0
7.14992e-05,0.000147474,-7.10412e-06,-1.79912e-05,9.52028e-05,2.08109e-06,1.6871e-05,7.52151e-06,0
4.34266e-05,0.000133474,-2.80896e-06,-2.83443e-05,7.61609e-05,-5.86537e-06,1.71429e-05,5.96136e-06,0
1.95959e-06,0.000133617,-4.8371e-07,-2.92545e-05,4.98468e-05,-1.07048e-05,1.77377e-05,3.79012e-06,0
-3.78446e-05,0.000144769,-9.27758e-07,-2.65567e-05,3.93311e-05,-1.25713e-05,1.73386e-05,2.45367e-06,0
-7.36035e-05,0.000117082,-3.98563e-06,-2.50469e-05,4.3304e-05,-1.61729e-05,1.42045e-05,1.55791e-06,0
-0.000106672,9.8813e-06,-8.7422e-06,-2.62133e-05,4.18221e-05,-2.29391e-05,1.12475e-05,1.71307e-06,0
-0.000128271,-0.000100372,-1.31676e-05,-3.05918e-05,7.884e-06,-2.81218e-05,9.36576e-06,3.42828e-06,0
-0.000129793,-0.000146315,-1.59339e-05,-3.757e-05,-3.92309e-05,-2.68614e-05,7.59967e-06,3.85055e-06,0
-0.000109026,-0.000130828,-1.89955e-05,-4.25864e-05,-5.85186e-05,-2.17564e-05,7.3341e-06,3.85767e-06,0
-7.6377e-05,-8.16865e-05,-2.1214e-05,-4.40276e-05,-4.47145e-05,-1.65232e-05,8.30219e-06,3.60016e-06,0
-4.77765e-05,-3.80342e-05,-2.09403e-05,-4.19462e-05,-1.43728e-05,-1.21094e-05,8.93821e-06,2.19906e-06,0
-2.73653e-05,-3.12392e-05,-1.90727e-05,-3.82867e-05,1.25965e-05,-8.9082e-06,8.85663e-06,6.75331e-07,0
-1.02422e-05,-7.30252e-05,-1.82385e-05,-3.46592e-05,2.63629e-05,-7.7032e-06,9.38744e-06,-1.48816e-07,0
3.97926e-06,-0.000144792,-1.93672e-05,-3.07375e-05,3.02367e-05,-9.22998e-06,9.44593e-06,-6.25359e-07,0
1.49911e-05,-0.000191374,-1.96038e-05,-2.48112e-05,3.84381e-05,-1.09836e-05,8.27978e-06,-9.92324e-07,0
2.28698e-05,-0.000158905,-1.46482e-05,-1.40698e-05,6.07339e-05,-9.72087e-06,8.43668e-06,-1.74857e-06,0
2.40606e-05,-5.08499e-05,-3.77433e-06,1.12298e-06,8.74289e-05,-6.87975e-06,1.21726e-05,-3.21542e-06,0
1.29291e-05,9.07533e-05,4.62756e-06,1.35875e-05,0.000101926,-6.34328e-06,1.58791e-05,-3.6335e-06,0
-1.02074e-05,0.000238628,4.54508e-06,1.54707e-05,0.000103038,-1.05601e-05,1.60519e-05,-2.50868e-06,0
-4.07612e-05,0.000354944,-5.68462e-07,8.49334e-06,0.000102617,-1.6231e-05,1.35744e-05,-1.20577e-06,0
-7.21983e-05,0.000373733,-4.64978e-06,-9.06157e-07,9.99531e-05,-1.76944e-05,1.09267e-05,-1.61249e-06,0
-0.000101683,0.000277617,-6.20769e-06,-8.37596e-06,8.86101e-05,-1.42205e-05,1.00903e-05,-3.4614e-06,0
-0.00012769,0.000130197,-7.53919e-06,-1.03527e-05,7.24963e-05,-1.08945e-05,1.07239e-05,-5.08624e-06,0
-0.000131705,5.92885e-06,-1.20205e-05,-4.84362e-06,6.27187e-05,-1.12787e-05,1.15653e-05,-5.59987e-06,0
-9.92024e-05,-9.06758e-05,-1.71503e-05,5.38023e-06,6.38601e-05,-1.13806e-05,1.24714e-05,-6.40079e-06,0
-4.94266e-05,-0.00020978,-1.89832e-05,1.73166e-05,6.23883e-05,-1.00937e-05,1.31931e-05,-7.36758e-06,0
-1.80564e-05,-0.00032595,-1.94023e-05,2.53363e-05,4.41832e-05,-1.25724e-05,1.37539e-05,-6.50845e-06,0
-1.24814e-05,-0.000331345,-1.88402e-05,2.62353e-05,3.02339e-05,-1.61127e-05,1.39161e-05,-2.42234e-06,0
-1.24301e-05,-0.000208698,-1.58348e-05,2.42624e-05,6.18079e-05,-1.53627e-05,1.53838e-05,1.51725e-06,0
-9.19648e-06,-7.28433e-05,-9.37496e-06,1.96888e-05,0.000118085,-1.06025e-05,1.72983e-05,7.09711e-07,0
-1.02322e-05,-9.63548e-07,-9.22631e-07,9.62829e-06,0.000119966,-7.66576e-06,1.63644e-05,-8.68909e-07,0
