ch1,ch2,ch3,ch4,ch5,ch6,ch7,ch8,class
-3.03824e-05,-3.54607e-07,-1.43049e-05,-3.2869e-05,7.8498e-06,-8.8523e-06,9.80074e-06,-3.62161e-08,0
-2.97811e-05,1.4742e-06,-1.10133e-05,-2.5273e-05,6.2087e-06,-8.80395e-06,1.10024e-05,-9.32193e-07,0
-2.82237e-05,3.82195e-06,-9.26288e-06,-1.30712e-05,5.55496e-06,-7.46526e-06,1.12856e-05,-1.67656e-06,0
-2.82711e-05,6.72472e-06,-8.55217e-06,-1.14185e-06,6.85532e-06,-7.15909e-06,1.20242e-05,-8.86061e-07,0
-2.88797e-05,1.01088e-05,-7.38606e-06,3.65138e-06,8.98492e-06,-9.70532e-06,1.29464e-05,1.11554e-06,0
-2.84007e-05,1.34821e-05,-5.42395e-06,2.5201e-06,8.89435e-06,-1.2881e-05,1.3013e-05,2.52416e-06,0
-2.8335e-05,1.63684e-05,-3.687e-06,5.77456e-07,7.70336e-06,-1.35636e-05,1.22597e-05,3.40805e-06,0
-2.93519e-05,1.846e-05,-3.82843e-06,1.39496e-06,7.0246e-06,-1.23622e-05,1.07407e-05,2.52425e-06,0
-2.98217e-05,2.08731e-05,-4.15507e-06,6.51627e-06,5.61822e-06,-1.13743e-05,9.22169e-06,2.17388e-06,0
-2.91128e-05,2.34753e-05,-3.7054e-06,1.63922e-05,4.5639e-06,-1.19398e-05,8.26224e-06,3.27942e-06,0
-2.8291e-05,2.38179e-05,-2.94941e-06,2.51663e-05,6.0502e-06,-1.33994e-05,7.45409e-06,2.71523e-06,0
-2.73575e-05,2.29838e-05,-3.19174e-06,2.70763e-05,7.98244e-06,-1.40776e-05,8.35543e-06,1.88875e-06,0
-2.66162e-05,2.27099e-05,-3.64555e-06,2.6129e-05,9.69601e-06,-1.49833e-05,1.01499e-05,1.39314e-06,0
-2.60894e-05,2.35038e-05,-3.34451e-06,2.51993e-05,1.11715e-05,-1.5649e-05,1.21396e-05,2.22662e-06,0
-2.61245e-05,2.66341e-05,-2.37058e-06,1.94117e-05,1.32495e-05,-1.57652e-05,1.33056e-05,2.54669e-06,0
-2.6871e-05,2.97305e-05,-9.9525e-07,5.25047e-06,1.3808e-05,-1.61782e-05,1.51611e-05,1.13326e-06,0
-2.7946e-05,3.06083e-05,-5.05203e-07,-9.99355e-06,1.06679e-05,-1.74668e-05,1.63874e-05,-1.72644e-06,0
-2.92416e-05,3.04046e-05,-8.42562e-07,-1.73767e-05,6.9321e-06,-1.853e-05,1.44837e-05,-3.96105e-06,0
-3.07153e-05,2.81396e-05,-7.94194e-07,-1.41275e-05,4.94746e-06,-1.82631e-05,1.05467e-05,-3.67784e-06,0
-3.10163e-05,2.3892e-05,-1.06349e-06,-6.45203e-06,3.46687e-06,-1.76854e-05,8.47671e-06,-2.72707e-06,0
-2.91178e-05,2.03776e-05,-3.03101e-06,-3.04826e-06,2.54213e-06,-1.68376e-05,1.05024e-05,-2.76896e-06,0
-2.65254e-05,2.00395e-05,-5.96375e-06,-4.45926e-06,4.51383e-06,-1.53281e-05,1.33566e-05,-2.88744e-06,0
-2.56398e-05,2.21261e-05,-9.58476e-06,-7.10583e-06,7.9621e-06,-1.27652e-05,1.55227e-05,-2.22001e-06,0
-2.70008e-05,2.37192e-05,-1.10861e-05,-7.59383e-06,9.67847e-06,-1.08751e-05,1.74131e-05,-2.31671e-06,0
-2.91966e-05,2.32134e-05,-9.17856e-06,-6.27899e-06,8.55574e-06,-1.07821e-05,1.89893e-05,-3.19319e-06,0
-3.05054e-05,2.35872e-05,-5.48874e-06,-6.57826e-06,6.40992e-06,-1.16253e-05,1.88293e-05,-3.85013e-06,0
-2.97117e-05,2.66755e-05,-2.67078e-06,-9.77408e-06,4.47939e-06,-1.21248e-05,1.75494e-05,-2.92721e-06,0
-2.84556e-05,2.90656e-05,-2.68049e-06,-1.31627e-05,4.00016e-06,-1.17347e-05,1.56354e-05,-2.27387e-06,0
-2.86572e-05,2.878e-05,-3.75919e-06,-1.42532e-05,6.0282e-06,-1.07174e-05,1.37318e-05,-2.61582e-06,0
-3.06207e-05,2.76712e-05,-3.42421e-06,-1.16249e-05,9.7655e-06,-1.02636e-05,1.21303e-05,-2.56893e-06,0
-3.27864e-05,2.63899e-05,-2.56994e-06,-5.64542e-06,1.27505e-05,-1.03686e-05,1.07605e-05,-2.51741e-06,0
-3.24342e-05,2.53839e-05,-3.59484e-06,1.98152e-07,1.51582e-05,-1.02734e-05,1.01003e-05,-2.83894e-06,0
-3.02353e-05,2.57247e-05,-6.66294e-06,3.26511e-06,1.65313e-05,-1.01734e-05,1.02087e-05,-2.90806e-06,0
-3.04822e-05,2.71361e-05,-1.04863e-05,1.79866e-06,1.54931e-05,-9.6922e-06,1.04157e-05,-3.4028e-06,0
-3.26848e-05,2.7948e-05,-1.30226e-05,-9.35485e-07,1.30506e-05,-9.06111e-06,9.57606e-06,-3.48847e-06,0
-3.35945e-05,2.76667e-05,-1.23674e-05,-9.38802e-07,1.08062e-05,-8.40278e-06,1.01832e-05,-2.32957e-06,0
-3.31505e-05,2.89849e-05,-1.08764e-05,2.52919e-06,9.96297e-06,-7.23222e-06,1.3116e-05,-2.61254e-06,0
-3.13297e-05,3.12675e-05,-1.03722e-05,8.61503e-06,9.41578e-06,-6.61787e-06,1.43774e-05,-2.50984e-06,0
-2.86254e-05,3.27613e-05,-9.36885e-06,1.23432e-05,9.62622e-06,-7.94647e-06,1.35671e-05,-8.33633e-07,0
-2.73809e-05,3.27837e-05,-7.99134e-06,1.1719e-05,1.06904e-05,-9.86492e-06,1.19676e-05,-6.99299e-07,0
-2.66685e-05,3.13069e-05,-7.1562e-06,7.82583e-06,9.84588e-06,-1.04541e-05,1.15126e-05,-1.747e-06,0
-2.61753e-05,2.84213e-05,-7.78414e-06,5.67138e-06,8.29245e-06,-1.05885e-05,1.39956e-05,-3.14142e-06,0
-2.65278e-05,2.45392e-05,-9.04564e-06,8.65412e-06,9.93113e-06,-1.01876e-05,1.62599e-05,-4.62037e-06,0
-2.72123e-05,2.20217e-05,-9.41229e-06,1.18745e-05,1.49382e-05,-9.04295e-06,1.66793e-05,-6.04365e-06,0
-2.85281e-05,2.07875e-05,-8.68153e-06,1.16318e-05,1.91176e-05,-7.25686e-06,1.53264e-05,-7.36246e-06,0
-2.94385e-05,1.83502e-05,-8.30631e-06,9.47012e-06,1.89874e-05,-5.43272e-06,1.3718e-05,-8.0394e-06,0
-2.94222e-05,1.56372e-05,-8.47038e-06,6.81089e-06,1.53369e-05,-5.25611e-06,1.45956e-05,-8.3944e-06,0
-2.86695e-05,1.60954e-05,-8.13305e-06,3.29763e-06,1.11734e-05,-6.84124e-06,1.55052e-05,-8.54241e-06,0
-2.86803e-05,1.87616e-05,-7.50255e-06,-8.80871e-07,9.2042e-06,-8.48541e-06,1.39724e-05,-8.1174e-06,0
-3.05424e-05,2.08496e-05,-7.98235e-06,-6.53227e-06,9.09548e-06,-8.81845e-06,1.26512e-05,-6.85101e-06,0
-3.27547e-05,2.11063e-05,-9.62431e-06,-1.14112e-05,9.13896e-06,-8.24918e-06,1.37527e-05,-5.86598e-06,0
-3.26173e-05,2.05634e-05,-1.06577e-05,-1.14917e-05,8.69467e-06,-6.61487e-06,1.56327e-05,-5.82731e-06,0
-3.12158e-05,1.95442e-05,-9.68562e-06,-7.46829e-06,8.81176e-06,-5.26253e-06,1.58051e-05,-5.84083e-06,0
-3.08499e-05,1.71312e-05,-7.99318e-06,-5.76531e-06,1.02994e-05,-5.5488e-06,1.55757e-05,-4.36455e-06,0
-3.19597e-05,1.5091e-05,-7.8759e-06,-9.51179e-06,1.0774e-05,-5.69904e-06,1.66497e-05,-2.09338e-06,0
-3.33326e-05,1.46721e-05,-8.07506e-06,-1.44463e-05,8.72016e-06,-4.2227e-06,1.79072e-05,-6.39236e-07,0
-3.33565e-05,1.61843e-05,-7.30629e-06,-1.49918e-05,7.74308e-06,-3.7304e-06,1.79269e-05,-9.42404e-07,0
-3.26891e-05,1.82479e-05,-7.02147e-06,-1.02077e-05,9.37437e-06,-4.9136e-06,1.7322e-05,-2.05578e-06,0
-3.20564e-05,1.8625e-05,-6.25752e-06,-4.49669e-06,1.28408e-05,-4.346e-06,1.6259e-05,-1.68805e-06,0
-3.13818e-05,1.97799e-05,-4.60093e-06,9.13739e-08,1.6565e-05,-2.79861e-06,1.58716e-05,9.79208e-07,0
-3.04969e-05,2.2961e-05,-4.17661e-06,4.69707e-06,2.09759e-05,-2.29409e-06,1.64503e-05,3.71724e-06,0
-3.00158e-05,2.44447e-05,-4.48624e-06,7.66368e-06,2.5201e-05,-2.10015e-06,1.68612e-05,5.07098e-06,0
-3.04602e-05,2.34706e-05,-5.62055e-06,4.74197e-06,2.38904e-05,-1.97494e-06,1.66285e-05,5.30872e-06,0
-3.2882e-05,2.27416e-05,-6.4099e-06,-7.53453e-07,1.85218e-05,-2.01939e-06,1.54423e-05,3.85595e-06,0
-3.499e-05,2.13132e-05,-7.16835e-06,-2.34117e-06,1.39958e-05,-3.73332e-06,1.42479e-05,2.65009e-06,0
-3.40654e-05,1.80483e-05,-7.96224e-06,-6.30958e-07,1.21913e-05,-5.64002e-06,1.31317e-05,2.63905e-06,0
-3.27706e-05,1.52492e-05,-8.01068e-06,4.92653e-07,1.15647e-05,-5.75114e-06,1.37898e-05,3.47716e-06,0
-3.18161e-05,1.49641e-05,-9.28265e-06,4.27251e-07,1.15922e-05,-5.15361e-06,1.46218e-05,4.8038e-06,0
-3.20278e-05,1.6796e-05,-1.1194e-05,-1.5196e-07,1.2717e-05,-4.93769e-06,1.20829e-05,4.21807e-06,0
-3.38284e-05,1.73968e-05,-1.26696e-05,-2.02805e-06,1.42673e-05,-4.86612e-06,6.83937e-06,2.05286e-06,0
-3.49682e-05,1.51371e-05,-1.30777e-05,-4.16331e-06,1.51721e-05,-4.49306e-06,2.18723e-06,1.33774e-06,0
-3.32612e-05,1.19675e-05,-1.30256e-05,-6.4593e-06,1.52439e-05,-2.469e-06,1.70182e-06,2.39987e-06,0
-3.05801e-05,8.94265e-06,-1.22517e-05,-9.20166e-06,1.53e-05,8.69097e-07,3.78884e-06,4.17964e-06,0
-2.97553e-05,7.18329e-06,-1.0752e-05,-1.168e-05,1.51012e-05,2.48404e-06,5.31406e-06,6.27838e-06,0
-2.99537e-05,7.95037e-06,-9.87048e-06,-1.16712e-05,1.42469e-05,1.84362e-06,6.37675e-06,7.11898e-06,0
-3.06679e-05,9.32027e-06,-1.17804e-05,-1.00927e-05,1.25436e-05,2.99937e-07,8.41483e-06,5.77888e-06,0
-3.08956e-05,1.02509e-05,-1.54862e-05,-1.13429e-05,1.11471e-05,-5.78883e-07,1.24431e-05,4.25658e-06,0
-3.04778e-05,1.06733e-05,-1.79777e-05,-1.6074e-05,1.05209e-05,-1.08969e-06,1.71477e-05,3.59055e-06,0
-2.92302e-05,1.11022e-05,-1.89786e-05,-2.11344e-05,1.07655e-05,-1.65614e-06,2.01876e-05,3.46548e-06,0
-2.76819e-05,1.15529e-05,-1.96243e-05,-2.44031e-05,1.19172e-05,-2.4149e-06,2.10859e-05,3.80412e-06,0
-2.74958e-05,1.14389e-05,-1.98785e-05,-2.47446e-05,1.30384e-05,-3.48225e-06,2.10366e-05,4.50186e-06,0
-2.91119e-05,1.08862e-05,-1.89489e-05,-2.08383e-05,1.31389e-05,-5.24265e-06,2.00385e-05,5.43896e-06,0
-3.08028e-05,1.0444e-05,-1.73064e-05,-1.62215e-05,1.29308e-05,-6.104e-06,1.80949e-05,5.43645e-06,0
-3.05257e-05,9.76113e-06,-1.49998e-05,-1.45936e-05,1.26562e-05,-6.21575e-06,1.60031e-05,4.27862e-06,0
-2.91122e-05,8.60843e-06,-1.42993e-05,-1.53572e-05,1.30675e-05,-6.76515e-06,1.48752e-05,2.58178e-06,0
-2.82748e-05,9.17915e-06,-1.48558e-05,-1.46343e-05,1.3308e-05,-8.27939e-06,1.48401e-05,1.20338e-06,0
-2.78657e-05,1.06997e-05,-1.46748e-05,-1.23055e-05,1.21291e-05,-9.97133e-06,1.48235e-05,-3.73225e-08,0
-2.82984e-05,9.29773e-06,-1.42484e-05,-1.07184e-05,1.18957e-05,-1.11908e-05,1.42813e-05,-1.60781e-06,0
-2.8157e-05,6.52005e-06,-1.27761e-05,-7.72652e-06,1.38524e-05,-1.2274e-05,1.27294e-05,-6.49587e-07,0
-2.83169e-05,7.18485e-06,-1.09561e-05,-2.334e-06,1.82793e-05,-1.05298e-05,1.24682e-05,2.15896e-06,0
-2.97077e-05,9.06948e-06,-1.00336e-05,-3.08007e-06,2.16331e-05,-7.50167e-06,1.37032e-05,3.0784e-06,0
-3.03984e-05,8.7583e-06,-8.62035e-06,-1.5336e-05,2.32642e-05,-6.9075e-06,1.49841e-05,2.33668e-06,0
-2.95501e-05,8.58758e-06,-7.5295e-06,-2.86662e-05,2.26445e-05,-8.67478e-06,1.1872e-05,2.84258e-06,0
-2.7957e-05,8.59546e-06,-6.92853e-06,-3.28785e-05,1.94811e-05,-1.03645e-05,-2.45414e-07,4.21492e-06,0
-2.64515e-05,7.7599e-06,-7.53003e-06,-2.92738e-05,1.73893e-05,-1.08748e-05,-1.39425e-05,4.53875e-06,0
-2.51049e-05,7.36695e-06,-7.96859e-06,-2.53748e-05,1.53926e-05,-1.03971e-05,-2.0915e-05,3.7189e-06,0
-2.6827e-05,7.08988e-06,-7.42977e-06,-2.12466e-05,1.41389e-05,-1.00232e-05,-2.15678e-05,2.81814e-06,0
-2.83035e-05,7.70097e-06,-6.43287e-06,-1.10562e-05,1.35993e-05,-9.74431e-06,-1.83554e-05,2.26997e-06,0
-2.76128e-05,8.08878e-06,-4.15116e-06,7.50345e-06,1.41539e-05,-9.77599e-06,-1.24618e-05,1.26867e-06,0
-2.73715e-05,7.04016e-06,-2.29509e-06,3.12766e-05,1.62472e-05,-1.09472e-05,-4.84792e-06,1.66933e-06,0
-2.85893e-05,6.60109e-06,-1.80131e-06,4.96786e-05,1.74006e-05,-1.19349e-05,4.47619e-06,3.4366e-06,0
-3.00836e-05,7.67568e-06,-2.11321e-06,5.53392e-05,1.66622e-05,-1.2792e-05,1.3706e-05,5.09153e-06,0
-3.0848e-05,8.16002e-06,-2.08826e-06,4.86818e-05,1.41635e-05,-1.31104e-05,1.96805e-05,6.52591e-06,0
-3.14551e-05,7.21664e-06,-2.28627e-06,3.16853e-05,1.13857e-05,-1.29425e-05,2.23733e-05,7.5149e-06,0
-3.17092e-05,6.67294e-06,-2.57985e-06,9.61268e-06,8.96682e-06,-1.34154e-05,2.36011e-05,7.25422e-06,0
-3.19457e-05,6.95216e-06,-2.82078e-06,-8.02013e-06,7.69983e-06,-1.49711e-05,2.40385e-05,6.76673e-06,0
-3.17533e-05,6.26665e-06,-3.76567e-06,-1.51535e-05,6.88795e-06,-1.70708e-05,2.24796e-05,7.71013e-06,0
-3.16193e-05,2.85582e-06,-5.4639e-06,-1.51313e-05,5.49661e-06,-1.90289e-05,2.04567e-05,8.63757e-06,0
-3.14347e-05,-4.7623e-07,-6.44833e-06,-1.43084e-05,4.81068e-06,-1.95325e-05,2.11003e-05,6.49076e-06,0
-3.11081e-05,2.79382e-07,-6.04812e-06,-1.40791e-05,7.47738e-06,-1.80423e-05,2.19586e-05,2.6765e-06,0
-3.03748e-05,2.85391e-06,-4.18835e-06,-1.24583e-05,1.13108e-05,-1.6367e-05,2.02843e-05,2.19611e-06,0
-3.0948e-05,3.40868e-06,-2.91953e-06,-9.94474e-06,1.42578e-05,-1.60373e-05,1.8654e-05,4.12395e-06,0
-3.23761e-05,1.2378e-06,-3.36203e-06,-7.12579e-06,1.82495e-05,-1.70104e-05,1.87638e-05,4.67452e-06,0
-3.19522e-05,-3.10701e-06,-4.10582e-06,-5.66973e-06,2.25176e-05,-1.57997e-05,2.01578e-05,2.58411e-06,0
-3.18351e-05,-6.39197e-06,-3.97412e-06,-8.70428e-06,2.70895e-05,-1.30758e-05,2.16221e-05,5.24289e-07,0
-3.23526e-05,-8.03745e-06,-5.68071e-06,-1.48549e-05,3.29435e-05,-1.12944e-05,2.11346e-05,2.08531e-07,0
-3.20287e-05,-8.90145e-06,-1.0056e-05,-2.14772e-05,3.45005e-05,-9.72383e-06,1.86173e-05,6.66398e-07,0
-2.96542e-05,-8.86915e-06,-1.3621e-05,-2.23875e-05,2.87574e-05,-9.4914e-06,1.48052e-05,1.45396e-06,0
-2.81395e-05,-1.02514e-05,-1.597e-05,-1.42344e-05,2.19298e-05,-1.03613e-05,7.99047e-06,1.99999e-06,0
-2.91529e-05,-1.10516e-05,-1.5386e-05,-2.99403e-06,1.62292e-05,-1.22618e-05,-4.06098e-06,2.13087e-06,0
-3.04947e-05,-9.99513e-06,-1.43256e-05,5.7336e-06,1.28262e-05,-1.33377e-05,-1.5504e-05,1.39672e-06,0
-3.09766e-05,-1.00563e-05,-1.47701e-05,9.84696e-06,1.04112e-05,-1.16499e-05,-2.02734e-05,-7.71681e-07,0
-2.87659e-05,-1.04806e-05,-1.66465e-05,1.28008e-05,9.64839e-06,-1.02225e-05,-1.87382e-05,-2.44097e-06,0
-2.65439e-05,-8.92614e-06,-1.86528e-05,1.80511e-05,9.92114e-06,-1.04825e-05,-1.3991e-05,-1.67806e-08,0
-2.57459e-05,-4.22241e-06,-1.83339e-05,2.1435e-05,9.45744e-06,-1.14121e-05,-7.63316e-06,3.3718e-06,0
-2.61934e-05,1.55121e-06,-1.64366e-05,2.04702e-05,9.80366e-06,-1.12308e-05,1.78451e-06,4.17123e-06,0
-2.72087e-05,5.36376e-06,-1.30674e-05,1.88676e-05,1.15816e-05,-9.82577e-06,1.23476e-05,3.62357e-06,0
-2.79785e-05,6.55421e-06,-1.01219e-05,1.90182e-05,1.39277e-05,-8.43945e-06,2.06486e-05,3.56418e-06,0
-2.79633e-05,7.81271e-06,-8.08493e-06,1.7698e-05,1.45606e-05,-8.4529e-06,2.51072e-05,4.16834e-06,0
-2.68895e-05,1.19738e-05,-6.5067e-06,1.26919e-05,1.45015e-05,-9.48272e-06,2.68089e-05,4.76117e-06,0
-2.6527e-05,1.68634e-05,-5.11075e-06,7.3482e-06,1.4862e-05,-9.65299e-06,2.70896e-05,5.82723e-06,0
-2.70137e-05,1.89523e-05,-4.40711e-06,7.12658e-06,1.66137e-05,-8.9853e-06,2.79009e-05,7.63742e-06,0
-2.73913e-05,1.80614e-05,-3.82668e-06,1.47153e-05,1.80689e-05,-8.55845e-06,2.96356e-05,9.59637e-06,0
-2.78057e-05,1.66202e-05,-2.67293e-06,2.41519e-05,1.72627e-05,-9.12726e-06,3.00468e-05,9.9581e-06,0
-2.8416e-05,1.65532e-05,-2.40857e-06,2.77606e-05,1.46204e-05,-1.01047e-05,2.86822e-05,8.98999e-06,0
-2.82295e-05,1.76555e-05,-3.85963e-06,2.47656e-05,1.318e-05,-1.11409e-05,2.80762e-05,8.18602e-06,0
-2.73412e-05,1.79272e-05,-5.92902e-06,1.76201e-05,1.32658e-05,-1.21013e-05,2.86574e-05,9.14997e-06,0
-2.73e-05,1.67191e-05,-6.36748e-06,7.71451e-06,1.3547e-05,-1.17254e-05,2.91537e-05,1.03333e-05,0
-2.86482e-05,1.46153e-05,-4.63733e-06,-2.86376e-06,1.32659e-05,-9.81988e-06,2.92744e-05,1.00306e-05,0
-2.89517e-05,1.31243e-05,-2.99368e-06,-9.81884e-06,1.31087e-05,-8.06371e-06,2.80513e-05,9.14492e-06,0
-2.77917e-05,1.29414e-05,-3.05158e-06,-1.20852e-05,1.47652e-05,-8.01805e-06,2.53322e-05,7.64849e-06,0
-2.65786e-05,1.33572e-05,-3.14871e-06,-1.34221e-05,1.68583e-05,-7.79255e-06,2.22229e-05,5.98777e-06,0
-2.57842e-05,1.60819e-05,-3.21808e-06,-1.77029e-05,1.71756e-05,-7.09263e-06,1.81061e-05,4.14099e-06,0
-2.53402e-05,2.04667e-05,-3.69672e-06,-2.84128e-05,1.61463e-05,-7.57285e-06,1.4438e-05,2.05907e-06,0
-2.70002e-05,2.33922e-05,-4.72122e-06,-4.11493e-05,1.33055e-05,-8.29406e-06,1.27172e-05,9.84286e-07,0
-2.9618e-05,2.26411e-05,-5.89025e-06,-4.67203e-05,9.33501e-06,-7.83929e-06,1.15537e-05,1.287e-06,0
-2.98771e-05,1.93463e-05,-7.01159e-06,-3.84714e-05,9.31635e-06,-5.88329e-06,1.271e-05,1.95977e-06,0
-2.96271e-05,1.76461e-05,-7.02123e-06,-2.1547e-05,1.26183e-05,-6.40699e-06,1.41959e-05,1.88042e-06,0
-3.01957e-05,1.74694e-05,-6.29232e-06,-1.10711e-05,1.45668e-05,-8.30748e-06,1.50641e-05,1.09789e-06,0
-3.09945e-05,1.78663e-05,-6.33691e-06,-8.84683e-06,1.45288e-05,-9.31883e-06,1.42979e-05,7.97768e-07,0
-3.2979e-05,1.68061e-05,-7.73155e-06,-9.98713e-06,1.43344e-05,-1.03771e-05,1.17188e-05,2.42528e-06,0
-3.42616e-05,1.52885e-05,-9.37181e-06,-1.30916e-05,1.45482e-05,-1.11153e-05,9.82159e-06,3.24475e-06,0
-3.39964e-05,1.69749e-05,-8.84993e-06,-1.83033e-05,1.52894e-05,-1.10806e-05,9.79176e-06,1.655e-06,0
-3.40363e-05,1.96525e-05,-6.80812e-06,-2.27041e-05,1.71053e-05,-1.02371e-05,1.03972e-05,-7.88951e-07,0
-3.27458e-05,1.96396e-05,-5.01096e-06,-2.38106e-05,1.8694e-05,-8.9736e-06,1.00225e-05,-2.68104e-06,0
-3.03978e-05,1.84834e-05,-3.99831e-06,-2.4552e-05,1.80505e-05,-8.91162e-06,9.88689e-06,-3.57677e-06,0
-2.93378e-05,1.90335e-05,-4.14167e-06,-2.77311e-05,1.52902e-05,-1.06967e-05,9.95499e-06,-3.82197e-06,0
-2.9835e-05,2.08695e-05,-4.60947e-06,-3.29721e-05,1.24587e-05,-1.21637e-05,1.06071e-05,-2.95422e-06,0
-3.04711e-05,2.26885e-05,-3.34002e-06,-3.67345e-05,1.15124e-05,-1.22201e-05,1.09903e-05,-2.70178e-06,0
-3.06142e-05,2.35598e-05,-1.51642e-06,-3.65393e-05,1.2401e-05,-1.06865e-05,1.16569e-05,-2.88246e-06,0
-3.00853e-05,2.3166e-05,-1.789e-06,-3.26958e-05,1.36661e-05,-9.65553e-06,1.30053e-05,-2.4165e-06,0
-2.92316e-05,2.07212e-05,-4.00836e-06,-2.67979e-05,1.2961e-05,-9.97031e-06,1.42006e-05,-1.55984e-06,0
-2.91421e-05,1.78745e-05,-5.83855e-06,-2.11338e-05,1.06287e-05,-1.1202e-05,1.42047e-05,-1.89279e-06,0
-2.97921e-05,1.59873e-05,-8.00754e-06,-1.81322e-05,9.21446e-06,-1.2656e-05,1.59324e-05,-3.72719e-06,0
-3.03906e-05,1.42327e-05,-1.24725e-05,-1.57147e-05,9.4462e-06,-1.3626e-05,2.06641e-05,-5.31613e-06,0
-3.08469e-05,1.3117e-05,-1.68609e-05,-1.10654e-05,1.04415e-05,-1.39495e-05,2.49148e-05,-4.8251e-06,0
-3.18039e-05,1.41487e-05,-1.87494e-05,-6.0177e-06,1.09551e-05,-1.41911e-05,2.62169e-05,-4.24878e-06,0
-3.25892e-05,1.51528e-05,-1.82517e-05,-3.52275e-06,1.03338e-05,-1.39068e-05,2.16975e-05,-5.60119e-06,0
-3.26952e-05,1.32874e-05,-1.63953e-05,-2.63337e-06,9.2662e-06,-1.42415e-05,1.50554e-05,-6.53654e-06,0
-3.28908e-05,8.94307e-06,-1.44049e-05,-2.15059e-06,8.63599e-06,-1.47284e-05,1.13589e-05,-4.77894e-06,0
-3.33045e-05,6.50054e-06,-1.21514e-05,-8.90701e-07,8.52829e-06,-1.47666e-05,9.67466e-06,-2.45176e-06,0
-3.47222e-05,8.03791e-06,-1.04061e-05,1.38868e-06,7.80165e-06,-1.30363e-05,8.00871e-06,-1.57788e-06,0
-3.54929e-05,9.15391e-06,-9.33962e-06,2.60715e-06,9.02867e-06,-1.13423e-05,4.91509e-06,3.46475e-07,0
-3.47343e-05,9.31658e-06,-9.4582e-06,1.98636e-06,1.14381e-05,-1.27636e-05,2.23007e-06,2.51441e-06,0
-3.4128e-05,1.02223e-05,-1.00625e-05,3.29899e-07,1.26185e-05,-1.25414e-05,1.27813e-06,4.77551e-06,0
-3.33187e-05,1.2342e-05,-9.92832e-06,-1.59237e-06,1.10802e-05,-1.02717e-05,2.23797e-06,6.33314e-06,0
-3.29454e-05,1.52305e-05,-8.38545e-06,-3.00091e-06,7.69434e-06,-7.94019e-06,4.80874e-06,5.98897e-06,0
-3.33855e-05,1.80836e-05,-6.37651e-06,-2.53857e-06,6.26178e-06,-7.50927e-06,6.52769e-06,6.17712e-06,0
-3.38643e-05,2.03985e-05,-4.89682e-06,-2.56172e-06,4.89954e-06,-8.17889e-06,6.69686e-06,6.59466e-06,0
-3.30257e-05,2.17488e-05,-3.69463e-06,-2.25927e-06,3.9243e-06,-9.2075e-06,6.09891e-06,5.73602e-06,0
-3.17931e-05,2.2839e-05,-3.88306e-06,-1.07925e-06,4.58316e-06,-8.42337e-06,6.11022e-06,4.05115e-06,0
-3.10974e-05,2.39316e-05,-4.72039e-06,-3.5984e-07,5.93955e-06,-6.65625e-06,7.69043e-06,2.93205e-06,0
-3.14131e-05,2.51725e-05,-5.22593e-06,6.18244e-07,6.65043e-06,-5.64784e-06,1.01292e-05,3.00134e-06,0
-3.25153e-05,2.57712e-05,-5.18351e-06,2.83357e-06,7.30884e-06,-4.55417e-06,1.23355e-05,3.9739e-06,0
-3.22477e-05,2.53877e-05,-5.09852e-06,4.95684e-06,8.38176e-06,-3.97473e-06,1.44302e-05,5.27496e-06,0
-3.07098e-05,2.45334e-05,-4.92248e-06,5.4878e-06,9.83356e-06,-4.52671e-06,1.63148e-05,5.68395e-06,0
-2.92268e-05,2.41636e-05,-5.48223e-06,5.0765e-06,1.01814e-05,-5.73009e-06,1.6629e-05,6.02895e-06,0
-2.95346e-05,2.58091e-05,-6.82571e-06,5.23409e-06,9.3002e-06,-6.19866e-06,1.48774e-05,6.45627e-06,0
-3.13489e-05,2.93688e-05,-8.26136e-06,7.81369e-06,9.66655e-06,-7.28924e-06,1.4118e-05,6.06981e-06,0
-3.24243e-05,3.26142e-05,-1.01597e-05,9.84177e-06,1.13909e-05,-8.47926e-06,1.56108e-05,5.36958e-06,0
-3.15081e-05,3.40156e-05,-1.28043e-05,8.04149e-06,1.24516e-05,-8.9581e-06,1.7311e-05,4.59472e-06,0
-3.03274e-05,3.36665e-05,-1.33151e-05,4.17039e-06,1.19252e-05,-8.64717e-06,1.72742e-05,4.38143e-06,0
-3.02088e-05,3.12647e-05,-1.06962e-05,-2.47663e-07,1.13111e-05,-8.70448e-06,1.63619e-05,3.8802e-06,0
-3.1004e-05,3.00964e-05,-7.41322e-06,-6.90697e-06,1.06552e-05,-9.23029e-06,1.55599e-05,2.91936e-06,0
-3.23089e-05,3.18601e-05,-5.89787e-06,-1.34738e-05,1.0305e-05,-1.06835e-05,1.40599e-05,1.70684e-06,0
-3.21705e-05,3.22249e-05,-7.04627e-06,-1.56388e-05,1.16696e-05,-1.16915e-05,1.32307e-05,-5.75037e-07,0
-3.11466e-05,3.06935e-05,-9.27004e-06,-1.55661e-05,1.38977e-05,-1.21986e-05,1.35564e-05,-2.2861e-06,0
-3.04521e-05,2.87223e-05,-9.41037e-06,-1.94894e-05,1.49167e-05,-1.28314e-05,1.38916e-05,-2.79425e-06,0
-2.88263e-05,2.51223e-05,-7.67087e-06,-2.35981e-05,1.54362e-05,-1.34725e-05,1.29381e-05,-3.01102e-06,0
-2.5962e-05,2.15739e-05,-6.34521e-06,-2.38089e-05,1.92186e-05,-1.2561e-05,1.03436e-05,-1.4367e-06,0
-2.45938e-05,2.14518e-05,-4.29458e-06,-2.08019e-05,2.52642e-05,-1.08146e-05,7.57713e-06,1.1446e-06,0
-2.57858e-05,2.18827e-05,-2.01255e-06,-1.61709e-05,2.81502e-05,-1.10516e-05,4.29339e-06,1.74395e-06,0
-2.68915e-05,2.0864e-05,-1.00645e-06,-1.16208e-05,2.66994e-05,-1.19133e-05,1.06207e-06,1.34559e-07,0
-2.55703e-05,1.97744e-05,-2.50856e-06,-4.66807e-06,2.38711e-05,-1.20045e-05,1.12969e-07,-1.81121e-06,0
-2.41677e-05,1.91116e-05,-4.96768e-06,4.38604e-06,2.39377e-05,-1.08065e-05,7.86915e-07,-1.39628e-06,0
-2.44312e-05,2.01255e-05,-7.03578e-06,1.24892e-05,2.43194e-05,-9.67933e-06,1.46705e-06,3.33468e-07,0
-2.56802e-05,2.15786e-05,-8.23379e-06,1.67003e-05,2.14002e-05,-9.71934e-06,2.28335e-06,1.07984e-06,0
-2.76492e-05,2.29424e-05,-9.24165e-06,1.58642e-05,1.82231e-05,-1.06911e-05,3.36802e-06,1.19174e-06,0
-2.82775e-05,2.24076e-05,-1.00331e-05,9.30057e-06,1.62013e-05,-1.1357e-05,4.00231e-06,1.08436e-06,0
-2.69886e-05,2.01095e-05,-1.06906e-05,8.78091e-07,1.43334e-05,-1.19794e-05,4.84275e-06,9.82813e-08,0
-2.50697e-05,1.77208e-05,-1.06811e-05,-3.72909e-06,1.27487e-05,-1.17104e-05,7.32619e-06,-1.61872e-06,0
-2.45902e-05,1.71778e-05,-9.30142e-06,-3.26206e-06,1.19388e-05,-1.03455e-05,1.11575e-05,-3.00543e-06,0
-2.52045e-05,1.91213e-05,-7.34778e-06,-1.24107e-06,1.24547e-05,-9.37352e-06,1.38621e-05,-4.35882e-06,0
-2.57672e-05,1.96731e-05,-6.0168e-06,-1.26268e-06,1.43904e-05,-9.6227e-06,1.44568e-05,-4.98767e-06,0
-2.6286e-05,1.71401e-05,-5.32551e-06,-4.86627e-06,1.62342e-05,-1.03794e-05,1.42178e-05,-5.25616e-06,0
-2.72718e-05,1.45277e-05,-3.55924e-06,-1.2218e-05,1.55528e-05,-1.21653e-05,1.46702e-05,-5.99262e-06,0
-2.85992e-05,1.27757e-05,-2.20685e-06,-1.98109e-05,1.23407e-05,-1.48515e-05,1.58668e-05,-7.57136e-06,0
-2.96142e-05,9.59204e-06,-3.60138e-06,-2.18312e-05,8.18152e-06,-1.60447e-05,1.72334e-05,-8.82238e-06,0
-2.96629e-05,5.38894e-06,-9.07335e-06,-1.70303e-05,6.10649e-06,-1.44889e-05,1.85751e-05,-7.76544e-06,0
-2.88469e-05,1.19809e-06,-1.66437e-05,-9.99106e-06,7.70779e-06,-1.19586e-05,2.01462e-05,-5.94394e-06,0
-2.83449e-05,-9.95117e-07,-2.24635e-05,-2.61353e-06,9.26367e-06,-1.03507e-05,1.96646e-05,-4.56838e-06,0
-2.78334e-05,-3.02629e-06,-2.33744e-05,6.81754e-06,1.00097e-05,-9.64057e-06,1.67478e-05,-4.82088e-06,0
-2.86271e-05,-5.40658e-06,-2.22488e-05,2.16804e-05,1.05695e-05,-1.11441e-05,1.5314e-05,-5.20503e-06,0
-3.09768e-05,-6.19372e-06,-1.9899e-05,3.70156e-05,9.75714e-06,-1.35464e-05,1.63397e-05,-4.49517e-06,0
-3.26029e-05,-8.06648e-06,-1.7017e-05,3.82015e-05,7.83793e-06,-1.61747e-05,1.68343e-05,-5.34333e-06,0
-3.45489e-05,-8.7422e-06,-1.59375e-05,2.5866e-05,4.3579e-06,-1.77553e-05,1.49335e-05,-6.17275e-06,0
-3.53348e-05,-5.33811e-06,-1.56007e-05,1.29435e-05,2.18229e-06,-1.67659e-05,1.37452e-05,-7.1582e-06,0
-3.30192e-05,-1.27108e-06,-1.52871e-05,9.20113e-06,4.8809e-06,-1.43612e-05,1.37115e-05,-7.72657e-06,0
-3.22793e-05,1.29537e-06,-1.39217e-05,1.25372e-05,1.02615e-05,-1.02827e-05,1.27699e-05,-6.63462e-06,0
-3.30238e-05,2.19285e-06,-1.1425e-05,1.2493e-05,1.42125e-05,-7.04534e-06,1.0955e-05,-5.4287e-06,0
-3.28103e-05,2.581e-06,-7.72151e-06,8.7394e-06,1.4706e-05,-7.10226e-06,1.11706e-05,-3.73957e-06,0
-3.22516e-05,2.28933e-06,-5.30167e-06,2.84397e-06,1.55556e-05,-8.76866e-06,1.25515e-05,-3.36464e-06,0
-3.223e-05,2.36149e-06,-6.0028e-06,-4.40061e-06,1.80231e-05,-9.89236e-06,1.25099e-05,-3.55878e-06,0
-3.25925e-05,3.14909e-06,-8.21636e-06,-1.25868e-05,1.99281e-05,-1.04806e-05,1.24451e-05,-3.66678e-06,0
-3.26346e-05,4.57631e-06,-1.0156e-05,-1.89362e-05,2.09042e-05,-1.14314e-05,1.19281e-05,-3.89544e-06,0
-3.17405e-05,6.34069e-06,-1.10618e-05,-1.58415e-05,2.06936e-05,-1.17533e-05,1.08646e-05,-3.22372e-06,0
-3.03492e-05,7.03176e-06,-1.09615e-05,-1.3532e-06,1.88623e-05,-1.16597e-05,1.0898e-05,-2.11717e-06,0
-3.03581e-05,6.66913e-06,-9.7956e-06,1.61078e-05,1.53199e-05,-1.1941e-05,1.17065e-05,-1.1719e-06,0
-3.11278e-05,7.27004e-06,-7.14156e-06,2.86101e-05,1.11037e-05,-1.22432e-05,1.21553e-05,-1.24746e-06,0
-3.14134e-05,1.01558e-05,-4.14912e-06,3.31702e-05,9.63783e-06,-1.19293e-05,1.32378e-05,-2.71306e-06,0
-3.15696e-05,1.30237e-05,-3.50291e-06,2.75718e-05,1.21304e-05,-1.10322e-05,1.50238e-05,-3.90367e-06,0
-3.26715e-05,1.55541e-05,-4.43435e-06,1.45869e-05,1.39309e-05,-1.02003e-05,1.62937e-05,-3.23154e-06,0
-3.40537e-05,1.69275e-05,-3.61939e-06,-3.75698e-06,1.28644e-05,-9.08402e-06,1.60186e-05,-2.07277e-06,0
-3.29508e-05,1.71468e-05,-2.15395e-06,-2.90616e-05,1.08038e-05,-6.86806e-06,1.47153e-05,-2.53943e-06,0
-2.95112e-05,1.87407e-05,-2.82654e-06,-5.70253e-05,9.22896e-06,-3.89852e-06,1.4606e-05,-3.75389e-06,0
-2.76105e-05,2.07487e-05,-3.71869e-06,-7.69914e-05,7.84655e-06,-1.6076e-06,1.59585e-05,-3.22195e-06,0
-2.84733e-05,2.05557e-05,-3.48574e-06,-8.70175e-05,7.18674e-06,-1.33868e-06,1.62851e-05,-1.09351e-06,0
-2.97696e-05,2.06165e-05,-3.5596e-06,-9.14913e-05,8.20114e-06,-3.3124e-06,1.41034e-05,1.7307e-08,0
-3.03075e-05,2.10274e-05,-5.0449e-06,-9.07332e-05,1.25433e-05,-6.68544e-06,1.17e-05,-3.03922e-06,0
-3.07313e-05,1.9604e-05,-7.41187e-06,-8.28273e-05,1.6956e-05,-9.72152e-06,1.0589e-05,-6.89232e-06,0
-2.90715e-05,1.64693e-05,-9.31406e-06,-6.45769e-05,1.79415e-05,-9.91562e-06,8.76553e-06,-7.04237e-06,0
-2.66893e-05,1.38463e-05,-1.02905e-05,-3.84947e-05,1.71818e-05,-8.9318e-06,8.51744e-06,-4.90983e-06,0
-2.68454e-05,1.32379e-05,-7.90469e-06,-1.29708e-05,1.75689e-05,-9.40282e-06,9.65677e-06,-3.55529e-06,0
-2.90709e-05,1.28104e-05,-4.9348e-06,4.24282e-06,2.00152e-05,-9.16518e-06,8.38441e-06,-3.44914e-06,0
-3.03953e-05,1.22589e-05,-3.80837e-06,1.02362e-05,2.13968e-05,-8.75512e-06,4.43884e-06,-3.42215e-06,0
-2.96043e-05,1.20657e-05,-4.10908e-06,1.07937e-05,2.04534e-05,-9.67298e-06,-1.38051e-07,-3.35457e-06,0
-2.83066e-05,1.10188e-05,-6.28251e-06,1.05051e-05,1.74016e-05,-1.07596e-05,-2.43667e-06,-3.2307e-06,0
-2.74755e-05,8.78209e-06,-8.02468e-06,1.22343e-05,1.45258e-05,-1.16391e-05,-9.36514e-07,-4.72959e-06,0
-2.92398e-05,5.78224e-06,-7.64183e-06,1.62953e-05,1.28717e-05,-1.12362e-05,2.17539e-06,-6.21442e-06,0
-3.18344e-05,3.54023e-06,-5.0347e-06,2.15119e-05,1.25761e-05,-1.02487e-05,5.17567e-06,-5.78367e-06,0
-3.24883e-05,3.20684e-06,-2.02666e-06,2.72344e-05,1.33143e-05,-9.28711e-06,9.95619e-06,-4.15279e-06,0
-3.10576e-05,3.28266e-06,3.45835e-08,3.06458e-05,1.31826e-05,-8.6384e-06,1.42401e-05,-2.01332e-06,0
-2.95039e-05,1.73257e-06,1.77391e-07,2.6136e-05,1.16809e-05,-9.16398e-06,1.62633e-05,-1.6363e-07,0
-2.88834e-05,-1.68502e-06,-1.55844e-07,1.40069e-05,1.04936e-05,-1.08335e-05,1.59045e-05,1.2503e-06,0
-2.89182e-05,-3.80048e-06,8.80694e-07,3.16181e-06,1.04864e-05,-1.12587e-05,1.41667e-05,3.03762e-06,0
-2.85684e-05,-1.49697e-06,2.93491e-06,-1.00124e-06,1.00699e-05,-9.91098e-06,1.36324e-05,5.32915e-06,0
-2.73923e-05,3.50465e-06,4.09718e-06,7.66226e-07,9.29947e-06,-9.18706e-06,1.56098e-05,6.95379e-06,0
-2.69189e-05,7.14432e-06,4.93702e-06,2.45571e-06,8.56641e-06,-9.51477e-06,1.74757e-05,8.31061e-06,0
-2.75637e-05,8.39888e-06,6.04113e-06,1.57627e-06,6.43415e-06,-1.07157e-05,1.69794e-05,9.46951e-06,0
-2.83919e-05,8.77939e-06,5.42189e-06,4.96969e-07,2.92259e-06,-1.14598e-05,1.62072e-05,9.67789e-06,0
-2.8636e-05,8.67924e-06,2.13979e-06,8.40169e-07,7.75161e-09,-1.12821e-05,1.6695e-05,8.29586e-06,0
-2.92369e-05,6.10233e-06,-2.46039e-06,-6.22372e-08,-5.68046e-07,-1.00178e-05,1.69195e-05,5.44705e-06,0
-3.04925e-05,2.47955e-06,-6.23716e-06,-3.36925e-06,2.34575e-06,-7.98169e-06,1.62327e-05,2.73701e-06,0
-3.16982e-05,-1.58578e-07,-6.62125e-06,-6.30932e-06,6.91767e-06,-5.99138e-06,1.61075e-05,1.59892e-06,0
-3.12098e-05,-1.64896e-06,-4.03364e-06,-5.55149e-06,1.05806e-05,-5.19882e-06,1.68894e-05,2.47468e-06,0
-3.07178e-05,-3.4231e-06,-3.67287e-06,-1.31129e-07,1.24888e-05,-5.93427e-06,1.81087e-05,3.1544e-06,0
-3.22012e-05,-5.98972e-06,-5.34947e-06,6.51157e-06,1.34081e-05,-7.47016e-06,1.84442e-05,8.41286e-07,0
-3.25544e-05,-5.56993e-06,-7.87643e-06,7.0824e-06,1.31778e-05,-9.01139e-06,1.61524e-05,-2.50909e-06,0
-3.12132e-05,-5.70071e-06,-9.29613e-06,1.9018e-06,1.10428e-05,-8.71788e-06,1.28113e-05,-2.86105e-06,0
-3.08446e-05,-9.23179e-06,-9.01852e-06,-2.25068e-06,7.13409e-06,-8.44712e-06,1.28888e-05,2.65722e-07,0
-3.04421e-05,-1.02587e-05,-7.6515e-06,-4.38175e-06,3.76133e-06,-8.41085e-06,1.27422e-05,3.25356e-06,0
-2.88234e-05,-8.0621e-06,-5.27959e-06,-4.40303e-06,3.55054e-06,-7.76237e-06,9.78533e-06,5.28655e-06,0
-2.71543e-05,-7.32656e-06,-6.18374e-06,-4.55115e-06,5.00547e-06,-9.43023e-06,6.25328e-06,6.56557e-06,0
-2.70468e-05,-1.03744e-05,-1.00563e-05,-7.33343e-06,6.14182e-06,-1.19163e-05,4.81644e-06,8.29213e-06,0
-2.85737e-05,-1.41501e-05,-1.39964e-05,-9.75068e-06,6.60389e-06,-1.24118e-05,6.60469e-06,1.04287e-05,0
-3.07827e-05,-1.57346e-05,-1.70933e-05,-9.23908e-06,6.70218e-06,-1.18272e-05,8.29783e-06,1.04035e-05,0
-3.22649e-05,-1.43451e-05,-1.95547e-05,-8.05232e-06,7.82832e-06,-1.10333e-05,9.37136e-06,8.76007e-06,0
-3.26843e-05,-1.26167e-05,-2.08517e-05,-8.93389e-06,9.46548e-06,-1.01952e-05,1.0972e-05,7.50088e-06,0
-3.35246e-05,-1.09541e-05,-2.01645e-05,-1.09339e-05,1.07229e-05,-1.02357e-05,1.27525e-05,7.07925e-06,0
-3.33504e-05,-8.63896e-06,-1.82908e-05,-1.13506e-05,1.09652e-05,-1.14893e-05,1.39744e-05,6.62587e-06,0
-3.2175e-05,-6.49082e-06,-1.65786e-05,-9.22418e-06,1.13291e-05,-1.24424e-05,1.33054e-05,5.76656e-06,0
-3.16647e-05,-4.08626e-06,-1.5374e-05,-6.06481e-06,1.33435e-05,-1.08177e-05,1.04618e-05,4.73083e-06,0
-3.21454e-05,-7.20584e-07,-1.47441e-05,-4.23122e-06,1.46496e-05,-7.90845e-06,8.26848e-06,4.30145e-06,0
-3.25298e-05,3.51912e-06,-1.40792e-05,-3.39577e-06,1.41596e-05,-6.83763e-06,8.08158e-06,4.20983e-06,0
-3.31948e-05,6.71509e-06,-1.27798e-05,-3.32136e-06,1.26634e-05,-7.38053e-06,8.85518e-06,4.90501e-06,0
-3.48912e-05,8.05202e-06,-1.13035e-05,-2.97945e-06,1.16983e-05,-7.22664e-06,9.23968e-06,5.14547e-06,0
-3.60384e-05,8.39117e-06,-9.69812e-06,-1.84837e-06,1.15178e-05,-6.11526e-06,7.13984e-06,4.29702e-06,0
-3.48345e-05,1.04347e-05,-7.5773e-06,-2.04179e-06,1.09428e-05,-5.72187e-06,1.08192e-06,2.37176e-06,0
-3.19761e-05,1.26866e-05,-5.56044e-06,-4.38087e-06,1.0053e-05,-6.19715e-06,-5.54375e-06,1.01773e-06,0
-2.94049e-05,1.38534e-05,-5.35075e-06,-6.3803e-06,1.07757e-05,-5.72698e-06,-8.64606e-06,1.88832e-06,0
-2.82105e-05,1.46505e-05,-6.58087e-06,-5.68558e-06,1.26692e-05,-3.94892e-06,-6.64952e-06,2.777e-06,0
-2.96788e-05,1.56832e-05,-8.91666e-06,-3.47822e-06,1.4744e-05,-2.49372e-06,3.41814e-07,2.45686e-06,0
-3.1618e-05,1.7145e-05,-1.03538e-05,-3.34576e-06,1.75533e-05,-2.53112e-06,8.60512e-06,1.11943e-06,0
-3.21056e-05,1.79973e-05,-9.40787e-06,-4.85858e-06,1.96177e-05,-4.59035e-06,1.64288e-05,1.72328e-07,0
-3.14777e-05,1.73883e-05,-8.40603e-06,-4.05983e-06,1.88436e-05,-6.18646e-06,2.56324e-05,1.25536e-06,0
-3.18393e-05,1.77293e-05,-7.59064e-06,-3.95969e-06,1.59527e-05,-5.83496e-06,3.2805e-05,3.03285e-06,0
-3.24653e-05,2.21737e-05,-6.87981e-06,-6.14636e-06,1.19919e-05,-3.97806e-06,3.59187e-05,3.00138e-06,0
-3.25582e-05,2.61703e-05,-6.18716e-06,-7.91054e-06,9.85196e-06,-3.80596e-06,3.56326e-05,3.00252e-06,0
-3.23635e-05,2.72794e-05,-6.43867e-06,-8.75944e-06,1.26051e-05,-6.7604e-06,3.23474e-05,3.29973e-06,0
-3.12504e-05,2.92898e-05,-8.08319e-06,-8.68452e-06,1.82191e-05,-9.59733e-06,2.90868e-05,2.43668e-06,0
-3.10699e-05,3.07098e-05,-8.8017e-06,-6.82202e-06,2.06797e-05,-1.02113e-05,2.60306e-05,1.51879e-06,0
-3.16524e-05,2.91309e-05,-8.50718e-06,-2.05963e-06,1.82429e-05,-8.05297e-06,2.43979e-05,1.32761e-06,0
-3.24085e-05,2.489e-05,-7.00553e-06,3.10154e-06,1.68628e-05,-6.6784e-06,2.35155e-05,1.46876e-06,0
-3.20926e-05,2.21519e-05,-7.08006e-06,4.54917e-06,1.82974e-05,-7.50381e-06,2.21135e-05,1.29865e-06,0
-3.0921e-05,2.23101e-05,-8.49397e-06,3.79002e-06,2.06291e-05,-9.27734e-06,1.88858e-05,1.54174e-06,0
-2.98001e-05,2.3366e-05,-9.26283e-06,3.55623e-06,2.32307e-05,-9.46938e-06,1.39968e-05,1.75506e-06,0
-2.85256e-05,2.4357e-05,-9.77062e-06,3.19741e-06,2.49895e-05,-7.28934e-06,1.0301e-05,1.9956e-06,0
-2.71197e-05,2.46937e-05,-8.57862e-06,2.02022e-06,2.50532e-05,-5.77763e-06,8.86644e-06,1.97956e-06,0
-2.71674e-05,2.52191e-05,-5.91269e-06,-1.05646e-06,2.38333e-05,-5.89982e-06,9.18683e-06,1.9987e-06,0
-2.90837e-05,2.64034e-05,-4.24702e-06,-5.44025e-06,2.18658e-05,-6.73154e-06,9.40418e-06,2.44877e-06,0
-3.05837e-05,2.77867e-05,-5.03806e-06,-8.71289e-06,2.06216e-05,-6.63972e-06,8.83506e-06,2.30322e-06,0
-2.99675e-05,2.67559e-05,-6.7768e-06,-1.02839e-05,2.00561e-05,-5.74593e-06,7.86376e-06,2.38889e-06,0
-2.85259e-05,2.39128e-05,-8.04327e-06,-1.13629e-05,1.86378e-05,-5.32271e-06,8.21165e-06,2.85078e-06,0
-2.89482e-05,2.13916e-05,-7.86459e-06,-1.18415e-05,1.67559e-05,-5.39777e-06,9.76291e-06,2.96958e-06,0
-2.97764e-05,2.0126e-05,-7.06958e-06,-1.17825e-05,1.55231e-05,-4.26747e-06,1.09682e-05,2.58314e-06,0
-2.90039e-05,1.88057e-05,-6.31898e-06,-1.15602e-05,1.42735e-05,-2.97756e-06,1.10735e-05,2.50293e-06,0
-2.81229e-05,1.70393e-05,-6.51923e-06,-7.65937e-06,1.30003e-05,-4.14734e-06,1.04891e-05,3.89049e-06,0
-2.8869e-05,1.65397e-05,-6.98492e-06,-9.51071e-07,1.28845e-05,-7.1934e-06,1.01961e-05,6.37356e-06,0
-3.05648e-05,1.90737e-05,-7.56476e-06,1.8587e-06,1.30702e-05,-1.00935e-05,1.04145e-05,7.50861e-06,0
-3.13872e-05,2.34021e-05,-8.8663e-06,-8.25058e-07,1.25665e-05,-1.13048e-05,1.01901e-05,5.9713e-06,0
-3.03493e-05,2.64082e-05,-1.01118e-05,-3.83509e-06,1.1412e-05,-1.15012e-05,9.3783e-06,2.67235e-06,0
-2.9279e-05,2.51151e-05,-1.03418e-05,-2.25097e-06,1.11151e-05,-1.30076e-05,7.48013e-06,-3.75319e-07,0
-2.92819e-05,2.27348e-05,-9.762e-06,8.55218e-07,1.31886e-05,-1.42574e-05,6.07878e-06,1.47711e-07,0
-3.00692e-05,2.38124e-05,-8.97131e-06,1.31731e-06,1.44743e-05,-1.30974e-05,6.81929e-06,4.19697e-06,0
-2.99076e-05,2.66538e-05,-7.75836e-06,-8.76778e-07,1.37341e-05,-1.05306e-05,8.12885e-06,7.54164e-06,0
-2.93689e-05,2.80441e-05,-6.34987e-06,-2.54566e-06,1.41586e-05,-8.778e-06,7.18093e-06,8.39399e-06,0
-2.80921e-05,2.65873e-05,-4.62888e-06,-1.6218e-06,1.50904e-05,-8.1365e-06,3.74366e-06,6.87784e-06,0
-2.55459e-05,2.74132e-05,-3.7257e-06,-4.56717e-07,1.4845e-05,-7.70751e-06,1.79783e-06,5.55608e-06,0
-2.42181e-05,3.06386e-05,-3.51496e-06,4.53285e-07,1.4555e-05,-7.86751e-06,1.83929e-06,4.88766e-06,0
-2.48456e-05,3.17399e-05,-3.91316e-06,1.46557e-06,1.56027e-05,-7.67406e-06,2.60451e-06,4.27994e-06,0
-2.68076e-05,3.04317e-05,-4.77733e-06,9.49095e-07,1.79749e-05,-7.36871e-06,4.60817e-06,3.03308e-06,0
-2.90539e-05,2.94746e-05,-5.12439e-06,-1.02589e-06,1.99757e-05,-7.38243e-06,6.64111e-06,1.40769e-06,0
-3.12007e-05,3.02535e-05,-5.11046e-06,-1.28089e-06,1.90768e-05,-8.85904e-06,7.51464e-06,1.69241e-06,0
-3.09232e-05,3.14499e-05,-6.2692e-06,2.70033e-07,1.59355e-05,-1.1787e-05,8.22092e-06,2.4957e-06,0
-2.92867e-05,3.32585e-05,-8.68854e-06,2.01661e-06,1.35903e-05,-1.41384e-05,9.24937e-06,1.83609e-06,0
-2.85432e-05,3.43175e-05,-1.00065e-05,3.89456e-06,1.26936e-05,-1.44199e-05,1.12837e-05,6.98847e-07,0
-2.92356e-05,3.26193e-05,-9.47582e-06,3.61024e-06,1.13259e-05,-1.31345e-05,1.3659e-05,1.5892e-07,0
-2.92875e-05,2.87566e-05,-8.77678e-06,-7.18875e-07,9.84506e-06,-1.21168e-05,1.53458e-05,-5.41519e-07,0
-2.81002e-05,2.62266e-05,-8.02819e-06,-6.2315e-06,9.84557e-06,-1.14942e-05,1.59405e-05,-1.69396e-07,0
-2.73999e-05,2.47253e-05,-6.35141e-06,-1.02933e-05,1.05309e-05,-1.07375e-05,1.59461e-05,1.26942e-06,0
-2.72372e-05,2.01651e-05,-5.3282e-06,-1.38484e-05,1.02074e-05,-9.88492e-06,1.603e-05,2.13167e-06,0
-2.73769e-05,1.37522e-05,-5.80711e-06,-1.83062e-05,8.72576e-06,-9.53964e-06,1.66003e-05,1.34894e-06,0
-2.83533e-05,1.01217e-05,-6.08884e-06,-2.12986e-05,7.7175e-06,-1.03324e-05,1.82506e-05,3.20538e-07,0
-2.94739e-05,1.08025e-05,-8.13851e-06,-1.93799e-05,8.26463e-06,-1.08098e-05,2.05077e-05,5.1863e-08,0
-2.95456e-05,1.30012e-05,-1.30578e-05,-1.54218e-05,9.42141e-06,-9.51797e-06,2.28833e-05,3.9278e-07,0
-2.91958e-05,1.40057e-05,-1.66648e-05,-1.23812e-05,1.0868e-05,-7.51783e-06,2.57845e-05,1.1587e-06,0
-2.89131e-05,1.42018e-05,-1.68397e-05,-1.05592e-05,1.13008e-05,-7.39071e-06,2.84969e-05,1.78641e-06,0
-2.91335e-05,1.4617e-05,-1.5999e-05,-9.98666e-06,9.71547e-06,-9.16622e-06,3.02033e-05,1.59942e-06,0
-2.92415e-05,1.56871e-05,-1.63311e-05,-8.74687e-06,9.30715e-06,-8.88428e-06,3.24374e-05,1.02704e-06,0
-2.9734e-05,1.69392e-05,-1.66485e-05,-7.35334e-06,1.07925e-05,-7.67312e-06,3.24397e-05,4.66169e-07,0
-2.9941e-05,1.6048e-05,-1.61036e-05,-4.50262e-06,1.22557e-05,-8.51915e-06,2.87458e-05,1.03156e-09,0
-2.98495e-05,1.47899e-05,-1.49977e-05,-6.2687e-07,1.22169e-05,-1.16428e-05,2.47081e-05,-1.55539e-06,0
-2.91808e-05,1.51689e-05,-1.43835e-05,1.61558e-06,1.06156e-05,-1.3483e-05,1.97556e-05,-3.37514e-06,0
-2.91193e-05,1.5421e-05,-1.32326e-05,2.87103e-06,1.02663e-05,-1.3064e-05,1.36979e-05,-2.67504e-06,0
-3.00011e-05,1.34949e-05,-1.23418e-05,2.99412e-06,1.13605e-05,-1.16633e-05,9.42313e-06,-4.90626e-07,0
-3.13265e-05,9.40574e-06,-1.1372e-05,3.34084e-06,1.05348e-05,-9.53097e-06,6.41033e-06,2.28825e-06,0
-3.22584e-05,5.53611e-06,-1.00548e-05,4.51124e-06,8.95227e-06,-8.80516e-06,3.90159e-06,3.23353e-06,0
-3.12541e-05,4.80093e-06,-8.94556e-06,7.35685e-06,8.11839e-06,-9.90031e-06,3.74626e-06,2.78235e-06,0
-2.98367e-05,6.63511e-06,-7.46186e-06,1.10616e-05,8.38004e-06,-1.16882e-05,4.0589e-06,3.22106e-06,0
-3.02506e-05,8.30939e-06,-6.65795e-06,1.38154e-05,8.94671e-06,-1.15722e-05,3.17284e-06,4.5233e-06,0
-3.14906e-05,7.82514e-06,-6.20925e-06,1.52705e-05,8.16898e-06,-1.07634e-05,2.23159e-06,5.21607e-06,0
-3.14007e-05,6.34492e-06,-5.48548e-06,1.62937e-05,6.78468e-06,-1.15657e-05,1.4745e-06,4.47875e-06,0
-3.0899e-05,7.02028e-06,-4.9743e-06,1.75534e-05,6.12383e-06,-1.32867e-05,1.09926e-06,3.43212e-06,0
-3.05216e-05,9.48095e-06,-5.58501e-06,1.61199e-05,7.02679e-06,-1.35753e-05,1.69387e-06,3.52383e-06,0
-3.07948e-05,1.06868e-05,-7.38034e-06,1.07879e-05,7.62168e-06,-1.25601e-05,3.76711e-06,3.96529e-06,0
-3.16731e-05,9.30164e-06,-1.08812e-05,4.18413e-06,7.28659e-06,-1.12852e-05,7.06646e-06,2.59961e-06,0
-3.28375e-05,7.49334e-06,-1.38873e-05,-7.84942e-07,7.29902e-06,-9.81701e-06,1.05538e-05,-3.59008e-07,0
-3.26661e-05,5.82805e-06,-1.52536e-05,-3.01899e-06,7.68584e-06,-9.29902e-06,1.29297e-05,-3.0015e-06,0
-3.14993e-05,2.78683e-06,-1.65475e-05,-2.86375e-06,7.46015e-06,-1.05941e-05,1.40608e-05,-3.77839e-06,0
-3.04064e-05,-1.46159e-06,-2.00501e-05,1.33947e-06,6.99463e-06,-1.22397e-05,1.47908e-05,-3.29545e-06,0
-3.00106e-05,-3.99608e-06,-2.33203e-05,1.30468e-05,6.44971e-06,-1.31526e-05,1.57376e-05,-2.07022e-06,0
-3.00337e-05,-3.53092e-06,-2.15063e-05,2.46399e-05,5.88425e-06,-1.43941e-05,1.53241e-05,-1.36581e-06,0
-2.97912e-05,-1.04748e-06,-1.70747e-05,2.43369e-05,6.60163e-06,-1.68465e-05,1.42355e-05,-7.28008e-07,0
-3.02448e-05,1.07628e-06,-1.49661e-05,1.16358e-05,8.87413e-06,-1.95198e-05,1.39304e-05,1.20274e-07,0
-3.01901e-05,1.6993e-06,-1.46223e-05,-4.718e-06,9.96706e-06,-1.97378e-05,1.3189e-05,-2.16882e-06,0
-2.85656e-05,1.39201e-06,-1.45828e-05,-1.5345e-05,8.75557e-06,-1.84625e-05,1.19195e-05,-5.42532e-06,0
-2.60963e-05,9.04744e-07,-1.40968e-05,-1.32744e-05,7.87992e-06,-1.76375e-05,1.17457e-05,-5.76613e-06,0
-2.53231e-05,-1.0897e-06,-1.26809e-05,-8.32483e-06,9.30772e-06,-1.57354e-05,1.25513e-05,-3.87868e-06,0
-2.59127e-05,-3.79135e-06,-1.06244e-05,-1.11125e-05,1.10406e-05,-1.23627e-05,1.30611e-05,-2.74949e-06,0
-2.53058e-05,-4.71223e-06,-7.20406e-06,-1.87855e-05,1.15935e-05,-8.70478e-06,1.38057e-05,-4.26442e-06,0
-2.46042e-05,-6.00707e-06,-4.53171e-06,-3.49496e-05,1.26923e-05,-6.13957e-06,1.383e-05,-5.12253e-06,0
-2.51401e-05,-6.88446e-06,-4.54966e-06,-5.87877e-05,1.34864e-05,-7.33534e-06,1.36282e-05,-3.68025e-06,0
-2.74266e-05,-5.79624e-06,-6.15712e-06,-8.46134e-05,1.35745e-05,-9.38654e-06,1.48274e-05,-1.60083e-06,0
-2.92168e-05,-2.65411e-06,-7.7139e-06,-9.89587e-05,1.38999e-05,-9.61065e-06,1.59077e-05,-7.99979e-07,0
-2.96997e-05,1.52304e-06,-8.97473e-06,-9.63593e-05,1.36577e-05,-8.91451e-06,1.57963e-05,-9.49633e-07,0
-2.91266e-05,4.23953e-06,-1.01135e-05,-8.29118e-05,1.21848e-05,-8.55706e-06,1.61525e-05,-2.04045e-06,0
-2.77497e-05,6.85472e-06,-1.03375e-05,-6.65233e-05,1.20389e-05,-7.66889e-06,1.68564e-05,-3.06289e-06,0
-2.70578e-05,9.94981e-06,-9.37336e-06,-5.40791e-05,1.44756e-05,-6.08556e-06,1.7516e-05,-3.52831e-06,0
-2.80506e-05,1.1845e-05,-7.65266e-06,-4.43297e-05,1.69679e-05,-5.38554e-06,1.77309e-05,-4.63347e-06,0
-3.0665e-05,1.10819e-05,-5.60114e-06,-3.44162e-05,1.72992e-05,-6.08277e-06,1.78734e-05,-5.12303e-06,0
-3.29249e-05,7.83433e-06,-5.13325e-06,-2.25158e-05,1.59628e-05,-7.36541e-06,1.84187e-05,-5.10724e-06,0
-3.39669e-05,3.96824e-06,-7.2148e-06,-1.17088e-05,1.58278e-05,-7.0614e-06,1.82778e-05,-5.1915e-06,0
-3.33441e-05,6.8137e-07,-9.53675e-06,-6.40725e-06,1.71271e-05,-5.09365e-06,1.71887e-05,-4.04662e-06,0
-3.22417e-05,-3.51053e-07,-1.05108e-05,-7.1651e-06,1.83954e-05,-3.69438e-06,1.58054e-05,-5.74905e-07,0
-3.12333e-05,1.6579e-06,-1.07376e-05,-7.27092e-06,1.95616e-05,-4.19948e-06,1.52928e-05,2.10464e-06,0
-3.01497e-05,5.17515e-06,-9.98708e-06,-4.63165e-06,1.8694e-05,-4.5201e-06,1.54693e-05,1.34641e-06,0
-2.94271e-05,7.28721e-06,-8.51948e-06,-1.40656e-06,1.63694e-05,-5.11022e-06,1.63798e-05,-5.95091e-08,0
-2.96742e-05,7.29261e-06,-7.0588e-06,9.60081e-08,1.49734e-05,-5.96941e-06,1.72426e-05,1.50524e-06,0
-2.97617e-05,7.05526e-06,-6.20946e-06,-3.35153e-07,1.41042e-05,-6.85913e-06,1.73878e-05,4.62732e-06,0
-2.99462e-05,6.49546e-06,-5.08715e-06,-1.46883e-06,1.3278e-05,-8.58386e-06,1.77677e-05,7.23295e-06,0
-3.11571e-05,5.86121e-06,-3.45668e-06,1.8153e-06,1.35606e-05,-1.06824e-05,1.85664e-05,6.27264e-06,0
-3.26077e-05,6.47719e-06,-1.49175e-06,1.4231e-05,1.97127e-05,-1.06487e-05,1.83874e-05,1.68848e-06,0
-3.25609e-05,8.79294e-06,1.70441e-07,3.12649e-05,3.00412e-05,-8.29929e-06,1.57603e-05,-1.15034e-06,0
-3.13375e-05,1.14206e-05,-8.81311e-07,3.79443e-05,3.62081e-05,-6.28106e-06,1.2123e-05,-2.79574e-07,0
-3.11699e-05,1.78362e-05,-1.87229e-06,3.73776e-05,3.77175e-05,-6.17725e-06,1.04323e-05,1.57823e-06,0
-3.01644e-05,3.19468e-05,-5.60203e-07,4.85723e-05,3.78806e-05,-4.93411e-06,9.71319e-06,1.43791e-06,0
-2.81169e-05,4.28626e-05,1.82443e-06,6.3848e-05,3.4907e-05,-2.33555e-06,8.81986e-06,9.25872e-07,0
-2.78675e-05,4.40841e-05,3.79667e-06,6.74251e-05,2.94846e-05,-2.28759e-06,7.8366e-06,1.75792e-06,0
-2.83178e-05,3.85657e-05,4.84867e-06,5.47489e-05,2.41307e-05,-3.30572e-06,8.24808e-06,2.04336e-06,0
-2.78225e-05,3.25675e-05,4.45607e-06,3.78262e-05,2.10727e-05,-4.16545e-06,9.97299e-06,1.98419e-06,0
-2.72199e-05,2.88527e-05,2.19126e-06,2.26984e-05,2.23658e-05,-4.53301e-06,1.01016e-05,2.90965e-06,0
-2.70102e-05,2.60015e-05,-4.08726e-07,4.98399e-06,2.4485e-05,-5.92776e-06,9.6905e-06,3.57044e-06,0
-2.79838e-05,2.46342e-05,-2.52777e-06,-1.43247e-05,2.25137e-05,-7.52553e-06,1.03687e-05,2.80732e-06,0
-3.00363e-05,2.27902e-05,-3.66041e-06,-3.31172e-05,1.75758e-05,-7.81548e-06,1.15672e-05,1.67872e-06,0
-3.13798e-05,2.02422e-05,-4.66962e-06,-4.68582e-05,1.56143e-05,-7.77129e-06,1.30183e-05,7.26062e-07,0
-3.16897e-05,1.77995e-05,-5.05523e-06,-5.27347e-05,1.7055e-05,-8.77258e-06,1.43566e-05,1.56555e-07,0
-3.22237e-05,1.79084e-05,-4.0808e-06,-5.03597e-05,1.84814e-05,-9.8432e-06,1.48582e-05,1.36524e-06,0
-3.27066e-05,1.99496e-05,-1.753e-06,-4.09613e-05,1.69908e-05,-1.0201e-05,1.46076e-05,3.34336e-06,0
-3.28068e-05,1.9858e-05,7.6919e-07,-2.48581e-05,1.37043e-05,-1.02242e-05,1.42677e-05,3.02225e-06,0
-3.2873e-05,1.44e-05,1.82231e-06,-4.1513e-06,1.16522e-05,-1.00877e-05,1.35598e-05,9.07922e-07,0
-3.30102e-05,5.77455e-06,8.68827e-07,1.43162e-05,1.15168e-05,-1.0172e-05,1.09673e-05,3.21558e-07,0
-3.33954e-05,-2.32824e-06,-2.73007e-06,2.062e-05,1.16809e-05,-1.01456e-05,7.87016e-06,1.0837e-06,0
-3.4281e-05,-9.60955e-06,-7.29434e-06,1.26829e-05,1.17176e-05,-1.09694e-05,7.39656e-06,9.31291e-07,0
-3.55306e-05,-1.65612e-05,-1.13804e-05,-2.77021e-06,1.19591e-05,-1.15174e-05,9.47392e-06,-6.43501e-08,0
-3.71789e-05,-2.16861e-05,-1.41553e-05,-1.55654e-05,1.18807e-05,-1.13406e-05,1.21382e-05,1.16917e-06,0
-3.80167e-05,-2.24649e-05,-1.4308e-05,-1.89005e-05,1.20094e-05,-1.15826e-05,1.37626e-05,5.03474e-06,0
-3.90916e-05,-1.90213e-05,-1.27292e-05,-1.30741e-05,1.25233e-05,-1.21971e-05,1.26928e-05,7.09288e-06,0
-4.01291e-05,-1.47728e-05,-1.22085e-05,-1.95958e-06,1.44361e-05,-1.20384e-05,8.69773e-06,5.35966e-06,0
-3.90671e-05,-1.28291e-05,-1.28802e-05,1.15078e-05,1.59292e-05,-1.25647e-05,4.87169e-06,3.58349e-06,0
-3.74681e-05,-1.40609e-05,-1.2828e-05,2.62564e-05,1.7601e-05,-1.41397e-05,3.32429e-06,3.20628e-06,0
-3.59173e-05,-1.59213e-05,-1.33537e-05,3.89941e-05,1.87713e-05,-1.46347e-05,2.82345e-06,4.48892e-06,0
-3.45295e-05,-1.4268e-05,-1.60388e-05,4.84129e-05,1.77426e-05,-1.5451e-05,4.65377e-06,5.87054e-06,0
-3.30324e-05,-9.87156e-06,-1.71029e-05,4.93661e-05,1.72295e-05,-1.82604e-05,2.5632e-06,5.32123e-06,0
-3.11342e-05,-4.28962e-06,-1.5403e-05,4.31977e-05,1.74461e-05,-2.01188e-05,-6.7133e-06,4.71333e-06,0
-2.95129e-05,-3.28058e-07,-1.38527e-05,3.73547e-05,1.92435e-05,-1.89304e-05,-1.5529e-05,3.48555e-06,0
-2.824e-05,1.72584e-06,-1.17731e-05,3.18731e-05,2.1308e-05,-1.70926e-05,-1.78873e-05,3.45338e-06,0
-2.70916e-05,2.95314e-06,-9.95658e-06,2.75176e-05,2.07076e-05,-1.47781e-05,-1.31206e-05,4.50932e-06,0
-2.66792e-05,4.22205e-06,-9.59954e-06,2.33942e-05,1.80377e-05,-1.14056e-05,-6.23506e-06,4.35167e-06,0
-2.58628e-05,6.33074e-06,-8.53894e-06,1.66934e-05,1.47922e-05,-9.38654e-06,1.51819e-06,3.30488e-06,0
-2.48773e-05,7.73043e-06,-5.17796e-06,4.53347e-06,1.26805e-05,-9.58249e-06,9.62274e-06,1.66825e-06,0
-2.47659e-05,8.73627e-06,-1.87819e-06,-9.64139e-06,1.227e-05,-1.03486e-05,1.82692e-05,1.18545e-06,0
-2.50703e-05,9.75854e-06,-1.95724e-06,-1.87174e-05,1.14116e-05,-9.71036e-06,2.55754e-05,8.06988e-07,0
-2.49139e-05,1.04081e-05,-4.1278e-06,-2.27099e-05,9.83794e-06,-8.96946e-06,2.95687e-05,-5.41421e-07,0
-2.48207e-05,1.02778e-05,-6.08833e-06,-2.58607e-05,9.67789e-06,-9.59157e-06,2.87018e-05,-8.28852e-07,0
-2.60695e-05,1.01341e-05,-7.13092e-06,-2.83197e-05,1.11219e-05,-1.05495e-05,2.40179e-05,5.88447e-07,0
-2.80648e-05,1.05121e-05,-7.84718e-06,-2.67323e-05,1.21888e-05,-1.10963e-05,1.95874e-05,1.74186e-06,0
-3.0568e-05,1.11896e-05,-7.77652e-06,-2.25917e-05,1.11866e-05,-1.16219e-05,1.77077e-05,2.84724e-06,0
-3.25847e-05,1.16772e-05,-7.0608e-06,-2.05647e-05,8.1953e-06,-1.2606e-05,1.82362e-05,4.92579e-06,0
-3.27701e-05,1.19675e-05,-5.61801e-06,-2.1692e-05,4.89704e-06,-1.33405e-05,1.90841e-05,6.56926e-06,0
-3.19368e-05,1.2853e-05,-3.13316e-06,-2.15858e-05,3.36846e-06,-1.25648e-05,2.01284e-05,7.2367e-06,0
-3.03899e-05,1.5462e-05,-1.74419e-06,-1.85395e-05,3.37972e-06,-1.06353e-05,2.201e-05,6.93364e-06,0
-2.83721e-05,1.84415e-05,-2.46111e-06,-1.61725e-05,4.42776e-06,-1.03544e-05,2.61294e-05,6.51679e-06,0
-2.80813e-05,1.84775e-05,-3.05397e-06,-1.56348e-05,5.4451e-06,-1.12973e-05,2.9091e-05,5.48039e-06,0
-2.85863e-05,1.72014e-05,-1.6938e-06,-1.50952e-05,5.1405e-06,-1.13923e-05,2.76841e-05,2.46411e-06,0
-2.96532e-05,1.60252e-05,-1.55939e-07,-1.49245e-05,3.60232e-06,-1.16048e-05,2.29529e-05,-1.35868e-06,0
-3.09526e-05,1.45424e-05,-4.68728e-07,-1.45087e-05,1.97135e-06,-1.20116e-05,1.88488e-05,-4.46152e-06,0
-3.19469e-05,1.28427e-05,-2.61045e-06,-1.36869e-05,-4.40705e-07,-1.07536e-05,1.72218e-05,-6.67233e-06,0
-3.22867e-05,1.13344e-05,-5.41935e-06,-1.18169e-05,-1.94879e-06,-1.01617e-05,1.70415e-05,-6.52113e-06,0
-3.11565e-05,1.18517e-05,-8.91299e-06,-9.64657e-06,-2.36504e-06,-1.05696e-05,1.71811e-05,-4.72585e-06,0
-2.96745e-05,1.44016e-05,-1.07974e-05,-9.83618e-06,-2.87386e-06,-9.94405e-06,1.52533e-05,-3.51887e-06,0
-2.906e-05,1.76658e-05,-9.92304e-06,-1.07646e-05,-1.14848e-06,-8.61467e-06,1.20266e-05,-3.4292e-06,0
-2.98522e-05,2.02884e-05,-8.1414e-06,-1.0909e-05,9.70095e-08,-7.46129e-06,9.32764e-06,-4.59952e-06,0
-3.11344e-05,2.24551e-05,-7.34328e-06,-1.2395e-05,-6.23771e-07,-7.63292e-06,6.84112e-06,-4.24191e-06,0
-3.21092e-05,2.4168e-05,-8.7696e-06,-1.3846e-05,-1.27444e-06,-7.84312e-06,4.83886e-06,-2.85431e-06,0
-3.29835e-05,2.39211e-05,-1.14783e-05,-1.32528e-05,1.41686e-07,-7.3816e-06,4.53862e-06,-1.66714e-06,0
-3.3628e-05,2.24347e-05,-1.27565e-05,-1.21329e-05,1.34924e-06,-7.31968e-06,6.57209e-06,-1.38896e-06,0
-3.33699e-05,2.19915e-05,-1.07934e-05,-9.70282e-06,1.034e-06,-7.64528e-06,9.15866e-06,-2.6111e-06,0
-3.32313e-05,2.2979e-05,-8.39232e-06,-8.28165e-06,1.588e-06,-7.32895e-06,9.9207e-06,-4.06605e-06,0
-3.24912e-05,2.46769e-05,-8.3166e-06,-9.85784e-06,3.42147e-06,-6.31909e-06,8.6468e-06,-5.66617e-06,0
-3.04681e-05,2.70978e-05,-1.0217e-05,-1.10659e-05,4.83252e-06,-5.52614e-06,7.34378e-06,-6.65481e-06,0
-2.92931e-05,2.99153e-05,-1.20241e-05,-9.32413e-06,6.16092e-06,-5.50715e-06,7.9763e-06,-5.85413e-06,0
-3.04466e-05,3.16143e-05,-1.25577e-05,-7.16297e-06,9.20788e-06,-7.32032e-06,1.04885e-05,-3.69483e-06,0
-3.32444e-05,3.15992e-05,-1.20659e-05,-5.72854e-06,1.28972e-05,-9.82438e-06,1.34182e-05,-2.14575e-06,0
-3.52902e-05,3.06463e-05,-1.17851e-05,-3.73615e-06,1.5526e-05,-1.10966e-05,1.53922e-05,-2.17232e-07,0
-3.5201e-05,3.01288e-05,-1.25316e-05,-1.68717e-06,1.64416e-05,-1.17397e-05,1.60214e-05,2.18487e-06,0
-3.38814e-05,2.94426e-05,-1.3493e-05,-1.1517e-06,1.72872e-05,-1.17736e-05,1.63584e-05,4.06077e-06,0
-3.27479e-05,2.68105e-05,-1.40419e-05,-3.23339e-06,1.8391e-05,-1.04207e-05,1.70771e-05,6.40758e-06,0
-3.19385e-05,2.38745e-05,-1.46236e-05,-5.54919e-06,1.8642e-05,-9.25037e-06,1.65572e-05,9.40275e-06,0
-3.11401e-05,2.29828e-05,-1.56476e-05,-7.57066e-06,1.78714e-05,-8.43403e-06,1.54982e-05,1.11569e-05,0
-3.11882e-05,2.31979e-05,-1.56342e-05,-1.06314e-05,1.56724e-05,-8.11825e-06,1.48603e-05,1.08033e-05,0
-3.15226e-05,2.21591e-05,-1.48253e-05,-1.09083e-05,1.32296e-05,-8.74371e-06,1.47768e-05,8.22697e-06,0
-3.1158e-05,2.06314e-05,-1.37458e-05,-7.04716e-06,1.24707e-05,-8.24733e-06,1.55482e-05,4.64469e-06,0
-3.15624e-05,2.08012e-05,-1.28821e-05,-4.51092e-06,1.19417e-05,-8.0495e-06,1.58123e-05,2.05826e-06,0
-3.13053e-05,2.331e-05,-1.18601e-05,-5.63578e-06,1.1889e-05,-9.30019e-06,1.45176e-05,1.94671e-06,0
-3.00631e-05,2.51407e-05,-7.94253e-06,-7.2563e-06,9.57942e-06,-1.10894e-05,1.11737e-05,3.29156e-06,0
-2.98073e-05,2.6165e-05,-4.63711e-06,-7.68427e-06,6.30116e-06,-1.10681e-05,8.57992e-06,3.74946e-06,0
-2.89337e-05,2.8284e-05,-3.98975e-06,-7.85044e-06,7.01487e-06,-9.58385e-06,9.97926e-06,4.15236e-06,0
-2.78045e-05,2.92684e-05,-4.39371e-06,-7.43311e-06,1.06783e-05,-7.62809e-06,1.221e-05,4.19886e-06,0
-2.78174e-05,2.80211e-05,-6.71441e-06,-6.03208e-06,1.42532e-05,-7.1189e-06,1.23783e-05,5.08085e-06,0
-2.85272e-05,2.75194e-05,-9.61992e-06,-4.59692e-06,1.34532e-05,-9.24316e-06,1.24246e-05,5.87683e-06,0
