ch1,ch2,ch3,ch4,ch5,ch6,ch7,ch8,class
-3.38828e-05,1.70607e-05,-1.27623e-05,4.04355e-08,1.40983e-05,-5.14783e-06,1.80827e-05,3.98051e-07,0
-3.38807e-05,1.45049e-05,-1.42598e-05,1.60522e-05,9.63281e-06,-5.87118e-06,1.89476e-05,1.21508e-06,0
-3.22933e-05,1.24128e-05,-1.19084e-05,2.562e-05,6.50969e-06,-6.45372e-06,1.76855e-05,1.98066e-07,0
-3.1359e-05,1.29547e-05,-8.76583e-06,2.04398e-05,7.77454e-06,-6.62672e-06,1.42799e-05,-1.11503e-06,0
-3.13512e-05,1.50809e-05,-7.15179e-06,4.83469e-06,1.01985e-05,-6.2648e-06,1.10198e-05,-2.59738e-06,0
-3.00362e-05,1.79973e-05,-6.60807e-06,-9.94065e-06,9.57976e-06,-5.69586e-06,9.69182e-06,-4.61125e-06,0
-2.81261e-05,1.9739e-05,-6.23237e-06,-1.86826e-05,7.53529e-06,-5.69129e-06,9.91346e-06,-5.24624e-06,0
-2.74262e-05,2.02077e-05,-6.94865e-06,-2.44187e-05,7.37823e-06,-7.39673e-06,1.05249e-05,-1.98304e-06,0
-2.85681e-05,2.1211e-05,-8.84483e-06,-2.87111e-05,9.55845e-06,-8.44961e-06,1.02619e-05,1.39278e-06,0
-2.99986e-05,2.14703e-05,-1.11079e-05,-2.96803e-05,1.16867e-05,-7.92328e-06,9.94998e-06,1.915e-06,0
-3.14194e-05,2.20814e-05,-1.15094e-05,-2.83966e-05,1.12096e-05,-6.37751e-06,1.04614e-05,1.94275e-06,0
-3.12601e-05,2.41628e-05,-9.67317e-06,-3.30923e-05,9.16869e-06,-5.79566e-06,1.0938e-05,1.63576e-06,0
-3.04876e-05,2.36874e-05,-8.4216e-06,-4.65174e-05,7.78992e-06,-6.20671e-06,1.02321e-05,1.57646e-06,0
-3.04895e-05,2.11887e-05,-7.23715e-06,-5.60576e-05,7.42339e-06,-6.70275e-06,8.70463e-06,3.30431e-07,0
-2.89704e-05,1.89878e-05,-7.09825e-06,-5.43399e-05,8.62183e-06,-7.46636e-06,6.2011e-06,-2.71091e-06,0
-2.76875e-05,1.79576e-05,-7.30146e-06,-4.58097e-05,9.09341e-06,-6.96445e-06,4.38721e-06,-4.25253e-06,0
-2.85469e-05,1.86942e-05,-6.36573e-06,-4.14269e-05,7.56131e-06,-6.63912e-06,5.57431e-06,-3.28277e-06,0
-3.00065e-05,2.0074e-05,-7.27792e-06,-4.60939e-05,4.19146e-06,-8.36353e-06,8.47887e-06,-7.83192e-07,0
-2.99827e-05,2.09291e-05,-9.54923e-06,-5.25287e-05,1.64395e-06,-1.02912e-05,1.11222e-05,2.16723e-06,0
-3.02387e-05,1.94089e-05,-1.07234e-05,-5.21133e-05,2.96246e-06,-1.00431e-05,1.25324e-05,3.39648e-06,0
-3.11677e-05,1.61747e-05,-1.04712e-05,-4.51974e-05,5.39091e-06,-9.53173e-06,1.23972e-05,3.64808e-06,0
-3.05726e-05,1.38759e-05,-8.98315e-06,-3.75298e-05,5.86753e-06,-9.24832e-06,1.13495e-05,3.13558e-06,0
-2.96259e-05,1.28431e-05,-8.2198e-06,-3.15811e-05,5.27342e-06,-9.10611e-06,1.04371e-05,2.14235e-06,0
-2.892e-05,1.18959e-05,-8.46454e-06,-2.37734e-05,5.35455e-06,-9.80653e-06,1.00348e-05,9.82922e-08,0
-2.75834e-05,9.81568e-06,-8.21467e-06,-9.40345e-06,7.03741e-06,-1.0223e-05,9.9671e-06,-1.46804e-06,0
-2.68098e-05,7.22254e-06,-6.99728e-06,9.24462e-06,1.05837e-05,-1.01149e-05,9.43982e-06,-7.61104e-07,0
-2.7819e-05,6.58e-06,-5.9819e-06,2.51098e-05,1.42647e-05,-1.02746e-05,9.47377e-06,1.58092e-06,0
-2.84482e-05,8.40033e-06,-6.3316e-06,3.35452e-05,1.81932e-05,-1.04723e-05,1.00512e-05,3.42921e-06,0
-2.64564e-05,1.09986e-05,-7.23815e-06,3.7031e-05,2.49827e-05,-9.38229e-06,1.0595e-05,3.8012e-06,0
-2.37118e-05,1.34113e-05,-7.51125e-06,3.92302e-05,3.34326e-05,-7.77476e-06,1.14626e-05,3.73714e-06,0
-2.27885e-05,1.46438e-05,-7.11889e-06,3.84751e-05,3.76302e-05,-6.34481e-06,1.2655e-05,3.1828e-06,0
-2.41215e-05,1.49086e-05,-6.74954e-06,3.18101e-05,3.69388e-05,-5.5017e-06,1.28583e-05,3.20073e-06,0
-2.65712e-05,1.46907e-05,-6.24063e-06,2.05488e-05,3.44633e-05,-6.52275e-06,1.07861e-05,3.17458e-06,0
-2.85358e-05,1.42136e-05,-7.1556e-06,8.9868e-06,3.15861e-05,-7.15806e-06,7.54242e-06,3.10354e-06,0
-2.91023e-05,1.36809e-05,-9.92758e-06,1.5813e-06,2.74478e-05,-6.57707e-06,4.91343e-06,2.44393e-06,0
-2.85287e-05,1.37276e-05,-1.41526e-05,-3.0517e-06,2.02131e-05,-6.49486e-06,4.07063e-06,1.32836e-06,0
-2.8752e-05,1.26929e-05,-1.66089e-05,-5.99386e-06,1.42348e-05,-7.66105e-06,4.55882e-06,8.18306e-08,0
-2.97078e-05,1.01226e-05,-1.55853e-05,-4.89591e-06,1.42783e-05,-7.77326e-06,6.00164e-06,-5.131e-07,0
-2.97145e-05,9.99701e-06,-1.40929e-05,-1.50772e-06,1.66416e-05,-6.28684e-06,7.4702e-06,5.97332e-07,0
-3.02277e-05,1.17484e-05,-1.40682e-05,-1.13962e-07,1.72965e-05,-6.27514e-06,8.14928e-06,1.42687e-06,0
-3.2254e-05,1.32601e-05,-1.70667e-05,-2.77891e-06,1.61249e-05,-6.71196e-06,8.89125e-06,3.76196e-07,0
-3.36669e-05,1.37394e-05,-1.89717e-05,-7.76435e-06,1.3788e-05,-7.29599e-06,9.75025e-06,-2.84086e-07,0
-3.20606e-05,1.51166e-05,-1.76709e-05,-1.02668e-05,1.24123e-05,-8.13441e-06,1.1563e-05,6.14745e-07,0
-3.06294e-05,1.6814e-05,-1.63341e-05,-8.07264e-06,1.27171e-05,-9.98149e-06,1.40215e-05,2.12149e-06,0
-3.09577e-05,1.56673e-05,-1.50308e-05,-3.43994e-06,1.4244e-05,-1.16925e-05,1.50685e-05,2.46104e-06,0
-3.1017e-05,1.40581e-05,-1.22231e-05,2.30217e-06,1.77866e-05,-9.8986e-06,1.48845e-05,1.27873e-06,0
-3.07916e-05,1.23841e-05,-8.14215e-06,8.09967e-06,2.24513e-05,-6.88969e-06,1.37833e-05,3.31754e-07,0
-3.04109e-05,1.11867e-05,-6.12192e-06,1.06305e-05,2.40653e-05,-5.62794e-06,1.31378e-05,1.75702e-07,0
-3.1442e-05,1.03728e-05,-6.58954e-06,8.41449e-06,2.21944e-05,-6.12207e-06,1.22535e-05,1.02979e-06,0
-3.33152e-05,1.05576e-05,-7.54959e-06,2.79035e-06,1.96903e-05,-6.17218e-06,9.97539e-06,3.41778e-06,0
-3.46963e-05,1.1929e-05,-8.04831e-06,-6.02788e-06,1.65901e-05,-6.98643e-06,8.57397e-06,5.59014e-06,0
-3.56762e-05,1.38289e-05,-9.06431e-06,-1.53202e-05,1.29243e-05,-8.95229e-06,9.11302e-06,5.05305e-06,0
-3.61741e-05,1.54952e-05,-1.06218e-05,-1.81341e-05,1.08055e-05,-1.0627e-05,1.04929e-05,2.4645e-06,0
-3.5985e-05,1.57234e-05,-1.08643e-05,-6.08823e-06,1.16998e-05,-1.11098e-05,1.17419e-05,1.85294e-08,0
-3.55243e-05,1.49494e-05,-9.40199e-06,1.70554e-05,1.26771e-05,-1.13192e-05,1.20252e-05,-1.67146e-06,0
-3.52711e-05,1.4913e-05,-6.93101e-06,3.33212e-05,1.1796e-05,-1.26247e-05,1.11057e-05,-3.22903e-06,0
-3.59296e-05,1.59485e-05,-5.09719e-06,3.22154e-05,1.07335e-05,-1.47519e-05,1.05657e-05,-4.22517e-06,0
-3.68334e-05,1.58157e-05,-4.923e-06,2.32378e-05,1.07446e-05,-1.65746e-05,1.05807e-05,-4.47934e-06,0
-3.59858e-05,1.60999e-05,-6.71466e-06,2.15318e-05,1.02503e-05,-1.61857e-05,1.03578e-05,-3.91729e-06,0
-3.40404e-05,1.86933e-05,-9.10049e-06,3.03301e-05,8.31182e-06,-1.40858e-05,9.97335e-06,-2.86215e-06,0
-3.1872e-05,2.20422e-05,-9.83838e-06,4.0532e-05,6.88022e-06,-1.141e-05,1.13821e-05,-2.25287e-06,0
-3.06443e-05,2.1196e-05,-1.05168e-05,4.10808e-05,7.77696e-06,-1.04889e-05,1.39142e-05,-2.79296e-06,0
-3.23431e-05,1.58974e-05,-1.19536e-05,2.86765e-05,9.11648e-06,-1.19701e-05,1.4833e-05,-2.88933e-06,0
-3.48401e-05,9.2277e-06,-1.23897e-05,5.9235e-06,7.79795e-06,-1.24007e-05,1.55533e-05,-2.67772e-06,0
-3.40825e-05,5.04746e-06,-1.28868e-05,-1.9961e-05,7.65006e-06,-1.0946e-05,1.65526e-05,-2.84235e-06,0
-3.12764e-05,3.90453e-06,-1.40545e-05,-4.70875e-05,1.16353e-05,-1.03283e-05,1.76236e-05,-3.4075e-06,0
-3.11301e-05,5.13766e-06,-1.49573e-05,-7.00504e-05,1.38005e-05,-9.64742e-06,1.54284e-05,-4.41002e-06,0
-3.28492e-05,8.96558e-06,-1.41492e-05,-7.94727e-05,1.21263e-05,-9.26672e-06,7.73296e-06,-4.08621e-06,0
-3.31189e-05,1.16247e-05,-1.18775e-05,-7.27689e-05,1.13745e-05,-8.02087e-06,1.28072e-07,-2.51603e-06,0
-3.06956e-05,1.19184e-05,-8.71413e-06,-5.20617e-05,1.16932e-05,-5.4928e-06,-2.15945e-06,-8.13779e-07,0
-2.78518e-05,1.1577e-05,-8.37542e-06,-3.16879e-05,1.39914e-05,-4.42932e-06,1.19901e-06,9.99633e-07,0
-2.6962e-05,1.16996e-05,-1.15797e-05,-2.08158e-05,1.55825e-05,-5.99134e-06,6.4765e-06,2.01274e-06,0
-2.6825e-05,1.21769e-05,-1.30533e-05,-1.73318e-05,1.32512e-05,-9.17545e-06,1.10635e-05,1.96523e-06,0
-2.83387e-05,1.28133e-05,-1.10236e-05,-1.3888e-05,1.01638e-05,-1.00075e-05,1.42209e-05,2.12851e-06,0
-2.95451e-05,1.58662e-05,-7.7865e-06,-8.68514e-06,8.91685e-06,-8.19181e-06,1.6895e-05,2.74097e-06,0
-2.88084e-05,2.37794e-05,-6.37389e-06,-4.55842e-06,1.02305e-05,-6.34054e-06,1.89433e-05,2.68493e-06,0
-2.73799e-05,3.25984e-05,-6.68586e-06,-1.54409e-06,1.29754e-05,-4.5451e-06,1.91655e-05,2.80982e-06,0
-2.63621e-05,3.51551e-05,-7.46735e-06,9.00014e-07,1.4935e-05,-3.96485e-06,1.82245e-05,4.0751e-06,0
-2.64653e-05,3.13886e-05,-7.9169e-06,4.55751e-06,1.43991e-05,-5.54132e-06,1.90189e-05,5.26549e-06,0
-2.83683e-05,2.56685e-05,-8.62575e-06,7.30656e-06,1.26491e-05,-7.62558e-06,2.04609e-05,5.88502e-06,0
-3.18945e-05,2.10433e-05,-9.68963e-06,5.31478e-06,1.12171e-05,-1.01029e-05,2.00586e-05,5.86755e-06,0
-3.4695e-05,1.80061e-05,-1.09913e-05,-1.65071e-06,1.01673e-05,-1.3135e-05,1.90142e-05,6.04615e-06,0
-3.52605e-05,1.62152e-05,-1.17757e-05,-8.03126e-06,9.06383e-06,-1.60358e-05,1.80484e-05,6.7057e-06,0
-3.36345e-05,1.40123e-05,-1.14053e-05,-1.16861e-05,8.11765e-06,-1.81968e-05,1.7281e-05,7.6829e-06,0
-3.12124e-05,7.87125e-06,-1.07251e-05,-1.56372e-05,6.10567e-06,-1.89025e-05,1.63083e-05,8.38155e-06,0
-2.96762e-05,4.88782e-07,-1.01417e-05,-2.19453e-05,2.9549e-06,-1.70227e-05,1.54172e-05,8.6631e-06,0
-2.9109e-05,-2.29544e-06,-8.25296e-06,-2.768e-05,1.43513e-06,-1.39374e-05,1.56699e-05,7.88297e-06,0
-2.89351e-05,8.36217e-07,-5.42336e-06,-3.05931e-05,3.8273e-06,-1.19728e-05,1.70173e-05,6.53564e-06,0
-2.96112e-05,6.93271e-06,-2.78546e-06,-2.97358e-05,9.35328e-06,-1.18695e-05,1.63615e-05,6.895e-06,0
-2.94091e-05,1.16531e-05,-3.50607e-07,-2.69526e-05,1.44463e-05,-1.19279e-05,1.50733e-05,7.96907e-06,0
-2.8701e-05,1.17206e-05,1.06294e-06,-2.68387e-05,1.6063e-05,-1.15661e-05,1.49044e-05,7.80901e-06,0
-2.84076e-05,9.98099e-06,1.11668e-06,-2.7911e-05,1.31774e-05,-1.11489e-05,1.39259e-05,7.50035e-06,0
-2.80576e-05,8.4711e-06,-1.73368e-07,-2.53735e-05,8.15654e-06,-9.65263e-06,1.18546e-05,1.00555e-05,0
-2.72219e-05,6.97633e-06,-3.49454e-06,-1.58526e-05,5.65174e-06,-7.22442e-06,1.00474e-05,1.13846e-05,0
-2.68996e-05,6.97701e-06,-7.90637e-06,-2.41962e-06,8.06324e-06,-7.32766e-06,1.03515e-05,8.54423e-06,0
-2.6394e-05,6.61321e-06,-9.74466e-06,7.21198e-06,1.41716e-05,-9.91898e-06,1.16776e-05,5.81035e-06,0
-2.53616e-05,5.21394e-06,-8.24961e-06,1.25041e-05,1.99958e-05,-8.99286e-06,1.2312e-05,4.6892e-06,0
-2.69831e-05,3.25174e-06,-6.78629e-06,1.36864e-05,2.24286e-05,-4.81019e-06,1.25459e-05,5.10367e-06,0
-2.80552e-05,1.26604e-07,-7.33201e-06,9.84177e-06,2.16518e-05,-2.49871e-06,1.23802e-05,4.35374e-06,0
-2.73277e-05,-4.28374e-06,-6.5437e-06,3.05268e-06,1.93479e-05,-3.23466e-06,1.24267e-05,1.72318e-06,0
-2.73276e-05,-6.9995e-06,-3.83633e-06,-4.56011e-06,1.6362e-05,-4.12468e-06,1.24399e-05,-1.04749e-06,0
-2.76293e-05,-4.9191e-06,-1.71005e-07,-1.17922e-05,1.40212e-05,-3.97583e-06,1.15649e-05,-2.33897e-06,0
-2.76089e-05,-1.05485e-06,5.66077e-06,-1.84687e-05,1.36073e-05,-3.01512e-06,1.0298e-05,-3.00195e-06,0
-2.79261e-05,2.01387e-06,1.54826e-05,-2.28692e-05,1.43437e-05,-9.16634e-07,9.21143e-06,-3.58437e-06,0
-2.83833e-05,4.10591e-06,3.07377e-05,-2.32483e-05,1.4403e-05,9.39513e-07,9.5935e-06,-2.86378e-06,0
-2.83532e-05,6.46822e-06,4.99106e-05,-1.79425e-05,1.29953e-05,1.39545e-06,1.08936e-05,-1.66259e-06,0
-2.8311e-05,9.12547e-06,6.68555e-05,-9.03286e-06,1.13315e-05,8.22054e-07,1.11793e-05,-2.86607e-07,0
-2.76487e-05,1.07106e-05,7.19863e-05,1.96174e-06,1.04422e-05,2.58122e-07,1.0243e-05,-1.59907e-07,0
-2.6022e-05,1.09363e-05,5.89074e-05,1.52235e-05,1.01517e-05,-3.03942e-07,9.13018e-06,-2.17875e-06,0
-2.45675e-05,1.05738e-05,2.9205e-05,2.81138e-05,9.74574e-06,-8.27509e-07,7.52648e-06,-5.16484e-06,0
-2.47729e-05,1.13081e-05,-9.8265e-06,3.56242e-05,9.3456e-06,-1.5016e-06,5.12816e-06,-6.52629e-06,0
-2.5961e-05,1.48346e-05,-5.08324e-05,3.77258e-05,9.09815e-06,-2.61338e-06,3.29172e-06,-5.44851e-06,0
-2.71903e-05,2.15226e-05,-8.45753e-05,3.84271e-05,9.11594e-06,-3.1118e-06,3.81305e-06,-3.12086e-06,0
-2.81794e-05,2.72562e-05,-0.000101078,3.70184e-05,8.87725e-06,-2.71218e-06,8.28662e-06,-6.61002e-07,0
-2.84637e-05,2.92656e-05,-9.71182e-05,2.98262e-05,9.33065e-06,-1.8729e-06,1.97409e-05,2.32809e-06,0
-2.88723e-05,2.74368e-05,-8.03611e-05,1.93083e-05,1.06941e-05,-1.57243e-06,3.89104e-05,3.12282e-06,0
-2.95427e-05,2.47544e-05,-6.32461e-05,9.76021e-06,1.20461e-05,-2.10393e-06,5.65339e-05,1.25434e-06,0
-2.99033e-05,2.18754e-05,-5.0747e-05,3.00016e-06,1.17415e-05,-2.22646e-06,6.42874e-05,-8.993e-07,0
-3.05994e-05,1.61236e-05,-3.91708e-05,-2.47078e-07,8.62979e-06,-1.84793e-06,6.01355e-05,-3.18012e-06,0
-3.14952e-05,8.59754e-06,-2.77755e-05,-2.75937e-06,6.93951e-06,-2.11791e-06,4.318e-05,-5.00375e-06,0
-3.09458e-05,1.23265e-06,-1.81807e-05,-4.41808e-06,1.02945e-05,-3.02358e-06,2.20117e-05,-4.70534e-06,0
-2.95524e-05,-2.75361e-10,-1.01148e-05,-5.83413e-06,1.37118e-05,-5.05644e-06,1.70587e-06,-3.11218e-06,0
-2.93248e-05,4.78631e-06,-3.48041e-06,-1.13696e-05,1.29332e-05,-5.75506e-06,-1.95247e-05,-3.16091e-06,0
-2.97645e-05,9.41942e-06,2.34006e-06,-2.05879e-05,1.29202e-05,-4.20497e-06,-3.80231e-05,-3.54977e-06,0
-3.03374e-05,1.04816e-05,5.86311e-06,-2.70486e-05,1.36589e-05,-3.71297e-06,-4.74492e-05,-4.0606e-06,0
-3.04907e-05,8.66909e-06,5.59713e-06,-2.65298e-05,1.1891e-05,-5.73099e-06,-4.3122e-05,-3.79528e-06,0
-3.05314e-05,9.9857e-06,3.92152e-06,-1.79752e-05,9.86252e-06,-1.00353e-05,-3.16737e-05,-2.84149e-06,0
-3.08741e-05,1.45969e-05,2.1636e-06,-7.02807e-06,9.67958e-06,-1.25599e-05,-2.06885e-05,-1.65525e-06,0
-3.04812e-05,1.93042e-05,5.5762e-07,-9.81123e-07,1.10478e-05,-1.27786e-05,-1.25548e-05,7.75011e-08,0
-3.06463e-05,2.1786e-05,-5.33553e-07,7.93393e-07,1.21936e-05,-1.31413e-05,-6.14214e-06,2.04461e-06,0
-3.17204e-05,2.32259e-05,-8.47839e-07,7.5344e-07,1.32441e-05,-1.31668e-05,1.29407e-08,5.0321e-06,0
-3.22424e-05,2.48619e-05,-2.17127e-07,1.11159e-06,1.41731e-05,-1.30872e-05,5.65659e-06,7.63809e-06,0
-3.22043e-05,2.64598e-05,1.0514e-06,2.05925e-06,1.44937e-05,-1.36027e-05,1.119e-05,8.70864e-06,0
-3.19241e-05,2.73715e-05,1.39263e-06,1.62068e-06,1.47438e-05,-1.42328e-05,1.53644e-05,9.21418e-06,0
-3.08359e-05,2.68574e-05,2.13817e-08,-1.14748e-06,1.51039e-05,-1.48491e-05,1.86255e-05,9.90677e-06,0
-3.06634e-05,2.50833e-05,-1.45149e-06,-7.6264e-06,1.61065e-05,-1.54652e-05,2.29031e-05,9.8389e-06,0
-3.30633e-05,2.18684e-05,-3.19569e-06,-1.9528e-05,1.74603e-05,-1.5065e-05,2.82634e-05,8.21965e-06,0
-3.64026e-05,1.86018e-05,-6.10166e-06,-3.40153e-05,1.73505e-05,-1.46793e-05,3.065e-05,6.0383e-06,0
-3.74252e-05,1.67884e-05,-8.55749e-06,-4.5995e-05,1.55488e-05,-1.54408e-05,2.79982e-05,5.87273e-06,0
-3.52168e-05,1.59892e-05,-9.3315e-06,-5.95223e-05,1.36078e-05,-1.60436e-05,2.28988e-05,7.27107e-06,0
-3.25276e-05,1.43531e-05,-1.03255e-05,-7.72199e-05,1.17312e-05,-1.50004e-05,1.8642e-05,7.83388e-06,0
-3.20138e-05,1.26199e-05,-1.27505e-05,-8.8399e-05,1.03804e-05,-1.29843e-05,1.66233e-05,7.23193e-06,0
-3.26588e-05,1.16901e-05,-1.64299e-05,-8.37009e-05,1.05609e-05,-1.14839e-05,1.71004e-05,5.26497e-06,0
-3.30469e-05,1.03195e-05,-1.97506e-05,-6.20659e-05,1.15726e-05,-1.12861e-05,1.69243e-05,3.48081e-06,0
-3.39461e-05,8.42923e-06,-2.19057e-05,-3.05486e-05,1.32311e-05,-1.21645e-05,1.49264e-05,2.85501e-06,0
-3.52172e-05,7.76199e-06,-2.26555e-05,1.66426e-06,1.47744e-05,-1.26223e-05,1.41997e-05,1.66433e-06,0
-3.58457e-05,6.46266e-06,-2.12926e-05,3.56053e-05,1.46376e-05,-1.29729e-05,1.5138e-05,5.6289e-07,0
-3.463e-05,4.55618e-06,-1.75777e-05,6.71464e-05,1.39105e-05,-1.47652e-05,1.63084e-05,-3.30962e-07,0
-3.22495e-05,4.53236e-06,-1.25423e-05,9.29143e-05,1.49483e-05,-1.73337e-05,1.58842e-05,-2.00007e-06,0
-2.88312e-05,6.14204e-06,-8.77757e-06,0.000104528,1.80149e-05,-1.80844e-05,1.02317e-05,-3.10086e-06,0
-2.7786e-05,5.74103e-06,-7.67452e-06,9.24803e-05,2.08834e-05,-1.59827e-05,3.71873e-07,-3.4051e-06,0
-3.1125e-05,4.856e-06,-7.33849e-06,7.16211e-05,2.38221e-05,-1.57629e-05,-6.14152e-06,-4.23533e-06,0
-3.38899e-05,6.90726e-06,-5.15534e-06,5.15461e-05,2.46039e-05,-1.91699e-05,-4.56564e-06,-3.95265e-06,0
-3.29721e-05,9.51078e-06,-7.94737e-07,4.50559e-05,2.29764e-05,-2.11149e-05,3.80035e-06,-2.08409e-06,0
-3.10594e-05,1.25204e-05,2.42329e-06,5.34922e-05,2.16484e-05,-1.87645e-05,1.27133e-05,3.27448e-07,0
-3.04899e-05,1.46542e-05,2.43155e-06,5.76732e-05,1.95377e-05,-1.58663e-05,2.06414e-05,1.99017e-06,0
-2.98316e-05,1.5529e-05,-3.26405e-07,4.86645e-05,1.6264e-05,-1.62919e-05,2.83283e-05,1.94594e-06,0
-2.92936e-05,1.58786e-05,-2.84794e-06,3.25598e-05,1.36456e-05,-1.80065e-05,3.35328e-05,2.12845e-06,0
-2.97337e-05,1.65358e-05,-1.75915e-06,1.72805e-05,1.37141e-05,-1.79265e-05,3.5593e-05,2.40493e-06,0
-3.0667e-05,1.81559e-05,7.03661e-07,4.68815e-06,1.52853e-05,-1.56853e-05,3.48855e-05,2.10517e-06,0
-3.10434e-05,2.00528e-05,8.44386e-07,-5.15012e-06,1.61533e-05,-1.43938e-05,3.27191e-05,9.25567e-07,0
-3.04505e-05,2.11801e-05,-2.15628e-06,-1.64341e-05,1.47363e-05,-1.4381e-05,2.99991e-05,-6.42615e-07,0
-2.88204e-05,2.02265e-05,-4.46537e-06,-2.85101e-05,1.10382e-05,-1.44771e-05,2.7104e-05,-2.57345e-06,0
-2.75173e-05,1.72595e-05,-4.58964e-06,-3.81241e-05,6.99555e-06,-1.39999e-05,2.45933e-05,-4.53309e-06,0
-2.75659e-05,1.29385e-05,-3.45048e-06,-4.27394e-05,4.95015e-06,-1.29209e-05,2.26751e-05,-5.05162e-06,0
-2.83542e-05,9.68405e-06,-1.86036e-06,-4.49935e-05,3.97195e-06,-1.1598e-05,1.96843e-05,-3.08469e-06,0
-2.92888e-05,8.44864e-06,-6.91955e-07,-4.54486e-05,2.86145e-06,-1.04505e-05,1.46724e-05,3.2693e-07,0
-3.03028e-05,8.1742e-06,-1.43253e-06,-4.21465e-05,1.85948e-06,-1.07917e-05,9.88136e-06,2.18836e-06,0
-3.02901e-05,9.14879e-06,-4.47649e-06,-3.43055e-05,6.18372e-07,-1.06464e-05,7.20283e-06,1.29747e-06,0
-2.85189e-05,9.76525e-06,-8.97548e-06,-2.6526e-05,-8.89904e-07,-8.42009e-06,7.6486e-06,5.6576e-07,0
-2.78967e-05,8.07022e-06,-1.51127e-05,-2.26108e-05,-3.11214e-07,-5.64251e-06,8.10407e-06,1.75835e-06,0
-2.93102e-05,4.71019e-06,-2.12506e-05,-2.19842e-05,2.76286e-06,-4.21846e-06,6.57831e-06,2.04354e-06,0
-3.06196e-05,1.11394e-06,-2.34719e-05,-2.30397e-05,5.46184e-06,-4.17271e-06,5.76754e-06,1.54322e-06,0
-3.01089e-05,2.02464e-07,-1.96642e-05,-2.3235e-05,8.0895e-06,-3.26322e-06,6.07502e-06,6.64551e-07,0
-2.95634e-05,1.62961e-06,-1.40656e-05,-2.23527e-05,1.03489e-05,-1.11314e-06,8.5487e-06,-1.4682e-06,0
-3.15972e-05,2.72277e-06,-9.44158e-06,-1.80798e-05,1.25746e-05,8.18732e-07,1.14049e-05,-3.07672e-06,0
-3.25083e-05,2.64465e-06,-6.51288e-06,-1.34212e-05,1.42948e-05,2.65123e-06,1.15836e-05,-1.96916e-06,0
-3.08668e-05,2.33441e-06,-7.1472e-06,-1.17197e-05,1.35895e-05,2.65048e-06,9.68897e-06,7.70473e-07,0
-3.02875e-05,2.2761e-06,-1.03634e-05,-1.18371e-05,1.27185e-05,7.6097e-07,7.45387e-06,4.11236e-06,0
-3.09828e-05,1.49975e-06,-1.37281e-05,-1.10735e-05,1.3885e-05,-2.67557e-06,7.1427e-06,6.57411e-06,0
-3.13321e-05,4.26069e-07,-1.38431e-05,-4.79701e-06,1.62522e-05,-7.49272e-06,9.18674e-06,6.72479e-06,0
-3.17702e-05,-2.33113e-07,-1.30323e-05,6.82042e-06,1.65045e-05,-1.17485e-05,1.18946e-05,6.24158e-06,0
-3.17336e-05,5.89789e-07,-1.30113e-05,1.51944e-05,1.51106e-05,-1.47282e-05,1.3875e-05,6.30486e-06,0
-3.06415e-05,2.59979e-06,-1.24028e-05,1.58111e-05,1.49814e-05,-1.59504e-05,1.44644e-05,5.88343e-06,0
-3.07871e-05,3.46708e-06,-1.23164e-05,1.15297e-05,1.56684e-05,-1.55667e-05,1.39081e-05,4.66659e-06,0
-3.1942e-05,1.50093e-06,-1.24316e-05,7.10687e-06,1.59811e-05,-1.37599e-05,1.34624e-05,4.3708e-06,0
-3.24636e-05,-1.62608e-06,-1.26512e-05,4.09339e-06,1.52674e-05,-1.18908e-05,1.31046e-05,4.80165e-06,0
-3.25606e-05,-3.43004e-06,-1.12821e-05,1.60401e-06,1.40347e-05,-1.02037e-05,1.25426e-05,5.39922e-06,0
-3.23233e-05,-4.28883e-06,-8.55504e-06,-1.419e-07,1.26253e-05,-8.78505e-06,1.18124e-05,5.76143e-06,0
-3.15779e-05,-4.76578e-06,-6.59661e-06,-2.24274e-06,1.23379e-05,-8.23988e-06,1.17442e-05,5.47946e-06,0
-3.07663e-05,-3.37408e-06,-6.70041e-06,-6.38437e-06,1.38773e-05,-9.01743e-06,1.24211e-05,4.36181e-06,0
-3.05655e-05,-5.41791e-07,-6.7659e-06,-1.18305e-05,1.48358e-05,-1.13537e-05,1.37917e-05,3.15367e-06,0
-3.0879e-05,1.0864e-06,-5.16919e-06,-1.79569e-05,1.26468e-05,-1.34125e-05,1.54538e-05,2.3202e-06,0
-3.0067e-05,2.39474e-06,-3.25637e-06,-2.45894e-05,8.18813e-06,-1.43346e-05,1.58825e-05,9.91343e-07,0
-2.80608e-05,5.45906e-06,-1.78505e-06,-2.91884e-05,6.05478e-06,-1.38262e-05,1.55518e-05,-1.33996e-06,0
-2.78792e-05,9.35926e-06,-1.13406e-06,-2.90203e-05,9.93711e-06,-1.33227e-05,1.60731e-05,-3.0735e-06,0
-2.89193e-05,1.10312e-05,-1.89254e-06,-2.51118e-05,1.54832e-05,-1.41831e-05,1.7267e-05,-1.67419e-06,0
-2.82546e-05,9.30487e-06,-4.19811e-06,-2.2305e-05,1.70903e-05,-1.52424e-05,1.80091e-05,1.34679e-06,0
-2.74359e-05,7.33862e-06,-5.45761e-06,-2.2108e-05,1.62287e-05,-1.6101e-05,1.8514e-05,2.72009e-06,0
-2.81933e-05,7.56747e-06,-3.82417e-06,-2.51629e-05,1.4237e-05,-1.65761e-05,1.82751e-05,2.51045e-06,0
-2.95967e-05,1.00293e-05,-3.00474e-06,-3.04762e-05,1.15004e-05,-1.71919e-05,1.73307e-05,3.06802e-06,0
-2.94086e-05,1.38701e-05,-4.26028e-06,-3.21701e-05,1.03802e-05,-1.71072e-05,1.65905e-05,2.76189e-06,0
-2.79208e-05,1.77791e-05,-4.15168e-06,-2.79772e-05,1.00789e-05,-1.68388e-05,1.59926e-05,5.74899e-07,0
-2.73815e-05,2.01778e-05,-2.13207e-06,-1.93146e-05,1.02862e-05,-1.753e-05,1.55738e-05,-1.68931e-06,0
-2.71444e-05,2.15468e-05,3.41347e-07,-6.85822e-06,1.2009e-05,-1.78606e-05,1.55147e-05,-2.78532e-06,0
-2.64208e-05,2.37896e-05,7.75607e-09,4.44051e-06,1.38233e-05,-1.69861e-05,1.61001e-05,-3.2578e-06,0
-2.56148e-05,2.46238e-05,-1.51984e-06,1.0298e-05,1.46585e-05,-1.5342e-05,1.56736e-05,-3.29397e-06,0
-2.56183e-05,2.52211e-05,-1.40995e-06,1.04267e-05,1.41247e-05,-1.47373e-05,1.39545e-05,-3.12109e-06,0
-2.66716e-05,2.84107e-05,-1.35009e-06,6.04147e-06,1.45163e-05,-1.37217e-05,1.15877e-05,-3.35623e-06,0
-2.76744e-05,3.28651e-05,-1.44956e-06,-2.3159e-06,1.57197e-05,-1.19299e-05,9.65259e-06,-2.7496e-06,0
-2.77803e-05,3.57146e-05,-1.1419e-06,-1.23794e-05,1.71433e-05,-1.09765e-05,9.79707e-06,-2.11166e-06,0
-2.76734e-05,3.4487e-05,-1.42446e-06,-1.83902e-05,1.84939e-05,-1.09117e-05,1.03867e-05,-3.53155e-07,0
-2.75725e-05,3.14587e-05,-1.77301e-06,-1.70568e-05,1.9164e-05,-9.54873e-06,1.02866e-05,1.18018e-06,0
-2.69727e-05,3.00645e-05,-1.81711e-06,-9.95512e-06,1.97128e-05,-6.74502e-06,9.537e-06,6.80697e-07,0
-2.7089e-05,3.07271e-05,-2.07908e-06,-2.81209e-06,2.05986e-05,-5.18025e-06,8.75238e-06,7.49038e-08,0
-2.83984e-05,3.02129e-05,-2.42128e-06,-3.85805e-07,2.15195e-05,-5.426e-06,9.08343e-06,7.03767e-07,0
-2.94293e-05,2.77712e-05,-2.94331e-06,-2.17463e-06,2.07259e-05,-5.97516e-06,1.1702e-05,2.02143e-06,0
-2.85657e-05,2.55753e-05,-3.13936e-06,-5.10619e-06,1.89372e-05,-5.47992e-06,1.39655e-05,3.43994e-06,0
-2.76435e-05,2.53301e-05,-2.94029e-06,-8.67896e-06,1.76569e-05,-5.73752e-06,1.30784e-05,4.80816e-06,0
-2.92057e-05,2.6617e-05,-2.58041e-06,-1.16919e-05,1.7991e-05,-7.68398e-06,1.11639e-05,5.1863e-06,0
-3.13761e-05,2.74811e-05,-2.21279e-06,-1.31218e-05,1.79619e-05,-9.73865e-06,9.96101e-06,5.29035e-06,0
-3.17885e-05,2.68187e-05,-2.27822e-06,-1.3064e-05,1.57462e-05,-1.01816e-05,7.01424e-06,5.30884e-06,0
-3.0902e-05,2.48209e-05,-2.69779e-06,-1.09542e-05,1.33464e-05,-9.73912e-06,2.35572e-06,4.58257e-06,0
-2.96116e-05,2.2168e-05,-2.08655e-06,-6.9198e-06,1.14757e-05,-9.5844e-06,9.85964e-07,3.82169e-06,0
-2.79522e-05,1.96598e-05,-3.64052e-07,-4.06066e-06,1.01915e-05,-9.73016e-06,3.36915e-06,3.73728e-06,0
-2.72717e-05,1.74327e-05,8.58922e-07,-3.39461e-06,9.81701e-06,-9.89467e-06,7.30569e-06,2.1893e-06,0
-2.86156e-05,1.4792e-05,8.32616e-08,-1.54363e-06,9.82342e-06,-9.90973e-06,1.1025e-05,-1.10438e-06,0
-3.03049e-05,1.25316e-05,-1.05102e-06,3.35629e-06,1.14645e-05,-9.48819e-06,1.27989e-05,-3.47469e-06,0
-2.99174e-05,1.01921e-05,-1.76627e-06,8.25606e-06,1.36947e-05,-1.07759e-05,1.40714e-05,-2.51897e-06,0
-2.9313e-05,7.59817e-06,-3.18267e-06,1.23551e-05,1.53042e-05,-1.38311e-05,1.55212e-05,-6.90221e-07,0
-3.01742e-05,4.1524e-06,-4.98591e-06,1.66898e-05,1.63438e-05,-1.53738e-05,1.5746e-05,-1.1417e-07,0
-3.09036e-05,2.06725e-06,-6.66653e-06,2.07615e-05,1.65565e-05,-1.56484e-05,1.57595e-05,-5.43281e-07,0
-3.21856e-05,1.22647e-06,-8.42852e-06,2.75374e-05,1.5529e-05,-1.3802e-05,1.73733e-05,-1.40044e-06,0
-3.36054e-05,-3.53618e-07,-1.09221e-05,4.09497e-05,1.17958e-05,-1.16452e-05,1.9453e-05,-3.60322e-06,0
-3.36881e-05,-1.26397e-06,-1.32303e-05,5.61594e-05,7.38763e-06,-1.27102e-05,2.11197e-05,-7.2678e-06,0
-3.37516e-05,-1.25023e-06,-1.55504e-05,6.46849e-05,5.96836e-06,-1.44737e-05,2.07396e-05,-7.53483e-06,0
-3.38408e-05,-1.59648e-06,-1.7207e-05,6.66393e-05,7.67064e-06,-1.45569e-05,1.52905e-05,-5.8838e-06,0
-3.31075e-05,-1.23095e-06,-1.8081e-05,5.98086e-05,1.03858e-05,-1.35658e-05,6.2116e-06,-6.41807e-06,0
-3.2232e-05,1.48185e-06,-1.77164e-05,4.22641e-05,1.32726e-05,-1.30644e-05,-1.17857e-06,-8.89437e-06,0
-3.15074e-05,3.66393e-06,-1.77979e-05,1.93474e-05,1.48984e-05,-1.37345e-05,-3.84916e-06,-1.07755e-05,0
-3.14814e-05,4.48823e-06,-1.91332e-05,-3.5415e-07,1.51363e-05,-1.43973e-05,-3.16728e-06,-1.06964e-05,0
-3.21731e-05,4.41849e-06,-1.98525e-05,-1.64864e-05,1.40224e-05,-1.42111e-05,-1.1323e-06,-8.32151e-06,0
-3.19179e-05,4.46733e-06,-1.95631e-05,-3.05583e-05,1.10594e-05,-1.28313e-05,2.07703e-06,-5.06661e-06,0
-3.05358e-05,3.99269e-06,-1.80486e-05,-4.25016e-05,8.12558e-06,-1.097e-05,6.76269e-06,-2.69557e-06,0
-2.96275e-05,2.81887e-06,-1.52289e-05,-5.53212e-05,8.13854e-06,-9.27457e-06,1.21612e-05,-5.24635e-07,0
-3.02327e-05,2.54672e-06,-1.19998e-05,-6.78739e-05,1.04369e-05,-7.10103e-06,1.75596e-05,1.92941e-06,0
-3.10484e-05,5.42061e-06,-1.10032e-05,-7.37241e-05,1.34868e-05,-4.86472e-06,2.20178e-05,2.49185e-06,0
-3.08067e-05,1.02649e-05,-1.09561e-05,-6.85017e-05,1.75526e-05,-4.22281e-06,2.50573e-05,7.08032e-07,0
-2.96274e-05,1.1709e-05,-1.0132e-05,-5.60117e-05,2.04801e-05,-5.67102e-06,2.60208e-05,-1.09381e-06,0
-2.80202e-05,9.95111e-06,-9.65224e-06,-4.0274e-05,1.88677e-05,-7.5221e-06,2.54858e-05,-2.87025e-06,0
-2.8105e-05,7.58135e-06,-1.038e-05,-2.75549e-05,1.40774e-05,-9.44083e-06,2.3533e-05,-3.52116e-06,0
-2.97351e-05,6.10619e-06,-9.7062e-06,-2.1661e-05,1.11099e-05,-1.0528e-05,2.12849e-05,-1.34146e-06,0
-3.13427e-05,7.66318e-06,-8.83261e-06,-1.80795e-05,1.1552e-05,-9.46082e-06,2.04582e-05,1.04898e-06,0
-3.29131e-05,9.86395e-06,-8.9476e-06,-1.33927e-05,1.42846e-05,-8.30195e-06,2.09388e-05,8.963e-08,0
-3.45577e-05,9.93292e-06,-8.30773e-06,-7.35273e-06,1.97823e-05,-5.70651e-06,2.26793e-05,-2.41865e-07,0
-3.52891e-05,8.43316e-06,-7.63174e-06,-6.35271e-07,2.67305e-05,-4.13879e-06,2.4664e-05,1.11554e-06,0
-3.3555e-05,4.7848e-06,-9.032e-06,7.66206e-06,2.80529e-05,-5.20385e-06,2.54544e-05,6.75917e-07,0
-3.18597e-05,1.16316e-06,-1.24002e-05,1.91477e-05,2.26542e-05,-4.42044e-06,2.23263e-05,2.91175e-07,0
-3.17598e-05,-6.88599e-07,-1.45449e-05,2.50309e-05,1.77516e-05,-2.72155e-06,1.79141e-05,1.67044e-06,0
-3.16965e-05,-1.51718e-07,-1.45384e-05,1.8538e-05,1.74723e-05,-1.60643e-06,1.34816e-05,3.43585e-06,0
-3.09983e-05,3.56317e-06,-1.22613e-05,2.63157e-06,1.86467e-05,-2.18369e-06,9.87965e-06,3.25867e-06,0
-2.99433e-05,7.67872e-06,-9.26989e-06,-1.02251e-05,1.97702e-05,-2.57513e-06,8.4871e-06,1.8381e-06,0
-2.95382e-05,9.70105e-06,-7.58206e-06,-1.08019e-05,2.21352e-05,-2.27062e-06,6.89249e-06,2.00398e-06,0
-2.91636e-05,9.7279e-06,-7.58239e-06,-7.35179e-06,2.43133e-05,-2.76363e-06,6.03548e-06,2.76799e-06,0
-2.8955e-05,8.9121e-06,-8.86102e-06,-9.32451e-06,2.31288e-05,-4.13786e-06,5.58603e-06,1.52287e-06,0
-2.87077e-05,8.91988e-06,-1.11375e-05,-1.66865e-05,1.95108e-05,-4.84442e-06,4.6628e-06,-7.49813e-07,0
-2.88279e-05,9.50678e-06,-1.38207e-05,-2.44917e-05,1.76025e-05,-3.56875e-06,2.37677e-06,-2.98745e-06,0
-2.97863e-05,1.08536e-05,-1.47662e-05,-3.10193e-05,1.77527e-05,-2.70364e-06,5.6388e-07,-5.07227e-06,0
-3.06485e-05,1.25582e-05,-1.30069e-05,-3.46659e-05,1.80131e-05,-3.46769e-06,1.09897e-06,-5.1031e-06,0
-3.10283e-05,1.52022e-05,-1.03207e-05,-3.49242e-05,1.60975e-05,-4.89326e-06,3.8397e-06,-2.18651e-06,0
-3.14079e-05,1.92742e-05,-7.5085e-06,-3.2074e-05,1.36428e-05,-5.11401e-06,7.25244e-06,1.79521e-06,0
-3.14342e-05,2.14975e-05,-4.60885e-06,-2.43709e-05,1.23296e-05,-4.80606e-06,9.39609e-06,4.46777e-06,0
-2.979e-05,2.06682e-05,-3.17942e-06,-1.31817e-05,1.02355e-05,-5.85013e-06,9.962e-06,4.66493e-06,0
-2.78147e-05,2.04902e-05,-4.30815e-06,-4.2938e-06,5.81398e-06,-7.45212e-06,9.29315e-06,3.07934e-06,0
-2.69779e-05,2.26183e-05,-6.31686e-06,-1.57357e-06,1.65118e-06,-8.60764e-06,8.91691e-06,1.28815e-06,0
-2.67393e-05,2.52874e-05,-6.93063e-06,-5.53983e-06,-6.33709e-08,-1.04322e-05,1.04869e-05,3.05688e-07,0
-2.78812e-05,2.65077e-05,-5.81108e-06,-1.40539e-05,-4.23461e-07,-1.14574e-05,1.20482e-05,-4.81564e-07,0
-2.983e-05,2.57411e-05,-5.40376e-06,-2.14464e-05,-2.69769e-07,-1.17664e-05,9.46182e-06,-1.12829e-06,0
-3.06856e-05,2.50706e-05,-7.38887e-06,-2.28228e-05,-5.7967e-07,-1.34976e-05,3.83395e-06,-5.04363e-07,0
-3.03674e-05,2.59498e-05,-8.47679e-06,-1.84459e-05,-2.21439e-06,-1.63269e-05,-9.83419e-07,1.58515e-06,0
-2.93517e-05,2.90432e-05,-6.54271e-06,-1.29603e-05,-3.50683e-06,-1.70034e-05,-2.97385e-07,2.94647e-06,0
-2.96542e-05,3.12875e-05,-4.57652e-06,-9.27316e-06,-1.89648e-06,-1.59263e-05,4.37035e-06,1.96617e-06,0
-2.97638e-05,3.04101e-05,-5.41422e-06,-3.86292e-06,1.1637e-06,-1.55638e-05,8.03136e-06,9.52672e-07,0
-2.8644e-05,2.81638e-05,-6.78619e-06,8.88031e-06,4.47012e-06,-1.54927e-05,1.1215e-05,-7.26988e-07,0
-2.66719e-05,2.46119e-05,-6.38789e-06,2.55364e-05,8.18775e-06,-1.52011e-05,1.4892e-05,-1.39291e-06,0
-2.5441e-05,1.96037e-05,-5.20954e-06,3.8672e-05,1.36096e-05,-1.50412e-05,1.64867e-05,6.31169e-07,0
-2.69568e-05,1.70436e-05,-5.34683e-06,4.59608e-05,2.01763e-05,-1.58481e-05,1.65703e-05,2.0476e-06,0
-2.89136e-05,1.64123e-05,-6.79623e-06,4.63226e-05,2.23089e-05,-1.64442e-05,1.62328e-05,1.63427e-06,0
-2.87765e-05,1.6035e-05,-7.32982e-06,4.14452e-05,1.93797e-05,-1.67606e-05,1.56579e-05,3.56807e-07,0
-2.75186e-05,1.52019e-05,-7.4794e-06,2.97988e-05,1.33915e-05,-1.65589e-05,1.5658e-05,9.73036e-07,0
-2.61144e-05,1.25009e-05,-7.93145e-06,1.64959e-05,5.80823e-06,-1.66487e-05,1.59362e-05,2.93977e-06,0
-2.4501e-05,8.62102e-06,-8.32119e-06,1.00863e-05,-2.78646e-07,-1.64348e-05,1.59916e-05,4.39635e-06,0
-2.40986e-05,7.11627e-06,-8.63542e-06,1.06291e-05,-1.4779e-06,-1.52944e-05,1.49049e-05,5.68972e-06,0
-2.50073e-05,8.27503e-06,-8.21485e-06,1.648e-05,2.12574e-06,-1.39647e-05,1.3684e-05,7.46651e-06,0
-2.67139e-05,7.99868e-06,-6.39636e-06,2.65708e-05,7.42639e-06,-1.32952e-05,1.26254e-05,9.12385e-06,0
-2.87468e-05,6.99063e-06,-5.51614e-06,3.66215e-05,1.12143e-05,-1.22369e-05,1.27942e-05,1.00194e-05,0
-3.07945e-05,6.30955e-06,-7.14012e-06,3.79107e-05,1.1554e-05,-1.06558e-05,1.45277e-05,9.03106e-06,0
-3.19067e-05,7.21543e-06,-9.49629e-06,3.08542e-05,1.02271e-05,-9.9545e-06,1.63211e-05,5.55104e-06,0
-3.19318e-05,9.78092e-06,-1.11735e-05,2.20723e-05,1.02829e-05,-9.59844e-06,1.6412e-05,2.18345e-06,0
-3.17046e-05,1.33188e-05,-1.14299e-05,1.4902e-05,1.33794e-05,-8.89246e-06,1.49658e-05,1.31786e-06,0
-3.17671e-05,1.53954e-05,-9.90621e-06,6.2194e-06,1.82114e-05,-8.08293e-06,1.19664e-05,2.30495e-06,0
-3.0685e-05,1.64537e-05,-8.06039e-06,-3.36054e-06,2.24443e-05,-8.58012e-06,8.17334e-06,3.04745e-06,0
-2.87383e-05,1.77679e-05,-7.096e-06,-1.06233e-05,2.37262e-05,-9.67201e-06,6.361e-06,3.54623e-06,0
-2.84308e-05,1.87491e-05,-5.96976e-06,-1.63055e-05,2.31257e-05,-9.49118e-06,8.19588e-06,5.38807e-06,0
-3.01554e-05,2.00012e-05,-4.19186e-06,-2.41349e-05,2.24435e-05,-8.07697e-06,1.20309e-05,7.87658e-06,0
-3.25446e-05,2.10537e-05,-2.78486e-06,-3.34579e-05,2.16557e-05,-9.00509e-06,1.36078e-05,9.13533e-06,0
-3.42427e-05,2.23631e-05,-4.49881e-06,-4.05308e-05,1.94562e-05,-1.20959e-05,1.22701e-05,1.01331e-05,0
-3.39493e-05,2.31877e-05,-7.54358e-06,-4.60594e-05,1.66447e-05,-1.50581e-05,8.96339e-06,1.09193e-05,0
-3.22008e-05,2.35588e-05,-8.82307e-06,-4.4251e-05,1.39681e-05,-1.51806e-05,7.68702e-06,9.81149e-06,0
-3.06279e-05,2.22999e-05,-8.03233e-06,-3.07055e-05,1.17174e-05,-1.39517e-05,1.01544e-05,7.2648e-06,0
-3.07506e-05,1.93602e-05,-6.88429e-06,-1.49632e-05,1.31877e-05,-1.36995e-05,1.23351e-05,5.27989e-06,0
-3.23345e-05,1.65398e-05,-8.27165e-06,-7.80649e-06,1.79548e-05,-1.3537e-05,1.2645e-05,2.6643e-06,0
-3.31686e-05,1.37814e-05,-9.82865e-06,-7.86204e-06,2.08906e-05,-1.24779e-05,1.17296e-05,3.78313e-07,0
-3.32376e-05,1.26386e-05,-8.84133e-06,-9.79228e-06,1.90623e-05,-1.06022e-05,1.07744e-05,-6.54107e-07,0
-3.25727e-05,1.21999e-05,-5.9455e-06,-1.25205e-05,1.38871e-05,-1.08863e-05,1.04608e-05,-1.12533e-06,0
-3.2796e-05,1.25602e-05,-4.73429e-06,-1.69986e-05,9.71616e-06,-1.16215e-05,1.15139e-05,-1.00012e-06,0
-3.35035e-05,1.27241e-05,-6.51436e-06,-2.22495e-05,9.92026e-06,-1.08548e-05,1.40065e-05,-1.76133e-06,0
-3.30848e-05,1.08592e-05,-8.23823e-06,-2.60848e-05,1.10722e-05,-8.45878e-06,1.59772e-05,-1.87647e-06,0
-3.21075e-05,1.22198e-05,-8.56453e-06,-2.69584e-05,1.06302e-05,-5.15874e-06,1.59433e-05,-1.53439e-06,0
-3.14716e-05,2.29843e-05,-8.61943e-06,-2.33191e-05,9.15147e-06,-2.85649e-06,1.38555e-05,5.66701e-07,0
-3.03923e-05,3.83829e-05,-8.45941e-06,-1.54448e-05,8.079e-06,-3.24062e-06,1.20344e-05,3.27662e-06,0
-2.86523e-05,4.73405e-05,-6.7413e-06,-6.06526e-06,8.23179e-06,-5.2459e-06,1.19426e-05,3.35784e-06,0
-2.7598e-05,4.56719e-05,-5.11301e-06,1.31978e-06,9.45453e-06,-5.92384e-06,1.2995e-05,2.83944e-07,0
-2.76387e-05,3.38646e-05,-5.75373e-06,4.74314e-06,1.04044e-05,-5.69631e-06,1.39116e-05,-2.99895e-06,0
-2.88032e-05,1.64777e-05,-7.75618e-06,4.47511e-06,1.00135e-05,-6.22251e-06,1.36681e-05,-3.96465e-06,0
-3.04133e-05,-9.31628e-07,-8.27004e-06,-1.38339e-06,9.2976e-06,-7.37983e-06,1.30723e-05,-3.73114e-06,0
-3.20366e-05,-1.34268e-05,-6.94702e-06,-1.41005e-05,9.53787e-06,-7.8081e-06,1.2726e-05,-3.45316e-06,0
-3.35234e-05,-1.86601e-05,-5.65679e-06,-2.70304e-05,1.04443e-05,-6.13244e-06,1.23171e-05,-3.75226e-06,0
-3.41729e-05,-1.88252e-05,-4.86119e-06,-3.25751e-05,9.88053e-06,-3.4669e-06,1.20585e-05,-4.22149e-06,0
-3.31903e-05,-1.59259e-05,-4.48505e-06,-3.23453e-05,8.37235e-06,-3.68583e-06,1.163e-05,-4.56442e-06,0
-3.22986e-05,-1.06421e-05,-4.3678e-06,-3.17697e-05,8.1283e-06,-5.52947e-06,1.1424e-05,-2.64462e-06,0
-3.18437e-05,-5.83766e-06,-4.23727e-06,-3.17289e-05,8.57094e-06,-5.90398e-06,1.29917e-05,2.98566e-07,0
-3.22221e-05,-3.98613e-06,-4.45201e-06,-2.39035e-05,9.11788e-06,-6.08704e-06,1.57103e-05,2.14771e-07,0
-3.48008e-05,-5.29984e-06,-4.2182e-06,-2.81143e-06,9.91984e-06,-6.84426e-06,1.67771e-05,-2.84947e-06,0
-3.64974e-05,-5.74142e-06,-3.13377e-06,2.33615e-05,9.59776e-06,-7.80474e-06,1.48606e-05,-5.69554e-06,0
-3.52745e-05,-3.18331e-06,-2.24879e-06,4.94762e-05,1.07666e-05,-7.68504e-06,1.35694e-05,-6.3133e-06,0
-3.38676e-05,1.61766e-06,-2.52128e-06,6.30863e-05,1.46233e-05,-6.92061e-06,1.41469e-05,-4.39088e-06,0
-3.26726e-05,6.08644e-06,-2.92605e-06,5.9759e-05,1.93096e-05,-7.38031e-06,1.50951e-05,-3.58529e-06,0
-3.11743e-05,8.20158e-06,-1.8127e-06,4.72381e-05,2.22831e-05,-7.40035e-06,1.53483e-05,-4.39056e-06,0
-2.9072e-05,1.15872e-05,-2.34486e-06,2.89633e-05,2.24505e-05,-6.64348e-06,1.56783e-05,-4.22139e-06,0
-2.81679e-05,1.40559e-05,-6.85058e-06,1.601e-05,2.16068e-05,-6.11763e-06,1.71762e-05,-2.15289e-06,0
-2.90538e-05,1.55717e-05,-1.09093e-05,8.74031e-06,2.10521e-05,-5.70001e-06,1.90594e-05,-9.8046e-07,0
-2.94532e-05,1.67477e-05,-1.11215e-05,4.27652e-06,2.18103e-05,-5.74411e-06,1.96221e-05,-8.0018e-08,0
-2.98751e-05,1.73641e-05,-9.24983e-06,-3.25177e-07,2.24855e-05,-5.68266e-06,1.74487e-05,2.56615e-06,0
-2.98382e-05,1.91805e-05,-7.96025e-06,-5.72418e-06,2.10857e-05,-5.26469e-06,1.54947e-05,5.3617e-06,0
-3.01576e-05,2.02144e-05,-8.796e-06,-9.98785e-06,1.80143e-05,-4.65994e-06,1.46794e-05,6.97006e-06,0
-3.13565e-05,2.13881e-05,-1.10365e-05,-1.27171e-05,1.51104e-05,-4.86833e-06,1.42573e-05,6.9988e-06,0
-3.24839e-05,2.37054e-05,-1.41305e-05,-1.43054e-05,1.34709e-05,-5.13303e-06,1.32e-05,6.77976e-06,0
-3.15716e-05,2.58955e-05,-1.57944e-05,-1.31303e-05,1.25055e-05,-5.02493e-06,1.15765e-05,5.93217e-06,0
-2.98357e-05,2.66274e-05,-1.4828e-05,-7.71464e-06,1.15924e-05,-5.57569e-06,1.1264e-05,4.40725e-06,0
-2.97096e-05,2.56032e-05,-1.33397e-05,-2.2267e-06,1.07327e-05,-6.87571e-06,1.24969e-05,2.47615e-06,0
-3.05317e-05,2.33822e-05,-1.27436e-05,2.60284e-06,9.81232e-06,-7.59962e-06,1.42758e-05,1.45481e-06,0
-3.03701e-05,2.10789e-05,-1.24167e-05,5.53475e-06,9.46065e-06,-5.93283e-06,1.50352e-05,7.9133e-07,0
-2.9494e-05,1.87642e-05,-1.09104e-05,5.75116e-06,9.97538e-06,-3.02798e-06,1.49661e-05,9.57961e-08,0
-3.00701e-05,1.65675e-05,-8.92991e-06,2.94689e-06,1.05843e-05,-2.38507e-06,1.50377e-05,6.93278e-07,0
-3.14154e-05,1.54468e-05,-8.83866e-06,-7.68174e-07,1.11137e-05,-4.379e-06,1.54516e-05,3.39592e-06,0
-3.19981e-05,1.42362e-05,-1.06697e-05,-2.80747e-06,1.16489e-05,-4.766e-06,1.55239e-05,5.06356e-06,0
-3.17119e-05,1.18102e-05,-9.2894e-06,-2.4571e-06,1.20535e-05,-2.62712e-06,1.51327e-05,4.01148e-06,0
-3.23899e-05,7.79001e-06,4.89496e-07,-3.8274e-06,1.32207e-05,-1.42402e-06,1.47159e-05,6.11893e-07,0
-3.32739e-05,3.99922e-06,1.92797e-05,-5.46451e-06,1.51544e-05,-1.5321e-06,1.32457e-05,-2.06156e-06,0
-3.24655e-05,1.25121e-06,4.1619e-05,-4.92307e-06,1.74943e-05,-1.10304e-06,1.05255e-05,-1.06261e-06,0
-3.06986e-05,-1.27032e-06,5.65713e-05,-2.15581e-06,1.92212e-05,-1.96771e-06,8.66827e-06,9.74181e-07,0
-2.8377e-05,-3.6182e-06,5.09505e-05,-3.29365e-07,1.93674e-05,-4.54503e-06,8.74889e-06,2.97778e-06,0
-2.74908e-05,-3.79257e-06,2.34665e-05,-3.14726e-06,1.76733e-05,-6.30792e-06,9.01039e-06,4.67458e-06,0
-2.97633e-05,-2.31276e-06,-1.62985e-05,-9.70512e-06,1.52804e-05,-5.88007e-06,1.10879e-05,6.10237e-06,0
-3.02758e-05,-2.1699e-06,-5.76918e-05,-2.11668e-05,1.36199e-05,-5.00351e-06,1.57539e-05,6.85207e-06,0
-2.89427e-05,-3.3609e-06,-9.02433e-05,-3.26792e-05,1.30396e-05,-4.73903e-06,1.72743e-05,6.15538e-06,0
-2.82622e-05,-4.23297e-06,-0.000107153,-3.60092e-05,1.21541e-05,-4.57648e-06,1.5855e-05,4.79141e-06,0
-2.67967e-05,-1.98786e-06,-0.000106368,-3.13081e-05,1.0553e-05,-4.1064e-06,1.43362e-05,2.59906e-06,0
-2.5594e-05,1.37784e-06,-9.1595e-05,-2.54106e-05,9.9698e-06,-3.60394e-06,1.38904e-05,6.15787e-07,0
-2.59339e-05,4.39597e-06,-7.22952e-05,-1.98944e-05,9.39567e-06,-3.35785e-06,1.39738e-05,1.1561e-06,0
-2.60316e-05,6.92358e-06,-5.70663e-05,-1.13672e-05,8.05395e-06,-3.87874e-06,1.48006e-05,2.63746e-06,0
-2.45872e-05,8.81521e-06,-4.47703e-05,2.02812e-07,5.50944e-06,-4.9583e-06,1.62289e-05,3.44965e-06,0
-2.40702e-05,1.08694e-05,-3.29792e-05,6.43755e-06,2.79823e-06,-5.48052e-06,1.57475e-05,3.94554e-06,0
-2.64897e-05,1.08031e-05,-2.16357e-05,2.43208e-06,3.46065e-07,-7.28441e-06,1.43605e-05,4.57552e-06,0
-2.9928e-05,7.42428e-06,-1.27891e-05,-6.64464e-06,1.48466e-07,-1.01415e-05,1.3002e-05,5.53118e-06,0
-3.20221e-05,3.58378e-06,-7.45822e-06,-1.31609e-05,2.41458e-06,-1.20346e-05,1.15021e-05,7.11902e-06,0
-3.28005e-05,3.12327e-06,-3.29723e-06,-1.4582e-05,3.32549e-06,-1.23833e-05,9.64901e-06,8.75506e-06,0
-3.16615e-05,4.36222e-06,1.22338e-06,-1.25181e-05,2.16901e-06,-1.30096e-05,8.21672e-06,8.96997e-06,0
-2.98177e-05,4.97866e-06,4.59548e-06,-1.07297e-05,1.46023e-06,-1.40416e-05,7.55893e-06,7.45765e-06,0
-2.90848e-05,6.7731e-06,4.34381e-06,-1.26882e-05,2.9585e-06,-1.48439e-05,7.74652e-06,4.65066e-06,0
-2.93924e-05,1.23174e-05,1.75381e-06,-1.71789e-05,5.98302e-06,-1.64866e-05,7.37937e-06,2.4111e-06,0
-3.04833e-05,1.83464e-05,-1.02567e-06,-1.90959e-05,9.6079e-06,-1.86227e-05,6.64621e-06,1.78771e-06,0
-3.24497e-05,2.0946e-05,-2.09361e-06,-1.78181e-05,1.21392e-05,-1.92413e-05,6.76565e-06,1.35243e-06,0
-3.3717e-05,2.13592e-05,-1.01415e-06,-1.63012e-05,1.38274e-05,-1.86039e-05,6.77812e-06,5.9561e-07,0
-3.3283e-05,2.15449e-05,9.74205e-07,-1.26e-05,1.50259e-05,-1.83003e-05,7.65025e-06,3.28925e-07,0
-3.11842e-05,2.33061e-05,1.65933e-06,-5.93653e-06,1.59375e-05,-1.81131e-05,9.8198e-06,-2.2515e-07,0
-2.88996e-05,2.43886e-05,5.39031e-08,-8.96435e-07,1.5533e-05,-1.80164e-05,1.08259e-05,-1.03146e-06,0
-2.83951e-05,2.37055e-05,-1.53594e-06,-9.32513e-07,1.38814e-05,-1.83599e-05,9.78234e-06,-8.44153e-07,0
-2.82106e-05,2.36311e-05,2.80659e-07,-3.83163e-06,1.38024e-05,-1.86837e-05,9.53607e-06,1.27329e-07,0
-2.80536e-05,2.22514e-05,3.62186e-06,-6.33067e-06,1.49576e-05,-1.74057e-05,1.14668e-05,1.41757e-06,0
-2.75163e-05,2.06546e-05,5.11617e-06,-7.90296e-06,1.36644e-05,-1.59338e-05,1.48221e-05,1.93068e-06,0
-2.65503e-05,1.85343e-05,3.49131e-06,-1.07859e-05,9.9889e-06,-1.31983e-05,1.64373e-05,1.6718e-06,0
-2.68886e-05,1.51364e-05,1.89762e-06,-1.55814e-05,8.92564e-06,-1.04871e-05,1.43508e-05,3.19175e-06,0
-2.86441e-05,1.3936e-05,2.28534e-06,-1.94926e-05,1.09823e-05,-9.32289e-06,1.25314e-05,5.87871e-06,0
-3.01435e-05,1.30943e-05,2.84364e-06,-2.18468e-05,1.15547e-05,-7.47522e-06,1.141e-05,6.68429e-06,0
-3.01705e-05,1.29215e-05,2.3674e-06,-2.58269e-05,1.02013e-05,-7.77145e-06,1.02089e-05,6.30702e-06,0
-3.00109e-05,1.30363e-05,1.71158e-06,-2.94501e-05,8.68483e-06,-8.49194e-06,9.42318e-06,6.1869e-06,0
-3.01792e-05,1.27104e-05,3.69697e-06,-2.95204e-05,6.61172e-06,-8.78023e-06,9.39467e-06,7.89515e-06,0
-2.99142e-05,1.19063e-05,6.34204e-06,-2.72996e-05,5.60618e-06,-9.90869e-06,9.77903e-06,8.94352e-06,0
-3.03866e-05,1.17793e-05,7.85384e-06,-2.44106e-05,7.73824e-06,-1.01438e-05,8.89802e-06,8.03324e-06,0
-3.09619e-05,1.23813e-05,7.86353e-06,-2.17933e-05,1.21618e-05,-8.007e-06,7.14053e-06,6.49313e-06,0
-3.09025e-05,1.19458e-05,7.89517e-06,-1.63289e-05,1.70619e-05,-5.49829e-06,6.61612e-06,4.22158e-06,0
-3.09305e-05,1.14072e-05,7.50299e-06,-3.92854e-06,2.3509e-05,-6.1176e-06,8.93864e-06,1.61181e-06,0
-3.11272e-05,1.13174e-05,7.12936e-06,1.36809e-05,3.11484e-05,-7.99384e-06,1.27966e-05,-3.18548e-07,0
-3.08117e-05,1.0556e-05,7.31302e-06,2.83875e-05,3.77878e-05,-7.7658e-06,1.54101e-05,-1.23475e-06,0
-3.01682e-05,7.86381e-06,6.21073e-06,3.37284e-05,4.08051e-05,-5.16601e-06,1.49658e-05,-2.76931e-06,0
-3.05095e-05,6.69616e-06,4.83836e-06,3.09871e-05,3.96093e-05,-3.47174e-06,1.22149e-05,-3.94751e-06,0
-3.20339e-05,8.22393e-06,5.36731e-06,2.56698e-05,3.71615e-05,-3.79112e-06,8.64943e-06,-3.41941e-06,0
-3.34153e-05,9.85145e-06,6.07006e-06,2.00135e-05,3.58169e-05,-6.05848e-06,4.89993e-06,-1.87495e-06,0
-3.30637e-05,1.00375e-05,3.34588e-06,1.13842e-05,3.60953e-05,-8.27159e-06,-1.50137e-06,-1.22606e-06,0
-3.28772e-05,1.07951e-05,-2.07755e-06,2.30883e-06,3.68383e-05,-8.24101e-06,-8.4717e-06,-1.36323e-06,0
-3.48089e-05,1.35192e-05,-7.38405e-06,-1.26511e-06,3.57328e-05,-7.66944e-06,-1.13117e-05,-2.54745e-06,0
-3.72591e-05,1.55463e-05,-8.72288e-06,-2.20243e-06,3.12034e-05,-7.57453e-06,-9.73167e-06,-2.82514e-06,0
-3.72028e-05,1.50895e-05,-6.38014e-06,-3.55582e-06,2.45516e-05,-8.85462e-06,-4.84081e-06,-1.37686e-06,0
-3.4182e-05,1.34768e-05,-5.47193e-06,-3.65055e-06,1.92438e-05,-1.22023e-05,3.15613e-06,1.72602e-07,0
-3.03744e-05,1.40472e-05,-7.94161e-06,-6.95362e-07,1.73727e-05,-1.31783e-05,1.54202e-05,6.06319e-07,0
-2.88554e-05,1.5659e-05,-1.05634e-05,5.78714e-06,1.5776e-05,-1.19303e-05,2.85834e-05,2.88463e-07,0
-2.95578e-05,1.52879e-05,-1.15924e-05,1.3449e-05,1.23283e-05,-1.2574e-05,3.76257e-05,1.01229e-06,0
-2.92836e-05,1.47876e-05,-1.01948e-05,2.41301e-05,9.3231e-06,-1.29653e-05,4.08159e-05,1.24428e-06,0
-2.8567e-05,1.36116e-05,-7.81568e-06,4.05694e-05,7.09492e-06,-1.19412e-05,3.92237e-05,4.22124e-07,0
-2.93574e-05,1.2937e-05,-7.66813e-06,5.28712e-05,4.50812e-06,-1.05993e-05,3.78885e-05,1.09386e-07,0
-2.9887e-05,1.42638e-05,-8.73777e-06,5.19766e-05,3.04746e-06,-9.98072e-06,3.76131e-05,-3.16289e-07,0
-2.90203e-05,1.73541e-05,-8.749e-06,3.96724e-05,2.96513e-06,-1.05226e-05,3.58354e-05,-1.17614e-06,0
-2.92601e-05,1.96553e-05,-8.16563e-06,2.48036e-05,4.86534e-06,-1.04811e-05,3.27044e-05,-1.53237e-07,0
-3.04302e-05,1.84217e-05,-7.94483e-06,1.93066e-05,7.25419e-06,-9.89975e-06,2.90098e-05,1.0187e-06,0
-3.10209e-05,1.70119e-05,-8.44131e-06,2.39893e-05,7.85989e-06,-1.01278e-05,2.55008e-05,1.22129e-06,0
-3.20772e-05,1.70219e-05,-9.4387e-06,3.00034e-05,6.68621e-06,-1.02111e-05,2.2245e-05,1.29671e-06,0
-3.1887e-05,1.66989e-05,-1.0273e-05,2.76855e-05,3.74528e-06,-1.02549e-05,1.97352e-05,6.15362e-07,0
-2.95383e-05,1.5643e-05,-8.86869e-06,1.39625e-05,7.26631e-07,-9.94886e-06,1.77767e-05,-1.04304e-06,0
-2.7672e-05,1.54317e-05,-6.83948e-06,-7.35888e-06,-4.17827e-07,-8.91655e-06,1.56589e-05,-2.76423e-06,0
-2.82185e-05,1.6065e-05,-5.99084e-06,-2.91987e-05,1.45111e-06,-7.68722e-06,1.33463e-05,-3.06944e-06,0
-2.96142e-05,1.71516e-05,-5.58859e-06,-4.40715e-05,5.38624e-06,-6.97944e-06,1.16341e-05,-3.1391e-06,0
-2.94836e-05,1.6852e-05,-5.96677e-06,-4.81005e-05,9.16586e-06,-6.49605e-06,1.04114e-05,-4.76205e-06,0
-2.81109e-05,1.40421e-05,-6.93526e-06,-4.55661e-05,1.05759e-05,-6.13904e-06,8.82848e-06,-7.46288e-06,0
-2.63943e-05,1.07781e-05,-8.16156e-06,-4.66901e-05,1.0028e-05,-6.12044e-06,6.83565e-06,-7.87312e-06,0
-2.53595e-05,1.14688e-05,-7.91553e-06,-5.58089e-05,9.87321e-06,-6.16237e-06,4.47098e-06,-5.38267e-06,0
-2.56584e-05,1.60385e-05,-6.52966e-06,-6.66432e-05,9.85949e-06,-6.40348e-06,2.34183e-06,-2.79218e-06,0
-2.61705e-05,1.95762e-05,-5.61023e-06,-7.29455e-05,7.45967e-06,-6.89615e-06,2.19851e-06,-1.51232e-06,0
-2.56793e-05,1.84331e-05,-5.26462e-06,-7.5185e-05,3.79591e-06,-7.08725e-06,2.18419e-06,-1.2856e-06,0
-2.45626e-05,1.43833e-05,-4.7941e-06,-7.2775e-05,2.77017e-06,-7.43928e-06,1.21308e-06,3.08929e-07,0
-2.45914e-05,1.21427e-05,-3.12134e-06,-6.32949e-05,4.15095e-06,-8.37593e-06,1.24381e-06,2.66429e-06,0
-2.65225e-05,1.38191e-05,-1.30041e-06,-4.94027e-05,6.17357e-06,-7.81641e-06,2.6103e-06,2.70928e-06,0
-2.75115e-05,1.54472e-05,-2.05237e-06,-3.63491e-05,1.01154e-05,-6.95455e-06,5.78073e-06,-2.31874e-07,0
-2.74028e-05,1.29036e-05,-3.61043e-06,-2.48487e-05,1.35874e-05,-7.09256e-06,8.79493e-06,-2.47329e-06,0
-2.55649e-05,9.09483e-06,-3.99201e-06,-1.5447e-05,1.42038e-05,-8.05761e-06,1.05694e-05,-1.22402e-06,0
-2.29089e-05,4.60354e-06,-4.49468e-06,-9.39441e-06,1.24341e-05,-9.62931e-06,1.11689e-05,1.29322e-06,0
-2.27835e-05,6.2696e-07,-5.85789e-06,-2.71659e-06,9.28716e-06,-1.0797e-05,1.08743e-05,2.69327e-06,0
-2.48706e-05,-1.2674e-06,-5.14422e-06,6.79155e-06,9.08937e-06,-1.0109e-05,1.10695e-05,3.72884e-06,0
-2.7331e-05,-1.62779e-06,-3.19173e-06,1.3157e-05,1.16952e-05,-9.64073e-06,1.05289e-05,4.85305e-06,0
-2.94938e-05,9.76389e-07,-2.06443e-06,1.41449e-05,1.33415e-05,-1.07293e-05,9.98188e-06,4.90275e-06,0
-3.08759e-05,5.60674e-06,-3.17491e-06,1.24329e-05,1.46756e-05,-1.08827e-05,9.16102e-06,4.68382e-06,0
-3.02707e-05,8.92139e-06,-5.88922e-06,1.22552e-05,1.48515e-05,-9.25564e-06,7.37462e-06,3.96799e-06,0
-2.92683e-05,1.04329e-05,-7.63443e-06,1.45754e-05,1.42105e-05,-7.0453e-06,7.49283e-06,1.85972e-06,0
-2.93453e-05,1.16557e-05,-7.38732e-06,1.58532e-05,1.39661e-05,-6.20322e-06,9.48751e-06,-1.90076e-06,0
-3.0123e-05,1.2805e-05,-6.38136e-06,1.41981e-05,1.32842e-05,-6.60475e-06,1.08016e-05,-5.51241e-06,0
-3.06544e-05,1.36845e-05,-8.2369e-06,1.09589e-05,1.14975e-05,-6.74759e-06,1.05796e-05,-6.95581e-06,0
-3.15738e-05,1.51092e-05,-1.17568e-05,9.21931e-06,8.97024e-06,-5.94693e-06,9.79161e-06,-6.38198e-06,0
-3.29172e-05,1.79271e-05,-1.47582e-05,9.68905e-06,7.14046e-06,-4.59668e-06,9.73702e-06,-5.66709e-06,0
-3.41439e-05,2.14686e-05,-1.51074e-05,1.01548e-05,6.69561e-06,-3.36555e-06,1.07899e-05,-5.97124e-06,0
-3.46899e-05,2.30056e-05,-1.30501e-05,7.9006e-06,9.13044e-06,-2.42876e-06,1.23484e-05,-5.89971e-06,0
-3.42682e-05,2.13377e-05,-1.21264e-05,4.62421e-06,1.36996e-05,-1.56362e-06,1.23355e-05,-4.81824e-06,0
-3.31203e-05,1.88014e-05,-1.56387e-05,1.88726e-06,1.76219e-05,-1.35789e-06,1.087e-05,-3.59037e-06,0
-3.16684e-05,1.7285e-05,-2.14046e-05,1.31588e-06,1.80178e-05,-1.84094e-06,1.14343e-05,-3.86222e-06,0
-3.09084e-05,1.69321e-05,-2.65674e-05,2.83512e-06,1.64175e-05,-2.63596e-06,1.25866e-05,-5.50265e-06,0
-3.23498e-05,1.68164e-05,-2.9361e-05,5.49449e-06,1.44598e-05,-4.7539e-06,1.13374e-05,-6.72797e-06,0
-3.5626e-05,1.60593e-05,-2.94936e-05,8.95988e-06,1.12484e-05,-7.8417e-06,9.84652e-06,-6.17457e-06,0
-3.77489e-05,1.5929e-05,-2.77933e-05,9.94701e-06,9.16882e-06,-9.03087e-06,6.46994e-06,-4.79729e-06,0
-3.7291e-05,1.68859e-05,-2.44361e-05,6.53321e-06,9.36624e-06,-8.82744e-06,8.82089e-07,-3.31117e-06,0
-3.47087e-05,1.89398e-05,-2.09831e-05,-1.18742e-06,1.04725e-05,-9.39685e-06,-1.74188e-06,-2.19779e-06,0
-3.17055e-05,2.04119e-05,-1.80474e-05,-1.1459e-05,1.38193e-05,-1.07929e-05,-2.33454e-06,-1.757e-06,0
-2.91597e-05,1.73391e-05,-1.53504e-05,-2.0736e-05,1.67435e-05,-9.563e-06,2.63158e-07,-3.84865e-08,0
-2.78399e-05,1.35097e-05,-1.34446e-05,-2.65367e-05,1.57507e-05,-6.32324e-06,6.42074e-06,1.19683e-06,0
-2.74239e-05,1.15567e-05,-1.2991e-05,-2.73707e-05,1.27154e-05,-6.59762e-06,1.23569e-05,-1.57456e-06,0
-2.72255e-05,9.63442e-06,-1.26754e-05,-2.24808e-05,1.04044e-05,-9.25992e-06,1.69581e-05,-4.84954e-06,0
-2.79707e-05,9.17637e-06,-1.14539e-05,-1.58118e-05,9.71767e-06,-1.02297e-05,1.96846e-05,-5.48794e-06,0
-2.93165e-05,1.01273e-05,-9.82564e-06,-1.16624e-05,1.05135e-05,-1.03947e-05,2.18722e-05,-4.69558e-06,0
-3.02406e-05,1.22576e-05,-8.67702e-06,-1.01921e-05,1.31067e-05,-1.16588e-05,2.35841e-05,-3.48717e-06,0
-3.08653e-05,1.47243e-05,-6.91554e-06,-9.31278e-06,1.71849e-05,-1.22992e-05,2.34211e-05,-2.52854e-06,0
-3.17882e-05,1.53609e-05,-5.24798e-06,-8.30607e-06,1.94468e-05,-1.1854e-05,2.34016e-05,-1.13167e-06,0
-3.26069e-05,1.25736e-05,-5.47843e-06,-6.16718e-06,1.71551e-05,-1.20118e-05,2.4164e-05,9.73224e-07,0
-3.27134e-05,7.39311e-06,-7.2942e-06,-2.17918e-06,1.14856e-05,-1.30913e-05,2.36474e-05,3.13221e-06,0
-3.27382e-05,2.78305e-06,-7.71663e-06,2.66646e-06,7.07249e-06,-1.45212e-05,2.20999e-05,3.99858e-06,0
-3.28723e-05,5.30043e-07,-5.74003e-06,7.20299e-06,7.95705e-06,-1.56578e-05,1.94104e-05,3.77379e-06,0
-3.33194e-05,1.45433e-06,-4.23568e-06,9.18738e-06,1.18616e-05,-1.62011e-05,1.64187e-05,3.47132e-06,0
-3.37959e-05,4.21485e-06,-4.64736e-06,9.38752e-06,1.43275e-05,-1.72135e-05,1.53192e-05,4.30497e-06,0
-3.39524e-05,6.04122e-06,-5.46366e-06,9.7521e-06,1.2704e-05,-1.83548e-05,1.66161e-05,5.86437e-06,0
-3.41778e-05,5.18244e-06,-5.34446e-06,9.62633e-06,9.10332e-06,-1.8758e-05,1.76105e-05,6.76205e-06,0
-3.38809e-05,3.13722e-06,-5.8326e-06,8.12929e-06,5.44115e-06,-1.92454e-05,1.59849e-05,5.38493e-06,0
-3.2199e-05,2.27089e-06,-7.70859e-06,8.22731e-06,2.3066e-06,-1.96809e-05,1.34977e-05,2.98704e-06,0
-3.0719e-05,2.62187e-06,-8.95243e-06,1.14372e-05,1.07801e-06,-1.84794e-05,1.24776e-05,2.9896e-06,0
-3.21538e-05,3.00296e-06,-9.15299e-06,1.30821e-05,2.41676e-06,-1.75498e-05,1.33072e-05,5.01545e-06,0
-3.54051e-05,2.69767e-06,-1.00898e-05,7.97273e-06,4.84869e-06,-1.77339e-05,1.47751e-05,6.88543e-06,0
-3.83836e-05,3.7809e-06,-1.24142e-05,-1.7164e-06,6.25889e-06,-1.79737e-05,1.44156e-05,7.17359e-06,0
-3.77854e-05,5.65529e-06,-1.46668e-05,-9.13554e-06,6.5008e-06,-1.88283e-05,1.19278e-05,6.86938e-06,0
-3.42605e-05,6.69319e-06,-1.45526e-05,-1.02121e-05,6.70712e-06,-1.9575e-05,9.31689e-06,6.26203e-06,0
-3.27248e-05,7.0264e-06,-1.2405e-05,-7.42779e-06,8.36083e-06,-1.9984e-05,7.52115e-06,6.01843e-06,0
-3.17815e-05,6.77512e-06,-9.23522e-06,-4.30958e-06,1.16109e-05,-1.833e-05,6.18445e-06,6.47306e-06,0
-3.07146e-05,8.79886e-06,-6.51223e-06,1.10105e-06,1.7176e-05,-1.58177e-05,5.26839e-06,5.94531e-06,0
-3.01145e-05,1.07691e-05,-5.56283e-06,5.70324e-06,2.52767e-05,-1.41359e-05,6.57444e-06,4.03099e-06,0
