ch1,ch2,ch3,ch4,ch5,ch6,ch7,ch8,class
-3.09514e-05,1.3445e-05,-1.08251e-05,-1.07272e-05,1.202e-05,-1.07423e-05,3.88096e-06,1.8912e-06,0
-3.21334e-05,1.5933e-05,-9.39797e-06,-5.57259e-06,1.41535e-05,-1.04985e-05,3.6224e-06,1.42567e-06,0
-3.26281e-05,2.08257e-05,-9.40448e-06,3.52015e-07,1.84337e-05,-7.64931e-06,2.74807e-06,-7.59771e-07,0
-3.12133e-05,2.56011e-05,-9.80711e-06,8.85468e-06,2.3315e-05,-4.53851e-06,2.32097e-06,-4.00325e-06,0
-2.81359e-05,2.86495e-05,-8.62736e-06,1.46811e-05,2.65904e-05,-2.64186e-06,2.95879e-06,-4.02496e-06,0
-2.51073e-05,2.9046e-05,-9.36606e-06,6.85405e-06,2.66315e-05,-2.12136e-06,4.91745e-06,-1.31021e-06,0
-2.40017e-05,2.61398e-05,-1.06182e-05,-1.0999e-05,2.11414e-05,-3.44252e-06,7.27098e-06,4.48667e-07,0
-2.50831e-05,2.35712e-05,-1.08805e-05,-2.13976e-05,1.41588e-05,-5.8266e-06,7.10044e-06,2.11032e-06,0
-2.63043e-05,2.49303e-05,-9.93771e-06,-1.88027e-05,1.05481e-05,-7.03239e-06,5.03709e-06,3.74322e-06,0
-2.59443e-05,2.86189e-05,-7.24548e-06,-6.76153e-06,1.26165e-05,-5.97965e-06,-2.05152e-06,3.83888e-06,0
-2.52208e-05,2.95707e-05,-4.7311e-06,6.86069e-06,1.87528e-05,-4.60651e-06,-1.58872e-05,2.13287e-06,0
-2.4801e-05,2.6864e-05,-4.12147e-06,1.28721e-05,2.38217e-05,-4.05435e-06,-2.77897e-05,3.52404e-07,0
-2.55862e-05,2.4184e-05,-5.07688e-06,9.18729e-06,2.42494e-05,-2.7168e-06,-2.98156e-05,4.96773e-07,0
-2.69305e-05,2.3838e-05,-4.85311e-06,1.66414e-06,2.18354e-05,-4.27879e-07,-2.17741e-05,1.69619e-06,0
-2.80106e-05,2.36999e-05,-3.55994e-06,-4.67411e-06,1.87586e-05,-2.25083e-08,-6.58522e-06,3.20974e-06,0
-2.83854e-05,2.16358e-05,-3.50668e-06,-8.02449e-06,1.52431e-05,-2.69574e-06,1.1992e-05,4.71794e-06,0
-2.86469e-05,1.85332e-05,-5.23404e-06,-8.54645e-06,1.19644e-05,-6.01709e-06,2.87622e-05,4.68813e-06,0
-2.9975e-05,1.65517e-05,-6.49636e-06,-8.69414e-06,9.97448e-06,-8.37393e-06,3.99937e-05,3.27732e-06,0
-3.17343e-05,1.62435e-05,-7.18212e-06,-1.1516e-05,9.04921e-06,-1.00462e-05,4.46308e-05,1.57449e-06,0
-3.21461e-05,1.58445e-05,-8.2707e-06,-2.04854e-05,6.60784e-06,-1.11172e-05,4.39566e-05,-6.81286e-07,0
-3.05791e-05,1.50412e-05,-8.60157e-06,-3.35608e-05,2.27998e-06,-1.19744e-05,4.11192e-05,-2.90574e-06,0
-2.85715e-05,1.53734e-05,-7.27337e-06,-4.04037e-05,-1.90089e-06,-1.30424e-05,3.78975e-05,-2.79011e-06,0
-2.68364e-05,1.57032e-05,-6.31243e-06,-3.6998e-05,-3.33775e-06,-1.48007e-05,3.36967e-05,-1.73732e-06,0
-2.69063e-05,1.72524e-05,-6.42217e-06,-3.18562e-05,-3.6939e-06,-1.67802e-05,2.9536e-05,-4.61653e-07,0
-2.73228e-05,2.1386e-05,-7.73339e-06,-3.29643e-05,-5.02214e-06,-1.64861e-05,2.58777e-05,1.3046e-06,0
-2.78334e-05,2.45489e-05,-1.00974e-05,-3.7176e-05,-4.46085e-06,-1.62629e-05,2.19522e-05,1.3783e-06,0
-2.88691e-05,2.30014e-05,-1.03573e-05,-3.08056e-05,-3.43405e-06,-1.8239e-05,2.01733e-05,-1.8553e-06,0
-2.95342e-05,2.03713e-05,-9.21965e-06,-7.61996e-06,-4.38663e-06,-1.96976e-05,1.84111e-05,-4.46146e-06,0
-3.09525e-05,2.21065e-05,-9.3633e-06,2.38974e-05,-4.10717e-06,-1.82004e-05,1.38771e-05,-3.49813e-06,0
-3.09657e-05,2.43934e-05,-9.69062e-06,4.9202e-05,-1.16061e-06,-1.68367e-05,8.88576e-06,-2.55256e-06,0
-2.987e-05,2.49108e-05,-8.54319e-06,5.55972e-05,3.31591e-06,-1.851e-05,6.12154e-06,-3.37665e-06,0
-2.9951e-05,2.64876e-05,-8.27003e-06,4.67701e-05,7.24808e-06,-1.97152e-05,5.36132e-06,-2.88524e-06,0
-2.9846e-05,2.83131e-05,-9.209e-06,3.2072e-05,8.75915e-06,-1.83964e-05,6.01664e-06,1.12844e-06,0
-3.02815e-05,2.90917e-05,-9.18802e-06,1.60283e-05,8.65813e-06,-1.67574e-05,6.67669e-06,5.32413e-06,0
-3.11903e-05,2.82699e-05,-8.83909e-06,3.76029e-06,8.75773e-06,-1.78603e-05,5.19391e-06,6.58449e-06,0
-3.13532e-05,2.65869e-05,-9.8461e-06,-3.37364e-06,9.00206e-06,-1.86733e-05,3.33099e-06,5.148e-06,0
-3.124e-05,2.90787e-05,-1.1301e-05,-5.72493e-06,9.40049e-06,-1.78986e-05,1.95958e-06,3.5303e-06,0
-3.0704e-05,4.04105e-05,-1.12679e-05,-5.15496e-06,1.11367e-05,-1.64905e-05,1.02836e-06,4.43296e-06,0
-3.00839e-05,6.24078e-05,-9.50191e-06,-3.94991e-06,1.44256e-05,-1.42025e-05,8.71799e-07,6.32595e-06,0
-2.94236e-05,8.62045e-05,-8.01247e-06,-3.48518e-06,1.78856e-05,-1.1495e-05,1.8422e-06,6.18973e-06,0
-2.93073e-05,9.97609e-05,-8.19114e-06,-3.46365e-06,1.85545e-05,-9.49904e-06,2.24424e-06,4.74123e-06,0
-3.00549e-05,9.97649e-05,-9.09832e-06,-4.4326e-06,1.51041e-05,-8.69095e-06,1.38006e-06,4.79208e-06,0
-3.06366e-05,8.76638e-05,-9.74686e-06,-5.34771e-06,1.05857e-05,-8.38031e-06,8.20645e-07,6.38105e-06,0
-3.0326e-05,6.59582e-05,-9.98238e-06,-4.51611e-06,8.39657e-06,-9.07055e-06,1.9727e-06,7.15555e-06,0
-2.95066e-05,3.92131e-05,-9.94688e-06,-3.05225e-06,8.84373e-06,-9.88272e-06,4.02622e-06,5.30418e-06,0
-2.91968e-05,1.36642e-05,-1.03519e-05,-1.80488e-06,9.99224e-06,-1.02361e-05,5.71662e-06,1.47793e-06,0
-3.02256e-05,-8.56867e-06,-1.21278e-05,3.30999e-07,1.02824e-05,-1.07069e-05,7.75123e-06,-9.80935e-07,0
-3.1488e-05,-2.71414e-05,-1.30902e-05,2.90914e-06,9.48231e-06,-1.16682e-05,9.31003e-06,-5.21452e-07,0
-3.1286e-05,-4.08121e-05,-1.07171e-05,2.11134e-06,7.1098e-06,-1.23341e-05,1.01208e-05,5.18489e-07,0
-3.03022e-05,-4.51858e-05,-6.46309e-06,-1.37262e-06,5.00024e-06,-1.30843e-05,1.14388e-05,-8.19416e-07,0
-2.9048e-05,-3.8508e-05,-3.75774e-06,-3.23915e-06,5.26332e-06,-1.35846e-05,1.15974e-05,-2.72893e-06,0
-2.7973e-05,-2.90439e-05,-5.50054e-06,-3.25018e-06,7.19947e-06,-1.36335e-05,7.36486e-06,-2.25576e-06,0
-2.82219e-05,-2.35085e-05,-1.0188e-05,-4.62851e-06,9.91352e-06,-1.40144e-05,2.47938e-07,-9.28857e-07,0
-2.95742e-05,-2.06961e-05,-1.17141e-05,-6.97432e-06,1.26877e-05,-1.55317e-05,-3.29926e-06,1.69226e-06,0
-3.12684e-05,-1.91175e-05,-9.49677e-06,-6.35989e-06,1.33794e-05,-1.68994e-05,1.3703e-06,4.94349e-06,0
-3.24756e-05,-1.62423e-05,-7.42072e-06,-3.26149e-06,1.23942e-05,-1.6826e-05,9.68507e-06,5.18056e-06,0
-3.19564e-05,-1.03225e-05,-5.96695e-06,-2.37328e-06,1.28183e-05,-1.64001e-05,1.66779e-05,3.59134e-06,0
-3.0577e-05,-2.64319e-06,-4.10708e-06,-2.74292e-06,1.47343e-05,-1.55423e-05,2.11951e-05,3.77057e-06,0
-2.99219e-05,8.55891e-06,-3.50922e-06,-2.08183e-06,1.61681e-05,-1.37592e-05,2.29569e-05,6.05448e-06,0
-3.04297e-05,2.30458e-05,-4.21362e-06,-1.15281e-06,1.57174e-05,-1.168e-05,2.38067e-05,7.53528e-06,0
-3.07662e-05,3.35701e-05,-4.96394e-06,-2.14098e-06,1.46703e-05,-1.09343e-05,2.45234e-05,6.69313e-06,0
-3.08663e-05,3.42926e-05,-5.03874e-06,-2.28803e-06,1.46516e-05,-1.04528e-05,2.68972e-05,4.58867e-06,0
-3.07399e-05,2.6222e-05,-4.82241e-06,-1.43718e-06,1.50431e-05,-1.02845e-05,3.25264e-05,4.49234e-06,0
-2.99698e-05,1.32332e-05,-4.04811e-06,-3.69136e-06,1.56363e-05,-1.08105e-05,4.02086e-05,5.52352e-06,0
-2.942e-05,-6.05758e-07,-2.62544e-06,-8.94809e-06,1.57886e-05,-9.41398e-06,4.66677e-05,5.43749e-06,0
-2.88522e-05,-1.1313e-05,-2.23138e-06,-1.52552e-05,1.45374e-05,-6.5113e-06,4.8866e-05,4.90613e-06,0
-2.85837e-05,-1.48341e-05,-3.34771e-06,-1.80928e-05,1.34817e-05,-4.30976e-06,4.68196e-05,3.75311e-06,0
-2.88168e-05,-1.0222e-05,-6.01652e-06,-1.68284e-05,1.50617e-05,-3.06927e-06,4.18185e-05,2.045e-06,0
-3.07305e-05,-2.24653e-06,-7.1376e-06,-1.35142e-05,1.7178e-05,-2.74174e-06,3.5248e-05,3.06639e-07,0
-3.30789e-05,4.21429e-06,-6.23141e-06,-9.91415e-06,1.63257e-05,-3.18247e-06,2.85145e-05,-2.23719e-06,0
-3.3165e-05,8.64672e-06,-5.47384e-06,-7.12002e-06,1.46843e-05,-2.73848e-06,2.15249e-05,-5.02262e-06,0
-3.18249e-05,1.29977e-05,-6.36254e-06,-5.82325e-06,1.69743e-05,-1.6307e-06,1.44764e-05,-5.88724e-06,0
-3.20002e-05,1.72786e-05,-8.47054e-06,-5.4141e-06,2.11467e-05,-8.17859e-07,9.24997e-06,-5.31109e-06,0
-3.34263e-05,2.00605e-05,-9.31424e-06,-5.18401e-06,2.35016e-05,4.1795e-07,5.81356e-06,-3.9582e-06,0
-3.43047e-05,1.97492e-05,-6.74919e-06,-5.39843e-06,2.44502e-05,2.18217e-06,2.56896e-06,-2.14251e-06,0
-3.41203e-05,1.57192e-05,-3.02031e-06,-5.35113e-06,2.36363e-05,2.86988e-06,-7.6363e-07,-9.46775e-07,0
-3.27948e-05,1.1531e-05,-1.63948e-06,-5.52603e-06,2.25186e-05,7.80114e-07,-2.89701e-06,-5.77606e-07,0
-3.11422e-05,9.77396e-06,-2.5969e-06,-6.27306e-06,2.24539e-05,-1.7867e-06,-3.83253e-06,3.80005e-07,0
-2.88632e-05,1.04556e-05,-4.88681e-06,-5.62437e-06,2.23071e-05,-2.77501e-06,-4.2572e-06,4.84019e-07,0
-2.72324e-05,1.24534e-05,-6.64106e-06,-4.42087e-06,2.14436e-05,-2.17284e-06,-3.11012e-06,-1.2694e-06,0
-2.70193e-05,1.22937e-05,-8.14515e-06,-5.55342e-06,2.14883e-05,-9.29633e-07,3.5916e-07,-2.79683e-06,0
-2.80822e-05,1.323e-05,-8.32194e-06,-9.28472e-06,2.23089e-05,2.38222e-08,3.33161e-06,-1.98117e-06,0
-3.03144e-05,1.70405e-05,-6.97974e-06,-1.41829e-05,2.38337e-05,8.79155e-07,5.23057e-06,6.74722e-07,0
-3.12358e-05,1.85439e-05,-7.36336e-06,-1.94714e-05,2.55622e-05,1.17088e-06,6.65437e-06,2.33916e-06,0
-3.02193e-05,1.85892e-05,-8.22471e-06,-2.35486e-05,2.5638e-05,4.6107e-07,7.47387e-06,1.81863e-06,0
-3.01339e-05,1.94457e-05,-8.61792e-06,-2.26474e-05,2.4815e-05,-2.14676e-06,8.48634e-06,1.18559e-06,0
-3.17594e-05,2.06233e-05,-8.23244e-06,-1.90134e-05,2.30426e-05,-5.85663e-06,8.50866e-06,6.96869e-07,0
-3.26686e-05,1.94944e-05,-7.18316e-06,-1.62948e-05,2.17343e-05,-8.47857e-06,9.09563e-06,-3.76486e-07,0
-3.11545e-05,1.70308e-05,-7.19121e-06,-1.22668e-05,2.08128e-05,-8.89229e-06,9.72913e-06,-9.41261e-07,0
-2.86672e-05,1.57682e-05,-8.02684e-06,-6.15801e-06,1.86209e-05,-8.03771e-06,1.00667e-05,-1.66797e-06,0
-2.73404e-05,1.51269e-05,-8.51938e-06,-4.77912e-08,1.45381e-05,-8.16951e-06,1.04487e-05,-2.62127e-06,0
-2.70177e-05,1.39313e-05,-7.94554e-06,3.69487e-06,1.073e-05,-8.97506e-06,1.11105e-05,-3.53571e-06,0
-2.71775e-05,1.1317e-05,-7.95636e-06,5.46411e-06,9.17763e-06,-9.62744e-06,1.24803e-05,-4.46265e-06,0
-2.72897e-05,1.0222e-05,-9.15257e-06,6.51029e-06,9.67401e-06,-1.11821e-05,1.27914e-05,-5.48718e-06,0
-2.75198e-05,1.08735e-05,-1.18116e-05,6.52643e-06,1.08498e-05,-1.30129e-05,1.19119e-05,-5.21374e-06,0
-2.8741e-05,1.15323e-05,-1.56932e-05,4.99612e-06,1.12141e-05,-1.23212e-05,1.14645e-05,-3.7498e-06,0
-3.07644e-05,1.18022e-05,-1.8885e-05,1.3652e-06,1.09983e-05,-1.00858e-05,1.24723e-05,-3.09681e-06,0
-3.29365e-05,1.19048e-05,-1.93089e-05,-3.75146e-06,1.01664e-05,-9.1794e-06,1.35121e-05,-3.62254e-06,0
-3.41557e-05,1.15691e-05,-1.72482e-05,-9.36389e-06,9.06463e-06,-9.70037e-06,1.35293e-05,-3.72608e-06,0
-3.37249e-05,9.92676e-06,-1.53902e-05,-1.40729e-05,7.0985e-06,-9.3518e-06,1.27888e-05,-2.43866e-06,0
-3.36505e-05,6.69127e-06,-1.51503e-05,-1.60999e-05,5.28148e-06,-7.34372e-06,1.17511e-05,-7.4593e-07,0
-3.5386e-05,2.2114e-06,-1.40245e-05,-1.4122e-05,4.92848e-06,-6.76617e-06,1.0827e-05,-4.53582e-08,0
-3.58804e-05,-9.8016e-07,-1.09593e-05,-1.08302e-05,5.09952e-06,-8.51865e-06,1.2494e-05,-1.15511e-06,0
-3.36099e-05,-1.70453e-06,-7.98619e-06,-7.32885e-06,5.88996e-06,-8.94565e-06,1.83954e-05,-2.89066e-06,0
-3.24889e-05,-1.5018e-06,-6.66427e-06,-2.6409e-06,7.53224e-06,-7.82838e-06,2.76487e-05,-4.1766e-06,0
-3.32488e-05,-5.98971e-08,-6.60824e-06,3.12584e-06,8.23708e-06,-7.35465e-06,3.49996e-05,-4.79131e-06,0
-3.33769e-05,3.17785e-06,-6.64641e-06,7.56938e-06,8.80507e-06,-7.70659e-06,3.73863e-05,-4.33443e-06,0
-3.25965e-05,6.67452e-06,-6.21946e-06,7.71322e-06,9.79461e-06,-9.67011e-06,3.71953e-05,-4.63169e-06,0
-3.22398e-05,9.06274e-06,-4.45642e-06,7.94684e-06,1.39334e-05,-1.03597e-05,3.47745e-05,-5.71261e-06,0
-3.25099e-05,1.18217e-05,-3.54404e-06,1.07021e-05,2.03728e-05,-9.11388e-06,2.92381e-05,-5.55046e-06,0
-3.04919e-05,1.45332e-05,-4.16834e-06,1.34056e-05,2.27056e-05,-8.70007e-06,2.16807e-05,-4.44282e-06,0
-2.8252e-05,1.55476e-05,-6.17306e-06,1.47592e-05,2.0432e-05,-8.64908e-06,1.25028e-05,-3.2865e-06,0
-2.87438e-05,1.59699e-05,-8.08633e-06,1.43791e-05,1.7743e-05,-9.40891e-06,2.49415e-06,-3.66945e-06,0
-3.04913e-05,1.53506e-05,-7.72569e-06,1.34969e-05,1.68923e-05,-1.13236e-05,-6.15944e-06,-5.38898e-06,0
-3.03982e-05,1.60154e-05,-7.02861e-06,1.44682e-05,1.57392e-05,-1.24657e-05,-1.08343e-05,-5.33123e-06,0
-3.02339e-05,1.83401e-05,-7.85464e-06,1.7424e-05,1.42771e-05,-1.17105e-05,-1.03465e-05,-1.73837e-06,0
-3.1772e-05,2.0915e-05,-9.36313e-06,1.90556e-05,1.29994e-05,-9.72322e-06,-6.42809e-06,1.54271e-06,0
-3.23419e-05,2.15887e-05,-1.01553e-05,1.72817e-05,1.30998e-05,-8.11117e-06,-8.46755e-07,2.79147e-06,0
-3.21135e-05,2.14294e-05,-1.0098e-05,1.14281e-05,1.3955e-05,-6.23044e-06,3.39071e-06,2.45172e-06,0
-3.13786e-05,2.14062e-05,-8.65476e-06,-5.3534e-07,1.41672e-05,-4.4821e-06,7.12898e-06,1.30376e-06,0
-3.02315e-05,1.979e-05,-6.47419e-06,-1.41972e-05,1.33435e-05,-3.88394e-06,9.74353e-06,-3.83915e-07,0
-2.88451e-05,1.74623e-05,-5.88128e-06,-1.77313e-05,1.19898e-05,-3.83503e-06,6.94081e-06,-1.6255e-06,0
-2.79896e-05,1.54978e-05,-7.6098e-06,-8.99917e-06,1.11131e-05,-4.49424e-06,-9.08303e-07,-1.19242e-06,0
-2.69178e-05,1.45596e-05,-9.20473e-06,3.36754e-07,1.01621e-05,-6.23004e-06,-6.87914e-06,-4.43002e-07,0
-2.63361e-05,1.34583e-05,-9.46012e-06,2.20699e-06,9.84071e-06,-7.95037e-06,-7.81393e-06,4.76973e-07,0
-2.64904e-05,1.16657e-05,-9.16903e-06,6.8846e-07,9.34509e-06,-7.77852e-06,-6.61189e-06,1.37701e-06,0
-2.77216e-05,8.93218e-06,-9.13838e-06,8.59517e-07,8.23994e-06,-6.09843e-06,-4.94849e-06,2.16871e-06,0
-2.91917e-05,7.24944e-06,-1.01724e-05,1.38019e-06,7.83974e-06,-4.15993e-06,-1.99027e-06,2.04917e-06,0
-2.95694e-05,6.71713e-06,-1.15733e-05,1.25388e-06,7.86687e-06,-3.6883e-06,3.53752e-06,1.63212e-06,0
-2.95534e-05,7.20316e-06,-1.21369e-05,5.83954e-07,7.30814e-06,-4.78834e-06,8.70303e-06,1.93637e-06,0
-2.97502e-05,7.89946e-06,-1.20884e-05,-3.12662e-06,5.99285e-06,-7.03453e-06,9.77794e-06,3.20837e-06,0
-3.00642e-05,7.88074e-06,-1.12663e-05,-1.3386e-05,5.25875e-06,-9.72326e-06,7.63945e-06,5.24288e-06,0
-2.9196e-05,7.94611e-06,-9.63863e-06,-3.03673e-05,6.42475e-06,-1.06489e-05,6.46732e-06,7.99154e-06,0
-2.8316e-05,8.58746e-06,-8.9117e-06,-4.72532e-05,7.09613e-06,-1.02192e-05,7.34923e-06,8.86359e-06,0
-2.81082e-05,1.63582e-05,-1.07983e-05,-5.37888e-05,6.18873e-06,-9.29396e-06,9.08272e-06,8.34446e-06,0
-2.83973e-05,3.05583e-05,-1.39705e-05,-4.65141e-05,5.13919e-06,-8.22631e-06,1.25129e-05,6.85183e-06,0
-2.9861e-05,4.12054e-05,-1.42762e-05,-3.33877e-05,5.74351e-06,-9.51139e-06,1.85171e-05,3.54275e-06,0
-3.08847e-05,4.3921e-05,-1.21422e-05,-2.16778e-05,7.79122e-06,-1.22887e-05,2.39673e-05,2.72198e-06,0
-2.8579e-05,3.787e-05,-1.09469e-05,-1.70494e-05,8.09895e-06,-1.41453e-05,2.81639e-05,5.07405e-06,0
-2.69119e-05,2.52774e-05,-1.08599e-05,-1.98855e-05,8.33004e-06,-1.50117e-05,3.12157e-05,6.74259e-06,0
-2.77973e-05,9.24216e-06,-9.94331e-06,-2.72967e-05,9.1003e-06,-1.52172e-05,3.23652e-05,6.8139e-06,0
-2.87471e-05,-8.80923e-06,-6.78135e-06,-3.79954e-05,6.84427e-06,-1.44562e-05,3.14643e-05,6.62733e-06,0
-2.91415e-05,-2.48248e-05,-1.91988e-06,-4.47179e-05,2.59677e-06,-1.33884e-05,2.94329e-05,6.21756e-06,0
-2.88527e-05,-3.00079e-05,9.00482e-07,-4.69887e-05,-2.62674e-07,-1.1811e-05,2.74296e-05,6.97513e-06,0
-2.77198e-05,-2.5085e-05,1.16691e-07,-4.57133e-05,9.06007e-07,-1.01541e-05,2.47131e-05,7.75422e-06,0
-2.80739e-05,-1.62866e-05,-2.75628e-06,-4.04772e-05,4.53414e-06,-8.94562e-06,2.15434e-05,7.05871e-06,0
-2.93838e-05,-8.29246e-06,-4.99047e-06,-3.15951e-05,6.61015e-06,-7.95353e-06,1.88382e-05,6.13551e-06,0
-2.99504e-05,-3.50521e-06,-6.03743e-06,-1.76765e-05,6.44844e-06,-8.11283e-06,1.75616e-05,5.60904e-06,0
-3.06776e-05,-9.06837e-07,-6.43262e-06,1.626e-06,5.76598e-06,-8.12266e-06,1.74742e-05,4.86421e-06,0
-3.05169e-05,6.16811e-07,-6.19704e-06,2.36017e-05,4.49304e-06,-7.12916e-06,1.93537e-05,4.88019e-06,0
-2.95813e-05,2.27094e-06,-6.22693e-06,4.1252e-05,2.30264e-06,-6.31954e-06,2.14628e-05,6.1889e-06,0
-2.91927e-05,4.14743e-06,-5.48367e-06,4.85139e-05,1.50652e-06,-6.48034e-06,2.16588e-05,7.31168e-06,0
-2.97082e-05,6.8884e-06,-3.47797e-06,4.48475e-05,3.25052e-06,-6.21969e-06,2.10991e-05,6.79457e-06,0
-2.97505e-05,8.38025e-06,-2.18356e-06,3.5008e-05,5.94466e-06,-5.73649e-06,2.23878e-05,5.59276e-06,0
-3.0145e-05,7.8412e-06,-3.70018e-06,2.48381e-05,6.40922e-06,-6.00287e-06,2.50051e-05,5.63261e-06,0
-3.15561e-05,5.80322e-06,-6.49926e-06,2.17346e-05,2.94368e-06,-7.29715e-06,2.48252e-05,6.92436e-06,0
-3.37037e-05,4.63944e-06,-9.1108e-06,2.44307e-05,-1.76548e-06,-8.11776e-06,2.10644e-05,7.44429e-06,0
-3.47324e-05,4.57091e-06,-1.115e-05,2.59789e-05,-3.09347e-06,-6.75635e-06,1.54696e-05,5.91399e-06,0
-3.4431e-05,7.0047e-06,-1.20128e-05,2.21369e-05,-1.76222e-06,-5.30592e-06,9.23853e-06,4.45885e-06,0
-3.42712e-05,1.23446e-05,-1.23296e-05,1.10408e-05,3.78179e-07,-6.0439e-06,4.00868e-06,5.11192e-06,0
-3.27305e-05,1.50255e-05,-1.27874e-05,-6.84648e-07,2.39376e-06,-8.27957e-06,2.10059e-06,8.10017e-06,0
-3.04887e-05,1.52845e-05,-1.23281e-05,-7.64901e-06,3.98439e-06,-9.87633e-06,5.6571e-06,8.22651e-06,0
-3.0024e-05,1.68768e-05,-1.11333e-05,-1.1054e-05,6.99877e-06,-9.14076e-06,7.88306e-06,6.03396e-06,0
-3.04593e-05,1.62518e-05,-1.10398e-05,-1.16772e-05,1.1672e-05,-7.33983e-06,1.64371e-07,4.80934e-06,0
-3.14285e-05,1.48825e-05,-1.1499e-05,-1.62579e-05,1.6846e-05,-5.98277e-06,-1.06734e-05,4.52779e-06,0
-3.23021e-05,1.67068e-05,-1.01742e-05,-2.77288e-05,2.01283e-05,-4.93053e-06,-1.47505e-05,5.7493e-06,0
-3.24793e-05,1.81905e-05,-8.83742e-06,-3.69272e-05,2.00032e-05,-4.5532e-06,-9.65167e-06,7.08651e-06,0
-3.18576e-05,1.67696e-05,-8.13723e-06,-3.71531e-05,1.889e-05,-4.54225e-06,6.59652e-07,9.3495e-06,0
-2.92429e-05,1.36475e-05,-7.52398e-06,-2.76166e-05,2.10746e-05,-3.10959e-06,1.16826e-05,1.05688e-05,0
-2.7341e-05,1.24568e-05,-6.54537e-06,-1.33091e-05,2.65516e-05,-1.07608e-06,2.22029e-05,9.7238e-06,0
-2.81538e-05,1.34436e-05,-4.86119e-06,-4.09994e-06,3.13588e-05,-1.44498e-06,3.06912e-05,8.68261e-06,0
-2.94305e-05,1.54376e-05,-4.4775e-06,-1.41763e-06,3.23342e-05,-2.90936e-06,3.47755e-05,7.84468e-06,0
-2.98495e-05,1.687e-05,-5.41808e-06,-1.82508e-07,2.94649e-05,-3.69034e-06,3.33563e-05,8.29268e-06,0
-2.96108e-05,1.78932e-05,-6.6975e-06,1.82555e-06,2.61376e-05,-4.62157e-06,3.01312e-05,8.99873e-06,0
-2.8597e-05,1.93434e-05,-7.75787e-06,2.39535e-06,2.46108e-05,-6.1042e-06,2.78237e-05,8.32219e-06,0
-2.81843e-05,2.06156e-05,-9.4879e-06,1.57844e-06,2.41011e-05,-6.86934e-06,2.3871e-05,6.91532e-06,0
-2.88895e-05,2.21811e-05,-1.12121e-05,2.40603e-06,2.22616e-05,-7.19452e-06,1.78042e-05,5.47547e-06,0
-3.06729e-05,2.56779e-05,-1.21542e-05,4.28329e-06,1.97903e-05,-8.07364e-06,1.10462e-05,4.33017e-06,0
-3.25084e-05,3.00059e-05,-1.28487e-05,6.02879e-06,2.02152e-05,-9.62627e-06,3.70841e-06,3.0112e-06,0
-3.27759e-05,3.15828e-05,-1.36131e-05,7.01563e-06,2.34877e-05,-1.13288e-05,-2.22567e-06,1.11809e-06,0
-3.12706e-05,2.97141e-05,-1.35741e-05,7.13963e-06,2.58695e-05,-1.15121e-05,-4.82203e-06,-1.08493e-06,0
-2.88725e-05,2.70557e-05,-1.29844e-05,5.1407e-06,2.53373e-05,-1.10379e-05,-5.33707e-06,-2.61589e-06,0
-2.75582e-05,2.64604e-05,-1.27568e-05,1.33438e-06,2.36199e-05,-1.16442e-05,-6.81253e-06,-1.7788e-06,0
-2.85395e-05,2.72545e-05,-1.21087e-05,-1.64119e-06,2.24581e-05,-1.24319e-05,-1.05938e-05,1.04659e-06,0
-3.03625e-05,2.6727e-05,-1.06989e-05,-1.55747e-06,2.11992e-05,-1.36074e-05,-1.3797e-05,3.58263e-06,0
-3.12233e-05,2.37713e-05,-1.05148e-05,-5.04941e-07,1.86681e-05,-1.50314e-05,-1.39119e-05,4.03666e-06,0
-3.01691e-05,1.92908e-05,-1.10508e-05,-5.82109e-07,1.40188e-05,-1.65152e-05,-1.09915e-05,1.74749e-06,0
-3.02353e-05,1.52808e-05,-1.05019e-05,-1.63308e-06,9.98074e-06,-1.81896e-05,-6.22471e-06,-2.10346e-06,0
-3.27126e-05,1.35712e-05,-7.73561e-06,-3.38298e-06,1.0788e-05,-1.89284e-05,-2.28348e-06,-4.90058e-06,0
-3.39728e-05,1.40057e-05,-4.43163e-06,-5.22089e-06,1.25028e-05,-1.80765e-05,7.06303e-07,-6.72695e-06,0
-3.43622e-05,1.35279e-05,-4.11341e-06,-6.0983e-06,1.28512e-05,-1.6596e-05,4.46959e-06,-8.37069e-06,0
-3.29671e-05,1.24965e-05,-4.26546e-06,-5.84443e-06,1.41778e-05,-1.56965e-05,8.29549e-06,-9.09344e-06,0
-3.06422e-05,1.17538e-05,-4.60484e-06,-6.72649e-06,1.61522e-05,-1.61679e-05,1.05371e-05,-9.61348e-06,0
-2.87377e-05,1.22917e-05,-5.42575e-06,-6.58582e-06,1.62565e-05,-1.74665e-05,4.48378e-06,-9.09615e-06,0
-2.74399e-05,1.36823e-05,-5.93409e-06,-3.72144e-06,1.4965e-05,-1.84272e-05,-2.02108e-05,-8.29471e-06,0
-2.85499e-05,1.25404e-05,-7.59841e-06,7.74296e-07,1.54187e-05,-1.99037e-05,-5.40045e-05,-8.78613e-06,0
-3.10923e-05,1.11109e-05,-9.9162e-06,3.2743e-06,1.69834e-05,-1.91513e-05,-7.04085e-05,-9.45591e-06,0
-3.20458e-05,1.07283e-05,-1.18807e-05,1.04396e-06,1.76511e-05,-1.6729e-05,-5.65269e-05,-1.04924e-05,0
-3.06742e-05,9.12797e-06,-1.31237e-05,-2.35998e-06,1.76004e-05,-1.49174e-05,-2.17683e-05,-1.20522e-05,0
-3.05671e-05,4.5362e-06,-1.27943e-05,-4.46331e-06,1.79687e-05,-1.39832e-05,1.56732e-05,-1.27063e-05,0
-3.16535e-05,2.04709e-06,-1.03745e-05,-5.10206e-06,1.69197e-05,-1.38745e-05,4.5713e-05,-1.05742e-05,0
-3.23905e-05,4.66114e-06,-7.29879e-06,-6.8372e-06,1.4008e-05,-1.43208e-05,6.65617e-05,-6.63783e-06,0
-3.1817e-05,8.19341e-06,-4.64492e-06,-1.23723e-05,1.21457e-05,-1.54882e-05,7.82659e-05,-3.44257e-06,0
-3.06573e-05,8.52272e-06,-3.88896e-06,-1.92731e-05,1.26362e-05,-1.63464e-05,7.9258e-05,-2.68562e-06,0
-3.05108e-05,6.15979e-06,-6.22329e-06,-2.26769e-05,1.40855e-05,-1.55413e-05,6.26919e-05,-3.57251e-06,0
-3.1139e-05,5.31586e-06,-9.38677e-06,-2.31014e-05,1.4173e-05,-1.25832e-05,2.49273e-05,-3.4907e-06,0
-3.1812e-05,7.94402e-06,-1.06101e-05,-2.32358e-05,1.33912e-05,-9.99535e-06,-1.57106e-05,-2.30016e-06,0
-3.2628e-05,1.15726e-05,-9.14818e-06,-2.06937e-05,1.49863e-05,-7.70191e-06,-3.12128e-05,-1.41697e-06,0
-3.36283e-05,1.2119e-05,-6.25357e-06,-1.27665e-05,1.91458e-05,-5.3522e-06,-1.5429e-05,-9.58453e-07,0
-3.30386e-05,1.14676e-05,-4.58731e-06,-3.48404e-07,2.23941e-05,-3.91793e-06,1.70532e-05,-7.15683e-07,0
-3.1039e-05,1.22573e-05,-3.86379e-06,1.27842e-05,2.52542e-05,-3.09704e-06,4.82781e-05,-6.07946e-07,0
-2.9614e-05,1.34386e-05,-1.7458e-06,1.99385e-05,3.11203e-05,-2.19829e-06,6.92387e-05,4.57009e-07,0
-3.00725e-05,1.51603e-05,-1.23996e-06,1.83927e-05,3.63321e-05,-1.79016e-06,8.06891e-05,1.65276e-06,0
-3.10184e-05,2.12246e-05,-3.68369e-06,1.21209e-05,3.52708e-05,-2.7359e-06,8.41396e-05,1.50771e-06,0
-3.00406e-05,3.19688e-05,-5.19733e-06,4.45403e-06,3.07583e-05,-3.84015e-06,8.15291e-05,9.13361e-07,0
-2.78066e-05,4.09507e-05,-3.29487e-06,-6.74635e-08,2.6518e-05,-2.51391e-06,7.27748e-05,1.87657e-06,0
-2.65459e-05,4.24019e-05,-1.18468e-06,5.38533e-07,2.40388e-05,-3.34083e-07,5.8602e-05,4.13273e-06,0
-2.70118e-05,3.58111e-05,-5.88989e-07,1.29717e-06,2.32778e-05,-1.11946e-06,4.45747e-05,4.60458e-06,0
-2.90132e-05,2.54969e-05,-4.44873e-07,-5.23626e-07,2.01807e-05,-4.15473e-06,3.46664e-05,3.60514e-06,0
-2.96864e-05,1.76369e-05,-2.43548e-06,-3.6046e-06,1.6198e-05,-5.54018e-06,2.92695e-05,2.59331e-06,0
-2.97798e-05,1.28897e-05,-5.16361e-06,-3.97749e-06,1.46843e-05,-5.88623e-06,2.51114e-05,2.40766e-06,0
-2.89772e-05,9.36058e-06,-7.24819e-06,-7.01048e-10,1.37995e-05,-7.40778e-06,2.17096e-05,4.17381e-06,0
-2.70874e-05,5.05641e-06,-6.73229e-06,3.89399e-06,1.18176e-05,-8.92358e-06,1.79073e-05,5.98005e-06,0
-2.66382e-05,1.83509e-07,-4.65881e-06,6.06899e-06,9.87623e-06,-9.36122e-06,1.2524e-05,5.4951e-06,0
-2.68564e-05,-4.56899e-06,-3.31926e-06,5.0899e-06,8.73986e-06,-9.52657e-06,7.28679e-06,4.07231e-06,0
-2.70515e-05,-6.51283e-06,-2.80357e-06,3.93309e-07,9.42929e-06,-1.09409e-05,3.57282e-06,2.92854e-06,0
-2.82943e-05,-2.33245e-06,-3.70884e-06,-5.42553e-06,1.06098e-05,-1.25262e-05,1.36997e-06,1.2594e-06,0
-3.10553e-05,3.66056e-06,-5.19516e-06,-9.46823e-06,1.03406e-05,-1.40116e-05,6.25998e-07,2.4838e-07,0
-3.24505e-05,6.94532e-06,-6.34779e-06,-1.02433e-05,9.20737e-06,-1.41364e-05,1.01147e-06,1.24923e-06,0
-3.19039e-05,6.41248e-06,-6.61982e-06,-8.06887e-06,7.51369e-06,-1.37717e-05,2.19772e-07,3.15849e-06,0
-3.0754e-05,5.13869e-06,-6.69711e-06,-4.75718e-06,5.68144e-06,-1.3404e-05,-2.42102e-06,3.80373e-06,0
-3.01252e-05,4.94921e-06,-7.28925e-06,-2.16667e-06,4.63581e-06,-1.20557e-05,-4.58611e-06,2.58325e-06,0
-2.98771e-05,5.91462e-06,-8.49345e-06,-1.90143e-07,4.91078e-06,-1.06226e-05,-3.26425e-06,3.61799e-07,0
-2.96462e-05,8.77749e-06,-9.42611e-06,1.7576e-06,4.66461e-06,-9.91718e-06,-7.14863e-08,-1.90463e-06,0
-2.89442e-05,1.34588e-05,-9.9137e-06,3.35852e-06,3.31332e-06,-8.473e-06,2.91265e-06,-2.91308e-06,0
-2.86142e-05,1.80934e-05,-9.53506e-06,3.29242e-06,1.51798e-06,-6.44136e-06,5.00761e-06,-2.48099e-06,0
-2.96405e-05,2.21562e-05,-9.23508e-06,2.06019e-06,3.05284e-07,-6.69466e-06,6.79409e-06,-2.06469e-06,0
-3.0725e-05,2.46362e-05,-1.0044e-05,-5.85656e-07,-7.75683e-07,-8.43139e-06,8.22826e-06,-1.63414e-06,0
-3.09471e-05,2.44599e-05,-1.05538e-05,-6.02327e-06,-1.06474e-06,-9.68858e-06,7.00213e-06,-1.74459e-06,0
-3.02661e-05,2.29731e-05,-1.03468e-05,-1.22172e-05,2.09086e-07,-8.53332e-06,3.34067e-06,-1.8376e-06,0
-2.94924e-05,2.32294e-05,-1.09149e-05,-1.58332e-05,2.16777e-06,-7.34877e-06,1.3626e-06,-8.42521e-07,0
-2.86823e-05,2.6389e-05,-1.1062e-05,-1.79686e-05,4.72768e-06,-7.41218e-06,3.40914e-06,3.56522e-07,0
-2.82839e-05,2.88473e-05,-9.69536e-06,-2.16788e-05,7.87853e-06,-9.00651e-06,7.49963e-06,1.16747e-06,0
-2.78996e-05,2.87929e-05,-9.5948e-06,-2.36239e-05,1.14009e-05,-1.19483e-05,1.0051e-05,-1.18858e-09,0
-2.7817e-05,2.75925e-05,-1.03475e-05,-2.05446e-05,1.39674e-05,-1.29066e-05,1.03006e-05,-2.82777e-06,0
-2.8896e-05,2.59601e-05,-1.17435e-05,-1.99862e-05,1.45836e-05,-1.06983e-05,1.04366e-05,-3.92604e-06,0
-2.95194e-05,2.30066e-05,-1.35037e-05,-2.2991e-05,1.55096e-05,-7.97218e-06,1.08757e-05,-1.42712e-06,0
-3.03082e-05,2.02e-05,-1.5094e-05,-2.52094e-05,1.67694e-05,-7.55098e-06,1.12293e-05,1.53049e-06,0
-2.96433e-05,1.6384e-05,-1.62696e-05,-2.37156e-05,1.65973e-05,-8.41411e-06,1.1569e-05,1.36493e-06,0
-2.78619e-05,1.20909e-05,-1.56853e-05,-1.81508e-05,1.63392e-05,-9.38392e-06,1.0449e-05,-9.06786e-07,0
-2.76807e-05,9.13871e-06,-1.4873e-05,-1.22331e-05,1.70475e-05,-8.39894e-06,8.47453e-06,-1.81845e-06,0
-2.7491e-05,6.34427e-06,-1.40259e-05,-7.46557e-06,1.7966e-05,-7.45559e-06,7.255e-06,-8.87315e-07,0
-2.67485e-05,2.47589e-06,-1.28149e-05,-2.75591e-06,1.74925e-05,-9.0132e-06,8.57437e-06,-7.64029e-07,0
-2.74693e-05,-8.69437e-07,-1.05897e-05,3.44828e-06,1.62989e-05,-1.10453e-05,1.37497e-05,-2.08843e-06,0
-2.9888e-05,-1.90366e-06,-8.60214e-06,7.93028e-06,1.50685e-05,-1.19467e-05,2.00238e-05,-3.02694e-06,0
-3.05448e-05,-3.94429e-07,-8.69618e-06,8.0442e-06,1.38015e-05,-1.16077e-05,2.43279e-05,-3.16024e-06,0
-2.91024e-05,3.97411e-06,-1.01396e-05,3.70092e-06,1.32052e-05,-1.05529e-05,2.47295e-05,-3.15577e-06,0
-2.85142e-05,9.41649e-06,-1.06954e-05,-2.84295e-06,1.33785e-05,-8.87245e-06,2.15308e-05,-2.62839e-06,0
-3.0105e-05,1.30629e-05,-1.02321e-05,-7.75629e-06,1.21974e-05,-7.48236e-06,1.61927e-05,-2.4682e-06,0
-3.19514e-05,1.27643e-05,-9.74503e-06,-6.80507e-06,9.37252e-06,-6.42976e-06,1.01965e-05,-3.8357e-06,0
-3.26383e-05,1.12057e-05,-7.82832e-06,-2.02834e-07,6.67062e-06,-5.99745e-06,4.22033e-06,-6.28047e-06,0
-3.24228e-05,1.01441e-05,-5.73732e-06,6.24421e-06,5.03539e-06,-5.8885e-06,-1.31085e-06,-7.45118e-06,0
-3.22992e-05,8.74931e-06,-5.98463e-06,9.23872e-06,4.55249e-06,-5.82625e-06,-6.66691e-06,-6.31113e-06,0
-3.21147e-05,6.47135e-06,-7.79475e-06,1.1047e-05,5.14172e-06,-5.64483e-06,-1.12993e-05,-5.83094e-06,0
-3.18353e-05,5.06706e-06,-8.42869e-06,1.17343e-05,6.57141e-06,-5.33542e-06,-1.3298e-05,-6.05192e-06,0
-3.11093e-05,5.46087e-06,-7.9967e-06,7.9748e-06,9.00387e-06,-5.82907e-06,-1.08812e-05,-4.6787e-06,0
-3.09795e-05,7.63316e-06,-7.65135e-06,1.44804e-06,1.21102e-05,-6.34745e-06,-4.857e-06,-2.41989e-06,0
-3.08042e-05,1.15391e-05,-6.40426e-06,-4.10108e-06,1.30254e-05,-5.85022e-06,2.47756e-06,-1.84882e-06,0
-2.85653e-05,1.44528e-05,-4.27256e-06,-7.84646e-06,1.13575e-05,-4.55019e-06,8.52053e-06,-2.28969e-06,0
-2.80634e-05,1.55458e-05,-4.12572e-06,-9.46663e-06,9.35148e-06,-4.08129e-06,1.1116e-05,-3.27357e-07,0
-2.92324e-05,1.63185e-05,-4.26111e-06,-8.9815e-06,1.05794e-05,-6.38845e-06,1.16121e-05,1.71851e-06,0
-3.03273e-05,1.72842e-05,-3.12446e-06,-5.65545e-06,1.20442e-05,-8.82998e-06,1.23071e-05,2.25682e-06,0
-3.07646e-05,1.88562e-05,-2.49856e-06,-1.83465e-06,1.17589e-05,-9.94132e-06,1.41946e-05,2.75648e-06,0
-3.00763e-05,1.87608e-05,-4.19046e-06,1.73787e-06,1.14546e-05,-1.12808e-05,1.51809e-05,2.05751e-06,0
-2.97292e-05,1.58454e-05,-7.52565e-06,4.61228e-06,1.05751e-05,-1.15158e-05,1.42451e-05,8.82605e-07,0
-3.00419e-05,1.37568e-05,-1.07286e-05,4.65767e-06,9.37705e-06,-1.04063e-05,1.24885e-05,1.42395e-06,0
-2.97342e-05,1.40424e-05,-1.17757e-05,3.73072e-06,7.55307e-06,-9.02063e-06,9.83395e-06,2.33726e-06,0
-2.91075e-05,1.54734e-05,-1.06955e-05,1.85026e-06,8.23436e-06,-7.66818e-06,6.28762e-06,2.29544e-06,0
-2.96247e-05,1.53004e-05,-1.07232e-05,-1.49454e-06,1.00475e-05,-7.26968e-06,4.2543e-06,1.82738e-06,0
-3.05694e-05,1.36089e-05,-1.22884e-05,-5.7226e-06,1.16107e-05,-8.30002e-06,4.5692e-06,1.47571e-06,0
-3.10689e-05,1.19248e-05,-1.34035e-05,-8.04266e-06,1.34284e-05,-9.21108e-06,5.53927e-06,1.70099e-06,0
-3.05105e-05,1.12358e-05,-1.24549e-05,-8.48884e-06,1.54945e-05,-9.95916e-06,6.33563e-06,2.13192e-06,0
-2.98111e-05,1.28171e-05,-1.10487e-05,-8.60836e-06,1.73585e-05,-1.08265e-05,7.22637e-06,3.09849e-06,0
-2.95777e-05,1.63267e-05,-1.00322e-05,-1.03276e-05,1.92225e-05,-1.12047e-05,7.39587e-06,4.36131e-06,0
-2.9137e-05,1.90817e-05,-9.81194e-06,-1.56153e-05,2.13592e-05,-1.0208e-05,6.22677e-06,4.40012e-06,0
-2.85009e-05,1.995e-05,-9.88771e-06,-2.33345e-05,2.23156e-05,-8.38772e-06,5.48665e-06,2.28129e-06,0
-2.83991e-05,1.93395e-05,-9.60792e-06,-2.95574e-05,2.1987e-05,-7.16294e-06,7.61637e-06,4.05146e-08,0
-2.97151e-05,1.58549e-05,-8.5002e-06,-3.2996e-05,2.02558e-05,-6.90626e-06,1.21677e-05,-1.19504e-06,0
-3.15348e-05,9.49627e-06,-7.28927e-06,-3.55165e-05,1.94068e-05,-7.3814e-06,1.54271e-05,-1.26283e-06,0
-3.25291e-05,5.96235e-06,-7.76541e-06,-3.67888e-05,2.03169e-05,-8.79856e-06,1.56614e-05,-8.7794e-08,0
-3.31569e-05,8.85275e-06,-1.01314e-05,-3.46363e-05,2.01213e-05,-1.1068e-05,1.41936e-05,1.05063e-06,0
-3.40393e-05,1.22725e-05,-1.16875e-05,-2.73004e-05,1.63384e-05,-1.25439e-05,1.35885e-05,8.76133e-07,0
-3.49093e-05,1.26923e-05,-1.11535e-05,-1.36239e-05,1.10316e-05,-1.28955e-05,1.52469e-05,-5.97846e-07,0
-3.47497e-05,1.00755e-05,-1.03295e-05,6.90628e-06,7.64333e-06,-1.35868e-05,1.71707e-05,-2.04048e-06,0
-3.46455e-05,6.96441e-06,-1.13586e-05,2.86617e-05,6.5886e-06,-1.50294e-05,1.68067e-05,-2.16505e-06,0
-3.55653e-05,6.65962e-06,-1.32495e-05,4.09917e-05,5.03082e-06,-1.56169e-05,1.70579e-05,-2.6052e-07,0
-3.41015e-05,7.17296e-06,-1.32733e-05,3.81275e-05,2.40324e-06,-1.61506e-05,2.02073e-05,1.98783e-06,0
-3.13358e-05,7.64349e-06,-1.41661e-05,2.57313e-05,5.27325e-07,-1.6518e-05,2.32349e-05,3.12775e-06,0
-3.04171e-05,1.0427e-05,-1.42318e-05,1.54147e-05,1.53756e-06,-1.52506e-05,2.42433e-05,3.20358e-06,0
-2.9426e-05,1.3097e-05,-1.12977e-05,1.17095e-05,3.83215e-06,-1.33394e-05,2.41073e-05,2.68986e-06,0
-2.91105e-05,1.22507e-05,-9.19679e-06,7.67394e-06,4.61857e-06,-1.1881e-05,2.3027e-05,1.87318e-06,0
-3.15328e-05,1.11662e-05,-9.23225e-06,-1.11357e-06,2.89417e-06,-1.08682e-05,2.14445e-05,2.1991e-06,0
-3.29674e-05,1.26001e-05,-8.69886e-06,-1.42441e-05,1.81288e-06,-1.04175e-05,2.05995e-05,3.79049e-06,0
-3.17789e-05,1.60201e-05,-5.87524e-06,-2.82758e-05,3.5776e-06,-9.92663e-06,2.04868e-05,5.93744e-06,0
-3.00276e-05,1.82407e-05,-1.99425e-06,-3.99658e-05,7.77353e-06,-8.24657e-06,2.01852e-05,8.91891e-06,0
-2.88788e-05,1.88849e-05,5.88106e-07,-4.79241e-05,1.33092e-05,-5.05194e-06,1.98578e-05,1.0772e-05,0
-2.88827e-05,1.86448e-05,6.34974e-07,-4.92827e-05,1.75218e-05,-2.47673e-06,1.94781e-05,9.84477e-06,0
-3.01054e-05,1.69551e-05,-1.62186e-06,-4.10963e-05,1.94673e-05,-2.87523e-06,1.86174e-05,6.66644e-06,0
-3.1073e-05,1.44061e-05,-4.17055e-06,-2.50052e-05,2.02405e-05,-4.51476e-06,1.82927e-05,3.74893e-06,0
-2.99706e-05,1.2267e-05,-4.3475e-06,-6.41674e-06,2.41312e-05,-5.757e-06,2.09317e-05,2.86795e-06,0
-2.82529e-05,1.05988e-05,-3.72158e-06,9.65642e-06,2.97205e-05,-5.71069e-06,2.76318e-05,3.23893e-06,0
-2.84025e-05,8.76062e-06,-3.85533e-06,2.06572e-05,3.25652e-05,-4.8553e-06,3.52331e-05,3.71904e-06,0
-3.05445e-05,8.59792e-06,-4.07794e-06,2.65747e-05,3.06173e-05,-4.28159e-06,3.99876e-05,3.44579e-06,0
-3.26615e-05,1.06778e-05,-3.78606e-06,2.79671e-05,2.68856e-05,-4.47746e-06,3.91237e-05,3.2268e-06,0
-3.35241e-05,1.34432e-05,-3.9752e-06,2.72048e-05,2.46933e-05,-5.23737e-06,3.3381e-05,3.45078e-06,0
-3.31719e-05,1.49634e-05,-5.73418e-06,2.39701e-05,2.37404e-05,-6.58803e-06,2.67416e-05,4.02783e-06,0
-3.25422e-05,1.47885e-05,-8.17289e-06,1.80431e-05,2.22655e-05,-8.42487e-06,2.15603e-05,5.66491e-06,0
-3.29702e-05,1.31039e-05,-9.70031e-06,1.18134e-05,2.17106e-05,-9.59067e-06,1.55465e-05,7.97977e-06,0
-3.43189e-05,9.79298e-06,-8.93965e-06,6.19796e-06,2.37892e-05,-1.00974e-05,5.12362e-06,8.89982e-06,0
-3.3829e-05,6.60596e-06,-6.46161e-06,7.31899e-07,2.59077e-05,-1.02968e-05,-7.91735e-06,6.17525e-06,0
-3.26652e-05,6.31881e-06,-5.03212e-06,-1.05498e-06,2.60507e-05,-1.08989e-05,-1.65283e-05,2.60043e-06,0
-3.23904e-05,7.70198e-06,-5.35606e-06,1.64565e-06,2.52014e-05,-1.16203e-05,-1.79488e-05,1.51539e-06,0
-3.12089e-05,8.32952e-06,-7.46363e-06,7.80772e-06,2.30815e-05,-1.27431e-05,-1.60335e-05,1.50974e-06,0
-2.98305e-05,7.87733e-06,-1.12361e-05,1.99917e-05,1.79447e-05,-1.47093e-05,-1.28373e-05,1.78194e-06,0
-3.02711e-05,6.17584e-06,-1.39694e-05,3.14111e-05,1.33403e-05,-1.61769e-05,-9.32327e-06,3.87448e-06,0
-3.26354e-05,5.04368e-06,-1.41531e-05,3.19201e-05,1.09719e-05,-1.78358e-05,-5.89402e-06,6.81321e-06,0
-3.39618e-05,5.8363e-06,-1.23252e-05,2.3814e-05,1.07964e-05,-2.04589e-05,-2.49177e-06,7.33968e-06,0
-3.33518e-05,6.31745e-06,-1.01747e-05,1.42187e-05,1.18233e-05,-2.20417e-05,6.37274e-07,6.65022e-06,0
-3.23189e-05,7.27929e-06,-1.00976e-05,8.81095e-06,1.38843e-05,-2.10148e-05,2.9411e-06,7.6764e-06,0
-3.13937e-05,8.14085e-06,-1.17201e-05,3.10529e-06,1.79838e-05,-1.86294e-05,3.25435e-06,9.31143e-06,0
-3.0496e-05,7.47998e-06,-1.13503e-05,-9.13727e-06,2.14431e-05,-1.75253e-05,1.24356e-06,9.44472e-06,0
-2.96196e-05,7.00072e-06,-9.69249e-06,-2.09681e-05,2.27635e-05,-1.70849e-05,-2.67383e-06,8.4172e-06,0
-2.80786e-05,7.63636e-06,-7.58135e-06,-2.57097e-05,1.99501e-05,-1.69378e-05,-6.00215e-06,7.31391e-06,0
-2.66231e-05,7.89175e-06,-6.30608e-06,-2.49029e-05,1.70469e-05,-1.67993e-05,-6.90212e-06,5.83088e-06,0
-2.76602e-05,7.54302e-06,-6.34522e-06,-2.40129e-05,1.89772e-05,-1.62638e-05,-4.81501e-06,4.42966e-06,0
-3.00618e-05,6.94133e-06,-6.40642e-06,-2.43002e-05,2.31164e-05,-1.55103e-05,-9.41939e-07,3.8876e-06,0
-3.02622e-05,6.50666e-06,-6.66089e-06,-2.55262e-05,2.60837e-05,-1.4492e-05,4.17525e-06,3.47508e-06,0
-2.87729e-05,7.64509e-06,-6.27777e-06,-2.73231e-05,2.63164e-05,-1.35694e-05,1.09351e-05,2.8004e-06,0
-2.85246e-05,9.54077e-06,-5.34302e-06,-2.91926e-05,2.40351e-05,-1.27979e-05,1.81699e-05,2.2662e-06,0
-2.94818e-05,9.74577e-06,-4.63463e-06,-3.377e-05,2.01607e-05,-1.27182e-05,2.48746e-05,2.32054e-06,0
-2.92957e-05,8.02037e-06,-4.45339e-06,-4.40034e-05,1.67838e-05,-1.25373e-05,3.01107e-05,1.82044e-06,0
-2.71906e-05,7.72151e-06,-3.2516e-06,-5.60744e-05,1.52512e-05,-1.13488e-05,3.31448e-05,3.65291e-07,0
-2.46132e-05,8.85955e-06,-2.04484e-06,-6.15468e-05,1.51198e-05,-9.7154e-06,3.47114e-05,-2.63373e-07,0
-2.29803e-05,1.03589e-05,-1.549e-06,-5.70748e-05,1.29337e-05,-8.65396e-06,3.52245e-05,2.23505e-07,0
-2.35498e-05,1.11924e-05,-1.72177e-06,-4.65838e-05,8.33685e-06,-7.68399e-06,3.46082e-05,1.08051e-06,0
-2.59322e-05,1.20565e-05,-2.95783e-06,-3.5425e-05,4.08341e-06,-7.64523e-06,3.40561e-05,1.14821e-06,0
-2.79546e-05,1.3227e-05,-4.45788e-06,-2.52624e-05,2.51408e-06,-7.88913e-06,3.27733e-05,5.091e-07,0
-2.91868e-05,1.4234e-05,-5.8486e-06,-1.55956e-05,2.75238e-06,-7.37544e-06,2.74363e-05,1.67536e-07,0
-3.02657e-05,1.69967e-05,-7.02033e-06,-9.44577e-06,1.91284e-06,-7.13234e-06,1.4376e-05,-1.37442e-06,0
-2.98793e-05,2.04964e-05,-7.67228e-06,-1.12824e-05,4.53167e-07,-7.72911e-06,1.19039e-06,-3.7071e-06,0
-2.9572e-05,1.98199e-05,-8.85099e-06,-1.72131e-05,5.12122e-07,-7.74209e-06,-2.54261e-06,-4.39522e-06,0
-2.99495e-05,1.6944e-05,-1.06848e-05,-2.06279e-05,6.68398e-07,-6.48456e-06,2.53754e-06,-3.28638e-06,0
-3.04492e-05,1.49463e-05,-1.15292e-05,-2.11088e-05,-3.80313e-07,-5.44417e-06,1.06031e-05,-2.47856e-06,0
-3.15932e-05,1.66538e-05,-1.19413e-05,-1.88451e-05,-2.8886e-07,-5.10169e-06,1.84487e-05,-1.97511e-06,0
-3.1259e-05,2.22652e-05,-1.01634e-05,-1.58589e-05,-3.38372e-07,-6.67439e-06,2.74016e-05,-1.40826e-07,0
-3.06439e-05,2.63593e-05,-7.34843e-06,-1.37942e-05,-1.92382e-06,-8.70235e-06,3.63172e-05,2.21202e-06,0
-2.9825e-05,2.74882e-05,-7.77643e-06,-1.00421e-05,-2.62579e-06,-1.06649e-05,4.23336e-05,3.7046e-06,0
-2.82531e-05,2.62459e-05,-9.00825e-06,-1.59448e-06,-2.02897e-06,-1.3262e-05,4.2655e-05,3.70994e-06,0
-2.67176e-05,2.51734e-05,-1.05582e-05,1.30569e-05,-1.29072e-06,-1.44359e-05,3.76954e-05,3.80792e-06,0
-2.51232e-05,2.43678e-05,-1.37965e-05,2.47692e-05,-1.14071e-06,-1.32067e-05,3.11246e-05,3.77261e-06,0
-2.45945e-05,2.29502e-05,-1.61069e-05,2.64756e-05,-2.61232e-06,-1.1857e-05,2.70258e-05,1.60891e-06,0
-2.60516e-05,2.09844e-05,-1.49696e-05,1.90906e-05,-3.36544e-06,-1.11228e-05,2.54917e-05,-1.3019e-06,0
-2.91572e-05,1.92104e-05,-1.26394e-05,1.07289e-05,-2.72206e-06,-1.03104e-05,2.55041e-05,-2.31194e-06,0
-3.18775e-05,1.84434e-05,-1.14939e-05,1.27929e-05,-2.97539e-06,-1.04542e-05,2.39846e-05,-2.59308e-06,0
-3.31939e-05,1.96701e-05,-1.09922e-05,2.60577e-05,-4.64661e-06,-1.10085e-05,1.91896e-05,-2.75895e-06,0
-3.26096e-05,2.24813e-05,-1.09344e-05,4.00105e-05,-5.15813e-06,-1.13859e-05,1.30367e-05,-3.07386e-06,0
-3.0522e-05,2.50332e-05,-1.06647e-05,4.3525e-05,-3.02458e-06,-1.20007e-05,6.79533e-06,-3.4738e-06,0
-2.81616e-05,2.55694e-05,-1.02929e-05,3.52571e-05,5.68216e-07,-1.24222e-05,1.71261e-06,-3.09889e-06,0
-2.62823e-05,2.32687e-05,-1.02842e-05,2.35575e-05,3.80652e-06,-1.05001e-05,-1.17054e-06,-1.39781e-06,0
-2.62486e-05,1.791e-05,-1.08301e-05,1.92905e-05,5.63272e-06,-7.32404e-06,-1.94453e-06,1.9057e-06,0
-2.88245e-05,1.11633e-05,-1.19805e-05,1.99151e-05,8.16131e-06,-6.44543e-06,-1.34918e-06,2.71458e-06,0
-3.21971e-05,1.01053e-05,-1.4262e-05,1.72615e-05,1.15295e-05,-8.65272e-06,-1.10084e-07,3.38482e-07,0
-3.39546e-05,1.87058e-05,-1.62936e-05,9.61549e-06,1.32098e-05,-1.05719e-05,3.07216e-07,-1.65731e-06,0
-3.35693e-05,3.03177e-05,-1.5467e-05,-2.16095e-06,1.28276e-05,-1.06178e-05,4.59087e-07,-2.76783e-06,0
-3.2761e-05,3.78879e-05,-1.21694e-05,-1.53204e-05,1.0812e-05,-1.074e-05,1.13543e-06,-3.35552e-06,0
-3.26268e-05,3.66895e-05,-8.80997e-06,-2.26657e-05,9.5561e-06,-9.63461e-06,2.01347e-06,-4.21009e-06,0
-3.16204e-05,2.52015e-05,-7.02379e-06,-2.48926e-05,9.13126e-06,-6.9818e-06,5.34081e-07,-5.5304e-06,0
-3.09306e-05,7.39111e-06,-7.88162e-06,-2.8274e-05,8.02937e-06,-4.58283e-06,-2.65495e-07,-4.45596e-06,0
-3.20651e-05,-1.12918e-05,-8.99537e-06,-2.90492e-05,6.88573e-06,-3.7942e-06,2.3164e-06,-3.98503e-06,0
-3.29532e-05,-2.60395e-05,-8.94906e-06,-2.46308e-05,2.79556e-06,-4.68814e-06,5.16571e-06,-4.74471e-06,0
-3.35764e-05,-3.47818e-05,-7.4146e-06,-2.1677e-05,-1.01198e-06,-5.18475e-06,5.55333e-06,-4.26543e-06,0
-3.32163e-05,-3.54612e-05,-5.03978e-06,-2.21506e-05,-1.07228e-06,-5.06253e-06,1.37551e-06,-5.24028e-06,0
-3.34314e-05,-2.95363e-05,-2.91182e-06,-2.10056e-05,-4.22523e-07,-5.48587e-06,-5.36106e-06,-5.86215e-06,0
-3.46325e-05,-1.90575e-05,-9.60543e-07,-1.49115e-05,-1.38119e-07,-5.8653e-06,-9.83998e-06,-3.88327e-06,0
-3.38453e-05,-9.73328e-06,-1.21359e-06,-6.05486e-06,9.40752e-07,-5.1402e-06,-6.56448e-06,-2.10657e-06,0
-3.29041e-05,-4.25468e-06,-2.61526e-06,-2.25671e-06,2.93462e-06,-3.97108e-06,2.01192e-06,-1.10223e-06,0
-3.19014e-05,-1.59137e-08,-4.02934e-06,-6.69024e-06,4.09205e-06,-2.87463e-06,1.19048e-05,-5.28543e-07,0
-3.01526e-05,4.12826e-06,-5.85797e-06,-1.35305e-05,3.74699e-06,-2.14163e-06,2.16863e-05,-4.521e-07,0
-2.85224e-05,7.10821e-06,-7.23049e-06,-1.54753e-05,2.93891e-06,-2.11615e-06,2.86458e-05,-6.18177e-08,0
-2.84899e-05,8.28702e-06,-6.78345e-06,-1.39702e-05,2.06831e-06,-2.54677e-06,3.21136e-05,5.30542e-07,0
-2.93957e-05,9.65873e-06,-5.88285e-06,-1.39878e-05,1.3575e-06,-3.31655e-06,3.25122e-05,8.77692e-07,0
-2.95303e-05,1.03081e-05,-6.65605e-06,-1.4244e-05,1.12687e-06,-3.47916e-06,3.13048e-05,6.02546e-07,0
-2.83499e-05,9.17223e-06,-8.27212e-06,-1.16935e-05,4.46199e-07,-2.84907e-06,2.90953e-05,1.42523e-07,0
-2.61689e-05,6.866e-06,-8.55412e-06,-8.27744e-06,-7.66779e-07,-1.811e-06,2.65471e-05,3.13651e-07,0
-2.45468e-05,5.60718e-06,-7.07864e-06,-7.39963e-06,-1.31918e-06,-1.04804e-06,2.4289e-05,2.7079e-06,0
-2.49254e-05,5.32905e-06,-6.11832e-06,-7.88129e-06,-5.06007e-07,-1.11187e-06,2.24213e-05,5.1217e-06,0
-2.62951e-05,5.79809e-06,-7.11315e-06,-6.66175e-06,9.95252e-07,-1.53766e-06,1.94452e-05,5.18756e-06,0
-2.72695e-05,6.65438e-06,-7.92935e-06,-3.61824e-06,3.56166e-06,-1.53545e-06,1.53891e-05,4.49144e-06,0
-2.79986e-05,8.46032e-06,-7.88755e-06,6.85028e-07,7.75208e-06,-8.59964e-07,1.19841e-05,3.12775e-06,0
-2.79089e-05,1.00048e-05,-7.98637e-06,6.8557e-06,1.4297e-05,3.40587e-07,9.55829e-06,1.75103e-06,0
-2.81548e-05,1.03279e-05,-7.59253e-06,1.36486e-05,2.36079e-05,1.70593e-06,7.93043e-06,1.1069e-06,0
-2.92521e-05,9.49912e-06,-7.38919e-06,1.81254e-05,3.24447e-05,1.83585e-06,8.04918e-06,2.94293e-08,0
-2.97303e-05,9.27321e-06,-7.764e-06,1.73299e-05,3.57971e-05,4.96253e-07,8.44998e-06,-7.83955e-07,0
-2.89506e-05,1.09871e-05,-8.729e-06,1.24879e-05,3.22982e-05,-1.28284e-06,7.30617e-06,-5.82172e-07,0
-2.89385e-05,1.19768e-05,-9.30346e-06,7.35706e-06,2.46761e-05,-3.19302e-06,4.95566e-06,2.56237e-06,0
-2.88569e-05,1.20356e-05,-7.99186e-06,5.05017e-06,1.89392e-05,-3.36262e-06,-4.88458e-06,7.11609e-06,0
-2.80834e-05,1.2341e-05,-5.65859e-06,5.59419e-06,1.53675e-05,-3.17976e-06,-3.07649e-05,9.2672e-06,0
-2.74295e-05,1.32161e-05,-4.0512e-06,6.60219e-06,1.32989e-05,-5.18775e-06,-5.85918e-05,8.80858e-06,0
-2.63956e-05,1.3232e-05,-4.20045e-06,5.8095e-06,1.57e-05,-6.68149e-06,-6.25337e-05,6.67897e-06,0
-2.71621e-05,1.30496e-05,-5.5382e-06,4.52374e-06,1.94274e-05,-6.64951e-06,-4.13792e-05,5.36656e-06,0
-2.94418e-05,1.33211e-05,-5.92498e-06,4.7565e-06,1.96563e-05,-5.56688e-06,-8.48142e-06,4.67243e-06,0
-3.07863e-05,1.36575e-05,-4.69975e-06,5.33895e-06,1.71319e-05,-4.6382e-06,2.10994e-05,4.92704e-06,0
-3.15322e-05,1.54823e-05,-3.88424e-06,5.41199e-06,1.59888e-05,-5.14938e-06,4.08607e-05,5.93307e-06,0
-3.1842e-05,1.98688e-05,-4.69376e-06,2.64789e-06,1.54905e-05,-6.74438e-06,5.10542e-05,6.29458e-06,0
-3.09975e-05,2.33388e-05,-5.43072e-06,-1.12195e-06,1.57747e-05,-8.38564e-06,5.23738e-05,5.51661e-06,0
-2.98888e-05,2.42655e-05,-4.66691e-06,-3.6224e-06,1.70551e-05,-9.20468e-06,4.86844e-05,3.53616e-06,0
-2.92911e-05,2.46164e-05,-4.66978e-06,-4.05103e-06,1.73901e-05,-9.81154e-06,4.46857e-05,1.57445e-06,0
-2.97046e-05,2.53252e-05,-6.18964e-06,-4.19237e-06,1.58434e-05,-1.11969e-05,4.29657e-05,9.73353e-07,0
-3.0695e-05,2.51138e-05,-8.31119e-06,-5.31511e-06,1.38792e-05,-1.39752e-05,4.13077e-05,1.18223e-06,0
-3.11496e-05,2.74449e-05,-1.01601e-05,-6.01988e-06,1.32821e-05,-1.69932e-05,3.97048e-05,1.16475e-06,0
-3.0845e-05,3.58126e-05,-1.08548e-05,-5.00952e-06,1.40185e-05,-1.8888e-05,3.82065e-05,1.0199e-06,0
-3.0906e-05,4.38365e-05,-9.73501e-06,-2.17483e-06,1.64242e-05,-1.88347e-05,3.6474e-05,9.36628e-07,0
-3.23959e-05,4.30539e-05,-8.03114e-06,3.13609e-07,1.84763e-05,-1.782e-05,3.40932e-05,1.54211e-06,0
-3.43972e-05,3.1705e-05,-7.78833e-06,1.83843e-06,1.83646e-05,-1.69233e-05,3.17861e-05,1.46305e-06,0
-3.66171e-05,1.64086e-05,-8.76536e-06,2.39501e-06,1.79666e-05,-1.7784e-05,2.97859e-05,8.54606e-08,0
-3.75239e-05,4.66171e-06,-8.88053e-06,2.12762e-06,1.97221e-05,-2.08219e-05,2.69501e-05,-9.6817e-07,0
-3.60268e-05,-1.49118e-07,-7.2981e-06,-1.08444e-06,2.22898e-05,-2.32547e-05,2.3521e-05,-1.55624e-06,0
-3.50151e-05,-1.2007e-06,-6.44384e-06,-3.24635e-06,2.25388e-05,-2.42645e-05,2.12288e-05,-2.37144e-06,0
-3.65622e-05,-3.88075e-06,-7.57208e-06,-5.73149e-07,2.03958e-05,-2.54679e-05,1.94927e-05,-2.818e-06,0
-3.9288e-05,-1.00461e-05,-1.02935e-05,4.2392e-06,1.92412e-05,-2.64682e-05,1.66088e-05,-2.89058e-06,0
-4.01728e-05,-1.71008e-05,-1.22906e-05,1.131e-05,2.03925e-05,-2.62674e-05,1.3497e-05,-2.97474e-06,0
-3.84265e-05,-2.05348e-05,-1.47089e-05,1.99839e-05,2.11183e-05,-2.5864e-05,9.91691e-06,-2.91918e-06,0
-3.65293e-05,-1.67541e-05,-1.68766e-05,2.3326e-05,2.10097e-05,-2.50191e-05,4.64984e-06,-3.33083e-06,0
-3.65186e-05,-8.45413e-06,-1.77067e-05,1.64982e-05,2.23845e-05,-2.5266e-05,1.14005e-06,-3.90381e-06,0
-3.60362e-05,-9.25616e-07,-1.85736e-05,4.35114e-06,2.56954e-05,-2.46686e-05,2.03884e-06,-4.05169e-06,0
-3.42141e-05,4.10761e-06,-1.95388e-05,-4.06072e-06,2.84295e-05,-2.18437e-05,6.2039e-06,-3.10249e-06,0
-3.20941e-05,7.50765e-06,-2.05676e-05,-9.23741e-06,2.85309e-05,-1.90085e-05,9.91043e-06,1.44665e-07,0
-3.01846e-05,9.58824e-06,-1.86791e-05,-1.6582e-05,2.82329e-05,-1.83085e-05,1.16176e-05,3.57163e-06,0
-2.94945e-05,1.05926e-05,-1.56126e-05,-2.28894e-05,2.82992e-05,-1.80539e-05,1.38113e-05,5.52936e-06,0
-3.09003e-05,1.17236e-05,-1.34149e-05,-2.41546e-05,2.81923e-05,-1.7488e-05,1.7236e-05,3.9411e-06,0
-3.38419e-05,1.22813e-05,-1.18737e-05,-2.24798e-05,2.59e-05,-1.78272e-05,2.34282e-05,3.42873e-07,0
-3.52558e-05,1.27515e-05,-1.13469e-05,-2.09593e-05,2.38845e-05,-1.74502e-05,3.06097e-05,3.47933e-08,0
-3.50959e-05,1.45089e-05,-1.07386e-05,-1.8339e-05,2.50452e-05,-1.62075e-05,3.57678e-05,2.67718e-06,0
-3.39012e-05,1.68513e-05,-1.00927e-05,-1.4427e-05,2.7372e-05,-1.31236e-05,3.58279e-05,3.98288e-06,0
-3.21218e-05,1.94627e-05,-1.0605e-05,-1.12847e-05,2.81821e-05,-1.03462e-05,3.02922e-05,2.53963e-06,0
-3.06136e-05,2.23451e-05,-1.09094e-05,-9.25205e-06,2.7266e-05,-8.69318e-06,2.17672e-05,2.06565e-07,0
-2.94594e-05,2.39545e-05,-8.62127e-06,-8.50305e-06,2.75249e-05,-7.92533e-06,1.40155e-05,-1.4772e-06,0
-2.86309e-05,2.33771e-05,-5.2986e-06,-1.01218e-05,2.85305e-05,-7.97636e-06,9.33986e-06,-2.25814e-06,0
-2.81449e-05,2.08357e-05,-2.45514e-06,-1.36734e-05,2.93698e-05,-8.32241e-06,6.36597e-06,-2.23659e-06,0
-2.77547e-05,1.73855e-05,-7.42912e-07,-1.71856e-05,2.80661e-05,-8.77672e-06,3.06293e-06,-2.85821e-07,0
-2.809e-05,1.49919e-05,-1.4133e-06,-2.05086e-05,2.58153e-05,-9.29945e-06,-8.41014e-07,1.19017e-06,0
-2.93174e-05,1.44897e-05,-3.27258e-06,-2.27498e-05,2.48337e-05,-8.66325e-06,-2.51438e-06,-1.38424e-07,0
-2.8332e-05,1.48141e-05,-3.7509e-06,-2.19596e-05,2.52609e-05,-6.08388e-06,-1.27059e-06,-1.29292e-06,0
-2.4039e-05,1.6175e-05,-2.68738e-06,-1.90081e-05,2.51128e-05,-4.08168e-06,-5.90015e-07,6.70618e-07,0
-1.99686e-05,1.78838e-05,-2.50494e-06,-1.52246e-05,2.30954e-05,-3.49934e-06,-3.86356e-06,3.05036e-06,0
-2.01984e-05,1.64425e-05,-3.46067e-06,-1.26718e-05,2.003e-05,-4.90237e-06,-7.72622e-06,3.24001e-06,0
-2.24206e-05,1.20883e-05,-3.2419e-06,-1.03373e-05,1.86073e-05,-6.96538e-06,-7.79445e-06,2.65162e-06,0
-2.46348e-05,9.09085e-06,-2.69459e-06,-5.6967e-06,1.96934e-05,-6.6818e-06,-4.53387e-06,4.19374e-06,0
-2.69451e-05,1.06572e-05,-2.54582e-06,-8.34723e-07,2.11274e-05,-4.78736e-06,1.97658e-06,6.99319e-06,0
-2.76223e-05,1.5921e-05,-2.88612e-06,1.91139e-07,2.13374e-05,-3.2828e-06,9.61746e-06,8.4502e-06,0
-2.77209e-05,1.93971e-05,-4.37971e-06,-2.22141e-06,1.96146e-05,-2.13974e-06,1.76421e-05,7.3368e-06,0
-2.74398e-05,1.94068e-05,-6.41099e-06,1.28823e-06,1.9305e-05,-3.83479e-07,2.33997e-05,5.18092e-06,0
-2.80222e-05,1.78368e-05,-7.83826e-06,1.58708e-05,2.00519e-05,-4.65592e-07,2.07202e-05,4.01978e-06,0
-3.13972e-05,1.71617e-05,-8.39369e-06,2.94381e-05,2.00051e-05,-1.91485e-06,1.40582e-05,3.15886e-06,0
-3.3634e-05,1.72656e-05,-8.38976e-06,2.90204e-05,1.81719e-05,-9.7725e-07,8.31538e-06,2.71109e-06,0
-3.19919e-05,1.6147e-05,-8.97667e-06,1.98891e-05,1.66024e-05,1.28763e-06,3.09705e-06,1.16089e-06,0
-3.05895e-05,1.36279e-05,-1.02713e-05,1.08972e-05,1.71346e-05,1.68334e-06,-1.20155e-06,-1.40609e-06,0
-3.09649e-05,1.16886e-05,-1.07113e-05,4.7535e-06,1.64962e-05,-2.1508e-07,-2.66174e-06,-2.20831e-06,0
-3.19035e-05,1.1456e-05,-1.09528e-05,2.60317e-08,1.5162e-05,-1.94667e-06,-1.50853e-06,-7.495e-07,0
-3.32388e-05,1.16342e-05,-1.12077e-05,-4.6673e-06,1.38465e-05,-2.32044e-06,-1.9132e-07,9.01584e-07,0
-3.40606e-05,1.15519e-05,-1.2514e-05,-1.01961e-05,1.19616e-05,-2.03495e-06,2.80342e-07,1.30978e-06,0
-3.3808e-05,1.12176e-05,-1.35881e-05,-1.51042e-05,9.71304e-06,-3.72221e-06,8.08239e-09,6.94933e-07,0
-3.35864e-05,1.19947e-05,-1.28059e-05,-1.88262e-05,8.72462e-06,-5.61715e-06,2.46501e-07,6.34119e-07,0
-3.38476e-05,1.40578e-05,-1.10916e-05,-2.41015e-05,8.92245e-06,-5.29871e-06,2.37689e-06,7.16781e-07,0
-3.37939e-05,1.6564e-05,-1.0463e-05,-3.03656e-05,9.19469e-06,-3.7927e-06,6.35659e-06,2.88366e-07,0
-3.38487e-05,1.8054e-05,-1.20013e-05,-3.46333e-05,9.06726e-06,-3.13251e-06,9.43396e-06,6.69368e-08,0
-3.39335e-05,1.85242e-05,-1.43057e-05,-3.27365e-05,8.65543e-06,-3.76155e-06,1.09611e-05,7.95001e-07,0
-3.43494e-05,1.88512e-05,-1.57086e-05,-2.55868e-05,8.87314e-06,-4.00597e-06,1.1871e-05,1.52669e-06,0
-3.43503e-05,2.00634e-05,-1.50775e-05,-1.81529e-05,9.08703e-06,-3.46142e-06,1.14165e-05,5.1618e-07,0
-3.37664e-05,2.23926e-05,-1.24979e-05,-1.34693e-05,9.97921e-06,-3.3249e-06,1.00956e-05,-3.0482e-07,0
-3.29459e-05,2.54903e-05,-9.01515e-06,-1.04499e-05,1.15964e-05,-3.07243e-06,9.00574e-06,1.19176e-06,0
-3.16018e-05,2.877e-05,-6.45838e-06,-8.67149e-06,1.27404e-05,-3.33784e-06,7.26537e-06,2.55546e-06,0
-2.98791e-05,3.13625e-05,-5.36887e-06,-6.31842e-06,1.39067e-05,-4.58778e-06,5.97089e-06,6.53311e-07,0
-2.81087e-05,3.28801e-05,-4.24871e-06,-4.25683e-06,1.56352e-05,-3.91424e-06,5.36613e-06,-1.4777e-06,0
-2.7073e-05,3.39525e-05,-3.40664e-06,-4.15012e-06,1.75275e-05,-2.3272e-06,5.66769e-06,-1.54119e-06,0
-2.61638e-05,3.49945e-05,-5.25404e-06,-3.13605e-06,2.00533e-05,-2.88494e-06,6.85954e-06,-2.02954e-06,0
-2.61623e-05,3.35672e-05,-6.82675e-06,2.6299e-07,2.17037e-05,-5.66813e-06,7.29823e-06,-3.3593e-06,0
-2.77549e-05,2.94534e-05,-5.86153e-06,3.45192e-06,2.14779e-05,-6.11723e-06,7.81282e-06,-4.24088e-06,0
-2.81342e-05,2.63449e-05,-4.16765e-06,4.69298e-06,1.98907e-05,-4.23336e-06,7.43146e-06,-4.03828e-06,0
-2.64317e-05,2.56517e-05,-3.79221e-06,3.62169e-06,1.64219e-05,-3.54888e-06,5.71928e-06,-2.60917e-06,0
-2.55916e-05,2.66136e-05,-4.8107e-06,2.26452e-08,1.3189e-05,-4.55576e-06,4.97514e-06,-8.58874e-07,0
-2.64151e-05,2.80697e-05,-8.56382e-06,-8.17044e-06,1.08885e-05,-7.05818e-06,6.27879e-06,-5.72626e-07,0
-2.68955e-05,2.90774e-05,-1.32768e-05,-1.9247e-05,8.39537e-06,-7.89108e-06,7.57298e-06,-2.31068e-07,0
-2.64569e-05,3.09402e-05,-1.40191e-05,-2.2985e-05,6.28295e-06,-5.58829e-06,4.41901e-06,1.92628e-06,0
-2.51456e-05,3.36236e-05,-1.08165e-05,-1.80311e-05,3.62955e-06,-4.30961e-06,-1.09249e-05,3.14183e-06,0
-2.47402e-05,3.61443e-05,-6.34516e-06,-1.0474e-05,2.49427e-06,-5.27064e-06,-3.52083e-05,2.92725e-06,0
-2.64243e-05,3.81218e-05,-4.78678e-06,-5.3758e-06,4.1692e-06,-5.96446e-06,-5.07348e-05,2.82735e-06,0
-2.83943e-05,3.73208e-05,-5.56733e-06,-2.93656e-06,7.39705e-06,-5.95022e-06,-4.55095e-05,2.89698e-06,0
-2.91174e-05,3.11212e-05,-5.71091e-06,-1.72254e-06,1.03787e-05,-7.10176e-06,-2.35814e-05,2.16353e-06,0
-2.9651e-05,1.94823e-05,-4.59713e-06,-1.68982e-06,1.21258e-05,-9.45736e-06,1.4912e-06,1.6129e-06,0
