ch1,ch2,ch3,ch4,ch5,ch6,ch7,ch8,class
-3.67966e-05,1.00642e-05,-2.29242e-05,1.38383e-05,7.55318e-06,1.17379e-05,7.70492e-05,-1.8443e-07,0
-3.63716e-05,1.89999e-06,-1.59664e-05,7.01747e-05,8.50266e-06,2.28867e-05,6.12826e-05,-1.41637e-06,0
-3.03262e-05,3.14641e-06,-5.31078e-06,0.000113083,7.03665e-06,2.16862e-05,5.21412e-05,1.33312e-07,0
-2.42929e-05,1.97588e-05,3.58382e-06,0.000122899,9.50844e-06,1.81199e-05,7.00174e-05,2.12945e-06,0
-2.68501e-05,4.33027e-05,6.50436e-06,9.82147e-05,9.73009e-06,7.32033e-06,9.86906e-05,3.76829e-06,0
-3.53064e-05,5.59261e-05,3.70912e-06,6.55977e-05,4.68019e-06,-3.82722e-06,0.00011687,4.96746e-06,0
-4.13519e-05,5.46014e-05,-7.82896e-07,4.27591e-05,-4.66436e-06,-1.34907e-05,0.000121582,4.88592e-06,0
-3.92533e-05,4.45139e-05,-4.56715e-06,2.53618e-05,-1.13928e-05,-1.94121e-05,0.000121394,2.74178e-06,0
-3.38347e-05,2.85309e-05,-6.62791e-06,1.12553e-05,-1.01257e-05,-2.09025e-05,0.000113682,-7.79634e-07,0
-2.89959e-05,1.0845e-05,-6.33863e-06,8.00638e-06,-2.44563e-06,-1.89172e-05,8.92345e-05,-2.77297e-06,0
-2.58019e-05,3.83769e-06,-4.07485e-06,1.40633e-05,4.87324e-06,-1.59878e-05,4.88086e-05,-2.33395e-06,0
-2.56068e-05,1.57391e-05,-2.28575e-06,1.26551e-05,7.53883e-06,-1.56315e-05,1.41958e-06,-1.46304e-06,0
-2.74713e-05,3.70522e-05,-1.58985e-06,-3.56735e-06,6.52119e-06,-1.76551e-05,-3.80811e-05,-1.62337e-06,0
-2.93928e-05,4.75895e-05,-2.2263e-06,-1.37992e-05,4.02713e-06,-2.19304e-05,-5.77023e-05,-4.464e-07,0
-3.05951e-05,3.53853e-05,-4.02121e-06,5.19072e-06,2.92652e-06,-2.44422e-05,-5.8092e-05,2.43588e-06,0
-3.23483e-05,3.42171e-06,-5.63838e-06,3.8501e-05,5.14106e-06,-2.41641e-05,-5.37902e-05,4.91899e-06,0
-3.39288e-05,-3.47996e-05,-6.43535e-06,6.04153e-05,1.10753e-05,-2.06424e-05,-6.31753e-05,5.53072e-06,0
-3.46108e-05,-6.25476e-05,-7.24902e-06,7.0598e-05,1.84136e-05,-1.64364e-05,-8.83739e-05,4.52481e-06,0
-3.38181e-05,-7.00742e-05,-8.49378e-06,7.71898e-05,2.60752e-05,-1.32451e-05,-0.000104099,2.20229e-06,0
-3.12259e-05,-5.98379e-05,-9.06709e-06,7.27173e-05,3.36365e-05,-1.19334e-05,-9.01521e-05,-9.33384e-08,0
-2.76978e-05,-4.26265e-05,-7.51844e-06,5.15626e-05,3.94212e-05,-9.80519e-06,-5.75518e-05,-7.82818e-07,0
-2.5303e-05,-2.63161e-05,-3.65709e-06,1.77135e-05,3.94524e-05,-6.02244e-06,-3.45659e-05,-3.75725e-07,0
-2.50592e-05,-1.31203e-05,5.88245e-07,-1.4566e-05,3.38923e-05,-1.83594e-06,-3.03949e-05,5.42406e-07,0
-2.7244e-05,-6.19877e-06,3.95547e-06,-2.9084e-05,2.66091e-05,-2.0317e-07,-2.83787e-05,2.15061e-06,0
-3.03507e-05,-8.93368e-06,6.18802e-06,-2.46504e-05,1.99981e-05,-1.74739e-06,-1.2075e-05,3.30849e-06,0
-3.32231e-05,-1.63188e-05,6.34776e-06,-7.21867e-06,1.39647e-05,-4.75183e-06,7.51265e-06,3.16629e-06,0
-3.4e-05,-2.16251e-05,5.65389e-06,1.93023e-05,1.1798e-05,-7.80381e-06,6.75797e-06,4.0972e-06,0
-3.24583e-05,-1.8709e-05,6.29315e-06,4.67756e-05,1.28392e-05,-9.47965e-06,-6.71357e-06,5.25952e-06,0
-2.91506e-05,-9.54823e-06,5.52859e-06,5.99688e-05,1.14081e-05,-1.123e-05,-8.311e-06,3.58423e-06,0
-2.67776e-05,-3.589e-06,3.84518e-06,4.2149e-05,9.07389e-06,-1.41816e-05,1.59581e-06,1.6758e-06,0
-2.84516e-05,-5.36624e-06,2.46413e-06,-1.06612e-05,9.00923e-06,-1.63608e-05,8.14678e-06,1.38022e-06,0
-3.11131e-05,-1.13677e-05,-1.65289e-06,-7.49692e-05,8.28661e-06,-1.70755e-05,1.23078e-05,7.48109e-07,0
-3.22687e-05,-1.57765e-05,-7.39416e-06,-0.000111541,8.39924e-06,-1.72595e-05,2.06566e-05,-1.57331e-06,0
-3.2054e-05,-1.59366e-05,-9.08759e-06,-0.000108815,9.75466e-06,-1.65009e-05,3.12497e-05,-5.16838e-06,0
-3.1467e-05,-9.20191e-06,-6.89892e-06,-7.93353e-05,1.00014e-05,-1.52828e-05,4.01927e-05,-5.99771e-06,0
-3.1193e-05,2.59895e-06,-6.22793e-06,-3.63117e-05,1.31327e-05,-1.42904e-05,3.85371e-05,-4.81136e-06,0
-3.16968e-05,1.47717e-05,-7.40849e-06,-1.96333e-06,1.81804e-05,-1.54409e-05,4.4928e-05,-5.23516e-06,0
-3.19019e-05,2.48165e-05,-9.29836e-06,5.37089e-06,2.09861e-05,-1.7239e-05,9.85593e-05,-6.13357e-06,0
-3.10559e-05,3.14651e-05,-1.1883e-05,-7.59907e-06,2.17632e-05,-1.87325e-05,0.000181467,-6.72781e-06,0
-2.90121e-05,3.51194e-05,-1.47518e-05,-1.80568e-05,2.03914e-05,-1.95171e-05,0.000238335,-7.71056e-06,0
-2.62265e-05,3.92184e-05,-1.54712e-05,-2.1768e-05,1.25464e-05,-2.03113e-05,0.000232585,-8.79928e-06,0
-2.50977e-05,4.37724e-05,-1.40279e-05,-3.01105e-05,1.88457e-06,-2.16204e-05,0.000165227,-8.30891e-06,0
-2.61789e-05,4.49482e-05,-1.36048e-05,-4.67908e-05,-3.24738e-06,-2.23881e-05,6.04906e-05,-7.22977e-06,0
-2.68972e-05,4.27423e-05,-1.52499e-05,-6.4366e-05,-6.88199e-08,-2.04262e-05,-5.75826e-05,-7.10638e-06,0
-2.63066e-05,4.10817e-05,-1.7155e-05,-8.18953e-05,7.96286e-06,-1.64542e-05,-0.000161887,-7.26028e-06,0
-2.66291e-05,4.84268e-05,-1.68957e-05,-0.000103524,1.65678e-05,-1.50172e-05,-0.000226917,-6.21103e-06,0
-2.88198e-05,7.15034e-05,-1.50894e-05,-0.000123663,2.45774e-05,-1.60828e-05,-0.000239465,-4.13166e-06,0
-3.06495e-05,0.000101975,-1.36847e-05,-0.000127715,3.17763e-05,-1.16735e-05,-0.000207627,-2.44833e-06,0
-2.97182e-05,0.000121358,-1.17185e-05,-0.000113914,3.58048e-05,9.61037e-07,-0.000155965,-1.793e-06,0
-2.65101e-05,0.000121127,-5.75555e-06,-9.57743e-05,3.27674e-05,1.01514e-05,-0.000110226,-2.25671e-06,0
-2.41196e-05,0.000114093,1.77106e-06,-7.65811e-05,2.23274e-05,5.87065e-06,-8.73287e-05,-2.25649e-06,0
-2.63272e-05,0.00010748,5.0656e-06,-4.49371e-05,1.09463e-05,-6.32902e-06,-7.96878e-05,-2.23008e-06,0
-3.24044e-05,9.05521e-05,1.54344e-06,6.8893e-06,3.8876e-06,-1.53068e-05,-5.92231e-05,-3.1256e-06,0
-3.52371e-05,6.01557e-05,-4.18396e-06,6.71183e-05,2.77829e-06,-1.69078e-05,-1.97724e-05,-2.05568e-06,0
-3.16773e-05,1.49716e-05,-5.23023e-06,0.000121948,9.39136e-06,-1.20106e-05,2.65241e-05,-2.82886e-07,0
-2.79162e-05,-3.79004e-05,-1.84828e-06,0.000147245,1.67544e-05,-6.15659e-06,5.83224e-05,4.16922e-07,0
-2.92807e-05,-8.61732e-05,1.49854e-06,0.000131879,1.94114e-05,-4.23361e-06,6.99168e-05,1.97069e-06,0
-3.34784e-05,-0.000122395,8.19739e-07,9.12275e-05,1.63811e-05,-4.99455e-06,7.20071e-05,1.88583e-06,0
-3.60568e-05,-0.000137646,-3.96747e-06,4.17293e-05,6.31824e-06,-7.47176e-06,6.98271e-05,1.44354e-06,0
-3.53123e-05,-0.000129436,-9.49919e-06,6.48354e-06,-3.59734e-06,-9.22097e-06,6.57682e-05,3.59882e-06,0
-3.1406e-05,-9.95586e-05,-1.23458e-05,-7.0937e-06,-4.66887e-06,-7.92367e-06,5.6103e-05,5.7853e-06,0
-2.67209e-05,-6.14933e-05,-1.25355e-05,-8.2728e-06,2.17799e-06,-5.83278e-06,4.67775e-05,5.07887e-06,0
-2.49977e-05,-3.10676e-05,-1.2398e-05,-1.1732e-05,9.14434e-06,-4.36072e-06,4.14751e-05,3.58256e-06,0
-2.59806e-05,-1.73197e-05,-1.50038e-05,-2.58718e-05,1.19968e-05,-5.34319e-06,3.92098e-05,3.58674e-06,0
-2.78205e-05,-1.39687e-05,-1.82911e-05,-4.74501e-05,1.03817e-05,-8.14649e-06,3.55199e-05,7.29596e-06,0
-2.85914e-05,-1.0484e-05,-1.82811e-05,-6.96588e-05,5.50542e-06,-9.78972e-06,3.25848e-05,1.98214e-05,0
-2.6637e-05,-3.65806e-06,-1.41171e-05,-8.97497e-05,2.04186e-06,-8.3234e-06,3.35004e-05,3.74427e-05,0
-2.33851e-05,4.65956e-06,-5.26027e-06,-9.85721e-05,3.75744e-06,-6.89082e-06,3.4927e-05,4.88535e-05,0
-2.05447e-05,9.96291e-06,4.71256e-06,-8.5504e-05,1.19484e-05,-8.13522e-06,3.52033e-05,4.95503e-05,0
-2.00633e-05,1.18262e-05,9.32252e-06,-4.84086e-05,1.88252e-05,-1.24696e-05,3.66429e-05,4.15234e-05,0
-2.24428e-05,1.23992e-05,5.96826e-06,9.3976e-06,1.55591e-05,-1.8231e-05,4.03043e-05,2.56796e-05,0
-2.55134e-05,1.55628e-05,5.40156e-07,8.39444e-05,4.88505e-06,-2.07266e-05,4.30344e-05,4.5997e-06,0
-2.70779e-05,2.1386e-05,-8.93005e-07,0.000172419,-4.64374e-06,-1.91361e-05,4.29387e-05,-1.63107e-05,0
-2.74436e-05,2.87227e-05,5.66648e-07,0.000240175,-8.48432e-06,-1.69511e-05,4.45067e-05,-3.08525e-05,0
-2.78075e-05,3.31905e-05,4.92274e-07,0.000241699,-6.3757e-06,-1.58001e-05,7.59113e-05,-3.63856e-05,0
-2.84125e-05,3.33322e-05,-2.66293e-06,0.000173469,2.05668e-06,-1.39385e-05,0.000164707,-3.61802e-05,0
-2.89034e-05,3.24253e-05,-6.38157e-06,7.6841e-05,1.75604e-05,-1.34009e-05,0.000294339,-3.34814e-05,0
-2.9237e-05,3.5116e-05,-6.9242e-06,-1.71624e-06,3.54232e-05,-1.36157e-05,0.000426347,-2.8196e-05,0
-2.96664e-05,4.30023e-05,-5.05094e-06,-4.98922e-05,4.34192e-05,-1.46079e-05,0.000542061,-2.14011e-05,0
-2.96411e-05,5.43101e-05,-4.84357e-06,-7.88703e-05,3.71211e-05,-1.51996e-05,0.000599577,-1.32211e-05,0
-2.82766e-05,6.28106e-05,-6.67012e-06,-8.70213e-05,2.48453e-05,-1.28094e-05,0.000542863,-4.34091e-06,0
-2.75587e-05,6.3927e-05,-7.33041e-06,-8.95465e-05,1.47869e-05,-1.04843e-05,0.000344495,2.05489e-06,0
-3.03033e-05,5.58712e-05,-8.8356e-06,-0.000100865,8.76727e-06,-1.13694e-05,6.00985e-05,1.83948e-06,0
-3.41462e-05,4.16646e-05,-1.69843e-05,-0.000120056,-3.60234e-07,-1.55703e-05,-0.000257439,5.68901e-07,0
-3.51878e-05,3.25585e-05,-2.48405e-05,-0.00013735,-8.28615e-06,-1.84951e-05,-0.000564098,3.54426e-06,0
-3.3446e-05,3.29147e-05,-2.32364e-05,-0.000124914,-3.11197e-06,-1.76396e-05,-0.000726897,6.31516e-06,0
-3.15506e-05,3.74007e-05,-1.45299e-05,-7.09272e-05,9.49098e-06,-1.38177e-05,-0.000695825,9.23898e-06,0
-2.9609e-05,3.68252e-05,-4.89792e-06,1.3194e-05,2.23916e-05,-1.04692e-05,-0.000543911,1.06038e-05,0
-2.80458e-05,2.91604e-05,5.76824e-07,8.39477e-05,3.19794e-05,-7.79947e-06,-0.000384923,1.03083e-05,0
-2.73291e-05,2.15226e-05,6.21776e-07,0.000102955,3.95825e-05,-4.25217e-06,-0.000274807,9.27888e-06,0
-2.70673e-05,1.97061e-05,-3.46397e-06,7.2518e-05,4.16097e-05,-2.07112e-06,-0.000203502,8.13427e-06,0
-2.75779e-05,2.45462e-05,-7.71466e-06,2.55281e-05,3.69149e-05,-3.23126e-06,-0.000142083,6.51565e-06,0
-2.89018e-05,3.36599e-05,-9.05554e-06,-4.52473e-06,2.67344e-05,-6.56387e-06,-8.44356e-05,5.23093e-06,0
-3.03841e-05,4.17482e-05,-6.93475e-06,-8.28374e-06,1.10284e-05,-1.00379e-05,-4.35375e-05,5.0961e-06,0
-3.04109e-05,4.2222e-05,-1.23026e-07,4.17157e-06,-3.44153e-06,-1.24674e-05,-1.56683e-05,3.98148e-06,0
-2.9144e-05,3.67792e-05,9.41953e-06,1.04669e-05,-8.34819e-06,-1.1377e-05,-4.4303e-06,2.24929e-06,0
-2.73778e-05,4.16378e-05,1.53473e-05,-1.00321e-05,-2.72197e-06,-7.42645e-06,-1.19456e-05,1.29156e-06,0
-2.69024e-05,6.7437e-05,1.42902e-05,-5.59575e-05,4.01729e-06,-3.38264e-06,-2.62423e-05,1.00212e-06,0
-2.76424e-05,9.72506e-05,9.32971e-06,-0.000104245,6.02335e-06,-2.1856e-06,-1.96655e-05,-1.73568e-07,0
-2.84526e-05,0.000109262,4.26686e-06,-0.000134931,2.95188e-06,-4.3486e-06,7.88148e-06,-9.8717e-07,0
-2.85144e-05,0.000100734,2.48854e-06,-0.000137717,2.97923e-07,-7.57143e-06,4.48258e-05,-1.01563e-06,0
-2.70541e-05,7.52155e-05,2.42883e-06,-0.000112703,1.05834e-06,-9.45262e-06,7.82257e-05,2.29499e-07,0
-2.55731e-05,3.53303e-05,-2.44596e-06,-7.94181e-05,5.56221e-06,-1.05487e-05,0.000101232,2.29602e-06,0
-2.64081e-05,-9.34626e-06,-1.08202e-05,-6.42626e-05,1.46667e-05,-1.07704e-05,0.000108245,2.31217e-06,0
-3.00762e-05,-4.39369e-05,-1.28446e-05,-6.83935e-05,2.65994e-05,-9.98835e-06,9.91586e-05,-8.54093e-07,0
-3.52001e-05,-5.99165e-05,-1.00444e-05,-8.01011e-05,3.27389e-05,-1.11504e-05,8.19033e-05,-2.39749e-06,0
-3.87157e-05,-5.85034e-05,-1.39811e-05,-9.64954e-05,2.84402e-05,-1.59581e-05,7.149e-05,-2.0076e-06,0
-3.91204e-05,-5.10284e-05,-2.34352e-05,-9.39251e-05,1.99662e-05,-2.07192e-05,7.67359e-05,-2.17175e-06,0
-3.86873e-05,-4.33895e-05,-3.16308e-05,-4.77891e-05,1.32833e-05,-2.14641e-05,9.3443e-05,-2.46022e-06,0
-3.81475e-05,-3.46143e-05,-3.68244e-05,8.19292e-06,1.04671e-05,-2.17294e-05,0.000102741,-2.04098e-06,0
-3.71938e-05,-2.3013e-05,-3.47868e-05,4.29942e-05,1.66581e-05,-1.98868e-05,9.85813e-05,-5.73465e-07,0
-3.19435e-05,-4.9318e-06,-2.39188e-05,6.79113e-05,2.50656e-05,-1.32381e-05,9.46021e-05,8.36968e-07,0
-2.45525e-05,1.42546e-05,-1.21065e-05,9.32129e-05,2.25523e-05,-8.88533e-06,9.38072e-05,1.74777e-06,0
-2.05683e-05,2.5978e-05,-7.73983e-06,0.00011212,1.01675e-05,-8.88775e-06,8.98799e-05,2.60688e-06,0
-1.86584e-05,2.57754e-05,-8.77881e-06,0.000107151,-3.39318e-06,-1.15449e-05,6.66523e-05,3.66933e-06,0
-1.89011e-05,1.48353e-05,-7.83265e-06,9.35258e-05,-1.34018e-05,-1.46863e-05,2.9034e-05,3.02304e-06,0
-2.12945e-05,3.16443e-06,-2.9522e-06,8.15636e-05,-1.93929e-05,-1.61917e-05,-4.36835e-06,2.45369e-06,0
-2.52285e-05,-3.12809e-06,2.02065e-06,6.34683e-05,-1.76904e-05,-1.69434e-05,-2.28113e-05,3.02519e-06,0
-2.90012e-05,-6.16134e-06,3.72457e-06,4.33344e-05,-4.23514e-06,-1.73507e-05,-3.62296e-05,2.48632e-06,0
-3.16126e-05,-8.64968e-06,4.17036e-07,2.8175e-05,1.86958e-05,-1.72579e-05,-5.10533e-05,3.50024e-07,0
-3.26017e-05,-1.00051e-05,-5.57258e-06,1.99756e-05,4.03109e-05,-1.47678e-05,-5.80334e-05,-1.47293e-06,0
-3.09579e-05,-6.24721e-06,-1.01694e-05,1.5753e-05,4.98839e-05,-1.12504e-05,-4.68281e-05,-2.21909e-06,0
-2.88985e-05,4.43455e-07,-1.27779e-05,1.55037e-05,4.50702e-05,-9.76813e-06,-1.97988e-05,-2.05778e-06,0
-3.04395e-05,4.82e-06,-1.34435e-05,1.48543e-05,3.45287e-05,-1.06629e-05,1.32279e-05,-1.73601e-06,0
-3.63562e-05,4.73817e-06,-1.35759e-05,1.33997e-05,2.55385e-05,-1.23132e-05,4.72576e-05,-2.73315e-06,0
-4.2654e-05,2.09837e-06,-1.45847e-05,1.45488e-05,1.9227e-05,-1.43535e-05,8.5889e-05,-3.32384e-06,0
-4.53769e-05,7.16423e-07,-1.6435e-05,2.43434e-05,1.33595e-05,-1.73438e-05,0.000125311,-2.05563e-06,0
-4.36135e-05,4.39139e-06,-1.8831e-05,3.86488e-05,7.43619e-06,-2.16742e-05,0.000142168,-5.44153e-07,0
-3.78987e-05,1.045e-05,-2.23563e-05,3.73776e-05,3.10534e-07,-2.61157e-05,0.00012213,-5.31494e-07,0
-3.25784e-05,1.24619e-05,-2.50223e-05,-5.83629e-06,-7.03869e-06,-2.77227e-05,8.10809e-05,-1.8009e-06,0
-3.09835e-05,1.11857e-05,-2.48114e-05,-9.22611e-05,-1.11586e-05,-2.47339e-05,3.95406e-05,-3.15819e-06,0
-3.00931e-05,1.06276e-05,-2.01964e-05,-0.000176373,-1.08695e-05,-2.05657e-05,-9.36363e-06,-1.97452e-06,0
-2.86699e-05,1.1737e-05,-1.14604e-05,-0.000198264,-6.8245e-06,-1.90639e-05,-7.51202e-05,1.99916e-06,0
-2.7105e-05,1.25055e-05,-7.11148e-06,-0.000139173,-5.63569e-06,-1.71392e-05,-0.000124697,5.26872e-06,0
-2.97726e-05,1.22085e-05,-8.18997e-06,-2.51445e-05,-7.25107e-06,-1.41247e-05,-0.000126762,5.45629e-06,0
-3.95103e-05,1.21243e-05,-7.71409e-06,9.98397e-05,6.87541e-06,-8.02937e-06,-9.47447e-05,4.45921e-06,0
-4.47097e-05,1.68274e-05,-5.0479e-06,0.000156536,3.54026e-05,5.61168e-06,-5.12909e-05,3.79189e-06,0
-3.75943e-05,2.82791e-05,-3.47599e-06,0.000124513,4.3453e-05,1.72903e-05,-6.06923e-06,4.62319e-06,0
-3.22261e-05,3.85448e-05,-6.66305e-06,5.64816e-05,2.52313e-05,1.4915e-05,3.62769e-05,8.93305e-06,0
-3.48902e-05,4.11722e-05,-9.51707e-06,6.95835e-06,1.1076e-05,5.1439e-06,6.26847e-05,1.16968e-05,0
-3.76884e-05,3.95376e-05,-8.38745e-06,9.90836e-06,1.51507e-05,2.68373e-07,7.30639e-05,1.1731e-05,0
-3.49316e-05,3.77767e-05,-6.7661e-06,2.81744e-05,2.75526e-05,1.30826e-06,7.57262e-05,1.13539e-05,0
-2.75688e-05,3.72351e-05,-7.44609e-06,3.28177e-05,3.73396e-05,4.87495e-06,7.93689e-05,1.03092e-05,0
-2.23201e-05,3.70773e-05,-1.0804e-05,2.1037e-05,3.71467e-05,1.00594e-05,8.7887e-05,6.59627e-06,0
-1.82428e-05,3.637e-05,-1.31098e-05,-4.98904e-06,2.63008e-05,1.98239e-05,0.000100607,7.63228e-07,0
-1.46742e-05,3.38152e-05,-1.28424e-05,-5.01037e-05,1.05455e-05,3.08091e-05,0.000112973,-3.09454e-06,0
-1.41816e-05,2.71319e-05,-1.08835e-05,-0.000108925,-4.22825e-07,3.26697e-05,0.000109916,-4.1488e-06,0
-2.0439e-05,1.36484e-05,-9.23695e-06,-0.000153985,6.01977e-07,2.2358e-05,7.91789e-05,-3.38606e-06,0
-3.04922e-05,-6.62129e-06,-7.74637e-06,-0.000157872,1.09327e-05,3.27898e-06,3.35706e-05,-1.93857e-06,0
-3.84072e-05,-3.10694e-05,-8.08391e-06,-0.000111701,2.10526e-05,-1.9317e-05,9.72405e-06,-1.09431e-06,0
-4.36011e-05,-5.4354e-05,-1.12774e-05,-4.80716e-05,2.18887e-05,-3.11306e-05,2.679e-05,-1.62322e-06,0
-4.77022e-05,-6.9655e-05,-1.3735e-05,8.50507e-06,1.84996e-05,-1.97001e-05,7.57111e-05,-1.67435e-06,0
-4.9418e-05,-7.56481e-05,-1.34861e-05,5.44591e-05,2.41243e-05,5.26307e-06,0.000139056,-1.21941e-06,0
-4.67948e-05,-7.5182e-05,-1.35227e-05,8.88617e-05,3.70157e-05,2.04693e-05,0.000203772,-3.92672e-07,0
-4.28493e-05,-7.17209e-05,-1.61479e-05,9.6896e-05,4.04551e-05,1.2919e-05,0.000258127,1.2095e-06,0
-4.11825e-05,-6.80413e-05,-1.94992e-05,8.1039e-05,3.06944e-05,-5.21442e-06,0.000282821,2.94758e-06,0
-4.27816e-05,-6.39047e-05,-2.00706e-05,5.62728e-05,1.93363e-05,-1.53685e-05,0.00025476,3.58923e-06,0
-4.32785e-05,-5.49623e-05,-1.56603e-05,3.72921e-05,1.3844e-05,-1.53003e-05,0.000166735,3.15099e-06,0
-4.0913e-05,-4.19782e-05,-9.16219e-06,2.80567e-05,1.63963e-05,-1.29163e-05,3.62747e-05,2.61428e-06,0
-3.82751e-05,-2.96251e-05,-4.49992e-06,1.70901e-05,2.19759e-05,-1.53982e-05,-9.62222e-05,2.9955e-06,0
-3.81701e-05,-1.91652e-05,-3.08664e-06,-8.52127e-06,2.2226e-05,-2.03392e-05,-0.000184315,3.76055e-06,0
-3.71624e-05,-8.82591e-06,-2.07855e-06,-2.33079e-05,1.86688e-05,-1.95621e-05,-0.000202943,3.04447e-06,0
-3.13811e-05,1.09878e-06,5.24874e-07,7.16616e-06,1.93651e-05,-1.33172e-05,-0.000161018,1.20036e-06,0
-2.67183e-05,8.67409e-06,1.75267e-06,5.08311e-05,2.36125e-05,-1.26295e-05,-0.000111639,2.03146e-06,0
-2.61224e-05,1.27975e-05,1.71605e-06,6.73061e-05,2.46888e-05,-1.19027e-05,-9.35977e-05,5.89078e-06,0
-2.48819e-05,1.53054e-05,3.63625e-06,6.3165e-05,2.05924e-05,5.70948e-06,-9.29723e-05,7.02287e-06,0
-2.19183e-05,1.93083e-05,7.18528e-06,5.25679e-05,1.20669e-05,2.22282e-05,-9.60118e-05,5.91886e-06,0
-2.07515e-05,2.24245e-05,9.80334e-06,3.62976e-05,1.426e-06,2.0772e-05,-9.47227e-05,6.26171e-06,0
-2.41296e-05,2.08705e-05,7.46275e-06,1.18518e-05,-9.09676e-06,8.15958e-06,-8.84891e-05,7.89914e-06,0
-3.01587e-05,1.75637e-05,-3.1681e-07,-1.54261e-05,-1.50911e-05,-3.34674e-06,-8.39548e-05,9.45653e-06,0
-3.51906e-05,1.72042e-05,-7.47954e-06,-2.50557e-05,-1.42393e-05,-5.26015e-06,-9.06837e-05,1.12678e-05,0
-3.63285e-05,1.85793e-05,-9.94719e-06,-1.51138e-05,-1.16825e-05,-2.13799e-06,-0.000107031,1.30808e-05,0
-3.38953e-05,1.8985e-05,-1.01593e-05,-1.66902e-05,-1.26928e-05,-1.83766e-06,-0.000123345,1.27128e-05,0
-3.11041e-05,2.14311e-05,-8.20577e-06,-4.91716e-05,-6.7543e-06,-3.45154e-06,-0.000128156,1.10786e-05,0
-3.19088e-05,3.04476e-05,-5.62655e-06,-9.54897e-05,1.62641e-05,-1.09897e-06,-0.000119033,1.00159e-05,0
-3.65805e-05,4.14778e-05,-6.56589e-06,-0.000129712,4.27862e-05,4.60042e-06,-0.000105003,8.23859e-06,0
-4.16013e-05,4.85462e-05,-9.33686e-06,-0.000135506,5.2368e-05,8.81932e-06,-8.97383e-05,4.94863e-06,0
-4.28713e-05,5.28962e-05,-1.0635e-05,-0.000116092,4.31249e-05,7.87935e-06,-7.31913e-05,1.97426e-06,0
-4.00084e-05,5.82074e-05,-1.07968e-05,-9.12958e-05,2.88007e-05,4.74519e-06,-5.13497e-05,1.27915e-07,0
-3.61052e-05,6.12379e-05,-1.2839e-05,-7.9872e-05,1.56894e-05,2.34537e-06,-2.93953e-05,-4.73365e-07,0
-3.30202e-05,5.70926e-05,-1.61791e-05,-7.4528e-05,3.84189e-06,1.29747e-06,-1.29274e-05,-1.10105e-06,0
-3.15217e-05,4.65105e-05,-1.81259e-05,-6.23425e-05,-2.614e-06,-1.16937e-06,-6.27317e-06,-3.87739e-06,0
-3.21948e-05,3.19522e-05,-2.01174e-05,-6.09151e-05,-1.62816e-06,-7.55514e-06,-7.29266e-06,-7.14937e-06,0
-3.63563e-05,1.53772e-05,-2.43847e-05,-9.79277e-05,-4.07172e-07,-1.41539e-05,-9.86768e-06,-8.88806e-06,0
-4.06459e-05,-8.93858e-07,-2.96193e-05,-0.000154783,-1.73655e-06,-1.56226e-05,-7.0566e-06,-8.96996e-06,0
-4.07831e-05,-9.86453e-06,-3.17287e-05,-0.00017234,2.65054e-06,-1.34482e-05,1.38511e-06,-7.29882e-06,0
-3.75715e-05,-4.5235e-06,-2.64969e-05,-0.000112195,1.25793e-05,-1.07108e-05,1.70586e-05,-4.73087e-06,0
-3.58458e-05,1.20077e-05,-1.96423e-05,7.20862e-06,1.16802e-05,-1.24443e-05,3.58076e-05,-1.6312e-06,0
-3.4938e-05,3.01905e-05,-1.79871e-05,0.000127308,-1.61267e-06,-1.89682e-05,5.0462e-05,2.1608e-06,0
-3.21281e-05,4.57046e-05,-1.83721e-05,0.000208034,-1.0332e-05,-2.37273e-05,6.06431e-05,3.49154e-06,0
-2.66623e-05,5.91335e-05,-1.48192e-05,0.000232759,-1.40288e-06,-2.54167e-05,6.29718e-05,2.06507e-06,0
-1.96694e-05,6.83289e-05,-7.04674e-06,0.000211466,1.68743e-05,-2.27452e-05,5.81237e-05,1.72479e-06,0
-1.40126e-05,6.8949e-05,-2.99919e-06,0.000155788,2.82173e-05,-1.80771e-05,5.25894e-05,2.18564e-06,0
-1.04433e-05,6.54926e-05,-3.25391e-06,5.98641e-05,3.64454e-05,-1.94668e-05,5.30568e-05,2.37806e-06,0
-9.29948e-06,6.37318e-05,1.79971e-06,-2.26841e-05,5.00544e-05,-1.37583e-05,6.12371e-05,1.24051e-06,0
-1.16054e-05,5.66078e-05,1.07297e-05,-4.59603e-05,5.68829e-05,1.21694e-05,7.29696e-05,7.44931e-08,0
-1.80325e-05,3.70739e-05,1.52492e-05,-3.39778e-05,4.55344e-05,3.19179e-05,8.08294e-05,1.72261e-06,0
-2.51315e-05,1.30255e-05,1.42755e-05,-1.7787e-05,3.29888e-05,2.24107e-05,7.8563e-05,3.33544e-06,0
-2.83399e-05,-3.66313e-06,8.69058e-06,1.18049e-05,2.93753e-05,-2.21798e-06,6.97642e-05,3.3317e-06,0
-2.65959e-05,-1.19518e-05,1.8882e-07,6.42434e-05,2.59193e-05,-1.78214e-05,6.45549e-05,2.29712e-06,0
-2.21782e-05,-9.04429e-06,-6.2288e-06,0.000120137,1.64406e-05,-2.03607e-05,6.48716e-05,2.48814e-06,0
-1.6813e-05,1.15577e-05,-6.76119e-06,0.000159451,6.74534e-06,-1.87864e-05,6.71415e-05,3.98128e-06,0
-1.20236e-05,4.068e-05,-3.99376e-06,0.000161127,1.48812e-06,-1.93508e-05,7.21548e-05,4.40735e-06,0
-1.062e-05,5.81943e-05,-3.70822e-06,0.000115942,-1.76608e-06,-1.98312e-05,9.3393e-05,3.12167e-06,0
-1.1791e-05,5.70272e-05,-6.43478e-06,4.20785e-05,-3.96163e-06,-1.91083e-05,0.000138268,1.0558e-06,0
-1.25814e-05,4.42667e-05,-7.40651e-06,-1.64151e-05,-4.41449e-06,-1.99001e-05,0.000205351,-8.59993e-07,0
-1.31045e-05,2.37059e-05,-6.02567e-06,-3.91671e-05,-4.30448e-06,-2.23394e-05,0.000290029,-2.87775e-06,0
-1.49264e-05,-4.11653e-06,-6.84234e-06,-4.57099e-05,-6.99486e-06,-2.45362e-05,0.000366544,-4.80258e-06,0
-1.72078e-05,-3.37802e-05,-1.04757e-05,-6.22373e-05,-1.32936e-05,-2.63567e-05,0.000393562,-6.1285e-06,0
-1.7483e-05,-5.09278e-05,-1.25869e-05,-8.72205e-05,-2.21872e-05,-2.82995e-05,0.000346385,-6.52069e-06,0
-1.50402e-05,-3.82501e-05,-1.08851e-05,-0.000112468,-2.34661e-05,-2.89119e-05,0.000214282,-7.01146e-06,0
-1.10973e-05,1.4911e-06,-7.36058e-06,-0.000134254,-8.28881e-06,-2.57855e-05,-1.13132e-06,-5.70573e-06,0
-8.9385e-06,4.51432e-05,-4.28781e-06,-0.000146468,9.3618e-06,-1.83824e-05,-0.000256871,-2.86454e-07,0
-1.33415e-05,7.67792e-05,-2.60441e-06,-0.000134542,9.47714e-06,-1.54623e-05,-0.000453267,9.37838e-06,0
-2.38708e-05,8.98497e-05,-3.49304e-06,-8.69588e-05,-5.33431e-07,-1.97532e-05,-0.000493299,1.79346e-05,0
-3.33604e-05,8.27893e-05,-5.34474e-06,-2.64028e-05,-3.19251e-06,-2.4479e-05,-0.000380258,1.8745e-05,0
-3.61523e-05,6.16513e-05,-7.87617e-06,1.13156e-05,-5.03908e-06,-2.71808e-05,-0.000210786,1.19234e-05,0
-3.25806e-05,3.93381e-05,-1.11428e-05,2.66566e-05,-1.37785e-05,-2.6455e-05,-9.10785e-05,3.24977e-06,0
-2.62905e-05,2.37148e-05,-1.23137e-05,3.32622e-05,-1.68581e-05,-2.20431e-05,-3.43647e-05,-2.66302e-06,0
-1.91435e-05,1.74399e-05,-8.88238e-06,2.81245e-05,-4.72646e-06,-1.79918e-05,-8.45667e-06,-6.71653e-06,0
-1.25491e-05,1.5127e-05,-3.32252e-06,9.82334e-06,1.72138e-05,-1.5515e-05,-4.8263e-06,-9.41344e-06,0
-8.91153e-06,6.27002e-07,-4.63127e-07,-2.30929e-05,3.10105e-05,-1.43749e-05,-1.38789e-06,-9.73229e-06,0
-7.89395e-06,-2.32319e-05,-3.11338e-07,-5.96541e-05,3.10007e-05,-1.62143e-05,-1.5055e-05,-9.07027e-06,0
-9.19611e-06,-4.71829e-05,-9.55029e-07,-8.68921e-05,3.09474e-05,-2.49796e-05,-6.0661e-05,-8.49871e-06,0
-1.55377e-05,-6.61744e-05,-2.52405e-06,-9.88218e-05,3.76886e-05,-4.18617e-05,-0.000106614,-8.08046e-06,0
-2.47862e-05,-7.70281e-05,-4.73412e-06,-8.45789e-05,4.41429e-05,-5.42031e-05,-0.000109515,-9.72579e-06,0
-3.35014e-05,-7.95607e-05,-5.26573e-06,-4.29716e-05,4.32989e-05,-4.74612e-05,-6.53271e-05,-1.24588e-05,0
-3.93737e-05,-7.22731e-05,-3.65725e-06,1.29948e-05,3.9906e-05,-2.88797e-05,-5.58598e-06,-1.19701e-05,0
-4.22691e-05,-5.42662e-05,-8.58105e-07,6.88224e-05,3.77176e-05,-1.89704e-05,4.18264e-05,-8.15155e-06,0
-4.78016e-05,-2.78104e-05,-2.71095e-07,0.000109781,3.6532e-05,-2.39899e-05,7.69694e-05,-5.66154e-06,0
-6.24656e-05,-3.02237e-06,-5.15314e-06,0.000122969,3.49859e-05,-3.4104e-05,0.000116129,-5.5188e-06,0
-8.40035e-05,9.44039e-06,-1.45989e-05,0.000109504,3.21778e-05,-3.93522e-05,0.000153345,-5.61719e-06,0
-0.0001008,8.87587e-06,-2.30385e-05,8.91828e-05,2.71903e-05,-3.59016e-05,0.000178388,-6.07554e-06,0
-0.000102366,4.79628e-06,-2.45926e-05,7.50536e-05,2.25364e-05,-2.55718e-05,0.000180135,-7.1449e-06,0
-8.83526e-05,4.19491e-06,-1.7099e-05,6.01467e-05,2.43431e-05,-1.65217e-05,0.000162968,-7.72314e-06,0
-6.99444e-05,7.64724e-06,-5.62016e-06,3.08933e-05,3.16111e-05,-1.45261e-05,0.000135871,-6.83941e-06,0
-5.49469e-05,1.04041e-05,6.66911e-07,-1.00299e-05,3.67129e-05,-1.78503e-05,0.000103477,-4.50471e-06,0
-4.03773e-05,1.00802e-05,-5.5257e-07,-4.39398e-05,3.30903e-05,-2.28009e-05,5.31805e-05,-2.61433e-06,0
-2.37577e-05,9.05802e-06,-5.2702e-06,-5.09822e-05,2.05695e-05,-2.5866e-05,-1.43618e-05,-3.28194e-06,0
-7.91292e-06,1.05998e-05,-8.95004e-06,-2.44877e-05,5.6981e-06,-2.5668e-05,-6.75526e-05,-4.85456e-06,0
6.86244e-06,1.44785e-05,-8.3331e-06,1.9393e-05,-3.70992e-06,-2.32265e-05,-7.99304e-05,-4.19508e-06,0
2.13483e-05,1.95031e-05,-3.67567e-06,4.77655e-05,-5.00786e-06,-1.96839e-05,-5.90689e-05,-2.31435e-06,0
2.99586e-05,2.22908e-05,-1.30948e-06,3.62008e-05,-3.70945e-06,-1.69155e-05,-2.29057e-05,-1.77729e-06,0
1.94724e-05,1.71332e-05,-8.49754e-06,-1.09647e-05,-1.31317e-05,-1.76329e-05,1.8734e-05,-1.62693e-06,0
-4.16004e-06,6.73809e-06,-1.81426e-05,-4.68363e-05,-3.05115e-05,-2.11188e-05,4.16738e-05,-1.03968e-07,0
-1.80806e-05,-2.59428e-06,-1.85477e-05,-5.06798e-05,-3.59064e-05,-1.99221e-05,3.81441e-05,1.59325e-06,0
-2.22184e-05,-5.60173e-06,-1.24569e-05,-4.34025e-05,-2.25624e-05,-1.0021e-05,1.99761e-05,2.89723e-06,0
-2.56983e-05,-3.46505e-06,-9.97709e-06,-2.67389e-05,-5.03797e-06,3.36396e-06,-4.96306e-07,3.51089e-06,0
-2.15267e-05,-6.32974e-07,-1.39891e-05,-1.12241e-05,4.08591e-06,1.66369e-05,-5.04923e-06,4.15484e-06,0
-1.51725e-05,1.05494e-06,-1.79007e-05,-2.81311e-05,9.73957e-06,2.26767e-05,9.33894e-06,4.9681e-06,0
-1.85539e-05,2.91985e-06,-1.72185e-05,-0.000102999,1.53154e-05,1.79461e-05,3.34416e-05,4.67874e-06,0
-2.38323e-05,9.81911e-06,-1.36915e-05,-0.00018482,1.33494e-05,9.16855e-06,4.98694e-05,4.92387e-06,0
-2.29669e-05,2.2636e-05,-1.1778e-05,-0.000195729,2.45369e-06,7.30528e-07,4.72843e-05,5.87222e-06,0
-1.73836e-05,3.95339e-05,-1.13069e-05,-0.00015517,-2.53929e-06,-5.77523e-06,2.87703e-05,6.48049e-06,0
-1.19515e-05,5.51725e-05,-1.26367e-05,-0.000124695,7.7186e-06,-9.87272e-06,1.66066e-06,6.13655e-06,0
-9.54552e-06,6.4717e-05,-1.5946e-05,-9.00789e-05,1.75951e-05,-5.71299e-06,-2.49585e-05,5.39258e-06,0
-1.21312e-05,6.43911e-05,-1.95271e-05,-1.51185e-05,9.2948e-06,1.02642e-05,-4.33934e-05,4.83393e-06,0
-1.96095e-05,5.09201e-05,-2.1002e-05,8.66726e-05,-6.13287e-06,2.94539e-05,-4.57382e-05,4.13129e-06,0
-2.95912e-05,2.488e-05,-1.98083e-05,0.000167142,-4.22528e-06,3.50769e-05,-3.02582e-05,3.43526e-06,0
-3.82611e-05,-6.2244e-06,-1.79299e-05,0.000180859,1.87659e-05,2.20884e-05,2.63407e-06,3.33985e-06,0
-4.22538e-05,-3.07704e-05,-1.48577e-05,0.000128343,4.63856e-05,6.40774e-06,4.34194e-05,3.5311e-06,0
-4.09981e-05,-4.38515e-05,-1.03641e-05,4.92955e-05,5.82128e-05,9.83993e-07,8.01489e-05,3.13582e-06,0
-3.89243e-05,-4.48865e-05,-5.87142e-06,-1.34906e-05,4.6203e-05,4.92143e-07,0.000101969,2.97034e-06,0
-4.12937e-05,-3.84532e-05,-3.01831e-06,-3.62992e-05,2.30994e-05,-1.44601e-06,0.000108487,3.45732e-06,0
-4.59486e-05,-3.18569e-05,-7.97174e-07,-9.51583e-06,7.70366e-06,3.59524e-08,0.000104652,3.90546e-06,0
-4.84873e-05,-2.53025e-05,2.61288e-06,4.39332e-05,8.5826e-06,5.91825e-06,9.96593e-05,3.25167e-06,0
-5.04583e-05,-1.65485e-05,6.05721e-06,8.56553e-05,1.86596e-05,7.83269e-06,9.87135e-05,1.1789e-06,0
-5.3085e-05,-6.20044e-06,6.75326e-06,9.30372e-05,1.90797e-05,3.16373e-06,9.3218e-05,-6.79518e-07,0
-5.22856e-05,4.87332e-06,6.00728e-06,6.91546e-05,4.06234e-06,-9.55515e-07,7.01255e-05,-1.46205e-06,0
-4.66286e-05,1.3525e-05,5.18042e-06,3.33728e-05,-9.88844e-06,-1.05407e-06,3.4836e-05,-1.84673e-06,0
-4.0526e-05,1.84118e-05,3.57124e-06,-4.96151e-06,-1.25044e-05,2.33751e-06,-1.2706e-05,-2.66787e-06,0
-3.72818e-05,2.19786e-05,3.42129e-06,-3.64816e-05,-7.57319e-06,7.48204e-06,-6.21848e-05,-3.78939e-06,0
-3.58736e-05,2.9121e-05,7.33367e-06,-3.35878e-05,-8.72327e-07,1.26742e-05,-8.7611e-05,-3.25273e-06,0
-3.47648e-05,3.68881e-05,7.25797e-06,2.56942e-06,4.0024e-07,1.41889e-05,-8.22794e-05,-1.07108e-06,0
-3.38094e-05,3.98251e-05,-1.44093e-06,1.32451e-05,-7.63992e-06,9.50029e-06,-5.47529e-05,-1.49157e-06,0
-3.5331e-05,3.6526e-05,-1.38977e-05,-5.87989e-05,-1.88394e-05,2.79926e-06,-2.79053e-05,-3.81891e-06,0
-3.5845e-05,2.89765e-05,-1.92731e-05,-0.000168789,-2.63155e-05,-2.9583e-07,-3.87058e-06,-3.39915e-06,0
-3.38016e-05,2.21415e-05,-1.79403e-05,-0.00021886,-2.42149e-05,2.35699e-08,3.02057e-05,-1.64793e-06,0
-3.38454e-05,1.81604e-05,-2.05896e-05,-0.000191293,-9.88027e-06,-2.47809e-06,8.21698e-05,-2.7978e-07,0
-3.70196e-05,1.81449e-05,-2.56001e-05,-0.000129384,5.06616e-06,-9.3847e-06,0.000143927,-5.54291e-07,0
-4.04417e-05,2.30425e-05,-2.70403e-05,-7.34478e-05,1.06759e-05,-1.63633e-05,0.000196666,-7.92828e-07,0
-4.02869e-05,3.36858e-05,-2.23775e-05,-4.4568e-05,8.64972e-06,-1.84113e-05,0.000209338,5.26089e-07,0
-3.7284e-05,4.83793e-05,-1.53468e-05,-3.5292e-05,9.65786e-06,-1.55621e-05,0.000162148,2.08848e-06,0
-3.395e-05,6.28483e-05,-7.20952e-06,-3.4051e-06,2.26404e-05,-9.83144e-06,6.14801e-05,3.17034e-06,0
-3.24187e-05,6.79681e-05,7.39602e-07,6.46422e-05,4.23553e-05,-2.50933e-06,-6.42e-05,5.72041e-06,0
-3.22573e-05,6.19268e-05,6.27771e-06,0.000143347,5.59398e-05,2.51021e-06,-0.000182333,1.56897e-05,0
-3.20257e-05,5.26881e-05,6.45903e-06,0.000213309,6.00066e-05,1.05427e-06,-0.00026874,3.17795e-05,0
-3.19355e-05,4.48167e-05,1.99488e-06,0.000255057,5.70804e-05,-3.22011e-06,-0.000297011,4.2817e-05,0
-3.12763e-05,3.46955e-05,-2.61277e-06,0.000238444,4.73168e-05,-1.6612e-06,-0.000251626,4.31083e-05,0
-2.86587e-05,2.06614e-05,-4.21318e-06,0.000159456,3.64433e-05,2.69485e-06,-0.000155004,3.57133e-05,0
-2.58974e-05,5.14941e-06,-2.40683e-06,5.7834e-05,2.69019e-05,5.10369e-09,-6.73688e-05,1.92811e-05,0
-2.52772e-05,-9.25589e-06,1.42586e-06,-1.36801e-05,1.83407e-05,-7.31423e-06,-2.79505e-05,-5.28726e-06,0
-2.7118e-05,-1.48709e-05,4.71515e-06,-2.80842e-05,1.46182e-05,-1.50087e-05,-2.99265e-05,-2.97009e-05,0
-3.26806e-05,-9.64407e-06,2.63131e-06,-7.16062e-06,1.1807e-05,-2.51094e-05,-4.60404e-05,-4.51905e-05,0
-3.82989e-05,1.24127e-07,-3.96539e-06,1.62835e-05,7.50095e-06,-3.12764e-05,-6.5081e-05,-4.74193e-05,0
-3.72988e-05,1.21806e-05,-5.27553e-06,3.1069e-05,1.29757e-05,-2.59552e-05,-9.6998e-05,-4.17081e-05,0
-3.03809e-05,2.4696e-05,7.08726e-08,2.39526e-05,2.22939e-05,-1.31015e-05,-0.000133876,-3.51466e-05,0
-2.46275e-05,3.49744e-05,-1.87437e-06,-1.65111e-05,1.61314e-05,-4.6367e-06,-0.000143668,-2.9449e-05,0
-2.41009e-05,3.95829e-05,-1.08774e-05,-4.88264e-05,-1.04736e-06,-6.64517e-06,-0.00011445,-2.44842e-05,0
-2.35167e-05,3.87446e-05,-1.33571e-05,-3.19809e-05,-5.72044e-06,-9.04548e-06,-6.68967e-05,-1.76491e-05,0
-2.24364e-05,3.24886e-05,-4.62376e-06,1.37814e-05,8.79798e-06,-4.88067e-06,-2.63472e-05,-1.08512e-05,0
-2.72896e-05,1.77915e-05,3.89341e-06,3.52573e-05,2.50024e-05,-6.35181e-06,4.82583e-06,-7.88326e-06,0
-3.35261e-05,3.28876e-06,1.86691e-06,1.77739e-06,2.904e-05,-1.5446e-05,3.44229e-05,-6.23504e-06,0
-3.39442e-05,-1.17633e-06,-4.95501e-06,-5.78558e-05,2.58206e-05,-2.70744e-05,6.77908e-05,-2.06614e-06,0
-2.96747e-05,-1.08443e-07,-9.23671e-06,-0.000110456,2.30128e-05,-3.31562e-05,9.45929e-05,2.65705e-06,0
-2.73456e-05,-9.98124e-06,-1.0849e-05,-0.000158891,1.8107e-05,-2.7112e-06,0.000107899,4.83985e-06,0
-3.00952e-05,-3.1227e-05,-1.23624e-05,-0.000202018,8.4734e-06,5.35399e-05,0.000110032,5.66658e-06,0
-3.68216e-05,-4.78422e-05,-1.54689e-05,-0.000222756,-3.37109e-06,7.7832e-05,0.000106065,6.48827e-06,0
-4.17183e-05,-4.67097e-05,-1.89738e-05,-0.000198239,-1.09234e-05,5.32641e-05,0.000105196,6.90038e-06,0
-3.84416e-05,-3.10809e-05,-1.8573e-05,-0.000125352,-9.71933e-06,1.37911e-05,0.000106093,6.09951e-06,0
-3.21703e-05,-1.4205e-05,-1.40196e-05,-3.59847e-05,-1.35711e-06,-7.65076e-06,9.94759e-05,4.73304e-06,0
-3.29555e-05,-1.12042e-06,-1.20186e-05,5.81581e-05,5.42023e-06,-1.46304e-05,7.57473e-05,4.40862e-06,0
-4.14745e-05,8.79541e-06,-1.59132e-05,0.000157545,3.43189e-06,-2.32004e-05,4.44882e-05,4.78483e-06,0
-4.98719e-05,1.70993e-05,-1.9819e-05,0.000235792,-5.39833e-06,-3.45346e-05,2.46544e-05,4.11349e-06,0
-5.26367e-05,2.48299e-05,-1.67004e-05,0.000248758,-1.31359e-05,-3.82832e-05,2.52484e-05,3.79925e-06,0
-5.0923e-05,3.22895e-05,-8.03282e-06,0.000184207,-9.92736e-06,-2.96698e-05,3.2994e-05,4.88464e-06,0
-5.01582e-05,3.55163e-05,8.0321e-08,8.88371e-05,8.84969e-06,-1.55467e-05,3.49845e-05,6.84851e-06,0
-5.01619e-05,3.28599e-05,4.55854e-06,2.41266e-05,3.04854e-05,-3.92228e-06,3.32322e-05,7.5244e-06,0
-4.71861e-05,2.66623e-05,2.63168e-06,-5.90336e-06,3.53606e-05,4.43344e-07,3.38139e-05,4.85533e-06,0
-4.33695e-05,1.73276e-05,-9.14887e-06,-4.47208e-05,2.14372e-05,-3.8396e-06,3.24043e-05,9.59886e-07,0
-4.33522e-05,3.36351e-06,-2.70808e-05,-0.000102092,1.23103e-06,-1.52361e-05,2.1975e-05,-2.29571e-06,0
-4.62049e-05,-1.01564e-05,-3.63264e-05,-0.000157051,-1.03687e-05,-2.35108e-05,2.10952e-06,-5.59426e-06,0
-4.6772e-05,-1.78969e-05,-2.92406e-05,-0.00018942,-4.89257e-06,-2.22119e-05,-1.70588e-05,-7.03616e-06,0
-4.49383e-05,-2.05561e-05,-1.75358e-05,-0.000192762,1.25836e-05,-1.68897e-05,-2.01848e-05,-6.90624e-06,0
-4.17051e-05,-1.41525e-05,-1.30057e-05,-0.000155803,3.09967e-05,-1.40426e-05,8.31355e-06,-5.36435e-06,0
-3.48716e-05,6.29016e-06,-1.48656e-05,-9.5827e-05,4.54445e-05,-1.30519e-05,5.43346e-05,-2.52968e-06,0
-2.85324e-05,3.2499e-05,-1.40102e-05,-5.92058e-05,5.41044e-05,-1.96916e-05,9.18667e-05,2.68763e-07,0
-2.45512e-05,5.61682e-05,-8.18918e-06,-3.58973e-05,5.35863e-05,-4.18707e-05,0.000138208,1.56483e-06,0
-2.15325e-05,7.02349e-05,-3.7339e-06,7.56837e-06,4.52456e-05,-6.51666e-05,0.000202905,6.96556e-07,0
-2.02631e-05,6.61595e-05,-3.62679e-06,7.54947e-05,3.47908e-05,-6.45165e-05,0.000260682,9.38489e-07,0
-1.98194e-05,4.65663e-05,-5.57275e-06,0.000141853,2.49644e-05,-4.34996e-05,0.000272982,1.45658e-06,0
-2.05404e-05,2.12906e-05,-6.73045e-06,0.000171679,1.89518e-05,-2.87667e-05,0.000208029,6.696e-07,0
-2.15152e-05,2.71434e-06,-8.45376e-06,0.000157148,1.72317e-05,-2.85266e-05,5.78969e-05,8.79871e-07,0
-1.99069e-05,-3.00864e-06,-9.82199e-06,0.000112416,1.84866e-05,-3.15623e-05,-0.000138256,2.16634e-06,0
-1.52397e-05,8.8255e-07,-9.63201e-06,6.99833e-05,2.2495e-05,-2.54302e-05,-0.000304539,2.64674e-06,0
-9.95356e-06,6.13999e-06,-8.47951e-06,6.46155e-05,2.79713e-05,-9.25063e-06,-0.000366475,3.69961e-06,0
-7.48887e-06,9.0323e-06,-7.65088e-06,8.33203e-05,3.07969e-05,4.17991e-06,-0.000307598,5.13851e-06,0
-1.32224e-05,1.17356e-05,-9.4565e-06,7.80557e-05,2.55928e-05,3.25168e-06,-0.000183554,5.87009e-06,0
-2.55125e-05,1.53614e-05,-1.45402e-05,4.97222e-05,1.61477e-05,-8.19733e-06,-6.33407e-05,6.14876e-06,0
-3.30624e-05,1.86238e-05,-1.81036e-05,3.81444e-05,1.14308e-05,-1.60464e-05,2.24625e-05,6.57471e-06,0
-2.92665e-05,2.0568e-05,-1.60753e-05,3.22936e-05,1.19582e-05,-7.80607e-06,7.43908e-05,6.90773e-06,0
-2.03161e-05,2.32107e-05,-9.59664e-06,-1.13009e-05,1.32045e-05,1.20967e-05,9.5574e-05,7.51927e-06,0
-1.43645e-05,2.78179e-05,-9.61205e-07,-8.68143e-05,1.75605e-05,2.06054e-05,9.50279e-05,9.09658e-06,0
-1.31923e-05,3.16228e-05,6.06501e-06,-0.000151618,2.43213e-05,9.56749e-06,8.33574e-05,1.16234e-05,0
-1.4375e-05,3.14713e-05,6.17163e-06,-0.000188802,2.27105e-05,-4.84477e-06,6.4383e-05,1.44507e-05,0
-1.50785e-05,2.82995e-05,-2.45552e-06,-0.00021288,8.36183e-06,-1.06597e-05,3.68546e-05,1.62127e-05,0
-1.48014e-05,2.48986e-05,-9.09133e-06,-0.000205641,-3.59264e-06,-9.85562e-06,1.27089e-05,1.66863e-05,0
-1.3053e-05,2.15715e-05,-7.55188e-06,-0.000116572,-5.6465e-07,-5.45286e-06,9.80987e-06,1.65408e-05,0
-1.19757e-05,1.66759e-05,-8.35421e-06,2.48815e-05,6.48776e-06,-1.44448e-06,2.86502e-05,1.65162e-05,0
-1.32187e-05,1.13933e-05,-1.733e-05,0.00012859,8.05526e-06,-3.03878e-06,4.88731e-05,1.63064e-05,0
-1.49359e-05,7.99403e-06,-2.59142e-05,0.000156004,4.93265e-06,-8.67547e-06,5.86811e-05,1.522e-05,0
-1.68809e-05,4.77038e-06,-2.78087e-05,8.3228e-05,-1.57851e-06,-1.42125e-05,6.38122e-05,1.28042e-05,0
-1.87641e-05,-4.52003e-06,-2.87832e-05,-5.06327e-05,-1.49782e-06,-1.5849e-05,7.22999e-05,1.39876e-05,0
-2.12127e-05,-1.96631e-05,-3.15163e-05,-0.000140372,3.48545e-06,-1.56716e-05,8.64369e-05,1.60381e-05,0
-2.30717e-05,-2.79388e-05,-3.1512e-05,-0.000168447,3.87991e-06,-1.5381e-05,0.000104282,1.44411e-05,0
-2.0183e-05,-2.38405e-05,-2.44235e-05,-0.00015374,3.69562e-06,-1.19313e-05,0.000118775,9.59776e-06,0
-1.43708e-05,-1.06324e-05,-1.20349e-05,-8.22011e-05,9.20027e-06,-6.75303e-06,0.00011278,6.97736e-07,0
-1.01982e-05,5.02661e-06,-1.39746e-06,2.99406e-05,2.08546e-05,-3.48042e-06,8.65622e-05,-6.35698e-06,0
-9.3911e-06,1.67362e-05,4.62623e-06,0.000112839,2.82368e-05,-3.6749e-06,5.05859e-05,-9.16341e-06,0
-1.32794e-05,2.36612e-05,3.93605e-06,0.000135391,2.61401e-05,-8.11736e-06,8.49379e-06,-8.78936e-06,0
-2.11341e-05,2.49835e-05,-5.64047e-07,0.000108739,2.094e-05,-1.47378e-05,-3.16495e-05,-6.69726e-06,0
-2.70365e-05,2.28188e-05,-2.48328e-06,5.82262e-05,1.82032e-05,-1.73182e-05,-5.97654e-05,-3.60924e-06,0
-2.78769e-05,2.09555e-05,3.89781e-07,1.29494e-05,1.67899e-05,-1.52199e-05,-7.46756e-05,4.93764e-07,0
-2.6488e-05,2.24849e-05,2.88432e-06,-1.32702e-05,1.13566e-05,-1.26374e-05,-8.37725e-05,3.91197e-06,0
-2.53498e-05,3.18919e-05,2.1126e-06,-1.0109e-05,2.05085e-06,-1.23472e-05,-9.02101e-05,5.92579e-06,0
-2.36425e-05,5.31721e-05,2.4127e-06,1.5136e-05,-6.8612e-06,-1.27821e-05,-9.24613e-05,7.23845e-06,0
-2.21535e-05,7.97164e-05,5.89269e-06,3.35803e-05,-1.09193e-05,-1.1265e-05,-8.42712e-05,7.47706e-06,0
-2.41713e-05,9.98923e-05,9.37812e-06,2.70031e-05,-7.15723e-06,-8.86032e-06,-5.98696e-05,6.24065e-06,0
-3.05665e-05,0.000110156,8.0054e-06,1.7186e-05,3.03882e-06,-1.05312e-05,-2.49745e-05,5.96781e-06,0
-3.89472e-05,0.00011072,1.89846e-06,1.58264e-05,1.20607e-05,-1.83119e-05,3.22223e-06,8.04157e-06,0
-4.48344e-05,9.70219e-05,-4.43288e-06,2.3023e-06,1.30356e-05,-2.6475e-05,6.02893e-06,1.00857e-05,0
-4.55054e-05,6.6635e-05,-7.47411e-06,-4.63216e-05,6.94412e-06,-2.71222e-05,-1.39164e-05,9.6427e-06,0
-4.26261e-05,3.06304e-05,-9.11364e-06,-0.000103446,9.43245e-07,-2.03604e-05,-2.73811e-05,7.32898e-06,0
-3.92263e-05,9.59551e-06,-1.09633e-05,-0.000125797,-4.44866e-07,-1.34478e-05,-1.7351e-05,5.4456e-06,0
-3.73825e-05,1.56031e-05,-1.45417e-05,-0.000128394,-2.81052e-06,-1.18663e-05,4.8269e-06,5.08725e-06,0
-3.89781e-05,3.97409e-05,-2.15891e-05,-0.000141295,-9.69834e-06,-1.73268e-05,2.70585e-05,4.85281e-06,0
-4.10768e-05,5.77593e-05,-2.93418e-05,-0.000135569,-1.18059e-05,-2.24599e-05,4.93959e-05,5.01828e-06,0
-4.11623e-05,5.27103e-05,-3.28426e-05,-0.000116382,-5.60432e-06,-2.19308e-05,6.60333e-05,4.90706e-06,0
-3.61702e-05,2.96875e-05,-2.93883e-05,-0.000113612,-1.94168e-06,-2.0744e-05,7.28896e-05,5.78609e-06,0
-2.46034e-05,5.58653e-06,-2.04848e-05,-9.87297e-05,-5.10186e-06,-2.15251e-05,8.25908e-05,6.64834e-06,0
-1.34864e-05,-1.10178e-05,-1.19297e-05,-6.9251e-05,-4.0716e-06,-1.91956e-05,9.82768e-05,4.41931e-06,0
-7.88643e-06,-2.14263e-05,-7.44398e-06,-1.53136e-05,4.69069e-06,-1.46616e-05,8.55146e-05,1.4235e-06,0
-1.12433e-05,-2.68717e-05,-5.42823e-06,9.9369e-05,9.588e-06,-1.59127e-05,3.48509e-05,-9.32473e-07,0
-2.56354e-05,-3.32732e-05,-4.05442e-06,0.000229615,1.13199e-05,-1.40065e-05,-5.13746e-06,-2.51894e-06,0
-4.53994e-05,-4.115e-05,-2.06938e-06,0.000284651,1.6568e-05,2.43477e-06,-1.89147e-05,-3.09346e-06,0
-6.36996e-05,-4.93505e-05,5.20816e-07,0.000251813,2.26716e-05,2.14192e-05,-1.77283e-05,-2.1762e-06,0
-7.60874e-05,-5.98964e-05,-6.68314e-07,0.000179714,2.56375e-05,2.77396e-05,-1.1578e-05,-3.53197e-07,0
-7.7153e-05,-7.24067e-05,-2.99544e-06,0.00011149,2.72806e-05,1.96421e-05,8.29307e-06,4.4544e-07,0
-7.57567e-05,-8.17478e-05,-8.62848e-08,5.73719e-05,2.7838e-05,4.06192e-06,3.65286e-05,6.01582e-08,0
-7.69318e-05,-8.276e-05,6.5087e-06,2.66661e-06,2.09704e-05,-1.07098e-05,4.41118e-05,-1.0706e-06,0
-6.42961e-05,-7.92412e-05,9.2726e-06,-4.32062e-05,2.0106e-06,-1.95727e-05,3.2963e-05,-2.24483e-06,0
-3.49551e-05,-7.67647e-05,4.432e-06,-5.07894e-05,-1.81145e-05,-2.28282e-05,3.46514e-05,-2.73898e-06,0
-9.91122e-06,-7.35423e-05,-3.88362e-06,-5.08596e-06,-2.06308e-05,-2.14996e-05,6.51888e-05,-2.40766e-06,0
-6.07094e-06,-6.3989e-05,-8.35887e-06,9.54056e-05,-4.64615e-06,-1.61827e-05,0.000104717,-1.20781e-06,0
-1.67673e-05,-4.87656e-05,-4.63613e-06,0.000218448,1.38733e-05,-1.04244e-05,0.000150612,-1.2087e-06,0
-2.80597e-05,-3.2119e-05,1.21835e-06,0.000290416,2.228e-05,-7.65185e-06,0.000204444,-3.50659e-06,0
-3.35277e-05,-1.72707e-05,2.58876e-06,0.000261518,2.55018e-05,-7.39992e-06,0.000234485,-5.13685e-06,0
-3.43173e-05,-3.87163e-06,3.25379e-08,0.000158102,3.25724e-05,-5.32751e-06,0.000196172,-4.49022e-06,0
-3.16773e-05,1.02181e-05,-1.3346e-06,4.84072e-05,4.15128e-05,2.19982e-06,9.55285e-05,-4.77189e-06,0
-2.42959e-05,2.88208e-05,3.60762e-07,-1.45297e-05,4.68747e-05,1.6996e-05,-2.37156e-05,-4.97065e-06,0
-1.45794e-05,4.91717e-05,3.77795e-06,-1.14148e-05,5.02046e-05,3.5203e-05,-0.000131172,-3.28045e-06,0
-8.53754e-06,5.95857e-05,5.77434e-06,2.81599e-05,4.56143e-05,4.63401e-05,-0.000211649,-2.09658e-06,0
-7.11257e-06,5.28905e-05,3.58243e-06,2.79953e-05,2.75867e-05,4.62877e-05,-0.00024217,-2.07992e-06,0
-7.04443e-06,3.48041e-05,2.30225e-06,-3.70147e-05,1.64505e-05,4.44965e-05,-0.000212265,-1.98243e-06,0
-9.73105e-06,1.50146e-05,5.35836e-06,-0.000114736,2.99571e-05,4.6548e-05,-0.0001501,-2.18672e-06,0
-2.23988e-05,-1.71911e-06,1.21419e-06,-0.000174045,4.77919e-05,4.0774e-05,-9.74267e-05,-1.38311e-06,0
-4.7555e-05,-1.12176e-05,-1.20705e-05,-0.000196338,4.01826e-05,2.21166e-05,-7.24418e-05,2.97218e-06,0
-7.17233e-05,-1.44481e-05,-2.15108e-05,-0.000189237,1.31168e-05,4.92866e-06,-7.05319e-05,5.24731e-06,0
-8.18971e-05,-1.41317e-05,-1.88169e-05,-0.000196366,-6.14753e-06,-4.76626e-06,-9.15243e-05,3.11148e-06,0
-7.47178e-05,-7.96979e-06,-7.47406e-06,-0.000227189,-9.96627e-06,-1.52507e-05,-0.000121214,8.92625e-09,0
-5.75931e-05,1.14779e-06,-1.41212e-06,-0.000260168,-7.13078e-06,-3.13219e-05,-0.000129628,-1.14283e-06,0
-4.05255e-05,8.50305e-06,-2.38088e-06,-0.000257743,-7.47882e-06,-5.82421e-05,-0.000102621,-1.25344e-07,0
-2.79841e-05,1.07752e-05,-5.30558e-06,-0.000211317,-8.35713e-06,-7.76016e-05,-4.43503e-05,-1.06572e-06,0
-2.05015e-05,6.85005e-06,-9.57211e-06,-0.000128658,-5.13441e-06,-5.00705e-05,2.06681e-05,-3.01744e-06,0
-1.63309e-05,1.18545e-06,-1.46326e-05,-2.50517e-05,-3.87916e-06,1.1925e-05,6.57438e-05,-4.24023e-06,0
-1.3238e-05,-1.94262e-06,-1.79124e-05,4.98964e-05,-4.3086e-06,4.90682e-05,7.86644e-05,-4.91043e-06,0
-6.10797e-06,-1.43146e-06,-1.87554e-05,7.16506e-05,-7.09849e-07,3.50973e-05,7.38391e-05,-3.95993e-06,0
3.68805e-06,-1.17477e-06,-1.87749e-05,7.17423e-05,7.22852e-06,5.74358e-06,8.08431e-05,-1.32652e-06,0
7.82269e-06,-3.58945e-06,-1.75137e-05,8.14889e-05,1.6315e-05,-5.26118e-06,0.000104633,2.87462e-07,0
3.52351e-06,-3.8029e-06,-1.43557e-05,6.9619e-05,2.70898e-05,6.64972e-07,0.000130431,-8.44774e-07,0
-1.53021e-06,3.43734e-06,-9.44842e-06,-3.42251e-06,3.48526e-05,7.30849e-06,0.000144723,-1.77405e-06,0
-4.74097e-06,1.48737e-05,-5.21478e-06,-0.000101507,3.47558e-05,2.52918e-06,0.000143508,-4.13031e-07,0
-1.11683e-05,2.2418e-05,-3.38662e-06,-0.000159285,2.89072e-05,-1.20371e-05,0.000120873,1.07549e-06,0
-2.10259e-05,2.42961e-05,-5.35205e-06,-0.000164397,2.00633e-05,-2.92759e-05,8.39886e-05,2.66168e-07,0
-2.94431e-05,2.5041e-05,-1.08322e-05,-0.000120992,1.01731e-05,-4.3865e-05,5.35848e-05,-9.54362e-07,0
-3.3301e-05,2.51869e-05,-1.42117e-05,-4.48354e-05,3.11583e-06,-5.4238e-05,4.52164e-05,-6.0975e-07,0
-3.44199e-05,2.38888e-05,-1.15056e-05,3.39787e-06,-1.83792e-07,-6.08381e-05,4.88519e-05,-7.82381e-07,0
-3.61801e-05,2.38758e-05,-8.13482e-06,-1.67449e-06,2.46698e-07,-6.5367e-05,4.52479e-05,-2.66438e-06,0
-3.88951e-05,2.74771e-05,-1.0311e-05,-5.2597e-06,5.4256e-06,-6.34431e-05,3.11047e-05,-4.49229e-06,0
-3.89612e-05,3.21003e-05,-1.46683e-05,2.01542e-05,1.04022e-05,-5.68662e-05,1.64447e-05,-5.23867e-06,0
-3.56902e-05,3.56616e-05,-1.61664e-05,5.87862e-05,8.33137e-06,-5.0333e-05,1.23579e-05,-5.5783e-06,0
-3.1324e-05,4.10325e-05,-1.50277e-05,0.000127202,5.36228e-07,-4.03938e-05,1.57297e-05,-6.84591e-06,0
-2.67045e-05,5.03348e-05,-1.29305e-05,0.000191544,-4.86187e-06,-2.83465e-05,1.52356e-06,-6.80537e-06,0
-2.43168e-05,5.61762e-05,-1.30036e-05,0.0001824,-6.63212e-06,-2.41829e-05,-3.89519e-05,-5.54972e-06,0
-2.42921e-05,5.69979e-05,-1.49708e-05,9.02479e-05,-1.02969e-05,-1.14155e-05,-7.61054e-05,-6.19556e-06,0
-2.48197e-05,5.76305e-05,-1.64614e-05,-5.9982e-05,-1.70406e-05,1.53898e-05,-8.75171e-05,-5.86034e-06,0
-2.84889e-05,5.73579e-05,-1.73475e-05,-0.000231042,-2.53813e-05,2.23473e-05,-7.72631e-05,-4.20713e-06,0
-3.40435e-05,5.9703e-05,-1.74444e-05,-0.000354645,-2.70072e-05,5.12503e-06,-8.16849e-05,-3.15958e-06,0
-3.72875e-05,6.39658e-05,-1.62973e-05,-0.000370633,-1.41034e-05,-1.28097e-05,-0.000117412,-2.36659e-06,0
-3.36701e-05,7.12046e-05,-9.9978e-06,-0.00029201,9.43818e-06,-1.46512e-05,-0.00014164,-2.18036e-06,0
-2.46044e-05,8.01244e-05,-2.05909e-06,-0.000154384,2.92458e-05,-6.92909e-06,-0.000109704,-1.22225e-06,0
-1.76213e-05,8.416e-05,-1.31565e-06,-1.27746e-06,3.15958e-05,-1.73943e-07,-1.53652e-05,1.28152e-07,0
-1.56742e-05,7.83621e-05,-2.03832e-06,0.000123974,2.93839e-05,6.14133e-06,0.000116232,-2.98755e-07,0
-1.71825e-05,6.23629e-05,4.72965e-06,0.000198347,3.62727e-05,1.26504e-05,0.00026053,-2.563e-06,0
-2.03849e-05,4.14227e-05,1.43257e-05,0.000231639,4.28262e-05,1.59099e-05,0.000392245,-4.67738e-06,0
-2.54003e-05,2.20052e-05,1.82162e-05,0.000254236,3.74215e-05,1.23737e-05,0.000479172,-4.76248e-06,0
-3.33621e-05,1.06683e-05,1.57783e-05,0.000283249,2.48446e-05,7.11288e-06,0.000490295,-3.49389e-06,0
-4.24618e-05,5.73271e-06,1.14078e-05,0.00032036,1.20728e-05,3.06547e-06,0.000391731,-1.46973e-06,0
-4.82413e-05,2.74956e-06,5.94896e-06,0.000355018,-8.93411e-07,-1.57139e-06,0.000170774,8.83268e-07,0
-5.00246e-05,1.79744e-06,-7.60484e-07,0.000362572,-1.27155e-05,-8.42828e-06,-0.000121156,3.26112e-06,0
-5.03487e-05,3.68663e-06,-5.72761e-06,0.000308617,-1.65906e-05,-1.54511e-05,-0.000370362,6.09685e-06,0
-5.01088e-05,7.46513e-06,-6.00849e-06,0.000204098,-7.68635e-06,-2.0136e-05,-0.00048156,1.04894e-05,0
-4.79239e-05,1.57899e-05,-3.54154e-06,9.21101e-05,7.96362e-06,-2.1355e-05,-0.000438119,1.77101e-05,0
-4.39684e-05,2.82551e-05,-1.32537e-06,-1.48724e-05,2.16048e-05,-1.94247e-05,-0.000296821,2.52931e-05,0
-3.93682e-05,4.01289e-05,8.96472e-07,-0.00012703,2.95846e-05,-1.65216e-05,-0.000143563,2.7011e-05,0
-3.41784e-05,4.63212e-05,2.38544e-06,-0.000216115,3.3325e-05,-1.54634e-05,-5.04338e-05,2.08856e-05,0
-2.85105e-05,4.5668e-05,1.92175e-06,-0.000248946,3.06624e-05,-1.46643e-05,-2.40443e-05,1.2571e-05,0
-2.37864e-05,3.76648e-05,1.04146e-06,-0.000223083,2.55255e-05,-9.97049e-06,-2.46208e-05,1.15553e-05,0
-1.96997e-05,2.29416e-05,-5.04774e-07,-0.000162848,2.53374e-05,1.90448e-06,-2.38406e-05,2.26117e-05,0
-1.82951e-05,3.19294e-06,-3.97717e-06,-9.73553e-05,2.63683e-05,1.78447e-05,-8.52255e-06,3.40662e-05,0
-2.32053e-05,-1.80663e-05,-8.23111e-06,-3.70524e-05,1.95918e-05,1.90339e-05,8.32743e-06,3.51308e-05,0
-3.41415e-05,-2.90441e-05,-1.17941e-05,2.28329e-05,9.10414e-06,5.00915e-06,1.37224e-05,2.96155e-05,0
-4.56382e-05,-2.78496e-05,-1.61472e-05,7.71991e-05,2.07874e-06,-6.79631e-06,1.67926e-05,1.51995e-05,0
-4.8237e-05,-2.09448e-05,-2.21207e-05,9.17808e-05,-1.44513e-06,-1.21604e-05,2.79461e-05,-8.89612e-06,0
-4.31256e-05,-1.06159e-05,-2.35102e-05,6.37066e-05,2.42164e-06,-1.14928e-05,5.70647e-05,-3.19972e-05,0
-3.90132e-05,3.93484e-06,-1.85822e-05,2.15084e-05,6.02065e-06,-1.00154e-05,9.98413e-05,-4.55116e-05,0
-3.7849e-05,2.0452e-05,-1.1497e-05,-1.15093e-05,8.75859e-07,-1.0292e-05,0.000143984,-4.87167e-05,0
-3.67412e-05,3.24104e-05,-8.88194e-06,-2.49974e-05,-5.64314e-06,-9.99234e-06,0.000188107,-4.67908e-05,0
-3.30583e-05,3.59815e-05,-1.39718e-05,-2.42981e-05,-8.69918e-06,-7.16928e-06,0.000226008,-4.1261e-05,0
-3.02874e-05,3.58786e-05,-2.11445e-05,-1.89381e-05,-7.33009e-06,-3.413e-06,0.00024265,-3.29428e-05,0
-3.10419e-05,3.4569e-05,-2.4374e-05,-6.33996e-06,-2.29065e-06,-2.47281e-06,0.000234018,-2.24311e-05,0
-3.27686e-05,3.02066e-05,-2.38673e-05,1.35767e-05,7.88479e-07,-3.87354e-06,0.000214122,-1.13412e-05,0
-3.28974e-05,2.24236e-05,-2.34026e-05,2.44605e-05,-4.86705e-07,-5.10522e-06,0.000181557,-3.83007e-06,0
-3.27096e-05,9.60798e-06,-2.41625e-05,1.77147e-05,-9.72972e-07,-5.35935e-06,0.000120192,-6.09014e-07,0
-3.36584e-05,-8.81255e-06,-2.53073e-05,-6.30817e-08,7.59316e-07,-7.17842e-06,4.06557e-05,1.65984e-06,0
-3.40813e-05,-2.92893e-05,-2.48197e-05,-1.60959e-05,7.28287e-07,-8.24381e-06,-2.82052e-05,5.01384e-06,0
-3.31013e-05,-4.46787e-05,-2.07728e-05,-2.47061e-05,-1.42949e-06,-5.75823e-06,-7.56888e-05,7.72986e-06,0
-3.15331e-05,-4.94494e-05,-1.43916e-05,-3.59909e-05,-4.15797e-06,-1.77724e-06,-0.000107649,9.10653e-06,0
-3.12838e-05,-4.36413e-05,-9.83338e-06,-6.70272e-05,-9.61497e-06,-2.03856e-06,-0.000125141,1.05142e-05,0
-3.35436e-05,-3.31271e-05,-6.82032e-06,-0.000112211,-1.28477e-05,-6.96012e-06,-0.000126084,1.13398e-05,0
-3.97626e-05,-2.17637e-05,-3.77055e-06,-0.000140305,-1.96861e-06,-1.22679e-05,-0.000122722,1.00966e-05,0
-4.77825e-05,-1.16063e-05,-4.65317e-06,-0.000136519,1.49321e-05,-1.72065e-05,-0.00012004,8.75976e-06,0
-5.18708e-05,-3.71039e-06,-1.03452e-05,-9.79283e-05,1.92976e-05,-2.31068e-05,-9.15836e-05,7.46507e-06,0
-4.77411e-05,1.56664e-06,-1.51737e-05,-2.69731e-05,7.8566e-06,-2.81179e-05,-2.69794e-05,5.94848e-06,0
-3.91013e-05,2.47038e-06,-1.5671e-05,5.369e-05,-1.18344e-05,-3.16995e-05,4.45008e-05,5.19634e-06,0
-3.20997e-05,-7.17916e-07,-1.34799e-05,0.000114915,-2.39495e-05,-3.26527e-05,9.34382e-05,5.20576e-06,0
-2.78355e-05,-2.91288e-06,-1.30775e-05,0.00011169,-1.72257e-05,-2.72665e-05,8.97204e-05,6.43482e-06,0
-2.6094e-05,-2.41191e-06,-1.78841e-05,4.17992e-05,-2.06615e-06,-2.11458e-05,-1.63321e-06,7.85461e-06,0
-2.55013e-05,-1.05167e-06,-2.39256e-05,-3.29674e-05,1.0077e-05,-1.71512e-05,-0.000140794,6.86904e-06,0
-2.33282e-05,3.27518e-06,-2.15893e-05,-7.77472e-05,2.10343e-05,-1.12962e-05,-0.000247623,6.13517e-06,0
-1.95047e-05,9.62805e-06,-1.03919e-05,-8.61829e-05,3.49646e-05,-3.3019e-06,-0.000301959,6.54448e-06,0
-1.70174e-05,1.27898e-05,6.40146e-08,-7.94292e-05,4.6423e-05,2.30747e-06,-0.000303999,6.27325e-06,0
-1.6735e-05,1.17253e-05,3.81173e-06,-7.79439e-05,4.50738e-05,2.77771e-07,-0.000253985,6.01043e-06,0
-1.80072e-05,1.23137e-05,3.1193e-06,-6.89123e-05,2.96711e-05,-5.71239e-06,-0.000159706,5.33214e-06,0
-2.13177e-05,1.68261e-05,2.66234e-06,-4.6411e-05,1.48421e-05,-8.30477e-06,-5.82034e-05,4.14747e-06,0
-2.46684e-05,2.11835e-05,3.08384e-06,-3.18097e-05,1.16755e-05,-6.48724e-06,1.57534e-05,2.92012e-06,0
-2.64562e-05,2.37184e-05,1.44957e-06,-6.58021e-05,1.20536e-05,-5.84096e-06,6.93352e-05,2.35322e-06,0
-2.84302e-05,2.28407e-05,-5.10225e-06,-0.000145216,6.39547e-06,-8.57501e-06,0.000117943,2.65429e-06,0
-3.14804e-05,1.67206e-05,-1.24271e-05,-0.000202723,2.47097e-06,-1.13077e-05,0.000162635,3.74239e-06,0
-3.36847e-05,1.07592e-05,-1.16448e-05,-0.00017634,1.62907e-05,-1.01595e-05,0.000199509,4.63353e-06,0
