ch1,ch2,ch3,ch4,ch5,ch6,ch7,ch8,class
-3.12919e-05,1.28674e-05,-1.02695e-05,-6.51812e-06,1.84223e-05,-8.55458e-06,1.89348e-05,-2.23689e-06,0
-3.04608e-05,9.36452e-06,-1.05746e-05,-4.18733e-06,1.86041e-05,-6.4003e-06,1.55435e-05,-1.15615e-06,0
-3.03e-05,7.17531e-06,-8.98168e-06,-3.31363e-06,1.93397e-05,-5.22701e-06,1.17745e-05,8.69961e-07,0
-3.0888e-05,7.17965e-06,-6.90373e-06,-6.17778e-06,2.02363e-05,-4.49591e-06,7.99974e-06,2.55291e-06,0
-3.08363e-05,8.67559e-06,-5.24725e-06,-1.1104e-05,1.93293e-05,-3.92561e-06,6.58815e-06,3.07589e-06,0
-3.01015e-05,1.01152e-05,-3.8421e-06,-1.43413e-05,1.75432e-05,-3.49554e-06,5.31297e-06,3.26954e-06,0
-2.97777e-05,1.06449e-05,-2.46027e-06,-1.40221e-05,1.67565e-05,-3.81222e-06,1.04743e-06,3.94738e-06,0
-2.98117e-05,1.0017e-05,-1.87138e-06,-1.08176e-05,1.53098e-05,-4.6464e-06,-4.63756e-06,5.12771e-06,0
-2.96066e-05,1.06299e-05,-1.71245e-06,-4.13651e-06,1.2584e-05,-5.79578e-06,-6.50478e-06,5.44135e-06,0
-2.9486e-05,1.40648e-05,-1.59785e-06,5.31151e-06,1.0336e-05,-6.60992e-06,-2.23446e-06,4.89184e-06,0
-2.93132e-05,1.7907e-05,-2.09267e-06,1.09395e-05,8.62632e-06,-7.63618e-06,5.10449e-06,5.35497e-06,0
-2.78865e-05,1.93217e-05,-4.03574e-06,9.17239e-06,8.06418e-06,-9.4521e-06,1.0663e-05,6.94659e-06,0
-2.55727e-05,1.98529e-05,-6.91006e-06,5.5207e-06,1.00424e-05,-1.17392e-05,1.25073e-05,8.34758e-06,0
-2.39417e-05,2.18883e-05,-9.34283e-06,4.20793e-06,1.29374e-05,-1.28036e-05,1.1759e-05,8.87163e-06,0
-2.29036e-05,2.25568e-05,-1.00557e-05,4.34109e-06,1.51784e-05,-1.14059e-05,1.03314e-05,9.01643e-06,0
-2.14901e-05,2.04769e-05,-8.19325e-06,6.25743e-06,1.92034e-05,-9.1387e-06,1.0555e-05,8.43589e-06,0
-2.09764e-05,1.98692e-05,-4.42617e-06,8.36324e-06,2.47385e-05,-7.27547e-06,1.1817e-05,7.5536e-06,0
-2.23445e-05,2.16687e-05,-1.70274e-06,6.23252e-06,2.80059e-05,-6.32448e-06,9.02974e-06,8.92934e-06,0
-2.40991e-05,2.26869e-05,-1.80472e-06,-6.59673e-07,2.59736e-05,-7.30556e-06,-6.08549e-06,1.12595e-05,0
-2.78066e-05,2.33236e-05,-3.95498e-06,-1.2584e-05,2.12925e-05,-1.02158e-05,-3.35102e-05,1.26097e-05,0
-3.09256e-05,2.61368e-05,-5.44823e-06,-2.61465e-05,1.7167e-05,-1.29659e-05,-4.99078e-05,1.18512e-05,0
-3.05516e-05,2.80294e-05,-4.80067e-06,-3.37772e-05,1.26314e-05,-1.46688e-05,-4.18468e-05,9.31863e-06,0
-2.93191e-05,2.57491e-05,-4.02949e-06,-3.37852e-05,1.09334e-05,-1.64864e-05,-2.01793e-05,9.53021e-06,0
-2.82621e-05,2.34652e-05,-4.775e-06,-2.67484e-05,1.12434e-05,-1.74592e-05,4.5277e-06,9.81586e-06,0
-2.79906e-05,2.30772e-05,-5.99431e-06,-1.38113e-05,1.11921e-05,-1.57091e-05,2.43917e-05,1.03471e-05,0
-2.79578e-05,2.31753e-05,-6.54159e-06,1.2054e-06,1.08693e-05,-1.43566e-05,3.97555e-05,1.18252e-05,0
-2.74185e-05,2.29743e-05,-6.51973e-06,8.35364e-06,9.97549e-06,-1.55533e-05,4.76876e-05,1.17642e-05,0
-2.79507e-05,2.1718e-05,-6.94499e-06,5.99002e-06,9.47054e-06,-1.73154e-05,4.87643e-05,9.90332e-06,0
-2.96107e-05,2.04915e-05,-8.33969e-06,1.81131e-07,8.91312e-06,-1.79836e-05,4.54825e-05,8.45911e-06,0
-3.12537e-05,1.95198e-05,-1.04824e-05,-6.02681e-06,8.91732e-06,-1.80303e-05,4.08057e-05,8.68816e-06,0
-3.28996e-05,1.82369e-05,-1.17731e-05,-1.12675e-05,1.0274e-05,-1.83028e-05,3.71253e-05,9.5417e-06,0
-3.31301e-05,1.62126e-05,-1.09822e-05,-1.57158e-05,1.23749e-05,-1.80052e-05,3.39205e-05,8.72763e-06,0
-3.15437e-05,1.4092e-05,-9.35978e-06,-1.79124e-05,1.3805e-05,-1.69594e-05,3.14674e-05,5.68105e-06,0
-3.05371e-05,1.22915e-05,-8.42009e-06,-1.51113e-05,1.51267e-05,-1.59031e-05,2.81247e-05,3.32555e-06,0
-3.06864e-05,1.07759e-05,-7.75762e-06,-7.6764e-06,1.57987e-05,-1.4919e-05,2.52842e-05,2.45839e-06,0
-3.04082e-05,1.07783e-05,-6.57907e-06,-2.99191e-06,1.52489e-05,-1.38526e-05,2.44883e-05,2.12906e-06,0
-2.94337e-05,1.34238e-05,-5.64769e-06,-5.74527e-06,1.43227e-05,-1.2762e-05,2.66292e-05,1.34109e-06,0
-2.90152e-05,1.68149e-05,-4.79101e-06,-9.46917e-06,1.40163e-05,-1.22166e-05,2.70504e-05,1.95798e-06,0
-2.99661e-05,1.91479e-05,-4.16187e-06,-5.60292e-06,1.4171e-05,-1.21706e-05,2.34127e-05,2.63386e-06,0
-3.14242e-05,2.18564e-05,-5.00002e-06,4.96958e-07,1.37205e-05,-1.20694e-05,1.85313e-05,1.93421e-06,0
-3.21633e-05,2.51666e-05,-8.05457e-06,-1.3223e-06,1.28778e-05,-1.06914e-05,1.59514e-05,1.28465e-07,0
-3.16114e-05,2.6219e-05,-1.10016e-05,-9.34794e-06,1.27013e-05,-8.75397e-06,1.43112e-05,-1.9273e-06,0
-3.07621e-05,2.30455e-05,-1.15022e-05,-1.57209e-05,1.20878e-05,-8.12179e-06,1.28427e-05,-2.9594e-06,0
-3.02119e-05,1.91022e-05,-1.05017e-05,-2.20986e-05,1.05391e-05,-7.51121e-06,1.04079e-05,-3.2789e-06,0
-2.90789e-05,1.75146e-05,-1.03158e-05,-2.96867e-05,9.57e-06,-5.99524e-06,8.61328e-06,-5.09225e-06,0
-3.01859e-05,1.62208e-05,-1.22622e-05,-3.31688e-05,8.07657e-06,-5.1812e-06,9.56636e-06,-7.08852e-06,0
-3.34399e-05,1.46343e-05,-1.53108e-05,-3.0554e-05,7.32655e-06,-5.90344e-06,1.17777e-05,-8.95475e-06,0
-3.48975e-05,1.49666e-05,-1.79586e-05,-2.51248e-05,7.43206e-06,-7.20771e-06,1.58928e-05,-9.59254e-06,0
-3.43795e-05,1.67239e-05,-1.85938e-05,-1.95152e-05,7.22257e-06,-8.11214e-06,1.99368e-05,-8.9824e-06,0
-3.21104e-05,1.81373e-05,-1.6042e-05,-1.29183e-05,8.07453e-06,-8.25405e-06,2.10052e-05,-8.54673e-06,0
-2.90297e-05,1.71367e-05,-1.31417e-05,-7.27511e-06,9.10149e-06,-8.55043e-06,1.99669e-05,-8.99142e-06,0
-2.8937e-05,1.46582e-05,-1.29832e-05,-4.03491e-06,9.66033e-06,-9.01881e-06,1.76858e-05,-1.01612e-05,0
-3.15635e-05,1.36306e-05,-1.37826e-05,-2.36286e-06,1.01856e-05,-7.65896e-06,1.37067e-05,-8.96066e-06,0
-3.35734e-05,1.47492e-05,-1.35024e-05,1.79298e-06,1.08189e-05,-5.92612e-06,1.00613e-05,-8.05185e-06,0
-3.39961e-05,1.57229e-05,-1.22724e-05,6.61445e-06,1.28648e-05,-5.66666e-06,7.46637e-06,-7.77901e-06,0
-3.37879e-05,1.42634e-05,-1.13398e-05,8.41456e-06,1.51e-05,-5.41815e-06,5.22517e-06,-8.18783e-06,0
-3.36688e-05,1.19211e-05,-1.11035e-05,7.54362e-06,1.56137e-05,-5.0233e-06,2.58942e-06,-9.00683e-06,0
-3.33072e-05,1.07308e-05,-1.03978e-05,5.98938e-06,1.4281e-05,-4.21859e-06,9.87692e-07,-8.60206e-06,0
-3.20139e-05,1.1118e-05,-1.00574e-05,5.20757e-06,1.15759e-05,-2.29318e-06,3.05033e-06,-6.70239e-06,0
-2.98567e-05,1.2021e-05,-1.06669e-05,3.59444e-06,7.88108e-06,-8.52018e-07,8.11447e-06,-6.05677e-06,0
-2.95217e-05,1.22939e-05,-1.16876e-05,1.3274e-06,4.91139e-06,-1.35248e-06,1.10168e-05,-6.8161e-06,0
-3.13716e-05,1.20878e-05,-1.15615e-05,-3.4865e-07,3.94072e-06,-2.70859e-06,9.19779e-06,-7.97342e-06,0
-3.23822e-05,1.21399e-05,-9.4389e-06,2.36133e-07,4.28048e-06,-4.09732e-06,6.34751e-06,-1.01364e-05,0
-3.08758e-05,1.15358e-05,-8.12612e-06,2.98199e-06,5.50919e-06,-5.30792e-06,6.54391e-06,-1.14063e-05,0
-2.85169e-05,9.96541e-06,-9.12529e-06,6.59828e-06,7.33505e-06,-6.05016e-06,9.22181e-06,-1.06799e-05,0
-2.79119e-05,9.62886e-06,-1.11208e-05,9.25881e-06,8.39027e-06,-6.39222e-06,1.18917e-05,-9.06546e-06,0
-2.96764e-05,9.76475e-06,-1.22274e-05,9.23701e-06,7.88167e-06,-6.80661e-06,1.34408e-05,-7.03662e-06,0
-3.20071e-05,7.71186e-06,-1.19416e-05,7.44014e-06,8.14345e-06,-6.57872e-06,1.44331e-05,-3.82376e-06,0
-3.27438e-05,5.77161e-06,-1.04157e-05,7.41805e-06,1.22946e-05,-4.86603e-06,1.44565e-05,-1.37163e-06,0
-3.24089e-05,5.57417e-06,-9.16754e-06,9.7459e-06,2.25036e-05,-3.95896e-06,1.20967e-05,-1.17698e-06,0
-3.24192e-05,5.03046e-06,-8.78127e-06,1.09262e-05,3.17219e-05,-5.71061e-06,5.30331e-06,-2.50719e-06,0
-3.1401e-05,3.62572e-06,-8.53335e-06,8.59833e-06,3.26954e-05,-7.29151e-06,-1.16857e-05,-2.90465e-06,0
-3.04754e-05,3.14212e-06,-8.57835e-06,4.35069e-06,3.08121e-05,-5.82574e-06,-3.38682e-05,-1.77029e-06,0
-3.17009e-05,3.5024e-06,-6.36281e-06,-2.13083e-06,3.00954e-05,-4.48595e-06,-4.11151e-05,-7.61042e-07,0
-3.17809e-05,4.33078e-06,-3.63879e-06,-1.01923e-05,3.10543e-05,-3.77858e-06,-2.51791e-05,-6.29684e-07,0
-2.91123e-05,5.41707e-06,-4.14799e-06,-1.64729e-05,3.21136e-05,-3.36004e-06,-1.29092e-06,-6.78346e-07,0
-2.71944e-05,6.29258e-06,-5.32985e-06,-1.84046e-05,2.95396e-05,-5.10976e-06,1.90188e-05,-6.88264e-07,0
-2.70522e-05,8.61768e-06,-4.87729e-06,-1.54392e-05,2.47872e-05,-7.76415e-06,3.56051e-05,5.2457e-07,0
-2.85605e-05,1.16146e-05,-3.7379e-06,-1.02948e-05,2.04421e-05,-1.09791e-05,4.47905e-05,1.13358e-06,0
-3.0125e-05,1.30489e-05,-3.10686e-06,-5.58562e-06,1.78765e-05,-1.41896e-05,4.70333e-05,1.66434e-06,0
-2.93979e-05,1.40557e-05,-3.41112e-06,-2.3755e-06,1.60445e-05,-1.59086e-05,4.37581e-05,3.64172e-06,0
-2.76952e-05,1.60434e-05,-4.14743e-06,2.48014e-08,1.28627e-05,-1.57834e-05,3.58751e-05,6.32143e-06,0
-2.64857e-05,1.73614e-05,-2.59848e-06,1.11386e-06,8.30357e-06,-1.6703e-05,2.35775e-05,7.66884e-06,0
-2.71926e-05,1.6667e-05,-5.77191e-07,7.7019e-07,4.73439e-06,-1.78791e-05,9.56685e-06,5.73267e-06,0
-2.86536e-05,1.42027e-05,-9.25103e-07,1.07881e-06,3.30945e-06,-1.70884e-05,-1.44621e-06,3.38788e-06,0
-2.98083e-05,1.16636e-05,-3.5055e-06,7.49738e-06,1.68726e-06,-1.6009e-05,-5.25803e-06,3.09487e-06,0
-2.98033e-05,1.07975e-05,-6.47752e-06,1.76733e-05,8.5181e-07,-1.57225e-05,-1.24878e-06,4.88155e-06,0
-3.03568e-05,1.16537e-05,-7.94098e-06,2.27752e-05,4.11053e-06,-1.55722e-05,4.40973e-06,6.68284e-06,0
-3.14901e-05,1.36602e-05,-8.41517e-06,1.90564e-05,9.90858e-06,-1.44597e-05,7.12897e-06,7.26314e-06,0
-3.14926e-05,1.64056e-05,-7.98177e-06,1.05867e-05,1.4359e-05,-1.33607e-05,5.52374e-06,5.62019e-06,0
-3.07992e-05,1.78377e-05,-6.99087e-06,3.32011e-06,1.80347e-05,-1.23583e-05,2.06383e-06,2.64592e-06,0
-3.00105e-05,1.6532e-05,-5.66197e-06,-1.20851e-06,2.24537e-05,-1.10802e-05,2.92832e-07,1.03213e-07,0
-2.9727e-05,1.48247e-05,-3.82104e-06,-4.47162e-06,2.60134e-05,-9.54972e-06,3.61832e-06,-1.01676e-06,0
-2.93887e-05,1.42842e-05,-1.90402e-06,-5.95891e-06,2.55897e-05,-8.36141e-06,9.0947e-06,-8.22212e-07,0
-3.00571e-05,1.46194e-05,-1.14087e-06,-4.1199e-07,2.16254e-05,-8.56922e-06,1.2777e-05,-4.08262e-07,0
-3.13645e-05,1.63941e-05,-6.03913e-07,8.69867e-06,1.8256e-05,-9.68263e-06,1.34103e-05,-9.95484e-07,0
-3.19355e-05,1.8632e-05,6.27752e-07,8.06851e-06,1.68452e-05,-9.00504e-06,1.22803e-05,-2.17985e-06,0
-3.19825e-05,2.06077e-05,6.4804e-07,-3.3008e-06,1.58335e-05,-7.23363e-06,1.11466e-05,-3.16141e-06,0
-3.17226e-05,2.2496e-05,-1.42194e-06,-1.04013e-05,1.49584e-05,-7.67516e-06,1.01588e-05,-3.40358e-06,0
-3.03821e-05,2.21982e-05,-3.07869e-06,-8.93183e-06,1.49203e-05,-9.98924e-06,1.08971e-05,-3.76032e-06,0
-2.96673e-05,2.07254e-05,-2.86252e-06,-4.97842e-06,1.5912e-05,-1.14005e-05,1.32915e-05,-3.80985e-06,0
-3.07941e-05,2.13699e-05,-2.28757e-06,-8.84013e-07,1.49566e-05,-1.27387e-05,1.57896e-05,-2.27874e-06,0
-3.18437e-05,2.2601e-05,-2.40275e-06,7.16789e-06,1.16803e-05,-1.39479e-05,1.75692e-05,-2.21312e-07,0
-3.13844e-05,2.15434e-05,-2.68224e-06,1.52856e-05,1.01477e-05,-1.36171e-05,1.63744e-05,2.9975e-06,0
-3.03444e-05,1.91326e-05,-4.20509e-06,1.60925e-05,8.34969e-06,-1.19813e-05,1.57674e-05,6.4728e-06,0
-2.93108e-05,1.52029e-05,-5.95127e-06,1.16297e-05,5.4116e-06,-9.44668e-06,1.61031e-05,7.77651e-06,0
-2.8043e-05,1.09152e-05,-7.25553e-06,3.67568e-06,3.99026e-06,-9.4056e-06,1.57019e-05,6.045e-06,0
-2.674e-05,8.04987e-06,-7.90983e-06,-6.06131e-06,5.91972e-06,-1.09371e-05,1.67949e-05,3.33859e-06,0
-2.63367e-05,5.10894e-06,-8.30392e-06,-1.80003e-05,9.32945e-06,-1.25807e-05,1.86375e-05,3.45728e-06,0
-2.67338e-05,2.42221e-06,-1.11048e-05,-2.8399e-05,1.04059e-05,-1.40506e-05,2.03059e-05,5.21411e-06,0
-2.74608e-05,1.90928e-06,-1.50644e-05,-3.18008e-05,1.0909e-05,-1.54584e-05,1.92079e-05,6.19378e-06,0
-2.86124e-05,4.75827e-06,-1.68377e-05,-2.66763e-05,1.34054e-05,-1.63334e-05,1.64853e-05,7.07182e-06,0
-3.01311e-05,9.80195e-06,-1.46765e-05,-1.95806e-05,1.61288e-05,-1.47939e-05,1.44554e-05,8.29194e-06,0
-3.16262e-05,1.44943e-05,-1.08952e-05,-1.77489e-05,1.73868e-05,-1.20677e-05,1.38104e-05,9.95841e-06,0
-3.23693e-05,1.64939e-05,-9.2037e-06,-2.23857e-05,1.82619e-05,-9.84513e-06,1.37161e-05,1.10079e-05,0
-3.16912e-05,1.48649e-05,-1.08926e-05,-3.18986e-05,1.91713e-05,-8.90158e-06,1.39298e-05,1.17509e-05,0
-2.97633e-05,9.69976e-06,-1.25213e-05,-4.27586e-05,1.90348e-05,-9.1732e-06,1.42703e-05,1.21345e-05,0
-2.83256e-05,4.3566e-06,-1.14216e-05,-5.07306e-05,1.79765e-05,-9.03466e-06,1.5134e-05,1.10176e-05,0
-2.80908e-05,2.03058e-06,-8.94587e-06,-5.01231e-05,1.84945e-05,-7.58742e-06,1.61871e-05,9.79663e-06,0
-2.83686e-05,1.28848e-06,-8.21497e-06,-4.0036e-05,1.97126e-05,-7.02953e-06,1.75779e-05,9.95563e-06,0
-2.81157e-05,-9.57547e-08,-1.04066e-05,-2.48206e-05,1.94845e-05,-7.8602e-06,1.9486e-05,9.95235e-06,0
-2.72199e-05,-2.52367e-06,-1.42052e-05,-1.02235e-05,1.83796e-05,-9.46861e-06,2.1969e-05,8.96799e-06,0
-2.67487e-05,-3.08169e-06,-1.78104e-05,1.03238e-06,1.69454e-05,-1.13269e-05,2.53612e-05,8.24056e-06,0
-2.73683e-05,-1.72805e-06,-2.01719e-05,5.31295e-06,1.59545e-05,-1.2339e-05,3.03538e-05,6.85527e-06,0
-2.77014e-05,-2.32712e-06,-2.05708e-05,3.83437e-06,1.57995e-05,-1.1035e-05,3.60795e-05,4.43873e-06,0
-2.65446e-05,-2.98577e-06,-2.02964e-05,1.03093e-06,1.46493e-05,-7.98076e-06,3.94302e-05,2.34562e-06,0
-2.54557e-05,-2.74593e-06,-2.10656e-05,-2.1352e-07,1.39632e-05,-7.06269e-06,3.88686e-05,8.66692e-07,0
-2.58266e-05,-2.93873e-06,-2.06696e-05,-4.02155e-07,1.48906e-05,-8.43396e-06,2.73e-05,1.35356e-06,0
-2.74524e-05,-1.07692e-06,-1.8614e-05,7.29312e-07,1.39268e-05,-8.66433e-06,3.0724e-06,1.77742e-06,0
-2.84908e-05,4.62777e-07,-1.68518e-05,2.98921e-06,1.33784e-05,-7.96983e-06,-1.91087e-05,4.47548e-07,0
-2.72701e-05,1.1802e-06,-1.65518e-05,1.74877e-06,1.58321e-05,-6.90104e-06,-2.70679e-05,-6.69401e-07,0
-2.53302e-05,3.99147e-06,-1.70171e-05,-1.74431e-06,1.79166e-05,-5.71078e-06,-2.32822e-05,-4.06128e-07,0
-2.43929e-05,8.20051e-06,-1.65753e-05,-3.43327e-06,1.95528e-05,-4.76626e-06,-1.48305e-05,8.21151e-07,0
-2.53547e-05,1.24613e-05,-1.42845e-05,-1.96019e-06,2.03849e-05,-4.25958e-06,-4.20977e-06,1.5285e-06,0
-2.631e-05,1.4398e-05,-1.18875e-05,-2.47779e-07,1.96067e-05,-4.74596e-06,8.71763e-06,1.79366e-06,0
-2.72936e-05,1.30134e-05,-1.15313e-05,-2.2751e-07,1.89292e-05,-4.93924e-06,1.95784e-05,1.84234e-06,0
-2.83773e-05,1.03671e-05,-1.25085e-05,-1.3474e-06,1.67691e-05,-5.32999e-06,2.62215e-05,2.03469e-06,0
-2.91213e-05,7.65294e-06,-1.29442e-05,-1.96682e-06,1.34572e-05,-6.23638e-06,2.82688e-05,3.21977e-06,0
-2.98931e-05,4.37845e-06,-1.24086e-05,-3.10799e-06,1.14234e-05,-7.87329e-06,2.57705e-05,4.73018e-06,0
-3.02767e-05,1.44446e-06,-1.16362e-05,-9.44969e-06,1.04462e-05,-1.01282e-05,2.15318e-05,5.93807e-06,0
-3.00365e-05,-3.67432e-08,-9.94228e-06,-1.96977e-05,9.69833e-06,-1.20586e-05,1.98995e-05,7.75072e-06,0
-2.96741e-05,-2.72899e-07,-7.30417e-06,-2.58245e-05,8.54177e-06,-1.25681e-05,2.33411e-05,9.25509e-06,0
-2.95653e-05,1.3594e-07,-5.4648e-06,-2.28722e-05,5.81732e-06,-1.20093e-05,2.73677e-05,1.05123e-05,0
-2.93526e-05,1.19547e-06,-5.28473e-06,-1.51596e-05,3.06613e-06,-1.16119e-05,2.73789e-05,1.17443e-05,0
-3.04152e-05,3.25678e-06,-6.20761e-06,-9.65959e-06,2.26718e-06,-1.24633e-05,2.40116e-05,1.1962e-05,0
-3.22759e-05,6.29656e-06,-7.9852e-06,-4.99238e-06,1.88029e-06,-1.54455e-05,2.02479e-05,1.04364e-05,0
-3.32234e-05,9.33966e-06,-8.91592e-06,6.78736e-06,1.66848e-06,-1.83507e-05,1.6838e-05,7.47468e-06,0
-3.25799e-05,1.19575e-05,-7.29019e-06,2.80319e-05,2.29546e-06,-1.90438e-05,1.28183e-05,4.39352e-06,0
-3.24903e-05,1.50814e-05,-4.19839e-06,5.02748e-05,3.94817e-06,-1.82442e-05,7.08703e-06,2.21821e-06,0
-3.31141e-05,1.65632e-05,-1.47609e-06,6.03517e-05,5.21922e-06,-1.73786e-05,2.58974e-06,2.22969e-06,0
-3.35348e-05,1.56645e-05,-1.06555e-06,5.33542e-05,3.30709e-06,-1.76279e-05,1.78348e-06,3.35556e-06,0
-3.24154e-05,1.46206e-05,-1.17229e-06,3.58879e-05,-2.81619e-07,-1.70754e-05,2.89767e-06,2.41263e-06,0
-3.03301e-05,1.47749e-05,-2.06866e-07,1.60776e-05,-1.58336e-06,-1.50488e-05,3.22736e-06,-3.81723e-07,0
-2.96716e-05,1.53625e-05,4.60984e-07,9.14489e-07,9.20199e-07,-1.55859e-05,2.41325e-06,-1.34613e-06,0
-2.97375e-05,1.50745e-05,9.47042e-07,-8.15093e-06,3.19112e-06,-1.6623e-05,3.25533e-06,-1.4564e-06,0
-2.96896e-05,1.44655e-05,-6.54831e-07,-1.18651e-05,3.97661e-06,-1.687e-05,5.05573e-06,-1.977e-06,0
-2.93418e-05,1.37685e-05,-4.54785e-06,-1.17288e-05,7.11928e-06,-1.48608e-05,5.64432e-06,-2.25556e-06,0
-2.86519e-05,1.36641e-05,-6.89784e-06,-9.94862e-06,1.23675e-05,-1.09009e-05,5.59532e-06,-4.48536e-06,0
-2.87411e-05,1.39199e-05,-7.71682e-06,-8.47656e-06,1.36081e-05,-9.31294e-06,4.35185e-06,-5.79927e-06,0
-3.01542e-05,1.37124e-05,-9.26768e-06,-9.49035e-06,8.74941e-06,-9.48256e-06,1.14747e-06,-6.46803e-06,0
-3.18881e-05,1.2804e-05,-1.12109e-05,-9.73343e-06,3.91199e-06,-9.06851e-06,-3.93287e-06,-7.03984e-06,0
-3.25409e-05,1.27885e-05,-1.40086e-05,-9.11342e-06,3.20814e-06,-7.30197e-06,-7.05841e-06,-4.82531e-06,0
-3.2821e-05,1.39221e-05,-1.63141e-05,-8.40429e-06,5.569e-06,-6.61146e-06,-3.6095e-06,-2.16294e-06,0
-3.32108e-05,1.45543e-05,-1.57074e-05,-8.7581e-06,6.28311e-06,-7.91578e-06,3.86205e-06,-1.38608e-06,0
-3.3023e-05,1.37202e-05,-1.382e-05,-1.01553e-05,5.57522e-06,-1.04391e-05,1.01944e-05,-2.52421e-06,0
-3.30043e-05,1.34715e-05,-1.1237e-05,-1.10507e-05,5.86901e-06,-1.15871e-05,1.28358e-05,-2.84515e-06,0
-3.30469e-05,1.48083e-05,-7.92686e-06,-1.15085e-05,8.36124e-06,-1.10383e-05,1.3718e-05,-1.99528e-06,0
-3.35083e-05,1.60906e-05,-3.56669e-06,-1.22768e-05,1.25749e-05,-9.85638e-06,1.49752e-05,-1.75949e-06,0
-3.46389e-05,1.67151e-05,4.87497e-08,-1.33154e-05,1.60541e-05,-7.87444e-06,1.63202e-05,-2.80354e-06,0
-3.49621e-05,1.68091e-05,1.47057e-06,-1.35553e-05,1.76549e-05,-6.00605e-06,1.73715e-05,-3.56522e-06,0
-3.32012e-05,1.69812e-05,1.05279e-06,-1.36349e-05,1.88691e-05,-6.25449e-06,1.89236e-05,-3.08819e-06,0
-3.15584e-05,1.6825e-05,-9.81877e-07,-1.31038e-05,2.21747e-05,-8.02688e-06,2.1111e-05,-6.18416e-07,0
-3.17195e-05,1.65706e-05,-3.48534e-06,-1.15282e-05,2.56911e-05,-9.33217e-06,2.23603e-05,2.64191e-06,0
-3.27373e-05,1.55401e-05,-4.28278e-06,-8.79948e-06,2.53834e-05,-9.84296e-06,2.16486e-05,2.82974e-06,0
-3.30282e-05,1.27172e-05,-3.24075e-06,-5.78513e-06,2.02538e-05,-9.71853e-06,1.97128e-05,-5.9218e-07,0
-3.25542e-05,9.19876e-06,-3.54483e-06,-3.64172e-06,1.4313e-05,-1.02882e-05,1.77424e-05,-3.36688e-06,0
-3.17305e-05,7.59987e-06,-5.53656e-06,-3.41178e-06,1.08622e-05,-1.07398e-05,1.31718e-05,-2.99891e-06,0
-3.1007e-05,8.33642e-06,-7.79214e-06,-4.49472e-06,9.86099e-06,-9.84258e-06,6.30339e-06,-1.17474e-06,0
-3.07652e-05,1.07064e-05,-8.18398e-06,-5.54942e-06,9.41479e-06,-8.33775e-06,2.87118e-06,-3.20904e-08,0
-3.06779e-05,1.3844e-05,-7.10094e-06,-4.28264e-06,1.04752e-05,-8.1534e-06,2.31888e-06,-1.31637e-06,0
-3.0746e-05,1.59373e-05,-5.96552e-06,-1.737e-06,1.28895e-05,-8.57896e-06,-4.53557e-07,-3.0034e-06,0
-3.01478e-05,1.5416e-05,-3.61368e-06,8.53483e-07,1.5853e-05,-7.72691e-06,-3.77066e-06,-3.72613e-06,0
-3.07505e-05,1.55459e-05,-2.06125e-06,2.88638e-06,1.71512e-05,-7.01818e-06,-1.04723e-06,-3.69795e-06,0
-3.15097e-05,1.55728e-05,-4.3322e-06,2.68005e-06,1.58893e-05,-6.71204e-06,7.87472e-06,-7.49825e-07,0
-3.07838e-05,1.38535e-05,-7.29657e-06,6.05606e-07,1.63734e-05,-6.20986e-06,1.71839e-05,1.68875e-06,0
-3.08463e-05,1.24093e-05,-9.07405e-06,-3.12379e-06,1.6262e-05,-5.77721e-06,2.26552e-05,1.18557e-06,0
-3.05621e-05,1.17683e-05,-8.22354e-06,-6.44549e-06,1.46723e-05,-6.56573e-06,2.44555e-05,5.42945e-07,0
-3.01092e-05,1.2671e-05,-5.53973e-06,-7.9278e-06,1.31881e-05,-9.12527e-06,2.55215e-05,-3.47125e-07,0
-2.9869e-05,1.35195e-05,-3.84564e-06,-8.03571e-06,1.14622e-05,-1.00509e-05,2.76313e-05,-1.41849e-06,0
-2.98559e-05,1.496e-05,-3.59251e-06,-8.05381e-06,9.55e-06,-8.97636e-06,2.94868e-05,-2.27434e-06,0
-2.96452e-05,1.63761e-05,-4.38631e-06,-9.35169e-06,7.3616e-06,-7.53419e-06,3.11397e-05,-1.78818e-06,0
-2.85268e-05,1.67093e-05,-4.93194e-06,-1.17549e-05,5.34661e-06,-8.06881e-06,3.28262e-05,-1.38357e-06,0
-2.75755e-05,1.61084e-05,-5.07576e-06,-1.3766e-05,4.46056e-06,-9.7013e-06,3.32905e-05,-2.78139e-06,0
-2.69879e-05,1.55471e-05,-4.98819e-06,-1.49683e-05,6.20743e-06,-1.05707e-05,3.41693e-05,-4.76172e-06,0
-2.72617e-05,1.41501e-05,-5.65186e-06,-1.56755e-05,8.46993e-06,-1.16893e-05,3.58656e-05,-6.44924e-06,0
-2.79652e-05,1.14224e-05,-6.57683e-06,-1.50614e-05,9.43216e-06,-1.29573e-05,3.59704e-05,-7.06624e-06,0
-2.93557e-05,9.20623e-06,-8.06372e-06,-1.31166e-05,8.70443e-06,-1.49148e-05,3.38216e-05,-6.47964e-06,0
-3.11652e-05,8.87871e-06,-1.02665e-05,-1.064e-05,7.53078e-06,-1.66182e-05,3.13383e-05,-5.89997e-06,0
-3.28047e-05,1.00472e-05,-1.19653e-05,-7.7461e-06,6.65801e-06,-1.65217e-05,2.83604e-05,-6.51667e-06,0
-3.35628e-05,1.04405e-05,-1.17329e-05,-4.9198e-06,5.45376e-06,-1.48616e-05,2.37859e-05,-7.62649e-06,0
-3.36931e-05,1.02314e-05,-9.87774e-06,-2.59702e-06,4.5717e-06,-1.31172e-05,1.85517e-05,-8.30276e-06,0
-3.41031e-05,1.01769e-05,-8.37187e-06,-1.70595e-06,4.28086e-06,-1.12378e-05,1.41352e-05,-7.71283e-06,0
-3.40713e-05,9.06719e-06,-8.70398e-06,-3.00029e-06,3.35737e-06,-1.06517e-05,1.20039e-05,-5.33554e-06,0
-3.25478e-05,8.22427e-06,-9.73544e-06,-4.72159e-06,1.6915e-06,-1.11575e-05,1.06771e-05,-3.06909e-06,0
-3.11453e-05,1.02905e-05,-9.28545e-06,-5.02435e-06,4.66369e-07,-1.08191e-05,7.13529e-06,-1.84332e-06,0
-3.1805e-05,1.16862e-05,-8.63739e-06,-3.7065e-06,3.95076e-07,-9.75605e-06,2.69062e-06,-8.76132e-07,0
-3.35185e-05,1.07561e-05,-9.47521e-06,-1.45735e-07,2.21718e-06,-1.02562e-05,4.33144e-07,5.65202e-07,0
-3.3915e-05,1.10235e-05,-1.03903e-05,4.1426e-06,5.43178e-06,-1.35026e-05,3.22416e-06,6.10694e-07,0
-3.22308e-05,1.26528e-05,-1.04176e-05,1.08581e-05,1.21069e-05,-1.50962e-05,8.74999e-06,-1.63139e-08,0
-3.13915e-05,1.29753e-05,-9.74206e-06,2.06641e-05,2.03336e-05,-1.44225e-05,1.04084e-05,7.01341e-07,0
-3.17907e-05,1.26217e-05,-9.32982e-06,2.9018e-05,2.54816e-05,-1.40766e-05,7.28766e-06,1.90566e-06,0
-3.09616e-05,1.21029e-05,-9.83166e-06,3.54765e-05,2.71212e-05,-1.39813e-05,3.17802e-06,4.15007e-06,0
-2.97861e-05,1.0909e-05,-9.67398e-06,4.15181e-05,2.52785e-05,-1.47483e-05,5.1801e-07,4.0322e-06,0
-3.06546e-05,1.19514e-05,-8.416e-06,4.50599e-05,2.30517e-05,-1.59809e-05,-1.07909e-06,2.08283e-06,0
-3.17701e-05,1.49125e-05,-5.86143e-06,4.16892e-05,2.20432e-05,-1.65388e-05,1.23777e-07,1.24833e-06,0
-3.14574e-05,1.62218e-05,-4.42683e-06,3.00168e-05,2.16637e-05,-1.44658e-05,4.05416e-06,1.48197e-06,0
-3.08952e-05,1.61652e-05,-5.30741e-06,1.3023e-05,2.2283e-05,-1.19443e-05,6.10368e-06,1.33308e-06,0
-3.17365e-05,1.65614e-05,-8.34892e-06,-1.55913e-06,2.25601e-05,-1.10995e-05,5.70925e-06,-6.88098e-08,0
-3.3466e-05,1.79489e-05,-1.22843e-05,-1.18255e-05,2.285e-05,-1.05178e-05,4.76027e-06,-1.53067e-06,0
-3.45843e-05,1.9283e-05,-1.31624e-05,-2.25808e-05,2.40487e-05,-8.8894e-06,4.58959e-06,-2.78776e-06,0
-3.39114e-05,1.99801e-05,-1.17622e-05,-3.71302e-05,2.53492e-05,-7.09547e-06,6.25967e-06,-2.87978e-06,0
-3.25353e-05,1.94115e-05,-1.05966e-05,-5.347e-05,2.45858e-05,-7.14352e-06,8.99851e-06,-1.16831e-06,0
-3.26073e-05,1.96886e-05,-1.04742e-05,-6.44137e-05,2.2564e-05,-6.68304e-06,1.16207e-05,1.6113e-06,0
-3.2982e-05,2.24068e-05,-1.06954e-05,-6.6206e-05,2.1112e-05,-5.84308e-06,1.36818e-05,3.71891e-06,0
-3.18703e-05,2.44919e-05,-1.07823e-05,-6.07403e-05,2.08539e-05,-6.25411e-06,1.45545e-05,4.65453e-06,0
-3.03111e-05,2.41711e-05,-1.00017e-05,-5.14489e-05,2.14031e-05,-7.10058e-06,1.40804e-05,4.94187e-06,0
-2.99786e-05,2.2256e-05,-7.96963e-06,-4.02399e-05,2.13193e-05,-6.601e-06,1.33807e-05,5.75177e-06,0
-3.07744e-05,2.04391e-05,-5.75251e-06,-2.94597e-05,2.00557e-05,-5.31334e-06,1.31502e-05,7.14756e-06,0
-3.18555e-05,1.99032e-05,-4.16473e-06,-2.21737e-05,1.81827e-05,-3.84105e-06,1.23686e-05,7.14972e-06,0
-3.18297e-05,2.07519e-05,-3.11655e-06,-1.83897e-05,1.76145e-05,-3.42539e-06,1.08474e-05,4.99983e-06,0
-3.14704e-05,2.20939e-05,-2.17467e-06,-1.36144e-05,1.8758e-05,-4.86832e-06,1.01117e-05,3.17848e-06,0
-3.15148e-05,2.26531e-05,-9.5015e-07,-7.08335e-06,1.88748e-05,-6.91448e-06,9.05535e-06,2.75324e-06,0
-3.05943e-05,2.09536e-05,6.06292e-07,-2.80771e-06,1.67933e-05,-9.3594e-06,6.85499e-06,4.32616e-06,0
-2.87476e-05,1.84578e-05,1.12915e-06,-8.51297e-07,1.52345e-05,-1.03114e-05,4.15723e-06,6.76495e-06,0
-2.77668e-05,1.72728e-05,3.18306e-07,1.69841e-06,1.5154e-05,-9.59129e-06,2.28197e-06,7.57099e-06,0
-2.79152e-05,1.68868e-05,-2.00287e-06,3.91331e-06,1.70074e-05,-8.17379e-06,2.92372e-06,7.13149e-06,0
-2.83812e-05,1.49972e-05,-4.60318e-06,1.88104e-06,1.9887e-05,-6.35255e-06,5.89858e-06,6.06027e-06,0
-2.69576e-05,1.33489e-05,-3.97786e-06,-6.62108e-06,2.18018e-05,-5.13435e-06,8.8036e-06,4.75851e-06,0
-2.58122e-05,1.42603e-05,-1.80278e-06,-1.59721e-05,2.27497e-05,-5.36972e-06,1.08219e-05,3.59481e-06,0
-2.72346e-05,1.77554e-05,-1.37591e-06,-1.86572e-05,2.33092e-05,-7.50234e-06,9.97196e-06,2.71507e-06,0
-2.84611e-05,1.93022e-05,-3.01556e-06,-1.47922e-05,2.3084e-05,-7.50385e-06,6.59415e-06,3.37024e-06,0
-2.82895e-05,1.58339e-05,-7.26091e-06,-8.80531e-06,2.27656e-05,-4.94584e-06,5.63536e-06,4.85961e-06,0
-2.70576e-05,1.25783e-05,-1.17428e-05,-3.966e-06,2.28579e-05,-2.03954e-06,8.70174e-06,3.76873e-06,0
-2.62848e-05,1.16137e-05,-1.451e-05,-3.84958e-07,2.28198e-05,-3.00254e-07,1.33276e-05,1.75906e-06,0
-2.62907e-05,1.09812e-05,-1.63985e-05,3.43614e-07,2.26375e-05,-1.17215e-06,1.66938e-05,2.10585e-06,0
-2.68652e-05,7.48278e-06,-1.95704e-05,-1.96623e-06,2.19804e-05,-3.46763e-06,1.96839e-05,4.79467e-06,0
-2.78707e-05,1.96912e-06,-2.31095e-05,-4.35881e-06,2.12039e-05,-6.34227e-06,2.15548e-05,6.35684e-06,0
-2.79068e-05,-2.25433e-06,-2.38687e-05,-4.06753e-06,2.14656e-05,-8.42582e-06,2.2158e-05,5.01109e-06,0
-2.70771e-05,-2.74502e-06,-2.1845e-05,-1.69188e-06,2.2033e-05,-9.45445e-06,2.15256e-05,3.74845e-06,0
-2.7025e-05,-7.05573e-07,-1.87356e-05,-4.27681e-07,2.1914e-05,-8.29766e-06,1.94656e-05,3.77167e-06,0
-2.81062e-05,1.6323e-06,-1.59437e-05,-1.99786e-06,2.06342e-05,-6.57879e-06,1.758e-05,3.52058e-06,0
-2.93908e-05,3.76909e-06,-1.40781e-05,-7.12323e-06,1.84404e-05,-5.979e-06,1.8009e-05,1.98403e-06,0
-2.96722e-05,5.21809e-06,-1.33488e-05,-1.36221e-05,1.65307e-05,-6.29378e-06,1.95764e-05,1.05403e-06,0
-2.94321e-05,6.06818e-06,-1.23474e-05,-1.69312e-05,1.60683e-05,-6.54706e-06,1.84998e-05,1.53557e-06,0
-2.99126e-05,6.80672e-06,-1.04768e-05,-1.48483e-05,1.61341e-05,-6.53854e-06,1.41084e-05,2.5798e-06,0
-3.02648e-05,7.79198e-06,-7.62148e-06,-8.87166e-06,1.38155e-05,-6.70067e-06,8.73482e-06,3.17938e-06,0
-2.95135e-05,7.72433e-06,-4.4509e-06,-3.2626e-06,9.65672e-06,-6.98236e-06,5.49541e-06,2.80315e-06,0
-2.83245e-05,7.62689e-06,-2.50563e-06,-8.04741e-07,5.52572e-06,-6.36782e-06,4.62975e-06,1.83076e-06,0
-2.7539e-05,9.12553e-06,-8.27967e-07,-9.1566e-07,1.24338e-06,-5.57461e-06,5.36761e-06,7.72974e-07,0
-2.87055e-05,1.12952e-05,-1.03831e-06,-2.27143e-06,-2.96804e-06,-8.05256e-06,7.26314e-06,2.30669e-07,0
-3.22531e-05,1.31185e-05,-5.93653e-06,-2.88243e-06,-5.16624e-06,-1.07811e-05,1.00419e-05,2.48271e-08,0
-3.47472e-05,1.4119e-05,-1.28394e-05,-2.8278e-06,-6.42239e-06,-1.01276e-05,1.33721e-05,8.7074e-07,0
-3.4749e-05,1.38125e-05,-1.85726e-05,-1.91903e-06,-6.10253e-06,-9.17069e-06,1.64021e-05,2.07649e-06,0
-3.36825e-05,1.31953e-05,-2.0084e-05,-3.00711e-07,-3.58445e-06,-9.54625e-06,1.69243e-05,2.39616e-06,0
-3.12081e-05,1.30367e-05,-1.79452e-05,-1.25303e-06,-2.0848e-06,-9.19114e-06,1.59073e-05,1.67757e-06,0
-2.78375e-05,1.37403e-05,-1.59168e-05,-4.21798e-06,-3.86166e-06,-8.63554e-06,1.58682e-05,4.62308e-07,0
-2.53852e-05,1.3415e-05,-1.46274e-05,-4.10935e-06,-5.02911e-06,-7.97105e-06,1.63386e-05,7.80793e-07,0
-2.58836e-05,1.19514e-05,-1.29566e-05,3.42621e-06,-1.46182e-06,-7.08851e-06,1.54629e-05,2.22882e-06,0
-2.79791e-05,1.11366e-05,-1.17896e-05,1.89026e-05,6.23769e-06,-5.8036e-06,1.36254e-05,1.87452e-06,0
-2.98741e-05,9.45729e-06,-1.11991e-05,3.54771e-05,1.62505e-05,-5.29561e-06,1.33709e-05,7.23884e-07,0
-3.072e-05,7.86705e-06,-1.04612e-05,4.10878e-05,2.36278e-05,-5.45013e-06,1.40326e-05,1.38886e-06,0
-3.08424e-05,8.22923e-06,-9.3486e-06,3.12335e-05,2.58207e-05,-4.20034e-06,1.56259e-05,2.17943e-06,0
-3.09404e-05,9.69222e-06,-7.70439e-06,1.50789e-05,2.37358e-05,-2.66636e-06,1.81751e-05,1.43095e-06,0
-2.98489e-05,1.09272e-05,-6.67131e-06,5.59532e-06,2.02324e-05,-9.19497e-07,1.89664e-05,1.75344e-06,0
-2.84551e-05,1.21481e-05,-6.7865e-06,7.13554e-06,1.65658e-05,-1.48391e-07,1.81752e-05,2.07668e-06,0
-2.7604e-05,1.38291e-05,-7.93005e-06,1.34893e-05,1.41209e-05,-9.82692e-07,1.7059e-05,4.9996e-07,0
-2.82673e-05,1.35395e-05,-7.57958e-06,1.4609e-05,1.47268e-05,-2.53857e-06,1.57018e-05,-7.24467e-07,0
-2.97424e-05,1.11365e-05,-4.80238e-06,7.41613e-06,1.67433e-05,-4.34712e-06,1.49203e-05,-6.61386e-07,0
-3.02153e-05,9.82394e-06,-1.52077e-06,-3.51868e-06,1.88077e-05,-5.25508e-06,1.59038e-05,-2.95912e-07,0
-2.9037e-05,1.06791e-05,-2.62837e-07,-1.22803e-05,2.0537e-05,-4.09478e-06,1.86458e-05,4.94653e-07,0
-2.75812e-05,1.15069e-05,2.72219e-07,-1.61499e-05,2.19439e-05,-2.07081e-06,2.28933e-05,1.87672e-06,0
-2.72638e-05,9.7369e-06,-3.36655e-08,-1.52191e-05,2.16518e-05,-2.18201e-06,2.8523e-05,1.71901e-06,0
-2.8332e-05,6.64805e-06,-3.96854e-06,-1.07852e-05,1.92496e-05,-3.43338e-06,3.3449e-05,1.4853e-07,0
-2.98604e-05,6.19569e-06,-9.75037e-06,-5.79183e-06,1.64164e-05,-3.14553e-06,3.76734e-05,-6.86861e-07,0
-3.01559e-05,8.65134e-06,-1.27976e-05,3.46435e-07,1.50594e-05,-1.32679e-06,3.99202e-05,-5.8749e-07,0
-2.88102e-05,1.13149e-05,-1.20925e-05,5.50051e-06,1.49762e-05,-1.72278e-06,3.36086e-05,-1.52896e-06,0
-2.80576e-05,1.35093e-05,-1.03021e-05,6.32004e-06,1.48638e-05,-4.21125e-06,1.30479e-05,-4.41582e-06,0
-2.89006e-05,1.41867e-05,-1.00587e-05,4.18085e-06,1.45216e-05,-5.89215e-06,-1.51336e-05,-6.3618e-06,0
-2.85518e-05,1.28418e-05,-1.06799e-05,7.86013e-07,1.42187e-05,-8.09172e-06,-3.58467e-05,-6.69299e-06,0
-2.69899e-05,9.65336e-06,-8.03415e-06,-2.60458e-06,1.45759e-05,-1.01411e-05,-4.27742e-05,-7.56976e-06,0
-2.68764e-05,6.3901e-06,-4.92612e-06,-8.61095e-06,1.38388e-05,-9.39557e-06,-3.89824e-05,-6.1048e-06,0
-2.85291e-05,3.8544e-06,-2.97619e-06,-1.53371e-05,1.10305e-05,-8.46345e-06,-2.93222e-05,-4.6845e-06,0
-3.05875e-05,3.03253e-06,-3.1609e-06,-1.99607e-05,8.56191e-06,-1.06126e-05,-1.52348e-05,-3.82078e-06,0
-3.08377e-05,5.54162e-06,-4.91591e-06,-2.12877e-05,7.72198e-06,-1.29787e-05,-9.01721e-07,-2.31292e-06,0
-3.07263e-05,8.14597e-06,-5.50239e-06,-1.78436e-05,8.41185e-06,-1.291e-05,8.93584e-06,-2.02654e-06,0
-3.19599e-05,9.50913e-06,-6.00766e-06,-1.29173e-05,1.06268e-05,-1.18507e-05,1.40686e-05,-1.23267e-06,0
-3.22929e-05,1.06713e-05,-5.88427e-06,-7.88663e-06,1.3019e-05,-1.14801e-05,1.51472e-05,-6.02969e-07,0
-3.30023e-05,1.2546e-05,-5.72534e-06,-5.9102e-06,1.33393e-05,-1.24662e-05,1.35215e-05,5.69777e-07,0
-3.39832e-05,1.42476e-05,-5.02816e-06,-7.04283e-06,1.13672e-05,-1.41709e-05,1.34289e-05,1.03924e-06,0
-3.41533e-05,1.41296e-05,-4.54134e-06,-9.44838e-06,9.45181e-06,-1.49343e-05,1.6458e-05,3.57912e-07,0
-3.39807e-05,1.3288e-05,-5.2367e-06,-1.48707e-05,7.23464e-06,-1.50342e-05,1.94265e-05,-1.41573e-07,0
-3.40709e-05,1.27386e-05,-7.38288e-06,-2.19667e-05,4.48725e-06,-1.49361e-05,2.02274e-05,1.74275e-07,0
-3.30925e-05,1.29081e-05,-8.42623e-06,-2.57083e-05,2.09796e-06,-1.53591e-05,1.80479e-05,6.4399e-07,0
-3.14062e-05,1.31507e-05,-7.21801e-06,-2.62833e-05,2.76141e-07,-1.60746e-05,1.49628e-05,3.29957e-07,0
-3.05967e-05,1.41687e-05,-5.2543e-06,-2.55802e-05,-1.5093e-06,-1.6514e-05,1.27819e-05,9.45001e-07,0
-2.97238e-05,1.6637e-05,-3.93683e-06,-2.15598e-05,-2.22192e-06,-1.69959e-05,1.22373e-05,2.73234e-06,0
-2.88789e-05,1.86597e-05,-3.95491e-06,-1.54689e-05,-1.97942e-07,-1.72208e-05,1.33406e-05,4.44791e-06,0
-2.84143e-05,1.89188e-05,-4.64548e-06,-1.00343e-05,2.77152e-06,-1.78946e-05,1.51347e-05,4.48472e-06,0
-2.90089e-05,1.85776e-05,-5.09698e-06,-4.43567e-06,6.43595e-06,-1.91433e-05,1.56538e-05,3.08102e-06,0
-3.05225e-05,1.83139e-05,-4.75831e-06,3.78581e-06,1.20881e-05,-1.91922e-05,1.44158e-05,2.19041e-06,0
-3.11696e-05,1.77437e-05,-4.68834e-06,1.30739e-05,1.93941e-05,-1.69036e-05,1.248e-05,3.36933e-06,0
-3.03387e-05,1.81803e-05,-4.06032e-06,1.97859e-05,2.71803e-05,-1.42235e-05,1.13332e-05,5.33098e-06,0
-2.90672e-05,1.98301e-05,-3.52844e-06,2.06363e-05,3.35148e-05,-1.36982e-05,1.21615e-05,6.19825e-06,0
-2.79027e-05,2.02024e-05,-3.7808e-06,1.43901e-05,3.36868e-05,-1.52916e-05,1.70767e-05,4.49538e-06,0
-2.80627e-05,1.81032e-05,-4.82724e-06,5.30283e-06,2.68251e-05,-1.69997e-05,2.55225e-05,4.29967e-07,0
-2.9201e-05,1.60562e-05,-6.54095e-06,-2.53778e-07,1.97141e-05,-1.76632e-05,3.26682e-05,-1.53847e-06,0
-3.0328e-05,1.47618e-05,-7.4202e-06,-1.25374e-06,1.56846e-05,-1.6913e-05,3.60163e-05,-8.03209e-07,0
-3.10872e-05,1.1844e-05,-5.75249e-06,2.0397e-07,1.32389e-05,-1.50992e-05,3.5357e-05,9.04862e-08,0
-3.17961e-05,1.0382e-05,-5.28689e-06,2.7079e-06,1.0767e-05,-1.44574e-05,3.21113e-05,3.29043e-07,0
-3.13181e-05,9.80025e-06,-4.85728e-06,5.80931e-06,7.55755e-06,-1.54541e-05,2.81611e-05,-7.67281e-07,0
-2.99938e-05,5.44079e-06,-3.65299e-06,8.3999e-06,6.37624e-06,-1.54e-05,2.34297e-05,-2.84626e-06,0
-2.9904e-05,8.03065e-07,-4.24606e-06,9.17517e-06,6.21364e-06,-1.32106e-05,1.69422e-05,-4.12097e-06,0
-3.03044e-05,-7.89059e-07,-5.31281e-06,8.25851e-06,6.08798e-06,-1.15138e-05,9.93716e-06,-4.26528e-06,0
-3.0475e-05,2.48229e-06,-6.0774e-06,7.52132e-06,5.44869e-06,-1.32262e-05,5.81455e-07,-3.6754e-06,0
-3.104e-05,7.67563e-06,-6.56623e-06,6.07943e-06,4.46893e-06,-1.55376e-05,-1.37967e-05,-2.92809e-06,0
-3.11529e-05,1.19935e-05,-6.39752e-06,1.40736e-06,3.68626e-06,-1.60976e-05,-2.75089e-05,-1.87001e-06,0
-2.96266e-05,1.55901e-05,-5.09541e-06,-3.07218e-06,3.45735e-06,-1.54281e-05,-3.40088e-05,5.88951e-09,0
-2.86015e-05,1.77606e-05,-5.38181e-06,-5.11799e-06,4.18693e-06,-1.47429e-05,-3.38969e-05,1.74051e-06,0
-2.87864e-05,1.9028e-05,-7.48882e-06,-5.69682e-06,3.8449e-06,-1.46332e-05,-2.71684e-05,2.53496e-06,0
-2.89393e-05,1.9888e-05,-9.43042e-06,-6.64471e-06,2.91391e-06,-1.48552e-05,-1.28843e-05,2.92959e-06,0
-2.94932e-05,2.02047e-05,-8.96407e-06,-9.22399e-06,2.41562e-06,-1.43753e-05,6.49497e-06,3.91686e-06,0
-3.04959e-05,1.94088e-05,-6.77369e-06,-1.29501e-05,2.98072e-06,-1.2354e-05,2.41298e-05,4.39034e-06,0
-3.09237e-05,1.73694e-05,-5.56759e-06,-1.54268e-05,3.34213e-06,-1.1167e-05,3.46566e-05,3.72227e-06,0
-3.04463e-05,1.4542e-05,-6.89193e-06,-1.48927e-05,4.78932e-06,-1.00894e-05,3.71689e-05,2.48717e-06,0
-2.9833e-05,1.39136e-05,-9.32215e-06,-1.38443e-05,8.95106e-06,-7.58007e-06,3.28028e-05,1.25881e-06,0
-3.0643e-05,1.56229e-05,-1.121e-05,-1.3807e-05,1.44629e-05,-5.12351e-06,2.51485e-05,-9.04108e-07,0
-3.28201e-05,1.55039e-05,-1.19697e-05,-1.27407e-05,1.73447e-05,-4.45002e-06,1.80747e-05,-3.40432e-06,0
-3.37952e-05,1.09665e-05,-1.32487e-05,-8.82018e-06,1.70624e-05,-4.24051e-06,1.34345e-05,-4.03547e-06,0
-3.2284e-05,6.22234e-06,-1.50511e-05,-4.82163e-06,1.64007e-05,-4.15829e-06,8.36503e-06,-3.48843e-06,0
-3.06208e-05,6.21128e-06,-1.50305e-05,-2.64417e-06,1.55361e-05,-4.1882e-06,2.24495e-06,-4.60963e-06,0
-3.02833e-05,8.40405e-06,-1.43364e-05,3.08237e-06,1.2458e-05,-3.86338e-06,-7.1321e-07,-7.15628e-06,0
-2.99622e-05,7.79839e-06,-1.53653e-05,1.37469e-05,9.4143e-06,-3.65392e-06,1.44012e-06,-8.34482e-06,0
-2.93642e-05,3.93497e-06,-1.66985e-05,2.05063e-05,1.08703e-05,-2.97729e-06,6.77688e-06,-8.28125e-06,0
-2.9104e-05,-2.4602e-07,-1.53273e-05,2.02158e-05,1.42814e-05,-1.38936e-06,1.40309e-05,-7.36029e-06,0
-2.91207e-05,-1.9048e-06,-1.30811e-05,1.54345e-05,1.38105e-05,-1.00019e-06,2.106e-05,-6.31201e-06,0
-2.9136e-05,-6.47393e-07,-1.22063e-05,6.87826e-06,1.10993e-05,-1.69433e-06,2.6366e-05,-5.65943e-06,0
-2.87351e-05,1.04456e-06,-1.32924e-05,-4.46282e-06,1.05568e-05,-1.51016e-06,3.22392e-05,-5.00524e-06,0
-2.8123e-05,9.12338e-07,-1.5678e-05,-1.84245e-05,7.90589e-06,-1.52609e-06,3.59458e-05,-4.13216e-06,0
-2.87874e-05,-8.53557e-07,-1.79803e-05,-2.89884e-05,4.56319e-06,-2.61547e-06,3.47154e-05,-2.23087e-06,0
-2.9557e-05,-3.03543e-06,-1.83859e-05,-3.18881e-05,3.74615e-06,-5.03838e-06,3.18074e-05,-1.93189e-07,0
-2.87348e-05,-1.30184e-06,-1.68347e-05,-3.12041e-05,5.40335e-06,-6.16534e-06,2.8674e-05,2.5607e-07,0
-2.88607e-05,4.45394e-06,-1.37265e-05,-3.22067e-05,9.23504e-06,-5.29137e-06,2.4712e-05,2.35167e-07,0
-2.88663e-05,1.05507e-05,-1.11402e-05,-3.4666e-05,1.22533e-05,-4.03312e-06,2.05192e-05,1.85318e-07,0
-2.82362e-05,1.46737e-05,-1.10335e-05,-3.32962e-05,1.30382e-05,-2.81096e-06,1.60619e-05,-4.67811e-07,0
-2.82892e-05,1.60766e-05,-1.2233e-05,-2.60621e-05,1.29586e-05,-2.33437e-06,1.15079e-05,-1.23631e-06,0
-2.94412e-05,1.64713e-05,-1.20341e-05,-1.63684e-05,1.41321e-05,-3.13209e-06,8.47202e-06,-2.22605e-06,0
-3.04813e-05,1.65794e-05,-9.54299e-06,-1.02871e-05,1.65686e-05,-4.85232e-06,7.54765e-06,-2.98424e-06,0
-3.01839e-05,1.62586e-05,-6.79084e-06,-8.8556e-06,1.9133e-05,-6.96787e-06,7.95542e-06,-2.79844e-06,0
-2.99496e-05,1.57226e-05,-4.60881e-06,-1.0863e-05,1.936e-05,-8.69247e-06,8.34474e-06,-1.35446e-06,0
-3.05848e-05,1.66106e-05,-3.35388e-06,-1.40567e-05,1.76905e-05,-1.0253e-05,5.76677e-06,6.57791e-07,0
-3.18586e-05,1.87728e-05,-2.84394e-06,-1.54776e-05,1.59287e-05,-1.25873e-05,-2.12675e-06,2.01984e-06,0
-3.25429e-05,2.1057e-05,-2.95163e-06,-1.42448e-05,1.45186e-05,-1.48687e-05,-1.19105e-05,2.50129e-06,0
-3.25717e-05,2.1407e-05,-3.19999e-06,-1.23248e-05,1.33601e-05,-1.51703e-05,-1.74204e-05,2.24659e-06,0
-3.1467e-05,2.09734e-05,-3.25873e-06,-1.04974e-05,1.34227e-05,-1.33065e-05,-1.62237e-05,1.29418e-06,0
-2.96837e-05,2.26913e-05,-2.95961e-06,-7.99708e-06,1.4178e-05,-1.11859e-05,-9.76741e-06,8.13302e-07,0
-2.86415e-05,2.49585e-05,-3.01155e-06,-6.42822e-06,1.3324e-05,-9.1968e-06,-9.656e-07,1.67822e-06,0
-2.95654e-05,2.49807e-05,-2.5427e-06,-6.90377e-06,1.26221e-05,-9.0555e-06,7.37081e-06,3.11088e-06,0
-3.17239e-05,2.30463e-05,-1.5749e-06,-8.41735e-06,1.30508e-05,-8.59306e-06,1.44138e-05,3.66067e-06,0
-3.42518e-05,1.95326e-05,-2.05499e-06,-7.97503e-06,1.17398e-05,-5.60728e-06,1.86346e-05,2.92378e-06,0
-3.52867e-05,1.67278e-05,-3.91825e-06,-6.62789e-06,9.3665e-06,-3.38896e-06,2.08639e-05,2.49752e-06,0
-3.42567e-05,1.68041e-05,-3.32599e-06,-6.47926e-06,8.43927e-06,-3.58294e-06,2.42479e-05,2.261e-06,0
-3.26148e-05,1.81206e-05,6.79392e-07,-6.86266e-06,8.22303e-06,-5.91529e-06,2.79126e-05,2.38204e-06,0
-3.08816e-05,1.90252e-05,9.28045e-07,-5.87392e-06,7.7253e-06,-7.89234e-06,2.85979e-05,2.61281e-06,0
-2.98142e-05,1.92786e-05,-3.55735e-06,-3.54564e-06,6.85814e-06,-8.57649e-06,2.74543e-05,1.47288e-06,0
-2.97099e-05,1.7911e-05,-8.42049e-06,-2.75963e-06,7.03701e-06,-9.10467e-06,2.76216e-05,3.80988e-07,0
-2.99388e-05,1.61898e-05,-1.134e-05,-3.39608e-06,1.12995e-05,-1.05028e-05,2.91579e-05,3.04186e-06,0
-2.98491e-05,1.56756e-05,-1.2162e-05,-2.87167e-06,1.86134e-05,-1.18247e-05,3.10057e-05,7.04949e-06,0
-2.84637e-05,1.38485e-05,-1.33685e-05,-2.23912e-07,2.30192e-05,-1.1885e-05,2.98535e-05,6.62348e-06,0
-2.73949e-05,1.14792e-05,-1.77681e-05,5.67535e-06,2.33397e-05,-9.9844e-06,2.53525e-05,4.24034e-06,0
-2.77973e-05,1.05365e-05,-2.3632e-05,1.17057e-05,1.9761e-05,-8.43187e-06,2.02784e-05,3.04958e-06,0
-2.75642e-05,1.0258e-05,-2.55374e-05,1.1263e-05,1.43687e-05,-8.71797e-06,1.70368e-05,3.47264e-06,0
-2.78502e-05,8.89584e-06,-2.23657e-05,3.11334e-06,1.27268e-05,-9.26988e-06,1.43169e-05,4.6856e-06,0
-2.92227e-05,8.3431e-06,-1.74839e-05,-5.49913e-06,1.64199e-05,-1.0673e-05,6.16804e-06,5.38594e-06,0
-2.99037e-05,1.03164e-05,-1.37531e-05,-7.87807e-06,2.19282e-05,-1.30122e-05,-1.23143e-05,4.64916e-06,0
-2.91191e-05,1.20764e-05,-1.14447e-05,-6.57819e-06,2.4191e-05,-1.50021e-05,-3.34401e-05,3.92134e-06,0
-2.7932e-05,1.08738e-05,-1.00073e-05,-8.00262e-06,2.03234e-05,-1.55799e-05,-4.08896e-05,3.67245e-06,0
-2.79709e-05,7.84997e-06,-8.97581e-06,-1.3694e-05,1.33961e-05,-1.56361e-05,-2.89014e-05,2.32045e-06,0
-2.95206e-05,5.34846e-06,-8.21227e-06,-1.51619e-05,1.09089e-05,-1.58413e-05,-6.06121e-06,1.23849e-06,0
-3.06302e-05,4.90864e-06,-7.83615e-06,-4.50597e-06,1.47238e-05,-1.67789e-05,1.62091e-05,2.42869e-06,0
-3.11106e-05,6.40466e-06,-7.97089e-06,1.5996e-05,2.01425e-05,-1.77218e-05,3.28207e-05,4.82034e-06,0
-3.20653e-05,8.00759e-06,-7.79923e-06,3.49611e-05,2.2001e-05,-1.75641e-05,4.3421e-05,5.79397e-06,0
-3.31921e-05,8.57052e-06,-7.48478e-06,3.95201e-05,2.18029e-05,-1.61148e-05,4.81395e-05,5.07317e-06,0
-3.40582e-05,7.42139e-06,-8.59306e-06,2.79904e-05,2.26711e-05,-1.4158e-05,4.52232e-05,3.66903e-06,0
-3.4339e-05,7.70245e-06,-9.61012e-06,9.54734e-06,2.29184e-05,-1.3319e-05,3.77157e-05,3.28881e-06,0
-3.37915e-05,1.2379e-05,-7.63447e-06,-9.66551e-06,1.99954e-05,-1.39984e-05,3.19547e-05,3.92253e-06,0
-3.34028e-05,1.69767e-05,-3.61178e-06,-2.64829e-05,1.53501e-05,-1.39604e-05,2.82553e-05,5.55503e-06,0
-3.36999e-05,1.96176e-05,-2.9968e-06,-3.98236e-05,1.32651e-05,-1.28609e-05,2.54686e-05,6.42817e-06,0
-3.40408e-05,2.32649e-05,-5.69199e-06,-4.68174e-05,1.48987e-05,-1.02164e-05,2.46936e-05,5.79019e-06,0
-3.38373e-05,2.63629e-05,-6.55534e-06,-3.92173e-05,1.79408e-05,-6.71403e-06,2.62419e-05,5.50976e-06,0
-3.26574e-05,2.63313e-05,-6.25591e-06,-2.11911e-05,2.07545e-05,-6.73596e-06,2.67127e-05,6.32526e-06,0
-3.09462e-05,2.41169e-05,-6.08166e-06,-5.77719e-06,2.32426e-05,-8.22262e-06,2.13619e-05,5.68042e-06,0
-3.05475e-05,2.28581e-05,-5.21003e-06,2.11836e-06,2.35243e-05,-8.85146e-06,1.4607e-05,3.80391e-06,0
-3.16052e-05,2.26526e-05,-3.87883e-06,3.91981e-06,2.16608e-05,-9.91104e-06,8.52131e-06,3.54275e-06,0
-3.15901e-05,2.31916e-05,-3.79923e-06,1.94807e-06,1.93818e-05,-1.10361e-05,9.42731e-07,3.83282e-06,0
-3.03218e-05,2.25536e-05,-4.40959e-06,-1.04872e-06,1.69195e-05,-1.32769e-05,-6.53003e-06,4.77953e-06,0
-2.9457e-05,1.98328e-05,-5.07567e-06,-1.40748e-06,1.39324e-05,-1.48826e-05,-9.27975e-06,5.63134e-06,0
-3.00392e-05,1.75068e-05,-5.89076e-06,2.02214e-06,1.20326e-05,-1.41995e-05,-4.86222e-06,5.87057e-06,0
-3.06595e-05,1.57908e-05,-4.88067e-06,6.24904e-06,1.2832e-05,-1.41427e-05,9.22884e-07,5.53708e-06,0
-3.06989e-05,1.34085e-05,-2.94923e-06,8.35125e-06,1.41779e-05,-1.49118e-05,2.92179e-06,5.17855e-06,0
-3.058e-05,9.71356e-06,-2.08202e-06,8.06294e-06,1.41531e-05,-1.49287e-05,7.06865e-07,4.16163e-06,0
-3.02255e-05,6.5924e-06,-1.97463e-06,8.58344e-06,1.16058e-05,-1.32644e-05,-2.63089e-06,1.48933e-06,0
-2.99286e-05,5.60267e-06,-1.22185e-06,1.2143e-05,7.64261e-06,-1.10939e-05,-4.48175e-06,1.09888e-07,0
-2.90368e-05,6.60275e-06,4.45097e-07,1.72052e-05,6.17402e-06,-9.7058e-06,-2.95776e-06,3.61644e-07,0
-2.71554e-05,6.98359e-06,2.21064e-06,1.93956e-05,8.46924e-06,-9.54257e-06,7.06117e-08,-8.66545e-07,0
-2.51654e-05,6.42673e-06,1.86364e-06,1.76883e-05,1.21785e-05,-9.18764e-06,2.60237e-06,-3.3339e-06,0
-2.4388e-05,7.08905e-06,-7.35725e-07,1.41555e-05,1.47967e-05,-8.46514e-06,4.87164e-06,-4.78625e-06,0
-2.48442e-05,8.41026e-06,-4.21975e-06,8.7658e-06,1.43961e-05,-9.08588e-06,6.37677e-06,-4.9223e-06,0
-2.50694e-05,8.61314e-06,-7.30686e-06,3.99821e-07,1.08202e-05,-9.93443e-06,7.15449e-06,-3.81099e-06,0
-2.44861e-05,8.00691e-06,-8.43418e-06,-9.13372e-06,7.24453e-06,-9.40383e-06,7.89106e-06,-2.49275e-06,0
-2.41221e-05,7.73114e-06,-8.81317e-06,-1.33614e-05,6.27424e-06,-8.12876e-06,8.9572e-06,-2.09331e-06,0
-2.38353e-05,8.57306e-06,-1.06213e-05,-1.10555e-05,6.10748e-06,-6.99124e-06,1.00891e-05,-2.28962e-06,0
-2.35252e-05,9.81253e-06,-1.37292e-05,-6.92811e-06,5.9811e-06,-6.08544e-06,1.18616e-05,-1.22989e-06,0
-2.36743e-05,9.6548e-06,-1.5048e-05,-4.03312e-06,7.37959e-06,-7.00969e-06,1.36528e-05,7.50422e-07,0
-2.42553e-05,9.34981e-06,-1.3221e-05,-3.4203e-06,8.28963e-06,-8.27396e-06,1.3711e-05,1.21148e-06,0
-2.57726e-05,1.01202e-05,-1.06323e-05,-5.9328e-06,6.67075e-06,-7.64563e-06,1.36346e-05,1.69076e-06,0
-2.73957e-05,1.04682e-05,-8.25267e-06,-1.08148e-05,4.82611e-06,-7.73511e-06,1.46599e-05,2.76135e-06,0
-2.92264e-05,1.07301e-05,-5.91482e-06,-1.37816e-05,5.29077e-06,-9.52378e-06,1.50744e-05,2.89159e-06,0
-2.96901e-05,1.12599e-05,-6.01703e-06,-1.20613e-05,6.77045e-06,-1.0056e-05,1.4502e-05,3.55143e-06,0
-2.83503e-05,1.0735e-05,-8.66825e-06,-8.14071e-06,7.22579e-06,-8.62308e-06,1.32387e-05,4.46276e-06,0
-2.99075e-05,1.00951e-05,-9.99475e-06,-2.91589e-06,6.4067e-06,-8.14288e-06,1.2534e-05,4.93796e-06,0
-3.26161e-05,1.00876e-05,-9.58257e-06,9.57449e-07,5.32786e-06,-8.29537e-06,1.35913e-05,5.28917e-06,0
-3.26261e-05,1.08897e-05,-8.89478e-06,1.93805e-06,5.5265e-06,-7.96188e-06,1.37953e-05,4.33069e-06,0
-3.11885e-05,1.16632e-05,-7.83313e-06,3.78453e-06,6.61274e-06,-7.5338e-06,1.09785e-05,2.95513e-06,0
-3.14483e-05,1.24675e-05,-6.73168e-06,5.31801e-06,7.51268e-06,-8.25259e-06,7.32158e-06,2.22099e-06,0
-3.26328e-05,1.44261e-05,-5.92111e-06,4.63511e-06,8.86076e-06,-1.02125e-05,3.72052e-06,2.37089e-06,0
-3.23905e-05,1.62196e-05,-6.93245e-06,2.88142e-06,1.22725e-05,-1.04563e-05,3.13799e-06,2.84382e-06,0
-3.12051e-05,1.70604e-05,-9.23535e-06,6.10939e-07,1.61974e-05,-1.04745e-05,7.12534e-06,3.79649e-06,0
-3.08841e-05,1.77697e-05,-1.10987e-05,-1.46201e-06,1.78082e-05,-1.24545e-05,1.26619e-05,4.53915e-06,0
-3.16613e-05,1.76968e-05,-1.24071e-05,-3.06899e-06,1.86674e-05,-1.50913e-05,1.61821e-05,4.19231e-06,0
-3.17877e-05,1.69339e-05,-1.20608e-05,-5.55159e-06,1.91879e-05,-1.55876e-05,1.77637e-05,3.17969e-06,0
-3.14394e-05,1.57596e-05,-9.33568e-06,-9.56309e-06,1.82407e-05,-1.44073e-05,1.95922e-05,1.92808e-06,0
-3.12923e-05,1.44999e-05,-6.21036e-06,-1.36334e-05,1.6396e-05,-1.29235e-05,2.15202e-05,1.51887e-06,0
-3.1314e-05,1.4004e-05,-5.16623e-06,-1.53612e-05,1.40156e-05,-1.16649e-05,2.32038e-05,2.06604e-06,0
-3.10924e-05,1.3342e-05,-5.54711e-06,-1.39708e-05,1.06089e-05,-1.11353e-05,2.3775e-05,2.8242e-06,0
-3.01203e-05,1.19915e-05,-5.54136e-06,-1.2161e-05,7.81441e-06,-1.17504e-05,2.27279e-05,2.94699e-06,0
-2.87359e-05,1.16454e-05,-5.06325e-06,-1.29548e-05,7.46709e-06,-1.29186e-05,2.02073e-05,3.19926e-06,0
-2.92907e-05,1.24253e-05,-5.58114e-06,-1.55487e-05,7.51873e-06,-1.30749e-05,1.74008e-05,3.52726e-06,0
-3.07077e-05,1.26653e-05,-6.87892e-06,-1.73066e-05,6.87437e-06,-1.28604e-05,1.65405e-05,3.40268e-06,0
-3.12061e-05,1.32027e-05,-8.37856e-06,-1.69872e-05,6.53074e-06,-1.23891e-05,1.81149e-05,2.50261e-06,0
-3.11625e-05,1.38391e-05,-1.03942e-05,-1.57795e-05,6.19105e-06,-1.27559e-05,2.07944e-05,8.58381e-07,0
-3.02212e-05,1.66782e-05,-1.23575e-05,-1.48804e-05,5.32888e-06,-1.29077e-05,2.15812e-05,-9.65717e-07,0
-2.79928e-05,2.05092e-05,-1.35911e-05,-1.42746e-05,5.10549e-06,-1.18202e-05,1.93348e-05,-1.34212e-06,0
-2.69262e-05,1.86577e-05,-1.30789e-05,-1.30736e-05,4.48766e-06,-1.2213e-05,1.85702e-05,6.66527e-07,0
-2.83917e-05,1.34442e-05,-1.14278e-05,-9.27113e-06,3.49943e-06,-1.29469e-05,1.93381e-05,1.71102e-06,0
-2.9923e-05,8.8926e-06,-1.14227e-05,-6.90872e-06,4.31394e-06,-1.3111e-05,2.03598e-05,2.45296e-06,0
-2.99311e-05,7.48107e-06,-1.20467e-05,-6.09221e-06,7.982e-06,-1.2295e-05,2.16832e-05,3.39349e-06,0
-2.89382e-05,1.03833e-05,-1.32475e-05,-2.73602e-06,1.36003e-05,-1.05335e-05,2.32569e-05,3.59341e-06,0
-2.93321e-05,1.306e-05,-1.5964e-05,2.79228e-07,1.58186e-05,-1.00593e-05,2.3965e-05,3.9753e-06,0
-3.08049e-05,1.45173e-05,-1.66068e-05,2.07157e-06,1.49419e-05,-9.75751e-06,2.30201e-05,4.18334e-06,0
-3.20022e-05,1.69045e-05,-1.50695e-05,3.11684e-06,1.37515e-05,-9.27116e-06,2.20941e-05,5.49334e-06,0
-3.20524e-05,2.03368e-05,-1.18178e-05,4.46133e-06,1.27447e-05,-7.84755e-06,2.17757e-05,6.50992e-06,0
-3.0648e-05,2.28054e-05,-9.4801e-06,6.28602e-06,1.17563e-05,-6.74965e-06,2.01524e-05,6.03106e-06,0
-2.87211e-05,2.24614e-05,-8.9337e-06,8.76076e-06,1.15047e-05,-6.73662e-06,1.47613e-05,4.19528e-06,0
-2.77576e-05,1.95998e-05,-7.18049e-06,1.15888e-05,1.29836e-05,-7.53899e-06,9.73538e-06,2.41845e-06,0
-2.85102e-05,1.75924e-05,-2.41862e-06,1.43757e-05,1.35969e-05,-8.56224e-06,8.73498e-06,1.95736e-06,0
-2.90857e-05,1.75544e-05,3.78721e-06,1.5321e-05,1.28504e-05,-8.63157e-06,1.07955e-05,3.92162e-06,0
-2.81316e-05,1.78122e-05,9.86673e-06,1.0274e-05,1.21331e-05,-8.35001e-06,1.32603e-05,6.47166e-06,0
-2.71674e-05,1.69972e-05,1.90171e-05,2.08332e-06,1.24781e-05,-6.88227e-06,1.55152e-05,6.65474e-06,0
-2.78214e-05,1.51129e-05,3.3068e-05,-3.85737e-06,1.26386e-05,-4.11156e-06,1.70309e-05,5.74345e-06,0
-2.95631e-05,1.4062e-05,4.96271e-05,-6.61944e-06,1.24346e-05,-1.6318e-06,1.85008e-05,4.90553e-06,0
-3.12335e-05,1.48018e-05,6.29736e-05,-8.6813e-06,1.3809e-05,-1.18985e-06,1.98958e-05,4.01376e-06,0
-3.16974e-05,1.56864e-05,6.63957e-05,-1.10361e-05,1.68406e-05,-2.18573e-06,1.8337e-05,3.28431e-06,0
-3.12638e-05,1.44995e-05,5.32866e-05,-1.2091e-05,1.86005e-05,-2.95855e-06,1.47676e-05,4.22252e-06,0
-3.08177e-05,1.29111e-05,2.26834e-05,-1.05284e-05,1.86019e-05,-2.7642e-06,1.19474e-05,4.86352e-06,0
-3.09653e-05,1.37618e-05,-1.82609e-05,-9.43906e-06,1.82835e-05,-9.00288e-07,1.09176e-05,3.72172e-06,0
-3.22134e-05,1.58007e-05,-5.76874e-05,-1.3176e-05,1.7857e-05,1.34106e-06,9.84537e-06,1.52982e-06,0
-3.34279e-05,1.53746e-05,-8.79912e-05,-2.00315e-05,1.67245e-05,2.23022e-07,7.4965e-06,-3.35294e-07,0
-3.48692e-05,1.41485e-05,-0.000103474,-2.15946e-05,1.53356e-05,-2.71472e-06,5.35345e-06,-1.93731e-07,0
-3.62086e-05,1.2284e-05,-0.000101127,-1.46411e-05,1.5773e-05,-4.21817e-06,4.94939e-06,4.27983e-07,0
-3.66883e-05,8.33253e-06,-8.3473e-05,-5.51729e-06,1.80558e-05,-2.60871e-06,7.60028e-06,1.58169e-06,0
-3.60378e-05,4.72444e-06,-6.36558e-05,2.80822e-07,1.90812e-05,-1.3991e-06,1.24087e-05,3.43187e-06,0
-3.414e-05,3.66344e-06,-5.17152e-05,2.29068e-06,1.83538e-05,-3.35316e-06,1.9893e-05,4.10787e-06,0
-3.17698e-05,3.42135e-06,-4.36257e-05,1.25631e-06,1.85521e-05,-5.6377e-06,2.89978e-05,4.69779e-06,0
-2.9981e-05,1.96518e-06,-3.48805e-05,-5.30708e-07,2.03195e-05,-6.441e-06,3.45028e-05,5.33507e-06,0
-2.97308e-05,1.02445e-06,-2.43966e-05,-2.40782e-06,2.21996e-05,-6.08426e-06,3.48268e-05,5.91141e-06,0
-3.01029e-05,1.34594e-06,-1.59686e-05,-6.49742e-06,2.05168e-05,-6.79039e-06,2.82798e-05,4.00412e-06,0
-3.06175e-05,1.05469e-06,-1.04699e-05,-1.14482e-05,1.74068e-05,-8.22227e-06,1.88588e-05,1.05218e-06,0
-3.03405e-05,-8.65893e-07,-5.6421e-06,-1.57471e-05,1.4991e-05,-8.85336e-06,1.08476e-05,-1.36268e-06,0
-3.01082e-05,-1.77882e-06,-9.00168e-07,-1.61993e-05,1.45385e-05,-7.3094e-06,2.05342e-06,-3.83342e-06,0
-3.0889e-05,-1.57529e-06,8.51565e-07,-1.17032e-05,1.66699e-05,-5.27688e-06,-9.21456e-06,-4.34192e-06,0
-3.23039e-05,-1.60473e-06,-7.87903e-07,-6.68865e-06,1.75354e-05,-5.60588e-06,-2.018e-05,-3.28333e-06,0
-3.28947e-05,-9.53086e-07,-2.92268e-06,-5.57951e-06,1.59527e-05,-7.7918e-06,-2.68482e-05,-2.34101e-06,0
-3.23903e-05,-1.02189e-07,-3.01302e-06,-7.64699e-06,1.2956e-05,-9.44623e-06,-2.85195e-05,-2.55077e-06,0
-3.26428e-05,-8.5948e-07,-1.95198e-06,-1.04938e-05,1.08648e-05,-1.02357e-05,-2.56542e-05,-3.87318e-06,0
-3.28137e-05,-2.69704e-06,-1.19759e-06,-1.26361e-05,1.2307e-05,-1.07407e-05,-1.93421e-05,-6.27838e-06,0
-3.13905e-05,-3.96238e-06,-2.35949e-08,-1.19954e-05,1.77426e-05,-1.10507e-05,-1.09571e-05,-7.90426e-06,0
-2.85394e-05,-3.78305e-06,1.90685e-06,-8.40627e-06,2.29797e-05,-1.1149e-05,-3.29846e-06,-7.7752e-06,0
-2.74264e-05,-2.09146e-06,4.69651e-06,-1.10148e-06,2.46675e-05,-1.12507e-05,1.46575e-06,-6.14889e-06,0
-2.86995e-05,-1.3163e-06,7.04823e-06,1.40208e-05,2.48147e-05,-1.08988e-05,3.89575e-06,-5.18093e-06,0
-2.90902e-05,-1.56316e-06,8.00885e-06,3.63835e-05,2.58717e-05,-8.58394e-06,5.21412e-06,-5.39691e-06,0
