ch1,ch2,ch3,ch4,ch5,ch6,ch7,ch8,class
-3.36816e-05,-6.34295e-06,-3.83134e-05,-3.61114e-05,9.74949e-06,-1.08041e-05,1.47023e-05,8.91046e-08,0
-3.24705e-05,6.7554e-06,-3.65627e-05,-2.67446e-05,6.27356e-06,-1.11267e-05,1.29092e-05,-5.94157e-07,0
-2.90047e-05,1.60302e-05,-2.80334e-05,-1.42097e-05,6.765e-06,-1.24265e-05,1.25615e-05,-1.09301e-06,0
-2.60586e-05,1.93036e-05,-1.74644e-05,-5.15895e-06,8.26823e-06,-1.50075e-05,1.2143e-05,-1.92872e-06,0
-2.50368e-05,1.64054e-05,-1.06662e-05,3.74318e-07,9.12183e-06,-1.49394e-05,1.1805e-05,-3.55927e-06,0
-2.73997e-05,1.41318e-05,-8.3203e-06,1.77227e-06,9.86785e-06,-1.46741e-05,1.33463e-05,-6.47029e-06,0
-3.07123e-05,1.25942e-05,-7.90187e-06,-1.02721e-07,1.05824e-05,-1.62595e-05,1.87079e-05,-8.31195e-06,0
-3.17774e-05,9.15623e-06,-6.21288e-06,-3.99984e-06,9.16674e-06,-1.69035e-05,2.84706e-05,-6.55409e-06,0
-3.07387e-05,4.30017e-06,-4.15934e-06,-8.16389e-06,8.33852e-06,-1.59875e-05,3.72332e-05,-3.72171e-06,0
-2.90518e-05,2.1471e-06,-2.37737e-06,-1.10192e-05,8.24537e-06,-1.55589e-05,4.32487e-05,-2.25474e-06,0
-2.88118e-05,4.00091e-06,-1.85221e-06,-9.75671e-06,9.31326e-06,-1.68912e-05,4.85856e-05,-2.57389e-06,0
-2.96086e-05,6.17884e-06,-1.28377e-06,-4.39613e-06,1.17926e-05,-1.76847e-05,5.39494e-05,-2.35105e-06,0
-3.03702e-05,6.46538e-06,6.46046e-07,3.13115e-07,1.42606e-05,-1.65911e-05,5.73347e-05,-1.53886e-06,0
-3.11187e-05,5.47651e-06,2.79179e-06,1.25257e-06,1.68165e-05,-1.40376e-05,5.68176e-05,-2.31499e-06,0
-3.23259e-05,5.61697e-06,3.50887e-06,8.61767e-08,1.81229e-05,-1.24181e-05,5.05955e-05,-4.80502e-06,0
-3.22158e-05,6.10959e-06,2.39423e-06,-1.47111e-06,1.8111e-05,-1.26283e-05,3.82646e-05,-6.53967e-06,0
-2.99073e-05,5.08065e-06,7.08376e-07,-3.43146e-06,1.78768e-05,-1.40371e-05,2.25327e-05,-6.8762e-06,0
-2.77975e-05,3.3391e-06,-1.89989e-07,-5.29723e-06,1.92033e-05,-1.50366e-05,6.74055e-06,-6.48563e-06,0
-2.68413e-05,4.28671e-06,-9.08082e-09,-5.35163e-06,2.18431e-05,-1.4276e-05,-6.0336e-06,-4.83686e-06,0
-2.60822e-05,8.18904e-06,5.60506e-07,-2.15712e-06,2.49993e-05,-1.19889e-05,-1.4757e-05,-2.47781e-06,0
-2.50791e-05,1.60362e-05,1.8485e-06,1.40774e-06,2.65038e-05,-9.97433e-06,-2.08167e-05,-1.38768e-06,0
-2.52593e-05,2.61595e-05,3.5487e-06,1.4997e-06,2.55701e-05,-9.84803e-06,-2.7715e-05,-2.20535e-06,0
-2.67189e-05,3.20922e-05,5.06303e-06,-1.87622e-06,2.27976e-05,-9.53959e-06,-3.97987e-05,-2.78027e-06,0
-2.77367e-05,3.08703e-05,4.82017e-06,-5.69155e-06,2.00162e-05,-7.15569e-06,-5.5422e-05,-2.21008e-06,0
-2.69755e-05,2.5019e-05,3.52476e-06,-6.74909e-06,1.90791e-05,-4.3767e-06,-6.37344e-05,-5.89361e-07,0
-2.52223e-05,1.79604e-05,2.55267e-06,-4.32646e-06,2.00309e-05,-4.37755e-06,-5.43711e-05,1.97899e-06,0
-2.5135e-05,1.21356e-05,1.89368e-06,-1.40769e-06,2.1276e-05,-6.88427e-06,-2.98106e-05,3.53947e-06,0
-2.74257e-05,6.76845e-06,3.04641e-07,7.888e-07,2.13495e-05,-9.12696e-06,-1.64605e-06,4.33417e-06,0
-2.96255e-05,1.80494e-06,-1.95468e-06,3.9479e-06,2.08968e-05,-1.03705e-05,2.08202e-05,4.16197e-06,0
-3.0884e-05,-2.9381e-06,-4.81906e-06,7.65444e-06,2.11432e-05,-9.92829e-06,3.26516e-05,1.37116e-06,0
-3.13468e-05,-7.88441e-06,-5.38172e-06,7.20245e-06,2.27556e-05,-7.4124e-06,3.29702e-05,-1.31813e-06,0
-3.11489e-05,-1.2994e-05,-3.60781e-06,2.82727e-06,2.28227e-05,-5.34659e-06,2.72516e-05,-1.62083e-06,0
-3.24737e-05,-1.06658e-05,-4.08461e-06,-7.61575e-07,2.13247e-05,-4.56073e-06,2.3055e-05,-3.11212e-07,0
-3.48226e-05,6.51622e-06,-5.24257e-06,-2.75699e-06,2.01266e-05,-5.8383e-06,2.08933e-05,1.47301e-08,0
-3.54215e-05,2.82283e-05,-7.41348e-06,-2.09326e-06,1.85339e-05,-8.09599e-06,1.95499e-05,7.96964e-08,0
-3.52128e-05,4.20675e-05,-8.29232e-06,6.14161e-07,1.71534e-05,-7.58504e-06,1.59188e-05,5.89382e-07,0
-3.41682e-05,4.33075e-05,-6.33254e-06,1.99413e-06,1.69495e-05,-4.76829e-06,1.05377e-05,1.0582e-07,0
-3.28177e-05,3.57892e-05,-3.26416e-06,5.13912e-07,1.81929e-05,-3.59756e-06,7.08157e-06,-8.85158e-07,0
-3.24278e-05,2.556e-05,-1.47322e-06,-1.69166e-06,1.99532e-05,-4.76796e-06,6.32025e-06,-1.09132e-06,0
-3.16054e-05,1.79958e-05,-1.90209e-06,-2.7346e-06,2.16722e-05,-6.56011e-06,7.60207e-06,-1.14946e-06,0
-2.98935e-05,1.37454e-05,-2.49651e-06,-2.39185e-06,2.33441e-05,-6.96808e-06,8.51269e-06,-1.5008e-06,0
-2.80423e-05,8.04226e-06,-2.07576e-06,-1.19513e-06,2.52633e-05,-6.04867e-06,7.74944e-06,-6.66774e-07,0
-2.67038e-05,-1.51815e-06,-1.96205e-06,-1.10304e-06,2.62611e-05,-5.20068e-06,6.08819e-06,1.84317e-06,0
-2.63494e-05,-1.20989e-05,-3.61901e-06,-2.24507e-06,2.50471e-05,-3.81934e-06,7.67594e-06,3.66189e-06,0
-2.76844e-05,-1.80659e-05,-5.49757e-06,-3.66524e-06,2.24202e-05,-2.60429e-06,1.54296e-05,3.30239e-06,0
-2.97678e-05,-1.4079e-05,-6.60402e-06,-5.01833e-06,1.94114e-05,-3.37265e-06,2.70736e-05,3.59997e-06,0
-3.14944e-05,-4.9395e-08,-6.89103e-06,-6.4748e-06,1.74669e-05,-5.45107e-06,3.60531e-05,5.45345e-06,0
-3.28059e-05,1.51592e-05,-7.85717e-06,-8.97737e-06,1.76744e-05,-6.27861e-06,3.89522e-05,6.93576e-06,0
-3.40757e-05,2.2182e-05,-9.19645e-06,-9.71527e-06,2.04613e-05,-5.44092e-06,3.61805e-05,7.37938e-06,0
-3.44167e-05,2.06863e-05,-9.95868e-06,-5.20365e-06,2.39496e-05,-4.28026e-06,3.14067e-05,8.12916e-06,0
-3.34525e-05,1.85058e-05,-1.09722e-05,4.96632e-07,2.51854e-05,-4.4608e-06,2.75137e-05,8.28146e-06,0
-3.26258e-05,1.639e-05,-1.29289e-05,5.42561e-06,2.35425e-05,-4.5612e-06,2.37896e-05,8.03345e-06,0
-3.18919e-05,1.0773e-05,-1.44338e-05,1.22793e-05,2.02554e-05,-4.19651e-06,1.86197e-05,8.20909e-06,0
-3.17403e-05,3.85615e-06,-1.60698e-05,1.71642e-05,1.63264e-05,-4.19718e-06,1.19304e-05,7.94053e-06,0
-3.17338e-05,-2.54118e-06,-1.80971e-05,1.56176e-05,1.34501e-05,-3.92076e-06,4.13345e-06,8.25657e-06,0
-3.1289e-05,-7.66092e-06,-1.8582e-05,1.11403e-05,1.2581e-05,-2.62946e-06,-2.30815e-06,7.97455e-06,0
-3.12098e-05,-9.63441e-06,-1.7357e-05,9.5249e-06,1.3756e-05,-4.07474e-07,-3.45764e-06,5.52076e-06,0
-2.90183e-05,-9.34262e-06,-1.50771e-05,8.33605e-06,1.56026e-05,1.8557e-06,-8.05988e-07,2.40788e-06,0
-2.75445e-05,-9.42963e-06,-1.38734e-05,4.7582e-06,1.71825e-05,1.90828e-06,2.74611e-07,-6.3063e-07,0
-2.95363e-05,-7.29026e-06,-1.53758e-05,-8.99076e-08,2.01837e-05,-2.42828e-07,-2.99487e-06,-2.14657e-06,0
-3.20178e-05,5.03322e-08,-1.68977e-05,-5.92433e-06,2.32507e-05,-4.66949e-07,-6.21029e-06,-2.00645e-06,0
-3.27955e-05,6.56007e-06,-1.66891e-05,-1.26446e-05,2.40212e-05,3.31443e-07,-7.394e-06,-1.22477e-06,0
-3.21916e-05,7.65339e-06,-1.52622e-05,-2.20166e-05,2.27338e-05,-2.99693e-07,-5.34821e-06,1.04322e-06,0
-3.21745e-05,5.79701e-06,-1.42796e-05,-3.08236e-05,2.02726e-05,-2.5187e-06,8.84491e-07,1.45877e-06,0
-3.28308e-05,5.5935e-06,-1.43025e-05,-3.59575e-05,1.8756e-05,-5.06146e-06,8.88877e-06,-1.36678e-06,0
-3.34986e-05,6.79441e-06,-1.40852e-05,-3.61635e-05,1.96926e-05,-6.11483e-06,1.45764e-05,-3.15357e-06,0
-3.37232e-05,5.98728e-06,-1.27978e-05,-3.08823e-05,2.26672e-05,-7.20595e-06,1.55334e-05,-2.40448e-06,0
-3.3611e-05,3.16354e-06,-1.07058e-05,-2.23713e-05,2.53062e-05,-9.23677e-06,1.42696e-05,3.44022e-07,0
-3.40495e-05,-1.0481e-06,-9.02479e-06,-1.42756e-05,2.57734e-05,-1.03229e-05,1.40376e-05,3.33657e-06,0
-3.55953e-05,-3.45797e-06,-7.68424e-06,-9.01991e-06,2.41866e-05,-1.06225e-05,1.72971e-05,5.14362e-06,0
-3.58379e-05,-2.40389e-06,-7.04039e-06,-5.8567e-06,2.11672e-05,-1.10809e-05,2.25337e-05,4.70671e-06,0
-3.35797e-05,1.32574e-06,-6.79957e-06,-3.78891e-06,1.79502e-05,-1.05158e-05,2.64218e-05,3.04298e-06,0
-3.09907e-05,5.60094e-06,-6.43205e-06,-2.56558e-06,1.57308e-05,-9.21539e-06,2.6612e-05,1.80161e-06,0
-2.99763e-05,9.32909e-06,-5.07008e-06,-2.89419e-06,1.53718e-05,-8.58651e-06,2.43288e-05,1.70302e-06,0
-2.95881e-05,1.44788e-05,-3.28589e-06,-1.21451e-06,1.66598e-05,-8.61019e-06,2.3615e-05,3.09464e-06,0
-2.91469e-05,2.13373e-05,-2.42746e-06,3.1907e-06,1.76927e-05,-9.00062e-06,2.62737e-05,4.06959e-06,0
-2.95521e-05,2.65675e-05,-2.90629e-06,6.10535e-06,1.7567e-05,-1.02156e-05,2.81802e-05,4.78555e-06,0
-3.11447e-05,2.59639e-05,-3.64624e-06,5.43672e-06,1.65558e-05,-1.40569e-05,2.31452e-05,4.13219e-06,0
-3.30376e-05,2.12974e-05,-4.85061e-06,2.73924e-06,1.44308e-05,-1.68501e-05,1.12605e-05,2.17179e-06,0
-3.43283e-05,1.71982e-05,-6.27093e-06,-2.72111e-07,1.14513e-05,-1.51935e-05,5.49881e-07,2.12693e-06,0
-3.44775e-05,1.54211e-05,-6.31321e-06,-2.32601e-06,8.40463e-06,-1.29448e-05,-4.50002e-07,3.57094e-06,0
-3.36685e-05,1.50393e-05,-5.31179e-06,-2.3747e-06,6.70429e-06,-1.32927e-05,8.17426e-06,4.74513e-06,0
-3.27029e-05,1.44726e-05,-4.32191e-06,-2.71994e-06,5.63712e-06,-1.62008e-05,1.69718e-05,5.23146e-06,0
-3.2358e-05,1.39068e-05,-4.13604e-06,-3.19897e-06,3.46334e-06,-1.78622e-05,2.08047e-05,3.77626e-06,0
-3.21949e-05,1.41936e-05,-4.23949e-06,-2.66885e-06,1.23401e-06,-1.62337e-05,2.07416e-05,3.15601e-06,0
-3.10557e-05,1.67563e-05,-4.40018e-06,-1.77309e-06,-7.32838e-07,-1.30456e-05,1.91461e-05,5.02778e-06,0
-3.08628e-05,1.74188e-05,-6.14108e-06,-4.43657e-07,-2.30787e-06,-1.16536e-05,1.97916e-05,7.86223e-06,0
-3.20979e-05,1.41467e-05,-7.90263e-06,2.31129e-06,-2.14355e-06,-1.23961e-05,2.15974e-05,8.8945e-06,0
-3.17965e-05,9.99385e-06,-7.78088e-06,6.55982e-06,-3.03891e-06,-1.3188e-05,2.50532e-05,5.84447e-06,0
-3.10054e-05,8.00757e-06,-6.77564e-06,9.32119e-06,-3.97576e-06,-1.3069e-05,2.86207e-05,1.35533e-06,0
-3.19553e-05,1.09435e-05,-6.0567e-06,8.78698e-06,-4.34093e-06,-1.22433e-05,2.93314e-05,-1.54471e-06,0
-3.22986e-05,1.48669e-05,-4.79554e-06,6.79941e-06,-4.67746e-06,-1.21063e-05,2.55862e-05,-9.29205e-07,0
-3.18057e-05,1.55312e-05,-1.64713e-06,5.86748e-06,-3.9127e-06,-1.25696e-05,1.50339e-05,5.06033e-07,0
-3.14842e-05,1.31468e-05,1.05399e-06,5.50128e-06,-2.62274e-06,-1.33202e-05,-1.15997e-06,7.66729e-07,0
-3.12397e-05,1.29411e-05,3.68817e-06,3.96726e-06,-1.09152e-06,-1.42462e-05,-1.76434e-05,-5.39718e-07,0
-3.08006e-05,1.59351e-05,9.53641e-06,1.49957e-06,3.56918e-07,-1.42778e-05,-2.76531e-05,-2.86343e-06,0
-3.06282e-05,1.99455e-05,2.01431e-05,-1.10337e-06,2.15896e-06,-1.28192e-05,-2.89762e-05,-3.77767e-06,0
-3.18046e-05,2.30416e-05,3.0509e-05,-3.84182e-06,4.14028e-06,-1.20391e-05,-2.23892e-05,-2.05213e-06,0
-3.32556e-05,2.44905e-05,3.40032e-05,-6.60042e-06,5.74294e-06,-1.21282e-05,-1.0322e-05,9.03681e-07,0
-3.3006e-05,2.51102e-05,2.7663e-05,-8.39939e-06,5.50964e-06,-1.15911e-05,3.17724e-06,2.70873e-06,0
-3.18287e-05,2.57083e-05,1.05852e-05,-8.51895e-06,4.79557e-06,-9.83544e-06,1.36862e-05,4.22781e-06,0
-3.09875e-05,2.71331e-05,-1.34381e-05,-6.73158e-06,5.31028e-06,-7.23606e-06,1.88722e-05,4.52311e-06,0
-3.02635e-05,2.72783e-05,-3.581e-05,-4.90142e-06,6.70831e-06,-6.06456e-06,2.07257e-05,2.50274e-06,0
-2.9653e-05,2.36686e-05,-5.03759e-05,-3.47993e-06,8.2285e-06,-5.67234e-06,2.35336e-05,-6.36507e-07,0
-2.88984e-05,1.87854e-05,-5.45644e-05,-1.99624e-06,9.59669e-06,-3.99382e-06,2.82829e-05,-2.51456e-06,0
-2.87295e-05,1.76918e-05,-4.99282e-05,-1.5246e-06,9.85893e-06,-3.66699e-06,3.22768e-05,-3.42643e-06,0
-2.91876e-05,1.92797e-05,-4.25949e-05,-1.29814e-06,9.64387e-06,-5.90667e-06,3.22021e-05,-4.40543e-06,0
-2.98148e-05,2.17076e-05,-3.47612e-05,-6.29243e-07,7.88094e-06,-6.5997e-06,3.00054e-05,-4.78386e-06,0
-2.97926e-05,2.65859e-05,-2.78872e-05,-2.70719e-07,7.55509e-06,-5.3884e-06,3.01838e-05,-5.20216e-06,0
-2.93784e-05,3.32454e-05,-2.27182e-05,-5.13216e-07,1.02659e-05,-5.47885e-06,3.25111e-05,-5.86888e-06,0
-2.9382e-05,4.20915e-05,-1.78044e-05,-2.4336e-07,1.12297e-05,-6.34982e-06,3.40057e-05,-6.27112e-06,0
-2.83952e-05,5.28243e-05,-1.46883e-05,-2.46813e-07,9.9977e-06,-6.37813e-06,3.31923e-05,-6.27908e-06,0
-2.67221e-05,6.00366e-05,-1.3526e-05,1.88225e-07,8.12353e-06,-4.95879e-06,3.22089e-05,-6.19773e-06,0
-2.60761e-05,6.17519e-05,-1.23021e-05,1.1939e-06,8.00225e-06,-3.97904e-06,3.13927e-05,-5.9769e-06,0
-2.64566e-05,5.54847e-05,-1.12165e-05,-1.34958e-06,8.09663e-06,-4.10887e-06,3.19211e-05,-6.61614e-06,0
-2.69274e-05,4.36426e-05,-1.04795e-05,-6.88191e-06,5.97724e-06,-4.69145e-06,3.54752e-05,-6.71874e-06,0
-2.77866e-05,3.58567e-05,-1.06026e-05,-9.99983e-06,3.4973e-06,-5.39146e-06,3.83931e-05,-5.7156e-06,0
-2.91649e-05,3.59599e-05,-1.16882e-05,-1.02491e-05,2.40006e-06,-5.5057e-06,3.92748e-05,-3.46164e-06,0
-2.94501e-05,4.14431e-05,-1.28681e-05,-1.15759e-05,1.3106e-06,-6.08563e-06,3.74068e-05,-1.29424e-06,0
-2.91911e-05,4.95282e-05,-1.28795e-05,-1.57796e-05,6.3399e-07,-7.35403e-06,3.01917e-05,-7.43685e-07,0
-2.94473e-05,5.12721e-05,-1.19222e-05,-2.30481e-05,1.47225e-06,-9.38903e-06,1.42489e-05,3.14031e-07,0
-3.09013e-05,3.74315e-05,-1.21661e-05,-3.17223e-05,3.01636e-06,-1.15012e-05,-1.28501e-05,7.03942e-07,0
-3.33948e-05,5.43669e-06,-1.35549e-05,-3.991e-05,4.70779e-06,-1.42303e-05,-4.05413e-05,1.51554e-07,0
-3.45902e-05,-3.08481e-05,-1.39136e-05,-4.65566e-05,5.52298e-06,-1.82023e-05,-5.02736e-05,6.32139e-07,0
-3.44488e-05,-4.41664e-05,-1.18439e-05,-5.04985e-05,6.32829e-06,-2.07992e-05,-3.54285e-05,2.02829e-06,0
-3.43262e-05,-2.13445e-05,-9.45362e-06,-4.63007e-05,1.01972e-05,-1.93036e-05,-8.45295e-06,2.47038e-06,0
-3.38672e-05,2.68574e-05,-8.25674e-06,-2.94557e-05,1.8413e-05,-1.48536e-05,1.46979e-05,2.03593e-06,0
-3.20049e-05,7.30059e-05,-6.60742e-06,-6.50175e-06,2.74829e-05,-1.08484e-05,2.73156e-05,1.26124e-06,0
-2.89217e-05,9.21318e-05,-3.11747e-06,1.32666e-05,3.25382e-05,-9.64845e-06,3.09832e-05,1.10182e-06,0
-2.63528e-05,7.53829e-05,8.50611e-07,3.13673e-05,3.34182e-05,-1.08226e-05,3.06286e-05,1.14517e-06,0
-2.63202e-05,3.34765e-05,2.46919e-06,4.90745e-05,3.22065e-05,-1.24063e-05,2.88695e-05,6.00775e-07,0
-2.70495e-05,-1.12119e-05,3.04217e-06,5.8264e-05,3.15673e-05,-1.22615e-05,2.5367e-05,3.07586e-07,0
-2.70791e-05,-4.56894e-05,5.10815e-06,5.34327e-05,3.13399e-05,-1.11317e-05,1.81448e-05,9.12489e-07,0
-2.78453e-05,-7.1383e-05,6.73314e-06,3.83462e-05,2.93886e-05,-1.12397e-05,7.98592e-06,3.01222e-06,0
-2.92183e-05,-8.10456e-05,5.51131e-06,2.2545e-05,2.66737e-05,-1.19959e-05,-2.51834e-07,4.22649e-06,0
-3.12754e-05,-7.83012e-05,4.54772e-06,1.10015e-05,2.67826e-05,-1.22937e-05,-7.64407e-07,5.26675e-06,0
-3.24389e-05,-7.65286e-05,5.21105e-06,3.39593e-06,2.94841e-05,-1.1958e-05,7.6725e-06,5.49147e-06,0
-3.25852e-05,-7.64338e-05,3.92045e-06,-8.79631e-06,2.9685e-05,-1.27816e-05,1.7236e-05,4.23214e-06,0
-3.28181e-05,-7.23579e-05,-4.42027e-07,-2.33233e-05,2.73622e-05,-1.38629e-05,2.10082e-05,3.50195e-06,0
-3.1968e-05,-6.09927e-05,-5.00467e-06,-2.50381e-05,2.27452e-05,-1.42465e-05,1.75505e-05,2.12859e-06,0
-3.12225e-05,-4.83228e-05,-5.97032e-06,-1.62221e-05,1.57115e-05,-1.59568e-05,1.03189e-05,1.24664e-06,0
-3.06186e-05,-3.54865e-05,-4.62068e-06,-8.19892e-06,7.6245e-06,-1.78144e-05,6.25157e-06,1.08667e-06,0
-2.91168e-05,-2.31794e-05,-3.66203e-06,-5.82771e-06,1.18203e-06,-1.84132e-05,5.85824e-06,1.1963e-06,0
-2.72278e-05,-1.52186e-05,-4.40048e-06,-6.30806e-06,-1.12107e-06,-1.87516e-05,5.48503e-06,1.7476e-06,0
-2.60304e-05,-1.27532e-05,-5.74806e-06,-9.48319e-06,-1.51375e-06,-1.94456e-05,4.33271e-06,2.04067e-06,0
-2.63704e-05,-1.47956e-05,-5.32879e-06,-1.41431e-05,-3.0703e-06,-1.95637e-05,3.17765e-06,1.64297e-06,0
-2.75364e-05,-1.9093e-05,-3.37905e-06,-1.73193e-05,-5.31567e-06,-1.86282e-05,1.51024e-06,1.67506e-06,0
-2.74219e-05,-2.26709e-05,-2.16086e-06,-1.9048e-05,-5.87956e-06,-1.78131e-05,5.0285e-07,1.3303e-06,0
-2.5904e-05,-2.44487e-05,-2.48575e-06,-1.87359e-05,-3.86287e-06,-1.67677e-05,1.56881e-06,1.51302e-07,0
-2.53981e-05,-2.44252e-05,-2.69477e-06,-1.6253e-05,6.9889e-07,-1.45885e-05,3.84165e-06,6.55936e-08,0
-2.69719e-05,-2.03819e-05,-3.09708e-06,-1.27366e-05,4.93082e-06,-1.28406e-05,5.85076e-06,1.36987e-06,0
-2.90604e-05,-1.23248e-05,-5.11304e-06,-9.90771e-06,6.38788e-06,-1.26821e-05,6.82844e-06,2.0806e-06,0
-3.04051e-05,-2.84647e-06,-8.10711e-06,-7.43404e-06,6.06194e-06,-1.30734e-05,5.91031e-06,4.19833e-07,0
-3.10983e-05,3.98618e-06,-9.54912e-06,-4.55305e-06,6.61684e-06,-1.33089e-05,4.644e-06,-1.8408e-06,0
-3.11647e-05,7.47289e-06,-9.39059e-06,-9.21196e-07,8.76759e-06,-1.31797e-05,6.91189e-06,-3.41292e-06,0
-3.06903e-05,1.19653e-05,-9.68839e-06,8.95353e-07,1.09108e-05,-1.34918e-05,1.2878e-05,-4.54826e-06,0
-2.91225e-05,1.89919e-05,-1.10936e-05,-1.15748e-08,1.06123e-05,-1.46622e-05,1.8554e-05,-6.34405e-06,0
-2.81372e-05,2.33526e-05,-1.40183e-05,-1.77366e-06,8.46408e-06,-1.51718e-05,2.02942e-05,-7.46352e-06,0
-2.96589e-05,2.21762e-05,-1.86951e-05,-2.89865e-06,6.76215e-06,-1.39243e-05,1.81414e-05,-6.4881e-06,0
-3.22198e-05,1.9279e-05,-2.3082e-05,-3.66036e-06,5.33196e-06,-1.30148e-05,1.46874e-05,-5.42405e-06,0
-3.27464e-05,1.95054e-05,-2.46676e-05,-2.67318e-06,4.79213e-06,-1.20272e-05,1.25105e-05,-4.92561e-06,0
-3.12291e-05,2.22768e-05,-2.31972e-05,-7.51706e-07,4.92375e-06,-1.10851e-05,1.02665e-05,-3.63519e-06,0
-2.92685e-05,2.36249e-05,-1.96814e-05,-1.29021e-06,2.77801e-06,-1.28687e-05,4.59579e-08,-3.29215e-06,0
-2.83266e-05,2.47517e-05,-1.4756e-05,-2.08042e-06,1.47556e-06,-1.28871e-05,-1.88929e-05,-4.59958e-06,0
-2.86733e-05,2.6434e-05,-1.0707e-05,-1.06181e-06,3.50929e-06,-1.09694e-05,-3.03716e-05,-5.90701e-06,0
-2.84614e-05,2.82274e-05,-8.28407e-06,-7.4109e-07,6.1732e-06,-9.72646e-06,-2.39183e-05,-5.10203e-06,0
-2.78586e-05,3.04919e-05,-6.75264e-06,-2.78439e-06,8.27984e-06,-9.04878e-06,-6.52849e-06,-2.77114e-06,0
-2.78873e-05,3.22733e-05,-5.86287e-06,-3.49934e-06,1.05516e-05,-8.90274e-06,1.12915e-05,-8.57581e-07,0
-2.89317e-05,3.32154e-05,-3.887e-06,-2.37253e-06,1.2803e-05,-8.86324e-06,2.56131e-05,-5.67398e-07,0
-2.91331e-05,3.50257e-05,-2.45927e-06,-1.93508e-06,1.22984e-05,-9.75534e-06,3.54872e-05,-2.56993e-06,0
-2.83061e-05,3.75955e-05,-4.94318e-06,-3.63454e-07,1.10323e-05,-9.87853e-06,4.11135e-05,-4.37029e-06,0
-2.77816e-05,3.77024e-05,-7.57911e-06,1.21054e-06,1.02698e-05,-9.25899e-06,4.40686e-05,-5.42479e-06,0
-2.72317e-05,3.56688e-05,-6.28675e-06,8.82891e-07,1.07697e-05,-7.50827e-06,4.40508e-05,-6.07263e-06,0
-2.70392e-05,3.38979e-05,-1.49014e-06,-1.66409e-07,1.06267e-05,-5.01425e-06,4.025e-05,-5.23071e-06,0
-2.71649e-05,3.34042e-05,4.16324e-06,-1.04687e-06,9.16709e-06,-4.33736e-06,3.62386e-05,-3.49055e-06,0
-2.77201e-05,3.28374e-05,7.63845e-06,-2.01303e-06,9.01157e-06,-4.63459e-06,3.68087e-05,-2.63303e-06,0
-2.87781e-05,3.13463e-05,9.513e-06,-2.27101e-06,1.15743e-05,-2.61454e-06,4.1142e-05,-2.24e-06,0
-2.98625e-05,2.97657e-05,1.36135e-05,-1.53731e-06,1.60061e-05,4.46091e-07,4.65969e-05,-1.87578e-06,0
-3.00542e-05,2.92191e-05,2.26012e-05,-1.66202e-06,1.9079e-05,-2.39478e-07,5.22495e-05,-2.37812e-06,0
-2.94211e-05,3.02218e-05,3.48629e-05,-3.68252e-06,2.08277e-05,-4.11208e-06,5.72994e-05,-3.51286e-06,0
-2.86632e-05,3.09567e-05,4.70397e-05,-6.59643e-06,2.18714e-05,-6.99348e-06,5.94899e-05,-3.00526e-06,0
-2.83871e-05,3.015e-05,5.5171e-05,-8.72854e-06,2.1357e-05,-6.99363e-06,5.69743e-05,-5.24827e-07,0
-2.89274e-05,2.89711e-05,5.68024e-05,-1.09854e-05,1.83343e-05,-5.11856e-06,5.15233e-05,1.61523e-06,0
-3.01936e-05,2.84613e-05,4.88356e-05,-1.40441e-05,1.47028e-05,-4.04489e-06,4.41623e-05,1.85087e-06,0
-3.03555e-05,2.79455e-05,2.76425e-05,-1.5404e-05,1.14311e-05,-4.72294e-06,3.35402e-05,1.49438e-06,0
-2.92912e-05,2.74446e-05,-5.66905e-06,-1.3507e-05,9.19387e-06,-3.54486e-06,1.93655e-05,1.64558e-06,0
-2.97996e-05,2.87734e-05,-4.19181e-05,-1.16416e-05,7.83629e-06,-3.88399e-07,2.9614e-06,2.41499e-06,0
-3.15719e-05,3.22686e-05,-6.97606e-05,-1.2273e-05,6.54267e-06,1.68468e-06,-1.31249e-05,3.23763e-06,0
-3.28854e-05,3.56283e-05,-8.51138e-05,-1.61034e-05,6.39756e-06,1.38109e-06,-2.82718e-05,5.38174e-06,0
-3.25041e-05,3.71097e-05,-8.77237e-05,-2.2231e-05,7.20712e-06,-4.92674e-07,-3.98988e-05,7.90671e-06,0
-3.13815e-05,3.4981e-05,-7.66358e-05,-2.6762e-05,7.23264e-06,-1.47569e-06,-4.79473e-05,7.35761e-06,0
-3.16432e-05,3.35398e-05,-5.81756e-05,-2.67207e-05,6.69249e-06,-2.01354e-06,-5.40035e-05,6.86761e-06,0
-3.2643e-05,4.03803e-05,-4.18417e-05,-2.54124e-05,5.02689e-06,-3.24011e-06,-5.40704e-05,7.65391e-06,0
-3.22511e-05,5.01033e-05,-3.31532e-05,-2.45643e-05,2.71906e-06,-4.65452e-06,-4.44944e-05,8.5421e-06,0
-3.22188e-05,5.29396e-05,-3.20583e-05,-2.34896e-05,2.32221e-06,-4.89737e-06,-3.01807e-05,9.20788e-06,0
-3.3012e-05,4.7592e-05,-3.64657e-05,-2.19563e-05,2.81888e-06,-5.45543e-06,-1.69305e-05,9.955e-06,0
-3.31227e-05,3.7881e-05,-4.26117e-05,-1.7859e-05,1.60101e-06,-7.12486e-06,-5.26511e-06,1.18078e-05,0
-3.26838e-05,3.02012e-05,-4.46365e-05,-1.12075e-05,1.98667e-06,-7.90298e-06,4.02792e-06,1.36356e-05,0
-3.22647e-05,2.58007e-05,-4.04012e-05,-4.93191e-06,5.49341e-06,-8.36895e-06,1.12407e-05,1.29032e-05,0
-3.26848e-05,2.0804e-05,-3.20512e-05,8.04329e-07,8.94054e-06,-9.48442e-06,1.75254e-05,1.01167e-05,0
-3.3711e-05,1.52007e-05,-2.43972e-05,6.57825e-06,1.26831e-05,-1.09636e-05,2.40876e-05,7.97789e-06,0
-3.45066e-05,1.12134e-05,-1.76739e-05,1.00327e-05,1.63532e-05,-1.09123e-05,2.70561e-05,7.52726e-06,0
-3.42053e-05,7.73357e-06,-1.06052e-05,1.23157e-05,1.82358e-05,-9.59302e-06,2.44168e-05,7.09682e-06,0
-3.31036e-05,5.83742e-06,-3.64208e-06,1.51838e-05,1.77961e-05,-7.66551e-06,2.03362e-05,5.55605e-06,0
-3.07451e-05,1.07116e-05,1.6082e-06,1.72608e-05,1.75496e-05,-7.07424e-06,1.83873e-05,3.23585e-06,0
-2.77599e-05,2.0608e-05,3.93889e-06,1.6421e-05,1.84253e-05,-8.31137e-06,1.74897e-05,3.84587e-07,0
-2.61462e-05,2.67715e-05,4.30947e-06,1.46654e-05,2.01294e-05,-9.58479e-06,1.54813e-05,2.04994e-08,0
-2.59238e-05,2.62412e-05,5.0921e-06,1.49001e-05,2.19479e-05,-9.50536e-06,1.20838e-05,2.11053e-06,0
-2.55473e-05,2.37805e-05,6.82232e-06,1.66473e-05,2.23509e-05,-8.13211e-06,8.45937e-06,2.36215e-06,0
-2.49364e-05,2.04936e-05,7.70608e-06,1.67798e-05,2.07883e-05,-7.70357e-06,6.6176e-06,-5.36923e-07,0
-2.46828e-05,1.57066e-05,7.28302e-06,1.30134e-05,1.80765e-05,-8.26593e-06,5.22735e-06,-3.74043e-06,0
-2.54317e-05,1.14788e-05,5.85076e-06,6.83774e-06,1.58933e-05,-8.73959e-06,2.2242e-06,-5.50634e-06,0
-2.69814e-05,1.02386e-05,3.49202e-06,8.53624e-07,1.4876e-05,-7.68954e-06,-4.64605e-06,-5.05975e-06,0
-2.9658e-05,1.2998e-05,8.54839e-07,-5.16139e-06,1.39746e-05,-5.45717e-06,-1.26812e-05,-3.91594e-06,0
-3.29141e-05,1.61917e-05,-3.31967e-07,-1.01046e-05,1.20234e-05,-4.95197e-06,-1.3271e-05,-3.98413e-06,0
-3.40855e-05,1.54664e-05,6.96692e-07,-1.13909e-05,1.15334e-05,-6.74018e-06,-6.39662e-06,-2.28094e-06,0
-3.44732e-05,1.33151e-05,2.32796e-06,-6.62703e-06,1.41019e-05,-6.72561e-06,3.43929e-07,2.05354e-06,0
-3.46602e-05,1.29479e-05,2.66355e-06,-1.40942e-06,1.65534e-05,-7.05853e-06,4.13867e-06,3.55393e-06,0
-3.33728e-05,1.11501e-05,1.14428e-06,-1.78026e-06,2.00436e-05,-8.75464e-06,8.00126e-06,1.52384e-06,0
-3.15929e-05,4.45092e-06,2.21677e-07,-4.81695e-06,2.41027e-05,-8.90302e-06,1.30624e-05,8.09056e-07,0
-3.03085e-05,-3.50287e-06,-3.76628e-07,-6.01178e-06,2.56615e-05,-7.72281e-06,1.51786e-05,1.83191e-06,0
-3.0338e-05,-4.78069e-06,-1.79311e-06,-5.02741e-06,2.62139e-05,-5.50258e-06,1.32878e-05,2.0437e-06,0
-3.06255e-05,-9.3216e-07,-3.70211e-06,-8.55171e-06,2.63476e-05,-4.35724e-06,1.10768e-05,1.96432e-06,0
-2.95774e-05,1.13018e-06,-4.9889e-06,-1.50824e-05,2.63763e-05,-5.02738e-06,1.09792e-05,3.08849e-06,0
-2.85092e-05,-5.24999e-07,-4.27158e-06,-1.93454e-05,2.69899e-05,-6.94862e-06,1.18664e-05,3.63287e-06,0
-2.77402e-05,-2.70407e-06,-3.7815e-06,-2.013e-05,2.90842e-05,-8.68834e-06,1.22675e-05,2.86686e-06,0
-2.78458e-05,-3.22435e-06,-4.28089e-06,-2.01191e-05,3.00543e-05,-1.00848e-05,1.18992e-05,1.61915e-06,0
-2.90628e-05,-3.96665e-06,-5.71522e-06,-2.0756e-05,2.80837e-05,-1.27412e-05,1.17324e-05,1.09904e-06,0
-3.03731e-05,-5.65434e-06,-5.78238e-06,-2.13443e-05,2.35614e-05,-1.49139e-05,1.20835e-05,1.08292e-06,0
-3.1943e-05,-6.06833e-06,-3.4511e-06,-2.23972e-05,2.03671e-05,-1.41383e-05,1.25243e-05,1.9484e-06,0
-3.25407e-05,-2.02901e-06,-2.07901e-06,-2.47867e-05,2.10386e-05,-1.23582e-05,1.41112e-05,3.33818e-06,0
-3.16158e-05,3.8041e-06,-5.02829e-06,-2.85481e-05,2.30614e-05,-1.24529e-05,1.69622e-05,2.81373e-06,0
-3.08444e-05,6.5899e-06,-1.05678e-05,-3.12166e-05,2.40863e-05,-1.41047e-05,1.92539e-05,9.61752e-07,0
-3.10193e-05,5.79485e-06,-1.39339e-05,-3.03789e-05,2.36259e-05,-1.55408e-05,2.03678e-05,4.74804e-07,0
-3.08079e-05,6.59641e-06,-1.34933e-05,-2.50025e-05,2.16763e-05,-1.54849e-05,2.19267e-05,9.5646e-07,0
-2.94465e-05,1.20545e-05,-1.16518e-05,-1.86115e-05,1.87448e-05,-1.4699e-05,2.35044e-05,1.39994e-06,0
-2.70577e-05,1.89158e-05,-1.05744e-05,-1.37028e-05,1.75455e-05,-1.38385e-05,2.19681e-05,1.81374e-06,0
-2.50837e-05,2.39795e-05,-9.909e-06,-8.41577e-06,1.74062e-05,-1.30166e-05,1.64963e-05,2.52783e-06,0
-2.51516e-05,2.68413e-05,-8.26352e-06,-1.25728e-06,1.61708e-05,-1.26311e-05,1.05243e-05,3.70092e-06,0
-2.65382e-05,2.85784e-05,-5.36906e-06,2.11291e-06,1.56766e-05,-1.23531e-05,7.9631e-06,4.4531e-06,0
-2.8911e-05,2.86929e-05,-4.57496e-06,-1.42356e-06,1.64106e-05,-1.09818e-05,1.07615e-05,4.86116e-06,0
-3.19061e-05,2.76381e-05,-6.06734e-06,-7.30372e-06,1.53727e-05,-8.94312e-06,1.71626e-05,2.94049e-06,0
-3.39715e-05,2.75827e-05,-6.62537e-06,-1.19259e-05,1.28106e-05,-8.10822e-06,2.12746e-05,1.43121e-06,0
-3.36098e-05,2.97015e-05,-6.34606e-06,-1.19725e-05,7.87727e-06,-7.19943e-06,2.2313e-05,3.49056e-06,0
-3.15249e-05,3.38718e-05,-8.37688e-06,-8.63769e-06,2.86325e-06,-6.00436e-06,2.23663e-05,5.20704e-06,0
-2.92813e-05,3.63729e-05,-1.13719e-05,-4.72009e-06,-5.39599e-07,-5.5629e-06,2.16286e-05,3.76691e-06,0
-2.68901e-05,3.41448e-05,-1.35484e-05,-9.31759e-08,-1.67406e-06,-5.78425e-06,2.31555e-05,8.47839e-07,0
-2.6661e-05,3.22035e-05,-1.43967e-05,1.66289e-06,-1.22706e-06,-7.31035e-06,2.44483e-05,-4.88356e-07,0
-2.85507e-05,3.16925e-05,-1.25866e-05,-1.10862e-06,-6.7697e-07,-9.50291e-06,2.14163e-05,3.53191e-07,0
-2.9703e-05,2.88244e-05,-1.07396e-05,-5.26155e-06,2.35781e-06,-1.02393e-05,1.68899e-05,7.20896e-07,0
-3.02968e-05,2.31801e-05,-9.09705e-06,-5.95581e-06,6.08855e-06,-8.27474e-06,1.49207e-05,-3.88116e-07,0
-3.04636e-05,1.72979e-05,-5.69784e-06,-3.66061e-06,8.65236e-06,-5.7337e-06,1.41342e-05,-9.70453e-07,0
-2.99244e-05,1.44865e-05,-1.25753e-06,-1.32363e-06,9.21545e-06,-5.51233e-06,1.34297e-05,1.18874e-07,0
-2.90669e-05,1.32428e-05,3.91873e-06,1.65283e-06,9.14955e-06,-5.89543e-06,1.27804e-05,1.90603e-06,0
-2.93743e-05,1.18232e-05,1.23263e-05,4.81437e-06,9.14665e-06,-5.28621e-06,1.13827e-05,3.3551e-06,0
-2.94269e-05,1.04064e-05,2.60776e-05,6.8126e-06,8.91956e-06,-5.3904e-06,1.12131e-05,4.32499e-06,0
-2.87183e-05,7.99639e-06,4.37776e-05,7.16433e-06,8.57607e-06,-7.19081e-06,1.21e-05,3.86121e-06,0
-3.03272e-05,3.82469e-06,5.89233e-05,7.85959e-06,8.14348e-06,-8.74533e-06,1.25101e-05,1.38199e-06,0
-3.53664e-05,-4.44916e-07,6.42335e-05,9.01099e-06,7.24009e-06,-9.11846e-06,1.29869e-05,-8.4227e-07,0
-4.01444e-05,-2.25864e-06,5.54364e-05,9.20958e-06,6.42209e-06,-8.95596e-06,1.4413e-05,-1.26605e-06,0
-4.04662e-05,-1.81509e-06,3.12404e-05,6.69882e-06,5.8388e-06,-8.22625e-06,1.635e-05,-4.91013e-07,0
-3.76313e-05,-2.08107e-07,-2.89884e-06,2.45712e-06,4.73588e-06,-7.78116e-06,1.83063e-05,6.07947e-07,0
-3.47657e-05,2.22281e-06,-3.38294e-05,-2.53995e-06,4.331e-06,-7.61908e-06,1.87215e-05,5.47234e-07,0
-3.3659e-05,4.25932e-06,-4.99183e-05,-9.33168e-06,4.74725e-06,-6.70951e-06,1.44691e-05,-1.30224e-06,0
-3.32571e-05,3.60962e-06,-4.94274e-05,-1.67288e-05,5.0831e-06,-5.42911e-06,3.81839e-06,-3.91707e-06,0
-3.22007e-05,1.27742e-06,-3.80937e-05,-2.35774e-05,4.75528e-06,-4.78449e-06,-6.77392e-06,-4.87893e-06,0
-3.05252e-05,-1.05224e-06,-2.67893e-05,-2.51473e-05,5.60155e-06,-5.08265e-06,-1.02706e-05,-3.81368e-06,0
-2.91473e-05,-4.13589e-06,-2.85051e-05,-1.5583e-05,7.5732e-06,-7.10296e-06,-5.91403e-06,-1.20116e-06,0
-2.93894e-05,-6.46522e-06,-4.50498e-05,1.22726e-06,9.22391e-06,-8.87261e-06,2.95132e-06,1.52463e-06,0
-3.12983e-05,-3.34496e-06,-6.28436e-05,1.72402e-05,1.11721e-05,-9.06494e-06,1.17288e-05,2.39935e-06,0
-3.3539e-05,9.35059e-06,-7.22819e-05,2.80994e-05,1.25674e-05,-9.88245e-06,2.01131e-05,1.62821e-06,0
-3.24514e-05,3.0144e-05,-6.98496e-05,3.18564e-05,1.10267e-05,-1.10115e-05,2.66847e-05,1.67775e-06,0
-3.01201e-05,5.19178e-05,-5.87218e-05,2.91613e-05,7.88214e-06,-1.1983e-05,3.0581e-05,2.34898e-06,0
-3.10831e-05,6.84114e-05,-4.62382e-05,2.04463e-05,6.12254e-06,-1.18947e-05,3.24226e-05,1.58661e-06,0
-3.16103e-05,8.35333e-05,-3.4421e-05,8.03302e-06,8.17138e-06,-9.43107e-06,3.29972e-05,2.30406e-06,0
-3.11464e-05,9.43841e-05,-2.63172e-05,-8.95449e-07,1.27052e-05,-6.56947e-06,3.27647e-05,5.96701e-06,0
-3.04365e-05,8.53629e-05,-2.11494e-05,-6.40924e-06,1.59778e-05,-4.72283e-06,3.16209e-05,8.48911e-06,0
-2.89347e-05,5.63513e-05,-1.56862e-05,-1.33685e-05,1.84835e-05,-4.56472e-06,3.06026e-05,8.85519e-06,0
-2.80554e-05,1.55829e-05,-9.95629e-06,-1.94375e-05,1.97506e-05,-3.86427e-06,3.00478e-05,8.54313e-06,0
-2.85804e-05,-3.03e-05,-4.84331e-06,-1.98117e-05,1.84938e-05,-2.26369e-06,3.08302e-05,7.07404e-06,0
-3.03871e-05,-7.3237e-05,-1.25e-06,-1.46179e-05,1.5491e-05,-1.53771e-06,3.09564e-05,4.97377e-06,0
-3.14716e-05,-0.000106216,6.83907e-07,-9.56261e-06,1.35765e-05,-1.22459e-06,2.92381e-05,4.07125e-06,0
-3.14831e-05,-0.000119154,4.09119e-07,-7.89016e-06,1.32048e-05,-1.81256e-06,2.72301e-05,5.15149e-06,0
-3.15238e-05,-0.000106669,-1.28134e-06,-8.03267e-06,1.27881e-05,-3.48367e-06,2.69637e-05,5.59971e-06,0
-3.18579e-05,-7.24487e-05,-3.44594e-06,-7.95308e-06,1.23832e-05,-5.58624e-06,2.6515e-05,4.4673e-06,0
-3.19255e-05,-2.62228e-05,-6.24724e-06,-6.97158e-06,1.28386e-05,-8.00956e-06,2.49078e-05,3.78749e-06,0
-3.18032e-05,1.83141e-05,-8.598e-06,-5.35713e-06,1.45013e-05,-1.12495e-05,2.43496e-05,4.43024e-06,0
-3.21152e-05,4.97124e-05,-9.15676e-06,-4.34919e-06,1.48602e-05,-1.34081e-05,2.38652e-05,4.57776e-06,0
-3.2521e-05,6.2636e-05,-7.58303e-06,-4.46791e-06,1.20556e-05,-1.38427e-05,2.16212e-05,3.4358e-06,0
-3.12809e-05,5.65299e-05,-4.69612e-06,-4.30063e-06,9.17448e-06,-1.32963e-05,1.67647e-05,2.74842e-06,0
-2.8144e-05,3.751e-05,-1.29379e-06,-3.31128e-06,9.83745e-06,-1.21001e-05,1.11694e-05,2.5282e-06,0
-2.56422e-05,1.16144e-05,2.88217e-07,-3.15623e-06,1.11442e-05,-1.09672e-05,6.72553e-06,1.8159e-06,0
-2.60358e-05,-1.71317e-05,-1.42987e-06,-5.03022e-06,9.37021e-06,-1.03979e-05,4.92936e-06,-7.56379e-07,0
-2.88556e-05,-4.21354e-05,-3.59269e-06,-9.15592e-06,6.10055e-06,-1.08232e-05,5.96674e-06,-4.39048e-06,0
-3.21413e-05,-5.68881e-05,-4.76763e-06,-1.31769e-05,2.83669e-06,-1.13603e-05,8.03011e-06,-6.23952e-06,0
-3.26866e-05,-5.99434e-05,-6.4113e-06,-1.49296e-05,4.06036e-07,-1.17793e-05,7.70687e-06,-5.93919e-06,0
-3.14206e-05,-5.88542e-05,-7.54985e-06,-1.56924e-05,4.20546e-07,-1.20223e-05,2.674e-06,-4.63682e-06,0
-3.01292e-05,-5.68917e-05,-6.87314e-06,-1.59816e-05,2.76352e-06,-1.21141e-05,-3.8755e-06,-3.48433e-06,0
-2.87565e-05,-5.41906e-05,-5.00709e-06,-1.3024e-05,6.68208e-06,-1.26183e-05,-1.27918e-05,-3.7869e-06,0
-2.85695e-05,-5.03149e-05,-5.66464e-06,-9.87073e-06,1.11802e-05,-1.25635e-05,-3.31374e-05,-5.45538e-06,0
-2.79165e-05,-4.39192e-05,-8.72133e-06,-1.06541e-05,1.52413e-05,-1.13829e-05,-5.48623e-05,-5.79516e-06,0
-2.66732e-05,-3.55335e-05,-1.02485e-05,-1.28567e-05,1.7497e-05,-1.1193e-05,-5.62652e-05,-4.11546e-06,0
-2.67407e-05,-2.41088e-05,-1.0411e-05,-1.64615e-05,1.80266e-05,-1.24471e-05,-3.33937e-05,-8.15627e-07,0
-2.71223e-05,-1.10384e-05,-9.31928e-06,-1.80417e-05,1.74928e-05,-1.29623e-05,-1.16305e-06,2.04887e-06,0
-2.594e-05,-9.35277e-07,-8.23564e-06,-1.31601e-05,1.6248e-05,-1.43445e-05,2.33437e-05,2.57687e-06,0
-2.62519e-05,5.01678e-06,-9.31811e-06,-3.91484e-06,1.49622e-05,-1.57745e-05,3.73358e-05,2.51662e-06,0
-2.83408e-05,9.0447e-06,-1.1992e-05,2.86867e-06,1.41412e-05,-1.59131e-05,4.38173e-05,2.51559e-06,0
-2.97818e-05,1.12471e-05,-1.23277e-05,2.18e-06,1.33184e-05,-1.53476e-05,4.56735e-05,1.83365e-06,0
-3.02716e-05,1.34455e-05,-9.74592e-06,-3.82747e-06,1.25798e-05,-1.49177e-05,4.54983e-05,1.78425e-06,0
-2.92394e-05,1.59657e-05,-6.22179e-06,-1.06164e-05,1.12081e-05,-1.51074e-05,4.40786e-05,3.01976e-06,0
-2.741e-05,1.90334e-05,-3.54591e-06,-1.48823e-05,9.80836e-06,-1.61806e-05,4.01177e-05,2.78299e-06,0
-2.54911e-05,2.30666e-05,-2.85e-06,-1.3748e-05,1.03535e-05,-1.69172e-05,3.21484e-05,1.6272e-06,0
-2.45809e-05,2.81689e-05,-3.58871e-06,-8.8658e-06,1.25199e-05,-1.55495e-05,2.12483e-05,1.21885e-06,0
-2.4219e-05,3.25884e-05,-4.84108e-06,-5.19048e-06,1.64703e-05,-1.44622e-05,1.20183e-05,7.89699e-07,0
-2.41737e-05,3.45438e-05,-5.50104e-06,-2.76037e-06,2.13029e-05,-1.44106e-05,1.0198e-05,-7.5745e-07,0
-2.46447e-05,3.49037e-05,-6.2915e-06,2.74428e-06,2.63296e-05,-1.4594e-05,1.62426e-05,-2.12039e-06,0
-2.50376e-05,3.53973e-05,-6.437e-06,1.07966e-05,3.044e-05,-1.47996e-05,2.35186e-05,-2.58255e-06,0
-2.50554e-05,3.74e-05,-5.21195e-06,1.52148e-05,3.2574e-05,-1.44334e-05,2.55966e-05,-2.84123e-06,0
-2.61928e-05,4.0228e-05,-3.12777e-06,1.35416e-05,2.93479e-05,-1.37828e-05,2.08883e-05,-2.61683e-06,0
-2.74973e-05,4.2667e-05,-7.66444e-07,5.66415e-06,2.17441e-05,-1.49801e-05,1.10463e-05,-1.70938e-06,0
-2.79179e-05,4.5079e-05,2.63093e-07,-4.23145e-06,1.59992e-05,-1.59572e-05,3.48414e-07,-1.92515e-06,0
-2.82123e-05,4.94529e-05,1.48871e-07,-1.15101e-05,1.4706e-05,-1.63288e-05,-8.97765e-06,-3.6736e-06,0
-2.89596e-05,5.30431e-05,-7.35506e-07,-1.38427e-05,1.55354e-05,-1.70763e-05,-1.47969e-05,-3.37424e-06,0
-3.11823e-05,5.42342e-05,-2.85326e-06,-8.20878e-06,1.47797e-05,-1.7894e-05,-1.43182e-05,-8.12033e-07,0
-3.21055e-05,5.31104e-05,-2.75436e-06,3.42767e-06,1.28184e-05,-1.91143e-05,-1.03391e-05,5.66518e-07,0
-3.1229e-05,5.32048e-05,5.72907e-07,1.62858e-05,1.24055e-05,-1.97088e-05,-8.36775e-06,-1.9144e-06,0
-3.12036e-05,5.55627e-05,4.04948e-06,2.28883e-05,1.32375e-05,-1.98334e-05,-8.21005e-06,-5.16967e-06,0
-3.15054e-05,5.46543e-05,4.80366e-06,1.90408e-05,1.54221e-05,-1.95643e-05,-6.26332e-06,-4.64693e-06,0
-3.04863e-05,4.96889e-05,4.24328e-06,9.6156e-06,1.96578e-05,-1.6619e-05,-3.06747e-06,-2.23417e-06,0
-3.04908e-05,4.80359e-05,3.67906e-06,1.26969e-06,2.18143e-05,-1.2877e-05,-1.99135e-06,-1.04286e-06,0
-3.14499e-05,5.22217e-05,2.08034e-06,-3.85129e-06,2.20389e-05,-1.14068e-05,-2.11383e-06,-8.29137e-07,0
-3.14131e-05,5.62665e-05,1.45985e-06,-4.22234e-06,2.50306e-05,-1.12525e-05,-1.10935e-06,5.70418e-07,0
-3.12958e-05,5.82466e-05,1.93336e-06,1.57655e-06,3.53042e-05,-9.90506e-06,1.9067e-07,1.94963e-06,0
-3.15884e-05,5.69196e-05,3.46351e-06,7.65368e-06,4.78018e-05,-7.9452e-06,1.74567e-06,1.37816e-06,0
-3.0695e-05,5.098e-05,4.95628e-06,8.01224e-06,5.11354e-05,-7.95499e-06,3.02194e-06,5.17601e-07,0
-2.94079e-05,4.103e-05,4.02821e-06,3.15446e-06,4.45347e-05,-8.45077e-06,3.1743e-06,4.14903e-08,0
-2.95515e-05,3.10773e-05,2.62394e-06,-2.26536e-06,3.62137e-05,-7.37079e-06,1.93546e-06,8.75966e-07,0
-3.01968e-05,2.49771e-05,3.13305e-06,-4.65429e-06,3.12952e-05,-5.42589e-06,5.84124e-06,1.95151e-06,0
-3.02083e-05,2.25991e-05,4.29918e-06,-5.40559e-06,2.90478e-05,-5.02911e-06,1.90036e-05,2.93484e-06,0
-2.86645e-05,2.03173e-05,3.94406e-06,-7.62589e-06,2.74118e-05,-5.59738e-06,3.72779e-05,4.20131e-06,0
-2.71925e-05,1.49294e-05,1.78301e-06,-1.14048e-05,2.52612e-05,-7.30431e-06,5.45743e-05,4.89915e-06,0
-2.688e-05,8.77607e-06,-2.49647e-06,-1.34464e-05,2.30517e-05,-9.86986e-06,6.59499e-05,4.69893e-06,0
-2.81891e-05,6.42723e-06,-8.86758e-06,-1.06246e-05,2.17833e-05,-1.16436e-05,7.03992e-05,3.09333e-06,0
-3.15181e-05,9.34405e-06,-1.36946e-05,-4.09863e-06,2.10222e-05,-1.12431e-05,7.10147e-05,4.1825e-07,0
-3.56534e-05,1.4557e-05,-1.48576e-05,2.19303e-06,1.97737e-05,-9.35261e-06,7.19546e-05,-1.935e-06,0
-3.75045e-05,1.9733e-05,-1.50311e-05,5.28676e-06,1.94138e-05,-6.81091e-06,7.00787e-05,-3.08757e-06,0
-3.63329e-05,2.58735e-05,-1.59095e-05,5.85799e-06,2.00596e-05,-5.09655e-06,6.04572e-05,-2.99514e-06,0
-3.4662e-05,3.56399e-05,-1.66421e-05,5.9528e-06,2.08486e-05,-4.23694e-06,4.3548e-05,-1.23962e-06,0
-3.34411e-05,4.52488e-05,-1.5225e-05,5.34086e-06,2.04233e-05,-1.58176e-06,2.25563e-05,8.53389e-07,0
-3.25883e-05,4.89981e-05,-1.14422e-05,5.36066e-06,1.85378e-05,-2.27852e-08,-1.48942e-06,2.7507e-06,0
-3.23887e-05,4.78349e-05,-8.84805e-06,5.08654e-06,1.6616e-05,-1.61406e-06,-2.18262e-05,3.8309e-06,0
-3.19939e-05,4.29997e-05,-6.03722e-06,2.78079e-06,1.41267e-05,-2.99595e-06,-3.11102e-05,2.92801e-06,0
-3.18058e-05,3.64668e-05,-1.71586e-06,-1.25062e-06,1.1763e-05,-2.90628e-06,-3.50384e-05,2.36062e-06,0
-3.1582e-05,2.96777e-05,2.64552e-06,-4.73584e-06,1.02448e-05,-1.80883e-06,-4.12214e-05,3.5309e-06,0
-3.00542e-05,2.12804e-05,4.00754e-06,-4.45707e-06,1.00001e-05,-5.15672e-07,-4.68697e-05,3.86467e-06,0
-2.89167e-05,9.39341e-06,-6.45375e-07,-2.20824e-06,1.15491e-05,-9.03619e-07,-4.66245e-05,3.60016e-06,0
-2.99027e-05,-7.79146e-06,-7.68678e-06,-6.82913e-07,1.37593e-05,-2.38128e-06,-4.10285e-05,4.63279e-06,0
-3.27464e-05,-2.72891e-05,-1.43039e-05,-2.87215e-06,1.47782e-05,-3.35335e-06,-3.41081e-05,7.15419e-06,0
-3.54575e-05,-3.9219e-05,-1.78958e-05,-7.49312e-06,1.3667e-05,-2.90664e-06,-2.51617e-05,9.47931e-06,0
-3.74694e-05,-3.97232e-05,-1.98651e-05,-1.24108e-05,1.2973e-05,-1.88807e-06,-1.54049e-05,9.89831e-06,0
-3.69386e-05,-3.43231e-05,-2.30355e-05,-1.60707e-05,1.15609e-05,-1.50025e-06,-8.79316e-06,9.14277e-06,0
-3.47858e-05,-2.63917e-05,-2.6952e-05,-1.7404e-05,1.00572e-05,-1.86437e-06,-8.85877e-06,8.30687e-06,0
-3.32881e-05,-1.86781e-05,-3.15484e-05,-1.80363e-05,1.00376e-05,-2.02815e-06,-1.82433e-05,6.15205e-06,0
-3.21412e-05,-1.2183e-05,-3.50592e-05,-1.77505e-05,1.03395e-05,-1.4578e-06,-3.0231e-05,3.59474e-06,0
-3.16846e-05,-8.33409e-06,-3.6049e-05,-1.65314e-05,1.0837e-05,-5.16114e-07,-3.40926e-05,2.40275e-06,0
-3.15991e-05,-8.22787e-06,-3.41723e-05,-1.48791e-05,1.05643e-05,7.4874e-07,-2.50775e-05,2.74915e-06,0
-3.14925e-05,-9.11039e-06,-2.93949e-05,-1.57922e-05,9.25194e-06,1.59154e-06,-8.45586e-06,4.16758e-06,0
-3.10142e-05,-8.29047e-06,-2.31687e-05,-1.72026e-05,7.67305e-06,7.58471e-07,8.98958e-06,4.54538e-06,0
-3.11788e-05,-6.66635e-06,-1.8018e-05,-1.52629e-05,7.29751e-06,-1.35203e-06,2.32063e-05,3.14173e-06,0
-3.19757e-05,-7.87963e-06,-1.44558e-05,-1.02809e-05,7.07645e-06,-3.627e-06,3.43789e-05,1.46422e-06,0
-3.23167e-05,-1.193e-05,-1.14836e-05,-5.08582e-06,5.55095e-06,-6.29548e-06,4.26153e-05,1.40773e-06,0
-3.18054e-05,-1.48073e-05,-9.44125e-06,-2.49207e-06,2.27299e-06,-8.04214e-06,4.5688e-05,1.78284e-06,0
-3.08533e-05,-1.28817e-05,-9.12348e-06,-2.38197e-06,1.64761e-07,-7.14778e-06,4.47937e-05,4.92048e-07,0
-3.09085e-05,-7.65468e-06,-8.71962e-06,-3.42178e-06,1.73847e-07,-6.60024e-06,4.22942e-05,-1.16201e-06,0
-3.15567e-05,-1.54834e-06,-7.05954e-06,-4.89416e-06,9.70569e-07,-7.46557e-06,3.80212e-05,1.47959e-07,0
-3.05968e-05,4.43821e-06,-4.63689e-06,-8.06105e-06,8.71683e-07,-7.40963e-06,3.33229e-05,1.1135e-06,0
-2.90494e-05,8.60273e-06,-1.77167e-06,-1.25703e-05,7.57523e-07,-8.2387e-06,2.53657e-05,-7.17066e-07,0
-2.81364e-05,8.53825e-06,-8.53416e-07,-1.55993e-05,2.24223e-06,-9.85608e-06,1.31031e-05,-2.13061e-06,0
-2.98577e-05,6.60734e-06,-1.53714e-06,-1.41371e-05,2.03104e-06,-1.02176e-05,3.57626e-06,-1.95095e-06,0
-3.36942e-05,7.28235e-06,-1.36299e-06,-8.96084e-06,1.16341e-07,-9.20001e-06,4.11418e-06,-9.72566e-07,0
-3.52619e-05,1.08998e-05,-1.0742e-06,-5.41154e-06,-1.33371e-06,-1.04771e-05,1.49654e-05,3.70314e-07,0
-3.39795e-05,1.78324e-05,-1.34763e-06,-2.66684e-06,-9.92523e-08,-1.44755e-05,2.90505e-05,1.65286e-06,0
-3.06049e-05,2.60465e-05,-1.11432e-06,-4.83309e-07,1.6976e-06,-1.43894e-05,4.3405e-05,1.05943e-06,0
-2.82971e-05,3.14056e-05,-5.65473e-08,-1.04761e-07,6.6024e-07,-1.22766e-05,5.32789e-05,-9.15769e-07,0
-2.73263e-05,3.00074e-05,-5.70903e-07,-2.04599e-06,-2.05086e-06,-1.18406e-05,5.45041e-05,-1.90937e-06,0
-2.73643e-05,2.4128e-05,-2.42333e-06,-7.53806e-06,-4.0698e-06,-1.27422e-05,4.61485e-05,-1.077e-06,0
-2.91387e-05,1.95868e-05,-3.81519e-06,-1.05269e-05,-3.63486e-06,-1.5649e-05,3.30199e-05,1.46373e-07,0
-3.05374e-05,1.55623e-05,-3.85079e-06,-1.02492e-05,-3.25807e-06,-1.90563e-05,2.14949e-05,-5.95854e-07,0
-2.9944e-05,1.11973e-05,-3.65022e-06,-7.97988e-06,-4.85102e-06,-2.10208e-05,1.33481e-05,-1.58184e-06,0
-2.86601e-05,7.37993e-06,-3.99174e-06,-5.43664e-06,-6.65434e-06,-2.19829e-05,9.30367e-06,-4.84164e-07,0
-2.87806e-05,5.34029e-06,-3.68378e-06,-4.31481e-06,-6.50812e-06,-2.18815e-05,1.08322e-05,2.60122e-07,0
-2.94619e-05,5.34803e-06,-3.88771e-06,-2.3924e-06,-4.59771e-06,-2.07314e-05,1.57409e-05,-1.19284e-06,0
-2.96277e-05,8.08207e-06,-6.19855e-06,3.59685e-06,-1.64957e-06,-1.98798e-05,2.01264e-05,-3.35356e-06,0
-2.86661e-05,1.33663e-05,-9.43288e-06,1.13775e-05,5.47856e-07,-1.96101e-05,2.36106e-05,-3.82388e-06,0
-2.78546e-05,1.74414e-05,-1.00716e-05,1.52287e-05,1.16793e-06,-2.02784e-05,2.45895e-05,-2.95241e-06,0
-2.84826e-05,1.59603e-05,-8.68316e-06,1.46641e-05,2.2565e-06,-2.17215e-05,2.22424e-05,-2.10608e-06,0
-3.00119e-05,1.05451e-05,-7.2227e-06,1.15986e-05,4.56097e-06,-2.22756e-05,1.82901e-05,-6.87212e-07,0
-3.1208e-05,6.87798e-06,-5.5917e-06,8.25395e-06,6.56791e-06,-2.0632e-05,1.51336e-05,2.08101e-06,0
-3.17832e-05,6.34772e-06,-2.948e-06,6.10049e-06,6.54333e-06,-1.82802e-05,1.26275e-05,4.28813e-06,0
-3.11663e-05,8.09259e-06,-2.62374e-07,4.71049e-06,5.2993e-06,-1.6093e-05,1.10931e-05,4.78064e-06,0
-2.87062e-05,1.30606e-05,1.63749e-06,1.88172e-06,5.07971e-06,-1.46953e-05,1.04958e-05,4.54036e-06,0
-2.56636e-05,2.09839e-05,3.3284e-06,-3.09789e-06,6.64544e-06,-1.44078e-05,9.51002e-06,4.17005e-06,0
-2.55747e-05,2.50758e-05,5.28446e-06,-8.98281e-06,6.45273e-06,-1.36378e-05,3.34026e-06,4.16145e-06,0
-2.75027e-05,2.29005e-05,8.35735e-06,-1.13018e-05,4.90315e-06,-1.19239e-05,-8.7773e-06,5.00825e-06,0
-2.79973e-05,1.97841e-05,1.43737e-05,-9.26902e-06,4.5382e-06,-1.0565e-05,-1.7504e-05,5.35806e-06,0
-2.9695e-05,1.95171e-05,2.96658e-05,-8.32445e-06,6.44222e-06,-1.09688e-05,-1.62585e-05,3.99052e-06,0
-3.16439e-05,2.28966e-05,4.81932e-05,-1.28228e-05,1.01266e-05,-1.23807e-05,-8.10804e-06,1.64444e-06,0
-3.19812e-05,2.8816e-05,5.16528e-05,-1.80048e-05,1.23243e-05,-1.14097e-05,2.04872e-06,-4.89648e-07,0
-3.13661e-05,3.27125e-05,3.53462e-05,-1.92646e-05,1.50798e-05,-7.86205e-06,1.26913e-05,-9.34999e-07,0
-2.95171e-05,3.39804e-05,4.78221e-06,-1.50707e-05,2.1164e-05,-4.35398e-06,2.29077e-05,-2.06658e-06,0
-2.93886e-05,3.48635e-05,-2.98023e-05,-6.67894e-06,2.76652e-05,-4.39343e-06,2.88228e-05,-3.55808e-06,0
-3.09088e-05,3.39292e-05,-5.80496e-05,3.9754e-07,2.99024e-05,-6.00115e-06,2.99967e-05,-4.70212e-06,0
-3.2011e-05,3.22763e-05,-7.51155e-05,5.17336e-06,2.74188e-05,-6.64492e-06,2.94452e-05,-5.31591e-06,0
-3.25418e-05,3.10534e-05,-7.90611e-05,7.58443e-06,2.53023e-05,-5.89242e-06,2.86759e-05,-3.47591e-06,0
-3.18025e-05,2.84687e-05,-7.15448e-05,9.15444e-06,2.54306e-05,-4.24623e-06,2.90264e-05,-4.61012e-07,0
-3.09358e-05,2.5068e-05,-5.91069e-05,1.09879e-05,2.65242e-05,-4.19636e-06,2.93734e-05,1.42669e-06,0
-3.12101e-05,2.20801e-05,-4.8262e-05,9.65547e-06,2.7979e-05,-4.88184e-06,2.94576e-05,1.23123e-06,0
-3.18815e-05,1.98141e-05,-3.89135e-05,4.04691e-06,2.76771e-05,-5.5914e-06,2.98424e-05,7.09302e-07,0
-3.1985e-05,1.75135e-05,-3.04526e-05,-1.3307e-06,2.53554e-05,-5.78517e-06,2.9863e-05,4.87199e-07,0
-3.28819e-05,1.42466e-05,-2.45218e-05,-4.32571e-06,2.28051e-05,-6.48935e-06,2.81953e-05,-1.20594e-08,0
-3.53773e-05,1.03486e-05,-2.09045e-05,-4.93253e-06,2.15471e-05,-6.86012e-06,2.54499e-05,-1.90517e-06,0
-3.69872e-05,7.43294e-06,-1.6689e-05,-3.68868e-06,2.12635e-05,-6.78072e-06,2.32071e-05,-4.33152e-06,0
-3.53021e-05,5.76219e-06,-1.15785e-05,-1.90729e-06,2.04944e-05,-6.76458e-06,2.17913e-05,-5.32113e-06,0
-3.12736e-05,4.01969e-06,-5.99315e-06,-4.72566e-07,1.86465e-05,-7.97504e-06,1.95429e-05,-4.28782e-06,0
-2.86669e-05,3.26924e-06,1.23705e-06,-1.19009e-06,1.71793e-05,-1.06394e-05,1.53745e-05,-2.27724e-06,0
-2.94767e-05,3.24489e-06,1.12365e-05,-4.57715e-06,1.70674e-05,-1.2584e-05,1.25982e-05,-1.18225e-06,0
-3.13889e-05,2.10033e-06,2.17332e-05,-9.04408e-06,1.8149e-05,-1.28389e-05,1.33477e-05,-1.82367e-06,0
-3.24484e-05,1.40101e-07,2.97293e-05,-1.12994e-05,1.97425e-05,-1.23171e-05,1.29461e-05,-3.15656e-06,0
-3.2386e-05,-6.32292e-07,3.26363e-05,-9.71518e-06,1.99054e-05,-1.2618e-05,9.91995e-06,-4.14823e-06,0
-3.16123e-05,1.27989e-06,2.52605e-05,-6.31365e-06,1.89241e-05,-1.42518e-05,8.0448e-06,-3.64316e-06,0
-3.16729e-05,9.56349e-06,6.6569e-06,-2.84449e-06,1.76263e-05,-1.51582e-05,8.78291e-06,-2.44759e-06,0
-3.19149e-05,2.26885e-05,-1.66517e-05,-1.95315e-06,1.76162e-05,-1.43176e-05,1.03286e-05,-1.82742e-06,0
-3.14615e-05,3.58642e-05,-3.9289e-05,-3.59481e-06,1.84791e-05,-1.38177e-05,1.11537e-05,2.15124e-07,0
-3.14612e-05,4.4307e-05,-5.31147e-05,-9.43403e-06,2.10857e-05,-1.3851e-05,1.18458e-05,1.26476e-06,0
-3.13701e-05,4.39504e-05,-5.35603e-05,-2.09346e-05,2.36739e-05,-1.37365e-05,1.27107e-05,-3.1327e-07,0
-3.11276e-05,3.61313e-05,-4.90708e-05,-3.26501e-05,2.28098e-05,-1.25376e-05,1.36282e-05,-1.43191e-06,0
-2.87274e-05,1.96244e-05,-4.29112e-05,-4.2965e-05,1.98415e-05,-1.08883e-05,1.2968e-05,-1.48356e-06,0
-2.53319e-05,-1.67627e-06,-3.59183e-05,-4.83148e-05,1.51474e-05,-8.9567e-06,1.2789e-05,-2.42106e-06,0
-2.47108e-05,-2.12553e-05,-2.78568e-05,-4.49059e-05,1.13498e-05,-7.87861e-06,1.56865e-05,-3.80689e-06,0
-2.49381e-05,-3.47179e-05,-1.93578e-05,-3.22781e-05,1.14291e-05,-7.33953e-06,1.9756e-05,-3.40383e-06,0
-2.65927e-05,-3.60848e-05,-1.22128e-05,-1.68587e-05,1.55428e-05,-7.46782e-06,2.23173e-05,-1.41124e-06,0
-2.81332e-05,-2.38165e-05,-8.29986e-06,-5.37643e-06,1.70678e-05,-8.34572e-06,2.19789e-05,-4.20478e-09,0
-2.92157e-05,-1.48827e-06,-6.59377e-06,2.79071e-06,1.47223e-05,-8.51317e-06,2.04197e-05,5.89022e-07,0
-2.95921e-05,2.74497e-05,-4.04536e-06,8.75683e-06,1.25109e-05,-8.83908e-06,1.81695e-05,6.9531e-07,0
-2.85596e-05,5.60058e-05,-1.30448e-06,1.12338e-05,1.2513e-05,-9.27171e-06,1.53706e-05,2.56512e-07,0
-2.70431e-05,7.32789e-05,7.70157e-07,7.75025e-06,1.23563e-05,-9.15594e-06,1.19711e-05,-1.97336e-07,0
-2.5584e-05,7.46357e-05,-2.9105e-07,3.28742e-08,9.83426e-06,-7.57803e-06,6.76881e-06,-1.14871e-07,0
-2.45879e-05,6.23638e-05,-3.40316e-06,-7.47294e-06,6.20565e-06,-6.03594e-06,2.00479e-06,-1.85573e-07,0
-2.38235e-05,4.17227e-05,-6.27523e-06,-1.1705e-05,2.18443e-06,-6.89672e-06,3.88236e-07,-1.75605e-06,0
-2.4108e-05,1.74302e-05,-6.68705e-06,-1.41502e-05,-3.32923e-07,-9.59033e-06,1.00879e-06,-2.09372e-06,0
-2.38821e-05,-7.48604e-06,-4.79225e-06,-1.58024e-05,-1.43382e-06,-1.16318e-05,1.13318e-06,2.83487e-07,0
-2.38903e-05,-3.35241e-05,-2.05044e-06,-1.66885e-05,-7.78449e-07,-1.29858e-05,-3.70926e-07,2.87644e-06,0
-2.54924e-05,-5.91735e-05,-6.09131e-07,-1.65435e-05,1.03465e-06,-1.35302e-05,-2.61988e-06,4.17053e-06,0
-2.79182e-05,-7.61969e-05,-7.83444e-07,-1.40883e-05,4.10107e-06,-1.10105e-05,-3.18046e-06,3.70611e-06,0
-2.82933e-05,-7.76347e-05,-5.99785e-07,-7.34016e-06,7.51978e-06,-6.90343e-06,-5.96479e-07,2.24783e-06,0
-2.72534e-05,-6.49314e-05,1.02565e-06,2.90382e-06,1.1719e-05,-4.99817e-06,2.85028e-06,1.29663e-06,0
-2.72779e-05,-3.78529e-05,2.8641e-06,1.29507e-05,1.60003e-05,-4.90443e-06,4.44288e-06,1.61515e-06,0
-2.85983e-05,4.71047e-06,3.8116e-06,2.07753e-05,1.92951e-05,-4.8889e-06,4.1697e-06,3.75608e-06,0
-2.99787e-05,4.67658e-05,4.50066e-06,2.53206e-05,1.96183e-05,-5.59443e-06,2.43302e-06,6.33228e-06,0
-3.05085e-05,7.04549e-05,5.09992e-06,2.43095e-05,1.52245e-05,-6.75489e-06,-7.27793e-08,6.98935e-06,0
-3.09763e-05,7.14705e-05,4.50016e-06,1.76581e-05,9.4951e-06,-6.9833e-06,-1.33504e-06,6.40517e-06,0
-3.05876e-05,5.80415e-05,9.51059e-07,1.0437e-05,6.55305e-06,-4.52486e-06,1.46752e-06,7.88819e-06,0
-2.89298e-05,4.19318e-05,-2.47447e-06,5.30559e-06,6.40701e-06,-1.84594e-06,6.31288e-06,9.7468e-06,0
-2.71355e-05,2.27829e-05,-4.51122e-06,-3.0669e-07,7.1729e-06,-1.9623e-06,1.00905e-05,9.86338e-06,0
-2.66014e-05,-1.27498e-06,-5.27008e-06,-4.88055e-06,9.24194e-06,-3.15256e-06,1.36428e-05,9.71105e-06,0
-2.76033e-05,-2.48545e-05,-3.74247e-06,-7.52612e-06,1.16028e-05,-3.47095e-06,1.72845e-05,8.45276e-06,0
-2.85904e-05,-3.58187e-05,1.939e-08,-7.83113e-06,1.28253e-05,-3.1022e-06,2.03428e-05,5.98022e-06,0
-3.03183e-05,-2.82664e-05,3.21508e-06,-4.52573e-06,1.26881e-05,-3.13541e-06,1.95238e-05,3.59647e-06,0
-3.24232e-05,-1.27967e-05,2.79689e-06,-3.2656e-07,1.24193e-05,-3.73288e-06,1.4223e-05,2.84184e-06,0
-3.21694e-05,-1.18743e-06,6.3387e-09,2.74076e-06,1.10309e-05,-4.23287e-06,9.64386e-06,3.38242e-06,0
-3.06472e-05,3.78667e-06,-3.69389e-06,-7.91928e-08,9.04343e-06,-4.17178e-06,1.03833e-05,3.95295e-06,0
-2.97893e-05,1.7417e-06,-6.15151e-06,-9.54238e-06,8.09348e-06,-3.90683e-06,1.08314e-05,4.17801e-06,0
-3.00026e-05,-7.1029e-06,-6.30411e-06,-1.985e-05,8.08171e-06,-3.5189e-06,-1.30184e-06,3.86508e-06,0
-3.04959e-05,-1.91035e-05,-5.04606e-06,-2.60995e-05,8.46993e-06,-2.93085e-06,-2.53225e-05,2.61906e-06,0
-3.05399e-05,-3.04993e-05,-4.67958e-06,-2.89523e-05,8.42452e-06,-2.12024e-06,-4.05528e-05,1.0843e-06,0
-3.04498e-05,-3.7137e-05,-5.4973e-06,-3.15021e-05,8.13781e-06,-2.02017e-06,-3.07227e-05,-1.11051e-07,0
-3.09906e-05,-3.64208e-05,-4.96106e-06,-3.51848e-05,8.08783e-06,-1.70809e-06,-3.01264e-06,7.80271e-08,0
-3.14856e-05,-3.04211e-05,-3.4479e-06,-3.79292e-05,8.2478e-06,-1.70554e-06,2.30365e-05,2.00301e-06,0
-3.20573e-05,-2.19689e-05,-2.97534e-06,-3.43644e-05,7.09378e-06,-3.70438e-06,3.57847e-05,3.68957e-06,0
-3.33055e-05,-1.00852e-05,-3.82054e-06,-2.33018e-05,5.81564e-06,-5.81682e-06,3.54907e-05,3.89418e-06,0
-3.38935e-05,4.63713e-06,-4.93333e-06,-9.00684e-06,8.25826e-06,-5.92122e-06,2.89907e-05,3.11353e-06,0
-3.27479e-05,1.84712e-05,-5.19145e-06,5.50839e-06,1.38234e-05,-4.10462e-06,2.56617e-05,2.50675e-06,0
-3.01509e-05,2.84228e-05,-4.62515e-06,1.86945e-05,1.93708e-05,-2.71836e-06,2.70506e-05,2.31121e-06,0
-2.76373e-05,3.32689e-05,-5.20578e-06,2.67388e-05,2.24071e-05,-3.38194e-06,2.81376e-05,3.10768e-06,0
-2.69802e-05,3.32293e-05,-6.33012e-06,2.79777e-05,2.20403e-05,-4.19023e-06,2.67323e-05,3.79273e-06,0
-2.7209e-05,3.32245e-05,-7.01101e-06,2.49437e-05,2.10471e-05,-3.16036e-06,2.48622e-05,2.72614e-06,0
-2.7587e-05,3.72413e-05,-8.04037e-06,1.99187e-05,1.90192e-05,-1.40359e-06,2.32943e-05,4.34954e-07,0
-2.69922e-05,4.07198e-05,-8.10578e-06,1.45935e-05,1.60792e-05,-9.93673e-07,2.23965e-05,-7.04054e-07,0
-2.53442e-05,4.0373e-05,-6.46825e-06,1.35945e-05,1.42479e-05,-2.0739e-06,2.3058e-05,3.94278e-07,0
-2.51489e-05,3.86543e-05,-4.41711e-06,1.51695e-05,1.36903e-05,-3.0534e-06,2.45661e-05,2.86416e-06,0
-2.54376e-05,3.60509e-05,-3.56353e-06,1.05622e-05,1.51199e-05,-3.46338e-06,2.22249e-05,4.20497e-06,0
-2.61886e-05,3.2164e-05,-4.143e-06,9.165e-07,1.76282e-05,-4.5072e-06,1.41989e-05,4.09756e-06,0
-2.84128e-05,2.72425e-05,-2.88489e-06,-3.60385e-06,1.85044e-05,-6.58028e-06,3.80535e-06,3.52333e-06,0
-3.05272e-05,2.26779e-05,-1.23764e-06,4.81626e-07,1.79676e-05,-7.84752e-06,-3.93133e-06,2.78494e-06,0
-3.23001e-05,1.94939e-05,-9.69307e-07,7.24598e-06,1.89939e-05,-1.03929e-05,-3.39218e-06,4.28527e-06,0
-3.36117e-05,1.95175e-05,-2.34539e-06,1.13872e-05,2.00363e-05,-1.32386e-05,3.73259e-06,5.99345e-06,0
-3.23057e-05,2.34212e-05,-4.76818e-06,1.09642e-05,1.94413e-05,-1.45949e-05,1.05517e-05,5.07459e-06,0
-2.98054e-05,2.80183e-05,-6.06296e-06,6.00614e-06,1.76311e-05,-1.48204e-05,1.35774e-05,3.07295e-06,0
-2.81549e-05,2.89904e-05,-6.52394e-06,-2.23333e-06,1.64538e-05,-1.48557e-05,1.49625e-05,3.44176e-06,0
-2.83949e-05,2.53495e-05,-5.83763e-06,-1.13206e-05,1.67927e-05,-1.58915e-05,1.71171e-05,5.10127e-06,0
