ch1,ch2,ch3,ch4,ch5,ch6,ch7,ch8,class
-3.10432e-05,1.08318e-05,-1.42967e-05,-6.3507e-07,1.51952e-05,-9.16026e-06,1.02753e-05,6.90132e-06,0
-3.36194e-05,1.41027e-05,-1.3981e-05,-2.00933e-06,1.58981e-05,-8.19002e-06,9.25671e-06,7.24275e-06,0
-3.503e-05,2.07968e-05,-1.01662e-05,-5.14276e-06,1.50913e-05,-7.95245e-06,8.91426e-06,6.00833e-06,0
-3.32039e-05,3.22309e-05,-3.92147e-06,-6.95537e-06,1.34484e-05,-8.38737e-06,9.15357e-06,5.217e-06,0
-3.13044e-05,3.75162e-05,9.91569e-07,-5.76995e-06,1.20559e-05,-9.61585e-06,1.08744e-05,4.66832e-06,0
-3.27566e-05,3.64544e-05,1.17886e-06,-3.88406e-06,1.18536e-05,-1.00476e-05,1.09631e-05,2.79971e-06,0
-3.29627e-05,3.40391e-05,4.32864e-07,-4.47638e-06,1.17258e-05,-1.03023e-05,8.85984e-06,-4.00452e-07,0
-3.14064e-05,2.96338e-05,-1.08796e-06,-8.10936e-06,1.15037e-05,-9.87694e-06,8.29878e-06,-2.11196e-06,0
-3.16904e-05,2.57965e-05,-4.06555e-06,-1.02486e-05,1.24212e-05,-8.32423e-06,9.78187e-06,-1.64621e-06,0
-3.30109e-05,2.26557e-05,-8.19339e-06,-1.08762e-05,1.37702e-05,-7.31759e-06,1.33217e-05,-1.73562e-06,0
-3.34327e-05,1.99632e-05,-1.13459e-05,-1.02207e-05,1.44335e-05,-6.91431e-06,1.57712e-05,-1.76164e-06,0
-3.3271e-05,1.59401e-05,-1.24751e-05,-8.56438e-06,1.37241e-05,-6.51637e-06,1.49064e-05,-4.03666e-07,0
-3.28074e-05,1.10829e-05,-1.22291e-05,-8.18026e-06,1.41389e-05,-6.70653e-06,1.38466e-05,4.45952e-08,0
-3.12996e-05,5.93977e-06,-1.16191e-05,-7.69054e-06,1.62337e-05,-7.4675e-06,1.46755e-05,-2.49959e-06,0
-2.99012e-05,2.83679e-06,-1.15237e-05,-4.93713e-06,1.76805e-05,-7.66387e-06,1.479e-05,-5.02244e-06,0
-2.90444e-05,4.40257e-06,-1.18552e-05,-1.10416e-06,1.73144e-05,-8.38627e-06,1.34076e-05,-5.728e-06,0
-2.89409e-05,9.86235e-06,-1.22852e-05,4.73999e-07,1.52724e-05,-9.07984e-06,1.16694e-05,-5.53985e-06,0
-3.01601e-05,1.52918e-05,-1.16949e-05,-2.6657e-07,1.33125e-05,-9.67565e-06,8.98561e-06,-5.86206e-06,0
-3.19353e-05,1.90023e-05,-1.04878e-05,-2.62583e-06,1.23857e-05,-1.01704e-05,5.1418e-06,-6.42802e-06,0
-3.18372e-05,2.16406e-05,-9.33852e-06,-4.95342e-06,1.25636e-05,-1.04632e-05,1.68013e-06,-6.21093e-06,0
-2.99414e-05,2.26805e-05,-9.13885e-06,-5.46565e-06,1.27645e-05,-1.06717e-05,-6.76474e-08,-5.34059e-06,0
-2.76043e-05,2.31434e-05,-9.62801e-06,-4.55035e-06,1.33117e-05,-1.07969e-05,-9.2818e-07,-4.56681e-06,0
-2.67361e-05,2.32905e-05,-9.97446e-06,-3.74358e-06,1.4071e-05,-1.07436e-05,-1.02729e-06,-4.2334e-06,0
-2.76297e-05,2.33806e-05,-9.80427e-06,-3.88318e-06,1.41911e-05,-1.12397e-05,-3.84262e-07,-4.1636e-06,0
-2.90607e-05,2.24468e-05,-1.08787e-05,-3.00157e-06,1.42656e-05,-1.22704e-05,9.26725e-07,-3.92066e-06,0
-2.98423e-05,2.10914e-05,-1.31919e-05,-1.38853e-06,1.37735e-05,-1.24323e-05,1.04309e-06,-2.30148e-06,0
-3.03982e-05,1.93542e-05,-1.58179e-05,-2.11674e-06,1.32509e-05,-1.16517e-05,-7.77448e-08,-1.80966e-07,0
-3.02566e-05,2.07846e-05,-1.7951e-05,-4.24009e-06,1.42657e-05,-1.09333e-05,9.84494e-08,1.17348e-07,0
-2.91769e-05,2.59772e-05,-1.91637e-05,-4.90597e-06,1.46793e-05,-1.00681e-05,4.98985e-06,-3.73519e-07,0
-2.81843e-05,2.91904e-05,-2.0752e-05,-4.54362e-06,1.37958e-05,-9.17597e-06,1.35676e-05,1.38728e-07,0
-2.59959e-05,2.70343e-05,-2.06168e-05,-3.97087e-06,1.25071e-05,-9.40907e-06,2.03312e-05,-6.25094e-07,0
-2.38469e-05,2.24211e-05,-1.74369e-05,-1.27631e-06,1.15241e-05,-9.65999e-06,2.29132e-05,-1.01373e-06,0
-2.43537e-05,2.06223e-05,-1.23766e-05,3.37106e-06,1.13943e-05,-9.90464e-06,2.37439e-05,4.3921e-07,0
-2.58283e-05,2.31759e-05,-8.69744e-06,5.96031e-06,1.11578e-05,-1.01386e-05,2.34036e-05,5.06144e-07,0
-2.57906e-05,2.61637e-05,-8.79562e-06,4.56464e-06,1.11919e-05,-1.03923e-05,1.95251e-05,-1.27768e-06,0
-2.6642e-05,2.74957e-05,-9.80823e-06,1.40978e-06,1.02412e-05,-1.12916e-05,1.46484e-05,-3.32028e-06,0
-2.85259e-05,2.74118e-05,-1.08556e-05,-1.52363e-06,9.30534e-06,-1.33514e-05,1.1157e-05,-3.92692e-06,0
-2.82359e-05,2.64932e-05,-9.87347e-06,-6.70241e-06,8.75919e-06,-1.39903e-05,9.34864e-06,-4.01057e-06,0
-2.70275e-05,2.65998e-05,-6.89662e-06,-1.51196e-05,8.13642e-06,-1.29888e-05,8.30383e-06,-4.25717e-06,0
-2.77113e-05,2.66645e-05,-4.76386e-06,-2.22157e-05,7.16563e-06,-1.24334e-05,8.21081e-06,-4.24189e-06,0
-2.96194e-05,2.67029e-05,-3.99737e-06,-2.27169e-05,6.48414e-06,-1.22148e-05,9.22424e-06,-4.83271e-06,0
-3.01538e-05,2.58702e-05,-4.04699e-06,-1.79647e-05,7.16727e-06,-1.18814e-05,1.01195e-05,-4.79347e-06,0
-2.84006e-05,2.37006e-05,-4.17006e-06,-1.47865e-05,8.82773e-06,-1.09953e-05,1.06026e-05,-4.80927e-06,0
-2.55222e-05,2.17467e-05,-3.94372e-06,-1.453e-05,1.02683e-05,-1.03218e-05,1.02693e-05,-6.16138e-06,0
-2.34967e-05,2.10123e-05,-2.90753e-06,-1.28613e-05,9.68976e-06,-9.49203e-06,9.13782e-06,-6.85624e-06,0
-2.40624e-05,2.07073e-05,-1.8352e-06,-8.92093e-06,9.55318e-06,-8.75013e-06,7.55608e-06,-6.8532e-06,0
-2.59879e-05,2.01961e-05,-1.81067e-06,-5.51461e-06,1.00273e-05,-8.55002e-06,7.55798e-06,-8.24567e-06,0
-2.63595e-05,1.91786e-05,-3.31563e-06,-4.16594e-06,9.02581e-06,-9.02823e-06,9.29843e-06,-1.02144e-05,0
-2.53199e-05,1.81605e-05,-4.32499e-06,-3.7496e-06,8.69423e-06,-9.52382e-06,1.02795e-05,-1.06297e-05,0
-2.60222e-05,1.92256e-05,-3.72003e-06,-2.77565e-06,1.08252e-05,-9.67067e-06,9.66353e-06,-9.46891e-06,0
-2.9006e-05,2.23192e-05,-2.45214e-06,-2.26404e-06,1.15997e-05,-8.70315e-06,9.9113e-06,-8.67186e-06,0
-3.18143e-05,2.4115e-05,-2.81024e-06,-4.56916e-06,8.99372e-06,-6.71114e-06,1.19965e-05,-9.00588e-06,0
-3.28381e-05,2.2018e-05,-4.67013e-06,-7.71642e-06,6.35269e-06,-5.43642e-06,1.45482e-05,-7.91842e-06,0
-3.16681e-05,1.99502e-05,-6.34806e-06,-7.74672e-06,6.74724e-06,-6.26029e-06,1.56797e-05,-5.41547e-06,0
-2.97722e-05,2.15678e-05,-5.94207e-06,-5.19889e-06,9.24399e-06,-8.16782e-06,1.45462e-05,-4.69494e-06,0
-2.89654e-05,2.77774e-05,-4.59827e-06,1.5749e-07,1.20696e-05,-9.00267e-06,1.2685e-05,-4.79716e-06,0
-2.8054e-05,4.10307e-05,-4.7764e-06,6.44126e-06,1.33014e-05,-1.04496e-05,1.10217e-05,-3.88265e-06,0
-2.72997e-05,5.8036e-05,-6.4433e-06,1.02504e-05,1.19928e-05,-1.05658e-05,1.02719e-05,-2.46848e-06,0
-2.81945e-05,6.66655e-05,-9.16971e-06,1.13568e-05,9.84762e-06,-8.00836e-06,1.11346e-05,-5.12855e-07,0
-2.91031e-05,6.24968e-05,-1.10482e-05,8.86287e-06,9.16315e-06,-7.194e-06,1.38702e-05,1.77481e-06,0
-2.959e-05,4.85198e-05,-1.17702e-05,3.55195e-06,1.11367e-05,-8.00846e-06,1.52784e-05,4.42596e-06,0
-2.99841e-05,2.91226e-05,-1.16101e-05,-1.97357e-06,1.24273e-05,-7.93246e-06,1.28509e-05,5.65871e-06,0
-3.04896e-05,9.16322e-06,-9.77439e-06,-6.73111e-06,1.19904e-05,-7.52102e-06,9.65507e-06,7.44722e-06,0
-3.06696e-05,-1.10169e-05,-7.21898e-06,-1.23195e-05,1.10924e-05,-8.5577e-06,9.36692e-06,1.06621e-05,0
-3.03883e-05,-2.39078e-05,-6.29502e-06,-1.57307e-05,9.65265e-06,-1.00579e-05,1.248e-05,1.20424e-05,0
-3.08e-05,-2.77529e-05,-8.0753e-06,-1.32206e-05,8.84269e-06,-1.11726e-05,1.53376e-05,1.06981e-05,0
-3.10605e-05,-2.82149e-05,-1.02397e-05,-7.33614e-06,8.72204e-06,-1.1622e-05,1.5535e-05,8.18287e-06,0
-3.09574e-05,-2.70637e-05,-9.68954e-06,-2.18921e-06,9.08698e-06,-1.11998e-05,1.51086e-05,5.74123e-06,0
-3.12128e-05,-2.23361e-05,-7.05961e-06,1.22872e-06,1.01261e-05,-1.0199e-05,1.47681e-05,3.50306e-06,0
-3.13305e-05,-1.55048e-05,-4.92283e-06,2.03057e-06,1.17719e-05,-8.52737e-06,1.42965e-05,2.99829e-06,0
-3.06987e-05,-1.07965e-05,-3.07088e-06,-2.68777e-07,1.25919e-05,-8.08009e-06,1.34424e-05,3.92395e-06,0
-3.03505e-05,-8.28915e-06,-9.4211e-07,-2.57905e-06,1.2709e-05,-9.60715e-06,1.49317e-05,4.54665e-06,0
-3.09021e-05,-5.31193e-06,-3.81853e-07,-3.3224e-06,1.35404e-05,-1.11178e-05,2.40503e-05,4.03036e-06,0
-3.11909e-05,2.04865e-06,-1.28875e-06,-3.11742e-06,1.54178e-05,-1.07001e-05,3.87059e-05,2.7535e-06,0
-3.00694e-05,1.35683e-05,-1.85603e-06,-3.24517e-06,1.79323e-05,-9.54025e-06,4.95446e-05,1.44427e-06,0
-2.86598e-05,2.49486e-05,-1.50174e-06,-4.68202e-06,2.02706e-05,-9.64755e-06,5.19204e-05,1.05884e-06,0
-2.86769e-05,2.99367e-05,-1.36549e-06,-8.5678e-06,2.26119e-05,-1.06951e-05,4.74518e-05,1.59181e-06,0
-3.00276e-05,2.9392e-05,-1.65247e-06,-1.34593e-05,2.3666e-05,-9.99657e-06,3.73451e-05,2.22434e-06,0
-3.19458e-05,2.5398e-05,-1.99375e-06,-1.77128e-05,2.22614e-05,-7.7964e-06,2.35155e-05,2.35987e-06,0
-3.32769e-05,1.79946e-05,-2.22178e-06,-2.06679e-05,1.91994e-05,-6.6249e-06,9.0674e-06,2.41196e-06,0
-3.25134e-05,8.82926e-06,-5.47802e-06,-1.99963e-05,1.6385e-05,-6.97774e-06,-3.03226e-06,2.017e-06,0
-3.13328e-05,4.09029e-07,-1.1145e-05,-1.55186e-05,1.51689e-05,-8.12662e-06,-1.10806e-05,2.39679e-06,0
-3.1509e-05,-6.12597e-06,-1.50733e-05,-1.00765e-05,1.47056e-05,-8.61257e-06,-1.43042e-05,3.02117e-06,0
-3.2487e-05,-1.15002e-05,-1.78128e-05,-6.93081e-06,1.40773e-05,-8.52113e-06,-1.21614e-05,2.12801e-06,0
-3.40135e-05,-2.06131e-05,-1.86346e-05,-5.87776e-06,1.43845e-05,-9.5449e-06,-5.37937e-06,5.55475e-07,0
-3.55777e-05,-3.04687e-05,-1.75678e-05,-5.18297e-06,1.52712e-05,-1.1339e-05,2.47213e-06,6.85842e-07,0
-3.72567e-05,-3.30536e-05,-1.4591e-05,-4.46873e-06,1.56628e-05,-1.19601e-05,7.99792e-06,1.36315e-06,0
-3.62559e-05,-2.90667e-05,-1.27885e-05,-4.66978e-06,1.48343e-05,-1.18623e-05,1.17347e-05,1.69091e-07,0
-3.40089e-05,-2.19462e-05,-1.46098e-05,-7.66755e-06,1.40538e-05,-1.17238e-05,1.47081e-05,5.65567e-07,0
-3.36541e-05,-1.72314e-05,-1.81085e-05,-9.44426e-06,1.34929e-05,-1.12996e-05,1.4899e-05,2.0582e-06,0
-3.37671e-05,-1.39931e-05,-2.20792e-05,-9.15276e-06,1.117e-05,-1.14702e-05,1.40567e-05,2.0407e-06,0
-3.29115e-05,-8.58934e-06,-2.46657e-05,-8.60573e-06,8.4785e-06,-1.02875e-05,1.46909e-05,1.0752e-06,0
-3.23179e-05,-2.70652e-06,-2.36465e-05,-8.22269e-06,8.18602e-06,-8.47231e-06,1.65778e-05,2.20051e-06,0
-3.17316e-05,1.2372e-06,-2.02345e-05,-9.85051e-06,8.98693e-06,-8.57238e-06,1.87324e-05,4.39686e-06,0
-3.03453e-05,3.23968e-06,-1.75125e-05,-1.03258e-05,9.54546e-06,-9.48118e-06,1.90241e-05,5.00919e-06,0
-2.993e-05,5.00268e-06,-1.54084e-05,-7.91529e-06,9.78748e-06,-1.00333e-05,1.69241e-05,4.23586e-06,0
-2.95327e-05,7.37143e-06,-1.34108e-05,-5.56551e-06,9.29515e-06,-9.71657e-06,1.4003e-05,2.88149e-06,0
-2.85979e-05,9.98967e-06,-1.04874e-05,-4.69889e-06,9.38451e-06,-9.59201e-06,1.21475e-05,1.50579e-06,0
-2.7561e-05,1.28414e-05,-8.0101e-06,-3.66497e-06,8.77461e-06,-9.55106e-06,1.12427e-05,9.54668e-07,0
-2.7911e-05,1.46188e-05,-6.39064e-06,-1.9179e-06,7.23363e-06,-9.69815e-06,1.17914e-05,2.20465e-06,0
-2.90935e-05,1.40761e-05,-4.5332e-06,4.29656e-07,7.55349e-06,-9.77597e-06,1.32619e-05,3.20601e-06,0
-2.95563e-05,1.17132e-05,-2.5856e-06,2.16119e-06,1.05736e-05,-9.28909e-06,1.43401e-05,3.48166e-06,0
-2.88788e-05,8.88648e-06,-1.70118e-06,3.89015e-06,1.43232e-05,-8.15063e-06,1.36801e-05,3.88133e-06,0
-2.77245e-05,6.96222e-06,-3.13285e-06,6.81338e-06,1.80667e-05,-6.64093e-06,1.16423e-05,4.54052e-06,0
-2.70848e-05,6.30266e-06,-6.00125e-06,9.03673e-06,2.26284e-05,-5.52103e-06,9.21896e-06,4.39422e-06,0
-2.70275e-05,6.41536e-06,-8.71308e-06,7.9948e-06,2.62616e-05,-5.34119e-06,3.96254e-06,2.96176e-06,0
-2.6457e-05,8.00475e-06,-1.01945e-05,1.36364e-06,2.47382e-05,-5.98929e-06,-4.32517e-06,9.11304e-07,0
-2.54355e-05,1.03023e-05,-1.05082e-05,-8.2645e-06,1.93164e-05,-6.3305e-06,-8.97317e-06,-1.20898e-06,0
-2.56886e-05,1.17535e-05,-1.06831e-05,-1.40108e-05,1.53918e-05,-6.88462e-06,-5.35482e-06,-2.01691e-06,0
-2.6724e-05,1.43352e-05,-9.67272e-06,-1.44484e-05,1.48829e-05,-8.09545e-06,3.34411e-06,-1.22174e-06,0
-2.84501e-05,1.63092e-05,-6.80098e-06,-1.38318e-05,1.52861e-05,-8.03609e-06,1.33603e-05,-8.33154e-07,0
-2.97217e-05,1.65352e-05,-2.23887e-06,-1.50943e-05,1.49877e-05,-6.26378e-06,2.25405e-05,-1.3962e-06,0
-2.9705e-05,1.70743e-05,5.125e-06,-1.51662e-05,1.51662e-05,-5.0779e-06,3.10821e-05,-2.12327e-06,0
-2.97074e-05,1.75232e-05,1.49064e-05,-1.28626e-05,1.53441e-05,-5.41315e-06,4.04524e-05,-1.70511e-06,0
-2.98375e-05,1.66925e-05,3.0196e-05,-9.82634e-06,1.44951e-05,-6.33614e-06,4.55694e-05,-1.0338e-06,0
-3.07007e-05,1.5406e-05,4.90542e-05,-8.34845e-06,1.34903e-05,-6.13527e-06,4.46245e-05,-9.27935e-07,0
-3.2948e-05,1.47507e-05,6.46566e-05,-9.97463e-06,1.53433e-05,-5.1003e-06,4.2359e-05,-1.05776e-08,0
-3.36646e-05,1.57264e-05,7.06531e-05,-1.15075e-05,2.02537e-05,-5.07193e-06,4.01166e-05,1.14064e-06,0
-3.20567e-05,2.16997e-05,6.13504e-05,-6.89033e-06,2.5212e-05,-3.41751e-06,3.79656e-05,1.24864e-06,0
-3.07823e-05,2.84719e-05,3.50856e-05,6.54171e-06,2.86234e-05,-3.27776e-07,3.48827e-05,4.60587e-07,0
-2.98127e-05,2.96508e-05,-3.4556e-06,1.9419e-05,2.81858e-05,-3.61417e-07,3.01946e-05,-7.33071e-07,0
-2.90024e-05,2.43981e-05,-4.44464e-05,2.40886e-05,2.39871e-05,-2.25304e-06,2.42997e-05,-2.09684e-06,0
-2.88739e-05,1.5716e-05,-7.75058e-05,2.32141e-05,2.05395e-05,-4.17548e-06,1.90657e-05,-2.08572e-06,0
-2.97126e-05,7.26322e-06,-9.32825e-05,2.1523e-05,2.01945e-05,-6.2814e-06,1.63994e-05,-5.4754e-07,0
-3.1198e-05,1.14349e-06,-8.96043e-05,1.77534e-05,2.09309e-05,-7.96706e-06,1.58746e-05,9.13613e-07,0
-3.26871e-05,-9.86849e-07,-7.42786e-05,1.13073e-05,2.09048e-05,-7.63821e-06,1.52574e-05,1.53541e-06,0
-3.4331e-05,7.50215e-08,-5.90623e-05,4.25852e-06,1.96272e-05,-5.78249e-06,1.26981e-05,2.97656e-06,0
-3.581e-05,2.85342e-06,-4.88074e-05,-9.37073e-07,1.74904e-05,-4.98073e-06,7.94943e-06,5.05982e-06,0
-3.68877e-05,6.08365e-06,-4.18435e-05,-1.54799e-06,1.52248e-05,-5.28572e-06,3.31106e-06,7.67624e-06,0
-3.72958e-05,1.13485e-05,-3.3769e-05,2.36327e-06,1.39138e-05,-5.71674e-06,1.03653e-06,1.0182e-05,0
-3.72253e-05,2.09889e-05,-2.36911e-05,5.61444e-06,1.52234e-05,-6.73034e-06,1.74856e-06,1.09275e-05,0
-3.60642e-05,3.20935e-05,-1.52187e-05,3.14579e-06,1.75537e-05,-9.24582e-06,4.19491e-06,9.74589e-06,0
-3.37463e-05,3.72945e-05,-9.12006e-06,-1.87839e-06,1.78899e-05,-1.23527e-05,5.69407e-06,7.80883e-06,0
-3.26674e-05,3.52027e-05,-4.9131e-06,-3.51577e-06,1.63079e-05,-1.27778e-05,6.43268e-06,7.06624e-06,0
-3.35609e-05,2.98144e-05,-2.97146e-06,-2.29855e-06,1.54475e-05,-1.15687e-05,6.34675e-06,7.73437e-06,0
-3.4241e-05,2.42111e-05,-3.02953e-06,-1.89043e-06,1.44295e-05,-1.17401e-05,5.27183e-06,7.83358e-06,0
-3.4323e-05,1.8718e-05,-4.116e-06,-1.77947e-06,1.25076e-05,-1.32319e-05,3.72099e-06,5.95054e-06,0
-3.34385e-05,1.39354e-05,-4.56393e-06,-3.38153e-06,1.13067e-05,-1.65553e-05,3.07246e-06,4.02507e-06,0
-3.17012e-05,8.94777e-06,-3.95579e-06,-6.67888e-06,1.065e-05,-1.93282e-05,4.78038e-06,2.6347e-06,0
-3.01231e-05,1.32781e-06,-2.99792e-06,-8.26733e-06,9.72448e-06,-1.91877e-05,7.87824e-06,1.3697e-06,0
-2.8854e-05,-6.80131e-06,-1.25188e-06,-7.26757e-06,8.46491e-06,-1.71677e-05,9.31087e-06,-4.50055e-07,0
-2.91518e-05,-1.23982e-05,7.98893e-07,-8.41195e-06,7.52294e-06,-1.48094e-05,9.72313e-06,-1.61321e-06,0
-3.04086e-05,-1.27072e-05,1.72681e-06,-8.32155e-06,7.24874e-06,-1.36469e-05,1.0596e-05,-1.05772e-06,0
-3.1437e-05,-7.57934e-06,2.06318e-06,4.64297e-06,8.77771e-06,-1.33118e-05,1.04977e-05,4.39095e-07,0
-3.13429e-05,-4.54769e-07,3.38848e-06,2.27419e-05,1.14687e-05,-1.30161e-05,1.094e-05,8.05566e-07,0
-2.9754e-05,5.62261e-06,4.03207e-06,2.81863e-05,1.29067e-05,-1.30427e-05,9.97983e-06,2.74346e-07,0
-2.89759e-05,9.53231e-06,2.90626e-06,1.94971e-05,1.32809e-05,-1.32674e-05,7.93718e-06,3.25465e-07,0
-2.9453e-05,1.10393e-05,9.72345e-07,4.38835e-06,1.17003e-05,-1.43805e-05,6.78387e-06,-8.1289e-07,0
-2.98659e-05,1.23782e-05,-4.19368e-07,-8.14191e-06,8.49675e-06,-1.53e-05,5.54493e-06,-1.43981e-06,0
-3.05519e-05,1.35413e-05,-3.76718e-07,-1.4053e-05,6.06775e-06,-1.4955e-05,3.5892e-06,-6.72315e-07,0
-3.1352e-05,1.38116e-05,-1.49971e-06,-1.59539e-05,5.94031e-06,-1.39629e-05,1.67114e-06,6.89211e-08,0
-3.20814e-05,1.42409e-05,-3.05502e-06,-1.68132e-05,7.32664e-06,-1.34428e-05,1.7891e-06,3.22181e-07,0
-3.2879e-05,1.47686e-05,-2.69625e-06,-1.96125e-05,6.80895e-06,-1.34148e-05,3.44738e-06,6.14624e-07,0
-3.30274e-05,1.51829e-05,-1.66727e-06,-2.48311e-05,4.19828e-06,-1.45313e-05,6.47995e-06,7.31977e-07,0
-3.22744e-05,1.50313e-05,-1.91545e-06,-3.19785e-05,1.99842e-06,-1.62749e-05,9.70556e-06,7.22464e-07,0
-3.16239e-05,1.44004e-05,-3.83741e-06,-4.14056e-05,1.56086e-06,-1.60814e-05,1.13597e-05,1.50288e-06,0
-3.04331e-05,1.4184e-05,-7.11527e-06,-5.13852e-05,1.71522e-06,-1.52101e-05,1.1307e-05,2.61438e-06,0
-2.83853e-05,1.5315e-05,-1.01772e-05,-5.59499e-05,2.08267e-06,-1.51285e-05,1.13454e-05,3.56577e-06,0
-2.73522e-05,1.57738e-05,-1.00931e-05,-5.07199e-05,3.09189e-06,-1.48467e-05,1.10734e-05,3.89732e-06,0
-2.75461e-05,1.48845e-05,-7.78432e-06,-3.6894e-05,4.42967e-06,-1.40507e-05,1.03033e-05,4.40753e-06,0
-2.84799e-05,1.42362e-05,-6.38632e-06,-2.0712e-05,5.30841e-06,-1.38171e-05,1.0392e-05,6.18052e-06,0
-2.98211e-05,1.40381e-05,-7.27551e-06,-9.75511e-06,6.05561e-06,-1.39487e-05,1.14309e-05,7.73729e-06,0
-3.02021e-05,1.45972e-05,-8.76856e-06,-6.82649e-06,6.77935e-06,-1.4355e-05,1.15156e-05,8.72759e-06,0
-2.97749e-05,1.5905e-05,-8.8747e-06,-6.86878e-06,6.40382e-06,-1.40157e-05,1.10698e-05,9.2982e-06,0
-2.99557e-05,1.88058e-05,-9.05833e-06,-5.9961e-06,6.95034e-06,-1.35644e-05,1.18303e-05,8.58828e-06,0
-3.14815e-05,2.13391e-05,-9.23104e-06,-3.12626e-07,9.34152e-06,-1.30748e-05,1.28068e-05,8.25738e-06,0
-3.19196e-05,2.05177e-05,-8.93573e-06,9.13274e-06,1.17288e-05,-1.25406e-05,1.5257e-05,9.52143e-06,0
-3.10618e-05,1.84002e-05,-8.90496e-06,1.50965e-05,1.50587e-05,-1.39032e-05,1.74822e-05,1.08986e-05,0
-2.91454e-05,1.6206e-05,-8.50011e-06,1.42614e-05,1.79123e-05,-1.60171e-05,1.78519e-05,7.45671e-06,0
-2.57146e-05,1.57813e-05,-9.31286e-06,7.17501e-06,1.70456e-05,-1.58587e-05,1.84693e-05,2.22347e-06,0
-2.44783e-05,1.73954e-05,-1.08623e-05,1.10885e-06,1.4462e-05,-1.33643e-05,1.91148e-05,1.63014e-06,0
-2.54205e-05,1.96339e-05,-1.26754e-05,-2.06673e-06,1.20946e-05,-1.12087e-05,2.03878e-05,2.69353e-06,0
-2.7534e-05,1.98987e-05,-1.36412e-05,-2.53954e-06,8.18594e-06,-9.29486e-06,2.11953e-05,1.89552e-06,0
-2.98864e-05,1.62392e-05,-1.26639e-05,-1.76984e-06,3.86142e-06,-8.29156e-06,1.84699e-05,6.04579e-07,0
-3.17586e-05,1.21536e-05,-1.11411e-05,-2.03191e-06,1.31391e-06,-8.99829e-06,1.41821e-05,3.50114e-07,0
-3.24192e-05,1.0951e-05,-9.68916e-06,-2.90643e-06,6.31129e-07,-1.02701e-05,1.41037e-05,1.02522e-06,0
-3.15564e-05,1.23668e-05,-9.20885e-06,-4.25975e-06,2.42177e-06,-1.04473e-05,1.95379e-05,1.37631e-06,0
-3.00437e-05,1.38445e-05,-9.57222e-06,-3.73622e-06,6.46381e-06,-9.34178e-06,2.43987e-05,7.64264e-07,0
-2.94708e-05,1.40521e-05,-8.72595e-06,-1.66472e-06,1.14523e-05,-8.25297e-06,2.37698e-05,1.5132e-07,0
-2.9693e-05,1.22158e-05,-7.29609e-06,-1.63744e-07,1.51352e-05,-6.76332e-06,1.87011e-05,-2.53538e-07,0
-2.91883e-05,8.92661e-06,-6.53711e-06,-2.29012e-07,1.6481e-05,-4.9781e-06,1.3121e-05,-4.35189e-07,0
-2.92846e-05,5.0086e-06,-5.38731e-06,-3.88029e-07,1.55845e-05,-4.44377e-06,9.71218e-06,-9.00547e-07,0
-3.00646e-05,2.78337e-06,-4.12994e-06,-7.98313e-07,1.37275e-05,-6.54435e-06,8.62704e-06,-9.49859e-07,0
-3.02013e-05,2.56352e-06,-3.9039e-06,-1.59576e-06,1.23424e-05,-9.82344e-06,6.60123e-06,3.65848e-07,0
-2.91586e-05,3.03237e-06,-5.91321e-06,-1.85324e-06,1.13888e-05,-1.18275e-05,1.97784e-06,1.92906e-06,0
-2.82387e-05,4.26145e-06,-8.65998e-06,-1.79409e-06,1.04818e-05,-1.1568e-05,-3.16721e-06,1.36167e-06,0
-2.92741e-05,5.1903e-06,-1.08146e-05,-2.89147e-06,9.86636e-06,-9.7358e-06,-5.83978e-06,4.94287e-07,0
-3.14749e-05,6.21444e-06,-1.13332e-05,-2.80681e-06,9.33466e-06,-8.22672e-06,-5.70161e-06,1.99548e-06,0
-3.15707e-05,8.84729e-06,-1.0996e-05,-1.06937e-06,7.79453e-06,-7.94099e-06,-4.51204e-06,4.2516e-06,0
-2.99621e-05,1.19392e-05,-9.8404e-06,-1.23695e-06,5.78545e-06,-9.56224e-06,-3.34931e-06,5.59142e-06,0
-2.87372e-05,1.2915e-05,-7.99231e-06,-2.36814e-06,6.20334e-06,-1.22138e-05,-4.19159e-06,5.5613e-06,0
-2.88168e-05,1.20429e-05,-6.46356e-06,-2.63608e-06,7.86076e-06,-1.46717e-05,-7.17957e-06,4.33331e-06,0
-2.97387e-05,1.09918e-05,-4.23652e-06,-2.70006e-06,7.64007e-06,-1.47408e-05,-8.81086e-06,2.71478e-06,0
-2.98508e-05,1.12427e-05,-3.45897e-06,-3.23383e-06,5.63965e-06,-1.40641e-05,-4.32223e-06,2.2319e-06,0
-2.88506e-05,1.20344e-05,-4.48616e-06,-3.02229e-06,4.30826e-06,-1.56915e-05,3.71902e-06,1.05206e-06,0
-2.88907e-05,1.2204e-05,-6.11835e-06,-3.87474e-06,6.52914e-06,-1.48238e-05,1.13286e-05,-8.8525e-07,0
-2.87775e-05,1.20356e-05,-7.85419e-06,-5.49705e-06,1.07228e-05,-1.16679e-05,1.79281e-05,-6.04097e-07,0
-2.81849e-05,1.23227e-05,-8.94362e-06,-6.48324e-06,1.41884e-05,-9.79612e-06,2.01755e-05,-1.15031e-06,0
-2.80613e-05,1.30978e-05,-9.91768e-06,-5.79542e-06,1.60596e-05,-8.18159e-06,1.87398e-05,-3.223e-06,0
-2.68653e-05,1.22383e-05,-9.66781e-06,-3.13202e-06,1.87133e-05,-6.65045e-06,1.62356e-05,-4.21162e-06,0
-2.63275e-05,1.0709e-05,-7.41017e-06,-1.09096e-07,2.23454e-05,-5.61665e-06,1.36449e-05,-3.00068e-06,0
-2.72823e-05,1.18982e-05,-5.12794e-06,1.82222e-06,2.51706e-05,-3.44186e-06,1.28056e-05,-1.73738e-06,0
-2.75625e-05,1.5934e-05,-4.53022e-06,3.08584e-06,2.57147e-05,-6.22378e-07,2.01186e-05,-1.81771e-06,0
-2.63149e-05,1.90025e-05,-5.76537e-06,4.99862e-06,2.36536e-05,2.40746e-07,3.73535e-05,-2.4645e-06,0
-2.54045e-05,1.88477e-05,-7.20283e-06,5.83845e-06,2.10341e-05,-1.50527e-06,5.48938e-05,-2.91851e-06,0
-2.50625e-05,1.6782e-05,-7.61314e-06,3.91665e-06,1.89116e-05,-4.15031e-06,6.47692e-05,-2.21602e-06,0
-2.57106e-05,1.45251e-05,-8.05444e-06,-1.94225e-06,1.73377e-05,-4.97419e-06,6.47724e-05,-1.40064e-06,0
-2.67303e-05,1.39873e-05,-9.63212e-06,-9.39806e-06,1.52596e-05,-4.79816e-06,5.64383e-05,-1.18052e-06,0
-2.71329e-05,1.51004e-05,-1.22083e-05,-1.48973e-05,1.33019e-05,-5.44421e-06,4.29845e-05,-2.49601e-06,0
-2.68376e-05,1.66511e-05,-1.41438e-05,-1.63778e-05,1.28618e-05,-7.10546e-06,2.65481e-05,-3.67585e-06,0
-2.64664e-05,1.78449e-05,-1.577e-05,-1.58585e-05,1.25372e-05,-8.0951e-06,7.45394e-06,-3.2937e-06,0
-2.74996e-05,1.8962e-05,-1.79315e-05,-1.65981e-05,1.0123e-05,-8.02384e-06,-1.21228e-05,-2.32787e-06,0
-3.0288e-05,2.05012e-05,-1.83777e-05,-1.854e-05,8.24419e-06,-8.36716e-06,-2.73116e-05,-2.21315e-06,0
-3.18039e-05,2.2309e-05,-1.55993e-05,-1.81963e-05,9.28332e-06,-9.18497e-06,-3.3021e-05,-2.79635e-06,0
-3.09912e-05,2.29074e-05,-1.14287e-05,-1.4954e-05,1.06541e-05,-9.07133e-06,-3.07168e-05,-5.04555e-06,0
-3.04116e-05,2.245e-05,-7.83246e-06,-1.24339e-05,1.12793e-05,-7.77462e-06,-2.48864e-05,-7.60076e-06,0
-3.01788e-05,2.39683e-05,-5.29088e-06,-1.01193e-05,1.31457e-05,-5.92758e-06,-1.69063e-05,-7.08176e-06,0
-3.00038e-05,2.67481e-05,-4.49154e-06,-6.50812e-06,1.47823e-05,-4.71842e-06,-9.00042e-06,-7.46407e-06,0
-2.88873e-05,2.62085e-05,-4.26547e-06,-4.67294e-07,1.52075e-05,-6.32104e-06,-2.84689e-06,-9.55794e-06,0
-2.82793e-05,2.14574e-05,-4.14193e-06,8.49761e-06,1.50554e-05,-9.07533e-06,9.23395e-07,-8.76741e-06,0
-2.9488e-05,1.75335e-05,-4.23768e-06,1.41153e-05,1.55033e-05,-9.23344e-06,2.16704e-06,-7.0667e-06,0
-3.05985e-05,1.696e-05,-3.65954e-06,1.14415e-05,1.71036e-05,-7.78985e-06,1.27378e-06,-5.15889e-06,0
-3.07378e-05,1.74637e-05,-3.22018e-06,7.22685e-06,1.78175e-05,-6.86992e-06,8.77241e-07,-3.14568e-06,0
-3.05828e-05,1.93031e-05,-2.15479e-06,4.92925e-06,1.63658e-05,-5.39591e-06,3.32251e-06,-1.89578e-06,0
-3.09911e-05,2.52967e-05,1.53249e-07,3.44804e-06,1.49091e-05,-4.27293e-06,6.65856e-06,-7.24603e-07,0
-3.13864e-05,3.54299e-05,3.05699e-06,1.28278e-06,1.688e-05,-5.84483e-06,8.50995e-06,1.8135e-08,0
-3.12529e-05,4.55395e-05,4.67584e-06,-2.69413e-06,2.0441e-05,-7.06718e-06,7.89875e-06,-9.76017e-08,0
-3.0753e-05,5.0991e-05,1.71095e-06,-5.92364e-06,2.17591e-05,-6.17845e-06,5.56381e-06,-3.68721e-08,0
-2.93287e-05,4.78961e-05,-2.96909e-06,-7.11598e-06,2.05376e-05,-5.08427e-06,4.12215e-06,2.00514e-06,0
-2.80709e-05,3.47556e-05,-5.24216e-06,-6.22724e-06,2.13969e-05,-4.4754e-06,5.76582e-06,3.09979e-06,0
-2.81078e-05,1.46678e-05,-5.05029e-06,-4.88634e-06,2.34999e-05,-6.03303e-06,1.02248e-05,3.19475e-06,0
-2.86116e-05,-5.73723e-06,-4.66962e-06,-3.73177e-06,2.41838e-05,-8.16605e-06,1.47563e-05,3.26575e-06,0
-2.86344e-05,-2.07892e-05,-4.59773e-06,-3.6158e-06,2.32989e-05,-9.31797e-06,1.73702e-05,2.78409e-06,0
-2.91226e-05,-2.87404e-05,-3.60011e-06,-4.77877e-06,2.1612e-05,-9.89412e-06,1.75644e-05,1.25183e-06,0
-3.0682e-05,-3.05298e-05,-2.8479e-06,-6.95025e-06,1.89991e-05,-1.01536e-05,1.70351e-05,5.67388e-07,0
-3.20136e-05,-2.7676e-05,-3.92068e-06,-9.68728e-06,1.52847e-05,-1.06548e-05,1.65983e-05,2.44441e-06,0
-3.21056e-05,-2.08441e-05,-5.97497e-06,-1.01999e-05,1.25442e-05,-1.1172e-05,1.42823e-05,4.58586e-06,0
-3.14822e-05,-1.29873e-05,-6.67973e-06,-8.52757e-06,1.12564e-05,-1.18731e-05,1.03107e-05,4.95293e-06,0
-3.13833e-05,-7.32555e-06,-6.78217e-06,-8.21969e-06,1.06166e-05,-1.23773e-05,8.2142e-06,4.68326e-06,0
-3.12771e-05,-2.55348e-06,-7.0238e-06,-1.0014e-05,9.95113e-06,-1.23777e-05,9.53113e-06,5.22779e-06,0
-3.20473e-05,4.02859e-06,-7.84527e-06,-1.2421e-05,9.51571e-06,-1.27814e-05,1.25323e-05,5.32783e-06,0
-3.4241e-05,9.17729e-06,-8.36351e-06,-1.54496e-05,9.95015e-06,-1.30562e-05,1.61658e-05,4.09214e-06,0
-3.52557e-05,1.00803e-05,-7.00793e-06,-1.95763e-05,1.14962e-05,-1.20438e-05,1.79823e-05,1.63812e-06,0
-3.43142e-05,8.63247e-06,-6.72689e-06,-2.37903e-05,1.11517e-05,-1.1676e-05,1.84346e-05,-4.60271e-07,0
-3.47148e-05,7.33169e-06,-9.43761e-06,-2.6037e-05,9.3734e-06,-1.35057e-05,1.84158e-05,-1.29702e-06,0
-3.78925e-05,8.16706e-06,-1.32451e-05,-2.61513e-05,7.93215e-06,-1.5757e-05,1.53817e-05,-1.07992e-06,0
-3.92617e-05,9.39355e-06,-1.44288e-05,-2.59133e-05,7.57203e-06,-1.6916e-05,1.21142e-05,1.09946e-06,0
-3.63532e-05,9.80179e-06,-1.41375e-05,-2.70142e-05,7.81e-06,-1.80383e-05,1.13683e-05,3.68406e-06,0
-3.26089e-05,1.00896e-05,-1.75324e-05,-2.72982e-05,6.91829e-06,-1.87026e-05,1.19687e-05,3.79339e-06,0
-3.16404e-05,7.98251e-06,-2.18208e-05,-2.12695e-05,6.35692e-06,-1.64903e-05,1.29861e-05,2.28523e-06,0
-3.24101e-05,4.35297e-06,-2.09626e-05,-4.69343e-06,8.77858e-06,-1.49318e-05,1.48588e-05,8.8453e-07,0
-3.22288e-05,2.50848e-06,-1.58185e-05,1.64012e-05,1.22237e-05,-1.57351e-05,1.72671e-05,3.32972e-07,0
-3.10585e-05,3.22736e-06,-1.03143e-05,3.14396e-05,1.34034e-05,-1.55067e-05,1.96463e-05,-9.30317e-07,0
-2.92564e-05,7.23914e-06,-6.74785e-06,3.86559e-05,1.14409e-05,-1.48292e-05,2.1305e-05,-1.20799e-06,0
-2.78925e-05,1.13793e-05,-5.28105e-06,4.07478e-05,1.10605e-05,-1.44014e-05,2.10524e-05,6.33067e-07,0
-2.75287e-05,1.21256e-05,-4.19538e-06,3.87255e-05,1.52006e-05,-1.42568e-05,2.06154e-05,2.61986e-06,0
-2.75257e-05,1.00871e-05,-3.24271e-06,3.07987e-05,1.93345e-05,-1.49647e-05,2.14414e-05,2.3843e-06,0
-2.842e-05,7.20859e-06,-4.63235e-06,1.15126e-05,1.81568e-05,-1.53921e-05,2.32316e-05,-2.28612e-07,0
-3.07607e-05,8.53801e-06,-8.26077e-06,-1.57653e-05,1.22374e-05,-1.52352e-05,2.51062e-05,-1.00859e-06,0
-3.30907e-05,1.67776e-05,-1.07085e-05,-3.50822e-05,7.71362e-06,-1.58105e-05,2.51619e-05,1.71585e-07,0
-3.35369e-05,2.69495e-05,-1.12186e-05,-3.90175e-05,6.92915e-06,-1.65282e-05,2.25834e-05,1.44111e-06,0
-3.20453e-05,3.22992e-05,-1.05626e-05,-3.62884e-05,8.73854e-06,-1.6702e-05,2.01934e-05,1.52937e-06,0
-3.08642e-05,3.10277e-05,-9.92063e-06,-3.53543e-05,1.04857e-05,-1.61508e-05,2.08281e-05,1.60096e-06,0
-3.1918e-05,2.64089e-05,-9.94447e-06,-3.27353e-05,1.14705e-05,-1.54135e-05,2.34736e-05,3.23452e-06,0
-3.45594e-05,1.98916e-05,-9.47097e-06,-2.07213e-05,1.24966e-05,-1.43694e-05,2.47187e-05,5.09052e-06,0
-3.62933e-05,1.17127e-05,-7.73818e-06,9.18653e-07,1.4381e-05,-1.34417e-05,2.36863e-05,5.52228e-06,0
-3.58372e-05,5.52133e-06,-6.58879e-06,2.31379e-05,1.51531e-05,-1.32425e-05,2.19022e-05,4.38353e-06,0
-3.45203e-05,2.76221e-06,-6.93393e-06,3.78404e-05,1.48936e-05,-1.23721e-05,1.97808e-05,3.21765e-06,0
-3.37782e-05,3.55696e-07,-7.13526e-06,4.26485e-05,1.65444e-05,-1.07513e-05,1.80474e-05,3.21085e-06,0
-3.41765e-05,-1.18992e-06,-7.05103e-06,3.78503e-05,2.10757e-05,-9.09175e-06,1.80685e-05,3.53199e-06,0
-3.61973e-05,-7.38234e-07,-7.81011e-06,2.53041e-05,2.44783e-05,-8.23685e-06,1.94168e-05,3.66061e-06,0
-3.74749e-05,3.47585e-06,-1.05077e-05,1.00207e-05,2.33882e-05,-8.13073e-06,2.03318e-05,3.45634e-06,0
-3.6505e-05,1.32437e-05,-1.39082e-05,-3.43743e-07,2.03072e-05,-7.11097e-06,1.89591e-05,1.93762e-06,0
-3.44391e-05,2.26426e-05,-1.63314e-05,-2.75167e-06,1.86097e-05,-5.19298e-06,1.39932e-05,6.54038e-07,0
-3.2996e-05,2.98093e-05,-1.56271e-05,-4.33817e-06,1.86482e-05,-4.77672e-06,9.51364e-06,2.84204e-07,0
-3.30227e-05,3.80525e-05,-1.42729e-05,-5.3419e-06,1.73527e-05,-5.45166e-06,9.90371e-06,6.0561e-07,0
-3.19726e-05,4.33882e-05,-1.48205e-05,-2.47293e-06,1.48113e-05,-4.5901e-06,1.38413e-05,2.18446e-06,0
-3.00102e-05,4.22291e-05,-1.36812e-05,2.50412e-06,1.389e-05,-3.44511e-06,1.66954e-05,3.42497e-06,0
-2.94414e-05,3.85333e-05,-9.21453e-06,7.55839e-06,1.43474e-05,-3.74038e-06,1.5094e-05,3.06005e-06,0
-3.0485e-05,3.68572e-05,-3.08716e-06,8.04915e-06,1.47338e-05,-3.86811e-06,1.29156e-05,2.89692e-06,0
-3.05972e-05,3.63173e-05,4.18929e-06,7.02274e-06,1.54963e-05,-3.85139e-06,1.19294e-05,4.11195e-06,0
-2.98625e-05,3.3032e-05,1.52343e-05,8.75408e-06,1.58879e-05,-4.06323e-06,1.06455e-05,4.72951e-06,0
-2.95241e-05,2.63277e-05,3.23591e-05,1.15705e-05,1.39361e-05,-3.0171e-06,9.96603e-06,3.77591e-06,0
-3.05903e-05,1.61149e-05,5.38697e-05,1.04216e-05,1.09181e-05,-9.86133e-07,1.04183e-05,1.92779e-06,0
-3.19162e-05,2.77324e-06,7.13436e-05,4.98437e-06,1.01019e-05,7.11125e-07,1.15892e-05,1.17182e-06,0
-3.20559e-05,-9.39926e-06,7.48301e-05,-2.99177e-06,9.9927e-06,2.08472e-06,1.2773e-05,1.94773e-06,0
-3.14113e-05,-1.42468e-05,5.89966e-05,-1.09282e-05,9.17627e-06,2.07989e-06,1.45043e-05,3.39921e-06,0
-3.07821e-05,-1.04746e-05,2.5192e-05,-1.55002e-05,8.27734e-06,6.04574e-07,1.74809e-05,3.74747e-06,0
-3.10635e-05,-2.30605e-06,-1.76478e-05,-1.6836e-05,8.22628e-06,-1.63737e-06,2.08251e-05,2.1821e-06,0
-3.1314e-05,6.54986e-06,-5.82601e-05,-1.59589e-05,8.66992e-06,-3.43082e-06,2.32829e-05,5.33168e-07,0
-3.11448e-05,1.36922e-05,-8.79174e-05,-1.63299e-05,8.97631e-06,-4.26427e-06,2.49724e-05,3.1195e-07,0
-3.07439e-05,1.72854e-05,-9.99318e-05,-1.91599e-05,9.09668e-06,-4.83536e-06,2.45557e-05,1.50566e-06,0
-3.00194e-05,1.75847e-05,-9.34504e-05,-2.19197e-05,8.88112e-06,-4.64597e-06,2.2311e-05,2.28026e-06,0
-2.8561e-05,1.66245e-05,-7.51456e-05,-2.38896e-05,9.80446e-06,-3.75825e-06,2.01413e-05,2.18112e-06,0
-2.7439e-05,1.69736e-05,-5.5192e-05,-2.68086e-05,1.24272e-05,-3.31275e-06,1.7506e-05,3.04855e-06,0
-2.6773e-05,1.97128e-05,-4.22172e-05,-2.79733e-05,1.46742e-05,-4.50389e-06,1.38235e-05,4.8762e-06,0
-2.60083e-05,2.31971e-05,-3.62404e-05,-2.48404e-05,1.51793e-05,-5.55601e-06,9.79661e-06,4.46302e-06,0
-2.55715e-05,2.49585e-05,-3.05926e-05,-2.02255e-05,1.36926e-05,-5.59104e-06,7.32872e-06,2.84993e-06,0
-2.72032e-05,2.40452e-05,-2.24521e-05,-2.04994e-05,1.00919e-05,-6.24456e-06,7.81384e-06,1.58729e-06,0
-2.80915e-05,2.27701e-05,-1.52071e-05,-2.4639e-05,7.36475e-06,-8.12355e-06,8.99655e-06,9.98439e-07,0
-2.7017e-05,2.31228e-05,-8.51514e-06,-2.61274e-05,7.78257e-06,-1.01085e-05,1.00715e-05,1.9672e-07,0
-2.68666e-05,2.42807e-05,-3.39428e-06,-2.25103e-05,1.11693e-05,-1.02172e-05,1.05078e-05,-1.87082e-06,0
-2.87779e-05,2.20788e-05,-2.00399e-06,-1.61856e-05,1.34764e-05,-8.69141e-06,1.09514e-05,-2.85732e-06,0
-2.97653e-05,1.70323e-05,-3.50881e-06,-1.33804e-05,1.27067e-05,-7.79098e-06,1.2634e-05,-1.9546e-06,0
-2.86701e-05,1.45013e-05,-4.71795e-06,-1.28961e-05,1.17383e-05,-8.55048e-06,1.27442e-05,-1.69843e-06,0
-2.76577e-05,1.54311e-05,-3.89873e-06,-1.04421e-05,1.13543e-05,-9.78296e-06,1.20653e-05,-3.27853e-06,0
-2.75101e-05,1.77589e-05,-2.87608e-06,-9.51743e-06,1.03715e-05,-1.02996e-05,1.86195e-05,-5.76498e-06,0
-2.73696e-05,2.00527e-05,-4.90848e-07,-9.97712e-06,9.21318e-06,-1.0723e-05,3.29883e-05,-7.66103e-06,0
-2.64351e-05,2.13525e-05,1.04561e-06,-8.45432e-06,9.28395e-06,-1.17009e-05,4.37167e-05,-7.45458e-06,0
-2.63201e-05,2.05497e-05,1.79674e-06,-5.69505e-06,1.06909e-05,-1.31227e-05,4.43637e-05,-7.38366e-06,0
-2.70981e-05,1.86296e-05,2.47007e-06,1.06378e-06,1.26663e-05,-1.42984e-05,3.22635e-05,-8.54393e-06,0
-2.83267e-05,1.71403e-05,2.35196e-06,1.04232e-05,1.32005e-05,-1.56713e-05,1.07179e-05,-8.66573e-06,0
-2.84426e-05,1.68206e-05,1.25509e-06,1.23401e-05,1.20564e-05,-1.73932e-05,-1.16759e-05,-7.28203e-06,0
-2.77235e-05,2.06188e-05,6.8673e-07,5.84555e-06,1.04064e-05,-1.84245e-05,-2.76369e-05,-5.60951e-06,0
-2.76844e-05,3.05485e-05,1.23503e-06,2.30621e-06,8.59063e-06,-1.78494e-05,-3.44264e-05,-3.55881e-06,0
-2.9016e-05,4.2848e-05,1.09813e-06,6.64459e-06,7.33486e-06,-1.62955e-05,-3.30716e-05,-2.60995e-06,0
-2.93873e-05,5.15645e-05,3.30224e-08,1.45664e-05,7.66763e-06,-1.52774e-05,-2.57507e-05,-4.31903e-06,0
-2.86343e-05,5.43966e-05,-1.67662e-06,2.26933e-05,1.04241e-05,-1.47021e-05,-1.56755e-05,-5.95414e-06,0
-2.82752e-05,5.16499e-05,-2.92962e-06,2.83173e-05,1.39753e-05,-1.49484e-05,-5.27587e-06,-4.89719e-06,0
-2.79686e-05,4.42774e-05,-3.97099e-06,2.65689e-05,1.55958e-05,-1.51424e-05,3.41373e-06,-2.49532e-06,0
-2.75734e-05,3.55307e-05,-5.30506e-06,1.77447e-05,1.53402e-05,-1.36239e-05,9.13835e-06,-1.01671e-06,0
-2.72199e-05,2.67038e-05,-6.37899e-06,5.88073e-06,1.43874e-05,-1.20749e-05,1.09873e-05,-1.32489e-06,0
-2.80428e-05,1.83006e-05,-5.7421e-06,-7.41775e-06,1.42477e-05,-1.11258e-05,1.2732e-05,-1.87879e-06,0
-2.97215e-05,1.10268e-05,-6.40718e-06,-2.17256e-05,1.47822e-05,-9.69537e-06,1.5312e-05,-1.76016e-06,0
-2.97966e-05,5.08105e-06,-9.2299e-06,-3.62191e-05,1.46896e-05,-8.74223e-06,1.65996e-05,-1.47631e-06,0
-2.77156e-05,2.59026e-06,-1.20852e-05,-4.52264e-05,1.39956e-05,-9.62275e-06,1.73094e-05,-1.68214e-06,0
-2.6634e-05,3.50184e-06,-1.32855e-05,-4.33288e-05,1.29904e-05,-1.16102e-05,1.81687e-05,-1.67734e-06,0
-2.72726e-05,6.85272e-06,-1.28281e-05,-3.53509e-05,1.20461e-05,-1.28232e-05,1.86681e-05,-8.35282e-07,0
-2.73029e-05,1.0708e-05,-1.099e-05,-3.03943e-05,1.14238e-05,-1.16855e-05,1.66315e-05,2.1741e-07,0
-2.79908e-05,1.18784e-05,-8.54757e-06,-2.58806e-05,1.20508e-05,-1.00752e-05,1.33835e-05,1.68862e-06,0
-2.89472e-05,1.32204e-05,-7.52861e-06,-1.62035e-05,1.43029e-05,-9.41351e-06,1.15723e-05,2.37066e-06,0
-2.93386e-05,1.55119e-05,-7.47866e-06,-8.89371e-07,1.71284e-05,-8.09164e-06,1.07031e-05,2.20335e-06,0
-3.05457e-05,1.53081e-05,-6.47457e-06,1.41688e-05,1.92505e-05,-7.66045e-06,9.89903e-06,8.32864e-07,0
-3.04661e-05,1.31257e-05,-3.15119e-06,2.07959e-05,1.91346e-05,-7.33043e-06,9.80732e-06,-8.55547e-08,0
-2.91612e-05,1.20399e-05,2.43134e-07,2.14082e-05,1.62656e-05,-5.76903e-06,1.12803e-05,4.91907e-07,0
-2.80634e-05,1.35087e-05,1.31237e-06,2.02347e-05,1.38495e-05,-3.41419e-06,1.11926e-05,2.3915e-06,0
-2.91822e-05,1.45838e-05,-6.76006e-08,1.91559e-05,1.20982e-05,-2.10571e-06,9.19224e-06,4.56553e-06,0
-3.03461e-05,1.24981e-05,-1.64774e-06,1.57695e-05,1.03723e-05,-3.24945e-06,8.91257e-06,5.15999e-06,0
-3.05963e-05,8.23822e-06,-1.93687e-06,8.58722e-06,1.01184e-05,-5.3741e-06,1.10545e-05,4.91663e-06,0
-3.03007e-05,4.72735e-06,-1.44829e-06,1.52859e-07,1.06561e-05,-6.67716e-06,1.32161e-05,4.34062e-06,0
-2.88172e-05,2.65408e-06,-1.52858e-06,-5.11064e-06,1.29054e-05,-7.19542e-06,1.41264e-05,4.22707e-06,0
-2.76292e-05,1.62658e-06,-3.12473e-06,-3.47835e-06,1.59591e-05,-7.11703e-06,1.50383e-05,3.97538e-06,0
-2.79137e-05,1.8073e-06,-5.59232e-06,1.26867e-06,1.63609e-05,-6.914e-06,1.65654e-05,3.29669e-06,0
-2.92474e-05,2.93647e-06,-7.02466e-06,2.37444e-06,1.31601e-05,-7.2433e-06,1.79327e-05,1.4266e-06,0
-2.96833e-05,4.83535e-06,-6.81607e-06,-2.63249e-06,1.04479e-05,-7.49868e-06,1.82912e-05,-1.40346e-06,0
-3.02349e-05,6.36603e-06,-6.24766e-06,-9.38492e-06,1.06956e-05,-8.01423e-06,1.8118e-05,-3.06751e-06,0
-3.2125e-05,5.82287e-06,-6.17883e-06,-1.24898e-05,1.10299e-05,-9.35064e-06,1.73455e-05,-2.5839e-06,0
-3.44104e-05,4.18488e-06,-6.16594e-06,-1.07802e-05,9.33677e-06,-1.07402e-05,1.64326e-05,-1.36605e-06,0
-3.40466e-05,3.90767e-06,-5.73452e-06,-7.65362e-06,7.11192e-06,-1.00239e-05,1.66394e-05,-5.52152e-07,0
-3.19237e-05,4.40213e-06,-5.04362e-06,-4.08864e-06,6.27106e-06,-8.57464e-06,1.68883e-05,-3.8391e-07,0
-3.17231e-05,1.97422e-06,-4.60774e-06,-1.53489e-06,8.58347e-06,-7.6965e-06,1.45285e-05,-4.06218e-08,0
-3.31335e-05,-1.18487e-07,-5.29698e-06,-2.25193e-06,1.38477e-05,-6.42341e-06,1.13601e-05,5.49826e-07,0
-3.42776e-05,2.13724e-06,-7.19301e-06,-4.87312e-06,1.84327e-05,-4.5882e-06,1.03056e-05,7.54749e-07,0
-3.48084e-05,4.90952e-06,-1.02156e-05,-6.80716e-06,2.0137e-05,-3.73612e-06,9.44477e-06,6.10284e-07,0
-3.37435e-05,4.33761e-06,-1.25051e-05,-6.1219e-06,1.94606e-05,-3.66285e-06,9.7455e-06,9.64692e-07,0
-3.18446e-05,8.58718e-07,-1.17359e-05,-4.75689e-06,1.86519e-05,-3.84227e-06,1.20378e-05,2.39422e-06,0
-3.06437e-05,-3.2195e-06,-1.01866e-05,-4.81878e-06,1.83821e-05,-5.64718e-06,1.15952e-05,2.06611e-06,0
-3.04165e-05,-7.41331e-06,-1.14088e-05,-6.35682e-06,1.6554e-05,-8.18322e-06,1.01831e-05,5.01168e-07,0
-2.90974e-05,-5.02856e-06,-1.46865e-05,-8.93954e-06,1.40824e-05,-1.02469e-05,1.06945e-05,5.52095e-07,0
-2.80123e-05,8.5049e-06,-1.71464e-05,-9.46308e-06,1.35488e-05,-1.23116e-05,1.16261e-05,1.96943e-06,0
-2.78214e-05,2.57549e-05,-1.67929e-05,-8.04027e-06,1.17191e-05,-1.48103e-05,1.34579e-05,2.06584e-06,0
-2.78065e-05,3.59921e-05,-1.40376e-05,-5.5087e-06,8.70288e-06,-1.70526e-05,1.54102e-05,2.08019e-06,0
-2.93963e-05,3.59919e-05,-1.2344e-05,-2.07766e-06,7.53105e-06,-1.63548e-05,1.57586e-05,4.74794e-06,0
-3.03947e-05,2.56341e-05,-1.34153e-05,-1.37256e-06,7.53376e-06,-1.44417e-05,1.52206e-05,7.96248e-06,0
-3.07488e-05,8.33035e-06,-1.52391e-05,-3.52906e-06,9.32128e-06,-1.32517e-05,1.5109e-05,6.83224e-06,0
-3.11013e-05,-1.09799e-05,-1.59738e-05,-6.85977e-06,1.09296e-05,-1.35391e-05,1.5604e-05,2.15419e-06,0
-3.16515e-05,-2.79878e-05,-1.65968e-05,-1.00332e-05,9.93345e-06,-1.4932e-05,1.61813e-05,-1.75165e-06,0
-3.12905e-05,-3.79076e-05,-1.91895e-05,-1.19974e-05,8.13194e-06,-1.48446e-05,1.56605e-05,-3.68984e-06,0
-3.0464e-05,-4.05042e-05,-2.22619e-05,-1.22566e-05,8.29435e-06,-1.24293e-05,1.34521e-05,-3.31458e-06,0
-3.02418e-05,-3.79915e-05,-2.30123e-05,-1.14685e-05,9.03417e-06,-9.20143e-06,1.15028e-05,-2.13833e-06,0
-3.08449e-05,-3.34482e-05,-2.08764e-05,-1.07e-05,7.9197e-06,-7.38897e-06,1.25055e-05,-6.83558e-07,0
-3.14927e-05,-2.73579e-05,-1.76834e-05,-9.9067e-06,5.40624e-06,-5.93905e-06,1.53858e-05,9.8748e-07,0
-3.15393e-05,-2.23699e-05,-1.34391e-05,-8.89135e-06,2.73815e-06,-5.19612e-06,1.59411e-05,2.09153e-06,0
-3.20902e-05,-1.8815e-05,-9.2152e-06,-8.80799e-06,1.33017e-06,-4.81245e-06,1.40068e-05,2.13773e-06,0
-3.25937e-05,-1.16555e-05,-8.37138e-06,-1.09955e-05,1.98536e-06,-4.42798e-06,1.3852e-05,1.44576e-06,0
-3.13747e-05,1.15465e-06,-1.03176e-05,-1.33798e-05,4.79577e-06,-4.97175e-06,1.54899e-05,9.68973e-07,0
-2.86948e-05,1.2018e-05,-1.18889e-05,-1.27462e-05,8.98619e-06,-6.42344e-06,1.69904e-05,1.5764e-06,0
-2.67497e-05,1.66027e-05,-1.17531e-05,-9.31199e-06,1.38497e-05,-7.92034e-06,1.79467e-05,2.7095e-06,0
-2.71443e-05,1.60603e-05,-1.15844e-05,-3.8543e-06,1.85203e-05,-9.51699e-06,1.8164e-05,4.47787e-06,0
-2.90174e-05,1.34362e-05,-1.1479e-05,2.31429e-06,2.16179e-05,-1.01412e-05,1.83772e-05,6.42953e-06,0
-3.02482e-05,1.01484e-05,-1.01732e-05,6.85545e-06,2.1242e-05,-1.0902e-05,1.80865e-05,6.49065e-06,0
-3.02122e-05,4.45531e-06,-6.68177e-06,6.82614e-06,1.70802e-05,-1.21819e-05,1.78586e-05,5.05961e-06,0
-3.00464e-05,8.77652e-08,-3.45951e-06,1.81196e-06,1.41014e-05,-1.27006e-05,1.80387e-05,6.02775e-06,0
-3.00804e-05,-3.93961e-06,-1.68966e-06,-1.72748e-06,1.44278e-05,-1.17756e-05,1.866e-05,7.27797e-06,0
-2.85332e-05,-1.05043e-05,-1.06111e-07,-1.77968e-06,1.46693e-05,-1.03678e-05,1.96196e-05,4.53025e-06,0
-2.659e-05,-1.74552e-05,2.20284e-06,3.43677e-07,1.69005e-05,-9.68254e-06,1.86572e-05,1.56686e-06,0
-2.63315e-05,-1.90075e-05,3.81512e-06,8.99733e-06,2.0413e-05,-8.9616e-06,1.70795e-05,5.94454e-07,0
-2.705e-05,-1.37981e-05,2.47474e-06,3.29397e-05,2.22428e-05,-1.10591e-05,1.54975e-05,1.07103e-06,0
-2.63381e-05,-8.57192e-06,3.59711e-07,6.09405e-05,2.27063e-05,-1.38921e-05,1.34332e-05,9.58087e-07,0
-2.70575e-05,-4.29829e-06,-1.26146e-06,6.709e-05,2.18477e-05,-1.40941e-05,8.48022e-06,-5.2904e-07,0
-2.98058e-05,1.19134e-07,-2.31539e-06,4.69816e-05,2.05599e-05,-1.31042e-05,-3.69191e-06,-2.23528e-06,0
-3.16669e-05,1.67966e-06,-3.3205e-06,1.38855e-05,2.0199e-05,-1.25636e-05,-1.98012e-05,-2.58929e-06,0
-3.16767e-05,1.98605e-06,-3.36929e-06,-1.50772e-05,2.13298e-05,-1.35778e-05,-3.0091e-05,-2.83161e-06,0
-3.14066e-05,4.73783e-06,-2.24538e-06,-3.32019e-05,2.23691e-05,-1.53761e-05,-2.87238e-05,-3.14278e-06,0
-3.19083e-05,9.14605e-06,-1.00836e-06,-4.17728e-05,2.18244e-05,-1.62703e-05,-1.93189e-05,-2.4195e-06,0
-3.21442e-05,1.266e-05,-1.01622e-06,-4.1565e-05,2.01302e-05,-1.61607e-05,-9.92354e-06,-9.43231e-07,0
-3.23093e-05,1.51886e-05,-2.43767e-06,-3.07921e-05,1.96292e-05,-1.64296e-05,-4.2965e-06,7.64604e-07,0
-3.15371e-05,1.76803e-05,-3.13729e-06,-1.33433e-05,2.04821e-05,-1.7575e-05,-7.84529e-09,1.34662e-06,0
-3.03903e-05,2.04563e-05,-1.35064e-06,-8.81084e-07,2.12986e-05,-1.81834e-05,5.5431e-06,7.84646e-07,0
-2.98641e-05,2.22859e-05,2.23129e-06,-6.93343e-08,2.06956e-05,-1.78078e-05,1.10464e-05,-5.72796e-07,0
-3.05962e-05,2.3579e-05,4.4679e-06,-8.52127e-06,1.82357e-05,-1.69086e-05,1.45844e-05,-1.5784e-06,0
-3.14299e-05,2.55915e-05,4.35439e-06,-1.82731e-05,1.48644e-05,-1.58768e-05,1.73656e-05,-2.59844e-06,0
-3.18011e-05,2.79659e-05,1.25561e-06,-2.28359e-05,1.24838e-05,-1.64782e-05,1.94753e-05,-2.95847e-06,0
-3.14458e-05,2.99087e-05,-3.13724e-06,-2.19767e-05,1.19989e-05,-1.81285e-05,2.14231e-05,-1.70513e-06,0
-3.1237e-05,3.00744e-05,-4.68774e-06,-2.01754e-05,1.19031e-05,-1.77089e-05,2.34216e-05,7.71001e-07,0
-3.06597e-05,2.93777e-05,-3.19196e-06,-1.78105e-05,1.11661e-05,-1.5718e-05,2.47886e-05,1.07174e-06,0
-2.99819e-05,2.9408e-05,-2.43947e-06,-1.43487e-05,1.00442e-05,-1.2063e-05,2.56681e-05,-1.82977e-06,0
-2.99469e-05,2.99445e-05,-2.87551e-06,-1.15167e-05,9.49636e-06,-6.73424e-06,2.58434e-05,-4.24984e-06,0
-2.98217e-05,3.01227e-05,-3.93302e-06,-1.39217e-05,1.09846e-05,-3.46362e-06,2.57139e-05,-4.59434e-06,0
-2.97888e-05,2.89341e-05,-7.5612e-06,-1.92321e-05,1.50153e-05,-4.45318e-06,2.4604e-05,-4.34958e-06,0
-2.96537e-05,2.85608e-05,-1.29178e-05,-2.26108e-05,2.07743e-05,-7.29626e-06,2.24006e-05,-4.50853e-06,0
-2.95081e-05,2.93032e-05,-1.65124e-05,-2.27535e-05,2.42925e-05,-8.70683e-06,2.09788e-05,-3.80934e-06,0
-2.97721e-05,2.98222e-05,-1.79136e-05,-1.9398e-05,2.36161e-05,-7.98637e-06,1.95266e-05,-8.46972e-07,0
-3.17194e-05,2.82315e-05,-1.83986e-05,-1.42631e-05,2.16885e-05,-6.73669e-06,1.54501e-05,1.33402e-06,0
-3.25132e-05,2.55017e-05,-1.63085e-05,-8.54522e-06,2.11853e-05,-7.31627e-06,1.08671e-05,2.4146e-07,0
-3.02725e-05,2.51846e-05,-1.24673e-05,-4.52488e-06,2.28059e-05,-8.90612e-06,9.17686e-06,-8.02484e-07,0
-2.76596e-05,2.70625e-05,-8.86059e-06,-2.87824e-06,2.47147e-05,-9.81385e-06,9.38923e-06,1.02257e-06,0
-2.69349e-05,3.13621e-05,-7.29618e-06,-3.46692e-06,2.46354e-05,-9.33533e-06,1.0111e-05,3.50136e-06,0
-2.70435e-05,3.48288e-05,-8.04377e-06,-4.54484e-06,2.22999e-05,-8.18168e-06,1.09575e-05,3.36048e-06,0
-2.65999e-05,3.52926e-05,-9.85438e-06,-6.20096e-06,1.99783e-05,-7.62556e-06,1.07482e-05,2.94923e-06,0
-2.604e-05,3.24933e-05,-1.16493e-05,-7.68965e-06,1.81434e-05,-8.10414e-06,9.47463e-06,3.3984e-06,0
-2.63355e-05,2.86511e-05,-1.23625e-05,-6.92681e-06,1.61072e-05,-9.05919e-06,8.28122e-06,3.71383e-06,0
-2.76113e-05,2.63815e-05,-1.28088e-05,-3.16269e-06,1.54822e-05,-9.05615e-06,8.28594e-06,3.73834e-06,0
-2.91075e-05,2.60279e-05,-1.33048e-05,1.67851e-06,1.76928e-05,-6.84528e-06,9.11363e-06,4.11651e-06,0
-3.09039e-05,2.53952e-05,-1.41524e-05,4.58732e-06,2.04206e-05,-4.3265e-06,9.33994e-06,4.21916e-06,0
-3.23134e-05,2.30356e-05,-1.52879e-05,4.70454e-06,2.04849e-05,-3.52549e-06,8.83299e-06,3.30446e-06,0
-3.26901e-05,2.12248e-05,-1.62873e-05,3.66451e-06,1.84704e-05,-2.86507e-06,8.59448e-06,1.8144e-06,0
-3.32385e-05,2.08572e-05,-1.61072e-05,3.16247e-06,1.59885e-05,-1.55196e-06,8.92785e-06,8.65313e-07,0
-3.36817e-05,2.17736e-05,-1.45884e-05,1.5734e-06,1.37475e-05,-4.42208e-07,1.01345e-05,1.21988e-06,0
-3.30334e-05,2.26619e-05,-1.29162e-05,-8.38673e-07,1.24573e-05,-6.44044e-07,1.26806e-05,2.18515e-06,0
-3.21522e-05,2.38275e-05,-1.32028e-05,-2.65224e-06,1.15778e-05,-2.00804e-06,1.46024e-05,3.61802e-06,0
-3.18809e-05,2.53704e-05,-1.5462e-05,-3.82913e-06,1.11011e-05,-4.27735e-06,1.56163e-05,4.60133e-06,0
-3.21662e-05,2.67704e-05,-1.6343e-05,-4.5318e-06,1.12519e-05,-5.8527e-06,1.68986e-05,4.46666e-06,0
-3.0261e-05,2.82629e-05,-1.57228e-05,-4.6342e-06,1.16111e-05,-5.58741e-06,1.84338e-05,3.01376e-06,0
-2.76327e-05,2.97912e-05,-1.31408e-05,-5.93802e-06,1.24528e-05,-5.49532e-06,1.92333e-05,2.42514e-06,0
-2.67595e-05,2.98114e-05,-9.14527e-06,-8.07004e-06,1.14665e-05,-4.48452e-06,1.86521e-05,4.5049e-06,0
-2.79458e-05,2.93632e-05,-8.28946e-06,-1.01925e-05,8.0069e-06,-2.64699e-06,1.83441e-05,5.68509e-06,0
-2.94006e-05,2.92678e-05,-7.86883e-06,-1.26929e-05,5.53888e-06,-1.20834e-06,1.68838e-05,4.64316e-06,0
-3.00132e-05,2.78318e-05,-7.11314e-06,-1.18948e-05,4.50299e-06,-1.63989e-06,1.57438e-05,4.02325e-06,0
-3.11389e-05,2.50884e-05,-8.50379e-06,-7.78622e-06,5.15381e-06,-4.79143e-06,1.59969e-05,4.97508e-06,0
-3.10621e-05,2.29503e-05,-9.85591e-06,-3.61601e-06,6.23731e-06,-6.66019e-06,1.66597e-05,7.51821e-06,0
-3.08504e-05,2.12927e-05,-9.98229e-06,-1.17859e-06,5.59208e-06,-6.9715e-06,1.78047e-05,9.26888e-06,0
-3.04922e-05,1.87083e-05,-9.24418e-06,-6.87987e-07,4.54371e-06,-6.24867e-06,1.72981e-05,8.45167e-06,0
-3.0942e-05,1.77201e-05,-9.76106e-06,5.11702e-07,4.46124e-06,-5.6309e-06,1.45237e-05,6.05736e-06,0
-3.14617e-05,1.87791e-05,-1.17389e-05,2.68242e-06,5.29155e-06,-5.93589e-06,1.13894e-05,5.19064e-06,0
-3.10618e-05,1.92856e-05,-1.32464e-05,4.17159e-06,5.70826e-06,-6.54611e-06,1.17455e-05,4.02175e-06,0
-3.03663e-05,1.85831e-05,-1.30716e-05,4.34514e-06,4.57279e-06,-6.42712e-06,1.37517e-05,2.27898e-06,0
-2.90419e-05,1.79984e-05,-1.22363e-05,3.83723e-06,2.72031e-06,-4.99607e-06,1.52243e-05,2.3672e-06,0
-2.82052e-05,1.83055e-05,-1.04447e-05,1.566e-06,2.5303e-06,-4.27951e-06,1.57193e-05,3.29062e-06,0
-2.85483e-05,1.81642e-05,-8.6611e-06,-2.1538e-06,3.29196e-06,-5.41068e-06,1.5725e-05,4.52785e-06,0
-3.05463e-05,1.76563e-05,-8.22235e-06,-5.79167e-06,2.62772e-06,-7.59134e-06,1.63837e-05,4.53248e-06,0
-3.21512e-05,1.74374e-05,-7.4977e-06,-8.21449e-06,1.14703e-06,-9.05839e-06,1.75052e-05,2.91772e-06,0
-3.21937e-05,1.8487e-05,-5.29753e-06,-7.21776e-06,1.651e-06,-8.82622e-06,1.8453e-05,1.65755e-06,0
-3.10024e-05,2.01946e-05,-3.31242e-06,-2.99203e-06,3.65866e-06,-6.59803e-06,1.7966e-05,2.86989e-06,0
-3.03612e-05,2.08633e-05,-3.48678e-06,2.23218e-06,5.3877e-06,-4.7534e-06,1.64318e-05,4.51071e-06,0
-3.07596e-05,2.02842e-05,-4.28508e-06,5.53193e-06,5.84092e-06,-4.00206e-06,1.49201e-05,4.60155e-06,0
-3.11271e-05,1.81374e-05,-4.57694e-06,6.29912e-06,6.67998e-06,-3.15279e-06,1.3612e-05,3.19323e-06,0
-3.055e-05,1.51079e-05,-4.17316e-06,5.70295e-06,9.08872e-06,-2.70102e-06,1.29412e-05,1.87231e-06,0
-2.9279e-05,1.29356e-05,-3.58926e-06,2.19572e-06,1.01587e-05,-3.76369e-06,1.42349e-05,1.53353e-06,0
-2.86056e-05,1.04093e-05,-4.07976e-06,-3.60935e-06,9.80249e-06,-5.56251e-06,1.5111e-05,2.05403e-06,0
-2.81543e-05,5.04696e-06,-6.74626e-06,-8.11489e-06,9.44725e-06,-7.13222e-06,1.37729e-05,4.33728e-06,0
-2.79374e-05,9.9028e-07,-8.9285e-06,-1.08447e-05,8.46903e-06,-8.1809e-06,1.22636e-05,7.21589e-06,0
-2.93284e-05,-1.33372e-06,-9.28809e-06,-1.20665e-05,6.93941e-06,-7.71336e-06,1.26495e-05,7.94007e-06,0
-3.0378e-05,-3.4019e-06,-1.02701e-05,-1.16026e-05,9.32932e-06,-6.63597e-06,1.31104e-05,8.63106e-06,0
-3.03475e-05,-4.19317e-06,-9.60257e-06,-6.9609e-06,1.49821e-05,-7.52057e-06,1.36947e-05,8.95007e-06,0
-3.04114e-05,-4.3143e-06,-7.31305e-06,-1.85838e-06,1.79914e-05,-9.05918e-06,1.45485e-05,8.68263e-06,0
-2.89558e-05,-4.70741e-06,-5.39983e-06,-7.49716e-07,1.65394e-05,-1.00396e-05,1.45724e-05,9.04666e-06,0
-2.74128e-05,-5.05749e-06,-5.28851e-06,-1.3696e-06,1.38629e-05,-1.06382e-05,1.45161e-05,7.77799e-06,0
-2.7116e-05,-4.22417e-06,-6.8452e-06,-4.70236e-06,1.24908e-05,-1.00724e-05,1.37633e-05,5.00162e-06,0
-2.78031e-05,-4.1457e-06,-7.79583e-06,-1.22709e-05,1.10065e-05,-9.70635e-06,1.31769e-05,1.94179e-06,0
-2.96209e-05,-3.6272e-06,-7.92155e-06,-1.87082e-05,9.29498e-06,-1.00285e-05,1.21477e-05,9.99907e-07,0
-3.07743e-05,-1.02751e-06,-6.73262e-06,-2.19423e-05,8.1482e-06,-1.16423e-05,1.01335e-05,1.18419e-06,0
-3.01002e-05,4.36846e-06,-6.74085e-06,-2.25625e-05,8.41494e-06,-1.24643e-05,8.44857e-06,9.37072e-07,0
-2.84429e-05,1.14859e-05,-7.40135e-06,-2.04304e-05,1.00499e-05,-1.12305e-05,6.47765e-06,-3.51216e-07,0
-2.68587e-05,1.73958e-05,-6.16644e-06,-1.70403e-05,1.1713e-05,-1.01053e-05,3.29292e-06,-2.52604e-06,0
-2.57865e-05,1.99883e-05,-3.27967e-06,-1.29282e-05,1.18235e-05,-1.03087e-05,-2.0296e-06,-5.90946e-06,0
-2.56665e-05,1.7788e-05,-1.25534e-06,-1.06278e-05,1.14559e-05,-1.07197e-05,-9.42538e-06,-7.90754e-06,0
-2.58833e-05,1.11244e-05,-1.46319e-06,-9.08857e-06,1.1911e-05,-1.01081e-05,-1.5066e-05,-7.67153e-06,0
-2.65317e-05,1.58593e-06,-2.04533e-06,-4.5363e-06,1.27506e-05,-9.48385e-06,-1.44492e-05,-7.78355e-06,0
-2.75956e-05,-7.6465e-06,-1.17188e-06,3.83132e-06,1.43517e-05,-9.22459e-06,-8.52766e-06,-8.32713e-06,0
-2.82922e-05,-1.36179e-05,-5.11731e-07,1.16606e-05,1.6595e-05,-9.05567e-06,-9.7754e-07,-8.15391e-06,0
-2.89474e-05,-1.44698e-05,-1.88732e-06,1.56955e-05,1.87415e-05,-8.32169e-06,8.53448e-06,-6.48392e-06,0
-2.9546e-05,-1.08578e-05,-4.83064e-06,1.58944e-05,1.94448e-05,-7.7696e-06,2.39891e-05,-5.84932e-06,0
-2.96665e-05,-5.14989e-06,-8.33401e-06,1.49598e-05,1.88397e-05,-9.30078e-06,4.87267e-05,-6.36254e-06,0
-3.05073e-05,-1.23349e-06,-9.23275e-06,1.32635e-05,1.94082e-05,-1.19905e-05,7.92395e-05,-5.87963e-06,0
-3.2434e-05,-4.97811e-07,-8.4262e-06,9.79726e-06,2.06503e-05,-1.18899e-05,0.000103354,-5.19078e-06,0
-3.23268e-05,-9.50598e-07,-6.39827e-06,5.51303e-06,1.90699e-05,-9.89733e-06,0.00011048,-6.2486e-06,0
-3.05247e-05,-2.13467e-06,-4.70296e-06,1.01047e-06,1.63428e-05,-8.84038e-06,0.000101923,-6.98637e-06,0
-2.93736e-05,-4.30265e-06,-7.21865e-06,-2.27735e-06,1.53336e-05,-8.93671e-06,8.05591e-05,-7.39725e-06,0
-2.88219e-05,-4.03717e-06,-1.1819e-05,-5.03805e-06,1.523e-05,-1.01205e-05,4.65609e-05,-7.12756e-06,0
-2.95331e-05,-1.96794e-06,-1.41805e-05,-9.18951e-06,1.5964e-05,-1.13897e-05,1.31054e-05,-4.32196e-06,0
-3.21266e-05,-4.21107e-07,-1.49005e-05,-1.47432e-05,1.79783e-05,-1.16843e-05,-1.59675e-05,-5.02872e-08,0
-3.18767e-05,1.2925e-06,-1.58129e-05,-2.10375e-05,1.96492e-05,-1.12603e-05,-4.63027e-05,2.05481e-06,0
-2.87893e-05,3.15647e-06,-1.79453e-05,-2.50214e-05,1.85109e-05,-1.10331e-05,-6.93168e-05,6.99426e-07,0
-2.80283e-05,5.18771e-06,-2.10642e-05,-2.56922e-05,1.58895e-05,-1.06436e-05,-7.6982e-05,3.88931e-07,0
-2.95735e-05,6.48173e-06,-2.20976e-05,-2.58026e-05,1.42589e-05,-9.51122e-06,-6.73817e-05,1.42483e-06,0
-3.00886e-05,8.07339e-06,-2.04005e-05,-2.29935e-05,1.50352e-05,-7.76543e-06,-5.10237e-05,2.18499e-06,0
-2.95968e-05,8.76982e-06,-1.58913e-05,-1.70457e-05,1.67694e-05,-7.77593e-06,-3.76303e-05,2.45843e-06,0
-3.04178e-05,9.70699e-06,-9.7703e-06,-1.06401e-05,1.65338e-05,-9.3899e-06,-2.76233e-05,2.5082e-06,0
-3.18359e-05,1.22887e-05,-3.68236e-06,-3.81749e-06,1.50566e-05,-1.18862e-05,-1.8625e-05,1.93037e-06,0
