ch1,ch2,ch3,ch4,ch5,ch6,ch7,ch8,class
3.98103e-05,0.000173879,-1.27082e-05,-3.51361e-05,-2.4406e-05,1.49072e-05,1.02936e-05,7.64959e-06,0
4.65664e-05,0.00015394,-8.33292e-06,-6.12709e-05,1.38389e-05,1.17357e-05,-2.90485e-05,7.43833e-06,0
5.21158e-05,0.000112805,-3.26867e-06,-7.17236e-05,4.92528e-05,2.5423e-06,-5.42862e-05,9.32147e-06,0
3.55493e-05,2.79172e-05,-1.25958e-06,-8.08878e-05,6.25359e-05,-2.48842e-06,-5.45736e-05,9.76021e-06,0
-1.7113e-06,-0.000111876,-2.33875e-06,-8.83854e-05,5.16122e-05,-4.60421e-06,-3.96828e-05,8.06932e-06,0
-4.27867e-05,-0.000229187,-3.89094e-06,-7.58314e-05,3.60315e-05,-8.99869e-06,-1.81183e-05,6.46217e-06,0
-6.94928e-05,-0.000252774,-1.77942e-06,-3.93775e-05,2.6904e-05,-1.69645e-05,5.1552e-06,4.13451e-06,0
-8.74587e-05,-0.000196802,3.56305e-06,4.13978e-06,2.22651e-05,-2.56518e-05,1.93846e-05,6.63264e-07,0
-0.000113916,-0.00012284,7.17548e-06,2.78618e-05,1.60211e-05,-3.8617e-05,1.41848e-05,-1.06627e-06,0
-0.00014763,-7.91246e-05,4.12124e-06,1.54739e-05,9.37449e-07,-5.29203e-05,-4.70304e-06,-5.22594e-07,0
-0.000160643,-6.10673e-05,-4.82227e-06,-2.35664e-05,-2.43107e-05,-5.02544e-05,-1.94032e-05,1.50253e-06,0
-0.000131592,-3.4919e-05,-1.25161e-05,-6.29416e-05,-5.19463e-05,-1.98637e-05,-2.49531e-05,3.74772e-06,0
-7.42902e-05,2.13893e-06,-1.39908e-05,-8.59532e-05,-6.28972e-05,1.55678e-05,-2.87599e-05,5.89103e-06,0
-2.00098e-05,2.30144e-05,-1.11573e-05,-9.22144e-05,-3.85597e-05,2.16963e-05,-3.3158e-05,7.35011e-06,0
9.35885e-06,2.26613e-05,-7.56486e-06,-9.09032e-05,1.09297e-05,-5.3936e-06,-2.86493e-05,6.96014e-06,0
1.7627e-05,1.70681e-05,-7.78563e-06,-9.26246e-05,4.39121e-05,-4.41986e-05,-9.68916e-06,4.91019e-06,0
1.86355e-05,-1.1895e-05,-1.46293e-05,-9.99391e-05,4.21294e-05,-6.78038e-05,1.76266e-05,3.59365e-06,0
1.72237e-05,-9.15914e-05,-2.21687e-05,-0.000107883,2.64364e-05,-5.92438e-05,4.07957e-05,3.8439e-06,0
4.46671e-06,-0.000182287,-2.38871e-05,-0.000109157,1.63571e-05,-3.69986e-05,5.35584e-05,3.62891e-06,0
-2.01377e-05,-0.000206421,-2.25789e-05,-8.6437e-05,1.25028e-05,-2.99419e-05,5.88721e-05,2.40715e-06,0
-4.07696e-05,-0.000137806,-2.15427e-05,-2.84096e-05,1.17529e-05,-3.22337e-05,5.65869e-05,7.89109e-07,0
-4.44093e-05,-1.58789e-05,-1.88014e-05,4.96655e-05,1.23581e-05,-2.52989e-05,4.33238e-05,-2.95235e-07,0
-4.40334e-05,6.25843e-05,-1.36268e-05,0.000126252,1.36749e-05,-1.17e-05,2.66023e-05,-8.43934e-07,0
-5.59872e-05,5.14564e-05,-8.05243e-06,0.000194212,1.53258e-05,-5.19795e-06,2.31375e-05,-9.85485e-07,0
-6.58945e-05,-1.64726e-06,-6.32942e-06,0.000239778,2.37583e-05,-7.39374e-06,3.45248e-05,-1.15983e-06,0
-5.70269e-05,-3.22255e-05,-8.55903e-06,0.000232349,4.45218e-05,-8.15361e-06,4.57805e-05,5.65497e-06,0
-4.18896e-05,-3.16397e-05,-8.32612e-06,0.000181689,6.44435e-05,5.84049e-07,4.52543e-05,2.52037e-05,0
-3.7656e-05,-2.60235e-05,-3.72374e-06,0.000134672,7.10519e-05,1.33836e-05,3.37423e-05,4.2069e-05,0
-5.60382e-05,-3.20067e-05,1.82013e-06,0.000114824,7.58316e-05,2.37885e-05,1.30989e-05,4.58186e-05,0
-8.97056e-05,-6.50949e-05,4.5694e-06,0.000111244,8.16907e-05,2.93388e-05,-1.41536e-05,3.97768e-05,0
-0.000114303,-8.10238e-05,7.35374e-06,0.00010613,7.56638e-05,1.57012e-05,-3.26314e-05,2.17931e-05,0
-0.000115062,-3.60027e-05,1.50141e-05,9.5406e-05,6.13901e-05,-1.45941e-05,-2.94487e-05,-4.05917e-06,0
-9.61058e-05,6.01433e-05,2.16748e-05,7.54375e-05,4.53131e-05,-3.93144e-05,-7.84825e-06,-2.7654e-05,0
-7.64512e-05,0.000153761,2.08468e-05,5.09765e-05,2.68726e-05,-5.0956e-05,2.11104e-05,-4.24107e-05,0
-6.42391e-05,0.000203709,1.45037e-05,2.44107e-05,1.48049e-05,-5.17109e-05,4.88689e-05,-4.81151e-05,0
-5.59766e-05,0.000206182,8.2515e-06,-1.06075e-05,1.93688e-05,-4.21824e-05,7.05372e-05,-4.56055e-05,0
-4.68236e-05,0.000174559,3.40137e-06,-4.90406e-05,4.02137e-05,-2.28159e-05,8.8547e-05,-3.80732e-05,0
-4.11663e-05,0.000124047,-5.76595e-07,-7.28513e-05,5.94889e-05,7.73214e-06,0.000110544,-3.02414e-05,0
-3.9549e-05,7.3427e-05,-2.93665e-06,-7.46053e-05,6.44117e-05,4.00249e-05,0.000126977,-2.19268e-05,0
-3.42154e-05,5.20215e-05,-3.21653e-06,-6.17406e-05,7.1847e-05,4.7239e-05,0.000112748,-1.3079e-05,0
-2.41686e-05,5.82269e-05,-2.61168e-06,-4.20085e-05,9.41018e-05,2.84403e-05,6.05703e-05,-5.11542e-06,0
-2.63944e-05,7.16457e-05,-4.02076e-06,-2.44978e-05,0.000111441,4.39702e-06,-5.32634e-06,-7.41156e-07,0
-5.35014e-05,7.64135e-05,-7.28882e-06,-1.55104e-05,0.000100887,-1.50507e-05,-5.6037e-05,7.30413e-07,0
-9.16769e-05,7.99851e-05,-9.99548e-06,-1.30244e-05,7.0816e-05,-2.63255e-05,-7.80519e-05,2.12284e-06,0
-0.000115552,9.76994e-05,-1.05813e-05,-7.57285e-06,4.17515e-05,-2.45736e-05,-7.3611e-05,4.38207e-06,0
-0.000107128,0.000126921,-1.00657e-05,3.12921e-06,3.17426e-05,-1.12987e-05,-5.54188e-05,6.29727e-06,0
-5.99634e-05,0.00013868,-1.02663e-05,9.53545e-06,4.39165e-05,1.05594e-05,-3.46052e-05,7.32742e-06,0
4.38992e-06,0.000125168,-1.05952e-05,-1.0769e-06,5.69715e-05,3.39219e-05,-1.63479e-05,7.3503e-06,0
4.36453e-05,9.79228e-05,-1.20713e-05,-2.29743e-05,5.43754e-05,3.22205e-05,-6.50956e-06,7.85777e-06,0
5.79895e-05,5.71707e-05,-1.44181e-05,-4.31855e-05,3.40769e-05,4.50675e-06,-2.74582e-06,8.93223e-06,0
6.29251e-05,-9.12309e-06,-1.65379e-05,-5.80251e-05,7.96846e-06,-2.00957e-05,1.23981e-06,8.125e-06,0
5.45652e-05,-9.75276e-05,-1.98729e-05,-6.62509e-05,-1.1709e-05,-3.0835e-05,3.25913e-06,6.06262e-06,0
3.70847e-05,-0.000131329,-2.26085e-05,-6.84036e-05,-2.59934e-05,-4.07898e-05,-1.86132e-06,5.19232e-06,0
1.69416e-05,-8.42438e-05,-2.44557e-05,-6.79654e-05,-3.28575e-05,-5.84172e-05,-8.32715e-06,5.6191e-06,0
5.68624e-06,-1.8003e-05,-2.38893e-05,-6.55572e-05,-2.56431e-05,-6.94507e-05,-8.09337e-06,5.37361e-06,0
3.28903e-06,2.92632e-05,-2.0742e-05,-5.65816e-05,-1.34232e-05,-6.38344e-05,-4.40153e-06,3.61174e-06,0
4.76511e-07,4.21851e-05,-1.84915e-05,-3.53333e-05,-2.28706e-06,-4.40425e-05,1.00999e-08,9.70365e-07,0
-3.1019e-06,3.70395e-05,-1.70668e-05,-4.93198e-06,1.53128e-05,-4.24505e-06,3.66014e-06,-4.84303e-07,0
-4.24513e-06,3.28536e-05,-1.19818e-05,2.50761e-05,3.59971e-05,4.16246e-05,5.52419e-06,6.74686e-07,0
-1.16803e-06,4.40941e-05,-2.99561e-06,4.50068e-05,5.54731e-05,4.96231e-05,5.55444e-06,3.74118e-06,0
5.84256e-06,6.60742e-05,7.50368e-06,5.01092e-05,6.69814e-05,1.4946e-05,5.29004e-06,6.38785e-06,0
1.34931e-05,8.10463e-05,1.8716e-05,4.72288e-05,6.47875e-05,-2.34003e-05,3.28882e-06,6.79395e-06,0
1.25915e-05,7.16214e-05,3.05471e-05,4.18076e-05,4.68623e-05,-4.38129e-05,-1.47464e-06,5.29711e-06,0
3.23931e-06,2.7464e-05,4.66648e-05,3.23876e-05,1.53149e-05,-4.70619e-05,-1.01772e-05,4.11663e-06,0
-8.35917e-06,-4.93567e-05,6.64828e-05,1.52555e-05,-2.15589e-05,-4.56439e-05,-3.84055e-05,3.81524e-06,0
-1.69139e-05,-0.000142316,8.23313e-05,-5.35991e-06,-5.30185e-05,-4.08744e-05,-0.000106819,3.00816e-06,0
-2.22038e-05,-0.000189951,8.47682e-05,-2.1738e-05,-7.08026e-05,-2.6088e-05,-0.000187602,1.4145e-06,0
-2.52106e-05,-0.000135655,6.96523e-05,-3.0543e-05,-7.16645e-05,5.70323e-06,-0.000210361,-2.69204e-07,0
-2.96402e-05,-1.87866e-06,3.68885e-05,-3.39483e-05,-5.72186e-05,4.82989e-05,-0.000148617,-7.09323e-07,0
-3.6017e-05,0.000105173,-8.2376e-06,-3.49477e-05,-4.3925e-05,6.53086e-05,-4.44677e-05,8.06027e-08,0
-4.07283e-05,0.000117688,-5.52997e-05,-3.44528e-05,-4.77055e-05,3.90938e-05,4.15986e-05,4.70151e-07,0
-4.37849e-05,5.18001e-05,-9.05002e-05,-3.12575e-05,-6.26902e-05,7.1433e-06,8.467e-05,9.79082e-08,0
-5.20527e-05,-2.65476e-05,-0.000103229,-2.89945e-05,-6.62917e-05,1.96526e-06,0.00010149,-1.12715e-06,0
-7.23998e-05,-5.82826e-05,-9.51e-05,-3.57175e-05,-4.71891e-05,1.12648e-05,0.00011303,-2.86323e-06,0
-9.27797e-05,-4.41388e-05,-7.78777e-05,-4.79457e-05,-1.85896e-05,1.85117e-05,0.000121528,-3.29223e-06,0
-9.09608e-05,-3.05021e-06,-6.45842e-05,-5.25254e-05,-6.23969e-06,1.86596e-05,0.000129333,-4.08451e-06,0
-5.25891e-05,5.16801e-05,-5.69483e-05,-4.59235e-05,-1.00484e-05,1.44283e-05,0.000147987,-5.83433e-06,0
6.67906e-06,7.73792e-05,-4.86757e-05,-3.51591e-05,-1.27802e-05,3.72568e-06,0.000166755,-5.91317e-06,0
5.51063e-05,7.32425e-05,-3.74212e-05,-2.52464e-05,-1.46352e-05,-1.57401e-05,0.000180313,-4.8817e-06,0
5.61823e-05,5.62541e-05,-2.89665e-05,-1.77138e-05,-2.39283e-05,-2.85036e-05,0.000209412,-3.11181e-06,0
1.82608e-05,3.13054e-05,-2.67584e-05,-7.30077e-06,-3.36876e-05,-2.77554e-05,0.000247627,-1.94733e-06,0
2.46304e-06,-3.14271e-06,-2.57488e-05,8.94422e-06,-2.59799e-05,-2.40392e-05,0.000256496,-1.96532e-06,0
3.10833e-05,-5.56902e-05,-2.04146e-05,2.74168e-05,4.05429e-06,-1.34137e-05,0.00020055,-1.91346e-06,0
7.35656e-05,-9.6883e-05,-9.87221e-06,4.01282e-05,3.00859e-05,-3.90502e-07,8.96042e-05,-9.31583e-07,0
7.85084e-05,-0.000104425,3.24372e-06,3.9793e-05,2.88906e-05,1.55109e-05,-3.67989e-05,5.55883e-07,0
3.80173e-05,-8.8939e-05,1.7809e-05,3.29025e-05,5.50323e-05,3.19996e-05,-0.00013293,3.25694e-07,0
-3.00409e-05,-6.39994e-05,3.17908e-05,3.27983e-05,0.000128008,2.42826e-05,-0.000171169,-8.35023e-07,0
-8.84307e-05,-1.98167e-05,4.56914e-05,4.16685e-05,0.000159286,-9.64861e-06,-0.000161027,-7.95042e-07,0
-0.000101326,4.43326e-05,5.67244e-05,5.27574e-05,0.000111305,-4.32796e-05,-0.000127282,3.75291e-07,0
-9.27979e-05,9.06329e-05,5.78038e-05,5.62691e-05,2.6401e-05,-5.91783e-05,-9.11427e-05,2.49305e-06,0
-9.81361e-05,7.98601e-05,4.62806e-05,4.8544e-05,-4.46681e-05,-6.20757e-05,-5.90783e-05,3.73052e-06,0
-0.000106492,3.09563e-05,2.32355e-05,3.5137e-05,-8.68315e-05,-5.58026e-05,-3.38071e-05,2.79667e-06,0
-8.23601e-05,-7.09238e-06,-7.18269e-06,2.2869e-05,-9.96816e-05,-3.80145e-05,-1.65678e-05,2.41022e-06,0
-3.5389e-05,-7.68987e-06,-3.75004e-05,1.63168e-05,-7.906e-05,-1.50569e-05,-9.79845e-06,3.79127e-06,0
3.45696e-06,1.1346e-05,-5.81175e-05,1.13233e-05,-3.66673e-05,-4.9217e-06,-9.09648e-06,5.19007e-06,0
2.1467e-05,2.62257e-05,-6.60918e-05,-1.34426e-06,9.76677e-07,-1.33176e-06,-7.35447e-06,5.32165e-06,0
2.1703e-05,3.13226e-05,-6.538e-05,-2.11573e-05,1.5138e-05,2.73706e-05,-1.05478e-06,4.51146e-06,0
-5.07559e-07,3.0923e-05,-5.93953e-05,-3.83586e-05,1.44214e-05,6.8702e-05,8.07101e-06,3.46636e-06,0
-3.72263e-05,2.77943e-05,-4.8054e-05,-4.92994e-05,8.02466e-06,4.89155e-05,1.80155e-05,3.87839e-06,0
-7.15432e-05,2.18643e-05,-3.63265e-05,-5.42265e-05,-1.34936e-06,-3.31577e-05,2.67549e-05,5.70165e-06,0
-0.000104096,1.36593e-05,-2.88924e-05,-5.30309e-05,-8.7126e-06,-8.52821e-05,3.17004e-05,7.06816e-06,0
-0.000133993,1.12578e-05,-2.43908e-05,-4.54824e-05,-5.11532e-06,-7.44462e-05,3.31852e-05,6.85765e-06,0
-0.000144261,2.7906e-05,-1.92583e-05,-3.14699e-05,9.69876e-06,-4.54083e-05,3.13297e-05,6.71316e-06,0
-0.00012454,5.38922e-05,-1.57478e-05,-1.92849e-05,3.66993e-05,-2.89249e-05,2.79553e-05,6.41972e-06,0
-8.77558e-05,6.23057e-05,-1.72842e-05,-2.07658e-05,7.27405e-05,-2.29977e-05,2.24217e-05,4.4111e-06,0
-4.74266e-05,3.26798e-05,-1.95381e-05,-3.31971e-05,0.000115587,-2.04769e-05,7.37528e-06,3.74651e-06,0
-2.20753e-05,-2.5499e-05,-1.49836e-05,-3.94081e-05,0.000115781,-1.85905e-05,-2.00505e-05,4.87414e-06,0
-1.86134e-05,-6.77026e-05,-2.32907e-06,-3.07569e-05,5.47194e-05,-1.76315e-05,-6.92416e-05,6.26102e-06,0
-1.41835e-05,-6.73862e-05,1.61172e-05,-1.83936e-05,-1.43606e-06,-1.86312e-05,-0.000126039,8.60856e-06,0
-4.98601e-06,-3.50425e-05,3.54686e-05,-1.2809e-05,-2.26371e-05,-2.20076e-05,-0.000135352,9.78654e-06,0
-3.24645e-06,1.05412e-05,4.51649e-05,-1.70061e-05,-1.27323e-05,-2.65863e-05,-7.69676e-05,9.51288e-06,0
-7.31486e-06,4.12472e-05,4.14472e-05,-2.45467e-05,4.93387e-06,-2.61266e-05,1.25056e-05,1.00615e-05,0
-6.67295e-06,5.0099e-05,2.68847e-05,-2.82995e-05,1.02353e-05,-2.09256e-05,8.14546e-05,9.63249e-06,0
2.12131e-06,4.59398e-05,8.522e-06,-2.80456e-05,-3.19517e-06,-1.73611e-05,0.000114052,8.77818e-06,0
6.6392e-06,4.42595e-05,-9.75087e-06,-2.04619e-05,-2.60989e-05,-1.73825e-05,0.000117207,8.58552e-06,0
-7.76774e-06,5.10656e-05,-2.55995e-05,-7.3258e-06,-4.44446e-05,-2.17082e-05,0.000105765,7.50409e-06,0
-4.45939e-05,4.90252e-05,-3.53464e-05,3.84201e-07,-4.59504e-05,-2.21947e-05,8.62347e-05,4.89845e-06,0
-8.07586e-05,1.24351e-05,-3.67392e-05,-6.09556e-06,-2.87007e-05,-4.6694e-06,6.0521e-05,1.03843e-06,0
-8.22322e-05,-5.44919e-05,-3.27936e-05,-1.98609e-05,-6.11571e-06,2.56694e-05,3.63811e-05,-3.1907e-06,0
-2.97571e-05,-9.37633e-05,-2.82228e-05,-2.78654e-05,1.51719e-05,4.12727e-05,1.93838e-05,-6.89431e-06,0
5.32335e-05,-4.71355e-05,-2.61761e-05,-2.63659e-05,2.92202e-05,3.42093e-05,1.03377e-05,-1.01509e-05,0
0.000111794,7.50785e-05,-2.7699e-05,-2.03655e-05,3.45959e-05,2.40059e-05,5.18826e-06,-1.18036e-05,0
0.000113751,0.000184975,-2.84721e-05,-1.32864e-05,3.28392e-05,2.54952e-05,4.2969e-06,-1.00702e-05,0
7.37391e-05,0.000211522,-2.577e-05,-7.28144e-06,2.65343e-05,3.02033e-05,5.13764e-06,-6.20825e-06,0
1.88953e-05,0.000149816,-2.07062e-05,-1.02761e-05,1.54256e-05,2.5663e-05,6.90671e-06,-2.15252e-06,0
-3.2953e-05,3.30633e-05,-1.60676e-05,-4.08381e-05,6.02088e-06,1.4237e-05,7.5954e-06,8.36295e-08,0
-6.53131e-05,-8.34862e-05,-1.21407e-05,-0.000102465,4.00659e-06,-6.98169e-07,6.01225e-06,5.96611e-07,0
-7.00771e-05,-0.000145457,-1.00069e-05,-0.000139336,6.64213e-06,-2.77185e-05,-2.9846e-06,1.19628e-06,0
-6.77597e-05,-0.000136123,-8.16169e-06,-0.000100093,5.88875e-06,-6.55793e-05,-2.21999e-05,1.66277e-06,0
-8.06958e-05,-8.71833e-05,-3.88692e-06,-7.17436e-06,1.55982e-06,-8.785e-05,-4.20653e-05,1.47674e-06,0
-9.65531e-05,-3.62826e-05,-4.59357e-07,8.67765e-05,6.77027e-06,-7.90247e-05,-4.53054e-05,-4.60688e-07,0
-0.00010961,9.23571e-06,-2.6105e-06,0.000144158,4.04256e-05,-5.74507e-05,-3.25153e-05,-2.7779e-06,0
-0.000140811,3.41043e-05,-9.66911e-06,0.000158321,0.00010025,-3.81732e-05,-1.46557e-05,-1.68731e-06,0
-0.00018027,2.97652e-05,-1.68294e-05,0.000142299,0.000126774,-1.92773e-05,4.18704e-06,2.50967e-07,0
-0.00020186,1.87124e-05,-1.90245e-05,0.000119111,0.000100242,-5.73079e-06,2.47696e-05,-5.40947e-07,0
-0.00018854,3.21416e-06,-1.73631e-05,9.39641e-05,6.66427e-05,-3.42652e-06,3.73284e-05,-1.47994e-06,0
-0.000138315,-3.2139e-05,-1.52154e-05,5.93473e-05,4.90471e-05,-8.67173e-06,3.38399e-05,-7.64426e-07,0
-7.73561e-05,-7.60788e-05,-1.4008e-05,2.05856e-05,4.87918e-05,-1.31105e-05,3.06714e-05,-4.40067e-07,0
-2.87993e-05,-7.38777e-05,-1.20783e-05,-1.67208e-05,4.99177e-05,-1.37769e-05,3.69418e-05,-2.04278e-06,0
-2.31836e-06,-1.79725e-05,-7.90654e-06,-4.27627e-05,4.4194e-05,-7.21287e-06,4.73902e-05,-5.01214e-06,0
1.15646e-05,3.0289e-05,-5.72796e-06,-4.35326e-05,3.50527e-05,5.42058e-06,5.87853e-05,-6.69932e-06,0
2.19327e-05,2.92146e-05,-6.02142e-06,-1.96532e-05,2.68484e-05,1.69632e-05,7.23629e-05,-6.37733e-06,0
2.67886e-05,-5.86177e-06,-6.231e-06,9.88901e-06,1.66686e-05,2.01483e-05,8.4919e-05,-6.30739e-06,0
2.05001e-05,-2.66381e-05,-3.65454e-06,2.76249e-05,3.23558e-06,1.58125e-05,9.02144e-05,-6.06773e-06,0
9.90615e-06,-1.66973e-05,8.19667e-07,2.31919e-05,-4.35746e-06,7.41917e-06,8.30893e-05,-3.77468e-06,0
7.74253e-06,5.5897e-06,3.39778e-06,4.78122e-06,-2.68838e-06,-1.25356e-05,6.34001e-05,-1.32157e-07,0
1.84486e-05,2.19074e-05,2.36932e-06,-1.10169e-05,2.71484e-06,-3.4501e-05,3.85102e-05,2.5741e-06,0
3.68466e-05,3.17147e-05,2.45866e-07,-1.85809e-05,5.69771e-07,-2.83872e-05,2.01714e-05,3.63658e-06,0
5.00315e-05,4.33678e-05,4.96853e-08,-2.63687e-05,-7.59401e-06,3.56362e-06,1.44321e-05,3.91207e-06,0
4.86969e-05,6.26116e-05,9.84242e-07,-3.88243e-05,-1.38838e-05,2.24667e-05,1.72994e-05,4.47894e-06,0
3.60432e-05,8.47639e-05,1.97433e-06,-4.46942e-05,-1.31401e-05,1.52471e-05,2.23545e-05,5.54071e-06,0
2.18013e-05,9.89645e-05,4.14921e-06,-3.14249e-05,-1.53296e-05,2.0154e-06,2.85527e-05,5.0317e-06,0
6.09367e-06,9.71849e-05,8.14617e-06,-8.36456e-06,-2.1588e-05,-3.56697e-06,3.59996e-05,1.11803e-06,0
-1.64481e-05,7.09007e-05,1.10962e-05,5.05746e-06,-1.67949e-05,-4.30392e-06,3.74928e-05,-4.09741e-06,0
-4.29214e-05,2.09284e-05,1.1533e-05,3.10673e-06,2.60352e-06,-4.30042e-06,2.18894e-05,-5.86215e-06,0
-6.12321e-05,-3.08301e-05,9.96998e-06,-1.56581e-05,1.84354e-05,-2.58147e-06,-1.09285e-05,-4.96457e-06,0
-6.72119e-05,-5.19927e-05,6.31623e-06,-4.27337e-05,2.59441e-05,-4.4781e-07,-4.14346e-05,-5.33858e-06,0
-6.42846e-05,-3.72837e-05,2.64112e-07,-5.96517e-05,3.26797e-05,-1.21737e-06,-5.55582e-05,-4.5614e-06,0
-6.33696e-05,-1.45566e-05,-6.31978e-06,-5.94158e-05,3.6643e-05,-4.12569e-06,-6.01813e-05,-1.37771e-06,0
-6.9721e-05,1.5196e-06,-1.08924e-05,-5.06897e-05,2.96271e-05,-5.53625e-06,-6.18625e-05,5.19958e-07,0
-7.98422e-05,1.58456e-05,-1.1792e-05,-4.33103e-05,1.11698e-05,-2.35389e-06,-5.72499e-05,1.54798e-06,0
-8.69609e-05,3.08152e-05,-1.01405e-05,-3.98404e-05,-1.2487e-05,1.90245e-06,-4.74468e-05,4.30873e-06,0
-7.96748e-05,4.45379e-05,-9.22053e-06,-3.39462e-05,-3.53091e-05,6.10072e-06,-4.66924e-05,4.3732e-06,0
-4.92835e-05,4.80942e-05,-1.00842e-05,-2.68652e-05,-3.75523e-05,1.20281e-05,-6.4958e-05,6.4772e-07,0
-5.4545e-06,3.98367e-05,-1.2855e-05,-2.70042e-05,-1.54814e-05,1.5032e-05,-8.48648e-05,-2.73985e-06,0
2.39354e-05,2.24183e-05,-1.40246e-05,-3.84242e-05,1.01666e-05,1.02807e-05,-7.95251e-05,-4.90665e-06,0
2.44854e-05,1.21214e-06,-1.20944e-05,-4.86825e-05,2.18494e-05,9.80269e-07,-5.18462e-05,-6.18826e-06,0
5.69244e-06,-7.55847e-06,-5.99605e-06,-4.69597e-05,2.31997e-05,-5.44067e-06,-1.94633e-05,-7.3661e-06,0
-1.72169e-05,8.19852e-06,8.31867e-06,-3.04444e-05,2.73062e-05,-8.36611e-06,9.16231e-06,-7.80687e-06,0
-3.84359e-05,3.33495e-05,3.02832e-05,5.14297e-06,3.50293e-05,-1.04662e-05,3.1375e-05,-8.49764e-06,0
-5.7613e-05,4.76675e-05,5.36439e-05,4.84385e-05,3.37195e-05,-1.25909e-05,4.59818e-05,-9.09217e-06,0
-7.13364e-05,4.52354e-05,6.84866e-05,8.3726e-05,1.94861e-05,-1.35913e-05,5.26524e-05,-8.81106e-06,0
-7.25859e-05,3.06476e-05,6.75587e-05,0.000106045,-4.38126e-07,-1.36721e-05,5.2024e-05,-8.15707e-06,0
-6.03489e-05,1.49196e-05,4.6545e-05,0.00011251,-2.04295e-05,-1.89543e-05,4.64383e-05,-6.36154e-06,0
-4.10797e-05,7.54945e-06,6.98951e-06,9.98371e-05,-3.838e-05,-3.41119e-05,3.98624e-05,-4.00579e-06,0
-2.36845e-05,1.19097e-05,-3.83733e-05,7.98049e-05,-4.65908e-05,-5.00757e-05,3.41876e-05,-3.2365e-06,0
-1.28038e-05,2.17671e-05,-7.32639e-05,6.51736e-05,-2.5725e-05,-5.5666e-05,3.1705e-05,-4.07743e-06,0
-6.77638e-06,3.07781e-05,-8.99834e-05,5.74804e-05,3.18368e-05,-5.08539e-05,3.26489e-05,-3.97575e-06,0
-3.56033e-06,3.42059e-05,-8.93021e-05,5.62136e-05,9.86438e-05,-3.60729e-05,3.62798e-05,-2.5438e-06,0
-5.1651e-06,3.23675e-05,-7.60095e-05,5.61938e-05,0.000138318,-3.3869e-06,4.29302e-05,-1.24251e-06,0
-1.62056e-05,2.80758e-05,-5.88469e-05,4.85429e-05,0.000149221,4.62447e-05,4.8609e-05,-8.7692e-07,0
-3.36475e-05,2.46289e-05,-4.49022e-05,3.71187e-05,0.000144048,9.88365e-05,3.92652e-05,6.06767e-07,0
-4.3498e-05,2.32142e-05,-3.64248e-05,3.26312e-05,0.000112536,0.000117972,1.95671e-05,4.52567e-06,0
-3.82667e-05,2.57383e-05,-3.08992e-05,4.08435e-05,5.46474e-05,8.49241e-05,1.80418e-05,8.65764e-06,0
-2.87088e-05,3.0492e-05,-2.40877e-05,5.6699e-05,1.29023e-06,3.18166e-05,3.91083e-05,1.10519e-05,0
-2.42086e-05,2.98619e-05,-1.54351e-05,5.90472e-05,-1.92802e-05,-3.84965e-05,6.46195e-05,1.051e-05,0
-2.11065e-05,2.1445e-05,-7.62176e-06,4.45394e-05,2.91004e-05,-0.00011151,8.9528e-05,6.46806e-06,0
-1.26388e-05,1.91226e-05,-2.76182e-06,2.8226e-05,0.00010387,-9.93312e-05,0.000109669,2.23866e-06,0
7.8344e-06,2.97775e-05,-2.5645e-07,8.66529e-06,0.000106473,-3.3455e-05,0.000114928,-1.61592e-06,0
3.02407e-05,4.1153e-05,-1.27967e-06,-1.90932e-05,4.84182e-05,-5.91631e-06,0.00010255,-5.71218e-06,0
3.71416e-05,4.7528e-05,-4.31805e-06,-5.18702e-05,-1.0225e-06,-3.94225e-06,7.33105e-05,-7.77923e-06,0
2.9704e-05,5.04857e-05,-6.58807e-06,-7.87607e-05,-1.96838e-05,-1.1219e-05,2.27438e-05,-8.52709e-06,0
1.59662e-05,5.32145e-05,-7.96659e-06,-9.39027e-05,-4.57487e-05,-1.10613e-05,-4.67152e-05,-7.89694e-06,0
5.94824e-07,5.90139e-05,-7.39809e-06,-0.000106693,-9.18492e-05,-6.05632e-06,-0.000101081,-2.7316e-06,0
-1.78841e-05,6.7303e-05,-6.23764e-06,-0.000118543,-0.000141149,6.68022e-07,-0.000107182,4.80432e-06,0
-4.18767e-05,6.30709e-05,-7.42291e-06,-0.000122406,-0.000179889,3.96164e-06,-6.69671e-05,5.13514e-06,0
-6.60051e-05,2.93311e-05,-9.69797e-06,-0.000114113,-0.000197885,-1.50034e-06,-8.18523e-06,-1.13278e-06,0
-7.61343e-05,-2.29631e-05,-1.06064e-05,-9.32591e-05,-0.000186249,-1.19432e-05,3.94262e-05,-7.98559e-06,0
-5.69627e-05,-6.12573e-05,-1.02657e-05,-6.12337e-05,-0.000144261,-1.86753e-05,7.11686e-05,-1.19911e-05,0
6.30299e-06,-6.2132e-05,-7.17547e-06,-2.68133e-05,-9.62473e-05,-1.09802e-05,9.47892e-05,-1.22059e-05,0
9.57877e-05,-2.39234e-05,-1.38082e-06,-5.02747e-06,-7.30893e-05,-2.24505e-06,0.000100982,-1.14483e-05,0
0.000153928,2.90068e-05,6.22812e-06,-5.96333e-06,-8.26331e-05,-3.14035e-06,7.27177e-05,-1.11549e-05,0
0.000139573,6.0696e-05,1.36477e-05,-2.32823e-05,-8.38293e-05,-2.11815e-05,1.70653e-05,-1.12734e-05,0
6.69211e-05,5.96672e-05,1.73222e-05,-3.75075e-05,-4.98095e-05,-5.9124e-05,-4.17461e-05,-1.05072e-05,0
-1.8893e-05,4.47957e-05,1.65175e-05,-3.28943e-05,-5.69653e-06,-0.000110002,-8.12023e-05,-8.92036e-06,0
-9.56224e-05,2.77372e-05,1.6267e-05,-9.70695e-06,2.05327e-05,-0.000137087,-8.76566e-05,-6.85321e-06,0
-0.000164882,2.33395e-07,1.8856e-05,1.70396e-05,4.13517e-05,-0.000124067,-6.78568e-05,-6.19424e-06,0
-0.000233788,-4.28805e-05,1.98159e-05,3.11535e-05,6.71075e-05,-8.34901e-05,-4.12736e-05,-6.40398e-06,0
-0.000296941,-0.000108767,1.5438e-05,2.2254e-05,8.84381e-05,-3.34586e-05,-1.998e-05,-6.2306e-06,0
-0.000314077,-0.000189828,7.08545e-06,-3.84892e-06,9.15028e-05,6.43823e-06,-9.54081e-06,-5.45793e-06,0
-0.000253521,-0.000225192,6.79093e-07,-2.53664e-05,8.073e-05,3.47465e-05,-1.04767e-05,-3.38391e-06,0
-0.00014831,-0.000170262,-2.05206e-07,-2.80885e-05,6.91241e-05,7.38677e-05,-1.26903e-05,3.1965e-06,0
-5.26417e-05,-7.4564e-05,9.09444e-07,-1.89032e-05,6.13883e-05,8.28358e-05,-1.10227e-05,2.07495e-05,0
1.67618e-05,2.58236e-05,2.39871e-07,-4.72662e-06,5.11505e-05,3.92317e-05,-9.26538e-06,4.04414e-05,0
4.15308e-05,0.000118114,-8.15551e-07,8.91155e-06,2.56404e-05,2.53346e-06,-1.17312e-05,4.68488e-05,0
2.10326e-05,0.000153151,-1.8729e-06,9.70766e-06,1.22178e-05,-9.25573e-06,-1.81489e-05,4.28305e-05,0
-6.9987e-06,0.000136822,-2.18107e-06,-3.73931e-06,3.95343e-05,-1.08956e-05,-2.59904e-05,2.90653e-05,0
-2.09416e-05,0.00010486,-1.92665e-06,-2.19769e-05,8.28399e-05,-1.67587e-05,-2.73331e-05,5.26586e-06,0
-8.41203e-06,7.12396e-05,-5.84486e-06,-3.13079e-05,0.00012028,-2.31654e-05,-2.16053e-05,-1.98108e-05,0
1.79275e-05,4.16421e-05,-1.40486e-05,-2.39008e-05,0.000137945,-9.22015e-06,-1.22348e-05,-3.86696e-05,0
3.14659e-05,6.67758e-06,-2.13968e-05,-1.10022e-05,0.000114502,2.77839e-05,-2.80909e-06,-4.45822e-05,0
1.98796e-05,-4.06885e-05,-2.66385e-05,-6.92855e-06,6.06096e-05,5.21266e-05,-1.34226e-05,-3.86906e-05,0
1.04404e-05,-8.87641e-05,-2.74191e-05,-8.08929e-06,9.43308e-06,4.29672e-05,-7.21404e-05,-2.81069e-05,0
2.05977e-05,-0.00011932,-2.40055e-05,-7.28492e-06,-2.1796e-05,2.19284e-05,-0.00015436,-1.90735e-05,0
3.22343e-05,-0.000113848,-1.96744e-05,-6.21484e-06,-4.20677e-05,1.11754e-05,-0.000180814,-9.74067e-06,0
3.18409e-05,-8.01111e-05,-1.52328e-05,-5.1357e-06,-4.81081e-05,9.46171e-06,-0.000119341,-4.79239e-07,0
2.23727e-05,-2.84067e-05,-1.01217e-05,-1.4681e-06,-3.24238e-05,9.794e-06,-9.29397e-06,4.36617e-06,0
1.50339e-05,4.47101e-05,-6.96968e-06,-9.65217e-07,-5.66264e-06,1.05124e-05,8.61949e-05,5.77551e-06,0
8.60375e-06,0.00011074,-8.43097e-06,-1.28867e-05,1.43969e-05,8.19637e-06,0.000136824,7.43806e-06,0
2.48038e-06,0.000120436,-1.13304e-05,-3.64127e-05,2.281e-05,-1.00191e-05,0.00015059,9.87413e-06,0
-1.10105e-06,5.60838e-05,-1.2928e-05,-6.25917e-05,2.49556e-05,-5.0915e-05,0.000148584,1.15663e-05,0
4.90255e-06,-4.085e-05,-1.44112e-05,-7.93123e-05,2.624e-05,-8.2987e-05,0.000141775,1.33546e-05,0
1.03202e-05,-0.000113514,-1.69461e-05,-8.25285e-05,2.48004e-05,-6.2112e-05,0.000130151,1.56784e-05,0
-3.65533e-06,-0.000120436,-1.69928e-05,-7.33993e-05,1.3961e-05,-1.58655e-05,0.000117251,1.65217e-05,0
-4.39695e-05,-4.48594e-05,-1.36288e-05,-4.7361e-05,-3.72713e-06,-8.14858e-06,0.000113345,1.29793e-05,0
-9.58978e-05,8.29126e-05,-9.1657e-06,4.09473e-07,-1.63037e-05,-2.61401e-05,0.000130363,8.33419e-06,0
-0.000139037,0.000169335,-6.96926e-06,5.67584e-05,-1.86379e-05,-2.77478e-05,0.000164388,6.83406e-06,0
-0.000161043,0.000161078,-9.60715e-06,9.46973e-05,-1.0934e-05,-1.68047e-05,0.000208027,7.28708e-06,0
-0.000160885,0.000106198,-1.48467e-05,0.000104425,7.25592e-06,-1.28135e-05,0.000246987,7.61963e-06,0
-0.000137847,5.64403e-05,-1.81499e-05,9.65037e-05,2.6429e-05,-1.61287e-05,0.00025411,7.64985e-06,0
-9.66395e-05,2.63753e-05,-1.75925e-05,7.82423e-05,3.75334e-05,-1.27366e-05,0.000199688,6.251e-06,0
-6.0838e-05,1.01133e-05,-1.54683e-05,5.07584e-05,3.82946e-05,-6.07088e-06,9.15902e-05,3.89526e-06,0
-4.36602e-05,-1.4521e-05,-1.35407e-05,1.6032e-05,3.43256e-05,-5.85175e-06,-3.13502e-05,2.81824e-06,0
-3.18898e-05,-3.94381e-05,-1.302e-05,-1.48851e-05,2.78379e-05,-1.10552e-05,-0.000144896,4.50178e-06,0
-4.90675e-06,-3.47649e-05,-1.34236e-05,-2.84374e-05,1.52363e-05,-1.4992e-05,-0.000213974,6.16374e-06,0
3.34923e-05,-1.3149e-05,-1.20291e-05,-2.35523e-05,5.70624e-06,-7.75821e-06,-0.000219866,6.01503e-06,0
5.51696e-05,-2.50434e-05,-9.81375e-06,-7.65318e-06,1.65037e-05,1.14069e-05,-0.000185158,4.26473e-06,0
4.85969e-05,-9.24335e-05,-6.53649e-06,5.88847e-06,6.13296e-05,3.07522e-05,-0.000148203,2.67132e-06,0
2.32025e-05,-0.00017155,-3.04362e-06,7.6217e-06,0.000119464,3.80691e-05,-0.000126195,3.66684e-06,0
-1.07808e-05,-0.000181321,-4.43177e-07,-5.68794e-06,0.00014541,3.58751e-05,-0.000104549,4.83951e-06,0
-4.58051e-05,-8.27824e-05,4.25958e-06,-2.21153e-05,0.000131635,2.74993e-05,-6.8762e-05,5.21911e-06,0
-6.95194e-05,5.88173e-05,1.37548e-05,-3.01509e-05,0.000101058,1.27286e-05,-2.23523e-05,5.67756e-06,0
-7.2066e-05,0.000150077,2.48334e-05,-3.37669e-05,6.84867e-05,-9.80667e-06,1.81675e-05,6.23077e-06,0
-6.67989e-05,0.000160216,3.38142e-05,-3.89899e-05,3.13615e-05,-3.91106e-05,4.40892e-05,5.06367e-06,0
-6.7029e-05,0.000136466,3.82769e-05,-4.39863e-05,-1.89387e-05,-6.10885e-05,5.39576e-05,3.9598e-06,0
-6.0315e-05,0.000121514,3.32698e-05,-4.61112e-05,-8.63469e-05,-5.83414e-05,5.36309e-05,5.62894e-06,0
-3.29544e-05,0.000106253,1.71374e-05,-4.84745e-05,-0.000159739,-4.12501e-05,4.68319e-05,8.53938e-06,0
-3.0419e-06,7.69827e-05,-5.73711e-06,-4.69924e-05,-0.000209747,-3.89186e-05,3.69659e-05,1.07913e-05,0
1.50641e-05,4.75383e-05,-2.65887e-05,-3.32502e-05,-0.000201129,-5.09846e-05,2.62236e-05,1.18801e-05,0
1.73306e-05,3.06988e-05,-4.15691e-05,-5.76597e-06,-0.000122023,-5.35885e-05,1.39015e-05,1.15854e-05,0
1.25059e-06,2.75719e-05,-5.00731e-05,2.609e-05,1.73132e-06,-4.24419e-05,-4.51216e-06,1.02614e-05,0
-2.18003e-05,4.88564e-05,-5.03521e-05,5.16731e-05,0.000122449,-3.49938e-05,-3.13948e-05,9.32731e-06,0
-3.87936e-05,8.72544e-05,-4.26647e-05,6.01099e-05,0.000195536,-3.86035e-05,-5.86504e-05,9.24612e-06,0
-4.74873e-05,0.000107678,-3.44931e-05,4.90889e-05,0.000204884,-3.5395e-05,-6.56697e-05,7.95136e-06,0
-3.47764e-05,0.000101436,-2.92058e-05,3.12012e-05,0.000166259,4.53198e-06,-4.40457e-05,6.45308e-06,0
-4.25649e-06,9.56171e-05,-2.33506e-05,1.81679e-05,0.000117065,6.28245e-05,-8.94812e-06,8.48114e-06,0
1.31979e-05,9.765e-05,-1.88348e-05,1.01922e-05,8.4079e-05,8.86555e-05,2.18923e-05,1.10134e-05,0
7.23144e-06,9.15125e-05,-1.72329e-05,5.36555e-06,6.31883e-05,7.54973e-05,3.43308e-05,1.04496e-05,0
1.113e-06,6.96799e-05,-1.49281e-05,3.98553e-06,4.8389e-05,3.40381e-05,3.66159e-05,9.54187e-06,0
9.62717e-06,4.9846e-05,-1.02113e-05,6.49505e-06,3.82563e-05,-2.52856e-05,4.21556e-05,1.02438e-05,0
1.40729e-05,2.46356e-05,-5.30463e-06,8.05784e-06,3.08521e-05,-6.86122e-05,5.1018e-05,1.20568e-05,0
4.06171e-06,-1.16714e-05,-3.08922e-06,7.21258e-06,2.85894e-05,-6.57914e-05,5.90651e-05,1.34728e-05,0
-1.04458e-05,-3.81266e-05,-3.26197e-07,7.09511e-06,2.9725e-05,-4.10274e-05,6.54145e-05,1.24385e-05,0
-1.17494e-05,-4.63979e-05,4.87828e-06,5.0751e-06,2.73433e-05,-2.62569e-05,7.16256e-05,8.93151e-06,0
-7.60253e-07,-3.54487e-05,6.87627e-06,-9.85681e-07,1.45342e-05,-2.04999e-05,7.37764e-05,4.20811e-06,0
1.13825e-05,-1.07119e-05,3.24156e-06,-1.29845e-05,-1.89336e-06,-1.68201e-05,4.4024e-05,9.5704e-07,0
1.31348e-05,6.36223e-06,-4.58184e-06,-2.62167e-05,-1.24984e-05,-1.13982e-05,-2.09686e-05,-1.66654e-06,0
1.79743e-07,-1.0146e-05,-1.14727e-05,-3.46402e-05,-1.65486e-05,-8.63891e-06,-6.99796e-05,-5.61394e-06,0
-1.87812e-05,-4.27956e-05,-1.53173e-05,-3.71903e-05,-1.68564e-05,-7.71139e-06,-6.39978e-05,-8.82105e-06,0
-2.58795e-05,-6.09772e-05,-1.66645e-05,-3.61846e-05,-1.41144e-05,-4.64491e-06,-1.62453e-05,-9.20147e-06,0
-3.22787e-05,-6.4286e-05,-1.56458e-05,-3.28041e-05,-8.24688e-06,-5.04807e-06,3.20404e-05,-7.56494e-06,0
-7.40005e-05,-6.83713e-05,-1.35901e-05,-2.89965e-05,-2.19603e-06,-1.6504e-05,6.08897e-05,-4.99522e-06,0
-0.000137971,-7.35173e-05,-1.00081e-05,-2.47595e-05,3.07841e-06,-2.81683e-05,7.46521e-05,-3.00567e-06,0
-0.000174702,-6.22473e-05,-4.71002e-06,-1.34984e-05,8.55014e-06,-2.85917e-05,7.89311e-05,-3.15863e-06,0
-0.000157016,-2.83381e-05,-2.60701e-07,5.86396e-06,1.37683e-05,-2.4251e-05,7.27981e-05,-4.43953e-06,0
-0.000101433,1.23827e-05,-2.01559e-07,2.36271e-05,1.50089e-05,-2.72735e-05,6.01573e-05,-5.8209e-06,0
-4.33782e-05,3.71661e-05,-3.13623e-06,2.88835e-05,1.09167e-05,-3.46958e-05,5.00323e-05,-5.58308e-06,0
-1.4863e-05,3.94e-05,-3.45331e-06,2.06866e-05,3.1673e-06,-3.82829e-05,4.48354e-05,-3.43082e-06,0
-1.92523e-05,2.82725e-05,-1.0212e-06,5.09701e-06,-5.08672e-06,-3.68114e-05,3.87734e-05,-1.26686e-06,0
-2.38729e-05,1.46933e-05,-2.21783e-06,-1.34026e-05,-1.1471e-05,-2.6532e-05,2.47773e-05,-1.15928e-06,0
-1.25335e-07,8.50632e-06,-9.20707e-06,-3.31918e-05,-1.25212e-05,-6.45516e-06,-3.8456e-06,-3.25804e-06,0
1.78548e-05,1.61142e-05,-1.71899e-05,-5.1513e-05,-8.2066e-06,2.0026e-05,-4.95424e-05,-3.5297e-06,0
-1.67897e-05,2.92543e-05,-2.07524e-05,-6.76669e-05,-7.51944e-06,5.1372e-05,-8.86142e-05,-1.29996e-06,0
-8.0889e-05,3.66386e-05,-1.8484e-05,-9.75427e-05,-1.66537e-05,5.86182e-05,-9.15661e-05,-3.26155e-07,0
-0.000140155,3.35897e-05,-1.39872e-05,-0.000163946,-3.16152e-05,2.73661e-05,-6.0849e-05,-7.16059e-08,0
-0.000175322,2.2819e-05,-1.22229e-05,-0.000204115,-4.2963e-05,7.32702e-07,-2.20238e-05,1.90402e-07,0
-0.000166651,9.81757e-06,-1.30863e-05,-0.000161923,-4.1243e-05,-7.19183e-06,1.0087e-05,5.22769e-07,0
-0.000115285,-8.29427e-07,-1.49051e-05,-8.06657e-05,-2.73742e-05,-6.30739e-06,2.89396e-05,8.75089e-07,0
-4.02926e-05,4.00445e-06,-1.73797e-05,-3.55078e-06,-2.12235e-05,-2.5975e-06,2.81141e-05,-2.12741e-08,0
3.25031e-05,2.21616e-05,-1.96188e-05,4.23001e-05,-4.21231e-05,5.38594e-07,1.96659e-05,-3.06271e-07,0
7.59382e-05,3.13799e-05,-2.11767e-05,5.78626e-05,-6.72262e-05,4.62126e-06,1.64979e-05,2.30887e-07,0
7.93668e-05,2.2083e-05,-2.03648e-05,6.32985e-05,-6.30522e-05,6.85989e-06,2.27687e-05,6.14817e-07,0
5.4683e-05,2.7411e-07,-1.74096e-05,8.87381e-05,-3.09413e-05,6.56716e-06,3.19226e-05,9.84146e-07,0
1.41656e-05,-1.01896e-05,-1.43048e-05,0.000124993,1.39794e-05,4.65872e-06,3.64635e-05,1.59907e-07,0
-1.17039e-05,3.40086e-06,-1.33124e-05,0.000145646,5.72088e-05,3.54531e-06,3.88142e-05,-1.22997e-06,0
5.59234e-07,2.61906e-05,-1.38023e-05,0.000149574,9.20559e-05,3.14286e-06,4.2094e-05,-1.19981e-06,0
3.7099e-05,2.78328e-05,-1.25331e-05,0.000139023,0.000103302,3.07828e-06,4.82402e-05,-3.37245e-07,0
6.40344e-05,-5.10012e-06,-6.7548e-06,0.00011309,8.36331e-05,2.53481e-06,5.34204e-05,-1.03262e-07,0
6.28487e-05,-4.30076e-05,4.882e-06,8.15881e-05,5.36846e-05,2.28483e-06,5.38478e-05,7.21934e-07,0
4.88207e-05,-4.87914e-05,2.11448e-05,7.06553e-05,3.68592e-05,3.47006e-06,5.27558e-05,2.17136e-06,0
4.94895e-05,-1.42922e-05,4.02604e-05,8.15808e-05,4.04378e-05,7.06123e-06,5.69895e-05,2.45546e-06,0
7.29914e-05,4.50567e-05,5.82351e-05,9.28681e-05,6.10478e-05,1.0903e-05,6.37257e-05,1.24106e-06,0
8.83848e-05,0.000111148,7.01629e-05,8.33323e-05,9.93486e-05,1.07609e-05,6.522e-05,2.72091e-07,0
6.48506e-05,0.000153892,7.01538e-05,5.98636e-05,0.000137145,3.26507e-06,5.9165e-05,1.06714e-06,0
7.82883e-06,0.00013838,5.28628e-05,3.67859e-05,0.000136417,-7.44417e-06,4.89154e-05,2.28262e-06,0
-4.87827e-05,5.29732e-05,1.96992e-05,2.01722e-05,8.66822e-05,-1.25497e-05,3.63932e-05,2.79315e-06,0
-8.42865e-05,-5.06351e-05,-1.96126e-05,4.07514e-06,2.06433e-05,-1.42967e-05,2.03689e-05,2.44744e-06,0
-0.00010714,-0.000107197,-5.05337e-05,-1.5997e-05,-3.27033e-05,-1.96925e-05,-7.99422e-06,9.37037e-07,0
-0.00014192,-0.000138389,-5.95496e-05,-3.74982e-05,-7.21612e-05,-2.58442e-05,-5.85347e-05,1.49044e-07,0
-0.000169349,-0.000178668,-4.59101e-05,-4.89212e-05,-0.000109707,-2.73037e-05,-0.000105535,2.028e-06,0
-0.000147274,-0.000194753,-2.20538e-05,-4.62466e-05,-0.00014949,-2.59194e-05,-0.000106198,4.24253e-06,0
-9.00145e-05,-0.000145947,-6.58847e-06,-3.40816e-05,-0.000165742,-1.22501e-05,-5.75917e-05,3.78084e-06,0
-4.85515e-05,-4.55213e-05,-1.44447e-05,-2.04775e-05,-0.000125391,2.09378e-05,-2.99238e-06,8.18897e-07,0
-3.13304e-05,3.89781e-05,-3.69685e-05,-9.02776e-06,-5.39323e-05,4.35665e-05,2.74189e-05,-1.3292e-06,0
-1.47214e-05,8.21922e-05,-5.99647e-05,7.104e-07,3.78143e-07,3.60965e-05,4.17875e-05,-1.5232e-06,0
4.51815e-06,0.000111712,-7.85767e-05,2.6082e-06,2.65826e-05,1.82121e-05,5.2299e-05,-1.49922e-06,0
1.24831e-05,0.000120663,-8.63507e-05,-4.82599e-06,2.92084e-05,8.18731e-06,6.0754e-05,-2.41171e-06,0
-2.05088e-06,9.76887e-05,-7.94079e-05,-1.54346e-05,2.55867e-05,6.4234e-06,5.66264e-05,-4.66151e-06,0
-2.81795e-05,6.0614e-05,-5.98371e-05,-1.96751e-05,2.35978e-05,4.77296e-06,4.09545e-05,-6.36457e-06,0
-5.66295e-05,2.41945e-05,-3.72675e-05,-2.15471e-05,1.6528e-05,-9.20111e-07,2.24831e-05,-6.11707e-06,0
-7.53314e-05,-2.35036e-06,-1.95216e-05,-2.50527e-05,4.47024e-06,-8.17356e-06,8.46102e-06,-4.67036e-06,0
-7.62638e-05,-1.00945e-05,-7.53846e-06,-2.93897e-05,6.2728e-07,-1.19474e-05,3.73489e-07,-2.78577e-06,0
-6.15361e-05,-4.35917e-07,-3.51948e-07,-2.9804e-05,1.22378e-05,-1.05063e-05,-3.72291e-06,-2.0715e-06,0
-4.11927e-05,2.99306e-06,1.81922e-06,-3.0768e-05,2.97091e-05,-8.40306e-06,-5.40707e-06,-2.59701e-06,0
-2.47284e-05,-8.52821e-06,-4.46747e-07,-3.48826e-05,4.00549e-05,-9.28708e-06,-8.45086e-06,-2.55655e-06,0
-1.55518e-05,-1.51231e-05,-4.62665e-06,-3.82327e-05,3.77939e-05,-1.22279e-05,-1.36533e-05,-1.73905e-06,0
-1.66016e-05,-2.75769e-06,-7.80335e-06,-3.59332e-05,2.58327e-05,-1.56242e-05,-2.08517e-05,-5.36911e-07,0
-2.72696e-05,2.42505e-05,-7.45745e-06,-2.80362e-05,9.96209e-06,-1.82962e-05,-2.42348e-05,-3.34277e-08,0
-4.17766e-05,4.69511e-05,-5.57164e-06,-2.17894e-05,4.73407e-08,-1.95393e-05,-2.21396e-05,-1.04933e-06,0
-5.51685e-05,5.48688e-05,-6.29717e-06,-2.37884e-05,3.7624e-06,-1.90459e-05,-1.73608e-05,-1.3307e-06,0
-6.97049e-05,5.1903e-05,-1.02887e-05,-3.16759e-05,1.81179e-05,-1.81155e-05,-1.6854e-05,1.35651e-06,0
-7.92891e-05,4.61798e-05,-1.30255e-05,-3.66849e-05,2.87286e-05,-1.71824e-05,-2.14277e-05,3.78057e-06,0
-7.94195e-05,3.47804e-05,-1.03813e-05,-3.32022e-05,2.83427e-05,-1.68363e-05,-2.57261e-05,2.96639e-06,0
-7.44591e-05,1.75962e-05,-2.55307e-06,-2.50125e-05,1.99722e-05,-1.76855e-05,-2.28107e-05,1.48717e-06,0
-6.85083e-05,6.09515e-06,5.71848e-06,-2.5382e-05,1.21783e-05,-1.9155e-05,-1.62418e-05,2.58596e-06,0
-6.10745e-05,1.18595e-05,1.11483e-05,-2.85083e-05,1.05354e-05,-2.10742e-05,-1.24423e-05,4.92082e-06,0
-5.3225e-05,3.09034e-05,1.26753e-05,-2.43062e-05,1.18436e-05,-2.424e-05,-1.06255e-05,4.03124e-06,0
-4.44034e-05,4.8325e-05,1.1925e-05,-2.22462e-05,1.19821e-05,-2.59181e-05,-9.64967e-06,1.33923e-06,0
-3.64076e-05,5.4594e-05,1.2318e-05,-3.37914e-05,1.29536e-05,-2.37405e-05,-6.75637e-06,-1.89631e-07,0
-3.18356e-05,5.24015e-05,1.26374e-05,-4.95984e-05,1.37728e-05,-1.74785e-05,4.00205e-07,4.6967e-07,0
-2.4953e-05,5.48347e-05,1.25426e-05,-5.19412e-05,3.82424e-06,-8.61384e-06,1.0657e-05,2.10092e-06,0
-1.2642e-05,6.4298e-05,1.39619e-05,-4.37813e-05,-4.9507e-07,8.21614e-07,1.94059e-05,3.25032e-06,0
-2.25334e-07,6.71803e-05,1.51938e-05,-3.79762e-05,3.4175e-05,-5.28063e-06,2.43699e-05,3.98896e-06,0
5.18721e-06,5.03752e-05,9.98543e-06,-4.04028e-05,9.58513e-05,-3.73136e-05,2.79265e-05,3.52304e-06,0
3.68728e-06,1.50377e-05,-5.91465e-07,-4.49405e-05,0.000144189,-7.00219e-05,3.24572e-05,2.93532e-06,0
-1.42858e-06,-2.21e-05,-6.88409e-06,-3.70163e-05,0.000147486,-8.32711e-05,4.11383e-05,2.31825e-06,0
-1.17115e-05,-5.14153e-05,-3.87454e-06,-8.83817e-06,0.00010129,-7.45429e-05,5.76039e-05,3.07379e-06,0
-2.85335e-05,-7.25761e-05,4.03471e-06,2.83857e-05,3.38839e-05,-4.5751e-05,8.00196e-05,4.01587e-06,0
-5.06175e-05,-8.55742e-05,8.4845e-06,5.21542e-05,-2.22386e-05,-5.25818e-06,0.000106995,4.78146e-06,0
-7.61741e-05,-7.92443e-05,7.83649e-06,5.50205e-05,-5.57245e-05,3.93462e-05,0.000130253,6.54594e-06,0
-9.64775e-05,-4.10235e-05,5.4519e-06,4.51831e-05,-7.387e-05,6.34179e-05,0.000130518,8.02304e-06,0
-9.84728e-05,1.41553e-05,2.45376e-06,3.31242e-05,-8.17825e-05,2.65415e-05,9.65097e-05,7.75881e-06,0
-7.93743e-05,5.79e-05,-4.84544e-06,2.31969e-05,-7.90547e-05,-4.47775e-05,4.18817e-05,7.02591e-06,0
-5.10575e-05,6.98347e-05,-1.81479e-05,1.70536e-05,-6.33697e-05,-7.37457e-05,-1.08347e-05,6.65443e-06,0
-2.34147e-05,4.97366e-05,-3.22792e-05,1.11625e-05,-3.78632e-05,-4.18591e-05,-4.67259e-05,4.93844e-06,0
-5.00318e-06,1.20156e-05,-3.81034e-05,1.45082e-06,-1.11258e-05,-3.57162e-06,-6.27318e-05,2.70567e-06,0
-3.06442e-07,-1.36977e-05,-3.15846e-05,-3.46391e-06,1.01135e-05,3.06072e-06,-6.50829e-05,1.75687e-06,0
5.79299e-06,-5.52387e-06,-2.01734e-05,6.52104e-06,2.89577e-05,-4.56514e-07,-5.88228e-05,2.71164e-06,0
2.93717e-05,2.56468e-05,-1.39959e-05,2.24301e-05,4.43213e-05,1.51162e-05,-4.70499e-05,3.22677e-06,0
6.18014e-05,5.21579e-05,-1.57371e-05,2.16683e-05,4.44612e-05,4.69918e-05,-3.46478e-05,2.53928e-06,0
8.77033e-05,6.4818e-05,-1.91095e-05,-6.92614e-06,2.96507e-05,6.82283e-05,-2.40753e-05,2.37019e-06,0
9.54373e-05,8.14693e-05,-1.74125e-05,-4.91809e-05,1.51832e-05,6.53924e-05,-1.65143e-05,2.39129e-06,0
8.45276e-05,0.000107443,-1.2359e-05,-7.55062e-05,1.26111e-05,4.89084e-05,-1.32882e-05,3.85513e-07,0
7.62289e-05,0.000116314,-9.18003e-06,-7.02375e-05,2.11685e-05,2.1054e-05,-1.57576e-05,-2.85449e-06,0
6.75659e-05,9.04349e-05,-6.44254e-06,-4.09065e-05,2.80202e-05,-4.54649e-05,-2.11691e-05,-7.91156e-06,0
1.32406e-05,3.59836e-05,-1.17596e-07,-4.63992e-06,2.25759e-05,-0.000127906,-2.16279e-05,-1.31894e-05,0
-8.2912e-05,-2.9313e-05,3.9762e-06,2.36423e-05,7.6735e-06,-0.000116218,-1.43257e-05,-1.62884e-05,0
-0.000159252,-0.000102522,6.32209e-07,4.40801e-05,-5.81546e-06,-4.1394e-05,-9.05295e-06,-1.55114e-05,0
-0.000189375,-0.000160299,-4.17256e-06,5.29464e-05,-8.87477e-06,-9.25464e-06,-1.53792e-05,-1.20482e-05,0
-0.000178066,-0.000164684,-6.6329e-06,4.20453e-05,-1.19741e-05,-8.24451e-06,-2.21928e-05,-1.03583e-05,0
-0.000143647,-0.000133478,-3.95475e-06,2.02533e-05,-2.11372e-05,-1.80212e-05,-1.4627e-05,-9.03406e-06,0
-0.000105367,-8.39425e-05,3.99576e-07,-2.95077e-06,-2.19396e-05,-1.74326e-05,5.61258e-06,-8.24434e-06,0
-7.9159e-05,-3.19338e-05,-5.11914e-07,-2.68511e-05,-7.82753e-06,-1.6272e-05,1.82795e-05,-9.49455e-06,0
-6.12909e-05,1.5704e-05,-7.0495e-06,-6.15214e-05,7.99272e-06,-1.82202e-05,9.03539e-06,-1.03225e-05,0
-4.06367e-05,4.89237e-05,-1.45933e-05,-8.8912e-05,7.86999e-06,-2.00835e-05,-5.49574e-06,-9.07879e-06,0
-2.51725e-05,4.25615e-05,-1.77442e-05,-7.76574e-05,-1.08805e-06,-1.8337e-05,-1.99208e-05,-7.85755e-06,0
-2.01394e-05,1.97029e-05,-1.59309e-05,-3.07363e-05,1.07478e-06,-1.18852e-05,-6.1039e-05,-7.87774e-06,0
-2.01968e-05,1.64974e-05,-1.16595e-05,1.46109e-05,1.23488e-05,-7.27235e-06,-0.000113516,-8.53628e-06,0
-1.55461e-05,3.00158e-05,-9.62835e-06,2.47714e-05,2.00166e-05,-3.69577e-06,-0.000115532,-8.46542e-06,0
-9.25922e-06,3.19954e-05,-1.11408e-05,3.25858e-06,2.3091e-05,-2.74388e-06,-4.75981e-05,-6.72115e-06,0
-5.31936e-06,2.3714e-05,-1.23503e-05,-2.71857e-05,2.55776e-05,3.06482e-06,5.18559e-05,-4.19944e-06,0
-1.85831e-06,2.47289e-05,-1.06573e-05,-4.99052e-05,2.7431e-05,8.57312e-06,0.000134219,-2.98794e-06,0
3.70389e-06,3.89574e-05,-8.75308e-06,-6.35554e-05,2.85359e-05,1.57024e-05,0.000177446,-3.30579e-06,0
6.21527e-06,5.32652e-05,-8.26292e-06,-6.84588e-05,2.70177e-05,2.27435e-05,0.000187198,-3.4618e-06,0
1.1784e-06,5.97724e-05,-8.99253e-06,-6.7633e-05,2.01911e-05,3.18924e-05,0.00017829,-3.00046e-06,0
-1.06679e-05,5.97211e-05,-1.1691e-05,-6.13173e-05,1.10856e-05,3.82305e-05,0.000156911,-3.10534e-06,0
-2.29229e-05,3.94093e-05,-1.5921e-05,-4.86417e-05,-1.31578e-06,3.91516e-05,0.000138783,-3.25726e-06,0
-2.73228e-05,-2.10073e-06,-1.82282e-05,-3.24625e-05,-1.80229e-05,2.18818e-05,0.000146943,-3.43855e-06,0
-2.02255e-05,-2.1097e-05,-1.45912e-05,-1.88678e-05,-1.4432e-05,-2.15658e-05,0.00016985,-5.21875e-06,0
-8.95041e-06,-3.01569e-06,-6.9888e-06,-9.68637e-06,2.58393e-05,-7.89764e-05,0.000167633,-7.01222e-06,0
-2.43611e-06,1.39119e-05,5.64558e-08,-5.76013e-06,7.6858e-05,-9.92017e-05,0.000117932,-7.50522e-06,0
3.08601e-06,1.59062e-05,7.25449e-06,-4.03347e-06,0.000105736,-6.40603e-05,4.17131e-05,-6.99628e-06,0
2.53926e-06,1.06818e-05,1.58162e-05,-9.33908e-07,0.000102941,-2.82676e-05,-4.36738e-05,-2.1432e-06,0
-6.37185e-06,8.80917e-06,2.29552e-05,1.08834e-06,7.70178e-05,-2.51596e-05,-0.000107714,1.38135e-05,0
-5.18584e-06,2.06734e-05,2.62761e-05,-2.67445e-06,4.82483e-05,-3.64468e-05,-0.000129635,3.58963e-05,0
1.30966e-05,3.04971e-05,2.86121e-05,-1.43842e-05,3.85895e-05,-4.19079e-05,-0.000124158,4.81205e-05,0
2.75144e-05,1.8272e-05,2.80168e-05,-2.38288e-05,4.84692e-05,-3.80719e-05,-9.95318e-05,4.71085e-05,0
2.20569e-05,7.22954e-06,1.89155e-05,-2.39252e-05,6.28696e-05,-1.93303e-05,-7.1914e-05,3.50303e-05,0
-2.46754e-06,1.43647e-05,2.41623e-06,-1.32648e-05,7.18743e-05,7.49164e-06,-4.36803e-05,1.51447e-05,0
-2.89158e-05,2.65141e-05,-1.58413e-05,1.1835e-07,7.53726e-05,1.27692e-05,-1.55643e-05,-6.32183e-06,0
-5.83199e-05,2.50455e-05,-3.069e-05,1.15285e-05,7.37509e-05,-1.54865e-05,7.86859e-06,-2.43425e-05,0
-0.000111473,4.36434e-06,-4.20447e-05,1.97324e-05,6.49509e-05,-3.88049e-05,3.22038e-05,-3.30196e-05,0
-0.000169286,-2.07981e-05,-4.61259e-05,2.63364e-05,5.37063e-05,-4.39292e-05,6.62614e-05,-3.30546e-05,0
-0.000188462,-2.31579e-05,-3.91138e-05,4.04093e-05,4.93664e-05,-3.78912e-05,9.61993e-05,-2.71307e-05,0
-0.000140496,6.0279e-06,-2.61265e-05,6.05674e-05,5.21209e-05,-2.88907e-05,0.000105362,-1.96426e-05,0
-3.77167e-05,4.69796e-05,-1.60209e-05,7.40622e-05,5.40851e-05,-7.99129e-06,9.76822e-05,-1.24289e-05,0
6.32944e-05,7.47656e-05,-1.28844e-05,7.16753e-05,5.16196e-05,2.86581e-05,8.37924e-05,-5.37043e-06,0
0.000113398,7.73036e-05,-1.23681e-05,5.77335e-05,4.50656e-05,5.74595e-05,6.91045e-05,1.1869e-06,0
0.000113242,6.87727e-05,-8.63636e-06,4.21979e-05,3.14407e-05,5.33709e-05,4.78457e-05,6.23972e-06,0
7.92791e-05,6.59726e-05,-2.63643e-06,2.96147e-05,7.30807e-06,1.48928e-05,1.58752e-05,9.40868e-06,0
1.80943e-05,6.85853e-05,4.33921e-07,1.14264e-05,-2.19205e-05,-3.63181e-05,-2.308e-05,1.27938e-05,0
-5.06313e-05,5.54155e-05,-2.69247e-07,-1.76981e-05,-4.86417e-05,-8.05839e-05,-5.3635e-05,1.67556e-05,0
-0.000105793,1.92704e-05,-1.10242e-06,-4.34984e-05,-6.57821e-05,-0.000100664,-6.88713e-05,2.09511e-05,0
-0.000136252,-1.264e-05,9.28862e-07,-4.63945e-05,-5.91839e-05,-8.43647e-05,-7.66632e-05,2.43187e-05,0
-0.000126091,-5.17356e-06,5.61633e-06,-2.82189e-05,-2.83115e-05,-3.36562e-05,-0.000111486,2.5756e-05,0
-9.13892e-05,3.32868e-05,8.56467e-06,-5.96416e-06,2.38403e-06,1.77812e-05,-0.00020345,2.24998e-05,0
-7.38687e-05,6.03838e-05,6.59806e-06,1.08961e-05,1.23446e-05,1.80284e-05,-0.000291589,1.73103e-05,0
-6.30796e-05,5.03638e-05,1.68396e-06,2.2654e-05,2.50594e-06,-8.27901e-06,-0.000274014,1.39367e-05,0
-4.36018e-05,1.99246e-05,-3.24846e-06,2.76091e-05,-1.06143e-05,3.31702e-05,-0.000153211,1.25837e-05,0
-3.37466e-05,1.51012e-05,-5.55495e-06,2.71894e-05,-1.41357e-05,0.000108124,2.3547e-06,1.2452e-05,0
-4.20451e-05,2.88293e-05,-5.79245e-06,2.19268e-05,-8.87019e-06,0.000105945,0.000121866,1.20046e-05,0
-4.97682e-05,1.29907e-05,-7.69663e-06,3.74869e-06,-8.31637e-06,4.25135e-05,0.000184638,1.11034e-05,0
-4.36788e-05,-1.37235e-05,-8.96515e-06,-2.57154e-05,-1.59422e-05,-2.71028e-06,0.000200544,1.02235e-05,0
-3.21924e-05,-2.90316e-05,-6.09087e-06,-4.96154e-05,-2.1785e-05,-1.2803e-05,0.000176822,8.99016e-06,0
-2.5984e-05,-3.57761e-05,-2.41356e-06,-5.8074e-05,-2.78574e-05,-8.04562e-07,0.000144246,7.10249e-06,0
-2.9508e-05,-2.30748e-05,-1.21541e-06,-7.52339e-05,-3.28507e-05,1.29839e-05,0.000111205,6.67733e-06,0
-3.63603e-05,1.45713e-06,-3.74716e-06,-0.000119966,-3.2533e-05,2.06785e-05,8.30188e-05,6.77013e-06,0
-4.50822e-05,1.8056e-05,-9.637e-06,-0.000154301,-3.44398e-05,2.15772e-05,5.65525e-05,4.91559e-06,0
-5.23468e-05,-1.86733e-06,-1.84271e-05,-0.000135226,-3.57784e-05,1.68277e-05,3.62102e-05,2.33946e-06,0
-5.24403e-05,-5.13518e-05,-2.91891e-05,-7.30855e-05,-1.24468e-05,4.826e-06,2.62207e-05,6.10009e-07,0
-4.07962e-05,-8.28107e-05,-3.74083e-05,4.92432e-07,5.16009e-05,-2.15565e-05,2.40855e-05,8.25245e-07,0
-1.89446e-05,-6.71825e-05,-3.92457e-05,5.94132e-05,0.000134232,-5.18742e-05,2.4194e-05,1.59905e-06,0
7.87163e-06,-2.82698e-05,-3.3798e-05,9.30815e-05,0.0001805,-6.36698e-05,1.89011e-05,5.33084e-07,0
2.94538e-05,-9.31006e-06,-2.55771e-05,0.000110722,0.000141243,-5.02151e-05,1.06521e-05,-1.81802e-06,0
3.26762e-05,-2.20163e-05,-1.97409e-05,0.00012633,2.73087e-05,-3.28429e-05,4.41327e-06,-3.17593e-06,0
1.28593e-05,-4.14695e-05,-1.63385e-05,0.000134614,-8.46242e-05,-2.15128e-05,4.72373e-06,-2.52975e-06,0
-2.42664e-05,-4.58227e-05,-1.24539e-05,0.000119229,-0.000131577,-1.33701e-05,7.18074e-06,-8.64859e-07,0
-6.20022e-05,-3.43205e-05,-5.2291e-06,7.9638e-05,-0.000118641,-5.74978e-06,8.96451e-06,-4.73156e-07,0
-8.78744e-05,-1.25004e-05,6.6242e-06,2.99187e-05,-6.81396e-05,-6.86436e-06,6.36305e-06,-2.81583e-06,0
-9.69325e-05,1.00255e-05,2.37402e-05,-1.27686e-05,2.50252e-05,-1.53706e-05,4.27174e-07,-5.49581e-06,0
-8.38715e-05,2.56325e-05,4.37838e-05,-3.56595e-05,0.000132665,-2.14647e-05,-6.67733e-06,-5.81274e-06,0
-4.95382e-05,3.50349e-05,6.25618e-05,-2.83063e-05,0.000178093,-1.8758e-05,-1.02044e-05,-4.26296e-06,0
-1.71225e-05,3.44802e-05,7.73837e-05,3.05995e-06,0.000143156,-1.1273e-05,-9.21359e-06,-2.95878e-06,0
-2.36655e-06,2.34723e-05,8.24665e-05,3.59282e-05,8.74559e-05,-4.54413e-06,-4.1867e-06,-3.08058e-06,0
1.04871e-05,1.80179e-05,6.76342e-05,5.4428e-05,4.95989e-05,-2.00668e-06,8.22231e-07,-4.60552e-06,0
2.27402e-05,2.29723e-05,3.3981e-05,6.09281e-05,1.53255e-05,-3.82704e-06,-1.82113e-06,-5.96815e-06,0
1.20197e-05,3.24754e-05,-1.48455e-05,7.192e-05,-3.64814e-05,-6.37976e-06,-2.07451e-05,-5.82974e-06,0
-2.30256e-05,4.19266e-05,-6.22354e-05,8.01796e-05,-8.86369e-05,-6.31508e-06,-3.83115e-05,-4.4245e-06,0
-6.18225e-05,4.69501e-05,-9.11209e-05,5.72957e-05,-0.000119472,-6.19456e-06,-3.19901e-05,-1.91544e-06,0
-8.20142e-05,4.57412e-05,-0.000100874,8.74001e-06,-0.000125522,-1.13093e-05,-1.33305e-05,1.21641e-07,0
-7.45433e-05,4.31828e-05,-9.06464e-05,-3.46933e-05,-0.000103685,-1.82205e-05,3.58109e-06,4.44881e-07,0
-4.86522e-05,3.39757e-05,-7.21842e-05,-5.10759e-05,-7.0186e-05,-2.24676e-05,1.53604e-05,1.86865e-07,0
-2.88121e-05,1.06991e-05,-5.31943e-05,-4.52515e-05,-4.89603e-05,-2.26941e-05,2.83082e-05,6.92133e-07,0
-2.36714e-05,-1.56475e-05,-4.00413e-05,-3.97859e-05,-4.63148e-05,-2.12808e-05,4.39478e-05,2.10655e-06,0
-1.77984e-05,-2.96858e-05,-3.22293e-05,-5.27072e-05,-3.82851e-05,-1.84086e-05,5.77646e-05,2.32124e-06,0
-7.43992e-06,-3.27763e-05,-2.69519e-05,-8.10519e-05,-1.65322e-05,-1.48056e-05,6.57355e-05,2.34209e-06,0
-5.04885e-06,-2.8328e-05,-2.5214e-05,-0.00010482,4.88366e-06,-1.1751e-05,6.65468e-05,2.29771e-06,0
-1.56433e-05,-1.03203e-05,-2.75509e-05,-0.000108288,1.43701e-05,-1.16273e-05,6.20395e-05,1.72171e-06,0
-2.3774e-05,1.82564e-05,-3.02693e-05,-8.84493e-05,1.82499e-05,-1.32709e-05,5.60902e-05,1.5488e-06,0
-1.47455e-05,4.32693e-05,-2.78683e-05,-4.8445e-05,4.28139e-05,-1.49281e-05,4.84675e-05,1.33395e-06,0
6.91664e-06,5.19979e-05,-2.31767e-05,9.48049e-07,9.17617e-05,-1.49033e-05,3.74724e-05,6.18326e-07,0
2.92175e-05,4.76841e-05,-1.93188e-05,4.01736e-05,0.000129668,-1.41242e-05,2.41687e-05,-8.1554e-07,0
4.32742e-05,4.21665e-05,-1.83478e-05,6.08462e-05,0.000121689,-1.30344e-05,1.04235e-05,-1.52195e-06,0
3.93201e-05,4.41146e-05,-1.61033e-05,6.65489e-05,7.92359e-05,-1.06898e-05,-2.38571e-06,-1.44763e-06,0
1.7644e-05,5.19054e-05,-1.10281e-05,5.64815e-05,3.96322e-05,-4.44058e-06,-1.35061e-05,-2.23059e-06,0
-8.82707e-06,5.9176e-05,-1.84808e-06,3.00311e-05,2.81216e-05,6.37017e-06,-2.09125e-05,-4.80261e-06,0
-2.94171e-05,6.12905e-05,8.94983e-06,4.46451e-06,3.66046e-05,2.21843e-05,-2.37795e-05,-7.08578e-06,0
-4.31732e-05,6.00395e-05,1.71342e-05,-4.17541e-06,4.73133e-05,4.24893e-05,-2.29146e-05,-8.24662e-06,0
-5.29843e-05,5.61081e-05,1.96943e-05,4.94857e-07,5.0458e-05,5.931e-05,-2.0848e-05,-8.65322e-06,0
-5.78417e-05,4.02503e-05,1.90201e-05,2.80078e-06,4.30588e-05,6.33406e-05,-2.24486e-05,-7.96152e-06,0
-5.36673e-05,4.03367e-06,1.64259e-05,-4.96718e-06,2.22866e-05,5.38814e-05,-2.66177e-05,-5.64433e-06,0
-3.86224e-05,-3.31703e-05,1.40014e-05,-1.71126e-05,1.29475e-06,3.47024e-05,-2.55069e-05,-3.23111e-06,0
-1.86176e-05,-4.12671e-05,1.41823e-05,-2.59405e-05,3.40419e-06,6.01216e-06,-1.68827e-05,-2.40824e-06,0
-6.13298e-06,-2.10169e-05,1.61016e-05,-2.78055e-05,2.19545e-05,-4.14273e-05,-2.42367e-06,-8.00987e-07,0
-6.77831e-06,1.15155e-05,1.68702e-05,-2.36272e-05,4.80332e-05,-8.25128e-05,1.19285e-05,2.63127e-06,0
-1.96453e-05,4.19115e-05,1.26058e-05,-1.60211e-05,7.35785e-05,-8.11119e-05,2.37852e-05,8.31167e-06,0
-3.7609e-05,6.43437e-05,2.87242e-06,-1.15958e-05,7.21145e-05,-6.11636e-05,3.44295e-05,1.72765e-05,0
-5.15634e-05,7.69424e-05,-9.2553e-06,-1.65878e-05,4.34325e-05,-4.94212e-05,4.13174e-05,2.46887e-05,0
-5.31563e-05,9.22661e-05,-1.89156e-05,-2.83618e-05,8.14658e-06,-4.72714e-05,4.26085e-05,2.47946e-05,0
-3.87172e-05,0.000112474,-2.35883e-05,-4.21383e-05,-1.97413e-05,-4.37791e-05,3.96491e-05,2.012e-05,0
-1.13491e-05,0.000105879,-2.01839e-05,-5.366e-05,-3.8457e-05,-3.74257e-05,3.53883e-05,1.53497e-05,0
2.00459e-05,6.50788e-05,-1.29059e-05,-6.17838e-05,-5.86504e-05,-3.24875e-05,2.9212e-05,1.12444e-05,0
4.13283e-05,1.24368e-05,-5.5231e-06,-6.50762e-05,-6.47722e-05,-2.43477e-05,2.14365e-05,6.17024e-06,0
4.2853e-05,-3.34589e-05,-1.38395e-06,-6.00008e-05,-3.51024e-05,-1.05219e-05,1.39059e-05,-2.24332e-07,0
1.91319e-05,-7.19637e-05,-2.64445e-06,-4.87835e-05,1.17229e-05,3.30456e-06,9.74608e-06,-7.15895e-06,0
-1.88939e-05,-8.9777e-05,-5.94993e-06,-3.76279e-05,3.47665e-05,6.3648e-06,9.10188e-06,-1.45946e-05,0
-5.64121e-05,-5.32808e-05,-5.79725e-06,-3.04313e-05,1.52101e-05,-1.65327e-06,1.09854e-05,-2.21288e-05,0
-8.72704e-05,2.91941e-05,-1.79004e-06,-2.70322e-05,-2.66166e-05,-8.70262e-06,1.35467e-05,-2.69802e-05,0
-0.000111126,0.000101933,2.98051e-06,-2.5387e-05,-5.10754e-05,-8.4658e-06,1.48904e-05,-2.58834e-05,0
-0.000123078,0.000133234,6.64639e-06,-2.00904e-05,-3.89421e-05,-4.78623e-06,1.42056e-05,-2.00581e-05,0
