ch1,ch2,ch3,ch4,ch5,ch6,ch7,ch8,class
-6.3853e-05,1.85952e-05,3.23452e-06,-8.50197e-05,6.01142e-05,7.20062e-06,-1.92329e-06,4.01138e-06,0
-7.19404e-05,1.52153e-05,-7.07531e-07,-6.41465e-05,6.74509e-05,-2.46861e-05,-5.12322e-06,3.46966e-06,0
-7.77868e-05,8.05719e-06,-7.63876e-06,-6.20695e-05,4.19155e-05,-5.68725e-05,-5.47922e-06,4.61586e-06,0
-8.14121e-05,-1.37509e-06,-1.19987e-05,-5.19418e-05,2.65966e-05,-5.92728e-05,-1.79238e-06,6.03937e-06,0
-9.07533e-05,-1.08352e-05,-1.0377e-05,-2.89533e-05,4.49819e-05,-4.63328e-05,1.59786e-06,5.27272e-06,0
-0.000105173,-1.8144e-05,-5.30667e-06,-4.07405e-05,7.33386e-05,-4.15595e-05,2.90951e-06,3.76555e-06,0
-0.000116713,-2.31161e-05,-1.72038e-06,-7.84779e-05,9.98223e-05,-4.5013e-05,1.18629e-06,3.96372e-06,0
-0.000120144,-2.42811e-05,-2.8458e-06,-9.08658e-05,0.000103017,-4.31453e-05,-1.1134e-06,4.48167e-06,0
-0.000115547,-2.17276e-05,-5.82355e-06,-5.80141e-05,6.61774e-05,-3.79564e-05,-1.60625e-06,5.09825e-06,0
-0.000105863,-1.81634e-05,-8.92376e-06,-1.63024e-05,2.02043e-05,-3.62253e-05,5.55856e-07,6.31456e-06,0
-8.99167e-05,-1.41374e-05,-1.1461e-05,1.05884e-06,-9.70785e-06,-3.80938e-05,4.51017e-06,6.5037e-06,0
-6.53894e-05,-1.01103e-05,-1.43107e-05,-8.26665e-06,-1.73575e-05,-4.03362e-05,8.51679e-06,6.135e-06,0
-3.24093e-05,-6.88935e-06,-1.74823e-05,-2.82076e-05,-1.73467e-05,-4.0633e-05,1.01188e-05,5.92659e-06,0
5.5359e-06,-4.92628e-06,-2.14001e-05,-3.27806e-05,-1.27749e-05,-3.8329e-05,9.40293e-06,6.52684e-06,0
3.79221e-05,-4.6258e-06,-2.40806e-05,-8.56913e-06,5.35837e-06,-2.6218e-05,9.50382e-06,7.09514e-06,0
5.03795e-05,-5.38267e-06,-2.24253e-05,3.65946e-05,3.79861e-05,6.7823e-06,1.1171e-05,6.90984e-06,0
4.04184e-05,-4.31505e-06,-1.59682e-05,6.5119e-05,6.8725e-05,4.96383e-05,1.29262e-05,5.4688e-06,0
2.06054e-05,-7.58759e-07,-8.91683e-06,2.89888e-05,7.44222e-05,6.27606e-05,1.29161e-05,3.28518e-06,0
5.23333e-06,2.48427e-06,-4.72583e-06,-5.21611e-05,4.85016e-05,3.92251e-05,1.24137e-05,2.22327e-06,0
-1.15858e-06,4.93062e-06,-4.12269e-07,-8.96224e-05,1.01461e-05,1.31354e-05,1.2245e-05,3.24836e-06,0
-2.75252e-06,7.54722e-06,6.80276e-06,-2.69368e-05,-1.24448e-05,7.55968e-06,1.09848e-05,3.69831e-06,0
-3.90075e-06,9.39837e-06,1.6404e-05,8.48712e-05,-1.03846e-05,1.41896e-05,7.97242e-06,1.62247e-06,0
-6.07914e-06,1.00848e-05,2.58681e-05,0.000146108,5.69782e-06,1.87531e-05,5.13404e-06,-1.29406e-06,0
-8.98853e-06,9.48844e-06,3.06562e-05,0.000145499,1.26278e-05,1.16298e-05,4.36434e-06,-2.20229e-06,0
-1.30734e-05,7.42827e-06,2.72999e-05,0.000108194,-3.81722e-06,-3.9281e-06,5.21111e-06,-1.79008e-06,0
-1.85812e-05,6.01371e-06,1.81163e-05,4.15483e-05,-2.79289e-05,-1.82308e-05,6.59473e-06,-1.50787e-06,0
-2.62916e-05,5.5691e-06,7.68784e-06,-1.42719e-05,-2.62071e-05,-3.00934e-05,9.16441e-06,-7.71578e-07,0
-3.38578e-05,5.06884e-06,1.46964e-06,-3.19123e-05,-6.78389e-06,-3.71743e-05,1.19753e-05,8.94935e-07,0
-3.73209e-05,5.41731e-06,-1.933e-06,-1.96698e-05,1.03045e-05,-3.73753e-05,1.54766e-05,3.99541e-06,0
-3.47516e-05,8.00613e-06,-4.92258e-06,-3.6618e-06,3.06492e-05,-3.31757e-05,1.8172e-05,7.68965e-06,0
-3.04517e-05,1.12981e-05,-6.97246e-06,3.74423e-06,3.9885e-05,-2.71394e-05,1.80538e-05,1.09172e-05,0
-2.88936e-05,1.32195e-05,-7.43368e-06,9.16396e-06,1.62508e-05,-2.09538e-05,1.79114e-05,1.18249e-05,0
-2.73772e-05,1.47399e-05,-5.43784e-06,1.25912e-05,-3.83088e-05,-1.44001e-05,1.84613e-05,9.90603e-06,0
-2.47198e-05,1.66314e-05,-4.63627e-06,1.24821e-05,-9.29448e-05,-6.69985e-06,1.68907e-05,7.83357e-06,0
-2.17489e-05,1.91137e-05,-5.52872e-06,8.50821e-06,-0.000111873,-5.27485e-06,1.29146e-05,7.68009e-06,0
-2.13423e-05,2.10923e-05,-7.10711e-06,1.12319e-06,-9.48057e-05,-4.67925e-06,9.5431e-06,7.94657e-06,0
-2.26091e-05,2.292e-05,-9.73322e-06,-1.65335e-05,-5.9018e-05,1.92253e-05,6.84439e-06,7.84346e-06,0
-2.4338e-05,2.49345e-05,-1.29749e-05,-7.14805e-05,-1.95557e-05,4.67784e-05,5.64764e-06,7.74143e-06,0
-2.57041e-05,2.54999e-05,-1.70174e-05,-0.000162105,1.26109e-05,3.84813e-05,5.73596e-06,7.60142e-06,0
-2.60976e-05,2.46973e-05,-2.0878e-05,-0.000208782,3.07229e-05,5.61372e-06,6.75257e-06,6.94198e-06,0
-2.68976e-05,2.32253e-05,-2.17607e-05,-0.000150013,3.39755e-05,-2.05105e-05,9.88184e-06,3.79991e-06,0
-2.70595e-05,2.13452e-05,-1.82291e-05,-1.2185e-05,3.34447e-05,-2.66652e-05,1.4449e-05,-1.63416e-06,0
-2.7142e-05,1.92019e-05,-1.38249e-05,0.000129798,3.67729e-05,-2.08406e-05,1.85707e-05,-6.79111e-06,0
-2.80567e-05,1.69607e-05,-1.13262e-05,0.000203298,3.98671e-05,-1.38462e-05,2.02266e-05,-8.63131e-06,0
-2.97067e-05,1.4796e-05,-9.00458e-06,0.000179393,3.83515e-05,-1.12614e-05,1.74952e-05,-7.25993e-06,0
-2.93644e-05,1.45299e-05,-4.96431e-06,0.000104867,3.58728e-05,-1.09924e-05,1.10104e-05,-4.61867e-06,0
-2.81961e-05,1.58294e-05,-1.09438e-06,5.21456e-05,3.66271e-05,-9.99141e-06,4.89123e-06,-2.52776e-06,0
-2.86497e-05,1.55534e-05,-5.32139e-07,3.73174e-05,3.79272e-05,-8.71025e-06,1.69899e-06,-1.5017e-06,0
-3.02321e-05,1.34655e-05,-2.3776e-06,3.01113e-05,3.43102e-05,-8.45623e-06,7.42709e-07,-1.03551e-06,0
-3.21495e-05,1.09413e-05,-4.63924e-06,1.19873e-05,2.48444e-05,-9.48604e-06,4.37483e-07,-6.59622e-07,0
-3.39855e-05,8.61435e-06,-7.16074e-06,-8.55362e-06,1.3402e-05,-9.42186e-06,9.56037e-07,-2.59396e-07,0
-3.41622e-05,8.12642e-06,-7.15021e-06,-1.69997e-05,4.97665e-06,-8.39479e-06,3.37212e-06,-8.04898e-07,0
-3.18552e-05,9.97278e-06,-2.94237e-06,-9.30024e-06,-7.5663e-08,-8.44676e-06,8.14652e-06,-1.12845e-06,0
-3.00073e-05,1.05451e-05,-2.34092e-08,-1.11054e-06,-1.68933e-06,-9.21448e-06,1.55322e-05,-6.73765e-07,0
-3.1105e-05,9.40749e-06,-2.35479e-06,-4.65162e-07,1.74809e-06,-1.02798e-05,2.22395e-05,-1.55792e-06,0
-3.29882e-05,1.14353e-05,-6.40039e-06,6.54084e-06,1.17194e-05,-1.20427e-05,2.68291e-05,-2.8963e-06,0
-3.29939e-05,1.58633e-05,-7.75669e-06,1.65825e-05,2.85768e-05,-1.08054e-05,3.21255e-05,-2.56111e-06,0
-3.09342e-05,1.99158e-05,-6.51908e-06,-2.90156e-06,4.5224e-05,-8.12238e-06,3.69925e-05,-1.47704e-06,0
-2.79303e-05,2.14143e-05,-5.70655e-06,-6.05619e-05,5.35828e-05,-6.01458e-06,3.94868e-05,-1.86721e-07,0
-2.74659e-05,2.04678e-05,-6.57699e-06,-0.000108586,4.85461e-05,-4.46541e-06,3.88693e-05,6.11411e-07,0
-3.11676e-05,2.01041e-05,-6.95512e-06,-0.000103373,2.86555e-05,-4.28633e-06,3.73925e-05,2.11606e-06,0
-3.38099e-05,1.97224e-05,-6.5051e-06,-6.98745e-05,8.79822e-07,-5.35288e-06,3.77408e-05,3.55712e-06,0
-3.23128e-05,1.97411e-05,-7.29656e-06,-2.41975e-05,-3.39512e-05,-8.18873e-06,3.92814e-05,2.72679e-06,0
-3.10617e-05,2.01087e-05,-9.99748e-06,2.97105e-05,-7.65152e-05,-1.09784e-05,3.934e-05,1.72979e-06,0
-3.11469e-05,1.99546e-05,-1.17009e-05,6.61296e-05,-0.000113131,-1.14602e-05,3.63845e-05,1.99957e-06,0
-3.24597e-05,1.9095e-05,-1.05632e-05,6.63322e-05,-0.000128652,-1.20114e-05,3.28726e-05,3.03264e-06,0
-3.33312e-05,1.75686e-05,-9.40106e-06,3.62125e-05,-0.000101911,-1.34513e-05,3.00654e-05,4.62973e-06,0
-3.22452e-05,1.5904e-05,-8.62519e-06,1.42287e-05,-2.31523e-05,-1.2636e-05,2.74744e-05,5.8247e-06,0
-2.98429e-05,1.71195e-05,-6.89438e-06,1.69983e-05,7.14081e-05,-9.36959e-06,2.40404e-05,6.65409e-06,0
-2.79095e-05,2.18255e-05,-4.58284e-06,2.80491e-05,0.00013306,-6.18983e-06,1.91962e-05,6.07047e-06,0
-2.73456e-05,2.53042e-05,-2.99566e-06,2.52093e-05,0.000148687,-5.18657e-06,1.52014e-05,3.12209e-06,0
-2.83164e-05,2.43158e-05,-2.88607e-06,1.00668e-05,0.000130962,-7.38621e-06,1.43136e-05,4.52434e-07,0
-3.02171e-05,2.1569e-05,-3.03196e-06,-9.77664e-06,9.59147e-05,-1.01209e-05,1.51043e-05,8.34154e-07,0
-3.0575e-05,2.07911e-05,-4.06044e-06,-3.17878e-05,5.73762e-05,-1.08073e-05,1.50346e-05,3.2206e-06,0
-2.99559e-05,2.04744e-05,-8.18094e-06,-3.46818e-05,2.5339e-05,-1.21292e-05,1.41524e-05,3.87918e-06,0
-3.06744e-05,1.97214e-05,-1.40441e-05,1.34801e-05,5.78533e-06,-1.5419e-05,1.33321e-05,2.82627e-06,0
-3.23048e-05,1.85604e-05,-1.77889e-05,0.000102949,-1.71035e-06,-1.72584e-05,1.18232e-05,2.12252e-06,0
-3.25169e-05,1.87368e-05,-1.78962e-05,0.000173765,8.50379e-07,-1.66111e-05,9.09461e-06,1.88034e-06,0
-3.28563e-05,2.05087e-05,-1.65515e-05,0.000176702,1.40078e-05,-1.43771e-05,6.80922e-06,7.67553e-07,0
-3.44463e-05,2.02285e-05,-1.58662e-05,0.000113736,3.7435e-05,-1.04804e-05,6.45906e-06,-4.48901e-07,0
-3.49884e-05,1.80151e-05,-1.73658e-05,2.67548e-05,7.31467e-05,-7.50102e-06,6.30942e-06,3.16554e-07,0
-3.27707e-05,1.52392e-05,-2.12485e-05,-6.92224e-05,0.000106345,-6.54776e-06,4.19996e-06,1.84286e-06,0
-2.89501e-05,1.27775e-05,-2.23943e-05,-0.000170127,0.000113124,-5.17592e-06,2.49397e-06,1.71855e-06,0
-2.71453e-05,1.20457e-05,-2.05156e-05,-0.000212979,9.76559e-05,-5.93978e-06,2.00706e-06,1.50863e-06,0
-2.91732e-05,1.213e-05,-1.95786e-05,-0.000193157,4.23936e-05,-1.20239e-05,1.49298e-06,8.91424e-07,0
-3.28738e-05,1.22979e-05,-2.0538e-05,-0.000166614,-4.48935e-05,-1.66889e-05,2.75841e-06,-2.9925e-07,0
-3.50357e-05,1.35244e-05,-2.2334e-05,-0.000150098,-0.000103026,-1.75558e-05,4.63642e-06,-1.0006e-06,0
-3.52036e-05,1.40429e-05,-2.20113e-05,-0.000145037,-0.000117236,-1.55199e-05,5.08262e-06,-1.22067e-06,0
-3.4534e-05,1.29888e-05,-1.79322e-05,-0.000134906,-9.72979e-05,-1.19123e-05,4.47045e-06,-3.91163e-07,0
-3.33619e-05,1.13491e-05,-1.13563e-05,-0.000119539,-4.85171e-05,-1.04735e-05,-1.81692e-06,1.0654e-06,0
-3.27889e-05,9.5059e-06,-6.7949e-06,-0.000103649,-4.54582e-06,-1.17608e-05,-1.86896e-05,1.64782e-06,0
-3.33581e-05,7.80304e-06,-6.51934e-06,-9.85215e-05,5.85211e-06,-1.43455e-05,-3.81961e-05,9.02082e-07,0
-3.41388e-05,8.35666e-06,-9.27236e-06,-7.64653e-05,-2.14723e-06,-1.39606e-05,-4.86845e-05,-3.45045e-07,0
-3.30623e-05,1.32713e-05,-1.04568e-05,-2.44861e-05,-1.11168e-05,-8.9022e-06,-4.67668e-05,-1.14534e-06,0
-3.03817e-05,1.79749e-05,-7.96241e-06,3.06773e-05,-1.2906e-05,-2.2278e-06,-3.61016e-05,-5.11286e-07,0
-2.74618e-05,1.85797e-05,-5.45968e-06,7.16765e-05,-2.62996e-06,6.63019e-07,-2.21897e-05,-2.8232e-08,0
-2.70385e-05,1.58399e-05,-5.27054e-06,8.34404e-05,1.88146e-05,-5.22066e-07,-5.42553e-06,2.16829e-07,0
-2.89322e-05,1.33826e-05,-6.14355e-06,8.69771e-05,3.92765e-05,-3.10441e-06,1.61207e-05,4.79131e-07,0
-3.0231e-05,1.36053e-05,-7.99417e-06,9.50551e-05,4.93669e-05,-5.5394e-06,3.83449e-05,5.19805e-07,0
-3.08234e-05,1.71618e-05,-1.13958e-05,9.18881e-05,5.89357e-05,-6.82705e-06,5.4815e-05,8.48516e-07,0
-3.08825e-05,2.25212e-05,-1.36968e-05,7.05939e-05,9.50216e-05,-5.82102e-06,6.37826e-05,1.83706e-06,0
-3.07814e-05,2.62974e-05,-1.24251e-05,5.45916e-05,0.000174776,-3.30299e-06,6.65552e-05,2.35376e-06,0
-3.11698e-05,2.607e-05,-9.51048e-06,4.34991e-05,0.000247576,-2.2456e-06,6.4831e-05,1.3361e-06,0
-3.10469e-05,2.36124e-05,-8.29043e-06,3.35691e-05,0.000241243,-3.35714e-06,5.96884e-05,-1.10175e-06,0
-2.78556e-05,2.38425e-05,-6.32526e-06,2.9706e-05,0.000155481,-5.51072e-06,5.17827e-05,-3.68743e-06,0
-2.25496e-05,2.74816e-05,-9.46918e-08,2.88858e-05,3.82421e-05,-6.24011e-06,4.36932e-05,-5.21485e-06,0
-1.58853e-05,3.18613e-05,6.27114e-06,1.36494e-05,-6.47655e-05,-3.33554e-06,3.87983e-05,-4.76027e-06,0
-1.01596e-05,3.43285e-05,7.08767e-06,1.71e-06,-0.000127839,5.30434e-06,3.57636e-05,1.14411e-06,0
-8.20293e-06,3.37342e-05,4.782e-06,4.9065e-05,-0.000153806,1.49707e-05,3.08267e-05,1.31164e-05,0
-1.17951e-05,2.95849e-05,1.59909e-06,9.85706e-05,-0.000143446,1.27198e-05,2.29988e-05,2.16786e-05,0
-1.78298e-05,2.29348e-05,-2.06347e-06,6.67598e-05,-0.00011177,-2.00607e-06,1.52836e-05,1.77337e-05,0
-2.15502e-05,1.75225e-05,-5.02602e-06,1.68975e-05,-6.50319e-05,-1.61905e-05,7.16324e-06,7.63737e-06,0
-2.55254e-05,1.73265e-05,-6.94601e-06,-2.38359e-07,-1.14128e-05,-2.17673e-05,-3.15152e-06,-1.20814e-06,0
-2.95237e-05,2.05915e-05,-5.85541e-06,3.94452e-08,1.6646e-05,-2.05357e-05,-1.36887e-05,-7.11323e-06,0
-3.22837e-05,2.44683e-05,-2.97146e-06,4.06654e-06,6.02808e-06,-1.85017e-05,-2.05859e-05,-1.01402e-05,0
-3.40563e-05,2.7676e-05,-1.24677e-06,-1.43667e-05,-2.29538e-05,-1.93847e-05,-2.11128e-05,-1.15673e-05,0
-3.65237e-05,2.92219e-05,-2.83386e-06,-5.85744e-05,-2.7289e-05,-2.21493e-05,-1.59511e-05,-1.17152e-05,0
-4.09495e-05,2.88545e-05,-8.2713e-06,-0.000104775,-1.40596e-05,-2.12657e-05,-8.13619e-06,-1.20614e-05,0
-4.56026e-05,2.86027e-05,-1.39859e-05,-0.000110828,-1.93884e-05,-1.82659e-05,-8.73182e-07,-1.15346e-05,0
-5.21838e-05,2.80485e-05,-1.77285e-05,-6.91304e-05,-4.38352e-05,-1.83496e-05,5.06931e-06,-9.12757e-06,0
-5.90865e-05,2.68846e-05,-1.76892e-05,-1.18444e-05,-7.01794e-05,-1.65068e-05,1.05798e-05,-5.57671e-06,0
-6.02707e-05,2.78621e-05,-1.33447e-05,2.44834e-05,-7.15349e-05,-6.18168e-06,1.67799e-05,-3.26826e-06,0
-5.30604e-05,3.07443e-05,-7.60552e-06,3.06275e-05,-3.55498e-05,3.61378e-06,2.14061e-05,-3.89384e-06,0
-4.13467e-05,3.24712e-05,-2.94474e-06,1.48834e-05,1.41822e-05,3.34264e-06,2.31254e-05,-2.16361e-06,0
-3.16532e-05,3.10987e-05,9.61148e-07,-1.63664e-06,4.5768e-05,-2.98113e-06,2.34481e-05,1.11996e-05,0
-2.89579e-05,2.91312e-05,6.36203e-06,1.11393e-05,5.03522e-05,-9.84686e-06,2.34327e-05,3.43886e-05,0
-3.20883e-05,2.87951e-05,1.32185e-05,5.58375e-05,4.15868e-05,-1.47815e-05,2.26862e-05,5.0873e-05,0
-3.42089e-05,3.01702e-05,1.96411e-05,8.9537e-05,3.24501e-05,-1.70799e-05,2.17169e-05,5.05586e-05,0
-3.31997e-05,3.04096e-05,2.61747e-05,7.4215e-05,2.35958e-05,-1.65153e-05,2.14104e-05,3.53777e-05,0
-3.10588e-05,2.7738e-05,3.70233e-05,3.60182e-05,9.19247e-06,-1.49047e-05,2.14336e-05,1.06323e-05,0
-2.97956e-05,2.47557e-05,5.26179e-05,2.14647e-05,-6.01286e-06,-1.32304e-05,2.03555e-05,-1.66201e-05,0
-3.01847e-05,2.22498e-05,6.41761e-05,3.68986e-05,-5.05375e-06,-1.30028e-05,1.72999e-05,-3.90112e-05,0
-3.13166e-05,1.8095e-05,5.92821e-05,4.77728e-05,1.01133e-05,-1.7277e-05,1.36904e-05,-4.92363e-05,0
-3.2129e-05,1.38973e-05,3.53299e-05,2.46485e-05,2.26157e-05,-2.20766e-05,1.07591e-05,-4.64003e-05,0
-3.54484e-05,1.16443e-05,2.96992e-07,-1.23242e-05,2.5731e-05,-2.18375e-05,7.64276e-06,-3.85529e-05,0
-4.07563e-05,1.15228e-05,-3.51332e-05,-3.80157e-05,1.67342e-05,-2.04581e-05,5.24126e-06,-3.00017e-05,0
-4.14295e-05,1.06796e-05,-6.91244e-05,-5.5681e-05,2.26914e-05,-2.11769e-05,5.03245e-06,-1.84198e-05,0
-3.67911e-05,9.26081e-06,-9.59765e-05,-4.92863e-05,6.32507e-05,-2.11652e-05,2.27745e-06,-6.5615e-06,0
-3.1999e-05,9.5066e-06,-0.000103968,-3.12718e-05,0.000106801,-1.64198e-05,-4.41806e-06,1.28993e-06,0
-2.90312e-05,9.83265e-06,-9.2357e-05,-3.62794e-05,0.000153297,-8.89234e-06,-1.09544e-05,5.60677e-06,0
-2.58451e-05,1.08562e-05,-6.79976e-05,-5.8743e-05,0.000229673,-3.52529e-06,-1.72363e-05,8.27907e-06,0
-2.34835e-05,1.21393e-05,-4.55589e-05,-7.85968e-05,0.000285965,-1.36415e-06,-2.80598e-05,1.20506e-05,0
-2.27662e-05,1.05223e-05,-3.06607e-05,-0.000101424,0.000268463,-1.33955e-06,-4.09531e-05,1.62381e-05,0
-2.24383e-05,6.02247e-06,-2.21583e-05,-0.000116055,0.000188368,-1.71872e-06,-4.77589e-05,1.89852e-05,0
-2.35747e-05,1.84934e-06,-1.74873e-05,-0.000106966,7.70789e-05,-1.20774e-06,-4.58341e-05,1.86963e-05,0
-2.63385e-05,-3.87872e-07,-1.59997e-05,-0.000103305,-3.29631e-05,8.86622e-07,-3.48946e-05,1.60295e-05,0
-2.95489e-05,-1.59171e-06,-1.76164e-05,-0.000117569,-0.000124814,1.16427e-06,-1.74533e-05,1.19027e-05,0
-3.40995e-05,-2.96927e-06,-1.74394e-05,-0.000118098,-0.000176527,-4.40187e-06,4.76124e-06,5.64357e-06,0
-3.8355e-05,-3.50282e-06,-1.38819e-05,-6.94662e-05,-0.000184809,-1.63305e-05,2.96779e-05,-5.86861e-07,0
-3.91771e-05,-3.18372e-06,-8.32109e-06,4.00772e-06,-0.000156939,-2.68434e-05,5.31651e-05,-3.67355e-06,0
-3.68406e-05,-2.55867e-06,-2.14809e-06,5.98798e-05,-9.98523e-05,-2.81063e-05,7.0594e-05,-2.13848e-06,0
-3.29067e-05,-2.65204e-06,4.15254e-06,9.17499e-05,-3.82623e-05,-2.31523e-05,7.84873e-05,2.08561e-06,0
-2.98027e-05,-3.55442e-06,7.75916e-06,9.00766e-05,-2.22616e-06,-1.96019e-05,7.71998e-05,5.74207e-06,0
-2.67729e-05,-4.06789e-06,8.61795e-06,4.81252e-05,2.15081e-06,-1.51531e-05,6.88777e-05,6.20887e-06,0
-2.05717e-05,-3.11611e-06,8.19432e-06,-1.28907e-06,-1.80531e-06,-9.73789e-07,5.70741e-05,3.59962e-06,0
-1.30989e-05,-1.93857e-06,6.94266e-06,-3.22848e-05,-8.88334e-07,1.76597e-05,4.75289e-05,5.40026e-07,0
-1.345e-05,-3.11008e-06,4.11382e-06,-6.10386e-05,2.01622e-06,2.27501e-05,4.31882e-05,-6.04749e-07,0
-2.27429e-05,-5.78424e-06,-5.33468e-07,-9.4102e-05,3.29872e-06,8.73118e-06,3.84438e-05,-6.71382e-08,0
-3.05749e-05,-6.64326e-06,-5.86711e-06,-0.000104961,7.81037e-06,-9.73877e-06,2.8444e-05,5.25267e-07,0
-2.93276e-05,-5.4762e-06,-8.13307e-06,-6.89806e-05,1.72936e-05,-1.83508e-05,1.54455e-05,1.18676e-06,0
-2.2349e-05,-4.74311e-06,-7.56272e-06,2.09015e-07,2.50671e-05,-5.80697e-06,5.90823e-06,2.55615e-06,0
-1.77475e-05,-5.82582e-06,-8.10482e-06,6.60114e-05,1.98461e-05,2.30334e-05,3.78691e-06,3.59024e-06,0
-1.66292e-05,-9.18899e-06,-9.5051e-06,9.4373e-05,7.98874e-06,3.94321e-05,5.40772e-06,3.91698e-06,0
-1.92041e-05,-1.0969e-05,-9.08042e-06,7.68203e-05,3.69117e-06,2.74374e-05,5.78451e-06,4.64365e-06,0
-2.33138e-05,-1.2574e-05,-8.2134e-06,3.63594e-05,5.04454e-06,4.55802e-06,5.51125e-06,5.69563e-06,0
-2.5336e-05,-1.41853e-05,-6.8719e-06,-9.21012e-06,5.28896e-06,-8.63106e-06,5.06202e-06,5.19124e-06,0
-2.60462e-05,-1.40861e-05,-5.02021e-06,-3.65852e-05,7.80074e-06,-1.29469e-05,3.06012e-06,3.12561e-06,0
-2.51505e-05,-1.40346e-05,-3.51321e-06,-2.39451e-05,1.63584e-05,-9.98407e-06,1.64131e-06,1.26993e-06,0
-2.29747e-05,-1.12939e-05,-8.39654e-07,8.72999e-06,2.41512e-05,-3.6132e-06,1.32773e-06,4.45982e-07,0
-2.08302e-05,-5.77223e-06,7.3649e-07,3.99824e-05,2.36254e-05,-7.27566e-07,2.66734e-07,-7.38194e-07,0
-2.10957e-05,-8.78044e-07,2.44183e-06,6.32953e-05,1.86444e-05,-1.43789e-06,-1.23795e-06,-2.2571e-06,0
-2.29187e-05,-3.34373e-07,3.75944e-06,7.6142e-05,1.71198e-05,-3.86787e-06,-2.76723e-06,-3.65894e-06,0
-2.48549e-05,-2.55491e-06,3.90409e-06,7.89358e-05,1.76865e-05,-6.23352e-06,-3.4833e-06,-4.06492e-06,0
-2.73975e-05,-3.72778e-06,4.14251e-06,7.36024e-05,1.69296e-05,-8.69942e-06,-4.01678e-06,-3.88309e-06,0
-3.05633e-05,-2.61013e-06,3.3822e-06,6.08879e-05,1.42709e-05,-1.01843e-05,-4.17331e-06,-4.01031e-06,0
-3.34533e-05,-6.71611e-07,8.9448e-07,4.42676e-05,1.09968e-05,-1.10949e-05,-1.67155e-06,-3.57456e-06,0
-3.41526e-05,2.03394e-06,-1.54436e-06,3.24877e-05,7.85294e-06,-1.10891e-05,2.62003e-06,-3.05294e-06,0
-3.40138e-05,5.76698e-06,-3.08974e-06,2.75203e-05,6.31562e-06,-1.05863e-05,6.06827e-06,-2.09043e-06,0
-3.48242e-05,8.67006e-06,-5.04409e-06,2.56703e-05,8.10141e-06,-1.01591e-05,7.31853e-06,-1.68313e-06,0
-3.68174e-05,9.60532e-06,-8.01201e-06,2.18147e-05,1.48837e-05,-1.07558e-05,8.22404e-06,-3.18494e-06,0
-3.80544e-05,9.21907e-06,-1.09788e-05,1.16183e-05,2.69747e-05,-1.24337e-05,1.03278e-05,-6.83785e-06,0
-3.77283e-05,9.15653e-06,-1.20483e-05,-6.46102e-06,4.15137e-05,-1.35823e-05,1.30986e-05,-9.17407e-06,0
-3.64742e-05,8.17464e-06,-1.12879e-05,-1.97293e-05,5.05941e-05,-1.31707e-05,1.54676e-05,-9.27612e-06,0
-3.59644e-05,5.53168e-06,-1.03551e-05,-1.69586e-05,4.37492e-05,-1.22022e-05,1.63213e-05,-8.84483e-06,0
-3.68442e-05,3.18313e-06,-1.17112e-05,-6.74156e-06,2.0087e-05,-1.32854e-05,1.50561e-05,-7.10386e-06,0
-3.75773e-05,3.84051e-06,-1.6067e-05,-9.96807e-06,-6.89417e-06,-1.47399e-05,1.33638e-05,-4.19847e-06,0
-3.67758e-05,6.30039e-06,-2.19379e-05,-4.2508e-05,-2.25142e-05,-1.43541e-05,1.32992e-05,-3.46291e-06,0
-3.56588e-05,7.86122e-06,-2.56171e-05,-9.19654e-05,-2.40801e-05,-1.33658e-05,1.41178e-05,-4.04142e-06,0
-3.593e-05,7.48397e-06,-2.44856e-05,-0.00011718,-2.29889e-05,-1.19207e-05,1.36048e-05,-2.47749e-06,0
-3.53184e-05,5.81651e-06,-1.99017e-05,-7.74841e-05,-3.0881e-05,-1.13099e-05,1.31351e-05,-2.24513e-06,0
-3.21599e-05,5.45833e-06,-1.25358e-05,1.75732e-05,-2.92334e-05,-1.15203e-05,1.55462e-05,-4.64344e-06,0
-2.80783e-05,9.18676e-06,-5.28448e-06,4.09345e-05,-3.95904e-06,-6.56157e-06,1.75833e-05,-5.58262e-06,0
-2.52149e-05,1.26129e-05,-3.67419e-06,-1.73462e-05,1.79656e-05,-8.66906e-07,1.73462e-05,-5.22084e-06,0
-2.38835e-05,1.1734e-05,-7.45991e-06,-2.56042e-05,2.03154e-05,-2.45754e-07,1.6534e-05,-5.09681e-06,0
-2.44397e-05,7.78528e-06,-9.16138e-06,1.1248e-05,7.95253e-06,-3.34404e-06,1.40974e-05,-4.41865e-06,0
-2.63239e-05,4.56149e-06,-7.08179e-06,3.27334e-05,-6.99045e-06,-6.40735e-06,1.1245e-05,-3.14187e-06,0
-2.66017e-05,4.38181e-06,-5.26041e-06,1.91556e-05,-1.58066e-05,-7.92065e-06,1.1378e-05,-7.85138e-07,0
-2.6259e-05,6.05807e-06,-3.48868e-06,-5.8939e-07,-1.69459e-05,-8.37928e-06,1.28626e-05,2.93566e-06,0
-2.77752e-05,9.99067e-06,-1.48142e-06,-9.29549e-06,-1.01658e-05,-6.98764e-06,1.35285e-05,8.16122e-06,0
-2.9486e-05,1.40437e-05,2.24421e-06,-8.94885e-06,-1.86603e-06,-5.26637e-06,1.44383e-05,1.25633e-05,0
-2.97102e-05,1.71165e-05,5.74796e-06,-5.87521e-06,1.98108e-06,-5.95606e-06,1.513e-05,1.32419e-05,0
-2.87003e-05,2.03627e-05,6.55337e-06,-6.85012e-06,-5.80148e-07,-9.8353e-06,1.46159e-05,1.17433e-05,0
-2.71993e-05,2.28767e-05,5.06438e-06,-1.16806e-05,-5.39996e-06,-1.30728e-05,1.32434e-05,1.07668e-05,0
-2.61095e-05,2.25636e-05,2.49342e-06,-1.93594e-05,-6.13258e-06,-1.40413e-05,1.19236e-05,9.85652e-06,0
-2.66783e-05,2.08272e-05,-1.3026e-06,-2.15079e-05,2.17108e-07,-1.39258e-05,1.03429e-05,8.39963e-06,0
-2.79559e-05,2.04629e-05,-5.80469e-06,-2.07946e-05,9.44413e-06,-1.42974e-05,8.93596e-06,5.79744e-06,0
-2.81479e-05,2.20982e-05,-8.35628e-06,-2.01992e-05,1.74551e-05,-1.4903e-05,1.00336e-05,-2.54776e-07,0
-2.72142e-05,2.37559e-05,-9.29896e-06,-2.10547e-05,2.38732e-05,-1.4712e-05,1.33337e-05,-7.96551e-06,0
-2.70453e-05,2.38523e-05,-9.72525e-06,-1.73068e-05,2.9736e-05,-1.3996e-05,1.57608e-05,-1.09443e-05,0
-2.87482e-05,2.36297e-05,-9.15129e-06,-1.19784e-05,3.22526e-05,-1.35218e-05,1.49015e-05,-7.44518e-06,0
-3.16308e-05,2.37651e-05,-8.49693e-06,-6.14921e-06,2.86726e-05,-1.34989e-05,1.16832e-05,-1.99214e-06,0
-3.35623e-05,2.4193e-05,-9.77458e-06,-1.70187e-06,2.04905e-05,-1.44471e-05,8.33005e-06,2.06779e-06,0
-3.33447e-05,2.55381e-05,-1.03202e-05,2.28011e-06,1.00367e-05,-1.56329e-05,6.3648e-06,4.37394e-06,0
-3.13755e-05,2.73651e-05,-8.80046e-06,2.20264e-06,1.00343e-06,-1.44267e-05,6.90584e-06,5.12958e-06,0
-3.1035e-05,2.86423e-05,-6.60105e-06,-1.89687e-06,-2.31117e-06,-1.24081e-05,1.05822e-05,5.73428e-06,0
-3.35532e-05,2.86637e-05,-6.68051e-06,-6.49948e-06,-8.7483e-06,-1.28653e-05,1.52229e-05,5.61807e-06,0
-3.40421e-05,2.73891e-05,-7.34333e-06,-8.10864e-06,-3.25293e-05,-1.47624e-05,1.59239e-05,4.58198e-06,0
-3.16048e-05,2.71729e-05,-6.57065e-06,-6.32438e-06,-4.40059e-05,-1.58987e-05,9.89381e-06,3.94341e-06,0
-2.88096e-05,2.61869e-05,-6.39296e-06,-6.0078e-06,8.82125e-07,-1.62495e-05,1.11756e-06,3.79535e-06,0
-2.85305e-05,2.2309e-05,-6.88016e-06,-1.03566e-05,6.27664e-05,-1.70517e-05,-3.48792e-06,3.91036e-06,0
-3.01691e-05,1.82487e-05,-7.98529e-06,-1.81788e-05,8.23573e-05,-1.86213e-05,-4.85176e-06,3.70241e-06,0
-3.20438e-05,1.51449e-05,-9.80358e-06,-2.07479e-05,6.53806e-05,-1.95255e-05,-5.91737e-06,4.28158e-06,0
-3.41365e-05,1.38778e-05,-1.2685e-05,-1.73705e-05,3.80074e-05,-1.97439e-05,-6.80486e-06,5.05874e-06,0
-3.42995e-05,1.42049e-05,-1.42784e-05,-9.5589e-06,2.52406e-05,-1.84419e-05,-5.62696e-06,4.76949e-06,0
-3.14507e-05,1.54966e-05,-1.34656e-05,-1.10511e-06,3.68046e-05,-1.58305e-05,8.08907e-07,3.37736e-06,0
-2.9323e-05,1.58812e-05,-1.36464e-05,2.27565e-06,5.50866e-05,-1.56742e-05,1.07114e-05,2.88974e-06,0
-3.06539e-05,1.4273e-05,-1.50988e-05,-2.00827e-06,5.35603e-05,-1.92027e-05,2.16922e-05,3.9188e-06,0
-3.20289e-05,1.24398e-05,-1.45497e-05,-7.56433e-06,3.65541e-05,-2.203e-05,3.02338e-05,3.99278e-06,0
-3.1541e-05,1.17511e-05,-1.19449e-05,-7.4853e-06,2.46262e-05,-1.99934e-05,3.47165e-05,2.96683e-06,0
-3.05292e-05,1.18976e-05,-1.09061e-05,-2.16206e-06,2.3368e-05,-1.62418e-05,3.61173e-05,1.40316e-06,0
-3.00155e-05,1.32228e-05,-1.31032e-05,1.56255e-06,2.61796e-05,-1.4475e-05,3.57734e-05,9.02415e-08,0
-3.0667e-05,1.57881e-05,-1.55586e-05,6.81799e-07,2.64562e-05,-1.39918e-05,3.51918e-05,-2.35621e-07,0
-3.19157e-05,1.81484e-05,-1.62383e-05,-2.31674e-06,2.53242e-05,-1.36264e-05,3.42993e-05,3.26324e-07,0
-3.27983e-05,1.93172e-05,-1.47736e-05,-3.53276e-06,2.5493e-05,-1.38451e-05,3.33553e-05,6.75684e-07,0
-3.26782e-05,1.85257e-05,-1.19954e-05,-2.59612e-06,2.81512e-05,-1.4471e-05,3.22612e-05,8.16859e-07,0
-3.24637e-05,1.66412e-05,-8.61763e-06,-1.29181e-06,3.03621e-05,-1.45567e-05,3.03244e-05,1.24273e-06,0
-3.26451e-05,1.53891e-05,-5.15043e-06,-9.54906e-07,3.07228e-05,-1.46121e-05,2.6742e-05,1.74524e-06,0
-3.22842e-05,1.46911e-05,-2.9319e-06,-4.77748e-07,2.84939e-05,-1.47508e-05,2.26689e-05,2.72309e-06,0
-3.16449e-05,1.328e-05,-1.56167e-06,8.81934e-07,2.54551e-05,-1.3683e-05,1.82848e-05,3.72761e-06,0
-3.08885e-05,1.3046e-05,-5.60407e-07,1.07434e-06,2.31278e-05,-1.22914e-05,1.51401e-05,3.47155e-06,0
-2.97235e-05,1.38738e-05,-4.13364e-07,-1.57259e-07,2.13819e-05,-1.23666e-05,1.52914e-05,2.56137e-06,0
-2.86386e-05,1.41004e-05,-4.53761e-07,-6.32677e-07,2.04754e-05,-1.2154e-05,1.66203e-05,2.42229e-06,0
-2.78113e-05,1.21158e-05,-2.10463e-06,1.15043e-06,2.05388e-05,-1.0688e-05,1.58577e-05,1.86182e-06,0
-2.74543e-05,8.03444e-06,-4.78053e-06,3.42503e-06,1.93958e-05,-9.14499e-06,1.37758e-05,1.96803e-07,0
-2.64891e-05,4.70911e-06,-5.48973e-06,3.61724e-06,1.78273e-05,-7.21737e-06,1.34509e-05,-1.66358e-06,0
-2.55507e-05,3.59275e-06,-4.38923e-06,2.38717e-06,1.73709e-05,-5.03829e-06,1.26567e-05,-1.9925e-06,0
-2.51614e-05,2.75341e-06,-2.28228e-06,-7.48195e-08,1.64791e-05,-4.28961e-06,9.19978e-06,-1.47903e-06,0
-2.38087e-05,1.66816e-06,-1.0862e-06,-3.25938e-06,1.47409e-05,-4.66392e-06,6.60823e-06,-1.1913e-06,0
-2.52966e-05,2.77903e-06,-6.62554e-07,-4.68537e-06,1.41053e-05,-6.11323e-06,6.38669e-06,3.6032e-07,0
-2.79342e-05,4.77022e-06,-1.36099e-06,-4.42926e-06,1.53987e-05,-7.32487e-06,8.17739e-06,1.62765e-06,0
-2.82272e-05,6.70951e-06,-3.03448e-06,-3.69994e-06,1.22998e-05,-7.43923e-06,1.07501e-05,-2.92135e-07,0
-2.6982e-05,9.32574e-06,-4.88328e-06,-2.62587e-06,-3.05362e-06,-6.77842e-06,1.29712e-05,-4.5803e-06,0
-2.58821e-05,1.29873e-05,-4.64073e-06,5.9436e-07,-2.61961e-05,-6.78996e-06,1.45194e-05,-6.70838e-06,0
-2.66347e-05,1.63937e-05,-4.81264e-06,2.84242e-06,-3.65782e-05,-8.04716e-06,1.60213e-05,-6.00046e-06,0
-2.85853e-05,1.58715e-05,-1.10559e-05,1.05843e-06,-2.24913e-05,-9.04498e-06,1.75556e-05,-4.42098e-06,0
-2.97591e-05,1.16393e-05,-2.02367e-05,-3.22513e-06,5.88338e-06,-9.61894e-06,1.40288e-05,-2.01961e-06,0
-2.84505e-05,6.40778e-06,-2.56698e-05,-6.05421e-06,3.08969e-05,-9.07189e-06,3.68864e-06,1.24073e-06,0
-2.64951e-05,4.43137e-06,-2.50388e-05,-4.49684e-06,4.28122e-05,-7.81048e-06,-6.98245e-06,4.00114e-06,0
-2.59245e-05,6.77271e-06,-2.4975e-05,-1.57607e-06,4.22028e-05,-6.25436e-06,-1.0998e-05,4.77919e-06,0
-2.75687e-05,9.98252e-06,-3.1763e-05,-1.59921e-06,3.43011e-05,-5.13715e-06,-7.89159e-06,4.72254e-06,0
-3.04731e-05,1.19198e-05,-4.1331e-05,-4.63072e-06,2.84212e-05,-4.39286e-06,-1.31078e-06,4.23605e-06,0
-3.23676e-05,1.20731e-05,-4.22457e-05,-7.54219e-06,3.97398e-05,-5.09476e-06,5.81287e-06,2.93152e-06,0
-3.27823e-05,1.0361e-05,-3.22571e-05,-9.17786e-06,6.91586e-05,-7.84712e-06,1.45231e-05,1.94537e-06,0
-3.39827e-05,8.00074e-06,-1.97785e-05,-1.11193e-05,9.61551e-05,-1.11157e-05,2.63958e-05,2.8263e-06,0
-3.52861e-05,8.08362e-06,-1.07568e-05,-1.24492e-05,0.000114183,-1.24686e-05,3.6882e-05,4.09524e-06,0
-3.53041e-05,9.71462e-06,-4.86162e-06,-1.25203e-05,0.000109515,-1.15988e-05,3.98705e-05,3.94525e-06,0
-3.38936e-05,1.22739e-05,1.15917e-06,-1.22179e-05,5.58266e-05,-1.0068e-05,3.88209e-05,2.90009e-06,0
-3.17517e-05,1.44869e-05,9.84826e-06,-1.17408e-05,-2.30202e-05,-9.59993e-06,3.87181e-05,1.08053e-06,0
-3.07323e-05,1.61819e-05,2.32206e-05,-1.16896e-05,-8.16391e-05,-9.5254e-06,3.74274e-05,-2.63587e-07,0
-3.07126e-05,1.7787e-05,4.39909e-05,-1.41139e-05,-0.000104383,-6.40555e-06,3.46875e-05,4.37121e-07,0
-3.08696e-05,1.63175e-05,6.69402e-05,-1.85585e-05,-9.64105e-05,-2.47652e-06,3.09157e-05,1.4558e-06,0
-3.14416e-05,1.18164e-05,7.95218e-05,-2.3128e-05,-6.83145e-05,-2.62687e-06,2.5579e-05,1.14099e-06,0
-3.3359e-05,8.94698e-06,7.2049e-05,-2.83072e-05,-4.00551e-05,-6.36188e-06,1.74404e-05,2.35206e-06,0
-3.49732e-05,9.43955e-06,4.45331e-05,-3.24721e-05,-1.90055e-05,-8.80903e-06,7.48817e-06,3.68657e-06,0
-3.43438e-05,1.23009e-05,5.60368e-06,-3.57977e-05,-6.25461e-06,-9.47096e-06,1.052e-06,2.63048e-06,0
-3.24498e-05,1.78076e-05,-3.65069e-05,-3.64948e-05,-6.44356e-06,-9.12687e-06,-1.00972e-06,3.22079e-06,0
-3.07631e-05,2.29702e-05,-7.11802e-05,-3.07149e-05,-2.06563e-06,-8.91836e-06,-2.53525e-07,3.8586e-06,0
-3.07705e-05,2.68473e-05,-8.77781e-05,-2.44898e-05,1.63077e-05,-9.14992e-06,3.03211e-06,3.68247e-06,0
-3.21461e-05,2.73684e-05,-8.55033e-05,-2.13501e-05,3.8811e-05,-9.3002e-06,6.49037e-06,3.03943e-06,0
-3.37293e-05,2.41753e-05,-7.46816e-05,-1.75696e-05,5.03095e-05,-1.02266e-05,7.00084e-06,1.43007e-06,0
-3.45571e-05,2.07089e-05,-6.28018e-05,-1.05592e-05,4.39313e-05,-1.01989e-05,5.84995e-06,-4.13586e-07,0
-3.35045e-05,1.9634e-05,-5.26989e-05,1.53526e-06,2.05628e-05,-9.53898e-06,5.19144e-06,-1.79364e-06,0
-3.1573e-05,2.13889e-05,-4.47375e-05,1.66772e-05,-5.58106e-06,-8.74791e-06,5.52628e-06,3.39968e-07,0
-2.9928e-05,2.18155e-05,-3.60122e-05,2.97823e-05,-2.07889e-05,-7.29587e-06,5.59009e-06,3.87492e-06,0
-2.93576e-05,2.02188e-05,-2.67479e-05,3.73643e-05,-2.32535e-05,-5.23433e-06,5.17996e-06,4.84175e-06,0
-3.05151e-05,1.78526e-05,-2.25634e-05,3.82421e-05,-1.84056e-05,-3.47778e-06,5.62298e-06,3.87381e-06,0
-3.2859e-05,1.56759e-05,-2.86542e-05,3.04644e-05,-1.03102e-05,-3.96283e-06,7.3145e-06,3.78466e-06,0
-3.4253e-05,1.32351e-05,-3.96811e-05,1.81442e-05,3.84027e-06,-6.5825e-06,1.04398e-05,3.77141e-06,0
-3.34689e-05,1.21267e-05,-4.24014e-05,9.77645e-06,2.25436e-05,-8.12167e-06,1.29017e-05,3.62633e-06,0
-3.15276e-05,1.34965e-05,-3.05236e-05,6.69617e-06,3.71999e-05,-6.93568e-06,1.36344e-05,3.07895e-06,0
-3.02214e-05,1.40327e-05,-1.21522e-05,4.28429e-06,3.63135e-05,-5.21028e-06,1.31182e-05,2.18075e-06,0
-3.00909e-05,1.23972e-05,1.46362e-06,-6.44367e-08,1.92381e-05,-4.90147e-06,1.15811e-05,1.34105e-06,0
-3.03972e-05,1.23457e-05,6.62826e-06,-5.18296e-06,-6.19969e-06,-4.30461e-06,9.81475e-06,1.52077e-06,0
-3.06182e-05,1.50022e-05,5.824e-06,-9.25619e-06,-2.48595e-05,-3.07585e-06,8.55933e-06,3.16514e-06,0
-3.09128e-05,1.60248e-05,4.60451e-06,-1.06832e-05,-3.11877e-05,-3.14566e-06,7.41878e-06,4.27034e-06,0
-3.04291e-05,1.58267e-05,6.06144e-06,-9.81725e-06,-2.67391e-05,-2.15023e-06,6.43522e-06,3.41719e-06,0
-2.93504e-05,1.53947e-05,9.05637e-06,-1.2607e-05,-1.25612e-05,-9.80908e-07,5.35779e-06,1.17168e-06,0
-2.8497e-05,1.48861e-05,1.26432e-05,-1.9581e-05,7.65965e-06,-1.17762e-06,4.62877e-06,-6.13789e-07,0
-2.88098e-05,1.42895e-05,1.60305e-05,-2.27902e-05,2.62031e-05,-1.17271e-06,2.68566e-06,-3.06719e-06,0
-3.027e-05,1.36921e-05,1.78295e-05,-1.98253e-05,3.44269e-05,-1.23887e-07,-1.74416e-06,-4.77858e-06,0
-3.06796e-05,1.54679e-05,1.88653e-05,-1.13413e-05,3.19692e-05,2.25006e-06,-8.39573e-06,-4.12325e-06,0
-2.91367e-05,1.76368e-05,2.02564e-05,-7.23656e-08,2.15876e-05,3.21807e-06,-1.46651e-05,-2.51095e-06,0
-2.69003e-05,1.88072e-05,1.89805e-05,5.36009e-06,7.61848e-06,1.94683e-06,-1.49577e-05,-1.16702e-06,0
-2.77246e-05,1.80063e-05,1.52938e-05,-5.65287e-06,-3.02907e-06,5.14753e-07,-9.59966e-06,-7.75558e-07,0
-3.004e-05,1.55605e-05,1.10269e-05,-2.41451e-05,-8.90317e-06,-8.22622e-07,-1.55398e-06,8.1489e-07,0
-3.04346e-05,1.47501e-05,8.78972e-06,-3.38612e-05,-7.19595e-06,-4.66741e-06,7.70641e-06,3.69731e-06,0
-3.00744e-05,1.49581e-05,6.79837e-06,-2.86569e-05,1.05119e-06,-8.80777e-06,1.56751e-05,4.23626e-06,0
-3.0701e-05,1.5145e-05,-2.54258e-08,-5.83916e-06,8.66982e-06,-9.76399e-06,2.18833e-05,3.17993e-06,0
-3.15143e-05,1.42014e-05,-1.39515e-05,2.80883e-05,1.22355e-05,-9.5903e-06,2.60753e-05,1.45999e-06,0
-3.13782e-05,1.30271e-05,-3.11467e-05,5.5352e-05,1.07176e-05,-9.5369e-06,2.75192e-05,3.82927e-07,0
-2.95471e-05,1.21862e-05,-3.99626e-05,5.97789e-05,7.1032e-06,-9.44913e-06,2.68589e-05,7.51366e-07,0
-2.5908e-05,1.24815e-05,-3.50333e-05,4.54152e-05,3.84484e-06,-8.986e-06,2.46506e-05,5.02583e-07,0
-2.35628e-05,1.31872e-05,-2.35008e-05,2.71449e-05,4.34854e-06,-8.10597e-06,2.18345e-05,-7.43807e-07,0
-2.43543e-05,1.16996e-05,-1.57755e-05,1.81364e-05,1.15682e-05,-6.69693e-06,2.02742e-05,-1.40911e-06,0
-2.67502e-05,8.59766e-06,-1.18163e-05,1.98268e-05,2.33015e-05,-6.17898e-06,1.82877e-05,-1.16723e-06,0
-2.86928e-05,7.58094e-06,-7.28587e-06,2.50718e-05,3.23104e-05,-6.44589e-06,8.09372e-06,-1.53849e-06,0
-2.99186e-05,1.00094e-05,-2.23569e-06,2.72902e-05,3.66268e-05,-7.08022e-06,-1.16567e-05,-2.49499e-06,0
-3.06235e-05,1.30107e-05,-3.33344e-07,2.47772e-05,3.87504e-05,-8.52845e-06,-3.24717e-05,-3.11486e-06,0
-3.08327e-05,1.43612e-05,-2.43244e-06,2.30554e-05,3.94762e-05,-1.10882e-05,-4.90721e-05,-2.73491e-06,0
-3.0152e-05,1.20948e-05,-6.52873e-06,2.59559e-05,3.63009e-05,-1.4031e-05,-6.16088e-05,-2.10834e-06,0
-3.02354e-05,8.07145e-06,-9.38208e-06,2.74203e-05,2.89923e-05,-1.45736e-05,-6.50357e-05,-1.29399e-06,0
-3.17947e-05,5.60147e-06,-9.01406e-06,1.58763e-05,2.26991e-05,-1.40803e-05,-5.39453e-05,7.12617e-08,0
-3.24228e-05,5.02355e-06,-6.26641e-06,-1.10525e-05,2.03178e-05,-1.48528e-05,-2.95386e-05,6.46514e-07,0
-3.20541e-05,5.23611e-06,-3.5555e-06,-3.75938e-05,1.98209e-05,-1.58554e-05,1.65497e-06,-1.66613e-06,0
-3.19116e-05,5.77727e-06,-1.7162e-06,-4.8371e-05,1.94927e-05,-1.67592e-05,3.27151e-05,-4.67586e-06,0
-3.20146e-05,6.49543e-06,-6.57553e-07,-4.82182e-05,1.97296e-05,-1.87463e-05,6.44459e-05,-5.29505e-06,0
-3.31446e-05,7.38117e-06,1.04898e-07,-5.1644e-05,1.9732e-05,-2.05953e-05,9.17457e-05,-4.73744e-06,0
-3.40685e-05,9.67496e-06,1.11803e-06,-5.9627e-05,1.80561e-05,-2.20578e-05,0.000105807,-2.78614e-06,0
-3.42709e-05,1.31713e-05,1.03885e-06,-5.70968e-05,1.46258e-05,-2.2916e-05,0.000108798,-3.07342e-07,0
-3.44824e-05,1.41354e-05,7.65939e-07,-4.23343e-05,1.17527e-05,-2.21688e-05,0.000102177,1.99595e-06,0
-3.39071e-05,1.35502e-05,7.57414e-07,-2.74614e-05,1.18682e-05,-2.07129e-05,8.81992e-05,5.45188e-06,0
-3.28713e-05,1.41114e-05,1.40351e-06,-2.23713e-05,1.37645e-05,-2.04713e-05,7.12029e-05,7.76653e-06,0
-3.27156e-05,1.30382e-05,1.00869e-06,-2.58169e-05,1.48956e-05,-2.13211e-05,5.7586e-05,8.2385e-06,0
-3.35545e-05,9.63164e-06,-5.63283e-07,-2.67725e-05,1.52049e-05,-2.24287e-05,4.87433e-05,7.24101e-06,0
-3.32405e-05,5.95089e-06,-1.35766e-06,-2.08223e-05,1.52764e-05,-2.34228e-05,4.0391e-05,5.03057e-06,0
-3.30648e-05,3.80212e-06,-9.20601e-07,-8.85684e-06,1.65677e-05,-2.29535e-05,3.054e-05,2.16417e-06,0
-3.35778e-05,3.43661e-06,-2.16248e-07,7.80326e-06,2.11685e-05,-2.06906e-05,1.86457e-05,1.12947e-06,0
-3.35125e-05,3.99317e-06,3.38286e-08,2.31901e-05,2.90495e-05,-1.77202e-05,9.06865e-06,1.86049e-06,0
-3.30836e-05,5.15215e-06,-6.3056e-10,2.90422e-05,3.72521e-05,-1.58781e-05,4.55088e-06,5.77514e-07,0
-3.33083e-05,5.91285e-06,-1.68803e-06,2.27974e-05,4.15402e-05,-1.51379e-05,3.39395e-06,-2.20967e-06,0
-3.37446e-05,4.01039e-06,-4.0623e-06,1.14972e-05,3.90327e-05,-1.47057e-05,1.75577e-06,-3.07321e-06,0
-3.36157e-05,7.33923e-07,-4.47192e-06,2.9719e-06,3.10503e-05,-1.4063e-05,-1.50087e-06,-2.03066e-06,0
-3.28243e-05,-5.13242e-07,-2.53216e-06,5.15017e-07,2.22151e-05,-1.34092e-05,-5.31988e-06,-1.74546e-06,0
-3.08012e-05,-9.54165e-07,-9.85768e-07,3.27581e-06,1.55164e-05,-1.25449e-05,-8.1077e-06,-1.18118e-06,0
-2.8941e-05,-2.94955e-06,-6.31857e-07,7.43445e-06,9.96608e-06,-1.16207e-05,-1.06038e-05,7.08811e-07,0
-2.89063e-05,-5.94008e-06,-1.09906e-07,9.06848e-06,4.68775e-06,-1.24436e-05,-1.35925e-05,2.66064e-06,0
-3.02209e-05,-7.07811e-06,-3.36106e-07,8.34278e-06,1.5965e-06,-1.50001e-05,-1.55954e-05,4.65088e-06,0
-3.12916e-05,-6.03773e-06,-1.82331e-06,8.42749e-06,1.12294e-06,-1.64299e-05,-1.45994e-05,7.23405e-06,0
-3.13448e-05,-4.5914e-06,-4.12347e-06,8.04694e-06,1.54045e-06,-1.63369e-05,-9.72669e-06,8.07259e-06,0
-3.04555e-05,-3.71912e-06,-5.71896e-06,5.74817e-06,2.32912e-06,-1.6651e-05,-3.90878e-06,7.04676e-06,0
-3.02479e-05,-2.53793e-06,-5.91828e-06,2.09873e-06,1.41299e-06,-1.73676e-05,-2.88501e-07,5.37112e-06,0
-2.94456e-05,3.25143e-07,-6.72849e-06,-5.89704e-07,6.825e-07,-1.55971e-05,1.56221e-06,5.35952e-06,0
-2.68267e-05,3.55088e-06,-7.82939e-06,-6.05645e-07,3.42495e-06,-1.14339e-05,3.00962e-06,6.64463e-06,0
-2.50881e-05,4.10731e-06,-8.46049e-06,-4.17982e-07,6.05286e-06,-1.09183e-05,4.24751e-06,7.68775e-06,0
-2.49997e-05,2.65615e-06,-9.37786e-06,-4.47403e-07,6.25546e-06,-1.4034e-05,5.56208e-06,8.77e-06,0
-2.48979e-05,3.58988e-06,-8.91486e-06,-2.58339e-07,6.41371e-06,-1.62736e-05,5.27795e-06,1.18373e-05,0
-2.37655e-05,5.38518e-06,-7.69188e-06,-1.67668e-06,6.7345e-06,-1.6207e-05,3.84531e-06,2.56952e-05,0
-2.23149e-05,5.38191e-06,-8.69638e-06,-3.87834e-06,7.67401e-06,-1.39419e-05,3.83912e-06,4.773e-05,0
-2.15422e-05,4.94369e-06,-1.04226e-05,-5.68901e-06,9.23987e-06,-1.29312e-05,4.39269e-06,5.92861e-05,0
-2.16922e-05,5.78671e-06,-1.02212e-05,-5.65533e-06,1.01465e-05,-1.33197e-05,5.25397e-06,5.37289e-05,0
-2.2241e-05,7.33511e-06,-8.97782e-06,-4.13668e-06,1.15215e-05,-1.20205e-05,6.04817e-06,3.661e-05,0
-2.22988e-05,1.00765e-05,-8.19864e-06,-3.15939e-06,1.20096e-05,-1.08439e-05,6.01971e-06,9.68284e-06,0
-2.38864e-05,1.37027e-05,-7.78083e-06,-2.8294e-06,1.20666e-05,-1.03251e-05,5.17439e-06,-2.2669e-05,0
-2.62254e-05,1.54756e-05,-7.80956e-06,-3.27642e-06,1.27689e-05,-9.31852e-06,3.54023e-06,-4.94868e-05,0
-2.65314e-05,1.583e-05,-9.18136e-06,-4.67705e-06,1.29422e-05,-9.01916e-06,2.88445e-06,-6.0873e-05,0
-2.54819e-05,1.53734e-05,-1.22947e-05,-5.87639e-06,1.20368e-05,-9.98482e-06,4.64216e-06,-5.74225e-05,0
-2.49246e-05,1.51259e-05,-1.41401e-05,-5.02156e-06,1.19701e-05,-1.01139e-05,4.8886e-06,-4.66794e-05,0
-2.63111e-05,1.55218e-05,-1.28915e-05,-3.43793e-06,1.40806e-05,-8.57394e-06,6.24055e-07,-3.4458e-05,0
-2.8493e-05,1.69633e-05,-1.1255e-05,-3.29138e-06,1.64879e-05,-7.06436e-06,-4.29301e-06,-2.32704e-05,0
-2.9603e-05,1.86492e-05,-1.10797e-05,-4.74094e-06,1.76588e-05,-6.7776e-06,-6.03684e-06,-1.38776e-05,0
-2.89895e-05,1.94824e-05,-1.13696e-05,-6.50367e-06,1.69104e-05,-6.54351e-06,-4.71432e-06,-6.78564e-06,0
-2.75077e-05,2.05394e-05,-1.14876e-05,-7.83381e-06,1.46303e-05,-5.2403e-06,-3.05238e-06,-1.6864e-06,0
-2.61401e-05,2.26917e-05,-1.15792e-05,-9.31283e-06,1.22589e-05,-3.05816e-06,-1.93218e-06,2.4988e-06,0
-2.63072e-05,2.4375e-05,-1.19408e-05,-1.11971e-05,1.21266e-05,-1.52571e-06,-4.2747e-07,6.39636e-06,0
-2.76057e-05,2.47538e-05,-1.27945e-05,-1.17795e-05,1.27122e-05,-1.84745e-06,3.48073e-06,1.02507e-05,0
-2.94536e-05,2.55049e-05,-1.37648e-05,-1.06079e-05,1.03231e-05,-2.95972e-06,9.40107e-06,1.32259e-05,0
-3.15676e-05,2.6973e-05,-1.39563e-05,-9.93201e-06,5.95493e-06,-4.94356e-06,1.49743e-05,1.51065e-05,0
-3.16984e-05,2.70325e-05,-1.2649e-05,-1.02808e-05,2.60623e-06,-7.27213e-06,1.93225e-05,1.39523e-05,0
-2.95102e-05,2.43363e-05,-1.01548e-05,-1.15459e-05,9.53636e-07,-7.47829e-06,2.4796e-05,8.55481e-06,0
-2.88232e-05,1.94952e-05,-7.21906e-06,-1.34161e-05,7.48753e-07,-4.00816e-06,3.19704e-05,1.19903e-06,0
-2.90758e-05,1.62679e-05,-6.11267e-06,-1.37416e-05,3.27799e-06,-2.47111e-06,3.79471e-05,-3.38336e-06,0
-2.83375e-05,1.6627e-05,-5.77949e-06,-1.32268e-05,1.05467e-05,-5.29393e-06,3.98116e-05,-3.12819e-06,0
-2.85397e-05,1.45311e-05,-6.5142e-06,-1.45231e-05,1.2157e-05,-7.32267e-06,3.85739e-05,-1.62573e-06,0
-2.8288e-05,9.95793e-06,-7.40466e-06,-1.6022e-05,-4.89346e-06,-8.48866e-06,3.66788e-05,1.38158e-07,0
-2.91693e-05,6.81504e-06,-6.73527e-06,-1.54016e-05,-2.32268e-05,-7.79777e-06,3.32583e-05,1.67686e-06,0
-3.10428e-05,5.53626e-06,-6.55069e-06,-1.37518e-05,-2.18197e-05,-4.2435e-06,2.88581e-05,3.01318e-06,0
-3.21649e-05,5.47151e-06,-8.26071e-06,-1.46474e-05,-2.0229e-06,-1.59831e-06,2.5059e-05,3.38749e-06,0
-3.23401e-05,6.6205e-06,-1.02564e-05,-1.76089e-05,2.5048e-05,-7.96535e-07,2.23121e-05,3.51387e-06,0
-3.21613e-05,7.63076e-06,-1.04901e-05,-1.92781e-05,4.47685e-05,-1.04627e-06,2.06153e-05,3.47424e-06,0
-3.22134e-05,8.20922e-06,-1.13254e-05,-1.93072e-05,4.99294e-05,-1.69345e-06,2.00626e-05,3.46277e-06,0
-3.13338e-05,9.41557e-06,-1.28788e-05,-1.87786e-05,4.40857e-05,-2.52016e-06,2.0207e-05,4.74894e-06,0
-3.05452e-05,1.03674e-05,-1.38833e-05,-1.89499e-05,3.66171e-05,-2.63273e-06,2.04917e-05,5.64605e-06,0
-2.97331e-05,1.04604e-05,-1.23331e-05,-1.86547e-05,3.26118e-05,-1.62696e-06,1.90501e-05,5.48898e-06,0
-2.91355e-05,1.02134e-05,-9.06779e-06,-1.65019e-05,3.09964e-05,-7.76788e-07,1.58532e-05,4.18882e-06,0
-2.86437e-05,1.09939e-05,-5.96795e-06,-1.32212e-05,2.7989e-05,-1.03755e-06,1.36227e-05,2.94297e-06,0
-2.94786e-05,1.24863e-05,-3.68308e-06,-1.10439e-05,2.35944e-05,-1.13937e-06,1.34664e-05,1.94474e-06,0
-3.23682e-05,1.31957e-05,-3.48287e-06,-1.17652e-05,2.11571e-05,1.83184e-07,1.43678e-05,9.40108e-07,0
-3.53193e-05,1.32773e-05,-5.89284e-06,-1.34977e-05,2.04637e-05,9.21984e-07,1.52272e-05,-1.88167e-07,0
-3.61492e-05,1.46638e-05,-7.43521e-06,-1.29485e-05,2.0029e-05,-1.29755e-06,1.41901e-05,-9.23309e-07,0
-3.50893e-05,1.59661e-05,-5.61014e-06,-1.02736e-05,2.00308e-05,-5.55812e-06,1.08574e-05,-5.2475e-07,0
-3.40014e-05,1.50936e-05,-2.16893e-06,-8.42104e-06,2.05628e-05,-7.64054e-06,7.57155e-06,-1.94476e-07,0
-3.35326e-05,1.31096e-05,6.61285e-07,-8.85988e-06,2.09775e-05,-6.0541e-06,6.15799e-06,-1.17523e-06,0
-3.39713e-05,1.1891e-05,1.83903e-06,-9.25156e-06,2.12203e-05,-3.55061e-06,7.27436e-06,-8.45984e-07,0
-3.40595e-05,1.18608e-05,2.86389e-06,-6.54934e-06,2.04956e-05,-3.90918e-06,8.2596e-06,1.56077e-06,0
-3.30486e-05,1.25982e-05,3.3339e-06,-1.0728e-06,1.95946e-05,-6.20064e-06,6.43891e-06,4.29902e-06,0
-3.14357e-05,1.28857e-05,3.67023e-06,4.41536e-06,2.02625e-05,-7.26505e-06,3.34708e-06,5.32052e-06,0
-2.92754e-05,1.47253e-05,4.67126e-06,4.14056e-06,2.02406e-05,-5.81649e-06,3.71753e-06,3.74064e-06,0
-2.72616e-05,1.60762e-05,7.38966e-06,-1.04481e-06,1.69998e-05,-4.3916e-06,8.39039e-06,2.95807e-06,0
-2.65308e-05,1.4544e-05,9.70292e-06,-2.89215e-06,1.2841e-05,-5.27116e-06,1.14611e-05,2.70687e-06,0
-2.76365e-05,1.31954e-05,1.01582e-05,-2.73244e-06,1.10712e-05,-7.36779e-06,1.2873e-05,1.6792e-06,0
-2.84186e-05,1.19222e-05,8.28893e-06,-4.58227e-06,1.17684e-05,-8.7498e-06,1.44572e-05,1.9871e-07,0
-2.88315e-05,1.06137e-05,2.95851e-06,-6.91545e-06,1.13662e-05,-8.86674e-06,1.63582e-05,-7.10303e-07,0
-2.96698e-05,1.02891e-05,-3.0569e-06,-8.06371e-06,8.9724e-06,-9.45007e-06,1.65599e-05,-3.75916e-07,0
-2.96353e-05,1.17793e-05,-8.80385e-06,-7.80032e-06,6.61426e-06,-1.00844e-05,1.23738e-05,4.43442e-07,0
-3.06281e-05,1.30649e-05,-1.46575e-05,-8.48998e-06,5.37169e-06,-9.36841e-06,6.1056e-06,1.77716e-06,0
-3.17149e-05,1.28575e-05,-1.9193e-05,-1.23393e-05,3.54271e-06,-8.93081e-06,1.14279e-06,2.26724e-06,0
-3.13652e-05,1.13878e-05,-1.92784e-05,-1.80845e-05,3.14607e-06,-1.03364e-05,8.21357e-07,1.83259e-06,0
-3.00462e-05,9.53094e-06,-1.53733e-05,-2.1196e-05,5.89367e-06,-1.11619e-05,3.64276e-06,1.16848e-06,0
-2.88349e-05,8.23889e-06,-1.03966e-05,-2.03731e-05,7.86231e-06,-1.13038e-05,7.63166e-06,6.20447e-07,0
-2.75734e-05,6.16359e-06,-6.56213e-06,-1.84023e-05,6.71495e-06,-1.279e-05,1.06027e-05,2.56008e-07,0
-2.6294e-05,2.66659e-06,-4.83334e-06,-1.55544e-05,4.38005e-06,-1.48559e-05,1.11669e-05,6.36828e-07,0
-2.63791e-05,-7.93442e-07,-3.47276e-06,-1.14147e-05,-6.69938e-07,-1.64075e-05,1.13529e-05,9.44443e-07,0
-2.83745e-05,-7.01102e-07,-2.80755e-06,-7.22506e-06,-1.59725e-05,-1.89822e-05,1.33558e-05,1.75942e-07,0
-3.09341e-05,2.28769e-06,-3.62044e-06,-4.42991e-06,-3.6246e-05,-2.16905e-05,1.51998e-05,-4.0147e-07,0
-3.26291e-05,4.43247e-06,-1.06133e-06,-3.14848e-06,-4.04831e-05,-2.2171e-05,1.49031e-05,1.97987e-07,0
-3.36772e-05,5.32561e-06,9.93197e-06,-2.34851e-06,-1.81616e-05,-2.20349e-05,1.35859e-05,1.85784e-06,0
-3.41091e-05,6.19882e-06,2.81589e-05,4.56772e-07,1.5544e-05,-2.23198e-05,1.08267e-05,1.40018e-06,0
-3.44373e-05,8.08369e-06,4.68198e-05,7.15664e-06,3.96775e-05,-2.23304e-05,7.83484e-06,-2.67403e-06,0
-3.44316e-05,1.1296e-05,5.37518e-05,1.45886e-05,4.69174e-05,-2.23159e-05,5.12591e-06,-6.5841e-06,0
-3.36153e-05,1.3939e-05,4.3977e-05,1.82393e-05,4.34379e-05,-2.23329e-05,2.33601e-06,-7.28009e-06,0
-3.16573e-05,1.69148e-05,2.48603e-05,1.60765e-05,3.69095e-05,-2.2193e-05,6.72546e-07,-5.65338e-06,0
-2.92436e-05,2.24432e-05,1.4151e-06,8.09056e-06,3.2289e-05,-2.10282e-05,1.33148e-06,-3.50845e-06,0
-2.81275e-05,2.7753e-05,-2.61413e-05,-3.29953e-06,3.18743e-05,-1.8559e-05,2.09768e-06,-2.33883e-06,0
-2.90727e-05,3.00609e-05,-5.39528e-05,-1.59128e-05,3.5758e-05,-1.65798e-05,1.13317e-06,-2.47368e-06,0
-2.97111e-05,3.05629e-05,-6.63102e-05,-2.41873e-05,3.66966e-05,-1.55533e-05,-1.52947e-07,-2.97692e-06,0
-2.99404e-05,3.20754e-05,-5.96259e-05,-2.34133e-05,2.90382e-05,-1.50102e-05,-1.3145e-06,-2.00231e-06,0
-3.10781e-05,3.217e-05,-4.69222e-05,-1.82334e-05,1.98377e-05,-1.51603e-05,-2.07315e-06,-2.14483e-06,0
-3.1953e-05,2.93918e-05,-3.96082e-05,-1.44789e-05,1.34114e-05,-1.57944e-05,-2.07575e-06,-2.59855e-07,0
-3.29405e-05,2.53327e-05,-4.17065e-05,-1.14733e-05,9.64459e-06,-1.61925e-05,-8.79354e-07,4.15798e-06,0
-3.46916e-05,2.08903e-05,-4.23365e-05,-3.98321e-06,9.99366e-06,-1.54402e-05,1.60316e-06,4.6043e-06,0
-3.60046e-05,1.74026e-05,-3.84446e-05,5.50542e-06,1.31817e-05,-1.36179e-05,4.04178e-06,1.76605e-06,0
-3.67419e-05,1.48489e-05,-3.79744e-05,1.00797e-05,9.6752e-06,-1.22072e-05,5.8927e-06,-5.0094e-07,0
-3.68426e-05,1.2244e-05,-4.60868e-05,7.57901e-06,-8.24882e-06,-1.29127e-05,9.221e-06,1.43624e-07,0
-3.63977e-05,8.42373e-06,-5.64448e-05,8.37895e-07,-3.74697e-05,-1.48864e-05,1.61303e-05,1.2756e-06,0
-3.64133e-05,4.37249e-06,-6.1755e-05,-7.63586e-06,-6.40222e-05,-1.44498e-05,2.42992e-05,1.28978e-06,0
-3.67603e-05,1.14545e-06,-5.87718e-05,-1.56021e-05,-7.4925e-05,-1.17277e-05,3.06677e-05,7.41424e-07,0
-3.6339e-05,-9.95061e-07,-4.69796e-05,-2.0522e-05,-6.88168e-05,-9.06646e-06,3.32472e-05,8.27303e-07,0
-3.50963e-05,-1.93494e-06,-3.1371e-05,-2.24729e-05,-4.94857e-05,-6.9746e-06,3.25558e-05,1.58748e-06,0
-3.33883e-05,-3.24743e-06,-1.91124e-05,-2.16614e-05,-1.80765e-05,-4.38092e-06,3.10139e-05,2.78973e-06,0
-3.13137e-05,-5.51166e-06,-1.61664e-05,-1.84841e-05,2.90031e-05,-1.47536e-06,2.86545e-05,3.07866e-06,0
-2.96999e-05,-7.15743e-06,-1.96015e-05,-1.36226e-05,9.02828e-05,6.1413e-07,2.54577e-05,1.54242e-06,0
-2.95891e-05,-7.24148e-06,-2.23149e-05,-8.81859e-06,0.000140642,1.93183e-06,2.2742e-05,-1.61378e-06,0
-3.05171e-05,-5.48632e-06,-2.02345e-05,-4.89921e-06,0.000147475,1.98683e-06,2.14994e-05,-4.2551e-06,0
-3.073e-05,-1.89179e-06,-1.80952e-05,-1.52793e-06,0.000112785,7.95041e-07,2.06772e-05,-4.76858e-06,0
-2.94799e-05,1.45357e-06,-2.09377e-05,3.75231e-06,6.89054e-05,3.6784e-07,1.93075e-05,-5.93302e-06,0
-2.73839e-05,3.31019e-06,-2.66669e-05,1.32443e-05,3.8745e-05,2.21435e-06,1.84259e-05,-7.30954e-06,0
-2.59865e-05,4.32723e-06,-2.66828e-05,2.62701e-05,2.02587e-05,3.60731e-06,1.77457e-05,-7.07297e-06,0
-2.59915e-05,6.12988e-06,-1.94451e-05,3.65804e-05,5.65583e-06,2.09566e-06,1.83287e-05,-7.74939e-06,0
-2.70859e-05,8.9152e-06,-1.19618e-05,3.67317e-05,-5.37629e-06,-2.8729e-08,2.00045e-05,-8.50545e-06,0
-2.87658e-05,1.12712e-05,-1.18545e-05,2.77003e-05,-6.29291e-06,3.14348e-07,2.05522e-05,-6.81437e-06,0
-3.08917e-05,1.3191e-05,-1.60246e-05,1.65429e-05,8.18341e-06,2.56919e-06,2.09868e-05,-5.10295e-06,0
-3.11881e-05,1.49045e-05,-1.80662e-05,7.97876e-06,2.69725e-05,3.60846e-06,2.01948e-05,-5.63465e-06,0
-2.99258e-05,1.7006e-05,-1.9295e-05,2.55078e-06,3.53552e-05,2.67734e-06,1.70428e-05,-5.28015e-06,0
-2.86657e-05,1.88381e-05,-1.68507e-05,5.2675e-07,3.37244e-05,1.36549e-06,1.40034e-05,-3.63975e-06,0
-2.94338e-05,2.01412e-05,-8.92478e-06,1.3693e-07,2.56756e-05,-5.0737e-07,1.36685e-05,-3.80721e-06,0
-3.29634e-05,2.05343e-05,-1.41347e-06,7.01251e-07,1.76351e-05,-1.00767e-06,1.41591e-05,-3.63772e-06,0
-3.52918e-05,2.10851e-05,7.99386e-07,5.71029e-06,1.42587e-05,5.43653e-07,1.43597e-05,-1.25723e-06,0
-3.41346e-05,2.20771e-05,-1.25887e-06,1.1153e-05,1.15119e-05,2.0472e-06,1.35555e-05,5.31039e-07,0
-3.18399e-05,2.31849e-05,-3.92255e-06,1.33636e-05,4.98551e-06,1.88158e-06,1.08754e-05,-6.91799e-07,0
-3.08937e-05,2.43591e-05,-3.68217e-06,1.37113e-05,-1.53272e-06,6.87686e-08,7.77361e-06,-1.61287e-06,0
-3.07555e-05,2.56925e-05,-3.31524e-06,1.56132e-05,-1.643e-06,-1.36586e-06,5.8729e-06,-1.682e-06,0
-3.14233e-05,2.58505e-05,-6.03e-06,2.08481e-05,1.46982e-06,-1.21655e-06,6.22779e-06,-1.91525e-06,0
-3.20054e-05,2.40265e-05,-8.38592e-06,2.48746e-05,1.69916e-06,2.86417e-07,5.87714e-06,-2.80163e-06,0
-3.21924e-05,2.38344e-05,-5.78876e-06,2.52051e-05,-3.80042e-06,4.44431e-07,7.48255e-07,-3.30427e-06,0
-3.17006e-05,2.54917e-05,4.63774e-07,2.11635e-05,-1.06562e-05,-5.97429e-07,-8.61516e-06,-2.57161e-06,0
-3.13859e-05,2.67053e-05,5.60336e-06,1.11399e-05,-1.43797e-05,-5.58674e-07,-1.53186e-05,-1.62643e-06,0
-3.13417e-05,2.68414e-05,8.1706e-06,-4.95442e-06,-1.35906e-05,-4.02344e-07,-1.38038e-05,-1.343e-06,0
-3.07574e-05,2.7379e-05,9.8092e-06,-2.14392e-05,-7.71088e-06,-1.56085e-06,-5.12339e-06,-1.30371e-06,0
-2.95422e-05,2.78813e-05,1.20551e-05,-3.38838e-05,5.39632e-07,-2.55896e-06,5.63372e-06,9.61636e-08,0
-2.88867e-05,2.73093e-05,1.46402e-05,-3.97561e-05,6.83597e-06,-2.1199e-06,1.53489e-05,2.69842e-06,0
-2.95234e-05,2.44892e-05,1.5574e-05,-3.60977e-05,1.06874e-05,-1.2343e-06,2.32061e-05,5.82738e-06,0
-2.98837e-05,2.16826e-05,1.5788e-05,-2.35776e-05,1.2997e-05,-1.36852e-06,2.95346e-05,8.84073e-06,0
-3.077e-05,2.26175e-05,1.61618e-05,-1.12104e-05,1.2117e-05,-2.71222e-06,3.47475e-05,1.16639e-05,0
-3.2563e-05,2.48587e-05,1.52802e-05,-6.46031e-06,8.23486e-06,-4.49169e-06,3.76267e-05,1.26138e-05,0
-3.29706e-05,2.46323e-05,1.31697e-05,-5.82568e-06,5.2679e-06,-5.4876e-06,3.66061e-05,1.09493e-05,0
-3.22487e-05,2.27199e-05,1.00903e-05,-7.29538e-06,6.18164e-06,-5.03479e-06,3.34283e-05,7.77301e-06,0
-3.26561e-05,2.08271e-05,7.66444e-06,-9.54153e-06,7.87395e-06,-3.8439e-06,3.03999e-05,5.28879e-06,0
-3.30645e-05,1.85813e-05,6.36959e-06,-8.91555e-06,7.90697e-06,-3.70792e-06,2.90769e-05,4.15453e-06,0
-3.21462e-05,1.57012e-05,4.76713e-06,-5.14636e-06,8.65857e-06,-5.69164e-06,2.81199e-05,4.74703e-06,0
-3.16047e-05,1.36443e-05,2.88414e-06,-1.8809e-06,8.42115e-06,-8.65173e-06,1.62809e-05,5.70851e-06,0
-3.07331e-05,1.37563e-05,1.27867e-06,-1.80967e-05,6.00317e-06,-1.11633e-05,-1.6754e-05,5.0753e-06,0
-2.72913e-05,1.38968e-05,1.36912e-07,-5.78288e-05,6.1388e-06,-1.1198e-05,-5.92811e-05,1.9768e-06,0
-2.54853e-05,1.17934e-05,-2.01966e-06,-9.53704e-05,9.06396e-06,-9.66206e-06,-8.73084e-05,-3.55802e-07,0
-2.58484e-05,1.02936e-05,-3.56533e-06,-0.000111481,1.05545e-05,-8.76834e-06,-9.22297e-05,-5.04648e-07,0
-2.62011e-05,1.15571e-05,-1.68844e-06,-9.37342e-05,1.10906e-05,-7.22361e-06,-7.86948e-05,-5.45677e-07,0
-2.57198e-05,1.35464e-05,3.09321e-06,-4.02496e-05,1.3732e-05,-5.10629e-06,-5.39909e-05,-9.45406e-07,0
-2.42624e-05,1.37805e-05,7.55571e-06,3.12038e-05,1.70975e-05,-4.08085e-06,-1.95846e-05,-7.81903e-07,0
-2.36879e-05,1.2728e-05,8.52736e-06,9.67887e-05,1.99013e-05,-4.2823e-06,2.23157e-05,8.85193e-07,0
-2.44572e-05,1.33021e-05,8.22447e-06,0.000127289,2.22913e-05,-5.04826e-06,6.41484e-05,1.96509e-06,0
-2.58388e-05,1.32959e-05,7.84731e-06,0.000100272,2.39867e-05,-5.44016e-06,9.61571e-05,2.31115e-06,0
