ch1,ch2,ch3,ch4,ch5,ch6,ch7,ch8,class
-2.99513e-05,5.02274e-06,-1.46806e-05,-3.02049e-05,2.6511e-06,-7.66899e-06,1.15352e-05,1.5412e-06,0
-2.87394e-05,3.3445e-06,-1.53166e-05,-2.50387e-05,3.40694e-06,-6.16979e-06,9.49599e-06,1.57662e-06,0
-2.9273e-05,4.58568e-06,-1.43711e-05,-1.87759e-05,5.338e-06,-4.83527e-06,8.07887e-06,1.28808e-06,0
-3.0564e-05,8.38239e-06,-1.1685e-05,-1.51786e-05,5.56699e-06,-3.84487e-06,5.96212e-06,1.40134e-06,0
-3.11301e-05,1.20819e-05,-9.68246e-06,-1.5208e-05,3.5836e-06,-3.52212e-06,2.02942e-06,1.35729e-06,0
-3.07543e-05,1.33706e-05,-9.29439e-06,-1.39889e-05,5.05458e-06,-3.25548e-06,-1.52764e-06,5.61203e-07,0
-3.17227e-05,1.19826e-05,-9.03055e-06,-1.2094e-05,1.00886e-05,-3.73289e-06,-1.50769e-06,4.50546e-07,0
-3.2443e-05,8.26155e-06,-8.52239e-06,-1.46925e-05,1.42497e-05,-5.32813e-06,2.77917e-06,5.51992e-07,0
-3.15624e-05,7.31527e-06,-9.37121e-06,-1.79506e-05,1.38328e-05,-5.18374e-06,6.85229e-06,-3.30083e-07,0
-3.14155e-05,9.53369e-06,-1.07091e-05,-1.66769e-05,1.08315e-05,-4.13434e-06,8.38306e-06,-2.21231e-07,0
-3.22566e-05,1.05105e-05,-1.29102e-05,-9.95413e-06,8.85183e-06,-4.89637e-06,8.72663e-06,1.46979e-06,0
-3.13739e-05,8.22854e-06,-1.50214e-05,-4.87617e-06,7.40987e-06,-5.64444e-06,9.06038e-06,4.28278e-06,0
-3.05948e-05,5.33609e-06,-1.48962e-05,-4.02134e-06,7.80573e-06,-6.48614e-06,8.29244e-06,6.77899e-06,0
-3.19102e-05,6.61874e-06,-1.29561e-05,-3.15136e-06,6.49919e-06,-6.64518e-06,7.01059e-06,8.16982e-06,0
-3.21106e-05,9.13308e-06,-9.48367e-06,-1.82552e-06,4.82576e-06,-6.09144e-06,6.75358e-06,9.03496e-06,0
-3.15584e-05,1.03043e-05,-6.71319e-06,1.41958e-06,6.82065e-06,-5.30217e-06,5.0308e-06,9.01536e-06,0
-3.12128e-05,9.68488e-06,-5.82103e-06,5.06171e-06,1.13357e-05,-4.89874e-06,1.3108e-06,8.63262e-06,0
-3.07786e-05,8.29978e-06,-7.05036e-06,4.92629e-06,1.5775e-05,-5.86841e-06,-3.53581e-06,7.15598e-06,0
-3.09501e-05,8.24925e-06,-8.86476e-06,2.31058e-06,1.74629e-05,-7.50566e-06,-6.97249e-06,6.57891e-06,0
-3.21625e-05,8.23761e-06,-1.06028e-05,3.18025e-06,1.53217e-05,-9.20663e-06,-6.75169e-06,8.39152e-06,0
-3.31948e-05,7.40707e-06,-1.18342e-05,9.62559e-06,1.09232e-05,-1.01549e-05,-3.52219e-06,1.06326e-05,0
-3.30823e-05,6.51997e-06,-1.22742e-05,1.74789e-05,7.90575e-06,-1.04615e-05,-7.92099e-08,1.19754e-05,0
-3.29995e-05,5.8539e-06,-1.17488e-05,1.96953e-05,7.9013e-06,-1.0536e-05,3.01792e-06,1.12386e-05,0
-3.39078e-05,5.23546e-06,-1.05842e-05,1.369e-05,1.00339e-05,-1.1552e-05,7.5102e-06,9.03984e-06,0
-3.40646e-05,5.88414e-06,-8.37695e-06,2.28984e-06,1.21045e-05,-1.24366e-05,1.3484e-05,7.43124e-06,0
-3.30716e-05,7.52236e-06,-4.51624e-06,-8.45651e-06,1.24312e-05,-1.22229e-05,1.92761e-05,6.89339e-06,0
-3.15939e-05,7.59847e-06,-8.35335e-07,-1.12338e-05,9.90311e-06,-1.22185e-05,2.3268e-05,5.41381e-06,0
-2.91089e-05,6.20274e-06,3.01692e-06,-2.8279e-06,8.18873e-06,-1.33365e-05,2.65219e-05,3.93543e-06,0
-2.83575e-05,5.71462e-06,1.02207e-05,1.14843e-05,9.63005e-06,-1.39488e-05,2.99861e-05,4.03571e-06,0
-3.07472e-05,7.90273e-06,2.37939e-05,2.07784e-05,1.31505e-05,-1.30723e-05,3.25131e-05,3.91868e-06,0
-3.28248e-05,1.12454e-05,4.21029e-05,1.95555e-05,1.97489e-05,-1.13893e-05,3.20343e-05,1.34053e-06,0
-3.23993e-05,1.37268e-05,5.89576e-05,1.14432e-05,2.64746e-05,-9.85766e-06,3.0376e-05,-1.67535e-06,0
-3.01855e-05,1.57853e-05,6.82511e-05,1.55e-06,2.8146e-05,-8.76058e-06,2.93808e-05,-2.77843e-06,0
-2.93282e-05,1.5783e-05,6.21462e-05,-6.87969e-06,2.45174e-05,-9.29159e-06,2.83261e-05,-9.85248e-07,0
-2.87325e-05,1.49204e-05,3.56486e-05,-5.90871e-06,1.96022e-05,-9.92457e-06,2.56351e-05,1.91189e-06,0
-2.69234e-05,1.41652e-05,-2.20717e-07,6.2233e-06,1.77335e-05,-8.93015e-06,2.20475e-05,1.86691e-06,0
-2.6316e-05,1.22617e-05,-3.44375e-05,1.45558e-05,1.82398e-05,-8.38609e-06,2.01939e-05,-5.12389e-07,0
-2.71306e-05,1.17871e-05,-6.4333e-05,8.60789e-06,1.80851e-05,-7.42264e-06,1.89508e-05,-2.03602e-06,0
-2.81355e-05,1.41159e-05,-8.35204e-05,-6.84119e-06,1.63628e-05,-7.15531e-06,1.84035e-05,-1.25998e-06,0
-2.92923e-05,1.58259e-05,-8.83287e-05,-1.86964e-05,1.60895e-05,-6.94e-06,1.7979e-05,7.65786e-07,0
-3.07581e-05,1.50106e-05,-8.00736e-05,-2.06152e-05,1.64921e-05,-6.08807e-06,1.80269e-05,6.51533e-07,0
-3.11562e-05,1.39591e-05,-6.66522e-05,-1.83884e-05,1.72796e-05,-5.99253e-06,1.90286e-05,-6.60321e-07,0
-3.12068e-05,1.35654e-05,-5.6087e-05,-1.60269e-05,1.89911e-05,-6.90176e-06,1.78069e-05,-9.94532e-07,0
-3.17956e-05,1.41624e-05,-4.7928e-05,-1.43445e-05,1.89543e-05,-7.63622e-06,1.55305e-05,-9.88933e-08,0
-3.13652e-05,1.6178e-05,-3.91447e-05,-1.34655e-05,1.72746e-05,-7.91731e-06,1.34463e-05,9.02932e-07,0
-2.93886e-05,1.93752e-05,-2.74682e-05,-1.4749e-05,1.53748e-05,-9.92213e-06,1.18375e-05,1.37906e-06,0
-2.75686e-05,2.19953e-05,-1.79228e-05,-1.74235e-05,1.42319e-05,-1.26126e-05,1.17682e-05,1.87825e-06,0
-2.75916e-05,2.29835e-05,-1.30847e-05,-1.70356e-05,1.26544e-05,-1.4253e-05,1.36366e-05,1.75502e-06,0
-2.91412e-05,2.22205e-05,-1.03643e-05,-1.09593e-05,1.20239e-05,-1.40975e-05,1.523e-05,1.23219e-06,0
-3.03421e-05,2.07716e-05,-8.1942e-06,-2.36312e-06,1.2358e-05,-1.3983e-05,1.51295e-05,3.4205e-07,0
-3.01919e-05,2.04211e-05,-7.37499e-06,3.59843e-06,1.36351e-05,-1.48295e-05,1.43142e-05,-4.46948e-07,0
-3.0017e-05,2.00186e-05,-8.52868e-06,2.02437e-06,1.49156e-05,-1.49833e-05,1.30452e-05,-1.72871e-06,0
-3.07425e-05,1.85924e-05,-9.42396e-06,-7.74361e-06,1.44476e-05,-1.32124e-05,1.1363e-05,-3.22797e-06,0
-3.09177e-05,1.75668e-05,-8.42616e-06,-1.94468e-05,1.30262e-05,-1.08457e-05,9.21338e-06,-3.95688e-06,0
-3.04529e-05,1.67193e-05,-6.3024e-06,-2.58584e-05,1.22799e-05,-1.04249e-05,4.70567e-06,-3.45297e-06,0
-3.06531e-05,1.6479e-05,-6.18142e-06,-2.49386e-05,1.27462e-05,-1.23356e-05,-6.32531e-06,-4.20635e-06,0
-3.13327e-05,1.7906e-05,-8.9923e-06,-2.12874e-05,1.29484e-05,-1.50861e-05,-1.96486e-05,-5.59452e-06,0
-3.14731e-05,1.83424e-05,-1.13414e-05,-2.01243e-05,1.0878e-05,-1.66823e-05,-2.539e-05,-4.47657e-06,0
-3.16722e-05,1.83611e-05,-1.13124e-05,-2.19648e-05,7.41488e-06,-1.82536e-05,-2.1867e-05,-2.19979e-06,0
-3.2145e-05,1.94424e-05,-9.77032e-06,-2.22638e-05,6.15085e-06,-2.04951e-05,-1.33769e-05,-9.21535e-07,0
-3.30346e-05,2.11292e-05,-7.0279e-06,-1.93944e-05,8.47883e-06,-2.07743e-05,-1.54513e-06,-7.77248e-07,0
-3.35287e-05,2.20178e-05,-4.97672e-06,-1.53423e-05,1.22458e-05,-1.87597e-05,1.32431e-05,-1.02027e-06,0
-3.19892e-05,2.09104e-05,-2.64573e-06,-1.18487e-05,1.41758e-05,-1.78357e-05,2.61738e-05,-4.76343e-07,0
-3.05539e-05,2.07369e-05,-2.69146e-06,-9.04122e-06,1.41601e-05,-1.97145e-05,3.20885e-05,-6.21108e-07,0
-3.11936e-05,2.07829e-05,-3.97535e-06,-3.15782e-06,1.39349e-05,-2.10628e-05,3.2011e-05,-2.92501e-06,0
-3.17124e-05,1.97144e-05,-3.72155e-06,6.65335e-06,1.31374e-05,-2.00547e-05,2.91152e-05,-5.22204e-06,0
-3.04355e-05,2.2584e-05,-4.16914e-06,1.42177e-05,1.1617e-05,-1.76372e-05,2.68856e-05,-5.11383e-06,0
-2.85109e-05,2.64775e-05,-4.4991e-06,1.78038e-05,1.05878e-05,-1.62987e-05,2.5238e-05,-3.69889e-06,0
-2.63502e-05,2.68212e-05,-3.1095e-06,1.84072e-05,1.028e-05,-1.75937e-05,2.35684e-05,-3.68103e-06,0
-2.53604e-05,2.48628e-05,-5.9327e-07,1.73571e-05,9.98324e-06,-1.86313e-05,2.16261e-05,-4.16378e-06,0
-2.49136e-05,2.37213e-05,9.81176e-07,1.67906e-05,8.02485e-06,-1.86969e-05,1.89904e-05,-4.28676e-06,0
-2.42945e-05,2.6095e-05,1.89459e-06,1.58991e-05,6.93071e-06,-1.82027e-05,1.63119e-05,-4.43748e-06,0
-2.43451e-05,2.86003e-05,2.32885e-06,1.38071e-05,8.70522e-06,-1.63937e-05,1.30123e-05,-5.12959e-06,0
-2.51153e-05,2.88549e-05,3.14166e-06,9.3362e-06,1.15568e-05,-1.39321e-05,1.02481e-05,-5.60775e-06,0
-2.62667e-05,2.78359e-05,4.34405e-06,2.70871e-06,1.3347e-05,-1.26983e-05,8.2287e-06,-5.21508e-06,0
-2.71182e-05,2.69779e-05,4.63678e-06,-2.79334e-06,1.36548e-05,-1.23835e-05,6.06795e-06,-3.88715e-06,0
-2.73264e-05,2.57623e-05,3.69348e-06,-4.19949e-06,1.27454e-05,-1.19208e-05,4.35002e-06,-2.94149e-06,0
-2.68925e-05,2.4161e-05,3.08796e-06,-2.80601e-06,1.21646e-05,-1.15866e-05,3.10823e-06,-3.66277e-06,0
-2.64646e-05,2.30459e-05,3.07213e-06,-1.24802e-06,1.36079e-05,-1.13735e-05,1.50733e-06,-5.3095e-06,0
-2.66846e-05,2.35878e-05,2.52092e-06,-1.0781e-06,1.55726e-05,-1.05935e-05,3.97767e-07,-6.11502e-06,0
-2.75929e-05,2.58182e-05,1.46501e-06,-2.50773e-06,1.59783e-05,-9.4243e-06,-3.00517e-08,-6.02272e-06,0
-2.81804e-05,2.80696e-05,8.80552e-07,-2.8798e-06,1.46811e-05,-8.22246e-06,1.93689e-07,-6.7402e-06,0
-2.77039e-05,2.94403e-05,2.98074e-07,-1.49395e-06,1.35632e-05,-6.10325e-06,1.82351e-06,-8.21141e-06,0
-2.63543e-05,3.00875e-05,-1.45153e-06,-2.30197e-06,1.45314e-05,-4.61636e-06,5.15031e-06,-8.26637e-06,0
-2.59869e-05,3.04151e-05,-4.89914e-06,-7.75357e-06,1.63481e-05,-5.82545e-06,1.24979e-05,-7.64209e-06,0
-2.69147e-05,2.96342e-05,-9.31445e-06,-1.43308e-05,1.6188e-05,-7.10186e-06,2.56043e-05,-8.49358e-06,0
-2.76141e-05,2.75305e-05,-1.22894e-05,-1.64048e-05,1.44142e-05,-6.17312e-06,3.85446e-05,-8.99981e-06,0
-2.80586e-05,2.61752e-05,-1.49064e-05,-1.45456e-05,1.2957e-05,-5.19439e-06,4.52271e-05,-7.92347e-06,0
-2.98082e-05,3.09763e-05,-1.8029e-05,-1.26794e-05,1.31691e-05,-4.93358e-06,4.26954e-05,-5.37246e-06,0
-3.16898e-05,4.13463e-05,-1.79869e-05,-1.06682e-05,1.33349e-05,-5.87137e-06,3.34383e-05,-3.57892e-06,0
-3.12216e-05,5.0676e-05,-1.43213e-05,-7.20149e-06,1.10481e-05,-9.97115e-06,2.09252e-05,-3.4079e-06,0
-2.83863e-05,5.15184e-05,-1.14832e-05,-6.16147e-06,7.30811e-06,-1.47277e-05,7.7179e-06,-3.93823e-06,0
-2.70162e-05,3.92131e-05,-9.51439e-06,-7.15467e-06,5.65468e-06,-1.64998e-05,-2.96009e-06,-4.07485e-06,0
-2.82459e-05,1.93072e-05,-7.82947e-06,-7.03511e-06,7.15403e-06,-1.54548e-05,-1.18746e-05,-3.18678e-06,0
-2.93958e-05,-3.62812e-07,-7.57284e-06,-7.83368e-06,9.2158e-06,-1.45085e-05,-1.63861e-05,-2.92813e-06,0
-2.82255e-05,-1.185e-05,-8.14899e-06,-9.49786e-06,9.75182e-06,-1.44878e-05,-1.69984e-05,-2.43285e-06,0
-2.65246e-05,-1.3767e-05,-8.62757e-06,-1.12769e-05,8.46791e-06,-1.39115e-05,-1.59855e-05,-8.95162e-07,0
-2.83696e-05,-1.19324e-05,-8.87745e-06,-1.32196e-05,7.18931e-06,-1.36789e-05,-1.3656e-05,1.63426e-07,0
-3.15643e-05,-9.47628e-06,-1.01476e-05,-1.41579e-05,7.87029e-06,-1.41202e-05,-1.00375e-05,-5.62412e-07,0
-3.26175e-05,-6.67256e-06,-1.19692e-05,-1.2665e-05,8.89237e-06,-1.45232e-05,-5.39857e-06,-4.55735e-07,0
-3.16426e-05,-4.92069e-06,-1.33353e-05,-1.09602e-05,9.45574e-06,-1.47518e-05,-1.00976e-06,1.43274e-06,0
-3.19509e-05,-6.10775e-06,-1.2672e-05,-9.98472e-06,9.67356e-06,-1.5507e-05,2.07988e-06,3.00778e-06,0
-3.35901e-05,-7.06161e-06,-9.85496e-06,-8.15301e-06,9.82034e-06,-1.62648e-05,3.74072e-06,4.20542e-06,0
-3.42949e-05,-4.97156e-06,-5.89505e-06,-5.86613e-06,9.87017e-06,-1.56876e-05,5.20004e-06,5.07769e-06,0
-3.32511e-05,-3.01647e-06,-2.60115e-06,-5.28427e-06,8.82424e-06,-1.40977e-05,7.86152e-06,3.93083e-06,0
-3.173e-05,-4.76318e-06,-1.62523e-06,-6.87479e-06,7.92656e-06,-1.28628e-05,1.04933e-05,1.4769e-06,0
-3.02227e-05,-8.01002e-06,-1.90039e-06,-1.08517e-05,8.35681e-06,-1.23498e-05,1.09003e-05,1.80913e-06,0
-3.00674e-05,-9.69343e-06,-2.02991e-06,-1.71135e-05,9.46471e-06,-1.1901e-05,9.81985e-06,4.41322e-06,0
-3.1718e-05,-6.52234e-06,-1.87612e-06,-2.18838e-05,8.89029e-06,-1.23188e-05,8.56085e-06,5.38821e-06,0
-3.27115e-05,-7.67558e-07,-3.41396e-06,-2.18951e-05,7.28367e-06,-1.32701e-05,8.89747e-06,3.56769e-06,0
-3.30239e-05,1.56343e-06,-6.1016e-06,-1.90306e-05,5.70199e-06,-1.18648e-05,1.15434e-05,2.60009e-06,0
-3.36878e-05,1.95999e-06,-6.85106e-06,-1.55926e-05,3.81963e-06,-8.14056e-06,1.52072e-05,3.45382e-06,0
-3.53716e-05,4.22852e-06,-6.08933e-06,-1.1088e-05,3.81998e-06,-4.89915e-06,1.70114e-05,3.46309e-06,0
-3.66321e-05,6.40978e-06,-7.40523e-06,-6.1408e-06,7.57532e-06,-3.12317e-06,1.90497e-05,2.28172e-06,0
-3.59688e-05,5.46632e-06,-9.90524e-06,-1.79097e-06,1.1863e-05,-2.7911e-06,2.12941e-05,1.3578e-06,0
-3.40744e-05,5.81158e-06,-1.1438e-05,1.4564e-06,1.37746e-05,-3.17475e-06,2.07918e-05,1.73867e-06,0
-3.38995e-05,8.63209e-06,-1.11682e-05,5.04772e-06,1.54997e-05,-3.86138e-06,1.86833e-05,1.80236e-06,0
-3.59781e-05,1.01567e-05,-1.12385e-05,8.3392e-06,1.64457e-05,-3.87567e-06,1.65531e-05,-5.65323e-07,0
-3.70955e-05,1.01252e-05,-1.28931e-05,1.07908e-05,1.67643e-05,-2.23909e-06,1.59637e-05,-3.03535e-06,0
-3.44616e-05,1.00222e-05,-1.18164e-05,1.2527e-05,1.68176e-05,-7.96558e-07,1.69017e-05,-3.72819e-06,0
-3.14203e-05,1.14655e-05,-1.11608e-05,1.32124e-05,1.55039e-05,8.78871e-08,1.78452e-05,-2.55415e-06,0
-3.11234e-05,1.26233e-05,-1.27594e-05,1.04824e-05,1.55931e-05,-5.71293e-07,1.77209e-05,-1.43869e-06,0
-3.11254e-05,1.28326e-05,-1.31538e-05,5.13257e-06,1.92845e-05,-3.15195e-06,1.68061e-05,-1.63347e-06,0
-3.16109e-05,1.2077e-05,-1.23185e-05,-1.77411e-07,2.38785e-05,-5.02988e-06,1.56317e-05,1.16185e-07,0
-3.30365e-05,1.18816e-05,-1.1867e-05,-5.82606e-06,2.53507e-05,-5.28319e-06,1.60053e-05,2.70666e-06,0
-3.41777e-05,1.31125e-05,-1.27504e-05,-1.03374e-05,2.53361e-05,-5.08836e-06,1.82189e-05,4.32393e-06,0
-3.43484e-05,1.28363e-05,-1.41329e-05,-1.1669e-05,2.53573e-05,-6.04297e-06,1.99113e-05,5.8386e-06,0
-3.33724e-05,1.07156e-05,-1.51412e-05,-7.35412e-06,2.56348e-05,-7.26011e-06,1.96751e-05,8.05223e-06,0
-3.3072e-05,8.64612e-06,-1.43051e-05,1.30224e-06,2.63156e-05,-6.80115e-06,1.89255e-05,1.00113e-05,0
-3.4238e-05,7.52915e-06,-1.1978e-05,1.14058e-05,2.66643e-05,-4.51352e-06,1.88363e-05,1.19015e-05,0
-3.47058e-05,5.72033e-06,-9.35633e-06,2.05612e-05,2.63461e-05,-2.95466e-06,1.97191e-05,1.34853e-05,0
-3.35623e-05,3.81929e-06,-8.78612e-06,2.82789e-05,2.59202e-05,-3.65128e-06,2.19989e-05,1.33014e-05,0
-3.19343e-05,4.69994e-06,-1.01259e-05,3.45065e-05,2.62563e-05,-5.5219e-06,2.55671e-05,1.20969e-05,0
-3.1056e-05,8.74736e-06,-1.00426e-05,3.92041e-05,2.61851e-05,-7.46522e-06,2.91883e-05,1.17171e-05,0
-3.20804e-05,1.41676e-05,-7.19683e-06,4.09699e-05,2.57906e-05,-9.5045e-06,3.14344e-05,1.15678e-05,0
-3.38089e-05,2.01228e-05,-4.60373e-06,3.5586e-05,2.48068e-05,-1.09094e-05,3.17779e-05,1.02657e-05,0
-3.40674e-05,2.43685e-05,-4.78054e-06,2.23364e-05,2.27156e-05,-1.08166e-05,3.00598e-05,1.00413e-05,0
-3.24195e-05,2.41131e-05,-6.24137e-06,9.88256e-06,2.0585e-05,-9.60077e-06,2.70905e-05,1.07299e-05,0
-3.02137e-05,1.99121e-05,-7.30052e-06,4.17671e-06,1.9234e-05,-8.43914e-06,2.4558e-05,1.01853e-05,0
-2.9241e-05,1.45435e-05,-6.86195e-06,-2.47555e-06,1.82209e-05,-6.89345e-06,2.28935e-05,8.53211e-06,0
-2.92503e-05,1.12779e-05,-5.65178e-06,-1.44754e-05,1.65093e-05,-6.72105e-06,2.024e-05,7.11445e-06,0
-3.02102e-05,1.15069e-05,-3.36563e-06,-3.02053e-05,1.43134e-05,-9.08953e-06,1.70806e-05,5.95605e-06,0
-3.21598e-05,1.2199e-05,-1.10637e-06,-4.37984e-05,1.24242e-05,-7.71578e-06,1.44982e-05,5.53323e-06,0
-3.23193e-05,1.01805e-05,2.61879e-07,-4.91632e-05,1.18507e-05,-4.31082e-06,1.36837e-05,6.33554e-06,0
-3.11081e-05,6.90832e-06,-2.477e-07,-4.88535e-05,1.17291e-05,-4.93177e-06,1.34668e-05,8.95305e-06,0
-3.10734e-05,6.33753e-06,-1.64708e-06,-4.85582e-05,1.12472e-05,-8.2941e-06,1.28897e-05,1.22727e-05,0
-3.09262e-05,8.30745e-06,-1.0221e-06,-4.83245e-05,1.11612e-05,-9.74827e-06,1.28689e-05,1.33112e-05,0
-3.14245e-05,1.36054e-05,-3.5858e-07,-4.25993e-05,1.07066e-05,-7.9545e-06,1.12482e-05,1.26172e-05,0
-3.23478e-05,2.13514e-05,-1.42367e-06,-3.35193e-05,1.05553e-05,-6.55651e-06,9.89692e-06,1.27305e-05,0
-3.12303e-05,2.62015e-05,-3.24757e-06,-2.51866e-05,1.14046e-05,-6.7191e-06,1.09048e-05,1.21638e-05,0
-2.81478e-05,2.54545e-05,-4.9278e-06,-2.33249e-05,1.19796e-05,-7.07963e-06,1.21307e-05,1.06866e-05,0
-2.56795e-05,2.15521e-05,-6.34562e-06,-3.37483e-05,1.10544e-05,-7.40868e-06,1.22295e-05,1.01813e-05,0
-2.56301e-05,1.63338e-05,-5.38453e-06,-5.18145e-05,1.08076e-05,-7.99237e-06,1.14745e-05,9.60744e-06,0
-2.75718e-05,8.74519e-06,-4.40891e-06,-6.61262e-05,1.2186e-05,-8.9701e-06,1.04855e-05,9.23692e-06,0
-2.95253e-05,1.61684e-06,-5.63836e-06,-6.88496e-05,1.26929e-05,-1.00328e-05,9.38871e-06,9.07546e-06,0
-2.90981e-05,-8.15408e-07,-8.1117e-06,-6.27512e-05,1.22739e-05,-1.10608e-05,6.15323e-06,7.76574e-06,0
-2.71879e-05,1.87083e-06,-9.98042e-06,-5.37821e-05,1.29543e-05,-1.1943e-05,3.51315e-07,4.92467e-06,0
-2.60809e-05,5.58497e-06,-9.80805e-06,-4.34933e-05,1.45017e-05,-1.1939e-05,-3.64531e-06,2.54455e-06,0
-2.66763e-05,7.96554e-06,-9.27912e-06,-2.44622e-05,1.56366e-05,-1.10648e-05,-1.94255e-06,1.55976e-06,0
-2.83369e-05,7.53559e-06,-8.57478e-06,8.00191e-06,1.591e-05,-1.03638e-05,3.67652e-06,7.50664e-07,0
-2.99536e-05,4.6911e-06,-8.05955e-06,4.71171e-05,1.44444e-05,-1.02611e-05,8.54037e-06,-2.02978e-07,0
-2.99589e-05,2.38103e-06,-8.53804e-06,7.94258e-05,1.3154e-05,-9.26981e-06,1.13921e-05,-5.96136e-07,0
-2.89445e-05,2.41086e-06,-1.00799e-05,9.50499e-05,1.29421e-05,-7.80608e-06,1.39397e-05,-2.10745e-07,0
-2.71978e-05,4.45708e-06,-1.12636e-05,9.16003e-05,1.17768e-05,-7.23508e-06,1.72433e-05,-5.53217e-07,0
-2.56087e-05,6.34166e-06,-1.24932e-05,7.43789e-05,1.00146e-05,-7.73536e-06,1.92287e-05,-1.75525e-06,0
-2.67942e-05,6.43175e-06,-1.36586e-05,5.31781e-05,8.2729e-06,-1.06198e-05,1.8949e-05,-2.97248e-06,0
-2.91536e-05,7.73286e-06,-1.45719e-05,3.69385e-05,5.91857e-06,-1.31384e-05,1.82431e-05,-3.2429e-06,0
-2.91201e-05,1.0478e-05,-1.53217e-05,2.86215e-05,4.25517e-06,-1.192e-05,1.73881e-05,-3.33623e-06,0
-2.71858e-05,1.2434e-05,-1.6277e-05,2.47305e-05,3.70289e-06,-8.93099e-06,1.69093e-05,-3.96424e-06,0
-2.56603e-05,1.24471e-05,-1.64528e-05,2.28222e-05,1.90569e-06,-7.30961e-06,1.71239e-05,-4.06318e-06,0
-2.47388e-05,1.0513e-05,-1.56179e-05,2.14748e-05,6.70822e-07,-8.09614e-06,1.71191e-05,-3.89423e-06,0
-2.43959e-05,1.03487e-05,-1.48666e-05,1.79489e-05,2.50846e-06,-7.92581e-06,1.68675e-05,-3.56516e-06,0
-2.46838e-05,1.41267e-05,-1.27673e-05,1.18581e-05,5.42308e-06,-5.76487e-06,1.66233e-05,-4.14159e-06,0
-2.53752e-05,2.05745e-05,-9.88203e-06,9.65525e-06,9.49093e-06,-3.40461e-06,1.56967e-05,-5.60059e-06,0
-2.60868e-05,2.53678e-05,-7.65161e-06,1.22609e-05,1.46041e-05,-1.6339e-06,1.44671e-05,-7.49935e-06,0
-2.64075e-05,2.79011e-05,-8.05155e-06,1.33116e-05,1.92308e-05,-1.22564e-06,1.39662e-05,-8.34118e-06,0
-2.69211e-05,3.06458e-05,-8.37377e-06,1.00211e-05,2.08756e-05,-1.3927e-06,1.30091e-05,-9.17619e-06,0
-2.84082e-05,3.38413e-05,-6.68071e-06,5.71794e-06,2.03488e-05,-5.41327e-07,1.35075e-05,-9.64247e-06,0
-2.92421e-05,3.56139e-05,-5.13661e-06,4.60918e-06,1.88853e-05,1.05106e-06,1.54827e-05,-8.76213e-06,0
-2.91042e-05,3.51891e-05,-3.62871e-06,1.00027e-05,1.70965e-05,2.38652e-06,1.71181e-05,-7.21733e-06,0
-2.86298e-05,3.39387e-05,-2.19616e-06,1.92481e-05,1.55983e-05,1.97602e-06,2.01284e-05,-4.83063e-06,0
-2.8048e-05,3.22903e-05,-1.04597e-06,2.10731e-05,1.42379e-05,5.88359e-07,2.7947e-05,-2.58076e-06,0
-2.75705e-05,2.9904e-05,-5.08894e-07,9.73809e-06,1.44789e-05,-4.3675e-07,3.95637e-05,-5.18396e-07,0
-2.7805e-05,2.64621e-05,-1.28957e-06,-8.63564e-06,1.49173e-05,-2.80021e-06,4.77415e-05,8.99812e-07,0
-2.87038e-05,2.29383e-05,-3.01644e-06,-2.36488e-05,1.41591e-05,-5.9088e-06,4.95465e-05,1.52474e-06,0
-2.89159e-05,1.88533e-05,-3.84697e-06,-3.04896e-05,1.21673e-05,-7.92587e-06,4.49397e-05,1.66957e-06,0
-2.92362e-05,1.29051e-05,-3.66167e-06,-3.02164e-05,1.08731e-05,-8.32479e-06,3.49756e-05,3.07177e-06,0
-3.08898e-05,6.26203e-06,-3.40174e-06,-2.42563e-05,1.1583e-05,-8.29296e-06,2.12499e-05,3.75037e-06,0
-3.29049e-05,1.05304e-06,-2.13614e-06,-1.62302e-05,1.3136e-05,-8.32291e-06,5.60806e-06,2.09713e-06,0
-3.33166e-05,-2.03132e-06,-9.20714e-07,-1.44621e-05,1.39804e-05,-8.15399e-06,-1.0315e-05,-6.81398e-07,0
-3.20998e-05,-4.0054e-06,-1.43343e-06,-2.3081e-05,1.47004e-05,-7.95771e-06,-2.28948e-05,-2.30521e-06,0
-3.19264e-05,-4.3645e-06,-3.00957e-06,-3.92757e-05,1.56118e-05,-9.09641e-06,-2.78404e-05,-1.19881e-06,0
-3.33811e-05,-3.1063e-06,-4.79513e-06,-5.57456e-05,1.4713e-05,-1.13046e-05,-2.55708e-05,3.66333e-07,0
-3.46643e-05,-1.49553e-06,-5.30749e-06,-6.29295e-05,1.20322e-05,-1.28799e-05,-2.10927e-05,6.02405e-07,0
-3.5724e-05,-1.41524e-06,-4.29397e-06,-5.48966e-05,9.91502e-06,-1.22749e-05,-1.76219e-05,1.73699e-06,0
-3.56333e-05,-2.18185e-06,-3.5237e-06,-3.47683e-05,9.15323e-06,-1.10378e-05,-1.30075e-05,3.13465e-06,0
-3.51268e-05,-2.18472e-06,-5.29918e-06,-1.57142e-05,1.0103e-05,-1.16551e-05,-4.7049e-06,3.63623e-06,0
-3.43924e-05,-9.93239e-07,-8.53613e-06,-1.16515e-05,9.30675e-06,-1.26168e-05,2.42375e-06,3.87658e-06,0
-3.3764e-05,2.69242e-06,-9.70331e-06,-2.33427e-05,7.84787e-06,-1.29571e-05,3.35726e-06,4.08855e-06,0
-3.37589e-05,5.95451e-06,-9.69978e-06,-3.86033e-05,7.75586e-06,-1.30101e-05,3.18801e-06,2.80549e-06,0
-3.39486e-05,6.05816e-06,-1.0578e-05,-4.45998e-05,7.42665e-06,-1.25542e-05,5.43035e-06,-1.95151e-07,0
-3.54648e-05,6.13437e-06,-1.16733e-05,-3.79414e-05,7.54138e-06,-1.05799e-05,9.22204e-06,3.09432e-07,0
-3.61085e-05,7.65043e-06,-1.24618e-05,-2.89882e-05,7.61417e-06,-9.14633e-06,6.11169e-06,2.82186e-06,0
-3.43949e-05,7.97784e-06,-1.35162e-05,-2.80865e-05,9.40935e-06,-9.32427e-06,-7.41017e-06,2.83241e-06,0
-3.2829e-05,7.35646e-06,-1.54086e-05,-3.40084e-05,1.08875e-05,-1.03564e-05,-2.09046e-05,2.6461e-06,0
-3.19401e-05,7.79752e-06,-1.7365e-05,-3.61472e-05,1.13239e-05,-1.06005e-05,-2.54857e-05,4.49171e-06,0
-3.16045e-05,8.06596e-06,-1.72564e-05,-2.8976e-05,1.28139e-05,-9.0501e-06,-1.98923e-05,4.864e-06,0
-3.22468e-05,6.97757e-06,-1.56201e-05,-1.57088e-05,1.47076e-05,-7.16732e-06,-7.89519e-06,2.61358e-06,0
-3.29386e-05,6.49258e-06,-1.46002e-05,-4.17903e-06,1.52663e-05,-6.41252e-06,5.69742e-06,1.656e-07,0
-3.33236e-05,8.18429e-06,-1.54506e-05,1.612e-06,1.47046e-05,-7.37082e-06,1.82395e-05,-1.12017e-06,0
-3.29888e-05,1.00353e-05,-1.67303e-05,5.26702e-06,1.30382e-05,-7.92997e-06,2.85751e-05,-1.24099e-06,0
-3.21926e-05,1.10009e-05,-1.56212e-05,1.00554e-05,1.16071e-05,-7.10827e-06,3.59909e-05,-1.34834e-06,0
-3.19927e-05,1.26539e-05,-1.1837e-05,1.53245e-05,1.19019e-05,-6.56225e-06,4.03095e-05,-2.22258e-06,0
-3.28826e-05,1.54556e-05,-8.17207e-06,1.74018e-05,1.20875e-05,-7.85916e-06,4.1651e-05,-2.05521e-06,0
-3.31472e-05,1.85518e-05,-7.34619e-06,1.48723e-05,1.07602e-05,-9.93456e-06,4.17634e-05,-4.50572e-07,0
-3.15033e-05,2.17196e-05,-8.50704e-06,8.14046e-06,1.01353e-05,-1.15964e-05,4.12603e-05,1.49683e-06,0
-3.00422e-05,2.45503e-05,-8.48167e-06,2.9373e-06,1.26176e-05,-1.30026e-05,3.94708e-05,3.94143e-06,0
-3.0317e-05,2.48597e-05,-6.43944e-06,2.69767e-06,1.44447e-05,-1.37586e-05,3.58899e-05,5.02046e-06,0
-3.1468e-05,2.34944e-05,-5.2205e-06,5.13021e-06,1.39949e-05,-1.36188e-05,3.18322e-05,3.96159e-06,0
-3.2165e-05,2.29558e-05,-6.03185e-06,8.07604e-06,1.45712e-05,-1.26097e-05,2.85879e-05,3.0078e-06,0
-3.22724e-05,2.27378e-05,-7.1043e-06,1.09641e-05,1.60127e-05,-1.07354e-05,2.63277e-05,3.70481e-06,0
-3.21152e-05,2.2864e-05,-6.48416e-06,1.11811e-05,1.68424e-05,-1.01078e-05,2.56044e-05,5.42655e-06,0
-3.1129e-05,2.25065e-05,-5.54737e-06,6.97946e-06,1.73392e-05,-1.19785e-05,2.57393e-05,6.22965e-06,0
-2.98876e-05,2.06744e-05,-6.35166e-06,1.69604e-08,1.45166e-05,-1.42499e-05,2.42719e-05,5.09921e-06,0
-2.95754e-05,1.78172e-05,-6.96511e-06,-5.6083e-06,9.64436e-06,-1.36648e-05,2.20711e-05,2.97381e-06,0
-3.08178e-05,1.59698e-05,-6.29953e-06,-7.47279e-06,8.1394e-06,-9.4362e-06,2.06886e-05,2.14985e-06,0
-3.16398e-05,1.6018e-05,-5.81956e-06,-8.15791e-06,1.09041e-05,-7.46904e-06,2.05246e-05,3.21837e-06,0
-3.07756e-05,1.70596e-05,-4.62772e-06,-5.43372e-06,1.33232e-05,-8.65936e-06,2.09587e-05,5.2519e-06,0
-2.80435e-05,1.82671e-05,-4.06753e-06,-1.78638e-06,1.28794e-05,-9.0061e-06,1.87223e-05,6.25513e-06,0
-2.55336e-05,1.92724e-05,-5.682e-06,-4.42064e-06,1.14741e-05,-9.71239e-06,1.31074e-05,3.77644e-06,0
-2.62516e-05,2.17724e-05,-7.57158e-06,-1.22127e-05,1.09296e-05,-1.14581e-05,8.08566e-06,5.9594e-07,0
-2.94288e-05,2.15482e-05,-8.18103e-06,-1.89109e-05,1.20154e-05,-1.29052e-05,5.53177e-06,7.03062e-07,0
-3.06359e-05,1.68515e-05,-8.28036e-06,-2.03694e-05,1.26113e-05,-1.43492e-05,4.53087e-06,2.80176e-06,0
-2.86112e-05,1.2006e-05,-8.789e-06,-1.74339e-05,1.3428e-05,-1.60356e-05,5.87571e-06,3.69221e-06,0
-2.79815e-05,1.10418e-05,-8.21471e-06,-1.11373e-05,1.64337e-05,-1.57096e-05,7.96402e-06,3.52956e-06,0
-2.86423e-05,1.24746e-05,-6.11698e-06,-1.76657e-06,2.10669e-05,-1.34637e-05,9.05162e-06,3.27946e-06,0
-2.88465e-05,1.25061e-05,-3.22758e-06,1.04499e-05,2.54195e-05,-1.2147e-05,9.58592e-06,2.90477e-06,0
-2.83292e-05,1.19147e-05,-1.37799e-06,2.27098e-05,2.77817e-05,-1.31171e-05,1.02555e-05,2.52885e-06,0
-2.76807e-05,1.28959e-05,-9.61953e-07,2.78823e-05,2.70185e-05,-1.45547e-05,1.08189e-05,2.5059e-06,0
-2.71096e-05,1.38277e-05,-1.71367e-06,2.22223e-05,2.26003e-05,-1.46941e-05,1.09943e-05,2.86404e-06,0
-2.79126e-05,1.13591e-05,-3.49808e-06,1.24856e-05,1.79741e-05,-1.37093e-05,1.08369e-05,3.36132e-06,0
-3.0045e-05,6.38965e-06,-5.47076e-06,6.90046e-06,1.60333e-05,-1.2506e-05,1.12438e-05,2.62532e-06,0
-3.10323e-05,1.36437e-06,-6.52946e-06,6.17328e-06,1.60646e-05,-1.13333e-05,1.1189e-05,6.28306e-07,0
-2.96967e-05,-1.9393e-06,-6.91106e-06,5.76442e-06,1.58007e-05,-1.0617e-05,9.10766e-06,-3.71835e-07,0
-2.77428e-05,-3.24037e-06,-8.50805e-06,1.79825e-06,1.4263e-05,-1.10826e-05,6.13168e-06,-1.14539e-08,0
-2.75658e-05,-2.45758e-06,-1.0623e-05,-3.18213e-06,1.25092e-05,-1.19651e-05,4.08436e-06,4.84304e-07,0
-2.8944e-05,-1.78742e-06,-1.10104e-05,-4.23273e-06,1.07363e-05,-1.27411e-05,2.42153e-06,1.053e-06,0
-2.98391e-05,-2.07689e-06,-1.07817e-05,2.91653e-07,1.03815e-05,-1.18085e-05,-4.68583e-07,1.21192e-06,0
-3.04189e-05,-2.30345e-06,-1.04475e-05,6.06623e-06,1.29694e-05,-1.02438e-05,-5.23877e-06,6.18098e-07,0
-3.12494e-05,-2.68591e-06,-8.88533e-06,1.02018e-05,1.63236e-05,-9.34058e-06,-1.08404e-05,1.74876e-06,0
-2.99677e-05,-4.34726e-06,-8.05281e-06,1.14218e-05,1.86281e-05,-8.46075e-06,-1.33591e-05,1.95629e-06,0
-2.84481e-05,-5.47861e-06,-7.79756e-06,1.05817e-05,1.77557e-05,-8.7319e-06,-1.18975e-05,-2.88582e-06,0
-2.78423e-05,-5.16412e-06,-6.91198e-06,9.82876e-06,1.58299e-05,-7.99593e-06,-8.45047e-06,-6.84629e-06,0
-2.87211e-05,-3.88331e-06,-6.62937e-06,6.88619e-06,1.74208e-05,-5.35663e-06,-4.7686e-06,-5.89337e-06,0
-3.05893e-05,-2.69664e-06,-6.54654e-06,1.08954e-06,1.97876e-05,-3.01625e-06,-7.89988e-07,-2.8523e-06,0
-3.11051e-05,-1.85906e-06,-5.07141e-06,-5.55247e-06,1.99373e-05,-2.52425e-06,-3.07876e-07,3.06994e-07,0
-2.96497e-05,-1.0913e-06,-3.58186e-06,-1.2421e-05,1.82506e-05,-4.82186e-06,-4.80934e-06,2.01443e-06,0
-2.67821e-05,-1.35674e-06,-2.96906e-06,-1.79264e-05,1.7659e-05,-6.41016e-06,-8.46553e-06,3.1879e-06,0
-2.5723e-05,-2.56063e-06,-4.76657e-06,-1.78608e-05,1.77632e-05,-6.20964e-06,-6.71227e-06,3.35561e-06,0
-2.67987e-05,-4.45914e-06,-9.2121e-06,-1.47355e-05,1.64663e-05,-5.1325e-06,2.63125e-06,2.32456e-06,0
-2.95487e-05,-5.70984e-06,-1.33617e-05,-1.16088e-05,1.43832e-05,-4.39655e-06,1.71501e-05,1.40809e-06,0
-3.22528e-05,-5.91911e-06,-1.62097e-05,-7.72818e-06,1.21633e-05,-4.64976e-06,3.12283e-05,5.95603e-07,0
-3.29771e-05,-4.36799e-06,-1.6822e-05,-4.54192e-06,1.02508e-05,-5.3647e-06,4.19982e-05,-2.99623e-07,0
-3.24068e-05,-1.83853e-06,-1.52984e-05,-4.50263e-06,9.57736e-06,-6.43038e-06,4.88687e-05,-8.96973e-07,0
-3.19364e-05,4.71379e-07,-1.34913e-05,-6.06033e-06,1.06589e-05,-6.44657e-06,5.23052e-05,-1.54505e-06,0
-3.19547e-05,2.58268e-06,-1.25851e-05,-6.25184e-06,1.15496e-05,-5.57102e-06,5.41736e-05,-2.18468e-06,0
-3.11066e-05,5.26872e-06,-1.15951e-05,-5.78282e-06,1.19412e-05,-5.68821e-06,5.65229e-05,-1.2835e-06,0
-2.96202e-05,8.2759e-06,-9.92458e-06,-4.92434e-06,1.20635e-05,-7.98162e-06,5.86202e-05,9.66698e-07,0
-2.85569e-05,1.37478e-05,-8.4498e-06,-3.55585e-06,1.04074e-05,-9.77318e-06,5.72826e-05,2.78865e-06,0
-2.83649e-05,2.29875e-05,-6.92849e-06,-8.98779e-07,7.95927e-06,-1.01301e-05,5.20828e-05,3.28767e-06,0
-2.88351e-05,3.06585e-05,-5.83983e-06,2.39563e-06,7.16624e-06,-1.0635e-05,4.49769e-05,2.58457e-06,0
-2.99158e-05,3.2137e-05,-7.37238e-06,3.86494e-06,6.83844e-06,-1.20148e-05,3.74984e-05,5.15099e-07,0
-3.09596e-05,2.85767e-05,-1.13535e-05,1.51412e-06,5.52522e-06,-1.19478e-05,2.84302e-05,-1.99796e-06,0
-3.12714e-05,2.32842e-05,-1.40165e-05,-5.76547e-06,3.54195e-06,-1.08682e-05,1.81947e-05,-2.99866e-06,0
-3.09305e-05,1.73698e-05,-1.18923e-05,-1.41827e-05,1.39196e-06,-1.09777e-05,9.86375e-06,-2.65105e-06,0
-3.01227e-05,1.22243e-05,-8.56043e-06,-1.9005e-05,1.17409e-06,-1.27139e-05,5.15313e-06,-2.00674e-06,0
-2.86482e-05,9.13561e-06,-8.70163e-06,-2.16183e-05,3.70343e-06,-1.51752e-05,3.00294e-06,-6.84802e-07,0
-2.78883e-05,6.24758e-06,-9.05264e-06,-2.56799e-05,5.79812e-06,-1.50879e-05,-2.74675e-07,-1.46786e-06,0
-2.78494e-05,1.88545e-06,-6.93e-06,-2.91219e-05,7.25039e-06,-1.37605e-05,-4.84366e-06,-3.17539e-06,0
-2.66014e-05,-5.29506e-06,-5.68852e-06,-2.63999e-05,1.0394e-05,-1.26307e-05,-6.26887e-06,-4.0644e-06,0
-2.56165e-05,-1.34012e-05,-6.63237e-06,-1.66764e-05,1.39198e-05,-1.16051e-05,-7.43552e-06,-3.88664e-06,0
-2.58926e-05,-1.30804e-05,-7.18743e-06,-1.83477e-06,1.58159e-05,-1.2538e-05,-9.63314e-06,-2.53569e-06,0
-2.61363e-05,-6.58826e-06,-6.96963e-06,1.19766e-05,1.47941e-05,-1.4066e-05,-8.96346e-06,-1.68129e-06,0
-2.76952e-05,-1.86231e-06,-7.08546e-06,2.09521e-05,1.08304e-05,-1.47533e-05,-7.73419e-06,1.06186e-07,0
-2.84769e-05,2.8198e-06,-6.6417e-06,2.49781e-05,7.79869e-06,-1.69179e-05,-8.27728e-06,2.88962e-06,0
-2.65365e-05,7.84668e-06,-5.54731e-06,2.26533e-05,7.93861e-06,-1.82664e-05,-9.77041e-06,5.45855e-06,0
-2.47367e-05,1.12257e-05,-5.85614e-06,1.39794e-05,8.14015e-06,-1.72137e-05,-8.13261e-06,5.89463e-06,0
-2.51986e-05,1.2569e-05,-6.92928e-06,2.50927e-06,6.99321e-06,-1.58457e-05,-4.51722e-06,3.38256e-06,0
-2.79312e-05,1.35504e-05,-7.78623e-06,-8.35994e-06,5.38594e-06,-1.55648e-05,-2.96776e-06,1.34262e-06,0
-3.09394e-05,1.38251e-05,-8.62018e-06,-1.66774e-05,3.23099e-06,-1.67427e-05,-2.21997e-06,2.21732e-06,0
-3.17429e-05,1.37851e-05,-9.68801e-06,-1.98097e-05,1.47316e-06,-1.74513e-05,-8.95021e-07,3.84088e-06,0
-3.05239e-05,1.32247e-05,-1.03051e-05,-1.79232e-05,2.15923e-06,-1.59382e-05,2.64811e-07,2.37669e-06,0
-2.93231e-05,1.25189e-05,-9.80402e-06,-1.0318e-05,4.42436e-06,-1.24877e-05,4.10412e-07,-7.90717e-07,0
-2.85974e-05,1.30035e-05,-1.00058e-05,1.28642e-06,6.39755e-06,-9.87833e-06,3.18626e-07,-1.24608e-06,0
-2.90446e-05,1.3984e-05,-1.10525e-05,1.14221e-05,7.95533e-06,-9.35492e-06,8.65432e-07,1.64766e-06,0
-2.94023e-05,1.40667e-05,-1.11332e-05,1.45317e-05,1.00605e-05,-9.58943e-06,6.68875e-07,4.38984e-06,0
-2.80471e-05,1.40676e-05,-9.33482e-06,1.0469e-05,1.35717e-05,-9.19752e-06,-1.32912e-06,4.87546e-06,0
-2.67818e-05,1.62403e-05,-6.73794e-06,3.41813e-06,1.69183e-05,-8.74347e-06,-3.05808e-06,4.82287e-06,0
-2.83759e-05,1.83973e-05,-4.72047e-06,-4.01264e-06,1.84143e-05,-7.90665e-06,-2.06145e-06,5.4345e-06,0
-3.01887e-05,1.83249e-05,-3.41849e-06,-1.45282e-05,1.76791e-05,-5.9946e-06,1.59395e-06,5.66717e-06,0
-2.93943e-05,1.78334e-05,-2.2162e-06,-2.93197e-05,1.51609e-05,-4.57507e-06,6.54962e-06,3.73145e-06,0
-2.71361e-05,2.17277e-05,-5.9115e-07,-4.0261e-05,1.37581e-05,-4.82827e-06,1.04123e-05,1.31352e-06,0
-2.58342e-05,2.57602e-05,3.75531e-07,-3.80804e-05,1.50386e-05,-7.91102e-06,1.05499e-05,-1.14982e-06,0
-2.57125e-05,2.38441e-05,-1.17848e-06,-2.79753e-05,1.5759e-05,-1.14524e-05,8.20641e-06,-4.03043e-06,0
-2.6748e-05,1.90909e-05,-4.64893e-06,-2.03789e-05,1.41295e-05,-1.19677e-05,9.68783e-06,-6.26817e-06,0
-2.89556e-05,1.81278e-05,-7.3206e-06,-1.67099e-05,1.29763e-05,-1.2396e-05,1.97913e-05,-6.34247e-06,0
-3.12276e-05,1.96216e-05,-9.67565e-06,-1.48424e-05,1.07724e-05,-1.33572e-05,3.3124e-05,-4.71276e-06,0
-3.20568e-05,1.73861e-05,-1.09772e-05,-1.36496e-05,7.64965e-06,-1.20833e-05,4.20791e-05,-2.88835e-06,0
-3.11641e-05,1.46961e-05,-8.46186e-06,-1.35236e-05,9.04335e-06,-9.0579e-06,4.32541e-05,-2.88167e-06,0
-3.01862e-05,1.58266e-05,-5.9717e-06,-1.12655e-05,1.32071e-05,-8.26361e-06,3.74088e-05,-5.56907e-06,0
-2.85183e-05,2.13899e-05,-5.98828e-06,-8.08035e-06,1.54446e-05,-1.02265e-05,2.6338e-05,-9.15763e-06,0
-2.7795e-05,3.24146e-05,-6.94646e-06,-3.74692e-06,1.48406e-05,-1.06402e-05,1.28601e-05,-1.16804e-05,0
-2.8672e-05,4.63408e-05,-8.49803e-06,4.68824e-06,1.32318e-05,-9.8683e-06,2.12272e-06,-1.12766e-05,0
-2.96176e-05,5.74383e-05,-1.04619e-05,1.39886e-05,1.20165e-05,-9.20555e-06,-4.68913e-06,-8.68316e-06,0
-2.93399e-05,6.08562e-05,-1.18926e-05,2.12068e-05,1.20801e-05,-8.3536e-06,-9.1847e-06,-5.68065e-06,0
-2.90299e-05,5.24428e-05,-1.21532e-05,2.50112e-05,1.4247e-05,-7.88309e-06,-1.15319e-05,-3.29942e-06,0
-2.90545e-05,3.44234e-05,-1.20233e-05,2.34318e-05,1.67937e-05,-7.89377e-06,-9.91552e-06,-9.46773e-07,0
-2.90861e-05,1.39229e-05,-1.11256e-05,1.67712e-05,1.82804e-05,-7.17648e-06,-4.95304e-06,7.71001e-07,0
-3.04806e-05,-3.99571e-06,-9.24853e-06,9.90249e-06,1.92214e-05,-5.4444e-06,9.71338e-07,1.0508e-06,0
-3.35034e-05,-1.69866e-05,-6.88164e-06,6.11875e-06,1.96915e-05,-4.59007e-06,6.84522e-06,4.14887e-07,0
-3.60565e-05,-2.40681e-05,-2.44769e-06,5.2003e-06,1.98607e-05,-5.30789e-06,1.25465e-05,-3.47546e-07,0
-3.66272e-05,-2.46949e-05,7.55126e-06,4.80425e-06,1.96644e-05,-5.8861e-06,1.68451e-05,-2.28502e-07,0
-3.62913e-05,-1.91493e-05,2.37371e-05,2.20471e-06,1.92152e-05,-6.15634e-06,1.8741e-05,4.64848e-07,0
-3.56359e-05,-9.47995e-06,4.14712e-05,-4.89611e-06,1.99409e-05,-6.17382e-06,1.98093e-05,-1.1258e-07,0
-3.53253e-05,-2.7911e-07,5.31827e-05,-1.58801e-05,2.1217e-05,-5.69082e-06,2.253e-05,-2.54184e-06,0
-3.56072e-05,5.57643e-06,5.19426e-05,-2.6772e-05,2.07652e-05,-4.9717e-06,2.62985e-05,-4.89041e-06,0
-3.6753e-05,9.08222e-06,3.47829e-05,-3.42517e-05,1.8194e-05,-4.27002e-06,3.03056e-05,-5.24258e-06,0
-3.73529e-05,1.23043e-05,4.10499e-06,-3.16599e-05,1.41049e-05,-4.63203e-06,3.36724e-05,-3.38239e-06,0
-3.66659e-05,1.52427e-05,-3.15125e-05,-1.46019e-05,1.00191e-05,-5.74273e-06,3.23553e-05,-3.94933e-07,0
-3.48814e-05,1.81893e-05,-6.15867e-05,6.64014e-06,7.97839e-06,-5.95993e-06,2.63974e-05,1.62819e-06,0
-3.32935e-05,2.19546e-05,-7.83432e-05,1.94686e-05,8.26107e-06,-5.51084e-06,2.15363e-05,2.462e-06,0
-3.27752e-05,2.53582e-05,-8.03293e-05,1.86402e-05,1.05496e-05,-4.87455e-06,2.05903e-05,2.56524e-06,0
-3.24322e-05,2.67283e-05,-7.28308e-05,8.65322e-06,1.2909e-05,-4.43259e-06,2.06907e-05,2.47772e-06,0
-3.21235e-05,2.85224e-05,-6.18496e-05,-1.46266e-07,1.29114e-05,-4.35769e-06,2.18746e-05,4.19613e-06,0
-3.1911e-05,3.16271e-05,-5.03279e-05,-5.60857e-06,1.27751e-05,-3.73538e-06,2.32888e-05,5.1852e-06,0
-3.1777e-05,3.42015e-05,-3.94365e-05,-5.35804e-06,1.39582e-05,-3.12158e-06,2.11646e-05,4.53588e-06,0
-3.22625e-05,3.63326e-05,-3.16792e-05,3.85716e-06,1.43189e-05,-9.89748e-07,1.73884e-05,4.8162e-06,0
-3.34993e-05,3.60087e-05,-2.47811e-05,1.36201e-05,1.31638e-05,4.35864e-07,1.63444e-05,5.06971e-06,0
-3.41415e-05,3.42954e-05,-1.83168e-05,1.35568e-05,1.24951e-05,-9.11545e-07,1.75656e-05,5.02463e-06,0
-3.35611e-05,3.18616e-05,-1.38922e-05,2.29507e-06,1.39119e-05,-3.55698e-06,1.77484e-05,4.74181e-06,0
-3.23771e-05,2.92694e-05,-9.6496e-06,-1.55914e-05,1.53702e-05,-5.72023e-06,1.77975e-05,4.06663e-06,0
-3.11974e-05,2.75629e-05,-5.86242e-06,-3.13626e-05,1.49123e-05,-5.2998e-06,1.72119e-05,3.31595e-06,0
-2.99546e-05,2.78301e-05,-4.95311e-06,-3.9319e-05,1.32535e-05,-3.88394e-06,1.57371e-05,3.19807e-06,0
-2.87696e-05,2.84992e-05,-7.68516e-06,-4.00097e-05,1.18931e-05,-3.54934e-06,1.57511e-05,4.10466e-06,0
-2.84556e-05,2.61947e-05,-9.75743e-06,-4.08792e-05,1.09616e-05,-3.83153e-06,1.59907e-05,5.75547e-06,0
-3.01402e-05,2.06782e-05,-8.75707e-06,-4.89916e-05,1.16325e-05,-2.928e-06,1.38408e-05,6.55456e-06,0
-3.2264e-05,1.51364e-05,-5.7113e-06,-6.43727e-05,1.44677e-05,-2.23471e-06,1.13102e-05,6.16452e-06,0
-3.25066e-05,1.26083e-05,-3.27539e-06,-8.04231e-05,1.73212e-05,-2.80369e-06,1.23621e-05,4.87586e-06,0
-3.10716e-05,1.21453e-05,-2.85486e-06,-8.78265e-05,1.83521e-05,-3.96746e-06,1.52972e-05,3.05285e-06,0
-2.95969e-05,1.41602e-05,-4.13148e-06,-8.13053e-05,1.71803e-05,-5.36567e-06,1.66073e-05,1.85565e-06,0
-2.81633e-05,1.80025e-05,-5.37543e-06,-6.33914e-05,1.44331e-05,-6.57663e-06,1.53205e-05,2.13792e-07,0
-2.71822e-05,2.15342e-05,-4.8354e-06,-4.18724e-05,1.092e-05,-6.89765e-06,1.27273e-05,-2.13197e-06,0
-2.7585e-05,2.25758e-05,-3.41006e-06,-1.6645e-05,8.99694e-06,-7.01743e-06,8.88543e-06,-3.42069e-06,0
-2.75341e-05,2.06431e-05,-4.79992e-06,1.59789e-05,1.08197e-05,-7.84629e-06,4.30718e-06,-2.86239e-06,0
-2.71827e-05,1.68921e-05,-8.88697e-06,4.89919e-05,1.40372e-05,-9.11865e-06,2.65325e-06,-2.49156e-06,0
-2.84117e-05,1.42399e-05,-1.03989e-05,6.55433e-05,1.52491e-05,-1.04352e-05,4.43795e-06,-2.34658e-06,0
-3.06786e-05,1.3955e-05,-7.80041e-06,6.18353e-05,1.48842e-05,-1.16524e-05,7.24893e-06,-1.9716e-06,0
-3.13477e-05,1.56952e-05,-3.48152e-06,4.65215e-05,1.34917e-05,-1.22774e-05,1.16588e-05,-1.00584e-06,0
-3.09834e-05,1.76559e-05,-1.9356e-07,2.54822e-05,1.1435e-05,-1.27786e-05,1.66973e-05,2.51639e-07,0
-3.05766e-05,1.90821e-05,4.24705e-07,1.02351e-05,9.64371e-06,-1.40947e-05,1.89094e-05,-1.22575e-07,0
-2.91147e-05,2.08212e-05,-1.3964e-06,5.58957e-06,7.88021e-06,-1.46105e-05,1.89493e-05,-1.11349e-06,0
-2.70767e-05,2.26095e-05,-3.38104e-06,4.5283e-06,8.63864e-06,-1.67594e-05,1.86128e-05,-9.23766e-07,0
-2.5057e-05,2.38061e-05,-3.28003e-06,6.90808e-06,1.28978e-05,-2.0312e-05,1.88689e-05,3.59923e-07,0
-2.54073e-05,2.46774e-05,-1.90617e-06,1.24257e-05,1.75852e-05,-2.05894e-05,2.02462e-05,1.41911e-06,0
-2.65259e-05,2.63706e-05,-8.33706e-07,1.57405e-05,1.93965e-05,-1.85021e-05,2.27165e-05,6.18236e-07,0
-2.62256e-05,2.77107e-05,3.52597e-07,1.47056e-05,1.86549e-05,-1.71088e-05,2.45304e-05,-1.32322e-06,0
-2.52543e-05,2.78417e-05,8.84273e-07,1.44327e-05,1.80344e-05,-1.68959e-05,2.44899e-05,-1.78196e-06,0
-2.52369e-05,2.69437e-05,7.71802e-08,1.63353e-05,1.64576e-05,-1.63881e-05,2.49196e-05,3.02962e-07,0
-2.6726e-05,2.52905e-05,-7.02032e-07,1.60666e-05,1.43772e-05,-1.61926e-05,2.48319e-05,3.09963e-06,0
-2.74806e-05,2.34975e-05,-7.44618e-07,1.27982e-05,1.40435e-05,-1.58118e-05,2.29395e-05,6.34854e-06,0
-2.74249e-05,2.28165e-05,7.8294e-08,9.92834e-06,1.6866e-05,-1.47115e-05,1.98676e-05,8.63361e-06,0
-2.65764e-05,2.29881e-05,1.65288e-06,1.1536e-05,2.11813e-05,-1.44823e-05,1.62762e-05,8.75107e-06,0
-2.61722e-05,2.16884e-05,2.23175e-06,1.81851e-05,2.62432e-05,-1.5493e-05,1.17944e-05,8.23304e-06,0
-2.69981e-05,1.86791e-05,1.27326e-06,2.54432e-05,3.13146e-05,-1.78437e-05,7.6469e-06,7.13598e-06,0
-2.87552e-05,1.66078e-05,-4.09366e-07,2.59781e-05,3.35309e-05,-2.10572e-05,5.87781e-06,6.08472e-06,0
-3.03095e-05,1.58043e-05,-2.37729e-06,1.74596e-05,3.0912e-05,-2.29828e-05,5.81118e-06,6.31138e-06,0
-3.08342e-05,1.46728e-05,-4.81694e-06,5.0313e-06,2.43598e-05,-2.25038e-05,5.9964e-06,7.01674e-06,0
-3.05057e-05,1.29777e-05,-7.42048e-06,-3.52321e-06,1.80526e-05,-2.09144e-05,4.89126e-06,6.99406e-06,0
-3.04252e-05,1.16715e-05,-9.56352e-06,-6.92299e-06,1.56074e-05,-1.95931e-05,3.37985e-06,6.76041e-06,0
-3.03506e-05,1.10019e-05,-9.92798e-06,-7.23394e-06,1.69576e-05,-1.93136e-05,3.45435e-06,6.67074e-06,0
-2.96323e-05,1.04659e-05,-8.12687e-06,-5.95206e-06,1.75626e-05,-1.89664e-05,4.71888e-06,5.58358e-06,0
-2.92496e-05,9.53678e-06,-6.48194e-06,-6.47184e-06,1.60417e-05,-1.7091e-05,4.8792e-06,3.17843e-06,0
-2.89785e-05,8.48634e-06,-6.51461e-06,-1.10276e-05,1.37692e-05,-1.46522e-05,3.84823e-06,2.16082e-06,0
-2.88963e-05,7.11298e-06,-7.21313e-06,-1.49801e-05,1.06755e-05,-1.38525e-05,1.99178e-06,1.6671e-06,0
-3.03352e-05,5.35932e-06,-7.51908e-06,-1.69922e-05,6.32306e-06,-1.47395e-05,1.42664e-06,2.56882e-06,0
-3.26588e-05,3.71076e-06,-8.53735e-06,-2.02588e-05,2.50374e-06,-1.59131e-05,2.81119e-06,3.90801e-06,0
-3.46386e-05,3.48101e-07,-1.03286e-05,-2.06951e-05,1.13504e-06,-1.30839e-05,4.10794e-06,3.29342e-06,0
-3.68592e-05,-2.13463e-06,-1.27308e-05,-1.69794e-05,1.11206e-06,-8.42685e-06,4.35633e-06,2.87919e-06,0
-3.66625e-05,-1.36328e-06,-1.47021e-05,-1.43087e-05,9.1478e-08,-6.07271e-06,4.10975e-06,2.48978e-06,0
-3.50139e-05,-1.95052e-07,-1.52979e-05,-1.22594e-05,7.93439e-07,-4.20636e-06,3.77255e-06,1.7141e-06,0
-3.37261e-05,1.43534e-07,-1.51459e-05,-9.1519e-06,3.90577e-06,-2.93314e-06,4.34007e-06,1.24372e-06,0
-3.19648e-05,2.44209e-07,-1.49759e-05,-5.96876e-06,6.16164e-06,-2.32809e-06,6.82855e-06,2.67211e-06,0
-3.01999e-05,-1.77681e-08,-1.40539e-05,-9.73265e-07,6.95935e-06,-2.29655e-06,9.45286e-06,5.10652e-06,0
-2.93061e-05,-6.21661e-07,-1.147e-05,6.32215e-06,9.24481e-06,-2.52524e-06,1.08517e-05,6.08839e-06,0
-2.83009e-05,8.50501e-07,-9.3752e-06,1.34138e-05,1.41243e-05,-3.64051e-06,1.08976e-05,5.65853e-06,0
-2.7383e-05,3.43666e-06,-8.69594e-06,1.66304e-05,1.76982e-05,-5.58622e-06,1.00266e-05,4.22847e-06,0
-2.80398e-05,5.38168e-06,-9.89411e-06,1.13043e-05,1.67992e-05,-8.2252e-06,9.72248e-06,2.19397e-06,0
-3.02195e-05,7.09674e-06,-1.09257e-05,-2.68576e-06,1.27108e-05,-9.80249e-06,1.01461e-05,-1.3426e-07,0
-3.25513e-05,8.82249e-06,-9.89745e-06,-1.69567e-05,1.03383e-05,-9.84429e-06,1.04607e-05,-2.22324e-06,0
-3.37573e-05,7.67945e-06,-8.35039e-06,-2.3858e-05,1.07328e-05,-8.5405e-06,1.05905e-05,-2.70252e-06,0
-3.38124e-05,4.17254e-06,-8.03529e-06,-2.24901e-05,1.30786e-05,-6.49424e-06,1.08616e-05,-1.64291e-06,0
-3.23375e-05,2.81046e-06,-8.24287e-06,-1.56862e-05,1.47052e-05,-6.11424e-06,1.1009e-05,-7.23858e-07,0
-3.19176e-05,4.51712e-06,-7.89426e-06,-7.94278e-06,1.31419e-05,-6.50024e-06,9.49782e-06,-5.7605e-07,0
-3.34894e-05,7.10683e-06,-8.02552e-06,-2.19915e-06,9.08221e-06,-5.27653e-06,7.34562e-06,-5.50436e-07,0
-3.51119e-05,8.22038e-06,-8.63487e-06,8.98482e-08,5.53064e-06,-3.19812e-06,6.57589e-06,-6.69411e-07,0
-3.52169e-05,7.11643e-06,-9.78525e-06,-3.47916e-06,3.20932e-06,-3.44878e-06,7.50304e-06,-1.58022e-06,0
-3.44355e-05,4.92041e-06,-1.07067e-05,-1.18759e-05,1.19392e-06,-5.97207e-06,9.08928e-06,-2.65445e-06,0
-3.40174e-05,2.10546e-06,-1.01542e-05,-1.85446e-05,4.31054e-07,-7.78035e-06,1.07297e-05,-3.02862e-06,0
-3.39881e-05,-2.12256e-06,-8.79959e-06,-1.75406e-05,2.66151e-06,-7.28824e-06,1.20443e-05,-2.69156e-06,0
-3.42114e-05,-5.53278e-06,-8.59307e-06,-1.30552e-05,7.81767e-06,-7.10363e-06,1.14715e-05,-1.71765e-06,0
-3.46851e-05,-6.25064e-06,-7.98131e-06,-1.15824e-05,1.19201e-05,-8.1944e-06,8.38852e-06,-1.75232e-06,0
-3.42028e-05,-3.2113e-06,-6.62275e-06,-1.17328e-05,1.16295e-05,-9.73737e-06,5.40731e-06,-3.26325e-06,0
-3.45109e-05,-3.64886e-07,-5.66332e-06,-1.10769e-05,1.02564e-05,-1.14053e-05,4.76716e-06,-6.73578e-06,0
-3.48037e-05,5.05335e-07,-4.65019e-06,-1.07797e-05,1.27576e-05,-1.19849e-05,6.39221e-06,-8.79542e-06,0
-3.37693e-05,7.4447e-07,-4.09281e-06,-1.07562e-05,1.5591e-05,-1.07158e-05,9.31295e-06,-8.23869e-06,0
-3.34057e-05,2.09128e-06,-3.042e-06,-1.04607e-05,1.84601e-05,-9.17153e-06,1.18417e-05,-7.03424e-06,0
-3.1992e-05,3.38814e-06,-1.49958e-06,-9.72488e-06,2.21748e-05,-9.42528e-06,1.20981e-05,-5.75925e-06,0
-3.05552e-05,1.58323e-06,-1.13301e-06,-9.26693e-06,2.36711e-05,-1.0859e-05,1.02588e-05,-3.99937e-06,0
-2.96556e-05,-4.83214e-07,-2.16667e-06,-1.21764e-05,2.28576e-05,-1.2349e-05,9.12656e-06,5.58135e-07,0
-2.81129e-05,-1.41614e-06,-4.08466e-06,-1.59293e-05,2.06065e-05,-1.45305e-05,1.00294e-05,3.67161e-06,0
-2.81401e-05,-2.68769e-06,-5.32464e-06,-1.71852e-05,1.8203e-05,-1.54392e-05,1.06306e-05,3.96817e-06,0
-3.00995e-05,-3.39665e-06,-5.05831e-06,-1.26899e-05,1.63293e-05,-1.38214e-05,1.15284e-05,4.1332e-06,0
-3.09466e-05,-2.55649e-06,-4.43145e-06,-3.56484e-06,1.43811e-05,-1.19593e-05,1.36489e-05,4.90915e-06,0
-3.04187e-05,-7.72885e-07,-3.70402e-06,2.94294e-06,1.24907e-05,-1.16271e-05,1.46523e-05,5.36701e-06,0
-2.86272e-05,-3.37585e-08,-3.18304e-06,2.71704e-06,1.1002e-05,-1.29517e-05,1.49498e-05,5.68322e-06,0
-2.66553e-05,-1.35391e-08,-4.04161e-06,-1.42708e-06,9.6366e-06,-1.41896e-05,1.65738e-05,5.18259e-06,0
-2.56397e-05,1.58066e-06,-7.08758e-06,-5.59859e-06,1.05943e-05,-1.42221e-05,2.24851e-05,2.68127e-06,0
-2.60349e-05,3.58263e-06,-1.10627e-05,-9.64787e-06,1.4335e-05,-1.40949e-05,3.39666e-05,-8.97465e-07,0
-2.7775e-05,4.06315e-06,-1.3346e-05,-1.3409e-05,1.69982e-05,-1.58233e-05,4.84203e-05,-3.42381e-06,0
-2.9426e-05,2.71176e-06,-1.38072e-05,-1.70915e-05,1.56514e-05,-1.78546e-05,5.93484e-05,-2.89799e-06,0
-3.01157e-05,1.74784e-06,-1.35007e-05,-2.08547e-05,1.1508e-05,-1.82002e-05,6.16028e-05,-4.36767e-07,0
-3.10962e-05,9.42661e-07,-1.30943e-05,-2.47474e-05,8.19119e-06,-1.78379e-05,5.46316e-05,1.49057e-06,0
-3.33694e-05,-6.5432e-07,-1.3056e-05,-2.56078e-05,7.50427e-06,-1.79389e-05,4.09255e-05,1.1998e-06,0
-3.4319e-05,-2.35506e-06,-1.29714e-05,-2.31625e-05,7.53346e-06,-1.77664e-05,2.43596e-05,1.04013e-06,0
-3.28927e-05,-2.02605e-06,-1.3086e-05,-1.9948e-05,7.17051e-06,-1.68733e-05,6.97368e-06,2.01298e-06,0
-2.98951e-05,-5.24629e-07,-1.31426e-05,-1.82284e-05,6.98144e-06,-1.65481e-05,-9.44481e-06,1.78336e-06,0
-2.77055e-05,-1.01794e-06,-1.2312e-05,-1.9722e-05,7.36127e-06,-1.66995e-05,-2.05182e-05,2.99187e-07,0
-2.7114e-05,-4.41142e-06,-1.15106e-05,-1.99851e-05,8.25055e-06,-1.67641e-05,-2.41274e-05,3.06938e-07,0
-2.76977e-05,-7.1706e-06,-1.25264e-05,-1.11943e-05,9.24821e-06,-1.56097e-05,-2.18315e-05,1.69963e-06,0
-2.731e-05,-7.11857e-06,-1.33518e-05,9.91672e-06,1.03394e-05,-1.36454e-05,-1.42035e-05,2.37459e-06,0
-2.62725e-05,-5.54766e-06,-1.18727e-05,3.37303e-05,1.27011e-05,-1.15713e-05,-5.48992e-06,2.3317e-06,0
-2.69388e-05,-1.95653e-06,-1.03946e-05,4.80313e-05,1.79028e-05,-9.01393e-06,2.51585e-06,2.74189e-06,0
-2.71732e-05,1.10141e-06,-1.03334e-05,4.74257e-05,2.28116e-05,-7.56231e-06,9.14972e-06,3.63737e-06,0
-2.69469e-05,2.71348e-06,-9.86427e-06,3.43984e-05,2.52335e-05,-6.07298e-06,1.08825e-05,4.85834e-06,0
-2.69511e-05,3.98855e-06,-8.67434e-06,1.70902e-05,2.60829e-05,-5.61918e-06,5.17011e-06,4.84106e-06,0
-2.73622e-05,5.56776e-06,-8.69671e-06,1.18158e-06,2.54279e-05,-6.10855e-06,-1.17485e-05,3.34318e-06,0
-2.76581e-05,8.76853e-06,-9.55503e-06,-7.59395e-06,2.41243e-05,-5.56351e-06,-2.89242e-05,2.2205e-06,0
-2.83486e-05,1.23926e-05,-9.92298e-06,-1.13429e-05,2.23896e-05,-4.31692e-06,-3.40532e-05,1.99659e-06,0
-2.94964e-05,1.4575e-05,-9.43397e-06,-1.32477e-05,1.96695e-05,-3.71531e-06,-2.72219e-05,2.41303e-06,0
-2.99342e-05,1.47384e-05,-8.09462e-06,-1.15686e-05,1.70339e-05,-4.27265e-06,-1.4589e-05,3.01025e-06,0
-3.05611e-05,1.50109e-05,-7.27211e-06,-4.16897e-06,1.49624e-05,-4.48938e-06,-2.32558e-06,4.37573e-06,0
-3.11906e-05,1.56882e-05,-7.93621e-06,7.54735e-06,1.26969e-05,-4.41828e-06,1.0424e-05,5.19604e-06,0
-3.0763e-05,1.69855e-05,-8.1238e-06,1.99645e-05,1.09084e-05,-3.87948e-06,2.40666e-05,4.63964e-06,0
-2.92922e-05,1.93143e-05,-6.78269e-06,3.08176e-05,1.10573e-05,-2.96856e-06,3.55241e-05,3.2851e-06,0
-2.80322e-05,2.11378e-05,-4.48151e-06,3.50784e-05,1.28416e-05,-1.35409e-06,4.12886e-05,1.94433e-06,0
-2.77068e-05,2.27618e-05,-1.70689e-06,2.79486e-05,1.37113e-05,1.0631e-07,4.29877e-05,9.26667e-07,0
-2.88103e-05,2.39134e-05,2.5105e-07,7.86772e-06,1.1866e-05,1.34285e-06,4.35698e-05,5.01458e-07,0
-3.03583e-05,2.35769e-05,4.25165e-07,-1.71436e-05,8.91442e-06,3.011e-06,4.37326e-05,1.20901e-06,0
-3.13283e-05,2.19472e-05,-4.86602e-07,-3.45017e-05,6.80638e-06,4.49342e-06,3.90359e-05,2.43005e-06,0
-3.119e-05,2.19438e-05,-1.3558e-06,-3.68457e-05,4.8561e-06,4.10067e-06,2.52924e-05,2.92559e-06,0
-3.00747e-05,2.75213e-05,-2.35199e-06,-2.82801e-05,3.29741e-06,3.00838e-06,9.69841e-06,2.52734e-06,0
-2.90845e-05,4.05931e-05,-3.45867e-06,-1.83688e-05,4.0456e-06,2.09317e-06,4.56562e-06,2.76771e-06,0
-2.89323e-05,5.21139e-05,-3.98981e-06,-1.4908e-05,6.76861e-06,8.30606e-07,1.04032e-05,5.14191e-06,0
-2.96424e-05,5.33673e-05,-5.51046e-06,-1.75506e-05,1.08775e-05,2.3278e-07,1.9993e-05,7.52651e-06,0
-2.9948e-05,4.83673e-05,-7.13441e-06,-2.09115e-05,1.57086e-05,4.03486e-07,2.86089e-05,7.68264e-06,0
-3.02689e-05,4.2801e-05,-7.43417e-06,-2.49118e-05,1.79313e-05,2.87523e-07,3.32525e-05,7.00412e-06,0
-3.07413e-05,3.56043e-05,-8.4621e-06,-3.13198e-05,1.79794e-05,-4.75093e-07,3.59928e-05,3.78016e-06,0
-3.00422e-05,2.65149e-05,-9.43644e-06,-3.81905e-05,1.67635e-05,-5.27481e-07,3.91272e-05,-1.36743e-06,0
-2.87596e-05,2.06854e-05,-9.37577e-06,-3.75588e-05,1.58698e-05,2.75643e-07,4.01092e-05,-3.99061e-06,0
-2.63889e-05,1.68814e-05,-9.39185e-06,-2.17533e-05,1.55568e-05,1.58355e-06,3.81171e-05,-3.47505e-06,0
-2.37941e-05,1.16765e-05,-8.03155e-06,3.70393e-06,1.48914e-05,2.14506e-06,3.36934e-05,-1.43908e-06,0
-2.43035e-05,3.90561e-06,-4.69416e-06,2.70693e-05,1.55766e-05,2.16151e-06,2.68424e-05,-2.56683e-07,0
-2.61664e-05,-5.63045e-06,-3.36339e-06,4.09662e-05,1.61114e-05,9.23751e-07,2.01516e-05,-7.47647e-07,0
-2.73111e-05,-1.02619e-05,-3.61609e-06,4.51071e-05,1.54909e-05,-1.81809e-06,1.71399e-05,-2.55293e-06,0
-2.75514e-05,-5.70955e-06,-4.15886e-06,4.68043e-05,1.3116e-05,-4.25988e-06,1.6062e-05,-3.84837e-06,0
-2.73069e-05,3.24376e-06,-3.57554e-06,5.14298e-05,1.11023e-05,-6.91125e-06,1.40731e-05,-3.32409e-06,0
-2.79135e-05,8.52403e-06,-2.58752e-06,5.43604e-05,9.1357e-06,-9.83505e-06,1.08314e-05,-2.61607e-06,0
-2.88518e-05,9.5446e-06,-3.56486e-06,4.93995e-05,7.05869e-06,-1.22439e-05,7.51179e-06,-1.09642e-06,0
-2.98387e-05,9.4358e-06,-6.61557e-06,3.85327e-05,7.5952e-06,-1.37231e-05,7.01105e-06,8.45259e-07,0
-2.98108e-05,8.00921e-06,-1.18953e-05,2.67894e-05,9.67e-06,-1.43316e-05,8.06229e-06,1.54865e-06,0
-2.8396e-05,4.12575e-06,-1.72403e-05,1.71785e-05,1.20786e-05,-1.39135e-05,7.17432e-06,1.4663e-06,0
-2.69032e-05,1.18745e-07,-2.06483e-05,7.12235e-06,1.43745e-05,-1.30596e-05,4.34102e-06,2.77033e-06,0
-2.63738e-05,6.84669e-07,-2.0968e-05,-6.12796e-06,1.56382e-05,-1.31302e-05,3.01793e-06,4.25609e-06,0
-2.75635e-05,5.57997e-06,-2.04718e-05,-1.95914e-05,1.38076e-05,-1.38798e-05,3.89329e-06,2.46432e-06,0
-2.93318e-05,1.1879e-05,-2.06678e-05,-2.8523e-05,9.79539e-06,-1.48304e-05,5.51431e-06,-1.44232e-06,0
-3.00159e-05,1.8699e-05,-2.03615e-05,-3.43015e-05,6.97621e-06,-1.55723e-05,7.25003e-06,-3.34261e-06,0
-2.89035e-05,2.55107e-05,-1.74466e-05,-3.96186e-05,7.72264e-06,-1.54993e-05,9.16936e-06,-2.10191e-06,0
-2.77694e-05,2.92835e-05,-1.30349e-05,-4.31037e-05,1.14278e-05,-1.47674e-05,1.05682e-05,-1.94923e-07,0
-2.81066e-05,2.90181e-05,-1.03188e-05,-4.42471e-05,1.38175e-05,-1.38861e-05,1.09203e-05,-1.40486e-06,0
-2.89102e-05,2.62659e-05,-1.0188e-05,-4.69945e-05,1.14911e-05,-1.39945e-05,9.77428e-06,-4.96533e-06,0
-2.96428e-05,2.15508e-05,-1.05073e-05,-4.8109e-05,7.90962e-06,-1.51998e-05,7.89031e-06,-4.71501e-06,0
-2.97341e-05,1.33536e-05,-1.09416e-05,-4.03318e-05,7.4526e-06,-1.56064e-05,7.49433e-06,-1.16186e-06,0
-2.92419e-05,3.64319e-06,-1.11915e-05,-2.87622e-05,1.01577e-05,-1.50159e-05,8.48794e-06,9.06138e-07,0
-2.82199e-05,2.16493e-08,-9.48174e-06,-1.91783e-05,1.39199e-05,-1.2554e-05,8.21596e-06,2.47659e-07,0
-2.84061e-05,3.44505e-06,-7.84804e-06,-1.00834e-05,1.58616e-05,-8.81353e-06,7.00171e-06,-6.95162e-07,0
-2.94174e-05,6.9277e-06,-7.29079e-06,1.5047e-06,1.74746e-05,-6.66671e-06,7.33917e-06,-1.03579e-06,0
-2.91755e-05,7.60178e-06,-8.41365e-06,1.127e-05,1.91686e-05,-7.51073e-06,9.12792e-06,-1.31441e-07,0
-2.99382e-05,8.21958e-06,-1.14226e-05,1.31021e-05,1.8806e-05,-8.88812e-06,1.16847e-05,2.38432e-06,0
-3.17424e-05,9.33158e-06,-1.22117e-05,8.85335e-06,1.72445e-05,-6.89554e-06,1.21433e-05,4.27472e-06,0
-3.26173e-05,9.27475e-06,-8.55196e-06,1.99514e-07,1.41518e-05,-5.12705e-06,9.86492e-06,3.44223e-06,0
