ch1,ch2,ch3,ch4,ch5,ch6,ch7,ch8,class
-5.55956e-05,2.78099e-05,-1.98943e-06,7.94842e-06,4.09564e-06,-1.17107e-05,-0.00012137,2.08892e-06,0
-5.6763e-05,2.8423e-05,-6.18601e-06,1.31381e-05,6.35605e-06,-1.976e-05,-6.26087e-05,1.79051e-06,0
-4.86128e-05,2.54253e-05,-9.53197e-06,5.08969e-05,1.19981e-05,-2.71221e-05,6.88609e-08,2.33166e-06,0
-3.47597e-05,2.51295e-05,-7.48235e-06,8.32571e-05,1.90667e-05,-3.06079e-05,4.39482e-05,2.97453e-06,0
-2.25838e-05,2.83498e-05,-4.8773e-06,8.2559e-05,2.24378e-05,-2.86214e-05,6.21297e-05,3.16899e-06,0
-1.87895e-05,3.05877e-05,-4.79759e-06,5.45572e-05,2.31498e-05,-2.15497e-05,7.20428e-05,1.80463e-06,0
-2.62093e-05,3.06292e-05,-4.99446e-06,1.91754e-05,2.43954e-05,-1.2362e-05,8.97822e-05,-1.01512e-06,0
-4.43791e-05,3.06613e-05,-4.01782e-06,-1.80512e-05,2.54945e-05,-5.99882e-06,0.000105167,-2.92492e-06,0
-6.65819e-05,3.12025e-05,-2.8494e-06,-6.37603e-05,2.20015e-05,-3.0279e-06,0.000144359,-2.19891e-06,0
-8.36345e-05,3.047e-05,-4.96689e-06,-0.000126949,1.01919e-05,-3.47242e-06,0.00022667,4.58646e-07,0
-9.04493e-05,2.93501e-05,-1.05377e-05,-0.000176421,-4.52528e-06,-8.79339e-06,0.000264594,3.11158e-06,0
-8.61959e-05,2.99341e-05,-1.4364e-05,-0.000159959,-1.27011e-05,-1.89079e-05,0.0001795,4.52606e-06,0
-6.16077e-05,3.20674e-05,-1.49786e-05,-8.71718e-05,-1.39459e-05,-2.27649e-05,4.27231e-05,4.32422e-06,0
-1.71861e-05,3.53342e-05,-1.52048e-05,-3.38102e-06,-1.25812e-05,4.91246e-06,-2.28324e-05,3.49889e-06,0
1.11425e-05,3.82707e-05,-1.47825e-05,7.03599e-05,-1.18793e-05,5.43136e-05,-3.11314e-05,4.06669e-06,0
-1.72606e-06,3.73941e-05,-1.36714e-05,0.000111384,-1.16855e-05,6.55499e-05,-8.19611e-05,4.46479e-06,0
-2.22407e-05,3.34398e-05,-1.1543e-05,8.2692e-05,-1.06245e-05,2.938e-05,-0.000165383,3.36486e-06,0
-1.71953e-05,2.90674e-05,-7.44569e-06,4.92909e-05,-8.49529e-06,-6.93115e-06,-0.00021806,3.51978e-06,0
-3.23946e-06,2.67807e-05,-2.21996e-06,0.000106792,-2.20679e-06,-2.27449e-05,-0.000236668,3.99031e-06,0
-4.07149e-07,2.59156e-05,1.15269e-06,0.00020215,9.85862e-06,-2.67406e-05,-0.000219346,4.4716e-06,0
-4.0625e-06,2.51396e-05,-9.25928e-07,0.000231215,1.58263e-05,-2.99642e-05,-0.000178144,4.32134e-06,0
-3.34736e-06,2.77266e-05,-4.82136e-06,0.000155901,8.96817e-06,-3.11263e-05,-0.000166894,3.14293e-06,0
-4.35446e-06,3.08871e-05,-7.34261e-06,1.66507e-05,-2.19873e-07,-2.89953e-05,-0.00020344,1.49801e-06,0
-1.56052e-05,3.1742e-05,-7.46267e-06,-0.000103755,-6.78539e-06,-2.56343e-05,-0.000219954,7.87546e-07,0
-3.34005e-05,2.996e-05,-4.81554e-06,-0.000164399,-1.00822e-05,-2.55599e-05,-0.000184727,1.75286e-06,0
-4.61748e-05,2.66387e-05,-2.59613e-06,-0.000169081,-9.02892e-06,-2.64034e-05,-0.000116842,3.07344e-06,0
-4.77199e-05,2.48742e-05,-4.60729e-06,-0.000126557,-5.81092e-06,-2.42356e-05,-2.52373e-05,3.87934e-06,0
-3.96937e-05,2.97329e-05,-8.84014e-06,-5.19201e-05,-3.37696e-06,-1.72915e-05,5.48893e-05,4.13392e-06,0
-2.94235e-05,3.96565e-05,-1.09233e-05,-2.18092e-05,2.5356e-07,-7.14025e-06,8.01089e-05,5.12006e-06,0
-2.45423e-05,4.66132e-05,-1.18393e-05,-8.28629e-05,5.82086e-06,-1.75308e-06,5.22747e-05,6.0726e-06,0
-2.59819e-05,4.60127e-05,-1.28841e-05,-0.000156949,1.06598e-05,-4.06849e-06,1.90727e-05,5.17046e-06,0
-2.95106e-05,3.84898e-05,-1.42985e-05,-0.000137226,1.56244e-05,-8.84923e-06,1.59055e-05,3.06406e-06,0
-2.92915e-05,2.86146e-05,-1.33652e-05,-3.54236e-05,2.26867e-05,-7.99458e-06,4.1644e-05,2.08698e-06,0
-2.61189e-05,2.09138e-05,-8.51973e-06,3.2713e-05,2.64488e-05,-1.27436e-06,7.2429e-05,5.68462e-07,0
-2.32789e-05,1.79053e-05,-2.7835e-06,-6.66956e-06,1.96356e-05,6.11642e-06,8.75913e-05,-1.06537e-06,0
-2.34763e-05,1.5413e-05,-1.84015e-06,-0.000110483,5.99029e-06,7.01063e-06,7.82793e-05,-3.34977e-07,0
-2.72181e-05,9.40753e-06,-7.09333e-06,-0.000179297,-7.82754e-06,-1.83749e-07,6.98969e-05,1.2192e-06,0
-3.06062e-05,3.8191e-06,-1.1988e-05,-0.000174648,-1.60709e-05,-6.97963e-06,0.0001077,9.68772e-07,0
-3.01511e-05,3.68974e-06,-1.15403e-05,-0.000135646,-1.88025e-05,-4.53072e-06,0.000194411,-2.45185e-07,0
-3.00107e-05,6.2671e-06,-8.81452e-06,-0.000102835,-1.94471e-05,-1.32576e-06,0.000269639,-1.67541e-06,0
-3.29035e-05,7.81097e-06,-1.02905e-05,-6.80672e-05,-1.7859e-05,-4.03813e-06,0.000296302,-2.28386e-06,0
-3.68025e-05,1.04115e-05,-1.468e-05,-7.98799e-06,-1.08674e-05,-9.15866e-06,0.000302269,-1.28034e-06,0
-3.89199e-05,1.65734e-05,-1.35805e-05,5.68065e-05,2.65281e-06,-1.00766e-05,0.000246687,-4.31712e-07,0
-4.06967e-05,2.12631e-05,-9.67948e-06,8.02628e-05,1.48236e-05,-6.12614e-06,8.38713e-05,3.43917e-07,0
-4.21772e-05,2.07027e-05,-7.68656e-06,7.37057e-05,2.43482e-05,-3.65905e-06,-0.000129673,1.29883e-06,0
-4.16781e-05,1.66471e-05,-6.47767e-06,6.3353e-05,3.64989e-05,-5.1659e-06,-0.000306268,6.39799e-07,0
-4.00753e-05,1.04568e-05,-7.42287e-06,3.2402e-05,4.26415e-05,-1.03877e-05,-0.000388978,-3.47341e-07,0
-3.73877e-05,5.2848e-06,-8.94373e-06,-2.99071e-05,3.13722e-05,-1.56182e-05,-0.000369369,-2.3879e-07,0
-3.52031e-05,3.14176e-06,-9.94069e-06,-7.06785e-05,1.19765e-05,-1.78096e-05,-0.000261756,-7.11081e-07,0
-3.5022e-05,3.83823e-06,-9.10934e-06,-4.59168e-05,-5.96013e-07,-1.5331e-05,-0.000123969,-5.07777e-08,0
-3.56729e-05,5.96614e-06,-5.82796e-06,2.65893e-05,-6.85373e-06,-1.20517e-05,-1.70001e-05,1.65491e-06,0
-3.50146e-05,9.5846e-06,-3.44725e-06,9.38833e-05,-1.34941e-05,-9.56138e-06,4.55643e-05,3.40212e-06,0
-3.29582e-05,1.51676e-05,-5.39504e-06,0.000120859,-1.70705e-05,-8.55706e-06,7.62054e-05,4.87347e-06,0
-3.028e-05,1.9918e-05,-1.09669e-05,0.000115924,-7.86861e-06,-8.02996e-06,9.11322e-05,4.61677e-06,0
-2.85038e-05,2.05133e-05,-1.54261e-05,9.47488e-05,1.50589e-05,-6.67546e-06,9.61178e-05,2.12239e-06,0
-2.86076e-05,1.76235e-05,-1.50382e-05,7.52381e-05,3.9211e-05,-5.13696e-06,8.46377e-05,-6.00143e-07,0
-3.14481e-05,1.45835e-05,-1.09872e-05,5.88172e-05,4.88068e-05,-4.63688e-06,5.4161e-05,-2.53956e-06,0
-3.45865e-05,1.253e-05,-7.97992e-06,2.71668e-05,4.09127e-05,-4.48294e-06,2.89033e-05,-4.20941e-06,0
-3.54509e-05,1.47427e-05,-8.62318e-06,-2.80342e-05,2.56818e-05,-1.24621e-06,3.02234e-05,-4.95702e-06,0
-3.34249e-05,2.70658e-05,-1.03789e-05,-7.92712e-05,1.79993e-05,2.78666e-06,5.08009e-05,-4.90413e-06,0
-3.01818e-05,4.64765e-05,-1.01066e-05,-9.97663e-05,2.62831e-05,9.1158e-07,7.21325e-05,-5.0782e-06,0
-2.86132e-05,6.2098e-05,-9.903e-06,-8.12398e-05,4.28279e-05,-7.68958e-06,8.69078e-05,-5.88643e-06,0
-2.94414e-05,6.73547e-05,-1.32889e-05,-2.61888e-05,5.02424e-05,-1.73421e-05,9.266e-05,-6.163e-06,0
-3.62687e-05,6.09763e-05,-1.86205e-05,5.22075e-05,4.3331e-05,-3.0228e-05,9.07859e-05,-5.64994e-06,0
-5.41348e-05,4.73454e-05,-1.91331e-05,0.000127147,3.68168e-05,-4.43855e-05,8.58009e-05,-4.05594e-06,0
-7.67155e-05,3.20478e-05,-1.17554e-05,0.000171831,4.39104e-05,-4.9523e-05,7.78651e-05,-1.5477e-06,0
-9.08771e-05,1.48686e-05,-1.36535e-06,0.000171741,5.98347e-05,-4.82797e-05,7.22084e-05,4.23592e-07,0
-8.9153e-05,-3.64658e-06,4.05847e-06,0.000120637,6.62881e-05,-5.41768e-05,7.83695e-05,1.16358e-06,0
-7.00415e-05,-2.16889e-05,-8.57483e-08,4.98624e-05,5.1317e-05,-6.50017e-05,9.86028e-05,6.38598e-07,0
-4.04617e-05,-3.6146e-05,-6.62272e-06,2.55463e-05,3.27206e-05,-5.65787e-05,0.000123116,3.94846e-07,0
-1.09159e-05,-4.66522e-05,-8.73585e-06,5.60157e-05,3.02219e-05,-1.22475e-05,0.000148182,1.85438e-06,0
8.84425e-06,-5.55285e-05,-9.87473e-06,8.53754e-05,3.51896e-05,4.92849e-05,0.000175265,2.56758e-06,0
1.66416e-05,-5.95215e-05,-1.2827e-05,6.53661e-05,3.4152e-05,8.19258e-05,0.000173927,2.44101e-06,0
2.07969e-05,-5.07178e-05,-1.4781e-05,1.07078e-05,2.80674e-05,6.42042e-05,0.000122228,2.24388e-06,0
2.77462e-05,-2.71691e-05,-1.25145e-05,-2.68891e-05,2.2211e-05,3.04254e-05,4.56576e-05,1.8184e-06,0
3.12746e-05,6.38511e-08,-8.91067e-06,-3.92654e-05,1.9565e-05,1.51593e-05,-2.24877e-05,2.71111e-06,0
2.16066e-05,2.25901e-05,-6.99433e-06,-2.92749e-05,2.06628e-05,1.99428e-05,-7.41976e-05,3.52176e-06,0
7.81825e-06,3.8451e-05,-7.07616e-06,-9.69747e-06,1.99406e-05,3.40971e-05,-0.000109959,3.58837e-06,0
1.86766e-06,4.94531e-05,-7.00128e-06,1.80044e-07,1.49222e-05,3.83072e-05,-0.000119555,2.92981e-06,0
3.1186e-06,5.70332e-05,-3.39565e-06,-1.12575e-05,8.95629e-06,2.83423e-05,-9.91337e-05,2.39317e-06,0
4.18708e-06,5.82663e-05,2.0435e-06,-4.89534e-05,5.95318e-06,1.61684e-05,-6.0904e-05,2.5504e-06,0
-3.1285e-06,5.0157e-05,4.99274e-06,-9.30322e-05,4.06425e-06,4.44284e-06,-1.92399e-05,2.20872e-06,0
-1.85587e-05,3.08472e-05,3.24172e-06,-0.000111131,1.03351e-06,-8.27551e-06,2.01374e-05,1.47915e-06,0
-3.07954e-05,3.01928e-06,-3.12099e-06,-9.92713e-05,-2.29826e-06,-1.94698e-05,5.07743e-05,5.99954e-07,0
-2.76325e-05,-2.56633e-05,-1.00898e-05,-7.86591e-05,-4.60709e-06,-2.58044e-05,6.54183e-05,-3.69482e-07,0
-1.38335e-05,-4.52575e-05,-1.18759e-05,-5.97543e-05,-6.30489e-06,-3.12339e-05,6.11935e-05,-1.69423e-06,0
-3.9139e-06,-5.35457e-05,-1.05991e-05,-4.6843e-05,-9.92239e-06,-4.3217e-05,4.69251e-05,-1.76515e-06,0
-6.76728e-06,-5.5145e-05,-1.26276e-05,-4.55902e-05,-1.58719e-05,-5.69804e-05,3.12815e-05,4.87776e-07,0
-2.21639e-05,-5.25281e-05,-1.73179e-05,-5.73225e-05,-2.01882e-05,-5.91771e-05,1.63939e-05,2.87954e-06,0
-4.25743e-05,-4.75721e-05,-2.04933e-05,-6.77956e-05,-1.92925e-05,-4.71109e-05,2.96949e-06,2.35895e-06,0
-5.57797e-05,-4.11394e-05,-2.02629e-05,-5.91831e-05,-1.54451e-05,-2.23408e-05,-8.10772e-06,3.07963e-07,0
-5.79183e-05,-3.13486e-05,-1.74844e-05,-3.77067e-05,-1.00404e-05,1.29601e-06,-2.09235e-05,-1.25766e-06,0
-5.32091e-05,-1.95437e-05,-1.62523e-05,-2.89742e-05,-1.36006e-06,2.29786e-06,-4.48899e-05,-3.14894e-06,0
-5.29178e-05,-1.03712e-05,-1.71622e-05,-2.10004e-05,9.78964e-06,-1.32661e-05,-8.29775e-05,-4.21877e-06,0
-6.20687e-05,-4.7558e-06,-1.63508e-05,1.95008e-05,1.68659e-05,-2.59469e-05,-0.000112755,-3.13913e-06,0
-1.59647e-05,6.14005e-05,-1.83586e-05,1.1468e-05,4.15813e-05,3.51695e-05,3.94833e-05,-8.97194e-07,0
-2.00019e-05,3.83261e-05,-1.34253e-05,1.44107e-05,2.34376e-05,2.78505e-05,2.83863e-05,-1.58525e-06,0
-2.33687e-05,2.40397e-05,-7.81232e-06,2.98892e-05,1.52662e-05,-2.25284e-06,1.86616e-05,-3.15337e-06,0
-2.43776e-05,1.81423e-05,-3.99508e-06,4.50734e-05,1.57197e-05,-2.28735e-05,5.20585e-06,-2.68778e-06,0
-2.23579e-05,9.52779e-06,-3.0007e-06,4.37739e-05,2.15995e-05,-2.73313e-05,-1.14593e-05,-7.87302e-07,0
-2.29539e-05,-4.53427e-06,-5.42084e-06,2.64141e-05,2.58231e-05,-2.59146e-05,-1.66269e-05,-4.83106e-08,0
-2.56022e-05,-1.63931e-05,-9.57143e-06,7.1876e-06,2.4168e-05,-2.71385e-05,-9.541e-06,-1.08102e-06,0
-2.738e-05,-2.10936e-05,-1.1938e-05,-1.05191e-05,1.83064e-05,-2.85853e-05,3.31959e-06,-2.09687e-06,0
-2.90826e-05,-2.06375e-05,-1.25207e-05,-1.58868e-05,1.34375e-05,-2.69073e-05,1.74707e-05,-1.92817e-06,0
-3.00892e-05,-1.90095e-05,-1.34122e-05,5.16551e-07,8.70655e-06,-2.36573e-05,3.01091e-05,-1.51465e-06,0
-3.03047e-05,-1.60486e-05,-1.44126e-05,2.32766e-05,1.00259e-06,-2.21178e-05,3.34751e-05,-1.89864e-06,0
-3.0609e-05,-1.05807e-05,-1.47342e-05,3.14291e-05,-5.91346e-06,-2.37999e-05,2.72669e-05,-2.35618e-06,0
-3.18251e-05,-4.94934e-06,-1.53456e-05,2.03242e-05,-9.67173e-06,-2.66029e-05,2.25318e-05,-3.389e-07,0
-3.23701e-05,-1.87951e-06,-1.61834e-05,1.29109e-06,-1.44028e-05,-2.68515e-05,2.74625e-05,1.58246e-06,0
-3.15097e-05,-1.80055e-06,-1.64575e-05,-1.71601e-05,-2.49107e-05,-2.31882e-05,4.23635e-05,1.83911e-06,0
-3.07175e-05,-2.44462e-06,-1.47539e-05,-3.44872e-05,-3.3785e-05,-1.72158e-05,6.11112e-05,9.64527e-07,0
-2.93826e-05,-2.80311e-06,-1.21895e-05,-5.36606e-05,-2.79631e-05,-1.11188e-05,7.41753e-05,-1.73669e-07,0
-2.48751e-05,-2.0232e-07,-1.09198e-05,-7.23971e-05,-4.88101e-06,-7.37892e-06,7.41368e-05,-2.17005e-07,0
-1.78654e-05,8.17968e-06,-1.0334e-05,-8.76405e-05,2.10969e-05,-9.32911e-06,6.10537e-05,1.83385e-06,0
-1.53841e-05,2.15972e-05,-9.61912e-06,-9.60028e-05,3.15103e-05,-1.60083e-05,3.04534e-05,7.40794e-06,0
-1.9845e-05,3.54628e-05,-9.66339e-06,-9.3427e-05,2.38177e-05,-1.57871e-05,-1.38721e-05,1.73377e-05,0
-2.48873e-05,4.54212e-05,-1.04249e-05,-7.93186e-05,1.92401e-05,1.3142e-05,-4.85995e-05,2.51787e-05,0
-2.59018e-05,4.74394e-05,-1.14282e-05,-5.78898e-05,3.72039e-05,6.96242e-05,-5.34011e-05,2.62436e-05,0
-2.55893e-05,4.16273e-05,-1.21204e-05,-3.04058e-05,5.92007e-05,0.000102571,-3.16029e-05,2.43811e-05,0
-2.79651e-05,3.15989e-05,-1.14214e-05,-5.09479e-07,4.86224e-05,7.94969e-05,-5.35913e-06,1.61416e-05,0
-3.34734e-05,2.0067e-05,-1.16087e-05,1.84726e-05,1.1402e-05,2.70108e-05,9.17883e-07,-3.29933e-07,0
-3.79755e-05,8.71885e-06,-1.43866e-05,1.70167e-05,-1.99212e-05,-1.56657e-05,-2.2428e-05,-1.69025e-05,0
-3.47952e-05,-3.09099e-06,-1.68599e-05,-4.3816e-06,-2.65458e-05,-3.00517e-05,-7.82043e-05,-2.87156e-05,0
-2.20012e-05,-9.86388e-06,-1.86068e-05,-3.56326e-05,-1.53399e-05,-1.81323e-05,-0.000122144,-3.27479e-05,0
-1.45947e-05,-1.06726e-05,-1.9435e-05,-5.69707e-05,-6.29812e-06,-1.37511e-05,-0.000103042,-2.8649e-05,0
-2.50851e-05,-1.36999e-05,-1.60177e-05,-4.31706e-05,4.82758e-08,-4.14724e-05,-5.89911e-05,-2.26592e-05,0
-3.67476e-05,-1.95911e-05,-8.95944e-06,7.80157e-06,1.21229e-05,-6.85234e-05,-3.36199e-05,-1.55903e-05,0
-3.64222e-05,-2.33802e-05,-1.27208e-06,6.07693e-05,3.00726e-05,-6.10864e-05,7.32559e-07,-7.54767e-06,0
-3.05445e-05,-2.07793e-05,2.19187e-06,7.28338e-05,3.90284e-05,-4.33708e-05,6.47034e-05,4.54302e-07,0
-2.82421e-05,-1.55931e-05,-1.91875e-08,5.3127e-05,1.7525e-05,-5.57908e-05,0.000136136,6.78883e-06,0
-3.11138e-05,-1.06988e-05,-4.5594e-06,5.03501e-05,-3.44455e-05,-7.67088e-05,0.000190598,8.60623e-06,0
-3.25413e-05,-5.62362e-06,-8.31059e-06,6.74955e-05,-8.76073e-05,-6.74668e-05,0.000206752,7.43403e-06,0
-3.07561e-05,-3.33198e-06,-8.72057e-06,7.43189e-05,-9.59254e-05,-3.32712e-05,0.000184147,6.49371e-06,0
-3.21462e-05,-4.97021e-06,-7.35327e-06,5.59566e-05,-3.94546e-05,-4.2438e-06,0.000141962,7.64142e-06,0
-3.99738e-05,-7.69484e-06,-7.1313e-06,2.21378e-05,4.13399e-05,3.78647e-06,0.000103457,9.9363e-06,0
-5.07807e-05,-7.94927e-06,-8.15207e-06,-1.89249e-05,9.62151e-05,1.40743e-06,7.61708e-05,1.10668e-05,0
-5.95939e-05,-5.82403e-06,-9.47813e-06,-7.91618e-05,0.000111593,4.72337e-07,5.19495e-05,9.13374e-06,0
-6.18368e-05,-2.17351e-06,-9.35981e-06,-0.000158449,9.64417e-05,2.31709e-06,2.41982e-05,5.26355e-06,0
-5.44771e-05,9.55941e-07,-7.93969e-06,-0.000225379,6.37379e-05,3.37712e-06,-4.45699e-06,7.30947e-07,0
-3.96314e-05,3.86034e-06,-6.21248e-06,-0.000251848,3.13143e-05,3.24576e-06,-3.10563e-05,-3.08554e-06,0
-2.58552e-05,9.06895e-06,-4.3677e-06,-0.000238757,1.2351e-05,2.49515e-07,-5.42186e-05,-5.06313e-06,0
-1.9928e-05,1.73747e-05,-4.12182e-06,-0.000185085,7.3133e-07,-5.38561e-06,-6.30772e-05,-5.39062e-06,0
-2.10767e-05,2.71209e-05,-6.04091e-06,-8.42525e-05,-1.32467e-05,-9.0311e-06,-5.29985e-05,-4.30315e-06,0
-2.38927e-05,3.82017e-05,-6.97523e-06,4.62317e-05,-2.57094e-05,-7.20944e-06,-3.69607e-05,-2.86091e-06,0
-2.39503e-05,4.93439e-05,-6.03801e-06,0.00016125,-2.86126e-05,-3.46593e-06,-3.44533e-05,-2.57134e-06,0
-1.78311e-05,5.7356e-05,-4.5034e-06,0.000223838,-2.01928e-05,-3.19605e-06,-4.716e-05,-3.14264e-06,0
-3.15243e-06,6.27627e-05,-8.86292e-07,0.000228753,-2.11502e-06,-3.99543e-06,-6.01709e-05,-4.31666e-06,0
1.5779e-05,6.54523e-05,2.03503e-06,0.000221774,1.78485e-05,-4.07044e-06,-6.78461e-05,-5.58254e-06,0
2.17946e-05,6.01286e-05,2.74618e-06,0.000214422,3.35689e-05,-4.28766e-06,-9.35045e-05,-6.84312e-06,0
5.30078e-06,4.427e-05,4.71265e-06,0.000160511,4.6676e-05,-3.58733e-06,-0.000125466,-7.62687e-06,0
-1.84088e-05,2.51445e-05,7.66683e-06,8.67662e-05,4.87861e-05,-7.80612e-06,-0.0001018,-6.17945e-06,0
-3.62123e-05,1.00993e-05,8.76491e-06,4.51793e-05,3.61929e-05,-2.22785e-05,-1.2298e-05,-3.66539e-06,0
-4.69316e-05,-1.71909e-06,6.58801e-06,3.58633e-05,2.28594e-05,-3.85656e-05,8.71884e-05,-1.54554e-06,0
-4.61991e-05,-7.7965e-06,3.05138e-06,3.16932e-05,1.86938e-05,-4.55935e-05,0.000141989,-9.79673e-07,0
-3.03171e-05,-2.69186e-06,4.65293e-07,8.11289e-06,1.89613e-05,-4.16561e-05,0.000142546,-7.20346e-07,0
1.54264e-06,1.26359e-05,-3.54302e-07,-3.86423e-05,1.59858e-05,-3.20279e-05,0.000110863,3.22104e-07,0
3.72293e-05,4.06412e-05,-1.1957e-06,-7.1144e-05,1.32952e-05,-2.75051e-05,6.0991e-05,1.20117e-06,0
5.10845e-05,8.25796e-05,-4.19098e-06,-5.98609e-05,1.50104e-05,-3.52086e-05,2.1117e-06,1.15871e-06,0
3.35431e-05,0.000125789,-7.89278e-06,-3.91852e-05,1.70456e-05,-4.60666e-05,-5.09031e-05,-3.8516e-08,0
-2.78883e-06,0.000145679,-1.04986e-05,-4.32916e-05,1.63362e-05,-4.41162e-05,-7.95934e-05,-3.40291e-07,0
-4.19533e-05,0.000134632,-1.07508e-05,-6.61304e-05,1.45959e-05,-2.59714e-05,-7.28661e-05,7.57119e-07,0
-7.22432e-05,0.000110151,-8.71114e-06,-8.74074e-05,1.09349e-05,3.36399e-06,-3.86478e-05,1.65874e-06,0
-8.84411e-05,8.49873e-05,-5.82903e-06,-9.54596e-05,6.83142e-06,3.12967e-05,-8.38849e-07,1.7802e-06,0
-9.34438e-05,5.92332e-05,-4.44561e-06,-7.74202e-05,5.02874e-06,3.41698e-05,2.4839e-05,2.53121e-06,0
-9.71061e-05,2.92511e-05,-5.36914e-06,-3.5809e-05,6.37442e-06,1.19267e-05,3.65074e-05,4.1735e-06,0
-0.000109301,-4.87525e-06,-7.30249e-06,1.16891e-05,9.20543e-06,-1.08691e-05,3.66768e-05,4.76238e-06,0
-0.0001327,-4.05791e-05,-8.23631e-06,5.12462e-05,1.00329e-05,-2.21007e-05,3.22722e-05,4.64448e-06,0
-0.000160454,-7.18988e-05,-8.2393e-06,7.3652e-05,7.69811e-06,-3.18917e-05,2.09264e-05,4.47334e-06,0
-0.000178404,-9.21911e-05,-8.95376e-06,7.08371e-05,5.43594e-06,-3.70593e-05,-8.44713e-06,3.24371e-06,0
-0.000184187,-0.000101159,-8.90218e-06,4.58976e-05,8.74179e-06,-1.16585e-05,-4.2881e-05,1.82133e-06,0
-0.000190974,-0.000102525,-8.00023e-06,2.28247e-05,1.57575e-05,4.84883e-05,-4.97586e-05,1.65665e-06,0
-0.000190697,-9.69591e-05,-8.36957e-06,1.72183e-05,1.72711e-05,9.40499e-05,-1.75995e-05,2.54094e-06,0
-0.000148421,-8.13781e-05,-9.76013e-06,1.83914e-05,9.18977e-06,7.49333e-05,3.53968e-05,3.87436e-06,0
-5.26263e-05,-5.9602e-05,-1.11454e-05,1.07223e-05,-3.06674e-06,2.94471e-05,7.05425e-05,2.95473e-06,0
4.3205e-05,-3.97975e-05,-1.42114e-05,-1.42887e-05,-1.48426e-05,1.02285e-05,7.81404e-05,5.19898e-07,0
7.28038e-05,-2.61858e-05,-1.9969e-05,-4.67736e-05,-2.1441e-05,7.28074e-06,8.31815e-05,-7.05228e-07,0
5.02004e-05,-1.56123e-05,-2.42017e-05,-5.41755e-05,-2.45607e-05,5.52203e-06,9.96313e-05,-8.06973e-07,0
3.39908e-05,-5.72647e-06,-2.33959e-05,-4.2713e-05,-2.65505e-05,2.70664e-06,0.000131611,-1.22588e-06,0
3.49026e-05,-8.87446e-07,-1.94344e-05,-4.08446e-05,-2.69557e-05,1.40636e-06,0.000168698,-2.71308e-06,0
3.01069e-05,-7.34624e-07,-1.56301e-05,-4.51162e-05,-1.74811e-05,-2.15539e-06,0.000178987,-3.85008e-06,0
2.08094e-05,1.44423e-06,-1.16443e-05,-3.70639e-05,1.18749e-05,-1.04938e-05,0.000143421,-3.03542e-06,0
1.46945e-05,8.22839e-06,-7.62749e-06,-2.33824e-05,4.10225e-05,-2.38031e-05,5.86093e-05,-7.47868e-07,0
1.28918e-05,1.71558e-05,-4.73678e-06,-1.53178e-05,4.98063e-05,-3.88591e-05,-5.2235e-05,1.34565e-06,0
9.16482e-06,2.49537e-05,-3.01751e-06,-2.07197e-06,4.03889e-05,-4.07835e-05,-0.000135239,3.66062e-06,0
-9.29648e-07,2.92249e-05,-4.56175e-06,1.36182e-05,2.47417e-05,-3.20287e-05,-0.000158751,4.36823e-06,0
-1.26187e-05,3.01465e-05,-7.62203e-06,2.05427e-05,1.60055e-05,-3.11671e-05,-0.000156747,3.81446e-06,0
-1.91542e-05,2.95755e-05,-9.53825e-06,1.20507e-05,2.30919e-05,-3.58939e-05,-0.000178268,2.46337e-06,0
-1.78854e-05,2.96315e-05,-8.84633e-06,-9.88045e-06,4.46425e-05,-3.0796e-05,-0.000199664,9.29108e-07,0
-1.30555e-05,3.003e-05,-6.85272e-06,-3.40041e-05,6.1932e-05,-1.91566e-05,-0.000165669,-2.85181e-07,0
-7.77537e-06,3.04899e-05,-5.19834e-06,-4.38921e-05,5.90566e-05,-1.08268e-05,-7.66655e-05,-3.53318e-07,0
-6.00017e-06,3.20053e-05,-3.78897e-06,-3.65933e-05,4.12393e-05,-8.86257e-06,2.18197e-05,1.39292e-07,0
-8.06303e-06,3.5969e-05,-3.89654e-06,-2.80481e-05,2.49247e-05,-8.71776e-06,9.84541e-05,-7.70038e-07,0
-1.25132e-05,4.2063e-05,-6.6564e-06,-2.67193e-05,1.60153e-05,-8.50229e-06,0.000145737,-2.17138e-06,0
-1.55308e-05,4.73779e-05,-1.08301e-05,-2.22293e-05,1.01373e-05,-7.64811e-06,0.000167357,-2.51744e-06,0
-1.96053e-05,4.94043e-05,-1.17797e-05,-3.3522e-06,5.04539e-06,-6.7733e-06,0.000168534,-1.11934e-06,0
-3.06383e-05,4.72369e-05,-8.21725e-06,2.13757e-05,1.97719e-06,-7.74746e-06,0.000154553,-3.05492e-07,0
-5.15533e-05,4.36307e-05,-3.60002e-06,3.85082e-05,6.01412e-08,-9.78341e-06,0.000128899,-1.17421e-06,0
-7.32238e-05,4.17978e-05,-1.97702e-06,4.41918e-05,-5.00304e-07,-1.07238e-05,9.98274e-05,-3.39241e-06,0
-8.10318e-05,4.33345e-05,-4.07037e-06,4.46632e-05,-4.14167e-07,-9.94798e-06,8.45003e-05,-4.86348e-06,0
-6.84144e-05,4.80617e-05,-7.16174e-06,4.18845e-05,-2.83729e-06,-7.52458e-06,7.43332e-05,-5.68178e-06,0
-4.29995e-05,5.29363e-05,-8.173e-06,3.84201e-05,-5.32433e-06,-5.45544e-06,2.12329e-05,-6.69264e-06,0
-2.0013e-05,5.25365e-05,-7.57302e-06,4.04002e-05,-4.23272e-06,-6.73561e-06,-0.000119183,-8.17364e-06,0
-5.30455e-06,4.24218e-05,-6.49671e-06,4.22954e-05,-5.88837e-07,-9.51813e-06,-0.00029544,-9.01675e-06,0
7.62204e-06,2.68975e-05,-6.14351e-06,4.02224e-05,1.12586e-06,-9.92566e-06,-0.000374524,-7.86576e-06,0
2.51437e-05,1.96161e-05,-5.73919e-06,3.77508e-05,-2.37226e-06,-6.27997e-06,-0.000298293,-6.38922e-06,0
4.7712e-05,2.2639e-05,-5.40285e-06,2.96738e-05,-4.07555e-06,2.05359e-07,-0.000143584,-7.03306e-06,0
6.32685e-05,2.69072e-05,-5.88889e-06,1.62793e-05,1.18324e-05,3.39301e-06,-7.6373e-06,-7.31629e-06,0
5.70127e-05,2.90562e-05,-5.59774e-06,3.85749e-06,4.00838e-05,-3.63084e-06,7.20218e-05,-5.1487e-06,0
4.03973e-05,2.64692e-05,-4.64562e-06,-6.05541e-06,5.3403e-05,-1.3723e-05,8.91733e-05,-2.26955e-06,0
2.71817e-05,1.85955e-05,-2.81082e-06,-1.51917e-05,4.58331e-05,-1.62199e-05,6.66056e-05,-6.66133e-07,0
1.57625e-05,4.97194e-06,-2.8219e-06,-2.90338e-05,2.95852e-05,-1.17819e-05,4.1684e-05,-1.7567e-06,0
1.04788e-06,-1.03997e-05,-5.89306e-06,-3.45733e-05,1.20712e-05,-7.94232e-06,3.93639e-05,-4.45151e-06,0
-1.59228e-05,-2.12688e-05,-1.02059e-05,-7.97539e-06,-6.22458e-07,-9.97708e-06,4.99013e-05,-4.58863e-06,0
-3.08525e-05,-3.06538e-05,-1.34711e-05,4.78645e-05,-4.1898e-06,-1.5112e-05,6.09202e-05,-2.19502e-06,0
-4.22229e-05,-4.21431e-05,-1.53013e-05,9.69564e-05,7.22583e-07,-1.70946e-05,6.89451e-05,-7.16952e-08,0
-5.01274e-05,-5.2296e-05,-1.6173e-05,0.000113067,9.89858e-06,-1.62912e-05,7.00061e-05,1.67664e-06,0
-5.38942e-05,-5.44717e-05,-1.43545e-05,9.72223e-05,2.08934e-05,-1.37951e-05,6.09623e-05,2.50911e-06,0
-5.58e-05,-4.42295e-05,-1.08733e-05,6.73983e-05,3.17173e-05,-6.90203e-06,4.28752e-05,2.9596e-06,0
-5.70707e-05,-2.14232e-05,-8.35388e-06,2.99558e-05,3.87777e-05,-2.96872e-06,2.67284e-05,2.67943e-06,0
-5.50515e-05,9.7848e-06,-8.65905e-06,-2.7201e-05,3.70691e-05,-2.50475e-05,1.75832e-05,1.79899e-06,0
-4.90168e-05,3.87073e-05,-1.0336e-05,-9.75352e-05,2.73224e-05,-7.21687e-05,1.7092e-05,4.50603e-07,0
-4.05993e-05,5.14191e-05,-1.06329e-05,-0.000153171,1.68054e-05,-9.75813e-05,2.01814e-05,1.96508e-08,0
-3.14115e-05,4.73479e-05,-1.01572e-05,-0.000187483,1.1286e-05,-6.23467e-05,2.67699e-05,1.64544e-06,0
-2.52326e-05,4.11442e-05,-1.15955e-05,-0.000207133,9.46651e-06,3.03201e-07,3.63846e-05,3.76788e-06,0
-2.5922e-05,4.17914e-05,-1.38164e-05,-0.000187887,7.55233e-06,2.56955e-05,4.57035e-05,4.00208e-06,0
-3.16867e-05,4.38582e-05,-1.47399e-05,-0.000127953,6.59077e-06,7.96376e-06,4.29308e-05,4.08864e-06,0
-3.88134e-05,4.02484e-05,-1.54792e-05,-7.63699e-05,7.35196e-06,-1.12514e-05,2.84145e-05,4.06422e-06,0
-4.33503e-05,3.34495e-05,-1.54455e-05,-6.16898e-05,9.82616e-06,-7.49737e-06,1.67989e-05,2.34354e-06,0
-4.4576e-05,2.90683e-05,-1.43268e-05,-6.17557e-05,1.29547e-05,1.99902e-05,2.01127e-05,6.0714e-07,0
-4.54457e-05,2.52946e-05,-1.3768e-05,-4.87045e-05,1.58875e-05,5.15982e-05,3.30043e-05,1.75232e-06,0
-4.93753e-05,1.70907e-05,-1.49933e-05,-1.55471e-05,2.23309e-05,5.17517e-05,3.47e-05,3.34772e-06,0
-5.54064e-05,6.83492e-06,-1.83911e-05,1.92342e-05,3.59857e-05,2.31641e-05,9.63094e-06,3.85639e-06,0
-6.00833e-05,1.22777e-06,-1.98055e-05,3.6568e-05,4.84549e-05,-1.11636e-06,-4.5787e-05,3.66492e-06,0
-5.86676e-05,3.14951e-07,-1.72692e-05,3.42324e-05,4.73642e-05,-8.90115e-06,-0.000127688,1.80058e-06,0
-5.00629e-05,2.96734e-06,-1.54917e-05,1.59855e-05,3.4823e-05,-9.04582e-06,-0.000178858,2.19451e-06,0
-4.12316e-05,5.32698e-06,-1.6409e-05,-4.04034e-06,2.00302e-05,-9.9895e-06,-0.000127041,3.17336e-06,0
-3.56921e-05,3.64307e-06,-1.70817e-05,-1.9449e-05,1.19798e-05,-1.10522e-05,5.67244e-06,3.78751e-06,0
-3.23825e-05,-1.41828e-06,-1.57394e-05,-2.79527e-05,1.134e-05,-1.08939e-05,0.000135763,4.67329e-06,0
-3.14183e-05,-6.4413e-06,-1.36242e-05,-2.77251e-05,1.37895e-05,-1.06697e-05,0.000205834,6.42071e-06,0
-3.18854e-05,-7.4308e-06,-1.12235e-05,-2.3512e-05,1.89019e-05,-9.25872e-06,0.000217961,7.83245e-06,0
-3.28987e-05,-3.82678e-06,-8.4949e-06,-1.43168e-05,2.65753e-05,-7.74907e-06,0.000198107,8.19196e-06,0
-3.53295e-05,4.9103e-07,-6.25491e-06,-4.3822e-08,3.42872e-05,-8.60499e-06,0.000167863,7.86106e-06,0
-3.88298e-05,-7.9757e-07,-7.78045e-06,7.54422e-06,3.49601e-05,-1.28988e-05,0.000134811,6.49301e-06,0
-4.22494e-05,-6.35848e-06,-1.05116e-05,7.37373e-06,2.84791e-05,-1.90418e-05,0.000110277,5.4539e-06,0
-4.41854e-05,-9.81421e-06,-9.79011e-06,1.38245e-05,2.19255e-05,-2.43255e-05,0.000104711,5.08478e-06,0
-4.52254e-05,-7.63254e-06,-7.40254e-06,2.81395e-05,1.84331e-05,-2.76825e-05,0.000110856,4.54437e-06,0
-4.45735e-05,-1.05288e-06,-5.66198e-06,4.16426e-05,1.76799e-05,-2.72956e-05,0.000102754,2.35981e-06,0
-3.85261e-05,7.70249e-06,-4.81959e-06,5.42104e-05,1.77598e-05,-1.86917e-05,6.56747e-05,-7.8639e-07,0
-2.69698e-05,1.52373e-05,-5.41796e-06,6.75999e-05,1.1417e-05,-2.34208e-06,1.38388e-05,-3.22958e-06,0
-1.65494e-05,1.81075e-05,-8.55209e-06,6.78465e-05,-6.6059e-07,9.51197e-06,-3.08583e-05,-2.81146e-06,0
-1.74093e-05,1.53382e-05,-1.18702e-05,5.13714e-05,-6.72304e-06,6.3053e-06,-5.97734e-05,-9.38846e-09,0
-2.93281e-05,8.14947e-06,-1.37527e-05,4.05011e-05,-8.31317e-08,-5.94509e-06,-7.71328e-05,3.02557e-06,0
-3.89334e-05,-1.66485e-06,-1.44014e-05,4.17824e-05,1.33048e-05,-1.41974e-05,-8.28907e-05,3.73793e-06,0
-3.79495e-05,-9.20058e-06,-1.17316e-05,3.6447e-05,1.74864e-05,-1.73025e-05,-7.21002e-05,2.76987e-06,0
-2.99647e-05,-9.57868e-06,-6.85478e-06,1.25798e-05,9.11524e-06,-1.66826e-05,-4.7919e-05,1.45691e-06,0
-2.30187e-05,-3.56941e-06,-4.50535e-06,-3.72762e-05,3.46436e-06,-1.26847e-05,-2.61837e-05,1.15251e-06,0
-2.08806e-05,2.93186e-06,-5.44319e-06,-0.0001039,7.73219e-06,-9.97023e-06,-1.70511e-05,2.08945e-06,0
-1.92583e-05,9.57705e-06,-6.326e-06,-0.000152938,1.89295e-05,-8.61834e-06,-1.66007e-05,3.62081e-06,0
-1.82044e-05,1.69016e-05,-4.80772e-06,-0.000144413,2.8961e-05,-8.08082e-06,-1.8209e-05,4.84515e-06,0
-1.69998e-05,2.04878e-05,-3.60607e-06,-8.08878e-05,3.09983e-05,-9.10072e-06,-2.0287e-05,4.08964e-06,0
-1.22593e-05,2.23399e-05,-3.29457e-06,-2.45461e-05,2.63715e-05,-1.06059e-05,-1.89222e-05,1.5641e-06,0
-7.45347e-06,2.35554e-05,-3.48674e-06,-1.09286e-05,1.70387e-05,-1.15966e-05,-1.25559e-05,6.38908e-09,0
-8.65449e-06,2.51045e-05,-3.45264e-06,-1.0223e-05,9.64825e-06,-1.10607e-05,-1.82316e-06,1.11583e-06,0
-1.72206e-05,2.88956e-05,-2.85706e-06,5.50486e-06,4.10203e-06,-1.05822e-05,7.92204e-06,2.40642e-06,0
-2.60445e-05,3.33305e-05,-3.93443e-06,1.83635e-05,-3.38336e-06,-7.04647e-06,1.47996e-05,2.71066e-06,0
-3.0471e-05,3.48162e-05,-6.41119e-06,9.22438e-06,-1.58796e-05,1.82794e-07,3.18044e-05,2.74364e-06,0
-3.11221e-05,3.3587e-05,-1.03875e-05,-1.78272e-05,-3.38212e-05,3.67588e-06,7.04691e-05,2.99776e-06,0
-3.16272e-05,3.22832e-05,-1.49184e-05,-5.11605e-05,-4.7933e-05,1.45528e-06,0.000119575,2.63023e-06,0
-3.47302e-05,3.08231e-05,-1.83007e-05,-9.022e-05,-4.50299e-05,1.7924e-07,0.000148927,1.89216e-06,0
-3.9754e-05,2.71959e-05,-1.87853e-05,-0.00012591,-2.2815e-05,3.42101e-06,0.000131929,1.63671e-07,0
-4.49596e-05,1.94196e-05,-1.73917e-05,-0.000141295,1.99594e-06,5.02672e-06,7.01272e-05,-1.28324e-06,0
-4.80678e-05,6.42143e-06,-1.65695e-05,-0.00013411,1.10614e-05,-2.64519e-06,-5.70156e-06,-1.46979e-06,0
-4.81405e-05,-9.5081e-06,-1.57075e-05,-0.0001063,2.78668e-07,-2.26689e-05,-6.56572e-05,-1.57032e-06,0
-4.51566e-05,-2.26843e-05,-1.29074e-05,-4.74618e-05,-1.16542e-05,-4.47613e-05,-9.97173e-05,-2.27749e-06,0
-3.95636e-05,-2.92462e-05,-8.52056e-06,3.34163e-05,5.44666e-07,-4.72569e-05,-0.000106355,-2.57551e-06,0
-3.28159e-05,-2.86003e-05,-5.24153e-06,0.000103599,3.302e-05,-3.0398e-05,-7.94512e-05,-1.48926e-06,0
-2.80659e-05,-2.40519e-05,-3.6017e-06,0.000156536,4.86201e-05,-2.30656e-05,-2.51247e-05,8.6432e-07,0
-2.65174e-05,-1.91783e-05,-1.97333e-06,0.000196473,3.43875e-05,-2.97775e-05,2.64043e-05,3.50998e-06,0
-2.68156e-05,-1.31692e-05,-5.51474e-07,0.000217143,1.6129e-05,-2.20187e-05,5.41327e-05,4.36905e-06,0
-2.62704e-05,-4.9851e-06,-8.18143e-07,0.000206507,9.53569e-06,7.37866e-06,6.01839e-05,3.71798e-06,0
-2.48506e-05,2.24369e-06,-3.02006e-06,0.000163862,5.18567e-06,3.19762e-05,4.50714e-05,2.13786e-06,0
-2.43492e-05,7.93589e-06,-6.18141e-06,0.000109469,-6.38533e-06,3.17865e-05,9.86104e-06,9.26871e-07,0
-2.43501e-05,1.43375e-05,-7.03177e-06,6.67173e-05,-1.41863e-05,1.6048e-05,-3.58171e-05,7.4832e-07,0
-2.46259e-05,2.10709e-05,-3.19627e-06,4.26755e-05,-9.28606e-06,5.04603e-08,-7.10954e-05,6.12954e-07,0
-2.48494e-05,2.67745e-05,1.30659e-06,2.93893e-05,9.69868e-07,-1.42432e-05,-8.52876e-05,-1.63142e-06,0
-2.41777e-05,2.90095e-05,2.47152e-06,8.88674e-06,7.0664e-06,-1.9879e-05,-8.35368e-05,-4.16684e-06,0
-2.26272e-05,2.73224e-05,2.51293e-06,-1.58027e-05,1.11237e-05,-1.43665e-05,-7.27772e-05,-4.94342e-06,0
-2.07446e-05,2.62988e-05,1.79772e-06,-2.99351e-05,1.59509e-05,-6.1047e-06,-5.47584e-05,-3.35988e-06,0
-1.79696e-05,2.68944e-05,-7.08932e-07,-2.76174e-05,1.48283e-05,-3.81387e-07,-3.37646e-05,-1.4726e-06,0
-1.40102e-05,2.59348e-05,-4.60374e-06,-1.51139e-05,7.80005e-06,3.12625e-07,-2.41452e-05,-1.87425e-06,0
-1.01022e-05,2.42084e-05,-8.01491e-06,-8.3854e-06,4.7285e-06,-1.16954e-06,-3.36505e-05,-1.69166e-06,0
-9.17903e-06,2.42792e-05,-9.74881e-06,-1.16278e-05,1.34564e-05,-4.97747e-06,-5.73582e-05,-3.56109e-07,0
-1.44165e-05,2.29715e-05,-1.00018e-05,-1.65349e-05,2.46187e-05,-1.28012e-05,-6.02539e-05,1.66211e-06,0
-2.41992e-05,2.04124e-05,-9.21317e-06,-1.34324e-05,2.8052e-05,-2.12695e-05,-1.90725e-05,3.1195e-06,0
-3.52448e-05,1.81056e-05,-9.605e-06,-7.27023e-06,2.43773e-05,-2.70686e-05,2.89792e-05,3.08323e-06,0
-5.02521e-05,1.80075e-05,-1.10664e-05,-1.18872e-05,1.89125e-05,-3.42941e-05,3.75631e-05,2.67936e-06,0
-6.7809e-05,2.25934e-05,-1.18487e-05,-2.79233e-05,1.37894e-05,-4.23409e-05,1.59645e-05,2.91198e-06,0
-7.65794e-05,2.8676e-05,-1.01156e-05,-4.22937e-05,6.92302e-06,-4.26833e-05,-5.21998e-06,2.62933e-06,0
-7.18426e-05,3.39112e-05,-6.42454e-06,-4.37483e-05,1.57194e-07,-3.44416e-05,-3.21207e-05,1.45778e-06,0
-6.05353e-05,3.9002e-05,-3.77823e-06,-2.33587e-05,-3.7006e-06,-2.46005e-05,-7.5683e-05,7.40165e-07,0
-5.05609e-05,4.47835e-05,-3.62012e-06,1.06729e-05,1.38405e-06,-1.41268e-05,-0.000108022,4.92442e-08,0
-4.36146e-05,4.88542e-05,-4.32606e-06,3.28613e-05,1.50162e-05,7.08903e-07,-9.20814e-05,-7.63191e-07,0
-3.25469e-05,5.10249e-05,-3.19225e-06,4.13083e-05,2.59155e-05,1.11108e-05,-3.2041e-05,-2.20034e-07,0
-4.53847e-06,5.13224e-05,1.10958e-07,5.80201e-05,2.69577e-05,9.02458e-06,3.53484e-05,2.03023e-06,0
3.85754e-05,4.98642e-05,3.12755e-06,7.96315e-05,2.40598e-05,1.94642e-06,7.60802e-05,3.52069e-06,0
6.53589e-05,4.71706e-05,2.93776e-06,7.77887e-05,2.33747e-05,-3.50492e-06,6.80968e-05,2.89834e-06,0
4.85711e-05,4.21518e-05,6.84753e-07,4.5624e-05,2.75837e-05,-8.92037e-06,5.95538e-06,1.04006e-06,0
6.99683e-06,3.48021e-05,-9.42972e-07,-3.71307e-06,3.53953e-05,-1.50812e-05,-5.86045e-05,2.63385e-07,0
-1.99556e-05,2.68453e-05,-1.57019e-06,-6.36357e-05,3.98438e-05,-1.91753e-05,-5.53822e-05,9.51929e-07,0
-2.36542e-05,1.80198e-05,-1.62533e-06,-8.46103e-05,3.72884e-05,-1.61883e-05,1.06159e-05,1.67458e-07,0
-1.84595e-05,1.04438e-05,2.15106e-07,-2.18414e-05,2.9043e-05,-5.62609e-06,8.98858e-05,-1.62206e-06,0
-1.38408e-05,8.65067e-06,1.44107e-06,6.01676e-05,1.0934e-05,7.20037e-06,0.000158625,-1.45566e-06,0
-2.03666e-05,1.06634e-05,-5.07996e-06,6.30435e-05,-1.58082e-05,1.05467e-05,0.00018843,-6.35708e-08,0
-3.94346e-05,6.11002e-06,-1.47907e-05,-1.06039e-05,-3.63813e-05,9.84131e-06,0.000174785,-9.70758e-07,0
-5.84617e-05,-5.67285e-06,-1.9195e-05,-8.57969e-05,-3.77035e-05,1.52294e-05,0.000161733,-2.78568e-06,0
-7.13823e-05,-1.65809e-05,-1.96337e-05,-0.000125832,-2.27843e-05,1.09317e-05,0.000174509,-1.37559e-06,0
-7.98885e-05,-2.47671e-05,-1.96352e-05,-0.000128557,-3.47868e-06,-6.58709e-06,0.00020687,5.99009e-06,0
-8.60293e-05,-2.99692e-05,-1.81592e-05,-0.000103304,1.2665e-05,-2.06112e-05,0.000242588,1.76292e-05,0
-8.35746e-05,-3.1452e-05,-1.43676e-05,-6.49932e-05,2.29117e-05,-1.94571e-05,0.000276104,2.39768e-05,0
-6.75208e-05,-2.87555e-05,-1.19535e-05,-3.34323e-05,3.01574e-05,-6.41872e-06,0.000274374,2.49448e-05,0
-4.81435e-05,-2.73073e-05,-1.30786e-05,-1.83841e-05,3.02545e-05,8.25724e-06,0.000211072,2.25955e-05,0
-4.08194e-05,-2.98199e-05,-1.46852e-05,-1.02866e-05,2.16261e-05,1.4877e-05,9.84476e-05,1.34793e-05,0
-4.36136e-05,-3.35025e-05,-1.31137e-05,1.36729e-06,1.29514e-05,1.0865e-05,-2.84942e-05,-6.54514e-07,0
-4.48583e-05,-3.21011e-05,-8.80583e-06,1.15439e-05,1.32449e-05,-6.18184e-07,-0.000122984,-1.37278e-05,0
-4.36446e-05,-1.89845e-05,-4.95689e-06,1.05396e-05,1.67532e-05,-1.8637e-05,-0.000162623,-2.22192e-05,0
-4.56998e-05,7.48669e-06,-3.64819e-06,9.19498e-07,1.23386e-05,-3.55229e-05,-0.000157995,-2.57445e-05,0
-5.27393e-05,3.41918e-05,-3.4515e-06,-5.89524e-06,2.8636e-07,-3.69572e-05,-0.000140962,-2.51109e-05,0
-6.22314e-05,3.93331e-05,-3.48353e-06,6.73816e-06,-1.24147e-05,-2.55574e-05,-0.000128597,-2.28647e-05,0
-7.15643e-05,2.00823e-05,-4.62702e-06,4.00187e-05,-1.97929e-05,-2.04012e-05,-0.000117543,-1.88026e-05,0
-7.21655e-05,-2.81744e-06,-7.79788e-06,6.80345e-05,-1.92607e-05,-2.11339e-05,-0.0001034,-1.29594e-05,0
-5.70505e-05,-1.31153e-05,-1.17295e-05,5.82319e-05,-1.32107e-05,-1.455e-05,-9.54306e-05,-7.2665e-06,0
-3.81816e-05,-1.37807e-05,-1.47829e-05,1.49792e-05,-1.11802e-05,-4.33761e-06,-9.80542e-05,-3.29264e-06,0
-3.16285e-05,-1.1023e-05,-1.50016e-05,-3.08244e-05,-1.25634e-05,-2.62804e-06,-0.000103222,-5.26536e-07,0
-3.26783e-05,-7.95014e-06,-1.23549e-05,-7.15423e-05,-6.8625e-07,-8.93527e-06,-9.48123e-05,2.91049e-06,0
-3.10554e-05,-4.35063e-06,-7.96401e-06,-0.000111895,2.89738e-05,-1.43372e-05,-6.86589e-05,7.69102e-06,0
-2.6012e-05,2.4301e-06,-2.59905e-06,-0.000123741,4.94056e-05,-1.4907e-05,-3.73002e-05,1.03864e-05,0
-2.0919e-05,1.06274e-05,-1.80443e-06,-9.94831e-05,4.72849e-05,-1.21802e-05,-1.38361e-05,1.23871e-05,0
-1.84908e-05,1.53172e-05,-5.90105e-06,-7.27081e-05,3.99017e-05,-5.76205e-06,3.07978e-07,1.42463e-05,0
-2.32187e-05,1.80285e-05,-8.8147e-06,-4.49571e-05,3.68895e-05,-5.89436e-07,1.04205e-05,1.29145e-05,0
-3.19501e-05,2.14112e-05,-9.09476e-06,-1.01499e-05,3.40193e-05,-3.32694e-06,1.79553e-05,9.0414e-06,0
-3.75315e-05,2.75e-05,-9.53837e-06,2.60017e-05,2.54393e-05,-1.0579e-05,2.30533e-05,7.63936e-06,0
-3.64471e-05,3.62754e-05,-1.08157e-05,5.50895e-05,1.33839e-05,-1.82639e-05,2.51452e-05,7.88238e-06,0
-2.52191e-05,4.22139e-05,-1.16084e-05,6.0108e-05,2.82833e-06,-2.55837e-05,2.75931e-05,5.7012e-06,0
-1.1076e-05,4.20625e-05,-1.18753e-05,2.98453e-05,-4.62497e-06,-2.84903e-05,3.1012e-05,3.24664e-06,0
-2.24215e-06,4.03178e-05,-1.10708e-05,-2.49719e-05,-6.75304e-06,-2.59111e-05,3.47845e-05,-7.21967e-08,0
-9.72139e-07,3.94805e-05,-1.02688e-05,-5.92977e-05,-4.40035e-06,-2.1186e-05,2.75357e-05,-3.11868e-06,0
-3.38348e-06,3.72914e-05,-1.14522e-05,-6.39663e-05,-9.2242e-07,-1.43876e-05,1.22122e-06,-5.14464e-06,0
-5.65389e-06,3.21817e-05,-1.33106e-05,-6.75633e-05,1.99486e-06,-8.75277e-06,-3.08439e-05,-5.27074e-06,0
-8.32964e-06,2.4188e-05,-1.43815e-05,-7.09871e-05,1.10338e-05,-2.75848e-06,-5.76061e-05,-4.20976e-06,0
-1.28446e-05,1.73147e-05,-1.42749e-05,-5.7157e-05,3.19338e-05,1.56503e-05,-6.96248e-05,-3.22884e-06,0
-1.82882e-05,1.51925e-05,-1.30132e-05,-2.67456e-05,5.67018e-05,3.83424e-05,-5.70612e-05,-1.66095e-06,0
-2.50382e-05,1.79418e-05,-1.13574e-05,1.92154e-05,6.67227e-05,3.82017e-05,-3.08802e-05,1.69656e-07,0
-3.81461e-05,2.2556e-05,-1.08448e-05,8.09695e-05,5.48184e-05,1.53922e-05,-8.5488e-06,1.0583e-06,0
-5.6062e-05,2.8524e-05,-1.19543e-05,0.000137577,3.36257e-05,-4.66784e-06,1.85765e-05,-1.88941e-08,0
-6.96487e-05,3.52834e-05,-1.398e-05,0.000166008,1.72163e-05,-8.47339e-06,6.60545e-05,-1.5809e-06,0
-7.13623e-05,3.92891e-05,-1.61015e-05,0.000156174,9.8856e-06,-2.12323e-06,0.000113053,-1.16084e-06,0
-5.88311e-05,3.94581e-05,-1.67107e-05,0.000116959,6.56753e-06,4.58019e-06,0.000117123,1.59775e-06,0
-3.08453e-05,3.73364e-05,-1.35181e-05,5.61094e-05,1.91813e-06,4.68164e-06,5.36281e-05,3.7264e-06,0
7.88001e-07,3.3213e-05,-6.86372e-06,-1.9646e-05,-2.84458e-06,-2.53749e-06,-6.79177e-05,4.36717e-06,0
1.64464e-05,2.70238e-05,-1.66774e-07,-9.26733e-05,1.80399e-06,-9.90613e-06,-0.00017743,4.74675e-06,0
1.14211e-05,2.05013e-05,2.96091e-06,-0.000131905,1.77808e-05,-1.17403e-05,-0.000156434,4.63926e-06,0
-3.68245e-06,1.36422e-05,-9.08433e-07,-0.000125059,3.03491e-05,-1.52756e-05,-2.6572e-07,3.72552e-06,0
-1.70329e-05,7.87967e-06,-9.69923e-06,-0.000101395,2.59637e-05,-2.71557e-05,0.000174079,3.62333e-06,0
-2.13323e-05,1.07278e-05,-1.50621e-05,-9.03877e-05,1.15308e-05,-4.09859e-05,0.000301756,4.6993e-06,0
-1.46164e-05,2.44581e-05,-1.36619e-05,-7.46457e-05,3.83864e-06,-5.24156e-05,0.000384528,5.14884e-06,0
-4.95287e-06,4.49566e-05,-7.74159e-06,-3.76725e-05,6.33074e-06,-6.33147e-05,0.000427823,5.36003e-06,0
-1.73979e-06,5.9782e-05,-2.11327e-06,-2.51561e-06,8.90916e-06,-6.15863e-05,0.000416744,6.20152e-06,0
-5.68489e-06,5.99309e-05,-3.28127e-06,1.35524e-05,4.5099e-06,-2.23375e-05,0.00035523,5.94958e-06,0
-1.48394e-05,5.07913e-05,-1.0171e-05,1.34239e-05,-5.22613e-06,2.47267e-05,0.000271751,3.88592e-06,0
-2.57772e-05,3.23906e-05,-1.54776e-05,6.89613e-06,-1.10434e-05,2.72852e-05,0.000197253,1.42166e-06,0
-3.55148e-05,1.05461e-05,-1.42942e-05,2.56183e-06,-5.52683e-06,6.84144e-06,0.000126313,6.45487e-07,0
-4.06371e-05,3.32455e-06,-7.12928e-06,1.50634e-06,6.6842e-06,2.64676e-05,4.48171e-05,1.983e-06,0
-3.88134e-05,2.01154e-05,1.99513e-06,4.8882e-06,1.8777e-05,8.84379e-05,-3.14961e-05,3.4264e-06,0
-3.68371e-05,4.96177e-05,7.35056e-06,1.16004e-05,2.66007e-05,0.000122286,-9.38664e-05,2.48826e-06,0
-3.79052e-05,6.71456e-05,5.44497e-06,1.54587e-05,2.84523e-05,9.45223e-05,-0.000135038,1.98713e-06,0
-4.15859e-05,5.83977e-05,-4.34068e-07,1.40293e-05,2.73837e-05,4.35248e-05,-0.000161308,2.587e-06,0
-4.68027e-05,3.22364e-05,-4.33792e-06,1.04536e-05,2.47412e-05,1.03516e-05,-0.000176656,2.07947e-06,0
-5.60042e-05,5.39392e-06,-6.38205e-06,2.7075e-06,1.80534e-05,-7.47136e-06,-0.000182937,1.57826e-07,0
-7.20346e-05,-1.4298e-05,-9.30443e-06,-1.47535e-05,7.02885e-06,-3.61945e-05,-0.000175257,-1.87561e-06,0
-8.89597e-05,-2.87838e-05,-1.40847e-05,-3.47367e-05,-4.43075e-06,-7.44777e-05,-0.000148581,-2.33462e-06,0
-9.43528e-05,-3.96892e-05,-1.85244e-05,-4.68818e-05,-1.25003e-05,-8.27416e-05,-0.000110118,-2.05695e-06,0
-8.05306e-05,-4.46362e-05,-2.04291e-05,-4.98505e-05,-1.65211e-05,-4.79204e-05,-7.65776e-05,-1.92372e-06,0
-5.54083e-05,-4.20805e-05,-2.06831e-05,-5.51279e-05,-1.7924e-05,-1.54089e-05,-6.00013e-05,-2.25328e-06,0
-2.98234e-05,-3.22874e-05,-1.98616e-05,-7.78976e-05,-1.96106e-05,-1.80464e-05,-5.48956e-05,-9.63745e-07,0
-6.78555e-06,-1.86212e-05,-1.85121e-05,-0.000118176,-1.97614e-05,-3.41755e-05,-5.08463e-05,1.41549e-06,0
1.42049e-05,-6.51566e-06,-1.76423e-05,-0.000136806,-1.30575e-05,-3.6101e-05,-3.43415e-05,2.48752e-06,0
3.15238e-05,-2.19207e-07,-1.78826e-05,-9.96593e-05,3.00072e-06,-2.39694e-05,-1.96509e-06,1.3222e-06,0
4.27566e-05,3.4402e-06,-1.82892e-05,-3.34131e-05,2.66104e-05,-1.20758e-05,3.71789e-05,1.03215e-06,0
4.32182e-05,7.04233e-06,-1.84741e-05,2.20099e-05,5.24672e-05,-9.45585e-06,6.94284e-05,1.87051e-06,0
3.06525e-05,7.50607e-06,-1.70735e-05,5.92334e-05,6.73133e-05,-8.97169e-06,8.77911e-05,8.89439e-07,0
1.68517e-05,5.58415e-06,-1.31643e-05,8.232e-05,5.89374e-05,-9.72317e-07,9.14457e-05,-1.83159e-06,0
1.57982e-05,3.41975e-06,-8.85925e-06,9.62049e-05,3.62392e-05,1.02999e-05,8.67408e-05,-4.24813e-06,0
1.49315e-05,4.03679e-07,-5.85418e-06,0.00012369,2.18809e-05,1.11747e-05,7.10623e-05,-4.04855e-06,0
-2.92562e-06,-5.85005e-07,-3.44777e-06,0.000166979,3.0926e-05,3.07143e-06,4.7618e-05,-2.52612e-06,0
-2.71801e-05,-7.63664e-07,-2.93363e-06,0.000182789,4.58089e-05,-6.9212e-06,2.76133e-05,-1.75465e-06,0
-4.01637e-05,-2.28233e-06,-3.10904e-06,0.000162466,4.2843e-05,-1.77197e-05,1.11734e-05,-1.30383e-06,0
-4.14574e-05,-2.75627e-06,-3.06363e-06,0.000139758,2.63435e-05,-2.66234e-05,-7.91987e-06,-1.93513e-07,0
-4.16276e-05,-2.78528e-06,-3.26752e-06,0.000130535,1.06688e-05,-3.56691e-05,-3.50083e-05,-1.85978e-07,0
-4.60597e-05,-7.48374e-08,-1.6373e-06,0.000108588,6.41526e-06,-4.81836e-05,-6.56953e-05,-1.48144e-06,0
-5.14249e-05,4.4219e-06,-3.10799e-07,7.28627e-05,1.1327e-05,-5.70533e-05,-8.05171e-05,-1.54703e-06,0
-5.36863e-05,7.30347e-06,-1.18274e-06,5.99185e-05,1.96689e-05,-5.38021e-05,-7.65551e-05,1.40024e-07,0
-5.21161e-05,6.42768e-06,-3.16676e-06,6.7077e-05,2.60421e-05,-4.32083e-05,-7.75477e-05,2.26506e-06,0
-4.84384e-05,2.25081e-06,-6.48302e-06,6.4443e-05,2.96333e-05,-3.34126e-05,-0.000101915,2.94195e-06,0
-4.6312e-05,-3.20649e-06,-1.13062e-05,3.8384e-05,3.4428e-05,-3.14587e-05,-0.000136202,2.67582e-06,0
-4.63904e-05,-8.01711e-06,-1.44903e-05,3.57712e-06,3.87706e-05,-4.16743e-05,-0.000149131,2.22784e-06,0
-4.43274e-05,-1.00863e-05,-1.27387e-05,-3.03768e-05,3.99143e-05,-5.11917e-05,-0.000122582,1.12131e-06,0
-3.82881e-05,-9.83131e-06,-8.41617e-06,-5.66561e-05,3.7388e-05,-3.92194e-05,-4.54937e-05,8.30066e-09,0
-3.31412e-05,-7.82707e-06,-5.88025e-06,-6.20579e-05,3.26748e-05,-1.86062e-05,5.86854e-05,-5.53593e-08,0
-3.16296e-05,-3.68317e-06,-5.76788e-06,-5.25409e-05,2.74365e-05,-1.2129e-05,0.000133044,9.40356e-07,0
-3.15463e-05,2.20974e-06,-7.24823e-06,-5.63295e-05,2.33435e-05,-5.45785e-06,0.000143774,1.98693e-06,0
-3.04527e-05,6.51917e-06,-8.1439e-06,-6.82543e-05,1.921e-05,1.31393e-05,0.000115871,2.43786e-06,0
-2.6923e-05,8.83736e-06,-8.11932e-06,-5.77986e-05,1.3952e-05,2.09981e-05,9.34239e-05,2.23717e-06,0
-2.20703e-05,1.08322e-05,-1.03193e-05,-3.16499e-05,5.09735e-06,5.40519e-06,8.78155e-05,2.57217e-06,0
-2.01003e-05,1.35778e-05,-1.46023e-05,-1.10863e-05,-9.59011e-06,-1.03292e-05,8.35187e-05,3.97537e-06,0
-2.14872e-05,1.721e-05,-1.71693e-05,-1.70331e-06,-2.37599e-05,-6.48345e-06,7.30024e-05,6.66684e-06,0
-2.35624e-05,2.24383e-05,-1.50292e-05,-1.272e-05,-2.53362e-05,8.24849e-06,5.35523e-05,9.08275e-06,0
-2.41078e-05,2.73631e-05,-7.58949e-06,-4.93409e-05,-1.13041e-05,1.78224e-05,1.12731e-05,9.88159e-06,0
-2.42661e-05,3.02636e-05,1.79944e-06,-9.8083e-05,9.12938e-06,1.94777e-05,-5.26126e-05,8.78612e-06,0
-2.49931e-05,3.01843e-05,7.41107e-06,-0.000130419,2.43945e-05,2.13855e-05,-0.00010846,7.78477e-06,0
-2.77561e-05,2.71714e-05,6.44593e-06,-0.000114375,2.72095e-05,2.34083e-05,-0.000129773,7.96757e-06,0
-3.31974e-05,2.29147e-05,4.52908e-06,-5.20195e-05,2.37745e-05,2.10287e-05,-0.000112242,7.70038e-06,0
-3.69357e-05,1.67853e-05,3.70391e-06,1.19071e-05,2.54083e-05,1.01457e-05,-7.61511e-05,6.85103e-06,0
-3.78102e-05,1.14962e-05,2.55874e-06,2.85573e-05,2.50381e-05,-4.85259e-06,-4.79578e-05,7.12416e-06,0
-3.39732e-05,1.16668e-05,3.61989e-06,2.07982e-06,1.82918e-05,-8.81597e-06,-3.36825e-05,8.00852e-06,0
-2.34485e-05,1.80967e-05,4.91937e-06,-2.80559e-05,1.53416e-05,-4.75042e-06,-3.05537e-05,7.31356e-06,0
-1.10482e-05,2.6554e-05,4.15027e-06,-4.86499e-05,1.64733e-05,-4.36257e-06,-2.60603e-05,7.03393e-06,0
-5.13837e-06,3.21135e-05,1.97887e-06,-6.40271e-05,1.70928e-05,-8.09557e-06,-1.68887e-05,6.24282e-06,0
-8.51229e-06,3.32193e-05,9.32735e-07,-7.28851e-05,1.59281e-05,-1.1086e-05,-8.3122e-06,4.6667e-06,0
-1.65044e-05,3.12151e-05,-5.90966e-07,-7.13133e-05,1.22274e-05,-1.52378e-05,3.58594e-06,3.08977e-06,0
-2.36255e-05,2.68582e-05,-5.24181e-06,-5.74495e-05,4.31827e-06,-2.03814e-05,2.08477e-05,3.86147e-06,0
-2.8027e-05,2.12778e-05,-1.01457e-05,-3.60636e-05,-6.79151e-06,-2.02748e-05,2.54036e-05,6.60565e-06,0
-3.00024e-05,1.61294e-05,-1.14862e-05,-1.52425e-05,-2.10563e-05,-1.70252e-05,-3.71096e-06,6.99391e-06,0
-3.13208e-05,1.17891e-05,-1.01668e-05,6.52502e-07,-3.95677e-05,-1.56665e-05,-4.6662e-05,5.17893e-06,0
-3.52771e-05,5.56473e-06,-9.62012e-06,1.2784e-05,-6.17624e-05,-1.18688e-05,-5.66412e-05,3.56796e-06,0
-4.28861e-05,-3.53319e-06,-9.87088e-06,2.11092e-05,-8.12406e-05,-4.73396e-06,-1.27847e-05,2.80959e-06,0
-5.03271e-05,-1.27268e-05,-9.81885e-06,2.19719e-05,-8.01578e-05,-2.39516e-06,6.28093e-05,1.51535e-06,0
-5.34791e-05,-2.00306e-05,-9.76421e-06,1.51875e-05,-4.66921e-05,-7.06352e-06,0.000132018,7.81115e-07,0
-5.24706e-05,-2.4458e-05,-1.11581e-05,6.81198e-06,1.90918e-06,-1.47917e-05,0.000171125,1.43488e-06,0
-5.08477e-05,-2.44174e-05,-1.40185e-05,2.028e-06,3.21919e-05,-2.41e-05,0.000187052,2.503e-06,0
-5.08227e-05,-1.9089e-05,-1.54359e-05,4.86598e-06,2.97742e-05,-3.40666e-05,0.00019733,2.60235e-06,0
-5.07864e-05,-1.08859e-05,-1.36209e-05,1.82654e-05,1.67848e-05,-3.76577e-05,0.000203535,2.98906e-06,0
-4.82164e-05,-4.14121e-06,-1.0355e-05,3.89346e-05,3.26282e-05,-3.3655e-05,0.000201722,4.04148e-06,0
-4.37436e-05,-4.56849e-07,-7.51063e-06,5.43713e-05,7.78183e-05,-2.97696e-05,0.000194492,5.46769e-06,0
-3.87691e-05,3.76317e-06,-6.9938e-06,5.30643e-05,0.000103846,-2.73736e-05,0.000170075,6.26018e-06,0
-3.34931e-05,7.95308e-06,-9.02273e-06,3.60654e-05,8.31327e-05,-2.56764e-05,0.000106422,6.28318e-06,0
-3.44971e-05,8.14824e-06,-1.22235e-05,1.80412e-05,4.48601e-05,-2.80586e-05,6.41736e-06,5.86037e-06,0
-4.40531e-05,3.85449e-06,-1.45253e-05,3.01174e-05,2.1761e-05,-3.38403e-05,-0.000106533,4.48965e-06,0
-5.14704e-05,1.07484e-06,-1.54553e-05,8.61317e-05,2.05252e-05,-3.55613e-05,-0.000170215,3.6048e-06,0
-5.00567e-05,2.20752e-06,-1.36723e-05,0.000130957,2.40361e-05,-2.96268e-05,-0.000153137,2.47805e-06,0
-4.50675e-05,3.96637e-06,-1.00948e-05,0.00011392,1.49794e-05,-2.38222e-05,-0.00010127,1.07216e-06,0
-4.10167e-05,5.20259e-06,-1.04346e-05,4.61934e-05,-5.74593e-07,-2.0899e-05,-5.88338e-05,5.63656e-07,0
-4.03959e-05,5.34149e-06,-1.422e-05,-2.46393e-05,-7.24665e-06,-1.84123e-05,-4.50505e-05,6.13489e-08,0
-4.17255e-05,6.79098e-06,-1.72419e-05,-4.65554e-05,1.66297e-06,-1.5367e-05,-4.35709e-05,-1.08132e-06,0
-4.06802e-05,8.78776e-06,-1.67529e-05,-2.03278e-05,1.33315e-05,-1.20855e-05,-5.05856e-05,-2.16646e-06,0
-4.05494e-05,1.06791e-05,-1.1501e-05,1.38766e-05,2.1753e-05,-9.29648e-06,-5.06852e-05,-1.00514e-06,0
-4.19656e-05,1.35723e-05,-2.63086e-06,5.69121e-06,2.81617e-05,-6.95609e-06,-3.09368e-05,1.23362e-06,0
-4.20856e-05,1.62161e-05,6.97922e-07,-5.319e-05,2.85199e-05,-4.91684e-06,-8.827e-06,1.44552e-06,0
-3.92111e-05,1.82418e-05,-4.70575e-06,-0.000119959,1.97571e-05,-5.01848e-06,-1.98196e-06,3.89707e-07,0
-2.60277e-05,2.3307e-05,-9.27141e-06,-0.000153755,8.26586e-06,-8.43305e-06,-7.01706e-06,-6.91917e-07,0
1.09773e-06,3.25116e-05,-6.19428e-06,-0.000144974,3.44169e-06,-9.61567e-06,-6.76383e-06,-6.75267e-07,0
2.9693e-05,4.27802e-05,9.22453e-07,-0.000115321,2.93111e-06,-5.08648e-06,-1.62105e-06,3.36858e-07,0
4.60262e-05,5.15327e-05,5.12967e-06,-9.16756e-05,-3.90635e-06,2.9682e-06,5.46683e-06,1.75105e-06,0
4.81059e-05,5.81398e-05,6.42709e-06,-8.43977e-05,-1.485e-05,1.20827e-05,1.00984e-05,2.16185e-06,0
3.74988e-05,6.25582e-05,7.7215e-06,-9.14537e-05,-9.64341e-06,2.11407e-05,1.53962e-05,2.04286e-06,0
1.84996e-05,6.38417e-05,8.03609e-06,-0.000108786,2.24213e-05,2.54338e-05,1.95277e-05,7.02416e-07,0
-1.59341e-06,6.19396e-05,4.27932e-06,-0.000117874,6.75341e-05,2.58305e-05,2.53637e-05,-2.49622e-06,0
-1.82641e-05,5.66909e-05,-1.93668e-06,-0.000102624,9.72125e-05,2.85944e-05,3.3973e-05,-5.3919e-06,0
-3.17925e-05,4.88601e-05,-6.70841e-06,-6.30625e-05,0.000104448,3.84319e-05,4.40816e-05,-6.91584e-06,0
-4.38644e-05,3.86161e-05,-7.83633e-06,-7.89774e-06,0.000103163,5.95212e-05,5.21251e-05,-7.14775e-06,0
-5.53343e-05,2.58533e-05,-7.17926e-06,4.25945e-05,9.73132e-05,7.68712e-05,5.31796e-05,-6.78e-06,0
-6.80556e-05,6.25136e-06,-6.74089e-06,6.06813e-05,7.59069e-05,5.98662e-05,2.82823e-05,-5.58005e-06,0
-7.8071e-05,-2.08611e-05,-7.9054e-06,4.01421e-05,3.53066e-05,9.56313e-06,-3.04603e-05,-4.5466e-06,0
-8.20684e-05,-4.19813e-05,-9.96624e-06,1.20376e-05,-4.49515e-06,-4.11581e-05,-7.66117e-05,-4.07058e-06,0
-8.03407e-05,-4.80471e-05,-1.05674e-05,7.00957e-06,-2.56118e-05,-6.52278e-05,-6.07025e-05,-3.03972e-06,0
-7.47647e-05,-4.23066e-05,-1.00527e-05,1.51908e-05,-3.20334e-05,-5.57009e-05,-5.24066e-06,-1.64976e-06,0
-6.83115e-05,-3.0984e-05,-1.00622e-05,1.30443e-05,-3.02039e-05,-4.1998e-05,4.39161e-05,-5.61474e-07,0
-6.16792e-05,-2.2849e-05,-1.08385e-05,-3.74506e-07,-2.20017e-05,-4.33373e-05,7.26015e-05,-7.27098e-07,0
-5.83805e-05,-1.8202e-05,-1.08991e-05,-4.87991e-06,-1.29243e-05,-4.75515e-05,8.75677e-05,-1.03832e-06,0
-5.79031e-05,-1.29801e-05,-1.15824e-05,1.13578e-05,-5.79692e-06,-4.90564e-05,0.000100439,-1.49021e-06,0
-5.54603e-05,-6.47582e-06,-1.3069e-05,4.20802e-05,-2.48112e-07,-4.30992e-05,0.000102625,-4.01679e-06,0
-4.76959e-05,5.54868e-07,-1.34445e-05,7.2325e-05,1.9703e-06,-3.85365e-05,9.30045e-05,-5.34142e-06,0
-3.76948e-05,7.63329e-06,-1.22412e-05,8.55665e-05,6.12365e-07,-3.2643e-05,8.07342e-05,-4.93842e-06,0
-3.03719e-05,1.2791e-05,-1.15386e-05,6.98324e-05,-1.44252e-06,-2.38457e-06,6.72151e-05,-4.32899e-06,0
-2.84642e-05,1.40576e-05,-1.17911e-05,2.55937e-05,9.33457e-08,4.34191e-05,4.76661e-05,-4.61904e-06,0
-3.19023e-05,1.31511e-05,-1.22176e-05,-2.43002e-05,2.48281e-06,6.49041e-05,2.28223e-05,-4.506e-06,0
-3.59277e-05,1.06072e-05,-1.18583e-05,-5.20488e-05,5.41092e-07,4.68895e-05,4.2466e-06,-2.89636e-06,0
-3.79701e-05,6.78842e-06,-9.46994e-06,-5.44609e-05,-5.77157e-06,1.245e-05,2.90631e-07,-1.32773e-06,0
-3.82816e-05,2.92577e-06,-7.47869e-06,-5.16905e-05,-1.28979e-05,-1.02738e-05,4.74431e-06,5.22411e-08,0
-3.69151e-05,1.71784e-06,-7.66497e-06,-5.42555e-05,-1.75327e-05,-1.54099e-05,1.10281e-05,1.38555e-06,0
-3.31768e-05,4.36872e-06,-9.09756e-06,-4.90125e-05,-1.9469e-05,-1.55402e-05,1.80423e-05,3.12163e-06,0
-2.89109e-05,1.00544e-05,-1.05282e-05,-2.90294e-05,-1.93148e-05,-1.72401e-05,2.49922e-05,4.42968e-06,0
-2.60839e-05,1.47572e-05,-1.21212e-05,-2.12354e-05,-1.90967e-05,-2.04109e-05,2.66468e-05,4.81745e-06,0
-2.44318e-05,1.54092e-05,-1.49725e-05,-4.60054e-05,-1.738e-05,-2.24268e-05,2.17523e-05,4.03739e-06,0
-2.29934e-05,1.34147e-05,-1.85472e-05,-7.46496e-05,-9.0425e-06,-2.21357e-05,1.5156e-05,1.99013e-06,0
-2.15011e-05,1.30819e-05,-1.9472e-05,-6.00968e-05,4.58367e-06,-1.96558e-05,1.25875e-05,-1.07685e-06,0
-2.04758e-05,1.60273e-05,-1.63412e-05,3.12423e-06,1.34423e-05,-1.7392e-05,1.5214e-05,-3.20859e-06,0
-1.87678e-05,2.03648e-05,-1.09326e-05,7.55282e-05,1.71558e-05,-1.50341e-05,1.85064e-05,-4.11019e-06,0
-1.64104e-05,2.34204e-05,-7.13932e-06,0.000111731,1.96577e-05,-1.42465e-05,1.83881e-05,-4.68106e-06,0
-1.62302e-05,2.29153e-05,-8.05528e-06,0.000107719,1.97426e-05,-1.61441e-05,1.64329e-05,-4.06326e-06,0
-1.72223e-05,2.02292e-05,-1.04458e-05,9.24265e-05,1.91077e-05,-1.84711e-05,1.52792e-05,-3.4051e-06,0
