ch1,ch2,ch3,ch4,ch5,ch6,ch7,ch8,class
-3.10824e-05,1.10044e-05,-5.37209e-06,-2.79726e-06,2.39725e-06,-1.15993e-05,1.49419e-05,-2.69889e-06,0
-3.0093e-05,1.25123e-05,-2.26843e-06,-3.74071e-06,8.99963e-06,-1.38492e-05,1.40159e-05,-2.24077e-06,0
-2.86585e-05,1.62909e-05,7.33769e-07,-4.41534e-06,1.97985e-05,-1.30171e-05,1.29422e-05,-1.13104e-06,0
-2.91041e-05,2.01077e-05,2.32581e-06,-5.16099e-06,2.74067e-05,-1.15022e-05,1.29601e-05,-8.53707e-08,0
-3.09588e-05,2.3397e-05,2.04195e-06,-6.53591e-06,2.94296e-05,-1.00145e-05,1.29386e-05,5.89257e-07,0
-3.22441e-05,2.58631e-05,-4.98443e-08,-8.01936e-06,3.23304e-05,-8.89484e-06,1.28758e-05,1.75541e-06,0
-3.20795e-05,2.73262e-05,-1.27691e-06,-8.8505e-06,3.95375e-05,-9.16737e-06,1.42093e-05,2.83393e-06,0
-3.18018e-05,2.72398e-05,-2.05452e-06,-7.99489e-06,4.46289e-05,-1.01878e-05,1.52449e-05,2.67632e-06,0
-3.20815e-05,2.69039e-05,-4.3376e-06,-7.02403e-06,3.90736e-05,-1.01717e-05,1.45751e-05,2.24673e-06,0
-3.22056e-05,2.53694e-05,-8.27004e-06,-6.91311e-06,2.53704e-05,-9.59818e-06,1.33928e-05,2.95512e-06,0
-3.16939e-05,2.31596e-05,-1.05999e-05,-6.67776e-06,1.28161e-05,-1.00436e-05,1.33549e-05,3.96817e-06,0
-3.09789e-05,2.16263e-05,-1.09657e-05,-5.61526e-06,5.49762e-06,-1.11744e-05,1.3493e-05,3.67191e-06,0
-2.97395e-05,2.02675e-05,-1.15936e-05,-5.07505e-06,3.13499e-06,-1.01397e-05,1.2962e-05,2.27617e-06,0
-2.68417e-05,1.75776e-05,-1.39991e-05,-5.63114e-06,6.59897e-06,-5.05694e-06,1.17924e-05,1.25244e-06,0
-2.25486e-05,1.67983e-05,-1.6337e-05,-6.34969e-06,1.80171e-05,4.21984e-07,1.0327e-05,2.159e-06,0
-1.91232e-05,2.0455e-05,-1.8301e-05,-7.0923e-06,3.52287e-05,2.54662e-06,9.03516e-06,4.67624e-06,0
-1.71939e-05,2.40311e-05,-2.03297e-05,-8.55141e-06,4.7077e-05,2.48473e-06,8.36565e-06,6.33255e-06,0
-1.76219e-05,2.49114e-05,-2.31415e-05,-1.02301e-05,4.4125e-05,4.04294e-07,8.28748e-06,6.43038e-06,0
-2.17856e-05,2.42847e-05,-2.77325e-05,-1.12123e-05,3.27523e-05,-2.88724e-06,8.61775e-06,6.50325e-06,0
-2.80128e-05,2.27258e-05,-3.12268e-05,-1.11742e-05,2.20901e-05,-5.45078e-06,9.77513e-06,6.59475e-06,0
-3.63847e-05,2.09602e-05,-3.15207e-05,-9.81191e-06,1.56313e-05,-7.69618e-06,1.03044e-05,6.80137e-06,0
-4.72963e-05,1.67378e-05,-3.05963e-05,-9.23677e-06,1.36217e-05,-9.95842e-06,8.41088e-06,5.69724e-06,0
-5.40886e-05,1.0568e-05,-2.95892e-05,-9.12969e-06,1.35701e-05,-1.15164e-05,6.06093e-06,4.08548e-06,0
-5.22659e-05,6.42336e-06,-2.63329e-05,-7.46974e-06,1.3368e-05,-1.15884e-05,6.05524e-06,3.24443e-06,0
-4.68863e-05,5.43941e-06,-2.16151e-05,-5.79154e-06,1.27082e-05,-1.10868e-05,7.52649e-06,3.669e-06,0
-4.14753e-05,8.82575e-06,-1.76026e-05,-3.49939e-06,1.25697e-05,-1.09623e-05,1.00907e-05,4.64908e-06,0
-3.87127e-05,1.23884e-05,-1.53038e-05,-2.43443e-07,1.4382e-05,-1.1698e-05,1.29083e-05,6.00062e-06,0
-3.7251e-05,1.24913e-05,-1.51594e-05,1.98075e-06,1.82649e-05,-1.23708e-05,1.38712e-05,7.32253e-06,0
-3.4986e-05,1.13542e-05,-1.47915e-05,8.0814e-07,1.99855e-05,-1.18009e-05,1.24884e-05,8.42348e-06,0
-3.42659e-05,1.38205e-05,-1.32061e-05,-9.89372e-07,1.86327e-05,-1.17284e-05,9.24521e-06,1.0733e-05,0
-3.36568e-05,1.77825e-05,-9.92307e-06,9.01442e-08,1.63853e-05,-1.40093e-05,7.07839e-06,1.19601e-05,0
-3.23809e-05,1.91291e-05,-3.78829e-06,1.89825e-06,1.3666e-05,-1.58217e-05,7.35454e-06,1.13035e-05,0
-3.1658e-05,1.58903e-05,4.69056e-06,1.80255e-06,6.79384e-06,-1.48157e-05,7.8881e-06,1.01357e-05,0
-3.17977e-05,1.08311e-05,1.45841e-05,-9.13667e-08,-2.97553e-06,-1.18715e-05,7.43473e-06,1.03587e-05,0
-3.10817e-05,1.10892e-05,2.55081e-05,-1.38238e-06,-7.62516e-06,-9.67643e-06,6.1715e-06,1.15613e-05,0
-3.09936e-05,1.71035e-05,3.90027e-05,-1.5388e-06,-1.74779e-06,-8.65426e-06,5.75112e-06,1.22499e-05,0
-3.12502e-05,2.30675e-05,5.58137e-05,-2.33462e-06,1.94899e-05,-8.21437e-06,7.64826e-06,1.1406e-05,0
-3.06771e-05,2.32857e-05,7.20726e-05,-4.18675e-06,4.70607e-05,-8.01799e-06,1.04961e-05,9.31858e-06,0
-2.99845e-05,1.98206e-05,7.71765e-05,-5.07957e-06,5.83073e-05,-7.36408e-06,1.27462e-05,7.56619e-06,0
-3.04336e-05,1.77265e-05,6.23589e-05,-5.29011e-06,4.35769e-05,-7.05493e-06,1.42655e-05,6.03031e-06,0
-3.18647e-05,1.85705e-05,2.88523e-05,-5.63886e-06,1.8022e-05,-7.15108e-06,1.50073e-05,3.58542e-06,0
-3.23195e-05,2.05875e-05,-1.46713e-05,-5.52023e-06,2.93808e-06,-6.30348e-06,1.52558e-05,1.38085e-06,0
-3.12931e-05,2.13482e-05,-5.69253e-05,-3.73502e-06,3.56791e-06,-3.67718e-06,1.52888e-05,5.97691e-07,0
-2.90481e-05,2.06965e-05,-8.78766e-05,-2.74623e-06,7.20684e-06,-3.90739e-07,1.50608e-05,6.97355e-07,0
-2.63428e-05,1.93068e-05,-0.000101121,-4.50263e-06,1.05694e-05,2.02552e-06,1.40654e-05,2.29653e-07,0
-2.41277e-05,1.74718e-05,-9.54272e-05,-5.59017e-06,2.22866e-05,1.56833e-06,1.36846e-05,-1.32278e-06,0
-2.43751e-05,1.68442e-05,-7.6409e-05,-3.29436e-06,3.49689e-05,-1.01281e-06,1.5443e-05,-1.2814e-06,0
-2.66898e-05,1.71928e-05,-5.78381e-05,-2.71047e-07,3.13373e-05,-3.38994e-06,1.66417e-05,-4.83136e-08,0
-3.00273e-05,1.6673e-05,-4.80078e-05,7.41258e-07,2.66624e-06,-4.4574e-06,1.60496e-05,9.99064e-07,0
-3.22446e-05,1.52274e-05,-4.12711e-05,1.57073e-06,-2.79168e-05,-5.37814e-06,1.56001e-05,9.17567e-07,0
-3.34566e-05,1.50459e-05,-3.15128e-05,-1.58192e-07,-3.94226e-05,-7.02715e-06,1.5628e-05,-7.32664e-09,0
-3.30127e-05,1.45586e-05,-2.15384e-05,-6.06356e-06,-3.59627e-05,-9.47803e-06,1.4869e-05,6.53119e-07,0
-3.05892e-05,1.27195e-05,-1.60704e-05,-1.3251e-05,-2.46486e-05,-1.17703e-05,1.29845e-05,2.07011e-06,0
-2.90786e-05,1.28485e-05,-1.20834e-05,-1.6497e-05,-1.21424e-05,-1.18733e-05,9.95028e-06,4.29281e-06,0
-2.80136e-05,1.44601e-05,-7.50124e-06,-1.6654e-05,1.59657e-06,-1.04121e-05,7.84265e-06,5.92451e-06,0
-2.7857e-05,1.45596e-05,-3.45997e-06,-1.863e-05,1.1013e-05,-8.84485e-06,7.61295e-06,5.06205e-06,0
-2.95311e-05,1.41963e-05,-2.18299e-06,-2.11442e-05,1.44084e-05,-7.96962e-06,7.70094e-06,3.03364e-06,0
-3.1444e-05,1.39655e-05,-3.81211e-06,-2.38846e-05,1.78458e-05,-8.64423e-06,8.66597e-06,6.71534e-07,0
-3.12009e-05,1.11931e-05,-5.65045e-06,-2.46947e-05,2.23775e-05,-9.9558e-06,9.76468e-06,-2.27652e-06,0
-2.93614e-05,6.18242e-06,-7.06764e-06,-2.2265e-05,2.41755e-05,-1.13843e-05,1.00847e-05,-4.55872e-06,0
-2.87603e-05,2.1598e-06,-8.22849e-06,-1.83893e-05,1.90246e-05,-1.27354e-05,1.02015e-05,-4.79668e-06,0
-2.9829e-05,9.68081e-07,-8.63974e-06,-1.48569e-05,1.20475e-05,-1.31647e-05,1.0573e-05,-3.96484e-06,0
-3.05156e-05,1.07904e-06,-8.14052e-06,-1.16621e-05,1.12087e-05,-1.23282e-05,1.05166e-05,-2.48874e-06,0
-2.95589e-05,2.11889e-06,-9.35382e-06,-8.74702e-06,1.48814e-05,-1.12866e-05,1.04588e-05,-8.165e-07,0
-2.85354e-05,3.79701e-06,-1.20994e-05,-7.17435e-06,1.79102e-05,-1.22097e-05,1.11377e-05,-2.64326e-07,0
-2.89917e-05,5.45405e-06,-1.20013e-05,-7.14015e-06,2.15781e-05,-1.36804e-05,1.19063e-05,-3.04126e-07,0
-3.02221e-05,6.78732e-06,-6.89763e-06,-8.50609e-06,2.79633e-05,-1.35315e-05,1.1274e-05,1.44078e-06,0
-3.15012e-05,9.08967e-06,-1.88859e-06,-1.05227e-05,3.344e-05,-1.19791e-05,1.08955e-05,3.83367e-06,0
-3.25246e-05,1.23064e-05,2.69368e-08,-1.24137e-05,3.27473e-05,-1.16712e-05,1.29278e-05,5.27847e-06,0
-3.19973e-05,1.49339e-05,1.45422e-06,-1.37083e-05,2.60736e-05,-1.20739e-05,1.4801e-05,5.74087e-06,0
-3.07624e-05,1.69699e-05,5.01796e-06,-1.40768e-05,1.85751e-05,-1.03618e-05,1.47014e-05,5.0605e-06,0
-2.90735e-05,1.72041e-05,9.41292e-06,-1.24441e-05,1.58237e-05,-7.75694e-06,1.35322e-05,3.71056e-06,0
-2.73666e-05,1.55363e-05,1.28471e-05,-9.81269e-06,2.0321e-05,-6.65254e-06,1.28001e-05,2.87047e-06,0
-2.70607e-05,1.34711e-05,1.52007e-05,-4.83378e-06,2.51562e-05,-7.58349e-06,1.37613e-05,2.73876e-06,0
-2.72944e-05,1.27977e-05,1.59301e-05,4.49222e-06,1.82234e-05,-1.03584e-05,1.55552e-05,1.4553e-06,0
-2.78188e-05,1.46581e-05,1.54121e-05,1.54297e-05,-1.07771e-06,-1.37856e-05,1.68898e-05,5.41669e-07,0
-2.777e-05,1.80672e-05,1.35843e-05,1.87244e-05,-2.07594e-05,-1.51423e-05,1.7168e-05,6.38266e-07,0
-2.66265e-05,2.07142e-05,1.3959e-05,1.4345e-05,-2.83983e-05,-1.21328e-05,1.56571e-05,-2.23479e-07,0
-2.55038e-05,1.9333e-05,1.58203e-05,8.83505e-06,-2.26969e-05,-5.47032e-06,1.50039e-05,-1.3027e-07,0
-2.66055e-05,1.82025e-05,1.42593e-05,4.23284e-06,-7.6626e-06,-4.66265e-07,1.56505e-05,3.08351e-07,0
-2.8507e-05,2.03683e-05,1.00585e-05,2.50485e-06,1.38336e-05,-2.30197e-06,1.64696e-05,1.74976e-06,0
-2.81119e-05,2.12275e-05,2.97095e-06,7.41216e-07,2.94402e-05,-7.26159e-06,1.66248e-05,4.43999e-06,0
-2.59983e-05,2.00986e-05,-5.10709e-06,-3.03067e-09,1.95761e-05,-9.71548e-06,1.53845e-05,5.02303e-06,0
-2.46157e-05,1.76442e-05,-1.1038e-05,2.84692e-06,-4.88044e-06,-9.98168e-06,1.13299e-05,3.2927e-06,0
-2.55639e-05,1.63914e-05,-1.45903e-05,7.51049e-06,-1.34529e-05,-9.05056e-06,5.30184e-06,4.35193e-07,0
-2.81875e-05,1.58764e-05,-1.85239e-05,9.69895e-06,7.93861e-06,-8.20562e-06,2.36027e-06,-1.21196e-06,0
-3.18837e-05,1.36163e-05,-2.31701e-05,9.14071e-06,5.23474e-05,-7.96462e-06,4.00976e-06,-1.18229e-06,0
-3.36844e-05,1.14371e-05,-2.26453e-05,7.72978e-06,8.4414e-05,-6.9962e-06,7.39927e-06,-3.02218e-07,0
-3.18363e-05,1.22118e-05,-1.7005e-05,6.4267e-06,7.79789e-05,-3.9377e-06,1.05792e-05,-9.35996e-08,0
-2.89717e-05,1.39337e-05,-1.0666e-05,5.65798e-06,3.73951e-05,-9.61215e-07,1.3631e-05,-7.86017e-07,0
-2.80016e-05,1.40314e-05,-5.92594e-06,4.92985e-06,-1.54934e-05,-1.34095e-06,1.67194e-05,-1.50059e-06,0
-2.85029e-05,1.43978e-05,-9.12642e-07,4.25475e-06,-5.87999e-05,-5.32939e-06,1.9332e-05,-2.90492e-06,0
-2.80525e-05,1.65663e-05,4.87526e-06,3.52238e-06,-7.74314e-05,-9.88308e-06,2.12251e-05,-4.15323e-06,0
-2.69873e-05,1.84699e-05,8.91654e-06,2.57413e-06,-7.15488e-05,-1.19875e-05,2.23331e-05,-3.91219e-06,0
-2.80328e-05,1.83247e-05,8.00651e-06,-4.34156e-07,-6.15159e-05,-1.15409e-05,2.15952e-05,-2.87835e-06,0
-3.19757e-05,1.70386e-05,2.68742e-06,-2.81002e-06,-6.52863e-05,-1.1045e-05,1.99785e-05,-2.1704e-06,0
-3.49326e-05,1.57505e-05,-2.21408e-06,-2.83197e-06,-7.41714e-05,-1.18834e-05,1.8681e-05,-2.07222e-06,0
-3.45016e-05,1.59458e-05,-3.77286e-06,-2.36872e-06,-6.33063e-05,-1.2506e-05,1.78998e-05,-2.51709e-06,0
-3.23515e-05,1.64518e-05,-3.07049e-06,-1.71587e-06,-3.41593e-05,-1.16649e-05,1.69889e-05,-3.65587e-06,0
-3.04346e-05,1.52499e-05,-2.92929e-06,-2.09592e-06,-5.21825e-06,-1.04571e-05,1.54853e-05,-4.54426e-06,0
-2.96837e-05,1.30394e-05,-3.84466e-06,-3.22416e-06,1.98558e-05,-9.57229e-06,1.27242e-05,-4.60742e-06,0
-2.92842e-05,1.16403e-05,-3.73195e-06,-1.82939e-06,4.66064e-05,-7.18501e-06,1.15783e-05,-3.73019e-06,0
-2.95519e-05,1.12591e-05,-1.71839e-06,7.98732e-07,7.70043e-05,-3.35228e-06,1.14755e-05,-2.26844e-06,0
-2.93085e-05,1.04468e-05,2.37079e-07,2.62111e-06,9.31399e-05,3.06126e-07,1.04074e-05,-1.84575e-06,0
-2.82164e-05,7.0712e-06,-3.68973e-07,3.608e-06,8.84295e-05,8.44937e-07,9.7977e-06,-1.10236e-06,0
-2.83605e-05,3.6283e-06,-2.20752e-06,1.63262e-06,8.21882e-05,-1.29601e-06,9.0866e-06,-1.42923e-06,0
-2.85932e-05,3.62765e-06,-2.88918e-06,-3.20605e-06,7.12554e-05,-3.40387e-06,8.74287e-06,-5.56117e-06,0
-3.07373e-05,3.95365e-06,-3.96532e-06,-8.15762e-06,4.76986e-05,-4.496e-06,6.71493e-06,-1.01032e-05,0
-3.30316e-05,3.03934e-06,-5.1656e-06,-1.13689e-05,2.21547e-05,-5.66127e-06,3.98248e-06,-1.2004e-05,0
-3.42403e-05,2.05371e-06,-6.81006e-06,-1.21148e-05,9.64245e-06,-6.32396e-06,1.93238e-06,-1.06138e-05,0
-3.67003e-05,6.71818e-07,-6.85336e-06,-1.17671e-05,6.92851e-06,-6.31033e-06,1.07726e-06,-6.5302e-06,0
-3.71505e-05,-1.59563e-06,-4.36778e-06,-1.26789e-05,9.76956e-06,-7.63848e-06,2.25791e-06,-2.76095e-06,0
-3.47229e-05,-3.61286e-06,3.08285e-08,-1.62431e-05,1.81053e-05,-8.6496e-06,3.28249e-06,-1.8435e-06,0
-3.2297e-05,-3.93179e-06,5.31005e-06,-1.97645e-05,2.80588e-05,-8.58452e-06,3.61848e-06,-1.88403e-06,0
-3.13386e-05,-2.71559e-06,7.78263e-06,-1.96363e-05,3.45067e-05,-7.60088e-06,4.59433e-06,-7.99377e-07,0
-3.03362e-05,-7.94963e-07,6.19603e-06,-1.67701e-05,3.66165e-05,-6.60818e-06,6.49488e-06,-6.57749e-07,0
-2.89375e-05,-1.17046e-06,2.06435e-06,-1.43532e-05,3.99713e-05,-6.27839e-06,8.84195e-06,-1.73954e-06,0
-2.84512e-05,-5.03363e-06,-2.77058e-06,-1.44228e-05,4.42564e-05,-6.61247e-06,1.27921e-05,-1.58676e-06,0
-2.8724e-05,-9.22119e-06,-8.12533e-06,-1.43288e-05,4.88813e-05,-6.75639e-06,1.80292e-05,1.11749e-07,0
-2.8784e-05,-1.00847e-05,-1.3746e-05,-1.08437e-05,5.06283e-05,-5.95809e-06,2.34431e-05,1.91081e-06,0
-2.94883e-05,-8.26536e-06,-1.86157e-05,-5.27525e-06,4.83198e-05,-5.77286e-06,2.90784e-05,3.20051e-06,0
-3.05571e-05,-8.06124e-06,-2.05662e-05,-1.7226e-06,4.28325e-05,-7.77505e-06,3.56207e-05,3.83848e-06,0
-3.0692e-05,-9.06387e-06,-1.91566e-05,-9.00682e-07,3.58717e-05,-1.06144e-05,4.16462e-05,3.48837e-06,0
-3.06177e-05,-6.87931e-06,-1.59731e-05,-8.74479e-07,2.47049e-05,-1.26347e-05,4.5253e-05,1.66718e-06,0
-3.09405e-05,-2.22999e-06,-1.30321e-05,6.75131e-07,1.22949e-05,-1.37472e-05,4.54257e-05,-9.11313e-07,0
-3.15498e-05,9.57283e-07,-1.22396e-05,3.96461e-06,5.31196e-06,-1.45998e-05,4.32146e-05,-2.53792e-06,0
-3.19285e-05,2.56829e-06,-1.5607e-05,6.97801e-06,5.32657e-06,-1.56032e-05,3.85159e-05,-3.20813e-06,0
-3.23577e-05,3.23168e-06,-2.27007e-05,8.44518e-06,9.19045e-06,-1.5907e-05,3.18901e-05,-3.82455e-06,0
-3.28711e-05,3.01132e-06,-2.7409e-05,7.75869e-06,1.44705e-05,-1.56775e-05,2.74082e-05,-4.33675e-06,0
-3.30583e-05,3.16021e-06,-2.10468e-05,4.51983e-06,1.89083e-05,-1.62409e-05,2.41246e-05,-3.9763e-06,0
-3.24138e-05,3.48106e-06,-9.68133e-06,6.04867e-07,2.02328e-05,-1.81923e-05,2.13552e-05,-2.71521e-06,0
-3.2236e-05,3.79577e-06,-2.07093e-06,1.09492e-06,1.9577e-05,-1.77265e-05,1.7502e-05,-1.29341e-07,0
-3.16559e-05,4.86472e-06,2.0699e-07,4.58453e-06,1.86637e-05,-1.43489e-05,1.31817e-05,1.03215e-06,0
-2.90266e-05,7.65123e-06,-4.32724e-06,7.18315e-06,1.77517e-05,-1.22312e-05,7.26657e-06,-1.907e-06,0
-2.71318e-05,8.58072e-06,-1.23881e-05,8.05612e-06,1.61087e-05,-1.21316e-05,-5.41936e-06,-4.41641e-06,0
-2.64331e-05,6.08813e-06,-1.93161e-05,6.27663e-06,1.41936e-05,-1.1865e-05,-1.78629e-05,-4.0075e-06,0
-2.64546e-05,4.74768e-06,-2.10403e-05,3.22494e-06,1.25594e-05,-1.11979e-05,-2.26448e-05,-1.41231e-06,0
-2.70181e-05,5.49463e-06,-1.90978e-05,-5.16112e-07,1.22296e-05,-1.13977e-05,-2.0338e-05,2.28413e-06,0
-2.79271e-05,7.83868e-06,-1.72315e-05,-3.83012e-06,1.10935e-05,-1.23124e-05,-1.47867e-05,4.30841e-06,0
-2.79646e-05,1.05752e-05,-1.69064e-05,-6.96625e-06,1.08486e-05,-1.19386e-05,-1.33361e-05,3.722e-06,0
-2.73162e-05,1.32425e-05,-1.71668e-05,-1.02419e-05,1.13297e-05,-9.85531e-06,-1.56402e-05,3.24935e-06,0
-2.69263e-05,1.64412e-05,-1.8247e-05,-1.29653e-05,1.20281e-05,-9.68869e-06,-1.60103e-05,4.68537e-06,0
-2.66994e-05,2.10957e-05,-1.99611e-05,-1.55652e-05,1.4022e-05,-1.12622e-05,-1.32686e-05,5.81018e-06,0
-2.73737e-05,2.58357e-05,-2.16686e-05,-1.85427e-05,1.70684e-05,-1.22451e-05,-8.82252e-06,5.04028e-06,0
-2.80693e-05,2.8289e-05,-2.12547e-05,-1.97706e-05,1.78592e-05,-1.20834e-05,-2.98639e-06,4.56631e-06,0
-2.91506e-05,2.87689e-05,-1.76022e-05,-1.66732e-05,1.40593e-05,-1.16408e-05,3.6796e-06,5.60978e-06,0
-3.02377e-05,2.80841e-05,-1.22673e-05,-1.28628e-05,8.89588e-06,-1.21417e-05,8.8937e-06,6.50912e-06,0
-2.98411e-05,2.69334e-05,-6.74127e-06,-1.2232e-05,6.31254e-06,-1.41441e-05,1.28731e-05,6.4879e-06,0
-2.86752e-05,2.62034e-05,-3.27823e-06,-1.44369e-05,7.79064e-06,-1.49172e-05,1.70835e-05,6.1257e-06,0
-2.91071e-05,2.55263e-05,-2.40277e-06,-1.66831e-05,1.04532e-05,-1.11831e-05,2.06131e-05,5.97897e-06,0
-3.03615e-05,2.40088e-05,-2.60861e-06,-1.55665e-05,1.22035e-05,-5.61962e-06,2.15752e-05,6.2404e-06,0
-3.07407e-05,2.38848e-05,-1.73439e-06,-8.87998e-06,1.43017e-05,-3.1712e-06,2.22766e-05,6.42887e-06,0
-3.07411e-05,2.71398e-05,-2.17981e-06,3.64976e-07,1.86091e-05,-4.27494e-06,2.34415e-05,4.79888e-06,0
-3.11365e-05,3.03833e-05,-4.6942e-06,8.27042e-06,2.30214e-05,-5.71582e-06,2.50746e-05,2.45775e-06,0
-3.22091e-05,2.98601e-05,-5.83838e-06,9.236e-06,2.34644e-05,-5.63187e-06,2.73134e-05,1.8366e-06,0
-3.22423e-05,2.884e-05,-6.34475e-06,4.16183e-06,2.14353e-05,-4.57255e-06,2.79989e-05,2.44956e-06,0
-2.97319e-05,2.86218e-05,-8.62028e-06,-2.44623e-07,2.12198e-05,-4.08553e-06,2.69576e-05,1.20676e-06,0
-2.80264e-05,2.67529e-05,-1.17521e-05,-3.24797e-06,2.13953e-05,-5.30231e-06,2.43725e-05,-1.0339e-06,0
-2.93513e-05,2.30742e-05,-1.35431e-05,-3.14371e-06,1.94829e-05,-6.97664e-06,2.25299e-05,-5.86675e-07,0
-3.06004e-05,2.11637e-05,-1.29387e-05,-4.78829e-07,1.9454e-05,-5.92659e-06,2.14363e-05,1.02243e-06,0
-2.96559e-05,2.27766e-05,-1.33942e-05,2.36428e-07,2.15556e-05,-3.98744e-06,1.68511e-05,1.76341e-06,0
-2.81713e-05,2.43509e-05,-1.60336e-05,-3.49961e-06,2.05485e-05,-3.56713e-06,6.46785e-06,3.17834e-06,0
-2.90314e-05,2.50052e-05,-1.82721e-05,-9.07315e-06,1.66519e-05,-4.71003e-06,-3.34279e-06,4.46079e-06,0
-2.98455e-05,2.62189e-05,-1.71029e-05,-1.28144e-05,1.2047e-05,-5.88446e-06,-5.58823e-06,3.13299e-06,0
-2.84516e-05,2.8378e-05,-1.40126e-05,-1.53391e-05,8.95709e-06,-4.95603e-06,-5.26287e-06,8.30546e-07,0
-2.58491e-05,2.90737e-05,-1.38471e-05,-1.83715e-05,4.91428e-06,-2.74754e-06,-1.42203e-05,-1.22859e-06,0
-2.38929e-05,2.65607e-05,-1.68047e-05,-2.13212e-05,-1.4347e-06,-2.77721e-06,-2.79253e-05,-1.95784e-06,0
-2.46929e-05,2.30133e-05,-1.97582e-05,-2.26047e-05,-7.82756e-06,-6.0271e-06,-2.73184e-05,-1.73237e-06,0
-2.61277e-05,2.13048e-05,-2.05394e-05,-2.07291e-05,-1.27861e-05,-9.53102e-06,-6.86328e-06,-1.63087e-06,0
-2.61213e-05,2.1254e-05,-2.0431e-05,-1.76458e-05,-1.62368e-05,-1.10629e-05,2.07362e-05,-7.05094e-07,0
-2.55015e-05,1.93698e-05,-2.00294e-05,-1.68324e-05,-1.96497e-05,-1.1753e-05,3.67981e-05,1.2765e-06,0
-2.63723e-05,1.46643e-05,-2.02146e-05,-1.80532e-05,-2.24891e-05,-1.30627e-05,3.74209e-05,3.19657e-06,0
-2.79931e-05,1.00268e-05,-2.2016e-05,-1.78537e-05,-2.13034e-05,-1.31082e-05,3.08182e-05,4.50839e-06,0
-2.88783e-05,7.98945e-06,-2.31154e-05,-1.29904e-05,-1.20714e-05,-9.81425e-06,2.38442e-05,6.3489e-06,0
-2.91316e-05,7.7784e-06,-1.98175e-05,-3.58256e-06,2.69859e-06,-4.64808e-06,1.79627e-05,7.9933e-06,0
-2.87655e-05,6.10517e-06,-1.40886e-05,8.13091e-06,1.6694e-05,-2.15103e-06,1.37778e-05,9.09003e-06,0
-2.9521e-05,1.58064e-06,-9.56521e-06,1.96492e-05,2.52507e-05,-2.44364e-06,1.13478e-05,9.99747e-06,0
-3.15603e-05,-2.46385e-06,-5.5228e-06,2.75872e-05,2.73652e-05,-4.40433e-06,9.33814e-06,1.01514e-05,0
-3.36817e-05,-3.67037e-06,-9.02199e-07,2.98e-05,2.53139e-05,-7.32617e-06,9.81319e-06,8.38084e-06,0
-3.45154e-05,-3.0701e-06,2.29555e-06,2.68098e-05,2.08e-05,-9.38574e-06,1.46269e-05,6.45853e-06,0
-3.37949e-05,-3.23933e-06,4.06909e-06,2.123e-05,1.60612e-05,-1.11941e-05,1.99328e-05,5.6099e-06,0
-3.34171e-05,-4.10278e-06,7.51629e-06,1.58783e-05,1.47888e-05,-1.30017e-05,2.19915e-05,3.63961e-06,0
-3.39889e-05,-2.48905e-06,9.67891e-06,8.10971e-06,1.32808e-05,-1.52472e-05,2.37736e-05,1.49296e-06,0
-3.44118e-05,3.53593e-06,1.00295e-05,-2.14546e-06,7.84681e-06,-1.6036e-05,2.71938e-05,9.49443e-07,0
-3.23043e-05,1.09854e-05,1.10578e-05,-7.97584e-06,1.28421e-06,-1.43935e-05,3.02026e-05,3.9296e-07,0
-3.00893e-05,1.57829e-05,1.04402e-05,-1.02757e-05,-3.44076e-06,-1.4464e-05,2.89134e-05,-2.0032e-06,0
-3.01268e-05,1.86206e-05,9.03646e-06,-1.29117e-05,-6.63608e-06,-1.56706e-05,2.44261e-05,-4.19638e-06,0
-2.92879e-05,2.02828e-05,8.88692e-06,-1.72563e-05,-8.64561e-06,-1.70588e-05,2.00967e-05,-3.41475e-06,0
-2.80861e-05,2.26243e-05,9.92693e-06,-2.472e-05,-1.06784e-05,-1.7897e-05,1.41814e-05,-7.59013e-07,0
-2.72092e-05,2.3879e-05,9.22111e-06,-3.17222e-05,-1.1371e-05,-1.653e-05,5.15659e-06,8.3699e-07,0
-2.76209e-05,2.47511e-05,6.56895e-06,-3.53681e-05,-6.86222e-06,-1.3433e-05,-2.29525e-06,1.58972e-06,0
-2.9456e-05,2.64506e-05,4.33704e-06,-3.18103e-05,2.74418e-06,-1.00181e-05,-4.0674e-06,3.03808e-06,0
-3.00635e-05,2.67113e-05,1.17882e-06,-2.47461e-05,1.46734e-05,-7.76911e-06,4.30148e-07,4.29183e-06,0
-2.87955e-05,2.5766e-05,-6.1042e-06,-1.95536e-05,2.51302e-05,-6.58827e-06,6.62379e-06,3.99285e-06,0
-2.76971e-05,2.4139e-05,-1.70162e-05,-1.5181e-05,3.47675e-05,-6.46203e-06,1.11747e-05,2.70309e-06,0
-2.78989e-05,2.23753e-05,-2.51253e-05,-1.13439e-05,4.57554e-05,-7.69528e-06,1.66611e-05,6.23879e-07,0
-2.97944e-05,1.94897e-05,-2.80545e-05,-8.95737e-06,5.41712e-05,-1.00395e-05,2.39242e-05,-1.7599e-06,0
-3.29882e-05,1.51229e-05,-2.80583e-05,-5.98525e-06,5.14755e-05,-1.23288e-05,3.16491e-05,-2.79572e-06,0
-3.58925e-05,1.11757e-05,-2.60664e-05,1.57635e-06,3.85604e-05,-1.38272e-05,4.00093e-05,-2.19261e-06,0
-3.71536e-05,1.03312e-05,-2.29318e-05,1.3001e-05,2.49835e-05,-1.35825e-05,4.9944e-05,-1.28979e-06,0
-3.62276e-05,1.02212e-05,-2.25575e-05,2.58566e-05,1.89235e-05,-1.15577e-05,5.97374e-05,-1.27804e-06,0
-3.42182e-05,7.64699e-06,-2.79166e-05,3.58475e-05,2.28719e-05,-8.91045e-06,6.67049e-05,-2.16034e-06,0
-3.23835e-05,1.87543e-06,-3.58531e-05,4.05866e-05,3.16297e-05,-6.13125e-06,6.91203e-05,-2.22152e-06,0
-3.13743e-05,-2.92718e-06,-3.90494e-05,3.92328e-05,3.33867e-05,-3.18346e-06,6.70706e-05,-1.04752e-06,0
-3.15165e-05,-4.52354e-06,-3.41514e-05,3.24756e-05,2.4172e-05,-2.59831e-06,6.04858e-05,-9.45247e-07,0
-3.24954e-05,-3.24297e-06,-2.53826e-05,2.13357e-05,1.45933e-05,-4.8521e-06,5.15022e-05,-1.92607e-06,0
-3.15478e-05,2.06199e-06,-2.00312e-05,9.58855e-06,1.10197e-05,-6.22551e-06,4.13546e-05,-3.38697e-06,0
-2.98109e-05,7.60393e-06,-1.82122e-05,8.49761e-07,6.79351e-06,-5.13793e-06,3.12475e-05,-2.96594e-06,0
-2.85748e-05,9.33016e-06,-1.55374e-05,-2.35126e-06,-4.24422e-07,-4.19512e-06,2.47622e-05,-1.0287e-06,0
-2.87945e-05,8.70924e-06,-1.06018e-05,6.2565e-07,-7.38408e-07,-4.49563e-06,2.11738e-05,-5.3752e-07,0
-3.04616e-05,7.7817e-06,-4.96931e-06,3.80126e-06,2.60068e-05,-3.7405e-06,1.87477e-05,7.49155e-07,0
-3.20701e-05,6.05966e-06,1.68961e-07,1.54689e-06,0.000115812,-4.93298e-06,1.57697e-05,1.8759e-06,0
-3.33436e-05,7.80463e-06,7.04104e-06,-2.15389e-06,0.000232779,-8.47603e-06,1.02793e-05,1.66507e-06,0
-3.33816e-05,1.26187e-05,1.29535e-05,-2.20103e-06,0.00025413,-9.72828e-06,5.2888e-06,1.70084e-06,0
-3.27134e-05,1.55744e-05,1.34097e-05,-2.735e-06,0.000151694,-1.01555e-05,4.34429e-07,3.29176e-06,0
-3.14028e-05,1.56237e-05,9.56958e-06,-5.38286e-06,2.40421e-05,-1.08238e-05,-7.50786e-06,5.83134e-06,0
-2.97326e-05,1.45097e-05,8.31712e-06,-9.51606e-06,-5.40411e-05,-1.18624e-05,-1.58415e-05,5.54411e-06,0
-2.77155e-05,1.40889e-05,1.22885e-05,-1.2536e-05,-9.64113e-05,-1.17114e-05,-2.03289e-05,2.18352e-06,0
-2.736e-05,1.44708e-05,1.53029e-05,-1.13753e-05,-0.00013436,-8.81447e-06,-2.21973e-05,-1.69846e-06,0
-2.87761e-05,1.4286e-05,1.48101e-05,-8.25963e-06,-0.000165471,-4.38847e-06,-2.17117e-05,-3.69799e-06,0
-2.92844e-05,1.22866e-05,1.3648e-05,-3.61305e-06,-0.000171764,8.96477e-08,-1.65487e-05,-4.97706e-06,0
-2.93548e-05,1.04517e-05,1.19619e-05,4.46051e-07,-0.000140625,1.85754e-06,-1.09795e-05,-5.8274e-06,0
-3.10833e-05,8.78223e-06,7.35199e-06,-1.59286e-07,-8.69822e-05,-6.76628e-07,-1.05158e-05,-4.47396e-06,0
-3.37239e-05,7.33281e-06,-1.12682e-06,-6.59358e-06,-4.33906e-05,-6.43563e-06,-1.42326e-05,-2.38893e-06,0
-3.55745e-05,7.87792e-06,-1.13916e-05,-1.48712e-05,-1.95296e-05,-1.14368e-05,-1.76892e-05,-1.002e-06,0
-3.64817e-05,1.14984e-05,-1.90495e-05,-1.86033e-05,5.94219e-07,-1.26603e-05,-1.79923e-05,1.21377e-06,0
-3.55822e-05,1.49709e-05,-2.13985e-05,-1.62601e-05,2.41668e-05,-1.10793e-05,-1.47123e-05,4.00663e-06,0
-3.24617e-05,1.59356e-05,-1.86998e-05,-1.19196e-05,4.39779e-05,-9.94213e-06,-9.94422e-06,4.82451e-06,0
-2.9412e-05,1.68725e-05,-1.25872e-05,-1.07033e-05,5.31407e-05,-9.73368e-06,-5.76835e-06,2.89458e-06,0
-2.95241e-05,1.97219e-05,-4.91991e-06,-1.17012e-05,5.32763e-05,-8.93727e-06,-3.60214e-06,-8.55006e-07,0
-3.11778e-05,2.24163e-05,4.21161e-07,-1.10848e-05,5.12456e-05,-6.57596e-06,-3.53239e-06,-3.11553e-06,0
-3.10776e-05,2.32911e-05,-6.63878e-07,-8.80643e-06,4.99514e-05,-3.50427e-06,-3.72611e-06,-3.51877e-06,0
-3.05909e-05,2.30464e-05,-5.8878e-06,-8.6565e-06,4.78177e-05,-2.25767e-06,-3.00098e-06,-3.97856e-06,0
-3.19234e-05,2.24263e-05,-7.97867e-06,-8.51094e-06,4.46425e-05,-4.02046e-06,-2.48769e-06,-5.30756e-06,0
-3.23729e-05,2.35046e-05,-6.49296e-06,-6.5305e-06,3.95968e-05,-6.80595e-06,-3.60228e-06,-5.34222e-06,0
-3.10896e-05,2.49947e-05,-6.00704e-06,-5.15864e-06,3.277e-05,-8.67703e-06,-7.50504e-06,-1.67389e-06,0
-2.98307e-05,2.65089e-05,-4.58692e-06,-4.93906e-06,2.73319e-05,-9.22128e-06,-1.25142e-05,1.16434e-06,0
-2.76969e-05,2.73819e-05,3.52695e-07,-6.61238e-06,2.53971e-05,-8.96249e-06,-1.50336e-05,9.09492e-07,0
-2.49844e-05,2.68135e-05,5.08911e-06,-6.04871e-06,2.50494e-05,-6.87313e-06,-1.24024e-05,-1.059e-06,0
-2.51509e-05,2.57279e-05,6.24357e-06,-5.18095e-06,2.21964e-05,-5.0572e-06,-7.13123e-06,-2.79916e-06,0
-2.81731e-05,2.33588e-05,3.9484e-06,-9.94801e-06,1.33604e-05,-6.93724e-06,-4.08084e-06,-1.83185e-06,0
-3.03427e-05,2.12505e-05,-1.15195e-07,-1.7609e-05,-1.56845e-06,-1.04499e-05,-3.04801e-06,4.67559e-07,0
-3.06368e-05,2.12262e-05,-4.3968e-06,-2.35391e-05,-2.11231e-05,-1.32938e-05,-2.06315e-06,1.5677e-06,0
-2.87006e-05,2.23981e-05,-7.31015e-06,-2.48164e-05,-4.43933e-05,-1.45167e-05,1.41052e-06,5.61672e-07,0
-2.69089e-05,2.4111e-05,-8.58852e-06,-2.34955e-05,-5.80992e-05,-1.4688e-05,5.39204e-06,-4.70385e-07,0
-2.86864e-05,2.4801e-05,-9.13911e-06,-2.12156e-05,-4.65085e-05,-1.4195e-05,6.97209e-06,5.74284e-07,0
-3.22528e-05,2.4362e-05,-9.4664e-06,-1.81592e-05,-1.91476e-05,-1.4461e-05,8.29867e-06,3.09161e-06,0
-3.45607e-05,2.39978e-05,-1.01405e-05,-1.26632e-05,4.96479e-06,-1.56796e-05,1.50058e-05,4.27888e-06,0
-3.47492e-05,2.34311e-05,-1.11771e-05,-5.54001e-06,2.19923e-05,-1.6759e-05,2.7873e-05,5.67182e-06,0
-3.44783e-05,2.20652e-05,-1.41164e-05,-2.70344e-07,3.68866e-05,-1.75363e-05,3.82943e-05,8.51326e-06,0
-3.4798e-05,2.06463e-05,-1.73958e-05,3.33912e-06,4.98663e-05,-1.73515e-05,5.16966e-05,1.07224e-05,0
-3.53282e-05,1.99344e-05,-1.90729e-05,9.14164e-06,5.53863e-05,-1.66121e-05,9.32279e-05,9.69989e-06,0
-3.5386e-05,2.00252e-05,-1.85366e-05,1.87935e-05,5.19738e-05,-1.6577e-05,0.000154395,5.21548e-06,0
-3.37241e-05,2.12017e-05,-1.66719e-05,2.63406e-05,4.48068e-05,-1.66503e-05,0.00018515,3.95806e-07,0
-3.10767e-05,2.33567e-05,-1.49407e-05,2.54854e-05,4.05464e-05,-1.50051e-05,0.000146971,-2.55503e-06,0
-2.98331e-05,2.52752e-05,-1.23639e-05,1.63081e-05,3.95e-05,-1.26188e-05,4.41395e-05,-2.80756e-06,0
-3.1147e-05,2.49951e-05,-9.76184e-06,4.48336e-06,3.9521e-05,-1.15216e-05,-6.14371e-05,-2.04521e-06,0
-3.34401e-05,2.32742e-05,-1.03244e-05,-5.48088e-06,4.08609e-05,-1.16624e-05,-0.000109077,-2.3376e-06,0
-3.4208e-05,2.08865e-05,-1.40606e-05,-1.2708e-05,4.35851e-05,-1.14277e-05,-0.00010998,-3.73923e-06,0
-3.2779e-05,1.75559e-05,-1.5776e-05,-1.78587e-05,4.09829e-05,-1.02628e-05,-9.75401e-05,-4.84319e-06,0
-3.06367e-05,1.23779e-05,-1.30051e-05,-1.80321e-05,2.7669e-05,-8.75131e-06,-8.06162e-05,-5.35324e-06,0
-3.05043e-05,5.69501e-06,-8.83943e-06,-1.39663e-05,1.34828e-05,-6.99201e-06,-6.33221e-05,-3.94256e-06,0
-3.23059e-05,-4.07194e-07,-5.82993e-06,-7.16905e-06,1.2949e-05,-7.31546e-06,-4.77497e-05,-2.42542e-06,0
-3.27713e-05,-2.23163e-06,-3.2256e-06,9.49622e-07,2.83884e-05,-8.48695e-06,-3.37348e-05,-2.73747e-06,0
-3.14624e-05,7.53377e-07,-1.34975e-06,7.18714e-06,5.04895e-05,-7.36566e-06,-1.71009e-05,-3.90067e-06,0
-3.06365e-05,2.96519e-06,-2.61681e-06,9.07396e-06,6.18701e-05,-5.24994e-06,-5.66255e-07,-2.8184e-06,0
-3.07899e-05,1.98741e-06,-6.09852e-06,1.88036e-06,5.8287e-05,-3.63993e-06,8.58085e-06,1.63523e-06,0
-2.8481e-05,-9.01479e-07,-8.61569e-06,-1.25683e-05,4.67807e-05,-4.25097e-06,1.5178e-05,6.03008e-06,0
-2.6223e-05,-3.67976e-06,-8.95418e-06,-2.60138e-05,3.02281e-05,-6.28437e-06,2.21687e-05,7.20554e-06,0
-2.74364e-05,-3.57829e-06,-7.91319e-06,-3.40079e-05,1.48154e-05,-8.12449e-06,2.61688e-05,5.56562e-06,0
-3.00493e-05,-2.20872e-06,-6.90959e-06,-3.75227e-05,-3.76738e-06,-1.03122e-05,2.68396e-05,4.23121e-06,0
-3.11976e-05,-6.3556e-07,-2.80009e-06,-3.67972e-05,-2.4226e-05,-1.28148e-05,3.01215e-05,4.22788e-06,0
-2.97819e-05,2.02742e-06,8.22912e-06,-3.22922e-05,-3.44246e-05,-1.44007e-05,3.67597e-05,4.5042e-06,0
-2.88464e-05,4.69701e-06,2.92964e-05,-2.70817e-05,-3.02693e-05,-1.50592e-05,4.33994e-05,3.8505e-06,0
-2.91281e-05,6.19296e-06,5.20967e-05,-2.51902e-05,-1.53648e-05,-1.50131e-05,4.7316e-05,3.01761e-06,0
-3.00502e-05,6.58925e-06,6.63962e-05,-2.64881e-05,3.713e-06,-1.47687e-05,4.42314e-05,2.97696e-06,0
-3.04699e-05,7.13778e-06,6.83379e-05,-2.49559e-05,1.79216e-05,-1.37028e-05,3.43705e-05,3.39954e-06,0
-3.03809e-05,7.58017e-06,5.67384e-05,-1.89415e-05,1.85693e-05,-1.18629e-05,2.3159e-05,1.83048e-06,0
-3.09747e-05,7.89255e-06,3.28587e-05,-1.18532e-05,7.04709e-06,-1.09495e-05,1.45294e-05,-1.67087e-06,0
-3.16073e-05,7.76966e-06,-2.18595e-06,-7.35811e-06,-7.97734e-06,-1.09334e-05,9.34079e-06,-5.67986e-06,0
-3.04468e-05,6.83508e-06,-4.0831e-05,-7.88456e-06,-1.85451e-05,-1.15522e-05,7.09337e-06,-7.71121e-06,0
-2.83683e-05,4.82122e-06,-7.29969e-05,-1.40754e-05,-2.35943e-05,-1.2834e-05,5.82732e-06,-5.78359e-06,0
-2.7341e-05,3.27694e-06,-8.94368e-05,-2.44379e-05,-2.47289e-05,-1.43014e-05,6.31967e-06,-2.42125e-06,0
-2.78678e-05,3.27272e-06,-8.92264e-05,-3.63168e-05,-2.5538e-05,-1.54634e-05,1.02885e-05,-1.06128e-06,0
-3.04828e-05,1.88948e-06,-7.67532e-05,-4.79973e-05,-3.31105e-05,-1.81112e-05,1.52002e-05,-2.31813e-06,0
-3.32885e-05,-4.1098e-06,-6.15544e-05,-5.71252e-05,-4.82442e-05,-2.23584e-05,1.72785e-05,-3.81048e-06,0
-3.41102e-05,-1.18654e-05,-4.98147e-05,-5.99662e-05,-5.83296e-05,-2.55828e-05,1.75708e-05,-5.01079e-06,0
-3.34459e-05,-1.61113e-05,-3.9997e-05,-5.50563e-05,-5.41973e-05,-2.49107e-05,1.81771e-05,-4.70018e-06,0
-3.28859e-05,-1.56122e-05,-3.22217e-05,-4.35881e-05,-4.04131e-05,-2.12013e-05,1.94273e-05,-1.25922e-06,0
-3.28942e-05,-1.2296e-05,-2.92521e-05,-2.10608e-05,-2.48096e-05,-1.77077e-05,2.14178e-05,1.02344e-06,0
-3.2757e-05,-9.08454e-06,-2.88753e-05,1.29117e-05,-1.05504e-05,-1.54678e-05,2.24339e-05,3.97014e-07,0
-3.20221e-05,-7.21589e-06,-2.36443e-05,5.25733e-05,6.34614e-06,-1.29341e-05,2.19692e-05,4.23319e-07,0
-3.12639e-05,-7.47404e-06,-1.50268e-05,8.48661e-05,2.63604e-05,-1.13874e-05,2.39694e-05,2.01486e-06,0
-3.10777e-05,-8.75113e-06,-8.55338e-06,9.99963e-05,4.27589e-05,-1.21093e-05,2.70024e-05,3.31073e-06,0
-3.10485e-05,-8.58916e-06,-3.45433e-06,0.000100805,5.00448e-05,-1.27946e-05,2.71922e-05,1.01545e-06,0
-2.98862e-05,-7.33659e-06,2.16338e-06,9.12774e-05,5.2285e-05,-1.21389e-05,2.54159e-05,-2.84187e-06,0
-2.76542e-05,-5.25092e-06,6.81596e-06,7.6232e-05,5.5274e-05,-9.94084e-06,2.45846e-05,-3.70137e-06,0
-2.61965e-05,-2.43047e-06,8.84196e-06,5.44958e-05,5.79807e-05,-8.37546e-06,2.64778e-05,-1.82099e-06,0
-2.63389e-05,-2.07515e-06,8.83838e-06,3.24647e-05,5.71885e-05,-7.95892e-06,2.95017e-05,4.11715e-07,0
-2.73242e-05,-2.00894e-06,6.40081e-06,1.83842e-05,5.19073e-05,-7.39326e-06,3.08332e-05,2.95911e-06,0
-2.77959e-05,-8.84776e-07,3.89181e-06,9.89213e-06,4.60832e-05,-7.56795e-06,3.06253e-05,5.3081e-06,0
-2.78558e-05,1.73048e-06,3.6849e-06,1.38843e-07,4.20326e-05,-9.3188e-06,3.47434e-05,5.07913e-06,0
-2.7793e-05,5.89737e-06,3.16792e-06,-1.37882e-05,3.94347e-05,-1.06665e-05,4.35188e-05,3.19196e-06,0
-2.74517e-05,8.41575e-06,1.17116e-06,-2.76997e-05,3.75386e-05,-1.01422e-05,4.83165e-05,2.63611e-06,0
-2.78457e-05,7.28495e-06,-1.23e-06,-3.7351e-05,3.42844e-05,-8.53209e-06,4.21603e-05,4.04039e-06,0
-2.95876e-05,4.54021e-06,-1.68953e-06,-4.49113e-05,2.89604e-05,-7.1021e-06,2.93088e-05,5.96888e-06,0
-3.12708e-05,3.45532e-06,-8.85581e-08,-5.48157e-05,2.24303e-05,-6.34063e-06,1.88053e-05,7.18787e-06,0
-3.17167e-05,2.48465e-06,2.78985e-06,-6.07696e-05,1.60396e-05,-6.52923e-06,1.4068e-05,6.90904e-06,0
-3.20853e-05,9.54606e-07,5.33268e-06,-5.29341e-05,1.1646e-05,-7.73888e-06,1.29442e-05,6.1373e-06,0
-3.34104e-05,4.61204e-07,5.72483e-06,-3.03323e-05,9.32756e-06,-9.38693e-06,1.22499e-05,6.41958e-06,0
-3.47821e-05,2.14727e-06,4.23896e-06,-3.33829e-06,7.19072e-06,-1.04537e-05,1.07602e-05,8.02341e-06,0
-3.4144e-05,3.535e-06,1.01955e-06,1.97957e-05,6.14491e-06,-9.66179e-06,8.64175e-06,8.83538e-06,0
-3.30614e-05,4.08873e-06,-6.42382e-06,3.49773e-05,8.86981e-06,-6.98287e-06,7.12459e-06,7.74765e-06,0
-3.31189e-05,5.09601e-06,-1.59758e-05,3.87983e-05,1.42553e-05,-4.72858e-06,7.51784e-06,6.53667e-06,0
-3.33607e-05,6.50584e-06,-2.20709e-05,2.99467e-05,1.70662e-05,-5.10227e-06,1.06563e-05,5.88946e-06,0
-3.34184e-05,8.21784e-06,-2.39119e-05,1.67575e-05,1.63481e-05,-5.81442e-06,1.42923e-05,4.73809e-06,0
-3.30737e-05,1.2907e-05,-2.2901e-05,8.54104e-06,1.31967e-05,-6.14807e-06,1.53916e-05,3.18298e-06,0
-3.09776e-05,1.83158e-05,-1.9497e-05,3.05814e-06,9.43048e-06,-7.15171e-06,1.60712e-05,1.85049e-06,0
-2.65172e-05,2.20295e-05,-1.30735e-05,-5.8457e-06,6.74161e-06,-8.09407e-06,1.76812e-05,7.22781e-07,0
-2.50827e-05,2.29948e-05,-9.09213e-06,-1.67398e-05,4.90832e-06,-7.27317e-06,1.90665e-05,2.31244e-07,0
-2.83631e-05,1.77084e-05,-9.78256e-06,-2.13439e-05,4.5004e-06,-6.24333e-06,1.89301e-05,1.2779e-06,0
-3.17422e-05,1.06628e-05,-1.06761e-05,-2.08969e-05,4.90948e-06,-9.30706e-06,1.71081e-05,2.4917e-06,0
-3.35979e-05,8.17681e-06,-1.16777e-05,-2.16069e-05,8.12904e-06,-1.31342e-05,1.6489e-05,2.92077e-06,0
-3.42684e-05,1.0296e-05,-1.36416e-05,-2.35933e-05,1.31024e-05,-1.49165e-05,1.58032e-05,4.52138e-06,0
-3.29394e-05,1.34243e-05,-1.72595e-05,-2.43223e-05,1.58794e-05,-1.44724e-05,1.07616e-05,5.97133e-06,0
-3.01522e-05,1.67924e-05,-2.01374e-05,-2.5242e-05,1.55396e-05,-1.25729e-05,1.09778e-06,6.70485e-06,0
-2.84002e-05,1.9297e-05,-1.94447e-05,-2.83383e-05,1.3221e-05,-1.15244e-05,-7.42999e-06,8.1546e-06,0
-2.68285e-05,2.08118e-05,-1.62759e-05,-3.35697e-05,9.81111e-06,-1.13985e-05,-1.32441e-05,9.60067e-06,0
-2.51063e-05,2.20321e-05,-1.43511e-05,-3.59277e-05,7.63871e-06,-1.12749e-05,-2.0909e-05,7.98815e-06,0
-2.48265e-05,2.34744e-05,-1.42452e-05,-3.43536e-05,7.90418e-06,-9.64892e-06,-3.13278e-05,4.83007e-06,0
-2.62607e-05,2.47428e-05,-1.41235e-05,-3.14629e-05,1.02842e-05,-7.86512e-06,-3.83534e-05,3.41167e-06,0
-2.81427e-05,2.42309e-05,-1.45928e-05,-2.72475e-05,1.59196e-05,-6.2919e-06,-3.74793e-05,3.15154e-06,0
-2.96362e-05,2.13375e-05,-1.53578e-05,-2.35788e-05,2.19676e-05,-4.20981e-06,-3.00294e-05,3.48734e-06,0
-2.94708e-05,1.75962e-05,-1.66633e-05,-1.67943e-05,2.27799e-05,-2.51753e-06,-1.78498e-05,4.29806e-06,0
-2.7061e-05,1.53425e-05,-1.80143e-05,-9.00584e-08,1.82775e-05,-1.24683e-06,-3.48353e-06,5.91936e-06,0
-2.49869e-05,1.41898e-05,-1.90945e-05,2.44523e-05,1.39882e-05,4.75334e-07,1.07165e-05,7.68774e-06,0
-2.48368e-05,1.31699e-05,-1.93265e-05,4.5716e-05,1.25478e-05,1.70851e-06,2.24198e-05,8.77503e-06,0
-2.69423e-05,1.24e-05,-1.83585e-05,5.59692e-05,1.28146e-05,5.60972e-07,3.10721e-05,8.92386e-06,0
-3.00527e-05,1.22455e-05,-1.51399e-05,5.18639e-05,1.20741e-05,-2.83213e-06,3.77002e-05,9.23538e-06,0
-3.13522e-05,1.37617e-05,-9.08954e-06,3.24217e-05,9.42832e-06,-4.90687e-06,4.30201e-05,9.70484e-06,0
-2.94333e-05,1.77918e-05,-2.00368e-06,5.17951e-06,6.31798e-06,-4.83807e-06,4.57035e-05,9.16389e-06,0
-2.64007e-05,1.9761e-05,5.53011e-06,-1.41328e-05,6.61288e-06,-4.84839e-06,4.52605e-05,7.58586e-06,0
-2.51483e-05,1.59269e-05,1.0874e-05,-2.03856e-05,1.15692e-05,-4.65455e-06,4.25889e-05,5.19426e-06,0
-2.78452e-05,1.08101e-05,9.57991e-06,-2.27341e-05,1.85333e-05,-5.50278e-06,3.72451e-05,4.50275e-06,0
-3.26483e-05,9.78149e-06,3.29382e-06,-2.9147e-05,2.31917e-05,-7.65557e-06,2.83386e-05,7.52412e-06,0
-3.38167e-05,1.16451e-05,-2.47471e-06,-4.35073e-05,2.22172e-05,-8.62245e-06,1.5607e-05,8.60382e-06,0
-3.13987e-05,1.22633e-05,-4.87943e-06,-5.945e-05,1.63684e-05,-7.72409e-06,2.62011e-06,7.03149e-06,0
-3.03566e-05,1.10581e-05,-6.08661e-06,-6.62089e-05,8.561e-06,-7.70266e-06,-4.87952e-06,5.55609e-06,0
-3.05708e-05,1.06248e-05,-8.58563e-06,-5.7352e-05,3.80726e-06,-7.89337e-06,-7.70414e-06,3.58076e-06,0
-2.96981e-05,1.15112e-05,-1.17604e-05,-3.31766e-05,3.01696e-06,-7.60279e-06,-1.1044e-05,1.35191e-06,0
-2.92847e-05,1.28165e-05,-1.46621e-05,-3.39312e-06,2.15849e-06,-7.03252e-06,-1.4806e-05,4.57445e-08,0
-3.0081e-05,1.36414e-05,-1.50107e-05,2.58564e-05,3.70817e-07,-5.95202e-06,-1.70549e-05,4.03568e-07,0
-3.02001e-05,1.48804e-05,-1.08224e-05,4.63681e-05,1.9282e-06,-5.95032e-06,-2.01043e-05,8.80862e-07,0
-2.97166e-05,1.60937e-05,-5.97863e-06,5.04656e-05,7.63936e-06,-4.95929e-06,-2.24407e-05,1.81244e-06,0
-2.88202e-05,1.47e-05,-4.18474e-06,4.30392e-05,1.39383e-05,-2.49556e-06,-1.67147e-05,2.00636e-06,0
-2.75395e-05,1.10999e-05,-5.71389e-06,3.5946e-05,1.79272e-05,3.61973e-07,-3.68756e-06,9.64059e-07,0
-2.65526e-05,9.11367e-06,-1.25344e-05,3.52475e-05,1.87842e-05,1.84834e-06,9.17467e-06,-9.05486e-07,0
-2.55373e-05,1.03894e-05,-2.09994e-05,3.18336e-05,1.71222e-05,1.40951e-06,1.77846e-05,-3.39747e-06,0
-2.41759e-05,1.35837e-05,-2.21529e-05,2.15405e-05,1.37108e-05,-8.92057e-07,2.27553e-05,-5.86942e-06,0
-2.26134e-05,1.68535e-05,-1.22825e-05,1.08946e-05,1.12284e-05,-4.22347e-06,2.60359e-05,-6.97913e-06,0
-2.26061e-05,1.83671e-05,7.31423e-07,5.53898e-06,1.09333e-05,-7.44733e-06,2.80778e-05,-7.00732e-06,0
-2.44894e-05,1.78841e-05,8.3011e-06,3.72632e-06,1.05419e-05,-1.04186e-05,2.99192e-05,-7.42818e-06,0
-2.64754e-05,1.60654e-05,9.67241e-06,3.15619e-08,6.97416e-06,-1.29056e-05,3.35794e-05,-8.01394e-06,0
-2.6868e-05,1.58581e-05,8.28272e-06,-4.96692e-06,1.66338e-06,-1.52091e-05,4.09765e-05,-8.97885e-06,0
-2.63785e-05,1.8555e-05,7.28069e-06,-6.43326e-06,-1.79782e-06,-1.66887e-05,5.29693e-05,-1.04951e-05,0
-2.63329e-05,2.31156e-05,6.04984e-06,-5.75967e-06,-2.37732e-06,-1.72013e-05,6.23358e-05,-1.07305e-05,0
-2.64876e-05,2.63709e-05,3.43966e-06,-8.06296e-06,-1.96615e-06,-1.624e-05,5.93267e-05,-9.40335e-06,0
-2.7041e-05,2.69073e-05,1.33653e-06,-1.16286e-05,-1.82551e-06,-1.32436e-05,4.28787e-05,-8.50889e-06,0
-2.75964e-05,2.64219e-05,1.42398e-06,-1.09552e-05,-9.28109e-08,-9.09437e-06,1.88889e-05,-8.32484e-06,0
-2.70414e-05,2.7183e-05,1.65479e-06,-3.19024e-06,4.22923e-06,-6.9548e-06,-4.34743e-06,-7.51267e-06,0
-2.60056e-05,2.80901e-05,-6.26754e-07,6.95071e-06,9.83418e-06,-6.99869e-06,-2.04785e-05,-6.28197e-06,0
-2.49838e-05,2.75404e-05,-3.25018e-06,1.11754e-05,1.17611e-05,-7.38704e-06,-2.79541e-05,-7.33795e-06,0
-2.37697e-05,2.60086e-05,-5.62801e-06,7.17337e-06,1.03448e-05,-7.79674e-06,-3.00597e-05,-7.59552e-06,0
-2.46368e-05,2.31863e-05,-8.35012e-06,-3.86578e-06,8.30908e-06,-8.48593e-06,-2.87262e-05,-5.76617e-06,0
-2.69024e-05,1.88394e-05,-1.14249e-05,-2.3494e-05,6.62744e-06,-9.10612e-06,-2.53476e-05,-1.88196e-06,0
-2.88485e-05,1.30756e-05,-1.71372e-05,-4.12571e-05,6.08731e-06,-1.07368e-05,-2.10072e-05,2.93364e-06,0
-2.87357e-05,1.1387e-05,-2.44433e-05,-4.90507e-05,5.2022e-06,-1.42317e-05,-1.63935e-05,5.09197e-06,0
-2.69468e-05,1.42425e-05,-3.06769e-05,-5.33479e-05,2.90098e-06,-1.76344e-05,-1.13922e-05,5.62269e-06,0
-2.75939e-05,1.86118e-05,-3.31258e-05,-4.87589e-05,-1.1714e-06,-1.83395e-05,-4.84344e-06,4.52225e-06,0
-2.99215e-05,2.25963e-05,-3.16605e-05,-3.44402e-05,-4.57568e-06,-1.69143e-05,1.10448e-06,4.26023e-06,0
-3.29046e-05,2.41479e-05,-2.65294e-05,-1.78785e-05,-4.63468e-06,-1.54795e-05,4.58911e-06,5.29889e-06,0
-3.45055e-05,2.45477e-05,-1.92707e-05,-2.94482e-06,-1.71748e-06,-1.54408e-05,6.10992e-06,5.41379e-06,0
-3.38445e-05,2.55928e-05,-1.10595e-05,1.00325e-05,7.15683e-07,-1.5848e-05,6.56688e-06,5.03197e-06,0
-3.2176e-05,2.80606e-05,-3.54582e-06,2.35088e-05,2.10601e-06,-1.44095e-05,6.20468e-06,5.42165e-06,0
-3.06535e-05,3.01116e-05,2.19929e-06,3.08184e-05,2.67655e-06,-1.29778e-05,6.4122e-06,6.60194e-06,0
-2.93724e-05,3.25532e-05,5.16952e-06,2.55963e-05,1.70111e-06,-1.2997e-05,7.32739e-06,6.62742e-06,0
-2.83502e-05,3.52533e-05,3.9282e-06,9.22323e-06,-1.08739e-06,-1.37924e-05,7.98275e-06,5.6488e-06,0
-2.88702e-05,3.5077e-05,7.9407e-07,-1.14477e-05,-3.89845e-06,-1.39696e-05,7.82939e-06,5.18686e-06,0
-3.01424e-05,3.04314e-05,-1.09397e-06,-2.83446e-05,-4.13285e-06,-1.40583e-05,6.84143e-06,5.21811e-06,0
-3.13556e-05,2.33545e-05,-1.19192e-06,-3.69327e-05,-5.75017e-07,-1.42472e-05,5.99691e-06,5.19037e-06,0
-3.17954e-05,1.69064e-05,1.04023e-06,-4.17753e-05,5.49233e-06,-1.22856e-05,4.46063e-06,4.84991e-06,0
-3.18888e-05,1.29067e-05,7.25656e-06,-4.71969e-05,1.16025e-05,-7.36332e-06,3.21357e-06,3.46538e-06,0
-3.14883e-05,1.12602e-05,1.23247e-05,-4.67263e-05,1.66419e-05,-2.72613e-06,4.79271e-06,1.73463e-06,0
-3.16987e-05,9.10675e-06,1.13612e-05,-3.19734e-05,1.86238e-05,-1.64456e-06,8.40365e-06,5.2281e-07,0
-3.29341e-05,6.58644e-06,6.8449e-06,-9.8228e-06,1.77054e-05,-4.48193e-06,1.3164e-05,-8.92112e-07,0
-3.46113e-05,5.81767e-06,2.878e-06,3.92008e-06,1.67158e-05,-9.87706e-06,1.77835e-05,-1.56067e-06,0
-3.59956e-05,5.65687e-06,3.93954e-07,4.50971e-06,1.80673e-05,-1.37182e-05,1.93022e-05,-1.13615e-06,0
-3.46172e-05,4.59764e-06,-1.35505e-06,-2.30822e-06,2.05015e-05,-1.30805e-05,1.84563e-05,-1.12733e-06,0
-3.2158e-05,3.58765e-06,-2.82276e-06,-5.97817e-06,2.28425e-05,-9.37402e-06,1.93543e-05,-2.10726e-06,0
-3.14276e-05,4.15451e-06,-5.07243e-06,4.31859e-06,2.61323e-05,-7.1476e-06,2.23286e-05,-3.49515e-06,0
-3.16239e-05,4.0072e-06,-8.79955e-06,2.59651e-05,2.87051e-05,-8.71375e-06,2.29252e-05,-4.21548e-06,0
-3.30509e-05,2.58156e-06,-1.12288e-05,4.10791e-05,2.63635e-05,-1.06763e-05,2.0933e-05,-5.70937e-06,0
-3.47816e-05,1.3314e-06,-1.20463e-05,4.06271e-05,2.16956e-05,-1.0473e-05,2.00687e-05,-6.4391e-06,0
-3.46668e-05,6.3653e-07,-1.04441e-05,2.91596e-05,1.93185e-05,-9.89704e-06,2.18404e-05,-4.3075e-06,0
-3.44174e-05,1.21226e-06,-6.71501e-06,1.48421e-05,2.04172e-05,-9.72734e-06,2.5255e-05,-5.36299e-07,0
-3.43477e-05,1.84278e-06,-3.35198e-06,-7.12167e-07,2.19617e-05,-9.72083e-06,2.64027e-05,1.0932e-06,0
-3.31636e-05,3.59537e-06,-3.04446e-06,-1.38342e-05,2.13959e-05,-1.08779e-05,2.42431e-05,-1.26362e-06,0
-3.29087e-05,4.80156e-06,-5.12551e-06,-2.20737e-05,1.97846e-05,-1.29085e-05,1.96875e-05,-4.1589e-06,0
-3.27393e-05,6.12437e-06,-7.47434e-06,-3.44783e-05,1.77236e-05,-1.51917e-05,1.57298e-05,-5.44094e-06,0
-3.16436e-05,7.04026e-06,-1.09366e-05,-5.5962e-05,1.53667e-05,-1.6919e-05,1.42104e-05,-5.5069e-06,0
-3.07511e-05,6.49562e-06,-1.37802e-05,-7.78388e-05,1.33396e-05,-1.84394e-05,1.3466e-05,-5.07849e-06,0
-2.974e-05,6.32526e-06,-1.47767e-05,-8.51599e-05,1.16031e-05,-2.00111e-05,1.40582e-05,-3.20961e-06,0
-2.87859e-05,8.33208e-06,-1.28148e-05,-7.46148e-05,9.98146e-06,-2.02916e-05,1.50482e-05,-1.13369e-06,0
-2.8673e-05,1.28866e-05,-9.72283e-06,-5.51342e-05,8.88272e-06,-1.83643e-05,1.47719e-05,-2.68619e-07,0
-2.99356e-05,1.7273e-05,-7.57085e-06,-3.56696e-05,7.9613e-06,-1.55342e-05,1.35801e-05,-1.70873e-07,0
-3.20333e-05,2.09399e-05,-7.09084e-06,-1.14991e-05,8.15699e-06,-1.4204e-05,1.30614e-05,8.90382e-07,0
-3.41923e-05,2.30756e-05,-6.86757e-06,2.72363e-05,9.25744e-06,-1.40127e-05,1.45392e-05,3.72556e-06,0
-3.4926e-05,2.27251e-05,-6.91547e-06,7.52244e-05,1.03115e-05,-1.30445e-05,1.82025e-05,5.86945e-06,0
-3.45079e-05,1.99562e-05,-7.35665e-06,0.000113206,1.1787e-05,-1.1025e-05,2.02148e-05,6.11543e-06,0
-3.41454e-05,1.93666e-05,-7.17475e-06,0.000128012,1.3134e-05,-9.75869e-06,1.83896e-05,6.30842e-06,0
-3.43131e-05,2.15863e-05,-8.034e-06,0.000115098,1.25246e-05,-9.08966e-06,1.56267e-05,6.67092e-06,0
-3.39381e-05,2.37592e-05,-9.3747e-06,7.49858e-05,1.23465e-05,-8.76793e-06,1.54716e-05,6.05878e-06,0
-3.27e-05,2.49586e-05,-8.8737e-06,2.86661e-05,1.42953e-05,-8.16731e-06,1.76615e-05,6.28651e-06,0
-3.15814e-05,2.40421e-05,-8.71606e-06,-3.19489e-06,1.47118e-05,-6.88973e-06,1.91784e-05,7.82781e-06,0
-3.11485e-05,2.20707e-05,-1.13834e-05,-3.06245e-05,1.01441e-05,-6.01463e-06,1.90315e-05,7.24489e-06,0
-3.21678e-05,2.13215e-05,-1.39717e-05,-6.31428e-05,4.78191e-06,-6.80479e-06,1.80228e-05,5.84709e-06,0
-3.50349e-05,2.2e-05,-1.18854e-05,-8.73309e-05,4.30842e-06,-8.20189e-06,2.31002e-05,6.85323e-06,0
-3.65154e-05,2.35931e-05,-8.098e-06,-8.89285e-05,8.94937e-06,-7.98317e-06,3.34883e-05,7.33898e-06,0
-3.41625e-05,2.51115e-05,-8.47172e-06,-6.80956e-05,1.47522e-05,-6.4308e-06,4.67757e-05,6.98995e-06,0
-3.14795e-05,2.38388e-05,-9.4835e-06,-3.01926e-05,1.95504e-05,-3.5605e-06,6.71166e-05,7.7131e-06,0
-3.12158e-05,2.32172e-05,-8.84253e-06,1.60363e-05,2.2583e-05,-8.85968e-07,6.97476e-05,8.87377e-06,0
-3.19226e-05,2.68355e-05,-6.70165e-06,4.62939e-05,2.35595e-05,5.16578e-07,3.85742e-05,9.76385e-06,0
-3.00272e-05,2.98023e-05,-3.78658e-06,4.75783e-05,2.31408e-05,1.94787e-06,-3.80377e-06,9.68491e-06,0
-2.59093e-05,2.96712e-05,-1.35867e-07,3.78278e-05,2.23451e-05,3.01031e-06,-3.92728e-05,9.33947e-06,0
-2.35605e-05,2.75852e-05,3.25378e-06,3.59912e-05,2.24733e-05,3.06765e-06,-5.99524e-05,9.62012e-06,0
-2.40085e-05,2.64576e-05,3.8059e-06,3.9697e-05,2.5934e-05,2.75691e-06,-6.45627e-05,1.02936e-05,0
-2.55694e-05,2.60475e-05,1.79731e-06,4.10857e-05,3.30683e-05,2.75295e-06,-5.76175e-05,1.00673e-05,0
-2.70166e-05,2.48106e-05,-2.33799e-06,3.3167e-05,3.79888e-05,3.12922e-06,-4.48181e-05,8.55961e-06,0
-2.81536e-05,2.39641e-05,-6.24225e-06,1.67292e-05,3.74028e-05,2.87079e-06,-2.84797e-05,6.19209e-06,0
-2.84896e-05,2.49984e-05,-8.0244e-06,2.07356e-06,3.18011e-05,2.45392e-06,-8.49244e-06,3.31907e-06,0
-2.80727e-05,2.82077e-05,-9.15074e-06,-3.19391e-06,2.48325e-05,2.54741e-06,1.29749e-05,1.39051e-06,0
-2.74415e-05,3.05049e-05,-1.28778e-05,2.06691e-07,2.01172e-05,2.35112e-06,3.27883e-05,8.24667e-07,0
-2.60604e-05,2.97435e-05,-1.89956e-05,6.75984e-06,1.94041e-05,9.65464e-07,4.73328e-05,6.84432e-07,0
-2.47401e-05,2.62965e-05,-2.35284e-05,1.29558e-05,2.05581e-05,-8.59991e-07,5.53612e-05,2.49603e-07,0
-2.53027e-05,2.23171e-05,-2.39273e-05,1.50168e-05,2.06577e-05,-3.00279e-06,5.96344e-05,5.0892e-07,0
-2.76556e-05,1.90193e-05,-2.12281e-05,1.13793e-05,1.81923e-05,-5.7705e-06,6.40606e-05,2.18926e-06,0
-3.00689e-05,1.72444e-05,-1.69718e-05,4.16032e-06,1.49106e-05,-7.2113e-06,6.84292e-05,3.80091e-06,0
-3.17875e-05,1.51359e-05,-1.25131e-05,-5.09428e-07,1.43708e-05,-7.22552e-06,6.9664e-05,3.66838e-06,0
-3.19977e-05,1.1914e-05,-1.09444e-05,5.22816e-06,1.67046e-05,-7.36031e-06,6.87073e-05,2.47264e-06,0
-3.09633e-05,9.21506e-06,-1.31303e-05,2.39931e-05,1.90175e-05,-8.21061e-06,6.69446e-05,1.46998e-06,0
-2.98865e-05,7.82951e-06,-1.57439e-05,4.02865e-05,1.99072e-05,-9.04018e-06,6.20014e-05,7.73939e-07,0
-2.87752e-05,6.55671e-06,-1.53073e-05,3.72723e-05,1.99729e-05,-9.1164e-06,5.23422e-05,-4.07376e-07,0
-2.84921e-05,4.44892e-06,-1.25665e-05,1.67057e-05,1.71483e-05,-9.46599e-06,3.76424e-05,-1.4773e-06,0
-2.9253e-05,2.35573e-06,-9.94964e-06,-9.62611e-06,1.2366e-05,-1.00606e-05,2.30447e-05,-2.76653e-06,0
-3.02588e-05,1.11662e-06,-8.37745e-06,-2.83229e-05,9.44511e-06,-9.94732e-06,1.45174e-05,-5.59496e-06,0
-3.09501e-05,-1.94531e-06,-8.91578e-06,-3.92701e-05,1.08052e-05,-1.01273e-05,9.64817e-06,-9.70943e-06,0
-3.0476e-05,-5.85223e-06,-1.29332e-05,-4.9249e-05,1.45324e-05,-1.07886e-05,4.47655e-06,-1.3367e-05,0
-2.95143e-05,-7.81577e-06,-1.69474e-05,-5.89044e-05,1.73165e-05,-1.09357e-05,-5.70497e-07,-1.61166e-05,0
-2.90452e-05,-9.4465e-06,-1.87697e-05,-6.54572e-05,1.58508e-05,-1.1223e-05,-4.7759e-06,-1.89588e-05,0
-2.84008e-05,-1.02605e-05,-1.80374e-05,-6.52455e-05,1.07179e-05,-1.22187e-05,-6.24124e-06,-2.01256e-05,0
-2.76728e-05,-1.10394e-05,-1.33288e-05,-6.00493e-05,8.83644e-06,-1.32359e-05,-5.39896e-06,-1.91904e-05,0
-2.71351e-05,-1.08637e-05,-7.89503e-06,-5.3433e-05,1.08235e-05,-1.40112e-05,-4.95157e-06,-1.63407e-05,0
-2.70273e-05,-1.02578e-05,-4.94105e-06,-5.16818e-05,1.21549e-05,-1.46417e-05,-4.75523e-06,-1.3288e-05,0
-2.76281e-05,-1.01796e-05,-5.43906e-06,-5.48921e-05,9.80405e-06,-1.49548e-05,-6.00362e-06,-1.16347e-05,0
-2.91931e-05,-1.11093e-05,-8.65576e-06,-5.62801e-05,5.28751e-06,-1.46034e-05,-9.61588e-06,-1.00187e-05,0
-3.04538e-05,-1.29654e-05,-1.28807e-05,-4.90625e-05,1.8031e-06,-1.49492e-05,-1.24905e-05,-7.27088e-06,0
-3.05611e-05,-1.3326e-05,-1.4613e-05,-3.72133e-05,6.95588e-07,-1.66302e-05,-1.15594e-05,-5.8955e-06,0
-3.0465e-05,-1.16535e-05,-1.39803e-05,-3.29512e-05,1.48392e-06,-1.78324e-05,-7.35368e-06,-7.09458e-06,0
-3.09515e-05,-9.4187e-06,-1.31125e-05,-3.85299e-05,1.77111e-06,-1.7674e-05,-2.29793e-06,-7.9994e-06,0
-3.14777e-05,-7.5575e-06,-1.2625e-05,-4.51134e-05,1.03187e-06,-1.69696e-05,2.36096e-07,-7.05562e-06,0
-3.06982e-05,-4.9384e-06,-1.28678e-05,-4.22518e-05,7.21475e-07,-1.69832e-05,7.22976e-07,-4.6847e-06,0
-2.96152e-05,-1.41594e-06,-1.41393e-05,-2.9468e-05,1.59437e-06,-1.80282e-05,2.21521e-06,-1.93174e-06,0
-2.94502e-05,1.03426e-06,-1.65129e-05,-1.11676e-05,1.84678e-06,-1.92711e-05,5.79473e-06,3.70317e-07,0
-3.03375e-05,2.59905e-08,-2.03235e-05,7.93837e-06,7.28822e-08,-2.03518e-05,8.88375e-06,1.09353e-06,0
-3.12517e-05,-2.19635e-06,-2.52062e-05,2.21951e-05,-2.4758e-06,-2.10554e-05,9.98245e-06,1.32042e-07,0
-3.14416e-05,-1.07479e-06,-2.7351e-05,2.35266e-05,-2.84852e-06,-2.12197e-05,1.08389e-05,-1.51129e-06,0
-3.0795e-05,4.00736e-06,-2.5647e-05,1.33959e-05,-1.65098e-06,-2.08963e-05,1.25521e-05,-1.97913e-06,0
-2.94447e-05,9.17989e-06,-2.18667e-05,1.15737e-06,-1.58232e-06,-1.9686e-05,1.40859e-05,-5.34443e-07,0
-2.87352e-05,1.21582e-05,-1.88366e-05,-2.36699e-06,-3.3604e-06,-1.88921e-05,1.43579e-05,1.4856e-06,0
-2.92712e-05,1.36715e-05,-1.65345e-05,8.07703e-06,-4.40721e-06,-1.9769e-05,1.55337e-05,1.09273e-06,0
-2.95929e-05,1.39743e-05,-1.38896e-05,2.05231e-05,-2.00314e-06,-2.10928e-05,1.7751e-05,-1.41608e-06,0
-2.98959e-05,1.29771e-05,-1.23076e-05,2.12783e-05,3.22329e-06,-2.05407e-05,1.86554e-05,-1.75745e-06,0
-3.10302e-05,1.19888e-05,-1.27603e-05,1.7613e-05,8.52906e-06,-1.93928e-05,1.89683e-05,1.20808e-06,0
-3.21396e-05,1.02196e-05,-1.25249e-05,1.87369e-05,1.39544e-05,-1.88188e-05,2.02011e-05,3.09013e-06,0
-3.27016e-05,9.53725e-06,-9.54516e-06,2.02265e-05,1.80222e-05,-1.85542e-05,2.0439e-05,2.42195e-06,0
-3.33764e-05,1.1253e-05,-6.75312e-06,1.62317e-05,1.79626e-05,-1.82462e-05,1.88929e-05,1.46919e-06,0
-3.36265e-05,1.11245e-05,-6.83639e-06,5.92147e-06,1.47727e-05,-1.75372e-05,1.80796e-05,4.84322e-07,0
-3.29985e-05,9.45734e-06,-8.52156e-06,-6.08279e-06,1.02721e-05,-1.67882e-05,1.88066e-05,1.14749e-06,0
-3.18808e-05,7.97268e-06,-9.37835e-06,-1.37329e-05,6.91319e-06,-1.57012e-05,1.82793e-05,3.60998e-06,0
-2.94794e-05,8.47976e-06,-9.00858e-06,-1.4771e-05,5.62638e-06,-1.50158e-05,1.526e-05,4.37853e-06,0
-2.79162e-05,1.04801e-05,-8.03029e-06,-1.66453e-05,6.96931e-06,-1.33521e-05,1.11908e-05,2.67709e-06,0
-2.79363e-05,1.25021e-05,-4.9349e-06,-2.69739e-05,7.9953e-06,-1.09259e-05,7.8941e-06,6.05235e-07,0
-2.89715e-05,1.20594e-05,1.72611e-06,-3.96558e-05,6.65209e-06,-9.49e-06,6.8509e-06,-6.53042e-07,0
-3.08553e-05,8.28422e-06,9.9777e-06,-4.13719e-05,4.44538e-06,-1.01701e-05,8.27521e-06,-1.49261e-06,0
-3.33969e-05,3.84732e-06,1.80679e-05,-2.8135e-05,3.42118e-06,-1.15028e-05,1.07003e-05,-1.58383e-06,0
-3.53081e-05,1.75888e-06,2.85729e-05,-5.22395e-06,4.55876e-06,-1.20209e-05,1.37254e-05,1.34284e-08,0
-3.57334e-05,2.77136e-06,4.42581e-05,1.84894e-05,7.15805e-06,-1.21502e-05,1.71697e-05,1.58514e-06,0
-3.57728e-05,4.10255e-06,6.25249e-05,3.34937e-05,9.68448e-06,-1.17697e-05,1.91883e-05,2.06738e-06,0
-3.55932e-05,4.47797e-06,7.71765e-05,3.37848e-05,1.15029e-05,-1.14006e-05,1.95547e-05,1.10556e-06,0
-3.54697e-05,4.59263e-06,7.88489e-05,2.35021e-05,1.29842e-05,-1.13088e-05,1.8885e-05,-1.43147e-06,0
