ch1,ch2,ch3,ch4,ch5,ch6,ch7,ch8,class
-2.49634e-05,4.5874e-05,-1.15844e-05,-6.61954e-07,1.95811e-05,-6.75324e-06,-3.39807e-06,3.58139e-06,0
-2.3702e-05,3.4524e-05,-7.0103e-06,-1.30626e-06,2.13682e-05,-6.3139e-06,2.72412e-06,1.67673e-06,0
-2.31047e-05,1.8912e-05,-4.21178e-06,-1.20975e-05,2.22048e-05,-6.37812e-06,7.92451e-06,6.33183e-07,0
-2.29833e-05,3.17599e-06,-2.94771e-06,-3.39321e-05,2.54733e-05,-7.05015e-06,1.32306e-05,1.51758e-07,0
-2.39711e-05,-6.78738e-06,-2.04609e-06,-7.2468e-05,3.13197e-05,-7.41468e-06,1.84968e-05,-1.90389e-06,0
-2.65581e-05,-8.61571e-06,-4.66594e-06,-0.000101401,3.4732e-05,-8.10244e-06,2.24715e-05,-3.29863e-06,0
-3.04005e-05,-9.66091e-07,-9.32264e-06,-8.86615e-05,3.44859e-05,-9.28335e-06,2.6526e-05,-2.55966e-06,0
-3.11095e-05,1.24679e-05,-1.2047e-05,-5.60072e-05,3.2238e-05,-9.22671e-06,2.87449e-05,-1.68816e-06,0
-2.91755e-05,2.31991e-05,-1.30836e-05,-4.03595e-05,2.83762e-05,-8.82361e-06,2.68361e-05,-1.93577e-08,0
-2.79233e-05,3.01163e-05,-1.51527e-05,-3.54824e-05,2.45201e-05,-8.95979e-06,2.34618e-05,6.57656e-09,0
-2.74055e-05,3.42658e-05,-1.65828e-05,-1.7724e-05,2.08677e-05,-7.80463e-06,2.10244e-05,-1.58777e-06,0
-2.80413e-05,3.62977e-05,-1.67509e-05,-5.83533e-07,1.85647e-05,-5.70372e-06,2.00748e-05,-1.16432e-06,0
-2.98232e-05,3.77903e-05,-1.73645e-05,-5.927e-06,1.63119e-05,-3.55296e-06,2.07055e-05,2.99306e-07,0
-3.17676e-05,4.05398e-05,-1.63149e-05,-1.86061e-05,1.2939e-05,-2.25795e-06,2.36958e-05,5.00816e-07,0
-3.30021e-05,4.53409e-05,-1.37782e-05,-1.51518e-05,1.07356e-05,-2.61498e-06,2.71464e-05,-1.08055e-06,0
-3.25183e-05,4.81546e-05,-1.07026e-05,4.03006e-06,1.01184e-05,-3.95893e-06,2.97032e-05,-2.60223e-06,0
-3.04347e-05,4.70945e-05,-6.65403e-06,2.76055e-05,1.12261e-05,-5.2625e-06,2.94544e-05,-3.13084e-06,0
-2.87314e-05,4.43187e-05,-2.28821e-06,4.94672e-05,1.46913e-05,-5.53034e-06,2.61801e-05,-1.94473e-06,0
-2.74031e-05,4.13637e-05,1.37133e-06,6.66836e-05,1.95615e-05,-4.92611e-06,2.24978e-05,-2.2064e-07,0
-2.6843e-05,3.84666e-05,2.53121e-06,6.57616e-05,2.12431e-05,-4.28205e-06,1.97756e-05,2.81756e-07,0
-2.76683e-05,3.717e-05,4.70933e-07,3.96391e-05,1.78576e-05,-3.81317e-06,1.84118e-05,4.7638e-07,0
-2.94598e-05,3.65858e-05,-3.05382e-06,3.28514e-06,1.18647e-05,-3.50805e-06,1.75111e-05,1.13039e-06,0
-3.23913e-05,3.25388e-05,-7.40795e-06,-1.86636e-05,6.89512e-06,-4.70737e-06,1.64612e-05,8.80536e-07,0
-3.58476e-05,2.40667e-05,-1.1285e-05,-1.631e-05,4.09653e-06,-6.95039e-06,1.49027e-05,2.33439e-07,0
-3.73887e-05,1.6251e-05,-1.19058e-05,2.31749e-07,2.16646e-06,-9.05914e-06,1.30873e-05,4.51457e-07,0
-3.83432e-05,1.28517e-05,-9.49216e-06,2.02263e-05,1.74769e-07,-1.01629e-05,1.22547e-05,4.52602e-07,0
-3.98801e-05,1.18503e-05,-7.03614e-06,3.89427e-05,5.18924e-08,-1.08791e-05,1.28777e-05,-5.55893e-07,0
-3.92241e-05,1.10226e-05,-7.54486e-06,4.87872e-05,3.53157e-06,-1.09922e-05,1.28419e-05,-9.46127e-07,0
-3.72856e-05,1.28502e-05,-1.06781e-05,4.03819e-05,9.98257e-06,-9.30953e-06,1.22448e-05,-7.02906e-07,0
-3.58307e-05,1.65904e-05,-1.438e-05,2.04043e-05,1.71005e-05,-7.01445e-06,1.19659e-05,-5.10936e-07,0
-3.53661e-05,2.04695e-05,-1.82103e-05,7.01597e-07,2.09867e-05,-6.28098e-06,1.20929e-05,3.66175e-07,0
-3.55155e-05,2.32294e-05,-2.15272e-05,-1.34788e-05,2.25261e-05,-7.77384e-06,1.11253e-05,9.36241e-07,0
-3.62325e-05,2.28203e-05,-2.26514e-05,-1.74467e-05,2.46985e-05,-9.02631e-06,8.50742e-06,1.0596e-06,0
-3.75299e-05,2.03419e-05,-2.11605e-05,-1.43982e-05,2.43031e-05,-8.95728e-06,6.08293e-06,4.23634e-07,0
-3.77897e-05,1.83641e-05,-1.60641e-05,-1.21458e-05,2.24108e-05,-8.05786e-06,5.57473e-06,5.2281e-07,0
-3.7737e-05,1.817e-05,-1.16309e-05,-4.2486e-07,2.53789e-05,-6.90355e-06,7.20951e-06,5.29096e-07,0
-3.77927e-05,1.82329e-05,-1.02446e-05,2.68438e-05,2.81504e-05,-6.76896e-06,1.02473e-05,-6.46764e-07,0
-3.73927e-05,1.8089e-05,-1.01283e-05,5.30669e-05,2.50365e-05,-8.81557e-06,1.28697e-05,-1.56367e-06,0
-3.75683e-05,1.81342e-05,-1.05508e-05,6.68958e-05,1.81391e-05,-1.06693e-05,1.27033e-05,-2.1481e-06,0
-3.76168e-05,1.6762e-05,-9.76776e-06,6.94374e-05,1.15482e-05,-1.0436e-05,1.09611e-05,-7.68083e-07,0
-3.7258e-05,1.37284e-05,-8.56879e-06,6.36293e-05,8.57246e-06,-9.00986e-06,8.42132e-06,1.04976e-06,0
-3.80726e-05,1.25448e-05,-6.24487e-06,5.0605e-05,8.27935e-06,-6.76778e-06,6.79881e-06,1.8797e-06,0
-3.90098e-05,1.28862e-05,-4.23083e-06,3.24595e-05,6.4595e-06,-4.8379e-06,7.31972e-06,2.59149e-06,0
-3.8061e-05,1.31005e-05,-3.60646e-06,1.27819e-05,3.21346e-06,-3.90521e-06,7.5571e-06,3.53292e-06,0
-3.59911e-05,1.27558e-05,-4.74272e-06,-4.70556e-06,1.6806e-06,-3.71763e-06,6.54644e-06,4.39691e-06,0
-3.4782e-05,1.22743e-05,-6.74927e-06,-1.84338e-05,2.2761e-06,-3.20828e-06,7.08721e-06,4.35723e-06,0
-3.41267e-05,1.19366e-05,-7.6833e-06,-2.49895e-05,3.10736e-06,-3.28186e-06,9.91051e-06,4.63588e-06,0
-3.36077e-05,1.22858e-05,-7.69333e-06,-2.31867e-05,2.90697e-06,-4.11451e-06,1.22353e-05,5.97232e-06,0
-3.34136e-05,1.34768e-05,-7.94543e-06,-2.09539e-05,2.67525e-06,-4.63991e-06,1.4126e-05,6.69589e-06,0
-3.38336e-05,1.48123e-05,-9.43993e-06,-2.30757e-05,2.80788e-06,-4.87082e-06,1.66184e-05,5.56849e-06,0
-3.525e-05,1.62802e-05,-1.16187e-05,-2.62238e-05,2.58972e-06,-4.50682e-06,1.83178e-05,5.39413e-06,0
-3.71083e-05,1.76693e-05,-1.36975e-05,-2.69978e-05,1.60113e-06,-3.182e-06,1.84318e-05,7.87506e-06,0
-3.94443e-05,1.86345e-05,-1.42815e-05,-2.71336e-05,9.72878e-07,-9.96086e-07,1.80528e-05,1.04981e-05,0
-4.22242e-05,1.84135e-05,-1.41154e-05,-2.82193e-05,1.20892e-06,7.9138e-07,1.73766e-05,1.05159e-05,0
-4.4e-05,1.76085e-05,-1.34262e-05,-2.9163e-05,1.99024e-06,3.07869e-07,1.7277e-05,8.28456e-06,0
-4.34617e-05,1.67641e-05,-1.23193e-05,-2.88308e-05,3.34226e-06,-2.4429e-06,1.77968e-05,6.14926e-06,0
-4.18219e-05,1.579e-05,-1.21725e-05,-2.93785e-05,4.72079e-06,-5.10909e-06,1.85311e-05,4.87836e-06,0
-4.08191e-05,1.45195e-05,-1.30221e-05,-3.00298e-05,5.98827e-06,-6.30752e-06,1.89116e-05,4.50551e-06,0
-4.09056e-05,1.33541e-05,-1.22013e-05,-2.71422e-05,7.58099e-06,-6.84686e-06,1.7875e-05,4.19247e-06,0
-4.08472e-05,1.21462e-05,-1.15412e-05,-2.29039e-05,7.09687e-06,-8.24662e-06,1.89089e-05,3.45424e-06,0
-4.07386e-05,1.13463e-05,-1.23217e-05,-2.02468e-05,5.33608e-06,-1.02914e-05,2.05758e-05,2.32231e-06,0
-4.13529e-05,1.02504e-05,-1.24683e-05,-2.05806e-05,3.7851e-06,-1.18499e-05,1.92189e-05,1.27903e-06,0
-4.12662e-05,8.95055e-06,-1.34241e-05,-2.36344e-05,8.41347e-07,-1.29425e-05,1.65372e-05,1.12781e-06,0
-3.99408e-05,7.92506e-06,-1.30611e-05,-2.62234e-05,-2.30929e-06,-1.48659e-05,1.52104e-05,1.57663e-06,0
-3.75333e-05,7.77737e-06,-1.08516e-05,-2.52438e-05,-2.26813e-06,-1.51582e-05,1.55068e-05,2.05527e-06,0
-3.57776e-05,9.29565e-06,-8.89504e-06,-2.18103e-05,1.80146e-06,-1.30226e-05,1.39287e-05,2.54335e-06,0
-3.55313e-05,1.06546e-05,-7.15156e-06,-2.04498e-05,7.79531e-06,-1.26644e-05,1.03485e-05,1.11432e-06,0
-3.49623e-05,1.1003e-05,-4.44561e-06,-2.26173e-05,1.15818e-05,-1.44563e-05,5.45822e-06,-5.4412e-07,0
-3.49274e-05,1.11844e-05,-1.1124e-06,-2.39357e-05,1.09395e-05,-1.50276e-05,1.60611e-06,1.07079e-06,0
-3.4747e-05,1.15265e-05,1.03113e-06,-2.24948e-05,8.55607e-06,-1.436e-05,1.05633e-06,2.42611e-06,0
-3.33214e-05,1.25302e-05,2.13421e-06,-1.91965e-05,6.20963e-06,-1.42726e-05,3.34192e-06,1.01551e-06,0
-3.22308e-05,1.36231e-05,1.70663e-06,-1.35802e-05,4.86997e-06,-1.54222e-05,6.65122e-06,1.94396e-07,0
-3.19748e-05,1.45121e-05,6.2701e-08,-7.41775e-06,4.8334e-06,-1.72157e-05,8.73076e-06,2.16741e-06,0
-3.1549e-05,1.61498e-05,-6.88292e-07,-6.27779e-06,6.33914e-06,-1.91204e-05,9.2137e-06,3.95468e-06,0
-3.05216e-05,1.67158e-05,-3.81495e-07,-1.05082e-05,9.30254e-06,-2.0314e-05,9.27196e-06,4.30249e-06,0
-2.9324e-05,1.5108e-05,-1.09149e-07,-1.28664e-05,1.32204e-05,-1.9937e-05,1.01382e-05,3.35226e-06,0
-2.79292e-05,1.29025e-05,3.86768e-07,-7.53085e-06,1.64931e-05,-1.91283e-05,1.01104e-05,9.76589e-07,0
-2.63204e-05,1.16042e-05,1.47226e-06,3.41662e-06,1.70867e-05,-1.83176e-05,9.11121e-06,-7.7275e-07,0
-2.47867e-05,1.1164e-05,2.00589e-06,1.26104e-05,1.70067e-05,-1.75148e-05,8.62629e-06,-6.04152e-08,0
-2.34404e-05,1.17565e-05,5.53654e-07,1.57131e-05,1.89109e-05,-1.64963e-05,9.05198e-06,9.62906e-07,0
-2.23958e-05,1.33084e-05,-2.48626e-06,1.18901e-05,2.05396e-05,-1.46027e-05,9.58699e-06,-9.54106e-07,0
-2.29008e-05,1.53128e-05,-5.80096e-06,3.97736e-06,1.91449e-05,-1.20968e-05,1.02127e-05,-3.70586e-06,0
-2.49945e-05,1.59841e-05,-7.28879e-06,-4.53753e-06,1.70978e-05,-1.20735e-05,1.17472e-05,-4.37783e-06,0
-2.64675e-05,1.44292e-05,-5.97211e-06,-1.34369e-05,1.6653e-05,-1.39231e-05,1.37686e-05,-3.42053e-06,0
-2.62341e-05,1.33872e-05,-5.02503e-06,-2.3423e-05,1.67376e-05,-1.49519e-05,1.37401e-05,-2.82432e-06,0
-2.74803e-05,1.27435e-05,-6.91773e-06,-3.64227e-05,1.66237e-05,-1.53439e-05,1.18499e-05,-2.79232e-06,0
-2.92105e-05,1.32113e-05,-9.54056e-06,-5.44557e-05,1.60199e-05,-1.47748e-05,8.69686e-06,-1.71446e-06,0
-2.90667e-05,1.526e-05,-1.03029e-05,-7.24798e-05,1.62918e-05,-1.33741e-05,3.74241e-06,2.25876e-08,0
-2.74343e-05,1.45114e-05,-1.00571e-05,-8.05337e-05,1.69731e-05,-1.23746e-05,9.023e-07,-1.03251e-06,0
-2.55046e-05,1.2702e-05,-1.19843e-05,-6.90173e-05,1.52723e-05,-1.11834e-05,1.75426e-06,-2.08211e-06,0
-2.4727e-05,1.24636e-05,-1.50769e-05,-4.10835e-05,1.36789e-05,-1.07855e-05,4.32922e-06,-1.84231e-07,0
-2.29131e-05,1.289e-05,-1.58258e-05,-1.26334e-05,1.43512e-05,-1.334e-05,6.89546e-06,1.87081e-06,0
-2.32783e-05,1.21376e-05,-1.64936e-05,1.30876e-05,1.51082e-05,-1.58546e-05,7.77711e-06,4.12968e-06,0
-2.69349e-05,1.11084e-05,-1.8487e-05,4.0953e-05,1.45365e-05,-1.66868e-05,7.13571e-06,5.09007e-06,0
-2.85977e-05,1.14521e-05,-2.06974e-05,6.28261e-05,1.25942e-05,-1.69115e-05,6.03334e-06,5.57788e-06,0
-2.80812e-05,1.33979e-05,-2.10981e-05,6.03676e-05,1.15715e-05,-1.60606e-05,4.92504e-06,5.85437e-06,0
-2.74969e-05,1.50165e-05,-1.94197e-05,2.28945e-05,1.31904e-05,-1.47645e-05,4.67949e-06,5.35716e-06,0
-2.78759e-05,1.45789e-05,-1.84138e-05,-2.86369e-05,1.56098e-05,-1.29516e-05,6.20876e-06,5.07896e-06,0
-2.8391e-05,1.46501e-05,-1.81554e-05,-5.64416e-05,1.71988e-05,-1.11494e-05,7.64347e-06,4.65475e-06,0
-2.85766e-05,1.5506e-05,-1.88001e-05,-4.98479e-05,1.78681e-05,-1.01203e-05,8.34675e-06,3.96359e-06,0
-2.89529e-05,1.70225e-05,-1.84828e-05,-2.28109e-05,1.77511e-05,-9.64439e-06,9.24284e-06,2.30597e-06,0
-2.90294e-05,1.85078e-05,-1.67219e-05,1.35193e-05,1.72589e-05,-9.52413e-06,1.08548e-05,4.35114e-07,0
-2.96493e-05,2.01352e-05,-1.49619e-05,5.12258e-05,1.66031e-05,-1.02929e-05,1.31828e-05,-1.31532e-06,0
-3.09876e-05,2.14224e-05,-1.32492e-05,7.19639e-05,1.59689e-05,-1.23974e-05,1.4653e-05,-1.69796e-06,0
-3.14194e-05,2.16902e-05,-1.03039e-05,6.04748e-05,1.57254e-05,-1.36253e-05,1.42668e-05,-6.81662e-07,0
-3.01895e-05,2.15629e-05,-6.9046e-06,2.63354e-05,1.46005e-05,-1.37718e-05,1.21555e-05,6.84604e-08,0
-2.84385e-05,2.24381e-05,-4.76465e-06,-6.8955e-06,1.22586e-05,-1.33107e-05,1.01064e-05,3.84021e-07,0
-2.79665e-05,2.35369e-05,-3.89946e-06,-2.64683e-05,1.02672e-05,-1.1765e-05,8.1431e-06,1.10461e-06,0
-2.89727e-05,2.29218e-05,-4.25297e-06,-2.79565e-05,9.08445e-06,-1.05129e-05,6.61614e-06,1.14574e-06,0
-2.92884e-05,2.04325e-05,-4.34347e-06,-9.53476e-06,9.34477e-06,-1.07636e-05,6.66511e-06,8.50585e-07,0
-2.8437e-05,1.74734e-05,-3.78209e-06,1.13263e-05,1.07722e-05,-1.04878e-05,7.64298e-06,1.70256e-06,0
-2.84159e-05,1.4925e-05,-4.3819e-06,1.6835e-05,1.0733e-05,-1.00933e-05,7.86977e-06,1.73062e-06,0
-2.94828e-05,1.23925e-05,-7.26758e-06,1.58124e-05,1.08964e-05,-1.07981e-05,7.13936e-06,-5.63982e-07,0
-3.06321e-05,1.11001e-05,-1.13534e-05,1.99144e-05,1.30074e-05,-1.05537e-05,7.12592e-06,-3.44489e-06,0
-3.07847e-05,1.10561e-05,-1.7559e-05,3.05271e-05,1.565e-05,-8.78651e-06,7.56358e-06,-4.8453e-06,0
-2.88196e-05,1.1231e-05,-2.12639e-05,4.52662e-05,1.72372e-05,-7.71862e-06,7.81024e-06,-5.02271e-06,0
-2.63175e-05,1.23874e-05,-1.74527e-05,5.41392e-05,1.65232e-05,-8.76554e-06,9.20257e-06,-4.90798e-06,0
-2.53356e-05,1.35516e-05,-1.13388e-05,4.02394e-05,1.59167e-05,-1.05414e-05,1.16837e-05,-3.8806e-06,0
-2.54948e-05,1.33076e-05,-8.49602e-06,8.28995e-06,1.70527e-05,-1.21693e-05,1.42768e-05,-2.10197e-06,0
-2.59752e-05,1.34916e-05,-9.14285e-06,-1.77754e-05,1.8451e-05,-1.30132e-05,1.59705e-05,-4.9734e-07,0
-2.7057e-05,1.54273e-05,-1.08523e-05,-3.20519e-05,1.91524e-05,-1.18966e-05,1.62848e-05,-1.28729e-06,0
-2.83381e-05,1.70441e-05,-1.12409e-05,-3.70662e-05,1.95155e-05,-9.60893e-06,1.44573e-05,-4.84913e-06,0
-2.87751e-05,1.76917e-05,-1.20094e-05,-3.27288e-05,1.93624e-05,-8.56995e-06,1.07658e-05,-6.46837e-06,0
-2.83622e-05,2.10677e-05,-1.25783e-05,-1.74284e-05,1.80069e-05,-1.04215e-05,9.085e-06,-5.23293e-06,0
-2.70979e-05,2.90186e-05,-1.1225e-05,8.45599e-07,1.54371e-05,-1.42506e-05,1.0479e-05,-3.79679e-06,0
-2.66326e-05,4.10871e-05,-9.03635e-06,8.79437e-06,1.389e-05,-1.57482e-05,1.20284e-05,-3.62767e-06,0
-2.61313e-05,5.01452e-05,-6.68647e-06,1.55081e-06,1.37335e-05,-1.27906e-05,1.12472e-05,-2.99939e-06,0
-2.53916e-05,5.07171e-05,-5.08308e-06,-8.80203e-06,1.36207e-05,-8.89146e-06,5.97239e-06,-6.25601e-07,0
-2.51657e-05,4.38554e-05,-4.07934e-06,-4.9661e-06,1.47914e-05,-7.36286e-06,-4.22362e-06,2.25293e-06,0
-2.57308e-05,3.30977e-05,-3.30272e-06,1.15098e-05,1.64868e-05,-8.07782e-06,-1.24834e-05,3.64277e-06,0
-2.64634e-05,2.17809e-05,-2.64324e-06,2.51757e-05,1.71719e-05,-8.97239e-06,-1.17515e-05,3.34467e-06,0
-2.56448e-05,1.19319e-05,-3.12822e-06,2.67376e-05,1.63205e-05,-9.33744e-06,-2.42904e-06,1.5815e-06,0
-2.40633e-05,4.12854e-06,-3.91379e-06,2.77415e-05,1.45615e-05,-1.04915e-05,9.29535e-06,-5.89093e-07,0
-2.45334e-05,-2.92147e-06,-4.03921e-06,4.08162e-05,1.34357e-05,-1.17332e-05,1.94702e-05,-7.95317e-07,0
-2.83208e-05,-9.99386e-06,-3.61607e-06,6.11123e-05,1.25512e-05,-1.23119e-05,2.89808e-05,5.86893e-07,0
-3.16532e-05,-1.58061e-05,-3.96315e-06,7.1204e-05,1.08899e-05,-1.26213e-05,3.76078e-05,1.39793e-06,0
-3.18382e-05,-1.49078e-05,-5.61361e-06,6.36044e-05,9.88025e-06,-1.20978e-05,4.34849e-05,8.03564e-07,0
-3.11888e-05,-8.45812e-06,-6.904e-06,4.63378e-05,1.01262e-05,-1.16312e-05,4.53763e-05,1.39365e-07,0
-3.17873e-05,-2.62152e-06,-6.32722e-06,2.94273e-05,1.13499e-05,-1.1996e-05,4.3225e-05,-8.27703e-08,0
-3.23169e-05,2.72385e-06,-4.35043e-06,1.20777e-05,1.17715e-05,-1.16839e-05,3.74342e-05,1.75572e-06,0
-3.27507e-05,8.17645e-06,-3.32824e-06,-9.22774e-06,9.50057e-06,-9.42026e-06,2.98264e-05,4.0064e-06,0
-3.29942e-05,1.13349e-05,-4.06015e-06,-3.61639e-05,6.68772e-06,-8.22959e-06,2.3752e-05,4.59981e-06,0
-3.28538e-05,1.49349e-05,-5.6246e-06,-6.32755e-05,3.6324e-06,-9.83587e-06,2.20704e-05,4.64149e-06,0
-3.30323e-05,1.94255e-05,-6.51801e-06,-8.24883e-05,1.17299e-06,-1.09622e-05,2.23907e-05,5.21754e-06,0
-3.27411e-05,2.02636e-05,-6.03802e-06,-9.28968e-05,2.68958e-06,-1.0973e-05,2.20204e-05,8.3861e-06,0
-3.01271e-05,1.76703e-05,-3.71752e-06,-9.14651e-05,9.71503e-06,-9.13546e-06,2.1062e-05,1.09125e-05,0
-2.80825e-05,1.60317e-05,-7.13927e-07,-7.53909e-05,1.6251e-05,-6.71454e-06,1.96234e-05,1.02112e-05,0
-2.72777e-05,1.6113e-05,1.54763e-06,-4.16749e-05,1.68326e-05,-5.9912e-06,1.96015e-05,7.6158e-06,0
-2.71582e-05,1.52878e-05,3.58387e-06,-4.94109e-06,1.50237e-05,-5.14671e-06,2.04742e-05,5.57207e-06,0
-2.88869e-05,1.37211e-05,5.09003e-06,1.37067e-05,1.49109e-05,-2.91062e-06,1.88021e-05,5.34906e-06,0
-3.11106e-05,1.15424e-05,5.02204e-06,8.64913e-06,1.73285e-05,-6.63287e-07,1.39249e-05,5.24759e-06,0
-3.23698e-05,5.39033e-06,2.13808e-06,-9.76497e-06,2.19873e-05,-1.70322e-08,9.68794e-06,5.05125e-06,0
-3.19597e-05,-2.52657e-06,-1.3465e-06,-2.57592e-05,2.62859e-05,2.54205e-07,7.57459e-06,4.6817e-06,0
-3.04214e-05,-5.58311e-06,-2.9912e-06,-3.42513e-05,2.69331e-05,5.03334e-07,6.85934e-06,4.1657e-06,0
-2.96079e-05,-4.18524e-06,-3.21e-06,-3.78433e-05,2.38831e-05,-7.73752e-07,6.83383e-06,3.25861e-06,0
-3.10765e-05,-3.04601e-06,-3.55903e-06,-3.92552e-05,1.98052e-05,-3.92443e-06,6.89117e-06,3.42559e-06,0
-3.26986e-05,-2.51458e-06,-4.31987e-06,-3.5731e-05,1.6465e-05,-6.88642e-06,7.22405e-06,4.53619e-06,0
-3.31924e-05,-9.09097e-07,-3.73329e-06,-2.98078e-05,1.39545e-05,-7.85738e-06,7.15521e-06,4.23728e-06,0
-3.26528e-05,1.12054e-06,-2.41984e-06,-3.24399e-05,1.2834e-05,-6.79145e-06,7.31725e-06,3.13352e-06,0
-3.23037e-05,1.54971e-06,-3.56587e-06,-4.41936e-05,1.20353e-05,-5.80274e-06,7.82476e-06,3.01607e-06,0
-3.2329e-05,3.82682e-07,-8.08748e-06,-4.95154e-05,1.09923e-05,-6.65257e-06,7.17156e-06,4.01992e-06,0
-3.32738e-05,3.55272e-07,-1.28794e-05,-4.20682e-05,9.82902e-06,-7.7584e-06,4.26221e-06,6.00121e-06,0
-3.44891e-05,2.44152e-06,-1.42984e-05,-2.98415e-05,8.70878e-06,-7.54614e-06,1.39125e-06,7.99198e-06,0
-3.45236e-05,4.95074e-06,-1.08823e-05,-5.82934e-06,9.04001e-06,-6.90988e-06,3.18679e-07,8.66971e-06,0
-3.47349e-05,5.11178e-06,-7.17847e-06,4.29205e-05,1.0373e-05,-6.12295e-06,9.98366e-07,7.72552e-06,0
-3.53641e-05,4.03083e-06,-5.66612e-06,7.87246e-05,9.91109e-06,-4.51639e-06,3.12144e-06,6.20478e-06,0
-3.51321e-05,4.32194e-06,-5.69482e-06,5.99028e-05,8.07591e-06,-3.05269e-06,4.91642e-06,5.45109e-06,0
-3.4737e-05,6.33071e-06,-5.27484e-06,1.87589e-05,8.33268e-06,-3.58733e-06,6.61824e-06,3.52549e-06,0
-3.36609e-05,8.50118e-06,-2.52152e-06,7.01046e-07,1.20225e-05,-4.21374e-06,6.54441e-06,1.68812e-06,0
-3.04284e-05,9.69593e-06,-1.77523e-06,4.35366e-06,1.3439e-05,-4.01795e-06,6.21233e-06,1.53635e-06,0
-2.74132e-05,7.83856e-06,-3.60171e-06,4.6035e-06,1.02715e-05,-4.45015e-06,7.42257e-06,1.11919e-06,0
-2.75226e-05,4.4686e-06,-5.88181e-06,-7.98831e-06,6.74654e-06,-3.93012e-06,9.13224e-06,-1.35674e-06,0
-2.88606e-05,3.50929e-06,-8.87491e-06,-2.303e-05,6.30565e-06,-4.19651e-06,1.12744e-05,-4.81925e-06,0
-2.87869e-05,3.80521e-06,-1.03574e-05,-3.11084e-05,1.14138e-05,-4.99355e-06,1.1106e-05,-5.29893e-06,0
-2.93322e-05,3.84819e-06,-9.92108e-06,-3.64707e-05,1.68865e-05,-5.73892e-06,9.07253e-06,-3.10475e-06,0
-3.01963e-05,3.66326e-06,-9.30862e-06,-4.12028e-05,2.27269e-05,-5.20117e-06,7.05827e-06,-1.36284e-06,0
-3.08387e-05,3.02377e-06,-1.021e-05,-4.10982e-05,3.10803e-05,-2.35481e-06,7.73649e-06,-1.11258e-06,0
-3.12787e-05,2.29055e-06,-1.18074e-05,-3.96572e-05,3.70245e-05,7.68669e-07,1.0076e-05,-1.09003e-06,0
-3.08317e-05,2.96402e-06,-1.26691e-05,-4.16377e-05,3.71522e-05,1.92796e-06,1.2773e-05,-1.93767e-06,0
-2.99967e-05,4.46606e-06,-1.37601e-05,-4.18561e-05,3.37213e-05,-2.8044e-07,1.41159e-05,-3.23969e-06,0
-2.92743e-05,4.64663e-06,-1.55857e-05,-3.20773e-05,3.08352e-05,-2.89767e-06,1.43167e-05,-3.17944e-06,0
-3.04242e-05,3.70215e-06,-1.75738e-05,-1.11725e-05,3.01088e-05,-4.05301e-06,1.39028e-05,-2.88687e-06,0
-3.30703e-05,2.84092e-06,-1.84668e-05,1.71073e-05,3.24387e-05,-4.14164e-06,1.37259e-05,-2.56331e-06,0
-3.48322e-05,2.99727e-06,-1.71806e-05,4.53224e-05,3.62981e-05,-4.79348e-06,1.4881e-05,-2.34117e-06,0
-3.46545e-05,3.37413e-06,-1.40207e-05,6.84117e-05,3.94048e-05,-4.27009e-06,1.34797e-05,-2.75384e-06,0
-3.29753e-05,2.36227e-06,-1.0474e-05,8.25592e-05,4.08187e-05,-7.46629e-07,8.77785e-06,-2.58919e-06,0
-3.06354e-05,2.19969e-06,-7.07556e-06,8.42293e-05,4.09774e-05,2.33015e-06,4.3451e-06,-3.66831e-07,0
-2.89982e-05,5.01853e-06,-5.49092e-06,7.29087e-05,3.97439e-05,1.80504e-06,3.70685e-06,1.47305e-06,0
-2.91241e-05,1.12697e-05,-6.51045e-06,5.1208e-05,3.64689e-05,-1.04587e-07,5.91135e-06,1.32772e-06,0
-3.10041e-05,1.97829e-05,-8.36987e-06,2.20971e-05,3.0667e-05,-1.95383e-06,1.11494e-05,3.07355e-07,0
-3.33393e-05,2.65036e-05,-9.8518e-06,-4.91011e-06,2.33471e-05,-4.68771e-06,1.72586e-05,-1.07969e-06,0
-3.36931e-05,2.73477e-05,-1.16622e-05,-1.91326e-05,1.66087e-05,-7.20379e-06,2.1438e-05,-2.11988e-06,0
-3.18281e-05,2.08931e-05,-1.18406e-05,-2.18008e-05,1.19232e-05,-8.23253e-06,2.34659e-05,-2.03665e-06,0
-3.00884e-05,9.59015e-06,-1.0387e-05,-2.1119e-05,8.52715e-06,-8.6862e-06,2.66211e-05,-2.51014e-07,0
-3.00069e-05,-2.08383e-06,-9.673e-06,-2.19148e-05,6.34101e-06,-1.08468e-05,3.12198e-05,6.47328e-07,0
-3.0625e-05,-7.49835e-06,-9.62364e-06,-2.36911e-05,5.8362e-06,-1.26549e-05,3.21208e-05,-4.26974e-07,0
-3.14451e-05,-4.53912e-06,-1.07403e-05,-2.95124e-05,7.21621e-06,-1.16238e-05,2.8524e-05,-1.49243e-06,0
-3.23764e-05,1.0584e-07,-1.16425e-05,-3.75153e-05,8.65282e-06,-1.14055e-05,2.62333e-05,-2.03221e-06,0
-3.20281e-05,2.29598e-06,-1.26195e-05,-4.57576e-05,8.09385e-06,-1.31747e-05,2.63691e-05,-1.37506e-06,0
-3.11107e-05,4.22795e-07,-1.39756e-05,-5.1653e-05,6.77026e-06,-1.44064e-05,2.55227e-05,4.14169e-07,0
-3.15412e-05,-4.15012e-06,-1.43023e-05,-4.79502e-05,5.72613e-06,-1.43969e-05,2.22751e-05,2.60447e-06,0
-3.23926e-05,-7.00691e-06,-1.22225e-05,-3.97771e-05,5.75495e-06,-1.44319e-05,2.04015e-05,3.05519e-06,0
-3.33808e-05,-5.22645e-06,-9.74486e-06,-3.4835e-05,6.30181e-06,-1.55811e-05,2.10409e-05,1.94956e-06,0
-3.41588e-05,-8.25786e-08,-1.08281e-05,-3.29393e-05,6.9552e-06,-1.68244e-05,2.11729e-05,9.29646e-07,0
-3.38599e-05,3.83024e-06,-1.40118e-05,-3.05351e-05,7.14073e-06,-1.85958e-05,2.03696e-05,-4.5905e-07,0
-3.28575e-05,6.35639e-06,-1.6364e-05,-2.63547e-05,6.34377e-06,-2.11613e-05,1.79917e-05,-1.79578e-06,0
-3.20601e-05,1.13979e-05,-1.66144e-05,-2.28272e-05,4.47238e-06,-2.30862e-05,1.46011e-05,-1.96361e-06,0
-3.14269e-05,2.10546e-05,-1.66607e-05,-2.04334e-05,3.02042e-06,-2.27476e-05,1.13673e-05,-9.51732e-07,0
-3.07558e-05,3.12612e-05,-1.71235e-05,-1.63535e-05,3.92781e-06,-2.05271e-05,1.02212e-05,2.79928e-07,0
-3.05365e-05,3.90913e-05,-1.64589e-05,-1.05156e-05,6.31936e-06,-1.86604e-05,1.02263e-05,1.37236e-06,0
-3.11689e-05,4.72752e-05,-1.50022e-05,-6.00521e-06,8.10229e-06,-1.87987e-05,1.04738e-05,8.78051e-07,0
-3.22083e-05,5.63883e-05,-1.34408e-05,-4.2684e-06,7.67002e-06,-2.00133e-05,9.79156e-06,-1.08312e-06,0
-3.24989e-05,6.13695e-05,-1.11155e-05,-3.2817e-06,5.60207e-06,-1.99488e-05,8.85917e-06,-2.69202e-06,0
-3.24189e-05,5.86239e-05,-7.88077e-06,4.774e-07,4.82571e-06,-1.86039e-05,8.53239e-06,-3.3552e-06,0
-3.20089e-05,4.95174e-05,-5.20435e-06,4.54969e-06,5.59833e-06,-1.74086e-05,8.53759e-06,-3.57854e-06,0
-3.09987e-05,3.56894e-05,-3.72573e-06,4.26093e-06,5.18488e-06,-1.66534e-05,8.68166e-06,-2.65611e-06,0
-3.05505e-05,1.91743e-05,-3.36513e-06,2.56644e-06,3.75775e-06,-1.53903e-05,9.8952e-06,-1.72617e-06,0
-3.04761e-05,6.45112e-07,-2.80604e-06,4.41233e-06,4.38893e-06,-1.35787e-05,1.1222e-05,-3.47579e-06,0
-3.03423e-05,-1.77162e-05,-1.88868e-06,7.78536e-06,7.53626e-06,-1.27891e-05,1.04431e-05,-6.736e-06,0
-3.19743e-05,-2.84853e-05,-1.9006e-06,6.91244e-06,9.61499e-06,-1.2833e-05,8.35211e-06,-8.67561e-06,0
-3.44068e-05,-2.83388e-05,-2.83667e-06,-3.05689e-07,7.72084e-06,-1.23344e-05,7.47126e-06,-7.66875e-06,0
-3.41178e-05,-1.87182e-05,-4.35471e-06,-1.00539e-05,3.84486e-06,-1.1595e-05,9.25707e-06,-5.08053e-06,0
-3.23484e-05,-5.19857e-06,-5.6334e-06,-1.79136e-05,1.34933e-06,-1.18396e-05,1.39122e-05,-4.69065e-06,0
-3.21553e-05,4.19141e-06,-4.58073e-06,-2.04937e-05,-5.42215e-07,-1.2905e-05,2.04267e-05,-6.85497e-06,0
-3.22619e-05,8.94117e-06,-1.16155e-06,-1.72244e-05,-2.7787e-06,-1.30693e-05,2.62153e-05,-7.42079e-06,0
-3.17326e-05,1.25736e-05,2.18868e-06,-7.45354e-06,-3.8311e-06,-1.06394e-05,2.90074e-05,-5.96656e-06,0
-3.00748e-05,1.64608e-05,3.59917e-06,6.83871e-06,-1.60253e-06,-8.70706e-06,2.68175e-05,-5.07489e-06,0
-2.93086e-05,1.88017e-05,2.64719e-06,2.01395e-05,1.05931e-06,-9.30771e-06,2.23327e-05,-4.71914e-06,0
-2.95513e-05,1.823e-05,4.86727e-07,2.7675e-05,-1.18334e-07,-1.05483e-05,1.91901e-05,-2.47561e-06,0
-2.90004e-05,1.85575e-05,-1.75624e-06,2.85914e-05,-1.57326e-06,-1.05638e-05,1.69126e-05,9.82231e-08,0
-2.79012e-05,2.06851e-05,-2.38212e-06,2.77763e-05,-5.52077e-08,-7.34033e-06,1.34119e-05,-6.74393e-08,0
-2.71402e-05,2.30692e-05,-1.38912e-06,2.64134e-05,3.08045e-06,-4.23141e-06,9.1803e-06,-3.19652e-07,0
-2.64344e-05,2.33572e-05,-1.35735e-06,2.10799e-05,5.81449e-06,-4.14842e-06,5.84514e-06,-7.67709e-08,0
-2.60546e-05,2.17723e-05,-2.43492e-06,1.05273e-05,7.43229e-06,-5.05152e-06,4.21102e-06,8.14383e-07,0
-2.63852e-05,2.07247e-05,-3.24942e-06,1.28465e-06,9.76728e-06,-5.34606e-06,3.91315e-06,2.30078e-06,0
-2.62581e-05,1.95565e-05,-3.38139e-06,-1.38076e-06,1.32681e-05,-6.10916e-06,4.55188e-06,4.14618e-06,0
-2.6203e-05,1.75077e-05,-3.06502e-06,6.01404e-07,1.70843e-05,-6.99874e-06,5.55569e-06,6.99694e-06,0
-2.65354e-05,1.45378e-05,-2.54991e-06,8.34522e-07,1.98371e-05,-7.15749e-06,6.28505e-06,9.73237e-06,0
-2.66074e-05,1.1793e-05,-1.54556e-06,-2.70736e-06,1.99246e-05,-7.28135e-06,6.13713e-06,1.04983e-05,0
-2.5316e-05,9.65366e-06,-4.49116e-07,-5.44859e-06,1.83185e-05,-7.82905e-06,5.65309e-06,9.09498e-06,0
-2.42987e-05,8.77623e-06,-5.61037e-07,-6.1209e-06,1.78585e-05,-8.50567e-06,4.80892e-06,8.33368e-06,0
-2.40657e-05,8.37677e-06,-2.18634e-06,-7.58183e-06,1.89538e-05,-9.06712e-06,3.23196e-06,9.79189e-06,0
-2.43227e-05,8.28818e-06,-4.69729e-06,-9.19773e-06,2.00798e-05,-8.71162e-06,2.23144e-06,1.22713e-05,0
-2.44434e-05,8.23109e-06,-7.45411e-06,-9.97988e-06,2.00387e-05,-7.27114e-06,3.10162e-06,1.27154e-05,0
-2.48985e-05,6.80902e-06,-9.68633e-06,-1.26966e-05,1.82141e-05,-5.89578e-06,6.13521e-06,1.14509e-05,0
-2.58178e-05,4.95984e-06,-1.10811e-05,-1.65387e-05,1.58421e-05,-5.56023e-06,9.97838e-06,1.01746e-05,0
-2.70504e-05,3.88592e-06,-1.1988e-05,-1.74205e-05,1.47187e-05,-4.74401e-06,1.20771e-05,1.09879e-05,0
-2.75876e-05,3.10009e-06,-1.2968e-05,-1.20785e-05,1.58291e-05,-3.4764e-06,1.06197e-05,1.14976e-05,0
-2.70312e-05,3.39855e-06,-1.34885e-05,-3.14418e-06,1.72332e-05,-4.15051e-06,9.19104e-06,9.71074e-06,0
-2.59244e-05,3.9049e-06,-1.35194e-05,6.51916e-06,1.76061e-05,-5.60961e-06,1.03561e-05,8.76459e-06,0
-2.5223e-05,5.26897e-06,-1.48371e-05,1.2863e-05,1.65865e-05,-6.34033e-06,1.12772e-05,9.09627e-06,0
-2.6211e-05,7.63741e-06,-1.64106e-05,1.33758e-05,1.29224e-05,-5.60154e-06,1.06919e-05,8.81271e-06,0
-2.76118e-05,9.02689e-06,-1.70344e-05,8.66909e-06,8.19597e-06,-7.10218e-06,1.0527e-05,8.89776e-06,0
-2.876e-05,9.41398e-06,-2.00483e-05,-3.2259e-06,5.79944e-06,-1.07854e-05,1.21276e-05,1.08151e-05,0
-2.85088e-05,8.44727e-06,-2.70606e-05,-1.69173e-05,6.57609e-06,-1.27033e-05,1.46099e-05,1.17523e-05,0
-2.72744e-05,8.86089e-06,-3.23159e-05,-2.54814e-05,5.98497e-06,-1.18372e-05,1.6521e-05,9.36736e-06,0
-2.70994e-05,1.16427e-05,-3.13639e-05,-2.60449e-05,4.07316e-06,-1.13307e-05,1.62817e-05,4.86434e-06,0
-2.85111e-05,1.46067e-05,-2.5042e-05,-1.97568e-05,4.92138e-06,-1.24743e-05,1.35412e-05,2.71576e-06,0
-2.82103e-05,1.64374e-05,-1.75576e-05,-1.19657e-05,6.20943e-06,-1.32514e-05,1.04622e-05,3.36485e-06,0
-2.66065e-05,1.83861e-05,-1.30881e-05,-5.06807e-06,7.22398e-06,-1.40002e-05,9.08477e-06,4.58697e-06,0
-2.57819e-05,2.07704e-05,-1.20407e-05,-2.54047e-07,9.55498e-06,-1.47187e-05,9.27769e-06,3.24146e-06,0
-2.47476e-05,2.42419e-05,-1.28341e-05,-4.65128e-07,1.20832e-05,-1.57721e-05,8.97838e-06,5.50515e-07,0
-2.31257e-05,2.75098e-05,-1.28106e-05,-7.24265e-06,1.30263e-05,-1.63188e-05,8.38281e-06,3.92842e-07,0
-2.25073e-05,2.91648e-05,-1.22831e-05,-1.59068e-05,1.38402e-05,-1.53552e-05,7.96866e-06,2.8881e-06,0
-2.30156e-05,3.0394e-05,-1.21084e-05,-1.82902e-05,1.72884e-05,-1.27373e-05,9.1841e-06,5.84549e-06,0
-2.3302e-05,3.2691e-05,-1.08888e-05,-1.33117e-05,2.19235e-05,-1.12907e-05,1.22172e-05,6.38635e-06,0
-2.32586e-05,3.51965e-05,-8.71269e-06,-9.49365e-06,2.35057e-05,-1.19275e-05,1.45426e-05,4.12556e-06,0
-2.3353e-05,3.4528e-05,-8.73332e-06,-8.17403e-06,2.06522e-05,-1.31588e-05,1.46041e-05,1.21868e-06,0
-2.44493e-05,3.11715e-05,-1.01117e-05,-5.74356e-07,1.62488e-05,-1.39741e-05,1.243e-05,1.64578e-06,0
-2.52117e-05,2.82243e-05,-9.5017e-06,1.37321e-05,1.18368e-05,-1.36978e-05,9.46041e-06,4.70393e-06,0
-2.53324e-05,2.82691e-05,-8.87739e-06,2.52156e-05,9.26578e-06,-1.13385e-05,6.71411e-06,6.43126e-06,0
-2.5252e-05,2.92017e-05,-1.04386e-05,3.20005e-05,1.10683e-05,-8.94774e-06,5.51138e-06,5.9209e-06,0
-2.46513e-05,2.83098e-05,-1.19926e-05,5.03406e-05,1.64499e-05,-9.43049e-06,6.86341e-06,5.40447e-06,0
-2.37625e-05,2.65375e-05,-1.25253e-05,7.95881e-05,2.0743e-05,-9.86055e-06,1.01093e-05,3.7492e-06,0
-2.26823e-05,2.39208e-05,-1.14563e-05,8.82461e-05,2.04765e-05,-8.43514e-06,1.31507e-05,2.28815e-06,0
-2.27855e-05,2.00398e-05,-9.73724e-06,6.74859e-05,1.89819e-05,-6.71389e-06,1.57316e-05,2.84333e-06,0
-2.57578e-05,1.68543e-05,-8.77226e-06,3.64285e-05,1.99108e-05,-6.96232e-06,1.61203e-05,1.772e-06,0
-2.82415e-05,1.56355e-05,-9.44866e-06,2.07813e-05,2.04589e-05,-7.94183e-06,1.36998e-05,-1.5969e-06,0
-2.71224e-05,1.61309e-05,-1.04621e-05,2.16094e-05,1.94278e-05,-7.19908e-06,1.13601e-05,-4.54035e-06,0
-2.537e-05,1.90274e-05,-1.02933e-05,2.147e-05,1.82994e-05,-6.49512e-06,1.18583e-05,-4.93906e-06,0
-2.50676e-05,2.77765e-05,-1.09773e-05,1.0925e-05,1.66752e-05,-5.43569e-06,1.43048e-05,-3.29344e-06,0
-2.52149e-05,3.79659e-05,-9.93814e-06,-1.55954e-05,1.68733e-05,-3.90056e-06,1.75046e-05,-2.18657e-06,0
-2.55957e-05,4.08864e-05,-6.9423e-06,-4.05682e-05,1.68027e-05,-3.18647e-06,2.14114e-05,-2.4763e-06,0
-2.64915e-05,3.77995e-05,-4.10473e-06,-4.87471e-05,1.3048e-05,-2.28465e-06,2.25773e-05,-2.38378e-06,0
-2.73888e-05,3.13012e-05,-4.79893e-06,-3.97642e-05,8.39418e-06,-2.08954e-06,1.88424e-05,-1.29991e-06,0
-2.80462e-05,2.2479e-05,-7.27853e-06,-3.53627e-05,5.07137e-06,-5.86689e-06,1.38786e-05,-2.31489e-07,0
-2.9704e-05,1.39239e-05,-8.12278e-06,-5.01582e-05,2.81246e-06,-1.14234e-05,1.08739e-05,-3.88139e-07,0
-3.17118e-05,6.34191e-06,-7.66487e-06,-7.4079e-05,9.02009e-07,-1.27506e-05,8.38755e-06,-8.08722e-07,0
-3.30333e-05,-1.15839e-06,-8.02597e-06,-9.51801e-05,3.33721e-07,-1.10146e-05,7.20526e-06,-1.7186e-06,0
-3.34832e-05,-8.35226e-06,-9.1614e-06,-0.000105812,1.06291e-06,-9.89396e-06,8.58797e-06,-2.42281e-06,0
-3.34856e-05,-1.35097e-05,-8.61295e-06,-0.000103891,2.29287e-06,-9.25124e-06,1.12573e-05,-2.636e-06,0
-3.3307e-05,-1.49693e-05,-7.11536e-06,-8.69677e-05,3.98061e-06,-7.16974e-06,1.34969e-05,-3.16863e-06,0
-3.2995e-05,-1.18518e-05,-5.77638e-06,-5.77659e-05,6.78265e-06,-4.77966e-06,1.51249e-05,-3.86713e-06,0
-3.2773e-05,-5.50663e-06,-5.39635e-06,-1.98056e-05,1.03533e-05,-3.85783e-06,1.63298e-05,-4.17487e-06,0
-3.20356e-05,-1.14962e-07,-4.96452e-06,1.80732e-05,1.33569e-05,-4.42434e-06,1.62283e-05,-2.89788e-06,0
-3.09084e-05,1.77644e-06,-4.26635e-06,4.69362e-05,1.4421e-05,-5.16841e-06,1.49195e-05,-5.15751e-07,0
-3.02969e-05,4.15422e-06,-2.50418e-06,5.98849e-05,1.46545e-05,-5.33519e-06,1.39889e-05,5.62884e-07,0
-3.13143e-05,1.057e-05,-1.95969e-07,5.69004e-05,1.53725e-05,-5.97356e-06,1.40653e-05,-7.09093e-07,0
-3.25609e-05,1.6718e-05,1.45624e-06,4.01678e-05,1.56658e-05,-7.60064e-06,1.38984e-05,-1.25589e-06,0
-3.37241e-05,1.91578e-05,4.47814e-07,1.5942e-05,1.49451e-05,-8.93969e-06,1.27956e-05,1.60041e-07,0
-3.47151e-05,1.89962e-05,-1.61986e-06,1.71465e-06,1.06812e-05,-9.53408e-06,1.28957e-05,1.72621e-06,0
-3.48115e-05,1.93332e-05,-3.89752e-06,1.1159e-05,5.40189e-06,-9.86637e-06,1.45273e-05,1.34548e-06,0
-3.52855e-05,2.06201e-05,-6.37291e-06,3.10144e-05,3.252e-06,-9.33521e-06,1.51141e-05,1.33385e-06,0
-3.59316e-05,2.01247e-05,-7.6393e-06,3.00098e-05,3.95919e-06,-9.69701e-06,1.41412e-05,2.47261e-06,0
-3.61749e-05,1.77428e-05,-6.86998e-06,3.22821e-06,5.96377e-06,-1.21707e-05,9.02827e-06,2.29226e-06,0
-3.69384e-05,1.63935e-05,-2.65661e-06,-2.09034e-05,9.12263e-06,-1.35897e-05,-2.0441e-06,7.13505e-07,0
-3.61896e-05,1.71543e-05,2.27112e-06,-2.60261e-05,1.26851e-05,-1.18258e-05,-1.23784e-05,4.61073e-08,0
-3.32189e-05,1.84776e-05,5.26206e-06,-9.87681e-06,1.49915e-05,-1.02242e-05,-1.47714e-05,-4.17674e-07,0
-3.2558e-05,2.06634e-05,5.07794e-06,1.68333e-05,1.49756e-05,-9.89298e-06,-1.10509e-05,2.00502e-07,0
-3.38199e-05,2.07845e-05,2.1152e-06,2.71841e-05,1.11449e-05,-9.5685e-06,-4.72884e-06,2.90056e-06,0
-3.4228e-05,1.9333e-05,-6.36673e-07,1.63274e-05,7.02931e-06,-9.5977e-06,3.54687e-06,2.88076e-06,0
-3.34994e-05,1.91172e-05,-2.04096e-06,-1.25885e-07,5.64244e-06,-9.64523e-06,1.29643e-05,1.60515e-06,0
-3.20677e-05,1.78208e-05,-2.54318e-06,-5.99129e-06,6.02068e-06,-1.01166e-05,2.24952e-05,9.82124e-07,0
-3.26272e-05,1.49242e-05,-1.73478e-06,1.5678e-05,7.41292e-06,-1.11987e-05,3.03762e-05,4.96875e-07,0
-3.43926e-05,1.20763e-05,4.90786e-07,6.65232e-05,1.01482e-05,-1.20975e-05,3.54829e-05,-1.55484e-06,0
-3.54927e-05,1.04657e-05,3.22925e-06,0.000118738,1.36616e-05,-1.1718e-05,3.86539e-05,-3.83761e-06,0
-3.53829e-05,9.60815e-06,6.4073e-06,0.000141825,1.80511e-05,-1.05078e-05,3.94041e-05,-4.63182e-06,0
-3.48033e-05,8.197e-06,8.53961e-06,0.000118214,2.23309e-05,-9.1665e-06,3.61582e-05,-3.72199e-06,0
-3.46288e-05,5.5648e-06,7.35842e-06,5.72981e-05,2.42558e-05,-7.87347e-06,3.03788e-05,-1.03244e-06,0
-3.49099e-05,3.69903e-06,3.98503e-06,-4.72531e-06,2.3028e-05,-7.58112e-06,2.61504e-05,1.08922e-07,0
-3.50267e-05,3.73587e-06,4.12912e-07,-3.88397e-05,1.98327e-05,-8.40044e-06,2.68098e-05,-7.54537e-07,0
-3.44926e-05,4.07169e-06,-1.89909e-06,-4.90495e-05,1.67157e-05,-8.98639e-06,3.01227e-05,-1.64713e-06,0
-3.37906e-05,2.92305e-06,-3.01056e-06,-5.3159e-05,1.39819e-05,-8.4978e-06,3.16323e-05,-1.14635e-06,0
-3.28514e-05,7.91093e-07,-3.96572e-06,-5.80769e-05,1.15552e-05,-7.94064e-06,3.06673e-05,-9.54814e-08,0
-3.16167e-05,-1.60861e-06,-5.99049e-06,-6.02327e-05,9.86464e-06,-8.62696e-06,2.92573e-05,1.04613e-07,0
-2.89853e-05,-4.30382e-06,-7.51828e-06,-5.79944e-05,9.73837e-06,-1.03619e-05,2.79703e-05,-1.10218e-06,0
-2.72331e-05,-5.42163e-06,-7.94703e-06,-5.41784e-05,1.0597e-05,-1.07451e-05,2.50835e-05,-3.56525e-06,0
-2.83706e-05,-4.07411e-06,-1.0473e-05,-4.43728e-05,1.18448e-05,-9.21642e-06,2.03028e-05,-5.4581e-06,0
-3.08224e-05,-1.37662e-06,-1.40469e-05,-2.70386e-05,1.19895e-05,-7.09418e-06,1.43454e-05,-4.42644e-06,0
-3.28721e-05,7.71274e-07,-1.41526e-05,-1.19278e-05,1.20052e-05,-7.00562e-06,8.3909e-06,-2.81505e-06,0
-3.36318e-05,-3.29363e-07,-1.12904e-05,-5.44307e-06,1.28351e-05,-7.93501e-06,6.11259e-06,-2.72613e-06,0
-3.15492e-05,-2.39816e-06,-9.68654e-06,-4.47745e-06,1.15462e-05,-8.6434e-06,7.34221e-06,-5.57806e-06,0
-2.87179e-05,-2.79862e-06,-1.24672e-05,-4.47722e-06,9.63603e-06,-1.05773e-05,6.4081e-06,-8.75539e-06,0
-2.7551e-05,-3.11675e-06,-1.86258e-05,-5.86304e-06,9.36998e-06,-1.17636e-05,3.50756e-06,-7.64142e-06,0
-2.82472e-05,-5.53831e-06,-2.29281e-05,-1.29073e-05,1.00999e-05,-1.21603e-05,2.58784e-06,-3.89101e-06,0
-3.10968e-05,-1.17621e-05,-2.23636e-05,-3.0487e-05,1.23048e-05,-1.20584e-05,2.42891e-06,-1.95897e-06,0
-3.26451e-05,-1.61321e-05,-1.94496e-05,-6.00411e-05,1.42825e-05,-1.08007e-05,1.78106e-06,-2.89945e-06,0
-3.18436e-05,-1.49662e-05,-1.63295e-05,-9.31589e-05,1.54141e-05,-8.94322e-06,-3.6471e-08,-3.49188e-06,0
-3.14601e-05,-1.19052e-05,-1.31708e-05,-0.000119608,1.44565e-05,-6.7185e-06,-6.81899e-06,-3.22263e-06,0
-3.21307e-05,-9.48852e-06,-1.15589e-05,-0.000133491,1.14768e-05,-4.44924e-06,-1.6574e-05,-2.73138e-06,0
-3.29212e-05,-9.15206e-06,-1.38792e-05,-0.000134423,9.0934e-06,-2.72368e-06,-2.17527e-05,-2.68593e-06,0
-3.35652e-05,-9.91959e-06,-1.76383e-05,-0.000120915,8.28797e-06,-1.43257e-06,-2.06207e-05,-2.37704e-06,0
-3.42109e-05,-8.17373e-06,-1.94315e-05,-9.0152e-05,9.01208e-06,-1.06104e-06,-1.47092e-05,-8.41504e-07,0
-3.44358e-05,-2.81521e-06,-1.85328e-05,-4.44203e-05,1.18541e-05,-1.84496e-06,-5.86037e-06,9.62686e-07,0
-3.37835e-05,2.48982e-06,-1.53762e-05,4.24962e-06,1.61618e-05,-2.76105e-06,4.52489e-06,2.29658e-06,0
-3.26076e-05,4.1216e-06,-1.2236e-05,4.29674e-05,1.91513e-05,-3.85834e-06,1.54155e-05,3.00257e-06,0
-3.16385e-05,2.16002e-06,-1.00108e-05,6.62003e-05,2.08823e-05,-5.35516e-06,2.53968e-05,2.86908e-06,0
-3.13326e-05,-8.82879e-07,-8.47533e-06,7.30092e-05,2.10784e-05,-6.36259e-06,3.31726e-05,3.5434e-06,0
-3.13247e-05,-2.35386e-06,-7.513e-06,6.75978e-05,1.76406e-05,-7.04692e-06,3.71436e-05,6.47526e-06,0
-3.17226e-05,-4.76778e-07,-6.56505e-06,5.57333e-05,1.12754e-05,-8.50891e-06,3.6584e-05,8.76938e-06,0
-3.26338e-05,3.21987e-06,-5.46141e-06,4.13616e-05,6.23721e-06,-1.04646e-05,3.26558e-05,7.88456e-06,0
-3.39149e-05,5.23343e-06,-5.54329e-06,2.79108e-05,2.05297e-06,-1.18854e-05,2.85745e-05,4.87223e-06,0
-3.54102e-05,6.75001e-06,-6.87094e-06,1.71128e-05,-3.21638e-06,-1.21434e-05,2.61155e-05,2.79182e-06,0
-3.6895e-05,1.07767e-05,-8.34747e-06,4.87551e-06,-7.99988e-06,-1.2124e-05,2.34718e-05,4.00143e-06,0
-3.7637e-05,1.56951e-05,-9.22194e-06,-1.12254e-05,-8.78295e-06,-1.14689e-05,1.94199e-05,5.72758e-06,0
-3.65296e-05,1.74625e-05,-1.06247e-05,-2.3427e-05,-5.83853e-06,-9.03915e-06,1.69705e-05,6.16757e-06,0
-3.48471e-05,1.81924e-05,-1.27775e-05,-2.34367e-05,-6.91551e-07,-6.54531e-06,1.60468e-05,4.4638e-06,0
-3.42515e-05,2.05914e-05,-1.64796e-05,-1.56344e-05,8.21212e-06,-6.65245e-06,1.20349e-05,3.99164e-07,0
-3.2917e-05,2.29706e-05,-1.74745e-05,-1.67144e-06,1.7459e-05,-7.06482e-06,6.14299e-06,-9.82214e-07,0
-2.96833e-05,2.60557e-05,-1.44228e-05,2.16596e-05,2.36317e-05,-5.72702e-06,2.97266e-06,1.20287e-06,0
-2.78034e-05,2.92629e-05,-1.06119e-05,4.9074e-05,2.77219e-05,-4.75139e-06,1.89683e-06,1.87828e-06,0
-2.787e-05,3.15322e-05,-5.94808e-06,6.71697e-05,3.25653e-05,-2.9583e-06,4.70869e-07,1.17071e-06,0
-2.83923e-05,3.19432e-05,-2.45669e-06,6.39273e-05,4.23977e-05,-6.16653e-07,-1.82026e-06,2.02712e-06,0
-2.82621e-05,2.92699e-05,-9.42225e-07,4.06714e-05,5.36968e-05,-4.4069e-08,-1.64756e-06,3.14295e-06,0
-2.65185e-05,2.54174e-05,-1.89657e-07,9.27651e-06,5.73632e-05,-1.44032e-06,3.76909e-07,4.07531e-06,0
-2.5723e-05,2.2838e-05,4.49058e-07,-1.96775e-05,5.04784e-05,-3.22776e-06,1.39467e-06,4.67452e-06,0
-2.65226e-05,2.13285e-05,-7.47302e-07,-3.93169e-05,3.94423e-05,-6.24332e-06,1.70014e-06,4.87075e-06,0
-2.88591e-05,1.78414e-05,-1.43982e-06,-4.62154e-05,3.04616e-05,-1.02719e-05,2.18556e-06,4.95596e-06,0
-3.09275e-05,1.21834e-05,-1.07458e-06,-3.92814e-05,2.50881e-05,-1.21326e-05,2.54962e-06,5.35711e-06,0
-3.02858e-05,7.15846e-06,-7.85499e-07,-2.54609e-05,2.18914e-05,-1.2069e-05,3.24231e-06,5.41793e-06,0
-2.87893e-05,4.44598e-06,-2.9101e-07,-1.93314e-05,1.92902e-05,-1.15615e-05,4.79858e-06,4.17011e-06,0
-2.90648e-05,4.393e-06,2.60731e-07,-2.55933e-05,1.72284e-05,-1.13306e-05,5.35845e-06,2.33635e-06,0
-3.06168e-05,6.9894e-06,4.80642e-08,-3.50056e-05,1.52113e-05,-1.12858e-05,4.04048e-06,8.81825e-07,0
-3.136e-05,1.1806e-05,-1.48809e-06,-3.78748e-05,1.42381e-05,-1.30905e-05,7.57141e-07,5.26414e-07,0
-3.08051e-05,1.56215e-05,-2.9676e-06,-3.42014e-05,1.48507e-05,-1.60819e-05,-1.46862e-06,7.93475e-07,0
-2.90215e-05,1.59412e-05,-3.65084e-06,-2.85826e-05,1.61137e-05,-1.8244e-05,1.41745e-07,8.77655e-07,0
-2.76958e-05,1.42717e-05,-3.88524e-06,-2.53577e-05,1.71747e-05,-2.06289e-05,6.12693e-06,8.48162e-07,0
-2.76134e-05,1.29791e-05,-4.42742e-06,-2.50037e-05,1.79782e-05,-2.32318e-05,1.36285e-05,8.05239e-07,0
-2.80586e-05,1.22312e-05,-5.30007e-06,-2.33262e-05,1.65382e-05,-2.32305e-05,1.99122e-05,-2.1171e-07,0
-2.82543e-05,1.30346e-05,-6.08791e-06,-1.65166e-05,1.35053e-05,-2.04592e-05,2.38613e-05,-1.79442e-06,0
-2.74432e-05,1.5355e-05,-4.87844e-06,-4.98418e-06,1.09531e-05,-1.79515e-05,2.5157e-05,-3.25385e-06,0
-2.5126e-05,1.78649e-05,-4.45096e-06,1.26617e-05,1.20423e-05,-1.76739e-05,2.40888e-05,-4.38323e-06,0
-2.44641e-05,1.99711e-05,-8.34302e-06,3.07549e-05,1.70238e-05,-1.81559e-05,2.26079e-05,-3.99309e-06,0
-2.69196e-05,1.71631e-05,-1.5435e-05,3.02979e-05,2.10782e-05,-1.94406e-05,2.15104e-05,-1.22897e-06,0
-2.80981e-05,7.26202e-06,-2.42066e-05,7.58523e-06,2.01453e-05,-2.22845e-05,2.02039e-05,1.66358e-06,0
-2.73175e-05,-4.97657e-06,-2.79339e-05,-1.24141e-05,1.58107e-05,-2.26638e-05,1.96962e-05,1.46706e-06,0
-2.7375e-05,-1.06541e-05,-2.489e-05,-1.42342e-05,1.44922e-05,-1.96937e-05,1.96108e-05,-4.24204e-07,0
-2.79872e-05,-6.18038e-06,-2.1213e-05,-3.99508e-06,1.57126e-05,-1.64576e-05,1.86877e-05,-1.83338e-06,0
-2.8014e-05,4.82022e-06,-1.72436e-05,1.08352e-05,1.52885e-05,-1.42293e-05,1.63841e-05,-2.1748e-06,0
-2.79294e-05,2.07343e-05,-1.4971e-05,2.37066e-05,1.2021e-05,-1.21016e-05,1.46536e-05,4.21448e-07,0
-2.68873e-05,3.74936e-05,-1.39868e-05,3.20419e-05,9.95266e-06,-9.82297e-06,1.381e-05,3.87259e-06,0
-2.67579e-05,4.62636e-05,-1.44046e-05,3.11674e-05,1.1256e-05,-6.62452e-06,1.37713e-05,4.52136e-06,0
-2.7228e-05,4.52664e-05,-1.59619e-05,2.18841e-05,1.26126e-05,-3.81491e-06,1.35907e-05,3.15147e-06,0
-2.61837e-05,3.89419e-05,-1.53717e-05,1.19359e-05,1.13956e-05,-2.64436e-06,1.38292e-05,2.31159e-06,0
-2.47679e-05,3.35999e-05,-1.40132e-05,7.04256e-06,7.87223e-06,-3.20549e-06,1.58224e-05,1.84945e-06,0
-2.36052e-05,3.63387e-05,-1.32071e-05,7.76877e-06,6.29632e-06,-4.71306e-06,1.72666e-05,1.88494e-06,0
-2.34639e-05,4.75834e-05,-1.33014e-05,8.63048e-06,7.90427e-06,-6.73423e-06,1.76386e-05,2.08401e-06,0
-2.37326e-05,6.13165e-05,-1.32294e-05,6.72e-06,1.09957e-05,-8.95646e-06,1.73324e-05,3.71954e-07,0
-2.4861e-05,7.07359e-05,-1.3413e-05,2.6169e-06,1.24153e-05,-9.99244e-06,1.67013e-05,-2.4659e-06,0
-2.55404e-05,7.05954e-05,-1.27239e-05,-8.7654e-07,1.20612e-05,-9.60045e-06,1.64733e-05,-4.6442e-06,0
-2.4807e-05,5.70872e-05,-1.02331e-05,-1.4409e-06,1.38997e-05,-8.15626e-06,1.68107e-05,-4.08013e-06,0
-2.33896e-05,3.32062e-05,-7.52095e-06,6.25677e-06,1.76083e-05,-7.6619e-06,1.66684e-05,-1.41158e-06,0
-2.19458e-05,6.626e-06,-6.75937e-06,2.74682e-05,1.79912e-05,-7.5881e-06,1.50331e-05,2.73914e-07,0
-2.04725e-05,-1.72945e-05,-7.93598e-06,5.05802e-05,1.37317e-05,-6.20982e-06,1.21227e-05,2.67261e-07,0
-2.012e-05,-3.29968e-05,-8.99591e-06,5.1377e-05,9.67485e-06,-3.74915e-06,9.74446e-06,-3.45338e-07,0
-2.1657e-05,-3.30236e-05,-8.70156e-06,2.40711e-05,8.07664e-06,-3.13829e-06,7.75564e-06,-8.02707e-07,0
-2.22897e-05,-2.16185e-05,-7.4816e-06,-1.21182e-05,9.06285e-06,-4.09148e-06,5.86288e-06,-6.53219e-07,0
-2.21017e-05,-1.16708e-05,-6.38248e-06,-3.73964e-05,1.17544e-05,-3.84556e-06,5.6065e-06,-1.39698e-06,0
-2.25688e-05,-2.21434e-06,-5.96161e-06,-4.78307e-05,1.40206e-05,-2.95992e-06,6.04772e-06,-2.92253e-06,0
-2.29137e-05,2.03791e-05,-6.56458e-06,-5.17116e-05,1.42282e-05,-2.01407e-06,6.88129e-06,-4.57156e-06,0
-2.11241e-05,5.17197e-05,-6.53142e-06,-5.40734e-05,1.29571e-05,-2.15962e-06,7.92922e-06,-5.84942e-06,0
-1.91972e-05,6.55976e-05,-5.98833e-06,-5.48799e-05,1.13666e-05,-3.45584e-06,9.38542e-06,-4.25351e-06,0
-1.94765e-05,5.75546e-05,-6.99936e-06,-5.43636e-05,1.16722e-05,-4.24373e-06,1.12973e-05,-1.44259e-06,0
-1.97511e-05,4.06835e-05,-6.59787e-06,-4.81755e-05,1.3103e-05,-5.31073e-06,1.18595e-05,-9.24999e-07,0
-1.95491e-05,1.5212e-05,-3.78259e-06,-3.14505e-05,1.32887e-05,-5.7632e-06,1.16548e-05,-1.08958e-06,0
-2.0871e-05,-2.09411e-05,-2.69622e-06,-7.65413e-06,1.41686e-05,-5.52336e-06,1.42626e-05,-2.39737e-07,0
-2.32144e-05,-5.79683e-05,-4.41745e-06,1.51714e-05,1.74259e-05,-6.80347e-06,1.76925e-05,1.26817e-06,0
-2.32901e-05,-7.92208e-05,-6.01386e-06,2.57612e-05,1.82262e-05,-9.31888e-06,1.86034e-05,2.39923e-06,0
-2.18488e-05,-7.89974e-05,-5.64219e-06,2.30463e-05,1.66577e-05,-1.10633e-05,1.89237e-05,6.44632e-07,0
-2.30876e-05,-6.59327e-05,-5.55925e-06,2.13759e-05,1.66703e-05,-1.14893e-05,2.01336e-05,-1.80564e-06,0
-2.49713e-05,-5.05072e-05,-5.72832e-06,3.05863e-05,1.67176e-05,-1.16075e-05,2.15085e-05,-1.86458e-06,0
-2.56879e-05,-3.70456e-05,-5.25852e-06,4.47873e-05,1.77938e-05,-1.12163e-05,2.11244e-05,6.68973e-07,0
-2.58484e-05,-2.33594e-05,-5.18626e-06,4.80097e-05,1.9351e-05,-1.13962e-05,1.90583e-05,3.7214e-06,0
-2.62333e-05,-5.96679e-06,-6.15662e-06,3.50163e-05,2.01726e-05,-1.26883e-05,1.78616e-05,4.84613e-06,0
-2.67525e-05,1.54074e-05,-6.66458e-06,1.79701e-05,1.91962e-05,-1.41552e-05,1.84618e-05,4.599e-06,0
-2.74529e-05,3.57173e-05,-4.9388e-06,5.81013e-06,1.67541e-05,-1.49942e-05,1.89179e-05,3.93202e-06,0
-2.82646e-05,4.84262e-05,-1.98245e-06,-4.39518e-06,1.29326e-05,-1.53548e-05,1.84179e-05,3.66037e-06,0
-2.84609e-05,4.93048e-05,-1.40018e-06,-1.45449e-05,8.93835e-06,-1.54693e-05,1.80709e-05,4.28456e-06,0
-2.91102e-05,3.8792e-05,-3.96466e-06,-2.17561e-05,7.2659e-06,-1.46515e-05,1.7925e-05,5.45563e-06,0
-2.96355e-05,2.24809e-05,-5.5855e-06,-2.56026e-05,7.96166e-06,-1.37354e-05,1.66147e-05,6.10146e-06,0
-2.8914e-05,6.30516e-06,-3.76512e-06,-3.1127e-05,9.42605e-06,-1.40797e-05,1.43014e-05,5.71004e-06,0
-2.86632e-05,-6.23177e-06,-1.56539e-06,-3.71297e-05,1.01346e-05,-1.60041e-05,1.17502e-05,4.90211e-06,0
-3.05912e-05,-1.24453e-05,-1.8003e-06,-2.78062e-05,1.17607e-05,-1.82901e-05,9.8279e-06,4.18145e-06,0
-3.2839e-05,-1.16402e-05,-3.6168e-06,2.16565e-06,1.35918e-05,-1.89463e-05,7.93553e-06,3.76076e-06,0
-3.38489e-05,-4.15503e-06,-6.44031e-06,3.2591e-05,1.41684e-05,-1.86883e-05,6.59422e-06,3.10769e-06,0
-3.3088e-05,6.12343e-06,-9.72645e-06,4.81276e-05,1.46293e-05,-1.88782e-05,7.45183e-06,1.93552e-06,0
-3.24946e-05,1.30886e-05,-1.16778e-05,4.79766e-05,1.57014e-05,-1.86663e-05,1.048e-05,1.48278e-06,0
-3.33615e-05,1.7566e-05,-1.26995e-05,3.59693e-05,1.62838e-05,-1.77114e-05,1.57104e-05,1.83109e-06,0
-3.42785e-05,2.01963e-05,-1.47406e-05,1.18235e-05,1.65558e-05,-1.86446e-05,1.86612e-05,3.22585e-06,0
-3.43508e-05,2.18457e-05,-1.44456e-05,-1.84762e-05,1.5479e-05,-1.98843e-05,1.67636e-05,3.49984e-06,0
-3.36818e-05,2.37328e-05,-1.24576e-05,-3.74517e-05,1.24625e-05,-1.79448e-05,1.29453e-05,1.7453e-07,0
-3.16818e-05,2.52979e-05,-1.12512e-05,-4.29427e-05,1.00063e-05,-1.61393e-05,1.07725e-05,-2.48659e-06,0
-2.8749e-05,2.70861e-05,-9.62066e-06,-4.56494e-05,8.77735e-06,-1.54905e-05,1.17643e-05,-2.76936e-06,0
-2.70967e-05,2.79455e-05,-8.0491e-06,-5.04889e-05,8.4182e-06,-1.43083e-05,1.39575e-05,-2.31427e-06,0
-2.67851e-05,2.94969e-05,-6.61373e-06,-4.62602e-05,8.72417e-06,-1.29171e-05,1.54377e-05,-3.65047e-06,0
-2.69402e-05,3.18871e-05,-5.97576e-06,-3.52553e-05,1.15531e-05,-1.28607e-05,1.72097e-05,-5.73937e-06,0
-2.92904e-05,3.24563e-05,-6.55508e-06,-3.12458e-05,1.73594e-05,-1.39399e-05,2.0282e-05,-5.10095e-06,0
-3.21917e-05,3.22075e-05,-8.1019e-06,-3.68707e-05,1.99283e-05,-1.38753e-05,2.28162e-05,-3.1294e-06,0
-3.35906e-05,3.17975e-05,-9.18704e-06,-4.39909e-05,1.77988e-05,-1.35886e-05,2.22233e-05,-2.13891e-06,0
-3.31829e-05,3.04882e-05,-9.22209e-06,-4.58807e-05,1.80698e-05,-1.40099e-05,1.70849e-05,-2.13441e-06,0
-3.19916e-05,2.80717e-05,-7.78325e-06,-4.43309e-05,2.28999e-05,-1.4283e-05,1.14051e-05,-1.75962e-06,0
-3.15738e-05,2.58846e-05,-5.06673e-06,-3.8166e-05,2.66081e-05,-1.36077e-05,8.82899e-06,-1.2458e-06,0
-3.20661e-05,2.51607e-05,-4.35322e-06,-2.60829e-05,2.57909e-05,-1.23387e-05,7.69104e-06,-3.7469e-07,0
-3.31838e-05,2.52562e-05,-6.79323e-06,-6.67033e-06,2.32297e-05,-1.10236e-05,6.0705e-06,7.32418e-07,0
-3.39427e-05,2.52661e-05,-9.83102e-06,1.45585e-05,2.14469e-05,-1.00273e-05,4.30816e-06,8.74756e-07,0
-3.4545e-05,2.54588e-05,-1.18113e-05,2.73813e-05,1.90135e-05,-1.02015e-05,3.73943e-06,-1.48652e-06,0
-3.51648e-05,2.59878e-05,-1.35336e-05,2.56891e-05,1.44062e-05,-1.23435e-05,3.67101e-06,-5.28047e-06,0
-3.55417e-05,2.59876e-05,-1.42542e-05,1.6331e-05,9.63168e-06,-1.48531e-05,3.00215e-06,-7.93133e-06,0
-3.46629e-05,2.51602e-05,-1.29359e-05,1.06947e-05,8.02039e-06,-1.47331e-05,2.40113e-06,-8.6738e-06,0
-3.46076e-05,2.51912e-05,-1.11237e-05,1.07337e-05,9.64367e-06,-1.24641e-05,3.20733e-06,-9.61553e-06,0
-3.71768e-05,2.7053e-05,-1.07425e-05,1.01641e-05,1.20763e-05,-9.71959e-06,4.78471e-06,-1.34898e-05,0
-4.07572e-05,2.98164e-05,-1.1179e-05,7.59323e-06,1.22448e-05,-8.81601e-06,5.7238e-06,-1.73869e-05,0
-4.21628e-05,3.29518e-05,-1.18183e-05,3.29449e-06,8.46592e-06,-9.32491e-06,5.38116e-06,-1.7134e-05,0
-4.11751e-05,3.42201e-05,-1.21417e-05,-6.57463e-06,3.03204e-06,-9.58651e-06,5.57452e-06,-1.34239e-05,0
-3.90011e-05,3.38077e-05,-1.18925e-05,-2.11207e-05,-1.25776e-07,-9.25341e-06,8.48604e-06,-9.25683e-06,0
-3.81729e-05,3.14986e-05,-1.15246e-05,-2.74688e-05,3.39775e-07,-8.50874e-06,1.22363e-05,-5.4578e-06,0
-4.00626e-05,2.67427e-05,-1.18545e-05,-1.5874e-05,1.29709e-06,-8.85579e-06,1.52395e-05,-1.93519e-06,0
-4.09324e-05,2.20747e-05,-1.31262e-05,2.8834e-06,2.10595e-06,-9.68454e-06,1.7952e-05,1.74416e-06,0
-3.87117e-05,2.05625e-05,-1.3289e-05,1.92127e-05,1.86598e-06,-1.04816e-05,1.78126e-05,3.81138e-06,0
-3.58018e-05,2.09011e-05,-1.17168e-05,3.1861e-05,8.53591e-07,-1.05855e-05,1.4559e-05,2.83097e-06,0
-3.47283e-05,1.90514e-05,-9.66726e-06,3.69255e-05,3.25951e-06,-1.07789e-05,1.15153e-05,2.89825e-06,0
-3.62973e-05,1.5276e-05,-8.1467e-06,3.36904e-05,7.58615e-06,-1.03248e-05,1.04113e-05,3.73264e-06,0
-3.78358e-05,1.21302e-05,-6.34176e-06,2.38158e-05,1.08367e-05,-8.86838e-06,1.23126e-05,3.40551e-06,0
-3.74739e-05,1.19139e-05,-6.13994e-06,1.06089e-05,1.1895e-05,-8.30518e-06,1.51728e-05,3.3846e-06,0
-3.62715e-05,1.30144e-05,-7.36371e-06,2.6665e-06,1.0426e-05,-8.56948e-06,1.68932e-05,4.08083e-06,0
-3.50077e-05,1.37867e-05,-8.8082e-06,1.03386e-05,8.47256e-06,-8.25122e-06,1.59775e-05,4.56667e-06,0
-3.43605e-05,1.47415e-05,-1.14291e-05,2.70104e-05,9.52578e-06,-6.7554e-06,1.3676e-05,4.66351e-06,0
-3.36627e-05,1.68389e-05,-1.40587e-05,2.58713e-05,1.12782e-05,-6.83583e-06,1.12985e-05,4.89769e-06,0
-3.34737e-05,1.85764e-05,-1.55805e-05,1.88319e-07,8.81146e-06,-8.47468e-06,9.31117e-06,5.12688e-06,0
-3.4234e-05,1.90878e-05,-1.56537e-05,-2.90156e-05,3.91806e-06,-8.77567e-06,9.92021e-06,5.94414e-06,0
-3.55593e-05,1.8883e-05,-1.48304e-05,-4.0289e-05,9.01432e-07,-6.87928e-06,1.40383e-05,5.90777e-06,0
-3.61567e-05,1.72718e-05,-1.30546e-05,-3.19701e-05,3.97442e-07,-5.11853e-06,1.92333e-05,4.28531e-06,0
-3.56186e-05,1.57017e-05,-1.00515e-05,-1.46453e-05,2.87588e-07,-3.84092e-06,2.14284e-05,2.7836e-06,0
-3.51574e-05,1.68705e-05,-5.8227e-06,2.05121e-06,-2.51853e-07,-2.57315e-06,2.04054e-05,2.87403e-06,0
-3.5482e-05,2.01479e-05,-2.10064e-06,1.18447e-05,-2.31177e-07,-1.41396e-06,1.87119e-05,4.3373e-06,0
-3.56664e-05,2.22671e-05,-1.50425e-07,7.12563e-06,1.65591e-06,-2.93815e-07,1.87724e-05,6.32469e-06,0
-3.48516e-05,2.35964e-05,1.40701e-06,-1.56499e-05,4.93569e-06,-1.53723e-08,2.05518e-05,7.47221e-06,0
-3.22245e-05,2.47354e-05,3.2167e-06,-4.28218e-05,9.34086e-06,-1.02603e-06,2.22546e-05,7.63128e-06,0
-3.10547e-05,2.53776e-05,2.92282e-06,-5.32377e-05,1.25396e-05,-2.86364e-06,2.27304e-05,6.41509e-06,0
-3.32255e-05,2.59321e-05,-1.19754e-07,-4.62712e-05,1.18611e-05,-4.14833e-06,2.2679e-05,3.80235e-06,0
-3.41059e-05,2.57157e-05,-4.75667e-06,-3.54527e-05,1.07136e-05,-4.35314e-06,2.19488e-05,2.55837e-06,0
-3.31544e-05,2.47584e-05,-8.24426e-06,-2.49486e-05,1.25476e-05,-3.77428e-06,2.08212e-05,3.07924e-06,0
-3.46338e-05,2.29655e-05,-8.92117e-06,-1.69477e-05,1.63699e-05,-2.94626e-06,1.8325e-05,3.82532e-06,0
-3.7807e-05,1.88615e-05,-7.43016e-06,-8.50843e-06,1.8437e-05,-1.46006e-06,1.48952e-05,5.20482e-06,0
-3.89924e-05,1.45387e-05,-5.29229e-06,6.6948e-06,1.8805e-05,1.14138e-06,1.33139e-05,7.51677e-06,0
-3.86394e-05,1.15616e-05,-3.0308e-06,1.89384e-05,1.95429e-05,3.11894e-06,1.31726e-05,9.35504e-06,0
-3.67234e-05,9.3227e-06,-7.03833e-07,1.47208e-05,1.94129e-05,4.41195e-06,1.31719e-05,1.01853e-05,0
-3.41352e-05,6.61761e-06,-1.21927e-06,1.74844e-06,1.88139e-05,5.2339e-06,1.28508e-05,9.20948e-06,0
-3.14998e-05,3.69709e-06,-3.82608e-06,-1.04018e-05,1.6485e-05,4.69641e-06,1.28311e-05,6.70178e-06,0
-3.00037e-05,2.31474e-06,-5.40416e-06,-2.12867e-05,1.20005e-05,3.32711e-06,1.34822e-05,4.46044e-06,0
