ch1,ch2,ch3,ch4,ch5,ch6,ch7,ch8,class
-1.03334e-05,6.67086e-05,2.47427e-05,-4.7944e-06,2.69212e-05,-3.68312e-06,5.76413e-05,-1.0667e-05,0
-6.20249e-06,6.53908e-05,8.57174e-06,-4.64034e-05,3.04318e-05,1.90817e-06,2.66665e-05,-9.28343e-06,0
6.00864e-06,4.74401e-05,-2.06641e-05,-6.15289e-05,2.92502e-05,1.6144e-06,-1.85646e-06,-8.08738e-06,0
2.26568e-05,-2.33953e-06,-4.49572e-05,-3.78068e-05,2.07253e-05,-4.20163e-06,-3.00474e-05,-6.90525e-06,0
4.29524e-05,-5.08455e-05,-4.96177e-05,2.15424e-05,1.2635e-05,-9.42241e-06,-5.49834e-05,-5.28684e-06,0
5.45385e-05,-6.31121e-05,-4.11059e-05,9.92433e-05,1.26868e-05,-1.05576e-05,-7.23405e-05,-4.13664e-06,0
4.54183e-05,-4.76421e-05,-3.41323e-05,0.000177728,1.86807e-05,-9.49098e-06,-8.00098e-05,-3.74822e-06,0
2.24337e-05,-3.25815e-05,-3.42889e-05,0.000223375,2.35893e-05,-9.61676e-06,-7.86712e-05,-3.45214e-06,0
-1.82624e-06,-2.84737e-05,-3.71935e-05,0.000217186,2.51803e-05,-1.22969e-05,-6.8859e-05,-1.4052e-06,0
-2.52977e-05,-3.3053e-05,-3.9893e-05,0.000179703,2.65076e-05,-1.47684e-05,-5.36211e-05,2.32849e-06,0
-4.99126e-05,-3.41388e-05,-4.06007e-05,0.000120539,2.88531e-05,-1.59213e-05,-3.83027e-05,5.83912e-06,0
-6.98812e-05,-1.7813e-05,-3.76779e-05,3.99259e-05,2.77728e-05,-1.66862e-05,-2.71789e-05,7.50381e-06,0
-7.09262e-05,1.81073e-05,-3.08275e-05,-3.23197e-05,2.23215e-05,-1.76273e-05,-2.15095e-05,8.06583e-06,0
-4.35922e-05,5.72018e-05,-2.21555e-05,-7.13874e-05,1.6047e-05,-1.72822e-05,-1.99507e-05,8.59757e-06,0
3.93063e-06,8.01914e-05,-1.41973e-05,-0.000100897,1.2888e-05,-1.41283e-05,-1.97839e-05,8.90046e-06,0
4.92206e-05,7.66841e-05,-9.29125e-06,-0.000149518,1.08133e-05,-1.00765e-05,-1.84383e-05,8.95559e-06,0
6.79044e-05,5.84173e-05,-6.45632e-06,-0.000204632,5.83937e-06,-8.90783e-06,-1.51133e-05,9.19269e-06,0
5.85542e-05,5.17294e-05,-3.09158e-06,-0.000237738,4.95803e-07,-1.22337e-05,-1.00822e-05,9.26563e-06,0
3.97389e-05,7.28238e-05,3.07678e-07,-0.000227425,1.74428e-06,-1.54333e-05,-5.62082e-06,9.18729e-06,0
1.90828e-05,9.75641e-05,7.55412e-07,-0.000171207,9.14881e-06,-1.49741e-05,-3.11281e-06,9.08336e-06,0
-1.56051e-06,9.45746e-05,-2.37437e-06,-0.000112685,1.9428e-05,-1.25245e-05,-2.50065e-06,8.60042e-06,0
-4.31015e-05,5.51369e-05,-6.24114e-06,-0.000101641,2.81887e-05,-1.14888e-05,-1.43703e-06,7.70845e-06,0
-0.000116402,-6.3882e-06,-8.64132e-06,-0.000121196,2.71461e-05,-1.17841e-05,8.75844e-07,6.63883e-06,0
-0.000187366,-5.90054e-05,-9.76877e-06,-0.00013467,1.80425e-05,-9.18913e-06,2.72506e-06,6.50709e-06,0
-0.000217998,-9.15233e-05,-9.94368e-06,-0.000132799,1.14522e-05,-6.29549e-06,2.39295e-06,6.45668e-06,0
-0.000198964,-0.000106998,-6.83808e-06,-9.89355e-05,1.13111e-05,-9.4698e-06,-3.53001e-06,6.56657e-06,0
-0.000162495,-0.000116718,2.02594e-07,-1.75563e-05,1.51554e-05,-1.40277e-05,-1.44562e-05,7.33893e-06,0
-0.000137017,-0.000120127,7.58976e-06,7.57897e-05,1.76476e-05,-1.5151e-05,-2.36355e-05,8.21125e-06,0
-0.000126845,-0.000105097,1.39807e-05,0.000125617,1.61341e-05,-1.48905e-05,-2.59636e-05,8.82013e-06,0
-0.000117957,-7.62986e-05,1.65986e-05,0.000114205,1.36872e-05,-1.52222e-05,-2.18855e-05,9.35482e-06,0
-0.000105352,-4.37339e-05,1.23622e-05,6.36186e-05,1.06734e-05,-1.7513e-05,-1.39954e-05,9.51786e-06,0
-9.33091e-05,-1.60562e-05,5.99937e-06,2.19413e-05,9.52048e-06,-2.0909e-05,-6.78534e-06,8.14081e-06,0
-8.56823e-05,-8.55303e-06,2.8156e-06,1.34822e-05,9.96441e-06,-2.50735e-05,-5.33589e-06,6.47888e-06,0
-8.53887e-05,-1.28207e-05,3.68697e-06,2.23557e-05,8.03344e-06,-2.82132e-05,-5.50703e-06,6.61105e-06,0
-8.576e-05,4.11325e-07,6.35843e-06,2.7991e-05,4.35159e-06,-2.81244e-05,2.05481e-06,7.79122e-06,0
-7.93573e-05,3.48523e-05,9.78495e-06,2.97564e-05,1.53825e-06,-2.38443e-05,1.74268e-05,6.71194e-06,0
-6.50892e-05,6.14519e-05,1.26571e-05,3.06037e-05,7.13356e-07,-1.74321e-05,3.14109e-05,4.078e-06,0
-5.24783e-05,4.86009e-05,1.23327e-05,2.98174e-05,1.52331e-06,-1.34704e-05,3.58956e-05,2.89461e-06,0
-4.40526e-05,6.67614e-07,7.53471e-06,3.65784e-05,3.54589e-06,-1.29183e-05,3.18424e-05,4.29384e-06,0
-3.74821e-05,-3.64401e-05,1.7314e-06,5.2388e-05,6.33707e-06,-1.38498e-05,2.69267e-05,6.46407e-06,0
-2.99104e-05,-2.83337e-05,5.82562e-07,4.59998e-05,8.54587e-06,-1.43504e-05,2.51262e-05,6.79075e-06,0
-2.32567e-05,3.80906e-06,1.65378e-06,-9.05856e-06,8.66296e-06,-1.46444e-05,2.41032e-05,5.64241e-06,0
-1.77912e-05,3.1651e-05,-2.73934e-06,-7.11599e-05,7.79647e-06,-1.46241e-05,2.09926e-05,4.34837e-06,0
-1.18041e-05,5.95979e-05,-1.2744e-05,-8.68084e-05,8.27608e-06,-1.28498e-05,1.74557e-05,3.95998e-06,0
-2.33416e-06,9.18551e-05,-2.13042e-05,-7.11676e-05,8.65756e-06,-8.98414e-06,1.40448e-05,4.52781e-06,0
1.19286e-05,0.000102603,-2.47145e-05,-6.39181e-05,7.63513e-06,-4.46408e-06,-9.86781e-07,5.22869e-06,0
2.85679e-05,6.74356e-05,-2.58631e-05,-6.99089e-05,8.92042e-06,-1.35527e-06,-4.36519e-05,5.55574e-06,0
4.21045e-05,2.81856e-06,-2.19846e-05,-7.97477e-05,1.3943e-05,-1.3251e-06,-9.40576e-05,4.48876e-06,0
4.77846e-05,-7.38267e-05,-1.19745e-05,-7.33369e-05,1.86862e-05,-3.84693e-06,-0.000109155,3.82555e-06,0
4.34247e-05,-0.000115714,-8.99669e-06,-4.11577e-05,1.89353e-05,-6.7139e-06,-7.81179e-05,3.92264e-06,0
3.57167e-05,-8.56405e-05,-1.67733e-05,1.75602e-06,1.67528e-05,-8.48346e-06,-2.35387e-05,1.88406e-06,0
2.94072e-05,-2.93562e-05,-3.01134e-05,4.95483e-05,1.64854e-05,-9.65092e-06,2.9095e-05,-5.83625e-07,0
2.15017e-05,1.14975e-05,-4.4575e-05,9.12961e-05,1.84502e-05,-8.34865e-06,7.03024e-05,-2.74242e-06,0
9.74211e-06,1.96696e-05,-4.83878e-05,0.00010698,2.22115e-05,-3.02822e-06,9.53515e-05,-2.15112e-06,0
-1.12076e-05,2.20342e-05,-3.72909e-05,9.33267e-05,2.49041e-05,8.49425e-07,0.00010642,-2.32082e-07,0
-3.74786e-05,5.25758e-05,-1.80064e-05,6.77512e-05,2.44879e-05,-8.72921e-07,0.000106088,1.15424e-07,0
-6.22629e-05,0.000102892,8.34246e-08,5.35843e-05,2.29922e-05,-5.52891e-06,9.69183e-05,9.83924e-07,0
-8.0689e-05,0.000148817,1.24679e-05,5.69883e-05,2.1552e-05,-9.93424e-06,8.5135e-05,1.71819e-06,0
-9.30469e-05,0.000184443,2.26427e-05,6.41688e-05,2.0704e-05,-1.4149e-05,7.31754e-05,6.39169e-07,0
-9.40042e-05,0.000204993,3.38078e-05,6.59455e-05,2.12109e-05,-1.60922e-05,6.14858e-05,2.45771e-07,0
-7.77721e-05,0.000185303,4.70213e-05,6.05827e-05,2.2229e-05,-1.45178e-05,4.99471e-05,1.85136e-06,0
-4.94745e-05,0.000112633,6.04828e-05,5.18792e-05,2.08558e-05,-1.30523e-05,4.0997e-05,1.54525e-06,0
-2.0893e-05,1.4503e-05,7.0676e-05,4.64124e-05,1.65751e-05,-1.26404e-05,3.58017e-05,-1.91555e-07,0
-2.49872e-06,-5.32239e-05,7.75642e-05,4.71784e-05,1.1894e-05,-1.30127e-05,3.34249e-05,-1.12749e-06,0
-1.83771e-08,-6.24961e-05,8.04307e-05,4.61211e-05,8.85734e-06,-1.42249e-05,3.12838e-05,-7.8435e-07,0
-8.32231e-06,-2.06852e-05,7.22823e-05,2.41603e-05,7.03721e-06,-1.34425e-05,2.84068e-05,-2.12283e-07,0
-9.61029e-06,3.46748e-05,4.90491e-05,-2.4112e-05,3.79166e-06,-9.20582e-06,2.31107e-05,-2.54887e-07,0
6.20159e-06,6.03831e-05,1.38048e-05,-7.72405e-05,-1.60165e-07,-3.02709e-06,1.62428e-05,-1.74146e-06,0
3.64219e-05,3.4651e-05,-2.64484e-05,-0.000103362,-4.07514e-07,1.34502e-06,1.08341e-05,-3.5149e-06,0
7.11096e-05,-1.4711e-05,-6.12349e-05,-7.80251e-05,3.52051e-06,2.01284e-07,9.15284e-06,-3.25143e-06,0
8.40172e-05,-4.36531e-05,-7.73541e-05,-3.7958e-06,8.06784e-06,-4.67924e-06,1.71501e-05,-2.79549e-07,0
6.04399e-05,-3.32584e-05,-7.50112e-05,5.72745e-05,1.28115e-05,-7.23872e-06,5.46889e-05,2.46956e-06,0
2.46059e-05,7.94944e-06,-6.874e-05,3.2507e-05,1.76164e-05,-4.9733e-06,0.000124478,2.32941e-06,0
3.09649e-06,5.13644e-05,-7.28859e-05,-4.91842e-05,1.84315e-05,-1.98937e-06,0.000184432,1.80345e-07,0
-3.62377e-06,6.47431e-05,-8.62252e-05,-9.30404e-05,1.44692e-05,1.9996e-07,0.000194911,-2.52749e-06,0
-1.47502e-05,6.07879e-05,-9.28278e-05,-6.75738e-05,1.39065e-05,4.16476e-06,0.000144038,-2.6803e-06,0
-3.47163e-05,5.9799e-05,-8.91224e-05,-2.32534e-05,1.78814e-05,7.1041e-06,5.71579e-05,-6.74275e-07,0
-5.53794e-05,2.00888e-05,-7.99064e-05,-9.00672e-06,1.87496e-05,4.81715e-06,-3.34813e-05,1.12036e-06,0
-7.32268e-05,-7.56922e-05,-6.65917e-05,-2.48957e-05,1.65621e-05,-2.08351e-06,-0.000114826,5.51958e-07,0
-9.03979e-05,-0.000185995,-5.47994e-05,-4.78844e-05,1.23749e-05,-9.54358e-06,-0.000164416,-1.6431e-06,0
-0.00010085,-0.000255768,-4.94858e-05,-4.82197e-05,5.84354e-06,-1.35426e-05,-0.000169179,-2.71638e-06,0
-9.31813e-05,-0.000241915,-4.60802e-05,-2.63514e-05,1.62002e-06,-1.38699e-05,-0.000138164,-2.84231e-06,0
-7.18328e-05,-0.000135017,-4.17849e-05,3.27011e-06,5.64927e-06,-1.15014e-05,-0.00010038,-2.86074e-06,0
-5.10303e-05,1.51498e-05,-3.42018e-05,3.47552e-05,1.31039e-05,-8.73671e-06,-7.26593e-05,-3.61875e-06,0
-3.77648e-05,0.000129662,-2.17366e-05,5.52797e-05,1.32614e-05,-7.80383e-06,-5.24435e-05,-4.44618e-06,0
-2.66021e-05,0.000165739,-9.08008e-06,5.86186e-05,7.00792e-06,-8.65671e-06,-3.37297e-05,-5.01112e-06,0
-1.67849e-05,0.000144023,2.99537e-07,5.19796e-05,3.96995e-06,-1.06737e-05,-1.41183e-05,-6.56048e-06,0
-1.1732e-05,0.000118385,8.39686e-06,3.90623e-05,7.00837e-06,-1.08267e-05,3.45987e-06,-8.22873e-06,0
-1.39881e-05,9.89842e-05,1.65292e-05,1.68917e-05,1.15667e-05,-7.61733e-06,1.72531e-05,-9.13654e-06,0
-1.92207e-05,5.60925e-05,2.12041e-05,-1.4092e-05,1.45096e-05,-3.37302e-06,2.69917e-05,-8.90569e-06,0
-2.27017e-05,-1.46682e-05,2.00136e-05,-4.95262e-05,1.56591e-05,-9.69384e-07,3.39956e-05,-7.85821e-06,0
-2.53396e-05,-7.79689e-05,1.42917e-05,-7.62133e-05,1.62779e-05,-1.50146e-06,3.35025e-05,-6.43161e-06,0
-3.00018e-05,-9.94804e-05,7.4736e-06,-8.18069e-05,1.6088e-05,-5.19864e-06,2.33132e-05,-4.84233e-06,0
-3.62201e-05,-7.37711e-05,6.61899e-07,-6.69334e-05,1.37402e-05,-1.05013e-05,6.74608e-06,-3.93935e-06,0
-4.25085e-05,-2.47894e-05,-6.89959e-06,-5.0623e-05,9.6451e-06,-1.39723e-05,-4.57458e-06,-5.62389e-06,0
-4.87059e-05,1.54235e-06,-1.52238e-05,-5.14312e-05,7.60442e-06,-1.45753e-05,-6.26343e-06,-9.0493e-06,0
-5.30674e-05,-3.26682e-05,-1.91221e-05,-6.94699e-05,9.37072e-06,-1.38081e-05,-1.50573e-06,-9.16147e-06,0
-5.35103e-05,-0.000107215,-1.43161e-05,-7.9558e-05,1.26367e-05,-1.15026e-05,3.27264e-06,-6.16873e-06,0
-4.80147e-05,-0.000157375,-1.08094e-05,-6.22732e-05,1.43995e-05,-8.18836e-06,6.72485e-06,-3.65541e-06,0
-3.9524e-05,-0.000150848,-1.93317e-05,-2.58955e-05,1.34772e-05,-6.22482e-06,1.23091e-05,-3.12945e-06,0
-3.06406e-05,-8.66979e-05,-2.66544e-05,8.21646e-06,1.33086e-05,-5.26859e-06,1.96382e-05,-3.54354e-06,0
-2.27221e-05,6.65289e-06,-2.19593e-05,2.52644e-05,1.64947e-05,-5.14933e-06,2.47283e-05,-3.5144e-06,0
-1.93445e-05,7.91445e-05,-1.30906e-05,8.02367e-06,1.73248e-05,-5.65738e-06,2.68658e-05,-2.7087e-06,0
-2.07513e-05,0.000100425,-7.75457e-06,-3.65757e-05,1.27084e-05,-5.87789e-06,2.47943e-05,-1.57985e-06,0
-1.2258e-05,8.11943e-05,-4.61021e-06,-7.50023e-05,9.94379e-06,-4.47499e-06,2.0938e-05,-1.86486e-06,0
1.68726e-05,6.42044e-05,1.58617e-06,-9.17652e-05,1.28089e-05,-1.73999e-06,1.91997e-05,-2.71012e-06,0
5.09748e-05,7.72852e-05,1.06887e-05,-7.68657e-05,1.59711e-05,7.14264e-07,1.79302e-05,-3.33798e-06,0
7.71129e-05,8.41678e-05,1.98662e-05,-3.50231e-05,1.56637e-05,1.25507e-06,1.67415e-05,-3.6917e-06,0
8.92913e-05,5.10312e-05,2.54076e-05,1.91476e-05,1.46434e-05,-1.14572e-06,1.48324e-05,-3.55414e-06,0
7.63141e-05,1.45055e-05,2.70625e-05,7.34092e-05,1.75904e-05,-3.33092e-06,1.22715e-05,-2.72982e-06,0
3.87182e-05,1.91029e-05,2.10129e-05,0.000112411,2.18692e-05,-3.75769e-06,8.52919e-06,-1.12441e-06,0
-1.26183e-05,5.30353e-05,3.99966e-06,0.000134334,1.98287e-05,-4.42124e-06,9.08983e-06,-1.30482e-07,0
-5.53329e-05,7.1394e-05,-1.25011e-05,0.000147699,1.35954e-05,-5.68506e-06,1.04686e-05,-7.30365e-08,0
-7.52715e-05,6.59918e-05,-1.48052e-05,0.000135028,1.22306e-05,-6.69271e-06,8.73809e-06,-9.26731e-07,0
-8.03134e-05,5.68292e-05,-7.27673e-06,9.63846e-05,1.86647e-05,-7.53291e-06,7.19999e-06,-1.2055e-06,0
-8.60698e-05,5.22921e-05,-3.75625e-06,6.68652e-05,2.40766e-05,-8.59328e-06,4.33173e-06,-8.38552e-07,0
-9.7567e-05,4.9082e-05,-6.70998e-06,6.48466e-05,2.11738e-05,-1.01381e-05,-1.83498e-05,-5.77564e-07,0
-0.000109704,4.31555e-05,-9.18212e-06,7.18053e-05,1.33478e-05,-1.20966e-05,-6.63017e-05,9.11095e-07,0
-0.000118934,3.43346e-05,-4.88324e-06,5.54264e-05,7.28344e-06,-1.41112e-05,-0.000103291,3.309e-06,0
-0.000121004,3.04266e-05,5.31038e-06,4.29433e-06,5.10132e-06,-1.37521e-05,-9.81605e-05,4.23006e-06,0
-0.000112106,3.0802e-05,1.36879e-05,-6.94378e-05,4.70356e-06,-1.05137e-05,-8.03063e-05,2.90172e-06,0
-9.38277e-05,1.98116e-05,1.53487e-05,-0.000130766,3.91164e-06,-7.99524e-06,-0.000100618,9.43425e-07,0
-7.69747e-05,-9.60306e-06,1.26348e-05,-0.000142617,3.25172e-06,-8.08226e-06,-0.000125137,4.10315e-07,0
-6.82582e-05,-3.98639e-05,9.08343e-06,-0.000100049,4.27696e-06,-9.11302e-06,-8.5347e-05,1.44066e-06,0
-6.39401e-05,-4.57258e-05,6.1971e-06,-5.03664e-05,5.24862e-06,-8.52368e-06,-2.89971e-06,1.84283e-06,0
-5.74066e-05,-2.97521e-05,3.92239e-06,-4.64646e-05,5.93346e-06,-6.1024e-06,4.1693e-05,2.35804e-06,0
-4.74969e-05,-1.52746e-05,3.75437e-07,-7.20753e-05,7.62065e-06,-5.31819e-06,-2.51842e-06,3.42529e-06,0
-3.41501e-05,-6.16387e-06,-6.27653e-06,-6.46355e-05,8.00329e-06,-8.07229e-06,-9.75091e-05,3.05123e-06,0
-1.96936e-05,8.6548e-06,-1.43618e-05,-2.12418e-05,6.31157e-06,-1.08833e-05,-0.000133705,1.65486e-06,0
-9.51675e-06,4.08603e-05,-1.77595e-05,1.46203e-05,8.03604e-06,-1.24635e-05,-2.71317e-05,1.53217e-06,0
-3.51715e-06,7.54124e-05,-1.72561e-05,1.93725e-05,1.34592e-05,-1.36132e-05,0.000157642,1.52992e-06,0
2.57159e-08,8.6175e-05,-1.82073e-05,-4.03848e-06,1.64786e-05,-1.47254e-05,0.00031617,-3.08601e-07,0
-3.14632e-06,7.61458e-05,-1.96813e-05,-1.74063e-05,1.46194e-05,-1.55122e-05,0.000424812,-1.42862e-06,0
-1.10561e-05,5.81363e-05,-2.08549e-05,-1.82872e-06,1.20385e-05,-1.5497e-05,0.000464236,-1.01528e-06,0
-1.55865e-05,4.41797e-05,-1.97693e-05,1.66855e-05,1.33424e-05,-1.36426e-05,0.000442644,8.70847e-07,0
-1.69039e-05,4.08251e-05,-1.40444e-05,1.60904e-05,1.64267e-05,-9.02855e-06,0.000364777,3.67558e-06,0
-2.45538e-05,4.20078e-05,-6.36686e-06,2.28495e-06,1.83376e-05,-4.95408e-06,0.000245318,4.18826e-06,0
-4.49906e-05,4.09814e-05,3.51969e-07,-6.98625e-06,2.05738e-05,-3.8389e-06,0.000108774,3.38715e-06,0
-7.26339e-05,5.64822e-05,7.73217e-06,-2.50895e-06,2.31976e-05,-3.15038e-06,-7.30629e-06,4.04296e-06,0
-9.51671e-05,9.31168e-05,1.50678e-05,1.41448e-05,2.42774e-05,-1.41941e-06,-7.26102e-05,5.851e-06,0
-0.000100502,0.000115249,1.68192e-05,2.58713e-05,2.1967e-05,-5.04598e-07,-8.91765e-05,7.47541e-06,0
-8.8399e-05,9.6544e-05,1.20173e-05,2.49514e-05,1.5412e-05,-2.02055e-06,-7.31268e-05,7.90227e-06,0
-7.0373e-05,4.87553e-05,4.97452e-06,1.8772e-05,6.6215e-06,-5.77534e-06,-5.44259e-05,7.22472e-06,0
-5.70937e-05,4.81542e-06,7.07353e-07,1.13696e-05,4.8794e-07,-8.80005e-06,-4.38195e-05,6.95757e-06,0
-4.80924e-05,-5.22302e-06,8.50434e-07,5.86844e-06,-2.12942e-07,-8.97505e-06,-4.37064e-05,7.75463e-06,0
-3.77419e-05,1.33324e-05,4.42613e-06,5.80581e-06,2.86889e-06,-6.99342e-06,-4.87738e-05,7.40166e-06,0
-2.68326e-05,1.64879e-05,7.93171e-06,8.78252e-06,8.12653e-06,-4.88026e-06,-5.65848e-05,4.80737e-06,0
-2.10985e-05,-2.63207e-05,3.78262e-06,3.45433e-06,1.25766e-05,-4.89783e-06,-5.56725e-05,2.51239e-06,0
-2.12692e-05,-9.71154e-05,-1.13909e-05,-1.49587e-05,1.35934e-05,-7.75547e-06,-4.77284e-05,2.65078e-06,0
-2.4311e-05,-0.000145882,-2.68218e-05,-3.39966e-05,1.25368e-05,-1.20068e-05,-4.11034e-05,3.7754e-06,0
-2.60851e-05,-0.000140599,-3.04122e-05,-3.84726e-05,1.134e-05,-1.56667e-05,-3.97653e-05,5.15902e-06,0
-2.23044e-05,-9.59022e-05,-2.57986e-05,-3.42197e-05,9.48797e-06,-1.5743e-05,-3.82249e-05,7.47547e-06,0
-1.18537e-05,-4.79128e-05,-2.03604e-05,-3.27272e-05,7.15722e-06,-1.29599e-05,-3.35086e-05,6.85511e-06,0
-1.03847e-06,-1.21536e-05,-1.75309e-05,-2.65678e-05,5.52013e-06,-1.05633e-05,-2.4623e-05,3.88034e-06,0
3.5723e-06,1.69578e-05,-2.20829e-05,-6.26398e-06,8.75639e-06,-8.27228e-06,-1.32967e-05,2.63918e-06,0
2.60024e-06,4.69162e-05,-3.19048e-05,1.63728e-05,1.70523e-05,-6.09694e-06,-2.97621e-06,3.01938e-06,0
-2.79503e-06,7.79683e-05,-3.47944e-05,3.67849e-05,2.33403e-05,-5.42529e-06,4.97395e-06,3.32075e-06,0
-1.01717e-05,8.56832e-05,-2.69621e-05,4.12515e-05,2.14323e-05,-8.91532e-06,6.586e-06,4.01171e-06,0
-1.94168e-05,5.12636e-05,-2.04834e-05,1.00352e-05,1.16055e-05,-1.35337e-05,4.85604e-06,4.72094e-06,0
-2.93994e-05,-3.83692e-07,-2.53133e-05,-3.73264e-05,3.49898e-06,-1.47229e-05,1.91312e-06,3.40964e-06,0
-3.7587e-05,-3.3469e-05,-3.38923e-05,-7.48271e-05,4.07751e-06,-1.27559e-05,-8.53447e-07,2.44585e-06,0
-4.67177e-05,-2.56173e-05,-3.59755e-05,-9.49125e-05,9.86485e-06,-9.2138e-06,-3.70547e-06,1.90939e-06,0
-5.5432e-05,1.29141e-05,-3.66552e-05,-0.000112172,1.37385e-05,-7.25078e-06,-1.07589e-05,1.52319e-06,0
-6.12343e-05,4.05251e-05,-3.78657e-05,-0.00014191,1.32932e-05,-7.28767e-06,-2.81468e-05,1.12082e-06,0
-6.39563e-05,2.86864e-05,-3.2718e-05,-0.000175958,1.01875e-05,-8.16807e-06,-4.79003e-05,1.8528e-06,0
-5.61053e-05,-3.02584e-05,-2.23153e-05,-0.000189539,5.06253e-06,-8.21967e-06,-6.05309e-05,2.62165e-06,0
-3.22372e-05,-0.000115298,-1.38436e-05,-0.00015329,1.01177e-06,-6.37943e-06,-6.23801e-05,1.56499e-06,0
-4.54988e-06,-0.000146787,-8.78492e-06,-6.4816e-05,3.76909e-06,-4.92252e-06,-6.1203e-05,7.97386e-07,0
1.15354e-05,-7.92808e-05,-2.09823e-06,3.61785e-05,1.3706e-05,-6.708e-06,-7.08259e-05,9.34258e-07,0
1.59489e-05,2.81926e-05,5.06726e-06,0.000108947,2.43854e-05,-1.03037e-05,-8.7628e-05,2.08979e-06,0
1.41073e-05,9.94847e-05,6.85028e-06,0.000141495,2.97053e-05,-1.21538e-05,-8.57038e-05,3.42702e-06,0
8.68033e-06,0.000123105,6.14691e-06,0.00014795,2.71291e-05,-1.23024e-05,-5.1562e-05,4.1545e-06,0
1.32146e-06,0.000134025,7.44769e-06,0.000149921,1.79561e-05,-1.33179e-05,6.92097e-07,3.51716e-06,0
-6.59778e-06,0.000150605,9.27568e-06,0.000149867,8.95734e-06,-1.49669e-05,4.71278e-05,2.04396e-06,0
-1.40093e-05,0.000156534,1.21295e-05,0.000133363,5.21267e-06,-1.45375e-05,7.79586e-05,5.3639e-07,0
-1.98032e-05,0.000129146,1.72674e-05,9.06892e-05,5.5577e-06,-1.14297e-05,9.52899e-05,-2.74102e-07,0
-2.43671e-05,8.29788e-05,2.31293e-05,2.9277e-05,6.20483e-06,-6.86828e-06,9.67444e-05,-1.04309e-06,0
-3.07355e-05,3.96085e-05,2.73758e-05,-2.5928e-05,4.99099e-06,-3.2505e-06,7.67531e-05,-8.30913e-07,0
-4.01466e-05,-6.56154e-06,2.82455e-05,-3.9982e-05,3.93193e-06,-3.49184e-06,4.51534e-05,4.91085e-07,0
-4.62179e-05,-6.24475e-05,2.22537e-05,-9.84901e-06,4.44501e-06,-7.48105e-06,2.30354e-05,7.11323e-07,0
-4.19429e-05,-0.000107595,7.96809e-06,2.56817e-05,5.73351e-06,-1.12572e-05,1.75715e-05,-1.36919e-06,0
-3.32185e-05,-0.000110389,-6.79913e-06,4.27962e-05,8.79735e-06,-1.23067e-05,2.00143e-05,-3.64251e-06,0
-3.09877e-05,-7.56435e-05,-1.32288e-05,5.27946e-05,1.35945e-05,-1.20623e-05,2.24728e-05,-3.73509e-06,0
-4.01781e-05,-3.47267e-05,-1.11059e-05,6.65523e-05,2.09302e-05,-1.33312e-05,2.95374e-05,-3.38406e-06,0
-5.17806e-05,-7.55231e-06,-8.30086e-06,6.20375e-05,2.73115e-05,-1.55207e-05,4.23209e-05,-3.336e-06,0
-5.25973e-05,8.49409e-06,-5.96959e-06,3.48561e-05,2.50223e-05,-1.65377e-05,5.23824e-05,-2.74004e-06,0
-3.89578e-05,1.94388e-05,-4.20669e-06,4.00353e-07,1.66439e-05,-1.41909e-05,5.28345e-05,-7.01809e-07,0
-1.93931e-05,1.4119e-05,-7.71388e-06,-3.40003e-05,9.57528e-06,-9.97217e-06,4.57874e-05,2.33364e-06,0
-4.83e-06,-3.31036e-06,-1.69896e-05,-5.36586e-05,6.50325e-06,-9.61107e-06,3.77683e-05,4.60848e-06,0
8.14316e-06,5.44498e-06,-3.07706e-05,-5.8443e-05,4.10754e-06,-1.20646e-05,3.23504e-05,4.1943e-06,0
2.29072e-05,4.99218e-05,-3.57226e-05,-3.74163e-05,7.0477e-07,-1.29882e-05,2.71729e-05,2.06391e-06,0
3.52763e-05,9.81297e-05,-2.2046e-05,1.05123e-05,-2.9974e-07,-1.25869e-05,2.08529e-05,1.01144e-06,0
4.36039e-05,0.000137664,2.13305e-06,4.86574e-05,2.29094e-06,-1.31611e-05,1.43836e-05,1.50448e-06,0
5.05197e-05,0.000156676,2.41841e-05,4.71049e-05,3.65721e-06,-1.38929e-05,8.22939e-06,2.53665e-06,0
4.87361e-05,0.000153451,3.70291e-05,1.92084e-05,2.40274e-06,-1.15524e-05,1.12927e-06,3.05554e-06,0
3.32733e-05,0.000155564,3.88708e-05,-5.56155e-06,1.84724e-06,-5.68733e-06,-4.85865e-06,2.52835e-06,0
1.45103e-05,0.000158934,3.36295e-05,-9.45875e-06,5.33817e-06,-3.54255e-07,-6.19792e-06,2.05125e-06,0
2.65092e-07,0.000130992,2.34937e-05,9.95805e-06,1.30953e-05,1.16358e-06,-2.4926e-06,1.84704e-06,0
-1.43428e-05,6.81305e-05,4.23227e-06,3.28468e-05,1.82407e-05,3.94598e-08,2.88716e-06,1.84013e-06,0
-3.43088e-05,8.92098e-07,-2.14673e-05,4.26365e-05,1.63221e-05,-2.19473e-06,6.33778e-06,1.80098e-06,0
-5.01044e-05,-5.18421e-05,-4.11755e-05,4.59242e-05,1.26224e-05,-5.65489e-06,8.05925e-06,1.21805e-06,0
-5.37745e-05,-8.56164e-05,-4.54351e-05,5.50211e-05,1.74267e-05,-9.24086e-06,9.30549e-06,-3.68109e-07,0
-5.19024e-05,-0.000110807,-3.72694e-05,5.93888e-05,3.02285e-05,-1.03391e-05,1.00266e-05,-2.17503e-06,0
-5.39305e-05,-0.0001389,-2.85722e-05,4.36353e-05,3.74293e-05,-1.02935e-05,1.00308e-05,-2.38045e-06,0
-5.12426e-05,-0.000149005,-2.88844e-05,1.16459e-05,3.16272e-05,-1.18987e-05,9.3855e-06,-1.64134e-06,0
-2.0052e-05,-0.000109708,-3.07161e-05,-2.23748e-05,2.12563e-05,-1.34388e-05,7.97738e-06,-9.8199e-07,0
3.86819e-05,-3.03659e-05,-2.37676e-05,-5.95272e-05,1.57031e-05,-1.25879e-05,8.03909e-06,1.08307e-07,0
9.21481e-05,4.93988e-05,-1.18416e-05,-9.48476e-05,1.30907e-05,-9.45521e-06,9.55764e-06,1.19076e-06,0
0.000115061,0.000106633,-3.82293e-06,-8.40631e-05,6.98351e-06,-8.4995e-06,1.00633e-05,2.5866e-06,0
9.99433e-05,0.000132858,2.06817e-06,-2.27585e-05,8.22609e-07,-9.79999e-06,1.02245e-05,3.3638e-06,0
5.18929e-05,0.000115781,9.77262e-06,1.35935e-06,-9.81792e-07,-1.24259e-05,1.39642e-05,1.82496e-06,0
-1.37836e-05,5.56185e-05,9.11582e-06,-4.26308e-05,-6.36831e-07,-1.72995e-05,1.8674e-05,2.37233e-07,0
-8.02877e-05,-1.70171e-05,-7.66632e-06,-8.26681e-05,7.27237e-07,-1.96791e-05,1.85806e-05,-1.26122e-06,0
-0.000132914,-6.4758e-05,-2.95915e-05,-8.47484e-05,4.64174e-06,-1.97928e-05,1.49263e-05,-2.58026e-06,0
-0.000164964,-6.97757e-05,-4.61512e-05,-6.46036e-05,1.05224e-05,-1.84038e-05,1.4919e-05,-1.75403e-06,0
-0.000189982,-5.2955e-05,-5.50872e-05,-2.29572e-05,1.6166e-05,-1.73872e-05,4.11117e-05,9.27612e-07,0
-0.000207125,-3.06425e-05,-5.54162e-05,1.89361e-05,1.95674e-05,-1.84088e-05,0.000105141,1.02708e-06,0
-0.000200418,6.81431e-06,-4.8365e-05,3.84406e-05,1.99694e-05,-1.8628e-05,0.00017015,-8.8173e-07,0
-0.000169766,5.44657e-05,-3.58329e-05,5.97175e-05,2.26306e-05,-1.55232e-05,0.000195032,-1.68634e-06,0
-0.000124215,9.17579e-05,-1.92834e-05,9.31039e-05,3.00484e-05,-1.04954e-05,0.000166833,-1.79124e-06,0
-8.09687e-05,0.00010147,-1.64385e-07,0.000100945,4.1799e-05,-5.16862e-06,9.77637e-05,-2.32718e-06,0
-5.76492e-05,7.69091e-05,1.54864e-05,5.87031e-05,5.25399e-05,-4.0424e-08,1.14336e-05,-3.25146e-06,0
-5.6762e-05,9.40452e-06,2.16127e-05,-7.27918e-06,5.74897e-05,2.89627e-06,-7.34527e-05,-3.38264e-06,0
-5.93133e-05,-9.87492e-05,1.67032e-05,-6.51176e-05,5.52244e-05,3.90368e-06,-0.000136841,-4.27267e-06,0
-5.38111e-05,-0.000213377,6.13055e-06,-0.000104932,4.60169e-05,2.30947e-06,-0.000162028,-4.62695e-06,0
-4.78162e-05,-0.000286196,-3.95217e-06,-0.000123498,3.35774e-05,-3.09171e-06,-0.000147061,-2.83972e-06,0
-4.8039e-05,-0.000287186,-1.13246e-05,-0.000117606,2.17032e-05,-1.05094e-05,-0.000112017,1.08402e-07,0
-4.49697e-05,-0.000219854,-1.3725e-05,-9.16996e-05,1.41915e-05,-1.34871e-05,-8.04905e-05,2.18214e-06,0
-2.79403e-05,-0.000126247,-9.25498e-06,-5.90347e-05,1.3745e-05,-1.02802e-05,-6.18473e-05,2.30335e-06,0
-2.1585e-06,-5.66092e-05,5.34261e-07,-3.4965e-05,1.96384e-05,-5.1278e-06,-4.90186e-05,1.3796e-06,0
1.57957e-05,-2.60953e-05,1.22883e-05,-2.27646e-05,2.66341e-05,-1.26409e-06,-3.2419e-05,9.38555e-07,0
1.95488e-05,-1.6775e-05,2.28821e-05,-1.77659e-05,3.12738e-05,2.21617e-06,-1.22997e-05,1.0623e-06,0
1.45772e-05,-6.4586e-06,3.14775e-05,-1.75282e-05,3.15433e-05,5.48947e-06,5.52771e-06,1.11631e-06,0
4.12194e-06,7.70392e-06,4.23784e-05,-2.33368e-05,2.7257e-05,4.86438e-06,1.84065e-05,1.96097e-06,0
-8.58048e-06,1.96385e-05,5.00757e-05,-3.36585e-05,1.94867e-05,-7.2273e-08,2.71336e-05,2.11039e-06,0
-2.23056e-05,2.59515e-05,3.82172e-05,-4.6452e-05,1.22731e-05,-4.45952e-06,3.05398e-05,-2.93425e-07,0
-3.38272e-05,2.7864e-05,1.37579e-06,-5.96581e-05,6.86818e-06,-7.11784e-06,2.34328e-05,-1.57662e-06,0
-3.90424e-05,3.66331e-05,-4.75404e-05,-4.47273e-05,6.28671e-07,-1.02035e-05,5.90049e-06,-9.04226e-07,0
-3.23214e-05,6.35748e-05,-7.96086e-05,1.31121e-05,-3.14454e-06,-1.33679e-05,-6.60337e-06,-1.34974e-07,0
-1.91497e-05,9.14918e-05,-9.08053e-05,6.54332e-05,-3.53068e-06,-1.46051e-05,-5.71628e-06,7.1623e-07,0
-1.36502e-05,0.00010212,-9.46717e-05,7.94355e-05,-1.68684e-06,-1.21058e-05,5.8398e-06,2.08688e-06,0
-1.73352e-05,0.000112845,-8.69671e-05,7.77671e-05,2.17216e-06,-8.13531e-06,2.30907e-05,3.38157e-06,0
-2.29965e-05,0.000134515,-6.60217e-05,8.43889e-05,3.84008e-06,-7.06164e-06,3.17689e-05,3.04638e-06,0
-2.56165e-05,0.000147135,-3.905e-05,7.51887e-05,4.07411e-06,-8.72885e-06,2.74971e-05,2.60922e-06,0
-2.84507e-05,0.00012989,-1.65613e-05,3.1666e-05,5.79941e-06,-9.35451e-06,2.04189e-05,2.82104e-06,0
-3.49915e-05,8.5473e-05,1.45987e-06,-1.63895e-05,6.59034e-06,-7.5461e-06,1.74987e-05,4.30316e-06,0
-4.03282e-05,1.62246e-05,1.45165e-05,-4.59006e-05,3.41119e-06,-5.63467e-06,2.05736e-05,6.74483e-06,0
-3.51065e-05,-4.63837e-05,2.26105e-05,-4.81223e-05,-1.40654e-06,-6.79325e-06,1.82973e-05,7.83778e-06,0
-1.4124e-05,-5.34069e-05,2.70505e-05,-2.90657e-05,-7.25484e-07,-9.72386e-06,-3.83188e-05,7.44781e-06,0
1.89967e-05,-2.24333e-05,2.75794e-05,-9.89347e-06,7.50582e-06,-1.07988e-05,-0.000167591,7.53644e-06,0
4.90309e-05,1.01255e-07,2.47347e-05,-1.3007e-05,1.74947e-05,-7.75211e-06,-0.000272407,7.24146e-06,0
5.76149e-05,1.16985e-05,2.22725e-05,-3.41078e-05,2.07499e-05,-3.25586e-06,-0.000253743,5.94237e-06,0
3.85389e-05,5.04663e-05,2.22694e-05,-4.72339e-05,1.50716e-05,-3.17336e-06,-0.000123799,5.39494e-06,0
1.90889e-06,0.000129101,2.11452e-05,-4.10047e-05,5.76183e-06,-7.91037e-06,3.99787e-05,5.28883e-06,0
-3.60536e-05,0.000200028,1.77997e-05,-3.21001e-05,1.30452e-06,-1.15858e-05,0.000177349,3.80552e-06,0
-6.6803e-05,0.000196467,8.52726e-06,-4.35788e-05,4.04848e-06,-1.21588e-05,0.00026302,1.71489e-06,0
-8.83709e-05,0.000121857,-8.29979e-06,-7.44305e-05,8.85482e-06,-1.25719e-05,0.000292179,9.51451e-07,0
-0.000100125,4.14658e-05,-2.68999e-05,-0.000100291,1.30609e-05,-1.26899e-05,0.000276007,7.22508e-07,0
-0.000103584,-2.8154e-05,-3.47571e-05,-0.000107978,1.70578e-05,-1.14347e-05,0.000235551,2.16175e-07,0
-0.000101735,-0.000120667,-2.93466e-05,-9.76937e-05,1.8924e-05,-1.04092e-05,0.000190539,2.54526e-08,0
-9.64259e-05,-0.000229325,-1.98617e-05,-6.9016e-05,1.63466e-05,-1.11379e-05,0.000150396,-5.2751e-07,0
-8.94161e-05,-0.000311403,-1.63926e-05,-3.6942e-05,1.08066e-05,-1.39304e-05,0.000119364,-1.7201e-06,0
-7.74818e-05,-0.000334666,-1.47455e-05,-1.61974e-05,6.7943e-06,-1.71501e-05,9.89636e-05,-2.70118e-06,0
-6.01529e-05,-0.000288922,-7.64109e-06,-2.92199e-06,8.27851e-06,-1.9037e-05,8.62559e-05,-2.52852e-06,0
-4.45437e-05,-0.000176973,2.66472e-06,1.32878e-05,1.11414e-05,-1.90804e-05,7.36416e-05,1.14521e-07,0
-3.7428e-05,-5.17195e-05,5.97972e-06,1.95104e-05,8.69978e-06,-2.05847e-05,5.69138e-05,1.34512e-06,0
-3.71805e-05,3.17284e-05,5.49863e-08,5.67177e-06,1.28871e-06,-2.43048e-05,3.6503e-05,5.09987e-07,0
-3.95018e-05,7.82433e-05,-5.07371e-06,-2.77688e-05,-4.39826e-06,-2.73164e-05,1.49869e-05,-5.50615e-07,0
-4.16275e-05,9.17257e-05,-5.54206e-06,-6.63917e-05,-7.16154e-06,-2.92975e-05,-5.31163e-06,-2.48189e-06,0
-4.30491e-05,8.81299e-05,-2.35475e-06,-7.20718e-05,-1.14197e-05,-2.81881e-05,-2.17876e-05,-4.00407e-06,0
-4.58491e-05,7.667e-05,8.40233e-07,-3.21812e-05,-1.3425e-05,-2.38507e-05,-3.24314e-05,-4.95861e-06,0
-4.37633e-05,6.76721e-05,1.32549e-06,4.02832e-05,-4.85938e-06,-1.80714e-05,-3.73907e-05,-4.59267e-06,0
-3.31841e-05,6.2176e-05,-3.40729e-06,0.000109744,9.77522e-06,-1.36611e-05,-3.81905e-05,-3.8609e-06,0
-1.908e-05,5.83792e-05,-1.10398e-05,0.000146306,2.07525e-05,-1.07518e-05,-3.61322e-05,-3.8755e-06,0
-8.59255e-06,5.58361e-05,-2.0178e-05,0.000144935,2.62111e-05,-8.54742e-06,-3.34001e-05,-4.47952e-06,0
-4.34479e-06,5.6543e-05,-3.50615e-05,0.000117835,2.55266e-05,-8.14314e-06,-3.06595e-05,-3.81287e-06,0
-3.94181e-06,5.97729e-05,-5.04161e-05,8.25086e-05,2.0389e-05,-8.77885e-06,-2.70512e-05,-2.28565e-06,0
3.83191e-06,5.78004e-05,-5.43465e-05,4.95318e-05,1.51167e-05,-8.44e-06,-2.25524e-05,-2.21037e-06,0
2.89267e-05,6.21541e-05,-4.42156e-05,1.952e-05,1.26169e-05,-7.1609e-06,-2.44988e-05,-2.86859e-06,0
5.67385e-05,8.19997e-05,-3.01562e-05,-1.35258e-05,1.07696e-05,-7.66494e-06,-5.04289e-05,-2.64025e-06,0
6.23223e-05,0.000117514,-2.11417e-05,-4.13257e-05,8.16435e-06,-1.09901e-05,-9.83161e-05,-1.5146e-06,0
4.33978e-05,0.000152917,-1.62238e-05,-4.35068e-05,6.51722e-06,-1.47567e-05,-0.000129052,-1.19439e-06,0
1.58485e-05,0.000176864,-1.00757e-05,-1.0995e-05,9.60731e-06,-1.55233e-05,-0.000113811,-2.19449e-06,0
-8.66341e-06,0.000185073,-9.34189e-07,3.43155e-05,1.72513e-05,-1.27276e-05,-6.4765e-05,-2.5579e-06,0
-2.62673e-05,0.000194629,7.19189e-06,6.7966e-05,2.271e-05,-8.67103e-06,-6.65639e-06,1.07045e-06,0
-3.87567e-05,0.00021521,1.1548e-05,8.28098e-05,2.15749e-05,-6.50428e-06,4.04505e-05,6.07653e-06,0
-4.87428e-05,0.000225739,1.20996e-05,7.82993e-05,1.57086e-05,-7.1667e-06,6.67526e-05,1.08926e-05,0
-5.67761e-05,0.000193936,1.11204e-05,4.69329e-05,8.78155e-06,-8.34254e-06,7.47209e-05,2.02092e-05,0
-6.10646e-05,0.000126561,1.19307e-05,-6.23472e-06,2.66315e-06,-8.80951e-06,7.35466e-05,3.40198e-05,0
-5.34179e-05,4.59826e-05,1.76336e-05,-5.89046e-05,-2.52475e-06,-9.1896e-06,7.19392e-05,4.14578e-05,0
-3.17493e-05,-4.76386e-05,2.86409e-05,-9.00081e-05,-6.83914e-06,-8.08065e-06,7.19106e-05,4.02771e-05,0
-1.19705e-05,-0.000165024,4.10154e-05,-9.7315e-05,-4.08417e-06,-6.90827e-06,6.15358e-05,3.25971e-05,0
-6.68967e-06,-0.00024635,4.72455e-05,-0.000104721,4.50763e-06,-7.39159e-06,3.39946e-05,1.58749e-05,0
-1.64351e-05,-0.000237934,4.1439e-05,-0.000110842,9.38446e-06,-8.6654e-06,-1.0982e-06,-5.16749e-06,0
-3.45995e-05,-0.000182515,1.89994e-05,-8.37431e-05,7.05571e-06,-8.6246e-06,-2.60767e-05,-2.54161e-05,0
-4.989e-05,-0.000120633,-1.40623e-05,-1.99128e-05,2.95367e-06,-8.1412e-06,-2.78914e-05,-3.85172e-05,0
-5.25839e-05,-7.81758e-05,-4.22366e-05,5.15638e-05,4.46401e-06,-7.76046e-06,-1.35719e-05,-4.17048e-05,0
-4.40199e-05,-4.89855e-05,-5.74683e-05,0.000102447,1.33918e-05,-6.06984e-06,5.71279e-06,-3.69704e-05,0
-3.51193e-05,-3.02683e-05,-6.24035e-05,0.000121044,2.32416e-05,-6.12248e-06,2.0617e-05,-3.05639e-05,0
-3.37409e-05,-1.95319e-05,-6.42198e-05,0.000109186,2.4064e-05,-9.13019e-06,2.79886e-05,-2.53667e-05,0
-3.67271e-05,-1.23497e-05,-6.24238e-05,7.11961e-05,1.64096e-05,-1.19702e-05,3.44621e-05,-1.93274e-05,0
-3.90534e-05,-5.29569e-06,-5.33026e-05,3.07403e-06,8.29455e-06,-1.15067e-05,4.13004e-05,-1.13532e-05,0
-4.01488e-05,2.97898e-06,-3.7287e-05,-8.4027e-05,6.30801e-06,-9.0999e-06,4.14116e-05,-2.83046e-06,0
-4.02613e-05,1.61823e-05,-2.04047e-05,-0.00015313,1.10208e-05,-6.62221e-06,3.28793e-05,2.50622e-06,0
-3.97321e-05,3.35187e-05,-8.33489e-06,-0.000162795,1.91807e-05,-5.1923e-06,2.25943e-05,3.95385e-06,0
-3.89475e-05,4.41333e-05,-3.03718e-06,-0.000106976,2.67284e-05,-4.51228e-06,1.648e-05,3.75705e-06,0
-3.88722e-05,4.80753e-05,-2.43156e-06,-2.01937e-05,2.82519e-05,-4.07267e-06,1.63343e-05,4.75477e-06,0
-3.85093e-05,5.13895e-05,-2.9285e-06,5.60304e-05,2.36513e-05,-4.15872e-06,1.92749e-05,6.14091e-06,0
-3.64949e-05,6.55702e-05,-4.62507e-06,9.10879e-05,1.91955e-05,-5.75017e-06,8.17599e-06,7.95751e-06,0
-3.07475e-05,8.48051e-05,-8.5801e-06,8.64667e-05,1.78914e-05,-9.7235e-06,-4.79519e-05,1.01884e-05,0
-2.00157e-05,8.95125e-05,-1.20502e-05,7.20228e-05,1.47084e-05,-1.43851e-05,-0.000134109,1.17047e-05,0
-4.85507e-06,6.23883e-05,-1.48877e-05,7.07419e-05,6.92609e-06,-1.68837e-05,-0.000163164,1.06403e-05,0
8.72895e-06,1.26163e-05,-2.19298e-05,7.41678e-05,6.91774e-07,-1.61285e-05,-8.69561e-05,7.70939e-06,0
1.38915e-05,-3.51265e-05,-3.092e-05,6.96474e-05,9.60472e-07,-1.26899e-05,3.80217e-05,5.40354e-06,0
9.59343e-06,-5.12836e-05,-3.12736e-05,5.89677e-05,6.98788e-06,-8.56122e-06,0.000139392,4.22116e-06,0
-2.38356e-07,-2.20668e-05,-1.7402e-05,5.38284e-05,1.5384e-05,-5.60698e-06,0.000190919,3.47644e-06,0
-1.2518e-05,3.28414e-05,2.23469e-06,4.6379e-05,2.06309e-05,-1.99867e-06,0.000186298,2.93578e-06,0
-2.65117e-05,6.61628e-05,1.95914e-05,2.11226e-05,1.93269e-05,1.55709e-06,0.000136304,2.79496e-06,0
-3.82716e-05,6.19942e-05,3.03382e-05,-1.36434e-05,1.26383e-05,1.12133e-06,7.31882e-05,3.71161e-06,0
-4.47952e-05,6.20328e-05,3.01419e-05,-3.46784e-05,8.53013e-06,-4.29025e-06,2.87718e-05,5.56813e-06,0
-4.74488e-05,7.57787e-05,2.52746e-05,-3.71247e-05,1.09733e-05,-8.51342e-06,1.01309e-05,5.28e-06,0
-3.78562e-05,5.95424e-05,2.51304e-05,-5.20455e-05,1.24622e-05,-8.44618e-06,5.69114e-06,2.92117e-06,0
-2.03057e-05,1.87688e-05,2.73665e-05,-9.45433e-05,8.91805e-06,-7.30803e-06,3.69512e-08,1.27322e-06,0
-6.22485e-06,-6.94397e-06,2.44596e-05,-0.000131313,6.28194e-06,-5.11737e-06,-3.04234e-05,7.4985e-07,0
8.01709e-06,-4.28164e-06,1.36738e-05,-0.000131802,8.51425e-06,-1.00714e-06,-7.99771e-05,6.83326e-07,0
1.17359e-05,3.735e-05,1.41395e-06,-0.000104217,1.21163e-05,8.93163e-07,-0.000117263,5.50067e-07,0
-3.84037e-06,0.000118981,-5.80691e-06,-6.26191e-05,1.60499e-05,-2.5253e-07,-0.000121189,9.97713e-07,0
-3.3904e-05,0.000206527,-1.24398e-05,1.04444e-05,1.79028e-05,-2.27715e-06,-9.7969e-05,2.75063e-07,0
-6.85503e-05,0.000244821,-2.62595e-05,0.000106378,1.61665e-05,-7.68468e-06,-6.51676e-05,-9.33973e-07,0
-9.80053e-05,0.000214536,-4.24158e-05,0.000167832,1.21549e-05,-1.51657e-05,-3.47941e-05,-1.40008e-07,0
-0.000115188,0.000127999,-4.84124e-05,0.000176067,9.96488e-06,-1.92844e-05,-1.55849e-05,1.7151e-06,0
-0.000118084,-1.40381e-06,-3.99069e-05,0.000150266,1.47333e-05,-1.76475e-05,-1.13798e-05,2.67971e-06,0
-0.000111134,-0.000144216,-2.22199e-05,0.000115071,2.40323e-05,-1.30908e-05,-1.57466e-05,1.8584e-06,0
-0.000102578,-0.000254757,-8.42304e-06,7.88079e-05,2.99246e-05,-1.03228e-05,-1.53315e-05,1.47555e-06,0
-9.85323e-05,-0.000320448,-5.99324e-06,3.61577e-05,2.75896e-05,-1.22774e-05,-6.28814e-06,2.49521e-06,0
-9.51611e-05,-0.000336577,-9.01453e-06,-1.70643e-05,2.21257e-05,-1.68598e-05,9.76157e-06,3.83105e-06,0
-8.30766e-05,-0.000275467,-9.65013e-06,-7.60272e-05,1.90121e-05,-1.9481e-05,2.72115e-05,2.5462e-06,0
-5.97137e-05,-0.000153056,-7.17177e-06,-0.000126705,1.78256e-05,-1.91413e-05,4.29592e-05,-6.72922e-07,0
-3.71734e-05,-4.76194e-05,-4.27839e-06,-0.000159271,1.61325e-05,-1.80314e-05,5.4049e-05,-2.48988e-06,0
-2.65113e-05,-6.46939e-06,-3.47971e-06,-0.000168885,1.37638e-05,-1.69498e-05,6.13124e-05,-1.73609e-06,0
-2.94068e-05,-9.47045e-06,-6.33846e-06,-0.000147251,1.2036e-05,-1.5804e-05,6.40278e-05,-8.42038e-07,0
-3.8162e-05,-2.10872e-05,-1.1816e-05,-9.61876e-05,1.22329e-05,-1.32061e-05,6.24004e-05,-1.41521e-06,0
-3.68026e-05,-2.21567e-05,-1.6782e-05,-4.19783e-05,1.27662e-05,-9.46853e-06,5.67837e-05,-1.72309e-06,0
-1.25311e-05,-7.3174e-06,-2.08614e-05,-2.82712e-06,1.14472e-05,-6.50165e-06,4.96508e-05,-5.02813e-08,0
2.46408e-05,2.72711e-05,-2.40662e-05,2.21947e-05,1.03428e-05,-3.45325e-06,4.21173e-05,9.45742e-07,0
5.65262e-05,7.60815e-05,-2.18166e-05,3.93235e-05,1.56449e-05,-9.97586e-08,3.49862e-05,-6.1644e-07,0
6.59232e-05,0.000109143,-1.11107e-05,3.6803e-05,2.54675e-05,2.78507e-06,2.87204e-05,-1.54132e-06,0
4.9699e-05,0.000108389,-7.97847e-07,6.52978e-06,3.03495e-05,1.22456e-06,1.80948e-05,-1.46741e-06,0
1.97127e-05,8.12983e-05,5.93647e-06,-3.40548e-05,2.63449e-05,-3.54158e-06,4.98155e-06,-1.29569e-06,0
-1.66591e-05,4.76413e-05,1.29706e-05,-6.42695e-05,1.64312e-05,-7.45007e-06,-6.41086e-06,4.20062e-08,0
-4.27222e-05,3.05153e-05,1.7891e-05,-8.1427e-05,4.52399e-06,-1.07042e-05,-1.21954e-05,5.24032e-07,0
-5.02948e-05,3.39338e-05,2.26002e-05,-8.36648e-05,-4.59193e-06,-1.29764e-05,-1.10861e-05,-1.07399e-07,0
-4.82462e-05,5.56977e-05,2.78313e-05,-6.58978e-05,-4.32061e-06,-1.41604e-05,-2.2184e-05,7.05548e-07,0
-5.11863e-05,7.02097e-05,2.81121e-05,-3.72443e-05,8.29205e-08,-1.46311e-05,-8.88813e-05,2.55308e-06,0
-6.12403e-05,5.40158e-05,2.03303e-05,-8.37468e-07,1.14909e-06,-1.58797e-05,-0.000177109,3.98204e-06,0
-6.71415e-05,1.21348e-05,8.763e-06,4.06622e-05,-6.78749e-07,-1.73621e-05,-0.000192926,4.32162e-06,0
-6.04264e-05,-2.87405e-05,-1.81796e-06,7.97159e-05,-8.04429e-07,-1.73678e-05,-0.000115454,4.89852e-06,0
-4.66866e-05,-4.12984e-05,-6.7179e-06,0.000106677,3.63109e-06,-1.58916e-05,6.58778e-06,4.80234e-06,0
-3.86672e-05,-1.69821e-05,-1.90562e-06,0.000112016,1.19993e-05,-1.21942e-05,0.00011422,3.45583e-06,0
-4.0946e-05,2.76361e-05,1.0828e-05,8.60156e-05,1.95297e-05,-7.18466e-06,0.000180583,2.13643e-06,0
-4.86706e-05,6.28466e-05,2.27241e-05,3.27041e-05,2.01675e-05,-3.75307e-06,0.000199042,1.6917e-06,0
-5.21234e-05,7.66855e-05,2.68594e-05,-1.35449e-05,1.61927e-05,-1.92474e-06,0.000176929,5.59318e-07,0
-4.57064e-05,7.47409e-05,2.45633e-05,-1.71541e-05,1.52993e-05,1.12905e-07,0.000134138,-7.37596e-07,0
-2.84399e-05,6.6163e-05,1.9625e-05,1.21146e-05,1.8621e-05,2.70614e-06,9.42805e-05,-1.12889e-06,0
-7.35396e-06,5.14874e-05,1.59788e-05,2.24788e-05,2.08437e-05,4.12605e-06,7.02468e-05,-2.35989e-06,0
5.1292e-06,3.62207e-05,1.44209e-05,-5.18479e-06,2.08737e-05,2.87676e-06,5.99379e-05,-3.69888e-06,0
-8.22015e-07,3.06085e-05,5.26201e-06,-3.33463e-05,2.0037e-05,3.16631e-07,6.68767e-05,-4.01658e-06,0
-1.64801e-05,3.63659e-05,-1.46298e-05,-3.6075e-05,1.68965e-05,-2.97378e-06,0.000107012,-2.8477e-06,0
-2.40787e-05,3.91036e-05,-2.22539e-05,-3.06628e-05,1.04403e-05,-7.45504e-06,0.000176889,-1.15568e-06,0
-1.75193e-05,3.89935e-05,6.38609e-07,-2.90073e-05,7.0269e-06,-9.80409e-06,0.000226991,1.74326e-07,0
-5.66844e-06,6.34911e-05,3.23593e-05,-1.77705e-05,8.6664e-06,-8.9907e-06,0.00021739,8.00003e-07,0
-6.48807e-07,0.000122691,3.87654e-05,1.06354e-05,9.67631e-06,-7.92732e-06,0.000153462,-9.0521e-07,0
-8.49597e-06,0.000185258,9.02673e-06,5.16429e-05,1.00305e-05,-8.40189e-06,5.34502e-05,-1.676e-06,0
-1.73983e-05,0.00019343,-3.84492e-05,8.64453e-05,1.48747e-05,-9.74209e-06,-5.90718e-05,-9.76261e-07,0
-8.59582e-06,0.000130082,-7.67883e-05,9.45686e-05,2.29289e-05,-1.01094e-05,-0.00015516,-1.43406e-06,0
1.25375e-05,3.30553e-05,-9.66587e-05,7.90756e-05,2.8015e-05,-7.2354e-06,-0.000208681,-1.53207e-06,0
2.21055e-05,-5.50467e-05,-9.76059e-05,5.44081e-05,2.83156e-05,-2.31915e-06,-0.000203156,-6.81649e-07,0
1.48675e-05,-9.82408e-05,-8.78748e-05,2.41311e-05,2.31084e-05,1.0161e-06,-0.000169111,1.21981e-06,0
9.95414e-06,-0.000103187,-7.5545e-05,-3.14086e-05,1.36007e-05,4.69534e-07,-0.000157309,3.11853e-06,0
7.34264e-06,-0.000103584,-6.48549e-05,-0.000109006,5.80137e-06,-4.811e-06,-0.000177322,4.2562e-06,0
-4.58467e-06,-0.00012408,-5.49682e-05,-0.000165116,3.03573e-06,-1.0708e-05,-0.000179426,4.15355e-06,0
-2.04108e-05,-0.000134607,-4.47709e-05,-0.000159053,2.80421e-06,-1.4304e-05,-0.000133699,2.72917e-06,0
-3.0381e-05,-9.67763e-05,-3.59834e-05,-9.66874e-05,2.56818e-06,-1.44272e-05,-5.49785e-05,1.11251e-06,0
-3.31754e-05,-4.22177e-05,-2.84818e-05,-2.744e-05,3.66362e-06,-1.26464e-05,2.4216e-05,8.28385e-07,0
-3.21363e-05,-1.75861e-05,-2.27324e-05,8.72753e-06,6.18618e-06,-1.17765e-05,8.15564e-05,1.79078e-06,0
-3.30501e-05,-2.37126e-05,-1.71669e-05,1.66725e-05,9.18235e-06,-1.13686e-05,0.000113501,2.93602e-06,0
-4.04845e-05,-2.09589e-05,-1.12917e-05,2.94459e-05,1.2679e-05,-9.69576e-06,0.000118436,3.25678e-06,0
-5.18343e-05,3.81445e-06,-5.97707e-06,5.85663e-05,1.5221e-05,-7.28115e-06,0.000105999,2.75172e-06,0
-5.83658e-05,2.70905e-05,-4.23889e-06,7.956e-05,1.59246e-05,-6.78074e-06,8.74049e-05,2.73727e-06,0
-5.22025e-05,2.837e-05,-2.28971e-06,6.59544e-05,1.51981e-05,-7.58439e-06,7.2801e-05,2.70183e-06,0
-3.46888e-05,2.16125e-05,4.83895e-06,2.33879e-05,1.19709e-05,-8.1999e-06,6.24994e-05,1.66274e-06,0
-1.71917e-05,2.19141e-05,1.44686e-05,-2.85136e-05,4.16276e-06,-9.84315e-06,5.66662e-05,1.63922e-06,0
-1.20841e-05,2.55113e-05,1.71838e-05,-7.31426e-05,-4.76809e-06,-1.364e-05,4.92557e-05,3.25344e-06,0
-2.00883e-05,2.39112e-05,1.11113e-05,-9.88482e-05,-8.25045e-06,-1.64631e-05,3.84095e-05,3.3176e-06,0
-2.64562e-05,1.88194e-05,3.53779e-06,-9.80391e-05,-2.70816e-06,-1.68085e-05,2.96409e-05,1.88074e-06,0
-2.15217e-05,1.69918e-05,5.96557e-08,-8.55242e-05,6.23485e-06,-1.61248e-05,3.04305e-05,1.43578e-06,0
-1.25911e-05,1.61115e-05,-1.83812e-06,-0.000102208,8.06553e-06,-1.64375e-05,3.84474e-05,2.19062e-06,0
-1.11006e-05,1.52242e-05,-5.01955e-06,-0.000176369,1.80635e-06,-1.79977e-05,4.51789e-05,1.92104e-06,0
-2.04316e-05,2.13824e-05,-6.24402e-06,-0.000267744,-2.01857e-06,-1.80866e-05,4.70992e-05,4.47924e-07,0
-3.22383e-05,3.32734e-05,-7.0073e-06,-0.000312109,1.84037e-06,-1.66267e-05,4.66455e-05,6.51831e-07,0
-3.79846e-05,3.84682e-05,-1.15927e-05,-0.00029791,7.01366e-06,-1.53861e-05,4.03474e-05,2.57062e-06,0
-3.79426e-05,3.44933e-05,-1.35753e-05,-0.000237412,9.19664e-06,-1.47192e-05,2.71369e-05,3.89232e-06,0
-3.49824e-05,2.92274e-05,-4.77832e-06,-0.000125416,9.67122e-06,-1.43172e-05,1.40264e-05,4.41834e-06,0
-3.10779e-05,2.8476e-05,7.79234e-06,1.56129e-05,1.24274e-05,-1.30976e-05,4.40777e-06,4.56593e-06,0
-2.79574e-05,2.8594e-05,1.66219e-05,0.000134047,1.87548e-05,-1.0313e-05,6.54316e-08,3.95037e-06,0
-2.47402e-05,2.67766e-05,2.09646e-05,0.000215709,2.60404e-05,-7.65125e-06,-2.24545e-06,2.89299e-06,0
-2.25198e-05,2.99533e-05,2.52088e-05,0.000248355,3.35974e-05,-6.31236e-06,-3.79481e-06,2.37487e-06,0
-2.25752e-05,4.20981e-05,2.85103e-05,0.000233224,3.71576e-05,-7.09566e-06,-6.46904e-06,3.13952e-06,0
-2.53079e-05,5.96387e-05,2.75587e-05,0.000182301,3.30949e-05,-1.01732e-05,-1.08071e-05,3.9278e-06,0
-3.08555e-05,7.82689e-05,3.02123e-05,0.000106858,2.82633e-05,-1.45714e-05,-1.58943e-05,3.22392e-06,0
-3.55917e-05,9.13587e-05,4.04026e-05,3.09691e-05,2.62569e-05,-1.75093e-05,-2.0091e-05,2.18041e-06,0
-3.58787e-05,9.43207e-05,4.74969e-05,-1.88154e-05,2.31686e-05,-1.65527e-05,-2.23392e-05,1.84683e-06,0
-3.39798e-05,7.42708e-05,3.50675e-05,-3.1551e-05,2.03246e-05,-1.29131e-05,-2.7577e-05,1.91769e-06,0
-3.42081e-05,2.41493e-05,-3.71002e-06,-1.96076e-05,2.14359e-05,-9.12008e-06,-4.61459e-05,2.20838e-06,0
-3.28002e-05,-3.23097e-05,-5.35549e-05,1.75376e-06,2.52443e-05,-8.18762e-06,-7.24143e-05,2.08341e-06,0
-2.37847e-05,-5.92931e-05,-8.54618e-05,2.50412e-05,2.68616e-05,-1.03753e-05,-8.55709e-05,6.7008e-07,0
-1.16342e-05,-5.47059e-05,-8.54117e-05,5.96543e-05,2.3276e-05,-1.38175e-05,-7.45263e-05,-7.73306e-07,0
-5.1975e-06,-3.99191e-05,-6.83031e-05,9.8193e-05,1.61501e-05,-1.68128e-05,-4.90906e-05,-6.20298e-07,0
-3.93094e-06,-2.84409e-05,-5.15833e-05,0.000110458,9.69504e-06,-1.87834e-05,-2.12623e-05,3.39439e-07,0
-5.51365e-06,-1.54514e-05,-3.70836e-05,8.92711e-05,6.99953e-06,-1.95221e-05,4.63081e-06,9.95705e-07,0
-1.34462e-05,1.36814e-05,-2.3245e-05,5.72627e-05,6.0375e-06,-1.90688e-05,2.61117e-05,1.07402e-06,0
-2.80669e-05,5.09215e-05,-1.02929e-05,3.19467e-05,4.86673e-06,-1.81923e-05,4.07569e-05,3.10017e-07,0
-4.07961e-05,6.99309e-05,5.80597e-06,5.15157e-05,5.28595e-06,-1.60216e-05,5.43782e-05,-1.2797e-06,0
-4.49219e-05,6.30507e-05,2.7203e-05,0.000121891,6.98947e-06,-1.1195e-05,7.74984e-05,-3.26204e-06,0
-4.8131e-05,3.25429e-05,4.58239e-05,0.000166812,7.81185e-06,-6.56285e-06,9.97711e-05,-4.21147e-06,0
-6.08519e-05,-1.6607e-05,5.25615e-05,0.000131569,7.05942e-06,-7.11673e-06,0.000104475,-4.18351e-06,0
-7.56716e-05,-6.56972e-05,4.53897e-05,1.53537e-05,4.2778e-06,-1.13183e-05,8.86652e-05,-3.52332e-06,0
-7.92589e-05,-8.9591e-05,2.836e-05,-0.000115126,1.94708e-06,-1.28903e-05,5.24035e-05,-1.908e-06,0
-7.83901e-05,-6.4071e-05,8.96891e-06,-0.000177757,2.2136e-06,-9.19629e-06,7.89327e-06,-1.17421e-06,0
-7.77737e-05,-8.56953e-06,-4.22344e-06,-0.000167228,4.49194e-06,-5.1035e-06,-2.23557e-05,-7.26229e-07,0
-7.04869e-05,3.36096e-05,-1.10908e-05,-0.000112426,1.04627e-05,-3.0754e-06,-3.29404e-05,-8.65511e-07,0
-5.80867e-05,5.04159e-05,-2.22404e-05,-5.09377e-05,2.08474e-05,-1.43012e-07,-3.24868e-05,-1.32118e-06,0
-4.43042e-05,6.68538e-05,-4.42549e-05,-1.70746e-06,2.97424e-05,2.18894e-06,-2.40637e-05,2.1125e-07,0
-3.20959e-05,9.77686e-05,-6.23542e-05,3.90123e-05,3.05522e-05,2.77759e-06,-8.57293e-06,1.99823e-07,0
-2.11625e-05,0.00011727,-6.68499e-05,7.03778e-05,2.49033e-05,2.10482e-06,7.46466e-06,-2.48852e-06,0
-1.10465e-05,0.000101584,-7.13174e-05,7.38179e-05,1.587e-05,-8.52358e-07,1.60675e-05,-5.84006e-06,0
-5.25947e-06,6.36853e-05,-7.90501e-05,5.29373e-05,5.84767e-06,-5.78562e-06,1.58519e-05,-7.21113e-06,0
-7.5766e-06,2.88567e-05,-7.51577e-05,2.74904e-05,5.64468e-08,-9.53077e-06,1.43682e-05,-4.85827e-06,0
-1.35528e-05,-3.14671e-06,-5.09762e-05,7.27946e-06,1.13584e-06,-9.99018e-06,1.84619e-05,-1.04355e-06,0
-1.49961e-05,-4.2965e-05,-1.90104e-05,-9.27287e-06,6.58964e-06,-9.16936e-06,2.40025e-05,1.18767e-06,0
-1.29077e-05,-8.37988e-05,4.81682e-06,-2.49514e-05,1.3261e-05,-8.42139e-06,2.60007e-05,1.29987e-06,0
-1.86786e-05,-0.000108755,1.46806e-05,-3.24625e-05,1.86118e-05,-9.69282e-06,2.6631e-05,2.23273e-06,0
-3.74153e-05,-0.000115657,1.49885e-05,-4.14653e-05,1.91729e-05,-1.2989e-05,2.20613e-05,4.0165e-06,0
-5.89145e-05,-0.000111518,1.27996e-05,-5.55183e-05,1.47987e-05,-1.3918e-05,3.57833e-06,5.32206e-06,0
-7.19162e-05,-0.000100735,1.15768e-05,-6.17628e-05,1.07317e-05,-1.07527e-05,-2.45399e-05,5.38805e-06,0
-7.22194e-05,-8.40106e-05,1.20279e-05,-4.8071e-05,1.2065e-05,-7.70433e-06,-4.32318e-05,4.25104e-06,0
-6.44293e-05,-6.53658e-05,1.27067e-05,-2.66747e-05,1.79447e-05,-7.24881e-06,-4.05387e-05,3.22994e-06,0
-5.53147e-05,-4.89729e-05,1.33413e-05,-8.11594e-06,2.21805e-05,-7.60989e-06,-1.9128e-05,3.78017e-06,0
-5.15262e-05,-3.03313e-05,1.35792e-05,3.05397e-06,2.01791e-05,-8.00975e-06,7.66819e-06,4.79035e-06,0
-6.08719e-05,-4.49241e-06,1.12806e-05,5.43926e-06,1.42906e-05,-8.83376e-06,3.09125e-05,4.57298e-06,0
-8.3163e-05,2.91825e-05,4.11098e-06,-3.95545e-07,9.19854e-06,-9.18053e-06,4.92224e-05,4.38524e-06,0
-9.81032e-05,7.19545e-05,-5.19868e-06,-5.6568e-06,8.55999e-06,-8.30021e-06,6.0323e-05,4.85022e-06,0
-9.15942e-05,0.000129865,-1.07417e-05,-1.86448e-05,1.18384e-05,-7.56919e-06,6.36535e-05,5.48009e-06,0
-7.01812e-05,0.000197599,-9.40643e-06,-5.12333e-05,1.62767e-05,-6.4447e-06,6.04398e-05,5.85776e-06,0
-5.0685e-05,0.000241323,-5.85661e-06,-7.45053e-05,2.06167e-05,-6.15691e-06,5.30219e-05,6.28551e-06,0
-3.09484e-05,0.000226793,-7.67781e-06,-6.60636e-05,2.23047e-05,-8.31515e-06,4.18533e-05,6.0524e-06,0
1.11283e-06,0.000133984,-1.7796e-05,-3.05285e-05,2.09192e-05,-8.16626e-06,3.15004e-05,5.16503e-06,0
2.95018e-05,-2.46687e-05,-2.6379e-05,1.91748e-05,2.13718e-05,-5.02631e-06,2.73934e-05,4.90251e-06,0
3.8846e-05,-0.000163285,-2.46733e-05,6.63909e-05,2.29276e-05,-1.15094e-06,2.68254e-05,5.42511e-06,0
3.78507e-05,-0.000201711,-1.64194e-05,9.67645e-05,1.98964e-05,1.06682e-06,2.68919e-05,5.66865e-06,0
4.05945e-05,-0.000140194,-6.84631e-06,9.30345e-05,1.39869e-05,4.38299e-07,2.49969e-05,5.07292e-06,0
3.92934e-05,-4.4906e-05,-4.18091e-06,5.49523e-05,9.25824e-06,-9.51948e-07,2.07965e-05,5.06061e-06,0
2.50496e-05,1.55517e-05,-8.81885e-06,6.5067e-06,9.31998e-06,-2.96872e-06,1.57495e-05,5.77201e-06,0
2.50135e-06,2.82846e-05,-1.29466e-05,-2.29911e-05,1.34546e-05,-3.93453e-06,1.14405e-05,5.96705e-06,0
-2.07852e-05,2.24493e-05,-1.45835e-05,-2.25896e-05,1.62199e-05,-4.29307e-06,7.93441e-06,5.12186e-06,0
-4.07327e-05,1.90858e-05,-1.54298e-05,-1.39263e-05,1.33249e-05,-5.19927e-06,3.57939e-06,4.14551e-06,0
-5.57652e-05,1.09854e-05,-1.2925e-05,-1.70013e-05,6.02711e-06,-6.41247e-06,-1.15621e-05,3.13596e-06,0
-6.81777e-05,-9.55041e-06,-5.87371e-06,-2.83572e-05,6.15324e-07,-7.05806e-06,-4.66551e-05,2.35306e-06,0
-8.24103e-05,-3.20768e-05,4.24391e-07,-3.0801e-05,1.2737e-06,-7.63018e-06,-8.43412e-05,2.41096e-06,0
-9.69858e-05,-3.01688e-05,2.21476e-06,-2.44133e-05,5.7206e-06,-7.97966e-06,-9.49802e-05,1.89624e-06,0
-0.000107505,6.15299e-06,1.63272e-06,-1.789e-05,8.73479e-06,-7.85825e-06,-6.94199e-05,-1.89229e-07,0
-0.000108795,5.05591e-05,2.94972e-06,-1.38652e-05,9.91484e-06,-7.63106e-06,-2.57511e-05,-2.40465e-06,0
-9.85905e-05,7.07302e-05,7.62038e-06,-3.62916e-06,1.17441e-05,-7.40155e-06,1.42729e-05,-2.12357e-06,0
-7.72948e-05,6.85425e-05,1.54879e-05,1.36411e-05,1.43164e-05,-7.30969e-06,3.94374e-05,-1.79784e-07,0
-5.29618e-05,5.63274e-05,2.46186e-05,2.63521e-05,1.62004e-05,-7.07806e-06,5.38659e-05,1.39479e-06,0
-3.34182e-05,2.61478e-05,3.03446e-05,2.8489e-05,1.63393e-05,-6.63077e-06,6.78303e-05,1.27472e-06,0
-2.2971e-05,-3.28904e-05,2.74802e-05,2.37183e-05,1.43573e-05,-4.49625e-06,8.07794e-05,-7.37678e-07,0
-2.16576e-05,-0.000109148,1.85293e-05,1.31265e-05,1.28654e-05,-2.68526e-06,8.739e-05,-2.79265e-06,0
-2.22574e-05,-0.000151538,9.31284e-06,9.80757e-08,1.09951e-05,-3.1646e-06,9.36128e-05,-3.66794e-06,0
-1.80666e-05,-0.000111988,6.61005e-06,-1.06471e-05,6.97011e-06,-5.59077e-06,0.00010963,-3.56479e-06,0
-1.01001e-05,-1.69812e-05,1.10866e-05,-1.61866e-05,3.46847e-06,-6.37925e-06,0.000125734,-4.44877e-06,0
-3.53216e-06,4.75759e-05,1.04083e-05,-1.87088e-05,3.35982e-06,-4.75916e-06,0.000126161,-5.68991e-06,0
-3.84759e-09,6.40495e-05,4.15775e-06,-2.42408e-05,6.59443e-06,-1.87876e-06,0.000115662,-4.54881e-06,0
9.04383e-07,7.50775e-05,-2.87383e-07,-3.08788e-05,8.43796e-06,6.01088e-07,8.88588e-05,-2.07661e-06,0
-1.74024e-07,9.22199e-05,-4.43166e-06,-3.20396e-05,8.27617e-06,-1.16352e-07,3.88228e-05,-8.87431e-07,0
-2.91806e-06,0.000112733,-1.15859e-05,-1.60294e-05,8.45669e-06,-1.84726e-06,-1.93262e-05,-2.00736e-06,0
-8.30539e-06,0.000115496,-2.247e-05,8.62074e-06,8.36782e-06,-4.64494e-06,-6.30863e-05,-3.90064e-06,0
-1.66761e-05,7.76548e-05,-3.16861e-05,2.1514e-05,7.5782e-06,-8.72225e-06,-8.22788e-05,-5.40289e-06,0
-2.68368e-05,-5.50394e-06,-3.60678e-05,2.58466e-05,8.33776e-06,-1.2455e-05,-8.67258e-05,-7.06821e-06,0
-3.29445e-05,-8.70281e-05,-3.82332e-05,3.67523e-05,1.18193e-05,-1.46742e-05,-8.63102e-05,-8.50038e-06,0
-3.10553e-05,-0.000124399,-4.15522e-05,5.19038e-05,1.56401e-05,-1.4295e-05,-8.65046e-05,-8.45774e-06,0
-2.63602e-05,-0.00012658,-4.48765e-05,5.44131e-05,1.76467e-05,-1.34232e-05,-8.77284e-05,-7.95621e-06,0
-2.52374e-05,-0.000104532,-4.21273e-05,3.51691e-05,1.61209e-05,-1.37968e-05,-8.82975e-05,-7.8302e-06,0
-2.78558e-05,-5.76253e-05,-3.1289e-05,1.81865e-06,1.30931e-05,-1.43585e-05,-8.0865e-05,-8.20007e-06,0
-2.97529e-05,5.6023e-06,-1.75353e-05,-3.9785e-05,1.44951e-05,-1.40138e-05,-6.10175e-05,-8.10778e-06,0
-2.86127e-05,6.08169e-05,-8.15824e-06,-8.74577e-05,2.05397e-05,-1.29331e-05,-3.77495e-05,-5.59428e-06,0
-2.54742e-05,9.94817e-05,-4.8937e-06,-0.00013372,2.39191e-05,-1.19832e-05,-2.57087e-05,-2.78378e-06,0
-2.2567e-05,0.000125084,-5.04777e-06,-0.00016037,2.1009e-05,-1.21194e-05,-3.49272e-05,-1.77582e-06,0
-2.03638e-05,0.000149238,-5.69882e-06,-0.000151133,1.61223e-05,-1.14826e-05,-6.81425e-05,-2.17764e-06,0
-1.66328e-05,0.000168197,-5.73243e-06,-0.000111215,1.4627e-05,-8.75586e-06,-0.000105333,-3.0168e-06,0
