ch1,ch2,ch3,ch4,ch5,ch6,ch7,ch8,class
-4.11623e-05,-3.22765e-06,3.64242e-06,-1.14439e-05,-1.38628e-05,-2.19312e-05,2.36652e-05,8.54883e-06,0
-4.52833e-05,-6.37948e-06,5.73361e-07,-9.82411e-06,-7.67643e-06,-2.66691e-05,1.5785e-05,8.93935e-06,0
-4.35174e-05,-9.3438e-06,-4.02498e-06,-8.83567e-06,-1.07461e-06,-3.10464e-05,7.5477e-06,8.77837e-06,0
-3.54202e-05,-1.02701e-05,-6.93407e-06,-1.02303e-05,4.46777e-06,-3.37068e-05,-4.64982e-06,8.13826e-06,0
-1.98996e-05,-9.12143e-06,-9.06801e-06,-1.24937e-05,4.14871e-06,-3.54476e-05,-1.77376e-05,7.69405e-06,0
-3.45455e-06,-8.42628e-06,-1.1024e-05,-1.50218e-05,-2.30191e-06,-3.6114e-05,-2.38331e-05,7.73116e-06,0
3.11762e-06,-1.02409e-05,-1.21427e-05,-1.79367e-05,-8.47729e-06,-3.44382e-05,-2.05998e-05,8.04629e-06,0
-5.21717e-06,-1.20508e-05,-1.1203e-05,-2.12414e-05,-9.51547e-06,-3.1506e-05,-1.22944e-05,7.48137e-06,0
-2.13364e-05,-1.16428e-05,-9.35482e-06,-2.35191e-05,-5.38157e-06,-2.92611e-05,-3.33126e-06,5.88865e-06,0
-3.13202e-05,-1.01374e-05,-7.46091e-06,-2.33955e-05,1.22684e-06,-2.63247e-05,4.29476e-06,5.13955e-06,0
-2.94555e-05,-9.10186e-06,-6.27966e-06,-2.21805e-05,6.40137e-06,-2.15318e-05,1.03923e-05,5.16346e-06,0
-2.28395e-05,-7.58701e-06,-5.20889e-06,-2.14189e-05,6.88231e-06,-1.6976e-05,1.35545e-05,4.79396e-06,0
-2.15963e-05,-4.34611e-06,-3.3539e-06,-2.12852e-05,4.36599e-06,-1.36377e-05,1.38504e-05,3.49031e-06,0
-2.73049e-05,-5.26825e-07,-6.71709e-07,-2.14609e-05,3.64664e-06,-1.11819e-05,1.13873e-05,2.39155e-06,0
-3.34355e-05,2.53451e-06,8.71344e-07,-2.17575e-05,6.99847e-06,-8.88578e-06,7.1548e-06,1.8495e-06,0
-3.55264e-05,5.5318e-06,-5.3191e-08,-1.92735e-05,1.09062e-05,-8.58743e-06,2.21464e-06,1.95021e-06,0
-3.52985e-05,8.1122e-06,-1.44797e-06,-1.35199e-05,1.32526e-05,-8.99259e-06,-1.46116e-06,2.63624e-06,0
-3.48969e-05,7.74707e-06,-1.69337e-06,-8.06597e-06,1.57983e-05,-3.35187e-06,-2.14013e-06,4.48387e-06,0
-3.62961e-05,6.67163e-06,-2.4389e-06,-6.81037e-06,2.019e-05,6.16967e-06,-5.18207e-07,6.87851e-06,0
-3.87937e-05,7.87348e-06,-4.36908e-06,-9.55563e-06,2.51891e-05,7.81301e-06,6.96213e-07,6.39554e-06,0
-4.05231e-05,1.07958e-05,-5.818e-06,-1.00244e-05,2.78012e-05,1.30319e-06,-1.43989e-07,3.38048e-06,0
-4.35209e-05,1.26425e-05,-4.8857e-06,-7.42372e-06,2.79135e-05,-5.63886e-06,-6.35118e-07,2.43268e-06,0
-4.74874e-05,1.28263e-05,-1.51395e-06,-6.09092e-06,2.82321e-05,-9.81721e-06,5.52268e-07,2.99999e-06,0
-4.8383e-05,1.26002e-05,-1.29544e-06,-4.1636e-06,3.11059e-05,-1.21179e-05,1.9591e-06,1.45595e-06,0
-4.59697e-05,1.16722e-05,-3.35647e-06,1.15648e-06,3.23494e-05,-1.34653e-05,1.66606e-06,-1.42584e-06,0
-4.16478e-05,1.18023e-05,-4.26069e-06,7.60308e-06,2.91363e-05,-1.36151e-05,3.04182e-07,-1.74029e-06,0
-3.65553e-05,1.43112e-05,-5.67982e-06,1.36456e-05,2.67477e-05,-1.45118e-05,4.077e-07,9.70255e-07,0
-3.33371e-05,1.91089e-05,-6.90009e-06,1.96537e-05,2.70037e-05,-1.55285e-05,2.43652e-06,2.49928e-06,0
-3.19372e-05,2.47355e-05,-7.88856e-06,2.28299e-05,2.87288e-05,-1.5982e-05,5.2616e-06,1.56801e-06,0
-3.01087e-05,3.25886e-05,-1.05072e-05,2.23774e-05,3.08745e-05,-1.72798e-05,5.79181e-06,1.75253e-06,0
-2.71441e-05,4.36151e-05,-1.33461e-05,2.00328e-05,3.34309e-05,-1.8496e-05,2.37479e-06,2.56438e-06,0
-2.44358e-05,5.58115e-05,-1.30739e-05,1.60475e-05,3.74939e-05,-1.93597e-05,-2.0219e-06,1.71957e-06,0
-2.18011e-05,6.58278e-05,-9.69808e-06,1.13431e-05,4.28203e-05,-1.93034e-05,-2.50032e-06,-2.97948e-07,0
-2.09512e-05,6.74569e-05,-5.7801e-06,8.44399e-06,4.5063e-05,-1.82892e-05,-3.06402e-07,-7.57224e-07,0
-2.39303e-05,5.62937e-05,-5.26005e-06,8.2202e-06,4.04666e-05,-1.71803e-05,6.50299e-07,-2.96914e-07,0
-2.96831e-05,3.28965e-05,-8.46668e-06,8.96275e-06,3.15537e-05,-1.58933e-05,6.8657e-07,-2.47449e-06,0
-3.46145e-05,3.04693e-06,-1.14725e-05,8.6528e-06,2.3382e-05,-1.42516e-05,2.76563e-06,-4.8148e-06,0
-3.70234e-05,-2.16205e-05,-1.21042e-05,5.32791e-06,1.83323e-05,-1.31638e-05,1.01097e-05,-5.67088e-06,0
-3.79913e-05,-2.09761e-05,-1.16236e-05,7.18078e-07,1.40058e-05,-1.35815e-05,2.23092e-05,-5.47539e-06,0
-3.74284e-05,1.40082e-05,-1.1396e-05,-2.25108e-06,9.24549e-06,-1.3618e-05,3.52392e-05,-5.53141e-06,0
-3.56624e-05,6.51379e-05,-1.11348e-05,-2.5606e-06,6.09508e-06,-1.16852e-05,4.33687e-05,-5.79754e-06,0
-3.4312e-05,0.000105314,-1.12779e-05,-1.02436e-06,5.73583e-06,-9.55347e-06,4.45829e-05,-5.45526e-06,0
-3.40112e-05,0.000126626,-1.26662e-05,-1.93492e-07,6.488e-06,-9.84368e-06,3.64015e-05,-4.68547e-06,0
-3.35831e-05,0.000135204,-1.54047e-05,-3.04759e-06,7.33966e-06,-1.24908e-05,1.71897e-05,-4.82151e-06,0
-3.35338e-05,0.000132187,-1.83912e-05,-7.45727e-06,8.16641e-06,-1.48861e-05,-6.08471e-06,-5.05509e-06,0
-3.32698e-05,0.000111986,-2.02787e-05,-9.46514e-06,8.97652e-06,-1.4167e-05,-2.31399e-05,-3.85785e-06,0
-3.22175e-05,6.57329e-05,-1.83224e-05,-9.37432e-06,7.96753e-06,-1.20723e-05,-3.20277e-05,-2.95896e-06,0
-3.22772e-05,-1.31491e-05,-1.45185e-05,-9.6324e-06,6.00359e-06,-1.17497e-05,-3.1687e-05,-3.39494e-06,0
-3.6945e-05,-0.000100012,-1.36171e-05,-1.05617e-05,6.36555e-06,-1.33845e-05,-1.98428e-05,-3.78117e-06,0
-4.08883e-05,-0.000139973,-1.37418e-05,-9.35756e-06,8.87761e-06,-1.49995e-05,4.96067e-07,-2.52747e-06,0
-3.80807e-05,-0.000110772,-1.12465e-05,-6.32609e-06,1.13594e-05,-1.46637e-05,2.22645e-05,2.92976e-07,0
-3.18376e-05,-5.5771e-05,-9.04474e-06,-2.97109e-06,1.09172e-05,-1.466e-05,4.02426e-05,2.30017e-06,0
-2.13944e-05,-1.86078e-05,-9.76308e-06,-1.98609e-06,7.82219e-06,-1.57252e-05,5.24206e-05,1.19099e-06,0
-5.95851e-06,-1.61888e-07,-1.18172e-05,-3.5187e-06,3.67146e-06,-1.58547e-05,5.74532e-05,7.17529e-07,0
6.51769e-06,1.03853e-05,-1.44572e-05,-2.22404e-06,1.14112e-06,-1.5315e-05,5.60636e-05,2.05334e-06,0
1.21897e-05,1.97619e-05,-1.6151e-05,3.68969e-06,1.9621e-06,-1.31322e-05,4.9371e-05,2.79378e-06,0
1.25448e-05,1.93425e-05,-1.55235e-05,1.15343e-05,4.6242e-06,-9.7959e-06,4.0805e-05,1.313e-06,0
4.22034e-06,5.98589e-06,-1.20644e-05,1.5048e-05,7.74562e-06,-7.01572e-06,3.42818e-05,-1.24904e-06,0
-1.27549e-05,-1.34515e-05,-8.62352e-06,1.07675e-05,8.57711e-06,-6.82667e-06,2.93999e-05,-2.37596e-06,0
-3.63676e-05,-2.97448e-05,-8.88121e-06,3.25565e-06,6.00821e-06,-8.40433e-06,2.51965e-05,-2.86702e-06,0
-6.32957e-05,-3.83825e-05,-1.04164e-05,-1.69342e-06,3.65489e-06,-9.53483e-06,2.09636e-05,-3.1191e-06,0
-8.78225e-05,-3.47867e-05,-1.10494e-05,-4.37428e-06,5.65802e-06,-1.03935e-05,1.60573e-05,-2.17787e-06,0
-0.000106135,-2.00462e-05,-1.09058e-05,-8.5341e-06,1.0861e-05,-1.15831e-05,1.20262e-05,-7.53593e-07,0
-0.0001169,-6.90475e-06,-1.03369e-05,-1.41425e-05,1.56513e-05,-1.29334e-05,9.90796e-06,8.58002e-08,0
-0.000115466,2.35729e-06,-1.10372e-05,-1.91092e-05,1.87774e-05,-1.37547e-05,7.41802e-06,1.22491e-06,0
-9.68594e-05,1.08067e-05,-1.27211e-05,-2.1912e-05,2.05808e-05,-1.45991e-05,7.06418e-07,3.78471e-06,0
-6.7997e-05,2.00772e-05,-1.34607e-05,-2.33281e-05,2.15752e-05,-1.47116e-05,-8.29586e-06,6.86005e-06,0
-4.17885e-05,3.04763e-05,-1.33373e-05,-2.54742e-05,2.25986e-05,-1.31457e-05,-1.5326e-05,7.94254e-06,0
-2.38149e-05,4.24865e-05,-1.40167e-05,-2.80827e-05,2.49677e-05,-9.0015e-06,-1.8554e-05,7.41152e-06,0
-1.50662e-05,4.6863e-05,-1.44655e-05,-2.91215e-05,2.92627e-05,-4.66884e-06,-1.69441e-05,6.56805e-06,0
-1.82542e-05,2.99894e-05,-1.40252e-05,-2.62977e-05,3.40017e-05,-2.36131e-06,-1.15174e-05,4.79115e-06,0
-2.71489e-05,-9.25616e-06,-1.39029e-05,-1.85834e-05,3.51429e-05,-1.81872e-06,-6.19661e-06,2.23207e-06,0
-3.04533e-05,-4.41342e-05,-1.3136e-05,-7.89892e-06,3.25391e-05,-2.07124e-06,-1.33373e-06,1.21234e-06,0
-2.83496e-05,-4.93858e-05,-1.09525e-05,-1.02715e-06,2.78708e-05,-3.52089e-06,3.523e-06,2.7899e-06,0
-2.60683e-05,-2.77238e-05,-9.139e-06,-1.41772e-06,2.11491e-05,-6.00943e-06,7.2836e-06,3.33431e-06,0
-2.00301e-05,-2.59115e-06,-6.62673e-06,-3.38282e-06,1.35433e-05,-6.37438e-06,1.22317e-05,2.62693e-06,0
2.66336e-06,1.15125e-05,-3.82445e-06,-7.61159e-07,7.33959e-06,-6.35283e-06,1.86725e-05,2.31901e-06,0
3.70306e-05,1.70103e-05,-3.45281e-06,4.81044e-06,4.40357e-06,-1.01195e-05,2.40267e-05,1.55058e-06,0
6.17435e-05,1.857e-05,-2.70354e-06,8.68067e-06,5.1405e-06,-1.74627e-05,2.70202e-05,2.25602e-06,0
6.88179e-05,1.9066e-05,3.32357e-08,8.93685e-06,9.88883e-06,-2.31076e-05,2.96275e-05,2.65949e-06,0
4.64079e-05,1.52105e-05,2.60147e-06,6.22518e-06,1.48544e-05,-2.30784e-05,3.2627e-05,1.70286e-06,0
3.11058e-07,1.18481e-05,1.95514e-06,5.10176e-06,1.37445e-05,-1.95936e-05,3.48723e-05,3.91193e-07,0
-4.24868e-05,1.2196e-05,-1.62901e-06,4.43158e-06,7.56772e-06,-1.50818e-05,3.76304e-05,-1.69159e-06,0
-7.1462e-05,1.78447e-05,-4.57928e-06,3.72693e-06,1.7857e-06,-1.13e-05,4.14676e-05,-3.91949e-06,0
-9.13789e-05,2.93657e-05,-6.28923e-06,3.55547e-06,-9.68603e-07,-8.64659e-06,4.50392e-05,-5.84786e-06,0
-0.000102019,4.51364e-05,-4.714e-06,2.5694e-06,-1.5048e-06,-9.66312e-06,4.6549e-05,-7.36821e-06,0
-9.57666e-05,6.27919e-05,2.89096e-06,2.02626e-07,-1.85921e-06,-1.37562e-05,4.57921e-05,-9.50402e-06,0
-7.55406e-05,7.72586e-05,1.59981e-05,-4.75398e-06,-2.19539e-06,-1.60501e-05,4.12163e-05,-1.13898e-05,0
-5.43203e-05,8.38792e-05,3.03864e-05,-1.24765e-05,-2.24822e-06,-1.76538e-05,3.29523e-05,-1.23412e-05,0
-4.60249e-05,8.02638e-05,3.92917e-05,-1.84233e-05,-1.86041e-06,-1.93989e-05,2.29367e-05,-1.20633e-05,0
-4.56081e-05,6.41592e-05,3.65715e-05,-1.73876e-05,-2.64758e-07,-2.00585e-05,1.16902e-05,-1.18514e-05,0
-4.27176e-05,3.66953e-05,2.00701e-05,-1.23103e-05,1.0073e-06,-1.79472e-05,1.85762e-06,-1.2479e-05,0
-4.21081e-05,5.74204e-06,-6.54344e-06,-6.73976e-06,6.65894e-07,-1.1984e-05,-6.10791e-06,-1.27976e-05,0
-5.20586e-05,-2.12562e-05,-3.42982e-05,-2.42603e-06,5.66983e-07,-2.83564e-06,-1.91642e-05,-1.2167e-05,0
-6.52192e-05,-3.91783e-05,-5.35685e-05,-3.98497e-07,2.068e-06,5.91665e-06,-4.2024e-05,-1.05022e-05,0
-6.65011e-05,-4.49286e-05,-6.11596e-05,-1.65861e-06,4.68464e-06,1.01094e-05,-6.11101e-05,-8.20787e-06,0
-4.80953e-05,-3.50673e-05,-5.50232e-05,-2.49894e-06,8.71228e-06,6.7883e-06,-5.97027e-05,-5.81408e-06,0
-9.96164e-06,-1.40768e-05,-3.43581e-05,3.89829e-08,1.41279e-05,-2.05556e-06,-3.82654e-05,-4.46098e-06,0
3.11787e-05,7.36803e-06,-7.32685e-06,2.91366e-06,1.85787e-05,-1.01177e-05,-9.959e-06,-4.4059e-06,0
4.57453e-05,1.83821e-05,1.54762e-05,3.89337e-06,1.94497e-05,-1.2555e-05,1.42058e-05,-4.05738e-06,0
2.93327e-05,9.11836e-06,3.05631e-05,5.5648e-06,1.51664e-05,-9.19487e-06,2.9503e-05,-2.12934e-06,0
6.05343e-06,-1.98929e-05,3.3597e-05,6.95559e-06,7.87938e-06,-5.71988e-06,3.66573e-05,2.88446e-07,0
-1.23194e-05,-5.79041e-05,2.06111e-05,7.41305e-06,4.152e-06,-5.6883e-06,4.26471e-05,1.12391e-06,0
-2.76684e-05,-8.88338e-05,-2.81175e-06,8.35376e-06,6.00627e-06,-5.75184e-06,4.87824e-05,5.0613e-07,0
-3.90004e-05,-8.83708e-05,-2.45807e-05,8.02542e-06,9.17872e-06,-6.29177e-06,5.27973e-05,1.28682e-06,0
-4.42912e-05,-5.57087e-05,-3.93524e-05,6.53651e-06,1.15361e-05,-9.15478e-06,5.9123e-05,1.78361e-06,0
-4.63951e-05,-1.26979e-05,-4.72855e-05,3.39422e-06,1.20518e-05,-1.52879e-05,6.1738e-05,1.82375e-06,0
-4.763e-05,3.15492e-05,-4.50596e-05,8.26816e-07,1.53044e-05,-2.47867e-05,5.10385e-05,3.40998e-06,0
-4.71004e-05,7.12984e-05,-3.56914e-05,-1.47475e-06,2.43241e-05,-2.96429e-05,3.07482e-05,4.17636e-06,0
-4.46997e-05,9.8299e-05,-2.45878e-05,-7.78734e-06,2.96524e-05,-2.96016e-05,1.11296e-05,3.72599e-06,0
-4.78842e-05,0.00010004,-1.53111e-05,-1.49394e-05,2.6618e-05,-2.46046e-05,1.29201e-07,4.31997e-06,0
-5.87604e-05,7.58766e-05,-7.52278e-06,-1.48096e-05,1.95415e-05,-3.31871e-06,-4.85435e-06,6.30897e-06,0
-6.48002e-05,4.39753e-05,-1.21029e-06,-6.89104e-06,1.32608e-05,3.2803e-05,-8.91804e-06,8.08062e-06,0
-5.30471e-05,1.91004e-05,2.81972e-06,-1.26683e-07,8.95822e-06,5.57879e-05,-1.45566e-05,8.49194e-06,0
-2.70725e-05,1.28364e-06,4.13712e-06,7.73065e-07,7.00325e-06,4.85849e-05,-2.06975e-05,7.22456e-06,0
-5.77153e-07,-1.07656e-05,9.71337e-08,-2.68995e-06,8.21246e-06,2.61343e-05,-2.24795e-05,5.97756e-06,0
1.85096e-05,-1.29332e-05,-7.54808e-06,-7.81821e-06,1.09061e-05,9.3278e-06,-1.72026e-05,5.42739e-06,0
2.74685e-05,-3.65928e-06,-1.61953e-05,-1.162e-05,1.36381e-05,3.55293e-06,-1.12219e-05,4.25051e-06,0
2.53369e-05,1.52755e-05,-2.42108e-05,-1.3556e-05,1.44813e-05,2.43216e-06,-1.33523e-05,2.27746e-06,0
1.23917e-05,4.42575e-05,-3.09072e-05,-1.5963e-05,1.22205e-05,5.45657e-07,-2.68515e-05,-1.20568e-07,0
-1.03869e-05,8.02123e-05,-3.48897e-05,-1.99406e-05,8.99199e-06,-4.09525e-06,-4.38954e-05,-2.92778e-06,0
-4.40074e-05,0.000104574,-3.54982e-05,-2.30897e-05,6.47782e-06,-9.7344e-06,-4.98047e-05,-4.90752e-06,0
-7.93286e-05,0.000104702,-3.42104e-05,-2.4541e-05,4.14243e-06,-1.46576e-05,-3.98823e-05,-4.38101e-06,0
-9.38076e-05,8.72527e-05,-3.26181e-05,-2.44437e-05,2.68369e-06,-1.80755e-05,-2.1151e-05,-2.30224e-06,0
-7.67494e-05,5.85505e-05,-3.06655e-05,-2.45855e-05,3.10834e-06,-2.08012e-05,-1.27316e-06,-1.01393e-06,0
-4.82885e-05,2.27365e-05,-2.79218e-05,-2.53593e-05,5.33684e-06,-2.22329e-05,1.61087e-05,-1.59464e-06,0
-3.72711e-05,-1.00416e-05,-2.37892e-05,-2.59134e-05,9.2608e-06,-2.20264e-05,2.6055e-05,-3.00518e-06,0
-4.6934e-05,-3.89394e-05,-1.92927e-05,-2.75955e-05,1.47493e-05,-2.03162e-05,2.60649e-05,-4.55226e-06,0
-5.42496e-05,-6.50238e-05,-1.71161e-05,-2.9471e-05,1.70482e-05,-1.71409e-05,2.05892e-05,-5.32328e-06,0
-4.12624e-05,-7.50934e-05,-1.86018e-05,-2.94528e-05,1.40516e-05,-1.57571e-05,1.42794e-05,-5.70621e-06,0
-1.25568e-05,-5.29063e-05,-1.70788e-05,-2.60269e-05,1.03586e-05,-1.85486e-05,8.39766e-06,-6.68857e-06,0
5.16916e-06,-1.44351e-05,-1.0116e-05,-1.98022e-05,8.65278e-06,-2.06281e-05,4.31828e-06,-5.8196e-06,0
4.34405e-08,1.17966e-05,-4.46828e-06,-1.4976e-05,9.42687e-06,-2.00875e-05,5.1586e-06,-3.32699e-06,0
-3.22991e-05,1.8365e-05,-1.00278e-06,-1.27114e-05,1.39048e-05,-1.99362e-05,1.46789e-05,-2.18732e-06,0
-8.81362e-05,9.80852e-06,1.20483e-06,-1.07513e-05,1.99568e-05,-2.04653e-05,2.85489e-05,-2.47781e-06,0
-0.000117812,-3.61057e-06,3.67876e-06,-7.20573e-06,2.43142e-05,-2.13649e-05,4.09844e-05,-1.6169e-06,0
-9.37993e-05,-1.79883e-05,3.93303e-06,-1.90185e-06,2.66612e-05,-2.14822e-05,5.17149e-05,1.27881e-06,0
-3.62106e-05,-2.7924e-05,2.66527e-06,3.18938e-06,2.64842e-05,-1.91375e-05,5.83524e-05,1.15035e-05,0
1.52116e-05,-2.91047e-05,1.92181e-06,4.28518e-06,2.49019e-05,-1.41483e-05,6.04221e-05,2.7988e-05,0
3.57267e-05,-1.92717e-05,6.93412e-07,2.29747e-06,2.02816e-05,-8.40649e-06,6.0967e-05,3.99397e-05,0
3.44688e-05,1.76052e-06,4.48838e-07,1.59754e-06,1.33055e-05,-3.62051e-06,6.02346e-05,4.33267e-05,0
3.02138e-05,2.98459e-05,1.87749e-06,1.46345e-06,8.74198e-06,4.40072e-08,5.67024e-05,3.63621e-05,0
2.80935e-05,5.45962e-05,4.14126e-06,-3.04885e-06,7.91832e-06,3.85135e-06,5.02788e-05,2.03103e-05,0
1.76211e-05,6.7869e-05,4.60488e-06,-1.1618e-05,8.62024e-06,9.30422e-06,4.11182e-05,-8.27235e-07,0
-7.0843e-06,6.98006e-05,3.11372e-06,-1.81551e-05,7.82285e-06,1.93189e-05,2.90099e-05,-2.12202e-05,0
-2.60318e-05,6.73705e-05,2.58903e-06,-2.17869e-05,6.29561e-06,3.22507e-05,1.70205e-05,-3.51483e-05,0
-7.17445e-06,7.92266e-05,4.83084e-06,-2.7286e-05,9.81204e-06,3.82176e-05,1.05762e-05,-3.93888e-05,0
3.8975e-05,0.000123684,7.06668e-06,-3.54407e-05,2.0749e-05,3.00051e-05,1.17241e-05,-3.54485e-05,0
6.14396e-05,0.000199802,7.20492e-06,-4.14823e-05,3.09258e-05,1.29542e-05,1.72757e-05,-2.80912e-05,0
2.89555e-05,0.000273181,6.65267e-06,-4.63208e-05,3.39423e-05,-6.32134e-07,2.23673e-05,-2.00327e-05,0
-1.945e-05,0.000297014,6.82969e-06,-5.19783e-05,3.39735e-05,-4.25285e-06,2.51295e-05,-1.32329e-05,0
-1.97527e-05,0.000248462,6.77413e-06,-5.19212e-05,3.462e-05,-1.61134e-06,2.58391e-05,-7.07467e-06,0
3.156e-05,0.000147034,5.97256e-06,-3.64424e-05,3.20038e-05,1.04272e-06,2.4787e-05,-1.2819e-07,0
9.39914e-05,3.19773e-05,4.99949e-06,-7.57859e-06,2.38063e-05,1.98077e-06,2.17169e-05,5.45223e-06,0
0.000155765,-6.51732e-05,2.81369e-06,2.26069e-05,1.53838e-05,2.90464e-06,1.82434e-05,7.29071e-06,0
0.000206584,-0.000131638,-1.7776e-06,4.64182e-05,1.26395e-05,1.93626e-06,1.53199e-05,6.56556e-06,0
0.000225815,-0.000181671,-6.82483e-06,6.13347e-05,1.38907e-05,-1.80035e-06,1.19613e-05,6.67118e-06,0
0.000217022,-0.000247811,-9.99547e-06,6.46754e-05,1.33078e-05,-7.41197e-06,1.03175e-05,9.92164e-06,0
0.000180436,-0.000305332,-1.06982e-05,5.68684e-05,9.20105e-06,-1.05855e-05,1.3503e-05,1.42179e-05,0
0.000105193,-0.000325862,-8.69384e-06,4.41089e-05,7.94404e-06,-1.00693e-05,2.15738e-05,1.69564e-05,0
8.13271e-07,-0.000314471,-6.68077e-06,3.24064e-05,8.23309e-06,-1.34081e-05,3.06397e-05,1.6764e-05,0
-0.0001097,-0.000253946,-5.52317e-06,2.52474e-05,6.48857e-06,-2.07517e-05,3.37477e-05,1.24483e-05,0
-0.000214339,-0.0001594,-4.22733e-06,1.93126e-05,5.11253e-06,-2.68709e-05,3.10845e-05,6.9223e-06,0
-0.000295041,-5.26902e-05,-2.85442e-06,8.23231e-06,3.95553e-06,-2.7106e-05,2.76519e-05,4.66165e-06,0
-0.000338726,4.05168e-05,-2.27683e-06,-3.22894e-06,4.12332e-06,-2.34276e-05,2.20323e-05,4.89143e-06,0
-0.000338958,0.000101151,-3.17559e-06,-7.82993e-06,3.69931e-06,-2.11071e-05,1.21327e-05,5.81278e-06,0
-0.000307092,0.000122923,-5.63055e-06,-4.69615e-06,2.2236e-06,-2.10546e-05,-1.68696e-06,5.96498e-06,0
-0.000269942,0.000112965,-8.18757e-06,3.59587e-06,2.51468e-06,-1.97397e-05,-2.07763e-05,5.66341e-06,0
-0.000250796,8.69262e-05,-8.20953e-06,1.49711e-05,7.57068e-06,-1.84189e-05,-4.06867e-05,5.01385e-06,0
-0.00025904,5.31773e-05,-6.34662e-06,2.50318e-05,1.44473e-05,-1.77413e-05,-5.10671e-05,3.84489e-06,0
-0.000266927,2.51e-05,-5.99954e-06,2.53003e-05,1.76713e-05,-1.49107e-05,-4.80076e-05,3.63118e-06,0
-0.000231216,1.69328e-05,-8.82875e-06,1.60345e-05,1.7876e-05,-9.07901e-06,-3.7841e-05,3.73034e-06,0
-0.000138308,2.80516e-05,-1.06891e-05,6.15429e-06,1.89107e-05,-1.65226e-06,-3.06824e-05,3.63331e-06,0
-2.47516e-05,2.87942e-05,-1.05613e-05,8.14303e-07,2.05101e-05,2.19149e-06,-2.74472e-05,2.81499e-06,0
5.40031e-05,1.2913e-05,-1.17097e-05,-5.56757e-06,1.99918e-05,-3.87172e-10,-1.98368e-05,1.60025e-06,0
6.96392e-05,1.03341e-05,-1.44678e-05,-1.91561e-05,1.7963e-05,-6.942e-06,-3.13464e-06,5.20915e-07,0
4.0111e-05,4.53012e-05,-1.55085e-05,-3.51337e-05,1.48349e-05,-1.35008e-05,1.8385e-05,8.1972e-07,0
-9.35044e-07,9.23357e-05,-1.29927e-05,-4.05766e-05,9.87736e-06,-1.76682e-05,3.91491e-05,2.64912e-06,0
-2.88759e-05,0.00012507,-9.73816e-06,-3.10704e-05,5.98726e-06,-2.02487e-05,5.85962e-05,3.66594e-06,0
-3.44708e-05,0.000151259,-8.05593e-06,-1.57869e-05,9.40744e-06,-2.15297e-05,7.38844e-05,2.47336e-06,0
-2.38109e-05,0.000178927,-5.55043e-06,-4.56082e-06,1.73052e-05,-2.34435e-05,7.56825e-05,-3.54583e-07,0
-7.43633e-06,0.000200723,-2.3035e-06,-1.48828e-06,2.05845e-05,-2.78356e-05,6.74541e-05,-1.80512e-06,0
8.15984e-06,0.00020847,-2.03962e-06,-3.25769e-06,1.69661e-05,-3.04535e-05,5.92006e-05,-7.28736e-07,0
2.03676e-05,0.000196312,-1.70352e-06,-3.89301e-06,1.20156e-05,-2.9577e-05,5.30246e-05,4.23463e-07,0
2.67276e-05,0.000158388,1.24237e-06,-3.00687e-06,1.20549e-05,-2.64833e-05,7.71725e-05,8.36657e-07,0
2.49002e-05,0.000103095,2.02725e-06,-3.26436e-06,1.62982e-05,-2.49771e-05,0.000132432,4.5165e-07,0
2.28851e-05,4.63061e-05,-1.50403e-06,-6.86291e-06,1.9567e-05,-2.43571e-05,0.000168831,7.62832e-07,0
3.56337e-05,-3.23944e-06,-4.88385e-06,-1.115e-05,2.20469e-05,-2.09661e-05,0.000170931,6.70234e-07,0
6.43601e-05,-3.1454e-05,-3.59342e-06,-8.34199e-06,2.24888e-05,-1.66698e-05,0.000152927,-2.5354e-06,0
9.09131e-05,-3.54977e-05,7.8569e-07,1.00133e-06,2.18707e-05,-1.06667e-05,0.000125224,-4.42483e-06,0
9.34556e-05,-1.93323e-05,4.04389e-06,1.01163e-05,2.40075e-05,-5.01603e-06,8.33998e-05,-2.94735e-06,0
7.71419e-05,6.43924e-06,6.49281e-06,1.64788e-05,3.19494e-05,-5.53771e-07,2.32723e-05,-5.74479e-08,0
5.17883e-05,1.17111e-05,5.02518e-06,1.72192e-05,4.19121e-05,1.99503e-06,-4.34042e-05,2.36166e-06,0
1.60513e-05,-8.53692e-06,-1.58525e-06,1.43952e-05,4.18008e-05,-3.15899e-07,-9.79499e-05,3.10483e-06,0
-2.82985e-05,-2.97096e-05,-9.4108e-06,1.29165e-05,3.30855e-05,-8.7323e-06,-0.000131016,3.54341e-06,0
-7.4405e-05,-3.77103e-05,-1.32277e-05,1.29978e-05,2.65152e-05,-1.59275e-05,-0.000140327,3.38548e-06,0
-0.000111019,-3.73747e-05,-1.09575e-05,1.25819e-05,2.36371e-05,-1.67435e-05,-0.000124873,1.5405e-06,0
-0.000129804,-2.50115e-05,-5.89343e-06,1.13221e-05,1.90963e-05,-1.76501e-05,-9.51224e-05,-5.49757e-07,0
-0.000122404,-1.82447e-06,-3.21132e-06,9.30617e-06,1.26696e-05,-2.28301e-05,-6.64686e-05,4.33886e-07,0
-8.06577e-05,2.21586e-05,-5.10873e-06,5.06729e-06,6.34481e-06,-2.81141e-05,-4.82064e-05,4.59559e-06,0
-1.07074e-05,3.45923e-05,-9.94064e-06,-1.13216e-06,-1.27562e-06,-3.05324e-05,-4.04617e-05,7.37999e-06,0
6.12843e-05,3.97048e-05,-1.57394e-05,-8.04468e-06,-9.87622e-06,-3.14937e-05,-4.20069e-05,7.18998e-06,0
0.000106529,4.9632e-05,-1.93847e-05,-1.37838e-05,-1.60321e-05,-3.1513e-05,-4.82834e-05,6.67036e-06,0
0.000117337,5.99512e-05,-2.14688e-05,-1.85563e-05,-1.82258e-05,-3.06422e-05,-5.33341e-05,8.82204e-06,0
9.82241e-05,4.47154e-05,-2.30373e-05,-2.25611e-05,-1.80096e-05,-2.90071e-05,-5.03664e-05,1.3414e-05,0
4.47031e-05,-1.39384e-05,-2.27188e-05,-2.65367e-05,-1.88115e-05,-2.79798e-05,-3.8157e-05,1.67268e-05,0
-3.57964e-05,-8.56423e-05,-1.85949e-05,-2.95736e-05,-1.89837e-05,-2.56315e-05,-2.35127e-05,1.65494e-05,0
-0.000107929,-0.000102811,-1.18866e-05,-2.9967e-05,-1.60018e-05,-2.00658e-05,-1.54708e-05,1.25225e-05,0
-0.00014341,-4.90486e-05,-4.58792e-06,-2.95844e-05,-1.15712e-05,-1.5273e-05,-1.71995e-05,5.72245e-06,0
-0.000148533,6.81811e-06,-2.49849e-07,-2.91352e-05,-5.5845e-06,-9.35055e-06,-2.34456e-05,-6.4426e-07,0
-0.000133985,8.71852e-06,6.43273e-07,-2.82199e-05,9.11389e-07,2.32765e-06,-2.89192e-05,-5.16703e-06,0
-0.000108162,-3.41062e-05,-1.62788e-06,-3.00881e-05,4.04391e-06,6.03137e-06,-3.05535e-05,-1.06254e-05,0
-8.20258e-05,-5.07658e-05,-6.04809e-06,-3.23708e-05,2.83599e-06,-5.45752e-06,-2.26196e-05,-1.55968e-05,0
-4.98461e-05,-3.31767e-05,-9.06918e-06,-2.95631e-05,4.08587e-06,-1.68762e-05,-5.36424e-06,-1.65773e-05,0
-1.21625e-05,-1.68834e-05,-1.0473e-05,-2.41526e-05,8.35782e-06,-1.98708e-05,1.2314e-05,-1.5133e-05,0
1.3914e-05,6.77563e-06,-9.15322e-06,-1.98929e-05,1.10411e-05,-1.7544e-05,2.40017e-05,-1.25456e-05,0
6.87765e-06,2.76117e-05,-6.37137e-06,-1.87037e-05,1.2363e-05,-1.50293e-05,2.58853e-05,-9.01018e-06,0
-3.05373e-05,4.25526e-05,-3.29879e-06,-2.27275e-05,1.18239e-05,-1.52613e-05,1.78413e-05,-4.80794e-06,0
-7.00314e-05,4.3072e-05,-1.61589e-06,-2.89611e-05,1.156e-05,-1.52684e-05,1.35126e-06,-1.47812e-06,0
-9.66884e-05,3.13414e-05,-1.4032e-06,-3.34505e-05,1.06477e-05,-1.17658e-05,-1.36248e-05,4.25672e-07,0
-0.000109235,9.83485e-06,-2.74204e-07,-3.69406e-05,8.69472e-06,-5.36994e-06,-1.06069e-05,5.68088e-07,0
-0.000110076,-2.31077e-05,1.45157e-06,-3.85475e-05,8.77256e-06,6.18136e-07,1.2191e-05,9.04891e-07,0
-0.000101085,-5.01109e-05,2.56946e-06,-3.90931e-05,9.42077e-06,5.15075e-06,3.93388e-05,2.06298e-06,0
-8.14554e-05,-5.23068e-05,1.04201e-06,-3.9913e-05,7.63059e-06,7.04584e-06,5.71258e-05,2.39358e-06,0
-4.70455e-05,-2.16866e-05,-2.14162e-06,-4.04409e-05,5.41918e-06,2.97252e-06,6.19825e-05,1.89976e-06,0
-2.4416e-06,2.52334e-05,-6.00487e-06,-3.94091e-05,6.95952e-06,-4.41884e-06,5.87169e-05,7.52046e-07,0
3.36189e-05,6.51997e-05,-1.07593e-05,-3.5454e-05,1.19518e-05,-1.09128e-05,5.48022e-05,-2.07048e-07,0
4.75458e-05,7.51291e-05,-1.4853e-05,-3.07481e-05,1.77342e-05,-1.56518e-05,5.26537e-05,-8.95146e-07,0
4.35012e-05,6.22264e-05,-1.60056e-05,-3.23814e-05,2.21617e-05,-1.19687e-05,4.8562e-05,-6.37894e-07,0
3.0898e-05,5.5431e-05,-1.356e-05,-4.38905e-05,2.35681e-05,9.95072e-06,3.8635e-05,-8.6374e-07,0
1.10951e-05,7.82312e-05,-7.39568e-06,-5.80908e-05,2.17015e-05,4.11313e-05,2.30198e-05,-2.03446e-06,0
-1.85402e-05,0.000112998,2.97958e-06,-6.43242e-05,1.9337e-05,5.68071e-05,9.29e-06,-2.99521e-06,0
-5.23784e-05,0.000112616,1.52634e-05,-6.03753e-05,1.87975e-05,4.80905e-05,5.06011e-06,-2.8935e-06,0
-8.01184e-05,5.0922e-05,2.66886e-05,-5.45795e-05,1.98087e-05,3.13526e-05,8.26722e-06,-2.27851e-06,0
-9.7334e-05,-3.59626e-05,3.74618e-05,-4.73511e-05,1.95066e-05,2.12616e-05,1.52014e-05,-2.13314e-06,0
-0.000105353,-9.37237e-05,4.91979e-05,-2.72825e-05,1.88763e-05,1.72499e-05,2.5627e-05,-1.26959e-06,0
-0.000105675,-0.000111445,5.70618e-05,8.9067e-06,2.12809e-05,1.62095e-05,3.64714e-05,1.36143e-07,0
-9.2126e-05,-9.80667e-05,5.36745e-05,4.57364e-05,2.67064e-05,1.58909e-05,4.44449e-05,2.0179e-07,0
-6.65985e-05,-6.35814e-05,3.0577e-05,6.4187e-05,2.98019e-05,1.14524e-05,4.62658e-05,2.04605e-06,0
-4.37138e-05,-5.8555e-05,-1.02553e-05,5.85629e-05,2.77953e-05,6.57318e-07,3.96858e-05,8.56109e-06,0
-3.34307e-05,-0.000100001,-5.06203e-05,3.74732e-05,2.6587e-05,-2.05694e-05,3.04824e-05,1.66106e-05,0
-3.14941e-05,-0.000140234,-7.54869e-05,1.63502e-05,2.77876e-05,-4.83505e-05,2.52418e-05,2.03954e-05,0
-2.98873e-05,-0.000156312,-8.05334e-05,7.40013e-06,2.97124e-05,-4.96922e-05,2.52486e-05,1.64745e-05,0
-3.04392e-05,-0.00015775,-7.22628e-05,1.3658e-05,3.1237e-05,-1.70419e-05,2.77286e-05,9.25664e-06,0
-3.41757e-05,-0.000152374,-5.91138e-05,2.8823e-05,3.06947e-05,1.04122e-05,3.33548e-05,3.33793e-06,0
-3.41714e-05,-0.000124864,-4.69198e-05,5.16564e-05,2.92283e-05,1.06691e-05,4.07948e-05,-1.73402e-06,0
-3.1315e-05,-7.22155e-05,-3.69322e-05,7.74511e-05,2.85544e-05,-3.7915e-06,4.69109e-05,-5.02806e-06,0
-2.7929e-05,-1.14053e-05,-2.7154e-05,9.52302e-05,2.91259e-05,-1.45271e-05,4.94288e-05,-5.67966e-06,0
-2.11351e-05,2.49739e-05,-1.90422e-05,0.000102956,2.93623e-05,-1.85322e-05,4.63012e-05,-4.68182e-06,0
-9.78458e-06,3.71721e-05,-1.63918e-05,0.000102747,2.69426e-05,-1.94802e-05,3.97076e-05,-3.64919e-06,0
4.63366e-06,3.94498e-05,-1.88235e-05,9.34697e-05,1.9732e-05,-1.9089e-05,3.17951e-05,-4.24529e-06,0
1.81334e-05,3.55045e-05,-2.172e-05,8.26169e-05,1.08892e-05,-1.81329e-05,2.36522e-05,-4.93364e-06,0
2.42974e-05,3.15139e-05,-2.24485e-05,8.2548e-05,6.29454e-06,-1.72761e-05,1.68861e-05,-4.50216e-06,0
1.73389e-05,3.16538e-05,-1.99474e-05,8.94341e-05,7.95156e-06,-1.64649e-05,1.39432e-05,-3.6781e-06,0
-1.13441e-06,2.67081e-05,-1.44646e-05,8.38657e-05,1.31952e-05,-1.53258e-05,1.10411e-05,-3.8766e-06,0
-2.61371e-05,-4.99028e-07,-9.05356e-06,5.19991e-05,1.92579e-05,-1.42599e-05,4.03298e-06,-5.53734e-06,0
-5.45255e-05,-4.22443e-05,-7.97687e-06,1.28122e-06,2.51284e-05,-1.36698e-05,-4.53456e-06,-7.02837e-06,0
-8.54394e-05,-7.14932e-05,-1.00734e-05,-5.00242e-05,2.80662e-05,-1.32764e-05,-1.05676e-05,-6.0375e-06,0
-0.000113758,-6.69704e-05,-9.86576e-06,-8.52222e-05,2.67219e-05,-1.02415e-05,-1.20872e-05,-4.52585e-06,0
-0.000131002,-3.38133e-05,-4.2403e-06,-0.00010179,2.37584e-05,-4.88468e-06,-8.67237e-06,-4.77297e-06,0
-0.000123598,1.63461e-05,4.85444e-06,-0.000104267,2.26297e-05,-7.23751e-07,-2.4518e-06,-4.84173e-06,0
-8.08494e-05,6.66103e-05,1.30935e-05,-9.02181e-05,2.19027e-05,-1.09498e-06,2.61983e-06,-4.01865e-06,0
-1.17709e-05,0.000103662,1.64197e-05,-5.95602e-05,1.89327e-05,-6.94369e-06,2.47374e-06,-2.63191e-06,0
7.0487e-05,0.00012306,1.58048e-05,-2.10542e-05,1.661e-05,-1.49808e-05,-1.62436e-06,-1.47864e-06,0
0.000147774,0.000135237,1.30801e-05,1.79925e-05,1.78065e-05,-1.73125e-05,-4.11073e-06,-1.23232e-06,0
0.000182748,0.000173035,6.45419e-06,5.37554e-05,1.56317e-05,-1.13377e-05,-1.808e-06,-7.25224e-07,0
0.00017099,0.000226224,-5.7263e-06,7.58288e-05,5.69164e-06,-6.10215e-06,6.48626e-07,-4.89907e-07,0
0.000142291,0.000251106,-2.12835e-05,8.57634e-05,-6.56578e-06,-1.01536e-05,-2.19626e-06,1.75142e-06,0
0.000109365,0.00023528,-3.37632e-05,9.44491e-05,-1.32754e-05,-1.66859e-05,1.4349e-05,5.22296e-06,0
8.01483e-05,0.000172282,-4.2217e-05,0.000100074,-1.13553e-05,-1.28317e-05,7.31407e-05,6.56286e-06,0
4.62101e-05,8.31886e-05,-4.69673e-05,9.94108e-05,-5.07219e-06,-2.33429e-06,0.000152967,6.51823e-06,0
-2.42226e-07,1.81693e-05,-4.59479e-05,8.79759e-05,-9.04277e-07,-5.58123e-07,0.000224918,5.45315e-06,0
-4.05361e-05,-3.82365e-06,-3.84982e-05,7.02075e-05,1.53709e-06,-8.90506e-06,0.000248709,5.01473e-06,0
-6.29322e-05,-2.3105e-05,-3.04634e-05,5.00001e-05,4.97532e-06,-1.4694e-05,0.000188911,3.59207e-06,0
-5.88407e-05,-6.06769e-05,-2.94934e-05,3.06413e-05,7.89798e-06,-1.31454e-05,6.96586e-05,1.31505e-06,0
-2.9214e-05,-8.91646e-05,-3.40858e-05,1.52472e-05,9.10285e-06,-9.69396e-06,-5.28342e-05,-7.0469e-07,0
3.65539e-06,-7.9732e-05,-3.85503e-05,5.2367e-06,1.12321e-05,-8.30951e-06,-0.000140063,-1.08019e-06,0
4.5481e-06,-2.06843e-05,-3.92455e-05,1.95199e-07,1.67682e-05,-9.81763e-06,-0.000194515,5.58112e-07,0
-3.66183e-05,6.05633e-05,-3.72433e-05,-4.1417e-06,2.37059e-05,-1.34516e-05,-0.000220844,1.88944e-06,0
-8.74277e-05,0.000117921,-3.42321e-05,-6.60083e-06,3.1676e-05,-1.57312e-05,-0.000208923,3.33312e-06,0
-0.000110366,0.000119818,-3.02938e-05,-9.56829e-06,3.91779e-05,-1.5634e-05,-0.000161711,4.82678e-06,0
-0.000105031,6.83479e-05,-2.43276e-05,-1.3786e-05,4.25428e-05,-1.60415e-05,-0.000102275,4.77875e-06,0
-0.000102416,-9.30183e-06,-1.67404e-05,-1.86779e-05,4.03729e-05,-1.82758e-05,-5.3159e-05,2.12746e-06,0
-0.000114073,-6.82736e-05,-1.16018e-05,-2.31445e-05,3.33091e-05,-2.07589e-05,-2.06075e-05,-7.00566e-07,0
-0.000126265,-8.46827e-05,-1.0963e-05,-3.13705e-05,2.20245e-05,-2.28095e-05,-3.25282e-06,-6.06425e-07,0
-0.000130761,-6.73471e-05,-1.25577e-05,-4.28885e-05,1.0616e-05,-2.36649e-05,7.97885e-06,1.88609e-06,0
-0.000127592,-3.96361e-05,-1.35066e-05,-5.21783e-05,5.97992e-06,-2.29818e-05,1.94274e-05,2.38756e-06,0
-0.000104997,-6.77857e-06,-1.31714e-05,-5.6225e-05,1.00866e-05,-2.23583e-05,3.06559e-05,9.83468e-07,0
-5.69638e-05,3.2229e-05,-1.19805e-05,-5.90906e-05,1.47288e-05,-2.17617e-05,3.91593e-05,7.6572e-07,0
8.68105e-06,5.31097e-05,-9.44335e-06,-6.41809e-05,1.30305e-05,-2.18843e-05,4.43376e-05,2.38015e-06,0
5.64145e-05,4.32793e-05,-6.3757e-06,-7.10321e-05,6.8365e-06,-2.5015e-05,5.15784e-05,4.1781e-06,0
5.53018e-05,2.86756e-05,-5.47918e-06,-7.42849e-05,3.50609e-07,-2.96296e-05,6.11888e-05,4.21557e-06,0
1.30021e-05,2.31817e-05,-1.76044e-06,-6.95691e-05,-3.32041e-06,-3.01075e-05,6.41863e-05,3.90291e-06,0
-3.42657e-05,-2.43334e-06,5.16041e-06,-6.44031e-05,-6.84972e-06,-2.20236e-05,5.74431e-05,3.43601e-06,0
-6.26346e-05,-4.77426e-05,8.87242e-06,-6.86889e-05,-1.30303e-05,-1.16824e-05,4.28007e-05,3.05444e-06,0
-9.15615e-05,-8.70072e-05,5.79051e-06,-8.25268e-05,-1.81754e-05,-4.46197e-06,2.77119e-05,2.65845e-06,0
-0.00014055,-0.000103813,-5.81096e-06,-9.78801e-05,-1.67599e-05,-8.65123e-07,2.56878e-05,1.40903e-06,0
-0.000205279,-7.72852e-05,-1.87177e-05,-0.00011054,-1.40685e-05,-6.2774e-06,3.95665e-05,2.40347e-07,0
-0.000244326,-2.30477e-05,-2.37709e-05,-0.000116634,-1.9751e-05,-1.82206e-05,5.00426e-05,-1.30698e-08,0
-0.000227856,2.45239e-05,-1.8008e-05,-0.000114932,-2.86162e-05,-2.66374e-05,4.41665e-05,3.17808e-07,0
-0.000179279,5.1494e-05,-7.19411e-06,-0.000106865,-3.19683e-05,-2.35983e-05,3.06156e-05,9.04847e-07,0
-0.000138309,5.65898e-05,1.94615e-06,-9.41668e-05,-3.08067e-05,-1.26581e-05,1.66646e-05,1.10756e-06,0
-0.000106255,3.60506e-05,6.74024e-06,-7.53735e-05,-2.64878e-05,-1.7886e-06,3.36034e-06,1.0655e-06,0
-6.80286e-05,-9.66108e-06,9.04223e-06,-5.02576e-05,-1.4777e-05,9.52839e-06,-9.08825e-06,1.68864e-06,0
-2.66516e-05,-4.57862e-05,1.07713e-05,-1.83192e-05,8.29531e-06,2.3507e-05,-1.90273e-05,2.93091e-06,0
1.15191e-05,-4.61447e-05,1.22041e-05,1.56485e-05,3.77025e-05,3.33426e-05,-2.2846e-05,3.3033e-06,0
3.7534e-05,-2.68089e-05,1.34851e-05,3.75827e-05,5.91945e-05,3.11914e-05,-1.50448e-05,2.65987e-06,0
4.62726e-05,-1.89806e-05,1.48015e-05,3.89384e-05,6.48512e-05,2.09468e-05,4.98678e-06,2.22544e-06,0
4.422e-05,-1.34527e-05,1.76243e-05,2.91548e-05,6.10173e-05,1.38212e-05,2.89826e-05,5.34299e-07,0
4.59888e-05,1.77026e-05,2.35515e-05,2.42719e-05,5.67391e-05,1.58962e-05,4.69871e-05,-1.1232e-06,0
5.55838e-05,6.24262e-05,3.15703e-05,2.8312e-05,5.42215e-05,2.33331e-05,5.31247e-05,-1.59682e-06,0
6.48043e-05,8.04987e-05,3.50622e-05,3.06534e-05,5.06239e-05,2.83916e-05,4.53047e-05,-1.54519e-06,0
5.81962e-05,5.71333e-05,3.15542e-05,2.24565e-05,4.03057e-05,2.66701e-05,3.65277e-05,-6.07392e-07,0
3.2872e-05,2.49085e-05,2.62933e-05,1.05042e-05,2.27909e-05,3.32763e-05,5.54756e-05,-2.52293e-07,0
7.01082e-06,2.28438e-05,2.44073e-05,4.53745e-06,7.68939e-06,4.96965e-05,0.000100825,-2.1221e-06,0
1.9977e-06,4.67462e-05,2.29317e-05,6.07942e-06,2.67278e-06,4.33286e-05,0.000133853,-3.71564e-06,0
1.93516e-05,6.46721e-05,2.0833e-05,9.71838e-06,5.83466e-06,1.23261e-05,0.000131311,-4.39334e-06,0
4.02249e-05,6.24621e-05,2.08381e-05,1.12564e-05,9.6974e-06,-1.31646e-05,0.000103244,-3.64712e-06,0
4.93204e-05,4.52891e-05,1.96089e-05,8.71323e-06,1.09591e-05,-2.29079e-05,6.5639e-05,-3.02553e-07,0
4.31002e-05,1.77814e-05,1.47973e-05,3.72968e-06,1.15608e-05,-2.67886e-05,1.10182e-05,2.16356e-06,0
2.54217e-05,5.71351e-08,1.04097e-05,3.676e-06,9.5241e-06,-2.8867e-05,-5.58711e-05,3.67933e-06,0
1.11027e-05,2.85455e-05,8.01678e-06,7.52224e-06,1.37906e-06,-2.43561e-05,-0.000119495,4.21e-06,0
1.93391e-05,9.28021e-05,8.24167e-06,7.21198e-06,-7.7463e-06,-1.39749e-05,-0.000165048,3.79159e-06,0
4.58027e-05,0.000146151,1.22234e-05,4.15253e-06,-1.21039e-05,-5.71498e-06,-0.00017622,4.13848e-06,0
5.83275e-05,0.000149307,1.46215e-05,5.19206e-07,-1.14375e-05,1.13717e-06,-0.000160203,3.9963e-06,0
4.67876e-05,0.000105732,1.14419e-05,-5.3415e-06,-8.12279e-06,1.81499e-05,-0.000130808,2.40969e-06,0
2.59954e-05,5.62141e-05,6.64844e-06,-1.22446e-05,2.65351e-07,3.80488e-05,-0.000103151,8.80219e-07,0
5.27432e-06,1.40135e-05,4.93148e-06,-1.65585e-05,1.16267e-05,4.82821e-05,-7.71487e-05,-3.80569e-07,0
-1.37122e-05,-3.02877e-05,7.31149e-06,-1.7852e-05,1.89858e-05,4.50682e-05,-4.23732e-05,-1.9646e-06,0
-3.502e-05,-6.72304e-05,9.2255e-06,-1.60249e-05,2.14258e-05,3.02756e-05,3.95273e-06,-3.4124e-06,0
-5.95594e-05,-9.18956e-05,5.94204e-06,-1.47895e-05,1.92855e-05,1.18748e-05,4.80826e-05,-2.88863e-06,0
-8.86135e-05,-9.68343e-05,-1.85733e-06,-1.81353e-05,1.38148e-05,-3.50648e-06,7.52779e-05,-8.27022e-07,0
-0.000119574,-7.68302e-05,-8.15194e-06,-2.33556e-05,9.40839e-06,-1.62986e-05,7.26523e-05,1.64188e-07,0
-0.000144984,-4.31748e-05,-9.14039e-06,-2.68601e-05,1.23983e-05,-2.95217e-05,3.45497e-05,-9.73794e-08,0
-0.000157388,-1.50777e-05,-8.9933e-06,-2.99721e-05,1.59375e-05,-4.24785e-05,-1.34999e-05,-4.21206e-07,0
-0.000156879,-1.7947e-06,-1.2189e-05,-3.40402e-05,1.00886e-05,-5.42554e-05,-3.16231e-05,-3.61879e-07,0
-0.000141893,7.60509e-06,-1.79559e-05,-3.6816e-05,-2.50602e-06,-6.31072e-05,4.51757e-07,-9.84483e-09,0
-0.000111234,2.03567e-05,-2.3707e-05,-3.94834e-05,-1.46187e-05,-7.1466e-05,6.84461e-05,5.91575e-07,0
-7.35347e-05,2.76318e-05,-2.99123e-05,-4.33735e-05,-2.22648e-05,-7.86781e-05,0.000148836,9.77571e-07,0
-3.3584e-05,1.49525e-05,-3.65777e-05,-4.62112e-05,-2.19489e-05,-8.23868e-05,0.000208274,1.64953e-06,0
1.55716e-05,-4.90984e-06,-4.11361e-05,-3.99495e-05,-1.32297e-05,-7.73858e-05,0.000216848,2.35827e-06,0
7.25111e-05,-1.38716e-05,-3.86583e-05,-2.01141e-05,-2.0902e-07,-5.3849e-05,0.000167912,2.74119e-06,0
0.000127802,-7.66322e-06,-3.12851e-05,8.22793e-06,8.00584e-06,-1.80578e-05,7.90652e-05,4.13062e-06,0
0.00015672,1.24802e-05,-2.64575e-05,3.10242e-05,1.01035e-05,4.3198e-06,-2.67125e-05,1.30207e-05,0
0.000128548,5.93912e-05,-2.59725e-05,3.86118e-05,2.54709e-05,1.08884e-05,-0.000133466,3.02102e-05,0
6.39013e-05,0.000130986,-2.6354e-05,3.59269e-05,6.41177e-05,3.48596e-05,-0.000208538,4.11335e-05,0
-2.46575e-06,0.000171915,-2.77141e-05,2.93998e-05,9.71341e-05,6.73358e-05,-0.00022647,4.03339e-05,0
-4.89914e-05,0.000118829,-2.93404e-05,1.92862e-05,8.42801e-05,5.56276e-05,-0.000193057,3.18668e-05,0
-6.61604e-05,1.52955e-05,-2.97318e-05,7.31856e-06,4.51655e-05,1.63717e-05,-0.000132411,1.4274e-05,0
-7.53835e-05,-5.43942e-05,-2.95911e-05,-3.60595e-06,2.07904e-05,-6.36125e-06,-7.3924e-05,-7.26432e-06,0
-8.76192e-05,-6.48033e-05,-2.90247e-05,-1.10268e-05,1.33365e-05,-9.37693e-06,-3.67207e-05,-2.76201e-05,0
-9.18808e-05,-3.13888e-05,-2.78676e-05,-1.13592e-05,1.22389e-05,-7.66872e-06,-2.07115e-05,-4.11496e-05,0
-9.21225e-05,-1.61521e-05,-2.58246e-05,-6.77872e-06,6.86697e-06,-2.0823e-05,-3.25859e-06,-4.19019e-05,0
-0.000116664,-3.68476e-05,-2.48495e-05,-1.09989e-06,-7.81586e-08,-4.99645e-05,3.0589e-05,-3.51305e-05,0
-0.000176096,-7.4452e-05,-2.36857e-05,4.29068e-06,-1.68292e-06,-8.47085e-05,7.23814e-05,-2.6973e-05,0
-0.000237542,-0.000113602,-2.34912e-05,3.91756e-06,1.50126e-06,-9.44635e-05,0.000108476,-1.89141e-05,0
-0.000251931,-0.000129017,-2.57042e-05,-6.29743e-06,3.7659e-06,-6.24635e-05,0.000130816,-1.18429e-05,0
-0.00020319,-0.000105955,-2.90908e-05,-2.37612e-05,5.68436e-06,-1.3875e-05,0.000136139,-6.75708e-06,0
-0.000118205,-6.82619e-05,-2.94715e-05,-4.23991e-05,1.31098e-05,1.30508e-05,0.000126156,-3.74199e-06,0
-2.87844e-05,-3.99089e-05,-2.47611e-05,-5.55705e-05,2.47333e-05,4.85778e-06,0.000103439,-2.73301e-06,0
4.36002e-05,-2.73667e-06,-1.89472e-05,-6.06274e-05,3.22845e-05,-2.24962e-05,7.23893e-05,-1.65083e-06,0
8.39919e-05,5.57254e-05,-1.56261e-05,-5.84144e-05,3.0961e-05,-4.93924e-05,4.22221e-05,1.60772e-06,0
9.22398e-05,0.000121719,-1.61589e-05,-5.00985e-05,2.56188e-05,-6.22068e-05,2.00555e-05,6.77217e-06,0
8.85056e-05,0.000171084,-1.84895e-05,-3.6927e-05,1.93747e-05,-6.23954e-05,4.02369e-06,1.12941e-05,0
9.08139e-05,0.000191909,-1.99754e-05,-2.3025e-05,9.60239e-06,-6.01456e-05,-2.14559e-05,1.39748e-05,0
9.48981e-05,0.000188791,-1.91344e-05,-1.25152e-05,-4.34958e-06,-6.03357e-05,-6.2175e-05,1.46991e-05,0
8.31197e-05,0.000160501,-1.72982e-05,-6.53939e-06,-1.40302e-05,-5.7663e-05,-8.9646e-05,1.36598e-05,0
5.19194e-05,9.9308e-05,-1.61975e-05,-3.03679e-06,-1.53796e-05,-5.02933e-05,-7.99155e-05,1.2233e-05,0
1.55636e-05,3.25911e-05,-1.43628e-05,2.08605e-06,-1.11522e-05,-4.40704e-05,-5.9115e-05,1.14959e-05,0
-7.39191e-06,1.25343e-05,-1.16134e-05,5.962e-06,-6.62262e-06,-4.32963e-05,-4.83148e-05,1.11295e-05,0
-1.12751e-05,3.23005e-05,-1.28559e-05,-3.21699e-06,-1.00304e-05,-4.5013e-05,-2.42643e-05,1.08136e-05,0
1.36867e-06,4.39487e-05,-1.90105e-05,-2.43619e-05,-2.70974e-05,-4.56125e-05,3.08879e-05,1.04383e-05,0
3.05171e-05,4.20272e-05,-2.38605e-05,-3.92628e-05,-4.96432e-05,-4.21289e-05,9.39858e-05,1.1122e-05,0
6.62403e-05,2.96617e-05,-2.27594e-05,-4.02104e-05,-6.62228e-05,-3.51718e-05,0.000138894,1.2738e-05,0
8.66391e-05,7.00987e-06,-1.59142e-05,-3.65326e-05,-6.62258e-05,-3.06424e-05,0.000155354,1.30412e-05,0
9.74184e-05,-2.09418e-05,-8.01706e-06,-3.54891e-05,-4.37311e-05,-2.33456e-05,0.000153285,1.1849e-05,0
0.000104678,-5.54785e-05,-4.21313e-06,-4.27361e-05,9.24088e-06,-1.46121e-05,0.00014915,9.37317e-06,0
7.45868e-05,-9.10982e-05,-4.79778e-06,-5.93653e-05,6.52306e-05,-2.13765e-05,0.000137871,8.42949e-06,0
8.95124e-06,-9.99007e-05,-8.35844e-06,-7.48763e-05,7.30906e-05,-3.70243e-05,0.000109487,9.00137e-06,0
-5.43785e-05,-7.30661e-05,-1.08454e-05,-8.19092e-05,4.3738e-05,-4.30324e-05,7.15941e-05,8.29859e-06,0
-0.000110025,-5.50779e-05,-1.20013e-05,-8.368e-05,4.71976e-06,-3.68016e-05,4.5698e-05,6.48493e-06,0
-0.000170805,-6.81133e-05,-1.34916e-05,-8.26265e-05,-2.4576e-05,-2.49342e-05,3.62172e-05,6.03933e-06,0
-0.000220395,-7.89136e-05,-1.26129e-05,-7.32001e-05,-2.73186e-05,-1.17696e-05,3.64631e-05,6.80493e-06,0
-0.00023654,-5.95652e-05,-9.46664e-06,-5.09146e-05,-5.0093e-06,-2.05443e-06,3.77038e-05,6.77881e-06,0
-0.000214702,-1.84543e-05,-5.70589e-06,-1.77023e-05,2.232e-05,1.32337e-05,3.73546e-05,5.15769e-06,0
-0.000168202,1.89517e-05,-2.87964e-06,2.00784e-05,3.68557e-05,4.02865e-05,3.60098e-05,3.06604e-06,0
-0.000125781,4.00035e-05,-1.3866e-06,5.43023e-05,4.0348e-05,5.46264e-05,3.32127e-05,1.78937e-06,0
-0.000100326,5.11107e-05,-1.08773e-06,7.69441e-05,3.49195e-05,4.62937e-05,2.7253e-05,6.952e-07,0
-6.82073e-05,5.48409e-05,-8.55085e-07,8.66085e-05,2.03438e-05,2.94599e-05,1.97801e-05,-3.77548e-07,0
1.17882e-06,5.34667e-05,1.01244e-06,8.68041e-05,5.19314e-06,1.75339e-05,1.51087e-05,-1.72994e-06,0
8.0881e-05,5.09259e-05,5.30724e-06,8.22343e-05,4.36214e-06,9.60686e-06,1.17565e-05,-3.22602e-06,0
0.000107401,4.3785e-05,8.99709e-06,7.62761e-05,1.9038e-05,2.65101e-06,7.81647e-06,-4.29373e-06,0
6.39476e-05,1.49136e-05,7.97439e-06,6.62035e-05,4.2889e-05,-2.76524e-06,2.33978e-06,-3.98634e-06,0
-1.30966e-05,-3.07047e-05,3.40062e-06,5.34551e-05,6.868e-05,-5.37947e-06,-2.82757e-06,-2.96564e-06,0
-9.02247e-05,-6.6753e-05,6.95999e-07,4.89828e-05,8.52769e-05,-5.04974e-06,-6.12642e-06,-2.08342e-06,0
-0.000153899,-8.50817e-05,2.55335e-06,5.62587e-05,8.75671e-05,-3.59993e-06,-3.45656e-06,-2.54698e-06,0
-0.000196598,-9.1017e-05,4.97762e-06,7.10287e-05,8.15297e-05,-1.42641e-06,1.29402e-06,-2.80332e-06,0
-0.000208717,-7.40815e-05,4.86702e-06,9.33456e-05,7.4525e-05,9.683e-07,4.94229e-06,-1.52899e-06,0
-0.000187375,-3.42463e-05,4.30206e-06,0.000120838,7.39522e-05,3.99538e-06,1.7211e-05,-6.47244e-07,0
-0.000137389,-1.10532e-05,5.01061e-06,0.000140283,7.73639e-05,6.42918e-06,3.61383e-05,3.50924e-07,0
-7.30605e-05,-2.68244e-05,7.94819e-06,0.000136143,7.05636e-05,8.84331e-06,4.29194e-05,2.16942e-07,0
-2.95645e-05,-3.80661e-05,1.28357e-05,0.000123007,5.28476e-05,1.24231e-05,3.44685e-05,-2.14634e-06,0
8.75749e-06,-1.64019e-05,2.09718e-05,0.000126088,3.52731e-05,1.42216e-05,2.08102e-05,-2.85365e-06,0
6.21792e-05,1.54371e-05,3.60378e-05,0.000137684,2.30299e-05,1.44365e-05,6.3886e-06,-1.93144e-06,0
8.88737e-05,4.40259e-05,5.80883e-05,0.000138996,1.51485e-05,1.6572e-05,-9.3606e-06,-5.87046e-07,0
6.4205e-05,5.80465e-05,8.1077e-05,0.000124707,1.04781e-05,1.90212e-05,-2.74678e-05,-3.59775e-07,0
2.50387e-06,5.46522e-05,9.7051e-05,0.000101911,6.9082e-06,2.14144e-05,-4.50508e-05,-2.55004e-06,0
-4.80096e-05,4.67312e-05,0.000100123,7.90982e-05,5.36956e-06,2.27598e-05,-5.77792e-05,-4.41255e-06,0
-5.92504e-05,3.82761e-05,8.49961e-05,5.76383e-05,5.63124e-06,1.94935e-05,-6.14419e-05,-5.50305e-06,0
-3.95388e-05,2.30789e-05,5.21891e-05,3.77047e-05,6.59787e-06,7.49505e-06,-5.43511e-05,-5.30159e-06,0
-8.92762e-06,7.84951e-07,6.09531e-06,2.25441e-05,1.02886e-05,-1.04262e-05,-3.99379e-05,-4.79021e-06,0
2.76597e-05,-2.24569e-05,-4.39194e-05,1.25616e-05,1.82897e-05,-2.60837e-05,-2.34265e-05,-3.12911e-06,0
6.45311e-05,-2.81783e-05,-8.45684e-05,4.77876e-06,2.57059e-05,-3.31248e-05,-9.32381e-06,-2.9764e-07,0
8.0551e-05,-3.39086e-06,-0.000107886,-2.71867e-06,2.60701e-05,-2.09907e-05,-8.29922e-07,2.32577e-06,0
6.27982e-05,4.41953e-05,-0.000112508,-9.66342e-06,2.06329e-05,1.10969e-05,6.01905e-07,3.80594e-06,0
1.54044e-05,9.9952e-05,-0.000102926,-1.51216e-05,1.53223e-05,4.08388e-05,-3.34138e-06,3.608e-06,0
-3.72771e-05,0.000145976,-8.58347e-05,-1.86709e-05,1.56983e-05,4.41174e-05,-8.4465e-06,1.95024e-06,0
-7.06348e-05,0.000159936,-6.61103e-05,-2.05451e-05,1.91508e-05,2.82118e-05,-1.2618e-05,-7.08901e-07,0
-7.00131e-05,0.000129789,-4.69488e-05,-2.15763e-05,1.62254e-05,2.36972e-05,-1.43581e-05,-3.09811e-06,0
-4.81555e-05,7.1309e-05,-3.01954e-05,-2.11374e-05,3.85466e-06,3.53591e-05,-1.21137e-05,-4.31113e-06,0
-2.10436e-05,1.787e-05,-1.87129e-05,-2.3458e-05,-7.66659e-06,4.12061e-05,-6.19418e-06,-4.27967e-06,0
6.77327e-06,-2.49156e-06,-1.42557e-05,-3.23155e-05,-9.70109e-06,3.38771e-05,9.26414e-07,-5.57217e-06,0
1.92513e-05,1.73305e-05,-1.33803e-05,-3.95846e-05,-3.80491e-06,2.42267e-05,6.81645e-06,-7.98626e-06,0
-5.34197e-06,5.25425e-05,-1.25492e-05,-3.8932e-05,7.57492e-06,1.97755e-05,1.02145e-05,-9.5382e-06,0
-3.03165e-05,8.046e-05,-1.33491e-05,-3.16662e-05,2.24637e-05,1.98473e-05,1.30375e-05,-7.68194e-06,0
-1.24915e-05,0.000106285,-1.69264e-05,-2.37334e-05,2.8091e-05,1.98251e-05,1.50538e-05,-4.80288e-06,0
2.44577e-05,0.000130841,-1.78843e-05,-2.31409e-05,1.5645e-05,1.6369e-05,1.58901e-05,-4.46401e-06,0
2.55341e-05,0.000141757,-1.2357e-05,-2.92631e-05,-5.41761e-06,9.70124e-06,1.69516e-05,-4.86172e-06,0
-2.48192e-05,0.000117623,-5.52615e-06,-3.59666e-05,-2.02333e-05,3.50653e-06,1.72514e-05,-3.29233e-06,0
-8.41273e-05,6.83194e-05,-2.16308e-06,-3.99151e-05,-2.39878e-05,-1.50127e-06,1.81621e-05,-8.05117e-07,0
-0.000113068,3.20298e-05,-6.79739e-07,-4.19676e-05,-2.0253e-05,-5.12748e-06,2.14379e-05,3.00567e-07,0
-0.000108716,1.90435e-05,-1.6008e-08,-4.04847e-05,-9.94284e-06,-6.94097e-06,2.59678e-05,-1.31062e-06,0
-8.02626e-05,7.23193e-06,-1.01676e-06,-3.7982e-05,-7.18155e-07,-1.04158e-05,3.22686e-05,-2.25916e-06,0
-3.35017e-05,-1.56177e-05,-2.60504e-06,-3.42423e-05,3.41951e-06,-1.4871e-05,3.7876e-05,1.17449e-06,0
6.34633e-06,-2.35902e-05,-2.30255e-06,-2.67427e-05,4.24974e-06,-1.53255e-05,4.06654e-05,3.46216e-06,0
9.6668e-06,-2.74747e-06,-1.21513e-06,-1.86307e-05,1.44361e-06,-9.75795e-06,3.96012e-05,2.86419e-06,0
-1.30766e-05,3.0753e-05,-1.00506e-06,-1.32968e-05,-5.41059e-06,-5.08079e-06,3.54348e-05,1.59039e-06,0
-2.7709e-05,5.35747e-05,-1.99264e-09,-1.30236e-05,-1.10771e-05,-3.97036e-06,3.26902e-05,2.10767e-06,0
-2.80212e-05,4.94018e-05,4.90584e-06,-1.43089e-05,-9.73226e-06,-1.49298e-06,3.09833e-05,4.06025e-06,0
-3.20009e-05,2.90457e-05,1.07293e-05,-1.52758e-05,-5.24787e-06,2.95589e-06,2.56228e-05,5.37986e-06,0
-5.39957e-05,2.87424e-05,1.30764e-05,-1.64348e-05,-2.56494e-06,-4.3217e-07,2.02597e-05,6.19429e-06,0
-8.33858e-05,5.82301e-05,1.17905e-05,-1.95264e-05,1.56022e-06,-1.53626e-05,3.20856e-05,6.89824e-06,0
-0.000102167,7.83182e-05,8.40757e-06,-2.51143e-05,1.43807e-05,-3.18706e-05,6.30926e-05,6.96007e-06,0
-0.000105261,5.03111e-05,4.79274e-06,-3.27486e-05,3.0379e-05,-4.24784e-05,8.53061e-05,5.25518e-06,0
-9.97427e-05,-1.29659e-05,2.39872e-06,-4.16423e-05,3.38175e-05,-4.79448e-05,7.25677e-05,3.71875e-06,0
-9.15297e-05,-5.7288e-05,2.43287e-06,-5.09385e-05,1.84994e-05,-5.47559e-05,2.91422e-05,3.31683e-06,0
-8.29846e-05,-4.19973e-05,4.13062e-06,-5.78835e-05,-3.1307e-06,-6.85296e-05,-2.45598e-05,3.70284e-06,0
-7.1467e-05,1.82687e-05,7.44963e-06,-6.13716e-05,-1.63413e-05,-8.8253e-05,-6.97843e-05,3.58785e-06,0
-5.40464e-05,5.64461e-05,1.22434e-05,-6.44869e-05,-1.68948e-05,-9.57036e-05,-9.56394e-05,2.5806e-06,0
-3.78999e-05,1.25666e-05,1.68515e-05,-6.90391e-05,-1.20785e-05,-6.38343e-05,-0.000102488,2.22209e-06,0
-3.14641e-05,-9.88802e-05,1.60426e-05,-6.98059e-05,-1.03412e-05,3.55714e-06,-9.62223e-05,2.77609e-06,0
-3.45332e-05,-0.00017792,8.94807e-06,-5.98239e-05,-1.02392e-05,5.62904e-05,-7.15354e-05,2.76404e-06,0
-4.19456e-05,-0.000167564,1.57112e-06,-4.06511e-05,-3.41069e-06,4.85706e-05,-3.33846e-05,4.51861e-06,0
-4.79567e-05,-0.000113357,6.97684e-07,-1.77817e-05,1.03999e-05,4.6358e-06,-6.37369e-06,1.15405e-05,0
-4.68445e-05,-5.98649e-05,3.19575e-06,1.06981e-06,1.6283e-05,-2.30888e-05,7.16959e-06,1.9853e-05,0
-4.3939e-05,-2.90145e-05,-8.8859e-07,3.4275e-06,5.64866e-06,-2.69149e-05,1.82967e-05,1.95414e-05,0
-4.58128e-05,-2.84451e-05,-8.93132e-06,-8.79141e-06,-7.53245e-06,-2.45838e-05,2.79719e-05,1.16415e-05,0
-4.96441e-05,-3.73414e-05,-1.66439e-05,-2.25319e-05,-8.5851e-06,-2.4839e-05,3.03126e-05,5.34672e-06,0
-4.73573e-05,-4.32189e-05,-2.39096e-05,-3.20656e-05,1.18198e-06,-2.30602e-05,2.39293e-05,1.60798e-06,0
-3.71323e-05,-4.24875e-05,-2.92293e-05,-3.69901e-05,1.46235e-05,-1.90931e-05,9.03266e-06,4.86584e-07,0
-2.49695e-05,-2.96926e-05,-3.24408e-05,-4.45885e-05,2.33839e-05,-1.54534e-05,-1.73581e-05,1.00479e-06,0
-1.33576e-05,-1.12885e-05,-3.35691e-05,-5.13564e-05,2.12434e-05,-1.36374e-05,-5.59661e-05,4.55252e-07,0
-2.02623e-06,2.50212e-06,-3.44315e-05,-5.07128e-05,1.23408e-05,-1.2497e-05,-9.25581e-05,-1.0251e-06,0
7.51204e-06,9.96914e-06,-3.53991e-05,-3.97177e-05,2.11448e-06,-1.26555e-05,-9.66937e-05,-3.53574e-06,0
1.19777e-05,1.43063e-05,-3.63705e-05,-1.32409e-05,-8.64569e-06,-1.43325e-05,-5.77175e-05,-7.79905e-06,0
9.1087e-06,1.68734e-05,-3.62888e-05,2.4707e-05,-1.43733e-05,-1.6081e-05,1.97012e-06,-1.2969e-05,0
5.93281e-07,1.67932e-05,-3.42746e-05,5.19053e-05,-2.10876e-05,-1.84633e-05,5.23275e-05,-1.78516e-05,0
-1.0343e-05,1.43493e-05,-3.04722e-05,5.32653e-05,-4.69444e-05,-2.0667e-05,8.00034e-05,-2.10763e-05,0
-2.0254e-05,1.24765e-05,-2.38655e-05,4.37252e-05,-8.13477e-05,-2.27848e-05,8.70064e-05,-2.09592e-05,0
-2.64172e-05,1.36428e-05,-1.41545e-05,4.61266e-05,-8.20914e-05,-2.37314e-05,8.09443e-05,-1.74609e-05,0
-2.63716e-05,1.60877e-05,-3.33587e-06,6.51243e-05,-3.72235e-05,-2.42531e-05,6.58064e-05,-1.3537e-05,0
-2.14111e-05,1.57351e-05,5.76786e-06,8.2349e-05,1.85087e-05,-2.24654e-05,3.92554e-05,-1.1536e-05,0
-1.60866e-05,1.21233e-05,1.14654e-05,7.93732e-05,6.01216e-05,-1.97298e-05,7.46419e-06,-1.05174e-05,0
-1.19311e-05,1.06969e-05,1.16235e-05,5.43763e-05,9.42488e-05,-1.77452e-05,-9.59555e-06,-8.89217e-06,0
-5.74183e-06,2.84517e-05,6.40253e-06,1.97558e-05,0.000121205,-1.74592e-05,2.04923e-06,-5.88349e-06,0
5.92465e-06,7.55305e-05,-2.41855e-06,-1.09541e-05,0.000122192,-1.63212e-05,3.36749e-05,-1.20511e-06,0
2.28112e-05,0.000123216,-1.2802e-05,-1.70917e-05,9.2556e-05,-1.38956e-05,6.42727e-05,2.51302e-06,0
3.59729e-05,0.000111826,-2.34077e-05,5.11651e-06,6.02471e-05,-1.28121e-05,8.24824e-05,3.27581e-06,0
3.38747e-05,2.86641e-05,-3.34255e-05,3.47099e-05,5.25991e-05,-1.29279e-05,8.96494e-05,3.88369e-06,0
1.62859e-05,-5.28567e-05,-3.98335e-05,5.47411e-05,6.55895e-05,-1.3477e-05,8.97919e-05,5.1456e-06,0
-6.6878e-06,-8.57858e-05,-3.96072e-05,6.02532e-05,6.95915e-05,-1.26428e-05,8.19233e-05,6.14222e-06,0
-2.63985e-05,-9.36444e-05,-3.39489e-05,5.30085e-05,4.82851e-05,-1.07465e-05,5.4034e-05,5.44762e-06,0
-4.08357e-05,-7.912e-05,-2.65727e-05,3.26833e-05,2.48435e-05,-1.0164e-05,1.83786e-05,3.69045e-06,0
-5.23745e-05,-5.7077e-05,-2.18054e-05,6.32242e-06,1.15581e-05,-1.25958e-05,2.26591e-06,3.8313e-06,0
-6.39137e-05,-3.24427e-05,-2.10829e-05,-1.57501e-05,2.90817e-06,-1.59941e-05,5.67883e-06,5.72884e-06,0
-6.13512e-05,1.71835e-05,-2.32206e-05,-2.6685e-05,2.03125e-07,-1.60614e-05,1.61539e-05,7.98831e-06,0
-3.46636e-05,7.55783e-05,-2.43061e-05,-2.57824e-05,3.28611e-06,-1.19357e-05,2.23918e-05,9.12158e-06,0
-4.6363e-07,0.000135735,-2.25611e-05,-1.77652e-05,9.07166e-06,-7.90506e-06,3.37412e-05,8.34867e-06,0
3.0337e-05,0.000176609,-1.85872e-05,-1.03386e-05,1.42043e-05,-6.41898e-06,6.08181e-05,6.59865e-06,0
4.83456e-05,0.000169446,-1.25354e-05,-6.1491e-06,1.81361e-05,-6.41509e-06,8.72798e-05,5.32918e-06,0
3.47429e-05,0.000110981,-3.63686e-06,-3.9218e-06,1.82212e-05,-6.72754e-06,9.67918e-05,6.13652e-06,0
-1.75722e-07,3.47485e-05,5.32475e-06,-3.08049e-06,1.44439e-05,-7.5047e-06,9.46366e-05,8.32452e-06,0
-3.02202e-05,-6.76019e-06,7.96787e-06,-4.29567e-06,1.02407e-05,-9.92588e-06,0.000100103,9.32243e-06,0
-4.21822e-05,-1.38714e-06,4.19151e-06,-1.15792e-05,8.70545e-06,-1.30298e-05,0.000122483,8.08876e-06,0
-3.15125e-05,1.99372e-05,-2.62855e-06,-2.29983e-05,1.00411e-05,-1.43688e-05,0.000151047,5.51142e-06,0
-3.82559e-06,2.50381e-05,-9.21846e-06,-3.63151e-05,1.21262e-05,-1.39094e-05,0.000175375,3.36543e-06,0
3.00736e-05,2.53251e-05,-1.45395e-05,-4.96976e-05,1.1279e-05,-9.25424e-06,0.000185053,1.79557e-06,0
5.72488e-05,3.73722e-05,-1.72505e-05,-5.62867e-05,5.55904e-06,2.59304e-06,0.000159382,7.13367e-08,0
6.5757e-05,4.55723e-05,-1.57515e-05,-4.90051e-05,-6.52422e-07,1.54446e-05,7.9148e-05,-7.86565e-07,0
4.9202e-05,3.50238e-05,-1.00719e-05,-3.29146e-05,-2.23092e-06,1.58981e-05,-5.71286e-05,-2.10539e-07,0
