ch1,ch2,ch3,ch4,ch5,ch6,ch7,ch8,class
-5.98673e-05,-7.5238e-06,-4.91744e-05,-0.000270485,9.29523e-05,6.59786e-06,-3.60694e-05,1.45558e-06,0
-4.62126e-05,-4.74434e-06,-3.58246e-05,-1.21455e-05,-6.76648e-05,-1.46352e-05,-5.87499e-05,2.05602e-06,0
-2.74458e-05,3.73297e-06,-1.28778e-05,0.000160487,-0.000175071,-3.95582e-05,-7.97028e-05,1.83741e-06,0
-1.52678e-05,1.25024e-05,1.25515e-05,0.000304783,-0.000213026,-3.93224e-05,-8.82203e-05,1.89733e-06,0
-1.10939e-05,1.994e-05,3.3576e-05,0.000452757,-0.000255271,-1.35305e-05,-7.95877e-05,2.91167e-06,0
-1.05696e-05,2.63231e-05,4.69052e-05,0.000547544,-0.00028533,3.86424e-07,-6.17526e-05,6.37846e-06,0
-1.40762e-05,2.7149e-05,4.8003e-05,0.00053524,-0.000220126,-8.14693e-06,-4.1792e-05,1.6732e-05,0
-2.06509e-05,2.06891e-05,3.76933e-05,0.000444313,-6.72792e-07,-1.86503e-05,-2.2077e-05,3.18031e-05,0
-2.55831e-05,1.41197e-05,2.62009e-05,0.000320945,0.000272075,-1.63044e-05,-2.61073e-06,4.16029e-05,0
-2.66119e-05,1.32123e-05,2.06713e-05,0.000198363,0.000419108,-1.00015e-05,1.41555e-05,4.18943e-05,0
-2.53577e-05,1.6639e-05,1.84297e-05,0.000110382,0.000372139,-7.12147e-06,2.58024e-05,3.23847e-05,0
-2.14711e-05,2.01242e-05,1.62184e-05,6.82209e-05,0.000199219,-5.6101e-06,2.99676e-05,1.23629e-05,0
-1.46779e-05,2.2012e-05,1.45378e-05,6.13669e-05,2.73521e-06,7.87387e-07,2.94165e-05,-1.17489e-05,0
-1.14185e-05,2.21562e-05,1.2894e-05,9.35789e-05,-9.91376e-05,5.88198e-06,2.90013e-05,-3.1982e-05,0
-1.63149e-05,1.89897e-05,6.0774e-06,0.000154592,-7.75139e-05,5.74905e-07,3.07782e-05,-4.42913e-05,0
-2.57938e-05,1.32312e-05,-6.63857e-06,0.000212235,-1.94809e-05,-1.17129e-05,3.70884e-05,-4.6821e-05,0
-3.25457e-05,7.64218e-06,-1.69227e-05,0.000234081,-9.05299e-06,-2.02906e-05,4.57956e-05,-4.28878e-05,0
-3.49696e-05,2.11769e-06,-2.08663e-05,0.0002251,-1.3269e-05,-2.51003e-05,4.73726e-05,-3.72194e-05,0
-3.4895e-05,-1.98574e-06,-2.13465e-05,0.0001814,-1.98218e-05,-2.63718e-05,3.49047e-05,-3.0071e-05,0
-3.2916e-05,-1.94847e-06,-1.89256e-05,3.71095e-05,-7.39102e-05,-2.59333e-05,1.77049e-05,-2.17977e-05,0
-3.14702e-05,-8.79993e-08,-1.48636e-05,-0.000209379,-0.000149418,-2.61889e-05,9.50524e-06,-1.40812e-05,0
-2.99495e-05,1.9412e-06,-1.35923e-05,-0.000464765,-0.000203715,-2.74062e-05,1.04598e-05,-8.7462e-06,0
-2.84363e-05,4.58281e-06,-1.73993e-05,-0.000610014,-0.000197479,-2.59309e-05,1.94958e-05,-5.2849e-06,0
-2.75604e-05,6.20423e-06,-2.17737e-05,-0.000550029,-0.000102916,-1.45184e-05,3.74684e-05,-2.02869e-06,0
-2.28084e-05,6.04022e-06,-1.8077e-05,-0.000324935,7.83458e-05,5.64535e-06,6.46211e-05,1.69723e-06,0
-1.46318e-05,5.12217e-06,-6.32617e-06,-5.37188e-05,0.000275211,2.29282e-05,0.00010506,6.66194e-06,0
-8.05604e-06,5.25689e-06,8.07713e-06,0.00016874,0.000387934,2.85382e-05,0.000145757,1.09292e-05,0
-7.28323e-06,6.4853e-06,1.61834e-05,0.000232968,0.000357195,2.20258e-05,0.000176049,1.21183e-05,0
-1.07345e-05,7.59153e-06,1.22416e-05,0.000140288,0.000233387,9.46332e-06,0.00019953,1.00487e-05,0
-1.44126e-05,7.48338e-06,2.07312e-06,1.85666e-05,0.00011277,-2.69602e-06,0.000198736,7.06619e-06,0
-1.77164e-05,5.81931e-06,-5.84515e-06,-4.42147e-05,4.25396e-05,-1.53976e-05,0.000148015,4.16949e-06,0
-2.26852e-05,2.75092e-06,-8.45748e-06,-5.44048e-05,1.59776e-05,-2.74319e-05,4.80757e-05,2.22765e-06,0
-2.77537e-05,-4.56359e-07,-8.29296e-06,-5.02314e-05,1.80583e-05,-3.37663e-05,-6.46893e-05,2.25888e-06,0
-2.76291e-05,-1.54663e-06,-8.46077e-06,-3.76299e-05,3.29841e-05,-2.96186e-05,-0.000147185,2.68829e-06,0
-2.23889e-05,-3.09376e-07,-9.98698e-06,-1.19243e-05,1.35137e-05,-1.87366e-05,-0.000177787,2.40317e-06,0
-1.81818e-05,7.33812e-07,-1.29012e-05,8.1277e-06,-6.9096e-05,-1.05504e-05,-0.000165061,2.04354e-06,0
-1.94712e-05,-3.89675e-08,-1.75291e-05,-2.9124e-06,-0.000143362,-8.51415e-06,-0.000141393,2.3733e-06,0
-2.27056e-05,-8.97731e-07,-2.19103e-05,-4.15544e-05,-0.000124709,-7.03054e-06,-0.000128203,3.03776e-06,0
-2.504e-05,-1.55596e-06,-2.37143e-05,-8.18924e-05,-4.33005e-05,-6.86252e-06,-0.000121248,3.75068e-06,0
-2.75556e-05,-3.72458e-06,-2.39003e-05,-0.000105161,1.6448e-05,-1.19524e-05,-0.000103979,3.37727e-06,0
-3.03929e-05,-7.76889e-06,-2.40986e-05,-0.000113434,-9.89435e-07,-2.04523e-05,-7.309e-05,2.20057e-06,0
-3.51149e-05,-9.56504e-06,-2.27479e-05,-0.000104463,-6.36725e-05,-3.56658e-05,-4.24803e-05,8.81914e-07,0
-4.25317e-05,-7.59745e-06,-1.93264e-05,-6.10694e-05,-4.95932e-05,-4.98735e-05,-2.19647e-05,2.5019e-07,0
-4.95087e-05,-5.61153e-06,-1.58336e-05,-2.47038e-07,6.90835e-05,-4.71773e-05,-7.57713e-06,1.08243e-06,0
-5.3997e-05,-4.88652e-06,-1.28995e-05,3.36904e-05,0.000153707,-4.695e-05,5.38767e-07,1.99405e-06,0
-5.49463e-05,-1.02304e-06,-7.55691e-06,3.62661e-05,0.000124208,-6.61313e-05,2.17589e-06,2.16889e-06,0
-5.07526e-05,7.35662e-06,-1.69289e-06,2.50648e-05,0.000105535,-5.36067e-05,8.24336e-06,3.24362e-06,0
-3.77622e-05,1.31415e-05,-1.71424e-06,2.11084e-06,0.000121408,1.4869e-05,2.15739e-05,2.94327e-06,0
-1.91913e-05,1.14503e-05,-9.53167e-06,-2.94843e-05,5.73583e-05,5.72148e-05,2.88264e-05,-6.6288e-07,0
-8.39309e-06,5.86999e-06,-1.9746e-05,-4.27466e-05,1.56056e-06,2.02438e-05,2.50281e-05,-2.33595e-06,0
-1.1476e-05,2.52376e-06,-2.4889e-05,-2.19922e-05,2.15287e-05,-2.84671e-05,1.64013e-05,-6.79213e-07,0
-2.12336e-05,9.51245e-07,-2.42053e-05,3.06811e-06,4.97774e-05,-2.60921e-05,8.22416e-06,1.49743e-06,0
-2.89061e-05,-7.55051e-08,-1.87767e-05,1.39754e-05,5.28396e-05,-7.37501e-06,4.0679e-06,2.45618e-06,0
-2.87283e-05,6.16102e-08,-1.27593e-05,1.42421e-05,5.97385e-05,-4.30255e-06,5.08613e-06,1.71279e-06,0
-2.34969e-05,2.99472e-06,-9.95163e-06,6.92687e-06,7.63686e-05,-6.90861e-06,8.5623e-06,6.8006e-07,0
-2.23336e-05,7.61429e-06,-9.75171e-06,-6.09209e-06,7.82508e-05,-8.22106e-07,3.16074e-06,6.79565e-07,0
-3.05462e-05,8.56694e-06,-1.08837e-05,-1.66883e-05,4.40467e-05,1.75269e-05,-1.42559e-05,1.34749e-06,0
-4.1536e-05,4.82011e-06,-1.30647e-05,-2.12624e-05,-7.89721e-06,4.84266e-05,-2.67911e-05,7.64038e-07,0
-4.50936e-05,3.72752e-07,-1.33768e-05,-2.73283e-05,-3.25894e-05,6.97934e-05,-2.08571e-05,-9.00398e-07,0
-4.28913e-05,-7.48786e-07,-1.02926e-05,-4.24046e-05,-4.60096e-05,4.90647e-05,-3.12683e-06,-1.86335e-06,0
-3.93795e-05,1.05952e-06,-7.69062e-06,-6.68884e-05,-9.33611e-05,2.30183e-08,1.56506e-05,-1.5717e-06,0
-3.78538e-05,4.26515e-06,-8.09628e-06,-9.38328e-05,-0.000213005,-4.81829e-05,3.21291e-05,3.21195e-07,0
-3.70025e-05,6.5633e-06,-1.05398e-05,-9.82146e-05,-0.000298032,-6.8106e-05,4.69445e-05,2.6111e-06,0
-3.28414e-05,7.12683e-06,-1.31383e-05,-3.02459e-05,-0.000112311,-4.52118e-05,5.98093e-05,3.95561e-06,0
-2.9845e-05,6.50548e-06,-1.50712e-05,0.000109878,0.000344403,-4.25981e-06,7.00723e-05,3.87597e-06,0
-3.5866e-05,5.0737e-06,-1.44701e-05,0.000272261,0.000694376,8.49929e-06,7.33264e-05,2.6318e-06,0
-4.35148e-05,4.62987e-06,-1.07584e-05,0.000401769,0.000664834,-9.46811e-06,6.71126e-05,3.08763e-06,0
-4.00537e-05,7.9508e-06,-6.14386e-06,0.000439488,0.00033535,-2.01749e-05,5.78563e-05,5.09233e-06,0
-2.62569e-05,1.52336e-05,-1.99185e-06,0.000399709,-5.15446e-05,-7.35655e-07,5.25588e-05,5.21689e-06,0
-1.3001e-05,2.44032e-05,2.67626e-06,0.000305178,-0.000273213,3.67348e-05,5.11826e-05,4.60458e-06,0
-1.04941e-05,2.98766e-05,1.77789e-06,0.000152276,-0.000296076,6.49765e-05,5.05642e-05,5.16706e-06,0
-1.64379e-05,2.82493e-05,-4.95755e-06,3.296e-05,-0.000180879,7.55916e-05,4.82611e-05,6.27264e-06,0
-1.69993e-05,2.70022e-05,-3.4181e-06,-7.39512e-05,7.79771e-05,7.92743e-05,4.12089e-05,6.87643e-06,0
-1.47811e-05,2.85269e-05,5.21727e-06,-0.000232795,0.000248344,6.31831e-05,3.21325e-05,5.30483e-06,0
-3.09686e-05,3.05621e-05,7.97176e-06,-0.000357171,0.00014296,4.50152e-05,2.62039e-05,3.32837e-06,0
-6.67488e-05,3.19997e-05,8.91095e-06,-0.000397959,-5.33778e-05,4.0788e-05,2.60492e-05,2.46401e-06,0
-9.93726e-05,3.50297e-05,1.46825e-05,-0.000386287,-0.000177573,1.34273e-06,2.64608e-05,1.02612e-06,0
-0.000107041,4.11248e-05,1.80877e-05,-0.000373533,-0.000190535,-7.44401e-05,1.30257e-05,1.2673e-06,0
-9.47703e-05,4.38464e-05,1.4729e-05,-0.00034854,-0.000144396,-0.000118227,-1.05829e-05,3.63726e-06,0
-8.39017e-05,4.21551e-05,1.14358e-05,-0.000278653,-8.038e-05,-8.79422e-05,-2.45193e-05,5.83407e-06,0
-6.57032e-05,3.89931e-05,1.19642e-05,-0.000198369,-4.1673e-05,-4.12213e-05,-1.94003e-05,7.18451e-06,0
-1.33009e-05,3.75193e-05,1.02309e-05,-0.000159671,-2.97683e-05,-2.62358e-05,-2.70787e-06,7.36835e-06,0
5.46176e-05,3.67048e-05,3.06319e-06,-0.000161992,-2.59868e-05,-2.24338e-05,1.14154e-05,6.43681e-06,0
8.37895e-05,3.39719e-05,-6.31994e-06,-0.000180103,-2.77841e-05,-2.10948e-05,1.73828e-05,4.9415e-06,0
6.00595e-05,3.04141e-05,-1.4927e-05,-0.000212243,-5.85007e-05,-2.70695e-05,1.97397e-05,2.99324e-06,0
1.92974e-05,2.69202e-05,-2.1123e-05,-0.000254934,-0.000112664,-3.34136e-05,2.24668e-05,3.64831e-07,0
-3.63212e-06,2.46822e-05,-2.39633e-05,-0.000254157,-0.000125938,-2.70478e-05,2.52725e-05,-1.00216e-06,0
-3.00723e-06,2.41496e-05,-2.36022e-05,-0.000173484,-6.70592e-05,-1.15702e-05,2.99274e-05,-2.74605e-07,0
4.73659e-06,2.45184e-05,-1.94029e-05,-3.59874e-05,2.32967e-05,-3.26725e-06,3.74085e-05,8.11928e-07,0
1.46599e-06,2.46466e-05,-1.17279e-05,0.000150318,7.53666e-05,9.24363e-07,4.50599e-05,5.08769e-07,0
-1.58095e-05,2.48056e-05,-4.15012e-06,0.000371674,0.000108842,6.25705e-06,4.92548e-05,3.51846e-08,0
-3.66214e-05,2.4649e-05,1.84029e-06,0.000552264,0.000167788,-9.08289e-06,5.12742e-05,8.72699e-07,0
-5.90781e-05,2.54503e-05,6.99766e-06,0.000572391,0.000238589,-4.45775e-05,5.37637e-05,1.23589e-06,0
-8.7825e-05,2.59121e-05,7.74102e-06,0.000410308,0.00022885,-6.99803e-05,5.63947e-05,-1.86237e-07,0
-0.000107028,2.31849e-05,2.85706e-06,0.00023719,0.000124913,-7.47689e-05,5.85529e-05,-1.76718e-06,0
-9.56736e-05,2.10239e-05,-1.98574e-06,0.000205182,3.97053e-05,-6.63739e-05,6.01093e-05,-2.83729e-06,0
-6.78681e-05,2.23525e-05,-2.92658e-06,0.000276293,4.01924e-05,-4.8424e-05,6.37338e-05,-3.39935e-06,0
-4.93449e-05,2.21488e-05,-2.4793e-06,0.000314443,2.52883e-05,9.41557e-06,6.90625e-05,-3.77556e-06,0
-2.6431e-05,1.97731e-05,-6.40905e-06,0.000230265,-3.42864e-05,0.000100485,6.74662e-05,-3.78218e-06,0
1.71503e-05,1.95278e-05,-1.3334e-05,3.14694e-05,-7.52723e-05,0.000128258,5.63983e-05,-4.16642e-06,0
3.19076e-05,1.74899e-05,-1.83657e-05,-0.000171455,-0.000124799,6.30525e-05,4.19613e-05,-5.57478e-06,0
1.38652e-06,1.15184e-05,-2.30606e-05,-0.000284325,-0.000172287,-4.72759e-06,2.76039e-05,-6.01968e-06,0
-2.66717e-05,6.20724e-06,-2.62155e-05,-0.000317228,-0.000184845,-2.80291e-05,1.11447e-05,-4.81957e-06,0
-3.73578e-05,2.40995e-06,-2.73061e-05,-0.000251726,-0.000191228,-3.8692e-05,-3.887e-06,-2.67236e-06,0
-3.58363e-05,3.32834e-06,-2.52704e-05,-0.000123956,-0.000201318,-4.59626e-05,-1.06255e-05,-2.21388e-06,0
-3.17866e-05,1.38731e-05,-1.30866e-05,2.24494e-05,-0.000157157,-4.0064e-05,-9.98677e-06,-2.75031e-06,0
-3.14231e-05,2.45187e-05,2.02783e-06,0.000113231,-3.38445e-05,-2.17779e-05,-9.86467e-06,-2.2164e-06,0
-3.83236e-05,2.56194e-05,8.91469e-06,9.17828e-05,9.87656e-05,5.50364e-06,-1.15116e-05,-5.5915e-07,0
-4.47896e-05,2.07462e-05,8.88404e-06,1.79253e-05,0.000187646,2.14929e-05,-6.74052e-06,7.81596e-07,0
-4.23527e-05,1.61771e-05,5.0556e-06,-4.03234e-05,0.000217766,1.23212e-05,-2.68736e-06,1.05368e-06,0
-2.91245e-05,1.49748e-05,-1.68467e-06,-3.6098e-05,0.000195899,-2.14628e-06,-8.14162e-06,8.04859e-07,0
-1.28478e-05,1.49972e-05,-8.60057e-06,1.25909e-05,0.000151879,-8.27525e-06,-1.55667e-05,-7.63641e-07,0
-5.39315e-06,1.48959e-05,-1.15475e-05,6.11125e-05,9.69981e-05,-5.3915e-06,-1.46828e-05,-3.54767e-06,0
-8.65028e-06,1.31715e-05,-1.21348e-05,6.68533e-05,4.93093e-05,-2.07888e-06,-8.0868e-06,-5.74631e-06,0
-2.12726e-05,9.03348e-06,-1.53003e-05,3.13872e-05,1.83225e-05,-5.60979e-06,-8.6443e-07,-5.47292e-06,0
-3.62169e-05,4.46639e-06,-2.17144e-05,-9.81041e-06,5.60597e-06,-1.12934e-05,6.14941e-06,-4.71911e-06,0
-4.84361e-05,1.69253e-06,-2.67071e-05,-1.4465e-05,8.29563e-06,-1.60348e-05,1.07367e-05,-4.6375e-06,0
-5.44256e-05,2.04879e-06,-2.60272e-05,7.22528e-07,3.08966e-05,-2.04069e-05,1.07514e-05,-3.72768e-06,0
-5.58218e-05,4.96442e-06,-1.93125e-05,-1.18824e-05,9.76174e-05,-1.72065e-05,6.84151e-06,-2.68747e-07,0
-5.09304e-05,7.29515e-06,-9.71635e-06,-6.68333e-05,0.000193296,-3.02361e-06,-2.85664e-06,5.10811e-06,0
-3.92694e-05,5.42406e-06,1.61548e-08,-0.000101507,0.000242307,1.13391e-05,-3.75843e-05,9.01432e-06,0
-2.6343e-05,3.2539e-06,1.03344e-05,-6.02946e-05,0.000232285,2.01405e-05,-0.00010416,1.03178e-05,0
-3.02069e-05,3.18289e-06,1.75245e-05,1.26894e-05,0.0002004,1.12282e-05,-0.000147957,1.0201e-05,0
-5.17154e-05,1.39487e-06,1.4757e-05,4.3182e-05,0.000159606,-1.24222e-05,-0.000118676,1.04991e-05,0
-6.61836e-05,-5.45202e-07,4.97011e-06,1.07595e-06,9.91644e-05,-2.51376e-05,-5.05709e-05,1.09849e-05,0
-6.03286e-05,-3.2396e-07,-3.12431e-06,-6.12176e-05,1.79589e-05,-1.74893e-05,-7.73856e-06,9.51984e-06,0
-4.48664e-05,1.43558e-06,-6.74987e-06,-7.85575e-05,-7.17047e-05,-3.08067e-06,4.02417e-06,5.5791e-06,0
-3.74797e-05,4.67042e-06,-8.17417e-06,-4.03959e-05,-0.000118922,3.79205e-06,1.7431e-05,1.57527e-06,0
-3.66712e-05,7.87948e-06,-9.90321e-06,2.81617e-05,-8.26968e-05,4.48788e-06,3.358e-05,-2.80955e-06,0
-3.43549e-05,8.83944e-06,-1.09827e-05,9.89508e-05,-3.48985e-05,3.86442e-06,4.27918e-05,-6.63615e-06,0
-3.14276e-05,7.3038e-06,-1.02473e-05,0.000155509,-3.69023e-05,-4.02989e-07,4.43263e-05,-7.62815e-06,0
-2.99313e-05,8.49626e-06,-7.90658e-06,0.000176894,-4.86217e-05,-3.85691e-06,4.63547e-05,-6.95901e-06,0
-2.82131e-05,1.34784e-05,-5.60704e-06,0.000155075,-9.34294e-06,-3.59764e-06,5.15707e-05,-4.18521e-06,0
-2.34595e-05,1.86383e-05,-5.62479e-06,8.88801e-05,6.52067e-05,-2.61443e-07,5.7777e-05,-6.42531e-07,0
-1.7312e-05,2.01127e-05,-7.94682e-06,1.19642e-06,0.000127429,2.67312e-06,6.36443e-05,2.42341e-06,0
-1.38589e-05,1.76175e-05,-1.14255e-05,-5.49851e-05,0.000138861,8.04977e-06,6.27046e-05,3.66129e-06,0
-1.59111e-05,1.40653e-05,-1.49668e-05,-7.54485e-05,9.51422e-05,1.45164e-05,4.91687e-05,3.06411e-06,0
-2.35739e-05,1.20654e-05,-1.80296e-05,-9.10662e-05,-4.64918e-06,5.8052e-06,2.85442e-05,2.75053e-06,0
-3.27003e-05,1.16142e-05,-2.02387e-05,-0.000111361,-0.000112235,-2.49514e-05,1.82386e-05,3.18617e-06,0
-4.0196e-05,1.33829e-05,-2.02931e-05,-0.000123209,-0.000146325,-6.2124e-05,2.38106e-05,1.50773e-06,0
-4.45061e-05,1.92278e-05,-1.59407e-05,-0.000143223,-0.000127832,-7.91461e-05,3.63949e-05,-1.08327e-06,0
-4.59646e-05,2.55883e-05,-8.53587e-06,-0.000174823,-0.000120922,-6.91595e-05,4.41804e-05,-5.89931e-07,0
-4.44646e-05,2.71175e-05,-3.41688e-06,-0.000192821,-9.70899e-05,-4.5849e-05,4.59539e-05,1.3985e-06,0
-4.09636e-05,2.19832e-05,-2.3739e-06,-0.000168514,2.62145e-05,-2.78399e-05,4.26615e-05,2.3887e-06,0
-3.48096e-05,1.38017e-05,-2.54675e-06,-0.000100295,0.000178918,-2.14678e-05,3.24034e-05,1.61165e-06,0
-2.77782e-05,7.12093e-06,-1.463e-06,-1.3849e-05,0.000190214,-2.47582e-05,1.38453e-05,3.30045e-07,0
-2.34764e-05,5.9585e-06,2.53677e-07,4.3602e-05,2.90693e-05,-2.65741e-05,-3.3577e-06,-4.13347e-07,0
-2.06262e-05,9.33841e-06,1.02909e-06,4.5415e-05,-0.000157669,-1.9682e-05,-9.56132e-06,8.04695e-07,0
-1.41157e-05,1.36358e-05,1.01123e-06,1.73242e-05,-0.000251925,-1.21407e-05,-4.85207e-06,2.91941e-06,0
-3.30625e-06,1.68943e-05,-2.85024e-07,-9.63685e-06,-0.000261295,-1.64503e-05,3.50018e-06,4.24693e-06,0
5.34896e-06,1.77168e-05,-4.7213e-06,-1.32845e-05,-0.000226173,-2.93769e-05,8.97427e-06,3.8856e-06,0
2.77896e-06,1.52807e-05,-1.08507e-05,1.18796e-05,-0.000149854,-1.05652e-05,1.02373e-05,2.93826e-06,0
-1.2282e-05,1.15357e-05,-1.52872e-05,5.16408e-05,-2.53292e-05,2.31512e-05,8.14904e-06,3.23326e-06,0
-2.48852e-05,1.24953e-05,-1.66896e-05,9.76907e-05,0.000109641,2.1219e-05,6.1816e-06,5.50383e-06,0
-2.27043e-05,1.88586e-05,-1.72205e-05,0.000140844,0.000162671,6.32361e-06,4.21259e-06,8.54419e-06,0
-1.735e-05,2.28379e-05,-2.07734e-05,0.000180299,0.000134029,-1.59558e-05,3.91795e-06,9.068e-06,0
-2.27167e-05,2.3925e-05,-2.728e-05,0.000214789,7.66451e-05,-1.16467e-05,4.62685e-06,7.06069e-06,0
-3.32184e-05,2.36611e-05,-2.99341e-05,0.000202222,1.87115e-05,3.56516e-05,3.61832e-06,4.52374e-06,0
-3.38857e-05,2.86579e-05,-1.85046e-05,0.000133306,1.74456e-05,6.01353e-05,1.85635e-06,2.83346e-06,0
-2.13185e-05,4.17137e-05,4.20929e-06,2.06605e-05,0.000128952,4.69692e-05,-2.07443e-08,2.92957e-06,0
-9.40964e-06,4.98459e-05,1.99602e-05,-0.000115524,0.000355873,2.03612e-05,-5.39386e-07,2.84952e-06,0
-1.05161e-05,4.57994e-05,1.74883e-05,-0.00021364,0.000471943,-3.39768e-06,-1.71432e-07,-2.71918e-07,0
-2.4916e-05,3.43777e-05,4.24465e-06,-0.000231506,0.000322265,-2.29453e-05,3.40925e-07,-5.61629e-06,0
-3.97321e-05,2.36986e-05,-6.708e-06,-0.000189027,5.48379e-05,-2.90884e-05,2.19092e-06,-1.07429e-05,0
-4.78361e-05,1.68546e-05,-1.08253e-05,-0.0001242,-0.000130609,-2.66173e-05,5.64517e-06,-1.23062e-05,0
-5.22364e-05,1.08866e-05,-1.08771e-05,-6.39393e-05,-0.000187378,-2.60972e-05,1.23482e-05,-8.96556e-06,0
-6.12364e-05,1.77675e-06,-1.01774e-05,-2.08627e-05,-0.000181314,-2.88417e-05,2.32424e-05,-3.76891e-06,0
-7.61659e-05,-8.3661e-06,-1.20988e-05,-1.72594e-05,-0.000152555,-3.52247e-05,3.47606e-05,1.01672e-07,0
-8.27857e-05,-1.48678e-05,-1.96551e-05,-8.90905e-05,-0.000106481,-3.88551e-05,4.0938e-05,1.78098e-06,0
-7.2986e-05,-1.45409e-05,-3.15573e-05,-0.000224379,-5.39821e-05,-3.00109e-05,3.97801e-05,2.07028e-06,0
-6.092e-05,-9.73413e-06,-4.19005e-05,-0.000335892,-3.61028e-05,-1.32863e-05,2.9172e-05,1.87232e-06,0
-5.8623e-05,-3.50209e-06,-4.5816e-05,-0.000343457,-5.8832e-05,-5.65011e-06,3.69306e-06,6.93386e-07,0
-5.85352e-05,1.8457e-06,-4.36363e-05,-0.000230121,-0.00010946,-9.25067e-06,-3.11676e-05,-1.73664e-07,0
-4.87112e-05,4.75817e-06,-3.78829e-05,-2.44831e-05,-0.000161718,-1.70588e-05,-5.2073e-05,1.96861e-06,0
-2.63487e-05,4.92912e-06,-3.09707e-05,0.000199513,-0.000137865,-1.99023e-05,-4.52151e-05,5.31297e-06,0
-4.51877e-06,3.80054e-06,-2.44211e-05,0.000335972,1.67986e-05,-1.81742e-05,-1.99221e-05,6.76801e-06,0
2.42975e-06,3.36347e-06,-1.84294e-05,0.000323866,0.000173559,-1.76999e-05,5.24965e-06,5.24447e-06,0
-5.01486e-06,4.14981e-06,-1.30366e-05,0.000259926,0.000179538,-1.94273e-05,2.10194e-05,2.59438e-06,0
-1.33323e-05,5.84443e-06,-9.85516e-06,0.000285604,5.94112e-05,-1.71159e-05,2.96326e-05,2.48774e-06,0
-1.69359e-05,8.72426e-06,-7.26103e-06,0.00036778,-7.82843e-05,-9.67478e-06,3.26134e-05,3.14548e-06,0
-1.63175e-05,1.49689e-05,-1.6559e-06,0.000371717,-0.000139281,2.71454e-06,3.321e-05,2.67044e-06,0
-1.26182e-05,2.15628e-05,6.52786e-06,0.000232742,-7.97695e-05,1.25071e-05,3.3155e-05,-9.73006e-08,0
-1.11655e-05,2.52305e-05,1.38134e-05,3.74696e-05,6.15634e-05,1.13812e-05,2.77852e-05,-2.4153e-06,0
-1.36751e-05,2.65266e-05,1.66509e-05,-9.68331e-05,0.000232183,1.21684e-06,2.20284e-05,-1.97663e-06,0
-1.52821e-05,2.69409e-05,1.68121e-05,-0.000153467,0.000362982,-7.99207e-06,2.28104e-05,-1.11879e-06,0
-1.49224e-05,2.81541e-05,1.71454e-05,-0.0001478,0.000326832,-1.15468e-05,2.54011e-05,7.98451e-07,0
-1.54365e-05,2.86222e-05,1.37833e-05,-0.000115597,0.000173913,-1.51531e-05,2.56297e-05,3.98964e-06,0
-1.74265e-05,2.4493e-05,4.16587e-06,-8.52372e-05,4.39605e-05,-1.97433e-05,2.28321e-05,6.07757e-06,0
-2.05514e-05,1.87913e-05,-4.17203e-06,-8.38681e-05,-3.50721e-05,-2.1277e-05,1.79619e-05,6.22468e-06,0
-2.21149e-05,1.7746e-05,-2.95408e-06,-0.000121427,-8.40563e-05,-1.60653e-05,1.10854e-05,5.69876e-06,0
-2.44914e-05,2.02803e-05,1.82005e-06,-0.000191986,-0.000120681,-1.32214e-05,-1.14898e-05,4.28086e-06,0
-3.00011e-05,2.10044e-05,-8.97032e-07,-0.000257384,-0.000142247,-2.3722e-05,-5.80516e-05,2.71724e-06,0
-3.68733e-05,1.88495e-05,-1.16792e-05,-0.000252144,-0.000155366,-4.43473e-05,-9.8948e-05,1.22037e-06,0
-4.28082e-05,1.60712e-05,-2.17675e-05,-0.000154821,-0.0001576,-6.30516e-05,-9.83014e-05,-3.38607e-07,0
-4.70805e-05,1.42248e-05,-2.56906e-05,-8.52957e-06,-0.000110963,-7.0778e-05,-5.55354e-05,-1.9478e-06,0
-4.7146e-05,1.39719e-05,-2.3712e-05,0.000111192,9.54531e-06,-6.15405e-05,1.58811e-06,-2.31853e-06,0
-3.82451e-05,1.56681e-05,-1.75896e-05,0.000163288,0.000139269,-3.69743e-05,4.90026e-05,-5.43072e-07,0
-2.29891e-05,1.87456e-05,-1.14875e-05,0.000146749,0.00017141,-9.44466e-06,7.7351e-05,3.51642e-06,0
-1.26074e-05,2.09417e-05,-8.72452e-06,8.7398e-05,8.5563e-05,4.25298e-06,8.16119e-05,8.64673e-06,0
-1.2853e-05,2.09645e-05,-1.0402e-05,7.75292e-06,-2.07867e-05,3.70318e-06,6.25705e-05,1.15025e-05,0
-1.59309e-05,2.03938e-05,-1.26758e-05,-5.0415e-05,-5.92775e-05,2.37329e-05,3.59342e-05,1.08011e-05,0
-1.73542e-05,2.04707e-05,-1.09705e-05,-6.24432e-05,-4.61148e-05,7.76537e-05,2.13159e-05,6.6767e-06,0
-2.24301e-05,1.77098e-05,-8.62704e-06,-5.27526e-05,-5.2456e-05,0.000101362,2.12648e-05,5.59191e-07,0
-2.87987e-05,1.23081e-05,-1.24287e-05,-4.86e-05,-0.000100584,6.10782e-05,2.72929e-05,-4.12714e-06,0
-2.73339e-05,8.64321e-06,-1.97086e-05,-4.33164e-05,-0.000116564,1.18001e-05,3.59046e-05,-5.45002e-06,0
-1.84284e-05,7.00662e-06,-2.34998e-05,-2.33071e-05,-2.55768e-05,-7.24245e-07,4.47626e-05,-4.61238e-06,0
-1.13197e-05,7.6695e-06,-2.42458e-05,-9.30397e-06,0.000115779,1.20168e-05,4.97863e-05,-3.42199e-06,0
-1.18318e-05,9.43597e-06,-2.63228e-05,-2.39893e-05,0.000199845,8.14369e-06,4.78872e-05,-1.80204e-06,0
-1.91761e-05,1.03289e-05,-2.68522e-05,-3.39139e-05,0.000180223,-3.33738e-05,3.94807e-05,-1.80335e-06,0
-2.83467e-05,1.08211e-05,-2.08211e-05,-5.30098e-05,6.24557e-05,-7.29574e-05,3.02347e-05,-3.97473e-06,0
-3.62286e-05,1.16712e-05,-1.0349e-05,-0.00010807,-7.06496e-05,-3.51929e-05,2.24473e-05,-4.72175e-06,0
-5.03154e-05,1.18902e-05,5.47952e-08,-0.000123248,-0.000116324,3.18485e-05,1.68719e-05,-5.36787e-06,0
-7.41513e-05,9.99043e-06,3.97857e-06,-8.61974e-05,-8.42613e-05,2.58621e-05,1.41856e-05,-6.47832e-06,0
-9.80269e-05,7.38257e-06,7.75786e-08,-1.51309e-05,-4.68369e-05,-2.69208e-05,1.64985e-05,-7.37603e-06,0
-0.000104388,5.1465e-06,-6.96603e-06,7.9521e-05,-1.32374e-05,-5.52892e-05,2.26485e-05,-7.76103e-06,0
-8.81135e-05,4.77605e-06,-1.19245e-05,0.000145162,3.14723e-05,-3.47011e-05,2.44557e-05,-6.93358e-06,0
-6.76583e-05,5.66193e-06,-1.07586e-05,0.000189867,0.000106461,-1.54556e-05,2.11459e-05,-4.67499e-06,0
-5.35129e-05,4.71056e-06,-6.47102e-06,0.000199174,0.000188434,-2.1504e-05,1.38906e-05,-2.95774e-06,0
-3.33623e-05,2.61763e-06,-4.64419e-06,0.000130068,0.000209361,-2.3774e-05,-7.49502e-07,-2.21854e-06,0
2.68631e-06,6.6778e-07,-8.19604e-06,1.41624e-05,0.000122128,-2.06021e-05,-1.87811e-05,-1.73294e-06,0
3.96444e-05,2.05272e-08,-1.37207e-05,-7.52778e-05,-3.16343e-05,-1.94923e-05,-2.7089e-05,-2.21188e-06,0
5.09087e-05,4.92909e-07,-1.71221e-05,-9.20613e-05,-0.000160497,-1.84874e-05,-1.95463e-05,-2.80247e-06,0
3.32762e-05,-2.77543e-07,-1.91502e-05,-4.12528e-05,-0.000224135,-1.38062e-05,-9.85207e-07,-2.5367e-06,0
7.10136e-06,-3.1075e-06,-2.11058e-05,5.0234e-05,-0.000232039,-9.73306e-06,1.90006e-05,-1.45042e-06,0
-1.16718e-05,-7.51545e-06,-2.24775e-05,0.000141849,-0.000184088,-7.68168e-06,2.7045e-05,-1.80728e-07,0
-2.25907e-05,-1.15026e-05,-2.33832e-05,0.000210909,-6.79869e-05,-9.51991e-06,1.45229e-05,1.66353e-06,0
-3.03315e-05,-1.25874e-05,-2.59332e-05,0.000252994,6.39722e-05,-1.48675e-05,-7.24065e-06,3.32868e-06,0
-3.42958e-05,-9.69474e-06,-2.92037e-05,0.000258328,0.00015087,-1.79423e-05,-1.4422e-05,5.07958e-06,0
-3.34744e-05,-4.77028e-06,-2.93857e-05,0.000182899,0.000187217,-1.27954e-05,3.24641e-06,9.37623e-06,0
-2.87493e-05,-1.41237e-06,-2.61253e-05,1.60745e-05,0.000154692,-1.99472e-06,4.10879e-05,1.63439e-05,0
-2.60675e-05,-2.24099e-06,-2.32021e-05,-0.000155694,1.13281e-05,2.62396e-06,9.24967e-05,2.06537e-05,0
-3.14813e-05,-3.78519e-06,-1.67646e-05,-0.000280037,-0.00013804,-3.32405e-07,0.000148266,1.93408e-05,0
-3.9317e-05,4.59263e-07,-4.96204e-06,-0.00037379,-0.000159868,2.73935e-06,0.000190602,2.09451e-05,0
-3.95637e-05,1.00757e-05,7.58546e-06,-0.000341326,-8.11183e-05,1.78455e-05,0.000200956,3.1425e-05,0
-2.5463e-05,2.2574e-05,2.25225e-05,-9.55754e-05,3.19938e-05,4.53173e-05,0.000165022,3.84428e-05,0
-1.64063e-05,3.09455e-05,3.14613e-05,0.000145818,9.73417e-05,5.87076e-05,8.99618e-05,3.59304e-05,0
-2.86348e-05,3.02173e-05,3.04969e-05,0.00018288,6.05126e-05,3.05634e-05,-8.71889e-06,2.55841e-05,0
-4.12131e-05,2.48013e-05,2.68329e-05,5.93227e-05,-4.07825e-05,-2.05726e-05,-0.000107505,5.41017e-06,0
-3.93498e-05,2.14597e-05,2.30294e-05,-8.38088e-05,-0.000152984,-6.47402e-05,-0.000169073,-2.05804e-05,0
-2.77625e-05,2.37097e-05,2.18605e-05,-0.000111477,-0.000204635,-7.203e-05,-0.000181496,-4.36242e-05,0
-2.14371e-05,2.45292e-05,1.82868e-05,-4.72649e-05,-0.000123372,-3.753e-05,-0.000156548,-5.57599e-05,0
-2.21036e-05,2.10474e-05,1.31015e-05,2.33293e-05,8.6274e-05,1.00913e-05,-0.000114422,-5.62001e-05,0
-2.37086e-05,1.81961e-05,9.11582e-06,4.72489e-05,0.000303988,3.70029e-05,-6.20749e-05,-4.93387e-05,0
-2.28616e-05,1.8008e-05,7.26058e-06,6.62019e-05,0.000413602,3.90753e-05,-3.26553e-06,-4.12267e-05,0
-2.071e-05,1.84887e-05,5.98945e-06,9.20753e-05,0.000380348,2.99947e-05,5.35633e-05,-3.26509e-05,0
-2.41477e-05,1.89366e-05,3.70646e-06,7.69882e-05,0.000230732,1.78278e-05,9.80515e-05,-2.23751e-05,0
-3.56241e-05,1.84243e-05,9.27364e-07,3.95665e-05,3.73822e-05,3.194e-06,0.000127875,-1.30197e-05,0
-5.07822e-05,1.47038e-05,-4.51879e-06,3.76884e-05,-7.99503e-05,-1.37211e-05,0.000142976,-6.26225e-06,0
-6.05802e-05,9.96958e-06,-1.18792e-05,8.53037e-05,-3.30372e-05,-2.57784e-05,0.000135148,-1.07037e-06,0
-5.72729e-05,7.65269e-06,-1.78846e-05,0.000115179,9.41447e-05,-2.5785e-05,0.000107015,2.51225e-06,0
-3.81531e-05,7.84774e-06,-1.89531e-05,7.25639e-05,0.000123844,-1.25021e-05,6.91144e-05,4.28225e-06,0
-1.82875e-05,8.68906e-06,-1.76958e-05,-1.10297e-05,2.10643e-05,4.89635e-06,2.97914e-05,6.01869e-06,0
-1.28269e-05,9.81728e-06,-1.65539e-05,-4.48643e-05,-8.39549e-05,1.92297e-05,-1.12557e-05,8.59867e-06,0
-2.13774e-05,1.12872e-05,-1.51615e-05,-3.10205e-05,-0.000116695,2.84464e-05,-4.87953e-05,1.08284e-05,0
-3.65755e-05,1.43484e-05,-1.26718e-05,-1.93573e-05,-8.50623e-05,3.03439e-05,-8.40211e-05,1.17155e-05,0
-5.58399e-05,1.76104e-05,-1.32811e-05,1.56864e-05,-1.46921e-05,1.66393e-05,-0.000140948,1.09977e-05,0
-7.19203e-05,1.8375e-05,-1.92942e-05,0.000113458,6.07245e-05,-1.49634e-05,-0.000222001,8.8814e-06,0
-7.63567e-05,1.63033e-05,-2.72535e-05,0.000188212,0.000109335,-6.03362e-05,-0.000264556,6.10865e-06,0
-7.2448e-05,1.25835e-05,-2.64884e-05,0.000182808,0.000105098,-9.11363e-05,-0.000223885,4.12439e-06,0
-6.90968e-05,1.13812e-05,-1.09645e-05,0.000107846,4.91086e-05,-7.43029e-05,-0.000128969,3.31973e-06,0
-5.85055e-05,1.58974e-05,1.10452e-05,-3.60978e-05,-3.04033e-05,-5.06186e-05,-3.23314e-05,3.08795e-06,0
-3.30819e-05,2.04817e-05,2.35289e-05,-0.000230711,-0.000118658,-7.34185e-05,3.93349e-05,4.08483e-06,0
-2.32488e-06,1.86719e-05,1.2598e-05,-0.000389021,-0.000152099,-0.000106486,7.39774e-05,4.42345e-06,0
3.15826e-05,1.55923e-05,-8.96461e-06,-0.000415758,-0.000152155,-9.39014e-05,8.1319e-05,3.92612e-06,0
4.96618e-05,1.8046e-05,-1.97754e-05,-0.000321903,-0.000162653,-5.30608e-05,7.87356e-05,3.8485e-06,0
3.02366e-05,2.06089e-05,-1.90512e-05,-0.000185557,-0.000106479,-4.83815e-05,6.54412e-05,3.40053e-06,0
-2.38552e-06,1.83658e-05,-1.48964e-05,-9.83056e-05,1.33227e-05,-7.79319e-05,4.95941e-05,3.12215e-06,0
-1.87178e-05,1.57968e-05,-1.2276e-05,-6.26877e-05,0.000131268,-0.000103255,3.52183e-05,3.66236e-06,0
-2.0581e-05,1.67068e-05,-8.15824e-06,-4.43406e-05,0.00022004,-0.000101197,2.80526e-05,4.28314e-06,0
-2.22533e-05,1.93025e-05,-3.26529e-06,-2.59182e-05,0.000281144,-1.78873e-05,2.21692e-05,5.32347e-06,0
-3.12388e-05,1.89626e-05,-5.83241e-07,-1.90196e-05,0.000301939,0.000119869,1.88067e-05,5.83825e-06,0
-4.2034e-05,1.48481e-05,1.49744e-07,-2.85235e-05,0.000302864,0.000197445,1.75684e-05,4.36292e-06,0
-4.71912e-05,9.59894e-06,-2.90779e-06,-4.66382e-05,0.000308463,0.000168553,1.27791e-05,2.68553e-06,0
-4.14721e-05,5.57561e-06,-9.90017e-06,-6.89832e-05,0.000311355,9.68808e-05,5.521e-06,2.71007e-06,0
-3.03984e-05,3.8202e-06,-1.76939e-05,-8.57912e-05,0.000247105,5.4257e-05,1.02055e-06,4.28429e-06,0
-3.02168e-05,2.60986e-06,-2.3588e-05,-0.000105752,4.66858e-05,3.95896e-05,4.43422e-06,5.24251e-06,0
-4.81352e-05,3.74111e-07,-2.78555e-05,-0.000139442,-0.000189038,2.50799e-05,1.13098e-05,3.45711e-06,0
-6.72684e-05,-4.0298e-07,-2.85128e-05,-0.000159362,-0.000232885,1.21934e-05,1.72922e-05,7.24805e-07,0
-6.84023e-05,3.33716e-06,-2.37565e-05,-0.000105268,1.1391e-05,1.2528e-05,1.87682e-05,5.68075e-07,0
-5.21535e-05,1.05778e-05,-1.50597e-05,2.47748e-05,0.000321215,1.44399e-05,1.65764e-05,2.35791e-06,0
-3.25283e-05,1.50042e-05,-8.78892e-06,0.000155844,0.00037101,-5.94533e-07,4.31363e-06,4.77298e-06,0
-2.1458e-05,1.24626e-05,-9.17007e-06,0.000221991,0.000108428,-3.64021e-05,-1.91701e-05,6.46052e-06,0
-1.92555e-05,6.11346e-06,-1.37878e-05,0.000232818,-0.000217439,-6.97907e-05,-3.77016e-05,5.62688e-06,0
-2.06752e-05,3.37034e-06,-1.52732e-05,0.000201859,-0.000401103,-7.48436e-05,-2.83165e-05,3.81657e-06,0
-2.10062e-05,6.74489e-06,-1.08806e-05,0.000126806,-0.000446651,-5.73791e-05,6.44085e-06,3.61213e-06,0
-2.06564e-05,1.16316e-05,-4.96879e-06,4.78963e-05,-0.000433824,-3.86164e-05,4.42207e-05,3.84232e-06,0
-2.38615e-05,1.43175e-05,-1.81698e-06,2.53249e-05,-0.000377652,-2.64854e-05,6.85628e-05,3.03046e-06,0
-3.03768e-05,1.43827e-05,-3.3547e-06,6.53776e-05,-0.000237866,-5.12111e-06,7.88627e-05,1.96919e-06,0
-4.0615e-05,1.34907e-05,-7.94831e-06,9.0937e-05,-4.82226e-05,2.40718e-05,7.69257e-05,1.6123e-06,0
-5.41389e-05,1.11393e-05,-1.07356e-05,2.76194e-05,5.73266e-05,2.00584e-05,6.25632e-05,1.86045e-06,0
-6.13665e-05,7.1907e-06,-1.09505e-05,-0.000131672,2.09476e-05,-1.05057e-05,2.93652e-05,2.21199e-06,0
-5.32058e-05,5.34559e-06,-9.67171e-06,-0.000286726,-7.91413e-05,-2.57241e-05,-6.77983e-06,2.78422e-06,0
-3.34759e-05,6.28664e-06,-7.8907e-06,-0.000301658,-0.000147164,-2.37743e-05,-1.89868e-05,1.69431e-06,0
-1.87578e-05,7.16685e-06,-6.86504e-06,-0.000188253,-0.000124413,-1.86032e-05,-9.37006e-06,5.55044e-07,0
-1.32644e-05,6.74633e-06,-4.98098e-06,-7.03378e-05,-4.34856e-05,-1.54322e-05,9.11513e-06,-1.00968e-06,0
-1.13575e-05,7.6408e-06,2.6626e-07,-9.48479e-06,4.53532e-05,-8.24263e-06,2.63973e-05,-3.68164e-06,0
-1.24424e-05,1.17003e-05,8.48396e-06,4.97402e-05,0.000118593,2.12373e-06,4.22002e-05,-3.83691e-06,0
-1.55467e-05,1.61017e-05,1.46228e-05,0.000121828,0.00015699,1.1737e-05,5.48274e-05,-1.78191e-06,0
-1.87097e-05,1.73799e-05,1.47795e-05,0.00015837,0.00013884,1.53877e-05,6.16947e-05,8.85211e-07,0
-2.43228e-05,1.49056e-05,8.41764e-06,0.000176196,8.0884e-05,1.05382e-05,5.8637e-05,2.15453e-06,0
-3.33215e-05,1.01296e-05,-2.60822e-08,0.00020146,2.92803e-05,-2.87395e-07,4.75706e-05,1.99746e-06,0
-4.37652e-05,4.751e-06,-7.45435e-06,0.000169808,1.64369e-05,-1.42542e-05,3.41842e-05,9.90397e-07,0
-5.46569e-05,2.53364e-08,-1.31558e-05,3.95406e-05,5.88368e-05,-2.74302e-05,2.4834e-05,8.29108e-07,0
-6.44037e-05,-2.09561e-06,-1.75432e-05,-3.37426e-05,0.000151251,-3.65508e-05,2.27749e-05,1.2746e-06,0
-7.30544e-05,-1.64697e-06,-2.02387e-05,0.000102423,0.000230459,-4.1473e-05,2.70904e-05,1.56796e-06,0
-7.83011e-05,-3.77373e-07,-1.96172e-05,0.000354211,0.000198294,-4.26259e-05,3.32535e-05,2.6516e-06,0
-7.74691e-05,1.91478e-06,-1.45008e-05,0.000519057,5.05126e-05,-3.70409e-05,3.49672e-05,3.76093e-06,0
-7.39455e-05,5.70298e-06,-6.49421e-06,0.000513868,-0.00011989,-3.00645e-05,2.95555e-05,4.41365e-06,0
-6.97814e-05,9.77089e-06,2.56449e-06,0.000370034,-0.000209898,-2.78438e-05,1.8217e-05,4.24942e-06,0
-5.8288e-05,1.48038e-05,1.47718e-05,0.000166057,-0.000193196,-3.0274e-05,6.40368e-06,4.25026e-06,0
-3.88549e-05,2.25877e-05,2.95684e-05,-5.58547e-05,-0.00010863,-3.43152e-05,8.65429e-07,4.43986e-06,0
-2.32605e-05,2.83707e-05,3.47214e-05,-0.000259038,-2.46179e-05,-4.51359e-05,4.24578e-06,3.28632e-06,0
-1.98286e-05,2.95491e-05,2.07238e-05,-0.000347851,-3.88362e-06,-5.14653e-05,1.14574e-05,2.23021e-06,0
-1.14879e-05,3.30131e-05,3.43112e-06,-0.000291744,-2.99001e-05,-3.16239e-05,1.54796e-05,3.10519e-06,0
1.41126e-05,3.89253e-05,-1.65263e-06,-0.00018685,-2.64481e-05,6.66035e-06,1.64506e-05,3.70338e-06,0
3.18822e-05,4.16196e-05,1.06612e-06,-0.000135651,1.55891e-05,3.04615e-05,1.73011e-05,2.72835e-06,0
2.24809e-05,4.06112e-05,4.49697e-06,-0.000134318,3.74423e-05,1.60833e-05,1.64874e-05,2.61219e-06,0
3.7579e-06,3.75134e-05,5.04877e-06,-0.000130096,2.43381e-05,-1.38283e-05,1.61543e-05,3.41035e-06,0
-8.84181e-06,3.4899e-05,2.04691e-06,-0.000105511,1.67558e-05,-4.3923e-05,1.69872e-05,2.31284e-06,0
-1.31578e-05,3.11305e-05,-3.3085e-06,-8.50738e-05,2.31002e-05,-2.67527e-05,1.66742e-05,4.00344e-07,0
-1.15331e-05,2.46495e-05,-1.10296e-05,-6.03164e-05,3.6681e-05,7.30566e-05,1.45821e-05,-6.30969e-07,0
-1.31638e-05,1.66759e-05,-1.86285e-05,-1.03278e-05,3.74955e-05,0.000132647,1.41322e-05,-5.15986e-07,0
-1.65513e-05,9.46385e-06,-2.26102e-05,4.33134e-05,2.44508e-05,8.37891e-05,1.82315e-05,4.93204e-07,0
-2.1467e-05,3.59545e-06,-2.55413e-05,4.4509e-05,2.07214e-05,2.69271e-06,2.41775e-05,1.8567e-06,0
-2.74818e-05,1.15038e-07,-2.81861e-05,-1.84681e-06,3.24415e-05,-4.02847e-05,3.12062e-05,1.79861e-06,0
-3.28826e-05,-6.45169e-07,-2.81249e-05,-4.52917e-05,4.33317e-05,-4.35157e-05,3.70016e-05,2.34739e-06,0
-3.6204e-05,-1.17551e-06,-2.69706e-05,-7.32555e-05,3.71842e-05,-3.95294e-05,3.87239e-05,4.80081e-06,0
-3.72884e-05,-1.52585e-06,-2.52674e-05,-0.000114576,1.56246e-05,-3.36993e-05,3.69896e-05,6.12272e-06,0
-3.62165e-05,-6.94281e-08,-2.33086e-05,-0.000197384,-1.20688e-05,-1.47542e-05,3.17398e-05,4.84627e-06,0
-3.3194e-05,2.56707e-06,-2.24645e-05,-0.000273581,-1.72506e-05,2.66414e-05,2.47701e-05,3.01994e-06,0
-3.03456e-05,6.36514e-06,-2.16696e-05,-0.000265039,-4.20628e-06,6.3245e-05,1.75935e-05,2.6734e-06,0
-2.31467e-05,1.29777e-05,-1.79759e-05,-0.000153034,2.0794e-06,5.97917e-05,1.07437e-05,2.47237e-06,0
-3.50344e-06,2.05241e-05,-1.20911e-05,3.19451e-06,-3.36971e-06,2.91609e-05,4.06859e-06,2.09202e-06,0
2.67726e-05,2.70067e-05,-6.65469e-06,0.00015624,-1.37139e-06,1.1032e-05,-1.11991e-06,2.82999e-06,0
4.7658e-05,3.14874e-05,-2.03313e-06,0.000280165,-3.46852e-06,1.56128e-05,-4.37155e-06,4.94941e-06,0
4.59814e-05,3.42275e-05,7.72236e-07,0.000335262,-2.95199e-05,2.96611e-05,-5.2745e-06,6.56805e-06,0
2.66789e-05,3.41236e-05,1.75629e-07,0.000280211,-7.09369e-05,3.6553e-05,-3.1377e-06,7.00551e-06,0
1.17361e-06,3.03132e-05,-2.41742e-06,0.000157536,-9.73582e-05,2.56454e-05,-2.37476e-07,5.74779e-06,0
-2.42799e-05,2.33077e-05,-4.95444e-06,5.1035e-05,-8.85307e-05,-4.98394e-06,1.84238e-06,4.01691e-06,0
-4.90005e-05,1.54513e-05,-6.96662e-06,-3.93119e-05,-5.01835e-05,-5.23548e-05,3.44926e-06,1.74992e-06,0
-7.35877e-05,7.47429e-06,-6.56954e-06,-0.000122752,-8.95615e-06,-8.06176e-05,2.72007e-06,-1.73397e-06,0
-9.21282e-05,-4.40889e-07,-7.11615e-06,-0.000184909,-1.93498e-06,-6.02261e-05,-8.79182e-06,-5.51074e-06,0
-0.000104408,-7.50677e-06,-1.35006e-05,-0.000199335,-4.79659e-05,-3.72012e-05,-3.14692e-05,-9.4514e-06,0
-0.000120505,-1.35422e-05,-2.22999e-05,-0.000146119,-0.00010615,-4.58596e-05,-4.24964e-05,-1.18427e-05,0
-0.000140046,-2.20966e-05,-2.59007e-05,-8.08486e-05,-0.000133289,-5.89948e-05,-3.0676e-05,-1.07722e-05,0
-0.000150645,-3.27614e-05,-2.16372e-05,-3.90222e-05,-5.87115e-05,-5.51542e-05,-1.37072e-05,-6.8155e-06,0
-0.000141541,-3.77505e-05,-1.4836e-05,-1.28578e-05,0.000169568,-3.47864e-05,1.10428e-06,-1.96309e-06,0
-0.000118276,-3.85549e-05,-1.34223e-05,1.43504e-05,0.000460206,-1.96168e-05,1.4153e-05,1.03173e-06,0
-8.87145e-05,-3.87271e-05,-2.09287e-05,8.97321e-05,0.000591937,-2.51902e-05,2.02013e-05,1.94221e-06,0
-5.29452e-05,-3.84643e-05,-3.26357e-05,0.000192558,0.000427489,-4.14111e-05,1.96676e-05,1.70354e-06,0
-1.38833e-05,-3.41121e-05,-4.14092e-05,0.000243201,0.000160082,-4.45386e-05,2.00636e-05,1.09167e-06,0
1.45564e-05,-2.66078e-05,-4.16491e-05,0.000217448,-1.76168e-06,-2.88853e-05,2.35043e-05,6.58643e-07,0
1.92941e-05,-2.05596e-05,-3.42621e-05,0.000147706,-6.51675e-05,-1.50071e-05,2.65847e-05,6.54143e-07,0
8.38367e-06,-1.40179e-05,-2.24638e-05,4.63239e-05,-0.000156372,-1.41495e-05,3.03261e-05,1.43827e-06,0
-3.37496e-06,-5.00034e-06,-6.28463e-06,-7.46035e-05,-0.000290225,-1.78771e-05,3.71957e-05,2.83293e-06,0
-1.19934e-05,3.68057e-06,9.17093e-06,-0.000159996,-0.000306142,-2.23696e-05,3.88587e-05,4.09224e-06,0
-1.94844e-05,5.84434e-06,1.37858e-05,-0.00016245,-0.000131222,-3.40211e-05,2.27375e-05,4.8665e-06,0
-2.35966e-05,3.24239e-06,7.40563e-06,-0.00010396,8.02689e-05,-4.71149e-05,-2.57996e-06,5.14834e-06,0
-2.13789e-05,1.84417e-06,1.0459e-06,-4.42317e-05,0.000177455,-4.67877e-05,-1.38219e-05,2.8703e-06,0
-1.44014e-05,4.14379e-06,3.40092e-07,-1.97268e-05,0.000198648,-3.31211e-05,-2.58979e-06,-8.08749e-07,0
-6.10993e-06,7.23079e-06,2.26203e-06,-3.51986e-05,0.00023401,-1.58478e-05,1.89591e-05,-3.38997e-06,0
3.78304e-06,1.15708e-05,5.05053e-06,-8.77643e-05,0.000294997,1.1621e-05,3.89826e-05,-3.81789e-06,0
1.57533e-05,2.14337e-05,1.17184e-05,-0.000154227,0.000320531,5.28667e-05,5.35868e-05,-2.43664e-06,0
1.73849e-05,3.16172e-05,1.94792e-05,-0.000193958,0.000264124,7.41891e-05,6.20906e-05,-8.49629e-07,0
4.26481e-06,3.41452e-05,2.06404e-05,-0.000201742,0.000126973,5.63695e-05,6.35169e-05,-4.79808e-07,0
-7.42754e-06,3.12381e-05,1.31573e-05,-0.000205835,-3.02089e-05,2.49361e-05,5.76335e-05,-4.4473e-07,0
-8.52336e-06,2.83802e-05,3.49623e-06,-0.000197874,-0.000132691,2.68428e-06,4.55924e-05,8.18613e-08,0
-7.70299e-06,2.58628e-05,-8.91846e-08,-0.000158778,-0.000149328,-6.02088e-06,3.28463e-05,8.91824e-08,0
-1.23394e-05,2.34552e-05,3.04033e-06,-0.000103031,-0.000117409,-1.06683e-05,2.33899e-05,8.12276e-08,0
-1.95819e-05,2.19704e-05,6.38015e-06,-3.26517e-05,-7.24236e-05,-1.48864e-05,5.23297e-06,-8.61093e-07,0
-2.29976e-05,2.48957e-05,5.88806e-06,2.53752e-05,-3.11346e-05,-2.15658e-05,-2.5796e-05,-1.55113e-06,0
-2.13871e-05,2.98461e-05,1.25119e-06,4.23846e-05,-8.27065e-06,-3.93626e-05,-4.56743e-05,4.63976e-07,0
-2.09145e-05,3.13688e-05,-6.02412e-06,3.117e-05,1.04543e-05,-6.22292e-05,-3.95406e-05,2.33011e-06,0
-2.26047e-05,2.94474e-05,-1.1941e-05,2.58221e-05,1.69158e-05,-5.84822e-05,-2.11478e-05,1.94231e-06,0
-2.69336e-05,2.49347e-05,-1.45754e-05,6.01847e-05,-4.26087e-06,-5.87322e-06,-8.74074e-06,6.81295e-07,0
-3.39198e-05,2.00486e-05,-1.61149e-05,9.51266e-05,-1.40263e-05,4.42936e-05,-1.18606e-06,1.16727e-06,0
-3.72629e-05,1.88258e-05,-1.83148e-05,8.36865e-05,1.21216e-05,4.11271e-05,1.16187e-05,1.27606e-06,0
-3.48522e-05,2.12725e-05,-2.04596e-05,6.0193e-05,2.36094e-05,-2.03206e-06,2.63131e-05,-5.34467e-07,0
-2.83172e-05,2.53844e-05,-2.11699e-05,6.4301e-05,-2.31309e-05,-1.87579e-05,3.45352e-05,-1.63728e-06,0
-3.09115e-05,2.91931e-05,-2.06958e-05,9.3738e-05,-7.97772e-05,4.09868e-05,3.24044e-05,-8.94388e-07,0
-5.26976e-05,2.96437e-05,-1.9989e-05,0.000126736,-8.88895e-05,9.6298e-05,2.46986e-05,1.16486e-07,0
-7.56205e-05,2.81581e-05,-2.13676e-05,0.000131732,-9.51449e-05,4.79646e-05,1.92398e-05,-3.29066e-09,0
-7.30175e-05,2.92364e-05,-2.64931e-05,8.86828e-05,-0.000116338,-5.9522e-05,1.89475e-05,-8.70926e-08,0
-4.77448e-05,3.31441e-05,-3.04483e-05,3.23323e-05,-7.60674e-05,-0.000117266,1.6737e-05,7.83458e-07,0
-2.78417e-05,3.60018e-05,-2.64451e-05,3.30695e-05,6.32958e-05,-9.9584e-05,-1.87921e-06,2.20959e-06,0
-2.7314e-05,3.70498e-05,-1.40888e-05,9.18591e-05,0.000204391,-5.8159e-05,-3.31911e-05,2.42428e-06,0
-4.16136e-05,3.86163e-05,-1.24744e-06,0.000120235,0.000221158,-3.26704e-05,-4.48642e-05,1.31604e-06,0
-6.2921e-05,4.07681e-05,4.67944e-06,5.39008e-05,0.000120812,-2.23779e-05,-1.69511e-05,-3.62849e-07,0
-7.561e-05,4.25347e-05,4.31434e-06,-7.0714e-05,-9.47088e-06,-9.28991e-06,3.21812e-05,-1.83123e-06,0
-6.067e-05,4.46088e-05,3.35945e-06,-0.000161472,-0.000104929,1.37359e-05,7.51869e-05,-2.23919e-06,0
-3.08484e-05,4.48409e-05,3.46787e-06,-0.000176966,-0.000108259,2.78466e-05,0.000101889,-9.96179e-07,0
-2.15091e-05,3.89301e-05,1.83218e-06,-0.000156173,3.01352e-05,1.30716e-05,0.000112172,1.20375e-06,0
-2.79777e-05,3.03036e-05,-1.79478e-06,-0.000130142,0.000227649,-1.59477e-05,0.000101609,1.30802e-06,0
-1.01438e-05,2.49112e-05,-3.98067e-06,-7.80293e-05,0.000240784,-2.85086e-05,6.85516e-05,-2.16911e-06,0
2.7645e-05,2.07383e-05,-5.51524e-06,2.91199e-06,1.16237e-05,-2.621e-05,2.58939e-05,-5.40717e-06,0
3.90201e-05,1.19387e-05,-8.53944e-06,9.77764e-05,-0.000177404,-2.94166e-05,-4.95039e-06,-7.12639e-06,0
1.25229e-05,1.28054e-06,-7.81502e-06,0.000210231,-0.000126361,-3.19785e-05,-1.43234e-05,-6.61795e-06,0
-1.91531e-05,-3.97098e-07,-1.61223e-06,0.000268107,-1.79002e-05,-2.30271e-05,-6.55826e-06,-5.51937e-06,0
-3.6341e-05,2.15435e-06,3.61332e-07,0.000233204,-8.50783e-05,-1.04305e-05,9.2345e-06,-4.95808e-06,0
-3.67349e-05,7.2562e-07,-6.53603e-06,0.000136977,-0.000242259,-2.4626e-07,2.41302e-05,-4.30727e-06,0
-2.49333e-05,-2.57458e-06,-1.83255e-05,3.61466e-05,-0.000276687,2.14812e-06,1.88862e-05,-4.5637e-06,0
-1.93657e-05,-6.88972e-06,-2.77585e-05,-4.30261e-06,-0.000184153,-1.80763e-05,-1.38383e-05,-3.70316e-06,0
-2.2246e-05,-9.79968e-06,-3.06581e-05,-8.09495e-05,-0.000104168,-5.88816e-05,-4.72385e-05,-2.12367e-06,0
-3.15345e-05,-9.42144e-06,-3.0261e-05,-0.000282716,-6.37946e-05,-9.09978e-05,-5.6962e-05,-3.1131e-07,0
-4.53252e-05,-6.08786e-06,-2.93265e-05,-0.000509371,-3.3009e-05,-9.07499e-05,-4.41189e-05,-9.63296e-08,0
-5.33817e-05,-5.36097e-06,-3.02515e-05,-0.000557381,1.65901e-05,-5.82608e-05,-2.44427e-05,-1.13155e-06,0
-4.87198e-05,-6.77673e-06,-3.24698e-05,-0.000367287,8.54326e-05,-2.15105e-05,-7.3217e-06,-1.39829e-06,0
-3.65608e-05,-4.85239e-06,-3.27948e-05,-5.26878e-05,0.000133332,-4.62226e-06,1.53513e-06,-6.3021e-07,0
-2.62973e-05,-8.09678e-07,-2.62933e-05,0.000234185,0.000127446,-5.13593e-06,-1.62562e-05,-4.84477e-07,0
-1.97533e-05,3.66209e-06,-1.12522e-05,0.000425345,8.52807e-05,-5.97424e-06,-7.57061e-05,-2.78152e-06,0
-1.63389e-05,8.83101e-06,6.19481e-06,0.000481896,6.32502e-05,2.37325e-05,-0.000138226,-4.3175e-06,0
-1.49439e-05,1.3424e-05,1.58071e-05,0.00034049,8.05836e-05,8.9088e-05,-0.000142832,-3.49785e-06,0
-1.78753e-05,1.34611e-05,1.30392e-05,8.27553e-05,0.000114173,0.000129949,-8.03903e-05,-2.90255e-06,0
-2.43424e-05,8.98766e-06,3.07816e-06,-0.000116095,0.000118985,0.000100167,4.26847e-06,-3.3762e-06,0
-3.00746e-05,5.20467e-06,-4.80873e-06,-0.000152024,9.49102e-05,4.13608e-05,6.51496e-05,-3.08727e-06,0
-3.17265e-05,4.69355e-06,-6.67406e-06,-4.70674e-05,6.78784e-05,9.34971e-06,9.14362e-05,-1.7114e-06,0
-3.17171e-05,4.27485e-06,-4.4007e-06,0.000114416,5.33329e-05,5.91291e-06,9.46235e-05,-3.80051e-07,0
-3.16421e-05,3.53569e-06,-6.33964e-07,0.000208724,4.36673e-05,8.01295e-06,8.48745e-05,1.40366e-06,0
-3.06306e-05,3.84553e-06,-8.79186e-07,0.00018677,3.49406e-05,5.74688e-06,6.68853e-05,3.05632e-06,0
-2.61372e-05,5.92845e-06,-5.12606e-06,0.000107604,1.70867e-05,1.3757e-06,5.33821e-05,4.23696e-06,0
-1.61123e-05,9.65782e-06,-5.86458e-06,3.95084e-05,-2.29814e-05,-2.73609e-06,4.79588e-05,5.81676e-06,0
-8.54874e-06,1.24462e-05,-2.34065e-06,-1.48272e-05,-8.32244e-05,-6.11162e-06,4.40698e-05,6.3222e-06,0
-8.39992e-06,1.28541e-05,-1.12903e-07,-6.28207e-05,-0.000138378,-7.18816e-06,4.21006e-05,5.37578e-06,0
-1.17096e-05,1.18581e-05,-3.32852e-06,-0.000123844,-0.000121877,-8.60431e-06,4.43437e-05,4.2497e-06,0
-1.79396e-05,1.07404e-05,-1.26502e-05,-0.000157352,5.64362e-06,-1.37397e-05,4.5191e-05,4.80508e-06,0
-2.80412e-05,1.0484e-05,-1.85829e-05,-0.000103132,0.000188405,-2.20865e-05,3.51596e-05,4.81453e-06,0
-3.85303e-05,1.33184e-05,-1.43017e-05,-2.47554e-05,0.000278951,-2.63588e-05,1.75949e-05,3.85521e-06,0
-4.27567e-05,1.76504e-05,-7.26233e-06,2.2049e-05,0.000219788,-1.92357e-05,2.71246e-06,4.86727e-06,0
-4.4037e-05,2.12342e-05,-3.39049e-06,-4.86474e-06,0.000113937,-1.0958e-05,-7.29213e-06,4.72289e-06,0
-4.67874e-05,2.44336e-05,-1.10863e-06,-0.000104327,1.75444e-05,-1.73144e-05,-1.419e-05,2.52785e-06,0
-4.81098e-05,2.58245e-05,-2.59694e-06,-0.000177583,-8.99901e-05,-2.99825e-05,-1.89505e-05,1.6878e-06,0
-4.8075e-05,2.33024e-05,-9.64847e-06,-0.000175057,-0.000146273,-2.69658e-05,-2.02803e-05,2.50414e-06,0
-4.99723e-05,1.78253e-05,-1.95506e-05,-0.000150667,-7.78402e-05,-1.03062e-05,-1.8709e-05,2.20578e-06,0
-5.83432e-05,1.40884e-05,-2.41662e-05,-0.000125458,1.80127e-05,-4.14682e-06,-1.6899e-05,1.55269e-06,0
-6.74255e-05,1.34201e-05,-1.99771e-05,-9.83085e-05,2.83025e-05,-1.01992e-05,-1.52983e-05,2.6742e-06,0
-6.51741e-05,1.35343e-05,-1.12535e-05,-5.09062e-05,-6.04975e-05,-7.20023e-06,-1.18274e-05,9.33067e-06,0
-5.15083e-05,1.37649e-05,-2.96231e-06,3.25933e-05,-0.000178051,8.3485e-06,-6.06123e-06,2.29623e-05,0
-3.98716e-05,1.49319e-05,1.57073e-08,0.000118457,-0.000202785,2.25202e-05,-1.21362e-06,3.58558e-05,0
-3.73728e-05,1.52303e-05,-1.97852e-06,0.000164204,-7.69954e-05,2.69778e-05,2.33669e-06,4.14035e-05,0
-3.83575e-05,1.32043e-05,-5.23799e-06,0.00015753,8.77985e-05,2.33953e-05,1.21309e-05,3.7944e-05,0
-3.39257e-05,1.11414e-05,-5.3975e-06,0.000118683,0.000119354,1.41197e-05,3.5498e-05,2.46264e-05,0
-2.30059e-05,1.27532e-05,-1.50557e-06,9.59867e-05,3.28673e-05,-6.65862e-06,7.28574e-05,2.64984e-06,0
-1.1352e-05,1.89757e-05,5.92995e-06,0.000112809,-4.56193e-05,-4.55018e-05,0.000124513,-2.12924e-05,0
-4.12349e-06,2.65713e-05,1.28855e-05,0.000120925,-4.91897e-05,-7.59131e-05,0.00018218,-3.79101e-05,0
-2.97703e-06,3.22259e-05,1.65097e-05,9.83539e-05,1.69237e-07,-5.59034e-05,0.000222156,-4.03913e-05,0
-6.46439e-06,3.42046e-05,1.66961e-05,6.65167e-05,5.82528e-05,-9.76326e-06,0.000213756,-2.97633e-05,0
-1.0502e-05,3.32066e-05,1.2751e-05,5.07219e-05,8.17148e-05,4.91135e-06,0.00013689,-1.32302e-05,0
-1.30658e-05,3.05495e-05,3.77372e-06,5.17725e-05,6.74317e-05,-5.51725e-06,1.78014e-05,1.75535e-06,0
-1.65076e-05,2.91883e-05,-6.82134e-06,2.97011e-05,3.60278e-05,-1.52683e-05,-9.25339e-05,1.17445e-05,0
-2.28045e-05,2.96648e-05,-1.29067e-05,-4.53252e-05,-1.44848e-06,-2.18519e-05,-0.000166045,1.56455e-05,0
-2.8464e-05,3.0157e-05,-1.28603e-05,-0.000146135,-7.88833e-05,-2.37949e-05,-0.000193247,1.35353e-05,0
-2.81078e-05,3.11776e-05,-7.20443e-06,-0.000194457,-0.000198425,-2.09389e-05,-0.000175071,7.20649e-06,0
-2.41106e-05,3.07552e-05,-1.83594e-06,-0.000188341,-0.000274006,-1.29611e-05,-0.000133371,-8.33283e-07,0
-1.88918e-05,2.67546e-05,-3.44246e-06,-0.000172183,-0.000221344,-7.21066e-06,-0.0001051,-6.68002e-06,0
-8.73411e-06,2.45165e-05,-1.06203e-05,-0.000132482,-4.53818e-05,3.65178e-06,-9.51425e-05,-8.99451e-06,0
-1.90434e-06,2.31074e-05,-1.83449e-05,-9.2715e-05,0.000122698,1.97847e-05,-8.86572e-05,-8.98462e-06,0
-2.04849e-05,1.32194e-05,-2.78159e-05,-7.85099e-05,0.000206014,-5.92476e-06,-6.89213e-05,-7.81728e-06,0
-5.59696e-05,-1.61414e-06,-3.6966e-05,-8.28912e-05,0.000203437,-6.36473e-05,-2.57961e-05,-5.49148e-06,0
-7.65612e-05,-8.9587e-06,-3.98911e-05,-9.23547e-05,0.000140103,-9.32076e-05,2.52486e-05,-3.48036e-06,0
-7.00445e-05,-7.84945e-06,-3.47761e-05,-8.08651e-05,5.4816e-05,-8.14859e-05,5.59159e-05,-3.3024e-06,0
-4.41534e-05,-5.33841e-06,-2.51073e-05,-2.48752e-05,-1.33535e-05,-4.49098e-05,5.88763e-05,-5.01355e-06,0
-1.50468e-05,-3.33545e-06,-1.9128e-05,3.07809e-05,-3.78442e-05,-1.22106e-05,5.06388e-05,-7.38982e-06,0
6.48013e-06,5.22625e-08,-1.78136e-05,4.99266e-05,1.24885e-05,7.27604e-06,3.866e-05,-7.33471e-06,0
1.55758e-05,7.44339e-06,-1.52107e-05,7.58171e-05,0.000121384,3.81469e-05,3.21239e-05,-4.61419e-06,0
9.06508e-06,1.61743e-05,-1.00169e-05,0.000136438,0.000176964,7.93111e-05,3.63364e-05,-2.34297e-06,0
-6.01711e-06,2.27624e-05,-5.23962e-06,0.000181598,0.000156684,8.75019e-05,4.78641e-05,-1.53589e-06,0
-1.73976e-05,2.64733e-05,-4.16965e-07,0.000155588,0.000128576,5.21856e-05,5.73014e-05,-1.20583e-06,0
-2.40147e-05,2.63663e-05,4.46419e-06,8.94255e-05,0.00011992,1.14317e-05,5.71199e-05,-2.83939e-07,0
-3.3837e-05,2.35629e-05,6.90186e-06,3.2121e-05,9.67403e-05,-1.06349e-05,4.49578e-05,8.96516e-07,0
-4.86542e-05,2.17815e-05,5.98918e-06,-1.4823e-07,5.00038e-05,-1.94498e-05,2.55577e-05,1.13424e-06,0
-5.98846e-05,2.20741e-05,3.91742e-06,-2.64098e-05,1.2023e-05,-1.82706e-05,9.52434e-06,1.13078e-06,0
-5.83285e-05,2.19791e-05,1.50011e-06,-5.92901e-05,1.31867e-05,-4.09385e-06,6.39763e-06,1.38375e-06,0
-4.76614e-05,2.14488e-05,-4.32748e-06,-8.87277e-05,4.89477e-05,1.50882e-05,1.59801e-05,8.62259e-07,0
-3.92281e-05,2.01502e-05,-1.19116e-05,-0.000103798,9.1598e-05,2.81954e-05,2.63158e-05,-1.41439e-06,0
-3.78802e-05,1.7633e-05,-1.63044e-05,-0.000107615,0.000128751,2.69315e-05,2.93875e-05,-2.75767e-06,0
-4.08261e-05,1.52257e-05,-1.80625e-05,-8.93444e-05,0.000133546,1.41485e-06,2.40737e-05,-1.60041e-06,0
-4.21088e-05,1.4118e-05,-1.75913e-05,-4.55757e-05,6.85698e-05,-3.36294e-05,1.48603e-05,-9.64297e-08,0
-4.19835e-05,1.55849e-05,-1.62262e-05,3.38085e-06,-4.29886e-05,-5.62046e-05,5.90728e-06,3.76825e-06,0
-5.00084e-05,1.91315e-05,-1.30307e-05,1.0196e-05,-0.000122365,-6.18801e-05,1.34332e-06,8.82696e-06,0
-6.7342e-05,2.19369e-05,-7.31237e-06,-2.10445e-05,-0.000162413,-6.08206e-05,-2.0217e-06,9.26905e-06,0
-8.04832e-05,2.2439e-05,-3.40465e-06,-4.96686e-05,-0.000166317,-6.52611e-05,-5.18077e-06,6.59557e-06,0
-7.77916e-05,2.32812e-05,-1.33073e-06,-7.27587e-05,-0.000108114,-8.25526e-05,-4.14134e-06,4.83832e-06,0
-6.37625e-05,2.49437e-05,-2.11858e-06,-4.91136e-05,-1.77758e-05,-0.000124275,1.02229e-06,4.63804e-06,0
-5.00602e-05,2.22578e-05,-5.90595e-06,3.34348e-05,3.37299e-05,-0.000122598,8.42068e-06,5.76483e-06,0
-4.01086e-05,1.49746e-05,-1.1256e-05,0.000116531,2.31777e-05,-7.86995e-06,1.40188e-05,8.13446e-06,0
-2.93972e-05,6.82713e-06,-1.45601e-05,0.000142173,-4.08988e-06,0.00010095,1.67399e-05,9.49868e-06,0
-1.4861e-05,1.79444e-06,-1.46233e-05,0.000113794,-2.51211e-05,9.28986e-05,1.65834e-05,9.91812e-06,0
-6.02036e-06,1.38147e-06,-1.48412e-05,5.45792e-05,-3.07005e-05,2.51776e-05,8.54145e-06,8.18533e-06,0
-8.2766e-06,2.93306e-06,-1.93945e-05,-5.30637e-05,-1.28413e-05,-3.35005e-05,-7.81902e-06,5.55528e-06,0
-1.64953e-05,3.77729e-06,-2.57412e-05,-0.000167478,3.79979e-05,-4.93758e-05,-2.00965e-05,3.92959e-06,0
-2.28938e-05,5.12388e-06,-2.8207e-05,-0.000208069,0.000101375,-2.10572e-05,-1.94972e-05,1.2341e-06,0
-2.06125e-05,8.70143e-06,-2.69919e-05,-0.000155271,9.71485e-05,2.63326e-05,-9.10181e-06,-1.46491e-06,0
-1.07746e-05,1.1908e-05,-2.3762e-05,-4.48773e-05,-8.17606e-06,5.74679e-05,5.63169e-06,-1.93604e-06,0
-1.68583e-06,1.25199e-05,-1.64799e-05,5.55893e-05,-0.000141113,5.83853e-05,2.12965e-05,2.29433e-07,0
-3.58047e-07,1.16693e-05,-3.84863e-06,0.000116273,-0.000214774,4.18714e-05,3.51624e-05,1.86953e-06,0
-6.15837e-06,9.30496e-06,6.37321e-06,0.000145299,-0.00023596,2.13565e-05,4.38912e-05,1.95163e-06,0
-1.62107e-05,3.44554e-06,5.68387e-06,0.000168548,-0.000234112,1.56965e-06,4.79422e-05,1.13539e-06,0
-2.4516e-05,-9.00435e-07,-2.7591e-06,0.000220688,-0.000179164,-1.64889e-05,4.99219e-05,8.32289e-07,0
-2.52728e-05,8.24531e-07,-5.28525e-06,0.000288353,-3.59433e-05,-2.49958e-05,5.18316e-05,7.56224e-07,0
-1.9999e-05,5.6093e-06,-4.64192e-07,0.000308911,0.000133926,-2.36196e-05,5.4368e-05,2.05379e-07,0
