ch1,ch2,ch3,ch4,ch5,ch6,ch7,ch8,class
-3.26401e-05,1.68044e-05,-6.25455e-06,-1.04028e-05,1.41242e-05,-5.72485e-06,-4.08184e-06,1.51004e-06,0
-3.24684e-05,1.58834e-05,-7.68947e-06,-6.3353e-06,1.59544e-05,-3.13232e-06,-3.44391e-06,3.20567e-06,0
-3.07062e-05,1.53104e-05,-6.88316e-06,-1.13373e-06,1.56452e-05,-2.10848e-08,-3.20081e-06,4.31137e-06,0
-2.85126e-05,1.59477e-05,-3.79732e-06,2.12386e-06,1.37659e-05,1.88213e-06,-4.95225e-06,6.73449e-06,0
-2.92516e-05,1.75396e-05,-1.9401e-06,6.13285e-06,1.25358e-05,2.51432e-06,-6.39522e-06,8.03142e-06,0
-3.21959e-05,1.87742e-05,-2.701e-06,1.67906e-05,1.28057e-05,1.98214e-06,-6.33513e-06,8.68529e-06,0
-3.39056e-05,1.87424e-05,-3.92847e-06,2.94388e-05,1.38869e-05,7.80482e-07,-4.54221e-06,8.48678e-06,0
-3.38815e-05,1.79643e-05,-4.47669e-06,3.36838e-05,1.35442e-05,-1.11401e-06,-2.432e-06,6.59138e-06,0
-3.42203e-05,1.65904e-05,-4.02392e-06,2.71747e-05,1.26027e-05,-1.83396e-06,-1.19946e-06,5.63375e-06,0
-3.40863e-05,1.5207e-05,-4.67167e-06,1.39651e-05,1.32971e-05,-2.45119e-06,6.37865e-07,5.31822e-06,0
-3.23567e-05,1.41108e-05,-8.01816e-06,1.31643e-06,1.6467e-05,-4.33696e-06,3.93812e-06,4.02454e-06,0
-3.14682e-05,1.42059e-05,-1.30636e-05,-6.84386e-06,2.08673e-05,-5.22843e-06,7.33131e-06,2.67438e-06,0
-3.30008e-05,1.35491e-05,-1.80135e-05,-1.12758e-05,2.43686e-05,-3.54613e-06,8.79916e-06,2.28475e-06,0
-3.65002e-05,1.0477e-05,-2.13203e-05,-1.43006e-05,2.42914e-05,-1.74144e-06,8.65746e-06,1.74775e-06,0
-3.88859e-05,7.61577e-06,-2.368e-05,-1.55401e-05,2.27733e-05,-2.13703e-06,9.23128e-06,7.94134e-07,0
-3.84578e-05,8.02719e-06,-2.56704e-05,-1.09647e-05,2.42245e-05,-3.55983e-06,1.15928e-05,4.79478e-07,0
-3.61141e-05,1.05127e-05,-2.7009e-05,3.90213e-06,2.89817e-05,-3.98866e-06,1.32377e-05,7.64508e-07,0
-3.459e-05,1.25994e-05,-2.67504e-05,2.29359e-05,3.30596e-05,-3.16441e-06,1.37253e-05,1.90661e-06,0
-3.41436e-05,1.39317e-05,-2.56857e-05,3.29238e-05,3.3664e-05,-3.62931e-06,1.40617e-05,3.9494e-06,0
-3.29294e-05,1.50943e-05,-2.45769e-05,2.85151e-05,3.10727e-05,-4.45534e-06,1.5042e-05,5.35822e-06,0
-3.10881e-05,1.66117e-05,-2.21915e-05,1.47161e-05,2.77302e-05,-4.26613e-06,1.49777e-05,6.18869e-06,0
-3.04044e-05,1.7618e-05,-1.832e-05,-1.2171e-06,2.57892e-05,-3.25847e-06,1.38786e-05,6.06339e-06,0
-3.0624e-05,1.79825e-05,-1.56048e-05,-1.62889e-05,2.47545e-05,-4.03739e-06,1.51579e-05,5.91947e-06,0
-3.00429e-05,1.85354e-05,-1.29375e-05,-2.7769e-05,2.387e-05,-6.10999e-06,2.2801e-05,6.7339e-06,0
-2.89281e-05,1.871e-05,-8.74918e-06,-3.41005e-05,2.2569e-05,-6.84166e-06,3.68634e-05,6.56671e-06,0
-2.96074e-05,1.67253e-05,-5.30735e-06,-3.37426e-05,2.13453e-05,-6.91157e-06,4.85583e-05,4.94475e-06,0
-3.11998e-05,1.52523e-05,-4.1648e-06,-2.7173e-05,2.06877e-05,-7.24023e-06,5.19272e-05,3.6482e-06,0
-3.16694e-05,1.57252e-05,-3.63654e-06,-1.8233e-05,1.97739e-05,-6.73305e-06,4.91753e-05,4.38642e-06,0
-3.09175e-05,1.65856e-05,-3.36528e-06,-1.10834e-05,1.77469e-05,-5.39404e-06,4.11386e-05,4.56819e-06,0
-3.03119e-05,1.66236e-05,-3.38279e-06,-7.55032e-06,1.58306e-05,-5.43777e-06,2.97434e-05,3.60135e-06,0
-3.06778e-05,1.46506e-05,-3.01003e-06,-5.345e-06,1.58743e-05,-6.52203e-06,1.69756e-05,2.05152e-06,0
-3.00691e-05,1.36574e-05,-2.64281e-06,-3.487e-06,1.66546e-05,-7.84364e-06,4.97029e-06,-1.85874e-07,0
-2.94833e-05,1.42172e-05,-2.30408e-06,-4.66398e-06,1.83311e-05,-7.66013e-06,-7.17148e-06,-1.65533e-06,0
-3.00236e-05,1.50657e-05,-2.46195e-06,-8.20068e-06,1.91158e-05,-6.69569e-06,-1.83777e-05,-1.99815e-06,0
-3.01499e-05,1.62498e-05,-3.6395e-06,-1.19214e-05,1.86316e-05,-6.31791e-06,-2.46099e-05,-2.46455e-06,0
-2.96676e-05,1.79293e-05,-4.57792e-06,-1.54513e-05,1.77948e-05,-6.74876e-06,-2.51173e-05,-2.7723e-06,0
-2.97364e-05,1.94511e-05,-3.04986e-06,-1.90842e-05,1.53578e-05,-7.80502e-06,-1.79578e-05,-2.23199e-06,0
-2.91275e-05,1.96639e-05,2.5366e-07,-2.15654e-05,1.32373e-05,-7.76739e-06,-2.74725e-06,-1.95816e-06,0
-2.87172e-05,1.90078e-05,2.04108e-06,-1.92789e-05,1.2737e-05,-6.72958e-06,1.78398e-05,-2.54107e-06,0
-2.94156e-05,1.81489e-05,-8.61418e-07,-1.29647e-05,1.31846e-05,-6.11938e-06,3.73664e-05,-2.36321e-06,0
-2.99303e-05,1.74437e-05,-5.89872e-06,-6.71836e-06,1.31703e-05,-7.35319e-06,4.9646e-05,-1.28214e-06,0
-3.04489e-05,1.79621e-05,-9.04334e-06,-3.56451e-06,1.33317e-05,-9.31853e-06,5.17579e-05,-7.77265e-07,0
-3.20296e-05,2.13804e-05,-1.07024e-05,-1.93928e-06,1.392e-05,-1.02459e-05,4.58029e-05,-1.4784e-06,0
-3.4111e-05,2.52318e-05,-1.22499e-05,5.48997e-07,1.44352e-05,-1.04788e-05,3.572e-05,-2.86751e-06,0
-3.4678e-05,2.65507e-05,-1.256e-05,2.17804e-06,1.39972e-05,-1.12289e-05,2.38817e-05,-3.7846e-06,0
-3.42027e-05,2.64447e-05,-1.21891e-05,9.02945e-07,1.40573e-05,-1.17438e-05,9.54612e-06,-4.90553e-06,0
-3.39966e-05,2.91713e-05,-1.16049e-05,-1.77097e-06,1.53556e-05,-1.21687e-05,-6.07808e-06,-4.66201e-06,0
-3.4318e-05,3.79063e-05,-9.68095e-06,-5.30757e-06,1.81458e-05,-1.23479e-05,-1.96732e-05,-2.74205e-06,0
-3.41808e-05,4.89756e-05,-8.51626e-06,-1.00918e-05,2.12774e-05,-1.11231e-05,-2.54906e-05,-5.92341e-07,0
-3.28375e-05,5.57252e-05,-1.00647e-05,-1.31298e-05,2.37237e-05,-8.88556e-06,-2.18161e-05,4.88846e-07,0
-3.17465e-05,5.45499e-05,-1.14265e-05,-1.30704e-05,2.48226e-05,-6.6656e-06,-1.49662e-05,3.67554e-07,0
-3.18439e-05,4.10467e-05,-1.16747e-05,-1.56757e-05,2.3738e-05,-5.90004e-06,-7.14125e-06,9.92971e-07,0
-3.19272e-05,1.81242e-05,-1.14163e-05,-2.11466e-05,2.36047e-05,-7.43593e-06,1.11664e-06,3.86414e-09,0
-3.16122e-05,-3.37906e-06,-9.86206e-06,-2.52962e-05,2.39732e-05,-8.80746e-06,8.4329e-06,-2.61569e-06,0
-3.11678e-05,-1.95363e-05,-8.7238e-06,-3.02003e-05,2.09615e-05,-8.24757e-06,1.35051e-05,-4.46205e-06,0
-3.10167e-05,-2.8797e-05,-8.07338e-06,-3.46431e-05,1.4921e-05,-9.06586e-06,1.55556e-05,-4.77915e-06,0
-3.25255e-05,-3.18641e-05,-7.72809e-06,-3.29609e-05,1.28185e-05,-9.83954e-06,1.68964e-05,-3.25474e-06,0
-3.45744e-05,-2.81983e-05,-8.06377e-06,-2.2805e-05,1.33176e-05,-1.10234e-05,1.76847e-05,-3.59127e-06,0
-3.46781e-05,-1.81576e-05,-8.04189e-06,-1.34286e-05,1.29374e-05,-1.36536e-05,1.69512e-05,-4.62039e-06,0
-3.26334e-05,-8.69706e-06,-7.56331e-06,-1.12392e-05,1.29982e-05,-1.50156e-05,1.34156e-05,-4.76065e-06,0
-2.9725e-05,-1.73066e-06,-6.84289e-06,-1.39412e-05,1.17748e-05,-1.49255e-05,8.65379e-06,-4.05959e-06,0
-2.79981e-05,4.28097e-06,-4.70286e-06,-1.561e-05,9.32759e-06,-1.38736e-05,7.41283e-06,-2.88109e-06,0
-2.77632e-05,1.03057e-05,-2.16881e-06,-1.11445e-05,6.70874e-06,-1.34234e-05,9.5193e-06,-1.13887e-06,0
-2.8267e-05,1.51029e-05,-1.79357e-06,3.74618e-07,4.93366e-06,-1.45828e-05,1.24971e-05,1.28749e-07,0
-2.89571e-05,1.74763e-05,-3.28819e-06,1.63363e-05,3.48897e-06,-1.55684e-05,1.46131e-05,-5.96421e-07,0
-3.01194e-05,1.78847e-05,-5.20567e-06,3.37385e-05,2.00618e-06,-1.41599e-05,1.64014e-05,-1.5651e-06,0
-3.07882e-05,1.81657e-05,-7.11118e-06,5.19543e-05,7.73673e-07,-1.25476e-05,1.85466e-05,-1.42588e-06,0
-2.95288e-05,1.85352e-05,-8.25401e-06,6.77165e-05,6.32785e-07,-1.26389e-05,2.0528e-05,-1.0215e-07,0
-2.785e-05,1.81904e-05,-8.50672e-06,7.54466e-05,2.60136e-06,-1.22997e-05,2.07039e-05,9.52644e-07,0
-2.75358e-05,1.81731e-05,-7.83163e-06,6.98787e-05,4.47005e-06,-1.05327e-05,1.93114e-05,2.01964e-06,0
-2.70076e-05,1.8793e-05,-5.03143e-06,5.40811e-05,4.02945e-06,-9.76652e-06,1.8296e-05,2.22986e-06,0
-2.64327e-05,1.95864e-05,-2.62769e-06,3.41137e-05,2.92e-06,-1.04082e-05,1.92553e-05,1.10427e-06,0
-2.72492e-05,1.96795e-05,-3.95993e-06,8.96666e-06,2.32139e-06,-1.07642e-05,2.19997e-05,-1.13189e-06,0
-2.82324e-05,2.04223e-05,-7.54332e-06,-1.40364e-05,1.15994e-06,-1.07519e-05,2.34641e-05,-2.37024e-06,0
-2.83313e-05,2.09005e-05,-9.5949e-06,-2.00957e-05,5.72501e-07,-1.07379e-05,2.27259e-05,-1.72248e-06,0
-2.7224e-05,2.00212e-05,-8.49691e-06,-1.32746e-05,1.97876e-06,-9.7915e-06,2.04537e-05,3.20466e-08,0
-2.66752e-05,1.94341e-05,-6.20884e-06,-3.21398e-06,2.92558e-06,-9.80696e-06,1.70393e-05,7.56822e-07,0
-2.64043e-05,2.09859e-05,-4.86972e-06,1.55975e-05,2.20312e-06,-1.16179e-05,1.58274e-05,7.49321e-07,0
-2.69901e-05,2.41775e-05,-4.31316e-06,4.87938e-05,3.52698e-06,-1.30882e-05,1.60447e-05,6.39723e-07,0
-2.84085e-05,2.37206e-05,-4.10873e-06,6.77242e-05,7.68501e-06,-1.27377e-05,1.57324e-05,2.62272e-07,0
-2.78266e-05,1.9857e-05,-4.63828e-06,5.22808e-05,1.06909e-05,-1.28354e-05,1.5821e-05,7.79165e-07,0
-2.72414e-05,1.86467e-05,-4.35624e-06,1.92431e-05,9.57336e-06,-1.48657e-05,1.55006e-05,1.58135e-06,0
-2.85151e-05,2.05601e-05,-3.18433e-06,-8.86302e-06,6.98879e-06,-1.49944e-05,1.50818e-05,2.87785e-06,0
-2.90513e-05,2.33071e-05,-2.34535e-06,-2.23573e-05,5.28257e-06,-1.31234e-05,1.42304e-05,3.13407e-06,0
-2.90985e-05,2.42907e-05,-2.37917e-06,-3.11835e-05,4.16816e-06,-1.0678e-05,1.28112e-05,3.06655e-06,0
-2.93596e-05,2.31821e-05,-3.97868e-06,-3.65345e-05,4.34473e-06,-1.01469e-05,1.1365e-05,2.44052e-06,0
-2.91473e-05,2.5111e-05,-5.93466e-06,-3.63319e-05,6.59199e-06,-1.06694e-05,1.05976e-05,1.04266e-06,0
-2.95057e-05,3.21196e-05,-6.18924e-06,-3.38383e-05,9.27649e-06,-1.09839e-05,1.03119e-05,9.85642e-07,0
-3.04992e-05,3.71547e-05,-4.11629e-06,-3.32586e-05,1.11822e-05,-1.05096e-05,1.05771e-05,1.51005e-06,0
-3.10682e-05,3.57239e-05,-1.01177e-06,-3.61699e-05,1.27032e-05,-9.18675e-06,1.10958e-05,1.78457e-06,0
-3.11144e-05,2.87885e-05,5.11622e-07,-4.50687e-05,1.26267e-05,-8.75931e-06,1.17616e-05,2.42623e-06,0
-3.10894e-05,1.78599e-05,-3.5786e-07,-5.57424e-05,1.12301e-05,-8.99073e-06,1.25054e-05,4.28093e-06,0
-3.00244e-05,5.59977e-06,-1.60435e-06,-5.73234e-05,8.79294e-06,-9.14169e-06,1.22475e-05,5.91336e-06,0
-2.81514e-05,-3.57263e-06,-2.2389e-06,-4.62253e-05,4.20582e-06,-8.62204e-06,1.18399e-05,6.53197e-06,0
-2.72621e-05,-9.3177e-06,-3.23433e-06,-2.95809e-05,-8.83851e-07,-8.61267e-06,1.2444e-05,6.56429e-06,0
-2.80527e-05,-1.56226e-05,-4.28724e-06,-1.70704e-05,-2.05621e-06,-9.84352e-06,1.41944e-05,7.03152e-06,0
-2.94503e-05,-2.30863e-05,-4.9731e-06,-1.08115e-05,1.3183e-07,-1.16532e-05,1.61026e-05,7.6416e-06,0
-3.12334e-05,-2.83527e-05,-6.42279e-06,-9.82356e-06,1.3507e-06,-1.20606e-05,1.70019e-05,5.84901e-06,0
-3.34094e-05,-2.77736e-05,-7.38463e-06,-1.15188e-05,8.97662e-07,-1.1706e-05,1.61931e-05,3.42643e-06,0
-3.46501e-05,-2.17104e-05,-7.09326e-06,-1.2859e-05,1.39754e-06,-1.10097e-05,1.52725e-05,3.11452e-06,0
-3.43242e-05,-1.40064e-05,-7.93639e-06,-1.08817e-05,4.79923e-06,-1.07781e-05,1.52752e-05,3.25399e-06,0
-3.33902e-05,-9.39489e-06,-1.10638e-05,-6.13327e-06,1.0816e-05,-1.06416e-05,1.53348e-05,3.17419e-06,0
-3.26307e-05,-7.50681e-06,-1.34805e-05,-2.11518e-06,1.77336e-05,-1.00314e-05,1.56785e-05,3.37369e-06,0
-3.12918e-05,-6.19578e-06,-1.32579e-05,-1.95809e-06,2.21244e-05,-8.5055e-06,1.5396e-05,1.96288e-06,0
-2.93765e-05,-3.98976e-06,-1.14749e-05,-5.82344e-07,2.17461e-05,-5.4739e-06,1.32455e-05,-1.82724e-07,0
-2.86553e-05,-1.67433e-06,-9.83061e-06,2.08429e-06,1.99042e-05,-3.6144e-06,1.07522e-05,7.68394e-07,0
-2.88728e-05,-7.21977e-07,-8.73684e-06,2.91645e-06,2.32824e-05,-3.71812e-06,1.043e-05,4.65924e-06,0
-2.94939e-05,-5.32087e-07,-8.335e-06,4.72313e-06,2.88101e-05,-4.2124e-06,1.03101e-05,8.28066e-06,0
-2.98205e-05,-2.52923e-07,-9.78561e-06,4.93899e-06,2.97156e-05,-5.37818e-06,9.67608e-06,8.14654e-06,0
-2.86912e-05,-3.66148e-07,-1.0401e-05,1.14482e-06,2.7792e-05,-7.01421e-06,1.07451e-05,4.67027e-06,0
-2.82992e-05,-1.0204e-08,-1.0111e-05,-3.05061e-06,2.56999e-05,-7.63889e-06,9.93005e-06,2.73775e-06,0
-2.86348e-05,2.69265e-06,-9.27354e-06,-3.80893e-06,2.43942e-05,-8.59503e-06,7.51774e-06,1.89858e-06,0
-2.81756e-05,5.44098e-06,-6.94692e-06,-4.57622e-07,2.40376e-05,-9.73649e-06,8.1018e-06,1.33601e-06,0
-2.75397e-05,6.61445e-06,-4.96007e-06,3.64564e-06,2.62585e-05,-1.10578e-05,1.02659e-05,1.18342e-06,0
-2.71778e-05,8.62866e-06,-3.65684e-06,5.08239e-06,2.74485e-05,-1.28946e-05,1.00927e-05,1.34157e-06,0
-2.7873e-05,1.12981e-05,-4.60365e-06,1.89349e-06,2.45867e-05,-1.54431e-05,5.96409e-06,8.55484e-07,0
-3.03699e-05,1.35999e-05,-7.1043e-06,-3.95169e-06,1.9225e-05,-1.79618e-05,3.41625e-07,-4.65804e-07,0
-3.31305e-05,1.69109e-05,-9.95051e-06,-8.77574e-06,1.40451e-05,-1.96541e-05,-1.97352e-06,-3.56985e-07,0
-3.46852e-05,1.90678e-05,-1.12805e-05,-1.16465e-05,1.21277e-05,-2.03287e-05,1.04283e-06,1.2892e-06,0
-3.4687e-05,1.8409e-05,-1.04732e-05,-1.31331e-05,1.31054e-05,-2.05512e-05,7.61485e-06,3.28467e-06,0
-3.29406e-05,1.63837e-05,-9.50239e-06,-1.46527e-05,1.45469e-05,-2.12913e-05,1.53714e-05,4.51678e-06,0
-2.99849e-05,1.56347e-05,-9.3562e-06,-1.51559e-05,1.44903e-05,-2.16131e-05,2.24614e-05,5.98282e-06,0
-2.7571e-05,1.64662e-05,-9.75216e-06,-1.34855e-05,1.50014e-05,-2.12263e-05,2.70516e-05,8.14521e-06,0
-2.68022e-05,1.68022e-05,-9.76139e-06,-1.03969e-05,1.61403e-05,-2.05642e-05,2.81975e-05,9.76187e-06,0
-2.72212e-05,1.66034e-05,-1.0073e-05,-8.95697e-06,1.70635e-05,-1.96501e-05,2.7249e-05,9.4322e-06,0
-2.81942e-05,1.87584e-05,-1.06125e-05,-1.00819e-05,1.71749e-05,-1.80208e-05,2.49014e-05,8.92231e-06,0
-2.89772e-05,2.19134e-05,-1.12381e-05,-1.19203e-05,1.6028e-05,-1.65057e-05,2.10883e-05,9.59274e-06,0
-2.8936e-05,2.26074e-05,-1.17905e-05,-1.32945e-05,1.40039e-05,-1.5416e-05,1.79693e-05,1.00124e-05,0
-2.78723e-05,2.08627e-05,-1.15487e-05,-1.2456e-05,1.25629e-05,-1.49386e-05,1.53909e-05,8.81557e-06,0
-2.62377e-05,1.96499e-05,-9.4023e-06,-7.16292e-06,1.18222e-05,-1.46272e-05,1.17203e-05,7.84899e-06,0
-2.60447e-05,1.96603e-05,-8.33334e-06,-1.75004e-06,1.18815e-05,-1.32822e-05,9.50989e-06,7.85036e-06,0
-2.70383e-05,1.79894e-05,-1.06693e-05,-1.29152e-07,1.25463e-05,-1.21978e-05,1.02053e-05,6.87742e-06,0
-2.7291e-05,1.61221e-05,-1.3319e-05,-1.92404e-07,1.46691e-05,-1.16078e-05,1.16599e-05,4.66929e-06,0
-2.74083e-05,1.37049e-05,-1.41786e-05,1.08035e-07,1.66444e-05,-1.06076e-05,1.23514e-05,2.67077e-06,0
-2.73272e-05,1.12227e-05,-1.53155e-05,9.69906e-07,1.591e-05,-8.79715e-06,1.13103e-05,3.4724e-06,0
-2.81066e-05,1.04704e-05,-1.58739e-05,1.01592e-06,1.51222e-05,-7.09807e-06,1.07041e-05,5.53182e-06,0
-2.8821e-05,1.08717e-05,-1.37013e-05,1.60949e-07,1.72149e-05,-8.1716e-06,1.17657e-05,5.81499e-06,0
-2.89419e-05,1.02584e-05,-1.11616e-05,7.63309e-07,2.11149e-05,-1.02261e-05,1.14567e-05,6.08917e-06,0
-2.86634e-05,8.81561e-06,-9.89001e-06,3.42463e-06,2.09626e-05,-1.13334e-05,1.05518e-05,7.01825e-06,0
-2.81718e-05,9.6238e-06,-9.73632e-06,7.40963e-06,1.81209e-05,-1.05747e-05,9.50906e-06,5.98079e-06,0
-2.91293e-05,1.01115e-05,-1.06186e-05,1.21245e-05,1.57277e-05,-9.99467e-06,8.99856e-06,3.84386e-06,0
-3.10081e-05,9.10601e-06,-1.18375e-05,1.61183e-05,1.47951e-05,-1.06009e-05,1.03074e-05,1.99684e-06,0
-3.21287e-05,9.07956e-06,-1.20114e-05,1.81964e-05,1.54151e-05,-1.13868e-05,1.09297e-05,9.51255e-07,0
-3.1359e-05,1.09668e-05,-1.00928e-05,1.79593e-05,1.56926e-05,-1.26327e-05,9.57205e-06,1.67989e-06,0
-2.94465e-05,1.41858e-05,-7.40127e-06,1.53217e-05,1.54507e-05,-1.31391e-05,8.8544e-06,3.57908e-06,0
-2.76372e-05,1.76859e-05,-5.49493e-06,9.93678e-06,1.55701e-05,-1.30653e-05,9.67035e-06,4.72693e-06,0
-2.9079e-05,2.01365e-05,-4.56331e-06,3.33802e-06,1.51988e-05,-1.17004e-05,1.01456e-05,4.21e-06,0
-3.3134e-05,2.06076e-05,-4.8051e-06,-1.72841e-06,1.33171e-05,-9.10346e-06,1.05877e-05,3.27855e-06,0
-3.59038e-05,1.93514e-05,-6.03582e-06,-3.04859e-06,1.17781e-05,-6.99295e-06,1.22259e-05,2.94523e-06,0
-3.56388e-05,1.77178e-05,-6.88288e-06,-1.51509e-06,1.21811e-05,-5.66502e-06,1.45904e-05,4.25795e-06,0
-3.42781e-05,1.71472e-05,-5.84084e-06,1.63932e-07,1.26406e-05,-3.95058e-06,1.5975e-05,5.63623e-06,0
-3.34674e-05,1.78064e-05,-4.50733e-06,-8.39216e-07,1.11291e-05,-3.41292e-06,1.61056e-05,4.52781e-06,0
-3.2259e-05,1.85939e-05,-4.1775e-06,-4.94785e-06,9.74867e-06,-4.16667e-06,1.50324e-05,1.57916e-06,0
-3.04398e-05,1.8145e-05,-3.90877e-06,-1.11824e-05,9.84649e-06,-3.16968e-06,1.31918e-05,-9.65689e-07,0
-2.83985e-05,1.56927e-05,-2.74187e-06,-1.93192e-05,1.13325e-05,-4.149e-07,1.20278e-05,-1.48497e-06,0
-2.69677e-05,1.32936e-05,-2.93556e-06,-3.24285e-05,1.28097e-05,3.84357e-07,1.2799e-05,-1.01074e-06,0
-2.80064e-05,1.27559e-05,-4.92701e-06,-5.13075e-05,1.26658e-05,1.45762e-07,1.4978e-05,-7.19037e-07,0
-3.07202e-05,1.12879e-05,-5.592e-06,-6.61242e-05,1.21957e-05,3.34605e-07,1.63703e-05,3.73992e-07,0
-3.14636e-05,7.93413e-06,-5.49477e-06,-6.7515e-05,1.2e-05,1.83906e-07,1.33951e-05,1.65148e-06,0
-2.99618e-05,2.59943e-06,-7.07861e-06,-5.68038e-05,1.17162e-05,-2.51294e-07,4.9965e-06,2.24822e-06,0
-2.92424e-05,-2.96971e-06,-9.73615e-06,-4.10529e-05,1.2431e-05,-2.11803e-06,-1.12985e-06,2.03505e-06,0
-2.99946e-05,-3.9075e-06,-1.03714e-05,-2.60206e-05,1.29409e-05,-3.51397e-06,-1.98674e-07,1.97004e-06,0
-2.9312e-05,-9.54731e-07,-9.39117e-06,-1.38415e-05,1.1913e-05,-3.34624e-06,4.00894e-06,2.80712e-06,0
-2.75273e-05,1.70559e-06,-8.2812e-06,-5.77909e-06,1.11158e-05,-2.67689e-06,3.73384e-06,2.35991e-06,0
-2.60268e-05,2.89349e-06,-7.99554e-06,-6.42907e-06,1.18968e-05,-1.91027e-06,-7.39682e-06,6.8122e-07,0
-2.57502e-05,4.7265e-06,-8.34184e-06,-2.15604e-05,1.33909e-05,-3.36407e-06,-1.81251e-05,-2.15835e-06,0
-2.61987e-05,6.99487e-06,-7.02456e-06,-4.56603e-05,1.33862e-05,-5.16792e-06,-1.81384e-05,-3.32642e-06,0
-2.72089e-05,8.89806e-06,-5.45877e-06,-6.55999e-05,1.10864e-05,-5.29441e-06,-8.87519e-06,-9.57253e-07,0
-2.90415e-05,1.10034e-05,-4.2046e-06,-7.41077e-05,8.73802e-06,-5.59879e-06,5.40325e-06,1.227e-06,0
-3.00555e-05,1.26209e-05,-3.23077e-06,-6.69776e-05,9.16571e-06,-6.47195e-06,1.97204e-05,2.78529e-08,0
-2.94899e-05,1.37683e-05,-2.70234e-06,-4.47245e-05,1.21748e-05,-6.8452e-06,3.14709e-05,-2.23247e-06,0
-2.77658e-05,1.39589e-05,-3.18128e-06,-1.00817e-05,1.4007e-05,-6.50649e-06,4.05991e-05,-1.89777e-06,0
-2.68495e-05,1.28203e-05,-5.25468e-06,3.60686e-05,1.26065e-05,-7.00373e-06,4.7567e-05,-3.10844e-07,0
-2.81863e-05,1.0781e-05,-7.48403e-06,8.6618e-05,8.71887e-06,-7.12022e-06,5.00791e-05,3.90698e-07,0
-3.11435e-05,8.42736e-06,-8.20515e-06,0.00012187,4.56143e-06,-6.60192e-06,4.8958e-05,-5.08695e-07,0
-3.36078e-05,6.37383e-06,-6.91226e-06,0.000123988,2.25415e-06,-7.50318e-06,4.56416e-05,-1.82513e-06,0
-3.49242e-05,4.4865e-06,-5.31464e-06,9.49137e-05,2.41522e-06,-1.04653e-05,4.11495e-05,-2.22791e-06,0
-3.57764e-05,2.76146e-06,-4.52751e-06,5.51123e-05,3.95308e-06,-1.31318e-05,3.65767e-05,-2.12696e-06,0
-3.57925e-05,3.36201e-06,-4.45531e-06,2.67813e-05,5.03832e-06,-1.38985e-05,3.2186e-05,-2.97394e-06,0
-3.46264e-05,7.2828e-06,-3.9734e-06,1.98553e-05,7.03113e-06,-1.29805e-05,2.52687e-05,-3.51056e-06,0
-3.38509e-05,1.18266e-05,-2.78331e-06,2.74546e-05,9.96319e-06,-1.16538e-05,1.71763e-05,-2.72736e-06,0
-3.45474e-05,1.34318e-05,-1.30333e-06,3.4771e-05,1.18132e-05,-1.16307e-05,1.23245e-05,-1.66479e-06,0
-3.66674e-05,1.34188e-05,-1.47516e-06,3.31011e-05,1.21203e-05,-1.3259e-05,1.04074e-05,-1.3875e-06,0
-3.80635e-05,1.32596e-05,-4.46229e-06,2.13155e-05,1.28615e-05,-1.45954e-05,8.47426e-06,-2.93709e-06,0
-3.74228e-05,1.16143e-05,-7.87278e-06,4.45207e-06,1.4316e-05,-1.35167e-05,5.46174e-06,-6.25377e-06,0
-3.60941e-05,1.00583e-05,-1.05869e-05,-1.16632e-05,1.3792e-05,-1.11259e-05,4.10505e-06,-9.61075e-06,0
-3.37309e-05,9.10132e-06,-1.30807e-05,-2.68247e-05,1.15205e-05,-8.27125e-06,4.53562e-06,-1.041e-05,0
-3.19517e-05,8.10498e-06,-1.40676e-05,-3.43791e-05,1.02386e-05,-6.40225e-06,5.19513e-06,-8.92218e-06,0
-3.12634e-05,8.39879e-06,-1.35845e-05,-2.92628e-05,1.17886e-05,-7.41764e-06,5.72625e-06,-6.09018e-06,0
-3.11896e-05,1.02571e-05,-1.26264e-05,-2.16414e-05,1.56414e-05,-8.72503e-06,4.09763e-06,-3.22439e-06,0
-3.18543e-05,1.06391e-05,-1.15468e-05,-1.8374e-05,1.81992e-05,-8.43268e-06,1.20007e-06,-1.8891e-06,0
-3.10748e-05,9.84394e-06,-1.01782e-05,-2.12356e-05,1.76334e-05,-7.93959e-06,-7.20899e-07,-2.41687e-06,0
-2.91488e-05,1.09213e-05,-9.75779e-06,-2.40336e-05,1.50937e-05,-9.39056e-06,-9.20958e-07,-3.95985e-06,0
-2.77546e-05,1.35431e-05,-1.039e-05,-2.24997e-05,1.39452e-05,-1.2029e-05,-7.04906e-08,-5.05658e-06,0
-2.85129e-05,1.51501e-05,-1.0742e-05,-1.957e-05,1.63511e-05,-1.25679e-05,7.1813e-07,-6.97755e-06,0
-3.02802e-05,1.49856e-05,-1.05829e-05,-1.90265e-05,1.85871e-05,-1.16549e-05,3.0711e-06,-9.4791e-06,0
-3.13159e-05,1.32743e-05,-8.98001e-06,-1.81243e-05,1.97443e-05,-1.15023e-05,4.9414e-06,-1.23661e-05,0
-3.12467e-05,1.15711e-05,-7.70983e-06,-1.24545e-05,1.95166e-05,-1.24961e-05,3.55269e-06,-1.25681e-05,0
-3.02507e-05,1.0475e-05,-8.01748e-06,-5.65698e-06,1.80722e-05,-1.29581e-05,2.12955e-06,-9.4513e-06,0
-2.92832e-05,9.23865e-06,-8.8371e-06,-1.31768e-06,1.71166e-05,-1.17415e-05,4.02056e-06,-6.64384e-06,0
-2.93793e-05,8.24299e-06,-9.09822e-06,-2.01778e-06,1.66203e-05,-9.93403e-06,6.05598e-06,-5.59196e-06,0
-3.08042e-05,8.15816e-06,-8.66272e-06,-5.99401e-06,1.63065e-05,-8.19643e-06,6.00644e-06,-5.23028e-06,0
-3.17849e-05,8.56375e-06,-8.29742e-06,-1.03787e-05,1.58732e-05,-6.92968e-06,5.75569e-06,-4.84849e-06,0
-3.11681e-05,8.34484e-06,-8.57199e-06,-1.26957e-05,1.54474e-05,-7.3501e-06,6.38259e-06,-6.11765e-06,0
-2.92439e-05,8.89126e-06,-9.54262e-06,-1.36932e-05,1.42907e-05,-8.39469e-06,7.14066e-06,-7.53785e-06,0
-2.76169e-05,9.50435e-06,-1.14792e-05,-1.23081e-05,1.36416e-05,-7.70438e-06,7.94514e-06,-8.03605e-06,0
-2.71552e-05,8.52672e-06,-1.40033e-05,-7.77011e-06,1.4652e-05,-5.53525e-06,8.36872e-06,-7.85618e-06,0
-2.794e-05,7.87247e-06,-1.56705e-05,-1.28035e-06,1.5277e-05,-4.31719e-06,8.29075e-06,-6.93222e-06,0
-2.96399e-05,9.5793e-06,-1.62568e-05,5.75107e-06,1.31907e-05,-4.74547e-06,8.3937e-06,-6.10114e-06,0
-3.20603e-05,1.07386e-05,-1.60781e-05,1.15168e-05,9.85935e-06,-5.76333e-06,7.51123e-06,-7.11114e-06,0
-3.39104e-05,9.57448e-06,-1.43832e-05,1.2398e-05,9.01191e-06,-7.71444e-06,4.92311e-06,-9.17402e-06,0
-3.46268e-05,7.64193e-06,-1.1438e-05,8.77112e-06,9.40172e-06,-1.04225e-05,2.42194e-06,-1.14327e-05,0
-3.40955e-05,6.58374e-06,-9.74927e-06,4.96931e-06,9.105e-06,-1.15946e-05,1.24976e-06,-1.15624e-05,0
-3.26603e-05,7.33895e-06,-9.99564e-06,2.53886e-06,7.95445e-06,-1.07493e-05,2.20637e-06,-8.6894e-06,0
-3.09029e-05,9.82647e-06,-1.21068e-05,1.57647e-06,5.14064e-06,-1.04366e-05,5.53113e-06,-6.41253e-06,0
-2.92011e-05,1.12365e-05,-1.33876e-05,-4.43283e-07,4.09519e-06,-1.14395e-05,8.73088e-06,-5.77138e-06,0
-2.77976e-05,1.09349e-05,-1.23868e-05,-3.18887e-06,4.05265e-06,-1.19927e-05,1.08589e-05,-4.45731e-06,0
-2.66153e-05,1.11612e-05,-1.23636e-05,-4.87933e-06,5.73942e-06,-1.13999e-05,1.19191e-05,-4.35052e-06,0
-2.65585e-05,1.20432e-05,-1.23392e-05,-3.99389e-06,9.06531e-06,-9.08056e-06,1.27638e-05,-3.30625e-06,0
-2.64978e-05,1.28285e-05,-1.17818e-05,-3.41814e-06,9.52763e-06,-7.09618e-06,1.35966e-05,-1.07375e-06,0
-2.66307e-05,1.23858e-05,-1.15752e-05,-5.23424e-06,7.12754e-06,-7.24832e-06,1.40555e-05,-3.54083e-07,0
-2.66996e-05,1.15768e-05,-1.22528e-05,-8.22556e-06,5.23853e-06,-8.73322e-06,1.44025e-05,1.36609e-06,0
-2.74908e-05,1.068e-05,-1.30052e-05,-1.13979e-05,6.30729e-06,-1.08351e-05,1.46879e-05,3.10741e-06,0
-2.88781e-05,1.00432e-05,-1.31337e-05,-1.30521e-05,8.08576e-06,-1.17632e-05,1.58313e-05,3.91428e-06,0
-2.90133e-05,1.03995e-05,-1.28981e-05,-1.34912e-05,9.26039e-06,-1.10127e-05,1.83373e-05,3.65617e-06,0
-2.83477e-05,1.03064e-05,-1.1843e-05,-1.5065e-05,8.63062e-06,-1.02235e-05,2.22943e-05,3.55267e-06,0
-2.77677e-05,7.72412e-06,-1.14242e-05,-1.78188e-05,6.725e-06,-1.06056e-05,2.61023e-05,3.93026e-06,0
-2.85086e-05,4.66216e-06,-1.16797e-05,-1.9765e-05,5.60878e-06,-1.08604e-05,2.75744e-05,5.18985e-06,0
-2.97599e-05,3.68712e-06,-1.19355e-05,-1.9532e-05,6.00279e-06,-9.99633e-06,2.62e-05,5.80975e-06,0
-2.99815e-05,3.64087e-06,-1.18485e-05,-1.72497e-05,7.13477e-06,-8.15495e-06,2.37391e-05,4.15277e-06,0
-2.95341e-05,3.63199e-06,-1.15131e-05,-1.4855e-05,8.62303e-06,-6.12373e-06,2.18624e-05,1.30748e-06,0
-2.8846e-05,3.92515e-06,-1.0541e-05,-1.36263e-05,9.53572e-06,-5.08596e-06,2.01641e-05,4.70898e-07,0
-2.74838e-05,4.72008e-06,-9.3543e-06,-1.28027e-05,9.5404e-06,-5.86297e-06,1.79195e-05,3.25559e-06,0
-2.67393e-05,7.64331e-06,-9.02209e-06,-8.96505e-06,8.63939e-06,-7.35162e-06,1.51651e-05,6.31095e-06,0
-2.75773e-05,1.40361e-05,-9.38861e-06,-1.48487e-06,8.31707e-06,-8.09651e-06,1.46253e-05,5.8674e-06,0
-2.90919e-05,2.07345e-05,-8.79288e-06,5.41288e-06,9.14139e-06,-7.58089e-06,2.02269e-05,3.15076e-06,0
-2.92601e-05,2.43804e-05,-7.6314e-06,1.0104e-05,8.97027e-06,-6.1639e-06,3.32763e-05,1.09536e-06,0
-2.88833e-05,2.43253e-05,-8.76736e-06,1.02908e-05,8.8971e-06,-4.88205e-06,4.77986e-05,1.28887e-06,0
-2.93456e-05,2.45996e-05,-1.15802e-05,5.07367e-06,9.57506e-06,-4.04859e-06,5.5158e-05,1.78499e-06,0
-2.96937e-05,2.81521e-05,-1.12993e-05,7.46872e-08,1.04569e-05,-3.56584e-06,5.36458e-05,7.00996e-07,0
-3.09529e-05,3.14477e-05,-6.22393e-06,-1.89051e-06,1.24439e-05,-2.94417e-06,4.29912e-05,5.0709e-07,0
-3.28801e-05,3.08857e-05,-1.43449e-06,-3.13651e-06,1.43253e-05,-1.72868e-06,2.74198e-05,1.55725e-06,0
-3.31527e-05,2.59862e-05,8.20595e-07,-5.2824e-06,1.4843e-05,-2.3959e-06,1.15988e-05,2.53062e-06,0
-3.29941e-05,1.95028e-05,4.46151e-07,-5.97632e-06,1.48556e-05,-5.30692e-06,-5.52653e-06,1.73719e-06,0
-3.37078e-05,1.30812e-05,-2.66756e-06,-9.9861e-06,1.40248e-05,-6.70259e-06,-2.05113e-05,9.65636e-07,0
-3.47201e-05,1.0294e-05,-5.26429e-06,-2.02445e-05,1.31421e-05,-6.20726e-06,-2.69806e-05,1.0656e-06,0
-3.55808e-05,1.13462e-05,-5.29177e-06,-2.98636e-05,1.18418e-05,-4.94543e-06,-1.85131e-05,1.83194e-06,0
-3.62486e-05,1.23673e-05,-4.55347e-06,-3.40033e-05,1.05276e-05,-4.18644e-06,-2.27275e-06,2.65376e-06,0
-3.67462e-05,1.36612e-05,-5.64882e-06,-3.48052e-05,1.08409e-05,-4.13021e-06,1.04048e-05,4.56748e-06,0
-3.56294e-05,1.51446e-05,-7.98135e-06,-3.87115e-05,1.21877e-05,-4.6519e-06,1.76791e-05,7.31845e-06,0
-3.34913e-05,1.56927e-05,-1.01477e-05,-5.11844e-05,1.37372e-05,-6.5331e-06,1.97847e-05,8.00648e-06,0
-3.23759e-05,1.4966e-05,-1.00273e-05,-6.8099e-05,1.43626e-05,-8.25334e-06,1.70856e-05,8.07973e-06,0
-3.22548e-05,1.42405e-05,-8.11559e-06,-7.13053e-05,1.34992e-05,-7.4797e-06,9.13104e-06,9.11683e-06,0
-3.1274e-05,1.61339e-05,-7.43828e-06,-4.96949e-05,1.24536e-05,-5.65219e-06,-6.65058e-07,1.06787e-05,0
-2.99071e-05,1.94119e-05,-8.37103e-06,-1.19982e-05,1.2908e-05,-4.68204e-06,-8.84034e-06,9.90928e-06,0
-2.9742e-05,2.13711e-05,-9.36174e-06,2.30982e-05,1.41972e-05,-4.97074e-06,-1.25123e-05,5.55648e-06,0
-3.07825e-05,2.30381e-05,-9.0992e-06,4.4128e-05,1.4938e-05,-6.09469e-06,-1.19213e-05,3.43672e-07,0
-3.18984e-05,2.46102e-05,-7.30022e-06,5.21474e-05,1.49966e-05,-6.35802e-06,-1.03236e-05,-1.74039e-06,0
-3.21002e-05,2.37717e-05,-4.63725e-06,5.53269e-05,1.43701e-05,-6.42572e-06,-9.77941e-06,-2.03387e-06,0
-3.10777e-05,2.13641e-05,-4.00193e-06,5.9238e-05,1.3911e-05,-6.95493e-06,-9.17989e-06,-3.73064e-06,0
-2.93508e-05,2.09771e-05,-6.22046e-06,5.99986e-05,1.40532e-05,-6.80051e-06,-7.08447e-06,-5.25836e-06,0
-2.75988e-05,2.12826e-05,-9.79162e-06,5.09236e-05,1.49511e-05,-5.98416e-06,-3.70413e-06,-4.14443e-06,0
-2.6509e-05,2.07958e-05,-1.20394e-05,3.11264e-05,1.7873e-05,-4.9027e-06,2.84512e-07,-1.41213e-06,0
-2.74475e-05,1.9547e-05,-1.12857e-05,7.0882e-06,2.09271e-05,-4.10896e-06,3.60907e-06,5.5958e-07,0
-3.00498e-05,1.77772e-05,-8.93093e-06,-8.98867e-06,1.97402e-05,-3.88694e-06,6.31496e-06,1.63662e-06,0
-3.05461e-05,1.76818e-05,-7.10893e-06,-1.12888e-05,1.52211e-05,-4.74644e-06,9.17016e-06,2.30639e-06,0
-2.87625e-05,2.02582e-05,-6.25754e-06,-4.81534e-06,1.26212e-05,-6.74802e-06,1.30072e-05,4.02217e-06,0
-2.80998e-05,2.3828e-05,-5.62425e-06,8.74727e-07,1.4886e-05,-8.63631e-06,1.63632e-05,8.05106e-06,0
-2.78507e-05,2.70783e-05,-4.41937e-06,-3.2245e-06,2.08872e-05,-9.88757e-06,1.78764e-05,9.89621e-06,0
-2.74916e-05,2.95381e-05,-4.06427e-06,-1.27177e-05,2.3734e-05,-9.50861e-06,1.82312e-05,8.93142e-06,0
-2.55976e-05,3.04644e-05,-4.30171e-06,-1.95459e-05,2.0808e-05,-9.70402e-06,1.68644e-05,9.53268e-06,0
-2.33908e-05,3.08926e-05,-5.27814e-06,-2.28558e-05,1.83093e-05,-1.11795e-05,1.48731e-05,1.10901e-05,0
-2.39792e-05,3.08825e-05,-7.8847e-06,-2.17926e-05,1.83075e-05,-1.17636e-05,1.33999e-05,1.21476e-05,0
-2.60282e-05,3.02222e-05,-7.98128e-06,-1.68221e-05,1.839e-05,-1.11839e-05,1.16294e-05,1.22209e-05,0
-2.69486e-05,2.88315e-05,-6.21102e-06,-1.26689e-05,1.76503e-05,-1.02597e-05,1.15623e-05,1.28796e-05,0
-2.59346e-05,2.66587e-05,-5.23029e-06,-1.24491e-05,1.72547e-05,-9.2085e-06,1.29352e-05,1.35061e-05,0
-2.44783e-05,2.55571e-05,-4.83996e-06,-1.2969e-05,1.82268e-05,-8.58876e-06,1.59238e-05,1.35646e-05,0
-2.49468e-05,2.59488e-05,-3.75505e-06,-1.12484e-05,1.96099e-05,-9.11381e-06,1.99657e-05,1.36253e-05,0
-2.71169e-05,2.63804e-05,-3.28863e-06,-7.75007e-06,1.94121e-05,-9.07262e-06,2.28162e-05,1.34063e-05,0
-2.80489e-05,2.45758e-05,-5.12845e-06,-4.39091e-06,1.78532e-05,-8.10419e-06,2.30776e-05,1.36609e-05,0
-2.71446e-05,2.12459e-05,-6.29323e-06,-1.6006e-06,1.66122e-05,-7.26455e-06,2.18754e-05,1.40082e-05,0
-2.68768e-05,1.8423e-05,-6.27935e-06,-4.32421e-08,1.6836e-05,-6.3716e-06,2.16174e-05,1.2901e-05,0
-2.8881e-05,1.62418e-05,-7.16948e-06,-1.04176e-06,1.76714e-05,-5.49466e-06,2.31499e-05,1.05015e-05,0
-3.18405e-05,1.42227e-05,-8.52725e-06,-2.46041e-06,1.69633e-05,-5.25446e-06,2.66054e-05,9.16405e-06,0
-3.30331e-05,1.28516e-05,-8.8992e-06,-2.42027e-06,1.61676e-05,-4.59935e-06,2.94362e-05,9.2358e-06,0
-3.10451e-05,1.37637e-05,-8.98315e-06,-1.09928e-06,1.61324e-05,-3.6493e-06,2.95745e-05,9.15487e-06,0
-2.89635e-05,1.55924e-05,-9.6973e-06,-3.5513e-07,1.56219e-05,-3.73639e-06,2.74692e-05,8.20078e-06,0
-2.86797e-05,1.60503e-05,-1.12989e-05,-9.73267e-07,1.50454e-05,-4.3572e-06,2.52957e-05,7.07656e-06,0
-2.92285e-05,1.46398e-05,-1.22838e-05,-2.17375e-06,1.50283e-05,-4.81726e-06,2.44878e-05,5.53262e-06,0
-2.97581e-05,1.35293e-05,-1.21779e-05,-3.81957e-06,1.40268e-05,-4.95341e-06,2.54093e-05,4.16121e-06,0
-3.00671e-05,1.23516e-05,-1.19577e-05,-4.77486e-06,1.16402e-05,-4.06511e-06,2.63413e-05,4.35672e-06,0
-3.05554e-05,8.78958e-06,-1.15576e-05,-3.87275e-06,1.04188e-05,-2.65485e-06,2.653e-05,4.96319e-06,0
-3.10907e-05,2.80123e-06,-1.01145e-05,-2.69965e-06,1.0592e-05,-2.25259e-06,2.50439e-05,3.00406e-06,0
-3.2212e-05,-2.03164e-06,-8.54454e-06,-1.78389e-06,1.11567e-05,-4.35398e-06,2.17026e-05,-5.4537e-07,0
-3.21323e-05,-2.86025e-06,-7.47316e-06,-4.9659e-07,1.26838e-05,-6.89649e-06,1.63608e-05,-2.85468e-06,0
-2.99898e-05,-3.2342e-06,-5.70381e-06,4.48153e-07,1.33811e-05,-7.03865e-06,1.10572e-05,-3.68144e-06,0
-2.82938e-05,-3.82437e-06,-6.21756e-06,2.69207e-07,1.36599e-05,-6.26058e-06,7.70848e-06,-4.56487e-06,0
-2.85533e-05,-2.87486e-06,-7.71546e-06,-2.32294e-06,1.3123e-05,-6.45598e-06,5.93203e-06,-5.38621e-06,0
-2.91429e-05,-9.87777e-07,-8.10916e-06,-5.72249e-06,1.16184e-05,-8.21745e-06,5.25099e-06,-4.96006e-06,0
-2.98288e-05,2.65794e-07,-8.71766e-06,-8.34082e-06,1.27988e-05,-1.13174e-05,4.85427e-07,-4.74969e-06,0
-3.23736e-05,1.56807e-06,-9.76342e-06,-1.07973e-05,1.25937e-05,-1.32486e-05,-5.03688e-06,-4.48363e-06,0
-3.30081e-05,2.61395e-06,-1.13407e-05,-1.14416e-05,1.1316e-05,-1.35746e-05,-4.4621e-06,-4.63997e-06,0
-3.17611e-05,2.90205e-06,-1.29107e-05,-1.13811e-05,1.27883e-05,-1.43873e-05,4.72987e-07,-6.07987e-06,0
-3.09632e-05,5.0021e-06,-1.32002e-05,-1.15404e-05,1.54625e-05,-1.61673e-05,5.73508e-06,-8.02511e-06,0
-3.13639e-05,8.15505e-06,-1.17318e-05,-1.14649e-05,1.70137e-05,-1.78609e-05,1.1743e-05,-9.96922e-06,0
-3.26182e-05,1.17995e-05,-9.62776e-06,-1.11987e-05,1.62843e-05,-1.81286e-05,1.81626e-05,-1.10058e-05,0
-3.30165e-05,1.47147e-05,-6.96785e-06,-1.07231e-05,1.43711e-05,-1.8024e-05,2.20121e-05,-1.16053e-05,0
-3.2543e-05,1.51676e-05,-5.42456e-06,-9.89893e-06,1.26071e-05,-1.88548e-05,2.32164e-05,-1.21095e-05,0
-3.15714e-05,1.4827e-05,-5.64938e-06,-8.22828e-06,1.15882e-05,-1.95665e-05,2.2849e-05,-1.1403e-05,0
-3.18371e-05,1.62248e-05,-6.17446e-06,-7.9966e-06,1.20734e-05,-1.90523e-05,2.23115e-05,-1.04701e-05,0
-3.28904e-05,1.83189e-05,-5.74953e-06,-9.78245e-06,1.49788e-05,-1.8558e-05,2.10683e-05,-9.57367e-06,0
-3.40831e-05,1.7776e-05,-5.40728e-06,-9.97778e-06,1.85536e-05,-1.85955e-05,1.93131e-05,-7.35593e-06,0
-3.45309e-05,1.52969e-05,-5.90938e-06,-6.17424e-06,2.0141e-05,-1.71223e-05,1.77073e-05,-4.52278e-06,0
-3.3347e-05,1.32503e-05,-7.17801e-06,-3.51606e-06,1.8837e-05,-1.41545e-05,1.67326e-05,-2.59236e-06,0
-3.14968e-05,1.08594e-05,-8.64846e-06,-5.94881e-06,1.71102e-05,-1.26137e-05,1.66361e-05,-2.19623e-06,0
-3.09696e-05,8.82531e-06,-9.26685e-06,-9.87634e-06,1.72171e-05,-1.27809e-05,1.71934e-05,-2.91541e-06,0
-3.15939e-05,8.22712e-06,-9.52806e-06,-1.00987e-05,1.85102e-05,-1.36234e-05,1.69133e-05,-3.44607e-06,0
-3.30538e-05,7.16814e-06,-9.49019e-06,-7.04688e-06,1.97595e-05,-1.37908e-05,1.43315e-05,-2.38355e-06,0
-3.44624e-05,6.88175e-06,-9.78227e-06,-3.81603e-06,1.95934e-05,-1.4115e-05,1.22514e-05,-2.09689e-06,0
-3.53347e-05,7.77252e-06,-9.79888e-06,-2.10078e-06,1.73436e-05,-1.4657e-05,1.19187e-05,-2.99211e-06,0
-3.60802e-05,7.38705e-06,-1.10237e-05,-2.83764e-06,1.6785e-05,-1.39682e-05,1.16229e-05,-2.60303e-06,0
-3.47256e-05,5.16893e-06,-1.32243e-05,-5.21857e-06,1.84585e-05,-1.335e-05,9.90393e-06,-2.44467e-06,0
-3.23151e-05,2.51847e-06,-1.18511e-05,-8.03468e-06,1.95565e-05,-1.38511e-05,8.38116e-06,-2.8426e-06,0
-3.02894e-05,-7.74716e-07,-7.70585e-06,-8.45015e-06,1.9166e-05,-1.48938e-05,8.43561e-06,-2.97457e-06,0
-2.8374e-05,-2.07376e-06,-5.0994e-06,-7.32929e-06,1.66659e-05,-1.50437e-05,5.57303e-06,-2.68339e-06,0
-2.73696e-05,2.29212e-07,-4.31046e-06,-7.46643e-06,1.33745e-05,-1.50128e-05,-7.7923e-08,-1.11364e-07,0
-2.71763e-05,1.83529e-06,-2.93291e-06,-6.68743e-06,1.24429e-05,-1.42449e-05,-5.11504e-06,3.44871e-06,0
-2.70923e-05,1.57021e-06,-2.02478e-06,-5.00717e-06,1.31334e-05,-1.33237e-05,-9.54227e-06,5.94633e-06,0
-2.68082e-05,-5.32701e-07,-2.56825e-06,-4.41874e-06,1.36188e-05,-1.35031e-05,-1.67182e-05,7.11546e-06,0
-2.76343e-05,-2.96267e-06,-3.65155e-06,-4.84223e-06,1.37214e-05,-1.4851e-05,-2.74203e-05,6.21356e-06,0
-2.92861e-05,-5.70924e-06,-4.046e-06,-5.79521e-06,1.26139e-05,-1.54125e-05,-3.24619e-05,4.02708e-06,0
-2.97672e-05,-8.18911e-06,-3.91976e-06,-5.95368e-06,1.09801e-05,-1.30437e-05,-2.75207e-05,2.19694e-06,0
-2.98876e-05,-8.19907e-06,-3.477e-06,-4.47934e-06,9.11324e-06,-9.59948e-06,-1.6224e-05,1.11985e-06,0
-3.04907e-05,-7.42669e-06,-2.15193e-06,-2.17976e-06,9.02226e-06,-8.01407e-06,-1.86686e-06,-1.20429e-07,0
-3.13443e-05,-6.34314e-06,-7.81594e-07,-6.68292e-07,1.07155e-05,-8.88472e-06,1.39158e-05,-1.2573e-06,0
-3.19724e-05,-4.59215e-06,-5.4378e-07,-2.31296e-07,1.27848e-05,-9.7647e-06,2.85147e-05,-2.36184e-06,0
-3.23891e-05,-2.79548e-06,-1.59355e-06,-1.5003e-07,1.36698e-05,-9.20017e-06,4.0309e-05,-3.29124e-06,0
-3.25127e-05,8.30204e-08,-2.36599e-06,9.24378e-07,1.24043e-05,-7.16377e-06,4.95778e-05,-2.68966e-06,0
-3.28081e-05,5.36451e-06,-3.09992e-06,3.02903e-06,9.36776e-06,-5.60883e-06,5.38554e-05,-8.31665e-07,0
-3.29757e-05,1.09764e-05,-4.36526e-06,4.66697e-06,5.74836e-06,-5.11889e-06,5.23328e-05,9.14991e-08,0
-3.25914e-05,1.36716e-05,-4.61622e-06,4.38392e-06,4.09841e-06,-3.77222e-06,4.79654e-05,1.16179e-07,0
-3.21007e-05,1.26107e-05,-3.33663e-06,1.39971e-06,4.98276e-06,-1.44123e-06,4.3098e-05,-2.8536e-07,0
-3.21147e-05,9.99783e-06,-2.62725e-06,-8.39019e-07,7.06137e-06,8.34804e-07,3.86774e-05,-2.10526e-06,0
-3.22838e-05,7.85035e-06,-3.80012e-06,2.54041e-06,1.00304e-05,2.90942e-06,3.50787e-05,-2.63543e-06,0
-3.08486e-05,7.03462e-06,-6.63681e-06,7.54117e-06,1.27112e-05,2.4667e-06,3.15982e-05,-9.20136e-07,0
-2.89701e-05,7.87937e-06,-9.30263e-06,1.20611e-05,1.32014e-05,2.07045e-07,2.84156e-05,-1.12488e-08,0
-3.01349e-05,9.34457e-06,-1.17944e-05,2.4296e-05,1.24615e-05,-7.6368e-07,2.63627e-05,-3.64754e-07,0
-3.20697e-05,8.26044e-06,-1.41067e-05,4.21153e-05,1.13453e-05,-4.54748e-07,2.48537e-05,7.24674e-07,0
-3.20532e-05,7.04288e-06,-1.46669e-05,4.8187e-05,1.08917e-05,9.90622e-07,2.11126e-05,2.32687e-06,0
-3.23247e-05,7.8803e-06,-1.37664e-05,3.0773e-05,1.1978e-05,2.37574e-06,1.58887e-05,3.29294e-06,0
-3.15555e-05,1.0155e-05,-1.24787e-05,4.5946e-06,1.31829e-05,1.31876e-06,1.26875e-05,4.42361e-06,0
-3.07929e-05,1.32309e-05,-1.18092e-05,-9.8634e-06,1.25232e-05,-2.8234e-06,1.09127e-05,6.00846e-06,0
-3.0759e-05,1.46554e-05,-1.0937e-05,-1.23177e-05,9.93148e-06,-6.27549e-06,9.08651e-06,8.38023e-06,0
-2.99881e-05,1.5679e-05,-9.79267e-06,-1.19945e-05,7.61253e-06,-7.26239e-06,5.87443e-06,1.09793e-05,0
-2.9054e-05,1.44747e-05,-9.77649e-06,-1.64563e-05,6.80574e-06,-7.60408e-06,1.59e-06,1.35972e-05,0
-2.79135e-05,1.43293e-05,-9.53211e-06,-2.43537e-05,6.28998e-06,-7.53925e-06,-1.4971e-06,1.33893e-05,0
-2.74366e-05,2.033e-05,-8.58098e-06,-3.41362e-05,6.80119e-06,-7.25205e-06,-2.87362e-06,1.09923e-05,0
-2.70612e-05,2.88416e-05,-8.60099e-06,-4.5884e-05,7.53795e-06,-8.33107e-06,-3.10417e-06,8.23066e-06,0
-2.8329e-05,3.3532e-05,-1.0629e-05,-5.55123e-05,7.60976e-06,-9.80785e-06,-2.23762e-06,5.75477e-06,0
-3.13032e-05,3.30713e-05,-1.43548e-05,-5.93781e-05,6.76557e-06,-1.05418e-05,-7.49747e-07,4.73425e-06,0
-3.34347e-05,2.93797e-05,-1.74283e-05,-5.81803e-05,4.61576e-06,-1.13137e-05,-8.23783e-08,4.72827e-06,0
-3.28617e-05,2.3595e-05,-1.82156e-05,-5.20651e-05,2.87266e-06,-1.15202e-05,-7.28284e-07,4.99264e-06,0
-3.03429e-05,1.71111e-05,-1.68401e-05,-3.94073e-05,3.18009e-06,-1.10667e-05,-9.73906e-07,4.45127e-06,0
-2.87663e-05,1.10516e-05,-1.46206e-05,-2.44885e-05,5.95892e-06,-1.09234e-05,1.12589e-06,3.72071e-06,0
-2.86997e-05,6.3609e-06,-1.21044e-05,-1.26248e-05,1.01614e-05,-1.13377e-05,4.42627e-06,3.61946e-06,0
-2.8458e-05,2.23527e-06,-1.01656e-05,-4.24278e-06,1.39643e-05,-1.18865e-05,6.88416e-06,5.02698e-06,0
-2.75058e-05,-2.01766e-06,-8.71113e-06,3.83555e-06,1.49009e-05,-1.27971e-05,7.86178e-06,7.49111e-06,0
-2.79913e-05,-5.1396e-06,-7.61648e-06,1.09361e-05,1.48279e-05,-1.34131e-05,8.11278e-06,9.10971e-06,0
-2.95181e-05,-3.61344e-06,-7.85814e-06,1.26905e-05,1.53945e-05,-1.28571e-05,8.24927e-06,8.4302e-06,0
-3.09033e-05,1.93864e-06,-9.31519e-06,6.04128e-06,1.47011e-05,-1.21082e-05,6.80151e-06,5.93399e-06,0
-3.05676e-05,9.50355e-06,-1.04589e-05,-4.56742e-06,1.30469e-05,-1.13483e-05,5.0645e-06,2.89031e-06,0
-2.80315e-05,1.71345e-05,-1.0764e-05,-9.97185e-06,1.31274e-05,-1.05239e-05,5.37639e-06,1.74286e-06,0
-2.59922e-05,2.24607e-05,-1.02081e-05,-9.70351e-06,1.53476e-05,-1.0794e-05,6.80373e-06,3.74079e-06,0
-2.65048e-05,2.4558e-05,-9.81485e-06,-9.78287e-06,1.72648e-05,-1.0944e-05,8.23066e-06,6.88926e-06,0
-2.87668e-05,2.49134e-05,-1.01217e-05,-1.03016e-05,1.79065e-05,-9.98996e-06,8.97211e-06,7.18753e-06,0
-3.14433e-05,2.53576e-05,-1.2083e-05,-1.04597e-05,1.85468e-05,-9.69507e-06,1.03605e-05,4.72342e-06,0
-3.19496e-05,2.32329e-05,-1.62795e-05,-1.59318e-05,1.94916e-05,-1.08209e-05,1.18062e-05,3.98022e-06,0
-3.04058e-05,2.05249e-05,-1.9198e-05,-2.33161e-05,1.94638e-05,-1.16139e-05,1.38511e-05,3.83308e-06,0
-2.8463e-05,1.93329e-05,-1.90475e-05,-2.66756e-05,1.92022e-05,-1.11581e-05,1.6302e-05,3.72656e-06,0
-2.62474e-05,1.76614e-05,-1.64388e-05,-2.73129e-05,1.961e-05,-1.0599e-05,1.54674e-05,4.87876e-06,0
-2.61496e-05,1.6337e-05,-1.53186e-05,-2.50758e-05,1.87284e-05,-9.35287e-06,1.26444e-05,7.05202e-06,0
-2.82363e-05,1.5352e-05,-1.42771e-05,-1.8373e-05,1.75496e-05,-7.52544e-06,1.0656e-05,7.74732e-06,0
-3.00597e-05,1.41749e-05,-1.19932e-05,-8.15392e-06,1.79119e-05,-7.01353e-06,1.04369e-05,5.28961e-06,0
-2.97698e-05,1.37179e-05,-1.10595e-05,3.11353e-07,1.89174e-05,-7.86625e-06,1.2042e-05,3.26097e-06,0
-2.80664e-05,1.47235e-05,-1.08841e-05,6.00089e-06,1.82295e-05,-8.4065e-06,1.40166e-05,1.03256e-06,0
-2.63668e-05,1.54566e-05,-1.05905e-05,9.55511e-06,1.57304e-05,-8.91119e-06,1.49246e-05,-1.90757e-06,0
-2.59338e-05,1.5601e-05,-9.22804e-06,1.30691e-05,1.46028e-05,-9.65425e-06,1.5305e-05,-3.00865e-06,0
-2.61761e-05,1.51706e-05,-7.39663e-06,1.53587e-05,1.5526e-05,-1.04418e-05,1.51793e-05,-1.95784e-06,0
-2.70469e-05,1.50777e-05,-6.72382e-06,1.4236e-05,1.72353e-05,-1.20567e-05,1.48323e-05,-1.3184e-06,0
-2.94767e-05,1.61809e-05,-8.26671e-06,1.06494e-05,1.84641e-05,-1.39429e-05,1.46393e-05,-3.39585e-06,0
-3.18715e-05,1.70535e-05,-1.07522e-05,6.91685e-06,1.82051e-05,-1.39552e-05,1.52781e-05,-6.30325e-06,0
-3.17868e-05,1.79592e-05,-1.16543e-05,4.87176e-06,1.66699e-05,-1.21917e-05,1.57684e-05,-7.53931e-06,0
-2.98698e-05,1.87303e-05,-8.96679e-06,3.26401e-06,1.52385e-05,-1.08643e-05,1.48118e-05,-6.49006e-06,0
-2.8569e-05,1.91485e-05,-4.79829e-06,2.26191e-06,1.36848e-05,-1.09113e-05,1.30136e-05,-5.09238e-06,0
-2.84725e-05,1.92445e-05,-2.13154e-06,2.02776e-06,1.19657e-05,-1.19637e-05,1.21587e-05,-4.25182e-06,0
-2.93811e-05,1.96752e-05,-1.51139e-06,1.72931e-06,1.23914e-05,-1.21177e-05,1.31255e-05,-4.46858e-06,0
-3.10443e-05,2.00903e-05,-1.35716e-06,1.19024e-06,1.64848e-05,-1.07151e-05,1.49869e-05,-6.05129e-06,0
-3.33314e-05,2.05744e-05,3.78197e-07,2.72315e-06,2.16919e-05,-9.2319e-06,1.88378e-05,-7.9823e-06,0
-3.42319e-05,2.04605e-05,2.77761e-06,4.28538e-06,2.39774e-05,-9.7748e-06,2.26275e-05,-7.76278e-06,0
-3.47976e-05,1.87375e-05,3.49624e-06,3.98921e-06,2.16563e-05,-1.23084e-05,2.26223e-05,-5.3805e-06,0
-3.53686e-05,1.72242e-05,1.34074e-06,2.85496e-06,1.74124e-05,-1.42697e-05,2.04526e-05,-4.84926e-06,0
-3.39672e-05,1.61454e-05,-1.63798e-06,3.13845e-06,1.42076e-05,-1.50119e-05,1.9304e-05,-6.3717e-06,0
-3.24581e-05,1.46957e-05,-3.52201e-06,2.14872e-06,1.26154e-05,-1.53171e-05,1.95701e-05,-5.59401e-06,0
-3.26068e-05,1.4786e-05,-5.27413e-06,-1.69739e-06,1.0986e-05,-1.55064e-05,1.89076e-05,-1.207e-06,0
-3.35766e-05,1.35343e-05,-7.08037e-06,-4.86176e-06,8.29612e-06,-1.54235e-05,1.67993e-05,3.5635e-06,0
-3.35514e-05,9.66614e-06,-8.70729e-06,-5.4049e-06,7.02386e-06,-1.49421e-05,1.55986e-05,5.86495e-06,0
-3.23881e-05,8.25113e-06,-8.58724e-06,-5.54552e-06,6.41623e-06,-1.5198e-05,1.51931e-05,4.95823e-06,0
-3.3104e-05,8.07829e-06,-5.60597e-06,-4.57393e-06,5.69481e-06,-1.46258e-05,1.39729e-05,2.84752e-06,0
-3.4682e-05,6.94996e-06,-3.06934e-06,-2.23546e-06,6.49562e-06,-1.33067e-05,1.27666e-05,6.98948e-07,0
-3.44398e-05,6.2102e-06,-4.1341e-06,-1.81605e-06,8.88045e-06,-1.33221e-05,1.24244e-05,-2.88679e-07,0
-3.35756e-05,5.07717e-06,-6.81618e-06,-1.24614e-06,1.22092e-05,-1.36376e-05,1.15322e-05,-2.85773e-07,0
-3.24602e-05,3.37081e-06,-7.07587e-06,-7.20738e-07,1.41515e-05,-1.30225e-05,1.07796e-05,-6.49919e-07,0
-3.12019e-05,2.34366e-06,-6.24853e-06,-6.8205e-07,1.3341e-05,-1.18773e-05,1.00632e-05,-5.66993e-07,0
-2.93707e-05,3.21007e-06,-6.38548e-06,3.854e-07,1.18632e-05,-1.00216e-05,8.07666e-06,6.37059e-07,0
-2.83638e-05,5.94387e-06,-6.47901e-06,2.67732e-06,1.05307e-05,-8.16658e-06,6.68959e-06,2.08287e-06,0
-2.92953e-05,7.66377e-06,-5.43788e-06,3.79328e-06,9.48298e-06,-8.43009e-06,7.23589e-06,1.72109e-06,0
-3.15631e-05,7.51355e-06,-3.65581e-06,2.56513e-06,8.58127e-06,-9.1887e-06,7.65243e-06,3.11478e-07,0
-3.26591e-05,6.16466e-06,-2.55037e-06,1.04495e-06,7.63411e-06,-8.36906e-06,8.16107e-06,-3.39066e-07,0
-3.11312e-05,4.26121e-06,-2.4897e-06,5.85631e-07,6.31622e-06,-7.42738e-06,1.07335e-05,1.66659e-07,0
-2.98512e-05,2.80398e-06,-2.69347e-06,-7.91564e-07,4.32412e-06,-7.75442e-06,1.52087e-05,1.50548e-06,0
-3.04428e-05,2.72059e-06,-3.28885e-06,-2.89801e-06,2.59297e-06,-9.22072e-06,1.9069e-05,2.12962e-06,0
-3.21345e-05,3.19611e-06,-4.71796e-06,-4.09192e-06,3.11036e-06,-9.99035e-06,1.96606e-05,7.29243e-07,0
-3.33383e-05,3.56456e-06,-6.73342e-06,-3.84808e-06,5.92763e-06,-7.66364e-06,1.7508e-05,-1.35469e-06,0
-3.23508e-05,5.97413e-06,-7.8291e-06,-2.79273e-06,6.90545e-06,-4.50786e-06,1.65232e-05,-2.46804e-06,0
-3.07408e-05,8.44608e-06,-6.36054e-06,-2.30952e-06,5.03461e-06,-3.58766e-06,1.97628e-05,-2.10386e-06,0
-3.02005e-05,8.87415e-06,-5.47947e-06,-2.8288e-06,2.91074e-06,-5.18853e-06,2.45734e-05,3.86455e-07,0
-3.01546e-05,1.00849e-05,-6.06847e-06,-3.58006e-06,2.1935e-06,-7.71613e-06,2.70463e-05,2.32526e-06,0
-2.94748e-05,1.05586e-05,-6.07614e-06,-4.11116e-06,2.50104e-06,-8.55727e-06,2.72059e-05,1.84864e-06,0
-2.70655e-05,8.79522e-06,-6.75634e-06,-4.4133e-06,2.83111e-06,-7.22524e-06,2.58424e-05,9.45754e-07,0
-2.54476e-05,8.92208e-06,-8.07971e-06,-4.73599e-06,2.46e-06,-5.6749e-06,2.10153e-05,6.21467e-07,0
-2.6324e-05,1.19735e-05,-8.60129e-06,-7.07664e-06,3.18455e-06,-5.43239e-06,1.63171e-05,5.74217e-07,0
-2.81862e-05,1.50767e-05,-7.76045e-06,-9.48481e-06,6.40848e-06,-6.25288e-06,2.01073e-05,-1.73495e-07,0
-2.77944e-05,1.77421e-05,-6.84868e-06,-1.01428e-05,7.67624e-06,-6.78738e-06,3.00025e-05,-8.9674e-07,0
-2.7044e-05,2.00829e-05,-5.53672e-06,-1.02595e-05,5.41988e-06,-7.47964e-06,3.65394e-05,-2.01917e-07,0
-2.75358e-05,2.09701e-05,-4.31994e-06,-1.13375e-05,4.20452e-06,-7.90798e-06,3.56828e-05,1.28889e-06,0
-2.85423e-05,2.0086e-05,-4.46208e-06,-1.29229e-05,5.44851e-06,-7.83993e-06,2.91234e-05,2.57254e-06,0
-2.90468e-05,2.31102e-05,-4.51589e-06,-1.50641e-05,7.12877e-06,-7.93024e-06,2.0541e-05,2.67519e-06,0
-2.77093e-05,3.46898e-05,-4.35057e-06,-1.90738e-05,8.7273e-06,-8.4317e-06,9.27002e-06,1.4036e-06,0
-2.68344e-05,4.99582e-05,-3.89974e-06,-2.32618e-05,1.11805e-05,-9.61132e-06,-3.357e-06,1.18397e-06,0
-2.68499e-05,6.09593e-05,-3.25916e-06,-2.63883e-05,1.37e-05,-1.04851e-05,-1.58074e-05,1.21431e-06,0
-2.73666e-05,6.18311e-05,-2.99996e-06,-2.7514e-05,1.50802e-05,-1.09424e-05,-2.59628e-05,1.0223e-06,0
-2.79908e-05,5.1008e-05,-4.34043e-06,-2.72399e-05,1.5703e-05,-1.08878e-05,-2.92457e-05,1.93098e-06,0
-2.83745e-05,3.15152e-05,-6.62276e-06,-2.57057e-05,1.45631e-05,-1.14203e-05,-2.56474e-05,1.76323e-06,0
-2.82286e-05,9.71743e-06,-7.73333e-06,-2.10584e-05,1.13853e-05,-1.19977e-05,-1.90233e-05,-8.13089e-07,0
-2.82866e-05,-1.19798e-05,-7.70646e-06,-1.15973e-05,7.86992e-06,-1.20576e-05,-1.14182e-05,-4.80166e-06,0
-2.88903e-05,-3.16693e-05,-8.62634e-06,-3.08566e-06,5.26022e-06,-1.27851e-05,-3.62949e-06,-6.90976e-06,0
-2.91653e-05,-4.50927e-05,-1.07672e-05,-3.91088e-06,3.25966e-06,-1.46752e-05,7.65594e-08,-6.19211e-06,0
-2.85226e-05,-4.89441e-05,-1.18718e-05,-1.08771e-05,1.26396e-06,-1.68272e-05,-4.27224e-07,-5.04857e-06,0
-2.80057e-05,-4.24055e-05,-1.02875e-05,-1.46986e-05,-2.62002e-07,-1.71832e-05,1.88175e-06,-4.89956e-06,0
-2.83427e-05,-2.95168e-05,-7.11747e-06,-1.15893e-05,-7.31462e-07,-1.46825e-05,1.40931e-05,-4.02416e-06,0
-2.86548e-05,-1.65669e-05,-5.83167e-06,-9.62698e-06,-4.77137e-07,-1.17038e-05,3.22698e-05,-1.60548e-06,0
-2.90622e-05,-7.12395e-06,-6.77551e-06,-1.57801e-05,-8.44414e-07,-1.24606e-05,4.73887e-05,7.63163e-07,0
-2.9786e-05,-1.10659e-06,-8.47451e-06,-1.94383e-05,-1.26063e-06,-1.66212e-05,5.2651e-05,2.12492e-06,0
-3.05037e-05,3.44382e-06,-9.17572e-06,-9.21573e-06,9.34909e-07,-1.78427e-05,4.35299e-05,3.35695e-06,0
-3.10053e-05,6.74973e-06,-6.7745e-06,9.07734e-06,7.86341e-06,-1.42753e-05,2.29819e-05,3.4589e-06,0
-3.0499e-05,7.73032e-06,-3.82727e-06,2.42792e-05,1.49244e-05,-1.08265e-05,1.81955e-06,2.52787e-06,0
-2.86411e-05,7.30787e-06,-3.99314e-06,4.41149e-05,1.87091e-05,-9.68839e-06,-1.63675e-05,3.05682e-06,0
-2.73607e-05,9.24716e-06,-5.14822e-06,7.88597e-05,2.74967e-05,-9.90173e-06,-2.97174e-05,3.68911e-06,0
-2.63755e-05,1.2609e-05,-4.32763e-06,0.000101955,4.03824e-05,-9.90147e-06,-3.46659e-05,2.2876e-06,0
-2.53495e-05,1.1991e-05,-3.87272e-06,9.63336e-05,4.78026e-05,-9.9009e-06,-3.21081e-05,6.54211e-07,0
-2.56368e-05,8.83448e-06,-4.73365e-06,8.23209e-05,4.91008e-05,-1.10727e-05,-2.24276e-05,1.57548e-06,0
-2.56792e-05,6.00373e-06,-5.07869e-06,7.09656e-05,4.65772e-05,-1.21852e-05,-1.23206e-05,2.48085e-06,0
-2.56707e-05,5.63562e-06,-5.76949e-06,5.72907e-05,4.12184e-05,-9.64108e-06,-3.89512e-06,1.07423e-06,0
-2.58014e-05,7.98599e-06,-7.1954e-06,3.69179e-05,3.67893e-05,-5.94162e-06,4.2423e-06,-1.29682e-06,0
-2.68914e-05,1.12896e-05,-9.12232e-06,1.22831e-05,3.48127e-05,-4.67422e-06,1.10055e-05,-2.05668e-06,0
-2.84459e-05,1.35678e-05,-1.04925e-05,-8.58327e-06,3.23357e-05,-6.51778e-06,1.62101e-05,-1.595e-06,0
-2.89043e-05,1.5389e-05,-1.14259e-05,-2.32382e-05,2.94624e-05,-9.75496e-06,1.98201e-05,-2.58347e-06,0
-2.97362e-05,1.7884e-05,-1.23524e-05,-3.36982e-05,2.6048e-05,-1.00493e-05,2.2236e-05,-3.54516e-06,0
-3.1265e-05,2.01239e-05,-1.27399e-05,-4.36897e-05,2.18508e-05,-8.48952e-06,2.65114e-05,-2.74962e-06,0
-3.37665e-05,2.16623e-05,-1.39074e-05,-5.32115e-05,1.72699e-05,-7.39918e-06,3.35152e-05,-1.57512e-06,0
-3.6972e-05,2.17003e-05,-1.73001e-05,-5.64254e-05,1.33512e-05,-8.01706e-06,3.75307e-05,-6.45491e-07,0
-3.9965e-05,2.00905e-05,-2.17542e-05,-5.23025e-05,1.12608e-05,-1.02101e-05,3.55861e-05,7.39105e-07,0
-4.13071e-05,1.81526e-05,-2.51338e-05,-4.44243e-05,1.14076e-05,-1.21879e-05,3.08372e-05,2.03746e-06,0
-4.1178e-05,1.69259e-05,-2.64592e-05,-3.54981e-05,1.4642e-05,-1.2317e-05,2.76305e-05,2.15609e-06,0
-3.99506e-05,1.60559e-05,-2.53495e-05,-2.68281e-05,1.94781e-05,-1.17967e-05,2.60954e-05,1.37638e-06,0
-3.80616e-05,1.57062e-05,-2.28339e-05,-2.09165e-05,2.22399e-05,-1.25031e-05,2.49201e-05,1.28471e-06,0
-3.64048e-05,1.62996e-05,-2.05063e-05,-1.81155e-05,2.09084e-05,-1.36071e-05,2.28197e-05,1.90065e-06,0
-3.59253e-05,1.70466e-05,-1.97722e-05,-1.7596e-05,1.84995e-05,-1.41323e-05,2.0019e-05,2.16344e-06,0
-3.60412e-05,1.72263e-05,-2.08396e-05,-1.7547e-05,1.76065e-05,-1.48592e-05,1.75648e-05,2.44899e-06,0
-3.57874e-05,1.72953e-05,-2.11872e-05,-1.70356e-05,1.5953e-05,-1.51979e-05,1.62883e-05,3.80484e-06,0
-3.5559e-05,1.67211e-05,-1.92e-05,-1.70488e-05,1.35605e-05,-1.4161e-05,1.60011e-05,5.19351e-06,0
-3.40153e-05,1.45921e-05,-1.62825e-05,-1.71252e-05,1.23797e-05,-1.35941e-05,1.64141e-05,5.1652e-06,0
-3.11405e-05,1.31177e-05,-1.37458e-05,-1.63759e-05,1.21542e-05,-1.37453e-05,1.7225e-05,4.48478e-06,0
-3.01249e-05,1.32274e-05,-1.23761e-05,-1.41511e-05,1.19174e-05,-1.39157e-05,1.85674e-05,2.90497e-06,0
-3.1998e-05,1.35227e-05,-1.05796e-05,-1.01673e-05,1.1095e-05,-1.40754e-05,1.88554e-05,2.37304e-06,0
-3.36423e-05,1.42974e-05,-8.51547e-06,-5.94173e-06,1.15865e-05,-1.39862e-05,1.78265e-05,2.89466e-06,0
-3.26298e-05,1.34943e-05,-7.89806e-06,-4.3268e-06,1.26897e-05,-1.30496e-05,1.8186e-05,2.43195e-06,0
-3.0783e-05,1.33985e-05,-7.91438e-06,-5.75752e-06,1.32093e-05,-1.20682e-05,1.82161e-05,2.68719e-06,0
-2.96636e-05,1.52784e-05,-7.87284e-06,-4.75439e-06,1.32598e-05,-1.24743e-05,1.62962e-05,4.0276e-06,0
-2.88957e-05,1.86957e-05,-7.47206e-06,1.52941e-07,1.30398e-05,-1.34679e-05,1.30199e-05,6.75483e-06,0
-2.86974e-05,2.35323e-05,-6.7607e-06,5.96127e-06,1.29132e-05,-1.32742e-05,1.00788e-05,8.87315e-06,0
-2.93762e-05,2.79596e-05,-6.05926e-06,9.41737e-06,1.25408e-05,-1.22822e-05,8.11886e-06,8.60134e-06,0
-2.96641e-05,3.01197e-05,-4.85526e-06,8.25467e-06,1.11332e-05,-1.20997e-05,8.81068e-06,7.85029e-06,0
-2.85322e-05,2.89988e-05,-3.90108e-06,4.35339e-06,8.45587e-06,-1.24383e-05,1.06978e-05,8.39821e-06,0
-2.78773e-05,2.73271e-05,-5.25227e-06,-1.25651e-06,5.8813e-06,-1.372e-05,1.05462e-05,9.84987e-06,0
-2.85355e-05,2.63254e-05,-7.50802e-06,-7.93204e-06,4.70483e-06,-1.60329e-05,9.32109e-06,9.7783e-06,0
-3.00897e-05,2.6999e-05,-8.00526e-06,-1.53711e-05,3.90853e-06,-1.77628e-05,8.53838e-06,8.08441e-06,0
-3.12923e-05,2.92302e-05,-7.72662e-06,-2.22561e-05,2.16782e-06,-1.79393e-05,9.30077e-06,6.73547e-06,0
-3.16629e-05,3.10004e-05,-8.51135e-06,-2.90238e-05,7.72864e-07,-1.70939e-05,1.02273e-05,6.50883e-06,0
-3.16205e-05,3.02126e-05,-1.08188e-05,-3.3957e-05,4.67129e-07,-1.73729e-05,9.29525e-06,5.86288e-06,0
