ch1,ch2,ch3,ch4,ch5,ch6,ch7,ch8,class
-2.79855e-05,6.55003e-06,-1.29689e-05,5.76375e-06,1.22552e-05,-8.12467e-06,1.13196e-05,5.17699e-07,0
-2.85297e-05,7.85943e-06,-9.14307e-06,9.20578e-06,1.30147e-05,-9.11376e-06,1.39796e-05,7.87399e-07,0
-2.95934e-05,9.33563e-06,-5.62897e-06,1.01596e-05,1.34715e-05,-9.76068e-06,1.4517e-05,-9.88217e-07,0
-3.15117e-05,9.46984e-06,-1.79759e-06,8.51806e-06,1.25672e-05,-9.71282e-06,1.43417e-05,-2.75344e-06,0
-3.20841e-05,7.99394e-06,1.0819e-06,4.83787e-06,8.51294e-06,-9.97577e-06,1.531e-05,-2.94058e-06,0
-3.17799e-05,5.5834e-06,2.84842e-06,-4.40275e-07,4.73889e-06,-1.05637e-05,1.63754e-05,-1.54933e-06,0
-3.23301e-05,5.26991e-06,3.22852e-06,-5.5759e-06,3.94156e-06,-1.14798e-05,1.65135e-05,-6.33182e-07,0
-3.34609e-05,7.02907e-06,1.60997e-06,-8.2213e-06,5.39351e-06,-1.2529e-05,1.61521e-05,-1.17856e-06,0
-3.35848e-05,9.36611e-06,-1.73121e-06,-8.95571e-06,6.0344e-06,-1.28171e-05,1.48649e-05,-2.08166e-06,0
-3.302e-05,1.1844e-05,-6.76431e-06,-1.02511e-05,4.94551e-06,-1.30192e-05,1.1645e-05,-3.18675e-06,0
-3.25621e-05,1.28606e-05,-1.41263e-05,-1.13936e-05,4.46306e-06,-1.44238e-05,8.71782e-06,-3.48413e-06,0
-3.32218e-05,1.09667e-05,-2.10482e-05,-1.08548e-05,5.57326e-06,-1.50939e-05,8.92343e-06,-1.94982e-06,0
-3.31055e-05,9.74337e-06,-2.50047e-05,-8.98521e-06,6.51538e-06,-1.24625e-05,1.01997e-05,1.13076e-06,0
-3.16311e-05,9.99065e-06,-2.55638e-05,-5.49546e-06,6.87576e-06,-8.60549e-06,1.06882e-05,4.0638e-06,0
-2.94138e-05,1.13166e-05,-2.24957e-05,-1.98856e-06,6.89294e-06,-5.24487e-06,1.21261e-05,5.19896e-06,0
-2.76433e-05,1.27564e-05,-1.65266e-05,8.91417e-07,8.50666e-06,-4.45014e-06,1.53858e-05,4.93331e-06,0
-2.93111e-05,1.1833e-05,-1.20129e-05,3.51303e-06,1.05292e-05,-4.86537e-06,1.62307e-05,3.76243e-06,0
-3.12245e-05,1.01607e-05,-1.07967e-05,6.82278e-06,1.44723e-05,-4.34732e-06,1.36853e-05,2.75027e-06,0
-3.01811e-05,7.38431e-06,-1.20636e-05,9.08729e-06,2.21506e-05,-4.37104e-06,1.202e-05,2.93612e-06,0
-2.81193e-05,4.38476e-06,-1.60946e-05,9.51486e-06,2.77548e-05,-5.31714e-06,9.95181e-06,3.86956e-06,0
-2.8091e-05,2.26368e-06,-1.9096e-05,9.38952e-06,2.84953e-05,-6.35583e-06,6.68386e-06,4.84128e-06,0
-2.8998e-05,3.89514e-07,-2.18989e-05,6.16758e-06,2.2588e-05,-6.67383e-06,4.92751e-06,5.14758e-06,0
-2.95933e-05,1.11977e-06,-2.52058e-05,1.94296e-06,1.55446e-05,-5.27366e-06,5.74921e-06,4.60063e-06,0
-3.06057e-05,3.50616e-06,-2.64097e-05,-5.36351e-07,1.24802e-05,-3.57922e-06,7.70403e-06,3.55656e-06,0
-3.14323e-05,5.10692e-06,-2.53099e-05,-2.75024e-06,1.23731e-05,-3.7503e-06,9.97585e-06,3.54843e-06,0
-3.13911e-05,5.048e-06,-2.37751e-05,-6.00237e-06,1.29512e-05,-4.83744e-06,1.2597e-05,4.4961e-06,0
-3.13517e-05,3.99248e-06,-2.21143e-05,-9.61871e-06,1.38998e-05,-5.44121e-06,1.52547e-05,5.11612e-06,0
-3.18241e-05,3.10537e-06,-1.97318e-05,-1.35722e-05,1.45605e-05,-6.62086e-06,1.77694e-05,4.90613e-06,0
-3.18054e-05,2.76658e-06,-1.65525e-05,-1.7358e-05,1.44716e-05,-8.64761e-06,1.91963e-05,3.38925e-06,0
-3.25227e-05,4.5276e-06,-1.26114e-05,-1.92629e-05,1.56214e-05,-1.05913e-05,1.84549e-05,1.75771e-06,0
-3.41704e-05,7.29411e-06,-9.58266e-06,-1.83084e-05,1.74532e-05,-1.19818e-05,1.63772e-05,2.32909e-06,0
-3.50712e-05,8.22677e-06,-8.01613e-06,-1.55727e-05,1.81102e-05,-1.21227e-05,1.54272e-05,4.69394e-06,0
-3.46871e-05,6.67943e-06,-7.57393e-06,-1.34295e-05,1.7624e-05,-1.12378e-05,1.68359e-05,7.01475e-06,0
-3.38079e-05,6.3996e-06,-7.49152e-06,-1.24152e-05,1.73071e-05,-9.95043e-06,1.72296e-05,8.58074e-06,0
-3.39266e-05,8.72949e-06,-6.80243e-06,-1.06367e-05,1.67364e-05,-9.49236e-06,1.26823e-05,8.79494e-06,0
-3.46268e-05,1.18152e-05,-4.42982e-06,-6.30215e-06,1.73247e-05,-1.08153e-05,6.27981e-06,7.51375e-06,0
-3.43629e-05,1.21753e-05,-1.86091e-06,-1.29595e-06,1.84914e-05,-1.2599e-05,3.37698e-06,6.8694e-06,0
-3.39006e-05,9.41718e-06,-1.1902e-06,1.39409e-06,1.99491e-05,-1.27781e-05,4.80357e-06,8.46886e-06,0
-3.46333e-05,7.1149e-06,-1.37475e-06,1.02781e-06,2.13918e-05,-1.18533e-05,7.94386e-06,9.06255e-06,0
-3.47357e-05,6.60278e-06,-7.14855e-07,-6.11965e-07,2.18972e-05,-1.05199e-05,1.03191e-05,7.35716e-06,0
-3.22393e-05,7.45175e-06,-1.21608e-06,-6.91565e-07,2.33351e-05,-1.03219e-05,1.24254e-05,6.31882e-06,0
-2.923e-05,7.93229e-06,-5.01366e-06,-5.76585e-08,2.40823e-05,-1.06262e-05,1.39137e-05,6.27493e-06,0
-2.80629e-05,8.40286e-06,-1.03365e-05,-4.21376e-06,2.3663e-05,-1.13518e-05,1.31265e-05,6.16168e-06,0
-2.85305e-05,8.9466e-06,-1.45307e-05,-1.14898e-05,2.44602e-05,-1.26872e-05,1.06566e-05,7.03515e-06,0
-3.02073e-05,1.0114e-05,-1.70208e-05,-1.49253e-05,2.60729e-05,-1.23922e-05,8.10246e-06,7.58418e-06,0
-3.14174e-05,1.39723e-05,-1.79838e-05,-1.31164e-05,2.76708e-05,-1.1083e-05,6.62551e-06,7.25868e-06,0
-3.22554e-05,1.83877e-05,-1.70756e-05,-1.0524e-05,2.97645e-05,-1.07525e-05,6.32739e-06,8.38707e-06,0
-3.32178e-05,2.22321e-05,-1.53817e-05,-1.07189e-05,3.05327e-05,-1.10085e-05,6.86305e-06,1.06152e-05,0
-3.19106e-05,2.47903e-05,-1.34849e-05,-1.27752e-05,2.83478e-05,-1.04116e-05,9.09816e-06,1.09015e-05,0
-2.93599e-05,2.51418e-05,-1.16581e-05,-1.47159e-05,2.66191e-05,-1.00387e-05,1.30831e-05,9.64803e-06,0
-2.97646e-05,2.46098e-05,-6.31177e-06,-1.55813e-05,2.74538e-05,-9.98259e-06,1.58649e-05,9.52986e-06,0
-3.24809e-05,2.43118e-05,5.69648e-06,-1.58799e-05,2.81641e-05,-9.44828e-06,1.7084e-05,9.38757e-06,0
-3.40981e-05,2.47932e-05,2.06476e-05,-1.49964e-05,2.61754e-05,-8.15891e-06,1.70521e-05,7.90812e-06,0
-3.43318e-05,2.55801e-05,3.52211e-05,-1.12216e-05,2.30768e-05,-8.19793e-06,1.58441e-05,7.01714e-06,0
-3.36295e-05,2.53491e-05,4.8641e-05,-4.99473e-06,2.0595e-05,-9.68127e-06,1.44403e-05,7.92531e-06,0
-3.24759e-05,2.34995e-05,5.55182e-05,1.77383e-06,1.82329e-05,-9.91143e-06,1.28712e-05,8.21441e-06,0
-3.18349e-05,2.21301e-05,4.74331e-05,7.45825e-06,1.59652e-05,-8.12209e-06,1.16873e-05,6.79232e-06,0
-3.11125e-05,2.17158e-05,2.16262e-05,1.00222e-05,1.46262e-05,-6.32198e-06,1.15989e-05,4.47151e-06,0
-2.93864e-05,2.07536e-05,-1.42296e-05,9.38641e-06,1.50285e-05,-6.38885e-06,1.30042e-05,2.55199e-06,0
-2.77655e-05,1.92689e-05,-4.53088e-05,7.9663e-06,1.5187e-05,-8.20738e-06,1.42066e-05,2.84101e-06,0
-2.76188e-05,1.82754e-05,-6.19301e-05,8.18792e-06,1.24158e-05,-1.07965e-05,1.32782e-05,4.1347e-06,0
-2.81412e-05,1.64106e-05,-6.55767e-05,8.94352e-06,8.29715e-06,-1.22856e-05,1.16878e-05,3.51903e-06,0
-2.73441e-05,1.28234e-05,-6.03369e-05,8.13546e-06,6.92762e-06,-1.28138e-05,1.12675e-05,8.27212e-07,0
-2.55505e-05,9.65206e-06,-4.77373e-05,7.27938e-06,8.48927e-06,-1.31807e-05,1.22448e-05,-1.42118e-06,0
-2.52637e-05,7.61329e-06,-3.26701e-05,7.15804e-06,1.02315e-05,-1.19674e-05,1.30448e-05,-1.50991e-06,0
-2.71385e-05,5.39397e-06,-2.27466e-05,4.88177e-06,1.22682e-05,-1.04318e-05,1.0955e-05,-8.85602e-07,0
-2.94812e-05,4.90578e-06,-1.78271e-05,-1.55362e-07,1.44812e-05,-1.1002e-05,5.15834e-06,-2.74766e-07,0
-2.95847e-05,6.86096e-06,-1.08073e-05,-4.99498e-06,1.45002e-05,-1.23087e-05,1.04097e-07,-1.41755e-06,0
-2.92048e-05,9.28244e-06,-1.74031e-06,-7.75683e-06,1.36344e-05,-1.35481e-05,3.31904e-06,-5.15835e-06,0
-2.93686e-05,1.0207e-05,4.66721e-06,-6.08287e-06,1.46603e-05,-1.14549e-05,1.37931e-05,-8.58303e-06,0
-2.8555e-05,1.00964e-05,5.99829e-06,9.49179e-07,1.59479e-05,-8.88888e-06,2.41847e-05,-9.40857e-06,0
-2.84076e-05,9.32943e-06,4.22207e-06,1.0613e-05,1.43953e-05,-9.60633e-06,3.07264e-05,-7.81822e-06,0
-2.76251e-05,8.89745e-06,3.96393e-06,1.76193e-05,1.05421e-05,-1.12377e-05,3.41137e-05,-6.96972e-06,0
-2.75983e-05,1.02651e-05,7.13375e-06,1.99343e-05,8.33702e-06,-1.22853e-05,3.42995e-05,-6.4253e-06,0
-2.86747e-05,9.13957e-06,1.10779e-05,1.79101e-05,9.21204e-06,-1.22714e-05,3.08371e-05,-5.35124e-06,0
-2.83085e-05,6.50457e-06,1.28233e-05,1.04177e-05,1.13178e-05,-1.28206e-05,2.48178e-05,-5.74551e-06,0
-2.73876e-05,4.93481e-06,9.548e-06,3.86938e-07,1.42262e-05,-1.29068e-05,1.58076e-05,-7.93926e-06,0
-2.69867e-05,5.76797e-06,2.15887e-07,-9.63491e-06,1.64116e-05,-1.19671e-05,4.27763e-06,-1.00408e-05,0
-2.70549e-05,6.82657e-06,-1.12132e-05,-2.04896e-05,1.64107e-05,-1.13513e-05,-3.50549e-06,-1.04871e-05,0
-2.66538e-05,6.97693e-06,-1.88252e-05,-2.9205e-05,1.4605e-05,-1.26753e-05,-2.57988e-06,-9.17894e-06,0
-2.65183e-05,8.83542e-06,-1.73403e-05,-2.89384e-05,1.40583e-05,-1.32868e-05,4.64524e-06,-7.38022e-06,0
-2.62327e-05,1.21221e-05,-9.03581e-06,-2.14639e-05,1.55542e-05,-1.18303e-05,1.12525e-05,-6.17655e-06,0
-2.56818e-05,1.41598e-05,-5.22836e-07,-1.27164e-05,1.67909e-05,-1.07504e-05,1.38375e-05,-5.62308e-06,0
-2.64675e-05,1.29842e-05,2.88024e-06,-5.86435e-06,1.61665e-05,-1.21173e-05,1.41697e-05,-5.55455e-06,0
-2.76495e-05,1.12974e-05,1.83918e-06,-1.78117e-06,1.31752e-05,-1.47943e-05,1.2934e-05,-6.07055e-06,0
-2.75098e-05,1.13243e-05,2.62573e-07,-9.87202e-08,1.03123e-05,-1.56706e-05,9.92342e-06,-6.84056e-06,0
-2.69255e-05,1.33376e-05,-3.80425e-07,-2.0135e-06,1.00075e-05,-1.35284e-05,5.37174e-06,-6.50389e-06,0
-2.67967e-05,1.45314e-05,-8.12579e-07,-6.98785e-06,1.21265e-05,-9.34684e-06,-1.75284e-06,-6.7757e-06,0
-2.75114e-05,1.45076e-05,-2.08919e-06,-1.49248e-05,1.41561e-05,-7.61383e-06,-1.43787e-05,-8.53482e-06,0
-2.94726e-05,1.44228e-05,-3.50434e-06,-2.41696e-05,1.50265e-05,-9.36134e-06,-2.70206e-05,-9.08466e-06,0
-3.10277e-05,1.36313e-05,-3.06438e-06,-3.18384e-05,1.39105e-05,-1.06862e-05,-2.92814e-05,-6.89406e-06,0
-3.05045e-05,1.1338e-05,-7.79935e-07,-3.71945e-05,1.17759e-05,-9.42312e-06,-1.89922e-05,-3.87089e-06,0
-2.95535e-05,7.75902e-06,1.21943e-06,-3.73164e-05,1.1506e-05,-7.63899e-06,-4.08806e-06,-1.13407e-06,0
-3.03414e-05,4.31816e-06,7.13006e-07,-2.60359e-05,1.22542e-05,-6.08265e-06,7.98099e-06,1.3338e-07,0
-3.05401e-05,4.14909e-06,-1.66748e-06,-6.83307e-06,1.18661e-05,-4.90659e-06,1.49344e-05,-8.03252e-07,0
-2.99574e-05,5.28493e-06,-1.69611e-06,9.34957e-06,1.07611e-05,-2.60666e-06,1.94141e-05,-1.91382e-06,0
-3.16137e-05,6.0946e-06,-1.36005e-06,2.09962e-05,8.92731e-06,7.18132e-08,2.67095e-05,-2.50299e-06,0
-3.30403e-05,6.20892e-06,-4.78926e-06,3.04582e-05,6.85004e-06,2.4948e-07,3.5333e-05,-1.74264e-06,0
-3.17772e-05,4.74587e-06,-1.05491e-05,3.42533e-05,5.62871e-06,-2.05174e-06,4.06542e-05,-4.73879e-07,0
-3.04716e-05,3.88784e-06,-1.75609e-05,2.94651e-05,5.28944e-06,-4.44002e-06,4.05973e-05,1.02615e-06,0
-3.06458e-05,3.37435e-06,-2.62545e-05,2.15443e-05,4.24789e-06,-4.69473e-06,3.63686e-05,2.62685e-06,0
-3.15089e-05,4.96702e-06,-3.47001e-05,1.73251e-05,2.40215e-06,-4.4742e-06,3.07703e-05,1.50684e-06,0
-3.1765e-05,7.3458e-06,-3.87246e-05,1.44555e-05,7.11905e-07,-5.40693e-06,2.55653e-05,-8.19134e-07,0
-3.05581e-05,9.94597e-06,-3.61506e-05,1.11313e-05,-5.14675e-07,-7.59339e-06,2.25317e-05,-1.14428e-06,0
-3.00116e-05,1.2358e-05,-2.93017e-05,8.67288e-06,3.17398e-07,-8.34536e-06,2.21949e-05,1.92491e-07,0
-3.0352e-05,1.44677e-05,-2.04882e-05,3.83152e-06,1.81369e-06,-6.43877e-06,2.43522e-05,1.5994e-06,0
-3.05342e-05,1.71538e-05,-1.35376e-05,-6.35046e-06,2.49892e-06,-3.59002e-06,2.75821e-05,2.20484e-06,0
-3.02421e-05,2.02584e-05,-1.03453e-05,-1.71927e-05,3.53177e-06,-2.81412e-06,2.83914e-05,2.32974e-06,0
-2.98495e-05,2.31002e-05,-8.40394e-06,-2.25897e-05,4.57705e-06,-4.15199e-06,2.54784e-05,2.52908e-06,0
-3.01863e-05,2.48584e-05,-5.65848e-06,-2.10803e-05,5.38212e-06,-5.64103e-06,1.92209e-05,1.66309e-06,0
-3.05169e-05,2.62373e-05,-2.58576e-06,-1.69512e-05,5.21968e-06,-6.88709e-06,9.5617e-06,5.27375e-07,0
-3.00909e-05,2.71427e-05,-6.61376e-07,-1.6096e-05,4.47323e-06,-7.7783e-06,-8.67062e-07,1.57951e-06,0
-2.87301e-05,2.70644e-05,-4.67832e-07,-1.69552e-05,5.37462e-06,-8.87872e-06,-5.46244e-06,4.20389e-06,0
-2.75468e-05,2.48421e-05,-1.56187e-06,-1.46631e-05,6.09614e-06,-9.88437e-06,-8.61434e-07,6.04651e-06,0
-2.72031e-05,2.14323e-05,-2.21857e-06,-9.45885e-06,5.32627e-06,-1.05636e-05,8.12688e-06,6.57342e-06,0
-2.79708e-05,1.92079e-05,-1.5182e-06,-7.26744e-06,5.66817e-06,-1.06351e-05,1.37293e-05,6.43468e-06,0
-2.90324e-05,1.94021e-05,-7.16791e-07,-1.20218e-05,8.24729e-06,-1.20082e-05,1.33891e-05,5.4945e-06,0
-2.91888e-05,2.00343e-05,-1.62243e-06,-1.98732e-05,1.13124e-05,-1.45675e-05,1.02264e-05,4.67442e-06,0
-2.84103e-05,2.06221e-05,-2.76324e-06,-2.26275e-05,1.20052e-05,-1.57914e-05,7.42401e-06,4.00501e-06,0
-2.88577e-05,2.16571e-05,-3.602e-06,-1.98777e-05,8.98061e-06,-1.55218e-05,5.42534e-06,4.01488e-06,0
-3.01253e-05,2.24925e-05,-4.75949e-06,-1.5475e-05,6.75621e-06,-1.61041e-05,3.68734e-06,4.90288e-06,0
-2.97179e-05,2.14054e-05,-6.45866e-06,-1.15882e-05,6.98167e-06,-1.70216e-05,2.01226e-06,5.34281e-06,0
-2.82125e-05,1.90082e-05,-8.10757e-06,-9.78378e-06,6.9533e-06,-1.66049e-05,2.00811e-06,3.90497e-06,0
-2.73377e-05,1.76756e-05,-9.41203e-06,-8.05312e-06,6.8275e-06,-1.64839e-05,4.50904e-06,1.03885e-06,0
-2.72438e-05,1.62634e-05,-1.04826e-05,-6.01089e-06,1.03431e-05,-1.70858e-05,1.09461e-05,1.43456e-07,0
-2.86763e-05,1.52499e-05,-1.03589e-05,-2.66163e-06,1.63683e-05,-1.84256e-05,2.22696e-05,4.71372e-07,0
-3.04513e-05,1.60647e-05,-8.95269e-06,1.34494e-06,1.90473e-05,-1.93138e-05,3.2335e-05,3.77949e-07,0
-2.9789e-05,1.84479e-05,-7.26452e-06,2.57709e-06,1.90541e-05,-1.99627e-05,3.326e-05,6.74652e-07,0
-2.84796e-05,2.08747e-05,-6.81963e-06,2.46651e-06,1.78325e-05,-2.05287e-05,2.69392e-05,4.46763e-07,0
-2.71045e-05,2.28034e-05,-7.35582e-06,1.77524e-06,1.60966e-05,-1.97907e-05,2.13433e-05,-4.5795e-07,0
-2.58299e-05,2.40336e-05,-8.47701e-06,1.38882e-06,1.51803e-05,-1.79976e-05,1.84655e-05,-7.6754e-07,0
-2.53081e-05,2.28499e-05,-1.02038e-05,1.53577e-06,1.54953e-05,-1.62661e-05,1.54534e-05,-1.03889e-06,0
-2.63681e-05,2.01187e-05,-1.09401e-05,1.24182e-06,1.71025e-05,-1.5216e-05,7.9441e-06,-8.28302e-07,0
-2.77688e-05,1.80232e-05,-1.09707e-05,2.76928e-07,1.88489e-05,-1.4328e-05,-3.78745e-06,4.8807e-07,0
-2.84123e-05,1.84799e-05,-1.27235e-05,1.05499e-06,1.98172e-05,-1.3504e-05,-1.40061e-05,1.75329e-06,0
-2.9497e-05,1.95945e-05,-1.66571e-05,2.37879e-06,1.92855e-05,-1.37157e-05,-1.76641e-05,2.34581e-06,0
-3.14819e-05,2.00507e-05,-2.02837e-05,2.04168e-06,1.90311e-05,-1.43439e-05,-1.57209e-05,2.22051e-06,0
-3.29987e-05,1.94833e-05,-2.08443e-05,1.5774e-06,2.05137e-05,-1.40954e-05,-1.17413e-05,1.60657e-06,0
-3.17492e-05,1.81341e-05,-1.80042e-05,3.50985e-07,2.11955e-05,-1.32035e-05,-6.55286e-06,1.29007e-06,0
-2.92676e-05,1.69146e-05,-1.33304e-05,-4.00717e-06,1.98246e-05,-1.18218e-05,-7.96416e-07,1.50577e-06,0
-2.81196e-05,1.57398e-05,-9.28882e-06,-1.19525e-05,1.77375e-05,-1.07582e-05,4.36604e-06,1.41173e-06,0
-2.8492e-05,1.49631e-05,-7.62157e-06,-1.74518e-05,1.60922e-05,-1.10023e-05,8.30771e-06,1.19513e-06,0
-2.89642e-05,1.37374e-05,-7.70038e-06,-1.39958e-05,1.57666e-05,-1.11198e-05,1.11538e-05,1.31959e-06,0
-2.95281e-05,1.24109e-05,-8.71668e-06,-1.60898e-06,1.7391e-05,-9.01454e-06,1.28137e-05,1.9442e-06,0
-3.01802e-05,9.91004e-06,-9.87184e-06,1.39458e-05,1.87669e-05,-6.23376e-06,1.5325e-05,2.60835e-06,0
-3.03605e-05,7.35681e-06,-9.72834e-06,2.63409e-05,1.92681e-05,-5.6052e-06,2.06801e-05,3.11386e-06,0
-3.01256e-05,7.31763e-06,-8.33775e-06,2.95826e-05,1.95832e-05,-8.27561e-06,2.6096e-05,2.83993e-06,0
-3.0476e-05,1.00366e-05,-5.47414e-06,2.30634e-05,1.90095e-05,-1.13266e-05,2.78673e-05,1.00409e-06,0
-3.06636e-05,1.17161e-05,-1.75404e-06,7.73049e-06,1.87418e-05,-1.21384e-05,2.61616e-05,-1.34748e-06,0
-2.92675e-05,1.05882e-05,3.22964e-07,-9.30111e-06,2.03312e-05,-1.05591e-05,2.18848e-05,-2.091e-06,0
-2.88554e-05,9.3013e-06,-3.32781e-07,-2.1742e-05,2.08959e-05,-7.65744e-06,1.78508e-05,-1.54254e-06,0
-2.93108e-05,9.17629e-06,-9.07573e-07,-3.17369e-05,1.83451e-05,-5.84927e-06,1.50711e-05,9.4931e-08,0
-2.82372e-05,8.51604e-06,6.2126e-07,-3.98314e-05,1.59694e-05,-5.01999e-06,1.15546e-05,2.14824e-06,0
-2.66065e-05,6.48696e-06,1.5447e-06,-4.25514e-05,1.3312e-05,-4.32162e-06,7.37969e-06,3.71797e-06,0
-2.59397e-05,4.75828e-06,5.0113e-07,-4.08522e-05,1.14031e-05,-5.3319e-06,3.86136e-06,4.37203e-06,0
-2.85426e-05,2.84655e-06,-5.76067e-07,-3.8196e-05,1.03146e-05,-8.51446e-06,2.21957e-06,3.84144e-06,0
-3.14672e-05,2.89749e-06,-1.5005e-06,-3.34263e-05,7.31588e-06,-1.10143e-05,2.22192e-06,4.24504e-06,0
-3.07999e-05,4.94453e-06,-2.00761e-06,-2.43423e-05,5.08118e-06,-1.14951e-05,3.81649e-06,3.55089e-06,0
-2.9383e-05,5.12289e-06,-1.49371e-06,-1.13391e-05,5.67597e-06,-1.05256e-05,6.13565e-06,2.25651e-06,0
-2.94134e-05,4.76162e-06,-2.80647e-06,-1.33944e-06,8.10925e-06,-1.02108e-05,7.20275e-06,1.77838e-06,0
-3.02475e-05,5.39994e-06,-8.18496e-06,2.03366e-06,9.76972e-06,-1.13306e-05,6.73292e-06,2.59184e-06,0
-3.19342e-05,6.95097e-06,-1.46849e-05,-9.97427e-07,8.13751e-06,-1.22249e-05,7.54263e-06,4.65701e-06,0
-3.31919e-05,8.43735e-06,-1.68606e-05,-5.8352e-06,4.15188e-06,-1.26068e-05,1.06247e-05,5.36356e-06,0
-3.21176e-05,9.25747e-06,-1.34022e-05,-9.14836e-06,4.90538e-06,-1.28621e-05,1.42789e-05,4.57611e-06,0
-3.17225e-05,1.0241e-05,-8.51855e-06,-9.32987e-06,1.36614e-05,-1.3321e-05,1.6595e-05,4.49905e-06,0
-3.44478e-05,1.07003e-05,-5.45917e-06,-6.83137e-06,2.49723e-05,-1.30687e-05,1.77642e-05,5.51492e-06,0
-3.80612e-05,9.17274e-06,-3.408e-06,-3.90237e-06,3.10863e-05,-1.21708e-05,1.78736e-05,5.16952e-06,0
-3.95826e-05,6.96343e-06,-1.46781e-06,-9.91027e-07,2.95542e-05,-1.13509e-05,1.60884e-05,4.00023e-06,0
-3.94991e-05,5.57969e-06,-1.65115e-07,1.55396e-06,2.41699e-05,-1.04531e-05,1.22736e-05,2.93477e-06,0
-3.90884e-05,4.08608e-06,-4.80039e-08,4.45843e-06,2.01377e-05,-9.22914e-06,8.94229e-06,2.18906e-06,0
-3.89019e-05,2.91007e-06,6.45677e-07,6.86172e-06,2.0765e-05,-7.55181e-06,9.53144e-06,1.36721e-06,0
-3.84911e-05,3.88267e-06,1.61348e-06,7.3204e-06,2.46144e-05,-5.61073e-06,1.16794e-05,1.31723e-06,0
-3.70599e-05,6.37504e-06,4.42034e-07,6.05145e-06,2.6631e-05,-3.59964e-06,1.13611e-05,1.11683e-06,0
-3.5603e-05,8.65968e-06,-1.86029e-06,8.37793e-06,2.03059e-05,-2.40366e-06,9.0384e-06,-3.59051e-07,0
-3.43098e-05,1.05142e-05,-3.29532e-06,2.58545e-05,6.23914e-06,-3.29717e-06,8.8525e-06,-2.0132e-06,0
-3.31349e-05,1.16184e-05,-2.13049e-06,5.65578e-05,-4.12547e-06,-5.21324e-06,1.27827e-05,-2.89482e-06,0
-3.34519e-05,1.25922e-05,-1.17052e-06,7.36335e-05,-7.83493e-06,-6.68698e-06,1.92946e-05,-2.23007e-06,0
-3.3533e-05,1.2732e-05,-6.53423e-06,6.06181e-05,-1.19497e-05,-1.03166e-05,2.40781e-05,-2.68385e-06,0
-3.28988e-05,1.31614e-05,-1.73221e-05,3.03878e-05,-9.6476e-06,-1.32309e-05,2.45482e-05,-2.86277e-06,0
-3.27915e-05,1.48489e-05,-2.36709e-05,3.51711e-06,6.7648e-06,-1.45948e-05,2.37926e-05,-2.8007e-06,0
-3.09923e-05,1.54587e-05,-1.95357e-05,-1.14366e-05,2.33042e-05,-2.01126e-05,2.38994e-05,-4.02306e-06,0
-2.85196e-05,1.51395e-05,-1.21135e-05,-1.57922e-05,2.39045e-05,-2.7766e-05,2.2509e-05,-4.20956e-06,0
-3.00936e-05,1.64805e-05,-8.35881e-06,-1.76055e-05,1.0819e-05,-3.15356e-05,1.91611e-05,-2.40078e-06,0
-3.35609e-05,1.59776e-05,-6.42098e-06,-2.25314e-05,-3.44725e-06,-2.84922e-05,1.55065e-05,-3.35564e-07,0
-3.41919e-05,1.33452e-05,-3.45366e-06,-2.89306e-05,-8.56504e-06,-2.19208e-05,1.4137e-05,-9.64504e-07,0
-3.34839e-05,1.27071e-05,-7.13088e-07,-3.67816e-05,-4.5347e-06,-1.6211e-05,1.41612e-05,-2.33971e-06,0
-3.28474e-05,1.45812e-05,-9.08171e-07,-4.64926e-05,2.02333e-06,-1.23508e-05,1.32246e-05,-3.50336e-06,0
-3.30007e-05,1.74311e-05,-5.28717e-06,-5.2042e-05,6.46555e-06,-7.85225e-06,1.15479e-05,-4.84473e-06,0
-3.34039e-05,1.88497e-05,-1.19759e-05,-4.99584e-05,1.07013e-05,-1.92365e-06,9.87777e-06,-5.37496e-06,0
-3.27283e-05,1.92429e-05,-1.54692e-05,-4.35816e-05,1.71735e-05,4.35081e-06,9.5599e-06,-5.81595e-06,0
-3.05995e-05,1.94851e-05,-1.17295e-05,-3.75148e-05,2.4967e-05,1.12161e-05,9.88031e-06,-8.09299e-06,0
-2.87931e-05,1.98933e-05,-1.84749e-06,-3.58418e-05,2.78859e-05,1.80099e-05,1.06487e-05,-1.03434e-05,0
-2.83107e-05,2.04373e-05,1.13136e-05,-3.77616e-05,2.2942e-05,2.39095e-05,1.27767e-05,-9.79469e-06,0
-2.79185e-05,2.13972e-05,2.40908e-05,-3.88586e-05,1.66039e-05,2.61191e-05,1.57736e-05,-8.24701e-06,0
-2.73048e-05,2.15613e-05,3.01916e-05,-3.65059e-05,1.53993e-05,2.40398e-05,1.91117e-05,-7.43325e-06,0
-2.70031e-05,2.16927e-05,2.32167e-05,-3.19715e-05,2.37322e-05,1.95454e-05,2.19903e-05,-6.37321e-06,0
-2.73266e-05,2.27545e-05,2.57801e-06,-2.69664e-05,3.97172e-05,1.36681e-05,2.1441e-05,-3.86016e-06,0
-2.88229e-05,2.39365e-05,-2.50036e-05,-2.23171e-05,5.44217e-05,6.67786e-06,1.8545e-05,-5.33875e-07,0
-3.18978e-05,2.54892e-05,-5.08613e-05,-1.69589e-05,5.98408e-05,2.51836e-07,1.77458e-05,1.85394e-06,0
-3.42415e-05,2.62411e-05,-6.55166e-05,-8.81847e-06,5.47794e-05,-2.52119e-06,1.97986e-05,2.54368e-06,0
-3.53871e-05,2.43726e-05,-6.36103e-05,2.76645e-06,4.33186e-05,-2.84063e-06,2.04618e-05,4.39536e-06,0
-3.50136e-05,2.25995e-05,-5.21854e-05,1.87803e-05,3.201e-05,-6.456e-06,1.79728e-05,5.97877e-06,0
-3.24742e-05,2.17007e-05,-4.11331e-05,4.08632e-05,2.26831e-05,-1.31602e-05,1.53425e-05,6.26879e-06,0
-2.96448e-05,2.04179e-05,-3.27608e-05,5.89536e-05,1.78522e-05,-1.84093e-05,1.34329e-05,6.61217e-06,0
-2.8065e-05,1.85859e-05,-2.73903e-05,6.66079e-05,1.81524e-05,-2.10315e-05,1.13421e-05,7.31748e-06,0
-2.87879e-05,1.67435e-05,-2.58073e-05,6.56941e-05,1.85418e-05,-2.09782e-05,8.89331e-06,8.7895e-06,0
-2.94584e-05,1.50582e-05,-2.47824e-05,5.93759e-05,1.58659e-05,-2.23419e-05,7.62267e-06,8.18104e-06,0
-2.80657e-05,1.29279e-05,-2.11827e-05,4.7376e-05,7.33033e-06,-2.84554e-05,7.57145e-06,6.26426e-06,0
-2.64174e-05,1.27664e-05,-1.57355e-05,2.56526e-05,-7.85852e-06,-3.56785e-05,5.67586e-06,4.85576e-06,0
-2.48263e-05,1.36726e-05,-1.04721e-05,1.24096e-06,-2.41958e-05,-3.26304e-05,3.94524e-06,4.46369e-06,0
-2.40406e-05,1.40597e-05,-9.9645e-06,-1.76876e-05,-3.43109e-05,-9.44682e-06,7.58483e-06,4.27066e-06,0
-2.49551e-05,1.35904e-05,-1.19915e-05,-2.62847e-05,-3.29512e-05,1.90064e-05,1.41615e-05,4.24706e-06,0
-2.60559e-05,1.41699e-05,-1.04322e-05,-2.88942e-05,-2.10624e-05,3.1725e-05,1.90914e-05,5.59202e-06,0
-2.60719e-05,1.63391e-05,-3.92162e-06,-3.03746e-05,-7.61451e-06,2.5448e-05,2.20838e-05,6.21806e-06,0
-2.55773e-05,1.74513e-05,4.52642e-06,-2.97966e-05,1.08e-06,7.6773e-06,2.39739e-05,5.94451e-06,0
-2.58291e-05,1.7153e-05,9.72041e-06,-2.72639e-05,4.29011e-06,-6.7375e-06,2.41993e-05,6.51232e-06,0
-2.71251e-05,1.62909e-05,9.64973e-06,-2.3316e-05,2.79356e-06,-8.18687e-06,2.31889e-05,7.93826e-06,0
-2.84473e-05,1.63854e-05,4.68634e-06,-1.81173e-05,-3.17481e-06,-8.65895e-07,2.25346e-05,8.54879e-06,0
-2.90323e-05,1.70629e-05,-4.56316e-06,-1.17802e-05,-6.41609e-06,6.48244e-06,2.16569e-05,8.96014e-06,0
-2.83151e-05,1.63849e-05,-1.71128e-05,-6.51928e-06,7.85161e-06,1.08245e-05,1.99645e-05,9.29973e-06,0
-2.64798e-05,1.41923e-05,-2.85996e-05,-2.7755e-06,3.87797e-05,1.06982e-05,1.86669e-05,8.49233e-06,0
-2.5365e-05,1.2729e-05,-3.5076e-05,-8.04005e-07,6.15737e-05,5.50719e-06,1.89548e-05,7.13337e-06,0
-2.58467e-05,1.25819e-05,-3.47344e-05,-3.64264e-07,5.88554e-05,-1.98627e-06,2.00331e-05,5.78427e-06,0
-2.68334e-05,1.31999e-05,-2.78917e-05,-8.14732e-07,3.92745e-05,-6.7277e-06,2.04919e-05,4.7064e-06,0
-2.77193e-05,1.54889e-05,-1.75771e-05,-5.8791e-07,2.03897e-05,-6.15458e-06,1.88512e-05,4.13497e-06,0
-2.76784e-05,1.80962e-05,-7.5734e-06,9.94565e-07,1.23167e-05,-3.21745e-06,1.48079e-05,4.21375e-06,0
-2.73693e-05,1.95465e-05,-2.84692e-07,4.32698e-07,1.1846e-05,-3.81356e-06,1.09331e-05,3.53101e-06,0
-2.94519e-05,2.13763e-05,3.28477e-06,-4.71117e-06,1.08257e-05,-9.4839e-06,9.34651e-06,1.08075e-06,0
-3.23064e-05,2.34137e-05,3.06489e-06,-9.95282e-06,8.71809e-06,-1.53416e-05,7.98095e-06,-6.84331e-07,0
-3.32563e-05,2.41134e-05,1.29501e-06,-1.27557e-05,8.48432e-06,-1.76494e-05,6.32502e-06,-9.36955e-07,0
-3.14345e-05,2.51067e-05,1.22043e-06,-1.64804e-05,9.36372e-06,-1.70111e-05,7.00883e-06,-2.54861e-06,0
-2.91053e-05,2.59441e-05,2.40292e-06,-2.14348e-05,6.69867e-06,-1.47156e-05,8.20709e-06,-3.64409e-06,0
-3.00323e-05,2.45933e-05,4.18512e-06,-2.26961e-05,-1.30416e-05,-1.08852e-05,7.44933e-06,-4.74971e-06,0
-3.17524e-05,2.11459e-05,4.48755e-06,-1.75915e-05,-2.72613e-05,-9.01618e-06,7.06903e-06,-7.39695e-06,0
-3.1043e-05,1.67802e-05,3.01549e-06,-9.27158e-06,-1.80911e-06,-8.42905e-06,9.27691e-06,-7.4433e-06,0
-2.89533e-05,1.43482e-05,3.10006e-06,1.64716e-07,2.94601e-05,-5.56859e-06,1.1861e-05,-4.75491e-06,0
-2.84612e-05,1.38978e-05,1.87858e-06,8.11674e-06,4.18704e-05,-2.35216e-06,1.30575e-05,-2.86216e-06,0
-3.02137e-05,1.32074e-05,-1.36151e-06,1.19054e-05,5.46315e-05,-3.45751e-06,1.31654e-05,-3.06604e-06,0
-3.12506e-05,1.05345e-05,-4.2551e-06,1.03435e-05,6.98166e-05,-8.62055e-06,1.35746e-05,-4.20141e-06,0
-3.18482e-05,7.44633e-06,-5.56714e-06,6.28971e-06,6.65148e-05,-1.4188e-05,1.45807e-05,-5.4412e-06,0
-3.2742e-05,6.08721e-06,-4.85204e-06,2.17751e-06,3.78912e-05,-1.86747e-05,1.46582e-05,-6.50827e-06,0
-3.33945e-05,6.20844e-06,-2.96291e-06,-1.40474e-06,2.1388e-06,-2.22595e-05,1.30452e-05,-7.1892e-06,0
-3.43341e-05,6.89984e-06,-2.13342e-06,-3.49159e-06,-2.0209e-05,-2.46056e-05,9.66823e-06,-6.28596e-06,0
-3.52843e-05,7.80639e-06,-3.99615e-06,-3.77257e-06,-2.71848e-05,-2.50998e-05,6.48e-06,-4.31768e-06,0
-3.56167e-05,9.14509e-06,-6.60264e-06,-2.16698e-06,-2.95108e-05,-2.52852e-05,4.78433e-06,-2.30491e-06,0
-3.52848e-05,9.80589e-06,-8.54113e-06,-1.22371e-06,-2.89986e-05,-2.69359e-05,3.54446e-06,-2.02309e-06,0
-3.53906e-05,8.97655e-06,-9.89722e-06,-3.37026e-06,-2.1949e-05,-2.96334e-05,2.43284e-06,-3.32988e-06,0
-3.58846e-05,7.38605e-06,-1.05647e-05,-8.20661e-06,-8.98497e-06,-3.08189e-05,2.71987e-06,-4.19981e-06,0
-3.48845e-05,7.72871e-06,-9.72356e-06,-1.25103e-05,3.00634e-06,-2.80361e-05,4.60355e-06,-4.76217e-06,0
-3.17266e-05,1.01626e-05,-7.29664e-06,-1.4735e-05,9.10264e-06,-2.1303e-05,7.0718e-06,-5.60501e-06,0
-2.9402e-05,1.20504e-05,-5.07958e-06,-1.52152e-05,1.18682e-05,-1.34252e-05,9.46159e-06,-5.93733e-06,0
-3.00654e-05,1.19188e-05,-3.28579e-06,-1.32352e-05,2.21404e-05,-6.54486e-06,1.15572e-05,-4.69096e-06,0
-3.19717e-05,9.7384e-06,-1.92405e-06,-7.83463e-06,4.22701e-05,-1.68112e-06,1.21089e-05,-3.72344e-06,0
-3.33726e-05,8.76707e-06,-3.17647e-06,-2.44201e-06,5.89339e-05,-2.46456e-06,1.11297e-05,-3.64382e-06,0
-3.52394e-05,1.00289e-05,-7.31453e-06,-1.36339e-06,5.89066e-05,-1.23357e-05,1.0948e-05,-4.39382e-06,0
-3.71601e-05,1.0099e-05,-1.23851e-05,-2.00186e-06,4.21999e-05,-2.65885e-05,1.16321e-05,-4.27525e-06,0
-3.70075e-05,9.92509e-06,-1.5003e-05,-8.04212e-07,2.08761e-05,-3.82136e-05,1.29603e-05,-3.59702e-06,0
-3.64131e-05,1.04892e-05,-1.39981e-05,1.2265e-06,8.49795e-06,-4.32526e-05,1.75094e-05,-2.72534e-06,0
-3.71155e-05,9.54189e-06,-1.09791e-05,4.6009e-06,3.03534e-06,-4.36224e-05,2.54853e-05,-1.25955e-06,0
-3.6458e-05,5.83381e-06,-8.66904e-06,5.13034e-06,-2.1229e-06,-4.44441e-05,3.08719e-05,-3.14021e-07,0
-3.30534e-05,2.04976e-06,-8.29038e-06,6.9428e-07,-6.01748e-06,-4.51549e-05,2.96785e-05,1.93502e-06,0
-2.98221e-05,2.56917e-06,-8.44252e-06,-4.0272e-06,-6.71465e-06,-4.21977e-05,2.3704e-05,4.00528e-06,0
-2.72014e-05,6.16972e-06,-9.77823e-06,-6.01177e-06,-5.70177e-06,-3.09239e-05,1.54953e-05,3.23699e-06,0
-2.51371e-05,5.97933e-06,-1.19258e-05,-5.81155e-06,-7.34582e-06,-1.37077e-05,7.42153e-06,1.40315e-06,0
-2.46416e-05,2.46584e-06,-1.29007e-05,-7.01414e-06,-1.10866e-05,-1.20419e-06,1.91534e-06,9.69503e-07,0
-2.55065e-05,1.19121e-06,-1.08502e-05,-8.63514e-06,-1.34928e-05,3.83499e-06,-2.05952e-07,1.76776e-06,0
-2.63731e-05,1.77625e-06,-6.70095e-06,-1.02378e-05,-1.08125e-05,4.92611e-06,-6.79529e-07,3.1571e-06,0
-2.53058e-05,3.49339e-06,-3.04233e-06,-1.20572e-05,-3.04983e-06,3.54448e-06,-6.84362e-07,5.31545e-06,0
-2.39375e-05,5.10344e-06,-2.74845e-06,-1.39852e-05,6.01711e-06,2.0384e-06,4.39072e-08,6.39128e-06,0
-2.46633e-05,5.36426e-06,-5.41203e-06,-1.65919e-05,1.20879e-05,6.79593e-06,1.47937e-06,6.37818e-06,0
-2.59929e-05,5.50822e-06,-6.61996e-06,-1.93697e-05,1.35556e-05,2.05731e-05,3.75157e-06,7.12972e-06,0
-2.69125e-05,6.7989e-06,-6.12193e-06,-2.11406e-05,1.30123e-05,3.45498e-05,7.17777e-06,8.77701e-06,0
-2.854e-05,8.68285e-06,-5.23297e-06,-2.15387e-05,1.38591e-05,3.73767e-05,1.14299e-05,9.44109e-06,0
-2.98328e-05,9.54176e-06,-3.11242e-06,-2.00324e-05,1.56269e-05,2.59197e-05,1.4732e-05,8.4991e-06,0
-2.95801e-05,8.5897e-06,1.2699e-06,-1.65946e-05,1.66361e-05,8.93894e-06,1.82364e-05,6.63419e-06,0
-2.87379e-05,6.23424e-06,5.78092e-06,-1.30394e-05,1.69097e-05,-2.41644e-06,2.32836e-05,5.12546e-06,0
-2.82898e-05,3.70799e-06,9.12488e-06,-1.05335e-05,1.67157e-05,-6.02133e-06,2.39402e-05,5.51221e-06,0
-2.78828e-05,4.39856e-06,1.52603e-05,-7.53439e-06,1.62341e-05,-6.32029e-06,1.46685e-05,7.19446e-06,0
-2.75826e-05,9.79326e-06,2.6687e-05,-3.38075e-06,1.67566e-05,-5.83676e-06,6.43533e-07,7.91398e-06,0
-2.82917e-05,1.67497e-05,4.10021e-05,-2.21204e-06,1.63275e-05,-6.14386e-06,-1.05256e-05,7.20378e-06,0
-2.94894e-05,2.08626e-05,5.44562e-05,-5.91878e-06,1.45212e-05,-7.84345e-06,-1.69038e-05,5.79479e-06,0
-3.02272e-05,1.95444e-05,6.19029e-05,-1.09179e-05,1.56019e-05,-9.20283e-06,-1.91028e-05,3.87063e-06,0
-3.01544e-05,1.60064e-05,5.87542e-05,-1.35778e-05,2.17177e-05,-1.39461e-05,-1.82618e-05,3.31843e-06,0
-3.12569e-05,1.56592e-05,4.2846e-05,-1.46634e-05,2.62267e-05,-2.48567e-05,-1.42e-05,2.92674e-06,0
-3.44655e-05,1.69185e-05,1.4754e-05,-1.63422e-05,2.40772e-05,-3.58757e-05,-8.20566e-06,2.79029e-06,0
-3.38852e-05,1.58864e-05,-2.2737e-05,-1.67003e-05,1.37641e-05,-4.14343e-05,-3.47548e-06,3.72758e-06,0
-2.94564e-05,1.40742e-05,-5.31181e-05,-1.19096e-05,-5.87579e-06,-3.90235e-05,-2.29538e-06,3.17416e-06,0
-2.73001e-05,1.24814e-05,-6.87334e-05,-4.99099e-06,-1.74123e-05,-3.23019e-05,-3.05932e-06,1.50019e-06,0
-2.79514e-05,1.03281e-05,-7.32538e-05,5.41529e-07,-9.96718e-06,-2.53821e-05,-4.20226e-06,1.68214e-06,0
-3.03865e-05,8.86295e-06,-6.27879e-05,4.66368e-06,4.28976e-06,-1.92808e-05,-4.99989e-06,2.74614e-06,0
-3.33356e-05,7.40583e-06,-4.72081e-05,6.34608e-06,1.60372e-05,-1.58851e-05,-3.43198e-06,2.72864e-06,0
-3.4257e-05,5.91251e-06,-3.67575e-05,1.84704e-06,2.63676e-05,-1.15834e-05,6.72313e-07,1.17385e-06,0
-3.277e-05,5.53733e-06,-3.32053e-05,-8.05242e-06,3.67177e-05,-4.18205e-06,5.93258e-06,7.0267e-07,0
-3.21776e-05,6.0175e-06,-2.99323e-05,-1.64229e-05,4.59367e-05,4.89823e-06,1.09281e-05,2.47423e-06,0
-3.31227e-05,5.51396e-06,-2.45411e-05,-2.10896e-05,4.91904e-05,1.05857e-05,1.43285e-05,3.82917e-06,0
-3.33595e-05,3.48019e-06,-2.08194e-05,-2.09511e-05,4.40849e-05,1.32502e-05,1.4575e-05,3.1869e-06,0
-3.35885e-05,1.327e-06,-2.09918e-05,-1.53517e-05,3.76424e-05,1.37409e-05,1.35807e-05,1.46222e-06,0
-3.40355e-05,1.78366e-07,-2.23156e-05,-5.3973e-06,3.57988e-05,5.79191e-06,1.40326e-05,1.10735e-06,0
-3.45466e-05,4.64769e-06,-2.11007e-05,4.41052e-06,3.55198e-05,-9.60273e-06,1.57773e-05,1.73558e-06,0
-3.54114e-05,1.75988e-05,-1.77889e-05,9.34996e-06,2.76942e-05,-2.26723e-05,1.7335e-05,3.2186e-06,0
-3.66094e-05,3.63064e-05,-1.3272e-05,1.05132e-05,1.24063e-05,-2.74913e-05,1.84308e-05,4.46937e-06,0
-3.63453e-05,5.51966e-05,-1.11642e-05,1.0745e-05,-5.11205e-06,-2.83815e-05,1.97116e-05,4.47075e-06,0
-3.34127e-05,6.97041e-05,-1.07992e-05,1.00305e-05,-2.09755e-05,-2.65396e-05,2.09627e-05,3.61703e-06,0
-2.95429e-05,7.19255e-05,-9.33073e-06,7.90263e-06,-2.55147e-05,-1.75167e-05,2.17333e-05,1.61427e-06,0
-2.76929e-05,5.59731e-05,-6.11339e-06,5.40977e-06,-1.10055e-05,-2.14147e-06,2.13745e-05,-1.27176e-06,0
-2.94309e-05,2.67927e-05,-5.41953e-06,3.42319e-06,1.27201e-05,9.90402e-06,2.03898e-05,-2.99252e-06,0
-3.25796e-05,-4.7695e-06,-6.65263e-06,3.30522e-06,2.77191e-05,1.2521e-05,2.06994e-05,-2.68397e-06,0
-3.25336e-05,-3.049e-05,-8.31483e-06,4.31404e-06,2.57255e-05,6.95034e-06,2.26255e-05,-1.87005e-06,0
-2.5423e-05,-4.51672e-05,-8.57634e-06,5.05164e-06,1.00908e-05,-7.82064e-07,2.29151e-05,-1.28738e-06,0
-1.68337e-05,-4.57196e-05,-5.76743e-06,3.42892e-06,1.49244e-06,-4.31555e-06,2.08691e-05,-1.07531e-06,0
-1.44955e-05,-3.90995e-05,-2.41469e-06,-8.60716e-07,1.31995e-05,-3.32545e-06,1.83289e-05,-1.07223e-06,0
-1.76618e-05,-3.41847e-05,-2.13569e-06,-3.21941e-06,3.27029e-05,-9.93852e-07,1.64796e-05,-6.65353e-07,0
-2.46546e-05,-2.94442e-05,-5.39764e-06,-1.79909e-06,4.46936e-05,3.80702e-07,1.45049e-05,-3.93627e-07,0
-3.25569e-05,-2.36324e-05,-9.27902e-06,-7.52402e-07,4.36935e-05,-3.20258e-07,7.85905e-06,-4.30083e-07,0
-3.78588e-05,-1.82563e-05,-1.08562e-05,-3.71422e-06,3.35586e-05,-4.07015e-06,-5.66445e-07,-1.05272e-06,0
-4.15362e-05,-1.37291e-05,-1.13469e-05,-8.07877e-06,1.73637e-05,-1.03081e-05,-4.93352e-06,-1.23377e-06,0
-4.27164e-05,-1.05656e-05,-1.26333e-05,-9.30839e-06,1.70264e-06,-1.70887e-05,-3.17954e-06,-2.8658e-06,0
-4.36528e-05,-7.62449e-06,-1.18436e-05,-7.1179e-06,-5.72469e-06,-2.20144e-05,3.97292e-06,-5.44061e-06,0
-4.54708e-05,-7.13795e-06,-9.69782e-06,-5.18333e-06,-8.96377e-06,-2.83058e-05,1.47497e-05,-5.61162e-06,0
-4.66041e-05,-6.65277e-06,-8.51922e-06,-4.9064e-06,-1.43637e-05,-3.75782e-05,2.60656e-05,-4.13657e-06,0
-4.61001e-05,-3.98355e-06,-7.441e-06,-3.20429e-06,-2.19238e-05,-4.49703e-05,3.26839e-05,-2.1677e-06,0
-4.39966e-05,7.5345e-07,-5.72577e-06,9.31785e-07,-2.4098e-05,-4.84926e-05,3.5121e-05,-6.28293e-07,0
-4.2392e-05,6.02065e-06,-4.50385e-06,4.92163e-06,-1.93504e-05,-5.11062e-05,3.40104e-05,1.29878e-06,0
-4.035e-05,9.01418e-06,-3.70205e-06,6.70891e-06,-1.24291e-05,-5.35572e-05,3.10576e-05,2.71364e-06,0
-3.71509e-05,1.0255e-05,-1.82263e-06,6.06374e-06,-8.53238e-06,-5.17252e-05,2.81658e-05,3.32928e-06,0
-3.27475e-05,1.22294e-05,6.893e-07,4.65718e-06,-6.61089e-06,-3.93593e-05,2.66725e-05,1.09503e-06,0
-2.87256e-05,1.8018e-05,2.07733e-06,4.5599e-06,-1.221e-06,-1.81806e-05,2.76272e-05,-2.97109e-06,0
-2.67404e-05,2.56101e-05,2.956e-06,4.13269e-06,8.15686e-06,-2.52766e-06,2.95676e-05,-5.67481e-06,0
-2.80264e-05,3.07487e-05,4.36024e-06,9.80153e-07,1.60009e-05,-2.92263e-06,3.08349e-05,-6.23528e-06,0
-3.03581e-05,3.19294e-05,6.21919e-06,-3.14268e-06,1.86762e-05,-1.32749e-05,3.0621e-05,-5.26273e-06,0
-3.04011e-05,3.1358e-05,7.09249e-06,-3.68112e-06,2.00025e-05,-1.57401e-05,2.95438e-05,-3.63354e-06,0
-2.81738e-05,2.95606e-05,6.77278e-06,-9.87449e-07,2.40519e-05,4.24258e-06,2.86057e-05,-2.41639e-06,0
-2.59058e-05,2.69294e-05,6.11984e-06,2.83572e-06,3.07354e-05,3.92479e-05,2.83029e-05,-2.26929e-06,0
-2.37126e-05,2.49451e-05,5.77309e-06,8.02022e-06,3.65609e-05,5.87685e-05,2.74831e-05,-2.43791e-06,0
-2.13787e-05,2.41606e-05,5.37304e-06,1.36075e-05,4.0264e-05,4.92009e-05,2.55574e-05,-3.40416e-06,0
-2.08671e-05,2.29427e-05,2.37167e-06,1.88196e-05,4.30872e-05,3.38653e-05,2.36801e-05,-4.93067e-06,0
-2.16039e-05,2.11022e-05,-5.0355e-06,2.3357e-05,4.7002e-05,3.39196e-05,2.57106e-05,-6.96698e-06,0
-2.20049e-05,1.81435e-05,-1.70126e-05,2.40071e-05,4.79935e-05,3.17068e-05,3.3015e-05,-9.0155e-06,0
-2.1973e-05,1.61663e-05,-2.95822e-05,1.86453e-05,4.26585e-05,9.85971e-06,4.13096e-05,-9.85242e-06,0
-2.33686e-05,1.69176e-05,-3.54413e-05,1.11112e-05,2.98921e-05,-1.91746e-05,4.60489e-05,-7.45806e-06,0
-2.52199e-05,1.64584e-05,-3.26654e-05,6.1239e-06,1.33749e-05,-4.08692e-05,4.86519e-05,-2.11189e-06,0
-2.53897e-05,1.73002e-05,-2.52987e-05,4.67875e-06,3.17754e-06,-5.24001e-05,4.80688e-05,3.53589e-06,0
-2.55484e-05,2.30563e-05,-1.67071e-05,3.631e-06,-5.53992e-07,-5.9935e-05,4.22968e-05,4.99682e-06,0
-2.4822e-05,2.99915e-05,-6.74049e-06,3.74645e-06,-4.8178e-06,-6.2398e-05,3.26272e-05,3.07507e-06,0
-2.32551e-05,3.4816e-05,1.28577e-07,2.69517e-06,-1.48305e-05,-5.46005e-05,1.94106e-05,1.19198e-06,0
-2.19666e-05,3.69153e-05,1.14091e-06,6.21852e-07,-3.80131e-05,-3.32003e-05,2.68362e-06,6.93579e-07,0
-1.92447e-05,3.52014e-05,-1.57089e-06,7.25102e-07,-6.0103e-05,-2.97839e-06,-1.6529e-05,2.54084e-06,0
-1.70802e-05,3.27829e-05,-4.55481e-06,1.42845e-07,-4.72426e-05,2.83722e-05,-3.08848e-05,4.7789e-06,0
-1.69846e-05,3.1432e-05,-6.33386e-06,-4.21384e-06,-1.1204e-05,5.10587e-05,-3.49078e-05,6.4747e-06,0
-1.853e-05,2.90224e-05,-7.23857e-06,-1.06954e-05,1.51499e-05,5.1513e-05,-2.96458e-05,7.08555e-06,0
-2.03855e-05,2.39152e-05,-5.98588e-06,-1.43973e-05,3.57332e-05,3.1281e-05,-2.06702e-05,6.27966e-06,0
-2.21512e-05,1.64555e-05,-4.85599e-06,-1.60678e-05,5.5629e-05,5.82525e-06,-1.24442e-05,5.18298e-06,0
-2.39499e-05,8.98245e-06,-5.34296e-06,-1.77725e-05,5.9112e-05,-1.37115e-05,-5.67293e-06,3.82184e-06,0
-2.60299e-05,3.00776e-06,-8.78837e-06,-1.83128e-05,4.30772e-05,-2.9683e-05,-1.72776e-06,2.67193e-06,0
-2.83893e-05,-1.44089e-06,-1.38741e-05,-1.52616e-05,2.98369e-05,-4.6262e-05,-2.633e-07,2.71764e-06,0
-2.99945e-05,-4.55001e-06,-1.68305e-05,-1.07586e-05,3.01919e-05,-6.21019e-05,2.87277e-06,3.64679e-06,0
-3.07607e-05,-4.73972e-06,-1.64928e-05,-9.6255e-06,2.69216e-05,-6.87983e-05,9.10218e-06,4.30388e-06,0
-3.02844e-05,-2.05375e-06,-1.83051e-05,-1.51881e-05,1.11665e-05,-6.16534e-05,1.38102e-05,3.98368e-06,0
-2.79011e-05,1.46789e-06,-2.57994e-05,-2.51903e-05,-5.92457e-08,-4.62834e-05,1.43959e-05,3.40971e-06,0
-2.42452e-05,4.94649e-06,-3.31154e-05,-2.94171e-05,6.87546e-06,-3.07103e-05,9.79629e-06,3.27627e-06,0
-2.16308e-05,7.70674e-06,-3.22483e-05,-2.18834e-05,2.51901e-05,-1.01006e-05,-4.39237e-06,3.24394e-06,0
-2.09266e-05,9.32447e-06,-2.47863e-05,-8.47097e-06,3.88624e-05,3.01462e-05,-2.49525e-05,3.39737e-06,0
-2.16403e-05,1.12312e-05,-1.9517e-05,2.41167e-06,3.71923e-05,8.59962e-05,-3.76428e-05,4.81694e-06,0
-2.24596e-05,1.27513e-05,-1.93596e-05,4.44089e-06,2.43662e-05,0.000125025,-3.39999e-05,5.81619e-06,0
-2.39489e-05,1.17521e-05,-2.02895e-05,5.0602e-07,1.10214e-05,0.000119802,-1.54433e-05,5.22131e-06,0
-2.67258e-05,1.04029e-05,-1.95789e-05,-9.94784e-07,1.86922e-06,8.6057e-05,7.23228e-06,3.99672e-06,0
-2.93157e-05,1.05426e-05,-1.73356e-05,3.3779e-06,-4.30802e-06,5.37604e-05,2.80709e-05,3.47735e-06,0
-3.01175e-05,1.16566e-05,-1.28273e-05,1.07815e-05,-7.42287e-06,3.98473e-05,4.56587e-05,1.71934e-06,0
-2.97181e-05,1.40982e-05,-9.00944e-06,1.41489e-05,-6.80614e-06,3.75619e-05,5.58416e-05,-5.64695e-07,0
-2.93586e-05,1.60312e-05,-1.18547e-05,1.02974e-05,-3.12642e-06,3.02127e-05,5.86518e-05,5.84465e-07,0
-2.94918e-05,1.68785e-05,-1.60827e-05,3.69978e-06,3.26587e-06,2.15329e-05,5.58012e-05,2.21743e-06,0
-3.09182e-05,1.67482e-05,-1.26136e-05,4.96089e-07,1.22252e-05,1.1699e-05,5.14704e-05,3.42355e-06,0
-3.29521e-05,1.43131e-05,-4.38076e-06,-2.02075e-06,2.13705e-05,2.90701e-06,4.63383e-05,5.24582e-06,0
-3.44542e-05,1.2709e-05,3.80857e-06,-8.08063e-06,2.4314e-05,-4.62421e-06,4.08243e-05,7.04774e-06,0
-3.51127e-05,1.36233e-05,7.77213e-06,-1.31307e-05,1.88128e-05,-1.08885e-05,3.43348e-05,8.08087e-06,0
-3.52733e-05,1.53883e-05,7.63297e-06,-1.34722e-05,8.50626e-06,-1.31714e-05,2.83744e-05,7.9178e-06,0
-3.45289e-05,1.85705e-05,6.32754e-06,-1.1289e-05,-1.83484e-06,-1.46263e-05,2.37161e-05,7.04178e-06,0
-3.40674e-05,2.34691e-05,6.02846e-06,-7.8775e-06,-1.19818e-05,-1.83991e-05,1.91541e-05,5.76982e-06,0
-3.37821e-05,2.83438e-05,7.14432e-06,-5.2907e-06,-2.02842e-05,-2.33745e-05,1.22125e-05,4.38524e-06,0
-3.31017e-05,3.08489e-05,7.41578e-06,-4.64489e-06,-1.91603e-05,-2.60591e-05,3.75117e-06,2.98976e-06,0
-3.32841e-05,3.06623e-05,3.41089e-06,-6.40522e-06,-4.16296e-06,-2.87816e-05,-1.38865e-06,3.52168e-06,0
-3.43774e-05,3.06116e-05,-2.73151e-06,-1.01292e-05,1.92041e-05,-3.23562e-05,-2.13982e-06,5.02306e-06,0
-3.52647e-05,3.12049e-05,-4.70451e-06,-1.44262e-05,3.56751e-05,-3.73947e-05,1.56238e-07,4.97726e-06,0
-3.50862e-05,3.00076e-05,-2.04265e-06,-1.76428e-05,3.73364e-05,-4.09621e-05,1.7707e-06,4.41586e-06,0
-3.35665e-05,2.80241e-05,1.50553e-06,-1.76731e-05,3.79783e-05,-3.99591e-05,2.06786e-06,4.65411e-06,0
-3.1142e-05,2.82165e-05,2.05687e-06,-1.39061e-05,5.50138e-05,-3.08763e-05,1.69351e-06,5.05341e-06,0
-2.87918e-05,3.02688e-05,-1.62684e-06,-8.11262e-06,7.98872e-05,-1.85039e-05,1.42189e-06,4.84985e-06,0
-2.61065e-05,3.19938e-05,-8.08749e-06,-6.3812e-06,8.4887e-05,-1.09971e-05,9.27213e-07,3.51136e-06,0
-2.04081e-05,3.26793e-05,-1.12672e-05,-1.10447e-05,6.23528e-05,-1.35948e-05,2.61003e-06,2.74415e-06,0
-9.16952e-06,3.28914e-05,-8.01533e-06,-1.58242e-05,3.6401e-05,-2.82888e-05,6.98675e-06,4.13191e-06,0
3.6207e-06,3.36929e-05,6.34505e-07,-1.52781e-05,2.56113e-05,-4.46631e-05,1.05136e-05,5.12396e-06,0
1.45509e-05,3.48289e-05,1.16002e-05,-7.73358e-06,2.63789e-05,-5.13048e-05,1.1025e-05,4.35943e-06,0
1.94372e-05,3.26065e-05,1.785e-05,5.10884e-06,2.91735e-05,-5.54038e-05,1.20001e-05,4.36071e-06,0
1.18194e-05,2.76537e-05,8.7585e-06,1.64507e-05,2.84366e-05,-6.64515e-05,1.65651e-05,4.66934e-06,0
-5.77005e-06,2.24756e-05,-1.57549e-05,1.92859e-05,2.19225e-05,-7.98839e-05,2.25978e-05,3.37144e-06,0
-2.55604e-05,1.72708e-05,-3.83935e-05,1.33373e-05,1.30487e-05,-7.73708e-05,2.6245e-05,4.30638e-07,0
-4.0784e-05,1.2886e-05,-5.08816e-05,1.13231e-07,7.05852e-06,-4.20138e-05,2.75162e-05,-2.75356e-06,0
-5.09269e-05,7.3313e-06,-5.60866e-05,-1.33629e-05,3.84895e-06,1.36621e-05,2.75076e-05,-2.53663e-06,0
-6.03474e-05,1.188e-06,-5.42658e-05,-1.91163e-05,-3.74646e-08,4.95751e-05,2.5497e-05,4.19887e-06,0
-6.77042e-05,-4.12803e-06,-4.90105e-05,-2.00299e-05,-4.38731e-06,4.52697e-05,2.11138e-05,1.55633e-05,0
-7.04947e-05,-9.74366e-06,-4.32272e-05,-1.76684e-05,3.52986e-06,2.06592e-05,1.5069e-05,2.31122e-05,0
-7.08091e-05,-1.46159e-05,-3.61049e-05,-1.55652e-05,2.57297e-05,9.08415e-06,1.05645e-05,2.59261e-05,0
-7.0936e-05,-1.8075e-05,-2.93106e-05,-1.6038e-05,4.26705e-05,2.01096e-05,8.81821e-06,2.42901e-05,0
-6.85932e-05,-1.99694e-05,-2.42146e-05,-1.82087e-05,4.34274e-05,2.87696e-05,8.23801e-06,1.50632e-05,0
-6.25327e-05,-1.75265e-05,-1.83589e-05,-2.00699e-05,3.53516e-05,1.45651e-05,5.82274e-06,-7.65194e-07,0
-5.47258e-05,-1.08322e-05,-1.07622e-05,-2.14675e-05,2.88775e-05,-1.4076e-05,1.93321e-06,-1.81918e-05,0
-4.37483e-05,-3.6504e-06,-3.54893e-06,-2.30738e-05,2.40827e-05,-2.75407e-05,-1.58507e-06,-3.19487e-05,0
-2.94766e-05,1.96417e-06,1.8318e-06,-2.49872e-05,1.53348e-05,-1.70627e-05,-3.67617e-06,-3.8847e-05,0
-1.71212e-05,6.49179e-06,5.37425e-06,-2.88165e-05,1.30576e-06,-5.56698e-06,-2.96769e-06,-3.76816e-05,0
-1.06853e-05,1.11277e-05,7.01532e-06,-3.38362e-05,-1.45204e-05,-1.16612e-05,-5.86274e-07,-3.18703e-05,0
-7.55344e-06,1.64186e-05,6.52013e-06,-3.6512e-05,-2.74694e-05,-2.10898e-05,2.89186e-07,-2.43147e-05,0
-6.10836e-06,2.20125e-05,4.93224e-06,-3.49227e-05,-3.6296e-05,-1.60632e-05,-2.22466e-08,-1.68649e-05,0
-7.86163e-06,2.50965e-05,3.51841e-06,-3.35936e-05,-4.19794e-05,-4.93598e-06,5.01117e-07,-9.93938e-06,0
-1.31752e-05,2.47333e-05,1.93177e-06,-3.25181e-05,-4.28616e-05,-9.61677e-06,1.86627e-06,-3.25659e-06,0
-2.15298e-05,2.45691e-05,-9.21635e-07,-2.75678e-05,-3.64871e-05,-3.31314e-05,2.49159e-06,2.03021e-06,0
-3.044e-05,2.57859e-05,-5.57945e-06,-1.86446e-05,-2.47076e-05,-5.27988e-05,3.1834e-06,3.00084e-06,0
-3.74416e-05,2.48258e-05,-1.04818e-05,-8.89345e-06,-1.26744e-05,-5.48645e-05,4.44358e-06,2.08672e-06,0
-4.3659e-05,1.9557e-05,-1.22907e-05,-8.11967e-07,-6.55221e-06,-4.52352e-05,3.48321e-06,3.68507e-06,0
-4.80292e-05,1.34382e-05,-1.08961e-05,4.31369e-06,-4.72747e-06,-2.88856e-05,-9.82469e-07,6.43587e-06,0
-4.91813e-05,9.83411e-06,-7.49648e-06,7.68144e-06,-1.10498e-06,-1.14536e-06,-4.46639e-06,8.12811e-06,0
-4.94549e-05,9.35507e-06,-5.86859e-06,1.16188e-05,5.03339e-06,3.82595e-05,-2.40002e-06,9.53043e-06,0
-5.08773e-05,8.94252e-06,-6.57358e-06,1.56471e-05,1.0071e-05,6.43689e-05,3.59817e-06,1.02965e-05,0
-5.39203e-05,4.88305e-06,-3.85374e-06,1.93576e-05,1.24451e-05,5.95061e-05,1.06208e-05,8.90917e-06,0
-5.52963e-05,5.04465e-07,3.22381e-06,2.31663e-05,1.01776e-05,3.69389e-05,1.75197e-05,5.24403e-06,0
-5.23011e-05,-2.038e-06,7.81612e-06,1.65059e-05,3.33749e-06,1.25141e-05,2.33188e-05,-1.23699e-07,0
-4.88855e-05,-2.81547e-06,3.19706e-06,-1.64567e-06,-1.97418e-06,-2.1832e-06,2.32549e-05,-2.90631e-06,0
-4.7622e-05,-6.89265e-07,-3.32355e-06,-2.00683e-05,-5.7494e-06,-1.13546e-05,1.37714e-05,-2.57938e-06,0
-4.69816e-05,4.11521e-07,-2.83141e-06,-3.06406e-05,-8.76572e-06,-2.03008e-05,6.46214e-07,-1.63925e-06,0
-4.60675e-05,-1.72583e-06,2.91881e-06,-3.12977e-05,-1.06264e-05,-3.09047e-05,-7.34601e-06,4.33221e-07,0
-4.42311e-05,-4.14355e-06,8.54852e-06,-2.62371e-05,-1.35076e-05,-4.01945e-05,-6.7519e-06,2.32074e-06,0
-4.19875e-05,-5.80083e-06,9.46206e-06,-1.58646e-05,-1.54345e-05,-4.34153e-05,-1.46062e-06,2.66659e-06,0
-3.99372e-05,-3.90331e-06,6.24577e-06,-2.39697e-06,-1.28951e-05,-3.64073e-05,3.66268e-06,2.19813e-06,0
-3.80529e-05,2.54163e-06,2.31847e-06,9.54512e-06,-6.61876e-06,-2.13423e-05,8.33121e-06,1.83352e-06,0
-3.5764e-05,1.10504e-05,-6.15189e-07,1.62438e-05,1.71225e-06,-5.54202e-06,1.20709e-05,2.35249e-06,0
-3.37106e-05,1.69531e-05,-3.74061e-06,1.69837e-05,1.11341e-05,8.12833e-06,1.21475e-05,3.19637e-06,0
-3.16194e-05,1.84708e-05,-8.62076e-06,1.09042e-05,1.72382e-05,1.18258e-05,8.88645e-06,2.68084e-06,0
-2.90579e-05,1.76829e-05,-1.57974e-05,2.24091e-06,1.72529e-05,1.55056e-06,5.38098e-06,1.03471e-06,0
-2.66114e-05,1.6124e-05,-2.27112e-05,-3.11778e-06,1.44472e-05,-1.66979e-05,3.2004e-06,8.72746e-07,0
-2.45757e-05,1.54397e-05,-2.40707e-05,-3.73588e-06,1.27336e-05,-3.41444e-05,2.56615e-06,1.88389e-06,0
-2.27225e-05,1.48508e-05,-1.79507e-05,-1.9606e-06,1.50223e-05,-5.26066e-05,4.61982e-06,1.8767e-06,0
-2.08846e-05,1.43149e-05,-9.49407e-06,-4.91793e-08,2.06259e-05,-7.27058e-05,8.93379e-06,5.86922e-07,0
-2.06508e-05,1.33525e-05,-4.32873e-06,1.23664e-06,2.41694e-05,-9.07275e-05,1.1943e-05,-7.56152e-07,0
-2.40036e-05,1.09375e-05,-2.35954e-06,1.26687e-07,2.6083e-05,-0.000101955,1.23242e-05,-5.01653e-07,0
-2.85835e-05,7.64573e-06,-1.84064e-06,-3.71957e-06,2.96171e-05,-0.000104404,1.21253e-05,1.68861e-06,0
-3.00596e-05,6.21844e-06,-1.9402e-06,-1.03038e-05,3.13882e-05,-0.00010354,1.41925e-05,2.92681e-06,0
-2.9785e-05,6.39082e-06,-2.7844e-06,-1.83916e-05,2.83685e-05,-9.94978e-05,1.78791e-05,2.66208e-06,0
-3.05407e-05,4.88479e-06,-4.09837e-06,-2.55391e-05,2.46325e-05,-7.02808e-05,2.21938e-05,2.99874e-06,0
-3.16782e-05,1.3792e-06,-4.68841e-06,-2.90207e-05,1.83835e-05,-1.26797e-05,2.44053e-05,4.41015e-06,0
-2.75498e-05,3.09939e-07,-2.73235e-06,-2.69581e-05,4.53644e-06,2.78369e-05,2.42847e-05,6.24344e-06,0
-1.66061e-05,5.23202e-06,3.47823e-06,-1.95013e-05,1.11681e-06,3.60992e-05,2.51389e-05,4.78776e-06,0
-4.68732e-06,1.48116e-05,1.03319e-05,-8.0641e-06,1.82768e-05,4.16708e-05,2.59244e-05,2.41835e-06,0
2.55927e-06,2.44549e-05,1.20825e-05,3.70592e-06,3.8729e-05,6.12002e-05,2.62501e-05,2.91202e-06,0
2.30515e-06,3.02011e-05,7.508e-06,1.28694e-05,4.87475e-05,8.00562e-05,2.70531e-05,4.3773e-06,0
-2.13499e-06,3.12725e-05,-2.53077e-06,1.94444e-05,4.20428e-05,7.33575e-05,2.65711e-05,3.25413e-06,0
-7.50481e-06,3.11506e-05,-1.53155e-05,2.00722e-05,2.39779e-05,4.90711e-05,2.30337e-05,-1.10138e-07,0
-1.20753e-05,3.21641e-05,-2.60232e-05,1.33067e-05,9.00787e-06,2.94649e-05,1.96978e-05,-1.46594e-06,0
-1.29068e-05,3.28148e-05,-3.35132e-05,5.38928e-06,1.30427e-06,2.49876e-05,2.05438e-05,-1.33111e-06,0
-1.05408e-05,3.35301e-05,-3.81002e-05,1.25804e-06,-5.57166e-06,2.87941e-05,2.50219e-05,-7.17253e-07,0
-1.09837e-05,3.36597e-05,-3.77196e-05,1.70125e-06,-2.37296e-05,3.00202e-05,2.72686e-05,-5.08211e-07,0
-1.87055e-05,3.30164e-05,-3.2327e-05,4.37749e-06,-5.0226e-05,2.41575e-05,2.51133e-05,-5.07496e-07,0
-3.07493e-05,3.40571e-05,-2.54949e-05,7.08461e-06,-6.09495e-05,1.04709e-05,2.19527e-05,-4.21995e-07,0
-4.0071e-05,3.85367e-05,-2.12547e-05,9.97712e-06,-4.35055e-05,-5.98588e-06,1.94602e-05,6.99338e-07,0
-4.26233e-05,4.30846e-05,-2.07065e-05,1.33093e-05,-9.59724e-06,-1.82075e-05,1.81614e-05,2.60797e-06,0
-4.08652e-05,4.21568e-05,-2.27993e-05,1.87939e-05,1.83416e-05,-2.14922e-05,1.7108e-05,2.3008e-06,0
-3.80534e-05,3.47328e-05,-2.41533e-05,2.33474e-05,2.92024e-05,-2.08168e-05,1.56987e-05,4.87046e-07,0
-3.5951e-05,2.51513e-05,-2.25341e-05,2.3017e-05,2.64924e-05,-2.06173e-05,1.2883e-05,2.35109e-07,0
-3.57231e-05,1.65973e-05,-2.04055e-05,1.90566e-05,2.21524e-05,-2.25235e-05,9.63368e-06,1.27981e-06,0
-3.791e-05,1.05178e-05,-1.99451e-05,1.45083e-05,2.7633e-05,-2.52028e-05,7.3552e-06,1.32815e-06,0
-4.10599e-05,1.04904e-05,-1.81658e-05,9.88937e-06,4.37078e-05,-2.89727e-05,6.6313e-06,-8.11197e-08,0
-4.14816e-05,1.95624e-05,-1.29711e-05,4.67885e-06,5.82396e-05,-3.71159e-05,8.18938e-06,-2.23955e-06,0
-3.6484e-05,3.33259e-05,-7.54448e-06,2.94868e-07,6.09594e-05,-5.31962e-05,9.95402e-06,-3.08721e-06,0
-2.50795e-05,3.74113e-05,-5.35784e-06,5.152e-06,5.8791e-05,-6.90524e-05,1.13964e-05,-1.38906e-06,0
-1.75998e-06,2.91256e-05,-4.24047e-06,2.86187e-05,5.67019e-05,-7.45419e-05,1.37994e-05,2.7391e-06,0
2.79134e-05,2.01595e-05,-1.18383e-06,5.29523e-05,5.05121e-05,-7.30345e-05,1.68675e-05,5.63626e-06,0
4.44416e-05,1.41338e-05,3.95182e-06,5.19795e-05,3.64099e-05,-7.30917e-05,1.80108e-05,5.08022e-06,0
4.21327e-05,7.36757e-06,1.25352e-05,3.09727e-05,2.25391e-05,-6.10657e-05,1.79183e-05,1.01371e-06,0
2.55681e-05,-3.92999e-07,2.30741e-05,6.98658e-06,1.82631e-05,-3.70841e-05,1.91322e-05,-3.63085e-06,0
-1.0698e-06,-7.12352e-06,3.74146e-05,-1.2039e-05,1.89463e-05,-3.57419e-05,1.96308e-05,-3.72822e-06,0
-3.14223e-05,-9.53561e-06,5.39774e-05,-2.09919e-05,2.02433e-05,-4.53234e-05,1.9113e-05,-1.86947e-06,0
-5.60472e-05,-7.73262e-06,6.35164e-05,-2.01409e-05,2.07307e-05,-2.68463e-05,1.77475e-05,-4.8883e-07,0
-7.02631e-05,-7.18844e-06,5.96313e-05,-1.56824e-05,2.1762e-05,1.67167e-05,1.41717e-05,1.28332e-06,0
-7.41412e-05,-9.48123e-06,3.86912e-05,-1.16112e-05,2.46818e-05,5.92244e-05,8.84812e-06,1.79512e-06,0
-7.30689e-05,-1.49438e-05,6.43525e-06,-1.0503e-05,2.87291e-05,8.35954e-05,2.33294e-06,1.04927e-06,0
-7.23927e-05,-2.13789e-05,-2.53625e-05,-1.70565e-05,3.20594e-05,8.53555e-05,-4.57091e-07,-4.29313e-07,0
-7.13195e-05,-2.61373e-05,-4.76631e-05,-3.33931e-05,3.3384e-05,6.77921e-05,2.16099e-06,-3.0483e-06,0
-6.39827e-05,-2.8397e-05,-5.67704e-05,-5.46396e-05,3.49156e-05,3.16536e-05,5.55297e-06,-4.71797e-06,0
-4.40669e-05,-2.89101e-05,-5.34792e-05,-7.33558e-05,3.62292e-05,-3.81662e-06,5.93989e-06,-3.7923e-06,0
-2.11441e-05,-2.59583e-05,-4.15266e-05,-8.82047e-05,3.34614e-05,-8.00856e-06,4.83575e-06,-2.66718e-06,0
-3.90692e-06,-1.54546e-05,-2.75696e-05,-0.000100705,2.5892e-05,1.76756e-05,7.4876e-06,-2.90769e-06,0
1.11557e-05,8.07098e-07,-1.66424e-05,-0.000107316,1.74343e-05,3.72765e-05,1.7732e-05,-2.84573e-06,0
2.3275e-05,1.68598e-05,-8.20381e-06,-9.97766e-05,1.08695e-05,2.88424e-05,3.2324e-05,-2.86401e-06,0
2.18782e-05,2.54899e-05,-5.3354e-07,-7.78624e-05,8.15773e-06,1.3527e-05,4.31087e-05,-3.6175e-06,0
4.58586e-06,2.61822e-05,3.70754e-06,-5.16425e-05,7.97419e-06,1.20113e-05,4.566e-05,-4.04485e-06,0
-1.79496e-05,2.34345e-05,2.3178e-06,-3.12521e-05,8.12122e-06,1.63526e-05,4.11845e-05,-3.73283e-06,0
-3.50866e-05,1.96443e-05,-6.18639e-07,-1.83914e-05,7.58446e-06,1.47412e-05,3.32153e-05,-3.03455e-06,0
-4.5825e-05,1.48098e-05,-6.90608e-07,-1.01942e-05,5.96945e-06,1.14593e-05,2.23442e-05,-3.25059e-06,0
-5.60862e-05,9.12259e-06,-8.80058e-07,-4.83154e-06,4.19693e-06,1.5653e-05,9.82138e-06,-3.92527e-06,0
-6.69319e-05,4.34312e-06,-3.14979e-06,-2.25441e-06,3.41543e-06,2.58453e-05,-3.18228e-06,-2.44075e-06,0
-7.60675e-05,-6.17158e-07,-5.70421e-06,-2.05073e-06,3.76569e-06,2.35254e-05,-1.82417e-05,5.56658e-08,0
-8.11957e-05,-1.02414e-05,-9.50247e-06,2.15183e-06,3.70509e-06,1.88261e-06,-3.5544e-05,2.22685e-06,0
