ch1,ch2,ch3,ch4,ch5,ch6,ch7,ch8,class
-3.24802e-05,6.48612e-06,4.38348e-05,-9.55192e-06,6.01154e-07,-6.93025e-06,8.46651e-06,1.72468e-06,0
-3.41902e-05,1.15041e-05,4.76012e-05,-8.11459e-06,5.33258e-06,-4.8633e-06,1.20134e-05,-1.84598e-07,0
-3.50868e-05,2.7327e-05,4.26898e-05,-4.05546e-06,7.85397e-06,-2.78379e-06,1.03083e-05,-3.2946e-07,0
-3.56832e-05,5.49131e-05,2.6288e-05,-3.38753e-06,6.68578e-06,-1.75928e-06,-1.68792e-06,-3.89062e-07,0
-3.49156e-05,8.19518e-05,2.88356e-06,-5.52984e-06,2.7103e-06,-1.67246e-06,-1.97355e-05,-1.16225e-06,0
-3.26927e-05,9.32075e-05,-2.13297e-05,-6.25841e-06,-8.80508e-07,-1.68976e-06,-2.89987e-05,-1.07521e-06,0
-3.11644e-05,8.53496e-05,-3.99652e-05,-2.43497e-06,-1.20917e-06,-1.66509e-06,-2.17923e-05,1.38069e-07,0
-3.14149e-05,6.29201e-05,-4.93235e-05,2.22626e-06,1.07842e-06,-2.23838e-06,-2.21389e-06,1.32565e-06,0
-3.20207e-05,3.29061e-05,-4.99563e-05,3.82362e-06,2.36247e-06,-3.17719e-06,1.82669e-05,1.13337e-06,0
-3.16881e-05,1.68312e-06,-4.70406e-05,2.76443e-06,2.3887e-06,-3.4545e-06,3.38403e-05,-3.85514e-07,0
-3.05882e-05,-2.51304e-05,-4.35298e-05,2.85489e-06,3.70172e-06,-3.15922e-06,4.39992e-05,-1.47135e-06,0
-3.02945e-05,-4.2906e-05,-4.00207e-05,5.36412e-06,7.69228e-06,-2.63395e-06,4.94212e-05,-2.35598e-06,0
-3.11003e-05,-5.02871e-05,-3.7837e-05,7.26473e-06,1.16473e-05,-3.08112e-06,4.91283e-05,-4.97008e-06,0
-3.16115e-05,-4.71646e-05,-3.66809e-05,6.52479e-06,1.17933e-05,-4.5316e-06,4.46393e-05,-6.61104e-06,0
-3.11204e-05,-3.73655e-05,-3.42188e-05,4.17555e-06,7.85444e-06,-6.61163e-06,4.01011e-05,-4.9646e-06,0
-3.11578e-05,-2.76349e-05,-2.93649e-05,5.33923e-07,3.29885e-06,-8.18736e-06,3.74766e-05,-3.6232e-06,0
-3.23793e-05,-1.69029e-05,-2.44686e-05,-4.4446e-06,6.07119e-07,-8.28166e-06,3.6606e-05,-3.66315e-06,0
-3.35669e-05,-2.30401e-06,-2.04082e-05,-1.15685e-05,1.39215e-06,-7.05384e-06,3.67284e-05,-2.7388e-06,0
-3.26852e-05,1.14855e-05,-1.66592e-05,-2.06917e-05,4.43682e-06,-6.29797e-06,3.67893e-05,1.83221e-07,0
-2.97015e-05,1.89555e-05,-1.1325e-05,-2.92558e-05,7.5097e-06,-6.02918e-06,3.4406e-05,3.50033e-06,0
-2.91088e-05,1.86573e-05,-6.42338e-06,-3.51624e-05,1.00353e-05,-4.70264e-06,3.11418e-05,5.06688e-06,0
-3.14811e-05,1.28188e-05,-3.48626e-06,-3.79129e-05,1.05735e-05,-4.43835e-06,2.91312e-05,3.20406e-06,0
-3.14344e-05,4.49705e-06,2.04326e-07,-3.60682e-05,9.69754e-06,-4.7321e-06,2.67064e-05,6.11407e-07,0
-2.83908e-05,-2.14499e-06,2.75435e-06,-2.81183e-05,8.59394e-06,-4.76988e-06,2.23038e-05,5.58336e-07,0
-2.66819e-05,-5.15473e-06,1.87334e-06,-1.84159e-05,8.03947e-06,-4.1427e-06,1.68522e-05,2.29599e-06,0
-2.71024e-05,-8.31916e-06,-2.81621e-07,-1.17949e-05,9.35259e-06,-2.05969e-06,1.46376e-05,3.57783e-06,0
-2.83975e-05,-1.19972e-05,-8.57972e-07,-9.75962e-06,1.26551e-05,-9.76322e-07,1.43037e-05,3.75936e-06,0
-3.02723e-05,-1.2743e-05,5.28211e-08,-8.81683e-06,1.4788e-05,-2.8794e-06,1.25677e-05,4.36149e-06,0
-3.01821e-05,-9.61437e-06,8.05454e-07,-7.59518e-06,1.41727e-05,-7.70901e-06,1.09907e-05,5.01427e-06,0
-2.85014e-05,-4.33895e-06,3.07149e-07,-6.90072e-06,1.22516e-05,-1.18891e-05,1.02166e-05,4.23093e-06,0
-2.87125e-05,4.84895e-07,-5.15754e-07,-6.50832e-06,1.19753e-05,-1.26058e-05,1.04742e-05,3.58455e-06,0
-3.0062e-05,4.05661e-06,-4.39408e-07,-5.66305e-06,1.41326e-05,-1.09985e-05,1.17626e-05,4.24859e-06,0
-3.05852e-05,7.26989e-06,-2.54182e-08,-2.66982e-06,1.81176e-05,-8.76979e-06,1.20315e-05,4.77284e-06,0
-3.05084e-05,9.87518e-06,-6.2846e-07,2.94332e-07,2.24287e-05,-6.72692e-06,9.66806e-06,4.92368e-06,0
-3.10746e-05,1.13624e-05,-2.39722e-06,-1.43072e-07,2.35402e-05,-6.29815e-06,4.22321e-06,5.04349e-06,0
-3.17484e-05,1.23466e-05,-3.45444e-06,-3.22769e-06,2.11842e-05,-6.67717e-06,-5.12475e-06,4.85954e-06,0
-3.1654e-05,1.26345e-05,-2.77098e-06,-4.10648e-06,1.97125e-05,-5.36173e-06,-1.56964e-05,4.16013e-06,0
-3.08194e-05,1.27979e-05,-1.44851e-06,-6.1939e-07,2.12154e-05,-3.07309e-06,-2.18426e-05,2.10663e-06,0
-3.0004e-05,1.29138e-05,-2.1495e-06,3.70572e-06,2.18432e-05,-1.37702e-06,-1.88893e-05,-1.47147e-06,0
-2.95656e-05,1.29694e-05,-6.62245e-06,3.66254e-06,1.92776e-05,-6.90706e-07,-8.94664e-06,-4.36885e-06,0
-2.8922e-05,1.3098e-05,-1.45675e-05,3.12869e-07,1.42682e-05,-5.01081e-07,-4.2392e-07,-5.46353e-06,0
-2.80662e-05,1.32356e-05,-2.17256e-05,-6.45434e-07,1.03038e-05,8.23546e-08,2.04706e-06,-4.33475e-06,0
-2.7974e-05,1.31945e-05,-2.32828e-05,-7.1472e-07,8.69479e-06,3.24866e-07,3.35997e-06,-2.305e-06,0
-2.8965e-05,1.37751e-05,-1.99575e-05,-3.36629e-06,6.60528e-06,-4.82854e-07,7.10223e-06,-1.91212e-06,0
-2.97255e-05,1.50674e-05,-1.64458e-05,-7.79492e-06,4.56044e-06,-2.07977e-06,1.06465e-05,-3.40318e-06,0
-2.98485e-05,1.618e-05,-1.43667e-05,-9.90882e-06,5.39762e-06,-2.56534e-06,1.20181e-05,-4.51917e-06,0
-2.97603e-05,1.74578e-05,-1.14457e-05,-7.4173e-06,8.27689e-06,-9.52464e-07,1.30904e-05,-4.1313e-06,0
-3.03301e-05,1.78879e-05,-4.69877e-06,-3.98245e-06,1.11606e-05,4.89572e-08,1.53759e-05,-3.42088e-06,0
-3.08148e-05,1.65739e-05,5.764e-06,-4.05097e-06,1.20605e-05,-1.59954e-07,1.94203e-05,-3.07453e-06,0
-2.99036e-05,1.7975e-05,1.76209e-05,-1.04223e-05,9.11066e-06,-1.16061e-06,2.33706e-05,-4.94927e-06,0
-2.8841e-05,3.14087e-05,3.09648e-05,-1.8939e-05,5.46878e-06,-2.90133e-06,2.67814e-05,-7.76178e-06,0
-2.83563e-05,5.23409e-05,4.43177e-05,-2.35675e-05,3.1515e-06,-4.80976e-06,2.93915e-05,-7.56875e-06,0
-2.88219e-05,6.37949e-05,5.02017e-05,-2.54148e-05,2.19366e-06,-5.75599e-06,2.81436e-05,-6.26192e-06,0
-2.96798e-05,5.97684e-05,4.42331e-05,-2.37942e-05,3.86529e-06,-6.17792e-06,2.46093e-05,-5.25732e-06,0
-3.0938e-05,4.49466e-05,2.48632e-05,-1.40534e-05,6.6196e-06,-6.59055e-06,2.0225e-05,-2.97943e-06,0
-3.10702e-05,2.63583e-05,-6.20318e-06,1.72308e-07,8.59121e-06,-8.54672e-06,1.83692e-05,-5.71833e-07,0
-2.92524e-05,8.65078e-06,-3.88371e-05,1.11466e-05,8.73268e-06,-1.12985e-05,1.9832e-05,3.34467e-07,0
-2.71629e-05,-3.35818e-06,-6.18423e-05,1.55536e-05,7.61965e-06,-1.21496e-05,2.08179e-05,6.70882e-07,0
-2.54405e-05,-9.20481e-06,-7.15911e-05,1.58557e-05,6.83537e-06,-1.17909e-05,1.92042e-05,1.63273e-07,0
-2.55151e-05,-1.23381e-05,-7.01149e-05,1.66327e-05,7.45764e-06,-1.14818e-05,1.51122e-05,-1.038e-06,0
-2.7423e-05,-1.54778e-05,-6.01039e-05,1.86236e-05,9.16741e-06,-1.07222e-05,1.01481e-05,-7.6292e-07,0
-3.00861e-05,-2.0126e-05,-4.67383e-05,1.84197e-05,9.5316e-06,-8.91332e-06,6.60002e-06,1.05616e-06,0
-3.27711e-05,-2.36233e-05,-3.53472e-05,1.46847e-05,8.60211e-06,-7.72527e-06,5.28803e-06,2.21915e-06,0
-3.58779e-05,-2.23023e-05,-2.81786e-05,1.11936e-05,7.60471e-06,-7.71196e-06,5.63413e-06,7.22393e-07,0
-3.81014e-05,-1.45056e-05,-2.32875e-05,1.17573e-05,6.56098e-06,-8.49369e-06,7.66259e-06,-2.01601e-06,0
-3.80804e-05,-4.37209e-06,-2.04104e-05,2.26218e-05,6.01073e-06,-8.9168e-06,1.02361e-05,-3.76553e-06,0
-3.65851e-05,2.38782e-06,-1.88505e-05,4.34613e-05,7.36942e-06,-7.80339e-06,1.24423e-05,-5.04909e-06,0
-3.54269e-05,4.20747e-06,-1.69365e-05,5.65851e-05,8.98606e-06,-5.56731e-06,1.3748e-05,-7.35291e-06,0
-3.51602e-05,4.41032e-06,-1.58529e-05,4.85216e-05,9.47175e-06,-4.81824e-06,1.3851e-05,-8.42995e-06,0
-3.47333e-05,4.68381e-06,-1.61198e-05,2.83731e-05,1.05217e-05,-4.92956e-06,1.33249e-05,-8.07384e-06,0
-3.40968e-05,4.96271e-06,-1.42579e-05,8.42381e-06,1.28002e-05,-5.20531e-06,1.33459e-05,-7.22539e-06,0
-3.39058e-05,5.90721e-06,-1.02855e-05,-8.7547e-06,1.35576e-05,-7.53049e-06,1.46762e-05,-5.58061e-06,0
-3.40575e-05,8.52599e-06,-6.32843e-06,-2.39175e-05,1.02071e-05,-1.20386e-05,1.61893e-05,-4.31108e-06,0
-3.42198e-05,1.17946e-05,-3.18448e-06,-3.47024e-05,6.2055e-06,-1.46744e-05,1.63555e-05,-3.01216e-06,0
-3.38666e-05,1.45537e-05,-2.23047e-06,-3.94137e-05,5.74429e-06,-1.32318e-05,1.58282e-05,-1.67123e-06,0
-3.39036e-05,1.84376e-05,-1.41444e-06,-4.09319e-05,9.68424e-06,-1.12184e-05,1.79055e-05,-1.55781e-06,0
-3.32133e-05,2.0646e-05,-5.71243e-07,-4.28762e-05,1.31533e-05,-1.04456e-05,2.09477e-05,-1.5182e-06,0
-3.03981e-05,2.01585e-05,1.7833e-07,-4.69561e-05,1.50131e-05,-1.07783e-05,2.10922e-05,-8.93144e-07,0
-2.98156e-05,2.13038e-05,6.13563e-07,-5.15786e-05,1.59083e-05,-1.18347e-05,1.84855e-05,2.62036e-08,0
-3.12333e-05,2.30025e-05,-4.29154e-07,-5.37996e-05,1.34116e-05,-1.37234e-05,1.16956e-05,2.12312e-06,0
-3.2557e-05,2.2608e-05,-9.81414e-07,-5.02428e-05,1.01717e-05,-1.56429e-05,1.80142e-06,4.55082e-06,0
-3.33253e-05,2.03506e-05,-1.0757e-06,-3.9806e-05,8.89474e-06,-1.67051e-05,-6.09641e-06,6.40741e-06,0
-3.33653e-05,1.91443e-05,-2.48561e-06,-2.71704e-05,9.30795e-06,-1.65924e-05,-7.06341e-06,6.33144e-06,0
-3.32589e-05,1.97938e-05,-4.0102e-06,-1.73652e-05,8.5251e-06,-1.57357e-05,-1.44101e-06,5.14451e-06,0
-3.30358e-05,2.01236e-05,-3.45733e-06,-1.13924e-05,6.37457e-06,-1.42199e-05,7.31477e-06,4.53751e-06,0
-3.34684e-05,1.97699e-05,-1.59019e-06,-6.00082e-06,4.83024e-06,-1.30657e-05,1.57244e-05,4.21711e-06,0
-3.34646e-05,1.88059e-05,-5.91042e-07,1.4971e-06,4.14342e-06,-1.33234e-05,2.18172e-05,3.16696e-06,0
-3.27249e-05,1.6756e-05,-9.79182e-07,4.56483e-06,4.00642e-06,-1.3841e-05,2.49218e-05,1.13153e-06,0
-3.19631e-05,1.4502e-05,-1.93737e-06,-9.63914e-07,4.53874e-06,-1.5052e-05,2.35165e-05,-1.04263e-06,0
-3.07112e-05,1.36021e-05,-2.69272e-06,-5.75095e-06,5.74256e-06,-1.62642e-05,1.8278e-05,-1.73533e-06,0
-2.94847e-05,1.14496e-05,-2.98973e-06,4.65278e-06,9.14024e-06,-1.52264e-05,1.30557e-05,-2.96481e-07,0
-2.94167e-05,6.75445e-06,-2.77262e-06,2.94754e-05,1.71898e-05,-1.25173e-05,1.28486e-05,1.41957e-06,0
-3.01591e-05,2.64231e-06,-1.5045e-06,5.00438e-05,2.64134e-05,-1.05376e-05,1.89834e-05,2.36606e-06,0
-3.08381e-05,2.4259e-06,1.81745e-07,4.65624e-05,2.98252e-05,-8.92803e-06,2.72129e-05,2.34439e-06,0
-3.11866e-05,5.13212e-06,2.74448e-07,1.12443e-05,2.57545e-05,-7.13441e-06,3.07569e-05,1.33464e-06,0
-3.02003e-05,7.93455e-06,-9.29219e-07,-4.03311e-05,1.88936e-05,-6.44598e-06,2.77096e-05,-7.2895e-07,0
-2.73049e-05,1.05598e-05,-2.43471e-06,-8.33839e-05,1.41852e-05,-7.66218e-06,2.11144e-05,-2.19845e-06,0
-2.47048e-05,1.6819e-05,-3.77205e-06,-0.000110079,1.18767e-05,-1.00221e-05,1.50524e-05,-1.4242e-06,0
-2.48917e-05,2.56161e-05,-5.85555e-06,-0.000124763,9.86187e-06,-1.14569e-05,1.03035e-05,9.73037e-07,0
-2.62944e-05,3.1109e-05,-9.02158e-06,-0.000129012,8.59016e-06,-1.09377e-05,7.05084e-06,2.38072e-06,0
-2.59925e-05,2.98389e-05,-1.14779e-05,-0.000103662,8.80817e-06,-1.01765e-05,4.83139e-06,1.3707e-06,0
-2.57312e-05,2.46193e-05,-1.11441e-05,-4.43213e-05,8.4408e-06,-1.09433e-05,6.06991e-07,-5.63085e-07,0
-2.73352e-05,2.25519e-05,-9.09817e-06,3.18224e-05,8.07684e-06,-1.26779e-05,-4.79516e-06,-1.99959e-06,0
-2.86998e-05,2.74154e-05,-6.77079e-06,0.000109736,1.04044e-05,-1.23016e-05,-8.10201e-06,-1.98897e-06,0
-2.8181e-05,4.18919e-05,-3.12319e-06,0.000155933,1.64323e-05,-8.66808e-06,-7.10282e-06,-1.30283e-06,0
-2.67524e-05,5.91358e-05,-2.92857e-07,0.000150325,2.41309e-05,-6.98237e-06,-4.00217e-06,-1.61502e-06,0
-2.57752e-05,7.42432e-05,6.77104e-07,0.000105861,2.73885e-05,-8.02489e-06,-1.5202e-06,-1.48429e-06,0
-2.43734e-05,9.40687e-05,1.78917e-06,5.68507e-05,2.56812e-05,-9.01939e-06,5.66355e-07,6.45516e-07,0
-2.29956e-05,0.000112289,2.20448e-06,2.26452e-05,2.25582e-05,-9.81553e-06,4.27776e-07,2.93249e-06,0
-2.37759e-05,0.000113699,5.17187e-07,-4.70114e-07,2.27041e-05,-1.10955e-05,-1.35048e-06,3.80496e-06,0
-2.54204e-05,9.49527e-05,-2.47388e-06,-1.84825e-05,2.72605e-05,-1.10107e-05,-1.06456e-06,3.76475e-06,0
-2.6167e-05,5.65991e-05,-4.20167e-06,-2.97224e-05,3.12017e-05,-8.54694e-06,3.37093e-06,3.77643e-06,0
-2.57581e-05,1.11785e-06,-3.15305e-06,-3.32469e-05,3.14245e-05,-7.05279e-06,1.09581e-05,4.84811e-06,0
-2.5142e-05,-5.67841e-05,-2.52293e-07,-3.67081e-05,2.92764e-05,-7.40799e-06,1.75098e-05,5.82888e-06,0
-2.66611e-05,-9.67428e-05,1.89267e-06,-4.22033e-05,2.74762e-05,-7.14676e-06,1.98317e-05,4.49713e-06,0
-2.95341e-05,-0.000110378,1.70737e-06,-4.29005e-05,2.51297e-05,-5.98578e-06,2.00169e-05,1.75297e-06,0
-3.13015e-05,-0.000105595,-8.40196e-07,-3.19416e-05,2.19054e-05,-5.44011e-06,2.12671e-05,4.64576e-07,0
-3.14654e-05,-9.32115e-05,-4.48865e-06,-1.38998e-05,1.93879e-05,-5.40978e-06,2.29503e-05,2.68412e-06,0
-3.15936e-05,-7.69e-05,-7.40943e-06,2.74403e-06,1.7564e-05,-5.92272e-06,2.40441e-05,5.5966e-06,0
-3.29437e-05,-5.73449e-05,-9.20225e-06,9.57073e-06,1.52762e-05,-6.30027e-06,2.44629e-05,6.96875e-06,0
-3.44496e-05,-3.85575e-05,-1.04178e-05,6.61563e-06,1.20922e-05,-6.51113e-06,2.38537e-05,7.45097e-06,0
-3.423e-05,-2.25068e-05,-1.16564e-05,1.89553e-06,9.20644e-06,-6.51265e-06,2.30758e-05,6.51883e-06,0
-3.29889e-05,-8.78264e-06,-1.2418e-05,2.81659e-06,7.26994e-06,-6.27757e-06,2.40948e-05,3.72353e-06,0
-3.28264e-05,1.17205e-06,-1.37838e-05,5.91127e-06,6.37848e-06,-6.73311e-06,2.58055e-05,9.16152e-07,0
-3.29089e-05,6.56752e-06,-1.61771e-05,4.58145e-06,7.99895e-06,-8.63509e-06,2.72705e-05,6.63878e-07,0
-3.23464e-05,8.95232e-06,-1.78964e-05,5.08367e-07,1.11667e-05,-1.17036e-05,2.81555e-05,2.69001e-06,0
-3.1239e-05,1.04905e-05,-1.7716e-05,4.76296e-07,1.30959e-05,-1.35802e-05,2.74907e-05,5.06782e-06,0
-3.14519e-05,1.10577e-05,-1.63178e-05,3.19032e-06,1.21424e-05,-1.36105e-05,2.56123e-05,5.86439e-06,0
-3.40411e-05,1.25374e-05,-1.34515e-05,2.29977e-06,9.0958e-06,-1.35818e-05,2.43424e-05,4.69447e-06,0
-3.51203e-05,1.54487e-05,-9.57745e-06,-1.61571e-06,5.22361e-06,-1.31029e-05,2.4494e-05,2.89398e-06,0
-3.37803e-05,1.75805e-05,-7.18658e-06,-4.95336e-06,2.56078e-06,-1.08849e-05,2.34144e-05,3.24067e-06,0
-3.2355e-05,2.08404e-05,-7.78518e-06,-6.11543e-06,2.95666e-06,-8.38671e-06,2.00276e-05,4.59817e-06,0
-3.23473e-05,2.54344e-05,-8.94024e-06,-6.86814e-06,4.27838e-06,-8.05121e-06,1.51439e-05,4.2152e-06,0
-3.29656e-05,2.66293e-05,-8.47814e-06,-6.6638e-06,3.14785e-06,-1.01122e-05,7.59133e-06,1.85198e-06,0
-3.27314e-05,2.41765e-05,-7.09157e-06,-3.85487e-06,-3.49379e-07,-1.41596e-05,-3.84849e-07,-1.03652e-06,0
-3.35194e-05,2.19469e-05,-3.9711e-06,-2.85674e-06,-3.50681e-06,-1.74828e-05,-2.08882e-06,-2.5464e-06,0
-3.55113e-05,2.1481e-05,1.42014e-07,-4.88822e-06,-4.84941e-06,-1.86255e-05,3.73787e-06,-2.7674e-06,0
-3.66983e-05,2.27141e-05,1.56456e-06,-6.34759e-06,-4.41191e-06,-1.88472e-05,1.16279e-05,-2.75795e-06,0
-3.61955e-05,2.45021e-05,-1.98351e-06,-5.00424e-06,-2.96194e-06,-1.77733e-05,1.62621e-05,-3.03319e-06,0
-3.4718e-05,2.70198e-05,-8.1685e-06,-3.18174e-07,2.85611e-07,-1.62079e-05,1.77062e-05,-2.87347e-06,0
-3.29923e-05,3.10171e-05,-1.46675e-05,4.13868e-06,6.26099e-06,-1.52644e-05,1.66617e-05,-1.96231e-06,0
-3.05614e-05,3.51374e-05,-2.08346e-05,6.75803e-06,1.33031e-05,-1.56727e-05,1.36159e-05,-1.93041e-07,0
-2.86334e-05,3.85922e-05,-2.59698e-05,6.18189e-06,1.94756e-05,-1.62579e-05,1.05979e-05,1.95245e-06,0
-2.88379e-05,4.10437e-05,-2.81999e-05,3.56953e-06,2.43175e-05,-1.58517e-05,9.62342e-06,3.11465e-06,0
-3.00782e-05,4.1402e-05,-2.61615e-05,7.14169e-07,2.6626e-05,-1.47936e-05,1.11102e-05,3.19679e-06,0
-3.05265e-05,4.03445e-05,-2.08117e-05,4.22073e-07,2.71044e-05,-1.44401e-05,1.30383e-05,3.42872e-06,0
-2.97358e-05,4.01316e-05,-1.47911e-05,3.37919e-06,2.86174e-05,-1.49399e-05,1.43239e-05,3.20819e-06,0
-2.80899e-05,4.13841e-05,-1.01703e-05,6.86405e-06,3.133e-05,-1.51562e-05,1.62586e-05,2.29926e-06,0
-2.57998e-05,4.20512e-05,-7.35733e-06,7.40737e-06,3.26238e-05,-1.56136e-05,1.81182e-05,1.49541e-06,0
-2.38078e-05,4.05277e-05,-5.77243e-06,4.03572e-06,3.05793e-05,-1.73341e-05,1.70799e-05,1.74435e-06,0
-2.3179e-05,3.69004e-05,-4.61648e-06,-1.64394e-06,2.58859e-05,-1.89696e-05,1.64021e-05,2.85693e-06,0
-2.43206e-05,3.25473e-05,-4.58529e-06,-7.27357e-06,2.18473e-05,-1.92568e-05,1.80327e-05,3.41283e-06,0
-2.62023e-05,2.89032e-05,-5.77954e-06,-1.13832e-05,2.07422e-05,-1.89387e-05,1.88298e-05,4.0961e-06,0
-2.63269e-05,2.7051e-05,-6.6973e-06,-1.63577e-05,2.11633e-05,-1.7649e-05,1.68431e-05,4.42709e-06,0
-2.5386e-05,2.74087e-05,-7.54786e-06,-2.34432e-05,2.04603e-05,-1.63445e-05,1.10765e-05,3.49364e-06,0
-2.59697e-05,2.78879e-05,-8.64866e-06,-3.08511e-05,1.80775e-05,-1.68873e-05,5.88019e-06,1.53593e-06,0
-2.74648e-05,2.64382e-05,-8.37844e-06,-3.58277e-05,1.67311e-05,-1.77831e-05,6.06194e-06,7.1211e-07,0
-2.88646e-05,2.26559e-05,-6.55666e-06,-3.92779e-05,1.80947e-05,-1.73885e-05,9.12706e-06,7.18822e-07,0
-2.98947e-05,2.08587e-05,-4.12504e-06,-4.25653e-05,1.87014e-05,-1.78423e-05,1.1765e-05,1.4137e-07,0
-2.94888e-05,2.28432e-05,3.7859e-07,-4.43522e-05,1.67614e-05,-1.85702e-05,1.21969e-05,-1.04749e-07,0
-2.78547e-05,2.4209e-05,7.47039e-06,-4.19596e-05,1.30257e-05,-1.83753e-05,1.23394e-05,-1.37536e-06,0
-2.61917e-05,2.29997e-05,1.48268e-05,-3.52237e-05,9.55042e-06,-1.74953e-05,1.29859e-05,-2.61229e-06,0
-2.52703e-05,1.72124e-05,2.15408e-05,-2.49837e-05,8.15834e-06,-1.53234e-05,1.60279e-05,-2.55797e-06,0
-2.51809e-05,1.06433e-05,2.67641e-05,-1.44318e-05,6.95324e-06,-1.4295e-05,2.33285e-05,-1.5904e-06,0
-2.53639e-05,7.72109e-06,2.92083e-05,-5.72679e-06,5.3971e-06,-1.50931e-05,3.10791e-05,-6.45259e-07,0
-2.63053e-05,4.81299e-06,2.72281e-05,2.31382e-06,5.41654e-06,-1.51109e-05,3.68035e-05,3.21907e-07,0
-2.82255e-05,-3.02022e-09,2.08761e-05,8.38561e-06,7.53274e-06,-1.41444e-05,3.95002e-05,9.35787e-07,0
-2.91166e-05,-4.07864e-06,8.74956e-06,1.03572e-05,1.03846e-05,-1.38104e-05,3.89129e-05,1.05243e-06,0
-2.90507e-05,-5.77689e-06,-1.00853e-05,8.56429e-06,1.29612e-05,-1.37613e-05,3.36387e-05,1.4648e-06,0
-2.94567e-05,-7.55234e-06,-3.17425e-05,4.4811e-06,1.32781e-05,-1.29256e-05,2.52136e-05,1.98357e-06,0
-3.01148e-05,-1.08184e-05,-4.96743e-05,1.67162e-07,1.17461e-05,-1.21525e-05,1.62114e-05,2.42959e-06,0
-2.98898e-05,-1.18885e-05,-5.82041e-05,-1.69558e-06,1.20946e-05,-1.223e-05,9.69242e-06,2.68789e-06,0
-2.97377e-05,-7.72713e-06,-5.6463e-05,5.54371e-08,1.54688e-05,-1.28533e-05,7.26376e-06,2.99504e-06,0
-3.08624e-05,-1.81643e-06,-4.84998e-05,4.35936e-06,1.84888e-05,-1.26595e-05,8.17328e-06,2.57508e-06,0
-3.14292e-05,2.49659e-06,-4.10681e-05,9.95648e-06,1.91513e-05,-1.15435e-05,1.11872e-05,2.43752e-06,0
-3.02219e-05,5.28536e-06,-3.67989e-05,1.40992e-05,1.8701e-05,-1.1042e-05,1.39092e-05,2.30984e-06,0
-2.86941e-05,6.78044e-06,-3.58373e-05,1.22384e-05,1.75868e-05,-1.07053e-05,1.27039e-05,2.21743e-06,0
-2.83891e-05,8.31623e-06,-3.64824e-05,5.98352e-06,1.63589e-05,-9.48759e-06,4.90816e-06,4.05172e-06,0
-2.9678e-05,1.0529e-05,-3.46429e-05,9.81877e-07,1.66269e-05,-8.60746e-06,-8.1847e-06,5.54259e-06,0
-3.16162e-05,1.19261e-05,-2.73887e-05,-1.93111e-07,1.76664e-05,-7.96668e-06,-2.19228e-05,4.85861e-06,0
-3.21098e-05,1.29515e-05,-1.79417e-05,2.08312e-06,1.93736e-05,-6.63775e-06,-2.99578e-05,3.97651e-06,0
-3.11978e-05,1.62138e-05,-1.13962e-05,3.13787e-06,1.95819e-05,-5.64791e-06,-2.94932e-05,3.77202e-06,0
-3.04096e-05,2.05311e-05,-8.41495e-06,-1.57804e-06,1.9605e-05,-5.71883e-06,-2.17942e-05,3.92511e-06,0
-3.12652e-05,2.14498e-05,-8.16464e-06,-6.12104e-06,2.1633e-05,-6.61452e-06,-1.35192e-05,2.17145e-06,0
-3.15832e-05,1.9481e-05,-7.79063e-06,-6.10602e-06,2.14798e-05,-6.98249e-06,-8.92243e-06,-1.43991e-07,0
-3.09013e-05,1.83496e-05,-7.20145e-06,-2.73823e-06,1.99531e-05,-7.875e-06,-7.1695e-06,-7.81507e-07,0
-3.18319e-05,1.85674e-05,-7.16781e-06,1.73283e-06,1.84697e-05,-9.34153e-06,-4.51251e-06,-7.30153e-07,0
-3.379e-05,1.92651e-05,-6.56217e-06,3.70197e-06,1.64955e-05,-9.87679e-06,1.8177e-06,-5.43933e-07,0
-3.43862e-05,2.05202e-05,-5.97026e-06,3.82934e-06,1.46515e-05,-9.28531e-06,9.06507e-06,9.5201e-08,0
-3.30921e-05,2.03414e-05,-4.03558e-06,3.57435e-06,1.43865e-05,-7.77899e-06,1.34903e-05,7.69023e-07,0
-3.21168e-05,1.94423e-05,-3.95683e-09,3.89657e-06,1.43454e-05,-5.73302e-06,1.46106e-05,1.25151e-06,0
-3.15194e-05,1.92729e-05,3.39514e-06,4.0453e-06,1.30438e-05,-4.38212e-06,1.39113e-05,2.17515e-06,0
-3.16398e-05,1.85979e-05,4.34944e-06,3.18645e-06,1.0994e-05,-4.39449e-06,1.24167e-05,1.35325e-06,0
-3.18222e-05,1.83842e-05,4.599e-06,1.91485e-06,9.37696e-06,-4.05067e-06,1.15123e-05,-1.58423e-06,0
-3.10027e-05,1.96703e-05,4.79571e-06,7.44345e-07,8.65054e-06,-3.26257e-06,1.19019e-05,-4.75245e-06,0
-3.01476e-05,2.14667e-05,3.84333e-06,-4.73545e-07,9.94865e-06,-2.58022e-06,1.29773e-05,-5.85687e-06,0
-3.0718e-05,2.18583e-05,1.90824e-06,-2.94115e-06,1.29665e-05,-1.90287e-06,1.36971e-05,-4.07461e-06,0
-3.18189e-05,2.11127e-05,5.75568e-07,-6.19169e-06,1.50225e-05,-1.07568e-06,1.39365e-05,-8.93513e-07,0
-3.18993e-05,1.99953e-05,4.9472e-07,-8.08022e-06,1.55437e-05,-8.38606e-07,1.47369e-05,1.52072e-06,0
-3.13698e-05,1.98003e-05,8.90092e-07,-8.57379e-06,1.55519e-05,-1.87906e-06,1.79578e-05,3.046e-06,0
-3.03361e-05,2.0006e-05,1.34761e-06,-8.9035e-06,1.55404e-05,-3.45792e-06,2.31321e-05,3.65112e-06,0
-2.90954e-05,2.03714e-05,1.63554e-06,-1.00043e-05,1.5282e-05,-4.81688e-06,2.79156e-05,2.7795e-06,0
-2.869e-05,2.21771e-05,7.52396e-07,-1.29953e-05,1.61997e-05,-6.21977e-06,3.08077e-05,1.56908e-06,0
-2.89585e-05,2.3665e-05,-2.52129e-06,-1.60062e-05,1.79785e-05,-6.74821e-06,3.02953e-05,1.36356e-06,0
-2.82709e-05,2.24817e-05,-8.01994e-06,-1.55568e-05,1.9982e-05,-5.78102e-06,2.6472e-05,1.91042e-06,0
-2.70912e-05,2.10909e-05,-1.33889e-05,-1.1999e-05,2.12585e-05,-4.21721e-06,2.20238e-05,2.60657e-06,0
-2.63907e-05,2.00804e-05,-1.47857e-05,-7.89219e-06,2.12935e-05,-2.91596e-06,1.84191e-05,4.20347e-06,0
-2.69145e-05,1.92918e-05,-1.17828e-05,-6.23867e-06,2.02936e-05,-2.50605e-06,1.43243e-05,5.23801e-06,0
-2.7661e-05,1.97428e-05,-6.44373e-06,-6.62125e-06,1.85155e-05,-2.52537e-06,7.57593e-06,4.76793e-06,0
-2.75891e-05,1.917e-05,-2.51638e-06,-6.49338e-06,1.66721e-05,-3.82957e-06,2.2e-06,5.03742e-06,0
-2.73599e-05,1.77218e-05,-2.45731e-08,-7.84543e-06,1.46898e-05,-5.05868e-06,2.74916e-06,5.06596e-06,0
-2.7125e-05,1.80598e-05,2.67603e-06,-8.17092e-06,1.40903e-05,-3.62598e-06,4.9023e-06,3.51966e-06,0
-2.65175e-05,2.70753e-05,4.47176e-06,-4.78522e-06,1.53341e-05,-2.21954e-06,4.99398e-06,2.1738e-06,0
-2.65365e-05,4.26871e-05,4.16047e-06,-6.48626e-07,1.55317e-05,-2.24814e-06,2.9204e-06,2.00474e-06,0
-2.65387e-05,5.7158e-05,1.08968e-06,3.43018e-06,1.4012e-05,-4.17291e-06,-8.45986e-07,3.10944e-06,0
-2.68824e-05,6.37057e-05,-2.15507e-06,1.69044e-05,1.15235e-05,-7.63376e-06,-7.60216e-06,3.77048e-06,0
-2.91185e-05,6.09865e-05,-4.59151e-06,3.89417e-05,9.81834e-06,-8.96361e-06,-1.57484e-05,2.78556e-06,0
-3.08957e-05,5.26296e-05,-7.43537e-06,4.78027e-05,9.414e-06,-8.0246e-06,-1.90625e-05,-4.29033e-07,0
-3.07934e-05,3.7336e-05,-1.06833e-05,3.29366e-05,9.29494e-06,-6.76477e-06,-1.68579e-05,-3.74936e-06,0
-3.00978e-05,1.58529e-05,-1.32587e-05,4.22211e-06,9.8158e-06,-5.54918e-06,-1.10396e-05,-3.62872e-06,0
-3.07501e-05,-1.05208e-05,-1.419e-05,-2.04009e-05,1.14642e-05,-4.3277e-06,-3.62668e-06,-3.66163e-07,0
-3.1967e-05,-3.61675e-05,-1.42439e-05,-3.32167e-05,1.34767e-05,-3.9125e-06,4.63154e-06,2.1534e-06,0
-3.32834e-05,-5.34089e-05,-1.44924e-05,-3.8521e-05,1.34147e-05,-4.51134e-06,1.27276e-05,1.55934e-06,0
-3.47335e-05,-5.75942e-05,-1.44256e-05,-4.38526e-05,1.00678e-05,-5.81761e-06,1.81329e-05,3.24921e-07,0
-3.56327e-05,-4.96554e-05,-1.40566e-05,-5.02319e-05,5.10441e-06,-7.25292e-06,2.07665e-05,6.89237e-07,0
-3.58087e-05,-3.54415e-05,-1.51961e-05,-5.38038e-05,7.69721e-07,-7.29685e-06,2.38116e-05,2.29812e-06,0
-3.49094e-05,-2.33004e-05,-1.93702e-05,-5.46062e-05,-2.0482e-06,-6.29588e-06,2.88414e-05,3.284e-06,0
-3.35109e-05,-1.62549e-05,-2.36309e-05,-5.57519e-05,-1.07543e-06,-5.43302e-06,3.31407e-05,2.9507e-06,0
-3.27222e-05,-1.18096e-05,-2.39102e-05,-5.42769e-05,3.70738e-06,-4.91596e-06,3.53003e-05,2.70476e-06,0
-3.31274e-05,-9.90544e-06,-2.18049e-05,-4.16657e-05,8.9488e-06,-5.12905e-06,3.58053e-05,2.70278e-06,0
-3.40091e-05,-6.99366e-06,-2.04602e-05,-1.98948e-05,1.23725e-05,-5.8325e-06,3.61081e-05,3.01919e-06,0
-3.45819e-05,4.38287e-06,-1.83538e-05,3.07873e-06,1.44099e-05,-6.79739e-06,3.62025e-05,4.15932e-06,0
-3.41971e-05,2.37567e-05,-1.40212e-05,1.97626e-05,1.64535e-05,-6.92999e-06,3.48068e-05,6.18196e-06,0
-3.36276e-05,4.15052e-05,-1.04362e-05,2.51029e-05,2.02089e-05,-5.07211e-06,3.26517e-05,7.92537e-06,0
-3.3224e-05,4.89094e-05,-7.99904e-06,2.09213e-05,2.54577e-05,-1.87776e-06,3.01094e-05,7.8703e-06,0
-3.34937e-05,4.169e-05,-5.99356e-06,1.39144e-05,3.002e-05,1.38264e-06,2.8025e-05,7.07291e-06,0
-3.41869e-05,2.22699e-05,-5.64603e-06,1.16747e-05,3.04109e-05,2.04871e-06,2.72375e-05,5.55558e-06,0
-3.32236e-05,6.31177e-07,-7.15389e-06,1.7221e-05,2.6475e-05,-9.07161e-08,2.55063e-05,6.02485e-06,0
-3.20284e-05,-1.43932e-05,-8.71015e-06,2.65629e-05,2.31727e-05,-9.1043e-07,2.27298e-05,7.44841e-06,0
-3.16389e-05,-2.36833e-05,-9.83227e-06,3.46726e-05,2.16471e-05,1.35173e-06,1.93082e-05,7.7352e-06,0
-3.31135e-05,-3.09385e-05,-1.08104e-05,3.72607e-05,1.94664e-05,3.07264e-06,1.66183e-05,7.74511e-06,0
-3.49465e-05,-3.72466e-05,-9.49144e-06,3.29661e-05,1.55824e-05,2.04156e-06,1.35376e-05,6.60779e-06,0
-3.54143e-05,-4.09054e-05,-7.07127e-06,2.6097e-05,1.11691e-05,-1.72918e-07,9.99852e-06,4.56745e-06,0
-3.46589e-05,-4.06618e-05,-5.39764e-06,2.00528e-05,7.32526e-06,-2.9205e-06,5.99087e-06,1.93343e-06,0
-3.23476e-05,-3.68454e-05,-3.73796e-06,1.16163e-05,4.69705e-06,-5.36533e-06,-2.05976e-07,-5.51638e-07,0
-3.03265e-05,-2.90409e-05,9.75951e-07,2.14023e-06,4.79725e-06,-7.53038e-06,-3.778e-06,-2.63054e-06,0
-3.09921e-05,-1.65468e-05,1.0435e-05,-4.9329e-06,6.32723e-06,-9.08099e-06,-1.9015e-06,-1.53344e-06,0
-3.30526e-05,-3.2064e-06,2.18713e-05,-1.19446e-05,6.55318e-06,-1.03073e-05,3.27786e-06,1.25004e-06,0
-3.27747e-05,6.37645e-06,3.3878e-05,-1.97696e-05,5.8031e-06,-1.14785e-05,7.22436e-06,1.86252e-06,0
-3.12236e-05,1.14963e-05,4.6778e-05,-2.77112e-05,5.07143e-06,-1.08703e-05,8.2993e-06,6.50446e-07,0
-3.0641e-05,1.26024e-05,5.71731e-05,-3.37549e-05,4.50864e-06,-9.03473e-06,9.29018e-06,-3.1652e-07,0
-3.05061e-05,1.19692e-05,5.70684e-05,-3.45666e-05,3.84059e-06,-8.77881e-06,1.17198e-05,-9.0376e-07,0
-2.98096e-05,1.29426e-05,4.09781e-05,-2.83998e-05,3.66863e-06,-1.15052e-05,1.38837e-05,-2.40062e-07,0
-3.069e-05,1.54026e-05,1.08827e-05,-1.92527e-05,3.66931e-06,-1.42175e-05,1.45252e-05,2.57165e-06,0
-3.31572e-05,1.87507e-05,-2.34159e-05,-1.24519e-05,3.03121e-06,-1.53709e-05,1.40086e-05,4.83855e-06,0
-3.36916e-05,2.36692e-05,-5.07266e-05,-9.40619e-06,1.12641e-06,-1.72296e-05,1.38331e-05,5.55846e-06,0
-3.09638e-05,2.671e-05,-6.50755e-05,-8.91667e-06,-1.17936e-06,-2.00166e-05,1.33753e-05,5.30419e-06,0
-2.76521e-05,2.57306e-05,-6.62671e-05,-8.41411e-06,-1.71487e-06,-1.99746e-05,1.10682e-05,3.34827e-06,0
-2.61384e-05,2.23316e-05,-5.78062e-05,-3.96815e-06,-9.88606e-07,-1.8365e-05,8.38482e-06,6.75454e-07,0
-2.68323e-05,1.79494e-05,-4.39326e-05,9.40611e-07,-1.16264e-06,-1.77947e-05,5.81588e-06,-4.60572e-07,0
-2.95402e-05,1.31544e-05,-3.08106e-05,2.82122e-06,-2.48518e-06,-1.82111e-05,2.69883e-06,-6.00434e-07,0
-3.23741e-05,1.03503e-05,-2.28753e-05,3.77183e-06,-3.44038e-06,-1.98489e-05,5.82003e-07,-1.31876e-06,0
-3.34044e-05,1.06977e-05,-1.58684e-05,2.68153e-06,-2.49734e-06,-2.03536e-05,1.39673e-06,-2.48416e-06,0
-3.31322e-05,1.10767e-05,-1.0241e-05,2.37708e-06,-1.40675e-06,-1.89546e-05,5.19328e-06,-3.86363e-06,0
-3.27772e-05,1.15431e-05,-8.67007e-06,3.39646e-06,-1.98986e-06,-1.78048e-05,1.00672e-05,-4.65108e-06,0
-3.17409e-05,1.35913e-05,-9.50126e-06,3.06328e-06,-1.64222e-06,-1.89293e-05,1.25558e-05,-4.41933e-06,0
-2.89288e-05,1.63251e-05,-1.14985e-05,2.88102e-06,-1.218e-06,-2.03746e-05,7.24703e-06,-4.14682e-06,0
-2.77959e-05,1.95611e-05,-1.51712e-05,2.4335e-06,-1.64332e-06,-1.91028e-05,-3.12467e-06,-2.73862e-06,0
-2.92823e-05,1.91e-05,-2.08149e-05,-3.6076e-07,-2.62223e-06,-1.61709e-05,-8.52484e-06,-3.04511e-06,0
-3.04962e-05,1.62563e-05,-2.24815e-05,-2.98583e-06,-1.97815e-06,-1.52088e-05,-5.00983e-06,-5.48504e-06,0
-3.17279e-05,1.52701e-05,-2.0417e-05,-2.63672e-06,1.02125e-06,-1.49484e-05,4.77157e-06,-8.05701e-06,0
-3.2036e-05,1.53572e-05,-1.71252e-05,-7.58802e-07,1.83542e-06,-1.37888e-05,1.53134e-05,-9.05452e-06,0
-3.16419e-05,1.50355e-05,-1.50349e-05,-7.63634e-07,6.8231e-07,-1.31087e-05,2.51619e-05,-8.64492e-06,0
-3.1114e-05,1.39867e-05,-1.53558e-05,-4.47998e-06,1.31236e-06,-1.30583e-05,3.40201e-05,-8.53952e-06,0
-2.99993e-05,1.41433e-05,-1.7475e-05,-9.47807e-06,4.97285e-06,-1.33644e-05,4.07408e-05,-8.26215e-06,0
-2.84188e-05,1.54722e-05,-1.77294e-05,-1.12448e-05,9.00085e-06,-1.27669e-05,4.34669e-05,-7.98712e-06,0
-2.92779e-05,1.66289e-05,-1.43583e-05,-1.03266e-05,1.12251e-05,-1.18232e-05,4.26813e-05,-6.73379e-06,0
-3.17609e-05,1.62899e-05,-1.06968e-05,-1.17339e-05,1.28208e-05,-1.22873e-05,4.04844e-05,-5.18702e-06,0
-3.22709e-05,1.35548e-05,-7.5882e-06,-1.60202e-05,1.3795e-05,-1.37065e-05,3.73758e-05,-4.73798e-06,0
-3.07593e-05,1.01749e-05,-6.1893e-06,-1.78656e-05,1.31238e-05,-1.3363e-05,3.37857e-05,-5.89646e-06,0
-2.98753e-05,1.06178e-05,-5.91552e-06,-1.35666e-05,1.23151e-05,-1.05333e-05,3.03293e-05,-6.7492e-06,0
-3.02691e-05,1.52418e-05,-5.98702e-06,-5.11194e-06,1.38288e-05,-7.0273e-06,2.86655e-05,-6.03538e-06,0
-2.96684e-05,1.92509e-05,-4.81231e-06,3.17245e-06,1.73708e-05,-5.75589e-06,3.04902e-05,-3.89709e-06,0
-2.77105e-05,1.98592e-05,-3.72864e-06,7.05274e-06,2.00562e-05,-6.83558e-06,3.35546e-05,-2.33895e-06,0
-2.52275e-05,2.07059e-05,-6.00591e-06,5.33992e-06,1.9249e-05,-7.83124e-06,3.35742e-05,-3.27e-06,0
-2.34795e-05,2.26854e-05,-8.71318e-06,8.90153e-07,1.72063e-05,-7.89605e-06,3.01679e-05,-4.11901e-06,0
-2.25124e-05,2.20793e-05,-7.288e-06,-2.62488e-06,1.83252e-05,-7.43872e-06,2.38996e-05,-2.95352e-06,0
-2.21978e-05,1.96594e-05,-5.66077e-06,-6.00367e-06,1.83796e-05,-6.25241e-06,1.67781e-05,-1.09632e-06,0
-2.25668e-05,1.6342e-05,-6.34259e-06,-8.76418e-06,1.53969e-05,-3.94283e-06,9.48817e-06,6.9732e-07,0
-2.45126e-05,1.05492e-05,-8.34033e-06,-8.59135e-06,1.20018e-05,-4.17316e-06,2.64412e-06,6.87472e-07,0
-2.70783e-05,7.79356e-06,-1.05903e-05,-5.60359e-06,1.09808e-05,-6.3969e-06,-3.88635e-06,-2.54454e-06,0
-2.87626e-05,1.13328e-05,-1.05655e-05,-3.96226e-07,1.13388e-05,-7.48413e-06,-1.30016e-05,-7.363e-06,0
-2.91337e-05,1.60698e-05,-7.12318e-06,6.94073e-06,1.3442e-05,-7.69792e-06,-2.49869e-05,-9.64925e-06,0
-2.72187e-05,2.01815e-05,-4.15969e-06,1.3707e-05,1.76934e-05,-6.99776e-06,-3.2786e-05,-7.4243e-06,0
-2.48771e-05,2.40324e-05,-3.36126e-06,1.51879e-05,1.7928e-05,-6.65521e-06,-3.00009e-05,-4.75162e-06,0
-2.51552e-05,2.70423e-05,-3.98436e-06,1.22205e-05,1.53076e-05,-6.52889e-06,-2.00858e-05,-3.43014e-06,0
-2.74258e-05,2.79497e-05,-5.7969e-06,8.41149e-06,1.32934e-05,-6.24706e-06,-1.05368e-05,-3.76627e-06,0
-2.99755e-05,2.59542e-05,-6.65649e-06,6.36873e-06,1.47226e-05,-5.05501e-06,-5.85242e-06,-4.58847e-06,0
-3.07639e-05,2.32228e-05,-6.00825e-06,1.30876e-05,1.73032e-05,-5.02106e-06,-3.76665e-06,-2.80775e-06,0
-2.84921e-05,2.03987e-05,-4.07588e-06,2.87185e-05,2.00517e-05,-6.93883e-06,4.83648e-07,-2.50256e-07,0
-2.65848e-05,1.65635e-05,-2.40382e-06,3.56573e-05,2.10535e-05,-8.09312e-06,6.38672e-06,1.65646e-06,0
-2.66733e-05,1.18129e-05,-8.62917e-07,2.32363e-05,1.94263e-05,-8.66111e-06,9.98025e-06,2.6932e-06,0
-2.73631e-05,8.27792e-06,-2.67528e-07,1.58714e-06,1.68657e-05,-9.14497e-06,1.00702e-05,2.04944e-06,0
-2.87215e-05,6.39551e-06,-1.30007e-06,-1.48118e-05,1.42318e-05,-9.06165e-06,7.07128e-06,1.12071e-06,0
-3.01706e-05,4.6915e-06,-4.08154e-06,-2.26677e-05,1.31113e-05,-7.02711e-06,3.26217e-06,1.61156e-06,0
-3.02436e-05,4.99894e-06,-6.34759e-06,-2.68472e-05,1.22467e-05,-3.97362e-06,2.31447e-06,2.6243e-06,0
-2.95167e-05,7.83094e-06,-5.59238e-06,-3.10209e-05,1.14464e-05,-1.90861e-06,5.85403e-06,2.23042e-06,0
-2.9408e-05,1.09384e-05,-2.67084e-06,-3.47802e-05,1.04462e-05,-2.2479e-06,1.10035e-05,2.95915e-07,0
-2.96195e-05,1.22836e-05,-7.59053e-07,-3.84488e-05,1.05702e-05,-3.28466e-06,1.40117e-05,-1.80954e-06,0
-2.98501e-05,1.28845e-05,-1.14467e-06,-4.41036e-05,1.07534e-05,-2.76028e-06,1.48266e-05,-2.2196e-06,0
-2.96566e-05,1.36675e-05,-2.8117e-06,-5.31628e-05,1.17549e-05,-1.85285e-06,1.54991e-05,-1.0771e-06,0
-2.86657e-05,1.32461e-05,-4.64033e-06,-6.41194e-05,1.38483e-05,-1.9376e-06,1.52457e-05,1.34647e-07,0
-2.86111e-05,1.24215e-05,-4.16044e-06,-6.76968e-05,1.5577e-05,-2.427e-06,1.12692e-05,1.16245e-07,0
-3.00738e-05,1.63172e-05,-1.13497e-06,-5.65839e-05,1.60237e-05,-2.5919e-06,-8.91667e-07,-5.90047e-07,0
-3.16571e-05,2.56941e-05,2.45491e-06,-3.42132e-05,1.6611e-05,-4.03923e-06,-1.78727e-05,-2.13446e-06,0
-3.29664e-05,3.3136e-05,6.13958e-06,-1.03984e-05,1.82644e-05,-6.84742e-06,-2.46283e-05,-4.4576e-06,0
-3.397e-05,3.19891e-05,1.28919e-05,8.84086e-06,1.80729e-05,-8.17911e-06,-1.67272e-05,-3.6627e-06,0
-3.46801e-05,2.53695e-05,2.47631e-05,2.11834e-05,1.6916e-05,-8.25315e-06,-2.39521e-06,6.06544e-07,0
-3.57882e-05,1.76984e-05,4.11911e-05,2.57323e-05,1.62424e-05,-7.83037e-06,1.15379e-05,2.87353e-06,0
-3.64686e-05,1.15937e-05,5.94219e-05,2.21296e-05,1.48226e-05,-7.0548e-06,2.52571e-05,2.27043e-06,0
-3.42609e-05,7.47412e-06,7.03816e-05,1.24541e-05,1.43257e-05,-6.02722e-06,3.89481e-05,2.5072e-06,0
-3.13678e-05,1.54345e-06,6.40187e-05,3.59522e-06,1.47293e-05,-5.16944e-06,4.77397e-05,4.44779e-06,0
-3.06863e-05,-5.77545e-06,4.14213e-05,-2.34978e-06,1.61384e-05,-4.52411e-06,4.95221e-05,5.1177e-06,0
-3.09402e-05,-1.22473e-05,9.71614e-06,-5.09727e-06,1.8836e-05,-3.70863e-06,4.61035e-05,4.65865e-06,0
-3.12511e-05,-1.71958e-05,-2.4724e-05,-6.48055e-06,2.19817e-05,-3.83962e-06,3.99654e-05,4.85356e-06,0
-3.19435e-05,-1.79732e-05,-5.43444e-05,-7.76308e-06,2.41736e-05,-3.93976e-06,3.36386e-05,5.39301e-06,0
-3.25137e-05,-1.25823e-05,-7.3326e-05,-9.66121e-06,2.34192e-05,-3.42365e-06,2.86258e-05,6.43108e-06,0
-3.29452e-05,-3.05454e-06,-7.99159e-05,-1.32847e-05,2.03711e-05,-3.57136e-06,2.58513e-05,7.4555e-06,0
-3.30508e-05,8.70403e-06,-7.75651e-05,-1.60949e-05,1.59642e-05,-5.2108e-06,2.49373e-05,7.29607e-06,0
-3.17625e-05,1.88163e-05,-7.14549e-05,-1.47178e-05,1.15358e-05,-6.42981e-06,2.41251e-05,5.39768e-06,0
-3.1147e-05,2.40736e-05,-6.49209e-05,-7.40635e-06,8.21271e-06,-7.08573e-06,2.27342e-05,3.8403e-06,0
-3.26432e-05,2.58244e-05,-5.68542e-05,1.11342e-06,6.75291e-06,-9.06081e-06,2.23504e-05,3.89975e-06,0
-3.46283e-05,2.61956e-05,-4.52736e-05,5.17559e-06,6.62814e-06,-1.17123e-05,2.25737e-05,4.42573e-06,0
-3.5006e-05,2.43907e-05,-3.20635e-05,4.21468e-06,7.2517e-06,-1.27155e-05,2.06872e-05,4.26525e-06,0
-3.41304e-05,2.14005e-05,-2.20987e-05,2.93447e-08,7.75229e-06,-1.19793e-05,1.74308e-05,3.16355e-06,0
-3.32511e-05,1.9166e-05,-1.89766e-05,-6.59896e-06,8.86926e-06,-1.14543e-05,1.54899e-05,8.93082e-07,0
-3.30311e-05,1.63432e-05,-2.12945e-05,-1.22697e-05,9.76656e-06,-1.25431e-05,1.38235e-05,-1.2694e-06,0
-3.30972e-05,1.30987e-05,-2.62394e-05,-1.59473e-05,1.0315e-05,-1.36411e-05,1.00376e-05,-1.0418e-06,0
-3.29383e-05,1.21707e-05,-2.89552e-05,-1.74921e-05,1.25338e-05,-1.29151e-05,7.46917e-06,5.52402e-07,0
-3.2501e-05,1.39268e-05,-2.65808e-05,-1.38983e-05,1.61493e-05,-1.12972e-05,1.23013e-05,1.11872e-06,0
-3.23088e-05,1.48936e-05,-2.0709e-05,-6.90747e-06,2.0625e-05,-9.27377e-06,2.36399e-05,1.05439e-06,0
-3.24127e-05,9.04398e-06,-1.65845e-05,-1.01446e-06,2.38414e-05,-7.8922e-06,3.31239e-05,1.00456e-06,0
-3.1638e-05,8.68315e-07,-1.85651e-05,1.09317e-06,2.11661e-05,-8.9231e-06,3.77994e-05,1.45024e-06,0
-3.06667e-05,-3.48764e-07,-2.43769e-05,4.63439e-06,1.51359e-05,-1.12554e-05,3.69807e-05,2.38509e-06,0
-2.92717e-05,3.6703e-06,-2.78894e-05,1.05973e-05,1.40433e-05,-1.24658e-05,3.01879e-05,2.61854e-06,0
-2.78902e-05,9.59864e-06,-2.62658e-05,1.29265e-05,1.68991e-05,-1.26422e-05,2.05338e-05,4.46906e-06,0
-2.66664e-05,1.31163e-05,-2.05228e-05,1.48086e-05,1.88615e-05,-1.2549e-05,1.09414e-05,8.5011e-06,0
-2.61295e-05,1.34076e-05,-1.30996e-05,1.82389e-05,2.03567e-05,-1.28494e-05,1.61266e-06,1.03224e-05,0
-2.79232e-05,1.38692e-05,-6.317e-06,2.1666e-05,2.33654e-05,-1.26057e-05,-9.0919e-06,1.01229e-05,0
-2.88668e-05,1.5985e-05,-3.09952e-06,2.1847e-05,2.64619e-05,-1.15108e-05,-1.91227e-05,9.01145e-06,0
-2.7157e-05,1.70893e-05,-3.48593e-06,1.82992e-05,2.61676e-05,-9.40873e-06,-2.42971e-05,8.37971e-06,0
-2.5534e-05,1.56078e-05,-3.7485e-06,1.32146e-05,2.58095e-05,-7.01168e-06,-2.30806e-05,1.06673e-05,0
-2.57141e-05,1.32672e-05,-3.34584e-06,8.34757e-06,2.64635e-05,-7.11723e-06,-1.85409e-05,1.41163e-05,0
-2.77936e-05,1.30631e-05,-1.76714e-06,4.99767e-06,2.63764e-05,-8.98563e-06,-1.28837e-05,1.40921e-05,0
-3.00319e-05,1.6207e-05,2.31448e-07,1.81871e-06,2.56595e-05,-1.0392e-05,-8.08328e-06,1.02299e-05,0
-3.09038e-05,1.97359e-05,1.72707e-06,-1.16594e-06,2.38879e-05,-1.16777e-05,-4.65545e-06,6.60138e-06,0
-2.96569e-05,2.13396e-05,2.75594e-06,-4.58854e-06,2.16511e-05,-1.25143e-05,-2.18569e-06,5.46205e-06,0
-2.7826e-05,2.01771e-05,4.28316e-06,-7.92058e-06,1.93311e-05,-1.21621e-05,1.15205e-06,6.08806e-06,0
-2.74444e-05,1.75207e-05,5.88864e-06,-9.91694e-06,1.71657e-05,-1.24916e-05,8.84187e-06,5.43946e-06,0
-2.81046e-05,1.49713e-05,5.90157e-06,-1.01086e-05,1.50406e-05,-1.46236e-05,2.211e-05,3.7559e-06,0
-2.88461e-05,1.30136e-05,3.71071e-06,-9.42898e-06,1.48961e-05,-1.7054e-05,3.67458e-05,3.42759e-06,0
-2.94974e-05,1.07123e-05,5.81607e-07,-7.66561e-06,1.60748e-05,-1.84763e-05,4.59514e-05,4.23243e-06,0
-3.01558e-05,8.26649e-06,-6.68776e-07,-6.30728e-06,1.66811e-05,-1.87871e-05,4.80034e-05,4.27979e-06,0
-2.95335e-05,6.64561e-06,5.13109e-07,-7.93593e-06,1.63126e-05,-1.76093e-05,4.4374e-05,4.23538e-06,0
-2.8354e-05,6.46983e-06,2.50095e-06,-1.2251e-05,1.62535e-05,-1.6169e-05,3.86672e-05,5.06647e-06,0
-2.83301e-05,7.49412e-06,2.84889e-06,-1.67594e-05,1.62054e-05,-1.55784e-05,3.17948e-05,6.54157e-06,0
-3.00441e-05,8.08506e-06,1.68053e-06,-1.88775e-05,1.56093e-05,-1.60582e-05,1.96802e-05,7.02175e-06,0
-3.19332e-05,6.75432e-06,4.25188e-07,-1.81951e-05,1.52966e-05,-1.75971e-05,2.9076e-07,5.45504e-06,0
-3.16897e-05,5.35067e-06,-7.15645e-07,-1.76001e-05,1.67268e-05,-1.74588e-05,-1.98351e-05,2.34651e-06,0
-3.1296e-05,6.13152e-06,-1.53326e-06,-1.76503e-05,1.818e-05,-1.47732e-05,-3.32225e-05,-3.39444e-07,0
-3.22823e-05,6.29752e-06,-2.31599e-06,-1.56835e-05,1.63096e-05,-1.21121e-05,-3.69512e-05,5.06991e-08,0
-3.30119e-05,5.71564e-06,-2.41162e-06,-1.16632e-05,1.51276e-05,-1.03116e-05,-3.33166e-05,1.74326e-06,0
-3.25801e-05,7.51435e-06,-4.99724e-07,-7.08178e-06,1.61705e-05,-9.18608e-06,-2.5023e-05,1.37628e-06,0
-3.07164e-05,9.99933e-06,1.66194e-06,-1.98708e-06,1.6061e-05,-9.28076e-06,-1.5433e-05,-8.88631e-07,0
-2.9116e-05,1.17774e-05,3.03097e-06,8.4807e-08,1.33222e-05,-9.92448e-06,-8.97145e-06,-3.80389e-06,0
-3.05381e-05,1.25704e-05,3.51455e-06,-3.64603e-06,6.82049e-06,-1.02017e-05,-3.51536e-06,-6.46469e-06,0
-3.30966e-05,1.35144e-05,3.83794e-06,-8.68741e-06,3.77872e-07,-9.70677e-06,4.93826e-06,-7.74894e-06,0
-3.33359e-05,1.44253e-05,3.6519e-06,-1.00814e-05,-1.12844e-06,-8.6289e-06,1.63038e-05,-7.76163e-06,0
-3.32113e-05,1.44675e-05,3.88142e-06,-6.41183e-06,1.46933e-06,-7.23814e-06,2.56182e-05,-8.20366e-06,0
-3.36405e-05,1.38292e-05,5.26525e-06,-2.76467e-06,5.78507e-06,-5.57206e-06,2.9729e-05,-8.24415e-06,0
-3.30162e-05,1.36134e-05,6.82319e-06,-2.39385e-06,1.00358e-05,-3.81995e-06,2.94979e-05,-6.78686e-06,0
-3.19026e-05,1.36189e-05,6.62429e-06,-2.37125e-06,1.14737e-05,-2.33093e-06,2.73766e-05,-5.23613e-06,0
-3.16821e-05,1.17011e-05,4.10602e-06,-1.14558e-06,9.79915e-06,-2.76999e-06,2.54033e-05,-5.11e-06,0
-3.26342e-05,1.06839e-05,1.15635e-06,1.63456e-06,8.59818e-06,-4.56205e-06,2.4034e-05,-6.18392e-06,0
-3.41691e-05,1.13139e-05,-2.49275e-06,7.47671e-06,9.58111e-06,-4.79985e-06,2.21353e-05,-5.46494e-06,0
-3.58104e-05,1.22818e-05,-6.32223e-06,1.54823e-05,1.28456e-05,-2.90306e-06,1.985e-05,-2.43092e-06,0
-3.62401e-05,1.1895e-05,-9.95817e-06,2.33443e-05,1.80391e-05,-8.75903e-07,1.95047e-05,5.31122e-07,0
-3.49895e-05,1.00321e-05,-1.25354e-05,2.73594e-05,2.44668e-05,-8.29609e-08,2.12927e-05,1.00192e-06,0
-3.31213e-05,8.9852e-06,-1.32472e-05,2.47684e-05,2.83282e-05,-7.39339e-07,2.18178e-05,5.18804e-07,0
-3.23326e-05,1.33307e-05,-1.16948e-05,1.76784e-05,2.74362e-05,-1.61964e-06,2.00502e-05,3.31337e-07,0
-3.30608e-05,2.64483e-05,-9.15732e-06,7.4688e-06,2.49943e-05,-1.39805e-06,1.78669e-05,2.45044e-09,0
-3.3397e-05,4.40109e-05,-6.78095e-06,-8.25321e-06,2.29801e-05,-9.43366e-07,1.67173e-05,-1.88341e-07,0
-3.19644e-05,5.7721e-05,-5.62003e-06,-2.73612e-05,2.07386e-05,-9.50108e-07,1.73805e-05,-2.13176e-06,0
-2.89396e-05,7.01681e-05,-5.85235e-06,-4.0053e-05,1.9855e-05,-2.29707e-07,1.81811e-05,-4.82678e-06,0
-2.65125e-05,9.09631e-05,-6.22665e-06,-3.90682e-05,1.95374e-05,7.26519e-07,1.79414e-05,-4.17863e-06,0
-2.60045e-05,0.000109296,-6.46851e-06,-2.8507e-05,1.73036e-05,-3.88124e-07,1.67778e-05,-1.74464e-06,0
-2.5287e-05,0.000105441,-7.93957e-06,-1.75183e-05,1.3702e-05,-1.79144e-06,1.70793e-05,3.05786e-07,0
-2.6724e-05,7.17037e-05,-1.0371e-05,-1.12364e-05,9.62279e-06,-2.16243e-06,1.8689e-05,1.35257e-06,0
-2.98063e-05,2.19649e-05,-1.17891e-05,-9.99154e-06,8.12704e-06,-3.51576e-06,1.77024e-05,6.72528e-07,0
-2.89962e-05,-2.14363e-05,-1.09623e-05,-1.04133e-05,8.71555e-06,-5.33847e-06,1.4737e-05,9.09396e-07,0
-2.49941e-05,-5.31693e-05,-9.26684e-06,-9.41119e-06,8.70684e-06,-6.55472e-06,1.31329e-05,3.51892e-06,0
-2.25381e-05,-7.29472e-05,-9.64702e-06,-5.7835e-06,6.64401e-06,-7.57353e-06,1.20932e-05,6.39477e-06,0
-2.4621e-05,-7.85964e-05,-1.02096e-05,2.58152e-07,2.95481e-06,-7.72389e-06,1.0751e-05,7.48747e-06,0
-2.84711e-05,-7.08642e-05,-9.45718e-06,6.43936e-06,1.49789e-06,-8.03088e-06,9.31489e-06,7.20143e-06,0
-3.12365e-05,-5.66811e-05,-7.18375e-06,8.69429e-06,2.18438e-06,-9.08562e-06,7.30786e-06,7.43717e-06,0
-3.35623e-05,-4.04918e-05,-5.41997e-06,3.61089e-06,1.86921e-06,-1.12395e-05,4.47427e-06,8.3588e-06,0
-3.60198e-05,-2.84056e-05,-5.99994e-06,-2.78778e-06,-1.11532e-06,-1.46344e-05,-6.66654e-07,8.54403e-06,0
-3.74752e-05,-2.12147e-05,-7.66481e-06,5.77886e-06,-3.5357e-06,-1.70172e-05,-6.41748e-06,8.1272e-06,0
-3.76723e-05,-1.58609e-05,-9.67002e-06,2.86909e-05,-1.79988e-06,-1.72209e-05,-8.92325e-06,8.52617e-06,0
-3.68481e-05,-1.24821e-05,-1.10185e-05,4.54384e-05,3.78336e-06,-1.63893e-05,-7.35744e-06,9.25933e-06,0
-3.45652e-05,-1.25734e-05,-1.14451e-05,4.57433e-05,9.84776e-06,-1.53233e-05,-5.26974e-06,8.50121e-06,0
-3.22487e-05,-1.81212e-05,-1.17778e-05,3.26779e-05,1.2823e-05,-1.42409e-05,-3.80914e-06,6.99839e-06,0
-3.15651e-05,-2.37563e-05,-1.33955e-05,1.45461e-05,1.24763e-05,-1.43063e-05,6.00225e-07,5.25984e-06,0
-3.17097e-05,-2.51415e-05,-1.46703e-05,-1.71082e-06,1.20463e-05,-1.51704e-05,7.8143e-06,3.04321e-06,0
-3.09189e-05,-1.97879e-05,-1.37263e-05,-1.41458e-05,1.48317e-05,-1.53701e-05,1.3104e-05,1.40094e-06,0
-2.99649e-05,-1.1199e-05,-1.1963e-05,-2.38543e-05,1.82251e-05,-1.38831e-05,1.45085e-05,1.72059e-06,0
-3.05138e-05,-3.45166e-06,-1.0621e-05,-3.35621e-05,1.82748e-05,-1.19464e-05,1.52558e-05,1.81884e-06,0
-3.1389e-05,6.1965e-07,-9.72977e-06,-4.45396e-05,1.50548e-05,-1.12226e-05,1.86194e-05,4.01395e-07,0
-3.13886e-05,2.23534e-06,-1.01875e-05,-5.37443e-05,1.28722e-05,-1.20134e-05,2.50495e-05,-5.52798e-07,0
-3.13853e-05,3.87053e-06,-1.19579e-05,-5.76788e-05,1.25918e-05,-1.39794e-05,3.28535e-05,-7.88106e-07,0
-3.14726e-05,9.12156e-06,-1.22334e-05,-5.42235e-05,1.22988e-05,-1.71869e-05,3.88887e-05,-5.48765e-07,0
-3.19933e-05,1.76683e-05,-1.14548e-05,-4.18604e-05,1.13829e-05,-2.00425e-05,4.03965e-05,6.69317e-07,0
-3.23024e-05,2.3602e-05,-1.26972e-05,-2.68698e-05,9.71353e-06,-1.94331e-05,3.85764e-05,2.25728e-06,0
-3.06816e-05,2.58215e-05,-1.41505e-05,-1.69892e-05,9.14982e-06,-1.68164e-05,3.74286e-05,2.87001e-06,0
-2.93198e-05,2.58843e-05,-1.39247e-05,-1.58702e-05,1.03905e-05,-1.53589e-05,3.66129e-05,2.15938e-06,0
-3.0597e-05,2.46153e-05,-1.3933e-05,-1.49017e-05,1.15125e-05,-1.4946e-05,3.33754e-05,1.76395e-06,0
-3.23289e-05,2.38078e-05,-1.5453e-05,4.80809e-06,1.08419e-05,-1.49411e-05,2.81724e-05,2.42476e-06,0
-3.29905e-05,2.32704e-05,-1.77673e-05,3.24958e-05,9.34057e-06,-1.37255e-05,2.25542e-05,2.78718e-06,0
-3.23759e-05,2.50917e-05,-1.69059e-05,4.16998e-05,9.12177e-06,-1.2719e-05,1.8407e-05,2.86905e-06,0
-3.03919e-05,2.91418e-05,-1.38169e-05,3.19759e-05,1.30825e-05,-1.37501e-05,1.66404e-05,1.95118e-06,0
-2.87417e-05,3.05059e-05,-1.28258e-05,1.02161e-05,1.79317e-05,-1.59432e-05,1.62418e-05,1.26591e-07,0
-2.88636e-05,2.92067e-05,-1.44142e-05,-1.26576e-05,1.87226e-05,-1.81461e-05,1.65114e-05,-1.17512e-06,0
-2.994e-05,2.71814e-05,-1.55614e-05,-2.86583e-05,1.77681e-05,-1.93669e-05,1.64279e-05,-1.23445e-06,0
-2.9479e-05,2.5445e-05,-1.41807e-05,-3.82342e-05,1.6143e-05,-2.09722e-05,1.62583e-05,-1.97437e-06,0
-2.70848e-05,2.44946e-05,-1.2105e-05,-3.99961e-05,1.58505e-05,-2.0708e-05,1.63029e-05,-4.06741e-06,0
-2.5171e-05,2.62168e-05,-1.0579e-05,-3.43685e-05,1.66538e-05,-1.797e-05,1.51278e-05,-3.96512e-06,0
-2.48323e-05,2.94861e-05,-9.44924e-06,-2.57225e-05,1.69143e-05,-1.52805e-05,9.28883e-06,-8.64252e-07,0
-2.50032e-05,3.30976e-05,-8.03972e-06,-2.21729e-05,1.78419e-05,-1.42566e-05,-1.90093e-06,2.06616e-06,0
-2.51475e-05,3.65004e-05,-6.58542e-06,-2.53744e-05,1.9562e-05,-1.40182e-05,-1.15221e-05,2.06155e-06,0
-2.53915e-05,4.28152e-05,-5.91064e-06,-2.93381e-05,2.06627e-05,-1.3778e-05,-1.25046e-05,-5.09037e-07,0
-2.60765e-05,5.46963e-05,-5.45256e-06,-2.82788e-05,2.07939e-05,-1.39174e-05,-5.02726e-06,-3.52867e-06,0
-2.78616e-05,6.76531e-05,-5.08938e-06,-2.28018e-05,2.08391e-05,-1.33767e-05,4.9667e-06,-4.71385e-06,0
-2.94447e-05,7.15476e-05,-5.71119e-06,-1.65316e-05,1.92956e-05,-1.31025e-05,1.48132e-05,-3.98505e-06,0
-2.8791e-05,6.57076e-05,-6.52157e-06,-1.13504e-05,1.6498e-05,-1.36167e-05,2.44436e-05,-3.10416e-06,0
-2.74569e-05,5.70635e-05,-7.32726e-06,-4.7253e-06,1.51007e-05,-1.2656e-05,3.24783e-05,-4.06608e-06,0
-2.7195e-05,4.77206e-05,-8.62493e-06,3.70137e-06,1.6517e-05,-1.0083e-05,3.6971e-05,-6.77842e-06,0
-2.7704e-05,3.77357e-05,-9.55135e-06,1.05628e-05,1.82733e-05,-8.62659e-06,3.82711e-05,-8.17512e-06,0
-2.74727e-05,3.05036e-05,-9.70216e-06,1.30659e-05,1.77707e-05,-8.7095e-06,3.68415e-05,-8.05244e-06,0
-2.6092e-05,2.88447e-05,-1.06237e-05,1.16362e-05,1.50529e-05,-1.0234e-05,3.2469e-05,-8.83012e-06,0
-2.5723e-05,2.96703e-05,-1.26831e-05,9.7617e-06,1.17272e-05,-1.21361e-05,2.59162e-05,-9.94373e-06,0
-2.68411e-05,3.77686e-05,-1.47529e-05,8.66764e-06,9.08211e-06,-1.27938e-05,1.80453e-05,-8.83455e-06,0
-2.71681e-05,6.01892e-05,-1.59088e-05,2.46352e-06,7.3757e-06,-1.23187e-05,1.16162e-05,-8.06595e-06,0
-2.48069e-05,7.91978e-05,-1.57128e-05,-1.85468e-05,6.96183e-06,-1.32509e-05,9.85777e-06,-1.04549e-05,0
-2.32962e-05,7.92386e-05,-1.62993e-05,-4.86287e-05,6.74144e-06,-1.62283e-05,1.12828e-05,-1.35849e-05,0
-2.44045e-05,6.59327e-05,-1.64315e-05,-6.99236e-05,4.24647e-06,-1.85791e-05,1.10671e-05,-1.42788e-05,0
-2.49765e-05,4.12196e-05,-1.44065e-05,-7.40848e-05,2.33882e-06,-1.81088e-05,1.10624e-05,-1.26785e-05,0
-2.52098e-05,8.22852e-06,-1.23018e-05,-6.75925e-05,4.25981e-06,-1.65421e-05,1.16861e-05,-1.18425e-05,0
-2.66675e-05,-2.63866e-05,-8.67796e-06,-6.16439e-05,6.25457e-06,-1.69512e-05,1.13833e-05,-1.19828e-05,0
-2.9295e-05,-5.42148e-05,-2.03391e-06,-4.70337e-05,5.68307e-06,-1.75441e-05,9.02429e-06,-1.12805e-05,0
-3.21144e-05,-7.20034e-05,7.87328e-06,-9.84034e-06,5.15526e-06,-1.74078e-05,1.25651e-06,-9.79304e-06,0
-3.39359e-05,-7.95964e-05,2.14878e-05,4.18675e-05,4.7003e-06,-1.76577e-05,-1.05546e-05,-9.76462e-06,0
-3.38875e-05,-7.43117e-05,3.79974e-05,9.10862e-05,2.91517e-06,-1.88391e-05,-2.08208e-05,-1.06353e-05,0
-3.28943e-05,-5.58866e-05,5.06464e-05,0.000119591,1.44582e-06,-1.94251e-05,-2.46977e-05,-9.26347e-06,0
-3.1792e-05,-3.33259e-05,5.16543e-05,0.000119975,1.67258e-06,-1.78137e-05,-2.16223e-05,-6.32067e-06,0
-3.05517e-05,-1.27025e-05,3.82429e-05,0.000100672,3.17182e-06,-1.54546e-05,-1.35739e-05,-5.01694e-06,0
-2.99599e-05,5.56701e-06,1.17523e-05,7.45128e-05,4.12888e-06,-1.38757e-05,-2.47253e-06,-5.5905e-06,0
-3.06951e-05,1.82376e-05,-2.0834e-05,4.84421e-05,3.83481e-06,-1.35858e-05,1.05218e-05,-5.82506e-06,0
-3.18931e-05,2.40641e-05,-4.85712e-05,2.41776e-05,2.28365e-06,-1.36599e-05,2.24855e-05,-4.70395e-06,0
-3.12862e-05,2.36086e-05,-6.33948e-05,3.05291e-06,1.31497e-06,-1.16066e-05,2.97608e-05,-3.05221e-06,0
-2.89173e-05,1.97452e-05,-6.62312e-05,-1.30701e-05,3.89187e-06,-6.79455e-06,3.11906e-05,-1.42323e-06,0
-2.75264e-05,1.61562e-05,-6.06486e-05,-2.20261e-05,1.19782e-05,-1.64924e-06,2.90371e-05,1.7071e-07,0
-2.87178e-05,1.4758e-05,-4.89285e-05,-2.16045e-05,2.22415e-05,1.25107e-06,2.61784e-05,9.77902e-07,0
-3.05707e-05,1.43561e-05,-3.51887e-05,-1.52934e-05,2.89341e-05,2.13884e-06,2.49956e-05,8.79836e-07,0
-3.04336e-05,1.37754e-05,-2.37711e-05,-1.11952e-05,3.01895e-05,3.37047e-06,2.63029e-05,3.67736e-07,0
-2.90333e-05,1.15013e-05,-1.454e-05,-9.6729e-06,2.89837e-05,3.3929e-06,2.72339e-05,1.10726e-06,0
-2.82033e-05,8.11762e-06,-6.77915e-06,-5.30992e-06,2.72506e-05,2.59611e-07,2.59157e-05,3.0524e-06,0
-2.79359e-05,6.5207e-07,-2.13108e-06,4.86169e-07,2.49773e-05,-2.84446e-06,2.33459e-05,3.48008e-06,0
-2.85484e-05,-7.82728e-06,-1.31617e-06,1.4281e-06,2.27969e-05,-3.01698e-06,2.13803e-05,1.62435e-06,0
-3.00558e-05,-7.8902e-06,-2.60061e-06,-3.40381e-06,2.06103e-05,-3.4054e-06,1.94834e-05,2.9636e-07,0
-3.0998e-05,-8.95565e-07,-6.86589e-06,-1.00943e-05,1.91802e-05,-6.42091e-06,1.1886e-05,4.96014e-07,0
-3.20778e-05,3.29543e-06,-1.2286e-05,-1.36063e-05,1.7591e-05,-9.03806e-06,1.64471e-06,1.7721e-06,0
-3.20639e-05,3.21601e-06,-1.41955e-05,-1.59123e-05,1.59475e-05,-9.62535e-06,-2.96056e-06,4.44928e-06,0
-2.92004e-05,3.55759e-06,-1.44344e-05,-1.96841e-05,1.5528e-05,-9.50626e-06,-2.17519e-06,5.31521e-06,0
-2.74028e-05,4.39166e-06,-1.46822e-05,-2.21647e-05,1.72284e-05,-9.83438e-06,2.83549e-07,3.63897e-06,0
-2.79835e-05,4.55409e-06,-1.45475e-05,-2.29032e-05,1.85479e-05,-9.6896e-06,6.49696e-07,2.18217e-06,0
-2.90206e-05,4.58717e-06,-1.46382e-05,-1.89451e-05,1.57141e-05,-7.91831e-06,-5.57847e-07,2.64144e-06,0
-2.97872e-05,6.1175e-06,-1.35261e-05,-8.17444e-06,1.12076e-05,-5.49336e-06,-2.19658e-06,3.57461e-06,0
-3.03261e-05,7.72703e-06,-1.04843e-05,3.50823e-06,9.24766e-06,-5.05761e-06,-1.07349e-06,3.36785e-06,0
-3.06501e-05,9.37494e-06,-6.32964e-06,1.08577e-05,1.00325e-05,-6.95692e-06,3.76404e-06,3.12386e-06,0
-3.09491e-05,1.02581e-05,-3.16138e-06,1.39218e-05,1.04485e-05,-8.02746e-06,9.32119e-06,3.97415e-06,0
-3.05529e-05,8.40119e-06,-2.2874e-06,1.28746e-05,7.14419e-06,-6.9132e-06,1.51208e-05,6.36364e-06,0
-2.91289e-05,5.08919e-06,-2.67499e-06,7.46039e-06,2.03133e-06,-6.93409e-06,2.14669e-05,7.58142e-06,0
-2.89184e-05,2.6209e-06,-3.27273e-06,8.97894e-07,-3.29763e-07,-9.04947e-06,2.73415e-05,7.57191e-06,0
-3.08709e-05,8.57203e-07,-3.15371e-06,-4.04069e-06,4.53675e-07,-1.13945e-05,2.99224e-05,8.13867e-06,0
-3.36527e-05,-4.50089e-07,-2.66837e-06,-6.93925e-06,2.1521e-06,-1.20349e-05,2.90422e-05,8.02101e-06,0
-3.48477e-05,-2.59121e-06,-1.57598e-06,-8.57607e-06,3.13556e-06,-1.06869e-05,2.6066e-05,6.9593e-06,0
-3.41097e-05,-5.77819e-06,5.28335e-07,-8.89462e-06,3.05213e-06,-9.50493e-06,2.15148e-05,6.18758e-06,0
-3.27504e-05,-7.84203e-06,3.01281e-06,-6.08104e-06,2.32782e-06,-1.00164e-05,1.49865e-05,6.07893e-06,0
-3.14678e-05,-6.71316e-06,3.42668e-06,-2.03568e-06,1.70545e-06,-1.07195e-05,8.29927e-06,6.51612e-06,0
-3.06685e-05,-3.90469e-06,1.00083e-06,-2.506e-06,1.84167e-06,-9.92244e-06,4.00564e-06,8.1002e-06,0
