ch1,ch2,ch3,ch4,ch5,ch6,ch7,ch8,class
-3.27875e-05,2.59228e-05,-2.1369e-05,-7.98165e-06,1.2969e-05,-5.55924e-06,1.30312e-05,1.12127e-06,0
-3.301e-05,2.47609e-05,-1.88045e-05,-6.51316e-06,1.20634e-05,-6.6784e-06,1.81533e-05,1.21689e-06,0
-3.41921e-05,2.21077e-05,-1.69245e-05,-3.42172e-06,1.21241e-05,-6.52867e-06,2.19447e-05,1.31526e-06,0
-3.60107e-05,2.04037e-05,-1.49628e-05,-2.24817e-07,1.24092e-05,-6.12651e-06,2.51598e-05,1.86595e-06,0
-3.74499e-05,2.04304e-05,-1.17552e-05,2.15444e-07,1.18251e-05,-6.41527e-06,2.6772e-05,1.71298e-06,0
-3.79685e-05,2.12556e-05,-8.30631e-06,-1.27385e-06,1.0431e-05,-7.0356e-06,2.62169e-05,4.74639e-07,0
-3.73032e-05,2.09371e-05,-5.44822e-06,-2.07067e-06,9.91887e-06,-7.46212e-06,2.50968e-05,3.67309e-07,0
-3.6378e-05,1.83797e-05,-3.74773e-06,-2.31697e-06,1.07962e-05,-8.55995e-06,2.45599e-05,2.2157e-06,0
-3.60877e-05,1.54066e-05,-4.25638e-06,-4.49379e-06,1.26206e-05,-1.00508e-05,2.46194e-05,3.63518e-06,0
-3.62445e-05,1.5089e-05,-5.69264e-06,-7.84919e-06,1.49378e-05,-1.13211e-05,2.52882e-05,4.65811e-06,0
-3.53821e-05,1.71624e-05,-5.75149e-06,-9.75042e-06,1.59123e-05,-1.20262e-05,2.54074e-05,6.12854e-06,0
-3.32873e-05,1.72454e-05,-4.41859e-06,-8.75949e-06,1.59396e-05,-1.14975e-05,2.45491e-05,6.89182e-06,0
-3.16396e-05,1.51291e-05,-3.78867e-06,-6.33096e-06,1.56523e-05,-1.00657e-05,2.34521e-05,6.33828e-06,0
-3.23572e-05,1.35861e-05,-4.75061e-06,-4.16533e-06,1.52836e-05,-9.41985e-06,2.20148e-05,5.18238e-06,0
-3.47023e-05,1.27153e-05,-4.9115e-06,-2.29064e-06,1.4916e-05,-9.97806e-06,2.11229e-05,4.57351e-06,0
-3.59544e-05,1.15204e-05,-4.5797e-06,-3.55037e-07,1.48776e-05,-1.13216e-05,2.12956e-05,4.12486e-06,0
-3.35035e-05,9.8066e-06,-5.27287e-06,1.3437e-06,1.43721e-05,-1.2333e-05,2.08923e-05,5.12163e-06,0
-2.92691e-05,9.25811e-06,-6.65724e-06,4.67285e-06,1.44931e-05,-1.26025e-05,1.97079e-05,7.08679e-06,0
-2.85473e-05,1.20358e-05,-8.39616e-06,6.37559e-06,1.46904e-05,-1.19869e-05,1.80957e-05,6.73247e-06,0
-3.01968e-05,1.49227e-05,-7.32865e-06,4.16383e-06,1.31676e-05,-1.11725e-05,1.66163e-05,3.79585e-06,0
-3.10524e-05,1.59094e-05,-3.75999e-06,2.43274e-06,1.24648e-05,-1.08757e-05,1.5924e-05,1.56038e-06,0
-3.14115e-05,1.5949e-05,-2.7781e-06,1.06955e-06,1.38367e-05,-1.04315e-05,1.53429e-05,2.03625e-06,0
-3.15079e-05,1.61812e-05,-5.01731e-06,-1.95045e-06,1.52969e-05,-1.02621e-05,1.36486e-05,2.98658e-06,0
-3.05014e-05,1.60967e-05,-6.5275e-06,-4.89241e-06,1.54594e-05,-1.09607e-05,1.19787e-05,1.72092e-06,0
-2.98121e-05,1.45339e-05,-7.11275e-06,-6.30546e-06,1.2285e-05,-1.18638e-05,1.08469e-05,-9.07802e-07,0
-3.01497e-05,1.25442e-05,-8.77678e-06,-8.47355e-06,7.4115e-06,-1.31902e-05,8.513e-06,-2.07767e-06,0
-3.12229e-05,1.08392e-05,-9.23932e-06,-1.0383e-05,5.54498e-06,-1.46504e-05,4.65777e-06,-2.87949e-06,0
-3.21716e-05,9.61342e-06,-8.63858e-06,-9.13481e-06,7.24982e-06,-1.59113e-05,1.82443e-06,-2.84871e-06,0
-3.23738e-05,9.48878e-06,-8.74404e-06,-6.80474e-06,8.93465e-06,-1.57488e-05,2.36361e-06,-2.44011e-06,0
-3.24154e-05,1.0545e-05,-9.79595e-06,-4.54549e-06,8.33142e-06,-1.50431e-05,6.3714e-06,-2.50012e-06,0
-3.23756e-05,1.18196e-05,-9.50941e-06,-1.63092e-06,6.5736e-06,-1.53092e-05,1.04246e-05,-2.20552e-06,0
-3.21089e-05,1.2434e-05,-7.86345e-06,1.03365e-06,5.82016e-06,-1.51186e-05,1.28049e-05,-2.38509e-06,0
-3.18495e-05,1.19123e-05,-6.55958e-06,1.84782e-06,7.43371e-06,-1.38585e-05,1.51622e-05,-2.47546e-06,0
-3.25282e-05,1.00876e-05,-5.81986e-06,2.62431e-06,1.00671e-05,-1.21525e-05,1.73832e-05,-1.6308e-06,0
-3.326e-05,7.85086e-06,-6.00474e-06,3.6473e-06,1.17858e-05,-1.15387e-05,1.85367e-05,1.19756e-06,0
-3.30898e-05,7.32873e-06,-6.46336e-06,1.94668e-06,1.09857e-05,-1.20711e-05,1.87792e-05,4.74824e-06,0
-3.17702e-05,7.59357e-06,-5.90482e-06,-1.42248e-06,8.53415e-06,-1.27151e-05,1.87729e-05,7.23489e-06,0
-2.95902e-05,7.18185e-06,-4.77423e-06,-1.96667e-06,7.18586e-06,-1.31102e-05,1.80379e-05,7.332e-06,0
-2.72776e-05,8.26887e-06,-4.39927e-06,2.92952e-06,8.35406e-06,-1.36946e-05,1.81397e-05,6.25093e-06,0
-2.6548e-05,1.23544e-05,-3.71602e-06,1.21539e-05,1.0757e-05,-1.34575e-05,1.88591e-05,5.15801e-06,0
-2.87747e-05,1.54322e-05,-3.13969e-06,2.38247e-05,1.32693e-05,-1.2807e-05,1.8483e-05,4.88135e-06,0
-3.19815e-05,1.47276e-05,-3.24708e-06,3.30371e-05,1.45207e-05,-1.30462e-05,1.74087e-05,6.33617e-06,0
-3.26604e-05,1.2083e-05,-3.39887e-06,3.33204e-05,1.4499e-05,-1.47787e-05,1.64542e-05,6.63165e-06,0
-3.03041e-05,1.24765e-05,-4.26368e-06,1.96489e-05,1.31783e-05,-1.56542e-05,1.47863e-05,6.05026e-06,0
-2.65599e-05,2.07043e-05,-7.1322e-06,-6.44244e-06,1.10192e-05,-1.49442e-05,1.14019e-05,8.01919e-06,0
-2.37976e-05,3.19367e-05,-1.02715e-05,-3.3183e-05,1.09661e-05,-1.47837e-05,9.47668e-06,1.0184e-05,0
-2.41089e-05,3.95551e-05,-1.10871e-05,-5.43098e-05,1.07618e-05,-1.35313e-05,9.63539e-06,9.8699e-06,0
-2.50457e-05,4.45154e-05,-9.72362e-06,-6.49164e-05,9.63284e-06,-1.22529e-05,9.51913e-06,8.44657e-06,0
-2.53412e-05,5.15556e-05,-8.59537e-06,-5.90512e-05,9.80435e-06,-1.20333e-05,8.33336e-06,7.97072e-06,0
-2.63364e-05,5.94088e-05,-8.20331e-06,-4.22441e-05,1.19015e-05,-1.17317e-05,8.39315e-06,8.50446e-06,0
-2.60991e-05,6.04484e-05,-8.24961e-06,-2.22391e-05,1.44744e-05,-1.11943e-05,1.08046e-05,9.2479e-06,0
-2.52948e-05,5.15995e-05,-7.9927e-06,-6.64474e-06,1.54174e-05,-9.58675e-06,1.29447e-05,9.45318e-06,0
-2.55288e-05,3.15159e-05,-8.069e-06,5.9191e-07,1.54251e-05,-9.29334e-06,1.47924e-05,8.90613e-06,0
-2.58913e-05,3.90856e-06,-7.67779e-06,-6.09378e-06,1.58393e-05,-1.06939e-05,1.63001e-05,8.55103e-06,0
-2.73813e-05,-2.41578e-05,-8.15687e-06,-2.44113e-05,1.81989e-05,-1.18328e-05,1.82991e-05,7.66091e-06,0
-2.98318e-05,-4.41295e-05,-1.42654e-05,-4.30556e-05,2.05666e-05,-1.17524e-05,1.85308e-05,6.76336e-06,0
-3.13359e-05,-4.95069e-05,-2.36498e-05,-5.40486e-05,2.04464e-05,-1.13419e-05,1.62524e-05,4.95812e-06,0
-3.17238e-05,-4.63748e-05,-2.97702e-05,-5.88008e-05,1.84763e-05,-1.22977e-05,1.28074e-05,4.31578e-06,0
-3.11959e-05,-4.07392e-05,-2.94835e-05,-6.15503e-05,1.6667e-05,-1.28892e-05,1.05495e-05,5.67086e-06,0
-3.06128e-05,-3.36432e-05,-2.53254e-05,-5.8774e-05,1.49689e-05,-1.23129e-05,8.45713e-06,6.08089e-06,0
-3.20371e-05,-2.65172e-05,-2.02478e-05,-4.71659e-05,1.22912e-05,-1.04929e-05,3.03704e-06,4.40556e-06,0
-3.52004e-05,-2.06751e-05,-1.62583e-05,-2.89942e-05,9.95025e-06,-9.17744e-06,-2.66997e-06,1.81628e-06,0
-3.67122e-05,-1.54849e-05,-1.23301e-05,-1.15325e-05,9.75935e-06,-9.57511e-06,-5.66077e-06,8.36762e-07,0
-3.42411e-05,-1.17466e-05,-7.11104e-06,4.4338e-06,1.14608e-05,-1.01295e-05,-6.14928e-06,1.96166e-06,0
-3.0296e-05,-1.11207e-05,1.75308e-07,2.11222e-05,1.36644e-05,-9.27909e-06,-6.66362e-06,4.03282e-06,0
-2.78174e-05,-1.35703e-05,1.23604e-05,3.83647e-05,1.69219e-05,-7.93437e-06,-5.23569e-06,4.70145e-06,0
-2.78078e-05,-1.77865e-05,3.2726e-05,5.38852e-05,2.10027e-05,-6.65529e-06,-9.92671e-07,3.35173e-06,0
-2.89561e-05,-2.08417e-05,5.6258e-05,6.24655e-05,2.33229e-05,-5.50353e-06,4.34053e-06,2.06909e-06,0
-3.03905e-05,-2.04399e-05,7.28242e-05,5.73657e-05,2.19273e-05,-5.84171e-06,9.18964e-06,1.25731e-06,0
-3.22454e-05,-1.59275e-05,7.44482e-05,4.28453e-05,1.92651e-05,-7.42611e-06,1.32083e-05,6.24775e-07,0
-3.23963e-05,-6.86662e-06,5.57831e-05,2.8123e-05,1.85901e-05,-9.81609e-06,1.60142e-05,1.98785e-06,0
-3.11324e-05,6.75932e-06,2.00785e-05,2.01693e-05,1.91185e-05,-1.18315e-05,1.72751e-05,3.3976e-06,0
-3.06886e-05,2.50072e-05,-2.11163e-05,1.93739e-05,1.90013e-05,-1.19919e-05,1.73061e-05,3.02616e-06,0
-3.27887e-05,4.34389e-05,-5.94811e-05,1.99514e-05,1.78438e-05,-1.10332e-05,1.64473e-05,2.44804e-06,0
-3.45114e-05,5.07104e-05,-8.23958e-05,1.9342e-05,1.61347e-05,-1.09467e-05,1.58927e-05,2.17005e-06,0
-3.35321e-05,4.80678e-05,-8.61541e-05,1.7474e-05,1.55974e-05,-1.21845e-05,1.78887e-05,2.42376e-06,0
-3.33625e-05,4.09551e-05,-7.9651e-05,1.49246e-05,1.45547e-05,-1.28825e-05,1.94784e-05,2.71283e-06,0
-3.34416e-05,2.84424e-05,-6.69305e-05,1.23005e-05,1.23846e-05,-1.38302e-05,1.86511e-05,1.46332e-06,0
-3.4254e-05,1.36734e-05,-5.70851e-05,8.44897e-06,1.24175e-05,-1.53146e-05,1.72378e-05,-1.01218e-07,0
-3.5111e-05,1.69913e-06,-4.9216e-05,1.72974e-06,1.44682e-05,-1.51766e-05,1.56047e-05,-1.09432e-06,0
-3.57902e-05,-3.04004e-06,-4.10665e-05,-3.069e-06,1.61806e-05,-1.35791e-05,1.4695e-05,-1.34933e-06,0
-3.68752e-05,-3.6671e-06,-3.18e-05,-3.72075e-06,1.76815e-05,-1.17901e-05,1.35108e-05,-1.15172e-06,0
-3.59143e-05,-1.52036e-06,-2.31897e-05,-2.58126e-06,1.80946e-05,-1.10663e-05,1.28231e-05,-1.65391e-07,0
-3.41427e-05,5.22504e-06,-1.65042e-05,-1.74277e-06,1.52034e-05,-1.07256e-05,1.18816e-05,1.96697e-07,0
-3.22776e-05,1.47818e-05,-1.12364e-05,-2.23716e-06,1.11897e-05,-1.05733e-05,9.76556e-06,-6.17305e-07,0
-3.08171e-05,2.2618e-05,-8.8801e-06,-3.87649e-06,9.21544e-06,-1.00465e-05,7.75244e-06,-9.83786e-07,0
-2.99386e-05,2.76803e-05,-7.8337e-06,-4.99638e-06,1.05151e-05,-8.8982e-06,8.07407e-06,-8.84213e-07,0
-3.09619e-05,3.14657e-05,-7.53494e-06,-5.40612e-06,1.27408e-05,-7.71786e-06,1.00629e-05,-2.64616e-07,0
-3.28359e-05,3.21719e-05,-6.51167e-06,-6.35989e-06,1.37138e-05,-6.89707e-06,1.14974e-05,5.42726e-07,0
-3.31603e-05,3.00039e-05,-4.57844e-06,-8.27483e-06,1.44818e-05,-7.03696e-06,1.29427e-05,2.3462e-07,0
-3.17626e-05,2.74474e-05,-1.40613e-06,-1.09503e-05,1.56304e-05,-7.52121e-06,1.77579e-05,-1.74056e-06,0
-3.02477e-05,2.77257e-05,9.08709e-07,-1.45584e-05,1.57663e-05,-7.78064e-06,2.61098e-05,-3.27691e-06,0
-2.86127e-05,2.94498e-05,2.80862e-06,-1.73426e-05,1.52489e-05,-7.63192e-06,3.28905e-05,-3.80972e-06,0
-2.67005e-05,2.87684e-05,4.02058e-06,-1.60734e-05,1.56215e-05,-7.78267e-06,3.46278e-05,-3.31569e-06,0
-2.65951e-05,2.49973e-05,5.19995e-06,-1.27683e-05,1.58374e-05,-7.997e-06,3.32117e-05,-2.55396e-06,0
-2.78417e-05,2.01075e-05,6.14865e-06,-1.11351e-05,1.50874e-05,-6.91608e-06,3.0126e-05,-2.04093e-06,0
-2.86199e-05,1.46691e-05,6.13842e-06,-1.10554e-05,1.35866e-05,-5.27366e-06,2.4435e-05,-1.86602e-06,0
-2.78999e-05,1.17062e-05,4.03275e-06,-1.13145e-05,1.2299e-05,-4.94528e-06,1.85409e-05,-3.43748e-06,0
-2.72037e-05,1.36996e-05,9.27603e-07,-1.18356e-05,1.1967e-05,-6.08561e-06,1.30336e-05,-6.4004e-06,0
-2.70311e-05,1.69439e-05,-1.31104e-06,-1.22765e-05,1.08411e-05,-6.9075e-06,7.02507e-06,-6.97227e-06,0
-2.78389e-05,1.71347e-05,-3.04633e-06,-1.25129e-05,8.99333e-06,-6.58902e-06,6.63746e-07,-4.88665e-06,0
-2.84464e-05,1.41685e-05,-4.6125e-06,-1.19856e-05,9.34196e-06,-6.24714e-06,-4.35247e-06,-2.28278e-06,0
-2.76612e-05,1.09869e-05,-4.89279e-06,-9.95278e-06,1.25084e-05,-6.32077e-06,-6.11847e-06,-1.24494e-06,0
-2.6748e-05,9.11823e-06,-3.33682e-06,-9.4094e-06,1.62655e-05,-5.43876e-06,-5.2149e-06,-1.06969e-06,0
-2.4938e-05,8.9756e-06,-1.90842e-06,-1.14454e-05,1.73365e-05,-5.67731e-06,-3.10617e-06,-9.64655e-07,0
-2.2725e-05,9.79789e-06,-4.05753e-07,-1.14467e-05,1.642e-05,-7.01559e-06,-1.27494e-06,-9.39417e-07,0
-2.18868e-05,8.70827e-06,1.85338e-06,-1.0171e-05,1.4276e-05,-6.82916e-06,9.05434e-07,-4.62233e-07,0
-2.25473e-05,7.01657e-06,3.53823e-06,-1.02649e-05,1.12492e-05,-5.42875e-06,4.43998e-06,-1.66806e-06,0
-2.344e-05,7.14133e-06,2.54575e-06,-1.00909e-05,9.91e-06,-2.34341e-06,6.38258e-06,-4.55605e-06,0
-2.31059e-05,8.49058e-06,3.6544e-07,-8.99819e-06,1.05634e-05,-1.69827e-06,6.29937e-06,-6.68839e-06,0
-2.25474e-05,1.00574e-05,-2.03793e-06,-7.20363e-06,1.21546e-05,-4.31949e-06,7.96935e-06,-7.45257e-06,0
-2.33984e-05,1.10559e-05,-3.82686e-06,-7.36591e-06,1.34171e-05,-7.85833e-06,1.2213e-05,-8.32456e-06,0
-2.52604e-05,1.12103e-05,-5.40382e-06,-9.54148e-06,1.3861e-05,-1.00604e-05,1.67875e-05,-8.87736e-06,0
-2.71956e-05,1.11684e-05,-6.20003e-06,-1.05508e-05,1.41168e-05,-1.06735e-05,1.9233e-05,-7.78167e-06,0
-2.92691e-05,1.18605e-05,-4.76671e-06,-9.36371e-06,1.46558e-05,-1.07555e-05,1.85927e-05,-5.30348e-06,0
-3.09182e-05,1.18574e-05,-1.57835e-06,-8.55648e-06,1.35057e-05,-1.09211e-05,1.58594e-05,-4.5138e-06,0
-3.1341e-05,1.10875e-05,5.91907e-07,-8.23333e-06,1.014e-05,-1.25076e-05,1.26055e-05,-5.88356e-06,0
-3.11711e-05,1.03012e-05,9.44085e-07,-6.00781e-06,7.13426e-06,-1.42415e-05,8.63005e-06,-6.3416e-06,0
-3.07868e-05,9.21093e-06,3.91288e-07,-3.59706e-06,6.17742e-06,-1.56563e-05,4.26406e-06,-4.36326e-06,0
-2.99523e-05,7.45899e-06,-3.41536e-07,-3.08542e-06,7.10915e-06,-1.5873e-05,2.21835e-06,-2.14699e-06,0
-2.93037e-05,7.15718e-06,-9.80417e-07,-4.29105e-06,8.53857e-06,-1.53517e-05,3.74045e-06,-1.46721e-06,0
-2.89796e-05,8.99908e-06,-2.29349e-06,-5.37148e-06,1.00155e-05,-1.42564e-05,7.04036e-06,-1.42126e-06,0
-2.84879e-05,1.03449e-05,-4.9449e-06,-5.30392e-06,1.13762e-05,-1.36584e-05,1.03693e-05,-1.04386e-06,0
-2.82314e-05,9.18145e-06,-9.1678e-06,-5.11673e-06,1.24789e-05,-1.40256e-05,1.10747e-05,-1.75578e-06,0
-2.94024e-05,7.37843e-06,-1.27568e-05,-6.50101e-06,1.3737e-05,-1.39682e-05,3.9767e-06,-2.55257e-06,0
-3.18922e-05,7.55556e-06,-1.52678e-05,-8.81549e-06,1.46759e-05,-1.35109e-05,-1.27561e-05,-2.24217e-06,0
-3.30899e-05,7.85001e-06,-1.79606e-05,-1.00049e-05,1.61801e-05,-1.24708e-05,-2.69477e-05,-1.09656e-06,0
-3.26374e-05,7.76063e-06,-1.9249e-05,-9.82901e-06,1.92641e-05,-1.26274e-05,-2.67783e-05,4.6053e-07,0
-3.28977e-05,9.56282e-06,-1.75987e-05,-9.16358e-06,2.16494e-05,-1.22348e-05,-1.64498e-05,9.358e-07,0
-3.38145e-05,1.18828e-05,-1.58378e-05,-8.22321e-06,2.22615e-05,-9.77003e-06,-2.40498e-06,-3.48711e-07,0
-3.29484e-05,1.29793e-05,-1.45796e-05,-9.47557e-06,2.02691e-05,-9.06134e-06,1.11265e-05,-3.7659e-06,0
-3.08855e-05,1.18182e-05,-1.21826e-05,-1.07741e-05,1.58879e-05,-9.55263e-06,2.2005e-05,-6.02903e-06,0
-2.98493e-05,8.37789e-06,-9.21166e-06,-9.07962e-06,1.26606e-05,-9.79553e-06,3.04334e-05,-6.49641e-06,0
-3.03559e-05,4.37025e-06,-9.23999e-06,-6.97844e-06,1.05715e-05,-9.46704e-06,3.60416e-05,-5.49615e-06,0
-3.20003e-05,1.53715e-06,-1.14199e-05,-6.35032e-06,9.39867e-06,-1.00299e-05,3.90423e-05,-3.81825e-06,0
-3.34737e-05,2.63465e-07,-1.33133e-05,-5.81342e-06,1.00416e-05,-1.06424e-05,3.8772e-05,-3.08494e-06,0
-3.35457e-05,-2.21989e-07,-1.53017e-05,-4.59064e-06,1.0333e-05,-1.14529e-05,3.43291e-05,-3.63518e-06,0
-3.24301e-05,-3.81827e-07,-1.66044e-05,-3.66813e-06,8.56789e-06,-1.24099e-05,2.88564e-05,-5.74017e-06,0
-3.18716e-05,-1.12374e-06,-1.73399e-05,-2.87096e-06,5.87856e-06,-1.24656e-05,2.55062e-05,-6.39441e-06,0
-3.23003e-05,-1.94086e-06,-1.65721e-05,-2.25904e-06,4.22988e-06,-1.23032e-05,2.5125e-05,-4.19167e-06,0
-3.22004e-05,-2.74862e-06,-1.51579e-05,-1.62632e-06,4.70599e-06,-1.2196e-05,2.49855e-05,-2.08207e-07,0
-3.16069e-05,-2.41223e-06,-1.42784e-05,-5.9556e-08,6.38216e-06,-1.16551e-05,2.27552e-05,4.05211e-06,0
-3.10204e-05,-4.64502e-07,-1.41887e-05,5.91541e-07,7.13965e-06,-1.04951e-05,1.98009e-05,6.1797e-06,0
-3.01966e-05,1.48933e-06,-1.4128e-05,-9.21673e-07,7.57152e-06,-1.06583e-05,1.72754e-05,5.40309e-06,0
-2.97117e-05,1.58665e-06,-1.39167e-05,-2.97079e-06,9.07571e-06,-1.08129e-05,1.61161e-05,4.9219e-06,0
-2.98884e-05,1.335e-06,-1.33396e-05,-4.47886e-06,1.07981e-05,-9.91146e-06,1.56819e-05,5.85077e-06,0
-3.05369e-05,2.30401e-06,-1.20871e-05,-4.80208e-06,1.17509e-05,-7.90063e-06,1.51594e-05,5.68062e-06,0
-3.12192e-05,4.23693e-06,-1.04892e-05,-4.49122e-06,1.23385e-05,-6.73246e-06,1.48057e-05,4.37025e-06,0
-3.14017e-05,6.86497e-06,-8.21444e-06,-3.63647e-06,1.2643e-05,-7.08695e-06,1.4564e-05,3.90857e-06,0
-3.12493e-05,1.00642e-05,-6.80575e-06,-3.78752e-06,1.41258e-05,-8.0629e-06,1.38405e-05,4.26729e-06,0
-3.05209e-05,1.39572e-05,-7.74824e-06,-4.8267e-06,1.59199e-05,-9.22884e-06,1.37162e-05,3.83855e-06,0
-2.92596e-05,1.72266e-05,-9.6516e-06,-5.31647e-06,1.59086e-05,-1.15273e-05,1.63407e-05,2.95058e-06,0
-2.75014e-05,1.68531e-05,-9.91799e-06,-6.13366e-06,1.52716e-05,-1.3453e-05,2.05195e-05,1.79581e-06,0
-2.57569e-05,1.40471e-05,-9.29542e-06,-7.61183e-06,1.4087e-05,-1.31099e-05,2.23966e-05,9.89046e-07,0
-2.68461e-05,1.36945e-05,-9.59034e-06,-7.53855e-06,1.32573e-05,-9.50219e-06,2.06459e-05,8.82451e-07,0
-3.04975e-05,1.32986e-05,-1.05082e-05,-6.20781e-06,1.1947e-05,-5.2441e-06,1.59328e-05,-5.08813e-07,0
-3.28752e-05,1.13017e-05,-1.06002e-05,-5.70686e-06,1.08442e-05,-4.08098e-06,1.06055e-05,-6.65341e-07,0
-3.21042e-05,1.10018e-05,-9.09315e-06,-5.97179e-06,1.12506e-05,-4.77294e-06,6.37027e-06,1.46885e-06,0
-3.00495e-05,1.27954e-05,-6.61152e-06,-6.99698e-06,1.33071e-05,-6.41938e-06,5.46375e-06,1.68225e-06,0
-2.86741e-05,1.33463e-05,-5.72495e-06,-9.16723e-06,1.52548e-05,-7.09186e-06,6.52944e-06,4.16436e-07,0
-2.64192e-05,1.276e-05,-6.50238e-06,-1.06756e-05,1.41642e-05,-6.88336e-06,7.96873e-06,-1.01192e-06,0
-2.46433e-05,1.26032e-05,-6.72139e-06,-9.96427e-06,1.33524e-05,-8.83553e-06,8.88168e-06,-1.38008e-06,0
-2.68153e-05,1.31495e-05,-5.9205e-06,-8.27822e-06,1.39369e-05,-1.11149e-05,8.23531e-06,-3.25905e-07,0
-3.00366e-05,1.51204e-05,-5.24779e-06,-7.87246e-06,1.57711e-05,-1.11502e-05,7.9135e-06,-1.0242e-07,0
-3.16573e-05,1.77887e-05,-5.72506e-06,-8.28741e-06,1.71672e-05,-1.02496e-05,8.8945e-06,-9.75547e-08,0
-3.30512e-05,1.99848e-05,-7.05233e-06,-7.85072e-06,1.69584e-05,-9.75591e-06,9.73747e-06,1.57104e-06,0
-3.41544e-05,2.07253e-05,-7.80066e-06,-7.65953e-06,1.44731e-05,-9.58527e-06,8.8748e-06,3.64572e-06,0
-3.26844e-05,2.05159e-05,-7.45488e-06,-7.05995e-06,1.17999e-05,-8.65268e-06,8.87152e-06,4.4226e-06,0
-2.99949e-05,2.06967e-05,-6.77561e-06,-5.98348e-06,1.208e-05,-7.42787e-06,9.80624e-06,5.19814e-06,0
-2.91661e-05,2.17854e-05,-6.04154e-06,-6.31585e-06,1.38937e-05,-5.50232e-06,1.11942e-05,6.76966e-06,0
-2.9409e-05,2.21785e-05,-4.71687e-06,-7.31488e-06,1.48406e-05,-5.41341e-06,1.16285e-05,8.36799e-06,0
-2.92986e-05,2.05528e-05,-3.44433e-06,-6.47131e-06,1.33756e-05,-7.60088e-06,8.98776e-06,9.29254e-06,0
-2.92912e-05,1.78323e-05,-2.9229e-06,-5.65521e-06,1.17306e-05,-9.55816e-06,3.11233e-06,9.01489e-06,0
-3.06141e-05,1.55324e-05,-2.04571e-06,-5.98213e-06,1.07084e-05,-9.5637e-06,-5.21559e-06,8.01113e-06,0
-3.10998e-05,1.44437e-05,-1.29348e-06,-5.834e-06,1.04285e-05,-8.06174e-06,-1.75802e-05,7.95295e-06,0
-3.07174e-05,1.53281e-05,-1.29361e-06,-5.42727e-06,1.11894e-05,-7.31602e-06,-3.09651e-05,1.04967e-05,0
-3.116e-05,1.76822e-05,-2.59375e-06,-4.83225e-06,1.1319e-05,-8.06889e-06,-3.50936e-05,1.2734e-05,0
-3.14977e-05,1.96414e-05,-4.37195e-06,-4.16671e-06,1.04403e-05,-8.38105e-06,-2.32338e-05,1.14814e-05,0
-3.05441e-05,2.14747e-05,-5.99371e-06,-3.6888e-06,9.93945e-06,-7.36149e-06,-1.23573e-07,9.54426e-06,0
-2.81401e-05,2.49803e-05,-6.21976e-06,-3.23195e-06,8.91094e-06,-8.01266e-06,2.28818e-05,9.18324e-06,0
-2.65949e-05,2.66855e-05,-3.82518e-06,-3.15292e-06,8.27828e-06,-8.09575e-06,3.98027e-05,1.00089e-05,0
-2.66019e-05,2.48853e-05,-2.73068e-06,-3.76603e-06,8.19112e-06,-7.58992e-06,5.1618e-05,8.21476e-06,0
-2.80674e-05,2.34489e-05,-6.63905e-06,-3.93534e-06,9.55717e-06,-7.16205e-06,5.71362e-05,3.50372e-06,0
-2.85506e-05,2.23999e-05,-1.34267e-05,-3.92941e-06,1.21537e-05,-6.18978e-06,5.61461e-05,-2.08824e-08,0
-2.9189e-05,1.9495e-05,-1.90486e-05,-2.99865e-06,1.46778e-05,-6.99402e-06,5.31094e-05,2.00585e-07,0
-3.06756e-05,1.59971e-05,-2.14562e-05,-1.25551e-06,1.54666e-05,-7.06433e-06,4.86256e-05,2.08477e-06,0
-3.04977e-05,1.48467e-05,-1.98152e-05,9.37563e-08,1.37797e-05,-5.66242e-06,4.39344e-05,2.09801e-06,0
-3.15676e-05,1.44853e-05,-1.53697e-05,-1.38509e-07,1.20445e-05,-5.3616e-06,3.90288e-05,2.74875e-06,0
-3.527e-05,1.33913e-05,-1.03189e-05,-2.37208e-06,1.14118e-05,-6.40912e-06,3.27859e-05,4.50225e-06,0
-3.98263e-05,1.21251e-05,-6.50691e-06,-3.28912e-06,1.32129e-05,-6.82949e-06,2.45547e-05,6.0177e-06,0
-4.03011e-05,1.13549e-05,-5.7822e-06,-3.73258e-06,1.58774e-05,-6.57312e-06,1.84733e-05,5.66908e-06,0
-3.72018e-05,1.09245e-05,-8.18244e-06,-3.86914e-06,1.78667e-05,-7.44493e-06,1.75073e-05,3.05554e-06,0
-3.49033e-05,9.89217e-06,-1.03284e-05,-3.67609e-06,1.81301e-05,-9.36549e-06,1.94199e-05,1.01283e-06,0
-3.47984e-05,8.55744e-06,-1.02915e-05,-4.08482e-06,1.69537e-05,-1.14384e-05,2.10877e-05,9.53524e-07,0
-3.59495e-05,7.07645e-06,-8.44853e-06,-4.94631e-06,1.5383e-05,-1.27509e-05,1.97857e-05,1.79964e-06,0
-3.8556e-05,6.89002e-06,-5.90917e-06,-4.55132e-06,1.57962e-05,-1.31404e-05,1.58357e-05,2.16972e-06,0
-4.32231e-05,8.68094e-06,-4.35692e-06,-3.38532e-06,1.88809e-05,-1.24364e-05,1.17312e-05,1.94933e-06,0
-4.89026e-05,1.09788e-05,-3.81996e-06,-4.11556e-06,2.1801e-05,-1.12989e-05,9.84356e-06,1.08181e-06,0
-5.24712e-05,1.31136e-05,-2.92257e-06,-4.171e-06,2.28736e-05,-1.08861e-05,8.82417e-06,-4.88248e-07,0
-4.93315e-05,1.4727e-05,-2.24065e-06,-1.56469e-06,2.25586e-05,-1.12837e-05,7.4743e-06,-1.7604e-06,0
-3.85919e-05,1.54353e-05,-2.75255e-06,2.42381e-06,2.24502e-05,-1.0418e-05,5.70382e-06,-1.1384e-06,0
-2.66602e-05,1.63479e-05,-2.67779e-06,6.64204e-06,2.34305e-05,-8.99232e-06,4.52615e-06,-7.50186e-07,0
-2.36457e-05,1.80507e-05,-2.97073e-06,1.02754e-05,2.3998e-05,-8.99796e-06,4.59318e-06,-1.11925e-06,0
-3.09906e-05,1.84827e-05,-6.43066e-06,1.18817e-05,2.24991e-05,-8.81238e-06,4.70789e-06,-1.37237e-06,0
-4.23164e-05,1.71046e-05,-1.17443e-05,9.94617e-06,2.1107e-05,-6.95534e-06,4.51856e-06,-3.15676e-06,0
-4.71105e-05,1.60624e-05,-1.29813e-05,4.14423e-06,2.07199e-05,-4.62826e-06,6.96782e-06,-5.45815e-06,0
-4.09538e-05,1.66257e-05,-9.39351e-06,-1.31405e-06,1.92936e-05,-3.67917e-06,1.16323e-05,-6.71984e-06,0
-2.87346e-05,1.8842e-05,-5.8207e-06,-3.60219e-06,1.63272e-05,-3.70113e-06,1.45284e-05,-5.23021e-06,0
-1.68195e-05,2.01931e-05,-7.08958e-06,-2.7931e-06,1.23614e-05,-4.37186e-06,1.56258e-05,-3.47916e-06,0
-1.13829e-05,2.10226e-05,-1.16442e-05,-2.19028e-06,1.02402e-05,-5.44672e-06,2.39219e-05,-4.08741e-06,0
-9.77595e-06,2.30264e-05,-1.34297e-05,-2.20665e-06,9.41226e-06,-6.84664e-06,3.7954e-05,-3.50057e-06,0
-5.42878e-06,2.52549e-05,-1.23955e-05,-1.17806e-06,8.02282e-06,-7.87307e-06,4.56929e-05,-1.4345e-06,0
-1.00496e-06,2.63941e-05,-9.39893e-06,3.20544e-07,7.90436e-06,-6.20608e-06,4.5023e-05,3.79732e-07,0
1.16232e-06,2.44714e-05,-7.25396e-06,1.74779e-06,9.21905e-06,-3.67002e-06,3.71054e-05,1.82742e-06,0
6.74671e-07,2.20161e-05,-5.83436e-06,3.19844e-06,1.12452e-05,-2.85916e-06,2.52076e-05,2.32993e-06,0
-1.97831e-06,2.16819e-05,-5.05931e-06,4.98529e-06,1.18607e-05,-3.99333e-06,1.15351e-05,1.21417e-06,0
-6.94719e-06,2.31124e-05,-6.28282e-06,5.6626e-06,1.15254e-05,-6.14524e-06,-3.02242e-06,6.96666e-07,0
-1.30005e-05,2.45195e-05,-6.87059e-06,3.77079e-06,1.08635e-05,-7.72226e-06,-1.80207e-05,1.1949e-06,0
-1.8132e-05,2.55259e-05,-6.03148e-06,2.59282e-06,1.07257e-05,-8.41739e-06,-3.07955e-05,7.6639e-07,0
-2.30307e-05,2.61294e-05,-4.34335e-06,3.85408e-06,1.05393e-05,-8.46815e-06,-3.73678e-05,-2.79074e-07,0
-2.69816e-05,2.60044e-05,-3.3136e-06,3.78127e-06,9.64623e-06,-8.32624e-06,-3.67775e-05,-2.12133e-06,0
-3.02021e-05,2.59465e-05,-3.36357e-06,2.65305e-06,8.9896e-06,-8.2143e-06,-3.20897e-05,-3.17071e-06,0
-3.1669e-05,2.61207e-05,-3.72561e-06,2.83321e-06,7.609e-06,-8.10304e-06,-2.59565e-05,-2.67049e-06,0
-3.15848e-05,2.63694e-05,-3.29694e-06,4.47513e-06,5.81026e-06,-8.13093e-06,-1.84258e-05,-1.88034e-06,0
-3.13722e-05,2.57798e-05,-2.8618e-06,4.74952e-06,5.06627e-06,-8.92616e-06,-9.71782e-06,-2.03358e-06,0
-3.22137e-05,2.39613e-05,-3.2553e-06,3.12729e-06,5.72946e-06,-9.94995e-06,-8.57407e-07,-3.12748e-06,0
-3.377e-05,2.12997e-05,-4.11166e-06,-1.07719e-06,6.22353e-06,-1.00071e-05,5.05196e-06,-4.58195e-06,0
-3.5712e-05,1.90741e-05,-4.47147e-06,-8.51406e-06,6.43311e-06,-8.64679e-06,6.51487e-06,-5.34701e-06,0
-3.81266e-05,1.77572e-05,-5.36136e-06,-1.89689e-05,6.59112e-06,-8.40056e-06,5.06849e-06,-5.34973e-06,0
-3.97831e-05,1.58162e-05,-7.65881e-06,-2.73374e-05,6.99008e-06,-9.76328e-06,4.47913e-06,-5.03279e-06,0
-3.9983e-05,1.38208e-05,-1.01891e-05,-2.77625e-05,7.71827e-06,-1.09017e-05,6.4739e-06,-4.11511e-06,0
-3.994e-05,1.40005e-05,-1.14778e-05,-2.21889e-05,9.10783e-06,-1.15045e-05,8.93457e-06,-2.81298e-06,0
-3.88152e-05,1.47885e-05,-1.05535e-05,-1.70899e-05,1.05127e-05,-1.091e-05,9.77545e-06,-6.80095e-07,0
-3.55374e-05,1.42513e-05,-1.05324e-05,-1.51461e-05,1.09536e-05,-9.93694e-06,9.3012e-06,2.03249e-06,0
-3.17467e-05,1.16055e-05,-1.19494e-05,-1.50713e-05,1.11757e-05,-9.28128e-06,7.98882e-06,5.27634e-06,0
-2.86335e-05,1.02663e-05,-1.27414e-05,-1.67997e-05,1.23926e-05,-9.19013e-06,8.75908e-06,6.57855e-06,0
-2.65757e-05,1.11802e-05,-1.05323e-05,-1.66866e-05,1.19595e-05,-9.26598e-06,1.18132e-05,4.93522e-06,0
-2.5862e-05,1.16464e-05,-6.59323e-06,-1.38696e-05,9.16437e-06,-1.04695e-05,1.41324e-05,3.52923e-06,0
-2.74573e-05,1.20394e-05,-2.111e-06,-1.28848e-05,7.97599e-06,-1.19897e-05,1.62241e-05,3.46295e-06,0
-3.12747e-05,1.2434e-05,6.12401e-06,-1.47836e-05,9.77482e-06,-1.12233e-05,1.84857e-05,3.18554e-06,0
-3.4999e-05,1.13027e-05,1.80578e-05,-1.69166e-05,1.31593e-05,-9.71193e-06,1.9264e-05,3.20413e-06,0
-3.64381e-05,7.59751e-06,3.28871e-05,-1.90298e-05,1.53838e-05,-9.68945e-06,1.92668e-05,3.93369e-06,0
-3.70762e-05,3.82325e-06,4.66574e-05,-1.98969e-05,1.65956e-05,-1.09956e-05,2.01462e-05,4.94475e-06,0
-3.81692e-05,7.82928e-07,5.3502e-05,-1.85957e-05,1.66971e-05,-1.09334e-05,2.18514e-05,5.20997e-06,0
-3.97093e-05,-1.40491e-06,4.82045e-05,-1.44431e-05,1.44818e-05,-1.05248e-05,2.1995e-05,4.72941e-06,0
-4.14568e-05,-2.96971e-06,2.79323e-05,-6.77048e-06,1.21502e-05,-1.0276e-05,1.932e-05,3.84362e-06,0
-4.21238e-05,-4.29034e-06,-4.80889e-06,2.38649e-06,1.25818e-05,-9.35932e-06,1.64e-05,4.21363e-06,0
-4.24345e-05,-5.15966e-06,-4.28945e-05,8.22629e-06,1.44388e-05,-8.9325e-06,1.48516e-05,5.41529e-06,0
-4.48603e-05,-5.69298e-06,-7.55548e-05,7.69313e-06,1.62834e-05,-8.79287e-06,1.43402e-05,5.06015e-06,0
-4.97742e-05,-5.6617e-06,-9.36126e-05,3.37925e-06,1.81674e-05,-8.75827e-06,1.40556e-05,4.85504e-06,0
-5.31938e-05,-5.82326e-06,-9.29043e-05,1.36801e-07,1.95081e-05,-9.73508e-06,1.5113e-05,5.19523e-06,0
-5.23158e-05,-8.03769e-06,-7.87265e-05,-6.63171e-08,1.95379e-05,-1.2833e-05,1.76499e-05,5.03365e-06,0
-4.9689e-05,-1.19808e-05,-6.19219e-05,6.69348e-07,1.86373e-05,-1.5785e-05,2.09855e-05,4.26197e-06,0
-4.91794e-05,-1.37685e-05,-4.87454e-05,1.57549e-06,1.92037e-05,-1.59764e-05,2.42082e-05,4.29463e-06,0
-5.12151e-05,-1.16975e-05,-3.86024e-05,2.74164e-06,2.17379e-05,-1.36056e-05,2.6475e-05,4.14875e-06,0
-5.03147e-05,-7.79764e-06,-2.95391e-05,3.20846e-06,2.35214e-05,-1.13776e-05,2.79822e-05,3.8252e-06,0
-4.01198e-05,-4.54438e-06,-2.0928e-05,2.21395e-06,2.21912e-05,-1.07546e-05,2.93802e-05,3.25559e-06,0
-2.59899e-05,-1.70384e-06,-1.42808e-05,4.24823e-07,1.89108e-05,-1.08786e-05,2.97628e-05,1.13477e-06,0
-2.04954e-05,-2.07217e-07,-1.01233e-05,-1.1874e-06,1.59699e-05,-1.07301e-05,2.78357e-05,-1.02201e-06,0
-2.73364e-05,-1.70938e-06,-7.09769e-06,-1.84371e-06,1.4635e-05,-1.04121e-05,2.45149e-05,-2.73047e-06,0
-4.54784e-05,-3.03574e-06,-5.19349e-06,-2.19641e-06,1.45355e-05,-1.01481e-05,2.15475e-05,-5.3307e-06,0
-6.83114e-05,-2.86023e-06,-3.5704e-06,-2.76958e-06,1.40615e-05,-8.81979e-06,2.11327e-05,-6.45942e-06,0
-8.11464e-05,-9.34647e-07,-1.13721e-06,-5.10422e-06,1.25975e-05,-8.62831e-06,2.22804e-05,-6.30821e-06,0
-7.21524e-05,3.26257e-06,-7.28949e-07,-8.65432e-06,1.13564e-05,-1.01568e-05,2.18386e-05,-7.0962e-06,0
-4.44609e-05,9.24769e-06,-2.74085e-06,-9.64452e-06,1.11999e-05,-1.11511e-05,2.02576e-05,-6.77484e-06,0
-8.61039e-06,1.89196e-05,-2.98202e-06,-8.9851e-06,1.1768e-05,-1.1893e-05,1.81718e-05,-4.95865e-06,0
2.1304e-05,2.8007e-05,-1.13608e-06,-8.89458e-06,1.14987e-05,-1.11948e-05,1.52269e-05,-3.82266e-06,0
2.55206e-05,3.09077e-05,4.37031e-07,-8.90058e-06,1.02508e-05,-9.48165e-06,1.30429e-05,-3.8259e-06,0
6.57857e-06,2.76615e-05,1.60693e-06,-8.25123e-06,9.65552e-06,-8.16695e-06,1.23451e-05,-4.91748e-06,0
-8.5265e-06,2.07766e-05,2.7103e-06,-6.20319e-06,9.77346e-06,-7.26765e-06,1.18508e-05,-6.37978e-06,0
-2.46336e-06,1.23321e-05,2.03615e-06,-4.50801e-06,1.01127e-05,-6.07197e-06,9.41928e-06,-6.4899e-06,0
1.42228e-05,3.27213e-06,4.70927e-07,-5.5168e-06,9.514e-06,-5.85754e-06,6.28704e-06,-6.11266e-06,0
2.2608e-05,-4.67317e-06,-5.38966e-07,-6.51076e-06,6.94913e-06,-7.48585e-06,5.21145e-06,-5.07651e-06,0
1.8193e-05,-1.04171e-05,-9.77086e-08,-4.7988e-06,4.50559e-06,-9.3651e-06,5.60613e-06,-3.61463e-06,0
7.89542e-06,-1.44026e-05,9.77457e-07,-1.73512e-06,3.12062e-06,-1.02724e-05,6.58192e-06,-2.6237e-06,0
-1.92161e-06,-1.83227e-05,1.34708e-06,1.26628e-06,2.02747e-06,-1.0065e-05,7.0746e-06,-2.91591e-06,0
-8.83116e-06,-2.19152e-05,1.0729e-06,4.37733e-06,3.82963e-06,-1.00027e-05,7.47609e-06,-3.87589e-06,0
-1.34312e-05,-2.26785e-05,3.91197e-07,8.30171e-06,8.81928e-06,-1.06439e-05,9.44889e-06,-4.43807e-06,0
-1.66818e-05,-1.82047e-05,-7.12958e-07,1.26769e-05,1.35938e-05,-1.2552e-05,1.18876e-05,-4.84446e-06,0
-1.91268e-05,-1.10795e-05,-2.07802e-06,1.44889e-05,1.61764e-05,-1.4473e-05,1.28767e-05,-4.27855e-06,0
-2.10277e-05,-3.85131e-06,-2.61987e-06,1.05833e-05,1.72207e-05,-1.52009e-05,1.21535e-05,-2.00757e-06,0
-2.29941e-05,2.88616e-06,-1.43729e-06,1.37933e-06,1.78116e-05,-1.47076e-05,1.12512e-05,7.43734e-07,0
-2.62923e-05,6.87357e-06,3.5876e-07,-8.58044e-06,1.72443e-05,-1.39362e-05,1.1161e-05,1.55226e-06,0
-2.86721e-05,8.90085e-06,-3.4616e-07,-1.49442e-05,1.50195e-05,-1.36614e-05,1.11861e-05,7.31429e-07,0
-2.93175e-05,1.11137e-05,-3.5481e-06,-1.65462e-05,1.2075e-05,-1.40602e-05,9.58975e-06,-7.10788e-08,0
-2.86937e-05,1.26423e-05,-7.69942e-06,-1.56964e-05,9.27409e-06,-1.41147e-05,8.00193e-06,-6.96895e-07,0
-2.83855e-05,1.34009e-05,-1.11688e-05,-1.46976e-05,5.91687e-06,-1.38917e-05,7.88172e-06,-2.50547e-07,0
-2.98223e-05,1.54624e-05,-1.3341e-05,-1.43322e-05,2.24944e-06,-1.36566e-05,8.72121e-06,4.59773e-07,0
-3.11194e-05,1.78121e-05,-1.57308e-05,-1.39195e-05,-5.60218e-07,-1.35438e-05,9.6282e-06,-3.54628e-07,0
-3.11594e-05,1.64429e-05,-1.71004e-05,-1.43253e-05,-2.2889e-06,-1.40499e-05,8.84186e-06,-6.23333e-07,0
-3.22879e-05,1.33088e-05,-1.52638e-05,-1.9031e-05,-1.61621e-06,-1.41371e-05,9.02514e-06,-1.19897e-06,0
-3.54208e-05,1.13726e-05,-1.39824e-05,-2.62352e-05,-1.62721e-08,-1.5084e-05,1.09019e-05,-2.01024e-07,0
-3.65835e-05,1.04611e-05,-1.44568e-05,-3.17771e-05,3.24301e-07,-1.65991e-05,1.17364e-05,2.36974e-06,0
-3.60508e-05,1.16242e-05,-1.49892e-05,-3.68899e-05,3.29164e-07,-1.57456e-05,1.06615e-05,2.89722e-06,0
-3.64754e-05,1.24123e-05,-1.45769e-05,-3.80591e-05,1.22931e-06,-1.37757e-05,8.7802e-06,3.97579e-06,0
-3.71457e-05,1.41919e-05,-1.32099e-05,-2.69679e-05,3.8144e-06,-1.30049e-05,7.40554e-06,5.05835e-06,0
-3.63416e-05,1.77261e-05,-1.24247e-05,-5.41246e-06,9.66925e-06,-1.1917e-05,9.34684e-06,5.71228e-06,0
-3.46983e-05,2.10545e-05,-1.30087e-05,1.73615e-05,1.71854e-05,-9.60323e-06,1.71387e-05,4.81437e-06,0
-3.34288e-05,2.36933e-05,-1.34949e-05,3.28073e-05,2.35201e-05,-7.77466e-06,2.83674e-05,3.75859e-06,0
-3.25981e-05,2.62301e-05,-1.16329e-05,4.25354e-05,2.97898e-05,-8.07667e-06,3.75752e-05,4.77969e-06,0
-3.33896e-05,2.96337e-05,-8.68676e-06,4.89808e-05,3.5601e-05,-9.41998e-06,4.04677e-05,7.17269e-06,0
-3.49456e-05,3.3287e-05,-6.25931e-06,4.59012e-05,3.72784e-05,-9.89214e-06,3.76745e-05,8.15393e-06,0
-3.47334e-05,3.64264e-05,-5.32244e-06,2.96737e-05,3.0676e-05,-9.90631e-06,3.13523e-05,5.87184e-06,0
-3.30013e-05,3.79199e-05,-5.12288e-06,9.4614e-06,2.06561e-05,-1.00375e-05,2.35497e-05,3.33024e-06,0
-3.25014e-05,3.79909e-05,-4.38143e-06,-2.76444e-06,1.45477e-05,-1.08915e-05,1.52539e-05,2.82042e-06,0
-3.38445e-05,3.69397e-05,-2.13497e-06,-5.11032e-06,1.41173e-05,-1.28688e-05,4.17292e-06,3.76762e-06,0
-3.53477e-05,3.53781e-05,3.57053e-07,-1.58765e-06,1.68623e-05,-1.41628e-05,-1.28448e-05,4.24326e-06,0
-3.58103e-05,3.36583e-05,7.9406e-07,1.76763e-06,1.94379e-05,-1.30734e-05,-3.19774e-05,5.01423e-06,0
-3.60174e-05,3.25555e-05,-8.10693e-07,1.12443e-06,1.96272e-05,-1.14352e-05,-4.20039e-05,6.62911e-06,0
-3.64707e-05,3.16241e-05,-2.87881e-06,-2.96129e-06,1.66205e-05,-1.0779e-05,-3.701e-05,8.40623e-06,0
-3.68957e-05,3.04567e-05,-4.08477e-06,-5.94641e-06,1.34591e-05,-9.78274e-06,-2.16482e-05,8.02355e-06,0
-3.75939e-05,3.03748e-05,-3.89225e-06,-8.0992e-06,1.39138e-05,-8.34216e-06,-3.57333e-06,6.44622e-06,0
-3.80623e-05,3.17284e-05,-3.45642e-06,-1.04076e-05,1.6533e-05,-7.71472e-06,1.25235e-05,5.26811e-06,0
-3.77221e-05,3.26393e-05,-3.22899e-06,-8.41948e-06,1.70382e-05,-7.13785e-06,2.58523e-05,5.36658e-06,0
-3.68079e-05,3.05992e-05,-2.86571e-06,-4.75973e-06,1.72759e-05,-4.78444e-06,3.67336e-05,8.95311e-06,0
-3.58278e-05,2.55958e-05,-3.14193e-06,-3.90082e-06,1.84893e-05,-4.0249e-06,4.26073e-05,1.39205e-05,0
-3.45946e-05,2.04324e-05,-4.0467e-06,-4.78999e-06,1.86098e-05,-6.24975e-06,4.18696e-05,1.56488e-05,0
-3.38682e-05,1.64491e-05,-6.5538e-06,-6.14698e-06,1.63733e-05,-8.36143e-06,3.84955e-05,1.35986e-05,0
-3.43286e-05,1.34059e-05,-1.02539e-05,-6.10146e-06,1.34145e-05,-9.41033e-06,3.52487e-05,1.07606e-05,0
-3.37134e-05,1.15463e-05,-1.45588e-05,-6.48427e-06,1.15371e-05,-9.13011e-06,3.24746e-05,9.57878e-06,0
-3.2211e-05,1.02532e-05,-1.5937e-05,-6.94903e-06,1.15431e-05,-8.08854e-06,2.92027e-05,9.72546e-06,0
-3.21919e-05,7.14965e-06,-1.491e-05,-6.01808e-06,1.3513e-05,-8.09214e-06,2.27864e-05,8.40203e-06,0
-3.41633e-05,4.31017e-06,-1.4647e-05,-6.42105e-06,1.44106e-05,-7.95628e-06,1.36785e-05,5.61467e-06,0
-3.59383e-05,5.35603e-06,-1.34157e-05,-7.39206e-06,1.2335e-05,-5.71522e-06,5.11195e-06,4.23329e-06,0
-3.66908e-05,6.48885e-06,-1.26361e-05,-7.42289e-06,9.21675e-06,-2.67214e-06,1.62893e-06,3.45e-06,0
-3.6898e-05,5.76529e-06,-1.1479e-05,-4.38925e-06,6.26084e-06,-1.63873e-06,2.67041e-06,2.06735e-06,0
-3.60847e-05,5.19438e-06,-9.24411e-06,2.83356e-06,3.95318e-06,-3.45421e-06,4.9533e-06,4.48915e-07,0
-3.57051e-05,6.18121e-06,-6.38647e-06,6.78917e-06,2.52846e-06,-6.02729e-06,5.56558e-06,2.17349e-07,0
-3.46492e-05,8.37768e-06,-5.01419e-06,2.45733e-06,1.69788e-06,-7.68697e-06,5.8566e-06,1.16693e-06,0
-3.30865e-05,1.03576e-05,-5.84647e-06,-5.41225e-06,1.14435e-06,-8.21162e-06,7.95062e-06,6.43108e-07,0
-3.31269e-05,1.16361e-05,-7.34685e-06,-1.00319e-05,5.66345e-07,-8.17202e-06,1.01596e-05,-1.32012e-06,0
-3.46693e-05,1.24143e-05,-8.0117e-06,-1.00298e-05,7.42837e-08,-8.71627e-06,1.19935e-05,-2.36251e-06,0
-3.56437e-05,1.28669e-05,-7.32096e-06,-9.56795e-06,1.52444e-07,-1.05109e-05,1.3723e-05,-1.44647e-06,0
-3.54823e-05,1.28738e-05,-6.88031e-06,-1.10472e-05,1.46118e-06,-1.18162e-05,1.51384e-05,2.18495e-08,0
-3.47094e-05,1.25214e-05,-6.63182e-06,-1.30506e-05,3.32364e-06,-1.17108e-05,1.58422e-05,1.48521e-06,0
-3.38787e-05,1.35436e-05,-6.51265e-06,-1.39954e-05,4.30687e-06,-1.1153e-05,1.64149e-05,2.30727e-06,0
-3.37443e-05,1.75656e-05,-6.26804e-06,-1.63388e-05,3.81859e-06,-1.04723e-05,1.53985e-05,2.5725e-06,0
-3.35169e-05,2.18517e-05,-6.8296e-06,-2.24114e-05,4.25734e-06,-1.04786e-05,1.23308e-05,2.04819e-06,0
-3.24752e-05,2.25679e-05,-8.20432e-06,-3.272e-05,6.72199e-06,-1.22093e-05,8.48665e-06,2.87101e-07,0
-3.09624e-05,2.15713e-05,-9.16517e-06,-4.5234e-05,9.22735e-06,-1.45927e-05,7.03028e-06,-9.75826e-07,0
-2.98342e-05,2.4065e-05,-8.56655e-06,-5.17845e-05,1.04408e-05,-1.53046e-05,8.67132e-06,-4.1638e-08,0
-2.96794e-05,2.94487e-05,-7.62496e-06,-4.53921e-05,1.12365e-05,-1.42538e-05,1.01616e-05,3.01837e-07,0
-3.07745e-05,3.31999e-05,-5.56652e-06,-3.31795e-05,1.24448e-05,-1.32285e-05,1.01525e-05,-3.90066e-07,0
-3.15218e-05,3.68455e-05,-2.449e-06,-2.4595e-05,1.48917e-05,-1.20325e-05,9.32226e-06,5.07259e-07,0
-3.14495e-05,4.36894e-05,-1.30973e-06,-2.47054e-05,1.6897e-05,-1.14227e-05,6.52634e-06,2.67371e-06,0
-2.99549e-05,5.06424e-05,-7.6361e-07,-2.72411e-05,1.79533e-05,-1.10511e-05,3.19815e-06,1.42009e-06,0
-2.69129e-05,5.62959e-05,7.31605e-07,-2.2136e-05,2.01671e-05,-1.01001e-05,3.03412e-06,-1.79926e-06,0
-2.44554e-05,5.72536e-05,2.58334e-06,-7.67799e-06,2.2525e-05,-9.62664e-06,4.09634e-06,-3.2495e-06,0
-2.42884e-05,5.06009e-05,3.68245e-06,1.57157e-05,2.33011e-05,-1.01213e-05,3.84667e-06,-5.80965e-06,0
-2.51221e-05,3.88193e-05,2.66309e-06,3.37353e-05,1.97662e-05,-1.10172e-05,3.42512e-06,-8.81982e-06,0
-2.71615e-05,2.39536e-05,1.40779e-06,3.88912e-05,1.53169e-05,-1.12431e-05,4.6102e-06,-8.88195e-06,0
-3.00978e-05,8.6113e-06,1.86188e-06,3.52907e-05,1.34386e-05,-1.00962e-05,5.92976e-06,-6.65569e-06,0
-3.11275e-05,-1.02072e-05,3.68376e-06,2.78131e-05,1.25804e-05,-7.85136e-06,7.48205e-06,-5.12225e-06,0
-2.9859e-05,-3.08516e-05,4.81988e-06,1.91873e-05,1.28887e-05,-7.30621e-06,9.84176e-06,-5.21798e-06,0
-2.80541e-05,-4.63649e-05,3.96114e-06,8.32454e-06,1.39803e-05,-7.82734e-06,1.1003e-05,-5.56024e-06,0
-2.84199e-05,-5.19387e-05,2.4742e-06,-4.34361e-06,1.56314e-05,-7.72036e-06,1.07572e-05,-5.13472e-06,0
-3.02436e-05,-4.85845e-05,1.57608e-06,-1.69444e-05,1.71664e-05,-7.70703e-06,1.07824e-05,-4.08844e-06,0
-3.27589e-05,-4.22696e-05,-4.0705e-07,-2.45081e-05,1.8812e-05,-7.74426e-06,1.13434e-05,-2.25882e-06,0
-3.46699e-05,-3.64343e-05,-3.90724e-06,-2.70241e-05,2.11866e-05,-7.63245e-06,1.25779e-05,2.77509e-09,0
-3.51899e-05,-3.03842e-05,-7.00833e-06,-2.8642e-05,2.35349e-05,-8.201e-06,1.50356e-05,2.75928e-06,0
-3.47944e-05,-2.13544e-05,-9.50432e-06,-3.21838e-05,2.35413e-05,-9.37638e-06,1.74786e-05,5.09677e-06,0
-3.34315e-05,-1.06022e-05,-1.12519e-05,-3.65151e-05,2.06493e-05,-9.7271e-06,1.86201e-05,5.09919e-06,0
-3.12695e-05,-1.22915e-06,-1.20554e-05,-4.08677e-05,1.80436e-05,-8.9528e-06,1.83962e-05,2.54562e-06,0
-2.92739e-05,3.44627e-06,-1.18495e-05,-4.27881e-05,1.75183e-05,-7.68501e-06,1.69266e-05,-2.52264e-07,0
-2.75445e-05,3.76819e-06,-1.16447e-05,-3.92283e-05,1.80423e-05,-6.79714e-06,1.33194e-05,-2.0447e-06,0
-2.67214e-05,2.91858e-06,-1.18802e-05,-2.81041e-05,1.93018e-05,-7.23257e-06,9.03875e-06,-2.5137e-06,0
-2.82555e-05,2.94658e-06,-1.30188e-05,-9.60316e-06,2.02501e-05,-6.68538e-06,7.99094e-06,-2.43715e-06,0
-2.99273e-05,3.01265e-06,-1.45682e-05,9.35759e-06,1.98731e-05,-5.40814e-06,1.09916e-05,-1.87996e-06,0
-3.00596e-05,3.73614e-06,-1.56454e-05,2.24603e-05,1.98849e-05,-4.9675e-06,1.53726e-05,-1.20576e-06,0
-2.88427e-05,5.15204e-06,-1.48438e-05,2.78974e-05,2.16778e-05,-4.04939e-06,1.84823e-05,-1.30148e-06,0
-2.88607e-05,7.7067e-06,-1.30415e-05,2.75974e-05,2.44255e-05,-3.18314e-06,1.94386e-05,-2.05647e-06,0
-2.99698e-05,1.19272e-05,-1.34878e-05,2.44011e-05,2.43481e-05,-3.03154e-06,2.04146e-05,-2.28571e-06,0
-3.03233e-05,1.44429e-05,-1.38258e-05,1.94617e-05,2.17276e-05,-2.79253e-06,2.0284e-05,-1.59159e-06,0
-2.99151e-05,1.36429e-05,-1.27005e-05,1.4649e-05,2.02065e-05,-9.01602e-07,2.01396e-05,-1.13037e-06,0
-2.96197e-05,9.46542e-06,-1.14367e-05,9.49335e-06,1.93559e-05,5.40671e-07,2.03394e-05,-4.97654e-07,0
-3.04459e-05,5.03721e-06,-8.85006e-06,4.45453e-06,1.7629e-05,9.81243e-07,1.86502e-05,5.8731e-07,0
-3.16036e-05,4.14403e-06,-5.27294e-06,3.29799e-06,1.54307e-05,-5.84411e-07,1.6605e-05,2.05453e-06,0
-3.13166e-05,6.81296e-06,-2.748e-06,4.92734e-06,1.50185e-05,-3.73669e-06,1.46045e-05,3.87573e-06,0
-3.0104e-05,8.25787e-06,-4.61365e-06,6.65818e-06,1.64112e-05,-5.29285e-06,1.42268e-05,5.47379e-06,0
-3.00231e-05,7.59686e-06,-9.1084e-06,6.0258e-06,1.70566e-05,-5.18465e-06,1.36081e-05,5.31003e-06,0
-2.99301e-05,7.59305e-06,-1.19813e-05,4.28412e-06,1.57235e-05,-4.65481e-06,1.16047e-05,4.4109e-06,0
-2.98061e-05,8.76725e-06,-1.17887e-05,3.69673e-06,1.3751e-05,-4.56183e-06,9.05305e-06,3.94979e-06,0
-2.98598e-05,9.69628e-06,-1.00345e-05,4.4578e-06,1.2937e-05,-4.35129e-06,9.18697e-06,3.39802e-06,0
-3.01082e-05,9.2539e-06,-8.46689e-06,4.93434e-06,1.33379e-05,-3.65607e-06,1.11652e-05,9.48291e-07,0
-3.06204e-05,9.19095e-06,-7.52965e-06,3.73511e-06,1.4719e-05,-2.71411e-06,1.19353e-05,-2.68519e-06,0
-3.19058e-05,9.64731e-06,-7.33526e-06,2.27241e-06,1.63839e-05,-2.89679e-06,1.20711e-05,-5.24832e-06,0
-3.36475e-05,1.087e-05,-6.54771e-06,7.11588e-07,1.75568e-05,-4.58941e-06,1.06506e-05,-7.53467e-06,0
-3.443e-05,1.36633e-05,-6.1809e-06,-1.97613e-06,1.83479e-05,-7.15968e-06,6.42521e-06,-8.76153e-06,0
-3.34392e-05,1.68265e-05,-6.88934e-06,-4.43666e-06,1.88047e-05,-7.51872e-06,2.77827e-07,-7.99833e-06,0
-3.07069e-05,1.88192e-05,-7.32235e-06,-5.04413e-06,1.85631e-05,-5.23273e-06,-3.60053e-06,-7.02129e-06,0
-2.90925e-05,1.9956e-05,-5.65197e-06,-6.28457e-06,1.85324e-05,-3.27179e-06,-2.72065e-06,-6.31845e-06,0
-2.99496e-05,2.04669e-05,-3.90252e-06,-9.37616e-06,1.83797e-05,-2.46913e-06,3.00688e-06,-3.85321e-06,0
-3.17542e-05,2.00912e-05,-4.86222e-06,-1.09279e-05,1.7562e-05,-3.19828e-06,1.08049e-05,-8.22165e-07,0
-3.26211e-05,1.98438e-05,-6.36184e-06,-9.69547e-06,1.6821e-05,-4.65783e-06,1.75195e-05,3.81917e-07,0
-3.21304e-05,1.97047e-05,-5.23368e-06,-9.62709e-06,1.53803e-05,-5.62787e-06,2.18676e-05,7.36658e-07,0
-3.15657e-05,1.92384e-05,-4.87732e-06,-1.11169e-05,1.29213e-05,-6.42362e-06,2.45633e-05,3.65405e-07,0
-3.19939e-05,2.06817e-05,-7.2461e-06,-1.00117e-05,9.35134e-06,-6.94697e-06,2.47709e-05,-1.02789e-06,0
-3.18393e-05,2.36891e-05,-8.6176e-06,-5.66275e-06,7.02614e-06,-6.98596e-06,2.24022e-05,-1.56825e-06,0
-3.16305e-05,2.80657e-05,-7.73075e-06,-4.82589e-06,9.82796e-06,-6.94066e-06,1.98213e-05,-1.99087e-06,0
-3.14172e-05,3.23804e-05,-7.18828e-06,-6.77347e-06,1.33246e-05,-8.38439e-06,2.00713e-05,-3.06881e-06,0
-3.0251e-05,3.39921e-05,-7.63435e-06,-7.45611e-06,1.42045e-05,-9.98652e-06,2.07054e-05,-3.70103e-06,0
-2.88404e-05,3.51096e-05,-7.49874e-06,-7.37215e-06,1.44067e-05,-1.0499e-05,2.03199e-05,-3.32981e-06,0
-2.68995e-05,3.48221e-05,-7.23644e-06,-5.44806e-06,1.4632e-05,-1.07069e-05,1.96889e-05,-1.45341e-06,0
-2.52133e-05,3.27759e-05,-7.97223e-06,-3.3045e-06,1.44152e-05,-1.00937e-05,1.87471e-05,4.29361e-07,0
-2.43097e-05,3.19964e-05,-9.99446e-06,-2.0048e-06,1.22576e-05,-8.66503e-06,1.77767e-05,1.5676e-06,0
-2.45666e-05,3.38417e-05,-1.23433e-05,-2.26557e-06,1.02138e-05,-8.08605e-06,1.47689e-05,1.76423e-06,0
-2.45973e-05,3.61909e-05,-1.31306e-05,-2.89802e-06,8.80114e-06,-9.93244e-06,1.26314e-05,1.19892e-06,0
-2.4551e-05,3.60532e-05,-1.14907e-05,-3.02009e-06,8.46858e-06,-1.29345e-05,1.27952e-05,1.42676e-07,0
-2.51351e-05,3.39189e-05,-9.40874e-06,-2.77157e-06,9.88055e-06,-1.53697e-05,1.31846e-05,-1.83064e-06,0
-2.53871e-05,3.25564e-05,-8.85534e-06,-2.97789e-06,1.17035e-05,-1.61148e-05,1.25546e-05,-3.80229e-06,0
-2.50439e-05,3.50446e-05,-9.52339e-06,-4.72177e-06,1.177e-05,-1.6316e-05,1.12836e-05,-3.61192e-06,0
-2.41352e-05,4.21827e-05,-9.95406e-06,-8.45817e-06,1.00828e-05,-1.69551e-05,9.8952e-06,-2.04355e-06,0
-2.42731e-05,5.01192e-05,-9.77542e-06,-1.57693e-05,7.18146e-06,-1.69374e-05,9.26561e-06,-2.36388e-06,0
-2.59048e-05,5.38136e-05,-9.20099e-06,-2.73961e-05,4.10555e-06,-1.55818e-05,9.86716e-06,-3.99208e-06,0
-2.82159e-05,5.21055e-05,-9.75928e-06,-3.81935e-05,4.00339e-06,-1.40368e-05,1.07039e-05,-4.06926e-06,0
-2.90491e-05,4.66139e-05,-1.24643e-05,-4.15861e-05,6.53591e-06,-1.36439e-05,1.12032e-05,-2.14676e-06,0
-2.80042e-05,3.83724e-05,-1.65738e-05,-3.88025e-05,7.41047e-06,-1.38603e-05,1.16333e-05,4.505e-07,0
-2.69855e-05,2.77196e-05,-2.01068e-05,-3.66943e-05,3.98132e-06,-1.3441e-05,1.17007e-05,2.5333e-06,0
-2.64785e-05,1.59411e-05,-2.13334e-05,-3.71237e-05,3.24415e-09,-1.23645e-05,1.09514e-05,3.07665e-06,0
-2.57209e-05,5.17121e-06,-2.06397e-05,-3.19381e-05,-1.11722e-06,-1.00651e-05,1.03792e-05,3.14964e-06,0
-2.6007e-05,-3.96538e-06,-1.97754e-05,-1.49924e-05,3.5803e-07,-7.69718e-06,9.78523e-06,3.30237e-06,0
-2.73459e-05,-1.3359e-05,-1.82491e-05,1.03163e-05,8.98397e-07,-7.57417e-06,1.0168e-05,3.74309e-06,0
-2.76817e-05,-2.33814e-05,-1.51251e-05,3.42906e-05,4.79384e-07,-9.02116e-06,1.30962e-05,3.99493e-06,0
-2.77051e-05,-2.85309e-05,-9.28558e-06,4.66104e-05,2.45272e-06,-1.04423e-05,1.57822e-05,4.35046e-06,0
-2.74149e-05,-2.45767e-05,-2.25332e-08,4.78424e-05,8.36902e-06,-1.06783e-05,1.63467e-05,5.2207e-06,0
-2.7577e-05,-1.53038e-05,1.0658e-05,4.59765e-05,1.30838e-05,-1.1022e-05,1.36023e-05,4.01048e-06,0
-2.85371e-05,-7.99085e-06,2.29928e-05,4.16523e-05,1.27563e-05,-1.15212e-05,9.7153e-06,1.59015e-06,0
-2.85187e-05,-5.09434e-06,3.6973e-05,3.7261e-05,1.3468e-05,-1.02309e-05,7.41118e-06,1.39274e-06,0
-2.61866e-05,-4.05757e-06,5.18465e-05,3.32159e-05,1.92828e-05,-9.79633e-06,5.55154e-06,3.82609e-06,0
-2.32184e-05,-3.82541e-06,6.046e-05,2.76352e-05,2.69868e-05,-1.0664e-05,6.27961e-06,6.02391e-06,0
-2.28532e-05,-4.10027e-06,5.18837e-05,1.96093e-05,3.03459e-05,-1.09177e-05,8.01604e-06,6.38e-06,0
-2.45805e-05,-3.49213e-06,2.41244e-05,9.38404e-06,2.88187e-05,-1.15178e-05,8.06079e-06,5.54647e-06,0
-2.67476e-05,-1.11683e-06,-1.6004e-05,-7.10409e-07,2.48797e-05,-1.35123e-05,6.53258e-06,5.56438e-06,0
-2.89519e-05,7.20936e-07,-5.60051e-05,-9.17638e-06,1.93903e-05,-1.66116e-05,6.16023e-06,6.11398e-06,0
-3.06775e-05,1.04982e-06,-8.46078e-05,-1.37521e-05,1.2107e-05,-1.86096e-05,8.38941e-06,6.08831e-06,0
-3.20523e-05,2.50622e-06,-9.68133e-05,-1.45873e-05,4.85542e-06,-1.85489e-05,9.45706e-06,5.98861e-06,0
-3.31916e-05,5.53964e-06,-9.32651e-05,-1.19037e-05,1.46744e-06,-1.83494e-05,9.33913e-06,5.24188e-06,0
-3.40165e-05,8.39621e-06,-7.97236e-05,-7.6244e-06,3.28305e-06,-1.90658e-05,9.65036e-06,4.69492e-06,0
-3.42088e-05,1.0146e-05,-6.43693e-05,-4.10047e-06,7.15185e-06,-1.92204e-05,1.08834e-05,5.56806e-06,0
-3.36161e-05,1.12313e-05,-5.13785e-05,-2.5163e-06,8.82851e-06,-1.78285e-05,1.2258e-05,6.74957e-06,0
-3.30862e-05,1.11449e-05,-4.08041e-05,-3.53462e-06,9.45689e-06,-1.61593e-05,1.31798e-05,6.28425e-06,0
-3.28467e-05,9.73858e-06,-3.10769e-05,-9.04306e-06,1.018e-05,-1.57166e-05,1.40497e-05,4.55769e-06,0
-3.19955e-05,8.55403e-06,-2.23091e-05,-1.57569e-05,1.04671e-05,-1.54455e-05,1.46728e-05,3.28461e-06,0
-3.05927e-05,8.76461e-06,-1.60127e-05,-1.84845e-05,1.0704e-05,-1.44892e-05,1.43787e-05,3.66716e-06,0
-3.01339e-05,8.90438e-06,-1.13561e-05,-1.76083e-05,1.00905e-05,-1.26789e-05,1.42228e-05,5.06484e-06,0
-3.12318e-05,6.84686e-06,-7.03042e-06,-1.85068e-05,8.47784e-06,-1.11445e-05,1.89637e-05,6.11635e-06,0
-3.28969e-05,2.98297e-06,-3.00097e-06,-2.27513e-05,8.44819e-06,-1.08965e-05,3.12976e-05,5.75975e-06,0
-3.42519e-05,1.14906e-06,-3.88192e-07,-2.2942e-05,1.01792e-05,-1.01241e-05,4.5725e-05,4.0268e-06,0
-3.44499e-05,3.14279e-06,-8.50572e-07,-1.3525e-05,1.14335e-05,-8.2507e-06,5.71385e-05,4.4734e-06,0
-3.48615e-05,6.40876e-06,-4.58811e-06,6.28549e-07,1.30831e-05,-8.11412e-06,6.42315e-05,7.04682e-06,0
-3.54008e-05,9.92979e-06,-7.77409e-06,1.08576e-05,1.51838e-05,-9.20727e-06,6.21198e-05,7.21268e-06,0
-3.36302e-05,1.11774e-05,-9.76212e-06,1.70865e-05,1.39892e-05,-1.06197e-05,5.34688e-05,6.23093e-06,0
-3.2684e-05,8.75774e-06,-9.39355e-06,1.93743e-05,1.16947e-05,-1.12725e-05,4.83642e-05,5.40694e-06,0
-3.26713e-05,7.90492e-06,-7.28339e-06,1.6657e-05,1.20721e-05,-1.02895e-05,3.9439e-05,5.45434e-06,0
-3.23627e-05,1.04151e-05,-7.39466e-06,1.13648e-05,1.22255e-05,-9.27903e-06,1.82827e-05,7.0867e-06,0
-3.22087e-05,1.17238e-05,-7.14132e-06,9.3293e-06,1.31589e-05,-8.74551e-06,-4.18785e-06,9.19012e-06,0
-3.10964e-05,1.26944e-05,-5.56324e-06,1.27181e-05,1.53332e-05,-9.44979e-06,-2.12797e-05,1.01035e-05,0
-3.09763e-05,1.36313e-05,-3.23492e-06,1.46493e-05,1.48191e-05,-1.04032e-05,-3.72126e-05,8.04942e-06,0
-3.25176e-05,1.25005e-05,-1.12582e-06,1.20457e-05,1.30348e-05,-1.15141e-05,-5.82759e-05,5.81428e-06,0
-3.3969e-05,1.14778e-05,-1.78703e-07,4.92669e-06,1.44262e-05,-1.1547e-05,-7.71388e-05,5.45774e-06,0
-3.45999e-05,1.19066e-05,-1.01031e-07,-3.15014e-06,1.88582e-05,-1.18456e-05,-8.15828e-05,5.4066e-06,0
-3.50099e-05,1.20917e-05,1.47281e-06,-6.49307e-06,2.20702e-05,-1.21448e-05,-7.00179e-05,4.00524e-06,0
-3.49305e-05,1.05967e-05,3.17408e-06,-6.87398e-06,2.01594e-05,-1.0713e-05,-5.02016e-05,2.9702e-06,0
-3.41856e-05,7.40286e-06,2.001e-06,-1.06957e-05,1.3641e-05,-9.07214e-06,-2.75893e-05,1.44302e-06,0
-3.33196e-05,3.56912e-06,-1.49111e-06,-2.15574e-05,8.67996e-06,-9.13239e-06,-4.01029e-06,-6.16211e-07,0
-3.24754e-05,8.71168e-07,-5.9413e-06,-3.45397e-05,8.44409e-06,-1.13077e-05,1.51369e-05,-1.57593e-06,0
-3.18241e-05,-7.92584e-08,-9.02145e-06,-4.04934e-05,1.03552e-05,-1.33274e-05,2.44512e-05,-1.92073e-06,0
-3.16305e-05,4.70463e-07,-1.08072e-05,-3.79569e-05,1.11718e-05,-1.40667e-05,2.19756e-05,-2.54409e-06,0
-3.19066e-05,2.92886e-06,-1.15137e-05,-3.60379e-05,1.211e-05,-1.34067e-05,1.51118e-05,-3.11801e-06,0
-3.2061e-05,6.75641e-06,-1.1455e-05,-3.76487e-05,1.59468e-05,-1.33201e-05,1.28174e-05,-3.10636e-06,0
-3.32102e-05,8.60141e-06,-1.11591e-05,-3.41471e-05,2.19701e-05,-1.40607e-05,1.95867e-05,-2.15966e-06,0
-3.49563e-05,8.16212e-06,-1.21061e-05,-1.88865e-05,2.65839e-05,-1.39908e-05,3.13028e-05,-3.29024e-07,0
-3.41009e-05,8.75082e-06,-1.31458e-05,6.73197e-06,2.68278e-05,-1.35873e-05,4.17517e-05,1.44732e-06,0
-3.16008e-05,1.07423e-05,-1.25724e-05,3.87744e-05,2.54473e-05,-1.37174e-05,4.90598e-05,2.5024e-06,0
-2.98777e-05,1.20768e-05,-9.95992e-06,7.31363e-05,2.55237e-05,-1.21372e-05,5.37613e-05,1.70198e-06,0
-2.91005e-05,1.19325e-05,-6.65729e-06,9.80626e-05,2.72835e-05,-8.67562e-06,5.67247e-05,5.30462e-07,0
-2.93781e-05,1.04435e-05,-3.66524e-06,9.81142e-05,2.7346e-05,-5.74447e-06,5.79518e-05,-9.38649e-07,0
-3.05618e-05,9.32736e-06,7.57496e-07,6.99705e-05,2.40955e-05,-4.32693e-06,5.37232e-05,-1.51682e-06,0
-3.15244e-05,9.70771e-06,6.3208e-06,2.3464e-05,1.85359e-05,-4.23593e-06,4.61663e-05,-1.63544e-06,0
-3.00025e-05,1.08416e-05,7.73341e-06,-1.68462e-05,1.2063e-05,-6.5628e-06,4.02069e-05,-2.64116e-06,0
-2.7854e-05,1.14447e-05,5.1909e-06,-3.85856e-05,8.54508e-06,-1.02623e-05,3.34772e-05,-1.70821e-06,0
-2.74544e-05,1.0539e-05,2.96501e-06,-5.35359e-05,9.76799e-06,-1.19916e-05,2.60007e-05,2.12788e-07,0
-2.70925e-05,8.59252e-06,1.55549e-06,-6.50732e-05,1.1725e-05,-1.20416e-05,1.7603e-05,-1.81686e-07,0
-2.72346e-05,7.96225e-06,1.81118e-06,-6.48521e-05,1.14119e-05,-1.19981e-05,7.9183e-06,6.88732e-08,0
-2.83601e-05,8.32988e-06,1.61048e-06,-5.21319e-05,1.01658e-05,-1.14688e-05,2.05453e-06,2.35433e-06,0
-2.94487e-05,1.06095e-05,7.69388e-08,-3.79778e-05,1.007e-05,-1.0394e-05,1.1348e-06,4.39613e-06,0
-2.95178e-05,1.42343e-05,-1.92354e-06,-2.9509e-05,1.21541e-05,-8.61258e-06,1.65791e-06,4.58652e-06,0
-2.91682e-05,1.64458e-05,-3.60998e-06,-3.06514e-05,1.35751e-05,-7.08815e-06,1.86152e-06,4.22775e-06,0
-2.94793e-05,1.72595e-05,-5.80006e-06,-4.10005e-05,1.31574e-05,-7.18203e-06,1.39372e-06,4.92707e-06,0
-3.10988e-05,1.67583e-05,-6.90437e-06,-5.57503e-05,1.1178e-05,-7.86156e-06,3.6562e-07,5.12192e-06,0
-3.20467e-05,1.60055e-05,-6.09303e-06,-6.49472e-05,9.35146e-06,-8.85905e-06,-2.90957e-07,3.11693e-06,0
-3.13875e-05,1.48739e-05,-4.45812e-06,-6.17586e-05,8.53902e-06,-9.61227e-06,-6.32651e-07,2.32381e-07,0
-3.12445e-05,1.33193e-05,-3.14319e-06,-4.80574e-05,7.54597e-06,-9.23277e-06,-2.60816e-06,2.99951e-08,0
-3.12012e-05,1.28612e-05,-3.4338e-06,-3.04407e-05,5.33517e-06,-7.97762e-06,-4.68169e-06,2.25071e-06,0
-3.16788e-05,1.51497e-05,-4.44015e-06,-1.37133e-05,3.03755e-06,-7.75522e-06,-4.03301e-06,4.26032e-06,0
-3.24368e-05,1.76017e-05,-4.51879e-06,3.64795e-06,3.76768e-06,-8.52059e-06,1.74169e-07,4.76288e-06,0
-3.22368e-05,1.7749e-05,-3.05648e-06,2.00425e-05,7.29266e-06,-7.8176e-06,5.77407e-06,4.64806e-06,0
-3.1443e-05,1.79695e-05,-1.30637e-06,3.15771e-05,1.30191e-05,-5.48852e-06,1.07628e-05,4.94188e-06,0
-3.10847e-05,1.94591e-05,6.45863e-07,3.62492e-05,2.07432e-05,-3.77477e-06,1.40331e-05,5.01351e-06,0
-3.12727e-05,1.94798e-05,2.12323e-06,3.26639e-05,2.71433e-05,-3.30565e-06,1.58241e-05,3.34365e-06,0
