ch1,ch2,ch3,ch4,ch5,ch6,ch7,ch8,class
-3.05839e-05,1.32464e-05,-6.40857e-06,-2.9972e-05,-1.48996e-06,-1.11691e-05,3.94218e-05,5.85074e-09,0
-2.82419e-05,1.22283e-05,-4.60914e-06,-4.19046e-05,1.70615e-06,-1.24925e-05,4.00638e-05,-1.83176e-06,0
-2.8537e-05,8.16469e-06,-4.10147e-06,-3.84991e-05,6.24374e-06,-1.26594e-05,3.62719e-05,3.76947e-07,0
-3.00778e-05,7.05245e-06,-4.65339e-06,-2.44481e-05,1.35787e-05,-1.11647e-05,2.96932e-05,1.76489e-06,0
-2.86376e-05,1.186e-05,-1.53534e-06,-8.92508e-06,2.24454e-05,-8.6534e-06,1.99474e-05,3.97373e-07,0
-2.77718e-05,1.69085e-05,4.60375e-06,-3.34568e-07,3.03447e-05,-5.99926e-06,8.97632e-06,-1.09879e-06,0
-2.7309e-05,1.84729e-05,8.74143e-06,2.03016e-07,3.45003e-05,-4.91893e-06,-8.26566e-07,-5.89638e-07,0
-2.62262e-05,1.83754e-05,8.67677e-06,-7.01328e-06,3.31731e-05,-4.1509e-06,-8.58269e-06,6.30242e-07,0
-2.62372e-05,2.1999e-05,4.85341e-06,-1.62474e-05,2.83801e-05,-2.89122e-06,-1.35165e-05,1.48229e-06,0
-2.60887e-05,2.91201e-05,2.52652e-07,-2.35933e-05,2.354e-05,-1.1858e-06,-1.59567e-05,1.71763e-06,0
-2.52933e-05,3.43977e-05,-3.0207e-06,-2.95135e-05,2.22659e-05,-5.97817e-07,-1.41478e-05,9.33804e-07,0
-2.53432e-05,3.44591e-05,-3.66005e-06,-3.2308e-05,2.30594e-05,-1.31501e-06,-1.09903e-05,1.17852e-06,0
-2.63721e-05,3.17979e-05,-7.74888e-07,-2.81752e-05,2.22346e-05,-3.32481e-06,-8.82891e-06,2.14089e-06,0
-2.76754e-05,2.9444e-05,3.08316e-06,-1.6283e-05,1.88451e-05,-4.43034e-06,-6.22808e-06,2.81388e-06,0
-2.94221e-05,2.53693e-05,4.01447e-06,-2.46219e-06,1.58673e-05,-2.76274e-06,-2.8605e-06,3.23264e-06,0
-3.23144e-05,1.84791e-05,1.64125e-06,7.20693e-06,1.43828e-05,-1.06279e-06,5.57013e-07,3.0103e-06,0
-3.4953e-05,1.19479e-05,-1.09762e-06,9.4617e-06,1.42087e-05,-1.45706e-06,3.54103e-06,2.1474e-06,0
-3.48375e-05,1.04862e-05,-3.95525e-06,8.00863e-06,1.49389e-05,-3.24951e-06,5.92312e-06,1.94986e-06,0
-3.27145e-05,1.35124e-05,-7.34501e-06,6.57028e-06,1.58328e-05,-5.99006e-06,8.18904e-06,2.99598e-06,0
-3.12324e-05,1.84936e-05,-9.949e-06,3.79474e-06,1.73479e-05,-8.88319e-06,9.88364e-06,4.47927e-06,0
-3.13528e-05,2.34192e-05,-1.0937e-05,4.63249e-07,1.9215e-05,-8.63885e-06,9.92796e-06,4.1586e-06,0
-3.19223e-05,2.66102e-05,-1.11866e-05,2.99324e-06,2.05708e-05,-6.23277e-06,9.1361e-06,1.89804e-06,0
-3.22866e-05,2.65021e-05,-1.06445e-05,1.04159e-05,2.04991e-05,-4.90293e-06,8.33833e-06,8.12647e-07,0
-3.17928e-05,2.49365e-05,-8.95095e-06,1.54747e-05,1.95702e-05,-5.44572e-06,7.54408e-06,1.29436e-06,0
-3.15209e-05,2.31011e-05,-7.54857e-06,1.61762e-05,2.07734e-05,-5.07348e-06,6.02771e-06,1.91921e-06,0
-3.17183e-05,2.11499e-05,-7.30582e-06,1.89862e-05,2.64165e-05,-4.48182e-06,5.22338e-06,2.41672e-06,0
-3.14303e-05,2.02554e-05,-6.11356e-06,2.7594e-05,3.33109e-05,-5.76233e-06,6.52412e-06,2.60015e-06,0
-3.16267e-05,2.29415e-05,-3.49185e-06,3.20525e-05,3.42531e-05,-9.13295e-06,8.23706e-06,1.51726e-06,0
-3.24585e-05,2.56643e-05,-3.2123e-06,2.04178e-05,2.92466e-05,-1.17651e-05,9.04128e-06,-2.77566e-06,0
-3.28706e-05,2.3336e-05,-4.51505e-06,-2.71243e-06,2.59952e-05,-1.15719e-05,9.94731e-06,-5.60991e-06,0
-3.30166e-05,1.94241e-05,-3.99701e-06,-2.07597e-05,2.55174e-05,-1.12055e-05,1.05034e-05,-3.79911e-06,0
-3.35545e-05,1.9596e-05,-4.04617e-06,-2.62872e-05,2.3779e-05,-1.16409e-05,9.7359e-06,-3.02243e-07,0
-3.42307e-05,2.39773e-05,-5.27972e-06,-2.41137e-05,2.16262e-05,-1.05436e-05,7.9876e-06,2.00707e-06,0
-3.38998e-05,2.72263e-05,-6.50831e-06,-2.17153e-05,2.06221e-05,-7.91586e-06,5.9755e-06,1.36007e-06,0
-3.28811e-05,2.88967e-05,-6.42717e-06,-2.17613e-05,1.8304e-05,-6.67891e-06,2.10303e-06,-1.26985e-06,0
-3.28532e-05,2.92218e-05,-5.07602e-06,-2.23915e-05,1.55578e-05,-7.911e-06,-3.68767e-06,-4.10398e-06,0
-3.23607e-05,2.83509e-05,-4.17844e-06,-2.35817e-05,1.24657e-05,-1.06412e-05,-4.90676e-06,-5.13859e-06,0
-3.02794e-05,2.80301e-05,-4.93979e-06,-2.65509e-05,9.86557e-06,-1.23761e-05,-3.21893e-07,-4.85596e-06,0
-2.86976e-05,2.87772e-05,-8.64226e-06,-2.8989e-05,9.10286e-06,-1.20287e-05,7.17576e-06,-4.35611e-06,0
-2.79158e-05,2.90005e-05,-1.23027e-05,-2.72289e-05,9.25294e-06,-1.06173e-05,1.44778e-05,-3.44233e-06,0
-2.69297e-05,2.73248e-05,-1.29683e-05,-2.21998e-05,9.60475e-06,-1.04863e-05,1.9809e-05,-1.73554e-06,0
-2.68283e-05,2.38104e-05,-1.25551e-05,-1.76189e-05,9.66457e-06,-1.14786e-05,2.23933e-05,6.89583e-07,0
-2.82142e-05,1.85327e-05,-1.38901e-05,-1.45909e-05,9.92583e-06,-1.16844e-05,2.36177e-05,3.57035e-06,0
-3.00586e-05,1.27654e-05,-1.51829e-05,-9.90472e-06,1.00499e-05,-1.09281e-05,2.54347e-05,4.6295e-06,0
-3.12711e-05,8.43065e-06,-1.55032e-05,-2.16969e-07,1.1209e-05,-9.71848e-06,2.67552e-05,3.37194e-06,0
-3.14392e-05,6.03319e-06,-1.55933e-05,1.09167e-05,1.3114e-05,-8.24928e-06,2.71467e-05,1.98502e-06,0
-3.11141e-05,5.03781e-06,-1.5621e-05,1.66681e-05,1.32774e-05,-7.99158e-06,2.6432e-05,2.01354e-06,0
-3.14352e-05,4.37968e-06,-1.56393e-05,1.56606e-05,1.13416e-05,-9.56387e-06,2.48115e-05,3.33312e-06,0
-3.26092e-05,3.33365e-06,-1.57326e-05,1.17936e-05,1.02379e-05,-1.0521e-05,2.27113e-05,4.48089e-06,0
-3.39834e-05,1.93431e-06,-1.5644e-05,6.74331e-06,9.62581e-06,-8.83872e-06,2.23724e-05,5.09116e-06,0
-3.42741e-05,-1.23819e-07,-1.5539e-05,2.87735e-06,9.34578e-06,-6.97197e-06,2.31967e-05,4.75308e-06,0
-3.38166e-05,-1.49507e-06,-1.52106e-05,5.51418e-07,1.0628e-05,-7.25182e-06,2.51642e-05,3.45733e-06,0
-3.31396e-05,-1.40259e-06,-1.38768e-05,-4.296e-06,1.26185e-05,-8.5934e-06,2.90192e-05,4.26747e-06,0
-3.21153e-05,1.90813e-07,-1.29296e-05,-1.0682e-05,1.39118e-05,-1.09173e-05,3.1149e-05,7.57123e-06,0
-3.25578e-05,2.93979e-06,-1.26434e-05,-1.26594e-05,1.23078e-05,-1.28768e-05,2.82461e-05,9.51223e-06,0
-3.28709e-05,5.76238e-06,-1.13639e-05,-1.22324e-05,1.05523e-05,-1.34924e-05,2.26421e-05,8.16564e-06,0
-3.07208e-05,8.35503e-06,-1.03946e-05,-1.44639e-05,1.16477e-05,-1.46635e-05,1.85929e-05,5.28125e-06,0
-2.78014e-05,9.9424e-06,-1.0101e-05,-1.87869e-05,1.47143e-05,-1.70081e-05,1.64379e-05,4.25418e-06,0
-2.59849e-05,1.05397e-05,-1.1198e-05,-2.26963e-05,1.73141e-05,-2.01497e-05,1.35847e-05,5.85552e-06,0
-2.56564e-05,1.08928e-05,-1.39766e-05,-2.2025e-05,1.64762e-05,-2.27207e-05,9.32121e-06,7.42107e-06,0
-2.59139e-05,1.08098e-05,-1.56863e-05,-1.73876e-05,1.40096e-05,-2.36019e-05,4.65998e-06,7.48263e-06,0
-2.70372e-05,1.03009e-05,-1.58755e-05,-1.20399e-05,1.21815e-05,-2.26361e-05,8.03148e-07,5.9815e-06,0
-2.87548e-05,1.14206e-05,-1.48405e-05,-7.22881e-06,1.2024e-05,-2.04532e-05,-6.95499e-07,4.86512e-06,0
-2.95631e-05,1.26121e-05,-1.44613e-05,-2.69215e-06,1.16611e-05,-1.84177e-05,1.02627e-06,7.18216e-06,0
-2.94571e-05,1.13255e-05,-1.32039e-05,9.44057e-07,1.10759e-05,-1.72486e-05,3.54566e-06,9.35287e-06,0
-3.01617e-05,8.02712e-06,-1.05931e-05,1.24713e-06,1.28638e-05,-1.72858e-05,4.51801e-06,9.83625e-06,0
-3.17867e-05,6.97023e-06,-8.59466e-06,-2.79025e-06,1.63067e-05,-1.77759e-05,5.15884e-06,7.59686e-06,0
-3.18764e-05,1.37418e-05,-8.20688e-06,-6.56638e-06,1.97919e-05,-1.81036e-05,6.84345e-06,3.62538e-06,0
-3.09193e-05,2.67235e-05,-7.9897e-06,-7.80191e-06,2.12635e-05,-1.90781e-05,8.88088e-06,1.38334e-06,0
-3.02603e-05,4.07278e-05,-7.04827e-06,-9.20051e-06,2.05107e-05,-2.11172e-05,1.05872e-05,2.82181e-07,0
-2.9774e-05,5.14286e-05,-6.34225e-06,-1.12452e-05,1.85178e-05,-2.27192e-05,1.21627e-05,-1.49402e-06,0
-2.89414e-05,5.41315e-05,-6.70255e-06,-1.17782e-05,1.73341e-05,-2.32246e-05,1.27389e-05,-2.93025e-06,0
-2.7724e-05,4.47096e-05,-8.25856e-06,-9.64562e-06,1.72352e-05,-2.40131e-05,1.31839e-05,-2.0365e-06,0
-2.57423e-05,2.59985e-05,-9.87016e-06,-5.96667e-06,1.86037e-05,-2.48333e-05,1.43005e-05,-1.19161e-06,0
-2.28559e-05,6.32844e-06,-1.07216e-05,-1.27466e-06,2.13578e-05,-2.38711e-05,1.33563e-05,-1.55317e-06,0
-2.06008e-05,-9.3921e-06,-9.19102e-06,4.08432e-06,2.36131e-05,-2.22746e-05,4.63445e-06,-2.44149e-06,0
-2.12979e-05,-2.12845e-05,-5.40808e-06,1.05503e-05,2.38339e-05,-2.01295e-05,-1.21568e-05,-3.58876e-06,0
-2.45668e-05,-2.76559e-05,-1.73656e-06,1.63127e-05,2.22435e-05,-1.65843e-05,-2.73437e-05,-4.89905e-06,0
-2.70241e-05,-2.65457e-05,-4.60519e-09,1.83548e-05,1.93718e-05,-1.3938e-05,-3.02929e-05,-4.18409e-06,0
-2.71719e-05,-1.83669e-05,1.65226e-06,1.544e-05,1.64852e-05,-1.25946e-05,-1.98536e-05,-1.04659e-06,0
-2.69063e-05,-7.79747e-06,3.19498e-06,1.05215e-05,1.46327e-05,-1.12419e-05,-4.85819e-06,2.30419e-06,0
-2.83442e-05,1.46162e-07,4.3019e-06,8.47718e-06,1.37285e-05,-1.01272e-05,1.04071e-05,2.96949e-06,0
-2.9876e-05,4.81899e-06,4.15785e-06,7.57038e-06,1.32641e-05,-9.36549e-06,2.46513e-05,1.43985e-06,0
-3.03756e-05,6.36997e-06,2.28555e-06,2.43395e-06,1.09564e-05,-9.15696e-06,3.43954e-05,1.40749e-06,0
-2.86637e-05,7.0719e-06,3.2323e-07,-4.7451e-06,8.45861e-06,-1.05033e-05,4.09568e-05,2.45902e-06,0
-2.73124e-05,8.66154e-06,-1.81868e-07,-9.0205e-06,6.24505e-06,-1.30348e-05,4.27315e-05,2.13388e-06,0
-2.93866e-05,1.1729e-05,-3.47556e-07,-8.79717e-06,3.33708e-06,-1.37064e-05,4.18237e-05,1.31309e-06,0
-3.11004e-05,1.47487e-05,-9.98733e-07,-5.80609e-06,1.13416e-06,-1.12521e-05,4.13247e-05,-1.06348e-06,0
-3.06526e-05,1.628e-05,-1.87252e-06,-3.06848e-06,8.45768e-07,-9.10654e-06,4.1382e-05,-3.60406e-06,0
-3.02573e-05,1.62491e-05,-3.6867e-06,3.88627e-07,3.57164e-06,-8.17099e-06,4.06306e-05,-3.18859e-06,0
-3.09754e-05,1.55316e-05,-5.11501e-06,3.98052e-06,7.34135e-06,-6.94359e-06,3.80951e-05,-1.38368e-06,0
-3.17338e-05,1.61509e-05,-5.5522e-06,5.54136e-06,9.09963e-06,-5.83463e-06,3.55462e-05,-5.39822e-07,0
-3.26396e-05,1.73035e-05,-5.84916e-06,6.45808e-06,8.81321e-06,-5.38013e-06,3.19123e-05,-1.12431e-06,0
-3.35442e-05,1.71598e-05,-6.99173e-06,6.82922e-06,7.85843e-06,-6.11249e-06,2.69462e-05,-1.93562e-06,0
-3.34034e-05,1.67626e-05,-8.79128e-06,5.11897e-06,6.79622e-06,-7.92257e-06,2.24257e-05,-3.18261e-06,0
-3.30153e-05,1.78685e-05,-1.05225e-05,1.39928e-06,6.74296e-06,-8.88571e-06,1.95872e-05,-4.25081e-06,0
-3.34862e-05,2.01587e-05,-1.11033e-05,-3.87279e-06,8.8529e-06,-8.6564e-06,1.81599e-05,-5.02104e-06,0
-3.34806e-05,2.28884e-05,-1.03835e-05,-1.10355e-05,1.21401e-05,-7.80613e-06,1.7878e-05,-5.15994e-06,0
-3.30721e-05,2.64646e-05,-9.39176e-06,-1.90287e-05,1.45121e-05,-6.36498e-06,1.68533e-05,-4.41553e-06,0
-3.33092e-05,3.04684e-05,-1.01352e-05,-2.39096e-05,1.58972e-05,-5.07525e-06,1.45912e-05,-3.60536e-06,0
-3.27164e-05,3.22626e-05,-1.24482e-05,-2.29275e-05,1.81914e-05,-4.88801e-06,1.13416e-05,-3.22498e-06,0
-3.09795e-05,3.04356e-05,-1.46772e-05,-1.67784e-05,2.08682e-05,-5.36738e-06,4.84357e-06,-3.66551e-06,0
-3.05057e-05,2.72612e-05,-1.55021e-05,-9.66905e-06,2.20536e-05,-6.03189e-06,-7.68231e-06,-4.69634e-06,0
-3.08547e-05,2.67718e-05,-1.46733e-05,-4.58126e-06,2.09211e-05,-7.13751e-06,-2.08232e-05,-4.75515e-06,0
-3.03664e-05,2.94432e-05,-1.27935e-05,-9.88535e-07,1.82701e-05,-7.36373e-06,-2.75204e-05,-4.09563e-06,0
-2.9992e-05,3.03118e-05,-1.12443e-05,2.01799e-06,1.54607e-05,-7.86646e-06,-2.43808e-05,-4.01555e-06,0
-2.93036e-05,2.76306e-05,-1.07731e-05,1.94962e-06,1.41544e-05,-9.12672e-06,-1.11005e-05,-5.85745e-06,0
-2.89765e-05,2.4907e-05,-8.63841e-06,-1.21246e-06,1.37574e-05,-9.02025e-06,5.6393e-06,-7.8357e-06,0
-2.93608e-05,2.23024e-05,-5.43191e-06,-5.036e-06,1.26517e-05,-7.97574e-06,2.16181e-05,-8.20262e-06,0
-2.83314e-05,2.06794e-05,-5.01641e-06,-8.04427e-06,1.38472e-05,-6.37073e-06,3.29949e-05,-5.61279e-06,0
-2.72069e-05,1.91489e-05,-5.35341e-06,-1.00522e-05,1.73314e-05,-5.34161e-06,3.71801e-05,-7.22794e-07,0
-2.71152e-05,1.64212e-05,-4.11366e-06,-1.22699e-05,2.0622e-05,-6.04697e-06,3.64807e-05,1.93066e-06,0
-2.7905e-05,1.3176e-05,-2.52024e-06,-1.42662e-05,2.29071e-05,-6.13825e-06,3.19159e-05,1.61071e-06,0
-2.987e-05,8.32784e-06,-1.77061e-06,-1.64579e-05,2.4712e-05,-5.09531e-06,2.75715e-05,5.7943e-10,0
-3.08562e-05,3.47541e-06,-3.10052e-06,-1.82722e-05,2.54856e-05,-5.37611e-06,2.38538e-05,-1.86222e-08,0
-3.0852e-05,-1.18436e-06,-4.57929e-06,-1.90679e-05,2.52356e-05,-7.93385e-06,2.16801e-05,1.02421e-06,0
-3.16633e-05,-5.11406e-06,-5.14863e-06,-1.6306e-05,2.61974e-05,-9.16154e-06,2.05209e-05,2.31942e-06,0
-3.32103e-05,-7.51995e-06,-5.11305e-06,-1.16942e-05,2.68771e-05,-8.89054e-06,1.79287e-05,2.34998e-06,0
-3.37298e-05,-6.69661e-06,-4.93678e-06,-8.086e-06,2.58207e-05,-9.30213e-06,1.51641e-05,-1.24614e-07,0
-3.33292e-05,-2.51425e-06,-5.20271e-06,-5.25084e-06,2.30006e-05,-8.72328e-06,1.2295e-05,-2.84374e-06,0
-3.2293e-05,1.14265e-06,-5.98897e-06,-4.14461e-06,2.03973e-05,-7.4415e-06,1.05003e-05,-3.56952e-06,0
-3.07644e-05,4.42207e-06,-6.13086e-06,-4.5093e-06,1.91729e-05,-6.02158e-06,9.07774e-06,-2.81971e-06,0
-2.92228e-05,1.5036e-05,-5.40855e-06,-4.73668e-06,1.94144e-05,-3.32288e-06,8.05674e-06,-1.91525e-06,0
-2.79334e-05,3.507e-05,-6.06271e-06,-4.30947e-06,2.00086e-05,-2.39654e-07,7.83354e-06,-1.42229e-06,0
-2.73037e-05,5.28274e-05,-8.2363e-06,-4.63987e-06,1.98791e-05,1.60144e-07,7.60373e-06,-2.20932e-06,0
-2.71977e-05,5.93275e-05,-9.76649e-06,-4.54881e-06,2.00574e-05,-1.88153e-06,6.38379e-06,-2.47756e-06,0
-2.68253e-05,5.48325e-05,-9.34349e-06,-3.38926e-06,2.0117e-05,-2.8777e-06,4.70853e-06,-9.77824e-07,0
-2.59058e-05,4.37791e-05,-8.7573e-06,-1.77289e-06,1.95389e-05,-1.56984e-06,2.98337e-06,5.58911e-07,0
-2.58689e-05,3.06327e-05,-9.64053e-06,-1.26614e-06,1.87583e-05,2.94199e-07,2.8101e-06,4.77486e-07,0
-2.7025e-05,1.75704e-05,-1.19051e-05,-1.85444e-06,1.76034e-05,1.26365e-06,3.87188e-06,-6.98094e-07,0
-2.81154e-05,3.08541e-06,-1.41506e-05,-2.9025e-06,1.52612e-05,8.84085e-07,3.87725e-06,-9.7359e-07,0
-2.84216e-05,-1.47384e-05,-1.46964e-05,-3.73965e-06,1.29555e-05,-4.92819e-07,2.99976e-06,-2.15391e-07,0
-2.93471e-05,-3.39401e-05,-1.44082e-05,-3.05337e-06,1.21114e-05,-3.71696e-06,1.70131e-06,-1.2425e-06,0
-3.00299e-05,-4.92805e-05,-1.33936e-05,-5.11778e-07,1.3623e-05,-8.16979e-06,-2.64676e-07,-1.29887e-06,0
-3.02024e-05,-5.58319e-05,-1.13704e-05,2.04316e-06,1.41783e-05,-1.08078e-05,-1.44509e-06,7.12996e-07,0
-3.10455e-05,-4.91168e-05,-1.03182e-05,1.20047e-06,1.44219e-05,-1.07212e-05,2.21648e-07,2.30896e-06,0
-3.25395e-05,-3.37022e-05,-9.78689e-06,-2.86965e-06,1.50416e-05,-1.07196e-05,3.3906e-06,3.07912e-06,0
-3.30883e-05,-2.0533e-05,-8.81913e-06,-5.16154e-06,1.24159e-05,-1.16816e-05,4.97851e-06,3.46635e-06,0
-3.18045e-05,-1.24145e-05,-8.20306e-06,-5.35789e-06,1.00098e-05,-1.23539e-05,6.71801e-06,3.57696e-06,0
-3.05443e-05,-7.08119e-06,-7.1051e-06,-5.17937e-06,9.1333e-06,-1.19819e-05,8.80709e-06,2.06101e-06,0
-3.12802e-05,-3.61439e-06,-4.57254e-06,-3.82981e-06,1.05158e-05,-9.41027e-06,6.26121e-06,2.38743e-06,0
-3.14148e-05,-2.70588e-06,-2.1727e-06,-3.09347e-06,1.18694e-05,-8.20991e-06,2.50095e-07,3.76306e-06,0
-2.98929e-05,-1.27338e-06,-1.34246e-06,-3.3212e-06,1.12952e-05,-1.11495e-05,-1.74335e-06,3.87861e-06,0
-2.94838e-05,9.55109e-07,-2.64593e-06,-5.40249e-06,1.14123e-05,-1.69861e-05,2.10705e-06,3.89216e-06,0
-2.97193e-05,2.95893e-06,-3.67508e-06,-7.73042e-06,1.12924e-05,-2.50036e-05,6.97532e-06,4.19716e-06,0
-2.88619e-05,4.78992e-06,-3.6592e-06,-8.55722e-06,1.08179e-05,-2.95933e-05,8.51058e-06,4.15052e-06,0
-2.74752e-05,6.24858e-06,-3.95648e-06,-1.05137e-05,1.12077e-05,-1.84606e-05,8.49269e-06,4.20014e-06,0
-2.73064e-05,6.93889e-06,-4.87358e-06,-1.53568e-05,1.24794e-05,6.35629e-06,1.05519e-05,5.68608e-06,0
-2.75447e-05,5.89796e-06,-6.34706e-06,-1.8545e-05,1.31391e-05,2.42693e-05,1.34996e-05,5.86663e-06,0
-2.76768e-05,5.11933e-06,-7.72632e-06,-1.63027e-05,1.33432e-05,2.13025e-05,1.54552e-05,5.01778e-06,0
-2.7004e-05,7.37678e-06,-8.66281e-06,-1.1599e-05,1.27427e-05,5.70456e-06,1.59056e-05,5.38262e-06,0
-2.59308e-05,1.35888e-05,-8.73229e-06,-7.14792e-06,1.06048e-05,-6.72386e-06,1.61481e-05,7.51301e-06,0
-2.53152e-05,2.02365e-05,-7.20096e-06,-1.94519e-06,7.82754e-06,-1.14509e-05,1.66471e-05,1.01667e-05,0
-2.64313e-05,2.39679e-05,-3.4539e-06,2.80166e-06,6.08419e-06,-1.21782e-05,1.70994e-05,1.08643e-05,0
-2.8469e-05,2.54495e-05,-9.32168e-08,3.4e-06,5.18119e-06,-1.14063e-05,1.63498e-05,9.58678e-06,0
-2.90331e-05,2.72387e-05,1.40236e-07,-8.27276e-08,3.69041e-06,-9.8366e-06,1.50595e-05,8.6272e-06,0
-2.85723e-05,2.84993e-05,-2.29693e-06,-5.01869e-06,1.57175e-06,-9.38962e-06,1.3859e-05,8.03135e-06,0
-2.89918e-05,2.76169e-05,-5.18981e-06,-7.52522e-06,-5.22945e-07,-1.01236e-05,1.30682e-05,6.68382e-06,0
-2.97276e-05,2.51873e-05,-7.87146e-06,-7.45666e-06,-2.39887e-06,-1.08308e-05,1.29006e-05,5.07568e-06,0
-2.96085e-05,2.23988e-05,-1.02127e-05,-6.70721e-06,-2.86467e-06,-9.43789e-06,1.37418e-05,5.0644e-06,0
-3.02228e-05,2.04479e-05,-1.36919e-05,-6.87307e-06,-2.00564e-06,-7.00099e-06,1.519e-05,5.62969e-06,0
-2.99117e-05,1.88584e-05,-1.66626e-05,-7.0398e-06,-1.12877e-06,-6.18839e-06,1.54897e-05,3.53596e-06,0
-2.70886e-05,1.66763e-05,-1.70178e-05,-7.4634e-07,-6.34451e-07,-7.32109e-06,1.44499e-05,5.85748e-07,0
-2.59694e-05,1.42871e-05,-1.62464e-05,8.87813e-06,-4.29589e-08,-8.26591e-06,1.20122e-05,6.60242e-07,0
-2.85233e-05,1.14645e-05,-1.61599e-05,1.1911e-05,1.57048e-06,-7.1573e-06,1.17159e-05,3.9152e-06,0
-2.97331e-05,1.04379e-05,-1.64907e-05,9.46425e-06,1.4618e-06,-6.02749e-06,1.51317e-05,6.23231e-06,0
-2.77524e-05,1.35161e-05,-1.44172e-05,6.27798e-06,1.13454e-06,-5.63038e-06,2.29369e-05,6.57486e-06,0
-2.6277e-05,1.70004e-05,-1.11291e-05,4.07069e-06,2.2621e-06,-5.2915e-06,3.78068e-05,5.85803e-06,0
-2.72147e-05,1.68923e-05,-9.70802e-06,1.54546e-06,2.08733e-06,-4.76889e-06,5.26234e-05,5.46435e-06,0
-2.89697e-05,1.53112e-05,-9.19921e-06,-1.09039e-06,1.18927e-06,-4.89428e-06,6.10839e-05,5.39759e-06,0
-3.05512e-05,1.57514e-05,-9.20803e-06,-2.13929e-06,4.34483e-07,-5.85458e-06,6.34179e-05,5.42217e-06,0
-3.14325e-05,1.57677e-05,-1.03872e-05,-2.37301e-06,2.38189e-07,-7.66217e-06,5.91549e-05,5.05698e-06,0
-3.20741e-05,1.24574e-05,-1.08902e-05,-2.41672e-06,1.13537e-06,-1.07186e-05,4.72815e-05,2.96414e-06,0
-3.30608e-05,7.14609e-06,-1.08433e-05,-4.80527e-06,2.42875e-06,-1.21814e-05,2.82355e-05,1.21627e-06,0
-3.36586e-05,3.90183e-06,-1.08832e-05,-1.15115e-05,3.71037e-06,-1.19964e-05,7.2228e-06,2.16903e-08,0
-3.30833e-05,3.99845e-06,-1.18634e-05,-1.87154e-05,5.37581e-06,-1.18594e-05,-1.22355e-05,-1.41052e-06,0
-3.25268e-05,4.71433e-06,-1.39531e-05,-2.0961e-05,7.188e-06,-1.15411e-05,-2.82687e-05,-2.99323e-06,0
-3.26051e-05,4.37755e-06,-1.56829e-05,-1.78565e-05,8.49897e-06,-1.12693e-05,-3.62693e-05,-3.46903e-06,0
-3.12933e-05,3.24301e-06,-1.50861e-05,-1.22617e-05,8.89184e-06,-1.11134e-05,-3.34339e-05,-3.24096e-06,0
-2.90967e-05,1.34557e-06,-1.24533e-05,-8.47624e-06,8.082e-06,-1.04901e-05,-2.41948e-05,-2.49124e-06,0
-2.96363e-05,5.2401e-07,-9.61404e-06,-8.21633e-06,6.82734e-06,-9.0075e-06,-1.43028e-05,-1.07949e-06,0
-3.29367e-05,2.95668e-06,-7.42187e-06,-8.16939e-06,6.75264e-06,-7.38973e-06,-5.78681e-06,-6.49772e-07,0
-3.47944e-05,9.11137e-06,-6.7576e-06,-6.12376e-06,7.79424e-06,-5.84402e-06,1.27461e-06,-1.33664e-06,0
-3.43769e-05,1.66587e-05,-7.57259e-06,-3.68203e-06,7.27671e-06,-4.82499e-06,7.02697e-06,-2.06778e-06,0
-3.27192e-05,2.20776e-05,-8.13385e-06,-4.68046e-06,6.11371e-06,-5.1983e-06,1.21705e-05,-1.74563e-06,0
-3.01494e-05,2.37983e-05,-7.46442e-06,-1.14831e-05,7.3025e-06,-6.59876e-06,1.7065e-05,-6.18103e-07,0
-2.84941e-05,2.15428e-05,-6.24479e-06,-2.14113e-05,9.7124e-06,-6.80212e-06,2.18168e-05,5.86473e-07,0
-2.83777e-05,1.61245e-05,-5.20978e-06,-3.14886e-05,1.26547e-05,-5.15919e-06,2.46351e-05,2.31171e-06,0
-2.79148e-05,8.65492e-06,-4.60261e-06,-3.9224e-05,1.46309e-05,-3.74353e-06,2.30724e-05,4.91638e-06,0
-2.86367e-05,3.30201e-06,-4.74801e-06,-3.99545e-05,1.34913e-05,-4.19704e-06,1.69991e-05,8.16567e-06,0
-3.15611e-05,8.22548e-07,-3.515e-06,-3.00931e-05,1.35972e-05,-6.73585e-06,9.47825e-06,9.01138e-06,0
-3.39853e-05,-1.68802e-06,-7.98571e-07,-1.23607e-05,1.61997e-05,-7.6262e-06,3.15915e-06,6.72645e-06,0
-3.49005e-05,-3.23096e-06,-8.0683e-07,8.03873e-06,1.90665e-05,-5.84892e-06,-4.90002e-07,5.17114e-06,0
-3.41961e-05,-1.00528e-06,-2.40003e-06,2.50679e-05,2.09792e-05,-5.0194e-06,-1.04729e-06,2.93222e-06,0
-3.31283e-05,4.8836e-06,-4.05481e-06,3.41698e-05,2.03155e-05,-6.076e-06,-7.74743e-07,7.42834e-07,0
-3.34479e-05,1.11598e-05,-5.57146e-06,3.60644e-05,1.78892e-05,-7.5173e-06,8.57458e-07,-1.83025e-07,0
-3.3163e-05,1.61192e-05,-6.58956e-06,3.43655e-05,1.53903e-05,-7.77654e-06,2.20993e-06,-3.75882e-07,0
-3.18864e-05,1.92763e-05,-6.71558e-06,3.35496e-05,1.62221e-05,-7.92401e-06,2.11454e-06,9.14268e-09,0
-3.01835e-05,2.11557e-05,-5.22764e-06,3.3571e-05,1.91456e-05,-7.69116e-06,1.19786e-06,4.00832e-07,0
-2.89777e-05,2.16143e-05,-2.34058e-06,3.15158e-05,2.09218e-05,-7.11037e-06,1.23047e-06,7.39475e-07,0
-2.92201e-05,1.92266e-05,1.13091e-07,2.34308e-05,2.15766e-05,-6.63401e-06,3.2925e-06,-6.91501e-07,0
-3.01446e-05,1.53827e-05,4.32086e-07,1.12152e-05,2.09723e-05,-7.29019e-06,6.27121e-06,-2.8957e-06,0
-3.07401e-05,1.18254e-05,-1.0379e-06,8.27119e-07,1.94944e-05,-8.6022e-06,8.39025e-06,-4.55783e-06,0
-3.06923e-05,1.01593e-05,-3.3653e-06,-4.90988e-06,1.87267e-05,-8.43485e-06,9.26136e-06,-4.30246e-06,0
-3.09828e-05,1.10096e-05,-4.28824e-06,-7.31096e-06,1.80998e-05,-7.62806e-06,1.25649e-05,-2.68994e-06,0
-3.08397e-05,1.30753e-05,-2.71181e-06,-7.89425e-06,1.63241e-05,-8.76546e-06,1.94803e-05,-1.64433e-06,0
-2.91324e-05,1.51632e-05,-2.9442e-07,-7.15797e-06,1.4801e-05,-1.23971e-05,2.89008e-05,-1.54679e-06,0
-2.7469e-05,1.66646e-05,-1.181e-07,-7.28299e-06,1.57e-05,-1.53e-05,3.7128e-05,-1.50224e-06,0
-2.87673e-05,1.70372e-05,-2.25211e-06,-8.48544e-06,1.85044e-05,-1.62997e-05,4.03355e-05,-8.4564e-07,0
-3.05765e-05,1.65574e-05,-4.54781e-06,-9.39338e-06,2.03118e-05,-1.64421e-05,3.8695e-05,-2.46466e-07,0
-3.02585e-05,1.6185e-05,-6.1942e-06,-9.93971e-06,2.05486e-05,-1.72641e-05,3.53793e-05,-5.84089e-07,0
-2.89348e-05,1.54615e-05,-6.63784e-06,-1.04683e-05,1.98002e-05,-1.8524e-05,2.98678e-05,-2.15296e-06,0
-2.72662e-05,1.43497e-05,-5.13886e-06,-9.38286e-06,1.86278e-05,-2.03236e-05,2.10186e-05,-3.94468e-06,0
-2.7219e-05,1.4045e-05,-4.21812e-06,-5.02781e-06,1.84919e-05,-2.18969e-05,1.06664e-05,-5.22657e-06,0
-2.95725e-05,1.56967e-05,-5.08695e-06,1.56537e-07,1.85794e-05,-2.1705e-05,1.48608e-06,-3.6031e-06,0
-3.10176e-05,1.80792e-05,-6.92986e-06,3.75988e-06,1.62937e-05,-1.89346e-05,-3.84698e-06,1.30052e-06,0
-3.16222e-05,2.07929e-05,-9.90939e-06,7.54693e-06,1.32016e-05,-1.53511e-05,-6.2546e-06,3.11162e-06,0
-3.19407e-05,2.30151e-05,-1.06359e-05,7.91026e-06,1.2967e-05,-1.38538e-05,-6.34817e-06,-1.03829e-06,0
-3.09568e-05,2.21987e-05,-9.33437e-06,5.50254e-06,1.37298e-05,-1.52595e-05,-4.08096e-06,-4.60195e-06,0
-2.93975e-05,1.96708e-05,-8.98607e-06,2.46375e-06,1.12872e-05,-1.71376e-05,-6.02643e-07,-3.89348e-06,0
-2.84641e-05,1.92306e-05,-1.04967e-05,-1.99269e-06,9.85814e-06,-1.65514e-05,2.94498e-06,-2.20816e-06,0
-2.81655e-05,2.15054e-05,-1.41675e-05,-6.97401e-06,1.02655e-05,-1.63177e-05,6.28167e-06,-2.47152e-06,0
-2.90459e-05,2.35243e-05,-1.79877e-05,-1.17459e-05,8.66465e-06,-1.70591e-05,9.80234e-06,-4.14147e-06,0
-3.11884e-05,2.36131e-05,-2.14896e-05,-1.11365e-05,7.0766e-06,-1.63747e-05,1.31763e-05,-4.84845e-06,0
-3.27658e-05,2.28932e-05,-2.38082e-05,-6.89286e-06,7.8728e-06,-1.35734e-05,1.62541e-05,-3.58699e-06,0
-3.34671e-05,2.212e-05,-2.51548e-05,-6.70309e-06,1.05593e-05,-1.06015e-05,1.94686e-05,-2.05764e-06,0
-3.31832e-05,2.04067e-05,-2.60695e-05,-1.25174e-05,1.40206e-05,-9.99707e-06,2.016e-05,-1.44213e-06,0
-3.3413e-05,1.77353e-05,-2.66504e-05,-1.74163e-05,1.95013e-05,-1.16407e-05,1.75437e-05,-9.88033e-07,0
-3.32026e-05,1.57176e-05,-2.72115e-05,-1.58421e-05,2.63849e-05,-1.35504e-05,1.41712e-05,-8.49261e-07,0
-3.19934e-05,1.47157e-05,-2.73259e-05,-9.39069e-06,3.25326e-05,-1.42532e-05,9.7908e-06,-8.36495e-07,0
-3.11764e-05,1.46691e-05,-2.69299e-05,1.75404e-06,3.57005e-05,-1.41474e-05,3.79397e-06,-5.0738e-07,0
-3.10939e-05,1.6019e-05,-2.53353e-05,2.2123e-05,3.52517e-05,-1.39302e-05,-9.35662e-07,3.97331e-07,0
-3.0788e-05,1.6198e-05,-2.28638e-05,4.4913e-05,3.37549e-05,-1.4266e-05,-3.2771e-06,1.54863e-06,0
-2.92712e-05,1.63268e-05,-1.92632e-05,5.01876e-05,3.14284e-05,-1.56988e-05,-5.27594e-06,1.99759e-06,0
-2.7244e-05,1.92597e-05,-1.47787e-05,3.22424e-05,2.63751e-05,-1.74976e-05,-5.42744e-06,9.47281e-07,0
-2.57092e-05,2.12461e-05,-1.07471e-05,4.5046e-06,1.9768e-05,-1.76477e-05,-8.96373e-07,-1.06226e-06,0
-2.57927e-05,1.85259e-05,-8.74034e-06,-1.84911e-05,1.53363e-05,-1.74453e-05,6.66233e-06,-2.87671e-06,0
-2.70248e-05,1.30605e-05,-8.98862e-06,-3.32392e-05,1.4024e-05,-1.8088e-05,1.38829e-05,-3.04594e-06,0
-2.78718e-05,9.90346e-06,-9.907e-06,-4.45988e-05,1.27203e-05,-1.70902e-05,2.06796e-05,-1.71796e-06,0
-2.86174e-05,1.05109e-05,-9.12765e-06,-5.40704e-05,1.05823e-05,-1.42195e-05,2.62787e-05,-1.59764e-06,0
-2.92847e-05,1.11856e-05,-7.31521e-06,-5.64084e-05,9.07963e-06,-1.26114e-05,2.94142e-05,-2.41073e-06,0
-2.95356e-05,1.02992e-05,-6.3798e-06,-4.69469e-05,7.16432e-06,-1.33092e-05,3.03174e-05,-2.53042e-06,0
-3.07347e-05,9.29981e-06,-4.58929e-06,-3.09353e-05,4.42673e-06,-1.50116e-05,2.89451e-05,-1.46896e-06,0
-2.9778e-05,7.66945e-06,-1.1537e-06,-1.77212e-05,3.46019e-06,-1.5482e-05,2.63179e-05,1.30039e-07,0
-2.73376e-05,6.89837e-06,7.38809e-07,-1.23076e-05,5.28912e-06,-1.3272e-05,2.41965e-05,-1.6155e-07,0
-2.80363e-05,8.06141e-06,8.52509e-07,-7.54815e-06,7.85837e-06,-1.24701e-05,2.27778e-05,1.98819e-08,0
-2.95194e-05,8.03559e-06,4.7034e-07,3.48738e-06,8.94699e-06,-1.27128e-05,2.20113e-05,2.87019e-06,0
-2.9133e-05,7.80087e-06,4.43146e-08,8.62349e-06,8.71295e-06,-1.02751e-05,2.3883e-05,3.8005e-06,0
-2.93389e-05,7.96465e-06,-5.38687e-07,8.38525e-08,9.74032e-06,-6.82717e-06,2.51415e-05,2.48415e-06,0
-2.98505e-05,6.86815e-06,-9.30431e-07,-1.53626e-05,1.20858e-05,-4.04942e-06,2.27184e-05,7.61316e-07,0
-2.88929e-05,5.20583e-06,-1.57457e-07,-2.66709e-05,1.39013e-05,-1.67373e-06,1.99113e-05,-1.97364e-07,0
-2.87332e-05,4.65339e-06,9.40232e-07,-3.00253e-05,1.59353e-05,2.24222e-09,1.6782e-05,-7.10914e-07,0
-2.97074e-05,5.48791e-06,1.66615e-06,-2.65035e-05,1.7566e-05,-4.91584e-07,1.39591e-05,-2.21948e-07,0
-3.07617e-05,4.73625e-06,1.3776e-06,-1.92713e-05,1.76128e-05,-3.0488e-06,1.31993e-05,-2.7831e-07,0
-3.08039e-05,2.76265e-06,8.69337e-07,-9.87215e-06,1.56449e-05,-4.88397e-06,1.44627e-05,-1.67755e-06,0
-3.00085e-05,1.47327e-06,-4.27142e-07,2.14603e-06,1.24728e-05,-5.03593e-06,1.71088e-05,-5.88635e-07,0
-2.91027e-05,2.92564e-07,-4.19257e-06,1.65529e-05,1.00377e-05,-6.01572e-06,1.97374e-05,3.23467e-06,0
-2.92201e-05,-3.17132e-07,-1.0448e-05,3.36185e-05,1.02686e-05,-8.3619e-06,2.11731e-05,6.60446e-06,0
-2.99631e-05,1.40021e-06,-1.54172e-05,4.70168e-05,1.30837e-05,-9.72363e-06,2.01539e-05,6.28213e-06,0
-2.94519e-05,4.15579e-06,-1.6379e-05,4.81741e-05,1.52981e-05,-9.57624e-06,1.82498e-05,4.53498e-06,0
-2.87901e-05,5.61774e-06,-1.37003e-05,3.78149e-05,1.50616e-05,-9.25146e-06,1.67995e-05,4.01143e-06,0
-2.97096e-05,6.71191e-06,-9.07357e-06,2.66199e-05,1.33057e-05,-9.35097e-06,1.49674e-05,4.5305e-06,0
-3.16643e-05,9.04156e-06,-4.25387e-06,1.94713e-05,1.20099e-05,-9.5103e-06,1.24495e-05,4.13127e-06,0
-3.27669e-05,1.28726e-05,-1.2651e-06,1.23852e-05,1.10395e-05,-8.63236e-06,1.00531e-05,2.7085e-06,0
-3.24038e-05,1.86681e-05,-1.55968e-06,9.45328e-07,1.06916e-05,-6.91618e-06,8.2046e-06,1.59651e-06,0
-3.09471e-05,2.95885e-05,-3.64334e-06,-1.37409e-05,1.11737e-05,-4.87311e-06,7.29359e-06,1.73203e-06,0
-2.89126e-05,4.51851e-05,-4.74578e-06,-2.97246e-05,1.12034e-05,-3.03012e-06,6.95816e-06,1.32592e-06,0
-2.73848e-05,5.68272e-05,-3.46281e-06,-4.59351e-05,1.02772e-05,-3.06245e-06,6.88048e-06,-6.64315e-07,0
-2.73762e-05,5.7875e-05,-1.20039e-06,-5.8203e-05,8.44203e-06,-3.64126e-06,7.53309e-06,-1.49458e-06,0
-2.79449e-05,4.91559e-05,1.82534e-06,-6.24776e-05,7.30696e-06,-4.0298e-06,8.01766e-06,-4.15763e-08,0
-2.83699e-05,3.44717e-05,4.383e-06,-6.47485e-05,7.8529e-06,-4.59904e-06,7.54042e-06,7.53944e-07,0
-2.84997e-05,1.73805e-05,4.52191e-06,-6.93903e-05,8.71376e-06,-3.69477e-06,6.99997e-06,-3.21226e-07,0
-2.8425e-05,-4.79575e-08,1.33344e-06,-7.00773e-05,8.23962e-06,-3.41875e-06,7.35054e-06,-8.55418e-07,0
-2.88228e-05,-1.61701e-05,-1.94535e-06,-6.16769e-05,5.26074e-06,-4.10043e-06,8.12277e-06,1.64081e-07,0
-2.92473e-05,-2.62808e-05,-3.88033e-06,-4.60661e-05,3.7226e-06,-4.66185e-06,8.37627e-06,2.72972e-06,0
-2.94898e-05,-2.82973e-05,-6.06604e-06,-2.85751e-05,3.35228e-06,-4.38058e-06,7.68993e-06,6.16612e-06,0
-2.93592e-05,-2.52206e-05,-6.67792e-06,-1.63641e-05,1.28002e-06,-3.2608e-06,7.5572e-06,7.60476e-06,0
-2.85333e-05,-1.97694e-05,-7.40742e-06,-1.12447e-05,-7.79327e-07,-3.14982e-06,7.9638e-06,5.61434e-06,0
-2.96425e-05,-1.45622e-05,-8.74993e-06,-9.03165e-06,-6.23315e-07,-2.79459e-06,9.79178e-06,3.09178e-06,0
-3.17412e-05,-1.15669e-05,-8.30985e-06,-5.72363e-06,1.131e-06,-2.12624e-06,1.4492e-05,2.31912e-06,0
-3.28946e-05,-1.11903e-05,-5.95555e-06,-3.55624e-07,1.53801e-06,-2.70429e-06,1.99202e-05,2.73861e-06,0
-3.32699e-05,-1.18166e-05,-4.73201e-06,4.15919e-06,1.78941e-06,-4.86241e-06,2.33961e-05,3.47206e-06,0
-3.32742e-05,-1.24142e-05,-6.6727e-06,4.62424e-06,2.7553e-06,-7.12585e-06,2.49053e-05,4.08236e-06,0
-3.37911e-05,-1.24435e-05,-9.87173e-06,2.41282e-06,4.62413e-06,-8.22007e-06,2.35547e-05,3.05556e-06,0
-3.4593e-05,-1.08086e-05,-1.21374e-05,2.98205e-06,5.71481e-06,-8.23226e-06,1.92446e-05,1.78826e-06,0
-3.50803e-05,-3.91486e-06,-1.21302e-05,5.8356e-06,4.10812e-06,-8.76129e-06,1.48402e-05,1.27287e-06,0
-3.45274e-05,9.86134e-06,-1.09892e-05,7.93807e-06,8.08062e-07,-9.41226e-06,1.30063e-05,1.57283e-06,0
-3.42045e-05,2.39284e-05,-1.09399e-05,7.34599e-06,-5.92619e-07,-8.87052e-06,1.41418e-05,2.3411e-06,0
-3.48189e-05,3.01692e-05,-1.20023e-05,4.8959e-06,2.49157e-07,-8.704e-06,1.48763e-05,2.91513e-06,0
-3.59593e-05,2.86493e-05,-1.25079e-05,1.88251e-06,-1.65018e-07,-9.33144e-06,1.35761e-05,3.94195e-06,0
-3.57232e-05,2.43995e-05,-1.25796e-05,4.08249e-07,-1.25675e-06,-9.32288e-06,1.24797e-05,4.79028e-06,0
-3.47303e-05,1.99496e-05,-1.17258e-05,3.3911e-07,1.519e-06,-7.5709e-06,1.43455e-05,4.90209e-06,0
-3.51259e-05,1.69794e-05,-9.44057e-06,3.82123e-08,7.30394e-06,-4.96912e-06,1.60083e-05,4.61533e-06,0
-3.59057e-05,1.65902e-05,-7.53339e-06,6.25175e-07,1.19315e-05,-3.59695e-06,1.45622e-05,4.87687e-06,0
-3.50317e-05,1.52982e-05,-7.58634e-06,3.03546e-06,1.48404e-05,-3.61601e-06,1.36599e-05,7.6389e-06,0
-3.39788e-05,1.16425e-05,-7.90115e-06,6.68535e-06,1.52901e-05,-3.6158e-06,1.48793e-05,9.77308e-06,0
-3.32553e-05,8.54733e-06,-8.62007e-06,8.67468e-06,1.46644e-05,-3.75402e-06,1.43961e-05,9.2563e-06,0
-3.25058e-05,6.05614e-06,-1.2668e-05,6.29579e-06,1.44178e-05,-4.76084e-06,4.84223e-06,7.84583e-06,0
-3.16838e-05,8.22274e-06,-1.63712e-05,2.36467e-06,1.48417e-05,-7.32805e-06,-9.36095e-06,5.34491e-06,0
-3.05655e-05,1.30409e-05,-1.68208e-05,1.95568e-07,1.42405e-05,-1.01207e-05,-1.69787e-05,5.00231e-06,0
-3.0467e-05,1.61448e-05,-1.54063e-05,-2.70798e-06,1.21777e-05,-9.00448e-06,-2.47817e-05,5.83882e-06,0
-2.95234e-05,2.02548e-05,-1.30213e-05,-7.08984e-06,1.24586e-05,-5.90309e-06,-3.29606e-05,5.01642e-06,0
-2.85576e-05,2.3877e-05,-1.05219e-05,-7.99053e-06,1.5129e-05,-3.33015e-06,-3.01502e-05,3.16878e-06,0
-2.79481e-05,2.5179e-05,-6.94023e-06,-5.42611e-06,1.66901e-05,-2.56562e-06,-1.3837e-05,1.8634e-06,0
-2.7937e-05,2.55156e-05,-4.01625e-06,-1.93271e-06,1.53213e-05,-3.71864e-06,9.24779e-06,2.1164e-06,0
-2.84761e-05,2.62231e-05,-3.67406e-06,1.01399e-06,1.2766e-05,-3.78712e-06,2.99897e-05,4.00276e-06,0
-2.7843e-05,2.55908e-05,-5.13862e-06,2.00057e-06,1.08242e-05,-4.34917e-06,4.62332e-05,5.51047e-06,0
-2.67577e-05,2.48027e-05,-6.81171e-06,3.34405e-06,8.80063e-06,-6.2771e-06,5.68693e-05,3.82363e-06,0
-2.61527e-05,2.47018e-05,-7.09793e-06,6.64436e-06,7.40062e-06,-8.88672e-06,6.19334e-05,1.19383e-06,0
-2.5906e-05,2.54026e-05,-6.01145e-06,1.01832e-05,6.87716e-06,-1.13114e-05,6.20667e-05,1.43917e-07,0
-2.47852e-05,2.76593e-05,-3.33815e-06,1.1014e-05,7.30352e-06,-1.32864e-05,5.66226e-05,7.60728e-07,0
-2.40658e-05,3.02285e-05,-1.09368e-06,8.05703e-06,8.0177e-06,-1.4788e-05,4.74278e-05,8.10656e-07,0
-2.53926e-05,3.15429e-05,-5.15984e-07,2.02111e-07,8.82086e-06,-1.60024e-05,3.93078e-05,9.38414e-08,0
-2.77785e-05,3.10682e-05,-1.70707e-06,-9.25407e-06,1.09683e-05,-1.6606e-05,3.44026e-05,5.27658e-07,0
-2.8309e-05,3.11353e-05,-4.22618e-06,-1.55445e-05,1.47494e-05,-1.60086e-05,3.14322e-05,1.45757e-06,0
-2.69116e-05,3.24189e-05,-6.21911e-06,-1.6702e-05,1.9776e-05,-1.5224e-05,2.87416e-05,1.53001e-06,0
-2.62358e-05,3.31247e-05,-6.35092e-06,-1.39749e-05,2.41997e-05,-1.50885e-05,2.53802e-05,5.11075e-07,0
-2.63345e-05,3.0744e-05,-5.54781e-06,-1.02005e-05,2.67308e-05,-1.59898e-05,2.23216e-05,-4.19436e-07,0
-2.59569e-05,2.73203e-05,-5.32523e-06,-7.23275e-06,2.72498e-05,-1.75192e-05,1.91217e-05,-7.49622e-07,0
-2.68004e-05,2.71724e-05,-5.23086e-06,-2.94353e-06,2.65785e-05,-1.79072e-05,1.55516e-05,-4.60841e-07,0
-2.87303e-05,3.07607e-05,-5.22526e-06,4.43935e-06,2.56628e-05,-1.65922e-05,1.22493e-05,8.03511e-09,0
-2.97235e-05,3.43222e-05,-5.50456e-06,1.38034e-05,2.60293e-05,-1.3728e-05,9.25494e-06,-6.98918e-07,0
-3.05348e-05,3.5361e-05,-5.64106e-06,2.32656e-05,2.76769e-05,-1.0554e-05,5.24481e-06,-1.24351e-06,0
-3.14535e-05,3.47162e-05,-6.49715e-06,2.9501e-05,2.95004e-05,-1.04308e-05,1.29553e-06,-8.23031e-07,0
-3.23215e-05,3.35084e-05,-7.16265e-06,3.10068e-05,2.90552e-05,-1.19243e-05,1.06362e-06,1.06866e-07,0
-3.20595e-05,3.27893e-05,-7.35579e-06,2.74931e-05,2.60552e-05,-1.15527e-05,1.5398e-06,7.78846e-07,0
-3.01306e-05,3.30874e-05,-8.70135e-06,2.08842e-05,2.44708e-05,-8.12633e-06,1.71768e-06,-3.05961e-07,0
-2.68568e-05,3.44081e-05,-8.71711e-06,1.40441e-05,2.40917e-05,-5.12168e-06,2.66289e-06,6.30769e-07,0
-2.40015e-05,3.485e-05,-7.30243e-06,8.93694e-06,2.27989e-05,-4.30977e-06,2.65541e-06,3.0625e-06,0
-2.36824e-05,3.35484e-05,-6.90542e-06,4.72097e-06,2.06339e-05,-3.28381e-06,1.351e-06,3.99584e-06,0
-2.51733e-05,3.13899e-05,-8.19119e-06,3.33788e-07,1.84868e-05,-2.12025e-06,-5.47697e-07,3.59874e-06,0
-2.73637e-05,2.70868e-05,-1.01137e-05,-3.46334e-06,1.5895e-05,-2.24665e-06,-1.02792e-06,2.97972e-06,0
-2.93284e-05,2.16819e-05,-1.17537e-05,-7.30679e-06,1.44459e-05,-3.04895e-06,1.04604e-06,4.73066e-06,0
-2.98956e-05,1.7563e-05,-1.29976e-05,-1.08237e-05,1.33397e-05,-3.44591e-06,5.29353e-06,6.77921e-06,0
-2.91578e-05,1.53477e-05,-1.34541e-05,-1.26328e-05,1.03818e-05,-4.05318e-06,9.71399e-06,6.25664e-06,0
-2.91871e-05,1.44888e-05,-1.30744e-05,-1.27593e-05,8.43977e-06,-5.83951e-06,1.17757e-05,4.10496e-06,0
-2.94976e-05,1.37422e-05,-1.27018e-05,-1.3263e-05,8.00875e-06,-8.1569e-06,1.17411e-05,2.64723e-06,0
-2.86251e-05,1.38324e-05,-1.19296e-05,-1.36875e-05,9.16507e-06,-8.92535e-06,1.06113e-05,9.74015e-07,0
-2.86143e-05,1.5001e-05,-1.11816e-05,-1.17091e-05,1.12269e-05,-7.7341e-06,8.3206e-06,-1.2936e-06,0
-3.0612e-05,2.01063e-05,-1.14525e-05,-8.25992e-06,1.28011e-05,-6.10261e-06,6.62595e-06,-2.15621e-06,0
-3.30772e-05,2.94161e-05,-1.18658e-05,-4.82738e-06,1.4047e-05,-5.8811e-06,7.31585e-06,-2.09821e-06,0
-3.50601e-05,3.45697e-05,-1.15038e-05,-2.93986e-06,1.67465e-05,-7.40051e-06,1.08292e-05,-2.56065e-06,0
-3.67792e-05,2.94508e-05,-1.13625e-05,-3.37437e-06,2.00679e-05,-1.00188e-05,1.31589e-05,-2.33455e-06,0
-3.78259e-05,1.9127e-05,-1.23593e-05,-5.41653e-06,2.09969e-05,-1.16623e-05,1.21676e-05,-4.80193e-07,0
-3.71972e-05,1.05205e-05,-1.27669e-05,-7.45788e-06,2.03056e-05,-1.12092e-05,1.13494e-05,1.17403e-06,0
-3.47772e-05,5.04102e-06,-1.21224e-05,-9.60111e-06,2.15391e-05,-9.81579e-06,1.22116e-05,1.56711e-06,0
-3.34506e-05,4.9657e-07,-1.11663e-05,-1.11203e-05,2.54068e-05,-1.03931e-05,1.35945e-05,1.46112e-06,0
-3.31073e-05,-5.29421e-06,-1.13976e-05,-1.0148e-05,2.83864e-05,-1.33415e-05,1.38954e-05,3.57567e-07,0
-3.14124e-05,-1.18773e-05,-1.31854e-05,-8.55404e-06,2.77041e-05,-1.48909e-05,1.37706e-05,-1.95853e-06,0
-2.98852e-05,-1.80067e-05,-1.60261e-05,-6.92369e-06,2.45681e-05,-1.43977e-05,1.49366e-05,-2.26296e-06,0
-3.06115e-05,-2.09164e-05,-1.73812e-05,-3.42842e-06,2.1921e-05,-1.47574e-05,1.64389e-05,-6.28176e-07,0
-3.39707e-05,-1.95295e-05,-1.63967e-05,4.57366e-07,1.76112e-05,-1.50833e-05,1.77086e-05,-5.37653e-07,0
-3.58178e-05,-1.50042e-05,-1.47381e-05,3.50952e-06,1.37905e-05,-1.40361e-05,1.73422e-05,-1.83213e-06,0
-3.46392e-05,-9.41943e-06,-1.16041e-05,1.88887e-06,1.381e-05,-1.3247e-05,1.55679e-05,-2.74443e-06,0
-3.28622e-05,-4.47642e-06,-8.90765e-06,-5.69031e-06,1.54663e-05,-1.19402e-05,1.45718e-05,-2.15136e-06,0
-3.1894e-05,-1.45763e-07,-9.9346e-06,-1.63759e-05,1.68041e-05,-1.15719e-05,1.40615e-05,-1.247e-06,0
-3.27372e-05,4.38338e-06,-1.1684e-05,-2.55582e-05,1.62629e-05,-1.27595e-05,1.30159e-05,-9.8975e-07,0
-3.26958e-05,8.14845e-06,-1.06934e-05,-3.00881e-05,1.48069e-05,-1.51336e-05,1.19548e-05,-5.70898e-07,0
-3.12848e-05,9.22269e-06,-9.2653e-06,-3.2184e-05,1.33971e-05,-1.69058e-05,1.07594e-05,-7.21088e-07,0
-3.05965e-05,8.40917e-06,-8.90121e-06,-2.94327e-05,1.26913e-05,-1.57676e-05,1.00431e-05,-1.71813e-06,0
-3.06466e-05,8.88115e-06,-8.16186e-06,-2.18754e-05,1.33373e-05,-1.41061e-05,1.19843e-05,-3.41206e-06,0
-2.99463e-05,1.06592e-05,-6.7341e-06,-1.16612e-05,1.51668e-05,-1.26806e-05,1.4841e-05,-4.7397e-06,0
-2.8757e-05,1.16612e-05,-4.74205e-06,-1.54323e-06,1.6158e-05,-1.21874e-05,1.61675e-05,-5.2835e-06,0
-2.83915e-05,1.22142e-05,-2.64545e-06,6.40236e-06,1.50744e-05,-1.15484e-05,1.54536e-05,-5.45492e-06,0
-2.86292e-05,1.35232e-05,-2.28898e-06,1.13542e-05,1.32067e-05,-1.03382e-05,1.36847e-05,-5.24473e-06,0
-2.9836e-05,1.48598e-05,-2.82999e-06,9.95139e-06,1.15252e-05,-9.26649e-06,1.10889e-05,-3.96786e-06,0
-3.13609e-05,1.57454e-05,-2.1416e-06,1.07273e-06,1.03234e-05,-9.02149e-06,9.93869e-06,-2.37185e-06,0
-3.17891e-05,1.65269e-05,-6.24098e-07,-7.64553e-06,8.16527e-06,-1.0108e-05,1.07122e-05,-2.50614e-06,0
-3.10535e-05,1.62813e-05,-1.38506e-07,-9.03455e-06,5.13942e-06,-1.19803e-05,1.17397e-05,-3.70825e-06,0
-3.02403e-05,1.57021e-05,-8.4974e-07,-6.31102e-06,3.18856e-06,-1.35588e-05,1.11446e-05,-4.05243e-06,0
-2.93725e-05,1.51691e-05,-1.92167e-06,-4.46409e-06,3.55031e-06,-1.24284e-05,8.14349e-06,-2.90493e-06,0
-2.92843e-05,1.35471e-05,-2.60229e-06,-5.40903e-06,5.07245e-06,-1.03175e-05,4.98367e-06,-1.70989e-06,0
-3.06729e-05,9.61807e-06,-2.74789e-06,-7.64277e-06,7.30531e-06,-1.04757e-05,3.71933e-06,-1.68437e-06,0
-3.27817e-05,3.88078e-06,-2.8192e-06,-9.64178e-06,9.03294e-06,-1.27033e-05,3.71172e-06,-2.20668e-06,0
-3.496e-05,-1.45963e-06,-4.30904e-06,-1.15737e-05,9.04424e-06,-1.41311e-05,5.08601e-06,-1.5494e-07,0
-3.54946e-05,-3.03466e-06,-8.28195e-06,-1.7461e-05,9.92528e-06,-1.51266e-05,7.72289e-06,3.22788e-06,0
-3.37998e-05,-2.20557e-07,-1.1372e-05,-3.02582e-05,1.18687e-05,-1.60284e-05,7.75792e-06,5.02506e-06,0
-3.14511e-05,4.34641e-06,-1.08562e-05,-4.18276e-05,1.37447e-05,-1.61846e-05,6.05276e-06,5.34229e-06,0
-3.08982e-05,8.15597e-06,-9.53095e-06,-4.27127e-05,1.2852e-05,-1.53944e-05,4.63769e-06,4.96162e-06,0
-3.14352e-05,8.06079e-06,-9.32742e-06,-3.53468e-05,1.06303e-05,-1.27793e-05,4.97228e-06,3.63891e-06,0
-3.13431e-05,4.43515e-06,-7.90843e-06,-2.61291e-05,1.10953e-05,-1.07014e-05,6.376e-06,2.27321e-06,0
-3.15388e-05,2.31705e-07,-5.92653e-06,-1.79469e-05,1.26618e-05,-1.06904e-05,7.68012e-06,4.03738e-06,0
-3.21396e-05,-1.61743e-06,-5.1044e-06,-6.87986e-06,1.3344e-05,-1.19525e-05,9.35526e-06,5.16981e-06,0
-3.35835e-05,-5.8127e-07,-5.60451e-06,1.02725e-05,1.25102e-05,-1.35335e-05,1.00209e-05,5.00946e-06,0
-3.39544e-05,9.54549e-07,-7.11285e-06,3.04182e-05,1.10508e-05,-1.6863e-05,1.03667e-05,4.77766e-06,0
-3.25193e-05,2.19241e-06,-8.71008e-06,4.80245e-05,9.49588e-06,-2.11658e-05,1.22516e-05,3.62777e-06,0
-3.07096e-05,3.68013e-06,-9.26951e-06,5.72279e-05,9.91431e-06,-2.56209e-05,1.54e-05,2.6099e-06,0
-2.84285e-05,6.16921e-06,-8.83268e-06,5.57181e-05,1.29499e-05,-3.06246e-05,1.84162e-05,1.39899e-06,0
-2.62137e-05,6.99839e-06,-8.82471e-06,4.69268e-05,1.70783e-05,-2.61357e-05,2.00235e-05,7.50296e-07,0
-2.56274e-05,4.70508e-06,-1.02823e-05,3.78611e-05,2.0495e-05,-5.29467e-06,2.00535e-05,1.23187e-06,0
-2.69088e-05,2.098e-06,-1.31324e-05,2.98544e-05,2.06574e-05,1.80365e-05,1.95808e-05,2.09741e-06,0
-2.75939e-05,1.87388e-06,-1.67552e-05,2.40058e-05,1.79133e-05,2.51181e-05,1.85225e-05,1.4089e-06,0
-2.7092e-05,4.02857e-06,-2.026e-05,2.18211e-05,1.52301e-05,1.5945e-05,1.6491e-05,-3.80357e-07,0
-2.57554e-05,6.53492e-06,-2.10556e-05,2.11479e-05,1.37187e-05,5.48286e-06,1.42539e-05,-1.58675e-06,0
-2.4947e-05,7.81814e-06,-1.77947e-05,1.68775e-05,1.33709e-05,1.26173e-06,1.28502e-05,-1.59847e-06,0
-2.59818e-05,7.58846e-06,-1.22921e-05,8.02751e-06,1.49126e-05,-4.91755e-07,1.23724e-05,-4.12665e-07,0
-2.77876e-05,7.8721e-06,-8.16562e-06,2.8184e-07,1.6611e-05,-2.10153e-06,1.16967e-05,7.08746e-07,0
-2.83126e-05,1.02281e-05,-5.78363e-06,-3.48597e-06,1.66053e-05,-3.10988e-06,1.10234e-05,3.58109e-08,0
-2.82122e-05,1.2764e-05,-4.97225e-06,-6.51844e-06,1.48756e-05,-3.25836e-06,1.12608e-05,-1.78636e-06,0
-2.88772e-05,1.1245e-05,-5.86665e-06,-1.17168e-05,1.28056e-05,-2.20925e-06,1.16241e-05,-2.78841e-06,0
-2.9332e-05,5.03277e-06,-7.51077e-06,-1.58787e-05,1.13047e-05,-8.24115e-07,1.18733e-05,-2.56163e-06,0
-2.90961e-05,-2.10548e-06,-8.6728e-06,-1.70292e-05,1.05765e-05,-2.66789e-07,1.25928e-05,-2.76283e-06,0
-2.91944e-05,-8.62933e-06,-9.14785e-06,-1.69907e-05,1.0871e-05,2.98581e-07,1.23448e-05,-4.70233e-06,0
-2.95716e-05,-1.42726e-05,-9.66696e-06,-1.64828e-05,1.05227e-05,7.71268e-07,1.14885e-05,-6.23865e-06,0
-2.81794e-05,-1.74033e-05,-1.03857e-05,-1.46368e-05,6.89819e-06,-2.84844e-10,1.06113e-05,-6.19405e-06,0
-2.6382e-05,-1.83441e-05,-1.18141e-05,-1.57726e-05,3.08364e-06,-1.94126e-06,1.02456e-05,-5.9436e-06,0
-2.54008e-05,-1.66841e-05,-1.46392e-05,-2.01113e-05,2.93415e-06,-3.95685e-06,1.13194e-05,-4.51031e-06,0
-2.4668e-05,-1.50136e-05,-1.74252e-05,-2.47151e-05,4.76752e-06,-4.82059e-06,1.2093e-05,-1.97427e-06,0
-2.44639e-05,-1.52216e-05,-1.87184e-05,-3.05805e-05,4.27324e-06,-4.73699e-06,1.10979e-05,-1.24779e-07,0
-2.56803e-05,-1.48125e-05,-1.82419e-05,-3.35481e-05,1.55718e-06,-5.03537e-06,9.88258e-06,1.8552e-06,0
-2.84787e-05,-1.29759e-05,-1.52513e-05,-2.71624e-05,3.74533e-07,-5.48877e-06,9.44746e-06,4.4806e-06,0
-2.87498e-05,-9.23077e-06,-1.26422e-05,-1.43213e-05,1.2407e-06,-4.8796e-06,7.75583e-06,4.66303e-06,0
-2.68153e-05,-4.97433e-06,-1.10338e-05,-1.94949e-06,5.08205e-06,-4.77865e-06,5.95898e-06,2.51924e-06,0
-2.57939e-05,-2.0855e-06,-1.00723e-05,6.95738e-06,1.19291e-05,-5.1098e-06,4.93661e-06,1.55516e-06,0
-2.64986e-05,-5.86819e-07,-7.52208e-06,1.06145e-05,1.89318e-05,-5.25364e-06,4.52798e-06,1.70201e-06,0
-2.7947e-05,4.42175e-07,-3.85655e-06,8.42634e-06,2.52106e-05,-6.62913e-06,4.16927e-06,1.16695e-06,0
-2.81844e-05,2.24274e-06,-1.39459e-06,2.02072e-07,2.89038e-05,-9.02157e-06,4.68525e-06,5.53883e-08,0
-2.73503e-05,5.74476e-06,8.34932e-08,-9.33319e-06,2.84604e-05,-1.10547e-05,6.14219e-06,5.23725e-07,0
-2.64543e-05,1.07164e-05,1.1103e-06,-1.63638e-05,2.69152e-05,-1.18539e-05,7.9595e-06,1.98674e-06,0
-2.70666e-05,1.48679e-05,2.44591e-07,-2.13209e-05,2.65253e-05,-1.25754e-05,9.67977e-06,3.41328e-06,0
-2.90166e-05,1.63682e-05,-3.80716e-06,-2.61463e-05,2.43882e-05,-1.35705e-05,1.03843e-05,4.7257e-06,0
-3.05966e-05,1.64174e-05,-6.27081e-06,-2.84141e-05,1.8865e-05,-1.49973e-05,9.20541e-06,4.88587e-06,0
-3.15803e-05,1.66294e-05,-6.00829e-06,-2.45914e-05,1.42618e-05,-1.63893e-05,5.55612e-06,3.47325e-06,0
-3.31269e-05,1.71712e-05,-5.29018e-06,-1.82325e-05,1.3545e-05,-1.62833e-05,1.76708e-06,9.38733e-07,0
-3.35741e-05,1.81312e-05,-4.84986e-06,-1.515e-05,1.46507e-05,-1.48384e-05,1.6009e-06,-1.53757e-06,0
-3.17489e-05,1.83998e-05,-4.50282e-06,-1.80273e-05,1.51131e-05,-1.35442e-05,9.67288e-06,-1.88088e-06,0
-3.00355e-05,1.72596e-05,-5.14725e-06,-2.45354e-05,1.56668e-05,-1.19625e-05,2.34598e-05,-4.44199e-07,0
-3.09335e-05,1.61088e-05,-5.17766e-06,-2.80414e-05,1.54914e-05,-9.65715e-06,3.67576e-05,4.39639e-07,0
-3.18194e-05,1.33144e-05,-4.41316e-06,-2.37491e-05,1.39616e-05,-9.38173e-06,4.56535e-05,5.98955e-08,0
-3.15255e-05,1.03434e-05,-2.40969e-06,-1.49289e-05,1.12562e-05,-1.09303e-05,4.74634e-05,-1.21925e-06,0
-3.05489e-05,1.07238e-05,-1.06066e-06,-6.03493e-06,1.04235e-05,-1.15815e-05,4.17609e-05,-3.01961e-06,0
-2.89082e-05,1.43304e-05,-3.19887e-06,-1.85734e-06,1.21802e-05,-1.03926e-05,3.40615e-05,-3.62572e-06,0
-2.89702e-05,1.78836e-05,-7.61288e-06,-3.20231e-06,1.28659e-05,-1.0112e-05,3.17768e-05,-2.35054e-06,0
-2.93605e-05,1.73728e-05,-1.08232e-05,-4.57341e-06,1.24382e-05,-1.2316e-05,3.30687e-05,-9.93403e-07,0
-2.88617e-05,1.58022e-05,-1.06338e-05,-3.58031e-06,1.18835e-05,-1.39024e-05,3.18991e-05,2.48725e-07,0
-2.71697e-05,1.67864e-05,-9.93904e-06,-3.86622e-06,1.07447e-05,-1.31458e-05,2.9315e-05,4.87848e-07,0
-2.62856e-05,1.98283e-05,-9.66877e-06,-3.90585e-06,8.16522e-06,-1.18034e-05,2.53892e-05,-8.13046e-07,0
-2.77918e-05,2.19326e-05,-9.0028e-06,-1.53669e-06,5.32614e-06,-1.05482e-05,2.01705e-05,-2.13879e-06,0
-2.96288e-05,2.25379e-05,-6.93978e-06,1.99626e-06,2.59282e-06,-1.08363e-05,1.45885e-05,-2.57359e-06,0
-3.02772e-05,2.37019e-05,-5.52444e-06,5.81466e-06,1.7856e-06,-1.25734e-05,6.22768e-06,-1.36345e-06,0
-2.84314e-05,2.71059e-05,-5.78755e-06,8.90666e-06,1.90657e-06,-1.25223e-05,-6.33744e-06,4.72669e-07,0
-2.55315e-05,3.23155e-05,-6.70274e-06,1.09346e-05,7.85946e-07,-1.05554e-05,-1.97938e-05,9.22773e-07,0
-2.44905e-05,3.65345e-05,-6.97412e-06,8.83423e-06,-3.57691e-07,-9.19708e-06,-2.89316e-05,3.81142e-07,0
-2.58308e-05,3.76501e-05,-7.59083e-06,3.27477e-06,2.03497e-07,-9.55294e-06,-3.14727e-05,-1.47405e-07,0
-2.68081e-05,3.62946e-05,-8.58517e-06,-2.52576e-06,2.58545e-06,-1.03947e-05,-2.6246e-05,-1.19817e-06,0
-2.62288e-05,3.40301e-05,-7.98366e-06,-4.91852e-06,5.29045e-06,-1.04365e-05,-1.63559e-05,-2.22251e-06,0
-2.58609e-05,3.076e-05,-6.1807e-06,-5.95842e-06,7.94039e-06,-9.9707e-06,-7.75138e-06,-2.31502e-06,0
-2.60837e-05,2.87667e-05,-4.1656e-06,-8.67399e-06,9.67597e-06,-9.10722e-06,-3.65615e-06,-1.66949e-06,0
-2.71681e-05,2.97653e-05,-2.9011e-06,-1.14715e-05,1.00605e-05,-9.13942e-06,-1.63299e-06,-8.58481e-07,0
-2.87063e-05,3.4563e-05,-1.58629e-06,-1.22078e-05,1.03281e-05,-1.16719e-05,1.20464e-06,-3.63415e-07,0
-2.92955e-05,4.30435e-05,2.63957e-07,-1.09823e-05,1.17556e-05,-1.40459e-05,5.85166e-06,3.44656e-07,0
-2.89329e-05,5.32185e-05,1.62761e-06,-9.47246e-06,1.22605e-05,-1.445e-05,1.25226e-05,1.6221e-06,0
-2.88461e-05,6.39621e-05,7.85116e-07,-7.35884e-06,9.50141e-06,-1.36253e-05,1.82395e-05,2.86367e-06,0
-3.01786e-05,7.03716e-05,-1.21162e-06,-6.3939e-06,4.62751e-06,-1.22612e-05,1.88186e-05,2.84027e-06,0
-3.23377e-05,6.33744e-05,-2.13604e-06,-6.42755e-06,1.55518e-06,-1.16002e-05,1.57621e-05,1.08392e-06,0
-3.29524e-05,4.40611e-05,-1.84615e-06,-4.88683e-06,3.582e-07,-1.19422e-05,1.29801e-05,-6.6019e-07,0
-3.16841e-05,2.16198e-05,-1.61254e-06,-2.93607e-06,-2.9908e-07,-1.21899e-05,1.22658e-05,-1.21956e-08,0
-2.98241e-05,7.77858e-07,-2.54374e-06,-1.28065e-06,4.72517e-08,-1.19119e-05,1.4101e-05,1.79807e-06,0
-2.85723e-05,-1.37413e-05,-5.17539e-06,4.41329e-06,1.4503e-06,-1.07315e-05,1.64825e-05,3.07741e-06,0
-2.97339e-05,-1.88637e-05,-8.43122e-06,2.54095e-05,4.18654e-06,-9.62629e-06,1.61852e-05,4.09957e-06,0
-3.26622e-05,-1.74647e-05,-1.18614e-05,5.08988e-05,4.54558e-06,-9.78417e-06,1.49596e-05,3.61582e-06,0
-3.39166e-05,-1.54852e-05,-1.56475e-05,5.33309e-05,2.16226e-06,-1.09966e-05,1.47067e-05,1.03072e-06,0
-3.31064e-05,-1.62337e-05,-1.82096e-05,3.2472e-05,1.63422e-06,-1.15935e-05,1.47866e-05,-3.21564e-07,0
-3.21429e-05,-1.68741e-05,-1.99943e-05,4.02066e-06,3.36949e-06,-1.01372e-05,1.42078e-05,1.49098e-06,0
-3.23938e-05,-1.35899e-05,-2.21533e-05,-1.75025e-05,6.65563e-06,-8.07025e-06,1.02419e-05,3.03631e-06,0
-3.32704e-05,-5.55747e-06,-2.19841e-05,-3.02864e-05,1.04608e-05,-7.07756e-06,6.94234e-06,2.59971e-06,0
-3.2757e-05,3.64585e-06,-1.82804e-05,-3.55785e-05,1.34114e-05,-7.17852e-06,8.36301e-06,1.41873e-06,0
-3.16849e-05,1.07827e-05,-1.4655e-05,-3.26152e-05,1.50879e-05,-7.8998e-06,1.18328e-05,1.53445e-06,0
-3.08298e-05,1.38315e-05,-1.26482e-05,-2.32293e-05,1.57196e-05,-8.06122e-06,1.42384e-05,3.39505e-06,0
-3.01953e-05,1.52518e-05,-1.15564e-05,-1.35847e-05,1.60357e-05,-7.42829e-06,1.46897e-05,4.70109e-06,0
-3.01956e-05,1.77563e-05,-1.04978e-05,-9.72507e-06,1.64483e-05,-7.29807e-06,1.36068e-05,4.90594e-06,0
-3.16954e-05,1.91626e-05,-9.13687e-06,-1.27637e-05,1.78403e-05,-7.02078e-06,1.29759e-05,2.993e-06,0
-3.36323e-05,1.92066e-05,-6.60184e-06,-1.74649e-05,2.1698e-05,-5.46128e-06,1.40462e-05,-2.33145e-08,0
-3.4523e-05,1.84688e-05,-3.08669e-06,-1.83492e-05,2.74606e-05,-3.95189e-06,1.54081e-05,-1.70896e-06,0
-3.49971e-05,1.71256e-05,-9.36203e-07,-1.70209e-05,3.24822e-05,-4.13536e-06,1.58875e-05,-2.12211e-06,0
-3.51028e-05,1.51314e-05,-1.58689e-06,-1.5233e-05,3.43364e-05,-6.24945e-06,1.67286e-05,-2.12496e-06,0
-3.41434e-05,1.40984e-05,-3.71359e-06,-1.50018e-05,3.17161e-05,-8.65438e-06,2.05108e-05,-1.7667e-06,0
-3.28046e-05,1.48489e-05,-4.7e-06,-1.60087e-05,2.52098e-05,-9.00422e-06,2.64606e-05,-2.07491e-06,0
-3.25197e-05,1.57785e-05,-5.54066e-06,-1.80452e-05,1.80953e-05,-8.34518e-06,3.06071e-05,-2.65711e-06,0
-3.28866e-05,1.4986e-05,-7.61984e-06,-1.91516e-05,1.47578e-05,-9.2055e-06,3.09022e-05,-2.22846e-06,0
-3.31493e-05,1.37352e-05,-9.05483e-06,-1.88899e-05,1.40028e-05,-1.21537e-05,2.83837e-05,-1.96978e-06,0
-3.37263e-05,1.39642e-05,-8.4266e-06,-1.87226e-05,1.38759e-05,-1.47029e-05,2.48131e-05,-1.73984e-06,0
-3.57125e-05,1.54239e-05,-6.67054e-06,-1.8437e-05,1.41561e-05,-1.49156e-05,2.17467e-05,1.1113e-07,0
-3.63739e-05,1.42684e-05,-4.34792e-06,-1.55674e-05,1.54631e-05,-1.43552e-05,1.87135e-05,2.67456e-06,0
-3.43073e-05,1.06039e-05,-2.99662e-06,-1.37836e-05,1.82006e-05,-1.46329e-05,1.59007e-05,3.11727e-06,0
-3.20992e-05,8.90782e-06,-5.11728e-06,-1.5839e-05,2.04624e-05,-1.44325e-05,1.32974e-05,2.49441e-06,0
-3.15893e-05,8.3361e-06,-9.16103e-06,-1.63503e-05,2.25667e-05,-1.55048e-05,1.01674e-05,2.24232e-06,0
-3.34063e-05,7.48113e-06,-1.042e-05,-7.48101e-06,2.33031e-05,-1.73453e-05,8.36926e-06,2.16243e-06,0
-3.49469e-05,6.70149e-06,-7.41674e-06,7.80553e-06,2.2913e-05,-1.64468e-05,8.17281e-06,2.29945e-06,0
-3.53309e-05,7.82373e-06,-4.82283e-06,1.91428e-05,2.27058e-05,-1.47517e-05,9.11268e-06,4.58543e-06,0
-3.47507e-05,1.06185e-05,-5.23731e-06,2.05206e-05,2.1915e-05,-1.2482e-05,1.03195e-05,7.7477e-06,0
-3.3837e-05,1.22326e-05,-6.52292e-06,1.40483e-05,2.21694e-05,-1.15714e-05,1.03823e-05,9.59984e-06,0
-3.42036e-05,1.34713e-05,-8.20252e-06,5.43394e-06,2.21505e-05,-1.25122e-05,9.01898e-06,9.0653e-06,0
-3.37206e-05,1.60387e-05,-9.41284e-06,-1.41423e-06,2.18243e-05,-1.3963e-05,7.6846e-06,7.42469e-06,0
-3.22778e-05,1.97323e-05,-8.85126e-06,-4.25071e-06,2.1769e-05,-1.48881e-05,8.75029e-06,6.59789e-06,0
-3.06275e-05,2.20563e-05,-7.6348e-06,-6.76862e-06,2.06929e-05,-1.60591e-05,1.23868e-05,5.70121e-06,0
-2.90335e-05,2.3224e-05,-6.07945e-06,-8.43783e-06,1.76305e-05,-1.82038e-05,1.57385e-05,5.2001e-06,0
-2.89664e-05,2.27822e-05,-5.17186e-06,-6.9377e-06,1.44504e-05,-1.85803e-05,1.61995e-05,6.08708e-06,0
-2.9288e-05,1.92487e-05,-6.74866e-06,-3.47576e-06,1.35751e-05,-1.76537e-05,1.45474e-05,7.46652e-06,0
-2.97091e-05,1.58183e-05,-9.38795e-06,-3.12528e-06,1.27473e-05,-1.57605e-05,1.26916e-05,7.42907e-06,0
