ch1,ch2,ch3,ch4,ch5,ch6,ch7,ch8,class
-3.2405e-05,2.07744e-06,-5.06122e-06,5.37593e-06,-4.18547e-06,-4.95936e-06,1.69779e-05,2.64007e-07,0
-3.23941e-05,3.09681e-06,-5.23773e-06,9.71481e-06,-3.25186e-06,-6.35639e-06,5.27056e-05,2.2716e-06,0
-3.18821e-05,2.30488e-06,-8.0316e-06,5.90167e-06,-3.2868e-06,-4.42613e-06,7.13672e-05,4.03914e-06,0
-2.94663e-05,1.41374e-06,-1.05903e-05,-3.33739e-06,-4.38144e-06,-3.00895e-06,7.73183e-05,5.09292e-06,0
-2.64346e-05,-6.85399e-08,-1.2239e-05,-1.56174e-05,-5.38159e-06,-3.32994e-06,6.86695e-05,6.02095e-06,0
-2.55761e-05,-7.20599e-07,-1.26519e-05,-1.79382e-05,-4.6615e-06,-4.57829e-06,5.28883e-05,5.48418e-06,0
-2.58388e-05,2.26855e-06,-1.10478e-05,-1.2718e-05,-2.67838e-06,-6.51475e-06,3.70312e-05,2.63943e-06,0
-2.56474e-05,7.8878e-06,-7.67825e-06,-1.55022e-05,-1.25781e-06,-7.49947e-06,2.56333e-05,1.6965e-06,0
-2.48881e-05,1.11988e-05,-4.90663e-06,-3.24064e-05,-2.20003e-07,-6.26759e-06,1.83294e-05,3.27873e-06,0
-2.4152e-05,9.33236e-06,-4.30627e-06,-5.38756e-05,-3.68363e-07,-5.01095e-06,1.20943e-05,4.05432e-06,0
-2.36956e-05,5.97071e-06,-5.64551e-06,-6.34401e-05,-1.91102e-06,-5.09351e-06,5.6694e-06,3.30963e-06,0
-2.50968e-05,5.9509e-06,-8.81437e-06,-5.56343e-05,-3.04175e-06,-4.43757e-06,-3.54376e-07,3.0075e-06,0
-2.71844e-05,8.42251e-06,-1.2181e-05,-3.7149e-05,-2.4085e-06,-2.86989e-06,-1.89446e-06,3.58809e-06,0
-2.84131e-05,1.11992e-05,-1.4077e-05,-1.99741e-05,4.52268e-07,-2.54233e-06,-7.56954e-08,4.21786e-06,0
-2.90929e-05,1.30613e-05,-1.34088e-05,-1.06967e-05,5.06156e-06,-4.30302e-06,2.13834e-06,5.40755e-06,0
-3.06565e-05,1.34723e-05,-1.14698e-05,-1.38755e-05,8.20928e-06,-5.01577e-06,1.87229e-06,6.81953e-06,0
-3.28202e-05,1.36102e-05,-1.00436e-05,-2.68363e-05,8.05636e-06,-3.16147e-06,2.61954e-07,6.93421e-06,0
-3.3688e-05,1.46072e-05,-9.87847e-06,-3.73593e-05,5.59843e-06,-6.89958e-07,-3.22168e-06,5.70788e-06,0
-3.28815e-05,1.58092e-05,-1.07823e-05,-3.1492e-05,2.97943e-06,-8.2916e-07,-1.24876e-05,4.36291e-06,0
-3.1705e-05,1.64499e-05,-1.10714e-05,-1.19758e-05,2.34666e-06,-4.19906e-06,-2.76389e-05,3.39057e-06,0
-3.18648e-05,1.68128e-05,-9.69433e-06,4.37418e-06,4.24802e-06,-8.23515e-06,-3.5478e-05,3.46611e-06,0
-3.40638e-05,1.75401e-05,-9.31476e-06,7.74635e-06,5.52809e-06,-9.68994e-06,-2.57957e-05,4.88276e-06,0
-3.65018e-05,1.85568e-05,-1.01274e-05,4.57677e-06,4.16411e-06,-1.00205e-05,-3.95152e-06,5.93974e-06,0
-3.59316e-05,1.95914e-05,-8.81681e-06,2.17236e-06,2.6305e-06,-1.21792e-05,1.82011e-05,4.13997e-06,0
-3.31913e-05,2.22756e-05,-7.58796e-06,9.69244e-07,3.28004e-06,-1.3588e-05,3.18366e-05,1.97907e-06,0
-3.17307e-05,2.5507e-05,-8.10318e-06,-1.47669e-06,5.40305e-06,-1.34492e-05,3.7581e-05,1.76235e-06,0
-3.18678e-05,2.64185e-05,-7.72835e-06,-6.61105e-06,7.28346e-06,-1.34087e-05,3.88084e-05,2.20715e-06,0
-3.14992e-05,2.73933e-05,-6.31882e-06,-1.26187e-05,8.42989e-06,-1.33086e-05,3.68347e-05,1.34791e-06,0
-3.01155e-05,3.083e-05,-6.38539e-06,-2.08919e-05,1.15551e-05,-1.24301e-05,3.24062e-05,-6.80528e-07,0
-2.99923e-05,3.3097e-05,-6.4092e-06,-3.27522e-05,1.54665e-05,-1.13897e-05,2.7044e-05,-1.56423e-06,0
-3.30369e-05,3.21161e-05,-6.32131e-06,-4.39257e-05,1.41175e-05,-1.07158e-05,2.24488e-05,-9.52757e-07,0
-3.54796e-05,3.04107e-05,-7.38268e-06,-4.74969e-05,9.14446e-06,-1.07696e-05,1.96265e-05,-1.14629e-07,0
-3.47014e-05,2.98833e-05,-7.66146e-06,-3.87201e-05,6.32367e-06,-1.10824e-05,1.8275e-05,-9.55693e-08,0
-3.25513e-05,2.95852e-05,-7.62476e-06,-1.56462e-05,7.16106e-06,-1.03037e-05,1.93283e-05,-6.38403e-07,0
-3.01963e-05,2.80991e-05,-6.73009e-06,1.67993e-05,8.8364e-06,-9.43112e-06,2.09e-05,-8.38597e-07,0
-2.96005e-05,2.64163e-05,-4.88038e-06,4.51204e-05,9.59663e-06,-9.63028e-06,2.16912e-05,-1.33251e-06,0
-3.07722e-05,2.51959e-05,-3.53325e-06,5.75021e-05,1.12215e-05,-9.64984e-06,2.22135e-05,-1.24543e-06,0
-3.20734e-05,2.4643e-05,-2.32188e-06,5.41979e-05,1.31737e-05,-9.19574e-06,2.10971e-05,3.20473e-07,0
-3.35761e-05,2.4615e-05,-1.15668e-06,4.24198e-05,1.48124e-05,-9.48187e-06,1.71803e-05,2.74815e-06,0
-3.43275e-05,2.48688e-05,-1.15026e-06,2.67403e-05,1.6193e-05,-9.83065e-06,1.36179e-05,4.58578e-06,0
-3.34663e-05,2.56386e-05,-2.2207e-06,7.64812e-06,1.6233e-05,-9.09256e-06,1.3945e-05,4.89055e-06,0
-3.18879e-05,2.54787e-05,-3.81919e-06,-7.9225e-06,1.58796e-05,-7.98581e-06,1.6147e-05,4.57289e-06,0
-3.14317e-05,2.31941e-05,-4.43087e-06,-1.35928e-05,1.62143e-05,-7.66838e-06,1.80899e-05,3.8829e-06,0
-3.24558e-05,1.89902e-05,-3.18432e-06,-1.18251e-05,1.69501e-05,-8.16182e-06,1.87704e-05,2.28845e-06,0
-3.31722e-05,1.50336e-05,-1.96032e-06,-1.08842e-05,1.70123e-05,-8.74033e-06,1.79023e-05,1.05122e-06,0
-3.24316e-05,1.33455e-05,-1.79317e-06,-1.49362e-05,1.66562e-05,-9.10056e-06,1.63114e-05,2.10248e-06,0
-3.10281e-05,1.3744e-05,-2.20602e-06,-2.12972e-05,1.72235e-05,-9.86308e-06,1.56768e-05,3.55853e-06,0
-2.97479e-05,1.53456e-05,-2.48817e-06,-2.4363e-05,1.85127e-05,-1.08613e-05,1.62138e-05,2.58384e-06,0
-2.93781e-05,1.73686e-05,-3.2936e-06,-2.11036e-05,1.87537e-05,-1.01398e-05,1.75304e-05,-3.99933e-07,0
-2.9641e-05,1.83878e-05,-4.98844e-06,-1.36777e-05,1.79716e-05,-8.36475e-06,1.92294e-05,-1.10697e-06,0
-2.91619e-05,1.70568e-05,-6.65437e-06,-4.11976e-06,1.84508e-05,-8.33316e-06,1.94533e-05,-1.18228e-07,0
-2.83881e-05,1.51369e-05,-6.88749e-06,5.08125e-06,2.18152e-05,-9.9864e-06,1.7793e-05,-4.79185e-07,0
-2.79553e-05,1.54577e-05,-5.0629e-06,1.14098e-05,2.45337e-05,-1.09772e-05,1.69674e-05,-1.51373e-06,0
-2.88302e-05,1.66262e-05,-3.22133e-06,1.27667e-05,2.35942e-05,-1.17501e-05,1.84292e-05,-2.40435e-06,0
-3.11185e-05,1.6339e-05,-3.84279e-06,8.4875e-06,2.28486e-05,-1.19144e-05,1.98888e-05,-3.69974e-06,0
-3.30525e-05,1.59692e-05,-4.83832e-06,1.83786e-06,2.3634e-05,-1.04355e-05,2.04372e-05,-4.2561e-06,0
-3.17957e-05,1.63209e-05,-3.72057e-06,-1.44191e-06,2.26632e-05,-1.03852e-05,2.09989e-05,-4.64075e-06,0
-2.81124e-05,1.69986e-05,-2.32744e-06,-1.18884e-06,2.22656e-05,-1.24044e-05,1.90322e-05,-4.63604e-06,0
-2.69414e-05,1.79634e-05,-3.00433e-06,-1.39887e-06,2.37048e-05,-1.30829e-05,1.18008e-05,-3.62185e-06,0
-2.88099e-05,1.80522e-05,-5.36528e-06,-6.90458e-07,2.42432e-05,-1.12424e-05,2.56178e-06,-3.56451e-06,0
-2.89237e-05,1.62997e-05,-7.95766e-06,1.41178e-06,2.3609e-05,-1.07824e-05,-4.4036e-06,-2.54193e-06,0
-2.61568e-05,1.62371e-05,-9.30586e-06,1.29241e-06,2.29633e-05,-1.27247e-05,-6.74723e-06,-1.00614e-06,0
-2.55195e-05,1.85622e-05,-9.17388e-06,-7.46573e-07,2.36374e-05,-1.4323e-05,-4.50642e-06,-6.82752e-07,0
-2.7763e-05,1.96648e-05,-7.87171e-06,-2.77531e-06,2.42783e-05,-1.58814e-05,1.11596e-06,-1.31764e-06,0
-3.02696e-05,1.82446e-05,-5.87523e-06,-2.5453e-06,2.40885e-05,-1.79635e-05,8.31093e-06,-2.29857e-06,0
-3.19949e-05,1.6248e-05,-5.34608e-06,-1.76242e-06,2.33977e-05,-1.93009e-05,1.57101e-05,-3.35072e-06,0
-3.20896e-05,1.51829e-05,-6.95146e-06,-2.13017e-06,2.2564e-05,-1.96376e-05,2.25737e-05,-3.48919e-06,0
-3.07914e-05,1.36583e-05,-8.00683e-06,-2.97372e-06,2.06153e-05,-1.96407e-05,2.73963e-05,-2.58635e-06,0
-2.97179e-05,1.19388e-05,-7.33443e-06,-3.08355e-06,1.87975e-05,-1.924e-05,3.07497e-05,-1.97027e-06,0
-3.00661e-05,1.06496e-05,-7.09826e-06,-3.38835e-07,1.87003e-05,-1.87821e-05,3.44552e-05,-2.55934e-06,0
-3.11313e-05,9.83656e-06,-8.61171e-06,8.14119e-06,1.87203e-05,-1.87614e-05,3.77784e-05,-3.96702e-06,0
-3.26755e-05,9.2954e-06,-1.07339e-05,1.97113e-05,1.70309e-05,-1.87747e-05,3.83819e-05,-3.93313e-06,0
-3.41865e-05,8.15605e-06,-1.13467e-05,2.65735e-05,1.46017e-05,-1.98397e-05,3.55897e-05,-2.28975e-06,0
-3.383e-05,6.70405e-06,-1.06392e-05,2.50999e-05,1.44749e-05,-2.13578e-05,2.79295e-05,1.92659e-07,0
-3.14415e-05,7.67971e-06,-9.2082e-06,1.65103e-05,1.6405e-05,-2.06429e-05,1.64157e-05,2.93812e-06,0
-2.96718e-05,1.02041e-05,-8.17009e-06,7.84566e-06,1.83958e-05,-1.93932e-05,5.73746e-06,3.43503e-06,0
-2.99609e-05,1.05316e-05,-7.24912e-06,2.24342e-06,1.82179e-05,-1.95752e-05,4.42617e-07,-2.08696e-07,0
-3.09199e-05,8.02583e-06,-5.79792e-06,-1.62472e-06,1.66077e-05,-1.95892e-05,2.6149e-06,-3.44485e-06,0
-3.06313e-05,5.30819e-06,-6.71353e-06,-3.34835e-06,1.5821e-05,-1.87499e-05,1.10046e-05,-3.13398e-06,0
-2.99954e-05,4.989e-06,-9.44427e-06,-5.21843e-06,1.43585e-05,-1.75771e-05,1.90311e-05,-1.82415e-06,0
-2.97863e-05,7.4516e-06,-1.10078e-05,-1.15948e-05,1.21036e-05,-1.70614e-05,1.96842e-05,-1.41503e-06,0
-2.91021e-05,1.01526e-05,-1.09991e-05,-2.29514e-05,1.02664e-05,-1.64828e-05,1.43463e-05,-1.30953e-06,0
-2.89846e-05,8.99731e-06,-1.03124e-05,-3.04595e-05,9.64777e-06,-1.586e-05,9.57321e-06,-1.51666e-07,0
-2.88285e-05,6.74962e-06,-9.444e-06,-2.94331e-05,9.56469e-06,-1.53877e-05,9.86722e-06,2.12195e-07,0
-2.83827e-05,7.50077e-06,-9.86514e-06,-2.73773e-05,8.92918e-06,-1.3614e-05,1.25344e-05,-7.35635e-07,0
-2.79233e-05,1.13127e-05,-1.11227e-05,-2.83645e-05,8.2221e-06,-1.15388e-05,1.31071e-05,1.89593e-07,0
-2.73898e-05,1.60434e-05,-1.23181e-05,-3.06103e-05,7.10606e-06,-9.31129e-06,1.05813e-05,2.64161e-06,0
-2.73927e-05,1.84953e-05,-1.41581e-05,-3.11581e-05,4.96536e-06,-8.11652e-06,8.83048e-06,4.06023e-06,0
-2.6932e-05,1.71539e-05,-1.41979e-05,-2.99037e-05,2.83626e-06,-7.08987e-06,1.05523e-05,4.40278e-06,0
-2.78142e-05,1.26761e-05,-1.36871e-05,-2.58389e-05,3.55402e-06,-6.25296e-06,1.33108e-05,3.16709e-06,0
-3.01028e-05,8.81424e-06,-1.40853e-05,-1.91987e-05,4.78031e-06,-5.91564e-06,1.48688e-05,9.26555e-07,0
-3.07825e-05,8.65655e-06,-1.43445e-05,-1.01351e-05,5.71548e-06,-4.93787e-06,1.41302e-05,-1.08563e-06,0
-2.98175e-05,9.87791e-06,-1.41138e-05,-8.09581e-08,6.73699e-06,-4.25247e-06,1.23466e-05,-1.27191e-06,0
-2.90954e-05,8.80125e-06,-1.33041e-05,7.42785e-06,6.95942e-06,-4.3467e-06,1.16353e-05,3.96813e-07,0
-2.92903e-05,6.58368e-06,-1.22582e-05,1.1244e-05,5.54429e-06,-5.70861e-06,1.24879e-05,2.52762e-06,0
-2.98887e-05,5.35165e-06,-1.21925e-05,1.07854e-05,3.72614e-06,-6.17362e-06,1.31111e-05,3.47314e-06,0
-3.09333e-05,6.54103e-06,-1.36449e-05,6.71304e-06,4.9983e-06,-5.33503e-06,1.20956e-05,2.79376e-06,0
-3.16101e-05,8.87614e-06,-1.49215e-05,1.8109e-06,9.1675e-06,-4.70218e-06,1.0868e-05,1.3115e-06,0
-3.18718e-05,9.73813e-06,-1.47577e-05,-3.33479e-07,1.39143e-05,-5.66135e-06,1.1962e-05,-4.34888e-07,0
-3.09808e-05,9.01981e-06,-1.35697e-05,-3.44488e-06,1.62139e-05,-7.751e-06,1.38891e-05,-1.24653e-06,0
-2.92461e-05,9.00267e-06,-1.26375e-05,-1.14489e-05,1.50645e-05,-1.03642e-05,1.31453e-05,-2.31499e-07,0
-2.88732e-05,1.15731e-05,-1.12763e-05,-1.91335e-05,1.24885e-05,-1.3482e-05,9.7963e-06,2.44626e-06,0
-2.87082e-05,1.81314e-05,-9.8814e-06,-1.92206e-05,1.15889e-05,-1.53539e-05,8.22374e-06,4.00447e-06,0
-2.59755e-05,3.19536e-05,-1.00173e-05,-1.34211e-05,1.1526e-05,-1.49959e-05,1.05578e-05,3.48116e-06,0
-2.20305e-05,4.91633e-05,-1.11353e-05,-6.93127e-06,1.14521e-05,-1.40169e-05,1.41007e-05,2.32692e-06,0
-2.10726e-05,5.94815e-05,-1.02189e-05,-2.5411e-06,1.25543e-05,-1.38987e-05,1.38205e-05,1.91304e-06,0
-2.35746e-05,5.91764e-05,-1.01208e-05,2.03331e-07,1.44744e-05,-1.41401e-05,9.72498e-06,2.08471e-06,0
-2.85072e-05,5.02313e-05,-1.27138e-05,3.42157e-06,1.47119e-05,-1.25888e-05,7.64255e-06,1.95923e-06,0
-3.38635e-05,3.40608e-05,-1.39191e-05,7.35202e-06,1.19145e-05,-8.83437e-06,8.30907e-06,1.48706e-06,0
-3.54752e-05,1.78128e-05,-1.36753e-05,9.99935e-06,9.17437e-06,-5.93529e-06,1.07267e-05,2.04967e-06,0
-3.38028e-05,7.17866e-06,-1.31676e-05,1.14735e-05,9.42999e-06,-4.4754e-06,1.19116e-05,6.24921e-07,0
-3.15309e-05,-4.81218e-07,-1.35512e-05,1.10152e-05,1.13517e-05,-3.60313e-06,1.23389e-05,-1.80293e-06,0
-3.10366e-05,-8.36033e-06,-1.5376e-05,7.55371e-06,1.39659e-05,-3.64434e-06,1.35362e-05,-2.18293e-07,0
-3.22356e-05,-1.46587e-05,-1.58595e-05,2.42954e-06,1.41764e-05,-4.49365e-06,1.28797e-05,2.94224e-06,0
-3.20477e-05,-1.45198e-05,-1.42001e-05,-1.36711e-06,1.1877e-05,-5.05195e-06,1.09211e-05,3.98526e-06,0
-3.09405e-05,-1.13386e-05,-1.24338e-05,-2.15203e-06,1.05261e-05,-4.58903e-06,9.65838e-06,2.64865e-06,0
-3.06287e-05,-8.584e-06,-1.1197e-05,-3.66719e-06,9.92751e-06,-4.25094e-06,9.12171e-06,2.07161e-06,0
-3.08299e-05,-5.43314e-06,-1.0646e-05,-4.7754e-06,9.46124e-06,-4.391e-06,8.67698e-06,2.58655e-06,0
-3.07862e-05,-2.19994e-06,-8.9235e-06,-2.50408e-06,1.0068e-05,-3.49493e-06,8.66517e-06,2.41614e-06,0
-3.07219e-05,-3.49819e-07,-6.11594e-06,1.6842e-06,1.22714e-05,-1.50641e-06,7.66287e-06,1.51378e-06,0
-2.98768e-05,-2.74212e-06,-5.09399e-06,4.07166e-06,1.40313e-05,-9.56404e-07,5.92311e-06,3.20988e-07,0
-2.89445e-05,-7.34326e-06,-6.01852e-06,3.81871e-06,1.37722e-05,-2.65261e-06,5.21159e-06,-9.96706e-07,0
-3.03467e-05,-1.00793e-05,-6.45486e-06,1.96297e-06,1.22677e-05,-4.67879e-06,3.35628e-06,-1.20834e-06,0
-3.30485e-05,-8.89711e-06,-5.50613e-06,-6.25027e-07,1.20046e-05,-5.36547e-06,-6.18094e-06,3.11042e-07,0
-3.4174e-05,-4.0173e-06,-4.47052e-06,-4.03052e-06,1.24989e-05,-4.82073e-06,-2.55457e-05,1.89919e-06,0
-3.35289e-05,3.03691e-06,-4.16939e-06,-7.78414e-06,1.28666e-05,-4.64661e-06,-4.38191e-05,2.31646e-06,0
-3.30047e-05,1.0504e-05,-4.4931e-06,-9.59761e-06,1.32034e-05,-5.67163e-06,-4.71094e-05,2.83313e-06,0
-3.29944e-05,1.87056e-05,-5.63471e-06,-8.78951e-06,1.35763e-05,-7.57845e-06,-3.396e-05,3.96335e-06,0
-3.22498e-05,3.00459e-05,-7.55707e-06,-7.03159e-06,1.3792e-05,-9.32645e-06,-1.39328e-05,4.20259e-06,0
-3.13447e-05,3.99077e-05,-8.71665e-06,-5.60368e-06,1.47586e-05,-1.08329e-05,3.63892e-06,2.90694e-06,0
-3.14868e-05,4.22577e-05,-8.88597e-06,-5.72345e-06,1.67344e-05,-1.17119e-05,1.60717e-05,1.19598e-06,0
-3.06067e-05,3.84968e-05,-8.63596e-06,-1.01925e-05,1.74179e-05,-1.18605e-05,2.4725e-05,-9.05478e-07,0
-2.82496e-05,3.0326e-05,-7.82806e-06,-1.52597e-05,1.55401e-05,-1.23061e-05,3.1758e-05,-3.36487e-06,0
-2.68402e-05,2.0585e-05,-6.14169e-06,-1.37377e-05,1.23845e-05,-1.24099e-05,3.68696e-05,-3.55639e-06,0
-2.7758e-05,1.04126e-05,-4.62025e-06,-6.92824e-06,1.15486e-05,-1.09437e-05,3.81737e-05,-2.00802e-06,0
-2.92043e-05,-1.83702e-06,-5.55455e-06,4.34863e-06,1.53213e-05,-8.11624e-06,3.58566e-05,3.32803e-07,0
-2.94755e-05,-1.34883e-05,-7.57685e-06,2.06901e-05,1.98744e-05,-3.85419e-06,3.12475e-05,2.39201e-06,0
-2.97032e-05,-2.12506e-05,-9.67343e-06,3.3354e-05,2.1892e-05,-9.16691e-07,2.75039e-05,1.66782e-06,0
-3.05583e-05,-2.45886e-05,-1.14735e-05,3.46081e-05,2.16274e-05,-2.23895e-06,2.59237e-05,5.59563e-07,0
-3.20579e-05,-2.24963e-05,-1.22305e-05,2.4818e-05,2.0229e-05,-4.73397e-06,2.56324e-05,3.15957e-07,0
-3.35661e-05,-1.45625e-05,-1.38301e-05,1.32923e-05,1.79585e-05,-5.01993e-06,2.59423e-05,7.6905e-07,0
-3.42721e-05,-6.24402e-06,-1.47498e-05,3.9283e-06,1.52147e-05,-3.31385e-06,2.54842e-05,2.16207e-06,0
-3.28733e-05,-2.90744e-08,-1.46268e-05,-4.44556e-06,1.472e-05,-1.89336e-06,2.41028e-05,2.31273e-06,0
-3.06093e-05,6.25388e-06,-1.29798e-05,-1.09351e-05,1.58345e-05,-1.42492e-06,2.21937e-05,3.2989e-07,0
-2.93174e-05,1.14254e-05,-9.60391e-06,-1.37073e-05,1.63311e-05,-3.09531e-07,2.08869e-05,-1.0483e-06,0
-2.95428e-05,1.38116e-05,-7.50381e-06,-1.14743e-05,1.61278e-05,1.05234e-06,1.98105e-05,9.8253e-07,0
-3.05721e-05,1.44296e-05,-8.35544e-06,-7.72439e-06,1.72374e-05,2.65487e-06,1.7044e-05,3.82891e-06,0
-3.05713e-05,1.44527e-05,-9.98332e-06,-1.00371e-08,1.8478e-05,3.49352e-06,1.35078e-05,5.4435e-06,0
-2.96453e-05,1.46935e-05,-9.87545e-06,1.30933e-05,1.84233e-05,1.81614e-06,1.00255e-05,5.7799e-06,0
-2.96165e-05,1.52582e-05,-9.41221e-06,2.43088e-05,1.62443e-05,-3.97464e-07,7.53331e-06,6.45217e-06,0
-3.09506e-05,1.45621e-05,-9.81712e-06,2.34631e-05,1.32667e-05,-4.12477e-07,7.60345e-06,7.06646e-06,0
-3.16419e-05,1.29845e-05,-9.64452e-06,8.67868e-06,1.08929e-05,1.89696e-06,9.60538e-06,6.13647e-06,0
-3.14855e-05,1.25095e-05,-7.29608e-06,-1.00905e-05,9.26787e-06,4.16989e-06,1.17962e-05,5.3994e-06,0
-3.08957e-05,1.30355e-05,-5.11752e-06,-2.26535e-05,8.58373e-06,5.19948e-06,1.36368e-05,5.86048e-06,0
-3.00558e-05,1.25327e-05,-4.42067e-06,-2.87762e-05,8.33973e-06,4.39674e-06,1.53246e-05,7.07618e-06,0
-2.95226e-05,1.03281e-05,-4.28542e-06,-3.03161e-05,8.1591e-06,1.07141e-06,1.66372e-05,9.205e-06,0
-2.91694e-05,8.97992e-06,-4.1833e-06,-2.63607e-05,7.13649e-06,-3.34725e-06,1.64216e-05,1.19455e-05,0
-2.9184e-05,1.09868e-05,-3.68689e-06,-2.14098e-05,7.18645e-06,-5.39555e-06,1.49884e-05,1.23284e-05,0
-2.98833e-05,1.53512e-05,-2.86335e-06,-2.26568e-05,8.15292e-06,-4.86202e-06,1.44806e-05,9.02322e-06,0
-3.09865e-05,1.9953e-05,-2.71898e-06,-3.31842e-05,7.40938e-06,-3.846e-06,1.38746e-05,5.89025e-06,0
-3.23698e-05,2.36539e-05,-1.57388e-06,-4.8933e-05,5.10176e-06,-3.23799e-06,1.20046e-05,5.85635e-06,0
-3.28703e-05,2.33917e-05,7.79052e-07,-5.93875e-05,3.64011e-06,-3.00428e-06,1.02076e-05,5.89551e-06,0
-3.16832e-05,2.06285e-05,1.59745e-06,-5.82792e-05,4.52625e-06,-3.85083e-06,9.68686e-06,4.34861e-06,0
-2.95805e-05,2.03512e-05,2.62252e-07,-4.85818e-05,6.45385e-06,-4.17449e-06,1.01682e-05,2.59419e-06,0
-2.85102e-05,2.12147e-05,-5.40747e-07,-3.58174e-05,7.45274e-06,-3.02437e-06,1.05312e-05,1.36168e-06,0
-2.78493e-05,1.95137e-05,6.59695e-07,-2.26452e-05,8.93488e-06,-3.65218e-06,1.22851e-05,8.44913e-07,0
-2.6587e-05,1.54786e-05,1.5828e-06,-9.90623e-06,1.14104e-05,-5.9462e-06,1.43428e-05,1.70422e-06,0
-2.50901e-05,1.1891e-05,-3.42646e-07,1.70765e-06,1.44805e-05,-7.21907e-06,1.47939e-05,2.52239e-06,0
-2.56685e-05,9.60219e-06,-4.04038e-06,1.18524e-05,1.49477e-05,-6.62052e-06,1.31808e-05,2.28034e-06,0
-2.86658e-05,7.30983e-06,-7.11221e-06,1.73551e-05,1.24381e-05,-5.33068e-06,1.02209e-05,3.20533e-07,0
-3.10961e-05,3.94949e-06,-9.69063e-06,1.93329e-05,1.05818e-05,-3.68354e-06,9.51182e-06,-8.70896e-07,0
-3.22195e-05,9.83473e-07,-1.08714e-05,1.70265e-05,9.24343e-06,-2.96115e-06,1.09407e-05,-8.61649e-07,0
-3.185e-05,-3.73759e-07,-1.12496e-05,9.54849e-06,6.52342e-06,-4.46133e-06,1.24204e-05,-1.23578e-06,0
-3.15508e-05,1.61284e-06,-1.28813e-05,1.59272e-06,3.84357e-06,-7.08786e-06,1.17447e-05,-2.28162e-06,0
-3.20267e-05,5.27971e-06,-1.56026e-05,-3.61085e-06,3.10709e-06,-8.90837e-06,1.04465e-05,-4.16493e-06,0
-3.1903e-05,7.40654e-06,-1.69353e-05,-3.59719e-06,4.10499e-06,-8.90717e-06,1.01342e-05,-5.3555e-06,0
-3.14267e-05,8.83731e-06,-1.62407e-05,8.39642e-07,5.74228e-06,-8.53956e-06,1.14916e-05,-4.70563e-06,0
-3.21893e-05,9.86304e-06,-1.39306e-05,7.04753e-06,6.61777e-06,-8.29759e-06,1.43217e-05,-1.82514e-06,0
-3.3312e-05,1.07109e-05,-1.13927e-05,1.17352e-05,7.19483e-06,-8.92605e-06,1.64097e-05,1.12813e-07,0
-3.3283e-05,1.15947e-05,-1.07064e-05,1.0264e-05,8.00077e-06,-1.02661e-05,1.67018e-05,-5.47301e-07,0
-3.12554e-05,1.19678e-05,-1.16246e-05,1.03893e-06,9.47998e-06,-1.09915e-05,1.57762e-05,-2.09234e-06,0
-2.91359e-05,1.22829e-05,-1.19547e-05,-1.04866e-05,1.088e-05,-1.13557e-05,1.5157e-05,-1.86164e-06,0
-2.91005e-05,1.34086e-05,-1.03592e-05,-2.09116e-05,1.05578e-05,-1.22421e-05,1.46205e-05,-1.38265e-06,0
-2.93407e-05,1.30261e-05,-8.37787e-06,-3.13973e-05,8.64779e-06,-1.43266e-05,1.46525e-05,-1.93855e-06,0
-2.79005e-05,1.12623e-05,-6.49592e-06,-4.13778e-05,8.84429e-06,-1.55507e-05,1.47304e-05,-2.11942e-06,0
-2.74407e-05,1.10493e-05,-5.03763e-06,-4.73263e-05,1.1952e-05,-1.42367e-05,1.35515e-05,-1.29877e-06,0
-2.81353e-05,1.4471e-05,-5.78337e-06,-4.75578e-05,1.51579e-05,-1.25584e-05,1.06874e-05,-5.35693e-07,0
-2.71664e-05,1.89181e-05,-6.90402e-06,-4.33976e-05,1.5749e-05,-1.2798e-05,8.49959e-06,-1.32519e-07,0
-2.69066e-05,1.96118e-05,-7.15941e-06,-3.62297e-05,1.44553e-05,-1.33205e-05,6.82008e-06,4.06072e-07,0
-2.80749e-05,1.70321e-05,-7.12954e-06,-2.72418e-05,1.28912e-05,-1.2123e-05,5.78061e-06,1.64977e-07,0
-2.8825e-05,1.47063e-05,-6.06349e-06,-1.84915e-05,1.32998e-05,-9.64223e-06,8.18345e-06,-1.30827e-06,0
-2.95152e-05,1.55998e-05,-5.63993e-06,-9.72316e-06,1.53254e-05,-9.25631e-06,1.0709e-05,-3.14621e-06,0
-3.0653e-05,1.57653e-05,-6.86423e-06,1.62501e-06,1.64182e-05,-1.12433e-05,6.41922e-06,-5.00867e-06,0
-3.11758e-05,1.50046e-05,-7.56999e-06,1.77521e-05,1.76004e-05,-1.21071e-05,-7.52219e-06,-4.42225e-06,0
-3.17622e-05,1.65705e-05,-6.15493e-06,3.72514e-05,2.01652e-05,-1.14844e-05,-2.09242e-05,-2.51013e-06,0
-3.19315e-05,1.94301e-05,-4.5623e-06,5.72005e-05,2.14638e-05,-1.08693e-05,-2.3472e-05,-2.86663e-06,0
-3.05188e-05,2.07415e-05,-5.00553e-06,7.98206e-05,1.94439e-05,-1.1273e-05,-1.50981e-05,-2.71748e-06,0
-3.00247e-05,1.84914e-05,-6.48873e-06,9.68212e-05,1.61915e-05,-1.14086e-05,-5.74833e-07,-2.75528e-06,0
-3.12685e-05,1.761e-05,-7.69714e-06,9.71112e-05,1.30949e-05,-1.11343e-05,1.4046e-05,-4.19618e-06,0
-3.25154e-05,2.07807e-05,-8.25968e-06,8.09466e-05,1.22686e-05,-1.0906e-05,2.73238e-05,-4.1729e-06,0
-3.26578e-05,2.54284e-05,-7.22759e-06,5.83205e-05,1.31546e-05,-1.09847e-05,3.52571e-05,-3.00495e-06,0
-3.07153e-05,2.77628e-05,-5.44312e-06,4.08482e-05,1.3865e-05,-1.16259e-05,2.8675e-05,-2.83932e-06,0
-2.80017e-05,2.68829e-05,-4.82247e-06,3.2723e-05,1.37637e-05,-1.22317e-05,3.42385e-06,-3.17099e-06,0
-2.75587e-05,2.46086e-05,-5.8443e-06,2.99471e-05,1.4348e-05,-1.24105e-05,-2.31994e-05,-3.07609e-06,0
-2.88154e-05,2.37526e-05,-7.34351e-06,2.74676e-05,1.65869e-05,-1.34629e-05,-2.96906e-05,-3.20814e-06,0
-3.00216e-05,2.42496e-05,-7.74727e-06,2.4546e-05,1.97897e-05,-1.49936e-05,-1.18611e-05,-3.99986e-06,0
-3.11935e-05,2.26242e-05,-6.36979e-06,1.81879e-05,2.18382e-05,-1.50406e-05,2.26993e-05,-4.51296e-06,0
-3.17655e-05,1.913e-05,-4.77544e-06,5.90679e-06,2.18176e-05,-1.54677e-05,6.20065e-05,-4.83951e-06,0
-2.96691e-05,1.71294e-05,-4.73094e-06,-8.72576e-06,2.11192e-05,-1.6865e-05,9.37118e-05,-4.89034e-06,0
-2.63918e-05,1.80527e-05,-6.37801e-06,-1.86198e-05,2.02141e-05,-1.77311e-05,0.000109394,-5.0265e-06,0
-2.567e-05,1.97935e-05,-9.07101e-06,-2.40403e-05,1.99446e-05,-1.67881e-05,0.000107279,-5.45618e-06,0
-2.77853e-05,1.92868e-05,-1.08894e-05,-3.01628e-05,2.10769e-05,-1.44573e-05,9.18902e-05,-4.53822e-06,0
-2.93516e-05,1.44357e-05,-1.11422e-05,-3.71447e-05,2.18849e-05,-1.2399e-05,7.19473e-05,-2.67476e-06,0
-2.87199e-05,9.81079e-06,-1.04673e-05,-4.29956e-05,2.04019e-05,-1.13705e-05,5.04234e-05,-2.57967e-06,0
-2.83731e-05,8.58452e-06,-1.12428e-05,-4.72108e-05,1.67296e-05,-1.18663e-05,2.77945e-05,-3.11287e-06,0
-2.83653e-05,8.54255e-06,-1.3038e-05,-4.47723e-05,1.2799e-05,-1.34473e-05,6.14287e-06,-3.39472e-06,0
-2.80899e-05,8.43626e-06,-1.19114e-05,-3.69071e-05,1.02263e-05,-1.37172e-05,-1.24176e-05,-1.71474e-06,0
-2.77246e-05,7.96415e-06,-8.68118e-06,-3.08248e-05,1.01761e-05,-1.27084e-05,-2.36453e-05,1.35932e-06,0
-2.79318e-05,6.70643e-06,-5.95713e-06,-2.70169e-05,1.28831e-05,-1.29085e-05,-2.46756e-05,1.79752e-06,0
-2.83331e-05,5.98404e-06,-4.78903e-06,-2.3921e-05,1.32595e-05,-1.4052e-05,-1.88716e-05,1.60807e-06,0
-2.75382e-05,6.93725e-06,-4.60472e-06,-2.08515e-05,1.11016e-05,-1.48957e-05,-1.06751e-05,3.10939e-06,0
-2.74234e-05,6.38403e-06,-4.94312e-06,-2.09941e-05,1.03648e-05,-1.54845e-05,-6.61219e-06,6.55714e-06,0
-2.99406e-05,4.43422e-06,-5.92621e-06,-2.54271e-05,1.21852e-05,-1.56217e-05,-5.22241e-06,7.79823e-06,0
-3.16186e-05,5.05644e-06,-7.43456e-06,-2.96093e-05,1.62571e-05,-1.49904e-05,-5.28512e-06,5.89069e-06,0
-3.10567e-05,6.39852e-06,-8.4359e-06,-2.94335e-05,2.25793e-05,-1.32066e-05,-5.56363e-06,4.6913e-06,0
-2.92814e-05,6.1996e-06,-7.8593e-06,-2.44378e-05,2.79802e-05,-1.08967e-05,-2.49288e-06,6.10972e-06,0
-2.70515e-05,6.07709e-06,-7.23242e-06,-1.70107e-05,2.91197e-05,-9.36479e-06,1.76649e-06,8.06329e-06,0
-2.65633e-05,6.1012e-06,-5.71977e-06,-4.1768e-06,2.59021e-05,-9.20913e-06,3.88008e-06,8.37658e-06,0
-2.68084e-05,5.76931e-06,-2.99863e-06,1.16357e-05,2.03938e-05,-1.00418e-05,1.92942e-06,7.92753e-06,0
-2.76119e-05,4.84338e-06,-9.08451e-07,2.08682e-05,1.52325e-05,-9.99182e-06,-5.55771e-07,7.48169e-06,0
-2.86009e-05,4.17436e-06,-1.21258e-06,1.87109e-05,1.21584e-05,-8.40737e-06,-1.30459e-06,7.12071e-06,0
-2.92232e-05,3.50823e-06,-2.99202e-06,8.89277e-06,1.17833e-05,-7.31877e-06,2.8879e-07,6.73419e-06,0
-3.05829e-05,2.48529e-06,-4.58873e-06,3.35455e-08,1.32669e-05,-8.73274e-06,2.98565e-06,6.25037e-06,0
-3.32394e-05,1.7745e-06,-6.23068e-06,-2.48175e-06,1.51659e-05,-1.18022e-05,5.51907e-06,5.35167e-06,0
-3.46767e-05,2.34072e-06,-8.02557e-06,3.58436e-06,1.57419e-05,-1.39763e-05,7.13087e-06,4.99008e-06,0
-3.38152e-05,4.40511e-06,-8.5727e-06,1.64129e-05,1.51634e-05,-1.32894e-05,8.48959e-06,5.02974e-06,0
-3.27969e-05,6.64213e-06,-7.51567e-06,2.62742e-05,1.24803e-05,-1.19744e-05,8.33794e-06,4.2549e-06,0
-3.26733e-05,7.48809e-06,-7.61365e-06,1.90829e-05,9.20879e-06,-1.26776e-05,6.20422e-06,2.02798e-06,0
-3.27288e-05,6.2655e-06,-8.47119e-06,-3.59534e-06,7.70634e-06,-1.37587e-05,4.13753e-08,2.67931e-07,0
-3.23145e-05,4.91719e-06,-9.1034e-06,-2.49369e-05,7.27369e-06,-1.40166e-05,-1.07252e-05,-3.8603e-07,0
-3.17849e-05,5.8547e-06,-9.98749e-06,-3.39692e-05,8.94409e-06,-1.44774e-05,-2.01198e-05,-6.9886e-08,0
-3.13939e-05,9.56402e-06,-1.13893e-05,-3.4602e-05,1.36034e-05,-1.43532e-05,-2.06143e-05,5.62526e-07,0
-3.18289e-05,1.35983e-05,-1.17338e-05,-3.41125e-05,1.76257e-05,-1.36035e-05,-1.36648e-05,1.05264e-06,0
-3.28995e-05,1.65247e-05,-9.27731e-06,-3.28306e-05,1.95891e-05,-1.26303e-05,-5.49162e-06,4.52121e-07,0
-3.24092e-05,1.81789e-05,-5.95335e-06,-2.1004e-05,1.99507e-05,-1.10716e-05,1.23948e-06,-9.78268e-07,0
-3.06809e-05,1.9095e-05,-3.8116e-06,-1.31542e-06,2.04774e-05,-9.05913e-06,7.42439e-06,-1.6264e-06,0
-2.89653e-05,2.03659e-05,-1.85955e-06,1.43841e-05,2.17119e-05,-8.82305e-06,1.52621e-05,-1.34701e-06,0
-2.68544e-05,2.18889e-05,-9.37268e-07,2.20762e-05,2.2171e-05,-1.06402e-05,2.21639e-05,3.28254e-07,0
-2.86249e-05,2.35396e-05,-1.88604e-06,2.0925e-05,2.02359e-05,-1.15629e-05,2.69705e-05,1.93769e-06,0
-3.13882e-05,2.42821e-05,-3.80555e-06,1.0192e-05,1.60915e-05,-1.20038e-05,2.96997e-05,2.63422e-06,0
-3.11029e-05,2.39037e-05,-6.37652e-06,-1.07591e-05,1.27241e-05,-1.24708e-05,3.27093e-05,2.03321e-06,0
-3.10966e-05,2.48995e-05,-7.83369e-06,-2.88068e-05,1.12088e-05,-1.30137e-05,3.32334e-05,1.5652e-06,0
-3.2057e-05,2.75183e-05,-8.0542e-06,-3.27106e-05,1.00109e-05,-1.1869e-05,3.06916e-05,7.79251e-07,0
-3.25014e-05,2.9922e-05,-7.96074e-06,-2.60216e-05,8.46597e-06,-1.11194e-05,2.66939e-05,-6.48994e-07,0
-3.22049e-05,3.1339e-05,-8.63121e-06,-2.10038e-05,7.59559e-06,-1.25968e-05,2.29989e-05,-1.91866e-06,0
-3.19288e-05,3.11529e-05,-9.32397e-06,-2.41025e-05,6.95434e-06,-1.45145e-05,2.22766e-05,-1.84009e-06,0
-3.15619e-05,2.98792e-05,-9.66442e-06,-2.90234e-05,7.02641e-06,-1.43884e-05,2.31559e-05,-1.28789e-06,0
-3.16727e-05,2.7076e-05,-1.04772e-05,-2.28439e-05,8.07722e-06,-1.14996e-05,2.40507e-05,-2.0644e-06,0
-3.21452e-05,2.28267e-05,-1.12229e-05,-3.37276e-06,9.57636e-06,-9.18239e-06,2.34128e-05,-3.21668e-06,0
-3.24124e-05,1.9198e-05,-1.17637e-05,1.64997e-05,1.03313e-05,-9.23566e-06,2.24182e-05,-4.09707e-06,0
-3.22287e-05,1.88534e-05,-1.25015e-05,2.70346e-05,1.10269e-05,-9.85436e-06,2.16822e-05,-3.86981e-06,0
-3.17971e-05,2.17228e-05,-1.40822e-05,2.71486e-05,1.21332e-05,-9.72322e-06,2.09248e-05,-3.22736e-06,0
-3.17965e-05,2.43047e-05,-1.57113e-05,2.06941e-05,1.31069e-05,-1.08205e-05,1.98646e-05,-3.12569e-06,0
-3.33412e-05,2.43873e-05,-1.66362e-05,1.06898e-05,1.48308e-05,-1.27346e-05,1.96782e-05,-3.96485e-06,0
-3.51862e-05,2.28007e-05,-1.73804e-05,-1.15071e-06,1.63299e-05,-1.35529e-05,2.03879e-05,-5.06438e-06,0
-3.60116e-05,2.1215e-05,-1.82801e-05,-1.05032e-05,1.50106e-05,-1.28876e-05,2.1208e-05,-5.651e-06,0
-3.59015e-05,1.97937e-05,-1.85591e-05,-1.34052e-05,1.22646e-05,-1.26962e-05,2.08882e-05,-4.36925e-06,0
-3.52129e-05,1.76744e-05,-1.89837e-05,-9.97113e-06,1.07865e-05,-1.32732e-05,2.04037e-05,-2.8441e-06,0
-3.4481e-05,1.42166e-05,-1.87019e-05,-1.23775e-06,1.20504e-05,-1.46672e-05,1.89428e-05,-2.27268e-06,0
-3.40531e-05,1.2212e-05,-1.72334e-05,9.31524e-06,1.39097e-05,-1.72392e-05,1.7782e-05,-2.55355e-06,0
-3.28588e-05,1.37856e-05,-1.68924e-05,1.68861e-05,1.65451e-05,-1.98398e-05,1.97412e-05,-3.20325e-06,0
-3.11428e-05,1.67228e-05,-1.70006e-05,1.55169e-05,1.92919e-05,-2.02243e-05,1.79261e-05,-3.17755e-06,0
-3.11557e-05,1.84683e-05,-1.46381e-05,8.64935e-06,1.86074e-05,-1.89218e-05,1.03809e-05,-2.56589e-06,0
-3.06564e-05,1.80469e-05,-1.16416e-05,1.84032e-06,1.64563e-05,-1.86387e-05,3.4393e-06,-1.38802e-06,0
-2.97827e-05,1.63976e-05,-1.01705e-05,-4.08836e-06,1.56544e-05,-1.91312e-05,1.56045e-06,-1.59685e-06,0
-2.97495e-05,1.56306e-05,-8.72087e-06,-6.21185e-06,1.56943e-05,-1.83217e-05,4.95901e-06,-2.28251e-06,0
-2.85075e-05,1.56528e-05,-9.6436e-06,-7.0944e-06,1.32722e-05,-1.7766e-05,9.95841e-06,-1.78207e-06,0
-2.72455e-05,1.51733e-05,-1.12897e-05,-9.97171e-06,9.30582e-06,-1.73534e-05,1.27527e-05,-1.07042e-06,0
-2.72499e-05,1.43426e-05,-1.00718e-05,-1.56386e-05,5.52005e-06,-1.56844e-05,1.2474e-05,3.88567e-08,0
-2.69875e-05,1.28053e-05,-7.99116e-06,-2.12054e-05,4.54788e-06,-1.45711e-05,1.20415e-05,1.46649e-06,0
-2.59781e-05,1.0661e-05,-7.80376e-06,-2.49232e-05,4.71535e-06,-1.45821e-05,1.30024e-05,1.84018e-06,0
-2.56547e-05,8.57868e-06,-9.73157e-06,-2.72108e-05,5.00557e-06,-1.43355e-05,1.32557e-05,2.31993e-06,0
-2.68684e-05,6.70375e-06,-1.16089e-05,-2.86923e-05,5.24918e-06,-1.24778e-05,1.2627e-05,3.72544e-06,0
-2.79249e-05,6.07256e-06,-1.14766e-05,-2.90681e-05,4.29598e-06,-1.05806e-05,1.16788e-05,3.95131e-06,0
-2.81659e-05,6.26102e-06,-9.3737e-06,-2.65183e-05,2.35684e-06,-8.89428e-06,9.94664e-06,2.95271e-06,0
-2.81142e-05,5.18323e-06,-7.52681e-06,-2.31807e-05,5.03971e-07,-7.57607e-06,7.94793e-06,2.51211e-06,0
-2.75037e-05,3.34528e-06,-7.42382e-06,-2.17251e-05,7.37538e-07,-6.99005e-06,8.45702e-06,2.96733e-06,0
-2.74373e-05,1.92873e-06,-8.33062e-06,-2.13335e-05,2.60606e-06,-7.55461e-06,1.23915e-05,4.19587e-06,0
-2.89127e-05,9.21073e-07,-8.09746e-06,-2.04208e-05,4.61249e-06,-8.565e-06,1.57239e-05,5.17688e-06,0
-3.06578e-05,2.27901e-07,-5.69649e-06,-1.72345e-05,4.60296e-06,-9.21079e-06,1.53683e-05,5.30668e-06,0
-3.00643e-05,4.01566e-07,-2.84563e-06,-1.04069e-05,4.14673e-06,-9.04031e-06,1.3293e-05,5.49129e-06,0
-2.6262e-05,1.87352e-06,-2.47455e-06,-1.9947e-06,4.92075e-06,-8.12097e-06,1.2636e-05,5.6385e-06,0
-2.24147e-05,4.17723e-06,-4.9491e-06,5.2476e-06,6.70275e-06,-7.42227e-06,1.30145e-05,6.03436e-06,0
-2.18211e-05,6.47568e-06,-7.04511e-06,1.00694e-05,6.32438e-06,-8.09284e-06,1.14889e-05,7.39372e-06,0
-2.36958e-05,8.41009e-06,-6.35554e-06,1.79864e-05,4.80641e-06,-8.6571e-06,7.94296e-06,8.50931e-06,0
-2.61654e-05,1.18109e-05,-4.30747e-06,3.17195e-05,4.62593e-06,-8.41009e-06,4.82574e-06,8.53016e-06,0
-2.71007e-05,1.67712e-05,-3.06428e-06,3.98059e-05,4.90409e-06,-7.63838e-06,5.48234e-06,7.54285e-06,0
-2.77826e-05,1.98924e-05,-3.94134e-06,3.38934e-05,5.11737e-06,-5.40718e-06,9.60798e-06,5.2078e-06,0
-2.98069e-05,2.21492e-05,-6.77033e-06,2.254e-05,5.66023e-06,-3.1934e-06,1.07069e-05,3.8056e-06,0
-3.16855e-05,2.47382e-05,-8.73241e-06,1.63947e-05,5.73401e-06,-2.41598e-06,8.38711e-06,5.70818e-06,0
-3.19651e-05,2.43352e-05,-9.39297e-06,1.57933e-05,5.31272e-06,-2.49656e-06,8.19834e-06,6.68908e-06,0
-3.01762e-05,2.19765e-05,-9.1655e-06,1.38384e-05,5.64445e-06,-1.7928e-06,8.40062e-06,6.16169e-06,0
-2.92871e-05,1.94038e-05,-7.89137e-06,6.90157e-06,7.2885e-06,-1.34176e-06,6.10042e-06,6.07338e-06,0
-2.87073e-05,1.8496e-05,-8.15966e-06,-2.6746e-06,9.49991e-06,-1.46128e-06,3.76309e-06,5.24955e-06,0
-2.645e-05,1.8945e-05,-8.7657e-06,-1.43814e-05,1.20292e-05,-2.64316e-06,4.27893e-06,4.13104e-06,0
-2.55256e-05,1.84171e-05,-7.69204e-06,-2.91983e-05,1.46655e-05,-4.2125e-06,7.8652e-06,2.75845e-06,0
-2.70455e-05,1.69565e-05,-6.20631e-06,-4.55303e-05,1.63545e-05,-6.07741e-06,1.2501e-05,1.26423e-06,0
-2.86395e-05,1.44775e-05,-5.4996e-06,-5.80931e-05,1.75134e-05,-7.37867e-06,1.55512e-05,-1.20023e-06,0
-3.08595e-05,1.22095e-05,-6.05593e-06,-6.46438e-05,1.85928e-05,-6.69305e-06,1.67399e-05,-2.86493e-06,0
-3.30266e-05,1.05193e-05,-6.00349e-06,-6.51525e-05,1.99435e-05,-5.29232e-06,1.85376e-05,-2.41252e-06,0
-3.37136e-05,1.06286e-05,-4.88402e-06,-6.13714e-05,1.94827e-05,-4.64686e-06,2.04447e-05,-1.10697e-06,0
-3.33679e-05,1.26038e-05,-3.67595e-06,-5.40081e-05,1.72301e-05,-4.95457e-06,2.05637e-05,-4.89476e-07,0
-3.2427e-05,1.48307e-05,-2.27393e-06,-4.4652e-05,1.65491e-05,-5.07266e-06,1.90641e-05,-1.37238e-06,0
-3.22036e-05,1.64807e-05,-1.54802e-06,-3.90456e-05,1.82907e-05,-5.05078e-06,1.79368e-05,-3.41279e-06,0
-3.24055e-05,1.83146e-05,-3.31433e-06,-3.79791e-05,1.939e-05,-4.86417e-06,1.74715e-05,-4.96453e-06,0
-3.12297e-05,2.06837e-05,-6.75754e-06,-3.47368e-05,1.86648e-05,-5.25284e-06,1.64036e-05,-4.9996e-06,0
-2.88336e-05,2.28379e-05,-8.88537e-06,-2.41953e-05,1.86237e-05,-5.46736e-06,1.44035e-05,-4.36013e-06,0
-2.79263e-05,2.40496e-05,-9.26936e-06,-9.92298e-06,1.99602e-05,-5.15369e-06,1.15348e-05,-3.48066e-06,0
-2.89517e-05,2.30648e-05,-1.00998e-05,1.69478e-06,1.99831e-05,-5.00576e-06,9.1408e-06,-3.20248e-06,0
-3.08372e-05,2.08651e-05,-1.14812e-05,8.08145e-06,1.81335e-05,-5.70279e-06,8.82347e-06,-3.25283e-06,0
-3.24778e-05,1.94157e-05,-1.16226e-05,1.12468e-05,1.56383e-05,-7.26473e-06,8.95765e-06,-3.53976e-06,0
-3.38547e-05,2.01201e-05,-1.12268e-05,1.24612e-05,1.2246e-05,-8.67623e-06,8.93542e-06,-2.84196e-06,0
-3.4724e-05,2.74153e-05,-1.11785e-05,1.18748e-05,8.10778e-06,-9.25738e-06,9.86699e-06,-1.16754e-06,0
-3.47609e-05,4.07323e-05,-1.01104e-05,1.10545e-05,5.91822e-06,-9.50818e-06,1.09741e-05,-1.02507e-06,0
-3.33663e-05,5.03672e-05,-8.09503e-06,8.90623e-06,5.5699e-06,-1.01623e-05,1.0753e-05,-1.70478e-06,0
-3.13776e-05,5.36274e-05,-6.14416e-06,3.38025e-06,5.77366e-06,-1.00366e-05,9.90527e-06,-1.52838e-06,0
-3.02723e-05,5.87797e-05,-4.97136e-06,5.87289e-09,7.21205e-06,-9.30396e-06,1.04294e-05,-1.11981e-06,0
-2.9222e-05,6.44983e-05,-4.12855e-06,1.95689e-06,6.97244e-06,-8.24779e-06,1.17379e-05,-2.05032e-06,0
-2.82988e-05,6.24302e-05,-4.10627e-06,7.84324e-06,6.20462e-06,-6.00577e-06,1.24285e-05,-3.30344e-06,0
-2.8523e-05,5.0751e-05,-5.9414e-06,1.71309e-05,7.31098e-06,-6.00495e-06,1.11453e-05,-2.95248e-06,0
-2.95215e-05,2.90317e-05,-7.69996e-06,2.62884e-05,8.50198e-06,-9.63615e-06,9.4932e-06,-3.17478e-06,0
-2.92779e-05,7.92903e-07,-8.07147e-06,3.23367e-05,1.2106e-05,-1.20513e-05,8.24322e-06,-3.60483e-06,0
-2.90108e-05,-2.82889e-05,-7.64125e-06,3.39833e-05,1.71436e-05,-1.09342e-05,6.00868e-06,-3.18761e-06,0
-2.92474e-05,-5.23463e-05,-6.11681e-06,3.0001e-05,2.07506e-05,-7.89758e-06,4.97115e-06,-3.20421e-06,0
-2.97036e-05,-6.76927e-05,-3.81087e-06,2.2022e-05,2.20526e-05,-6.23396e-06,5.79007e-06,-3.20698e-06,0
-3.18595e-05,-7.15632e-05,-4.91511e-06,1.28378e-05,1.9986e-05,-6.57302e-06,6.18553e-06,-1.28753e-06,0
-3.45889e-05,-6.53488e-05,-9.03977e-06,3.35078e-06,1.50774e-05,-7.31895e-06,6.83209e-06,6.68374e-07,0
-3.48001e-05,-5.25096e-05,-1.16232e-05,-4.45175e-06,1.05773e-05,-8.04175e-06,8.39784e-06,4.10955e-07,0
-3.36272e-05,-3.79971e-05,-1.0267e-05,-9.56995e-06,9.59962e-06,-6.76902e-06,9.54319e-06,1.05323e-07,0
-3.42463e-05,-2.70305e-05,-6.97969e-06,-1.50842e-05,1.09276e-05,-3.41071e-06,8.62131e-06,1.27057e-06,0
-3.56662e-05,-2.0406e-05,-5.47841e-06,-2.28112e-05,1.40999e-05,-4.4507e-07,6.39874e-06,2.51112e-06,0
-3.52185e-05,-1.7151e-05,-6.40068e-06,-2.83134e-05,1.86141e-05,1.10284e-06,6.03924e-06,3.0262e-06,0
-3.37995e-05,-1.56166e-05,-8.38158e-06,-2.62122e-05,2.25338e-05,9.12548e-07,9.70172e-06,4.45731e-06,0
-3.41745e-05,-1.51244e-05,-9.63251e-06,-1.65596e-05,2.36956e-05,-5.22681e-07,1.69902e-05,5.84545e-06,0
-3.58635e-05,-1.3234e-05,-8.77859e-06,-4.60618e-06,2.37126e-05,-2.57486e-06,2.52612e-05,6.67561e-06,0
-3.67705e-05,-1.09814e-05,-6.14446e-06,3.30612e-06,2.38998e-05,-3.90104e-06,3.28073e-05,6.26435e-06,0
-3.57547e-05,-9.8095e-06,-4.33405e-06,5.94753e-06,2.34109e-05,-2.69504e-06,3.83038e-05,5.10885e-06,0
-3.32456e-05,-8.65755e-06,-4.63681e-06,6.30445e-06,2.24254e-05,-5.12434e-07,3.8646e-05,5.14034e-06,0
-3.10068e-05,-5.04794e-06,-7.38963e-06,6.28495e-06,2.14135e-05,2.73347e-07,3.32762e-05,5.19559e-06,0
-2.97634e-05,-7.62188e-08,-9.59892e-06,6.19172e-06,2.12212e-05,-1.39696e-06,2.72758e-05,4.5071e-06,0
-2.8477e-05,2.45431e-06,-1.02885e-05,4.74226e-06,2.1092e-05,-2.94751e-06,2.41372e-05,3.36036e-06,0
-2.93669e-05,3.38884e-06,-1.13201e-05,3.39967e-06,2.03505e-05,-2.23578e-06,2.17052e-05,3.87175e-06,0
-3.03806e-05,3.76499e-06,-1.21492e-05,1.08973e-06,2.01394e-05,-3.71268e-06,1.83754e-05,6.5588e-06,0
-2.9177e-05,6.16251e-06,-1.20513e-05,-2.90239e-06,1.82574e-05,-5.02012e-06,1.40734e-05,8.69458e-06,0
-2.94933e-05,9.08824e-06,-1.12292e-05,-5.55341e-06,1.57176e-05,-2.87599e-06,6.95649e-06,9.68135e-06,0
-3.1326e-05,9.47165e-06,-1.05801e-05,-7.44051e-06,1.65067e-05,-4.54322e-07,-2.56452e-06,8.78105e-06,0
-3.3025e-05,1.13036e-05,-1.02569e-05,-8.20188e-06,1.97629e-05,2.9704e-07,-1.01376e-05,7.49055e-06,0
-3.34332e-05,1.47927e-05,-9.93288e-06,-5.84418e-06,2.2072e-05,-1.4192e-06,-1.02645e-05,6.79327e-06,0
-3.29683e-05,1.79171e-05,-7.96969e-06,-1.55663e-06,2.08198e-05,-4.30817e-06,-5.10149e-06,6.28758e-06,0
-3.31e-05,1.80483e-05,-6.83317e-06,2.11239e-06,1.90263e-05,-5.9515e-06,-9.56197e-07,6.04598e-06,0
-3.33522e-05,1.61912e-05,-8.17445e-06,3.44229e-06,1.75461e-05,-5.3384e-06,-3.51907e-07,5.28568e-06,0
-3.21677e-05,1.36219e-05,-9.64508e-06,3.44739e-06,1.65511e-05,-5.38507e-06,-1.93711e-06,4.00586e-06,0
-2.98954e-05,1.13686e-05,-1.05425e-05,3.77545e-06,1.61676e-05,-6.06748e-06,-2.44219e-06,2.49771e-06,0
-2.73882e-05,1.09328e-05,-9.93121e-06,1.34404e-06,1.57348e-05,-5.12217e-06,4.14752e-07,1.63679e-06,0
-2.53783e-05,1.11859e-05,-9.39586e-06,-2.77272e-06,1.67326e-05,-3.46041e-06,6.83617e-06,1.39786e-06,0
-2.51199e-05,1.15066e-05,-9.94488e-06,-5.27073e-06,1.8697e-05,-3.16743e-06,1.3976e-05,1.78436e-06,0
-2.68077e-05,1.20984e-05,-1.03158e-05,-5.90605e-06,1.97848e-05,-4.23581e-06,1.86244e-05,1.79322e-06,0
-2.84435e-05,1.30089e-05,-9.61265e-06,-5.72311e-06,1.9219e-05,-5.2577e-06,1.97291e-05,1.12042e-06,0
-2.86609e-05,1.3205e-05,-9.51212e-06,-4.97723e-06,1.85978e-05,-5.82611e-06,1.94568e-05,8.60561e-07,0
-2.88129e-05,1.4012e-05,-1.15116e-05,-5.54463e-06,1.78694e-05,-7.0701e-06,2.0029e-05,8.82528e-07,0
-2.93388e-05,1.5795e-05,-1.34147e-05,-7.87777e-06,1.54713e-05,-9.49382e-06,2.08804e-05,-1.959e-07,0
-2.88303e-05,1.83795e-05,-1.31629e-05,-8.78615e-06,1.2544e-05,-1.05962e-05,1.92526e-05,-2.56507e-06,0
-2.77384e-05,1.88883e-05,-1.20432e-05,-7.99495e-06,1.29205e-05,-9.4843e-06,1.61725e-05,-3.4609e-06,0
-2.86291e-05,1.74841e-05,-1.10822e-05,-5.69908e-06,1.58014e-05,-8.24416e-06,1.49352e-05,-1.12761e-06,0
-3.1037e-05,1.43038e-05,-1.01955e-05,-3.40146e-06,1.80447e-05,-8.12684e-06,1.6647e-05,1.48273e-06,0
-3.25563e-05,9.10362e-06,-9.90518e-06,-3.72432e-06,1.99482e-05,-7.5833e-06,1.91797e-05,1.53561e-06,0
-3.15103e-05,6.05745e-06,-9.39642e-06,-5.99664e-06,2.11768e-05,-6.73241e-06,2.08274e-05,-1.18853e-08,0
-2.95011e-05,5.58195e-06,-8.80472e-06,-6.38174e-06,2.05353e-05,-6.4011e-06,2.14015e-05,-1.63546e-06,0
-2.92697e-05,4.95987e-06,-8.39488e-06,-2.24909e-06,1.79439e-05,-6.49617e-06,2.09788e-05,-2.00989e-06,0
-3.05095e-05,6.10708e-06,-7.33507e-06,5.40078e-06,1.49954e-05,-6.98118e-06,2.05842e-05,-9.34048e-07,0
-3.20999e-05,9.62155e-06,-5.22828e-06,1.27426e-05,1.23743e-05,-7.71904e-06,1.87695e-05,-4.10357e-07,0
-3.25088e-05,1.28957e-05,-4.00333e-06,1.54412e-05,9.43602e-06,-9.5433e-06,1.63704e-05,-1.41519e-06,0
-3.12583e-05,1.30913e-05,-5.25712e-06,1.15571e-05,6.06658e-06,-1.21174e-05,1.53977e-05,-1.78335e-06,0
-3.0802e-05,1.16686e-05,-7.85211e-06,5.53922e-06,3.12954e-06,-1.36584e-05,1.60509e-05,-1.02063e-06,0
-3.1483e-05,1.26445e-05,-1.02396e-05,2.47993e-06,1.07797e-06,-1.47859e-05,1.79368e-05,-1.07224e-06,0
-3.15293e-05,1.63681e-05,-1.16976e-05,1.73678e-06,2.42521e-07,-1.62824e-05,1.89124e-05,-2.62818e-07,0
-3.11692e-05,2.23175e-05,-1.10225e-05,6.94009e-07,9.64323e-07,-1.65144e-05,1.78688e-05,4.20944e-07,0
-3.03257e-05,2.74953e-05,-9.9817e-06,4.18232e-08,2.19236e-06,-1.59684e-05,1.64217e-05,-1.80044e-07,0
-2.82824e-05,3.23978e-05,-9.5069e-06,1.31677e-06,3.38532e-06,-1.45852e-05,1.56057e-05,-1.00978e-06,0
-2.61836e-05,3.67439e-05,-8.05534e-06,3.20282e-06,5.58997e-06,-1.15793e-05,1.42824e-05,-1.2153e-06,0
-2.55765e-05,3.95288e-05,-6.43601e-06,1.57749e-06,8.22875e-06,-9.28285e-06,1.2339e-05,-1.19222e-06,0
-2.63398e-05,4.08936e-05,-5.93041e-06,-3.93997e-06,9.87792e-06,-9.64675e-06,7.70909e-06,-2.04961e-06,0
-2.70159e-05,4.07641e-05,-5.33404e-06,-1.15227e-05,1.09699e-05,-1.14101e-05,-3.36538e-06,-2.36695e-06,0
-2.68469e-05,3.90121e-05,-3.98264e-06,-1.99401e-05,1.07675e-05,-1.25491e-05,-1.67755e-05,-1.59581e-06,0
-2.68139e-05,3.71061e-05,-3.7502e-06,-2.41741e-05,9.1666e-06,-1.27865e-05,-2.27556e-05,-3.8337e-07,0
-2.74053e-05,3.58145e-05,-3.85508e-06,-2.23895e-05,8.51097e-06,-1.19655e-05,-1.67796e-05,-2.88479e-07,0
-2.75839e-05,3.35552e-05,-2.82824e-06,-1.71212e-05,9.34669e-06,-1.11394e-05,-2.27096e-06,-1.41306e-06,0
-2.71675e-05,3.13712e-05,-1.84095e-06,-1.11687e-05,1.0212e-05,-1.15055e-05,1.36163e-05,-2.43964e-06,0
-2.70602e-05,3.06514e-05,-3.25384e-06,-6.44911e-06,9.28976e-06,-1.28683e-05,2.63757e-05,-1.75032e-06,0
-2.73867e-05,3.04681e-05,-6.46138e-06,-5.12677e-06,7.60832e-06,-1.50622e-05,3.52828e-05,8.31665e-08,0
-2.81988e-05,2.86728e-05,-9.47853e-06,-6.90103e-06,8.49908e-06,-1.64229e-05,4.07409e-05,1.64442e-06,0
-2.80861e-05,2.58214e-05,-1.0235e-05,-1.02978e-05,1.07931e-05,-1.58928e-05,4.26716e-05,2.65629e-06,0
-2.74488e-05,2.44288e-05,-8.47364e-06,-1.53887e-05,1.05176e-05,-1.66219e-05,4.11043e-05,4.45693e-06,0
-2.8411e-05,2.59343e-05,-6.99103e-06,-1.91374e-05,7.40192e-06,-1.94141e-05,3.60806e-05,5.79972e-06,0
-2.92318e-05,2.78744e-05,-7.68606e-06,-2.04786e-05,5.27446e-06,-1.99715e-05,2.98318e-05,5.33418e-06,0
-2.90479e-05,2.74705e-05,-9.41924e-06,-2.15948e-05,4.05664e-06,-1.98094e-05,2.35276e-05,6.06082e-06,0
-2.90298e-05,2.44728e-05,-1.074e-05,-1.88098e-05,1.06732e-06,-2.10258e-05,1.92087e-05,7.54569e-06,0
-2.9424e-05,2.08233e-05,-1.07451e-05,-8.80498e-06,-8.35505e-07,-2.22205e-05,1.85524e-05,6.26313e-06,0
-2.972e-05,1.69673e-05,-8.76271e-06,4.02856e-06,4.62715e-07,-2.22439e-05,1.78068e-05,3.73064e-06,0
-2.98001e-05,1.31846e-05,-6.65191e-06,1.46428e-05,2.82815e-06,-2.06796e-05,1.69983e-05,3.05852e-06,0
-3.06919e-05,1.18529e-05,-5.37053e-06,2.00345e-05,3.57248e-06,-1.93606e-05,1.42786e-05,3.50466e-06,0
-3.13408e-05,1.2765e-05,-5.30035e-06,1.92856e-05,2.48141e-06,-1.8903e-05,1.20778e-05,2.53612e-06,0
-3.1149e-05,1.18926e-05,-6.22564e-06,1.51726e-05,3.40239e-06,-1.97192e-05,1.21383e-05,1.40851e-06,0
-3.06757e-05,7.95067e-06,-6.35597e-06,9.79551e-06,7.21276e-06,-2.13421e-05,1.02769e-05,2.36627e-06,0
-3.10697e-05,4.46346e-06,-6.82756e-06,3.58691e-06,1.11912e-05,-2.2486e-05,-5.06984e-07,3.61414e-06,0
-3.17176e-05,3.70587e-06,-8.39348e-06,-2.30909e-06,1.33058e-05,-2.21259e-05,-2.47951e-05,2.98841e-06,0
-3.11681e-05,4.03323e-06,-9.87694e-06,-5.61808e-06,1.39325e-05,-2.07422e-05,-4.98178e-05,8.43403e-07,0
-3.03892e-05,3.65171e-06,-1.05944e-05,-6.84314e-06,1.40171e-05,-1.8515e-05,-5.61821e-05,-1.25444e-06,0
-2.88357e-05,2.82766e-06,-1.01344e-05,-8.08272e-06,1.41528e-05,-1.60942e-05,-3.87016e-05,-2.05694e-06,0
-2.69411e-05,2.89426e-06,-9.32729e-06,-8.33146e-06,1.41565e-05,-1.33948e-05,-9.85016e-06,-1.83079e-06,0
-2.52219e-05,3.82582e-06,-9.38034e-06,-3.80879e-06,1.42799e-05,-1.00647e-05,1.73953e-05,-1.62066e-06,0
-2.49152e-05,3.99553e-06,-1.06341e-05,5.6043e-06,1.49201e-05,-7.93227e-06,3.6917e-05,-1.40508e-06,0
-2.69354e-05,3.18722e-06,-1.18619e-05,1.47369e-05,1.45445e-05,-6.16148e-06,4.77517e-05,-2.51767e-06,0
-2.98741e-05,1.76855e-06,-1.26352e-05,1.91265e-05,1.41749e-05,-3.98846e-06,5.0215e-05,-3.89758e-06,0
-3.1829e-05,-1.12334e-06,-1.30992e-05,1.76819e-05,1.60075e-05,-2.38951e-06,4.79162e-05,-2.73931e-06,0
-3.1811e-05,-5.18224e-06,-1.34553e-05,1.16992e-05,1.79548e-05,-2.05401e-06,4.47817e-05,8.27031e-07,0
-2.97511e-05,-6.5928e-06,-1.32897e-05,2.35141e-06,1.52084e-05,-3.03366e-06,4.19671e-05,3.44735e-06,0
-2.84345e-05,-5.17727e-06,-1.26359e-05,-8.85388e-06,9.68199e-06,-5.23598e-06,3.98531e-05,2.63489e-06,0
-2.96201e-05,-3.4995e-06,-1.14e-05,-2.10819e-05,5.97847e-06,-6.72696e-06,3.75571e-05,-1.52062e-06,0
-3.1702e-05,-8.57093e-07,-1.06309e-05,-3.20254e-05,5.38738e-06,-6.91943e-06,3.30959e-05,-4.18408e-06,0
-3.30973e-05,1.79138e-06,-1.20142e-05,-4.0362e-05,7.84062e-06,-5.86694e-06,2.79832e-05,-3.60945e-06,0
-3.26001e-05,1.74976e-06,-1.15569e-05,-4.81251e-05,1.23961e-05,-2.90163e-06,2.41942e-05,-1.82267e-06,0
-3.15696e-05,2.46902e-07,-6.75663e-06,-5.80608e-05,1.38985e-05,2.51407e-07,2.20364e-05,1.06002e-07,0
-3.05908e-05,-5.85018e-07,-3.49735e-06,-6.83714e-05,1.09875e-05,4.45311e-07,2.07672e-05,-4.3687e-07,0
-2.96505e-05,2.85925e-06,-4.13455e-06,-7.4742e-05,7.31072e-06,-2.06601e-06,1.76414e-05,-1.96979e-06,0
-2.71817e-05,8.97069e-06,-3.60098e-06,-7.19751e-05,4.28745e-06,-5.11667e-06,1.3257e-05,-2.36344e-06,0
-2.40802e-05,1.3463e-05,-2.8933e-06,-5.96862e-05,4.03719e-06,-7.74263e-06,9.28226e-06,-2.43801e-06,0
-2.30925e-05,1.51663e-05,-4.46274e-06,-4.23141e-05,5.84e-06,-8.71844e-06,6.34922e-06,-1.66477e-06,0
-2.48346e-05,1.52032e-05,-6.63431e-06,-1.65341e-05,7.95265e-06,-8.38002e-06,5.19725e-06,-1.80168e-07,0
-2.78422e-05,1.55367e-05,-6.64723e-06,1.31055e-05,9.82837e-06,-6.97441e-06,5.58303e-06,3.60186e-07,0
-2.96105e-05,1.57733e-05,-5.05134e-06,3.36508e-05,1.14201e-05,-6.03548e-06,5.10392e-06,2.16264e-06,0
-2.8672e-05,1.63512e-05,-3.72196e-06,4.05375e-05,1.32071e-05,-5.16809e-06,4.57574e-06,4.48622e-06,0
-2.62438e-05,1.76419e-05,-2.9694e-06,4.15231e-05,1.57128e-05,-4.63285e-06,7.30804e-06,5.42858e-06,0
-2.50087e-05,1.93352e-05,-2.32111e-06,4.79446e-05,1.72985e-05,-6.06717e-06,1.37406e-05,5.42278e-06,0
-2.50012e-05,2.04052e-05,-1.25275e-06,5.71539e-05,1.70772e-05,-8.56187e-06,1.95391e-05,4.69211e-06,0
-2.5308e-05,2.37617e-05,-7.3543e-07,5.89938e-05,1.63975e-05,-1.11081e-05,1.97512e-05,4.03923e-06,0
-2.65743e-05,3.05295e-05,-7.3961e-07,4.97086e-05,1.6392e-05,-1.19534e-05,1.22936e-05,3.3821e-06,0
-2.78808e-05,3.56005e-05,-1.78684e-06,3.26323e-05,1.58424e-05,-1.14439e-05,9.61615e-07,2.35228e-06,0
-2.7059e-05,3.46571e-05,-3.62484e-06,1.12842e-05,1.36639e-05,-1.1118e-05,-8.86619e-06,3.6261e-07,0
-2.55554e-05,2.999e-05,-5.85336e-06,-1.13749e-05,1.15879e-05,-1.12477e-05,-1.5659e-05,-5.22848e-07,0
-2.53493e-05,2.543e-05,-7.62308e-06,-3.11157e-05,1.01822e-05,-1.14296e-05,-1.95172e-05,6.45238e-07,0
-2.67604e-05,2.08308e-05,-8.89006e-06,-4.26055e-05,9.12363e-06,-1.19443e-05,-1.90232e-05,2.32821e-06,0
-2.84665e-05,1.57503e-05,-8.95773e-06,-4.33912e-05,9.60672e-06,-1.20225e-05,-1.33209e-05,2.93623e-06,0
-2.95788e-05,1.26325e-05,-7.7711e-06,-3.6952e-05,1.34328e-05,-1.15122e-05,-6.15752e-06,1.76745e-06,0
-3.06518e-05,1.3615e-05,-7.41165e-06,-2.81629e-05,1.90379e-05,-1.30699e-05,-1.71335e-06,5.63514e-08,0
-3.22751e-05,1.54803e-05,-8.06525e-06,-2.06882e-05,2.21652e-05,-1.57515e-05,3.94309e-07,-4.29945e-07,0
-3.4444e-05,1.5992e-05,-9.57665e-06,-1.33323e-05,2.03732e-05,-1.66423e-05,4.50572e-06,4.37005e-07,0
-3.6057e-05,1.69047e-05,-1.18689e-05,-4.10246e-06,1.72082e-05,-1.70237e-05,1.24981e-05,7.24327e-07,0
-3.58203e-05,1.80394e-05,-1.40479e-05,8.21515e-07,1.55595e-05,-1.86878e-05,2.04209e-05,-1.15162e-06,0
-3.4051e-05,1.79213e-05,-1.63522e-05,-5.1814e-06,1.5757e-05,-2.05533e-05,2.34865e-05,-1.66346e-06,0
-3.34928e-05,1.54561e-05,-1.81515e-05,-1.68197e-05,1.93863e-05,-1.98052e-05,2.35095e-05,-4.3173e-07,0
-3.45559e-05,1.13327e-05,-1.78408e-05,-2.37734e-05,2.32528e-05,-1.88607e-05,2.36167e-05,-4.56732e-07,0
-3.35746e-05,9.07206e-06,-1.45879e-05,-2.29131e-05,2.47187e-05,-1.95752e-05,2.49092e-05,-1.39666e-07,0
-3.16978e-05,9.9806e-06,-1.06769e-05,-1.97371e-05,2.52072e-05,-1.91514e-05,2.50449e-05,3.56509e-08,0
-3.05863e-05,1.22031e-05,-9.04112e-06,-1.87325e-05,2.45787e-05,-1.72451e-05,2.21397e-05,-1.2172e-07,0
-3.03562e-05,1.36767e-05,-9.43618e-06,-1.7388e-05,2.37603e-05,-1.5317e-05,1.80169e-05,5.55058e-07,0
-3.0716e-05,1.47307e-05,-1.12324e-05,-9.74235e-06,2.32769e-05,-1.45555e-05,1.41008e-05,1.72979e-06,0
-3.20332e-05,1.67068e-05,-1.22435e-05,2.0019e-06,2.24781e-05,-1.35408e-05,1.22979e-05,2.55615e-06,0
-3.25574e-05,1.91372e-05,-1.26866e-05,9.93728e-06,1.94857e-05,-1.19757e-05,1.39167e-05,2.91958e-06,0
-3.10702e-05,2.01027e-05,-1.34683e-05,1.08146e-05,1.53355e-05,-9.99542e-06,1.97029e-05,8.90066e-07,0
-3.06869e-05,1.87081e-05,-1.37703e-05,4.30042e-06,1.26416e-05,-7.99193e-06,2.7962e-05,-1.18667e-06,0
-3.09135e-05,1.80799e-05,-1.28351e-05,-5.18755e-06,1.1235e-05,-5.43407e-06,3.57299e-05,-9.05079e-07,0
-3.05949e-05,2.31012e-05,-1.11352e-05,-8.52102e-06,1.10863e-05,-3.33332e-06,3.93311e-05,6.9135e-07,0
-2.97951e-05,3.47905e-05,-9.11033e-06,-4.40991e-06,1.12141e-05,-3.0038e-06,3.73455e-05,1.35174e-06,0
-2.94806e-05,5.02577e-05,-6.19374e-06,-1.92292e-06,1.06638e-05,-3.40366e-06,3.20195e-05,6.07774e-07,0
-2.87766e-05,6.89013e-05,-3.30536e-06,-6.05031e-06,9.05384e-06,-4.03023e-06,2.57441e-05,1.35065e-07,0
-2.81712e-05,8.75648e-05,-2.56565e-06,-1.12473e-05,7.52909e-06,-5.04234e-06,1.72905e-05,9.93856e-07,0
-2.76623e-05,9.85947e-05,-3.9615e-06,-1.06901e-05,6.54897e-06,-7.09715e-06,3.30905e-06,3.90079e-06,0
-2.65434e-05,9.65584e-05,-5.6499e-06,-5.46587e-06,6.26765e-06,-8.39553e-06,-1.57261e-05,6.02662e-06,0
-2.57643e-05,7.84275e-05,-6.9635e-06,-1.88293e-06,5.77911e-06,-7.74869e-06,-3.32614e-05,5.932e-06,0
-2.62404e-05,4.53796e-05,-7.41334e-06,-2.22164e-06,4.27042e-06,-6.23427e-06,-4.09448e-05,4.92997e-06,0
-2.75819e-05,4.56687e-06,-6.66876e-06,1.04613e-07,2.71133e-06,-5.46858e-06,-3.65236e-05,5.29208e-06,0
-2.87714e-05,-3.35208e-05,-4.96264e-06,5.8901e-06,2.8359e-06,-4.37515e-06,-2.45021e-05,5.86787e-06,0
-2.97424e-05,-6.20711e-05,-4.3279e-06,6.23967e-06,4.13359e-06,-3.02759e-06,-1.21525e-05,5.33054e-06,0
-3.11402e-05,-8.01938e-05,-6.16258e-06,-8.8772e-07,5.42219e-06,-4.1525e-06,-1.6069e-06,4.50695e-06,0
-3.42651e-05,-8.53652e-05,-9.37849e-06,-9.45377e-06,6.82301e-06,-7.2132e-06,6.32708e-06,2.91241e-06,0
-3.78572e-05,-7.31107e-05,-1.31658e-05,-1.41522e-05,5.56604e-06,-8.91913e-06,1.08847e-05,7.05824e-07,0
-3.83084e-05,-5.34704e-05,-1.46005e-05,-1.01535e-05,4.9107e-06,-7.96031e-06,1.20632e-05,2.35801e-07,0
-3.69172e-05,-3.77516e-05,-1.31369e-05,1.02822e-06,8.21833e-06,-5.92364e-06,1.13997e-05,-7.40883e-07,0
-3.52762e-05,-2.68165e-05,-1.05499e-05,5.5034e-06,1.30628e-05,-3.44795e-06,1.23066e-05,-2.24127e-06,0
-3.38382e-05,-1.90611e-05,-6.99373e-06,-2.69968e-06,1.85991e-05,-9.22093e-07,1.339e-05,-3.95933e-06,0
-3.34689e-05,-1.04378e-05,-5.64124e-06,-1.05993e-05,2.24774e-05,-1.22259e-07,1.51689e-05,-4.5967e-06,0
-3.21841e-05,-2.80738e-06,-6.33183e-06,-4.64085e-06,2.3399e-05,-4.45297e-07,1.80551e-05,-3.13789e-06,0
-3.05676e-05,2.0424e-06,-7.46342e-06,1.60207e-05,2.20673e-05,-1.08718e-06,1.96433e-05,-2.79735e-06,0
-2.99925e-05,4.78462e-06,-7.84168e-06,3.87681e-05,2.16102e-05,-1.78103e-06,1.90215e-05,-3.61936e-06,0
-3.10132e-05,6.93156e-06,-5.93577e-06,4.87069e-05,2.20056e-05,-1.62377e-06,1.83869e-05,-3.99716e-06,0
-3.19872e-05,1.20817e-05,-3.25781e-06,4.23607e-05,2.07817e-05,-7.50319e-07,1.90574e-05,-2.49408e-06,0
-3.18403e-05,2.2564e-05,-2.08844e-06,2.66629e-05,1.88654e-05,1.25798e-06,1.80441e-05,-9.53291e-07,0
-3.03692e-05,3.39287e-05,-2.25653e-06,5.40143e-06,1.62857e-05,2.74985e-06,1.67078e-05,-1.60057e-07,0
-2.93047e-05,4.00651e-05,-3.42116e-06,-1.72025e-05,1.46618e-05,2.65946e-06,1.69032e-05,-4.43437e-07,0
