ch1,ch2,ch3,ch4,ch5,ch6,ch7,ch8,class
-2.96061e-05,2.203e-05,-6.60961e-06,-5.25103e-06,1.39871e-05,-6.63557e-06,5.31762e-05,2.33082e-06,0
-2.94945e-05,1.91715e-05,-4.85312e-06,-2.60286e-06,1.55352e-05,-7.3332e-06,5.30125e-05,4.57939e-07,0
-2.92224e-05,1.88397e-05,-2.54315e-06,1.05129e-06,1.66145e-05,-9.46376e-06,4.65581e-05,5.81393e-07,0
-2.92669e-05,1.86965e-05,-7.69054e-08,2.60494e-06,1.84449e-05,-9.917e-06,3.81946e-05,2.4233e-06,0
-2.8793e-05,1.60736e-05,9.16283e-07,1.18772e-07,2.16876e-05,-9.15755e-06,3.21597e-05,3.32802e-06,0
-2.84245e-05,1.32459e-05,2.15819e-07,-1.45848e-06,2.38942e-05,-8.75305e-06,2.85104e-05,3.73877e-06,0
-2.84925e-05,1.28219e-05,-4.18508e-07,1.24026e-06,2.18273e-05,-8.65597e-06,2.64669e-05,4.37396e-06,0
-2.84869e-05,1.32502e-05,-5.37934e-07,4.43141e-06,1.70897e-05,-8.41221e-06,2.46147e-05,4.34369e-06,0
-2.78075e-05,1.34356e-05,-1.17492e-06,3.0711e-06,1.3502e-05,-8.00745e-06,2.26022e-05,3.21456e-06,0
-2.66746e-05,1.21466e-05,-1.70881e-07,5.805e-07,1.24373e-05,-7.55044e-06,2.07127e-05,2.78444e-06,0
-2.65475e-05,1.12838e-05,3.11188e-06,1.47684e-06,1.24064e-05,-6.36361e-06,1.8654e-05,3.94594e-06,0
-2.78893e-05,1.28835e-05,6.31775e-06,5.26376e-06,1.36633e-05,-5.13049e-06,1.48929e-05,4.51157e-06,0
-2.973e-05,1.44464e-05,6.73185e-06,8.46442e-06,1.454e-05,-4.82646e-06,9.94935e-06,4.14744e-06,0
-3.199e-05,1.3534e-05,5.89189e-06,5.6415e-06,1.29453e-05,-6.29872e-06,6.21916e-06,3.70464e-06,0
-3.35276e-05,1.10289e-05,4.93488e-06,-1.56912e-07,1.061e-05,-8.4909e-06,3.57886e-06,2.60681e-06,0
-3.37535e-05,1.00144e-05,3.42932e-06,-5.23618e-06,1.05004e-05,-9.91598e-06,3.12661e-06,7.34751e-07,0
-3.38425e-05,1.12526e-05,2.90121e-07,-9.07009e-06,1.15542e-05,-1.20814e-05,4.80421e-06,-5.0431e-07,0
-3.36002e-05,1.37774e-05,-6.85757e-06,-8.46772e-06,1.06412e-05,-1.45992e-05,6.7556e-06,-1.39762e-07,0
-3.3158e-05,1.4481e-05,-1.59868e-05,-5.8217e-06,9.38968e-06,-1.55043e-05,3.9889e-06,1.96688e-06,0
-3.36482e-05,1.20612e-05,-2.22892e-05,-5.13734e-06,7.98839e-06,-1.61857e-05,-1.22547e-05,4.18208e-06,0
-3.43087e-05,9.37386e-06,-2.03311e-05,-5.39564e-06,5.5108e-06,-1.66682e-05,-3.88299e-05,3.88744e-06,0
-3.33415e-05,8.0463e-06,-1.27824e-05,-4.8494e-06,3.52409e-06,-1.69221e-05,-5.70862e-05,8.61784e-07,0
-3.18107e-05,7.04706e-06,-7.52562e-06,-3.76473e-06,5.31994e-06,-1.73339e-05,-5.52559e-05,-1.83867e-06,0
-3.09845e-05,5.93457e-06,-6.78203e-06,-3.74016e-06,9.34529e-06,-1.71804e-05,-3.43021e-05,-2.46703e-06,0
-3.04441e-05,4.64606e-06,-7.12817e-06,-4.48257e-06,1.11595e-05,-1.77794e-05,-4.40198e-06,-1.88963e-06,0
-3.03684e-05,3.2037e-06,-7.72303e-06,-4.58974e-06,1.06959e-05,-1.82714e-05,2.31199e-05,-1.72273e-06,0
-3.1418e-05,2.16739e-06,-9.52749e-06,-3.8646e-06,1.02684e-05,-1.7349e-05,4.23088e-05,-2.23425e-06,0
-3.26256e-05,2.58895e-06,-1.1419e-05,-3.41861e-06,9.76347e-06,-1.62998e-05,5.2685e-05,-2.95527e-06,0
-3.30822e-05,3.906e-06,-1.18861e-05,-3.9253e-06,8.21447e-06,-1.656e-05,5.74166e-05,-3.64614e-06,0
-3.28062e-05,3.71632e-06,-1.08823e-05,-4.20346e-06,7.63787e-06,-1.76501e-05,5.74761e-05,-3.65334e-06,0
-3.23359e-05,2.0686e-06,-1.00887e-05,-4.31352e-06,7.29926e-06,-1.68727e-05,5.31221e-05,-2.15134e-06,0
-3.04029e-05,5.36201e-07,-9.87229e-06,-4.87078e-06,4.84251e-06,-1.47401e-05,4.62495e-05,-4.1885e-07,0
-2.81817e-05,1.56234e-07,-8.54966e-06,-5.61127e-06,1.18135e-06,-1.37462e-05,3.97421e-05,-1.13493e-06,0
-2.77392e-05,1.41032e-06,-4.98234e-06,-5.20526e-06,2.60076e-07,-1.45307e-05,3.41119e-05,-1.6273e-06,0
-2.78748e-05,3.35319e-06,-3.04034e-06,-2.86629e-06,3.33591e-06,-1.75067e-05,2.9362e-05,-1.33403e-06,0
-2.72634e-05,4.95525e-06,-3.75625e-06,-6.54652e-07,8.31855e-06,-1.95067e-05,2.16253e-05,-3.07721e-06,0
-2.76794e-05,6.34827e-06,-3.38881e-06,1.97822e-07,1.09223e-05,-1.80919e-05,6.19406e-06,-4.25488e-06,0
-2.9049e-05,6.55662e-06,-1.84247e-06,-3.00497e-07,8.82229e-06,-1.63643e-05,-8.40813e-06,-2.66603e-06,0
-2.88994e-05,7.62611e-06,-1.70362e-06,-2.576e-06,4.35635e-06,-1.45724e-05,-1.16847e-05,-1.02367e-06,0
-2.7787e-05,8.10371e-06,-2.85237e-06,-2.42329e-06,2.93391e-06,-1.34982e-05,-4.74259e-06,-4.35601e-07,0
-2.63625e-05,5.43863e-06,-4.15228e-06,6.88332e-07,4.1734e-06,-1.31863e-05,5.84872e-06,-1.57256e-06,0
-2.44305e-05,2.92876e-06,-3.20041e-06,2.4148e-07,4.8774e-06,-1.13137e-05,1.25261e-05,-3.67899e-06,0
-2.33901e-05,2.90909e-06,-1.7771e-06,-4.47325e-06,5.69476e-06,-1.02158e-05,1.25013e-05,-4.11113e-06,0
-2.57385e-05,3.98381e-06,-2.5073e-06,-6.86085e-06,5.87684e-06,-1.16438e-05,4.86113e-06,-3.38742e-06,0
-2.83672e-05,5.24732e-06,-4.3136e-06,-5.33572e-06,6.84626e-06,-1.35627e-05,-5.36696e-06,-3.5158e-06,0
-2.9153e-05,6.20946e-06,-4.71899e-06,-4.96773e-06,8.68705e-06,-1.35025e-05,-1.18698e-05,-1.89101e-06,0
-2.92146e-05,5.16931e-06,-3.49402e-06,-7.57401e-06,1.0045e-05,-1.24575e-05,-1.40886e-05,1.2542e-06,0
-2.83699e-05,4.14121e-06,-2.38607e-06,-1.17484e-05,9.30081e-06,-1.18867e-05,-1.29308e-05,2.81188e-06,0
-2.63691e-05,5.06591e-06,-1.03424e-06,-1.33893e-05,8.67821e-06,-1.16727e-05,-8.09938e-06,2.17543e-06,0
-2.44857e-05,7.8013e-06,1.62315e-06,-1.13357e-05,1.06584e-05,-1.11582e-05,9.79558e-07,6.30627e-07,0
-2.49973e-05,9.48223e-06,7.59844e-06,-8.05053e-06,1.35458e-05,-1.0827e-05,1.11085e-05,-2.61695e-07,0
-2.80985e-05,8.14027e-06,1.82575e-05,-6.48769e-06,1.48199e-05,-1.13248e-05,1.90316e-05,-1.35028e-06,0
-3.15126e-05,5.47495e-06,3.21538e-05,-1.2669e-05,1.39893e-05,-1.27707e-05,2.28455e-05,-2.05944e-06,0
-3.26558e-05,4.68011e-06,4.58011e-05,-2.9368e-05,1.18769e-05,-1.39262e-05,2.41603e-05,-1.7659e-06,0
-3.16931e-05,6.27508e-06,5.55348e-05,-4.6906e-05,8.58613e-06,-1.35398e-05,2.4737e-05,-4.89351e-07,0
-3.1221e-05,8.4622e-06,5.56382e-05,-5.13636e-05,6.8807e-06,-1.23157e-05,2.5031e-05,1.1792e-06,0
-3.2658e-05,1.05104e-05,4.17656e-05,-3.97197e-05,8.42086e-06,-1.0395e-05,2.46299e-05,1.94162e-06,0
-3.38006e-05,1.19893e-05,1.40494e-05,-2.06927e-05,1.08093e-05,-8.23412e-06,2.22373e-05,2.6282e-07,0
-3.3883e-05,1.2146e-05,-2.22548e-05,-4.82638e-06,1.03199e-05,-7.02881e-06,1.60202e-05,-1.75285e-06,0
-3.30845e-05,9.90816e-06,-5.61267e-05,4.86539e-06,7.39262e-06,-7.4011e-06,9.10132e-06,-1.50271e-06,0
-3.19409e-05,6.41161e-06,-7.67105e-05,1.1976e-05,4.58587e-06,-9.33456e-06,7.81364e-06,-2.25532e-07,0
-3.1764e-05,3.74954e-06,-8.2637e-05,1.72178e-05,3.9773e-06,-1.33808e-05,1.38619e-05,1.25658e-06,0
-3.24117e-05,2.05406e-06,-7.66868e-05,1.54883e-05,5.4837e-06,-1.7007e-05,2.07154e-05,3.74921e-06,0
-3.32086e-05,7.71238e-07,-6.38239e-05,7.07511e-06,9.48118e-06,-1.70624e-05,2.19568e-05,6.06427e-06,0
-3.39988e-05,1.03644e-06,-5.13713e-05,1.58308e-07,1.26276e-05,-1.47837e-05,1.94825e-05,7.5115e-06,0
-3.33149e-05,5.11356e-06,-4.07792e-05,-2.7589e-06,1.31088e-05,-1.44505e-05,1.73503e-05,8.14397e-06,0
-3.24721e-05,9.64192e-06,-3.05218e-05,-4.93964e-06,1.44289e-05,-1.44666e-05,1.55262e-05,8.93707e-06,0
-3.41693e-05,1.02292e-05,-2.06691e-05,-7.99805e-06,1.55857e-05,-1.43704e-05,1.34598e-05,7.88007e-06,0
-3.56104e-05,9.48348e-06,-1.30881e-05,-1.11161e-05,1.59622e-05,-1.61005e-05,1.2257e-05,6.01011e-06,0
-3.43391e-05,1.29921e-05,-8.91948e-06,-9.55612e-06,1.77831e-05,-1.78095e-05,1.07503e-05,5.4692e-06,0
-3.35514e-05,2.37242e-05,-5.88612e-06,-3.07502e-06,2.11377e-05,-1.80795e-05,9.34211e-06,3.75036e-06,0
-3.3988e-05,3.30961e-05,-3.63866e-06,4.00413e-06,2.30254e-05,-1.62764e-05,7.97083e-06,1.93807e-06,0
-3.33044e-05,3.51978e-05,-2.55504e-06,8.06169e-06,2.36386e-05,-1.41307e-05,7.9099e-06,4.59513e-07,0
-3.39467e-05,3.34799e-05,-2.45704e-06,9.16416e-06,2.36573e-05,-1.2303e-05,9.84979e-06,-2.17984e-07,0
-3.51039e-05,3.06786e-05,-8.75649e-07,8.98829e-06,2.30259e-05,-1.17399e-05,1.33388e-05,-5.85386e-08,0
-3.5729e-05,2.54414e-05,3.10952e-06,9.69711e-06,2.25471e-05,-1.20214e-05,1.70307e-05,6.99242e-07,0
-3.61348e-05,1.6987e-05,6.3782e-06,1.19931e-05,2.33244e-05,-1.22486e-05,1.90929e-05,1.18934e-06,0
-3.58185e-05,8.26533e-06,4.65364e-06,1.16522e-05,2.30303e-05,-1.28702e-05,2.01446e-05,8.59437e-07,0
-3.56904e-05,1.86655e-06,-2.27535e-06,8.29568e-06,2.04531e-05,-1.41488e-05,2.01657e-05,7.25958e-07,0
-3.51268e-05,-2.87531e-06,-1.05342e-05,5.36935e-06,1.94165e-05,-1.52695e-05,1.9904e-05,1.71542e-06,0
-3.36386e-05,-8.44977e-06,-1.80684e-05,6.04896e-06,2.12852e-05,-1.60541e-05,2.01861e-05,3.12573e-06,0
-3.2297e-05,-1.36312e-05,-2.39221e-05,8.02893e-06,2.33278e-05,-1.67249e-05,2.04788e-05,4.02112e-06,0
-3.24694e-05,-1.52904e-05,-2.83958e-05,7.07018e-06,2.32918e-05,-1.6935e-05,1.9712e-05,5.21226e-06,0
-3.32238e-05,-1.09896e-05,-2.96633e-05,2.04392e-06,2.10909e-05,-1.66521e-05,1.83383e-05,6.2848e-06,0
-3.24327e-05,-3.53125e-06,-2.67342e-05,-3.87583e-06,1.81174e-05,-1.55234e-05,1.66427e-05,5.66661e-06,0
-2.9452e-05,1.71356e-06,-2.04144e-05,-8.3422e-06,1.69444e-05,-1.40369e-05,1.40792e-05,3.98679e-06,0
-2.64736e-05,3.33107e-06,-1.37978e-05,-1.35367e-05,1.78541e-05,-1.2173e-05,1.14517e-05,1.54774e-06,0
-2.59117e-05,4.36715e-06,-9.79912e-06,-2.21665e-05,1.94081e-05,-1.09303e-05,9.47526e-06,-1.08841e-06,0
-2.69665e-05,5.85766e-06,-8.72223e-06,-3.36488e-05,2.10642e-05,-1.08704e-05,8.01078e-06,-1.48152e-06,0
-2.70749e-05,6.92922e-06,-9.01999e-06,-4.03603e-05,2.34806e-05,-1.06775e-05,8.13887e-06,-6.65621e-07,0
-2.69986e-05,7.73532e-06,-8.6323e-06,-3.51289e-05,2.5001e-05,-9.63577e-06,8.55673e-06,-2.57835e-08,0
-2.73453e-05,9.34334e-06,-6.42725e-06,-1.98444e-05,2.42708e-05,-8.47145e-06,7.81642e-06,4.68614e-07,0
-2.76412e-05,1.13928e-05,-3.2906e-06,-5.88697e-07,2.21548e-05,-7.64289e-06,6.41608e-06,9.41194e-07,0
-2.77412e-05,1.22558e-05,-1.3298e-06,1.25482e-05,2.09231e-05,-7.08839e-06,4.46428e-06,7.61046e-09,0
-2.68971e-05,1.36242e-05,-1.39151e-06,1.58638e-05,1.90049e-05,-8.04676e-06,3.67524e-06,-9.40223e-07,0
-2.63527e-05,1.59171e-05,-1.9289e-06,1.22666e-05,1.58851e-05,-9.7876e-06,6.04937e-06,-1.69872e-06,0
-2.53378e-05,1.61123e-05,-2.27445e-06,7.06628e-06,1.35084e-05,-8.01999e-06,8.83061e-06,-2.41408e-06,0
-2.47807e-05,1.40705e-05,-1.6827e-06,6.24325e-06,1.32393e-05,-3.03979e-06,8.99133e-06,-1.11802e-06,0
-2.56855e-05,1.20467e-05,-6.24595e-07,4.45748e-06,1.46113e-05,1.15304e-06,7.38893e-06,-1.05844e-06,0
-2.63122e-05,1.15656e-05,1.30148e-06,1.36126e-06,1.54135e-05,2.56325e-06,5.07447e-06,-8.0431e-07,0
-2.69559e-05,1.3143e-05,3.17164e-06,-1.86953e-06,1.69116e-05,1.00023e-06,3.96044e-06,1.5594e-07,0
-2.64458e-05,1.61949e-05,4.65528e-06,-2.34591e-06,1.77493e-05,-8.89933e-07,5.59422e-06,2.03e-07,0
-2.59058e-05,1.72474e-05,5.82623e-06,1.47698e-07,1.63931e-05,-6.48912e-07,9.24336e-06,6.16733e-07,0
-2.64418e-05,1.45267e-05,3.99951e-06,2.07127e-06,1.40062e-05,6.91267e-07,1.11519e-05,2.23409e-06,0
-2.70075e-05,1.05134e-05,3.96622e-07,4.84774e-08,1.2626e-05,9.35199e-07,1.10323e-05,3.69474e-06,0
-2.69057e-05,7.66791e-06,-2.9493e-06,-5.82883e-06,1.28187e-05,5.35055e-07,1.00186e-05,4.27661e-06,0
-2.69268e-05,7.34393e-06,-3.90296e-06,-1.13523e-05,1.31152e-05,1.06279e-06,8.76875e-06,5.18789e-06,0
-2.75526e-05,9.36614e-06,-2.77174e-06,-1.52788e-05,1.229e-05,2.79801e-06,9.1282e-06,5.81811e-06,0
-2.82192e-05,1.2468e-05,-1.11925e-06,-1.73636e-05,1.23886e-05,4.84237e-06,1.26572e-05,5.59173e-06,0
-2.93159e-05,1.49486e-05,5.66918e-07,-1.81733e-05,1.34333e-05,6.79003e-06,1.6968e-05,4.51824e-06,0
-3.0091e-05,1.71777e-05,3.79624e-06,-1.59161e-05,1.32991e-05,7.01285e-06,1.78583e-05,3.89981e-06,0
-3.02338e-05,1.95729e-05,7.11254e-06,-1.29808e-05,1.20494e-05,4.32575e-06,1.63683e-05,4.10029e-06,0
-2.96824e-05,2.13085e-05,8.83764e-06,-1.22626e-05,1.06701e-05,1.0213e-06,1.4855e-05,4.13208e-06,0
-2.94638e-05,2.20429e-05,9.99195e-06,-1.34082e-05,1.06526e-05,-7.35925e-07,1.29934e-05,3.65203e-06,0
-2.9694e-05,2.28389e-05,1.04345e-05,-1.27052e-05,1.12487e-05,1.70835e-07,6.765e-06,4.1894e-06,0
-2.92489e-05,2.42835e-05,6.55189e-06,-1.17634e-05,1.05525e-05,2.12399e-06,-8.9149e-06,4.60633e-06,0
-2.94287e-05,2.74326e-05,-1.72176e-06,-1.2158e-05,9.23729e-06,1.60138e-06,-2.73991e-05,3.88988e-06,0
-3.04144e-05,3.05319e-05,-1.15642e-05,-7.72796e-06,8.59875e-06,-1.34919e-06,-3.03886e-05,2.94314e-06,0
-3.05088e-05,3.24974e-05,-2.11458e-05,1.073e-05,8.37801e-06,-3.72688e-06,-1.29632e-05,1.29197e-06,0
-3.11204e-05,3.48335e-05,-2.67662e-05,3.39499e-05,8.67895e-06,-5.88315e-06,1.47758e-05,-3.09918e-07,0
-3.24913e-05,3.48832e-05,-2.52633e-05,3.66837e-05,7.58189e-06,-7.1296e-06,3.85224e-05,-8.91105e-07,0
-3.26076e-05,3.35951e-05,-1.90536e-05,1.83954e-05,5.08499e-06,-7.08695e-06,5.45169e-05,-1.95313e-06,0
-3.0922e-05,3.25216e-05,-1.39128e-05,-5.06832e-06,3.59773e-06,-6.81692e-06,6.35872e-05,-2.28843e-06,0
-2.96257e-05,3.1049e-05,-9.42284e-06,-2.15988e-05,3.19787e-06,-5.48016e-06,6.32588e-05,-1.04243e-06,0
-2.87955e-05,2.94631e-05,-4.8313e-06,-2.41986e-05,3.20282e-06,-5.83524e-06,5.747e-05,1.73827e-06,0
-2.7725e-05,2.72299e-05,-1.31438e-06,-2.06318e-05,2.75677e-06,-8.24924e-06,4.86141e-05,3.9588e-06,0
-2.73322e-05,2.73864e-05,2.57233e-07,-1.818e-05,2.77379e-06,-1.0868e-05,3.67988e-05,2.57415e-06,0
-2.81417e-05,2.82485e-05,-4.74316e-07,-1.86617e-05,4.34263e-06,-1.25907e-05,2.19536e-05,7.38346e-07,0
-2.82204e-05,2.80278e-05,-1.79241e-06,-2.05854e-05,6.53007e-06,-1.39148e-05,8.47459e-06,3.33369e-07,0
-2.75143e-05,2.79943e-05,-2.68152e-06,-2.27551e-05,7.86027e-06,-1.57829e-05,1.41011e-06,7.00918e-07,0
-2.83301e-05,2.7988e-05,-5.00746e-06,-2.64533e-05,7.86929e-06,-1.75145e-05,8.2778e-07,1.55789e-06,0
-2.89968e-05,2.68597e-05,-8.79983e-06,-3.01214e-05,6.749e-06,-1.74849e-05,3.74914e-06,2.67863e-06,0
-2.88598e-05,2.36018e-05,-1.18431e-05,-2.88008e-05,4.53649e-06,-1.43005e-05,7.31626e-06,2.43886e-06,0
-2.92365e-05,1.9561e-05,-1.23252e-05,-2.0492e-05,2.30043e-06,-1.01127e-05,8.44118e-06,1.37465e-06,0
-3.10797e-05,1.59291e-05,-1.11516e-05,-1.16267e-05,4.48426e-07,-7.78426e-06,6.76216e-06,7.20871e-07,0
-3.26266e-05,1.44207e-05,-1.11846e-05,-6.09606e-06,8.44204e-07,-7.7747e-06,4.68871e-06,6.41764e-08,0
-3.29749e-05,1.34762e-05,-1.36459e-05,-3.99598e-06,4.57855e-06,-8.09106e-06,4.22566e-06,-8.75191e-07,0
-3.19545e-05,1.22851e-05,-1.71827e-05,-2.14409e-06,8.80593e-06,-7.89038e-06,6.45339e-06,-7.55837e-07,0
-3.03897e-05,1.16519e-05,-1.89221e-05,3.77031e-07,1.08059e-05,-7.21014e-06,1.03188e-05,4.11491e-07,0
-2.94576e-05,1.18227e-05,-1.88551e-05,2.91695e-06,1.19965e-05,-5.43964e-06,1.56584e-05,6.11089e-07,0
-2.9187e-05,1.13645e-05,-1.83544e-05,3.37127e-06,1.39798e-05,-3.25286e-06,2.1432e-05,5.69554e-07,0
-2.99199e-05,1.00637e-05,-1.56326e-05,1.83592e-06,1.4625e-05,-1.65248e-06,2.55853e-05,5.50401e-07,0
-3.19495e-05,9.28361e-06,-1.19726e-05,3.77991e-07,1.20737e-05,-4.70769e-07,2.63676e-05,2.83101e-07,0
-3.4833e-05,9.59844e-06,-9.02174e-06,-6.07827e-07,1.00659e-05,-2.48842e-08,2.58423e-05,2.11044e-07,0
-3.59469e-05,1.04781e-05,-6.42059e-06,-1.26707e-06,1.20225e-05,1.28828e-07,2.56366e-05,1.28941e-07,0
-3.63476e-05,1.06473e-05,-5.59253e-06,1.56046e-06,1.3632e-05,-3.90412e-07,2.48236e-05,4.38953e-08,0
-3.67768e-05,1.0932e-05,-5.09199e-06,5.69631e-06,1.32949e-05,-2.78692e-06,1.94967e-05,-1.25888e-06,0
-3.42178e-05,1.14511e-05,-4.32586e-06,8.64782e-06,1.27041e-05,-6.40137e-06,8.81838e-06,-2.11307e-06,0
-3.24312e-05,1.32788e-05,-4.12872e-06,1.10986e-05,1.35344e-05,-9.16608e-06,-1.51045e-06,-1.78808e-06,0
-3.30797e-05,1.60819e-05,-4.97228e-06,8.42513e-06,1.64565e-05,-9.20134e-06,-9.85059e-06,-2.63408e-06,0
-3.38408e-05,1.84628e-05,-4.58673e-06,2.3177e-06,1.9521e-05,-7.10335e-06,-1.58964e-05,-4.89902e-06,0
-3.41441e-05,2.11017e-05,-2.35539e-06,-3.79156e-06,2.04729e-05,-5.76476e-06,-1.852e-05,-6.38138e-06,0
-3.29488e-05,2.25351e-05,-8.54161e-07,-9.20735e-06,1.74221e-05,-6.3999e-06,-1.81385e-05,-4.02734e-06,0
-3.09059e-05,2.24437e-05,-4.76177e-07,-1.4037e-05,1.34853e-05,-7.57306e-06,-1.48754e-05,-2.48937e-07,0
-2.93744e-05,1.94969e-05,-1.29749e-06,-1.69858e-05,1.17309e-05,-8.47087e-06,-9.23277e-06,1.37782e-06,0
-2.86997e-05,1.53548e-05,-3.34889e-06,-1.63251e-05,1.16741e-05,-9.48024e-06,-2.80197e-06,1.00086e-06,0
-2.83194e-05,1.26348e-05,-5.80425e-06,-1.15883e-05,1.19494e-05,-1.06084e-05,1.47429e-06,1.21001e-06,0
-2.92942e-05,1.09686e-05,-7.3724e-06,-4.13931e-06,1.12421e-05,-1.21487e-05,3.16169e-06,2.16344e-06,0
-3.05877e-05,9.51621e-06,-8.12747e-06,2.0682e-06,1.08085e-05,-1.39496e-05,5.30892e-06,2.32592e-06,0
-3.03473e-05,7.95009e-06,-9.23396e-06,5.7233e-06,1.14249e-05,-1.52694e-05,8.61724e-06,1.04819e-06,0
-2.91299e-05,7.2128e-06,-1.15078e-05,9.47106e-06,1.29686e-05,-1.55961e-05,1.05516e-05,4.31914e-07,0
-2.81522e-05,6.93449e-06,-1.42992e-05,1.49469e-05,1.51435e-05,-1.55122e-05,1.01071e-05,1.13481e-06,0
-2.69756e-05,7.27305e-06,-1.66589e-05,1.95001e-05,1.61656e-05,-1.6485e-05,8.48748e-06,2.25839e-06,0
-2.64399e-05,8.14201e-06,-1.77166e-05,1.96692e-05,1.5914e-05,-1.7806e-05,6.46204e-06,3.61957e-06,0
-2.66362e-05,9.30441e-06,-1.79449e-05,1.55554e-05,1.49993e-05,-1.84718e-05,5.41931e-06,3.08082e-06,0
-2.64941e-05,9.99159e-06,-1.78115e-05,8.87301e-06,1.25315e-05,-1.80913e-05,6.3225e-06,-2.07303e-07,0
-2.65356e-05,1.08589e-05,-1.68382e-05,2.74026e-06,1.09833e-05,-1.68068e-05,8.67617e-06,-3.74718e-06,0
-2.74949e-05,1.22714e-05,-1.42853e-05,2.48023e-07,1.34251e-05,-1.5693e-05,1.16976e-05,-5.2629e-06,0
-2.96881e-05,1.46093e-05,-1.02478e-05,-5.62097e-08,1.73406e-05,-1.62169e-05,1.35474e-05,-5.70111e-06,0
-3.24616e-05,1.5841e-05,-7.68463e-06,-3.32544e-06,1.93382e-05,-1.79064e-05,1.353e-05,-4.84607e-06,0
-3.38163e-05,1.50534e-05,-6.33009e-06,-1.04075e-05,1.9966e-05,-1.81363e-05,1.40709e-05,-3.53591e-06,0
-3.25946e-05,1.34264e-05,-5.06348e-06,-1.59163e-05,2.04046e-05,-1.63798e-05,1.66059e-05,-2.99385e-06,0
-3.04518e-05,1.28235e-05,-5.45256e-06,-1.55349e-05,1.99416e-05,-1.55988e-05,2.10942e-05,-4.23185e-06,0
-2.93364e-05,1.4375e-05,-6.70872e-06,-1.03907e-05,1.79205e-05,-1.58982e-05,2.59304e-05,-5.727e-06,0
-2.92701e-05,1.37301e-05,-8.06721e-06,-7.49459e-06,1.58068e-05,-1.67674e-05,2.74825e-05,-4.24861e-06,0
-2.87832e-05,1.04084e-05,-8.05644e-06,-8.30823e-06,1.47639e-05,-1.75768e-05,2.57089e-05,-2.47364e-06,0
-2.8428e-05,8.03139e-06,-8.25937e-06,-1.02272e-05,1.3091e-05,-1.82164e-05,2.54391e-05,-2.84708e-06,0
-2.83569e-05,6.27223e-06,-1.01279e-05,-1.39684e-05,1.01935e-05,-1.84564e-05,2.64216e-05,-2.50511e-06,0
-2.97075e-05,4.67713e-06,-1.14172e-05,-1.71428e-05,8.56025e-06,-1.96381e-05,2.52527e-05,-9.33782e-07,0
-3.11922e-05,2.74494e-06,-1.07394e-05,-2.15632e-05,8.33296e-06,-2.14933e-05,2.36962e-05,-1.43291e-07,0
-3.07177e-05,1.08705e-06,-9.49967e-06,-2.65766e-05,8.38025e-06,-2.03158e-05,2.24199e-05,4.07689e-07,0
-2.9982e-05,8.81191e-07,-1.09284e-05,-2.7652e-05,8.80684e-06,-1.79667e-05,2.08626e-05,1.96268e-06,0
-3.01436e-05,1.45803e-06,-1.33459e-05,-2.33156e-05,9.23902e-06,-1.64984e-05,1.86646e-05,2.56385e-06,0
-3.08529e-05,1.88824e-06,-1.3013e-05,-1.40451e-05,1.06368e-05,-1.60774e-05,1.37412e-05,8.96342e-07,0
-3.16792e-05,2.45589e-06,-9.13693e-06,-3.62963e-06,1.30663e-05,-1.4665e-05,8.54151e-06,-5.71784e-07,0
-3.27282e-05,4.15104e-06,-4.66835e-06,4.65127e-06,1.4691e-05,-1.33893e-05,7.17283e-06,-3.3229e-07,0
-3.27651e-05,6.43784e-06,7.91575e-07,9.40092e-06,1.39892e-05,-1.25077e-05,8.15408e-06,1.21511e-06,0
-3.24123e-05,8.94563e-06,9.66401e-06,1.32157e-05,1.26784e-05,-1.10541e-05,7.12321e-06,2.42793e-06,0
-3.26283e-05,9.72702e-06,2.22596e-05,1.59338e-05,1.1835e-05,-9.44271e-06,3.97629e-06,2.54364e-06,0
-3.25434e-05,8.68134e-06,3.41916e-05,1.54331e-05,1.0387e-05,-8.69458e-06,2.66067e-06,2.11014e-06,0
-3.1147e-05,7.17552e-06,3.83347e-05,1.15676e-05,8.67756e-06,-8.46182e-06,4.34082e-06,1.52932e-06,0
-2.97604e-05,6.65006e-06,3.07084e-05,6.20385e-06,7.78627e-06,-7.83548e-06,7.07544e-06,-8.51499e-07,0
-3.01673e-05,6.93096e-06,1.29373e-05,1.80826e-06,7.71197e-06,-8.06058e-06,8.72884e-06,-4.4136e-06,0
-3.30784e-05,6.60801e-06,-1.06037e-05,-1.03537e-06,7.94502e-06,-8.02054e-06,6.85299e-06,-5.56194e-06,0
-3.63153e-05,3.92813e-06,-3.33891e-05,-1.3595e-06,7.96883e-06,-7.07375e-06,-1.63102e-06,-4.1163e-06,0
-3.64071e-05,4.93832e-07,-4.81781e-05,1.44398e-06,7.67232e-06,-5.63521e-06,-1.34908e-05,-2.30481e-06,0
-3.46546e-05,2.79192e-07,-5.19378e-05,1.61047e-06,7.01711e-06,-3.85947e-06,-1.97549e-05,-2.04266e-06,0
-3.27447e-05,3.24014e-06,-4.75576e-05,-2.72348e-06,6.58958e-06,-2.23017e-06,-1.57e-05,-1.8639e-06,0
-3.12717e-05,6.12931e-06,-4.09043e-05,-5.34086e-06,8.04384e-06,-2.09994e-06,-3.4098e-06,-7.99769e-07,0
-3.04333e-05,8.80295e-06,-3.53275e-05,-4.21017e-06,1.01585e-05,-3.58329e-06,1.30819e-05,-1.30932e-06,0
-3.19777e-05,1.13527e-05,-3.10405e-05,-1.25736e-06,1.21044e-05,-5.17596e-06,2.92804e-05,-1.70853e-07,0
-3.35181e-05,1.13358e-05,-2.51279e-05,-5.3887e-07,1.39587e-05,-4.96613e-06,3.89869e-05,3.50344e-06,0
-3.25192e-05,1.05436e-05,-1.89701e-05,-1.67671e-06,1.44347e-05,-5.93599e-06,4.42652e-05,6.55679e-06,0
-3.09031e-05,1.09686e-05,-1.45475e-05,-3.11167e-06,1.14697e-05,-6.98888e-06,4.78237e-05,7.98114e-06,0
-2.90267e-05,1.27689e-05,-1.24412e-05,-3.20627e-06,8.62217e-06,-5.81164e-06,4.71005e-05,7.75348e-06,0
-3.00127e-05,1.44789e-05,-9.80815e-06,-1.0018e-06,9.8124e-06,-4.17675e-06,4.30717e-05,7.98294e-06,0
-3.26219e-05,1.37206e-05,-6.35695e-06,-1.49993e-07,1.23452e-05,-3.9055e-06,3.74037e-05,7.72352e-06,0
-3.46481e-05,1.12163e-05,-4.39753e-06,-2.65162e-06,1.28432e-05,-5.95733e-06,3.35787e-05,6.42264e-06,0
-3.70612e-05,1.04878e-05,-5.07075e-06,-5.93847e-06,1.25084e-05,-7.11387e-06,3.06056e-05,5.21501e-06,0
-3.8876e-05,1.18787e-05,-7.63683e-06,-7.77267e-06,1.37494e-05,-7.12505e-06,2.73258e-05,5.81714e-06,0
-3.92919e-05,1.40997e-05,-9.15508e-06,-1.06968e-05,1.6171e-05,-6.51729e-06,2.51604e-05,6.13001e-06,0
-3.90816e-05,1.50451e-05,-8.05045e-06,-1.4099e-05,1.93881e-05,-6.20068e-06,2.29907e-05,5.52782e-06,0
-3.7994e-05,1.44577e-05,-4.80478e-06,-1.56014e-05,2.16748e-05,-6.68184e-06,1.99179e-05,4.2297e-06,0
-3.55079e-05,1.3675e-05,-2.0675e-06,-1.49158e-05,2.19063e-05,-7.12641e-06,1.66427e-05,2.01315e-06,0
-3.3986e-05,1.24499e-05,-8.67905e-07,-1.22229e-05,2.09277e-05,-6.35237e-06,1.50207e-05,1.04569e-06,0
-3.3225e-05,1.07711e-05,-1.58488e-06,-8.09876e-06,1.9904e-05,-5.09891e-06,1.47998e-05,2.23593e-06,0
-3.24646e-05,9.78242e-06,-2.54434e-06,-4.21007e-06,1.89403e-05,-5.3161e-06,1.41241e-05,3.89399e-06,0
-3.27448e-05,1.04116e-05,-2.75659e-06,-1.86951e-06,1.82192e-05,-6.74446e-06,1.11112e-05,4.03896e-06,0
-3.36054e-05,1.14728e-05,-2.33597e-06,-1.95437e-06,1.73967e-05,-7.84474e-06,7.01241e-06,2.89648e-06,0
-3.31808e-05,1.14297e-05,-2.52184e-06,-5.62672e-06,1.67341e-05,-6.57683e-06,4.32714e-06,1.49726e-06,0
-3.19917e-05,1.02328e-05,-3.06358e-06,-1.24641e-05,1.71789e-05,-4.92721e-06,3.69175e-06,1.59494e-06,0
-3.08901e-05,8.89972e-06,-3.43238e-06,-2.0883e-05,1.81768e-05,-5.82987e-06,1.97302e-06,1.58834e-06,0
-3.04061e-05,8.17769e-06,-2.90589e-06,-2.60426e-05,1.78658e-05,-6.75185e-06,-4.84118e-06,6.87196e-07,0
-3.06971e-05,9.00123e-06,-1.81569e-06,-2.32778e-05,1.57504e-05,-5.42591e-06,-1.37485e-05,-4.25281e-07,0
-3.06544e-05,9.30388e-06,-9.08145e-07,-1.31592e-05,1.35766e-05,-3.76225e-06,-1.52245e-05,-8.82931e-07,0
-3.00431e-05,7.99686e-06,-8.79069e-07,1.60991e-06,1.08931e-05,-2.67775e-06,-7.51649e-06,-6.99956e-07,0
-3.0487e-05,6.61337e-06,-2.30208e-06,1.69448e-05,9.27851e-06,-2.24087e-06,2.55797e-06,6.84516e-07,0
-3.11733e-05,6.35043e-06,-5.14568e-06,2.59518e-05,1.18125e-05,-2.2757e-06,1.15512e-05,1.65589e-06,0
-3.09586e-05,6.53645e-06,-6.38734e-06,2.24644e-05,1.36665e-05,-2.79896e-06,1.66733e-05,1.16248e-06,0
-3.11216e-05,5.53142e-06,-4.65105e-06,9.11214e-06,1.10841e-05,-3.1379e-06,1.68933e-05,1.56394e-07,0
-2.95455e-05,4.67874e-06,-2.20267e-06,-3.22027e-06,7.30379e-06,-4.17183e-06,1.53671e-05,-1.83261e-07,0
-2.74481e-05,6.85981e-06,-4.5443e-07,-1.1076e-05,6.9389e-06,-6.30853e-06,1.36396e-05,-3.61038e-07,0
-2.76499e-05,9.64718e-06,-7.41072e-07,-1.36172e-05,8.84562e-06,-7.21713e-06,1.18566e-05,-6.88085e-07,0
-2.88906e-05,1.0782e-05,-2.10757e-06,-1.24645e-05,9.42016e-06,-6.52476e-06,1.15571e-05,-8.93135e-08,0
-2.90059e-05,1.14382e-05,-2.79999e-06,-1.06967e-05,9.40555e-06,-6.17303e-06,1.3668e-05,1.19638e-06,0
-2.84558e-05,1.1566e-05,-1.13833e-06,-8.41121e-06,9.47185e-06,-7.30322e-06,1.38112e-05,2.42434e-06,0
-2.81038e-05,1.14134e-05,-4.43054e-08,-7.66233e-06,1.06126e-05,-8.93594e-06,1.03078e-05,2.37342e-06,0
-2.88817e-05,1.19956e-05,-5.27153e-07,-7.60988e-06,1.20384e-05,-1.06157e-05,6.26877e-06,1.50852e-06,0
-3.11409e-05,1.32994e-05,-2.48741e-06,-8.71686e-06,1.31784e-05,-1.19379e-05,5.04763e-06,9.53816e-07,0
-3.29313e-05,1.37339e-05,-4.12099e-06,-1.08084e-05,1.36007e-05,-1.1332e-05,8.42376e-06,1.67189e-06,0
-3.29914e-05,1.38556e-05,-3.69184e-06,-1.22877e-05,1.3089e-05,-1.05947e-05,1.30916e-05,2.15111e-06,0
-3.17995e-05,1.39816e-05,-2.51312e-06,-1.27273e-05,1.21216e-05,-1.19249e-05,1.51444e-05,2.59998e-06,0
-3.05618e-05,1.3922e-05,-2.06156e-06,-1.27846e-05,1.16317e-05,-1.38187e-05,1.4397e-05,3.3302e-06,0
-2.94321e-05,1.40044e-05,-2.74407e-06,-1.26763e-05,1.18132e-05,-1.46965e-05,1.32583e-05,3.42682e-06,0
-2.8602e-05,1.51482e-05,-3.65451e-06,-1.30216e-05,1.19986e-05,-1.43151e-05,1.23907e-05,2.33134e-06,0
-2.907e-05,1.61647e-05,-5.34759e-06,-1.40554e-05,1.20706e-05,-1.42289e-05,1.13906e-05,1.40836e-06,0
-3.10459e-05,1.59882e-05,-7.5124e-06,-1.47488e-05,1.15064e-05,-1.44189e-05,1.07447e-05,2.75979e-06,0
-3.25682e-05,1.61271e-05,-1.10702e-05,-1.45018e-05,1.09457e-05,-1.49161e-05,1.13212e-05,5.05964e-06,0
-3.30095e-05,1.69352e-05,-1.73113e-05,-1.48368e-05,1.02496e-05,-1.59439e-05,1.17544e-05,5.11273e-06,0
-3.31786e-05,1.7318e-05,-2.52992e-05,-1.77331e-05,9.37139e-06,-1.68102e-05,1.08502e-05,4.0823e-06,0
-3.22521e-05,1.74645e-05,-3.2159e-05,-1.95597e-05,9.57251e-06,-1.67118e-05,9.1676e-06,4.31683e-06,0
-2.97499e-05,1.94905e-05,-3.42981e-05,-1.84952e-05,1.06842e-05,-1.61992e-05,9.57785e-06,5.47769e-06,0
-2.7811e-05,2.68196e-05,-2.8978e-05,-1.60522e-05,1.21592e-05,-1.46136e-05,1.23276e-05,6.49145e-06,0
-2.76042e-05,3.94038e-05,-2.0433e-05,-1.28845e-05,1.41151e-05,-1.17639e-05,1.44343e-05,6.14224e-06,0
-2.85843e-05,5.20188e-05,-1.4897e-05,-7.6983e-06,1.4119e-05,-9.78719e-06,1.54218e-05,5.55393e-06,0
-2.88013e-05,5.78517e-05,-1.35724e-05,3.50682e-06,1.23324e-05,-1.04504e-05,1.63813e-05,6.84084e-06,0
-2.73547e-05,5.55139e-05,-1.42855e-05,1.77336e-05,1.04353e-05,-1.17259e-05,1.77737e-05,8.85112e-06,0
-2.57898e-05,4.7305e-05,-1.4614e-05,2.63558e-05,1.10184e-05,-1.07033e-05,1.87436e-05,9.46667e-06,0
-2.56856e-05,3.52032e-05,-1.38793e-05,2.52207e-05,1.17483e-05,-7.7703e-06,2.00803e-05,9.12507e-06,0
-2.73805e-05,2.16367e-05,-1.17317e-05,1.68573e-05,1.08444e-05,-4.39063e-06,2.16924e-05,7.36609e-06,0
-2.85768e-05,3.83993e-06,-9.46875e-06,5.98321e-06,1.21055e-05,-4.11382e-06,2.10497e-05,4.99159e-06,0
-2.77489e-05,-1.3256e-05,-7.86111e-06,-3.35504e-06,1.38364e-05,-5.12385e-06,1.78991e-05,2.69548e-06,0
-2.66465e-05,-2.23076e-05,-6.36619e-06,-8.28163e-06,1.5843e-05,-7.0143e-06,1.46034e-05,8.97654e-07,0
-2.51796e-05,-2.16146e-05,-5.95815e-06,-1.05275e-05,1.70276e-05,-7.97573e-06,1.30786e-05,-1.12942e-06,0
-2.34755e-05,-1.40315e-05,-5.80197e-06,-1.15305e-05,1.63179e-05,-6.93914e-06,1.30636e-05,-2.35994e-06,0
-2.36859e-05,-5.41555e-06,-5.50807e-06,-1.03628e-05,1.50228e-05,-5.60972e-06,1.23169e-05,2.45046e-07,0
-2.49297e-05,-9.74596e-08,-6.93358e-06,-6.28919e-06,1.57287e-05,-5.0997e-06,1.18332e-05,3.74983e-06,0
-2.58349e-05,1.74515e-06,-1.0236e-05,-2.98014e-07,1.74264e-05,-5.89266e-06,1.24863e-05,4.39917e-06,0
-2.67951e-05,3.67485e-06,-1.34861e-05,4.60727e-06,1.69689e-05,-6.00491e-06,1.32338e-05,2.75387e-06,0
-2.79871e-05,8.04356e-06,-1.48993e-05,5.12067e-06,1.49507e-05,-5.9501e-06,1.34726e-05,1.17814e-06,0
-2.77373e-05,1.38117e-05,-1.45277e-05,2.07017e-06,1.32782e-05,-5.5858e-06,1.34339e-05,4.60021e-07,0
-2.66315e-05,1.82889e-05,-1.30251e-05,-1.41762e-06,1.36538e-05,-5.90053e-06,1.22051e-05,2.31164e-07,0
-2.58938e-05,2.09589e-05,-1.07659e-05,-4.23758e-06,1.46169e-05,-7.74766e-06,9.5054e-06,-2.93951e-07,0
-2.6203e-05,2.05916e-05,-7.26186e-06,-5.6278e-06,1.52219e-05,-1.00259e-05,7.05182e-06,-2.00013e-06,0
-2.69075e-05,1.94719e-05,-2.30513e-06,-5.30485e-06,1.59663e-05,-1.06587e-05,5.82301e-06,-4.7767e-06,0
-2.74997e-05,1.94683e-05,5.1095e-06,-4.2867e-06,1.6861e-05,-1.11931e-05,6.01205e-06,-5.50801e-06,0
-2.80203e-05,2.04659e-05,1.62068e-05,-4.27717e-06,1.76125e-05,-1.16059e-05,7.42707e-06,-3.37691e-06,0
-2.76043e-05,2.17561e-05,2.99342e-05,-5.31486e-06,1.74218e-05,-1.0083e-05,1.00924e-05,-9.19286e-08,0
-2.68691e-05,2.10206e-05,4.36532e-05,-7.06974e-06,1.48081e-05,-7.14615e-06,1.28838e-05,2.41433e-06,0
-2.59064e-05,1.73825e-05,5.25484e-05,-1.19487e-05,1.21608e-05,-6.77057e-06,1.54646e-05,1.76195e-06,0
-2.56506e-05,1.27404e-05,5.04704e-05,-1.84582e-05,1.06881e-05,-8.61623e-06,1.81097e-05,5.62086e-07,0
-2.68009e-05,7.07915e-06,3.30304e-05,-2.22503e-05,1.10239e-05,-8.95043e-06,1.9427e-05,3.24732e-07,0
-2.86476e-05,3.31106e-06,2.6843e-06,-2.22907e-05,1.30074e-05,-1.00426e-05,1.73689e-05,1.26036e-06,0
-2.91123e-05,4.46982e-06,-3.2846e-05,-1.86044e-05,1.3387e-05,-1.26607e-05,1.28996e-05,1.29337e-06,0
-2.77486e-05,1.06545e-05,-6.31439e-05,-1.27037e-05,1.21911e-05,-1.41025e-05,8.58924e-06,-1.00896e-06,0
-2.64187e-05,1.9577e-05,-7.8508e-05,-3.46281e-06,1.13737e-05,-1.27495e-05,7.63944e-06,-2.56951e-06,0
-2.77233e-05,2.53444e-05,-7.90762e-05,4.37002e-06,1.18026e-05,-9.09614e-06,8.60046e-06,-3.44227e-06,0
-2.95012e-05,2.81154e-05,-6.84298e-05,5.7848e-06,1.27913e-05,-6.18923e-06,9.9726e-06,-4.05897e-06,0
-2.90136e-05,2.78286e-05,-5.26662e-05,5.1718e-06,1.28146e-05,-5.74139e-06,1.01909e-05,-3.38672e-06,0
-2.87071e-05,2.71577e-05,-3.65524e-05,5.80334e-06,1.17627e-05,-5.69654e-06,7.75305e-06,-2.19282e-06,0
-2.8701e-05,2.87498e-05,-2.16017e-05,8.55918e-06,1.10454e-05,-5.51798e-06,5.78452e-06,-2.22517e-06,0
-2.89585e-05,3.02209e-05,-1.00764e-05,1.25389e-05,1.14243e-05,-5.72075e-06,5.51928e-06,-3.65178e-06,0
-2.91415e-05,2.97754e-05,-2.85225e-06,1.54043e-05,1.24335e-05,-5.72022e-06,5.59204e-06,-5.95503e-06,0
-2.8641e-05,2.77417e-05,1.7907e-06,1.46258e-05,1.37463e-05,-5.37126e-06,3.64346e-06,-7.06899e-06,0
-2.80012e-05,2.70072e-05,6.55884e-06,1.42412e-05,1.49252e-05,-5.78753e-06,6.73044e-07,-5.95683e-06,0
-2.84109e-05,2.72585e-05,1.06956e-05,2.27774e-05,1.54221e-05,-6.70873e-06,-1.26207e-06,-3.61193e-06,0
-3.01107e-05,2.71616e-05,1.29856e-05,3.85476e-05,1.60558e-05,-6.64506e-06,-1.48887e-06,-2.01051e-06,0
-3.10224e-05,2.65619e-05,1.46353e-05,4.4817e-05,1.56681e-05,-5.89859e-06,-3.6245e-07,-3.13693e-06,0
-3.04633e-05,2.55049e-05,1.59272e-05,3.05699e-05,1.38164e-05,-5.95796e-06,2.14544e-06,-5.34482e-06,0
-2.97757e-05,2.46969e-05,1.34627e-05,4.16289e-06,1.16126e-05,-6.24864e-06,5.04301e-06,-5.53668e-06,0
-3.01713e-05,2.39736e-05,6.52138e-06,-1.78263e-05,1.02382e-05,-6.49417e-06,7.89108e-06,-3.82068e-06,0
-3.15176e-05,2.24218e-05,-2.1743e-06,-2.75767e-05,1.05226e-05,-7.23207e-06,1.1389e-05,-2.74303e-06,0
-3.25934e-05,2.12316e-05,-1.05086e-05,-2.97077e-05,1.1419e-05,-8.69856e-06,1.57097e-05,-2.93943e-06,0
-3.11121e-05,2.20259e-05,-1.73591e-05,-2.96325e-05,1.15118e-05,-9.29548e-06,1.95458e-05,-3.37806e-06,0
-2.95325e-05,2.3618e-05,-2.09942e-05,-2.91694e-05,1.12527e-05,-8.33781e-06,2.15354e-05,-2.85155e-06,0
-3.10513e-05,2.58375e-05,-2.11984e-05,-2.83059e-05,1.19549e-05,-7.24587e-06,2.36743e-05,-2.00978e-06,0
-3.31041e-05,2.7504e-05,-1.73131e-05,-2.71847e-05,1.26096e-05,-6.5842e-06,2.65317e-05,-2.9536e-06,0
-3.3783e-05,2.48785e-05,-1.14488e-05,-2.70432e-05,1.19833e-05,-6.66394e-06,2.80097e-05,-3.37937e-06,0
-3.28857e-05,1.78835e-05,-8.83853e-06,-2.55316e-05,1.049e-05,-7.43734e-06,2.80462e-05,-3.58556e-06,0
-3.07595e-05,1.42362e-05,-8.67166e-06,-2.10435e-05,9.51837e-06,-8.3047e-06,2.881e-05,-5.65475e-06,0
-2.89006e-05,1.8467e-05,-7.35264e-06,-1.70146e-05,9.36774e-06,-1.02044e-05,3.01938e-05,-8.01069e-06,0
-2.79307e-05,2.34468e-05,-3.62833e-06,-1.29711e-05,9.15854e-06,-1.08794e-05,2.97079e-05,-9.16125e-06,0
-2.79716e-05,2.52075e-05,1.01064e-06,-9.1458e-06,1.00929e-05,-8.95762e-06,2.7118e-05,-7.54588e-06,0
-2.98588e-05,2.46536e-05,3.39525e-06,-6.83328e-06,9.94194e-06,-7.52489e-06,2.33969e-05,-5.70806e-06,0
-3.06799e-05,2.1812e-05,1.97216e-06,-7.93441e-06,8.56086e-06,-7.69746e-06,1.88431e-05,-4.50965e-06,0
-2.99329e-05,1.56097e-05,-3.24016e-06,-1.15524e-05,8.45827e-06,-9.39035e-06,1.52863e-05,-2.53366e-06,0
-3.14783e-05,7.71912e-06,-1.00932e-05,-1.42394e-05,8.9349e-06,-1.0091e-05,1.30661e-05,-1.39613e-07,0
-3.35765e-05,1.01681e-06,-1.64659e-05,-1.46233e-05,8.73175e-06,-9.60843e-06,1.14624e-05,-1.21984e-07,0
-3.41228e-05,-4.04404e-06,-1.8539e-05,-1.28889e-05,6.85593e-06,-9.19955e-06,1.01319e-05,-1.61694e-06,0
-3.39446e-05,-7.9075e-06,-1.51015e-05,-1.13704e-05,6.19316e-06,-1.0961e-05,7.82831e-06,-1.73073e-06,0
-3.24073e-05,-1.13233e-05,-1.00702e-05,-1.14687e-05,7.86203e-06,-1.33842e-05,4.67463e-06,-4.6684e-07,0
-3.07802e-05,-1.45815e-05,-6.57865e-06,-1.32263e-05,1.00076e-05,-1.4087e-05,1.94538e-06,1.20367e-06,0
-3.05149e-05,-1.70069e-05,-5.19267e-06,-1.47535e-05,1.16504e-05,-1.35823e-05,2.65841e-06,1.40404e-06,0
-3.10662e-05,-1.59753e-05,-4.6346e-06,-1.51818e-05,1.28726e-05,-1.33284e-05,9.39825e-06,-5.51273e-07,0
-3.17575e-05,-1.33713e-05,-5.59622e-06,-1.40958e-05,1.40258e-05,-1.43578e-05,1.92317e-05,-3.65384e-06,0
-3.17462e-05,-1.13237e-05,-7.6961e-06,-1.30695e-05,1.5245e-05,-1.49086e-05,2.77899e-05,-4.3543e-06,0
-3.16893e-05,-9.60238e-06,-9.41282e-06,-1.21692e-05,1.43137e-05,-1.50129e-05,3.33423e-05,-2.52466e-06,0
-3.23354e-05,-8.50116e-06,-9.22895e-06,-1.04344e-05,1.0587e-05,-1.51889e-05,3.56974e-05,4.72614e-07,0
-3.25245e-05,-8.28106e-06,-9.00194e-06,-8.62331e-06,8.32982e-06,-1.53874e-05,3.49474e-05,3.6107e-06,0
-3.17808e-05,-6.96492e-06,-9.47014e-06,-8.50925e-06,1.02666e-05,-1.45579e-05,3.06875e-05,4.7389e-06,0
-3.07452e-05,-6.01772e-06,-9.14563e-06,-1.0512e-05,1.38022e-05,-1.40499e-05,2.2852e-05,2.96411e-06,0
-3.06809e-05,-6.24281e-06,-8.48063e-06,-1.32883e-05,1.50599e-05,-1.55153e-05,1.1959e-05,5.65016e-07,0
-3.16475e-05,-3.75366e-06,-9.7252e-06,-1.69019e-05,1.50369e-05,-1.68305e-05,-4.71505e-07,-4.19286e-07,0
-3.10592e-05,9.89183e-07,-1.25237e-05,-2.25037e-05,1.54465e-05,-1.68155e-05,-1.09238e-05,3.23475e-07,0
-2.94019e-05,5.49906e-06,-1.47271e-05,-2.66702e-05,1.51477e-05,-1.57184e-05,-1.62778e-05,2.06614e-07,0
-2.83701e-05,8.36358e-06,-1.62031e-05,-2.78016e-05,1.50662e-05,-1.42693e-05,-1.64574e-05,7.8794e-07,0
-2.86195e-05,9.11591e-06,-1.67397e-05,-2.95243e-05,1.40921e-05,-1.39933e-05,-1.11345e-05,3.06381e-06,0
-2.91429e-05,1.06486e-05,-1.655e-05,-2.82867e-05,1.30385e-05,-1.44097e-05,-3.45993e-06,4.36027e-06,0
-2.86059e-05,1.43572e-05,-1.50568e-05,-1.93442e-05,1.25776e-05,-1.44554e-05,1.76951e-06,4.73454e-06,0
-2.75748e-05,1.58723e-05,-1.25785e-05,-4.94033e-06,1.03401e-05,-1.33506e-05,1.51134e-06,3.11606e-06,0
-2.81056e-05,1.56565e-05,-9.7735e-06,8.17863e-06,8.83521e-06,-1.31545e-05,-6.73546e-06,1.93194e-06,0
-2.89883e-05,1.47855e-05,-6.72511e-06,1.77725e-05,8.55616e-06,-1.48144e-05,-1.50738e-05,2.62467e-06,0
-2.79519e-05,1.35379e-05,-3.15781e-06,2.57077e-05,8.76386e-06,-1.65303e-05,-1.80043e-05,3.19912e-06,0
-2.71242e-05,1.21393e-05,-7.54707e-07,3.20663e-05,1.00724e-05,-1.66735e-05,-1.63632e-05,1.39565e-06,0
-2.72197e-05,9.20801e-06,-1.75372e-06,3.17597e-05,1.19922e-05,-1.55842e-05,-1.05744e-05,-2.88232e-07,0
-2.8225e-05,5.18855e-06,-2.99687e-06,2.44149e-05,1.33691e-05,-1.35527e-05,-7.08966e-07,4.8117e-07,0
-2.98823e-05,1.71149e-06,-2.73557e-06,1.61745e-05,1.41919e-05,-1.0724e-05,1.28657e-05,3.47137e-06,0
-3.07147e-05,1.08617e-06,-2.31827e-06,1.14577e-05,1.42047e-05,-9.78993e-06,2.67432e-05,6.95399e-06,0
-3.00773e-05,2.48136e-06,-1.77864e-06,1.00269e-05,1.42124e-05,-1.2005e-05,3.64812e-05,8.23261e-06,0
-2.91622e-05,5.29019e-06,-1.53431e-06,8.25174e-06,1.4995e-05,-1.47812e-05,3.8792e-05,6.75692e-06,0
-2.92024e-05,7.12056e-06,-2.4643e-06,5.30664e-06,1.49771e-05,-1.5097e-05,3.65751e-05,4.40656e-06,0
-2.95957e-05,5.63232e-06,-5.39022e-06,1.68328e-06,1.37398e-05,-1.38424e-05,3.35764e-05,4.33727e-06,0
-2.98015e-05,3.80966e-06,-8.85043e-06,-2.01727e-06,1.36666e-05,-1.22085e-05,2.92176e-05,6.63872e-06,0
-3.03976e-05,4.71901e-06,-1.11221e-05,-6.50398e-06,1.55119e-05,-1.04725e-05,2.17107e-05,8.55866e-06,0
-3.13775e-05,6.95577e-06,-1.14603e-05,-1.19245e-05,1.68918e-05,-9.03689e-06,1.31542e-05,7.44831e-06,0
-3.23363e-05,8.72775e-06,-1.05085e-05,-1.75268e-05,1.67565e-05,-9.5785e-06,7.22224e-06,5.42862e-06,0
-3.45314e-05,1.04141e-05,-8.53126e-06,-1.88511e-05,1.55778e-05,-1.13836e-05,6.34388e-06,4.54747e-06,0
-3.68411e-05,1.28423e-05,-5.55728e-06,-1.16924e-05,1.39468e-05,-1.2596e-05,8.41401e-06,4.57e-06,0
-3.73274e-05,1.42965e-05,-2.59869e-06,8.95172e-07,1.15763e-05,-1.19958e-05,1.07581e-05,4.91737e-06,0
-3.70942e-05,1.30125e-05,-1.16706e-06,1.22153e-05,1.075e-05,-1.03509e-05,1.33549e-05,5.54811e-06,0
-3.60695e-05,1.35456e-05,-2.75472e-06,2.01757e-05,1.33638e-05,-9.79887e-06,1.5436e-05,6.25773e-06,0
-3.46053e-05,1.6914e-05,-5.46651e-06,2.69778e-05,1.58708e-05,-9.38793e-06,1.67937e-05,5.72958e-06,0
-3.3165e-05,1.84103e-05,-6.85759e-06,3.37364e-05,1.71003e-05,-7.7441e-06,1.5845e-05,4.97841e-06,0
-3.32418e-05,1.67596e-05,-6.24484e-06,3.77197e-05,1.84911e-05,-6.34145e-06,1.44696e-05,6.3924e-06,0
-3.30186e-05,1.48714e-05,-4.77138e-06,3.50668e-05,1.76854e-05,-6.28484e-06,1.56123e-05,7.80114e-06,0
-3.13301e-05,1.35528e-05,-2.74872e-06,2.57869e-05,1.46374e-05,-7.04322e-06,1.65689e-05,8.47904e-06,0
-2.97336e-05,1.22381e-05,-1.1709e-06,1.4151e-05,1.12877e-05,-7.271e-06,1.64839e-05,8.95351e-06,0
-2.89403e-05,1.09675e-05,-2.93667e-06,3.3299e-06,9.43459e-06,-5.3883e-06,1.55401e-05,9.27173e-06,0
-2.9144e-05,1.05021e-05,-5.14536e-06,-7.25624e-06,9.60017e-06,-3.91615e-06,1.48037e-05,9.14769e-06,0
-2.84516e-05,1.05322e-05,-5.58956e-06,-1.5603e-05,1.26716e-05,-3.75132e-06,1.41991e-05,6.75904e-06,0
-2.78197e-05,1.09264e-05,-5.94829e-06,-2.23064e-05,1.84592e-05,-4.01707e-06,1.34898e-05,4.28302e-06,0
-2.73133e-05,1.34211e-05,-5.20288e-06,-2.75115e-05,2.14413e-05,-4.91052e-06,1.36493e-05,2.85111e-06,0
-2.71971e-05,1.68053e-05,-3.97246e-06,-2.58165e-05,2.06697e-05,-4.8991e-06,1.46992e-05,2.86377e-06,0
-2.75183e-05,1.77745e-05,-4.3448e-06,-1.8082e-05,1.88052e-05,-4.15959e-06,1.57395e-05,3.53444e-06,0
-2.83933e-05,1.47809e-05,-6.12544e-06,-1.03561e-05,1.77981e-05,-3.26092e-06,1.75708e-05,3.99868e-06,0
-2.96846e-05,1.12904e-05,-7.21264e-06,-6.46307e-06,1.70704e-05,-3.75502e-06,2.2303e-05,3.43305e-06,0
-3.13062e-05,9.7781e-06,-6.95716e-06,-5.88135e-06,1.62824e-05,-4.46646e-06,2.73169e-05,1.43425e-06,0
-3.24853e-05,1.01732e-05,-6.68307e-06,-6.0511e-06,1.72552e-05,-3.68648e-06,3.01159e-05,-3.09309e-07,0
-3.18535e-05,1.15784e-05,-6.6323e-06,-7.31099e-06,1.95311e-05,-2.04939e-06,3.03053e-05,-9.62175e-07,0
-3.04877e-05,1.18498e-05,-5.45727e-06,-9.70926e-06,2.1071e-05,-1.34479e-06,2.8863e-05,-2.80358e-07,0
-2.98882e-05,1.03397e-05,-3.32488e-06,-1.13185e-05,2.10762e-05,-3.06086e-06,2.51207e-05,1.48198e-06,0
-3.04986e-05,9.5466e-06,-2.3812e-06,-1.14516e-05,2.02682e-05,-4.84336e-06,2.02922e-05,3.2449e-06,0
-3.10978e-05,1.12466e-05,-2.68636e-06,-1.04895e-05,1.89186e-05,-4.9836e-06,1.62888e-05,3.59648e-06,0
-3.13474e-05,1.41688e-05,-3.43396e-06,-7.13356e-06,1.74545e-05,-3.66356e-06,1.4119e-05,2.86648e-06,0
-3.13712e-05,1.52642e-05,-4.26305e-06,-4.07913e-07,1.76609e-05,-2.33369e-06,1.37138e-05,1.18872e-06,0
-3.19778e-05,1.41024e-05,-4.85467e-06,9.16826e-06,2.06991e-05,-1.48185e-06,1.36322e-05,-8.97518e-08,0
-3.24451e-05,1.18669e-05,-5.2598e-06,1.61212e-05,2.35698e-05,-1.36431e-06,1.35257e-05,-5.59367e-07,0
-3.22972e-05,1.04254e-05,-5.80067e-06,1.67533e-05,2.43341e-05,-2.57337e-06,1.30296e-05,-6.65243e-07,0
-3.15759e-05,1.06854e-05,-6.23001e-06,1.29389e-05,2.38972e-05,-3.07696e-06,1.09141e-05,-1.27053e-06,0
-3.05578e-05,1.03597e-05,-6.47121e-06,7.87973e-06,2.36448e-05,-3.09011e-06,8.79254e-06,-2.24522e-06,0
-3.09298e-05,7.66825e-06,-7.9188e-06,6.62255e-06,2.31601e-05,-4.74542e-06,5.65172e-06,-1.21773e-06,0
-3.13902e-05,3.48435e-06,-1.04366e-05,6.95065e-06,2.22537e-05,-5.68311e-06,-4.7321e-06,-7.47035e-07,0
-3.14792e-05,2.54598e-06,-1.49799e-05,3.65158e-06,2.12886e-05,-5.21257e-06,-1.82902e-05,-2.14522e-06,0
-3.22998e-05,3.5009e-06,-2.01139e-05,-3.03016e-06,1.9234e-05,-4.60058e-06,-2.42036e-05,-3.21045e-06,0
-3.37379e-05,6.04962e-06,-2.24976e-05,-1.18411e-05,1.64856e-05,-5.45343e-06,-2.06141e-05,-3.91436e-06,0
-3.37025e-05,8.98766e-06,-2.25227e-05,-2.10444e-05,1.16332e-05,-6.48962e-06,-1.00206e-05,-4.7946e-06,0
-3.25746e-05,1.12508e-05,-2.09379e-05,-2.65274e-05,7.00871e-06,-8.2358e-06,3.65211e-06,-4.74742e-06,0
-3.22689e-05,1.3579e-05,-1.87332e-05,-2.80888e-05,4.94194e-06,-1.00536e-05,1.34175e-05,-4.00183e-06,0
-3.09015e-05,1.51328e-05,-1.43378e-05,-2.82887e-05,3.18406e-06,-1.19929e-05,1.99448e-05,-4.24119e-06,0
-2.98428e-05,1.69128e-05,-7.72787e-06,-2.60418e-05,2.0974e-06,-1.46968e-05,2.64971e-05,-5.24739e-06,0
-3.03773e-05,1.79821e-05,4.06115e-07,-2.23556e-05,1.89971e-06,-1.55528e-05,3.13251e-05,-5.30769e-06,0
-3.13519e-05,1.76038e-05,1.05909e-05,-2.02527e-05,2.34918e-06,-1.565e-05,3.06667e-05,-4.54483e-06,0
-3.20164e-05,1.65494e-05,2.22832e-05,-1.58886e-05,3.6485e-06,-1.63624e-05,2.43085e-05,-4.21384e-06,0
-3.23739e-05,2.06265e-05,3.38186e-05,-6.86772e-06,6.94043e-06,-1.73192e-05,1.52571e-05,-4.31112e-06,0
-3.14456e-05,3.23989e-05,4.11233e-05,2.20666e-06,1.02129e-05,-1.70179e-05,8.77019e-06,-3.93149e-06,0
-2.89509e-05,4.7674e-05,3.90241e-05,6.10907e-06,1.19082e-05,-1.65545e-05,8.49729e-06,-2.07429e-06,0
-2.73071e-05,5.92956e-05,2.46534e-05,4.45503e-06,1.42856e-05,-1.62578e-05,1.10782e-05,-3.12972e-07,0
-2.80209e-05,6.46487e-05,1.46212e-06,3.82962e-07,1.71999e-05,-1.59806e-05,1.21413e-05,-9.29262e-08,0
-3.01462e-05,6.34039e-05,-2.34885e-05,-3.61517e-06,1.78422e-05,-1.53026e-05,1.06931e-05,-7.84483e-07,0
-3.09007e-05,5.51347e-05,-4.33688e-05,-6.70157e-06,1.50637e-05,-1.6176e-05,9.07846e-06,-1.8989e-06,0
-3.01874e-05,3.96289e-05,-5.30593e-05,-1.04402e-05,1.1257e-05,-1.88151e-05,9.46724e-06,-3.11745e-06,0
-2.94562e-05,1.86836e-05,-5.18109e-05,-1.41345e-05,9.3068e-06,-1.99962e-05,1.01609e-05,-3.27512e-06,0
-2.79372e-05,-1.39203e-06,-4.50082e-05,-1.46737e-05,1.03912e-05,-1.9234e-05,8.99595e-06,-3.28532e-06,0
-2.57009e-05,-1.25248e-05,-3.75824e-05,-9.26332e-06,1.18689e-05,-1.99211e-05,8.10124e-06,-3.46141e-06,0
-2.56681e-05,-1.21843e-05,-3.01191e-05,-3.66396e-07,1.19394e-05,-2.07175e-05,9.02935e-06,-3.66724e-06,0
-2.79244e-05,-5.75439e-06,-2.43161e-05,7.00243e-06,1.15994e-05,-1.95447e-05,1.02867e-05,-2.97238e-06,0
-2.85577e-05,-8.73478e-07,-2.12819e-05,6.35905e-06,1.23887e-05,-1.96831e-05,1.21408e-05,-1.63831e-06,0
-2.61093e-05,-2.64631e-06,-1.78507e-05,-1.69411e-06,1.3142e-05,-2.09576e-05,1.12001e-05,-2.62566e-06,0
-2.49262e-05,-6.58174e-06,-1.49397e-05,-2.72852e-06,1.37974e-05,-2.11282e-05,4.95492e-06,-4.51777e-06,0
-2.71897e-05,-8.40282e-06,-1.59904e-05,7.04648e-06,1.55987e-05,-1.96615e-05,-2.25095e-07,-4.51053e-06,0
-2.86732e-05,-4.81952e-06,-1.71252e-05,1.50014e-05,1.60286e-05,-1.7218e-05,-7.15052e-08,-2.3954e-06,0
-2.81607e-05,4.23972e-06,-1.49953e-05,1.33248e-05,1.4538e-05,-1.52488e-05,4.5264e-06,-1.74038e-06,0
-2.76195e-05,1.35524e-05,-1.161e-05,5.25608e-06,1.40304e-05,-1.49611e-05,1.09874e-05,-2.6818e-06,0
-2.73033e-05,1.92832e-05,-9.63002e-06,-5.78233e-06,1.47811e-05,-1.45202e-05,1.6977e-05,-2.62565e-06,0
-2.8071e-05,2.05704e-05,-9.86412e-06,-1.71436e-05,1.47094e-05,-1.3847e-05,2.07438e-05,-6.71711e-07,0
-2.97534e-05,1.89036e-05,-9.1255e-06,-2.51283e-05,1.46071e-05,-1.32299e-05,2.24848e-05,6.16783e-07,0
-3.09363e-05,1.74519e-05,-6.89629e-06,-3.03817e-05,1.46074e-05,-1.2036e-05,2.37964e-05,-3.62733e-07,0
-3.0383e-05,1.77596e-05,-5.73646e-06,-3.30713e-05,1.37009e-05,-1.07436e-05,2.45195e-05,-1.13364e-06,0
-2.88659e-05,1.71639e-05,-7.97868e-06,-3.4713e-05,1.19145e-05,-1.01585e-05,2.36646e-05,-1.37551e-06,0
-2.75218e-05,1.54551e-05,-1.32629e-05,-3.71407e-05,1.13318e-05,-1.02906e-05,2.23767e-05,-1.38864e-06,0
-2.72781e-05,1.48027e-05,-2.19879e-05,-3.78001e-05,1.18476e-05,-1.05591e-05,2.2261e-05,-9.34413e-07,0
-2.82998e-05,1.89038e-05,-3.12963e-05,-3.33715e-05,1.02344e-05,-1.11982e-05,2.31189e-05,-3.3125e-07,0
-2.96419e-05,2.79953e-05,-3.54106e-05,-2.47522e-05,7.76546e-06,-1.23967e-05,2.47004e-05,-1.2262e-06,0
-2.98843e-05,3.60382e-05,-3.24903e-05,-1.65411e-05,9.2502e-06,-1.23519e-05,2.60963e-05,-2.67424e-06,0
-2.84751e-05,3.76912e-05,-2.34446e-05,-1.19268e-05,1.40823e-05,-1.03666e-05,2.57571e-05,-3.62746e-06,0
-2.79078e-05,3.3817e-05,-1.39169e-05,-1.25482e-05,1.73816e-05,-8.45728e-06,2.3686e-05,-2.95047e-06,0
-2.9315e-05,2.92428e-05,-8.58681e-06,-1.6784e-05,1.86569e-05,-7.95912e-06,2.05949e-05,-8.38899e-07,0
-3.14006e-05,2.63902e-05,-7.46781e-06,-1.89584e-05,1.91521e-05,-9.15281e-06,1.61308e-05,8.92442e-07,0
-3.31502e-05,2.45085e-05,-7.63679e-06,-1.4159e-05,1.9708e-05,-1.0696e-05,1.08313e-05,2.01761e-06,0
-3.29473e-05,2.11177e-05,-7.32042e-06,-3.89045e-06,1.87785e-05,-1.03388e-05,7.47729e-06,2.87988e-06,0
-3.0447e-05,1.60659e-05,-5.04732e-06,7.0235e-06,1.57431e-05,-8.32938e-06,7.74085e-06,3.07462e-06,0
-2.89575e-05,1.0178e-05,-2.06157e-06,1.37731e-05,1.37864e-05,-6.38345e-06,1.03099e-05,2.39014e-06,0
-2.9249e-05,4.17564e-06,5.57932e-07,1.2879e-05,1.16644e-05,-5.47747e-06,1.24215e-05,2.76119e-06,0
-2.98801e-05,9.70794e-07,1.61252e-06,6.28765e-06,8.86139e-06,-3.39699e-06,1.14722e-05,4.02377e-06,0
-2.96168e-05,1.26544e-06,1.95756e-06,3.35055e-06,1.05894e-05,-1.87497e-07,8.95088e-06,4.06882e-06,0
-2.97413e-05,3.95341e-06,3.59947e-06,6.01496e-06,1.45935e-05,1.19857e-06,9.74318e-06,2.6987e-06,0
-3.04515e-05,9.03501e-06,3.95202e-06,7.36156e-06,1.53603e-05,2.36613e-06,1.60165e-05,1.12713e-06,0
-2.95022e-05,1.51638e-05,3.78477e-06,6.73123e-06,1.30911e-05,2.544e-06,2.19777e-05,3.99272e-07,0
-2.79996e-05,1.82224e-05,3.92183e-06,7.40967e-06,9.68448e-06,1.70292e-06,2.18504e-05,1.04667e-06,0
-2.68397e-05,1.79477e-05,3.1746e-06,1.2705e-05,4.66904e-06,3.26092e-07,1.72926e-05,1.59204e-06,0
-2.52502e-05,1.67813e-05,4.86653e-07,2.01676e-05,6.39688e-07,-1.05682e-06,1.29952e-05,1.68863e-06,0
-2.47297e-05,1.54493e-05,-2.46415e-06,2.27769e-05,1.46616e-06,-1.99935e-06,1.05269e-05,1.7554e-06,0
-2.57081e-05,1.43789e-05,-3.23165e-06,1.96475e-05,3.5667e-06,-2.30678e-06,1.07925e-05,2.78929e-06,0
-2.62803e-05,1.5105e-05,-3.48035e-06,1.51886e-05,6.127e-06,-2.47126e-06,1.35646e-05,3.5566e-06,0
-2.52038e-05,1.831e-05,-3.42697e-06,1.22049e-05,8.89865e-06,-4.21827e-06,1.53682e-05,3.09985e-06,0
-2.33867e-05,2.04463e-05,-2.60015e-06,8.61232e-06,1.08326e-05,-6.2704e-06,1.35464e-05,1.92829e-06,0
-2.35775e-05,1.88172e-05,-1.18949e-06,4.04075e-06,1.23113e-05,-8.24007e-06,9.17956e-06,1.36089e-06,0
-2.67974e-05,1.51394e-05,-1.15942e-06,1.55855e-06,1.36096e-05,-9.64088e-06,1.25187e-06,1.63689e-06,0
-3.06158e-05,1.30521e-05,-1.96875e-06,1.58732e-06,1.50163e-05,-9.70488e-06,-1.34212e-05,7.59352e-07,0
-3.26811e-05,1.27545e-05,-8.80641e-07,1.15123e-06,1.74086e-05,-8.604e-06,-2.90446e-05,-5.7186e-07,0
-3.33945e-05,1.35205e-05,5.86632e-07,-1.2667e-06,2.07881e-05,-6.93454e-06,-3.62757e-05,-1.27065e-06,0
-3.33151e-05,1.43529e-05,2.73847e-07,-4.91557e-06,2.27927e-05,-5.3377e-06,-3.11548e-05,-1.35602e-06,0
-3.34134e-05,1.37904e-05,-4.69985e-07,-9.40501e-06,2.22128e-05,-4.86165e-06,-1.72879e-05,-7.78085e-07,0
-3.42726e-05,1.29685e-05,-1.26892e-06,-1.27427e-05,1.96343e-05,-5.55287e-06,-5.74905e-07,-1.70704e-07,0
-3.40645e-05,1.30332e-05,-4.21519e-06,-1.36939e-05,1.65655e-05,-7.38095e-06,1.45243e-05,-1.03008e-06,0
-3.21599e-05,1.31229e-05,-7.19806e-06,-1.25518e-05,1.44185e-05,-8.85036e-06,2.68434e-05,-1.28485e-06,0
-3.2296e-05,1.39673e-05,-7.99815e-06,-1.02348e-05,1.247e-05,-8.9567e-06,3.49538e-05,-1.21962e-07,0
-3.35335e-05,1.53972e-05,-6.31907e-06,-7.64848e-06,9.28047e-06,-7.82681e-06,3.73061e-05,4.72096e-07,0
-3.41887e-05,1.43465e-05,-4.6333e-06,-5.71408e-06,7.38475e-06,-5.88863e-06,3.58738e-05,-5.4054e-07,0
-3.39874e-05,1.13762e-05,-5.34105e-06,-2.87193e-06,7.9818e-06,-5.11652e-06,3.20813e-05,-6.34648e-07,0
-3.19029e-05,1.01502e-05,-5.97299e-06,-7.05105e-07,1.00526e-05,-5.54089e-06,2.88117e-05,7.00474e-07,0
-3.03876e-05,8.46851e-06,-4.08628e-06,-2.25245e-06,1.01341e-05,-5.28083e-06,2.72911e-05,2.39378e-06,0
-3.08929e-05,4.22163e-06,-1.80998e-06,-4.1987e-06,7.69924e-06,-5.40025e-06,2.40932e-05,3.11058e-06,0
-3.26159e-05,1.94224e-06,-1.18594e-06,-4.2786e-06,6.3031e-06,-5.14483e-06,2.14034e-05,1.8295e-06,0
-3.26016e-05,3.65128e-06,-2.01719e-06,-4.01061e-06,5.8896e-06,-3.78481e-06,2.17677e-05,4.9063e-07,0
-3.20722e-05,4.59306e-06,-2.77961e-06,-5.53191e-06,3.63764e-06,-2.84504e-06,2.40453e-05,5.48291e-07,0
-3.21159e-05,9.74641e-07,-2.8216e-06,-6.44767e-06,2.196e-08,-2.22637e-06,2.70384e-05,1.3754e-06,0
-3.1503e-05,-3.10132e-06,-3.38396e-06,-5.49058e-06,-1.28359e-06,-1.51001e-06,2.66864e-05,2.48591e-06,0
-3.22694e-05,-5.21475e-06,-4.78441e-06,-4.42451e-06,2.50593e-07,-5.22623e-07,2.34808e-05,3.89734e-06,0
-3.48002e-05,-5.15424e-06,-9.61237e-06,-6.83918e-06,2.51233e-06,-8.32594e-07,2.07341e-05,3.96531e-06,0
-3.69063e-05,-4.15698e-06,-1.72795e-05,-1.13202e-05,4.41794e-06,-1.69475e-06,1.83164e-05,3.19222e-06,0
-3.81644e-05,-2.54986e-06,-2.23063e-05,-1.46572e-05,6.11757e-06,-1.95656e-06,1.56072e-05,2.63708e-06,0
-3.84128e-05,-1.08026e-07,-2.36009e-05,-2.06392e-05,7.20044e-06,-2.27207e-06,1.42703e-05,3.41396e-06,0
-3.77043e-05,2.96002e-06,-2.28565e-05,-2.96235e-05,7.46435e-06,-3.52088e-06,1.44774e-05,4.36958e-06,0
-3.75816e-05,5.95695e-06,-2.16121e-05,-3.78594e-05,7.60424e-06,-4.18827e-06,1.39765e-05,4.85907e-06,0
-3.77421e-05,7.19851e-06,-2.12359e-05,-4.04731e-05,8.2204e-06,-3.95197e-06,1.18396e-05,4.7627e-06,0
-3.78406e-05,7.17932e-06,-2.14478e-05,-3.27482e-05,9.77792e-06,-3.55839e-06,9.39947e-06,4.29926e-06,0
-3.78609e-05,7.34469e-06,-1.99424e-05,-1.30017e-05,1.19119e-05,-4.2999e-06,7.24632e-06,3.90994e-06,0
-3.78387e-05,8.09581e-06,-1.55222e-05,1.25235e-05,1.37378e-05,-6.26107e-06,4.99119e-06,3.99497e-06,0
-3.73346e-05,8.89211e-06,-9.44921e-06,3.39034e-05,1.49807e-05,-6.9336e-06,3.5345e-06,4.77019e-06,0
-3.53511e-05,1.06507e-05,-2.4226e-06,4.55594e-05,1.43324e-05,-6.84614e-06,4.37831e-06,5.30849e-06,0
-3.33157e-05,1.25143e-05,4.55353e-06,4.65446e-05,1.32609e-05,-6.96498e-06,6.18229e-06,4.5855e-06,0
-3.26701e-05,1.27909e-05,8.82837e-06,3.64352e-05,1.34335e-05,-7.44678e-06,7.63928e-06,2.3576e-06,0
-3.18314e-05,1.06632e-05,1.04189e-05,1.7572e-05,1.43762e-05,-9.07099e-06,8.33385e-06,5.77622e-07,0
-2.98424e-05,9.45315e-06,1.23575e-05,-3.46522e-06,1.50794e-05,-1.08135e-05,7.30868e-06,-2.6678e-08,0
-2.8222e-05,1.17786e-05,1.43609e-05,-1.82774e-05,1.46464e-05,-1.21995e-05,5.66568e-06,1.86493e-07,0
-2.83204e-05,1.56024e-05,1.68749e-05,-2.53257e-05,1.42666e-05,-1.40866e-05,4.39821e-06,3.02947e-07,0
-2.9505e-05,1.84132e-05,2.14455e-05,-2.87318e-05,1.50901e-05,-1.41378e-05,4.74089e-06,7.70337e-07,0
-3.03917e-05,1.90671e-05,2.34808e-05,-2.76676e-05,1.67355e-05,-1.40326e-05,6.55344e-06,-5.51089e-07,0
-3.12434e-05,1.86268e-05,2.16463e-05,-2.40876e-05,1.73227e-05,-1.69677e-05,7.194e-06,-2.95056e-06,0
