ch1,ch2,ch3,ch4,ch5,ch6,ch7,ch8,class
-3.25661e-05,-5.2788e-06,4.52822e-06,-3.51766e-05,1.15237e-05,-1.55419e-05,-5.18435e-05,-2.97023e-06,0
-3.39984e-05,-5.92765e-06,4.54106e-06,-4.2803e-05,8.91593e-06,-1.30819e-05,-6.01354e-05,-1.26753e-06,0
-3.17347e-05,-2.06727e-06,4.89839e-06,-4.60462e-05,5.335e-06,-1.22091e-05,-4.72224e-05,-1.45575e-07,0
-2.95757e-05,2.455e-06,4.99222e-06,-3.95409e-05,3.33216e-06,-1.21994e-05,-1.73227e-05,-1.13514e-06,0
-2.75873e-05,6.64531e-06,4.78287e-06,-3.00839e-05,4.08123e-06,-1.09695e-05,1.91437e-05,-3.59018e-06,0
-2.73609e-05,7.47203e-06,5.93925e-06,-2.17559e-05,3.06068e-06,-9.58217e-06,4.86482e-05,-5.0162e-06,0
-2.84538e-05,4.52519e-06,5.70932e-06,-1.55316e-05,2.38147e-06,-9.09371e-06,6.76838e-05,-5.8067e-06,0
-2.96149e-05,1.07596e-06,2.52762e-06,-8.933e-06,3.34008e-06,-9.3757e-06,7.29517e-05,-5.37614e-06,0
-3.03813e-05,9.13326e-07,-1.16183e-06,-3.39615e-06,3.76806e-06,-9.98128e-06,6.36729e-05,-5.07456e-06,0
-3.03511e-05,4.98819e-06,-1.38923e-06,-6.97753e-08,3.88851e-06,-1.02453e-05,4.44526e-05,-3.13634e-06,0
-2.9268e-05,1.13792e-05,1.76548e-06,2.37324e-06,3.83599e-06,-1.03236e-05,2.435e-05,-1.30759e-06,0
-2.77507e-05,1.75252e-05,2.23472e-06,-1.73566e-07,3.23374e-06,-1.09751e-05,8.48818e-06,5.60012e-07,0
-2.74426e-05,2.06224e-05,-7.1941e-07,-6.66278e-06,1.3446e-06,-1.19021e-05,-2.06729e-06,2.62929e-06,0
-2.85273e-05,2.0834e-05,-2.70017e-06,-9.9438e-06,5.21837e-07,-1.23799e-05,-8.54066e-06,4.13979e-06,0
-3.07515e-05,2.07846e-05,-3.37028e-06,-5.47849e-06,2.05951e-06,-1.21375e-05,-1.19291e-05,4.91062e-06,0
-3.24616e-05,2.06637e-05,-4.00524e-06,7.27212e-07,3.13375e-06,-1.13133e-05,-8.74037e-06,4.21088e-06,0
-3.28736e-05,2.01282e-05,-4.59929e-06,4.95853e-06,2.02123e-06,-1.13508e-05,3.61124e-07,2.69178e-06,0
-3.38353e-05,2.1062e-05,-4.89112e-06,1.08718e-05,9.73107e-07,-1.20329e-05,1.00434e-05,1.78465e-06,0
-3.57535e-05,2.44601e-05,-4.66412e-06,2.17887e-05,1.40117e-06,-1.22819e-05,1.46234e-05,3.23454e-06,0
-3.6128e-05,2.72159e-05,-4.38557e-06,3.13349e-05,1.82074e-06,-1.1796e-05,1.59977e-05,5.02817e-06,0
-3.54271e-05,2.70424e-05,-4.81435e-06,3.25323e-05,1.0583e-06,-1.08091e-05,1.78546e-05,7.06029e-06,0
-3.54683e-05,2.58714e-05,-5.7143e-06,2.52795e-05,1.74973e-06,-8.92799e-06,2.19657e-05,8.29129e-06,0
-3.5873e-05,2.51409e-05,-5.70159e-06,1.26273e-05,5.28266e-06,-6.90774e-06,2.64564e-05,8.0051e-06,0
-3.66593e-05,2.51791e-05,-4.71608e-06,-1.35686e-06,7.92191e-06,-4.87901e-06,2.78672e-05,7.05543e-06,0
-3.66266e-05,2.50079e-05,-3.60268e-06,-1.28853e-05,8.79199e-06,-2.8176e-06,2.38263e-05,5.66081e-06,0
-3.44928e-05,2.50596e-05,-2.40578e-06,-2.0365e-05,1.00988e-05,-1.67147e-06,1.76661e-05,4.81669e-06,0
-3.13612e-05,2.77934e-05,-6.63549e-07,-2.48992e-05,1.27312e-05,1.00492e-07,1.51968e-05,6.83775e-06,0
-2.91628e-05,3.15373e-05,1.83267e-06,-2.51267e-05,1.65248e-05,1.34798e-06,1.69707e-05,9.84823e-06,0
-2.81462e-05,3.4673e-05,1.51282e-06,-1.75108e-05,1.86154e-05,2.85154e-07,1.86021e-05,1.03818e-05,0
-2.87351e-05,3.45374e-05,-5.91393e-07,-6.49086e-06,1.55476e-05,-1.69689e-06,1.86033e-05,8.34948e-06,0
-3.02982e-05,2.74567e-05,-2.34475e-06,2.07644e-08,9.76605e-06,-2.3677e-06,1.79269e-05,6.8367e-06,0
-3.10539e-05,1.809e-05,-3.50964e-06,4.92703e-06,7.08666e-06,-2.76341e-06,1.69086e-05,6.9785e-06,0
-3.1808e-05,1.25835e-05,-3.88476e-06,1.00736e-05,7.96425e-06,-4.24319e-06,1.78097e-05,6.72213e-06,0
-3.22175e-05,1.05632e-05,-4.21438e-06,1.09556e-05,9.52379e-06,-6.14266e-06,1.88343e-05,4.69213e-06,0
-3.15878e-05,1.00277e-05,-4.63034e-06,3.99576e-06,1.0445e-05,-7.70334e-06,1.79159e-05,1.59188e-06,0
-3.11853e-05,1.02792e-05,-7.95017e-06,-8.05766e-06,1.09363e-05,-9.10125e-06,1.68285e-05,1.11923e-06,0
-3.15174e-05,1.06091e-05,-1.17644e-05,-2.01531e-05,1.18418e-05,-1.16416e-05,1.71903e-05,2.05386e-06,0
-3.18989e-05,1.12419e-05,-1.28627e-05,-2.78302e-05,1.31154e-05,-1.35672e-05,1.79848e-05,1.00575e-06,0
-3.19808e-05,1.24463e-05,-1.10071e-05,-3.17545e-05,1.49404e-05,-1.32021e-05,1.83001e-05,-4.9942e-07,0
-3.16628e-05,1.47337e-05,-9.39822e-06,-3.85357e-05,1.56427e-05,-1.19361e-05,1.84436e-05,-9.30089e-07,0
-3.12433e-05,1.98605e-05,-9.46554e-06,-5.02036e-05,1.43499e-05,-1.13015e-05,1.83507e-05,-1.4111e-06,0
-3.16532e-05,2.48791e-05,-8.98079e-06,-5.84551e-05,1.17416e-05,-1.05273e-05,1.7177e-05,-2.552e-06,0
-3.28799e-05,2.47297e-05,-7.60233e-06,-5.58675e-05,8.47151e-06,-9.85092e-06,1.55027e-05,-3.67573e-06,0
-3.35187e-05,1.83623e-05,-7.73889e-06,-4.37426e-05,6.72804e-06,-9.35001e-06,1.43392e-05,-5.03436e-06,0
-3.36578e-05,1.04666e-05,-1.05809e-05,-2.66214e-05,8.48169e-06,-8.40742e-06,1.36403e-05,-6.4795e-06,0
-3.42796e-05,7.27608e-06,-1.279e-05,-9.43627e-06,1.29661e-05,-8.39542e-06,1.27221e-05,-7.63616e-06,0
-3.41888e-05,9.93581e-06,-1.1936e-05,4.29808e-06,1.74538e-05,-9.99407e-06,1.06586e-05,-8.72309e-06,0
-3.26422e-05,1.47222e-05,-1.03156e-05,1.17636e-05,1.95444e-05,-1.12843e-05,8.30205e-06,-8.62647e-06,0
-3.13688e-05,1.73738e-05,-9.58309e-06,1.08691e-05,1.77946e-05,-1.07946e-05,8.49822e-06,-8.60311e-06,0
-3.24131e-05,1.71351e-05,-8.65895e-06,4.17643e-06,1.39253e-05,-9.96352e-06,1.19232e-05,-9.73088e-06,0
-3.39879e-05,1.73716e-05,-7.66314e-06,-3.05177e-06,1.03797e-05,-9.73068e-06,1.54901e-05,-9.62996e-06,0
-3.48005e-05,2.1327e-05,-6.8848e-06,-8.97402e-06,9.25437e-06,-8.99937e-06,1.83418e-05,-8.88527e-06,0
-3.62585e-05,2.38829e-05,-7.69527e-06,-1.09761e-05,1.17571e-05,-7.96676e-06,2.19513e-05,-9.04942e-06,0
-3.67078e-05,2.30544e-05,-1.0426e-05,-1.0558e-05,1.51769e-05,-7.0836e-06,2.61943e-05,-8.92729e-06,0
-3.59502e-05,2.43106e-05,-1.29304e-05,-1.1135e-05,1.75695e-05,-6.17696e-06,2.92681e-05,-7.91329e-06,0
-3.44468e-05,2.72042e-05,-1.35917e-05,-1.265e-05,1.82348e-05,-6.62568e-06,2.894e-05,-6.51546e-06,0
-3.20715e-05,2.99621e-05,-1.47421e-05,-1.30848e-05,1.76521e-05,-7.78541e-06,2.49867e-05,-4.66857e-06,0
-3.08825e-05,3.09182e-05,-1.45398e-05,-1.18251e-05,1.83638e-05,-9.50604e-06,1.94317e-05,-4.46684e-06,0
-3.06967e-05,3.05427e-05,-1.23627e-05,-7.22314e-06,1.967e-05,-1.07253e-05,1.67189e-05,-4.99011e-06,0
-3.09511e-05,3.40753e-05,-9.85535e-06,1.54817e-06,2.06878e-05,-9.56926e-06,1.71759e-05,-3.3916e-06,0
-3.12881e-05,4.15476e-05,-9.12045e-06,1.15987e-05,1.9972e-05,-7.88093e-06,1.54728e-05,-2.90842e-06,0
-3.13906e-05,5.02391e-05,-1.16833e-05,2.21623e-05,1.83241e-05,-6.56255e-06,8.74301e-06,-2.86181e-06,0
-3.19663e-05,5.60326e-05,-1.40695e-05,2.91925e-05,1.81046e-05,-3.8398e-06,3.86309e-07,-2.44662e-06,0
-3.18932e-05,5.5205e-05,-1.41633e-05,2.93536e-05,1.83736e-05,-1.06123e-06,-3.45098e-06,-1.54354e-06,0
-3.09759e-05,4.76326e-05,-1.19733e-05,2.28063e-05,1.88405e-05,-2.44305e-07,-1.98425e-06,-8.6299e-07,0
-3.0584e-05,3.673e-05,-9.26547e-06,1.45354e-05,1.87884e-05,-1.97432e-06,3.35171e-07,-7.31696e-07,0
-3.01327e-05,2.58328e-05,-6.34192e-06,9.36409e-06,1.81043e-05,-4.54956e-06,1.16863e-06,-2.17351e-07,0
-2.9956e-05,1.56554e-05,-3.70579e-06,7.02038e-06,1.76697e-05,-5.03321e-06,1.93619e-07,-7.64006e-07,0
-3.04387e-05,7.42452e-06,-2.71559e-06,5.13466e-06,1.78811e-05,-3.00128e-06,-2.34379e-06,-2.0662e-06,0
-3.1507e-05,1.50098e-06,-3.31351e-06,3.9199e-06,1.67805e-05,-1.21569e-06,-3.6466e-06,-3.01245e-06,0
-3.24888e-05,-3.66995e-06,-4.28375e-06,4.19783e-06,1.52444e-05,-2.08616e-06,-9.54783e-07,-3.03037e-06,0
-3.27734e-05,-7.42731e-06,-5.45901e-06,4.7009e-06,1.63729e-05,-3.24224e-06,4.80119e-06,-2.76006e-06,0
-3.25808e-05,-7.05182e-06,-6.18785e-06,5.10372e-06,1.80431e-05,-2.79934e-06,9.75782e-06,-1.96711e-06,0
-3.16434e-05,-2.39687e-06,-6.18784e-06,4.16606e-06,1.62487e-05,-1.41826e-06,1.23303e-05,-1.00079e-06,0
-3.10124e-05,4.73924e-06,-6.0791e-06,1.80668e-06,1.19773e-05,-9.83177e-07,1.35948e-05,-7.02307e-07,0
-3.06874e-05,1.16403e-05,-5.94835e-06,1.9316e-07,9.63e-06,-1.95795e-06,1.37806e-05,-1.84247e-06,0
-2.95278e-05,1.67869e-05,-4.93335e-06,-9.89671e-07,9.7113e-06,-4.32948e-06,1.40242e-05,-3.2171e-06,0
-2.76403e-05,1.96337e-05,-4.3458e-06,-3.58685e-06,9.76377e-06,-5.89975e-06,1.53393e-05,-4.62145e-06,0
-2.62194e-05,2.18638e-05,-5.8097e-06,-7.70461e-06,8.75264e-06,-5.94777e-06,1.5157e-05,-4.24246e-06,0
-2.68928e-05,2.32269e-05,-7.26954e-06,-1.42351e-05,8.79945e-06,-6.80536e-06,1.32124e-05,-2.21492e-06,0
-2.87678e-05,2.38571e-05,-8.66713e-06,-1.92271e-05,1.01606e-05,-7.83854e-06,1.29955e-05,-9.63597e-07,0
-2.93647e-05,2.27519e-05,-9.89778e-06,-1.88438e-05,1.19479e-05,-8.20294e-06,1.61975e-05,8.14715e-08,0
-2.92474e-05,1.85624e-05,-1.14914e-05,-1.31635e-05,1.22285e-05,-8.11037e-06,1.80164e-05,6.3203e-07,0
-2.90542e-05,1.50985e-05,-1.34449e-05,-7.52255e-06,1.04249e-05,-9.41262e-06,1.67222e-05,8.12155e-07,0
-2.93987e-05,1.42102e-05,-1.45758e-05,-2.37389e-06,8.86261e-06,-1.08876e-05,1.36715e-05,1.57664e-06,0
-2.92541e-05,1.28311e-05,-1.60034e-05,3.91849e-06,7.18324e-06,-8.72962e-06,2.99435e-06,3.81558e-06,0
-2.78233e-05,9.92054e-06,-1.69883e-05,8.03253e-06,7.73666e-06,-6.0905e-06,-1.66208e-05,6.04987e-06,0
-2.7082e-05,9.82725e-06,-1.73337e-05,9.34327e-06,9.33993e-06,-7.23017e-06,-3.13007e-05,5.3035e-06,0
-2.79596e-05,1.13689e-05,-1.6556e-05,1.00035e-05,9.20508e-06,-1.00469e-05,-2.95461e-05,3.13962e-06,0
-3.00529e-05,1.26903e-05,-1.58552e-05,1.31668e-05,8.68045e-06,-9.38569e-06,-1.54688e-05,4.07076e-06,0
-3.14806e-05,1.51531e-05,-1.66437e-05,1.62643e-05,8.91664e-06,-6.43318e-06,1.21743e-06,6.5106e-06,0
-3.03239e-05,2.16715e-05,-1.84177e-05,1.96994e-05,9.272e-06,-4.18136e-06,1.43756e-05,6.94136e-06,0
-2.70431e-05,3.27056e-05,-2.0579e-05,2.23194e-05,1.08936e-05,-3.28834e-06,2.32501e-05,6.77815e-06,0
-2.38607e-05,4.29113e-05,-2.12494e-05,2.23258e-05,1.42786e-05,-5.09822e-06,2.84294e-05,8.5071e-06,0
-2.25663e-05,4.77891e-05,-2.02023e-05,1.72157e-05,1.56004e-05,-7.83089e-06,3.18281e-05,1.07946e-05,0
-2.4103e-05,4.54006e-05,-1.86339e-05,7.67072e-06,1.48067e-05,-8.3185e-06,3.41272e-05,1.11825e-05,0
-2.74784e-05,3.5228e-05,-1.70111e-05,-1.64561e-06,1.35529e-05,-6.26709e-06,3.45832e-05,9.7512e-06,0
-3.01061e-05,1.47915e-05,-1.56293e-05,-8.65834e-06,1.28591e-05,-5.44639e-06,3.16296e-05,7.7337e-06,0
-3.05692e-05,-1.40871e-05,-1.54892e-05,-1.28859e-05,1.30264e-05,-6.64331e-06,2.40179e-05,6.57351e-06,0
-2.92032e-05,-4.00305e-05,-1.58005e-05,-1.66026e-05,1.45173e-05,-8.52572e-06,1.4264e-05,6.52443e-06,0
-2.80128e-05,-5.19939e-05,-1.56806e-05,-1.99e-05,1.64476e-05,-1.04226e-05,8.73892e-06,6.23897e-06,0
-2.87247e-05,-4.93899e-05,-1.54815e-05,-2.13829e-05,1.82822e-05,-1.07103e-05,9.25513e-06,4.98825e-06,0
-3.01444e-05,-3.74652e-05,-1.50495e-05,-1.97606e-05,1.89394e-05,-8.82673e-06,9.95588e-06,3.60563e-06,0
-2.97724e-05,-2.40783e-05,-1.29622e-05,-1.64285e-05,1.8111e-05,-6.99291e-06,8.73833e-06,2.66666e-06,0
-2.78987e-05,-1.50841e-05,-8.26961e-06,-1.37421e-05,1.61421e-05,-6.99794e-06,9.72708e-06,1.53705e-06,0
-2.64657e-05,-9.54422e-06,-1.95165e-06,-1.67105e-05,1.39923e-05,-8.36617e-06,1.33073e-05,1.55462e-06,0
-2.71486e-05,-5.30993e-06,2.4822e-06,-2.90555e-05,1.3891e-05,-8.32016e-06,1.6491e-05,2.07924e-06,0
-2.90123e-05,-1.53946e-06,5.52216e-06,-4.30503e-05,1.41138e-05,-6.80477e-06,1.71708e-05,-1.1443e-07,0
-2.87949e-05,1.98776e-06,1.16298e-05,-5.11608e-05,1.28574e-05,-4.72801e-06,1.54147e-05,-2.73303e-06,0
-2.83558e-05,2.24833e-06,2.01968e-05,-5.45268e-05,1.13213e-05,-3.94065e-06,1.29186e-05,-1.63439e-06,0
-2.78888e-05,1.29231e-06,2.7857e-05,-5.56297e-05,1.00914e-05,-4.52835e-06,9.98013e-06,1.42243e-07,0
-2.78254e-05,4.13142e-06,3.05544e-05,-5.49406e-05,8.71456e-06,-3.1361e-06,7.73486e-06,-1.60345e-06,0
-2.86283e-05,7.07913e-06,2.40749e-05,-4.17543e-05,1.01879e-05,-2.54854e-06,5.32199e-06,-2.97709e-06,0
-2.93299e-05,7.70048e-06,7.49642e-06,-1.27883e-05,1.30447e-05,-2.55172e-06,5.11605e-06,-1.59518e-06,0
-3.09989e-05,7.90046e-06,-1.47495e-05,2.29299e-05,1.41353e-05,-2.69406e-06,8.38799e-06,6.88685e-07,0
-3.22063e-05,9.64206e-06,-3.34979e-05,5.57715e-05,1.3659e-05,-4.23174e-06,1.19158e-05,1.41815e-06,0
-3.23016e-05,1.05696e-05,-4.57114e-05,7.65385e-05,1.30025e-05,-6.46018e-06,1.40491e-05,1.25879e-06,0
-3.17412e-05,9.79097e-06,-5.12416e-05,7.66453e-05,1.35079e-05,-8.269e-06,1.51479e-05,1.79339e-06,0
-3.19993e-05,8.45963e-06,-4.99106e-05,5.9708e-05,1.44549e-05,-9.15308e-06,1.53951e-05,1.78372e-06,0
-3.24083e-05,7.51032e-06,-4.41247e-05,3.95675e-05,1.44738e-05,-9.50145e-06,1.41662e-05,2.21406e-06,0
-3.16226e-05,9.85629e-06,-3.78099e-05,2.16259e-05,1.18521e-05,-9.69838e-06,1.30496e-05,1.5871e-06,0
-3.06583e-05,1.73235e-05,-3.25348e-05,1.20681e-05,8.42947e-06,-1.02089e-05,1.26694e-05,-4.79442e-07,0
-3.12597e-05,2.84442e-05,-2.72074e-05,1.72401e-05,7.91229e-06,-1.12019e-05,1.3263e-05,-1.75472e-06,0
-3.25455e-05,4.18093e-05,-2.17264e-05,2.88336e-05,1.05694e-05,-1.32121e-05,1.54265e-05,-1.2246e-06,0
-3.25139e-05,5.73004e-05,-1.56162e-05,2.65439e-05,1.42789e-05,-1.52929e-05,1.81586e-05,-5.20312e-07,0
-3.09702e-05,6.91827e-05,-9.90806e-06,7.12116e-06,1.86618e-05,-1.63931e-05,1.93934e-05,-1.56392e-06,0
-2.85632e-05,7.13392e-05,-4.75918e-06,-1.34211e-05,2.43539e-05,-1.65869e-05,1.91523e-05,-3.77132e-06,0
-2.67217e-05,6.35831e-05,-1.50295e-07,-2.37857e-05,2.82112e-05,-1.65204e-05,1.82509e-05,-5.37433e-06,0
-2.66335e-05,4.76465e-05,2.99956e-06,-2.76166e-05,2.5466e-05,-1.58187e-05,1.65813e-05,-5.55181e-06,0
-2.90026e-05,2.26553e-05,2.31728e-06,-2.85563e-05,1.94519e-05,-1.47928e-05,1.47362e-05,-5.65319e-06,0
-3.12678e-05,-5.71616e-06,-1.19406e-06,-2.50553e-05,1.68612e-05,-1.51018e-05,1.45688e-05,-6.5689e-06,0
-3.16488e-05,-2.74977e-05,-5.33069e-06,-2.12169e-05,1.78411e-05,-1.70562e-05,1.51943e-05,-8.89217e-06,0
-3.14105e-05,-4.13258e-05,-8.70538e-06,-2.21267e-05,1.84565e-05,-1.89616e-05,1.53378e-05,-1.00919e-05,0
-3.08488e-05,-4.96889e-05,-1.08243e-05,-2.619e-05,1.60707e-05,-2.05491e-05,1.38147e-05,-9.36483e-06,0
-3.00132e-05,-4.94064e-05,-9.94674e-06,-3.2428e-05,1.25649e-05,-2.1175e-05,1.11885e-05,-1.03105e-05,0
-2.93636e-05,-3.51087e-05,-5.70674e-06,-4.1409e-05,1.06358e-05,-2.15344e-05,9.61573e-06,-1.12006e-05,0
-2.99012e-05,-1.47647e-05,-2.16774e-06,-4.80464e-05,8.94288e-06,-2.26716e-05,9.10088e-06,-9.7949e-06,0
-3.14075e-05,-5.90091e-07,-9.46096e-07,-4.84216e-05,5.54647e-06,-2.42997e-05,1.08521e-05,-6.9084e-06,0
-3.13631e-05,6.31591e-06,5.05305e-07,-4.54338e-05,3.13001e-06,-2.56916e-05,1.2882e-05,-5.16798e-06,0
-2.972e-05,1.14043e-05,4.46997e-06,-3.92926e-05,3.31897e-06,-2.58463e-05,1.2986e-05,-5.10247e-06,0
-2.98882e-05,2.17012e-05,6.78921e-06,-3.00217e-05,6.48565e-06,-2.52937e-05,1.05395e-05,-4.29244e-06,0
-3.01148e-05,3.7101e-05,4.51733e-06,-1.76252e-05,1.16182e-05,-2.46171e-05,7.44842e-06,-2.42289e-06,0
-2.92495e-05,5.1025e-05,4.58141e-07,6.42834e-07,1.59342e-05,-2.44237e-05,6.49067e-06,1.99493e-07,0
-2.91813e-05,5.61078e-05,-3.91561e-06,1.692e-05,1.83704e-05,-2.46999e-05,9.17976e-06,1.29313e-06,0
-2.96304e-05,5.19896e-05,-8.74183e-06,2.09281e-05,1.83922e-05,-2.65156e-05,1.42868e-05,1.6329e-06,0
-3.13921e-05,4.1703e-05,-1.39318e-05,1.17734e-05,1.80445e-05,-2.76747e-05,2.04483e-05,4.54551e-07,0
-3.33105e-05,3.19022e-05,-1.91045e-05,-4.17421e-06,1.885e-05,-2.59314e-05,2.76366e-05,-8.77805e-07,0
-3.42302e-05,3.22365e-05,-2.19085e-05,-1.81152e-05,2.23292e-05,-2.26734e-05,3.26373e-05,-1.27943e-06,0
-3.41937e-05,4.56171e-05,-1.96505e-05,-2.43528e-05,2.70402e-05,-2.00709e-05,3.34389e-05,-1.35077e-06,0
-3.37815e-05,6.56847e-05,-1.33494e-05,-2.50073e-05,2.84065e-05,-1.90599e-05,3.04954e-05,3.57571e-07,0
-3.31475e-05,7.89046e-05,-7.63596e-06,-2.5027e-05,2.48165e-05,-1.83284e-05,2.68353e-05,3.06768e-06,0
-3.16555e-05,7.48007e-05,-6.05513e-06,-2.54857e-05,1.96806e-05,-1.71526e-05,2.2905e-05,5.34379e-06,0
-2.98765e-05,5.16769e-05,-6.40108e-06,-2.28474e-05,1.77394e-05,-1.47925e-05,1.81891e-05,6.32098e-06,0
-2.89134e-05,1.63988e-05,-5.2896e-06,-1.45929e-05,1.91904e-05,-1.1586e-05,1.43923e-05,5.92795e-06,0
-2.84117e-05,-2.29092e-05,-3.02282e-06,-5.83957e-06,2.1025e-05,-9.17071e-06,1.30255e-05,4.58361e-06,0
-2.8973e-05,-5.69763e-05,-1.68122e-06,-5.40667e-06,2.05664e-05,-8.74678e-06,1.11073e-05,4.30735e-06,0
-3.03707e-05,-7.09436e-05,-1.7349e-06,-1.13792e-05,1.87394e-05,-9.36847e-06,5.03893e-06,4.76975e-06,0
-2.98434e-05,-5.49188e-05,-9.89291e-07,-1.38544e-05,1.86248e-05,-8.52623e-06,-6.92763e-07,6.45482e-06,0
-2.80104e-05,-2.374e-05,6.95334e-07,-9.33544e-06,2.12208e-05,-5.48252e-06,3.68361e-07,8.54803e-06,0
-2.78248e-05,7.52613e-07,3.19609e-06,-2.70485e-06,2.391e-05,-2.92159e-06,5.94324e-06,8.81987e-06,0
-3.01729e-05,1.24257e-05,4.54439e-06,3.57693e-07,2.46412e-05,-4.91732e-06,7.30648e-06,6.75036e-06,0
-3.20388e-05,1.58525e-05,4.07541e-06,-4.20411e-07,2.18754e-05,-9.0053e-06,3.11544e-07,5.77962e-06,0
-3.12577e-05,1.26099e-05,4.12685e-06,-5.92975e-06,1.43087e-05,-1.02418e-05,-8.87739e-06,7.3215e-06,0
-3.03597e-05,4.6082e-06,3.98807e-06,-1.09351e-05,3.72975e-06,-7.99349e-06,-9.20326e-06,9.44629e-06,0
-2.96613e-05,-2.99636e-06,2.25401e-06,-9.27973e-06,-3.84834e-06,-4.85777e-06,1.95195e-06,1.02728e-05,0
-2.82476e-05,-1.19314e-05,8.47271e-08,-2.85846e-06,-2.69903e-06,-2.88755e-06,1.70855e-05,9.80693e-06,0
-2.64856e-05,-2.14101e-05,-5.49518e-07,5.55837e-06,4.16383e-06,-2.16994e-06,2.88527e-05,1.03177e-05,0
-2.46605e-05,-2.47508e-05,-2.22224e-07,1.27079e-05,8.54134e-06,-4.14907e-06,3.45937e-05,1.06544e-05,0
-2.49847e-05,-1.97558e-05,1.62523e-06,1.67937e-05,7.07862e-06,-6.27531e-06,3.57179e-05,9.98394e-06,0
-2.55223e-05,-1.06485e-05,3.61297e-06,1.56974e-05,4.83647e-06,-6.91297e-06,3.35165e-05,1.0018e-05,0
-2.51684e-05,-9.46657e-07,1.84536e-06,9.82181e-06,6.26043e-06,-6.1981e-06,2.79897e-05,1.08684e-05,0
-2.46699e-05,7.61649e-06,-1.24017e-06,1.55449e-06,8.09591e-06,-5.55206e-06,2.154e-05,1.00659e-05,0
-2.49772e-05,1.38025e-05,-2.62719e-06,-5.76969e-06,6.82242e-06,-6.79944e-06,1.60129e-05,8.3814e-06,0
-2.68899e-05,1.8465e-05,-1.38465e-06,-1.04722e-05,3.84161e-06,-8.05474e-06,1.38153e-05,7.59178e-06,0
-2.76966e-05,2.35555e-05,1.32871e-06,-1.11277e-05,3.43965e-06,-6.87097e-06,1.63876e-05,6.28373e-06,0
-2.65353e-05,2.61096e-05,2.53506e-06,-8.09373e-06,7.43377e-06,-4.61583e-06,2.08396e-05,4.29227e-06,0
-2.58737e-05,2.35712e-05,1.37067e-06,-5.20658e-06,1.3566e-05,-3.89835e-06,2.22516e-05,3.17693e-06,0
-2.817e-05,1.9436e-05,-1.4465e-06,-4.14655e-06,1.71801e-05,-3.09602e-06,1.85962e-05,3.74677e-06,0
-3.09834e-05,1.96948e-05,-6.16667e-06,-4.02229e-06,1.71011e-05,-1.39698e-06,1.17037e-05,4.24547e-06,0
-3.0864e-05,2.53304e-05,-1.17555e-05,-2.70213e-06,1.55058e-05,9.28919e-08,5.81353e-06,2.97661e-06,0
-2.88673e-05,3.10685e-05,-1.50762e-05,-9.29396e-07,1.28187e-05,1.25034e-06,2.56563e-06,1.02673e-06,0
-2.83026e-05,2.98223e-05,-1.75323e-05,-9.44599e-07,1.01804e-05,3.25871e-06,-1.59207e-06,4.19943e-07,0
-2.92215e-05,2.14911e-05,-1.96179e-05,-2.64568e-06,1.03785e-05,4.39907e-06,-7.81057e-06,1.58771e-06,0
-2.97915e-05,1.19936e-05,-1.84577e-05,-1.93715e-06,1.54665e-05,3.6436e-06,-1.24357e-05,2.70111e-06,0
-2.98919e-05,3.44942e-06,-1.48802e-05,8.23719e-07,2.39901e-05,1.22956e-06,-1.25529e-05,2.63104e-06,0
-2.97788e-05,-5.17977e-06,-1.28682e-05,3.36317e-06,3.18372e-05,-1.89774e-06,-9.55364e-06,2.4262e-06,0
-3.18258e-05,-1.48499e-05,-1.32401e-05,5.54818e-06,3.42728e-05,-4.10783e-06,-6.78184e-06,2.40747e-06,0
-3.70706e-05,-2.21726e-05,-1.41564e-05,6.40396e-06,2.91303e-05,-4.68533e-06,-4.62862e-06,7.4838e-07,0
-4.01126e-05,-2.33493e-05,-1.36126e-05,3.68815e-06,2.22477e-05,-3.96474e-06,-2.07051e-06,3.03052e-07,0
-3.77919e-05,-1.58844e-05,-1.12294e-05,-8.81299e-08,1.96949e-05,-3.50545e-06,-4.34121e-07,3.91678e-07,0
-3.30264e-05,-3.8295e-06,-8.41636e-06,5.20582e-07,1.77518e-05,-2.6158e-06,-6.51754e-07,-1.45703e-06,0
-3.02852e-05,6.53577e-06,-6.478e-06,5.89721e-06,1.52303e-05,-1.67784e-06,4.22943e-07,-1.66633e-06,0
-2.9664e-05,1.24687e-05,-6.00968e-06,1.1672e-05,1.46305e-05,-2.8142e-06,5.34369e-06,2.00527e-06,0
-2.8912e-05,1.38118e-05,-6.66732e-06,1.66067e-05,1.55504e-05,-4.14614e-06,1.06374e-05,5.94919e-06,0
-2.91057e-05,1.21463e-05,-7.15635e-06,2.05169e-05,1.69554e-05,-5.14185e-06,1.34903e-05,5.65233e-06,0
-2.97799e-05,9.317e-06,-8.16033e-06,2.00695e-05,1.60381e-05,-6.9226e-06,1.43514e-05,3.16803e-06,0
-3.07619e-05,7.72597e-06,-9.66264e-06,1.46778e-05,1.37864e-05,-1.0044e-05,1.41422e-05,4.40386e-07,0
-3.25542e-05,8.1209e-06,-1.01526e-05,7.74439e-06,1.18418e-05,-1.27478e-05,1.25311e-05,-1.73538e-06,0
-3.34299e-05,1.10226e-05,-9.52873e-06,2.30043e-06,9.89236e-06,-1.26364e-05,1.06984e-05,-3.00561e-06,0
-3.26183e-05,1.4016e-05,-8.83294e-06,-3.83128e-06,9.93788e-06,-1.26182e-05,8.4196e-06,-3.02556e-06,0
-2.99067e-05,1.578e-05,-9.99478e-06,-1.33725e-05,1.11641e-05,-1.41418e-05,4.79812e-06,-2.32888e-06,0
-2.72451e-05,1.70469e-05,-1.19087e-05,-2.59733e-05,1.15922e-05,-1.59245e-05,2.8235e-06,-1.88446e-06,0
-2.67309e-05,1.7734e-05,-1.28547e-05,-3.38131e-05,1.01458e-05,-1.67176e-05,4.45104e-06,-1.65646e-06,0
-2.74202e-05,1.64305e-05,-1.23022e-05,-3.25386e-05,6.84112e-06,-1.70533e-05,7.64363e-06,-1.765e-06,0
-2.81826e-05,1.46843e-05,-1.16005e-05,-2.60573e-05,4.50176e-06,-1.68431e-05,1.07876e-05,-2.0055e-06,0
-2.94347e-05,1.50376e-05,-1.23494e-05,-1.7966e-05,5.7956e-06,-1.62238e-05,1.29041e-05,-2.51848e-06,0
-3.17863e-05,1.66472e-05,-1.45294e-05,-1.10665e-05,9.53584e-06,-1.55598e-05,1.36558e-05,-2.92792e-06,0
-3.386e-05,1.71856e-05,-1.62303e-05,-7.97055e-06,1.2182e-05,-1.55846e-05,1.40416e-05,-3.41823e-06,0
-3.45612e-05,1.4686e-05,-1.62395e-05,-9.97943e-06,1.23433e-05,-1.57875e-05,1.46673e-05,-4.12722e-06,0
-3.41911e-05,1.05583e-05,-1.58041e-05,-1.52885e-05,1.14905e-05,-1.57927e-05,1.64901e-05,-4.62127e-06,0
-3.3475e-05,7.26283e-06,-1.50948e-05,-1.99039e-05,1.05474e-05,-1.65443e-05,1.87191e-05,-4.37471e-06,0
-3.30442e-05,5.99914e-06,-1.38809e-05,-2.24594e-05,9.39993e-06,-1.65722e-05,2.05684e-05,-4.38274e-06,0
-3.24053e-05,6.39535e-06,-1.26e-05,-2.51445e-05,7.5832e-06,-1.6027e-05,2.10614e-05,-5.54877e-06,0
-3.12466e-05,7.39459e-06,-9.44898e-06,-2.78584e-05,5.55137e-06,-1.62906e-05,2.10802e-05,-6.8199e-06,0
-3.09564e-05,8.02867e-06,-8.75528e-07,-2.67817e-05,5.20932e-06,-1.71462e-05,2.11106e-05,-6.9551e-06,0
-2.99429e-05,8.52636e-06,1.2155e-05,-1.82819e-05,7.13584e-06,-1.65077e-05,1.98424e-05,-7.11845e-06,0
-2.81504e-05,1.07751e-05,2.74703e-05,-2.76343e-06,1.1708e-05,-1.41889e-05,1.46884e-05,-6.47852e-06,0
-2.82006e-05,1.53061e-05,4.32355e-05,1.37399e-05,1.45424e-05,-1.25365e-05,7.85337e-07,-4.54826e-06,0
-2.89891e-05,1.7812e-05,5.46391e-05,2.46624e-05,1.38032e-05,-1.25107e-05,-1.35165e-05,-2.88846e-06,0
-2.86696e-05,1.89017e-05,5.42802e-05,2.70109e-05,1.16837e-05,-1.36093e-05,-9.64335e-06,-1.38641e-06,0
-2.78933e-05,2.22715e-05,3.74522e-05,2.17248e-05,1.05163e-05,-1.56739e-05,1.53688e-05,-9.95241e-08,0
-2.85547e-05,2.76012e-05,7.3817e-06,1.64245e-05,1.13615e-05,-1.64247e-05,4.53501e-05,1.79477e-06,0
-3.12996e-05,3.13933e-05,-2.69012e-05,1.32995e-05,1.17897e-05,-1.4469e-05,6.60938e-05,3.70936e-06,0
-3.3354e-05,3.06927e-05,-5.49285e-05,8.53015e-06,1.0323e-05,-1.32785e-05,7.56101e-05,4.84659e-06,0
-3.26405e-05,2.73743e-05,-7.03436e-05,1.44511e-06,7.02977e-06,-1.51588e-05,7.32158e-05,5.40743e-06,0
-3.08326e-05,2.2728e-05,-6.9943e-05,-4.90899e-06,3.84607e-06,-1.86462e-05,6.07028e-05,5.46958e-06,0
-2.91553e-05,1.67666e-05,-5.69539e-05,-6.97104e-06,6.27243e-07,-2.11503e-05,4.14131e-05,4.30394e-06,0
-2.83515e-05,1.06579e-05,-3.95594e-05,-5.90093e-06,-1.50712e-06,-2.15637e-05,2.00438e-05,3.01892e-06,0
-2.86771e-05,8.42039e-06,-2.52109e-05,-4.08959e-06,-2.85904e-06,-2.05621e-05,2.44379e-06,1.9208e-06,0
-2.93208e-05,1.05537e-05,-1.62905e-05,-3.06049e-06,-4.91088e-06,-1.76505e-05,-8.60607e-06,1.58413e-06,0
-3.03558e-05,1.22803e-05,-9.64817e-06,-3.50507e-06,-6.42804e-06,-1.30234e-05,-1.18536e-05,3.56916e-06,0
-3.17847e-05,1.12461e-05,-4.22455e-06,-4.61609e-06,-5.5226e-06,-9.3697e-06,-8.4684e-06,5.73361e-06,0
-3.21506e-05,9.03631e-06,-1.65029e-06,-3.88585e-06,-2.84357e-06,-8.55827e-06,-1.35647e-06,5.38909e-06,0
-3.0657e-05,7.23154e-06,-2.46453e-06,-5.09805e-07,-4.97296e-07,-9.58761e-06,5.04905e-06,3.40166e-06,0
-2.86199e-05,7.30718e-06,-4.5637e-06,4.83052e-06,3.84738e-07,-1.02576e-05,7.69323e-06,2.52234e-06,0
-2.84859e-05,9.34188e-06,-6.81329e-06,1.19627e-05,6.97095e-07,-9.3549e-06,6.95544e-06,3.21997e-06,0
-3.03901e-05,1.13238e-05,-9.22623e-06,1.90353e-05,2.15453e-06,-8.25007e-06,6.32957e-06,3.76753e-06,0
-3.2346e-05,1.07627e-05,-1.23728e-05,2.22241e-05,3.21882e-06,-8.2338e-06,7.42551e-06,2.73162e-06,0
-3.25799e-05,7.10911e-06,-1.42641e-05,1.85285e-05,3.439e-06,-8.41641e-06,7.28114e-06,4.74191e-07,0
-3.13103e-05,3.17801e-06,-1.3164e-05,9.351e-06,3.23172e-06,-8.43937e-06,5.01454e-06,-1.45943e-06,0
-2.96699e-05,2.43831e-06,-1.02022e-05,-1.18422e-06,4.22533e-06,-7.80569e-06,2.99815e-06,-1.35101e-06,0
-2.79832e-05,4.28121e-06,-7.74227e-06,-1.07417e-05,6.71292e-06,-7.14775e-06,1.83431e-06,-8.04488e-07,0
-2.70216e-05,4.43997e-06,-6.95643e-06,-1.95438e-05,7.91527e-06,-6.67554e-06,2.14338e-06,2.14457e-08,0
-2.81166e-05,2.24508e-06,-4.63719e-06,-2.72395e-05,8.41363e-06,-6.71844e-06,4.13719e-06,4.27097e-07,0
-3.05426e-05,-7.02437e-07,-1.73566e-06,-2.96887e-05,9.59888e-06,-7.79765e-06,9.31179e-06,2.59358e-07,0
-3.22057e-05,-2.2983e-06,-1.17144e-06,-2.8222e-05,1.11958e-05,-7.80527e-06,1.471e-05,-4.87301e-07,0
-3.26814e-05,-2.93772e-06,-4.60625e-06,-2.73791e-05,1.23613e-05,-7.53885e-06,1.57645e-05,-7.92259e-07,0
-3.28483e-05,-2.92739e-06,-1.40556e-05,-2.44566e-05,1.20327e-05,-6.30679e-06,1.22178e-05,3.85226e-07,0
-3.35838e-05,-1.47253e-06,-2.54599e-05,-1.53089e-05,1.17813e-05,-4.60249e-06,7.86703e-06,6.81453e-07,0
-3.38714e-05,9.91414e-07,-3.35141e-05,-8.07119e-07,1.22915e-05,-4.3105e-06,8.00023e-06,-1.66924e-07,0
-3.2861e-05,3.9786e-06,-3.45273e-05,1.44002e-05,1.46618e-05,-3.33378e-06,1.16342e-05,-1.5058e-06,0
-3.19759e-05,6.9521e-06,-2.88933e-05,2.42012e-05,1.61213e-05,-1.84742e-06,1.48538e-05,-1.23139e-06,0
-3.10827e-05,9.48587e-06,-2.15642e-05,2.3198e-05,1.28893e-05,-7.64381e-07,1.65998e-05,-7.36193e-07,0
-2.98156e-05,1.32777e-05,-1.63499e-05,1.55457e-05,8.85093e-06,2.63138e-07,1.85514e-05,-4.10392e-07,0
-2.96954e-05,1.7913e-05,-1.40605e-05,8.26011e-06,8.34381e-06,1.61373e-06,1.78674e-05,7.29629e-07,0
-3.05992e-05,2.05435e-05,-1.17851e-05,2.13662e-06,1.12583e-05,2.32311e-06,9.3654e-06,2.91284e-06,0
-3.0484e-05,2.14947e-05,-9.31365e-06,-6.86973e-06,1.51726e-05,2.30862e-06,-5.47212e-06,4.0675e-06,0
-2.91979e-05,2.13538e-05,-8.22945e-06,-1.98003e-05,1.88466e-05,1.95761e-06,-1.70441e-05,4.10591e-06,0
-2.80241e-05,2.15747e-05,-8.03586e-06,-3.05164e-05,2.16103e-05,1.65457e-06,-1.62985e-05,4.4789e-06,0
-2.69871e-05,2.4234e-05,-6.68971e-06,-3.28522e-05,2.32864e-05,4.28383e-07,-2.52393e-06,4.02191e-06,0
-2.59258e-05,3.06688e-05,-3.65349e-06,-2.87234e-05,2.3376e-05,-2.00814e-06,1.67875e-05,3.87605e-06,0
-2.53384e-05,3.97444e-05,-5.46201e-07,-2.63825e-05,2.19811e-05,-3.03024e-06,3.37181e-05,5.1715e-06,0
-2.58671e-05,4.92802e-05,1.88144e-06,-2.86105e-05,1.93242e-05,-1.64343e-06,4.38674e-05,7.19745e-06,0
-2.67524e-05,5.66818e-05,3.08728e-06,-3.13921e-05,1.64223e-05,-8.63046e-07,4.62105e-05,9.34797e-06,0
-2.74195e-05,5.84973e-05,1.23268e-06,-3.17118e-05,1.49761e-05,-3.03441e-06,4.22923e-05,1.08163e-05,0
-2.85989e-05,5.31307e-05,-3.12959e-06,-2.99608e-05,1.46026e-05,-5.3137e-06,3.70214e-05,9.73669e-06,0
-2.99234e-05,4.06647e-05,-6.6909e-06,-2.48215e-05,1.30597e-05,-6.55411e-06,3.30036e-05,6.71361e-06,0
-3.04808e-05,2.02829e-05,-7.33038e-06,-1.83001e-05,1.18986e-05,-8.39069e-06,2.84495e-05,4.43406e-06,0
-2.90264e-05,-1.72891e-06,-6.76642e-06,-1.3733e-05,1.38892e-05,-9.34092e-06,2.36718e-05,4.1261e-06,0
-2.62151e-05,-1.71599e-05,-6.22726e-06,-8.42792e-06,1.56116e-05,-9.44169e-06,1.93388e-05,3.81118e-06,0
-2.5851e-05,-2.1405e-05,-5.6248e-06,-8.62933e-07,1.50627e-05,-1.14435e-05,1.31967e-05,4.57165e-06,0
-2.70741e-05,-1.30115e-05,-6.29288e-06,6.35284e-06,1.43122e-05,-1.37079e-05,5.18259e-06,4.55134e-06,0
-2.8127e-05,-8.17548e-07,-6.1761e-06,1.2589e-05,1.57731e-05,-1.40319e-05,1.66245e-06,3.83675e-06,0
-2.9811e-05,9.6486e-06,-5.34683e-06,1.6169e-05,1.89709e-05,-1.23946e-05,4.62641e-06,3.43778e-06,0
-3.04483e-05,1.80299e-05,-4.25345e-06,1.48755e-05,2.08568e-05,-1.07058e-05,7.50476e-06,2.24273e-06,0
-3.0194e-05,2.24256e-05,-2.40128e-06,1.164e-05,2.01596e-05,-1.04984e-05,5.05116e-06,1.67227e-06,0
-2.951e-05,2.36212e-05,-7.12599e-08,7.9566e-06,1.70538e-05,-1.24114e-05,1.58045e-06,8.31668e-07,0
-2.8113e-05,2.40413e-05,1.69195e-06,2.8099e-06,1.27637e-05,-1.49327e-05,1.15464e-06,-7.50533e-07,0
-2.88501e-05,2.50703e-05,1.97243e-06,-4.84678e-06,8.71754e-06,-1.5214e-05,1.76501e-06,-1.89597e-06,0
-3.10904e-05,2.61701e-05,1.59132e-06,-1.41106e-05,6.22886e-06,-1.30893e-05,1.09425e-06,-5.95277e-07,0
-3.22315e-05,2.67958e-05,9.47169e-07,-2.29381e-05,7.0877e-06,-9.5014e-06,-1.25816e-06,2.27704e-06,0
-3.2246e-05,2.69316e-05,3.85765e-07,-2.74256e-05,1.16296e-05,-7.21334e-06,-5.16456e-06,3.74195e-06,0
-3.17368e-05,2.71744e-05,-1.26071e-07,-2.63643e-05,1.59348e-05,-7.55606e-06,-8.34691e-06,1.6667e-06,0
-3.19019e-05,2.78638e-05,2.33485e-07,-2.28779e-05,1.64201e-05,-8.90586e-06,-8.27915e-06,-1.61259e-06,0
-3.27934e-05,2.82436e-05,4.21894e-07,-1.90717e-05,1.44595e-05,-8.6779e-06,-5.462e-06,-3.17666e-06,0
-3.28229e-05,2.79697e-05,-3.22252e-07,-1.60335e-05,1.26852e-05,-7.04669e-06,-9.60944e-07,-2.41274e-06,0
-3.15322e-05,2.88715e-05,-1.38782e-06,-1.32157e-05,1.17237e-05,-5.90097e-06,3.47219e-06,-6.84817e-07,0
-2.95804e-05,3.26541e-05,-1.05924e-06,-1.1036e-05,1.16594e-05,-5.54015e-06,6.24725e-06,-3.93731e-07,0
-2.67876e-05,3.79019e-05,5.75219e-09,-8.82334e-06,1.28632e-05,-5.44935e-06,7.0234e-06,-2.42289e-06,0
-2.42304e-05,4.03933e-05,2.93473e-07,-6.22041e-06,1.40262e-05,-5.14404e-06,6.9203e-06,-5.21795e-06,0
-2.40158e-05,4.08266e-05,-8.09797e-07,-4.68499e-06,1.44495e-05,-4.91639e-06,7.28263e-06,-6.46117e-06,0
-2.73463e-05,4.47048e-05,-4.18907e-06,-4.91346e-06,1.46634e-05,-5.34033e-06,8.33567e-06,-5.24418e-06,0
-3.21187e-05,4.95539e-05,-8.4911e-06,-4.86244e-06,1.46995e-05,-7.02995e-06,9.1449e-06,-3.69622e-06,0
-3.45311e-05,5.12941e-05,-1.37499e-05,-3.79487e-06,1.34062e-05,-9.28242e-06,7.94575e-06,-1.36696e-06,0
-3.3446e-05,4.97127e-05,-1.89035e-05,-7.48147e-07,1.05488e-05,-1.17539e-05,5.50126e-06,1.73837e-06,0
-3.1373e-05,4.60914e-05,-2.17463e-05,4.82345e-06,8.79216e-06,-1.3227e-05,4.79972e-06,1.74796e-06,0
-2.94617e-05,4.73838e-05,-2.11367e-05,7.74683e-06,7.48933e-06,-1.23979e-05,6.85981e-06,-9.10383e-07,0
-2.85911e-05,6.57468e-05,-1.7416e-05,1.00596e-06,5.22402e-06,-1.10386e-05,1.01174e-05,-3.18769e-06,0
-3.01035e-05,8.58022e-05,-1.47313e-05,-1.3425e-05,5.53837e-06,-1.01524e-05,1.18025e-05,-3.46396e-06,0
-3.26973e-05,8.81679e-05,-1.43343e-05,-2.90574e-05,9.65772e-06,-8.13369e-06,1.41249e-05,-4.56337e-06,0
-3.30888e-05,7.95563e-05,-1.37506e-05,-4.23584e-05,1.5705e-05,-4.84705e-06,1.63999e-05,-5.99527e-06,0
-3.14583e-05,5.98476e-05,-1.30804e-05,-4.79189e-05,2.01023e-05,-2.63718e-06,1.92842e-05,-5.1804e-06,0
-3.16844e-05,3.11288e-05,-1.3119e-05,-3.3426e-05,1.97339e-05,-3.0079e-06,2.06306e-05,-3.65321e-06,0
-3.26888e-05,-8.14371e-07,-1.39496e-05,5.42542e-06,1.60899e-05,-6.66246e-06,1.89834e-05,-3.67267e-06,0
-3.27983e-05,-3.09865e-05,-1.40994e-05,4.59939e-05,1.52144e-05,-9.97325e-06,1.83137e-05,-4.61926e-06,0
-3.20324e-05,-5.31533e-05,-1.30173e-05,6.85704e-05,1.8009e-05,-9.26932e-06,1.78484e-05,-4.00161e-06,0
-3.09814e-05,-6.10693e-05,-1.18375e-05,6.88553e-05,2.02083e-05,-6.48808e-06,1.88658e-05,-2.99735e-06,0
-3.05236e-05,-5.82492e-05,-1.04575e-05,5.58442e-05,2.18336e-05,-5.16093e-06,2.03238e-05,-4.02888e-06,0
-3.25182e-05,-5.37875e-05,-8.23432e-06,3.95998e-05,2.17324e-05,-6.374e-06,2.05437e-05,-5.84992e-06,0
-3.52097e-05,-4.85974e-05,-6.26746e-06,2.30975e-05,1.98526e-05,-8.46182e-06,1.92324e-05,-7.03946e-06,0
-3.57656e-05,-4.05737e-05,-5.54466e-06,9.41924e-06,1.70338e-05,-9.85752e-06,2.01421e-05,-6.51721e-06,0
-3.51989e-05,-3.19834e-05,-4.74282e-06,1.87469e-06,1.47617e-05,-9.4342e-06,2.38151e-05,-5.0152e-06,0
-3.45361e-05,-2.75805e-05,-2.5496e-06,-6.77937e-07,1.45689e-05,-8.10622e-06,2.72372e-05,-4.60023e-06,0
-3.37285e-05,-2.54894e-05,-3.37412e-07,-1.76814e-06,1.65722e-05,-7.68489e-06,2.87469e-05,-5.3477e-06,0
-3.19997e-05,-2.17526e-05,6.9212e-07,-1.99456e-06,1.98412e-05,-7.39756e-06,2.80523e-05,-5.40681e-06,0
-3.05018e-05,-1.54081e-05,1.46567e-06,-5.026e-06,2.309e-05,-5.95553e-06,2.49991e-05,-3.62584e-06,0
-3.01699e-05,-5.42205e-06,2.16214e-06,-1.0782e-05,2.52826e-05,-4.3728e-06,2.01125e-05,-1.80821e-06,0
-3.07589e-05,1.54903e-05,1.44973e-06,-1.44579e-05,2.50028e-05,-4.55805e-06,1.54104e-05,-1.3415e-06,0
-3.05872e-05,4.66557e-05,-8.381e-07,-1.38399e-05,2.27665e-05,-6.06715e-06,1.19e-05,-2.24256e-06,0
-2.84418e-05,7.65616e-05,-3.21432e-06,-1.08546e-05,1.77855e-05,-7.0867e-06,1.02526e-05,-2.52364e-06,0
-2.60587e-05,9.22397e-05,-4.34789e-06,-5.95468e-06,1.00105e-05,-7.05112e-06,9.53786e-06,-6.85041e-07,0
-2.56698e-05,9.36638e-05,-3.11727e-06,-1.6088e-06,2.89285e-06,-6.29237e-06,8.41593e-06,2.65021e-06,0
-2.58397e-05,8.71393e-05,-3.4343e-07,1.55776e-07,1.33987e-06,-6.59388e-06,7.92006e-06,5.12582e-06,0
-2.57025e-05,7.36872e-05,1.61317e-06,6.32112e-07,4.47046e-06,-6.66659e-06,1.02463e-05,6.45545e-06,0
-2.59417e-05,4.90588e-05,1.4595e-06,2.35741e-06,7.10363e-06,-5.89935e-06,1.33001e-05,6.62272e-06,0
-2.67295e-05,1.26141e-05,6.38802e-08,2.92652e-06,8.49415e-06,-6.51501e-06,1.4623e-05,5.95547e-06,0
-2.80713e-05,-3.23106e-05,-2.32311e-06,9.96041e-07,8.98671e-06,-7.72589e-06,1.45536e-05,4.57132e-06,0
-2.87305e-05,-7.81124e-05,-6.97095e-06,-1.28396e-06,8.08533e-06,-9.15298e-06,1.40301e-05,4.01598e-06,0
-2.96981e-05,-0.000109843,-1.07368e-05,-1.77342e-06,8.41956e-06,-1.041e-05,1.30662e-05,5.38729e-06,0
-3.18432e-05,-0.000121908,-1.14421e-05,3.06213e-07,1.00808e-05,-1.07884e-05,1.35931e-05,5.63383e-06,0
-3.30879e-05,-0.000113713,-1.29009e-05,1.97261e-06,1.11628e-05,-1.07274e-05,1.48768e-05,4.74804e-06,0
-3.42328e-05,-9.25355e-05,-1.5135e-05,1.84371e-06,1.17376e-05,-1.09376e-05,1.16475e-05,3.80895e-06,0
-3.53987e-05,-6.73355e-05,-1.6663e-05,1.94574e-06,1.25069e-05,-1.17939e-05,5.80713e-07,4.18285e-06,0
-3.52771e-05,-4.60885e-05,-1.68766e-05,2.78694e-06,1.42428e-05,-1.16268e-05,-9.45946e-06,4.86238e-06,0
-3.37001e-05,-3.0035e-05,-1.61401e-05,5.31718e-06,1.46372e-05,-9.48777e-06,-9.50667e-06,4.99021e-06,0
-3.13687e-05,-1.81808e-05,-1.60404e-05,1.02748e-05,1.33767e-05,-6.38436e-06,-1.39937e-06,5.73489e-06,0
-3.00082e-05,-1.21024e-05,-1.64202e-05,1.29728e-05,1.38699e-05,-4.62895e-06,9.41867e-06,6.34174e-06,0
-3.02515e-05,-1.04311e-05,-1.65604e-05,1.19076e-05,1.70443e-05,-4.87515e-06,1.82196e-05,5.99301e-06,0
-3.11254e-05,-9.36817e-06,-1.55817e-05,1.13785e-05,2.1502e-05,-4.84798e-06,2.5199e-05,4.35696e-06,0
-3.07831e-05,-5.53836e-06,-1.37865e-05,1.49434e-05,2.35908e-05,-4.30039e-06,3.1014e-05,3.00214e-06,0
-2.99878e-05,-1.40387e-06,-1.38134e-05,2.10173e-05,2.19517e-05,-5.42959e-06,3.57135e-05,3.32973e-06,0
-3.04907e-05,3.20409e-07,-1.68019e-05,2.86465e-05,1.87918e-05,-6.9252e-06,3.80615e-05,4.55917e-06,0
-3.31168e-05,-2.09887e-07,-1.87663e-05,3.64697e-05,1.57716e-05,-7.08735e-06,3.62631e-05,5.20245e-06,0
-3.53436e-05,1.84324e-06,-1.62374e-05,4.1475e-05,1.32076e-05,-7.78119e-06,2.96052e-05,5.32269e-06,0
-3.45118e-05,9.14076e-06,-1.03906e-05,3.7148e-05,1.09894e-05,-9.64753e-06,2.1573e-05,5.7738e-06,0
-3.17628e-05,2.03461e-05,-4.9937e-06,2.04495e-05,8.99917e-06,-1.08216e-05,1.65125e-05,6.34187e-06,0
-3.05704e-05,3.05974e-05,7.3493e-07,-5.17464e-06,8.15366e-06,-1.00355e-05,1.49088e-05,7.05101e-06,0
-3.01505e-05,3.98644e-05,7.89496e-06,-3.43454e-05,1.0544e-05,-8.6247e-06,1.44486e-05,7.34631e-06,0
-2.87962e-05,4.76843e-05,1.05108e-05,-6.18196e-05,1.30871e-05,-7.74998e-06,1.31356e-05,5.95791e-06,0
-2.84505e-05,5.1621e-05,7.85239e-06,-8.32739e-05,1.23721e-05,-8.17875e-06,1.17052e-05,4.2953e-06,0
-2.8303e-05,5.11753e-05,3.59482e-06,-9.19177e-05,1.06649e-05,-8.56429e-06,1.20729e-05,4.7115e-06,0
-2.78436e-05,4.70458e-05,-1.40023e-06,-8.32679e-05,1.24154e-05,-7.04944e-06,1.29477e-05,5.81301e-06,0
-2.86648e-05,4.21069e-05,-8.00242e-06,-7.13533e-05,1.741e-05,-5.13436e-06,1.18516e-05,5.66235e-06,0
-2.98867e-05,3.60525e-05,-1.70287e-05,-6.74101e-05,2.09239e-05,-6.02041e-06,1.06565e-05,4.56655e-06,0
-2.99633e-05,2.59323e-05,-2.62888e-05,-6.51403e-05,2.18843e-05,-7.18258e-06,1.13074e-05,3.92211e-06,0
-2.83153e-05,1.43364e-05,-3.21018e-05,-6.02922e-05,2.15339e-05,-6.6831e-06,1.14613e-05,3.40057e-06,0
-2.7515e-05,8.8629e-06,-3.07759e-05,-5.09469e-05,2.03495e-05,-7.76338e-06,8.33779e-06,2.00452e-06,0
-2.93255e-05,1.12923e-05,-2.76162e-05,-3.99794e-05,2.05558e-05,-1.04675e-05,8.72027e-08,1.31434e-06,0
-3.23374e-05,1.39187e-05,-2.61719e-05,-2.87116e-05,2.05937e-05,-1.2833e-05,-1.09864e-05,1.70452e-06,0
-3.47777e-05,1.0769e-05,-2.35598e-05,-1.73131e-05,1.83638e-05,-1.35481e-05,-1.75041e-05,1.54509e-06,0
-3.40986e-05,7.77289e-06,-1.96088e-05,-7.45123e-06,1.62527e-05,-1.32964e-05,-1.7504e-05,5.96787e-07,0
-3.15618e-05,1.14125e-05,-1.63107e-05,-3.25616e-06,1.4285e-05,-1.37092e-05,-1.41237e-05,-1.49729e-06,0
-2.98392e-05,1.8974e-05,-1.46582e-05,-3.40168e-06,1.20974e-05,-1.42741e-05,-9.46615e-06,-2.90007e-06,0
-2.98063e-05,2.3802e-05,-1.34293e-05,-4.7181e-06,1.10584e-05,-1.41957e-05,-2.17685e-06,-1.60214e-06,0
-2.93031e-05,2.49527e-05,-1.18293e-05,-6.64164e-06,1.20937e-05,-1.30958e-05,8.02955e-06,-4.79291e-07,0
-2.835e-05,2.55562e-05,-9.05522e-06,-8.79126e-06,1.29794e-05,-1.17937e-05,1.83651e-05,-8.72076e-07,0
-2.84653e-05,2.77423e-05,-6.74193e-06,-1.15074e-05,1.16452e-05,-1.25572e-05,2.58363e-05,-1.032e-06,0
-2.9648e-05,2.98542e-05,-5.31622e-06,-1.16395e-05,9.53642e-06,-1.44406e-05,2.99298e-05,-1.31937e-06,0
-3.07983e-05,3.00558e-05,-4.43605e-06,-9.07574e-06,8.00233e-06,-1.51028e-05,3.14865e-05,-2.64112e-06,0
-3.04946e-05,2.95756e-05,-3.42469e-06,-5.68903e-06,7.01344e-06,-1.52741e-05,3.14278e-05,-4.54149e-06,0
-2.86756e-05,3.00062e-05,-1.28515e-06,-2.3417e-06,8.12923e-06,-1.68934e-05,3.04889e-05,-5.92153e-06,0
-2.66947e-05,2.8011e-05,1.04472e-06,1.81285e-06,1.11959e-05,-1.93752e-05,2.91611e-05,-6.52836e-06,0
-2.60006e-05,2.11332e-05,1.34711e-06,5.31343e-06,1.23906e-05,-2.10378e-05,2.79538e-05,-7.78456e-06,0
-2.63965e-05,1.39848e-05,1.53063e-06,6.94669e-06,1.13563e-05,-2.09195e-05,2.66367e-05,-8.98664e-06,0
-2.75048e-05,1.07506e-05,2.56298e-06,6.5747e-06,1.02472e-05,-2.09942e-05,2.76344e-05,-9.43365e-06,0
-2.8497e-05,1.12608e-05,2.79667e-06,6.03417e-06,1.00297e-05,-2.17632e-05,3.14868e-05,-8.99228e-06,0
-2.69907e-05,1.33157e-05,1.33513e-06,6.15497e-06,1.11848e-05,-2.16905e-05,3.50036e-05,-7.06708e-06,0
-2.40662e-05,1.64963e-05,-1.33692e-06,7.43729e-06,1.33788e-05,-2.13254e-05,3.70794e-05,-6.13375e-06,0
-2.51711e-05,1.92295e-05,-1.7903e-06,1.12328e-05,1.73269e-05,-2.21279e-05,3.75472e-05,-6.27232e-06,0
-2.72434e-05,2.0159e-05,-9.29597e-07,1.62412e-05,2.04384e-05,-2.32723e-05,3.43114e-05,-6.55646e-06,0
-2.76335e-05,2.20317e-05,-2.31611e-06,2.02509e-05,1.99219e-05,-2.30891e-05,2.64081e-05,-5.93385e-06,0
-2.7239e-05,2.47739e-05,-3.37781e-06,2.03728e-05,1.90222e-05,-2.12436e-05,1.67641e-05,-4.82741e-06,0
-2.69208e-05,2.61844e-05,-1.84444e-06,1.71912e-05,1.65295e-05,-1.8445e-05,8.54612e-06,-5.43009e-06,0
-2.88899e-05,2.65696e-05,-8.10299e-07,1.34108e-05,1.24335e-05,-1.69025e-05,1.80245e-06,-5.53859e-06,0
-3.06177e-05,2.86282e-05,-1.08887e-06,9.09016e-06,8.97153e-06,-1.70295e-05,-4.50765e-06,-4.14732e-06,0
-3.07443e-05,3.08301e-05,-2.73021e-06,3.09181e-06,6.3313e-06,-1.73464e-05,-1.20689e-05,-1.6945e-06,0
-3.07318e-05,3.07608e-05,-4.65e-06,-3.99401e-06,4.16388e-06,-1.74382e-05,-1.9922e-05,4.65875e-07,0
-3.10738e-05,3.09393e-05,-7.05973e-06,-9.96325e-06,1.99597e-06,-1.7397e-05,-2.35155e-05,4.84763e-07,0
-3.14991e-05,3.25147e-05,-8.97612e-06,-1.57591e-05,1.78445e-06,-1.63824e-05,-2.04786e-05,-2.7497e-06,0
-3.06551e-05,3.76844e-05,-1.01077e-05,-2.20873e-05,3.01722e-06,-1.47245e-05,-1.50268e-05,-5.65303e-06,0
-2.93847e-05,4.77725e-05,-1.04085e-05,-2.53845e-05,3.47118e-06,-1.34989e-05,-1.06802e-05,-5.6585e-06,0
-2.91283e-05,5.91006e-05,-9.36353e-06,-2.1735e-05,2.61439e-06,-1.35068e-05,-6.77709e-06,-3.77385e-06,0
-2.9514e-05,6.52032e-05,-8.12398e-06,-8.61152e-06,1.8709e-06,-1.28062e-05,-2.71585e-06,-9.87304e-07,0
-3.00435e-05,6.31127e-05,-6.61835e-06,1.08324e-05,4.01052e-06,-1.11984e-05,2.31716e-06,5.67217e-07,0
-2.95442e-05,5.33625e-05,-5.9245e-06,2.94018e-05,1.12474e-05,-1.02547e-05,8.79414e-06,4.35839e-07,0
-2.84578e-05,3.55701e-05,-6.08609e-06,4.19029e-05,2.02929e-05,-9.85878e-06,1.47974e-05,7.03234e-07,0
-2.82277e-05,9.16421e-06,-6.92369e-06,4.64041e-05,2.5228e-05,-9.70045e-06,1.6579e-05,2.46643e-06,0
-2.96018e-05,-2.12371e-05,-7.50658e-06,4.11677e-05,2.4795e-05,-9.5661e-06,1.40198e-05,4.43865e-06,0
-3.19559e-05,-4.62609e-05,-7.48345e-06,2.95152e-05,2.18908e-05,-9.28941e-06,1.18901e-05,6.07516e-06,0
-3.26791e-05,-5.90772e-05,-6.92038e-06,1.6711e-05,1.82713e-05,-8.16718e-06,1.32849e-05,6.79272e-06,0
-3.15826e-05,-5.745e-05,-6.28288e-06,2.86741e-06,1.67319e-05,-7.05541e-06,1.61444e-05,7.10411e-06,0
-3.09885e-05,-4.71634e-05,-6.17527e-06,-1.05379e-05,1.87209e-05,-5.80705e-06,1.953e-05,7.87257e-06,0
-3.19454e-05,-3.53504e-05,-6.35026e-06,-1.80311e-05,2.14142e-05,-3.05993e-06,2.24042e-05,9.29372e-06,0
-3.3785e-05,-2.23571e-05,-5.98095e-06,-1.83891e-05,2.41634e-05,-1.63378e-07,2.33383e-05,1.03255e-05,0
-3.50512e-05,-1.10995e-05,-6.38012e-06,-1.64343e-05,2.64149e-05,5.77329e-07,2.33269e-05,1.12093e-05,0
-3.51225e-05,-4.49007e-06,-9.00664e-06,-1.69751e-05,2.59248e-05,-9.94387e-08,2.22392e-05,1.14209e-05,0
-3.34417e-05,-7.55602e-07,-1.19487e-05,-1.71456e-05,2.32465e-05,3.00584e-07,1.91576e-05,1.04782e-05,0
-3.19749e-05,3.28062e-06,-1.10079e-05,-1.19626e-05,2.29751e-05,6.43062e-07,1.52903e-05,8.20076e-06,0
-3.09169e-05,7.03198e-06,-5.92588e-06,-7.40586e-06,2.29676e-05,-2.14064e-07,1.24035e-05,6.17381e-06,0
-3.0419e-05,8.77061e-06,-2.67306e-07,-7.81321e-06,1.93015e-05,-4.61168e-07,1.01872e-05,5.84442e-06,0
-3.14139e-05,1.02441e-05,2.25596e-06,-9.91865e-06,1.43036e-05,-9.54884e-07,8.52685e-06,5.22294e-06,0
-3.16667e-05,1.14495e-05,1.15045e-06,-1.25844e-05,1.03541e-05,-2.29522e-06,9.07166e-06,4.45652e-06,0
-3.03781e-05,1.18916e-05,4.37825e-08,-1.69846e-05,1.06957e-05,-3.53694e-06,1.13964e-05,4.49145e-06,0
-3.05201e-05,1.12049e-05,-2.20587e-06,-2.13943e-05,1.23011e-05,-3.86746e-06,1.35663e-05,3.76203e-06,0
-3.13297e-05,1.05466e-05,-5.38429e-06,-2.13034e-05,1.08038e-05,-4.57937e-06,1.55707e-05,1.38258e-06,0
-3.08845e-05,9.87691e-06,-7.6767e-06,-1.57166e-05,7.33739e-06,-5.0933e-06,1.68497e-05,-3.09665e-07,0
-3.01888e-05,9.31309e-06,-8.11039e-06,-6.06588e-06,6.40155e-06,-4.3223e-06,1.50578e-05,1.45838e-06,0
-2.93523e-05,9.30233e-06,-6.67653e-06,6.37542e-06,9.24877e-06,-4.04739e-06,1.13925e-05,4.78422e-06,0
-2.92262e-05,1.05427e-05,-5.52578e-06,1.91965e-05,1.16697e-05,-4.45109e-06,9.28305e-06,6.59722e-06,0
-2.97239e-05,1.27653e-05,-5.64463e-06,2.95718e-05,1.17054e-05,-5.1458e-06,1.01601e-05,7.50422e-06,0
-3.0029e-05,1.35e-05,-7.15336e-06,3.35598e-05,1.19401e-05,-5.14695e-06,1.34486e-05,7.12188e-06,0
-2.89562e-05,1.23601e-05,-9.05009e-06,2.80098e-05,1.45568e-05,-3.75588e-06,1.64351e-05,5.03626e-06,0
-2.87809e-05,1.24507e-05,-1.08675e-05,1.5533e-05,1.79262e-05,-1.78786e-06,1.59195e-05,2.81952e-06,0
-3.11145e-05,1.57292e-05,-1.27216e-05,3.85756e-06,2.02722e-05,-1.23192e-06,1.24924e-05,1.96365e-06,0
-3.3508e-05,1.99226e-05,-1.41092e-05,-1.68526e-06,2.10764e-05,-1.54466e-06,1.09061e-05,9.52731e-07,0
-3.28394e-05,2.2606e-05,-1.44725e-05,-2.95802e-06,2.07489e-05,-3.35164e-07,1.15089e-05,-3.89458e-07,0
-3.06385e-05,2.22841e-05,-1.3447e-05,-4.60136e-06,1.91647e-05,2.47462e-06,8.25915e-06,-8.07427e-07,0
-2.95668e-05,2.14678e-05,-1.21847e-05,-8.14327e-06,1.94101e-05,4.82882e-06,-5.68604e-06,-1.90683e-06,0
-2.93745e-05,2.20755e-05,-1.33407e-05,-1.17172e-05,2.16782e-05,5.36499e-06,-2.68474e-05,-4.55944e-06,0
-2.84908e-05,2.13157e-05,-1.56781e-05,-1.31396e-05,2.13055e-05,3.88705e-06,-3.93501e-05,-6.38158e-06,0
-2.77638e-05,1.86944e-05,-1.64272e-05,-1.2425e-05,1.8341e-05,1.90429e-06,-3.23728e-05,-7.23077e-06,0
-2.9429e-05,1.64923e-05,-1.57245e-05,-1.21169e-05,1.73549e-05,7.57569e-07,-9.91873e-06,-6.47238e-06,0
-3.1026e-05,1.52932e-05,-1.5379e-05,-1.23579e-05,1.95904e-05,-6.29531e-07,1.72659e-05,-4.3563e-06,0
-3.14727e-05,1.55185e-05,-1.45721e-05,-1.04642e-05,2.13316e-05,-1.4009e-06,3.72965e-05,-2.62145e-06,0
-3.19789e-05,1.59277e-05,-1.43199e-05,-8.31058e-06,1.96189e-05,-2.42082e-06,4.76382e-05,-8.05124e-07,0
-3.25778e-05,1.65403e-05,-1.60147e-05,-9.21805e-06,1.78049e-05,-4.05572e-06,5.1878e-05,6.96092e-07,0
-3.17271e-05,1.81718e-05,-1.57373e-05,-1.35701e-05,1.6834e-05,-3.0071e-06,5.07417e-05,3.07187e-06,0
-3.04838e-05,1.91741e-05,-1.42079e-05,-1.88448e-05,1.59752e-05,-1.35983e-06,4.59073e-05,4.85367e-06,0
-3.00167e-05,1.91799e-05,-1.2869e-05,-2.18835e-05,1.55894e-05,-1.43153e-06,4.02771e-05,4.01548e-06,0
-2.87095e-05,1.93347e-05,-1.16415e-05,-2.30126e-05,1.33476e-05,-3.64601e-06,3.60606e-05,2.34379e-06,0
-2.84528e-05,1.94001e-05,-1.14262e-05,-2.66373e-05,1.02233e-05,-6.67183e-06,3.25806e-05,1.04473e-06,0
-2.91285e-05,1.92716e-05,-1.1967e-05,-3.5127e-05,7.99346e-06,-7.45245e-06,3.12768e-05,7.52027e-07,0
-2.97719e-05,1.98452e-05,-1.19227e-05,-4.31617e-05,7.64996e-06,-5.47786e-06,2.9935e-05,1.37475e-06,0
-3.01043e-05,2.12847e-05,-1.09014e-05,-4.31614e-05,8.14116e-06,-3.14046e-06,2.58026e-05,2.01396e-06,0
-2.92944e-05,2.41705e-05,-1.05548e-05,-2.98638e-05,6.56765e-06,-2.55715e-06,2.09809e-05,1.04775e-06,0
-2.86042e-05,2.76094e-05,-1.11793e-05,-3.50754e-06,1.32148e-06,-2.41632e-06,1.87418e-05,-1.47708e-06,0
-2.87276e-05,3.04081e-05,-1.15239e-05,2.69151e-05,-4.42041e-06,-2.57198e-06,1.75057e-05,-2.32388e-06,0
-2.94984e-05,3.21897e-05,-1.13473e-05,4.93824e-05,-7.55677e-06,-3.49167e-06,1.4636e-05,-5.08199e-07,0
-2.90828e-05,3.24218e-05,-1.12594e-05,5.60786e-05,-9.09704e-06,-5.15382e-06,1.20428e-05,1.14696e-06,0
-2.74079e-05,3.19096e-05,-1.07264e-05,4.6952e-05,-1.00683e-05,-6.78565e-06,1.19951e-05,1.04551e-06,0
-2.58673e-05,3.00824e-05,-9.04635e-06,3.27462e-05,-9.71011e-06,-8.85157e-06,1.5461e-05,5.93673e-07,0
-2.55274e-05,2.36093e-05,-7.21485e-06,2.399e-05,-8.49843e-06,-1.12833e-05,2.15538e-05,3.89796e-07,0
-2.60158e-05,1.23269e-05,-7.1307e-06,1.7876e-05,-6.7205e-06,-1.31219e-05,2.82697e-05,4.07133e-07,0
-2.64951e-05,2.25748e-07,-8.362e-06,7.58541e-06,-3.8038e-06,-1.45112e-05,3.04982e-05,3.95908e-08,0
-2.7341e-05,-7.60941e-06,-9.50335e-06,-6.7062e-07,-8.3352e-07,-1.60569e-05,2.72672e-05,-7.95707e-07,0
-2.96044e-05,-5.50782e-06,-9.41747e-06,7.20527e-06,1.48751e-06,-1.78577e-05,2.14157e-05,-8.19502e-07,0
-3.0892e-05,1.08362e-05,-7.80172e-06,2.59517e-05,2.72575e-06,-2.02883e-05,1.54288e-05,9.49409e-07,0
-2.90408e-05,3.9782e-05,-5.00529e-06,3.28592e-05,4.89032e-06,-2.32221e-05,8.99119e-06,4.20429e-06,0
-2.69479e-05,6.63474e-05,-2.37186e-06,2.40006e-05,8.27904e-06,-2.49094e-05,6.26051e-07,5.39187e-06,0
-2.69131e-05,7.90429e-05,-1.75527e-06,1.20116e-05,9.47399e-06,-2.34507e-05,-9.17505e-06,3.27941e-06,0
-2.86958e-05,7.55371e-05,-2.18103e-06,3.17613e-06,1.02602e-05,-2.10528e-05,-1.91243e-05,1.36108e-06,0
-3.07537e-05,5.48489e-05,-2.17337e-06,-5.76639e-06,1.15418e-05,-1.99773e-05,-2.97987e-05,1.09595e-06,0
-3.09072e-05,2.49838e-05,-3.27934e-06,-1.70679e-05,1.15444e-05,-1.99592e-05,-3.75969e-05,-3.45452e-07,0
-2.98983e-05,-4.60394e-06,-4.44279e-06,-2.60568e-05,1.1257e-05,-2.21348e-05,-3.64762e-05,-2.68855e-06,0
-2.99293e-05,-2.9262e-05,-4.48146e-06,-3.18133e-05,1.06801e-05,-2.2529e-05,-2.91251e-05,-3.89594e-06,0
-3.03934e-05,-4.94564e-05,-4.99616e-06,-3.78937e-05,1.01496e-05,-2.12523e-05,-2.04255e-05,-3.52546e-06,0
-3.00585e-05,-6.1148e-05,-6.6413e-06,-4.67232e-05,8.54388e-06,-2.02969e-05,-1.38784e-05,-6.36546e-07,0
-2.93548e-05,-6.06238e-05,-7.87297e-06,-5.61811e-05,6.84326e-06,-1.915e-05,-8.53676e-06,2.01884e-06,0
-2.91416e-05,-4.8483e-05,-7.99183e-06,-6.12147e-05,6.76695e-06,-1.83443e-05,-1.27278e-06,3.529e-06,0
-2.82369e-05,-3.02875e-05,-8.55145e-06,-5.92822e-05,6.44805e-06,-1.89702e-05,6.29906e-06,4.1255e-06,0
-2.79142e-05,-1.32216e-05,-7.80362e-06,-5.37465e-05,3.74484e-06,-2.09237e-05,1.05888e-05,4.51718e-06,0
-2.93022e-05,-1.52672e-06,-5.43472e-06,-4.74712e-05,-1.25147e-07,-2.19584e-05,1.17196e-05,4.87862e-06,0
-3.10003e-05,3.79735e-06,-3.77344e-06,-3.96989e-05,-2.33529e-06,-2.14523e-05,1.1221e-05,5.28322e-06,0
-3.20857e-05,6.7772e-06,-4.30054e-06,-2.94577e-05,-1.75526e-06,-2.05657e-05,9.32829e-06,5.54284e-06,0
-3.2143e-05,1.05603e-05,-4.85082e-06,-1.92001e-05,1.83071e-06,-2.0921e-05,8.54368e-06,4.08517e-06,0
-3.15328e-05,1.63868e-05,-4.15492e-06,-1.26905e-05,7.94887e-06,-2.14806e-05,1.14152e-05,1.8774e-06,0
-3.08568e-05,2.19433e-05,-3.26015e-06,-9.51673e-06,1.60526e-05,-2.14355e-05,1.70048e-05,1.1369e-06,0
-3.05983e-05,2.65539e-05,-3.37943e-06,-8.00411e-06,2.26542e-05,-2.14637e-05,2.21284e-05,2.49377e-06,0
-3.10546e-05,2.92054e-05,-5.59078e-06,-6.70953e-06,2.54181e-05,-2.15317e-05,2.50519e-05,3.81847e-06,0
-3.17054e-05,2.83045e-05,-8.43301e-06,-2.53209e-06,2.58105e-05,-2.05826e-05,2.57221e-05,4.02144e-06,0
-3.25712e-05,2.28206e-05,-9.44216e-06,6.9303e-06,2.57596e-05,-1.88388e-05,2.55859e-05,2.80494e-06,0
-3.27056e-05,1.57889e-05,-8.32029e-06,1.94286e-05,2.63203e-05,-1.70836e-05,2.493e-05,1.55581e-06,0
-3.16688e-05,8.50683e-06,-6.46236e-06,3.09767e-05,2.82361e-05,-1.54906e-05,2.21743e-05,1.15569e-06,0
-3.1254e-05,-1.18654e-06,-4.43022e-06,3.62267e-05,2.92588e-05,-1.33165e-05,1.94243e-05,2.56305e-06,0
-3.23918e-05,-1.01187e-05,-5.03568e-06,2.97791e-05,2.74742e-05,-1.17817e-05,1.80269e-05,4.88305e-06,0
-3.41835e-05,-1.27412e-05,-8.75817e-06,1.60918e-05,2.53295e-05,-1.12811e-05,1.67173e-05,6.19758e-06,0
-3.45699e-05,1.48009e-06,-1.3031e-05,2.62488e-06,2.40973e-05,-9.57243e-06,1.40721e-05,5.95343e-06,0
-3.35216e-05,3.39446e-05,-1.44064e-05,-7.6164e-06,2.18205e-05,-7.64822e-06,1.19025e-05,6.06895e-06,0
-3.05305e-05,6.38742e-05,-1.13439e-05,-1.6448e-05,1.64557e-05,-7.27553e-06,1.45108e-05,5.93659e-06,0
-2.70378e-05,7.85941e-05,-6.09399e-06,-2.4683e-05,1.13646e-05,-6.96187e-06,1.99026e-05,4.94957e-06,0
-2.56128e-05,7.85033e-05,-2.18078e-06,-2.37928e-05,8.00626e-06,-6.03024e-06,2.23138e-05,4.89417e-06,0
-2.72176e-05,6.42888e-05,-2.12739e-06,-1.86296e-05,5.02017e-06,-4.84883e-06,2.05023e-05,5.84863e-06,0
-3.00369e-05,3.69051e-05,-3.49909e-06,-1.52987e-05,4.42707e-06,-4.48273e-06,1.81007e-05,6.84441e-06,0
-3.18453e-05,3.51132e-06,-5.27343e-06,-1.34769e-05,6.61001e-06,-4.57947e-06,1.54795e-05,5.79342e-06,0
-3.4185e-05,-2.44874e-05,-9.05205e-06,-1.29727e-05,1.09337e-05,-4.19847e-06,1.34502e-05,4.67419e-06,0
-3.64268e-05,-3.98456e-05,-1.24864e-05,-1.19195e-05,1.45145e-05,-3.77176e-06,1.41375e-05,4.36408e-06,0
-3.66543e-05,-3.87529e-05,-1.39468e-05,-1.06172e-05,1.57726e-05,-3.57347e-06,1.65326e-05,3.41372e-06,0
-3.55088e-05,-2.40444e-05,-1.49277e-05,-8.16085e-06,1.58055e-05,-3.32539e-06,1.71014e-05,2.07409e-06,0
-3.42881e-05,-2.6321e-06,-1.59195e-05,-5.41971e-06,1.61151e-05,-2.12754e-06,1.57701e-05,1.76816e-06,0
-3.41589e-05,1.7733e-05,-1.5358e-05,-3.05223e-06,1.73055e-05,-2.01445e-06,1.56052e-05,1.27432e-06,0
