ch1,ch2,ch3,ch4,ch5,ch6,ch7,ch8,class
-3.20892e-05,-1.15408e-05,-6.63396e-06,-5.22911e-05,1.80067e-05,-7.20856e-06,-1.5513e-05,1.49819e-06,0
-3.22665e-05,-6.12225e-06,-5.57576e-06,-4.74673e-05,2.46218e-05,-6.45978e-06,-2.30382e-05,2.79133e-06,0
-3.14461e-05,-5.71808e-06,-3.2915e-06,-3.48251e-05,3.31707e-05,-3.811e-06,-2.72337e-05,1.26482e-06,0
-2.95543e-05,-6.59085e-06,-2.35555e-06,-1.4717e-05,3.97091e-05,-1.05984e-06,-2.86563e-05,-3.91264e-07,0
-2.86795e-05,-4.74159e-06,-3.71659e-06,7.36251e-06,3.87795e-05,2.06885e-06,-2.91697e-05,7.97874e-07,0
-2.91155e-05,-1.2902e-06,-5.72071e-06,2.22347e-05,3.15417e-05,5.64468e-06,-2.78907e-05,1.70546e-06,0
-2.98923e-05,4.32508e-06,-7.20485e-06,3.10073e-05,2.37464e-05,7.12024e-06,-2.35258e-05,2.77003e-06,0
-3.10787e-05,1.03496e-05,-1.02529e-05,3.54687e-05,1.9901e-05,6.23902e-06,-1.39906e-05,3.9e-06,0
-3.19538e-05,1.2061e-05,-1.18276e-05,3.42418e-05,1.84969e-05,3.86689e-06,-4.05829e-06,4.22585e-06,0
-3.31612e-05,1.11435e-05,-1.05837e-05,2.97207e-05,1.73838e-05,2.48016e-06,2.17311e-06,5.11746e-06,0
-3.37838e-05,1.09606e-05,-1.02388e-05,2.21422e-05,1.36703e-05,1.01528e-06,7.41808e-06,4.84026e-06,0
-3.12147e-05,1.41159e-05,-1.07442e-05,1.42947e-05,8.57304e-06,-9.40838e-07,1.35127e-05,3.6752e-06,0
-2.92618e-05,1.76669e-05,-1.08423e-05,8.00081e-06,5.37218e-06,-1.28564e-06,1.84009e-05,1.78285e-06,0
-2.91066e-05,2.00236e-05,-9.32472e-06,3.13264e-06,3.28668e-06,-2.20152e-06,1.9527e-05,7.80139e-07,0
-2.97554e-05,2.07614e-05,-6.72511e-06,-7.18979e-07,1.13274e-06,-4.09067e-06,1.66266e-05,1.4787e-06,0
-3.11991e-05,2.01217e-05,-4.34163e-06,-2.85212e-06,-1.12059e-06,-5.87819e-06,1.25146e-05,3.47977e-06,0
-3.04592e-05,1.89782e-05,-4.4505e-06,-3.96782e-06,-2.21782e-06,-6.39753e-06,1.28844e-05,4.90979e-06,0
-2.83669e-05,1.7182e-05,-7.37397e-06,-4.83781e-06,-2.11116e-06,-5.35138e-06,1.7443e-05,4.54478e-06,0
-2.76124e-05,1.5864e-05,-1.15641e-05,-5.10132e-06,-1.11547e-06,-3.70701e-06,2.23278e-05,4.0432e-06,0
-2.86278e-05,1.59373e-05,-1.49354e-05,-4.71384e-06,8.23523e-08,-3.39626e-06,2.50004e-05,3.54389e-06,0
-3.02151e-05,1.63906e-05,-1.54742e-05,-3.24362e-06,2.6305e-06,-4.92801e-06,2.6334e-05,3.56081e-06,0
-3.15469e-05,1.5879e-05,-1.34674e-05,-7.92705e-07,7.80294e-06,-6.15532e-06,2.6638e-05,3.85481e-06,0
-3.21925e-05,1.61507e-05,-1.18754e-05,1.80683e-06,1.4168e-05,-6.07694e-06,2.47126e-05,3.51778e-06,0
-3.28903e-05,1.99479e-05,-1.12753e-05,2.20951e-06,1.80054e-05,-5.38462e-06,2.05296e-05,1.77078e-06,0
-3.41162e-05,3.00357e-05,-8.79987e-06,1.03374e-06,1.92042e-05,-4.95688e-06,1.61887e-05,6.76743e-07,0
-3.48779e-05,4.21284e-05,-3.39917e-06,-6.35295e-08,2.01248e-05,-5.00431e-06,1.25328e-05,1.38708e-06,0
-3.51829e-05,4.73282e-05,4.90966e-06,-5.44993e-07,1.95825e-05,-5.18396e-06,1.0672e-05,2.81491e-06,0
-3.4394e-05,4.44045e-05,1.56469e-05,-9.93017e-07,1.76243e-05,-4.88485e-06,1.15162e-05,3.28799e-06,0
-3.26912e-05,3.79114e-05,2.78335e-05,-1.07402e-06,1.72778e-05,-4.82195e-06,1.27519e-05,2.51384e-06,0
-3.15153e-05,3.13466e-05,3.71184e-05,-5.82634e-08,1.85792e-05,-4.66645e-06,1.26931e-05,1.5914e-06,0
-3.12906e-05,2.72375e-05,3.72516e-05,1.68385e-06,1.92696e-05,-5.46526e-06,1.16123e-05,1.44359e-06,0
-3.22791e-05,2.79429e-05,2.52651e-05,-1.57329e-06,1.9466e-05,-6.85756e-06,1.18271e-05,1.70229e-06,0
-3.27582e-05,2.68622e-05,3.08911e-06,-1.18284e-05,2.03957e-05,-7.29859e-06,1.65986e-05,2.31708e-06,0
-3.29439e-05,1.83472e-05,-2.25192e-05,-1.5206e-05,2.18141e-05,-7.68737e-06,2.29584e-05,3.53338e-06,0
-3.35086e-05,9.09887e-06,-4.3044e-05,-5.29499e-06,2.14257e-05,-8.09088e-06,2.60077e-05,3.85814e-06,0
-3.29789e-05,1.09399e-07,-5.36428e-05,3.98398e-06,1.97366e-05,-7.57517e-06,2.88677e-05,4.19215e-06,0
-3.24344e-05,-7.49979e-06,-5.3874e-05,4.27473e-06,1.90024e-05,-5.96883e-06,3.16855e-05,4.31747e-06,0
-3.28457e-05,-1.04246e-05,-4.80675e-05,-1.70232e-06,1.75094e-05,-6.02652e-06,3.49316e-05,3.70551e-06,0
-3.28972e-05,-7.49448e-06,-4.02993e-05,-7.90898e-06,1.43965e-05,-7.89756e-06,3.6055e-05,3.12032e-06,0
-3.24883e-05,3.67123e-07,-3.27213e-05,-1.06296e-05,1.28161e-05,-9.65554e-06,3.08715e-05,2.42859e-06,0
-3.19636e-05,6.56724e-06,-2.72181e-05,-1.13165e-05,1.35182e-05,-1.0998e-05,2.12492e-05,2.63346e-06,0
-3.10744e-05,7.58045e-06,-2.14588e-05,-8.93901e-06,1.54288e-05,-1.19486e-05,1.20135e-05,2.97185e-06,0
-3.11397e-05,4.8383e-06,-1.43998e-05,-2.54671e-06,1.78528e-05,-1.22558e-05,5.60844e-06,2.49558e-06,0
-3.16284e-05,5.48794e-06,-8.48313e-06,5.59506e-06,1.95403e-05,-1.23992e-05,1.12324e-06,1.59304e-06,0
-3.09462e-05,1.63608e-05,-6.36123e-06,6.83265e-06,1.89559e-05,-1.3305e-05,-1.56651e-06,2.57651e-07,0
-3.00968e-05,3.85528e-05,-7.46091e-06,-2.88905e-06,1.76128e-05,-1.36457e-05,-1.98859e-06,-1.48363e-07,0
-3.09541e-05,6.44688e-05,-9.62812e-06,-1.56867e-05,1.71687e-05,-1.19715e-05,3.54946e-07,-6.99475e-08,0
-3.26406e-05,8.29295e-05,-1.13283e-05,-2.0063e-05,1.67926e-05,-1.04364e-05,3.07718e-06,-1.32469e-06,0
-3.4394e-05,8.62264e-05,-1.19963e-05,-1.2084e-05,1.62191e-05,-1.06374e-05,4.47224e-06,-2.90344e-06,0
-3.56963e-05,7.1563e-05,-1.22995e-05,4.75573e-06,1.49109e-05,-1.14836e-05,4.51907e-06,-2.75663e-06,0
-3.53901e-05,4.03341e-05,-1.19592e-05,2.74087e-05,1.28191e-05,-1.2695e-05,5.46219e-06,-1.69627e-06,0
-3.3974e-05,-1.94231e-06,-1.04668e-05,4.86359e-05,1.19523e-05,-1.46937e-05,8.00262e-06,-1.59174e-06,0
-3.30716e-05,-4.32335e-05,-9.40312e-06,5.31891e-05,1.31788e-05,-1.7166e-05,1.06387e-05,-1.20897e-06,0
-3.31648e-05,-6.9123e-05,-1.01346e-05,3.34419e-05,1.45284e-05,-1.85611e-05,1.17672e-05,-3.80717e-07,0
-3.36552e-05,-7.33025e-05,-9.8783e-06,1.27418e-06,1.39114e-05,-1.69618e-05,1.21433e-05,1.48375e-07,0
-3.37598e-05,-6.27253e-05,-6.66217e-06,-2.69101e-05,1.08091e-05,-1.42446e-05,1.38555e-05,1.85524e-06,0
-3.3123e-05,-4.52607e-05,-3.0741e-06,-4.55832e-05,6.92711e-06,-1.31104e-05,1.59824e-05,2.5735e-06,0
-3.13861e-05,-2.79133e-05,-1.18627e-06,-5.60156e-05,3.8637e-06,-1.38217e-05,1.78588e-05,1.87335e-06,0
-3.03757e-05,-1.78681e-05,-1.14029e-06,-5.7699e-05,1.08874e-06,-1.62292e-05,1.94311e-05,7.33767e-07,0
-3.12075e-05,-1.23514e-05,-3.20958e-06,-5.33495e-05,-5.20259e-08,-1.70292e-05,1.80632e-05,3.17139e-07,0
-3.10872e-05,-4.33223e-06,-4.71846e-06,-4.99127e-05,9.74907e-08,-1.64878e-05,1.53079e-05,1.91663e-06,0
-2.92056e-05,6.04546e-06,-4.64055e-06,-5.32227e-05,2.39958e-08,-1.70669e-05,1.42343e-05,3.61227e-06,0
-2.70011e-05,1.393e-05,-4.83718e-06,-6.26553e-05,3.94829e-07,-1.70202e-05,1.37294e-05,4.97146e-06,0
-2.82525e-05,1.96594e-05,-7.34068e-06,-7.2908e-05,-1.89809e-07,-1.63424e-05,1.33437e-05,4.10916e-06,0
-3.06316e-05,2.95828e-05,-1.09677e-05,-7.60779e-05,-9.6391e-07,-1.72729e-05,1.47382e-05,1.65863e-06,0
-3.11042e-05,4.30064e-05,-1.18644e-05,-6.74e-05,-8.18709e-07,-1.77834e-05,1.94407e-05,5.70345e-07,0
-3.07731e-05,5.201e-05,-9.56682e-06,-5.28167e-05,3.05905e-06,-1.61882e-05,2.38022e-05,9.16629e-07,0
-3.00526e-05,5.4436e-05,-7.48594e-06,-4.15017e-05,7.11171e-06,-1.53239e-05,2.46382e-05,1.73631e-06,0
-2.96308e-05,5.07188e-05,-7.00301e-06,-3.31356e-05,6.79853e-06,-1.67662e-05,2.31098e-05,2.2904e-06,0
-2.96056e-05,4.15355e-05,-6.68163e-06,-2.14112e-05,3.97933e-06,-1.84068e-05,2.03323e-05,2.09804e-06,0
-2.97306e-05,3.08207e-05,-6.42201e-06,-3.6071e-06,1.86075e-06,-1.80905e-05,1.77016e-05,1.76665e-06,0
-2.99711e-05,2.29505e-05,-5.76213e-06,1.75959e-05,1.16418e-06,-1.6461e-05,1.62078e-05,2.3231e-06,0
-3.07225e-05,1.56203e-05,-4.04956e-06,3.41026e-05,1.00699e-06,-1.44875e-05,1.51459e-05,3.95064e-06,0
-3.1187e-05,5.17922e-06,-1.32105e-06,4.09924e-05,1.17974e-06,-1.30045e-05,1.35572e-05,5.18139e-06,0
-3.1193e-05,-3.97134e-06,1.23294e-06,4.00722e-05,1.00263e-06,-1.17428e-05,1.15366e-05,5.44136e-06,0
-3.11879e-05,-6.62895e-06,3.64307e-06,3.55424e-05,2.03566e-06,-9.60395e-06,1.09422e-05,5.52774e-06,0
-3.13098e-05,-2.61534e-06,4.64362e-06,2.81077e-05,4.55626e-06,-6.80037e-06,1.21663e-05,4.46202e-06,0
-3.05917e-05,3.46988e-06,2.59812e-06,1.8251e-05,7.9585e-06,-5.13551e-06,1.37702e-05,3.0427e-06,0
-2.97798e-05,8.19124e-06,-2.31227e-06,9.88605e-06,1.05502e-05,-6.03316e-06,1.4643e-05,3.1336e-06,0
-2.93558e-05,1.20049e-05,-8.09806e-06,5.12107e-06,1.1826e-05,-8.8306e-06,1.48386e-05,4.46034e-06,0
-2.90148e-05,1.82854e-05,-1.2453e-05,2.30468e-06,1.25597e-05,-1.12036e-05,1.43981e-05,5.29794e-06,0
-2.90311e-05,2.51735e-05,-1.42863e-05,1.32818e-06,1.46366e-05,-1.26496e-05,1.39156e-05,4.2545e-06,0
-3.00055e-05,2.73485e-05,-1.31313e-05,6.03593e-07,1.70591e-05,-1.27091e-05,1.48371e-05,2.95824e-06,0
-3.14323e-05,2.66836e-05,-8.82166e-06,-3.63457e-06,1.92997e-05,-1.12349e-05,1.65164e-05,2.36932e-06,0
-3.10606e-05,2.77288e-05,-5.21635e-06,-1.07417e-05,2.11043e-05,-8.87253e-06,1.01655e-05,1.14432e-06,0
-2.86926e-05,2.99126e-05,-4.77653e-06,-1.92285e-05,2.33897e-05,-7.76092e-06,-6.66376e-06,-7.45791e-07,0
-2.67879e-05,2.98915e-05,-4.24981e-06,-2.95647e-05,2.58761e-05,-9.04248e-06,-1.74681e-05,-2.79384e-06,0
-2.66666e-05,2.88151e-05,-5.6831e-06,-4.11297e-05,2.557e-05,-9.21081e-06,-1.32078e-05,-4.65348e-06,0
-2.60999e-05,2.84413e-05,-9.04245e-06,-4.19403e-05,2.44645e-05,-8.10708e-06,4.33221e-07,-4.82614e-06,0
-2.37591e-05,2.83443e-05,-9.90245e-06,-2.22145e-05,2.68068e-05,-7.49308e-06,1.42358e-05,-2.84527e-06,0
-2.20212e-05,2.86055e-05,-7.82507e-06,6.27624e-06,3.0186e-05,-7.14955e-06,2.26816e-05,-2.26215e-06,0
-2.21887e-05,2.89329e-05,-4.25494e-06,2.53673e-05,2.96314e-05,-7.45629e-06,2.70476e-05,-3.49044e-06,0
-2.28325e-05,2.84395e-05,-3.26619e-07,2.76636e-05,2.43389e-05,-8.29125e-06,2.76836e-05,-4.2874e-06,0
-2.34976e-05,2.66171e-05,1.48173e-06,1.99666e-05,1.914e-05,-8.37103e-06,2.43836e-05,-3.96315e-06,0
-2.40251e-05,2.42477e-05,1.17971e-06,1.47322e-05,1.83751e-05,-7.47514e-06,2.00529e-05,-3.57335e-06,0
-2.57396e-05,2.20911e-05,-1.36251e-08,1.66694e-05,2.19988e-05,-7.10753e-06,1.67302e-05,-3.28955e-06,0
-2.72384e-05,2.19366e-05,-2.0253e-06,2.02643e-05,2.64413e-05,-9.36441e-06,1.36614e-05,-2.90361e-06,0
-2.70163e-05,2.33985e-05,-3.78236e-06,1.96156e-05,2.66459e-05,-1.273e-05,1.31734e-05,-3.03686e-06,0
-2.64372e-05,2.3406e-05,-4.33463e-06,1.77897e-05,2.44198e-05,-1.37525e-05,1.44075e-05,-3.01854e-06,0
-2.61952e-05,2.26991e-05,-3.62622e-06,2.04331e-05,2.25051e-05,-1.20052e-05,1.26886e-05,-2.09426e-06,0
-2.73119e-05,2.23239e-05,-2.26267e-06,2.542e-05,2.09625e-05,-1.00381e-05,9.07469e-06,-8.01466e-07,0
-2.87323e-05,2.07078e-05,-2.26496e-07,2.61226e-05,1.89079e-05,-9.6689e-06,9.24804e-06,-1.43799e-06,0
-2.84797e-05,1.73113e-05,1.22291e-06,2.08612e-05,1.77794e-05,-1.01977e-05,1.40461e-05,-2.91561e-06,0
-2.6609e-05,1.4086e-05,1.35071e-06,1.37083e-05,1.69506e-05,-1.09469e-05,1.74831e-05,-2.19653e-06,0
-2.51203e-05,1.22086e-05,6.29262e-07,8.06922e-06,1.56963e-05,-1.14268e-05,1.65488e-05,4.7892e-07,0
-2.47378e-05,1.20475e-05,-5.69469e-07,4.01723e-06,1.48754e-05,-1.19154e-05,1.38774e-05,1.56946e-06,0
-2.5192e-05,1.33713e-05,-3.12143e-06,9.54766e-07,1.56996e-05,-1.23686e-05,1.25715e-05,1.19829e-06,0
-2.60549e-05,1.42548e-05,-7.94741e-06,-1.23452e-06,1.68553e-05,-1.26571e-05,1.28188e-05,1.72163e-06,0
-2.60787e-05,1.24513e-05,-1.33681e-05,-3.28538e-06,1.64248e-05,-1.26468e-05,1.26654e-05,1.86439e-06,0
-2.56478e-05,9.20486e-06,-1.79568e-05,-5.71838e-06,1.56964e-05,-1.23837e-05,1.01649e-05,1.12924e-06,0
-2.5814e-05,7.90366e-06,-2.07243e-05,-9.35951e-06,1.59274e-05,-1.24164e-05,7.67687e-06,5.26014e-07,0
-2.72178e-05,8.47145e-06,-2.05941e-05,-1.52397e-05,1.71556e-05,-1.19819e-05,7.60152e-06,-4.03695e-07,0
-2.79062e-05,9.45314e-06,-1.87382e-05,-2.07538e-05,2.03993e-05,-1.10411e-05,8.4998e-06,-7.25611e-07,0
-2.56937e-05,1.03163e-05,-1.81168e-05,-2.1863e-05,2.32925e-05,-1.13355e-05,8.87398e-06,-4.92475e-07,0
-2.51401e-05,1.19689e-05,-1.88155e-05,-1.84316e-05,2.40405e-05,-1.33935e-05,8.90006e-06,8.7045e-07,0
-2.78254e-05,1.40916e-05,-1.91249e-05,-1.14357e-05,2.32818e-05,-1.52449e-05,8.04394e-06,1.95248e-06,0
-2.93293e-05,1.68233e-05,-1.78644e-05,-4.99626e-06,1.99108e-05,-1.54618e-05,6.65864e-06,-2.69973e-07,0
-2.84054e-05,1.98541e-05,-1.54103e-05,-2.43626e-06,1.8011e-05,-1.49578e-05,6.68303e-06,-2.96675e-06,0
-2.75408e-05,2.12411e-05,-1.43026e-05,4.83982e-06,1.64331e-05,-1.42314e-05,8.86209e-06,-2.61308e-06,0
-2.85842e-05,2.15129e-05,-1.37716e-05,2.45535e-05,1.48355e-05,-1.24414e-05,1.12902e-05,6.86459e-07,0
-3.08286e-05,1.85639e-05,-1.42621e-05,4.51113e-05,1.41782e-05,-1.0641e-05,1.14272e-05,2.96453e-06,0
-3.28576e-05,1.33232e-05,-1.43755e-05,4.81559e-05,1.3052e-05,-9.76994e-06,1.14973e-05,2.25163e-06,0
-3.41162e-05,8.79346e-06,-1.29091e-05,3.19062e-05,1.1301e-05,-1.10423e-05,1.32687e-05,2.31756e-07,0
-3.38416e-05,5.67947e-06,-1.12862e-05,8.29923e-06,9.69136e-06,-1.34467e-05,1.47741e-05,4.82524e-07,0
-3.28317e-05,3.49833e-06,-1.0985e-05,-8.98567e-06,8.51347e-06,-1.4578e-05,1.51806e-05,2.29172e-06,0
-3.29863e-05,1.44433e-06,-1.26919e-05,-1.63642e-05,6.09884e-06,-1.37806e-05,1.55581e-05,2.81218e-06,0
-3.42214e-05,4.83131e-07,-1.44826e-05,-1.69248e-05,3.34724e-06,-1.1992e-05,1.58067e-05,2.4513e-06,0
-3.521e-05,1.79363e-07,-1.47093e-05,-1.37368e-05,2.4499e-06,-1.11831e-05,1.52595e-05,2.47755e-06,0
-3.55045e-05,-2.36682e-07,-1.26162e-05,-9.9318e-06,4.91284e-06,-1.15339e-05,1.47404e-05,2.05556e-06,0
-3.56054e-05,-1.73693e-07,-9.08871e-06,-9.72648e-06,9.34263e-06,-1.18382e-05,1.58108e-05,1.39953e-06,0
-3.4863e-05,2.33921e-06,-3.7843e-06,-1.90526e-05,1.39736e-05,-1.01349e-05,1.90804e-05,2.76507e-06,0
-3.36695e-05,5.91136e-06,1.29891e-06,-3.45956e-05,1.6531e-05,-7.80425e-06,2.27604e-05,4.71221e-06,0
-3.34017e-05,7.6655e-06,3.53467e-06,-4.43269e-05,1.61545e-05,-7.74099e-06,2.35015e-05,5.35849e-06,0
-3.47148e-05,6.7477e-06,2.1409e-06,-4.32353e-05,1.37789e-05,-9.70797e-06,2.02248e-05,6.00988e-06,0
-3.52368e-05,4.91081e-06,-9.6421e-07,-3.39908e-05,1.15043e-05,-1.09184e-05,1.28822e-05,7.9741e-06,0
-3.38719e-05,5.37192e-06,-5.57814e-06,-1.97912e-05,1.19513e-05,-1.02315e-05,1.80341e-06,9.33272e-06,0
-3.24048e-05,9.20309e-06,-1.38584e-05,-4.88674e-06,1.3913e-05,-7.76699e-06,-6.54139e-06,8.3158e-06,0
-3.15795e-05,1.34878e-05,-2.29687e-05,8.78288e-06,1.48725e-05,-4.11842e-06,-6.95506e-06,6.65101e-06,0
-3.10905e-05,1.45809e-05,-2.79529e-05,1.85444e-05,1.48383e-05,-1.57038e-06,1.68988e-07,7.20337e-06,0
-3.01996e-05,1.50057e-05,-2.60684e-05,2.01802e-05,1.51318e-05,-9.08862e-07,1.11679e-05,9.03718e-06,0
-2.97914e-05,2.15367e-05,-1.64834e-05,7.90045e-06,1.57769e-05,-7.90132e-07,1.86613e-05,9.12337e-06,0
-3.05805e-05,3.52781e-05,-5.92434e-06,-1.21377e-05,1.387e-05,-2.89572e-06,2.27244e-05,5.94631e-06,0
-3.17411e-05,4.69172e-05,7.42049e-07,-2.41667e-05,1.03974e-05,-6.39074e-06,2.34499e-05,2.5639e-06,0
-3.22784e-05,5.10384e-05,5.01999e-06,-2.23137e-05,9.59314e-06,-7.77125e-06,1.85005e-05,1.8074e-06,0
-3.12776e-05,5.1886e-05,1.0114e-05,-1.38e-05,1.08459e-05,-6.52938e-06,1.21329e-05,2.90126e-06,0
-2.88935e-05,5.03419e-05,2.12487e-05,-1.29358e-05,1.22537e-05,-3.58801e-06,7.9307e-06,3.98094e-06,0
-2.67953e-05,4.41943e-05,3.64411e-05,-2.08988e-05,1.36327e-05,-2.1953e-06,5.91964e-06,4.28473e-06,0
-2.71426e-05,3.20003e-05,4.99102e-05,-2.4386e-05,1.49057e-05,-4.07923e-06,5.11005e-06,4.38609e-06,0
-2.91212e-05,1.46392e-05,5.76793e-05,-2.03251e-05,1.59297e-05,-7.02777e-06,8.91134e-06,3.9812e-06,0
-3.1026e-05,-3.63993e-06,5.58088e-05,-1.63569e-05,1.70679e-05,-8.24383e-06,1.62575e-05,3.85511e-06,0
-3.22262e-05,-1.62002e-05,4.11409e-05,-1.46084e-05,1.80576e-05,-7.56519e-06,2.25157e-05,4.36698e-06,0
-3.25699e-05,-1.90165e-05,1.57074e-05,-1.25688e-05,1.72277e-05,-6.26336e-06,2.48476e-05,4.47053e-06,0
-3.24816e-05,-1.44111e-05,-1.49837e-05,-9.62429e-06,1.481e-05,-4.8407e-06,2.26665e-05,3.48784e-06,0
-3.33291e-05,-9.59787e-06,-4.4545e-05,-7.34469e-06,1.36918e-05,-3.21224e-06,1.97033e-05,2.5386e-06,0
-3.54644e-05,-8.61138e-06,-6.72694e-05,-6.67553e-06,1.53006e-05,-2.27676e-06,1.73697e-05,2.68082e-06,0
-3.72383e-05,-1.02818e-05,-7.96628e-05,-8.58567e-06,1.82317e-05,-2.6484e-06,1.50478e-05,2.74142e-06,0
-3.77017e-05,-1.36958e-05,-8.14148e-05,-1.27932e-05,2.00547e-05,-3.6913e-06,1.32482e-05,1.00908e-06,0
-3.71895e-05,-1.72254e-05,-7.51131e-05,-1.84101e-05,1.88309e-05,-4.93108e-06,1.29324e-05,-2.35907e-06,0
-3.61809e-05,-2.01679e-05,-6.53553e-05,-2.50538e-05,1.53729e-05,-6.37445e-06,1.21609e-05,-4.34748e-06,0
-3.44757e-05,-2.25808e-05,-5.59502e-05,-3.07164e-05,1.34553e-05,-7.30136e-06,9.95625e-06,-3.58387e-06,0
-3.36105e-05,-2.19266e-05,-4.76395e-05,-3.21505e-05,1.37901e-05,-7.598e-06,6.38751e-06,-2.16311e-06,0
-3.36588e-05,-1.45686e-05,-3.88186e-05,-3.00829e-05,1.33658e-05,-7.19882e-06,1.99238e-06,-1.32588e-06,0
-3.34266e-05,-6.83274e-06,-2.88634e-05,-2.69578e-05,1.05749e-05,-6.62328e-06,-6.61812e-07,-4.24992e-07,0
-3.29536e-05,-3.55575e-06,-2.10391e-05,-2.03859e-05,9.17584e-06,-7.24061e-06,-1.90831e-06,5.0861e-08,0
-3.19684e-05,9.8006e-07,-1.66332e-05,-8.85563e-06,1.09687e-05,-9.90082e-06,-2.63713e-06,-1.5314e-06,0
-3.03422e-05,7.73933e-06,-1.27317e-05,4.16294e-08,1.11722e-05,-1.33358e-05,3.91748e-07,-3.14127e-06,0
-2.96947e-05,1.47972e-05,-9.26955e-06,3.06018e-06,8.78905e-06,-1.50383e-05,7.79337e-06,-3.49966e-06,0
-2.98557e-05,2.07374e-05,-7.71199e-06,6.72014e-06,7.84554e-06,-1.47654e-05,2.00052e-05,-1.70415e-06,0
-3.05179e-05,2.25935e-05,-7.22835e-06,1.31172e-05,8.45636e-06,-1.52523e-05,3.41535e-05,1.18804e-06,0
-3.14245e-05,2.16387e-05,-6.8673e-06,1.714e-05,8.59324e-06,-1.73977e-05,4.27973e-05,2.06406e-06,0
-3.14509e-05,2.19088e-05,-5.13492e-06,1.4962e-05,8.65243e-06,-1.82255e-05,4.50798e-05,2.43196e-06,0
-3.13638e-05,2.26135e-05,-3.02892e-06,9.03179e-06,9.87527e-06,-1.7159e-05,4.28368e-05,3.2098e-06,0
-3.12981e-05,1.99297e-05,-9.87421e-07,3.97081e-06,1.01031e-05,-1.53261e-05,3.77437e-05,3.27021e-06,0
-3.13996e-05,1.59962e-05,6.82386e-07,2.49146e-06,9.89239e-06,-1.40139e-05,2.7786e-05,2.02715e-06,0
-3.20721e-05,1.36584e-05,7.77767e-07,5.09524e-06,1.12488e-05,-1.26059e-05,1.10691e-05,1.95695e-06,0
-3.34146e-05,1.35254e-05,4.98926e-07,7.75544e-06,1.13514e-05,-1.16673e-05,-9.91669e-06,4.15555e-06,0
-3.46367e-05,1.54521e-05,6.03756e-08,6.71018e-06,1.11599e-05,-1.19715e-05,-2.95428e-05,5.42234e-06,0
-3.41656e-05,1.72077e-05,1.5368e-07,5.00656e-06,1.20687e-05,-1.17438e-05,-4.26458e-05,3.86274e-06,0
-3.26332e-05,1.66433e-05,9.72261e-07,5.48838e-06,1.30816e-05,-1.06481e-05,-4.8094e-05,1.52462e-06,0
-3.18052e-05,1.53581e-05,1.35659e-06,7.13048e-06,1.29797e-05,-9.46599e-06,-4.47266e-05,-2.21404e-07,0
-3.2665e-05,1.58176e-05,1.5868e-06,1.00043e-05,1.31143e-05,-8.72245e-06,-3.40101e-05,-7.42646e-07,0
-3.41162e-05,1.69308e-05,2.26172e-06,1.50108e-05,1.43901e-05,-8.3225e-06,-2.08978e-05,1.98441e-07,0
-3.36851e-05,1.75207e-05,2.15296e-06,2.09923e-05,1.44633e-05,-7.79407e-06,-1.14215e-05,1.45893e-06,0
-3.12688e-05,1.7246e-05,1.07462e-06,2.3578e-05,1.1654e-05,-6.47996e-06,-7.44491e-06,2.6838e-06,0
-2.95061e-05,1.75357e-05,6.8953e-07,1.90845e-05,7.61716e-06,-5.10199e-06,-5.45573e-06,3.48348e-06,0
-3.01376e-05,1.85139e-05,1.83848e-06,1.0244e-05,5.57099e-06,-4.56677e-06,-9.56813e-07,2.57032e-06,0
-3.19487e-05,1.9223e-05,3.18711e-06,2.21956e-06,6.18918e-06,-6.02209e-06,6.34166e-06,6.44379e-07,0
-3.30377e-05,2.1553e-05,2.83356e-06,-1.10988e-06,8.267e-06,-8.68974e-06,1.35325e-05,-7.3958e-07,0
-3.1555e-05,2.61849e-05,2.1753e-06,-1.47457e-06,1.05385e-05,-1.00418e-05,1.99783e-05,-1.06355e-06,0
-2.90186e-05,2.96697e-05,1.86206e-06,-1.64258e-06,1.17365e-05,-9.29243e-06,2.32787e-05,2.53819e-07,0
-2.78668e-05,2.90661e-05,-3.3687e-07,-1.30357e-06,1.13628e-05,-8.45229e-06,2.30264e-05,1.63051e-06,0
-2.86742e-05,2.41938e-05,-2.58354e-06,-2.02558e-06,1.06366e-05,-9.17892e-06,2.2756e-05,2.38762e-06,0
-2.94722e-05,1.90713e-05,-1.72887e-06,-4.68843e-06,9.93095e-06,-1.01694e-05,2.40761e-05,1.138e-06,0
-2.9026e-05,1.39104e-05,1.40106e-06,-8.45685e-06,8.37388e-06,-8.92763e-06,2.53639e-05,-1.72817e-06,0
-2.79888e-05,7.72884e-06,5.62312e-06,-1.08302e-05,6.62234e-06,-6.8202e-06,2.52059e-05,-3.55789e-06,0
-2.70091e-05,1.62961e-06,7.79343e-06,-1.09037e-05,7.54439e-06,-6.43681e-06,2.92033e-05,-3.11167e-06,0
-2.73182e-05,-3.82802e-06,7.47739e-06,-1.06692e-05,9.28894e-06,-5.51138e-06,3.79192e-05,-2.21839e-06,0
-2.78312e-05,-5.69311e-06,8.64807e-06,-1.10049e-05,9.2529e-06,-3.68265e-06,4.6087e-05,-2.3438e-06,0
-2.81944e-05,-1.25846e-06,1.07639e-05,-1.33403e-05,6.43035e-06,-2.64641e-06,5.285e-05,-1.77321e-06,0
-2.82882e-05,8.55708e-06,9.14344e-06,-1.61644e-05,3.21943e-06,-3.16925e-06,5.51817e-05,-1.87903e-06,0
-2.7977e-05,2.07123e-05,3.26421e-06,-1.78035e-05,3.9609e-06,-4.80894e-06,5.08543e-05,-3.69302e-06,0
-2.78441e-05,3.14562e-05,-4.27403e-06,-1.68113e-05,7.30005e-06,-6.56655e-06,4.12907e-05,-4.89446e-06,0
-2.87994e-05,3.48303e-05,-1.25182e-05,-1.32452e-05,1.00936e-05,-7.16291e-06,2.93483e-05,-4.54564e-06,0
-3.00061e-05,2.87874e-05,-2.03874e-05,-1.07098e-05,1.03869e-05,-5.8061e-06,1.59345e-05,-4.4505e-06,0
-3.10299e-05,1.84678e-05,-2.55393e-05,-1.06801e-05,8.99325e-06,-3.29842e-06,1.5144e-06,-5.76741e-06,0
-3.1658e-05,1.15907e-05,-2.48765e-05,-1.2689e-05,7.9716e-06,-2.28098e-06,-1.14237e-05,-6.8983e-06,0
-3.14111e-05,9.2112e-06,-1.80177e-05,-1.38306e-05,8.60373e-06,-3.57944e-06,-1.85205e-05,-5.87858e-06,0
-3.12222e-05,6.43246e-06,-1.00224e-05,-1.36555e-05,1.02008e-05,-4.63015e-06,-1.76284e-05,-4.17299e-06,0
-3.0856e-05,-6.47491e-07,-5.61555e-06,-1.31167e-05,1.15893e-05,-5.37241e-06,-1.13753e-05,-3.27739e-06,0
-2.98591e-05,-9.08443e-06,-3.70513e-06,-1.1286e-05,1.20114e-05,-6.81421e-06,-3.72307e-06,-2.32406e-06,0
-2.95218e-05,-1.32791e-05,-3.51868e-06,-7.11616e-06,1.17309e-05,-8.68274e-06,1.73714e-06,-1.13555e-06,0
-3.09792e-05,-1.13793e-05,-4.81461e-06,-1.36969e-06,1.21769e-05,-1.0296e-05,3.92916e-06,-1.35448e-06,0
-3.28702e-05,-5.47787e-06,-6.63913e-06,5.33436e-06,1.35782e-05,-1.17491e-05,4.74468e-06,-2.40632e-06,0
-3.33188e-05,8.86577e-07,-8.60339e-06,1.1165e-05,1.61474e-05,-1.22815e-05,4.52927e-06,-1.30116e-06,0
-3.05947e-05,6.67073e-06,-9.93084e-06,1.48116e-05,2.06634e-05,-1.07891e-05,-1.46522e-06,6.888e-07,0
-2.71002e-05,1.06982e-05,-1.04037e-05,1.73561e-05,2.49876e-05,-7.78943e-06,-1.32225e-05,1.65007e-06,0
-2.60782e-05,1.07234e-05,-1.04686e-05,1.67311e-05,2.62719e-05,-5.54026e-06,-2.16331e-05,2.07792e-06,0
-2.71904e-05,7.72878e-06,-1.1024e-05,1.19752e-05,2.43068e-05,-4.9391e-06,-1.82039e-05,1.18221e-06,0
-2.96717e-05,3.61563e-06,-1.2861e-05,5.32478e-06,2.09221e-05,-5.34485e-06,-4.95401e-06,-1.27674e-07,0
-3.21242e-05,1.94934e-06,-1.56578e-05,-2.04571e-06,1.80436e-05,-6.43593e-06,1.04119e-05,-9.41127e-07,0
-3.30004e-05,4.82557e-06,-1.69977e-05,-8.97202e-06,1.4855e-05,-7.31793e-06,2.29721e-05,-2.29459e-06,0
-3.25861e-05,1.07756e-05,-1.70508e-05,-1.29443e-05,1.13346e-05,-8.09849e-06,2.72053e-05,-3.87689e-06,0
-3.05024e-05,1.5874e-05,-1.72939e-05,-1.46462e-05,7.15116e-06,-8.92737e-06,2.32305e-05,-3.72141e-06,0
-2.82619e-05,1.76395e-05,-1.63037e-05,-1.80866e-05,3.61571e-06,-9.23467e-06,1.87741e-05,-1.94175e-06,0
-2.6042e-05,2.05145e-05,-1.44057e-05,-2.40562e-05,3.16917e-06,-9.55998e-06,1.61582e-05,1.24634e-07,0
-2.42575e-05,2.32919e-05,-1.2622e-05,-2.73666e-05,2.76774e-06,-9.80165e-06,1.57312e-05,1.79723e-06,0
-2.46835e-05,2.48124e-05,-9.65138e-06,-2.61059e-05,1.58254e-06,-9.57771e-06,1.77597e-05,1.14963e-06,0
-2.6971e-05,2.4012e-05,-4.0439e-06,-2.31215e-05,8.44743e-07,-9.18808e-06,2.05614e-05,-1.26236e-06,0
-2.90418e-05,2.01974e-05,3.76378e-06,-2.00464e-05,1.61656e-06,-7.39476e-06,2.28158e-05,-1.6607e-06,0
-2.84791e-05,1.80215e-05,1.32667e-05,-1.67439e-05,2.81606e-06,-5.11125e-06,2.40526e-05,-1.66827e-07,0
-2.69163e-05,2.04164e-05,2.50752e-05,-1.03465e-05,3.39357e-06,-3.83808e-06,2.5142e-05,-1.06032e-06,0
-2.56494e-05,2.42904e-05,3.64025e-05,8.85413e-07,4.33336e-06,-4.32566e-06,2.69788e-05,-3.55103e-06,0
-2.59734e-05,2.57331e-05,4.01025e-05,1.75647e-05,4.88544e-06,-6.75226e-06,3.06772e-05,-4.36164e-06,0
-2.71018e-05,2.37371e-05,2.99294e-05,3.2766e-05,6.08558e-06,-9.66996e-06,3.43703e-05,-3.64092e-06,0
-2.76224e-05,1.9026e-05,7.94751e-06,3.69192e-05,8.48637e-06,-1.19598e-05,3.58116e-05,-2.1397e-06,0
-2.76029e-05,1.5569e-05,-1.68382e-05,3.64735e-05,1.1378e-05,-1.36011e-05,3.54949e-05,-1.22275e-06,0
-2.77274e-05,1.52838e-05,-3.69079e-05,4.24413e-05,1.37718e-05,-1.51916e-05,3.35638e-05,-1.52226e-06,0
-2.72205e-05,1.70669e-05,-4.81788e-05,4.93602e-05,1.75838e-05,-1.61743e-05,3.01354e-05,-9.45083e-07,0
-2.52071e-05,1.83115e-05,-4.9742e-05,4.47052e-05,2.45675e-05,-1.54239e-05,2.73069e-05,1.29442e-06,0
-2.3447e-05,1.96985e-05,-4.53066e-05,2.7521e-05,3.18086e-05,-1.41819e-05,2.67228e-05,3.01334e-06,0
-2.28716e-05,2.12165e-05,-3.96919e-05,4.86518e-06,3.39256e-05,-1.42528e-05,2.80105e-05,3.21338e-06,0
-2.23165e-05,2.10329e-05,-3.48792e-05,-1.52079e-05,3.00859e-05,-1.4095e-05,2.89396e-05,3.53477e-06,0
-2.11903e-05,1.90091e-05,-3.06242e-05,-2.69296e-05,2.56237e-05,-1.22965e-05,2.74002e-05,5.39802e-06,0
-2.10463e-05,1.61572e-05,-2.5999e-05,-2.91954e-05,2.63374e-05,-1.0304e-05,2.40487e-05,7.6047e-06,0
-2.29622e-05,1.34046e-05,-2.04586e-05,-2.74109e-05,3.15923e-05,-9.80038e-06,2.36777e-05,6.93926e-06,0
-2.56279e-05,1.24041e-05,-1.48097e-05,-2.71259e-05,3.53482e-05,-9.28554e-06,2.70016e-05,4.62416e-06,0
-2.75115e-05,1.30322e-05,-1.07091e-05,-2.87315e-05,3.50316e-05,-7.99636e-06,2.86923e-05,3.85869e-06,0
-2.94834e-05,1.51888e-05,-8.52273e-06,-3.28344e-05,3.42416e-05,-6.98179e-06,2.65194e-05,3.18019e-06,0
-2.98912e-05,1.93706e-05,-7.3648e-06,-3.72835e-05,3.4539e-05,-6.14353e-06,2.29869e-05,2.62981e-06,0
-2.85536e-05,2.46036e-05,-7.01646e-06,-3.72357e-05,3.07686e-05,-5.61176e-06,2.03578e-05,3.37385e-06,0
-2.75816e-05,2.88006e-05,-8.05848e-06,-3.2931e-05,2.5067e-05,-4.91026e-06,1.82456e-05,3.58664e-06,0
-2.78772e-05,3.50231e-05,-9.32973e-06,-2.49488e-05,2.23768e-05,-3.5751e-06,1.55921e-05,2.77584e-06,0
-2.91081e-05,4.87525e-05,-9.92048e-06,-1.47191e-05,2.3972e-05,-1.54086e-06,1.11957e-05,2.23596e-06,0
-2.87409e-05,6.26892e-05,-9.35563e-06,-8.90006e-06,2.72035e-05,-1.66276e-06,1.03468e-05,4.97425e-07,0
-2.70669e-05,6.93828e-05,-8.48283e-06,-9.62618e-06,2.76305e-05,-4.48875e-06,1.35808e-05,-2.33316e-06,0
-2.66839e-05,6.65152e-05,-8.73361e-06,-1.36136e-05,2.63502e-05,-6.14934e-06,1.51819e-05,-2.42631e-06,0
-2.88243e-05,5.47294e-05,-9.0654e-06,-1.60721e-05,2.42701e-05,-4.65108e-06,1.38929e-05,-1.29003e-07,0
-3.19183e-05,3.73535e-05,-7.87343e-06,-1.62583e-05,2.19832e-05,-2.28013e-06,9.99857e-06,1.82452e-06,0
-3.43125e-05,1.91986e-05,-4.9313e-06,-1.46551e-05,2.01657e-05,-3.37302e-06,4.5853e-06,3.88717e-06,0
-3.45787e-05,4.9711e-06,-3.52061e-06,-1.23013e-05,1.82973e-05,-5.62164e-06,-8.10329e-07,6.94032e-06,0
-3.28021e-05,-3.10764e-06,-5.03514e-06,-1.1006e-05,1.63554e-05,-5.26623e-06,-4.62285e-06,7.6927e-06,0
-3.21872e-05,-6.08519e-06,-7.36667e-06,-1.04752e-05,1.48886e-05,-1.99739e-06,-5.62062e-06,5.65766e-06,0
-3.3966e-05,-6.87157e-06,-7.26196e-06,-1.06854e-05,1.36771e-05,-1.48186e-07,-4.1866e-06,4.35307e-06,0
-3.56581e-05,-6.00315e-06,-4.51155e-06,-1.12433e-05,1.24137e-05,-2.14246e-06,-3.10669e-06,4.70743e-06,0
-3.50666e-05,-4.78852e-06,-1.87757e-06,-1.16137e-05,1.1911e-05,-4.57622e-06,-2.39015e-06,4.50498e-06,0
-3.34557e-05,-4.65385e-06,-9.71366e-07,-1.08074e-05,1.22412e-05,-5.52855e-06,-1.35143e-06,2.30358e-06,0
-3.24271e-05,-2.72137e-06,-1.11066e-06,-9.15219e-06,1.33654e-05,-6.25933e-06,-1.47792e-06,2.55288e-07,0
-3.25452e-05,1.00757e-05,-4.19676e-07,-7.4845e-06,1.4085e-05,-8.00558e-06,-3.4326e-06,-7.728e-07,0
-3.32643e-05,3.18917e-05,8.14677e-08,-7.57684e-06,1.19557e-05,-9.64748e-06,-4.70043e-06,-2.77577e-06,0
-3.37302e-05,4.52471e-05,-1.57809e-06,-8.8957e-06,8.32491e-06,-1.09037e-05,-3.43773e-06,-5.90766e-06,0
-3.36034e-05,4.18723e-05,-6.17581e-06,-9.16075e-06,6.59686e-06,-1.29747e-05,-1.46707e-06,-7.15895e-06,0
-3.25788e-05,2.85057e-05,-1.21386e-05,-6.27623e-06,7.6443e-06,-1.54664e-05,-3.29552e-07,-4.63501e-06,0
-3.11354e-05,1.13213e-05,-1.62389e-05,-1.96162e-06,9.36314e-06,-1.56055e-05,2.12708e-06,-1.09755e-06,0
-3.06838e-05,-3.73764e-06,-1.67669e-05,6.33155e-07,9.87936e-06,-1.38262e-05,6.55078e-06,-1.52028e-06,0
-3.08814e-05,-1.35737e-05,-1.32196e-05,2.64414e-06,8.55256e-06,-1.23171e-05,1.12749e-05,-3.75024e-06,0
-3.15429e-05,-1.76278e-05,-9.71161e-06,7.49808e-06,6.38653e-06,-1.32519e-05,1.26626e-05,-4.21328e-06,0
-3.33575e-05,-1.70078e-05,-8.79717e-06,1.42631e-05,6.38817e-06,-1.48358e-05,1.04315e-05,-1.76642e-06,0
-3.40165e-05,-1.68257e-05,-9.17918e-06,1.68196e-05,6.1682e-06,-1.37101e-05,7.52057e-06,3.01235e-06,0
-3.27538e-05,-1.68975e-05,-9.87533e-06,1.36116e-05,3.14838e-06,-1.12196e-05,4.45902e-06,5.11098e-06,0
-3.25463e-05,-1.67394e-05,-9.05487e-06,7.40204e-06,8.35687e-07,-9.89168e-06,3.01113e-06,3.8811e-06,0
-3.44138e-05,-1.4465e-05,-9.75729e-06,2.71078e-06,1.12247e-07,-1.02936e-05,2.53875e-06,2.52916e-06,0
-3.58696e-05,-8.76931e-06,-1.13569e-05,8.29078e-07,-3.3968e-07,-1.11224e-05,5.06014e-07,2.36332e-06,0
-3.55715e-05,-1.54514e-06,-1.29826e-05,-5.64875e-07,-8.7471e-07,-1.10483e-05,-4.03126e-06,4.09377e-06,0
-3.4957e-05,4.90223e-06,-1.42266e-05,-2.33052e-06,-2.32566e-06,-1.0512e-05,-4.77874e-06,6.21883e-06,0
-3.45717e-05,8.29969e-06,-1.34255e-05,-3.71996e-06,-2.9506e-06,-1.09471e-05,1.64808e-06,6.26145e-06,0
-3.44788e-05,8.66653e-06,-1.1468e-05,-5.9209e-06,-8.8527e-07,-1.1745e-05,9.46339e-06,4.31393e-06,0
-3.48946e-05,7.74619e-06,-7.91156e-06,-9.48471e-06,3.1719e-06,-1.22391e-05,1.2548e-05,3.13478e-06,0
-3.48805e-05,7.45288e-06,-3.54797e-06,-1.22153e-05,5.67486e-06,-1.23494e-05,1.06034e-05,4.38876e-06,0
-3.39067e-05,7.42829e-06,7.33829e-09,-1.29425e-05,4.94829e-06,-1.18601e-05,7.93294e-06,5.83758e-06,0
-3.22265e-05,7.39862e-06,3.46923e-06,-1.32077e-05,3.83613e-06,-1.16341e-05,7.93281e-06,6.43987e-06,0
-3.08523e-05,7.98371e-06,8.44572e-06,-1.33641e-05,5.1106e-06,-1.22505e-05,1.02244e-05,5.81942e-06,0
-3.10609e-05,8.02486e-06,1.41948e-05,-1.04244e-05,7.95508e-06,-1.28663e-05,1.17952e-05,3.40795e-06,0
-3.20997e-05,6.96406e-06,2.00774e-05,-4.10924e-06,9.79244e-06,-1.40112e-05,1.23857e-05,4.26819e-07,0
-3.34427e-05,6.66416e-06,2.51914e-05,-1.445e-07,1.00373e-05,-1.52639e-05,1.33174e-05,-8.95641e-07,0
-3.49944e-05,7.32693e-06,2.71285e-05,-1.91427e-06,9.80142e-06,-1.57599e-05,1.42226e-05,-1.05059e-07,0
-3.49998e-05,8.74829e-06,2.26231e-05,-5.17264e-06,9.26829e-06,-1.60621e-05,1.37383e-05,4.35044e-07,0
-3.44032e-05,1.01961e-05,1.25699e-05,-6.48151e-06,8.76228e-06,-1.65011e-05,1.3882e-05,-5.99146e-07,0
-3.47456e-05,1.05479e-05,-1.20623e-06,-4.09231e-06,1.02301e-05,-1.72829e-05,1.55388e-05,-1.13412e-06,0
-3.35693e-05,1.00523e-05,-1.81574e-05,1.89642e-06,1.16013e-05,-1.76945e-05,1.81636e-05,-3.24255e-07,0
-3.15748e-05,9.46392e-06,-3.47938e-05,8.72039e-06,1.2163e-05,-1.84115e-05,2.04068e-05,4.50459e-07,0
-3.16818e-05,9.34928e-06,-4.63537e-05,1.29191e-05,1.20308e-05,-1.955e-05,2.03902e-05,8.44925e-07,0
-3.24475e-05,9.57407e-06,-4.76837e-05,1.25498e-05,1.0457e-05,-1.88884e-05,2.03784e-05,1.10831e-06,0
-3.27797e-05,9.96013e-06,-3.69807e-05,9.91041e-06,8.48651e-06,-1.60588e-05,2.14803e-05,1.75407e-06,0
-3.28201e-05,1.20359e-05,-2.3181e-05,8.12097e-06,6.81864e-06,-1.35843e-05,2.25061e-05,2.65655e-06,0
-3.18464e-05,1.37018e-05,-1.44009e-05,6.36938e-06,5.23791e-06,-1.2444e-05,2.24681e-05,4.02981e-06,0
-2.92174e-05,1.42676e-05,-1.16848e-05,2.67003e-06,4.98417e-06,-1.16259e-05,2.15462e-05,4.93429e-06,0
-2.75002e-05,1.4969e-05,-1.29211e-05,-1.00731e-06,7.11245e-06,-1.03656e-05,2.02772e-05,4.68403e-06,0
-2.7093e-05,1.36891e-05,-1.49849e-05,-2.33642e-06,9.29647e-06,-9.06263e-06,1.95991e-05,5.03411e-06,0
-2.75015e-05,1.14942e-05,-1.72152e-05,-2.61363e-06,1.09622e-05,-8.41375e-06,1.97033e-05,7.37897e-06,0
-2.93889e-05,8.37031e-06,-2.0116e-05,-2.22303e-06,1.22246e-05,-8.77873e-06,1.93986e-05,8.98205e-06,0
-3.1617e-05,6.03353e-06,-2.47187e-05,-9.67159e-07,1.22244e-05,-9.20796e-06,1.99563e-05,7.61749e-06,0
-3.37299e-05,5.75818e-06,-2.86577e-05,2.51169e-06,1.20625e-05,-8.49072e-06,2.18907e-05,6.16953e-06,0
-3.55645e-05,4.5476e-06,-2.89189e-05,7.68498e-06,1.30121e-05,-7.7488e-06,2.35208e-05,6.20727e-06,0
-3.53807e-05,1.81626e-06,-2.58408e-05,9.27237e-06,1.32271e-05,-6.53284e-06,2.30642e-05,6.54752e-06,0
-3.22105e-05,-4.50457e-08,-2.22686e-05,4.87963e-06,1.19564e-05,-4.62681e-06,2.09536e-05,5.27037e-06,0
-2.94508e-05,7.24414e-07,-1.81659e-05,-5.05292e-06,1.04973e-05,-3.31356e-06,1.84194e-05,2.24572e-06,0
-2.94368e-05,3.06562e-06,-1.26935e-05,-1.88559e-05,7.95632e-06,-4.02021e-06,1.81269e-05,-3.89119e-07,0
-3.10221e-05,4.84847e-06,-7.69468e-06,-3.45309e-05,3.45248e-06,-6.25133e-06,2.23496e-05,-1.37874e-06,0
-3.19059e-05,5.80619e-06,-5.46484e-06,-4.80885e-05,-4.32565e-07,-7.52081e-06,2.83637e-05,-1.56359e-06,0
-3.12856e-05,6.87916e-06,-6.33368e-06,-5.64277e-05,-1.27051e-06,-6.81857e-06,3.22157e-05,-2.20277e-06,0
-2.96401e-05,8.42153e-06,-7.80799e-06,-5.88983e-05,-7.13233e-07,-6.32238e-06,3.27905e-05,-1.83216e-06,0
-2.88263e-05,1.12772e-05,-7.70984e-06,-5.39327e-05,-1.14853e-06,-7.29093e-06,3.07278e-05,-1.71046e-07,0
-2.99841e-05,1.59516e-05,-6.28654e-06,-4.03701e-05,-1.2522e-06,-8.76929e-06,2.72808e-05,4.57886e-07,0
-3.19921e-05,2.15691e-05,-4.0035e-06,-2.33905e-05,2.94434e-07,-9.29554e-06,2.06686e-05,-1.14355e-06,0
-3.23971e-05,2.81839e-05,-2.06333e-06,-8.8542e-06,2.2129e-06,-8.94863e-06,8.65612e-06,-3.4881e-06,0
-3.07069e-05,3.98368e-05,-1.02544e-06,1.26706e-06,4.56226e-06,-9.79306e-06,-1.80588e-06,-4.23431e-06,0
-2.84739e-05,5.69837e-05,2.26384e-07,5.17591e-06,7.5865e-06,-1.10889e-05,-4.68645e-06,-4.45264e-06,0
-2.70841e-05,7.02774e-05,1.29043e-07,5.9704e-06,9.76787e-06,-1.13683e-05,-8.46571e-07,-4.30035e-06,0
-2.64309e-05,7.32309e-05,-2.42324e-07,9.79125e-06,1.16522e-05,-1.17003e-05,7.07751e-06,-1.37767e-06,0
-2.77342e-05,6.84963e-05,6.81911e-07,1.80438e-05,1.52887e-05,-1.02407e-05,1.46336e-05,9.06508e-07,0
-3.06553e-05,5.93945e-05,1.43485e-06,2.89869e-05,1.7845e-05,-7.22792e-06,2.0259e-05,-1.0387e-06,0
-2.99506e-05,4.43147e-05,5.51756e-07,4.34349e-05,1.79098e-05,-6.94976e-06,2.61038e-05,-4.5208e-06,0
-2.56022e-05,2.75405e-05,-1.85568e-06,5.25094e-05,1.91585e-05,-6.98172e-06,2.81795e-05,-7.13601e-06,0
-2.31677e-05,1.41149e-05,-3.10288e-06,4.74963e-05,2.01171e-05,-7.1712e-06,2.30223e-05,-7.13456e-06,0
-2.4587e-05,-5.28355e-07,-1.96788e-06,3.32516e-05,1.98548e-05,-8.30653e-06,1.40924e-05,-5.0916e-06,0
-2.6859e-05,-1.45587e-05,5.76938e-07,1.90577e-05,2.04496e-05,-9.99338e-06,6.16928e-06,-2.86134e-06,0
-2.75696e-05,-2.33909e-05,3.23102e-06,8.02255e-06,2.24809e-05,-9.76571e-06,2.39976e-06,-1.37244e-06,0
-2.68387e-05,-2.43567e-05,5.1476e-06,-4.39883e-06,2.52416e-05,-7.37727e-06,2.86814e-06,8.26253e-07,0
-2.65348e-05,-2.02653e-05,6.16255e-06,-1.69337e-05,2.79102e-05,-6.3136e-06,2.56429e-06,2.11157e-06,0
-2.61902e-05,-1.42222e-05,6.12683e-06,-2.39831e-05,3.02508e-05,-6.67772e-06,-5.92028e-06,-2.90562e-08,0
-2.50803e-05,-2.63516e-06,5.41745e-06,-2.43017e-05,2.98094e-05,-7.01535e-06,-1.97175e-05,-2.34682e-06,0
-2.36863e-05,1.47492e-05,4.02022e-06,-2.43432e-05,2.72518e-05,-6.6958e-06,-2.78767e-05,-2.2721e-06,0
-2.29935e-05,3.05782e-05,1.16235e-06,-2.82775e-05,2.58305e-05,-6.98949e-06,-2.35983e-05,-3.81383e-07,0
-2.32444e-05,3.88741e-05,-2.87587e-06,-3.43154e-05,2.56863e-05,-7.90697e-06,-9.40994e-06,9.0846e-07,0
-2.41336e-05,4.00267e-05,-5.69166e-06,-3.79646e-05,2.41761e-05,-8.58149e-06,6.11083e-06,8.71377e-07,0
-2.58432e-05,3.47685e-05,-5.93006e-06,-3.56228e-05,2.11855e-05,-7.87565e-06,1.60756e-05,-3.12302e-07,0
-2.78235e-05,2.46489e-05,-6.06823e-06,-2.75703e-05,1.91133e-05,-7.07411e-06,2.03079e-05,-1.24759e-06,0
-2.89e-05,1.07257e-05,-9.13601e-06,-1.77505e-05,1.95635e-05,-6.59361e-06,2.28615e-05,-5.07677e-07,0
-2.84834e-05,-5.2358e-06,-1.34867e-05,-1.00616e-05,2.13506e-05,-6.06877e-06,2.55127e-05,1.14891e-06,0
-2.79769e-05,-2.30261e-05,-1.60758e-05,-3.36024e-06,2.19475e-05,-6.26197e-06,2.74589e-05,1.61156e-06,0
-2.78264e-05,-4.02377e-05,-1.72048e-05,4.49352e-06,2.13214e-05,-7.105e-06,2.82155e-05,-5.208e-08,0
-2.83418e-05,-4.89861e-05,-1.69263e-05,1.21581e-05,1.89252e-05,-6.70565e-06,2.65869e-05,-1.74001e-06,0
-2.91208e-05,-4.84562e-05,-1.50586e-05,1.40332e-05,1.41288e-05,-6.95567e-06,2.36527e-05,-3.01429e-07,0
-2.99858e-05,-4.57376e-05,-1.36114e-05,7.29113e-06,1.05217e-05,-7.75109e-06,2.14645e-05,1.70266e-06,0
-3.12814e-05,-4.11306e-05,-1.37291e-05,-2.83282e-06,1.0461e-05,-7.69324e-06,2.06019e-05,2.40124e-06,0
-3.06572e-05,-2.73258e-05,-1.37944e-05,-9.72213e-06,1.18964e-05,-8.70354e-06,2.06785e-05,3.02378e-06,0
-2.84466e-05,-7.62945e-06,-1.46578e-05,-1.20996e-05,1.34208e-05,-9.44129e-06,2.10161e-05,4.20275e-06,0
-2.79516e-05,6.2982e-06,-1.55017e-05,-1.01159e-05,1.39362e-05,-9.22763e-06,2.08544e-05,5.75295e-06,0
-2.83491e-05,1.30735e-05,-1.51166e-05,-5.65916e-06,1.40239e-05,-1.02119e-05,1.94264e-05,5.39167e-06,0
-2.7181e-05,1.46187e-05,-1.28034e-05,-3.13836e-06,1.50731e-05,-1.11902e-05,1.91767e-05,5.35591e-06,0
-2.56466e-05,1.47483e-05,-8.72828e-06,-6.14228e-06,1.58755e-05,-9.85235e-06,2.317e-05,5.8606e-06,0
-2.55595e-05,1.41719e-05,-7.42622e-06,-1.13758e-05,1.368e-05,-9.63762e-06,3.22384e-05,5.40005e-06,0
-2.66173e-05,1.17145e-05,-7.6366e-06,-1.36513e-05,1.01589e-05,-1.20492e-05,4.12849e-05,4.98951e-06,0
-2.79368e-05,7.70494e-06,-7.79184e-06,-1.20592e-05,8.17581e-06,-1.35489e-05,4.41928e-05,6.20272e-06,0
-2.89177e-05,4.59995e-06,-8.1066e-06,-8.44307e-06,6.95106e-06,-1.25492e-05,4.24025e-05,7.61514e-06,0
-2.96626e-05,6.11186e-06,-7.17023e-06,-3.54496e-06,7.40989e-06,-1.10139e-05,4.0328e-05,7.12977e-06,0
-3.04365e-05,9.67336e-06,-4.56406e-06,2.17056e-06,8.99486e-06,-1.00961e-05,3.77985e-05,6.74262e-06,0
-3.11443e-05,1.27009e-05,-6.98997e-07,6.71647e-06,9.49339e-06,-9.25255e-06,3.2566e-05,6.54482e-06,0
-3.15675e-05,1.49434e-05,2.81221e-06,6.73403e-06,9.38618e-06,-9.74693e-06,2.237e-05,6.59893e-06,0
-3.22455e-05,1.87692e-05,3.80253e-06,8.75618e-07,9.94593e-06,-1.18128e-05,7.33226e-06,7.46659e-06,0
-3.25056e-05,2.39847e-05,2.72219e-06,-5.7598e-06,1.02001e-05,-1.36383e-05,-8.1886e-06,8.4172e-06,0
-3.26149e-05,2.75322e-05,1.55042e-06,-7.99895e-06,9.16704e-06,-1.42125e-05,-1.90518e-05,8.70045e-06,0
-3.34456e-05,2.80387e-05,2.97076e-07,-5.54362e-06,8.76061e-06,-1.37427e-05,-2.34308e-05,9.50924e-06,0
-3.41142e-05,2.85705e-05,-1.53945e-06,-3.99437e-06,9.95607e-06,-1.30836e-05,-2.30463e-05,1.10288e-05,0
-3.32463e-05,3.01452e-05,-3.99971e-06,-8.62735e-06,1.00635e-05,-1.11644e-05,-1.89653e-05,1.13887e-05,0
-3.17102e-05,3.07952e-05,-6.99989e-06,-1.70974e-05,7.63993e-06,-8.45039e-06,-1.30793e-05,1.1612e-05,0
-3.13765e-05,2.91569e-05,-1.06215e-05,-2.02747e-05,4.52395e-06,-6.94321e-06,-9.00899e-06,1.2032e-05,0
-3.11922e-05,2.56214e-05,-1.34036e-05,-1.65281e-05,2.68545e-06,-7.62589e-06,-9.29947e-06,1.15572e-05,0
-3.02889e-05,2.1084e-05,-1.36709e-05,-1.25509e-05,3.21193e-06,-9.16204e-06,-1.0674e-05,1.02719e-05,0
-3.08417e-05,1.6586e-05,-1.28616e-05,-1.29275e-05,4.46238e-06,-1.03843e-05,-8.08742e-06,9.08097e-06,0
-3.4273e-05,1.26343e-05,-1.26405e-05,-1.56341e-05,4.71957e-06,-1.14881e-05,-2.17662e-06,7.48992e-06,0
-3.6165e-05,1.22361e-05,-1.22538e-05,-1.50055e-05,6.31854e-06,-1.13619e-05,2.29503e-06,5.07201e-06,0
-3.50702e-05,1.60183e-05,-1.18366e-05,-1.10025e-05,1.07188e-05,-1.08779e-05,4.33968e-06,3.60309e-06,0
-3.3337e-05,1.74523e-05,-1.10275e-05,-8.11925e-06,1.61487e-05,-1.10674e-05,7.05412e-06,3.07185e-06,0
-3.12717e-05,1.53612e-05,-1.084e-05,-6.28536e-06,1.76411e-05,-1.01955e-05,8.98364e-06,2.10827e-06,0
-3.06101e-05,1.33058e-05,-1e-05,-6.90539e-06,1.55327e-05,-9.38972e-06,7.92758e-06,9.9818e-07,0
-3.15168e-05,1.35434e-05,-9.13152e-06,-9.74879e-06,1.5158e-05,-1.15562e-05,5.78575e-06,5.83059e-07,0
-3.17452e-05,1.45331e-05,-9.69462e-06,-9.91253e-06,1.55482e-05,-1.43439e-05,5.08157e-06,-1.73781e-07,0
-3.22351e-05,1.45466e-05,-1.08478e-05,-6.06468e-06,1.56133e-05,-1.42145e-05,7.42215e-06,-1.43911e-06,0
-3.27445e-05,1.56494e-05,-1.30763e-05,3.32971e-06,1.56968e-05,-1.41647e-05,1.01585e-05,-2.3813e-06,0
-3.27726e-05,1.76192e-05,-1.50146e-05,1.42388e-05,1.74434e-05,-1.61805e-05,1.14877e-05,-3.39163e-06,0
-3.24938e-05,1.8038e-05,-1.54083e-05,2.09354e-05,1.95622e-05,-1.75967e-05,1.33356e-05,-3.70787e-06,0
-3.12149e-05,1.69768e-05,-1.31092e-05,1.9919e-05,2.05478e-05,-1.7113e-05,1.45727e-05,-3.06225e-06,0
-2.99961e-05,1.65256e-05,-1.07784e-05,1.18742e-05,2.10972e-05,-1.49355e-05,1.35981e-05,-2.68636e-06,0
-2.91983e-05,1.62526e-05,-1.02521e-05,1.27446e-06,2.16595e-05,-1.37495e-05,1.25858e-05,-2.76387e-06,0
-2.94773e-05,1.58284e-05,-1.11914e-05,-6.7084e-06,2.31166e-05,-1.39313e-05,1.33011e-05,-3.20328e-06,0
-3.04201e-05,1.71503e-05,-1.08008e-05,-9.18357e-06,2.46673e-05,-1.32071e-05,1.39787e-05,-3.68821e-06,0
-3.11614e-05,2.02073e-05,-7.8351e-06,-1.09722e-05,2.47133e-05,-1.15854e-05,1.36362e-05,-3.51327e-06,0
-3.13338e-05,2.26066e-05,-2.13971e-06,-1.49494e-05,2.32549e-05,-1.15926e-05,1.33369e-05,-2.98344e-06,0
-3.04135e-05,2.20937e-05,7.06366e-06,-1.57892e-05,2.3283e-05,-1.32815e-05,1.29897e-05,-2.43532e-06,0
-2.8018e-05,2.0465e-05,1.99544e-05,-9.96447e-06,2.53082e-05,-1.24364e-05,1.27325e-05,-2.46075e-06,0
-2.59836e-05,1.95549e-05,3.5148e-05,-4.10327e-06,2.78355e-05,-1.00419e-05,1.21802e-05,-3.3124e-06,0
-2.60267e-05,1.92631e-05,4.72641e-05,-3.20663e-06,2.88559e-05,-9.99379e-06,1.11622e-05,-4.05493e-06,0
-2.71376e-05,1.8793e-05,5.01823e-05,-4.54231e-06,2.77457e-05,-1.16841e-05,1.15533e-05,-4.27927e-06,0
-2.6585e-05,1.81655e-05,3.88868e-05,-3.9136e-06,2.62483e-05,-1.21662e-05,1.32846e-05,-4.82589e-06,0
-2.33596e-05,1.93971e-05,1.4208e-05,-2.6654e-06,2.65592e-05,-1.0129e-05,1.48227e-05,-5.81236e-06,0
-2.30641e-05,2.64626e-05,-1.73174e-05,-3.01267e-06,2.8393e-05,-7.75794e-06,1.64701e-05,-6.1855e-06,0
-2.67515e-05,3.75642e-05,-4.61951e-05,-4.42097e-06,2.96686e-05,-7.67714e-06,1.81926e-05,-5.51137e-06,0
-2.85878e-05,4.89557e-05,-6.5244e-05,-6.70311e-06,2.8856e-05,-9.68841e-06,2.29878e-05,-4.06882e-06,0
-2.6168e-05,5.63723e-05,-7.16977e-05,-7.44105e-06,2.72044e-05,-1.03545e-05,3.38279e-05,-2.46584e-06,0
-2.31856e-05,5.3571e-05,-6.62586e-05,-6.94251e-06,2.55692e-05,-6.58994e-06,4.14976e-05,-1.59436e-06,0
-2.35673e-05,4.29923e-05,-5.26014e-05,-5.58877e-06,2.39534e-05,-1.49808e-06,4.27143e-05,-1.85703e-06,0
-2.55713e-05,2.76063e-05,-3.88882e-05,-3.31407e-06,2.30803e-05,-6.56035e-07,4.31787e-05,-2.34224e-06,0
-2.70632e-05,7.87721e-06,-2.96927e-05,-8.78616e-07,2.36911e-05,-3.08819e-06,4.20668e-05,-1.97545e-06,0
-2.94093e-05,-1.27012e-05,-2.28855e-05,2.79396e-06,2.40008e-05,-5.59196e-06,3.65696e-05,-2.03369e-06,0
-3.12406e-05,-2.61207e-05,-1.6004e-05,5.63437e-06,2.33022e-05,-6.28452e-06,2.52429e-05,-1.81873e-06,0
-3.00794e-05,-2.64724e-05,-1.09521e-05,5.99451e-06,2.33029e-05,-6.04472e-06,8.03425e-06,-2.94846e-07,0
-2.95064e-05,-2.00194e-05,-8.59031e-06,5.76628e-06,2.23468e-05,-5.89507e-06,-1.14125e-05,1.61807e-06,0
-3.1238e-05,-1.45422e-05,-6.15732e-06,6.71229e-06,1.97669e-05,-6.38072e-06,-2.68492e-05,3.14888e-06,0
-3.38097e-05,-8.98354e-06,-4.41349e-06,8.90808e-06,1.70131e-05,-7.74657e-06,-3.42654e-05,2.46379e-06,0
-3.57726e-05,-1.30369e-06,-3.76753e-06,9.43883e-06,1.56244e-05,-8.18091e-06,-3.33688e-05,5.10545e-07,0
-3.6249e-05,4.66062e-06,-2.78615e-06,5.43293e-06,1.52628e-05,-8.71258e-06,-2.62217e-05,-7.35116e-07,0
-3.58269e-05,6.1473e-06,-7.56544e-07,-5.91511e-07,1.45744e-05,-9.49257e-06,-1.5915e-05,-5.09456e-07,0
-3.57966e-05,6.1585e-06,1.00798e-06,-4.54329e-06,1.24262e-05,-9.51543e-06,-5.63597e-06,8.10848e-07,0
-3.64125e-05,6.99888e-06,1.46361e-06,-7.26301e-06,9.11551e-06,-9.5268e-06,2.8515e-06,9.6685e-07,0
-3.64312e-05,8.42284e-06,5.61754e-07,-9.43558e-06,5.20593e-06,-1.08218e-05,8.86438e-06,-1.05887e-06,0
-3.65187e-05,9.30148e-06,-8.26375e-07,-9.53127e-06,2.31313e-06,-1.13046e-05,1.3946e-05,-3.06936e-06,0
-3.64692e-05,8.71571e-06,-3.48681e-06,-7.78143e-06,2.08609e-06,-1.06563e-05,2.10351e-05,-4.38981e-06,0
-3.55163e-05,8.21305e-06,-7.74728e-06,-6.31339e-06,4.06758e-06,-1.05826e-05,3.11563e-05,-4.55698e-06,0
-3.39227e-05,9.78629e-06,-1.05157e-05,-7.02337e-06,5.74062e-06,-1.00969e-05,3.92317e-05,-3.26746e-06,0
-3.17384e-05,1.24759e-05,-9.33579e-06,-1.01503e-05,5.31826e-06,-9.21788e-06,4.0267e-05,-2.46853e-06,0
-2.96035e-05,1.36854e-05,-5.92899e-06,-1.327e-05,3.65402e-06,-8.86544e-06,3.68317e-05,-2.20992e-06,0
-2.78358e-05,1.18512e-05,-3.39589e-06,-1.23944e-05,1.44209e-06,-8.83819e-06,3.3458e-05,-2.26097e-06,0
-2.72141e-05,7.35559e-06,-4.15218e-06,-7.53399e-06,-1.50676e-06,-9.29625e-06,3.15805e-05,-2.92437e-06,0
-2.97773e-05,3.1392e-06,-7.39112e-06,-1.80536e-06,-3.25934e-06,-9.49873e-06,2.65063e-05,-2.95802e-06,0
-3.20544e-05,1.57879e-06,-8.58435e-06,5.27214e-06,-1.79788e-06,-7.53631e-06,1.25384e-05,-9.8753e-07,0
-3.26077e-05,1.06177e-05,-7.8532e-06,1.10648e-05,8.705e-08,-6.41558e-06,-6.5907e-06,1.90666e-06,0
-3.20411e-05,3.43322e-05,-6.96168e-06,1.11372e-05,7.6162e-07,-7.43595e-06,-1.98867e-05,2.14146e-06,0
-3.08738e-05,5.769e-05,-6.33625e-06,8.45622e-06,-7.69805e-07,-7.99562e-06,-2.1039e-05,-2.05947e-08,0
-3.13138e-05,7.02123e-05,-6.2857e-06,4.98723e-06,-2.73246e-06,-8.18609e-06,-1.21632e-05,-1.52762e-06,0
-3.08153e-05,7.1124e-05,-5.49607e-06,2.21302e-06,-3.14256e-06,-9.87128e-06,6.2831e-07,-2.16493e-06,0
-2.98959e-05,6.20197e-05,-3.64583e-06,6.26871e-08,-3.55718e-06,-1.10124e-05,1.31891e-05,-2.48667e-06,0
-2.92911e-05,4.52685e-05,-2.93725e-06,-3.49213e-06,-4.75488e-06,-1.03511e-05,2.37378e-05,-3.27793e-06,0
-2.85742e-05,2.13558e-05,-3.67883e-06,-6.66746e-06,-5.71314e-06,-1.08924e-05,2.93643e-05,-3.95106e-06,0
-2.89508e-05,-9.0772e-06,-5.21977e-06,-6.90924e-06,-4.74306e-06,-1.2148e-05,2.99914e-05,-4.59888e-06,0
-3.01442e-05,-4.00944e-05,-5.55467e-06,-6.01953e-06,-5.29681e-06,-1.25194e-05,2.80079e-05,-5.62268e-06,0
-3.21136e-05,-6.07463e-05,-3.9304e-06,-6.18341e-06,-6.19068e-06,-1.06676e-05,2.68223e-05,-5.88905e-06,0
-3.43407e-05,-6.63151e-05,-8.30704e-07,-6.59292e-06,-5.50353e-06,-8.68853e-06,2.66328e-05,-4.21621e-06,0
-3.51632e-05,-5.93546e-05,2.31489e-06,-8.12571e-06,-4.68256e-06,-8.49218e-06,2.51967e-05,-1.99797e-06,0
-3.48006e-05,-4.69262e-05,1.74872e-06,-1.08207e-05,-3.96315e-06,-9.18582e-06,2.2568e-05,-1.24047e-06,0
-3.41549e-05,-3.47409e-05,-2.22231e-06,-1.32292e-05,-3.4511e-06,-1.04516e-05,2.10406e-05,-8.88946e-07,0
-3.33176e-05,-2.37561e-05,-5.38271e-06,-1.38776e-05,-3.08078e-06,-1.15563e-05,2.19461e-05,4.79034e-07,0
-3.16589e-05,-1.32034e-05,-4.57247e-06,-1.30391e-05,-3.29573e-06,-1.18729e-05,2.36838e-05,1.6274e-06,0
-2.91038e-05,-4.26455e-06,-4.09855e-07,-1.19605e-05,-4.27012e-06,-1.10769e-05,2.4891e-05,1.46688e-06,0
-2.74228e-05,2.26967e-06,7.87779e-06,-1.04595e-05,-6.53776e-06,-1.18825e-05,2.50606e-05,4.49385e-07,0
-2.76693e-05,6.31268e-06,1.91721e-05,-6.49896e-06,-8.41254e-06,-1.52839e-05,2.32807e-05,-6.19328e-07,0
-2.9246e-05,7.65809e-06,2.62388e-05,5.97317e-06,-8.25655e-06,-1.88985e-05,1.77618e-05,-1.35655e-06,0
-3.08424e-05,7.18118e-06,1.94741e-05,2.86057e-05,-6.37511e-06,-2.13267e-05,1.12091e-05,-2.91645e-06,0
-3.04709e-05,8.08454e-06,-1.69031e-06,4.32664e-05,-5.01726e-06,-2.27111e-05,8.08133e-06,-3.84084e-06,0
-2.79116e-05,1.029e-05,-2.67834e-05,3.25611e-05,-3.87648e-06,-2.15649e-05,9.01927e-06,-2.92783e-06,0
-2.54835e-05,9.80648e-06,-4.68749e-05,7.0835e-06,1.29514e-07,-1.88513e-05,1.09356e-05,-2.20854e-06,0
-2.4776e-05,9.3603e-06,-5.61037e-05,-1.03379e-05,8.76003e-06,-1.60425e-05,1.01621e-05,-2.60747e-06,0
-2.6972e-05,1.34427e-05,-5.27759e-05,-9.75231e-06,1.67702e-05,-1.45206e-05,8.35931e-06,-5.20824e-07,0
-2.99966e-05,1.96889e-05,-4.27917e-05,3.847e-06,1.98914e-05,-1.46667e-05,7.99968e-06,2.8781e-06,0
-3.02556e-05,2.05442e-05,-3.51641e-05,1.9181e-05,2.13621e-05,-1.37654e-05,7.2839e-06,3.14146e-06,0
-2.82397e-05,1.85264e-05,-3.06815e-05,2.99776e-05,2.38433e-05,-1.12153e-05,7.17737e-06,1.52995e-06,0
-2.61368e-05,2.01329e-05,-2.51656e-05,3.18511e-05,2.67325e-05,-9.31303e-06,8.96124e-06,-4.30522e-07,0
-2.61394e-05,2.02209e-05,-1.7859e-05,2.21171e-05,2.9156e-05,-1.05861e-05,1.16472e-05,-1.41547e-06,0
-2.859e-05,1.81633e-05,-9.25592e-06,4.71567e-06,3.10415e-05,-1.29925e-05,1.26943e-05,-3.73815e-07,0
-2.98071e-05,1.70451e-05,-3.36383e-06,-1.52332e-05,3.15187e-05,-1.50538e-05,1.06833e-05,1.67531e-06,0
-2.9717e-05,1.69728e-05,-1.54506e-06,-2.94987e-05,3.06184e-05,-1.50522e-05,5.94225e-06,3.32688e-06,0
-3.01347e-05,1.68566e-05,-2.32116e-06,-3.78343e-05,2.97959e-05,-1.29554e-05,2.38799e-06,3.41904e-06,0
-3.00138e-05,1.66701e-05,-4.08841e-06,-4.14282e-05,3.0087e-05,-1.04172e-05,3.94118e-06,2.67837e-06,0
-2.98622e-05,1.64719e-05,-5.83627e-06,-4.24817e-05,3.09241e-05,-8.98708e-06,8.62843e-06,2.89348e-06,0
-3.08738e-05,1.45377e-05,-7.46965e-06,-4.61616e-05,3.01668e-05,-8.46177e-06,1.2301e-05,4.56258e-06,0
-3.15824e-05,1.08606e-05,-8.67959e-06,-5.14357e-05,2.74858e-05,-7.37855e-06,1.3747e-05,6.15181e-06,0
-3.06682e-05,7.62242e-06,-8.73734e-06,-5.24772e-05,2.5711e-05,-7.20752e-06,1.62463e-05,5.20062e-06,0
-2.94772e-05,6.55801e-06,-8.33233e-06,-4.37861e-05,2.80187e-05,-8.36771e-06,2.15074e-05,3.96102e-06,0
-2.97553e-05,7.32587e-06,-9.12707e-06,-2.69837e-05,3.38516e-05,-9.71259e-06,2.78319e-05,4.66989e-06,0
-3.17675e-05,9.15705e-06,-1.02696e-05,-9.24999e-06,3.84693e-05,-9.03446e-06,3.09685e-05,6.82433e-06,0
-3.36416e-05,1.07793e-05,-1.07376e-05,1.54544e-06,3.97072e-05,-7.73965e-06,2.99556e-05,9.30178e-06,0
-3.39445e-05,1.18495e-05,-1.04342e-05,4.97833e-06,3.88312e-05,-8.25749e-06,2.58744e-05,1.01834e-05,0
-3.1972e-05,1.04825e-05,-1.15811e-05,4.40418e-06,3.77856e-05,-9.7521e-06,2.10995e-05,8.71058e-06,0
-2.93217e-05,4.62508e-06,-1.43879e-05,1.55598e-06,3.64146e-05,-1.03624e-05,1.78134e-05,6.56547e-06,0
-2.96227e-05,-4.96565e-06,-1.73154e-05,-5.38351e-06,3.28925e-05,-9.44748e-06,1.55597e-05,6.17576e-06,0
-3.20285e-05,-1.23281e-05,-1.84957e-05,-1.50673e-05,2.73667e-05,-7.10751e-06,1.40126e-05,6.89729e-06,0
-3.34191e-05,-1.13897e-05,-1.60039e-05,-2.21611e-05,2.45579e-05,-3.8474e-06,1.21431e-05,6.51188e-06,0
-3.32135e-05,-3.66048e-06,-9.46987e-06,-2.28841e-05,2.61012e-05,-3.11398e-06,7.32302e-06,5.26613e-06,0
-3.15425e-05,3.06456e-06,-1.92008e-06,-1.9097e-05,2.79883e-05,-4.90634e-06,2.28559e-06,5.11964e-06,0
-2.91769e-05,5.22876e-06,2.83845e-06,-1.49897e-05,2.85145e-05,-4.55469e-06,1.35138e-06,6.75426e-06,0
-2.83556e-05,6.55649e-06,2.08434e-06,-1.14183e-05,2.70449e-05,-7.84961e-07,3.13583e-06,7.56051e-06,0
-2.90634e-05,1.08194e-05,-1.68036e-06,-9.35835e-06,2.32468e-05,8.44639e-07,4.46255e-06,5.80113e-06,0
-2.92634e-05,2.19021e-05,-6.1103e-06,-7.67414e-06,1.95456e-05,9.81936e-07,3.52811e-06,4.75801e-06,0
-2.88181e-05,3.8321e-05,-1.07322e-05,-4.08838e-06,1.85322e-05,3.53913e-06,2.29161e-06,3.62448e-06,0
-2.81792e-05,4.86646e-05,-1.4211e-05,3.57345e-07,2.02547e-05,3.88758e-06,1.73136e-06,2.07188e-06,0
-2.98071e-05,4.58842e-05,-1.62018e-05,4.08296e-06,2.08376e-05,2.47711e-06,9.9416e-07,1.19318e-06,0
-3.1153e-05,3.40976e-05,-1.41721e-05,5.69405e-06,1.90304e-05,3.29332e-08,1.25431e-06,5.27786e-07,0
-3.03065e-05,2.11882e-05,-9.86195e-06,7.04627e-06,1.64018e-05,-1.78494e-06,-2.4595e-07,1.26353e-06,0
-3.01736e-05,8.45871e-06,-8.0155e-06,9.01325e-06,1.49482e-05,-1.26984e-06,-4.64054e-06,3.25232e-06,0
-3.05727e-05,-3.19265e-06,-9.32127e-06,8.24638e-06,1.53921e-05,1.65565e-07,-6.14599e-06,4.5581e-06,0
