ch1,ch2,ch3,ch4,ch5,ch6,ch7,ch8,class
-3.49975e-05,1.60255e-05,-1.303e-05,9.48414e-06,1.08545e-05,-9.45793e-06,1.53334e-05,-6.40098e-06,0
-3.3954e-05,1.76668e-05,-1.13472e-05,-2.06427e-07,9.30633e-06,-1.0402e-05,1.37405e-05,-6.07279e-06,0
-3.3293e-05,1.9017e-05,-1.10288e-05,-2.64333e-06,1.04272e-05,-9.31705e-06,1.04684e-05,-3.79855e-06,0
-3.42739e-05,1.82704e-05,-1.16413e-05,1.21718e-05,1.31976e-05,-7.6773e-06,6.29551e-06,-2.91268e-06,0
-3.42338e-05,1.99405e-05,-1.21944e-05,3.02123e-05,1.38437e-05,-6.87232e-06,3.77642e-06,-4.38658e-06,0
-3.275e-05,2.44267e-05,-1.15318e-05,3.24431e-05,1.1672e-05,-5.8014e-06,1.63251e-06,-4.47001e-06,0
-3.07841e-05,2.65039e-05,-8.56926e-06,2.24782e-05,1.1529e-05,-5.10414e-06,5.73123e-07,-1.46767e-06,0
-2.89561e-05,2.6415e-05,-5.04746e-06,6.38676e-06,1.13907e-05,-5.39065e-06,3.00135e-06,7.30148e-07,0
-2.79733e-05,2.59396e-05,-4.233e-06,-1.15371e-05,1.0115e-05,-4.28777e-06,7.87439e-06,1.80954e-06,0
-2.75526e-05,2.58224e-05,-6.04992e-06,-2.48963e-05,8.80015e-06,-2.54941e-06,1.15788e-05,4.00027e-06,0
-2.80319e-05,2.75282e-05,-8.89722e-06,-3.31253e-05,7.29512e-06,-2.70423e-06,1.29092e-05,5.21568e-06,0
-2.86616e-05,2.90614e-05,-1.1313e-05,-4.03009e-05,5.40447e-06,-4.58617e-06,1.30981e-05,3.70278e-06,0
-2.8443e-05,2.93494e-05,-1.143e-05,-4.50645e-05,3.87989e-06,-6.99389e-06,1.2824e-05,2.86968e-07,0
-2.81686e-05,2.95536e-05,-8.80299e-06,-4.6044e-05,3.62052e-06,-7.55662e-06,1.17792e-05,-8.20163e-07,0
-2.89967e-05,3.06117e-05,-5.46426e-06,-4.69206e-05,4.67515e-06,-5.99256e-06,1.17197e-05,2.81037e-07,0
-2.99762e-05,3.25085e-05,-2.52534e-06,-5.01201e-05,6.22911e-06,-4.05147e-06,1.36996e-05,-9.56844e-07,0
-2.99906e-05,3.29547e-05,-2.25788e-06,-5.28545e-05,6.18234e-06,-3.80899e-06,1.42383e-05,-3.82984e-06,0
-2.89712e-05,3.16882e-05,-4.68263e-06,-5.02721e-05,4.61635e-06,-5.79354e-06,1.18171e-05,-5.05134e-06,0
-2.77201e-05,3.08289e-05,-6.24563e-06,-4.12956e-05,4.74582e-06,-8.87708e-06,8.04493e-06,-3.8035e-06,0
-2.67463e-05,3.07224e-05,-6.58564e-06,-2.83476e-05,9.77984e-06,-1.15883e-05,5.94414e-06,-3.3809e-06,0
-2.67292e-05,3.0349e-05,-8.72319e-06,-1.80961e-05,1.6369e-05,-1.31344e-05,7.1137e-06,-4.13863e-06,0
-2.69196e-05,2.88262e-05,-1.24477e-05,-1.41618e-05,1.94518e-05,-1.32053e-05,1.07993e-05,-2.92625e-06,0
-2.66195e-05,2.62742e-05,-1.49785e-05,-1.27657e-05,1.90467e-05,-1.24863e-05,1.43833e-05,-1.63468e-08,0
-2.66183e-05,2.36564e-05,-1.56286e-05,-7.74622e-06,1.91437e-05,-1.23432e-05,1.51917e-05,2.05312e-06,0
-2.57767e-05,2.09474e-05,-1.56188e-05,5.45141e-07,2.00629e-05,-1.24802e-05,1.42536e-05,3.81724e-06,0
-2.44424e-05,1.75642e-05,-1.58525e-05,7.52906e-06,1.90979e-05,-1.32496e-05,1.3694e-05,6.135e-06,0
-2.46642e-05,1.48911e-05,-1.62253e-05,1.00374e-05,1.60172e-05,-1.34871e-05,1.16312e-05,7.3754e-06,0
-2.56149e-05,1.58618e-05,-1.51125e-05,1.07606e-05,1.36375e-05,-1.25447e-05,6.16019e-06,5.5781e-06,0
-2.57325e-05,1.97372e-05,-1.30127e-05,1.54877e-05,1.44533e-05,-1.15794e-05,1.77117e-06,1.62913e-06,0
-2.45485e-05,1.97861e-05,-1.12089e-05,2.21132e-05,1.76177e-05,-1.07581e-05,1.59277e-06,-4.16572e-07,0
-2.46939e-05,1.77339e-05,-8.56952e-06,2.40254e-05,1.91628e-05,-1.04333e-05,2.9414e-06,-6.74103e-07,0
-2.7894e-05,1.85169e-05,-6.39374e-06,2.12353e-05,1.70418e-05,-1.15647e-05,5.72803e-06,-1.4498e-06,0
-3.07379e-05,1.90366e-05,-5.19663e-06,1.63941e-05,1.32581e-05,-1.23078e-05,9.71301e-06,-1.52139e-06,0
-3.13118e-05,1.77514e-05,-5.12622e-06,1.15387e-05,1.16027e-05,-1.11481e-05,1.45252e-05,-1.95724e-06,0
-3.0815e-05,1.52503e-05,-5.69206e-06,9.12045e-06,1.28025e-05,-8.50195e-06,1.92018e-05,-3.05305e-06,0
-3.03004e-05,1.53805e-05,-7.38127e-06,6.57058e-06,1.36384e-05,-7.17862e-06,2.21005e-05,-3.48445e-06,0
-2.99917e-05,1.73296e-05,-9.40224e-06,2.23118e-06,1.3452e-05,-8.11538e-06,2.31261e-05,-3.22484e-06,0
-3.04669e-05,1.77501e-05,-1.17978e-05,-5.22593e-07,1.39067e-05,-9.4537e-06,2.23155e-05,-2.40264e-06,0
-3.10905e-05,1.69915e-05,-1.48168e-05,6.9928e-07,1.67928e-05,-9.56583e-06,2.60257e-05,-1.63905e-06,0
-3.15719e-05,1.54475e-05,-1.56394e-05,2.75103e-06,2.0618e-05,-8.40188e-06,3.79749e-05,-1.75017e-06,0
-3.13234e-05,1.37153e-05,-1.53192e-05,2.5539e-06,2.17775e-05,-7.49164e-06,5.12075e-05,-1.73984e-06,0
-2.88145e-05,1.17377e-05,-1.3846e-05,-7.85475e-07,2.05878e-05,-7.49647e-06,5.75548e-05,-3.66088e-07,0
-2.53804e-05,1.01777e-05,-1.11885e-05,-5.22053e-06,2.04196e-05,-8.26897e-06,5.64631e-05,-3.17028e-08,0
-2.5124e-05,1.01444e-05,-9.13197e-06,-8.09711e-06,2.09545e-05,-9.02219e-06,4.95234e-05,-5.58815e-07,0
-2.80644e-05,1.12375e-05,-9.29534e-06,-8.76888e-06,2.00294e-05,-1.0672e-05,3.81131e-05,-1.82065e-07,0
-3.07464e-05,1.03563e-05,-1.04453e-05,-5.51611e-06,1.74346e-05,-1.29664e-05,2.39545e-05,5.00817e-07,0
-3.11203e-05,7.76906e-06,-1.11944e-05,3.04686e-06,1.49531e-05,-1.37229e-05,8.95098e-06,-2.51665e-07,0
-2.91891e-05,7.24886e-06,-1.05651e-05,1.25373e-05,1.32013e-05,-1.24975e-05,-5.82198e-06,-2.00017e-06,0
-2.70772e-05,8.4654e-06,-8.39182e-06,1.65266e-05,1.18681e-05,-1.13765e-05,-1.88164e-05,-2.19594e-06,0
-2.61572e-05,8.09978e-06,-7.2121e-06,1.5281e-05,1.23221e-05,-1.02775e-05,-2.70333e-05,-6.73289e-07,0
-2.71648e-05,6.94938e-06,-6.76074e-06,1.29943e-05,1.62336e-05,-8.61982e-06,-2.79664e-05,2.29802e-07,0
-2.87444e-05,7.39795e-06,-4.86022e-06,1.21535e-05,2.02457e-05,-6.68561e-06,-2.19935e-05,1.91396e-08,0
-2.91807e-05,8.56359e-06,-3.80981e-06,1.17931e-05,1.90027e-05,-5.72392e-06,-1.5762e-05,-1.63292e-07,0
-2.81441e-05,8.64911e-06,-4.80495e-06,8.48505e-06,1.40895e-05,-6.95501e-06,-1.20884e-05,1.27509e-06,0
-2.69928e-05,7.86849e-06,-7.09266e-06,-9.87897e-07,9.35943e-06,-9.73426e-06,-8.8056e-06,4.24236e-06,0
-2.67445e-05,5.82619e-06,-9.70268e-06,-1.47382e-05,7.48473e-06,-1.18302e-05,-4.04626e-06,5.35684e-06,0
-2.6922e-05,3.25161e-06,-1.14101e-05,-2.73623e-05,5.96446e-06,-1.2943e-05,8.81e-07,3.85784e-06,0
-2.70988e-05,8.66618e-07,-1.38546e-05,-3.15534e-05,1.12375e-06,-1.3345e-05,3.00195e-06,3.15665e-06,0
-2.74773e-05,-1.4731e-06,-1.4729e-05,-2.88674e-05,-3.02532e-06,-1.17945e-05,4.77589e-06,2.7337e-06,0
-2.86625e-05,-3.79295e-06,-1.4015e-05,-2.80612e-05,-3.64097e-06,-1.02707e-05,8.56556e-06,1.17405e-06,0
-2.81026e-05,-5.36504e-06,-1.19375e-05,-2.82101e-05,-3.20365e-06,-1.09875e-05,1.18651e-05,2.92161e-07,0
-2.67532e-05,-3.27894e-06,-9.26615e-06,-2.69126e-05,-2.55236e-06,-1.18937e-05,1.1124e-05,1.27573e-06,0
-2.6021e-05,1.05817e-06,-8.28104e-06,-2.59457e-05,-8.00531e-07,-1.07835e-05,8.17218e-06,3.48787e-06,0
-2.5589e-05,3.77629e-06,-8.04016e-06,-2.60613e-05,1.5254e-06,-9.76273e-06,7.15583e-06,3.94498e-06,0
-2.71979e-05,3.88084e-06,-8.05631e-06,-2.67938e-05,4.63903e-06,-9.58333e-06,7.26043e-06,3.33297e-06,0
-2.90845e-05,3.48732e-06,-7.1571e-06,-2.76552e-05,7.14736e-06,-9.28047e-06,7.73664e-06,3.03554e-06,0
-2.90269e-05,5.44455e-06,-3.97512e-06,-2.63487e-05,9.9369e-06,-8.97066e-06,9.82604e-06,1.61653e-06,0
-2.83284e-05,9.39656e-06,3.85441e-07,-1.70989e-05,1.5113e-05,-7.92434e-06,1.22587e-05,6.2957e-07,0
-2.885e-05,1.25664e-05,4.45912e-06,2.70215e-06,2.056e-05,-6.02295e-06,1.44638e-05,1.93477e-06,0
-3.00634e-05,1.36974e-05,6.45417e-06,2.71768e-05,2.24965e-05,-4.83746e-06,1.64556e-05,3.16453e-06,0
-3.15043e-05,1.30684e-05,3.37322e-06,4.15076e-05,1.91607e-05,-4.52847e-06,1.62391e-05,3.73652e-06,0
-3.19064e-05,1.21644e-05,-4.87498e-06,3.57837e-05,1.44999e-05,-4.89635e-06,1.00341e-05,5.33151e-06,0
-3.06493e-05,1.21258e-05,-1.21842e-05,1.73698e-05,1.08511e-05,-5.55995e-06,-4.83551e-06,6.83678e-06,0
-2.88212e-05,1.26167e-05,-1.38607e-05,1.56748e-06,8.987e-06,-5.57309e-06,-2.06391e-05,6.41369e-06,0
-2.81995e-05,1.28572e-05,-1.27414e-05,-4.14525e-06,1.01369e-05,-5.2221e-06,-2.6775e-05,5.13879e-06,0
-2.90721e-05,1.36656e-05,-1.20351e-05,-3.21086e-06,1.24213e-05,-5.67159e-06,-2.16548e-05,4.67895e-06,0
-3.05435e-05,1.53141e-05,-1.23834e-05,-1.75541e-06,1.3098e-05,-7.34259e-06,-1.11353e-05,4.6799e-06,0
-3.16614e-05,1.52479e-05,-1.16895e-05,-2.30146e-06,1.26054e-05,-8.58393e-06,8.27242e-07,4.87175e-06,0
-3.15726e-05,1.48763e-05,-8.11528e-06,-1.86688e-06,1.22843e-05,-8.87016e-06,1.45341e-05,6.57079e-06,0
-3.14985e-05,1.64296e-05,-4.36451e-06,-2.67301e-07,1.25156e-05,-9.757e-06,2.95658e-05,9.24812e-06,0
-3.22333e-05,1.81046e-05,-2.33763e-06,-1.35088e-06,1.21341e-05,-1.08495e-05,4.18437e-05,1.17794e-05,0
-3.2136e-05,1.84224e-05,4.33862e-08,-5.83624e-06,1.02151e-05,-1.08969e-05,4.75035e-05,1.32293e-05,0
-3.08058e-05,1.79048e-05,1.46646e-06,-1.06784e-05,8.32185e-06,-1.00292e-05,4.8105e-05,1.26914e-05,0
-3.05063e-05,1.94969e-05,1.95119e-06,-1.50923e-05,9.5056e-06,-1.08932e-05,4.69655e-05,1.0864e-05,0
-3.12412e-05,2.07222e-05,2.07016e-06,-1.72094e-05,1.23325e-05,-1.37654e-05,4.56698e-05,9.5547e-06,0
-3.09677e-05,1.90293e-05,1.33194e-06,-1.51027e-05,1.35816e-05,-1.49e-05,4.43747e-05,9.73533e-06,0
-3.04455e-05,1.62772e-05,7.50333e-07,-1.0856e-05,1.44325e-05,-1.41775e-05,4.24799e-05,9.1217e-06,0
-3.14586e-05,1.44691e-05,-1.57065e-07,-7.86209e-06,1.58114e-05,-1.31481e-05,3.49158e-05,6.70572e-06,0
-3.22167e-05,1.34124e-05,-1.27195e-06,-7.50167e-06,1.59673e-05,-1.2889e-05,1.76344e-05,3.65116e-06,0
-3.1771e-05,1.12901e-05,-1.52539e-06,-8.7165e-06,1.41743e-05,-1.31677e-05,-1.44481e-06,1.90696e-06,0
-3.07015e-05,9.60295e-06,-2.70704e-06,-1.25919e-05,1.25552e-05,-1.29548e-05,-1.1983e-05,1.79736e-06,0
-3.00838e-05,9.21148e-06,-5.01656e-06,-1.77893e-05,1.23219e-05,-1.26327e-05,-1.21855e-05,1.76331e-06,0
-2.95937e-05,9.72232e-06,-6.42007e-06,-2.29399e-05,1.40352e-05,-1.30549e-05,-4.71415e-06,9.17064e-07,0
-2.858e-05,9.02621e-06,-6.57946e-06,-2.33627e-05,1.42666e-05,-1.30233e-05,5.73414e-06,-1.93901e-07,0
-2.69577e-05,6.08618e-06,-5.4303e-06,-1.48587e-05,1.22456e-05,-1.14121e-05,1.60366e-05,-1.66738e-06,0
-2.4933e-05,2.46835e-06,-4.49352e-06,-1.69502e-06,9.86299e-06,-1.02438e-05,2.53912e-05,-2.15348e-06,0
-2.40441e-05,7.09437e-07,-5.02889e-06,9.59084e-06,8.39749e-06,-1.08698e-05,3.15272e-05,-8.80503e-07,0
-2.5784e-05,1.29227e-06,-7.90951e-06,1.70703e-05,8.7766e-06,-1.1936e-05,3.36554e-05,9.81264e-07,0
-2.89735e-05,3.25297e-06,-1.16337e-05,2.16955e-05,9.20545e-06,-1.23097e-05,3.49156e-05,3.06422e-06,0
-3.12984e-05,4.55832e-06,-1.34439e-05,2.32509e-05,8.19903e-06,-1.22516e-05,3.60087e-05,3.68624e-06,0
-3.19861e-05,4.19837e-06,-1.28006e-05,2.13651e-05,7.05338e-06,-1.22473e-05,3.40144e-05,2.0078e-06,0
-3.2036e-05,3.52655e-06,-1.26829e-05,1.77822e-05,7.47661e-06,-1.32507e-05,2.92308e-05,8.48957e-07,0
-3.28602e-05,3.33694e-06,-1.37082e-05,1.76195e-05,7.56281e-06,-1.43905e-05,2.53391e-05,2.72318e-06,0
-3.30775e-05,5.06449e-06,-1.2383e-05,2.12783e-05,6.0638e-06,-1.44369e-05,2.45962e-05,4.90777e-06,0
-3.27893e-05,8.70825e-06,-7.09537e-06,2.36774e-05,3.51263e-06,-1.41317e-05,2.52395e-05,4.684e-06,0
-3.25132e-05,9.38576e-06,-5.20001e-07,2.18975e-05,1.65287e-06,-1.34288e-05,2.47859e-05,2.56376e-06,0
-3.26779e-05,5.06445e-06,5.55525e-06,1.77505e-05,1.12895e-06,-1.19551e-05,2.41481e-05,1.10911e-06,0
-3.30922e-05,6.30635e-07,1.44689e-05,1.17301e-05,1.86772e-06,-1.11096e-05,2.46023e-05,-1.46377e-06,0
-3.30395e-05,-1.16557e-06,2.95e-05,2.56708e-06,3.48075e-06,-1.14537e-05,2.38984e-05,-5.55993e-06,0
-3.29349e-05,5.98996e-07,4.88067e-05,-7.65998e-06,5.05152e-06,-1.27224e-05,2.08093e-05,-5.83502e-06,0
-3.32831e-05,4.068e-06,6.83662e-05,-1.8314e-05,7.64846e-06,-1.36332e-05,1.62406e-05,-3.66067e-06,0
-3.29667e-05,6.1844e-06,7.63872e-05,-2.84603e-05,7.98964e-06,-1.22521e-05,1.18194e-05,-3.67669e-06,0
-3.15595e-05,5.06793e-06,6.44253e-05,-3.47474e-05,6.84838e-06,-9.9366e-06,8.95195e-06,-5.38804e-06,0
-2.98826e-05,-1.21088e-08,3.41616e-05,-3.96143e-05,8.32891e-06,-7.62011e-06,8.41771e-06,-5.46402e-06,0
-2.89612e-05,-4.91373e-06,-9.17472e-06,-4.45173e-05,9.99224e-06,-6.7516e-06,9.5078e-06,-2.95595e-06,0
-3.00285e-05,-7.98927e-06,-5.27068e-05,-4.7655e-05,1.25134e-05,-8.34349e-06,8.6192e-06,-3.29539e-07,0
-3.06418e-05,-1.04521e-05,-8.52904e-05,-4.57315e-05,1.39165e-05,-9.93234e-06,6.6482e-06,1.47143e-06,0
-3.03891e-05,-1.15103e-05,-9.77984e-05,-3.77299e-05,1.35417e-05,-1.00473e-05,4.36861e-06,3.1968e-06,0
-3.04021e-05,-1.09009e-05,-9.33206e-05,-2.82248e-05,1.44168e-05,-9.27749e-06,3.04798e-06,5.45816e-06,0
-3.08317e-05,-8.78771e-06,-8.02206e-05,-2.41422e-05,1.7089e-05,-9.44667e-06,3.63627e-06,6.90795e-06,0
-3.15024e-05,-6.56958e-06,-6.66361e-05,-2.53262e-05,1.94782e-05,-1.05263e-05,4.70666e-06,6.56904e-06,0
-3.24552e-05,-4.2192e-06,-5.67795e-05,-2.56591e-05,1.86695e-05,-1.15885e-05,4.92209e-06,5.256e-06,0
-3.3623e-05,-1.54207e-06,-4.73945e-05,-2.32167e-05,1.50428e-05,-1.17662e-05,4.25151e-06,2.26081e-06,0
-3.3932e-05,1.32709e-06,-3.59189e-05,-1.94598e-05,1.25365e-05,-1.25668e-05,4.71576e-06,-1.39208e-06,0
-3.37368e-05,4.48741e-06,-2.41779e-05,-1.57525e-05,1.26699e-05,-1.48343e-05,6.2637e-06,-3.40206e-06,0
-3.41664e-05,7.62955e-06,-1.64161e-05,-1.13328e-05,1.36938e-05,-1.63577e-05,8.47311e-06,-3.17704e-06,0
-3.46976e-05,1.02358e-05,-1.13035e-05,-8.13076e-06,1.56064e-05,-1.64226e-05,1.05804e-05,-2.31559e-06,0
-3.39174e-05,1.19316e-05,-7.80982e-06,-6.46125e-06,1.82771e-05,-1.57507e-05,1.2621e-05,-1.91587e-06,0
-3.22147e-05,1.40911e-05,-5.36452e-06,-3.27413e-06,1.98672e-05,-1.54482e-05,1.49e-05,-2.03121e-06,0
-3.15572e-05,1.72408e-05,-4.59699e-06,3.56567e-06,1.80038e-05,-1.6073e-05,1.76305e-05,-2.11415e-06,0
-3.25504e-05,2.02614e-05,-3.55237e-06,1.25869e-05,1.4811e-05,-1.73562e-05,1.9112e-05,-1.82751e-06,0
-3.18798e-05,2.20215e-05,-7.50777e-07,2.20405e-05,1.33011e-05,-1.77712e-05,1.74454e-05,-1.5922e-06,0
-2.87337e-05,2.24042e-05,1.98474e-06,2.82037e-05,1.37254e-05,-1.68176e-05,1.44552e-05,-9.21833e-07,0
-2.61125e-05,2.09884e-05,2.48639e-06,2.6979e-05,1.47406e-05,-1.52659e-05,1.45786e-05,9.93435e-07,0
-2.57903e-05,1.9211e-05,1.9771e-06,1.95291e-05,1.64556e-05,-1.41599e-05,1.66842e-05,3.86263e-06,0
-2.60527e-05,1.79645e-05,1.30516e-06,1.02986e-05,1.70505e-05,-1.26206e-05,1.62396e-05,6.30066e-06,0
-2.59867e-05,1.94382e-05,1.51033e-06,1.39985e-06,1.6724e-05,-9.88117e-06,1.18545e-05,6.14915e-06,0
-2.5358e-05,2.39519e-05,2.63897e-06,-1.08858e-05,1.75175e-05,-7.67462e-06,5.82745e-06,4.01606e-06,0
-2.45062e-05,2.6106e-05,2.71912e-06,-2.31621e-05,1.9552e-05,-6.40051e-06,1.41733e-06,4.25785e-06,0
-2.49077e-05,2.18719e-05,1.52439e-06,-2.89241e-05,2.07335e-05,-4.96973e-06,-1.33111e-06,6.12088e-06,0
-2.57855e-05,1.38326e-05,-1.55022e-06,-3.0903e-05,1.9193e-05,-4.59102e-06,-1.92021e-06,6.32904e-06,0
-2.67882e-05,9.19333e-06,-3.3002e-06,-3.18585e-05,1.82158e-05,-5.02036e-06,-3.5205e-07,4.97043e-06,0
-2.86271e-05,8.88173e-06,-1.81537e-06,-3.38906e-05,1.97162e-05,-5.11076e-06,2.74592e-07,4.64706e-06,0
-2.94335e-05,1.08343e-05,1.07359e-06,-3.206e-05,2.04432e-05,-5.67054e-06,6.28894e-07,5.93849e-06,0
-2.87633e-05,1.259e-05,4.04906e-06,-1.69831e-05,1.88674e-05,-6.90553e-06,1.82087e-06,6.5035e-06,0
-2.95422e-05,1.39631e-05,4.04733e-06,5.92523e-06,1.71463e-05,-7.64075e-06,3.04968e-06,5.1893e-06,0
-3.04294e-05,1.35912e-05,-1.15496e-06,1.96505e-05,1.50926e-05,-7.57905e-06,3.75562e-06,3.17891e-06,0
-3.05452e-05,1.07204e-05,-7.62038e-06,2.02351e-05,1.37409e-05,-7.85956e-06,3.82518e-06,2.5344e-06,0
-3.02995e-05,7.56751e-06,-1.02622e-05,1.53728e-05,1.22803e-05,-8.26322e-06,3.65383e-06,2.99474e-06,0
-3.02021e-05,4.11121e-06,-9.00084e-06,1.20163e-05,1.08378e-05,-1.0274e-05,3.84672e-06,3.91945e-06,0
-3.0088e-05,2.12596e-06,-6.72527e-06,1.33367e-05,1.12153e-05,-1.27097e-05,5.70336e-06,3.93298e-06,0
-3.01894e-05,6.63943e-06,-6.19731e-06,1.53341e-05,1.31211e-05,-1.25307e-05,7.48186e-06,2.64561e-06,0
-3.12012e-05,2.21662e-05,-8.69724e-06,1.5161e-05,1.48383e-05,-9.83868e-06,7.84831e-06,6.38692e-07,0
-3.23398e-05,4.21397e-05,-1.18449e-05,1.19586e-05,1.50287e-05,-7.82042e-06,6.60244e-06,-1.45141e-06,0
-3.30647e-05,5.77492e-05,-1.2457e-05,7.16075e-06,1.50638e-05,-8.40594e-06,4.90055e-06,-2.43591e-06,0
-3.31556e-05,6.63278e-05,-1.01148e-05,2.20503e-06,1.59957e-05,-1.0059e-05,4.83635e-06,-1.43252e-06,0
-3.37051e-05,6.89142e-05,-7.14177e-06,-1.06919e-06,1.66771e-05,-1.16941e-05,7.32825e-06,1.59548e-06,0
-3.42888e-05,6.43845e-05,-5.13847e-06,-2.28203e-06,1.67806e-05,-1.32546e-05,1.0146e-05,3.95172e-06,0
-3.27701e-05,4.99049e-05,-4.56545e-06,-3.39976e-06,1.80796e-05,-1.36833e-05,1.20167e-05,4.32824e-06,0
-3.03317e-05,2.62704e-05,-4.83105e-06,-5.93834e-06,2.06152e-05,-1.17365e-05,1.3499e-05,3.24617e-06,0
-3.12205e-05,-1.63301e-06,-5.73939e-06,-7.67485e-06,2.30241e-05,-8.032e-06,1.3883e-05,7.90189e-07,0
-3.42346e-05,-2.77143e-05,-6.99318e-06,-7.76632e-06,2.27999e-05,-5.56094e-06,1.2918e-05,-1.59593e-06,0
-3.54806e-05,-4.87553e-05,-8.82531e-06,-7.90835e-06,1.98209e-05,-6.05267e-06,1.19413e-05,-3.75397e-06,0
-3.53675e-05,-6.13054e-05,-1.14859e-05,-8.75877e-06,1.81495e-05,-7.08244e-06,1.11593e-05,-6.03353e-06,0
-3.53144e-05,-6.30048e-05,-1.41489e-05,-1.22946e-05,2.00441e-05,-8.41424e-06,1.16895e-05,-7.44656e-06,0
-3.44107e-05,-5.54395e-05,-1.59816e-05,-1.55266e-05,1.8953e-05,-9.47334e-06,1.36841e-05,-7.11298e-06,0
-3.35039e-05,-4.49806e-05,-1.75521e-05,-1.357e-05,1.40414e-05,-1.11199e-05,1.43068e-05,-6.34294e-06,0
-3.33857e-05,-3.70086e-05,-1.92431e-05,-8.09372e-06,1.0692e-05,-1.39955e-05,1.3365e-05,-6.07445e-06,0
-3.37599e-05,-3.24513e-05,-1.86772e-05,-4.78629e-06,1.01534e-05,-1.6387e-05,1.22992e-05,-4.72803e-06,0
-3.39531e-05,-2.94378e-05,-1.54853e-05,-6.41017e-06,1.22293e-05,-1.72892e-05,1.17296e-05,-3.72909e-06,0
-3.29075e-05,-2.25013e-05,-1.19035e-05,-7.49792e-06,1.31312e-05,-1.61627e-05,1.13392e-05,-3.83922e-06,0
-3.19135e-05,-1.21948e-05,-9.22351e-06,-5.11956e-06,1.37323e-05,-1.49283e-05,1.02346e-05,-3.75928e-06,0
-3.31807e-05,-1.48137e-06,-6.57736e-06,-1.84108e-06,1.44903e-05,-1.40203e-05,9.07605e-06,-3.37732e-06,0
-3.41762e-05,9.45853e-06,-3.84464e-06,7.84408e-07,1.3708e-05,-1.24587e-05,9.12854e-06,-2.92532e-06,0
-3.1993e-05,1.75177e-05,-1.93743e-06,3.13136e-06,1.3971e-05,-1.06782e-05,9.37834e-06,-1.44398e-06,0
-2.93221e-05,2.14838e-05,-2.33784e-06,7.29249e-06,1.6404e-05,-9.815e-06,9.75534e-06,4.9568e-07,0
-2.82511e-05,2.25006e-05,-3.65924e-06,1.28745e-05,1.95381e-05,-1.07997e-05,1.05737e-05,1.27845e-06,0
-2.89497e-05,2.1911e-05,-4.17965e-06,1.70751e-05,2.11082e-05,-1.32194e-05,1.14908e-05,2.40936e-07,0
-3.0604e-05,2.2169e-05,-3.88628e-06,1.70409e-05,2.13207e-05,-1.40809e-05,1.1252e-05,-9.68421e-07,0
-3.31137e-05,2.55161e-05,-3.17525e-06,1.40794e-05,2.11357e-05,-1.24931e-05,1.09396e-05,-1.28356e-06,0
-3.54497e-05,3.05908e-05,-3.09781e-06,1.00367e-05,2.02705e-05,-1.0922e-05,1.16657e-05,-1.79321e-06,0
-3.58092e-05,3.48815e-05,-3.57192e-06,5.53558e-06,1.84e-05,-1.03817e-05,1.30947e-05,-1.94539e-06,0
-3.40875e-05,3.8012e-05,-3.84098e-06,2.69764e-07,1.52753e-05,-1.0656e-05,1.40487e-05,-1.65785e-06,0
-3.24593e-05,3.99962e-05,-3.43946e-06,-4.37042e-06,1.08035e-05,-1.08828e-05,1.28714e-05,-2.68232e-06,0
-3.16498e-05,4.00641e-05,-2.53414e-06,-7.04344e-06,7.03613e-06,-9.81069e-06,1.10189e-05,-4.20291e-06,0
-3.14471e-05,4.01242e-05,-1.39675e-06,-7.68084e-06,7.78233e-06,-7.70132e-06,1.06128e-05,-4.82038e-06,0
-3.12426e-05,4.09092e-05,-9.86414e-07,-5.30705e-06,1.16793e-05,-5.90657e-06,1.16126e-05,-5.89184e-06,0
-2.99779e-05,4.23294e-05,-2.45745e-06,2.31278e-06,1.41051e-05,-5.552e-06,1.23946e-05,-6.30601e-06,0
-2.96336e-05,4.31994e-05,-5.37644e-06,1.53705e-05,1.36764e-05,-5.94389e-06,1.11567e-05,-5.85835e-06,0
-2.98508e-05,4.14003e-05,-7.57408e-06,2.70709e-05,1.2858e-05,-6.76863e-06,8.10964e-06,-4.87999e-06,0
-3.07886e-05,3.92634e-05,-8.28271e-06,2.97011e-05,1.41617e-05,-7.27197e-06,6.22443e-06,-3.6614e-06,0
-3.29009e-05,3.70719e-05,-6.81693e-06,2.40487e-05,1.5613e-05,-5.80753e-06,5.91996e-06,-1.77923e-06,0
-3.3204e-05,3.65071e-05,-5.66548e-06,1.61401e-05,1.40297e-05,-4.13907e-06,7.29163e-06,-1.29041e-06,0
-3.09287e-05,3.9488e-05,-5.77259e-06,8.86516e-06,1.18024e-05,-4.37156e-06,9.38306e-06,-1.6881e-06,0
-2.71023e-05,4.22021e-05,-5.53203e-06,-2.29769e-07,1.14269e-05,-5.35443e-06,1.00768e-05,-1.37075e-06,0
-2.40418e-05,4.1654e-05,-4.86421e-06,-1.02433e-05,1.08418e-05,-6.04173e-06,8.65521e-06,-1.96709e-06,0
-2.41238e-05,3.88071e-05,-2.9664e-06,-1.63381e-05,9.14494e-06,-6.02585e-06,6.51648e-06,-2.98727e-06,0
-2.56899e-05,3.57899e-05,-9.76139e-07,-1.90177e-05,6.22799e-06,-5.60244e-06,7.31861e-06,-3.14031e-06,0
-2.59122e-05,3.23844e-05,9.49743e-07,-2.15129e-05,3.23156e-06,-4.54818e-06,8.60033e-06,1.4127e-08,0
-2.56232e-05,2.97675e-05,2.13445e-06,-2.50215e-05,2.80831e-06,-3.35652e-06,7.99769e-06,4.05396e-06,0
-2.55446e-05,2.87723e-05,2.23493e-06,-2.5681e-05,4.34278e-06,-4.15698e-06,7.43966e-06,6.70619e-06,0
-2.52974e-05,2.75583e-05,1.16259e-06,-2.31773e-05,7.29596e-06,-5.32055e-06,8.78026e-06,7.47702e-06,0
-2.60286e-05,2.50497e-05,4.31445e-07,-2.3531e-05,1.14167e-05,-5.78698e-06,1.12522e-05,7.54128e-06,0
-2.70593e-05,2.11729e-05,1.34765e-06,-2.89529e-05,1.38185e-05,-5.3505e-06,1.27984e-05,6.43508e-06,0
-2.73194e-05,1.68153e-05,1.66787e-06,-3.42673e-05,1.33253e-05,-4.26487e-06,1.34722e-05,3.73318e-06,0
-2.72929e-05,1.40963e-05,8.81438e-07,-3.35818e-05,1.23369e-05,-3.91237e-06,1.46809e-05,1.28915e-06,0
-2.79125e-05,1.43013e-05,-2.65953e-07,-2.7794e-05,1.30075e-05,-4.83096e-06,1.70909e-05,-3.14131e-07,0
-2.84226e-05,1.47793e-05,-1.07377e-06,-2.19801e-05,1.46678e-05,-6.83897e-06,1.97422e-05,-3.49719e-07,0
-2.85221e-05,1.24707e-05,-3.24604e-06,-1.90535e-05,1.58391e-05,-8.76984e-06,2.16639e-05,5.48771e-07,0
-2.873e-05,8.27823e-06,-6.75651e-06,-1.86967e-05,1.53796e-05,-9.4471e-06,2.22853e-05,9.29391e-07,0
-2.94657e-05,6.93538e-06,-9.35686e-06,-1.86783e-05,1.43794e-05,-8.64196e-06,2.15989e-05,4.91703e-07,0
-3.02387e-05,9.53864e-06,-1.01815e-05,-1.73677e-05,1.51216e-05,-6.86276e-06,2.00343e-05,5.84109e-07,0
-2.92953e-05,1.18318e-05,-1.00433e-05,-1.49202e-05,1.6196e-05,-4.83418e-06,1.96533e-05,8.59435e-07,0
-2.81768e-05,1.18404e-05,-1.03865e-05,-1.26833e-05,1.51872e-05,-4.10089e-06,1.85992e-05,1.14375e-06,0
-2.88069e-05,1.19026e-05,-9.91133e-06,-1.32982e-05,1.35066e-05,-4.57369e-06,1.34176e-05,8.1196e-07,0
-2.92564e-05,1.24595e-05,-8.87798e-06,-1.7769e-05,1.22706e-05,-5.41064e-06,5.1812e-06,-7.94379e-07,0
-2.7996e-05,1.30675e-05,-9.86015e-06,-2.26936e-05,1.09506e-05,-6.44648e-06,4.72276e-08,-2.79464e-06,0
-2.86467e-05,1.59378e-05,-1.24739e-05,-2.42815e-05,8.19994e-06,-6.92346e-06,9.97486e-07,-3.79981e-06,0
-3.12601e-05,2.00023e-05,-1.47584e-05,-2.23082e-05,3.78504e-06,-7.53399e-06,6.53988e-06,-2.94829e-06,0
-3.25521e-05,2.12202e-05,-1.56136e-05,-1.93586e-05,9.02079e-07,-9.31539e-06,1.42507e-05,-2.21768e-06,0
-3.25641e-05,2.11861e-05,-1.65934e-05,-1.67398e-05,-4.70697e-08,-1.10991e-05,2.214e-05,-1.69918e-06,0
-3.03493e-05,2.04376e-05,-1.98153e-05,-1.44057e-05,-1.17759e-06,-1.21351e-05,2.74358e-05,-4.14121e-07,0
-2.86665e-05,1.92865e-05,-2.46337e-05,-1.07832e-05,-9.29584e-07,-1.17952e-05,2.68753e-05,4.4736e-07,0
-2.90504e-05,1.89616e-05,-2.83449e-05,-5.55421e-06,1.02173e-06,-1.05017e-05,2.28298e-05,7.42343e-07,0
-2.86723e-05,1.79665e-05,-2.83032e-05,-8.37931e-07,2.71184e-06,-9.04863e-06,1.78417e-05,1.03057e-06,0
-2.7196e-05,1.75214e-05,-2.52327e-05,5.71067e-06,4.7778e-06,-8.79929e-06,1.48077e-05,2.15905e-06,0
-2.71199e-05,1.74345e-05,-2.07963e-05,1.43762e-05,8.00449e-06,-8.95689e-06,1.43847e-05,2.21602e-06,0
-2.81778e-05,1.70275e-05,-1.7045e-05,1.75922e-05,1.44426e-05,-8.00531e-06,1.42583e-05,8.13604e-07,0
-2.7783e-05,1.45793e-05,-1.47077e-05,7.31048e-06,2.39242e-05,-6.54315e-06,1.28664e-05,-1.17918e-06,0
-2.81949e-05,1.07662e-05,-1.343e-05,-1.2199e-05,3.11693e-05,-4.33872e-06,1.18034e-05,-6.39849e-07,0
-2.93445e-05,7.04009e-06,-1.23221e-05,-2.77312e-05,3.08625e-05,-2.90447e-06,1.27664e-05,2.70625e-06,0
-2.94937e-05,4.62231e-06,-1.11461e-05,-3.19702e-05,2.47762e-05,-3.00105e-06,1.38314e-05,5.46508e-06,0
-2.95453e-05,4.1616e-06,-1.0336e-05,-2.73414e-05,1.93505e-05,-4.01338e-06,1.47836e-05,5.48104e-06,0
-3.01953e-05,4.83859e-06,-9.77365e-06,-2.17752e-05,1.74824e-05,-4.64494e-06,2.05591e-05,3.81627e-06,0
-3.05035e-05,5.7251e-06,-9.4783e-06,-1.78443e-05,1.69896e-05,-5.13587e-06,3.22893e-05,3.58529e-06,0
-3.06309e-05,6.14683e-06,-8.87288e-06,-9.94194e-06,1.57405e-05,-6.69061e-06,4.25687e-05,4.08503e-06,0
-3.10815e-05,6.65092e-06,-7.81666e-06,8.97942e-06,1.40849e-05,-9.46715e-06,4.52932e-05,3.83977e-06,0
-3.04596e-05,6.76011e-06,-7.22703e-06,3.65588e-05,1.27109e-05,-1.10395e-05,3.99669e-05,2.15145e-06,0
-2.86789e-05,6.82452e-06,-8.55233e-06,5.94238e-05,1.31318e-05,-1.03031e-05,3.06312e-05,8.85588e-07,0
-2.70382e-05,7.94445e-06,-1.00844e-05,6.54182e-05,1.62919e-05,-9.5932e-06,1.94895e-05,6.83022e-07,0
-2.54607e-05,1.05663e-05,-9.09883e-06,5.61285e-05,2.05042e-05,-9.49319e-06,7.02384e-06,1.74718e-06,0
-2.48695e-05,1.15576e-05,-6.87295e-06,4.21198e-05,2.19976e-05,-9.05154e-06,-4.02782e-06,1.60466e-06,0
-2.5938e-05,9.0614e-06,-5.91869e-06,2.84426e-05,1.98175e-05,-7.43985e-06,-1.21612e-05,-7.99694e-07,0
-2.73908e-05,6.38335e-06,-5.84094e-06,1.73174e-05,1.60596e-05,-7.10062e-06,-1.61508e-05,-3.49526e-06,0
-2.8529e-05,7.55507e-06,-5.89951e-06,1.02487e-05,1.33158e-05,-8.20115e-06,-1.56447e-05,-3.70867e-06,0
-2.82695e-05,1.14415e-05,-5.72112e-06,5.90386e-06,1.26428e-05,-9.34266e-06,-1.24074e-05,-2.00638e-06,0
-2.82697e-05,1.22962e-05,-5.29733e-06,3.40188e-06,1.27096e-05,-9.74157e-06,-7.31421e-06,-1.98431e-06,0
-2.89469e-05,1.04845e-05,-5.40289e-06,1.3306e-06,1.20001e-05,-1.01961e-05,-1.18555e-06,-3.33463e-06,0
-2.93031e-05,9.10363e-06,-7.07673e-06,-1.09874e-07,1.14044e-05,-1.22502e-05,4.47961e-06,-3.46595e-06,0
-2.92789e-05,9.27491e-06,-9.11658e-06,2.21856e-06,1.10855e-05,-1.20718e-05,7.6519e-06,-2.23317e-06,0
-2.95043e-05,1.08569e-05,-8.74078e-06,8.15865e-06,9.63865e-06,-1.01539e-05,1.0292e-05,-4.27353e-07,0
-2.9782e-05,8.88227e-06,-6.14811e-06,1.49738e-05,6.79754e-06,-8.33663e-06,1.34822e-05,6.03381e-07,0
-2.94499e-05,5.70388e-06,-4.8989e-06,1.88597e-05,4.77114e-06,-7.11583e-06,1.57139e-05,9.14426e-07,0
-2.95885e-05,4.5709e-06,-6.66334e-06,1.77886e-05,3.2144e-06,-6.72422e-06,1.70063e-05,1.06611e-06,0
-3.02569e-05,3.54353e-06,-9.2593e-06,1.20309e-05,2.89419e-06,-5.94809e-06,1.79984e-05,3.89805e-07,0
-3.16114e-05,5.47153e-07,-9.74135e-06,4.2372e-06,4.92265e-06,-4.17107e-06,1.89542e-05,3.8288e-08,0
-3.22506e-05,-2.20494e-06,-7.81074e-06,-2.62232e-06,6.51743e-06,-2.53174e-06,1.82076e-05,7.62563e-07,0
-3.08247e-05,-2.99341e-06,-6.30456e-06,-8.57936e-06,6.38009e-06,-3.24169e-06,1.66843e-05,2.81297e-06,0
-2.91775e-05,-2.91159e-06,-7.19504e-06,-1.45484e-05,6.52777e-06,-4.57704e-06,1.44557e-05,3.82248e-06,0
-3.00433e-05,-3.18057e-06,-9.06843e-06,-2.21645e-05,8.97256e-06,-4.70021e-06,1.12133e-05,3.68922e-06,0
-3.29218e-05,-4.51558e-06,-9.51875e-06,-2.99028e-05,1.11956e-05,-3.99904e-06,9.69984e-06,3.35365e-06,0
-3.53527e-05,-5.2013e-06,-9.11941e-06,-3.10155e-05,1.14444e-05,-4.38799e-06,1.18292e-05,3.07512e-06,0
-3.62488e-05,-4.50071e-06,-9.57908e-06,-2.1769e-05,1.05102e-05,-4.71252e-06,1.51868e-05,2.51771e-06,0
-3.56039e-05,-2.62394e-06,-9.9751e-06,-9.9101e-06,1.20675e-05,-4.48471e-06,1.58251e-05,2.54065e-06,0
-3.41119e-05,-6.97372e-07,-8.56947e-06,-4.88501e-06,1.61475e-05,-5.01969e-06,1.41325e-05,3.24321e-06,0
-3.24265e-05,2.09273e-06,-5.99322e-06,-6.41152e-06,1.61232e-05,-6.71304e-06,1.28524e-05,3.54824e-06,0
-3.19823e-05,4.79111e-06,-4.3792e-06,-7.47913e-06,9.795e-06,-9.17065e-06,1.30725e-05,3.84244e-06,0
-3.30382e-05,6.71313e-06,-5.09164e-06,-4.0014e-06,2.57777e-06,-1.03555e-05,1.41452e-05,4.48624e-06,0
-3.50729e-05,7.60822e-06,-6.20482e-06,-4.85825e-07,-1.98473e-06,-8.57449e-06,1.48816e-05,4.84694e-06,0
-3.6913e-05,7.87661e-06,-6.64301e-06,-3.65696e-06,-2.33839e-06,-7.23325e-06,1.50496e-05,4.29162e-06,0
-3.60286e-05,6.95599e-06,-7.64657e-06,-9.1214e-06,1.22205e-06,-8.39611e-06,1.71179e-05,3.21694e-06,0
-3.38923e-05,6.51482e-06,-9.11963e-06,-1.12624e-05,7.98416e-06,-7.94759e-06,2.0997e-05,1.37769e-06,0
-3.17011e-05,7.67344e-06,-9.872e-06,-1.79558e-05,1.63322e-05,-5.21748e-06,2.24009e-05,6.02349e-07,0
-3.0872e-05,7.78888e-06,-9.39911e-06,-3.22278e-05,2.26232e-05,-2.47842e-06,2.14693e-05,2.17198e-06,0
-3.15852e-05,7.64288e-06,-7.48028e-06,-4.72591e-05,2.46911e-05,-2.04168e-06,1.92091e-05,3.742e-06,0
-3.05292e-05,9.74562e-06,-3.4582e-06,-5.71215e-05,2.38322e-05,-3.38619e-06,1.59322e-05,4.34473e-06,0
-2.88196e-05,1.15593e-05,-8.1544e-07,-5.6707e-05,2.4808e-05,-4.47407e-06,1.37166e-05,5.42156e-06,0
-2.79441e-05,1.18316e-05,-2.68437e-06,-4.65005e-05,2.96502e-05,-4.62088e-06,1.26306e-05,7.43714e-06,0
-2.74578e-05,1.09871e-05,-3.79349e-06,-3.28609e-05,3.39689e-05,-3.64301e-06,1.22993e-05,8.2865e-06,0
-2.63231e-05,8.86525e-06,-2.35446e-06,-2.10976e-05,3.27514e-05,-2.3079e-06,1.22528e-05,6.39829e-06,0
-2.64772e-05,8.00082e-06,-1.94493e-06,-1.50801e-05,2.7368e-05,-2.49362e-06,1.12911e-05,4.3314e-06,0
-2.85818e-05,8.10574e-06,-2.94765e-06,-1.60976e-05,2.036e-05,-5.2852e-06,1.02189e-05,2.47244e-06,0
-2.98975e-05,7.32805e-06,-4.24041e-06,-1.77841e-05,1.51249e-05,-8.00162e-06,1.10607e-05,3.49827e-07,0
-2.90751e-05,7.03557e-06,-5.5225e-06,-1.4654e-05,1.32426e-05,-8.78011e-06,1.24995e-05,-1.26923e-06,0
-2.73155e-05,7.4727e-06,-6.9866e-06,-8.27513e-06,1.31134e-05,-8.99597e-06,1.2865e-05,-9.19865e-07,0
-2.61936e-05,7.40085e-06,-8.29698e-06,-2.48442e-06,1.30001e-05,-9.40107e-06,1.245e-05,5.05319e-07,0
-2.59947e-05,6.31167e-06,-8.9025e-06,1.52856e-06,1.2748e-05,-9.77236e-06,1.22506e-05,1.67342e-06,0
-2.69382e-05,3.99869e-06,-9.2521e-06,3.98677e-06,1.1627e-05,-9.21453e-06,1.28658e-05,2.87816e-06,0
-2.77687e-05,1.74301e-06,-1.0376e-05,5.8354e-06,1.07105e-05,-8.47283e-06,1.4084e-05,3.59759e-06,0
-2.85517e-05,6.84852e-07,-1.17148e-05,9.34085e-06,1.18988e-05,-8.32636e-06,1.37705e-05,3.98114e-06,0
-3.03226e-05,1.88448e-06,-1.30166e-05,1.38193e-05,1.35805e-05,-8.67212e-06,1.0944e-05,3.97399e-06,0
-3.24506e-05,3.9971e-06,-1.47312e-05,1.68697e-05,1.31897e-05,-9.09066e-06,8.04162e-06,3.93401e-06,0
-3.26712e-05,5.24133e-06,-1.67099e-05,1.71917e-05,1.00263e-05,-9.08342e-06,4.96718e-06,5.2117e-06,0
-3.10441e-05,5.53773e-06,-1.71361e-05,1.35575e-05,6.51766e-06,-8.51378e-06,-3.71063e-06,7.25731e-06,0
-3.01191e-05,7.52125e-06,-1.47338e-05,6.04547e-06,4.09523e-06,-8.00176e-06,-1.56503e-05,7.06415e-06,0
-3.0672e-05,1.06487e-05,-1.16336e-05,-1.68574e-06,4.13089e-06,-8.61122e-06,-2.00948e-05,5.70589e-06,0
-3.08259e-05,1.31541e-05,-1.06593e-05,-7.51073e-06,5.39355e-06,-9.84383e-06,-1.38882e-05,5.7886e-06,0
-2.9947e-05,1.40923e-05,-1.1439e-05,-1.15819e-05,7.04011e-06,-1.18289e-05,-2.75358e-06,6.4807e-06,0
-2.9079e-05,1.55864e-05,-1.16937e-05,-1.94652e-05,9.14029e-06,-1.43697e-05,7.5155e-06,5.41174e-06,0
-2.90009e-05,2.061e-05,-1.09495e-05,-3.15997e-05,8.63174e-06,-1.39741e-05,1.69113e-05,4.21152e-06,0
-2.94659e-05,2.66207e-05,-1.03465e-05,-3.378e-05,6.4821e-06,-1.27661e-05,2.44343e-05,4.97587e-06,0
-3.09726e-05,3.027e-05,-9.80284e-06,-2.32067e-05,5.82397e-06,-1.45889e-05,2.97178e-05,5.09264e-06,0
-3.18313e-05,3.1069e-05,-1.01975e-05,-1.09442e-05,7.26962e-06,-1.65368e-05,3.19382e-05,2.53119e-06,0
-3.12523e-05,2.84459e-05,-1.08553e-05,-8.58769e-07,1.05644e-05,-1.64777e-05,3.19857e-05,4.57049e-07,0
-3.20439e-05,2.45742e-05,-1.03203e-05,6.20464e-06,1.36101e-05,-1.49507e-05,3.0674e-05,-4.83496e-07,0
-3.2465e-05,2.28688e-05,-9.28376e-06,6.79568e-06,1.28232e-05,-1.44827e-05,2.75102e-05,-1.36847e-06,0
-3.20333e-05,2.35602e-05,-7.7255e-06,1.84181e-06,9.47471e-06,-1.43427e-05,2.51437e-05,-1.57786e-06,0
-3.1715e-05,2.42951e-05,-6.1176e-06,-2.7167e-06,7.01391e-06,-1.41434e-05,2.32905e-05,-1.71646e-06,0
-3.10698e-05,2.23231e-05,-5.78606e-06,-4.51944e-06,4.96832e-06,-1.49425e-05,2.08186e-05,-1.64878e-06,0
-3.01934e-05,2.10531e-05,-6.77314e-06,-3.74259e-06,4.25157e-06,-1.70154e-05,1.71308e-05,-1.78694e-06,0
-3.06605e-05,2.13947e-05,-7.62685e-06,-1.67267e-06,5.54155e-06,-1.86737e-05,1.32266e-05,-1.67252e-06,0
-3.28272e-05,2.14392e-05,-7.67085e-06,7.72267e-07,6.92386e-06,-1.83944e-05,1.10483e-05,-1.51394e-06,0
-3.37613e-05,1.99257e-05,-6.95126e-06,2.93739e-06,7.03211e-06,-1.75473e-05,1.1446e-05,-1.50975e-06,0
-3.30374e-05,1.73629e-05,-6.20057e-06,3.12936e-06,7.08355e-06,-1.73548e-05,1.16432e-05,-1.5095e-06,0
-3.22747e-05,1.57913e-05,-6.47782e-06,2.23535e-06,8.81632e-06,-1.8228e-05,1.11405e-05,-1.5742e-06,0
-3.23468e-05,1.62122e-05,-8.21785e-06,1.5271e-06,1.10704e-05,-1.90792e-05,1.09738e-05,-1.89081e-06,0
-3.27499e-05,1.70646e-05,-9.72739e-06,6.79697e-07,1.21179e-05,-1.89356e-05,1.07005e-05,-2.27633e-06,0
-3.24839e-05,1.79841e-05,-1.02135e-05,-2.26331e-07,1.15114e-05,-1.70821e-05,9.18281e-06,-2.25522e-06,0
-3.24565e-05,2.04527e-05,-1.08871e-05,1.22347e-07,1.02821e-05,-1.52901e-05,5.15535e-06,-2.76206e-06,0
-3.4021e-05,2.29156e-05,-1.1087e-05,1.84749e-07,1.03717e-05,-1.51721e-05,-2.04602e-06,-4.48632e-06,0
-3.55783e-05,2.41644e-05,-1.02372e-05,-1.97191e-06,1.18992e-05,-1.64308e-05,-9.44001e-06,-6.39553e-06,0
-3.50413e-05,2.38533e-05,-9.86403e-06,-5.40958e-06,1.34454e-05,-1.77542e-05,-1.21608e-05,-7.64854e-06,0
-3.29363e-05,2.30926e-05,-9.4459e-06,-7.04424e-06,1.51302e-05,-1.89187e-05,-1.11323e-05,-7.7054e-06,0
-3.05972e-05,2.27769e-05,-7.14228e-06,-6.19643e-06,1.76473e-05,-1.93245e-05,-9.60572e-06,-5.79756e-06,0
-2.88885e-05,2.30253e-05,-4.41526e-06,-5.60083e-06,1.8999e-05,-1.77695e-05,-8.179e-06,-2.76346e-06,0
-2.78096e-05,2.31194e-05,-3.12486e-06,-5.63816e-06,1.70111e-05,-1.58703e-05,-4.3904e-06,-1.27605e-06,0
-2.7332e-05,2.23562e-05,-2.94317e-06,-3.82587e-06,1.35668e-05,-1.50159e-05,1.21512e-06,-2.89728e-06,0
-2.79045e-05,2.01843e-05,-3.0776e-06,-6.44601e-07,1.18266e-05,-1.48802e-05,7.6171e-06,-4.08351e-06,0
-2.78577e-05,1.69032e-05,-3.23651e-06,2.11233e-06,1.04767e-05,-1.51071e-05,1.59102e-05,-2.43646e-06,0
-2.66161e-05,1.71559e-05,-2.57059e-06,2.41106e-06,9.62675e-06,-1.55851e-05,2.47736e-05,3.65462e-07,0
-2.58223e-05,2.10228e-05,-1.89275e-06,1.33236e-06,1.00867e-05,-1.5387e-05,2.77705e-05,1.30723e-06,0
-2.67785e-05,2.51803e-05,-3.34805e-06,2.53424e-06,8.90273e-06,-1.46536e-05,2.10028e-05,1.56932e-07,0
-2.90058e-05,2.69591e-05,-5.5421e-06,4.29991e-06,5.20041e-06,-1.34749e-05,5.71564e-06,-9.31911e-07,0
-2.98624e-05,2.59123e-05,-7.80024e-06,4.99835e-06,1.73748e-06,-1.04711e-05,-1.0801e-05,-2.01728e-06,0
-2.97486e-05,2.44571e-05,-9.20232e-06,5.81087e-06,2.97627e-06,-7.58789e-06,-1.76604e-05,-1.88386e-06,0
-2.89989e-05,2.35013e-05,-9.18969e-06,4.87463e-06,7.23873e-06,-6.78e-06,-1.27761e-05,-1.63467e-06,0
-2.76128e-05,2.32745e-05,-8.29079e-06,1.8502e-06,1.05861e-05,-7.17333e-06,-1.78457e-06,-1.82194e-06,0
-2.72028e-05,2.1354e-05,-7.68277e-06,-1.37845e-07,1.24036e-05,-6.63818e-06,1.04849e-05,-1.1382e-06,0
-2.72745e-05,1.68643e-05,-7.83631e-06,-9.23366e-07,1.34136e-05,-5.49354e-06,2.22529e-05,-5.50163e-07,0
-2.66317e-05,1.20793e-05,-7.99193e-06,-1.22666e-06,1.34641e-05,-3.75842e-06,3.22482e-05,-3.11056e-07,0
-2.60573e-05,7.85917e-06,-8.25745e-06,-8.95297e-07,1.35751e-05,-8.68569e-07,3.90728e-05,3.69425e-07,0
-2.68148e-05,3.50427e-06,-8.25493e-06,-3.0894e-07,1.39164e-05,1.0874e-06,4.24745e-05,1.9641e-06,0
-2.82789e-05,9.07346e-07,-8.135e-06,-1.41907e-06,1.34969e-05,6.98031e-07,4.42201e-05,2.72243e-06,0
-2.95736e-05,1.443e-06,-6.96924e-06,-4.40754e-06,1.29181e-05,-6.94263e-07,4.52146e-05,2.34535e-06,0
-2.97322e-05,3.42914e-06,-5.4169e-06,-6.97833e-06,1.18693e-05,-1.13901e-06,4.76841e-05,1.91172e-06,0
-2.92245e-05,4.56641e-06,-5.40535e-06,-6.09912e-06,1.1232e-05,-1.20745e-06,5.55286e-05,2.38741e-06,0
-2.96515e-05,3.63867e-06,-8.00744e-06,-1.95839e-06,1.19325e-05,-7.92167e-07,6.51924e-05,4.00083e-06,0
-3.15475e-05,2.03155e-06,-9.73446e-06,3.17127e-06,1.40668e-05,1.91686e-07,6.99705e-05,5.38681e-06,0
-3.34442e-05,1.23554e-06,-7.50952e-06,6.10039e-06,1.70409e-05,-4.20428e-07,6.74244e-05,4.60144e-06,0
-3.39993e-05,2.01354e-06,-4.05269e-06,5.10576e-06,1.91476e-05,-3.40569e-06,5.84977e-05,3.40859e-06,0
-3.35812e-05,3.65883e-06,-1.69564e-06,1.17566e-06,1.86923e-05,-5.43574e-06,4.65453e-05,2.87542e-06,0
-3.14478e-05,5.60218e-06,-1.13656e-06,-4.47135e-06,1.76513e-05,-5.72227e-06,3.19081e-05,3.82189e-07,0
-2.96943e-05,8.16792e-06,-2.39052e-06,-1.00997e-05,1.76013e-05,-4.95591e-06,1.3985e-05,-1.79436e-06,0
-2.94462e-05,8.71805e-06,-2.6279e-06,-1.72676e-05,1.79162e-05,-5.06316e-06,-7.23427e-06,-1.75269e-06,0
-2.87912e-05,6.05959e-06,-2.68646e-06,-2.44851e-05,1.94427e-05,-6.63741e-06,-2.42223e-05,-1.09218e-06,0
-2.91587e-05,5.23647e-06,-3.73854e-06,-2.84287e-05,2.14213e-05,-8.53045e-06,-3.09945e-05,1.75908e-07,0
-2.92553e-05,9.41614e-06,-4.3683e-06,-2.72716e-05,2.29223e-05,-9.65528e-06,-2.89662e-05,2.4776e-06,0
-2.72717e-05,1.56191e-05,-4.94119e-06,-2.04686e-05,2.47511e-05,-9.35474e-06,-2.29298e-05,3.41607e-06,0
-2.55589e-05,1.94208e-05,-6.26113e-06,-1.04057e-05,2.50329e-05,-8.98718e-06,-2.00525e-05,2.1482e-06,0
-2.46164e-05,1.97273e-05,-8.21152e-06,-1.36513e-06,2.33636e-05,-8.45556e-06,-1.78166e-05,9.68928e-07,0
-2.38932e-05,1.78064e-05,-1.08661e-05,4.91825e-06,2.19701e-05,-8.39254e-06,-1.36648e-05,1.05913e-06,0
-2.56768e-05,1.36604e-05,-1.49599e-05,1.02371e-05,2.08805e-05,-9.18159e-06,-8.66809e-06,1.68532e-06,0
-2.89214e-05,8.98392e-06,-1.84081e-05,1.39919e-05,1.92484e-05,-9.22244e-06,-4.14762e-06,2.19538e-06,0
-2.94978e-05,4.82974e-06,-2.01309e-05,1.44473e-05,1.81766e-05,-9.36849e-06,-2.99152e-07,3.49887e-06,0
-2.84656e-05,2.07826e-06,-1.91439e-05,8.99584e-06,1.95949e-05,-1.10173e-05,2.3546e-06,5.27681e-06,0
-2.854e-05,1.20256e-06,-1.58977e-05,-1.49312e-06,2.3315e-05,-1.33549e-05,4.32872e-06,6.59414e-06,0
-3.00107e-05,9.30245e-07,-1.16717e-05,-1.18594e-05,2.57422e-05,-1.51689e-05,6.27011e-06,6.55399e-06,0
-3.02815e-05,-8.01468e-07,-8.07534e-06,-1.72895e-05,2.49958e-05,-1.54914e-05,7.36976e-06,6.21583e-06,0
-2.92321e-05,-4.71285e-06,-2.98831e-06,-1.63441e-05,2.23251e-05,-1.61014e-05,7.75252e-06,7.04829e-06,0
-2.94162e-05,-7.65654e-06,8.80784e-06,-1.26302e-05,1.83965e-05,-1.7181e-05,7.96839e-06,7.48559e-06,0
-3.06721e-05,-8.14161e-06,2.79332e-05,-1.07436e-05,1.49178e-05,-1.75853e-05,9.05458e-06,7.85341e-06,0
-3.09739e-05,-6.91948e-06,4.77919e-05,-1.06228e-05,1.33464e-05,-1.68512e-05,1.06425e-05,9.87548e-06,0
-3.03433e-05,-4.77857e-06,5.78705e-05,-8.38013e-06,1.27972e-05,-1.59479e-05,1.25564e-05,1.08264e-05,0
-3.09424e-05,-3.59287e-06,5.16816e-05,-3.57358e-06,1.20762e-05,-1.57261e-05,1.44049e-05,8.24967e-06,0
-3.3173e-05,-4.33751e-06,2.73701e-05,-5.00278e-07,1.02998e-05,-1.56357e-05,1.54138e-05,4.85683e-06,0
-3.58748e-05,-5.30974e-06,-1.08266e-05,-1.74206e-06,8.81598e-06,-1.54669e-05,1.48792e-05,3.58847e-06,0
-3.61622e-05,-7.41663e-06,-5.17651e-05,-4.7036e-06,1.09885e-05,-1.47014e-05,1.56269e-05,4.22142e-06,0
-3.41923e-05,-9.41741e-06,-8.37434e-05,-7.90553e-06,1.33726e-05,-1.34405e-05,1.76221e-05,4.65729e-06,0
-3.35376e-05,-9.13779e-06,-0.000100055,-1.3981e-05,1.44102e-05,-1.37502e-05,1.8539e-05,3.2772e-06,0
-3.40454e-05,-7.81852e-06,-9.94604e-05,-2.19455e-05,1.47578e-05,-1.43783e-05,1.8406e-05,2.07491e-06,0
-3.45041e-05,-5.58538e-06,-8.43876e-05,-2.80234e-05,1.33877e-05,-1.30843e-05,1.77992e-05,4.58356e-06,0
-3.42421e-05,-1.61427e-06,-6.62705e-05,-2.94701e-05,1.10482e-05,-1.12162e-05,1.69933e-05,8.16912e-06,0
-3.18054e-05,8.55507e-07,-5.5481e-05,-2.56867e-05,9.78996e-06,-1.0232e-05,1.57723e-05,7.7301e-06,0
-2.85286e-05,6.11952e-07,-4.76524e-05,-1.9736e-05,1.28288e-05,-9.5616e-06,1.44673e-05,4.11753e-06,0
-2.72295e-05,1.1753e-06,-3.63132e-05,-1.39056e-05,2.11998e-05,-8.61647e-06,1.31595e-05,1.64654e-06,0
-2.89282e-05,3.85355e-06,-2.31206e-05,-8.5692e-06,3.05363e-05,-6.82432e-06,1.29013e-05,1.34555e-06,0
-3.03019e-05,7.41197e-06,-1.50697e-05,-6.89959e-06,3.14254e-05,-3.7005e-06,1.29481e-05,2.21084e-06,0
-2.94891e-05,8.46577e-06,-1.12356e-05,-9.06486e-06,2.54926e-05,-2.92415e-06,1.29009e-05,1.94453e-06,0
-2.97866e-05,7.06591e-06,-9.18978e-06,-1.00766e-05,1.94565e-05,-4.22213e-06,1.20815e-05,2.59394e-07,0
-3.15583e-05,5.7217e-06,-7.46857e-06,-1.1184e-05,1.57007e-05,-5.36002e-06,9.67789e-06,-1.61428e-06,0
-3.27482e-05,6.21299e-06,-5.7658e-06,-1.31579e-05,1.42684e-05,-5.10038e-06,7.23797e-06,-2.75701e-06,0
-3.34001e-05,9.22218e-06,-5.09312e-06,-1.49439e-05,1.42233e-05,-4.51061e-06,7.1538e-06,-1.18582e-06,0
-3.3359e-05,1.24719e-05,-4.65871e-06,-1.40907e-05,1.44908e-05,-4.46889e-06,1.07014e-05,1.64382e-06,0
-3.21895e-05,1.43434e-05,-3.87822e-06,-1.13981e-05,1.38066e-05,-5.34842e-06,1.4554e-05,2.3881e-06,0
-3.13712e-05,1.53389e-05,-1.63799e-06,-1.07954e-05,1.32371e-05,-7.93986e-06,1.55518e-05,3.39853e-07,0
-3.18343e-05,1.63969e-05,1.76488e-06,-1.03645e-05,1.25739e-05,-1.05147e-05,1.48424e-05,-1.56909e-06,0
-3.24962e-05,1.76619e-05,6.45247e-06,-2.66696e-06,1.13808e-05,-1.11718e-05,1.48153e-05,-1.55288e-06,0
-3.23678e-05,1.91236e-05,9.7233e-06,1.52997e-05,1.03596e-05,-9.86655e-06,1.50485e-05,-4.50872e-07,0
-3.14078e-05,2.10294e-05,8.00133e-06,3.23056e-05,1.03359e-05,-8.86468e-06,1.47532e-05,1.15815e-07,0
-3.11184e-05,2.18206e-05,1.05091e-06,3.44115e-05,1.002e-05,-8.8576e-06,1.49885e-05,-8.12307e-07,0
-3.27472e-05,2.1524e-05,-4.60376e-06,2.17192e-05,7.92922e-06,-1.0306e-05,1.50644e-05,-1.36213e-06,0
-3.46287e-05,2.18668e-05,-4.07954e-06,8.9523e-06,5.23092e-06,-1.22769e-05,1.3347e-05,5.80233e-07,0
-3.43334e-05,2.17578e-05,9.06918e-07,4.04248e-06,4.58246e-06,-1.33273e-05,1.15145e-05,1.90342e-06,0
-3.12824e-05,2.00997e-05,4.8461e-06,3.74603e-06,5.28602e-06,-1.35017e-05,1.22579e-05,2.19266e-07,0
-2.7787e-05,2.05257e-05,3.98735e-06,3.02742e-06,6.20764e-06,-1.33317e-05,1.39443e-05,-2.34096e-06,0
-2.63138e-05,2.2394e-05,1.6316e-06,1.57015e-06,7.34227e-06,-1.30507e-05,1.33219e-05,-3.01455e-06,0
-2.74212e-05,2.37602e-05,2.00115e-06,-1.21149e-06,8.01358e-06,-1.31208e-05,1.12705e-05,-3.31867e-06,0
-2.76405e-05,2.52872e-05,2.06067e-06,-4.78925e-06,8.50454e-06,-1.37583e-05,1.01051e-05,-4.37281e-06,0
-2.49019e-05,2.57919e-05,-1.72054e-07,-7.47194e-06,8.47069e-06,-1.48534e-05,1.04349e-05,-4.36035e-06,0
-2.37791e-05,2.67574e-05,-1.44053e-06,-1.0271e-05,6.69432e-06,-1.5485e-05,1.14298e-05,-3.85752e-06,0
-2.5997e-05,2.69124e-05,-1.98428e-06,-1.18854e-05,4.27799e-06,-1.52882e-05,1.12641e-05,-1.79108e-06,0
-2.76242e-05,2.78247e-05,-2.37786e-06,-1.03531e-05,2.15336e-06,-1.4327e-05,7.37727e-06,-7.20354e-07,0
-2.73899e-05,3.0946e-05,-1.41904e-06,-6.63341e-06,1.11592e-06,-1.21603e-05,-1.47448e-06,-2.43058e-06,0
-2.78127e-05,3.17717e-05,-5.96554e-07,-5.7131e-06,1.49254e-06,-9.76972e-06,-9.9743e-06,-4.58642e-06,0
-2.94844e-05,3.02618e-05,-1.5564e-06,-6.70122e-06,1.55823e-06,-8.72133e-06,-1.20897e-05,-7.20484e-06,0
-3.16434e-05,3.02309e-05,-2.63401e-06,-5.37327e-06,3.93752e-06,-9.22282e-06,-8.04717e-06,-9.18054e-06,0
-3.17813e-05,3.33957e-05,-2.65727e-06,-3.1033e-06,8.43284e-06,-1.21781e-05,-1.33546e-06,-9.46454e-06,0
-2.93414e-05,3.56349e-05,-2.08025e-06,7.44724e-08,1.14929e-05,-1.43714e-05,4.89722e-06,-9.04031e-06,0
-2.7347e-05,3.47774e-05,-7.77823e-07,9.89084e-06,1.12835e-05,-1.3561e-05,9.54153e-06,-9.14372e-06,0
-2.74801e-05,3.27829e-05,1.47949e-06,2.65084e-05,1.02831e-05,-1.21734e-05,1.34978e-05,-9.47989e-06,0
-2.78264e-05,3.28346e-05,4.48979e-06,4.02696e-05,1.27719e-05,-1.0972e-05,1.6828e-05,-1.01296e-05,0
-2.71255e-05,3.39627e-05,7.31381e-06,4.43916e-05,1.72364e-05,-9.70485e-06,1.80153e-05,-1.12275e-05,0
-2.66775e-05,3.30964e-05,8.52734e-06,3.88403e-05,1.86742e-05,-9.56169e-06,1.77152e-05,-1.18603e-05,0
-2.70872e-05,3.01632e-05,7.97726e-06,2.76459e-05,1.66496e-05,-1.21216e-05,1.8429e-05,-1.21929e-05,0
-2.81518e-05,2.6245e-05,5.76758e-06,1.59802e-05,1.4842e-05,-1.47294e-05,1.97318e-05,-1.23567e-05,0
-2.89261e-05,2.31394e-05,3.32937e-06,5.83763e-06,1.41279e-05,-1.55593e-05,1.98222e-05,-1.20921e-05,0
-2.82205e-05,2.12938e-05,3.05412e-06,-3.72623e-06,1.40367e-05,-1.40214e-05,1.97223e-05,-1.10475e-05,0
-2.64927e-05,1.85845e-05,4.64571e-06,-1.27525e-05,1.42109e-05,-1.08604e-05,2.02695e-05,-8.69968e-06,0
-2.58591e-05,1.42075e-05,5.52125e-06,-2.00932e-05,1.49355e-05,-9.3347e-06,2.09114e-05,-5.51828e-06,0
-2.71014e-05,1.15268e-05,5.5015e-06,-2.68333e-05,1.48161e-05,-1.00844e-05,2.15252e-05,-3.03458e-06,0
-2.89071e-05,1.30587e-05,5.13483e-06,-3.54598e-05,1.33256e-05,-9.45659e-06,2.10725e-05,-2.88994e-06,0
-2.85587e-05,1.77411e-05,4.10083e-06,-4.44604e-05,1.27741e-05,-7.71577e-06,1.96365e-05,-4.28801e-06,0
-2.74649e-05,1.75341e-05,7.87366e-07,-4.66401e-05,1.18104e-05,-7.47771e-06,1.83282e-05,-4.44283e-06,0
-2.7874e-05,1.29201e-05,-3.00324e-06,-3.99848e-05,9.46462e-06,-8.35163e-06,1.72254e-05,-2.51518e-06,0
-2.9792e-05,1.06778e-05,-5.25549e-06,-2.7166e-05,9.4542e-06,-7.47702e-06,1.59434e-05,-1.41057e-07,0
-3.02537e-05,1.02295e-05,-8.00132e-06,-1.40505e-05,1.11422e-05,-7.26552e-06,1.55125e-05,2.75173e-06,0
-2.89898e-05,1.0383e-05,-1.15172e-05,-7.1933e-06,1.35576e-05,-9.16658e-06,1.63256e-05,6.37088e-06,0
-2.92239e-05,1.12658e-05,-1.42587e-05,-3.0228e-06,1.63091e-05,-1.0302e-05,1.80689e-05,8.38105e-06,0
-2.94382e-05,1.17036e-05,-1.48617e-05,2.16238e-06,1.74335e-05,-9.96592e-06,1.87235e-05,8.5629e-06,0
-2.86552e-05,1.03749e-05,-1.3274e-05,4.02988e-06,1.87865e-05,-7.17031e-06,1.66165e-05,7.75807e-06,0
-3.00181e-05,8.44445e-06,-1.13549e-05,8.00162e-07,1.88631e-05,-3.9243e-06,1.59649e-05,7.42526e-06,0
-3.33157e-05,6.00406e-06,-1.1948e-05,-2.68694e-06,1.74309e-05,-2.42915e-06,1.67086e-05,6.18517e-06,0
-3.5009e-05,2.72867e-06,-1.39109e-05,-4.39626e-06,1.63648e-05,-3.17907e-06,1.65439e-05,4.36025e-06,0
-3.43514e-05,1.51046e-07,-1.70193e-05,-6.91082e-06,1.64618e-05,-5.26639e-06,1.59994e-05,4.45295e-06,0
-3.26209e-05,-8.27962e-07,-2.10443e-05,-9.52381e-06,1.75209e-05,-7.57402e-06,1.56742e-05,5.55227e-06,0
-3.19293e-05,-1.92983e-06,-2.48154e-05,-1.05307e-05,1.70623e-05,-8.3014e-06,1.51387e-05,5.60373e-06,0
-3.17015e-05,-2.61491e-06,-2.60176e-05,-1.21519e-05,1.39634e-05,-7.91969e-06,1.43467e-05,3.60129e-06,0
-3.23702e-05,-1.23303e-06,-2.3968e-05,-1.64168e-05,1.07269e-05,-7.84461e-06,1.40534e-05,1.79703e-06,0
-3.39407e-05,2.82321e-06,-2.12383e-05,-2.49049e-05,9.99462e-06,-8.26798e-06,1.32535e-05,1.81175e-06,0
-3.51635e-05,7.71885e-06,-1.87869e-05,-3.44959e-05,9.72792e-06,-8.23225e-06,1.15223e-05,2.7063e-06,0
-3.51092e-05,1.00789e-05,-1.7046e-05,-3.82545e-05,7.13339e-06,-7.77138e-06,1.01022e-05,2.33189e-06,0
-3.37213e-05,9.91864e-06,-1.53415e-05,-3.51203e-05,3.27862e-06,-7.88451e-06,1.05511e-05,2.25098e-06,0
-3.16925e-05,9.24309e-06,-1.26526e-05,-2.90228e-05,9.71379e-07,-8.46995e-06,1.22137e-05,3.24585e-06,0
-2.9992e-05,9.94227e-06,-1.00059e-05,-2.27587e-05,1.45856e-06,-8.5171e-06,1.38023e-05,3.87925e-06,0
-2.95624e-05,1.15572e-05,-9.15847e-06,-1.81686e-05,4.32512e-06,-7.64392e-06,1.45754e-05,4.32533e-06,0
-3.04439e-05,1.20728e-05,-9.32074e-06,-1.64543e-05,7.33152e-06,-5.98884e-06,1.576e-05,4.29759e-06,0
-3.10041e-05,9.97311e-06,-1.01771e-05,-1.61302e-05,1.16366e-05,-3.65348e-06,1.72255e-05,2.85981e-06,0
-2.97428e-05,8.05178e-06,-1.0913e-05,-1.26212e-05,2.17807e-05,-1.93534e-06,1.72596e-05,1.07581e-06,0
-2.73467e-05,7.14833e-06,-1.05772e-05,-3.69482e-06,3.56053e-05,-1.19151e-06,1.66055e-05,6.2374e-07,0
-2.50738e-05,4.83735e-06,-1.04503e-05,4.1562e-06,4.40764e-05,-1.74811e-06,1.59247e-05,1.97287e-06,0
-2.52484e-05,4.87585e-06,-1.09644e-05,6.17586e-06,4.4505e-05,-1.48255e-06,1.47708e-05,2.65299e-06,0
-2.76166e-05,6.56169e-06,-9.37295e-06,3.89017e-06,4.00353e-05,-9.5413e-07,1.33745e-05,2.81753e-06,0
-2.94086e-05,5.74596e-06,-7.35909e-06,4.54292e-06,3.51448e-05,-1.70911e-06,1.10614e-05,4.10515e-06,0
-2.81701e-05,5.15499e-06,-5.91156e-06,9.7196e-06,3.07596e-05,-1.54472e-06,8.25862e-06,4.2296e-06,0
-2.63779e-05,4.17296e-06,-4.87175e-06,1.18462e-05,2.56196e-05,-2.49092e-07,5.47551e-06,3.92375e-06,0
-2.66389e-05,3.59183e-06,-5.0563e-06,9.96302e-06,2.04781e-05,6.39506e-07,2.91856e-06,4.31492e-06,0
-2.78399e-05,5.38124e-06,-5.32766e-06,6.58951e-06,1.69449e-05,2.04448e-07,2.28371e-06,4.04755e-06,0
-2.8228e-05,5.91095e-06,-6.04107e-06,4.41129e-06,1.39316e-05,-3.46571e-06,3.44563e-06,1.54744e-06,0
-2.96034e-05,4.72505e-06,-7.11215e-06,4.35616e-06,1.00963e-05,-7.11692e-06,5.76404e-06,-1.56398e-06,0
-3.18493e-05,3.56475e-06,-9.16621e-06,4.35136e-06,9.44908e-06,-7.34138e-06,6.87227e-06,-1.70681e-06,0
-3.23738e-05,3.28647e-06,-1.05693e-05,3.80652e-06,1.06139e-05,-6.96924e-06,8.40155e-06,1.76794e-06,0
-3.18691e-05,2.65892e-06,-1.1593e-05,2.83024e-06,1.06311e-05,-7.98633e-06,1.1489e-05,4.70139e-06,0
-3.13922e-05,1.51149e-06,-1.27799e-05,1.42557e-06,9.99147e-06,-1.01805e-05,1.38124e-05,5.77247e-06,0
-3.01509e-05,1.37925e-06,-1.32387e-05,7.48032e-07,9.95606e-06,-1.09234e-05,1.4181e-05,6.5953e-06,0
-2.87344e-05,2.70757e-06,-1.27124e-05,1.5479e-06,1.09565e-05,-1.002e-05,1.29972e-05,7.54859e-06,0
-2.96492e-05,2.96956e-06,-1.18512e-05,2.49648e-06,1.15575e-05,-9.24058e-06,1.21658e-05,8.40119e-06,0
-3.23538e-05,1.64256e-06,-1.20571e-05,1.20107e-06,9.79205e-06,-9.70639e-06,1.27373e-05,8.85749e-06,0
-3.41919e-05,1.17172e-06,-1.15523e-05,-3.05982e-06,7.47732e-06,-1.07602e-05,1.47623e-05,9.43375e-06,0
-3.38758e-05,1.17353e-06,-8.22685e-06,-8.12959e-06,8.2735e-06,-1.0734e-05,1.56608e-05,1.05001e-05,0
-3.26782e-05,1.90851e-06,-3.69602e-06,-1.0256e-05,1.13455e-05,-9.31495e-06,1.43186e-05,1.08102e-05,0
-3.23248e-05,4.74744e-06,-6.93194e-07,-5.45856e-06,1.45686e-05,-8.43263e-06,1.18492e-05,9.94706e-06,0
-3.3404e-05,9.19671e-06,-1.86271e-07,8.91436e-06,1.6985e-05,-9.02377e-06,1.13143e-05,9.97465e-06,0
-3.36701e-05,1.33837e-05,-3.24459e-06,2.59722e-05,1.66841e-05,-9.3048e-06,1.34079e-05,1.00498e-05,0
-3.33464e-05,1.57195e-05,-9.93152e-06,3.03389e-05,1.30767e-05,-9.62725e-06,1.55398e-05,8.48187e-06,0
-3.35259e-05,1.64626e-05,-1.64663e-05,1.89311e-05,9.56693e-06,-1.14196e-05,1.52264e-05,6.47236e-06,0
-3.2847e-05,1.72725e-05,-1.64505e-05,7.16674e-06,7.15051e-06,-1.40879e-05,1.31802e-05,5.41296e-06,0
-3.17614e-05,1.7575e-05,-1.05739e-05,4.50034e-06,5.51351e-06,-1.51554e-05,1.1073e-05,4.6893e-06,0
-3.24306e-05,1.70643e-05,-5.79484e-06,5.00919e-06,4.66153e-06,-1.46243e-05,7.65718e-06,4.2574e-06,0
-3.39062e-05,1.71408e-05,-3.69086e-06,3.27559e-06,1.97179e-06,-1.44442e-05,2.85762e-08,1.69105e-06,0
-3.47274e-05,1.72693e-05,-4.44492e-06,1.51833e-07,-7.05375e-07,-1.53534e-05,-1.04301e-05,-1.87418e-06,0
-3.39835e-05,1.66363e-05,-9.07685e-06,-4.37345e-06,-1.11578e-06,-1.67802e-05,-1.7875e-05,-2.8149e-06,0
-3.32417e-05,1.78433e-05,-1.28018e-05,-1.00798e-05,-7.10124e-07,-1.60281e-05,-1.76107e-05,-1.62324e-07,0
-3.34055e-05,2.05789e-05,-1.28132e-05,-1.15214e-05,6.33475e-07,-1.41365e-05,-8.87208e-06,2.28299e-06,0
-3.29244e-05,2.35757e-05,-1.16165e-05,-8.03666e-06,1.98055e-06,-1.25115e-05,4.10687e-06,1.85815e-06,0
-3.07891e-05,2.45712e-05,-1.06614e-05,-5.12581e-07,2.07895e-06,-1.15642e-05,2.0099e-05,1.49202e-06,0
-2.73768e-05,2.27671e-05,-9.77928e-06,9.65504e-06,6.61246e-07,-1.29833e-05,3.4888e-05,-2.34998e-07,0
-2.62264e-05,2.07166e-05,-8.29452e-06,1.98769e-05,5.14191e-07,-1.37372e-05,4.27827e-05,-1.94718e-06,0
-2.80415e-05,1.9348e-05,-7.22531e-06,2.81976e-05,1.11005e-06,-1.31671e-05,4.53941e-05,-2.70391e-06,0
-2.99658e-05,1.97859e-05,-6.29824e-06,3.26416e-05,1.87153e-06,-1.29498e-05,4.87012e-05,-3.39155e-06,0
-2.96989e-05,2.04635e-05,-4.18931e-06,3.30546e-05,5.87836e-06,-1.32286e-05,5.51728e-05,-4.18047e-06,0
