ch1,ch2,ch3,ch4,ch5,ch6,ch7,ch8,class
-2.82864e-05,9.38481e-06,-4.22323e-06,-6.19636e-06,-1.46179e-06,-8.38592e-06,-9.18276e-07,-7.4367e-06,0
-2.83007e-05,8.07366e-06,-4.4309e-06,-3.06243e-06,-2.33062e-06,-9.31369e-06,-8.93029e-06,-5.95192e-06,0
-2.88393e-05,6.0938e-06,-3.5233e-06,-1.21926e-06,-1.01378e-06,-9.01964e-06,-1.02057e-05,-3.8446e-06,0
-2.86501e-05,3.61142e-06,-3.56828e-06,-3.91093e-06,7.01235e-06,-7.8176e-06,-7.22284e-06,-2.28392e-06,0
-2.7781e-05,3.11147e-06,-6.06491e-06,-9.30057e-06,1.75975e-05,-6.50586e-06,-1.71057e-06,-2.15891e-06,0
-2.72477e-05,4.76185e-06,-9.66622e-06,-1.2112e-05,2.36686e-05,-5.45095e-06,5.31708e-06,-3.81503e-06,0
-2.75406e-05,6.51348e-06,-1.38587e-05,-1.13094e-05,2.35526e-05,-4.25705e-06,1.40811e-05,-2.58449e-06,0
-2.82605e-05,7.29326e-06,-1.85071e-05,-8.17022e-06,1.79184e-05,-4.03362e-06,2.23563e-05,6.29421e-07,0
-2.84968e-05,8.1457e-06,-2.11907e-05,-4.41139e-06,7.89219e-06,-3.72915e-06,2.70976e-05,2.60244e-06,0
-2.90291e-05,9.10314e-06,-2.14154e-05,-2.69309e-06,-5.36601e-06,-2.08851e-06,2.87617e-05,3.17814e-06,0
-2.99292e-05,9.71148e-06,-1.94131e-05,-5.90965e-06,-1.76914e-05,-1.51511e-06,2.91149e-05,2.99142e-06,0
-3.13603e-05,9.83518e-06,-1.67941e-05,-1.11802e-05,-2.1053e-05,-3.8038e-06,2.91298e-05,1.16403e-06,0
-3.16439e-05,1.03441e-05,-1.5311e-05,-1.34204e-05,-1.37722e-05,-7.20583e-06,2.9477e-05,-1.86357e-06,0
-2.98554e-05,1.16893e-05,-1.57919e-05,-1.27732e-05,-3.3303e-06,-9.03863e-06,3.01576e-05,-3.74731e-06,0
-2.88126e-05,1.2819e-05,-1.59816e-05,-1.36546e-05,3.46979e-06,-8.68844e-06,3.01562e-05,-4.32667e-06,0
-2.98419e-05,1.40564e-05,-1.45101e-05,-1.58756e-05,5.64e-06,-6.92101e-06,2.97272e-05,-3.91427e-06,0
-3.1712e-05,1.53018e-05,-1.12613e-05,-1.71747e-05,5.21668e-06,-5.51729e-06,2.91349e-05,-2.79307e-06,0
-3.30177e-05,1.63905e-05,-6.94684e-06,-1.7857e-05,5.13825e-06,-3.87508e-06,2.76309e-05,-9.50285e-07,0
-3.31381e-05,1.80184e-05,-3.96255e-06,-1.77086e-05,6.47973e-06,-2.17798e-06,2.48684e-05,1.34391e-07,0
-3.21368e-05,2.05681e-05,-3.33826e-06,-1.69441e-05,7.66483e-06,-1.6908e-06,2.16987e-05,-5.18563e-07,0
-3.03525e-05,2.26924e-05,-4.92067e-06,-1.66205e-05,8.46801e-06,-3.11046e-06,1.81742e-05,-2.30965e-06,0
-2.84816e-05,2.45801e-05,-6.08551e-06,-1.63145e-05,8.49834e-06,-6.09989e-06,1.53344e-05,-2.16782e-06,0
-2.84382e-05,2.48601e-05,-4.4904e-06,-1.36531e-05,7.06302e-06,-8.71758e-06,1.35755e-05,-1.56503e-06,0
-2.87604e-05,2.40766e-05,-2.46819e-06,-1.14598e-05,4.80348e-06,-1.0081e-05,1.21179e-05,-1.47518e-06,0
-2.72901e-05,2.49049e-05,-1.71228e-06,-1.13949e-05,4.86042e-06,-1.03623e-05,9.84715e-06,-7.09606e-07,0
-2.523e-05,2.63098e-05,-3.30255e-07,-1.14024e-05,7.58008e-06,-1.06719e-05,8.02118e-06,4.40408e-07,0
-2.54103e-05,2.58482e-05,2.0964e-06,-1.14452e-05,1.08298e-05,-1.10686e-05,7.34071e-06,1.03712e-06,0
-2.66992e-05,2.53424e-05,2.67885e-06,-1.18565e-05,1.2394e-05,-1.05516e-05,7.6505e-06,8.58284e-07,0
-2.74372e-05,2.57425e-05,1.8028e-06,-1.25574e-05,1.16132e-05,-1.0267e-05,8.93963e-06,-9.2171e-07,0
-2.8779e-05,2.41815e-05,2.81652e-06,-1.06392e-05,1.17507e-05,-8.77685e-06,8.82393e-06,-2.56998e-06,0
-2.91688e-05,2.09933e-05,4.65096e-06,-8.7937e-06,1.19461e-05,-8.1046e-06,8.04816e-06,-2.82326e-06,0
-2.93738e-05,2.08926e-05,5.64973e-06,-7.9149e-06,1.28158e-05,-9.9521e-06,6.99418e-06,-3.19306e-06,0
-3.09597e-05,2.33793e-05,5.40054e-06,-6.49825e-06,1.46775e-05,-1.09805e-05,4.0629e-06,-2.86775e-06,0
-3.18402e-05,2.36789e-05,3.98857e-06,-4.9703e-06,1.62029e-05,-1.03204e-05,9.45553e-07,-1.7647e-06,0
-3.02417e-05,2.21962e-05,1.9482e-06,-3.59663e-06,1.71497e-05,-9.88685e-06,-1.75913e-07,-1.56336e-06,0
-2.86361e-05,2.11185e-05,-9.71055e-07,-3.40411e-06,1.84318e-05,-1.04945e-05,3.21388e-07,-3.45353e-06,0
-2.99637e-05,2.04783e-05,-4.55004e-06,-4.23536e-06,1.93396e-05,-1.09866e-05,1.45942e-06,-4.99899e-06,0
-3.12866e-05,1.893e-05,-8.01528e-06,-5.60539e-06,1.93333e-05,-1.03669e-05,3.16263e-06,-4.8739e-06,0
-3.05189e-05,1.72458e-05,-1.14268e-05,-6.0554e-06,2.00362e-05,-9.55494e-06,5.04108e-06,-3.55816e-06,0
-2.89191e-05,1.64014e-05,-1.42e-05,-6.9812e-06,2.07411e-05,-1.06171e-05,5.79537e-06,-1.56702e-06,0
-2.81606e-05,1.65491e-05,-1.48697e-05,-8.94973e-06,2.04332e-05,-1.24619e-05,5.67325e-06,-3.61597e-07,0
-2.81368e-05,1.60137e-05,-1.35065e-05,-1.12646e-05,1.87707e-05,-1.28061e-05,5.63032e-06,-1.69567e-06,0
-2.73903e-05,1.49228e-05,-1.31273e-05,-1.25048e-05,1.58947e-05,-1.23134e-05,6.04402e-06,-3.78985e-06,0
-2.66913e-05,1.48114e-05,-1.52701e-05,-1.22493e-05,8.86077e-06,-1.27525e-05,6.70972e-06,-4.76906e-06,0
-2.8049e-05,1.57602e-05,-1.83862e-05,-1.10423e-05,-6.33912e-06,-1.31288e-05,7.16639e-06,-4.50483e-06,0
-3.09819e-05,1.61764e-05,-2.07357e-05,-1.07956e-05,-2.60325e-05,-1.31279e-05,6.6642e-06,-4.13262e-06,0
-3.32823e-05,1.42062e-05,-2.07674e-05,-9.48423e-06,-3.04867e-05,-1.34815e-05,6.67804e-06,-3.5973e-06,0
-3.43101e-05,1.10923e-05,-1.81002e-05,-4.4786e-06,-8.06129e-06,-1.36698e-05,8.06746e-06,-1.90016e-06,0
-3.38362e-05,9.63838e-06,-1.51477e-05,2.43504e-06,2.45701e-05,-1.22111e-05,8.94159e-06,-5.75003e-07,0
-3.21761e-05,9.90637e-06,-1.26164e-05,9.61263e-06,4.62415e-05,-1.03984e-05,8.28496e-06,-1.13309e-06,0
-3.07713e-05,1.10867e-05,-1.04767e-05,1.51994e-05,5.53542e-05,-9.8184e-06,6.68786e-06,-2.25542e-06,0
-3.09456e-05,1.16528e-05,-9.66301e-06,1.82711e-05,5.66049e-05,-1.02361e-05,5.60957e-06,-1.19243e-06,0
-3.16633e-05,1.2837e-05,-8.44141e-06,1.66395e-05,5.32989e-05,-8.67104e-06,5.87853e-06,9.63552e-08,0
-3.12426e-05,1.48048e-05,-8.34888e-06,1.04278e-05,4.80917e-05,-5.90747e-06,5.90009e-06,1.5562e-07,0
-3.03406e-05,1.3347e-05,-1.28372e-05,3.16226e-06,3.88543e-05,-5.80848e-06,5.70274e-06,1.05047e-06,0
-3.13653e-05,1.05412e-05,-2.084e-05,-2.21942e-06,2.7623e-05,-7.21632e-06,6.45272e-06,1.42962e-06,0
-3.32928e-05,9.58487e-06,-2.70186e-05,-3.29451e-06,2.00441e-05,-7.16502e-06,5.41805e-06,2.62662e-06,0
-3.39721e-05,9.6132e-06,-2.79346e-05,-2.24303e-06,1.97589e-05,-7.1968e-06,3.66235e-06,3.77103e-06,0
-3.3371e-05,8.82442e-06,-2.36428e-05,-1.42769e-06,2.30873e-05,-9.21319e-06,3.99293e-06,3.57368e-06,0
-3.27263e-05,9.11372e-06,-1.81526e-05,-1.71122e-06,2.19133e-05,-1.05942e-05,5.76791e-06,3.48283e-06,0
-3.22324e-05,1.17545e-05,-1.46106e-05,-3.82164e-06,7.11279e-06,-1.01918e-05,7.04422e-06,3.11688e-06,0
-3.09638e-05,1.41688e-05,-1.23976e-05,-5.1496e-06,-1.59504e-05,-9.33567e-06,8.15163e-06,2.62937e-06,0
-3.07215e-05,1.35675e-05,-1.08061e-05,-3.97864e-06,-2.45437e-05,-9.18856e-06,8.86456e-06,1.72214e-06,0
-3.00653e-05,9.53943e-06,-7.03365e-06,-1.21215e-06,-1.42232e-05,-8.57812e-06,8.3044e-06,2.06074e-06,0
-2.55351e-05,4.59034e-06,8.58659e-07,3.33786e-07,-3.6441e-06,-8.29037e-06,7.92532e-06,3.24978e-06,0
-1.83201e-05,1.87843e-06,1.44419e-05,-5.88289e-07,7.66156e-06,-8.93434e-06,8.91138e-06,3.61013e-06,0
-1.31625e-05,3.0321e-06,3.3352e-05,-1.46478e-06,3.18142e-05,-9.73915e-06,1.12612e-05,2.70978e-06,0
-1.23282e-05,5.99525e-06,5.23115e-05,-4.98444e-07,5.2248e-05,-1.04542e-05,1.27742e-05,1.55535e-06,0
-1.52021e-05,7.83657e-06,6.09233e-05,-3.42128e-07,4.92063e-05,-1.18983e-05,1.34579e-05,6.52616e-07,0
-2.08505e-05,7.97901e-06,5.0818e-05,-2.51315e-06,3.42022e-05,-1.35453e-05,1.43063e-05,2.39894e-07,0
-2.81477e-05,8.20935e-06,2.38378e-05,-5.09275e-06,2.24803e-05,-1.35431e-05,1.58012e-05,6.27857e-07,0
-3.54871e-05,9.21859e-06,-1.25718e-05,-6.42319e-06,1.40781e-05,-1.26079e-05,1.7733e-05,1.72677e-06,0
-4.1705e-05,1.0616e-05,-5.1178e-05,-7.44883e-06,6.74968e-06,-1.22067e-05,2.00195e-05,2.27105e-06,0
-4.67942e-05,1.14311e-05,-8.27723e-05,-8.38071e-06,1.59274e-07,-1.15301e-05,2.19959e-05,1.99155e-06,0
-5.0329e-05,1.03555e-05,-9.82656e-05,-9.3312e-06,-2.4728e-06,-1.13117e-05,2.23471e-05,2.40143e-06,0
-5.20739e-05,7.90135e-06,-9.57001e-05,-9.99998e-06,-2.04487e-06,-1.25295e-05,2.02665e-05,2.44119e-06,0
-5.14395e-05,6.40994e-06,-8.01779e-05,-1.03753e-05,-3.54517e-07,-1.30512e-05,1.77745e-05,7.66428e-07,0
-4.9957e-05,5.45966e-06,-6.17804e-05,-9.69076e-06,1.17817e-06,-1.23813e-05,1.83943e-05,-1.04871e-06,0
-4.83999e-05,4.18309e-06,-4.5738e-05,-7.80227e-06,3.51124e-07,-1.10561e-05,2.14192e-05,-1.81994e-06,0
-4.5884e-05,3.80347e-06,-3.31243e-05,-6.33381e-06,2.26586e-08,-8.8185e-06,2.4643e-05,-2.66146e-06,0
-4.27354e-05,5.52928e-06,-2.25626e-05,-4.3574e-06,2.05147e-06,-6.75092e-06,2.44314e-05,-4.73788e-06,0
-3.84871e-05,1.02056e-05,-1.19802e-05,-4.51184e-06,3.93976e-06,-6.26999e-06,2.26392e-05,-6.86755e-06,0
-3.37216e-05,1.52686e-05,-4.25778e-06,-5.53061e-06,3.6339e-06,-6.31922e-06,2.25345e-05,-8.43968e-06,0
-3.04482e-05,1.86833e-05,7.95742e-07,-4.11093e-06,3.14927e-06,-6.06327e-06,2.10151e-05,-8.57321e-06,0
-2.83627e-05,2.04944e-05,5.04666e-06,-2.57244e-06,4.73517e-06,-5.28858e-06,1.99261e-05,-7.53761e-06,0
-2.73979e-05,2.19617e-05,9.07181e-06,-1.95951e-06,8.30463e-06,-5.31508e-06,2.07952e-05,-5.62089e-06,0
-2.74131e-05,2.24275e-05,1.11766e-05,-7.84043e-07,1.24695e-05,-4.53584e-06,1.96904e-05,-3.27075e-06,0
-2.6863e-05,2.18401e-05,1.00945e-05,4.52636e-07,1.40938e-05,-2.8261e-06,1.58768e-05,-4.13289e-06,0
-2.59166e-05,2.17303e-05,7.53944e-06,-1.5222e-06,1.21343e-05,-3.09668e-06,1.22922e-05,-5.48334e-06,0
-2.55621e-05,2.37123e-05,6.43578e-06,-7.56631e-06,9.58041e-06,-4.24758e-06,1.04359e-05,-4.89955e-06,0
-2.65553e-05,2.56156e-05,7.10808e-06,-1.45286e-05,8.62508e-06,-4.36e-06,9.56265e-06,-3.1661e-06,0
-2.75584e-05,2.5591e-05,8.82229e-06,-1.74808e-05,8.87964e-06,-3.95964e-06,9.55514e-06,-2.27408e-06,0
-2.83252e-05,2.53977e-05,1.19213e-05,-1.33997e-05,8.06465e-06,-4.29835e-06,8.99873e-06,-1.9362e-06,0
-2.92541e-05,2.4626e-05,1.51387e-05,-2.17918e-06,5.64687e-06,-4.2063e-06,7.21378e-06,-7.7353e-07,0
-2.97594e-05,2.16111e-05,1.63839e-05,1.03381e-05,3.95496e-06,-4.01503e-06,5.57268e-06,1.02514e-06,0
-3.01802e-05,1.558e-05,1.35429e-05,1.46753e-05,4.74689e-06,-3.48174e-06,5.09115e-06,2.3926e-06,0
-3.09108e-05,1.02022e-05,7.52882e-06,8.7006e-06,6.97052e-06,-2.77465e-06,5.84666e-06,2.68895e-06,0
-3.12097e-05,8.30156e-06,8.92771e-07,9.75904e-07,8.59099e-06,-2.29421e-06,7.59553e-06,3.19506e-06,0
-3.0757e-05,8.75543e-06,-3.75467e-06,-9.87017e-07,8.94467e-06,-1.57788e-06,1.05153e-05,3.54209e-06,0
-2.97922e-05,8.46267e-06,-6.2761e-06,5.34198e-07,9.43026e-06,-1.33867e-06,1.32182e-05,4.23332e-06,0
-2.94969e-05,6.71099e-06,-7.35314e-06,2.45892e-06,1.15327e-05,-7.7325e-07,1.35914e-05,4.78023e-06,0
-3.06936e-05,6.15202e-06,-8.15237e-06,3.3236e-06,1.45247e-05,2.74816e-07,1.24333e-05,4.299e-06,0
-3.11999e-05,9.08211e-06,-8.60672e-06,1.45341e-06,1.59593e-05,4.05681e-07,1.25388e-05,3.37455e-06,0
-2.95854e-05,1.15119e-05,-8.54298e-06,-1.67235e-06,1.58837e-05,4.2995e-07,1.37107e-05,4.06463e-06,0
-2.78649e-05,1.13351e-05,-8.87204e-06,-3.77078e-06,1.5251e-05,5.66064e-07,1.38116e-05,5.63865e-06,0
-2.79923e-05,1.22733e-05,-9.32551e-06,-4.75845e-06,1.38973e-05,3.14703e-07,1.33106e-05,4.94742e-06,0
-2.74092e-05,1.28337e-05,-8.80087e-06,-6.52963e-06,1.37865e-05,2.21798e-07,1.34866e-05,4.10275e-06,0
-2.59044e-05,1.21517e-05,-7.13408e-06,-5.57691e-06,1.40409e-05,-6.28708e-07,1.3793e-05,4.92201e-06,0
-2.36709e-05,1.05207e-05,-6.79889e-06,1.26291e-06,1.23886e-05,-2.87844e-06,1.43408e-05,5.67452e-06,0
-2.18145e-05,8.00347e-06,-7.88112e-06,8.8096e-06,8.03162e-06,-5.61123e-06,1.47145e-05,5.47532e-06,0
-2.24962e-05,7.87607e-06,-1.06415e-05,1.15563e-05,1.68874e-06,-7.74953e-06,1.37424e-05,4.41968e-06,0
-2.34123e-05,8.7431e-06,-1.13563e-05,8.23389e-06,-3.83903e-06,-1.02074e-05,1.15744e-05,3.34419e-06,0
-2.43938e-05,9.91204e-06,-6.73146e-06,4.0652e-06,-2.48101e-06,-1.35198e-05,8.7879e-06,2.25544e-06,0
-2.62483e-05,1.01721e-05,7.47909e-08,1.48018e-06,7.03217e-06,-1.62393e-05,6.4971e-06,2.2186e-06,0
-2.80794e-05,1.02892e-05,6.33823e-06,-2.41819e-06,1.49087e-05,-1.7034e-05,5.83281e-06,2.36589e-06,0
-2.78474e-05,1.10025e-05,7.55438e-06,-9.20488e-06,1.71386e-05,-1.66985e-05,7.82805e-06,1.7263e-06,0
-2.70568e-05,1.05296e-05,4.36198e-06,-1.51664e-05,1.71016e-05,-1.36689e-05,1.07233e-05,6.85064e-07,0
-2.8142e-05,9.65408e-06,1.73889e-06,-1.56146e-05,1.78214e-05,-9.41071e-06,1.3165e-05,5.28762e-07,0
-2.90345e-05,9.10105e-06,1.43947e-06,-1.17966e-05,1.81211e-05,-7.41131e-06,1.41375e-05,1.95075e-06,0
-2.86352e-05,8.40263e-06,1.2678e-06,-5.90146e-06,1.72853e-05,-6.26168e-06,1.31274e-05,4.71772e-06,0
-2.80707e-05,5.86654e-06,-7.36587e-09,4.36212e-07,1.69438e-05,-5.79617e-06,1.1865e-05,8.80584e-06,0
-2.79355e-05,3.67972e-06,-7.59764e-07,5.07773e-06,1.61228e-05,-6.90274e-06,1.22535e-05,1.27343e-05,0
-2.77564e-05,4.10111e-06,-1.97434e-06,6.95579e-06,1.32429e-05,-8.25616e-06,1.42606e-05,1.46957e-05,0
-2.64857e-05,5.9763e-06,-5.31262e-06,7.25265e-06,1.07367e-05,-8.3532e-06,1.52672e-05,1.2864e-05,0
-2.43741e-05,5.84334e-06,-9.64023e-06,5.33046e-06,1.32288e-05,-8.59537e-06,1.40902e-05,8.90782e-06,0
-2.38551e-05,4.10782e-06,-1.28065e-05,2.28227e-06,1.89219e-05,-1.02026e-05,1.20382e-05,5.57946e-06,0
-2.44183e-05,3.37781e-06,-1.62872e-05,2.79714e-07,2.20866e-05,-1.25959e-05,1.20322e-05,3.71198e-06,0
-2.47737e-05,6.25899e-06,-2.14958e-05,-1.34031e-06,2.17184e-05,-1.36276e-05,1.29631e-05,2.46386e-06,0
-2.55764e-05,1.04824e-05,-2.56897e-05,-4.43489e-06,2.15822e-05,-1.38933e-05,1.2574e-05,1.82461e-06,0
-2.56209e-05,1.23585e-05,-2.68621e-05,-9.48056e-06,2.03657e-05,-1.60435e-05,1.17542e-05,2.57994e-06,0
-2.55302e-05,1.18075e-05,-2.59436e-05,-1.29524e-05,1.81556e-05,-1.74663e-05,1.2824e-05,4.72913e-06,0
-2.50565e-05,1.09503e-05,-2.39894e-05,-1.39465e-05,1.6764e-05,-1.61131e-05,1.50911e-05,6.32223e-06,0
-2.37151e-05,1.04748e-05,-2.13804e-05,-1.17378e-05,1.64984e-05,-1.27984e-05,1.59694e-05,6.83293e-06,0
-2.41496e-05,1.07397e-05,-1.8035e-05,-6.89959e-06,1.61847e-05,-8.92615e-06,1.3822e-05,4.55305e-06,0
-2.5987e-05,1.28061e-05,-1.6142e-05,-2.29771e-06,1.47692e-05,-6.87169e-06,1.32873e-05,1.13926e-06,0
-2.77106e-05,1.41763e-05,-1.55533e-05,4.81167e-07,1.48056e-05,-8.02101e-06,1.61672e-05,8.11575e-07,0
-2.63614e-05,1.42379e-05,-1.33054e-05,2.26712e-06,1.61763e-05,-1.11387e-05,1.79568e-05,2.49823e-06,0
-2.4198e-05,1.40594e-05,-1.02682e-05,1.47205e-05,1.71676e-05,-1.14806e-05,1.9146e-05,3.61464e-06,0
-2.51796e-05,1.32613e-05,-7.92049e-06,3.68557e-05,1.7055e-05,-1.02849e-05,1.88623e-05,1.80877e-06,0
-2.71379e-05,1.27651e-05,-5.59869e-06,4.72516e-05,1.69399e-05,-8.48669e-06,1.7569e-05,-7.15517e-07,0
-2.88131e-05,1.28958e-05,-4.82647e-06,3.5568e-05,1.65824e-05,-6.6253e-06,1.58415e-05,-2.13775e-06,0
-2.94588e-05,1.37123e-05,-5.00267e-06,1.02818e-05,1.54133e-05,-7.18882e-06,1.53186e-05,-1.88069e-06,0
-2.92199e-05,1.51241e-05,-4.8247e-06,-1.14899e-05,1.43246e-05,-8.92339e-06,1.6289e-05,-9.62186e-07,0
-2.94749e-05,1.46774e-05,-4.81219e-06,-2.26409e-05,1.392e-05,-1.03641e-05,1.65841e-05,1.33512e-07,0
-3.04199e-05,1.33963e-05,-4.60868e-06,-2.75276e-05,1.37148e-05,-1.00209e-05,1.542e-05,1.02684e-06,0
-2.92297e-05,1.32654e-05,-4.18367e-06,-3.20177e-05,1.36302e-05,-8.62795e-06,1.28618e-05,9.97137e-07,0
-2.81229e-05,1.38312e-05,-4.09752e-06,-3.80482e-05,1.36705e-05,-8.16885e-06,1.01904e-05,1.14225e-06,0
-2.91468e-05,1.29543e-05,-5.14845e-06,-4.48552e-05,1.31544e-05,-9.72852e-06,7.49741e-06,1.94207e-06,0
-2.99081e-05,1.04031e-05,-6.58323e-06,-4.96761e-05,1.35905e-05,-1.12296e-05,4.72966e-06,2.62986e-06,0
-2.98579e-05,8.24625e-06,-7.64998e-06,-4.70126e-05,1.52466e-05,-1.09075e-05,9.83513e-07,1.70746e-06,0
-3.02501e-05,7.57822e-06,-8.05309e-06,-3.53986e-05,1.64586e-05,-9.1864e-06,-2.37388e-06,4.46721e-07,0
-3.14452e-05,6.77555e-06,-8.68741e-06,-2.1177e-05,1.66661e-05,-8.43653e-06,-2.5929e-06,-1.90997e-07,0
-3.34036e-05,5.48246e-06,-9.8045e-06,-1.23706e-05,1.55704e-05,-1.02473e-05,8.2137e-07,-1.26279e-06,0
-3.65411e-05,6.15407e-06,-1.23116e-05,-9.16498e-06,1.33389e-05,-1.28033e-05,3.91277e-06,-3.91348e-06,0
-3.76414e-05,8.50362e-06,-1.49601e-05,-8.59112e-06,1.16937e-05,-1.42084e-05,6.30085e-06,-5.30308e-06,0
-3.63504e-05,1.0003e-05,-1.64617e-05,-8.29243e-06,1.2337e-05,-1.45634e-05,1.03713e-05,-3.81237e-06,0
-3.49488e-05,1.03437e-05,-1.6438e-05,-6.56633e-06,1.36585e-05,-1.40872e-05,1.41867e-05,-2.05495e-06,0
-3.40917e-05,1.08711e-05,-1.3489e-05,-3.61882e-06,1.41593e-05,-1.4892e-05,1.61954e-05,-2.64759e-06,0
-3.37562e-05,1.22763e-05,-1.05415e-05,-1.656e-06,1.61294e-05,-1.73648e-05,1.63512e-05,-3.61501e-06,0
-3.26331e-05,1.5004e-05,-1.01594e-05,-1.67132e-06,1.8353e-05,-1.91955e-05,1.54059e-05,-3.31839e-06,0
-3.19383e-05,1.88139e-05,-1.01715e-05,-2.11175e-06,1.84169e-05,-1.91315e-05,1.26671e-05,-4.04242e-06,0
-3.36855e-05,2.08295e-05,-9.11103e-06,-1.30631e-06,1.79562e-05,-1.85901e-05,9.9645e-06,-4.54537e-06,0
-3.54548e-05,2.20671e-05,-7.47222e-06,-1.48783e-07,1.77382e-05,-1.78402e-05,1.03242e-05,-3.52316e-06,0
-3.5456e-05,2.37197e-05,-6.3313e-06,8.46529e-07,1.82745e-05,-1.5764e-05,1.16198e-05,-2.60446e-06,0
-3.39334e-05,2.37834e-05,-7.34736e-06,1.80437e-06,1.97646e-05,-1.49752e-05,1.32922e-05,-2.2087e-06,0
-3.18213e-05,2.1086e-05,-9.18716e-06,2.04579e-06,1.9221e-05,-1.5822e-05,1.49299e-05,-1.21016e-06,0
-3.0144e-05,1.62222e-05,-9.36541e-06,6.60101e-07,1.62557e-05,-1.67587e-05,1.5559e-05,-2.88878e-07,0
-2.99874e-05,1.40411e-05,-7.6487e-06,-9.3624e-07,1.37745e-05,-1.66514e-05,1.63059e-05,1.09648e-07,0
-3.08886e-05,1.67237e-05,-6.19463e-06,-2.51974e-06,1.28041e-05,-1.63403e-05,1.69859e-05,-1.0403e-07,0
-3.19137e-05,2.16886e-05,-5.37715e-06,-4.20688e-06,1.27599e-05,-1.66361e-05,1.73099e-05,-4.45107e-07,0
-3.29032e-05,2.50755e-05,-4.01858e-06,-5.64602e-06,1.37372e-05,-1.77682e-05,1.56527e-05,-7.29661e-07,0
-3.3393e-05,2.72568e-05,-3.4249e-06,-7.20853e-06,1.51587e-05,-1.85751e-05,1.07126e-05,-1.48433e-06,0
-3.36265e-05,2.81771e-05,-4.1828e-06,-7.48532e-06,1.68894e-05,-1.78798e-05,2.65097e-06,-2.56297e-06,0
-3.46092e-05,2.6259e-05,-5.38428e-06,-6.51299e-06,1.93068e-05,-1.59665e-05,-5.58773e-06,-2.69839e-06,0
-3.62128e-05,2.25059e-05,-6.61169e-06,-5.58755e-06,2.02375e-05,-1.33586e-05,-8.46563e-06,-9.31792e-07,0
-3.62835e-05,1.84487e-05,-7.36106e-06,-5.99051e-06,1.93225e-05,-1.18455e-05,-3.25873e-06,4.59749e-07,0
-3.45866e-05,1.53385e-05,-7.25443e-06,-6.90459e-06,1.82584e-05,-1.13633e-05,7.33406e-06,2.34961e-07,0
-3.3724e-05,1.39021e-05,-6.80414e-06,-8.39036e-06,1.7789e-05,-1.05998e-05,1.76468e-05,-2.86264e-07,0
-3.39828e-05,1.40879e-05,-6.07459e-06,-1.02772e-05,1.73605e-05,-9.62382e-06,2.47121e-05,6.13983e-07,0
-3.44188e-05,1.55911e-05,-4.05671e-06,-1.19739e-05,1.60812e-05,-9.98113e-06,2.96626e-05,2.43981e-06,0
-3.57416e-05,1.78642e-05,-1.34491e-06,-1.25938e-05,1.32688e-05,-1.15716e-05,3.33039e-05,3.44682e-06,0
-3.52837e-05,1.82547e-05,2.93e-07,-1.26583e-05,1.07049e-05,-1.14626e-05,3.46411e-05,4.01e-06,0
-3.17869e-05,1.64014e-05,5.17276e-07,-1.28754e-05,1.06275e-05,-8.8934e-06,3.39569e-05,5.23953e-06,0
-2.89542e-05,1.44074e-05,1.65032e-07,-1.1746e-05,1.28815e-05,-6.86804e-06,3.22045e-05,6.31502e-06,0
-2.7736e-05,1.14763e-05,-1.3155e-06,-9.3284e-06,1.39201e-05,-5.92264e-06,2.87476e-05,5.03796e-06,0
-2.78099e-05,8.37882e-06,-2.85717e-06,-7.65803e-06,1.21525e-05,-5.23886e-06,2.49363e-05,2.64821e-06,0
-3.06618e-05,6.32025e-06,-3.81227e-06,-7.74685e-06,9.54167e-06,-6.40538e-06,2.3366e-05,-4.63188e-07,0
-3.21623e-05,4.37525e-06,-4.32752e-06,-8.91799e-06,8.32351e-06,-6.69627e-06,2.19878e-05,-3.41111e-06,0
-3.13047e-05,1.07693e-06,-2.1953e-06,-9.01877e-06,9.48823e-06,-4.49711e-06,2.01794e-05,-3.03044e-06,0
-3.03636e-05,-2.44638e-06,1.401e-07,-6.49593e-06,1.12963e-05,-5.56261e-06,1.81071e-05,-1.0481e-06,0
-2.89869e-05,-3.32797e-06,7.83306e-07,-3.21767e-06,1.3403e-05,-8.84379e-06,1.6166e-05,-2.19034e-07,0
-2.81117e-05,-4.35081e-06,-7.17845e-07,-1.74494e-06,1.53767e-05,-1.05456e-05,1.57597e-05,-2.11002e-06,0
-2.79245e-05,-6.69174e-06,-3.52831e-06,-2.78957e-06,1.62436e-05,-1.05357e-05,1.44962e-05,-3.10987e-06,0
-2.76717e-05,-9.59163e-06,-6.83721e-06,-5.68893e-06,1.66479e-05,-1.06526e-05,1.22191e-05,-2.19475e-06,0
-2.70925e-05,-1.00708e-05,-1.19753e-05,-8.33552e-06,1.74043e-05,-1.28383e-05,9.90935e-06,-1.29868e-06,0
-2.66967e-05,-8.35347e-06,-1.73964e-05,-9.52958e-06,1.72467e-05,-1.53428e-05,8.37764e-06,-8.49406e-07,0
-2.63036e-05,-6.72291e-06,-2.1637e-05,-8.96822e-06,1.74479e-05,-1.60763e-05,7.71822e-06,-1.34068e-06,0
-2.76794e-05,-5.4756e-06,-2.30834e-05,-7.60732e-06,1.81689e-05,-1.36852e-05,7.05054e-06,-9.74542e-07,0
-2.98134e-05,-5.79213e-06,-2.20792e-05,-7.45898e-06,1.65887e-05,-9.69476e-06,6.5535e-06,-4.56789e-07,0
-3.0841e-05,-7.10708e-06,-1.93574e-05,-8.71099e-06,1.23673e-05,-6.08932e-06,7.02892e-06,-9.80513e-08,0
-3.1331e-05,-8.37869e-06,-1.53164e-05,-8.85244e-06,6.107e-06,-4.28927e-06,7.65794e-06,1.25974e-06,0
-3.175e-05,-7.43979e-06,-1.18383e-05,-4.48764e-06,-1.93292e-06,-4.10814e-06,7.00423e-06,3.15419e-06,0
-3.19736e-05,-4.05891e-06,-1.06798e-05,2.38649e-06,-8.0887e-06,-4.72044e-06,5.26909e-06,2.88183e-06,0
-3.21771e-05,1.59475e-07,-1.1306e-05,6.25204e-06,-6.47888e-06,-5.60839e-06,2.98806e-06,9.79615e-07,0
-3.25625e-05,3.15857e-06,-1.1947e-05,3.17843e-06,1.54565e-06,-6.7315e-06,2.35423e-06,-2.85936e-08,0
-3.22366e-05,5.64069e-06,-1.15018e-05,-5.13112e-06,8.08294e-06,-7.43286e-06,5.02456e-06,2.05305e-06,0
-3.11985e-05,7.88252e-06,-1.10129e-05,-1.43833e-05,9.48895e-06,-7.05383e-06,8.60675e-06,5.92302e-06,0
-3.05466e-05,9.62574e-06,-1.032e-05,-2.09525e-05,9.09104e-06,-6.47448e-06,1.01929e-05,6.49042e-06,0
-3.06984e-05,1.06665e-05,-8.11895e-06,-2.68222e-05,9.09267e-06,-4.5705e-06,9.0365e-06,3.62173e-06,0
-3.05441e-05,1.13709e-05,-5.68776e-06,-3.23531e-05,9.4356e-06,-2.41696e-06,6.50002e-06,7.48678e-07,0
-3.03898e-05,1.28966e-05,-3.91029e-06,-2.85904e-05,9.91617e-06,-3.18268e-06,7.19651e-06,-1.34127e-06,0
-3.03847e-05,1.43513e-05,-4.78465e-06,-1.35793e-05,1.05525e-05,-5.54473e-06,9.92605e-06,-1.52147e-06,0
-3.0525e-05,1.46545e-05,-5.6863e-06,1.46663e-06,1.11895e-05,-6.13422e-06,1.09307e-05,4.38203e-07,0
-3.16625e-05,1.44227e-05,-3.2354e-06,7.06239e-06,1.21102e-05,-6.51867e-06,9.12087e-06,1.94947e-06,0
-3.16777e-05,1.58941e-05,-4.39671e-07,2.69789e-06,1.22372e-05,-7.52426e-06,6.69949e-06,1.67603e-06,0
-2.99144e-05,2.00653e-05,1.2198e-06,-1.76824e-06,1.05783e-05,-7.17255e-06,6.62775e-06,1.14011e-06,0
-2.94155e-05,2.45347e-05,2.83506e-06,-8.27024e-07,7.91291e-06,-7.10364e-06,6.52844e-06,2.68626e-06,0
-2.96178e-05,2.64494e-05,5.03757e-06,8.53754e-07,5.36216e-06,-7.99303e-06,4.54905e-06,4.76747e-06,0
-3.06163e-05,2.66851e-05,5.31713e-06,9.22377e-07,5.92399e-06,-8.26017e-06,3.89851e-06,4.37093e-06,0
-3.09512e-05,2.61573e-05,1.37122e-06,-1.17438e-06,8.7593e-06,-6.81776e-06,5.75179e-06,2.63298e-06,0
-2.91797e-05,2.48764e-05,-3.70835e-06,-1.76669e-06,1.11355e-05,-5.5935e-06,6.91402e-06,2.38896e-06,0
-2.7646e-05,2.25594e-05,-6.63427e-06,-1.26677e-06,1.26598e-05,-7.16157e-06,7.72231e-06,3.20972e-06,0
-2.77127e-05,1.92021e-05,-6.65503e-06,-1.54338e-06,1.35521e-05,-9.75086e-06,9.178e-06,3.46124e-06,0
-3.01529e-05,1.64509e-05,-5.49101e-06,-2.74392e-06,1.37006e-05,-1.14723e-05,1.08936e-05,2.79622e-06,0
-3.33096e-05,1.51086e-05,-5.67368e-06,-3.04119e-06,1.37197e-05,-1.21517e-05,1.17497e-05,3.50691e-06,0
-3.38416e-05,1.43871e-05,-7.3988e-06,-2.73902e-06,1.42818e-05,-1.25075e-05,1.19113e-05,5.00299e-06,0
-3.18017e-05,1.30866e-05,-8.31612e-06,-2.66644e-06,1.43446e-05,-1.24417e-05,1.15023e-05,4.39116e-06,0
-3.06456e-05,1.11452e-05,-8.22543e-06,-2.39361e-06,1.4675e-05,-1.19947e-05,1.09096e-05,2.04566e-06,0
-3.05651e-05,1.01822e-05,-9.32244e-06,-1.99198e-06,1.52436e-05,-1.13544e-05,1.20072e-05,2.55798e-07,0
-3.00274e-05,1.16314e-05,-1.20159e-05,-7.05252e-07,1.50727e-05,-1.00277e-05,1.50381e-05,-1.18854e-06,0
-2.95894e-05,1.41673e-05,-1.37003e-05,4.7659e-07,1.4623e-05,-7.69609e-06,1.7643e-05,-2.96692e-06,0
-3.05099e-05,1.46748e-05,-1.34131e-05,1.01297e-06,1.46734e-05,-5.70387e-06,1.77772e-05,-3.48055e-06,0
-3.09561e-05,1.3494e-05,-1.35233e-05,-4.49574e-07,1.51771e-05,-5.02371e-06,1.71078e-05,-1.90433e-06,0
-2.98822e-05,1.35768e-05,-1.33681e-05,-1.10818e-06,1.62839e-05,-5.76423e-06,1.68364e-05,9.75543e-07,0
-2.91309e-05,1.54986e-05,-1.22837e-05,1.47665e-07,1.7955e-05,-6.71038e-06,1.62658e-05,3.66194e-06,0
-3.00251e-05,1.80972e-05,-1.19027e-05,2.11265e-06,1.8606e-05,-6.44292e-06,1.4878e-05,5.25463e-06,0
-3.12288e-05,2.02744e-05,-1.19973e-05,2.86654e-06,1.82591e-05,-5.99859e-06,1.29115e-05,5.58817e-06,0
-3.21404e-05,2.09251e-05,-1.12117e-05,2.40072e-06,1.77925e-05,-6.11445e-06,1.13971e-05,3.79138e-06,0
-3.18155e-05,2.03236e-05,-9.81752e-06,1.24787e-06,1.72884e-05,-6.44977e-06,1.20098e-05,8.44356e-09,0
-2.92708e-05,1.91085e-05,-8.77405e-06,-6.69941e-07,1.669e-05,-6.47439e-06,1.37844e-05,-1.06238e-06,0
-2.82975e-05,1.83045e-05,-8.00744e-06,-1.93414e-06,1.71074e-05,-7.00815e-06,1.4871e-05,8.41602e-07,0
-2.78992e-05,1.72362e-05,-7.13648e-06,-2.34168e-06,1.79567e-05,-9.32654e-06,1.49929e-05,9.04386e-08,0
-2.71743e-05,1.75339e-05,-6.37585e-06,-2.21798e-06,1.73105e-05,-1.15193e-05,1.41364e-05,-3.75237e-07,0
-2.71204e-05,2.06534e-05,-6.0197e-06,-2.65166e-06,1.73893e-05,-1.16433e-05,1.26252e-05,6.34884e-07,0
-2.75482e-05,2.45148e-05,-6.54146e-06,-3.98798e-06,1.84583e-05,-1.21515e-05,1.12071e-05,3.53877e-07,0
-2.89917e-05,2.65289e-05,-9.0966e-06,-7.78832e-06,1.92908e-05,-1.20525e-05,1.15352e-05,9.44008e-07,0
-3.00466e-05,2.54152e-05,-1.28439e-05,-1.26372e-05,1.86693e-05,-1.06875e-05,1.24642e-05,-1.88319e-07,0
-3.06258e-05,2.27748e-05,-1.51166e-05,-1.24673e-05,1.68521e-05,-1.00957e-05,1.24429e-05,-3.19788e-06,0
-3.09011e-05,1.93764e-05,-1.58283e-05,-9.09147e-06,1.61201e-05,-1.1065e-05,1.24427e-05,-5.9901e-06,0
-3.0796e-05,1.79293e-05,-1.54733e-05,-6.88499e-06,1.50706e-05,-1.2438e-05,1.26804e-05,-6.56079e-06,0
-3.00921e-05,1.86499e-05,-1.58733e-05,-6.16177e-06,1.38301e-05,-1.38807e-05,1.32943e-05,-4.58897e-06,0
-3.00264e-05,2.06483e-05,-1.81905e-05,-1.16785e-05,1.28198e-05,-1.51292e-05,1.37589e-05,-5.91388e-07,0
-3.04762e-05,2.24261e-05,-2.11935e-05,-2.76571e-05,1.21389e-05,-1.59588e-05,1.39306e-05,3.62361e-06,0
-3.01034e-05,2.28071e-05,-2.24543e-05,-4.65898e-05,1.14464e-05,-1.62722e-05,1.40785e-05,4.9264e-06,0
-2.88501e-05,2.12896e-05,-2.1163e-05,-5.58579e-05,1.09694e-05,-1.56521e-05,1.42544e-05,4.43551e-06,0
-2.71636e-05,1.9317e-05,-1.87391e-05,-5.22531e-05,9.94489e-06,-1.52606e-05,1.43427e-05,3.76291e-06,0
-2.60631e-05,1.76936e-05,-1.59846e-05,-4.08105e-05,8.36497e-06,-1.51252e-05,1.48583e-05,3.56448e-06,0
-2.60711e-05,1.52965e-05,-1.3146e-05,-2.57453e-05,7.9019e-06,-1.54004e-05,1.57834e-05,2.87735e-06,0
-2.74096e-05,1.26999e-05,-9.85182e-06,-8.21824e-06,9.40957e-06,-1.58405e-05,1.56052e-05,2.34225e-06,0
-2.89168e-05,9.27255e-06,-5.2212e-06,1.19491e-05,1.25654e-05,-1.69017e-05,1.44835e-05,2.39656e-06,0
-2.99387e-05,6.27303e-06,3.34118e-06,3.48599e-05,1.44914e-05,-1.81239e-05,1.41562e-05,2.18006e-06,0
-3.02452e-05,4.47996e-06,1.90091e-05,5.48878e-05,1.39214e-05,-1.87818e-05,1.57905e-05,1.17065e-06,0
-2.96442e-05,4.03548e-06,4.12282e-05,6.80545e-05,1.25139e-05,-1.72046e-05,1.75973e-05,8.77283e-07,0
-2.88179e-05,5.22636e-06,6.20049e-05,7.24692e-05,1.04209e-05,-1.41518e-05,1.80649e-05,1.30956e-06,0
-2.91981e-05,9.35745e-06,7.10013e-05,6.22004e-05,7.98207e-06,-1.17644e-05,1.85793e-05,2.29182e-06,0
-3.03487e-05,1.69031e-05,5.94538e-05,4.74407e-05,9.40521e-06,-1.12671e-05,1.93047e-05,2.18453e-06,0
-3.11518e-05,2.46023e-05,2.94466e-05,3.7847e-05,1.25309e-05,-1.13825e-05,1.94505e-05,3.06238e-06,0
-3.0865e-05,2.74218e-05,-1.32971e-05,2.19553e-05,1.11612e-05,-1.05915e-05,2.01693e-05,7.44732e-06,0
-3.02032e-05,2.73095e-05,-5.44713e-05,6.44702e-06,6.1605e-06,-1.0821e-05,2.12127e-05,1.11443e-05,0
-3.23878e-05,2.4868e-05,-8.00618e-05,-7.80547e-06,1.7973e-06,-1.19843e-05,2.42749e-05,1.12896e-05,0
-3.48607e-05,1.99121e-05,-9.09091e-05,-3.44626e-05,2.26124e-07,-1.35833e-05,2.80466e-05,9.3248e-06,0
-3.43418e-05,1.54933e-05,-8.61147e-05,-5.9015e-05,2.92878e-06,-1.47282e-05,2.86824e-05,7.53394e-06,0
-3.24421e-05,1.24176e-05,-7.08813e-05,-6.15977e-05,7.00152e-06,-1.42906e-05,2.72386e-05,5.57451e-06,0
-3.00927e-05,1.10846e-05,-5.38477e-05,-3.72312e-05,9.35362e-06,-1.34048e-05,2.3481e-05,4.98654e-06,0
-2.92048e-05,8.44571e-06,-4.20018e-05,1.42069e-06,9.31975e-06,-1.38945e-05,2.02575e-05,3.23869e-06,0
-2.97343e-05,4.00345e-06,-3.40855e-05,3.48232e-05,8.34364e-06,-1.43119e-05,1.82377e-05,2.79781e-07,0
-2.97717e-05,-6.72569e-07,-2.61775e-05,5.38336e-05,7.0606e-06,-1.43204e-05,1.69794e-05,-2.0297e-06,0
-2.93549e-05,-2.91796e-06,-1.5987e-05,6.13355e-05,5.88554e-06,-1.40425e-05,1.70417e-05,-3.53694e-06,0
-2.96091e-05,-2.58635e-06,-4.11227e-06,5.9963e-05,5.25407e-06,-1.26539e-05,1.54255e-05,-2.75531e-06,0
-3.04405e-05,-1.50432e-06,5.85697e-06,4.91157e-05,4.74274e-06,-1.1234e-05,1.28838e-05,-4.83242e-07,0
-3.09397e-05,-5.30505e-07,1.21804e-05,3.07733e-05,6.02159e-06,-1.02073e-05,1.04352e-05,1.10009e-06,0
-3.07368e-05,6.14865e-08,1.40433e-05,8.83442e-06,8.89077e-06,-9.49077e-06,7.29095e-06,1.67994e-06,0
-3.00986e-05,1.00512e-06,1.31751e-05,-1.10128e-05,1.04789e-05,-9.00592e-06,3.73953e-06,2.13805e-06,0
-2.93838e-05,1.89198e-06,1.09164e-05,-2.22392e-05,9.11338e-06,-8.45226e-06,2.55652e-06,3.92639e-07,0
-2.74215e-05,2.27259e-06,9.16232e-06,-1.98892e-05,7.43002e-06,-7.21564e-06,4.3362e-06,-2.94623e-06,0
-2.48442e-05,2.80659e-06,6.95097e-06,-5.18887e-06,6.33797e-06,-6.78292e-06,5.49046e-06,-5.83659e-06,0
-2.44436e-05,4.05503e-06,4.04433e-06,1.44485e-05,5.55095e-06,-8.58172e-06,4.24705e-06,-7.15318e-06,0
-2.70622e-05,3.73538e-06,2.33708e-06,2.86181e-05,5.04468e-06,-1.03176e-05,2.75612e-06,-7.23879e-06,0
-2.99209e-05,2.59078e-06,3.79266e-06,3.45999e-05,6.35376e-06,-1.01504e-05,2.21506e-06,-6.15821e-06,0
-3.02402e-05,4.27106e-06,5.64352e-06,3.47005e-05,1.10285e-05,-9.33805e-06,2.30448e-06,-4.80741e-06,0
-2.86794e-05,8.23202e-06,4.33424e-06,3.036e-05,1.70307e-05,-8.80139e-06,2.9688e-06,-3.67178e-06,0
-2.76647e-05,9.91627e-06,-3.60061e-06,2.34725e-05,2.22614e-05,-8.81326e-06,2.39691e-06,-3.08422e-06,0
-2.82346e-05,9.26207e-06,-1.54856e-05,1.2137e-05,2.8965e-05,-8.68706e-06,2.17472e-06,-3.23039e-06,0
-2.90653e-05,9.05765e-06,-2.42128e-05,-6.72493e-06,3.52194e-05,-6.97373e-06,4.56495e-06,-2.56413e-06,0
-2.79277e-05,1.22123e-05,-2.80878e-05,-2.94018e-05,3.47855e-05,-5.68505e-06,6.89455e-06,-2.20246e-06,0
-2.7504e-05,2.00736e-05,-2.69704e-05,-4.16226e-05,2.81496e-05,-5.72182e-06,8.35455e-06,-1.77493e-06,0
-2.9115e-05,2.84684e-05,-2.26812e-05,-3.61854e-05,2.20745e-05,-5.57108e-06,9.18136e-06,-1.10946e-06,0
-2.9945e-05,3.29331e-05,-1.74578e-05,-2.06436e-05,1.96673e-05,-5.5229e-06,9.46296e-06,-8.55635e-07,0
-3.0285e-05,3.52618e-05,-1.46678e-05,-2.19272e-06,1.82979e-05,-7.06771e-06,9.15108e-06,-2.00529e-06,0
-2.99624e-05,3.84647e-05,-1.56225e-05,1.22648e-05,1.7886e-05,-8.36817e-06,7.6753e-06,-3.35368e-06,0
-2.86738e-05,4.03136e-05,-1.56781e-05,1.76772e-05,1.70598e-05,-7.76485e-06,6.73131e-06,-2.41593e-06,0
-2.78431e-05,3.92062e-05,-1.29013e-05,1.57433e-05,1.51818e-05,-7.15465e-06,6.94939e-06,-1.5548e-06,0
-2.80907e-05,3.32998e-05,-1.03191e-05,1.03885e-05,1.39309e-05,-7.13131e-06,8.41426e-06,-2.32887e-06,0
-2.85724e-05,2.43118e-05,-9.27275e-06,4.94852e-09,1.2008e-05,-6.79487e-06,1.03923e-05,-3.42952e-06,0
-2.74929e-05,1.49983e-05,-7.94921e-06,-1.4696e-05,9.64694e-06,-6.05312e-06,1.23008e-05,-3.27192e-06,0
-2.59728e-05,6.40138e-06,-5.19929e-06,-2.81743e-05,9.36275e-06,-6.3258e-06,1.36174e-05,-1.10827e-06,0
-2.67772e-05,-1.0086e-06,-2.47221e-06,-3.63545e-05,1.35236e-05,-6.07734e-06,1.42183e-05,1.12282e-06,0
-2.90696e-05,-7.7141e-06,-2.01174e-06,-3.96111e-05,2.0992e-05,-5.53779e-06,1.48989e-05,1.8381e-06,0
-3.08002e-05,-1.18808e-05,-4.3605e-06,-3.82261e-05,2.56864e-05,-5.68148e-06,1.63765e-05,2.31402e-06,0
-3.17021e-05,-1.24085e-05,-5.96588e-06,-3.37633e-05,2.28565e-05,-5.72707e-06,1.92229e-05,3.04692e-06,0
-3.27359e-05,-1.21071e-05,-5.10885e-06,-2.65225e-05,1.53934e-05,-5.19141e-06,2.19741e-05,2.09897e-06,0
-3.30422e-05,-1.27894e-05,-3.38141e-06,-7.40622e-06,1.07301e-05,-4.68443e-06,2.31401e-05,-1.43805e-06,0
-3.25477e-05,-1.36722e-05,-2.68997e-06,2.79642e-05,1.26204e-05,-5.80181e-06,2.20094e-05,-5.06173e-06,0
-3.24657e-05,-1.49328e-05,-3.52364e-06,6.60328e-05,1.77151e-05,-7.78067e-06,2.0219e-05,-5.96678e-06,0
-3.26364e-05,-1.46407e-05,-6.17396e-06,8.36716e-05,2.03001e-05,-1.00272e-05,1.95683e-05,-4.85795e-06,0
-3.24798e-05,-1.08526e-05,-1.03105e-05,6.5221e-05,1.91813e-05,-1.08133e-05,1.93343e-05,-3.67567e-06,0
-3.25993e-05,-2.80153e-06,-1.35374e-05,1.57526e-05,1.66979e-05,-8.94066e-06,1.91514e-05,-2.57055e-06,0
-3.31231e-05,7.27368e-06,-1.19836e-05,-3.89638e-05,1.51834e-05,-7.30922e-06,1.84242e-05,-2.24036e-06,0
-3.26023e-05,1.60587e-05,-4.98617e-06,-7.84041e-05,1.38763e-05,-7.04749e-06,1.70848e-05,-2.98687e-06,0
-3.17359e-05,2.11972e-05,2.31517e-06,-9.81082e-05,1.21327e-05,-6.21691e-06,1.58451e-05,-3.47426e-06,0
-3.14137e-05,2.26094e-05,6.56221e-06,-0.00010646,1.20434e-05,-5.30851e-06,1.48318e-05,-2.9701e-06,0
-3.17785e-05,2.14678e-05,9.04771e-06,-0.000111817,1.29636e-05,-4.3017e-06,1.51287e-05,-1.93975e-06,0
-3.06638e-05,1.9844e-05,1.09656e-05,-0.000116907,1.28999e-05,-3.84444e-06,1.64456e-05,-4.54329e-07,0
-2.8019e-05,1.85525e-05,1.12652e-05,-0.00012489,1.25568e-05,-4.26821e-06,1.74646e-05,1.01225e-06,0
-2.6639e-05,1.51236e-05,9.4906e-06,-0.000133259,1.21138e-05,-5.37312e-06,1.75582e-05,1.69626e-06,0
-2.59277e-05,1.18988e-05,7.18698e-06,-0.000131347,9.87773e-06,-5.481e-06,1.69276e-05,2.2397e-06,0
-2.67414e-05,1.02782e-05,5.8512e-06,-0.000115762,6.0249e-06,-4.16319e-06,1.62107e-05,1.58837e-06,0
-2.83775e-05,1.02667e-05,6.05319e-06,-9.05178e-05,5.46379e-06,-3.43623e-06,1.58878e-05,-4.32035e-07,0
-2.98028e-05,1.12852e-05,5.12223e-06,-6.56688e-05,8.46104e-06,-3.34241e-06,1.58881e-05,-2.06445e-06,0
-3.12323e-05,1.20407e-05,2.97075e-06,-4.84061e-05,1.15575e-05,-4.15917e-06,1.50629e-05,-2.34773e-06,0
-3.2268e-05,1.20257e-05,1.64577e-06,-3.8397e-05,1.17315e-05,-5.45116e-06,1.49381e-05,-1.23522e-06,0
-3.31177e-05,1.19334e-05,1.81226e-06,-3.26469e-05,1.06236e-05,-6.77945e-06,1.52392e-05,1.32235e-07,0
-3.37067e-05,1.42823e-05,2.59446e-06,-2.70837e-05,1.13912e-05,-6.47717e-06,1.48987e-05,1.40527e-06,0
-3.3795e-05,1.78481e-05,1.54621e-06,-2.25275e-05,1.2866e-05,-5.46503e-06,1.44232e-05,1.89183e-06,0
-3.27442e-05,2.1115e-05,-3.7173e-07,-1.90314e-05,1.44741e-05,-5.35851e-06,1.21347e-05,8.65567e-07,0
-3.21218e-05,2.40105e-05,-1.75306e-06,-1.46867e-05,1.49898e-05,-5.91633e-06,6.84431e-06,4.15008e-07,0
-3.29636e-05,2.69676e-05,-8.07529e-07,-7.43984e-06,1.41932e-05,-7.14519e-06,2.19971e-09,1.69704e-06,0
-3.41528e-05,2.92341e-05,1.62483e-06,8.39198e-07,1.20803e-05,-8.61331e-06,-4.51466e-06,3.64456e-06,0
-3.38138e-05,3.22416e-05,2.55633e-06,6.00176e-06,1.00319e-05,-9.70093e-06,-4.76599e-06,5.88649e-06,0
-3.24165e-05,3.68861e-05,8.70765e-07,6.42772e-06,8.45377e-06,-1.01451e-05,-1.62533e-06,8.46338e-06,0
-3.23184e-05,3.92518e-05,-3.05158e-07,6.34964e-06,7.87242e-06,-1.01938e-05,3.25943e-06,1.01592e-05,0
-3.3441e-05,3.67714e-05,1.28471e-07,7.06117e-06,7.94188e-06,-9.18757e-06,8.44154e-06,1.07696e-05,0
-3.3823e-05,3.21598e-05,-7.97144e-07,6.7068e-06,8.05225e-06,-7.32418e-06,1.27556e-05,1.11932e-05,0
-3.31949e-05,2.72024e-05,-3.9665e-06,4.11865e-06,8.54166e-06,-6.36998e-06,1.58034e-05,9.49992e-06,0
-3.17557e-05,2.15746e-05,-8.3085e-06,5.76592e-07,1.03395e-05,-7.1465e-06,1.81663e-05,5.34972e-06,0
-3.06109e-05,1.7631e-05,-1.16871e-05,-1.44894e-06,1.31849e-05,-7.77422e-06,2.0695e-05,1.43342e-06,0
-3.09649e-05,1.52823e-05,-1.19537e-05,4.87555e-07,1.44804e-05,-7.77374e-06,2.1052e-05,4.08012e-07,0
-3.11207e-05,1.28849e-05,-1.15822e-05,5.59014e-06,1.35118e-05,-7.08613e-06,1.85423e-05,1.4694e-06,0
-3.23664e-05,1.01629e-05,-1.20203e-05,1.01182e-05,1.36038e-05,-5.90048e-06,1.61805e-05,1.82328e-06,0
-3.43343e-05,7.4559e-06,-1.21005e-05,1.28887e-05,1.32698e-05,-5.586e-06,1.60221e-05,1.99091e-06,0
-3.40368e-05,3.4111e-06,-1.23585e-05,1.3949e-05,1.01189e-05,-3.99956e-06,1.82433e-05,1.65257e-06,0
-3.27357e-05,-1.87779e-06,-1.37545e-05,1.55833e-05,8.90567e-06,-3.40934e-06,1.96285e-05,2.03646e-06,0
-3.18288e-05,-7.17562e-06,-1.8923e-05,1.99434e-05,8.82489e-06,-5.64642e-06,1.89998e-05,3.67567e-06,0
-3.29534e-05,-8.41638e-06,-2.58641e-05,2.40958e-05,1.06974e-05,-7.18936e-06,1.6732e-05,4.8455e-06,0
-3.40529e-05,-3.34327e-06,-3.12499e-05,2.73135e-05,1.2449e-05,-8.97903e-06,1.4417e-05,5.16928e-06,0
-3.3166e-05,3.55371e-06,-3.09151e-05,3.09571e-05,1.1056e-05,-1.14854e-05,1.26092e-05,4.25843e-06,0
-3.31121e-05,8.17808e-06,-2.57125e-05,3.42348e-05,9.51757e-06,-1.31562e-05,1.17337e-05,4.1277e-06,0
-3.31615e-05,9.20364e-06,-2.09445e-05,3.35817e-05,9.58317e-06,-1.3243e-05,1.14489e-05,3.86142e-06,0
-3.14806e-05,9.24527e-06,-1.87292e-05,2.7212e-05,1.15986e-05,-1.24582e-05,9.36602e-06,2.25108e-06,0
-3.00937e-05,9.87768e-06,-1.83231e-05,1.92266e-05,1.4236e-05,-1.13646e-05,6.49374e-06,1.83606e-06,0
-3.05292e-05,1.13431e-05,-1.75071e-05,1.11607e-05,1.51812e-05,-1.00165e-05,4.93631e-06,2.65906e-06,0
-3.11713e-05,1.31062e-05,-1.65051e-05,4.05473e-06,1.44383e-05,-9.41937e-06,4.9552e-06,2.09826e-06,0
-3.22574e-05,1.46272e-05,-1.62539e-05,7.82987e-07,1.48811e-05,-9.64698e-06,5.08799e-06,3.3981e-07,0
-3.38695e-05,1.49832e-05,-1.60667e-05,2.23933e-06,1.57847e-05,-1.05524e-05,5.99711e-06,-4.93182e-07,0
-3.42031e-05,1.37808e-05,-1.53843e-05,6.16785e-06,1.63168e-05,-1.12018e-05,7.80475e-06,-8.46748e-07,0
-3.27904e-05,1.21101e-05,-1.45222e-05,1.25509e-05,1.71273e-05,-1.08701e-05,8.73422e-06,-1.25021e-06,0
-3.11788e-05,1.11242e-05,-1.31678e-05,1.88207e-05,1.73008e-05,-1.06375e-05,7.84274e-06,-8.37786e-07,0
-3.09204e-05,1.09128e-05,-1.20109e-05,2.12513e-05,1.60377e-05,-1.11494e-05,6.17303e-06,-6.17388e-07,0
-3.20196e-05,9.59857e-06,-1.08256e-05,2.10014e-05,1.57168e-05,-1.22247e-05,5.78226e-06,-1.11946e-06,0
-3.33464e-05,7.69008e-06,-9.69479e-06,2.1082e-05,1.59789e-05,-1.3858e-05,7.08102e-06,-6.46521e-07,0
-3.3488e-05,6.15755e-06,-1.01685e-05,2.13963e-05,1.57442e-05,-1.48045e-05,8.36046e-06,1.54252e-06,0
-3.16095e-05,5.25023e-06,-1.31855e-05,2.00897e-05,1.60279e-05,-1.43148e-05,8.00806e-06,4.95178e-06,0
-2.91092e-05,5.08715e-06,-1.55337e-05,1.68478e-05,1.7381e-05,-1.37316e-05,7.53558e-06,6.84948e-06,0
-2.77923e-05,4.71491e-06,-1.51984e-05,1.39886e-05,1.81288e-05,-1.35806e-05,8.21193e-06,6.53755e-06,0
-2.83577e-05,6.91241e-06,-1.4882e-05,1.24004e-05,1.78289e-05,-1.28665e-05,8.68857e-06,5.65872e-06,0
-2.96359e-05,1.53071e-05,-1.43005e-05,1.2949e-05,1.8468e-05,-1.15717e-05,8.61704e-06,4.62318e-06,0
-2.97672e-05,2.1058e-05,-1.20971e-05,1.37758e-05,1.8863e-05,-1.11579e-05,8.3898e-06,4.72065e-06,0
-2.8526e-05,2.11829e-05,-9.90801e-06,1.29346e-05,1.96561e-05,-1.16978e-05,7.5079e-06,3.20127e-06,0
-2.74374e-05,2.01896e-05,-1.12772e-05,1.28397e-05,2.04817e-05,-1.07876e-05,7.19953e-06,6.87351e-07,0
-2.76208e-05,1.64798e-05,-1.5595e-05,1.21311e-05,1.97453e-05,-8.96364e-06,7.73872e-06,-2.47794e-07,0
-2.78182e-05,9.97737e-06,-1.8009e-05,1.09724e-05,1.77058e-05,-8.50864e-06,6.89015e-06,-1.05068e-06,0
-2.75482e-05,3.44828e-06,-1.72081e-05,8.91134e-06,1.67202e-05,-9.87419e-06,5.41039e-06,-4.99945e-07,0
-2.64091e-05,1.7937e-06,-1.29507e-05,7.61478e-06,1.73621e-05,-1.15066e-05,5.41838e-06,1.28377e-06,0
-2.5111e-05,2.09656e-06,-8.1813e-06,6.96116e-06,1.88854e-05,-1.1807e-05,6.64376e-06,3.84769e-06,0
-2.47586e-05,9.53589e-07,-7.51801e-06,3.43024e-06,2.02573e-05,-1.14792e-05,8.04737e-06,4.44144e-06,0
-2.51096e-05,-2.90361e-07,-9.25173e-06,-3.31052e-06,2.14799e-05,-1.04503e-05,9.29983e-06,3.46045e-06,0
-2.55138e-05,3.03601e-07,-9.55998e-06,-1.18162e-05,2.32019e-05,-8.66096e-06,9.87539e-06,2.95401e-06,0
-2.55267e-05,2.27544e-06,-9.00153e-06,-1.67444e-05,2.32075e-05,-6.47952e-06,1.13089e-05,3.67541e-06,0
-2.60576e-05,4.75923e-06,-9.37609e-06,-1.31053e-05,2.1222e-05,-5.06805e-06,1.37309e-05,5.70362e-06,0
-2.83137e-05,7.73885e-06,-1.08615e-05,-7.30629e-07,1.87204e-05,-5.39204e-06,1.54875e-05,7.40606e-06,0
-3.05656e-05,1.0329e-05,-1.19137e-05,1.63866e-05,1.71011e-05,-6.90788e-06,1.57386e-05,6.4873e-06,0
-3.01275e-05,1.25789e-05,-1.16911e-05,3.2224e-05,1.65951e-05,-8.23201e-06,1.53722e-05,2.78633e-06,0
-2.77671e-05,1.3427e-05,-1.10347e-05,4.03375e-05,1.64832e-05,-8.01909e-06,1.5814e-05,5.89647e-07,0
-2.65898e-05,1.18466e-05,-1.01004e-05,3.79188e-05,1.63585e-05,-6.87963e-06,1.64605e-05,1.35655e-06,0
-2.72436e-05,8.73367e-06,-8.82681e-06,2.78091e-05,1.72396e-05,-6.46802e-06,1.73052e-05,3.52123e-06,0
-2.75652e-05,6.73734e-06,-7.0042e-06,1.56771e-05,1.86447e-05,-7.64998e-06,1.78983e-05,5.13388e-06,0
-2.70822e-05,6.21583e-06,-5.49983e-06,5.37646e-06,1.95447e-05,-9.8994e-06,1.75871e-05,6.57393e-06,0
-2.71775e-05,6.52617e-06,-4.10617e-06,-3.27577e-06,1.95167e-05,-1.15143e-05,1.55503e-05,7.4969e-06,0
-2.81185e-05,6.41812e-06,-2.93055e-06,-9.60267e-06,1.93864e-05,-1.16565e-05,1.37554e-05,8.89525e-06,0
-2.75225e-05,6.56457e-06,-2.8197e-06,-1.15605e-05,2.03398e-05,-1.17742e-05,1.32086e-05,9.5619e-06,0
-2.65055e-05,7.21621e-06,-3.14066e-06,-1.09369e-05,2.16511e-05,-1.27703e-05,1.24557e-05,8.39412e-06,0
-2.72718e-05,8.1086e-06,-2.48399e-06,-1.02933e-05,2.15107e-05,-1.43858e-05,1.135e-05,8.97921e-06,0
-2.85285e-05,9.82552e-06,-1.4215e-06,-8.82745e-06,2.00689e-05,-1.47759e-05,1.0341e-05,9.70819e-06,0
-2.87052e-05,1.1185e-05,-1.9375e-06,-6.63625e-06,1.83159e-05,-1.34155e-05,1.04209e-05,9.98433e-06,0
-2.82842e-05,1.25244e-05,-3.86425e-06,-5.74136e-06,1.54727e-05,-1.20397e-05,1.04293e-05,1.1551e-05,0
-2.77066e-05,1.55442e-05,-4.80505e-06,-7.43045e-06,1.20538e-05,-1.10249e-05,8.41532e-06,1.24145e-05,0
-2.67368e-05,1.83769e-05,-4.49297e-06,-1.02781e-05,1.04234e-05,-1.09033e-05,6.67e-06,1.27444e-05,0
-2.76245e-05,1.8373e-05,-4.89328e-06,-1.21191e-05,1.17336e-05,-1.17018e-05,6.70335e-06,1.26397e-05,0
-2.8762e-05,1.56956e-05,-6.78331e-06,-1.32925e-05,1.29776e-05,-1.41906e-05,8.30968e-06,1.08682e-05,0
-2.91285e-05,1.30359e-05,-9.27913e-06,-1.31169e-05,1.36649e-05,-1.69691e-05,1.0106e-05,7.6028e-06,0
-2.93317e-05,1.24254e-05,-1.05108e-05,-1.05631e-05,1.44601e-05,-1.78044e-05,1.04652e-05,5.32368e-06,0
-2.95307e-05,1.28867e-05,-1.03508e-05,-8.30723e-06,1.42229e-05,-1.66934e-05,1.05029e-05,3.69805e-06,0
-3.04391e-05,1.2325e-05,-9.99542e-06,-8.96544e-06,1.31301e-05,-1.37239e-05,1.05738e-05,1.91347e-06,0
-3.21789e-05,1.03975e-05,-8.98795e-06,-1.08963e-05,1.24159e-05,-1.13963e-05,1.0902e-05,1.44672e-06,0
-3.32927e-05,1.03859e-05,-7.83446e-06,-1.25288e-05,1.16548e-05,-1.16794e-05,1.26912e-05,1.88148e-06,0
-3.18952e-05,1.36438e-05,-7.75239e-06,-1.31212e-05,9.76438e-06,-1.32935e-05,1.56407e-05,1.92607e-06,0
-3.07745e-05,1.79606e-05,-7.67244e-06,-1.27251e-05,7.80926e-06,-1.41822e-05,1.75827e-05,1.88598e-06,0
-3.21149e-05,2.22001e-05,-6.4557e-06,-1.23771e-05,6.73343e-06,-1.3758e-05,1.84406e-05,2.87657e-06,0
-3.40934e-05,2.63654e-05,-5.9241e-06,-1.3189e-05,6.03185e-06,-1.27184e-05,1.94291e-05,2.82205e-06,0
-3.43705e-05,3.00336e-05,-7.42258e-06,-1.67473e-05,5.5337e-06,-1.16603e-05,2.04855e-05,8.81363e-07,0
-3.3813e-05,3.48794e-05,-9.79733e-06,-2.13605e-05,5.63594e-06,-1.12974e-05,2.06707e-05,-1.36844e-06,0
-3.33237e-05,4.29107e-05,-1.15399e-05,-2.32883e-05,5.68201e-06,-1.25807e-05,2.05435e-05,-2.20289e-06,0
-3.29849e-05,5.20922e-05,-1.06508e-05,-2.31357e-05,5.14542e-06,-1.40341e-05,2.01436e-05,-1.65553e-06,0
-3.26253e-05,5.9402e-05,-7.52472e-06,-2.37519e-05,4.46997e-06,-1.38196e-05,1.94255e-05,-1.42591e-06,0
-3.28602e-05,6.22656e-05,-4.25142e-06,-2.40374e-05,4.41054e-06,-1.20349e-05,1.98038e-05,-1.57126e-06,0
-3.38617e-05,5.80234e-05,-1.58185e-06,-2.21575e-05,5.46047e-06,-9.75488e-06,2.11382e-05,-5.17753e-07,0
-3.44222e-05,5.0546e-05,-3.59282e-07,-2.35524e-05,7.66668e-06,-8.23061e-06,2.09272e-05,6.87076e-08,0
-3.43619e-05,4.43437e-05,-2.16015e-06,-3.66972e-05,1.03495e-05,-6.48485e-06,1.87925e-05,-7.80061e-07,0
-3.38471e-05,4.20361e-05,-4.44008e-06,-5.44132e-05,1.20925e-05,-5.69361e-06,1.76066e-05,-2.22102e-06,0
-3.20143e-05,4.71269e-05,-4.6077e-06,-6.06452e-05,1.16765e-05,-6.97109e-06,1.8457e-05,-1.91445e-06,0
-3.06959e-05,4.83498e-05,-2.1017e-06,-4.83746e-05,1.12353e-05,-6.98865e-06,1.79823e-05,-3.61337e-08,0
-3.07705e-05,3.80903e-05,1.38279e-06,-2.73815e-05,1.07661e-05,-6.79606e-06,1.48451e-05,-8.77919e-07,0
-3.14021e-05,2.55578e-05,2.22139e-06,-5.6713e-06,9.73637e-06,-7.68413e-06,1.17362e-05,-4.63662e-06,0
-3.22184e-05,1.34442e-05,9.46604e-07,1.74947e-05,8.84688e-06,-8.75382e-06,1.05529e-05,-7.32392e-06,0
-3.08284e-05,2.88371e-06,-1.16292e-06,3.50735e-05,7.6953e-06,-8.58805e-06,1.17733e-05,-6.93788e-06,0
-2.90202e-05,-7.43322e-06,-3.66901e-06,4.66656e-05,7.67208e-06,-7.02193e-06,1.21243e-05,-5.81313e-06,0
-2.92238e-05,-1.72411e-05,-6.45554e-06,5.16184e-05,1.01768e-05,-6.22859e-06,1.14164e-05,-5.53452e-06,0
-3.15251e-05,-2.17312e-05,-9.39423e-06,4.80963e-05,1.31113e-05,-6.40679e-06,1.07057e-05,-5.54738e-06,0
-3.30004e-05,-1.99859e-05,-1.09101e-05,3.62938e-05,1.27201e-05,-7.67402e-06,1.0067e-05,-5.71025e-06,0
-3.26634e-05,-1.59494e-05,-1.02759e-05,1.57327e-05,1.02257e-05,-9.36446e-06,1.0386e-05,-6.76027e-06,0
-3.28305e-05,-1.24711e-05,-8.49625e-06,-5.11057e-06,9.03446e-06,-9.77791e-06,1.07058e-05,-7.5719e-06,0
-3.26119e-05,-9.63783e-06,-7.29803e-06,-1.73207e-05,1.0391e-05,-8.74697e-06,1.16956e-05,-6.93578e-06,0
-3.09837e-05,-8.00335e-06,-7.15185e-06,-1.86671e-05,1.17363e-05,-8.24271e-06,1.27129e-05,-5.71775e-06,0
-2.99856e-05,-7.62587e-06,-6.85382e-06,-1.37967e-05,1.06413e-05,-8.74078e-06,1.24722e-05,-4.52342e-06,0
-3.1143e-05,-7.75946e-06,-6.18922e-06,-8.18935e-06,8.10845e-06,-9.84145e-06,1.17741e-05,-3.65009e-06,0
-3.26157e-05,-7.07255e-06,-5.29487e-06,-5.17862e-06,6.85748e-06,-1.05168e-05,1.14474e-05,-3.74062e-06,0
-3.23738e-05,-6.37014e-06,-4.35582e-06,-4.86559e-06,7.52031e-06,-1.11774e-05,1.01643e-05,-4.16701e-06,0
-3.05935e-05,-4.5515e-06,-3.31823e-06,-4.1542e-06,8.20573e-06,-1.23629e-05,8.01708e-06,-4.2671e-06,0
-2.89941e-05,-9.79972e-08,-2.53603e-06,-8.94855e-07,8.79831e-06,-1.28483e-05,7.37216e-06,-4.2897e-06,0
-2.84083e-05,6.51822e-06,-2.36247e-06,2.27209e-06,9.84529e-06,-1.31853e-05,8.69949e-06,-4.02588e-06,0
-2.79141e-05,1.12324e-05,-1.70998e-06,2.35547e-06,1.00318e-05,-1.52531e-05,1.03356e-05,-3.13381e-06,0
-2.69321e-05,1.24432e-05,-4.63742e-07,2.17202e-06,7.35021e-06,-1.68576e-05,1.03833e-05,-2.48743e-06,0
-2.59901e-05,1.10467e-05,1.2278e-06,2.7383e-06,3.27299e-06,-1.64839e-05,9.17797e-06,-2.20788e-06,0
-2.52933e-05,8.69868e-06,2.75344e-06,8.31246e-07,2.61766e-06,-1.4908e-05,9.89223e-06,-2.12987e-06,0
-2.57737e-05,7.31483e-06,1.41486e-06,-8.75907e-07,5.51755e-06,-1.26911e-05,1.25588e-05,-1.87406e-06,0
-2.69525e-05,8.61983e-06,-2.73714e-06,2.90666e-06,7.79553e-06,-1.11634e-05,1.30672e-05,-1.22776e-06,0
-2.79018e-05,9.67312e-06,-8.47497e-06,1.40232e-05,9.06059e-06,-9.62104e-06,1.11696e-05,-1.40582e-06,0
-2.82654e-05,1.00036e-05,-1.24704e-05,1.91273e-05,8.83979e-06,-9.64582e-06,9.12235e-06,-1.85693e-06,0
-2.73821e-05,1.11658e-05,-1.20643e-05,7.21146e-06,7.60697e-06,-1.00631e-05,8.78595e-06,-2.33419e-06,0
-2.69882e-05,1.14783e-05,-1.13531e-05,-9.29757e-06,8.79015e-06,-1.01663e-05,9.47027e-06,-3.94896e-06,0
-2.67225e-05,1.08137e-05,-1.31047e-05,-2.14506e-05,1.2087e-05,-9.82018e-06,9.57276e-06,-3.79991e-06,0
-2.72112e-05,9.69583e-06,-1.8646e-05,-2.80956e-05,1.56665e-05,-9.56843e-06,9.1169e-06,-1.70097e-06,0
-2.75469e-05,1.30161e-05,-2.42223e-05,-3.06369e-05,1.54687e-05,-8.88487e-06,8.63002e-06,-1.36205e-06,0
-2.52015e-05,2.3908e-05,-2.5539e-05,-2.813e-05,1.19169e-05,-5.59681e-06,8.67725e-06,-2.06334e-06,0
-2.2858e-05,3.75934e-05,-2.29758e-05,-1.90336e-05,9.47121e-06,-2.65908e-06,9.78597e-06,-1.88353e-06,0
-2.17534e-05,4.64752e-05,-1.74222e-05,-7.37627e-06,6.84808e-06,-1.53735e-06,1.10283e-05,-1.64111e-06,0
-2.2792e-05,4.78711e-05,-1.07808e-05,-1.28119e-09,3.05536e-06,-2.05807e-06,1.06885e-05,-2.84346e-06,0
-2.50143e-05,4.16843e-05,-5.69111e-06,7.36173e-08,9.57644e-07,-2.03498e-06,1.00794e-05,-3.29741e-06,0
-2.65514e-05,2.97306e-05,-4.18389e-06,-4.30271e-06,1.95539e-06,-8.10384e-07,9.74916e-06,-2.52976e-06,0
-2.81754e-05,1.38402e-05,-5.92819e-06,-1.1143e-05,3.70336e-06,2.69354e-07,8.99773e-06,-2.76534e-06,0
-3.09717e-05,-3.01519e-06,-9.5802e-06,-2.02045e-05,5.0281e-06,1.40079e-06,9.03702e-06,-4.61258e-06,0
-3.37638e-05,-1.86574e-05,-1.32537e-05,-3.288e-05,6.8591e-06,2.04063e-06,1.18658e-05,-6.57765e-06,0
-3.58067e-05,-3.01798e-05,-1.53527e-05,-4.48266e-05,1.08302e-05,7.08239e-07,1.57766e-05,-6.44876e-06,0
-3.73622e-05,-3.38625e-05,-1.54173e-05,-4.62113e-05,1.42361e-05,-7.05745e-07,1.98124e-05,-4.57677e-06,0
-3.68907e-05,-3.03794e-05,-1.44716e-05,-3.16715e-05,1.30293e-05,-5.03842e-07,2.7576e-05,-2.7949e-06,0
-3.52092e-05,-2.3312e-05,-1.26751e-05,-4.43205e-06,8.45263e-06,-5.95879e-07,3.65298e-05,-2.24211e-06,0
-3.45675e-05,-1.5241e-05,-1.11167e-05,2.64745e-05,4.87692e-06,-1.77996e-06,3.70672e-05,-1.63967e-06,0
-3.45231e-05,-7.48939e-06,-1.17987e-05,5.00767e-05,5.05414e-06,-3.09361e-06,3.02051e-05,2.35693e-07,0
-3.32808e-05,-2.87323e-06,-1.42816e-05,6.06832e-05,9.79745e-06,-3.11327e-06,2.44964e-05,2.44764e-06,0
-3.17445e-05,-7.40178e-07,-1.5826e-05,5.38956e-05,1.65468e-05,-2.10609e-06,2.11442e-05,4.70341e-06,0
-3.1121e-05,2.1874e-06,-1.62226e-05,3.39431e-05,2.12071e-05,-9.8985e-07,1.83094e-05,6.28864e-06,0
-3.16169e-05,6.00269e-06,-1.63595e-05,1.83036e-05,2.4383e-05,2.48075e-07,1.27389e-05,4.82341e-06,0
-3.18093e-05,9.79807e-06,-1.66657e-05,1.00819e-05,2.52049e-05,8.55978e-07,6.05394e-06,3.25447e-06,0
-3.04257e-05,1.77018e-05,-1.7153e-05,-7.40781e-07,2.23973e-05,1.09777e-06,2.52579e-06,3.70859e-06,0
-2.91198e-05,2.6824e-05,-1.56492e-05,-1.38751e-05,2.0602e-05,8.42782e-07,1.81173e-06,4.21158e-06,0
-3.0026e-05,2.98605e-05,-1.45334e-05,-2.30956e-05,2.36398e-05,-1.0919e-06,2.77833e-06,5.08879e-06,0
-3.17822e-05,2.8556e-05,-1.39761e-05,-2.39751e-05,2.78335e-05,-3.1466e-06,5.68147e-06,5.2408e-06,0
-3.1168e-05,2.52773e-05,-1.21259e-05,-1.75708e-05,3.09892e-05,-4.18979e-06,9.99637e-06,4.35224e-06,0
-2.9437e-05,2.01065e-05,-1.22665e-05,-8.1464e-06,3.11169e-05,-5.6073e-06,1.22888e-05,3.27832e-06,0
-2.82779e-05,1.46599e-05,-1.44006e-05,-1.39117e-06,2.63568e-05,-9.43746e-06,1.27664e-05,2.88581e-06,0
-2.80942e-05,1.20527e-05,-1.59879e-05,-1.9635e-06,2.17661e-05,-1.4163e-05,1.4495e-05,2.26296e-06,0
-2.80665e-05,1.2464e-05,-1.52089e-05,-5.74548e-06,2.07054e-05,-1.69298e-05,1.46923e-05,7.07023e-07,0
-2.73276e-05,1.32363e-05,-1.39836e-05,-9.49157e-06,2.21574e-05,-1.81893e-05,1.23093e-05,4.32372e-07,0
-2.69809e-05,1.22878e-05,-1.407e-05,-9.92186e-06,2.43755e-05,-1.84815e-05,1.05819e-05,2.43266e-06,0
-2.63233e-05,9.51599e-06,-1.43188e-05,-6.61647e-06,2.76123e-05,-1.63275e-05,9.36936e-06,5.52584e-06,0
-2.71691e-05,6.32553e-06,-1.48433e-05,-2.79148e-06,3.0143e-05,-1.31716e-05,8.76255e-06,7.14481e-06,0
-2.9171e-05,5.8586e-06,-1.43988e-05,3.2081e-07,3.00404e-05,-1.23651e-05,8.55195e-06,6.55723e-06,0
-2.95606e-05,8.77523e-06,-1.18603e-05,2.57864e-06,2.58648e-05,-1.30259e-05,8.03367e-06,6.14368e-06,0
-2.85008e-05,1.26181e-05,-8.64422e-06,4.0445e-06,1.89486e-05,-1.30942e-05,7.37935e-06,6.0427e-06,0
-2.81312e-05,1.54232e-05,-6.38495e-06,3.45106e-06,1.3205e-05,-1.22614e-05,7.77858e-06,3.92842e-06,0
