ch1,ch2,ch3,ch4,ch5,ch6,ch7,ch8,class
-3.03297e-05,1.91929e-05,2.1594e-05,-2.62239e-05,1.01009e-05,-6.69651e-06,2.7178e-05,2.70966e-06,0
-3.04908e-05,1.6611e-05,3.40421e-05,-2.71599e-05,1.30141e-05,-5.9501e-06,2.66219e-05,3.29727e-06,0
-3.08122e-05,1.18231e-05,4.41284e-05,-2.56566e-05,1.43197e-05,-4.20518e-06,2.63014e-05,1.72967e-06,0
-3.12855e-05,6.853e-06,4.09977e-05,-2.04351e-05,1.52977e-05,-1.63217e-06,2.45124e-05,1.27553e-07,0
-3.1332e-05,3.63794e-06,2.0151e-05,-1.26164e-05,1.83848e-05,1.06745e-06,2.04238e-05,1.02501e-07,0
-3.16035e-05,1.48772e-06,-1.39245e-05,-5.23462e-06,2.21743e-05,2.3778e-06,1.62274e-05,1.23021e-06,0
-3.25015e-05,-1.94752e-08,-4.99977e-05,-1.40442e-06,2.33892e-05,2.42136e-06,1.35029e-05,3.29081e-06,0
-3.26237e-05,1.21069e-07,-7.5907e-05,-1.27921e-06,2.21048e-05,3.05828e-06,1.14528e-05,4.20821e-06,0
-3.19341e-05,1.89275e-06,-8.65451e-05,-1.329e-06,2.00859e-05,3.31162e-06,9.82585e-06,3.15744e-06,0
-3.22306e-05,3.57925e-06,-8.36933e-05,3.61182e-07,1.81601e-05,1.14579e-06,9.32496e-06,1.05632e-06,0
-3.43485e-05,4.01596e-06,-7.15825e-05,1.21713e-06,1.72054e-05,-1.97489e-06,9.51511e-06,-8.81185e-07,0
-3.52712e-05,3.37894e-06,-5.54396e-05,3.74386e-07,1.6533e-05,-3.65544e-06,8.54084e-06,-1.12661e-06,0
-3.49624e-05,3.92026e-06,-3.93465e-05,1.59232e-07,1.56458e-05,-4.79679e-06,6.299e-06,1.06157e-06,0
-3.53797e-05,6.72687e-06,-2.608e-05,4.70176e-07,1.41491e-05,-6.26281e-06,3.50139e-06,4.01193e-06,0
-3.57521e-05,8.67894e-06,-1.58389e-05,1.84901e-06,1.29703e-05,-6.67267e-06,2.9871e-06,5.48059e-06,0
-3.55975e-05,1.02562e-05,-9.89992e-06,5.11823e-06,1.48177e-05,-5.10806e-06,6.02188e-06,4.10389e-06,0
-3.43477e-05,1.10989e-05,-6.0224e-06,7.65778e-06,1.94669e-05,-3.58146e-06,9.26873e-06,2.01768e-06,0
-3.2534e-05,1.05043e-05,-2.90974e-06,7.11439e-06,2.09117e-05,-3.47683e-06,1.12504e-05,1.45102e-06,0
-3.08259e-05,1.20241e-05,-3.36828e-06,5.96736e-06,1.86383e-05,-3.18521e-06,1.2497e-05,1.30999e-06,0
-2.92e-05,1.32222e-05,-5.21436e-06,3.68453e-06,1.64864e-05,-3.29081e-06,1.38319e-05,7.35558e-07,0
-2.9167e-05,1.2842e-05,-4.55274e-06,-1.08655e-06,1.5774e-05,-3.88807e-06,1.37083e-05,-1.49716e-07,0
-2.9774e-05,1.20995e-05,-1.82315e-06,-4.39164e-06,1.64096e-05,-5.13028e-06,1.25166e-05,3.97078e-07,0
-3.03161e-05,1.11162e-05,5.84541e-07,-5.05823e-06,1.54421e-05,-7.79723e-06,1.36411e-05,2.05722e-06,0
-3.00621e-05,1.00209e-05,1.7395e-06,-4.81869e-06,1.4958e-05,-1.0011e-05,1.92458e-05,2.00293e-06,0
-3.08127e-05,7.84365e-06,8.43668e-07,-4.30187e-06,1.59587e-05,-1.13084e-05,2.86724e-05,2.41063e-06,0
-3.27591e-05,5.29772e-06,2.97262e-07,-3.00663e-06,1.69909e-05,-1.10908e-05,3.81588e-05,3.47513e-06,0
-3.31237e-05,3.00276e-06,1.16039e-06,6.28279e-07,1.74176e-05,-1.1348e-05,4.41745e-05,2.62105e-06,0
-3.14313e-05,1.71011e-06,8.55528e-07,6.59627e-06,1.77288e-05,-1.16959e-05,4.56366e-05,3.47917e-08,0
-2.94778e-05,-1.37509e-07,-8.45492e-07,1.09302e-05,1.84984e-05,-1.13948e-05,4.42861e-05,-1.0925e-06,0
-2.96792e-05,-3.01126e-06,-1.84039e-06,8.56898e-06,1.8662e-05,-1.22757e-05,3.99578e-05,5.98197e-07,0
-3.1852e-05,-4.83867e-06,-2.57521e-06,1.70691e-06,1.90253e-05,-1.37904e-05,3.24218e-05,2.14327e-06,0
-3.33413e-05,-4.16698e-06,-4.55371e-06,-2.25115e-06,1.90873e-05,-1.43167e-05,2.14022e-05,1.96046e-06,0
-3.19037e-05,-3.12387e-06,-6.04785e-06,-2.54614e-06,1.84522e-05,-1.41632e-05,6.24802e-06,6.89299e-07,0
-2.96697e-05,-3.65767e-06,-5.83253e-06,-2.85124e-06,1.72458e-05,-1.43053e-05,-1.08109e-05,6.01712e-07,0
-2.86986e-05,-3.57063e-06,-5.83049e-06,-3.99893e-06,1.66121e-05,-1.45224e-05,-2.36748e-05,1.33875e-06,0
-2.88155e-05,-1.61005e-06,-6.44584e-06,-5.1878e-06,1.69276e-05,-1.42266e-05,-2.57763e-05,2.20686e-06,0
-2.78364e-05,-3.85401e-07,-5.18669e-06,-5.80579e-06,1.5645e-05,-1.26104e-05,-1.76978e-05,2.57684e-06,0
-2.54059e-05,-1.55891e-06,-1.6564e-06,-5.53963e-06,1.22396e-05,-1.1586e-05,-6.46869e-06,1.84467e-06,0
-2.49585e-05,-3.9958e-06,2.05345e-06,-4.60013e-06,1.01033e-05,-1.14284e-05,2.19538e-07,9.8232e-07,0
-2.81825e-05,-6.21996e-06,6.91784e-06,-4.41101e-06,9.92241e-06,-1.16101e-05,5.66862e-08,8.19444e-07,0
-3.2362e-05,-7.03362e-06,1.59416e-05,-5.08588e-06,1.00228e-05,-1.18512e-05,-1.32053e-06,-6.15845e-07,0
-3.51409e-05,-5.79845e-06,2.76109e-05,-4.89467e-06,8.4245e-06,-1.16494e-05,2.1055e-07,-2.44828e-06,0
-3.65277e-05,-3.10124e-06,3.77573e-05,-5.43689e-06,6.12409e-06,-1.138e-05,8.84632e-07,-2.86794e-06,0
-3.5686e-05,-2.37839e-06,4.02482e-05,-9.20124e-06,7.48004e-06,-9.38761e-06,-5.09609e-06,-1.34317e-06,0
-3.45428e-05,-3.02388e-06,3.28305e-05,-1.38525e-05,9.13644e-06,-6.40155e-06,-1.46113e-05,1.24041e-06,0
-3.52631e-05,-2.37017e-06,1.67363e-05,-1.43518e-05,7.83055e-06,-5.89087e-06,-2.32025e-05,2.39419e-06,0
-3.51182e-05,-1.60481e-06,-6.95566e-06,-9.99189e-06,6.70505e-06,-6.86854e-06,-3.03532e-05,1.5736e-06,0
-3.2704e-05,-1.11926e-07,-3.20701e-05,-4.37042e-06,8.62998e-06,-8.27056e-06,-3.41214e-05,6.5248e-07,0
-3.04595e-05,2.48344e-06,-5.08763e-05,1.70709e-06,1.28768e-05,-8.16356e-06,-3.1153e-05,1.64857e-06,0
-2.98308e-05,4.54347e-06,-5.56608e-05,6.90758e-06,1.54315e-05,-7.14275e-06,-2.07751e-05,1.95885e-06,0
-2.88816e-05,5.28817e-06,-5.01066e-05,9.82864e-06,1.48326e-05,-7.50989e-06,-1.09508e-05,6.7766e-07,0
-2.8003e-05,4.56339e-06,-4.33815e-05,9.85096e-06,1.26458e-05,-8.88745e-06,-4.33088e-06,2.69801e-08,0
-2.79926e-05,5.10174e-06,-3.67869e-05,6.20912e-06,1.12527e-05,-9.63112e-06,2.67614e-06,2.27471e-07,0
-2.80892e-05,7.49521e-06,-2.89694e-05,1.59638e-06,1.15215e-05,-8.82125e-06,1.03757e-05,-9.07074e-07,0
-2.87134e-05,9.72155e-06,-2.04873e-05,-6.81588e-07,1.28283e-05,-6.94714e-06,1.49188e-05,-2.11126e-06,0
-2.94973e-05,1.11958e-05,-1.35506e-05,-2.28599e-06,1.40673e-05,-5.6371e-06,1.67326e-05,-2.56326e-06,0
-2.96059e-05,1.31786e-05,-9.09603e-06,-5.78609e-06,1.51511e-05,-7.12314e-06,1.78067e-05,-3.1518e-06,0
-2.97956e-05,1.57066e-05,-7.72303e-06,-9.18345e-06,1.64111e-05,-9.38253e-06,2.01915e-05,-3.23901e-06,0
-3.10447e-05,1.69201e-05,-7.42385e-06,-9.96861e-06,1.64765e-05,-1.07682e-05,2.42137e-05,-2.76966e-06,0
-3.16619e-05,1.69816e-05,-6.06623e-06,-7.45394e-06,1.47034e-05,-1.1442e-05,2.67045e-05,-2.3854e-06,0
-3.12133e-05,1.68264e-05,-4.07225e-06,-4.18334e-06,1.24099e-05,-1.24157e-05,2.73046e-05,-2.16702e-06,0
-3.02629e-05,1.66593e-05,-2.55287e-06,-3.57528e-06,1.07037e-05,-1.25999e-05,2.67248e-05,-2.85968e-06,0
-2.97861e-05,1.67846e-05,-1.4388e-06,-5.68855e-06,8.97097e-06,-1.20001e-05,2.59571e-05,-5.22627e-06,0
-3.04456e-05,1.74826e-05,-9.01537e-07,-8.90164e-06,7.19465e-06,-1.29674e-05,2.43937e-05,-5.9468e-06,0
-3.17568e-05,1.79474e-05,-6.15877e-07,-1.14007e-05,5.85996e-06,-1.57864e-05,2.02266e-05,-4.20249e-06,0
-3.1205e-05,1.85345e-05,-1.1881e-06,-1.1802e-05,5.53759e-06,-1.79334e-05,1.41368e-05,-2.18611e-06,0
-2.86546e-05,1.90334e-05,-3.91266e-06,-1.21943e-05,5.62272e-06,-1.93178e-05,1.13428e-05,-9.28077e-07,0
-2.71243e-05,2.10711e-05,-7.75877e-06,-1.46126e-05,6.32754e-06,-2.15018e-05,1.36597e-05,-4.21161e-07,0
-2.69852e-05,2.3211e-05,-1.02501e-05,-1.80744e-05,8.5326e-06,-2.25799e-05,1.90573e-05,-3.92865e-07,0
-2.76474e-05,2.10519e-05,-1.14214e-05,-1.9523e-05,1.2156e-05,-2.09423e-05,2.30834e-05,-2.07192e-06,0
-2.80106e-05,1.70321e-05,-1.11639e-05,-1.94252e-05,1.60832e-05,-1.9035e-05,2.62593e-05,-3.80813e-06,0
-2.87018e-05,1.35239e-05,-8.20847e-06,-1.71403e-05,1.898e-05,-1.78617e-05,2.90117e-05,-4.69043e-06,0
-2.87241e-05,1.10961e-05,-4.65863e-06,-1.18299e-05,2.09796e-05,-1.64682e-05,2.96479e-05,-4.46839e-06,0
-2.75558e-05,1.0756e-05,-2.70059e-06,-7.53496e-06,2.1924e-05,-1.44075e-05,2.99671e-05,-2.5703e-06,0
-2.70967e-05,1.17077e-05,-2.64816e-06,-5.46914e-06,2.17376e-05,-1.34076e-05,2.65754e-05,-4.58383e-07,0
-2.74605e-05,1.26136e-05,-2.80725e-06,-3.64699e-06,2.12952e-05,-1.51019e-05,1.61443e-05,9.91882e-07,0
-2.78653e-05,1.34079e-05,-2.42993e-06,-2.01494e-06,2.12341e-05,-1.58697e-05,4.8167e-06,1.14358e-06,0
-2.83335e-05,1.31006e-05,-2.13565e-06,-1.41557e-06,2.03295e-05,-1.59266e-05,1.1498e-06,5.8643e-07,0
-3.02216e-05,1.24006e-05,-2.50152e-06,-1.36624e-07,1.74039e-05,-1.73137e-05,7.59107e-06,-2.87504e-07,0
-3.08332e-05,1.19219e-05,-3.33013e-06,-1.20603e-07,1.36627e-05,-1.92994e-05,2.03173e-05,-1.03594e-06,0
-2.97766e-05,1.19565e-05,-4.23697e-06,-1.75094e-06,1.15037e-05,-2.06608e-05,2.83135e-05,-2.58335e-06,0
-2.9661e-05,1.32973e-05,-3.63952e-06,-2.21904e-06,1.1681e-05,-2.18288e-05,2.09949e-05,-2.90494e-06,0
-3.00762e-05,1.49031e-05,-2.50571e-06,2.17695e-08,1.24592e-05,-2.15667e-05,5.29066e-06,-1.22497e-06,0
-3.03324e-05,1.6963e-05,-3.3676e-06,1.42491e-06,1.32053e-05,-1.96431e-05,-2.19599e-06,-1.38005e-07,0
-3.03303e-05,1.89075e-05,-5.10763e-06,-1.52959e-06,1.3334e-05,-1.73518e-05,3.78868e-06,4.31715e-07,0
-3.07315e-05,1.99078e-05,-6.01482e-06,-7.77919e-06,1.28121e-05,-1.51291e-05,1.76444e-05,5.83161e-07,0
-3.07574e-05,1.9598e-05,-6.51426e-06,-1.36181e-05,1.27101e-05,-1.35433e-05,3.13422e-05,-7.44814e-07,0
-3.00121e-05,1.9203e-05,-6.78937e-06,-1.46752e-05,1.28948e-05,-1.24009e-05,4.08404e-05,-2.26777e-06,0
-2.94765e-05,1.90082e-05,-5.65698e-06,-1.0688e-05,1.31349e-05,-1.20872e-05,4.37294e-05,-1.19651e-06,0
-3.00362e-05,1.8303e-05,-4.42217e-06,-4.40616e-06,1.33981e-05,-1.26366e-05,3.87629e-05,1.18845e-06,0
-3.1512e-05,1.82755e-05,-3.12436e-06,1.22422e-06,1.25624e-05,-1.37992e-05,2.94564e-05,3.00404e-06,0
-3.296e-05,1.98021e-05,-8.45915e-07,5.9821e-06,9.88726e-06,-1.46284e-05,2.16143e-05,3.75015e-06,0
-3.26997e-05,2.15515e-05,1.6941e-06,8.21853e-06,8.31572e-06,-1.43117e-05,1.69578e-05,3.65324e-06,0
-3.00017e-05,2.34173e-05,3.99051e-06,7.74727e-06,1.02522e-05,-1.29264e-05,1.56742e-05,3.87849e-06,0
-2.72481e-05,2.55079e-05,6.04572e-06,4.26442e-06,1.33432e-05,-1.21298e-05,1.87721e-05,4.87232e-06,0
-2.63024e-05,2.55926e-05,6.6126e-06,-1.00766e-06,1.53695e-05,-1.22052e-05,2.48581e-05,5.46753e-06,0
-2.74327e-05,2.44101e-05,5.89928e-06,-6.07982e-06,1.57992e-05,-1.22897e-05,2.97603e-05,5.29543e-06,0
-2.95426e-05,2.4002e-05,5.30493e-06,-1.14541e-05,1.39623e-05,-1.24994e-05,3.1777e-05,5.54353e-06,0
-3.10329e-05,2.22958e-05,5.38832e-06,-1.57215e-05,9.77848e-06,-1.34465e-05,3.23807e-05,6.35849e-06,0
-3.11845e-05,2.11371e-05,4.63046e-06,-1.99816e-05,4.57909e-06,-1.36829e-05,3.01087e-05,5.99777e-06,0
-3.08422e-05,2.19802e-05,1.28092e-06,-2.15217e-05,1.20649e-06,-1.20654e-05,2.47561e-05,5.31941e-06,0
-3.04639e-05,2.26262e-05,-8.88761e-07,-1.64394e-05,2.0493e-07,-8.85589e-06,1.88208e-05,4.02616e-06,0
-3.0229e-05,2.20221e-05,-1.37638e-06,-7.20824e-06,1.33867e-06,-6.09041e-06,1.49653e-05,2.47158e-06,0
-3.0462e-05,2.03266e-05,-2.30607e-06,5.74053e-07,2.30414e-08,-5.73876e-06,1.49958e-05,1.5604e-06,0
-2.95167e-05,2.02343e-05,-5.76499e-06,4.22865e-06,-2.37258e-06,-5.40278e-06,1.76738e-05,1.08442e-06,0
-2.7544e-05,1.86436e-05,-1.36778e-05,5.77637e-06,-1.98767e-06,-3.41933e-06,2.01549e-05,1.63217e-06,0
-2.56258e-05,1.66141e-05,-2.11727e-05,6.74482e-06,-7.09796e-07,-1.8195e-06,2.18116e-05,2.73413e-06,0
-2.56027e-05,1.52885e-05,-2.30838e-05,6.5903e-06,1.37092e-06,-2.91587e-06,2.47037e-05,3.6902e-06,0
-2.696e-05,1.34766e-05,-2.20401e-05,2.7063e-06,5.42638e-06,-4.9685e-06,2.64922e-05,3.07172e-06,0
-2.72894e-05,1.25405e-05,-2.25904e-05,-2.70829e-06,1.09252e-05,-5.61918e-06,2.49379e-05,3.14774e-06,0
-2.64602e-05,1.33905e-05,-2.54876e-05,-6.15743e-06,1.40963e-05,-5.617e-06,2.10328e-05,5.12299e-06,0
-2.60922e-05,1.50237e-05,-2.9707e-05,-6.46559e-06,1.37927e-05,-5.89857e-06,1.5323e-05,7.37763e-06,0
-2.69505e-05,1.56778e-05,-3.14681e-05,-4.95392e-06,1.05052e-05,-6.38292e-06,9.29593e-06,7.79846e-06,0
-2.79772e-05,1.58726e-05,-2.65762e-05,-3.46604e-06,7.32756e-06,-6.53831e-06,2.37496e-06,7.03299e-06,0
-2.92555e-05,1.57928e-05,-1.65157e-05,-2.07973e-06,5.99196e-06,-6.24091e-06,-6.03711e-06,6.30611e-06,0
-3.06169e-05,1.68061e-05,-8.84155e-06,-1.5024e-06,6.07994e-06,-6.14128e-06,-1.31797e-05,4.75049e-06,0
-3.10216e-05,1.82016e-05,-7.73428e-06,-3.38304e-06,5.77535e-06,-6.11333e-06,-1.51607e-05,4.02601e-06,0
-3.00869e-05,1.85244e-05,-9.87174e-06,-7.72271e-06,5.20546e-06,-6.63343e-06,-1.28474e-05,5.70052e-06,0
-2.93233e-05,1.80523e-05,-1.10973e-05,-1.17781e-05,5.51004e-06,-8.4479e-06,-1.01452e-05,7.09076e-06,0
-2.88182e-05,1.7296e-05,-1.12095e-05,-1.29486e-05,7.09238e-06,-9.51081e-06,-8.96803e-06,6.5214e-06,0
-2.84887e-05,1.63016e-05,-1.11093e-05,-1.21698e-05,9.47681e-06,-8.32876e-06,-8.36751e-06,5.57477e-06,0
-2.91278e-05,1.65418e-05,-1.09453e-05,-1.30784e-05,1.03134e-05,-7.49519e-06,-8.66616e-06,3.28971e-06,0
-3.12152e-05,1.77131e-05,-1.00695e-05,-1.56028e-05,1.0443e-05,-7.46654e-06,-9.47447e-06,5.99387e-07,0
-3.27221e-05,1.91893e-05,-9.32258e-06,-1.82983e-05,9.93024e-06,-5.68877e-06,-8.45012e-06,-2.70507e-08,0
-3.13695e-05,2.02223e-05,-1.04154e-05,-1.79197e-05,6.98846e-06,-3.47432e-06,-4.49118e-06,4.36518e-07,0
-2.86943e-05,2.20831e-05,-1.03102e-05,-1.21183e-05,6.18443e-06,-3.12974e-06,-1.94702e-07,1.07939e-06,0
-2.78166e-05,2.33801e-05,-6.86006e-06,-6.73532e-08,1.26574e-05,-4.25527e-06,2.21504e-06,1.99087e-06,0
-2.75752e-05,2.15264e-05,-3.49433e-06,1.2123e-05,2.28909e-05,-5.62755e-06,4.21115e-06,2.13645e-06,0
-2.71242e-05,1.89417e-05,-3.08467e-06,1.42377e-05,3.31561e-05,-5.34528e-06,5.64134e-06,8.91895e-07,0
-2.94961e-05,1.62721e-05,-3.69705e-06,7.39455e-06,3.91839e-05,-3.90754e-06,7.13949e-06,-2.60466e-07,0
-3.10984e-05,1.46636e-05,-2.59089e-06,-3.65534e-08,3.85868e-05,-3.49242e-06,9.74235e-06,-1.14886e-06,0
-2.79734e-05,1.39602e-05,2.59333e-08,-1.74764e-06,3.6402e-05,-4.15863e-06,1.23175e-05,-1.48154e-06,0
-2.47412e-05,1.25633e-05,1.45444e-06,3.05759e-06,3.74807e-05,-4.18841e-06,1.25225e-05,-2.35684e-08,0
-2.62339e-05,1.05162e-05,4.73758e-07,7.81134e-06,3.98308e-05,-3.97836e-06,1.09475e-05,1.25718e-06,0
-3.03818e-05,9.5974e-06,-2.80183e-06,7.55468e-06,3.85138e-05,-5.46124e-06,8.21415e-06,8.06547e-07,0
-3.3147e-05,1.02784e-05,-6.63442e-06,4.07429e-06,3.23215e-05,-7.69477e-06,5.69406e-06,9.55822e-07,0
-3.32219e-05,1.00968e-05,-8.91432e-06,-1.20742e-08,2.29301e-05,-9.59466e-06,6.08738e-06,3.32594e-06,0
-3.18307e-05,9.43372e-06,-9.79238e-06,-1.6863e-07,1.52644e-05,-1.03287e-05,9.18278e-06,4.37223e-06,0
-3.0799e-05,8.97414e-06,-1.02496e-05,9.80044e-06,1.2786e-05,-1.03095e-05,1.18943e-05,3.16911e-06,0
-3.01487e-05,8.20015e-06,-1.08228e-05,2.54252e-05,1.36891e-05,-1.10694e-05,1.34301e-05,2.93522e-06,0
-2.98338e-05,6.81403e-06,-1.13264e-05,3.12614e-05,1.43828e-05,-1.2409e-05,1.46429e-05,3.87716e-06,0
-3.02222e-05,4.21779e-06,-1.19461e-05,2.22939e-05,1.33512e-05,-1.29995e-05,1.54338e-05,4.61677e-06,0
-3.04657e-05,8.81447e-07,-1.29934e-05,7.81967e-06,1.20232e-05,-1.32875e-05,1.68282e-05,5.42388e-06,0
-3.00007e-05,-2.69081e-06,-1.37495e-05,-2.56209e-06,1.24354e-05,-1.35326e-05,1.87389e-05,5.93673e-06,0
-3.01741e-05,-5.87423e-06,-1.29098e-05,-6.65727e-06,1.44322e-05,-1.20119e-05,2.00699e-05,4.74802e-06,0
-3.12023e-05,-6.77282e-06,-1.08986e-05,-7.87419e-06,1.46405e-05,-9.75346e-06,2.00183e-05,2.69476e-06,0
-3.19482e-05,-4.73428e-06,-8.44403e-06,-1.09281e-05,1.23546e-05,-9.09919e-06,1.99908e-05,2.52453e-06,0
-3.18387e-05,-2.12056e-06,-6.76471e-06,-1.70863e-05,1.12409e-05,-9.49804e-06,2.03139e-05,3.47631e-06,0
-3.06854e-05,-9.82768e-07,-7.42841e-06,-2.41155e-05,1.31376e-05,-9.39163e-06,2.02416e-05,3.04582e-06,0
-2.94366e-05,-2.78334e-06,-8.58298e-06,-3.06541e-05,1.55747e-05,-1.01457e-05,1.8198e-05,1.22549e-06,0
-2.84317e-05,-5.89328e-06,-8.54608e-06,-3.46484e-05,1.44542e-05,-1.19504e-05,1.56849e-05,-6.03289e-08,0
-2.88572e-05,-8.10279e-06,-9.38743e-06,-3.26431e-05,9.0083e-06,-1.35636e-05,1.54076e-05,4.53177e-07,0
-3.10278e-05,-9.77571e-06,-9.97882e-06,-2.57955e-05,3.9397e-06,-1.5106e-05,1.52108e-05,1.0761e-06,0
-3.26018e-05,-1.01085e-05,-7.55092e-06,-1.73377e-05,1.30662e-06,-1.45992e-05,1.41462e-05,1.73058e-06,0
-3.20111e-05,-7.32951e-06,-4.86722e-06,-1.22547e-05,5.65575e-07,-1.22504e-05,1.40902e-05,1.5314e-06,0
-3.09016e-05,-3.71548e-06,-4.86333e-06,-1.08514e-05,5.16195e-07,-1.03428e-05,1.48343e-05,4.27472e-07,0
-3.21642e-05,-3.15331e-06,-5.88487e-06,-9.91613e-06,-6.27183e-07,-9.81931e-06,1.55971e-05,-8.67848e-07,0
-3.3617e-05,-5.81605e-06,-6.2521e-06,-8.48945e-06,-4.38255e-06,-1.03944e-05,1.74178e-05,-4.93688e-07,0
-3.24422e-05,-6.20136e-06,-6.5877e-06,-5.3029e-06,-6.8196e-06,-1.09787e-05,1.84265e-05,1.78344e-06,0
-3.05982e-05,-2.84493e-06,-7.42021e-06,-2.61588e-06,-4.02389e-06,-1.14784e-05,1.85006e-05,2.50931e-06,0
-2.97529e-05,-4.78317e-07,-8.45308e-06,-1.05738e-06,-9.86307e-07,-1.13873e-05,1.97817e-05,2.15701e-06,0
-3.01533e-05,6.92368e-07,-9.70693e-06,-1.81816e-07,-5.14824e-07,-1.08955e-05,2.10185e-05,2.42414e-06,0
-3.08077e-05,3.63473e-06,-1.08918e-05,1.11347e-06,-9.36408e-07,-9.75596e-06,2.11511e-05,3.71309e-06,0
-3.11924e-05,6.77164e-06,-1.1891e-05,1.44795e-06,-1.07181e-06,-8.57465e-06,2.10543e-05,3.89704e-06,0
-3.12604e-05,7.23365e-06,-1.24695e-05,-6.80551e-07,-9.71365e-07,-8.31086e-06,2.08687e-05,2.93564e-06,0
-3.13041e-05,7.57777e-06,-1.29376e-05,-5.08451e-06,-2.76311e-07,-8.04711e-06,1.89039e-05,2.62655e-06,0
-3.20224e-05,9.58094e-06,-1.38753e-05,-8.66744e-06,2.51466e-07,-7.77123e-06,1.41752e-05,3.10998e-06,0
-3.28123e-05,1.20859e-05,-1.46414e-05,-9.65298e-06,4.14986e-07,-8.67492e-06,8.50765e-06,3.26519e-06,0
-3.37905e-05,1.30702e-05,-1.3051e-05,-1.12348e-05,9.89848e-07,-1.02666e-05,4.693e-06,3.2707e-06,0
-3.46742e-05,1.3045e-05,-9.35879e-06,-1.44297e-05,1.91973e-06,-1.09958e-05,2.7785e-06,3.95186e-06,0
-3.4641e-05,1.39316e-05,-7.43129e-06,-1.53394e-05,4.24839e-06,-1.12263e-05,1.11229e-06,3.83384e-06,0
-3.40493e-05,1.54033e-05,-7.92662e-06,-1.26926e-05,9.58328e-06,-1.09776e-05,-4.70438e-07,2.12985e-06,0
-3.39725e-05,1.52326e-05,-8.70197e-06,-1.13787e-05,1.54475e-05,-9.84255e-06,-1.19508e-06,9.62176e-07,0
-3.41748e-05,1.30244e-05,-9.1144e-06,-1.19935e-05,1.81378e-05,-8.85876e-06,-2.66806e-06,7.65313e-07,0
-3.39232e-05,1.02975e-05,-9.09807e-06,-1.06522e-05,1.84781e-05,-8.3271e-06,-4.70506e-06,-1.004e-06,0
-3.24928e-05,9.1025e-06,-8.61492e-06,-5.91758e-06,1.8853e-05,-6.3789e-06,-3.29708e-06,-3.85335e-06,0
-3.14031e-05,9.63294e-06,-9.17418e-06,-2.25303e-06,2.09881e-05,-3.51428e-06,8.71586e-07,-6.32865e-06,0
-3.1674e-05,1.1448e-05,-9.87702e-06,-3.60772e-06,2.23222e-05,-2.18594e-06,4.69315e-06,-6.42479e-06,0
-3.14892e-05,1.32246e-05,-9.51163e-06,-9.03412e-06,1.9571e-05,-1.0847e-06,9.13841e-06,-5.08256e-06,0
-2.9992e-05,1.22361e-05,-9.18133e-06,-1.17193e-05,1.56178e-05,4.08773e-07,1.32415e-05,-4.73145e-06,0
-2.95419e-05,1.15851e-05,-1.01591e-05,-1.15605e-05,1.16843e-05,-9.77125e-08,1.50101e-05,-5.32174e-06,0
-3.08144e-05,1.20103e-05,-1.08888e-05,-1.16169e-05,9.13174e-06,-2.16938e-06,1.56025e-05,-6.1349e-06,0
-3.13311e-05,1.21806e-05,-1.06362e-05,-1.14312e-05,9.39462e-06,-2.72313e-06,1.58175e-05,-6.20193e-06,0
-3.1271e-05,1.35333e-05,-1.03541e-05,-1.03159e-05,9.38396e-06,-1.71524e-06,1.73297e-05,-6.65827e-06,0
-3.17431e-05,1.52602e-05,-8.18546e-06,-8.8285e-06,8.74779e-06,-2.37332e-06,1.9272e-05,-7.79263e-06,0
-3.24297e-05,1.75627e-05,-5.32353e-06,-6.47774e-06,9.76951e-06,-5.07657e-06,1.98265e-05,-8.37462e-06,0
-3.25446e-05,1.97059e-05,-4.82243e-06,-2.18594e-06,1.14747e-05,-7.18708e-06,1.9121e-05,-7.50262e-06,0
-3.20266e-05,2.13193e-05,-5.70256e-06,-1.74956e-06,1.22464e-05,-7.05757e-06,1.82141e-05,-5.18213e-06,0
-3.12559e-05,2.20363e-05,-6.82807e-06,-4.34334e-06,1.41884e-05,-6.79141e-06,1.76348e-05,-2.93741e-06,0
-3.05809e-05,2.16196e-05,-6.84144e-06,-5.92212e-06,1.70248e-05,-7.38696e-06,1.69306e-05,-2.26561e-06,0
-2.88876e-05,2.23364e-05,-5.03468e-06,-5.72351e-06,1.91516e-05,-8.41007e-06,1.72437e-05,-2.12583e-06,0
-2.73933e-05,2.34677e-05,-2.80258e-06,-2.79069e-06,2.08245e-05,-9.29283e-06,1.85815e-05,-1.20246e-06,0
-2.74561e-05,2.26757e-05,-1.24531e-06,9.12272e-07,2.26192e-05,-9.54231e-06,1.88089e-05,-1.64074e-07,0
-2.79022e-05,2.07317e-05,-9.79575e-07,3.06503e-06,2.31048e-05,-9.59316e-06,1.74119e-05,-3.06134e-07,0
-2.74335e-05,1.94625e-05,-1.36907e-06,4.52947e-06,2.17213e-05,-9.54204e-06,1.71788e-05,-1.35966e-06,0
-2.60074e-05,1.87563e-05,-1.27992e-06,6.52956e-06,2.08197e-05,-9.69278e-06,1.85128e-05,-1.43813e-06,0
-2.57018e-05,1.83457e-05,2.87195e-07,9.28094e-06,2.09601e-05,-9.99672e-06,1.97203e-05,-1.35267e-07,0
-2.65514e-05,1.86179e-05,1.1751e-06,1.1225e-05,2.0161e-05,-1.06895e-05,2.11013e-05,1.12233e-06,0
-2.62609e-05,1.98159e-05,-2.02001e-07,9.14603e-06,1.78638e-05,-1.16919e-05,2.24747e-05,1.28852e-06,0
-2.49909e-05,1.98526e-05,-2.44593e-06,4.09348e-06,1.56766e-05,-1.21467e-05,2.25671e-05,1.77726e-06,0
-2.53974e-05,1.76222e-05,-4.35457e-06,3.43383e-07,1.52609e-05,-9.80693e-06,2.17841e-05,3.02767e-06,0
-2.73787e-05,1.58853e-05,-5.3301e-06,-1.02025e-07,1.62865e-05,-5.53279e-06,2.01159e-05,2.08683e-06,0
-2.91556e-05,1.64179e-05,-6.35961e-06,1.75584e-07,1.50889e-05,-2.79161e-06,1.74389e-05,-7.64336e-07,0
-3.09707e-05,1.57624e-05,-9.28807e-06,-2.36524e-06,1.28971e-05,-3.98744e-06,1.6039e-05,-1.95233e-06,0
-3.15685e-05,1.22135e-05,-1.32164e-05,-9.48594e-06,1.20473e-05,-6.45016e-06,1.75051e-05,4.65772e-07,0
-2.98805e-05,7.96075e-06,-1.60869e-05,-2.01929e-05,1.12713e-05,-5.80605e-06,1.89825e-05,3.76085e-06,0
-2.91711e-05,4.06315e-06,-1.69676e-05,-2.55195e-05,1.06928e-05,-5.32419e-06,1.72435e-05,3.68732e-06,0
-2.78637e-05,2.48221e-06,-1.6662e-05,-2.32066e-05,1.0004e-05,-6.72019e-06,1.45998e-05,1.37381e-06,0
-2.53874e-05,2.61373e-06,-1.49056e-05,-1.79304e-05,1.22943e-05,-6.1903e-06,1.32077e-05,-3.57477e-07,0
-2.46129e-05,3.4964e-06,-1.28491e-05,-9.77541e-06,1.98404e-05,-4.56333e-06,1.12181e-05,-1.89045e-08,0
-2.59425e-05,5.67175e-06,-1.35114e-05,-2.38609e-06,2.60527e-05,-3.81585e-06,7.16871e-06,1.34369e-06,0
-2.80536e-05,6.68151e-06,-1.48773e-05,3.5264e-08,2.56002e-05,-4.42629e-06,2.55685e-06,9.75841e-07,0
-2.90272e-05,7.89627e-06,-1.51943e-05,-1.6495e-06,2.12372e-05,-5.77633e-06,-1.07203e-06,-1.35183e-06,0
-2.95268e-05,9.05836e-06,-1.46017e-05,-4.30926e-06,1.83609e-05,-6.11777e-06,-3.14145e-06,-2.02617e-06,0
-2.9056e-05,7.89137e-06,-1.2145e-05,-7.91184e-06,1.87502e-05,-6.30652e-06,-1.21848e-06,-6.94691e-07,0
-2.83432e-05,6.93916e-06,-8.82493e-06,-9.2231e-06,1.95708e-05,-7.51684e-06,3.73669e-06,5.29352e-07,0
-2.91663e-05,8.12012e-06,-7.89225e-06,-6.02573e-06,1.92364e-05,-8.42155e-06,8.02794e-06,-4.41025e-07,0
-3.16159e-05,1.00133e-05,-8.22684e-06,-1.95259e-06,1.86267e-05,-7.38236e-06,9.75949e-06,-1.9027e-06,0
-3.2777e-05,1.15244e-05,-8.00534e-06,1.37052e-06,2.00433e-05,-5.94489e-06,8.935e-06,4.66025e-08,0
-3.24016e-05,1.16383e-05,-7.73731e-06,3.78761e-06,2.28802e-05,-6.12311e-06,8.5873e-06,3.47197e-06,0
-3.24553e-05,9.41449e-06,-7.2779e-06,4.57424e-06,2.40574e-05,-7.32308e-06,1.13129e-05,5.22397e-06,0
-3.22736e-05,7.73905e-06,-6.38597e-06,3.21527e-06,2.32267e-05,-7.71637e-06,1.60955e-05,5.29557e-06,0
-3.16265e-05,8.61851e-06,-6.20707e-06,-2.44341e-09,2.12149e-05,-7.364e-06,1.96845e-05,5.69105e-06,0
-3.12024e-05,1.12038e-05,-7.22537e-06,-4.25289e-06,1.83305e-05,-7.47764e-06,2.03238e-05,5.41877e-06,0
-3.11157e-05,1.42756e-05,-7.29984e-06,-5.87243e-06,1.58968e-05,-7.79531e-06,1.91255e-05,3.23825e-06,0
-3.03542e-05,1.82863e-05,-5.23169e-06,-4.6332e-06,1.59939e-05,-6.11903e-06,1.80091e-05,3.60374e-07,0
-2.88199e-05,2.11778e-05,-3.36127e-06,-4.36957e-06,1.842e-05,-3.02527e-06,1.65145e-05,-8.23362e-07,0
-2.77443e-05,2.23654e-05,-4.76407e-06,-6.9327e-06,2.11186e-05,-1.85149e-06,1.44913e-05,-6.47043e-07,0
-2.80908e-05,2.33549e-05,-7.76426e-06,-1.00544e-05,2.17859e-05,-2.31779e-06,1.29578e-05,5.04367e-07,0
-2.88964e-05,2.40559e-05,-1.05194e-05,-1.01472e-05,2.12865e-05,-3.3248e-06,1.23511e-05,1.73551e-06,0
-2.99842e-05,2.63327e-05,-1.0142e-05,-7.78989e-06,2.03653e-05,-4.57122e-06,1.17661e-05,1.15144e-06,0
-3.08407e-05,2.75698e-05,-7.48108e-06,-6.76631e-06,1.75861e-05,-4.06182e-06,1.0395e-05,-1.18678e-06,0
-3.1465e-05,2.6239e-05,-5.79673e-06,-6.69861e-06,1.44265e-05,-2.87692e-06,8.60968e-06,-2.04752e-06,0
-3.22878e-05,2.50804e-05,-5.86669e-06,-5.63849e-06,1.26838e-05,-3.62399e-06,9.40202e-06,-8.96133e-07,0
-3.38415e-05,2.19229e-05,-6.1966e-06,-3.97171e-06,1.13983e-05,-6.16402e-06,1.2271e-05,-5.7426e-07,0
-3.55209e-05,1.82392e-05,-4.07817e-06,-1.13296e-06,1.10794e-05,-9.37786e-06,1.24124e-05,-1.20326e-06,0
-3.53077e-05,1.70548e-05,-2.09056e-06,9.58596e-07,1.07538e-05,-1.18895e-05,1.02928e-05,-5.94703e-07,0
-3.45502e-05,1.74093e-05,-9.36828e-07,1.4873e-06,9.16107e-06,-1.32847e-05,8.60496e-06,1.47319e-06,0
-3.35675e-05,1.85289e-05,-1.34927e-08,2.56756e-06,8.02795e-06,-1.34177e-05,9.06506e-06,2.24503e-06,0
-3.16443e-05,1.83109e-05,1.61573e-06,6.75477e-06,9.83958e-06,-1.30063e-05,1.07719e-05,2.57735e-06,0
-3.06379e-05,1.73945e-05,2.22774e-06,1.21402e-05,1.37623e-05,-1.35193e-05,1.14715e-05,1.71364e-06,0
-3.05759e-05,1.75243e-05,1.76242e-06,1.13232e-05,1.60559e-05,-1.52449e-05,9.89888e-06,-8.81567e-07,0
-3.0354e-05,1.67422e-05,1.28853e-06,3.50656e-06,1.39447e-05,-1.67678e-05,6.2722e-06,-4.23697e-06,0
-3.03037e-05,1.52649e-05,-2.64974e-07,-2.22898e-06,9.76237e-06,-1.70197e-05,1.43013e-06,-5.97757e-06,0
-3.09059e-05,1.41626e-05,-1.10276e-06,-1.78165e-06,8.63646e-06,-1.74186e-05,-3.34442e-07,-5.4997e-06,0
-3.21988e-05,1.36478e-05,2.3377e-06,1.42748e-06,9.75942e-06,-1.87345e-05,3.3552e-06,-4.23693e-06,0
-3.37026e-05,1.40443e-05,7.6858e-06,4.59868e-06,1.1051e-05,-2.06407e-05,8.23314e-06,-3.23738e-06,0
-3.45995e-05,1.43402e-05,7.09592e-06,6.11907e-06,1.07981e-05,-2.2684e-05,1.10687e-05,-2.83812e-06,0
-3.4721e-05,1.37475e-05,-4.20479e-07,5.90242e-06,8.13213e-06,-2.38973e-05,1.57457e-05,-2.25668e-06,0
-3.54309e-05,1.19815e-05,-1.10926e-05,3.65657e-06,5.31673e-06,-2.32282e-05,2.53463e-05,-1.45576e-06,0
-3.59122e-05,1.01822e-05,-2.08564e-05,-7.99537e-07,5.07122e-06,-2.14247e-05,3.60135e-05,-1.27242e-06,0
-3.52576e-05,9.20064e-06,-2.60737e-05,-5.81841e-06,6.72882e-06,-2.05324e-05,4.44723e-05,-2.54688e-06,0
-3.44018e-05,9.10582e-06,-2.48449e-05,-7.77954e-06,7.45925e-06,-2.02631e-05,4.95981e-05,-3.70973e-06,0
-3.34867e-05,9.30154e-06,-2.08929e-05,-7.83506e-06,5.71777e-06,-1.91575e-05,5.11607e-05,-3.44013e-06,0
-3.28197e-05,9.82177e-06,-1.82943e-05,-1.14101e-05,3.96429e-06,-1.90656e-05,5.05729e-05,-1.63578e-06,0
-3.30939e-05,1.05448e-05,-1.62132e-05,-1.96978e-05,4.33616e-06,-2.05398e-05,4.94612e-05,-5.99603e-07,0
-3.38206e-05,1.09347e-05,-1.21898e-05,-2.69944e-05,5.7793e-06,-2.05578e-05,4.51873e-05,-6.83157e-07,0
-3.35931e-05,1.10076e-05,-7.90971e-06,-3.03571e-05,5.43098e-06,-2.03364e-05,3.38648e-05,1.21298e-06,0
-3.2509e-05,1.0536e-05,-6.67836e-06,-3.33773e-05,4.27579e-06,-2.14814e-05,1.6501e-05,3.9794e-06,0
-3.07986e-05,1.20832e-05,-5.1189e-06,-3.53968e-05,5.52455e-06,-2.17886e-05,-4.01732e-06,3.12127e-06,0
-2.83747e-05,1.69354e-05,3.42341e-06,-3.31954e-05,7.56819e-06,-1.91782e-05,-1.86698e-05,1.05038e-06,0
-2.65787e-05,2.02816e-05,1.57423e-05,-2.60864e-05,8.56973e-06,-1.79196e-05,-2.22344e-05,-3.89117e-07,0
-2.61723e-05,2.16826e-05,2.36438e-05,-1.10681e-05,9.23843e-06,-1.96655e-05,-2.6889e-05,-1.76644e-06,0
-2.59784e-05,2.3839e-05,2.29226e-05,1.01426e-05,1.22748e-05,-2.01403e-05,-3.80267e-05,-1.71077e-06,0
-2.59074e-05,2.50011e-05,1.49338e-05,2.57431e-05,1.46318e-05,-1.86674e-05,-4.82942e-05,5.73702e-07,0
-2.60703e-05,2.42955e-05,-2.33425e-07,3.04565e-05,1.23237e-05,-1.69455e-05,-4.89816e-05,4.05503e-06,0
-2.58766e-05,2.31691e-05,-1.8952e-05,3.04998e-05,8.7416e-06,-1.64382e-05,-4.50578e-05,5.51292e-06,0
-2.69226e-05,2.25076e-05,-3.36374e-05,2.95639e-05,8.57515e-06,-1.55759e-05,-4.65456e-05,4.51945e-06,0
-2.78695e-05,2.188e-05,-3.77993e-05,2.23664e-05,1.11448e-05,-1.5066e-05,-5.16052e-05,3.81628e-06,0
-2.76295e-05,2.02304e-05,-2.69756e-05,9.47765e-06,1.2981e-05,-1.45423e-05,-5.2236e-05,5.2774e-06,0
-2.82159e-05,1.87977e-05,-6.94167e-06,-2.03733e-06,1.21935e-05,-1.2895e-05,-4.35604e-05,7.30553e-06,0
-2.89305e-05,1.96741e-05,1.21164e-05,-7.99184e-06,9.61231e-06,-1.12629e-05,-2.63614e-05,6.76756e-06,0
-2.87678e-05,2.24311e-05,1.84095e-05,-8.48533e-06,7.91126e-06,-1.00252e-05,-7.04688e-06,4.06376e-06,0
-2.88904e-05,2.4064e-05,7.45948e-06,-7.34361e-06,8.91615e-06,-9.07422e-06,4.89276e-06,3.34537e-06,0
-2.99198e-05,2.37358e-05,-1.79864e-05,-7.8236e-06,1.11425e-05,-7.258e-06,9.32019e-06,5.29853e-06,0
-3.03847e-05,2.29433e-05,-4.78662e-05,-1.01057e-05,1.18855e-05,-4.74294e-06,1.30335e-05,6.64354e-06,0
-3.04264e-05,2.31265e-05,-7.13044e-05,-1.17382e-05,1.04162e-05,-2.30137e-06,2.12372e-05,5.74967e-06,0
-3.07716e-05,2.41808e-05,-8.28654e-05,-1.34059e-05,8.06872e-06,-5.52838e-07,3.16246e-05,4.46244e-06,0
-3.15706e-05,2.37126e-05,-8.13842e-05,-1.64311e-05,7.36055e-06,4.25678e-07,4.12543e-05,4.21314e-06,0
-3.24643e-05,2.16807e-05,-6.96387e-05,-1.92627e-05,8.30409e-06,-7.1538e-09,4.73162e-05,5.4464e-06,0
-3.29078e-05,1.82824e-05,-5.48115e-05,-1.89966e-05,1.04708e-05,-1.79246e-06,5.00665e-05,8.12415e-06,0
-3.30406e-05,1.63773e-05,-4.14735e-05,-1.4866e-05,1.37546e-05,-3.73812e-06,5.1098e-05,1.03753e-05,0
-3.28983e-05,1.74857e-05,-2.89092e-05,-1.13751e-05,1.80796e-05,-4.04858e-06,5.02762e-05,9.74523e-06,0
-3.27232e-05,1.9485e-05,-1.66922e-05,-1.17555e-05,2.23139e-05,-3.45713e-06,4.7687e-05,7.5383e-06,0
-3.25904e-05,2.06061e-05,-7.89493e-06,-1.31262e-05,2.5085e-05,-4.32848e-06,4.30081e-05,8.03328e-06,0
-3.26906e-05,1.9493e-05,-3.55755e-06,-1.30652e-05,2.68884e-05,-6.17978e-06,3.83164e-05,1.04587e-05,0
-3.18046e-05,1.77762e-05,8.20948e-07,-1.04942e-05,2.71359e-05,-8.04271e-06,3.63912e-05,9.71942e-06,0
-2.97792e-05,1.72437e-05,2.25875e-06,-6.30342e-06,2.39056e-05,-7.9756e-06,3.61872e-05,6.37304e-06,0
-2.85336e-05,1.65713e-05,5.32136e-08,-3.23922e-06,1.72691e-05,-6.52605e-06,3.47538e-05,3.70926e-06,0
-2.83216e-05,1.52791e-05,-2.57017e-06,-1.4095e-06,1.29767e-05,-6.71672e-06,3.09759e-05,2.15807e-06,0
-2.88642e-05,1.34581e-05,-2.99987e-06,-7.75852e-07,1.20598e-05,-8.12786e-06,2.49516e-05,8.36251e-07,0
-2.87491e-05,9.53991e-06,-1.52857e-06,-1.46375e-06,1.08484e-05,-8.54633e-06,1.87538e-05,-2.35741e-06,0
-2.76012e-05,5.22396e-06,-9.32667e-07,-1.91806e-06,8.43689e-06,-7.88089e-06,1.48659e-05,-5.69022e-06,0
-2.70579e-05,2.71842e-06,-4.60174e-06,-2.41535e-06,6.17441e-06,-6.82155e-06,1.42071e-05,-5.64469e-06,0
-2.76138e-05,3.32618e-06,-1.25984e-05,-1.87151e-06,6.63768e-06,-4.19155e-06,1.3314e-05,-4.27392e-06,0
-2.78903e-05,5.31355e-06,-2.01287e-05,-5.19312e-08,8.05248e-06,-2.48033e-06,1.0127e-05,-2.94875e-06,0
-2.69606e-05,6.5325e-06,-2.27483e-05,9.00642e-07,1.00696e-05,-4.22254e-06,6.32971e-06,-1.52766e-06,0
-2.5869e-05,7.90934e-06,-1.91515e-05,1.21243e-06,1.21569e-05,-5.74355e-06,1.35614e-06,2.05489e-07,0
-2.56341e-05,9.54307e-06,-1.16891e-05,7.65133e-07,1.31017e-05,-4.4559e-06,-5.13178e-06,1.61232e-06,0
-2.7019e-05,1.20104e-05,-3.56785e-06,-1.05815e-06,1.25198e-05,-3.12552e-06,-9.79615e-06,2.02149e-06,0
-2.87267e-05,1.50602e-05,1.73831e-06,-4.31392e-06,1.24249e-05,-3.74664e-06,-1.13091e-05,3.10095e-06,0
-2.95588e-05,1.73504e-05,3.84388e-06,-7.10899e-06,1.4226e-05,-5.48356e-06,-8.51273e-06,5.58469e-06,0
-2.9802e-05,1.78299e-05,3.26553e-06,-9.30453e-06,1.65091e-05,-6.80535e-06,-1.07119e-06,8.91267e-06,0
-2.92259e-05,1.69399e-05,1.53102e-06,-1.17885e-05,1.76013e-05,-7.19742e-06,8.58505e-06,1.03826e-05,0
-2.77081e-05,1.55743e-05,4.30038e-08,-1.4012e-05,1.65806e-05,-7.71109e-06,1.74186e-05,1.02711e-05,0
-2.64784e-05,1.37442e-05,-4.63823e-07,-1.38815e-05,1.56408e-05,-8.19162e-06,2.32107e-05,1.06487e-05,0
-2.61475e-05,1.12484e-05,-3.10858e-07,-1.23788e-05,1.49966e-05,-8.32488e-06,2.60749e-05,1.09731e-05,0
-2.63975e-05,1.0435e-05,-1.1847e-07,-1.30317e-05,1.45111e-05,-8.44074e-06,2.7463e-05,9.72743e-06,0
-2.81488e-05,1.18463e-05,2.44157e-07,-1.61211e-05,1.45683e-05,-7.95612e-06,2.87019e-05,8.15279e-06,0
-3.02375e-05,1.29302e-05,8.13518e-07,-1.74904e-05,1.49226e-05,-5.8945e-06,3.0868e-05,7.17911e-06,0
-3.00413e-05,1.24723e-05,1.20088e-06,-1.51961e-05,1.58729e-05,-4.33593e-06,3.30119e-05,6.60557e-06,0
-2.8558e-05,1.1213e-05,1.43858e-06,-1.0795e-05,1.85205e-05,-5.21608e-06,3.32355e-05,7.94524e-06,0
-2.71762e-05,1.00787e-05,3.20417e-06,-5.3344e-06,2.14033e-05,-8.17185e-06,3.2786e-05,9.04026e-06,0
-2.5259e-05,1.08575e-05,4.60005e-06,2.97683e-07,2.1853e-05,-9.69397e-06,3.25497e-05,7.01231e-06,0
-2.5074e-05,1.36579e-05,3.95683e-06,4.07242e-06,1.91265e-05,-7.62626e-06,3.24404e-05,3.70157e-06,0
-2.74437e-05,1.50744e-05,3.04224e-06,5.45714e-06,1.64413e-05,-5.96019e-06,3.09742e-05,7.62632e-07,0
-2.76578e-05,1.5086e-05,1.56645e-06,8.38147e-06,1.73725e-05,-7.11819e-06,2.77897e-05,-1.14477e-06,0
-2.69393e-05,1.34689e-05,1.1556e-06,1.10232e-05,2.0785e-05,-9.11555e-06,2.30701e-05,-3.22328e-06,0
-2.78084e-05,1.21052e-05,2.25051e-06,1.08695e-05,2.39322e-05,-8.41185e-06,1.72908e-05,-4.9273e-06,0
-2.84523e-05,1.23817e-05,3.57964e-06,6.96974e-06,2.33876e-05,-5.80544e-06,1.21747e-05,-4.53648e-06,0
-2.87531e-05,1.30066e-05,3.91733e-06,1.16801e-06,1.77828e-05,-5.30596e-06,8.57246e-06,-3.3396e-06,0
-2.95308e-05,1.40666e-05,3.09748e-06,-2.97965e-06,1.12058e-05,-5.88828e-06,6.15977e-06,-2.22476e-06,0
-3.11325e-05,1.39062e-05,3.73822e-06,-4.25271e-06,7.31887e-06,-6.10852e-06,4.76068e-06,-2.38797e-06,0
-3.13637e-05,1.21582e-05,3.66828e-06,-3.45264e-06,6.91778e-06,-7.27094e-06,5.94218e-06,-3.75104e-06,0
-3.03934e-05,1.05138e-05,2.11367e-06,-1.82001e-06,8.19825e-06,-8.89896e-06,8.47573e-06,-5.03529e-06,0
-2.98591e-05,9.95292e-06,4.72383e-07,-4.68117e-07,9.23636e-06,-9.71862e-06,1.0719e-05,-5.8384e-06,0
-3.08894e-05,1.03806e-05,-5.99056e-07,-9.4811e-07,9.10184e-06,-1.04685e-05,1.21352e-05,-6.35924e-06,0
-3.27049e-05,9.98636e-06,-1.67724e-06,-1.16138e-06,9.66551e-06,-1.14303e-05,1.2082e-05,-5.41548e-06,0
-3.40656e-05,8.4227e-06,-3.78715e-06,1.11898e-06,1.21651e-05,-1.20507e-05,1.11849e-05,-2.86417e-06,0
-3.49661e-05,7.04664e-06,-6.2448e-06,5.03412e-06,1.5146e-05,-1.24491e-05,1.0928e-05,-9.74668e-07,0
-3.50756e-05,6.42994e-06,-6.86165e-06,5.83456e-06,1.6839e-05,-1.11281e-05,1.22298e-05,-8.73694e-07,0
-3.40506e-05,5.92897e-06,-6.11325e-06,1.6474e-06,1.65493e-05,-7.68917e-06,1.32535e-05,-1.77407e-06,0
-3.24486e-05,4.23829e-06,-5.86787e-06,-4.14364e-06,1.6537e-05,-4.99327e-06,1.31035e-05,-2.16845e-06,0
-3.126e-05,1.10276e-06,-5.54918e-06,-6.9453e-06,1.69014e-05,-5.0062e-06,1.25719e-05,-1.46093e-06,0
-3.03489e-05,-1.67072e-06,-4.90478e-06,-6.14155e-06,1.5651e-05,-7.00095e-06,1.23031e-05,-1.07064e-06,0
-2.99083e-05,-1.80158e-06,-3.69591e-06,-4.39141e-06,1.27988e-05,-9.02435e-06,1.25595e-05,-1.22811e-06,0
-2.9109e-05,5.95597e-07,-2.30439e-06,-4.63707e-06,1.03597e-05,-1.08313e-05,1.28557e-05,-7.89863e-07,0
-2.85981e-05,3.62381e-06,-8.28117e-07,-5.49975e-06,8.99198e-06,-1.22304e-05,1.45672e-05,3.23777e-07,0
-2.81029e-05,3.64377e-06,2.79212e-07,-4.94818e-06,7.43752e-06,-1.1967e-05,1.73586e-05,1.15433e-06,0
-2.70816e-05,1.93813e-06,9.76367e-07,-4.80492e-06,5.25954e-06,-1.18714e-05,1.88794e-05,1.63609e-06,0
-2.71104e-05,2.31879e-06,1.99034e-06,-3.54805e-06,5.14758e-06,-1.3326e-05,1.90354e-05,1.30535e-06,0
-2.88382e-05,3.72877e-06,3.51785e-06,1.20592e-07,6.04778e-06,-1.56493e-05,1.83887e-05,-5.1087e-07,0
-2.92983e-05,4.93317e-06,5.30073e-06,4.27019e-06,8.82495e-06,-1.64849e-05,1.77357e-05,-1.66045e-06,0
-2.70253e-05,4.83239e-06,7.09601e-06,8.24116e-06,1.41791e-05,-1.43137e-05,1.66148e-05,-1.15005e-06,0
-2.53355e-05,4.60383e-06,7.78941e-06,9.872e-06,1.7085e-05,-1.1359e-05,1.54599e-05,-1.19433e-06,0
-2.61995e-05,7.02477e-06,5.21659e-06,8.35437e-06,1.67496e-05,-1.04336e-05,1.38256e-05,-1.75018e-06,0
-2.75687e-05,9.31614e-06,-7.34071e-07,8.57155e-06,1.61943e-05,-1.14093e-05,1.06712e-05,-3.31755e-06,0
-2.78257e-05,8.7091e-06,-7.04097e-06,1.71175e-05,1.54015e-05,-1.24934e-05,6.82043e-06,-5.29694e-06,0
-2.82901e-05,6.98775e-06,-1.16269e-05,3.05187e-05,1.4397e-05,-1.18946e-05,3.48629e-06,-5.5564e-06,0
-2.816e-05,6.93603e-06,-1.64102e-05,3.49295e-05,1.34598e-05,-1.01597e-05,2.15596e-06,-5.38823e-06,0
-2.76813e-05,8.52515e-06,-2.55324e-05,2.44029e-05,1.17692e-05,-8.88495e-06,1.13536e-06,-5.08398e-06,0
-2.75205e-05,9.9348e-06,-3.67063e-05,5.447e-06,9.82135e-06,-8.68555e-06,-1.29896e-06,-4.48561e-06,0
-2.85992e-05,8.92078e-06,-4.32439e-05,-1.2598e-05,8.21428e-06,-9.32693e-06,-3.89757e-06,-2.31954e-06,0
-2.9372e-05,6.7691e-06,-4.0039e-05,-2.58758e-05,7.95005e-06,-9.1136e-06,-4.47636e-06,6.19699e-07,0
-2.87279e-05,5.54552e-06,-3.0167e-05,-3.38081e-05,9.96068e-06,-9.25405e-06,-2.95371e-06,2.02269e-06,0
-2.94069e-05,4.68992e-06,-2.15838e-05,-3.8287e-05,1.10684e-05,-1.15647e-05,6.74914e-07,1.21535e-06,0
-3.12754e-05,3.99729e-06,-1.76514e-05,-4.00688e-05,9.02645e-06,-1.45159e-05,5.0896e-06,-1.34415e-07,0
-3.20096e-05,4.40133e-06,-1.64828e-05,-4.0244e-05,6.98956e-06,-1.56066e-05,7.77186e-06,3.08601e-07,0
-3.11171e-05,5.88339e-06,-1.47043e-05,-4.20908e-05,6.85915e-06,-1.54293e-05,7.80899e-06,2.41954e-06,0
-3.13648e-05,6.55117e-06,-1.24012e-05,-4.46243e-05,8.28191e-06,-1.47863e-05,7.78663e-06,3.48184e-06,0
-3.26142e-05,5.82415e-06,-1.00821e-05,-4.21836e-05,1.0216e-05,-1.37046e-05,1.026e-05,2.46157e-06,0
-3.32114e-05,5.19921e-06,-8.86864e-06,-3.29762e-05,1.30151e-05,-1.19881e-05,1.32397e-05,1.0646e-06,0
-3.31805e-05,7.23957e-06,-8.59269e-06,-2.07633e-05,1.59692e-05,-1.07763e-05,1.51405e-05,-5.43276e-07,0
-3.37039e-05,1.04817e-05,-8.64322e-06,-1.08986e-05,1.72796e-05,-1.18063e-05,1.64691e-05,-7.5938e-07,0
-3.41738e-05,1.22159e-05,-8.31099e-06,-4.9189e-06,1.49729e-05,-1.35989e-05,1.66711e-05,5.30506e-07,0
-3.34995e-05,1.18322e-05,-8.19721e-06,-2.79079e-06,1.11302e-05,-1.48463e-05,1.42878e-05,4.90747e-07,0
-3.30265e-05,1.1827e-05,-8.84029e-06,-4.68446e-06,7.90542e-06,-1.51608e-05,1.03755e-05,-1.57239e-06,0
-3.40525e-05,1.43173e-05,-9.62635e-06,-7.07337e-06,5.76702e-06,-1.3015e-05,8.29428e-06,-3.7065e-06,0
-3.45268e-05,1.67088e-05,-1.02159e-05,-8.54916e-06,4.86572e-06,-1.14557e-05,9.64923e-06,-4.24949e-06,0
-3.32963e-05,1.71626e-05,-9.73484e-06,-7.27241e-06,3.97328e-06,-1.39928e-05,1.09444e-05,-3.63517e-06,0
-3.15212e-05,1.69772e-05,-8.50895e-06,-7.77377e-06,6.01482e-06,-1.57265e-05,1.10943e-05,-2.75565e-06,0
-3.03149e-05,1.64656e-05,-7.21259e-06,-1.32694e-05,9.80745e-06,-1.45258e-05,1.1187e-05,-1.73969e-06,0
-3.13643e-05,1.72507e-05,-5.58717e-06,-2.04394e-05,1.17685e-05,-1.26662e-05,1.05945e-05,-1.13806e-06,0
-3.34978e-05,1.92105e-05,-3.65483e-06,-2.54812e-05,1.13742e-05,-1.16676e-05,1.01446e-05,-8.89293e-07,0
-3.40175e-05,2.20833e-05,-2.44779e-06,-2.68109e-05,9.25816e-06,-1.12166e-05,1.17227e-05,-1.23898e-06,0
-3.31651e-05,2.52164e-05,-2.75985e-06,-2.61043e-05,7.77974e-06,-9.78087e-06,1.30753e-05,-1.3657e-06,0
-3.26516e-05,2.57325e-05,-3.4211e-06,-2.19491e-05,7.25991e-06,-7.84131e-06,1.42085e-05,-1.39355e-06,0
-3.2188e-05,2.24631e-05,-1.86376e-06,-1.51225e-05,9.82888e-06,-6.23043e-06,1.53088e-05,-1.82577e-06,0
-3.24775e-05,1.82506e-05,8.56965e-07,-1.30241e-05,1.5992e-05,-4.8214e-06,1.35654e-05,-1.72348e-06,0
-3.26761e-05,1.71937e-05,2.53184e-06,-2.10445e-05,2.22647e-05,-2.39432e-06,1.08829e-05,-1.32675e-06,0
-3.09689e-05,1.86702e-05,3.34044e-06,-3.06064e-05,2.51555e-05,3.78759e-07,1.09597e-05,1.00406e-07,0
-2.86954e-05,2.02516e-05,2.7268e-06,-2.97192e-05,2.42779e-05,1.56035e-06,1.58616e-05,2.29331e-06,0
-2.81884e-05,2.01288e-05,5.3174e-07,-1.7272e-05,2.18336e-05,3.64762e-07,2.25031e-05,3.09581e-06,0
-2.89861e-05,1.80991e-05,-2.11418e-06,-2.68032e-06,2.00467e-05,-1.40356e-06,2.67053e-05,5.08569e-07,0
-3.02064e-05,1.47086e-05,-3.89262e-06,1.0981e-05,2.01183e-05,-1.45372e-06,2.63872e-05,-3.15626e-06,0
-3.08834e-05,1.20231e-05,-3.91095e-06,2.98165e-05,2.06028e-05,-1.97464e-07,2.2898e-05,-4.79257e-06,0
-2.94963e-05,1.00308e-05,-2.8815e-06,5.25264e-05,1.95203e-05,-3.92185e-08,1.85041e-05,-4.02238e-06,0
-2.73371e-05,9.02348e-06,-2.34286e-06,6.80845e-05,1.64984e-05,-5.78855e-07,1.4902e-05,-2.5903e-06,0
-2.69004e-05,9.12036e-06,-2.83419e-06,6.70527e-05,1.51583e-05,1.08104e-06,1.29925e-05,-2.21812e-06,0
-2.89742e-05,8.30697e-06,-3.36598e-06,4.93537e-05,1.6122e-05,3.32391e-06,1.15828e-05,-1.01339e-06,0
-3.08007e-05,7.69351e-06,-4.45922e-06,2.59401e-05,1.57793e-05,3.80792e-06,1.04996e-05,1.01558e-06,0
-2.98757e-05,9.13898e-06,-7.67751e-06,7.81701e-06,1.2187e-05,3.22611e-06,9.86186e-06,9.49605e-07,0
-2.86848e-05,1.00806e-05,-1.24783e-05,-5.16913e-06,7.0279e-06,2.82983e-06,8.62059e-06,-1.06716e-06,0
-2.93092e-05,7.97894e-06,-1.61073e-05,-1.01732e-05,2.14411e-06,2.573e-06,7.31367e-06,-2.74974e-06,0
-2.99756e-05,6.94299e-06,-1.68372e-05,-2.72675e-06,-1.4306e-06,-8.05277e-07,5.77846e-06,-3.76001e-06,0
-3.02291e-05,7.55857e-06,-1.47652e-05,7.01425e-06,-2.80083e-06,-4.97119e-06,4.02609e-06,-3.93897e-06,0
-3.17165e-05,5.86287e-06,-1.1433e-05,1.12967e-05,-1.08202e-06,-4.88377e-06,1.51323e-06,-4.05413e-06,0
-3.18759e-05,4.42664e-06,-9.27086e-06,7.01601e-06,3.6758e-06,-3.73128e-06,5.18463e-07,-5.73898e-06,0
-2.99358e-05,5.10368e-06,-8.35539e-06,-6.43261e-06,6.86673e-06,-3.2612e-06,3.18655e-06,-6.48863e-06,0
-3.02024e-05,6.45639e-06,-7.76648e-06,-1.76186e-05,6.93694e-06,-3.2852e-06,5.41559e-06,-5.03928e-06,0
-3.17989e-05,7.89192e-06,-6.66018e-06,-1.93117e-05,7.85089e-06,-3.49624e-06,7.52114e-06,-4.03715e-06,0
-3.38953e-05,9.48431e-06,-5.32879e-06,-1.0248e-05,1.508e-05,-4.2142e-06,9.73623e-06,-3.25756e-06,0
-3.39529e-05,1.07795e-05,-4.74936e-06,2.30143e-06,3.10451e-05,-4.98513e-06,1.10226e-05,-2.21136e-06,0
-3.18312e-05,1.1736e-05,-4.70426e-06,7.60151e-06,4.63964e-05,-4.88466e-06,1.18761e-05,-1.84587e-06,0
-3.02889e-05,1.20879e-05,-4.4425e-06,2.60647e-06,5.05675e-05,-5.25432e-06,1.27192e-05,-2.02024e-06,0
-3.01639e-05,1.19209e-05,-5.47489e-06,-6.45265e-06,4.40392e-05,-6.16936e-06,1.17822e-05,-1.70172e-06,0
-3.02189e-05,1.01543e-05,-9.66455e-06,-1.32649e-05,3.53086e-05,-7.67209e-06,1.03139e-05,-1.00787e-06,0
-2.90933e-05,7.30088e-06,-1.48709e-05,-1.51969e-05,2.94161e-05,-1.03801e-05,1.09541e-05,-6.35649e-07,0
-2.84947e-05,5.34699e-06,-1.91809e-05,-1.2245e-05,2.57505e-05,-1.40722e-05,1.3541e-05,9.12799e-07,0
-2.88989e-05,3.42679e-06,-2.19974e-05,-9.2284e-06,2.33368e-05,-1.63323e-05,1.68151e-05,3.8722e-06,0
-3.01088e-05,1.18936e-06,-2.19607e-05,-8.41843e-06,2.17834e-05,-1.68824e-05,1.82343e-05,5.60031e-06,0
-3.12721e-05,-1.30411e-06,-1.92936e-05,-7.6672e-06,2.1541e-05,-1.62466e-05,1.72296e-05,5.07901e-06,0
-3.25853e-05,-3.66431e-06,-1.67834e-05,-5.20821e-06,2.26093e-05,-1.58443e-05,1.49631e-05,4.78117e-06,0
-3.34053e-05,-5.01357e-06,-1.60572e-05,-4.17962e-06,2.44122e-05,-1.65876e-05,1.42015e-05,5.64651e-06,0
-3.39896e-05,-2.95207e-06,-1.65896e-05,-6.80243e-06,2.40585e-05,-1.68744e-05,1.57287e-05,5.98345e-06,0
-3.38113e-05,8.80554e-07,-1.72364e-05,-1.16043e-05,2.09386e-05,-1.53756e-05,1.76405e-05,5.13332e-06,0
-3.29092e-05,5.30911e-06,-1.74558e-05,-1.3271e-05,1.72895e-05,-1.40814e-05,1.80575e-05,4.3695e-06,0
-3.18143e-05,8.67117e-06,-1.80131e-05,-1.13659e-05,1.31691e-05,-1.49175e-05,1.78227e-05,5.28291e-06,0
-3.14471e-05,1.01621e-05,-1.83784e-05,-1.1403e-05,9.16432e-06,-1.57155e-05,1.87466e-05,6.85325e-06,0
-3.26527e-05,1.11662e-05,-1.82538e-05,-1.53704e-05,7.54237e-06,-1.5223e-05,2.03188e-05,6.46625e-06,0
-3.38351e-05,1.235e-05,-1.86212e-05,-1.90863e-05,6.96779e-06,-1.32285e-05,1.95676e-05,4.52177e-06,0
-3.35546e-05,1.30514e-05,-1.89191e-05,-1.92008e-05,5.44409e-06,-1.15881e-05,1.47129e-05,4.09704e-06,0
-3.19621e-05,1.25643e-05,-1.79462e-05,-1.56266e-05,4.74904e-06,-1.11771e-05,6.72757e-06,6.6464e-06,0
-3.10876e-05,1.27408e-05,-1.47652e-05,-9.4654e-06,5.72876e-06,-9.756e-06,2.85825e-06,8.95501e-06,0
-3.04627e-05,1.39779e-05,-1.04122e-05,-6.75181e-06,6.65395e-06,-8.62468e-06,7.53942e-06,7.93041e-06,0
-2.88273e-05,1.63572e-05,-7.82834e-06,-8.51752e-06,6.94759e-06,-8.01989e-06,1.62421e-05,6.36147e-06,0
-2.81512e-05,1.88525e-05,-6.47767e-06,-6.9163e-06,7.50525e-06,-7.38147e-06,2.36075e-05,5.45588e-06,0
-2.89073e-05,2.0515e-05,-4.64719e-06,-2.63962e-07,8.21566e-06,-7.55365e-06,2.74288e-05,4.93623e-06,0
-2.88179e-05,2.02978e-05,-3.17581e-06,6.54112e-06,7.76489e-06,-8.12709e-06,2.85572e-05,4.5866e-06,0
-2.83852e-05,1.97289e-05,-3.1791e-07,8.45908e-06,7.2548e-06,-9.41445e-06,2.80914e-05,4.59972e-06,0
-2.82147e-05,2.0308e-05,2.3995e-06,6.20891e-06,7.95503e-06,-1.06376e-05,2.6688e-05,5.48339e-06,0
-2.79121e-05,2.1256e-05,2.46142e-06,2.76819e-06,9.988e-06,-1.11134e-05,2.26703e-05,4.82428e-06,0
-2.89329e-05,2.15081e-05,3.96941e-07,-1.01149e-06,1.15111e-05,-1.09593e-05,1.65731e-05,2.85386e-06,0
-3.05945e-05,2.12938e-05,-2.06492e-06,-4.142e-06,1.23505e-05,-1.1628e-05,1.14003e-05,8.58719e-07,0
-3.0283e-05,2.11971e-05,-4.10623e-06,-5.06977e-06,1.39448e-05,-1.2106e-05,8.34521e-06,-8.30466e-07,0
-2.85539e-05,2.08334e-05,-6.574e-06,-3.56031e-06,1.56751e-05,-1.09966e-05,6.77811e-06,-4.47895e-07,0
-2.78716e-05,2.12148e-05,-8.31059e-06,-3.44829e-06,1.56882e-05,-9.08576e-06,7.01111e-06,2.31681e-06,0
-2.82427e-05,2.26929e-05,-9.12439e-06,-6.26332e-06,1.30938e-05,-7.66142e-06,8.30696e-06,5.52512e-06,0
-2.81635e-05,2.3923e-05,-8.91011e-06,-9.30794e-06,9.302e-06,-6.79928e-06,9.79075e-06,7.66827e-06,0
-2.76932e-05,2.38693e-05,-8.92857e-06,-1.01199e-05,5.1322e-06,-6.75679e-06,1.33062e-05,7.87178e-06,0
-2.76244e-05,2.4008e-05,-9.10431e-06,-9.47613e-06,2.30798e-06,-8.41437e-06,2.2417e-05,7.39745e-06,0
-2.8291e-05,2.43418e-05,-9.4276e-06,-8.78218e-06,1.40849e-06,-1.03572e-05,3.82253e-05,6.94241e-06,0
-2.95934e-05,2.3108e-05,-1.00335e-05,-9.25438e-06,2.52181e-06,-1.08082e-05,5.64616e-05,6.17815e-06,0
-3.13089e-05,2.09262e-05,-9.1503e-06,-1.023e-05,4.53707e-06,-9.69579e-06,6.85276e-05,5.86145e-06,0
-3.23476e-05,1.90267e-05,-6.06186e-06,-1.07907e-05,4.95911e-06,-8.4163e-06,6.52409e-05,5.71989e-06,0
-3.15307e-05,1.78932e-05,-4.55e-06,-9.77058e-06,4.70099e-06,-8.36813e-06,4.98629e-05,5.64897e-06,0
-3.05397e-05,1.74488e-05,-5.82012e-06,-7.09097e-06,6.93139e-06,-9.79524e-06,3.40235e-05,5.24912e-06,0
-3.11467e-05,1.80587e-05,-6.81207e-06,-4.93091e-06,1.02769e-05,-9.84546e-06,2.39603e-05,4.56973e-06,0
-3.08739e-05,2.0392e-05,-7.486e-06,-5.355e-06,1.08122e-05,-8.27664e-06,1.53013e-05,3.81814e-06,0
-2.97966e-05,2.21736e-05,-6.94809e-06,-5.69379e-06,6.57291e-06,-7.09391e-06,-6.79305e-07,2.93424e-06,0
-2.96782e-05,2.1618e-05,-4.91431e-06,-4.01851e-06,-4.44568e-09,-7.4247e-06,-2.01059e-05,4.08313e-06,0
-2.91242e-05,1.78763e-05,-2.19397e-06,1.28993e-06,-3.18911e-06,-7.26064e-06,-3.45617e-05,6.46989e-06,0
-2.80634e-05,1.51185e-05,4.49526e-07,1.7995e-05,-9.32416e-07,-5.4182e-06,-3.98861e-05,8.23828e-06,0
-2.86238e-05,1.42849e-05,1.20332e-06,4.05636e-05,2.60324e-06,-4.63692e-06,-3.57701e-05,8.96009e-06,0
-3.04345e-05,1.21811e-05,6.92792e-07,5.16817e-05,6.16684e-06,-6.36945e-06,-2.81171e-05,8.39371e-06,0
-3.11035e-05,1.11687e-05,1.51425e-06,4.65537e-05,1.06205e-05,-8.46462e-06,-2.13588e-05,7.11681e-06,0
-3.04377e-05,1.11685e-05,4.49602e-06,3.34799e-05,1.35126e-05,-9.45363e-06,-1.7074e-05,5.11108e-06,0
-2.99297e-05,1.04541e-05,7.43368e-06,1.95271e-05,1.35585e-05,-8.40161e-06,-1.41562e-05,4.52787e-06,0
-3.0151e-05,8.61252e-06,7.52674e-06,7.65452e-06,1.26841e-05,-5.97687e-06,-1.27137e-05,4.73362e-06,0
-3.02972e-05,7.91083e-06,2.06272e-06,-6.8962e-07,1.312e-05,-4.9141e-06,-1.17099e-05,4.10036e-06,0
-2.99878e-05,7.65406e-06,-8.49044e-06,-7.96775e-06,1.19029e-05,-5.12002e-06,-1.04143e-05,3.31323e-06,0
-2.98462e-05,7.45139e-06,-1.87964e-05,-1.62082e-05,7.65323e-06,-7.07884e-06,-1.16406e-05,2.57747e-06,0
-3.04411e-05,7.16973e-06,-2.4872e-05,-2.60832e-05,4.18533e-06,-9.4328e-06,-1.51629e-05,1.58538e-06,0
-3.13896e-05,5.58135e-06,-2.52494e-05,-3.66947e-05,3.38609e-06,-1.0838e-05,-1.60071e-05,9.59385e-07,0
-3.21565e-05,3.07097e-06,-2.22227e-05,-4.46935e-05,2.54905e-06,-1.18149e-05,-1.10005e-05,1.44457e-06,0
-3.25413e-05,6.09849e-07,-1.93235e-05,-4.75175e-05,7.94834e-07,-1.27674e-05,-3.84339e-06,1.42089e-06,0
-3.27353e-05,-1.44114e-08,-1.76629e-05,-4.44964e-05,-1.6621e-07,-1.36241e-05,6.42647e-07,-2.32578e-07,0
-3.22109e-05,2.45372e-06,-1.53909e-05,-3.79138e-05,9.11784e-07,-1.39137e-05,4.10439e-06,-1.97895e-06,0
-3.13566e-05,5.91338e-06,-1.29001e-05,-3.0268e-05,4.0327e-06,-1.34449e-05,1.10422e-05,-2.2004e-06,0
-3.09313e-05,7.51336e-06,-1.22868e-05,-2.30194e-05,7.16373e-06,-1.22163e-05,1.84906e-05,-1.33493e-06,0
-3.03538e-05,7.36504e-06,-1.24437e-05,-1.66223e-05,9.20731e-06,-1.13968e-05,2.15353e-05,-1.27496e-06,0
-2.95911e-05,6.39323e-06,-1.15676e-05,-9.37561e-06,1.33076e-05,-1.22246e-05,2.03977e-05,-2.86096e-06,0
-2.86591e-05,7.50146e-06,-9.32248e-06,-1.50866e-07,1.92516e-05,-1.28597e-05,2.04301e-05,-4.81323e-06,0
-2.83107e-05,9.29117e-06,-7.64945e-06,5.50985e-06,2.29088e-05,-1.06859e-05,2.39071e-05,-6.66347e-06,0
-2.88549e-05,1.12678e-05,-8.06779e-06,5.27085e-06,2.12868e-05,-6.61638e-06,2.82529e-05,-7.5065e-06,0
-2.95699e-05,1.38854e-05,-9.71987e-06,2.25112e-06,1.46688e-05,-4.64719e-06,3.043e-05,-6.76463e-06,0
-3.03429e-05,1.54561e-05,-1.08384e-05,1.91365e-06,8.85567e-06,-6.45504e-06,3.21884e-05,-6.24655e-06,0
-3.11519e-05,1.4794e-05,-1.14404e-05,5.58862e-06,6.66389e-06,-8.53385e-06,3.53507e-05,-7.49214e-06,0
-3.17398e-05,1.3626e-05,-1.21287e-05,9.10634e-06,8.0252e-06,-8.87656e-06,3.50135e-05,-7.81769e-06,0
-3.12164e-05,1.52899e-05,-1.19334e-05,1.08314e-05,1.06371e-05,-9.00449e-06,3.09718e-05,-5.88819e-06,0
-3.21236e-05,1.79128e-05,-1.13391e-05,9.27569e-06,1.34544e-05,-8.53476e-06,2.54055e-05,-3.80607e-06,0
-3.40862e-05,1.89288e-05,-1.14768e-05,5.75061e-06,1.49607e-05,-6.85044e-06,2.0179e-05,-4.0671e-06,0
-3.41574e-05,1.77118e-05,-1.08826e-05,9.39645e-07,1.33948e-05,-5.53357e-06,1.64735e-05,-6.07317e-06,0
-3.28213e-05,1.47417e-05,-1.06159e-05,-4.56847e-06,1.07136e-05,-4.80813e-06,1.36267e-05,-6.53721e-06,0
-3.16203e-05,1.16953e-05,-1.11771e-05,-1.11137e-05,8.18764e-06,-4.50952e-06,1.10874e-05,-3.96706e-06,0
-3.16813e-05,1.09858e-05,-1.0938e-05,-1.76317e-05,7.22686e-06,-4.54662e-06,9.48876e-06,-6.05528e-07,0
-3.17941e-05,1.34758e-05,-9.95391e-06,-2.11188e-05,8.08803e-06,-4.03747e-06,1.01627e-05,1.13445e-06,0
-3.08238e-05,1.72265e-05,-8.95573e-06,-2.17111e-05,1.18461e-05,-2.45322e-06,1.26627e-05,1.5624e-06,0
-2.95585e-05,1.93353e-05,-9.3386e-06,-1.92386e-05,1.73303e-05,-1.18335e-06,1.56757e-05,1.52442e-06,0
-3.01713e-05,1.9049e-05,-9.88482e-06,-1.27779e-05,2.12457e-05,-2.21659e-06,1.72165e-05,2.32619e-06,0
-3.20634e-05,1.8711e-05,-9.54669e-06,-2.37246e-06,2.14872e-05,-5.08229e-06,1.71725e-05,2.61322e-06,0
-3.28119e-05,2.09416e-05,-8.93354e-06,1.03246e-05,1.94881e-05,-7.63129e-06,1.69681e-05,1.41826e-06,0
-3.12303e-05,2.37017e-05,-9.46608e-06,2.2551e-05,1.88309e-05,-8.16466e-06,1.80637e-05,1.94105e-07,0
-2.99194e-05,2.2895e-05,-1.15048e-05,3.06491e-05,2.03427e-05,-8.03864e-06,1.96205e-05,5.25843e-07,0
-3.06749e-05,1.96888e-05,-1.30655e-05,3.25831e-05,2.11472e-05,-9.81233e-06,2.02573e-05,9.54261e-07,0
-3.22045e-05,1.804e-05,-1.2114e-05,2.65678e-05,1.82875e-05,-1.25709e-05,1.88716e-05,1.39923e-06,0
-3.38629e-05,1.83157e-05,-1.00567e-05,1.28045e-05,1.35481e-05,-1.44882e-05,1.62575e-05,2.58657e-06,0
-3.49727e-05,1.83226e-05,-9.84029e-06,-2.29238e-06,1.00398e-05,-1.50322e-05,1.48965e-05,3.37926e-06,0
-3.46336e-05,1.61827e-05,-1.12696e-05,-1.41871e-05,8.95983e-06,-1.38624e-05,1.60282e-05,3.69699e-06,0
-3.30974e-05,1.08912e-05,-1.2099e-05,-2.48918e-05,1.02885e-05,-1.2938e-05,1.86723e-05,3.84793e-06,0
