ch1,ch2,ch3,ch4,ch5,ch6,ch7,ch8,class
-3.12224e-05,1.80868e-05,-3.10661e-06,-1.0387e-05,7.5729e-06,-1.79407e-05,1.69607e-05,-1.49439e-06,0
-3.06856e-05,2.07015e-05,-2.12234e-06,-1.23796e-05,8.4778e-06,-1.73654e-05,1.66073e-05,-8.08498e-07,0
-3.04235e-05,2.2856e-05,-2.72556e-06,-1.4527e-05,7.94485e-06,-1.60426e-05,1.67984e-05,2.00659e-07,0
-2.98121e-05,2.32731e-05,-4.63972e-06,-1.61324e-05,6.63199e-06,-1.42344e-05,1.73794e-05,1.60584e-06,0
-2.88512e-05,2.07407e-05,-5.22723e-06,-1.63266e-05,7.43827e-06,-1.208e-05,1.55452e-05,2.75703e-06,0
-2.911e-05,1.65146e-05,-4.88973e-06,-1.34224e-05,1.10817e-05,-1.04006e-05,1.27654e-05,3.56254e-06,0
-3.02484e-05,1.38363e-05,-5.36325e-06,-8.11139e-06,1.41779e-05,-8.83868e-06,1.25456e-05,3.17574e-06,0
-3.11331e-05,1.2509e-05,-6.66697e-06,-6.24478e-06,1.56747e-05,-7.32762e-06,1.44713e-05,3.33402e-06,0
-3.24488e-05,1.18357e-05,-8.06225e-06,-7.277e-06,1.44949e-05,-7.16984e-06,1.53268e-05,4.59121e-06,0
-3.37021e-05,1.12344e-05,-7.16997e-06,-1.67981e-06,1.03663e-05,-7.84973e-06,1.50777e-05,4.34663e-06,0
-3.267e-05,1.0274e-05,-3.91227e-06,9.62368e-06,5.97439e-06,-7.23987e-06,1.3904e-05,2.31582e-06,0
-3.16518e-05,1.12568e-05,-2.8221e-06,1.39845e-05,4.13619e-06,-5.97415e-06,1.1503e-05,9.57334e-07,0
-3.17981e-05,1.40762e-05,-6.3549e-06,1.12325e-05,5.93411e-06,-5.07822e-06,1.01131e-05,4.67879e-07,0
-3.19153e-05,1.77168e-05,-1.02838e-05,7.37857e-06,8.03716e-06,-4.52975e-06,1.17753e-05,-2.08737e-06,0
-3.20118e-05,1.99755e-05,-1.25182e-05,2.93905e-06,8.22237e-06,-5.49979e-06,1.50401e-05,-3.54567e-06,0
-3.24983e-05,1.96097e-05,-1.44624e-05,-1.62474e-06,7.6418e-06,-7.65138e-06,1.42964e-05,-4.00248e-06,0
-3.31293e-05,1.8736e-05,-1.6257e-05,-3.86751e-06,8.84596e-06,-8.84434e-06,9.9955e-06,-3.72544e-06,0
-3.26898e-05,1.67849e-05,-1.72729e-05,-1.42939e-06,1.21363e-05,-9.0338e-06,5.05066e-06,-3.04503e-06,0
-3.32479e-05,1.539e-05,-1.59664e-05,5.77981e-06,1.53692e-05,-1.02607e-05,2.467e-06,-2.79773e-06,0
-3.38918e-05,1.59455e-05,-1.22287e-05,1.32115e-05,1.74871e-05,-1.12194e-05,2.5032e-06,-2.89731e-06,0
-3.23871e-05,1.76891e-05,-6.48291e-06,1.4608e-05,2.22064e-05,-1.04529e-05,2.68148e-06,-3.53369e-06,0
-3.01453e-05,1.78434e-05,-2.26394e-06,9.92793e-06,2.99765e-05,-8.72794e-06,1.21867e-06,-4.18789e-06,0
-2.88028e-05,1.5699e-05,-7.09229e-07,1.74444e-06,3.32969e-05,-8.94755e-06,-2.48158e-06,-5.55986e-06,0
-2.8324e-05,1.47215e-05,-6.8189e-07,-1.04616e-05,2.88678e-05,-1.10971e-05,-5.52739e-06,-6.27574e-06,0
-2.87607e-05,1.60925e-05,-2.22626e-06,-2.54571e-05,2.11288e-05,-1.20234e-05,-2.44521e-06,-6.21598e-06,0
-3.01898e-05,1.73127e-05,-5.37315e-06,-3.9101e-05,1.51617e-05,-1.22163e-05,8.08543e-06,-4.90026e-06,0
-3.12246e-05,1.69293e-05,-8.62123e-06,-4.6871e-05,1.18622e-05,-1.35679e-05,1.90507e-05,-3.28094e-06,0
-3.14321e-05,1.65069e-05,-9.08751e-06,-4.60645e-05,1.05121e-05,-1.53193e-05,2.29378e-05,-1.51981e-06,0
-3.05838e-05,1.68288e-05,-6.77076e-06,-3.78981e-05,1.26797e-05,-1.52882e-05,2.04304e-05,-7.64185e-07,0
-3.02993e-05,1.76093e-05,-3.77221e-06,-2.81935e-05,1.84517e-05,-1.31395e-05,1.60335e-05,-9.13247e-07,0
-3.08123e-05,1.81923e-05,-1.65136e-06,-2.10911e-05,2.17186e-05,-1.08457e-05,1.01089e-05,-1.3683e-06,0
-3.01932e-05,1.77767e-05,-7.45312e-07,-1.65279e-05,1.86924e-05,-1.05143e-05,4.74691e-06,-1.38652e-06,0
-2.85978e-05,1.66681e-05,-1.35125e-06,-1.60393e-05,1.25979e-05,-1.16817e-05,2.15958e-06,-5.04886e-07,0
-2.85554e-05,1.61999e-05,-1.55627e-06,-2.24866e-05,8.21998e-06,-1.23912e-05,1.07614e-06,2.11024e-06,0
-3.03347e-05,1.63426e-05,-8.32688e-07,-3.20603e-05,7.00379e-06,-1.16668e-05,4.35227e-07,6.22372e-06,0
-3.22154e-05,1.90776e-05,-9.30377e-07,-3.60268e-05,6.02724e-06,-1.02737e-05,1.78052e-06,8.79355e-06,0
-3.1651e-05,2.26126e-05,-2.11182e-06,-3.52394e-05,4.11525e-06,-8.12968e-06,5.91588e-06,8.54123e-06,0
-2.87128e-05,2.32548e-05,-4.03874e-06,-3.61868e-05,3.24853e-06,-6.86991e-06,1.19506e-05,6.21448e-06,0
-2.62482e-05,2.18027e-05,-6.30428e-06,-4.01986e-05,4.3595e-06,-7.0258e-06,1.85309e-05,4.29401e-06,0
-2.5911e-05,1.78496e-05,-8.08288e-06,-4.22554e-05,6.15231e-06,-6.55381e-06,2.51362e-05,4.92681e-06,0
-2.70769e-05,1.31828e-05,-9.33106e-06,-3.58996e-05,1.03535e-05,-4.95347e-06,2.96447e-05,5.36166e-06,0
-2.83672e-05,9.79019e-06,-1.00001e-05,-1.52042e-05,1.56291e-05,-2.99554e-06,2.89498e-05,4.60381e-06,0
-2.94466e-05,1.18565e-05,-1.04818e-05,1.22206e-05,1.76196e-05,-1.4287e-06,2.66234e-05,4.0201e-06,0
-2.97334e-05,1.70635e-05,-1.14801e-05,3.18615e-05,1.56237e-05,-4.10578e-07,2.54148e-05,2.62391e-06,0
-2.91872e-05,2.03239e-05,-1.23427e-05,3.90626e-05,1.30017e-05,1.44837e-07,2.53822e-05,7.42719e-07,0
-2.89237e-05,2.22033e-05,-1.37025e-05,3.8551e-05,1.17942e-05,2.65415e-07,2.4756e-05,-1.45109e-06,0
-2.98108e-05,2.33572e-05,-1.35467e-05,3.52587e-05,9.69567e-06,-4.99754e-07,2.337e-05,-1.99956e-06,0
-3.10832e-05,2.35652e-05,-1.21811e-05,2.88693e-05,6.46351e-06,-1.28497e-06,2.21409e-05,-8.85817e-07,0
-3.15856e-05,2.03961e-05,-1.11851e-05,2.12295e-05,2.67857e-06,-2.07577e-06,2.13713e-05,5.99774e-07,0
-3.09851e-05,1.55182e-05,-1.04206e-05,9.20826e-06,1.06982e-06,-2.77655e-06,2.10341e-05,1.09204e-06,0
-3.02823e-05,1.14036e-05,-1.03699e-05,-4.72743e-06,2.90347e-06,-2.91492e-06,1.58824e-05,-5.39248e-08,0
-3.01356e-05,9.14722e-06,-1.11135e-05,-1.27267e-05,6.69581e-06,-3.02426e-06,2.72138e-07,-1.87188e-06,0
-3.07159e-05,8.14686e-06,-1.15658e-05,-1.31146e-05,9.76499e-06,-2.77857e-06,-1.97066e-05,-2.95228e-06,0
-3.15495e-05,7.13262e-06,-1.1429e-05,-1.21323e-05,1.0243e-05,-1.48134e-06,-2.93196e-05,-3.58005e-06,0
-3.30453e-05,5.64604e-06,-1.14116e-05,-1.4353e-05,9.51781e-06,1.12996e-06,-2.29585e-05,-3.13013e-06,0
-3.43581e-05,5.04702e-06,-1.06004e-05,-1.75559e-05,8.84213e-06,3.17656e-06,-6.96097e-06,-1.41519e-06,0
-3.40437e-05,6.06158e-06,-9.25275e-06,-1.66092e-05,7.04027e-06,2.51073e-06,1.08497e-05,4.71768e-07,0
-3.25276e-05,8.28466e-06,-7.16301e-06,-9.4853e-06,3.18641e-06,7.80177e-08,2.72608e-05,1.53271e-06,0
-3.1334e-05,1.0572e-05,-5.5858e-06,1.5685e-06,-3.30704e-07,-2.09327e-06,3.91668e-05,1.73322e-06,0
-3.1755e-05,1.09655e-05,-4.48227e-06,1.6786e-05,-3.18054e-08,-2.44846e-06,4.59991e-05,3.15247e-06,0
-3.32956e-05,8.95965e-06,-2.87168e-06,3.3882e-05,5.92607e-06,-1.63197e-06,4.88311e-05,5.59909e-06,0
-3.38678e-05,4.96008e-06,-1.63949e-06,5.20065e-05,1.41917e-05,-1.92415e-06,4.71788e-05,6.81886e-06,0
-3.28295e-05,3.1229e-07,-2.41614e-06,6.30916e-05,2.02681e-05,-2.38851e-06,4.04536e-05,5.73601e-06,0
-3.2353e-05,-2.19175e-06,-3.79323e-06,5.82462e-05,2.1546e-05,-2.16983e-06,3.26886e-05,4.04386e-06,0
-3.2154e-05,-2.31198e-06,-4.46054e-06,4.35129e-05,2.10002e-05,-2.46447e-06,2.90923e-05,5.21687e-06,0
-3.17219e-05,-1.72082e-06,-6.43339e-06,3.02796e-05,2.29724e-05,-3.35092e-06,3.05679e-05,8.0699e-06,0
-3.12278e-05,-3.63018e-07,-1.06964e-05,2.25034e-05,2.5571e-05,-3.87981e-06,3.36485e-05,8.39311e-06,0
-3.12068e-05,1.37941e-07,-1.77842e-05,1.64274e-05,2.69019e-05,-3.7017e-06,3.26141e-05,7.15561e-06,0
-3.184e-05,-3.14084e-07,-2.66423e-05,1.29731e-05,2.56211e-05,-3.93341e-06,2.64325e-05,5.50602e-06,0
-3.07523e-05,-8.87721e-07,-3.27691e-05,1.34291e-05,2.35832e-05,-4.72689e-06,1.89121e-05,4.94637e-06,0
-2.80612e-05,4.76728e-08,-3.43785e-05,1.43479e-05,2.28469e-05,-6.90271e-06,1.33014e-05,4.66465e-06,0
-2.60861e-05,2.12265e-06,-3.21387e-05,1.20935e-05,2.25167e-05,-8.8668e-06,8.06064e-06,4.8931e-06,0
-2.69422e-05,2.6876e-06,-2.66695e-05,3.68679e-06,2.18423e-05,-8.21968e-06,-3.79628e-06,7.50169e-06,0
-2.86065e-05,2.11829e-06,-2.09141e-05,-9.0195e-06,1.96907e-05,-7.87422e-06,-2.095e-05,9.45144e-06,0
-2.89087e-05,2.87835e-06,-1.70121e-05,-1.94136e-05,1.62654e-05,-9.83126e-06,-3.11268e-05,8.9058e-06,0
-2.98748e-05,5.20928e-06,-1.49453e-05,-2.30576e-05,1.35521e-05,-1.19258e-05,-2.9646e-05,7.99234e-06,0
-3.11846e-05,6.23395e-06,-1.31195e-05,-2.35701e-05,1.43224e-05,-1.24287e-05,-1.9552e-05,6.71556e-06,0
-3.12083e-05,5.74258e-06,-1.04137e-05,-2.58869e-05,1.73423e-05,-1.1835e-05,-6.6036e-06,4.35017e-06,0
-3.03895e-05,5.33461e-06,-8.45315e-06,-3.39022e-05,2.01979e-05,-1.12517e-05,4.90272e-06,1.85074e-06,0
-2.93509e-05,5.60301e-06,-8.82249e-06,-4.92101e-05,2.10133e-05,-1.11191e-05,1.53494e-05,-6.95317e-08,0
-2.85715e-05,7.47228e-06,-9.84605e-06,-6.68611e-05,1.93916e-05,-1.04822e-05,2.61326e-05,-1.69532e-06,0
-2.89155e-05,9.78648e-06,-9.29471e-06,-7.70871e-05,1.80932e-05,-9.56845e-06,3.33018e-05,-2.44985e-06,0
-2.87292e-05,1.07623e-05,-7.22166e-06,-7.30585e-05,1.84271e-05,-9.77801e-06,3.21208e-05,-1.6964e-06,0
-2.70724e-05,1.18818e-05,-5.42409e-06,-5.62289e-05,1.91235e-05,-1.09442e-05,2.56687e-05,-1.20299e-06,0
-2.60137e-05,1.44241e-05,-4.7001e-06,-3.46136e-05,1.96175e-05,-1.11942e-05,2.09245e-05,-1.21917e-06,0
-2.73358e-05,1.64759e-05,-5.09453e-06,-1.54986e-05,1.95642e-05,-1.0332e-05,2.06373e-05,-1.22833e-06,0
-2.96517e-05,1.61058e-05,-7.06895e-06,-4.78684e-06,1.7931e-05,-1.0518e-05,2.14535e-05,-2.49911e-07,0
-3.02245e-05,1.46016e-05,-9.79966e-06,-6.21673e-06,1.50188e-05,-1.27213e-05,1.88821e-05,-4.23856e-07,0
-2.88793e-05,1.45369e-05,-1.13547e-05,-1.25645e-05,1.31737e-05,-1.54625e-05,1.47039e-05,-1.56246e-06,0
-2.84442e-05,1.52786e-05,-1.05242e-05,-1.63579e-05,1.38007e-05,-1.63325e-05,1.31729e-05,-1.69319e-06,0
-2.9201e-05,1.33419e-05,-8.08227e-06,-1.50432e-05,1.40379e-05,-1.40129e-05,1.37729e-05,-6.23828e-07,0
-3.01693e-05,1.2041e-05,-6.35979e-06,-1.21966e-05,9.74629e-06,-1.13458e-05,1.35106e-05,5.7302e-07,0
-3.12048e-05,1.42617e-05,-5.56969e-06,-1.34416e-05,1.89828e-06,-1.10313e-05,1.01681e-05,-8.59349e-07,0
-3.1081e-05,1.68208e-05,-6.29103e-06,-1.56477e-05,-3.26798e-06,-1.20089e-05,4.78575e-06,-2.51387e-06,0
-3.03063e-05,1.77068e-05,-6.92643e-06,-1.34453e-05,-3.38363e-06,-1.38194e-05,1.91193e-06,-2.46498e-06,0
-2.92536e-05,1.72949e-05,-6.45613e-06,-1.24797e-05,-3.33767e-08,-1.3942e-05,2.91691e-06,-3.20477e-07,0
-2.91162e-05,1.71016e-05,-5.50124e-06,-1.72382e-05,3.15167e-06,-1.3529e-05,3.22311e-06,3.08973e-06,0
-3.01035e-05,1.37145e-05,-4.48065e-06,-2.24426e-05,3.90555e-06,-1.51918e-05,2.51322e-06,4.8807e-06,0
-3.13138e-05,9.54939e-06,-4.41671e-06,-2.08079e-05,4.2332e-06,-1.70274e-05,5.28171e-07,4.70063e-06,0
-3.15656e-05,9.58736e-06,-4.61241e-06,-8.68042e-06,5.74903e-06,-1.87491e-05,-2.28849e-06,4.98129e-06,0
-3.11564e-05,1.19095e-05,-4.83066e-06,8.66474e-06,8.42351e-06,-2.02241e-05,-3.46347e-06,7.37209e-06,0
-3.04801e-05,1.44682e-05,-3.27806e-06,2.4529e-05,1.29924e-05,-2.10282e-05,-2.49485e-06,8.85517e-06,0
-2.9416e-05,1.65617e-05,-9.25303e-07,3.19532e-05,1.87032e-05,-2.03054e-05,-2.36035e-07,7.57148e-06,0
-2.86929e-05,1.91218e-05,8.82343e-08,2.91842e-05,2.15018e-05,-1.94822e-05,2.58084e-06,6.42831e-06,0
-2.82417e-05,2.22493e-05,-2.04827e-07,2.1938e-05,1.99054e-05,-1.98809e-05,6.1846e-06,7.49693e-06,0
-2.9306e-05,2.58588e-05,8.38279e-08,1.49017e-05,1.7727e-05,-1.99537e-05,9.64194e-06,8.27671e-06,0
-3.15574e-05,2.92498e-05,1.70629e-06,7.25625e-06,1.74647e-05,-1.71012e-05,1.20278e-05,7.43316e-06,0
-3.3085e-05,3.13556e-05,2.91256e-06,6.24401e-07,1.71072e-05,-1.25539e-05,1.35811e-05,6.12882e-06,0
-3.23931e-05,3.07586e-05,2.50383e-06,1.69776e-06,1.50336e-05,-9.69047e-06,1.68344e-05,5.59745e-06,0
-3.06655e-05,2.90406e-05,1.31807e-06,1.01094e-05,1.30036e-05,-8.67768e-06,2.07532e-05,6.54928e-06,0
-2.92832e-05,2.85137e-05,9.90552e-07,1.81295e-05,1.35087e-05,-9.09715e-06,2.33208e-05,6.78316e-06,0
-2.83799e-05,2.99927e-05,1.96136e-06,1.99034e-05,1.5498e-05,-9.77462e-06,2.46657e-05,4.23555e-06,0
-2.6952e-05,3.21224e-05,2.98348e-06,1.67451e-05,1.59101e-05,-9.40836e-06,2.46134e-05,1.0885e-06,0
-2.51251e-05,3.29053e-05,2.52409e-06,1.37641e-05,1.52335e-05,-8.60759e-06,2.21923e-05,1.24335e-06,0
-2.51399e-05,3.40918e-05,4.50247e-07,1.20922e-05,1.57984e-05,-1.02507e-05,1.76968e-05,3.76056e-06,0
-2.6813e-05,3.53486e-05,-2.12436e-06,8.50659e-06,1.55011e-05,-1.27768e-05,1.25257e-05,4.4342e-06,0
-2.83397e-05,3.53506e-05,-3.23368e-06,3.50936e-06,1.30529e-05,-1.25965e-05,7.45861e-06,1.56192e-06,0
-2.91321e-05,3.36811e-05,-4.19396e-06,-9.37634e-07,1.04381e-05,-1.04939e-05,3.89646e-06,-4.73251e-07,0
-2.94029e-05,3.00349e-05,-5.45933e-06,-6.86445e-06,7.61547e-06,-9.62568e-06,2.84014e-06,3.12279e-07,0
-2.96131e-05,2.61171e-05,-6.39223e-06,-1.85406e-05,6.11113e-06,-9.68698e-06,3.39372e-06,-9.51353e-07,0
-3.04064e-05,2.29378e-05,-6.38057e-06,-3.32563e-05,8.59696e-06,-7.58528e-06,3.98175e-06,-3.12231e-06,0
-3.0481e-05,1.8677e-05,-4.64162e-06,-4.22451e-05,1.17144e-05,-4.00455e-06,3.3045e-06,-3.39359e-06,0
-3.03185e-05,1.42645e-05,-3.35965e-06,-4.1056e-05,1.33976e-05,-1.79687e-06,2.31894e-06,-1.58624e-06,0
-3.08751e-05,1.07535e-05,-2.86488e-06,-3.09454e-05,1.51779e-05,-8.52097e-07,2.41918e-06,-4.81263e-08,0
-3.13915e-05,8.39205e-06,-2.63476e-06,-1.93577e-05,1.74808e-05,2.23466e-07,3.17167e-06,-2.34549e-06,0
-3.0766e-05,6.67377e-06,-4.24284e-06,-1.2934e-05,1.93134e-05,5.14567e-07,4.19577e-06,-5.62253e-06,0
-3.01152e-05,3.82798e-06,-7.25404e-06,-1.16439e-05,1.95232e-05,1.03744e-07,5.89028e-06,-5.90857e-06,0
-3.11064e-05,1.07866e-06,-9.35545e-06,-1.18931e-05,1.88218e-05,-9.12177e-07,1.0269e-05,-2.89601e-06,0
-3.20707e-05,2.22955e-07,-1.0591e-05,-9.889e-06,1.80177e-05,-2.67298e-06,1.63365e-05,-2.55459e-07,0
-3.24861e-05,1.18821e-06,-1.306e-05,-7.2011e-06,1.66472e-05,-4.27494e-06,2.05666e-05,-3.12746e-07,0
-3.17263e-05,2.74967e-06,-1.648e-05,-7.59545e-06,1.4826e-05,-4.72422e-06,2.18159e-05,-2.25044e-06,0
-2.99337e-05,4.00498e-06,-1.90588e-05,-1.02046e-05,1.36684e-05,-4.16684e-06,2.18944e-05,-4.08726e-06,0
-2.89629e-05,3.80147e-06,-2.02661e-05,-1.02599e-05,1.37762e-05,-4.17535e-06,2.29055e-05,-4.65472e-06,0
-2.98588e-05,3.57286e-06,-1.98683e-05,-6.60748e-06,1.57934e-05,-5.6676e-06,2.63476e-05,-4.02892e-06,0
-3.17169e-05,4.37013e-06,-1.85291e-05,-3.29854e-06,1.84682e-05,-7.286e-06,3.27762e-05,-2.97653e-06,0
-3.26039e-05,4.46547e-06,-1.82443e-05,-3.79123e-06,1.94464e-05,-7.87432e-06,4.0905e-05,-2.64087e-06,0
-3.30028e-05,3.51892e-06,-1.91203e-05,-8.33412e-06,1.81174e-05,-8.57596e-06,4.76702e-05,-3.75857e-06,0
-3.3703e-05,3.54565e-06,-1.84187e-05,-1.32239e-05,1.5939e-05,-9.13405e-06,5.00365e-05,-4.71502e-06,0
-3.38467e-05,4.94125e-06,-1.57607e-05,-1.40354e-05,1.33629e-05,-9.52866e-06,4.66175e-05,-3.99762e-06,0
-3.3444e-05,5.73582e-06,-1.2828e-05,-1.0378e-05,1.04278e-05,-9.30051e-06,3.92379e-05,-3.31135e-06,0
-3.3389e-05,6.13844e-06,-1.065e-05,-6.19852e-06,8.73618e-06,-8.70484e-06,3.02836e-05,-4.2039e-06,0
-3.26307e-05,7.68382e-06,-1.04402e-05,-4.43646e-06,9.39453e-06,-7.74325e-06,1.97225e-05,-5.7725e-06,0
-3.18931e-05,9.28047e-06,-1.21582e-05,-4.74301e-06,1.04436e-05,-4.25514e-06,6.36354e-06,-7.22827e-06,0
-3.21684e-05,9.87777e-06,-1.2396e-05,-4.33136e-06,9.8497e-06,-5.55832e-07,-9.15441e-06,-7.03893e-06,0
-3.18289e-05,8.88452e-06,-1.09499e-05,-1.85822e-06,1.08318e-05,1.38382e-07,-2.19796e-05,-4.52854e-06,0
-3.09548e-05,6.39002e-06,-1.16925e-05,9.55745e-07,1.49902e-05,-2.97749e-06,-2.73678e-05,-1.89811e-06,0
-3.0301e-05,7.11265e-06,-1.22337e-05,2.93282e-06,1.88397e-05,-6.5991e-06,-2.56498e-05,1.06281e-07,0
-2.95338e-05,1.05181e-05,-9.04814e-06,3.57327e-06,2.05416e-05,-8.00141e-06,-2.12018e-05,1.1827e-06,0
-2.93063e-05,1.09053e-05,-5.78229e-06,2.97889e-06,1.95444e-05,-8.06045e-06,-1.48516e-05,3.24035e-07,0
-3.04743e-05,8.27292e-06,-4.53262e-06,3.63731e-06,1.60554e-05,-8.14155e-06,-9.25762e-06,-2.38953e-06,0
-3.19954e-05,6.18662e-06,-2.99101e-06,4.95242e-06,1.1098e-05,-9.40448e-06,-6.68323e-06,-3.54892e-06,0
-3.26523e-05,5.76975e-06,-2.65038e-06,5.5083e-06,6.54992e-06,-1.07199e-05,-4.86444e-06,-4.32915e-06,0
-3.18092e-05,6.72655e-06,-3.95969e-06,5.24973e-06,4.67933e-06,-1.20369e-05,-2.20305e-06,-4.9749e-06,0
-3.06535e-05,8.33096e-06,-5.61566e-06,4.39273e-06,4.8668e-06,-1.23415e-05,2.13869e-06,-5.09712e-06,0
-3.02228e-05,9.65365e-06,-7.18238e-06,4.41399e-06,5.12175e-06,-1.20404e-05,6.58575e-06,-3.14265e-06,0
-2.98433e-05,1.00801e-05,-7.70966e-06,8.13356e-06,4.8626e-06,-1.19368e-05,1.00261e-05,7.21176e-07,0
-3.00454e-05,9.1679e-06,-7.57033e-06,1.63782e-05,3.87126e-06,-1.14892e-05,1.15731e-05,3.60629e-06,0
-3.03063e-05,7.76059e-06,-8.12991e-06,2.31884e-05,2.56812e-06,-1.10932e-05,1.2222e-05,5.02336e-06,0
-3.01388e-05,7.21734e-06,-1.03516e-05,2.45525e-05,1.43693e-06,-1.21214e-05,1.30186e-05,4.53769e-06,0
-3.11042e-05,7.74932e-06,-1.34221e-05,2.07312e-05,1.95174e-06,-1.4837e-05,1.39041e-05,3.4475e-06,0
-3.35073e-05,8.63923e-06,-1.62886e-05,1.57037e-05,5.14907e-06,-1.6832e-05,1.54083e-05,2.50654e-06,0
-3.51127e-05,8.81238e-06,-1.7148e-05,1.36721e-05,8.89646e-06,-1.70069e-05,1.72939e-05,4.13679e-06,0
-3.4701e-05,7.94267e-06,-1.57135e-05,1.65864e-05,1.2131e-05,-1.66964e-05,1.70982e-05,6.87558e-06,0
-3.33737e-05,6.50043e-06,-1.38438e-05,2.11674e-05,1.52104e-05,-1.67696e-05,1.41255e-05,8.06355e-06,0
-3.28865e-05,6.74197e-06,-1.31598e-05,2.0167e-05,1.75731e-05,-1.5764e-05,1.16017e-05,7.93317e-06,0
-3.28112e-05,1.03392e-05,-1.39852e-05,9.78859e-06,1.69956e-05,-1.37416e-05,1.20463e-05,7.13499e-06,0
-3.1257e-05,1.41687e-05,-1.52006e-05,-5.99057e-06,1.37088e-05,-1.24374e-05,1.44775e-05,5.06986e-06,0
-2.8471e-05,1.64522e-05,-1.54134e-05,-1.83549e-05,8.7136e-06,-1.30469e-05,1.549e-05,2.25135e-06,0
-2.66111e-05,1.79651e-05,-1.58037e-05,-2.2875e-05,5.36543e-06,-1.36526e-05,1.46077e-05,-8.76274e-07,0
-2.79359e-05,1.80376e-05,-1.69635e-05,-1.93186e-05,6.43863e-06,-1.35899e-05,1.2774e-05,-1.99143e-06,0
-3.00311e-05,1.72176e-05,-1.76081e-05,-7.86327e-06,8.81666e-06,-1.26014e-05,1.22512e-05,-2.31074e-06,0
-3.09512e-05,1.64484e-05,-1.6302e-05,5.81641e-06,9.25915e-06,-1.13834e-05,1.40391e-05,-2.24466e-06,0
-3.07226e-05,1.5878e-05,-1.2244e-05,8.97965e-06,8.23024e-06,-1.21174e-05,1.66404e-05,3.62197e-07,0
-3.00164e-05,1.62568e-05,-8.32216e-06,1.86897e-06,6.36915e-06,-1.28919e-05,1.56224e-05,2.62737e-06,0
-3.10943e-05,1.69288e-05,-5.2769e-06,-4.56749e-06,3.54878e-06,-1.2924e-05,8.01727e-06,3.08747e-06,0
-3.17721e-05,1.74486e-05,-2.64694e-06,-7.64389e-06,2.47639e-06,-1.31694e-05,2.88499e-06,2.95222e-06,0
-3.02492e-05,1.91812e-05,1.25557e-08,-8.8411e-06,3.16653e-06,-1.376e-05,7.30197e-06,3.89388e-06,0
-2.77904e-05,2.17898e-05,4.62231e-06,-9.96074e-06,7.41505e-06,-1.29703e-05,1.61442e-05,5.04477e-06,0
-2.65783e-05,2.05306e-05,1.18205e-05,-1.41543e-05,1.18876e-05,-1.08747e-05,2.31199e-05,6.48347e-06,0
-2.81021e-05,1.71085e-05,2.47113e-05,-1.99578e-05,1.25776e-05,-1.10146e-05,2.61752e-05,7.13387e-06,0
-3.02983e-05,1.48652e-05,4.34326e-05,-2.63649e-05,1.36997e-05,-1.31357e-05,2.62895e-05,6.21653e-06,0
-3.09784e-05,1.34697e-05,6.29479e-05,-3.46223e-05,1.65793e-05,-1.47743e-05,2.5991e-05,3.95584e-06,0
-3.00893e-05,1.32133e-05,7.65847e-05,-4.11878e-05,1.8574e-05,-1.58059e-05,2.62112e-05,6.97036e-07,0
-2.91905e-05,1.24204e-05,7.51938e-05,-4.06056e-05,1.68585e-05,-1.6294e-05,2.55314e-05,-6.88143e-07,0
-2.86691e-05,1.02993e-05,5.46263e-05,-3.21846e-05,1.30646e-05,-1.53617e-05,2.39042e-05,9.54777e-07,0
-2.71996e-05,8.57304e-06,1.81866e-05,-2.15628e-05,1.01448e-05,-1.36347e-05,2.11576e-05,3.16689e-06,0
-2.55517e-05,7.94841e-06,-2.42748e-05,-1.4499e-05,1.04957e-05,-1.277e-05,1.71038e-05,3.73228e-06,0
-2.59155e-05,5.9565e-06,-6.17912e-05,-1.05603e-05,1.25898e-05,-1.36559e-05,1.44114e-05,2.61551e-06,0
-2.83831e-05,3.42165e-06,-8.66341e-05,-7.38015e-06,1.39525e-05,-1.56362e-05,1.40273e-05,-2.89617e-07,0
-3.02146e-05,2.68043e-06,-9.39548e-05,-4.56423e-06,1.42786e-05,-1.67715e-05,1.38559e-05,-3.82202e-06,0
-2.96628e-05,3.17885e-06,-8.51734e-05,-4.09444e-06,1.47703e-05,-1.70421e-05,1.28329e-05,-5.51607e-06,0
-2.78252e-05,3.5235e-06,-6.87163e-05,-7.44967e-06,1.52326e-05,-1.65868e-05,1.11741e-05,-4.80132e-06,0
-2.57638e-05,4.54647e-06,-5.53072e-05,-1.23901e-05,1.43572e-05,-1.49638e-05,6.87211e-06,-2.79827e-06,0
-2.49023e-05,4.99903e-06,-4.70627e-05,-1.5078e-05,1.34612e-05,-1.3214e-05,9.09026e-07,-6.22864e-07,0
-2.61037e-05,3.85143e-06,-3.88952e-05,-1.43661e-05,1.45543e-05,-1.25048e-05,-1.78402e-06,1.14675e-06,0
-2.74357e-05,3.33533e-06,-2.95349e-05,-1.46066e-05,1.58233e-05,-1.29355e-05,4.38656e-07,1.82242e-06,0
-2.72414e-05,5.67105e-06,-2.09974e-05,-1.86409e-05,1.46171e-05,-1.36068e-05,7.6409e-06,2.57598e-06,0
-2.53485e-05,1.06614e-05,-1.44733e-05,-2.16058e-05,1.33166e-05,-1.40725e-05,1.66458e-05,3.25878e-06,0
-2.36975e-05,1.49841e-05,-9.93114e-06,-1.61962e-05,1.46985e-05,-1.4419e-05,2.01907e-05,3.4334e-06,0
-2.33674e-05,1.59216e-05,-6.53704e-06,-1.92581e-06,1.72089e-05,-1.40382e-05,1.58443e-05,3.73196e-06,0
-2.48824e-05,1.34247e-05,-5.55529e-06,1.00993e-05,1.68323e-05,-1.33196e-05,1.17433e-05,3.79671e-06,0
-2.90565e-05,1.0856e-05,-5.8409e-06,1.21958e-05,1.63376e-05,-1.26028e-05,1.14528e-05,4.1543e-06,0
-3.23967e-05,8.57232e-06,-4.14977e-06,8.78217e-06,1.5217e-05,-1.17302e-05,1.17604e-05,4.69602e-06,0
-3.21535e-05,4.84593e-06,-2.83994e-06,2.44495e-06,1.11701e-05,-1.24834e-05,1.36158e-05,5.62546e-06,0
-2.95498e-05,1.75879e-06,-3.71687e-06,-4.61333e-06,8.17829e-06,-1.30824e-05,1.55615e-05,6.15521e-06,0
-2.81442e-05,3.98318e-07,-4.51115e-06,-1.58797e-05,7.29895e-06,-1.23751e-05,1.63732e-05,4.5951e-06,0
-2.85955e-05,7.68636e-07,-3.47053e-06,-3.15306e-05,7.93363e-06,-1.2399e-05,1.54497e-05,9.95151e-07,0
-2.89699e-05,2.69029e-06,-2.20373e-06,-4.58614e-05,9.03682e-06,-1.32661e-05,1.2615e-05,-1.98436e-06,0
-2.81344e-05,5.21398e-06,-2.13286e-06,-5.26086e-05,8.94169e-06,-1.45636e-05,1.12867e-05,-1.7671e-06,0
-2.70314e-05,7.20778e-06,-2.95505e-06,-4.80286e-05,7.32558e-06,-1.4572e-05,1.35084e-05,7.85755e-07,0
-2.81125e-05,7.47526e-06,-3.88104e-06,-3.80431e-05,6.01386e-06,-1.39368e-05,1.79627e-05,2.68926e-06,0
-3.08157e-05,5.91094e-06,-3.41642e-06,-3.29921e-05,7.86925e-06,-1.2992e-05,2.15238e-05,2.72589e-06,0
-3.27769e-05,4.45679e-06,-1.758e-06,-3.65955e-05,1.37683e-05,-1.12507e-05,2.32055e-05,1.76716e-06,0
-3.2536e-05,4.83031e-06,-1.33169e-06,-3.72255e-05,2.09756e-05,-9.28757e-06,2.31065e-05,3.84477e-07,0
-3.10282e-05,5.38384e-06,-2.49005e-06,-2.56915e-05,2.56796e-05,-8.22447e-06,2.22663e-05,-1.75721e-06,0
-2.97031e-05,4.90992e-06,-2.42404e-06,-5.12389e-06,2.69353e-05,-8.17362e-06,2.20581e-05,-3.69609e-06,0
-3.00122e-05,4.51657e-06,-1.71606e-06,1.47697e-05,2.59699e-05,-8.05716e-06,2.27961e-05,-3.69695e-06,0
-3.15575e-05,6.03754e-06,-2.62233e-06,3.10049e-05,2.53468e-05,-7.55884e-06,2.37299e-05,-2.43622e-06,0
-3.25942e-05,9.42713e-06,-4.68876e-06,4.6318e-05,2.67824e-05,-5.45118e-06,2.39972e-05,-1.77168e-06,0
-3.23299e-05,1.30507e-05,-5.60306e-06,6.22092e-05,3.02309e-05,-2.13154e-06,2.35136e-05,-1.82777e-06,0
-3.1483e-05,1.46538e-05,-5.58482e-06,7.38348e-05,3.31311e-05,4.74182e-07,2.13305e-05,-2.49221e-06,0
-3.04788e-05,1.48115e-05,-7.31242e-06,7.51381e-05,3.34581e-05,1.51111e-06,1.84601e-05,-4.56786e-06,0
-3.00471e-05,1.53007e-05,-1.02864e-05,6.62625e-05,3.20434e-05,9.22358e-07,1.63248e-05,-6.95644e-06,0
-3.06415e-05,1.58588e-05,-1.11624e-05,4.8253e-05,3.00029e-05,-7.59579e-07,1.43337e-05,-9.01494e-06,0
-3.03238e-05,1.69535e-05,-9.61858e-06,2.31881e-05,2.86571e-05,-1.52526e-06,1.301e-05,-1.15103e-05,0
-3.0271e-05,1.7255e-05,-7.44226e-06,1.64196e-06,2.81426e-05,-1.49884e-06,1.34522e-05,-1.29829e-05,0
-3.12891e-05,1.61951e-05,-4.84731e-06,-9.08737e-06,2.98772e-05,-7.00175e-07,1.30262e-05,-1.12428e-05,0
-3.1994e-05,1.53864e-05,-2.04317e-06,-8.81339e-06,3.29885e-05,4.43289e-07,1.16228e-05,-8.26954e-06,0
-3.18344e-05,1.39525e-05,4.12266e-07,-2.66421e-06,3.37408e-05,1.14743e-08,1.08255e-05,-5.92432e-06,0
-3.06875e-05,1.34294e-05,2.69623e-06,1.54032e-06,3.06331e-05,-2.64234e-07,9.72502e-06,-4.91169e-06,0
-2.87678e-05,1.32631e-05,4.49484e-06,6.07113e-06,2.48445e-05,3.74728e-07,9.07715e-06,-6.07178e-06,0
-2.70589e-05,1.19748e-05,4.02856e-06,1.29217e-05,1.96579e-05,2.06934e-06,1.01933e-05,-6.45631e-06,0
-2.65584e-05,1.07144e-05,2.30725e-06,1.87093e-05,1.5697e-05,3.68761e-06,1.17447e-05,-5.442e-06,0
-2.71349e-05,9.72789e-06,7.25087e-07,1.97531e-05,1.18223e-05,2.16549e-06,1.13421e-05,-5.42823e-06,0
-2.84481e-05,9.62421e-06,-1.06451e-06,1.5113e-05,1.04106e-05,-5.73472e-07,1.15486e-05,-4.58687e-06,0
-3.02559e-05,9.05625e-06,-2.69022e-06,2.89197e-06,9.45883e-06,-2.18121e-06,1.26171e-05,-2.48829e-06,0
-3.18755e-05,8.57585e-06,-5.12794e-06,-1.11211e-05,6.03173e-06,-2.69027e-06,1.2388e-05,-9.86914e-07,0
-3.24667e-05,9.33572e-06,-7.47767e-06,-1.92623e-05,2.30368e-06,-3.01733e-06,1.14964e-05,-8.03629e-07,0
-3.23414e-05,1.25814e-05,-8.15029e-06,-1.79225e-05,2.5851e-07,-3.42589e-06,1.19193e-05,-1.66077e-06,0
-3.18448e-05,1.6347e-05,-6.98582e-06,-1.12928e-05,-8.46948e-07,-4.81372e-06,1.50423e-05,-2.36919e-06,0
-3.1362e-05,1.85131e-05,-5.38393e-06,-7.37656e-06,-2.51019e-06,-7.80856e-06,2.10004e-05,-2.17515e-06,0
-3.10647e-05,1.8759e-05,-4.88636e-06,-9.71859e-06,-3.72167e-06,-1.10241e-05,2.81894e-05,-1.66664e-06,0
-3.08713e-05,1.81685e-05,-4.51507e-06,-1.52237e-05,-3.48571e-06,-1.2888e-05,3.44371e-05,-3.07938e-06,0
-2.98285e-05,1.83539e-05,-3.87742e-06,-1.81393e-05,-3.91331e-07,-1.23954e-05,3.78526e-05,-5.49282e-06,0
-2.76966e-05,1.92482e-05,-3.87374e-06,-1.90019e-05,4.14976e-06,-1.12174e-05,3.57013e-05,-6.98451e-06,0
-2.67446e-05,2.02151e-05,-4.46787e-06,-2.02836e-05,6.35874e-06,-1.16408e-05,2.78837e-05,-7.25621e-06,0
-2.80962e-05,2.12351e-05,-4.18525e-06,-2.34478e-05,6.885e-06,-1.34434e-05,1.67747e-05,-6.57554e-06,0
-2.95032e-05,2.37818e-05,-3.45971e-06,-2.47718e-05,9.95887e-06,-1.44905e-05,5.77874e-06,-4.75586e-06,0
-2.89313e-05,2.64379e-05,-3.90347e-06,-1.96907e-05,1.4241e-05,-1.4296e-05,-3.72083e-06,-2.28798e-06,0
-2.85623e-05,2.65686e-05,-6.5766e-06,-8.34548e-06,1.59621e-05,-1.39704e-05,-1.23855e-05,-1.96245e-06,0
-3.04608e-05,2.38557e-05,-9.44747e-06,1.8798e-06,1.58608e-05,-1.44732e-05,-1.88301e-05,-2.0502e-06,0
-3.37784e-05,2.04174e-05,-1.13249e-05,6.64719e-06,1.51226e-05,-1.52866e-05,-1.83133e-05,1.00884e-06,0
-3.69869e-05,1.79872e-05,-1.29748e-05,5.29168e-06,1.34598e-05,-1.48203e-05,-1.17258e-05,4.29633e-06,0
-3.72134e-05,1.8203e-05,-1.41449e-05,9.66688e-07,1.1454e-05,-1.38856e-05,-5.88046e-06,4.03282e-06,0
-3.47242e-05,1.94307e-05,-1.29169e-05,-3.94333e-06,9.50374e-06,-1.42248e-05,-3.94221e-06,4.08651e-06,0
-3.27256e-05,2.10136e-05,-9.9427e-06,-8.41502e-06,8.32219e-06,-1.37899e-05,-3.60627e-06,6.23659e-06,0
-3.24008e-05,2.24182e-05,-7.88794e-06,-1.0355e-05,7.49433e-06,-1.3969e-05,-2.99505e-06,7.4687e-06,0
-3.38334e-05,2.25822e-05,-6.64627e-06,-1.29206e-05,6.63765e-06,-1.51348e-05,-2.00127e-06,8.39061e-06,0
-3.49971e-05,2.31206e-05,-6.91308e-06,-1.71376e-05,6.12594e-06,-1.5795e-05,1.08414e-06,8.6758e-06,0
-3.56863e-05,2.45648e-05,-7.82064e-06,-1.98217e-05,5.37118e-06,-1.65342e-05,6.3457e-06,9.17114e-06,0
-3.54583e-05,2.36289e-05,-8.07918e-06,-1.97048e-05,5.82149e-06,-1.66767e-05,1.14864e-05,8.21682e-06,0
-3.44122e-05,1.92054e-05,-6.48655e-06,-1.67259e-05,6.84301e-06,-1.7018e-05,1.40646e-05,5.50641e-06,0
-3.33687e-05,1.39977e-05,-4.72729e-06,-1.23308e-05,5.76493e-06,-1.72908e-05,1.43044e-05,3.78153e-06,0
-3.21437e-05,1.01861e-05,-4.65003e-06,-9.05447e-06,3.22517e-06,-1.75605e-05,1.35114e-05,5.32658e-06,0
-3.20775e-05,8.58577e-06,-6.56832e-06,-8.20286e-06,2.36086e-06,-1.69707e-05,1.16584e-05,8.53627e-06,0
-3.29875e-05,8.65415e-06,-8.88421e-06,-8.42027e-06,2.20884e-06,-1.66443e-05,1.14857e-05,1.01432e-05,0
-3.36072e-05,1.01077e-05,-9.94849e-06,-7.0143e-06,1.98848e-06,-1.79158e-05,1.31613e-05,1.09214e-05,0
-3.28079e-05,1.13295e-05,-1.07318e-05,-4.42142e-06,3.299e-06,-1.86675e-05,1.29865e-05,1.17698e-05,0
-3.15017e-05,1.12516e-05,-9.9091e-06,-3.12653e-06,6.23915e-06,-1.7737e-05,1.11162e-05,1.25993e-05,0
-3.09005e-05,1.10272e-05,-7.45708e-06,-3.86536e-06,9.49483e-06,-1.64144e-05,1.0223e-05,1.18585e-05,0
-3.10259e-05,1.26551e-05,-5.36885e-06,-4.98405e-06,1.20421e-05,-1.59633e-05,1.04124e-05,1.1597e-05,0
-3.0512e-05,1.41766e-05,-4.74378e-06,-6.39226e-06,1.33497e-05,-1.54291e-05,9.74445e-06,1.30351e-05,0
-2.95634e-05,1.30362e-05,-4.5149e-06,-9.52066e-06,1.28115e-05,-1.39261e-05,8.75794e-06,1.4321e-05,0
-2.92267e-05,1.11765e-05,-5.25805e-06,-1.443e-05,1.10025e-05,-1.23606e-05,8.87089e-06,1.27463e-05,0
-2.9785e-05,1.18431e-05,-7.28754e-06,-1.84101e-05,9.73546e-06,-1.07325e-05,1.02902e-05,1.07917e-05,0
-3.05394e-05,1.5397e-05,-9.26485e-06,-1.80398e-05,1.07421e-05,-8.66786e-06,1.11892e-05,1.09443e-05,0
-2.98343e-05,2.02893e-05,-1.01731e-05,-9.98361e-06,1.13389e-05,-6.92488e-06,1.10789e-05,1.0318e-05,0
-2.94174e-05,2.31901e-05,-1.00121e-05,1.55817e-06,1.09435e-05,-5.81268e-06,1.20152e-05,8.80073e-06,0
-2.92478e-05,2.28858e-05,-1.04155e-05,8.78393e-06,1.19605e-05,-6.59759e-06,1.48017e-05,7.86977e-06,0
-2.79838e-05,2.14438e-05,-1.23319e-05,7.81242e-06,1.41225e-05,-7.55708e-06,1.75834e-05,5.53174e-06,0
-2.68048e-05,2.17564e-05,-1.32097e-05,2.22669e-06,1.35876e-05,-8.09407e-06,1.94633e-05,2.46802e-06,0
-2.69925e-05,2.36248e-05,-1.18122e-05,-1.26334e-06,9.9411e-06,-8.33144e-06,1.89906e-05,1.82981e-06,0
-2.79603e-05,2.40613e-05,-1.05665e-05,-1.59716e-06,8.11639e-06,-8.01232e-06,1.73692e-05,2.53511e-06,0
-2.73042e-05,2.20016e-05,-9.14731e-06,2.62623e-07,9.54181e-06,-7.98168e-06,1.68306e-05,2.48191e-06,0
-2.53896e-05,1.96635e-05,-7.29757e-06,3.13625e-06,1.21559e-05,-7.71907e-06,1.64091e-05,1.59977e-06,0
-2.49489e-05,1.81917e-05,-6.25755e-06,6.67807e-06,1.39467e-05,-7.07546e-06,1.60527e-05,1.55805e-07,0
-2.60357e-05,1.57782e-05,-5.06947e-06,9.39449e-06,1.43179e-05,-6.18761e-06,1.3563e-05,-4.12192e-07,0
-2.72686e-05,1.34321e-05,-2.60779e-06,1.06884e-05,1.379e-05,-5.86448e-06,4.74111e-06,-6.89477e-07,0
-2.79441e-05,1.1844e-05,-3.47255e-07,1.40327e-05,1.42138e-05,-4.80772e-06,-9.65309e-06,-3.11557e-07,0
-2.79e-05,9.49348e-06,2.55877e-07,1.75721e-05,1.36894e-05,-4.14092e-06,-1.85545e-05,-6.40702e-07,0
-2.86711e-05,5.01505e-06,-8.82047e-07,1.62694e-05,1.3138e-05,-5.10575e-06,-1.53156e-05,-2.43872e-06,0
-3.00264e-05,6.88575e-07,-2.4477e-06,9.73147e-06,1.30567e-05,-6.68304e-06,-2.97235e-06,-2.52707e-06,0
-3.0203e-05,-1.71066e-06,-2.40525e-06,1.49758e-06,1.25631e-05,-7.88454e-06,1.15038e-05,-2.1703e-06,0
-2.81085e-05,-2.14227e-06,-1.32846e-06,-5.7109e-06,1.28827e-05,-8.34156e-06,2.33862e-05,-2.38586e-06,0
-2.6105e-05,-2.3687e-06,-1.70229e-06,-1.27899e-05,1.46978e-05,-8.51312e-06,3.26107e-05,-2.85415e-06,0
-2.65435e-05,-4.98654e-06,-4.41712e-06,-1.9404e-05,1.68657e-05,-8.68363e-06,4.05753e-05,-2.63059e-06,0
-2.85932e-05,-1.0281e-05,-8.12264e-06,-2.3158e-05,1.76407e-05,-9.54561e-06,4.67769e-05,-2.3975e-06,0
-3.00401e-05,-1.53587e-05,-1.14403e-05,-2.32772e-05,1.93029e-05,-1.00535e-05,4.78196e-05,-7.81805e-07,0
-2.98154e-05,-1.6341e-05,-1.40559e-05,-2.34433e-05,2.16993e-05,-9.83956e-06,4.42055e-05,1.26328e-06,0
-2.89911e-05,-1.43553e-05,-1.48933e-05,-2.73367e-05,2.27921e-05,-1.0167e-05,3.89211e-05,2.02923e-06,0
-2.80019e-05,-1.25843e-05,-1.37675e-05,-3.22782e-05,2.02495e-05,-1.11061e-05,3.40898e-05,2.7328e-06,0
-2.78185e-05,-1.07342e-05,-1.33136e-05,-3.20591e-05,1.58144e-05,-1.06974e-05,2.97456e-05,4.17039e-06,0
-2.85915e-05,-7.43252e-06,-1.45511e-05,-2.57352e-05,1.32473e-05,-9.54683e-06,2.56754e-05,6.02762e-06,0
-3.02367e-05,-4.74803e-06,-1.51285e-05,-1.64121e-05,1.32403e-05,-1.03582e-05,2.30373e-05,6.82947e-06,0
-3.08036e-05,-2.89895e-06,-1.48057e-05,-9.64756e-06,1.41981e-05,-1.07803e-05,2.0749e-05,5.29484e-06,0
-3.04833e-05,1.1982e-07,-1.37031e-05,-7.39012e-06,1.53587e-05,-7.82023e-06,1.66249e-05,3.30392e-06,0
-3.04489e-05,4.52827e-06,-1.20208e-05,-7.97128e-06,1.68533e-05,-3.9107e-06,1.31714e-05,1.7661e-06,0
-3.08761e-05,7.2202e-06,-1.14213e-05,-8.97402e-06,1.92394e-05,-2.26196e-06,1.21842e-05,1.71089e-06,0
-3.18469e-05,5.50921e-06,-1.18041e-05,-6.46819e-06,2.00623e-05,-4.78116e-06,1.17738e-05,4.23199e-06,0
-3.32944e-05,1.82161e-06,-1.08487e-05,-4.49405e-06,1.97498e-05,-7.63951e-06,9.68971e-06,3.92395e-06,0
-3.40731e-05,-1.37008e-06,-6.88667e-06,-6.23626e-06,2.0964e-05,-8.14607e-06,7.32525e-06,1.45668e-06,0
-3.24825e-05,-1.36835e-06,-3.57505e-06,-8.84134e-06,2.16603e-05,-8.48566e-06,6.09277e-06,3.37096e-07,0
-3.17556e-05,7.47055e-07,-4.44277e-06,-8.39311e-06,2.04925e-05,-8.79237e-06,5.28146e-06,8.24521e-07,0
-3.19809e-05,2.85724e-06,-7.00562e-06,-3.53555e-06,1.79433e-05,-8.60019e-06,5.2124e-06,1.69471e-06,0
-3.18376e-05,6.9028e-06,-7.64764e-06,2.27885e-06,1.64234e-05,-8.23485e-06,4.90955e-06,2.12826e-06,0
-3.21104e-05,9.8512e-06,-7.5161e-06,7.04979e-06,1.76755e-05,-6.52703e-06,4.0695e-06,2.87563e-06,0
-3.28744e-05,1.05592e-05,-8.67974e-06,7.05727e-06,1.9175e-05,-4.11806e-06,4.60675e-06,3.10833e-06,0
-3.22216e-05,1.05941e-05,-1.04732e-05,2.1995e-06,1.83928e-05,-4.02348e-06,6.1966e-06,3.17558e-06,0
-3.05811e-05,1.039e-05,-1.18238e-05,-2.57767e-06,1.67192e-05,-4.82417e-06,7.69782e-06,3.78696e-06,0
-3.06213e-05,9.6516e-06,-1.31826e-05,-4.84444e-06,1.69131e-05,-5.32059e-06,8.72228e-06,3.80553e-06,0
-3.14655e-05,8.59035e-06,-1.4031e-05,-6.5502e-06,2.0132e-05,-4.62582e-06,8.54001e-06,2.02155e-06,0
-3.21134e-05,8.38578e-06,-1.37982e-05,-7.82107e-06,2.4924e-05,-3.48084e-06,8.59068e-06,-4.62015e-07,0
-3.23621e-05,8.28162e-06,-1.38497e-05,-5.72969e-06,2.93276e-05,-3.1174e-06,1.08196e-05,-1.25072e-06,0
-3.21989e-05,7.72315e-06,-1.41207e-05,-2.42883e-06,3.07284e-05,-3.47371e-06,1.34207e-05,-5.99629e-07,0
-3.18372e-05,7.40449e-06,-1.38768e-05,-2.45746e-06,2.92225e-05,-3.1702e-06,1.34907e-05,-2.12573e-07,0
-3.21631e-05,8.68099e-06,-1.34413e-05,-7.5641e-06,2.62004e-05,-2.03465e-06,1.23687e-05,-8.48264e-07,0
-3.25945e-05,1.12747e-05,-1.26175e-05,-1.27162e-05,2.19303e-05,-1.53832e-06,1.1681e-05,-1.6933e-06,0
-3.26505e-05,1.33626e-05,-1.05266e-05,-1.39565e-05,1.7592e-05,-1.44684e-06,1.09312e-05,-2.61132e-06,0
-3.22555e-05,1.37772e-05,-8.27817e-06,-1.21804e-05,1.50708e-05,-1.23555e-06,1.0029e-05,-3.51532e-06,0
-3.14887e-05,1.3157e-05,-6.96883e-06,-1.03472e-05,1.31229e-05,-8.10107e-07,1.0422e-05,-2.64819e-06,0
-3.1415e-05,1.18847e-05,-6.43811e-06,-8.92432e-06,9.73663e-06,-2.25812e-06,1.1005e-05,-2.06898e-06,0
-3.11822e-05,1.09721e-05,-7.43998e-06,-6.26408e-06,6.55221e-06,-4.84931e-06,1.05305e-05,-4.50052e-06,0
-3.09922e-05,1.0823e-05,-8.97373e-06,-2.85132e-06,5.29217e-06,-6.62151e-06,9.33023e-06,-7.27064e-06,0
-3.16901e-05,1.03804e-05,-1.01796e-05,4.24802e-07,5.1388e-06,-9.16327e-06,8.55417e-06,-8.5176e-06,0
-3.17573e-05,9.03672e-06,-1.11298e-05,2.37809e-06,5.24711e-06,-1.20817e-05,4.05617e-06,-8.3259e-06,0
-3.15585e-05,6.8029e-06,-1.09135e-05,5.52242e-06,6.7563e-06,-1.08124e-05,-1.22834e-05,-8.40293e-06,0
-3.14387e-05,7.78042e-06,-9.63918e-06,1.01727e-05,8.89533e-06,-6.94393e-06,-3.00875e-05,-8.67603e-06,0
-3.06251e-05,1.24162e-05,-8.06569e-06,1.14041e-05,7.98526e-06,-6.20031e-06,-3.31471e-05,-7.2532e-06,0
-2.85538e-05,1.48359e-05,-7.18306e-06,1.01527e-05,5.61319e-06,-8.38608e-06,-2.31054e-05,-5.83534e-06,0
-2.67813e-05,1.59854e-05,-6.13213e-06,8.55918e-06,4.39369e-06,-1.08842e-05,-8.39593e-06,-6.27707e-06,0
-2.64511e-05,1.67745e-05,-6.05127e-06,5.91682e-06,4.92377e-06,-1.34904e-05,5.88445e-06,-8.22961e-06,0
-2.63093e-05,1.78466e-05,-7.08637e-06,2.41734e-06,6.39314e-06,-1.65902e-05,1.76059e-05,-9.36033e-06,0
-2.71557e-05,1.95448e-05,-8.82322e-06,-1.27023e-06,7.55283e-06,-1.8765e-05,2.59843e-05,-8.50179e-06,0
-2.79179e-05,2.02119e-05,-1.04766e-05,-2.81903e-06,1.04933e-05,-1.93838e-05,3.31361e-05,-6.08942e-06,0
-2.76673e-05,2.08584e-05,-1.03479e-05,-2.23662e-06,1.72565e-05,-1.92265e-05,3.76869e-05,-4.13383e-06,0
-2.7358e-05,2.17129e-05,-9.27375e-06,-1.97424e-06,2.61014e-05,-1.90251e-05,3.76638e-05,-3.28672e-06,0
-2.75875e-05,2.11947e-05,-9.05354e-06,-4.89281e-06,3.03094e-05,-1.9077e-05,3.50229e-05,-2.62826e-06,0
-2.77928e-05,1.8814e-05,-1.08323e-05,-8.42246e-06,2.63767e-05,-1.8105e-05,3.04846e-05,-2.19519e-06,0
-2.76963e-05,1.70811e-05,-1.2786e-05,-8.1321e-06,1.81809e-05,-1.63914e-05,2.54819e-05,-2.29977e-06,0
-2.74515e-05,1.74353e-05,-1.33513e-05,-4.0602e-06,1.13975e-05,-1.51522e-05,2.25345e-05,-3.13095e-06,0
-2.71602e-05,1.92409e-05,-1.22887e-05,1.35747e-06,7.07882e-06,-1.40629e-05,2.22367e-05,-4.34955e-06,0
-2.79804e-05,1.93671e-05,-1.20065e-05,4.07127e-06,4.35137e-06,-1.28952e-05,2.29059e-05,-4.48892e-06,0
-2.99371e-05,1.74457e-05,-1.31456e-05,2.33538e-06,2.72201e-06,-1.26387e-05,2.43824e-05,-3.12949e-06,0
-3.11756e-05,1.54423e-05,-1.35221e-05,-1.46471e-06,2.1077e-06,-1.30565e-05,2.62029e-05,-1.55871e-06,0
-3.02839e-05,1.47326e-05,-1.15048e-05,-3.29567e-06,1.83636e-06,-1.34095e-05,2.57389e-05,-1.31823e-08,0
-2.80045e-05,1.53437e-05,-9.72674e-06,-1.66728e-06,1.82433e-06,-1.36545e-05,2.13539e-05,1.59412e-06,0
-2.6194e-05,1.66736e-05,-1.05399e-05,2.12654e-06,2.50695e-06,-1.37469e-05,1.56154e-05,2.83691e-06,0
-2.57148e-05,1.7127e-05,-1.28351e-05,5.42862e-06,2.92528e-06,-1.40864e-05,1.08048e-05,3.73649e-06,0
-2.60968e-05,1.75465e-05,-1.40922e-05,6.47399e-06,2.18933e-06,-1.48301e-05,7.66655e-06,3.74699e-06,0
-2.72648e-05,1.86384e-05,-1.23204e-05,5.22466e-06,9.75704e-07,-1.40593e-05,4.98974e-06,1.70187e-06,0
-2.84774e-05,1.89245e-05,-1.08542e-05,3.09729e-06,-6.04003e-07,-1.11518e-05,2.67872e-06,1.62224e-07,0
-2.78993e-05,1.70868e-05,-1.04038e-05,1.29332e-06,-1.57728e-06,-8.65891e-06,-2.05427e-07,3.08951e-07,0
-2.67405e-05,1.41375e-05,-7.61167e-06,2.65452e-06,1.04295e-06,-8.44741e-06,-3.28559e-06,1.67325e-06,0
-2.66814e-05,1.53749e-05,-4.05195e-06,7.59552e-06,5.61434e-06,-1.05766e-05,-4.37367e-06,3.61765e-06,0
-2.70589e-05,1.8934e-05,-2.87557e-06,1.3195e-05,8.96067e-06,-1.03012e-05,-2.03329e-06,3.92382e-06,0
-2.72413e-05,2.00298e-05,-3.83596e-06,1.63014e-05,1.15657e-05,-7.12432e-06,2.68505e-06,2.75997e-06,0
-2.72655e-05,1.9885e-05,-3.8479e-06,1.41052e-05,1.21915e-05,-5.2445e-06,5.27124e-06,1.24158e-06,0
-2.72944e-05,1.9933e-05,-1.15446e-06,5.84707e-06,1.00594e-05,-6.45428e-06,7.12168e-06,3.64152e-07,0
-2.65428e-05,1.985e-05,1.16413e-06,-8.11734e-06,7.23058e-06,-8.47341e-06,1.00325e-05,-3.46311e-07,0
-2.71121e-05,2.0503e-05,1.28093e-06,-2.65009e-05,4.36944e-06,-9.636e-06,1.15681e-05,-5.27024e-07,0
-2.90698e-05,1.8821e-05,5.25437e-07,-4.39937e-05,2.50544e-06,-1.05867e-05,9.75417e-06,-5.53425e-07,0
-3.012e-05,1.38686e-05,-9.87132e-08,-5.09838e-05,2.16274e-06,-1.11474e-05,9.21694e-06,-4.71198e-07,0
-3.08926e-05,9.67578e-06,-1.01144e-07,-4.52818e-05,2.79414e-06,-1.04751e-05,1.49123e-05,2.17333e-06,0
-3.05441e-05,9.26462e-06,1.24541e-06,-3.38657e-05,2.47613e-06,-8.81449e-06,2.62035e-05,5.27988e-06,0
-2.84868e-05,1.25094e-05,2.50533e-06,-2.45494e-05,1.14234e-06,-7.98207e-06,3.6774e-05,6.58802e-06,0
-2.71104e-05,1.6218e-05,1.47852e-06,-1.79693e-05,-6.65752e-07,-7.46451e-06,4.16429e-05,7.27466e-06,0
-2.79603e-05,1.79336e-05,-2.36649e-07,-1.32335e-05,-1.74132e-06,-7.28299e-06,4.08541e-05,7.13529e-06,0
-2.98659e-05,1.73746e-05,-2.55669e-07,-1.00425e-05,-6.64496e-07,-6.995e-06,3.62889e-05,5.19264e-06,0
-3.14283e-05,1.65491e-05,8.24534e-07,-3.41598e-06,1.47326e-06,-6.53029e-06,2.88601e-05,3.25516e-06,0
-3.23804e-05,1.5893e-05,2.19862e-06,1.29643e-05,3.65545e-06,-5.00768e-06,1.81764e-05,2.91788e-06,0
-3.26809e-05,1.53192e-05,2.89684e-06,3.27023e-05,5.07541e-06,-2.67557e-06,5.78774e-06,4.29714e-06,0
-3.28747e-05,1.39768e-05,2.03352e-06,4.12979e-05,4.52217e-06,-1.44176e-06,-6.00701e-06,6.36123e-06,0
-3.28843e-05,1.2018e-05,-1.54056e-07,3.78944e-05,2.11729e-06,-1.38327e-06,-1.48653e-05,7.43923e-06,0
-3.19232e-05,1.26103e-05,-2.03489e-06,3.53306e-05,6.97917e-07,-2.23132e-06,-2.0243e-05,7.86325e-06,0
-3.14832e-05,1.593e-05,-2.50255e-06,4.22019e-05,6.31951e-07,-3.34914e-06,-2.15425e-05,7.82868e-06,0
-3.24006e-05,1.81901e-05,-2.58881e-06,4.94376e-05,-5.33575e-07,-3.63218e-06,-2.03462e-05,7.09507e-06,0
-3.37422e-05,1.80996e-05,-3.28545e-06,4.59962e-05,-1.6438e-06,-3.04377e-06,-1.8829e-05,5.18797e-06,0
-3.53742e-05,1.82966e-05,-6.08875e-06,3.24327e-05,-6.6497e-07,-1.96673e-06,-1.40172e-05,3.27435e-06,0
-3.79384e-05,1.92767e-05,-1.12887e-05,1.293e-05,2.36098e-06,-1.46969e-06,-3.19588e-06,2.43462e-06,0
-3.97219e-05,1.94608e-05,-1.74238e-05,-5.53151e-06,6.66866e-06,-2.07472e-06,6.87876e-06,3.07357e-06,0
-3.87614e-05,1.78218e-05,-2.2815e-05,-1.81504e-05,1.35788e-05,-2.36588e-06,1.32829e-05,4.9357e-06,0
-3.58451e-05,1.54476e-05,-2.73607e-05,-2.69305e-05,2.21133e-05,-1.84379e-06,1.91334e-05,5.41054e-06,0
-3.27398e-05,1.44797e-05,-2.95903e-05,-3.42443e-05,2.55219e-05,-1.01524e-07,2.36403e-05,4.73487e-06,0
-3.23973e-05,1.52311e-05,-2.76086e-05,-4.27641e-05,2.58939e-05,2.22454e-06,2.50873e-05,4.49556e-06,0
-3.41508e-05,1.63543e-05,-2.1608e-05,-5.14498e-05,2.70497e-05,3.57217e-06,2.37211e-05,5.72595e-06,0
-3.46798e-05,1.64932e-05,-1.45987e-05,-6.20407e-05,3.03044e-05,2.34837e-06,2.15969e-05,7.20864e-06,0
-3.38642e-05,1.5505e-05,-1.06064e-05,-6.98138e-05,3.61602e-05,3.20867e-07,1.91853e-05,8.10498e-06,0
-3.20993e-05,1.24801e-05,-8.23054e-06,-6.8205e-05,4.30021e-05,4.19918e-07,1.77157e-05,9.45125e-06,0
-3.00393e-05,1.10214e-05,-7.10156e-06,-5.92137e-05,5.00401e-05,1.71226e-06,1.64219e-05,1.033e-05,0
-2.91292e-05,1.14774e-05,-7.22244e-06,-4.90433e-05,5.40431e-05,2.46182e-06,1.45958e-05,1.09102e-05,0
-2.93367e-05,9.16621e-06,-8.22275e-06,-4.34946e-05,5.12481e-05,1.80488e-06,1.40631e-05,1.20051e-05,0
-3.13421e-05,3.60241e-06,-1.05012e-05,-4.1615e-05,4.20757e-05,-2.40094e-07,1.58639e-05,1.34909e-05,0
-3.52981e-05,-9.06184e-07,-1.3607e-05,-3.93846e-05,3.30209e-05,-3.45154e-06,1.79991e-05,1.40564e-05,0
-3.83958e-05,-2.1872e-06,-1.59566e-05,-3.22495e-05,2.80312e-05,-6.4754e-06,1.95929e-05,1.31176e-05,0
-3.83514e-05,-2.83968e-06,-1.67565e-05,-2.11996e-05,2.73788e-05,-8.81626e-06,2.21184e-05,1.15237e-05,0
-3.61484e-05,-2.3052e-06,-1.71737e-05,-1.00075e-05,2.86377e-05,-9.80314e-06,2.26258e-05,1.04444e-05,0
-3.42921e-05,-2.50988e-07,-1.75912e-05,-2.97095e-06,2.8495e-05,-8.68096e-06,1.63613e-05,9.67586e-06,0
-3.34503e-05,2.44036e-06,-1.83519e-05,-7.84458e-07,2.70123e-05,-8.01138e-06,4.42846e-06,8.09187e-06,0
-3.22073e-05,4.25953e-06,-1.82236e-05,-8.79681e-07,2.64275e-05,-8.9612e-06,-5.07167e-06,6.26503e-06,0
-3.0269e-05,6.12196e-06,-1.75156e-05,-6.90384e-07,2.73754e-05,-9.77672e-06,-7.87769e-06,5.98626e-06,0
-2.93336e-05,8.05578e-06,-1.69636e-05,-2.07792e-07,2.86481e-05,-9.74705e-06,-6.10947e-06,6.47313e-06,0
-3.07776e-05,8.10797e-06,-1.63282e-05,1.10926e-07,2.78128e-05,-9.05101e-06,-2.26209e-06,4.42133e-06,0
-3.31615e-05,8.60162e-06,-1.41941e-05,-5.13759e-07,2.45815e-05,-7.8693e-06,3.103e-07,8.91974e-07,0
-3.39701e-05,1.11876e-05,-1.01444e-05,-1.36425e-06,2.06369e-05,-7.09697e-06,1.94324e-06,-1.06916e-06,0
-3.26653e-05,1.39795e-05,-7.46936e-06,-5.7709e-07,1.88502e-05,-6.56648e-06,4.75044e-06,-1.25791e-06,0
-3.10867e-05,1.50411e-05,-6.22524e-06,8.04712e-07,1.85137e-05,-7.07361e-06,7.45534e-06,-2.91705e-07,0
-3.11508e-05,1.48639e-05,-4.44774e-06,6.1634e-07,1.77285e-05,-9.17784e-06,1.09592e-05,-1.77569e-06,0
-3.16534e-05,1.82796e-05,-2.28908e-06,1.17304e-06,1.79822e-05,-1.09309e-05,1.61192e-05,-6.78045e-06,0
-3.18608e-05,2.35775e-05,-6.91616e-07,1.47389e-06,1.62358e-05,-9.3903e-06,2.05558e-05,-1.01516e-05,0
-3.22506e-05,2.47959e-05,1.24999e-06,-2.05963e-06,1.29149e-05,-7.63623e-06,2.33355e-05,-1.0137e-05,0
-3.20991e-05,2.27744e-05,2.81067e-06,-6.34909e-06,1.04905e-05,-8.65948e-06,2.4141e-05,-9.14523e-06,0
-3.11839e-05,2.14183e-05,2.31911e-06,-7.83378e-06,8.54971e-06,-9.96424e-06,2.36856e-05,-8.66655e-06,0
-3.02518e-05,2.21943e-05,1.49932e-06,-2.83463e-06,7.60284e-06,-1.01621e-05,2.4729e-05,-7.94199e-06,0
-2.98395e-05,2.39381e-05,5.98042e-08,5.55474e-06,8.939e-06,-1.00198e-05,2.79187e-05,-6.72925e-06,0
-2.92633e-05,2.48381e-05,-8.00428e-07,1.03986e-05,1.05415e-05,-1.22246e-05,3.11361e-05,-6.27801e-06,0
-2.77854e-05,2.39973e-05,-1.16693e-06,1.0709e-05,1.01831e-05,-1.41007e-05,3.03178e-05,-6.74633e-06,0
-2.70997e-05,2.27155e-05,-2.10204e-06,9.24425e-06,8.75838e-06,-1.34061e-05,2.52235e-05,-7.29198e-06,0
-2.77351e-05,2.09464e-05,-2.83671e-06,8.00084e-06,6.87599e-06,-1.25333e-05,2.02657e-05,-7.17921e-06,0
-2.90601e-05,1.88651e-05,-2.02892e-06,7.56465e-06,5.80018e-06,-1.2544e-05,1.8066e-05,-6.35719e-06,0
-3.03057e-05,1.56612e-05,-5.68985e-07,7.60745e-06,6.57423e-06,-1.28345e-05,1.69847e-05,-6.21285e-06,0
-3.07591e-05,1.1534e-05,-8.65821e-07,7.72793e-06,7.39477e-06,-1.33959e-05,1.71677e-05,-6.9916e-06,0
-3.13974e-05,8.44347e-06,-2.24809e-06,7.60327e-06,6.03954e-06,-1.4452e-05,2.09668e-05,-6.65087e-06,0
-3.26618e-05,8.63827e-06,-3.00944e-06,6.90142e-06,3.83486e-06,-1.48358e-05,2.80186e-05,-4.20262e-06,0
-3.3252e-05,1.1283e-05,-2.73653e-06,5.2006e-06,2.51843e-06,-1.44426e-05,3.37893e-05,-2.04532e-06,0
-3.1711e-05,1.37813e-05,-2.64801e-06,2.96846e-06,1.76867e-06,-1.37208e-05,3.51499e-05,-1.20032e-06,0
-2.85986e-05,1.52232e-05,-3.03007e-06,7.14627e-07,9.81073e-07,-1.27726e-05,3.39527e-05,-2.01302e-07,0
-2.50121e-05,1.64475e-05,-4.24403e-06,-1.1684e-06,1.08386e-06,-1.16341e-05,3.08037e-05,3.58349e-08,0
-2.23858e-05,1.8064e-05,-5.44283e-06,-5.12886e-06,1.22283e-06,-9.95656e-06,2.47987e-05,-8.92004e-07,0
-2.1786e-05,1.88038e-05,-5.78354e-06,-1.323e-05,1.11197e-06,-8.40267e-06,1.55547e-05,-1.49461e-06,0
-2.31163e-05,1.73157e-05,-5.84515e-06,-2.03033e-05,2.26211e-06,-8.81526e-06,4.33978e-06,-6.35406e-07,0
-2.44136e-05,1.54029e-05,-7.65871e-06,-2.14646e-05,4.3014e-06,-9.93276e-06,-5.53189e-06,2.61183e-07,0
-2.41328e-05,1.53198e-05,-8.823e-06,-2.00072e-05,4.86515e-06,-1.04765e-05,-1.0628e-05,6.93219e-07,0
-2.33529e-05,1.63367e-05,-7.42097e-06,-2.11743e-05,4.57116e-06,-1.20184e-05,-1.11343e-05,-6.88978e-07,0
-2.43631e-05,1.61767e-05,-7.7133e-06,-2.13404e-05,6.24435e-06,-1.29694e-05,-9.15794e-06,-2.47742e-06,0
-2.7154e-05,1.41085e-05,-8.42338e-06,-1.53999e-05,7.61324e-06,-1.31181e-05,-7.9913e-06,-2.09286e-06,0
-2.91228e-05,1.34225e-05,-6.23999e-06,-4.51826e-06,6.86739e-06,-1.50477e-05,-6.79402e-06,-1.76309e-06,0
-2.89287e-05,1.5082e-05,-3.79822e-06,1.03823e-05,4.79191e-06,-1.62716e-05,-4.22505e-06,-2.21499e-06,0
-2.78367e-05,1.71182e-05,-2.74367e-06,2.31609e-05,3.27721e-06,-1.53012e-05,-3.78287e-07,-3.53854e-06,0
-2.69638e-05,1.59274e-05,-3.35741e-06,2.66561e-05,2.07667e-06,-1.53167e-05,5.44054e-06,-3.33684e-06,0
-2.68515e-05,1.35497e-05,-3.34681e-06,2.59566e-05,7.79039e-07,-1.61027e-05,1.22641e-05,-2.55078e-06,0
-2.86153e-05,1.29111e-05,-1.86521e-06,2.62955e-05,1.11633e-06,-1.66392e-05,1.76991e-05,-1.58902e-06,0
-3.08936e-05,1.49601e-05,-5.31127e-07,2.76181e-05,2.44424e-06,-1.77347e-05,1.8038e-05,-1.29822e-06,0
-3.17294e-05,1.80044e-05,1.33181e-07,2.67807e-05,4.86826e-06,-1.90808e-05,1.39328e-05,-1.76118e-06,0
-3.15554e-05,2.03515e-05,2.09536e-07,1.78523e-05,8.12535e-06,-1.94283e-05,9.47397e-06,-2.26187e-06,0
-3.10861e-05,2.07611e-05,7.53619e-07,1.10672e-06,1.08223e-05,-1.78762e-05,8.03523e-06,-3.8472e-06,0
-3.08551e-05,1.80739e-05,9.28246e-07,-1.49866e-05,1.1985e-05,-1.59252e-05,9.23292e-06,-5.42926e-06,0
-3.14455e-05,1.43409e-05,-1.13397e-06,-2.3416e-05,1.16244e-05,-1.41588e-05,1.0589e-05,-5.97005e-06,0
-3.23394e-05,1.18842e-05,-6.43483e-06,-2.40131e-05,1.0333e-05,-1.28403e-05,1.04858e-05,-4.75979e-06,0
-3.27755e-05,1.18463e-05,-1.19501e-05,-2.0729e-05,9.15612e-06,-1.25174e-05,7.8848e-06,-4.64566e-06,0
-3.20325e-05,1.27357e-05,-1.45728e-05,-1.62316e-05,9.49155e-06,-1.2186e-05,2.3532e-06,-6.12994e-06,0
-3.03077e-05,1.40501e-05,-1.39458e-05,-6.14738e-06,1.06116e-05,-1.13481e-05,-2.06824e-06,-7.5476e-06,0
-2.91348e-05,1.39345e-05,-1.20063e-05,1.37942e-05,9.49415e-06,-1.09382e-05,-1.10188e-06,-7.07472e-06,0
-3.00809e-05,1.31269e-05,-1.12821e-05,3.87368e-05,6.42871e-06,-1.24085e-05,2.97891e-06,-5.20805e-06,0
-3.16541e-05,1.24978e-05,-1.21682e-05,5.67655e-05,5.47653e-06,-1.50591e-05,5.80602e-06,-2.89804e-06,0
-3.03433e-05,1.29117e-05,-1.20475e-05,5.87491e-05,7.51094e-06,-1.64295e-05,6.40354e-06,-1.15999e-06,0
-2.75742e-05,1.49218e-05,-1.03099e-05,4.63709e-05,8.93309e-06,-1.57015e-05,7.31942e-06,-7.6856e-07,0
-2.77023e-05,1.58837e-05,-8.37584e-06,2.52766e-05,7.68408e-06,-1.50846e-05,1.06109e-05,-7.10115e-08,0
-2.9667e-05,1.54317e-05,-7.9938e-06,2.69628e-06,5.87349e-06,-1.54409e-05,1.46533e-05,1.66838e-06,0
-2.94503e-05,1.41071e-05,-8.85458e-06,-1.32987e-05,7.35693e-06,-1.55959e-05,1.62096e-05,2.74254e-06,0
-2.7372e-05,1.04909e-05,-9.61144e-06,-2.24596e-05,1.33678e-05,-1.50711e-05,1.56318e-05,3.74999e-06,0
-2.69106e-05,7.35266e-06,-9.96736e-06,-3.28136e-05,1.69319e-05,-1.32568e-05,1.5323e-05,3.96239e-06,0
-2.80084e-05,6.79881e-06,-1.02257e-05,-4.44735e-05,1.67394e-05,-1.19679e-05,1.52535e-05,2.12252e-06,0
-2.86289e-05,8.40765e-06,-1.18493e-05,-4.96075e-05,1.78034e-05,-1.32875e-05,1.56491e-05,3.99206e-07,0
-2.85912e-05,8.61189e-06,-1.35415e-05,-4.71756e-05,1.82428e-05,-1.52223e-05,1.71125e-05,1.18262e-06,0
-2.918e-05,6.89213e-06,-1.44429e-05,-4.02646e-05,1.63652e-05,-1.53204e-05,1.79814e-05,2.42291e-06,0
-2.99664e-05,5.7281e-06,-1.41859e-05,-3.43615e-05,1.41887e-05,-1.4281e-05,1.67205e-05,1.58309e-06,0
-3.0202e-05,4.46757e-06,-1.30629e-05,-3.11928e-05,1.43698e-05,-1.3302e-05,1.46061e-05,5.40697e-07,0
-3.082e-05,4.04333e-06,-1.27457e-05,-3.01263e-05,1.50508e-05,-1.33595e-05,1.16766e-05,6.97741e-07,0
-2.95878e-05,4.90684e-06,-1.36955e-05,-2.84475e-05,1.30294e-05,-1.47519e-05,9.92747e-06,1.44851e-06,0
-2.62037e-05,6.6726e-06,-1.48033e-05,-2.46321e-05,1.0662e-05,-1.58763e-05,1.17171e-05,1.62172e-06,0
-2.43153e-05,7.33258e-06,-1.59294e-05,-2.13812e-05,9.58421e-06,-1.71883e-05,1.55356e-05,2.22639e-06,0
-2.57189e-05,7.13233e-06,-1.72384e-05,-1.71115e-05,8.91447e-06,-1.8672e-05,1.98381e-05,1.95269e-06,0
-2.76357e-05,5.53472e-06,-1.83729e-05,-8.98904e-06,1.01303e-05,-1.90086e-05,2.23718e-05,1.36651e-06,0
-2.85549e-05,3.30932e-06,-1.87037e-05,5.13354e-07,1.50269e-05,-1.81894e-05,2.2228e-05,2.11582e-06,0
-3.00718e-05,2.30976e-06,-1.79469e-05,4.85946e-06,2.04956e-05,-1.73463e-05,2.07714e-05,3.43854e-06,0
-3.15055e-05,3.65998e-06,-1.70905e-05,3.52665e-06,2.18136e-05,-1.72919e-05,2.09721e-05,3.77419e-06,0
-3.17558e-05,4.97207e-06,-1.63762e-05,9.49815e-07,1.891e-05,-1.75943e-05,2.2738e-05,4.02845e-06,0
-3.09045e-05,3.76919e-06,-1.5228e-05,2.54133e-07,1.54151e-05,-1.74222e-05,2.37433e-05,4.61455e-06,0
-2.94617e-05,1.69637e-06,-1.32373e-05,9.70923e-07,1.43095e-05,-1.63799e-05,2.23236e-05,5.00707e-06,0
-2.86755e-05,2.09627e-06,-1.16528e-05,3.09948e-06,1.49583e-05,-1.47123e-05,1.83549e-05,5.82251e-06,0
-2.87832e-05,5.09274e-06,-1.15837e-05,6.25266e-06,1.63587e-05,-1.32612e-05,1.1557e-05,6.95468e-06,0
-2.90872e-05,6.59961e-06,-1.19273e-05,8.12539e-06,1.74799e-05,-1.28101e-05,-8.10398e-07,7.53218e-06,0
-2.99898e-05,7.28855e-06,-1.17884e-05,7.25731e-06,1.66434e-05,-1.2387e-05,-1.46092e-05,8.61009e-06,0
-3.22792e-05,1.04166e-05,-1.09918e-05,5.86813e-06,1.46019e-05,-1.24378e-05,-1.84563e-05,9.81639e-06,0
-3.46263e-05,1.38106e-05,-1.01647e-05,6.93273e-06,1.25182e-05,-1.22563e-05,-1.07052e-05,8.38689e-06,0
-3.43997e-05,1.2099e-05,-9.40148e-06,6.84949e-06,1.12963e-05,-1.01684e-05,1.00313e-06,5.56409e-06,0
-3.31525e-05,8.0234e-06,-8.82582e-06,2.7539e-06,1.06603e-05,-8.31911e-06,1.50297e-05,3.95858e-06,0
-3.2474e-05,6.5522e-06,-7.36709e-06,-3.54718e-06,1.03723e-05,-7.22903e-06,2.85866e-05,3.81511e-06,0
-3.18459e-05,8.60989e-06,-5.30893e-06,-9.12395e-06,1.05673e-05,-6.82024e-06,3.7331e-05,2.47514e-06,0
-3.15564e-05,1.19621e-05,-5.10696e-06,-1.45177e-05,1.10542e-05,-7.91533e-06,4.256e-05,2.17103e-06,0
