ch1,ch2,ch3,ch4,ch5,ch6,ch7,ch8,class
-3.09413e-05,1.57e-05,-1.44676e-05,-2.03128e-05,1.35708e-05,-7.3703e-06,2.79745e-05,-2.33237e-06,0
-3.3108e-05,1.42861e-05,-1.53689e-05,-2.58455e-05,1.19406e-05,-7.55127e-06,2.39487e-05,-2.40052e-07,0
-3.31108e-05,1.71611e-05,-1.5825e-05,-3.12989e-05,9.77588e-06,-7.60523e-06,2.24103e-05,2.36088e-06,0
-3.17041e-05,2.35676e-05,-1.72162e-05,-3.47481e-05,9.91618e-06,-8.90088e-06,2.29009e-05,3.24372e-06,0
-3.05891e-05,3.01536e-05,-1.68943e-05,-3.48369e-05,1.15549e-05,-1.04158e-05,2.24579e-05,3.4583e-06,0
-2.89363e-05,3.43751e-05,-1.37228e-05,-2.94433e-05,1.35461e-05,-1.10893e-05,1.81042e-05,2.04719e-06,0
-2.82171e-05,3.59344e-05,-6.94621e-06,-1.88896e-05,1.49779e-05,-1.00262e-05,1.21822e-05,-2.53895e-07,0
-2.90289e-05,3.54982e-05,7.82973e-06,-7.71982e-06,1.54604e-05,-9.37143e-06,9.34142e-06,-8.12493e-07,0
-2.79982e-05,3.57447e-05,2.89464e-05,6.79273e-07,1.65123e-05,-1.18201e-05,8.75484e-06,-1.78189e-06,0
-2.61045e-05,3.64206e-05,5.08385e-05,5.97325e-06,1.76853e-05,-1.45378e-05,7.83212e-06,-2.28366e-06,0
-2.44444e-05,3.6148e-05,6.5417e-05,9.73685e-06,1.88026e-05,-1.51776e-05,6.32982e-06,-1.97e-06,0
-2.22184e-05,3.54915e-05,6.48293e-05,1.5014e-05,2.0628e-05,-1.376e-05,4.80432e-06,-1.2482e-06,0
-2.19881e-05,3.43988e-05,4.54978e-05,1.78004e-05,2.32974e-05,-1.20061e-05,3.26275e-06,-2.14947e-08,0
-2.45932e-05,3.35992e-05,1.01788e-05,1.51327e-05,2.30264e-05,-1.19801e-05,3.00417e-06,1.44731e-07,0
-2.7542e-05,3.42025e-05,-2.89908e-05,1.17819e-05,2.05006e-05,-1.19115e-05,4.08126e-06,-8.35108e-07,0
-2.92718e-05,3.48334e-05,-6.30637e-05,9.31738e-06,1.67538e-05,-1.22678e-05,5.31279e-06,-3.72848e-06,0
-3.01755e-05,3.46785e-05,-8.447e-05,6.52898e-06,1.16144e-05,-1.44131e-05,6.48543e-06,-7.68567e-06,0
-3.11712e-05,3.49642e-05,-8.90552e-05,2.6082e-06,8.37531e-06,-1.53659e-05,7.0362e-06,-9.9762e-06,0
-3.19827e-05,3.48953e-05,-8.04398e-05,2.1799e-06,7.31116e-06,-1.509e-05,6.27233e-06,-9.56828e-06,0
-3.18392e-05,3.42976e-05,-6.62714e-05,9.7014e-06,7.45555e-06,-1.51133e-05,4.24335e-06,-8.05072e-06,0
-3.06877e-05,3.31697e-05,-5.30199e-05,2.2511e-05,6.61382e-06,-1.51057e-05,3.22696e-06,-6.78366e-06,0
-2.95233e-05,3.14845e-05,-4.24781e-05,3.10673e-05,5.64959e-06,-1.44457e-05,4.40863e-06,-6.29561e-06,0
-2.97559e-05,2.92489e-05,-3.27632e-05,2.76398e-05,5.19642e-06,-1.31093e-05,7.47717e-06,-6.41963e-06,0
-3.06011e-05,2.78433e-05,-2.25944e-05,1.64162e-05,5.42318e-06,-1.25859e-05,1.02222e-05,-7.22188e-06,0
-2.98476e-05,3.00127e-05,-1.47949e-05,6.69671e-06,7.16827e-06,-1.32552e-05,1.23027e-05,-8.71058e-06,0
-2.80023e-05,3.71843e-05,-1.05399e-05,2.57869e-06,1.16187e-05,-1.36369e-05,1.32769e-05,-9.29112e-06,0
-2.77999e-05,4.5424e-05,-7.61896e-06,6.73721e-07,1.67405e-05,-1.27017e-05,1.17362e-05,-8.63251e-06,0
-2.89721e-05,4.76434e-05,-4.13485e-06,-4.22034e-06,1.81823e-05,-1.25261e-05,9.51207e-06,-8.15491e-06,0
-2.96269e-05,4.44564e-05,-1.76433e-06,-1.26523e-05,1.45654e-05,-1.34709e-05,9.6366e-06,-8.9322e-06,0
-2.9277e-05,3.92326e-05,-1.63686e-06,-2.23923e-05,1.00683e-05,-1.36962e-05,1.1452e-05,-7.8738e-06,0
-2.83658e-05,3.1081e-05,-2.93003e-06,-3.57207e-05,8.20458e-06,-1.34363e-05,1.35163e-05,-4.82544e-06,0
-2.78735e-05,2.02663e-05,-4.38175e-06,-5.21542e-05,6.91939e-06,-1.29534e-05,1.54276e-05,-4.38347e-06,0
-2.91224e-05,9.5489e-06,-5.76498e-06,-6.40772e-05,6.49979e-06,-1.16356e-05,1.53828e-05,-5.64143e-06,0
-2.9873e-05,7.76971e-07,-6.26329e-06,-6.59657e-05,5.98809e-06,-1.10837e-05,1.42982e-05,-6.35523e-06,0
-2.80785e-05,-7.32197e-06,-5.62029e-06,-5.66077e-05,5.23656e-06,-1.06701e-05,1.42356e-05,-7.64992e-06,0
-2.76851e-05,-1.69808e-05,-4.68507e-06,-4.24576e-05,7.67682e-06,-8.64879e-06,1.49565e-05,-6.73359e-06,0
-2.99055e-05,-2.8013e-05,-2.92576e-06,-3.15883e-05,1.02395e-05,-4.93967e-06,1.68354e-05,-3.60489e-06,0
-3.20351e-05,-3.64214e-05,-2.21761e-06,-2.41661e-05,8.41267e-06,-2.91395e-06,1.7498e-05,-1.34514e-06,0
-3.24657e-05,-4.00999e-05,-4.68147e-06,-1.92768e-05,6.78426e-06,-2.95523e-06,1.26951e-05,-8.32767e-07,0
-3.16687e-05,-4.01149e-05,-7.32467e-06,-1.52105e-05,9.12097e-06,-2.77047e-06,2.61795e-06,-1.4321e-06,0
-3.15599e-05,-3.53912e-05,-7.80411e-06,-1.27789e-05,1.27409e-05,-2.49436e-06,-1.46946e-06,-3.09838e-06,0
-3.17791e-05,-2.70252e-05,-7.28924e-06,-1.23333e-05,1.4003e-05,-1.27122e-06,9.27235e-06,-3.79641e-06,0
-3.07203e-05,-1.83566e-05,-6.93017e-06,-1.21598e-05,1.58311e-05,1.29151e-07,2.68718e-05,-2.62176e-06,0
-2.84427e-05,-1.28492e-05,-6.62102e-06,-1.05974e-05,1.8083e-05,1.36917e-06,4.171e-05,-2.31298e-06,0
-2.67852e-05,-9.68494e-06,-6.60575e-06,-7.27266e-06,1.78088e-05,1.57069e-06,4.82983e-05,-4.13161e-06,0
-2.7925e-05,-6.85758e-06,-7.08141e-06,-1.17682e-06,1.59813e-05,1.84168e-06,4.7072e-05,-5.81897e-06,0
-2.99224e-05,-4.8806e-06,-6.43312e-06,6.88386e-06,1.45211e-05,2.34263e-06,3.97321e-05,-3.63556e-06,0
-3.03219e-05,-3.57927e-06,-4.28278e-06,1.38404e-05,1.37841e-05,2.29305e-06,2.89865e-05,-1.35341e-06,0
-3.08538e-05,-3.25157e-06,-1.81503e-06,1.74681e-05,1.29016e-05,2.23294e-06,1.69962e-05,-1.63207e-06,0
-3.22956e-05,-3.30174e-06,-2.71545e-07,1.64536e-05,1.14387e-05,2.1179e-06,5.32376e-06,-3.14971e-06,0
-3.26467e-05,-1.68268e-06,7.01829e-07,1.32972e-05,9.07054e-06,7.47207e-07,-3.11628e-06,-3.72658e-06,0
-3.18246e-05,2.83337e-06,1.6702e-06,1.12116e-05,8.53266e-06,-1.70522e-06,-8.18943e-06,-2.98941e-06,0
-3.10297e-05,7.7979e-06,3.39414e-06,9.9864e-06,1.0475e-05,-3.8254e-06,-1.1932e-05,-2.50215e-06,0
-3.04119e-05,1.02101e-05,5.27176e-06,5.07553e-06,1.29233e-05,-4.77308e-06,-1.4977e-05,-2.59341e-06,0
-3.04972e-05,9.90968e-06,5.53692e-06,-2.72492e-06,1.4144e-05,-3.84571e-06,-1.51528e-05,-1.71536e-06,0
-3.06716e-05,8.27941e-06,3.74396e-06,-4.81437e-06,1.39131e-05,-2.83058e-06,-1.27366e-05,3.03123e-07,0
-2.91204e-05,6.15521e-06,7.31907e-07,6.18962e-06,1.236e-05,-3.0864e-06,-9.03074e-06,1.88221e-06,0
-2.71186e-05,4.91203e-06,-1.49897e-06,2.30664e-05,1.08963e-05,-3.31442e-06,-6.03079e-06,1.42882e-06,0
-2.72114e-05,4.77282e-06,-2.06214e-06,3.3495e-05,1.28751e-05,-3.59276e-06,-4.50605e-06,-4.84544e-08,0
-2.83247e-05,4.30083e-06,-1.19053e-06,3.45535e-05,1.76986e-05,-5.45183e-06,-3.48135e-06,-2.93449e-07,0
-2.92921e-05,3.81738e-06,-8.62415e-07,3.01217e-05,2.14539e-05,-7.39883e-06,-1.47328e-06,-6.64923e-07,0
-2.97152e-05,3.89048e-06,-7.08045e-07,2.08573e-05,2.37457e-05,-7.54008e-06,1.79766e-06,-1.33534e-07,0
-2.91763e-05,5.15785e-06,5.74338e-07,1.03537e-05,2.16813e-05,-4.89518e-06,4.20324e-06,1.95294e-06,0
-2.84474e-05,5.90325e-06,2.09538e-07,2.21941e-06,1.6212e-05,-4.67799e-06,5.04877e-06,3.46517e-06,0
-2.7983e-05,6.27709e-06,-2.79959e-06,-7.33179e-06,1.19064e-05,-8.47567e-06,5.87087e-06,3.49367e-06,0
-2.85237e-05,9.61708e-06,-6.67404e-06,-2.06242e-05,9.00288e-06,-1.12664e-05,5.74243e-06,3.30955e-06,0
-2.98869e-05,1.36896e-05,-8.59611e-06,-3.41052e-05,7.07546e-06,-1.17076e-05,4.89045e-06,1.81338e-06,0
-3.03414e-05,1.68298e-05,-8.56421e-06,-4.33471e-05,5.39016e-06,-1.09595e-05,5.44549e-06,-2.5212e-07,0
-2.95602e-05,1.7284e-05,-7.76597e-06,-4.66601e-05,4.6185e-06,-1.01607e-05,7.98369e-06,3.51804e-07,0
-2.81993e-05,1.60762e-05,-5.50272e-06,-4.22806e-05,4.15835e-06,-8.67797e-06,1.14918e-05,2.85062e-06,0
-2.82233e-05,1.52757e-05,-3.08673e-06,-3.15407e-05,3.82351e-06,-8.33082e-06,1.40864e-05,3.98579e-06,0
-2.94483e-05,1.49646e-05,-1.92595e-06,-1.97126e-05,4.57243e-06,-9.08815e-06,1.47038e-05,4.17222e-06,0
-3.06769e-05,1.5572e-05,-1.3315e-06,-1.09905e-05,7.81549e-06,-9.66902e-06,1.42411e-05,5.29242e-06,0
-3.1725e-05,1.63567e-05,-1.02318e-06,-3.66522e-06,1.42648e-05,-9.11218e-06,1.54111e-05,6.34979e-06,0
-3.18893e-05,1.75613e-05,-9.18616e-07,3.71894e-06,2.15111e-05,-8.68794e-06,1.84951e-05,5.78383e-06,0
-3.14885e-05,1.82426e-05,-1.71369e-06,9.4205e-06,2.57115e-05,-9.44108e-06,2.08797e-05,4.37401e-06,0
-3.0559e-05,1.74911e-05,-4.04388e-06,1.13231e-05,2.42244e-05,-1.06664e-05,2.13253e-05,4.67106e-06,0
-2.9709e-05,1.54934e-05,-6.93581e-06,1.06067e-05,1.90277e-05,-1.24799e-05,2.1198e-05,6.3867e-06,0
-3.02638e-05,1.4418e-05,-8.59787e-06,8.75352e-06,1.49528e-05,-1.45256e-05,2.00426e-05,7.20249e-06,0
-3.28889e-05,1.42057e-05,-8.29699e-06,7.20436e-06,1.36066e-05,-1.57443e-05,1.71959e-05,6.28269e-06,0
-3.56296e-05,1.38394e-05,-7.89574e-06,6.20871e-06,1.3114e-05,-1.58003e-05,1.49246e-05,4.93869e-06,0
-3.6052e-05,1.29743e-05,-8.02242e-06,4.46798e-06,1.23401e-05,-1.59069e-05,1.45402e-05,4.39543e-06,0
-3.41121e-05,1.28528e-05,-8.47204e-06,1.13871e-06,1.17952e-05,-1.6478e-05,1.43838e-05,5.23472e-06,0
-3.19145e-05,1.33723e-05,-8.30465e-06,-4.23535e-06,1.10713e-05,-1.65734e-05,1.38534e-05,6.02592e-06,0
-3.1118e-05,1.27637e-05,-7.3387e-06,-1.19509e-05,1.07833e-05,-1.47211e-05,1.33858e-05,6.77713e-06,0
-3.16408e-05,1.44254e-05,-6.37754e-06,-1.90872e-05,1.23227e-05,-1.40494e-05,1.37029e-05,7.14326e-06,0
-3.17528e-05,2.42188e-05,-5.57358e-06,-2.02123e-05,1.5349e-05,-1.44831e-05,1.44628e-05,7.16063e-06,0
-3.1102e-05,3.84522e-05,-5.06341e-06,-1.53273e-05,1.65674e-05,-1.48409e-05,1.48615e-05,7.70841e-06,0
-3.11502e-05,4.98727e-05,-6.24303e-06,-9.91666e-06,1.71752e-05,-1.36525e-05,1.54084e-05,5.41028e-06,0
-3.2195e-05,5.21811e-05,-8.63074e-06,-9.81114e-06,1.91265e-05,-1.11028e-05,1.56036e-05,2.58965e-06,0
-3.31474e-05,4.11205e-05,-8.39382e-06,-1.511e-05,1.8623e-05,-1.10906e-05,1.63659e-05,3.17217e-06,0
-3.21485e-05,2.33834e-05,-7.24007e-06,-1.90922e-05,1.56735e-05,-1.232e-05,1.79613e-05,3.81468e-06,0
-2.9338e-05,4.15556e-06,-7.75373e-06,-1.45377e-05,1.28561e-05,-1.21904e-05,1.83795e-05,3.83715e-06,0
-2.74622e-05,-1.53858e-05,-9.01712e-06,-4.51645e-06,1.19347e-05,-1.01288e-05,1.77847e-05,3.88393e-06,0
-2.62628e-05,-3.09898e-05,-9.80309e-06,1.89058e-06,9.73439e-06,-9.16531e-06,1.82533e-05,3.83758e-06,0
-2.55472e-05,-3.7306e-05,-7.93121e-06,1.27699e-06,5.76222e-06,-1.0739e-05,1.95249e-05,3.78141e-06,0
-2.71297e-05,-3.59874e-05,-5.70458e-06,-1.16626e-06,5.20014e-06,-1.28104e-05,1.99904e-05,3.66139e-06,0
-2.98028e-05,-3.20212e-05,-6.22863e-06,-9.68487e-07,7.50425e-06,-1.41842e-05,2.05089e-05,3.62895e-06,0
-3.156e-05,-2.67618e-05,-9.52238e-06,3.50522e-07,1.07664e-05,-1.43497e-05,2.09405e-05,2.54847e-06,0
-3.15984e-05,-1.97121e-05,-1.34269e-05,1.86299e-06,1.41648e-05,-1.38402e-05,2.02093e-05,1.25269e-06,0
-3.10482e-05,-1.1895e-05,-1.5038e-05,3.87797e-06,1.71678e-05,-1.39052e-05,1.91938e-05,8.42132e-07,0
-2.9804e-05,-6.62832e-06,-1.32973e-05,6.81228e-06,1.93405e-05,-1.49007e-05,1.80583e-05,1.30435e-07,0
-2.93803e-05,-4.96263e-06,-1.06119e-05,9.06239e-06,2.04175e-05,-1.53682e-05,1.71085e-05,-6.22678e-07,0
-3.07658e-05,-5.42692e-06,-9.1063e-06,9.03221e-06,2.0175e-05,-1.47485e-05,1.66034e-05,1.82396e-07,0
-3.26454e-05,-5.97519e-06,-8.25022e-06,5.77227e-06,1.86684e-05,-1.51324e-05,1.61853e-05,1.08714e-06,0
-3.32271e-05,-3.75928e-06,-8.61118e-06,9.66637e-07,1.72617e-05,-1.63229e-05,1.58509e-05,2.95807e-08,0
-3.20134e-05,1.39395e-06,-9.86121e-06,-1.51383e-06,1.78666e-05,-1.60979e-05,1.51676e-05,-3.26333e-06,0
-2.95937e-05,5.74389e-06,-1.10726e-05,-8.66996e-07,2.11026e-05,-1.4043e-05,1.36021e-05,-6.55014e-06,0
-2.75334e-05,8.88824e-06,-1.20978e-05,9.17443e-07,2.37367e-05,-1.22104e-05,1.20784e-05,-7.19723e-06,0
-2.80955e-05,1.27261e-05,-1.3903e-05,8.00617e-07,2.26812e-05,-1.3299e-05,1.18832e-05,-4.90107e-06,0
-2.9835e-05,1.51816e-05,-1.61546e-05,-1.52832e-06,1.86849e-05,-1.49381e-05,1.28124e-05,-2.06761e-06,0
-3.14079e-05,1.48901e-05,-1.728e-05,-3.75532e-06,1.58308e-05,-1.47156e-05,1.44997e-05,-5.17101e-07,0
-3.22158e-05,1.51767e-05,-1.62876e-05,-3.00571e-06,1.65025e-05,-1.42655e-05,1.50424e-05,3.08812e-08,0
-3.11589e-05,1.69535e-05,-1.44049e-05,2.81683e-08,1.77056e-05,-1.3734e-05,1.22021e-05,-1.0428e-06,0
-2.88801e-05,1.78497e-05,-1.40059e-05,4.00456e-06,1.6522e-05,-1.46711e-05,7.37184e-06,-2.47305e-06,0
-2.71906e-05,1.67928e-05,-1.4037e-05,1.04187e-05,1.40375e-05,-1.54303e-05,4.84616e-06,-1.73578e-06,0
-2.54433e-05,1.64724e-05,-1.17434e-05,1.73114e-05,1.23586e-05,-1.33068e-05,6.46083e-06,-1.46077e-06,0
-2.65475e-05,1.78732e-05,-8.66499e-06,2.04313e-05,1.07026e-05,-1.16901e-05,9.93206e-06,-1.33823e-06,0
-2.96248e-05,1.70065e-05,-6.14706e-06,1.77212e-05,6.73706e-06,-1.23195e-05,1.15493e-05,-4.32245e-07,0
-2.94933e-05,1.39774e-05,-3.71614e-06,9.65307e-06,3.16092e-06,-1.35104e-05,1.03365e-05,-1.30472e-06,0
-2.83141e-05,9.91549e-06,-1.771e-06,-4.38904e-06,3.24738e-06,-1.51315e-05,8.12671e-06,-2.09621e-06,0
-2.73831e-05,7.64176e-06,-1.06681e-06,-2.36678e-05,4.36422e-06,-1.62461e-05,7.78536e-06,-3.02728e-06,0
-2.61443e-05,1.02467e-05,-1.56093e-06,-3.9273e-05,4.8922e-06,-1.54947e-05,9.39848e-06,-2.80377e-06,0
-2.60388e-05,1.36984e-05,-2.22655e-06,-4.45911e-05,6.81406e-06,-1.42254e-05,9.50247e-06,-8.88828e-07,0
-2.65871e-05,1.63767e-05,-4.30174e-06,-4.1519e-05,8.70015e-06,-1.42665e-05,9.38549e-06,1.021e-06,0
-2.64899e-05,1.82631e-05,-7.40588e-06,-3.49297e-05,7.66396e-06,-1.64909e-05,9.69518e-06,2.51026e-06,0
-2.70092e-05,2.01984e-05,-1.03145e-05,-2.69376e-05,4.53518e-06,-1.89349e-05,8.64804e-06,2.75357e-06,0
-2.78592e-05,2.19571e-05,-1.10607e-05,-1.58867e-05,1.78478e-06,-2.08406e-05,7.33062e-06,2.23282e-06,0
-2.79495e-05,2.31899e-05,-9.89791e-06,-5.44731e-07,1.92946e-06,-2.16499e-05,7.53437e-06,2.60579e-06,0
-2.89271e-05,2.42894e-05,-8.8637e-06,1.66723e-05,6.69993e-06,-2.15157e-05,8.22494e-06,4.67596e-06,0
-3.13225e-05,2.46304e-05,-8.71096e-06,3.06046e-05,1.32445e-05,-2.0972e-05,8.70669e-06,6.33327e-06,0
-3.33771e-05,2.41593e-05,-1.02977e-05,3.51316e-05,1.75045e-05,-1.96565e-05,9.80203e-06,7.13526e-06,0
-3.42006e-05,2.16215e-05,-1.16384e-05,2.68709e-05,1.87098e-05,-1.71738e-05,1.09558e-05,7.70331e-06,0
-3.38924e-05,1.72794e-05,-1.12599e-05,1.15859e-05,1.81234e-05,-1.37976e-05,1.28303e-05,7.00497e-06,0
-3.3572e-05,1.36092e-05,-1.11735e-05,1.25237e-06,1.55655e-05,-1.22827e-05,1.45468e-05,4.82065e-06,0
-3.37885e-05,1.34871e-05,-1.23261e-05,3.86925e-06,1.18185e-05,-1.33177e-05,1.3971e-05,2.85225e-06,0
-3.39693e-05,1.51103e-05,-1.27332e-05,1.2845e-05,1.04091e-05,-1.41448e-05,1.20135e-05,1.36572e-06,0
-3.44743e-05,1.52809e-05,-1.21113e-05,1.57001e-05,1.09807e-05,-1.30659e-05,1.02315e-05,1.82095e-06,0
-3.48667e-05,1.44134e-05,-1.2083e-05,9.46835e-06,1.3516e-05,-1.04285e-05,8.43744e-06,4.29623e-06,0
-3.3687e-05,1.43176e-05,-1.10554e-05,-1.28118e-06,1.80473e-05,-6.88512e-06,7.62403e-06,4.73086e-06,0
-3.09592e-05,1.46223e-05,-8.93852e-06,-1.22622e-05,2.1526e-05,-4.08779e-06,8.40367e-06,3.12746e-06,0
-3.00695e-05,1.57738e-05,-8.85173e-06,-2.19388e-05,2.27963e-05,-1.74666e-06,1.03193e-05,2.93025e-06,0
-3.1286e-05,1.88228e-05,-1.0171e-05,-2.90149e-05,2.08051e-05,3.21372e-07,1.07809e-05,3.50857e-06,0
-3.1996e-05,2.28407e-05,-1.0981e-05,-3.03602e-05,1.74117e-05,1.17543e-06,9.88456e-06,2.48185e-06,0
-3.20863e-05,2.45996e-05,-8.18989e-06,-2.82611e-05,1.3708e-05,2.16556e-06,8.92558e-06,6.02839e-07,0
-3.19157e-05,2.28069e-05,-4.4356e-06,-2.48256e-05,9.15998e-06,3.42632e-06,8.3715e-06,-1.3294e-06,0
-3.22394e-05,1.92396e-05,-3.90741e-06,-1.8104e-05,8.47605e-06,3.50105e-06,8.70214e-06,-2.2485e-06,0
-3.33366e-05,1.3639e-05,-6.32113e-06,-1.15417e-05,1.10056e-05,3.3132e-06,8.01324e-06,-3.07153e-07,0
-3.38143e-05,5.00218e-06,-8.48134e-06,-7.68501e-06,1.19517e-05,3.15945e-06,8.43001e-06,2.16004e-06,0
-3.2868e-05,-3.62377e-06,-8.32763e-06,-6.4447e-06,1.01169e-05,3.40632e-06,9.90937e-06,3.49543e-06,0
-3.2838e-05,-7.6983e-06,-7.8851e-06,-7.45661e-06,8.96179e-06,3.15833e-06,9.85423e-06,4.28723e-06,0
-3.39442e-05,-4.97919e-06,-7.48587e-06,-1.05871e-05,8.76835e-06,1.43063e-06,6.95267e-06,4.79948e-06,0
-3.42243e-05,4.11588e-06,-7.08636e-06,-1.31929e-05,7.80763e-06,-8.24849e-07,4.33756e-06,5.49464e-06,0
-3.3427e-05,1.7589e-05,-6.64949e-06,-1.44674e-05,7.32312e-06,-1.71462e-06,5.27624e-06,5.86815e-06,0
-3.18017e-05,3.23584e-05,-7.8354e-06,-1.50796e-05,7.58824e-06,-1.40024e-06,8.92553e-06,5.80879e-06,0
-3.04452e-05,4.76133e-05,-1.01475e-05,-1.41132e-05,8.90756e-06,-2.15456e-06,1.27074e-05,5.48214e-06,0
-3.01086e-05,6.61799e-05,-1.25493e-05,-1.15116e-05,1.12361e-05,-3.79439e-06,1.52987e-05,5.35421e-06,0
-2.99064e-05,8.32327e-05,-1.46805e-05,-7.30288e-06,1.31524e-05,-5.35966e-06,1.75103e-05,5.14743e-06,0
-2.91849e-05,8.577e-05,-1.83951e-05,-3.54735e-06,1.36361e-05,-6.3762e-06,1.92798e-05,4.14878e-06,0
-2.80994e-05,6.73765e-05,-2.32593e-05,-9.36846e-07,1.38718e-05,-6.94777e-06,2.04609e-05,2.89881e-06,0
-2.69005e-05,3.36681e-05,-2.5379e-05,8.17246e-07,1.40255e-05,-7.25376e-06,2.03524e-05,2.09765e-06,0
-2.74664e-05,-4.62247e-06,-2.32637e-05,1.65514e-06,1.39682e-05,-8.37238e-06,1.98013e-05,1.55129e-06,0
-2.94114e-05,-3.47678e-05,-1.96306e-05,3.9383e-07,1.39721e-05,-1.02359e-05,1.92178e-05,1.36467e-06,0
-3.00648e-05,-4.85052e-05,-1.74954e-05,-1.32589e-06,1.43187e-05,-1.14648e-05,1.9187e-05,1.98468e-06,0
-2.99521e-05,-4.60815e-05,-1.62826e-05,-1.87955e-06,1.49536e-05,-1.10815e-05,1.90991e-05,3.32464e-06,0
-2.95981e-05,-3.56851e-05,-1.59495e-05,-2.9342e-06,1.7276e-05,-1.05705e-05,1.93782e-05,4.38211e-06,0
-2.92431e-05,-2.65415e-05,-1.56652e-05,-4.96327e-06,2.06514e-05,-1.06249e-05,2.0768e-05,4.1147e-06,0
-2.83853e-05,-2.0542e-05,-1.32105e-05,-7.72317e-06,2.19798e-05,-1.09267e-05,2.14449e-05,1.93265e-06,0
-2.59696e-05,-1.29832e-05,-1.01607e-05,-1.39666e-05,2.12527e-05,-1.01585e-05,1.9138e-05,-6.11718e-07,0
-2.4763e-05,-2.03877e-06,-9.58484e-06,-2.31039e-05,2.09262e-05,-8.46797e-06,1.54926e-05,-2.65885e-06,0
-2.60885e-05,5.65568e-06,-9.82015e-06,-2.93327e-05,1.94475e-05,-7.53972e-06,1.45664e-05,-2.35646e-06,0
-2.76486e-05,9.69618e-06,-9.8265e-06,-2.82073e-05,1.5492e-05,-8.0596e-06,1.54191e-05,-8.83072e-07,0
-2.68321e-05,1.48403e-05,-9.55858e-06,-2.2247e-05,1.20658e-05,-8.70309e-06,1.47151e-05,-8.87535e-07,0
-2.61346e-05,1.88159e-05,-8.8874e-06,-1.80987e-05,1.04439e-05,-8.20223e-06,1.20808e-05,-1.03663e-06,0
-2.87484e-05,1.95284e-05,-6.56022e-06,-1.68451e-05,1.04661e-05,-8.28196e-06,1.07324e-05,-1.78938e-06,0
-3.08299e-05,1.79177e-05,-4.04716e-06,-1.5656e-05,9.64556e-06,-8.18917e-06,1.06052e-05,-3.21528e-06,0
-3.06919e-05,1.68097e-05,-3.62859e-06,-1.15338e-05,7.5109e-06,-8.242e-06,8.82545e-06,-5.38516e-06,0
-3.04462e-05,1.7028e-05,-5.35234e-06,-5.51208e-06,6.86721e-06,-7.4524e-06,5.35801e-06,-5.89276e-06,0
-3.06674e-05,1.72921e-05,-6.65441e-06,-3.19106e-07,8.09923e-06,-6.89802e-06,4.42031e-06,-4.08146e-06,0
-3.01897e-05,1.76389e-05,-5.61446e-06,2.75468e-06,1.0219e-05,-7.38154e-06,7.03659e-06,-3.26053e-06,0
-2.96873e-05,1.76389e-05,-3.89695e-06,3.88297e-06,1.2018e-05,-7.25809e-06,1.02732e-05,-4.11432e-06,0
-2.94267e-05,1.64518e-05,-3.29329e-06,3.62232e-06,1.31076e-05,-6.71045e-06,1.31694e-05,-3.71502e-06,0
-2.84513e-05,1.55047e-05,-3.50752e-06,3.78298e-06,1.63233e-05,-4.8982e-06,1.28744e-05,-1.30743e-06,0
-2.75973e-05,1.62787e-05,-3.04161e-06,5.6078e-06,2.29516e-05,-2.1395e-06,5.64703e-06,2.95234e-07,0
-2.79455e-05,1.75975e-05,-2.99482e-06,7.4742e-06,2.77733e-05,-2.85406e-07,-6.42476e-06,-7.81829e-07,0
-2.92166e-05,1.89771e-05,-3.16195e-06,5.56521e-06,2.54848e-05,-7.78138e-07,-1.53564e-05,-2.82287e-06,0
-2.95606e-05,2.0904e-05,-4.01942e-06,-9.95576e-07,1.91667e-05,-2.12693e-06,-1.57059e-05,-2.1216e-06,0
-2.92345e-05,2.22462e-05,-6.78725e-06,-7.33784e-06,1.53672e-05,-2.58059e-06,-7.47638e-06,6.12069e-07,0
-2.8899e-05,2.12935e-05,-9.50528e-06,-5.81045e-06,1.65925e-05,-1.9521e-06,7.02842e-06,2.51227e-06,0
-2.77613e-05,2.11238e-05,-8.51117e-06,7.03713e-06,1.96847e-05,-1.17888e-06,2.3816e-05,3.00723e-06,0
-2.64839e-05,2.35923e-05,-6.05563e-06,2.15857e-05,2.06421e-05,-6.01565e-07,3.87872e-05,2.46506e-06,0
-2.75102e-05,2.65413e-05,-5.86582e-06,2.64257e-05,1.79408e-05,1.37068e-07,5.01022e-05,1.99635e-06,0
-2.94822e-05,2.73295e-05,-7.90175e-06,2.08828e-05,1.19444e-05,-1.06289e-07,5.6553e-05,3.67284e-06,0
-2.88892e-05,2.71525e-05,-1.01683e-05,1.25631e-05,7.52177e-06,-2.12641e-06,5.66348e-05,5.63009e-06,0
-2.69205e-05,2.65211e-05,-1.0678e-05,6.44246e-06,7.19921e-06,-3.47524e-06,5.0968e-05,5.54422e-06,0
-2.76895e-05,2.51788e-05,-1.15339e-05,2.15471e-06,8.42414e-06,-3.55914e-06,4.2423e-05,4.49161e-06,0
-3.09022e-05,2.28456e-05,-1.2605e-05,-8.6598e-06,9.35354e-06,-3.77678e-06,3.30312e-05,5.49167e-06,0
-3.23982e-05,2.11245e-05,-1.07365e-05,-2.77994e-05,9.43728e-06,-5.23713e-06,3.00875e-05,8.28506e-06,0
-3.1592e-05,2.44032e-05,-6.63332e-06,-4.34048e-05,9.49574e-06,-6.48569e-06,3.66621e-05,9.44869e-06,0
-3.05668e-05,2.90548e-05,-3.03297e-06,-5.03875e-05,1.03409e-05,-6.63896e-06,4.35728e-05,9.09854e-06,0
-3.05755e-05,3.23897e-05,-1.48757e-06,-5.35541e-05,1.18164e-05,-6.64207e-06,4.34453e-05,8.11398e-06,0
-3.12238e-05,3.40726e-05,-1.93001e-06,-5.98752e-05,1.20234e-05,-7.60577e-06,3.5574e-05,7.62671e-06,0
-3.1293e-05,3.54847e-05,-2.65648e-06,-6.21927e-05,1.02429e-05,-9.15736e-06,2.53086e-05,9.04911e-06,0
-2.94751e-05,3.78337e-05,-2.1557e-06,-4.64636e-05,9.29767e-06,-9.44184e-06,1.64606e-05,1.08758e-05,0
-2.68646e-05,3.96961e-05,-5.39611e-07,-9.21447e-06,1.08056e-05,-9.42737e-06,9.35109e-06,1.15935e-05,0
-2.65643e-05,3.95032e-05,1.38184e-06,3.06045e-05,1.29313e-05,-1.0091e-05,1.71073e-07,1.19708e-05,0
-2.76672e-05,3.62688e-05,2.23435e-06,4.99227e-05,1.34101e-05,-1.18661e-05,-1.27346e-05,1.1197e-05,0
-2.90831e-05,3.21741e-05,3.45271e-07,4.56047e-05,1.3582e-05,-1.2161e-05,-2.43873e-05,9.58385e-06,0
-3.11396e-05,2.79833e-05,-2.94487e-06,2.94993e-05,1.30343e-05,-1.13673e-05,-2.97663e-05,7.49637e-06,0
-3.32902e-05,2.32448e-05,-5.14384e-06,1.54417e-05,9.63605e-06,-1.13466e-05,-2.9008e-05,5.98764e-06,0
-3.52976e-05,1.81056e-05,-5.54257e-06,7.95677e-06,5.63613e-06,-1.25436e-05,-2.57429e-05,6.05722e-06,0
-3.55299e-05,1.32614e-05,-5.77427e-06,4.70504e-06,4.44799e-06,-1.3712e-05,-2.27602e-05,6.37985e-06,0
-3.29723e-05,1.1013e-05,-5.86214e-06,1.10302e-06,5.05438e-06,-1.34699e-05,-2.21322e-05,5.70895e-06,0
-2.97524e-05,1.35259e-05,-5.21056e-06,-1.45929e-06,4.76253e-06,-1.19675e-05,-2.35056e-05,3.24882e-06,0
-2.82011e-05,1.89277e-05,-5.50312e-06,3.04063e-06,5.13235e-06,-9.85038e-06,-2.46015e-05,-6.33008e-07,0
-2.84796e-05,2.25225e-05,-7.092e-06,1.54886e-05,8.06208e-06,-8.35241e-06,-2.22225e-05,-3.97441e-06,0
-2.95233e-05,2.20194e-05,-8.48769e-06,2.38996e-05,1.22942e-05,-7.10161e-06,-1.55241e-05,-5.21016e-06,0
-3.09951e-05,1.97522e-05,-9.44852e-06,2.0546e-05,1.58047e-05,-5.69642e-06,-6.09525e-06,-5.55796e-06,0
-3.28948e-05,1.86382e-05,-9.56423e-06,1.24329e-05,1.64509e-05,-4.48087e-06,3.40625e-06,-5.80299e-06,0
-3.28993e-05,1.93298e-05,-8.71765e-06,1.18581e-05,1.50886e-05,-5.38933e-06,1.02116e-05,-7.47046e-06,0
-3.18276e-05,1.83869e-05,-7.32882e-06,1.69385e-05,1.7663e-05,-6.11958e-06,1.3916e-05,-9.9047e-06,0
-3.22606e-05,1.58676e-05,-4.7248e-06,1.67355e-05,2.49767e-05,-4.32615e-06,1.64635e-05,-1.17095e-05,0
-3.25015e-05,1.33247e-05,-3.33067e-06,1.13126e-05,3.14532e-05,-2.59705e-06,1.73418e-05,-1.32728e-05,0
-3.06725e-05,1.05551e-05,-5.70204e-06,5.06021e-06,3.21118e-05,-1.90957e-06,1.56026e-05,-1.36885e-05,0
-2.86957e-05,1.06764e-05,-1.1354e-05,-4.31953e-06,2.57538e-05,-2.18806e-06,7.38127e-06,-1.32612e-05,0
-2.88522e-05,1.10825e-05,-1.63023e-05,-2.30227e-05,1.7313e-05,-2.84159e-06,-7.22718e-06,-1.40264e-05,0
-2.98773e-05,9.07134e-06,-1.78607e-05,-4.0142e-05,1.35245e-05,-2.34171e-06,-1.74899e-05,-1.48765e-05,0
-2.96065e-05,1.16667e-05,-1.70001e-05,-4.11219e-05,1.42722e-05,-1.89291e-06,-1.54381e-05,-1.46799e-05,0
-2.92832e-05,2.11956e-05,-1.47225e-05,-2.74528e-05,1.62326e-05,-3.19562e-06,-2.3274e-06,-1.3033e-05,0
-2.98712e-05,2.8883e-05,-1.18758e-05,-1.16681e-05,1.75244e-05,-6.89308e-06,1.4993e-05,-1.07806e-05,0
-3.02408e-05,3.06862e-05,-9.27697e-06,-4.47964e-06,1.69544e-05,-1.06294e-05,3.02035e-05,-9.02859e-06,0
-3.05981e-05,2.82737e-05,-7.07807e-06,-3.95993e-06,1.58297e-05,-1.13077e-05,4.08762e-05,-6.94426e-06,0
-3.02594e-05,2.3262e-05,-6.97069e-06,-5.6828e-06,1.44066e-05,-1.02935e-05,4.88806e-05,-5.56786e-06,0
-3.02759e-05,1.58041e-05,-9.71751e-06,-5.46614e-06,1.41695e-05,-1.04331e-05,5.37751e-05,-4.65561e-06,0
-3.11674e-05,6.97322e-06,-1.26412e-05,-2.73384e-06,1.45663e-05,-1.08472e-05,5.39992e-05,-4.36994e-06,0
-3.22144e-05,-1.12517e-06,-1.38013e-05,-8.31252e-07,1.3788e-05,-1.13308e-05,5.0484e-05,-3.83321e-06,0
-3.37224e-05,-9.93795e-06,-1.28023e-05,2.65479e-07,1.22747e-05,-1.29524e-05,4.6426e-05,-2.19143e-06,0
-3.4284e-05,-1.9307e-05,-1.14505e-05,4.98925e-07,1.05482e-05,-1.34691e-05,4.34656e-05,-8.66391e-08,0
-3.31546e-05,-2.57611e-05,-1.10302e-05,-1.8577e-06,9.34482e-06,-1.2112e-05,4.08523e-05,1.7075e-06,0
-3.18865e-05,-2.66284e-05,-1.12314e-05,-7.31056e-06,8.13057e-06,-1.14647e-05,3.80733e-05,2.24799e-06,0
-3.31105e-05,-2.29992e-05,-1.15648e-05,-1.42706e-05,6.86481e-06,-1.26024e-05,3.49397e-05,1.0551e-06,0
-3.585e-05,-1.7219e-05,-1.2084e-05,-2.07373e-05,5.55198e-06,-1.33759e-05,3.18365e-05,-7.94012e-08,0
-3.64202e-05,-1.00459e-05,-1.16035e-05,-2.30815e-05,4.5555e-06,-1.25194e-05,2.78451e-05,7.84084e-07,0
-3.4786e-05,-2.50552e-06,-1.07338e-05,-1.90991e-05,4.46984e-06,-1.11257e-05,2.26505e-05,2.41011e-06,0
-3.32452e-05,2.41334e-06,-1.21797e-05,-1.3128e-05,5.14767e-06,-1.15478e-05,1.80855e-05,4.27759e-06,0
-3.27828e-05,4.58217e-06,-1.28968e-05,-1.23588e-05,5.61327e-06,-1.31719e-05,1.50375e-05,5.36636e-06,0
-3.3248e-05,6.56898e-06,-1.01586e-05,-1.87952e-05,4.54113e-06,-1.48373e-05,1.21523e-05,4.69684e-06,0
-3.36345e-05,8.14022e-06,-7.11269e-06,-2.89472e-05,3.0973e-06,-1.58707e-05,8.74368e-06,4.72518e-06,0
-3.28903e-05,8.27434e-06,-5.67862e-06,-3.84758e-05,4.83707e-06,-1.62128e-05,6.55195e-06,6.45647e-06,0
-3.0674e-05,7.88592e-06,-4.53453e-06,-4.64576e-05,9.66265e-06,-1.69278e-05,6.53651e-06,7.6623e-06,0
-2.79545e-05,7.75453e-06,-2.72689e-06,-4.59672e-05,1.42537e-05,-1.6705e-05,7.65214e-06,6.5383e-06,0
-2.69619e-05,5.72043e-06,-2.40212e-07,-2.53763e-05,1.8048e-05,-1.64102e-05,7.94151e-06,5.2913e-06,0
-2.83588e-05,2.85658e-06,1.40693e-06,4.44585e-06,2.22385e-05,-1.67431e-05,6.92697e-06,4.95334e-06,0
-2.95883e-05,2.43725e-06,1.25843e-06,2.25543e-05,2.83925e-05,-1.65484e-05,4.70839e-06,4.43258e-06,0
-2.81806e-05,3.74963e-06,2.30374e-06,2.83722e-05,3.60641e-05,-1.44301e-05,3.82319e-07,4.38581e-06,0
-2.65457e-05,5.64247e-06,3.38618e-06,2.72654e-05,3.84029e-05,-1.24514e-05,-3.43285e-06,3.21557e-06,0
-2.61931e-05,1.22545e-05,1.22273e-06,2.0784e-05,3.28312e-05,-1.44619e-05,-4.05503e-06,3.00703e-06,0
-2.47408e-05,2.29135e-05,-1.49824e-06,1.04603e-05,2.367e-05,-1.79228e-05,-5.05596e-07,3.67852e-06,0
-2.31497e-05,2.86277e-05,-2.6785e-06,6.96614e-07,1.67391e-05,-2.0263e-05,2.87903e-06,3.43953e-06,0
-2.29373e-05,2.78629e-05,-3.02935e-06,-2.69939e-06,1.5146e-05,-2.10192e-05,3.48211e-06,2.10155e-06,0
-2.49805e-05,2.29868e-05,-2.86174e-06,-2.88922e-07,1.63002e-05,-2.09504e-05,2.33146e-06,1.08569e-06,0
-2.8554e-05,1.6153e-05,-2.48936e-06,3.43427e-06,1.75853e-05,-2.06816e-05,1.04554e-06,1.89972e-06,0
-3.08154e-05,1.00371e-05,-4.20766e-06,6.79065e-06,1.64694e-05,-1.99789e-05,8.73449e-07,2.77291e-06,0
-3.09828e-05,6.17708e-06,-8.96181e-06,9.52365e-06,1.3542e-05,-1.99416e-05,1.16773e-06,3.79884e-06,0
-3.02444e-05,2.73509e-06,-1.47921e-05,9.41584e-06,1.19373e-05,-1.97604e-05,1.68793e-06,4.74249e-06,0
-3.04815e-05,-1.61662e-06,-1.85442e-05,6.06833e-06,1.27365e-05,-1.78034e-05,1.85445e-06,4.38075e-06,0
-3.10009e-05,-3.81523e-06,-1.86412e-05,1.49186e-06,1.24902e-05,-1.51919e-05,2.22349e-06,2.36179e-06,0
-2.98215e-05,-1.8124e-06,-1.61643e-05,-1.36316e-06,1.01471e-05,-1.37497e-05,2.65709e-06,1.20248e-06,0
-2.71707e-05,2.09241e-06,-1.34233e-05,-9.04911e-07,9.42433e-06,-1.27209e-05,3.24679e-06,1.10853e-06,0
-2.58601e-05,3.70916e-06,-1.09539e-05,2.0478e-06,1.18123e-05,-1.17319e-05,3.86061e-06,7.91328e-07,0
-2.65647e-05,1.31574e-06,-7.30547e-06,5.00656e-06,1.44344e-05,-1.08536e-05,5.86379e-06,-1.79971e-07,0
-2.75877e-05,-4.52628e-06,-2.74846e-06,5.17442e-06,1.46082e-05,-9.63826e-06,7.9478e-06,-1.54197e-06,0
-2.74839e-05,-7.65763e-06,2.96278e-06,2.05453e-06,1.28466e-05,-9.04957e-06,8.91187e-06,-3.58547e-06,0
-2.66833e-05,-1.04494e-06,1.44506e-05,-1.85455e-06,1.1e-05,-1.05132e-05,9.94187e-06,-5.15913e-06,0
-2.64607e-05,1.57643e-05,3.33236e-05,-5.08036e-06,1.00736e-05,-1.22511e-05,1.02729e-05,-4.2205e-06,0
-2.72761e-05,3.41695e-05,5.41088e-05,-6.9013e-06,1.04056e-05,-1.23528e-05,9.75785e-06,-3.61627e-06,0
-2.86181e-05,4.37176e-05,6.93767e-05,-7.60663e-06,1.10071e-05,-1.15781e-05,1.17914e-05,-4.49387e-06,0
-3.01381e-05,3.9954e-05,7.23357e-05,-6.97502e-06,1.09728e-05,-9.7826e-06,1.59085e-05,-5.11554e-06,0
-3.22847e-05,2.50603e-05,5.60433e-05,-7.45359e-06,1.10255e-05,-8.46831e-06,1.63162e-05,-5.53081e-06,0
-3.30893e-05,4.18903e-06,2.16226e-05,-9.30624e-06,9.5655e-06,-8.75688e-06,1.51616e-05,-3.64219e-06,0
-3.39818e-05,-1.69824e-05,-1.86287e-05,-1.17005e-05,8.10719e-06,-8.9675e-06,1.75886e-05,1.18542e-06,0
-3.41381e-05,-3.0249e-05,-5.48272e-05,-1.51367e-05,9.03085e-06,-8.95969e-06,1.99405e-05,5.02094e-06,0
-3.15155e-05,-3.20015e-05,-7.9336e-05,-1.55199e-05,1.24176e-05,-9.11728e-06,2.01918e-05,4.9941e-06,0
-2.84943e-05,-2.51585e-05,-8.81756e-05,-1.23832e-05,1.51947e-05,-9.45271e-06,2.08853e-05,2.88358e-06,0
-2.69898e-05,-1.36106e-05,-8.09673e-05,-9.18714e-06,1.5054e-05,-1.1022e-05,2.24084e-05,1.42826e-06,0
-2.8953e-05,-3.65173e-06,-6.66227e-05,-8.37837e-06,1.35855e-05,-1.26906e-05,2.3912e-05,1.25554e-06,0
-3.19413e-05,1.39412e-06,-5.60666e-05,-8.78503e-06,1.15124e-05,-1.38159e-05,2.69009e-05,2.75343e-06,0
-3.30099e-05,4.98408e-06,-4.90447e-05,-8.53598e-06,9.32108e-06,-1.44758e-05,3.42694e-05,4.50178e-06,0
-3.16495e-05,9.36217e-06,-4.09198e-05,-9.18742e-06,8.1344e-06,-1.39296e-05,4.26415e-05,5.05336e-06,0
-2.9621e-05,1.28522e-05,-3.07009e-05,-1.16411e-05,8.35496e-06,-1.22049e-05,4.72958e-05,4.77801e-06,0
-2.82727e-05,1.42008e-05,-2.20375e-05,-1.41529e-05,1.00874e-05,-9.90663e-06,4.71831e-05,5.48924e-06,0
-2.83038e-05,1.53933e-05,-1.66946e-05,-1.53094e-05,1.20593e-05,-7.41557e-06,4.23793e-05,7.89817e-06,0
-2.95193e-05,1.77845e-05,-1.426e-05,-1.4266e-05,1.14888e-05,-5.09241e-06,3.42271e-05,1.06764e-05,0
-3.02167e-05,2.03319e-05,-1.2291e-05,-1.16653e-05,9.01908e-06,-4.9933e-06,2.34837e-05,1.11234e-05,0
-3.001e-05,2.08193e-05,-1.02699e-05,-8.07758e-06,7.75453e-06,-6.97137e-06,1.09882e-05,9.1376e-06,0
-2.93065e-05,1.87311e-05,-8.47051e-06,-3.47118e-06,8.00245e-06,-8.29497e-06,-1.12489e-06,7.59617e-06,0
-2.81369e-05,1.55777e-05,-7.6573e-06,2.42048e-06,7.18992e-06,-7.96666e-06,-1.00773e-05,6.91882e-06,0
-2.69812e-05,1.35649e-05,-6.90118e-06,7.23452e-06,5.58819e-06,-7.49916e-06,-1.51341e-05,5.76063e-06,0
-2.7325e-05,1.32005e-05,-5.69516e-06,8.00767e-06,4.66198e-06,-7.11701e-06,-1.68762e-05,5.00653e-06,0
-2.74341e-05,1.28085e-05,-4.88202e-06,5.54405e-06,4.38257e-06,-6.42522e-06,-1.42044e-05,5.62887e-06,0
-2.67656e-05,1.18515e-05,-5.15422e-06,2.19095e-06,4.5116e-06,-5.67553e-06,-8.24873e-06,6.63686e-06,0
-2.67012e-05,1.06188e-05,-5.92855e-06,-8.7756e-08,5.48909e-06,-6.9645e-06,-2.37436e-06,6.61174e-06,0
-2.75024e-05,9.83695e-06,-4.74244e-06,-1.7815e-06,5.28589e-06,-9.30347e-06,-3.24013e-07,4.93647e-06,0
-2.82942e-05,8.76395e-06,-2.43068e-06,-3.98016e-06,3.20215e-06,-7.69697e-06,-4.97326e-07,2.57929e-06,0
-2.80128e-05,9.3545e-06,-1.43458e-06,-8.4753e-06,5.49208e-07,-5.19258e-06,4.51499e-07,9.32471e-07,0
-2.73514e-05,1.1747e-05,-6.48445e-07,-1.53604e-05,-1.35441e-07,-4.94311e-06,1.89622e-06,1.0285e-06,0
-2.76319e-05,1.43872e-05,1.51349e-06,-1.76602e-05,4.0299e-07,-3.93948e-06,3.07908e-06,1.91056e-06,0
-2.76056e-05,1.73846e-05,3.53936e-06,-1.56246e-05,1.08502e-06,-3.69611e-06,5.17556e-06,2.64697e-06,0
-2.74777e-05,1.74891e-05,6.15523e-06,-1.46502e-05,1.623e-06,-4.90888e-06,8.09523e-06,3.38924e-06,0
-2.83508e-05,1.73004e-05,8.16751e-06,-1.42736e-05,-4.2463e-07,-5.57512e-06,1.08475e-05,3.20569e-06,0
-2.94029e-05,1.80919e-05,9.62801e-06,-1.38664e-05,2.08598e-08,-5.61696e-06,1.3495e-05,3.06833e-06,0
-2.93344e-05,1.97854e-05,1.0566e-05,-1.34269e-05,2.34121e-06,-5.51132e-06,1.52645e-05,2.84607e-06,0
-2.93531e-05,2.23456e-05,8.76422e-06,-1.40449e-05,4.66921e-06,-5.56252e-06,1.44422e-05,3.48422e-06,0
-3.10756e-05,2.23096e-05,6.00833e-06,-1.32729e-05,8.35499e-06,-5.33726e-06,1.33159e-05,5.71068e-06,0
-3.27626e-05,1.81839e-05,3.88763e-06,-8.10688e-06,1.55801e-05,-4.51832e-06,1.45352e-05,7.02102e-06,0
-3.34254e-05,1.25225e-05,1.94932e-06,-7.67283e-07,2.46972e-05,-3.17645e-06,1.64179e-05,7.92928e-06,0
-3.30797e-05,1.07475e-05,-8.4497e-07,3.925e-06,2.98452e-05,-2.37609e-06,1.70131e-05,8.65503e-06,0
-3.18237e-05,1.20561e-05,-3.83526e-06,4.7701e-06,2.87879e-05,-2.5289e-06,1.57412e-05,9.81075e-06,0
-3.0367e-05,1.39889e-05,-5.71294e-06,4.2855e-06,2.4172e-05,-3.47593e-06,1.47809e-05,1.07551e-05,0
-3.09524e-05,1.57913e-05,-7.13305e-06,4.09245e-06,2.1321e-05,-4.66061e-06,1.52545e-05,1.04031e-05,0
-3.31429e-05,1.75783e-05,-8.18092e-06,2.96651e-06,2.1104e-05,-5.50498e-06,1.63391e-05,8.81319e-06,0
-3.4497e-05,1.81929e-05,-7.85469e-06,5.00013e-07,2.12012e-05,-5.97449e-06,1.75151e-05,7.11235e-06,0
-3.4173e-05,1.65739e-05,-6.66419e-06,-3.0017e-06,1.91186e-05,-7.68253e-06,1.89972e-05,5.15629e-06,0
-3.35655e-05,1.42494e-05,-5.98386e-06,-7.77594e-06,1.68636e-05,-1.05669e-05,2.05122e-05,3.18086e-06,0
-3.41134e-05,1.43104e-05,-6.58432e-06,-1.1041e-05,1.68501e-05,-1.23473e-05,2.21713e-05,2.89893e-06,0
-3.50219e-05,1.74046e-05,-8.43004e-06,-1.02974e-05,1.83534e-05,-1.27467e-05,2.34637e-05,3.23232e-06,0
-3.42626e-05,1.94701e-05,-1.03462e-05,-6.73174e-06,1.94782e-05,-1.20713e-05,2.41886e-05,3.45553e-06,0
-3.24346e-05,1.8574e-05,-1.18165e-05,-4.68615e-06,1.82873e-05,-1.1403e-05,2.37963e-05,3.12041e-06,0
-3.19158e-05,1.68455e-05,-1.41857e-05,-5.99648e-06,1.48449e-05,-1.24273e-05,2.23464e-05,2.29571e-06,0
-3.37556e-05,1.4862e-05,-1.65653e-05,-8.83305e-06,1.23542e-05,-1.42189e-05,1.99073e-05,2.25224e-06,0
-3.65592e-05,1.42409e-05,-1.75553e-05,-8.80415e-06,9.80342e-06,-1.37141e-05,1.45161e-05,2.579e-06,0
-3.78784e-05,1.81451e-05,-1.84979e-05,-3.55989e-06,7.5836e-06,-1.11515e-05,9.19489e-06,2.33209e-06,0
-3.74516e-05,2.41926e-05,-2.01878e-05,3.2507e-06,7.37349e-06,-1.09743e-05,9.43956e-06,2.23119e-06,0
-3.56185e-05,2.72153e-05,-2.21602e-05,8.48979e-06,8.43223e-06,-1.32247e-05,1.16313e-05,8.85348e-07,0
-3.25447e-05,2.52393e-05,-2.41925e-05,1.01972e-05,9.33803e-06,-1.433e-05,1.20776e-05,-1.38264e-06,0
-2.97072e-05,1.73613e-05,-2.62161e-05,8.99268e-06,1.03205e-05,-1.45448e-05,1.32652e-05,-1.26198e-06,0
-2.9945e-05,6.49024e-06,-2.72207e-05,7.79507e-06,1.04274e-05,-1.44013e-05,1.32245e-05,2.39842e-07,0
-3.12635e-05,-4.54468e-07,-2.62835e-05,6.26219e-06,9.91971e-06,-1.42225e-05,1.13151e-05,-1.61466e-07,0
-3.14294e-05,-1.19756e-06,-2.28348e-05,4.59674e-06,1.20022e-05,-1.43007e-05,9.99185e-06,-2.59511e-07,0
-3.09184e-05,2.46874e-06,-1.81654e-05,5.07629e-06,1.70504e-05,-1.42431e-05,8.97084e-06,3.72205e-07,0
-2.96763e-05,5.36271e-06,-1.3642e-05,6.14133e-06,2.2322e-05,-1.39189e-05,7.87016e-06,7.3203e-07,0
-2.88513e-05,6.90581e-06,-1.07003e-05,4.96672e-06,2.3724e-05,-1.21844e-05,7.05299e-06,1.15013e-06,0
-2.91089e-05,6.78239e-06,-9.54773e-06,5.80053e-07,2.16317e-05,-1.00573e-05,6.43291e-06,2.41888e-07,0
-2.91719e-05,3.38435e-06,-7.63525e-06,-6.53925e-06,1.89173e-05,-8.63808e-06,7.07806e-06,-1.4954e-06,0
-2.88364e-05,-1.07208e-06,-5.17839e-06,-1.28065e-05,1.81469e-05,-7.52178e-06,8.30794e-06,-3.09588e-06,0
-2.95642e-05,-2.4431e-06,-3.57033e-06,-1.56596e-05,1.79887e-05,-7.33303e-06,8.55463e-06,-4.55936e-06,0
-3.01678e-05,8.89267e-07,-4.01945e-06,-1.55947e-05,1.73134e-05,-8.35614e-06,8.03274e-06,-5.9856e-06,0
-2.98639e-05,5.53679e-06,-5.7575e-06,-1.2572e-05,1.67773e-05,-9.97123e-06,8.30472e-06,-5.59031e-06,0
-3.01906e-05,8.88848e-06,-6.90003e-06,-6.40049e-06,1.72513e-05,-1.10815e-05,9.59906e-06,-3.18297e-06,0
-3.15753e-05,1.04455e-05,-6.18743e-06,1.0238e-06,1.72484e-05,-1.16558e-05,1.08828e-05,-1.52507e-06,0
-3.23923e-05,1.15513e-05,-4.06924e-06,6.82331e-06,1.57396e-05,-1.15833e-05,1.21908e-05,-2.18521e-06,0
-3.22539e-05,1.23447e-05,-2.3049e-06,7.95694e-06,1.32857e-05,-1.01311e-05,1.33945e-05,-5.08644e-06,0
-3.14872e-05,1.1642e-05,-2.35167e-06,5.68351e-06,1.13513e-05,-7.63132e-06,1.39904e-05,-8.96839e-06,0
-2.98475e-05,9.32999e-06,-3.86354e-06,3.53839e-06,1.04479e-05,-5.78976e-06,1.28721e-05,-1.07015e-05,0
-2.78862e-05,7.18314e-06,-5.24865e-06,1.07625e-06,9.46423e-06,-6.33699e-06,1.15625e-05,-1.03581e-05,0
-2.66983e-05,6.44529e-06,-5.48072e-06,-1.87641e-06,8.01253e-06,-7.80534e-06,1.21881e-05,-9.72591e-06,0
-2.65751e-05,6.39637e-06,-3.94435e-06,-4.35414e-06,7.60478e-06,-8.78458e-06,1.32785e-05,-8.97593e-06,0
-2.72209e-05,5.3273e-06,-2.45101e-06,-7.35009e-06,9.45234e-06,-9.57632e-06,1.38411e-05,-8.98152e-06,0
-2.80169e-05,5.78009e-06,-2.54204e-06,-8.43157e-06,1.54253e-05,-9.56701e-06,1.29104e-05,-7.35144e-06,0
-2.85705e-05,8.75845e-06,-3.98337e-06,-6.21833e-06,2.45125e-05,-9.42943e-06,1.12805e-05,-3.61407e-06,0
-2.92871e-05,1.20228e-05,-4.94761e-06,-1.11229e-05,2.70458e-05,-9.64138e-06,1.07543e-05,-9.49741e-07,0
-2.89114e-05,1.21955e-05,-4.92158e-06,-2.42224e-05,2.22023e-05,-9.41471e-06,1.19449e-05,9.88076e-07,0
-2.76742e-05,8.68886e-06,-6.24189e-06,-3.09024e-05,1.65448e-05,-8.2166e-06,1.39211e-05,2.24796e-06,0
-2.74161e-05,6.97524e-06,-8.8784e-06,-2.65144e-05,1.4036e-05,-7.59136e-06,1.38144e-05,2.33286e-06,0
-2.81143e-05,9.29667e-06,-1.00612e-05,-1.86502e-05,1.55406e-05,-7.80309e-06,1.32366e-05,1.70503e-06,0
-2.85907e-05,1.31186e-05,-1.01278e-05,-1.31626e-05,1.65726e-05,-7.77704e-06,1.20647e-05,2.10125e-06,0
-2.928e-05,1.67174e-05,-9.11181e-06,-8.18854e-06,1.54054e-05,-6.95525e-06,1.04631e-05,2.40831e-06,0
-2.92147e-05,1.98883e-05,-7.30008e-06,-3.87682e-06,1.28245e-05,-5.30169e-06,9.25172e-06,1.18365e-06,0
-2.86226e-05,2.06349e-05,-6.12113e-06,-1.48651e-06,1.07221e-05,-4.78311e-06,9.38675e-06,-5.19403e-07,0
-2.94116e-05,1.94818e-05,-5.59747e-06,-4.61344e-07,1.16611e-05,-6.02142e-06,1.1097e-05,-2.54333e-06,0
-2.95602e-05,1.84754e-05,-5.5614e-06,-9.8293e-07,1.43024e-05,-8.20647e-06,1.33609e-05,-3.80533e-06,0
-2.87758e-05,1.7869e-05,-5.80324e-06,-2.42122e-06,1.55048e-05,-1.04024e-05,1.50217e-05,-3.64917e-06,0
-2.88853e-05,1.71089e-05,-6.74466e-06,-4.85303e-06,1.38541e-05,-1.20335e-05,1.49657e-05,-1.99929e-06,0
-3.0287e-05,1.67777e-05,-7.93943e-06,-7.88002e-06,1.15128e-05,-1.30376e-05,1.47242e-05,-4.17951e-07,0
-3.09079e-05,1.6795e-05,-8.82778e-06,-9.87242e-06,1.07778e-05,-1.40299e-05,1.55444e-05,3.43564e-07,0
-2.99351e-05,1.60641e-05,-8.55176e-06,-8.71275e-06,1.14315e-05,-1.49821e-05,1.72178e-05,2.3682e-07,0
-2.97064e-05,1.39109e-05,-7.12877e-06,-3.73601e-06,1.15252e-05,-1.50732e-05,1.67523e-05,-1.20429e-06,0
-3.1287e-05,1.14046e-05,-6.33916e-06,3.85013e-06,1.02915e-05,-1.42737e-05,1.49007e-05,-3.41499e-06,0
-3.30225e-05,8.80741e-06,-7.31523e-06,8.96078e-06,9.29802e-06,-1.35632e-05,1.31096e-05,-4.90417e-06,0
-3.23235e-05,5.26084e-06,-7.88578e-06,9.46965e-06,1.0701e-05,-1.3324e-05,9.56851e-06,-4.71575e-06,0
-3.067e-05,4.4257e-06,-6.66304e-06,6.55967e-06,1.22074e-05,-1.35797e-05,2.93398e-06,-3.27631e-06,0
-3.06143e-05,8.44385e-06,-6.99665e-06,-4.25125e-07,1.11171e-05,-1.38183e-05,-3.01957e-06,-1.36082e-06,0
-3.19641e-05,1.37171e-05,-9.51163e-06,-9.98761e-06,8.82502e-06,-1.40107e-05,-4.39839e-06,-4.8389e-08,0
-3.36893e-05,1.59263e-05,-9.53355e-06,-1.56073e-05,7.64289e-06,-1.38309e-05,-6.42975e-07,-1.46921e-06,0
-3.39355e-05,1.53685e-05,-6.16522e-06,-1.63625e-05,8.67315e-06,-1.32627e-05,5.86834e-06,-3.49019e-06,0
-3.38726e-05,1.57426e-05,-1.65099e-06,-2.02039e-05,1.12605e-05,-1.20269e-05,1.17379e-05,-2.73152e-06,0
-3.35451e-05,1.71622e-05,9.23431e-07,-2.71351e-05,1.32894e-05,-1.03444e-05,1.54352e-05,-1.29545e-06,0
-3.26662e-05,1.78484e-05,4.88477e-07,-3.21656e-05,1.28398e-05,-1.12167e-05,1.59237e-05,-1.24979e-06,0
-3.09667e-05,1.72702e-05,-3.45173e-07,-3.34964e-05,1.0627e-05,-1.33588e-05,1.46921e-05,-2.74425e-06,0
-2.85166e-05,1.751e-05,-5.3932e-07,-2.60561e-05,8.85165e-06,-1.38482e-05,1.37894e-05,-4.97084e-06,0
-2.85414e-05,1.77215e-05,-1.36595e-06,-1.03705e-05,8.65779e-06,-1.24737e-05,1.24532e-05,-5.87786e-06,0
-2.99354e-05,1.53742e-05,-2.94114e-06,7.4193e-07,8.22271e-06,-1.18058e-05,1.09405e-05,-4.7467e-06,0
-3.02065e-05,1.43571e-05,-3.16063e-06,4.53332e-06,5.78131e-06,-1.3019e-05,1.04755e-05,-2.70651e-06,0
-3.03855e-05,1.70819e-05,-3.4733e-06,9.64031e-06,3.9076e-06,-1.35335e-05,1.12583e-05,-1.27567e-06,0
-3.1331e-05,2.50832e-05,-5.11195e-06,1.83825e-05,4.40006e-06,-1.26642e-05,1.41909e-05,-7.62429e-07,0
-3.23978e-05,3.29665e-05,-6.49974e-06,2.76877e-05,5.03168e-06,-1.23201e-05,1.79206e-05,-1.41012e-06,0
-3.35132e-05,3.50438e-05,-8.01833e-06,3.04821e-05,5.86309e-06,-1.27808e-05,1.96681e-05,-3.23404e-06,0
-3.35078e-05,3.2795e-05,-1.00912e-05,2.39496e-05,7.77148e-06,-1.22232e-05,1.58197e-05,-4.07277e-06,0
-3.25803e-05,2.83104e-05,-1.15607e-05,1.62466e-05,1.14893e-05,-1.03631e-05,6.08962e-06,-3.93239e-06,0
-3.18358e-05,2.31421e-05,-1.24428e-05,1.47448e-05,1.5931e-05,-7.86472e-06,-3.64204e-06,-3.12904e-06,0
-3.15318e-05,1.87388e-05,-1.22695e-05,1.29476e-05,1.80251e-05,-5.6487e-06,-6.59497e-06,-2.35382e-06,0
-3.11957e-05,1.8658e-05,-1.0458e-05,-2.98174e-06,1.72785e-05,-4.27938e-06,-6.09357e-07,-2.19138e-06,0
-3.10298e-05,2.24558e-05,-7.74851e-06,-3.10482e-05,1.48882e-05,-3.55919e-06,1.08167e-05,-2.02231e-06,0
-3.10746e-05,2.6438e-05,-5.65885e-06,-4.86737e-05,1.25455e-05,-3.25245e-06,2.26715e-05,-1.00289e-06,0
-3.1273e-05,2.85013e-05,-4.77696e-06,-4.53483e-05,1.28248e-05,-3.28786e-06,3.18721e-05,-7.92019e-07,0
-3.21703e-05,2.93368e-05,-4.27344e-06,-3.98156e-05,1.66756e-05,-3.37007e-06,3.96043e-05,-2.33833e-06,0
-3.26532e-05,2.81639e-05,-3.53573e-06,-5.02075e-05,2.0603e-05,-3.97389e-06,4.92034e-05,-3.91019e-06,0
-3.15299e-05,2.23962e-05,-1.91012e-06,-7.02794e-05,2.07538e-05,-4.98488e-06,6.03281e-05,-4.96645e-06,0
-2.94518e-05,1.16012e-05,-1.28347e-06,-8.04533e-05,1.86281e-05,-5.21884e-06,6.87283e-05,-5.21387e-06,0
-2.87725e-05,-4.54037e-06,-3.68005e-06,-7.03303e-05,1.93058e-05,-6.1077e-06,7.04261e-05,-3.50146e-06,0
-2.98e-05,-2.2813e-05,-6.89273e-06,-4.84352e-05,2.10224e-05,-7.24329e-06,6.48976e-05,1.97698e-07,0
-3.09839e-05,-3.13807e-05,-6.43588e-06,-3.06471e-05,1.9318e-05,-7.49763e-06,5.47227e-05,1.05224e-06,0
-3.08332e-05,-2.60588e-05,-2.86051e-06,-2.2607e-05,1.73157e-05,-7.32147e-06,4.19315e-05,-8.35865e-07,0
-2.98343e-05,-1.55827e-05,-2.23603e-06,-1.61649e-05,1.92396e-05,-6.48e-06,2.37322e-05,-1.80338e-06,0
-2.81252e-05,-7.50478e-06,-5.02287e-06,-1.03089e-06,2.09271e-05,-6.19606e-06,-9.50062e-08,-2.35762e-06,0
-2.6649e-05,-1.5204e-06,-5.24734e-06,2.07111e-05,1.71323e-05,-6.60233e-06,-2.25399e-05,-1.50194e-06,0
-2.58423e-05,3.47911e-06,-3.35917e-06,3.79355e-05,1.31928e-05,-7.32703e-06,-3.77101e-05,3.83895e-07,0
-2.55132e-05,8.04884e-06,-3.34829e-06,4.02733e-05,1.43765e-05,-7.39254e-06,-4.36999e-05,9.98668e-07,0
-2.60959e-05,1.16575e-05,-5.06744e-06,3.27203e-05,1.80524e-05,-7.34956e-06,-4.27332e-05,2.49181e-06,0
-2.66604e-05,1.40441e-05,-7.41911e-06,2.7194e-05,2.00339e-05,-8.24986e-06,-3.80864e-05,4.52917e-06,0
-2.786e-05,1.58332e-05,-9.43004e-06,2.72356e-05,2.00799e-05,-6.82223e-06,-3.04924e-05,5.60757e-06,0
-2.8937e-05,1.78824e-05,-1.02929e-05,3.21843e-05,1.96239e-05,-3.93609e-06,-2.04835e-05,4.80587e-06,0
-2.98995e-05,2.08277e-05,-9.42842e-06,3.51925e-05,1.8233e-05,-3.03774e-06,-1.0065e-05,2.72821e-06,0
-3.05696e-05,2.1614e-05,-8.79295e-06,3.01394e-05,1.71057e-05,-4.24181e-06,-2.67525e-06,2.20147e-06,0
-3.04637e-05,2.01339e-05,-9.2198e-06,1.9324e-05,1.73428e-05,-5.70102e-06,1.64344e-06,3.71297e-06,0
-2.98856e-05,1.726e-05,-9.97235e-06,7.81742e-06,1.73601e-05,-5.10465e-06,5.6415e-06,5.93059e-06,0
-2.97505e-05,1.7207e-05,-9.99029e-06,-2.67949e-06,1.56181e-05,-3.43709e-06,9.38426e-06,6.71594e-06,0
-3.04354e-05,2.51839e-05,-8.3032e-06,-1.0064e-05,1.26087e-05,-4.26469e-06,1.28135e-05,6.70372e-06,0
-3.01551e-05,4.05361e-05,-6.27139e-06,-1.11456e-05,1.05364e-05,-8.44397e-06,1.55162e-05,6.84039e-06,0
-2.9437e-05,5.49469e-05,-4.71654e-06,-5.09673e-06,1.12641e-05,-1.20604e-05,1.63621e-05,6.76276e-06,0
-2.95023e-05,6.0222e-05,-4.9246e-06,6.07778e-06,1.4132e-05,-1.26291e-05,1.58799e-05,6.38445e-06,0
-3.06467e-05,5.48913e-05,-8.66666e-06,1.81976e-05,1.73413e-05,-1.08988e-05,1.66941e-05,6.73543e-06,0
-3.28101e-05,4.25982e-05,-1.65033e-05,2.4824e-05,1.80174e-05,-8.60358e-06,1.9276e-05,7.51805e-06,0
-3.45178e-05,2.67339e-05,-2.48436e-05,2.17365e-05,1.6189e-05,-7.87359e-06,2.01893e-05,6.89707e-06,0
-3.35861e-05,9.76265e-06,-2.94902e-05,1.28033e-05,1.64227e-05,-9.18168e-06,1.93222e-05,6.59908e-06,0
-3.16853e-05,-2.85722e-06,-2.95234e-05,5.59965e-06,1.84459e-05,-1.00343e-05,1.9978e-05,7.87672e-06,0
-3.04659e-05,-8.55792e-06,-2.65012e-05,1.8618e-06,1.91794e-05,-8.1816e-06,2.1356e-05,8.19933e-06,0
-3.03899e-05,-1.07099e-05,-2.1879e-05,9.16803e-07,1.81637e-05,-5.34037e-06,2.22143e-05,8.02831e-06,0
-3.15673e-05,-1.07787e-05,-1.70021e-05,1.2294e-06,1.58656e-05,-5.23738e-06,2.2414e-05,9.27402e-06,0
-3.30771e-05,-7.67463e-06,-1.34326e-05,1.67847e-06,1.43087e-05,-8.37373e-06,2.41649e-05,1.08877e-05,0
-3.33634e-05,-1.85123e-06,-1.16367e-05,5.31509e-07,1.4497e-05,-9.67692e-06,2.92907e-05,1.0545e-05,0
-3.33827e-05,4.29884e-06,-1.00682e-05,-4.79858e-07,1.42951e-05,-8.30834e-06,3.29916e-05,9.16473e-06,0
-3.35726e-05,8.52785e-06,-8.83411e-06,2.02631e-06,1.41031e-05,-8.08736e-06,3.15407e-05,8.55719e-06,0
-3.14246e-05,1.12679e-05,-9.70642e-06,3.56375e-06,1.57726e-05,-8.6631e-06,2.43009e-05,8.47254e-06,0
-2.81983e-05,1.1908e-05,-9.9261e-06,2.77551e-06,1.718e-05,-8.93322e-06,1.63917e-05,8.80908e-06,0
-2.64993e-05,1.08277e-05,-1.00857e-05,-1.16117e-06,1.56526e-05,-9.84723e-06,1.21186e-05,9.13404e-06,0
-2.78297e-05,7.70911e-06,-1.17158e-05,-4.94336e-06,1.22666e-05,-1.05018e-05,9.86384e-06,9.12132e-06,0
-3.01524e-05,4.68855e-06,-1.38311e-05,-4.78136e-06,1.0922e-05,-1.08329e-05,8.81266e-06,8.49498e-06,0
-3.1174e-05,3.15528e-06,-1.41888e-05,-2.60876e-06,1.18665e-05,-1.15847e-05,6.73069e-06,6.16939e-06,0
-3.02604e-05,1.93124e-06,-1.23134e-05,-1.36126e-06,1.29542e-05,-1.1821e-05,-2.48684e-06,4.54594e-06,0
-2.89282e-05,1.05467e-06,-1.0591e-05,-3.42176e-06,1.25377e-05,-1.11878e-05,-1.97247e-05,5.30308e-06,0
-2.81028e-05,1.60677e-06,-9.74632e-06,-7.74256e-06,1.02775e-05,-1.01752e-05,-3.35856e-05,6.10986e-06,0
-2.68678e-05,4.53492e-06,-9.2817e-06,-1.11962e-05,7.59475e-06,-9.39562e-06,-3.39126e-05,4.86782e-06,0
-2.68429e-05,7.476e-06,-9.23927e-06,-1.16261e-05,6.73811e-06,-8.23697e-06,-2.29137e-05,3.38912e-06,0
-2.95893e-05,9.77354e-06,-9.76024e-06,-1.03878e-05,8.61477e-06,-7.74418e-06,-8.38565e-06,4.16757e-06,0
-3.26302e-05,1.1526e-05,-8.98193e-06,-1.01053e-05,1.12665e-05,-9.42395e-06,6.28613e-06,4.82521e-06,0
-3.25166e-05,1.29577e-05,-6.30936e-06,-1.16868e-05,1.29327e-05,-1.11878e-05,2.01207e-05,4.4933e-06,0
-3.0902e-05,1.47484e-05,-4.72915e-06,-1.22802e-05,1.27057e-05,-1.05484e-05,3.03201e-05,3.89146e-06,0
-3.0171e-05,1.7445e-05,-6.45697e-06,-1.07054e-05,1.11897e-05,-8.95485e-06,3.53312e-05,3.6538e-06,0
-3.01666e-05,1.93174e-05,-9.36207e-06,-1.0541e-05,9.2754e-06,-7.89672e-06,3.71637e-05,4.80756e-06,0
-3.06083e-05,1.92255e-05,-1.06213e-05,-1.4489e-05,7.70297e-06,-7.70419e-06,3.86525e-05,6.10693e-06,0
-3.10928e-05,1.80028e-05,-9.20746e-06,-1.93018e-05,7.14212e-06,-8.87816e-06,3.8862e-05,5.45344e-06,0
-3.05126e-05,1.62431e-05,-7.84764e-06,-2.29588e-05,7.70445e-06,-1.12266e-05,3.64611e-05,4.23244e-06,0
-2.9417e-05,1.51526e-05,-7.33348e-06,-2.49024e-05,8.18931e-06,-1.32273e-05,3.27041e-05,1.58746e-06,0
-2.89983e-05,1.47484e-05,-6.2686e-06,-2.42929e-05,7.91174e-06,-1.36399e-05,2.97543e-05,-1.49418e-06,0
-2.86218e-05,1.46391e-05,-5.1227e-06,-2.16945e-05,7.4247e-06,-1.41543e-05,2.87721e-05,-1.67534e-06,0
-2.86023e-05,1.55316e-05,-2.63885e-06,-1.93717e-05,7.48883e-06,-1.29926e-05,2.86521e-05,-8.36633e-07,0
-2.95692e-05,1.82102e-05,3.31323e-06,-1.68764e-05,8.13234e-06,-1.14764e-05,2.87357e-05,-8.34567e-07,0
-2.97885e-05,2.19062e-05,1.26935e-05,-1.07289e-05,7.89386e-06,-1.2582e-05,2.7164e-05,-1.1028e-06,0
-2.86719e-05,2.50321e-05,2.64395e-05,-4.70086e-06,7.98568e-06,-1.3426e-05,2.47467e-05,-9.58618e-07,0
-2.78049e-05,2.57095e-05,4.51703e-05,-9.45808e-07,1.0336e-05,-1.3167e-05,2.26408e-05,9.5871e-07,0
-2.88156e-05,2.6742e-05,6.41052e-05,3.67018e-06,1.29314e-05,-1.35046e-05,1.9356e-05,3.23048e-06,0
-2.97289e-05,3.32911e-05,7.49409e-05,8.88592e-06,1.53669e-05,-1.42915e-05,1.52505e-05,4.43649e-06,0
-2.88113e-05,4.82811e-05,6.89393e-05,1.15617e-05,1.80483e-05,-1.39852e-05,1.1741e-05,5.36318e-06,0
-2.83516e-05,7.01228e-05,4.18233e-05,9.55444e-06,1.88237e-05,-1.37675e-05,1.02315e-05,5.98868e-06,0
-2.8744e-05,8.99054e-05,1.54346e-07,3.17411e-06,1.6938e-05,-1.39355e-05,9.6126e-06,6.17129e-06,0
-2.90515e-05,9.64874e-05,-4.36147e-05,-4.13234e-06,1.35576e-05,-1.51573e-05,9.30678e-06,5.03112e-06,0
-3.0406e-05,8.54551e-05,-8.03536e-05,-7.64879e-06,1.04967e-05,-1.58983e-05,9.15325e-06,3.64846e-06,0
-3.2994e-05,6.26066e-05,-0.000102391,-8.27303e-06,8.16366e-06,-1.47493e-05,8.52664e-06,1.91647e-06,0
-3.42166e-05,3.50861e-05,-0.000105705,-9.63413e-06,7.87892e-06,-1.34984e-05,7.04471e-06,2.87025e-07,0
-3.39278e-05,6.83531e-06,-9.44639e-05,-1.13005e-05,1.23528e-05,-1.33476e-05,5.56263e-06,-8.89856e-07,0
-3.36578e-05,-1.66051e-05,-7.76258e-05,-9.33962e-06,1.94334e-05,-1.33905e-05,5.83279e-06,-1.49813e-06,0
-3.43666e-05,-3.05997e-05,-6.30798e-05,-1.59256e-06,2.4288e-05,-1.3022e-05,7.57375e-06,-1.40507e-06,0
-3.49174e-05,-3.41466e-05,-5.2208e-05,8.67123e-06,2.60814e-05,-1.35138e-05,8.72123e-06,-1.19135e-06,0
-3.45219e-05,-2.94929e-05,-4.0978e-05,1.54905e-05,2.6742e-05,-1.43609e-05,8.93282e-06,-1.43042e-06,0
-3.38765e-05,-2.19945e-05,-2.85422e-05,1.45257e-05,2.67069e-05,-1.5359e-05,8.70584e-06,-2.53072e-06,0
-3.26806e-05,-1.51749e-05,-1.86972e-05,1.0107e-05,2.51172e-05,-1.57969e-05,8.37327e-06,-3.72143e-06,0
-3.17541e-05,-9.13205e-06,-1.13326e-05,7.73132e-06,2.20218e-05,-1.58835e-05,8.62057e-06,-3.67574e-06,0
-3.12772e-05,-4.64801e-06,-4.5017e-06,4.90012e-06,1.85211e-05,-1.52678e-05,9.77852e-06,-3.08519e-06,0
-3.10519e-05,-2.46536e-06,-1.40487e-06,-2.78665e-06,1.62535e-05,-1.29493e-05,1.22875e-05,-3.57441e-06,0
-3.13994e-05,-3.04865e-06,-2.76909e-06,-1.64456e-05,1.52128e-05,-9.77519e-06,1.68415e-05,-4.39684e-06,0
-3.16541e-05,-6.10557e-06,-4.60675e-06,-3.21582e-05,1.39822e-05,-8.97198e-06,2.5551e-05,-5.48527e-06,0
-3.11781e-05,-8.68343e-06,-4.48003e-06,-4.49624e-05,1.24003e-05,-9.73409e-06,3.48854e-05,-6.47573e-06,0
-2.98632e-05,-9.74698e-06,-3.17533e-06,-4.77818e-05,1.18606e-05,-8.23339e-06,3.80646e-05,-5.92046e-06,0
-3.01062e-05,-9.20505e-06,-1.18838e-06,-3.5095e-05,1.19617e-05,-5.11305e-06,3.38831e-05,-6.58901e-06,0
-3.15916e-05,-7.07155e-06,2.49296e-07,-1.34274e-05,1.0871e-05,-4.22745e-06,2.55849e-05,-8.25107e-06,0
-3.17314e-05,-4.73481e-06,1.17018e-06,6.01041e-06,1.0069e-05,-6.07804e-06,1.85193e-05,-7.64174e-06,0
-3.03198e-05,-4.06457e-06,2.23539e-06,1.91318e-05,9.6608e-06,-7.38107e-06,1.30756e-05,-7.54432e-06,0
-2.95161e-05,-4.7237e-06,2.87978e-06,2.68347e-05,1.00705e-05,-5.76446e-06,7.21002e-06,-6.90343e-06,0
-3.09208e-05,-4.77528e-06,3.70426e-06,2.95561e-05,1.20337e-05,-3.46954e-06,2.00232e-06,-6.00823e-06,0
