ch1,ch2,ch3,ch4,ch5,ch6,ch7,ch8,class
-3.22149e-05,-3.00814e-07,-1.41437e-05,-7.31136e-06,1.5988e-05,-9.36232e-06,7.53321e-07,4.25531e-06,0
-3.32756e-05,2.81208e-07,-1.26341e-05,-6.97954e-06,1.49965e-05,-8.35654e-06,-7.28175e-06,4.24882e-06,0
-3.25123e-05,3.68547e-06,-1.06191e-05,-6.76071e-06,1.28241e-05,-7.24194e-06,-9.58455e-06,4.33528e-06,0
-3.0735e-05,6.21696e-06,-9.69201e-06,-4.51302e-06,1.12968e-05,-7.39865e-06,-9.76979e-06,5.25745e-06,0
-2.94511e-05,6.72231e-06,-1.03306e-05,-2.36263e-06,1.08598e-05,-7.96794e-06,-1.15931e-05,6.83879e-06,0
-2.83265e-05,7.69802e-06,-1.23825e-05,-2.51957e-06,1.22384e-05,-8.12832e-06,-1.37232e-05,8.52784e-06,0
-2.65634e-05,1.06619e-05,-1.41356e-05,-3.23158e-06,1.42881e-05,-8.89333e-06,-1.26975e-05,8.80944e-06,0
-2.5301e-05,1.38992e-05,-1.53647e-05,-3.16702e-06,1.46612e-05,-1.00393e-05,-8.23493e-06,8.18826e-06,0
-2.52694e-05,1.54881e-05,-1.50979e-05,-2.24274e-06,1.41041e-05,-1.07931e-05,-2.30436e-06,8.45058e-06,0
-2.57959e-05,1.61094e-05,-1.41149e-05,-2.29077e-06,1.44227e-05,-9.92357e-06,7.1203e-07,8.69052e-06,0
-2.67833e-05,1.53773e-05,-1.31895e-05,-4.48153e-06,1.47465e-05,-9.57958e-06,2.72127e-06,7.12328e-06,0
-2.88525e-05,1.16107e-05,-1.21745e-05,-4.90034e-06,1.53333e-05,-1.02719e-05,9.98472e-06,3.95102e-06,0
-2.91931e-05,8.14719e-06,-1.28298e-05,-2.40341e-06,1.59277e-05,-1.03441e-05,2.05144e-05,2.79037e-06,0
-2.81505e-05,7.03636e-06,-1.27353e-05,-1.3179e-06,1.59395e-05,-1.08294e-05,2.96097e-05,3.34331e-06,0
-2.82534e-05,8.29063e-06,-9.93356e-06,-2.11744e-06,1.53454e-05,-9.72474e-06,3.41023e-05,2.57884e-06,0
-2.87669e-05,1.12527e-05,-5.38739e-06,-3.26065e-06,1.53545e-05,-7.39071e-06,3.36434e-05,2.29619e-06,0
-2.86598e-05,1.15699e-05,-2.82558e-06,-2.32475e-06,1.75221e-05,-5.03248e-06,3.23204e-05,3.0439e-06,0
-2.78545e-05,6.53429e-06,-2.5854e-06,-2.36216e-06,1.97023e-05,-2.53103e-06,3.3234e-05,4.2882e-06,0
-2.71844e-05,-2.16356e-06,-3.67179e-06,-4.96052e-06,1.99506e-05,-1.19969e-06,3.45434e-05,3.30821e-06,0
-2.75975e-05,-8.30848e-06,-7.21037e-06,-7.1441e-06,1.83113e-05,-1.29308e-06,3.30612e-05,1.03824e-06,0
-2.82681e-05,-8.17199e-06,-1.00637e-05,-7.86405e-06,1.6222e-05,-3.10305e-06,2.98709e-05,-1.04344e-07,0
-2.83345e-05,-3.33104e-06,-1.02415e-05,-7.31163e-06,1.52336e-05,-5.45495e-06,2.66006e-05,-1.09891e-07,0
-2.80683e-05,2.65752e-06,-9.19352e-06,-7.33225e-06,1.56271e-05,-6.39597e-06,2.2771e-05,5.50721e-08,0
-2.67557e-05,7.31272e-06,-9.53295e-06,-7.97977e-06,1.5935e-05,-5.36772e-06,1.80334e-05,7.84558e-09,0
-2.58433e-05,1.00819e-05,-1.05716e-05,-7.87778e-06,1.70138e-05,-3.86775e-06,1.3199e-05,6.67174e-07,0
-2.74431e-05,1.17438e-05,-1.03599e-05,-5.49968e-06,1.88919e-05,-3.33899e-06,1.05585e-05,2.07502e-06,0
-3.08497e-05,1.27664e-05,-7.93976e-06,-1.98398e-06,1.92099e-05,-4.04384e-06,1.17635e-05,4.98761e-06,0
-3.30613e-05,1.46328e-05,-4.6887e-06,1.7596e-06,1.82331e-05,-4.72745e-06,1.50498e-05,7.12151e-06,0
-3.31735e-05,1.9197e-05,-2.64983e-06,4.39541e-06,1.81305e-05,-3.14609e-06,1.69589e-05,6.69489e-06,0
-3.26599e-05,2.30953e-05,-2.63157e-06,5.22373e-06,1.97463e-05,-4.09485e-07,1.69204e-05,3.49357e-06,0
-3.19665e-05,2.27567e-05,-3.5526e-06,5.43367e-06,2.15739e-05,3.74911e-07,1.59155e-05,-3.47123e-08,0
-3.14982e-05,1.93401e-05,-3.80026e-06,6.16432e-06,2.27056e-05,-6.77629e-07,1.43629e-05,-1.27909e-06,0
-3.19265e-05,1.5745e-05,-3.76617e-06,6.85742e-06,2.26144e-05,-1.91919e-06,1.28761e-05,-1.70222e-07,0
-3.21335e-05,1.34974e-05,-5.2502e-06,9.25409e-06,2.01278e-05,-2.20944e-06,1.21415e-05,1.25049e-06,0
-3.07267e-05,1.24415e-05,-9.57588e-06,1.44403e-05,1.7727e-05,-8.98412e-07,1.12423e-05,2.15514e-06,0
-2.90674e-05,1.19207e-05,-1.43157e-05,1.90726e-05,1.7029e-05,-3.18851e-07,9.24247e-06,2.53129e-06,0
-2.87095e-05,1.17917e-05,-1.53697e-05,2.05473e-05,1.53496e-05,-4.86871e-07,7.03088e-06,2.47218e-06,0
-2.88491e-05,1.02323e-05,-1.38552e-05,1.99749e-05,1.31247e-05,-2.16554e-07,6.46221e-06,2.11158e-06,0
-2.79265e-05,6.63133e-06,-1.38264e-05,1.76486e-05,1.08518e-05,2.05535e-06,9.34666e-06,-1.17688e-07,0
-2.65928e-05,5.08178e-06,-1.53311e-05,1.45947e-05,1.06124e-05,3.94307e-06,1.19279e-05,-1.59887e-06,0
-2.68775e-05,7.6111e-06,-1.4761e-05,1.71798e-05,1.16414e-05,2.73729e-06,1.28554e-05,1.06705e-07,0
-2.9054e-05,1.02014e-05,-1.15428e-05,2.12968e-05,9.66753e-06,2.43432e-06,1.45698e-05,1.41264e-06,0
-3.0633e-05,1.15465e-05,-8.9014e-06,2.1371e-05,6.40563e-06,3.51975e-06,1.45467e-05,1.93849e-06,0
-3.10914e-05,1.16855e-05,-6.9662e-06,1.43877e-05,5.02838e-06,4.15698e-06,1.22661e-05,3.06359e-06,0
-3.14918e-05,1.18207e-05,-6.61449e-06,5.95997e-07,5.23245e-06,4.80888e-06,8.26019e-06,3.26797e-06,0
-3.04062e-05,1.54484e-05,-7.06708e-06,-1.38145e-05,5.35402e-06,5.19188e-06,6.41421e-06,1.74924e-06,0
-2.98265e-05,2.54628e-05,-7.20356e-06,-2.96412e-05,5.39973e-06,4.19139e-06,7.83534e-06,9.00639e-07,0
-3.02019e-05,3.87712e-05,-6.32329e-06,-4.94431e-05,3.51459e-06,3.22158e-06,1.01138e-05,3.02613e-06,0
-3.02628e-05,4.57678e-05,-4.59757e-06,-6.6286e-05,3.76758e-07,2.32553e-06,1.18514e-05,4.47637e-06,0
-3.03241e-05,4.47435e-05,-4.69543e-06,-6.64171e-05,-1.34633e-06,1.09383e-06,1.25246e-05,3.05714e-06,0
-2.9819e-05,3.90367e-05,-6.21969e-06,-5.02058e-05,-9.101e-07,-9.48661e-07,1.37394e-05,-3.10197e-08,0
-2.86703e-05,3.22534e-05,-6.20671e-06,-2.90764e-05,-1.53202e-07,-3.23899e-06,1.52638e-05,-1.90372e-06,0
-2.7781e-05,2.45897e-05,-3.93331e-06,-1.48428e-05,-1.10735e-06,-4.16241e-06,1.67634e-05,-8.37819e-07,0
-2.79598e-05,1.69388e-05,-1.99629e-06,-1.1317e-05,-3.65377e-06,-4.16717e-06,1.73489e-05,1.42312e-06,0
-2.89885e-05,1.10792e-05,-1.765e-06,-1.44985e-05,-5.93211e-06,-4.17266e-06,1.77229e-05,1.74883e-06,0
-3.12325e-05,6.44957e-06,-3.29056e-06,-1.91782e-05,-5.01995e-06,-5.03389e-06,1.95337e-05,2.64117e-08,0
-3.35354e-05,2.15361e-06,-6.13281e-06,-2.32086e-05,-1.1851e-06,-6.92849e-06,2.40732e-05,-1.97475e-06,0
-3.42875e-05,-1.15445e-06,-8.12529e-06,-3.03704e-05,2.89425e-06,-9.33408e-06,3.0201e-05,-4.2445e-06,0
-3.35867e-05,-2.72879e-06,-7.3259e-06,-3.73279e-05,5.32048e-06,-9.98238e-06,3.37888e-05,-6.28542e-06,0
-3.25033e-05,-2.38032e-06,-5.87653e-06,-3.50252e-05,6.97632e-06,-9.00815e-06,2.99692e-05,-7.52951e-06,0
-3.01336e-05,2.55155e-06,-5.34866e-06,-2.43246e-05,1.05841e-05,-8.7794e-06,1.49903e-05,-7.7649e-06,0
-2.74565e-05,1.32588e-05,-4.33728e-06,-1.49005e-05,1.77757e-05,-8.74058e-06,-1.43285e-05,-6.70449e-06,0
-2.77208e-05,2.62685e-05,-2.98107e-06,-1.08376e-05,2.32022e-05,-8.09071e-06,-4.30506e-05,-4.7781e-06,0
-3.03887e-05,3.52168e-05,-3.35479e-06,-8.03341e-06,2.26982e-05,-8.20112e-06,-4.64303e-05,-4.59323e-06,0
-3.18747e-05,3.76707e-05,-5.44594e-06,-1.52335e-06,2.06883e-05,-8.54489e-06,-2.45135e-05,-6.26894e-06,0
-3.16281e-05,3.137e-05,-7.41888e-06,7.80805e-06,2.38865e-05,-8.84294e-06,5.72213e-06,-7.29401e-06,0
-3.11065e-05,1.78264e-05,-7.00629e-06,1.6086e-05,3.2019e-05,-8.81009e-06,2.40543e-05,-5.74099e-06,0
-3.10223e-05,-5.65623e-07,-4.23155e-06,1.95162e-05,3.64312e-05,-7.40088e-06,3.06823e-05,-2.3301e-06,0
-3.12015e-05,-2.08581e-05,-2.38691e-06,1.80024e-05,3.27144e-05,-7.74329e-06,3.50755e-05,2.53267e-07,0
-3.15621e-05,-3.56587e-05,-4.0439e-06,1.2809e-05,2.48357e-05,-9.87274e-06,3.34828e-05,1.58546e-06,0
-3.24506e-05,-4.02437e-05,-6.91749e-06,7.74715e-06,1.92954e-05,-1.06931e-05,2.84879e-05,1.97858e-06,0
-3.25561e-05,-3.51755e-05,-8.42655e-06,3.25775e-06,1.75386e-05,-1.18027e-05,2.2969e-05,1.70727e-06,0
-3.11279e-05,-2.36363e-05,-1.01894e-05,-1.72718e-06,1.72532e-05,-1.35438e-05,1.85119e-05,1.95896e-06,0
-3.00051e-05,-1.14942e-05,-1.25159e-05,-5.6301e-06,1.93511e-05,-1.49005e-05,1.55913e-05,4.18597e-06,0
-3.00136e-05,-4.59405e-06,-1.51306e-05,-9.36768e-06,2.06685e-05,-1.42869e-05,1.64572e-05,5.25255e-06,0
-3.01871e-05,-3.17511e-06,-1.62396e-05,-1.1708e-05,1.90846e-05,-1.20485e-05,2.06309e-05,4.71818e-06,0
-3.08984e-05,-2.91511e-06,-1.50189e-05,-1.1874e-05,1.62002e-05,-1.00323e-05,2.23074e-05,3.7531e-06,0
-3.18321e-05,-9.94399e-07,-1.20412e-05,-1.0609e-05,1.23011e-05,-9.25175e-06,1.91964e-05,3.03794e-06,0
-3.22613e-05,5.1043e-07,-9.08758e-06,-8.9313e-06,9.2026e-06,-9.95654e-06,1.35628e-05,4.09621e-06,0
-3.21912e-05,9.96414e-07,-8.24854e-06,-7.17338e-06,7.87054e-06,-9.90663e-06,9.00477e-06,5.38898e-06,0
-3.25044e-05,1.20693e-06,-8.69229e-06,-6.0068e-06,7.53813e-06,-9.05079e-06,5.08206e-06,5.32069e-06,0
-3.26202e-05,2.08316e-06,-1.10897e-05,-4.2548e-06,6.35319e-06,-9.31339e-06,1.78664e-06,4.32253e-06,0
-3.2205e-05,4.06247e-06,-1.51296e-05,-1.98557e-06,5.2102e-06,-1.1523e-05,-8.79285e-07,5.41547e-06,0
-3.1758e-05,5.53203e-06,-1.76907e-05,-7.52891e-07,5.31997e-06,-1.34226e-05,-2.91495e-06,7.57017e-06,0
-3.15302e-05,5.15322e-06,-1.71185e-05,-1.06582e-06,6.4721e-06,-1.37649e-05,-4.5853e-06,7.98548e-06,0
-3.09968e-05,5.07277e-06,-1.50713e-05,-1.12542e-06,7.13629e-06,-1.2494e-05,-4.50874e-06,6.4003e-06,0
-3.01929e-05,7.10742e-06,-1.36723e-05,-1.89548e-07,6.3927e-06,-1.07756e-05,-3.29569e-06,4.02272e-06,0
-2.9694e-05,1.04359e-05,-1.34761e-05,1.78835e-06,7.72837e-06,-9.80434e-06,-3.06337e-06,1.16365e-06,0
-3.0515e-05,1.17808e-05,-1.22686e-05,6.30275e-06,1.09825e-05,-9.88011e-06,-5.13249e-06,-1.046e-06,0
-3.13155e-05,1.12315e-05,-1.04495e-05,8.52067e-06,1.13761e-05,-1.15514e-05,-8.27118e-06,-2.27028e-06,0
-3.07434e-05,1.25748e-05,-1.02566e-05,5.35936e-06,8.84508e-06,-1.46708e-05,-8.981e-06,-1.03071e-06,0
-3.15819e-05,1.39463e-05,-1.08207e-05,9.01978e-07,6.85042e-06,-1.67944e-05,-3.18883e-06,1.40494e-06,0
-3.21171e-05,1.50149e-05,-1.04349e-05,-1.72882e-06,6.07412e-06,-1.67797e-05,6.29104e-06,1.04743e-06,0
-3.08236e-05,1.65321e-05,-9.1625e-06,-1.81383e-06,3.7542e-06,-1.61286e-05,1.26955e-05,1.76099e-08,0
-2.87428e-05,1.92997e-05,-8.26399e-06,-2.07954e-06,2.05481e-07,-1.62123e-05,1.6289e-05,8.96463e-07,0
-2.70031e-05,2.31031e-05,-7.36107e-06,-3.36817e-06,-2.47889e-06,-1.6111e-05,1.92701e-05,2.28957e-06,0
-2.66237e-05,2.47936e-05,-6.72315e-06,-2.70916e-06,-2.446e-06,-1.45451e-05,1.90054e-05,3.24875e-06,0
-2.76249e-05,2.55861e-05,-7.17578e-06,-7.84194e-07,-5.09871e-08,-1.38084e-05,7.30217e-06,3.82511e-06,0
-2.88606e-05,2.57848e-05,-8.9406e-06,1.39539e-07,2.79623e-06,-1.37715e-05,-1.2599e-05,3.18807e-06,0
-2.87147e-05,2.51414e-05,-9.73746e-06,-6.89785e-07,4.30524e-06,-1.41767e-05,-2.37157e-05,1.89648e-06,0
-2.84995e-05,2.40363e-05,-9.58869e-06,-1.89682e-06,4.68149e-06,-1.39777e-05,-1.903e-05,1.37969e-06,0
-2.97622e-05,2.31037e-05,-8.69303e-06,-4.09844e-06,5.56505e-06,-1.41832e-05,-2.50755e-06,1.56612e-06,0
-3.09225e-05,2.23904e-05,-6.84684e-06,-6.50698e-06,7.49466e-06,-1.57057e-05,1.7135e-05,1.12376e-06,0
-3.04794e-05,2.25435e-05,-5.34446e-06,-7.01355e-06,1.07637e-05,-1.72509e-05,3.34581e-05,8.54121e-07,0
-2.90217e-05,2.38673e-05,-3.728e-06,-7.28978e-06,1.28681e-05,-1.8149e-05,4.48276e-05,1.13336e-06,0
-2.81246e-05,2.52275e-05,-3.45452e-06,-7.13255e-06,1.32844e-05,-1.88263e-05,5.06417e-05,1.01949e-06,0
-2.84344e-05,2.60764e-05,-5.3366e-06,-5.2934e-06,1.35011e-05,-2.01826e-05,5.18191e-05,2.18857e-07,0
-2.93058e-05,2.70363e-05,-7.17883e-06,-3.44593e-06,1.49668e-05,-2.11739e-05,5.03676e-05,2.33665e-07,0
-2.99349e-05,2.93372e-05,-6.30565e-06,-3.99979e-06,1.76233e-05,-2.12257e-05,4.94625e-05,8.26007e-07,0
-2.99312e-05,3.14621e-05,-4.47468e-06,-5.75528e-06,1.97883e-05,-2.0006e-05,4.80818e-05,1.10516e-06,0
-2.92413e-05,3.23087e-05,-4.77642e-06,-5.98992e-06,2.02218e-05,-1.87561e-05,4.42641e-05,9.92058e-07,0
-2.74048e-05,3.31909e-05,-6.18309e-06,-4.83178e-06,2.03996e-05,-1.72251e-05,3.80358e-05,1.06577e-06,0
-2.5665e-05,3.51408e-05,-6.67053e-06,-3.39329e-06,2.1705e-05,-1.52173e-05,3.14495e-05,1.77586e-06,0
-2.58419e-05,3.54465e-05,-7.398e-06,-2.31306e-06,2.27473e-05,-1.31364e-05,2.64891e-05,1.71792e-06,0
-2.71643e-05,3.28393e-05,-7.32643e-06,-1.95348e-06,2.29664e-05,-1.1922e-05,2.36028e-05,8.36039e-07,0
-2.75704e-05,2.87087e-05,-5.14849e-06,-1.58358e-06,2.29579e-05,-1.25492e-05,2.38216e-05,3.1509e-07,0
-2.77895e-05,2.60511e-05,-3.28079e-06,-1.65623e-06,2.12114e-05,-1.33192e-05,3.04382e-05,1.02915e-07,0
-2.91375e-05,2.54105e-05,-2.76379e-06,-2.22412e-06,1.7575e-05,-1.23518e-05,3.94034e-05,-6.42446e-07,0
-3.10471e-05,2.58858e-05,-2.32892e-06,-3.0412e-06,1.3641e-05,-1.09791e-05,4.15781e-05,4.78324e-08,0
-3.1225e-05,2.63975e-05,-1.58056e-08,-3.85505e-06,1.29471e-05,-9.89924e-06,3.66724e-05,2.33896e-06,0
-2.98601e-05,2.48674e-05,1.5411e-06,-3.33979e-06,1.57501e-05,-9.73403e-06,3.03364e-05,2.66806e-06,0
-2.97628e-05,2.28933e-05,4.33167e-07,-1.82653e-06,1.75675e-05,-9.65172e-06,2.58229e-05,1.1278e-06,0
-3.10495e-05,2.11444e-05,-1.28563e-06,-6.51263e-07,1.73645e-05,-9.23805e-06,2.26849e-05,-3.60413e-07,0
-3.2193e-05,1.81427e-05,-1.78977e-06,-8.42546e-07,1.43217e-05,-1.10356e-05,1.83901e-05,-6.42103e-07,0
-3.34124e-05,1.39695e-05,-1.25894e-06,-2.5147e-06,1.20814e-05,-1.38241e-05,1.05859e-05,3.63595e-07,0
-3.39177e-05,9.79403e-06,-2.36393e-06,-6.09324e-06,1.26642e-05,-1.58969e-05,-1.3683e-06,1.44776e-06,0
-3.33303e-05,8.24342e-06,-4.36224e-06,-1.07052e-05,1.31201e-05,-1.6066e-05,-1.2318e-05,1.70566e-06,0
-3.34727e-05,1.0993e-05,-5.63516e-06,-1.42828e-05,1.32813e-05,-1.4387e-05,-2.0789e-05,1.25012e-06,0
-3.30087e-05,1.60081e-05,-5.80405e-06,-1.49442e-05,1.28842e-05,-1.18764e-05,-3.06245e-05,7.53461e-07,0
-3.24452e-05,1.88879e-05,-5.14708e-06,-1.1175e-05,1.26536e-05,-1.06381e-05,-4.12272e-05,-6.64821e-07,0
-3.28248e-05,1.86153e-05,-5.21282e-06,-4.97123e-06,1.29436e-05,-1.09824e-05,-4.52828e-05,-1.19556e-06,0
-3.26136e-05,1.78269e-05,-6.13775e-06,1.14258e-06,1.30732e-05,-1.18824e-05,-3.75145e-05,1.67141e-07,0
-3.1623e-05,1.84545e-05,-7.17268e-06,7.8549e-06,1.23309e-05,-1.21959e-05,-2.1282e-05,1.67866e-06,0
-3.08812e-05,2.04885e-05,-7.80392e-06,1.30594e-05,1.04625e-05,-1.16716e-05,-2.96337e-06,1.07347e-06,0
-2.97458e-05,2.13451e-05,-9.00655e-06,1.32009e-05,7.87869e-06,-1.11267e-05,1.36391e-05,-1.94899e-06,0
-2.81259e-05,1.9173e-05,-1.06678e-05,1.01109e-05,4.08626e-06,-1.15869e-05,2.80583e-05,-4.0507e-06,0
-2.75852e-05,1.46893e-05,-1.13214e-05,5.07981e-06,5.84703e-07,-1.38834e-05,3.39752e-05,-3.39896e-06,0
-2.8805e-05,1.04936e-05,-1.0729e-05,-1.97744e-06,-1.26253e-06,-1.70412e-05,2.59415e-05,-2.29409e-06,0
-3.04836e-05,7.48224e-06,-9.37511e-06,-6.58945e-06,-2.1282e-06,-1.87281e-05,9.70578e-06,-1.96102e-06,0
-3.11824e-05,5.19528e-06,-7.66283e-06,-8.51193e-06,-4.13936e-06,-1.76169e-05,-1.1947e-06,-9.24794e-07,0
-3.18196e-05,2.75953e-06,-6.05543e-06,-1.2556e-05,-7.41148e-06,-1.58371e-05,-3.31046e-06,3.93003e-07,0
-3.23612e-05,1.34321e-06,-4.10469e-06,-1.98759e-05,-9.16319e-06,-1.47946e-05,-1.04164e-06,1.36106e-06,0
-3.15396e-05,2.22545e-06,-2.48663e-06,-2.84132e-05,-7.45556e-06,-1.55537e-05,1.48949e-06,2.50668e-06,0
-3.01624e-05,3.8721e-06,-2.90589e-06,-3.34777e-05,-5.17056e-06,-1.64773e-05,-1.53991e-06,3.74603e-06,0
-3.05964e-05,6.51398e-06,-4.82331e-06,-3.16068e-05,-4.51522e-06,-1.65728e-05,-8.86418e-06,4.68423e-06,0
-3.31921e-05,9.40549e-06,-7.13971e-06,-2.06562e-05,-3.2074e-06,-1.65028e-05,-9.2532e-06,6.19935e-06,0
-3.63328e-05,8.60951e-06,-1.0179e-05,-2.16021e-06,1.1748e-09,-1.66807e-05,4.02816e-06,7.48206e-06,0
-3.81184e-05,7.38716e-06,-1.14199e-05,1.55567e-05,6.16836e-06,-1.56823e-05,2.13798e-05,7.47697e-06,0
-3.76955e-05,1.03654e-05,-9.5671e-06,2.86509e-05,1.47792e-05,-1.19691e-05,3.18896e-05,7.82713e-06,0
-3.43666e-05,1.37036e-05,-6.79616e-06,3.77766e-05,2.25808e-05,-9.73936e-06,3.82382e-05,9.03764e-06,0
-3.06218e-05,1.50688e-05,-4.7452e-06,3.87596e-05,2.36243e-05,-1.05459e-05,4.16323e-05,1.04291e-05,0
-2.99053e-05,1.38452e-05,-5.01773e-06,2.9053e-05,1.74041e-05,-1.18958e-05,4.33476e-05,1.11553e-05,0
-3.03376e-05,1.10812e-05,-6.0892e-06,1.48131e-05,1.03455e-05,-1.31466e-05,4.61763e-05,9.40031e-06,0
-3.01419e-05,9.37537e-06,-7.21624e-06,7.86792e-06,5.90312e-06,-1.52799e-05,4.82613e-05,6.40495e-06,0
-2.98578e-05,7.70348e-06,-7.67216e-06,1.10616e-05,5.69404e-06,-1.67833e-05,4.56241e-05,4.72156e-06,0
-2.90537e-05,6.26271e-06,-7.33757e-06,1.73307e-05,1.01482e-05,-1.60744e-05,3.81593e-05,5.56789e-06,0
-2.87598e-05,5.20702e-06,-6.01615e-06,1.79963e-05,1.51206e-05,-1.50859e-05,2.97884e-05,6.0858e-06,0
-3.00497e-05,3.10465e-06,-5.05837e-06,8.96885e-06,1.73558e-05,-1.46838e-05,1.95673e-05,3.77941e-06,0
-3.12728e-05,9.98556e-07,-5.94024e-06,-2.8237e-06,1.75776e-05,-1.36924e-05,8.67653e-06,1.08784e-07,0
-3.13512e-05,4.46719e-07,-6.88015e-06,-1.00065e-05,1.74196e-05,-1.08896e-05,3.86762e-07,-3.0931e-06,0
-3.13136e-05,1.09725e-06,-7.64766e-06,-1.38628e-05,1.82196e-05,-7.48555e-06,-1.60746e-06,-4.35353e-06,0
-3.16479e-05,1.07451e-06,-8.16877e-06,-1.83826e-05,1.96432e-05,-6.28862e-06,1.69737e-06,-3.82233e-06,0
-3.08506e-05,2.76225e-07,-8.49489e-06,-2.28427e-05,2.09539e-05,-7.909e-06,6.61588e-06,-2.74093e-06,0
-2.92637e-05,2.27655e-07,-9.22803e-06,-2.58946e-05,2.17268e-05,-9.4249e-06,9.1288e-06,-2.42966e-06,0
-2.90323e-05,2.12809e-06,-1.08528e-05,-2.95049e-05,2.19881e-05,-8.92022e-06,8.38089e-06,-2.81892e-06,0
-3.06607e-05,6.74933e-06,-1.32445e-05,-3.48119e-05,2.14232e-05,-7.86651e-06,5.77892e-06,-3.07467e-06,0
-3.27111e-05,1.17913e-05,-1.61323e-05,-3.78909e-05,1.96264e-05,-7.74516e-06,2.54019e-06,-3.01404e-06,0
-3.25938e-05,1.40493e-05,-1.74145e-05,-3.52034e-05,1.8692e-05,-8.87345e-06,-2.36928e-07,-3.63059e-06,0
-3.04667e-05,1.3215e-05,-1.67246e-05,-2.75119e-05,1.95764e-05,-1.07157e-05,2.10487e-07,-5.51944e-06,0
-2.98652e-05,1.00251e-05,-1.65071e-05,-1.99012e-05,2.10151e-05,-1.175e-05,6.03139e-06,-7.06396e-06,0
-3.03275e-05,7.07904e-06,-1.75273e-05,-1.58912e-05,2.06518e-05,-1.15581e-05,1.30658e-05,-5.84516e-06,0
-2.98554e-05,5.87711e-06,-1.74744e-05,-1.4488e-05,1.78998e-05,-1.13095e-05,1.70653e-05,-3.52794e-06,0
-2.84069e-05,6.9084e-06,-1.43147e-05,-1.30558e-05,1.60569e-05,-1.14939e-05,1.62755e-05,-6.97167e-07,0
-2.62527e-05,7.32936e-06,-1.18223e-05,-9.92123e-06,1.58639e-05,-1.12399e-05,1.11737e-05,1.46418e-06,0
-2.46433e-05,4.32902e-06,-1.23773e-05,-7.70062e-06,1.66606e-05,-1.00307e-05,5.5762e-06,4.92737e-07,0
-2.35623e-05,8.10933e-07,-1.35881e-05,-7.25506e-06,1.77488e-05,-9.0791e-06,-9.0107e-07,-9.25671e-07,0
-2.31125e-05,-2.50396e-06,-1.38412e-05,-7.69771e-06,1.87643e-05,-7.85571e-06,-8.60257e-06,3.42905e-07,0
-2.4033e-05,-6.63697e-06,-1.29854e-05,-6.33817e-06,1.87948e-05,-8.15106e-06,-9.68577e-06,1.50624e-06,0
-2.57518e-05,-8.75714e-06,-1.34017e-05,-2.3501e-06,1.78745e-05,-8.74374e-06,-5.39343e-06,1.08009e-06,0
-2.70998e-05,-6.33131e-06,-1.44962e-05,1.74086e-06,1.73999e-05,-7.67044e-06,6.32095e-07,9.34664e-07,0
-2.69476e-05,-1.61728e-06,-1.54888e-05,4.29898e-06,1.76727e-05,-7.20858e-06,5.39871e-06,1.20488e-06,0
-2.68391e-05,4.19468e-06,-1.47535e-05,4.06793e-06,1.89837e-05,-6.72323e-06,7.28832e-06,2.15926e-06,0
-2.64391e-05,8.86642e-06,-1.21586e-05,2.85643e-06,2.1401e-05,-5.45371e-06,8.16309e-06,2.87826e-06,0
-2.49863e-05,1.19848e-05,-1.05701e-05,2.57823e-06,2.4559e-05,-3.42808e-06,7.81879e-06,2.61203e-06,0
-2.48559e-05,1.34753e-05,-1.08544e-05,2.89601e-06,2.68303e-05,-2.35522e-06,6.45167e-06,1.40236e-06,0
-2.63952e-05,1.27892e-05,-1.20896e-05,1.67788e-06,2.71826e-05,-2.56317e-06,5.45279e-06,9.29891e-07,0
-2.83439e-05,1.15381e-05,-1.26821e-05,-2.01717e-07,2.58691e-05,-3.15612e-06,7.04684e-06,1.35509e-06,0
-2.95762e-05,1.12058e-05,-1.2965e-05,-3.12118e-06,2.5298e-05,-3.56242e-06,1.00824e-05,1.90135e-06,0
-3.01452e-05,1.34623e-05,-1.2402e-05,-9.39901e-06,2.4796e-05,-4.44316e-06,1.43528e-05,8.71117e-07,0
-3.02271e-05,1.77082e-05,-1.12177e-05,-1.65652e-05,2.19407e-05,-6.83878e-06,1.83839e-05,-2.29593e-06,0
-3.066e-05,2.07058e-05,-1.04907e-05,-1.97682e-05,1.80225e-05,-1.06082e-05,2.05317e-05,-5.17074e-06,0
-3.1057e-05,2.0701e-05,-1.10716e-05,-1.76105e-05,1.51674e-05,-1.34022e-05,2.09017e-05,-6.5803e-06,0
-3.08836e-05,2.07634e-05,-1.06296e-05,-1.04965e-05,1.2662e-05,-1.27991e-05,2.03007e-05,-7.76887e-06,0
-3.0305e-05,2.12223e-05,-8.41158e-06,2.1883e-06,9.75331e-06,-1.04999e-05,2.02346e-05,-8.72928e-06,0
-2.96594e-05,2.0488e-05,-6.73211e-06,1.97205e-05,7.27462e-06,-8.57046e-06,2.12866e-05,-7.94479e-06,0
-2.95556e-05,1.80002e-05,-6.12954e-06,3.82866e-05,6.52369e-06,-8.29823e-06,2.16917e-05,-6.39425e-06,0
-3.03922e-05,1.64144e-05,-6.28154e-06,4.8976e-05,6.65758e-06,-7.72783e-06,2.05853e-05,-6.22706e-06,0
-3.18142e-05,1.78262e-05,-8.35373e-06,4.80697e-05,4.85321e-06,-6.21478e-06,1.94076e-05,-6.27238e-06,0
-3.31522e-05,2.13791e-05,-9.55269e-06,3.71816e-05,2.10818e-06,-7.07345e-06,1.91732e-05,-3.96678e-06,0
-3.2857e-05,2.47012e-05,-7.93745e-06,2.21148e-05,1.93085e-06,-8.67961e-06,1.88135e-05,-1.2398e-06,0
-3.16475e-05,2.67372e-05,-6.04673e-06,6.88474e-06,5.11641e-06,-8.08114e-06,1.86209e-05,5.45822e-07,0
-3.12501e-05,2.9091e-05,-6.25859e-06,-8.78369e-06,7.45949e-06,-6.81697e-06,1.99926e-05,1.69638e-06,0
-3.0168e-05,2.8636e-05,-8.52537e-06,-2.2414e-05,6.79818e-06,-5.78329e-06,2.17356e-05,9.09291e-07,0
-2.97659e-05,2.46503e-05,-1.01158e-05,-3.00995e-05,5.32249e-06,-5.43374e-06,2.22201e-05,-2.2704e-06,0
-3.08754e-05,1.96503e-05,-1.0475e-05,-2.90307e-05,4.03959e-06,-6.19907e-06,1.97337e-05,-4.29138e-06,0
-3.35463e-05,1.5875e-05,-8.90514e-06,-2.24321e-05,3.1648e-06,-5.62682e-06,1.71136e-05,-3.38761e-06,0
-3.44552e-05,1.41142e-05,-6.37619e-06,-1.78356e-05,2.28375e-06,-4.64808e-06,1.79784e-05,-6.09543e-07,0
-3.27821e-05,1.35127e-05,-5.45563e-06,-2.21607e-05,1.24887e-06,-5.60076e-06,2.20311e-05,1.27167e-06,0
-3.14674e-05,1.48126e-05,-6.75817e-06,-3.25312e-05,1.12051e-06,-5.49811e-06,2.39817e-05,5.78651e-07,0
-3.10977e-05,1.61199e-05,-8.42366e-06,-4.14197e-05,1.90188e-06,-3.75727e-06,2.455e-05,-4.77296e-07,0
-3.10097e-05,1.61767e-05,-9.42373e-06,-4.64779e-05,5.14711e-06,-2.17186e-06,2.63328e-05,-1.19886e-06,0
-3.05001e-05,1.48137e-05,-1.04703e-05,-4.96224e-05,1.01556e-05,-4.06386e-07,2.63299e-05,-1.75752e-06,0
-3.01937e-05,1.18915e-05,-1.17898e-05,-5.22419e-05,1.19142e-05,4.97209e-07,2.47033e-05,-1.79062e-06,0
-3.01274e-05,8.65455e-06,-1.1635e-05,-4.96329e-05,1.02833e-05,-3.46293e-07,2.46326e-05,-1.64886e-06,0
-3.14868e-05,6.56413e-06,-9.48196e-06,-3.77059e-05,1.1442e-05,-2.40298e-06,2.71293e-05,-1.9758e-06,0
-3.28902e-05,7.20839e-06,-6.73794e-06,-1.92279e-05,1.76351e-05,-4.31781e-06,2.86235e-05,-1.93386e-06,0
-3.21682e-05,1.03273e-05,-3.70573e-06,-2.00508e-06,2.51135e-05,-5.28501e-06,2.65453e-05,-1.81723e-06,0
-2.9761e-05,1.28494e-05,-6.99692e-07,6.9533e-06,2.97679e-05,-6.05652e-06,1.99486e-05,-2.84282e-06,0
-2.82997e-05,1.28036e-05,1.00667e-06,6.10704e-06,3.07642e-05,-7.32921e-06,1.12002e-05,-4.31516e-06,0
-2.80798e-05,1.26179e-05,1.79623e-06,-2.84021e-07,3.02563e-05,-7.80774e-06,4.43234e-06,-4.50663e-06,0
-2.83507e-05,1.41626e-05,2.48518e-06,-4.96815e-06,3.0961e-05,-6.74253e-06,1.32765e-06,-2.59822e-06,0
-2.91305e-05,1.65043e-05,9.2256e-07,-2.93127e-06,3.27321e-05,-6.12783e-06,-3.2478e-07,1.19299e-06,0
-2.96509e-05,1.84389e-05,-2.88258e-06,3.29187e-06,3.17376e-05,-6.96146e-06,-3.17106e-06,4.27505e-06,0
-2.88913e-05,1.96934e-05,-5.25832e-06,7.12668e-06,2.80895e-05,-7.37952e-06,-6.69395e-06,3.9083e-06,0
-2.87142e-05,1.86065e-05,-5.92652e-06,7.27974e-06,2.40035e-05,-5.59363e-06,-7.5326e-06,2.50263e-06,0
-3.04092e-05,1.54696e-05,-7.13392e-06,7.13094e-06,2.14543e-05,-3.83605e-06,-6.01589e-06,2.21611e-06,0
-3.08108e-05,1.39216e-05,-8.17971e-06,8.77366e-06,2.23925e-05,-4.3235e-06,-5.76288e-06,2.15807e-06,0
-2.90012e-05,1.38033e-05,-8.8076e-06,9.70481e-06,2.39713e-05,-5.10621e-06,-6.78101e-06,1.51414e-06,0
-2.75406e-05,1.20206e-05,-8.9669e-06,7.35715e-06,2.32371e-05,-4.45806e-06,-3.8084e-06,1.07831e-06,0
-2.86953e-05,1.05509e-05,-8.4608e-06,4.82131e-06,2.00558e-05,-4.55999e-06,2.19444e-06,2.01103e-06,0
-3.16348e-05,1.13905e-05,-8.73696e-06,2.04352e-06,1.7023e-05,-4.30645e-06,6.3001e-06,1.28117e-06,0
-3.34496e-05,1.11649e-05,-9.90088e-06,-4.50967e-06,1.42541e-05,-3.06125e-06,1.00489e-05,1.61399e-07,0
-3.31666e-05,8.34972e-06,-1.12039e-05,-1.22857e-05,1.28469e-05,-3.52724e-06,1.39656e-05,9.40327e-07,0
-3.26458e-05,5.71332e-06,-1.17467e-05,-1.64227e-05,1.47965e-05,-5.96216e-06,1.76442e-05,2.77389e-06,0
-3.19432e-05,5.32868e-06,-1.212e-05,-1.67893e-05,1.6167e-05,-8.03323e-06,2.14319e-05,4.17925e-06,0
-3.15188e-05,5.65872e-06,-1.29699e-05,-1.64146e-05,1.74334e-05,-7.37817e-06,2.82849e-05,2.54843e-06,0
-3.12061e-05,6.25723e-06,-1.3432e-05,-1.62735e-05,1.7821e-05,-5.66765e-06,3.61818e-05,9.06044e-08,0
-3.10318e-05,8.45792e-06,-1.27538e-05,-1.57701e-05,1.71346e-05,-4.3189e-06,3.09945e-05,-4.51126e-07,0
-3.15609e-05,1.20897e-05,-1.10543e-05,-1.28172e-05,1.61742e-05,-3.77703e-06,5.77406e-06,1.19753e-06,0
-3.21993e-05,1.37064e-05,-9.49519e-06,-7.08255e-06,1.42466e-05,-4.22645e-06,-1.81408e-05,2.77887e-06,0
-3.24112e-05,1.24976e-05,-7.34739e-06,-9.07463e-07,1.28354e-05,-5.14652e-06,-2.01729e-05,2.88709e-06,0
-3.24419e-05,1.10228e-05,-5.01839e-06,4.31713e-06,1.37256e-05,-5.53871e-06,-3.94489e-06,2.37239e-06,0
-3.33076e-05,1.0551e-05,-3.5771e-06,8.71777e-06,1.74028e-05,-5.53597e-06,1.53773e-05,3.40442e-06,0
-3.50975e-05,1.05993e-05,-3.30927e-06,1.31006e-05,2.15928e-05,-5.60038e-06,2.71055e-05,4.63836e-06,0
-3.62086e-05,1.11065e-05,-3.86572e-06,1.74007e-05,2.29647e-05,-6.45021e-06,3.08343e-05,4.44094e-06,0
-3.54824e-05,1.31959e-05,-3.73255e-06,1.97277e-05,1.89593e-05,-9.17767e-06,2.97178e-05,3.63442e-06,0
-3.48284e-05,1.59703e-05,-2.92587e-06,1.75939e-05,1.32883e-05,-1.29563e-05,2.59239e-05,3.50883e-06,0
-3.52662e-05,1.7705e-05,-3.00352e-06,1.18031e-05,1.07932e-05,-1.60291e-05,2.05907e-05,3.98688e-06,0
-3.51156e-05,1.753e-05,-3.81388e-06,6.49927e-06,1.05222e-05,-1.73181e-05,1.63825e-05,4.41765e-06,0
-3.38154e-05,1.71872e-05,-4.14965e-06,3.36054e-06,9.77272e-06,-1.79809e-05,1.39749e-05,5.70614e-06,0
-3.27889e-05,1.90673e-05,-5.46601e-06,1.19182e-06,8.87834e-06,-1.80348e-05,1.36821e-05,5.41106e-06,0
-3.14157e-05,2.12851e-05,-6.88541e-06,1.00221e-07,7.97688e-06,-1.75514e-05,1.40388e-05,3.57832e-06,0
-2.99597e-05,2.11852e-05,-7.04603e-06,-7.5832e-07,8.10287e-06,-1.72348e-05,9.91622e-06,3.61773e-06,0
-2.77316e-05,1.90347e-05,-9.1284e-06,-1.6497e-06,8.02901e-06,-1.54016e-05,2.14212e-06,5.68912e-06,0
-2.66492e-05,1.69463e-05,-1.15631e-05,-2.65917e-06,6.68005e-06,-1.22665e-05,-2.69989e-06,5.88967e-06,0
-2.76762e-05,1.61579e-05,-1.18617e-05,-3.40284e-06,4.59816e-06,-1.08513e-05,-1.69213e-06,3.8491e-06,0
-2.79386e-05,1.4811e-05,-1.0935e-05,-3.55871e-06,1.67941e-06,-1.14924e-05,1.98576e-06,3.09074e-06,0
-2.73452e-05,1.37926e-05,-9.65861e-06,-5.34995e-06,2.62238e-07,-1.23416e-05,2.6601e-06,4.26152e-06,0
-2.65346e-05,1.56556e-05,-9.24823e-06,-7.57483e-06,6.6514e-07,-1.31338e-05,1.13652e-06,6.46853e-06,0
-2.71291e-05,1.76003e-05,-8.8863e-06,-8.23315e-06,1.55195e-06,-1.34951e-05,7.80356e-07,8.53458e-06,0
-2.80385e-05,1.64165e-05,-9.56286e-06,-7.4471e-06,1.04529e-06,-1.49884e-05,3.04553e-06,8.88734e-06,0
-2.83993e-05,1.49027e-05,-1.13817e-05,-6.37741e-06,-1.15015e-06,-1.74581e-05,4.55776e-06,8.08513e-06,0
-2.87351e-05,1.22839e-05,-1.24374e-05,-6.41904e-06,-2.06908e-06,-1.83187e-05,3.87425e-06,7.38293e-06,0
-2.86183e-05,1.00416e-05,-1.2097e-05,-7.57059e-06,-7.8197e-07,-1.71893e-05,2.78886e-06,7.33442e-06,0
-2.75478e-05,1.01604e-05,-1.10661e-05,-7.99749e-06,1.24021e-06,-1.54373e-05,2.84222e-06,6.67422e-06,0
-2.71828e-05,1.06859e-05,-9.71587e-06,-6.87216e-06,3.66375e-06,-1.51952e-05,3.48581e-06,5.46637e-06,0
-2.73766e-05,1.0285e-05,-9.46227e-06,-6.12934e-06,6.12961e-06,-1.56023e-05,3.71339e-06,3.94419e-06,0
-2.6415e-05,8.70439e-06,-9.6039e-06,-6.27032e-06,7.92105e-06,-1.5123e-05,2.78777e-06,2.4397e-06,0
-2.54949e-05,7.89452e-06,-8.92361e-06,-6.18968e-06,9.13841e-06,-1.3453e-05,-3.02316e-07,1.45241e-06,0
-2.65069e-05,7.53978e-06,-7.42552e-06,-6.24314e-06,9.93793e-06,-1.16115e-05,-1.78688e-06,1.04509e-06,0
-2.76317e-05,7.95127e-06,-5.57677e-06,-6.89729e-06,1.17526e-05,-1.08977e-05,7.70291e-07,1.47291e-06,0
-2.69225e-05,8.7663e-06,-4.5909e-06,-6.66944e-06,1.51896e-05,-1.09208e-05,5.52637e-06,2.25422e-06,0
-2.61778e-05,7.81789e-06,-3.53016e-06,-5.72458e-06,1.8187e-05,-1.07194e-05,8.50134e-06,2.83388e-06,0
-2.61146e-05,3.63792e-06,-2.19e-06,-5.33761e-06,1.92673e-05,-1.00117e-05,1.01788e-05,2.19783e-06,0
-2.7172e-05,-1.00192e-07,-6.34129e-07,-5.0992e-06,1.75268e-05,-8.97923e-06,1.19197e-05,1.40391e-06,0
-2.97423e-05,-2.11263e-07,7.34484e-07,-5.76526e-06,1.36357e-05,-8.50222e-06,1.41889e-05,5.70812e-07,0
-3.15691e-05,3.27198e-06,1.95552e-06,-7.48851e-06,1.11747e-05,-9.02854e-06,1.57613e-05,-1.0076e-06,0
-3.11978e-05,6.14256e-06,1.42977e-06,-7.5796e-06,1.37782e-05,-1.02891e-05,1.58361e-05,-3.18572e-06,0
-3.00553e-05,5.98957e-06,-7.45614e-07,-4.83775e-06,1.78277e-05,-1.1491e-05,1.6171e-05,-5.26313e-06,0
-2.94891e-05,3.38675e-06,-2.99324e-06,-6.79058e-07,1.83055e-05,-1.15822e-05,1.74128e-05,-5.21455e-06,0
-3.04696e-05,-1.00889e-07,-4.08883e-06,2.32462e-06,1.51601e-05,-1.05412e-05,1.89884e-05,-3.7038e-06,0
-3.11677e-05,-1.34512e-06,-1.66147e-06,3.76402e-06,1.01966e-05,-7.97205e-06,2.26849e-05,-3.53982e-06,0
-3.0727e-05,-1.4745e-06,1.06129e-06,5.78439e-06,6.85577e-06,-4.58821e-06,2.68525e-05,-2.73059e-06,0
-3.006e-05,-7.72003e-07,-3.35599e-07,7.85435e-06,7.4304e-06,-3.49128e-06,2.92468e-05,-1.49089e-06,0
-3.00584e-05,8.49639e-07,-4.49909e-06,6.75521e-06,9.97391e-06,-3.11843e-06,3.02399e-05,-5.86363e-07,0
-3.07444e-05,1.14036e-06,-7.83694e-06,3.87515e-06,1.01383e-05,-2.71293e-06,2.96904e-05,-8.21756e-07,0
-3.20304e-05,3.08611e-08,-8.87158e-06,1.74651e-06,8.22176e-06,-2.63073e-06,2.74984e-05,-2.2293e-06,0
-3.25611e-05,-7.00952e-07,-9.19703e-06,-1.47001e-06,5.96435e-06,-1.26387e-06,2.48148e-05,-2.82206e-06,0
-3.201e-05,-6.40386e-07,-9.02571e-06,-6.01183e-06,4.29167e-06,-3.18224e-07,2.2938e-05,-4.28578e-06,0
-3.09496e-05,9.98681e-08,-8.10308e-06,-1.09299e-05,3.67034e-06,-8.30458e-07,2.23463e-05,-5.79415e-06,0
-3.01253e-05,2.17046e-06,-7.87516e-06,-1.38891e-05,4.41309e-06,-3.2469e-06,2.22029e-05,-5.10949e-06,0
-2.99262e-05,5.16727e-06,-9.39477e-06,-1.15258e-05,6.49177e-06,-5.7815e-06,1.97501e-05,-3.95422e-06,0
-2.93286e-05,8.49194e-06,-1.18052e-05,-5.17865e-06,7.05891e-06,-6.89834e-06,1.66445e-05,-4.06764e-06,0
-2.83196e-05,1.237e-05,-1.44868e-05,-7.91533e-08,6.08681e-06,-6.27008e-06,1.56291e-05,-3.63581e-06,0
-2.68274e-05,1.77316e-05,-1.61584e-05,-6.8136e-07,5.53907e-06,-4.68337e-06,1.66318e-05,-2.97049e-06,0
-2.69512e-05,2.56741e-05,-1.55818e-05,-8.13363e-06,4.94788e-06,-2.70528e-06,1.76509e-05,-2.84132e-06,0
-2.88009e-05,3.29701e-05,-1.36081e-05,-2.15026e-05,3.15319e-06,-1.05564e-06,1.79327e-05,-2.25327e-06,0
-3.04701e-05,3.76668e-05,-1.15401e-05,-3.71548e-05,1.24002e-06,-3.59646e-07,1.66584e-05,-3.43413e-07,0
-3.0012e-05,3.88543e-05,-9.82043e-06,-5.07697e-05,9.56571e-07,1.51365e-07,1.39228e-05,1.63207e-06,0
-2.81413e-05,3.51021e-05,-8.74278e-06,-5.35952e-05,2.92421e-06,2.85845e-07,9.12896e-06,2.65999e-06,0
-2.72562e-05,2.81375e-05,-8.44629e-06,-3.32022e-05,6.76365e-06,-4.49282e-07,1.42753e-06,4.44937e-06,0
-2.78763e-05,2.12579e-05,-8.48832e-06,9.75215e-06,1.18599e-05,-1.90159e-06,-1.19255e-05,6.87196e-06,0
-2.78011e-05,1.39152e-05,-9.15701e-06,5.22188e-05,1.74118e-05,-3.02613e-06,-2.81139e-05,7.37075e-06,0
-2.78333e-05,6.20616e-06,-9.70839e-06,7.02257e-05,2.24183e-05,-3.3633e-06,-3.47285e-05,6.15699e-06,0
-2.92354e-05,-9.91001e-08,-9.78264e-06,6.48136e-05,2.60423e-05,-2.38092e-06,-2.62155e-05,5.21004e-06,0
-3.02785e-05,-2.9724e-06,-8.76585e-06,5.09906e-05,2.7977e-05,-1.48856e-06,-8.48084e-06,4.84232e-06,0
-3.00749e-05,-1.55783e-06,-7.57032e-06,3.57317e-05,2.84202e-05,-1.23683e-06,1.00751e-05,4.55947e-06,0
-2.88274e-05,1.71191e-07,-6.94362e-06,1.77346e-05,2.68375e-05,-1.42442e-06,2.58831e-05,4.21016e-06,0
-2.75094e-05,1.42038e-06,-6.01142e-06,1.34741e-06,2.20305e-05,-3.21821e-06,4.16674e-05,3.36604e-06,0
-2.69741e-05,1.32554e-06,-6.29229e-06,-6.61331e-06,1.67932e-05,-5.08817e-06,5.45368e-05,1.20431e-06,0
-2.82145e-05,4.29546e-07,-7.73409e-06,-8.2916e-06,1.54177e-05,-5.48989e-06,6.00391e-05,-1.14017e-06,0
-3.00171e-05,-1.25491e-06,-7.0706e-06,-1.44873e-05,1.63739e-05,-5.30874e-06,5.98754e-05,-1.88044e-06,0
-3.09369e-05,-4.17854e-06,-4.10725e-06,-2.96724e-05,1.71491e-05,-5.50777e-06,5.55487e-05,-5.02626e-07,0
-3.09354e-05,-5.87081e-06,-3.97426e-06,-4.53505e-05,1.78598e-05,-6.56814e-06,5.04724e-05,2.02741e-06,0
-3.03422e-05,-4.96243e-06,-7.75937e-06,-5.04461e-05,1.76567e-05,-7.03028e-06,4.51595e-05,3.95102e-06,0
-2.97889e-05,-5.83143e-07,-1.10896e-05,-4.6515e-05,1.69778e-05,-6.5179e-06,3.92346e-05,3.65821e-06,0
-3.02104e-05,5.29012e-06,-1.3609e-05,-3.98319e-05,1.69171e-05,-6.47161e-06,3.56385e-05,1.57337e-06,0
-3.1396e-05,8.67541e-06,-1.51106e-05,-3.23803e-05,1.52765e-05,-7.75755e-06,3.6542e-05,-2.34303e-08,0
-3.23506e-05,7.98052e-06,-1.56981e-05,-2.85575e-05,1.25704e-05,-9.63488e-06,3.76161e-05,1.16586e-07,0
-3.27139e-05,5.72315e-06,-1.58737e-05,-3.00452e-05,1.1555e-05,-1.01011e-05,3.61268e-05,1.56292e-06,0
-3.26806e-05,4.52349e-06,-1.54688e-05,-3.17688e-05,1.22344e-05,-8.94408e-06,3.13629e-05,2.47709e-06,0
-3.22489e-05,5.73931e-06,-1.43289e-05,-2.70218e-05,1.25857e-05,-8.44207e-06,2.40681e-05,4.71684e-07,0
-3.21939e-05,8.60194e-06,-1.29523e-05,-1.89222e-05,1.21896e-05,-8.06572e-06,1.6432e-05,-2.38725e-06,0
-3.17198e-05,1.08867e-05,-1.16949e-05,-1.26093e-05,1.06446e-05,-7.27244e-06,1.03954e-05,-2.99526e-06,0
-3.02297e-05,1.20359e-05,-1.03663e-05,-8.86724e-06,8.12568e-06,-7.61555e-06,6.00737e-06,-1.88752e-06,0
-2.88195e-05,1.35569e-05,-1.04866e-05,-6.4601e-06,7.11249e-06,-7.85902e-06,6.30188e-07,-7.77493e-07,0
-2.71807e-05,1.61042e-05,-1.23829e-05,-5.86782e-06,9.63315e-06,-8.12752e-06,-5.16076e-06,-6.31452e-07,0
-2.64952e-05,1.8649e-05,-1.47928e-05,-8.74047e-06,1.37277e-05,-9.64588e-06,-8.80737e-06,-1.01442e-06,0
-2.88567e-05,1.91596e-05,-1.58566e-05,-1.33726e-05,1.57512e-05,-1.1318e-05,-8.25605e-06,-1.15454e-06,0
-3.18415e-05,1.74401e-05,-1.60734e-05,-1.48476e-05,1.49286e-05,-1.10955e-05,-5.33349e-06,-7.96935e-07,0
-3.21741e-05,1.60349e-05,-1.49762e-05,-1.15665e-05,1.16011e-05,-8.95942e-06,-2.8226e-06,8.77988e-08,0
-3.05502e-05,1.58739e-05,-1.23042e-05,-7.89742e-06,7.91035e-06,-6.31347e-06,-1.88316e-06,5.07721e-07,0
-2.90788e-05,1.58956e-05,-9.56485e-06,-3.882e-06,6.05516e-06,-5.22059e-06,8.24653e-07,-2.25898e-07,0
-2.88798e-05,1.4761e-05,-8.98197e-06,3.609e-06,6.99011e-06,-5.86811e-06,7.6691e-06,-2.44354e-06,0
-2.93091e-05,1.26902e-05,-1.15074e-05,1.31563e-05,7.69772e-06,-6.77636e-06,1.68539e-05,-4.96283e-06,0
-2.96986e-05,1.15234e-05,-1.36133e-05,1.95041e-05,5.93733e-06,-7.64803e-06,2.44297e-05,-6.33096e-06,0
-2.90607e-05,1.17544e-05,-1.26652e-05,1.91357e-05,3.93867e-06,-7.78214e-06,2.81073e-05,-6.97481e-06,0
-2.8874e-05,1.08597e-05,-1.17571e-05,1.42175e-05,4.70959e-06,-8.30368e-06,2.76987e-05,-4.52714e-06,0
-3.01269e-05,6.53872e-06,-1.31309e-05,7.29541e-06,7.6708e-06,-9.6761e-06,1.85315e-05,-1.8365e-06,0
-3.09059e-05,1.93317e-06,-1.38797e-05,1.48321e-06,9.97545e-06,-9.47491e-06,-5.27967e-06,-1.5115e-06,0
-3.07349e-05,3.14708e-06,-1.27615e-05,4.46051e-07,1.11503e-05,-7.57432e-06,-3.32413e-05,-2.39597e-06,0
-2.975e-05,6.83337e-06,-1.16413e-05,-1.78311e-06,1.15276e-05,-5.69404e-06,-4.566e-05,-3.72271e-06,0
-2.85163e-05,9.0343e-06,-1.11938e-05,-7.35655e-06,1.23137e-05,-6.18697e-06,-3.73064e-05,-4.21686e-06,0
-2.818e-05,1.03115e-05,-1.18559e-05,-1.04783e-05,1.23158e-05,-7.97233e-06,-1.78392e-05,-3.14723e-06,0
-2.84137e-05,1.12658e-05,-1.22855e-05,-8.77296e-06,1.08545e-05,-9.81774e-06,1.19731e-06,-1.8651e-06,0
-2.78176e-05,1.39788e-05,-1.18755e-05,-5.04235e-06,9.17789e-06,-1.25602e-05,1.45051e-05,-2.45295e-06,0
-2.76791e-05,1.71847e-05,-1.19221e-05,-3.11222e-06,8.87066e-06,-1.6036e-05,2.11302e-05,-2.81258e-06,0
-2.80464e-05,1.8267e-05,-1.18615e-05,-3.3014e-06,9.10643e-06,-2.03989e-05,2.34657e-05,-3.10772e-06,0
-2.75908e-05,1.65753e-05,-1.03676e-05,-3.79762e-06,9.01104e-06,-2.37141e-05,2.31399e-05,-2.98821e-06,0
-2.73134e-05,1.46527e-05,-8.77447e-06,-2.96433e-06,1.03057e-05,-2.50079e-05,1.92608e-05,-1.41474e-06,0
-2.83225e-05,1.42664e-05,-8.92849e-06,-1.04535e-06,1.28029e-05,-2.44697e-05,1.24691e-05,3.32683e-07,0
-2.96756e-05,1.57094e-05,-9.52334e-06,4.57733e-07,1.50225e-05,-2.31545e-05,6.58902e-06,-1.10621e-07,0
-2.99957e-05,1.88129e-05,-9.30318e-06,1.25037e-06,1.60008e-05,-2.22985e-05,3.82753e-06,-2.57531e-06,0
-2.97052e-05,2.12382e-05,-8.13255e-06,3.49638e-06,1.66178e-05,-2.21414e-05,2.12205e-06,-5.78346e-06,0
-2.90442e-05,2.09787e-05,-7.0259e-06,5.71323e-06,1.74359e-05,-2.2253e-05,-3.9408e-06,-8.04906e-06,0
-2.84419e-05,1.99403e-05,-7.19788e-06,4.67856e-06,1.7242e-05,-2.21628e-05,-1.36677e-05,-7.96235e-06,0
-2.87278e-05,2.12038e-05,-8.43144e-06,8.91794e-07,1.43918e-05,-2.08664e-05,-1.51387e-05,-6.91019e-06,0
-2.98433e-05,2.46633e-05,-9.34752e-06,-1.70349e-06,1.09128e-05,-1.85933e-05,3.41299e-06,-6.33471e-06,0
-3.02253e-05,2.66961e-05,-8.91081e-06,-1.6074e-06,1.1326e-05,-1.75908e-05,3.6136e-05,-6.25282e-06,0
-2.90397e-05,2.6681e-05,-7.5372e-06,-2.75579e-07,1.66311e-05,-1.82291e-05,6.4448e-05,-5.02151e-06,0
-2.86491e-05,2.6694e-05,-6.85839e-06,-1.9441e-08,2.26792e-05,-1.90944e-05,7.92342e-05,-3.14822e-06,0
-2.97853e-05,2.66829e-05,-5.71498e-06,-1.47027e-06,2.57801e-05,-1.8722e-05,8.11819e-05,-3.90562e-07,0
-3.10479e-05,2.7239e-05,-5.93821e-06,-1.28055e-06,2.68679e-05,-1.76003e-05,7.32711e-05,1.26995e-06,0
-3.08283e-05,2.78504e-05,-8.01134e-06,-1.21215e-06,2.75366e-05,-1.66838e-05,5.67782e-05,1.4984e-06,0
-3.02284e-05,2.83628e-05,-9.58702e-06,-2.58798e-06,2.96615e-05,-1.72242e-05,2.79151e-05,1.79826e-06,0
-3.19632e-05,2.8256e-05,-9.67077e-06,-2.94956e-06,3.1467e-05,-1.87978e-05,-6.77513e-06,2.19818e-06,0
-3.21817e-05,2.79099e-05,-7.02697e-06,-2.20226e-06,3.05325e-05,-1.96862e-05,-2.97645e-05,3.37028e-06,0
-3.02771e-05,2.68961e-05,-4.23727e-06,-2.089e-06,2.93849e-05,-1.99177e-05,-3.94885e-05,4.07072e-06,0
-2.96581e-05,2.35159e-05,-4.29484e-06,-3.18969e-06,2.71583e-05,-2.01991e-05,-4.32896e-05,3.58304e-06,0
-3.06547e-05,2.05832e-05,-6.64873e-06,-6.69408e-06,2.48207e-05,-2.09344e-05,-4.46835e-05,1.46259e-06,0
-3.20624e-05,2.05389e-05,-8.07772e-06,-1.22786e-05,2.37731e-05,-2.15558e-05,-5.07086e-05,4.29926e-07,0
-3.284e-05,2.21661e-05,-8.48679e-06,-1.57922e-05,2.35696e-05,-2.19999e-05,-5.73192e-05,1.00954e-06,0
-3.28288e-05,2.3231e-05,-8.22407e-06,-1.48135e-05,2.37735e-05,-2.15844e-05,-4.76539e-05,2.71753e-06,0
-3.32589e-05,2.35503e-05,-7.05218e-06,-9.84127e-06,2.47946e-05,-1.98624e-05,-1.64511e-05,4.82088e-06,0
-3.55629e-05,2.16967e-05,-5.53046e-06,-4.40969e-06,2.58839e-05,-1.92879e-05,2.45547e-05,4.7546e-06,0
-3.78637e-05,1.89845e-05,-5.04681e-06,4.17637e-07,2.59637e-05,-1.99136e-05,5.72168e-05,2.38883e-06,0
-3.90495e-05,1.77945e-05,-5.14167e-06,6.49015e-06,2.63326e-05,-1.97769e-05,7.21821e-05,9.58928e-07,0
-3.89319e-05,1.83924e-05,-4.07245e-06,1.3052e-05,2.59525e-05,-1.8525e-05,6.9763e-05,2.93382e-06,0
-3.71709e-05,1.9698e-05,-3.49556e-06,1.73133e-05,2.42478e-05,-1.71867e-05,5.34869e-05,5.4757e-06,0
-3.47675e-05,2.0456e-05,-4.41878e-06,1.91719e-05,2.20493e-05,-1.60421e-05,3.24291e-05,6.06563e-06,0
-3.36525e-05,2.0338e-05,-5.49894e-06,1.99317e-05,2.00911e-05,-1.46876e-05,1.72862e-05,4.87619e-06,0
-3.3545e-05,1.9714e-05,-5.41028e-06,1.9106e-05,1.76017e-05,-1.27267e-05,1.06407e-05,3.72775e-06,0
-3.38782e-05,2.0968e-05,-4.68604e-06,1.387e-05,1.58317e-05,-1.07536e-05,8.34522e-06,2.89588e-06,0
-3.39268e-05,2.18772e-05,-3.9353e-06,5.00239e-06,1.63994e-05,-9.53304e-06,8.19516e-06,2.52332e-06,0
-3.29213e-05,1.97528e-05,-3.92635e-06,-2.36715e-06,1.90229e-05,-7.41557e-06,9.32689e-06,3.13407e-06,0
-3.16969e-05,1.66779e-05,-4.48225e-06,-5.97357e-06,1.8638e-05,-5.27953e-06,8.92013e-06,4.27247e-06,0
-3.16626e-05,1.55094e-05,-3.50979e-06,-5.2718e-06,1.31333e-05,-4.87795e-06,5.16504e-06,3.21213e-06,0
-3.24028e-05,1.46168e-05,-2.53978e-06,-4.06245e-07,6.80979e-06,-5.45995e-06,2.01001e-06,6.25083e-07,0
-3.25392e-05,1.25077e-05,-3.68853e-06,5.68572e-06,3.34607e-06,-5.30493e-06,2.16181e-06,-4.87278e-07,0
-3.39467e-05,1.06799e-05,-4.54868e-06,5.5425e-06,3.06731e-06,-5.94225e-06,4.2752e-06,1.94061e-06,0
-3.5268e-05,1.0094e-05,-4.78038e-06,-5.27697e-06,2.22742e-06,-6.15994e-06,4.47839e-06,5.87681e-06,0
-3.54517e-05,9.69168e-06,-4.67308e-06,-2.11629e-05,3.33588e-07,-3.89292e-06,1.70458e-06,6.72798e-06,0
-3.55401e-05,8.28913e-06,-4.20081e-06,-3.44264e-05,3.87652e-07,-3.27138e-06,-2.18977e-06,6.17722e-06,0
-3.34781e-05,7.98565e-06,-3.41239e-06,-4.12472e-05,3.3659e-06,-5.42891e-06,-7.00404e-06,6.47615e-06,0
-3.14049e-05,8.36289e-06,-2.77139e-06,-4.22477e-05,7.76023e-06,-6.85979e-06,-9.8079e-06,7.0259e-06,0
-3.12902e-05,9.07768e-06,-3.15633e-06,-4.01523e-05,9.7709e-06,-5.61705e-06,-7.87814e-06,6.7997e-06,0
-3.12894e-05,1.19456e-05,-3.14941e-06,-3.97463e-05,8.11645e-06,-3.34459e-06,-2.34172e-06,6.51118e-06,0
-3.10169e-05,1.48003e-05,-2.34726e-06,-4.65334e-05,2.68386e-06,-1.47887e-06,3.86197e-06,6.36273e-06,0
-3.12385e-05,1.68385e-05,-1.50234e-06,-5.69577e-05,-2.68609e-06,-7.3707e-07,1.00834e-05,6.47634e-06,0
-3.17622e-05,1.77263e-05,-3.28177e-06,-6.19933e-05,-3.20223e-06,-1.00845e-06,1.56342e-05,6.12198e-06,0
-3.21152e-05,1.73029e-05,-6.38029e-06,-5.77259e-05,-6.69608e-08,-2.18215e-06,1.88754e-05,4.78545e-06,0
-3.18846e-05,1.50257e-05,-7.72373e-06,-4.78428e-05,3.60694e-06,-2.10341e-06,1.97372e-05,3.71361e-06,0
-2.9433e-05,1.1163e-05,-6.72388e-06,-3.52606e-05,6.99496e-06,-1.66619e-07,2.01988e-05,3.65713e-06,0
-2.6953e-05,8.11083e-06,-5.20822e-06,-2.11694e-05,1.10082e-05,1.4561e-06,2.2023e-05,4.52656e-06,0
-2.79819e-05,7.35825e-06,-5.27505e-06,-8.84651e-06,1.2446e-05,1.24998e-06,2.38533e-05,5.85164e-06,0
-3.07788e-05,8.19053e-06,-6.2358e-06,-7.95031e-07,1.09469e-05,-4.46428e-07,2.32467e-05,6.66694e-06,0
-3.15998e-05,1.01347e-05,-6.55526e-06,2.27383e-06,9.84907e-06,-1.01581e-06,1.89531e-05,7.2594e-06,0
-3.04344e-05,1.35876e-05,-6.10776e-06,1.53088e-06,9.39872e-06,-5.74822e-07,1.12185e-05,8.39405e-06,0
-2.88511e-05,1.5642e-05,-6.04423e-06,-1.76551e-07,7.64285e-06,-4.13381e-07,1.84751e-06,8.76367e-06,0
-2.79558e-05,1.516e-05,-7.59094e-06,-4.62294e-07,7.08251e-06,-1.15758e-06,-4.57105e-06,7.58132e-06,0
-2.83e-05,1.4399e-05,-1.00646e-05,-1.77687e-07,1.02012e-05,-1.48722e-06,-5.33473e-06,5.55252e-06,0
-2.9035e-05,1.36176e-05,-1.06758e-05,9.38281e-08,1.49626e-05,-1.23421e-06,-1.72406e-06,3.37471e-06,0
-2.94777e-05,1.10301e-05,-1.10741e-05,1.63968e-06,1.7231e-05,-1.70374e-06,5.58776e-06,1.24553e-06,0
-3.01716e-05,9.87897e-06,-1.16827e-05,4.37586e-06,1.68409e-05,-3.57977e-06,1.63806e-05,-2.02522e-07,0
-3.09105e-05,1.17075e-05,-1.13061e-05,6.86611e-06,1.55133e-05,-6.55911e-06,2.82907e-05,8.87009e-07,0
-2.95285e-05,1.31275e-05,-1.07528e-05,9.57505e-06,1.7307e-05,-8.77683e-06,3.79765e-05,2.5945e-06,0
-2.77168e-05,1.10188e-05,-1.05939e-05,1.35854e-05,2.69577e-05,-7.48969e-06,4.14666e-05,2.32761e-06,0
-2.78056e-05,8.50317e-06,-1.02992e-05,1.54325e-05,3.52897e-05,-5.25033e-06,3.24698e-05,1.70057e-06,0
-2.85388e-05,8.50905e-06,-9.94584e-06,1.35931e-05,3.33356e-05,-7.25148e-06,1.26084e-05,1.39893e-06,0
-2.82831e-05,6.64562e-06,-1.15974e-05,9.85119e-06,2.53167e-05,-1.24606e-05,-8.13209e-06,2.07411e-06,0
-2.79067e-05,3.69049e-06,-1.46116e-05,6.82022e-06,1.92445e-05,-1.59088e-05,-2.08823e-05,8.10878e-07,0
-2.82347e-05,2.05881e-06,-1.53725e-05,5.96102e-06,1.73656e-05,-1.44392e-05,-2.40471e-05,-1.06646e-06,0
-2.8254e-05,1.38525e-06,-1.43394e-05,4.02037e-06,1.53917e-05,-1.28714e-05,-2.16615e-05,-6.05573e-09,0
-2.73982e-05,3.11929e-06,-1.38026e-05,2.17105e-06,1.28531e-05,-1.29528e-05,-1.37793e-05,2.38566e-06,0
-2.56937e-05,5.66253e-06,-1.39618e-05,9.90008e-07,1.10952e-05,-1.15108e-05,-1.19995e-06,3.93725e-06,0
-2.43718e-05,7.12721e-06,-1.39347e-05,7.34272e-07,9.99118e-06,-9.41908e-06,1.13914e-05,3.60736e-06,0
-2.4128e-05,7.8128e-06,-1.37323e-05,1.40097e-06,8.70872e-06,-9.04797e-06,1.99367e-05,2.67316e-06,0
-2.73194e-05,9.04705e-06,-1.40352e-05,1.73889e-06,7.34975e-06,-1.00205e-05,2.525e-05,1.50443e-06,0
-3.14513e-05,1.06844e-05,-1.48552e-05,1.94049e-06,6.76675e-06,-1.04564e-05,2.94269e-05,-3.66043e-07,0
-3.23887e-05,1.19807e-05,-1.57698e-05,4.62101e-06,7.21872e-06,-1.08773e-05,3.30727e-05,-2.28239e-06,0
-3.08937e-05,1.17514e-05,-1.50715e-05,1.1188e-05,1.04746e-05,-1.10928e-05,3.52694e-05,-2.76772e-06,0
-2.94508e-05,1.01353e-05,-1.33469e-05,1.79975e-05,1.5965e-05,-1.0691e-05,3.56813e-05,-2.88745e-06,0
-2.86376e-05,9.68773e-06,-1.19121e-05,2.19884e-05,2.03248e-05,-9.91251e-06,3.33806e-05,-3.54537e-06,0
-2.71108e-05,9.77359e-06,-1.04844e-05,2.17409e-05,2.01138e-05,-8.81687e-06,2.76219e-05,-4.38222e-06,0
-2.58373e-05,9.15933e-06,-9.31645e-06,1.90328e-05,1.58885e-05,-7.51063e-06,2.1427e-05,-4.18615e-06,0
-2.62681e-05,7.32452e-06,-9.55567e-06,1.5026e-05,1.04067e-05,-6.37018e-06,1.8761e-05,-3.43339e-06,0
-2.82851e-05,5.22835e-06,-1.03471e-05,1.09216e-05,6.82688e-06,-5.14272e-06,2.0961e-05,-4.30484e-06,0
-2.94411e-05,4.70478e-06,-1.09301e-05,7.39616e-06,6.50681e-06,-4.53287e-06,2.50899e-05,-6.55783e-06,0
-2.87835e-05,6.03395e-06,-1.11421e-05,3.75136e-06,7.38173e-06,-5.70088e-06,2.81468e-05,-7.33024e-06,0
-2.80489e-05,7.5038e-06,-1.04558e-05,-1.7702e-06,5.91467e-06,-8.03236e-06,2.85082e-05,-5.9544e-06,0
-2.87486e-05,8.4189e-06,-8.78563e-06,-7.86033e-06,3.94882e-06,-8.99541e-06,2.25593e-05,-4.9918e-06,0
-2.955e-05,1.01457e-05,-6.04863e-06,-1.23964e-05,4.2254e-06,-8.50822e-06,8.51638e-06,-4.84979e-06,0
-2.90874e-05,1.34371e-05,-3.65089e-06,-1.48338e-05,4.02679e-06,-8.59805e-06,-3.50601e-06,-3.99353e-06,0
-2.84295e-05,1.70401e-05,-4.23899e-06,-1.67976e-05,1.40733e-06,-8.39822e-06,-4.34396e-06,-3.74845e-06,0
-2.92662e-05,1.85745e-05,-5.55868e-06,-1.55393e-05,-2.21353e-06,-5.75036e-06,6.16709e-06,-2.76915e-06,0
-3.04528e-05,1.97405e-05,-5.74119e-06,-1.07009e-05,-4.82682e-06,-1.93468e-06,2.07109e-05,-1.56231e-06,0
-3.13046e-05,2.13459e-05,-6.44041e-06,-7.34723e-06,-4.83902e-06,-1.65769e-06,3.3154e-05,-3.88127e-06,0
-3.02294e-05,2.07372e-05,-6.91051e-06,-3.97083e-06,-5.29005e-06,-3.71816e-06,4.27475e-05,-6.72555e-06,0
-2.88583e-05,1.90899e-05,-6.52693e-06,-1.48185e-06,-8.59351e-06,-6.17432e-06,4.66011e-05,-6.49216e-06,0
-2.88752e-05,1.7685e-05,-5.15854e-06,-2.57022e-06,-1.0637e-05,-7.42581e-06,4.59639e-05,-4.59955e-06,0
-2.89237e-05,1.89117e-05,-4.0494e-06,-8.30659e-06,-1.04886e-05,-6.68967e-06,4.17885e-05,-4.12928e-06,0
-2.89958e-05,2.02116e-05,-3.57361e-06,-1.35706e-05,-8.55717e-06,-5.02398e-06,3.43076e-05,-3.90466e-06,0
-2.86324e-05,1.9239e-05,-3.52854e-06,-1.53758e-05,-6.38469e-06,-3.74896e-06,2.63306e-05,-4.31894e-06,0
-2.86547e-05,1.76766e-05,-3.26982e-06,-1.4954e-05,-4.23735e-06,-5.03411e-06,1.97295e-05,-5.42766e-06,0
-2.93252e-05,1.7487e-05,-3.00048e-06,-1.29035e-05,-7.75169e-07,-8.26966e-06,1.65534e-05,-5.79235e-06,0
-3.05379e-05,1.92354e-05,-2.66292e-06,-9.6342e-06,3.79496e-06,-1.06513e-05,1.59995e-05,-4.94144e-06,0
-3.05991e-05,2.06513e-05,-1.73594e-06,-3.99951e-06,9.73743e-06,-1.01288e-05,1.61348e-05,-3.4694e-06,0
-2.96835e-05,2.1276e-05,-1.07469e-06,3.24475e-06,1.74906e-05,-7.89481e-06,1.54373e-05,-1.90287e-06,0
-2.92801e-05,2.3123e-05,-3.33664e-07,8.33374e-06,2.40768e-05,-6.7784e-06,1.44904e-05,-8.37196e-07,0
-3.04058e-05,2.69072e-05,7.70209e-07,8.15233e-06,2.58915e-05,-8.4822e-06,1.43911e-05,-9.5799e-07,0
-3.20115e-05,2.97416e-05,1.51732e-06,5.41237e-06,2.53952e-05,-1.00746e-05,1.46702e-05,-1.04602e-06,0
-3.24033e-05,2.95011e-05,1.36835e-06,2.55441e-06,2.6568e-05,-9.33735e-06,1.40405e-05,-4.31431e-07,0
-3.17646e-05,2.47744e-05,1.08947e-06,-8.32324e-07,2.83751e-05,-7.3871e-06,1.07627e-05,1.40461e-06,0
-3.07848e-05,1.83939e-05,1.16229e-06,-6.95576e-06,2.74056e-05,-6.34727e-06,6.70187e-06,3.71085e-06,0
-2.89641e-05,1.14513e-05,1.2728e-06,-1.44468e-05,2.32506e-05,-6.49807e-06,3.54517e-06,5.11489e-06,0
-2.78851e-05,4.82174e-06,6.77769e-07,-1.71311e-05,1.74459e-05,-7.81798e-06,9.35148e-07,4.85137e-06,0
-2.98884e-05,9.37224e-08,-7.57164e-07,-1.11289e-05,1.21205e-05,-9.3849e-06,-1.63953e-06,4.11522e-06,0
-3.22548e-05,-1.59304e-06,-3.60453e-06,-1.14514e-06,1.03583e-05,-8.89338e-06,-3.83309e-06,2.36118e-06,0
-3.21823e-05,7.98272e-07,-6.27868e-06,5.8161e-06,1.39867e-05,-8.52209e-06,-2.64713e-06,1.10451e-06,0
-3.1659e-05,4.30238e-06,-6.90576e-06,9.05791e-06,1.85184e-05,-9.77923e-06,1.90545e-06,3.1596e-06,0
-3.13666e-05,5.54185e-06,-6.45365e-06,9.91912e-06,2.05295e-05,-1.16472e-05,5.58154e-06,7.37434e-06,0
-3.0576e-05,6.32293e-06,-7.23799e-06,6.9958e-06,1.96868e-05,-1.23931e-05,6.89845e-06,1.00124e-05,0
-2.99164e-05,8.21008e-06,-9.6605e-06,6.54758e-07,1.70203e-05,-1.15035e-05,7.343e-06,9.03186e-06,0
-3.08221e-05,1.00282e-05,-1.05837e-05,-2.40566e-06,1.52707e-05,-1.00574e-05,8.63794e-06,6.26922e-06,0
-3.398e-05,1.10938e-05,-8.41598e-06,-5.25816e-07,1.53247e-05,-8.10631e-06,9.19681e-06,3.44449e-06,0
-3.57673e-05,1.23564e-05,-5.96795e-06,1.00178e-06,1.57357e-05,-7.66959e-06,8.31265e-06,2.54225e-06,0
-3.48169e-05,1.06298e-05,-5.55771e-06,7.0561e-07,1.38158e-05,-1.00054e-05,8.01473e-06,1.28844e-06,0
-3.2915e-05,4.30579e-06,-6.33898e-06,-1.13208e-06,1.13739e-05,-1.37843e-05,6.48701e-06,-1.00248e-06,0
-3.18192e-05,8.46385e-07,-8.50631e-06,-4.54676e-06,1.13092e-05,-1.53857e-05,3.42184e-06,-1.37486e-06,0
-3.02537e-05,3.65141e-06,-1.06418e-05,-7.75713e-06,1.27336e-05,-1.46498e-05,4.47349e-06,-3.41677e-07,0
-2.88897e-05,9.92558e-06,-1.16789e-05,-9.80415e-06,1.34217e-05,-1.42817e-05,9.42579e-06,6.39208e-07,0
-2.91316e-05,1.34333e-05,-1.06341e-05,-1.12941e-05,1.36043e-05,-1.53159e-05,1.45021e-05,1.22324e-06,0
-2.99948e-05,1.57424e-05,-7.74127e-06,-1.2427e-05,1.32937e-05,-1.69293e-05,1.69462e-05,2.15822e-06,0
-3.01211e-05,2.27938e-05,-5.58489e-06,-1.15851e-05,1.24899e-05,-1.7019e-05,1.72559e-05,3.16694e-06,0
-2.98228e-05,3.34306e-05,-4.9136e-06,-1.04031e-05,1.29967e-05,-1.50192e-05,1.68e-05,4.31466e-06,0
-3.02389e-05,4.15675e-05,-4.86618e-06,-1.07853e-05,1.71193e-05,-1.23503e-05,1.49663e-05,5.07772e-06,0
-2.98481e-05,4.36415e-05,-4.31717e-06,-1.07433e-05,2.41435e-05,-1.03918e-05,1.33734e-05,5.31943e-06,0
-2.84619e-05,3.93638e-05,-3.88691e-06,-9.91598e-06,2.94999e-05,-7.95274e-06,1.33623e-05,5.32029e-06,0
-2.81598e-05,2.89836e-05,-4.34047e-06,-1.07563e-05,2.93012e-05,-6.54723e-06,1.34302e-05,4.46291e-06,0
-2.92836e-05,1.61015e-05,-6.43637e-06,-1.2949e-05,2.46942e-05,-8.06183e-06,1.11766e-05,3.11456e-06,0
-2.95949e-05,6.16057e-06,-9.48581e-06,-1.26558e-05,2.10463e-05,-1.14249e-05,8.50469e-06,2.64253e-06,0
-2.93532e-05,1.22141e-06,-1.15466e-05,-8.2591e-06,2.07802e-05,-1.33224e-05,7.69929e-06,3.26082e-06,0
-2.9659e-05,-1.71988e-06,-1.24015e-05,-3.0771e-06,2.28459e-05,-1.3431e-05,7.31365e-06,3.97505e-06,0
-3.00424e-05,-5.80381e-06,-1.28704e-05,-1.27902e-06,2.50365e-05,-1.279e-05,5.05604e-06,5.07961e-06,0
-2.96673e-05,-9.96846e-06,-1.34287e-05,-1.20141e-06,2.6425e-05,-1.19693e-05,3.71372e-06,7.17446e-06,0
-2.90983e-05,-1.00931e-05,-1.32512e-05,-8.04472e-07,2.6301e-05,-1.2491e-05,5.02902e-06,8.10712e-06,0
-2.86958e-05,-6.92395e-06,-1.2821e-05,-2.69345e-07,2.43079e-05,-1.46001e-05,6.82767e-06,6.97483e-06,0
-2.92486e-05,-2.41555e-06,-1.20431e-05,-1.1818e-06,2.41676e-05,-1.54828e-05,6.38728e-06,5.43781e-06,0
-3.10583e-05,1.24438e-06,-1.07339e-05,-2.42825e-06,2.43773e-05,-1.27434e-05,3.9552e-06,6.07071e-06,0
-3.33456e-05,6.92074e-06,-1.16586e-05,-1.63197e-06,2.12001e-05,-1.03188e-05,4.55011e-06,8.26324e-06,0
