ch1,ch2,ch3,ch4,ch5,ch6,ch7,ch8,class
-2.11551e-05,5.48024e-06,-3.80306e-07,-2.28985e-05,3.67715e-07,1.20576e-06,6.20255e-05,-3.82985e-06,0
-1.85654e-05,4.68627e-06,-1.83366e-06,7.77219e-05,-1.1253e-05,-2.61746e-05,6.32916e-05,-4.89115e-06,0
-1.96947e-05,5.75885e-06,-7.44264e-06,0.000112895,-2.70816e-05,-5.07623e-05,6.11001e-05,-3.00713e-06,0
-2.18041e-05,6.44091e-06,-1.28533e-05,7.05465e-05,-3.59779e-05,-6.48522e-05,5.782e-05,-2.4748e-07,0
-2.32389e-05,7.88792e-06,-1.48766e-05,-9.78021e-06,-3.15458e-05,-7.42955e-05,5.33013e-05,1.59621e-07,0
-2.38855e-05,1.37424e-05,-1.51054e-05,-7.01098e-05,-2.18341e-05,-7.11981e-05,4.70052e-05,-7.25294e-07,0
-2.49128e-05,2.28536e-05,-1.37765e-05,-7.45472e-05,-1.88303e-05,-4.41707e-05,3.98852e-05,-1.90224e-06,0
-2.67891e-05,2.88501e-05,-9.95823e-06,-4.09366e-05,-2.26911e-05,-1.12322e-05,3.45561e-05,-3.62272e-06,0
-2.79604e-05,2.85062e-05,-5.77314e-06,-1.36869e-05,-2.61352e-05,2.90173e-06,3.18114e-05,-4.11917e-06,0
-3.2258e-05,2.45627e-05,-4.4114e-06,-2.48392e-05,-3.07348e-05,-1.75155e-06,2.98847e-05,-3.093e-06,0
-4.6752e-05,2.10592e-05,-7.99189e-06,-8.49145e-05,-4.68804e-05,-1.54744e-05,2.68768e-05,-1.97397e-06,0
-6.90766e-05,1.78256e-05,-1.69089e-05,-0.000158413,-7.54131e-05,-3.41199e-05,2.28023e-05,-1.83689e-06,0
-8.86128e-05,1.32946e-05,-2.59429e-05,-0.000187662,-0.000101294,-5.04536e-05,1.80778e-05,-3.19057e-06,0
-9.64264e-05,1.01592e-05,-2.9064e-05,-0.000170457,-0.00010999,-5.32303e-05,1.38374e-05,-3.08536e-06,0
-9.3259e-05,7.99143e-06,-2.49063e-05,-0.000148016,-9.91695e-05,-4.67144e-05,1.16542e-05,-1.08598e-06,0
-8.21302e-05,7.70347e-06,-1.69931e-05,-0.000105018,-7.03507e-05,-3.85154e-05,1.171e-05,4.4307e-08,0
-5.83559e-05,9.97333e-06,-7.41686e-06,-2.9402e-06,-3.28532e-05,-2.55661e-05,1.20192e-05,-4.12298e-07,0
-2.62014e-05,1.78607e-05,5.81316e-07,0.000160539,-7.80681e-06,-6.86342e-06,1.06969e-05,-1.83561e-06,0
3.22261e-06,2.9146e-05,1.71793e-06,0.000315288,3.85315e-05,1.13224e-05,7.75648e-06,-3.13062e-06,0
2.55667e-05,3.52217e-05,-4.49125e-06,0.000380767,0.000172947,1.43532e-05,5.264e-06,-2.42614e-06,0
4.34384e-05,3.61844e-05,-1.27953e-05,0.000336639,0.000308486,-1.45102e-06,4.4691e-06,-4.74666e-07,0
5.33305e-05,3.48597e-05,-1.58602e-05,0.00019098,0.000331001,-2.06039e-05,5.24461e-06,5.38875e-08,0
4.60199e-05,3.58871e-05,-1.28439e-05,4.52387e-05,0.000286654,-2.74055e-05,7.29358e-06,3.85829e-07,0
2.4824e-05,3.78769e-05,-5.2991e-06,-2.22758e-05,0.000216487,-2.14946e-05,8.97082e-06,2.04354e-06,0
2.61577e-06,3.91192e-05,5.40627e-06,-1.80139e-05,0.000110077,-8.89766e-06,7.4269e-06,5.54313e-06,0
-8.34612e-06,4.27438e-05,1.74454e-05,2.69115e-06,-2.14818e-05,9.90943e-06,5.34784e-06,7.70716e-06,0
-9.33184e-06,4.79219e-05,2.91842e-05,5.58424e-06,-0.000124657,2.86708e-05,5.595e-06,7.52659e-06,0
-1.20061e-05,4.825e-05,3.46608e-05,1.38708e-05,-0.000169707,3.42377e-05,5.93131e-06,7.86267e-06,0
-2.29387e-05,3.90484e-05,3.02126e-05,5.2808e-05,-0.000169409,2.24614e-05,6.64926e-06,1.03849e-05,0
-3.70706e-05,2.54729e-05,2.04933e-05,9.94045e-05,-0.000137745,5.0339e-06,9.44386e-06,1.40198e-05,0
-4.54156e-05,1.60689e-05,1.16172e-05,0.000100685,-8.12899e-05,-1.80936e-06,1.35311e-05,1.72924e-05,0
-4.52266e-05,1.27984e-05,6.04718e-06,4.72514e-05,-9.68218e-06,3.80308e-06,1.53655e-05,1.94517e-05,0
-4.02204e-05,1.09109e-05,2.63452e-06,-3.92099e-05,4.92518e-05,1.0707e-05,1.507e-05,1.82682e-05,0
-3.55222e-05,9.24202e-06,-5.46741e-08,-0.000110036,7.5317e-05,1.17032e-05,1.45358e-05,1.3233e-05,0
-3.32334e-05,1.176e-05,-1.95858e-06,-0.000109921,7.79334e-05,8.01404e-06,1.56142e-05,5.91879e-06,0
-3.18132e-05,2.4058e-05,-1.71374e-06,-6.5191e-05,8.44445e-05,3.42938e-06,1.81331e-05,6.31592e-07,0
-2.77552e-05,4.73165e-05,-9.36937e-07,-0.000120767,8.47035e-05,-1.09005e-06,2.01246e-05,1.50711e-06,0
-2.31507e-05,6.84083e-05,-1.72406e-06,-0.000274991,6.31843e-05,-5.44606e-06,1.99557e-05,5.86995e-06,0
-2.17265e-05,6.96335e-05,-1.79662e-06,-0.000347792,3.6197e-05,-5.62809e-06,1.79657e-05,9.06476e-06,0
-2.30834e-05,5.03215e-05,3.49803e-07,-0.00026099,2.25484e-05,-1.30013e-06,1.55705e-05,1.05572e-05,0
-2.51692e-05,1.76262e-05,1.33848e-06,-5.6011e-05,2.39966e-05,8.40707e-08,1.21664e-05,1.10019e-05,0
-2.31201e-05,-1.32095e-05,3.15458e-06,0.000135227,3.55508e-05,1.20894e-06,1.11501e-05,1.07405e-05,0
-1.80016e-05,-2.91117e-05,7.98955e-06,0.000216081,3.72377e-05,5.69612e-06,1.35311e-05,1.09713e-05,0
-1.61036e-05,-3.36479e-05,4.48386e-06,0.00017148,1.39666e-06,6.11793e-06,1.48045e-05,1.11659e-05,0
-1.80674e-05,-3.29685e-05,-4.66929e-06,2.94873e-05,-4.62998e-05,1.37151e-06,1.39994e-05,9.35647e-06,0
-2.28028e-05,-3.26115e-05,-9.07286e-06,-9.96597e-05,-5.3699e-05,-6.33097e-06,1.29175e-05,8.13972e-06,0
-2.58733e-05,-3.13766e-05,-8.94683e-06,-0.000154268,-2.91352e-05,-1.63798e-05,1.42611e-05,7.88357e-06,0
-2.73027e-05,-2.90796e-05,-7.49158e-06,-0.000139367,-8.27932e-06,-2.83222e-05,1.65914e-05,7.88113e-06,0
-3.04964e-05,-2.50539e-05,-1.06966e-05,-0.00011514,-3.28494e-06,-4.19903e-05,1.60354e-05,8.0992e-06,0
-3.28618e-05,-1.97004e-05,-1.60916e-05,-0.000102696,-2.01991e-06,-4.80242e-05,1.10875e-05,7.66905e-06,0
-3.30537e-05,-1.48372e-05,-1.9754e-05,-9.4899e-05,7.41276e-06,-3.22354e-05,4.25208e-06,7.02623e-06,0
-3.2714e-05,-1.08678e-05,-2.17761e-05,-9.22858e-05,2.26672e-05,-3.05025e-06,6.75224e-07,7.52465e-06,0
-3.31255e-05,-7.00336e-06,-2.33898e-05,-6.09681e-05,3.44819e-05,1.20999e-05,9.20977e-07,8.63587e-06,0
-3.41938e-05,-1.02635e-06,-2.26379e-05,1.03155e-05,3.7819e-05,5.27284e-06,2.27923e-06,7.96747e-06,0
-3.5075e-05,5.55293e-06,-1.90182e-05,6.25802e-05,3.56075e-05,-5.66675e-06,2.96637e-06,5.82279e-06,0
-3.45386e-05,1.06235e-05,-1.54676e-05,4.04064e-05,2.89828e-05,-8.00195e-06,4.16863e-06,3.9718e-06,0
-3.30093e-05,1.33409e-05,-1.42072e-05,-1.14139e-05,2.23583e-05,-6.2925e-06,6.43671e-06,2.64883e-06,0
-3.17724e-05,1.59119e-05,-1.39747e-05,-1.80635e-05,1.81126e-05,-6.84289e-06,8.28179e-06,1.52811e-06,0
-3.18648e-05,1.82839e-05,-1.19192e-05,3.31867e-05,1.94599e-05,-1.02455e-05,9.88819e-06,1.29949e-06,0
-3.20955e-05,2.00251e-05,-7.51362e-06,4.70601e-05,2.94317e-05,-1.31669e-05,1.22615e-05,1.69874e-06,0
-3.06967e-05,2.172e-05,-2.66769e-06,-3.36337e-05,4.70643e-05,-1.14823e-05,1.43697e-05,2.2993e-06,0
-2.83759e-05,2.37162e-05,-3.61241e-06,-0.000130301,5.44476e-05,-6.13282e-06,1.65199e-05,1.39993e-06,0
-2.83103e-05,2.36531e-05,-9.95215e-06,-0.000153622,4.09295e-05,-3.95072e-06,1.88753e-05,-6.57473e-07,0
-3.09553e-05,2.0659e-05,-1.47964e-05,-0.000114155,2.31055e-05,-8.19667e-06,2.07392e-05,-2.71378e-06,0
-3.2823e-05,1.61926e-05,-1.76296e-05,-4.85654e-05,1.77356e-05,-1.6554e-05,2.06713e-05,-5.24521e-06,0
-2.83506e-05,1.36105e-05,-2.06071e-05,-1.29867e-05,1.75136e-05,-2.22598e-05,1.86849e-05,-8.38258e-06,0
-1.17089e-05,1.41801e-05,-2.14297e-05,-9.33103e-06,1.29407e-05,-2.2681e-05,1.73919e-05,-1.0345e-05,0
7.52332e-06,1.73435e-05,-1.96072e-05,4.4269e-06,7.73119e-07,-2.29095e-05,1.61152e-05,-1.25057e-05,0
9.22504e-06,2.08225e-05,-1.57399e-05,3.44831e-05,-1.66955e-05,-2.38594e-05,1.58061e-05,-1.51027e-05,0
-4.53155e-06,2.22713e-05,-1.40138e-05,8.08252e-05,-3.17902e-05,-2.49615e-05,1.52992e-05,-1.50775e-05,0
-1.95785e-05,2.55129e-05,-1.42188e-05,0.00013834,-4.0973e-05,-2.50269e-05,1.35101e-05,-1.27836e-05,0
-2.90756e-05,2.95404e-05,-1.29766e-05,0.000191054,-3.24427e-05,-2.2515e-05,1.16085e-05,-8.93015e-06,0
-3.34013e-05,3.12944e-05,-9.91956e-06,0.000189563,-2.50214e-06,-1.85343e-05,8.58393e-06,-6.99417e-06,0
-3.87604e-05,3.25949e-05,-4.66568e-06,0.000133116,1.42505e-05,-1.92084e-05,6.0088e-06,-8.67665e-06,0
-4.45862e-05,3.96697e-05,1.13334e-06,6.66092e-05,-2.37166e-06,-1.8426e-05,4.30659e-06,-1.09073e-05,0
-5.07756e-05,5.03034e-05,6.11771e-06,2.71859e-05,-1.41016e-05,9.31188e-06,4.31852e-06,-1.15131e-05,0
-5.51139e-05,5.48976e-05,1.32966e-05,2.71187e-05,-1.50868e-07,4.9845e-05,6.8627e-06,-9.92488e-06,0
-5.61738e-05,4.82392e-05,1.95888e-05,5.99389e-05,1.9343e-05,5.83294e-05,9.93483e-06,-5.98577e-06,0
-5.60432e-05,3.63821e-05,1.90364e-05,0.000103257,2.52274e-05,3.34216e-05,1.05175e-05,-1.26551e-06,0
-5.51325e-05,3.00004e-05,1.46105e-05,0.000120697,1.98464e-05,7.19104e-06,9.19259e-06,1.23652e-06,0
-5.41125e-05,2.85723e-05,1.05361e-05,9.67975e-05,1.35111e-05,-2.64462e-06,8.20689e-06,9.42945e-08,0
-5.29419e-05,2.47878e-05,6.36527e-06,5.02159e-05,8.74981e-06,-3.09035e-06,7.99855e-06,-2.72782e-06,0
-5.23085e-05,1.5494e-05,6.63566e-07,1.38964e-05,1.20684e-06,-4.96766e-06,8.72478e-06,-4.47692e-06,0
-5.22709e-05,2.22989e-06,-3.17333e-06,2.38625e-06,-6.77214e-07,-1.16858e-05,9.83633e-06,-4.8557e-06,0
-5.2562e-05,-1.46332e-05,-4.68989e-06,7.31245e-06,1.67326e-05,-1.95258e-05,1.07838e-05,-4.31532e-06,0
-5.03843e-05,-2.8411e-05,-6.72156e-06,1.82974e-05,4.09951e-05,-2.2977e-05,1.13789e-05,-3.85052e-06,0
-4.50695e-05,-2.84339e-05,-1.04195e-05,3.10166e-05,5.11845e-05,-2.19451e-05,1.33667e-05,-4.62808e-06,0
-3.97036e-05,-1.3845e-05,-1.22357e-05,3.33763e-05,4.89072e-05,-2.05249e-05,1.92136e-05,-6.36222e-06,0
-3.67211e-05,4.82122e-06,-9.81453e-06,7.75261e-06,4.86533e-05,-2.19402e-05,2.64556e-05,-7.19383e-06,0
-3.4241e-05,1.66238e-05,-7.03627e-06,-4.01294e-05,4.78569e-05,-2.4119e-05,2.90498e-05,-5.52845e-06,0
-3.19882e-05,1.74044e-05,-8.68236e-06,-7.5692e-05,5.85527e-05,-2.34913e-05,2.78341e-05,-2.98961e-06,0
-3.15385e-05,1.25119e-05,-1.43975e-05,-7.23018e-05,0.000101929,-1.93531e-05,2.53977e-05,-1.4407e-06,0
-3.20104e-05,9.44823e-06,-2.17549e-05,-3.7334e-05,0.00012174,-1.36751e-05,2.28454e-05,1.24897e-07,0
-3.18055e-05,9.80142e-06,-2.50256e-05,-2.723e-06,7.22824e-05,-1.06878e-05,1.8945e-05,2.28926e-06,0
-3.00131e-05,1.27457e-05,-2.10029e-05,-8.26019e-06,-1.36055e-05,-9.82659e-06,1.31275e-05,3.52131e-06,0
-2.86806e-05,1.32421e-05,-1.63333e-05,-3.49231e-05,-9.79746e-05,-9.75911e-06,8.59749e-06,4.05651e-06,0
-3.20381e-05,9.89338e-06,-1.38874e-05,-2.73517e-05,-0.000155201,-1.19386e-05,7.53594e-06,4.78725e-06,0
-3.79518e-05,7.02334e-06,-1.11854e-05,1.72753e-05,-0.000164228,-1.34513e-05,8.86069e-06,4.1579e-06,0
-3.93741e-05,7.62229e-06,-1.03887e-05,7.06436e-05,-0.000127378,-1.3488e-05,8.73764e-06,3.14777e-06,0
-3.66752e-05,1.10201e-05,-1.35121e-05,7.42169e-05,-9.07052e-05,-1.2496e-05,7.81736e-06,3.93383e-06,0
-3.37038e-05,1.51095e-05,-1.77728e-05,3.21514e-05,-5.08102e-05,-1.18024e-05,9.76291e-06,6.26982e-06,0
-3.08975e-05,1.946e-05,-2.06944e-05,2.30248e-05,9.44994e-06,-1.07559e-05,1.30726e-05,7.75798e-06,0
-3.12246e-05,2.22458e-05,-2.12249e-05,3.85492e-05,6.65879e-05,-1.02503e-05,1.41915e-05,7.05491e-06,0
-3.50591e-05,2.09989e-05,-2.17585e-05,5.61007e-06,9.23143e-05,-1.26805e-05,1.3469e-05,4.52397e-06,0
-3.85695e-05,1.53787e-05,-2.30919e-05,-8.76073e-05,8.42328e-05,-1.73452e-05,1.19877e-05,1.52756e-06,0
-4.03523e-05,1.05375e-05,-2.11173e-05,-0.000165124,6.31667e-05,-2.17696e-05,1.18514e-05,5.34272e-07,0
-3.93373e-05,9.87388e-06,-1.54007e-05,-0.000172433,4.32863e-05,-2.45244e-05,1.41349e-05,6.3663e-07,0
-3.78549e-05,1.08265e-05,-1.07653e-05,-0.000121622,3.09888e-05,-2.56746e-05,1.83746e-05,6.84989e-08,0
-3.73457e-05,1.09384e-05,-9.4895e-06,-4.89822e-05,2.24165e-05,-2.3343e-05,2.04632e-05,-1.04994e-06,0
-3.58202e-05,1.02253e-05,-8.38674e-06,1.80656e-05,2.80768e-05,-1.7665e-05,1.85411e-05,-7.73477e-07,0
-3.24292e-05,9.81089e-06,-5.40622e-06,6.5336e-05,5.65055e-05,-1.10791e-05,1.39154e-05,-3.50226e-07,0
-3.00455e-05,9.26368e-06,-1.55239e-06,6.94557e-05,8.75716e-05,-7.66929e-06,7.41948e-06,-1.70998e-06,0
-2.84015e-05,8.80537e-06,2.42831e-06,1.86504e-05,8.25424e-05,-7.45805e-06,1.7029e-06,-3.49965e-06,0
-2.51467e-05,9.77835e-06,4.15659e-06,-4.32415e-05,4.82319e-05,-7.02187e-06,-3.85544e-07,-3.45089e-06,0
-2.14965e-05,1.25452e-05,1.81163e-06,-6.11694e-05,1.90529e-05,-4.94705e-06,6.62317e-07,-1.21024e-06,0
-2.00683e-05,1.7282e-05,-2.79296e-06,-4.81577e-05,3.2064e-06,-4.26906e-06,1.21647e-06,3.72107e-06,0
-2.18431e-05,2.94768e-05,-6.12351e-06,-4.21181e-05,-1.27698e-05,-6.47055e-06,1.8336e-06,1.60658e-05,0
-2.58166e-05,5.5194e-05,-8.04153e-06,-4.48644e-05,-2.59197e-05,-9.22537e-06,1.65897e-06,3.25818e-05,0
-2.89665e-05,8.13255e-05,-8.53176e-06,-4.31677e-05,-2.3523e-05,-8.39478e-06,4.54416e-07,3.88251e-05,0
-2.77815e-05,8.71705e-05,-8.37545e-06,-4.32705e-05,-1.16714e-05,-3.5148e-06,8.82245e-07,3.24716e-05,0
-2.43484e-05,6.80259e-05,-9.74128e-06,-4.98906e-05,-5.20238e-06,2.00469e-07,3.48949e-06,2.05642e-05,0
-2.30391e-05,3.15568e-05,-1.35924e-05,-5.36775e-05,-1.34233e-05,-1.05287e-06,1.01697e-05,1.4232e-06,0
-2.39184e-05,-2.09818e-06,-1.92771e-05,-4.94694e-05,-3.30527e-05,-5.17114e-06,2.21134e-05,-1.71825e-05,0
-2.50553e-05,-2.26306e-05,-2.21081e-05,-5.2493e-05,-4.95692e-05,-9.27444e-06,3.26504e-05,-2.47322e-05,0
-2.57186e-05,-3.11882e-05,-2.15903e-05,-7.26201e-05,-5.68636e-05,-1.24575e-05,2.45237e-05,-2.46564e-05,0
-2.51547e-05,-3.02649e-05,-2.01668e-05,-9.61057e-05,-5.76741e-05,-1.31056e-05,-1.08877e-05,-2.34944e-05,0
-2.37591e-05,-2.8354e-05,-2.06214e-05,-9.82716e-05,-4.47989e-05,-1.06055e-05,-5.14548e-05,-2.27887e-05,0
-2.21801e-05,-2.72774e-05,-2.11183e-05,-4.91008e-05,-1.44621e-05,-6.0281e-06,-7.14658e-05,-1.97517e-05,0
-2.13103e-05,-2.34573e-05,-1.87191e-05,5.08747e-05,3.40131e-05,-2.57031e-06,-6.5361e-05,-1.44026e-05,0
-2.05571e-05,-1.72496e-05,-1.3136e-05,0.000141092,9.1828e-05,1.00667e-07,-4.11501e-05,-9.38068e-06,0
-2.02974e-05,-1.31575e-05,-5.38167e-06,0.000121026,0.000124858,1.1654e-06,-9.07429e-06,-6.82258e-06,0
-2.06734e-05,-1.05611e-05,-1.8013e-06,-4.38559e-05,0.000108714,-4.43538e-07,2.3404e-05,-5.97594e-06,0
-2.2188e-05,-9.06984e-06,-4.768e-06,-0.000219445,6.95281e-05,-3.06173e-06,4.85995e-05,-4.20225e-06,0
-2.51399e-05,-9.02338e-06,-1.26905e-05,-0.000247849,4.60046e-05,-6.54021e-06,6.24574e-05,-7.23255e-07,0
-2.80446e-05,-8.4156e-06,-2.04771e-05,-0.00011816,4.57251e-05,-1.0853e-05,6.70989e-05,3.11784e-06,0
-2.97498e-05,-3.78408e-06,-2.22407e-05,5.96168e-05,5.15636e-05,-1.38277e-05,6.67743e-05,5.49869e-06,0
-3.02021e-05,2.98297e-06,-1.59117e-05,0.000178094,5.3105e-05,-1.34877e-05,6.36593e-05,5.7941e-06,0
-3.06094e-05,7.11907e-06,-6.14444e-06,0.00023634,4.99309e-05,-1.23248e-05,5.90368e-05,3.6844e-06,0
-3.06005e-05,8.95327e-06,1.99717e-06,0.000249658,4.19518e-05,-1.30096e-05,5.34233e-05,1.37911e-06,0
-3.0324e-05,9.73083e-06,7.15252e-06,0.000187927,3.09187e-05,-1.46428e-05,4.81991e-05,1.21835e-06,0
-3.0284e-05,9.0177e-06,6.56594e-06,7.34106e-05,2.25105e-05,-1.60591e-05,4.3486e-05,4.01938e-06,0
-3.11453e-05,6.60437e-06,8.56857e-08,-1.61174e-05,1.73355e-05,-1.68697e-05,3.87797e-05,8.22422e-06,0
-3.16942e-05,5.1946e-06,-6.59949e-06,-4.18329e-05,1.06268e-05,-1.55873e-05,3.45456e-05,9.98793e-06,0
-3.07811e-05,6.13997e-06,-1.03855e-05,-1.81504e-05,2.37766e-06,-1.4466e-05,3.03592e-05,9.44331e-06,0
-2.94e-05,7.35566e-06,-1.21264e-05,1.771e-05,-2.8657e-06,-1.56933e-05,2.47947e-05,8.35035e-06,0
-2.87603e-05,7.81279e-06,-1.10454e-05,3.99025e-05,-6.95877e-06,-1.61433e-05,1.5666e-05,7.34544e-06,0
-2.77422e-05,8.5279e-06,-9.10949e-06,3.8281e-05,-7.98279e-06,-1.27535e-05,2.82654e-06,7.59709e-06,0
-2.57199e-05,7.99481e-06,-7.09174e-06,-3.57083e-06,-2.45378e-06,-6.94525e-06,-9.51049e-06,8.12007e-06,0
-2.30232e-05,5.20265e-06,-4.38701e-06,-7.74689e-05,9.71108e-07,-4.55127e-06,-1.63531e-05,5.95654e-06,0
-2.02615e-05,7.48367e-07,-1.50543e-06,-0.000108469,-1.48016e-07,-6.52785e-06,-1.5783e-05,2.30858e-06,0
-2.00921e-05,1.12326e-06,1.01638e-06,-7.96659e-05,2.55778e-06,-7.84803e-06,-1.84566e-05,7.21327e-07,0
-2.21603e-05,1.14182e-05,1.46321e-06,-2.6818e-05,1.04094e-05,-7.60562e-06,-3.84551e-05,8.38015e-07,0
-2.35027e-05,2.5833e-05,-1.33892e-06,5.22817e-05,1.36572e-05,-9.40992e-06,-6.19501e-05,7.06892e-07,0
-2.23154e-05,3.4944e-05,-3.15735e-06,0.000105417,1.50718e-05,-1.26256e-05,-6.62031e-05,2.33608e-06,0
-1.89386e-05,3.42041e-05,-1.70122e-06,9.16543e-05,1.59081e-05,-1.38123e-05,-5.6536e-05,4.90144e-06,0
-1.66418e-05,2.59006e-05,-1.00319e-07,3.41995e-05,1.18619e-05,-1.32051e-05,-4.77591e-05,6.1457e-06,0
-1.71031e-05,1.71869e-05,-2.942e-06,-1.83166e-05,7.22696e-06,-1.10659e-05,-3.82574e-05,7.08762e-06,0
-1.87444e-05,1.19805e-05,-8.73296e-06,-4.68933e-05,4.29293e-06,-8.52617e-06,-2.04653e-05,7.83811e-06,0
-2.02074e-05,1.10378e-05,-1.21312e-05,-7.05078e-05,3.86769e-08,-6.60054e-06,4.21153e-06,8.42677e-06,0
-2.047e-05,1.33733e-05,-1.32768e-05,-7.49638e-05,-5.07247e-06,-5.58262e-06,2.85093e-05,8.06334e-06,0
-1.97063e-05,1.62739e-05,-1.41849e-05,-4.11254e-05,-5.51387e-06,-5.26711e-06,4.80825e-05,7.01386e-06,0
-1.70528e-05,1.96914e-05,-1.45319e-05,7.31535e-06,-1.56927e-06,-3.99311e-06,6.30539e-05,5.89123e-06,0
-1.02107e-05,2.21104e-05,-1.14274e-05,3.31029e-05,1.34321e-06,-1.6448e-06,7.38421e-05,5.20671e-06,0
-1.0182e-06,1.96899e-05,-5.34499e-06,2.81634e-05,1.99397e-06,1.99013e-06,8.06449e-05,5.81003e-06,0
2.32667e-06,1.11766e-05,-1.12806e-07,1.18855e-05,5.42808e-06,5.18113e-06,8.37903e-05,7.15212e-06,0
-5.0838e-06,2.65296e-06,2.51095e-06,-4.43142e-06,1.31825e-05,4.37129e-06,8.39363e-05,7.8936e-06,0
-2.06377e-05,1.14976e-06,3.65855e-06,-2.70706e-05,1.66968e-05,-8.33476e-07,8.18774e-05,7.51939e-06,0
-3.89714e-05,6.36216e-06,2.67918e-06,-4.9005e-05,1.00002e-05,-6.82799e-06,7.54599e-05,6.4891e-06,0
-5.42898e-05,9.42461e-06,-5.16151e-07,-5.24381e-05,1.43391e-06,-1.17476e-05,6.51334e-05,5.66996e-06,0
-6.2979e-05,5.42312e-06,-4.35285e-06,-4.23695e-05,-1.58759e-06,-1.64223e-05,5.59605e-05,4.98846e-06,0
-6.44529e-05,-2.90061e-06,-7.21977e-06,-3.94448e-05,-6.9451e-06,-2.0353e-05,4.97883e-05,4.10524e-06,0
-6.24637e-05,-1.37529e-05,-8.48408e-06,-4.19229e-05,-2.46891e-05,-2.19999e-05,4.29546e-05,3.37438e-06,0
-6.12656e-05,-2.68088e-05,-1.0372e-05,-2.77756e-05,-4.10931e-05,-2.10089e-05,3.16406e-05,1.8291e-06,0
-5.95169e-05,-3.75207e-05,-1.34134e-05,8.13822e-07,-3.50226e-05,-1.81414e-05,1.84881e-05,1.14958e-06,0
-5.6507e-05,-3.97671e-05,-1.82069e-05,8.10434e-06,-9.50013e-06,-1.72104e-05,9.03957e-06,2.08975e-06,0
-5.08127e-05,-3.46776e-05,-2.25786e-05,-1.84785e-05,2.00793e-05,-2.36651e-05,4.587e-06,2.25618e-06,0
-4.11843e-05,-2.86768e-05,-2.30015e-05,-6.99806e-05,3.59784e-05,-2.42071e-05,2.73662e-06,1.2026e-06,0
-3.26861e-05,-2.11425e-05,-2.47374e-05,-0.000115083,3.48604e-05,-8.77807e-06,3.839e-07,3.8543e-07,0
-2.82869e-05,-5.59168e-06,-2.7372e-05,-0.000109067,2.97466e-05,2.50195e-06,-2.11435e-06,2.23237e-07,0
-2.75027e-05,1.51882e-05,-2.65271e-05,-5.68157e-05,3.32267e-05,-9.37089e-08,-2.58733e-06,-3.2349e-07,0
-2.67963e-05,3.19216e-05,-2.05138e-05,2.89496e-05,3.96877e-05,-6.05424e-06,-1.90329e-06,-6.61609e-07,0
-2.00429e-05,3.67722e-05,-1.05767e-05,0.000131565,2.78694e-05,-5.78205e-06,-3.77159e-07,-9.6795e-07,0
-9.32917e-06,2.82005e-05,-1.10628e-06,0.000172696,6.55094e-06,-9.45873e-07,1.6239e-07,-9.25641e-07,0
-4.93497e-06,1.13096e-05,6.52235e-06,0.000102268,1.61218e-07,7.02366e-07,-1.08126e-07,-4.06715e-07,0
-9.38823e-06,-3.6346e-06,8.9617e-06,-1.36411e-05,9.178e-06,-1.46573e-06,1.56013e-06,-1.28397e-06,0
-1.92117e-05,-8.7014e-06,6.15607e-06,-8.18228e-05,1.91152e-05,-5.09215e-06,1.83159e-06,-2.05099e-06,0
-3.05161e-05,-4.139e-06,2.18073e-06,-8.44489e-05,2.29151e-05,-8.19996e-06,-4.85481e-07,-1.82123e-06,0
-3.99857e-05,3.92168e-06,2.76108e-07,-5.49794e-05,2.08189e-05,-1.08778e-05,-2.79487e-06,-1.85189e-06,0
-4.81691e-05,8.40338e-06,-2.81843e-07,-1.70381e-05,1.92876e-05,-1.2901e-05,-6.50494e-06,-1.92521e-06,0
-5.7571e-05,8.46745e-06,-1.91735e-06,1.73005e-05,2.51409e-05,-1.42555e-05,-1.4294e-05,-1.86386e-06,0
-6.81447e-05,6.03513e-06,-6.21248e-06,2.68001e-05,3.30366e-05,-1.59589e-05,-2.10116e-05,-1.52784e-06,0
-7.35174e-05,2.89593e-06,-1.30098e-05,-4.30704e-06,3.47579e-05,-1.71405e-05,-2.06854e-05,-1.10626e-06,0
-6.33089e-05,1.86979e-06,-1.92834e-05,-5.10776e-05,2.85396e-05,-1.57339e-05,-1.34565e-05,-7.76419e-07,0
-3.58071e-05,6.24794e-06,-2.10613e-05,-6.93033e-05,2.0529e-05,-1.19765e-05,-2.16547e-06,5.29115e-07,0
-1.03781e-05,1.39349e-05,-1.83256e-05,-5.69512e-05,1.48894e-05,-9.80488e-06,1.00143e-05,2.7893e-06,0
-7.59364e-06,2.0286e-05,-1.72668e-05,-6.45882e-05,1.06283e-05,-1.31042e-05,2.07852e-05,4.27347e-06,0
-2.49414e-05,2.28489e-05,-2.17921e-05,-0.000145862,6.22711e-06,-2.12043e-05,2.74041e-05,3.95964e-06,0
-4.53592e-05,2.39615e-05,-2.75727e-05,-0.000280384,3.2755e-06,-3.20788e-05,2.78792e-05,3.13222e-06,0
-5.69599e-05,2.85331e-05,-2.66896e-05,-0.000342375,3.39367e-06,-4.10271e-05,2.54316e-05,1.34113e-06,0
-5.87201e-05,3.39309e-05,-1.66458e-05,-0.000229949,8.71112e-06,-3.40266e-05,2.49517e-05,-2.4905e-06,0
-5.67515e-05,3.62712e-05,-6.63905e-06,3.51809e-05,2.32859e-05,-6.28675e-06,2.48943e-05,-5.19927e-06,0
-5.64153e-05,3.52062e-05,-3.3299e-06,0.000339236,4.17077e-05,1.59712e-05,2.2719e-05,-3.72044e-06,0
-5.64096e-05,3.33103e-05,-1.71314e-06,0.000486733,4.6656e-05,6.49609e-06,1.81807e-05,2.34327e-07,0
-5.22734e-05,3.35648e-05,-1.60678e-06,0.000397359,3.00224e-05,-1.76813e-05,1.40156e-05,1.91864e-06,0
-4.71343e-05,3.41125e-05,-5.31786e-06,0.000255628,6.1914e-06,-3.13599e-05,1.11266e-05,1.51822e-06,0
-4.60909e-05,3.25604e-05,-8.3071e-06,0.000197546,-8.09751e-06,-3.37509e-05,9.62351e-06,-8.02414e-07,0
-4.55504e-05,3.07135e-05,-4.089e-06,0.000172937,-5.56751e-06,-3.00748e-05,9.16361e-06,-2.24243e-06,0
-4.30885e-05,3.18048e-05,3.09547e-06,0.000146995,4.97334e-05,-2.63756e-05,8.11614e-06,6.42689e-07,0
-3.67598e-05,3.5429e-05,5.53683e-06,0.000125018,0.000147152,-2.03198e-05,7.88456e-06,4.51528e-06,0
-2.30747e-05,3.87299e-05,6.16504e-06,8.4932e-05,0.000191013,-8.03005e-06,8.70786e-06,5.41847e-06,0
-1.13273e-05,4.06192e-05,5.48216e-06,-1.52647e-06,0.000160787,3.41208e-06,9.20598e-06,3.26238e-06,0
-1.04703e-05,4.16829e-05,1.62963e-06,-9.61344e-05,9.5244e-05,5.29835e-06,8.27806e-06,3.28996e-07,0
-1.57979e-05,4.31026e-05,-5.62791e-07,-0.000157276,1.81671e-05,7.39465e-08,7.27785e-06,-2.22396e-06,0
-2.03516e-05,4.44898e-05,9.21277e-07,-0.00018614,-5.10663e-05,-3.703e-06,6.14923e-06,-3.39348e-06,0
-2.25307e-05,4.39874e-05,6.76369e-07,-0.000193831,-0.000112728,-2.60881e-06,5.12031e-06,-4.95767e-06,0
-2.42577e-05,4.11093e-05,-5.37548e-06,-0.000176015,-0.000165456,-3.6811e-07,4.18202e-06,-7.60475e-06,0
-2.35974e-05,3.86809e-05,-1.24503e-05,-0.000121436,-0.000191069,6.91817e-07,1.80526e-06,-9.93693e-06,0
-2.16531e-05,3.97487e-05,-1.31473e-05,-4.9601e-05,-0.0001678,2.19786e-06,-1.15625e-06,-1.08807e-05,0
-2.401e-05,4.2793e-05,-6.943e-06,-1.02931e-05,-9.83062e-05,1.09679e-06,-2.39225e-06,-1.16533e-05,0
-2.87945e-05,4.35496e-05,3.74645e-07,-3.88151e-05,-1.84757e-05,-4.23994e-06,-4.24969e-07,-1.1996e-05,0
-2.76648e-05,4.03409e-05,3.78006e-06,-9.9411e-05,2.71956e-05,-1.06784e-05,3.0854e-06,-1.06892e-05,0
-2.11296e-05,3.64635e-05,3.39133e-06,-0.000127848,3.06772e-05,-1.45693e-05,6.20882e-06,-8.17004e-06,0
-1.49223e-05,3.49556e-05,3.45321e-07,-0.000104724,1.69209e-05,-1.52131e-05,8.51795e-06,-6.0529e-06,0
-1.23768e-05,3.33145e-05,-3.08135e-06,-7.47255e-05,9.09652e-06,-1.22987e-05,9.81153e-06,-5.20121e-06,0
-1.36737e-05,2.81362e-05,-5.2892e-06,-7.55461e-05,1.69344e-05,-7.85876e-06,8.27046e-06,-4.70217e-06,0
-1.66174e-05,1.9875e-05,-8.99321e-06,-7.27183e-05,3.42199e-05,-4.62029e-06,5.97302e-06,-3.79654e-06,0
-2.05253e-05,1.15929e-05,-1.5978e-05,7.82455e-06,4.35269e-05,-3.93166e-06,7.16005e-06,-2.20608e-06,0
-2.26703e-05,4.31896e-06,-2.14274e-05,0.000136644,3.73963e-05,-5.10872e-06,1.09606e-05,-1.35399e-06,0
-2.35422e-05,-2.31084e-06,-2.09491e-05,0.000185815,3.19155e-05,-6.16924e-06,1.32645e-05,-2.81715e-06,0
-2.29495e-05,-4.93738e-06,-1.71152e-05,0.000116682,3.16218e-05,-5.97591e-06,1.40794e-05,-4.58058e-06,0
-2.08475e-05,-4.80996e-06,-1.25368e-05,5.7619e-05,2.27854e-05,-4.4724e-06,1.58621e-05,-3.70844e-06,0
-1.97951e-05,-2.13038e-06,-8.16706e-06,7.20085e-05,4.13182e-06,-2.77531e-06,1.73915e-05,-2.90282e-06,0
-2.05597e-05,1.26229e-06,-4.78609e-06,6.71457e-05,-1.9165e-05,-5.46437e-06,1.75758e-05,-3.10963e-06,0
-2.25655e-05,1.89196e-06,-3.13322e-06,1.95484e-05,-4.13543e-05,-1.48255e-05,1.77328e-05,-2.5136e-06,0
-2.43879e-05,2.08133e-06,-3.05382e-06,-1.10732e-05,-4.86135e-05,-2.13936e-05,1.81735e-05,-6.4058e-08,0
-2.40712e-05,2.15963e-06,8.09539e-07,4.98616e-06,-2.44294e-05,-1.28669e-05,1.77494e-05,2.08012e-06,0
-1.9977e-05,4.5634e-06,1.29001e-05,3.07129e-05,2.37389e-05,3.79537e-06,1.74232e-05,3.20694e-06,0
-1.72917e-05,8.03802e-06,2.35499e-05,1.82937e-05,6.10341e-05,1.01183e-05,1.72747e-05,3.01404e-06,0
-1.85794e-05,1.05596e-05,2.12825e-05,-4.39014e-05,8.38358e-05,4.69155e-06,1.75643e-05,1.15761e-07,0
-2.08771e-05,1.12629e-05,9.25591e-06,-0.000112434,0.00010159,-2.80137e-06,1.71285e-05,-4.30093e-06,0
-2.29015e-05,1.15394e-05,-2.41552e-06,-0.000135628,0.000106702,-5.37427e-06,1.51745e-05,-7.79538e-06,0
-2.4988e-05,1.22694e-05,-7.7512e-06,-0.000101485,0.000110302,-4.73987e-06,1.23576e-05,-7.51951e-06,0
-2.66192e-05,1.2395e-05,-7.47872e-06,-4.93754e-05,0.000114004,-4.34979e-06,8.47079e-06,-4.78438e-06,0
-2.72984e-05,1.21797e-05,-6.75119e-06,-4.60038e-05,8.80459e-05,-5.16959e-06,5.29142e-06,-9.62415e-07,0
-2.79694e-05,1.21715e-05,-8.7262e-06,-8.78004e-05,2.89903e-05,-8.6215e-06,5.20486e-06,2.16909e-06,0
-2.88635e-05,1.29407e-05,-1.17086e-05,-9.37282e-05,-2.34977e-05,-1.85316e-05,8.02254e-06,3.50159e-06,0
-2.96474e-05,1.38229e-05,-1.43515e-05,-2.28708e-05,-4.1354e-05,-3.51924e-05,1.11632e-05,3.75379e-06,0
-2.96405e-05,1.59193e-05,-1.68869e-05,7.3048e-05,-3.33483e-05,-4.46667e-05,1.37336e-05,3.98951e-06,0
-2.78347e-05,1.83115e-05,-1.84642e-05,0.000133892,-1.98076e-05,-3.16016e-05,1.43152e-05,3.26688e-06,0
-2.51635e-05,1.97694e-05,-1.60964e-05,0.000145943,-1.13666e-05,-7.32992e-06,1.32767e-05,1.11728e-06,0
-2.44157e-05,1.94195e-05,-9.57017e-06,0.000128869,-1.51581e-05,3.4576e-06,1.27954e-05,-6.85881e-07,0
-2.61335e-05,1.91583e-05,-2.95015e-06,8.1031e-05,-3.2234e-05,-2.62463e-07,1.22789e-05,-6.63419e-07,0
-2.85734e-05,1.90219e-05,-3.41841e-06,-3.25165e-06,-5.31611e-05,-7.81684e-06,1.08881e-05,1.25288e-06,0
-2.96679e-05,1.82741e-05,-1.15707e-05,-5.41603e-05,-6.53622e-05,-1.34053e-05,9.93313e-06,2.97729e-06,0
-3.00176e-05,1.68255e-05,-2.01497e-05,-2.00525e-05,-6.78353e-05,-1.32983e-05,1.10951e-05,3.95809e-06,0
-2.96259e-05,1.52615e-05,-2.75889e-05,1.57319e-05,-7.13511e-05,-8.90891e-06,1.31516e-05,3.63868e-06,0
-2.85114e-05,1.26814e-05,-3.55557e-05,-6.6641e-06,-7.637e-05,-5.24239e-06,1.37632e-05,2.33988e-06,0
-2.91768e-05,6.87713e-06,-4.05425e-05,-2.30922e-05,-8.21082e-05,-6.05107e-06,1.38909e-05,2.31838e-06,0
-3.14281e-05,2.16482e-06,-3.86814e-05,1.70371e-05,-9.29194e-05,-8.91132e-06,1.35828e-05,4.43449e-06,0
-3.2055e-05,8.37391e-07,-2.91553e-05,5.57627e-05,-0.000104005,-9.66306e-06,1.29726e-05,6.38352e-06,0
-2.99208e-05,2.30217e-06,-1.7346e-05,3.93981e-05,-9.34011e-05,-7.05505e-06,1.15459e-05,8.63764e-06,0
-2.61093e-05,5.23683e-06,-9.59255e-06,5.46274e-06,-3.71981e-05,-1.60279e-06,8.35592e-06,1.0399e-05,0
-2.3575e-05,8.28429e-06,-6.18539e-06,-1.40555e-05,4.00065e-05,2.13727e-06,7.14287e-06,1.09282e-05,0
-2.36906e-05,9.94484e-06,-6.98756e-06,-3.16223e-05,8.76587e-05,1.54122e-06,8.0213e-06,1.16534e-05,0
-2.56857e-05,1.05962e-05,-7.59552e-06,-4.90346e-05,0.000102906,-1.01936e-06,8.68037e-06,1.14146e-05,0
-2.82246e-05,1.14256e-05,-7.13884e-06,-4.07147e-05,0.000118825,-2.01902e-06,9.37529e-06,1.12521e-05,0
-3.03487e-05,1.3193e-05,-7.25574e-06,-1.48553e-05,0.000142056,-2.53337e-06,9.06143e-06,1.15906e-05,0
-3.25497e-05,1.53392e-05,-7.85563e-06,-1.16307e-05,0.000143098,-4.90223e-06,7.29382e-06,1.16041e-05,0
-3.75484e-05,1.52874e-05,-7.12526e-06,-3.75398e-05,0.000110874,-9.95556e-06,7.20561e-06,1.00205e-05,0
-4.67214e-05,1.37905e-05,-4.88442e-06,-4.94164e-05,7.30258e-05,-1.43495e-05,9.30576e-06,6.64834e-06,0
-5.52989e-05,1.28485e-05,-2.08142e-06,-2.12948e-05,5.38305e-05,-1.4062e-05,1.02947e-05,2.17853e-06,0
-5.81136e-05,1.31796e-05,4.54616e-06,1.69618e-05,5.16208e-05,-1.0364e-05,1.03574e-05,-2.83943e-06,0
-5.43717e-05,1.31768e-05,1.71428e-05,2.31863e-05,5.32621e-05,-7.58982e-06,1.2403e-05,-7.88745e-06,0
-4.70101e-05,1.40318e-05,3.54693e-05,-9.12776e-06,5.18921e-05,-7.63038e-06,1.57282e-05,-1.10425e-05,0
-3.8275e-05,1.61807e-05,5.27531e-05,-4.34073e-05,4.88762e-05,-7.60907e-06,1.71997e-05,-1.06199e-05,0
-2.9461e-05,1.65599e-05,6.04599e-05,-4.50845e-05,4.92866e-05,-6.19737e-06,1.72999e-05,-7.819e-06,0
-2.25098e-05,1.32598e-05,5.13675e-05,-1.98074e-05,5.16746e-05,-3.57769e-06,1.85143e-05,-3.06367e-06,0
-1.89403e-05,7.50731e-06,2.48705e-05,4.80427e-06,4.80239e-05,-2.77652e-06,1.97352e-05,5.59473e-06,0
-1.67679e-05,2.35288e-06,-1.23903e-05,1.60411e-05,3.89847e-05,-5.87993e-06,1.83164e-05,2.20765e-05,0
-1.64408e-05,8.80319e-07,-4.97009e-05,2.3411e-05,3.18162e-05,-1.01987e-05,1.3525e-05,4.24853e-05,0
-1.87611e-05,2.39596e-06,-7.70777e-05,3.97733e-05,3.03925e-05,-1.20866e-05,8.63165e-06,5.32089e-05,0
-2.24891e-05,3.56724e-06,-9.00712e-05,5.54279e-05,3.06231e-05,-1.11975e-05,6.78836e-06,5.10669e-05,0
-2.83053e-05,2.01102e-06,-8.94631e-05,5.09424e-05,2.78177e-05,-1.14248e-05,8.58808e-06,3.87901e-05,0
-3.49567e-05,-1.48456e-06,-7.58171e-05,3.13157e-05,2.47996e-05,-1.54219e-05,1.31314e-05,1.31285e-05,0
-4.10942e-05,4.8696e-06,-5.89076e-05,1.51542e-05,2.53625e-05,-1.87418e-05,1.47661e-05,-1.73497e-05,0
-4.50823e-05,2.9949e-05,-4.95082e-05,1.96149e-06,2.31133e-05,-1.85294e-05,1.27884e-05,-3.98295e-05,0
-4.50757e-05,5.26362e-05,-4.1535e-05,-4.77211e-06,1.77197e-05,-1.53666e-05,1.19209e-05,-4.68791e-05,0
-4.19979e-05,4.97086e-05,-3.2154e-05,-2.18831e-06,1.53594e-05,-1.30596e-05,1.2666e-05,-4.19705e-05,0
-3.94635e-05,2.6401e-05,-2.35005e-05,-3.3609e-05,8.28555e-06,-1.30349e-05,1.26525e-05,-3.43633e-05,0
-3.75576e-05,-3.61947e-06,-1.6157e-05,-0.000132864,-6.05559e-06,-1.18825e-05,1.13702e-05,-2.47277e-05,0
-3.55699e-05,-2.48862e-05,-9.81158e-06,-0.000205327,-1.87428e-05,-9.23914e-06,1.04668e-05,-1.47352e-05,0
-3.30103e-05,-3.35722e-05,-6.82146e-06,-0.00015191,-2.70086e-05,-4.34652e-06,9.45838e-06,-5.94349e-06,0
-2.49673e-05,-3.18113e-05,-5.50178e-06,-4.55377e-06,-4.28331e-05,1.51539e-06,8.29115e-06,-8.91058e-07,0
-1.5166e-05,-2.15523e-05,-1.34031e-06,0.000150144,-7.26722e-05,3.18093e-06,6.51955e-06,1.27963e-06,0
-1.12881e-05,-9.78781e-06,7.11151e-06,0.000220556,-8.96738e-05,-1.27148e-06,2.29722e-06,2.5503e-06,0
-1.53317e-05,-2.50128e-06,1.51854e-05,0.00018522,-6.7872e-05,-5.8158e-06,-1.98243e-06,2.45118e-06,0
-2.19134e-05,9.75835e-07,1.76225e-05,0.000108544,-2.5815e-05,-7.24382e-06,-2.6615e-06,1.95927e-06,0
-2.57203e-05,3.96891e-06,1.51699e-05,7.0779e-05,6.59978e-06,-6.27335e-06,-3.3229e-08,3.08561e-06,0
-2.70494e-05,7.88168e-06,8.74447e-06,7.51446e-05,2.96658e-05,-4.57963e-06,3.7437e-06,5.3306e-06,0
-2.64943e-05,1.5706e-05,-2.3376e-08,6.07398e-05,5.59497e-05,-2.49964e-06,7.00591e-06,5.39442e-06,0
-2.52628e-05,2.5703e-05,-9.88687e-06,1.89856e-06,8.2773e-05,1.72279e-06,6.70985e-06,3.15185e-06,0
-2.45944e-05,2.87731e-05,-1.82252e-05,-6.39465e-05,9.65104e-05,6.76281e-06,3.6465e-07,3.7197e-07,0
-2.60159e-05,1.75231e-05,-2.27068e-05,-9.23808e-05,8.19353e-05,8.4217e-06,-7.47936e-06,-1.6036e-06,0
-2.815e-05,-9.6279e-07,-2.31694e-05,-8.76822e-05,4.19769e-05,5.52498e-06,-1.2179e-05,-2.51843e-06,0
-2.73586e-05,-1.35038e-05,-1.90705e-05,-8.05867e-05,6.33477e-06,2.49766e-06,-1.98503e-05,-2.30751e-06,0
-2.11698e-05,-1.23964e-05,-7.42535e-06,-0.000111253,-5.18251e-06,2.2299e-07,-3.60713e-05,-2.00636e-06,0
-1.3751e-05,-2.55687e-06,1.09981e-05,-0.000180158,4.44431e-06,-2.42703e-06,-4.90825e-05,-1.02682e-06,0
-1.10581e-05,4.98813e-06,2.77081e-05,-0.000194498,1.94107e-05,-2.8296e-06,-4.48203e-05,-1.00802e-06,0
-1.72154e-05,4.42237e-06,2.94969e-05,-8.18694e-05,2.23447e-05,-3.70166e-06,-2.52301e-05,-1.16846e-06,0
-2.77868e-05,1.32592e-06,1.9733e-05,5.87865e-05,1.01065e-05,-1.08289e-05,-1.12976e-06,9.04292e-07,0
-3.42274e-05,1.8772e-06,1.39223e-05,9.22708e-05,-5.86564e-06,-2.15409e-05,2.4499e-05,2.76041e-06,0
-3.73606e-05,3.73602e-06,1.6293e-05,6.02141e-06,-1.19975e-05,-2.64576e-05,4.94338e-05,2.5348e-06,0
-4.11385e-05,4.0359e-06,1.73842e-05,-0.000114421,-1.19412e-05,-2.3991e-05,6.91566e-05,1.84028e-06,0
-4.32897e-05,4.2434e-06,1.13785e-05,-0.00018261,-1.2953e-05,-2.09931e-05,8.20235e-05,3.34399e-06,0
-3.9915e-05,5.71379e-06,4.43776e-06,-0.000150126,-1.80823e-05,-1.77927e-05,8.43147e-05,4.52065e-06,0
-3.50092e-05,6.8866e-06,2.13478e-06,-4.4441e-05,-2.95131e-05,-1.29718e-05,7.94388e-05,2.77514e-06,0
-3.20114e-05,7.99488e-06,3.72634e-06,1.31952e-05,-3.43307e-05,-8.78989e-06,7.11068e-05,2.07406e-06,0
-3.09342e-05,9.88544e-06,2.97954e-06,8.07288e-06,-2.50111e-05,-7.68304e-06,6.0299e-05,3.00235e-06,0
-3.25632e-05,1.25483e-05,-1.1373e-06,1.61481e-05,-3.32119e-06,-7.16588e-06,4.62991e-05,1.97366e-06,0
-3.45748e-05,1.69618e-05,-4.68316e-06,5.88905e-05,2.31357e-05,-9.75093e-06,3.49704e-05,-7.92872e-07,0
-3.51324e-05,2.30402e-05,-5.27012e-06,0.000123902,4.62177e-05,-1.95586e-05,2.98414e-05,-3.6407e-06,0
-3.51161e-05,2.94169e-05,-4.69062e-06,0.000163612,5.9243e-05,-3.39294e-05,2.65779e-05,-4.6955e-06,0
-3.49631e-05,3.49554e-05,-5.06983e-06,0.000139107,5.73931e-05,-4.31508e-05,2.12309e-05,-4.47184e-06,0
-3.5877e-05,3.90031e-05,-5.27716e-06,7.95669e-05,4.65801e-05,-3.50606e-05,1.41249e-05,-4.90858e-06,0
-3.6894e-05,3.93463e-05,-5.30959e-06,2.60867e-05,3.62927e-05,-1.35507e-05,9.56285e-06,-5.45179e-06,0
-3.59191e-05,3.37721e-05,-7.00609e-06,-1.58821e-05,2.93833e-05,2.20992e-06,8.79198e-06,-4.07117e-06,0
-3.33263e-05,2.43088e-05,-9.41248e-06,-5.17819e-05,1.75722e-05,-1.86046e-06,1.18194e-05,-2.10963e-06,0
-3.08454e-05,1.34805e-05,-1.20532e-05,-6.76822e-05,-2.42115e-07,-1.86213e-05,1.25478e-05,-1.01233e-06,0
-2.86094e-05,3.33919e-06,-1.49425e-05,-5.52798e-05,-1.68273e-05,-3.18857e-05,3.70887e-06,-2.80639e-07,0
-2.69533e-05,-4.31349e-06,-1.74324e-05,-4.04983e-05,-2.52385e-05,-3.57887e-05,-1.51299e-05,-2.52581e-07,0
-2.67716e-05,-8.87518e-06,-1.89893e-05,-4.21471e-05,-2.37933e-05,-3.38174e-05,-3.12137e-05,-1.85177e-06,0
-2.83336e-05,-1.22987e-05,-1.94284e-05,-5.19108e-05,-1.31422e-05,-1.53607e-05,-3.55604e-05,-2.73859e-06,0
-3.22814e-05,-1.55555e-05,-2.0303e-05,-6.63012e-05,3.99575e-06,2.43392e-05,-3.1784e-05,-7.87242e-07,0
-3.66409e-05,-1.63953e-05,-2.2487e-05,-9.34893e-05,2.16384e-05,4.87686e-05,-2.41601e-05,1.85609e-06,0
-3.69974e-05,-9.22788e-06,-2.33343e-05,-8.99794e-05,3.36287e-05,3.36988e-05,-9.95276e-06,6.07796e-06,0
-3.17536e-05,4.72131e-06,-2.05668e-05,-1.64442e-05,3.57422e-05,5.51309e-06,9.29224e-06,1.2778e-05,0
-2.08283e-05,1.49883e-05,-1.63828e-05,8.67476e-05,3.01122e-05,-6.70998e-06,2.51484e-05,1.91553e-05,0
-3.36275e-05,1.01286e-05,-1.16078e-05,0.000102366,0.000159097,7.70411e-06,1.6996e-05,1.91698e-06,0
-2.51195e-05,1.16402e-05,-1.80484e-06,5.31258e-05,0.000192323,1.13662e-05,7.77367e-06,1.26792e-06,0
-2.04237e-05,1.5372e-05,1.13112e-05,-5.95123e-05,0.000216903,1.02899e-05,-9.73517e-07,1.75235e-06,0
-1.8411e-05,1.93612e-05,2.39094e-05,-0.000131725,0.000168698,1.01491e-05,-3.66745e-06,3.01697e-06,0
-1.75036e-05,2.19324e-05,3.05174e-05,-8.94644e-05,6.10363e-05,9.21331e-06,-1.65941e-06,3.19681e-06,0
-1.79053e-05,2.37331e-05,2.79529e-05,9.13346e-05,-4.37051e-05,6.13887e-06,1.10748e-06,2.73945e-06,0
-1.88492e-05,2.35591e-05,2.26393e-05,0.000303811,-0.000110398,1.22407e-07,4.97085e-06,2.99266e-06,0
-1.99295e-05,2.26775e-05,1.74394e-05,0.000393785,-0.000128954,-5.93085e-06,8.96668e-06,3.76835e-06,0
-2.24202e-05,2.30772e-05,1.19318e-05,0.000304977,-0.000102082,-9.34575e-06,1.54479e-05,3.42353e-06,0
-2.28985e-05,2.50113e-05,2.97543e-06,9.28142e-05,-6.26421e-05,-1.07266e-05,2.36488e-05,1.64557e-06,0
-2.05252e-05,2.84706e-05,-8.44602e-06,-0.000151246,-3.58073e-05,-1.12542e-05,2.70073e-05,-3.73708e-07,0
-1.76522e-05,3.20837e-05,-1.67381e-05,-0.000353249,-1.63951e-05,-1.04492e-05,2.20939e-05,-1.115e-06,0
-1.66368e-05,3.23306e-05,-1.82029e-05,-0.000432164,4.24848e-06,-8.60814e-06,1.26505e-05,-8.66174e-07,0
-1.8134e-05,2.94176e-05,-1.4505e-05,-0.000381481,2.53408e-05,-7.81583e-06,6.36176e-06,8.00768e-07,0
-1.92922e-05,2.57373e-05,-6.44946e-06,-0.000256382,4.31141e-05,-6.81473e-06,7.69582e-06,5.24054e-06,0
-1.85764e-05,2.16669e-05,5.92989e-06,-3.56292e-05,5.50994e-05,-4.07227e-06,1.02651e-05,1.81447e-05,0
-1.77552e-05,1.70004e-05,1.95589e-05,0.000252359,5.37165e-05,-3.23763e-06,-9.32945e-06,3.63996e-05,0
-1.99585e-05,1.18261e-05,3.04061e-05,0.000362892,3.09311e-05,-9.32357e-06,-6.1951e-05,4.67064e-05,0
-2.50626e-05,7.99955e-06,3.54304e-05,0.000195644,-1.191e-05,-2.04411e-05,-0.000111793,4.36332e-05,0
-2.96026e-05,7.26762e-06,3.28328e-05,-1.34082e-05,-5.83708e-05,-3.0031e-05,-0.000113117,2.89549e-05,0
-3.21362e-05,8.61185e-06,2.47938e-05,-5.51851e-05,-8.63084e-05,-3.47287e-05,-6.08338e-05,4.77804e-06,0
-3.36101e-05,9.96007e-06,1.79774e-05,2.69868e-05,-8.04388e-05,-2.91429e-05,3.55528e-05,-2.17967e-05,0
-3.34961e-05,1.23827e-05,1.63668e-05,7.79008e-05,-4.15724e-05,-6.22875e-06,0.000176829,-4.16286e-05,0
-3.36888e-05,1.43528e-05,2.05121e-05,2.34624e-05,9.00521e-06,2.10677e-05,0.000327746,-4.92751e-05,0
-3.63481e-05,1.34476e-05,2.60567e-05,-6.95439e-05,4.13097e-05,2.75593e-05,0.000410264,-4.5256e-05,0
-3.93562e-05,1.10876e-05,3.05939e-05,-0.000131229,5.44695e-05,1.48629e-05,0.000377527,-3.90861e-05,0
-4.07115e-05,1.07627e-05,3.46886e-05,-0.000165481,6.60875e-05,5.42304e-06,0.000258305,-3.33139e-05,0
-4.18026e-05,1.29448e-05,3.44407e-05,-0.000160282,7.62478e-05,4.61436e-06,0.000103979,-2.19839e-05,0
-4.41989e-05,1.53531e-05,2.5979e-05,-8.65481e-05,7.27808e-05,5.03134e-06,-3.62895e-05,-9.22449e-06,0
-4.5414e-05,1.75076e-05,8.93897e-06,2.74442e-05,5.71361e-05,6.54623e-06,-0.000135901,-1.05699e-06,0
-4.25282e-05,1.81458e-05,-1.48592e-05,9.5981e-05,3.76554e-05,8.64003e-06,-0.000186615,3.39546e-06,0
-3.76932e-05,1.63061e-05,-3.91304e-05,8.05068e-05,2.01341e-05,7.15869e-06,-0.000183025,5.84196e-06,0
-3.47206e-05,1.29903e-05,-5.77093e-05,1.98707e-05,1.44791e-05,4.22349e-06,-0.000153974,8.8722e-06,0
-3.31852e-05,9.58715e-06,-6.57947e-05,-3.22683e-05,1.44829e-05,2.21043e-06,-0.000116344,1.14316e-05,0
-3.11233e-05,6.35937e-06,-6.35416e-05,-5.37935e-05,1.38039e-05,3.78534e-07,-8.87611e-05,1.46937e-05,0
-2.80261e-05,3.71171e-06,-5.33753e-05,-2.7321e-05,1.64437e-05,-4.31405e-06,-7.03781e-05,1.68394e-05,0
-2.43754e-05,4.97343e-06,-3.65234e-05,4.34985e-05,2.73937e-05,-1.40189e-05,-5.44129e-05,1.56884e-05,0
-2.64227e-05,8.27889e-06,-1.78525e-05,9.62938e-05,3.71097e-05,-2.43832e-05,-4.20079e-05,1.23231e-05,0
-3.85617e-05,1.24139e-05,-5.55765e-06,7.58462e-05,2.67604e-05,-3.4266e-05,-3.25316e-05,8.94613e-06,0
-5.29824e-05,1.87548e-05,-4.43985e-06,2.07004e-05,-9.81085e-07,-4.43481e-05,-2.69444e-05,6.68816e-06,0
-5.8647e-05,2.52628e-05,-9.98021e-06,-5.60841e-06,-3.15595e-05,-5.25608e-05,-2.06836e-05,5.69849e-06,0
-5.56453e-05,2.66962e-05,-1.53052e-05,-7.2144e-06,-5.53563e-05,-5.56686e-05,-1.57203e-05,5.95858e-06,0
-4.9539e-05,2.02364e-05,-1.85854e-05,-2.32991e-05,-7.20893e-05,-5.36576e-05,-9.51798e-06,5.72923e-06,0
-4.08584e-05,9.99313e-06,-2.288e-05,-4.52816e-05,-8.35679e-05,-4.7234e-05,-4.62607e-06,6.01684e-06,0
-2.88826e-05,-5.01729e-07,-2.76232e-05,-2.53164e-05,-8.45276e-05,-3.65926e-05,1.5166e-06,6.2154e-06,0
-1.63173e-05,-7.13619e-06,-2.93953e-05,3.27484e-05,-6.12969e-05,-2.6825e-05,5.8577e-06,6.40757e-06,0
-5.09244e-06,-6.45686e-06,-2.6515e-05,6.28935e-05,-1.50526e-05,-1.8561e-05,9.90815e-06,6.5155e-06,0
6.53728e-06,2.18733e-06,-1.70532e-05,1.77409e-05,2.58127e-05,7.25942e-06,1.29606e-05,6.9757e-06,0
2.06798e-05,1.35759e-05,-2.31039e-06,-6.72214e-05,2.37388e-05,5.2315e-05,1.68035e-05,6.71848e-06,0
3.42204e-05,2.02968e-05,8.40133e-06,-0.000124437,-1.5547e-05,6.95519e-05,1.9314e-05,5.66987e-06,0
3.79525e-05,1.6231e-05,7.75045e-06,-0.000114789,-3.52759e-05,4.23282e-05,2.0584e-05,4.73938e-06,0
3.01895e-05,4.32646e-06,1.22426e-07,-4.92845e-05,-9.52371e-06,1.2447e-05,2.16708e-05,3.46455e-06,0
1.48226e-05,-4.12268e-06,-4.48082e-06,2.95676e-05,4.26582e-05,3.77633e-06,2.29495e-05,1.33481e-06,0
-6.40582e-07,-2.78484e-06,-1.15511e-06,7.92674e-05,9.52727e-05,6.44845e-06,2.45549e-05,-1.71109e-09,0
-1.55333e-05,5.02594e-06,6.33065e-06,6.66543e-05,0.000126006,8.46657e-06,2.41897e-05,1.78116e-06,0
-3.12371e-05,9.72168e-06,1.01386e-05,2.9763e-05,0.00014156,5.04165e-06,2.36248e-05,3.94659e-06,0
-4.3853e-05,7.87948e-06,8.30173e-06,1.32093e-05,0.000156885,-1.13489e-06,2.48132e-05,2.89716e-06,0
-5.2872e-05,2.99431e-06,4.64885e-06,2.34316e-07,0.000156722,-5.23609e-06,2.7705e-05,2.19393e-06,0
-5.6178e-05,-1.97981e-06,4.80952e-06,1.19995e-06,0.000128942,-6.56222e-06,2.92104e-05,2.84727e-06,0
-5.84624e-05,-8.77063e-06,6.65832e-06,3.59684e-05,8.20523e-05,-1.02803e-05,2.82813e-05,2.11439e-06,0
-6.26297e-05,-1.66461e-05,4.10519e-06,6.96421e-05,3.88049e-05,-1.65837e-05,2.76031e-05,1.16212e-07,0
-6.83412e-05,-1.99544e-05,-1.25858e-06,2.36492e-05,1.87424e-05,-1.64587e-05,3.03923e-05,-2.02944e-06,0
-7.3029e-05,-2.11128e-05,-7.6181e-06,-6.54537e-05,1.52599e-05,-7.88435e-06,3.52391e-05,-8.47855e-07,0
-7.46958e-05,-2.42264e-05,-1.21882e-05,-9.64445e-05,8.29984e-06,-1.95287e-06,4.02361e-05,9.98126e-07,0
-7.38817e-05,-2.53815e-05,-1.55259e-05,-6.00698e-05,-6.42436e-06,-7.88788e-06,3.92938e-05,8.52217e-08,0
-7.07834e-05,-2.06353e-05,-1.83957e-05,4.7897e-08,-1.76023e-05,-2.25124e-05,3.25315e-05,-1.91564e-06,0
-6.37959e-05,-1.23717e-05,-1.84013e-05,4.0591e-05,-2.09984e-05,-3.7355e-05,2.46972e-05,-3.69872e-06,0
-4.9352e-05,-4.89964e-06,-1.17349e-05,5.16336e-05,-1.81318e-05,-4.1874e-05,2.02758e-05,-5.18869e-06,0
-3.25775e-05,6.93756e-07,1.39934e-06,3.38176e-05,-1.08757e-05,-3.36081e-05,1.85825e-05,-5.27529e-06,0
-2.08687e-05,5.85231e-06,1.34256e-05,-3.1799e-05,-5.62753e-06,-2.26921e-05,1.86709e-05,-3.61772e-06,0
-1.73596e-05,1.0861e-05,1.85818e-05,-0.000130672,-7.02986e-06,-1.79676e-05,1.84902e-05,-2.05993e-06,0
-1.87659e-05,1.31207e-05,1.79612e-05,-0.000170569,-9.60268e-06,-1.7295e-05,1.82304e-05,-1.9189e-06,0
-2.13298e-05,1.24767e-05,1.65343e-05,-9.677e-05,-9.79253e-06,-1.59041e-05,1.75023e-05,-2.74977e-06,0
-2.27503e-05,1.15759e-05,1.79869e-05,4.98445e-05,-1.39582e-05,-1.44762e-05,1.52658e-05,-3.40232e-06,0
-2.33864e-05,1.33505e-05,2.34413e-05,0.000180324,-1.46467e-05,-1.51039e-05,1.04145e-05,-2.26059e-06,0
-2.49771e-05,1.67158e-05,2.83075e-05,0.000200748,1.8343e-05,-1.84999e-05,1.19362e-06,2.73657e-06,0
-2.90972e-05,1.79227e-05,2.343e-05,4.35418e-05,6.46036e-05,-2.44127e-05,-2.15356e-05,1.06319e-05,0
-3.60838e-05,1.56033e-05,3.68957e-06,-0.000234039,6.76011e-05,-3.30919e-05,-6.57e-05,1.50846e-05,0
-4.33557e-05,1.07732e-05,-2.81079e-05,-0.000426872,3.4948e-05,-4.04183e-05,-0.000109713,1.29807e-05,0
-4.83612e-05,7.64635e-06,-6.47224e-05,-0.00038891,-1.09136e-05,-4.1785e-05,-0.000119673,9.12014e-06,0
-5.05604e-05,9.85468e-06,-9.4249e-05,-0.0001637,-6.34013e-05,-3.83795e-05,-9.31819e-05,4.25498e-06,0
-4.83402e-05,1.64532e-05,-0.000109412,0.00019495,-8.55719e-05,-3.53843e-05,-4.58285e-05,-3.48373e-06,0
-3.9628e-05,2.25681e-05,-0.000105023,0.000516299,-6.72265e-05,-3.00073e-05,3.88149e-06,-9.6829e-06,0
-2.88726e-05,2.79869e-05,-7.98085e-05,0.000529586,-6.00492e-05,-1.68865e-05,4.40717e-05,-1.2118e-05,0
-2.14846e-05,3.28961e-05,-5.01461e-05,0.00025642,-3.25428e-05,-6.97179e-06,7.35704e-05,-1.37194e-05,0
-2.02169e-05,3.23631e-05,-3.36932e-05,-0.000112344,7.61287e-05,-8.67918e-06,8.90816e-05,-1.53847e-05,0
-2.28875e-05,2.83537e-05,-3.01993e-05,-0.000321196,0.000172434,-1.56487e-05,9.52459e-05,-1.47351e-05,0
-2.51529e-05,2.65037e-05,-3.223e-05,-0.000207766,0.000186512,-2.19506e-05,9.11133e-05,-1.14532e-05,0
-2.30674e-05,2.63285e-05,-3.58327e-05,0.000114486,0.000155651,-1.9955e-05,8.07112e-05,-8.69051e-06,0
-1.52628e-05,2.58128e-05,-3.46645e-05,0.000409173,0.000108567,-6.00901e-06,6.84658e-05,-7.46376e-06,0
-6.40941e-06,2.78245e-05,-2.24362e-05,0.000472353,5.0156e-05,1.13365e-05,5.93088e-05,-5.75588e-06,0
-1.38428e-06,3.30846e-05,-3.67751e-07,0.000302706,-1.25582e-05,2.56578e-05,5.38963e-05,-9.09715e-07,0
-2.59986e-06,3.78056e-05,2.45143e-05,8.37093e-05,-5.46765e-05,3.73043e-05,4.71052e-05,5.77188e-06,0
-9.97225e-06,3.59041e-05,4.58843e-05,-6.49622e-05,-8.05597e-05,4.04022e-05,3.74763e-05,9.8463e-06,0
-1.93226e-05,2.81589e-05,5.74606e-05,-0.000192219,-0.000108132,2.77703e-05,2.76506e-05,8.66136e-06,0
-2.52931e-05,2.26205e-05,5.50259e-05,-0.000334507,-0.000130633,7.39409e-06,2.12475e-05,4.18681e-06,0
-2.63297e-05,2.32307e-05,4.09765e-05,-0.000410316,-0.000137202,-7.16754e-06,1.85714e-05,5.82967e-07,0
-2.61572e-05,2.50748e-05,2.42699e-05,-0.00032129,-0.000131616,-1.33129e-05,1.89182e-05,-6.12266e-07,0
-2.81479e-05,2.15881e-05,1.30759e-05,-0.000114288,-0.000115441,-1.54861e-05,1.84452e-05,1.94818e-07,0
-3.08751e-05,1.56768e-05,7.18545e-06,4.01056e-05,-7.99081e-05,-1.38903e-05,1.53452e-05,2.80171e-06,0
-2.90121e-05,1.81394e-05,4.01825e-06,4.39776e-05,-1.84918e-05,-6.84274e-06,9.65506e-06,6.33623e-06,0
-2.01036e-05,3.57828e-05,7.71298e-06,-1.53287e-05,5.7675e-05,2.28406e-06,5.46407e-06,8.40845e-06,0
-9.40737e-06,5.91649e-05,1.75335e-05,-2.00287e-05,0.000110522,8.80464e-06,2.9845e-06,7.99046e-06,0
-3.69816e-06,7.11859e-05,2.51504e-05,1.61248e-05,0.000118747,1.1785e-05,-3.76628e-07,6.52883e-06,0
-4.05226e-06,6.49683e-05,3.40244e-05,4.57935e-05,0.000101065,1.12079e-05,-7.2901e-06,6.34229e-06,0
-9.21084e-06,4.72303e-05,4.87908e-05,4.96808e-05,7.31655e-05,7.58292e-06,-1.7296e-05,6.06453e-06,0
-1.74279e-05,2.71822e-05,6.29503e-05,2.897e-05,4.23009e-05,3.05807e-06,-2.5031e-05,5.80547e-06,0
-2.41961e-05,1.5238e-05,7.01125e-05,1.12742e-05,2.5547e-05,7.44542e-07,-2.57612e-05,7.11709e-06,0
-2.82044e-05,1.94499e-05,6.21722e-05,1.96868e-06,1.8696e-05,1.02687e-06,-2.21599e-05,8.3978e-06,0
-3.0774e-05,2.7202e-05,3.38123e-05,-1.24977e-05,3.5416e-07,-2.91078e-07,-1.49384e-05,7.89546e-06,0
-3.39697e-05,2.10789e-05,-8.68375e-06,-2.98141e-05,-2.15493e-05,-5.24594e-06,-3.81598e-06,6.81775e-06,0
-3.74025e-05,4.30438e-06,-5.23327e-05,-4.28602e-05,-2.3262e-05,-1.04909e-05,8.02766e-06,6.97012e-06,0
-3.88324e-05,-1.47263e-05,-8.45512e-05,-6.54718e-05,-9.63433e-06,-1.33735e-05,1.96707e-05,7.40666e-06,0
-4.00441e-05,-3.10965e-05,-9.96388e-05,-0.000106604,3.599e-06,-1.22104e-05,2.85168e-05,8.28103e-06,0
-4.10703e-05,-4.03912e-05,-9.94134e-05,-0.000121657,1.19416e-05,-9.17518e-06,3.256e-05,6.35594e-06,0
-4.20897e-05,-4.17946e-05,-8.96225e-05,-8.47865e-05,1.82453e-05,-7.96551e-06,3.42496e-05,2.1297e-06,0
-4.37874e-05,-3.88225e-05,-7.65321e-05,-3.25055e-05,2.06951e-05,-1.07905e-05,3.51956e-05,3.16595e-07,0
-4.19428e-05,-2.93434e-05,-6.49742e-05,-1.53701e-05,1.747e-05,-1.83611e-05,3.59328e-05,1.1246e-07,0
-3.40908e-05,-1.57599e-05,-5.39462e-05,-5.32075e-05,1.35124e-05,-2.51496e-05,3.51178e-05,-2.27739e-06,0
-2.05653e-05,-4.44453e-06,-4.34262e-05,-0.000132736,8.77765e-06,-2.59031e-05,3.0368e-05,-6.21894e-06,0
-1.53859e-06,2.83626e-06,-3.65142e-05,-0.000208819,1.87183e-06,-2.2777e-05,2.49957e-05,-8.20322e-06,0
1.42594e-05,8.19214e-06,-3.2911e-05,-0.000222835,-2.86791e-06,-2.08726e-05,2.19697e-05,-8.04148e-06,0
1.4164e-05,1.27957e-05,-2.75253e-05,-0.000140743,7.11487e-06,-2.12124e-05,2.01027e-05,-6.57409e-06,0
-1.36294e-06,1.44886e-05,-1.89063e-05,1.34645e-05,4.52536e-05,-2.02571e-05,1.40463e-05,-3.63379e-06,0
-1.88536e-05,1.5101e-05,-1.15948e-05,0.00016823,9.86646e-05,-1.33747e-05,3.47661e-06,-5.51116e-07,0
-3.08075e-05,1.57717e-05,-8.72172e-06,0.000261181,0.000132465,-4.76676e-06,-5.53942e-06,7.19983e-07,0
-4.39796e-05,1.62959e-05,-9.39492e-06,0.000283522,0.000147554,-4.51244e-06,-9.35732e-06,2.41703e-07,0
-5.91507e-05,1.584e-05,-1.06127e-05,0.000247119,0.000162805,-1.55315e-05,-8.88519e-06,-1.58499e-06,0
-6.67846e-05,1.75827e-05,-1.19365e-05,0.000158932,0.000144818,-3.01367e-05,-5.22651e-06,-3.42868e-06,0
-6.45467e-05,2.49551e-05,-1.28149e-05,6.64854e-05,6.22579e-05,-3.85213e-05,-7.75727e-07,-5.00828e-06,0
-5.9555e-05,3.39515e-05,-1.06368e-05,1.8666e-05,-4.18907e-05,-2.99749e-05,4.41568e-06,-6.09657e-06,0
-5.66485e-05,3.51232e-05,-6.56991e-06,7.60597e-06,-0.000108436,-5.12613e-06,1.15002e-05,-6.71453e-06,0
-5.58233e-05,2.70751e-05,-6.21428e-06,4.33986e-06,-0.000116796,1.06815e-05,1.78139e-05,-5.85304e-06,0
-5.55973e-05,1.41067e-05,-9.26655e-06,2.48571e-07,-8.00135e-05,-7.17465e-06,1.82646e-05,-3.80365e-06,0
-5.49337e-05,3.92584e-06,-1.12955e-05,-6.00366e-06,-2.95567e-05,-4.61582e-05,1.20641e-05,-2.56084e-06,0
-5.32053e-05,-3.67627e-06,-1.17612e-05,-9.18147e-06,3.17517e-06,-5.95738e-05,9.22026e-06,-2.89072e-06,0
-4.98457e-05,-7.86886e-06,-1.08482e-05,-6.49973e-06,3.86362e-06,-3.50065e-05,1.79971e-05,-5.36517e-06,0
-4.43884e-05,-4.4843e-06,-8.22277e-06,-2.17538e-06,-1.53335e-05,-1.25924e-05,3.23221e-05,-8.58154e-06,0
-3.77333e-05,2.74821e-06,-5.84431e-06,-4.591e-06,-3.3635e-05,-1.04641e-05,4.339e-05,-1.08028e-05,0
-3.28378e-05,9.98093e-06,-1.85701e-06,-1.28633e-05,-4.76965e-05,-1.4478e-05,4.8673e-05,-1.07757e-05,0
-2.99646e-05,1.43915e-05,4.20063e-06,-2.01107e-05,-6.5965e-05,-1.54938e-05,4.63226e-05,-9.68392e-06,0
-2.33663e-05,1.86701e-05,1.31398e-05,-2.34232e-05,-8.07199e-05,-1.35144e-05,3.93317e-05,-9.19193e-06,0
-8.39539e-06,2.39923e-05,2.86813e-05,-2.21282e-05,-7.04862e-05,-9.679e-06,3.30187e-05,-7.19741e-06,0
9.55696e-06,2.86899e-05,5.44003e-05,-2.01018e-05,-3.37511e-05,2.09275e-06,2.78541e-05,-4.74844e-06,0
3.27762e-05,3.13661e-05,8.43422e-05,-2.35408e-05,7.55941e-06,2.04156e-05,2.15017e-05,-3.48015e-06,0
6.67072e-05,3.08661e-05,0.00010047,-3.89567e-05,3.20529e-05,3.28701e-05,1.50528e-05,-3.0806e-06,0
9.46956e-05,2.68825e-05,9.32944e-05,-6.36786e-05,4.2896e-05,2.95343e-05,1.14063e-05,-1.34314e-06,0
9.23951e-05,2.31568e-05,6.69176e-05,-8.31194e-05,4.70542e-05,1.04218e-05,1.02747e-05,1.86376e-06,0
5.73567e-05,2.13762e-05,2.8206e-05,-8.39023e-05,4.38329e-05,-1.76895e-05,8.41451e-06,3.79592e-06,0
7.11087e-06,1.79696e-05,-1.64114e-05,-6.67125e-05,3.66525e-05,-3.96517e-05,5.16876e-06,3.90906e-06,0
-3.91663e-05,1.22612e-05,-5.83227e-05,-4.29815e-05,3.30133e-05,-4.26199e-05,2.9913e-06,1.95493e-06,0
-7.13326e-05,8.01231e-06,-8.82363e-05,-3.0114e-05,3.67924e-05,-3.43528e-05,2.44769e-06,-4.73776e-07,0
-9.02708e-05,7.20784e-06,-9.81741e-05,-3.21685e-05,4.19633e-05,-2.92881e-05,2.422e-06,-2.53537e-06,0
-0.000100807,7.59884e-06,-9.11606e-05,-4.4575e-05,4.44581e-05,-3.13158e-05,2.76195e-06,-2.87636e-06,0
-0.000107304,6.61572e-06,-7.84359e-05,-6.37294e-05,4.12928e-05,-3.69383e-05,4.2034e-06,-2.3136e-07,0
-0.000111758,6.43699e-06,-6.51424e-05,-6.23716e-05,3.1775e-05,-4.06532e-05,6.39527e-06,9.74098e-06,0
-0.000115432,6.94553e-06,-4.97348e-05,-1.66008e-05,1.87599e-05,-3.52524e-05,6.33011e-06,2.90474e-05,0
-0.000117763,2.88761e-06,-3.72719e-05,4.70396e-05,9.52818e-06,-2.21534e-05,2.47477e-06,4.43243e-05,0
-0.00011681,-6.36374e-06,-3.33558e-05,8.40169e-05,2.3954e-06,-1.12144e-05,-2.5792e-06,4.56312e-05,0
-0.000111126,-1.66727e-05,-3.14823e-05,6.11491e-05,-6.35291e-06,-8.90937e-06,-5.29976e-06,3.4983e-05,0
-0.000100802,-2.55989e-05,-2.50493e-05,6.26355e-06,-8.78568e-06,-1.22328e-05,-3.16076e-06,1.25751e-05,0
-8.61834e-05,-2.9341e-05,-1.70674e-05,-6.35977e-06,2.76027e-06,-1.40652e-05,2.75091e-06,-1.48503e-05,0
-6.68863e-05,-2.29514e-05,-8.41108e-06,4.84809e-05,2.33538e-05,-1.41045e-05,8.79075e-06,-3.85739e-05,0
