ch1,ch2,ch3,ch4,ch5,ch6,ch7,ch8,class
-2.92859e-05,1.78611e-05,-1.00074e-05,-8.62565e-06,1.56503e-05,-1.38235e-05,1.97765e-05,1.16287e-06,0
-2.91382e-05,2.0402e-05,-8.68315e-06,-4.18506e-06,1.60826e-05,-1.23772e-05,2.02424e-05,8.74821e-07,0
-2.93517e-05,2.24691e-05,-8.05999e-06,8.51381e-06,1.78489e-05,-1.04893e-05,2.09574e-05,-4.04535e-07,0
-2.91905e-05,2.29556e-05,-8.80117e-06,2.49321e-05,1.94473e-05,-9.17122e-06,2.21655e-05,-2.14699e-06,0
-2.87323e-05,2.13857e-05,-9.28003e-06,3.59593e-05,1.90298e-05,-9.69851e-06,2.19804e-05,-2.86195e-06,0
-2.95498e-05,1.95542e-05,-7.69818e-06,3.92579e-05,1.78214e-05,-1.18816e-05,2.05599e-05,-4.04782e-06,0
-3.18608e-05,1.78973e-05,-5.51312e-06,3.4115e-05,1.9251e-05,-1.32795e-05,1.94273e-05,-5.73702e-06,0
-3.38319e-05,1.67102e-05,-4.96589e-06,1.94122e-05,2.23595e-05,-1.1743e-05,1.99299e-05,-5.33377e-06,0
-3.41512e-05,1.67729e-05,-5.40754e-06,1.11718e-06,2.32968e-05,-9.73714e-06,2.03443e-05,-3.14904e-06,0
-3.28778e-05,1.60854e-05,-5.24889e-06,-8.89587e-06,2.24192e-05,-1.03526e-05,1.89712e-05,-3.05135e-06,0
-3.20159e-05,1.46436e-05,-3.98113e-06,-8.01829e-06,2.40248e-05,-1.26883e-05,1.77695e-05,-5.08008e-06,0
-3.2912e-05,1.45658e-05,-2.1166e-06,-5.5378e-06,2.69449e-05,-1.28389e-05,1.87615e-05,-4.76504e-06,0
-3.42449e-05,1.43731e-05,-5.66993e-08,-9.74807e-06,2.49839e-05,-1.16035e-05,2.03212e-05,-3.2854e-06,0
-3.51237e-05,1.41917e-05,3.00975e-08,-2.03777e-05,1.92365e-05,-1.15931e-05,2.04183e-05,-6.33558e-07,0
-3.52888e-05,1.46935e-05,-2.25201e-06,-2.92998e-05,1.36792e-05,-1.07297e-05,1.99964e-05,2.6318e-06,0
-3.4167e-05,1.46606e-05,-3.61836e-06,-3.13058e-05,1.06904e-05,-9.22194e-06,1.95217e-05,3.60799e-06,0
-3.27248e-05,1.48045e-05,-4.75142e-06,-2.84047e-05,9.88267e-06,-1.01964e-05,1.70041e-05,3.82358e-06,0
-3.19472e-05,1.53024e-05,-6.7209e-06,-2.18528e-05,9.7117e-06,-1.33402e-05,1.40042e-05,3.30702e-06,0
-3.20992e-05,1.63567e-05,-7.93179e-06,-1.3558e-05,1.06621e-05,-1.59657e-05,1.19376e-05,3.49994e-06,0
-3.30331e-05,1.64648e-05,-8.64187e-06,-7.86687e-06,1.13299e-05,-1.66424e-05,8.63784e-06,4.11172e-06,0
-3.42283e-05,1.4736e-05,-8.07417e-06,-4.69959e-06,1.10876e-05,-1.56714e-05,6.86282e-06,4.81743e-06,0
-3.57338e-05,1.44585e-05,-7.85458e-06,-8.83648e-07,1.2415e-05,-1.43129e-05,7.72288e-06,5.07271e-06,0
-3.57821e-05,1.56892e-05,-9.3378e-06,3.53244e-06,1.3623e-05,-1.28509e-05,8.13806e-06,5.14334e-06,0
-3.39911e-05,1.50042e-05,-1.15172e-05,5.38057e-06,1.22089e-05,-1.20715e-05,6.97812e-06,6.65415e-06,0
-3.23287e-05,1.24885e-05,-1.35227e-05,3.5072e-06,1.05892e-05,-1.22428e-05,5.30949e-06,7.8437e-06,0
-3.19757e-05,1.0828e-05,-1.44848e-05,-9.4289e-08,1.16129e-05,-1.23997e-05,4.5427e-06,7.27292e-06,0
-3.31795e-05,8.60628e-06,-1.46591e-05,-2.50654e-06,1.38756e-05,-1.24416e-05,4.76865e-06,6.09223e-06,0
-3.48322e-05,5.97355e-06,-1.33852e-05,-2.57038e-06,1.46911e-05,-1.16774e-05,5.12537e-06,6.27594e-06,0
-3.52467e-05,5.58368e-06,-1.1208e-05,-8.85102e-07,1.32023e-05,-9.40325e-06,3.19163e-06,7.03108e-06,0
-3.42847e-05,6.24937e-06,-9.179e-06,6.09271e-07,1.1026e-05,-6.82378e-06,-3.3667e-06,7.44722e-06,0
-3.34575e-05,5.06167e-06,-8.97923e-06,9.53147e-07,9.95675e-06,-6.16943e-06,-1.10986e-05,7.63806e-06,0
-3.23423e-05,1.69715e-06,-1.00411e-05,1.00783e-06,9.49733e-06,-7.22192e-06,-1.35491e-05,7.13475e-06,0
-3.10621e-05,-2.42937e-06,-1.08696e-05,1.69466e-06,9.11633e-06,-8.19706e-06,-9.19741e-06,6.20708e-06,0
-3.08471e-05,-5.15889e-06,-1.07429e-05,3.25445e-06,9.34516e-06,-7.4308e-06,-1.14964e-06,5.95644e-06,0
-3.15756e-05,-4.11828e-06,-9.54138e-06,4.82857e-06,1.04097e-05,-6.17833e-06,9.05767e-06,4.64314e-06,0
-3.14135e-05,1.91282e-07,-8.23959e-06,3.52206e-06,1.23333e-05,-7.41053e-06,2.08654e-05,3.61736e-06,0
-3.02829e-05,4.41155e-06,-7.65917e-06,-1.97046e-06,1.38889e-05,-9.38178e-06,3.07007e-05,3.56868e-06,0
-3.01539e-05,5.82542e-06,-8.51394e-06,-7.86943e-06,1.39666e-05,-9.56907e-06,3.59568e-05,3.04264e-06,0
-3.06718e-05,7.8246e-06,-9.57923e-06,-1.40054e-05,1.33562e-05,-8.60339e-06,3.71807e-05,2.32014e-06,0
-3.07514e-05,1.14433e-05,-8.51181e-06,-2.40746e-05,1.21304e-05,-7.70356e-06,3.59745e-05,1.0192e-06,0
-3.01835e-05,1.59598e-05,-6.26571e-06,-3.74972e-05,1.01494e-05,-6.73793e-06,3.28362e-05,-5.23393e-07,0
-2.92528e-05,2.05404e-05,-7.19469e-06,-4.70888e-05,9.44121e-06,-5.59125e-06,2.80636e-05,-9.68792e-07,0
-2.73466e-05,2.32123e-05,-1.00795e-05,-4.41716e-05,1.02656e-05,-5.69202e-06,2.51059e-05,7.59451e-08,0
-2.6726e-05,2.42968e-05,-1.2262e-05,-3.05742e-05,1.05135e-05,-6.93303e-06,2.37812e-05,5.9966e-07,0
-2.77283e-05,2.44973e-05,-1.41351e-05,-1.5165e-05,9.31206e-06,-8.86776e-06,2.32144e-05,1.08903e-06,0
-2.72879e-05,2.39255e-05,-1.38914e-05,-3.31023e-06,8.81085e-06,-9.53885e-06,2.34229e-05,7.94812e-07,0
-2.66342e-05,2.33987e-05,-1.35576e-05,6.27902e-08,1.05406e-05,-8.8595e-06,2.24914e-05,-6.43127e-08,0
-2.65124e-05,2.34075e-05,-1.41872e-05,-9.53298e-06,1.15997e-05,-7.73801e-06,2.12447e-05,1.17054e-06,0
-2.75703e-05,2.19531e-05,-1.5624e-05,-2.86112e-05,1.04762e-05,-6.6564e-06,1.90614e-05,2.56519e-06,0
-2.95334e-05,1.89775e-05,-1.71751e-05,-4.60098e-05,8.2599e-06,-6.07118e-06,1.37662e-05,2.35419e-06,0
-3.1472e-05,1.43608e-05,-1.83295e-05,-5.55313e-05,7.88078e-06,-6.29609e-06,5.73166e-06,2.90711e-06,0
-3.28321e-05,1.09225e-05,-2.0346e-05,-5.55194e-05,8.78794e-06,-7.48594e-06,-7.31826e-07,5.96825e-06,0
-3.40317e-05,9.29404e-06,-2.21046e-05,-4.72984e-05,9.86838e-06,-8.56604e-06,-3.55827e-06,8.93682e-06,0
-3.53114e-05,8.86227e-06,-2.30272e-05,-3.45039e-05,1.01806e-05,-9.13516e-06,-3.28651e-06,9.41914e-06,0
-3.46191e-05,1.01619e-05,-2.19656e-05,-1.79514e-05,9.34409e-06,-8.66171e-06,-6.53631e-07,8.05351e-06,0
-3.1569e-05,1.26989e-05,-1.90331e-05,4.87298e-06,8.63064e-06,-8.21902e-06,2.84774e-06,6.61819e-06,0
-2.91807e-05,1.61614e-05,-1.58226e-05,3.47356e-05,8.72061e-06,-7.75565e-06,7.15477e-06,5.63234e-06,0
-2.9956e-05,1.94258e-05,-1.40187e-05,6.27203e-05,1.00887e-05,-6.82336e-06,1.14749e-05,5.15861e-06,0
-3.21259e-05,2.19001e-05,-1.26277e-05,7.62847e-05,1.24945e-05,-5.497e-06,1.30142e-05,5.60795e-06,0
-3.34787e-05,2.30356e-05,-1.13013e-05,7.03756e-05,1.45812e-05,-4.91869e-06,1.22623e-05,5.18699e-06,0
-3.43037e-05,2.28445e-05,-1.08573e-05,5.2237e-05,1.44165e-05,-6.26269e-06,1.3509e-05,4.17797e-06,0
-3.46652e-05,2.19458e-05,-1.06236e-05,3.2837e-05,1.32119e-05,-8.17314e-06,1.66041e-05,4.20573e-06,0
-3.3295e-05,2.58002e-05,-8.17182e-06,1.90298e-05,1.17013e-05,-8.15238e-06,1.93071e-05,4.01164e-06,0
-3.1045e-05,3.55268e-05,-4.08646e-06,1.32596e-05,1.18305e-05,-6.8826e-06,2.03862e-05,2.38698e-06,0
-2.91211e-05,4.3547e-05,-1.59654e-06,1.20646e-05,1.45159e-05,-4.65412e-06,2.04015e-05,6.82602e-07,0
-2.92369e-05,4.33687e-05,-2.11794e-06,9.47966e-06,1.78729e-05,-3.43956e-06,2.0807e-05,9.26674e-07,0
-3.00159e-05,3.64266e-05,-4.12049e-06,5.69878e-06,1.84699e-05,-4.6508e-06,2.33245e-05,1.21155e-06,0
-2.97861e-05,2.66017e-05,-5.11557e-06,3.17651e-06,1.68813e-05,-5.24134e-06,3.04966e-05,-6.34825e-09,0
-2.99199e-05,1.56383e-05,-4.73113e-06,1.54644e-06,1.44642e-05,-4.66864e-06,3.492e-05,-4.82592e-07,0
-3.06851e-05,8.40657e-06,-3.74348e-06,-6.81237e-07,1.19994e-05,-4.72217e-06,3.22024e-05,1.21914e-07,0
-3.19296e-05,5.13817e-06,-2.83103e-06,-4.29421e-06,1.07841e-05,-5.60864e-06,2.79867e-05,-5.26289e-07,0
-3.2486e-05,1.55207e-06,-2.23556e-06,-7.46728e-06,9.25714e-06,-6.21869e-06,2.50939e-05,-2.51078e-06,0
-3.20261e-05,-3.5455e-06,-2.82091e-06,-8.55466e-06,7.65739e-06,-5.89414e-06,2.24829e-05,-4.5875e-06,0
-3.12302e-05,-1.01862e-05,-4.28394e-06,-9.78982e-06,7.57027e-06,-5.46594e-06,1.7579e-05,-5.62064e-06,0
-2.99282e-05,-1.37983e-05,-5.82769e-06,-1.29473e-05,8.69514e-06,-6.14524e-06,1.1855e-05,-5.23483e-06,0
-2.88445e-05,-1.1099e-05,-6.121e-06,-1.76009e-05,9.20585e-06,-6.19192e-06,8.95049e-06,-3.37658e-06,0
-2.83603e-05,-4.41103e-06,-5.69928e-06,-2.27329e-05,8.29282e-06,-4.8947e-06,1.0906e-05,-1.81117e-06,0
-2.76027e-05,1.50895e-06,-6.22866e-06,-2.53444e-05,5.10713e-06,-3.76533e-06,1.55158e-05,-2.00147e-06,0
-2.61339e-05,4.3941e-06,-8.03639e-06,-2.09598e-05,2.3831e-06,-4.20168e-06,1.97491e-05,-3.90108e-06,0
-2.56041e-05,5.22142e-06,-9.50872e-06,-8.54033e-06,3.78233e-06,-4.97694e-06,2.0654e-05,-7.18196e-06,0
-2.66189e-05,5.91242e-06,-8.77377e-06,6.34758e-06,9.40212e-06,-5.0899e-06,1.76075e-05,-9.7629e-06,0
-2.76303e-05,7.99821e-06,-5.69387e-06,1.6252e-05,1.51346e-05,-4.70904e-06,1.1007e-05,-1.02443e-05,0
-2.80079e-05,1.00573e-05,-1.86323e-06,1.60461e-05,1.82191e-05,-4.12616e-06,1.99346e-06,-8.38682e-06,0
-2.90207e-05,1.19314e-05,1.42204e-06,6.12459e-06,1.92826e-05,-3.93166e-06,-6.7526e-06,-7.01638e-06,0
-3.07656e-05,1.55768e-05,6.0972e-06,-8.06946e-06,1.94251e-05,-5.37819e-06,-1.41092e-05,-7.40061e-06,0
-3.09495e-05,2.09884e-05,1.59467e-05,-1.88201e-05,1.84331e-05,-7.78852e-06,-1.81922e-05,-8.18448e-06,0
-2.97285e-05,2.39058e-05,3.27776e-05,-2.31758e-05,1.57936e-05,-9.34277e-06,-1.66393e-05,-8.25942e-06,0
-2.82809e-05,2.34828e-05,5.29978e-05,-2.20826e-05,1.40622e-05,-1.01356e-05,-1.00843e-05,-8.245e-06,0
-2.76126e-05,2.17741e-05,6.86902e-05,-1.70586e-05,1.4912e-05,-9.94505e-06,-3.53784e-06,-8.50452e-06,0
-2.87745e-05,1.8879e-05,7.3237e-05,-1.11732e-05,1.92165e-05,-9.48826e-06,8.86407e-07,-8.2505e-06,0
-3.057e-05,1.49657e-05,6.14499e-05,-4.25675e-06,2.43233e-05,-8.95683e-06,2.9848e-06,-7.85534e-06,0
-2.96479e-05,1.17829e-05,3.19296e-05,5.83308e-06,2.48141e-05,-8.10591e-06,3.35231e-06,-7.31704e-06,0
-2.66892e-05,9.23038e-06,-1.25575e-05,1.63682e-05,2.09763e-05,-8.1494e-06,5.6816e-06,-6.32088e-06,0
-2.39789e-05,6.26028e-06,-5.69213e-05,2.22437e-05,1.65243e-05,-8.55174e-06,9.39856e-06,-5.85457e-06,0
-2.37617e-05,3.14079e-06,-8.48054e-05,2.4953e-05,1.29854e-05,-8.80554e-06,1.15275e-05,-6.66501e-06,0
-2.58744e-05,-3.07974e-06,-9.40444e-05,2.44136e-05,1.08897e-05,-8.94599e-06,1.3402e-05,-7.70835e-06,0
-2.83396e-05,-1.22465e-05,-8.60637e-05,1.90889e-05,1.02883e-05,-9.55366e-06,1.50224e-05,-8.16004e-06,0
-3.16575e-05,-1.79695e-05,-7.14596e-05,9.74682e-06,1.01384e-05,-1.07035e-05,1.44134e-05,-7.11059e-06,0
-3.3766e-05,-1.39769e-05,-5.94986e-05,-3.24259e-06,8.02679e-06,-1.17454e-05,1.15393e-05,-5.97921e-06,0
-3.33214e-05,-4.00764e-06,-5.08764e-05,-1.42907e-05,4.84319e-06,-1.2564e-05,9.67819e-06,-6.5387e-06,0
-3.26635e-05,3.04525e-06,-4.17967e-05,-2.13029e-05,3.07045e-06,-1.27216e-05,9.61196e-06,-6.52142e-06,0
-3.30385e-05,6.76673e-06,-3.1534e-05,-2.54122e-05,2.74489e-06,-1.38921e-05,1.13869e-05,-4.42099e-06,0
-3.35864e-05,8.77481e-06,-2.20636e-05,-2.71692e-05,4.53399e-06,-1.4973e-05,1.35397e-05,-1.2325e-06,0
-3.40638e-05,1.08776e-05,-1.45009e-05,-2.43347e-05,7.37002e-06,-1.44537e-05,1.40676e-05,6.15709e-07,0
-3.32736e-05,1.34984e-05,-9.00391e-06,-1.7142e-05,9.66003e-06,-1.20723e-05,1.39654e-05,1.34425e-06,0
-3.06174e-05,1.59014e-05,-5.52674e-06,-1.03397e-05,1.0577e-05,-9.24145e-06,1.41096e-05,2.39248e-06,0
-2.87013e-05,1.7817e-05,-5.15812e-06,-6.74352e-06,9.91086e-06,-7.59747e-06,1.45285e-05,2.95513e-06,0
-2.89666e-05,1.84709e-05,-5.86581e-06,-4.40315e-06,8.45951e-06,-7.09417e-06,1.46328e-05,2.84104e-06,0
-3.09868e-05,1.75649e-05,-6.20501e-06,-8.93606e-07,8.11549e-06,-7.00651e-06,1.50713e-05,1.59446e-06,0
-3.35778e-05,1.54111e-05,-5.24114e-06,1.57605e-06,9.8043e-06,-6.16099e-06,1.53456e-05,2.02691e-07,0
-3.52135e-05,1.34523e-05,-3.98041e-06,-2.80858e-07,1.14833e-05,-5.22802e-06,1.46224e-05,3.33796e-07,0
-3.55835e-05,1.13615e-05,-2.8222e-06,-7.37708e-06,1.21798e-05,-5.27115e-06,1.318e-05,2.73271e-06,0
-3.49287e-05,9.17889e-06,-1.86036e-06,-1.4941e-05,1.33868e-05,-6.57437e-06,1.19708e-05,5.26554e-06,0
-3.37619e-05,8.61828e-06,-3.75338e-07,-1.8757e-05,1.5186e-05,-8.37717e-06,1.06229e-05,5.53527e-06,0
-3.18335e-05,1.07175e-05,1.96084e-07,-1.49216e-05,1.43105e-05,-9.99101e-06,1.02366e-05,3.35041e-06,0
-2.95233e-05,1.29917e-05,1.50088e-08,-2.59028e-06,1.27216e-05,-1.07973e-05,1.06171e-05,2.01206e-06,0
-2.90791e-05,1.3154e-05,3.58985e-07,1.17773e-05,1.38883e-05,-1.04654e-05,1.08013e-05,1.93352e-06,0
-3.07386e-05,1.13626e-05,7.79177e-07,1.86572e-05,1.50297e-05,-8.36088e-06,1.02972e-05,1.1799e-06,0
-3.33805e-05,9.36409e-06,8.91084e-07,1.6388e-05,1.27867e-05,-6.17608e-06,9.00011e-06,1.46331e-06,0
-3.38877e-05,8.30375e-06,6.57987e-07,8.45575e-06,7.18253e-06,-6.3454e-06,7.99138e-06,1.00742e-06,0
-3.16095e-05,9.60906e-06,-7.6303e-07,2.17868e-06,4.57959e-06,-9.0737e-06,7.28032e-06,-7.47535e-07,0
-3.06481e-05,1.3029e-05,-2.83108e-06,-7.55618e-07,7.774e-06,-1.28936e-05,6.93764e-06,-1.77781e-06,0
-2.94443e-05,1.48917e-05,-2.91986e-06,-3.07854e-06,1.27972e-05,-1.6415e-05,8.07696e-06,-2.57361e-06,0
-2.84051e-05,1.35973e-05,-2.3512e-06,-3.45576e-06,1.35561e-05,-1.8119e-05,9.92621e-06,-3.89363e-06,0
-2.97741e-05,1.11486e-05,-2.59134e-06,-3.90652e-06,1.03435e-05,-1.84875e-05,1.00262e-05,-3.13536e-06,0
-3.19832e-05,8.7296e-06,-2.30048e-06,-7.42268e-06,9.86679e-06,-1.84728e-05,1.04997e-05,6.50933e-07,0
-3.22125e-05,6.22896e-06,1.12654e-06,-1.46729e-05,1.2664e-05,-1.70133e-05,1.22355e-05,4.60399e-06,0
-2.99522e-05,5.53414e-06,4.29107e-06,-2.08979e-05,1.58153e-05,-1.44774e-05,1.373e-05,6.43534e-06,0
-2.73793e-05,6.91808e-06,3.2628e-06,-2.74114e-05,1.6041e-05,-1.31682e-05,1.46713e-05,6.50737e-06,0
-2.59369e-05,8.64834e-06,-3.02645e-07,-3.32085e-05,1.46359e-05,-1.35014e-05,1.51898e-05,5.52709e-06,0
-2.67893e-05,8.47378e-06,-4.00252e-06,-3.4499e-05,1.30231e-05,-1.37162e-05,1.52176e-05,4.48677e-06,0
-2.76811e-05,7.73019e-06,-5.43312e-06,-3.19178e-05,1.17739e-05,-1.51018e-05,1.50701e-05,4.01987e-06,0
-2.69969e-05,7.92183e-06,-2.73653e-06,-2.80699e-05,1.09927e-05,-1.76355e-05,1.47925e-05,3.00225e-06,0
-2.63595e-05,8.55937e-06,7.66335e-07,-2.28803e-05,1.00862e-05,-1.91468e-05,1.35131e-05,2.64525e-06,0
-2.73667e-05,9.28129e-06,1.30557e-06,-1.52268e-05,8.79256e-06,-1.87593e-05,1.31027e-05,2.92069e-06,0
-2.86222e-05,1.01759e-05,-1.66557e-07,-8.04432e-06,7.00608e-06,-1.85076e-05,1.49752e-05,3.00069e-06,0
-2.91292e-05,1.11191e-05,-1.61157e-06,-3.78418e-06,5.60218e-06,-1.84417e-05,1.77839e-05,3.34896e-06,0
-2.91183e-05,1.12568e-05,-2.63247e-06,-3.88826e-06,4.28973e-06,-1.72666e-05,1.9729e-05,4.39676e-06,0
-2.94455e-05,1.03712e-05,-3.30764e-06,-9.10458e-06,2.94135e-06,-1.66929e-05,2.07965e-05,5.65652e-06,0
-3.06002e-05,8.78703e-06,-2.67105e-06,-1.95457e-05,1.74683e-06,-1.63847e-05,2.06198e-05,4.75434e-06,0
-3.15492e-05,6.79821e-06,-1.80737e-06,-3.01765e-05,2.29052e-06,-1.51286e-05,1.95808e-05,8.03887e-07,0
-3.13204e-05,4.14162e-06,-3.06199e-06,-3.5808e-05,5.07484e-06,-1.39718e-05,1.77014e-05,-2.60176e-06,0
-3.09705e-05,1.39359e-06,-5.54892e-06,-3.46708e-05,9.9395e-06,-1.36952e-05,1.41722e-05,-3.25291e-06,0
-3.10563e-05,3.61917e-07,-6.96747e-06,-2.90157e-05,1.39136e-05,-1.3522e-05,9.29918e-06,-3.14222e-06,0
-3.05112e-05,2.09505e-06,-6.91162e-06,-2.57092e-05,1.5705e-05,-1.37785e-05,4.11504e-06,-3.20154e-06,0
-3.14649e-05,3.45185e-06,-6.11272e-06,-2.6544e-05,1.65812e-05,-1.5385e-05,2.15837e-06,-2.8867e-06,0
-3.27525e-05,2.75677e-06,-5.029e-06,-2.5013e-05,1.74667e-05,-1.53858e-05,2.75149e-06,-2.27459e-06,0
-3.20566e-05,2.07118e-06,-4.87029e-06,-1.71487e-05,1.77498e-05,-1.31701e-05,2.53655e-06,5.193e-07,0
-3.05227e-05,4.5494e-06,-5.41179e-06,-8.85805e-07,1.55012e-05,-1.10336e-05,2.22419e-06,5.12533e-06,0
-2.80222e-05,9.77029e-06,-4.46902e-06,1.85361e-05,1.39524e-05,-7.70675e-06,2.07828e-06,7.83407e-06,0
-2.57426e-05,1.36858e-05,-2.93647e-06,3.16676e-05,1.56526e-05,-3.36209e-06,1.60908e-06,8.16627e-06,0
-2.62095e-05,1.32802e-05,-3.10023e-06,3.56945e-05,1.80037e-05,-5.87413e-07,2.30342e-06,8.88381e-06,0
-2.82088e-05,1.46196e-05,-4.3116e-06,3.15537e-05,1.7854e-05,-1.89426e-06,4.67482e-06,1.02037e-05,0
-2.84168e-05,2.32008e-05,-4.80142e-06,2.35247e-05,1.6931e-05,-3.94897e-06,8.51679e-06,9.8474e-06,0
-2.73605e-05,3.48854e-05,-6.14189e-06,1.78615e-05,1.8299e-05,-4.40599e-06,1.17314e-05,8.8791e-06,0
-2.74096e-05,4.50954e-05,-8.40328e-06,1.4508e-05,2.02681e-05,-5.31315e-06,1.38949e-05,8.4424e-06,0
-2.91685e-05,5.13501e-05,-1.02965e-05,1.14561e-05,2.14439e-05,-5.71094e-06,1.3601e-05,9.02267e-06,0
-3.14995e-05,4.96068e-05,-1.15703e-05,8.76965e-06,2.08346e-05,-4.06765e-06,1.12868e-05,8.99754e-06,0
-3.21485e-05,3.70054e-05,-1.33134e-05,7.50395e-06,1.82812e-05,-1.19873e-06,9.8898e-06,8.08535e-06,0
-3.12642e-05,1.74807e-05,-1.60328e-05,8.74114e-06,1.44627e-05,6.69962e-07,1.02288e-05,7.574e-06,0
-3.05923e-05,-3.50612e-06,-1.85594e-05,1.35714e-05,1.14159e-05,1.05013e-06,1.21915e-05,7.66195e-06,0
-3.13404e-05,-1.95074e-05,-1.9897e-05,2.24798e-05,1.04697e-05,-7.9757e-07,1.41824e-05,8.02603e-06,0
-3.22628e-05,-2.62798e-05,-2.01542e-05,3.0105e-05,1.02328e-05,-4.86361e-06,1.63349e-05,8.41773e-06,0
-3.21962e-05,-2.31684e-05,-1.96278e-05,3.11708e-05,9.3871e-06,-7.20257e-06,1.82448e-05,8.78959e-06,0
-3.16295e-05,-1.31194e-05,-1.81609e-05,2.33685e-05,6.86841e-06,-5.9468e-06,1.82982e-05,8.17232e-06,0
-3.10569e-05,-5.573e-07,-1.6536e-05,9.95471e-06,5.04343e-06,-4.81363e-06,1.61498e-05,6.33689e-06,0
-3.03982e-05,8.60129e-06,-1.48836e-05,-4.88316e-06,5.7402e-06,-5.02336e-06,1.526e-05,3.22933e-06,0
-2.94364e-05,1.08553e-05,-1.30987e-05,-1.59714e-05,7.71747e-06,-4.41758e-06,1.60346e-05,9.85281e-07,0
-2.87091e-05,8.78117e-06,-1.09988e-05,-1.60865e-05,9.20629e-06,-3.25666e-06,1.67913e-05,2.40127e-06,0
-2.83194e-05,6.59835e-06,-8.44324e-06,-8.2701e-07,9.6099e-06,-2.57393e-06,1.71375e-05,4.86137e-06,0
-2.79916e-05,6.3512e-06,-7.32619e-06,1.84919e-05,9.76919e-06,-3.42049e-06,1.72964e-05,5.07722e-06,0
-2.6949e-05,8.07313e-06,-9.67583e-06,2.47388e-05,1.0565e-05,-4.83746e-06,1.75342e-05,3.93917e-06,0
-2.44023e-05,1.20686e-05,-1.11364e-05,1.39229e-05,1.17739e-05,-4.74757e-06,1.68001e-05,2.0138e-06,0
-2.31351e-05,1.54648e-05,-1.14367e-05,-3.63743e-06,1.42195e-05,-5.88722e-06,1.49704e-05,2.02549e-07,0
-2.55882e-05,1.69176e-05,-1.24909e-05,-1.05521e-05,1.74112e-05,-8.57787e-06,1.44738e-05,-1.07888e-06,0
-2.82939e-05,1.68433e-05,-1.28814e-05,-3.65341e-06,1.92494e-05,-9.55988e-06,1.40821e-05,-1.59579e-06,0
-2.90723e-05,1.59939e-05,-1.22081e-05,5.78775e-06,2.14687e-05,-9.04035e-06,1.2598e-05,-2.18732e-06,0
-2.89802e-05,1.45741e-05,-1.14435e-05,1.10847e-05,2.57887e-05,-8.61892e-06,1.28885e-05,-1.48193e-06,0
-2.9856e-05,1.4835e-05,-1.20198e-05,1.32306e-05,2.90871e-05,-8.11822e-06,1.36054e-05,1.84012e-07,0
-3.06108e-05,1.86723e-05,-1.24999e-05,9.57253e-06,2.82312e-05,-7.61434e-06,1.366e-05,1.54539e-06,0
-3.02797e-05,2.12949e-05,-1.29912e-05,-4.80761e-06,2.4747e-05,-6.96991e-06,1.3583e-05,2.83089e-06,0
-3.02268e-05,2.27823e-05,-1.3496e-05,-3.26363e-05,2.0819e-05,-4.54198e-06,1.32191e-05,3.63531e-06,0
-3.0035e-05,2.46702e-05,-1.35789e-05,-6.56964e-05,1.70085e-05,-1.9911e-06,1.29783e-05,4.75359e-06,0
-2.89019e-05,2.6736e-05,-1.42965e-05,-8.99353e-05,1.54828e-05,-1.5261e-06,1.36406e-05,3.52923e-06,0
-2.83418e-05,2.72572e-05,-1.52871e-05,-9.97527e-05,1.64611e-05,-2.74804e-06,1.45081e-05,5.19785e-07,0
-2.83311e-05,2.51068e-05,-1.55995e-05,-9.53504e-05,1.75799e-05,-5.07467e-06,1.63093e-05,-1.63533e-06,0
-2.79364e-05,2.35318e-05,-1.50511e-05,-8.25697e-05,1.76173e-05,-8.19117e-06,1.90945e-05,-2.11458e-06,0
-2.86102e-05,2.5446e-05,-1.26988e-05,-6.62084e-05,1.62655e-05,-1.05355e-05,1.99536e-05,-1.94202e-06,0
-3.03717e-05,2.90394e-05,-8.32316e-06,-4.77261e-05,1.46275e-05,-1.07817e-05,1.79458e-05,-2.22536e-06,0
-3.24849e-05,2.89008e-05,-4.33109e-06,-2.46279e-05,1.47037e-05,-9.59531e-06,1.55501e-05,-3.24447e-06,0
-3.42753e-05,2.47448e-05,-3.76023e-06,3.11735e-06,1.80942e-05,-8.00066e-06,1.48321e-05,-4.22974e-06,0
-3.50106e-05,2.11338e-05,-5.20024e-06,2.52869e-05,2.36766e-05,-7.39628e-06,1.55736e-05,-4.40948e-06,0
-3.43485e-05,2.10894e-05,-5.06387e-06,3.07736e-05,2.78997e-05,-8.08455e-06,1.64904e-05,-4.40169e-06,0
-3.27782e-05,2.13835e-05,-3.39984e-06,2.37703e-05,2.92132e-05,-8.84732e-06,1.60992e-05,-4.21763e-06,0
-3.10211e-05,2.12633e-05,-2.9934e-06,1.72185e-05,2.76962e-05,-8.66224e-06,1.50793e-05,-4.90158e-06,0
-3.04298e-05,2.12836e-05,-3.82952e-06,1.39635e-05,2.33392e-05,-7.69948e-06,1.45302e-05,-6.49773e-06,0
-3.07191e-05,2.04977e-05,-3.19009e-06,1.14748e-05,1.90356e-05,-8.36443e-06,1.3957e-05,-7.63122e-06,0
-3.09734e-05,1.80669e-05,-1.89865e-06,7.48819e-06,1.72837e-05,-9.12443e-06,1.20239e-05,-6.60599e-06,0
-3.04172e-05,1.50756e-05,-1.82226e-06,4.52545e-06,1.70632e-05,-8.1634e-06,6.37981e-06,-4.43506e-06,0
-2.91571e-05,1.27437e-05,-2.16508e-06,6.46271e-06,1.6127e-05,-7.07584e-06,-1.08009e-06,-3.5557e-06,0
-2.89439e-05,1.06615e-05,-2.33138e-06,1.20281e-05,1.41575e-05,-7.41592e-06,-4.49055e-06,-3.91491e-06,0
-3.01628e-05,9.44571e-06,-3.02379e-06,1.47574e-05,1.13824e-05,-8.87745e-06,-2.3262e-06,-3.71933e-06,0
-3.06368e-05,8.86139e-06,-3.54294e-06,1.34346e-05,8.10851e-06,-7.99526e-06,4.30075e-06,-3.39411e-06,0
-2.88849e-05,1.01561e-05,-4.33907e-06,9.90514e-06,6.13778e-06,-5.99533e-06,1.32264e-05,-2.52726e-06,0
-2.73764e-05,1.07325e-05,-7.53373e-06,6.79797e-06,6.6604e-06,-4.49167e-06,2.07561e-05,-3.82781e-07,0
-2.8436e-05,1.10018e-05,-9.38075e-06,6.18404e-06,7.74748e-06,-4.58891e-06,2.36738e-05,3.6109e-07,0
-2.95049e-05,1.4354e-05,-7.34868e-06,6.95001e-06,8.91387e-06,-5.40359e-06,2.35299e-05,5.1242e-07,0
-2.87521e-05,1.97099e-05,-5.14785e-06,8.71332e-06,1.11372e-05,-6.10018e-06,2.37279e-05,7.12134e-07,0
-2.76836e-05,2.4534e-05,-4.70176e-06,9.22482e-06,1.24282e-05,-6.84432e-06,2.48153e-05,1.32337e-06,0
-2.6504e-05,2.6489e-05,-5.17509e-06,7.409e-06,1.12211e-05,-6.0817e-06,2.48358e-05,2.27643e-06,0
-2.54939e-05,2.70423e-05,-4.76173e-06,3.26118e-06,8.41522e-06,-4.34319e-06,2.37515e-05,3.01615e-06,0
-2.62871e-05,2.80841e-05,-4.81973e-06,-1.54103e-06,6.58139e-06,-1.98774e-06,2.38489e-05,3.31366e-06,0
-2.93338e-05,2.99659e-05,-7.24457e-06,-6.65516e-06,5.24889e-06,-5.58386e-07,2.5387e-05,3.45277e-06,0
-3.22552e-05,3.06207e-05,-1.04821e-05,-1.02644e-05,5.52929e-06,-1.63772e-06,2.62757e-05,3.75692e-06,0
-3.42517e-05,2.89395e-05,-1.28954e-05,-1.04407e-05,8.30339e-06,-4.91178e-06,2.50275e-05,2.83686e-06,0
-3.50034e-05,2.59794e-05,-1.4148e-05,-9.05747e-06,1.13502e-05,-7.19942e-06,2.50082e-05,1.24566e-06,0
-3.48713e-05,2.25155e-05,-1.44875e-05,-8.41081e-06,1.34622e-05,-7.71882e-06,2.73424e-05,-4.89173e-07,0
-3.44428e-05,1.90873e-05,-1.38328e-05,-8.07511e-06,1.52898e-05,-7.21551e-06,2.91232e-05,-1.69946e-06,0
-3.31103e-05,1.63996e-05,-1.21484e-05,-7.0918e-06,1.70739e-05,-6.49592e-06,2.92785e-05,-2.48606e-06,0
-3.12448e-05,1.54897e-05,-9.96064e-06,-5.35948e-06,1.68619e-05,-6.13653e-06,2.86172e-05,-3.18309e-06,0
-3.07782e-05,1.55867e-05,-8.35358e-06,-3.09936e-06,1.4944e-05,-6.97789e-06,2.66621e-05,-4.43575e-06,0
-3.15711e-05,1.54492e-05,-7.55953e-06,-2.42617e-06,1.32903e-05,-8.4224e-06,2.38037e-05,-5.2392e-06,0
-3.23307e-05,1.47211e-05,-8.01853e-06,-3.52435e-06,1.36073e-05,-7.9421e-06,2.14268e-05,-5.47213e-06,0
-3.26816e-05,1.49399e-05,-9.66051e-06,-4.59171e-06,1.47501e-05,-5.92376e-06,1.85063e-05,-5.92717e-06,0
-3.19035e-05,1.68044e-05,-1.11378e-05,-5.01432e-06,1.5703e-05,-5.70111e-06,1.47928e-05,-4.54968e-06,0
-3.13308e-05,1.77392e-05,-1.1662e-05,-5.54662e-06,1.53104e-05,-8.94323e-06,1.07629e-05,-1.65918e-06,0
-3.21743e-05,1.61961e-05,-1.18181e-05,-5.98236e-06,1.42042e-05,-1.12515e-05,6.70407e-06,-3.41258e-07,0
-3.20233e-05,1.51976e-05,-1.22662e-05,-8.27499e-06,1.37619e-05,-1.09722e-05,6.51778e-06,-1.29266e-06,0
-3.01727e-05,1.45436e-05,-1.27741e-05,-1.21206e-05,1.22881e-05,-1.05934e-05,7.96711e-06,-2.20643e-06,0
-2.94886e-05,1.33271e-05,-1.45332e-05,-1.35845e-05,1.20932e-05,-1.23461e-05,7.79082e-06,-1.51336e-06,0
-2.98251e-05,1.29088e-05,-1.65804e-05,-1.23183e-05,1.31059e-05,-1.50344e-05,7.47818e-06,-2.87322e-07,0
-3.18842e-05,1.25801e-05,-1.67941e-05,-1.08464e-05,1.28016e-05,-1.68982e-05,6.15625e-06,-1.56864e-07,0
-3.40853e-05,1.28351e-05,-1.5082e-05,-8.7709e-06,1.06293e-05,-1.83814e-05,3.72194e-06,-1.08929e-06,0
-3.57653e-05,1.35802e-05,-1.28211e-05,-7.24822e-06,7.72733e-06,-1.84141e-05,2.33969e-06,-1.90322e-06,0
-3.61479e-05,1.51996e-05,-1.00906e-05,-9.15687e-06,6.12284e-06,-1.83664e-05,4.80901e-06,-3.22495e-06,0
-3.39683e-05,1.67093e-05,-7.40367e-06,-1.13006e-05,5.7672e-06,-1.7929e-05,7.87613e-06,-3.66069e-06,0
-3.15096e-05,1.63729e-05,-6.72859e-06,-1.11891e-05,6.45957e-06,-1.63637e-05,1.01219e-05,-2.9822e-06,0
-2.94417e-05,1.54041e-05,-7.23628e-06,-9.40954e-06,9.29817e-06,-1.52731e-05,1.06915e-05,-2.91863e-06,0
-2.856e-05,1.57544e-05,-7.07793e-06,-5.69664e-06,1.67139e-05,-1.49112e-05,8.48746e-06,-1.42288e-06,0
-2.79672e-05,1.7762e-05,-5.46132e-06,6.85541e-07,2.37054e-05,-1.51156e-05,5.1118e-06,5.23334e-07,0
-2.73292e-05,2.04156e-05,-3.92936e-06,5.90445e-06,2.38084e-05,-1.56771e-05,3.12262e-06,5.1155e-08,0
-2.78085e-05,2.1978e-05,-3.45213e-06,3.29494e-06,1.98139e-05,-1.73415e-05,3.67639e-06,-1.35467e-06,0
-2.99618e-05,2.13265e-05,-3.30649e-06,-8.39901e-06,1.62303e-05,-1.96843e-05,5.75348e-06,-2.34294e-07,0
-3.18892e-05,2.00401e-05,-3.29811e-06,-2.00102e-05,1.37367e-05,-2.07386e-05,8.20083e-06,2.16321e-06,0
-3.21028e-05,1.99114e-05,-3.50997e-06,-2.20887e-05,1.26473e-05,-1.90885e-05,9.47862e-06,3.18551e-06,0
-3.15801e-05,2.11557e-05,-3.67409e-06,-1.65769e-05,1.31671e-05,-1.6509e-05,9.78212e-06,1.31886e-06,0
-3.19677e-05,2.32683e-05,-4.3447e-06,-1.24961e-05,1.40949e-05,-1.5926e-05,1.07356e-05,-1.63566e-06,0
-3.23992e-05,2.67213e-05,-5.80179e-06,-1.51481e-05,1.56022e-05,-1.8253e-05,1.36374e-05,-2.24996e-06,0
-3.18248e-05,3.10475e-05,-7.61108e-06,-1.73753e-05,1.61503e-05,-2.03927e-05,1.60147e-05,-5.81615e-07,0
-3.18167e-05,3.15758e-05,-9.88179e-06,-8.17357e-06,1.44328e-05,-2.00943e-05,1.6883e-05,2.32326e-07,0
-3.17672e-05,2.75051e-05,-1.1219e-05,1.04768e-05,1.3261e-05,-1.87027e-05,1.66743e-05,-5.26543e-08,0
-3.05429e-05,2.28994e-05,-1.06901e-05,2.75152e-05,1.30787e-05,-1.88142e-05,1.65099e-05,-1.84447e-08,0
-3.0247e-05,1.9739e-05,-8.27494e-06,3.78773e-05,1.15834e-05,-1.95873e-05,1.60424e-05,-5.94681e-07,0
-3.0489e-05,1.64263e-05,-5.35303e-06,4.03804e-05,1.15729e-05,-1.7896e-05,1.52725e-05,-5.85212e-07,0
-2.92016e-05,6.93451e-06,-4.93848e-06,3.36219e-05,1.6287e-05,-1.57619e-05,1.41807e-05,1.06551e-06,0
-2.78519e-05,-4.41449e-06,-6.43517e-06,1.56141e-05,1.93376e-05,-1.4963e-05,1.18912e-05,4.46042e-06,0
-2.76189e-05,-1.12652e-05,-8.00988e-06,-1.1348e-05,1.69113e-05,-1.40546e-05,1.11621e-05,6.50255e-06,0
-2.82402e-05,-1.59786e-05,-8.53656e-06,-3.58316e-05,1.41743e-05,-1.10687e-05,1.20672e-05,4.53031e-06,0
-2.74655e-05,-1.8959e-05,-7.37255e-06,-4.40953e-05,1.54532e-05,-8.09285e-06,1.21759e-05,2.45085e-06,0
-2.59737e-05,-1.8409e-05,-5.40364e-06,-3.15191e-05,1.96956e-05,-7.06742e-06,1.23711e-05,3.21281e-06,0
-2.56903e-05,-1.4302e-05,-3.3098e-06,-7.94674e-06,2.34951e-05,-5.79193e-06,1.32015e-05,5.60894e-06,0
-2.56744e-05,-8.91924e-06,-2.60752e-06,1.40572e-05,2.50109e-05,-4.08803e-06,1.31239e-05,7.68451e-06,0
-2.68393e-05,-5.35388e-06,-3.8201e-06,2.6347e-05,2.31001e-05,-3.69256e-06,1.17379e-05,8.61532e-06,0
-2.89767e-05,-5.83796e-06,-4.1873e-06,2.70068e-05,1.91712e-05,-5.5379e-06,6.00794e-06,9.56074e-06,0
-3.05718e-05,-7.19966e-06,-3.14153e-06,2.02214e-05,1.5219e-05,-8.51278e-06,-6.09075e-06,9.32111e-06,0
-3.18147e-05,-6.62758e-06,-1.77095e-06,9.65332e-06,1.22802e-05,-9.99794e-06,-1.74788e-05,7.85475e-06,0
-3.26175e-05,-4.73456e-06,-1.38766e-06,-4.44081e-06,9.68168e-06,-8.84646e-06,-1.9657e-05,8.00409e-06,0
-3.24054e-05,-2.58191e-06,-1.83998e-06,-1.96136e-05,7.51961e-06,-6.33103e-06,-1.29842e-05,9.08746e-06,0
-3.18036e-05,-1.78686e-06,-1.92232e-06,-2.96661e-05,6.23854e-06,-4.69021e-06,-2.61494e-06,8.62189e-06,0
-3.27833e-05,-2.27958e-06,-1.87696e-06,-3.38977e-05,5.52266e-06,-5.3938e-06,9.07413e-06,6.02854e-06,0
-3.50581e-05,-1.52023e-06,-1.87278e-06,-3.49012e-05,5.39474e-06,-7.61322e-06,2.16455e-05,3.24412e-06,0
-3.65933e-05,1.87376e-06,-2.28598e-06,-3.16144e-05,6.46792e-06,-8.69171e-06,3.31177e-05,2.57127e-06,0
-3.59709e-05,6.62614e-06,-3.19408e-06,-2.26198e-05,9.04374e-06,-8.46695e-06,4.04662e-05,2.98003e-06,0
-3.3408e-05,1.02451e-05,-4.75497e-06,-1.16694e-05,1.16175e-05,-8.00918e-06,4.23136e-05,2.14526e-06,0
-3.1764e-05,1.05637e-05,-6.59053e-06,-3.69225e-06,1.31814e-05,-6.57333e-06,4.00083e-05,2.40063e-07,0
-3.22829e-05,8.25496e-06,-9.18052e-06,6.50435e-07,1.30182e-05,-3.95907e-06,3.53755e-05,-2.04218e-06,0
-3.2311e-05,7.61175e-06,-1.32377e-05,3.0066e-06,1.15189e-05,-2.99178e-06,2.9307e-05,-4.2286e-06,0
-3.12689e-05,1.03389e-05,-1.84608e-05,2.82844e-06,1.03303e-05,-4.3323e-06,2.37049e-05,-6.94339e-06,0
-3.10497e-05,1.35299e-05,-2.2698e-05,-5.27652e-08,1.04127e-05,-3.74816e-06,1.99837e-05,-9.67401e-06,0
-3.13027e-05,1.36582e-05,-2.32976e-05,-5.04315e-06,9.84663e-06,-7.85368e-07,1.73222e-05,-9.26807e-06,0
-3.05634e-05,1.14597e-05,-2.17199e-05,-1.15902e-05,8.45682e-06,6.15426e-07,1.4876e-05,-6.22233e-06,0
-2.96873e-05,8.61301e-06,-1.83104e-05,-1.60684e-05,9.01961e-06,2.8266e-07,1.32909e-05,-3.68141e-06,0
-2.94615e-05,6.86017e-06,-1.39248e-05,-1.50081e-05,9.66781e-06,1.08017e-07,1.11261e-05,-1.29094e-06,0
-3.05838e-05,7.07004e-06,-1.21965e-05,-1.0374e-05,1.12467e-05,-9.52331e-07,8.59004e-06,2.20698e-06,0
-3.25147e-05,7.51264e-06,-1.20746e-05,-6.96294e-06,1.21578e-05,-2.85519e-06,8.99101e-06,5.17175e-06,0
-3.28451e-05,8.62317e-06,-1.26911e-05,-5.79458e-06,1.05203e-05,-6.42319e-06,9.57443e-06,5.70557e-06,0
-3.25737e-05,1.00639e-05,-1.29768e-05,-4.84012e-06,1.09409e-05,-9.74705e-06,7.05596e-06,4.54308e-06,0
-3.07584e-05,1.17333e-05,-1.21484e-05,-2.10659e-06,1.2677e-05,-1.04114e-05,1.35831e-06,3.94587e-06,0
-2.94104e-05,1.41319e-05,-1.00603e-05,5.6134e-07,1.44705e-05,-1.03053e-05,-3.66972e-06,3.05976e-06,0
-2.98622e-05,1.75252e-05,-8.95642e-06,7.8836e-07,1.38672e-05,-9.74432e-06,-4.95729e-06,2.42375e-06,0
-3.05389e-05,1.91439e-05,-9.87332e-06,-1.45891e-06,1.19187e-05,-8.00493e-06,-3.48405e-06,3.23118e-06,0
-3.07037e-05,1.77761e-05,-1.03968e-05,-4.47621e-06,1.055e-05,-6.29093e-06,-1.83401e-06,3.76282e-06,0
-2.92367e-05,1.58036e-05,-9.92699e-06,-7.58968e-06,1.13479e-05,-7.28533e-06,-2.20727e-06,3.87726e-06,0
-2.7725e-05,1.41543e-05,-9.53425e-06,-1.02719e-05,1.296e-05,-9.57192e-06,-2.83016e-06,3.54426e-06,0
-2.68957e-05,1.30716e-05,-9.89002e-06,-1.11458e-05,1.39012e-05,-1.04291e-05,-2.44882e-06,2.84374e-06,0
-2.73043e-05,1.26061e-05,-1.07147e-05,-1.16315e-05,1.61685e-05,-1.06404e-05,-1.57803e-06,2.28786e-06,0
-2.77923e-05,1.20233e-05,-1.2206e-05,-1.25469e-05,1.81443e-05,-1.20654e-05,2.0036e-08,2.24204e-06,0
-2.79208e-05,1.1375e-05,-1.31778e-05,-1.22847e-05,1.88176e-05,-1.36462e-05,3.46449e-06,2.79134e-06,0
-2.77678e-05,1.24129e-05,-1.3029e-05,-1.043e-05,1.79162e-05,-1.39649e-05,6.5664e-06,3.77959e-06,0
-2.78282e-05,1.48727e-05,-1.19796e-05,-8.9782e-06,1.5586e-05,-1.39961e-05,7.73538e-06,4.22002e-06,0
-2.80187e-05,1.66229e-05,-1.0998e-05,-7.98938e-06,1.1712e-05,-1.45459e-05,8.2879e-06,4.09466e-06,0
-2.85024e-05,1.73303e-05,-9.88679e-06,-5.42465e-06,7.93612e-06,-1.53812e-05,7.46709e-06,3.90727e-06,0
-2.9462e-05,1.9649e-05,-9.12986e-06,-6.26168e-07,5.1957e-06,-1.55481e-05,4.96145e-06,3.79172e-06,0
-2.97656e-05,2.25468e-05,-7.13682e-06,5.38607e-06,5.17637e-06,-1.49684e-05,3.13552e-06,3.53996e-06,0
-2.88679e-05,2.2602e-05,-4.85549e-06,1.01569e-05,5.89841e-06,-1.48704e-05,3.29766e-06,2.21348e-06,0
-2.91613e-05,1.9001e-05,-4.41375e-06,9.38672e-06,5.8835e-06,-1.46135e-05,6.19749e-06,8.88292e-08,0
-3.04127e-05,1.43501e-05,-5.96316e-06,3.55727e-06,6.24129e-06,-1.39611e-05,1.16294e-05,-2.72271e-06,0
-2.9467e-05,1.25529e-05,-7.6004e-06,-2.91293e-06,7.07651e-06,-1.37607e-05,2.018e-05,-5.34325e-06,0
-2.90186e-05,1.43941e-05,-4.51251e-06,-6.20664e-06,8.9739e-06,-1.4447e-05,3.05721e-05,-6.24432e-06,0
-2.95855e-05,1.7836e-05,-9.66865e-07,-5.95344e-06,1.07519e-05,-1.56509e-05,3.73498e-05,-4.73648e-06,0
-2.92721e-05,2.04373e-05,-2.61265e-06,-4.93512e-06,1.04752e-05,-1.63429e-05,3.95677e-05,-3.24681e-06,0
-2.74491e-05,2.09302e-05,-6.40026e-06,-4.7211e-06,8.87958e-06,-1.68506e-05,3.70192e-05,-4.44023e-06,0
-2.6196e-05,1.95582e-05,-8.12779e-06,-2.05128e-06,8.9563e-06,-1.65137e-05,2.81323e-05,-5.49481e-06,0
-2.5804e-05,1.84805e-05,-6.82494e-06,7.71897e-06,8.57044e-06,-1.53034e-05,1.37349e-05,-3.80608e-06,0
-2.54245e-05,1.83021e-05,-4.4853e-06,1.5416e-05,5.84749e-06,-1.36139e-05,-3.88149e-06,-3.70294e-06,0
-2.5361e-05,1.86937e-05,-4.22109e-06,1.21137e-05,4.67057e-06,-1.21063e-05,-1.85178e-05,-6.72037e-06,0
-2.62891e-05,1.83418e-05,-6.06856e-06,1.54744e-06,5.63795e-06,-1.10868e-05,-2.41032e-05,-7.73971e-06,0
-2.79457e-05,1.61471e-05,-7.36043e-06,-9.88179e-06,6.76868e-06,-9.50904e-06,-1.75624e-05,-6.76796e-06,0
-2.99709e-05,1.40455e-05,-7.29633e-06,-1.87038e-05,8.54293e-06,-7.49999e-06,-7.73959e-07,-6.55374e-06,0
-3.24527e-05,1.30826e-05,-6.21689e-06,-2.55674e-05,1.10609e-05,-5.7751e-06,1.77889e-05,-6.08387e-06,0
-3.2825e-05,1.33858e-05,-4.31205e-06,-3.35175e-05,1.28177e-05,-5.3632e-06,3.20601e-05,-3.58501e-06,0
-3.11982e-05,1.41413e-05,-1.66557e-06,-4.23609e-05,1.40222e-05,-6.10433e-06,3.93914e-05,-1.54729e-06,0
-2.97149e-05,1.44962e-05,7.12038e-07,-4.55652e-05,1.51673e-05,-6.33574e-06,3.9152e-05,-2.46061e-06,0
-3.01242e-05,1.49683e-05,2.29041e-06,-3.78751e-05,1.43622e-05,-4.8651e-06,3.3525e-05,-4.42591e-06,0
-3.12443e-05,1.61274e-05,3.95962e-06,-2.00158e-05,1.20165e-05,-3.54889e-06,2.38247e-05,-4.34679e-06,0
-3.25266e-05,1.80488e-05,5.57687e-06,7.58442e-07,1.02843e-05,-4.67313e-06,1.1119e-05,-1.96724e-06,0
-3.37162e-05,2.01208e-05,4.97038e-06,1.75035e-05,1.04288e-05,-7.92985e-06,-1.60227e-06,3.33774e-07,0
-3.3862e-05,2.04437e-05,9.26846e-07,2.69366e-05,1.10873e-05,-1.02175e-05,-1.02131e-05,9.98849e-07,0
-3.35383e-05,1.83861e-05,-3.76086e-06,2.62666e-05,1.11146e-05,-1.0397e-05,-1.15269e-05,1.29331e-06,0
-3.3319e-05,1.72477e-05,-8.10334e-06,1.13781e-05,1.05121e-05,-1.12563e-05,-7.55379e-06,2.09773e-06,0
-3.27254e-05,1.96336e-05,-1.23788e-05,-1.37892e-05,9.59998e-06,-1.32131e-05,-2.52291e-06,2.05601e-06,0
-3.14652e-05,2.12906e-05,-1.59056e-05,-3.49173e-05,7.58663e-06,-1.42428e-05,1.78627e-06,2.96428e-06,0
-3.09827e-05,2.00223e-05,-1.74847e-05,-4.27105e-05,4.74904e-06,-1.37895e-05,4.94777e-06,5.02257e-06,0
-3.22562e-05,1.96288e-05,-1.65211e-05,-3.91484e-05,4.22103e-06,-1.35449e-05,7.77034e-06,5.22808e-06,0
-3.34054e-05,1.98003e-05,-1.44542e-05,-3.40004e-05,4.77502e-06,-1.30429e-05,8.58647e-06,3.3978e-06,0
-3.29866e-05,1.83026e-05,-1.35689e-05,-3.07886e-05,4.50688e-06,-1.20075e-05,7.69276e-06,1.65175e-06,0
-3.1909e-05,1.47957e-05,-1.36169e-05,-1.99227e-05,6.3894e-06,-1.21089e-05,8.92308e-06,1.13565e-06,0
-3.02229e-05,9.54042e-06,-1.29467e-05,-5.0997e-09,1.11178e-05,-1.33662e-05,9.42866e-06,2.98702e-06,0
-2.94935e-05,3.41292e-06,-1.24223e-05,1.76399e-05,1.50304e-05,-1.42928e-05,8.82984e-06,4.39445e-06,0
-2.9962e-05,6.99422e-07,-1.21054e-05,2.7357e-05,1.77911e-05,-1.36398e-05,7.00491e-06,4.13326e-06,0
-3.02653e-05,2.82497e-06,-1.02838e-05,3.17788e-05,2.00815e-05,-1.17948e-05,2.68647e-06,4.71291e-06,0
-3.062e-05,6.94104e-06,-7.08072e-06,3.53167e-05,2.09999e-05,-1.04246e-05,9.61145e-07,5.93663e-06,0
-2.95098e-05,1.0292e-05,-3.18844e-06,4.07985e-05,2.17815e-05,-1.03525e-05,1.80587e-06,7.06636e-06,0
-2.79903e-05,1.118e-05,-1.0566e-06,4.61125e-05,2.18013e-05,-1.15806e-05,2.48962e-06,7.17474e-06,0
-2.84813e-05,9.3206e-06,-2.82331e-06,4.1987e-05,2.01632e-05,-1.23973e-05,3.31882e-06,7.60812e-06,0
-2.97315e-05,6.40863e-06,-7.2787e-06,2.80457e-05,1.76975e-05,-1.23817e-05,6.24305e-06,8.84788e-06,0
-3.06529e-05,4.24826e-06,-1.28999e-05,1.16291e-05,1.53016e-05,-1.11583e-05,1.08794e-05,9.7635e-06,0
-3.04139e-05,1.85717e-06,-1.77813e-05,-3.13503e-06,1.28609e-05,-8.45971e-06,1.5278e-05,9.79877e-06,0
-2.92492e-05,2.26237e-07,-2.0818e-05,-1.47509e-05,1.10078e-05,-6.81097e-06,1.75734e-05,1.01863e-05,0
-2.79837e-05,1.07508e-07,-2.21013e-05,-2.20428e-05,9.8751e-06,-6.15436e-06,1.76162e-05,1.03133e-05,0
-2.7007e-05,1.01589e-06,-2.19067e-05,-2.26479e-05,8.49302e-06,-5.54125e-06,1.72197e-05,9.66659e-06,0
-2.63266e-05,3.05027e-06,-1.97937e-05,-1.72351e-05,6.97361e-06,-4.9943e-06,1.75795e-05,9.03601e-06,0
-2.64185e-05,5.8187e-06,-1.52072e-05,-9.32345e-06,5.97696e-06,-5.27129e-06,1.8184e-05,7.95706e-06,0
-2.66709e-05,8.14125e-06,-8.72786e-06,-3.20148e-06,5.74764e-06,-5.64045e-06,1.76215e-05,6.53681e-06,0
-2.55162e-05,9.34376e-06,-6.31988e-07,-1.22404e-06,5.90215e-06,-5.87835e-06,1.63744e-05,6.33535e-06,0
-2.41444e-05,9.73689e-06,1.10854e-05,-2.95368e-06,5.37034e-06,-6.09666e-06,1.52514e-05,7.62547e-06,0
-2.46083e-05,1.00937e-05,2.86803e-05,-4.86308e-06,2.89035e-06,-6.32777e-06,1.48735e-05,7.84772e-06,0
-2.63583e-05,1.11483e-05,4.8975e-05,-4.0805e-06,1.51947e-06,-6.96104e-06,1.48196e-05,5.86525e-06,0
-2.729e-05,1.29582e-05,6.38773e-05,-1.98944e-06,3.47301e-06,-6.72893e-06,1.59052e-05,2.04874e-06,0
-2.67675e-05,1.23212e-05,6.51686e-05,-2.45711e-06,7.7184e-06,-5.17284e-06,1.81537e-05,-2.11654e-06,0
-2.5218e-05,8.3993e-06,4.80703e-05,-6.73116e-06,1.0623e-05,-4.3725e-06,1.90127e-05,-2.98908e-06,0
-2.48442e-05,4.80602e-06,1.69564e-05,-1.51856e-05,1.21747e-05,-5.40027e-06,1.86324e-05,-3.66956e-07,0
-2.56841e-05,3.21575e-06,-2.30643e-05,-2.56433e-05,1.41216e-05,-6.19733e-06,1.89025e-05,1.09442e-06,0
-2.75275e-05,5.01001e-06,-6.10382e-05,-2.98951e-05,1.49125e-05,-4.11633e-06,1.82302e-05,4.78031e-08,0
-2.96061e-05,9.92536e-06,-8.58789e-05,-2.74384e-05,1.55675e-05,-3.65504e-07,1.7274e-05,-2.22368e-06,0
-2.96819e-05,1.55638e-05,-9.36679e-05,-2.65071e-05,1.47911e-05,9.38913e-07,1.78321e-05,-1.51351e-06,0
-2.85544e-05,2.07291e-05,-8.34054e-05,-3.0208e-05,1.26196e-05,3.84703e-07,1.89236e-05,9.89628e-07,0
-2.76472e-05,2.34662e-05,-6.60721e-05,-3.47247e-05,1.1466e-05,3.42359e-07,1.9741e-05,1.77662e-06,0
-2.66091e-05,2.1774e-05,-5.09956e-05,-3.63334e-05,1.0352e-05,1.63005e-06,1.90277e-05,1.63595e-06,0
-2.46503e-05,1.88209e-05,-4.16193e-05,-3.44936e-05,1.07656e-05,1.24882e-06,1.82626e-05,6.66827e-07,0
-2.46743e-05,1.81447e-05,-3.39571e-05,-2.73416e-05,1.23003e-05,-1.01234e-06,1.84402e-05,-8.43597e-07,0
-2.64195e-05,1.83207e-05,-2.41634e-05,-1.83836e-05,1.29273e-05,-2.376e-06,1.86341e-05,-2.92856e-06,0
-2.85145e-05,1.61226e-05,-1.39417e-05,-1.11408e-05,1.25855e-05,-3.24826e-06,1.74276e-05,-5.02221e-06,0
-2.98125e-05,1.29616e-05,-6.94211e-06,-6.83781e-06,1.19819e-05,-4.07035e-06,1.49238e-05,-5.324e-06,0
-3.03308e-05,1.05835e-05,-3.96647e-06,-6.20155e-06,1.20752e-05,-4.95695e-06,1.31552e-05,-3.68004e-06,0
-3.08049e-05,6.7497e-06,-3.41931e-06,-6.11181e-06,1.28935e-05,-5.75117e-06,1.34253e-05,-2.54671e-06,0
-3.1523e-05,7.08784e-06,-4.56845e-06,-2.65814e-06,1.37374e-05,-7.19854e-06,1.53783e-05,-2.62115e-06,0
-3.25404e-05,1.944e-05,-5.93093e-06,4.22424e-06,1.31828e-05,-8.01139e-06,1.71285e-05,-2.50721e-06,0
-3.26899e-05,3.99375e-05,-7.03078e-06,1.41261e-05,1.24012e-05,-7.37107e-06,1.80433e-05,-1.75531e-06,0
-3.30746e-05,5.94291e-05,-6.75795e-06,2.9976e-05,1.36116e-05,-6.57614e-06,1.81968e-05,-1.91659e-06,0
-3.39105e-05,7.16646e-05,-5.41573e-06,4.60881e-05,1.58465e-05,-6.69907e-06,1.87869e-05,-3.40635e-06,0
-3.47554e-05,6.9347e-05,-3.54049e-06,5.34796e-05,1.72699e-05,-7.27658e-06,1.95904e-05,-5.3006e-06,0
-3.44159e-05,5.04712e-05,-2.95717e-06,5.09733e-05,1.73857e-05,-7.64459e-06,2.00013e-05,-5.73705e-06,0
-3.33315e-05,2.3047e-05,-3.12901e-06,4.36954e-05,1.70322e-05,-8.2047e-06,2.04345e-05,-4.18491e-06,0
-3.28852e-05,-5.13436e-06,-3.05929e-06,3.27573e-05,1.71118e-05,-9.2798e-06,2.09536e-05,-1.57844e-06,0
-3.35697e-05,-2.78755e-05,-2.02327e-06,1.62533e-05,1.64083e-05,-1.11656e-05,2.1116e-05,1.15632e-06,0
-3.46235e-05,-4.09357e-05,-1.16613e-06,-8.38644e-06,1.49133e-05,-1.31475e-05,1.94924e-05,2.77193e-06,0
-3.54157e-05,-4.30731e-05,-8.95464e-07,-3.21142e-05,1.38438e-05,-1.36879e-05,1.72608e-05,2.59161e-06,0
-3.48301e-05,-3.7828e-05,-1.08788e-06,-4.08535e-05,1.53278e-05,-1.18867e-05,1.67081e-05,2.1581e-06,0
-3.37098e-05,-3.10363e-05,-9.75388e-07,-3.67741e-05,1.92628e-05,-9.15122e-06,1.65731e-05,2.20255e-06,0
-3.30723e-05,-2.15601e-05,1.37848e-06,-3.53647e-05,2.27346e-05,-7.37161e-06,1.56934e-05,2.82261e-06,0
-3.35748e-05,-1.01815e-05,3.89229e-06,-4.32307e-05,2.25955e-05,-7.409e-06,1.48115e-05,3.02362e-06,0
-3.38302e-05,-1.09722e-06,3.18163e-06,-4.78939e-05,1.99575e-05,-9.10028e-06,1.4269e-05,2.48856e-06,0
-3.23737e-05,4.86645e-06,5.86461e-07,-4.37167e-05,1.63239e-05,-1.06546e-05,1.53459e-05,2.34073e-06,0
-3.12263e-05,5.29383e-06,3.69099e-07,-3.34508e-05,1.41202e-05,-1.00286e-05,1.51278e-05,1.99803e-06,0
-3.13743e-05,3.6358e-06,1.7438e-06,-2.37905e-05,1.38178e-05,-7.95544e-06,1.35459e-05,1.51948e-06,0
-3.22077e-05,2.39767e-06,2.00513e-06,-1.97896e-05,1.3691e-05,-7.64559e-06,1.36259e-05,1.79521e-07,0
-3.41198e-05,2.50937e-06,1.6591e-07,-2.00623e-05,1.50001e-05,-8.07404e-06,1.42296e-05,-6.59685e-07,0
-3.56488e-05,6.62565e-06,-2.29308e-06,-2.18542e-05,1.61565e-05,-7.06502e-06,1.49261e-05,-2.81778e-07,0
-3.43748e-05,1.30301e-05,-3.11062e-06,-2.30405e-05,1.7514e-05,-6.222e-06,1.48324e-05,7.05306e-07,0
-3.2352e-05,1.89064e-05,-2.35822e-06,-2.59355e-05,1.9283e-05,-6.00916e-06,1.41931e-05,1.67768e-06,0
-3.15816e-05,2.23557e-05,-9.19141e-07,-3.33474e-05,1.95615e-05,-6.83742e-06,1.33819e-05,2.24987e-06,0
-3.26985e-05,2.32639e-05,7.14353e-07,-4.43786e-05,1.74935e-05,-8.2535e-06,1.31333e-05,3.00217e-06,0
-3.36938e-05,2.21291e-05,1.78163e-06,-5.28872e-05,1.65011e-05,-9.21195e-06,1.43499e-05,4.34932e-06,0
-3.35303e-05,2.19576e-05,1.54759e-06,-5.65577e-05,1.83292e-05,-9.1339e-06,1.65662e-05,5.20869e-06,0
-3.28965e-05,2.45784e-05,3.41801e-08,-5.18421e-05,2.02923e-05,-8.8823e-06,1.81514e-05,5.19331e-06,0
-3.27394e-05,2.866e-05,-1.82312e-06,-3.14349e-05,2.01806e-05,-8.81193e-06,1.74505e-05,4.71025e-06,0
-3.30175e-05,3.03377e-05,-3.50385e-06,4.36953e-06,1.96882e-05,-8.56177e-06,1.50168e-05,3.4318e-06,0
-3.30219e-05,2.87536e-05,-4.30966e-06,4.16334e-05,2.12613e-05,-8.19934e-06,1.34458e-05,2.83406e-06,0
-3.26985e-05,2.53242e-05,-3.64986e-06,6.62518e-05,2.37403e-05,-6.85475e-06,1.36774e-05,2.68828e-06,0
-3.27242e-05,1.95762e-05,-2.04765e-06,7.55195e-05,2.43551e-05,-5.7442e-06,1.30244e-05,2.06072e-06,0
-3.34064e-05,1.20151e-05,-3.82023e-07,7.12848e-05,2.18748e-05,-6.28748e-06,1.16545e-05,1.87595e-06,0
-3.40635e-05,6.19059e-06,4.16093e-07,5.812e-05,1.95854e-05,-6.7696e-06,1.0264e-05,2.3466e-06,0
-3.40873e-05,5.80852e-06,-5.87461e-07,4.24654e-05,2.07336e-05,-6.53705e-06,9.80278e-06,2.60434e-06,0
-3.4016e-05,9.3704e-06,-2.59825e-06,2.71425e-05,2.31537e-05,-6.904e-06,1.04436e-05,3.47036e-06,0
-3.3529e-05,1.24133e-05,-4.83781e-06,1.11262e-05,2.46604e-05,-7.46074e-06,1.03841e-05,4.90878e-06,0
-3.28854e-05,1.40941e-05,-6.42979e-06,-2.08189e-06,2.32111e-05,-8.44621e-06,1.11009e-05,5.27535e-06,0
-3.33066e-05,1.49359e-05,-5.9776e-06,-8.94937e-06,1.80096e-05,-8.91724e-06,1.13689e-05,4.75125e-06,0
-3.2951e-05,1.56745e-05,-3.50168e-06,-1.372e-05,1.57589e-05,-8.35959e-06,7.47323e-06,4.92848e-06,0
-3.19997e-05,1.63323e-05,-2.82465e-06,-2.44896e-05,1.57841e-05,-8.16651e-06,1.60907e-06,5.70523e-06,0
-3.10757e-05,1.55082e-05,-3.99753e-06,-4.08874e-05,1.33932e-05,-7.45381e-06,-1.61294e-06,5.45234e-06,0
-2.99381e-05,1.27802e-05,-5.29619e-06,-5.92145e-05,1.01578e-05,-6.56747e-06,-1.12542e-06,5.32671e-06,0
-2.86392e-05,8.74938e-06,-7.30758e-06,-6.93065e-05,7.93097e-06,-7.35801e-06,3.08065e-06,5.74962e-06,0
-2.77166e-05,5.74701e-06,-8.52312e-06,-5.90906e-05,7.35263e-06,-8.16699e-06,8.87797e-06,6.04744e-06,0
-2.8619e-05,3.73243e-06,-9.89738e-06,-2.82898e-05,7.21788e-06,-8.10628e-06,1.35558e-05,6.36727e-06,0
-3.03379e-05,2.82037e-06,-1.23599e-05,1.16518e-05,6.37725e-06,-7.32255e-06,1.71856e-05,4.68631e-06,0
-3.08252e-05,1.98937e-06,-1.5645e-05,4.56548e-05,4.39317e-06,-7.02451e-06,1.99036e-05,1.6599e-06,0
-2.90466e-05,1.89355e-07,-1.69976e-05,6.61683e-05,1.59027e-06,-8.38912e-06,2.08159e-05,-1.41034e-06,0
-2.72251e-05,-2.69773e-06,-1.52153e-05,6.92247e-05,1.83982e-08,-9.78915e-06,2.01206e-05,-3.32935e-06,0
-2.74867e-05,-5.60318e-06,-1.30561e-05,5.47431e-05,-9.70503e-08,-9.87086e-06,1.85374e-05,-4.04935e-06,0
-2.92116e-05,-7.7291e-06,-1.17185e-05,3.03203e-05,5.22114e-07,-9.68887e-06,1.74599e-05,-4.45081e-06,0
-3.02604e-05,-8.65201e-06,-9.73596e-06,6.82458e-06,3.07677e-06,-9.90796e-06,1.81262e-05,-4.20073e-06,0
-3.01621e-05,-7.57663e-06,-6.52982e-06,-9.74907e-06,9.05746e-06,-9.67245e-06,1.92842e-05,-2.5269e-06,0
-2.99592e-05,-5.79237e-06,-3.78212e-06,-1.75033e-05,1.70848e-05,-9.32555e-06,1.9274e-05,8.82413e-07,0
-2.89485e-05,-4.37699e-06,-2.45432e-06,-2.09896e-05,2.22363e-05,-9.21416e-06,1.8361e-05,3.75348e-06,0
-2.86682e-05,-3.81038e-06,-2.26547e-06,-2.38585e-05,2.23784e-05,-8.81327e-06,1.7293e-05,5.31689e-06,0
-2.96073e-05,-3.13633e-06,-2.55721e-06,-1.91516e-05,2.1238e-05,-8.14655e-06,1.55345e-05,5.53482e-06,0
-2.96128e-05,-7.05425e-08,-3.11912e-06,-2.44167e-06,2.21559e-05,-8.11013e-06,1.33649e-05,4.32027e-06,0
-2.86428e-05,9.85167e-06,-4.37914e-06,1.97385e-05,2.33363e-05,-8.80346e-06,1.14741e-05,3.2334e-06,0
-2.81408e-05,2.5431e-05,-5.44276e-06,3.74899e-05,2.18955e-05,-9.26339e-06,1.10888e-05,3.52755e-06,0
-2.84416e-05,3.71452e-05,-4.73069e-06,4.25472e-05,1.90083e-05,-8.85701e-06,1.16454e-05,3.66467e-06,0
-2.87423e-05,4.139e-05,-2.51436e-06,3.48819e-05,1.73592e-05,-8.68319e-06,1.24906e-05,2.05382e-06,0
-2.83755e-05,3.97344e-05,-2.21436e-06,2.03377e-05,1.69348e-05,-9.50951e-06,1.31154e-05,1.9298e-07,0
-2.93117e-05,3.16431e-05,-4.66872e-06,3.03639e-06,1.53248e-05,-1.155e-05,1.2664e-05,1.40935e-07,0
-3.03874e-05,2.16323e-05,-6.3519e-06,-8.21667e-06,1.2527e-05,-1.34972e-05,1.21332e-05,-8.56949e-07,0
-3.14827e-05,1.43089e-05,-8.53218e-06,-1.03572e-05,1.17438e-05,-1.54155e-05,1.29501e-05,-1.38615e-06,0
-3.27155e-05,9.28018e-06,-1.10136e-05,-8.90977e-06,1.31328e-05,-1.60506e-05,1.3544e-05,8.91129e-08,0
-3.20727e-05,2.3476e-06,-1.13576e-05,-4.22495e-06,1.58542e-05,-1.51397e-05,1.2272e-05,1.06721e-06,0
-3.14184e-05,-5.53178e-06,-9.40363e-06,-6.94858e-08,1.79081e-05,-1.34803e-05,1.09586e-05,-1.43101e-07,0
-3.10816e-05,-1.12723e-05,-6.88287e-06,-9.27497e-07,1.68071e-05,-1.26789e-05,1.01963e-05,-2.43597e-06,0
-3.09591e-05,-1.58697e-05,-7.09821e-06,-4.77385e-06,1.44603e-05,-1.39933e-05,1.03801e-05,-1.98176e-06,0
-3.10647e-05,-1.75476e-05,-8.88913e-06,-7.65432e-06,1.36583e-05,-1.45034e-05,1.07979e-05,2.62567e-07,0
-3.15142e-05,-1.54012e-05,-1.08513e-05,-7.12602e-06,1.4331e-05,-1.44468e-05,1.02611e-05,2.53087e-06,0
-3.19034e-05,-8.91434e-06,-1.2339e-05,-1.21268e-06,1.54064e-05,-1.34647e-05,9.44577e-06,3.86425e-06,0
-3.15704e-05,-1.33109e-06,-1.19023e-05,6.42007e-06,1.65066e-05,-1.24924e-05,1.00492e-05,4.56566e-06,0
-3.00602e-05,2.15273e-06,-1.14055e-05,8.39414e-06,1.77549e-05,-1.27233e-05,1.16883e-05,4.06166e-06,0
-2.84425e-05,2.22075e-06,-1.16507e-05,6.72307e-06,1.82965e-05,-1.41649e-05,1.29973e-05,3.66613e-06,0
-2.83409e-05,3.19147e-06,-1.23374e-05,8.69473e-06,1.80238e-05,-1.56312e-05,1.51793e-05,3.7355e-06,0
-2.92338e-05,6.84978e-06,-1.43229e-05,1.51802e-05,1.77764e-05,-1.58768e-05,1.92198e-05,3.57931e-06,0
-2.99496e-05,1.04374e-05,-1.68046e-05,1.97555e-05,1.77484e-05,-1.58492e-05,2.27965e-05,3.53262e-06,0
-3.03303e-05,1.07011e-05,-1.8163e-05,1.58969e-05,1.71692e-05,-1.64282e-05,2.36838e-05,2.39135e-06,0
-3.0242e-05,9.39662e-06,-1.79318e-05,4.94228e-06,1.5839e-05,-1.79972e-05,2.2525e-05,5.75301e-07,0
-2.98033e-05,1.02509e-05,-1.64054e-05,-4.19832e-06,1.39103e-05,-1.88789e-05,2.02575e-05,4.18781e-07,0
-3.01478e-05,1.28684e-05,-1.43468e-05,-9.19145e-06,1.03053e-05,-1.76546e-05,1.7456e-05,1.50126e-06,0
-3.04986e-05,1.43466e-05,-1.41463e-05,-1.2074e-05,5.85705e-06,-1.63437e-05,1.57806e-05,1.10079e-06,0
-2.94461e-05,1.47544e-05,-1.57212e-05,-1.38837e-05,3.83177e-06,-1.66028e-05,1.57991e-05,1.05952e-06,0
-2.72019e-05,1.61427e-05,-1.71912e-05,-1.59109e-05,5.14018e-06,-1.68982e-05,1.60312e-05,1.92141e-06,0
-2.6708e-05,1.8491e-05,-1.83689e-05,-1.75857e-05,6.48595e-06,-1.7621e-05,1.66964e-05,2.72564e-06,0
-2.82828e-05,2.00852e-05,-1.85942e-05,-1.77806e-05,4.48248e-06,-1.88882e-05,1.69524e-05,2.5836e-06,0
-2.93297e-05,2.13785e-05,-1.71722e-05,-1.9282e-05,5.46716e-07,-1.9329e-05,1.60586e-05,1.57375e-06,0
-2.99553e-05,2.37811e-05,-1.39055e-05,-2.5531e-05,-2.16937e-06,-1.91454e-05,1.42152e-05,1.04642e-06,0
-3.0249e-05,2.41871e-05,-1.26504e-05,-3.37597e-05,-1.46993e-06,-1.95202e-05,1.21239e-05,1.63616e-06,0
-2.91664e-05,2.28383e-05,-1.26491e-05,-3.96757e-05,2.62503e-06,-2.11072e-05,9.41853e-06,3.49953e-06,0
-2.89727e-05,2.21301e-05,-1.00528e-05,-4.21553e-05,4.22025e-06,-2.15306e-05,6.34481e-06,3.76401e-06,0
-2.9703e-05,2.0782e-05,-8.06026e-06,-4.04944e-05,2.23545e-06,-2.05856e-05,4.17376e-06,1.73929e-06,0
-2.8643e-05,1.99557e-05,-7.90048e-06,-3.52211e-05,-8.03618e-07,-2.10643e-05,-2.77042e-06,6.25265e-08,0
-2.6732e-05,2.0896e-05,-8.98294e-06,-2.72141e-05,-8.36246e-07,-2.20098e-05,-1.47765e-05,-1.22968e-06,0
-2.59252e-05,2.1162e-05,-9.53236e-06,-1.54642e-05,1.54957e-06,-2.23497e-05,-2.34721e-05,-2.04808e-06,0
-2.64684e-05,2.07269e-05,-8.30857e-06,7.18387e-07,3.6039e-06,-2.13477e-05,-2.39139e-05,-2.16147e-06,0
-2.62193e-05,1.98597e-05,-5.91403e-06,1.66481e-05,5.45413e-06,-2.02034e-05,-1.59972e-05,-2.38001e-06,0
-2.57356e-05,1.87925e-05,-4.94127e-06,2.7313e-05,6.7102e-06,-1.9842e-05,-2.72563e-06,-2.51839e-06,0
-2.63513e-05,1.90073e-05,-4.88917e-06,3.11046e-05,7.02818e-06,-1.90285e-05,1.07858e-05,-3.00292e-06,0
-2.70177e-05,1.92726e-05,-5.1359e-06,2.90421e-05,5.8175e-06,-1.78771e-05,2.02548e-05,-3.53783e-06,0
-2.60426e-05,1.93944e-05,-6.85958e-06,2.48696e-05,4.0757e-06,-1.68181e-05,2.54809e-05,-3.44538e-06,0
-2.42281e-05,1.89947e-05,-9.78877e-06,2.04481e-05,3.21677e-06,-1.52222e-05,2.87441e-05,-3.56129e-06,0
-2.39431e-05,1.77865e-05,-1.23454e-05,1.34182e-05,4.9588e-06,-1.19237e-05,3.15166e-05,-4.08747e-06,0
-2.56139e-05,1.65352e-05,-1.27029e-05,1.60005e-06,7.87718e-06,-9.21164e-06,3.26317e-05,-4.40691e-06,0
-2.77507e-05,1.61621e-05,-1.12268e-05,-1.25683e-05,1.08291e-05,-9.23747e-06,3.10248e-05,-4.17573e-06,0
-2.7744e-05,1.72055e-05,-9.18498e-06,-2.57647e-05,1.21598e-05,-1.15624e-05,2.86401e-05,-4.42206e-06,0
-2.61701e-05,1.91528e-05,-9.4344e-06,-3.32323e-05,1.13765e-05,-1.33703e-05,2.76575e-05,-5.68465e-06,0
-2.53371e-05,2.00612e-05,-8.96285e-06,-3.27697e-05,9.71481e-06,-1.20696e-05,2.6207e-05,-6.32368e-06,0
-2.61022e-05,1.8551e-05,-6.09877e-06,-3.06157e-05,9.32899e-06,-9.32294e-06,2.35664e-05,-5.22403e-06,0
-2.77563e-05,1.51841e-05,-4.23796e-06,-3.30594e-05,9.80139e-06,-8.80943e-06,2.19299e-05,-3.2083e-06,0
-2.88244e-05,1.23558e-05,-4.43152e-06,-3.47325e-05,9.52417e-06,-9.97907e-06,2.01575e-05,-2.19013e-06,0
-2.77685e-05,1.13733e-05,-5.32914e-06,-2.98748e-05,8.56429e-06,-1.0848e-05,1.61114e-05,-2.4099e-06,0
-2.60953e-05,1.15557e-05,-7.28296e-06,-2.31927e-05,7.72425e-06,-9.81143e-06,9.91155e-06,-3.05973e-06,0
-2.61e-05,1.30895e-05,-7.92114e-06,-2.01439e-05,6.97976e-06,-6.5462e-06,2.8887e-06,-2.99245e-06,0
-2.80303e-05,1.55873e-05,-5.23853e-06,-1.7112e-05,6.93337e-06,-4.43468e-06,-9.85703e-07,-1.65273e-06,0
-2.9951e-05,1.78094e-05,-3.77854e-06,-1.33166e-05,9.91174e-06,-4.96476e-06,-2.6079e-06,-1.39154e-06,0
-3.13295e-05,1.77609e-05,-4.71895e-06,-1.18621e-05,1.27434e-05,-6.12235e-06,-4.03321e-06,-1.10274e-06,0
