ch1,ch2,ch3,ch4,ch5,ch6,ch7,ch8,class
-3.11239e-05,1.52229e-05,-4.38046e-05,-9.32829e-06,1.52441e-05,-1.3189e-05,5.21215e-06,5.74679e-06,0
-3.05791e-05,2.14857e-05,-3.10693e-05,-8.77084e-06,1.60415e-05,-1.39292e-05,1.25005e-05,4.54085e-06,0
-3.1487e-05,2.92962e-05,-2.26317e-05,-7.96347e-06,1.73826e-05,-1.55614e-05,1.75589e-05,3.42744e-06,0
-3.26487e-05,3.54106e-05,-1.6819e-05,-7.57177e-06,1.93367e-05,-1.58265e-05,1.95974e-05,1.70722e-06,0
-3.28583e-05,3.6941e-05,-1.15196e-05,-9.20742e-06,2.08081e-05,-1.49018e-05,2.0614e-05,-5.53163e-07,0
-3.12935e-05,3.2115e-05,-9.10551e-06,-9.63693e-06,2.11353e-05,-1.42939e-05,2.07797e-05,-2.32109e-06,0
-2.8868e-05,2.32093e-05,-8.37547e-06,-4.66026e-06,2.08486e-05,-1.44933e-05,2.02588e-05,-2.54076e-06,0
-2.7089e-05,1.51298e-05,-6.46168e-06,1.79824e-06,2.14148e-05,-1.44154e-05,1.99671e-05,-1.36043e-06,0
-2.72188e-05,1.07468e-05,-2.95109e-06,2.88475e-06,2.17668e-05,-1.40124e-05,1.96949e-05,1.77365e-07,0
-2.82765e-05,8.70228e-06,-3.77807e-07,-6.5292e-08,2.04835e-05,-1.43508e-05,1.87017e-05,1.20339e-06,0
-2.90047e-05,6.55674e-06,6.26938e-07,-1.40602e-06,1.75281e-05,-1.66241e-05,1.80485e-05,1.6009e-06,0
-2.89843e-05,1.6522e-06,-1.49085e-07,1.46163e-06,1.49275e-05,-1.81858e-05,1.70187e-05,1.31672e-06,0
-2.83899e-05,-6.72786e-06,-1.58614e-06,6.33172e-06,1.29375e-05,-1.74119e-05,1.46329e-05,1.55693e-06,0
-2.78627e-05,-1.49057e-05,-2.58136e-06,8.93795e-06,1.05831e-05,-1.57548e-05,1.30447e-05,4.02783e-07,0
-2.75637e-05,-1.78118e-05,-3.51933e-06,7.52781e-06,8.1795e-06,-1.50461e-05,1.31268e-05,-1.80241e-06,0
-2.73629e-05,-1.31062e-05,-3.389e-06,3.14117e-06,5.47207e-06,-1.51536e-05,1.41844e-05,-1.8914e-06,0
-2.70912e-05,-4.45661e-06,-2.67714e-06,-1.14165e-06,6.95676e-06,-1.30964e-05,1.43374e-05,-1.0118e-06,0
-2.59719e-05,3.82537e-06,-1.38874e-07,-2.67783e-06,1.14048e-05,-1.07543e-05,1.3196e-05,2.66441e-07,0
-2.54218e-05,1.03173e-05,3.46666e-06,-2.16321e-06,1.27588e-05,-9.96583e-06,1.1835e-05,1.09035e-06,0
-2.47895e-05,1.31773e-05,4.15087e-06,-1.24263e-06,1.24745e-05,-9.99637e-06,9.42639e-06,9.29459e-07,0
-2.29256e-05,1.24735e-05,2.67181e-06,-3.21525e-06,1.21813e-05,-1.03526e-05,6.5298e-06,2.65744e-07,0
-2.21572e-05,1.2333e-05,1.83627e-06,-7.94523e-06,1.10255e-05,-1.06885e-05,5.83244e-06,-5.9722e-07,0
-2.27776e-05,1.54194e-05,1.1304e-06,-1.15712e-05,8.23914e-06,-1.08911e-05,6.31944e-06,-1.65464e-06,0
-2.49641e-05,1.91492e-05,2.65421e-07,-1.27128e-05,8.31146e-06,-9.88683e-06,6.93543e-06,-2.26505e-06,0
-2.73577e-05,1.99507e-05,-2.33492e-06,-1.29388e-05,1.11216e-05,-1.01364e-05,8.43708e-06,-9.30072e-07,0
-2.89136e-05,1.83994e-05,-5.30505e-06,-1.14583e-05,1.30085e-05,-1.04373e-05,8.67371e-06,9.73949e-07,0
-2.93001e-05,1.64516e-05,-6.71961e-06,-8.45638e-06,1.38076e-05,-8.97453e-06,2.63692e-06,1.79104e-06,0
-2.97996e-05,1.53004e-05,-6.8812e-06,-6.29849e-06,1.26746e-05,-7.5135e-06,-7.19249e-06,9.73818e-07,0
-3.04933e-05,1.46639e-05,-6.59473e-06,-5.72607e-06,1.05769e-05,-7.39964e-06,-1.17642e-05,-3.84136e-07,0
-3.01049e-05,1.42639e-05,-5.04138e-06,-6.45503e-06,1.04034e-05,-7.81738e-06,-7.76211e-06,-9.72137e-07,0
-2.97376e-05,1.4516e-05,-2.21432e-06,-6.76559e-06,1.31736e-05,-8.21442e-06,1.96707e-06,-9.95006e-07,0
-3.01859e-05,1.39039e-05,-1.73707e-07,-5.93768e-06,1.59875e-05,-8.89889e-06,1.31601e-05,-2.18345e-06,0
-3.19251e-05,1.06791e-05,4.06578e-07,-4.38558e-06,1.63851e-05,-8.68471e-06,2.39166e-05,-3.37683e-06,0
-3.37626e-05,6.22109e-06,7.47061e-07,-3.04555e-06,1.4774e-05,-8.00557e-06,3.34954e-05,-2.0885e-06,0
-3.41332e-05,3.09586e-06,1.38154e-06,-2.62733e-06,1.3332e-05,-6.91974e-06,4.02083e-05,9.6176e-08,0
-3.34081e-05,2.93268e-06,1.24108e-06,-4.06427e-06,1.36175e-05,-5.6187e-06,4.20695e-05,-5.11158e-07,0
-3.24959e-05,5.30402e-06,1.03277e-06,-6.90483e-06,1.63617e-05,-4.09839e-06,3.93888e-05,-3.3406e-06,0
-3.10841e-05,7.65751e-06,3.6073e-07,-9.98521e-06,1.94865e-05,-3.43649e-06,3.39872e-05,-4.84977e-06,0
-3.0435e-05,1.01679e-05,-2.44225e-06,-1.25257e-05,2.07213e-05,-4.57145e-06,2.82337e-05,-4.08731e-06,0
-3.0983e-05,1.24393e-05,-7.56708e-06,-1.35084e-05,1.89847e-05,-6.35887e-06,2.56256e-05,-2.00356e-06,0
-3.10461e-05,1.14835e-05,-1.22536e-05,-1.1063e-05,1.59962e-05,-5.95483e-06,2.58535e-05,-5.00178e-08,0
-3.0165e-05,9.12227e-06,-1.55376e-05,-6.7622e-06,1.35215e-05,-5.95268e-06,2.55547e-05,1.68021e-06,0
-3.03565e-05,9.96564e-06,-1.87271e-05,-5.93281e-06,1.19551e-05,-8.87636e-06,2.41053e-05,2.25313e-06,0
-3.26768e-05,1.257e-05,-2.12748e-05,-9.06046e-06,1.18859e-05,-1.03087e-05,2.16514e-05,9.42487e-07,0
-3.45532e-05,1.37392e-05,-2.26091e-05,-1.02376e-05,1.33348e-05,-9.64235e-06,2.11305e-05,-1.26435e-06,0
-3.57497e-05,1.14205e-05,-2.11792e-05,-8.31981e-06,1.5308e-05,-9.55226e-06,2.24445e-05,-1.8387e-06,0
-3.55107e-05,7.91196e-06,-1.87993e-05,-5.803e-06,1.62356e-05,-1.02821e-05,2.31465e-05,-3.98402e-08,0
-3.37745e-05,6.59502e-06,-1.80183e-05,-4.72571e-06,1.66061e-05,-9.76631e-06,2.16031e-05,1.06986e-06,0
-3.24453e-05,6.35593e-06,-1.80738e-05,-6.60215e-06,1.74495e-05,-7.67392e-06,1.77101e-05,9.22395e-07,0
-3.0977e-05,6.49841e-06,-1.72294e-05,-8.37788e-06,1.92844e-05,-6.71404e-06,1.40269e-05,2.39851e-07,0
-3.025e-05,6.54087e-06,-1.57386e-05,-8.15172e-06,2.11721e-05,-7.22215e-06,8.96302e-06,-4.50208e-08,0
-2.94905e-05,6.82404e-06,-1.51145e-05,-7.01642e-06,2.18659e-05,-7.58582e-06,3.00009e-06,1.51403e-06,0
-2.90835e-05,7.15057e-06,-1.44758e-05,-6.56754e-06,2.0051e-05,-7.43234e-06,-2.51054e-06,3.24008e-06,0
-3.04643e-05,6.80567e-06,-1.33765e-05,-7.57202e-06,1.63224e-05,-7.73869e-06,-6.15349e-06,4.51435e-06,0
-3.20173e-05,6.60073e-06,-1.22604e-05,-1.04537e-05,1.26959e-05,-8.2662e-06,-6.35829e-06,5.21709e-06,0
-3.15614e-05,8.7276e-06,-1.08013e-05,-1.16671e-05,1.08267e-05,-8.93099e-06,-5.25044e-06,4.48376e-06,0
-2.95956e-05,1.25067e-05,-7.93641e-06,-9.28931e-06,1.03848e-05,-8.32423e-06,-5.74253e-06,2.63304e-06,0
-2.83557e-05,1.47501e-05,-5.0852e-06,-4.80015e-06,1.04862e-05,-6.31119e-06,-6.06303e-06,9.64777e-07,0
-2.82706e-05,1.45044e-05,-2.67418e-06,1.20811e-06,1.02754e-05,-5.35433e-06,-3.07767e-06,1.28035e-06,0
-2.90596e-05,1.28876e-05,-1.75697e-07,7.36431e-06,1.00446e-05,-6.08965e-06,6.33757e-07,2.99218e-06,0
-3.03186e-05,1.15469e-05,1.82484e-06,1.00946e-05,1.06622e-05,-7.7545e-06,9.09411e-07,3.41577e-06,0
-3.07669e-05,1.10324e-05,2.64786e-06,7.33619e-06,1.12681e-05,-8.49875e-06,-8.06548e-07,2.40962e-06,0
-2.9511e-05,1.13963e-05,3.49827e-06,7.92363e-08,1.11989e-05,-8.18087e-06,-1.59819e-07,1.71808e-06,0
-2.84603e-05,1.23847e-05,6.0357e-06,-1.02751e-05,1.13398e-05,-6.99703e-06,2.48533e-06,1.10958e-06,0
-2.86673e-05,1.33928e-05,9.81226e-06,-2.06083e-05,1.21624e-05,-5.50988e-06,4.63396e-06,4.31333e-07,0
-2.99071e-05,1.45118e-05,1.39576e-05,-2.7803e-05,1.14246e-05,-4.67645e-06,7.40975e-06,5.38258e-08,0
-3.09389e-05,1.4809e-05,1.67201e-05,-2.89613e-05,7.44872e-06,-5.42961e-06,1.05512e-05,1.05012e-06,0
-3.05042e-05,1.43585e-05,1.5729e-05,-2.34134e-05,3.4752e-06,-6.10161e-06,1.18182e-05,2.50168e-06,0
-2.80548e-05,1.34533e-05,8.96666e-06,-1.28376e-05,3.40301e-06,-6.14641e-06,1.16962e-05,4.3173e-06,0
-2.61729e-05,1.31061e-05,-2.26714e-06,-3.16945e-07,4.72251e-06,-7.07927e-06,1.24504e-05,5.54839e-06,0
-2.68513e-05,1.3643e-05,-1.20458e-05,1.36542e-05,4.58344e-06,-8.1204e-06,1.48382e-05,4.71263e-06,0
-2.85234e-05,1.40577e-05,-1.83931e-05,2.59328e-05,3.20247e-06,-8.2709e-06,1.58778e-05,4.95509e-06,0
-2.8771e-05,1.31642e-05,-2.38803e-05,2.90956e-05,2.11343e-06,-8.4315e-06,1.56887e-05,4.9656e-06,0
-2.69866e-05,1.12738e-05,-2.64741e-05,2.48382e-05,2.00368e-06,-9.32377e-06,1.39609e-05,3.63284e-06,0
-2.76619e-05,1.11273e-05,-2.3054e-05,1.79706e-05,4.04613e-06,-9.28335e-06,1.21449e-05,1.97498e-06,0
-3.07205e-05,1.10535e-05,-1.24009e-05,1.01663e-05,7.91708e-06,-8.87354e-06,1.38952e-05,1.4342e-06,0
-3.17941e-05,1.09813e-05,7.42255e-08,8.99321e-08,1.13058e-05,-9.35391e-06,1.83496e-05,1.78282e-06,0
-3.0994e-05,1.25462e-05,5.1889e-06,-1.47108e-05,1.11415e-05,-9.85796e-06,2.41655e-05,1.90068e-06,0
-3.11721e-05,1.58934e-05,3.78713e-06,-2.79179e-05,7.81697e-06,-1.08207e-05,2.97605e-05,2.60852e-06,0
-3.24664e-05,1.7943e-05,3.42857e-07,-3.326e-05,5.40521e-06,-1.29132e-05,3.19673e-05,4.39294e-06,0
-3.28968e-05,1.80954e-05,-5.73411e-06,-3.14203e-05,5.50416e-06,-1.43879e-05,2.7036e-05,6.67296e-06,0
-3.16683e-05,1.86072e-05,-1.57095e-05,-2.65156e-05,7.53488e-06,-1.3728e-05,1.74608e-05,6.52922e-06,0
-2.91057e-05,1.96832e-05,-2.64637e-05,-2.03885e-05,9.59849e-06,-1.24411e-05,9.69023e-06,3.77199e-06,0
-2.73265e-05,1.98195e-05,-3.19697e-05,-1.43531e-05,9.70015e-06,-1.09026e-05,5.19486e-06,1.13622e-06,0
-2.7959e-05,1.83542e-05,-3.0362e-05,-1.13381e-05,7.97986e-06,-8.88002e-06,3.46775e-07,5.69696e-07,0
-2.9922e-05,1.6805e-05,-2.34851e-05,-1.17184e-05,7.0358e-06,-7.93177e-06,-7.41691e-06,7.18532e-07,0
-3.1335e-05,1.50198e-05,-1.5439e-05,-1.32206e-05,7.36575e-06,-8.67166e-06,-1.59887e-05,9.36747e-07,0
-3.17669e-05,1.35281e-05,-1.02416e-05,-1.25039e-05,8.5766e-06,-9.08647e-06,-2.2353e-05,1.11439e-06,0
-3.22059e-05,1.31208e-05,-8.27819e-06,-6.48953e-06,1.12278e-05,-8.5773e-06,-2.48833e-05,6.23952e-07,0
-3.2947e-05,1.40601e-05,-6.37539e-06,4.02668e-06,1.52797e-05,-8.8321e-06,-2.29887e-05,-1.07178e-06,0
-3.21126e-05,1.48486e-05,-3.4764e-06,1.10171e-05,1.8889e-05,-9.86855e-06,-1.64054e-05,-3.17053e-06,0
-2.99932e-05,1.55792e-05,-1.40818e-06,9.8426e-06,2.08383e-05,-1.04283e-05,-5.43177e-06,-3.54228e-06,0
-2.9796e-05,1.69103e-05,-2.50968e-07,4.67378e-06,2.18743e-05,-1.01814e-05,6.67418e-06,-1.57406e-06,0
-3.10765e-05,1.99692e-05,-1.93521e-07,4.91061e-07,2.23068e-05,-9.82475e-06,1.54105e-05,1.56877e-07,0
-3.12006e-05,2.36225e-05,-1.21716e-06,-3.05832e-06,2.12822e-05,-8.37933e-06,2.14194e-05,2.16649e-07,0
-3.12325e-05,2.31164e-05,-3.22924e-06,-5.6835e-06,1.94006e-05,-5.57079e-06,2.7051e-05,7.25094e-07,0
-3.1782e-05,1.98378e-05,-6.62994e-06,-6.43499e-06,1.71519e-05,-3.26939e-06,3.17445e-05,1.06658e-06,0
-3.22088e-05,1.86791e-05,-8.96962e-06,-6.47025e-06,1.58623e-05,-3.90924e-06,3.44524e-05,4.3536e-07,0
-3.25126e-05,1.86371e-05,-7.29533e-06,-6.34082e-06,1.46212e-05,-5.40535e-06,3.57397e-05,-1.02071e-07,0
-3.18238e-05,1.75256e-05,-5.5695e-06,-4.80223e-06,1.39658e-05,-5.91191e-06,3.6003e-05,-9.10867e-07,0
-3.10078e-05,1.60385e-05,-6.56952e-06,-2.5768e-06,1.59741e-05,-6.32568e-06,3.23409e-05,-1.62696e-06,0
-3.15313e-05,1.69794e-05,-7.83269e-06,-5.76857e-07,1.83218e-05,-7.70781e-06,2.85768e-05,-1.7581e-06,0
-3.24369e-05,1.88753e-05,-8.71365e-06,-3.22921e-07,1.91649e-05,-9.84756e-06,2.78802e-05,-1.67259e-06,0
-3.12912e-05,1.82596e-05,-8.90112e-06,-2.12423e-06,1.7352e-05,-1.03162e-05,2.93605e-05,-1.05182e-06,0
-2.99956e-05,1.50498e-05,-8.50171e-06,-2.49229e-06,1.38462e-05,-1.06014e-05,3.37333e-05,-1.02971e-06,0
-2.89888e-05,1.11823e-05,-7.29312e-06,-4.03115e-07,1.03286e-05,-1.10546e-05,4.06057e-05,-1.10482e-06,0
-2.84009e-05,9.21979e-06,-5.54776e-06,1.78088e-06,8.67943e-06,-1.1041e-05,4.78828e-05,-1.24007e-06,0
-2.92225e-05,9.26592e-06,-5.6703e-06,1.01909e-06,8.90875e-06,-1.14317e-05,5.21502e-05,-6.53814e-07,0
-3.05492e-05,1.07015e-05,-8.17742e-06,-1.40299e-06,8.23588e-06,-1.21141e-05,5.29743e-05,6.89429e-07,0
-3.1183e-05,1.21893e-05,-1.03901e-05,-2.04839e-06,6.48853e-06,-1.2388e-05,4.45917e-05,-1.63355e-07,0
-3.2071e-05,1.28344e-05,-1.20549e-05,-1.40201e-07,6.24339e-06,-1.1228e-05,2.26363e-05,-1.48714e-06,0
-3.4738e-05,1.16463e-05,-1.45174e-05,2.6754e-06,7.19064e-06,-9.83479e-06,-4.23867e-06,-1.15631e-06,0
-3.66755e-05,1.07495e-05,-1.6778e-05,4.61697e-06,7.56869e-06,-9.87101e-06,-2.32017e-05,-4.28602e-07,0
-3.704e-05,1.26789e-05,-1.81312e-05,2.78929e-06,7.1361e-06,-1.09531e-05,-3.06069e-05,-4.52584e-07,0
-3.63754e-05,1.58632e-05,-1.87049e-05,-2.36899e-06,6.02944e-06,-1.20397e-05,-3.01332e-05,-1.54158e-06,0
-3.51678e-05,1.70192e-05,-1.92816e-05,-6.15866e-06,5.60896e-06,-1.31529e-05,-2.36374e-05,-2.40432e-06,0
-3.4049e-05,1.6854e-05,-2.02e-05,-4.79911e-06,6.94616e-06,-1.53059e-05,-1.16263e-05,-2.01942e-06,0
-3.43269e-05,1.80238e-05,-1.96399e-05,-1.98195e-07,7.42514e-06,-1.77907e-05,2.15716e-06,-2.1911e-06,0
-3.42245e-05,2.06805e-05,-1.59029e-05,2.25675e-06,4.9277e-06,-1.87277e-05,1.20109e-05,-4.009e-06,0
-3.25375e-05,2.3246e-05,-1.18983e-05,1.74351e-06,1.66115e-06,-1.68377e-05,1.74228e-05,-6.18368e-06,0
-2.98877e-05,2.41035e-05,-9.10235e-06,3.38141e-07,1.09014e-06,-1.33498e-05,2.12298e-05,-6.93684e-06,0
-2.70972e-05,2.46163e-05,-6.6665e-06,-1.22206e-06,4.47897e-06,-1.16799e-05,2.31336e-05,-5.90975e-06,0
-2.50289e-05,2.57582e-05,-5.85025e-06,-3.52396e-06,8.89836e-06,-1.2252e-05,2.16985e-05,-3.76464e-06,0
-2.40052e-05,2.36037e-05,-5.62216e-06,-7.40776e-06,1.16916e-05,-1.2961e-05,1.78726e-05,-3.0543e-06,0
-2.50539e-05,1.64511e-05,-5.73518e-06,-1.17018e-05,1.36751e-05,-1.23758e-05,1.67194e-05,-4.08817e-06,0
-2.72996e-05,1.10673e-05,-6.09968e-06,-1.36738e-05,1.48272e-05,-1.1919e-05,1.91851e-05,-3.10748e-06,0
-2.8695e-05,1.58605e-05,-4.40831e-06,-1.19081e-05,1.54379e-05,-1.0974e-05,1.96844e-05,-1.85173e-06,0
-2.88799e-05,2.86141e-05,-1.79492e-06,-9.82286e-06,1.66079e-05,-1.07469e-05,1.59442e-05,-2.51095e-06,0
-2.9978e-05,3.98958e-05,-6.25338e-07,-8.71643e-06,1.88132e-05,-1.13809e-05,1.04501e-05,-3.04288e-06,0
-3.18652e-05,4.62534e-05,-1.69516e-06,-7.22714e-06,1.93855e-05,-1.01547e-05,7.62748e-06,-3.20907e-06,0
-3.21166e-05,4.47056e-05,-3.68657e-06,-5.27512e-06,1.60484e-05,-9.2178e-06,8.87429e-06,-2.77388e-06,0
-3.15472e-05,3.45676e-05,-4.48829e-06,-1.81216e-06,1.16998e-05,-8.08938e-06,1.02337e-05,-1.99803e-06,0
-3.141e-05,1.94461e-05,-4.70146e-06,-9.10184e-07,8.51427e-06,-7.14491e-06,7.96172e-06,-2.30989e-06,0
-3.19698e-05,2.78784e-06,-5.57714e-06,-4.6214e-06,8.15218e-06,-7.15535e-06,4.2354e-06,-3.67168e-06,0
-3.30149e-05,-1.07039e-05,-6.7148e-06,-9.39306e-06,1.03028e-05,-7.13673e-06,1.35722e-06,-3.56316e-06,0
-3.26918e-05,-1.75185e-05,-6.22799e-06,-1.30171e-05,1.37481e-05,-6.431e-06,-4.5142e-07,-2.27394e-06,0
-3.12043e-05,-1.73956e-05,-3.83446e-06,-1.52099e-05,1.74333e-05,-6.57272e-06,-5.97526e-07,-1.9438e-06,0
-3.05439e-05,-1.23673e-05,-2.21e-06,-1.47657e-05,2.04795e-05,-8.59873e-06,6.66234e-07,-1.92364e-06,0
-3.1332e-05,-6.2828e-06,-2.88895e-06,-1.47406e-05,2.21298e-05,-1.12082e-05,2.11177e-06,-2.29641e-06,0
-3.18817e-05,-1.9516e-06,-4.36081e-06,-1.92466e-05,2.1341e-05,-1.37661e-05,3.35196e-06,-3.7924e-06,0
-3.1746e-05,2.59619e-06,-3.97305e-06,-2.43994e-05,1.93942e-05,-1.49012e-05,3.72775e-06,-5.61837e-06,0
-3.10509e-05,8.49101e-06,-1.51775e-06,-2.38021e-05,1.83985e-05,-1.37057e-05,3.68914e-06,-5.57107e-06,0
-2.99587e-05,1.41208e-05,-2.00015e-07,-1.72498e-05,1.87296e-05,-1.15522e-05,6.09604e-06,-3.94398e-06,0
-2.95138e-05,1.70805e-05,-1.08495e-06,-8.37301e-06,1.99461e-05,-1.05359e-05,1.28416e-05,-2.79734e-06,0
-2.97343e-05,1.71247e-05,-2.47414e-06,8.75897e-07,2.05338e-05,-1.02451e-05,2.10655e-05,-3.34755e-06,0
-2.85546e-05,1.67144e-05,-3.86879e-06,9.13405e-06,1.95441e-05,-1.01328e-05,2.55442e-05,-5.11837e-06,0
-2.64352e-05,1.55175e-05,-6.17193e-06,1.62393e-05,1.89292e-05,-9.41136e-06,2.58597e-05,-5.5758e-06,0
-2.59925e-05,1.45498e-05,-8.19013e-06,2.20371e-05,2.05174e-05,-7.65154e-06,2.48816e-05,-3.04905e-06,0
-2.64571e-05,1.58384e-05,-8.32118e-06,2.43608e-05,2.411e-05,-6.3474e-06,2.33372e-05,-1.03689e-06,0
-2.79079e-05,1.75228e-05,-7.10511e-06,2.14984e-05,2.60181e-05,-5.80512e-06,2.00508e-05,-1.7272e-06,0
-2.93869e-05,1.85266e-05,-5.34005e-06,1.45489e-05,2.43722e-05,-6.17714e-06,1.65705e-05,-1.94265e-06,0
-2.9105e-05,2.05576e-05,-5.08762e-06,8.62094e-06,1.98936e-05,-8.24613e-06,1.55227e-05,5.98854e-07,0
-2.91179e-05,2.17414e-05,-7.32461e-06,8.34419e-06,1.56604e-05,-9.75091e-06,1.46884e-05,2.28626e-06,0
-2.8782e-05,2.08075e-05,-1.17863e-05,8.59668e-06,1.48358e-05,-1.0045e-05,1.26974e-05,5.72728e-07,0
-2.80578e-05,1.85247e-05,-1.46871e-05,6.029e-06,1.55013e-05,-1.04266e-05,1.18098e-05,-1.3402e-06,0
-2.83055e-05,1.52347e-05,-1.44021e-05,2.22866e-06,1.48244e-05,-1.08381e-05,1.06396e-05,-1.50634e-06,0
-2.79297e-05,1.34091e-05,-1.38538e-05,-4.20867e-06,1.22075e-05,-1.13367e-05,9.72813e-06,-1.90452e-07,0
-2.77549e-05,1.14588e-05,-1.27296e-05,-1.34645e-05,9.89983e-06,-1.20307e-05,1.0707e-05,7.78891e-07,0
-2.87718e-05,9.30353e-06,-1.19218e-05,-2.20599e-05,1.08635e-05,-1.14956e-05,1.27499e-05,7.43339e-07,0
-2.86858e-05,1.00178e-05,-1.07592e-05,-2.70484e-05,1.42175e-05,-1.02827e-05,1.45566e-05,-2.7998e-07,0
-2.6659e-05,1.4952e-05,-8.18706e-06,-2.47697e-05,1.74658e-05,-1.09647e-05,1.42571e-05,-7.53411e-07,0
-2.52682e-05,2.05137e-05,-5.48487e-06,-1.17281e-05,1.87494e-05,-1.27514e-05,9.56266e-06,-2.67231e-07,0
-2.56138e-05,2.20154e-05,-3.94496e-06,7.73483e-06,1.64761e-05,-1.32984e-05,3.59432e-06,9.41208e-07,0
-2.70611e-05,2.05019e-05,-3.35713e-06,2.24136e-05,1.25392e-05,-1.2988e-05,1.79206e-06,1.5516e-06,0
-2.84091e-05,1.87663e-05,-2.98018e-06,2.57918e-05,1.01281e-05,-1.336e-05,2.91604e-06,4.69083e-07,0
-2.90242e-05,1.69106e-05,-3.73016e-06,2.21743e-05,9.11574e-06,-1.33178e-05,4.44826e-06,-1.0042e-06,0
-2.92752e-05,1.42881e-05,-4.92814e-06,1.72302e-05,8.68355e-06,-1.14248e-05,6.44277e-06,-9.4654e-07,0
-3.0218e-05,1.2451e-05,-5.13267e-06,1.29736e-05,9.37782e-06,-8.11756e-06,8.48725e-06,6.45222e-07,0
-3.1711e-05,1.19777e-05,-3.96321e-06,8.7276e-06,1.06709e-05,-5.58794e-06,9.38473e-06,1.37798e-06,0
-3.21465e-05,1.3204e-05,-3.1992e-06,3.85991e-06,1.10651e-05,-4.32539e-06,1.00393e-05,1.23875e-06,0
-3.14467e-05,1.44523e-05,-4.22445e-06,-2.08436e-06,1.07094e-05,-3.22752e-06,1.10691e-05,1.19029e-06,0
-3.11581e-05,1.36093e-05,-6.71441e-06,-8.96444e-06,1.17246e-05,-1.66347e-06,1.34794e-05,1.64601e-06,0
-3.11949e-05,1.0942e-05,-8.669e-06,-1.51805e-05,1.32274e-05,-3.1634e-09,1.64562e-05,2.24693e-06,0
-3.07783e-05,9.22982e-06,-8.51392e-06,-1.89703e-05,1.35167e-05,1.35368e-06,1.76222e-05,3.41788e-06,0
-3.10643e-05,9.28547e-06,-6.68201e-06,-2.07576e-05,1.3824e-05,1.50697e-06,1.63668e-05,5.52258e-06,0
-3.18285e-05,8.31712e-06,-5.25726e-06,-2.2461e-05,1.3691e-05,1.53212e-06,1.36917e-05,8.29847e-06,0
-3.20908e-05,6.80778e-06,-6.0501e-06,-2.34114e-05,1.12909e-05,1.94211e-06,1.27692e-05,1.01117e-05,0
-3.1215e-05,6.50174e-06,-7.43572e-06,-2.19066e-05,8.96307e-06,2.18446e-06,1.42749e-05,1.25241e-05,0
-3.11837e-05,5.26482e-06,-7.64571e-06,-1.82835e-05,9.36612e-06,2.08121e-06,1.43057e-05,1.35124e-05,0
-3.24235e-05,3.60042e-06,-7.10283e-06,-1.47171e-05,1.07176e-05,1.93862e-06,1.24246e-05,1.10225e-05,0
-3.31996e-05,2.2198e-06,-7.88987e-06,-1.31695e-05,9.99549e-06,3.3123e-06,1.07466e-05,8.46393e-06,0
-3.32361e-05,2.90307e-07,-9.29889e-06,-1.16027e-05,8.20825e-06,4.028e-06,9.73318e-06,7.02563e-06,0
-3.33182e-05,-4.43885e-07,-9.91937e-06,-9.02612e-06,8.31979e-06,5.11038e-06,8.77891e-06,7.13169e-06,0
-3.48421e-05,8.74182e-07,-9.8893e-06,-6.83381e-06,8.84568e-06,5.7566e-06,6.70191e-06,7.5485e-06,0
-3.56817e-05,3.57892e-06,-9.5838e-06,-5.94211e-06,8.55792e-06,4.91144e-06,4.85265e-06,8.45325e-06,0
-3.51396e-05,3.98142e-06,-9.01934e-06,-6.68138e-06,7.23536e-06,3.67149e-06,4.26024e-06,8.9546e-06,0
-3.3726e-05,2.82302e-06,-8.94434e-06,-8.61613e-06,5.09572e-06,1.93148e-06,4.74216e-06,8.57341e-06,0
-3.32674e-05,3.29731e-06,-1.1377e-05,-1.00673e-05,3.50235e-06,4.07193e-07,6.18623e-06,8.4145e-06,0
-3.41339e-05,6.67398e-06,-1.48232e-05,-9.86676e-06,3.1492e-06,-7.89799e-07,7.79832e-06,8.37353e-06,0
-3.37524e-05,1.03959e-05,-1.73941e-05,-9.44649e-06,3.93231e-06,-1.75029e-06,9.92935e-06,7.72501e-06,0
-3.25384e-05,1.13079e-05,-1.85714e-05,-9.915e-06,4.84228e-06,-3.82191e-06,1.15818e-05,6.58555e-06,0
-3.17084e-05,9.91363e-06,-1.86972e-05,-1.1172e-05,6.06148e-06,-6.53135e-06,1.07942e-05,7.01619e-06,0
-3.20371e-05,9.19713e-06,-1.8262e-05,-1.22989e-05,6.12815e-06,-9.05995e-06,1.05243e-05,8.1634e-06,0
-3.21922e-05,1.08778e-05,-1.79949e-05,-1.44176e-05,4.62494e-06,-1.11689e-05,1.35137e-05,7.82873e-06,0
-3.10762e-05,1.23799e-05,-1.73753e-05,-1.63108e-05,4.2436e-06,-1.25486e-05,1.72153e-05,6.30183e-06,0
-2.94901e-05,1.20029e-05,-1.61113e-05,-1.62414e-05,5.63507e-06,-1.2168e-05,1.82128e-05,4.87673e-06,0
-2.88103e-05,1.08323e-05,-1.52584e-05,-1.43448e-05,7.58036e-06,-1.09235e-05,1.69552e-05,4.47708e-06,0
-2.91672e-05,1.0461e-05,-1.4586e-05,-1.08895e-05,1.00459e-05,-1.08125e-05,1.6343e-05,4.50274e-06,0
-2.98292e-05,9.82454e-06,-1.41385e-05,-6.67895e-06,1.30291e-05,-1.16354e-05,1.79343e-05,3.89547e-06,0
-2.9768e-05,9.47421e-06,-1.30909e-05,-2.372e-06,1.58057e-05,-1.0879e-05,1.95897e-05,2.52156e-06,0
-2.88965e-05,1.07003e-05,-9.56742e-06,2.14315e-06,1.64884e-05,-9.60805e-06,1.96977e-05,1.40717e-06,0
-2.83678e-05,1.31429e-05,-4.64356e-06,5.21322e-06,1.4816e-05,-1.08657e-05,1.98589e-05,1.93591e-06,0
-2.83821e-05,1.41576e-05,1.06412e-06,6.20605e-06,1.49124e-05,-1.29074e-05,2.07876e-05,3.5367e-06,0
-2.86554e-05,1.24167e-05,9.01026e-06,7.40716e-06,1.74908e-05,-1.44312e-05,2.02445e-05,4.55785e-06,0
-2.87364e-05,1.12754e-05,2.15584e-05,6.16628e-06,1.87196e-05,-1.65147e-05,1.78445e-05,4.10835e-06,0
-2.86787e-05,1.16486e-05,3.5807e-05,-4.48526e-07,1.90884e-05,-1.83213e-05,1.6523e-05,2.50957e-06,0
-2.90966e-05,1.00129e-05,4.48159e-05,-6.95639e-06,2.04588e-05,-1.88951e-05,1.5801e-05,-2.84388e-07,0
-2.98679e-05,8.98334e-06,4.47666e-05,-6.68226e-06,2.11884e-05,-1.85031e-05,1.39383e-05,-2.04329e-06,0
-2.96262e-05,1.04699e-05,3.22059e-05,-7.07903e-07,2.00608e-05,-1.72711e-05,1.02311e-05,-1.32725e-06,0
-2.81601e-05,1.13229e-05,9.12608e-06,4.97258e-06,1.69352e-05,-1.64475e-05,5.98084e-06,-9.25977e-07,0
-2.63482e-05,1.17196e-05,-1.75003e-05,5.86308e-06,1.47247e-05,-1.68022e-05,5.16385e-06,-1.81088e-06,0
-2.48832e-05,1.07442e-05,-3.76465e-05,3.50104e-06,1.50837e-05,-1.75959e-05,8.42478e-06,-2.93603e-06,0
-2.46906e-05,7.34814e-06,-4.68761e-05,1.18645e-06,1.5393e-05,-1.71066e-05,1.2445e-05,-3.96659e-06,0
-2.51426e-05,3.87717e-06,-4.64662e-05,-1.78625e-06,1.36663e-05,-1.6111e-05,1.50894e-05,-4.48404e-06,0
-2.55102e-05,1.79516e-06,-4.03822e-05,-8.05187e-06,1.13391e-05,-1.53569e-05,1.59705e-05,-3.99563e-06,0
-2.69946e-05,6.74008e-07,-3.11549e-05,-1.59041e-05,9.98016e-06,-1.38567e-05,1.53598e-05,-3.27564e-06,0
-2.94454e-05,4.78039e-07,-2.27793e-05,-2.1362e-05,9.65617e-06,-1.2069e-05,1.43905e-05,-3.69977e-06,0
-3.11353e-05,9.6793e-07,-1.88467e-05,-2.23504e-05,9.57838e-06,-1.16721e-05,1.0034e-05,-4.67983e-06,0
-3.2108e-05,1.18934e-06,-1.67407e-05,-2.03194e-05,9.08987e-06,-1.20425e-05,-1.43708e-06,-4.13505e-06,0
-3.24748e-05,1.21733e-06,-1.35174e-05,-1.8405e-05,7.95671e-06,-1.19559e-05,-1.39906e-05,-3.31685e-06,0
-3.17583e-05,2.35948e-06,-9.53839e-06,-1.79154e-05,6.4389e-06,-1.23245e-05,-1.77329e-05,-4.01365e-06,0
-3.14816e-05,5.15944e-06,-8.50869e-06,-1.74885e-05,4.33698e-06,-1.25045e-05,-9.52283e-06,-4.86575e-06,0
-3.26541e-05,7.40481e-06,-9.66515e-06,-1.73002e-05,8.9897e-07,-1.20315e-05,6.41408e-06,-4.68815e-06,0
-3.3806e-05,6.3964e-06,-1.20717e-05,-1.83744e-05,-2.87849e-06,-1.14713e-05,2.26718e-05,-3.83758e-06,0
-3.41963e-05,3.36524e-06,-1.42231e-05,-1.80525e-05,-4.84371e-06,-1.1473e-05,3.38511e-05,-2.06042e-06,0
-3.46325e-05,1.49357e-06,-1.52291e-05,-1.33929e-05,-3.59229e-06,-1.13887e-05,4.04088e-05,-3.79323e-08,0
-3.43874e-05,1.67457e-06,-1.49105e-05,-4.35281e-06,-4.11573e-07,-9.26634e-06,4.39302e-05,2.35041e-07,0
-3.37972e-05,2.70959e-06,-1.38161e-05,6.72332e-06,1.72964e-06,-8.40733e-06,4.50981e-05,4.58272e-07,0
-3.4118e-05,4.94056e-06,-1.41023e-05,1.47339e-05,2.78096e-06,-1.09216e-05,4.43618e-05,1.63265e-06,0
-3.50323e-05,5.45953e-06,-1.60774e-05,1.61595e-05,4.61876e-06,-1.21631e-05,4.24573e-05,1.40304e-06,0
-3.40818e-05,5.59237e-06,-1.60064e-05,1.35452e-05,6.85429e-06,-1.0387e-05,4.08293e-05,1.13788e-06,0
-3.278e-05,7.87591e-06,-1.39486e-05,9.31629e-06,9.14009e-06,-7.90597e-06,3.81319e-05,1.89449e-06,0
-3.36454e-05,8.07478e-06,-1.40141e-05,6.18169e-06,1.01078e-05,-8.7523e-06,3.02288e-05,2.10397e-06,0
-3.42943e-05,6.47901e-06,-1.46976e-05,7.26147e-06,1.32056e-05,-1.18399e-05,7.52409e-06,8.10996e-07,0
-3.42027e-05,8.66865e-06,-1.29337e-05,2.14789e-05,1.68528e-05,-1.35817e-05,-2.58644e-05,-6.12222e-07,0
-3.27332e-05,2.00963e-05,-1.02587e-05,4.73975e-05,1.74008e-05,-1.37931e-05,-4.70063e-05,-5.19317e-07,0
-3.14159e-05,3.41844e-05,-8.21421e-06,6.18368e-05,1.69236e-05,-1.2823e-05,-4.50688e-05,2.88381e-07,0
-3.02944e-05,4.13231e-05,-7.01437e-06,5.22796e-05,1.47148e-05,-1.23663e-05,-2.78835e-05,-1.08193e-07,0
-2.90624e-05,4.08554e-05,-5.99464e-06,2.74608e-05,1.08956e-05,-1.23427e-05,-7.92988e-06,-2.02213e-06,0
-3.00845e-05,3.57185e-05,-4.98443e-06,5.028e-06,8.28475e-06,-1.2723e-05,9.02968e-06,-2.53022e-06,0
-3.19388e-05,3.09309e-05,-5.17968e-06,-6.48266e-06,8.23514e-06,-1.33092e-05,2.31154e-05,-2.83227e-07,0
-3.23288e-05,2.62967e-05,-5.5437e-06,-1.14043e-05,8.01161e-06,-1.3771e-05,3.38056e-05,1.41759e-06,0
-3.1768e-05,1.9946e-05,-5.05696e-06,-1.33933e-05,8.13541e-06,-1.32955e-05,3.9632e-05,9.74901e-07,0
-3.16761e-05,1.33373e-05,-5.26874e-06,-1.61682e-05,9.09747e-06,-1.28612e-05,4.02735e-05,5.31782e-07,0
-3.16784e-05,9.81987e-06,-6.58711e-06,-2.0892e-05,9.51618e-06,-1.43505e-05,3.68059e-05,3.3797e-07,0
-3.17003e-05,9.24606e-06,-6.69129e-06,-2.53872e-05,8.58887e-06,-1.57895e-05,3.11642e-05,1.25733e-07,0
-3.12792e-05,8.2405e-06,-6.1346e-06,-3.10642e-05,7.57839e-06,-1.51988e-05,2.65805e-05,-3.1865e-07,0
-3.12708e-05,6.44603e-06,-5.90495e-06,-3.98859e-05,7.9805e-06,-1.32515e-05,2.48218e-05,-1.13088e-06,0
-3.21038e-05,6.40786e-06,-6.3075e-06,-4.63542e-05,9.80326e-06,-1.19796e-05,2.47069e-05,-1.62756e-06,0
-3.31804e-05,8.83195e-06,-7.45937e-06,-4.51658e-05,1.26185e-05,-1.11647e-05,2.33086e-05,-8.21931e-07,0
-3.35864e-05,1.23237e-05,-9.83299e-06,-3.96187e-05,1.50214e-05,-9.66198e-06,2.01807e-05,2.31365e-07,0
-3.26866e-05,1.56629e-05,-1.18138e-05,-3.45051e-05,1.69614e-05,-7.98369e-06,1.77259e-05,3.74289e-07,0
-3.10973e-05,1.68283e-05,-1.04385e-05,-3.05867e-05,1.90079e-05,-7.74933e-06,1.61028e-05,7.83596e-07,0
-3.05703e-05,1.74142e-05,-6.69732e-06,-2.4657e-05,2.07472e-05,-7.50357e-06,1.38687e-05,9.74906e-07,0
-3.18229e-05,1.67426e-05,-4.1161e-06,-1.41024e-05,2.2022e-05,-6.40612e-06,1.11129e-05,-4.54914e-07,0
-3.14061e-05,1.2618e-05,-3.53913e-06,1.20999e-07,2.32055e-05,-5.29759e-06,8.52898e-06,-1.37887e-06,0
-2.93899e-05,7.72601e-06,-4.14767e-06,1.30459e-05,2.57577e-05,-5.8269e-06,5.97103e-06,-4.89496e-09,0
-2.95e-05,4.73138e-06,-4.53986e-06,2.02999e-05,2.83119e-05,-7.25519e-06,3.85991e-06,3.12854e-06,0
-3.06994e-05,5.32702e-06,-5.20316e-06,1.92877e-05,2.92334e-05,-8.15073e-06,1.91726e-06,5.48786e-06,0
-3.07307e-05,8.64125e-06,-6.69536e-06,1.12623e-05,2.79038e-05,-1.00262e-05,3.02423e-07,5.0533e-06,0
-3.07044e-05,1.27031e-05,-8.49149e-06,2.54651e-06,2.4472e-05,-1.16173e-05,3.65842e-07,2.71987e-06,0
-3.09696e-05,1.65265e-05,-1.02916e-05,-4.75831e-06,2.19163e-05,-1.32413e-05,1.07633e-06,1.33779e-06,0
-2.94506e-05,1.73378e-05,-1.16643e-05,-9.99296e-06,2.17227e-05,-1.42878e-05,1.29722e-06,2.36762e-06,0
-2.6667e-05,1.61024e-05,-1.27594e-05,-1.18814e-05,2.33688e-05,-1.3866e-05,2.57944e-06,4.19539e-06,0
-2.5341e-05,1.42545e-05,-1.30112e-05,-1.33632e-05,2.31156e-05,-1.21584e-05,4.61571e-06,5.64227e-06,0
-2.54769e-05,1.14755e-05,-1.39285e-05,-1.38224e-05,2.21565e-05,-1.03765e-05,5.64041e-06,4.6317e-06,0
-2.71746e-05,7.80618e-06,-1.50765e-05,-1.08039e-05,2.23048e-05,-1.0107e-05,5.50462e-06,2.0212e-06,0
-2.79967e-05,5.73456e-06,-1.58958e-05,-6.19326e-06,2.21361e-05,-1.11524e-05,5.16055e-06,-4.10903e-08,0
-2.78051e-05,7.50162e-06,-1.5799e-05,-2.92949e-06,2.12691e-05,-1.28429e-05,6.0945e-06,4.32775e-07,0
-2.86428e-05,1.12064e-05,-1.31168e-05,-1.7594e-06,2.17069e-05,-1.2693e-05,7.87456e-06,3.20041e-06,0
-2.99553e-05,1.45092e-05,-8.61784e-06,-9.16444e-07,2.24532e-05,-1.02966e-05,1.01175e-05,5.61173e-06,0
-3.07419e-05,1.63403e-05,-4.18186e-06,2.54374e-06,2.18562e-05,-7.5005e-06,1.17219e-05,6.98809e-06,0
-3.0957e-05,1.71023e-05,-2.41883e-07,8.02019e-06,2.13085e-05,-5.54508e-06,1.11247e-05,6.80159e-06,0
-3.19982e-05,1.62903e-05,3.92079e-06,1.03179e-05,2.05499e-05,-5.31413e-06,9.53068e-06,4.56301e-06,0
-3.35581e-05,1.31682e-05,9.2217e-06,7.10257e-06,1.92996e-05,-7.14607e-06,9.50643e-06,1.74535e-06,0
-3.43103e-05,9.57563e-06,1.75858e-05,2.52349e-06,1.80659e-05,-9.02908e-06,1.09122e-05,3.83999e-07,0
-3.2599e-05,9.06509e-06,3.00002e-05,8.89719e-07,1.76007e-05,-9.08203e-06,1.07874e-05,2.9481e-07,0
-2.96389e-05,1.17428e-05,4.48863e-05,7.45584e-07,1.65268e-05,-6.91458e-06,1.01701e-05,2.07722e-07,0
-2.7981e-05,1.58105e-05,5.68358e-05,-5.33714e-07,1.37773e-05,-3.73897e-06,1.0689e-05,-6.24017e-07,0
-2.87843e-05,1.96705e-05,5.78809e-05,-3.56635e-06,1.0646e-05,-2.40291e-06,1.16283e-05,-1.50918e-06,0
-2.98995e-05,2.18132e-05,4.28094e-05,-7.12515e-06,1.05195e-05,-3.56741e-06,1.37212e-05,-5.98845e-07,0
-2.90627e-05,2.13407e-05,1.22864e-05,-8.51172e-06,1.25425e-05,-4.7668e-06,1.57797e-05,1.33793e-06,0
-2.72241e-05,2.06017e-05,-2.60717e-05,-7.39107e-06,1.3998e-05,-5.51151e-06,1.54599e-05,1.85081e-06,0
-2.69631e-05,2.29685e-05,-5.86795e-05,-4.97593e-06,1.34321e-05,-6.0922e-06,1.40119e-05,2.09474e-06,0
-2.85601e-05,2.511e-05,-7.65785e-05,-1.50675e-06,1.34136e-05,-4.96399e-06,1.35671e-05,3.44351e-06,0
-2.9093e-05,2.13833e-05,-7.87407e-05,2.51451e-06,1.56595e-05,-4.07957e-06,1.51227e-05,4.0245e-06,0
-2.85975e-05,1.63621e-05,-6.74996e-05,5.66078e-06,1.64352e-05,-4.81089e-06,1.71449e-05,2.28956e-06,0
-2.93888e-05,1.62881e-05,-5.08212e-05,8.48299e-06,1.36222e-05,-5.14825e-06,1.79736e-05,9.65699e-07,0
-3.06073e-05,1.79229e-05,-3.60232e-05,1.0548e-05,8.71495e-06,-5.70271e-06,1.97652e-05,3.44591e-07,0
-2.99996e-05,1.82482e-05,-2.53214e-05,9.18444e-06,4.42111e-06,-7.57495e-06,2.01616e-05,-3.72506e-07,0
-2.98424e-05,1.75244e-05,-1.79221e-05,5.71975e-06,3.38547e-06,-9.50973e-06,1.70344e-05,-1.39614e-06,0
-3.12108e-05,1.5742e-05,-1.10756e-05,-4.79387e-07,4.28007e-06,-1.0133e-05,1.42873e-05,-2.6041e-06,0
-3.25757e-05,1.49303e-05,-4.58055e-06,-7.34378e-06,5.31898e-06,-1.04449e-05,1.386e-05,-3.33675e-06,0
-3.30211e-05,1.53775e-05,1.94617e-06,-1.30529e-05,6.74911e-06,-1.13693e-05,1.43529e-05,-4.05305e-06,0
-3.32143e-05,1.43206e-05,7.46688e-06,-1.83668e-05,6.37962e-06,-1.17745e-05,1.55904e-05,-4.16443e-06,0
-3.35457e-05,1.11229e-05,7.84216e-06,-2.26735e-05,4.03141e-06,-1.18903e-05,1.70617e-05,-3.36001e-06,0
-3.33523e-05,6.91438e-06,3.48879e-06,-2.55491e-05,1.65825e-06,-1.22887e-05,1.59371e-05,-1.97296e-06,0
-3.38921e-05,3.45244e-06,-2.04568e-06,-2.67837e-05,3.24762e-07,-1.13997e-05,1.41504e-05,-1.99537e-06,0
-3.4529e-05,1.90377e-06,-6.69675e-06,-2.63826e-05,4.30642e-07,-9.77318e-06,1.5157e-05,-3.49127e-06,0
-3.44242e-05,1.65089e-06,-1.18188e-05,-2.37809e-05,2.35088e-06,-9.18174e-06,2.05906e-05,-4.78348e-06,0
-3.30141e-05,2.19048e-06,-1.92238e-05,-2.07822e-05,3.53485e-06,-1.00707e-05,2.81804e-05,-4.42253e-06,0
-3.05684e-05,3.39392e-06,-2.74348e-05,-1.87016e-05,3.50723e-06,-1.10094e-05,3.36051e-05,-4.41995e-06,0
-2.86802e-05,5.11676e-06,-3.25587e-05,-1.80577e-05,3.59726e-06,-1.09236e-05,3.51563e-05,-5.81388e-06,0
-2.89549e-05,6.68742e-06,-3.24961e-05,-1.70129e-05,3.84116e-06,-1.07219e-05,3.25899e-05,-6.38182e-06,0
-3.09911e-05,6.52113e-06,-2.8764e-05,-1.38576e-05,4.66942e-06,-9.80342e-06,2.62303e-05,-4.95477e-06,0
-3.2068e-05,5.66968e-06,-2.33594e-05,-9.04594e-06,5.60329e-06,-8.362e-06,1.50841e-05,-2.7368e-06,0
-3.09212e-05,7.16917e-06,-1.7804e-05,-5.72614e-06,5.9134e-06,-8.50482e-06,3.17225e-07,-2.29093e-06,0
-2.94431e-05,9.95307e-06,-1.33465e-05,-5.27688e-06,6.31168e-06,-1.06114e-05,-1.16578e-05,-3.07968e-06,0
-2.95065e-05,1.11188e-05,-1.01682e-05,-6.69931e-06,7.21477e-06,-1.26675e-05,-1.60705e-05,-2.96884e-06,0
-2.96686e-05,1.17039e-05,-6.82195e-06,-7.02712e-06,9.04415e-06,-1.32915e-05,-1.4764e-05,-2.87139e-06,0
-2.90932e-05,1.1903e-05,-4.33982e-06,-5.33969e-06,1.12232e-05,-1.16177e-05,-8.70926e-06,-2.58848e-06,0
-2.8545e-05,1.13314e-05,-4.6743e-06,-4.79638e-06,1.30486e-05,-1.03538e-05,4.65712e-06,-1.11922e-06,0
-2.89362e-05,1.02223e-05,-6.38997e-06,-6.56214e-06,1.43905e-05,-1.19518e-05,2.32372e-05,1.40722e-06,0
-3.03034e-05,9.68402e-06,-7.59403e-06,-7.27234e-06,1.35482e-05,-1.42054e-05,3.8063e-05,3.77639e-06,0
-3.0944e-05,1.04217e-05,-6.6411e-06,-4.46265e-06,1.20621e-05,-1.46695e-05,4.53978e-05,5.2534e-06,0
-3.06922e-05,1.17291e-05,-3.54801e-06,-8.13232e-07,1.27448e-05,-1.29563e-05,4.50028e-05,7.14213e-06,0
-3.05181e-05,1.39517e-05,-1.96124e-06,4.41942e-06,1.56902e-05,-1.03699e-05,4.06732e-05,6.70963e-06,0
-3.05466e-05,1.52029e-05,-3.23891e-06,1.03603e-05,1.81791e-05,-9.16913e-06,3.54596e-05,4.57888e-06,0
-3.05728e-05,1.39359e-05,-4.83957e-06,1.24152e-05,1.88443e-05,-1.00607e-05,2.61263e-05,2.69106e-06,0
-3.04091e-05,1.15378e-05,-3.78724e-06,1.20124e-05,1.89866e-05,-1.12603e-05,1.29058e-05,1.32081e-06,0
-3.16662e-05,1.02981e-05,-8.76658e-07,1.17749e-05,1.87642e-05,-1.08161e-05,-9.7821e-07,1.09546e-06,0
-3.22663e-05,9.82978e-06,1.55996e-06,9.70598e-06,1.9529e-05,-8.79944e-06,-9.71156e-06,1.83771e-06,0
-3.10502e-05,9.07773e-06,4.11798e-06,5.72909e-06,2.17637e-05,-7.42823e-06,-1.26525e-05,1.93588e-06,0
-2.93318e-05,9.65663e-06,8.00338e-06,2.3429e-06,2.25135e-05,-7.71473e-06,-1.18459e-05,2.21262e-06,0
-2.75693e-05,1.16972e-05,1.2434e-05,1.10265e-06,2.03061e-05,-8.38328e-06,-1.00493e-05,3.73836e-06,0
-2.65097e-05,1.32555e-05,1.3727e-05,1.56449e-07,1.77333e-05,-7.70265e-06,-7.46982e-06,3.73253e-06,0
-2.66184e-05,1.28776e-05,1.05296e-05,-1.70838e-06,1.74256e-05,-5.4605e-06,-3.56126e-06,1.66811e-06,0
-2.73554e-05,1.226e-05,4.334e-06,-2.40057e-06,1.79057e-05,-4.15776e-06,1.57312e-07,-2.04801e-07,0
-2.70828e-05,1.26991e-05,-3.50783e-06,-1.5799e-06,1.72313e-05,-4.8477e-06,3.43574e-06,-5.1237e-07,0
-2.6764e-05,1.37251e-05,-1.07335e-05,-3.01466e-06,1.57475e-05,-4.633e-06,5.29636e-06,6.65843e-08,0
-2.7024e-05,1.42456e-05,-1.48114e-05,-9.3063e-06,1.44392e-05,-3.48516e-06,5.09145e-06,5.44888e-07,0
-2.68625e-05,1.38854e-05,-1.44659e-05,-1.6497e-05,1.40066e-05,-3.77803e-06,4.31831e-06,5.09078e-07,0
-2.66916e-05,1.29561e-05,-1.08149e-05,-1.97898e-05,1.43058e-05,-5.82325e-06,7.58053e-06,8.98061e-07,0
-2.7489e-05,1.13118e-05,-5.45032e-06,-1.85602e-05,1.54625e-05,-7.35248e-06,1.32711e-05,1.65907e-06,0
-2.76586e-05,9.87728e-06,-1.15723e-06,-1.49125e-05,1.68657e-05,-7.85655e-06,1.69686e-05,2.3402e-06,0
-2.72202e-05,7.48397e-06,-6.1129e-07,-8.92576e-06,1.80914e-05,-8.28753e-06,1.77832e-05,3.1178e-06,0
-2.72007e-05,4.82963e-06,-1.44125e-07,-1.41493e-08,1.96079e-05,-8.53059e-06,1.65085e-05,4.81972e-06,0
-2.75023e-05,5.7716e-06,8.42422e-07,4.71592e-06,2.11457e-05,-9.02215e-06,1.34411e-05,5.86595e-06,0
-2.76988e-05,9.53397e-06,9.31468e-08,1.41965e-06,2.24883e-05,-1.07355e-05,1.07284e-05,4.2439e-06,0
-2.78267e-05,1.22515e-05,-1.16981e-06,-4.82483e-06,2.14126e-05,-1.39447e-05,8.12731e-06,1.64528e-06,0
-2.77625e-05,1.36108e-05,-2.13834e-06,-9.53314e-06,1.85585e-05,-1.55863e-05,4.89409e-06,7.34728e-07,0
-2.73927e-05,1.49767e-05,-3.70829e-06,-9.16289e-06,1.58757e-05,-1.55766e-05,3.59571e-06,1.29236e-06,0
-2.7115e-05,1.37012e-05,-6.13664e-06,-5.90953e-06,1.37012e-05,-1.56393e-05,-4.23367e-06,1.85815e-06,0
-2.76854e-05,1.03519e-05,-7.43951e-06,-1.64903e-06,1.31535e-05,-1.5119e-05,-2.13478e-05,1.69461e-06,0
-2.97187e-05,9.36269e-06,-8.3254e-06,3.12666e-06,1.45605e-05,-1.46708e-05,-3.28799e-05,8.99274e-07,0
-3.10157e-05,1.09286e-05,-8.92133e-06,5.77526e-06,1.51103e-05,-1.45015e-05,-2.9626e-05,-5.43954e-07,0
-3.02887e-05,1.32236e-05,-9.56768e-06,5.91462e-06,1.41225e-05,-1.35093e-05,-1.43177e-05,-9.58617e-07,0
-2.96322e-05,1.32582e-05,-1.15019e-05,3.14596e-06,1.36849e-05,-1.24562e-05,1.54449e-06,-3.91271e-07,0
-2.94035e-05,1.23418e-05,-1.43092e-05,-1.44839e-06,1.26579e-05,-1.23764e-05,1.38182e-05,-1.94221e-07,0
-2.94867e-05,1.31259e-05,-1.69566e-05,-7.91158e-06,1.10193e-05,-1.2747e-05,2.56109e-05,1.20073e-07,0
-3.09273e-05,1.64144e-05,-1.92755e-05,-1.54452e-05,1.07078e-05,-1.28784e-05,3.66566e-05,9.64634e-07,0
-3.16953e-05,2.0187e-05,-2.08817e-05,-2.08746e-05,1.27927e-05,-1.24109e-05,4.50202e-05,1.33778e-06,0
-3.16681e-05,2.38621e-05,-2.01607e-05,-2.40651e-05,1.51469e-05,-1.21272e-05,4.84881e-05,2.37332e-07,0
-3.16844e-05,3.09833e-05,-1.69092e-05,-2.56777e-05,1.59516e-05,-1.13871e-05,4.73842e-05,-2.60005e-07,0
-3.1817e-05,4.25132e-05,-1.33723e-05,-2.56654e-05,1.52713e-05,-9.81581e-06,4.33914e-05,1.30644e-07,0
-3.14143e-05,5.42795e-05,-1.16134e-05,-2.50937e-05,1.34502e-05,-8.06287e-06,3.92446e-05,4.16186e-07,0
-3.02836e-05,6.16733e-05,-1.05794e-05,-2.45866e-05,1.1457e-05,-7.11978e-06,3.56043e-05,-5.42861e-07,0
-2.90589e-05,6.24826e-05,-9.37972e-06,-2.14707e-05,9.66703e-06,-7.1319e-06,3.29663e-05,-2.30976e-06,0
-2.81549e-05,5.43274e-05,-8.00834e-06,-1.33795e-05,8.2127e-06,-7.9198e-06,3.11642e-05,-3.06881e-06,0
-2.76473e-05,3.91138e-05,-6.56551e-06,-9.22271e-07,9.22886e-06,-8.83102e-06,2.99453e-05,-2.19178e-06,0
-2.79101e-05,2.07127e-05,-4.34804e-06,1.34079e-05,1.25912e-05,-8.58403e-06,2.82048e-05,-6.43957e-07,0
-2.94374e-05,1.64843e-06,-2.42273e-06,2.36568e-05,1.66924e-05,-7.47615e-06,2.49955e-05,1.23758e-06,0
-3.04125e-05,-1.48462e-05,-2.269e-06,2.48325e-05,1.96922e-05,-5.71871e-06,2.11391e-05,3.12604e-06,0
-2.9878e-05,-2.56307e-05,-2.1937e-06,1.99087e-05,2.05818e-05,-5.25005e-06,1.8672e-05,4.29309e-06,0
-2.83992e-05,-2.83694e-05,-1.49184e-06,1.39543e-05,2.07879e-05,-5.57901e-06,1.7899e-05,5.11759e-06,0
-2.71472e-05,-2.03403e-05,-6.30708e-07,6.76118e-06,1.99439e-05,-4.91678e-06,1.68138e-05,6.15774e-06,0
-2.74719e-05,-7.7412e-06,-1.49614e-06,-3.58553e-06,1.83253e-05,-4.82196e-06,1.42761e-05,7.35575e-06,0
-2.90555e-05,-5.83025e-08,-4.3605e-06,-1.10326e-05,1.66558e-05,-3.98812e-06,1.25975e-05,8.3601e-06,0
-2.91502e-05,3.23919e-06,-5.00162e-06,-7.56834e-06,1.59609e-05,-3.49538e-06,1.16188e-05,7.5135e-06,0
-2.88343e-05,6.53333e-06,-3.16439e-06,2.52222e-06,1.74304e-05,-4.94352e-06,9.58832e-06,6.32671e-06,0
-2.86874e-05,1.0205e-05,-1.84568e-06,1.28694e-05,1.85098e-05,-5.24906e-06,6.71791e-06,5.53662e-06,0
-2.83474e-05,1.22602e-05,-2.01999e-06,1.94186e-05,1.75798e-05,-4.49635e-06,4.30222e-06,5.077e-06,0
-2.9051e-05,1.20317e-05,-1.48107e-06,1.9299e-05,1.74746e-05,-4.56712e-06,4.21202e-06,6.05193e-06,0
-3.00183e-05,1.33373e-05,-7.80137e-07,1.59449e-05,1.85879e-05,-5.46319e-06,5.7771e-06,6.38072e-06,0
-3.08955e-05,1.683e-05,-2.18027e-06,9.89457e-06,1.9181e-05,-5.59735e-06,8.89499e-06,5.60859e-06,0
-3.1781e-05,1.76229e-05,-3.78651e-06,-3.52744e-06,1.73739e-05,-5.53555e-06,1.10082e-05,3.87482e-06,0
-3.20818e-05,1.3928e-05,-4.47255e-06,-1.98363e-05,1.51556e-05,-6.06381e-06,1.05729e-05,1.27757e-06,0
-3.16193e-05,1.09403e-05,-4.35663e-06,-2.77356e-05,1.50573e-05,-6.72052e-06,6.66199e-06,-1.0486e-06,0
-3.14791e-05,1.19953e-05,-3.74653e-06,-2.60608e-05,1.56388e-05,-6.50353e-06,2.45838e-06,-8.89363e-07,0
-3.197e-05,1.40391e-05,-2.8307e-06,-2.09393e-05,1.59726e-05,-5.39722e-06,1.58696e-06,1.93116e-07,0
-3.28207e-05,1.43497e-05,-1.50591e-06,-1.59679e-05,1.67133e-05,-4.16704e-06,4.55741e-06,4.44424e-07,0
-3.27994e-05,1.30988e-05,1.12214e-06,-1.22255e-05,1.90205e-05,-4.24804e-06,1.00704e-05,9.53812e-08,0
-3.21086e-05,1.22058e-05,6.10142e-06,-9.4682e-06,2.10096e-05,-6.3641e-06,1.61422e-05,-5.95467e-07,0
-3.25772e-05,1.14717e-05,1.46002e-05,-7.03153e-06,2.1367e-05,-8.39526e-06,2.19064e-05,-1.75217e-06,0
-3.43219e-05,1.03294e-05,2.39257e-05,-4.84767e-06,2.10048e-05,-9.03766e-06,2.44749e-05,-3.45752e-06,0
-3.59696e-05,9.23267e-06,2.77781e-05,-3.24284e-06,1.95224e-05,-8.72804e-06,2.18969e-05,-4.22323e-06,0
-3.66641e-05,9.51401e-06,2.1466e-05,-2.01673e-06,1.61481e-05,-8.28985e-06,1.50361e-05,-2.73979e-06,0
-3.55763e-05,1.05345e-05,3.31454e-06,-9.95377e-07,1.33034e-05,-8.07906e-06,9.21205e-06,-1.4193e-08,0
-3.32907e-05,1.09739e-05,-2.20762e-05,-4.15646e-07,1.29084e-05,-7.69512e-06,6.63689e-06,4.31667e-07,0
-3.24119e-05,1.01006e-05,-4.64345e-05,7.96958e-07,1.40716e-05,-6.90532e-06,4.99054e-06,-7.78052e-07,0
-3.29086e-05,9.57354e-06,-6.32695e-05,1.02409e-06,1.47799e-05,-6.92162e-06,4.21336e-06,2.58761e-07,0
-3.32669e-05,9.74205e-06,-6.65295e-05,-6.76109e-07,1.33003e-05,-7.53294e-06,5.07076e-06,2.10917e-06,0
-3.2168e-05,1.00233e-05,-5.97178e-05,-2.45974e-06,1.01024e-05,-8.46115e-06,4.71704e-06,2.23821e-06,0
-3.0169e-05,9.7039e-06,-4.99279e-05,-4.0932e-06,8.75254e-06,-9.05287e-06,5.54655e-07,5.00009e-07,0
-3.00714e-05,9.98056e-06,-4.13562e-05,-5.33752e-06,9.0108e-06,-9.20232e-06,-4.16648e-06,-8.90504e-07,0
-3.05768e-05,1.19414e-05,-3.61325e-05,-6.40595e-06,6.65518e-06,-8.99815e-06,-6.95433e-06,2.48739e-07,0
-2.98924e-05,1.35712e-05,-2.95513e-05,-6.22663e-06,3.08469e-06,-9.08001e-06,-7.55941e-06,1.94913e-06,0
-2.89571e-05,1.56668e-05,-2.17471e-05,-5.01411e-06,1.117e-06,-9.084e-06,-5.24957e-06,2.00086e-06,0
-2.8755e-05,1.799e-05,-1.42858e-05,-5.64973e-06,1.50288e-06,-6.68002e-06,-5.16535e-06,1.63501e-06,0
-2.86126e-05,1.92492e-05,-9.82923e-06,-7.01619e-06,2.36448e-06,-4.65752e-06,-9.31492e-06,2.40144e-06,0
-2.81803e-05,1.95654e-05,-1.03121e-05,-4.12936e-06,2.0885e-06,-5.12926e-06,-1.43618e-05,1.96865e-06,0
-2.96952e-05,1.94614e-05,-1.17645e-05,4.25175e-06,1.63188e-06,-6.72347e-06,-1.43023e-05,1.10639e-07,0
-3.11667e-05,2.01855e-05,-1.07667e-05,1.10566e-05,2.42184e-06,-8.26491e-06,-1.1596e-05,-2.29074e-06,0
-3.04832e-05,2.29575e-05,-9.08328e-06,8.97758e-06,4.19845e-06,-8.63141e-06,-1.23217e-05,-3.54976e-06,0
-3.03515e-05,2.55944e-05,-7.67532e-06,-3.20305e-07,5.03329e-06,-8.3991e-06,-1.31435e-05,-3.52813e-06,0
-3.15259e-05,2.54563e-05,-6.08077e-06,-1.16154e-05,4.35381e-06,-7.31214e-06,-8.78416e-06,-2.97223e-06,0
-3.18371e-05,2.32525e-05,-5.81405e-06,-1.98628e-05,3.09857e-06,-5.9245e-06,2.3665e-06,-2.45155e-06,0
-3.12368e-05,2.20065e-05,-7.14109e-06,-2.25552e-05,2.52872e-06,-6.07627e-06,1.66269e-05,-1.55863e-06,0
-3.02463e-05,2.29484e-05,-8.36634e-06,-2.10261e-05,2.87435e-06,-7.32445e-06,3.09716e-05,-6.88961e-07,0
-2.89613e-05,2.54154e-05,-7.80046e-06,-1.81733e-05,4.04934e-06,-8.71308e-06,4.17184e-05,-1.82834e-06,0
-2.80731e-05,2.69961e-05,-5.66129e-06,-1.50706e-05,6.16058e-06,-1.03282e-05,4.81312e-05,-4.11365e-06,0
-2.80385e-05,2.67521e-05,-2.94183e-06,-1.13402e-05,9.48969e-06,-1.20182e-05,5.08471e-05,-6.15208e-06,0
-2.78957e-05,2.74892e-05,-1.10481e-06,-7.88425e-06,1.28697e-05,-1.20382e-05,5.06002e-05,-6.95161e-06,0
-2.67053e-05,3.03333e-05,-2.63834e-07,-5.56571e-06,1.41251e-05,-1.01109e-05,4.7711e-05,-6.84045e-06,0
-2.60239e-05,3.17028e-05,-2.74288e-07,-5.09822e-06,1.2489e-05,-9.33039e-06,4.28351e-05,-6.40375e-06,0
-2.75937e-05,2.95324e-05,-4.5614e-07,-4.93896e-06,8.93332e-06,-1.22952e-05,3.66984e-05,-6.38035e-06,0
-3.04292e-05,2.62686e-05,-7.67064e-07,-4.73119e-06,6.93706e-06,-1.57484e-05,3.23766e-05,-5.31032e-06,0
-3.2278e-05,2.44568e-05,-1.17369e-06,-4.37537e-06,7.73704e-06,-1.57483e-05,2.93051e-05,-2.5469e-06,0
-3.23683e-05,2.39872e-05,-2.18219e-06,-4.44973e-06,1.0137e-05,-1.36536e-05,2.42013e-05,2.88093e-07,0
-3.06298e-05,2.26763e-05,-3.38024e-06,-3.85324e-06,1.19603e-05,-1.16112e-05,1.99667e-05,5.307e-07,0
-2.89492e-05,1.97442e-05,-4.04457e-06,-1.35517e-06,1.23006e-05,-1.1392e-05,1.77333e-05,3.15454e-07,0
-2.88057e-05,1.73715e-05,-4.02361e-06,1.6414e-07,1.13243e-05,-1.22571e-05,1.62187e-05,1.17867e-06,0
-3.05664e-05,1.83003e-05,-5.03611e-06,2.83713e-07,9.37891e-06,-1.3243e-05,1.33851e-05,-1.1386e-07,0
-3.2254e-05,1.85621e-05,-7.12863e-06,-1.36159e-06,9.34302e-06,-1.57176e-05,9.93205e-06,-8.18062e-07,0
-3.31793e-05,1.48558e-05,-8.3475e-06,-4.70065e-06,1.11869e-05,-1.69132e-05,6.49438e-06,1.67589e-06,0
-3.51544e-05,9.71144e-06,-8.36802e-06,-8.50365e-06,1.30112e-05,-1.52108e-05,3.75292e-06,4.50983e-06,0
-3.6476e-05,6.83828e-06,-8.37779e-06,-1.14253e-05,1.22754e-05,-1.28967e-05,3.58869e-06,3.56927e-06,0
-3.60523e-05,6.71938e-06,-9.34583e-06,-1.44472e-05,1.06302e-05,-1.23087e-05,4.64111e-06,5.4523e-07,0
-3.46488e-05,5.53506e-06,-9.84005e-06,-1.81613e-05,9.96998e-06,-1.35315e-05,5.14704e-06,-7.03777e-07,0
-3.31366e-05,2.59575e-06,-9.17912e-06,-1.97819e-05,8.42627e-06,-1.50406e-05,5.20037e-06,4.57794e-08,0
-3.18415e-05,1.13536e-06,-7.7293e-06,-1.76251e-05,4.56518e-06,-1.41684e-05,5.46296e-06,1.62268e-06,0
-3.21145e-05,2.66585e-06,-6.49066e-06,-1.28521e-05,-1.70296e-07,-1.10447e-05,5.31397e-06,1.56669e-06,0
-3.34557e-05,4.96541e-06,-5.70069e-06,-6.50065e-06,-2.9551e-06,-9.05134e-06,4.69602e-06,8.07587e-07,0
-3.37667e-05,5.30473e-06,-5.62666e-06,2.85275e-06,-2.27745e-06,-8.81587e-06,5.60892e-06,5.4896e-07,0
-3.26429e-05,3.95667e-06,-5.62666e-06,1.32759e-05,1.53193e-06,-9.70696e-06,7.60084e-06,2.0712e-06,0
-3.05592e-05,2.86316e-06,-5.55336e-06,1.8601e-05,6.20909e-06,-1.07312e-05,9.10409e-06,4.52208e-06,0
-2.94982e-05,2.9605e-06,-5.75188e-06,1.56461e-05,9.62375e-06,-1.17979e-05,1.0352e-05,5.24014e-06,0
-3.09047e-05,4.70811e-06,-5.82864e-06,8.49806e-06,1.03965e-05,-1.28406e-05,1.12233e-05,4.61466e-06,0
-3.32395e-05,7.61169e-06,-4.6778e-06,1.94171e-06,1.00812e-05,-1.31638e-05,1.15566e-05,3.84648e-06,0
-3.41105e-05,1.02287e-05,-3.23764e-06,-1.16852e-06,1.00302e-05,-1.16915e-05,1.19251e-05,2.69444e-06,0
-3.31092e-05,1.09277e-05,-2.74619e-06,3.78867e-08,1.07577e-05,-9.76961e-06,1.27222e-05,9.1496e-07,0
-3.12081e-05,9.15611e-06,-2.90554e-06,3.17034e-06,1.15365e-05,-8.93298e-06,1.29091e-05,-2.91255e-07,0
-3.00939e-05,5.65528e-06,-3.48587e-06,6.18606e-06,1.174e-05,-9.01596e-06,1.35775e-05,-5.95325e-07,0
-3.08049e-05,3.31654e-06,-4.3578e-06,1.14897e-05,1.13235e-05,-9.84617e-06,1.49857e-05,2.67612e-07,0
-3.26625e-05,3.83543e-06,-5.11607e-06,2.68027e-05,1.06461e-05,-1.00119e-05,1.52003e-05,1.52958e-06,0
-3.21761e-05,4.91744e-06,-4.47075e-06,5.06915e-05,1.02512e-05,-7.65543e-06,1.49756e-05,3.11735e-06,0
-2.98773e-05,4.38547e-06,-1.90049e-06,6.14861e-05,1.0819e-05,-5.23002e-06,1.4321e-05,4.29124e-06,0
-2.87545e-05,2.54222e-06,5.79972e-07,4.5186e-05,1.15361e-05,-5.58909e-06,1.33954e-05,3.19186e-06,0
-2.99747e-05,6.13645e-07,-4.36506e-07,1.5588e-05,1.21393e-05,-7.38278e-06,1.31597e-05,4.79294e-07,0
-3.26696e-05,-3.35596e-06,-3.63889e-06,-8.7999e-06,1.24517e-05,-8.92945e-06,1.34574e-05,3.89252e-07,0
-3.36776e-05,-8.10982e-06,-6.34357e-06,-2.08811e-05,1.22581e-05,-8.95663e-06,1.23093e-05,2.07916e-06,0
-3.33618e-05,-1.00832e-05,-7.01954e-06,-2.44344e-05,1.20382e-05,-9.6767e-06,1.15259e-05,2.964e-06,0
-3.28725e-05,-1.02192e-05,-7.66486e-06,-2.55435e-05,1.32027e-05,-1.16656e-05,1.2684e-05,3.5827e-06,0
-3.28135e-05,-8.52989e-06,-8.52892e-06,-2.65252e-05,1.52114e-05,-1.25369e-05,1.42014e-05,4.21964e-06,0
-3.24244e-05,-6.26746e-06,-7.34462e-06,-2.92481e-05,1.65771e-05,-1.1952e-05,1.5168e-05,4.1937e-06,0
-3.11159e-05,-3.78403e-06,-6.02067e-06,-3.3774e-05,2.00217e-05,-1.19245e-05,1.48436e-05,3.28595e-06,0
-2.93495e-05,-3.79666e-07,-5.12096e-06,-4.12579e-05,2.28539e-05,-1.16829e-05,1.46079e-05,2.04898e-06,0
-2.76092e-05,2.75617e-06,-6.09709e-06,-4.96944e-05,2.19137e-05,-1.08955e-05,1.49414e-05,2.25387e-07,0
-2.75275e-05,4.5713e-06,-8.62775e-06,-5.28815e-05,1.97053e-05,-1.16267e-05,1.47295e-05,5.11241e-09,0
-2.81835e-05,4.91351e-06,-1.0541e-05,-4.91179e-05,2.0343e-05,-1.25239e-05,1.28531e-05,9.58561e-07,0
-2.75851e-05,6.26192e-06,-1.04995e-05,-3.98794e-05,2.35444e-05,-1.28044e-05,1.10107e-05,7.27663e-07,0
-2.70071e-05,9.15498e-06,-9.49763e-06,-2.81738e-05,2.60317e-05,-1.2713e-05,1.04673e-05,6.82462e-07,0
-2.81873e-05,1.07172e-05,-8.81734e-06,-1.79276e-05,2.62179e-05,-1.30976e-05,1.07547e-05,3.60537e-06,0
-2.89757e-05,1.01589e-05,-8.86295e-06,-1.19916e-05,2.47666e-05,-1.35348e-05,1.16759e-05,7.08796e-06,0
-2.81156e-05,1.09125e-05,-1.01072e-05,-9.74052e-06,2.39192e-05,-1.3694e-05,1.34498e-05,8.56279e-06,0
-2.68618e-05,1.18351e-05,-1.1444e-05,-9.02864e-06,2.49999e-05,-1.32631e-05,1.51572e-05,8.33464e-06,0
-2.62312e-05,9.81735e-06,-1.17288e-05,-6.7571e-06,2.61729e-05,-1.19978e-05,1.55083e-05,7.69561e-06,0
-2.67596e-05,7.34988e-06,-1.06665e-05,-3.18327e-06,2.48316e-05,-1.07274e-05,1.41584e-05,6.87931e-06,0
-2.83317e-05,7.22834e-06,-9.54898e-06,-3.14026e-06,2.09021e-05,-9.88515e-06,1.31569e-05,5.3301e-06,0
-2.91882e-05,7.95578e-06,-9.21496e-06,-7.33669e-06,1.68576e-05,-1.02656e-05,1.42779e-05,5.20354e-06,0
-2.89212e-05,8.2101e-06,-1.09372e-05,-1.19999e-05,1.52852e-05,-1.11109e-05,1.51819e-05,5.91085e-06,0
-3.0319e-05,8.49799e-06,-1.20833e-05,-1.30283e-05,1.57097e-05,-1.16619e-05,1.46143e-05,6.1109e-06,0
-3.2293e-05,7.95036e-06,-1.12326e-05,-8.89314e-06,1.53905e-05,-1.27636e-05,1.37021e-05,5.54536e-06,0
-3.2478e-05,7.24304e-06,-1.00622e-05,-1.14602e-06,1.33992e-05,-1.32065e-05,1.41066e-05,3.75005e-06,0
-3.15085e-05,9.79343e-06,-9.09403e-06,5.80801e-06,1.30036e-05,-1.12225e-05,1.41213e-05,3.06656e-06,0
-3.02371e-05,1.49762e-05,-9.95768e-06,7.07213e-06,1.33011e-05,-8.29143e-06,1.31251e-05,3.81467e-06,0
-2.86747e-05,1.89732e-05,-1.0676e-05,6.69805e-06,1.32162e-05,-7.4204e-06,1.27108e-05,4.12678e-06,0
-2.88484e-05,2.0602e-05,-9.25574e-06,7.39667e-06,1.58504e-05,-8.16893e-06,1.13189e-05,3.25438e-06,0
-2.97477e-05,1.96471e-05,-7.97345e-06,8.01936e-06,2.02859e-05,-9.13057e-06,8.31555e-06,2.44916e-06,0
-2.9833e-05,1.86573e-05,-6.80138e-06,9.54493e-06,2.14907e-05,-1.00505e-05,5.93482e-06,3.39499e-06,0
-3.05716e-05,1.88936e-05,-5.53822e-06,9.70579e-06,1.96843e-05,-9.79088e-06,5.76277e-06,4.68088e-06,0
-3.04915e-05,2.07931e-05,-4.28201e-06,9.32428e-06,1.78983e-05,-9.45141e-06,6.30378e-06,6.49826e-06,0
-2.99845e-05,2.50414e-05,-3.12517e-06,8.66911e-06,1.68399e-05,-8.71329e-06,7.13822e-06,8.2492e-06,0
-2.9329e-05,2.94349e-05,-3.3353e-06,5.24478e-06,1.59993e-05,-8.18812e-06,8.32759e-06,7.8233e-06,0
-2.86727e-05,3.11741e-05,-3.61768e-06,-1.42367e-06,1.40037e-05,-8.24345e-06,8.73175e-06,5.76671e-06,0
-2.82123e-05,2.99749e-05,-3.26918e-06,-7.88632e-06,1.16861e-05,-9.02765e-06,8.63369e-06,5.19548e-06,0
-2.72533e-05,2.77134e-05,-3.25224e-06,-1.12529e-05,9.34406e-06,-9.99901e-06,9.56436e-06,5.6297e-06,0
-2.55235e-05,2.54506e-05,-4.23106e-06,-1.20235e-05,6.41272e-06,-8.92793e-06,1.02261e-05,4.90741e-06,0
-2.42058e-05,2.457e-05,-6.43513e-06,-1.25013e-05,3.73761e-06,-6.50015e-06,9.01365e-06,3.24923e-06,0
-2.38948e-05,2.56359e-05,-8.998e-06,-1.3946e-05,2.15268e-06,-6.27932e-06,8.42067e-06,1.38718e-06,0
-2.34407e-05,2.66604e-05,-1.00557e-05,-1.41254e-05,1.44313e-06,-9.07778e-06,1.01993e-05,-7.55483e-08,0
-2.33387e-05,2.71717e-05,-9.41934e-06,-1.17222e-05,2.78657e-06,-1.02511e-05,1.29464e-05,-2.56077e-07,0
-2.44511e-05,2.64082e-05,-8.60154e-06,-8.63546e-06,5.51107e-06,-7.63656e-06,1.41946e-05,4.0043e-07,0
-2.64349e-05,2.28444e-05,-8.76943e-06,-6.46575e-06,6.79588e-06,-4.13385e-06,1.43881e-05,-4.3543e-08,0
-2.81937e-05,1.88933e-05,-9.79082e-06,-4.60159e-06,6.93572e-06,-2.87548e-06,1.73779e-05,-7.03949e-07,0
-2.95213e-05,1.61778e-05,-1.09476e-05,-2.20872e-06,8.33129e-06,-2.83473e-06,2.4877e-05,-5.0024e-07,0
-3.03983e-05,1.4361e-05,-1.14735e-05,-1.07573e-06,9.67403e-06,-2.86871e-06,3.23195e-05,-1.3611e-07,0
-3.1076e-05,1.39361e-05,-1.05542e-05,-2.85651e-06,8.74883e-06,-2.72012e-06,3.66757e-05,-1.38043e-06,0
-3.13879e-05,1.47088e-05,-7.54185e-06,-4.55934e-06,8.56043e-06,-2.11354e-06,3.89911e-05,-4.80595e-06,0
-3.16755e-05,1.59359e-05,-5.99287e-06,-5.41804e-06,1.02302e-05,-3.04633e-06,3.95157e-05,-7.50513e-06,0
