ch1,ch2,ch3,ch4,ch5,ch6,ch7,ch8,class
-3.01555e-05,4.25526e-05,-1.70029e-06,-5.09111e-06,1.16613e-05,-1.23976e-05,2.41858e-05,6.52313e-06,0
-3.08155e-05,5.10248e-05,6.26291e-07,-2.51442e-06,1.5346e-05,-1.09771e-05,1.29142e-05,4.46494e-06,0
-3.23805e-05,4.98172e-05,9.0302e-07,6.20956e-07,1.88495e-05,-1.09241e-05,2.28737e-06,4.41278e-06,0
-3.31756e-05,4.36508e-05,-1.77736e-06,2.74528e-06,2.04576e-05,-1.30472e-05,-2.59645e-06,5.67657e-06,0
-3.124e-05,3.23664e-05,-4.10054e-06,3.32738e-06,1.93519e-05,-1.55251e-05,-1.37534e-06,5.8447e-06,0
-2.80013e-05,1.71712e-05,-4.93189e-06,4.6972e-06,1.58717e-05,-1.55692e-05,1.29547e-06,4.57556e-06,0
-2.74625e-05,2.49599e-06,-5.97892e-06,6.32663e-06,1.29149e-05,-1.28988e-05,2.56972e-06,2.27082e-06,0
-3.00641e-05,-1.13629e-05,-7.22243e-06,6.60582e-06,1.13675e-05,-1.07222e-05,3.172e-06,3.78238e-07,0
-3.33935e-05,-2.53623e-05,-7.13217e-06,6.60509e-06,1.01744e-05,-1.07871e-05,5.74303e-06,-3.55304e-07,0
-3.56156e-05,-3.83231e-05,-5.69728e-06,7.19366e-06,9.42007e-06,-1.15203e-05,8.41374e-06,-1.9533e-07,0
-3.67042e-05,-4.66955e-05,-5.17393e-06,6.84747e-06,9.2711e-06,-1.10292e-05,8.73862e-06,4.71346e-07,0
-3.74249e-05,-4.77944e-05,-6.50816e-06,5.98331e-06,9.56707e-06,-9.41536e-06,6.46063e-06,1.66356e-06,0
-3.8194e-05,-4.12402e-05,-8.03221e-06,5.37444e-06,8.40732e-06,-8.33751e-06,4.47433e-06,2.09009e-06,0
-3.84777e-05,-2.86503e-05,-8.46123e-06,3.73879e-06,5.31779e-06,-7.17673e-06,4.09129e-06,2.03369e-06,0
-3.70597e-05,-1.52833e-05,-8.30407e-06,3.37215e-07,1.88587e-06,-5.50502e-06,5.29413e-06,2.43968e-06,0
-3.51819e-05,-7.24245e-06,-8.70473e-06,-2.71632e-06,2.96035e-07,-3.59161e-06,7.05496e-06,2.2149e-06,0
-3.43113e-05,-3.8264e-06,-1.07297e-05,-3.70303e-06,1.5825e-06,-3.37784e-06,1.02639e-05,4.53479e-07,0
-3.54096e-05,-8.16369e-07,-1.40026e-05,-2.85575e-06,5.18911e-06,-4.70959e-06,1.4051e-05,-9.46503e-07,0
-3.56269e-05,1.90104e-06,-1.79379e-05,3.62969e-06,7.85819e-06,-4.93584e-06,1.49178e-05,-8.6245e-07,0
-3.29653e-05,3.77218e-06,-2.15538e-05,1.7685e-05,8.45431e-06,-4.23388e-06,1.33155e-05,-6.74904e-07,0
-2.91177e-05,5.41495e-06,-2.41169e-05,2.9974e-05,7.45389e-06,-4.75869e-06,1.37992e-05,-2.74593e-06,0
-2.65921e-05,8.10664e-06,-2.50632e-05,3.22738e-05,6.34504e-06,-5.50506e-06,1.58484e-05,-4.64025e-06,0
-2.7906e-05,1.04956e-05,-2.45736e-05,2.38247e-05,7.84942e-06,-5.56373e-06,1.62851e-05,-2.73758e-06,0
-3.05681e-05,1.05773e-05,-2.42147e-05,1.35335e-05,1.36487e-05,-3.49778e-06,1.52569e-05,5.42351e-07,0
-3.09567e-05,8.98028e-06,-2.31891e-05,1.44779e-05,2.2938e-05,-1.07302e-06,1.45359e-05,1.1803e-06,0
-2.96604e-05,6.66039e-06,-2.03552e-05,2.44684e-05,3.19969e-05,-1.45204e-06,1.4693e-05,-1.02073e-06,0
-2.8977e-05,6.5977e-06,-1.68022e-05,2.9325e-05,3.52466e-05,-2.29633e-06,1.53122e-05,-1.3467e-06,0
-2.89002e-05,9.33929e-06,-1.38213e-05,2.0763e-05,3.05538e-05,-2.00927e-06,1.66765e-05,-3.47071e-07,0
-2.86234e-05,1.3273e-05,-1.08067e-05,2.69495e-06,2.40233e-05,-9.92183e-07,1.68222e-05,1.42799e-08,0
-2.9142e-05,1.64515e-05,-7.89245e-06,-1.85708e-05,2.08038e-05,-9.56961e-07,1.65028e-05,-6.77664e-07,0
-2.97362e-05,1.62815e-05,-7.76646e-06,-3.68199e-05,1.94526e-05,-2.48047e-06,1.55292e-05,-2.14744e-06,0
-3.0235e-05,1.33907e-05,-9.67554e-06,-4.581e-05,1.65408e-05,-4.27473e-06,1.40393e-05,-3.55066e-06,0
-2.91693e-05,1.13846e-05,-9.67138e-06,-4.29856e-05,1.47642e-05,-3.9661e-06,1.27691e-05,-3.9045e-06,0
-2.68335e-05,1.1719e-05,-8.0303e-06,-3.47191e-05,1.52286e-05,-2.32009e-06,1.20853e-05,-2.27246e-06,0
-2.61445e-05,1.17475e-05,-7.08619e-06,-3.12859e-05,1.64147e-05,-1.59655e-06,1.20064e-05,-1.62512e-07,0
-2.72304e-05,9.45316e-06,-7.40341e-06,-3.60047e-05,1.66801e-05,-1.66179e-06,1.1997e-05,7.17107e-07,0
-2.79651e-05,6.5441e-06,-9.28842e-06,-4.44229e-05,1.40048e-05,-2.42319e-06,1.19446e-05,6.24216e-07,0
-2.74853e-05,6.01056e-06,-1.18271e-05,-4.81973e-05,8.77524e-06,-4.27117e-06,1.23917e-05,1.38487e-06,0
-2.76123e-05,7.39745e-06,-1.21688e-05,-4.41139e-05,4.45199e-06,-5.58147e-06,1.3834e-05,2.39278e-06,0
-2.819e-05,8.9401e-06,-8.47455e-06,-3.83817e-05,5.03664e-06,-4.36325e-06,1.4564e-05,2.37593e-06,0
-2.85217e-05,9.00117e-06,-3.11374e-06,-3.70738e-05,9.0662e-06,-9.15672e-07,1.34132e-05,2.33926e-06,0
-2.90461e-05,7.80644e-06,2.15917e-06,-3.80791e-05,1.26368e-05,1.88121e-06,1.19187e-05,3.5506e-06,0
-3.00477e-05,6.22689e-06,8.28234e-06,-3.59866e-05,1.38036e-05,1.7008e-06,1.23345e-05,6.01994e-06,0
-3.04417e-05,7.26376e-06,1.6673e-05,-2.97846e-05,1.3486e-05,2.9548e-07,1.34563e-05,8.55237e-06,0
-3.07672e-05,1.1347e-05,3.05487e-05,-2.5139e-05,1.25679e-05,-1.29242e-06,1.4813e-05,8.72739e-06,0
-3.14674e-05,1.57839e-05,5.00808e-05,-2.53995e-05,1.406e-05,-2.30582e-06,1.6728e-05,8.59957e-06,0
-3.13496e-05,1.85584e-05,7.07404e-05,-2.69396e-05,1.71092e-05,-1.88108e-06,2.03991e-05,8.88608e-06,0
-2.96328e-05,1.86931e-05,8.56848e-05,-2.42724e-05,1.78816e-05,-1.22128e-06,2.51606e-05,7.41568e-06,0
-2.725e-05,1.83064e-05,8.61344e-05,-1.79828e-05,1.73111e-05,-1.00156e-06,2.73072e-05,5.41662e-06,0
-2.57896e-05,1.90774e-05,6.42678e-05,-1.4099e-05,1.7268e-05,-2.19507e-06,2.58184e-05,4.50603e-06,0
-2.57666e-05,2.07106e-05,2.31012e-05,-1.26466e-05,1.68009e-05,-5.50533e-06,2.302e-05,4.5743e-06,0
-2.57829e-05,2.13212e-05,-2.23833e-05,-7.93775e-06,1.59095e-05,-8.93723e-06,2.14644e-05,3.28677e-06,0
-2.56167e-05,2.03444e-05,-6.14567e-05,-1.74012e-06,1.55319e-05,-1.09876e-05,2.11857e-05,7.07646e-07,0
-2.59549e-05,1.80923e-05,-8.82376e-05,7.72035e-07,1.53069e-05,-1.13741e-05,2.072e-05,7.39072e-08,0
-2.57932e-05,1.64959e-05,-9.76182e-05,1.27533e-06,1.55983e-05,-1.02191e-05,1.77309e-05,1.9672e-06,0
-2.60686e-05,1.75427e-05,-8.79938e-05,2.99945e-06,1.85438e-05,-9.06871e-06,1.27137e-05,3.259e-06,0
-2.81391e-05,1.80008e-05,-6.87945e-05,5.49518e-06,2.37391e-05,-8.42544e-06,7.2937e-06,3.23012e-06,0
-3.02085e-05,1.5151e-05,-5.338e-05,5.14073e-06,2.54699e-05,-7.11579e-06,4.90334e-06,2.7329e-06,0
-3.08575e-05,1.19738e-05,-4.291e-05,2.1776e-06,2.268e-05,-6.14934e-06,6.84891e-06,2.84978e-06,0
-3.09202e-05,1.0995e-05,-3.33388e-05,9.40179e-07,1.8908e-05,-7.8744e-06,1.05199e-05,3.21994e-06,0
-3.1072e-05,1.12294e-05,-2.19489e-05,8.50134e-07,1.56605e-05,-1.07934e-05,1.24829e-05,3.38944e-06,0
-3.1995e-05,1.16264e-05,-1.04444e-05,1.30509e-06,1.35188e-05,-1.23852e-05,1.07969e-05,3.92929e-06,0
-3.30061e-05,1.23724e-05,-2.77896e-06,3.81871e-06,1.38454e-05,-1.23989e-05,7.58731e-06,4.43334e-06,0
-3.32312e-05,1.2885e-05,2.03242e-07,9.43492e-06,1.72824e-05,-1.2149e-05,4.30301e-06,5.05477e-06,0
-3.12432e-05,1.17383e-05,1.45447e-06,1.67097e-05,2.31548e-05,-1.26921e-05,1.88302e-06,5.18224e-06,0
-2.89203e-05,9.09091e-06,1.06835e-06,1.98526e-05,2.80211e-05,-1.38866e-05,8.84075e-07,4.55535e-06,0
-2.92904e-05,6.53276e-06,-2.56127e-06,1.6601e-05,2.79238e-05,-1.47977e-05,2.06495e-06,3.68675e-06,0
-3.06099e-05,5.44268e-06,-6.28352e-06,9.48326e-06,2.45163e-05,-1.4778e-05,4.02918e-06,3.58424e-06,0
-3.16719e-05,5.69183e-06,-7.06095e-06,7.29056e-07,2.12997e-05,-1.42193e-05,4.22316e-06,3.77953e-06,0
-3.32551e-05,4.76305e-06,-6.50454e-06,-9.49416e-06,2.02854e-05,-1.37348e-05,3.66963e-06,3.44349e-06,0
-3.47067e-05,3.31856e-06,-7.49122e-06,-1.88975e-05,2.1744e-05,-1.33604e-05,3.82815e-06,2.59373e-06,0
-3.48633e-05,4.05438e-06,-8.45761e-06,-2.20082e-05,2.45691e-05,-1.20907e-05,3.6801e-06,8.48835e-07,0
-3.3264e-05,6.17249e-06,-8.43048e-06,-1.5417e-05,2.6583e-05,-1.1814e-05,4.63383e-06,-6.73017e-07,0
-3.22828e-05,6.956e-06,-7.77235e-06,-3.30924e-06,2.56442e-05,-1.37722e-05,7.41014e-06,1.99716e-07,0
-3.24853e-05,6.08307e-06,-6.04748e-06,9.28126e-06,2.46555e-05,-1.49566e-05,1.00467e-05,1.78847e-06,0
-3.09573e-05,6.82328e-06,-5.45548e-06,2.21406e-05,2.52402e-05,-1.49236e-05,1.06741e-05,2.4392e-06,0
-2.94682e-05,9.86876e-06,-5.74218e-06,3.20957e-05,2.41085e-05,-1.46875e-05,1.10161e-05,3.63421e-06,0
-2.87138e-05,1.27362e-05,-4.91015e-06,3.60347e-05,2.16094e-05,-1.45478e-05,1.14083e-05,5.25819e-06,0
-2.68726e-05,1.20959e-05,-3.02798e-06,3.36931e-05,2.08786e-05,-1.52529e-05,1.11162e-05,5.88615e-06,0
-2.57086e-05,1.06319e-05,-1.76298e-06,2.545e-05,2.00106e-05,-1.6086e-05,1.22781e-05,5.36346e-06,0
-2.66442e-05,1.20119e-05,-3.18037e-06,1.59565e-05,1.91694e-05,-1.60914e-05,1.30914e-05,4.05863e-06,0
-2.81496e-05,1.48099e-05,-5.92102e-06,8.62786e-06,1.94169e-05,-1.54674e-05,1.57139e-05,2.76695e-06,0
-2.89762e-05,1.56134e-05,-7.80046e-06,4.72016e-06,1.95371e-05,-1.36437e-05,1.85174e-05,1.92782e-06,0
-2.93918e-05,1.43439e-05,-8.03077e-06,7.42082e-06,1.9391e-05,-1.10878e-05,1.57815e-05,1.43789e-06,0
-2.99434e-05,1.51902e-05,-7.32535e-06,1.64754e-05,1.76175e-05,-1.01468e-05,1.12256e-05,2.29185e-06,0
-2.96795e-05,1.59539e-05,-6.8591e-06,2.41784e-05,1.4418e-05,-1.08457e-05,1.05928e-05,3.55661e-06,0
-2.87186e-05,1.48778e-05,-7.38302e-06,2.55213e-05,1.25318e-05,-1.14507e-05,1.36617e-05,4.53649e-06,0
-2.80267e-05,1.26182e-05,-8.87946e-06,2.21553e-05,1.40737e-05,-1.0618e-05,1.82942e-05,5.8569e-06,0
-2.85926e-05,1.01769e-05,-1.01368e-05,1.7804e-05,1.68108e-05,-9.27271e-06,2.26567e-05,7.39601e-06,0
-2.99614e-05,9.1008e-06,-9.19327e-06,1.32638e-05,1.88144e-05,-8.21504e-06,2.38192e-05,7.76231e-06,0
-3.09052e-05,1.00477e-05,-6.3943e-06,6.00741e-06,1.91296e-05,-7.8765e-06,2.12513e-05,6.57828e-06,0
-3.07511e-05,1.11412e-05,-4.16644e-06,-1.98205e-06,1.73031e-05,-7.29386e-06,1.77998e-05,3.58464e-06,0
-2.96068e-05,1.11737e-05,-4.00829e-06,-8.65944e-06,1.49608e-05,-5.55665e-06,1.69989e-05,2.26299e-07,0
-2.86638e-05,1.11581e-05,-4.4473e-06,-1.73775e-05,1.46371e-05,-4.07581e-06,1.89626e-05,-6.00545e-07,0
-2.89817e-05,1.11592e-05,-3.48444e-06,-3.60578e-05,1.56608e-05,-3.15445e-06,2.10638e-05,5.80554e-07,0
-3.03661e-05,1.1241e-05,-1.2483e-06,-6.85688e-05,1.51879e-05,-2.08351e-06,2.06975e-05,4.35663e-08,0
-3.12883e-05,1.14519e-05,-5.78582e-07,-0.000100261,1.2647e-05,-1.92884e-06,1.73089e-05,-2.57663e-06,0
-3.18863e-05,1.14642e-05,-2.7285e-06,-0.000105265,8.88181e-06,-3.76758e-06,1.30982e-05,-3.66078e-06,0
-3.18599e-05,1.09771e-05,-5.55832e-06,-8.1602e-05,6.97041e-06,-6.02307e-06,1.16508e-05,-3.47098e-06,0
-3.04555e-05,1.06133e-05,-6.96301e-06,-4.96997e-05,9.84916e-06,-7.6018e-06,1.21638e-05,-2.92255e-06,0
-2.88002e-05,9.90513e-06,-5.4525e-06,-2.74693e-05,1.44157e-05,-8.32512e-06,1.22119e-05,-2.84849e-06,0
-2.90672e-05,9.59953e-06,-3.5123e-06,-1.50381e-05,1.65413e-05,-6.95983e-06,1.27273e-05,-3.60155e-06,0
-3.05493e-05,9.81912e-06,-1.18632e-06,-1.40105e-06,1.66807e-05,-4.30539e-06,1.3743e-05,-5.26999e-06,0
-3.1507e-05,1.12815e-05,8.91446e-07,1.56532e-05,1.60382e-05,-4.49416e-06,1.38129e-05,-6.80729e-06,0
-3.18207e-05,1.34114e-05,1.15834e-06,3.18994e-05,1.48844e-05,-5.73957e-06,9.39377e-06,-8.16127e-06,0
-3.27702e-05,1.47336e-05,8.3635e-08,3.72067e-05,1.38673e-05,-6.25622e-06,-3.26278e-06,-1.00902e-05,0
-3.39935e-05,1.50958e-05,-1.08837e-06,3.03047e-05,1.47023e-05,-5.61165e-06,-1.9297e-05,-1.10464e-05,0
-3.46e-05,1.46405e-05,-2.01568e-06,1.45609e-05,1.4901e-05,-5.48922e-06,-2.6301e-05,-1.10554e-05,0
-3.54093e-05,1.31219e-05,-4.79621e-06,-6.16774e-06,1.15878e-05,-7.97464e-06,-2.04803e-05,-1.07548e-05,0
-3.58031e-05,1.09801e-05,-6.92045e-06,-2.29205e-05,7.61932e-06,-1.03914e-05,-7.94338e-06,-1.16737e-05,0
-3.54264e-05,1.11666e-05,-8.61909e-06,-3.26293e-05,4.88313e-06,-1.15216e-05,5.45986e-06,-1.1952e-05,0
-3.53396e-05,1.47568e-05,-1.11495e-05,-3.39105e-05,2.04651e-06,-1.11704e-05,1.99204e-05,-1.04761e-05,0
-3.43936e-05,1.98155e-05,-1.33731e-05,-2.85816e-05,1.33974e-08,-1.05746e-05,3.30217e-05,-9.83577e-06,0
-3.15591e-05,2.44755e-05,-1.48133e-05,-1.90478e-05,7.79891e-08,-9.97581e-06,4.00968e-05,-1.00558e-05,0
-2.79661e-05,2.76231e-05,-1.40865e-05,-7.50387e-06,1.66073e-06,-9.66442e-06,4.16698e-05,-9.6446e-06,0
-2.49209e-05,2.95331e-05,-1.10355e-05,3.88505e-06,4.69612e-06,-9.42578e-06,4.10003e-05,-8.74327e-06,0
-2.44872e-05,3.06437e-05,-7.5074e-06,1.20025e-05,8.28259e-06,-9.62623e-06,4.03688e-05,-8.76873e-06,0
-2.72451e-05,2.92836e-05,-6.43034e-06,1.45197e-05,1.01696e-05,-1.14327e-05,3.95899e-05,-9.95554e-06,0
-3.08318e-05,2.5976e-05,-7.99817e-06,1.3909e-05,1.03561e-05,-1.46545e-05,3.74705e-05,-1.217e-05,0
-3.17162e-05,2.2308e-05,-1.0418e-05,1.38879e-05,1.06493e-05,-1.68383e-05,3.29348e-05,-1.35141e-05,0
-2.99093e-05,1.82246e-05,-1.14892e-05,1.54822e-05,1.26312e-05,-1.61439e-05,2.79154e-05,-1.31426e-05,0
-2.86572e-05,1.44278e-05,-1.09861e-05,1.77939e-05,1.70787e-05,-1.48875e-05,2.48319e-05,-1.17487e-05,0
-2.93809e-05,1.32438e-05,-9.55356e-06,1.95344e-05,2.30001e-05,-1.46749e-05,2.45834e-05,-9.62811e-06,0
-3.06804e-05,1.41736e-05,-6.67008e-06,1.84815e-05,2.78651e-05,-1.49378e-05,2.47706e-05,-7.78709e-06,0
-3.06491e-05,1.54717e-05,-3.04119e-06,1.37913e-05,2.85648e-05,-1.53883e-05,2.35054e-05,-6.74824e-06,0
-3.02376e-05,1.59253e-05,-1.52447e-06,6.60852e-06,2.34836e-05,-1.67648e-05,2.04139e-05,-5.35445e-06,0
-3.10544e-05,1.70908e-05,-4.17574e-06,4.4823e-07,1.67357e-05,-1.74233e-05,1.64927e-05,-2.09595e-06,0
-3.16468e-05,1.87061e-05,-8.18147e-06,-2.13466e-06,1.34136e-05,-1.72165e-05,1.31313e-05,1.32148e-07,0
-3.13326e-05,1.88754e-05,-9.90657e-06,-2.81742e-06,1.3138e-05,-1.77854e-05,1.03741e-05,-9.87458e-07,0
-3.04527e-05,1.794e-05,-8.53342e-06,-3.7239e-06,1.54047e-05,-1.63025e-05,6.14142e-06,3.38284e-08,0
-3.11054e-05,1.81696e-05,-4.42457e-06,-8.15264e-06,1.81864e-05,-1.35469e-05,1.49689e-06,3.38423e-06,0
-3.36076e-05,2.09752e-05,-2.25639e-06,-1.7896e-05,1.78284e-05,-1.36373e-05,-2.25763e-06,4.33153e-06,0
-3.55838e-05,2.22632e-05,-3.24705e-06,-2.37114e-05,1.49261e-05,-1.55705e-05,-5.77059e-06,4.2198e-06,0
-3.48278e-05,2.20639e-05,-3.45848e-06,-1.96568e-05,1.32685e-05,-1.59167e-05,-7.78079e-06,3.14772e-06,0
-3.14527e-05,2.1407e-05,-3.10045e-06,-1.07559e-05,1.37925e-05,-1.66884e-05,-7.53027e-06,1.08908e-06,0
-2.86319e-05,2.17431e-05,-3.21181e-06,-4.59346e-06,1.47972e-05,-1.8771e-05,-3.90624e-06,1.11336e-07,0
-2.82012e-05,2.27638e-05,-4.02306e-06,-1.60252e-06,1.51362e-05,-1.8884e-05,1.11119e-06,3.25365e-07,0
-2.96868e-05,2.32629e-05,-3.40595e-06,-6.70055e-07,1.54656e-05,-1.70606e-05,4.62004e-06,6.13297e-07,0
-3.13104e-05,2.24415e-05,-1.88084e-06,-8.28814e-07,1.59235e-05,-1.53835e-05,5.63627e-06,7.60734e-07,0
-3.26219e-05,2.22469e-05,-1.51523e-06,2.57801e-06,1.47044e-05,-1.59293e-05,4.49971e-06,9.32449e-07,0
-3.3139e-05,2.44095e-05,-3.79887e-06,9.61286e-06,1.32418e-05,-1.64595e-05,1.92814e-06,1.24915e-06,0
-3.29361e-05,2.66772e-05,-7.06756e-06,1.31798e-05,1.21027e-05,-1.63456e-05,1.10968e-06,1.06164e-06,0
-3.24909e-05,2.85867e-05,-9.19515e-06,9.92587e-06,9.29723e-06,-1.7525e-05,3.69336e-06,3.44759e-09,0
-3.25905e-05,2.81551e-05,-1.18084e-05,4.84935e-06,5.68692e-06,-1.95144e-05,6.80897e-06,-5.24494e-07,0
-3.28918e-05,2.53446e-05,-1.56476e-05,1.81584e-06,2.99707e-06,-1.97535e-05,7.41628e-06,-2.34002e-07,0
-3.29557e-05,2.16021e-05,-1.99287e-05,3.27505e-07,1.05544e-06,-1.73616e-05,5.57924e-06,2.87534e-09,0
-3.27567e-05,1.87614e-05,-2.15199e-05,-3.69458e-06,1.8393e-07,-1.42507e-05,2.5348e-06,-3.55599e-07,0
-3.16674e-05,1.66625e-05,-1.96248e-05,-1.12674e-05,2.576e-06,-1.2316e-05,2.29891e-09,-1.37536e-06,0
-3.04569e-05,1.54527e-05,-1.65222e-05,-2.10361e-05,7.02435e-06,-1.29327e-05,8.99954e-07,-2.00378e-06,0
-3.05986e-05,1.60028e-05,-1.43686e-05,-2.91371e-05,8.42455e-06,-1.56165e-05,4.48776e-06,-1.40634e-06,0
-3.16462e-05,1.85026e-05,-1.40398e-05,-2.56423e-05,7.02821e-06,-1.75745e-05,6.93285e-06,-3.60511e-07,0
-3.18095e-05,2.20042e-05,-1.50301e-05,-6.83056e-06,7.26294e-06,-1.59523e-05,7.64001e-06,1.19013e-06,0
-3.17433e-05,2.4969e-05,-1.5168e-05,1.73813e-05,9.27908e-06,-1.24332e-05,9.30577e-06,2.46184e-06,0
-3.1347e-05,2.62625e-05,-1.59632e-05,3.60863e-05,1.08608e-05,-1.02653e-05,1.14906e-05,2.09058e-06,0
-3.09769e-05,2.84551e-05,-1.55224e-05,4.01174e-05,1.00679e-05,-9.70167e-06,1.22368e-05,6.2149e-07,0
-3.12557e-05,3.12905e-05,-1.18026e-05,3.34032e-05,8.28113e-06,-9.0167e-06,1.16702e-05,-7.81052e-07,0
-2.95578e-05,3.14644e-05,-7.95557e-06,2.54699e-05,7.62943e-06,-6.88643e-06,1.20569e-05,6.13404e-07,0
-2.68122e-05,3.00131e-05,-6.96677e-06,1.21783e-05,6.57365e-06,-5.61443e-06,1.34618e-05,2.77249e-06,0
-2.52468e-05,2.82589e-05,-7.42566e-06,-9.42807e-06,4.48962e-06,-5.42803e-06,1.53025e-05,4.62534e-06,0
-2.44407e-05,2.55409e-05,-6.33074e-06,-3.3249e-05,4.44027e-06,-3.85141e-06,1.70896e-05,6.21974e-06,0
-2.29338e-05,2.13207e-05,-5.86378e-06,-5.58188e-05,8.83674e-06,-1.5762e-06,1.63575e-05,5.40331e-06,0
-2.12384e-05,1.81273e-05,-4.44107e-06,-7.07247e-05,1.4818e-05,-5.37418e-07,1.43589e-05,4.17744e-06,0
-2.10167e-05,1.61078e-05,-1.80809e-06,-7.43512e-05,1.77401e-05,-3.02967e-06,1.36886e-05,2.84662e-06,0
-2.07542e-05,1.33463e-05,-2.56521e-08,-6.8616e-05,1.50179e-05,-5.58562e-06,1.50332e-05,2.49939e-06,0
-2.09283e-05,9.22202e-06,2.40369e-07,-5.68062e-05,1.05433e-05,-5.51447e-06,1.65378e-05,3.12074e-06,0
-2.12738e-05,6.66181e-06,6.03732e-07,-4.54793e-05,8.30974e-06,-3.63784e-06,1.73035e-05,3.72546e-06,0
-2.20673e-05,6.13532e-06,1.14972e-06,-3.43274e-05,8.47738e-06,-2.61091e-06,1.69746e-05,4.04209e-06,0
-2.49117e-05,5.31105e-06,-7.36199e-07,-2.43416e-05,1.05682e-05,-3.01138e-06,1.40292e-05,3.37621e-06,0
-2.77869e-05,3.44443e-06,-4.88994e-06,-1.714e-05,1.20052e-05,-2.27518e-06,1.23517e-05,2.21226e-06,0
-2.87051e-05,1.70908e-06,-9.19192e-06,-1.26191e-05,1.07945e-05,-1.13775e-06,1.72727e-05,2.18943e-06,0
-2.92229e-05,8.01446e-07,-1.19477e-05,-8.33651e-06,8.39354e-06,-7.34638e-07,2.73531e-05,3.55048e-06,0
-3.0141e-05,1.06984e-06,-1.33666e-05,-3.53689e-06,6.06037e-06,-2.03448e-06,3.62923e-05,5.52593e-06,0
-2.98305e-05,3.61323e-06,-1.36479e-05,1.94559e-06,3.70551e-06,-3.32025e-06,3.88327e-05,7.31947e-06,0
-2.8276e-05,1.02985e-05,-1.24295e-05,7.62557e-06,2.44785e-06,-2.77494e-06,3.35163e-05,8.05657e-06,0
-2.68779e-05,1.9923e-05,-1.06671e-05,1.13621e-05,2.03778e-06,-1.35958e-06,2.33286e-05,8.01593e-06,0
-2.63334e-05,2.59428e-05,-9.67066e-06,9.63565e-06,1.64309e-06,-1.18419e-06,1.24532e-05,7.89243e-06,0
-2.56841e-05,2.55432e-05,-8.15039e-06,1.71439e-06,1.12091e-06,-2.12282e-06,2.70131e-06,7.92697e-06,0
-2.36772e-05,2.06371e-05,-5.50175e-06,-8.27945e-06,1.09466e-07,-2.40358e-06,-6.27927e-06,8.27522e-06,0
-2.19062e-05,1.45791e-05,-3.16702e-06,-1.74528e-05,-1.46765e-06,-1.54824e-06,-1.38195e-05,9.27543e-06,0
-2.34738e-05,8.45642e-06,-2.89787e-06,-2.35916e-05,-1.88718e-06,-1.52933e-06,-1.542e-05,9.31162e-06,0
-2.84292e-05,4.03872e-06,-5.26973e-06,-2.63981e-05,-6.74047e-07,-3.19991e-06,-9.60157e-06,7.91985e-06,0
-3.24248e-05,1.24849e-06,-7.32235e-06,-2.54179e-05,9.01582e-07,-5.59282e-06,-1.59564e-06,6.89186e-06,0
-3.37192e-05,-2.89798e-06,-7.4412e-06,-1.96362e-05,1.39203e-06,-7.14649e-06,6.63698e-08,8.35453e-06,0
-3.4731e-05,-9.20264e-06,-7.22175e-06,-1.12656e-05,2.2592e-06,-7.54293e-06,-6.82707e-06,9.2817e-06,0
-3.41074e-05,-1.56294e-05,-6.53002e-06,-4.35016e-06,2.98776e-06,-7.43537e-06,-9.76827e-06,8.39487e-06,0
-3.26268e-05,-1.74789e-05,-8.08081e-06,2.73841e-06,1.97821e-06,-8.73845e-06,-2.4605e-06,6.86641e-06,0
-3.15973e-05,-1.35763e-05,-1.11199e-05,8.90776e-06,1.32284e-06,-9.73811e-06,1.08156e-05,4.82486e-06,0
-3.16719e-05,-6.06835e-06,-1.17772e-05,1.44111e-05,2.53196e-06,-8.4647e-06,2.52486e-05,3.65801e-06,0
-3.38925e-05,3.17688e-07,-8.90207e-06,2.12249e-05,5.86463e-06,-6.77579e-06,3.8586e-05,3.97772e-06,0
-3.62836e-05,1.99117e-06,-6.29675e-06,2.60053e-05,8.73271e-06,-6.49734e-06,5.39643e-05,4.36283e-06,0
-3.65666e-05,9.31948e-07,-6.7591e-06,2.52186e-05,1.01473e-05,-9.18397e-06,6.90271e-05,3.81579e-06,0
-3.60767e-05,5.87695e-07,-8.67645e-06,1.89852e-05,9.92745e-06,-1.06671e-05,7.6862e-05,3.22358e-06,0
-3.46903e-05,9.73093e-07,-1.08569e-05,1.01701e-05,9.60804e-06,-1.01682e-05,7.42171e-05,1.99814e-06,0
-3.17039e-05,1.67818e-06,-1.1466e-05,3.37516e-06,1.10782e-05,-9.36805e-06,6.31337e-05,-7.64261e-08,0
-3.05825e-05,3.03586e-06,-1.08698e-05,1.19238e-06,1.35651e-05,-9.31222e-06,4.75126e-05,-1.04125e-06,0
-3.12982e-05,3.99205e-06,-1.10386e-05,1.68672e-06,1.52696e-05,-9.94687e-06,3.27103e-05,-6.5705e-07,0
-3.25023e-05,3.44003e-06,-1.37427e-05,3.00842e-06,1.62233e-05,-1.16121e-05,1.99599e-05,-2.46505e-07,0
-3.35052e-05,1.88831e-06,-1.71958e-05,3.69088e-06,1.77164e-05,-1.2963e-05,6.44822e-06,4.45507e-07,0
-3.44076e-05,1.20645e-06,-1.96366e-05,2.23135e-06,1.8591e-05,-1.11749e-05,-7.43934e-06,5.68154e-07,0
-3.48562e-05,1.3701e-06,-2.04137e-05,-1.6828e-06,1.84422e-05,-7.61804e-06,-1.8909e-05,-2.29942e-07,0
-3.44005e-05,2.44368e-06,-2.04279e-05,-5.12885e-06,1.78646e-05,-5.32821e-06,-2.56581e-05,-1.29842e-06,0
-3.29658e-05,4.3821e-06,-1.92129e-05,-5.77275e-06,1.79125e-05,-4.87605e-06,-2.67233e-05,-1.9913e-06,0
-3.28182e-05,6.53454e-06,-1.63958e-05,-5.3907e-06,1.85453e-05,-4.54213e-06,-2.19544e-05,-2.85012e-06,0
-3.4034e-05,7.77585e-06,-1.33143e-05,-5.51991e-06,1.82034e-05,-4.09543e-06,-1.46152e-05,-2.98255e-06,0
-3.40731e-05,7.46447e-06,-9.94867e-06,-3.30888e-06,1.61582e-05,-3.49772e-06,-9.65342e-06,-2.12611e-06,0
-3.38767e-05,5.86947e-06,-6.43304e-06,6.62188e-07,1.49953e-05,-4.11578e-06,-7.56656e-06,-2.25054e-06,0
-3.38401e-05,4.74857e-06,-4.22487e-06,2.36019e-06,1.69766e-05,-5.23096e-06,-5.84247e-06,-3.04816e-06,0
-3.44392e-05,3.9377e-06,-3.80013e-06,1.44772e-06,1.97182e-05,-5.85154e-06,-4.47164e-06,-2.49381e-06,0
-3.57684e-05,3.13506e-06,-4.72721e-06,2.83591e-06,2.03788e-05,-4.63871e-06,-2.96255e-06,-7.87912e-07,0
-3.58955e-05,2.63764e-06,-5.5809e-06,1.5658e-05,2.06968e-05,-2.0632e-06,2.10023e-07,1.69715e-08,0
-3.44058e-05,4.60779e-06,-4.40992e-06,3.82559e-05,2.15937e-05,-8.497e-07,4.73106e-06,5.36058e-07,0
-3.38455e-05,7.78373e-06,-2.44767e-06,4.74053e-05,2.14342e-05,-8.30537e-07,7.69236e-06,2.88207e-06,0
-3.43441e-05,1.04161e-05,-1.65924e-06,3.60286e-05,1.98462e-05,-2.36533e-06,9.59435e-06,4.78243e-06,0
-3.35761e-05,1.40835e-05,-1.36732e-06,2.0357e-05,1.86933e-05,-5.52535e-06,1.33299e-05,5.0693e-06,0
-3.20403e-05,1.56007e-05,-8.43519e-07,1.09058e-05,1.8674e-05,-7.56086e-06,1.85198e-05,5.73802e-06,0
-3.10207e-05,1.47842e-05,-2.21878e-06,7.43988e-06,1.85974e-05,-7.68184e-06,2.36468e-05,6.44569e-06,0
-3.0445e-05,1.23124e-05,-3.42155e-06,3.15106e-06,1.68502e-05,-6.87682e-06,2.56118e-05,6.66657e-06,0
-2.99952e-05,1.09186e-05,-2.24626e-06,-2.13657e-06,1.48386e-05,-5.89085e-06,2.32609e-05,6.18709e-06,0
-2.98476e-05,1.01913e-05,-1.05132e-06,-8.14409e-06,1.60523e-05,-5.32512e-06,1.92495e-05,7.012e-06,0
-3.03734e-05,9.39347e-06,-9.54506e-07,-1.58314e-05,1.71785e-05,-6.20242e-06,1.68157e-05,9.89854e-06,0
-3.05295e-05,8.40497e-06,-1.25441e-06,-2.90467e-05,1.6055e-05,-8.41464e-06,1.62947e-05,1.25177e-05,0
-3.06387e-05,8.45724e-06,-2.17723e-06,-4.54065e-05,1.28043e-05,-1.10282e-05,1.58651e-05,1.38968e-05,0
-3.07174e-05,1.32126e-05,-4.07334e-06,-5.34368e-05,8.86359e-06,-1.36893e-05,1.52894e-05,1.45466e-05,0
-3.04263e-05,2.06592e-05,-6.38344e-06,-4.49907e-05,6.70475e-06,-1.47687e-05,1.46095e-05,1.33645e-05,0
-3.04593e-05,2.56602e-05,-8.19662e-06,-2.44456e-05,6.54587e-06,-1.40382e-05,1.40795e-05,1.08278e-05,0
-3.17948e-05,2.51892e-05,-9.86717e-06,-6.29792e-06,5.80583e-06,-1.30462e-05,1.4243e-05,8.69076e-06,0
-3.35873e-05,2.03991e-05,-1.1653e-05,-1.22016e-07,2.17285e-06,-1.35853e-05,1.39552e-05,7.99397e-06,0
-3.41742e-05,1.40118e-05,-1.37212e-05,-5.63188e-06,-1.92646e-06,-1.5757e-05,1.26321e-05,7.91504e-06,0
-3.31268e-05,9.81277e-06,-1.61576e-05,-1.35671e-05,-3.10498e-06,-1.7802e-05,1.10533e-05,7.00644e-06,0
-3.10611e-05,7.68679e-06,-1.74212e-05,-1.92091e-05,-7.6624e-07,-1.7574e-05,1.06812e-05,6.52256e-06,0
-3.00483e-05,6.69462e-06,-1.63391e-05,-2.42813e-05,4.34005e-06,-1.64081e-05,1.1091e-05,7.29095e-06,0
-3.00389e-05,4.39296e-06,-1.29682e-05,-3.21388e-05,1.19284e-05,-1.65173e-05,1.08344e-05,7.43281e-06,0
-2.99264e-05,8.30395e-07,-8.46093e-06,-4.05169e-05,1.95578e-05,-1.83486e-05,1.17099e-05,6.45842e-06,0
-2.93818e-05,-7.08865e-07,-5.02193e-06,-4.07348e-05,2.43916e-05,-2.03833e-05,1.35881e-05,6.58271e-06,0
-2.96356e-05,2.04411e-07,-5.44442e-06,-3.06704e-05,2.53778e-05,-2.10847e-05,1.44716e-05,7.36786e-06,0
-2.91709e-05,2.26437e-06,-7.65867e-06,-1.32658e-05,2.521e-05,-1.99224e-05,1.51059e-05,7.78481e-06,0
-2.71493e-05,5.98828e-06,-8.22432e-06,7.31569e-06,2.78283e-05,-1.70363e-05,1.62996e-05,6.78088e-06,0
-2.70515e-05,1.06855e-05,-7.67329e-06,2.33662e-05,3.16663e-05,-1.64391e-05,1.91656e-05,4.71826e-06,0
-2.94154e-05,1.44231e-05,-8.38319e-06,2.76915e-05,3.16849e-05,-1.74216e-05,2.23869e-05,3.85363e-06,0
-3.14099e-05,1.67299e-05,-1.11059e-05,2.25457e-05,3.11638e-05,-1.53008e-05,2.37851e-05,4.64968e-06,0
-3.14371e-05,1.7595e-05,-1.22499e-05,1.3538e-05,3.19319e-05,-1.3283e-05,2.43181e-05,5.21207e-06,0
-2.99617e-05,1.90195e-05,-1.00805e-05,2.09188e-06,2.93618e-05,-1.45442e-05,2.36236e-05,3.76373e-06,0
-2.89821e-05,2.08146e-05,-7.66261e-06,-4.51903e-06,2.44066e-05,-1.71351e-05,2.19029e-05,5.72346e-07,0
-2.93452e-05,2.21252e-05,-7.21893e-06,-4.56795e-06,2.151e-05,-1.98195e-05,1.95179e-05,-2.60581e-06,0
-2.90316e-05,2.15178e-05,-6.61762e-06,-1.5803e-06,2.40571e-05,-1.98954e-05,1.70875e-05,-5.11964e-06,0
-2.83763e-05,1.90433e-05,-6.23028e-06,-1.95897e-06,2.85864e-05,-1.77421e-05,1.50844e-05,-6.42644e-06,0
-2.75554e-05,1.71943e-05,-7.45507e-06,-6.7912e-06,2.97868e-05,-1.50099e-05,1.39246e-05,-4.94916e-06,0
-2.67341e-05,1.65967e-05,-9.09063e-06,-1.05404e-05,2.8116e-05,-1.25742e-05,1.38008e-05,-2.67539e-06,0
-2.62824e-05,1.55784e-05,-1.01881e-05,-9.70333e-06,2.68424e-05,-1.10241e-05,1.34907e-05,-3.07091e-06,0
-2.59356e-05,1.35642e-05,-1.03017e-05,-4.01105e-06,2.64718e-05,-9.08514e-06,1.33533e-05,-6.36043e-06,0
-2.55651e-05,1.2044e-05,-9.6964e-06,2.64877e-06,2.56788e-05,-6.73379e-06,1.39104e-05,-8.7855e-06,0
-2.55833e-05,9.93277e-06,-8.3661e-06,7.30179e-06,2.46365e-05,-5.99067e-06,1.47302e-05,-7.78801e-06,0
-2.63913e-05,7.23502e-06,-7.70878e-06,7.15879e-06,2.28551e-05,-7.42607e-06,1.42072e-05,-6.16423e-06,0
-2.63608e-05,6.1139e-06,-7.68279e-06,4.94858e-06,1.94225e-05,-8.60801e-06,1.23313e-05,-6.65417e-06,0
-2.48589e-05,7.20341e-06,-7.18741e-06,4.11996e-06,1.56032e-05,-8.22023e-06,1.01398e-05,-7.84539e-06,0
-2.38275e-05,8.52319e-06,-7.01107e-06,4.49461e-06,1.31977e-05,-6.56202e-06,8.17425e-06,-8.30762e-06,0
-2.47926e-05,7.27219e-06,-8.41288e-06,1.42668e-06,1.17522e-05,-4.50093e-06,7.57848e-06,-8.3796e-06,0
-2.63803e-05,4.78571e-06,-9.56425e-06,-4.82605e-06,1.12882e-05,-3.68115e-06,7.90191e-06,-7.892e-06,0
-2.70769e-05,4.4171e-06,-9.50738e-06,-9.31812e-06,1.24331e-05,-5.94558e-06,7.76058e-06,-7.34415e-06,0
-2.6292e-05,5.49627e-06,-9.2705e-06,-8.50177e-06,1.25587e-05,-9.06174e-06,7.3701e-06,-6.27457e-06,0
-2.54186e-05,7.29905e-06,-9.15803e-06,-4.92818e-06,1.08024e-05,-1.03649e-05,7.78299e-06,-3.72231e-06,0
-2.45088e-05,9.70285e-06,-9.03059e-06,-1.86461e-06,1.10534e-05,-1.00899e-05,9.22413e-06,-1.06669e-06,0
-2.48347e-05,9.64436e-06,-9.45807e-06,-2.54617e-06,1.30414e-05,-9.78332e-06,1.037e-05,-7.77786e-07,0
-2.73814e-05,7.86751e-06,-1.03995e-05,-4.44932e-06,1.43257e-05,-1.02948e-05,1.10274e-05,-2.67303e-06,0
-2.95862e-05,7.19144e-06,-1.16449e-05,-4.42865e-06,1.3293e-05,-1.09035e-05,1.24905e-05,-3.27629e-06,0
-3.04703e-05,7.3701e-06,-1.25273e-05,-5.93338e-06,1.17098e-05,-9.60376e-06,1.40176e-05,-2.06415e-06,0
-3.09574e-05,9.03703e-06,-1.19445e-05,-6.11597e-06,1.19437e-05,-7.97915e-06,1.39973e-05,3.02357e-07,0
-3.06086e-05,1.17751e-05,-1.16808e-05,-5.58988e-06,1.15276e-05,-8.40014e-06,1.33979e-05,2.41208e-06,0
-2.86397e-05,1.33952e-05,-1.15476e-05,-5.22839e-06,1.17187e-05,-8.49905e-06,1.20653e-05,2.58749e-06,0
-2.63284e-05,1.33885e-05,-1.1154e-05,-3.37569e-06,1.22326e-05,-7.44159e-06,1.02084e-05,2.26294e-06,0
-2.50566e-05,1.18148e-05,-1.06349e-05,-1.51442e-06,1.11398e-05,-8.25515e-06,9.05881e-06,1.43475e-06,0
-2.55631e-05,1.07819e-05,-1.07911e-05,-1.44002e-07,9.68462e-06,-1.09898e-05,8.98385e-06,-1.40646e-06,0
-2.77129e-05,1.23174e-05,-1.16038e-05,5.58418e-07,8.43622e-06,-1.07817e-05,9.97655e-06,-4.37217e-06,0
-2.95119e-05,1.57336e-05,-1.24814e-05,6.73029e-07,6.6641e-06,-8.51023e-06,1.07719e-05,-5.46014e-06,0
-2.89796e-05,1.69865e-05,-1.1907e-05,-1.22967e-06,4.18843e-06,-7.21441e-06,1.03286e-05,-5.82177e-06,0
-2.86715e-05,1.59931e-05,-1.15848e-05,-5.12618e-06,2.3448e-06,-8.07449e-06,8.86305e-06,-5.37406e-06,0
-3.06702e-05,1.55538e-05,-1.36883e-05,-8.50463e-06,2.2247e-06,-1.07389e-05,8.09723e-06,-4.86282e-06,0
-3.24507e-05,1.63557e-05,-1.57124e-05,-1.02139e-05,2.62091e-06,-1.29271e-05,7.44718e-06,-5.72453e-06,0
-3.21142e-05,1.81229e-05,-1.62893e-05,-1.14588e-05,2.3798e-06,-1.43979e-05,6.57456e-06,-7.37536e-06,0
-3.14056e-05,1.85386e-05,-1.54397e-05,-1.41775e-05,2.56264e-06,-1.57445e-05,6.96016e-06,-7.6153e-06,0
-3.12065e-05,1.66092e-05,-1.43356e-05,-1.60557e-05,3.02465e-06,-1.72956e-05,1.00159e-05,-5.82794e-06,0
-3.10215e-05,1.39466e-05,-1.27808e-05,-1.49901e-05,2.40968e-06,-1.79599e-05,1.44838e-05,-4.31492e-06,0
-3.14894e-05,1.28469e-05,-1.03508e-05,-1.29961e-05,4.52204e-07,-1.74378e-05,1.89459e-05,-4.65979e-06,0
-3.21037e-05,1.24002e-05,-8.20668e-06,-1.22683e-05,-1.62967e-06,-1.6776e-05,2.34105e-05,-5.78626e-06,0
-3.14097e-05,1.15624e-05,-7.6862e-06,-1.04392e-05,-1.95804e-06,-1.63904e-05,2.66567e-05,-6.34177e-06,0
-3.08901e-05,1.09157e-05,-6.60994e-06,-5.82305e-06,-1.73072e-08,-1.53593e-05,2.6952e-05,-6.3692e-06,0
-3.13024e-05,1.19617e-05,-3.89639e-06,8.06981e-07,3.78119e-06,-1.32204e-05,2.42998e-05,-4.36098e-06,0
-3.15962e-05,1.27133e-05,-1.6657e-06,4.22993e-06,8.67428e-06,-1.04285e-05,2.06142e-05,-2.13083e-06,0
-3.14472e-05,1.16949e-05,-1.79442e-06,1.77137e-06,1.09699e-05,-9.23858e-06,1.79402e-05,-1.74909e-06,0
-3.21354e-05,1.20003e-05,-2.74123e-06,-2.59953e-06,9.06731e-06,-1.04846e-05,1.77068e-05,-1.74166e-06,0
-3.27479e-05,1.48312e-05,-1.75005e-06,-5.44311e-06,7.41767e-06,-1.09486e-05,1.63737e-05,-1.32871e-06,0
-3.21488e-05,1.69956e-05,-5.01383e-07,-6.71147e-06,1.06589e-05,-1.03301e-05,9.31977e-06,-3.7497e-07,0
-3.24111e-05,1.73195e-05,-3.13181e-06,-5.96424e-06,1.46215e-05,-1.08262e-05,4.97191e-07,1.02003e-06,0
-3.31462e-05,1.79204e-05,-7.61589e-06,-4.11268e-06,1.50552e-05,-1.01059e-05,-4.53606e-06,2.41787e-06,0
-3.38862e-05,1.88132e-05,-1.03403e-05,-4.18387e-06,1.50931e-05,-7.55392e-06,-3.6949e-06,2.27983e-06,0
-3.23659e-05,1.97211e-05,-1.01406e-05,-3.49816e-06,1.5376e-05,-6.37717e-06,1.19817e-07,2.8289e-06,0
-3.01788e-05,2.00094e-05,-8.75264e-06,-9.6463e-07,1.47558e-05,-6.62723e-06,1.22157e-06,4.00695e-06,0
-3.04537e-05,2.03889e-05,-8.95805e-06,2.84064e-06,1.28929e-05,-8.1456e-06,-1.49894e-07,4.58401e-06,0
-3.18732e-05,2.07896e-05,-8.82157e-06,5.99201e-06,1.04181e-05,-8.78131e-06,-2.28137e-06,4.64804e-06,0
-3.2437e-05,2.11878e-05,-6.92255e-06,6.51808e-06,1.01174e-05,-8.50125e-06,-2.56549e-06,3.59071e-06,0
-3.1624e-05,2.13325e-05,-9.8316e-07,3.43399e-06,1.10001e-05,-8.4886e-06,5.75456e-08,2.57232e-06,0
-3.04406e-05,2.18112e-05,6.63036e-06,-1.22234e-06,1.1318e-05,-9.51252e-06,5.40308e-06,1.78249e-06,0
-2.97663e-05,2.39137e-05,1.63072e-05,-3.98011e-06,1.11787e-05,-9.96057e-06,1.03363e-05,1.95721e-06,0
-2.92052e-05,2.78595e-05,3.17926e-05,-5.28655e-06,1.08276e-05,-8.44675e-06,1.3138e-05,2.46758e-06,0
-2.8012e-05,3.23613e-05,5.23451e-05,-8.86433e-06,1.05302e-05,-6.99055e-06,1.43012e-05,2.93456e-06,0
-2.73968e-05,3.39897e-05,7.15035e-05,-2.14167e-05,1.03137e-05,-6.43159e-06,1.44943e-05,3.21411e-06,0
-2.84205e-05,3.12565e-05,7.89529e-05,-4.18645e-05,1.08787e-05,-6.30898e-06,1.56874e-05,3.26727e-06,0
-3.06292e-05,2.53256e-05,6.70245e-05,-5.94007e-05,1.2714e-05,-6.00583e-06,1.75801e-05,2.33983e-06,0
-3.09037e-05,1.91962e-05,3.63436e-05,-6.49363e-05,1.46526e-05,-6.02663e-06,1.97686e-05,1.21664e-06,0
-2.94297e-05,1.47841e-05,-4.12014e-06,-5.89634e-05,1.4821e-05,-6.17253e-06,2.1882e-05,1.3738e-06,0
-2.8682e-05,1.18139e-05,-4.42798e-05,-4.69785e-05,1.39326e-05,-7.66973e-06,2.35435e-05,1.76749e-06,0
-3.00134e-05,8.83926e-06,-7.59929e-05,-3.10941e-05,1.21378e-05,-1.01354e-05,2.27145e-05,8.63842e-07,0
-3.25843e-05,7.8653e-06,-9.41911e-05,-8.95323e-06,1.12117e-05,-1.16921e-05,2.07612e-05,-9.18672e-07,0
-3.47295e-05,9.73917e-06,-9.58246e-05,1.62382e-05,1.25024e-05,-1.05786e-05,1.91925e-05,-1.9658e-06,0
-3.69752e-05,1.18951e-05,-8.25385e-05,3.4958e-05,1.30055e-05,-7.77108e-06,1.75204e-05,-2.77899e-06,0
-3.79979e-05,1.3087e-05,-6.12248e-05,3.75858e-05,1.08557e-05,-5.96891e-06,1.47572e-05,-2.96489e-06,0
-3.50143e-05,1.48773e-05,-4.38368e-05,2.53849e-05,1.01375e-05,-6.38407e-06,1.10728e-05,-1.80298e-06,0
-3.12457e-05,1.8265e-05,-3.2749e-05,1.3367e-05,1.18077e-05,-6.23403e-06,8.6909e-06,8.04327e-07,0
-3.14435e-05,2.02941e-05,-2.33777e-05,4.71587e-06,1.22824e-05,-5.47612e-06,9.82181e-06,3.38254e-06,0
-3.35241e-05,2.03245e-05,-1.58561e-05,-2.78812e-06,1.32802e-05,-4.27392e-06,1.16239e-05,4.83016e-06,0
-3.46008e-05,2.02958e-05,-1.19421e-05,-1.17075e-05,1.64578e-05,-2.57928e-06,1.23917e-05,6.5318e-06,0
-3.49036e-05,1.85006e-05,-1.1294e-05,-2.21123e-05,1.98256e-05,-3.41152e-06,1.33186e-05,8.24809e-06,0
-3.40917e-05,1.50549e-05,-9.73037e-06,-2.88103e-05,2.2497e-05,-5.07515e-06,1.41017e-05,9.089e-06,0
-3.33985e-05,1.25882e-05,-8.40465e-06,-3.22775e-05,2.49754e-05,-5.30291e-06,1.44599e-05,9.47481e-06,0
-3.26175e-05,1.11728e-05,-1.14758e-05,-2.55413e-05,2.72762e-05,-4.81341e-06,1.06254e-05,8.72652e-06,0
-3.11977e-05,1.0309e-05,-1.65009e-05,-9.56689e-06,2.89306e-05,-5.34409e-06,6.20242e-06,6.09607e-06,0
-3.10264e-05,8.87787e-06,-1.90757e-05,8.28544e-06,2.76557e-05,-5.72536e-06,5.51421e-06,3.58314e-06,0
-3.1574e-05,7.27552e-06,-1.80818e-05,2.78601e-05,2.28209e-05,-6.16046e-06,7.838e-06,2.2204e-06,0
-3.28005e-05,5.74313e-06,-1.44633e-05,4.54954e-05,1.76249e-05,-6.65453e-06,1.03479e-05,1.88767e-06,0
-3.33184e-05,4.69139e-06,-1.05813e-05,5.21406e-05,1.49229e-05,-7.68147e-06,1.18658e-05,1.58465e-06,0
-3.24699e-05,5.13447e-06,-8.88945e-06,4.33852e-05,1.48256e-05,-1.05715e-05,1.32471e-05,-3.53486e-07,0
-3.07851e-05,7.2343e-06,-9.46997e-06,2.29114e-05,1.52676e-05,-1.43066e-05,1.41655e-05,-2.13751e-06,0
-2.99812e-05,9.53492e-06,-9.55685e-06,-1.89303e-06,1.60025e-05,-1.6673e-05,1.49062e-05,-2.93088e-06,0
-3.0908e-05,1.03036e-05,-7.4095e-06,-2.6163e-05,1.78619e-05,-1.68968e-05,1.50979e-05,-3.01351e-06,0
-3.17358e-05,1.00657e-05,-4.99401e-06,-4.5605e-05,1.85933e-05,-1.57895e-05,1.53346e-05,-3.18885e-06,0
-3.08537e-05,1.03797e-05,-4.80542e-06,-4.97879e-05,1.71704e-05,-1.41222e-05,1.68543e-05,-3.30273e-06,0
-2.90067e-05,1.09667e-05,-6.33797e-06,-3.58377e-05,1.73009e-05,-1.24639e-05,2.0001e-05,-2.22227e-06,0
-2.88936e-05,1.09339e-05,-7.60596e-06,-1.40029e-05,2.0374e-05,-1.04201e-05,2.21987e-05,1.6202e-07,0
-3.02779e-05,1.09209e-05,-6.76232e-06,3.86899e-06,2.29541e-05,-8.13623e-06,2.22132e-05,2.49253e-06,0
-3.1033e-05,1.19152e-05,-4.97278e-06,1.56693e-05,2.29036e-05,-5.72003e-06,2.07592e-05,3.33787e-06,0
-3.08411e-05,1.30867e-05,-4.24089e-06,2.02518e-05,2.05185e-05,-3.80728e-06,1.71227e-05,2.76167e-06,0
-3.04239e-05,1.38163e-05,-4.49069e-06,1.53279e-05,1.80936e-05,-1.29205e-06,8.60913e-06,2.56897e-06,0
-2.92813e-05,1.52294e-05,-5.47533e-06,4.69602e-06,1.69787e-05,3.64511e-07,-2.49343e-06,4.6915e-06,0
-2.83403e-05,1.59362e-05,-4.90585e-06,-5.22525e-06,1.63358e-05,-1.22857e-06,-9.69203e-06,7.2811e-06,0
-2.7938e-05,1.59491e-05,-1.71053e-06,-1.05637e-05,1.46023e-05,-3.52335e-06,-1.45426e-05,6.88189e-06,0
-2.80787e-05,1.74507e-05,1.14296e-06,-8.43386e-06,1.31804e-05,-4.23814e-06,-1.98148e-05,5.1832e-06,0
-2.85545e-05,1.7139e-05,3.34522e-06,-9.59733e-07,1.4239e-05,-2.05915e-06,-1.63419e-05,4.1624e-06,0
-2.76251e-05,1.34687e-05,4.26701e-06,6.85936e-06,1.54417e-05,1.10984e-06,-3.11127e-06,1.64831e-06,0
-2.6499e-05,1.00694e-05,4.3471e-06,1.31098e-05,1.49253e-05,2.10111e-06,1.30453e-05,1.21402e-08,0
-2.63473e-05,1.02596e-05,4.75647e-06,1.43006e-05,1.16669e-05,1.47255e-06,2.82601e-05,2.4011e-06,0
-2.61314e-05,1.37825e-05,3.1873e-06,1.14633e-05,8.38784e-06,4.18356e-07,3.56626e-05,4.4355e-06,0
-2.52441e-05,1.48546e-05,1.31169e-06,7.49044e-06,8.02815e-06,-2.7861e-07,3.4918e-05,2.36098e-06,0
-2.42686e-05,1.38968e-05,1.43835e-06,2.68217e-06,1.04962e-05,-7.34979e-07,3.14885e-05,7.29732e-07,0
-2.47736e-05,1.20481e-05,3.25841e-06,4.16381e-07,1.3075e-05,-1.22653e-06,2.99434e-05,1.10391e-06,0
-2.66851e-05,1.0804e-05,4.26512e-06,2.21745e-07,1.15217e-05,-3.17713e-06,2.60004e-05,1.7311e-06,0
-2.8164e-05,1.12338e-05,4.05383e-06,-2.26664e-07,7.75301e-06,-5.8331e-06,1.16075e-05,5.34634e-07,0
-2.89298e-05,1.14712e-05,4.55528e-06,-1.12178e-06,5.6794e-06,-7.51028e-06,-8.66251e-06,-1.4915e-07,0
-2.93915e-05,1.06032e-05,5.31945e-06,-3.86667e-06,5.86105e-06,-9.77804e-06,-2.04579e-05,8.54535e-07,0
-2.87232e-05,1.00399e-05,4.58896e-06,-7.65825e-06,5.49128e-06,-1.28287e-05,-1.6591e-05,1.49511e-06,0
-2.7824e-05,1.16695e-05,6.08629e-07,-9.40302e-06,3.89976e-06,-1.45926e-05,-2.74409e-06,2.09501e-06,0
-2.80425e-05,1.26034e-05,-4.39414e-06,-7.45939e-06,3.1187e-06,-1.44293e-05,1.32056e-05,2.35028e-06,0
-2.87888e-05,9.95598e-06,-7.07517e-06,-4.50034e-06,3.47807e-06,-1.38881e-05,2.72151e-05,2.34291e-06,0
-2.91448e-05,4.7668e-06,-7.59749e-06,-5.59725e-06,3.00977e-06,-1.30975e-05,3.6842e-05,1.28064e-06,0
-2.94376e-05,1.49331e-06,-8.44234e-06,-1.32066e-05,1.20938e-06,-1.20325e-05,4.09693e-05,1.6881e-07,0
-2.97081e-05,5.19601e-07,-1.16734e-05,-2.19251e-05,-8.49708e-08,-1.144e-05,4.03264e-05,5.80622e-07,0
-2.98861e-05,1.06679e-06,-1.70344e-05,-2.59007e-05,9.46767e-07,-1.19737e-05,3.71239e-05,2.60596e-06,0
-3.06188e-05,2.8778e-06,-2.04721e-05,-2.24367e-05,4.59217e-06,-1.25614e-05,3.23664e-05,3.48888e-06,0
-3.13588e-05,5.95804e-06,-1.89034e-05,-1.10495e-05,9.58584e-06,-1.21589e-05,2.63522e-05,1.19864e-06,0
-3.13122e-05,9.69076e-06,-1.66042e-05,1.2572e-06,1.43163e-05,-1.04861e-05,2.11928e-05,-2.64798e-06,0
-3.05647e-05,1.3219e-05,-1.83248e-05,7.3565e-06,1.68652e-05,-8.22682e-06,1.77934e-05,-3.32877e-06,0
-2.98425e-05,1.39174e-05,-2.07405e-05,5.74902e-06,1.58766e-05,-8.11e-06,1.38789e-05,-1.37152e-06,0
-3.07916e-05,1.17034e-05,-2.07228e-05,-4.31875e-07,1.06405e-05,-1.08441e-05,1.06851e-05,7.61837e-07,0
-3.24922e-05,8.45239e-06,-1.97641e-05,-7.22184e-06,5.07102e-06,-1.38925e-05,1.1576e-05,1.15912e-07,0
-3.24897e-05,6.54823e-06,-1.69042e-05,-1.34553e-05,3.21377e-06,-1.5716e-05,1.11386e-05,-1.2253e-06,0
-3.15648e-05,8.37323e-06,-1.33749e-05,-1.60575e-05,3.60333e-06,-1.63143e-05,-1.33894e-06,1.99511e-07,0
-3.05908e-05,1.13276e-05,-1.19519e-05,-1.28873e-05,4.82211e-06,-1.57476e-05,-2.31684e-05,1.11787e-07,0
-2.9623e-05,1.42767e-05,-1.12543e-05,-5.12811e-06,6.50611e-06,-1.49876e-05,-3.90481e-05,-1.68998e-06,0
-2.93214e-05,1.69716e-05,-1.00283e-05,5.55454e-07,7.38656e-06,-1.43885e-05,-3.83731e-05,-4.19846e-06,0
-2.9201e-05,1.83324e-05,-7.77708e-06,9.63853e-07,7.34928e-06,-1.46833e-05,-2.35345e-05,-5.1665e-06,0
-2.88824e-05,1.93531e-05,-6.44488e-06,-6.05486e-07,8.50451e-06,-1.52014e-05,-4.4089e-06,-3.93707e-06,0
-2.95724e-05,2.01628e-05,-5.97348e-06,-1.40994e-06,1.02272e-05,-1.45721e-05,1.30028e-05,-1.7659e-06,0
-3.06308e-05,2.00034e-05,-3.61503e-06,-5.94454e-06,9.7889e-06,-1.33367e-05,2.62779e-05,-5.92674e-07,0
-3.07976e-05,1.98171e-05,-1.79137e-06,-1.86814e-05,7.32574e-06,-1.28169e-05,3.42306e-05,-1.4948e-06,0
-2.99699e-05,1.97942e-05,-1.85403e-06,-3.20922e-05,3.35918e-06,-1.35976e-05,3.63493e-05,-3.08357e-06,0
-2.89845e-05,1.95148e-05,-2.78264e-06,-3.56807e-05,1.47172e-06,-1.53266e-05,3.7897e-05,-4.48987e-06,0
-2.85445e-05,1.87685e-05,-3.24715e-06,-2.70804e-05,3.70034e-06,-1.73298e-05,4.50201e-05,-6.03174e-06,0
-2.88518e-05,1.88427e-05,-2.13497e-06,-1.4556e-05,7.32663e-06,-1.80763e-05,5.54259e-05,-7.08392e-06,0
-3.0337e-05,1.97693e-05,-4.38791e-07,-5.76243e-06,8.37106e-06,-1.75182e-05,6.27067e-05,-6.28246e-06,0
-3.26881e-05,1.99997e-05,1.19718e-06,-1.51687e-06,6.19337e-06,-1.7127e-05,6.35852e-05,-5.48319e-06,0
-3.39606e-05,1.90353e-05,1.93937e-06,4.67046e-06,4.32411e-06,-1.78797e-05,5.87321e-05,-6.09653e-06,0
-3.3202e-05,1.70618e-05,1.73295e-08,1.53521e-05,3.52122e-06,-1.91743e-05,5.01722e-05,-6.56833e-06,0
-3.28973e-05,1.46692e-05,-4.48505e-06,2.37694e-05,3.10619e-06,-1.95875e-05,3.92101e-05,-5.1423e-06,0
-3.4609e-05,1.27559e-05,-8.89923e-06,2.33766e-05,4.05694e-06,-1.81535e-05,2.64639e-05,-2.90247e-06,0
-3.60146e-05,1.14407e-05,-1.09217e-05,1.7519e-05,8.5628e-06,-1.60707e-05,1.30263e-05,-1.52674e-06,0
-3.48557e-05,1.03976e-05,-9.66469e-06,1.33078e-05,1.60662e-05,-1.47146e-05,-9.46149e-07,-9.05126e-07,0
-3.26074e-05,9.32846e-06,-6.73644e-06,1.34834e-05,2.44267e-05,-1.46742e-05,-1.23057e-05,-6.8209e-07,0
-3.14884e-05,1.12279e-05,-4.149e-06,1.61589e-05,3.12072e-05,-1.58651e-05,-1.90452e-05,-1.17302e-06,0
-3.22663e-05,1.58469e-05,-2.88618e-06,1.50461e-05,3.18571e-05,-1.61098e-05,-2.14265e-05,-1.4508e-06,0
-3.29464e-05,1.9604e-05,-3.4201e-06,9.20015e-06,2.93793e-05,-1.32908e-05,-2.00457e-05,-9.58604e-07,0
-3.24506e-05,2.21837e-05,-5.38832e-06,3.66092e-06,2.93613e-05,-8.09223e-06,-1.60571e-05,8.91782e-07,0
-3.10332e-05,2.27042e-05,-6.35459e-06,-2.44732e-06,2.88649e-05,-5.27281e-06,-9.55553e-06,1.40721e-06,0
-3.02717e-05,2.14702e-05,-5.70376e-06,-7.94869e-06,2.66908e-05,-5.61209e-06,-3.19776e-06,1.24097e-06,0
-3.07311e-05,1.90606e-05,-5.61569e-06,-1.18418e-05,2.29322e-05,-5.38275e-06,5.95676e-07,2.18532e-06,0
-3.09068e-05,1.64126e-05,-5.73836e-06,-1.65733e-05,2.0635e-05,-3.95042e-06,3.48879e-06,2.4613e-06,0
-3.13352e-05,1.39921e-05,-5.70193e-06,-1.63382e-05,2.1132e-05,-2.53741e-06,6.82235e-06,3.1181e-06,0
-3.03136e-05,1.27056e-05,-5.16227e-06,-1.18265e-05,2.07782e-05,-2.77947e-06,9.00505e-06,3.58881e-06,0
-2.81688e-05,1.35527e-05,-3.61482e-06,-1.13189e-05,1.91072e-05,-3.9031e-06,9.60835e-06,4.62959e-06,0
-2.71244e-05,1.50173e-05,-1.88147e-06,-1.61375e-05,1.93547e-05,-4.75357e-06,9.15634e-06,6.32151e-06,0
-2.7399e-05,1.52793e-05,-2.63462e-06,-2.11401e-05,2.35826e-05,-5.44834e-06,9.15065e-06,8.28933e-06,0
-2.84061e-05,1.46299e-05,-5.22476e-06,-2.26154e-05,2.78151e-05,-6.19466e-06,9.7826e-06,9.00364e-06,0
-2.9534e-05,1.44598e-05,-6.81081e-06,-2.00763e-05,2.87486e-05,-8.23171e-06,1.04578e-05,8.37512e-06,0
-2.92206e-05,1.51017e-05,-6.81006e-06,-1.7337e-05,2.6025e-05,-9.10946e-06,1.21537e-05,8.36907e-06,0
-2.85401e-05,1.73726e-05,-7.33459e-06,-1.85447e-05,2.20571e-05,-7.2828e-06,1.42794e-05,9.29177e-06,0
-2.98942e-05,2.0312e-05,-8.75846e-06,-2.31173e-05,1.92453e-05,-4.26445e-06,1.54102e-05,1.05824e-05,0
-3.18947e-05,2.23195e-05,-9.27596e-06,-2.59864e-05,1.87887e-05,-1.86155e-06,1.5414e-05,1.18189e-05,0
-3.32043e-05,2.29898e-05,-8.07878e-06,-2.38664e-05,1.99752e-05,-1.7907e-06,1.56394e-05,1.17278e-05,0
-3.30068e-05,2.28951e-05,-5.87088e-06,-1.90886e-05,2.00875e-05,-3.53186e-06,1.68182e-05,9.60753e-06,0
-3.2288e-05,2.28198e-05,-5.26692e-06,-1.54629e-05,1.79428e-05,-5.4935e-06,1.67356e-05,7.61095e-06,0
-3.17031e-05,2.2658e-05,-6.5633e-06,-1.4982e-05,1.55115e-05,-7.02136e-06,1.28385e-05,6.2473e-06,0
-3.11118e-05,2.09259e-05,-8.26765e-06,-1.67204e-05,1.33567e-05,-8.20575e-06,6.65981e-06,4.98325e-06,0
-3.10055e-05,1.81787e-05,-8.51558e-06,-1.88073e-05,1.06457e-05,-9.55519e-06,1.69878e-06,3.51721e-06,0
-3.08848e-05,1.69665e-05,-7.43231e-06,-1.83096e-05,9.82602e-06,-1.08329e-05,-3.82949e-07,2.47112e-06,0
-2.97897e-05,2.02378e-05,-5.93537e-06,-1.35802e-05,1.1115e-05,-9.84244e-06,1.61384e-06,2.49984e-06,0
-2.93549e-05,2.77227e-05,-5.50162e-06,-7.7981e-06,1.31889e-05,-7.77828e-06,7.69375e-06,3.2066e-06,0
-3.12153e-05,3.18476e-05,-5.4891e-06,-4.39258e-06,1.52162e-05,-6.99993e-06,1.25379e-05,3.50816e-06,0
-3.31633e-05,2.98454e-05,-4.38651e-06,-1.95635e-06,1.59223e-05,-8.27565e-06,1.47146e-05,3.83326e-06,0
-3.26126e-05,2.68106e-05,-3.08835e-06,-1.31858e-06,1.48668e-05,-9.06212e-06,1.62137e-05,3.33926e-06,0
-3.0901e-05,2.38184e-05,-3.35846e-06,-3.50376e-06,1.22907e-05,-7.45048e-06,1.60729e-05,3.32904e-06,0
-2.89855e-05,1.87249e-05,-5.66743e-06,-4.06533e-06,1.00638e-05,-6.20117e-06,1.35789e-05,4.93568e-06,0
-2.7602e-05,1.37801e-05,-9.72709e-06,-2.967e-06,9.39264e-06,-5.15402e-06,8.85379e-06,6.14653e-06,0
-2.81574e-05,7.83835e-06,-1.39748e-05,-4.26765e-06,9.08663e-06,-4.29795e-06,3.18972e-06,7.48357e-06,0
-2.9305e-05,1.23208e-06,-1.84383e-05,-6.05775e-06,8.37802e-06,-3.99134e-06,-1.21252e-06,7.32469e-06,0
-2.92541e-05,-2.71648e-06,-2.1775e-05,-6.89249e-06,9.1735e-06,-2.32802e-06,-1.19521e-06,5.11962e-06,0
-2.74351e-05,-6.11057e-06,-2.22534e-05,-6.88722e-06,1.08726e-05,-1.56887e-07,8.98134e-07,4.30504e-06,0
-2.60639e-05,-8.48658e-06,-2.26641e-05,-4.33253e-06,9.87585e-06,2.327e-07,9.12043e-07,4.60688e-06,0
-2.58555e-05,-6.83626e-06,-2.29079e-05,-1.00573e-08,7.32343e-06,-6.78714e-07,-9.88647e-07,3.48926e-06,0
-2.74064e-05,-2.69264e-06,-2.21442e-05,6.06716e-06,6.90164e-06,-6.68914e-07,-3.71667e-06,2.28789e-06,0
-3.02221e-05,1.55393e-06,-1.94109e-05,1.38891e-05,8.22058e-06,4.30099e-07,-6.75389e-06,2.70001e-06,0
-3.16336e-05,4.56168e-06,-1.52329e-05,2.04451e-05,9.288e-06,1.15235e-06,-9.80367e-06,3.02995e-06,0
-3.04384e-05,6.21905e-06,-1.14752e-05,2.21338e-05,9.71795e-06,1.2042e-06,-9.95334e-06,1.86272e-06,0
-2.85562e-05,8.07823e-06,-8.92356e-06,1.81189e-05,1.04137e-05,1.53779e-06,-5.90485e-06,3.38255e-07,0
-2.81618e-05,8.6729e-06,-7.08275e-06,1.14428e-05,1.19585e-05,2.85683e-06,-1.07607e-06,2.8349e-07,0
-2.85672e-05,6.89173e-06,-6.58066e-06,6.20908e-06,1.392e-05,4.17458e-06,1.86749e-06,8.29693e-07,0
-2.88216e-05,4.91842e-06,-8.0002e-06,3.73837e-06,1.56422e-05,4.73066e-06,4.43727e-06,7.41805e-07,0
-2.84642e-05,3.69553e-06,-1.1139e-05,4.43915e-06,1.61347e-05,4.12874e-06,8.55207e-06,3.88297e-07,0
-2.90876e-05,1.9716e-06,-1.42104e-05,9.34245e-06,1.61083e-05,2.6099e-06,1.37773e-05,-5.09782e-07,0
-3.16562e-05,1.35779e-06,-1.46481e-05,1.63171e-05,1.73079e-05,1.1731e-06,1.82415e-05,-2.60588e-06,0
-3.48257e-05,3.39449e-06,-1.43593e-05,2.21755e-05,1.95178e-05,-6.52104e-07,1.96227e-05,-5.23353e-06,0
-3.63407e-05,5.93014e-06,-1.36607e-05,2.43055e-05,2.08132e-05,-2.68405e-06,1.86141e-05,-6.93744e-06,0
-3.58273e-05,7.98647e-06,-9.63676e-06,1.99913e-05,1.96282e-05,-2.99208e-06,1.75834e-05,-7.80249e-06,0
-3.44595e-05,1.10969e-05,-3.37837e-06,1.03458e-05,1.72094e-05,-2.89406e-06,1.58978e-05,-7.60565e-06,0
-3.20384e-05,1.24228e-05,3.23212e-06,-1.76934e-07,1.54441e-05,-4.51121e-06,1.28854e-05,-7.14046e-06,0
-2.95376e-05,1.56815e-05,1.29873e-05,-8.81477e-06,1.45476e-05,-6.63743e-06,1.04162e-05,-6.38453e-06,0
-2.85567e-05,3.07571e-05,3.07411e-05,-1.61884e-05,1.51858e-05,-8.1691e-06,9.27602e-06,-4.97887e-06,0
-2.81219e-05,4.67706e-05,5.27408e-05,-1.82264e-05,1.66699e-05,-8.6689e-06,9.06292e-06,-4.24902e-06,0
-2.74696e-05,5.33183e-05,6.71453e-05,-1.34985e-05,1.7996e-05,-8.12013e-06,9.95773e-06,-4.1799e-06,0
-2.7806e-05,5.20539e-05,6.6565e-05,-1.02837e-05,1.92511e-05,-7.16289e-06,1.20773e-05,-3.84325e-06,0
-2.80199e-05,4.19025e-05,4.77085e-05,-1.246e-05,1.88414e-05,-9.02285e-06,1.34428e-05,-2.11561e-06,0
-2.72084e-05,2.69849e-05,1.41992e-05,-1.7855e-05,1.53954e-05,-1.22014e-05,1.3905e-05,7.73002e-07,0
-2.61738e-05,1.20862e-05,-2.53097e-05,-2.52332e-05,1.10002e-05,-1.39082e-05,1.53323e-05,2.77871e-06,0
-2.56869e-05,-9.02468e-07,-6.1423e-05,-3.66481e-05,6.96983e-06,-1.58433e-05,1.63367e-05,2.37956e-06,0
-2.64085e-05,-1.17266e-05,-8.65369e-05,-4.39591e-05,3.79486e-06,-1.76411e-05,1.5643e-05,7.99796e-07,0
-2.72224e-05,-1.78795e-05,-9.54362e-05,-3.75749e-05,5.27474e-07,-1.80572e-05,1.29718e-05,-9.42058e-07,0
-2.80779e-05,-1.96486e-05,-8.73179e-05,-2.17637e-05,-2.21195e-06,-1.61112e-05,1.079e-05,-1.8221e-06,0
-2.90106e-05,-1.86804e-05,-6.93426e-05,-5.65096e-06,-4.29717e-06,-1.32627e-05,1.17744e-05,-1.22328e-06,0
-3.0251e-05,-1.50618e-05,-5.22319e-05,4.94852e-06,-6.05632e-06,-1.20691e-05,1.41983e-05,-6.36782e-07,0
-3.08873e-05,-9.5251e-06,-4.14677e-05,9.47079e-06,-4.57632e-06,-1.29601e-05,1.62831e-05,-1.16987e-06,0
-3.07412e-05,-3.37981e-06,-3.45537e-05,1.04781e-05,1.36501e-06,-1.41112e-05,1.66761e-05,-2.20091e-06,0
-3.02709e-05,2.28228e-06,-2.59685e-05,1.09755e-05,9.79573e-06,-1.44369e-05,1.66059e-05,-1.19433e-06,0
-3.02684e-05,7.55077e-06,-1.56817e-05,1.0511e-05,1.65667e-05,-1.48797e-05,1.73567e-05,1.00469e-06,0
-3.21692e-05,1.12574e-05,-8.86221e-06,9.13669e-06,2.04162e-05,-1.57616e-05,1.72388e-05,2.44861e-06,0
-3.42606e-05,1.21206e-05,-5.91985e-06,7.85861e-06,2.24846e-05,-1.58545e-05,1.51337e-05,2.39851e-06,0
-3.44034e-05,1.10095e-05,-3.71792e-06,6.0903e-06,2.35999e-05,-1.55635e-05,1.35411e-05,1.5966e-06,0
-3.27317e-05,1.18418e-05,-1.21279e-06,2.11996e-06,2.10903e-05,-1.56896e-05,1.48607e-05,1.00734e-06,0
-3.07555e-05,1.43649e-05,3.4765e-07,-3.78909e-06,1.52681e-05,-1.4709e-05,1.76851e-05,1.11992e-06,0
-2.88326e-05,1.60698e-05,1.22417e-06,-9.90653e-06,9.91188e-06,-1.25347e-05,1.86319e-05,1.67009e-06,0
-2.87747e-05,1.45898e-05,2.23345e-06,-1.43787e-05,7.6742e-06,-9.76578e-06,1.46129e-05,1.88959e-06,0
-3.12322e-05,1.0718e-05,3.00131e-06,-1.60098e-05,7.39148e-06,-8.54778e-06,8.92017e-06,9.59267e-07,0
-3.29955e-05,7.1787e-06,3.54531e-06,-1.37294e-05,6.93443e-06,-9.8026e-06,5.47792e-06,-9.70169e-07,0
-3.20822e-05,4.55779e-06,4.25136e-06,-9.16509e-06,7.13815e-06,-1.19221e-05,5.28312e-06,-1.1927e-06,0
-2.90031e-05,1.86536e-06,3.8878e-06,-5.23369e-06,8.09972e-06,-1.3059e-05,8.74535e-06,-6.07495e-07,0
-2.76334e-05,-1.24845e-06,2.24945e-06,-3.64933e-06,8.19535e-06,-1.16423e-05,1.41032e-05,2.31101e-07,0
-2.94554e-05,-4.20891e-06,-4.17259e-07,-2.63012e-06,7.57179e-06,-9.37631e-06,1.95733e-05,9.02877e-07,0
-3.07608e-05,-2.1828e-06,-2.69594e-06,-1.20795e-06,7.33095e-06,-7.61137e-06,2.45718e-05,2.97829e-06,0
-3.12446e-05,3.47028e-06,-4.71201e-06,-2.41521e-06,7.86358e-06,-7.35721e-06,2.93723e-05,5.72339e-06,0
-3.06309e-05,7.32354e-06,-6.87541e-06,-5.30615e-06,8.80901e-06,-7.08525e-06,3.0899e-05,6.7881e-06,0
-2.92585e-05,8.45209e-06,-8.82449e-06,-5.31047e-06,9.59291e-06,-5.73766e-06,3.03255e-05,6.36402e-06,0
-2.83321e-05,9.61559e-06,-1.01779e-05,7.37877e-06,1.15056e-05,-5.75937e-06,3.21162e-05,3.10809e-06,0
-2.9073e-05,1.65606e-05,-1.21191e-05,3.09394e-05,1.31679e-05,-8.22706e-06,3.41056e-05,-9.69721e-08,0
-3.00629e-05,2.53439e-05,-1.44932e-05,4.78746e-05,1.35191e-05,-1.14933e-05,3.47652e-05,-3.65946e-07,0
-2.9642e-05,2.84129e-05,-1.59198e-05,4.64752e-05,1.24523e-05,-1.33037e-05,3.50756e-05,3.82116e-07,0
-2.85849e-05,2.56974e-05,-1.59622e-05,3.06718e-05,1.14054e-05,-1.26228e-05,3.4792e-05,7.22104e-07,0
-2.79682e-05,2.17341e-05,-1.31278e-05,1.10957e-05,1.01816e-05,-1.06378e-05,3.29041e-05,1.71492e-06,0
-2.90915e-05,1.7532e-05,-1.01232e-05,-5.48405e-06,8.19474e-06,-9.17327e-06,3.19268e-05,2.92573e-06,0
-3.08743e-05,1.21411e-05,-8.60407e-06,-1.77671e-05,6.23781e-06,-8.67302e-06,3.3428e-05,4.05181e-06,0
-3.24326e-05,7.25826e-06,-8.02001e-06,-2.6936e-05,4.94211e-06,-9.3319e-06,3.52693e-05,4.71475e-06,0
-3.2464e-05,4.03779e-06,-6.88077e-06,-3.37818e-05,5.46532e-06,-1.02946e-05,3.54431e-05,3.5666e-06,0
-3.08508e-05,1.0409e-06,-5.0317e-06,-4.05186e-05,6.32283e-06,-1.0713e-05,3.26434e-05,6.19527e-07,0
-2.91056e-05,-1.66507e-06,-3.57121e-06,-4.83153e-05,6.65304e-06,-9.81999e-06,2.38337e-05,-2.87886e-06,0
-2.89508e-05,-3.72514e-06,-3.72527e-06,-5.35743e-05,7.27807e-06,-8.16918e-06,9.50404e-06,-5.73497e-06,0
