ch1,ch2,ch3,ch4,ch5,ch6,ch7,ch8,class
-2.8823e-05,1.06454e-05,-2.41781e-06,-6.72056e-06,3.91644e-06,-5.32651e-06,1.67985e-05,6.37483e-06,0
-2.85813e-05,1.03126e-05,-2.33854e-06,-5.14854e-06,3.89321e-06,-3.21655e-06,1.62628e-05,6.66331e-06,0
-2.75773e-05,1.08526e-05,-2.83473e-06,-4.74008e-06,5.18298e-06,-2.83727e-06,1.54993e-05,4.54152e-06,0
-2.84478e-05,1.15032e-05,-4.02092e-06,-7.38912e-06,7.90759e-06,-5.12722e-06,1.48879e-05,1.51299e-06,0
-3.06489e-05,1.02654e-05,-5.46784e-06,-6.30586e-06,9.74431e-06,-6.99578e-06,1.50194e-05,-1.02027e-06,0
-3.20938e-05,8.14921e-06,-6.33254e-06,2.27785e-06,1.09401e-05,-6.85244e-06,1.68006e-05,-1.50686e-06,0
-3.2238e-05,6.5518e-06,-6.60526e-06,1.15377e-05,1.24934e-05,-6.77006e-06,1.79648e-05,-9.82706e-08,0
-3.1891e-05,4.13084e-06,-6.96816e-06,1.17908e-05,1.37414e-05,-8.07338e-06,1.52285e-05,1.39221e-06,0
-3.18854e-05,1.15617e-06,-7.12132e-06,5.24932e-06,1.50828e-05,-9.26163e-06,7.94228e-06,2.55606e-06,0
-3.22951e-05,6.88816e-07,-7.93016e-06,1.00284e-06,1.67574e-05,-9.77094e-06,1.91231e-06,4.42007e-06,0
-3.31068e-05,3.00728e-06,-1.01891e-05,1.89181e-06,1.65576e-05,-1.01148e-05,2.80031e-06,6.20802e-06,0
-3.35746e-05,5.78713e-06,-1.25978e-05,4.83734e-06,1.49046e-05,-1.08585e-05,9.26767e-06,7.47898e-06,0
-3.32123e-05,5.85923e-06,-1.34664e-05,4.7005e-06,1.40879e-05,-1.21402e-05,1.61931e-05,9.00736e-06,0
-3.26053e-05,3.59474e-06,-1.28728e-05,2.14815e-06,1.49911e-05,-1.23627e-05,2.05634e-05,8.97744e-06,0
-3.26417e-05,1.72853e-06,-1.17048e-05,-1.13316e-07,1.71335e-05,-1.12145e-05,2.29086e-05,5.83943e-06,0
-3.17203e-05,2.28002e-06,-9.22937e-06,-4.78484e-06,1.91753e-05,-9.94503e-06,2.49983e-05,2.32993e-06,0
-2.89798e-05,3.93075e-06,-6.30359e-06,-1.5564e-05,1.88007e-05,-9.57194e-06,2.6845e-05,7.77579e-07,0
-2.71268e-05,4.34306e-06,-4.56086e-06,-2.80367e-05,1.57278e-05,-1.01357e-05,2.79966e-05,-4.22424e-07,0
-2.80784e-05,2.62925e-06,-6.1444e-06,-3.40275e-05,1.26914e-05,-1.12062e-05,2.72027e-05,-7.0057e-07,0
-3.03554e-05,1.06729e-06,-1.05055e-05,-3.11848e-05,1.18881e-05,-1.1218e-05,2.46e-05,5.38163e-07,0
-3.28895e-05,1.87613e-06,-1.3996e-05,-2.45825e-05,1.23126e-05,-9.18766e-06,2.17525e-05,-2.58471e-07,0
-3.33637e-05,1.97913e-06,-1.37408e-05,-1.75931e-05,1.30987e-05,-7.91371e-06,2.27523e-05,-2.18904e-06,0
-3.18962e-05,1.46548e-06,-1.1266e-05,-1.20533e-05,1.3936e-05,-9.24124e-06,2.83025e-05,-2.45508e-06,0
-2.92192e-05,1.15115e-06,-1.15802e-05,-9.8936e-06,1.34037e-05,-9.82229e-06,3.18336e-05,-2.56225e-06,0
-2.72554e-05,1.54469e-06,-1.26646e-05,-8.69423e-06,1.15225e-05,-8.1088e-06,2.5795e-05,-2.8684e-06,0
-2.76141e-05,3.48029e-06,-1.33322e-05,-5.31246e-06,8.93882e-06,-8.30764e-06,1.00684e-05,-3.34237e-06,0
-2.92201e-05,6.27969e-06,-1.47897e-05,-1.26716e-06,7.43013e-06,-9.86492e-06,-2.38733e-06,-1.47814e-06,0
-3.17527e-05,9.36524e-06,-1.48959e-05,-1.38619e-06,8.33353e-06,-1.05066e-05,-4.15386e-06,3.69908e-07,0
-3.18177e-05,1.12953e-05,-1.37931e-05,-9.08103e-06,1.03134e-05,-1.13217e-05,4.72802e-06,1.24395e-06,0
-3.03499e-05,1.28115e-05,-1.10238e-05,-1.70625e-05,1.02428e-05,-1.21283e-05,1.91004e-05,2.03468e-06,0
-3.05589e-05,1.3672e-05,-7.78709e-06,-1.8942e-05,8.08819e-06,-1.24278e-05,3.1144e-05,5.45753e-07,0
-3.16483e-05,1.44799e-05,-5.92716e-06,-1.75005e-05,5.45416e-06,-1.39753e-05,3.81169e-05,-1.6151e-06,0
-3.29214e-05,1.48125e-05,-7.02635e-06,-1.62126e-05,5.84578e-06,-1.65714e-05,4.01873e-05,-3.38619e-06,0
-3.4099e-05,1.30923e-05,-9.89868e-06,-1.49358e-05,1.06068e-05,-1.77011e-05,3.80487e-05,-1.77931e-06,0
-3.4393e-05,1.00742e-05,-1.248e-05,-9.51591e-06,1.42519e-05,-1.73347e-05,3.1767e-05,1.24822e-06,0
-3.37084e-05,7.63954e-06,-1.3337e-05,1.21538e-06,1.51272e-05,-1.7359e-05,2.35418e-05,2.64068e-06,0
-3.20921e-05,7.17992e-06,-1.18497e-05,1.26816e-05,1.57516e-05,-1.80338e-05,1.51414e-05,2.74055e-06,0
-3.09495e-05,8.11132e-06,-9.35961e-06,1.84613e-05,1.81466e-05,-1.74458e-05,1.06815e-05,2.13982e-06,0
-3.12751e-05,9.21312e-06,-7.56828e-06,1.82756e-05,2.20953e-05,-1.48046e-05,9.82471e-06,1.34204e-06,0
-3.25077e-05,9.8529e-06,-7.95138e-06,1.53874e-05,2.64132e-05,-1.06317e-05,5.17675e-06,6.20277e-07,0
-3.32394e-05,1.22498e-05,-8.90459e-06,1.15488e-05,2.99323e-05,-7.71032e-06,-7.50413e-06,2.27277e-07,0
-3.41066e-05,1.58063e-05,-8.75163e-06,5.20328e-06,3.15191e-05,-7.28358e-06,-2.26574e-05,1.1567e-07,0
-3.66733e-05,1.78251e-05,-7.09263e-06,-2.27048e-06,3.03985e-05,-8.41669e-06,-2.88256e-05,2.48368e-07,0
-3.92983e-05,1.76097e-05,-6.78026e-06,-7.52858e-06,2.83918e-05,-8.64711e-06,-2.19367e-05,4.32686e-07,0
-3.87405e-05,1.52638e-05,-8.14187e-06,-1.01764e-05,2.79741e-05,-8.317e-06,-1.04183e-05,1.20239e-06,0
-3.51038e-05,1.34114e-05,-8.46652e-06,-1.22648e-05,2.78266e-05,-8.35049e-06,-4.3175e-06,1.51354e-06,0
-3.27706e-05,1.56435e-05,-7.28488e-06,-1.68007e-05,2.71425e-05,-7.56134e-06,-3.9431e-06,7.2801e-07,0
-3.23271e-05,1.97019e-05,-6.64306e-06,-2.34804e-05,2.60523e-05,-6.94403e-06,-4.24894e-06,8.0952e-07,0
-3.15549e-05,2.13826e-05,-7.95784e-06,-2.90417e-05,2.46487e-05,-7.13121e-06,-3.99981e-06,1.4599e-06,0
-3.04351e-05,1.96302e-05,-1.06243e-05,-3.3626e-05,2.30225e-05,-6.19148e-06,-3.09839e-06,-1.10977e-07,0
-3.11234e-05,1.81128e-05,-1.31172e-05,-3.53644e-05,2.22773e-05,-4.83482e-06,-1.73362e-06,-1.57642e-06,0
-3.2957e-05,1.98294e-05,-1.43432e-05,-3.14376e-05,2.36418e-05,-5.68241e-06,9.8157e-07,-2.3389e-06,0
-3.27141e-05,2.22342e-05,-1.37101e-05,-2.29697e-05,2.47794e-05,-7.29942e-06,5.92287e-06,-1.02574e-06,0
-3.10692e-05,2.49602e-05,-1.16788e-05,-1.33718e-05,2.4101e-05,-8.19906e-06,8.03966e-06,2.42538e-06,0
-3.05629e-05,2.7538e-05,-9.71741e-06,-6.98703e-06,2.28772e-05,-7.95796e-06,7.28026e-06,2.62015e-06,0
-3.00397e-05,2.71856e-05,-8.11193e-06,-4.10774e-06,2.23215e-05,-8.84221e-06,6.70739e-06,-4.28685e-07,0
-2.94234e-05,2.48556e-05,-6.06009e-06,-3.2995e-06,2.23614e-05,-1.13454e-05,8.16555e-06,-2.14012e-06,0
-2.96127e-05,2.23091e-05,-4.24715e-06,-2.70197e-06,2.31617e-05,-1.33692e-05,1.08249e-05,-3.57786e-07,0
-2.95061e-05,1.95192e-05,-4.14817e-06,-7.67647e-07,2.36553e-05,-1.33112e-05,1.3047e-05,1.82853e-06,0
-2.90338e-05,1.66042e-05,-5.24776e-06,2.30782e-06,2.28134e-05,-1.20039e-05,1.45869e-05,2.69078e-06,0
-2.92488e-05,1.44337e-05,-6.05299e-06,3.95869e-06,2.22083e-05,-1.16787e-05,1.50889e-05,2.61879e-06,0
-2.99067e-05,1.3528e-05,-6.9579e-06,1.05893e-06,2.1105e-05,-1.28883e-05,1.52775e-05,2.5646e-06,0
-2.99987e-05,1.29901e-05,-8.04284e-06,-4.78094e-06,1.99003e-05,-1.51087e-05,1.5493e-05,2.22533e-06,0
-3.10763e-05,1.06063e-05,-7.94756e-06,-6.91175e-06,1.97054e-05,-1.66688e-05,1.54969e-05,7.63351e-07,0
-3.19745e-05,6.2911e-06,-7.09504e-06,-3.33411e-06,2.06335e-05,-1.72028e-05,1.55071e-05,2.80779e-07,0
-3.06887e-05,3.05225e-06,-6.01505e-06,2.9136e-06,2.06539e-05,-1.74866e-05,1.64326e-05,1.44726e-06,0
-2.88892e-05,1.65496e-06,-5.64991e-06,8.05841e-06,1.85301e-05,-1.80987e-05,1.7695e-05,3.09859e-06,0
-2.85422e-05,1.39115e-06,-5.80143e-06,9.55784e-06,1.57864e-05,-1.82612e-05,1.84104e-05,5.16007e-06,0
-2.90373e-05,1.6056e-06,-5.41682e-06,7.19048e-06,1.32241e-05,-1.77361e-05,1.79895e-05,7.42197e-06,0
-2.91505e-05,1.04945e-06,-4.17117e-06,9.82339e-07,1.14918e-05,-1.72802e-05,1.71262e-05,8.54351e-06,0
-2.88335e-05,-2.24708e-07,-2.95768e-06,-7.22096e-06,1.03541e-05,-1.72627e-05,1.71719e-05,8.14745e-06,0
-2.85235e-05,-1.28635e-06,-2.50566e-06,-1.2863e-05,8.19526e-06,-1.6885e-05,1.70777e-05,6.10948e-06,0
-2.83787e-05,-2.00926e-06,-3.26232e-06,-1.91737e-05,4.44745e-06,-1.54917e-05,1.52089e-05,3.90603e-06,0
-2.83993e-05,-2.6876e-06,-4.83529e-06,-2.79035e-05,1.43007e-06,-1.42154e-05,1.34789e-05,3.59041e-06,0
-2.88587e-05,-2.85953e-06,-5.93569e-06,-3.05329e-05,2.13902e-07,-1.37439e-05,1.41081e-05,4.56584e-06,0
-2.96217e-05,-1.06918e-06,-7.46562e-06,-2.52048e-05,5.78282e-07,-1.43758e-05,1.57312e-05,6.88682e-06,0
-2.96456e-05,3.04445e-06,-8.06131e-06,-1.51675e-05,8.82243e-07,-1.31382e-05,1.6506e-05,1.06283e-05,0
-2.87989e-05,6.1782e-06,-6.70277e-06,-7.27657e-06,4.11318e-07,-9.3955e-06,1.82783e-05,1.2492e-05,0
-2.94145e-05,4.13585e-06,-6.20987e-06,-4.36586e-06,5.45243e-07,-8.40357e-06,1.97339e-05,1.05486e-05,0
-2.98709e-05,1.02913e-06,-6.84798e-06,-3.67094e-06,7.47928e-07,-9.29717e-06,2.08678e-05,8.0315e-06,0
-2.81868e-05,-5.07167e-07,-7.46355e-06,-3.65234e-06,9.61193e-07,-9.75799e-06,2.25616e-05,6.51748e-06,0
-2.77016e-05,-2.52867e-07,-8.78254e-06,-3.98712e-06,1.93728e-06,-9.81876e-06,2.2598e-05,6.15578e-06,0
-2.83891e-05,9.67791e-07,-1.07193e-05,-4.52412e-06,3.0498e-06,-1.05628e-05,2.12983e-05,6.25747e-06,0
-2.81994e-05,-1.00253e-07,-1.16772e-05,1.64081e-06,5.73178e-06,-1.13872e-05,2.00219e-05,6.37291e-06,0
-2.83134e-05,-3.21899e-06,-1.09684e-05,1.31752e-05,9.80682e-06,-1.23228e-05,1.96518e-05,6.79264e-06,0
-2.86546e-05,-5.19888e-06,-8.87832e-06,2.19318e-05,1.14937e-05,-1.36626e-05,1.74232e-05,6.1262e-06,0
-2.85146e-05,-2.08528e-06,-7.17002e-06,2.48064e-05,1.03055e-05,-1.42272e-05,4.99948e-06,5.85463e-06,0
-2.86932e-05,2.92044e-06,-6.86904e-06,2.3353e-05,1.03899e-05,-1.4567e-05,-2.23893e-05,7.46288e-06,0
-2.98041e-05,5.06307e-06,-7.90082e-06,1.84664e-05,1.24032e-05,-1.51665e-05,-4.7908e-05,8.42846e-06,0
-3.14906e-05,4.36378e-06,-9.9424e-06,1.11104e-05,1.39563e-05,-1.57007e-05,-5.01124e-05,7.48737e-06,0
-3.31382e-05,4.04004e-06,-1.25845e-05,3.93701e-06,1.32323e-05,-1.41331e-05,-2.6784e-05,6.99404e-06,0
-3.39894e-05,5.46964e-06,-1.35215e-05,-1.09384e-06,1.06553e-05,-1.19609e-05,7.37091e-06,7.47673e-06,0
-3.35975e-05,7.64502e-06,-1.12786e-05,-3.00785e-06,9.46334e-06,-1.1509e-05,3.70023e-05,8.12289e-06,0
-3.20155e-05,9.02082e-06,-8.80309e-06,-3.14906e-06,1.21454e-05,-1.33307e-05,5.7229e-05,8.52483e-06,0
-2.94491e-05,9.90699e-06,-8.15396e-06,-1.64475e-06,1.78035e-05,-1.46486e-05,6.75974e-05,7.50473e-06,0
-2.76425e-05,1.00747e-05,-9.43825e-06,-6.46974e-07,2.17675e-05,-1.37227e-05,6.60675e-05,5.39757e-06,0
-2.75057e-05,8.21229e-06,-1.14231e-05,-3.20339e-06,2.08869e-05,-1.19279e-05,5.26526e-05,2.83196e-06,0
-2.80226e-05,5.96431e-06,-1.2399e-05,-8.70984e-06,1.62082e-05,-1.08256e-05,3.44952e-05,4.20109e-07,0
-2.80037e-05,5.2109e-06,-1.26817e-05,-1.17288e-05,1.21536e-05,-1.0365e-05,2.02505e-05,-5.2614e-07,0
-2.59673e-05,6.16563e-06,-1.29424e-05,-9.34833e-06,1.04673e-05,-1.03706e-05,1.32813e-05,-9.58618e-07,0
-2.43911e-05,8.18788e-06,-1.25602e-05,-4.29727e-06,1.03496e-05,-8.88906e-06,1.18694e-05,-1.92123e-06,0
-2.53661e-05,9.73961e-06,-1.22566e-05,-1.12991e-06,1.17293e-05,-7.70337e-06,1.2716e-05,-2.52035e-06,0
-2.74157e-05,8.98868e-06,-1.16588e-05,-4.65299e-07,1.25167e-05,-8.48209e-06,1.45753e-05,-2.07394e-06,0
-2.95582e-05,5.92702e-06,-1.15145e-05,-1.34828e-06,9.61221e-06,-7.36944e-06,2.04193e-05,-2.50769e-06,0
-3.11505e-05,6.27456e-06,-1.28239e-05,-1.77857e-06,6.38555e-06,-7.35276e-06,2.78332e-05,-3.49004e-06,0
-3.17672e-05,1.2634e-05,-1.28684e-05,-9.55465e-07,6.92859e-06,-8.21147e-06,3.19163e-05,-3.77377e-06,0
-3.14259e-05,1.90778e-05,-1.14368e-05,-2.02516e-06,1.00514e-05,-7.94193e-06,3.20261e-05,-4.75696e-06,0
-3.04571e-05,2.02509e-05,-1.11135e-05,-3.4225e-06,1.16575e-05,-6.83613e-06,2.99244e-05,-5.0129e-06,0
-3.014e-05,1.74128e-05,-1.14179e-05,-3.91345e-06,9.20295e-06,-4.89572e-06,2.86057e-05,-3.44195e-06,0
-2.9759e-05,1.61277e-05,-1.22488e-05,-5.77897e-06,6.02604e-06,-3.66608e-06,2.93152e-05,-1.68375e-06,0
-2.8526e-05,1.71688e-05,-1.28525e-05,-7.87072e-06,5.04688e-06,-2.72331e-06,2.96916e-05,-2.24912e-07,0
-2.87265e-05,1.98014e-05,-1.25034e-05,-8.78237e-06,5.47009e-06,-1.8262e-06,2.49239e-05,9.77135e-07,0
-2.9127e-05,2.19646e-05,-1.16184e-05,-8.89808e-06,4.22963e-06,-8.65433e-07,1.49782e-05,1.15949e-06,0
-3.00784e-05,2.19688e-05,-1.02499e-05,-7.33686e-06,2.17358e-06,-1.25244e-07,7.01107e-06,9.95784e-07,0
-3.15622e-05,2.04845e-05,-8.68699e-06,-3.71084e-06,1.76203e-06,7.07919e-07,7.99624e-06,1.1774e-06,0
-3.2222e-05,1.87139e-05,-7.53207e-06,-1.24159e-07,2.25037e-06,2.6075e-06,1.62249e-05,1.4169e-06,0
-3.12402e-05,1.62256e-05,-7.91345e-06,2.69353e-06,3.14267e-06,3.97918e-06,2.47456e-05,1.93715e-06,0
-3.04262e-05,1.356e-05,-9.04471e-06,5.34242e-06,4.74847e-06,3.74883e-06,2.83934e-05,2.965e-06,0
-3.19584e-05,1.22759e-05,-1.01487e-05,6.57889e-06,5.77031e-06,3.10256e-06,2.66755e-05,3.85767e-06,0
-3.40855e-05,1.22891e-05,-1.06592e-05,5.28831e-06,5.63852e-06,3.27421e-06,2.07251e-05,4.08029e-06,0
-3.58161e-05,1.38634e-05,-1.04085e-05,2.25624e-06,4.64471e-06,3.63385e-06,1.22669e-05,3.83083e-06,0
-3.62651e-05,1.61404e-05,-8.78682e-06,-2.49925e-07,2.72362e-06,3.73985e-06,4.18101e-06,3.3665e-06,0
-3.49875e-05,1.7806e-05,-6.7156e-06,-7.42284e-07,1.1398e-06,3.57608e-06,-9.48254e-07,2.24704e-06,0
-3.30558e-05,1.87245e-05,-4.87813e-06,1.26198e-07,8.19242e-07,3.48152e-06,-5.01719e-06,7.07355e-07,0
-3.1579e-05,1.99334e-05,-4.28951e-06,-5.78335e-07,1.63489e-06,3.25715e-06,-1.03825e-05,-8.23075e-07,0
-3.00039e-05,2.03537e-05,-4.68582e-06,-2.52738e-06,2.80581e-06,1.67508e-06,-1.57707e-05,-2.16237e-06,0
-2.9607e-05,2.02149e-05,-3.00418e-06,-4.45998e-06,5.05606e-06,-4.55719e-07,-1.96409e-05,-2.61512e-06,0
-3.09237e-05,1.99463e-05,-7.38617e-07,-6.52683e-06,8.37583e-06,-2.54976e-06,-2.07251e-05,-3.15996e-06,0
-3.24519e-05,2.02214e-05,-1.75345e-06,-9.65476e-06,1.12404e-05,-4.76472e-06,-2.02529e-05,-3.93749e-06,0
-3.32512e-05,2.12716e-05,-4.90251e-06,-1.41208e-05,1.215e-05,-6.44146e-06,-1.7977e-05,-3.35781e-06,0
-3.4334e-05,2.19041e-05,-8.1785e-06,-1.8135e-05,1.08044e-05,-7.58752e-06,-1.24156e-05,-2.37014e-06,0
-3.42167e-05,2.31049e-05,-1.00529e-05,-1.71504e-05,9.99433e-06,-8.22295e-06,-5.78395e-06,-1.80559e-06,0
-3.34553e-05,2.42263e-05,-8.38795e-06,-1.17875e-05,9.51572e-06,-8.20935e-06,2.73089e-07,-1.72939e-06,0
-3.23226e-05,2.33809e-05,-6.6743e-06,-7.20147e-06,8.09792e-06,-7.99173e-06,8.33281e-06,-1.43861e-06,0
-3.0657e-05,2.21373e-05,-6.93791e-06,-3.60739e-06,8.44371e-06,-8.54444e-06,1.71107e-05,-8.09495e-07,0
-3.02721e-05,2.24567e-05,-7.84733e-06,-1.69663e-07,1.00643e-05,-1.05856e-05,2.37377e-05,-7.93214e-07,0
-2.9661e-05,2.46174e-05,-7.88483e-06,4.10765e-06,1.2555e-05,-1.30522e-05,2.63934e-05,-7.19473e-07,0
-2.84195e-05,2.67775e-05,-6.22455e-06,7.72795e-06,1.51897e-05,-1.40433e-05,2.45974e-05,8.32526e-07,0
-2.77998e-05,2.59915e-05,-4.92166e-06,1.10826e-05,1.67186e-05,-1.25992e-05,1.89515e-05,2.9884e-06,0
-2.75503e-05,2.50155e-05,-4.51859e-06,1.44552e-05,1.68078e-05,-1.27008e-05,9.76436e-06,9.99014e-07,0
-2.66951e-05,2.52363e-05,-4.53716e-06,1.61292e-05,1.53311e-05,-1.43985e-05,-5.8333e-07,-2.49644e-06,0
-2.61392e-05,2.40109e-05,-4.53315e-06,1.58994e-05,1.47919e-05,-1.47176e-05,-9.62557e-06,-3.51484e-06,0
-2.58969e-05,2.17489e-05,-4.52573e-06,1.39507e-05,1.56821e-05,-1.48748e-05,-1.58213e-05,-2.60365e-06,0
-2.58934e-05,2.03558e-05,-4.25833e-06,8.83524e-06,1.71946e-05,-1.4787e-05,-1.74489e-05,-2.0996e-06,0
-2.52801e-05,1.98583e-05,-3.59333e-06,-9.30315e-07,1.80709e-05,-1.41436e-05,-1.30108e-05,-2.67467e-06,0
-2.46983e-05,1.92665e-05,-3.09057e-06,-1.22703e-05,1.80578e-05,-1.3343e-05,-5.77289e-06,-3.18198e-06,0
-2.54381e-05,1.92335e-05,-2.7327e-06,-2.21598e-05,1.73146e-05,-1.29003e-05,-7.49226e-07,-3.96967e-06,0
-2.64085e-05,2.0643e-05,-2.13939e-06,-3.10258e-05,1.63392e-05,-1.29934e-05,1.44865e-06,-4.17735e-06,0
-2.48151e-05,2.15093e-05,-1.09792e-06,-4.06127e-05,1.5108e-05,-1.34185e-05,4.27538e-06,-3.94164e-06,0
-2.27336e-05,2.03218e-05,-7.8291e-07,-4.70729e-05,1.35436e-05,-1.29625e-05,9.89922e-06,-3.20592e-06,0
-2.31777e-05,1.87979e-05,-1.24419e-06,-4.30733e-05,1.32508e-05,-1.16272e-05,1.53917e-05,-3.16801e-06,0
-2.4733e-05,1.81787e-05,-1.78129e-06,-2.82105e-05,1.51839e-05,-8.85445e-06,1.6831e-05,-3.89161e-06,0
-2.60212e-05,1.98445e-05,-2.21361e-06,-7.66856e-06,1.8685e-05,-5.46194e-06,1.6231e-05,-4.15507e-06,0
-2.69625e-05,2.27094e-05,-1.97804e-06,1.3277e-05,2.11984e-05,-3.9042e-06,1.63765e-05,-3.11199e-06,0
-2.78397e-05,2.4411e-05,-1.93273e-06,2.58338e-05,2.1861e-05,-3.70984e-06,1.65591e-05,-2.3486e-06,0
-2.87811e-05,2.47373e-05,-2.44813e-06,2.4874e-05,2.13837e-05,-4.14326e-06,1.52893e-05,-2.72356e-06,0
-2.86455e-05,2.46244e-05,-3.16883e-06,1.7218e-05,2.00778e-05,-4.23991e-06,1.12398e-05,-1.61879e-06,0
-2.66455e-05,2.40279e-05,-4.73287e-06,1.10388e-05,1.87899e-05,-2.65745e-06,4.98909e-06,2.45476e-07,0
-2.70686e-05,2.02611e-05,-5.64068e-06,7.04596e-06,1.7326e-05,-1.84089e-06,2.40419e-06,-5.10046e-07,0
-2.89606e-05,1.68414e-05,-5.59734e-06,2.74257e-06,1.56116e-05,-4.31154e-06,5.46292e-06,-2.32707e-06,0
-2.85347e-05,1.62771e-05,-5.02447e-06,-3.14094e-06,1.36871e-05,-4.98956e-06,9.69657e-06,-3.27849e-06,0
-2.74634e-05,1.84872e-05,-5.2752e-06,-9.14689e-06,1.28986e-05,-3.90276e-06,1.31342e-05,-3.84354e-06,0
-2.89496e-05,3.00602e-05,-7.10434e-06,-1.52884e-05,1.34438e-05,-5.50576e-06,1.34094e-05,-4.05051e-06,0
-3.13843e-05,5.2756e-05,-9.93975e-06,-2.27717e-05,1.29542e-05,-8.68724e-06,1.32576e-05,-3.71693e-06,0
-3.18787e-05,7.39394e-05,-1.22703e-05,-3.19195e-05,1.16087e-05,-1.04716e-05,1.63027e-05,-2.64979e-06,0
-3.13057e-05,7.85433e-05,-1.31024e-05,-3.98186e-05,9.97733e-06,-1.06836e-05,1.89591e-05,-1.87992e-06,0
-3.14951e-05,6.41422e-05,-1.47671e-05,-4.13066e-05,9.90562e-06,-1.20797e-05,2.13863e-05,-1.73963e-06,0
-3.23674e-05,3.90856e-05,-1.59028e-05,-3.7034e-05,1.3159e-05,-1.36354e-05,2.43008e-05,-3.00742e-06,0
-3.28741e-05,1.48437e-05,-1.44615e-05,-2.89184e-05,1.71993e-05,-1.33043e-05,2.57566e-05,-4.36338e-06,0
-3.26325e-05,-6.31415e-06,-1.13132e-05,-1.94116e-05,1.85857e-05,-1.1166e-05,2.60924e-05,-4.78475e-06,0
-3.18984e-05,-2.35358e-05,-8.62966e-06,-1.01328e-05,1.76375e-05,-1.03366e-05,2.63312e-05,-5.63349e-06,0
-3.16766e-05,-3.47392e-05,-7.83072e-06,-2.57553e-06,1.72206e-05,-1.10958e-05,2.65092e-05,-7.03532e-06,0
-3.12417e-05,-4.08075e-05,-9.28796e-06,1.57186e-06,1.78498e-05,-1.18302e-05,2.68343e-05,-7.11351e-06,0
-3.14784e-05,-4.28472e-05,-1.16611e-05,9.89229e-07,1.83939e-05,-1.3783e-05,2.74866e-05,-5.76496e-06,0
-3.3621e-05,-4.28793e-05,-1.23975e-05,-4.61148e-06,1.83745e-05,-1.69284e-05,2.76673e-05,-3.86402e-06,0
-3.59595e-05,-4.13284e-05,-1.14776e-05,-1.31733e-05,1.72987e-05,-1.86656e-05,2.6501e-05,-2.49086e-06,0
-3.64169e-05,-3.79471e-05,-1.10164e-05,-2.20181e-05,1.55615e-05,-1.72447e-05,2.41855e-05,-2.03723e-06,0
-3.53675e-05,-3.16985e-05,-1.11352e-05,-2.91022e-05,1.47462e-05,-1.39696e-05,2.19687e-05,-2.0192e-06,0
-3.44682e-05,-2.26457e-05,-1.01972e-05,-3.51873e-05,1.60779e-05,-1.03394e-05,2.01226e-05,-2.81766e-06,0
-3.39114e-05,-1.28351e-05,-9.40871e-06,-3.89772e-05,1.82666e-05,-8.08415e-06,2.02038e-05,-2.77685e-06,0
-3.2479e-05,-5.60579e-06,-1.03598e-05,-3.31448e-05,1.9259e-05,-7.77276e-06,2.12643e-05,-1.25594e-06,0
-3.07901e-05,-1.88492e-06,-1.10708e-05,-1.48405e-05,2.0024e-05,-9.38861e-06,2.136e-05,-2.32481e-07,0
-2.999e-05,1.7009e-07,-9.35274e-06,6.6012e-06,2.19154e-05,-1.04353e-05,2.13635e-05,-1.19632e-06,0
-2.93391e-05,2.10178e-06,-6.60329e-06,2.24755e-05,2.38368e-05,-9.64261e-06,2.24697e-05,-3.39449e-06,0
-2.81477e-05,4.03214e-06,-3.59699e-06,3.201e-05,2.50914e-05,-7.86286e-06,2.39069e-05,-3.93016e-06,0
-2.7799e-05,7.38467e-06,-2.60143e-06,3.555e-05,2.53805e-05,-7.30887e-06,2.40792e-05,-6.13149e-07,0
-2.75454e-05,9.94835e-06,-5.0842e-06,3.1336e-05,2.50564e-05,-9.63913e-06,2.22972e-05,2.136e-06,0
-2.77302e-05,1.07776e-05,-7.17565e-06,2.04219e-05,2.59693e-05,-1.13364e-05,1.97739e-05,3.44085e-06,0
-2.80819e-05,1.14178e-05,-6.81236e-06,7.65996e-06,2.53458e-05,-9.85925e-06,1.8501e-05,5.43006e-06,0
-2.67133e-05,1.26083e-05,-5.87808e-06,-3.42158e-06,2.42755e-05,-5.57366e-06,1.71639e-05,6.27162e-06,0
-2.65458e-05,1.41692e-05,-7.43915e-06,-1.04273e-05,2.47092e-05,-3.54493e-06,1.54235e-05,6.0536e-06,0
-2.75431e-05,1.63342e-05,-9.16154e-06,-1.19454e-05,2.23343e-05,-4.97713e-06,1.30923e-05,5.03151e-06,0
-2.85544e-05,1.75348e-05,-8.86651e-06,-1.01553e-05,1.82519e-05,-5.72993e-06,1.09827e-05,3.22489e-06,0
-2.93393e-05,1.65936e-05,-7.27263e-06,-7.32145e-06,1.4409e-05,-4.96446e-06,1.28186e-05,1.92124e-06,0
-3.05847e-05,1.75641e-05,-6.22813e-06,-5.24457e-06,1.21201e-05,-3.89021e-06,1.53163e-05,1.44497e-06,0
-3.15858e-05,2.00883e-05,-6.02108e-06,-3.61461e-06,1.09127e-05,-3.45987e-06,1.42593e-05,1.54939e-06,0
-3.10878e-05,2.23726e-05,-5.12117e-06,-2.23183e-06,1.07076e-05,-3.94733e-06,1.17821e-05,2.42557e-06,0
-2.95566e-05,2.27857e-05,-4.29478e-06,-6.81128e-07,1.10829e-05,-4.85619e-06,1.07013e-05,2.69103e-06,0
-2.81025e-05,2.19534e-05,-3.43384e-06,1.76736e-07,1.08079e-05,-4.88955e-06,1.15115e-05,2.53455e-06,0
-2.81391e-05,2.0962e-05,-2.23672e-06,-1.23452e-06,1.0433e-05,-5.26459e-06,1.21935e-05,2.08276e-06,0
-2.9533e-05,1.9777e-05,-6.43762e-07,-3.54398e-06,1.13262e-05,-6.69818e-06,1.10277e-05,1.11217e-06,0
-3.15018e-05,1.87504e-05,-4.74388e-07,-5.26681e-06,1.36018e-05,-8.51846e-06,8.70265e-06,5.09403e-07,0
-3.22166e-05,1.92284e-05,-2.28693e-06,-4.99864e-06,1.45827e-05,-1.00076e-05,7.20445e-06,4.4935e-07,0
-3.06586e-05,2.10166e-05,-3.86585e-06,-3.06559e-06,1.39177e-05,-9.8669e-06,6.37847e-06,3.18308e-07,0
-2.88361e-05,2.29551e-05,-3.64141e-06,-9.9607e-07,1.29814e-05,-8.74494e-06,7.29648e-06,1.6039e-07,0
-2.94985e-05,2.53636e-05,-4.18358e-06,-7.80875e-07,1.22256e-05,-9.78693e-06,1.08933e-05,1.76682e-07,0
-3.19448e-05,2.72849e-05,-7.35807e-06,-2.14137e-06,1.10311e-05,-1.21789e-05,1.37119e-05,1.58235e-07,0
-3.29326e-05,2.81718e-05,-1.16405e-05,-3.15421e-06,9.83333e-06,-1.42119e-05,1.2618e-05,1.57627e-08,0
-3.11459e-05,2.74911e-05,-1.28397e-05,-3.54007e-06,7.90672e-06,-1.55427e-05,1.15372e-05,-1.09286e-06,0
-2.86478e-05,2.67492e-05,-1.01599e-05,-2.20351e-06,6.48539e-06,-1.49333e-05,1.39039e-05,-2.12924e-06,0
-2.82929e-05,2.82705e-05,-9.09959e-06,-8.20405e-07,4.5151e-06,-1.33035e-05,1.5899e-05,-1.63232e-06,0
-3.06343e-05,2.92993e-05,-9.47183e-06,-2.37557e-06,2.97753e-06,-1.21028e-05,1.02424e-05,2.30068e-07,0
-3.18836e-05,2.71539e-05,-9.74077e-06,-3.6978e-06,3.1905e-06,-1.20684e-05,-2.18052e-06,1.77346e-06,0
-3.22346e-05,2.51436e-05,-1.00092e-05,-3.17083e-06,4.44519e-06,-1.33664e-05,-1.04535e-05,2.87338e-06,0
-3.12766e-05,2.45321e-05,-9.94713e-06,-2.68647e-06,7.15011e-06,-1.56571e-05,-1.02909e-05,4.18899e-06,0
-2.88196e-05,2.43793e-05,-1.07249e-05,-3.90157e-06,9.84639e-06,-1.56453e-05,-3.72822e-06,4.96539e-06,0
-2.95694e-05,2.41295e-05,-1.22823e-05,-3.14089e-06,1.29689e-05,-1.2313e-05,2.49914e-06,6.26637e-06,0
-3.21987e-05,2.2561e-05,-1.34864e-05,-1.03376e-06,1.51541e-05,-9.47426e-06,2.87304e-06,5.84758e-06,0
-3.27331e-05,2.12151e-05,-1.31439e-05,-1.26931e-07,1.53057e-05,-8.90503e-06,-7.71469e-06,4.71039e-06,0
-3.13352e-05,2.1762e-05,-1.35809e-05,-3.33391e-07,1.40166e-05,-9.56695e-06,-2.80675e-05,6.07005e-06,0
-3.09817e-05,2.33051e-05,-1.43643e-05,-5.03004e-07,1.1919e-05,-1.13103e-05,-3.93913e-05,6.7137e-06,0
-3.20212e-05,2.4345e-05,-1.21359e-05,7.33744e-07,1.08721e-05,-1.29854e-05,-2.79901e-05,4.45721e-06,0
-3.29887e-05,2.52662e-05,-8.72392e-06,1.74605e-06,1.27222e-05,-1.31042e-05,-1.14703e-06,1.30308e-06,0
-3.28517e-05,2.50793e-05,-7.91174e-06,2.82348e-06,1.58395e-05,-1.15989e-05,2.56974e-05,1.10814e-06,0
-3.21821e-05,2.30488e-05,-9.35235e-06,2.67947e-06,1.70631e-05,-1.01193e-05,4.56219e-05,3.79241e-06,0
-3.26887e-05,2.11087e-05,-1.08941e-05,1.87352e-06,1.64715e-05,-1.00126e-05,5.94844e-05,6.73235e-06,0
-3.47584e-05,2.03654e-05,-1.19371e-05,5.19916e-07,1.58328e-05,-1.05576e-05,7.15881e-05,7.63474e-06,0
-3.61579e-05,1.99246e-05,-1.22254e-05,-5.71429e-07,1.50016e-05,-1.06974e-05,8.2402e-05,6.85729e-06,0
-3.55151e-05,1.89913e-05,-1.20768e-05,-2.99915e-07,1.25874e-05,-9.65452e-06,8.70778e-05,5.77731e-06,0
-3.45718e-05,1.71476e-05,-1.14168e-05,1.98231e-06,8.6601e-06,-8.33203e-06,8.37051e-05,4.4695e-06,0
-3.42756e-05,1.52339e-05,-1.07856e-05,3.15177e-06,4.95808e-06,-8.33809e-06,7.51935e-05,2.22904e-06,0
-3.50102e-05,1.47227e-05,-1.04073e-05,1.88889e-06,2.5164e-06,-9.16965e-06,6.51053e-05,-4.99739e-07,0
-3.65087e-05,1.35173e-05,-1.11867e-05,2.85518e-06,1.73858e-06,-9.39756e-06,5.5849e-05,-1.48533e-06,0
-3.72475e-05,1.07569e-05,-1.32262e-05,1.1342e-05,1.45796e-06,-8.95787e-06,4.56095e-05,7.21385e-08,0
-3.62674e-05,7.30849e-06,-1.58577e-05,2.87839e-05,4.14191e-07,-8.73634e-06,3.09044e-05,2.01506e-06,0
-3.40106e-05,4.64231e-06,-1.70651e-05,4.30454e-05,-1.69528e-06,-1.0371e-05,1.42558e-05,2.33013e-06,0
-3.25059e-05,3.74184e-06,-1.48257e-05,4.2535e-05,-3.52633e-06,-1.23615e-05,-2.66725e-07,9.32557e-07,0
-3.15664e-05,2.76162e-06,-1.20404e-05,3.06391e-05,-3.67873e-06,-1.33604e-05,-1.17255e-05,1.53859e-08,0
-3.06976e-05,2.326e-06,-1.05841e-05,1.38159e-05,-3.01466e-06,-1.33486e-05,-2.13809e-05,2.19886e-06,0
-3.05977e-05,5.0328e-06,-8.2939e-06,-3.57109e-06,-2.59888e-06,-1.34503e-05,-2.67677e-05,3.56868e-06,0
-3.05179e-05,7.61491e-06,-6.38578e-06,-1.93494e-05,-7.2813e-07,-1.42069e-05,-2.78252e-05,2.1859e-06,0
-3.02054e-05,8.17542e-06,-5.22213e-06,-2.86938e-05,6.08629e-06,-1.34172e-05,-2.61704e-05,1.69812e-06,0
-2.89279e-05,7.30125e-06,-3.79792e-06,-3.08674e-05,1.4071e-05,-1.1796e-05,-2.13801e-05,1.72788e-06,0
-2.76555e-05,4.17619e-06,-3.39012e-06,-3.48928e-05,1.92726e-05,-1.11285e-05,-1.83358e-05,-2.78007e-07,0
-2.77651e-05,9.97209e-07,-4.10512e-06,-4.43924e-05,2.0945e-05,-1.14177e-05,-1.7689e-05,-1.24552e-06,0
-2.90035e-05,3.23886e-07,-6.23565e-06,-5.45154e-05,2.27162e-05,-1.16027e-05,-1.81049e-05,-1.17854e-06,0
-2.99758e-05,1.72045e-06,-8.76142e-06,-5.36188e-05,2.69557e-05,-1.01225e-05,-1.90257e-05,-1.91474e-06,0
-2.88365e-05,3.56598e-06,-9.96282e-06,-4.10923e-05,2.95504e-05,-8.31425e-06,-1.8908e-05,-2.87897e-06,0
-2.74412e-05,3.79934e-06,-8.758e-06,-2.465e-05,3.04193e-05,-7.06999e-06,-1.63135e-05,-3.85899e-06,0
-2.78943e-05,1.75045e-06,-6.77839e-06,-1.06665e-05,3.03694e-05,-5.41071e-06,-1.12232e-05,-4.06352e-06,0
-2.78168e-05,3.50043e-07,-6.05821e-06,-3.34727e-06,2.96888e-05,-4.65453e-06,-5.45686e-06,-3.09314e-06,0
-2.65613e-05,8.87706e-07,-5.39292e-06,-1.93407e-06,2.96013e-05,-5.43451e-06,5.16649e-07,-1.15811e-06,0
-2.68178e-05,2.53197e-06,-3.76982e-06,-3.42798e-06,3.08887e-05,-6.95839e-06,4.72911e-06,-7.92324e-07,0
-2.96564e-05,4.71861e-06,-2.84831e-06,-6.9437e-06,3.02537e-05,-7.57567e-06,7.69584e-06,-2.94548e-07,0
-3.16839e-05,6.83103e-06,-4.19325e-06,-1.17376e-05,2.60684e-05,-8.91338e-06,1.10723e-05,1.84943e-06,0
-3.05296e-05,7.95508e-06,-6.30972e-06,-1.49926e-05,2.13022e-05,-1.16636e-05,1.47801e-05,3.48828e-06,0
-2.83332e-05,7.68608e-06,-7.307e-06,-1.70715e-05,1.81249e-05,-1.29667e-05,1.6684e-05,3.78985e-06,0
-2.77401e-05,5.868e-06,-7.40904e-06,-1.67802e-05,1.69398e-05,-1.14305e-05,1.66705e-05,4.46717e-06,0
-2.81137e-05,4.25388e-06,-6.96919e-06,-9.66827e-06,1.76378e-05,-9.68223e-06,1.65785e-05,5.46508e-06,0
-2.76654e-05,4.2704e-06,-6.36596e-06,3.29291e-06,1.91688e-05,-1.11558e-05,1.6734e-05,6.09441e-06,0
-2.75247e-05,5.03321e-06,-6.16229e-06,1.43908e-05,1.90022e-05,-1.36628e-05,1.74292e-05,5.79354e-06,0
-2.82706e-05,6.33791e-06,-5.91566e-06,1.88328e-05,1.63036e-05,-1.48626e-05,1.93979e-05,5.68755e-06,0
-2.86448e-05,8.21872e-06,-5.96206e-06,1.74418e-05,1.2014e-05,-1.60179e-05,1.9878e-05,6.185e-06,0
-2.74893e-05,8.68941e-06,-7.09656e-06,1.37916e-05,8.28858e-06,-1.79293e-05,1.85556e-05,5.86193e-06,0
-2.69544e-05,8.45699e-06,-8.05897e-06,7.78897e-06,6.08026e-06,-1.85814e-05,1.91343e-05,5.13803e-06,0
-2.89938e-05,9.59781e-06,-7.37411e-06,2.32344e-08,4.75837e-06,-1.76914e-05,1.99835e-05,2.06297e-06,0
-3.05977e-05,1.05063e-05,-7.3533e-06,-7.97579e-06,5.43531e-06,-1.54578e-05,1.99692e-05,4.37896e-07,0
-2.93341e-05,1.2116e-05,-9.47211e-06,-1.29378e-05,7.6647e-06,-1.31087e-05,2.12408e-05,1.49087e-06,0
-2.70811e-05,1.20919e-05,-1.11725e-05,-1.26485e-05,8.07508e-06,-1.33985e-05,2.35622e-05,2.46713e-06,0
-2.54214e-05,8.14451e-06,-1.17912e-05,-1.06734e-05,5.4351e-06,-1.40394e-05,2.47978e-05,3.3379e-06,0
-2.63937e-05,4.37635e-06,-1.30586e-05,-8.9516e-06,3.17945e-06,-1.35092e-05,2.52549e-05,3.32495e-06,0
-2.76242e-05,3.32559e-06,-1.4038e-05,-8.82051e-06,3.96241e-06,-1.2477e-05,2.49318e-05,2.19001e-06,0
-2.72972e-05,5.66362e-06,-1.39402e-05,-1.04805e-05,6.13795e-06,-1.09079e-05,2.29943e-05,5.82314e-07,0
-2.73344e-05,8.93218e-06,-1.3771e-05,-1.14815e-05,8.29224e-06,-8.54574e-06,2.0138e-05,-3.39416e-08,0
-2.71463e-05,1.08448e-05,-1.26472e-05,-1.17571e-05,9.27635e-06,-6.28127e-06,1.79978e-05,-6.87714e-08,0
-2.63488e-05,1.0729e-05,-1.18795e-05,-1.08938e-05,9.47477e-06,-5.63999e-06,1.62398e-05,-1.13349e-06,0
-2.56359e-05,9.07239e-06,-1.25173e-05,-8.31448e-06,1.12806e-05,-6.58673e-06,1.42634e-05,-1.80672e-06,0
-2.60189e-05,6.90509e-06,-1.3154e-05,-5.79494e-06,1.38854e-05,-7.58736e-06,1.34932e-05,-1.0187e-06,0
-2.69653e-05,5.48292e-06,-1.24954e-05,-4.921e-06,1.46072e-05,-7.6688e-06,1.35449e-05,-8.87201e-07,0
-2.89145e-05,6.40822e-06,-1.04351e-05,-5.12087e-06,1.45848e-05,-8.82475e-06,1.20235e-05,-1.70283e-06,0
-3.1156e-05,8.85686e-06,-8.34417e-06,-4.81258e-06,1.45691e-05,-1.0901e-05,9.46803e-06,-2.53621e-06,0
-3.2596e-05,9.41425e-06,-7.90071e-06,-3.64794e-06,1.40754e-05,-1.22306e-05,8.46256e-06,-3.16635e-06,0
-3.32069e-05,7.4287e-06,-1.02333e-05,-9.16478e-07,1.38605e-05,-1.22755e-05,9.15232e-06,-3.72568e-06,0
-3.34074e-05,7.10079e-06,-1.27417e-05,3.10708e-06,1.40505e-05,-1.18661e-05,1.00632e-05,-3.34698e-06,0
-3.28857e-05,9.8381e-06,-1.26388e-05,5.00886e-06,1.29998e-05,-1.04653e-05,1.07037e-05,-2.82735e-06,0
-3.17381e-05,1.32246e-05,-1.12751e-05,2.36561e-06,1.1465e-05,-8.16549e-06,1.10736e-05,-2.98835e-06,0
-3.02193e-05,1.43002e-05,-9.48906e-06,-6.21632e-07,1.10489e-05,-5.99938e-06,1.04525e-05,-2.72172e-06,0
-2.87464e-05,1.27582e-05,-8.04856e-06,-9.80446e-07,1.13431e-05,-4.31898e-06,8.49672e-06,-3.07885e-06,0
-2.86623e-05,1.07128e-05,-8.92173e-06,4.63117e-07,1.15982e-05,-4.3271e-06,2.40542e-06,-4.43205e-06,0
-2.9826e-05,1.04316e-05,-1.00641e-05,1.5361e-06,1.10947e-05,-4.92035e-06,-8.19699e-06,-5.22184e-06,0
-3.10261e-05,1.02269e-05,-9.23954e-06,1.89109e-06,9.83497e-06,-5.36537e-06,-1.76639e-05,-4.73411e-06,0
-3.1371e-05,8.01581e-06,-8.18266e-06,3.15169e-06,9.6528e-06,-6.41448e-06,-2.02929e-05,-2.74222e-06,0
-3.18115e-05,5.97872e-06,-9.07087e-06,4.61417e-06,1.00979e-05,-8.02292e-06,-1.54905e-05,-2.05653e-06,0
-3.34029e-05,5.92199e-06,-1.08156e-05,3.32399e-06,8.70379e-06,-9.9623e-06,-5.10233e-06,-2.81358e-06,0
-3.40653e-05,6.38572e-06,-1.13418e-05,-1.00073e-06,6.45787e-06,-1.16573e-05,1.13295e-05,-3.61739e-06,0
-3.26756e-05,6.47103e-06,-9.95005e-06,-6.5562e-06,4.6434e-06,-1.29723e-05,2.9307e-05,-4.10543e-06,0
-3.23299e-05,8.33209e-06,-9.78547e-06,-1.06249e-05,3.75862e-06,-1.28814e-05,4.29044e-05,-2.78445e-06,0
-3.35647e-05,1.0286e-05,-1.1679e-05,-1.19266e-05,2.88989e-06,-1.07808e-05,5.03214e-05,-1.24348e-06,0
-3.41705e-05,8.83185e-06,-1.19926e-05,-1.2326e-05,1.83368e-06,-9.64239e-06,5.15692e-05,-1.21618e-06,0
-3.29898e-05,5.99921e-06,-1.08599e-05,-1.26057e-05,1.03572e-06,-9.00837e-06,4.8114e-05,-1.59761e-06,0
-3.09941e-05,6.04977e-06,-1.04775e-05,-1.31928e-05,2.22453e-06,-7.3076e-06,4.19938e-05,-8.67881e-07,0
-2.83374e-05,9.83094e-06,-1.00604e-05,-1.31339e-05,3.43739e-06,-5.33611e-06,3.50861e-05,4.10026e-07,0
-2.60107e-05,1.48515e-05,-7.17789e-06,-1.30187e-05,4.1908e-06,-4.56396e-06,2.8499e-05,1.74715e-06,0
-2.61606e-05,1.79877e-05,-3.27601e-06,-1.14616e-05,5.06711e-06,-5.89286e-06,2.04986e-05,2.3316e-06,0
-2.77329e-05,1.79291e-05,-1.50751e-06,-7.2793e-06,5.3413e-06,-6.87092e-06,9.36469e-06,2.52536e-06,0
-2.76585e-05,1.69191e-05,-2.15227e-06,-1.96682e-06,6.39234e-06,-5.46908e-06,-2.57594e-06,2.37697e-06,0
-2.64387e-05,1.67481e-05,-3.26162e-06,2.53204e-06,9.17627e-06,-3.17231e-06,-1.12586e-05,2.83653e-06,0
-2.56614e-05,1.60917e-05,-3.3933e-06,4.68989e-06,1.16631e-05,-3.22924e-06,-1.36852e-05,3.28113e-06,0
-2.45899e-05,1.38112e-05,-2.93582e-06,4.42418e-06,1.25455e-05,-5.5906e-06,-1.06173e-05,1.81626e-06,0
-2.38166e-05,1.07001e-05,-3.44686e-06,2.92464e-06,1.39683e-05,-7.81383e-06,-5.81083e-06,5.34106e-07,0
-2.43942e-05,6.80475e-06,-4.55373e-06,1.05963e-08,1.59684e-05,-7.2885e-06,-2.07416e-06,5.19681e-07,0
-2.58533e-05,3.00532e-06,-5.06142e-06,-7.82259e-06,2.01826e-05,-4.1315e-06,1.49603e-06,8.48623e-07,0
-2.67276e-05,6.13586e-07,-5.31387e-06,-1.8322e-05,2.57765e-05,-1.08799e-06,5.76161e-06,1.23364e-06,0
-2.71388e-05,-6.5645e-07,-5.00043e-06,-2.23679e-05,3.06687e-05,1.96573e-07,9.94951e-06,7.67811e-07,0
-2.79789e-05,-1.40958e-07,-4.91479e-06,-1.76339e-05,3.41423e-05,-1.3392e-07,1.39953e-05,-1.35198e-06,0
-3.0115e-05,8.15056e-07,-5.99197e-06,-1.05808e-05,3.61505e-05,-1.81619e-06,1.59877e-05,-2.01897e-06,0
-3.26054e-05,8.60121e-07,-7.19761e-06,-4.89333e-06,3.69306e-05,-4.87322e-06,1.43212e-05,-9.09165e-07,0
-3.45368e-05,8.21567e-07,-8.52981e-06,-1.30737e-06,3.62564e-05,-7.30871e-06,1.15307e-05,3.95419e-07,0
-3.47626e-05,8.53885e-07,-9.48531e-06,7.16731e-07,3.34289e-05,-7.1516e-06,1.04284e-05,1.7781e-06,0
-3.26543e-05,1.37415e-06,-9.08083e-06,1.89933e-06,2.94887e-05,-5.98748e-06,1.19105e-05,3.95692e-06,0
-3.08668e-05,2.40903e-06,-9.41306e-06,4.60278e-06,2.49955e-05,-5.94619e-06,1.00001e-05,4.28978e-06,0
-3.09112e-05,2.95e-06,-9.06683e-06,1.00013e-05,1.96718e-05,-5.83339e-06,-8.49825e-06,1.64854e-06,0
-3.11384e-05,2.67556e-06,-6.18978e-06,1.1876e-05,1.60324e-05,-5.41125e-06,-4.16363e-05,1.75157e-06,0
-3.07538e-05,3.84595e-06,-4.79868e-06,5.94398e-06,1.72204e-05,-4.19031e-06,-6.12094e-05,3.21244e-06,0
-3.15106e-05,5.45046e-06,-5.84308e-06,-1.59059e-06,2.06688e-05,-4.89385e-06,-4.87091e-05,3.3207e-06,0
-3.23045e-05,4.47923e-06,-8.74282e-06,-6.7012e-06,2.21853e-05,-7.35309e-06,-1.23891e-05,2.41247e-06,0
-3.24566e-05,2.46907e-06,-9.85182e-06,-1.12549e-05,2.10824e-05,-8.97446e-06,2.5292e-05,2.44765e-06,0
-3.3279e-05,-1.00749e-06,-9.62593e-06,-1.5367e-05,1.90433e-05,-9.18097e-06,4.84463e-05,3.93386e-06,0
-3.39437e-05,-3.27099e-06,-1.01093e-05,-1.87816e-05,1.82909e-05,-8.97297e-06,5.77756e-05,4.78824e-06,0
-3.42403e-05,-2.15498e-06,-9.64995e-06,-2.13868e-05,1.94109e-05,-1.01215e-05,5.93717e-05,5.15969e-06,0
-3.40157e-05,-6.08968e-07,-8.14007e-06,-2.41416e-05,2.08645e-05,-9.86444e-06,5.70145e-05,4.76804e-06,0
-3.35518e-05,-1.43581e-07,-6.88656e-06,-2.85231e-05,2.07252e-05,-8.27338e-06,5.15785e-05,4.98848e-06,0
-3.40066e-05,3.7318e-07,-7.9599e-06,-3.46909e-05,1.97801e-05,-7.03045e-06,4.56875e-05,6.46932e-06,0
-3.49529e-05,1.7109e-06,-8.66115e-06,-3.90911e-05,1.8623e-05,-7.64966e-06,4.03071e-05,7.61413e-06,0
-3.56941e-05,2.95993e-06,-7.03065e-06,-3.72718e-05,1.78558e-05,-9.19272e-06,3.72815e-05,6.80871e-06,0
-3.5975e-05,4.6846e-06,-4.82055e-06,-2.90581e-05,1.75732e-05,-9.85918e-06,3.69325e-05,4.35224e-06,0
-3.63306e-05,6.56484e-06,-5.86482e-06,-1.79865e-05,1.87366e-05,-8.40961e-06,3.69263e-05,1.65259e-06,0
-3.67939e-05,7.37465e-06,-8.77838e-06,-8.37399e-06,2.04907e-05,-6.71788e-06,3.51312e-05,2.79517e-08,0
-3.59601e-05,7.08032e-06,-9.97925e-06,-1.98929e-06,2.1315e-05,-6.37298e-06,3.24833e-05,-1.04013e-07,0
-3.35862e-05,6.66317e-06,-8.11811e-06,3.42336e-06,2.15344e-05,-6.45386e-06,2.92108e-05,-5.70547e-07,0
-3.19987e-05,6.45991e-06,-4.95514e-06,6.52961e-06,2.20343e-05,-6.21237e-06,2.35931e-05,-1.52519e-06,0
-3.15579e-05,7.9526e-06,-3.29202e-06,4.82651e-06,2.10131e-05,-6.79227e-06,1.61565e-05,-1.37766e-06,0
-3.02547e-05,1.13024e-05,-2.90011e-06,1.16103e-06,1.80284e-05,-7.71685e-06,1.07751e-05,-3.90211e-07,0
-2.82784e-05,1.44607e-05,-2.86832e-06,-1.54528e-06,1.66356e-05,-5.76021e-06,1.01988e-05,2.44905e-06,0
-2.70385e-05,1.64662e-05,-3.23856e-06,-3.22022e-06,1.83196e-05,-2.49081e-06,1.13416e-05,5.51636e-06,0
-2.68609e-05,1.71815e-05,-2.56598e-06,-5.84254e-06,2.09646e-05,-1.04161e-06,1.13293e-05,5.70841e-06,0
-2.5897e-05,1.7351e-05,-9.40262e-07,-1.0336e-05,2.14346e-05,-2.91567e-06,1.0627e-05,4.58816e-06,0
-2.4322e-05,1.6086e-05,-1.15684e-06,-1.37387e-05,2.12241e-05,-5.65289e-06,1.11947e-05,3.69042e-06,0
-2.49886e-05,1.404e-05,-1.97434e-06,-1.32238e-05,2.32862e-05,-6.62557e-06,1.04146e-05,2.80246e-06,0
-2.73665e-05,1.6261e-05,-2.12565e-06,-9.59385e-06,2.48223e-05,-4.75342e-06,8.64009e-06,3.01027e-06,0
-2.88034e-05,2.31774e-05,-3.5989e-06,-6.11912e-06,2.27692e-05,-1.66979e-06,1.09589e-05,3.74907e-06,0
-2.96097e-05,3.12163e-05,-6.94793e-06,-1.6079e-06,1.85483e-05,-5.59419e-07,1.75521e-05,3.73606e-06,0
-2.94081e-05,3.54002e-05,-1.00436e-05,7.29287e-06,1.37825e-05,-2.16304e-06,2.52172e-05,3.48009e-06,0
-2.8116e-05,3.36104e-05,-1.18969e-05,1.7456e-05,1.10783e-05,-4.05331e-06,2.99668e-05,3.22699e-06,0
-2.90453e-05,2.8396e-05,-1.33157e-05,2.33848e-05,1.09839e-05,-6.37121e-06,3.09807e-05,2.62742e-06,0
-3.1162e-05,2.47684e-05,-1.47168e-05,1.96839e-05,1.0075e-05,-8.76912e-06,2.97541e-05,1.48003e-06,0
-3.11826e-05,2.33703e-05,-1.51047e-05,1.05314e-05,7.25214e-06,-1.03995e-05,2.72817e-05,7.56377e-07,0
-2.99637e-05,2.1926e-05,-1.38788e-05,3.4019e-06,4.39556e-06,-1.21264e-05,2.19116e-05,-1.26466e-09,0
-2.8917e-05,2.12966e-05,-1.28837e-05,1.86918e-07,3.00137e-06,-1.33415e-05,1.24183e-05,-7.29382e-07,0
-2.78707e-05,2.18802e-05,-1.2261e-05,6.7526e-07,4.37875e-06,-1.41076e-05,-8.65216e-07,-1.29239e-06,0
-2.74025e-05,2.31445e-05,-9.97121e-06,3.28753e-06,7.81196e-06,-1.44976e-05,-1.53711e-05,-8.79719e-07,0
-2.81569e-05,2.34324e-05,-8.3414e-06,4.65641e-06,1.03973e-05,-1.55562e-05,-2.51457e-05,1.06794e-06,0
-2.92311e-05,2.35564e-05,-9.28966e-06,3.07548e-06,9.74017e-06,-1.67703e-05,-2.71565e-05,3.0972e-06,0
-2.94474e-05,2.27434e-05,-1.20523e-05,1.68987e-06,7.76924e-06,-1.78678e-05,-2.3071e-05,4.50276e-06,0
-2.86562e-05,2.11935e-05,-1.40792e-05,1.83095e-06,6.96635e-06,-1.94597e-05,-1.79324e-05,4.81803e-06,0
-2.78489e-05,2.08237e-05,-1.39508e-05,3.11586e-06,5.849e-06,-2.05899e-05,-1.38717e-05,4.0083e-06,0
-2.77231e-05,2.19728e-05,-1.37253e-05,4.16395e-06,3.38106e-06,-1.94302e-05,-1.01367e-05,3.19516e-06,0
-2.78526e-05,2.25462e-05,-1.44758e-05,4.00847e-06,7.03146e-07,-1.68685e-05,-6.90684e-06,3.12665e-06,0
-2.80736e-05,2.22156e-05,-1.48785e-05,2.29284e-06,-5.82972e-07,-1.50345e-05,-4.34954e-06,3.80664e-06,0
-2.9175e-05,2.10086e-05,-1.42823e-05,1.74583e-06,7.76224e-07,-1.35846e-05,-1.19668e-07,4.77451e-06,0
-3.04497e-05,1.93284e-05,-1.17811e-05,4.3562e-06,4.85547e-06,-1.19982e-05,4.45892e-06,4.94161e-06,0
-3.12992e-05,1.91371e-05,-9.67654e-06,8.70175e-06,1.16901e-05,-1.1834e-05,3.11703e-06,4.87115e-06,0
-3.20519e-05,1.92814e-05,-1.12672e-05,9.36108e-06,1.68784e-05,-1.18421e-05,-2.71328e-06,5.75525e-06,0
-3.12494e-05,1.87736e-05,-1.38835e-05,5.11142e-06,1.42869e-05,-1.09862e-05,-5.90831e-06,7.06758e-06,0
-2.91795e-05,1.61485e-05,-1.41439e-05,2.12321e-06,8.43055e-06,-1.08538e-05,-6.00992e-06,8.12477e-06,0
-2.80708e-05,1.28836e-05,-1.22491e-05,-4.18412e-07,6.09952e-06,-1.22155e-05,-3.12561e-06,7.38618e-06,0
-2.82986e-05,1.16719e-05,-1.16746e-05,-3.58329e-06,8.18061e-06,-1.3985e-05,4.22037e-06,5.28404e-06,0
-2.80394e-05,1.23007e-05,-1.12459e-05,-5.38507e-06,1.31189e-05,-1.43074e-05,1.43108e-05,4.30727e-06,0
-2.72347e-05,1.31166e-05,-9.429e-06,-5.30149e-06,1.87431e-05,-1.3347e-05,2.1636e-05,4.87182e-06,0
-2.69041e-05,1.3255e-05,-8.83355e-06,-5.36912e-06,2.0317e-05,-1.1553e-05,2.42048e-05,5.07336e-06,0
-2.69524e-05,1.47804e-05,-8.94717e-06,-7.54979e-06,1.75455e-05,-9.42016e-06,2.36123e-05,2.55045e-06,0
-2.7425e-05,2.19931e-05,-8.75886e-06,-1.20094e-05,1.60185e-05,-8.85525e-06,2.13201e-05,6.31082e-07,0
-2.78954e-05,3.51352e-05,-8.47841e-06,-1.63897e-05,1.55284e-05,-1.04285e-05,2.07636e-05,1.14082e-06,0
-2.76874e-05,4.60197e-05,-8.27449e-06,-1.61977e-05,1.49605e-05,-1.09841e-05,2.15041e-05,1.9962e-06,0
-2.74212e-05,4.73948e-05,-8.90868e-06,-1.27172e-05,1.57073e-05,-9.83964e-06,1.84462e-05,2.88737e-06,0
-2.80769e-05,4.08596e-05,-9.61915e-06,-9.69964e-06,1.71237e-05,-8.58081e-06,8.11749e-06,2.40737e-06,0
-2.91129e-05,3.20914e-05,-9.90712e-06,-8.90393e-06,1.7681e-05,-8.37084e-06,-3.24892e-06,1.31113e-06,0
-3.02361e-05,2.41461e-05,-9.37685e-06,-8.37214e-06,1.58502e-05,-8.03001e-06,-7.0657e-06,1.99255e-06,0
-3.19909e-05,1.72156e-05,-8.22571e-06,-7.57588e-06,1.19738e-05,-7.49349e-06,-3.88475e-07,4.43209e-06,0
-3.38878e-05,1.11793e-05,-7.45703e-06,-7.81998e-06,7.78325e-06,-8.78582e-06,1.19901e-05,5.33325e-06,0
-3.40825e-05,5.95995e-06,-6.96578e-06,-7.8981e-06,4.27754e-06,-1.12465e-05,2.42792e-05,3.14076e-06,0
-3.33748e-05,1.35648e-06,-6.24946e-06,-6.46697e-06,1.6672e-06,-1.28107e-05,3.4258e-05,1.59031e-06,0
-3.35454e-05,-2.72635e-06,-5.87288e-06,-4.33752e-06,1.1682e-06,-1.32167e-05,4.15602e-05,2.01896e-06,0
-3.37039e-05,-3.98713e-06,-6.42474e-06,-2.34109e-06,3.18568e-06,-1.35521e-05,4.56341e-05,1.55539e-06,0
-3.32248e-05,-4.95571e-08,-6.81795e-06,-8.28056e-07,5.34493e-06,-1.36288e-05,4.51213e-05,-8.09447e-08,0
-3.23744e-05,6.73526e-06,-6.48697e-06,-7.51509e-07,6.73375e-06,-1.342e-05,4.07737e-05,-1.1532e-06,0
-3.17587e-05,1.46714e-05,-6.02337e-06,-6.83284e-07,8.06833e-06,-1.26893e-05,3.58882e-05,-2.08317e-06,0
-3.28402e-05,2.39352e-05,-6.6083e-06,2.87904e-06,8.13911e-06,-1.22492e-05,3.1909e-05,-2.49779e-06,0
-3.32204e-05,3.53122e-05,-7.2521e-06,1.35999e-05,6.0115e-06,-1.28512e-05,2.69517e-05,-3.11017e-06,0
-3.24962e-05,4.63854e-05,-7.04457e-06,2.65717e-05,4.12418e-06,-1.26906e-05,2.06735e-05,-4.73865e-06,0
-3.31599e-05,5.30012e-05,-7.45964e-06,3.0517e-05,3.54105e-06,-1.16827e-05,1.28466e-05,-5.9329e-06,0
-3.36921e-05,5.06805e-05,-8.6848e-06,2.33573e-05,2.72139e-06,-1.11088e-05,6.69795e-06,-6.91651e-06,0
-3.38797e-05,3.59229e-05,-9.01343e-06,1.39614e-05,-1.38415e-07,-1.17005e-05,5.63783e-06,-9.4019e-06,0
-3.31881e-05,1.64175e-05,-8.3209e-06,6.05426e-06,-2.85833e-06,-1.30047e-05,7.50647e-06,-1.15968e-05,0
-3.09117e-05,-1.33956e-06,-7.2836e-06,-8.8832e-07,-3.43275e-06,-1.28507e-05,8.1179e-06,-1.18139e-05,0
-2.98236e-05,-1.43733e-05,-6.5396e-06,-4.82189e-06,-3.21292e-06,-1.15888e-05,4.39864e-06,-1.15201e-05,0
-3.0508e-05,-2.05615e-05,-8.19864e-06,-5.78114e-06,-3.81342e-06,-1.0362e-05,5.0603e-07,-1.07347e-05,0
-3.1313e-05,-2.08547e-05,-8.90941e-06,-6.47847e-06,-6.02429e-06,-8.4158e-06,-7.13736e-07,-1.08846e-05,0
-3.29426e-05,-1.62561e-05,-6.48266e-06,-1.38768e-05,-6.93226e-06,-6.78589e-06,-3.09283e-06,-1.02502e-05,0
-3.37931e-05,-7.90568e-06,-4.06743e-06,-3.15315e-05,-6.74569e-06,-7.21612e-06,-8.93474e-06,-8.08585e-06,0
-3.33446e-05,-3.13635e-07,-3.31661e-06,-5.18654e-05,-5.80085e-06,-9.82238e-06,-1.64091e-05,-6.6239e-06,0
-3.27683e-05,3.96397e-06,-4.62212e-06,-6.64584e-05,-3.0916e-06,-1.31017e-05,-2.07249e-05,-5.8539e-06,0
-3.09956e-05,7.57501e-06,-7.36965e-06,-7.22142e-05,1.14689e-06,-1.42891e-05,-1.86184e-05,-6.01846e-06,0
-2.8339e-05,1.18283e-05,-1.01154e-05,-6.9147e-05,6.47953e-06,-1.3374e-05,-1.04731e-05,-7.08777e-06,0
-2.78459e-05,1.55263e-05,-1.04638e-05,-5.75996e-05,1.07437e-05,-1.18063e-05,-9.97896e-07,-6.97769e-06,0
-2.99173e-05,1.7131e-05,-9.3771e-06,-4.07851e-05,1.42568e-05,-1.04362e-05,6.78051e-06,-4.73551e-06,0
-3.05974e-05,1.78802e-05,-8.99127e-06,-2.44096e-05,1.88193e-05,-9.77393e-06,1.27781e-05,-3.35019e-06,0
-2.92778e-05,1.85357e-05,-9.4276e-06,-1.10758e-05,2.42753e-05,-8.58037e-06,1.75653e-05,-4.07314e-06,0
-2.81647e-05,1.83827e-05,-1.01891e-05,9.74776e-07,2.822e-05,-6.06931e-06,2.03129e-05,-6.05542e-06,0
-2.87109e-05,1.53523e-05,-1.12166e-05,1.39711e-05,2.94042e-05,-3.20757e-06,2.07289e-05,-7.41856e-06,0
-3.03388e-05,1.23754e-05,-1.21834e-05,2.568e-05,2.83382e-05,-1.72548e-06,2.08747e-05,-6.7522e-06,0
-3.20593e-05,1.1737e-05,-1.29863e-05,3.10934e-05,2.71017e-05,-2.59895e-06,2.12984e-05,-5.33679e-06,0
-3.34717e-05,1.16828e-05,-1.1907e-05,2.89149e-05,2.70599e-05,-4.41104e-06,2.13369e-05,-4.53357e-06,0
-3.43301e-05,1.16263e-05,-7.55813e-06,2.40495e-05,2.64693e-05,-5.66022e-06,2.1215e-05,-4.7892e-06,0
-3.43581e-05,1.39129e-05,-3.14427e-06,1.86406e-05,2.38461e-05,-6.88523e-06,2.06972e-05,-6.45664e-06,0
-3.46325e-05,1.80208e-05,-2.40698e-06,1.23845e-05,1.93634e-05,-8.49948e-06,1.99699e-05,-7.19517e-06,0
-3.51321e-05,1.9115e-05,-4.0954e-06,6.92927e-06,1.50793e-05,-9.65489e-06,1.98302e-05,-6.48527e-06,0
-3.43581e-05,1.66631e-05,-5.7838e-06,9.0137e-07,1.27404e-05,-9.79813e-06,2.01954e-05,-6.02439e-06,0
-3.33553e-05,1.36038e-05,-8.48442e-06,-5.98135e-06,1.18117e-05,-8.7663e-06,1.93491e-05,-6.70864e-06,0
-3.30486e-05,1.25875e-05,-1.03924e-05,-9.22258e-06,1.07136e-05,-8.43522e-06,1.71932e-05,-6.99614e-06,0
-3.38194e-05,1.25153e-05,-1.03531e-05,-8.8964e-06,9.65574e-06,-9.38991e-06,1.50788e-05,-5.44999e-06,0
-3.3703e-05,1.22501e-05,-8.78947e-06,-7.36562e-06,1.06298e-05,-1.06481e-05,1.19894e-05,-3.74435e-06,0
-3.2257e-05,1.29439e-05,-6.83877e-06,-7.22575e-06,1.1779e-05,-1.19804e-05,1.08835e-05,-1.83949e-06,0
-3.02773e-05,1.39713e-05,-6.13378e-06,-8.20854e-06,1.14469e-05,-1.16223e-05,1.31253e-05,4.43415e-07,0
-2.83945e-05,1.48882e-05,-5.94082e-06,-8.47215e-06,1.1538e-05,-9.74555e-06,1.70717e-05,6.44224e-07,0
-2.8076e-05,1.59061e-05,-5.48088e-06,-7.51779e-06,1.3326e-05,-8.04822e-06,2.01207e-05,-3.43184e-07,0
-2.75459e-05,1.67415e-05,-5.1764e-06,-6.25617e-06,1.51787e-05,-6.90763e-06,2.11608e-05,2.92342e-07,0
-2.66603e-05,1.90436e-05,-5.39675e-06,-6.16676e-06,1.471e-05,-6.42966e-06,2.09938e-05,1.43944e-06,0
-2.62586e-05,2.27423e-05,-6.50281e-06,-5.78857e-06,1.35965e-05,-6.73525e-06,1.93915e-05,2.12544e-06,0
-2.5745e-05,2.45232e-05,-8.64688e-06,-4.15192e-06,1.36394e-05,-7.17336e-06,1.6993e-05,1.70715e-06,0
-2.47337e-05,2.29188e-05,-9.59883e-06,-2.41064e-06,1.43827e-05,-7.41599e-06,1.46076e-05,1.18735e-06,0
-2.51866e-05,1.94458e-05,-7.87411e-06,-2.86404e-06,1.48959e-05,-7.22433e-06,1.21159e-05,1.10123e-06,0
-2.72082e-05,1.61017e-05,-5.35005e-06,-5.24434e-06,1.5649e-05,-7.38774e-06,9.79018e-06,1.80494e-06,0
-2.87104e-05,1.43124e-05,-5.23965e-06,-6.41705e-06,1.76794e-05,-7.77375e-06,9.30649e-06,3.66038e-06,0
-2.93687e-05,1.39184e-05,-6.97552e-06,-4.19626e-06,2.04561e-05,-7.97916e-06,1.02467e-05,4.90358e-06,0
-2.98008e-05,1.37607e-05,-8.20929e-06,-1.15209e-06,2.17859e-05,-8.30867e-06,1.06497e-05,4.94873e-06,0
-3.0095e-05,1.26523e-05,-9.66611e-06,1.13435e-07,2.11799e-05,-8.94182e-06,1.00481e-05,4.67811e-06,0
-2.90027e-05,1.03498e-05,-1.22334e-05,-7.68371e-07,2.03212e-05,-1.01161e-05,1.04766e-05,4.49828e-06,0
-2.58989e-05,8.23308e-06,-1.42132e-05,-2.21041e-06,1.94601e-05,-1.00614e-05,1.19382e-05,4.1944e-06,0
-2.31168e-05,6.51069e-06,-1.43569e-05,-3.03051e-06,1.8015e-05,-8.64645e-06,1.33128e-05,3.4364e-06,0
-2.42508e-05,4.9888e-06,-1.33386e-05,-4.35049e-06,1.538e-05,-7.65731e-06,1.42022e-05,3.14335e-06,0
-2.77797e-05,4.52974e-06,-1.10228e-05,-7.70375e-06,1.07354e-05,-7.67413e-06,1.40375e-05,3.29709e-06,0
-2.92693e-05,5.46268e-06,-8.8558e-06,-1.03983e-05,6.67918e-06,-6.67475e-06,1.29083e-05,2.44413e-06,0
-2.84134e-05,7.68019e-06,-9.36511e-06,-1.08613e-05,5.8403e-06,-4.36304e-06,1.2634e-05,1.82715e-06,0
-2.81872e-05,1.02507e-05,-1.00067e-05,-1.09488e-05,5.76665e-06,-2.96095e-06,1.4357e-05,1.45045e-06,0
-2.84757e-05,1.21441e-05,-9.02962e-06,-9.95905e-06,5.92175e-06,-4.08934e-06,1.63812e-05,2.44272e-06,0
-2.94503e-05,1.38073e-05,-8.57222e-06,-8.83867e-06,6.12653e-06,-6.71548e-06,1.67334e-05,4.13575e-06,0
-2.97144e-05,1.5329e-05,-7.96722e-06,-8.83329e-06,6.94936e-06,-6.78087e-06,1.53103e-05,3.18312e-06,0
-2.89534e-05,1.63489e-05,-7.15127e-06,-1.07916e-05,9.21343e-06,-5.70571e-06,1.40076e-05,1.79689e-06,0
-2.81222e-05,1.68125e-05,-7.50897e-06,-1.15976e-05,1.11532e-05,-6.00433e-06,1.35171e-05,1.48351e-06,0
-2.69305e-05,1.68271e-05,-8.08965e-06,-8.05644e-06,1.11097e-05,-7.52241e-06,1.57559e-05,8.878e-07,0
-2.73188e-05,1.73276e-05,-7.61366e-06,-3.21857e-06,9.70346e-06,-8.35128e-06,1.91239e-05,-7.91077e-07,0
-2.8511e-05,1.56e-05,-6.10159e-06,-5.03155e-07,1.08874e-05,-8.50624e-06,1.53168e-05,-1.09928e-06,0
-2.87926e-05,1.15826e-05,-3.95638e-06,-5.95488e-07,1.32016e-05,-1.11065e-05,3.52762e-06,-1.13511e-07,0
-2.84105e-05,8.54896e-06,-2.79899e-06,-4.81025e-07,1.36633e-05,-1.46187e-05,-7.84484e-06,3.73174e-07,0
-2.79831e-05,8.53867e-06,-4.51253e-06,1.06326e-06,1.23622e-05,-1.56775e-05,-1.17954e-05,1.37567e-06,0
-2.6973e-05,9.64533e-06,-6.83235e-06,1.97857e-06,1.10072e-05,-1.37528e-05,-8.4923e-06,2.51746e-06,0
-2.6506e-05,9.10693e-06,-7.11678e-06,3.83294e-07,1.0815e-05,-1.20964e-05,-1.16647e-06,3.56657e-06,0
-2.77318e-05,7.24157e-06,-5.64766e-06,-1.68687e-06,1.13718e-05,-1.17705e-05,9.63956e-06,4.72522e-06,0
-2.97957e-05,5.64666e-06,-3.80895e-06,-2.72978e-06,1.13236e-05,-1.24372e-05,2.49426e-05,6.57793e-06,0
-3.1115e-05,5.165e-06,-3.03334e-06,-3.42203e-06,8.83856e-06,-1.34619e-05,3.84015e-05,8.17301e-06,0
-3.1973e-05,5.7328e-06,-3.4161e-06,-3.70945e-06,4.94106e-06,-1.3814e-05,3.89357e-05,8.88421e-06,0
-3.26534e-05,7.61881e-06,-4.42575e-06,-3.45706e-06,1.71408e-06,-1.23704e-05,3.22949e-05,8.63593e-06,0
-3.32648e-05,8.85125e-06,-4.9726e-06,-3.07764e-06,-6.99014e-08,-1.02802e-05,3.50406e-05,7.26108e-06,0
-3.35933e-05,9.8665e-06,-4.94247e-06,-3.10423e-06,-1.12923e-06,-9.76007e-06,4.78972e-05,4.91837e-06,0
-3.27108e-05,1.3162e-05,-4.03088e-06,-1.53968e-06,-9.99855e-07,-1.04276e-05,5.91007e-05,3.62893e-06,0
-3.13578e-05,1.81379e-05,-2.34125e-06,3.1058e-06,-2.01611e-07,-1.0962e-05,6.39908e-05,4.23814e-06,0
-2.96845e-05,2.10385e-05,-9.4241e-07,1.22872e-05,-8.51991e-07,-1.03113e-05,6.32744e-05,4.81069e-06,0
-2.94319e-05,2.259e-05,-6.48075e-07,2.31169e-05,-3.4173e-06,-9.97599e-06,5.73148e-05,4.73887e-06,0
-3.11021e-05,2.30953e-05,-2.78818e-06,2.72386e-05,-4.98406e-06,-9.63819e-06,4.78929e-05,4.53227e-06,0
-3.23596e-05,2.18726e-05,-6.33537e-06,2.12092e-05,-2.69716e-06,-8.91854e-06,3.86934e-05,4.82998e-06,0
-3.18767e-05,1.97045e-05,-1.00238e-05,9.71471e-06,-4.04997e-07,-9.96657e-06,2.89807e-05,4.35098e-06,0
-3.17329e-05,1.71697e-05,-1.19019e-05,-9.63183e-07,-1.36271e-06,-1.01971e-05,1.70588e-05,3.02029e-06,0
-3.23891e-05,1.5821e-05,-1.13694e-05,-9.86927e-06,-2.10898e-06,-7.1502e-06,5.21555e-06,2.51323e-06,0
-3.16384e-05,1.56859e-05,-9.61509e-06,-1.67586e-05,-7.24714e-07,-4.11649e-06,-1.83506e-06,2.54666e-06,0
-2.96632e-05,1.61597e-05,-7.93169e-06,-1.88856e-05,4.23874e-06,-2.80062e-06,-2.35968e-06,2.72722e-06,0
-2.84381e-05,1.62133e-05,-8.96801e-06,-1.63432e-05,9.43213e-06,-2.26647e-06,-4.46494e-06,3.01632e-06,0
-2.89568e-05,1.2754e-05,-1.01402e-05,-1.08728e-05,9.56503e-06,-2.57741e-06,-1.4124e-05,2.57106e-06,0
-2.95317e-05,9.16925e-06,-9.15695e-06,-9.49068e-06,6.30516e-06,-3.95875e-06,-3.05953e-05,1.30565e-06,0
-2.9717e-05,1.08675e-05,-7.55099e-06,-1.51951e-05,3.58338e-06,-4.45134e-06,-4.27704e-05,1.07516e-06,0
-2.90714e-05,1.44641e-05,-5.37612e-06,-2.21514e-05,4.13714e-06,-4.62935e-06,-4.31179e-05,1.88278e-06,0
-2.8227e-05,1.69126e-05,-3.79124e-06,-2.35217e-05,8.0322e-06,-5.48485e-06,-3.76522e-05,1.53076e-06,0
-2.83038e-05,1.92068e-05,-3.87617e-06,-1.83244e-05,1.37333e-05,-6.71609e-06,-3.39398e-05,1.35116e-06,0
-2.81339e-05,2.02668e-05,-3.42752e-06,-1.25941e-05,1.86364e-05,-7.1494e-06,-3.12342e-05,2.2694e-06,0
-2.82818e-05,1.81816e-05,-2.09697e-06,-1.18351e-05,2.28405e-05,-6.11274e-06,-2.44025e-05,3.39571e-06,0
-2.99887e-05,1.31544e-05,-8.62292e-07,-1.31202e-05,2.8217e-05,-3.46836e-06,-1.44517e-05,4.68694e-06,0
-3.20736e-05,7.60004e-06,2.57337e-07,-1.06345e-05,3.22109e-05,-1.46003e-06,-3.91952e-06,6.92413e-06,0
-3.32551e-05,4.98636e-06,-6.52101e-07,-7.10189e-06,3.07183e-05,-2.29348e-06,5.13872e-06,7.76987e-06,0
-3.37847e-05,5.16794e-06,-4.1225e-06,-7.23616e-06,2.51215e-05,-3.06808e-06,1.19388e-05,5.52607e-06,0
-3.39881e-05,6.48967e-06,-7.594e-06,-1.19992e-05,2.06428e-05,-2.6955e-06,1.69754e-05,2.5103e-06,0
