ch1,ch2,ch3,ch4,ch5,ch6,ch7,ch8,class
4.8852e-06,2.47793e-05,-5.79983e-06,0.000139629,-8.91139e-05,8.45192e-06,6.39677e-05,7.85265e-06,0
3.13085e-05,2.83798e-05,-6.32162e-06,0.000245295,-7.67325e-05,2.32842e-05,5.60668e-05,9.49891e-06,0
4.54937e-05,3.10036e-05,-6.80889e-06,0.000244316,-4.70917e-05,3.0432e-05,4.84089e-05,9.35702e-06,0
3.97169e-05,3.34724e-05,-5.74925e-06,0.00015623,9.96522e-06,3.95522e-05,4.05294e-05,9.72339e-06,0
2.37874e-05,3.36812e-05,-4.00356e-06,6.37862e-05,7.60007e-05,4.31233e-05,3.38483e-05,1.22359e-05,0
1.19269e-05,2.97563e-05,-5.88223e-08,7.60569e-06,9.4161e-05,3.17701e-05,2.8655e-05,1.43184e-05,0
6.3724e-06,2.98855e-05,1.02432e-05,-4.91021e-06,6.53803e-05,1.76533e-05,2.55704e-05,1.358e-05,0
3.38296e-06,4.14569e-05,2.43072e-05,2.16271e-05,5.00351e-05,1.00164e-06,2.53079e-05,1.21143e-05,0
-1.52664e-06,5.92448e-05,3.49457e-05,2.32976e-05,6.34266e-05,-1.28396e-05,2.55279e-05,1.23728e-05,0
-5.81503e-06,7.48409e-05,3.59537e-05,-4.71201e-05,7.899e-05,-3.49392e-05,2.32177e-05,1.28851e-05,0
-1.1487e-06,8.65386e-05,2.96964e-05,-0.000118257,7.2312e-05,-6.82494e-05,1.93964e-05,1.19403e-05,0
1.81998e-05,0.000100269,2.49073e-05,-0.000163954,5.98206e-05,-7.80856e-05,1.51306e-05,1.08149e-05,0
3.38052e-05,0.000115197,2.15031e-05,-0.000187665,6.71514e-05,-5.60291e-05,1.11729e-05,1.09808e-05,0
2.70732e-05,0.000124149,1.76383e-05,-0.000175343,7.44604e-05,-3.94482e-05,8.18103e-06,1.12622e-05,0
4.67473e-06,0.000125774,1.45369e-05,-0.000137356,5.47664e-05,-3.62707e-05,7.38828e-06,1.10612e-05,0
-2.44658e-05,0.000116504,1.19201e-05,-9.18295e-05,2.29312e-05,-2.40763e-05,7.31971e-06,1.26932e-05,0
-5.85499e-05,8.95771e-05,9.51291e-06,-5.80417e-05,5.47534e-06,1.33814e-05,6.58082e-06,1.66212e-05,0
-9.49986e-05,4.26461e-05,6.8036e-06,-3.54679e-05,3.96945e-06,4.55659e-05,5.69761e-06,1.90793e-05,0
-0.000124182,-1.73384e-05,2.60845e-06,-1.77441e-05,5.91172e-06,4.54123e-05,4.41656e-06,2.01115e-05,0
-0.00013934,-7.72651e-05,-3.75483e-06,-1.09727e-05,3.70016e-06,5.02053e-05,2.62837e-06,2.22245e-05,0
-0.000147521,-0.00012585,-1.09755e-05,-2.38534e-05,-5.40539e-06,7.17457e-05,2.09095e-06,2.40663e-05,0
-0.000162692,-0.000159052,-1.66178e-05,-3.9586e-05,-2.41541e-05,6.96803e-05,3.89593e-06,2.33503e-05,0
-0.000181216,-0.000168759,-2.01168e-05,-2.72265e-05,-4.52134e-05,3.01625e-05,6.29416e-06,1.94821e-05,0
-0.000180794,-0.000150118,-2.40987e-05,2.22674e-07,-5.59217e-05,-1.05387e-05,7.61056e-06,1.34216e-05,0
-0.000154531,-0.000119876,-2.98021e-05,-2.40897e-05,-5.34373e-05,-3.33181e-05,7.69541e-06,7.2384e-06,0
-0.000121141,-9.71463e-05,-3.66099e-05,-9.67099e-05,-4.74362e-05,-4.20247e-05,7.95072e-06,3.62138e-06,0
-9.55432e-05,-8.00678e-05,-4.20597e-05,-0.00014625,-4.37245e-05,-4.1295e-05,8.78126e-06,4.63099e-06,0
-7.81604e-05,-5.7118e-05,-4.13437e-05,-0.000153938,-4.47781e-05,-1.92327e-05,9.19072e-06,7.45587e-06,0
-5.77934e-05,-2.82646e-05,-3.40604e-05,-0.000144696,-4.44595e-05,2.31709e-05,9.04926e-06,1.0338e-05,0
-3.46952e-05,-4.01358e-06,-2.5422e-05,-0.000120727,-2.64709e-05,4.88634e-05,7.13936e-06,1.81402e-05,0
-2.6975e-05,6.13238e-06,-2.05019e-05,-6.11105e-05,1.02397e-05,2.80834e-05,5.62938e-06,3.46509e-05,0
-3.17726e-05,9.01636e-06,-1.6873e-05,3.62185e-05,5.0498e-05,-1.68732e-05,5.22104e-06,6.2126e-05,0
-2.97334e-05,1.64477e-05,-1.04132e-05,0.000166753,7.53085e-05,-4.17305e-05,4.75795e-06,8.10856e-05,0
-1.65482e-05,2.82e-05,-9.96088e-08,0.000308848,7.68526e-05,-3.68503e-05,4.70307e-06,7.79136e-05,0
-3.75479e-06,3.89045e-05,1.05726e-05,0.000337315,6.58589e-05,-1.78114e-05,-3.59142e-06,6.0896e-05,0
1.53159e-06,4.60824e-05,1.61731e-05,0.000213792,5.83802e-05,7.94049e-07,-2.33039e-05,3.00407e-05,0
-8.65059e-06,5.02056e-05,1.61245e-05,9.15188e-05,6.16716e-05,9.87433e-06,-4.16026e-05,-8.42041e-06,0
-3.18431e-05,4.91476e-05,1.22131e-05,3.62102e-05,5.67498e-05,8.67608e-06,-4.56802e-05,-4.53407e-05,0
-4.95176e-05,4.47248e-05,1.12079e-05,8.01894e-06,3.72511e-05,1.86318e-06,-3.52712e-05,-6.64095e-05,0
-5.05408e-05,4.06272e-05,1.3167e-05,-3.0371e-05,1.78992e-05,-2.23382e-06,-1.83414e-05,-6.85618e-05,0
-3.40919e-05,3.50171e-05,1.30044e-05,-7.80467e-05,8.54946e-06,-5.34707e-07,2.1766e-07,-6.30076e-05,0
-1.33372e-05,2.35061e-05,8.23967e-06,-0.000117194,9.24948e-06,9.44242e-06,1.92484e-05,-5.84657e-05,0
-4.29062e-06,6.17455e-06,1.27846e-08,-0.000132673,1.2676e-05,3.45657e-05,3.43349e-05,-5.32677e-05,0
-4.25154e-06,-1.01133e-05,-8.71422e-06,-0.000118227,1.65625e-05,6.17668e-05,4.11645e-05,-4.14412e-05,0
2.6461e-06,-1.58876e-05,-1.50362e-05,-7.65746e-05,2.22225e-05,6.70124e-05,4.21968e-05,-2.87346e-05,0
1.43227e-05,-1.01709e-05,-1.62988e-05,-1.72096e-05,2.56511e-05,4.32793e-05,4.12658e-05,-2.19767e-05,0
1.36813e-05,-3.19155e-06,-1.40155e-05,3.38149e-05,2.00337e-05,6.55907e-06,4.1335e-05,-2.00772e-05,0
5.63695e-07,-2.94532e-06,-1.04326e-05,6.11895e-05,8.30104e-06,-2.64945e-05,4.56392e-05,-1.5551e-05,0
-1.0164e-05,-6.63788e-06,-8.12325e-06,6.62194e-05,-8.44325e-06,-6.08596e-05,5.31709e-05,-7.70688e-06,0
-1.07485e-05,-8.12494e-06,-6.29146e-06,6.43736e-05,-2.74979e-05,-0.000119908,5.64698e-05,1.28882e-07,0
-3.97933e-06,-4.67736e-06,-3.89734e-06,6.07702e-05,-3.77758e-05,-0.000188137,5.13413e-05,4.78646e-06,0
2.25597e-06,5.90235e-06,-1.33433e-06,6.06706e-05,-2.96281e-05,-0.000192672,4.20518e-05,5.18793e-06,0
-1.41174e-06,2.14212e-05,-8.72195e-07,6.59627e-05,-1.25071e-05,-9.37488e-05,3.31365e-05,2.16973e-06,0
-1.80225e-05,3.74038e-05,-3.14494e-06,6.52426e-05,8.49368e-08,3.31931e-05,2.25559e-05,-3.87411e-07,0
-3.07869e-05,4.86904e-05,-5.80386e-06,2.79378e-05,4.3435e-06,8.04674e-05,9.74684e-06,-6.80659e-07,0
-2.14297e-05,5.59351e-05,-4.61373e-06,-4.03556e-05,1.37068e-05,5.33144e-05,-1.52756e-06,1.1699e-06,0
1.90136e-06,6.36511e-05,1.78763e-06,-0.000114754,4.18926e-05,2.49737e-05,-1.05628e-05,3.40306e-06,0
1.98699e-05,6.74813e-05,7.56539e-06,-0.000187344,6.56215e-05,1.35648e-05,-1.47757e-05,4.20844e-06,0
2.03601e-05,5.28247e-05,5.14799e-06,-0.00025153,5.07541e-05,4.4694e-06,-1.2309e-05,6.11196e-06,0
1.56863e-05,2.67659e-05,-3.93642e-06,-0.000261576,1.43734e-05,-7.44192e-06,-9.45772e-06,1.00392e-05,0
1.6477e-05,9.9526e-06,-7.40319e-06,-0.000175464,-1.03407e-05,-1.52502e-05,-7.9138e-06,1.28987e-05,0
9.9517e-06,5.60229e-06,-4.85943e-06,-2.97135e-05,-1.6773e-05,-1.6524e-05,-4.44432e-06,1.23686e-05,0
-9.00355e-06,1.06766e-05,-2.8759e-06,0.000112192,-4.00676e-06,-1.24104e-05,-2.20312e-06,1.04375e-05,0
-2.70974e-05,1.8625e-05,-4.34425e-06,0.000186337,1.59406e-05,-7.884e-06,-1.61488e-06,1.02516e-05,0
-3.25809e-05,2.68979e-05,-8.45469e-06,0.000188906,3.18341e-05,-6.69879e-06,-1.16173e-06,1.01667e-05,0
-3.60337e-05,3.22541e-05,-7.9726e-06,0.000173112,4.00732e-05,-5.52418e-06,-2.21559e-06,8.57392e-06,0
-5.09881e-05,3.28253e-05,-1.96964e-06,0.000156931,4.26052e-05,-1.81564e-06,-4.39367e-06,6.90483e-06,0
-7.85466e-05,2.72248e-05,1.85535e-06,8.49213e-05,3.68574e-05,6.8747e-06,-4.04031e-06,5.1309e-06,0
-0.000103278,1.63448e-05,-3.46871e-06,-3.78998e-05,1.85809e-05,8.38395e-06,-7.63899e-07,3.07489e-06,0
-0.000104225,6.58375e-06,-1.43669e-05,-0.000117125,-4.19847e-06,-2.88953e-06,2.56709e-06,-8.15708e-09,0
-7.64959e-05,4.62878e-06,-2.37097e-05,-0.000109687,-1.45762e-05,-1.6549e-05,5.50241e-06,-2.58886e-06,0
-3.2532e-05,8.7071e-06,-2.86365e-05,-5.72177e-05,9.41386e-06,-2.19498e-05,8.1806e-06,-3.04998e-06,0
1.00621e-05,1.18303e-05,-3.12503e-05,-1.48526e-05,7.11314e-05,-2.02358e-05,9.3056e-06,-1.22487e-06,0
3.44073e-05,1.47578e-05,-3.33977e-05,4.00276e-06,0.000127434,-1.99238e-05,9.27296e-06,9.12317e-07,0
3.23049e-05,1.90497e-05,-3.50547e-05,1.58479e-05,0.000124342,-2.47275e-05,1.06367e-05,2.25178e-06,0
1.90918e-05,2.51054e-05,-3.60958e-05,6.33709e-05,6.55401e-05,-2.80234e-05,1.28816e-05,3.50694e-06,0
1.3615e-05,3.22783e-05,-3.34123e-05,0.000179483,1.0084e-05,-2.97931e-05,1.49797e-05,4.71952e-06,0
1.67582e-05,4.19611e-05,-2.36067e-05,0.000287089,-1.11864e-05,-2.39224e-05,1.62205e-05,4.20056e-06,0
2.30899e-05,5.33337e-05,-8.16378e-06,0.000236682,-3.24839e-05,6.1396e-06,1.5977e-05,2.65372e-06,0
2.74621e-05,6.3369e-05,3.82858e-06,4.16127e-05,-8.84232e-05,3.98453e-05,1.48509e-05,1.33494e-06,0
2.77955e-05,6.96415e-05,6.54922e-06,-0.000114983,-0.000172907,3.82238e-05,1.53744e-05,6.97023e-09,0
3.49738e-05,7.53735e-05,5.11322e-06,-0.00015527,-0.000240024,1.36855e-05,1.69948e-05,-1.53609e-06,0
4.51125e-05,8.2157e-05,6.44843e-06,-0.000144842,-0.000231757,-6.44145e-06,1.67342e-05,-2.72363e-06,0
4.86717e-05,8.56608e-05,5.11718e-06,-9.231e-05,-0.000159184,-1.55004e-05,1.49874e-05,-2.35486e-06,0
5.77471e-05,8.4974e-05,-3.07002e-06,5.75639e-06,-7.00512e-05,-8.26797e-06,1.29622e-05,-2.34525e-06,0
8.82558e-05,8.13078e-05,-9.74817e-06,6.89758e-05,3.2756e-05,4.39446e-06,1.16341e-05,-3.19636e-06,0
0.000111402,7.62036e-05,-9.90755e-06,4.11832e-05,0.000117214,6.93044e-06,1.00901e-05,-4.77119e-06,0
8.76242e-05,7.73229e-05,-9.46707e-06,-2.51955e-05,0.00014978,8.07321e-06,8.88757e-06,-6.22573e-06,0
3.19026e-05,8.7172e-05,-1.13683e-05,-6.28786e-05,0.000133972,2.94816e-05,8.83675e-06,-3.70897e-06,0
-2.60838e-05,9.02562e-05,-1.55853e-05,-6.78397e-05,9.6252e-05,6.29625e-05,9.01589e-06,1.43601e-06,0
-8.62068e-05,7.52808e-05,-1.95483e-05,-6.0857e-05,8.00015e-05,7.4214e-05,9.76792e-06,4.70519e-06,0
-0.000157536,4.36447e-05,-1.80729e-05,-7.20189e-05,8.69404e-05,5.45884e-05,1.07493e-05,3.91267e-06,0
-0.000220944,-8.91384e-07,-1.49104e-05,-0.00010772,9.6949e-05,2.76894e-05,1.22501e-05,1.82319e-06,0
-0.000255937,-4.17481e-05,-1.58576e-05,-0.000140164,8.53515e-05,1.03871e-05,1.28842e-05,2.1841e-07,0
-0.000247504,-6.50376e-05,-2.17212e-05,-0.000137853,5.64001e-05,-4.94608e-06,1.21683e-05,-5.40026e-08,0
-0.000205179,-8.31757e-05,-2.84641e-05,-0.000100881,2.96212e-05,-3.24632e-05,1.00145e-05,1.31265e-06,0
-0.000167154,-0.000105652,-3.16211e-05,-4.72048e-05,1.60436e-05,-7.99885e-05,7.35527e-06,1.29537e-06,0
-0.000156846,-0.00012574,-3.208e-05,1.27035e-05,1.54124e-05,-0.000141376,8.21823e-06,-3.07114e-08,0
-0.000151535,-0.000140133,-3.133e-05,7.39261e-05,1.9347e-05,-0.000185349,1.40824e-05,-1.70523e-06,0
-0.000111464,-0.000143474,-2.86431e-05,0.000120783,2.37476e-05,-0.000175395,2.08781e-05,-1.8501e-06,0
-3.44224e-05,-0.000121237,-2.36198e-05,0.000128118,2.60932e-05,-0.000111828,2.41098e-05,-6.25866e-07,0
3.81722e-05,-7.59594e-05,-1.88595e-05,9.50692e-05,2.27468e-05,-5.31876e-05,2.37191e-05,9.31415e-07,0
5.75204e-05,-3.43171e-05,-1.72522e-05,4.89107e-05,6.24358e-06,-5.04019e-05,2.18168e-05,2.5075e-06,0
2.2231e-05,-1.75682e-05,-1.81519e-05,1.54304e-05,-7.42732e-06,-5.0924e-05,2.21385e-05,4.85934e-06,0
-2.9738e-05,-2.2795e-05,-1.95092e-05,-7.75022e-06,8.5137e-06,4.79684e-05,2.51826e-05,7.54086e-06,0
-6.84549e-05,-3.66933e-05,-1.84974e-05,-3.95679e-05,4.56617e-05,0.000192651,2.74299e-05,9.36815e-06,0
-9.3907e-05,-4.94896e-05,-1.37264e-05,-8.62498e-05,6.28875e-05,0.000206935,2.74209e-05,9.31364e-06,0
-0.000107125,-5.48798e-05,-1.1318e-05,-0.000123757,4.27367e-05,8.22797e-05,2.57658e-05,8.91561e-06,0
-0.000106181,-5.19571e-05,-1.52417e-05,-0.000131948,-2.56498e-06,-2.98232e-05,2.07113e-05,9.59259e-06,0
-9.12117e-05,-4.02667e-05,-2.00465e-05,-0.000122225,-4.13023e-05,-5.42996e-05,1.23011e-05,9.42821e-06,0
-6.76691e-05,-2.27512e-05,-2.23666e-05,-0.000111688,-4.91604e-05,-3.15983e-05,3.84581e-06,5.23101e-06,0
-4.02026e-05,-1.16686e-05,-2.21526e-05,-7.98884e-05,-2.60065e-05,-1.65432e-05,-1.21137e-06,-3.31294e-06,0
-8.88925e-06,-7.76507e-06,-1.95496e-05,8.51044e-06,9.09114e-06,-1.36222e-05,-3.1145e-06,-1.29768e-05,0
9.78918e-06,-1.9428e-06,-1.40395e-05,0.000113826,3.77658e-05,-7.95616e-06,-4.30821e-06,-1.82882e-05,0
1.11553e-05,1.23312e-05,-9.15431e-06,0.000196117,6.09048e-05,1.83533e-06,-5.41549e-06,-1.56328e-05,0
8.56436e-06,3.47046e-05,-6.81496e-06,0.000225675,7.24472e-05,5.92904e-06,-4.72191e-06,-9.99504e-06,0
4.03899e-06,5.29886e-05,-6.04951e-06,0.000170669,5.60025e-05,-4.03668e-06,-1.75479e-06,-4.86253e-06,0
-1.06999e-06,6.03854e-05,-7.63144e-06,6.15437e-05,2.00411e-05,-1.3919e-05,2.49261e-06,-2.61089e-06,0
-4.65942e-06,6.29042e-05,-9.43324e-06,-5.37843e-05,-1.48176e-05,-1.0781e-05,6.86932e-06,-1.94883e-06,0
-1.32191e-06,6.87275e-05,-4.82033e-06,-0.000117385,-3.1821e-05,2.4218e-06,9.76844e-06,-2.42822e-06,0
1.15869e-05,7.77867e-05,5.69866e-06,-0.000128514,-2.541e-05,8.9493e-06,9.95222e-06,-2.66344e-06,0
3.0253e-05,7.10379e-05,1.4392e-05,-0.000130684,-1.80603e-05,-8.96339e-06,8.56849e-06,-2.68933e-06,0
4.20994e-05,3.58982e-05,1.35624e-05,-0.000144585,-2.56654e-05,-3.90135e-05,8.69101e-06,-4.785e-06,0
3.65499e-05,3.60263e-06,2.54882e-06,-0.00015357,-2.96685e-05,-5.45446e-05,1.06923e-05,-5.83965e-06,0
2.14437e-05,2.87697e-07,-8.45092e-06,-0.000136033,-9.05056e-06,-4.38128e-05,1.39601e-05,-4.14824e-06,0
1.07392e-05,7.37978e-06,-9.49164e-06,-8.46808e-05,2.54691e-05,-1.46207e-05,1.62028e-05,-1.93495e-06,0
9.2553e-06,1.04973e-05,3.87851e-07,-1.17896e-05,5.66482e-05,1.20485e-06,1.51836e-05,-2.0407e-06,0
9.75344e-06,2.62155e-05,1.34266e-05,4.55399e-05,7.62888e-05,-1.23875e-05,1.16079e-05,-2.65372e-06,0
4.80793e-06,5.57207e-05,2.28921e-05,6.66645e-05,8.24997e-05,-3.15287e-05,7.35593e-06,-3.09399e-06,0
-1.22861e-05,7.19196e-05,2.44037e-05,5.56764e-05,7.53117e-05,-2.3148e-05,2.027e-06,-3.27153e-06,0
-4.18894e-05,6.06363e-05,1.88483e-05,3.72347e-05,6.23514e-05,1.02263e-05,-3.48977e-06,-3.1054e-06,0
-8.42487e-05,3.35664e-05,1.14649e-05,2.75523e-05,5.29743e-05,2.7961e-05,-7.29641e-06,-1.85533e-06,0
-0.000120025,1.1419e-05,7.14349e-06,2.41563e-05,4.56726e-05,1.09261e-05,-7.94973e-06,-7.9991e-07,0
-0.000121284,4.39136e-06,4.24739e-06,9.65891e-06,3.14438e-05,-1.34455e-05,-1.90416e-06,-7.25133e-07,0
-9.32627e-05,4.21673e-06,-6.77375e-07,-2.18146e-05,8.03587e-06,-2.74693e-05,1.04184e-05,-4.94307e-07,0
-6.81183e-05,1.67684e-06,-6.50162e-06,-6.74333e-05,-1.82414e-05,-3.62063e-05,2.57323e-05,1.01029e-06,0
-6.09981e-05,-9.95958e-07,-9.66973e-06,-0.000103084,-3.47966e-05,-2.08342e-05,4.23126e-05,2.2775e-06,0
-6.44555e-05,-6.95387e-06,-9.95963e-06,-9.13608e-05,-3.56189e-05,8.74374e-06,5.44469e-05,2.18752e-06,0
-6.96795e-05,-2.08248e-05,-1.01605e-05,-4.31579e-05,-3.28722e-05,7.64442e-06,6.04518e-05,3.36674e-06,0
-7.20243e-05,-3.38423e-05,-1.24827e-05,-2.35881e-05,-4.01501e-05,-1.20915e-05,6.21357e-05,5.02143e-06,0
-6.24265e-05,-3.47842e-05,-1.34153e-05,-2.30738e-05,-5.7071e-05,-8.61276e-06,5.83579e-05,5.61067e-06,0
-3.27214e-05,-2.47883e-05,-1.11834e-05,-1.11748e-05,-7.4627e-05,1.87041e-05,5.05178e-05,3.57531e-06,0
-3.36464e-06,-2.05814e-06,-9.14474e-06,-7.57315e-06,-8.44616e-05,4.05842e-05,3.97576e-05,2.63577e-06,0
-5.60096e-06,2.92742e-05,-6.72449e-06,3.05029e-06,-8.7127e-05,2.99382e-05,2.74434e-05,5.37344e-06,0
-4.04857e-05,4.59542e-05,-7.02464e-06,2.46628e-05,-9.00166e-05,-1.32056e-05,1.53296e-05,9.1777e-06,0
-7.18373e-05,4.55961e-05,-9.01228e-06,4.84935e-05,-8.20534e-05,-5.53619e-05,6.30913e-06,1.07304e-05,0
-7.661e-05,4.48956e-05,-7.64495e-06,6.04629e-05,-5.17024e-05,-7.34837e-05,2.75268e-06,9.20458e-06,0
-6.36522e-05,4.84275e-05,-7.01803e-07,6.42071e-05,-3.44869e-06,-6.90649e-05,2.31094e-06,7.68517e-06,0
-4.9881e-05,5.15897e-05,8.43613e-06,6.8665e-05,4.64254e-05,-5.13036e-05,2.77221e-06,6.44306e-06,0
-4.54528e-05,4.88769e-05,1.44851e-05,7.54767e-05,7.84878e-05,-3.03764e-05,4.5497e-06,6.30164e-06,0
-3.89052e-05,4.18142e-05,1.61696e-05,8.32539e-05,7.74173e-05,-9.56133e-06,7.48759e-06,7.78104e-06,0
-1.37146e-05,3.60145e-05,1.48999e-05,8.27323e-05,5.17518e-05,1.49823e-05,1.09724e-05,8.84366e-06,0
2.1531e-05,3.34766e-05,1.29709e-05,7.44492e-05,3.12582e-05,3.31777e-05,1.18626e-05,7.00606e-06,0
4.44643e-05,3.04815e-05,1.07967e-05,6.38505e-05,3.63433e-05,2.8375e-05,9.75172e-06,4.70136e-06,0
4.6006e-05,2.29373e-05,9.1839e-06,5.75395e-05,7.55057e-05,8.14534e-06,7.94955e-06,4.53907e-06,0
3.22297e-05,1.46165e-05,7.8479e-06,5.26562e-05,0.000136461,-9.47224e-06,7.99721e-06,4.84886e-06,0
9.26934e-06,1.15874e-05,5.97372e-06,4.54923e-05,0.000178692,-1.57862e-05,8.67629e-06,4.98986e-06,0
-1.60894e-05,1.38343e-05,1.95422e-06,2.62683e-05,0.000164722,-1.65509e-05,9.0573e-06,5.61614e-06,0
-2.96636e-05,1.80171e-05,-6.31869e-06,-1.47929e-05,0.000101553,-1.5538e-05,7.94115e-06,8.2131e-06,0
-2.10667e-05,2.32359e-05,-1.73148e-05,-7.9145e-05,2.36954e-05,-8.80868e-06,3.90608e-06,1.44043e-05,0
3.98314e-06,3.13508e-05,-2.72361e-05,-0.000148646,-4.24916e-05,3.22744e-06,5.45886e-07,2.27377e-05,0
2.50668e-05,4.28872e-05,-3.42434e-05,-0.000205669,-8.47248e-05,1.22892e-06,1.50727e-06,2.56053e-05,0
1.96442e-05,4.94527e-05,-3.94302e-05,-0.000247395,-0.000100176,-2.65097e-05,5.21089e-06,1.94766e-05,0
-5.5994e-06,4.58965e-05,-4.3832e-05,-0.000237033,-9.71385e-05,-5.70055e-05,6.92538e-06,1.03866e-05,0
-1.77851e-05,3.82362e-05,-4.56245e-05,-0.000150543,-8.9285e-05,-6.24684e-05,2.01237e-06,1.04675e-05,0
-8.43258e-06,3.00967e-05,-4.32971e-05,-2.71022e-05,-8.57074e-05,-4.4099e-05,-7.67289e-06,2.98448e-05,0
1.09139e-06,2.15173e-05,-3.50286e-05,8.25347e-05,-7.76209e-05,-1.52871e-05,-1.35219e-05,5.54755e-05,0
-9.92758e-06,1.20453e-05,-2.58527e-05,0.000145281,-4.65295e-05,1.16003e-05,-1.51387e-05,5.75286e-05,0
-3.30851e-05,5.45826e-06,-1.92028e-05,0.000186432,3.64358e-06,2.21286e-05,-1.53338e-05,4.02568e-05,0
-4.27771e-05,8.6886e-06,-1.03906e-05,0.000218574,5.35121e-05,4.16311e-06,-1.42497e-05,2.58509e-05,0
-2.64536e-05,1.97458e-05,6.90162e-07,0.000257549,8.76424e-05,-3.31035e-05,-1.05687e-05,2.13461e-05,0
3.65972e-06,3.14207e-05,1.1286e-05,0.000275437,9.37148e-05,-6.31788e-05,-2.71763e-06,1.82851e-05,0
2.34992e-05,3.82962e-05,1.34865e-05,0.000194622,6.47515e-05,-7.03215e-05,7.61277e-06,4.7293e-06,0
3.12769e-05,3.82088e-05,5.03037e-06,7.24322e-05,1.99772e-05,-5.1666e-05,1.71666e-05,-1.45971e-05,0
4.59174e-05,3.39125e-05,-5.75277e-06,-1.22659e-07,-4.9318e-06,-2.68574e-05,2.26281e-05,-3.99346e-05,0
6.51162e-05,3.1876e-05,-1.02463e-05,3.59667e-06,-1.85909e-06,-2.05665e-05,2.46676e-05,-6.88276e-05,0
5.67551e-05,3.41318e-05,-9.63602e-06,2.99231e-05,4.48917e-06,-4.24917e-05,2.42502e-05,-8.97307e-05,0
1.63997e-05,3.52922e-05,-1.08698e-05,3.31115e-05,3.61604e-07,-6.61355e-05,2.14922e-05,-9.09654e-05,0
-2.98671e-05,3.16644e-05,-1.55209e-05,1.43406e-05,-2.04962e-06,-4.50844e-05,1.94037e-05,-7.74211e-05,0
-6.19398e-05,2.50246e-05,-2.04063e-05,-5.64822e-06,3.76236e-06,3.09582e-05,1.7512e-05,-6.09831e-05,0
-7.75464e-05,1.74354e-05,-2.33581e-05,-2.40306e-06,1.21756e-05,9.39895e-05,9.45839e-06,-4.51886e-05,0
-8.19419e-05,9.3518e-06,-2.32077e-05,3.61849e-05,2.18795e-05,8.32023e-05,-4.24931e-06,-3.07166e-05,0
-7.82605e-05,1.9445e-06,-1.96261e-05,9.68723e-05,3.88104e-05,3.25622e-05,-1.44858e-05,-1.86377e-05,0
-7.17204e-05,-3.53325e-06,-1.60476e-05,0.000133147,6.04853e-05,9.24818e-07,-1.51106e-05,-1.10779e-05,0
-6.67543e-05,-6.6703e-06,-1.4557e-05,0.000124511,7.02251e-05,-1.60487e-06,-5.15489e-06,-7.34219e-06,0
-6.6504e-05,-7.79333e-06,-1.26502e-05,9.01229e-05,5.53263e-05,1.90931e-06,1.22945e-05,-6.96465e-06,0
-7.02501e-05,-7.80662e-06,-7.76075e-06,5.72258e-05,2.38711e-05,4.64934e-07,3.06126e-05,-6.09917e-06,0
-7.49304e-05,-8.85278e-06,-2.17548e-06,2.25199e-05,-3.75464e-06,-3.7288e-06,4.34247e-05,-2.52401e-06,0
-7.3861e-05,-1.05776e-05,5.111e-06,-2.09775e-05,-1.07854e-05,-6.34247e-06,4.89553e-05,4.94626e-06,0
-6.1488e-05,-9.66343e-06,1.71163e-05,-7.02107e-05,8.10459e-06,-5.22482e-06,4.91674e-05,1.24408e-05,0
-3.98033e-05,-6.8094e-06,3.45153e-05,-0.000112535,4.04971e-05,-3.9055e-07,4.48336e-05,1.51852e-05,0
-2.13112e-05,-4.25178e-06,5.44741e-05,-0.000133574,6.51604e-05,3.9003e-06,3.70138e-05,1.2804e-05,0
-1.72599e-05,-1.17518e-06,6.74615e-05,-0.00012596,7.28857e-05,6.51081e-06,2.92541e-05,1.13601e-05,0
-2.57313e-05,4.21886e-06,6.34853e-05,-0.000115511,6.39341e-05,5.63256e-06,2.41463e-05,1.26971e-05,0
-2.72775e-05,1.08192e-05,4.14789e-05,-8.62286e-05,4.49398e-05,2.77824e-06,2.11842e-05,1.33587e-05,0
-1.17675e-05,1.44966e-05,7.23196e-06,8.88214e-08,2.91069e-05,-3.18527e-06,2.03972e-05,9.38705e-06,0
8.71656e-06,1.6742e-05,-3.2944e-05,8.16044e-05,1.90897e-05,-9.17836e-06,2.10293e-05,3.27361e-06,0
3.23389e-05,2.17839e-05,-6.94655e-05,7.8992e-05,1.42988e-05,-8.04818e-06,2.16575e-05,-8.18806e-07,0
4.99612e-05,3.07521e-05,-9.04263e-05,1.41087e-05,1.44696e-05,-2.82972e-06,2.13909e-05,-8.65189e-07,0
4.32256e-05,3.9799e-05,-9.48411e-05,-3.64764e-05,1.46351e-05,3.26056e-06,2.15172e-05,3.65349e-06,0
1.73141e-05,4.37003e-05,-8.88253e-05,-4.67091e-05,9.47444e-06,7.72424e-06,2.28142e-05,7.63578e-06,0
-1.11335e-05,4.23489e-05,-7.56815e-05,-6.22335e-05,2.41308e-06,9.25383e-06,2.38514e-05,9.31677e-06,0
-3.30523e-05,4.17454e-05,-6.01358e-05,-0.000122595,1.34799e-06,7.43025e-06,2.38081e-05,7.20679e-06,0
-4.71297e-05,4.79391e-05,-4.72688e-05,-0.000205281,5.71758e-06,1.16413e-06,2.22739e-05,3.42065e-06,0
-5.6511e-05,5.75552e-05,-4.11646e-05,-0.000259891,1.0987e-05,-4.11461e-06,1.94819e-05,1.03413e-06,0
-6.44428e-05,6.24363e-05,-4.00107e-05,-0.00025952,1.2893e-05,1.51882e-06,1.81683e-05,1.93861e-06,0
-6.96432e-05,6.23138e-05,-3.69704e-05,-0.000216885,1.09169e-05,3.36419e-06,1.81344e-05,3.0281e-06,0
-6.84655e-05,6.20852e-05,-2.97391e-05,-0.000160261,9.15269e-06,-2.14526e-05,1.61589e-05,2.2082e-06,0
-5.95292e-05,5.8483e-05,-2.07189e-05,-0.000119289,1.09131e-05,-5.83855e-05,1.29493e-05,9.7004e-07,0
-4.12103e-05,4.38645e-05,-1.28502e-05,-0.000110807,1.37692e-05,-5.99313e-05,1.10363e-05,8.79021e-07,0
-1.77667e-05,1.84805e-05,-7.79041e-06,-0.000133301,1.19943e-05,-1.08203e-05,1.24349e-05,1.68945e-06,0
-6.38874e-06,-8.02714e-06,-5.85273e-06,-0.000141636,6.72295e-06,3.86843e-05,1.60914e-05,1.13329e-06,0
-1.78051e-05,-3.00253e-05,-5.9856e-06,-7.84809e-05,5.47185e-06,4.39401e-05,1.91992e-05,-1.3751e-06,0
-4.20678e-05,-5.32251e-05,-6.81721e-06,5.19878e-05,9.46756e-06,2.22167e-05,1.94743e-05,-4.04452e-06,0
-6.89654e-05,-7.69541e-05,-6.96378e-06,0.000172838,2.29773e-05,8.95027e-06,1.75763e-05,-4.78266e-06,0
-0.000102909,-8.59876e-05,-5.44064e-06,0.000205178,7.02156e-05,7.09928e-06,1.19736e-05,-2.83065e-06,0
-0.000153048,-7.68429e-05,-7.42662e-07,0.000147251,0.000154003,-7.04742e-06,-4.294e-06,1.0553e-06,0
-0.000205694,-6.3361e-05,4.82647e-06,4.27871e-05,0.000205453,-4.08507e-05,-2.86099e-05,3.75573e-06,0
-0.00022497,-5.7007e-05,4.46935e-06,-8.0156e-05,0.00016439,-8.3589e-05,-4.42735e-05,4.34193e-06,0
-0.000197379,-6.06777e-05,-1.67801e-06,-0.0001833,7.0653e-05,-0.000115249,-4.13936e-05,3.33875e-06,0
-0.000143599,-6.53453e-05,-8.65658e-06,-0.000231701,-1.59965e-06,-0.000103335,-2.28094e-05,1.42896e-06,0
-9.45196e-05,-5.71056e-05,-1.07556e-05,-0.000223828,-2.53476e-05,-6.28951e-05,-1.43901e-06,4.94125e-08,0
-4.85042e-05,-4.28501e-05,-5.56949e-06,-0.000176385,-3.57992e-05,-3.69351e-05,1.74224e-05,-2.52518e-07,0
-2.76773e-06,-3.60229e-05,3.60402e-06,-4.74129e-05,-5.68951e-05,-2.60334e-05,3.35731e-05,-8.60696e-07,0
2.46361e-05,-3.50674e-05,1.27193e-05,0.000167489,-8.08386e-05,4.48733e-06,4.21485e-05,-1.40379e-06,0
3.74302e-05,-3.46963e-05,1.83743e-05,0.000310262,-0.000130639,4.8005e-05,4.49505e-05,-1.96508e-06,0
3.79334e-05,-3.28985e-05,1.86797e-05,0.000277574,-0.00019481,5.2017e-05,4.45424e-05,-2.02379e-06,0
2.79863e-05,-3.17786e-05,1.54437e-05,0.000138604,-0.000199943,2.4641e-05,4.27857e-05,-1.77604e-06,0
1.4516e-05,-2.92258e-05,1.245e-05,1.38419e-05,-0.000124194,3.03762e-06,3.91518e-05,-2.09526e-06,0
-6.52937e-07,-2.06142e-05,1.22943e-05,-4.22378e-05,-4.04558e-05,-3.16033e-06,3.52206e-05,-2.15411e-06,0
-1.94221e-05,-5.30187e-06,1.38525e-05,-4.94112e-05,6.1411e-06,-5.31103e-06,3.19747e-05,-1.94531e-06,0
-3.64596e-05,9.54211e-06,1.45074e-05,-4.08928e-05,2.71329e-05,-1.49275e-05,2.87184e-05,-1.48833e-06,0
-4.30287e-05,1.86797e-05,1.36129e-05,-1.44945e-05,3.68165e-05,-2.64296e-05,2.49571e-05,-1.73828e-06,0
-3.62658e-05,2.2995e-05,1.25753e-05,1.91697e-05,3.85553e-05,-3.33983e-05,2.0807e-05,-1.87384e-07,0
-1.95617e-05,2.46862e-05,1.39152e-05,2.66496e-05,2.97628e-05,-3.317e-05,1.73754e-05,9.75618e-06,0
-2.90374e-06,2.62164e-05,1.7191e-05,-2.9255e-06,1.78552e-05,-2.99778e-05,1.60806e-05,2.78504e-05,0
4.97555e-06,2.94784e-05,2.08018e-05,-4.86905e-05,9.9904e-06,-2.3815e-05,1.71485e-05,4.14029e-05,0
7.96993e-07,3.55935e-05,2.40098e-05,-8.9393e-05,7.47358e-06,-1.21164e-05,1.7672e-05,4.11939e-05,0
-5.49795e-06,4.10893e-05,2.44079e-05,-0.000125627,4.56021e-06,6.03331e-06,1.58482e-05,3.12777e-05,0
-4.2657e-06,4.1065e-05,1.81125e-05,-0.000148401,8.29173e-07,3.39702e-05,1.32585e-05,1.7549e-05,0
-3.08009e-07,3.76706e-05,8.17544e-06,-0.000133058,5.48549e-08,6.98431e-05,1.17257e-05,2.25226e-06,0
-3.3148e-06,3.62473e-05,1.23192e-06,-7.03948e-05,1.05405e-05,8.1442e-05,1.05409e-05,-1.15526e-05,0
-9.24734e-06,3.50107e-05,-1.87079e-06,1.5563e-05,2.99171e-05,5.52075e-05,9.95409e-06,-2.13355e-05,0
-1.50016e-05,3.55929e-05,-3.85678e-06,9.27083e-05,4.18304e-05,2.05686e-05,9.10491e-06,-2.67696e-05,0
-1.85404e-05,4.12321e-05,-6.33965e-06,0.000120773,3.72827e-05,-3.62957e-06,7.43823e-06,-2.6914e-05,0
-1.50214e-05,4.92586e-05,-8.41573e-06,9.31695e-05,3.47573e-05,-1.06802e-05,6.09144e-06,-2.05983e-05,0
-6.53251e-06,5.65783e-05,-8.52993e-06,5.62749e-05,4.94755e-05,-5.87767e-06,5.85257e-06,-1.11379e-05,0
1.82637e-06,6.07741e-05,-7.05163e-06,3.26761e-05,5.82847e-05,-4.65947e-06,5.2104e-06,-1.8578e-06,0
5.04722e-06,6.00059e-05,-8.85086e-06,1.26926e-05,3.30488e-05,-1.0897e-05,4.36816e-06,4.45339e-06,0
1.77861e-06,5.56274e-05,-1.39631e-05,1.43617e-06,-4.02237e-06,-2.14854e-05,5.52285e-06,7.53281e-06,0
-6.41803e-06,4.72996e-05,-1.77201e-05,-8.03976e-06,-3.27429e-06,-3.37092e-05,6.89748e-06,1.11967e-05,0
-1.65775e-05,3.59265e-05,-1.77173e-05,-3.29974e-05,4.02777e-05,-3.84165e-05,7.97648e-06,1.41996e-05,0
-2.63341e-05,2.4489e-05,-1.54017e-05,-7.18304e-05,7.54144e-05,-3.43729e-05,9.6403e-06,1.66372e-05,0
-3.43386e-05,1.37879e-05,-1.58015e-05,-8.87971e-05,6.35503e-05,-2.48877e-05,1.03271e-05,1.82448e-05,0
-4.07402e-05,5.61232e-06,-1.84097e-05,-7.48503e-05,1.18532e-05,-1.57239e-05,9.88682e-06,1.97494e-05,0
-4.76051e-05,1.75621e-06,-2.10985e-05,-6.67049e-05,-4.10858e-05,-1.24861e-05,9.0494e-06,2.10801e-05,0
-5.35411e-05,-2.90722e-07,-2.16648e-05,-8.5189e-05,-4.51085e-05,-1.10351e-05,9.71337e-06,2.08898e-05,0
-5.5241e-05,-1.59897e-06,-2.04727e-05,-9.85747e-05,7.96485e-06,-1.41832e-05,1.04022e-05,1.92999e-05,0
-5.42767e-05,4.16075e-06,-1.82953e-05,-3.02209e-05,0.000100484,-2.48675e-05,7.31728e-06,1.7134e-05,0
-5.3657e-05,1.46729e-05,-1.33564e-05,0.000145824,0.000198183,-3.55851e-05,2.09682e-06,1.59006e-05,0
-5.44477e-05,2.12986e-05,-6.36962e-06,0.000342032,0.000242571,-3.92669e-05,-1.05252e-06,1.42796e-05,0
-5.38027e-05,2.00877e-05,9.39402e-08,0.000428402,0.000195329,-3.38315e-05,1.08789e-07,1.36469e-05,0
-4.5288e-05,1.68578e-05,3.57689e-06,0.000371567,8.55191e-05,-2.14069e-05,4.2617e-06,1.33048e-05,0
-3.16455e-05,1.62999e-05,4.06588e-06,0.000255688,-1.70924e-05,-1.07702e-05,8.03758e-06,9.92816e-06,0
-2.15629e-05,1.73264e-05,3.62237e-06,0.000185418,-6.66257e-05,-7.72438e-06,7.3788e-06,3.31869e-06,0
-1.41878e-05,1.92252e-05,5.5375e-06,0.000173598,-6.45055e-05,-7.75034e-06,3.30582e-06,-3.52597e-06,0
-2.84445e-06,2.23991e-05,8.02924e-06,0.000140443,-4.08789e-05,-5.15043e-06,5.35253e-07,-1.00166e-05,0
1.27278e-05,2.76106e-05,8.39707e-06,2.56685e-05,-3.19537e-05,6.37871e-07,4.3024e-07,-1.43039e-05,0
2.65496e-05,3.32955e-05,6.17441e-06,-0.000132744,-5.06203e-05,5.74784e-06,7.38067e-07,-1.2226e-05,0
3.80166e-05,4.0492e-05,3.04357e-06,-0.000261012,-6.97789e-05,5.87601e-06,-2.42642e-07,-5.81684e-06,0
4.68358e-05,5.13346e-05,8.0413e-07,-0.000322523,-6.21351e-05,-2.89325e-06,-9.91724e-07,-6.22677e-07,0
5.22623e-05,6.5712e-05,-1.63859e-06,-0.000299427,-2.53427e-05,-1.96125e-05,-1.5027e-06,1.26181e-06,0
5.66316e-05,7.96374e-05,-4.12801e-06,-0.000197976,3.5241e-05,-3.56097e-05,-3.01891e-06,1.8143e-06,0
6.11387e-05,8.92077e-05,-5.59507e-06,-6.8226e-05,9.92484e-05,-4.33343e-05,-4.66851e-06,3.05562e-06,0
5.51377e-05,8.79565e-05,-7.57133e-06,1.1014e-05,0.000119826,-4.38705e-05,-4.61166e-06,3.16844e-06,0
2.71929e-05,7.25836e-05,-1.09098e-05,1.46404e-05,7.06171e-05,-4.90127e-05,-3.25297e-06,9.22716e-07,0
-1.77629e-05,4.57897e-05,-1.43466e-05,1.39355e-05,-1.21011e-06,-6.0478e-05,-2.7899e-06,5.17955e-07,0
-6.85639e-05,1.16454e-05,-1.67382e-05,3.69733e-05,-4.62261e-05,-3.45991e-05,-1.79936e-06,3.61358e-06,0
-0.000115327,-2.68107e-05,-1.81193e-05,8.46684e-05,-6.99083e-05,3.01501e-05,2.327e-07,6.10451e-06,0
-0.000149358,-6.67584e-05,-2.02145e-05,0.000142261,-7.00296e-05,6.92421e-05,1.52936e-06,5.90547e-06,0
-0.000163548,-9.61262e-05,-2.3261e-05,0.000140539,-5.03874e-05,5.53841e-05,4.52661e-06,2.6744e-06,0
-0.000159687,-0.00010483,-2.44681e-05,6.22034e-05,-2.07999e-05,9.65487e-06,9.99444e-06,-1.81173e-06,0
-0.000145902,-9.77013e-05,-2.33699e-05,-3.99407e-05,9.62133e-06,-2.22085e-05,1.27872e-05,-4.39471e-06,0
-0.00012603,-8.47875e-05,-2.15561e-05,-8.55303e-05,2.60908e-05,-3.20413e-05,1.21393e-05,-5.15545e-06,0
-9.99745e-05,-6.99698e-05,-1.92704e-05,-5.39417e-05,2.04015e-05,-3.76076e-05,1.00025e-05,-5.01054e-06,0
-7.09456e-05,-5.02112e-05,-1.73344e-05,2.51532e-05,3.03999e-06,-4.55108e-05,9.01474e-06,-4.23108e-06,0
-4.39611e-05,-2.37559e-05,-1.55685e-05,8.58388e-05,-3.10305e-06,-5.49679e-05,1.08765e-05,-2.58536e-06,0
-2.92372e-05,6.91682e-06,-1.46456e-05,9.60161e-05,7.13573e-06,-6.05551e-05,1.34151e-05,-1.60424e-06,0
-3.04707e-05,4.30799e-05,-1.47601e-05,9.0566e-05,2.80191e-05,-4.30954e-05,1.40067e-05,-1.4587e-06,0
-2.81037e-05,9.07537e-05,-1.51901e-05,8.8774e-05,4.86319e-05,1.85982e-06,1.32546e-05,-9.03173e-07,0
6.87532e-07,0.000143301,-1.54165e-05,7.63142e-05,5.41794e-05,3.69159e-05,1.46623e-05,-3.40022e-07,0
5.07592e-05,0.000179991,-1.61255e-05,2.92823e-05,3.74164e-05,4.60333e-05,1.8197e-05,-5.34177e-07,0
9.07795e-05,0.000189754,-1.57046e-05,-4.59854e-05,1.35781e-05,4.74278e-05,2.07239e-05,-7.87257e-07,0
0.000102461,0.000177265,-1.15433e-05,-0.00010441,-1.52523e-06,5.33122e-05,2.09251e-05,-5.36798e-07,0
9.44834e-05,0.000143604,-6.0775e-06,-9.79645e-05,-5.54604e-06,4.90206e-05,2.06281e-05,-7.32567e-07,0
6.99524e-05,8.56716e-05,-2.56714e-06,-4.19116e-05,1.21763e-06,2.0847e-05,1.98846e-05,-1.04428e-06,0
1.88279e-05,1.65329e-05,-1.05709e-06,3.26557e-06,1.4813e-05,-2.76165e-05,1.96653e-05,-1.77751e-06,0
-4.76866e-05,-4.66586e-05,-2.5127e-06,-5.78076e-06,2.10561e-05,-6.11973e-05,1.94186e-05,-4.31351e-06,0
-0.000105403,-0.000103867,-7.88157e-06,-4.95933e-05,3.75103e-05,-5.41676e-05,1.92845e-05,-6.63764e-06,0
-0.000141443,-0.000153372,-1.59079e-05,-9.46267e-05,9.26783e-05,-2.53673e-05,2.00317e-05,-4.91134e-06,0
-0.000157822,-0.000173814,-2.26935e-05,-0.00014344,0.000141335,-1.18335e-05,1.93377e-05,-2.18128e-07,0
-0.000160385,-0.000152294,-2.39316e-05,-0.000185431,0.000109129,-2.75297e-05,1.70591e-05,1.31056e-06,0
-0.000153271,-0.000106023,-2.17759e-05,-0.000195363,2.17508e-05,-5.33045e-05,1.73525e-05,-2.10013e-06,0
-0.000142523,-6.12702e-05,-1.83903e-05,-0.000174297,-3.41252e-05,-7.22341e-05,2.1016e-05,-1.40416e-06,0
-0.000115245,-2.90473e-05,-1.64665e-05,-0.000128577,-3.38509e-05,-8.03598e-05,2.35871e-05,1.4047e-05,0
-6.22251e-05,-2.44116e-06,-1.74689e-05,-8.2074e-05,-2.90111e-05,-8.49348e-05,2.45416e-05,3.21209e-05,0
-1.10628e-05,2.03572e-05,-1.99942e-05,-6.00625e-05,-6.16766e-05,-5.20891e-05,2.46849e-05,3.88389e-05,0
1.63481e-05,3.04754e-05,-2.00002e-05,-5.31231e-05,-8.77254e-05,2.44972e-05,2.47687e-05,3.38502e-05,0
2.27151e-05,2.73428e-05,-1.65403e-05,-4.69262e-05,-7.23508e-05,6.85966e-05,2.47643e-05,1.54912e-05,0
1.35164e-05,1.56441e-05,-1.42616e-05,-3.56699e-05,-3.84351e-05,5.5713e-05,2.38736e-05,-1.13286e-05,0
-2.17533e-06,1.03319e-06,-1.45736e-05,-1.87693e-05,-9.99115e-06,2.30923e-05,2.14677e-05,-3.70611e-05,0
-1.76359e-05,-1.13903e-05,-1.69752e-05,-4.64531e-06,1.87653e-05,2.52728e-06,1.70403e-05,-5.07139e-05,0
-3.29606e-05,-2.97988e-05,-1.91384e-05,-5.49292e-06,4.97916e-05,-4.07678e-06,1.08879e-05,-5.15391e-05,0
-5.20229e-05,-6.72746e-05,-1.74505e-05,-2.65938e-06,6.11578e-05,1.72625e-05,5.04959e-06,-4.73163e-05,0
-6.92767e-05,-9.69722e-05,-1.02812e-05,3.13185e-05,5.24282e-05,8.60964e-05,2.61645e-06,-4.17316e-05,0
-7.63318e-05,-7.83914e-05,-1.52261e-06,7.96001e-05,4.98743e-05,0.000143867,4.37163e-06,-3.25979e-05,0
-7.40352e-05,-2.13224e-05,2.31479e-06,9.49923e-05,6.98479e-05,0.00010397,8.47976e-06,-1.97246e-05,0
-6.34134e-05,3.27984e-05,-1.456e-06,7.40226e-05,8.74532e-05,-1.39027e-05,1.2447e-05,-8.97828e-06,0
-3.88241e-05,6.26227e-05,-8.64443e-06,5.27558e-05,7.26684e-05,-9.11564e-05,1.60419e-05,-3.52202e-06,0
-6.08952e-06,7.61136e-05,-1.43505e-05,4.72806e-05,2.75962e-05,-7.87307e-05,1.94308e-05,-1.31079e-06,0
1.12892e-05,8.27421e-05,-1.69046e-05,4.54777e-05,-1.87651e-05,-3.5702e-05,2.22738e-05,8.39774e-07,0
5.34065e-06,8.41791e-05,-1.55317e-05,3.79274e-05,-4.55331e-05,-2.24193e-05,2.39127e-05,4.72374e-06,0
-1.33332e-05,7.86959e-05,-9.80234e-06,3.0975e-05,-6.13685e-05,-3.5888e-05,2.41589e-05,9.94042e-06,0
-3.58874e-05,7.01223e-05,-1.86054e-06,2.564e-05,-7.57372e-05,-4.0645e-05,2.37923e-05,1.17995e-05,0
-5.48425e-05,6.29688e-05,3.62919e-06,1.30971e-05,-8.07421e-05,-2.00482e-05,2.48396e-05,8.66481e-06,0
-5.40168e-05,5.45456e-05,4.26788e-06,-4.32599e-06,-6.61055e-05,6.94225e-06,2.80068e-05,4.22611e-06,0
-2.34366e-05,4.53734e-05,3.14279e-06,-1.35834e-05,-4.0861e-05,2.18026e-05,3.03742e-05,3.55198e-06,0
8.41284e-06,4.16808e-05,4.26337e-06,-8.87428e-06,-2.85853e-05,2.05397e-05,2.86063e-05,5.88721e-06,0
-3.62616e-06,4.10625e-05,7.48079e-06,1.08726e-05,-2.81188e-05,2.17848e-06,2.41575e-05,6.58395e-06,0
-4.37644e-05,3.67551e-05,7.69154e-06,3.35844e-05,-2.33121e-05,-1.68692e-05,2.26435e-05,5.98485e-06,0
-6.36217e-05,3.02337e-05,3.82963e-06,3.51577e-05,-7.05553e-06,-2.3206e-05,2.42408e-05,5.81505e-06,0
-5.10038e-05,2.73674e-05,1.50323e-06,1.42818e-05,2.89775e-05,-1.94009e-05,2.76613e-05,5.79603e-06,0
-2.34023e-05,3.2535e-05,3.11719e-06,-4.86994e-06,6.6891e-05,-1.33235e-05,2.98671e-05,5.54312e-06,0
-5.66908e-06,4.03993e-05,6.44935e-06,-5.86592e-06,8.99295e-05,-1.29553e-05,2.86278e-05,6.55619e-06,0
-1.89537e-06,4.09827e-05,7.15723e-06,1.17703e-05,0.000113509,-1.54236e-05,2.53718e-05,7.70613e-06,0
-2.53473e-06,3.31346e-05,5.2686e-06,2.81863e-05,0.000131985,-1.29809e-05,2.12542e-05,7.4438e-06,0
-1.97901e-06,2.40119e-05,3.11568e-06,1.98235e-05,0.00011351,-2.50458e-06,1.72174e-05,6.53706e-06,0
-1.00684e-06,1.79475e-05,1.78667e-06,-3.5196e-06,5.94509e-05,4.09172e-06,1.30168e-05,4.80327e-06,0
-1.2952e-06,1.5365e-05,9.67008e-07,-1.44835e-05,5.75726e-06,-6.26993e-06,9.13814e-06,3.90969e-06,0
-7.02779e-06,1.69097e-05,6.83541e-07,-5.45541e-06,-2.467e-05,-2.60487e-05,4.64117e-06,7.94646e-06,0
-2.45809e-05,2.35489e-05,-9.96403e-08,9.44128e-06,-3.46908e-05,-4.00537e-05,6.29926e-07,1.74019e-05,0
-5.16962e-05,3.52592e-05,-1.91873e-06,1.36036e-05,-3.28558e-05,-4.62747e-05,-9.94099e-07,2.40382e-05,0
-7.57147e-05,4.8843e-05,-5.8026e-06,5.43574e-06,-2.21814e-05,-5.32734e-05,-6.91693e-07,2.12895e-05,0
-8.18271e-05,5.743e-05,-1.20023e-05,-1.59227e-06,-6.92787e-06,-5.86086e-05,6.8199e-08,1.23623e-05,0
-6.66054e-05,5.50599e-05,-1.71187e-05,4.20566e-06,6.60805e-06,-6.08513e-05,3.68716e-08,3.93509e-06,0
-3.7138e-05,4.40784e-05,-1.97515e-05,1.53565e-05,1.30548e-05,-6.06423e-05,-1.05663e-06,-1.18472e-06,0
2.01794e-06,3.35121e-05,-2.11304e-05,2.1204e-05,1.06308e-05,-3.72069e-05,-1.58342e-06,-5.82548e-06,0
5.3278e-05,3.17711e-05,-2.16433e-05,2.1729e-05,3.31887e-06,2.77198e-05,-1.35035e-08,-1.21471e-05,0
0.000106165,4.14199e-05,-1.82303e-05,1.75417e-05,8.86887e-07,8.78973e-05,3.0809e-06,-1.74874e-05,0
0.000130793,5.92582e-05,-1.11408e-05,7.06317e-06,3.80358e-06,8.39517e-05,5.3107e-06,-1.79274e-05,0
0.000113639,7.39032e-05,-5.41426e-06,-1.62478e-05,-7.69036e-07,4.2894e-05,5.78754e-06,-1.22951e-05,0
7.72187e-05,7.29248e-05,-5.16068e-06,-5.25427e-05,-2.00044e-05,2.44281e-05,5.51271e-06,-5.33838e-06,0
4.04607e-05,5.59831e-05,-8.49349e-06,-6.91895e-05,-3.9118e-05,2.96247e-05,3.37426e-06,5.14491e-07,0
5.15685e-06,3.48136e-05,-1.03567e-05,-5.23941e-05,-3.63495e-05,2.95248e-05,-5.92279e-07,1.53166e-05,0
-2.89053e-05,1.51545e-05,-8.81336e-06,-3.48618e-05,-1.47238e-05,1.14142e-05,-4.01573e-06,3.58236e-05,0
-7.2113e-05,-1.26422e-05,-8.07838e-06,-3.68295e-05,9.46769e-06,-2.98308e-05,-2.707e-06,4.05205e-05,0
-0.000114061,-4.36966e-05,-1.1108e-05,-7.5507e-05,3.38347e-05,-7.37915e-05,2.71568e-06,2.40104e-05,0
-0.000129946,-6.68926e-05,-1.5043e-05,-0.000145509,6.03247e-05,-8.39522e-05,8.01693e-06,9.23726e-07,0
-0.000116355,-7.32164e-05,-1.77339e-05,-0.000179273,6.80106e-05,-6.47551e-05,1.1398e-05,-1.64585e-05,0
-8.37736e-05,-6.47281e-05,-1.71651e-05,-0.000141674,3.79552e-05,-4.66465e-05,1.17714e-05,-2.80768e-05,0
-5.42545e-05,-5.86242e-05,-1.39282e-05,-5.33431e-05,-1.34211e-05,-4.31275e-05,1.08109e-05,-3.54327e-05,0
-3.63739e-05,-5.54784e-05,-1.06825e-05,6.81211e-05,-4.9384e-05,-3.94527e-05,9.7166e-06,-3.99369e-05,0
-2.90845e-05,-5.58721e-05,-9.59955e-06,0.000176155,-5.98477e-05,-2.84966e-05,7.82356e-06,-4.02299e-05,0
-2.99465e-05,-5.82584e-05,-1.32388e-05,0.000244803,-5.83734e-05,-2.28433e-05,6.21481e-06,-3.41378e-05,0
-3.596e-05,-5.68668e-05,-1.72272e-05,0.000279546,-4.80968e-05,-2.57334e-05,5.42046e-06,-2.43589e-05,0
-4.44139e-05,-4.71048e-05,-1.61412e-05,0.000270661,-2.75499e-05,-2.83994e-05,3.98786e-06,-1.24595e-05,0
-5.18469e-05,-3.17899e-05,-1.0094e-05,0.000189733,-4.76696e-06,-2.7864e-05,2.88687e-06,-6.9222e-07,0
-5.48743e-05,-1.8552e-05,-4.90394e-06,3.62054e-05,5.84724e-06,-3.20076e-05,2.52413e-06,5.70651e-06,0
-5.29726e-05,-8.6446e-06,-2.87452e-06,-0.000113547,1.57832e-05,-3.91046e-05,-5.83849e-07,6.57747e-06,0
-5.16018e-05,-2.84045e-06,-2.37701e-06,-0.000194687,4.43089e-05,-3.12231e-05,-2.59674e-06,5.58467e-06,0
-5.20285e-05,-8.87169e-07,-3.34851e-06,-0.000196267,9.36964e-05,-4.84115e-06,4.48923e-06,4.66239e-06,0
-5.35174e-05,-1.78714e-06,-4.96305e-06,-0.000131752,0.000157172,1.53292e-05,1.97199e-05,5.85353e-06,0
-5.19387e-05,-2.41608e-06,-6.18377e-06,-3.69518e-05,0.000212539,1.65168e-05,3.47929e-05,8.05347e-06,0
-4.73004e-05,-1.47463e-06,-7.83865e-06,3.28747e-05,0.000222848,9.8088e-06,4.32783e-05,9.0411e-06,0
-4.17847e-05,3.23164e-07,-1.21342e-05,7.27434e-05,0.000171674,6.72023e-06,4.5093e-05,9.28381e-06,0
-3.89183e-05,1.14314e-06,-1.58755e-05,9.9774e-05,8.39534e-05,3.91188e-06,4.25614e-05,9.39275e-06,0
-3.92069e-05,2.57094e-06,-1.61801e-05,7.98034e-05,3.04164e-06,-5.22499e-06,3.55873e-05,7.88164e-06,0
-4.17435e-05,3.16716e-06,-1.3843e-05,2.47621e-05,-3.97447e-05,-1.87517e-05,2.40124e-05,6.26009e-06,0
-4.32456e-05,1.30267e-06,-1.35377e-05,2.2547e-05,-4.47148e-05,-2.85917e-05,1.21932e-05,6.14595e-06,0
-4.34959e-05,1.8219e-07,-1.45116e-05,9.72171e-05,-2.87891e-05,-3.06683e-05,4.84931e-06,7.1768e-06,0
-4.33027e-05,3.94867e-06,-1.1809e-05,0.000185559,-4.12257e-06,-2.70759e-05,1.15994e-06,8.26498e-06,0
-4.10663e-05,9.91537e-06,-4.10806e-06,0.000249451,1.60574e-05,-2.27912e-05,-1.35002e-06,9.38202e-06,0
-3.40091e-05,1.96816e-05,5.36926e-06,0.00025266,1.76037e-05,-1.21259e-05,-6.86289e-07,1.04016e-05,0
-2.41986e-05,4.21098e-05,1.21571e-05,0.000119581,-4.21059e-06,1.9513e-06,3.76264e-06,1.199e-05,0
-1.88783e-05,7.22935e-05,1.35485e-05,-8.15252e-05,-3.08007e-05,2.74021e-05,9.52816e-06,1.5096e-05,0
-2.31189e-05,9.89695e-05,9.97261e-06,-0.00021389,-4.0556e-05,5.81572e-05,1.34049e-05,1.64006e-05,0
-3.52931e-05,0.000114053,4.48055e-06,-0.000234333,-3.72086e-05,4.49821e-05,1.39885e-05,1.60462e-05,0
-3.55597e-05,0.000113547,2.33925e-07,-0.000161263,-3.17586e-05,7.41456e-06,1.34394e-05,1.44911e-05,0
-1.89496e-05,9.15631e-05,1.45222e-07,-9.70276e-05,-2.85902e-05,-2.90708e-06,1.38772e-05,1.18793e-05,0
-1.58782e-07,4.78988e-05,-1.24324e-06,-0.000114019,-2.08558e-05,9.15187e-06,1.42562e-05,8.69233e-06,0
1.09571e-05,6.04377e-07,-9.98471e-06,-0.000171646,-6.07596e-06,1.49434e-05,9.59619e-06,4.81451e-06,0
1.16363e-05,-3.36034e-05,-2.27242e-05,-0.000170853,1.26028e-05,6.00755e-06,-3.32943e-06,2.85445e-06,0
8.84112e-06,-5.04314e-05,-3.06069e-05,-0.000100314,2.63515e-05,-8.02683e-06,-1.91318e-05,2.35602e-06,0
1.30573e-05,-5.53765e-05,-3.02481e-05,-5.86696e-06,3.13413e-05,-1.75754e-05,-2.85346e-05,2.40381e-06,0
1.9327e-05,-5.13646e-05,-2.42942e-05,6.60867e-05,3.95877e-05,-2.05109e-05,-2.7918e-05,3.77537e-06,0
1.39144e-05,-3.7568e-05,-1.64788e-05,8.2574e-05,5.41116e-05,-2.01242e-05,-1.98111e-05,6.00358e-06,0
-8.65044e-06,-2.004e-05,-1.06287e-05,3.96154e-05,5.74715e-05,-1.84835e-05,-9.03769e-06,7.57798e-06,0
-3.6635e-05,-7.43812e-06,-7.48589e-06,-5.15581e-05,4.03453e-05,-1.02615e-05,3.03893e-06,7.21078e-06,0
-5.2019e-05,-2.89022e-06,-4.35191e-06,-0.000154121,1.83831e-05,1.93405e-05,1.59866e-05,5.6757e-06,0
-5.39456e-05,-2.55063e-06,-6.13917e-07,-0.000245544,3.35465e-06,6.16637e-05,2.73695e-05,4.59867e-06,0
-5.81112e-05,-5.17696e-06,-6.90493e-07,-0.0003136,-4.7655e-06,7.60923e-05,3.47172e-05,4.93217e-06,0
-6.62173e-05,-1.04144e-05,-6.1176e-06,-0.000331554,-8.91954e-06,5.16692e-05,3.76177e-05,6.04855e-06,0
-6.22148e-05,-1.57426e-05,-1.19473e-05,-0.000262591,-9.99255e-06,2.10814e-05,3.65844e-05,5.33432e-06,0
-4.32884e-05,-1.51012e-05,-1.30808e-05,-0.000122666,-9.07536e-06,-6.2299e-07,3.43753e-05,2.85908e-06,0
-2.34846e-05,-6.55127e-06,-9.09738e-06,2.61832e-05,-5.69346e-06,-2.42816e-05,3.27555e-05,1.81275e-06,0
-1.90668e-05,1.7799e-06,-5.08912e-06,0.000119414,-1.25624e-06,-4.69126e-05,3.13324e-05,2.83834e-06,0
-3.01514e-05,2.47877e-06,-5.83717e-06,0.000157751,6.54845e-06,-5.13811e-05,3.10593e-05,3.58682e-06,0
-4.26033e-05,1.65323e-07,-9.62107e-06,0.000161288,2.54442e-05,-4.31326e-05,3.04852e-05,2.77146e-06,0
-4.71496e-05,-7.23548e-07,-1.60741e-05,0.000138365,4.49719e-05,-3.40529e-05,2.91038e-05,1.56926e-06,0
-4.36254e-05,-2.70983e-06,-2.31315e-05,0.000119682,3.01841e-05,-2.59782e-05,2.69121e-05,3.50797e-07,0
-3.5695e-05,-3.1385e-06,-2.64668e-05,0.000104272,-1.80085e-05,-1.90467e-05,2.41311e-05,4.43034e-07,0
-3.08067e-05,4.00262e-07,-2.54937e-05,6.38785e-05,-5.18647e-05,-1.31777e-05,2.01213e-05,1.31672e-06,0
-2.85251e-05,5.27531e-06,-2.23128e-05,9.7519e-06,-3.46683e-05,-1.08785e-05,1.62836e-05,4.88247e-07,0
-2.56274e-05,1.09957e-05,-1.84625e-05,-3.3816e-05,3.71579e-06,-1.30952e-05,1.44309e-05,-2.6577e-06,0
-2.53748e-05,1.7197e-05,-1.45359e-05,-6.08818e-05,-2.21626e-07,-2.0008e-05,1.3714e-05,-5.94687e-06,0
-2.55901e-05,2.28325e-05,-1.22356e-05,-7.47195e-05,-3.41851e-05,-2.68624e-05,9.45225e-06,-7.85661e-06,0
-1.40902e-05,3.02701e-05,-1.0693e-05,-7.78609e-05,-5.18612e-05,-2.99536e-05,-5.89421e-06,-7.12567e-06,0
1.07109e-05,4.15333e-05,-1.02126e-05,-7.89906e-05,-3.00785e-05,-2.76511e-05,-2.65097e-05,-6.14377e-06,0
3.09884e-05,5.22183e-05,-1.20865e-05,-7.73692e-05,2.48227e-05,-2.19177e-05,-3.7113e-05,-6.68468e-06,0
3.97565e-05,5.80881e-05,-1.55887e-05,-5.42667e-05,0.000102276,-1.39813e-05,-3.25409e-05,-6.46974e-06,0
4.62136e-05,6.35476e-05,-1.65808e-05,-1.79388e-05,0.000173988,6.67048e-06,-1.793e-05,-5.84696e-06,0
4.88042e-05,7.1906e-05,-1.34599e-05,9.83532e-06,0.00018178,3.66465e-05,1.70989e-06,-5.7042e-06,0
3.09534e-05,7.78485e-05,-8.57974e-06,2.69234e-05,0.000113899,4.8847e-05,2.47768e-05,-6.81486e-06,0
-7.40136e-06,7.29725e-05,-5.04157e-06,5.11621e-05,3.06097e-05,3.15155e-05,4.84831e-05,-8.29844e-06,0
-4.59149e-05,5.5212e-05,-4.99636e-06,7.72701e-05,-1.31126e-06,-1.27937e-06,6.72351e-05,-1.00372e-05,0
-6.82868e-05,3.07664e-05,-6.95446e-06,8.59476e-05,8.61982e-06,-2.86277e-05,7.50449e-05,-1.05444e-05,0
-7.29634e-05,9.08939e-06,-8.52248e-06,7.06143e-05,9.57951e-06,-4.16256e-05,6.50556e-05,-9.36707e-06,0
-6.68756e-05,-3.45926e-06,-8.33492e-06,4.79831e-05,-1.83917e-05,-4.82055e-05,3.78933e-05,-8.05148e-06,0
-6.02825e-05,-3.15865e-06,-5.74855e-06,4.09882e-05,-5.23033e-05,-5.64736e-05,9.02301e-06,-7.93301e-06,0
-5.84213e-05,4.78347e-06,-5.33064e-07,5.9068e-05,-6.46496e-05,-6.25939e-05,-6.19746e-06,-6.93344e-06,0
-5.99031e-05,6.64469e-06,5.32693e-06,8.62289e-05,-4.39058e-05,-5.94265e-05,-6.54403e-06,-4.50658e-06,0
-6.53337e-05,-3.98309e-06,1.01573e-05,9.53505e-05,-3.18421e-06,-3.99209e-05,6.82763e-07,-3.6651e-06,0
-7.67807e-05,-2.0111e-05,1.28038e-05,6.45081e-05,3.16864e-05,-4.34492e-06,8.67453e-06,-4.2702e-06,0
-9.48489e-05,-3.07844e-05,1.35513e-05,6.81493e-06,4.25359e-05,3.33e-05,1.65319e-05,-3.31432e-06,0
-0.000107934,-3.28832e-05,1.24666e-05,-2.95696e-05,3.4975e-05,5.26855e-05,2.31298e-05,-1.75482e-07,0
-9.63604e-05,-3.52823e-05,1.10411e-05,-3.9104e-05,2.78527e-05,5.11145e-05,2.6919e-05,1.77979e-06,0
-6.51713e-05,-4.54731e-05,1.00086e-05,-6.48976e-05,8.23022e-06,3.73399e-05,2.91913e-05,1.3559e-06,0
-4.58841e-05,-5.62219e-05,7.54884e-06,-0.000117001,-3.66234e-05,-1.39303e-06,2.97814e-05,-4.19147e-07,0
-3.44569e-05,-6.1511e-05,4.50377e-06,-0.000153472,-6.95358e-05,-3.40692e-05,2.73654e-05,-1.69246e-06,0
-1.5337e-05,-5.85984e-05,1.53235e-06,-0.000138907,-6.86536e-05,-3.17429e-05,2.38112e-05,-1.88516e-06,0
-7.19894e-07,-4.71967e-05,-1.78983e-06,-8.84068e-05,-6.17781e-05,-2.67713e-05,1.9187e-05,-1.93137e-06,0
-5.20172e-06,-3.06638e-05,-7.36344e-06,-5.0834e-05,-6.83706e-05,-1.91296e-05,1.40641e-05,-2.61228e-06,0
-3.14373e-05,-6.85484e-06,-1.37221e-05,-5.27585e-05,-7.47536e-05,2.23031e-07,1.26482e-05,-3.42597e-06,0
-6.01147e-05,1.80138e-05,-1.6186e-05,-5.68169e-05,-5.27368e-05,5.39409e-06,1.26205e-05,-3.82312e-06,0
-7.69344e-05,3.11958e-05,-1.30015e-05,6.05148e-06,-1.47547e-05,-6.91569e-06,1.13074e-05,-3.17594e-06,0
-8.10238e-05,3.72458e-05,-7.09837e-06,0.000117657,7.05495e-06,-1.68486e-05,8.8709e-06,-1.3593e-06,0
-8.04223e-05,4.46723e-05,-1.41948e-06,0.000186114,9.77732e-06,-2.72929e-05,7.07275e-06,3.58344e-06,0
-7.61257e-05,4.64197e-05,6.58199e-07,0.000158553,1.32447e-05,-4.51625e-05,5.26277e-06,1.70883e-05,0
-6.12244e-05,3.75458e-05,-6.53083e-07,7.27998e-05,2.86158e-05,-6.17948e-05,2.29322e-06,3.44793e-05,0
-3.53232e-05,2.69965e-05,8.10151e-07,-1.84173e-06,5.1653e-05,-6.06956e-05,-2.30704e-08,4.29982e-05,0
-7.05798e-06,2.62153e-05,7.69456e-06,-3.49182e-05,6.79873e-05,-3.52335e-05,-5.96725e-07,3.89277e-05,0
1.33083e-05,3.58404e-05,1.37831e-05,-2.60721e-05,6.00827e-05,-9.04251e-06,6.8477e-07,2.4498e-05,0
2.81713e-05,4.93004e-05,9.93499e-06,2.71375e-05,3.18787e-05,3.44207e-06,2.70428e-06,2.55574e-06,0
4.92433e-05,6.12623e-05,-1.82241e-06,0.000107982,4.58422e-06,2.71775e-05,3.86058e-06,-2.25646e-05,0
7.44424e-05,6.99817e-05,-1.16977e-05,0.000155772,-8.12006e-06,7.01495e-05,2.47563e-06,-4.17132e-05,0
7.7284e-05,7.5117e-05,-1.36175e-05,0.000121297,-7.90951e-06,9.96194e-05,-9.28295e-07,-4.72938e-05,0
4.80984e-05,7.34659e-05,-1.04509e-05,3.68819e-05,-1.38141e-07,9.02758e-05,-2.75668e-06,-4.16791e-05,0
8.52224e-06,6.40896e-05,-6.30612e-06,-1.79824e-05,9.10885e-06,4.90448e-05,-3.29642e-07,-3.29311e-05,0
-2.02095e-05,4.75534e-05,-3.94068e-06,-2.59492e-05,2.29268e-05,6.45029e-06,3.03062e-06,-2.53283e-05,0
-4.00233e-05,2.11107e-05,-5.9936e-06,-4.3528e-05,4.51075e-05,-2.9484e-05,5.09089e-06,-1.53462e-05,0
-5.64471e-05,-1.00415e-05,-1.07325e-05,-9.22651e-05,6.46408e-05,-8.22981e-05,6.81699e-06,-3.0464e-06,0
-7.0159e-05,-3.15718e-05,-1.39274e-05,-0.000124368,7.09422e-05,-0.000131722,8.9552e-06,5.80742e-06,0
-7.82319e-05,-3.4867e-05,-1.70585e-05,-0.000123224,6.86652e-05,-0.000120193,1.13856e-05,1.0253e-05,0
-6.45807e-05,-2.01828e-05,-2.16306e-05,-6.10316e-05,7.24052e-05,-3.7672e-05,1.20147e-05,1.42545e-05,0
-3.51812e-05,-2.57732e-06,-2.35973e-05,7.13887e-05,7.89172e-05,6.95372e-05,1.18395e-05,1.76826e-05,0
-1.4219e-05,3.49825e-06,-2.53044e-05,0.000178576,6.8872e-05,0.00011723,1.17248e-05,2.09843e-05,0
-1.8376e-06,7.08088e-06,-2.50326e-05,0.000172651,4.57719e-05,7.546e-05,1.22235e-05,2.64529e-05,0
5.53687e-06,1.46551e-05,-2.09262e-05,7.91258e-05,2.61385e-05,1.55921e-05,1.4279e-05,2.85241e-05,0
-1.09915e-07,2.1223e-05,-1.89465e-05,-1.55967e-05,9.31161e-06,-1.22499e-05,1.51879e-05,2.5132e-05,0
-2.31665e-05,2.68667e-05,-1.76754e-05,-6.78911e-05,-9.72638e-06,-1.31351e-05,1.48204e-05,2.06476e-05,0
-4.61423e-05,2.91272e-05,-1.32536e-05,-6.36221e-05,-2.09705e-05,-7.92485e-06,1.53915e-05,1.54053e-05,0
-5.23751e-05,2.59031e-05,-5.05054e-06,-2.59325e-05,-1.61394e-05,-1.48569e-06,1.64238e-05,8.0434e-06,0
-4.78894e-05,1.94119e-05,6.29491e-06,-4.06758e-06,6.33678e-07,1.04617e-05,1.69494e-05,-1.56558e-06,0
-5.51562e-05,1.11168e-05,2.15656e-05,-1.49884e-05,1.7363e-05,1.58545e-05,1.7674e-05,-1.13933e-05,0
-8.63371e-05,4.04023e-06,3.90372e-05,-3.05647e-05,2.01528e-05,3.6622e-06,1.763e-05,-1.92805e-05,0
-0.00011599,2.53841e-06,5.39769e-05,-2.63304e-05,5.20777e-06,-1.6327e-05,1.73514e-05,-2.19126e-05,0
-0.000116899,7.52457e-06,6.04945e-05,-1.18842e-05,-1.48678e-05,-2.36543e-05,1.75455e-05,-1.6865e-05,0
-8.22484e-05,1.73934e-05,5.27054e-05,-8.44544e-06,-2.26014e-05,-1.18439e-05,1.72715e-05,-7.5497e-06,0
-1.71653e-05,3.3658e-05,2.93847e-05,-2.30312e-05,-1.0067e-05,2.59603e-06,1.60414e-05,-5.54714e-07,0
5.54712e-05,5.64822e-05,-5.62148e-06,-4.23197e-05,1.46307e-05,3.19663e-06,1.4084e-05,1.84847e-06,0
8.77811e-05,8.26437e-05,-4.33071e-05,-4.8359e-05,3.44398e-05,-6.34778e-06,1.28786e-05,3.2744e-06,0
5.50914e-05,0.000107482,-7.54137e-05,-2.81476e-05,4.13269e-05,-2.38685e-05,1.26974e-05,5.94606e-06,0
-1.06652e-05,0.000125755,-9.53059e-05,1.60802e-05,3.58938e-05,-3.15019e-05,1.24724e-05,8.94448e-06,0
-5.70444e-05,0.000138005,-9.94529e-05,6.85773e-05,2.03676e-05,-9.74752e-06,9.91575e-06,1.12511e-05,0
-6.58517e-05,0.000144635,-9.01898e-05,0.00010495,3.27176e-06,1.22891e-05,6.12581e-06,1.19016e-05,0
-5.7852e-05,0.000133951,-7.39888e-05,0.000106311,2.90837e-06,1.23179e-05,3.90185e-06,1.18108e-05,0
-5.14958e-05,9.8016e-05,-5.73745e-05,7.46933e-05,2.2693e-05,2.41302e-06,4.55843e-06,1.2964e-05,0
-4.2572e-05,4.50821e-05,-4.40151e-05,4.39711e-05,4.41144e-05,-1.11803e-05,7.24601e-06,1.34518e-05,0
-3.17881e-05,-1.47726e-05,-3.40976e-05,2.76333e-05,4.58687e-05,-1.76515e-05,8.83496e-06,1.12758e-05,0
-4.38227e-05,-7.53123e-05,-2.77797e-05,-8.85528e-06,2.04924e-05,-1.93592e-05,8.05268e-06,9.27822e-06,0
-9.28985e-05,-0.000141812,-2.34692e-05,-0.000101051,-3.14935e-05,-3.65669e-05,7.75627e-06,7.55321e-06,0
-0.000135523,-0.000198291,-2.01108e-05,-0.000174724,-8.71919e-05,-8.5828e-05,7.99439e-06,5.89714e-06,0
-0.000126468,-0.000218138,-1.91711e-05,-0.00013394,-0.000114932,-0.000128966,4.51672e-06,5.39379e-06,0
-8.29737e-05,-0.000197634,-2.15836e-05,-1.61018e-05,-0.00011096,-0.000132676,-2.32839e-07,5.47079e-06,0
-3.82149e-05,-0.000145518,-2.56452e-05,7.17538e-05,-7.73966e-05,-0.000122087,-1.48601e-06,6.87993e-06,0
-2.05985e-06,-8.94885e-05,-2.74184e-05,6.92536e-05,-3.2564e-05,-0.000103817,-6.31376e-09,7.05492e-06,0
3.5825e-05,-4.77881e-05,-2.48289e-05,3.16108e-05,-6.90245e-06,-7.54895e-05,3.25757e-06,6.2645e-06,0
5.2109e-05,-2.55406e-05,-1.79687e-05,1.51101e-05,1.41182e-06,-5.30024e-05,6.73639e-06,5.04326e-06,0
3.16538e-05,-1.23139e-05,-1.03424e-05,1.74231e-05,2.42576e-05,-4.73756e-05,8.72206e-06,3.76224e-06,0
-2.2118e-06,1.51146e-06,-1.92228e-06,4.50426e-06,6.29947e-05,-4.81761e-05,1.07092e-05,3.67387e-06,0
