ch1,ch2,ch3,ch4,ch5,ch6,ch7,ch8,class
-0.000134229,6.72522e-05,-5.40916e-05,5.26422e-05,9.44113e-05,-2.44938e-05,1.73684e-05,4.67019e-06,0
-0.000147388,6.32973e-05,-4.36527e-05,4.87201e-05,9.68105e-05,-2.13278e-05,2.23404e-05,5.08078e-06,0
-0.000129616,4.70741e-05,-3.70585e-05,4.30629e-05,8.03527e-05,-1.09989e-05,2.35542e-05,5.81941e-06,0
-9.09532e-05,2.3364e-05,-2.96475e-05,3.74944e-05,5.61429e-05,3.09212e-06,2.35806e-05,6.61748e-06,0
-5.37973e-05,-2.47315e-05,-2.0848e-05,2.48335e-05,4.03157e-05,1.4921e-05,2.33079e-05,7.94341e-06,0
-1.77249e-05,-6.11449e-05,-1.38086e-05,3.48749e-06,3.41557e-05,1.55665e-05,2.2142e-05,9.54493e-06,0
1.72061e-05,-3.66185e-05,-9.10151e-06,-1.5553e-05,2.3002e-05,4.48073e-06,2.03798e-05,9.73602e-06,0
3.46934e-05,2.14827e-05,-5.26124e-06,-1.99996e-05,8.70262e-06,-3.19651e-06,1.73534e-05,6.43134e-06,0
3.49981e-05,5.79185e-05,-4.97529e-06,-7.95993e-06,2.53744e-05,-3.61341e-06,9.52429e-06,2.6583e-06,0
3.38817e-05,6.48752e-05,-6.77906e-06,1.27393e-05,5.00673e-05,-2.94719e-06,-3.84794e-06,1.34579e-06,0
3.15823e-05,6.28658e-05,-7.85607e-06,3.38311e-05,4.74542e-05,-4.27896e-06,-1.39342e-05,1.36478e-06,0
2.07553e-05,5.68895e-05,-7.29771e-06,4.80515e-05,4.60784e-05,-8.84819e-06,-1.58959e-05,1.70793e-06,0
2.9314e-06,5.487e-05,-7.16242e-06,4.54566e-05,5.05042e-05,-1.3017e-05,-1.15139e-05,1.74246e-06,0
-2.11887e-05,5.75189e-05,-8.91218e-06,1.84289e-05,3.96772e-05,-1.44217e-05,-1.48933e-06,2.10987e-06,0
-5.00684e-05,5.66095e-05,-9.18689e-06,-2.3196e-05,-1.44838e-06,-1.46982e-05,1.20948e-05,2.97871e-06,0
-7.0716e-05,4.69187e-05,-8.56693e-06,-6.07343e-05,-5.90539e-05,-1.3347e-05,2.46682e-05,5.73157e-06,0
-6.37098e-05,3.41033e-05,-7.92576e-06,-8.19232e-05,-8.67302e-05,-8.46629e-06,3.26048e-05,9.15508e-06,0
-2.80153e-05,2.71488e-05,-6.42736e-06,-8.75547e-05,-3.9888e-05,-1.61495e-06,3.58218e-05,9.48843e-06,0
1.05463e-05,2.7154e-05,-3.77107e-06,-8.79343e-05,3.42013e-05,2.49224e-06,3.60949e-05,7.10199e-06,0
2.62467e-05,3.22949e-05,-1.66715e-06,-9.21711e-05,6.54195e-05,3.95476e-07,3.42256e-05,5.74396e-06,0
1.68829e-05,3.142e-05,-6.31031e-07,-9.75528e-05,7.53178e-05,-4.99197e-06,2.9427e-05,5.95262e-06,0
-4.01353e-06,1.78712e-05,1.29137e-07,-9.19394e-05,0.000100374,-8.44846e-06,2.26559e-05,6.7343e-06,0
-2.09765e-05,5.11155e-07,4.969e-07,-7.14686e-05,0.000124293,-8.67263e-06,1.74966e-05,6.50519e-06,0
-2.2723e-05,-2.5102e-06,-1.0441e-06,-4.30421e-05,0.000103228,-8.11914e-06,1.58307e-05,5.0305e-06,0
-1.08831e-05,8.65325e-06,-3.81026e-06,-1.766e-05,3.02992e-05,-7.80209e-06,1.58402e-05,2.99814e-06,0
3.33147e-06,2.0056e-05,-4.8048e-06,-3.32438e-06,-5.91002e-05,-7.83282e-06,1.53594e-05,2.52353e-07,0
8.9757e-06,2.37401e-05,-4.03368e-06,-7.53796e-07,-0.000111796,-8.80687e-06,1.44176e-05,-1.43393e-06,0
2.07968e-06,2.2977e-05,-4.36255e-06,-4.0868e-06,-0.000110887,-9.24437e-06,1.3139e-05,4.68334e-08,0
-1.45277e-05,2.00276e-05,-6.03802e-06,-4.18578e-06,-7.79307e-05,-6.1971e-06,9.86835e-06,3.10587e-06,0
-3.19247e-05,1.74931e-05,-5.29296e-06,7.61312e-06,-4.21111e-05,-1.02695e-07,4.16941e-07,4.15995e-06,0
-4.42361e-05,1.41843e-05,-1.0088e-06,2.70112e-05,-2.13255e-05,5.09041e-06,-1.69907e-05,2.18704e-06,0
-5.37859e-05,-1.91661e-06,3.94529e-06,3.65906e-05,-1.93361e-05,6.54055e-06,-3.22741e-05,-3.49618e-07,0
-6.48708e-05,-4.22113e-05,5.35214e-06,2.876e-05,-2.77466e-05,1.44327e-06,-3.4513e-05,-1.49288e-06,0
-7.16091e-05,-6.21871e-05,5.38265e-06,1.9388e-05,-3.03471e-05,-7.67863e-06,-2.59902e-05,-2.71553e-06,0
-5.58501e-05,-2.50723e-05,5.25186e-06,2.41394e-05,-1.28276e-05,-1.48807e-05,-1.24126e-05,-3.5129e-06,0
-2.35181e-05,2.86724e-05,1.83988e-06,2.98756e-05,1.21575e-05,-1.65497e-05,7.04388e-07,-4.84975e-06,0
-9.852e-07,6.11034e-05,-2.51283e-06,2.415e-05,1.99064e-05,-1.3513e-05,1.19183e-05,-8.20961e-06,0
1.61285e-06,5.80144e-05,-4.74852e-06,8.82115e-06,1.46813e-05,-9.40719e-06,2.0781e-05,-9.78563e-06,0
-1.04678e-05,3.28866e-05,-2.85472e-06,-7.13362e-06,9.29804e-06,-6.3376e-06,2.48565e-05,-7.97665e-06,0
-2.63113e-05,1.00509e-05,1.39177e-06,-1.42932e-05,1.00296e-05,-6.74936e-06,2.41279e-05,-6.13656e-06,0
-4.17685e-05,6.85152e-06,2.62753e-06,-1.54934e-05,1.15724e-05,-1.03349e-05,2.18167e-05,-4.92751e-06,0
-5.94952e-05,2.22708e-05,-5.07154e-07,-1.72098e-05,4.16596e-06,-1.47772e-05,2.2972e-05,-2.74819e-06,0
-8.16789e-05,3.93593e-05,-5.56094e-06,-2.38967e-05,-1.25115e-05,-1.79234e-05,2.61649e-05,1.04263e-06,0
-9.90664e-05,4.30698e-05,-8.72896e-06,-3.5346e-05,-2.80603e-05,-1.97368e-05,2.71316e-05,4.35124e-06,0
-0.00010246,3.82269e-05,-9.40205e-06,-4.99559e-05,-3.9564e-05,-2.06834e-05,2.627e-05,4.15548e-06,0
-9.90645e-05,3.68772e-05,-9.62758e-06,-5.6743e-05,-6.036e-05,-2.17744e-05,2.59706e-05,1.6785e-06,0
-9.34308e-05,3.595e-05,-1.11462e-05,-4.63323e-05,-9.28576e-05,-2.37661e-05,2.55984e-05,1.82381e-07,0
-7.7018e-05,3.01217e-05,-1.34804e-05,-2.55638e-05,-0.000111665,-2.56775e-05,2.4505e-05,4.99333e-07,0
-4.43204e-05,1.82406e-05,-1.517e-05,-8.72543e-06,-9.77767e-05,-2.64444e-05,2.10523e-05,2.2081e-06,0
-6.25876e-06,4.47119e-06,-1.44104e-05,-2.95595e-06,-5.45678e-05,-2.4981e-05,1.54469e-05,4.05631e-06,0
2.31983e-05,-1.32626e-05,-1.12473e-05,-1.87161e-06,2.75858e-06,-2.08797e-05,1.1486e-05,3.87676e-06,0
4.07162e-05,-3.80907e-05,-8.26798e-06,1.69506e-06,5.41369e-05,-1.32746e-05,1.14897e-05,1.89975e-06,0
5.16473e-05,-5.89703e-05,-5.98407e-06,8.96991e-06,8.00569e-05,-4.59228e-06,1.32546e-05,2.37698e-07,0
5.51189e-05,-5.89221e-05,-3.34018e-06,1.83377e-05,7.75149e-05,1.9546e-06,1.29868e-05,4.35349e-07,0
4.17568e-05,-3.68854e-05,7.5916e-08,2.91007e-05,7.16265e-05,5.73011e-06,8.82661e-06,1.61616e-06,0
1.0028e-05,-2.32559e-06,2.42475e-06,3.72493e-05,8.63045e-05,7.44415e-06,1.88632e-06,2.41712e-06,0
-2.80336e-05,2.41015e-05,4.18604e-06,4.13543e-05,0.000104556,5.15119e-06,-3.17368e-06,2.96806e-06,0
-6.31112e-05,2.55861e-05,7.68e-06,4.19976e-05,0.000110133,-2.20422e-06,-2.82916e-06,3.8067e-06,0
-9.09674e-05,5.75732e-06,9.26417e-06,3.76537e-05,0.000117443,-1.04952e-05,2.07638e-06,4.30233e-06,0
-0.000108407,-2.57552e-05,5.24972e-06,1.97722e-05,0.000116711,-1.34158e-05,6.28265e-06,5.01917e-06,0
-0.000117116,-5.60552e-05,-6.49175e-07,-9.53265e-06,7.88401e-05,-1.1055e-05,6.46189e-06,6.98335e-06,0
-0.000113863,-7.16987e-05,-2.55788e-06,-2.99358e-05,1.85749e-05,-6.25311e-06,4.37041e-06,7.13477e-06,0
-8.10756e-05,-6.36125e-05,-1.00144e-06,-3.6426e-05,-3.50413e-06,-2.0711e-06,5.63144e-06,6.28522e-06,0
-2.55525e-05,-4.62474e-05,-7.59209e-07,-3.69527e-05,2.57289e-05,2.00375e-06,1.01451e-05,7.09938e-06,0
1.58431e-05,-3.77593e-05,-4.79477e-06,-3.10557e-05,6.83812e-05,7.16293e-06,1.31275e-05,7.49973e-06,0
2.5691e-05,-3.44082e-05,-1.2106e-05,-2.04442e-05,9.80828e-05,6.11156e-06,1.35611e-05,7.78686e-06,0
1.1384e-05,-2.88581e-05,-1.6729e-05,-1.08597e-05,0.000104494,-1.9395e-06,1.2679e-05,8.14959e-06,0
-1.0564e-05,-1.39318e-05,-1.62791e-05,-5.60265e-07,9.12034e-05,-1.61575e-05,1.23957e-05,7.58104e-06,0
-3.47921e-05,1.18381e-06,-1.20196e-05,1.1559e-05,6.4167e-05,-3.01259e-05,1.25435e-05,6.74712e-06,0
-6.15141e-05,7.08324e-06,-5.9289e-06,2.86743e-05,3.77694e-05,-3.45771e-05,1.18117e-05,7.2236e-06,0
-8.38148e-05,6.28628e-06,-1.37268e-06,5.24988e-05,1.87126e-05,-2.88198e-05,1.10953e-05,7.50823e-06,0
-9.64999e-05,2.0322e-06,-1.30069e-06,7.86724e-05,2.69187e-06,-1.9231e-05,1.21488e-05,6.80304e-06,0
-9.8788e-05,-3.47033e-06,-4.7524e-06,9.60117e-05,-1.36123e-05,-1.32322e-05,1.39249e-05,6.26291e-06,0
-8.62543e-05,-8.90224e-06,-7.83435e-06,9.63867e-05,-2.74304e-05,-1.21269e-05,1.52282e-05,4.92179e-06,0
-5.75074e-05,-8.63174e-06,-7.43284e-06,7.98871e-05,-2.71495e-05,-1.47597e-05,1.61333e-05,3.04281e-06,0
-2.76225e-05,-1.36383e-06,-5.62861e-06,4.54464e-05,-9.65825e-06,-1.92464e-05,1.67361e-05,1.77827e-06,0
-1.61035e-05,7.96588e-06,-5.57741e-06,1.66762e-06,1.25649e-05,-2.38787e-05,1.65922e-05,1.49989e-06,0
-2.0799e-05,1.25392e-05,-6.71492e-06,-2.48276e-05,2.0256e-05,-2.51588e-05,1.59787e-05,1.69428e-06,0
-2.15493e-05,1.22838e-05,-8.10798e-06,-1.74151e-05,1.73335e-05,-2.31953e-05,1.61217e-05,3.1497e-06,0
-1.26461e-05,8.4155e-06,-8.10705e-06,5.42452e-06,2.33578e-05,-2.15253e-05,1.61863e-05,4.31398e-06,0
-2.01164e-06,-2.79876e-07,-6.49327e-06,1.68251e-05,3.94804e-05,-2.55135e-05,1.47103e-05,3.61368e-06,0
1.13171e-05,-1.11768e-05,-5.96494e-06,1.28995e-05,4.92787e-05,-3.5869e-05,1.28302e-05,2.5031e-06,0
2.65996e-05,-6.91857e-06,-8.29022e-06,4.73686e-06,4.424e-05,-4.6377e-05,1.20093e-05,2.59194e-06,0
3.4739e-05,1.84836e-05,-1.127e-05,-4.05201e-06,2.27641e-05,-4.43294e-05,1.15748e-05,6.0563e-06,0
2.623e-05,3.81253e-05,-1.40282e-05,-1.28796e-05,-7.49023e-06,-1.5735e-05,1.12115e-05,1.71284e-05,0
-9.33474e-07,3.73977e-05,-1.7365e-05,-1.81911e-05,-3.01692e-05,2.18847e-05,1.06167e-05,3.31041e-05,0
-2.32325e-05,3.23268e-05,-2.17305e-05,-1.80543e-05,-3.87437e-05,4.01511e-05,7.29866e-06,4.15193e-05,0
-2.68623e-05,3.18565e-05,-2.45837e-05,-2.12894e-05,-4.05788e-05,4.42617e-05,7.47851e-07,3.93413e-05,0
-3.1854e-05,2.97457e-05,-2.40623e-05,-3.81883e-05,-3.90479e-05,6.57148e-05,-4.02189e-06,2.87459e-05,0
-4.93696e-05,2.17789e-05,-2.16805e-05,-5.66933e-05,-3.05759e-05,7.51887e-05,-4.07606e-06,1.05109e-05,0
-6.19086e-05,1.47861e-05,-1.84551e-05,-6.689e-05,-2.08068e-05,2.45193e-05,-3.44652e-06,-1.09114e-05,0
-6.55391e-05,1.14202e-08,-1.65491e-05,-8.54545e-05,-1.52757e-05,-4.17093e-05,-3.24523e-06,-2.82949e-05,0
-6.64776e-05,-1.94667e-05,-1.79055e-05,-0.000128478,-1.32483e-05,-5.85346e-05,-2.20275e-06,-3.63437e-05,0
-5.8731e-05,-2.21091e-05,-2.02943e-05,-0.000156903,-1.07658e-05,-2.38657e-05,-3.33714e-07,-3.67122e-05,0
-4.40648e-05,-1.57661e-05,-2.02159e-05,-0.000121417,-7.05121e-06,1.44488e-06,4.10922e-06,-3.19196e-05,0
-2.75594e-05,-1.3169e-05,-1.69477e-05,-3.98744e-05,-1.00227e-05,-4.40495e-06,8.9556e-06,-2.43432e-05,0
-5.61508e-06,-1.39494e-05,-1.42409e-05,4.07564e-05,-2.51796e-05,-2.19936e-05,1.1243e-05,-1.40828e-05,0
2.16418e-05,-4.6434e-06,-1.29864e-05,8.57007e-05,-3.82006e-05,-3.08929e-05,1.13841e-05,-4.52422e-06,0
3.47313e-05,1.35663e-05,-1.10577e-05,9.96226e-05,-3.30265e-05,-2.7705e-05,1.11525e-05,8.65207e-07,0
2.4125e-05,2.54831e-05,-9.5781e-06,0.00010272,-1.67648e-05,-2.27514e-05,1.2625e-05,1.8265e-06,0
-2.27554e-06,2.60838e-05,-1.01293e-05,0.000105239,8.90732e-07,-1.49847e-05,1.61917e-05,1.56675e-06,0
-3.18681e-05,2.27394e-05,-1.1332e-05,0.000103144,3.03662e-05,-5.27188e-06,1.93742e-05,3.87351e-06,0
-5.58355e-05,1.88474e-05,-1.01485e-05,9.29009e-05,7.39892e-05,5.11266e-06,2.10171e-05,7.84646e-06,0
-7.08112e-05,1.37117e-05,-7.28374e-06,7.87118e-05,0.000100212,8.52306e-06,2.2443e-05,1.24017e-05,0
-7.3436e-05,1.01952e-05,-5.06594e-06,5.69236e-05,8.86488e-05,5.33976e-06,2.40261e-05,1.46922e-05,0
-6.06353e-05,1.21694e-05,-4.5416e-06,2.81597e-05,6.62891e-05,-3.01177e-06,2.45064e-05,1.28035e-05,0
-3.41168e-05,1.97398e-05,-4.67922e-06,4.70526e-07,7.02141e-05,-1.25675e-05,2.36472e-05,8.09846e-06,0
-5.04211e-06,1.67296e-05,-3.91625e-06,-2.21481e-05,0.000103546,-2.27382e-05,2.25928e-05,5.30917e-06,0
1.50728e-05,-9.90836e-06,-1.52983e-06,-4.48527e-05,0.000126189,-2.75063e-05,2.18252e-05,5.47254e-06,0
1.9463e-05,-3.08144e-05,1.58446e-06,-6.55613e-05,9.07995e-05,-2.83435e-05,2.08851e-05,6.72084e-06,0
5.83755e-06,-1.66891e-05,3.23283e-06,-8.38799e-05,6.39055e-06,-3.71709e-05,1.80047e-05,6.16243e-06,0
-2.02644e-05,-7.40251e-07,2.30083e-06,-9.63637e-05,-7.01704e-05,-5.28585e-05,1.38802e-05,3.01704e-06,0
-4.1366e-05,-1.47834e-05,-1.66335e-07,-0.000103467,-0.000106384,-5.77217e-05,1.16938e-05,-4.94505e-07,0
-5.49623e-05,-6.60484e-05,-3.18962e-06,-0.000101118,-0.000111513,-5.1645e-05,1.27383e-05,-6.37123e-07,0
-6.80976e-05,-0.000122165,-6.62174e-06,-8.90634e-05,-0.000102475,-4.81739e-05,1.32267e-05,2.06444e-07,0
-6.89486e-05,-8.80182e-05,-8.89124e-06,-7.29504e-05,-7.62525e-05,-4.18535e-05,1.2983e-05,-1.3936e-06,0
-4.29149e-05,4.88497e-05,-7.0674e-06,-5.47844e-05,-3.21453e-05,-2.14646e-05,1.38375e-05,-2.26648e-06,0
-9.32429e-06,0.000167897,-4.3075e-06,-4.48077e-05,5.34584e-06,1.08585e-05,1.48634e-05,-2.51014e-06,0
4.35041e-06,0.000198217,-4.72071e-06,-4.68009e-05,1.70055e-05,5.25056e-05,1.52144e-05,-2.87899e-06,0
-3.64945e-06,0.000187364,-5.75488e-06,-5.20512e-05,1.12043e-05,6.66929e-05,1.44409e-05,-2.96055e-06,0
-2.68236e-05,0.000166808,-5.40939e-06,-4.95149e-05,4.80296e-06,3.40776e-05,1.40238e-05,-2.57372e-06,0
-5.12209e-05,0.000122459,-4.83575e-06,-4.54918e-05,-8.18324e-07,1.70331e-06,1.44539e-05,-3.16684e-06,0
-6.70674e-05,6.28057e-05,-5.21238e-06,-4.85788e-05,-6.81531e-06,-1.01901e-05,1.43303e-05,-4.81036e-06,0
-6.92528e-05,8.29922e-06,-7.31205e-06,-5.15244e-05,-1.71881e-05,-7.46378e-06,1.19092e-05,-6.08499e-06,0
-5.48897e-05,-2.25001e-05,-1.03221e-05,-4.25988e-05,-3.69953e-05,-5.0128e-06,9.38616e-06,-6.28241e-06,0
-3.165e-05,-3.17093e-05,-1.12517e-05,-1.73165e-05,-5.60984e-05,-5.34865e-06,8.47822e-06,-5.85892e-06,0
-1.43693e-05,-2.62132e-05,-9.83309e-06,1.82002e-05,-5.31546e-05,-1.10479e-05,9.4333e-06,-5.53273e-06,0
-1.30031e-05,-7.14497e-06,-7.6531e-06,4.91921e-05,-1.98527e-05,-1.97815e-05,1.16779e-05,-6.22217e-06,0
-2.69145e-05,1.74052e-05,-5.5388e-06,6.39093e-05,2.24325e-05,-2.40506e-05,1.36006e-05,-7.76333e-06,0
-4.98406e-05,4.05766e-05,-4.44222e-06,6.01382e-05,5.52005e-05,-2.06192e-05,1.44132e-05,-8.24019e-06,0
-7.40558e-05,5.98343e-05,-4.39696e-06,4.60709e-05,7.89408e-05,-8.24005e-06,1.3195e-05,-7.12286e-06,0
-9.6892e-05,7.49992e-05,-4.55344e-06,3.28562e-05,9.36796e-05,8.40624e-06,1.13344e-05,-6.48908e-06,0
-0.000119895,8.66345e-05,-6.14686e-06,2.46053e-05,8.93481e-05,1.61714e-05,1.12621e-05,-7.46586e-06,0
-0.000134651,9.55208e-05,-9.45642e-06,1.78122e-05,6.48059e-05,1.10878e-06,1.34777e-05,-8.63355e-06,0
-0.000113474,9.08769e-05,-1.25412e-05,8.16948e-06,3.50124e-05,-2.31753e-05,1.54842e-05,-9.12069e-06,0
-5.07416e-05,7.07218e-05,-1.3096e-05,-4.98785e-06,1.70121e-05,-3.44013e-05,1.56822e-05,-8.88382e-06,0
1.19222e-05,4.36846e-05,-1.06644e-05,-1.6332e-05,1.99234e-05,-2.46393e-05,1.44481e-05,-7.56088e-06,0
3.26697e-05,6.03805e-06,-7.66387e-06,-1.49167e-05,3.72585e-05,-7.69349e-06,1.31885e-05,-6.01625e-06,0
1.65972e-05,-4.01643e-05,-7.15644e-06,3.66982e-06,5.3572e-05,1.66272e-06,1.31017e-05,-6.48351e-06,0
3.63389e-06,-7.04699e-05,-1.01405e-05,2.59731e-05,5.9739e-05,1.45316e-06,1.24676e-05,-7.97789e-06,0
1.36673e-05,-7.16778e-05,-1.58297e-05,3.28297e-05,5.30012e-05,-2.36202e-06,9.69445e-06,-7.37031e-06,0
2.46131e-05,-4.92025e-05,-1.99231e-05,2.38771e-05,3.5784e-05,-7.70639e-06,6.48244e-06,-5.31052e-06,0
1.65306e-05,-1.04496e-05,-1.87909e-05,6.4767e-06,1.5415e-05,-1.08345e-05,5.17256e-06,-4.56431e-06,0
-1.15764e-06,2.24783e-05,-1.54328e-05,-1.76397e-05,-8.48227e-06,-1.12312e-05,7.06686e-06,-4.64274e-06,0
-1.38886e-05,2.89361e-05,-1.37866e-05,-4.49883e-05,-4.3837e-05,-1.15036e-05,1.01377e-05,-6.6319e-06,0
-2.36393e-05,1.72842e-05,-1.33394e-05,-7.05486e-05,-7.10679e-05,-1.16132e-05,1.25277e-05,-1.06664e-05,0
-3.54013e-05,-3.26628e-06,-1.23926e-05,-8.90245e-05,-6.55001e-05,-1.13315e-05,1.48984e-05,-1.38145e-05,0
-4.50745e-05,-2.45398e-05,-1.2589e-05,-9.29732e-05,-4.3247e-05,-9.54698e-06,1.63169e-05,-1.12914e-05,0
-4.92838e-05,-3.84975e-05,-1.2488e-05,-7.53349e-05,-2.29554e-05,-5.99112e-06,1.66419e-05,-2.2716e-06,0
-4.58454e-05,-4.18192e-05,-1.03462e-05,-4.37457e-05,-1.30478e-05,-3.92734e-06,1.53844e-05,4.32077e-06,0
-3.65966e-05,-3.5254e-05,-7.9633e-06,-1.1796e-05,-1.1591e-05,-3.86736e-06,1.324e-05,3.35564e-06,0
-2.58536e-05,-2.16533e-05,-6.65321e-06,1.4709e-05,-1.06325e-05,-4.70878e-06,1.22192e-05,-2.77143e-06,0
-1.99126e-05,-5.05072e-06,-5.3335e-06,3.55821e-05,-5.29652e-06,-7.46592e-06,1.26034e-05,-9.29865e-06,0
-2.20087e-05,9.95274e-06,-4.65774e-06,4.82878e-05,3.54196e-06,-9.37574e-06,1.35212e-05,-1.33937e-05,0
-2.57217e-05,2.18076e-05,-5.36089e-06,4.84019e-05,1.46511e-05,-9.38092e-06,1.46069e-05,-1.51127e-05,0
-2.64659e-05,2.76686e-05,-6.26658e-06,3.82225e-05,2.87598e-05,-1.02875e-05,1.64404e-05,-1.54028e-05,0
-2.50388e-05,2.96155e-05,-7.36015e-06,2.10173e-05,4.134e-05,-1.39462e-05,1.80892e-05,-1.54806e-05,0
-2.32944e-05,3.0451e-05,-8.25515e-06,2.59712e-06,4.82551e-05,-1.72537e-05,1.85761e-05,-1.5407e-05,0
-2.09383e-05,3.29579e-05,-9.13066e-06,-9.20532e-06,4.66271e-05,-1.8745e-05,1.81875e-05,-1.50268e-05,0
-1.70183e-05,3.45532e-05,-9.83442e-06,-1.09798e-05,3.92681e-05,-1.75317e-05,1.75111e-05,-1.2674e-05,0
-1.21009e-05,3.44744e-05,-9.73119e-06,-9.35636e-06,2.96182e-05,-1.10189e-05,1.71208e-05,-8.94945e-06,0
-9.13248e-06,3.38639e-05,-8.7986e-06,-9.17531e-06,2.30719e-05,1.09521e-06,1.7241e-05,-7.60025e-06,0
-1.03366e-05,3.3877e-05,-7.47787e-06,-3.45708e-06,2.2135e-05,1.37388e-05,1.75115e-05,-9.26698e-06,0
-1.49278e-05,3.06292e-05,-5.70541e-06,1.16678e-05,2.24514e-05,2.49488e-05,1.72636e-05,-1.00706e-05,0
-2.2348e-05,2.09996e-05,-5.70525e-06,2.43708e-05,1.67011e-05,2.68117e-05,1.66372e-05,-7.68625e-06,0
-2.82549e-05,6.58315e-06,-7.6586e-06,2.27772e-05,6.36125e-06,1.24817e-05,1.56744e-05,-3.29578e-06,0
-2.75146e-05,-1.39507e-06,-9.55567e-06,1.57047e-05,-7.44761e-08,-5.86597e-06,1.38463e-05,1.00607e-06,0
-2.23728e-05,5.8454e-06,-1.12811e-05,2.09275e-05,-2.51529e-06,-1.72009e-05,1.14643e-05,4.83015e-06,0
-1.11242e-05,1.78248e-05,-1.34523e-05,3.8609e-05,-9.94667e-06,-2.03582e-05,1.03276e-05,8.77234e-06,0
7.31709e-06,2.75255e-05,-1.52438e-05,5.00321e-05,-1.70827e-05,-2.0131e-05,8.55145e-06,9.03225e-06,0
1.31557e-05,3.43348e-05,-1.39858e-05,3.7822e-05,-1.33388e-05,-2.0416e-05,3.58787e-06,6.37517e-06,0
-4.69688e-07,3.75681e-05,-1.20773e-05,8.41383e-06,-7.51008e-06,-2.07659e-05,1.65233e-07,4.60908e-06,0
-2.41499e-05,3.84004e-05,-1.16664e-05,-1.41086e-05,-6.51836e-06,-1.99784e-05,7.63106e-07,3.68004e-06,0
-4.37882e-05,3.87497e-05,-1.10868e-05,-1.87024e-05,1.52761e-05,-1.69325e-05,3.91211e-06,3.72696e-06,0
-4.34763e-05,4.09212e-05,-1.01963e-05,-1.59587e-05,0.000103356,-1.43577e-05,8.88842e-06,4.58406e-06,0
-4.21068e-05,4.04807e-05,-9.6414e-06,-2.10863e-05,0.000193688,-1.62924e-05,1.598e-05,5.76451e-06,0
-6.08375e-05,2.95189e-05,-1.03886e-05,-3.11979e-05,0.000176223,-2.23378e-05,2.24408e-05,5.66338e-06,0
-8.45694e-05,5.43809e-06,-1.21411e-05,-3.69848e-05,9.10546e-05,-2.72829e-05,2.43983e-05,3.94302e-06,0
-8.41589e-05,-1.98366e-05,-1.34178e-05,-3.52369e-05,3.06593e-05,-2.69636e-05,2.35659e-05,2.07405e-06,0
-5.95544e-05,-2.86473e-05,-1.39395e-05,-2.72331e-05,8.69323e-06,-2.38686e-05,2.33192e-05,8.96431e-08,0
-3.50844e-05,-1.85776e-05,-1.32928e-05,-1.43957e-05,-1.39978e-05,-2.11782e-05,2.44313e-05,-1.50241e-06,0
-2.3774e-05,-3.06693e-06,-1.01979e-05,2.36967e-07,-5.14778e-05,-1.87376e-05,2.48628e-05,-2.02982e-06,0
-2.30113e-05,4.87939e-06,-5.2979e-06,1.60782e-05,-8.16388e-05,-1.65249e-05,2.35252e-05,-1.28611e-06,0
-2.69218e-05,5.16679e-06,-9.86453e-07,3.64185e-05,-8.17344e-05,-1.61742e-05,2.09889e-05,-3.11065e-07,0
-3.42633e-05,-8.17529e-07,1.87223e-07,5.56806e-05,-5.125e-05,-1.79638e-05,1.75551e-05,-1.04525e-06,0
-4.11671e-05,-9.31859e-06,-2.85128e-06,6.29233e-05,-8.07176e-06,-1.88843e-05,1.27159e-05,-3.23371e-06,0
-3.97146e-05,-1.29981e-05,-7.02423e-06,5.81888e-05,2.96673e-05,-1.78543e-05,7.39569e-06,-3.43133e-06,0
-2.4329e-05,-7.89614e-06,-7.83076e-06,5.24952e-05,5.12639e-05,-1.66416e-05,4.41666e-06,-3.43928e-07,0
-2.2093e-07,2.18107e-06,-4.35455e-06,4.52587e-05,5.9074e-05,-1.32249e-05,6.03955e-06,2.70467e-06,0
1.98056e-05,1.68653e-05,1.41833e-07,2.82393e-05,5.59397e-05,-2.24103e-07,1.03284e-05,4.21274e-06,0
2.51372e-05,3.87499e-05,2.27923e-06,5.11615e-06,4.26326e-05,2.16859e-05,1.26714e-05,5.79827e-06,0
1.28495e-05,5.92288e-05,1.06212e-06,-1.50142e-05,1.6404e-05,3.16476e-05,9.92178e-06,7.88812e-06,0
-1.11434e-05,6.78589e-05,-2.69381e-06,-2.95633e-05,-1.04786e-05,1.82324e-05,3.48499e-06,8.82941e-06,0
-3.13186e-05,6.57534e-05,-6.89818e-06,-3.92684e-05,-1.95863e-05,-1.10362e-06,-2.96031e-06,9.54403e-06,0
-4.7488e-05,5.23188e-05,-8.82003e-06,-4.34636e-05,-9.58967e-06,-1.17887e-05,-1.17624e-05,1.05676e-05,0
-6.91205e-05,2.70682e-05,-8.06394e-06,-4.34921e-05,6.8555e-06,-1.29355e-05,-2.54469e-05,1.13256e-05,0
-8.50483e-05,1.45098e-06,-5.83512e-06,-4.01882e-05,2.37332e-05,-8.20564e-06,-3.51323e-05,1.1621e-05,0
-8.08337e-05,-1.14825e-05,-5.03722e-06,-3.23833e-05,3.6299e-05,-4.53191e-06,-3.1177e-05,1.14195e-05,0
-6.59002e-05,-1.62411e-05,-5.97848e-06,-2.48987e-05,3.5628e-05,-6.48746e-06,-1.86172e-05,1.10342e-05,0
-4.99869e-05,-1.67921e-05,-6.64519e-06,-1.79977e-05,1.76253e-05,-9.54521e-06,-4.08171e-06,9.75575e-06,0
-3.38573e-05,-1.20451e-05,-8.02175e-06,-6.22043e-06,-8.49628e-06,-1.1059e-05,1.09451e-05,8.92866e-06,0
-2.28529e-05,-7.10191e-06,-1.07026e-05,6.70951e-06,-2.02616e-05,-1.42052e-05,2.2444e-05,9.94491e-06,0
-7.71098e-06,7.34778e-06,-1.37759e-05,7.31516e-06,-5.96512e-06,-1.39703e-05,2.69813e-05,1.12456e-05,0
1.59574e-05,2.11029e-05,-1.53589e-05,-4.42117e-07,2.15234e-05,-8.45454e-06,2.10575e-05,1.2809e-05,0
3.8321e-05,6.83231e-06,-1.68627e-05,-8.57618e-06,3.57896e-05,-2.97737e-06,1.01328e-05,1.37101e-05,0
4.28105e-05,-1.10004e-05,-1.78852e-05,-1.38637e-05,3.34962e-05,-9.02106e-07,4.38003e-06,1.21418e-05,0
2.95067e-05,9.87848e-06,-1.53223e-05,-1.39244e-05,3.84287e-05,-2.03056e-06,6.71541e-06,1.14793e-05,0
1.50465e-05,5.34106e-05,-7.99031e-06,-7.93486e-06,6.46931e-05,-4.95141e-06,1.54111e-05,1.2611e-05,0
1.00414e-05,8.35742e-05,2.38559e-06,3.84095e-06,9.62553e-05,-1.10679e-05,2.64623e-05,1.32401e-05,0
9.42818e-06,7.65858e-05,1.23291e-05,-7.56681e-06,0.000103428,-1.2602e-05,3.73126e-05,1.22144e-05,0
-2.98744e-06,3.23559e-05,2.02676e-05,-5.62409e-05,7.39828e-05,-1.85459e-07,4.68444e-05,9.96955e-06,0
-2.95947e-05,-2.62521e-05,2.86935e-05,-9.24739e-05,2.78139e-05,1.43559e-05,5.45429e-05,7.97188e-06,0
-5.96036e-05,-8.20749e-05,4.249e-05,-6.17022e-05,-4.76655e-06,1.36993e-05,5.71858e-05,6.32268e-06,0
-7.77785e-05,-0.000116468,6.10703e-05,2.20834e-05,-1.42528e-05,2.51176e-06,5.3958e-05,5.70096e-06,0
-7.96356e-05,-0.000100875,7.68436e-05,0.000102045,-1.2024e-05,-3.61389e-06,4.72793e-05,5.48566e-06,0
-7.46373e-05,-3.42069e-05,7.82195e-05,0.000136018,-7.73978e-06,-2.99706e-07,4.09052e-05,4.84207e-06,0
-7.45379e-05,4.35408e-05,5.73811e-05,0.000120897,-2.46066e-06,6.35665e-06,3.84271e-05,4.41131e-06,0
-8.3667e-05,9.1295e-05,1.56709e-05,7.80105e-05,3.38767e-06,8.47835e-06,3.95356e-05,4.14853e-06,0
-9.94112e-05,9.70997e-05,-3.60327e-05,3.18017e-05,6.05243e-06,3.03622e-06,3.86077e-05,4.30627e-06,0
-0.000106638,8.24152e-05,-8.157e-05,-5.61456e-06,4.69905e-06,-9.06797e-06,3.34041e-05,4.65611e-06,0
-9.86931e-05,6.39681e-05,-0.000107872,-3.66836e-05,3.667e-06,-2.37169e-05,2.74447e-05,5.00513e-06,0
-8.52773e-05,5.49047e-05,-0.000109973,-6.59908e-05,4.23203e-06,-3.17514e-05,2.11783e-05,4.55211e-06,0
-7.4058e-05,5.84388e-05,-9.26531e-05,-8.86386e-05,1.05396e-06,-3.09721e-05,1.5457e-05,3.77266e-06,0
-6.68791e-05,6.27233e-05,-6.48687e-05,-8.23285e-05,-8.8538e-06,-2.96817e-05,1.28806e-05,3.37522e-06,0
-6.76675e-05,6.32865e-05,-4.23901e-05,-4.22312e-05,-2.02997e-05,-3.237e-05,1.1639e-05,2.6556e-06,0
-7.49216e-05,5.93939e-05,-2.97709e-05,6.70884e-06,-2.68888e-05,-3.52657e-05,8.34078e-06,2.5889e-06,0
-7.97986e-05,5.24026e-05,-2.05717e-05,3.8367e-05,-2.48595e-05,-3.17351e-05,4.19278e-06,1.99997e-06,0
-7.52635e-05,3.89635e-05,-1.56408e-05,3.7794e-05,-1.60096e-05,-2.25005e-05,2.10199e-07,-7.88486e-08,0
-5.34795e-05,1.40573e-05,-1.34893e-05,1.05162e-05,-4.85031e-06,-1.54123e-05,-3.60885e-06,-2.37985e-06,0
-2.22548e-05,-2.00913e-05,-1.4402e-05,-2.50747e-05,1.4053e-05,-1.47098e-05,-7.65183e-06,-3.09342e-06,0
-1.33216e-07,-4.0999e-05,-1.16484e-05,-5.25871e-05,3.58776e-05,-1.5926e-05,-1.01366e-05,-3.78557e-06,0
6.50927e-06,-2.94881e-05,-5.85104e-06,-6.63463e-05,3.87008e-05,-1.49077e-05,-1.05538e-05,-3.51126e-06,0
1.38085e-05,-1.3458e-07,-1.86655e-06,-6.6786e-05,1.85558e-05,-1.14795e-05,-9.39511e-06,-1.61609e-06,0
1.79193e-05,2.07706e-05,-2.83413e-08,-5.8212e-05,8.60945e-07,-8.5109e-06,-7.62837e-06,-1.05721e-06,0
-1.96027e-06,2.6136e-05,-1.24233e-06,-4.61914e-05,-2.35961e-06,-8.98515e-06,-6.6612e-06,-1.62637e-06,0
-3.62313e-05,2.84082e-05,-4.63788e-06,-3.52554e-05,-5.46522e-06,-1.21208e-05,-5.58696e-06,-1.84749e-06,0
-5.88411e-05,3.36714e-05,-8.46607e-06,-2.61997e-05,-8.40593e-06,-1.58751e-05,-4.66095e-06,-1.44652e-06,0
-5.94991e-05,3.62598e-05,-1.03463e-05,-1.75373e-05,4.21781e-06,-1.79267e-05,-4.63223e-06,-8.48497e-07,0
-4.62155e-05,2.93397e-05,-1.23066e-05,-1.31012e-05,2.91419e-05,-1.79144e-05,-3.25066e-06,8.92307e-07,0
-2.50421e-05,1.0524e-05,-1.31404e-05,-1.39379e-05,3.9194e-05,-1.60674e-05,2.24705e-06,8.3506e-07,0
1.39791e-06,-1.45882e-05,-1.29503e-05,-1.79778e-05,2.34491e-05,-1.33784e-05,9.67424e-06,-1.52244e-06,0
2.07004e-05,-3.44574e-05,-1.3143e-05,-2.21806e-05,-2.51104e-07,-1.17812e-05,1.47217e-05,-3.68487e-06,0
1.79207e-05,-3.98481e-05,-1.55177e-05,-2.33928e-05,-1.14086e-05,-1.22282e-05,1.48617e-05,-3.6749e-06,0
2.5707e-06,-3.07169e-05,-1.74609e-05,-1.67831e-05,-1.09738e-05,-1.22837e-05,1.30134e-05,-1.11512e-06,0
-7.66253e-06,-1.61204e-05,-1.68518e-05,-3.12968e-06,-4.35472e-06,-1.19955e-05,1.23154e-05,1.67435e-06,0
-9.49643e-06,-6.94862e-06,-1.52299e-05,1.23779e-05,1.97386e-05,-1.3434e-05,1.23986e-05,3.27913e-06,0
-6.08975e-06,-5.0249e-06,-1.47762e-05,2.21577e-05,6.85787e-05,-1.413e-05,1.14941e-05,5.22584e-06,0
-1.33401e-06,-3.92677e-06,-1.43889e-05,2.52788e-05,0.000108903,-1.20597e-05,9.6869e-06,6.94603e-06,0
1.57254e-06,5.15656e-07,-1.22233e-05,2.56808e-05,9.33083e-05,-9.71045e-06,9.21001e-06,5.44787e-06,0
-4.61018e-07,5.11997e-06,-8.85954e-06,2.12169e-05,3.28409e-05,-8.56467e-06,9.99334e-06,3.22629e-06,0
-1.01944e-05,5.44354e-06,-5.56976e-06,1.09792e-05,-2.35571e-05,-6.63501e-06,1.10914e-05,2.87511e-06,0
-2.4709e-05,2.37502e-06,-3.87127e-06,1.48485e-06,-3.56591e-05,-4.03714e-06,1.11052e-05,2.58295e-06,0
-3.55893e-05,-9.84062e-07,-4.13504e-06,8.14983e-07,-1.20843e-05,-4.04347e-06,1.0264e-05,3.35383e-06,0
-3.94849e-05,-2.9077e-06,-3.51085e-06,1.12163e-05,1.45041e-05,-5.27872e-06,9.77532e-06,4.4936e-06,0
-3.29779e-05,-8.99959e-07,-8.12325e-07,1.89363e-05,2.93938e-05,-4.77437e-06,9.71447e-06,3.5353e-06,0
-1.73104e-05,4.31421e-06,1.95143e-06,8.34307e-06,2.42602e-05,-2.66069e-06,1.12209e-05,9.95312e-07,0
-8.14639e-06,9.49398e-06,2.80081e-06,-1.2001e-05,8.54154e-06,-1.80485e-06,1.18458e-05,-2.17929e-07,0
-1.33747e-05,1.5921e-05,1.66862e-06,-2.45654e-05,-7.8926e-06,-2.1298e-06,9.64e-06,8.80261e-07,0
-1.64962e-05,2.56551e-05,1.56194e-06,-2.58825e-05,-1.56211e-05,-1.74419e-06,7.48944e-06,1.88612e-06,0
-9.9353e-07,3.45555e-05,2.595e-06,-2.57866e-05,-1.88538e-05,2.10768e-08,6.98747e-06,3.35263e-06,0
3.05602e-05,3.58822e-05,2.7185e-06,-2.83995e-05,-2.65859e-05,2.76052e-06,4.79769e-06,4.95493e-06,0
6.32486e-05,3.02754e-05,1.38351e-06,-3.02544e-05,-3.49965e-05,4.22491e-06,8.14941e-07,7.32061e-06,0
7.58408e-05,2.29473e-05,1.01695e-06,-2.66923e-05,-3.51206e-05,5.42886e-06,-1.60102e-06,9.16234e-06,0
5.932e-05,1.87467e-05,2.2254e-06,-1.22334e-05,-2.71607e-05,7.30726e-06,-1.93001e-06,9.11686e-06,0
2.2222e-05,1.7841e-05,3.92775e-06,1.34061e-05,-2.35857e-05,1.05385e-05,2.22346e-07,7.30847e-06,0
-2.51156e-05,1.44574e-05,4.62222e-06,3.66682e-05,-2.41455e-05,1.37834e-05,3.87798e-06,6.34817e-06,0
-7.39768e-05,3.05221e-06,4.10053e-06,4.48735e-05,-2.00001e-05,1.32687e-05,6.09136e-06,6.74901e-06,0
-0.000109896,-1.5979e-05,1.51254e-06,4.03804e-05,-1.49431e-05,3.86647e-06,6.15523e-06,6.51951e-06,0
-0.000119527,-3.48145e-05,-1.81239e-06,3.37987e-05,-2.51682e-05,-1.89966e-05,6.05814e-06,6.7887e-06,0
-0.000106155,-4.20726e-05,-4.16817e-06,3.16471e-05,-3.55682e-05,-4.87763e-05,6.27202e-06,7.92905e-06,0
-8.58864e-05,-3.27829e-05,-5.21346e-06,3.06872e-05,-8.83254e-06,-5.37624e-05,7.22149e-06,8.39671e-06,0
-6.99679e-05,-1.46748e-05,-6.54641e-06,2.45178e-05,4.57626e-05,-2.20299e-05,8.35237e-06,7.42493e-06,0
-5.9434e-05,1.39204e-06,-1.0437e-05,1.61454e-05,7.15933e-05,4.51014e-06,9.36591e-06,6.69583e-06,0
-5.23476e-05,8.56912e-06,-1.51399e-05,1.58132e-05,5.65837e-05,8.22986e-07,1.0869e-05,7.02423e-06,0
-4.51755e-05,7.89598e-06,-1.78596e-05,2.3609e-05,2.61132e-05,-1.16809e-05,1.37902e-05,7.87952e-06,0
-3.74696e-05,6.26625e-06,-1.83055e-05,3.3704e-05,2.09655e-06,-1.47906e-05,1.64236e-05,7.80449e-06,0
-2.9647e-05,7.3523e-06,-1.76981e-05,3.61748e-05,8.13197e-06,-1.10371e-05,1.72173e-05,6.6165e-06,0
-2.24789e-05,1.12728e-05,-1.81047e-05,1.66466e-05,3.88302e-05,-9.37496e-06,1.76172e-05,4.13773e-06,0
-1.71092e-05,1.61143e-05,-2.0033e-05,-1.92515e-05,5.83037e-05,-1.14347e-05,1.80269e-05,2.31908e-06,0
-1.25428e-05,2.09097e-05,-2.07078e-05,-5.06473e-05,5.42677e-05,-1.30607e-05,1.90737e-05,3.65246e-06,0
-5.64766e-06,2.56089e-05,-1.98478e-05,-6.60662e-05,4.33114e-05,-1.23403e-05,1.95244e-05,5.6968e-06,0
9.6912e-07,2.83497e-05,-1.82939e-05,-6.97695e-05,3.10819e-05,-1.14921e-05,1.95249e-05,4.4443e-06,0
-6.22738e-06,2.69548e-05,-1.53267e-05,-7.2435e-05,1.69381e-05,-1.21445e-05,2.04834e-05,4.65391e-09,0
-2.89101e-05,1.74274e-05,-1.09728e-05,-7.58746e-05,2.46322e-06,-1.27541e-05,2.15026e-05,-4.66629e-06,0
-6.10156e-05,4.32009e-06,-7.5894e-06,-7.55476e-05,-3.754e-06,-1.37805e-05,2.12459e-05,-6.03755e-06,0
-9.68273e-05,-4.10836e-06,-6.88397e-06,-6.69811e-05,9.9717e-07,-1.17005e-05,2.05346e-05,-4.26256e-06,0
-0.000129066,-4.33489e-06,-8.91171e-06,-5.14939e-05,1.47514e-05,-6.58663e-06,2.00696e-05,-2.1004e-06,0
-0.000144197,1.58844e-07,-1.1872e-05,-3.55457e-05,3.2746e-05,-2.95336e-06,1.88864e-05,-1.52098e-06,0
-0.000127555,2.09173e-06,-1.2368e-05,-2.40648e-05,4.73994e-05,-1.48915e-06,1.71717e-05,-5.43089e-07,0
-7.94508e-05,5.59751e-07,-1.03394e-05,-1.2132e-05,5.28666e-05,1.71394e-07,1.5004e-05,1.30316e-06,0
-1.89918e-05,-8.91301e-08,-6.79428e-06,1.9883e-06,4.66255e-05,4.84113e-06,1.35208e-05,1.43277e-06,0
2.39061e-05,2.98981e-06,-2.7143e-06,6.1354e-06,3.71177e-05,6.16358e-06,1.39854e-05,9.61454e-07,0
3.65598e-05,6.75685e-06,-1.00237e-06,-5.72215e-06,3.50952e-05,-5.27761e-06,1.66215e-05,2.39622e-06,0
2.57348e-05,7.36544e-06,-9.05082e-07,-2.1233e-05,4.31007e-05,-2.3069e-05,1.91526e-05,4.34266e-06,0
3.47447e-06,4.01727e-06,-2.71558e-07,-2.66656e-05,5.06169e-05,-3.31398e-05,2.04005e-05,4.23067e-06,0
-1.85069e-05,1.32335e-06,6.81025e-07,-2.38694e-05,4.50948e-05,-3.4331e-05,2.06113e-05,3.34438e-06,0
-3.07559e-05,2.80298e-06,1.37388e-06,-1.97763e-05,2.82241e-05,-3.08872e-05,1.97668e-05,3.21054e-06,0
-3.54741e-05,5.03472e-06,2.19901e-06,-1.68543e-05,1.70223e-05,-2.13292e-05,1.86405e-05,2.86669e-06,0
-4.14037e-05,-3.61432e-07,1.98428e-06,-1.51364e-05,1.93707e-05,-7.08231e-06,1.67923e-05,1.89861e-06,0
-5.09723e-05,-1.23834e-05,-6.35332e-07,-1.29056e-05,2.32683e-05,1.06803e-05,1.46832e-05,6.59337e-06,0
-5.81787e-05,-1.82342e-05,-3.57054e-06,-9.53655e-06,1.9066e-05,3.88402e-05,1.40059e-05,2.16202e-05,0
-5.49786e-05,-7.19089e-06,-4.84561e-06,-5.5289e-06,1.26038e-05,5.072e-05,1.49866e-05,3.74204e-05,0
-3.89769e-05,8.53724e-06,-5.55098e-06,-4.90218e-07,1.12326e-05,2.79439e-05,1.50271e-05,4.19175e-05,0
-2.14455e-05,2.73415e-05,-6.28046e-06,3.5215e-06,1.60094e-05,4.03273e-06,1.45709e-05,3.75283e-05,0
-1.39189e-05,5.27839e-05,-6.45082e-06,9.8677e-06,1.83731e-05,-5.67906e-06,1.46262e-05,2.49415e-05,0
-1.28107e-05,4.63175e-05,-4.48473e-06,1.8727e-05,4.4691e-06,-7.38433e-06,1.48498e-05,2.99979e-06,0
-1.35413e-05,6.14911e-06,-8.31187e-07,1.51626e-05,-1.50238e-05,-8.10006e-06,1.42356e-05,-1.92896e-05,0
-1.16534e-05,-2.10167e-05,2.26532e-06,-5.60771e-06,-1.55706e-05,-7.57952e-06,1.47371e-05,-3.43782e-05,0
-4.43323e-06,-1.5212e-05,3.34937e-06,-1.96709e-05,-2.13307e-06,-6.77516e-06,1.57829e-05,-4.16647e-05,0
-9.3411e-07,8.62629e-06,-6.11207e-07,-2.23085e-08,5.20663e-06,-8.93408e-06,1.23168e-05,-4.18898e-05,0
-9.53436e-06,3.06373e-05,-8.28255e-06,4.80145e-05,2.70933e-06,-1.19601e-05,9.45933e-06,-3.84206e-05,0
-2.3498e-05,3.43799e-05,-1.34143e-05,8.57832e-05,8.36772e-07,-1.62212e-05,1.14864e-05,-3.23014e-05,0
-3.33644e-05,1.51406e-05,-1.31652e-05,9.2166e-05,1.08313e-05,-1.90526e-05,1.55828e-05,-2.28403e-05,0
-2.72542e-05,-1.09191e-05,-9.502e-06,8.32785e-05,3.2922e-05,-1.23484e-05,1.84827e-05,-1.35695e-05,0
-6.22534e-06,-4.66851e-05,-6.8717e-06,7.73525e-05,5.85112e-05,1.44534e-06,1.93782e-05,-7.77401e-06,0
8.57336e-06,-8.80174e-05,-7.46796e-06,7.46906e-05,7.30061e-05,4.91025e-06,1.82744e-05,-6.97279e-06,0
-1.81232e-06,-8.2791e-05,-9.92134e-06,6.6303e-05,6.51983e-05,-4.23035e-06,1.60666e-05,-7.93987e-06,0
-3.28493e-05,-1.07007e-05,-1.34339e-05,5.4866e-05,4.36961e-05,-1.31631e-05,1.4793e-05,-7.95066e-06,0
-6.01185e-05,6.99499e-05,-1.77913e-05,4.34774e-05,2.73702e-05,-1.34984e-05,1.35195e-05,-7.15811e-06,0
-7.02285e-05,0.000105818,-2.14773e-05,2.65871e-05,2.2282e-05,-1.13164e-05,1.1817e-05,-6.02429e-06,0
-7.00308e-05,9.74721e-05,-2.20824e-05,5.03797e-06,1.98694e-05,-1.25353e-05,1.07579e-05,-5.51674e-06,0
-6.88438e-05,6.59787e-05,-1.91521e-05,-7.32343e-06,1.04667e-05,-1.50011e-05,1.16953e-05,-7.64773e-06,0
-6.55458e-05,2.97635e-05,-1.48655e-05,-4.63004e-06,-1.09866e-05,-1.44731e-05,1.34796e-05,-1.18035e-05,0
-5.9818e-05,2.78576e-06,-1.36807e-05,1.3188e-06,-4.02778e-05,-1.26959e-05,1.44669e-05,-1.49231e-05,0
-5.23227e-05,-9.42721e-06,-1.62719e-05,2.86881e-08,-6.36673e-05,-1.3163e-05,1.44216e-05,-1.45909e-05,0
-3.93307e-05,-1.71365e-05,-1.75673e-05,-9.52388e-06,-7.19313e-05,-1.39831e-05,1.36949e-05,-1.06936e-05,0
-1.98547e-05,-2.80896e-05,-1.45243e-05,-2.29451e-05,-5.59566e-05,-1.33581e-05,1.28786e-05,-6.87092e-06,0
-8.60155e-06,-1.52403e-05,-9.9627e-06,-3.49067e-05,1.28505e-05,-1.29339e-05,1.2353e-05,-5.59182e-06,0
-1.51035e-05,3.65989e-05,-7.65743e-06,-4.20718e-05,0.0001224,-1.64867e-05,1.15822e-05,-4.7439e-06,0
-2.5673e-05,9.24413e-05,-8.13696e-06,-4.12969e-05,0.000172889,-2.42448e-05,1.07371e-05,-3.68007e-06,0
-2.9133e-05,0.000116166,-9.04252e-06,-3.30916e-05,0.000136617,-3.06948e-05,1.17879e-05,-2.95941e-06,0
-3.22445e-05,9.67315e-05,-6.20972e-06,-1.75609e-05,9.73e-05,-2.88722e-05,1.49155e-05,-1.67349e-06,0
-3.95097e-05,5.98467e-05,1.27896e-07,2.09058e-06,7.8392e-05,-1.18393e-05,1.71483e-05,-2.43372e-06,0
-4.37348e-05,3.27304e-05,2.36825e-06,1.46449e-05,2.71463e-05,1.21854e-05,1.88432e-05,-4.65549e-06,0
-3.67862e-05,2.21342e-05,-7.26783e-07,1.29649e-05,-5.94771e-05,2.08538e-05,1.96473e-05,-4.53412e-06,0
-1.74804e-05,2.36302e-05,-3.13243e-06,-2.53714e-06,-0.000124309,1.14584e-05,1.82651e-05,-3.46118e-06,0
-3.07491e-06,2.08632e-05,-3.10217e-06,-2.25745e-05,-0.000136044,-6.09516e-06,1.79312e-05,-3.03706e-06,0
-4.77959e-06,1.6126e-05,-1.50005e-06,-4.34964e-05,-0.000104794,-2.33277e-05,1.89436e-05,-3.03282e-06,0
-1.80185e-05,1.67791e-05,-2.45408e-07,-5.87861e-05,-5.70091e-05,-3.16713e-05,1.88485e-05,-2.10733e-06,0
-3.6767e-05,1.95598e-05,-8.81111e-07,-6.17762e-05,-1.24206e-06,-2.94039e-05,1.75836e-05,-5.47854e-07,0
-5.53058e-05,2.20453e-05,-2.75935e-06,-5.41527e-05,4.30345e-05,-2.16385e-05,1.83381e-05,8.5385e-08,0
-6.95442e-05,2.47819e-05,-4.32536e-06,-3.95292e-05,4.78578e-05,-9.16161e-06,1.90898e-05,-3.3383e-07,0
-7.5219e-05,2.49104e-05,-5.03647e-06,-2.47827e-05,2.93738e-05,1.38376e-08,1.73027e-05,-9.5976e-07,0
-6.93676e-05,2.14741e-05,-4.82197e-06,-1.50524e-05,2.72966e-05,-3.42463e-06,1.48515e-05,-9.0103e-07,0
-5.71273e-05,1.60548e-05,-4.50797e-06,-1.14135e-05,4.28991e-05,-1.13497e-05,1.31404e-05,-1.21764e-06,0
-5.2416e-05,8.25349e-06,-5.81068e-06,-8.75995e-06,3.83619e-05,-1.33638e-05,1.17308e-05,-1.38609e-06,0
-5.33313e-05,2.79847e-06,-7.85501e-06,-3.5742e-06,-9.17285e-06,-8.94939e-06,1.08783e-05,-1.35089e-06,0
-3.81518e-05,7.22121e-06,-8.57491e-06,3.69895e-06,-7.15231e-05,-4.37303e-06,1.04479e-05,-2.22821e-06,0
3.03074e-06,2.13736e-05,-8.7512e-06,1.09817e-05,-9.67089e-05,-2.09841e-06,9.75232e-06,-2.71817e-06,0
4.64302e-05,3.5192e-05,-9.29024e-06,1.7348e-05,-7.52188e-05,-1.81099e-06,8.64294e-06,-1.0123e-06,0
6.08227e-05,4.15533e-05,-9.36697e-06,2.19895e-05,-3.59038e-05,-3.0135e-06,6.55575e-06,1.29596e-06,0
4.75674e-05,3.93206e-05,-9.0119e-06,2.22756e-05,-5.64471e-06,-3.33263e-06,3.84036e-06,2.05081e-06,0
3.22224e-05,3.37465e-05,-9.85117e-06,1.5206e-05,1.11576e-05,-1.48591e-06,1.90639e-06,1.75345e-06,0
2.62565e-05,3.12975e-05,-1.13555e-05,3.50418e-06,1.81086e-05,3.60749e-06,3.43448e-06,2.70826e-06,0
1.7343e-05,2.96748e-05,-1.21243e-05,-8.0639e-06,1.55304e-05,1.05926e-05,6.56158e-06,5.01391e-06,0
-5.81993e-06,1.75322e-05,-1.19711e-05,-1.63005e-05,-1.41522e-06,1.0785e-05,8.35707e-06,7.15379e-06,0
-3.54676e-05,5.95577e-06,-1.11962e-05,-1.99989e-05,-2.88402e-05,2.17476e-06,8.85482e-06,7.42798e-06,0
-5.47919e-05,1.57457e-05,-1.03875e-05,-2.2491e-05,-4.47491e-05,-7.35913e-06,8.48381e-06,7.19914e-06,0
-5.54009e-05,3.66962e-05,-8.21071e-06,-2.8424e-05,-3.54597e-05,-1.79438e-05,8.72837e-06,7.80354e-06,0
-3.52694e-05,4.83427e-05,-6.83607e-06,-3.56671e-05,-1.76171e-05,-2.93434e-05,1.00821e-05,6.47747e-06,0
7.41363e-06,4.8389e-05,-6.95604e-06,-3.74102e-05,-7.04363e-06,-3.57141e-05,1.05716e-05,5.03192e-06,0
5.10267e-05,4.00157e-05,-7.06602e-06,-3.45325e-05,7.93595e-06,-2.9528e-05,1.12791e-05,5.44625e-06,0
5.95364e-05,3.05138e-05,-7.06711e-06,-5.42084e-05,3.8606e-05,-1.8503e-05,1.40435e-05,5.35216e-06,0
2.54402e-05,3.51761e-05,-6.8979e-06,-0.000107971,6.38896e-05,-1.499e-05,1.70578e-05,4.44282e-06,0
-2.8772e-05,4.69297e-05,-7.24065e-06,-0.000140452,6.3794e-05,-1.21223e-05,1.76512e-05,4.09377e-06,0
-7.92674e-05,4.85597e-05,-6.25899e-06,-0.000115059,5.01958e-05,-7.26979e-06,1.64606e-05,3.18827e-06,0
-0.000115303,3.06957e-05,-6.70077e-06,-6.08492e-05,3.98372e-05,-1.06348e-06,1.57282e-05,3.69591e-06,0
-0.000130573,2.35972e-06,-1.02527e-05,-1.42736e-05,4.33494e-05,3.32754e-06,1.67044e-05,5.65264e-06,0
-0.000126763,-2.29884e-05,-1.43726e-05,1.51275e-05,5.92508e-05,2.59005e-06,1.46021e-05,6.19238e-06,0
-0.00010537,-4.15226e-05,-1.86125e-05,3.55353e-05,7.93164e-05,-3.88914e-06,5.21392e-07,5.71297e-06,0
-6.68457e-05,-4.634e-05,-2.3189e-05,5.28512e-05,9.02778e-05,-1.76717e-05,-2.24226e-05,5.82886e-06,0
-1.48172e-05,-3.16444e-05,-2.57094e-05,6.21322e-05,8.44386e-05,-3.43024e-05,-4.04008e-05,5.59197e-06,0
3.99514e-05,-4.48784e-06,-2.42654e-05,5.53204e-05,6.88172e-05,-4.26735e-05,-4.33526e-05,4.30201e-06,0
8.01388e-05,1.6772e-05,-2.15498e-05,3.64203e-05,5.25291e-05,-3.7949e-05,-3.11262e-05,3.4803e-06,0
9.12682e-05,2.59027e-05,-1.89952e-05,2.25774e-05,3.71944e-05,-2.58694e-05,-9.5886e-06,2.40548e-06,0
6.92907e-05,3.25829e-05,-1.58173e-05,2.63521e-05,2.23716e-05,-1.32773e-05,1.36082e-05,1.11935e-06,0
2.40842e-05,4.6954e-05,-1.13159e-05,4.4023e-05,8.33658e-06,-6.78515e-06,3.27389e-05,4.40006e-07,0
-2.87672e-05,5.87752e-05,-6.09831e-06,6.36066e-05,-8.486e-06,-8.1254e-06,4.45584e-05,-1.5286e-07,0
-7.52192e-05,5.31869e-05,-2.38568e-06,7.31541e-05,-2.59348e-05,-1.59393e-05,4.89707e-05,-9.56521e-07,0
-0.000107147,3.44642e-05,-1.99014e-06,6.78315e-05,-3.27001e-05,-2.6629e-05,4.84749e-05,-8.7043e-07,0
-0.000117513,1.51241e-05,-3.37822e-06,5.03896e-05,-2.24125e-05,-3.46911e-05,4.57092e-05,-6.34453e-07,0
-0.000110365,-1.31387e-06,-6.12548e-06,2.73986e-05,-2.40288e-06,-3.23146e-05,4.26904e-05,4.69241e-07,0
-8.94591e-05,-8.20962e-06,-1.01659e-05,7.23989e-06,1.4073e-05,-1.3754e-05,3.9921e-05,2.7404e-06,0
-5.33593e-05,-8.27532e-07,-1.18755e-05,-3.48808e-06,1.40751e-05,7.79548e-06,3.74491e-05,3.89462e-06,0
-2.32153e-05,6.82608e-07,-1.01674e-05,-6.24623e-06,2.04856e-06,1.05587e-05,3.45851e-05,4.13434e-06,0
-2.25638e-05,-2.08478e-05,-8.59342e-06,-9.46734e-06,-1.35396e-05,-1.35301e-06,3.12302e-05,4.51551e-06,0
-4.22099e-05,-4.99225e-05,-8.79818e-06,-1.79555e-05,-3.21351e-05,-1.14219e-05,2.96843e-05,3.7599e-06,0
-6.4651e-05,-6.52252e-05,-8.45414e-06,-2.93044e-05,-4.08029e-05,-1.3863e-05,2.92629e-05,2.61029e-06,0
-8.10905e-05,-5.77425e-05,-7.36418e-06,-3.71954e-05,-3.11783e-05,-1.12969e-05,2.62386e-05,2.63989e-06,0
-8.60013e-05,-3.49758e-05,-8.01998e-06,-3.87153e-05,-9.03628e-06,-8.69884e-06,1.85092e-05,2.58591e-06,0
-7.13094e-05,-1.11783e-05,-9.52565e-06,-3.65286e-05,1.32477e-05,-8.64223e-06,8.14114e-06,3.1577e-06,0
-3.23821e-05,1.39761e-05,-1.01402e-05,-2.94992e-05,2.29516e-05,-8.65054e-06,1.18396e-06,3.73839e-06,0
1.04504e-05,3.75792e-05,-1.10569e-05,-1.62629e-05,2.1669e-05,-7.1888e-06,-8.0316e-07,3.72577e-06,0
3.11475e-05,5.43606e-05,-1.33868e-05,3.02489e-06,1.80036e-05,-3.42089e-06,9.40317e-07,4.20766e-06,0
2.96968e-05,5.83027e-05,-1.62467e-05,2.00701e-05,1.5687e-05,1.51151e-06,3.03031e-06,4.71398e-06,0
2.41126e-05,3.98829e-05,-1.72283e-05,3.02258e-05,1.78261e-05,4.1271e-06,1.06656e-06,5.23704e-06,0
1.42641e-05,-3.82602e-06,-1.5381e-05,3.4866e-05,2.41056e-05,2.55773e-06,-7.88927e-06,5.76906e-06,0
-7.36008e-06,-4.496e-05,-1.35186e-05,3.1979e-05,3.34045e-05,-2.82083e-06,-2.02985e-05,6.52238e-06,0
-3.54158e-05,-5.14559e-05,-1.3415e-05,2.2934e-05,4.08615e-05,-7.47079e-06,-2.74261e-05,7.16739e-06,0
-5.96933e-05,-2.86912e-05,-1.27917e-05,1.08593e-05,4.05844e-05,-9.70167e-06,-2.58212e-05,7.9306e-06,0
-7.34807e-05,-5.98349e-06,-1.06712e-05,-8.66754e-07,3.76271e-05,-1.03242e-05,-1.52511e-05,8.31403e-06,0
-7.89342e-05,-9.35373e-07,-7.60841e-06,-1.02872e-05,3.66969e-05,-1.14224e-05,1.51711e-06,7.35415e-06,0
-8.29845e-05,-1.71511e-06,-3.204e-06,-1.53974e-05,3.32408e-05,-1.24898e-05,2.02404e-05,6.12856e-06,0
-9.06579e-05,3.99445e-06,4.21001e-06,-1.62854e-05,3.06441e-05,-1.29135e-05,3.61734e-05,6.26838e-06,0
-9.64005e-05,1.31259e-05,1.73414e-05,-1.34966e-05,4.64295e-05,-1.26633e-05,4.62772e-05,8.48394e-06,0
-9.14576e-05,1.9603e-05,3.65202e-05,-1.28631e-05,8.27058e-05,-1.22782e-05,4.88835e-05,1.06833e-05,0
-7.55662e-05,2.24134e-05,5.66997e-05,-1.87639e-05,0.000100556,-1.17029e-05,4.56652e-05,1.06158e-05,0
-5.64752e-05,2.13237e-05,7.07931e-05,-2.22121e-05,6.07451e-05,-1.17996e-05,4.08972e-05,1.00988e-05,0
-3.92945e-05,2.06643e-05,6.94719e-05,-1.29624e-05,-1.09507e-05,-1.1506e-05,3.73476e-05,1.14993e-05,0
-2.60306e-05,2.34187e-05,4.62589e-05,7.79694e-07,-6.23475e-05,-8.98653e-06,3.63431e-05,1.22345e-05,0
-1.78783e-05,2.84604e-05,5.09445e-06,3.44534e-06,-7.81212e-05,-6.63569e-06,3.58473e-05,1.16265e-05,0
-1.4134e-05,3.24821e-05,-4.03485e-05,-1.00906e-05,-7.17532e-05,-6.16852e-06,3.34492e-05,1.12482e-05,0
-1.26795e-05,3.45644e-05,-7.75078e-05,-4.2159e-05,-5.0059e-05,-6.66039e-06,2.74252e-05,1.04224e-05,0
-1.40892e-05,3.5424e-05,-9.5183e-05,-8.11022e-05,-2.0801e-05,-5.04003e-06,1.96107e-05,9.6992e-06,0
-1.51976e-05,3.23424e-05,-9.21728e-05,-0.000108644,5.55845e-06,-1.68132e-06,1.40743e-05,8.76514e-06,0
-1.30085e-05,2.33925e-05,-7.85645e-05,-0.000127171,2.14859e-05,-5.16384e-07,9.60167e-06,6.86227e-06,0
-1.29697e-05,1.15629e-05,-6.22151e-05,-0.00013679,2.20011e-05,-1.27392e-06,4.39275e-06,5.55407e-06,0
-1.68503e-05,-4.28037e-06,-5.05228e-05,-0.000128681,2.32723e-05,-8.77332e-07,-1.94385e-06,5.23872e-06,0
-2.08218e-05,-2.22027e-05,-4.12239e-05,-9.7441e-05,4.082e-05,4.53502e-07,-9.83713e-06,5.54214e-06,0
-2.00097e-05,-4.222e-05,-3.16414e-05,-5.22323e-05,6.27063e-05,5.60554e-07,-1.59554e-05,5.91662e-06,0
-1.15011e-05,-7.20376e-05,-2.00956e-05,-4.9984e-06,6.68914e-05,-1.55148e-06,-1.84495e-05,5.87688e-06,0
5.77101e-06,-7.97929e-05,-1.03797e-05,3.1376e-05,5.82332e-05,-4.04968e-06,-1.7984e-05,5.29635e-06,0
2.36083e-05,-3.43718e-05,-4.98777e-06,4.18409e-05,5.37534e-05,-5.38792e-06,-1.59221e-05,5.91244e-06,0
3.22626e-05,3.67065e-05,-1.1101e-06,2.54078e-05,5.66114e-05,-5.3207e-06,-1.54273e-05,7.87326e-06,0
2.73114e-05,7.51485e-05,3.02447e-06,-7.17186e-06,5.22677e-05,-5.36821e-06,-1.55044e-05,1.12018e-05,0
1.02675e-05,7.05723e-05,8.03739e-06,-3.68948e-05,3.54881e-05,-6.49437e-06,-1.32952e-05,1.63066e-05,0
-1.05748e-05,7.24754e-05,1.08382e-05,-5.25095e-05,2.21004e-05,-5.76741e-06,-8.43904e-06,2.01358e-05,0
-3.17955e-05,9.58921e-05,1.04595e-05,-5.27847e-05,2.30633e-05,-4.20631e-06,-1.64258e-06,1.77491e-05,0
-5.74144e-05,0.000107368,6.54151e-06,-4.39163e-05,2.77634e-05,-4.70251e-06,5.01914e-06,9.14329e-06,0
-8.36672e-05,8.54774e-05,2.48657e-06,-2.74062e-05,2.12098e-05,-4.40221e-06,9.78521e-06,3.64507e-07,0
-9.6942e-05,4.89485e-05,1.20333e-06,-7.4779e-07,4.55274e-06,-1.09882e-06,1.15645e-05,-4.51805e-06,0
-9.05907e-05,2.53622e-05,4.38778e-06,3.08131e-05,-1.34461e-05,2.35196e-06,1.13118e-05,-5.78453e-06,0
-7.36843e-05,2.09356e-05,9.1515e-06,5.44089e-05,-1.83353e-05,3.26022e-06,1.03918e-05,-6.63079e-06,0
-6.23837e-05,2.26888e-05,1.15316e-05,7.05735e-05,-9.31732e-06,-3.58776e-06,1.00908e-05,-8.54321e-06,0
-6.08953e-05,1.64445e-05,1.02114e-05,8.94582e-05,-3.06387e-06,-3.02599e-05,1.14732e-05,-1.11989e-05,0
-6.36685e-05,-2.50559e-06,7.0643e-06,0.00010609,-4.68205e-06,-7.30774e-05,1.42909e-05,-1.29864e-05,0
-6.57038e-05,-2.36281e-05,3.70944e-06,0.000107641,-6.67431e-06,-7.94473e-05,1.60032e-05,-1.40576e-05,0
-6.31463e-05,-2.85775e-05,2.47517e-06,9.45116e-05,-3.76797e-06,-2.10265e-05,1.59432e-05,-1.31801e-05,0
-5.71228e-05,-1.89802e-05,3.15559e-06,7.40833e-05,5.59639e-06,3.15274e-05,1.65395e-05,-1.04886e-05,0
-5.1189e-05,-7.23127e-06,4.16567e-06,5.45475e-05,1.06307e-05,2.64599e-05,1.72301e-05,-9.49046e-06,0
-4.45966e-05,-1.83595e-06,2.95075e-06,4.03763e-05,3.25185e-06,-3.86085e-06,1.68055e-05,-7.91579e-06,0
-3.36247e-05,-1.58209e-06,-1.47769e-06,2.76645e-05,-5.88514e-06,-1.99831e-05,1.54825e-05,-4.76715e-06,0
-1.54605e-05,8.33798e-07,-8.49225e-06,1.53736e-05,-1.10951e-05,-1.82263e-05,1.54426e-05,-2.91524e-06,0
1.09166e-06,1.16761e-05,-1.64439e-05,1.05684e-08,-2.70628e-05,-1.19993e-05,1.58277e-05,-2.75971e-06,0
9.68705e-06,1.58288e-05,-2.1562e-05,-1.80932e-05,-4.76274e-05,-9.11989e-06,1.51547e-05,-3.03418e-06,0
1.8198e-05,1.18055e-05,-2.50783e-05,-3.29544e-05,-4.67305e-05,-8.6592e-06,1.47071e-05,-2.43479e-06,0
2.99015e-05,1.6117e-05,-2.41123e-05,-4.22997e-05,-2.43822e-05,-7.28968e-06,1.45916e-05,-2.17371e-06,0
3.68889e-05,1.62148e-05,-1.98556e-05,-4.44149e-05,4.09892e-06,-4.16973e-06,1.36509e-05,-1.60382e-06,0
3.85397e-05,6.27663e-06,-1.39176e-05,-3.52005e-05,2.9942e-05,-1.72574e-07,1.24689e-05,-1.13129e-06,0
3.64811e-05,-5.96078e-06,-9.81747e-06,-1.94805e-05,4.9886e-05,5.80613e-07,1.24697e-05,-2.0657e-06,0
2.15206e-05,-7.64273e-06,-1.05867e-05,-4.13826e-06,5.867e-05,-3.94772e-06,1.1512e-05,-4.65544e-06,0
-5.74027e-06,4.20711e-06,-1.25288e-05,7.91585e-06,5.1977e-05,-1.01392e-05,1.00157e-05,-7.25995e-06,0
-3.29974e-05,2.35902e-05,-1.14038e-05,1.65324e-05,3.7319e-05,-1.23055e-05,1.02856e-05,-8.24769e-06,0
-5.27143e-05,3.71154e-05,-7.65393e-06,2.48564e-05,2.99641e-05,-9.3429e-06,1.1808e-05,-8.04541e-06,0
-6.46285e-05,3.70806e-05,-3.73004e-06,3.25824e-05,3.54999e-05,-3.54774e-06,1.34151e-05,-7.24108e-06,0
-6.7613e-05,3.28815e-05,4.86595e-07,3.65466e-05,4.69298e-05,1.29293e-06,1.54314e-05,-7.47673e-06,0
-6.36717e-05,3.1593e-05,3.7547e-06,3.633e-05,5.35174e-05,2.38399e-06,1.75631e-05,-8.28267e-06,0
-5.68225e-05,3.19964e-05,5.49803e-06,3.35717e-05,4.84889e-05,-7.17037e-07,1.81358e-05,-8.27624e-06,0
-4.66581e-05,2.9663e-05,5.38603e-06,2.72938e-05,3.20627e-05,-3.89498e-06,1.73848e-05,-6.32933e-06,0
-3.44297e-05,2.77671e-05,2.0781e-06,1.59526e-05,1.33268e-05,-4.68277e-06,1.7563e-05,-4.03333e-06,0
-2.71206e-05,2.80736e-05,-4.13744e-06,-1.55578e-06,3.64921e-07,-5.5292e-06,1.9473e-05,-2.98189e-06,0
-2.6804e-05,3.0087e-05,-8.19983e-06,-2.29612e-05,-7.69053e-06,-8.66662e-06,2.22598e-05,-3.95674e-06,0
-2.88012e-05,3.0964e-05,-8.22363e-06,-3.91122e-05,-1.33826e-05,-1.36806e-05,2.34577e-05,-3.93477e-06,0
-2.90488e-05,3.18837e-05,-5.63226e-06,-4.30167e-05,-1.4874e-05,-2.10167e-05,2.05421e-05,-2.80291e-06,0
-2.72598e-05,3.29873e-05,-2.22112e-06,-3.74687e-05,-1.12806e-05,-2.94244e-05,1.79888e-05,-2.6628e-06,0
-2.81717e-05,3.52023e-05,2.01698e-06,-2.9795e-05,-4.66351e-06,-3.18869e-05,1.85302e-05,-3.59483e-06,0
-3.26526e-05,3.53308e-05,3.06227e-06,-2.81758e-05,5.80766e-06,-2.45998e-05,1.88511e-05,-4.75411e-06,0
-3.34391e-05,3.09173e-05,-1.43221e-06,-3.11931e-05,1.45348e-05,-1.62532e-05,1.62562e-05,-4.13566e-06,0
-2.75491e-05,2.67599e-05,-5.77243e-06,-3.4648e-05,1.37731e-05,-1.385e-05,1.19199e-05,-3.32832e-06,0
-2.13652e-05,2.39646e-05,-7.89618e-06,-3.58712e-05,7.70256e-06,-1.26928e-05,1.04103e-05,-2.65766e-06,0
-2.04289e-05,1.55588e-05,-8.86785e-06,-3.10348e-05,5.65853e-06,-1.13956e-05,1.28265e-05,-1.54281e-06,0
-2.52979e-05,1.03975e-06,-1.09924e-05,-2.09238e-05,8.25224e-06,-1.09118e-05,1.61374e-05,-1.30354e-06,0
-2.82744e-05,-1.14549e-05,-1.44741e-05,-9.14653e-06,6.99723e-06,-1.18916e-05,1.75618e-05,-1.92766e-06,0
-2.69868e-05,-1.48495e-05,-1.49058e-05,-3.18254e-06,1.54018e-07,-1.45428e-05,1.76871e-05,-2.08232e-06,0
-2.56685e-05,-9.63062e-06,-1.13093e-05,-1.86009e-06,-8.82486e-06,-1.82138e-05,1.73326e-05,-1.53771e-06,0
-2.73278e-05,-6.50446e-06,-8.10653e-06,-4.06291e-06,-1.42656e-05,-2.01837e-05,1.7367e-05,-2.05437e-07,0
-3.22968e-05,-1.04032e-05,-8.5962e-06,-1.16253e-05,-1.34861e-05,-1.81789e-05,1.80117e-05,-2.64446e-07,0
-3.63974e-05,-1.68284e-05,-1.1508e-05,-1.80993e-05,-9.69697e-06,-1.4777e-05,1.77089e-05,-1.85047e-06,0
-3.17149e-05,-1.95891e-05,-1.27022e-05,-1.65197e-05,-7.6582e-06,-1.28743e-05,1.65924e-05,-2.537e-06,0
-1.36185e-05,-1.82714e-05,-1.19081e-05,-3.91881e-06,-1.38181e-05,-1.29237e-05,1.5373e-05,-1.35013e-06,0
7.99905e-06,-1.41682e-05,-1.15462e-05,1.6057e-05,-3.259e-05,-1.37045e-05,1.42306e-05,3.56664e-07,0
2.22965e-05,-6.19256e-06,-1.16802e-05,3.45071e-05,-4.93556e-05,-1.40672e-05,1.37215e-05,1.56364e-06,0
2.65132e-05,8.76503e-06,-1.1873e-05,3.80327e-05,-3.75688e-05,-1.42958e-05,1.36937e-05,2.6196e-06,0
2.11751e-05,2.48519e-05,-1.27737e-05,2.11253e-05,-1.803e-06,-1.39453e-05,1.3204e-05,3.25237e-06,0
6.11022e-06,2.9443e-05,-1.3723e-05,-3.5011e-06,3.15318e-05,-1.24352e-05,1.29086e-05,3.62935e-06,0
-1.8071e-05,1.90546e-05,-1.33518e-05,-1.78023e-05,6.37055e-05,-1.1733e-05,1.28557e-05,3.86297e-06,0
-4.63536e-05,9.01798e-06,-1.16249e-05,-1.39129e-05,0.000124595,-1.3463e-05,1.29627e-05,3.69187e-06,0
-6.69483e-05,7.52258e-06,-9.99498e-06,5.99044e-06,0.000193326,-1.5702e-05,1.38413e-05,2.59237e-06,0
-7.3998e-05,-5.68393e-06,-9.87853e-06,2.33248e-05,0.000183295,-1.61655e-05,1.2184e-05,2.77649e-06,0
-7.4211e-05,-4.39363e-05,-1.01361e-05,2.31146e-05,9.04771e-05,-1.69759e-05,5.86871e-06,3.34045e-06,0
-7.68004e-05,-8.76232e-05,-9.08171e-06,1.47036e-05,5.83406e-06,-1.84243e-05,-2.94645e-07,1.36199e-06,0
-8.31468e-05,-0.000115654,-6.38698e-06,8.50779e-06,-4.0396e-05,-1.71953e-05,-2.45307e-06,-2.43335e-06,0
-8.42516e-05,-0.000108739,-3.53698e-06,4.42164e-06,-5.7278e-05,-1.19998e-05,-1.38158e-06,-5.56793e-06,0
-7.37962e-05,-4.43313e-05,-1.43141e-06,-2.18467e-06,-5.41693e-05,-1.75688e-06,9.07485e-07,-7.05448e-06,0
-5.63557e-05,3.52386e-05,-3.14366e-07,-8.31071e-06,-5.88694e-05,6.07182e-06,1.9142e-06,-7.21201e-06,0
-4.26736e-05,7.06985e-05,-1.38948e-06,-1.2944e-05,-5.89758e-05,3.48176e-06,1.51949e-06,-6.55282e-06,0
-3.51239e-05,6.7409e-05,-3.15465e-06,-2.34715e-05,-3.5461e-05,-3.32916e-06,3.22261e-06,-6.4476e-06,0
-2.62948e-05,5.05497e-05,-4.42967e-06,-3.88737e-05,-6.37501e-06,-8.54587e-06,7.37914e-06,-5.30191e-06,0
-1.60732e-05,3.74339e-05,-4.41626e-06,-4.48117e-05,1.6384e-05,-8.37504e-06,1.19361e-05,-3.73005e-06,0
-1.07969e-05,2.92772e-05,-3.25744e-06,-3.9611e-05,2.58802e-05,-6.83071e-06,1.59133e-05,-3.23319e-06,0
