ch1,ch2,ch3,ch4,ch5,ch6,ch7,ch8,class
-3.45075e-05,5.39061e-06,-8.83625e-06,-6.52069e-06,1.2943e-05,-2.91153e-06,3.65706e-05,2.53586e-06,0
-3.44845e-05,7.50424e-06,-1.04881e-05,-7.57353e-06,8.07864e-06,-3.33215e-06,3.38126e-05,4.05649e-06,0
-3.22609e-05,8.36835e-06,-1.2692e-05,-1.0715e-05,5.27536e-06,-5.3234e-06,3.16969e-05,3.00064e-06,0
-3.06354e-05,1.02517e-05,-1.14192e-05,-1.44351e-05,5.81119e-06,-6.99845e-06,2.60619e-05,5.6459e-07,0
-3.11518e-05,1.10951e-05,-8.38384e-06,-1.65227e-05,5.05252e-06,-6.52429e-06,1.85163e-05,-7.5197e-07,0
-3.21954e-05,9.70275e-06,-7.8014e-06,-1.72043e-05,3.45775e-06,-6.14752e-06,1.41932e-05,-7.32913e-08,0
-3.13613e-05,1.00266e-05,-8.54367e-06,-1.59664e-05,2.67668e-06,-5.8499e-06,1.20854e-05,6.35224e-07,0
-2.9088e-05,1.31743e-05,-9.19615e-06,-1.28605e-05,4.36422e-06,-4.31439e-06,9.62431e-06,-1.13795e-06,0
-2.76051e-05,1.83537e-05,-8.97305e-06,-1.03286e-05,7.10993e-06,-2.4714e-06,7.00718e-06,-3.87726e-06,0
-2.74657e-05,2.32564e-05,-7.89184e-06,-8.61776e-06,8.23166e-06,-1.56967e-06,9.74293e-06,-6.13068e-06,0
-2.72757e-05,2.5912e-05,-7.8232e-06,-5.65201e-06,7.25243e-06,-1.35577e-06,1.85398e-05,-6.71362e-06,0
-2.62618e-05,2.70098e-05,-9.26232e-06,-1.8365e-06,5.34548e-06,-1.32353e-06,2.81616e-05,-6.0876e-06,0
-2.52793e-05,2.73435e-05,-1.13124e-05,2.56705e-06,4.31898e-06,-2.07346e-06,3.36905e-05,-4.97789e-06,0
-2.58943e-05,2.69794e-05,-1.23359e-05,7.85251e-06,4.50265e-06,-3.89953e-06,3.15028e-05,-3.94041e-06,0
-2.72308e-05,2.58781e-05,-1.22604e-05,1.05806e-05,5.4004e-06,-6.20237e-06,2.40429e-05,-3.9634e-06,0
-2.75857e-05,2.46603e-05,-1.09186e-05,8.11215e-06,7.33941e-06,-7.705e-06,1.34678e-05,-4.92023e-06,0
-2.68713e-05,2.43146e-05,-8.70247e-06,3.99187e-06,1.16263e-05,-7.99006e-06,1.58502e-06,-4.33341e-06,0
-2.55852e-05,2.62336e-05,-5.53933e-06,2.99712e-06,1.65158e-05,-7.96131e-06,-8.03924e-06,-5.66071e-07,0
-2.52747e-05,2.90586e-05,-2.37078e-06,2.7685e-06,1.98688e-05,-7.73638e-06,-1.29121e-05,2.80349e-06,0
-2.62717e-05,2.93149e-05,-5.45029e-08,-1.43341e-06,2.20345e-05,-7.15723e-06,-1.60773e-05,2.98679e-06,0
-2.69856e-05,2.67007e-05,4.57858e-07,-8.17973e-06,2.24231e-05,-7.86363e-06,-1.82304e-05,2.00267e-06,0
-2.72084e-05,2.59366e-05,-1.39417e-06,-1.31675e-05,1.97076e-05,-1.0434e-05,-1.67028e-05,2.31821e-06,0
-2.89727e-05,3.3961e-05,-4.19177e-06,-1.6205e-05,1.76376e-05,-1.23888e-05,-1.11813e-05,2.99735e-06,0
-3.08625e-05,5.14412e-05,-5.4291e-06,-2.10557e-05,1.68949e-05,-1.21211e-05,-4.10135e-06,3.69308e-06,0
-3.07955e-05,6.88391e-05,-3.43786e-06,-2.7576e-05,1.46893e-05,-9.32232e-06,3.24382e-06,3.86702e-06,0
-2.93125e-05,7.73228e-05,-6.11528e-07,-3.24166e-05,1.24436e-05,-9.44128e-06,9.42012e-06,4.00487e-06,0
-2.71822e-05,7.28135e-05,9.60049e-07,-3.05254e-05,1.18287e-05,-1.4101e-05,1.30216e-05,5.16252e-06,0
-2.62316e-05,5.4133e-05,1.60084e-06,-1.72136e-05,1.23788e-05,-1.77722e-05,1.38535e-05,4.85032e-06,0
-2.74477e-05,3.09683e-05,9.32338e-07,3.64889e-06,1.30741e-05,-1.8919e-05,1.46815e-05,4.8428e-06,0
-2.89179e-05,9.09745e-06,3.14417e-07,2.42601e-05,1.23708e-05,-1.82154e-05,1.71727e-05,6.74993e-06,0
-2.9247e-05,-1.06477e-05,6.02385e-07,3.49086e-05,1.10098e-05,-1.69341e-05,1.93419e-05,8.28094e-06,0
-2.96399e-05,-2.0978e-05,4.71916e-07,3.19325e-05,1.18575e-05,-1.70034e-05,2.03588e-05,9.0389e-06,0
-2.92878e-05,-2.36596e-05,-1.00087e-06,2.28231e-05,1.38235e-05,-1.84567e-05,1.93636e-05,9.89693e-06,0
-2.89765e-05,-2.28969e-05,-2.78229e-06,1.35775e-05,1.55126e-05,-2.02247e-05,1.83301e-05,1.00939e-05,0
-3.00554e-05,-1.99268e-05,-3.58985e-06,1.03855e-05,1.64418e-05,-2.03014e-05,1.70605e-05,1.06033e-05,0
-3.12963e-05,-1.59943e-05,-2.76054e-06,1.41031e-05,1.69862e-05,-1.78645e-05,1.52107e-05,1.19146e-05,0
-3.12251e-05,-1.17809e-05,-1.36956e-06,1.71439e-05,1.65265e-05,-1.4883e-05,1.42336e-05,1.10778e-05,0
-2.98623e-05,-6.77188e-06,-1.16408e-06,1.36692e-05,1.41183e-05,-1.23822e-05,1.42058e-05,8.4387e-06,0
-2.85996e-05,-1.60344e-06,-2.73377e-06,4.9853e-06,1.07329e-05,-1.19849e-05,1.41651e-05,5.69684e-06,0
-2.87216e-05,2.79624e-06,-4.75802e-06,-3.05849e-06,7.89353e-06,-1.29767e-05,1.41256e-05,3.5573e-06,0
-3.0494e-05,6.42659e-06,-5.85644e-06,-6.72453e-06,6.9188e-06,-1.33541e-05,1.44701e-05,1.80654e-06,0
-3.14359e-05,8.71071e-06,-6.36871e-06,-8.00881e-06,7.6247e-06,-1.17694e-05,1.63162e-05,1.17683e-06,0
-3.09467e-05,1.07327e-05,-6.16161e-06,-1.01591e-05,8.25311e-06,-9.1842e-06,1.89575e-05,3.99908e-07,0
-3.08779e-05,1.23407e-05,-4.87724e-06,-1.43452e-05,8.09509e-06,-7.4236e-06,2.10216e-05,-1.37154e-06,0
-3.19428e-05,1.25882e-05,-2.86524e-06,-1.9425e-05,8.30112e-06,-6.85734e-06,2.4293e-05,-1.74658e-06,0
-3.2864e-05,9.98738e-06,-2.67438e-06,-2.1892e-05,9.2926e-06,-6.86649e-06,3.24745e-05,-1.05064e-08,0
-3.34005e-05,6.36546e-06,-4.43934e-06,-2.03395e-05,1.01855e-05,-6.45564e-06,4.60428e-05,2.2133e-06,0
-3.32514e-05,3.67015e-06,-6.37171e-06,-1.61479e-05,1.04905e-05,-5.33341e-06,5.74866e-05,3.52839e-06,0
-3.16363e-05,3.30862e-06,-7.24696e-06,-1.03823e-05,1.13068e-05,-3.71603e-06,6.04338e-05,3.97583e-06,0
-3.00148e-05,3.79665e-06,-7.30167e-06,-2.36225e-06,1.20113e-05,-3.33459e-06,5.57208e-05,4.35214e-06,0
-3.04887e-05,3.1829e-06,-8.19233e-06,4.462e-06,1.29676e-05,-4.3452e-06,4.74799e-05,3.94401e-06,0
-3.27485e-05,3.8379e-06,-1.0517e-05,6.31789e-06,1.30442e-05,-4.49785e-06,3.87617e-05,2.71937e-06,0
-3.28724e-05,6.4101e-06,-1.21195e-05,2.55988e-06,1.08944e-05,-3.81134e-06,2.67198e-05,8.74967e-07,0
-3.02708e-05,9.01073e-06,-1.15321e-05,-4.7402e-06,8.1329e-06,-4.44269e-06,7.78186e-06,-6.5912e-08,0
-2.95915e-05,1.01982e-05,-1.12903e-05,-9.86963e-06,8.21472e-06,-4.87124e-06,-1.31171e-05,2.16348e-07,0
-3.08343e-05,1.15033e-05,-1.17877e-05,-1.46701e-05,9.4466e-06,-3.45687e-06,-2.95856e-05,-1.54829e-06,0
-3.02737e-05,1.28509e-05,-9.00576e-06,-2.50498e-05,1.14904e-05,-2.20416e-06,-3.38479e-05,-3.66424e-06,0
-2.7599e-05,1.06691e-05,-3.98821e-06,-3.73866e-05,1.6438e-05,-1.31649e-06,-2.77801e-05,-4.35295e-06,0
-2.60254e-05,6.21633e-06,-2.07881e-06,-4.37168e-05,1.97194e-05,4.503e-07,-2.07728e-05,-2.74991e-06,0
-2.66398e-05,4.0416e-06,-5.2308e-06,-4.0967e-05,1.9493e-05,-4.18124e-07,-1.56118e-05,-1.01541e-06,0
-2.71706e-05,3.92779e-06,-7.71854e-06,-3.40287e-05,1.75088e-05,-3.67932e-06,-1.1261e-05,-1.8931e-06,0
-2.70748e-05,2.95016e-06,-7.50664e-06,-2.76264e-05,1.73497e-05,-5.89573e-06,-5.67866e-06,-4.92871e-06,0
-2.72088e-05,1.20805e-06,-6.68349e-06,-2.08494e-05,1.83898e-05,-6.11078e-06,-1.0805e-06,-6.54854e-06,0
-2.84071e-05,-1.23351e-07,-5.55936e-06,-1.12421e-05,1.91478e-05,-5.58294e-06,1.78895e-06,-6.924e-06,0
-3.08651e-05,-3.48947e-07,-4.31742e-06,-7.09592e-07,1.85881e-05,-5.88034e-06,3.23536e-06,-7.76841e-06,0
-3.27156e-05,1.3689e-06,-4.55706e-06,5.37935e-06,1.69149e-05,-6.7431e-06,5.78602e-06,-8.47722e-06,0
-3.29801e-05,6.8522e-06,-6.82221e-06,4.39939e-06,1.58461e-05,-7.38029e-06,9.03135e-06,-9.08978e-06,0
-3.27833e-05,1.44693e-05,-8.14146e-06,-3.18885e-07,1.55046e-05,-6.99867e-06,1.14441e-05,-8.38781e-06,0
-3.18274e-05,1.84091e-05,-8.18089e-06,-4.63998e-06,1.48787e-05,-6.27292e-06,1.31036e-05,-6.58926e-06,0
-3.0685e-05,1.667e-05,-8.83297e-06,-8.29549e-06,1.31715e-05,-6.59858e-06,1.2623e-05,-4.96708e-06,0
-3.10965e-05,1.05816e-05,-1.19259e-05,-1.19627e-05,1.1895e-05,-7.74049e-06,1.01609e-05,-4.68039e-06,0
-3.22405e-05,2.78579e-06,-1.45434e-05,-1.3607e-05,1.14429e-05,-8.55702e-06,6.82504e-06,-4.30519e-06,0
-3.24505e-05,-2.96397e-06,-1.41066e-05,-1.07708e-05,1.17169e-05,-1.00224e-05,4.56509e-06,-2.60173e-06,0
-3.25701e-05,-5.30422e-06,-1.09436e-05,-6.10511e-06,1.30784e-05,-1.20065e-05,4.43795e-06,-2.16034e-07,0
-3.27988e-05,-7.86128e-06,-9.41784e-06,-2.29228e-06,1.45982e-05,-1.34001e-05,6.73365e-06,1.52169e-06,0
-3.2971e-05,-1.42762e-05,-1.05763e-05,5.71345e-06,1.45338e-05,-1.27306e-05,9.34674e-06,3.49632e-06,0
-3.26677e-05,-2.2533e-05,-1.21914e-05,2.33685e-05,1.39705e-05,-1.09241e-05,1.12712e-05,3.87608e-06,0
-3.14846e-05,-2.60763e-05,-1.30723e-05,3.32873e-05,1.25733e-05,-1.09386e-05,1.22251e-05,3.79482e-06,0
-2.99066e-05,-2.37047e-05,-1.39735e-05,1.67027e-05,1.06442e-05,-1.28685e-05,1.2615e-05,4.91558e-06,0
-2.95501e-05,-1.79805e-05,-1.3462e-05,-1.41648e-05,9.18097e-06,-1.47602e-05,1.30168e-05,5.87265e-06,0
-3.13385e-05,-1.11216e-05,-1.12938e-05,-4.18161e-05,8.0083e-06,-1.61731e-05,1.21932e-05,5.49484e-06,0
-3.17327e-05,-5.49249e-06,-1.13336e-05,-5.67222e-05,6.74432e-06,-1.53193e-05,1.11747e-05,4.57822e-06,0
-3.02751e-05,-7.63099e-07,-1.21089e-05,-6.00655e-05,4.91269e-06,-1.16436e-05,1.16981e-05,5.18801e-06,0
-2.8268e-05,2.24057e-06,-1.1818e-05,-6.15095e-05,5.59279e-06,-9.52266e-06,1.28575e-05,4.33719e-06,0
-2.55162e-05,1.56357e-06,-1.00731e-05,-5.51792e-05,8.6089e-06,-9.69465e-06,1.24747e-05,2.388e-06,0
-2.43794e-05,-3.99598e-07,-8.3375e-06,-3.38567e-05,8.52231e-06,-8.38778e-06,1.07909e-05,1.29219e-06,0
-2.52491e-05,-1.28819e-07,-7.20145e-06,-3.87488e-06,4.59353e-06,-6.27471e-06,1.14777e-05,1.30129e-06,0
-2.53263e-05,3.50108e-06,-6.63993e-06,2.29494e-05,7.85869e-07,-5.8973e-06,1.34112e-05,1.32791e-07,0
-2.46422e-05,7.30262e-06,-6.94424e-06,4.64715e-05,9.80805e-07,-6.35881e-06,1.3469e-05,-1.28839e-06,0
-2.51769e-05,7.84911e-06,-7.87524e-06,6.55195e-05,4.42185e-06,-6.46115e-06,1.119e-05,-2.0781e-06,0
-2.65635e-05,6.47634e-06,-8.42338e-06,6.8665e-05,8.59805e-06,-6.27843e-06,8.74473e-06,-2.35717e-06,0
-2.7866e-05,6.03262e-06,-9.2575e-06,5.38787e-05,1.14462e-05,-6.70534e-06,6.72814e-06,-1.26083e-07,0
-2.86717e-05,6.53226e-06,-1.0738e-05,2.98459e-05,1.237e-05,-7.67622e-06,5.84489e-06,2.15978e-06,0
-2.8891e-05,7.35401e-06,-1.05055e-05,8.25301e-06,1.31906e-05,-8.50884e-06,6.90824e-06,2.69305e-06,0
-2.87154e-05,8.00457e-06,-9.54544e-06,-4.94369e-06,1.48025e-05,-8.75376e-06,9.92303e-06,2.57073e-06,0
-2.8869e-05,7.20778e-06,-1.03412e-05,-8.78924e-06,1.62693e-05,-8.51883e-06,1.38778e-05,3.28444e-06,0
-2.96492e-05,5.79264e-06,-1.25088e-05,-6.04208e-06,1.65123e-05,-8.54789e-06,1.56776e-05,3.70785e-06,0
-3.06322e-05,5.61934e-06,-1.29808e-05,3.69945e-07,1.80276e-05,-8.67955e-06,1.53572e-05,4.69259e-06,0
-3.0761e-05,7.35664e-06,-1.11633e-05,4.83402e-06,2.13588e-05,-8.27668e-06,1.53013e-05,6.41169e-06,0
-3.00613e-05,8.9354e-06,-9.49365e-06,2.0592e-06,2.4036e-05,-8.34503e-06,1.72503e-05,6.8422e-06,0
-3.05357e-05,1.0509e-05,-9.45485e-06,-8.93161e-06,2.43584e-05,-8.51597e-06,1.83221e-05,6.4769e-06,0
-3.16645e-05,1.1998e-05,-1.10026e-05,-2.23301e-05,2.32995e-05,-6.98092e-06,1.73819e-05,5.75016e-06,0
-3.22627e-05,1.21824e-05,-1.24966e-05,-2.9739e-05,2.10527e-05,-4.82486e-06,1.60759e-05,3.35396e-06,0
-3.1977e-05,1.24578e-05,-1.29335e-05,-2.97016e-05,1.78601e-05,-4.26031e-06,1.5827e-05,6.42935e-07,0
-3.16484e-05,1.45266e-05,-1.21812e-05,-2.77056e-05,1.41539e-05,-6.62439e-06,1.59937e-05,5.30046e-07,0
-3.15746e-05,1.66292e-05,-9.85792e-06,-2.84479e-05,1.06136e-05,-8.95822e-06,1.68538e-05,1.90502e-06,0
-3.07998e-05,1.80971e-05,-7.69385e-06,-3.0537e-05,7.86039e-06,-9.00251e-06,1.73352e-05,2.55296e-06,0
-3.00983e-05,1.98222e-05,-6.4871e-06,-3.00457e-05,7.57947e-06,-9.92482e-06,1.58803e-05,1.66738e-06,0
-3.05321e-05,2.11495e-05,-6.41818e-06,-2.41731e-05,1.19498e-05,-1.08546e-05,1.31606e-05,-6.09228e-08,0
-3.17212e-05,2.14028e-05,-8.1635e-06,-1.76151e-05,1.75334e-05,-1.25626e-05,1.07579e-05,5.21167e-07,0
-3.23119e-05,2.22206e-05,-8.97273e-06,-1.61982e-05,1.92784e-05,-1.43347e-05,9.69402e-06,2.87636e-06,0
-3.17033e-05,2.36768e-05,-6.47369e-06,-1.50119e-05,1.7555e-05,-1.39018e-05,9.78412e-06,3.20677e-06,0
-3.17325e-05,2.52429e-05,-4.49705e-06,-9.39675e-06,1.57226e-05,-1.19692e-05,1.04009e-05,1.8331e-06,0
-3.30415e-05,2.77189e-05,-5.00196e-06,-3.52206e-06,1.38185e-05,-1.07495e-05,1.13296e-05,-6.78804e-07,0
-3.30006e-05,2.95961e-05,-5.99366e-06,-1.10466e-06,1.29046e-05,-1.20815e-05,1.27447e-05,-1.90119e-06,0
-3.2486e-05,3.24075e-05,-7.50703e-06,-2.61588e-06,1.21006e-05,-1.29594e-05,1.29945e-05,-1.48876e-06,0
-3.3155e-05,3.68406e-05,-9.06399e-06,-7.071e-06,9.31611e-06,-1.30229e-05,1.22628e-05,-9.9282e-07,0
-3.47897e-05,4.08603e-05,-1.04787e-05,-1.00381e-05,6.43847e-06,-1.24606e-05,1.19107e-05,-9.0598e-07,0
-3.5955e-05,4.05003e-05,-1.03293e-05,-6.35197e-06,7.16475e-06,-1.24217e-05,1.20892e-05,-1.27561e-06,0
-3.52964e-05,3.62983e-05,-9.72445e-06,1.63586e-06,1.13693e-05,-1.32054e-05,1.17134e-05,-1.49126e-06,0
-3.33035e-05,3.1177e-05,-1.0033e-05,1.011e-05,1.63565e-05,-1.37725e-05,1.07347e-05,-8.93669e-07,0
-3.1467e-05,2.60765e-05,-1.03157e-05,1.9532e-05,2.13834e-05,-1.26381e-05,1.12219e-05,1.25275e-06,0
-3.15489e-05,2.15294e-05,-1.00261e-05,2.7002e-05,2.5289e-05,-9.95203e-06,1.35513e-05,3.71337e-06,0
-3.28373e-05,1.76349e-05,-9.45139e-06,2.56669e-05,2.61545e-05,-7.54653e-06,1.45623e-05,4.7104e-06,0
-3.46887e-05,1.42883e-05,-8.9523e-06,1.57509e-05,2.37048e-05,-6.67168e-06,1.3101e-05,4.48037e-06,0
-3.67666e-05,1.07271e-05,-8.08148e-06,2.68826e-06,2.00257e-05,-7.18297e-06,1.15213e-05,4.44018e-06,0
-3.7511e-05,8.45975e-06,-7.33115e-06,-1.21143e-05,1.7957e-05,-7.27016e-06,1.1408e-05,3.94778e-06,0
-3.64956e-05,7.41799e-06,-6.6491e-06,-2.7703e-05,1.78193e-05,-6.52903e-06,1.20005e-05,4.14517e-06,0
-3.57051e-05,7.63689e-06,-7.03985e-06,-3.74015e-05,1.72948e-05,-6.32281e-06,1.24478e-05,5.48796e-06,0
-3.52929e-05,9.98744e-06,-9.18638e-06,-3.62092e-05,1.69343e-05,-8.67256e-06,1.18824e-05,5.82847e-06,0
-3.43057e-05,1.31463e-05,-1.21503e-05,-2.83172e-05,1.67663e-05,-1.08795e-05,1.10059e-05,5.07973e-06,0
-3.28821e-05,1.5192e-05,-1.44813e-05,-2.08823e-05,1.5246e-05,-1.04045e-05,1.02084e-05,3.87558e-06,0
-3.26865e-05,1.57761e-05,-1.48216e-05,-1.79492e-05,1.26447e-05,-9.83457e-06,9.00153e-06,2.36178e-06,0
-3.39589e-05,1.53336e-05,-1.22015e-05,-1.76686e-05,1.00077e-05,-1.05522e-05,8.5133e-06,9.97501e-07,0
-3.49853e-05,1.53616e-05,-7.42395e-06,-1.95038e-05,8.56169e-06,-1.14159e-05,9.14295e-06,-3.79573e-07,0
-3.52894e-05,1.40601e-05,-3.94252e-06,-2.27162e-05,6.97487e-06,-1.22368e-05,9.30502e-06,-4.74466e-07,0
-3.50831e-05,1.00018e-05,-6.9586e-07,-1.98275e-05,4.25741e-06,-1.2501e-05,9.04549e-06,-1.11518e-06,0
-3.33888e-05,6.86404e-06,3.24763e-06,-1.3371e-05,4.45787e-06,-1.31135e-05,9.69825e-06,-2.10488e-06,0
-3.10661e-05,6.76657e-06,7.91487e-06,-9.37299e-06,5.44115e-06,-1.15651e-05,1.0441e-05,-4.94721e-07,0
-3.13916e-05,7.73371e-06,1.7843e-05,-7.39365e-06,4.01459e-06,-8.55272e-06,1.16983e-05,-2.2548e-07,0
-3.22368e-05,8.0761e-06,3.37684e-05,-7.39008e-06,1.55673e-06,-8.30368e-06,1.23891e-05,-2.33863e-06,0
-3.18639e-05,7.05147e-06,5.38681e-05,-6.64411e-06,-6.90954e-07,-9.52792e-06,1.17441e-05,-2.9762e-06,0
-3.08547e-05,3.94135e-06,7.11292e-05,-2.59691e-06,-6.56434e-07,-1.01223e-05,1.12316e-05,-9.51805e-07,0
-2.9246e-05,2.44868e-06,7.70819e-05,7.45422e-06,2.2593e-07,-9.9381e-06,1.08562e-05,9.65752e-07,0
-2.83284e-05,4.55585e-06,6.64678e-05,1.84687e-05,2.7594e-06,-1.04464e-05,1.1461e-05,2.27712e-06,0
-2.88764e-05,7.71961e-06,3.83161e-05,2.20955e-05,7.61972e-06,-1.02661e-05,1.27336e-05,3.5546e-06,0
-2.92976e-05,9.75203e-06,-2.02198e-06,1.75889e-05,1.08086e-05,-9.62455e-06,1.40592e-05,4.83737e-06,0
-2.9059e-05,1.0779e-05,-4.49165e-05,1.05375e-05,9.73272e-06,-1.10937e-05,1.51025e-05,6.0386e-06,0
-2.94751e-05,1.12818e-05,-8.14744e-05,6.66468e-06,8.58048e-06,-1.28782e-05,1.68051e-05,6.19066e-06,0
-3.05712e-05,1.19236e-05,-0.000104608,6.50582e-06,1.13825e-05,-1.23552e-05,1.97019e-05,5.98111e-06,0
-3.15207e-05,1.31311e-05,-0.000109746,8.35275e-06,1.56902e-05,-1.04975e-05,2.23274e-05,5.11025e-06,0
-3.25586e-05,1.45972e-05,-9.99407e-05,8.55136e-06,1.75644e-05,-8.47976e-06,2.32573e-05,3.94213e-06,0
-3.29396e-05,1.55005e-05,-8.3265e-05,3.82411e-06,1.59335e-05,-7.24821e-06,2.25333e-05,3.03167e-06,0
-3.14769e-05,1.47855e-05,-6.81967e-05,-5.36852e-06,1.28711e-05,-7.27247e-06,2.14105e-05,2.54409e-06,0
-2.96964e-05,1.28634e-05,-5.56074e-05,-1.62518e-05,1.23491e-05,-7.5458e-06,2.11577e-05,2.81836e-06,0
-3.04986e-05,1.14182e-05,-4.26503e-05,-2.83962e-05,1.81892e-05,-7.55903e-06,2.12576e-05,4.28492e-06,0
-3.365e-05,1.20798e-05,-3.01302e-05,-3.90308e-05,2.51257e-05,-7.37152e-06,1.89333e-05,6.18325e-06,0
-3.46141e-05,1.38911e-05,-1.95643e-05,-4.18173e-05,2.55938e-05,-6.30461e-06,1.53376e-05,6.88013e-06,0
-3.30846e-05,1.60019e-05,-1.02036e-05,-3.14915e-05,2.09975e-05,-4.6943e-06,1.32416e-05,6.64916e-06,0
-3.14503e-05,1.86254e-05,-2.48884e-06,-1.31286e-05,1.54751e-05,-4.87181e-06,1.28774e-05,5.96704e-06,0
-3.05904e-05,2.22122e-05,9.00051e-07,2.01232e-06,1.18272e-05,-7.24728e-06,1.37053e-05,5.50587e-06,0
-3.02429e-05,2.56163e-05,7.98067e-07,1.30225e-05,1.31652e-05,-9.30358e-06,1.61584e-05,5.2878e-06,0
-3.00553e-05,2.55123e-05,2.05511e-07,2.2601e-05,1.77884e-05,-9.34664e-06,1.83999e-05,4.87731e-06,0
-3.08037e-05,2.30358e-05,7.61675e-07,2.71309e-05,2.07023e-05,-9.65177e-06,1.84804e-05,5.49914e-06,0
-3.17828e-05,1.98655e-05,1.77163e-06,2.26735e-05,1.88582e-05,-1.05395e-05,1.64771e-05,5.93856e-06,0
-3.08428e-05,1.67922e-05,9.84025e-07,1.36858e-05,1.13831e-05,-9.83496e-06,1.37912e-05,5.22036e-06,0
-2.88916e-05,1.55874e-05,9.38239e-07,7.53221e-06,3.28207e-06,-9.27281e-06,1.12834e-05,4.56611e-06,0
-2.66139e-05,1.56406e-05,1.90025e-06,6.31269e-06,-2.49083e-06,-1.03262e-05,9.39652e-06,3.57902e-06,0
-2.45083e-05,1.67416e-05,3.41044e-06,9.69386e-06,-2.04834e-06,-1.15128e-05,8.76607e-06,2.73035e-06,0
-2.54667e-05,1.53078e-05,2.95822e-06,1.45018e-05,3.40118e-06,-1.14417e-05,9.31217e-06,2.13231e-06,0
-2.79955e-05,1.193e-05,-3.54111e-07,1.76117e-05,7.10221e-06,-1.15954e-05,9.05592e-06,1.17739e-06,0
-2.92195e-05,1.05966e-05,-2.78379e-06,1.8332e-05,9.16319e-06,-1.29052e-05,3.22294e-06,1.34018e-07,0
-2.89695e-05,1.20082e-05,-3.65974e-06,1.62896e-05,1.11753e-05,-1.44212e-05,-5.89238e-06,-7.48139e-07,0
-2.84478e-05,1.50244e-05,-4.25005e-06,1.42946e-05,1.31755e-05,-1.50445e-05,-9.3143e-06,-2.09211e-06,0
-2.89403e-05,1.77013e-05,-5.29538e-06,1.42884e-05,1.43592e-05,-1.52789e-05,-4.4057e-06,-4.17597e-06,0
-2.99517e-05,1.95751e-05,-4.96489e-06,1.23236e-05,1.6077e-05,-1.51226e-05,4.68067e-06,-5.78018e-06,0
-2.96523e-05,2.01949e-05,-3.1771e-06,5.20281e-06,1.83872e-05,-1.31666e-05,1.43417e-05,-6.63724e-06,0
-2.76066e-05,2.18616e-05,-3.90067e-07,-2.73563e-06,2.19032e-05,-1.08679e-05,2.31861e-05,-7.61908e-06,0
-2.57586e-05,2.51772e-05,1.41276e-06,-6.86675e-06,2.51082e-05,-9.2499e-06,2.86691e-05,-7.81495e-06,0
-2.55083e-05,2.68977e-05,1.33397e-06,-8.69705e-06,2.50067e-05,-8.2519e-06,2.80032e-05,-6.60469e-06,0
-2.59412e-05,2.43784e-05,-7.71996e-07,-1.08557e-05,2.20846e-05,-7.37339e-06,2.35536e-05,-5.28419e-06,0
-2.56444e-05,2.12811e-05,-3.81156e-06,-9.92874e-06,1.98452e-05,-5.83046e-06,1.97061e-05,-4.30015e-06,0
-2.46941e-05,2.02627e-05,-6.76137e-06,-1.16231e-06,1.90628e-05,-4.24388e-06,1.78809e-05,-3.81851e-06,0
-2.44112e-05,1.85647e-05,-7.27355e-06,1.28261e-05,1.82647e-05,-5.49449e-06,1.70524e-05,-4.66368e-06,0
-2.49687e-05,1.68605e-05,-4.71253e-06,2.28667e-05,1.71216e-05,-8.7342e-06,1.68506e-05,-6.69671e-06,0
-2.51893e-05,1.81252e-05,-1.82326e-06,1.64019e-05,1.6903e-05,-9.44558e-06,1.92318e-05,-7.34647e-06,0
-2.5033e-05,2.08315e-05,-5.73865e-07,-7.52524e-06,1.79461e-05,-7.24875e-06,2.31719e-05,-5.59329e-06,0
-2.52882e-05,2.19936e-05,-1.93737e-06,-3.16057e-05,1.82682e-05,-5.5474e-06,2.48058e-05,-3.70256e-06,0
-2.62114e-05,1.98011e-05,-1.28388e-06,-4.30572e-05,1.85916e-05,-4.98389e-06,2.36369e-05,-2.29249e-06,0
-2.69916e-05,1.62686e-05,6.96224e-07,-3.98643e-05,1.98473e-05,-5.43443e-06,1.99323e-05,-2.87787e-06,0
-2.7533e-05,1.50468e-05,-2.78311e-07,-2.93816e-05,2.09554e-05,-6.5232e-06,1.57741e-05,-4.41709e-06,0
-2.78953e-05,1.40762e-05,-3.28257e-06,-2.17679e-05,2.28876e-05,-6.99626e-06,1.29368e-05,-4.52645e-06,0
-2.72403e-05,1.58529e-05,-5.90932e-06,-1.75125e-05,2.74838e-05,-7.54607e-06,1.05493e-05,-3.37145e-06,0
-2.52984e-05,2.11512e-05,-6.17444e-06,-1.33628e-05,2.87299e-05,-7.63098e-06,8.86679e-06,-2.23993e-06,0
-2.33782e-05,2.49608e-05,-4.20271e-06,-7.03134e-06,2.44128e-05,-8.07126e-06,1.07851e-05,-1.50893e-06,0
-2.32147e-05,2.92603e-05,-5.64905e-07,-3.72084e-07,1.95089e-05,-8.855e-06,1.4586e-05,-7.68362e-07,0
-2.47878e-05,3.7909e-05,9.32029e-07,5.10502e-06,1.72931e-05,-9.55447e-06,1.39618e-05,-1.50575e-06,0
-2.68667e-05,4.94779e-05,3.13241e-07,7.22469e-06,1.60668e-05,-1.04726e-05,1.00549e-05,-2.7474e-06,0
-2.79452e-05,5.80851e-05,-6.66105e-07,5.18256e-06,1.43279e-05,-1.17994e-05,7.32635e-06,-2.72362e-06,0
-2.83881e-05,6.03707e-05,-2.12211e-06,2.57381e-06,1.27322e-05,-1.27633e-05,5.56495e-06,-7.07958e-08,0
-2.82836e-05,5.58679e-05,-3.5166e-06,2.39841e-06,1.16276e-05,-1.3456e-05,4.28288e-06,2.21087e-06,0
-2.79107e-05,4.35441e-05,-5.37377e-06,2.72537e-06,1.23248e-05,-1.44496e-05,4.75454e-06,2.41531e-06,0
-2.76145e-05,2.44673e-05,-8.05232e-06,2.49593e-06,1.40697e-05,-1.51327e-05,6.4609e-06,1.88262e-06,0
-2.77855e-05,3.2843e-06,-1.09798e-05,2.54843e-06,1.54844e-05,-1.5674e-05,8.24869e-06,2.28932e-06,0
-2.8442e-05,-1.54354e-05,-1.32697e-05,2.37006e-06,1.48436e-05,-1.62093e-05,9.85981e-06,3.63152e-06,0
-2.96796e-05,-2.82176e-05,-1.54154e-05,1.9848e-06,1.29572e-05,-1.60923e-05,1.17863e-05,4.40762e-06,0
-3.09662e-05,-3.28112e-05,-1.61689e-05,1.34136e-06,1.15101e-05,-1.49374e-05,1.35554e-05,3.9425e-06,0
-3.0844e-05,-3.13333e-05,-1.52023e-05,1.39042e-06,9.9052e-06,-1.31306e-05,1.47615e-05,2.66408e-06,0
-3.07615e-05,-2.63322e-05,-1.4321e-05,1.16659e-06,7.60008e-06,-1.08254e-05,1.51226e-05,2.98933e-06,0
-3.15122e-05,-1.93329e-05,-1.5217e-05,-4.03311e-07,6.05035e-06,-9.48284e-06,1.29851e-05,3.66556e-06,0
-3.19667e-05,-1.1946e-05,-1.71703e-05,-3.17842e-06,6.53552e-06,-9.58568e-06,6.54282e-06,2.92721e-06,0
-3.19764e-05,-5.42144e-06,-1.81412e-05,-4.6593e-06,8.37276e-06,-1.08615e-05,-6.31886e-07,1.54573e-06,0
-3.2071e-05,1.44909e-06,-1.64016e-05,-5.42875e-06,1.04444e-05,-1.06497e-05,-3.66552e-06,1.16145e-06,0
-3.27935e-05,1.09695e-05,-1.52448e-05,-5.80533e-06,1.138e-05,-9.21171e-06,-2.83088e-06,1.00172e-06,0
-3.26865e-05,2.19001e-05,-1.53049e-05,-3.99615e-06,1.04043e-05,-8.35279e-06,-1.08036e-06,-1.36576e-06,0
-3.10747e-05,2.85252e-05,-1.4423e-05,-3.03769e-06,8.05002e-06,-7.71255e-06,-1.35456e-06,-4.2817e-06,0
-2.95756e-05,2.58251e-05,-1.30964e-05,-3.04418e-06,6.27756e-06,-8.77869e-06,-2.42773e-06,-5.48928e-06,0
-2.73431e-05,1.98891e-05,-1.20677e-05,-9.47195e-07,6.32994e-06,-1.12693e-05,-1.66682e-06,-7.3446e-06,0
-2.6548e-05,1.49316e-05,-1.19991e-05,2.72517e-06,5.56215e-06,-1.20604e-05,1.98793e-06,-7.39747e-06,0
-2.59835e-05,9.17939e-06,-1.2011e-05,6.3302e-06,3.99053e-06,-1.08555e-05,8.03074e-06,-4.51167e-06,0
-2.6552e-05,4.11271e-06,-1.06508e-05,6.59048e-06,4.79169e-06,-9.42761e-06,1.46873e-05,-1.97023e-06,0
-2.87113e-05,-3.08462e-06,-8.76555e-06,4.56259e-06,7.54398e-06,-8.56804e-06,1.9887e-05,2.2434e-07,0
-2.87523e-05,-1.1548e-05,-7.49334e-06,3.21198e-06,1.05041e-05,-9.12732e-06,2.31551e-05,8.11202e-07,0
-2.82463e-05,-1.73139e-05,-6.60338e-06,5.07714e-07,1.32077e-05,-1.09489e-05,2.40629e-05,-9.52797e-07,0
-2.80933e-05,-1.97572e-05,-7.0366e-06,-4.25302e-06,1.45186e-05,-1.37521e-05,2.22031e-05,-3.52455e-06,0
-2.84018e-05,-1.96141e-05,-9.29689e-06,-8.00559e-06,1.37838e-05,-1.56494e-05,2.04213e-05,-5.45852e-06,0
-2.9084e-05,-1.7815e-05,-1.23574e-05,-9.14532e-06,1.17148e-05,-1.68564e-05,2.03077e-05,-5.36562e-06,0
-3.04214e-05,-1.53769e-05,-1.42742e-05,-1.02137e-05,9.74629e-06,-1.79286e-05,2.0645e-05,-5.47067e-06,0
-3.25453e-05,-1.15493e-05,-1.45328e-05,-1.2698e-05,1.00382e-05,-1.79474e-05,2.01517e-05,-6.29333e-06,0
-3.57675e-05,-5.76362e-06,-1.34019e-05,-1.53779e-05,1.16276e-05,-1.66684e-05,1.90209e-05,-5.24185e-06,0
-3.79923e-05,1.06317e-06,-1.28656e-05,-1.86893e-05,1.24638e-05,-1.54916e-05,1.79517e-05,-2.46151e-06,0
-3.73045e-05,9.46282e-06,-1.35983e-05,-2.27202e-05,1.21598e-05,-1.54006e-05,1.73078e-05,-5.96026e-07,0
-3.45105e-05,1.76687e-05,-1.33543e-05,-2.48279e-05,1.21185e-05,-1.56778e-05,1.72226e-05,-1.19947e-06,0
-3.17383e-05,2.37696e-05,-1.0326e-05,-2.26981e-05,1.25965e-05,-1.61383e-05,1.71883e-05,-1.6131e-06,0
-2.96102e-05,2.94126e-05,-8.03996e-06,-1.64222e-05,1.24884e-05,-1.65556e-05,1.73398e-05,-6.31667e-07,0
-2.87046e-05,3.81029e-05,-8.36098e-06,-9.9092e-06,1.13909e-05,-1.6315e-05,1.75828e-05,7.38397e-07,0
-2.91859e-05,4.53208e-05,-8.44468e-06,-6.07098e-06,9.98982e-06,-1.47578e-05,1.72057e-05,6.46193e-07,0
-3.07802e-05,4.30421e-05,-7.66105e-06,-6.32482e-06,8.90809e-06,-1.31458e-05,1.60695e-05,-7.68177e-07,0
-3.35944e-05,3.44537e-05,-6.8486e-06,-9.62904e-06,1.0184e-05,-1.17481e-05,1.56389e-05,-1.65192e-06,0
-3.63275e-05,2.71431e-05,-6.11353e-06,-1.07059e-05,1.43904e-05,-9.9113e-06,1.53668e-05,1.50335e-07,0
-3.68982e-05,2.26701e-05,-4.5526e-06,-8.34562e-06,1.67013e-05,-9.16861e-06,1.33588e-05,2.6204e-06,0
-3.57567e-05,2.12988e-05,-1.83633e-06,-6.63381e-06,1.55141e-05,-9.87527e-06,1.12394e-05,4.22918e-06,0
-3.45124e-05,2.02421e-05,3.94543e-07,-7.4344e-06,1.28932e-05,-1.07498e-05,9.17421e-06,5.86169e-06,0
-3.25826e-05,1.58077e-05,9.85543e-07,-9.13115e-06,9.844e-06,-1.26134e-05,6.69558e-06,8.39541e-06,0
-3.1923e-05,7.59437e-06,1.13401e-06,-9.51807e-06,7.63866e-06,-1.51308e-05,6.08973e-06,1.13706e-05,0
-3.2032e-05,-1.28693e-06,1.07253e-06,-1.20046e-05,7.20691e-06,-1.64011e-05,8.01689e-06,1.07333e-05,0
-3.20551e-05,-9.02761e-06,-3.05741e-07,-2.07508e-05,7.24437e-06,-1.60541e-05,1.08377e-05,8.86118e-06,0
-3.27379e-05,-1.49985e-05,-2.78016e-06,-3.33384e-05,7.64186e-06,-1.50335e-05,1.26257e-05,7.09919e-06,0
-3.23939e-05,-1.63651e-05,-3.84443e-06,-4.28753e-05,8.91987e-06,-1.32356e-05,1.34543e-05,6.00161e-06,0
-3.01361e-05,-1.51993e-05,-2.89073e-06,-4.43584e-05,1.11757e-05,-1.11866e-05,1.35197e-05,5.5254e-06,0
-2.88474e-05,-1.4364e-05,-1.33904e-06,-3.88223e-05,1.27697e-05,-9.86634e-06,1.19363e-05,4.62766e-06,0
-2.94701e-05,-1.27349e-05,-1.72422e-07,-3.40786e-05,1.13084e-05,-9.19943e-06,1.00197e-05,3.67524e-06,0
-3.05723e-05,-1.02663e-05,-3.49346e-07,-3.40883e-05,8.98056e-06,-8.02183e-06,9.21169e-06,3.70888e-06,0
-3.1563e-05,-9.10805e-06,-1.51289e-06,-3.2221e-05,8.62139e-06,-6.36811e-06,9.16085e-06,5.44961e-06,0
-3.25004e-05,-7.56271e-06,-2.55789e-06,-2.05952e-05,1.03072e-05,-5.25208e-06,9.28731e-06,5.61694e-06,0
-3.3156e-05,-5.08905e-06,-3.09651e-06,1.66745e-06,1.28524e-05,-3.85471e-06,1.04153e-05,4.58614e-06,0
-3.28829e-05,-2.10592e-06,-3.44688e-06,2.91272e-05,1.50278e-05,-1.71388e-06,1.23544e-05,4.10368e-06,0
-3.18305e-05,7.15414e-07,-3.72666e-06,5.32933e-05,1.59047e-05,-4.0134e-07,1.33132e-05,4.64726e-06,0
-3.02945e-05,2.38528e-06,-3.10296e-06,6.40366e-05,1.65385e-05,5.96827e-08,1.25412e-05,4.75572e-06,0
-2.93215e-05,3.816e-06,-2.22838e-06,5.78434e-05,1.69541e-05,2.00067e-06,1.04795e-05,4.74476e-06,0
-2.91535e-05,5.08411e-06,-2.46355e-06,3.77847e-05,1.50728e-05,4.48649e-06,7.01773e-06,5.3877e-06,0
-2.95624e-05,6.40717e-06,-3.66349e-06,1.30782e-05,1.17768e-05,5.12785e-06,3.77414e-06,5.76583e-06,0
-2.93563e-05,7.88128e-06,-4.82045e-06,-5.12789e-06,9.69302e-06,3.35712e-06,3.60212e-06,4.44863e-06,0
-2.82567e-05,1.07802e-05,-5.17592e-06,-1.38866e-05,9.88998e-06,2.36947e-06,6.39816e-06,1.51148e-06,0
-2.84496e-05,1.63031e-05,-5.49555e-06,-1.80274e-05,1.0972e-05,2.80161e-06,1.03724e-05,-3.37795e-07,0
-2.9991e-05,2.15588e-05,-5.74439e-06,-2.09043e-05,1.07964e-05,2.56349e-06,1.3137e-05,1.26501e-07,0
-3.03159e-05,2.32806e-05,-4.78426e-06,-2.34664e-05,9.44836e-06,2.46305e-06,1.55616e-05,1.15024e-06,0
-3.07155e-05,2.27538e-05,-5.28644e-06,-2.82181e-05,9.88093e-06,2.39811e-06,1.81181e-05,2.36499e-06,0
-3.05767e-05,2.25819e-05,-6.18968e-06,-3.56318e-05,1.28974e-05,2.16154e-06,2.02228e-05,3.83508e-06,0
-3.0085e-05,2.43626e-05,-6.20084e-06,-4.1988e-05,1.64255e-05,2.84663e-07,2.72418e-05,3.33437e-06,0
-2.99196e-05,2.41334e-05,-8.62096e-06,-4.10049e-05,1.77303e-05,-1.05467e-06,4.02303e-05,1.88856e-06,0
-2.98153e-05,2.40939e-05,-1.10988e-05,-2.93753e-05,1.7514e-05,-6.51021e-07,4.65855e-05,4.25045e-07,0
-3.09274e-05,2.76044e-05,-1.05199e-05,-1.42033e-05,1.83126e-05,-7.34442e-07,3.49781e-05,-1.26461e-06,0
-3.11665e-05,2.9819e-05,-7.8843e-06,-2.24921e-06,1.83841e-05,-3.70927e-07,1.24505e-05,-5.27508e-07,0
-3.17868e-05,2.91606e-05,-5.756e-06,6.81808e-06,1.73513e-05,-8.14291e-07,-5.11563e-06,1.89915e-06,0
-3.2451e-05,2.64159e-05,-5.66545e-06,1.27594e-05,1.60347e-05,-1.45539e-06,-1.34778e-05,1.89614e-06,0
-3.21306e-05,2.41398e-05,-6.55767e-06,1.44809e-05,1.44432e-05,-3.74086e-06,-1.5195e-05,-1.79341e-07,0
-3.22623e-05,2.26612e-05,-6.77378e-06,1.2044e-05,1.25434e-05,-6.26832e-06,-1.31815e-05,-1.78184e-06,0
-3.26001e-05,2.3166e-05,-7.45575e-06,8.27113e-06,1.1057e-05,-7.11289e-06,-9.85528e-06,-5.79951e-07,0
-3.17664e-05,2.47372e-05,-9.46393e-06,5.38313e-06,1.05792e-05,-6.57426e-06,-5.01257e-06,1.3121e-06,0
-3.11862e-05,2.60847e-05,-1.2089e-05,2.71105e-06,1.08893e-05,-5.62869e-06,-2.75911e-07,2.92124e-06,0
-3.17232e-05,2.58704e-05,-1.3494e-05,1.66641e-07,1.13422e-05,-5.99246e-06,4.14121e-06,4.09641e-06,0
-3.21717e-05,2.45383e-05,-1.32534e-05,2.86717e-07,1.16069e-05,-6.59368e-06,8.92425e-06,4.78513e-06,0
-3.26155e-05,2.38694e-05,-1.28215e-05,8.20957e-06,1.24556e-05,-6.24831e-06,1.3284e-05,5.36204e-06,0
-3.32292e-05,2.217e-05,-1.37093e-05,2.55118e-05,1.36413e-05,-3.9018e-06,1.66262e-05,5.07458e-06,0
-3.41759e-05,1.84888e-05,-1.53657e-05,4.17083e-05,1.47629e-05,-2.5002e-06,1.88688e-05,4.00242e-06,0
-3.47092e-05,1.40148e-05,-1.58186e-05,4.30823e-05,1.52454e-05,-3.55096e-06,1.98285e-05,2.65783e-06,0
-3.43188e-05,1.17679e-05,-1.40727e-05,2.91906e-05,1.50064e-05,-5.82796e-06,1.84943e-05,2.114e-06,0
-3.26004e-05,1.19821e-05,-1.10809e-05,1.27819e-05,1.56131e-05,-6.56293e-06,1.56251e-05,2.83932e-06,0
-3.08021e-05,1.29544e-05,-1.02119e-05,1.48326e-06,1.79527e-05,-5.44499e-06,1.46447e-05,4.59059e-06,0
-3.05281e-05,1.10364e-05,-1.15117e-05,-7.54179e-06,1.87437e-05,-4.0958e-06,1.75911e-05,5.71022e-06,0
-3.08853e-05,6.03968e-06,-1.26254e-05,-1.59203e-05,1.73095e-05,-4.55851e-06,2.13787e-05,6.17517e-06,0
-3.06784e-05,1.7673e-06,-1.22121e-05,-1.97616e-05,1.66012e-05,-5.00611e-06,2.1117e-05,5.58092e-06,0
-3.02996e-05,1.35834e-06,-1.21599e-05,-1.93911e-05,1.64466e-05,-5.29422e-06,1.77711e-05,3.22549e-06,0
-2.91883e-05,3.60693e-06,-1.237e-05,-1.98736e-05,1.47525e-05,-8.90912e-06,1.43885e-05,9.51798e-09,0
-2.86155e-05,5.39763e-06,-1.08257e-05,-2.43662e-05,1.23965e-05,-1.24685e-05,1.17845e-05,-1.06143e-06,0
-2.86365e-05,4.67842e-06,-8.18404e-06,-3.44366e-05,9.9489e-06,-1.24195e-05,1.16912e-05,1.33584e-07,0
-2.81893e-05,2.29684e-06,-7.25723e-06,-4.19464e-05,6.36782e-06,-1.17189e-05,1.38073e-05,1.9415e-06,0
-2.85967e-05,1.46812e-06,-9.40119e-06,-4.01982e-05,4.72339e-06,-1.28082e-05,1.45112e-05,2.56653e-06,0
-2.92373e-05,2.45055e-06,-1.13402e-05,-3.07821e-05,6.1036e-06,-1.39473e-05,1.39835e-05,2.4503e-06,0
-2.90592e-05,3.66271e-06,-1.06597e-05,-1.70688e-05,8.56076e-06,-1.36505e-05,1.34794e-05,2.45805e-06,0
-2.91281e-05,5.24955e-06,-9.09653e-06,-5.55512e-06,9.60182e-06,-1.30092e-05,1.22919e-05,1.95209e-06,0
-2.8199e-05,5.01665e-06,-8.28068e-06,2.13929e-06,8.73578e-06,-1.31637e-05,1.05854e-05,2.27938e-06,0
-2.73377e-05,4.00158e-06,-9.14025e-06,6.81634e-06,8.87879e-06,-1.24515e-05,8.1789e-06,3.57295e-06,0
-2.95181e-05,4.29844e-06,-1.11925e-05,8.02549e-06,9.87786e-06,-1.12588e-05,6.74684e-06,4.45995e-06,0
-3.15572e-05,6.89521e-06,-1.20978e-05,6.72615e-06,1.04162e-05,-1.14672e-05,7.85667e-06,4.49254e-06,0
-3.20153e-05,1.06958e-05,-1.08853e-05,6.4633e-06,1.18819e-05,-1.22084e-05,9.81603e-06,4.90606e-06,0
-3.11051e-05,1.22017e-05,-8.04118e-06,2.87236e-06,1.41942e-05,-1.2405e-05,1.08147e-05,5.6031e-06,0
-3.06493e-05,1.2762e-05,-6.3263e-06,-1.06143e-05,1.46583e-05,-1.26633e-05,1.1161e-05,5.67583e-06,0
-3.02032e-05,1.39155e-05,-7.38797e-06,-2.50318e-05,1.2662e-05,-1.2486e-05,1.15259e-05,4.20405e-06,0
-2.96312e-05,1.45752e-05,-1.05687e-05,-2.80104e-05,1.14027e-05,-1.2337e-05,1.30942e-05,2.22593e-06,0
-2.94474e-05,1.29541e-05,-1.27756e-05,-2.25391e-05,1.34241e-05,-1.32411e-05,1.74236e-05,1.25422e-06,0
-2.8961e-05,1.1297e-05,-1.27803e-05,-1.75457e-05,1.6521e-05,-1.41026e-05,2.69025e-05,1.48486e-06,0
-2.8748e-05,1.17051e-05,-1.27864e-05,-1.17536e-05,1.73281e-05,-1.37983e-05,4.13945e-05,2.04754e-06,0
-2.92203e-05,1.33035e-05,-1.36911e-05,-4.67486e-06,1.5819e-05,-1.23883e-05,5.34977e-05,2.65666e-06,0
-3.01732e-05,1.29336e-05,-1.42924e-05,-3.27867e-06,1.46089e-05,-1.14746e-05,5.68756e-05,3.66304e-06,0
-3.06002e-05,1.11657e-05,-1.39603e-05,-7.74927e-06,1.38676e-05,-1.07569e-05,5.21228e-05,5.03631e-06,0
-3.11117e-05,9.03707e-06,-1.29571e-05,-8.01973e-06,1.36218e-05,-9.56732e-06,4.07616e-05,5.00626e-06,0
-3.15002e-05,6.99824e-06,-1.2202e-05,-3.06578e-06,1.44187e-05,-9.5669e-06,2.56488e-05,3.09824e-06,0
-3.23041e-05,5.22458e-06,-1.22526e-05,-4.60643e-06,1.55584e-05,-1.06634e-05,1.17937e-05,1.03705e-06,0
-3.24062e-05,4.06019e-06,-1.18112e-05,-1.44085e-05,1.86013e-05,-1.25311e-05,-1.33798e-06,-3.91285e-07,0
-3.16455e-05,5.68072e-06,-1.06983e-05,-1.99688e-05,2.21837e-05,-1.49947e-05,-1.52526e-05,1.8807e-07,0
-2.9997e-05,9.74709e-06,-9.58455e-06,-1.32901e-05,2.40744e-05,-1.57925e-05,-2.47037e-05,6.06233e-07,0
-2.83864e-05,1.30987e-05,-9.27476e-06,6.83422e-06,2.39774e-05,-1.46518e-05,-2.52895e-05,-1.4931e-06,0
-2.91362e-05,1.31261e-05,-7.75508e-06,2.78343e-05,2.2797e-05,-1.4027e-05,-1.98779e-05,-4.76095e-06,0
-3.13014e-05,1.15123e-05,-4.74688e-06,3.69002e-05,2.10742e-05,-1.46483e-05,-1.18661e-05,-6.19867e-06,0
-3.23755e-05,1.16362e-05,-5.88858e-07,3.27998e-05,1.98411e-05,-1.48439e-05,-3.01155e-06,-5.29582e-06,0
-3.14086e-05,1.39342e-05,3.19666e-06,1.86443e-05,1.97506e-05,-1.23647e-05,5.48219e-06,-3.55814e-06,0
-2.91779e-05,1.65272e-05,3.68113e-06,3.44206e-07,1.82409e-05,-9.59922e-06,1.25566e-05,-2.10562e-06,0
-2.66143e-05,1.91117e-05,2.61067e-06,-1.36959e-05,1.51549e-05,-8.62139e-06,1.61531e-05,-1.74454e-06,0
-2.51756e-05,2.08854e-05,6.13643e-07,-1.46914e-05,1.2144e-05,-1.02934e-05,1.63921e-05,-2.98054e-06,0
-2.58916e-05,2.22844e-05,-2.56803e-06,-7.51839e-06,1.08216e-05,-1.3035e-05,1.46993e-05,-5.15811e-06,0
-2.80587e-05,2.36179e-05,-6.21692e-06,-1.97793e-06,1.08508e-05,-1.47277e-05,1.41694e-05,-5.68461e-06,0
-2.95712e-05,2.25218e-05,-7.78748e-06,-3.41341e-06,1.15195e-05,-1.59543e-05,1.52632e-05,-5.52761e-06,0
-3.02157e-05,1.90637e-05,-5.95351e-06,-6.90139e-06,1.15299e-05,-1.62336e-05,1.57732e-05,-5.87675e-06,0
-3.0154e-05,1.65696e-05,-3.38128e-06,-7.96294e-06,1.06699e-05,-1.64739e-05,1.47094e-05,-5.97555e-06,0
-2.93064e-05,1.75992e-05,-2.25049e-06,-6.6308e-06,1.04057e-05,-1.62999e-05,1.23058e-05,-4.79639e-06,0
-2.8622e-05,2.02581e-05,-3.26689e-06,-3.76806e-06,1.05473e-05,-1.52576e-05,9.77076e-06,-1.62968e-06,0
-2.91022e-05,2.02747e-05,-6.41041e-06,-1.58529e-06,1.09028e-05,-1.36304e-05,8.58143e-06,2.44516e-06,0
-2.99125e-05,1.71863e-05,-1.12078e-05,-7.24903e-07,1.26414e-05,-1.20658e-05,1.01545e-05,4.56172e-06,0
-2.99e-05,1.36202e-05,-1.61084e-05,2.29683e-08,1.60893e-05,-1.01519e-05,1.33915e-05,4.04555e-06,0
-2.9933e-05,1.14487e-05,-1.94235e-05,2.57014e-06,1.83404e-05,-9.20151e-06,1.54663e-05,3.32644e-06,0
-3.10445e-05,9.7658e-06,-1.99166e-05,5.36424e-06,1.80484e-05,-1.02098e-05,1.53317e-05,3.7025e-06,0
-3.18454e-05,6.69878e-06,-1.85092e-05,8.33381e-06,1.69713e-05,-1.20792e-05,1.4001e-05,4.64118e-06,0
-3.10018e-05,2.11948e-06,-1.82796e-05,1.24184e-05,1.67875e-05,-1.40616e-05,1.1785e-05,5.16214e-06,0
-3.02489e-05,-1.63444e-06,-1.91179e-05,1.70183e-05,1.6805e-05,-1.45049e-05,1.02351e-05,4.90849e-06,0
-3.04118e-05,-3.21893e-06,-1.82572e-05,1.76255e-05,1.6229e-05,-1.47063e-05,9.94759e-06,2.85895e-06,0
-3.08546e-05,-1.85554e-06,-1.43136e-05,1.4621e-05,1.72361e-05,-1.57509e-05,1.02193e-05,-1.19135e-07,0
-3.1003e-05,1.30287e-06,-9.74451e-06,1.20018e-05,1.95837e-05,-1.54296e-05,1.07074e-05,-8.45588e-07,0
-3.01978e-05,2.27726e-06,-7.33562e-06,1.03601e-05,1.8948e-05,-1.43987e-05,1.25526e-05,1.10063e-06,0
-2.9376e-05,1.83176e-06,-4.7997e-06,4.53627e-06,1.49573e-05,-1.21217e-05,1.5546e-05,3.04338e-06,0
-2.89746e-05,2.25211e-06,-3.35659e-06,-8.24539e-06,1.20432e-05,-9.86164e-06,1.6099e-05,4.09504e-06,0
-2.90602e-05,4.4354e-06,-4.69675e-06,-1.89455e-05,1.25337e-05,-9.58621e-06,1.42979e-05,5.25526e-06,0
-3.03874e-05,7.0198e-06,-6.3726e-06,-1.98207e-05,1.22727e-05,-1.02882e-05,1.32979e-05,5.78757e-06,0
-3.1285e-05,8.59072e-06,-7.87567e-06,-1.54588e-05,1.1139e-05,-1.09306e-05,1.35348e-05,4.69725e-06,0
-3.13692e-05,9.30375e-06,-7.70779e-06,-1.37348e-05,1.15972e-05,-1.08434e-05,1.24838e-05,5.06728e-06,0
-2.95983e-05,9.04527e-06,-6.23444e-06,-1.37497e-05,1.32381e-05,-1.09636e-05,1.1344e-05,7.08739e-06,0
-2.61807e-05,9.00473e-06,-3.91598e-06,-1.34294e-05,1.43734e-05,-9.24921e-06,1.22231e-05,8.45861e-06,0
-2.4296e-05,1.00162e-05,-1.97378e-06,-1.22957e-05,1.31841e-05,-6.64646e-06,1.24156e-05,9.04374e-06,0
-2.4265e-05,1.28481e-05,-1.33799e-06,-1.03121e-05,1.13185e-05,-7.05542e-06,1.14693e-05,8.57548e-06,0
-2.5583e-05,1.54327e-05,-1.59366e-06,-8.44059e-06,8.26161e-06,-1.05683e-05,1.08369e-05,7.35862e-06,0
-2.73312e-05,1.61316e-05,-2.84706e-06,-6.29991e-06,4.89096e-06,-1.31037e-05,1.01437e-05,5.77989e-06,0
-2.89149e-05,1.42586e-05,-4.38467e-06,-3.51621e-06,2.57491e-06,-1.25214e-05,1.01999e-05,4.28484e-06,0
-2.96042e-05,1.19126e-05,-4.48556e-06,1.22877e-06,2.40792e-06,-1.07613e-05,1.16565e-05,2.28804e-06,0
-2.95782e-05,1.28568e-05,-2.83187e-06,1.06463e-05,3.64584e-06,-9.34692e-06,1.33646e-05,1.48068e-07,0
-2.90213e-05,1.672e-05,-1.45332e-06,2.28532e-05,4.1496e-06,-8.33533e-06,1.40278e-05,-1.65548e-06,0
-2.82229e-05,1.99289e-05,-2.3534e-06,2.96622e-05,4.19092e-06,-8.56257e-06,1.42802e-05,-3.97276e-06,0
-2.81253e-05,2.00188e-05,-5.23328e-06,2.68621e-05,5.11563e-06,-9.48332e-06,1.45733e-05,-6.95153e-06,0
-2.8867e-05,1.73188e-05,-6.69111e-06,1.64355e-05,6.58099e-06,-1.02621e-05,1.2905e-05,-8.65026e-06,0
-2.94931e-05,1.24845e-05,-7.61617e-06,3.11045e-06,7.17192e-06,-1.03355e-05,8.62039e-06,-7.82866e-06,0
-2.91797e-05,9.05134e-06,-9.87552e-06,-7.56029e-06,6.83265e-06,-1.0158e-05,3.78637e-06,-4.76816e-06,0
-2.82712e-05,9.4346e-06,-1.17173e-05,-1.18347e-05,5.42881e-06,-1.02445e-05,9.30079e-07,-1.23678e-06,0
-2.73742e-05,1.24853e-05,-1.09794e-05,-1.31005e-05,6.00293e-06,-9.91235e-06,1.09188e-06,2.83981e-07,0
-2.70797e-05,1.37689e-05,-8.55911e-06,-1.61703e-05,9.44938e-06,-9.94049e-06,3.13832e-06,2.5147e-07,0
-2.65044e-05,1.19478e-05,-6.8013e-06,-1.94357e-05,1.08366e-05,-9.01235e-06,5.8403e-06,4.22522e-07,0
-2.66429e-05,9.86654e-06,-6.84771e-06,-2.5506e-05,1.09755e-05,-6.97631e-06,9.27849e-06,5.48246e-07,0
-2.82109e-05,7.54938e-06,-7.65505e-06,-3.43168e-05,1.13093e-05,-5.16745e-06,1.3368e-05,1.71126e-07,0
-2.89056e-05,4.21735e-06,-7.09016e-06,-3.9939e-05,9.12458e-06,-6.02063e-06,1.62731e-05,-9.30366e-07,0
-2.79184e-05,2.38728e-06,-6.32221e-06,-3.92434e-05,6.06958e-06,-7.71759e-06,1.72475e-05,-3.21059e-06,0
-2.57893e-05,2.50021e-06,-6.81598e-06,-3.01896e-05,3.60081e-06,-8.31229e-06,1.74202e-05,-5.84743e-06,0
-2.45506e-05,1.54904e-06,-7.2685e-06,-1.80741e-05,3.42835e-06,-7.72005e-06,1.74701e-05,-7.6851e-06,0
-2.49108e-05,1.13844e-06,-8.1162e-06,-1.33629e-05,4.41153e-06,-5.57397e-06,1.76811e-05,-6.96238e-06,0
-2.65755e-05,2.25833e-06,-9.92081e-06,-1.99706e-05,5.74934e-06,-4.85373e-06,1.60468e-05,-5.17795e-06,0
-2.8725e-05,3.36681e-06,-1.26073e-05,-3.26843e-05,6.42251e-06,-5.63708e-06,8.57715e-06,-4.33859e-06,0
-2.98001e-05,5.17082e-06,-1.39353e-05,-4.41827e-05,5.48667e-06,-7.33793e-06,-3.43425e-06,-5.20013e-06,0
-3.06643e-05,8.33543e-06,-1.28776e-05,-4.46093e-05,4.54483e-06,-8.87782e-06,-1.28632e-05,-5.41226e-06,0
-3.07811e-05,1.15034e-05,-1.11521e-05,-3.1924e-05,3.24254e-06,-9.79771e-06,-1.42039e-05,-3.81505e-06,0
-3.00236e-05,1.28256e-05,-9.90865e-06,-1.54613e-05,2.66854e-06,-1.04089e-05,-8.65013e-06,-2.54778e-06,0
-2.91895e-05,1.44244e-05,-9.2129e-06,-1.41776e-06,3.03193e-06,-1.09287e-05,8.88237e-07,-1.29272e-06,0
-2.889e-05,1.82081e-05,-7.82794e-06,8.16633e-06,3.94837e-06,-1.04558e-05,1.28879e-05,-8.74736e-07,0
-2.84956e-05,2.32789e-05,-6.30562e-06,1.37289e-05,5.28459e-06,-9.74527e-06,2.3317e-05,-1.38345e-06,0
-2.85857e-05,2.88217e-05,-4.47662e-06,1.00507e-05,5.68129e-06,-9.72876e-06,2.91709e-05,-2.76945e-06,0
-2.97417e-05,3.84716e-05,-3.21718e-06,-8.76137e-06,3.61138e-06,-1.05272e-05,3.10768e-05,-4.0926e-06,0
-3.03843e-05,5.17224e-05,-3.0644e-06,-3.59673e-05,-5.90999e-07,-1.16711e-05,2.98515e-05,-4.1697e-06,0
-2.95139e-05,6.0888e-05,-4.10363e-06,-5.09971e-05,-2.31321e-06,-1.12469e-05,2.5644e-05,-2.5295e-06,0
-2.83792e-05,6.23478e-05,-5.89822e-06,-4.15565e-05,1.18237e-06,-1.03331e-05,2.11208e-05,-1.45849e-06,0
-2.86841e-05,5.77527e-05,-7.45009e-06,-1.98859e-05,5.64825e-06,-9.96451e-06,1.84899e-05,-1.83118e-06,0
-2.95945e-05,5.21617e-05,-8.40808e-06,-2.62574e-06,8.49872e-06,-9.98146e-06,1.79465e-05,-1.46428e-06,0
-2.95925e-05,4.91806e-05,-8.82601e-06,1.3806e-05,1.25424e-05,-8.85099e-06,1.91041e-05,-1.50812e-07,0
-2.86124e-05,5.06822e-05,-9.12463e-06,3.74483e-05,2.26304e-05,-7.17588e-06,1.99801e-05,1.98018e-07,0
-2.88814e-05,5.66134e-05,-8.73506e-06,6.23172e-05,4.01499e-05,-6.20322e-06,2.07894e-05,-6.48902e-07,0
-3.04935e-05,5.98483e-05,-7.03515e-06,7.57962e-05,5.79549e-05,-5.74249e-06,2.31181e-05,-1.53726e-06,0
-3.09662e-05,5.4506e-05,-6.17275e-06,6.27457e-05,6.2834e-05,-4.29794e-06,2.6506e-05,-3.38929e-06,0
-3.15623e-05,4.26682e-05,-6.83927e-06,3.26855e-05,5.43972e-05,-2.17824e-06,2.96615e-05,-4.233e-06,0
-3.3925e-05,2.81271e-05,-7.46101e-06,9.52961e-06,4.26795e-05,-1.19719e-06,2.9647e-05,-3.61856e-06,0
-3.45979e-05,1.63098e-05,-8.94479e-06,-8.02666e-07,3.416e-05,-2.60448e-06,2.57294e-05,-2.79319e-06,0
-3.57985e-05,3.00339e-06,-1.14243e-05,-8.58104e-06,2.97882e-05,-5.31205e-06,2.05439e-05,-2.24773e-06,0
-3.72351e-05,-1.35884e-05,-1.35764e-05,-2.04874e-05,2.74251e-05,-5.95243e-06,1.52896e-05,-3.26149e-06,0
-3.65892e-05,-2.43252e-05,-1.29484e-05,-3.06533e-05,2.73128e-05,-5.09462e-06,1.15427e-05,-4.33513e-06,0
-3.58578e-05,-2.61584e-05,-1.0327e-05,-2.81694e-05,2.79388e-05,-5.72344e-06,8.85681e-06,-3.96176e-06,0
-3.4347e-05,-2.16015e-05,-7.669e-06,-8.88378e-06,2.71812e-05,-8.16137e-06,5.86568e-06,-3.65126e-06,0
-3.25414e-05,-1.32056e-05,-4.75416e-06,1.36858e-05,2.53571e-05,-9.26538e-06,3.46596e-06,-2.79603e-06,0
-3.15518e-05,-2.53051e-06,-3.12941e-06,2.97479e-05,2.58061e-05,-8.29711e-06,5.84317e-07,-1.22748e-06,0
-3.14039e-05,5.72507e-06,-3.33451e-06,3.6942e-05,2.88908e-05,-8.7018e-06,-1.03017e-06,1.17053e-06,0
-3.08584e-05,8.79168e-06,-3.70204e-06,3.64361e-05,3.25104e-05,-9.99728e-06,8.67699e-08,3.98722e-06,0
-3.07712e-05,8.38184e-06,-3.93048e-06,2.91646e-05,3.34638e-05,-8.89462e-06,2.63861e-06,6.16482e-06,0
-3.17719e-05,8.19225e-06,-3.59688e-06,1.8008e-05,3.07012e-05,-6.94805e-06,5.90823e-06,5.73749e-06,0
-3.2523e-05,1.04118e-05,-1.43277e-06,8.33323e-06,2.61482e-05,-5.99572e-06,8.56024e-06,1.77348e-06,0
-3.32626e-05,1.41716e-05,7.27014e-07,3.64093e-06,2.12363e-05,-5.38424e-06,9.45291e-06,-1.12274e-06,0
-3.44624e-05,1.56582e-05,-3.89035e-07,3.64529e-06,1.66188e-05,-5.18789e-06,9.95075e-06,-1.32234e-06,0
-3.57906e-05,1.28341e-05,-4.31836e-06,3.39681e-06,1.14807e-05,-6.82976e-06,1.16274e-05,-8.20957e-07,0
-3.71605e-05,8.62981e-06,-7.4412e-06,2.35289e-06,7.95175e-06,-1.00076e-05,1.26238e-05,-7.50309e-07,0
-3.76549e-05,7.64743e-06,-8.42717e-06,1.74309e-06,8.34951e-06,-1.2176e-05,1.32616e-05,-3.35095e-07,0
-3.59547e-05,1.0698e-05,-8.16355e-06,1.52994e-06,1.14012e-05,-1.17505e-05,1.44613e-05,5.37341e-07,0
-3.22016e-05,1.42194e-05,-8.45928e-06,-1.49845e-07,1.37051e-05,-9.8413e-06,1.42931e-05,2.3641e-06,0
-2.95285e-05,1.62809e-05,-1.17513e-05,-3.69994e-07,1.49196e-05,-9.17767e-06,1.23321e-05,4.60801e-06,0
-3.01457e-05,1.6502e-05,-1.61558e-05,7.3292e-06,1.64372e-05,-1.08842e-05,1.08102e-05,4.67689e-06,0
-3.22964e-05,1.55291e-05,-1.87128e-05,2.73808e-05,1.7547e-05,-1.37714e-05,1.12996e-05,4.18647e-06,0
-3.34101e-05,1.30539e-05,-1.82221e-05,4.84614e-05,1.68948e-05,-1.58235e-05,1.32701e-05,5.01816e-06,0
-3.30589e-05,1.09684e-05,-1.51542e-05,5.47109e-05,1.54731e-05,-1.56555e-05,1.4675e-05,5.34472e-06,0
-3.26213e-05,1.10098e-05,-1.3271e-05,4.20935e-05,1.55663e-05,-1.43804e-05,1.514e-05,7.01822e-06,0
-3.2383e-05,1.0451e-05,-1.18854e-05,1.82351e-05,1.60768e-05,-1.28096e-05,1.1943e-05,1.13768e-05,0
-3.21369e-05,7.17362e-06,-8.1796e-06,-2.03469e-06,1.40083e-05,-1.16214e-05,5.41746e-06,1.40578e-05,0
-3.17606e-05,4.40475e-06,-2.64004e-06,-1.50941e-05,9.54382e-06,-1.18374e-05,1.53497e-06,1.34305e-05,0
-3.14703e-05,3.5894e-06,3.81333e-06,-2.81686e-05,4.13945e-06,-1.26878e-05,8.82955e-07,1.03806e-05,0
-3.11304e-05,2.68448e-06,1.23392e-05,-4.007e-05,9.72171e-07,-1.34674e-05,2.47539e-06,8.11531e-06,0
-3.1479e-05,1.49937e-06,2.60653e-05,-4.34654e-05,1.28332e-06,-1.42719e-05,4.97118e-06,8.30071e-06,0
-3.23321e-05,2.55965e-07,4.43263e-05,-4.01948e-05,2.62195e-06,-1.51059e-05,7.59367e-06,7.83238e-06,0
-3.25613e-05,-1.00396e-06,5.81595e-05,-3.95259e-05,4.17068e-06,-1.40521e-05,1.12576e-05,6.60975e-06,0
-3.13161e-05,-1.97452e-06,5.87426e-05,-4.50314e-05,6.57959e-06,-1.15982e-05,1.48923e-05,6.16173e-06,0
-2.84457e-05,4.65122e-08,4.57156e-05,-5.2388e-05,7.62937e-06,-9.81167e-06,1.86542e-05,8.09395e-06,0
-2.62986e-05,4.10411e-06,1.99038e-05,-5.53359e-05,5.74584e-06,-8.8612e-06,2.07234e-05,9.79838e-06,0
-2.56754e-05,6.96536e-06,-1.47753e-05,-5.10452e-05,3.31237e-06,-8.89027e-06,2.07726e-05,1.02054e-05,0
-2.62926e-05,8.63999e-06,-5.04438e-05,-4.45048e-05,1.54041e-06,-9.38481e-06,2.15969e-05,1.01314e-05,0
-2.75877e-05,1.09261e-05,-7.78829e-05,-4.04346e-05,-1.94079e-07,-9.8529e-06,2.34003e-05,9.5683e-06,0
-2.87483e-05,1.28373e-05,-9.10067e-05,-3.88455e-05,-1.14738e-06,-1.0358e-05,2.47198e-05,9.03123e-06,0
-2.92383e-05,1.29464e-05,-8.96272e-05,-3.74982e-05,1.62996e-06,-1.05184e-05,2.49189e-05,7.90729e-06,0
-2.86166e-05,1.16305e-05,-7.85639e-05,-3.49231e-05,6.2569e-06,-1.0908e-05,2.58226e-05,6.82269e-06,0
-2.71344e-05,9.58139e-06,-6.58623e-05,-3.06938e-05,8.34668e-06,-1.19451e-05,2.82315e-05,6.8648e-06,0
-2.54938e-05,8.39662e-06,-5.51277e-05,-2.71535e-05,6.72246e-06,-1.12432e-05,2.99968e-05,8.30845e-06,0
-2.49215e-05,7.43414e-06,-4.56776e-05,-2.48346e-05,4.7608e-06,-7.719e-06,2.95276e-05,8.85311e-06,0
-2.59431e-05,5.60192e-06,-3.71066e-05,-2.26114e-05,3.82209e-06,-4.54937e-06,2.77051e-05,8.83242e-06,0
-2.74508e-05,3.93424e-06,-2.94206e-05,-2.12956e-05,2.18328e-06,-4.12902e-06,2.42773e-05,7.36057e-06,0
-2.84541e-05,3.5991e-06,-2.15536e-05,-2.13717e-05,2.9892e-07,-4.91636e-06,2.09179e-05,5.19861e-06,0
-2.93165e-05,2.48754e-06,-1.38392e-05,-2.0243e-05,-1.1988e-06,-5.82276e-06,1.92767e-05,3.75291e-06,0
-3.06736e-05,6.69303e-07,-8.03254e-06,-1.66832e-05,-1.35729e-06,-8.10373e-06,1.86e-05,2.98432e-06,0
-3.18176e-05,1.10847e-06,-6.09061e-06,-1.36086e-05,1.10762e-06,-1.0422e-05,1.7792e-05,3.0058e-06,0
-3.1653e-05,3.01745e-06,-6.45439e-06,-1.11998e-05,3.17719e-06,-9.65869e-06,1.64486e-05,4.37079e-06,0
-3.0248e-05,4.55747e-06,-7.70895e-06,-9.03885e-06,3.74273e-06,-7.95879e-06,1.49194e-05,6.32848e-06,0
-2.90916e-05,5.60429e-06,-9.35409e-06,-6.93484e-06,4.22048e-06,-8.88577e-06,1.18839e-05,4.71248e-06,0
-3.00426e-05,6.3861e-06,-9.42085e-06,-2.90692e-06,4.54363e-06,-1.04705e-05,9.34842e-06,1.83468e-06,0
-3.1526e-05,7.58412e-06,-8.86719e-06,6.83497e-07,3.32981e-06,-1.03222e-05,1.02472e-05,1.44454e-06,0
-3.27846e-05,8.45334e-06,-9.06461e-06,1.91895e-06,1.57861e-06,-1.0902e-05,1.16308e-05,1.33211e-06,0
-3.45962e-05,8.32521e-06,-8.93588e-06,2.13419e-06,2.62112e-06,-1.21577e-05,1.1052e-05,-3.50098e-07,0
-3.4498e-05,9.48123e-06,-6.97271e-06,1.73793e-06,4.45789e-06,-1.18839e-05,7.47012e-06,-2.51656e-06,0
-3.25345e-05,1.24271e-05,-3.84475e-06,3.92871e-06,5.92017e-06,-9.70348e-06,4.19961e-06,-3.45492e-06,0
-3.09057e-05,1.57941e-05,-2.14501e-06,6.6419e-06,7.92889e-06,-6.87597e-06,3.10751e-06,-2.62871e-06,0
-2.96216e-05,1.93172e-05,-6.57221e-07,5.77633e-06,9.10576e-06,-6.58518e-06,3.86565e-06,-2.14682e-06,0
-2.83244e-05,2.29242e-05,1.78205e-06,3.02735e-06,7.31893e-06,-8.6578e-06,6.8339e-06,-3.77552e-06,0
-2.68697e-05,2.5631e-05,3.12203e-06,9.76168e-07,5.33152e-06,-9.7602e-06,8.17867e-06,-6.60606e-06,0
-2.56292e-05,2.52683e-05,1.8814e-06,-2.34481e-07,4.72886e-06,-9.8522e-06,8.25819e-06,-8.23775e-06,0
-2.56061e-05,2.23118e-05,-4.99433e-07,-2.8884e-06,5.83295e-06,-1.11737e-05,8.06014e-06,-8.21955e-06,0
-2.68944e-05,1.76506e-05,-2.2617e-06,-6.92645e-06,6.32738e-06,-1.27146e-05,7.11685e-06,-7.63091e-06,0
-2.81176e-05,1.17282e-05,-3.58468e-06,-9.78585e-06,5.95109e-06,-1.36319e-05,5.06518e-06,-6.21148e-06,0
-2.79388e-05,6.81597e-06,-4.45562e-06,-9.17632e-06,6.81237e-06,-1.47823e-05,3.12643e-06,-4.99433e-06,0
-2.6518e-05,5.17268e-06,-3.94239e-06,-7.1092e-06,8.25816e-06,-1.66037e-05,2.16475e-06,-3.90061e-06,0
-2.52505e-05,6.90789e-06,-2.19713e-06,-6.01299e-06,9.81657e-06,-1.89225e-05,2.12814e-06,-1.59321e-06,0
-2.53194e-05,1.08645e-05,-1.47407e-06,-3.52287e-06,1.01556e-05,-2.10248e-05,2.66611e-06,1.01094e-06,0
-2.62055e-05,1.57026e-05,-1.1035e-06,2.46835e-06,1.01912e-05,-2.1126e-05,3.27877e-06,1.98099e-06,0
-2.7126e-05,1.97821e-05,-9.69368e-08,1.08143e-05,1.12553e-05,-1.84096e-05,4.17498e-06,1.08077e-06,0
-2.7704e-05,2.19048e-05,7.92729e-07,1.65669e-05,1.31803e-05,-1.47006e-05,5.63944e-06,1.09869e-07,0
-2.64336e-05,2.15197e-05,6.28914e-07,1.56801e-05,1.49525e-05,-1.33838e-05,6.56159e-06,-6.80607e-07,0
-2.61715e-05,1.99784e-05,-1.6811e-07,1.11591e-05,1.56258e-05,-1.48942e-05,6.27094e-06,-2.2395e-06,0
-2.96186e-05,1.82452e-05,-2.2918e-06,7.56435e-06,1.46474e-05,-1.62366e-05,6.84295e-06,-3.4855e-06,0
-3.24724e-05,1.77324e-05,-4.19002e-06,4.70899e-06,1.42663e-05,-1.66158e-05,7.80676e-06,-2.96195e-06,0
-3.31826e-05,1.90713e-05,-4.75025e-06,2.0404e-06,1.45441e-05,-1.60717e-05,8.91233e-06,-2.355e-06,0
-3.27491e-05,2.21187e-05,-5.22264e-06,6.31627e-07,1.49095e-05,-1.36074e-05,8.00076e-06,-2.34612e-06,0
-3.05408e-05,2.47455e-05,-3.7871e-06,7.40302e-08,1.49545e-05,-1.13913e-05,3.45626e-06,-2.47883e-06,0
-3.00725e-05,2.4565e-05,-1.56519e-06,-7.55623e-07,1.58927e-05,-1.1867e-05,-3.01964e-07,-3.50932e-06,0
-3.1287e-05,2.37644e-05,4.12802e-07,-2.0258e-06,1.83129e-05,-1.14737e-05,6.10931e-07,-5.15775e-06,0
-3.21069e-05,2.41301e-05,6.07483e-07,-3.97711e-06,1.95414e-05,-9.45855e-06,5.50576e-06,-5.60265e-06,0
-3.28124e-05,2.49156e-05,-2.39198e-07,-5.37721e-06,1.78985e-05,-8.63073e-06,1.04971e-05,-5.38e-06,0
-3.26386e-05,2.59107e-05,-4.50622e-07,-4.78295e-06,1.53613e-05,-8.98121e-06,1.32412e-05,-4.79439e-06,0
-3.30809e-05,2.73689e-05,-2.6989e-06,-3.45693e-06,1.38284e-05,-9.1655e-06,1.46447e-05,-3.02658e-06,0
-3.33135e-05,2.87078e-05,-4.55858e-06,-3.36346e-06,1.28301e-05,-8.75829e-06,1.62259e-05,-1.5953e-06,0
-3.31471e-05,2.99947e-05,-4.59116e-06,-3.74824e-06,1.33051e-05,-7.87817e-06,1.7606e-05,-1.59885e-06,0
-3.31387e-05,3.17132e-05,-3.63032e-06,-2.3437e-06,1.49133e-05,-6.69395e-06,1.77767e-05,-2.52566e-06,0
-3.36254e-05,3.27384e-05,-2.76695e-06,-1.40196e-06,1.5965e-05,-5.92146e-06,1.79391e-05,-3.24281e-06,0
-3.38511e-05,3.14488e-05,-1.55577e-06,-3.31491e-06,1.67814e-05,-4.67878e-06,1.83589e-05,-3.81279e-06,0
-3.32547e-05,2.85674e-05,-3.27979e-08,-7.06023e-06,1.95245e-05,-2.56772e-06,1.84009e-05,-4.51459e-06,0
