ch1,ch2,ch3,ch4,ch5,ch6,ch7,ch8,class
-2.95755e-05,1.2251e-05,-3.53702e-06,6.16434e-06,1.62149e-05,-1.29103e-05,1.97498e-05,-1.00043e-07,0
-3.01088e-05,1.59346e-05,-1.67344e-06,7.04768e-06,1.41047e-05,-1.26723e-05,1.8706e-05,-2.598e-06,0
-2.93497e-05,1.93078e-05,-1.76755e-06,5.98023e-06,1.02026e-05,-1.31401e-05,1.73581e-05,-3.04974e-06,0
-2.76949e-05,2.08087e-05,-5.24867e-06,4.24521e-06,5.38875e-06,-1.31677e-05,1.65332e-05,-1.47296e-06,0
-2.75173e-05,2.10861e-05,-8.99954e-06,3.946e-06,2.52089e-06,-1.27937e-05,1.65073e-05,-1.89924e-08,0
-2.87044e-05,2.0427e-05,-9.99925e-06,3.92031e-06,2.71203e-06,-1.20383e-05,1.72933e-05,-9.00429e-07,0
-3.11224e-05,1.90031e-05,-8.7897e-06,3.57122e-06,4.74083e-06,-1.21949e-05,1.80854e-05,-2.83431e-06,0
-3.26606e-05,1.76748e-05,-6.39537e-06,1.76045e-06,6.17443e-06,-1.2576e-05,1.67641e-05,-3.23027e-06,0
-3.16954e-05,1.64346e-05,-4.69663e-06,-2.37653e-06,5.51734e-06,-1.20949e-05,1.55452e-05,-3.4179e-06,0
-2.93622e-05,1.54089e-05,-4.99597e-06,-6.51096e-06,5.84666e-06,-1.14795e-05,1.53639e-05,-3.02251e-06,0
-2.80938e-05,1.35349e-05,-7.00703e-06,-6.21973e-06,7.86304e-06,-1.09523e-05,1.50666e-05,-2.51354e-07,0
-2.94639e-05,1.14513e-05,-9.75993e-06,3.64482e-06,1.00257e-05,-9.5584e-06,1.40835e-05,1.81446e-06,0
-3.12465e-05,9.64201e-06,-1.3546e-05,1.78357e-05,1.26765e-05,-8.274e-06,1.30534e-05,1.31506e-06,0
-3.27604e-05,8.07211e-06,-1.58936e-05,2.45863e-05,1.22389e-05,-9.71118e-06,1.19508e-05,-1.13677e-07,0
-3.40802e-05,6.96049e-06,-1.57366e-05,2.32444e-05,1.10566e-05,-1.16095e-05,9.89558e-06,-6.22249e-07,0
-3.53659e-05,6.63126e-06,-1.49157e-05,2.40564e-05,1.11746e-05,-1.21405e-05,9.33883e-06,1.36237e-07,0
-3.53928e-05,7.86983e-06,-1.38965e-05,3.52583e-05,1.18682e-05,-1.14324e-05,9.7507e-06,-6.01557e-07,0
-3.35603e-05,8.21879e-06,-1.1349e-05,4.51128e-05,1.29583e-05,-1.01792e-05,1.10421e-05,-3.339e-06,0
-3.18959e-05,7.84058e-06,-5.55382e-06,3.77453e-05,1.32363e-05,-1.01285e-05,1.28909e-05,-4.71659e-06,0
-3.08262e-05,8.07055e-06,2.79078e-06,1.7949e-05,1.31047e-05,-1.087e-05,1.46333e-05,-4.467e-06,0
-3.04404e-05,9.13142e-06,1.45761e-05,5.10622e-07,1.34862e-05,-1.18895e-05,1.55625e-05,-4.55203e-06,0
-3.11401e-05,9.96175e-06,3.13901e-05,-8.64856e-07,1.48137e-05,-1.22429e-05,1.51073e-05,-3.9779e-06,0
-3.24787e-05,1.02661e-05,5.15461e-05,1.14031e-05,1.56317e-05,-1.22563e-05,1.36121e-05,-3.07891e-06,0
-3.41142e-05,9.85833e-06,6.80023e-05,2.05479e-05,1.56241e-05,-1.31056e-05,1.2709e-05,-3.26793e-06,0
-3.52562e-05,9.30098e-06,7.19523e-05,1.78806e-05,1.5222e-05,-1.46302e-05,1.35375e-05,-3.61743e-06,0
-3.55285e-05,8.55938e-06,5.72015e-05,6.05996e-06,1.62342e-05,-1.51608e-05,1.4982e-05,-3.94898e-06,0
-3.49734e-05,7.67235e-06,2.46789e-05,-9.89204e-06,1.83793e-05,-1.52176e-05,1.71088e-05,-3.6072e-06,0
-3.36309e-05,7.45547e-06,-1.70436e-05,-2.71112e-05,1.97764e-05,-1.56898e-05,1.91389e-05,-2.23024e-06,0
-3.2265e-05,7.90249e-06,-5.76669e-05,-4.13503e-05,1.85686e-05,-1.52368e-05,1.8957e-05,-3.21046e-08,0
-3.16487e-05,7.9449e-06,-8.85259e-05,-4.98062e-05,1.63406e-05,-1.3538e-05,1.63127e-05,1.50417e-06,0
-3.13415e-05,7.24117e-06,-0.000102847,-5.34947e-05,1.52397e-05,-1.09699e-05,1.43046e-05,1.78103e-06,0
-3.11562e-05,8.15536e-06,-9.84751e-05,-5.57198e-05,1.53242e-05,-8.26243e-06,1.38768e-05,1.30116e-06,0
-3.14133e-05,8.69236e-06,-8.0863e-05,-6.06321e-05,1.49618e-05,-6.01454e-06,1.38222e-05,1.00057e-06,0
-3.08639e-05,6.98138e-06,-6.16028e-05,-6.61177e-05,1.25007e-05,-5.11808e-06,1.27948e-05,8.68532e-07,0
-2.86643e-05,5.08719e-06,-4.97187e-05,-6.31135e-05,9.75216e-06,-6.64894e-06,1.10539e-05,9.12342e-07,0
-2.71767e-05,4.0805e-06,-4.33039e-05,-4.94973e-05,8.08233e-06,-8.87948e-06,8.94234e-06,3.95854e-07,0
-2.70536e-05,2.19894e-06,-3.46697e-05,-3.34259e-05,8.77827e-06,-8.31914e-06,6.76851e-06,-7.58616e-07,0
-2.67275e-05,-7.1721e-08,-2.25441e-05,-2.57504e-05,1.05189e-05,-6.07045e-06,5.55102e-06,-1.58528e-06,0
-2.79711e-05,1.58936e-06,-1.58475e-05,-2.45749e-05,1.06263e-05,-5.45144e-06,5.78653e-06,-1.62435e-06,0
-3.01405e-05,4.85402e-06,-1.53706e-05,-2.09046e-05,9.00827e-06,-6.00126e-06,7.20438e-06,9.41955e-08,0
-3.01871e-05,7.20769e-06,-1.31608e-05,-1.66335e-05,7.62581e-06,-6.76917e-06,7.94758e-06,1.89853e-06,0
-2.89176e-05,9.76869e-06,-1.03904e-05,-1.34993e-05,8.9928e-06,-8.09335e-06,5.9508e-06,1.87954e-06,0
-2.74475e-05,9.61018e-06,-1.01024e-05,-1.02403e-05,1.08561e-05,-8.66259e-06,2.98399e-06,6.98132e-07,0
-2.63192e-05,7.83227e-06,-1.07115e-05,-8.34153e-06,1.14587e-05,-8.39753e-06,2.94659e-06,1.24802e-06,0
-2.57941e-05,6.76463e-06,-1.0316e-05,-7.05486e-06,1.10049e-05,-7.38979e-06,6.62141e-06,3.51032e-06,0
-2.67318e-05,7.88423e-06,-7.71397e-06,-5.51255e-06,1.09639e-05,-4.79512e-06,9.24919e-06,5.27487e-06,0
-2.92659e-05,1.05722e-05,-4.62701e-06,-3.75397e-06,1.18943e-05,-1.78025e-06,8.20025e-06,5.09053e-06,0
-3.08418e-05,1.0721e-05,-3.43529e-06,-1.75557e-06,1.25355e-05,-7.45472e-07,5.82905e-06,1.61677e-06,0
-3.16866e-05,8.71385e-06,-3.76176e-06,-3.58713e-07,1.39769e-05,-1.58604e-06,5.03724e-06,-1.55953e-06,0
-3.32556e-05,9.24749e-06,-4.43309e-06,1.13547e-07,1.57246e-05,-3.1098e-06,8.42764e-06,-1.53379e-06,0
-3.48624e-05,1.14299e-05,-4.55342e-06,-9.07599e-08,1.7754e-05,-4.67114e-06,1.2526e-05,-4.47228e-07,0
-3.57449e-05,1.10544e-05,-4.8307e-06,3.12312e-07,1.90963e-05,-5.77656e-06,1.36157e-05,6.44039e-07,0
-3.52753e-05,9.61337e-06,-5.99231e-06,-1.16477e-06,1.90291e-05,-6.94792e-06,1.36494e-05,2.09139e-06,0
-3.42255e-05,1.02016e-05,-6.30132e-06,-7.89532e-06,1.68068e-05,-8.86335e-06,1.52046e-05,4.25641e-06,0
-3.37918e-05,1.24338e-05,-4.29505e-06,-1.58091e-05,1.37756e-05,-1.05742e-05,1.64728e-05,6.35626e-06,0
-3.37075e-05,1.27066e-05,-1.42135e-06,-1.87293e-05,1.21531e-05,-1.10176e-05,1.55159e-05,7.89474e-06,0
-3.29754e-05,1.07639e-05,7.66956e-08,-1.71156e-05,1.16684e-05,-1.02888e-05,1.27945e-05,8.58461e-06,0
-3.16341e-05,9.00105e-06,9.22139e-08,-1.28468e-05,1.15206e-05,-8.4346e-06,1.04796e-05,8.76049e-06,0
-3.03602e-05,7.73565e-06,2.2635e-07,-4.29426e-06,1.21969e-05,-8.38984e-06,9.90464e-06,8.67121e-06,0
-2.99796e-05,6.26939e-06,7.89502e-07,8.13277e-06,1.48014e-05,-1.0074e-05,1.06167e-05,7.96123e-06,0
-3.1617e-05,4.30201e-06,5.91587e-07,1.882e-05,1.74928e-05,-1.06973e-05,1.15872e-05,8.3414e-06,0
-3.36576e-05,3.2051e-06,-2.93643e-07,2.54034e-05,1.80747e-05,-1.16825e-05,1.18993e-05,9.45182e-06,0
-3.29305e-05,3.81321e-06,-1.0399e-06,3.03239e-05,1.80487e-05,-1.39954e-05,1.19224e-05,8.50015e-06,0
-3.12296e-05,4.20062e-06,-1.72743e-06,3.38566e-05,1.86404e-05,-1.46326e-05,1.17638e-05,7.10843e-06,0
-3.07984e-05,2.00264e-06,-3.57981e-06,3.50727e-05,1.88967e-05,-1.22319e-05,1.05082e-05,6.04941e-06,0
-3.03915e-05,-1.37958e-06,-5.40419e-06,3.35047e-05,1.8102e-05,-9.42127e-06,9.62835e-06,3.88856e-06,0
-3.03792e-05,-3.2038e-06,-6.09272e-06,2.70978e-05,1.56905e-05,-7.23954e-06,9.70866e-06,2.68852e-06,0
-3.18448e-05,-2.90982e-06,-4.55475e-06,1.70149e-05,1.39048e-05,-5.77757e-06,9.47255e-06,3.46799e-06,0
-3.30745e-05,-2.29641e-07,-1.93422e-06,6.811e-06,1.24873e-05,-5.49778e-06,9.63551e-06,3.88443e-06,0
-3.17469e-05,8.85713e-07,-1.06186e-06,-1.48097e-06,1.18684e-05,-5.90259e-06,7.96293e-06,3.81297e-06,0
-3.03801e-05,-1.19067e-07,-4.71437e-07,-9.28522e-06,1.20952e-05,-5.85373e-06,4.91477e-06,5.07076e-06,0
-2.91316e-05,-1.04455e-07,-9.37e-07,-1.84859e-05,1.25458e-05,-4.85044e-06,-4.94356e-07,5.91029e-06,0
-2.77606e-05,1.84066e-06,-2.37891e-06,-2.5134e-05,1.40706e-05,-3.93489e-06,-1.11492e-05,5.61632e-06,0
-2.8025e-05,4.78124e-06,-3.49549e-06,-2.59003e-05,1.46114e-05,-3.96533e-06,-2.17391e-05,4.65797e-06,0
-2.94102e-05,7.51795e-06,-3.53929e-06,-2.07427e-05,1.41464e-05,-3.95934e-06,-2.44508e-05,3.35028e-06,0
-3.06542e-05,9.44905e-06,-2.17721e-06,-1.42115e-05,1.36182e-05,-2.7716e-06,-1.82066e-05,2.32618e-06,0
-3.04978e-05,1.03161e-05,-4.26304e-07,-9.01903e-06,1.32443e-05,-1.99904e-06,-6.65238e-06,-3.48413e-07,0
-2.94748e-05,1.13707e-05,7.30206e-07,-4.98286e-06,1.39792e-05,-2.32128e-06,6.62663e-06,-3.56209e-06,0
-2.9188e-05,1.24043e-05,1.31513e-07,-1.98626e-06,1.52407e-05,-2.25437e-06,1.86679e-05,-4.02691e-06,0
-2.95182e-05,1.36218e-05,-2.0129e-06,-2.32656e-08,1.46849e-05,-2.10486e-06,2.84279e-05,-1.02669e-06,0
-2.9453e-05,1.42913e-05,-3.94088e-06,1.28976e-06,1.21466e-05,-2.81453e-06,3.59717e-05,2.76744e-06,0
-3.03814e-05,1.43986e-05,-4.46335e-06,2.67615e-06,1.12951e-05,-3.809e-06,4.05648e-05,4.88031e-06,0
-3.16514e-05,1.38599e-05,-3.98039e-06,3.56204e-06,1.33168e-05,-4.75937e-06,4.04322e-05,4.98751e-06,0
-3.13376e-05,1.2579e-05,-2.78165e-06,3.43789e-06,1.46704e-05,-5.66334e-06,3.20395e-05,3.69351e-06,0
-3.00248e-05,1.16019e-05,-2.309e-06,1.69243e-06,1.37584e-05,-6.71473e-06,1.26906e-05,1.62043e-06,0
-3.0058e-05,1.17116e-05,-2.7372e-06,-3.0466e-07,1.23267e-05,-9.01691e-06,-8.47855e-06,-8.82003e-07,0
-3.06533e-05,1.23754e-05,-2.39822e-06,-1.75354e-06,1.09125e-05,-1.15483e-05,-1.72279e-05,-2.56313e-06,0
-3.03267e-05,1.25794e-05,-1.19372e-06,-3.6264e-06,1.00648e-05,-1.20784e-05,-1.11172e-05,-3.64889e-06,0
-3.05891e-05,1.23705e-05,-6.80511e-07,-5.98527e-06,1.12746e-05,-1.07342e-05,2.08707e-06,-4.74618e-06,0
-3.06432e-05,1.3144e-05,-2.22974e-06,-7.2291e-06,1.34053e-05,-1.01136e-05,1.56047e-05,-5.33531e-06,0
-3.01768e-05,1.42521e-05,-4.82846e-06,-6.02218e-06,1.38985e-05,-1.19693e-05,2.75465e-05,-5.99434e-06,0
-2.99648e-05,1.291e-05,-6.57254e-06,-3.26803e-06,1.16074e-05,-1.48083e-05,3.76973e-05,-6.92551e-06,0
-2.87585e-05,1.15451e-05,-8.66759e-06,-2.16133e-06,9.37416e-06,-1.48173e-05,4.47361e-05,-5.67018e-06,0
-2.87784e-05,1.18932e-05,-1.06908e-05,-3.24276e-06,7.67091e-06,-1.35269e-05,4.76121e-05,-5.05242e-06,0
-3.00617e-05,1.25277e-05,-1.24094e-05,-4.13754e-06,6.51715e-06,-1.39441e-05,4.6148e-05,-6.31269e-06,0
-2.99729e-05,1.41203e-05,-1.52115e-05,-2.5433e-06,8.0343e-06,-1.41302e-05,4.30017e-05,-7.39848e-06,0
-2.95151e-05,1.69558e-05,-1.85453e-05,3.75959e-07,1.00299e-05,-1.34236e-05,4.07499e-05,-7.47667e-06,0
-2.87143e-05,1.80377e-05,-2.02638e-05,1.26377e-06,1.0639e-05,-1.23593e-05,4.2346e-05,-6.14464e-06,0
-2.92197e-05,1.55178e-05,-1.85857e-05,-5.13509e-07,1.01238e-05,-1.16902e-05,4.84175e-05,-5.38236e-06,0
-3.12656e-05,1.10764e-05,-1.61878e-05,-7.20349e-06,1.06611e-05,-1.02999e-05,5.37147e-05,-4.61193e-06,0
-3.19709e-05,5.8137e-06,-1.5051e-05,-2.2205e-05,1.20557e-05,-1.04344e-05,5.58381e-05,-4.15702e-06,0
-3.15357e-05,2.23805e-06,-1.49525e-05,-4.02634e-05,1.33459e-05,-1.18567e-05,5.30849e-05,-4.57096e-06,0
-3.08911e-05,2.32451e-06,-1.47716e-05,-5.16987e-05,1.50446e-05,-1.19642e-05,4.57262e-05,-4.53712e-06,0
-3.04649e-05,4.59378e-06,-1.47484e-05,-5.16968e-05,1.53173e-05,-1.11698e-05,3.53582e-05,-3.43351e-06,0
-3.0956e-05,6.1663e-06,-1.52325e-05,-4.30891e-05,1.34881e-05,-1.08108e-05,2.187e-05,-1.66963e-06,0
-3.20928e-05,6.39097e-06,-1.56545e-05,-3.02732e-05,1.14055e-05,-1.14816e-05,4.54949e-06,2.6458e-07,0
-3.28512e-05,6.24626e-06,-1.55527e-05,-1.12676e-05,9.98794e-06,-1.20646e-05,-1.33953e-05,1.60049e-06,0
-3.3164e-05,6.95342e-06,-1.48903e-05,1.43145e-05,8.77385e-06,-1.32092e-05,-2.56752e-05,2.3063e-06,0
-3.31451e-05,9.4917e-06,-1.44152e-05,4.18454e-05,9.03797e-06,-1.45815e-05,-2.99755e-05,3.92007e-06,0
-3.20244e-05,1.31382e-05,-1.43865e-05,6.37344e-05,1.13609e-05,-1.60759e-05,-2.90339e-05,6.3199e-06,0
-2.99332e-05,1.743e-05,-1.46685e-05,7.19593e-05,1.42286e-05,-1.64478e-05,-2.48855e-05,8.10586e-06,0
-2.80655e-05,1.98436e-05,-1.3913e-05,6.39814e-05,1.65192e-05,-1.53715e-05,-1.6998e-05,8.87451e-06,0
-2.76429e-05,1.96629e-05,-1.15252e-05,4.43853e-05,1.98641e-05,-1.27789e-05,-9.26321e-06,8.0424e-06,0
-2.7635e-05,1.94462e-05,-9.29904e-06,1.7955e-05,2.2941e-05,-1.07567e-05,-5.53855e-06,5.96923e-06,0
-2.69943e-05,2.0461e-05,-8.70481e-06,-7.68247e-06,2.05895e-05,-1.07658e-05,-4.80915e-06,5.22897e-06,0
-2.63398e-05,2.15405e-05,-6.64566e-06,-2.44358e-05,1.42646e-05,-1.20323e-05,-4.11089e-06,6.00272e-06,0
-2.57126e-05,2.39436e-05,-3.52998e-06,-3.04406e-05,1.11847e-05,-1.23099e-05,-1.02765e-06,6.20169e-06,0
-2.52073e-05,2.88153e-05,-3.36208e-06,-3.03395e-05,1.33726e-05,-1.04216e-05,3.48294e-06,5.76893e-06,0
-2.66573e-05,3.14654e-05,-3.11103e-06,-2.86294e-05,1.69502e-05,-7.62888e-06,6.6286e-06,5.52194e-06,0
-2.85001e-05,2.81704e-05,-1.06828e-06,-2.64151e-05,1.79554e-05,-6.36331e-06,7.21487e-06,5.81363e-06,0
-2.75006e-05,2.48293e-05,2.8667e-07,-2.38238e-05,1.61279e-05,-8.10172e-06,5.39798e-06,6.16685e-06,0
-2.58214e-05,2.5226e-05,9.11176e-08,-1.907e-05,1.38168e-05,-8.98578e-06,4.03473e-06,5.49015e-06,0
-2.55698e-05,2.61878e-05,-1.34533e-06,-1.35766e-05,1.12309e-05,-8.46362e-06,3.03936e-06,5.08634e-06,0
-2.79678e-05,2.71662e-05,-3.95812e-06,-8.6189e-06,9.9896e-06,-8.83105e-06,2.45798e-06,5.29218e-06,0
-3.14122e-05,2.84307e-05,-7.40501e-06,-8.53335e-06,9.95912e-06,-1.04229e-05,4.51166e-06,5.35124e-06,0
-3.32568e-05,3.04656e-05,-9.97721e-06,-1.20769e-05,1.02614e-05,-1.05383e-05,7.9251e-06,6.41799e-06,0
-3.34924e-05,3.4064e-05,-1.11971e-05,-1.56022e-05,1.21929e-05,-9.96984e-06,1.10701e-05,7.11089e-06,0
-3.23552e-05,3.79179e-05,-1.08345e-05,-1.67091e-05,1.43328e-05,-1.01363e-05,1.43204e-05,7.19788e-06,0
-3.0938e-05,3.85671e-05,-9.7141e-06,-1.25313e-05,1.64119e-05,-9.86099e-06,1.7844e-05,7.58406e-06,0
-3.06709e-05,3.67091e-05,-8.2182e-06,-2.94082e-06,1.94562e-05,-9.90638e-06,1.96478e-05,8.69153e-06,0
-3.11754e-05,3.45521e-05,-7.54663e-06,7.3955e-06,2.13261e-05,-1.06857e-05,1.80552e-05,9.97985e-06,0
-3.06073e-05,3.28135e-05,-7.57005e-06,1.19013e-05,2.1311e-05,-1.07619e-05,1.43172e-05,9.66863e-06,0
-3.02645e-05,3.0872e-05,-7.79219e-06,1.24038e-05,2.23726e-05,-8.362e-06,1.23921e-05,8.24966e-06,0
-3.07663e-05,2.95886e-05,-8.72303e-06,1.22335e-05,2.41782e-05,-4.78199e-06,1.36139e-05,6.95018e-06,0
-3.13219e-05,2.98958e-05,-9.33258e-06,1.23121e-05,2.39803e-05,-2.86738e-06,1.58939e-05,5.93018e-06,0
-3.15522e-05,3.16948e-05,-8.7972e-06,9.14846e-06,2.18676e-05,-2.84284e-06,1.74317e-05,5.71348e-06,0
-3.16902e-05,3.51292e-05,-7.79334e-06,3.87775e-06,2.02167e-05,-3.04377e-06,1.74198e-05,6.77516e-06,0
-3.22307e-05,3.85255e-05,-7.22119e-06,1.90715e-06,2.01223e-05,-4.11651e-06,1.601e-05,6.64452e-06,0
-3.28817e-05,3.75714e-05,-6.03802e-06,4.37774e-06,2.05549e-05,-6.2356e-06,1.58744e-05,5.23186e-06,0
-3.29141e-05,3.03737e-05,-5.66046e-06,7.23054e-06,2.18612e-05,-6.75325e-06,1.69514e-05,3.86569e-06,0
-3.18401e-05,2.22645e-05,-6.43329e-06,7.58389e-06,2.48215e-05,-4.33874e-06,1.56918e-05,3.11206e-06,0
-3.01078e-05,1.61155e-05,-7.29478e-06,2.93851e-06,2.55768e-05,-2.14979e-06,1.29082e-05,2.7927e-06,0
-2.89324e-05,9.64727e-06,-8.19816e-06,-8.29314e-06,2.22866e-05,-6.90818e-07,1.22088e-05,1.63328e-06,0
-2.82232e-05,1.79741e-06,-9.03206e-06,-2.14472e-05,1.81576e-05,-8.06632e-08,1.27469e-05,-1.2694e-06,0
-2.83233e-05,-2.75307e-06,-9.23947e-06,-2.67683e-05,1.54159e-05,-2.7618e-06,1.06849e-05,-4.3833e-06,0
-3.14343e-05,-2.38844e-06,-9.63449e-06,-2.29026e-05,1.4475e-05,-6.13248e-06,7.83085e-06,-6.43474e-06,0
-3.43677e-05,2.1977e-07,-1.02118e-05,-1.69909e-05,1.40089e-05,-8.02375e-06,9.07571e-06,-7.19536e-06,0
-3.4521e-05,1.81773e-06,-9.35613e-06,-1.057e-05,1.27479e-05,-8.57302e-06,1.30601e-05,-5.53794e-06,0
-3.29961e-05,1.2989e-06,-8.7951e-06,-5.30682e-06,1.14198e-05,-8.03972e-06,1.51159e-05,-4.33085e-06,0
-3.18343e-05,5.57149e-06,-1.17852e-05,-2.05909e-06,1.12318e-05,-8.0741e-06,1.57044e-05,-5.25416e-06,0
-3.27584e-05,1.58906e-05,-1.74843e-05,2.35425e-07,1.13716e-05,-8.85221e-06,1.73736e-05,-5.06117e-06,0
-3.33401e-05,2.74959e-05,-2.20394e-05,3.69229e-06,1.29022e-05,-9.61335e-06,2.0086e-05,-3.6962e-06,0
-3.11266e-05,3.86631e-05,-2.1199e-05,1.23383e-05,1.55602e-05,-9.94993e-06,2.09947e-05,-3.59341e-06,0
-2.80976e-05,4.52374e-05,-1.54117e-05,2.61712e-05,1.63802e-05,-9.48352e-06,1.6463e-05,-3.1966e-06,0
-2.67227e-05,4.38192e-05,-9.33667e-06,3.59639e-05,1.60697e-05,-8.85882e-06,8.06705e-06,-3.28609e-06,0
-2.64363e-05,3.41265e-05,-5.23903e-06,3.29465e-05,1.62138e-05,-8.54443e-06,1.45626e-06,-4.2529e-06,0
-2.69141e-05,1.8103e-05,-2.96749e-06,1.77887e-05,1.62117e-05,-8.65072e-06,1.57437e-07,-5.50466e-06,0
-2.73168e-05,-1.50329e-06,-1.46058e-06,-3.82285e-06,1.58592e-05,-9.40942e-06,2.37094e-06,-6.32468e-06,0
-2.68006e-05,-2.23304e-05,-2.88193e-07,-2.72315e-05,1.52893e-05,-1.14419e-05,5.17272e-06,-6.55043e-06,0
-2.68597e-05,-4.15615e-05,1.09122e-06,-4.79348e-05,1.4086e-05,-1.32606e-05,7.32833e-06,-6.78477e-06,0
-2.7759e-05,-5.47182e-05,1.74001e-06,-5.90307e-05,1.27972e-05,-1.29374e-05,9.66499e-06,-6.45988e-06,0
-2.86756e-05,-5.81451e-05,8.91036e-07,-5.56929e-05,1.22837e-05,-1.13668e-05,1.34596e-05,-6.07517e-06,0
-2.94427e-05,-5.13402e-05,-7.39485e-07,-3.83581e-05,1.30988e-05,-1.10264e-05,1.84274e-05,-4.88689e-06,0
-3.02945e-05,-3.77416e-05,-2.17963e-06,-1.61909e-05,1.38234e-05,-1.29709e-05,2.21589e-05,-3.91683e-06,0
-2.99275e-05,-2.44415e-05,-2.93184e-06,-5.84619e-06,1.36229e-05,-1.47775e-05,2.2324e-05,-4.89653e-06,0
-2.80078e-05,-1.65889e-05,-4.60364e-06,-1.21512e-05,1.24191e-05,-1.45932e-05,2.11445e-05,-7.63367e-06,0
-2.67959e-05,-1.4301e-05,-7.67136e-06,-2.56084e-05,1.02656e-05,-1.3857e-05,2.12054e-05,-8.89912e-06,0
-2.69967e-05,-1.23994e-05,-9.49925e-06,-3.37186e-05,8.4931e-06,-1.2877e-05,2.13326e-05,-8.46625e-06,0
-2.72196e-05,-7.97216e-06,-1.00734e-05,-3.07531e-05,9.04239e-06,-1.14617e-05,2.07413e-05,-7.12354e-06,0
-2.6045e-05,-2.56227e-06,-9.66827e-06,-2.52751e-05,1.17851e-05,-1.04613e-05,2.04161e-05,-5.83048e-06,0
-2.46384e-05,1.54989e-06,-8.85508e-06,-2.43099e-05,1.29417e-05,-1.08076e-05,2.05773e-05,-5.51725e-06,0
-2.49939e-05,4.01792e-06,-8.77849e-06,-2.62905e-05,1.06794e-05,-1.08434e-05,2.12923e-05,-4.36666e-06,0
-2.68278e-05,5.1609e-06,-8.1431e-06,-2.79422e-05,7.15417e-06,-9.00055e-06,2.24352e-05,-2.69097e-06,0
-2.78407e-05,6.81673e-06,-7.06389e-06,-3.09925e-05,5.60397e-06,-8.80088e-06,2.28338e-05,-2.2473e-06,0
-2.81038e-05,8.22418e-06,-6.02131e-06,-3.42028e-05,6.29853e-06,-1.25252e-05,2.15169e-05,-2.94212e-06,0
-2.73991e-05,8.1556e-06,-5.58461e-06,-3.34104e-05,8.85391e-06,-1.61652e-05,2.01503e-05,-2.3101e-06,0
-2.56898e-05,9.43903e-06,-5.54171e-06,-2.59485e-05,1.14425e-05,-1.60338e-05,1.78435e-05,9.39582e-08,0
-2.55324e-05,1.24846e-05,-6.42532e-06,-1.38666e-05,1.21768e-05,-1.37023e-05,1.34706e-05,1.24132e-06,0
-2.72301e-05,1.4871e-05,-8.27955e-06,-6.78336e-06,1.16164e-05,-1.21171e-05,9.71878e-06,-1.48587e-06,0
-2.98753e-05,1.5845e-05,-9.96105e-06,-6.13792e-06,1.07642e-05,-1.39283e-05,8.27676e-06,-4.89301e-06,0
-3.14489e-05,1.92505e-05,-1.06377e-05,-7.60955e-06,1.09778e-05,-1.55019e-05,7.46426e-06,-6.08127e-06,0
-3.07852e-05,2.47884e-05,-9.79638e-06,-7.4734e-06,1.1812e-05,-1.52961e-05,7.56659e-06,-5.30619e-06,0
-2.94043e-05,2.84621e-05,-8.87489e-06,-4.54643e-06,1.26187e-05,-1.39e-05,8.19692e-06,-4.11911e-06,0
-2.89482e-05,2.87282e-05,-9.68818e-06,2.4662e-06,1.27636e-05,-1.29536e-05,8.51656e-06,-3.16742e-06,0
-2.9045e-05,2.6488e-05,-1.20052e-05,1.23412e-05,1.17473e-05,-1.2533e-05,9.30384e-06,-1.47004e-06,0
-2.903e-05,2.30668e-05,-1.29564e-05,2.21188e-05,9.68514e-06,-1.1423e-05,9.43458e-06,-3.21227e-07,0
-2.9112e-05,2.03751e-05,-1.11633e-05,2.59394e-05,7.72159e-06,-1.04654e-05,8.95149e-06,-3.14503e-07,0
-2.86468e-05,1.98938e-05,-7.63533e-06,2.09533e-05,7.13914e-06,-1.01303e-05,9.45086e-06,-7.03908e-07,0
-2.73173e-05,1.99938e-05,-4.38266e-06,1.29595e-05,7.34781e-06,-1.13383e-05,1.12844e-05,-4.77309e-07,0
-2.65645e-05,1.84821e-05,-3.00082e-06,7.48171e-06,6.55099e-06,-1.12726e-05,1.27072e-05,-8.71387e-07,0
-2.71111e-05,1.4644e-05,-4.34763e-06,5.18686e-06,5.13228e-06,-1.03709e-05,1.24519e-05,-3.00065e-06,0
-2.74893e-05,1.01991e-05,-6.16103e-06,4.15434e-06,4.80583e-06,-9.66484e-06,1.02696e-05,-5.5226e-06,0
-2.74433e-05,8.14741e-06,-5.96615e-06,3.29323e-06,5.59617e-06,-9.96669e-06,7.9373e-06,-6.05364e-06,0
-2.78028e-05,8.93705e-06,-4.97031e-06,2.26736e-06,7.31862e-06,-9.99755e-06,7.34301e-06,-4.68088e-06,0
-2.87295e-05,9.29461e-06,-4.90988e-06,2.5296e-06,8.82428e-06,-8.32602e-06,8.37942e-06,-2.7617e-06,0
-3.01534e-05,1.04437e-05,-5.69098e-06,5.85165e-07,9.57186e-06,-7.48535e-06,8.80297e-06,-8.56191e-07,0
-3.09453e-05,1.58196e-05,-5.86695e-06,-5.03366e-06,1.03278e-05,-9.94939e-06,9.05671e-06,-2.18676e-07,0
-2.96869e-05,2.16326e-05,-5.7351e-06,-1.41195e-05,1.15937e-05,-1.22668e-05,8.41525e-06,8.10186e-07,0
-2.65972e-05,2.22797e-05,-5.83411e-06,-2.28908e-05,1.42499e-05,-1.13488e-05,7.62206e-06,1.16593e-06,0
-2.46242e-05,2.12069e-05,-5.63259e-06,-2.64521e-05,1.76238e-05,-8.54342e-06,8.75704e-06,6.08227e-07,0
-2.47077e-05,2.02176e-05,-5.07142e-06,-2.17076e-05,2.05974e-05,-7.69735e-06,9.92941e-06,5.86625e-07,0
-2.54126e-05,1.61202e-05,-6.03406e-06,-5.24446e-06,2.21948e-05,-8.43833e-06,1.00158e-05,1.33354e-06,0
-2.64223e-05,1.10321e-05,-7.65179e-06,1.93107e-05,2.3422e-05,-8.1962e-06,8.61079e-06,3.07779e-06,0
-2.70985e-05,6.79627e-06,-8.37941e-06,4.08851e-05,2.41161e-05,-7.56726e-06,6.46813e-06,5.15184e-06,0
-2.82155e-05,4.38031e-06,-7.49367e-06,5.10973e-05,2.23314e-05,-5.74934e-06,6.07616e-06,6.52295e-06,0
-2.86924e-05,1.58456e-06,-5.63704e-06,4.90145e-05,1.87695e-05,-5.1307e-06,7.1632e-06,5.92318e-06,0
-2.89678e-05,-2.52908e-06,-5.01609e-06,3.59192e-05,1.55435e-05,-5.76855e-06,7.5505e-06,5.8054e-06,0
-2.98528e-05,-4.49794e-06,-4.93546e-06,1.67488e-05,1.53635e-05,-5.1817e-06,7.47762e-06,6.86154e-06,0
-3.10205e-05,-2.66491e-06,-3.51203e-06,-3.17072e-06,1.56406e-05,-4.27227e-06,7.34552e-06,7.42227e-06,0
-3.17959e-05,4.85989e-07,-1.37385e-06,-1.82641e-05,1.32367e-05,-4.58579e-06,8.8055e-06,6.5757e-06,0
-3.18246e-05,8.4478e-07,-1.295e-06,-2.51007e-05,9.40848e-06,-4.85257e-06,1.02563e-05,5.94956e-06,0
-3.22652e-05,-1.74793e-06,-2.03876e-06,-2.46799e-05,5.87112e-06,-5.2552e-06,1.04779e-05,5.7427e-06,0
-3.23522e-05,-3.93182e-06,-2.38142e-06,-2.10984e-05,2.88345e-06,-6.27163e-06,1.07835e-05,5.22823e-06,0
-3.25593e-05,-2.77979e-06,-2.45632e-06,-1.74337e-05,1.51742e-06,-7.68966e-06,1.1475e-05,5.36831e-06,0
-3.31844e-05,6.05294e-07,-3.05958e-06,-1.3298e-05,1.99763e-06,-8.40202e-06,1.17517e-05,5.97181e-06,0
-3.40463e-05,4.54077e-06,-3.20663e-06,-8.69208e-06,3.35322e-06,-7.32342e-06,1.16933e-05,5.83031e-06,0
-3.41003e-05,8.27371e-06,-1.83694e-06,-2.56698e-06,5.31147e-06,-5.74372e-06,1.23146e-05,5.38702e-06,0
-3.39103e-05,1.1517e-05,6.57499e-08,6.85855e-06,8.30119e-06,-4.98315e-06,1.26434e-05,6.21725e-06,0
-3.36736e-05,1.31452e-05,8.24782e-07,1.74441e-05,1.22246e-05,-5.48469e-06,1.25771e-05,7.0513e-06,0
-3.38449e-05,1.2802e-05,-9.65803e-07,2.35657e-05,1.41361e-05,-6.49729e-06,1.17656e-05,6.69924e-06,0
-3.45233e-05,1.22781e-05,-4.2972e-06,2.31747e-05,1.23077e-05,-7.04141e-06,1.00633e-05,5.4682e-06,0
-3.45454e-05,1.32506e-05,-7.78536e-06,1.97935e-05,8.86917e-06,-8.13769e-06,8.81875e-06,4.90065e-06,0
-3.4992e-05,1.588e-05,-9.34766e-06,1.80717e-05,7.28325e-06,-9.11188e-06,9.50465e-06,4.82178e-06,0
-3.5173e-05,1.75195e-05,-8.29043e-06,1.84948e-05,7.39418e-06,-8.92729e-06,9.60594e-06,4.66533e-06,0
-3.38365e-05,1.67207e-05,-6.55501e-06,1.6837e-05,6.83241e-06,-9.43709e-06,7.94927e-06,3.83328e-06,0
-3.2462e-05,1.56371e-05,-7.57539e-06,1.16822e-05,7.50852e-06,-8.93111e-06,7.23842e-06,2.09144e-06,0
-3.09769e-05,1.43591e-05,-1.03274e-05,3.47953e-06,9.28304e-06,-8.69963e-06,6.11206e-06,1.10628e-06,0
-3.03737e-05,1.28379e-05,-1.18278e-05,-4.47504e-06,9.46314e-06,-1.12902e-05,3.0484e-06,2.14462e-06,0
-3.18321e-05,1.13453e-05,-1.15614e-05,-1.00824e-05,8.86902e-06,-1.25214e-05,2.72315e-06,3.2379e-06,0
-3.18917e-05,1.04571e-05,-1.12102e-05,-1.65841e-05,7.79138e-06,-1.20511e-05,8.24358e-06,3.25202e-06,0
-3.22056e-05,1.18617e-05,-1.12923e-05,-2.23031e-05,8.20726e-06,-1.20277e-05,1.56952e-05,2.34815e-06,0
-3.43966e-05,1.43351e-05,-1.00963e-05,-2.6586e-05,8.79178e-06,-1.1414e-05,2.10205e-05,9.10143e-07,0
-3.57022e-05,1.79109e-05,-9.02426e-06,-2.92461e-05,9.72433e-06,-1.05891e-05,2.30992e-05,6.70618e-07,0
-3.54043e-05,2.19133e-05,-1.11656e-05,-2.95888e-05,1.09766e-05,-9.78071e-06,2.36188e-05,8.94865e-07,0
-3.4555e-05,2.53753e-05,-1.56707e-05,-2.68425e-05,1.1387e-05,-9.36801e-06,2.38625e-05,6.09322e-07,0
-3.37785e-05,2.77519e-05,-1.91779e-05,-2.12518e-05,1.0919e-05,-9.95683e-06,2.39178e-05,5.40003e-08,0
-3.29467e-05,2.9768e-05,-2.03353e-05,-1.50325e-05,9.95735e-06,-1.19966e-05,2.34865e-05,-4.50625e-07,0
-3.24794e-05,3.04283e-05,-1.93182e-05,-8.40176e-06,9.90364e-06,-1.33807e-05,2.16036e-05,2.36016e-07,0
-3.22433e-05,2.94677e-05,-1.73745e-05,-2.21596e-06,9.66734e-06,-1.28618e-05,1.85146e-05,2.23988e-06,0
-3.16333e-05,2.92679e-05,-1.42323e-05,2.72224e-06,1.04968e-05,-1.2356e-05,1.61508e-05,4.59419e-06,0
-3.13284e-05,2.98541e-05,-9.56069e-06,4.64439e-06,1.18141e-05,-1.23221e-05,1.5624e-05,6.85885e-06,0
-3.23024e-05,3.00674e-05,-5.40168e-06,2.69262e-06,1.2363e-05,-1.2288e-05,1.66771e-05,8.57066e-06,0
-3.30302e-05,2.92482e-05,-1.36377e-06,-1.85214e-06,1.17662e-05,-1.23883e-05,1.74371e-05,8.70827e-06,0
-3.20708e-05,2.8044e-05,5.93746e-06,-6.36546e-06,1.1673e-05,-1.31646e-05,1.5684e-05,7.91494e-06,0
-3.14339e-05,2.69461e-05,1.82278e-05,-9.43297e-06,1.26115e-05,-1.40578e-05,1.27506e-05,8.05288e-06,0
-3.22799e-05,2.71889e-05,3.3087e-05,-1.07601e-05,1.4133e-05,-1.38405e-05,1.20492e-05,8.60355e-06,0
-3.19221e-05,2.92945e-05,4.66176e-05,-9.65948e-06,1.59429e-05,-1.21675e-05,1.39418e-05,8.61637e-06,0
-2.97786e-05,3.29393e-05,5.2772e-05,-6.17434e-06,1.74633e-05,-1.14845e-05,1.55423e-05,7.19591e-06,0
-2.91091e-05,3.65777e-05,4.31327e-05,-2.39789e-06,1.74347e-05,-1.23161e-05,1.70484e-05,4.68462e-06,0
-3.00452e-05,3.85239e-05,1.60075e-05,-6.02063e-08,1.62824e-05,-1.1768e-05,1.85094e-05,2.40032e-06,0
-3.04847e-05,3.90482e-05,-2.26351e-05,-1.35336e-06,1.5074e-05,-1.00489e-05,1.81352e-05,1.51743e-06,0
-3.0073e-05,3.94221e-05,-6.06078e-05,-8.7302e-06,1.42172e-05,-9.28711e-06,1.54299e-05,1.78099e-06,0
-2.91301e-05,3.88734e-05,-8.68595e-05,-1.96047e-05,1.44559e-05,-8.89468e-06,1.21695e-05,3.38416e-06,0
-2.78686e-05,3.71827e-05,-9.84148e-05,-2.64157e-05,1.59231e-05,-8.34404e-06,1.14388e-05,4.89618e-06,0
-2.7031e-05,3.55436e-05,-9.30115e-05,-2.61133e-05,1.63025e-05,-8.13558e-06,1.19584e-05,3.53286e-06,0
-2.84309e-05,3.37149e-05,-7.54884e-05,-2.24684e-05,1.31495e-05,-9.17341e-06,5.29461e-06,3.09812e-06,0
-3.03047e-05,3.28961e-05,-5.79729e-05,-2.20579e-05,1.04289e-05,-1.14476e-05,-1.1709e-05,3.18657e-06,0
-3.10266e-05,3.2509e-05,-4.50953e-05,-2.42848e-05,1.08327e-05,-1.404e-05,-2.78495e-05,3.18524e-07,0
-3.13875e-05,3.00807e-05,-3.51079e-05,-2.19931e-05,1.28711e-05,-1.55881e-05,-3.11417e-05,-1.34764e-06,0
-3.02964e-05,2.71527e-05,-2.62519e-05,-1.11629e-05,1.24005e-05,-1.68283e-05,-2.19563e-05,-6.02903e-07,0
-2.94028e-05,2.50497e-05,-1.7713e-05,7.04941e-06,1.06959e-05,-1.73721e-05,-8.40034e-06,-4.21454e-07,0
-3.11663e-05,2.4118e-05,-1.12588e-05,2.67192e-05,1.01514e-05,-1.69264e-05,4.37225e-06,-9.29142e-07,0
-3.34078e-05,2.21622e-05,-6.89822e-06,3.90712e-05,1.07923e-05,-1.56393e-05,1.57894e-05,-9.78909e-07,0
-3.36274e-05,1.9521e-05,-3.45867e-06,3.78875e-05,1.13776e-05,-1.32821e-05,2.43871e-05,-1.10802e-06,0
-3.29003e-05,1.81499e-05,-1.71259e-06,2.85615e-05,1.03982e-05,-1.17199e-05,2.85736e-05,-1.09404e-06,0
-3.21834e-05,1.88357e-05,-1.75793e-06,1.68815e-05,7.74961e-06,-1.07319e-05,3.08921e-05,-1.07343e-06,0
-3.08715e-05,2.01598e-05,-2.67561e-06,6.94443e-06,4.33241e-06,-9.65909e-06,3.24693e-05,-1.89808e-06,0
-2.99333e-05,1.85485e-05,-2.31573e-06,5.7765e-07,2.58512e-06,-7.50697e-06,3.16138e-05,-3.40707e-06,0
-3.08441e-05,1.36137e-05,-9.40044e-07,-3.75971e-06,3.42716e-06,-5.57195e-06,2.69845e-05,-4.79043e-06,0
-3.26913e-05,7.45407e-06,2.42183e-07,-7.76492e-06,6.21782e-06,-4.69091e-06,2.10422e-05,-5.15548e-06,0
-3.40019e-05,2.35651e-06,1.18064e-07,-1.11434e-05,8.82412e-06,-3.9367e-06,1.72273e-05,-3.86792e-06,0
-3.34958e-05,-3.02463e-06,-1.05033e-06,-1.13315e-05,1.01384e-05,-2.47327e-06,1.63193e-05,-2.2252e-06,0
-3.15649e-05,-7.85358e-06,-2.30353e-06,-8.98779e-06,9.85399e-06,-1.75964e-06,1.81163e-05,-3.15085e-06,0
-3.07974e-05,-1.07483e-05,-4.21013e-06,-8.22646e-06,9.46448e-06,-3.76254e-06,2.14969e-05,-5.6356e-06,0
-3.13619e-05,-1.27481e-05,-6.15224e-06,-1.20578e-05,9.32379e-06,-6.17047e-06,2.38688e-05,-6.81173e-06,0
-3.03237e-05,-1.58272e-05,-6.50916e-06,-1.69972e-05,1.05245e-05,-5.6782e-06,2.36103e-05,-6.29057e-06,0
-2.83572e-05,-1.73113e-05,-6.00343e-06,-1.86475e-05,1.3347e-05,-3.54136e-06,2.25471e-05,-5.61143e-06,0
-2.80536e-05,-1.27617e-05,-6.61077e-06,-1.90645e-05,1.58776e-05,-2.43207e-06,2.12604e-05,-5.49624e-06,0
-2.95e-05,-3.70834e-06,-7.0432e-06,-2.0176e-05,1.69566e-05,-2.8449e-06,1.92361e-05,-5.67628e-06,0
-3.1065e-05,2.45213e-06,-6.16575e-06,-1.89299e-05,1.53156e-05,-4.35437e-06,1.74125e-05,-4.98932e-06,0
-3.10494e-05,9.5843e-07,-4.9824e-06,-1.49734e-05,1.35447e-05,-5.76443e-06,1.65055e-05,-4.35715e-06,0
-3.11782e-05,-5.94829e-06,-4.5156e-06,-1.33454e-05,1.37615e-05,-7.15244e-06,1.52186e-05,-3.97635e-06,0
-3.18876e-05,-1.185e-05,-4.80602e-06,-1.33131e-05,1.52854e-05,-8.65212e-06,1.35046e-05,-3.7848e-06,0
-3.13993e-05,-1.55679e-05,-4.65375e-06,-1.03663e-05,1.97826e-05,-8.86468e-06,1.08757e-05,-3.19229e-06,0
-2.9729e-05,-1.82505e-05,-3.76939e-06,-7.46763e-06,2.55735e-05,-7.35371e-06,6.8677e-06,-1.29679e-06,0
-2.91002e-05,-1.85068e-05,-3.14406e-06,-4.22653e-06,2.87453e-05,-5.55017e-06,5.01752e-06,9.07165e-07,0
-2.9059e-05,-1.96285e-05,-1.84284e-06,1.15946e-06,2.82306e-05,-5.27622e-06,6.42161e-06,2.6842e-06,0
-2.98219e-05,-2.34871e-05,1.07846e-06,7.2127e-06,2.66764e-05,-6.85425e-06,7.94543e-06,4.52169e-06,0
-3.08773e-05,-2.74716e-05,3.04852e-06,8.98187e-06,2.58955e-05,-7.31087e-06,6.46451e-06,6.18422e-06,0
-3.1447e-05,-2.73439e-05,2.30753e-06,4.94378e-06,2.50106e-05,-6.89732e-06,5.34613e-06,6.0262e-06,0
-3.14581e-05,-2.24694e-05,7.05277e-07,-4.16945e-07,2.31182e-05,-7.69701e-06,8.84013e-06,5.21893e-06,0
-2.97398e-05,-1.40978e-05,-3.38673e-07,-3.47003e-06,2.15123e-05,-8.64242e-06,1.39015e-05,4.1604e-06,0
-2.81381e-05,-4.20863e-06,-2.11084e-06,-4.236e-06,2.19726e-05,-8.74476e-06,1.76679e-05,4.02814e-06,0
-2.74679e-05,3.71456e-06,-4.64249e-06,-4.47495e-06,2.31859e-05,-9.19819e-06,2.01402e-05,4.26754e-06,0
-2.82395e-05,7.34479e-06,-4.89722e-06,-3.04076e-06,2.46789e-05,-1.03801e-05,2.13029e-05,4.28364e-06,0
-2.91173e-05,7.89677e-06,-2.35926e-06,1.45571e-06,2.55641e-05,-1.17585e-05,2.13303e-05,2.76603e-06,0
-2.92791e-05,8.88503e-06,7.98593e-07,9.08465e-06,2.50643e-05,-1.37855e-05,2.00789e-05,-6.06033e-07,0
-2.90466e-05,1.18278e-05,2.37267e-06,1.86887e-05,2.40355e-05,-1.57465e-05,1.5947e-05,-2.67563e-06,0
-2.9617e-05,1.47011e-05,2.20856e-06,2.6309e-05,2.36999e-05,-1.76227e-05,1.06797e-05,-3.10099e-06,0
-3.13577e-05,1.5475e-05,1.14168e-06,2.52749e-05,2.28533e-05,-1.88608e-05,7.56479e-06,-2.8692e-06,0
-3.22993e-05,1.45795e-05,3.41796e-07,1.60778e-05,2.17791e-05,-1.80791e-05,5.43777e-06,-2.88201e-06,0
-3.17878e-05,1.39626e-05,8.70036e-07,5.67789e-06,2.08972e-05,-1.55641e-05,2.27692e-06,-3.21746e-06,0
-3.0872e-05,1.44046e-05,1.55731e-06,1.16695e-06,1.96261e-05,-1.3599e-05,1.47372e-06,-4.03249e-06,0
-2.95141e-05,1.51219e-05,1.89215e-06,9.5605e-07,1.73584e-05,-1.49216e-05,6.07802e-06,-3.7059e-06,0
-2.81363e-05,1.48757e-05,2.55777e-06,-1.28636e-06,1.43795e-05,-1.69137e-05,1.15806e-05,-1.47382e-06,0
-2.82806e-05,1.28236e-05,3.48342e-06,-9.78881e-06,1.31626e-05,-1.58217e-05,1.26793e-05,1.13222e-06,0
-2.87285e-05,1.04645e-05,2.51763e-06,-2.19203e-05,1.21467e-05,-1.43973e-05,1.05824e-05,1.95627e-06,0
-2.73204e-05,9.64934e-06,-2.69365e-07,-2.96104e-05,1.00941e-05,-1.3505e-05,8.75703e-06,1.76327e-06,0
-2.46753e-05,1.15106e-05,-2.54144e-06,-3.11827e-05,9.22045e-06,-1.13577e-05,6.56376e-06,2.8281e-06,0
-2.29022e-05,1.40662e-05,-4.15144e-06,-3.34476e-05,1.11641e-05,-9.28133e-06,2.59104e-06,4.27822e-06,0
-2.18553e-05,1.45459e-05,-5.52473e-06,-3.79617e-05,1.36124e-05,-7.53717e-06,-1.99806e-06,5.34965e-06,0
-2.12535e-05,1.35345e-05,-6.09971e-06,-3.76309e-05,1.34883e-05,-6.90503e-06,-3.63373e-06,4.88689e-06,0
-2.28065e-05,1.18715e-05,-4.75567e-06,-3.3531e-05,1.13888e-05,-8.03151e-06,-2.276e-06,3.50087e-06,0
-2.52788e-05,1.05846e-05,-3.65181e-06,-2.96851e-05,8.92852e-06,-1.01598e-05,6.60017e-07,3.18481e-06,0
-2.57298e-05,1.05429e-05,-3.77793e-06,-2.66097e-05,8.97862e-06,-1.10035e-05,3.54831e-06,2.58475e-06,0
-2.56814e-05,1.02747e-05,-4.70207e-06,-2.29927e-05,1.0469e-05,-9.9659e-06,4.08401e-06,1.54047e-06,0
-2.49551e-05,1.014e-05,-6.47099e-06,-1.91105e-05,1.03234e-05,-8.75248e-06,4.83397e-06,5.37043e-07,0
-2.47987e-05,1.04398e-05,-8.84298e-06,-1.41238e-05,1.00712e-05,-7.84044e-06,8.28999e-06,-9.03345e-07,0
-2.72784e-05,1.05557e-05,-1.18711e-05,-7.65094e-06,1.09769e-05,-7.08412e-06,1.21705e-05,-6.35201e-07,0
-2.98816e-05,1.1049e-05,-1.49003e-05,-3.27672e-06,1.24467e-05,-6.36678e-06,1.47445e-05,1.75253e-06,0
-2.97343e-05,1.41143e-05,-1.73291e-05,-3.10774e-06,1.38156e-05,-6.65702e-06,1.65211e-05,3.23669e-06,0
-2.76625e-05,2.01997e-05,-1.58639e-05,-5.32108e-06,1.40708e-05,-7.38599e-06,1.68701e-05,3.30699e-06,0
-2.69735e-05,2.38573e-05,-1.13531e-05,-8.7274e-06,1.24479e-05,-7.79255e-06,1.62053e-05,3.18216e-06,0
-2.84075e-05,2.20183e-05,-7.74064e-06,-1.28158e-05,1.07422e-05,-8.59917e-06,1.69219e-05,2.80288e-06,0
-3.00853e-05,1.8566e-05,-6.71391e-06,-1.40088e-05,1.10372e-05,-1.04783e-05,1.95474e-05,1.41391e-06,0
-3.05015e-05,1.79425e-05,-7.604e-06,-1.07294e-05,1.39509e-05,-1.15008e-05,2.14591e-05,-2.6459e-07,0
-3.04243e-05,2.00182e-05,-1.00659e-05,-6.28734e-06,1.74583e-05,-1.02592e-05,2.21333e-05,-5.33161e-07,0
-2.98717e-05,2.20058e-05,-1.37374e-05,-5.79349e-06,1.88616e-05,-7.48714e-06,2.27571e-05,5.76072e-07,0
-3.0275e-05,2.20942e-05,-1.65881e-05,-8.06887e-06,1.88393e-05,-5.03209e-06,2.36038e-05,1.16471e-06,0
-3.26575e-05,2.08389e-05,-1.71901e-05,-1.27976e-05,1.8243e-05,-4.31866e-06,2.48482e-05,2.40794e-07,0
-3.37167e-05,1.93986e-05,-1.61557e-05,-2.27946e-05,1.60879e-05,-4.19095e-06,2.48148e-05,-9.05793e-07,0
-3.31849e-05,2.04723e-05,-1.47433e-05,-3.41324e-05,1.19872e-05,-4.03187e-06,2.23612e-05,-6.26029e-07,0
-3.38173e-05,2.45853e-05,-1.43376e-05,-3.86226e-05,7.79015e-06,-5.38283e-06,1.98114e-05,2.32548e-06,0
-3.50184e-05,2.62436e-05,-1.65955e-05,-3.2055e-05,6.75985e-06,-7.30446e-06,1.7569e-05,6.09724e-06,0
-3.54061e-05,2.40645e-05,-2.06553e-05,-1.67954e-05,8.34984e-06,-7.86195e-06,1.36441e-05,6.4723e-06,0
-3.51594e-05,2.14043e-05,-2.40487e-05,-4.22686e-06,9.91101e-06,-7.6465e-06,8.83398e-06,6.13123e-06,0
-3.57906e-05,2.03732e-05,-2.55952e-05,7.60067e-06,9.64242e-06,-8.50454e-06,6.13606e-06,6.31374e-06,0
-3.64916e-05,2.18022e-05,-2.58188e-05,2.79791e-05,8.2795e-06,-1.0566e-05,4.86637e-06,5.00659e-06,0
-3.50573e-05,2.30823e-05,-2.48939e-05,5.11327e-05,8.14215e-06,-1.15539e-05,3.94387e-06,4.17624e-06,0
-3.34529e-05,2.32378e-05,-2.2301e-05,6.81179e-05,8.26504e-06,-1.07758e-05,4.00239e-06,3.98818e-06,0
-3.26117e-05,2.53764e-05,-1.71554e-05,7.14879e-05,8.8318e-06,-8.60323e-06,5.72056e-06,5.13895e-06,0
-3.15534e-05,3.0194e-05,-1.20077e-05,6.66879e-05,1.0341e-05,-7.21508e-06,9.24692e-06,6.79431e-06,0
-3.03253e-05,3.4504e-05,-9.53733e-06,6.71734e-05,1.10372e-05,-6.30237e-06,1.12342e-05,8.2096e-06,0
-2.93091e-05,3.70788e-05,-9.7266e-06,7.69757e-05,9.32818e-06,-6.63937e-06,1.08339e-05,7.83368e-06,0
-2.77355e-05,3.64024e-05,-9.99457e-06,8.37263e-05,6.32504e-06,-8.95359e-06,9.69108e-06,5.43045e-06,0
-2.69655e-05,3.16711e-05,-9.07259e-06,7.72703e-05,4.63335e-06,-1.03857e-05,9.06454e-06,3.35602e-06,0
-2.83173e-05,2.34082e-05,-7.31741e-06,5.75882e-05,4.03556e-06,-1.02914e-05,8.67231e-06,2.3847e-06,0
-2.94785e-05,1.26548e-05,-5.91393e-06,3.13257e-05,4.28792e-06,-9.60004e-06,8.31399e-06,8.78315e-07,0
-3.01309e-05,2.934e-06,-5.03782e-06,4.90563e-06,5.38388e-06,-8.86247e-06,8.36778e-06,3.48097e-07,0
-3.11558e-05,-3.22961e-06,-3.77754e-06,-2.1402e-05,5.75754e-06,-9.19921e-06,9.20756e-06,1.9401e-06,0
-3.24926e-05,-5.23252e-06,-2.84117e-06,-4.79029e-05,5.16116e-06,-1.21441e-05,1.11375e-05,2.40357e-06,0
-3.34987e-05,-3.96066e-06,-1.78724e-06,-7.34156e-05,6.096e-06,-1.54317e-05,1.29819e-05,2.2576e-06,0
-3.35992e-05,-6.28525e-07,5.74544e-08,-9.06007e-05,8.7546e-06,-1.6557e-05,1.32665e-05,2.58738e-06,0
-3.23644e-05,3.34174e-06,2.25315e-06,-9.09739e-05,1.02137e-05,-1.51699e-05,1.15642e-05,3.23418e-06,0
-3.09069e-05,8.48267e-06,3.27317e-06,-7.64446e-05,1.04739e-05,-1.30764e-05,9.61676e-06,2.5856e-06,0
-3.07811e-05,1.3746e-05,2.94249e-06,-5.81166e-05,1.09137e-05,-1.17268e-05,8.45528e-06,4.02317e-07,0
-3.19715e-05,1.92259e-05,1.42372e-06,-4.32536e-05,9.97032e-06,-1.03516e-05,9.59489e-06,-1.97136e-06,0
-3.2407e-05,2.46819e-05,-2.30691e-07,-3.8271e-05,7.89537e-06,-8.3757e-06,1.56433e-05,-3.54212e-06,0
-3.19456e-05,2.74821e-05,-2.41627e-06,-4.02618e-05,7.2043e-06,-6.73059e-06,2.81438e-05,-4.58508e-06,0
-3.23134e-05,2.67448e-05,-4.50111e-06,-4.16272e-05,6.75902e-06,-6.04967e-06,4.3594e-05,-5.52581e-06,0
-3.24597e-05,2.38125e-05,-5.15548e-06,-3.30155e-05,4.59383e-06,-5.58923e-06,5.38385e-05,-5.10591e-06,0
-3.11147e-05,2.14683e-05,-3.59972e-06,-1.08906e-05,1.96772e-06,-6.04589e-06,5.68732e-05,-1.94718e-06,0
-3.08294e-05,1.97465e-05,3.19211e-08,5.3783e-06,1.47755e-06,-6.73555e-06,5.27148e-05,-4.96706e-07,0
-3.18554e-05,1.81781e-05,1.63974e-06,7.80167e-06,3.58076e-06,-7.06167e-06,3.68563e-05,-9.68704e-07,0
-3.27139e-05,1.76498e-05,5.27612e-07,4.92149e-06,7.4017e-06,-6.93656e-06,1.43651e-05,-1.21193e-06,0
-3.3447e-05,1.81076e-05,-6.51028e-07,3.23203e-06,1.12476e-05,-4.2688e-06,-5.66774e-07,-1.67138e-06,0
-3.42165e-05,1.87918e-05,-2.96303e-06,4.34388e-06,1.49124e-05,-1.55088e-06,-6.88502e-06,-1.61268e-06,0
-3.50184e-05,1.94125e-05,-7.16435e-06,-3.18098e-07,1.6854e-05,-1.85333e-06,-1.02438e-05,-2.17443e-06,0
-3.34894e-05,1.86574e-05,-1.19341e-05,-8.99577e-06,1.65641e-05,-3.96803e-06,-8.26656e-06,-2.53192e-06,0
-3.09345e-05,1.53338e-05,-1.62675e-05,-1.43671e-05,1.47369e-05,-5.14197e-06,-1.25135e-07,-2.2527e-06,0
-2.88956e-05,1.17422e-05,-1.91017e-05,-1.83808e-05,1.18213e-05,-4.97021e-06,8.89124e-06,-3.92896e-07,0
-2.84536e-05,1.02146e-05,-2.04707e-05,-2.50854e-05,1.02266e-05,-6.61805e-06,1.12757e-05,1.03751e-06,0
-2.81479e-05,1.14512e-05,-1.95441e-05,-3.26444e-05,1.09385e-05,-9.82179e-06,6.73998e-06,1.83088e-06,0
-2.71245e-05,1.43271e-05,-1.77941e-05,-3.47895e-05,1.31152e-05,-1.14123e-05,1.05348e-06,2.5881e-06,0
-2.58546e-05,1.74767e-05,-1.63009e-05,-2.76505e-05,1.52268e-05,-1.04923e-05,-2.36203e-06,2.34904e-06,0
-2.52769e-05,2.08019e-05,-1.57343e-05,-1.6166e-05,1.73378e-05,-9.06285e-06,-4.94476e-06,3.85907e-07,0
-2.68661e-05,2.28473e-05,-1.5467e-05,-8.76082e-06,1.84847e-05,-9.50344e-06,-8.24575e-06,-1.49729e-06,0
-2.90541e-05,2.31286e-05,-1.38592e-05,-6.05767e-06,1.85435e-05,-1.15112e-05,-8.7317e-06,-8.45071e-07,0
-3.06299e-05,2.207e-05,-1.21444e-05,-4.3019e-06,1.83974e-05,-1.28281e-05,-2.64964e-06,-1.07923e-07,0
-3.05398e-05,1.92964e-05,-1.16765e-05,-1.13647e-06,1.93352e-05,-1.22138e-05,7.89777e-06,-1.52459e-06,0
-3.05277e-05,1.48172e-05,-1.15196e-05,1.6024e-06,2.17891e-05,-1.05336e-05,1.62514e-05,-2.8403e-06,0
-3.13228e-05,1.22121e-05,-9.04861e-06,4.04073e-06,2.36249e-05,-1.02886e-05,1.97024e-05,-9.79928e-07,0
-3.24536e-05,1.27642e-05,-5.06793e-06,6.19423e-06,2.22668e-05,-1.19307e-05,2.0367e-05,2.31765e-06,0
-3.23214e-05,1.37354e-05,-1.36781e-06,6.29661e-06,1.89935e-05,-1.2798e-05,2.08138e-05,4.27717e-06,0
-3.05412e-05,1.342e-05,7.63568e-07,4.33391e-06,1.59615e-05,-1.19414e-05,2.193e-05,2.96971e-06,0
-3.01402e-05,1.29807e-05,5.61792e-08,6.26961e-06,1.41004e-05,-1.13428e-05,2.2802e-05,1.10029e-06,0
-3.22193e-05,1.17481e-05,-2.00813e-06,1.31087e-05,1.49224e-05,-1.21188e-05,2.38079e-05,2.21861e-06,0
-3.37305e-05,8.77226e-06,-3.51131e-06,1.5929e-05,1.58485e-05,-1.26581e-05,2.44541e-05,5.28187e-06,0
-3.26499e-05,7.15104e-06,-4.38265e-06,1.01704e-05,1.32655e-05,-1.1989e-05,2.26105e-05,7.11935e-06,0
-3.04809e-05,6.58035e-06,-3.16951e-06,1.88763e-06,1.02393e-05,-1.17249e-05,1.97193e-05,8.21269e-06,0
-2.89346e-05,6.27622e-06,-2.65083e-06,-4.50116e-06,1.04109e-05,-1.25369e-05,1.75639e-05,7.487e-06,0
-2.81429e-05,5.94669e-06,-4.71743e-06,-9.68024e-06,1.16424e-05,-1.2492e-05,1.62364e-05,5.45785e-06,0
-2.88256e-05,6.31204e-06,-5.91806e-06,-1.16009e-05,1.33867e-05,-1.21214e-05,1.53996e-05,4.85165e-06,0
-3.01211e-05,7.64412e-06,-6.24442e-06,-9.78367e-06,1.57456e-05,-1.31306e-05,1.57105e-05,4.76355e-06,0
-3.03735e-05,7.89409e-06,-6.42179e-06,-7.12847e-06,1.69788e-05,-1.44169e-05,1.67616e-05,6.19431e-06,0
-2.99825e-05,6.54864e-06,-4.22085e-06,-2.06013e-06,1.74944e-05,-1.42074e-05,1.66397e-05,8.00518e-06,0
-2.92769e-05,5.89687e-06,-6.37278e-07,5.56241e-06,1.86252e-05,-1.26907e-05,1.51572e-05,7.99946e-06,0
-2.84044e-05,5.65794e-06,-7.6628e-07,8.40286e-06,2.08859e-05,-1.25546e-05,1.44804e-05,5.48671e-06,0
-2.79883e-05,4.16746e-06,-4.79617e-06,4.14978e-06,2.30256e-05,-1.28514e-05,1.55967e-05,2.73794e-06,0
-2.87277e-05,3.30037e-06,-8.07058e-06,-1.35341e-06,2.18373e-05,-1.22619e-05,1.70208e-05,2.67531e-06,0
-2.94912e-05,3.77493e-06,-8.88342e-06,-2.74771e-06,1.86837e-05,-1.11325e-05,1.77921e-05,4.21438e-06,0
-2.9818e-05,5.32766e-06,-9.75724e-06,-1.01784e-06,1.711e-05,-9.0686e-06,1.73771e-05,4.53597e-06,0
-2.9772e-05,6.01685e-06,-1.20603e-05,-1.01513e-06,1.8844e-05,-5.47304e-06,1.47411e-05,3.87859e-06,0
-2.96888e-05,5.21998e-06,-1.3644e-05,-4.24247e-06,2.24577e-05,-1.91685e-06,1.03219e-05,3.54014e-06,0
-2.95133e-05,4.53408e-06,-1.22644e-05,-8.01124e-06,2.42728e-05,3.19526e-08,7.52217e-06,2.17688e-06,0
-2.98168e-05,4.6284e-06,-9.2159e-06,-1.20428e-05,2.22579e-05,-1.07497e-07,7.77433e-06,-1.78158e-07,0
-2.99486e-05,4.89931e-06,-6.94609e-06,-1.62651e-05,1.75288e-05,-2.83594e-06,9.37615e-06,-1.53857e-06,0
-2.86625e-05,5.23379e-06,-7.32471e-06,-1.76125e-05,1.34637e-05,-5.86787e-06,9.71272e-06,-1.44941e-06,0
-2.65385e-05,6.48164e-06,-1.00912e-05,-1.4466e-05,1.20173e-05,-7.54673e-06,7.9775e-06,-1.58338e-06,0
-2.51564e-05,9.86127e-06,-1.30155e-05,-1.09071e-05,1.30668e-05,-7.52288e-06,5.07023e-06,-2.32305e-06,0
-2.51231e-05,1.51847e-05,-1.44906e-05,-8.12814e-06,1.43706e-05,-6.49092e-06,3.35175e-06,-3.06397e-06,0
-2.54653e-05,1.96857e-05,-1.46305e-05,-3.08974e-06,1.45707e-05,-5.23434e-06,4.29957e-06,-3.72185e-06,0
-2.4857e-05,2.27353e-05,-1.28918e-05,4.25864e-06,1.49542e-05,-4.10562e-06,7.32402e-06,-3.12225e-06,0
-2.42176e-05,2.33927e-05,-1.04715e-05,1.16625e-05,1.50841e-05,-4.55097e-06,1.03828e-05,-2.55449e-06,0
-2.44306e-05,1.95699e-05,-8.26816e-06,1.57041e-05,1.49726e-05,-6.45406e-06,1.0731e-05,-3.67933e-06,0
-2.427e-05,1.49218e-05,-3.76371e-06,1.32457e-05,1.60297e-05,-6.76375e-06,9.76584e-06,-4.82654e-06,0
-2.54382e-05,1.27693e-05,2.80749e-06,7.58457e-06,1.60547e-05,-7.06275e-06,9.57701e-06,-5.03364e-06,0
-2.58341e-05,1.0488e-05,1.39345e-05,4.62509e-06,1.47211e-05,-7.58158e-06,9.31455e-06,-3.63783e-06,0
-2.53106e-05,7.81283e-06,3.16449e-05,5.30863e-06,1.34694e-05,-6.16599e-06,8.94519e-06,1.52862e-06,0
-2.54122e-05,6.37904e-06,5.16524e-05,9.0229e-06,1.32156e-05,-4.49739e-06,8.89442e-06,6.79966e-06,0
-2.65154e-05,3.41461e-06,6.77986e-05,1.16649e-05,1.44138e-05,-4.39172e-06,8.56204e-06,7.66702e-06,0
-2.72889e-05,-2.14592e-06,7.34927e-05,9.26792e-06,1.55794e-05,-5.65147e-06,7.92479e-06,7.17076e-06,0
-2.6044e-05,-6.66615e-06,6.24098e-05,6.54813e-06,1.57597e-05,-6.28519e-06,8.00663e-06,7.47001e-06,0
-2.51478e-05,-3.60404e-06,3.28985e-05,5.91714e-06,1.49201e-05,-5.38851e-06,9.23334e-06,8.32524e-06,0
-2.45065e-05,9.82494e-06,-8.02225e-06,5.18146e-06,1.40108e-05,-3.83291e-06,1.08596e-05,8.66824e-06,0
-2.42913e-05,2.67491e-05,-4.89986e-05,3.42754e-06,1.42269e-05,-2.21039e-06,1.17821e-05,7.83934e-06,0
-2.42102e-05,3.98446e-05,-7.99076e-05,1.52229e-06,1.38605e-05,-1.16997e-06,1.18219e-05,7.373e-06,0
-2.53623e-05,4.60549e-05,-9.38775e-05,3.27716e-06,1.25595e-05,-1.76157e-06,1.2746e-05,6.64896e-06,0
-2.7058e-05,4.25828e-05,-8.94852e-05,6.87617e-06,1.23369e-05,-3.12115e-06,1.46322e-05,3.69426e-06,0
-2.91856e-05,2.75438e-05,-7.41599e-05,7.4997e-06,1.3643e-05,-3.27492e-06,1.57303e-05,4.35536e-07,0
-3.14389e-05,6.82056e-06,-5.88495e-05,3.88758e-06,1.46078e-05,-3.39888e-06,1.58243e-05,-7.08265e-07,0
-3.18164e-05,-1.19156e-05,-4.89009e-05,-5.25627e-07,1.42588e-05,-4.59282e-06,1.5011e-05,3.02312e-08,0
-3.05796e-05,-2.61597e-05,-4.22828e-05,-2.18643e-06,1.39628e-05,-5.09695e-06,1.33875e-05,9.10583e-07,0
-2.90155e-05,-3.49443e-05,-3.45957e-05,-1.84613e-06,1.46662e-05,-5.07915e-06,1.251e-05,1.38506e-07,0
-2.88096e-05,-3.75035e-05,-2.48076e-05,-1.77124e-06,1.51221e-05,-6.27148e-06,1.34097e-05,-8.3829e-07,0
-3.02877e-05,-3.48249e-05,-1.59879e-05,-2.02348e-06,1.41465e-05,-9.30817e-06,1.48387e-05,2.92562e-08,0
-3.22244e-05,-2.7681e-05,-1.03425e-05,-9.80419e-07,1.28678e-05,-1.20114e-05,1.52836e-05,8.16898e-07,0
-3.32155e-05,-1.91334e-05,-6.54695e-06,2.1894e-06,1.16242e-05,-1.34147e-05,1.44493e-05,3.83437e-07,0
-3.35507e-05,-1.25953e-05,-4.53686e-06,6.27097e-06,9.81834e-06,-1.55193e-05,1.30519e-05,-4.39997e-07,0
-3.20022e-05,-6.71855e-06,-4.5387e-06,8.8885e-06,7.28709e-06,-1.80316e-05,1.28514e-05,-1.93957e-06,0
-2.93228e-05,-1.23572e-06,-4.73654e-06,8.70799e-06,6.10092e-06,-1.73869e-05,1.33227e-05,-2.77056e-06,0
-2.8957e-05,4.09075e-06,-5.41086e-06,3.98258e-06,6.44603e-06,-1.43796e-05,1.36588e-05,-1.72824e-06,0
-3.14521e-05,9.69882e-06,-5.37243e-06,-2.77788e-06,7.85222e-06,-1.2915e-05,1.3435e-05,-6.5347e-07,0
-3.24733e-05,1.1993e-05,-3.48671e-06,-7.77671e-06,8.35727e-06,-1.3984e-05,1.3914e-05,-2.39322e-06,0
-3.10396e-05,1.23036e-05,-1.6324e-06,-1.16115e-05,7.85703e-06,-1.49518e-05,1.61512e-05,-4.53713e-06,0
-2.94886e-05,1.40998e-05,-5.14382e-07,-1.86857e-05,7.45322e-06,-1.39094e-05,1.72683e-05,-5.79064e-06,0
-2.92569e-05,1.66042e-05,-1.58413e-06,-2.75133e-05,6.98685e-06,-1.25579e-05,1.6789e-05,-4.51585e-06,0
-3.14498e-05,1.89155e-05,-4.61627e-06,-2.97408e-05,8.2349e-06,-1.08691e-05,1.63345e-05,9.87181e-08,0
-3.45107e-05,1.94998e-05,-5.88272e-06,-2.45594e-05,1.06275e-05,-9.1443e-06,1.76979e-05,2.52684e-06,0
-3.56885e-05,1.93609e-05,-4.78131e-06,-1.63276e-05,1.19204e-05,-9.63482e-06,1.82813e-05,1.72366e-06,0
-3.49435e-05,1.94793e-05,-4.06092e-06,-1.10961e-05,1.06814e-05,-1.09141e-05,1.65952e-05,-6.8727e-08,0
-3.34663e-05,2.10431e-05,-3.41161e-06,-1.02991e-05,7.85687e-06,-1.14011e-05,1.50186e-05,1.34768e-06,0
-3.25162e-05,2.32463e-05,-2.10681e-06,-1.03944e-05,5.76764e-06,-1.10981e-05,1.51928e-05,4.08748e-06,0
-3.33948e-05,2.3533e-05,-1.1957e-06,-1.10547e-05,6.31922e-06,-1.04446e-05,1.55827e-05,3.7744e-06,0
-3.51683e-05,2.17376e-05,-5.98728e-07,-1.37475e-05,7.03812e-06,-1.0743e-05,1.47685e-05,1.84991e-06,0
-3.60217e-05,2.03554e-05,1.21444e-08,-1.57361e-05,7.97138e-06,-1.12691e-05,1.43111e-05,1.05342e-06,0
-3.58499e-05,1.97364e-05,3.63706e-07,-1.44561e-05,1.0068e-05,-1.14569e-05,1.46231e-05,1.72789e-06,0
-3.55787e-05,1.94693e-05,-1.77647e-07,-1.15299e-05,1.13091e-05,-1.1618e-05,1.54043e-05,3.06291e-06,0
-3.45345e-05,2.03107e-05,-5.98234e-07,-5.87298e-06,1.08495e-05,-1.24269e-05,1.45885e-05,4.30317e-06,0
-3.28128e-05,2.12312e-05,7.98839e-07,3.86099e-06,1.05818e-05,-1.27338e-05,1.15895e-05,4.05868e-06,0
-3.19263e-05,2.10297e-05,3.19819e-06,1.45241e-05,1.29851e-05,-1.19164e-05,7.0566e-06,2.45004e-06,0
-3.25816e-05,1.95197e-05,2.57757e-06,1.99616e-05,1.63015e-05,-1.07481e-05,7.17507e-07,2.72381e-07,0
-3.43747e-05,1.74749e-05,-3.62492e-06,1.7814e-05,1.77628e-05,-1.01339e-05,-5.93411e-06,-9.73891e-07,0
-3.55083e-05,1.48076e-05,-1.29268e-05,1.05917e-05,1.63764e-05,-1.13447e-05,-8.51753e-06,-1.47952e-06,0
-3.44612e-05,1.33845e-05,-1.94761e-05,2.70703e-06,1.43578e-05,-1.39358e-05,-5.76176e-06,-5.90552e-07,0
-3.3593e-05,1.3559e-05,-1.94989e-05,-3.27795e-06,1.39212e-05,-1.53828e-05,1.11377e-07,1.49146e-06,0
-3.30034e-05,1.28947e-05,-1.73597e-05,-5.97504e-06,1.31957e-05,-1.40797e-05,5.09965e-06,1.93111e-06,0
-3.24091e-05,1.05322e-05,-1.59301e-05,-5.93866e-06,1.07688e-05,-1.43023e-05,7.26747e-06,1.0987e-06,0
-3.32758e-05,8.96112e-06,-1.49126e-05,-7.7557e-06,9.52338e-06,-1.70701e-05,8.97015e-06,3.38586e-07,0
-3.48716e-05,9.52919e-06,-1.61853e-05,-1.48849e-05,8.5078e-06,-1.92471e-05,1.12133e-05,-2.15113e-06,0
-3.57737e-05,1.13443e-05,-1.85068e-05,-2.15392e-05,6.15771e-06,-1.92503e-05,1.30295e-05,-3.60714e-06,0
-3.54602e-05,1.39883e-05,-1.75548e-05,-2.26409e-05,5.22234e-06,-1.59821e-05,1.43847e-05,-3.16792e-06,0
-3.41868e-05,1.5112e-05,-1.35725e-05,-2.18923e-05,7.18335e-06,-1.32667e-05,1.62655e-05,-4.08059e-06,0
-3.26347e-05,1.48903e-05,-1.01088e-05,-2.16916e-05,9.55401e-06,-1.25624e-05,1.81205e-05,-4.23008e-06,0
-3.1835e-05,1.64658e-05,-8.15879e-06,-2.22271e-05,1.01187e-05,-1.14859e-05,1.86127e-05,-2.35872e-06,0
-3.11733e-05,1.76595e-05,-7.05809e-06,-1.77459e-05,1.13299e-05,-9.83091e-06,1.86085e-05,1.41098e-07,0
-3.10572e-05,1.7358e-05,-5.63008e-06,-3.23177e-06,1.28363e-05,-8.13952e-06,1.83521e-05,1.11111e-06,0
-3.18253e-05,1.67086e-05,-5.00093e-06,1.53022e-05,1.34448e-05,-7.61136e-06,1.73983e-05,-1.2961e-07,0
-3.26328e-05,1.68077e-05,-6.05379e-06,2.81283e-05,1.34404e-05,-8.84927e-06,1.67611e-05,-1.14663e-06,0
-3.16758e-05,1.70605e-05,-7.72114e-06,3.19471e-05,1.39116e-05,-1.0905e-05,1.59191e-05,-7.28696e-07,0
-3.0189e-05,1.66879e-05,-8.77912e-06,2.8435e-05,1.57199e-05,-1.19296e-05,1.48477e-05,9.82094e-07,0
-2.94322e-05,1.60034e-05,-1.00951e-05,1.95671e-05,1.54714e-05,-1.13036e-05,1.53477e-05,1.74759e-06,0
-2.87269e-05,1.4867e-05,-1.10556e-05,7.67586e-06,1.21791e-05,-9.01734e-06,1.75856e-05,2.31488e-08,0
-2.82698e-05,1.3399e-05,-1.04385e-05,-2.21865e-06,1.08864e-05,-5.67718e-06,2.06124e-05,-1.85846e-06,0
-2.77031e-05,1.28235e-05,-8.33441e-06,-5.11505e-06,1.45548e-05,-3.54721e-06,2.4997e-05,-2.47211e-06,0
-2.70779e-05,1.3801e-05,-5.57242e-06,-2.62801e-06,1.93373e-05,-3.68034e-06,2.96565e-05,-2.06539e-06,0
-2.65659e-05,1.42931e-05,-3.25355e-06,-2.2368e-06,2.1902e-05,-4.68174e-06,3.14178e-05,-1.15187e-06,0
-2.67556e-05,1.46777e-05,-2.01224e-06,-7.78906e-06,2.19878e-05,-4.82416e-06,2.91506e-05,3.78359e-07,0
-2.82113e-05,1.49531e-05,-1.78817e-06,-1.49201e-05,2.06111e-05,-4.67917e-06,2.50094e-05,1.97159e-06,0
-3.06793e-05,1.43498e-05,-1.91384e-06,-1.84102e-05,1.94122e-05,-5.51151e-06,2.01443e-05,2.10129e-06,0
-3.22088e-05,1.42042e-05,-2.7865e-06,-1.70162e-05,2.04151e-05,-6.99597e-06,1.65806e-05,9.95247e-07,0
-3.17193e-05,1.59451e-05,-4.19231e-06,-1.6121e-05,2.3446e-05,-8.10286e-06,1.5776e-05,1.41181e-06,0
-2.98209e-05,1.68125e-05,-6.11313e-06,-1.95767e-05,2.55431e-05,-7.90307e-06,1.54358e-05,3.472e-06,0
-2.83055e-05,1.59498e-05,-6.52297e-06,-2.24134e-05,2.52889e-05,-8.23376e-06,1.26124e-05,4.61945e-06,0
-2.8227e-05,1.59192e-05,-5.56171e-06,-2.08045e-05,2.33872e-05,-8.61404e-06,5.79829e-06,3.80981e-06,0
-2.981e-05,1.77487e-05,-4.47947e-06,-1.76884e-05,2.11999e-05,-7.62606e-06,1.14696e-06,1.21722e-06,0
-3.14685e-05,1.90933e-05,-3.17553e-06,-1.54891e-05,1.90279e-05,-8.72111e-06,-1.76166e-07,-1.64863e-06,0
-2.99122e-05,1.87681e-05,-2.63644e-06,-1.43144e-05,1.79569e-05,-1.22357e-05,-1.06285e-05,-3.06367e-06,0
-2.76346e-05,1.75338e-05,-2.8594e-06,-1.24902e-05,1.79908e-05,-1.36734e-05,-2.61288e-05,-3.99632e-06,0
-2.74442e-05,1.62108e-05,-2.47734e-06,-9.56991e-06,1.67228e-05,-1.21394e-05,-3.19745e-05,-4.16535e-06,0
