ch1,ch2,ch3,ch4,ch5,ch6,ch7,ch8,class
-4.76513e-05,-3.21995e-06,-1.77735e-05,0.000125107,-7.97705e-06,-7.36053e-05,0.000139438,2.17626e-06,0
-3.37713e-05,1.04018e-06,-1.45853e-05,-2.66149e-05,8.22834e-06,-5.77015e-05,9.57218e-05,1.11753e-06,0
-3.06965e-05,1.58379e-06,-1.46101e-05,-0.000211786,-3.20125e-05,-3.98816e-05,2.91903e-05,-8.68347e-07,0
-3.81755e-05,-1.28195e-06,-2.21649e-05,-0.000349381,-9.35546e-05,-4.58652e-06,-4.98277e-05,-4.42404e-06,0
-4.70386e-05,-7.0355e-06,-3.44467e-05,-0.000361174,-0.000101413,7.89254e-05,-0.000109102,-6.54513e-06,0
-4.94533e-05,-1.19016e-05,-4.50466e-05,-0.000242868,-6.61483e-05,0.00015031,-0.00013097,-6.99184e-06,0
-5.0161e-05,-1.2918e-05,-5.11255e-05,2.33447e-05,3.68458e-05,0.000136905,-0.000130671,-8.56261e-06,0
-5.1176e-05,-9.93477e-06,-4.80685e-05,0.000416598,0.000168686,7.58662e-05,-0.000122485,-8.05117e-06,0
-4.78766e-05,-4.83721e-06,-3.60526e-05,0.000813255,0.000228529,2.0618e-05,-0.000119071,-6.12474e-06,0
-4.08758e-05,2.40325e-06,-1.94351e-05,0.00101453,0.000282776,-2.64531e-05,-0.000125358,-5.17531e-06,0
-3.36868e-05,1.15842e-05,-3.1666e-06,0.00084267,0.000385062,-6.35005e-05,-0.000137312,-5.00959e-06,0
-2.78737e-05,1.95348e-05,1.06551e-05,0.000352534,0.000426696,-5.86808e-05,-0.000137861,-5.65368e-06,0
-1.8704e-05,2.51872e-05,2.26399e-05,-0.000202978,0.0003204,-2.43863e-05,-0.000120474,-5.49587e-06,0
-6.71619e-06,2.91657e-05,2.96971e-05,-0.000552137,0.000177306,-8.35874e-07,-9.59141e-05,-4.15302e-06,0
-2.36804e-06,3.02497e-05,2.83213e-05,-0.000629531,8.24957e-05,-4.62265e-06,-5.73003e-05,-2.67084e-06,0
-8.5122e-06,2.7404e-05,2.18303e-05,-0.000548258,2.99653e-05,-1.69262e-05,2.79099e-05,-2.49302e-06,0
-1.47477e-05,2.37021e-05,1.66435e-05,-0.000433938,1.62743e-05,9.1757e-06,0.000164321,-3.98616e-06,0
-1.07053e-05,2.23977e-05,1.43028e-05,-0.000330767,1.61722e-05,7.49496e-05,0.000297848,-6.16085e-06,0
-1.89252e-06,2.14499e-05,9.64922e-06,-0.000234603,-5.24774e-06,0.000126445,0.000385435,-6.96895e-06,0
-1.70603e-06,1.71898e-05,1.24537e-06,-0.000152537,-4.15104e-05,0.000129433,0.000412573,-5.51366e-06,0
-1.05882e-05,1.07399e-05,-7.20256e-06,-8.72664e-05,-3.696e-05,9.58481e-05,0.000368244,-3.04228e-06,0
-1.66678e-05,6.7925e-06,-1.37788e-05,-3.48473e-05,5.35452e-06,3.62683e-05,0.000245632,-2.27638e-06,0
-1.69819e-05,5.54654e-06,-1.76153e-05,4.38076e-05,1.56504e-05,-3.9792e-05,7.07023e-05,-3.90881e-06,0
-1.97015e-05,4.57233e-06,-1.60814e-05,0.000164181,-5.92558e-05,-0.000102131,-0.000114762,-5.69358e-06,0
-2.45359e-05,6.0101e-06,-9.00303e-06,0.00027268,-0.000143972,-0.000123556,-0.00028388,-6.70565e-06,0
-2.32726e-05,1.23265e-05,1.43323e-06,0.0003087,-7.68879e-05,-0.000107736,-0.000419225,-6.64043e-06,0
-1.78083e-05,1.88496e-05,1.03402e-05,0.00027043,0.000211705,-8.34216e-05,-0.000480106,-4.9776e-06,0
-2.06429e-05,1.96118e-05,1.26522e-05,0.000174631,0.000469499,-7.73026e-05,-0.000430835,-1.81557e-06,0
-3.45695e-05,1.71558e-05,1.02143e-05,3.7132e-05,0.000417227,-8.09594e-05,-0.000304862,2.23659e-07,0
-5.45542e-05,1.64916e-05,3.8565e-06,-0.000128542,0.000104676,-8.62074e-05,-0.000189674,-6.14975e-07,0
-7.81975e-05,1.72615e-05,-8.33751e-06,-0.000280531,-0.00027447,-6.93064e-05,-0.000136109,-1.56662e-06,0
-9.38385e-05,1.62614e-05,-2.11684e-05,-0.000343344,-0.000490395,2.16408e-05,-0.000137436,-6.78396e-07,0
-9.64007e-05,1.37139e-05,-2.83327e-05,-0.000307634,-0.000514421,9.62707e-05,-0.000139957,-6.50601e-07,0
-8.61431e-05,1.21212e-05,-3.14951e-05,-0.000220473,-0.000450842,6.47306e-05,-0.000100166,-1.20946e-06,0
-4.84564e-05,1.46921e-05,-3.56924e-05,-0.000130019,-0.000321106,1.13477e-05,-3.31334e-05,1.21643e-06,0
-5.16733e-06,1.91458e-05,-4.00434e-05,-4.39304e-05,-0.00017641,-1.03469e-05,4.60655e-05,4.35914e-06,0
9.35939e-06,2.00741e-05,-3.90747e-05,8.19871e-05,-1.16299e-05,-3.21955e-05,0.000127175,4.95418e-06,0
6.76313e-06,1.70917e-05,-3.59575e-05,0.000229685,0.000115684,-6.42068e-05,0.000212626,4.63002e-06,0
6.69026e-06,1.26215e-05,-3.78953e-05,0.000354796,0.000122492,-5.38213e-05,0.0002958,4.92593e-06,0
1.35667e-05,1.03276e-05,-4.1899e-05,0.000425954,1.70929e-05,-1.15206e-05,0.000352465,3.31351e-06,0
2.12374e-05,1.07434e-05,-4.10239e-05,0.000408175,-0.000106828,-3.89833e-06,0.000348602,-6.18652e-07,0
2.44472e-05,1.35093e-05,-3.58021e-05,0.000294751,-0.000179401,-2.99784e-05,0.000280167,-1.86697e-06,0
2.21419e-05,1.68026e-05,-2.7203e-05,0.000147267,-0.000208872,-4.22614e-05,0.000170555,4.385e-07,0
1.60418e-05,2.10242e-05,-1.23501e-05,4.54307e-05,-0.00022158,-2.52136e-05,5.06547e-05,2.47362e-06,0
7.00843e-06,2.69251e-05,8.34095e-06,-2.41353e-05,-0.000273252,-1.41526e-05,-6.02105e-05,2.04523e-06,0
-5.41557e-06,3.23752e-05,2.70933e-05,-9.36682e-05,-0.000338426,-2.75013e-05,-0.0001525,3.60143e-07,0
-1.96861e-05,3.32695e-05,3.40047e-05,-0.000129486,-0.000274998,-4.68036e-05,-0.000201635,-1.17364e-06,0
-3.45868e-05,2.61469e-05,2.46553e-05,-0.000122684,-2.09094e-05,-4.90649e-05,-0.00019397,-1.2467e-06,0
-4.81491e-05,1.35976e-05,2.74708e-06,-0.000155286,0.000256891,-3.70437e-05,-0.000139868,1.07306e-06,0
-5.73857e-05,8.98381e-07,-2.23993e-05,-0.000259406,0.000393928,-1.45552e-05,-7.08145e-05,3.68321e-06,0
-6.1325e-05,-7.39743e-06,-4.13163e-05,-0.000387436,0.000338879,1.43278e-06,-1.1387e-05,5.39846e-06,0
-6.13563e-05,-1.05666e-05,-4.71115e-05,-0.000461729,0.000147716,-1.01422e-05,2.54337e-05,5.46742e-06,0
-5.64638e-05,-7.68872e-06,-3.79595e-05,-0.000392375,-3.75631e-05,-2.99912e-05,4.65988e-05,4.63531e-06,0
-4.93274e-05,-2.95142e-06,-1.83446e-05,-0.000170465,-8.16265e-05,-3.19533e-05,5.68076e-05,5.14813e-06,0
-4.47551e-05,-1.8447e-06,1.10808e-05,0.000129736,-1.0073e-05,-2.03327e-05,6.03583e-05,6.63791e-06,0
-4.04426e-05,7.95948e-07,5.46452e-05,0.000432922,7.21361e-05,3.37836e-07,6.13762e-05,7.5575e-06,0
-3.25638e-05,7.73185e-06,9.80484e-05,0.000627098,0.000138775,2.43742e-05,5.49315e-05,7.70346e-06,0
-2.1176e-05,1.41441e-05,0.000115044,0.000478723,0.000227364,4.84805e-05,4.04168e-05,8.68758e-06,0
-1.1729e-05,1.78751e-05,9.66982e-05,3.74044e-05,0.000300688,6.98575e-05,3.2691e-05,9.06658e-06,0
-1.05671e-05,1.90003e-05,5.02121e-05,-0.000398665,0.000268398,7.59161e-05,3.80518e-05,6.73456e-06,0
-1.67784e-05,1.62252e-05,-1.12792e-05,-0.000726848,0.000140049,5.87743e-05,4.30999e-05,4.28437e-06,0
-2.15943e-05,1.37473e-05,-5.89794e-05,-0.00081263,4.03413e-05,3.11809e-05,3.89764e-05,3.19467e-06,0
-1.93795e-05,1.72813e-05,-7.2254e-05,-0.000574096,9.59589e-05,1.87232e-05,3.16844e-05,2.22513e-06,0
-1.52155e-05,2.25268e-05,-6.20918e-05,-0.00012927,0.000263809,2.19132e-05,3.6371e-05,1.01396e-06,0
-1.75548e-05,2.34786e-05,-4.44968e-05,0.000252946,0.000364915,2.54757e-05,2.45955e-05,-5.6594e-08,0
-3.39017e-05,1.95959e-05,-3.10528e-05,0.000447914,0.000278793,1.53205e-05,-5.2353e-05,-5.58964e-07,0
-5.66442e-05,1.4738e-05,-2.28338e-05,0.000556835,8.85426e-05,-4.41866e-06,-0.000147758,-3.72206e-07,0
-7.06976e-05,1.3074e-05,-1.52107e-05,0.000632551,-4.93049e-05,-1.9887e-05,-0.000172134,-1.84551e-07,0
-7.15808e-05,1.31244e-05,-7.8283e-06,0.000623225,-9.26474e-05,-2.56329e-05,-0.000113215,1.97163e-08,0
-6.37532e-05,1.15337e-05,1.53199e-06,0.000472155,-9.73621e-05,-2.65645e-05,-1.76678e-05,-6.92933e-07,0
-4.83536e-05,8.78643e-06,1.22267e-05,0.000244332,-9.35263e-05,-2.28681e-05,6.63774e-05,-2.14694e-06,0
-2.11094e-05,6.64327e-06,1.70353e-05,4.95797e-05,-7.90918e-05,-8.35731e-06,0.000123232,-2.60481e-06,0
9.10344e-06,5.4238e-06,1.04359e-05,-3.17471e-05,-4.9541e-05,1.23341e-05,0.000152269,-2.36631e-06,0
1.52526e-05,3.76913e-06,-2.66599e-06,-1.2267e-05,-1.50815e-05,1.41832e-05,0.000159276,-2.66527e-06,0
-1.42943e-05,9.41724e-08,-1.41178e-05,4.24524e-05,8.15743e-06,-1.58747e-05,0.00015085,-2.55202e-06,0
-5.53046e-05,-4.17757e-06,-1.96644e-05,6.02964e-05,4.02019e-05,-4.99634e-05,0.000132298,-2.24118e-06,0
-8.22798e-05,-5.62048e-06,-1.909e-05,3.33103e-05,0.000139269,-5.34095e-05,0.000107815,-2.00588e-06,0
-8.48108e-05,-2.70064e-06,-1.41764e-05,-1.19554e-05,0.000296211,-3.8786e-05,8.06277e-05,-1.1354e-06,0
-6.50218e-05,3.15682e-06,-9.40342e-06,-3.60148e-05,0.000382806,-5.19228e-05,5.46319e-05,-8.78328e-07,0
-4.35342e-05,8.09619e-06,-8.40749e-06,-2.68653e-05,0.000320155,-9.2794e-05,3.78803e-05,-1.18305e-06,0
-3.83529e-05,1.07274e-05,-1.02106e-05,8.25377e-07,0.000159613,-0.000107208,3.20248e-05,-2.22548e-06,0
-4.25669e-05,1.28189e-05,-1.55078e-05,4.14273e-05,-5.65803e-05,-6.65282e-05,2.77858e-05,-2.55057e-06,0
-5.3661e-05,1.09086e-05,-2.69771e-05,9.17646e-05,-0.000321358,-2.44043e-05,2.39263e-05,-1.82194e-06,0
-7.16374e-05,3.019e-06,-3.8703e-05,0.000135374,-0.000548616,-4.06735e-05,2.56738e-05,-1.11872e-06,0
-8.21246e-05,-4.94834e-06,-4.18275e-05,0.000183838,-0.000556805,-8.37678e-05,3.11422e-05,-1.19301e-06,0
-7.1196e-05,-6.14823e-06,-3.73838e-05,0.000231727,-0.000331892,-9.54827e-05,2.83325e-05,1.83105e-06,0
-4.09666e-05,-2.89711e-07,-3.02772e-05,0.000206257,-0.000140037,-8.29124e-05,1.55196e-05,1.54071e-05,0
-1.52259e-05,8.73099e-06,-2.15293e-05,8.01643e-05,-0.000141855,-6.00295e-05,3.96062e-06,3.14937e-05,0
-6.37341e-06,1.87881e-05,-1.25357e-05,-8.17195e-05,-0.000214531,-2.59891e-05,-3.28422e-07,3.66557e-05,0
-6.6418e-06,2.68442e-05,-9.8175e-06,-0.000203419,-0.000212899,1.56215e-05,-6.16817e-07,3.16028e-05,0
-8.70947e-06,2.9963e-05,-1.13769e-05,-0.000270803,-0.000130863,5.29156e-05,-4.67975e-07,1.93652e-05,0
-1.28281e-05,2.82033e-05,-1.21069e-05,-0.000305123,-1.983e-05,5.1096e-05,-4.9912e-06,5.35604e-07,0
-1.54908e-05,2.50597e-05,-1.53666e-05,-0.000353913,0.000102358,1.72117e-05,-1.40853e-05,-1.96803e-05,0
-1.40882e-05,2.27868e-05,-2.23213e-05,-0.000388268,0.000241388,-1.55487e-05,-1.81349e-05,-3.61552e-05,0
-1.17488e-05,2.02286e-05,-2.88207e-05,-0.000351087,0.000362867,-2.98486e-05,-1.19652e-05,-4.62035e-05,0
-9.09488e-06,1.82591e-05,-3.15794e-05,-0.000220717,0.000410788,-2.56277e-05,1.88154e-06,-4.89504e-05,0
-6.64273e-06,1.96519e-05,-2.70051e-05,-2.89232e-05,0.000375949,-8.26057e-06,1.68187e-05,-4.40915e-05,0
-4.78757e-06,2.34142e-05,-1.74921e-05,0.000127734,0.000294628,1.5075e-05,2.54495e-05,-3.36071e-05,0
-6.00833e-06,2.61315e-05,-1.26849e-05,0.000117995,0.000182654,3.36455e-05,2.712e-05,-2.19846e-05,0
-1.03026e-05,2.56185e-05,-1.47464e-05,-6.42564e-05,4.56623e-05,4.52219e-05,2.5346e-05,-1.13209e-05,0
-1.85816e-05,2.30867e-05,-1.80905e-05,-0.000234421,-6.55309e-05,4.92565e-05,1.31721e-05,-3.00911e-06,0
-3.42893e-05,2.24927e-05,-1.63478e-05,-0.00024352,-8.57123e-05,4.85289e-05,-1.84345e-05,2.77451e-06,0
-5.64844e-05,2.50546e-05,-8.89013e-06,-0.000152713,-1.82647e-05,4.42654e-05,-4.92643e-05,6.44091e-06,0
-7.51281e-05,2.82952e-05,-3.41045e-07,-0.000102158,5.43376e-05,3.89502e-05,-4.47016e-05,9.06757e-06,0
-8.09242e-05,3.07975e-05,6.20054e-06,-7.75686e-05,4.99757e-05,2.86202e-05,-1.54505e-07,1.23063e-05,0
-7.45929e-05,3.2142e-05,1.00445e-05,9.10217e-07,-2.83822e-05,1.22489e-05,5.77582e-05,1.56694e-05,0
-5.99604e-05,3.0643e-05,1.17676e-05,6.60073e-05,-0.000108819,-3.23643e-06,0.000102741,1.61225e-05,0
-3.95435e-05,2.94615e-05,1.52984e-05,3.62252e-05,-0.000130808,-1.11988e-05,0.000125603,1.55486e-05,0
-1.51432e-05,3.05604e-05,1.98663e-05,-2.46408e-05,-7.7125e-05,-1.8146e-05,0.000130157,1.61503e-05,0
1.12046e-05,3.02508e-05,1.93291e-05,-5.18648e-05,-3.58402e-05,-2.56111e-05,0.000123464,1.45969e-05,0
2.63889e-05,2.63138e-05,1.33299e-05,-3.73533e-05,-0.000106215,-3.09421e-05,0.000107507,1.10288e-05,0
1.58417e-05,2.05263e-05,3.64712e-06,-1.09475e-05,-0.000231601,-3.71177e-05,7.23996e-05,7.20542e-06,0
-8.29153e-06,1.62356e-05,-5.52878e-06,-2.46035e-06,-0.000211562,-4.26206e-05,2.44821e-05,3.98363e-06,0
-2.77579e-05,1.51839e-05,-8.9107e-06,-8.08725e-06,2.86229e-05,-3.87313e-05,-1.15367e-05,3.28333e-06,0
-3.66741e-05,1.74455e-05,-6.23061e-06,7.49453e-06,0.000280915,-2.0466e-05,-3.05953e-05,4.31746e-06,0
-3.52695e-05,2.081e-05,2.19899e-07,3.93615e-05,0.000297376,-8.1447e-06,-3.86752e-05,5.71789e-06,0
-3.22279e-05,2.04763e-05,1.72036e-06,3.79164e-05,1.99122e-05,-1.77265e-05,-3.9859e-05,8.04783e-06,0
-3.22073e-05,1.64699e-05,-3.51039e-06,4.93836e-06,-0.000261091,-2.95459e-05,-3.69119e-05,8.58889e-06,0
-3.07755e-05,1.34798e-05,-1.15172e-05,2.25577e-05,-0.000277123,-2.22513e-05,-3.75383e-05,7.71267e-06,0
-2.77186e-05,1.28129e-05,-2.07168e-05,0.000126011,-0.000112441,-1.23623e-05,-4.48381e-05,5.92838e-06,0
-2.87632e-05,1.25224e-05,-2.86808e-05,0.000177571,2.55356e-05,-3.58769e-05,-5.02657e-05,3.39434e-06,0
-3.95941e-05,9.93631e-06,-3.58493e-05,1.11296e-05,4.71948e-05,-9.44203e-05,-4.77705e-05,1.90299e-06,0
-5.53131e-05,6.08536e-06,-4.43273e-05,-0.000349231,2.02834e-05,-0.00012665,-4.23389e-05,1.74949e-06,0
-5.97445e-05,2.24639e-06,-5.45175e-05,-0.000675901,-1.12138e-05,-9.37064e-05,-3.82634e-05,1.5655e-06,0
-4.39979e-05,4.09354e-07,-5.76469e-05,-0.000770441,-5.4147e-05,-2.82059e-05,-3.26863e-05,7.90935e-07,0
-2.41458e-05,2.1518e-06,-4.87293e-05,-0.000612199,-9.4497e-05,4.24921e-05,-2.52725e-05,1.76097e-06,0
-2.27235e-05,6.34767e-06,-3.43432e-05,-0.000297927,-8.16362e-05,0.000109858,-1.82277e-05,4.45802e-06,0
-3.5157e-05,1.21613e-05,-2.17297e-05,6.41865e-05,-2.24392e-05,0.000130151,-1.35082e-05,5.41583e-06,0
-4.01879e-05,2.01186e-05,-9.60087e-06,0.000418712,4.94699e-05,7.90065e-05,-1.03274e-05,4.0443e-06,0
-2.73054e-05,2.83659e-05,6.74812e-06,0.000700667,0.000110305,2.32451e-05,-8.66367e-06,3.60221e-06,0
-7.00852e-06,3.37079e-05,2.70831e-05,0.000772886,0.000117774,3.16686e-05,-7.47554e-06,4.7939e-06,0
5.96755e-06,3.70261e-05,4.49626e-05,0.000585873,4.81195e-05,6.07801e-05,-4.31014e-06,6.11206e-06,0
7.56164e-06,3.88423e-05,5.47981e-05,0.000313636,-4.50621e-05,3.48325e-05,1.70764e-06,5.71787e-06,0
7.5586e-07,3.76619e-05,5.43756e-05,0.000139015,-7.82634e-05,-3.70631e-05,1.0528e-05,4.93709e-06,0
-8.81892e-06,3.52928e-05,4.58298e-05,5.09103e-05,-3.85017e-05,-9.60253e-05,1.88874e-05,5.31144e-06,0
-1.92809e-05,3.61614e-05,4.1623e-05,-2.31756e-05,5.19568e-05,-9.40494e-05,1.4573e-05,4.2427e-06,0
-2.74094e-05,3.8766e-05,4.54362e-05,-7.28639e-05,0.000180342,-6.13046e-05,-4.53714e-06,2.15616e-06,0
-3.25401e-05,3.65572e-05,4.34743e-05,-6.23999e-05,0.000295186,-6.02232e-05,-1.91715e-05,2.19153e-06,0
-4.27839e-05,2.63664e-05,2.88058e-05,-7.53864e-06,0.000267358,-2.86854e-05,-9.64309e-06,2.45959e-06,0
-5.71572e-05,1.73283e-05,1.36702e-05,2.2516e-05,0.000103622,4.43384e-05,1.79715e-05,2.81537e-06,0
-6.15867e-05,1.40732e-05,4.03009e-06,2.77304e-06,-5.33046e-05,7.48023e-05,4.36636e-05,2.63138e-06,0
-5.2937e-05,1.14887e-05,-3.77301e-06,-9.05898e-06,-0.000141425,0.000109019,5.90184e-05,1.46728e-06,0
-4.35437e-05,7.71335e-06,-9.58897e-06,7.90463e-06,-0.000161096,0.000155864,5.90501e-05,8.66138e-07,0
-4.04042e-05,6.69305e-06,-1.58761e-05,2.17426e-05,-0.000119613,0.000146369,4.80128e-05,1.29968e-06,0
-4.00357e-05,1.1548e-05,-1.93753e-05,-8.69623e-06,-1.59981e-05,8.78684e-05,3.65875e-05,2.2069e-06,0
-3.9728e-05,1.65809e-05,-1.99184e-05,-7.93576e-05,8.5362e-05,1.70728e-05,3.05986e-05,1.92778e-06,0
-3.84386e-05,1.69546e-05,-2.1e-05,-0.000125137,0.000117381,-2.82571e-05,2.89967e-05,5.80148e-07,0
-3.51554e-05,1.32324e-05,-2.15753e-05,-7.86044e-05,0.00011655,-2.99032e-05,2.99343e-05,-6.73445e-07,0
-3.20022e-05,9.98409e-06,-1.91628e-05,3.98547e-05,7.46816e-05,-2.25542e-05,2.99714e-05,-1.35193e-06,0
-3.2791e-05,9.69957e-06,-1.42305e-05,0.00016335,-1.94643e-06,-4.16689e-05,2.90344e-05,-1.20205e-06,0
-3.33734e-05,1.14263e-05,-8.74316e-06,0.000272538,-3.47558e-05,-7.1036e-05,5.07913e-05,-7.33228e-07,0
-3.06122e-05,1.06473e-05,-5.86149e-06,0.00032253,2.82934e-06,-7.62613e-05,0.000120021,-9.15397e-07,0
-2.89029e-05,5.24316e-06,-1.17065e-05,0.000226887,6.22293e-05,-5.78524e-05,0.000222432,-1.13728e-06,0
-2.95747e-05,-6.75201e-07,-2.27642e-05,1.34073e-05,9.89379e-05,-3.94946e-05,0.000317756,-1.63592e-06,0
-3.0716e-05,-2.29929e-06,-3.12422e-05,-0.000150531,9.61823e-05,-3.08113e-05,0.000385604,-2.99711e-06,0
-2.82852e-05,1.29257e-06,-3.46501e-05,-0.000186898,5.89547e-05,-1.66143e-05,0.000410072,-5.19789e-06,0
-2.09293e-05,6.67289e-06,-3.67759e-05,-0.000145911,8.02279e-06,1.72011e-05,0.000340804,-6.99811e-06,0
-1.63783e-05,9.16051e-06,-3.85814e-05,-9.20681e-05,-3.78731e-05,4.43465e-05,0.000139919,-7.46656e-06,0
-2.23104e-05,5.78073e-06,-3.91494e-05,-0.000101448,-5.25235e-05,3.21066e-05,-0.000134256,-6.34232e-06,0
-2.65236e-05,-1.23367e-06,-3.74003e-05,-0.000225927,-4.21735e-05,-7.07694e-06,-0.000363075,-5.33068e-06,0
-1.60163e-05,-8.13417e-06,-3.26352e-05,-0.00036118,-3.27129e-05,-2.9009e-05,-0.000483314,-5.47485e-06,0
1.26062e-06,-1.08848e-05,-2.48245e-05,-0.000350765,-4.58541e-05,-2.06704e-05,-0.000483087,-5.79563e-06,0
1.11442e-05,-6.23497e-06,-1.2908e-05,-0.000163112,-0.000129606,-1.30332e-05,-0.00037363,-5.88663e-06,0
8.89268e-06,3.18802e-06,2.51016e-06,0.000107618,-0.000290162,-1.843e-05,-0.000221939,-5.33618e-06,0
4.04126e-07,9.6165e-06,1.2398e-05,0.000270237,-0.000365953,-1.97125e-05,-0.000103358,-4.35903e-06,0
-1.16263e-05,7.12889e-06,2.63192e-06,0.000193658,-0.00018868,-1.86909e-05,-2.87102e-05,-4.4953e-06,0
-2.61495e-05,4.76891e-07,-1.85159e-05,4.8643e-05,2.72573e-05,-3.7092e-05,1.14926e-05,-5.36038e-06,0
-3.68631e-05,-1.98436e-06,-3.09899e-05,6.43631e-05,-1.95165e-05,-6.83796e-05,2.48397e-05,-4.75027e-06,0
-4.45227e-05,-6.04518e-07,-3.07458e-05,0.00014557,-0.000188451,-8.41463e-05,2.29288e-05,-2.69441e-06,0
-5.15242e-05,3.37765e-06,-2.06921e-05,0.000214935,-0.000118505,-7.91327e-05,4.81581e-06,-1.232e-06,0
-6.00938e-05,7.03542e-06,-5.49628e-06,0.00031884,0.000246525,-6.81039e-05,-1.60664e-05,1.02298e-06,0
-7.23375e-05,9.43927e-06,1.22366e-05,0.000388758,0.000562956,-6.63696e-05,-2.72138e-05,2.02933e-06,0
-8.56328e-05,1.26013e-05,2.88976e-05,0.000331417,0.000639429,-6.19189e-05,-2.14131e-05,3.74846e-07,0
-9.54221e-05,1.36607e-05,3.73402e-05,0.000137995,0.000623869,-4.85704e-05,-1.40376e-05,-1.20609e-06,0
-9.47471e-05,9.32063e-06,3.60914e-05,-0.000109186,0.000653542,-1.40186e-05,-1.78808e-05,-1.92441e-06,0
-8.1839e-05,1.55104e-06,2.94216e-05,-0.000330574,0.000640144,5.71519e-05,-3.04791e-05,-9.19808e-07,0
-5.82331e-05,-6.633e-06,2.0207e-05,-0.000472243,0.000512235,9.93519e-05,-5.09532e-05,1.76271e-06,0
-2.09575e-05,-1.25688e-05,7.79237e-06,-0.000512584,0.000314548,6.18485e-05,-6.75941e-05,6.04951e-06,0
2.72578e-05,-1.40292e-05,-6.22125e-06,-0.000433307,8.58591e-05,-3.93374e-06,-6.13879e-05,8.93906e-06,0
5.84355e-05,-1.36514e-05,-2.14148e-05,-0.000246554,-0.000138396,-4.40996e-05,-2.33663e-05,9.2644e-06,0
4.7171e-05,-1.40335e-05,-3.68055e-05,-7.19863e-05,-0.00031782,-6.116e-05,2.8746e-05,7.93983e-06,0
1.13067e-05,-1.47067e-05,-4.76586e-05,-3.15322e-05,-0.00042258,-7.01008e-05,7.29573e-05,5.73226e-06,0
-1.2119e-05,-1.26887e-05,-4.67222e-05,-7.49635e-05,-0.00044928,-6.71998e-05,9.56802e-05,3.78124e-06,0
-1.1968e-05,-4.91185e-06,-3.16379e-05,-7.07542e-05,-0.000363818,-4.24603e-05,9.81565e-05,3.32479e-06,0
1.41775e-06,1.19842e-05,-6.24463e-06,1.23499e-05,-0.000178397,1.93607e-06,8.53396e-05,3.34623e-06,0
1.64926e-05,3.39894e-05,2.08318e-05,0.000140306,3.83584e-05,5.08041e-05,6.71177e-05,3.31798e-06,0
2.05717e-05,4.77635e-05,3.59045e-05,0.000221558,0.000172053,7.79504e-05,5.05204e-05,4.1112e-06,0
6.29009e-06,4.59599e-05,3.0615e-05,0.000159792,0.000165675,6.85413e-05,3.94562e-05,5.59411e-06,0
-2.18374e-05,3.45484e-05,1.55042e-05,1.51818e-05,9.52614e-05,3.1225e-05,3.58607e-05,6.93895e-06,0
-5.40391e-05,2.00623e-05,6.25156e-06,-6.28914e-05,1.72476e-05,-1.49803e-05,4.00357e-05,7.53415e-06,0
-7.91017e-05,7.16147e-06,4.6768e-06,-4.40604e-05,-6.45498e-05,-5.22557e-05,4.52915e-05,6.74714e-06,0
-8.7116e-05,1.28082e-06,3.53799e-06,3.81087e-06,-6.80276e-06,-6.84631e-05,4.74108e-05,5.78841e-06,0
-8.07746e-05,-1.24016e-06,-2.01554e-06,2.26038e-05,0.000297866,-7.2253e-05,4.89661e-05,5.39451e-06,0
-6.98001e-05,-6.23459e-06,-7.07566e-06,1.76622e-05,0.000459743,-5.7751e-05,5.23528e-05,4.13324e-06,0
-5.88919e-05,-1.48567e-05,-1.10241e-05,2.76033e-05,0.000200186,-1.63821e-05,5.23377e-05,3.34789e-06,0
-4.36502e-05,-2.66025e-05,-1.82889e-05,7.60462e-05,-0.000153389,1.7185e-05,4.32003e-05,3.12938e-06,0
-2.10141e-05,-3.30906e-05,-2.4204e-05,0.000139941,-0.000345727,2.08868e-05,3.10786e-05,2.06535e-06,0
-1.22909e-05,-3.01399e-05,-2.57993e-05,0.000178714,-0.000403422,3.51499e-06,2.28104e-05,9.55215e-08,0
-2.14454e-05,-2.29927e-05,-2.48528e-05,0.000180523,-0.00043749,-8.38054e-06,2.0472e-05,3.87972e-07,0
-2.60438e-05,-1.56027e-05,-2.66743e-05,0.000154442,-0.000435312,-2.00356e-06,1.97603e-05,1.9659e-06,0
-2.92296e-05,-1.06177e-05,-3.47584e-05,4.59935e-05,-0.000351658,3.69234e-06,1.96016e-05,2.52251e-06,0
-3.79165e-05,-7.9894e-06,-4.37543e-05,-0.000224152,-0.00020837,-3.63759e-06,3.62806e-06,2.06735e-06,0
-4.27708e-05,-6.60473e-06,-4.93455e-05,-0.000561095,-8.5281e-05,-1.7084e-05,-6.28788e-05,8.60238e-07,0
-3.67851e-05,-5.45281e-06,-5.23977e-05,-0.000699806,-4.4776e-05,-2.47424e-05,-0.000165322,-7.08952e-08,0
-2.42579e-05,-2.66947e-06,-5.10388e-05,-0.00048665,-4.32046e-05,-2.48384e-05,-0.000222166,2.64227e-08,0
-1.22838e-05,4.18465e-06,-3.82544e-05,-0.000128331,-9.41454e-06,-1.90309e-05,-0.000184566,5.23926e-07,0
-5.6847e-06,1.34683e-05,-1.85995e-05,9.13207e-05,6.69102e-05,-1.1723e-05,-7.37411e-05,9.43576e-07,0
-8.14523e-06,1.85646e-05,-8.86099e-06,0.000176527,0.000100877,-1.23698e-05,5.79505e-05,2.03363e-06,0
-1.98247e-05,1.50147e-05,-1.5503e-05,0.000224004,4.90196e-05,-2.51071e-05,0.000167206,2.26474e-06,0
-3.67802e-05,7.98242e-06,-2.35071e-05,0.000195488,-9.54443e-05,-4.43294e-05,0.000226659,1.49451e-06,0
-5.08087e-05,4.33439e-06,-2.12245e-05,5.66047e-05,-0.000273726,-6.08999e-05,0.000233088,1.30764e-06,0
-5.48309e-05,5.56836e-06,-1.38871e-05,-7.45671e-05,-0.000375593,-6.6174e-05,0.00020747,1.8362e-06,0
-4.97318e-05,1.14368e-05,-5.10195e-06,-5.3104e-05,-0.000280091,-5.48234e-05,0.000173156,1.78514e-06,0
-4.41576e-05,2.16725e-05,1.19143e-05,0.000124146,2.5509e-06,-2.7393e-05,0.000142475,1.38259e-06,0
-4.72607e-05,3.54562e-05,3.6964e-05,0.000306067,0.000313755,4.90264e-06,0.000114807,6.97e-07,0
-6.26607e-05,4.75026e-05,5.40313e-05,0.000315528,0.000460442,2.24081e-05,8.92991e-05,4.55345e-07,0
-7.68328e-05,5.10544e-05,5.14042e-05,0.000192534,0.00041228,2.98291e-05,6.69891e-05,1.36982e-06,0
-6.77926e-05,4.80435e-05,3.83397e-05,0.00010918,0.000308736,4.2857e-05,5.1686e-05,1.67277e-06,0
-4.47116e-05,4.3357e-05,2.89578e-05,0.000101196,0.00023611,6.40701e-05,5.65531e-05,2.12901e-06,0
-3.70049e-05,3.90722e-05,1.90021e-05,7.85958e-05,0.000123777,8.08862e-05,9.25191e-05,4.1614e-06,0
-4.58416e-05,3.52408e-05,4.37626e-06,1.63694e-05,-4.10415e-05,6.19832e-05,0.000145314,4.00786e-06,0
-4.53068e-05,3.38189e-05,-6.20698e-06,-1.99984e-05,-0.000173393,2.32529e-05,0.000189421,9.29418e-07,0
-1.85813e-05,3.60073e-05,-9.60726e-06,-1.53078e-05,-0.00018605,8.46762e-08,0.000198182,-1.35102e-06,0
1.12734e-05,3.7092e-05,-1.08228e-05,-2.66432e-05,-5.66501e-05,-2.92011e-05,0.000160513,-4.44787e-07,0
1.65549e-05,3.35924e-05,-1.48322e-05,-9.81087e-05,6.92016e-05,-4.95437e-05,8.49331e-05,1.50538e-06,0
2.76667e-06,2.63605e-05,-2.1374e-05,-0.000151991,0.000128636,-2.77902e-05,-1.09059e-05,1.60163e-06,0
-1.24691e-05,2.11535e-05,-2.80694e-05,-9.21255e-05,0.000162206,2.68725e-06,-0.000105217,9.02734e-07,0
-2.15867e-05,1.71498e-05,-3.4726e-05,7.96098e-05,0.000177981,9.60243e-06,-0.000184963,-3.79651e-08,0
-2.53088e-05,1.1549e-05,-4.23217e-05,0.000275998,0.0001397,-3.07622e-06,-0.000230739,-1.33438e-06,0
-2.59577e-05,5.6016e-06,-4.86052e-05,0.000310346,3.23045e-05,-1.65102e-05,-0.000226555,-3.62725e-06,0
-2.79428e-05,3.36505e-06,-4.80391e-05,0.000171381,-9.85999e-05,-1.99757e-05,-0.000182827,-5.20948e-06,0
-3.10003e-05,6.9677e-06,-3.98482e-05,3.9907e-05,-0.00015574,-1.66972e-05,-0.00013015,-4.3155e-06,0
-3.24931e-05,1.35571e-05,-2.88266e-05,6.64216e-06,-6.97262e-05,-1.39174e-05,-9.36247e-05,-1.65948e-06,0
-3.26624e-05,1.93492e-05,-2.1518e-05,4.42063e-05,0.000102434,-1.49954e-05,-7.65359e-05,1.77871e-07,0
-3.47434e-05,2.21591e-05,-1.84991e-05,7.01523e-05,0.000218468,-1.71496e-05,-7.37448e-05,1.76718e-08,0
-3.83384e-05,2.32524e-05,-1.64281e-05,3.0154e-05,0.000215015,-1.48431e-05,-7.75746e-05,-7.85364e-07,0
-3.92031e-05,2.48156e-05,-1.17173e-05,-8.50911e-05,0.000176454,-4.09132e-07,-7.98145e-05,-1.28449e-07,0
-3.83986e-05,2.82771e-05,-4.56818e-06,-0.000236491,0.000171398,2.41564e-05,-7.25492e-05,2.11217e-06,0
-4.43946e-05,2.96816e-05,1.01814e-06,-0.000366271,0.000134052,4.44016e-05,-5.53026e-05,3.71334e-06,0
-6.23366e-05,2.59021e-05,2.61394e-06,-0.00039763,4.07712e-05,4.72699e-05,-3.48984e-05,3.87452e-06,0
-8.45239e-05,1.88355e-05,7.59727e-07,-0.000299956,1.69018e-05,2.73981e-05,-1.68285e-05,3.31169e-06,0
-9.55233e-05,1.34036e-05,-2.41318e-06,-0.000151442,8.8258e-05,-8.37398e-06,-4.26806e-07,3.43959e-06,0
-8.84264e-05,1.21782e-05,-5.76599e-06,-7.91331e-05,0.000134527,-2.31118e-05,1.57562e-05,3.50985e-06,0
-7.3537e-05,1.2512e-05,-1.15485e-05,-0.000132345,7.76012e-05,-1.27636e-05,3.0419e-05,2.94093e-06,0
-5.39001e-05,1.13732e-05,-2.02866e-05,-0.000206508,-6.48148e-05,-3.57716e-05,4.45152e-05,3.29505e-06,0
-1.78311e-05,1.05432e-05,-2.74898e-05,-0.000200975,-0.000187134,-8.06574e-05,5.92069e-05,4.15445e-06,0
3.88674e-05,1.36092e-05,-2.81976e-05,-9.81478e-05,-0.000184065,-6.50791e-05,7.02214e-05,3.95501e-06,0
7.61582e-05,1.75538e-05,-2.12405e-05,3.61367e-05,-0.000116284,-2.12396e-05,7.02739e-05,3.78673e-06,0
6.13276e-05,1.63483e-05,-1.45531e-05,4.3594e-07,-7.44741e-05,-2.56852e-05,6.06896e-05,4.16969e-06,0
2.61765e-05,1.16917e-05,-9.81354e-06,-0.000284843,-1.51489e-07,-1.66103e-05,4.89288e-05,3.71076e-06,0
-2.34888e-06,7.34553e-06,-2.07554e-06,-0.000551418,4.40845e-05,2.95364e-05,4.0626e-05,3.6792e-06,0
-2.05305e-05,4.86847e-06,9.38405e-06,-0.000436883,-1.3934e-05,2.00865e-05,3.61256e-05,5.18279e-06,0
-2.86658e-05,5.0798e-06,3.18312e-05,0.000133468,-8.9633e-05,-4.91387e-05,1.49658e-05,5.68341e-06,0
-2.35319e-05,8.87939e-06,6.38523e-05,0.000740462,-0.000103214,-8.32404e-05,-5.46992e-05,4.75352e-06,0
-1.63544e-05,1.17499e-05,8.09187e-05,0.000982224,-6.03874e-05,-3.69258e-05,-0.00014033,3.86885e-06,0
-2.05835e-05,7.74701e-06,6.79443e-05,0.000881877,3.44527e-05,3.13698e-05,-0.000165676,3.31428e-06,0
-2.81499e-05,2.92349e-06,3.65224e-05,0.000583283,0.000219171,4.87075e-05,-0.000109293,3.19645e-06,0
-2.87151e-05,5.19705e-06,3.45347e-06,0.000217315,0.000401992,1.85076e-05,-1.49281e-05,2.94278e-06,0
-2.19059e-05,1.18474e-05,-2.57035e-05,-7.97523e-05,0.000451534,-1.90679e-05,6.50415e-05,2.45201e-06,0
-1.55909e-05,1.72106e-05,-4.75697e-05,-0.000202363,0.000364629,-3.72109e-05,0.000113932,1.05417e-06,0
-1.29722e-05,2.2852e-05,-5.30293e-05,-0.000191942,0.000202861,-3.10635e-05,0.00013437,-1.46358e-06,0
-1.33299e-05,3.08392e-05,-3.98273e-05,-0.000158435,7.64439e-06,-1.42592e-05,0.000134964,-3.77239e-06,0
-1.2585e-05,3.90849e-05,-1.94775e-05,-0.000144999,-0.000148971,-1.03439e-05,0.000120653,-5.15404e-06,0
-1.50516e-05,4.18405e-05,-5.55787e-06,-9.93774e-05,-0.000249257,-3.08258e-05,9.04918e-05,-5.09314e-06,0
-2.70789e-05,3.72368e-05,-1.29248e-06,1.79093e-05,-0.000342245,-4.5377e-05,4.76252e-05,-4.60496e-06,0
-3.97648e-05,3.0102e-05,-1.94858e-06,0.000140871,-0.000401632,1.34448e-06,8.55063e-06,-4.67602e-06,0
-3.45032e-05,2.52224e-05,-4.41773e-06,0.00018656,-0.000350352,9.50414e-05,-9.93861e-06,-5.13e-06,0
-1.70733e-05,2.19663e-05,-8.47383e-06,0.000137902,-0.000228351,0.000130084,-9.34586e-06,-3.82368e-06,0
-1.18133e-05,1.72391e-05,-1.03763e-05,4.63671e-05,-0.000125428,6.2191e-05,-4.22733e-07,-8.22984e-07,0
-2.0482e-05,1.06698e-05,-7.21393e-06,-2.9317e-05,-6.86781e-05,-3.64413e-05,5.81543e-06,4.50647e-07,0
-2.50033e-05,6.38332e-06,-3.91303e-06,-5.80824e-05,-9.22155e-05,-9.20063e-05,5.60607e-06,1.30855e-07,0
-1.93395e-05,5.61843e-06,-6.33982e-06,-5.50622e-05,-0.000213418,-0.000107297,-1.15087e-07,-7.51519e-07,0
-1.28694e-05,5.77288e-06,-1.56392e-05,-4.35612e-05,-0.000307536,-0.000108139,-1.42298e-06,-1.20972e-06,0
-1.44097e-05,3.49556e-06,-2.85339e-05,-5.86812e-05,-0.000235843,-0.000103897,1.04192e-05,-7.36401e-07,0
-1.69715e-05,1.28989e-06,-3.28044e-05,-0.000100041,-6.2687e-05,-0.000101152,2.91672e-05,9.59693e-07,0
-1.45642e-05,6.27942e-06,-2.19452e-05,-0.000177582,6.61924e-05,-9.14192e-05,4.39637e-05,3.09494e-06,0
-1.25733e-05,1.10618e-05,-9.85441e-06,-0.000300107,0.000115348,-3.26669e-05,5.22127e-05,4.03062e-06,0
-2.25678e-05,6.89603e-06,-8.9575e-06,-0.000385261,0.000118984,8.09424e-05,5.86988e-05,5.16603e-06,0
-4.8745e-05,-4.45522e-06,-1.70426e-05,-0.000343362,0.000106285,0.000158235,6.51968e-05,5.42152e-06,0
-7.04397e-05,-1.47148e-05,-2.53826e-05,-0.000181631,0.000109333,0.000128568,6.94164e-05,4.45206e-06,0
-6.73034e-05,-1.49955e-05,-2.72489e-05,8.15963e-07,0.000136709,4.79637e-05,6.9694e-05,2.99532e-06,0
-4.46196e-05,-4.5202e-06,-2.39061e-05,0.000104348,0.000180046,2.45152e-06,6.33156e-05,1.27873e-06,0
-2.40456e-05,7.77836e-06,-2.04301e-05,0.00011851,0.000211942,-4.4483e-06,5.55438e-05,6.91606e-07,0
-1.62567e-05,1.56137e-05,-1.90091e-05,9.30248e-05,0.00020116,-3.90985e-07,5.31313e-05,6.40969e-07,0
-1.91402e-05,1.91791e-05,-1.96348e-05,7.80909e-05,0.000128277,-1.30573e-06,5.27437e-05,2.08364e-06,0
-2.83869e-05,1.99327e-05,-2.06216e-05,9.09266e-05,2.91333e-05,-1.23147e-05,4.56259e-05,4.73829e-06,0
-4.24244e-05,2.10743e-05,-1.95521e-05,0.000100314,-2.69946e-05,-2.39781e-05,2.81757e-05,6.07937e-06,0
-5.62117e-05,2.30196e-05,-1.61677e-05,6.11602e-05,-2.06039e-05,-2.94396e-05,2.26111e-06,5.53795e-06,0
-6.64071e-05,2.43865e-05,-1.27714e-05,-4.22693e-05,4.61149e-06,-3.37002e-05,-4.62417e-05,4.82042e-06,0
-7.25993e-05,2.43974e-05,-1.09876e-05,-0.000148186,5.32966e-06,-3.63929e-05,-0.000129662,4.47797e-06,0
-7.80088e-05,2.21452e-05,-1.23093e-05,-0.000163315,-2.34796e-05,-3.36423e-05,-0.000208921,5.69092e-06,0
-8.50802e-05,1.86748e-05,-1.5263e-05,-7.92776e-05,-5.71702e-05,-3.75727e-05,-0.0002278,8.32524e-06,0
-8.85449e-05,1.82509e-05,-1.25292e-05,3.93629e-05,-5.19111e-05,-4.47671e-05,-0.000183831,9.23216e-06,0
-7.92458e-05,2.15419e-05,-4.23804e-06,0.000153154,-2.08253e-06,-3.44322e-05,-0.0001029,6.84466e-06,0
-6.14111e-05,2.36176e-05,-1.23361e-06,0.000212456,3.34834e-05,-1.34757e-05,-5.29414e-06,3.13603e-06,0
-5.03773e-05,2.19843e-05,-4.51412e-06,0.000223323,1.35891e-05,-5.86638e-06,8.73251e-05,5.35403e-07,0
-4.61616e-05,2.12624e-05,-8.113e-07,0.000244429,-2.69576e-05,-1.33499e-05,0.000154824,-7.55747e-07,0
-4.08799e-05,2.13392e-05,9.95331e-06,0.000279849,-4.06032e-05,-2.36811e-05,0.000190245,-1.24136e-06,0
-3.7709e-05,1.50372e-05,9.21877e-06,0.000282782,-8.71328e-06,-3.45028e-05,0.000194528,-2.75071e-06,0
-3.72231e-05,4.72351e-06,-2.68188e-06,0.00021075,4.4631e-05,-4.03247e-05,0.000172381,-4.13134e-06,0
-2.34329e-05,2.06109e-06,-4.38653e-06,8.34598e-05,3.5315e-05,-1.94587e-05,0.000138839,-4.79312e-06,0
-6.17514e-06,9.07138e-06,7.69958e-06,-9.7397e-05,-4.03602e-06,1.52694e-05,0.000108872,-5.19314e-06,0
-8.95869e-06,1.739e-05,1.82657e-05,-0.000259746,3.19545e-05,1.35276e-05,8.21432e-05,-5.45057e-06,0
-2.08907e-05,2.18293e-05,1.64291e-05,-0.000254126,9.14155e-05,-2.15238e-05,5.9956e-05,-5.344e-06,0
-2.23829e-05,2.36441e-05,8.43981e-06,-0.000121088,0.000107918,-4.42287e-05,4.85041e-05,-4.894e-06,0
-1.32652e-05,2.27377e-05,1.66329e-06,-1.31948e-05,9.60036e-05,-4.01401e-05,4.19849e-05,-5.34026e-06,0
-8.39387e-06,1.79267e-05,-7.04086e-06,-3.31024e-05,9.1976e-05,-2.92148e-05,3.57737e-05,-5.6827e-06,0
-1.39521e-05,1.22406e-05,-2.06331e-05,-0.00021192,0.000135387,-2.99419e-05,2.79073e-05,-5.48716e-06,0
-2.46702e-05,9.03158e-06,-3.509e-05,-0.000519924,0.000236805,-3.77166e-05,2.11805e-05,-4.88294e-06,0
-3.36013e-05,8.14583e-06,-4.58895e-05,-0.00089055,0.00032366,-4.05118e-05,1.7836e-05,-3.76744e-06,0
-3.77196e-05,8.02125e-06,-5.32717e-05,-0.0011445,0.000333191,-3.56096e-05,1.7058e-05,-3.08028e-06,0
-3.92413e-05,7.53392e-06,-5.73988e-05,-0.00101682,0.000274716,-2.65954e-05,1.84204e-05,-2.38694e-06,0
-4.02437e-05,4.54218e-06,-5.36545e-05,-0.000409826,0.00018164,-1.5873e-05,2.29885e-05,-1.1203e-06,0
-4.11753e-05,1.69061e-06,-3.40501e-05,0.000435127,5.21862e-05,-2.70557e-06,3.06735e-05,-9.47152e-07,0
-3.98907e-05,3.39797e-06,-3.79281e-07,0.00107165,-0.000115635,1.33647e-05,3.45458e-05,-1.48491e-06,0
-3.40279e-05,1.06372e-05,3.18802e-05,0.00117235,-0.000225843,3.10792e-05,3.08178e-05,-2.13829e-06,0
-2.1952e-05,2.14038e-05,4.98808e-05,0.000834352,-0.000174121,4.69603e-05,1.98893e-05,-3.33386e-06,0
-9.01691e-06,3.2388e-05,5.63179e-05,0.00041619,-3.72697e-05,5.39085e-05,6.48298e-06,-3.89064e-06,0
-8.97104e-08,4.08031e-05,5.88006e-05,0.000111544,2.09122e-05,5.30713e-05,-3.04718e-06,-3.51844e-06,0
3.76094e-06,4.4942e-05,5.91785e-05,-8.72677e-05,1.03354e-05,5.22036e-05,-4.18079e-06,-2.22327e-06,0
2.88429e-06,4.24245e-05,5.01657e-05,-0.000171944,-5.58819e-06,4.69539e-05,1.32218e-06,-6.67794e-08,0
-2.73348e-06,3.37328e-05,2.86633e-05,-0.000123841,-5.17372e-05,3.25884e-05,7.47265e-06,1.30675e-06,0
-1.01874e-05,2.58944e-05,8.09164e-06,-2.70526e-05,-0.000111446,1.27642e-05,6.69536e-06,6.50114e-07,0
-1.6403e-05,2.25982e-05,-5.7921e-07,-7.19242e-07,-0.000102123,-4.04917e-06,-2.50539e-06,-1.36484e-06,0
-1.82427e-05,2.18758e-05,-4.60811e-06,-4.61614e-05,-2.65103e-05,-1.24644e-05,-1.81764e-05,-2.62852e-06,0
-8.25459e-06,2.63286e-05,-1.06983e-05,-8.36628e-05,4.58285e-05,-1.77966e-05,-3.71759e-05,-1.32931e-06,0
1.60716e-05,3.82866e-05,-1.60011e-05,-5.94072e-05,5.61438e-05,-2.04979e-05,-5.2102e-05,1.17989e-06,0
4.21361e-05,4.91868e-05,-2.14562e-05,-2.38758e-06,-3.65046e-05,-2.7578e-05,-6.2583e-05,2.71021e-06,0
4.41934e-05,5.07864e-05,-2.94317e-05,-2.95932e-05,-0.000246306,-4.5754e-05,-6.91765e-05,2.70006e-06,0
1.82906e-05,4.40447e-05,-3.67518e-05,-0.000112543,-0.000473508,-6.37539e-05,-7.21154e-05,2.39095e-06,0
-1.36598e-05,3.56981e-05,-3.74631e-05,-0.000138183,-0.000494061,-6.49073e-05,-7.28962e-05,1.63814e-06,0
-3.41475e-05,3.1707e-05,-3.01864e-05,-8.7079e-05,-0.000265318,-4.84429e-05,-7.2522e-05,-4.34559e-07,0
-4.29281e-05,3.24688e-05,-1.63547e-05,1.79639e-05,7.90588e-06,-3.90992e-05,-7.00001e-05,2.2983e-07,0
-4.76354e-05,3.25714e-05,-1.72379e-07,0.000128086,0.000179132,-5.02636e-05,-6.07223e-05,2.09584e-06,0
-5.52023e-05,2.68102e-05,9.92977e-06,0.000203417,0.000250182,-5.87635e-05,-4.48093e-05,2.27738e-06,0
-7.37783e-05,1.30974e-05,8.04134e-06,0.000148275,0.000268881,-4.00058e-05,-2.87651e-05,1.23763e-06,0
-9.96511e-05,-4.18898e-06,-2.61933e-06,-8.53975e-05,0.000244043,-5.26454e-06,-2.86255e-05,-5.60383e-08,0
-0.000123004,-1.677e-05,-1.3412e-05,-0.000352698,0.000170238,1.79293e-05,-5.22645e-05,1.49609e-07,0
-0.000132376,-2.46418e-05,-2.11239e-05,-0.000428412,0.000130354,2.72033e-05,-8.4753e-05,-8.13664e-09,0
-0.000126738,-3.20041e-05,-2.60284e-05,-0.000269242,0.000201362,3.32685e-05,-9.87199e-05,-2.08727e-06,0
-0.00011322,-3.97843e-05,-2.88638e-05,-2.19371e-05,0.000290598,3.79772e-05,-8.07589e-05,-4.96104e-06,0
-8.28494e-05,-4.39177e-05,-3.04351e-05,0.00019333,0.000254495,4.00164e-05,-4.10136e-05,-5.65062e-06,0
-3.6788e-05,-4.0923e-05,-3.16353e-05,0.000350149,8.563e-05,1.6584e-05,5.22161e-06,-4.68435e-06,0
-5.20123e-06,-3.18052e-05,-3.32484e-05,0.000469268,-9.13482e-05,-4.82559e-05,4.55574e-05,-4.17302e-06,0
-5.84396e-06,-2.19312e-05,-3.47099e-05,0.000531692,-0.000184663,-0.00010524,7.19937e-05,-3.90944e-06,0
-1.94353e-05,-1.66172e-05,-3.59676e-05,0.00047859,-0.000227287,-9.94578e-05,8.23264e-05,-2.96702e-06,0
-2.80149e-05,-1.54471e-05,-3.60707e-05,0.000306798,-0.000255089,-6.09239e-05,8.28638e-05,-2.13117e-06,0
-3.03782e-05,-1.46559e-05,-3.12011e-05,0.000138347,-0.000219528,-3.63399e-05,7.77306e-05,-1.53482e-06,0
-2.99639e-05,-1.25575e-05,-2.05539e-05,5.98093e-05,-9.36941e-05,-2.2271e-05,7.01979e-05,-1.42269e-07,0
-2.83622e-05,-1.08431e-05,-1.05074e-05,1.06938e-05,4.07689e-05,-1.09313e-05,6.56002e-05,1.21254e-06,0
-2.38773e-05,-6.78923e-06,-3.15843e-06,-0.000125126,0.000110743,-5.50215e-06,6.47528e-05,3.95823e-07,0
-1.60737e-05,3.56403e-06,5.11131e-06,-0.000317724,0.000126395,-4.71742e-06,6.30366e-05,-4.33846e-08,0
-9.85667e-06,1.35942e-05,7.78539e-06,-0.000411804,0.000136706,-8.21467e-06,5.96739e-05,1.52171e-06,0
-8.14709e-06,1.68907e-05,-3.59312e-07,-0.000400159,0.000150308,-8.84938e-06,5.60959e-05,2.84464e-06,0
-1.18317e-05,1.82313e-05,-3.67741e-06,-0.000309761,0.000143911,1.15624e-05,5.35067e-05,4.66463e-06,0
-2.00466e-05,2.02303e-05,6.97781e-06,-0.000121014,0.000111116,3.43179e-05,4.89335e-05,1.24038e-05,0
-2.73302e-05,1.88311e-05,1.33372e-05,0.000104808,1.75264e-06,2.6315e-05,3.71591e-05,2.85728e-05,0
-3.03936e-05,1.03285e-05,3.50629e-06,0.000285167,-0.00018171,-7.02793e-06,1.97471e-05,3.85795e-05,0
-3.04798e-05,1.46209e-06,-9.85449e-06,0.000369627,-0.000238598,-3.83204e-05,4.58269e-06,3.77824e-05,0
-2.7349e-05,2.93459e-08,-1.08587e-05,0.000347301,-4.09355e-05,-4.65751e-05,-2.79775e-06,3.24834e-05,0
-2.15379e-05,4.5311e-06,-1.01395e-06,0.000191496,0.000175169,-5.11453e-05,-2.56997e-05,1.93755e-05,0
-1.82604e-05,9.39075e-06,5.4677e-06,-6.60821e-06,0.000158613,-7.7084e-05,-9.90217e-05,-2.3501e-07,0
-1.99352e-05,1.31429e-05,6.88226e-06,-0.000103627,2.20373e-05,-0.000105791,-0.000178829,-1.858e-05,0
-2.35814e-05,1.78955e-05,8.08479e-06,-0.000149931,-4.11772e-05,-8.80314e-05,-0.000182548,-2.97367e-05,0
-2.34322e-05,2.05823e-05,8.76756e-06,-0.000210922,1.79496e-05,-2.25746e-05,-0.000107165,-3.37584e-05,0
-2.0168e-05,2.03688e-05,5.11903e-06,-0.000239823,0.000128296,1.73544e-05,-1.12557e-06,-3.11963e-05,0
-1.62157e-05,1.79065e-05,-1.44767e-07,-0.00021316,0.000182362,3.70265e-06,9.05982e-05,-2.51879e-05,0
-1.22359e-05,1.57918e-05,-3.81123e-06,-0.00018487,0.000135403,-1.34559e-05,0.000146035,-1.93563e-05,0
-9.15964e-06,1.67076e-05,-7.61256e-06,-0.000194345,4.29026e-05,-6.48013e-06,0.000159516,-1.25844e-05,0
-7.77454e-06,2.1251e-05,-9.68695e-06,-0.000212143,-9.69048e-06,1.64486e-05,0.000145584,-1.91226e-06,0
-9.67854e-06,2.62388e-05,-1.07721e-05,-0.000192969,1.69931e-05,7.23228e-05,0.000122964,1.10259e-05,0
-1.76537e-05,2.73851e-05,-1.13e-05,-0.000105338,7.39262e-05,0.000150556,0.000100474,1.79457e-05,0
-2.92586e-05,2.40512e-05,-6.0429e-06,5.87632e-05,6.37484e-05,0.000174838,7.94373e-05,1.52485e-05,0
-3.88789e-05,1.88748e-05,8.60806e-06,0.000233797,-3.63314e-06,0.000116672,5.95547e-05,9.41362e-06,0
-5.16117e-05,1.49804e-05,2.30336e-05,0.000340624,-5.57204e-05,4.1116e-05,4.47524e-05,7.23176e-06,0
-7.28526e-05,1.10042e-05,2.38992e-05,0.000339885,-7.56743e-05,-1.91183e-06,3.38912e-05,8.46212e-06,0
-9.12404e-05,5.91182e-06,9.37212e-06,0.00020215,-9.42227e-05,-1.54218e-05,2.78898e-05,1.07165e-05,0
-9.29098e-05,-6.2818e-08,-9.59737e-06,-2.86452e-05,-0.000110454,-1.95529e-05,2.99654e-05,1.2016e-05,0
-8.0988e-05,-7.6081e-06,-2.53322e-05,-0.000247519,-0.000153421,-3.50578e-05,3.61286e-05,1.12614e-05,0
-6.48234e-05,-1.77356e-05,-3.81038e-05,-0.000398411,-0.000213474,-6.06682e-05,3.49309e-05,8.99531e-06,0
-4.40558e-05,-2.53051e-05,-4.82388e-05,-0.000454707,-0.000192937,-7.07389e-05,2.58179e-05,7.76682e-06,0
-9.57195e-06,-2.72176e-05,-5.16989e-05,-0.00036662,-2.62757e-05,-3.16406e-05,1.5934e-05,5.91249e-06,0
2.89182e-05,-2.28276e-05,-4.57282e-05,-0.000161239,0.000171749,2.10914e-05,1.1969e-05,3.12959e-06,0
4.70278e-05,-1.12977e-05,-3.62359e-05,2.15753e-05,0.000228399,2.60978e-05,1.18348e-05,1.71804e-06,0
4.25126e-05,3.16087e-06,-3.15567e-05,7.36693e-05,0.00014965,9.56443e-06,1.19629e-05,1.68353e-06,0
3.48199e-05,1.84631e-05,-2.54743e-05,8.16874e-05,7.51954e-05,1.98544e-06,1.23567e-05,1.00889e-06,0
3.46078e-05,2.97208e-05,-1.16007e-05,0.000144127,8.61454e-05,2.10009e-07,1.311e-05,-1.03916e-06,0
3.57934e-05,3.28325e-05,9.16386e-07,0.000169586,0.000115295,-2.33855e-06,1.36968e-05,-1.73878e-06,0
3.83531e-05,3.22194e-05,8.98855e-06,0.000134919,0.000109065,-6.13254e-06,1.11234e-05,-2.56288e-06,0
3.22669e-05,2.97505e-05,1.40227e-05,2.44475e-05,5.41176e-05,1.52285e-06,4.70413e-06,-3.18872e-06,0
-7.68079e-07,2.24028e-05,1.40937e-05,-8.27261e-05,-1.463e-05,2.24383e-05,-3.95677e-06,-1.58903e-06,0
-5.32239e-05,1.01906e-05,9.54101e-06,-5.8283e-05,-4.14172e-05,5.48809e-05,-2.9976e-05,1.53435e-06,0
-8.94953e-05,2.02481e-06,4.85998e-06,9.06426e-05,-2.5603e-05,8.67942e-05,-7.89676e-05,4.85168e-06,0
-8.43762e-05,3.75446e-06,3.26763e-06,0.000243946,-1.59846e-05,9.27879e-05,-0.000116632,6.24862e-06,0
-5.17873e-05,9.13143e-06,2.36678e-06,0.000286359,-3.14173e-05,5.86708e-05,-0.000110074,4.4582e-06,0
-2.68416e-05,9.90466e-06,9.65979e-07,0.000236557,-2.20548e-05,8.95304e-06,-6.07575e-05,1.63121e-06,0
-2.95122e-05,5.69746e-06,1.91617e-06,0.000125745,3.50107e-05,-2.44502e-05,4.74147e-06,1.05038e-06,0
-5.55983e-05,6.40341e-07,2.53686e-06,1.34921e-05,0.000107104,-3.87043e-05,5.8268e-05,3.40177e-06,0
-8.99068e-05,-4.73792e-06,-3.41415e-06,-4.85105e-05,0.00014753,-4.32697e-05,8.37026e-05,5.49071e-06,0
-0.000109364,-1.013e-05,-1.59324e-05,-5.88677e-05,0.000142229,-4.15328e-05,8.47621e-05,5.21161e-06,0
-0.000100173,-1.21616e-05,-2.73933e-05,-7.37641e-05,8.88574e-05,-4.14378e-05,7.6843e-05,4.0256e-06,0
-7.31475e-05,-9.59733e-06,-3.06972e-05,-0.000101092,-2.40109e-05,-5.36409e-05,7.0547e-05,3.03793e-06,0
-5.42189e-05,-5.58947e-06,-2.87653e-05,-0.000152701,-0.000195561,-6.6976e-05,6.01953e-05,2.11e-06,0
-5.0352e-05,-1.03859e-06,-2.80948e-05,-0.000217072,-0.000359434,-5.6869e-05,4.00476e-05,2.23335e-07,0
-4.8006e-05,3.83328e-06,-2.61173e-05,-0.000239791,-0.000370581,-2.91935e-05,2.12632e-05,-3.22309e-06,0
-3.54158e-05,6.84776e-06,-1.77155e-05,-0.00017357,-0.000180288,-2.12786e-05,3.00448e-05,-6.6013e-06,0
-1.31531e-05,7.49223e-06,-6.80102e-06,-6.40492e-05,5.95242e-05,-3.04329e-05,7.2815e-05,-8.84834e-06,0
1.15601e-05,7.00421e-06,1.27048e-06,-1.00944e-05,0.000194084,-2.50286e-05,0.000120319,-1.14648e-05,0
1.73762e-05,7.87983e-06,5.61027e-06,-9.9776e-07,0.000208403,-3.66721e-05,0.000152801,-1.21183e-05,0
-1.07863e-05,9.02196e-06,4.48392e-06,7.95987e-06,0.000127999,-0.000108374,0.000146194,-9.38723e-06,0
-4.35975e-05,8.14805e-06,5.47994e-07,6.11305e-06,-2.98386e-05,-0.00013188,7.32571e-05,-6.58665e-06,0
-6.17931e-05,5.23877e-06,-5.28546e-06,-7.69678e-05,-0.000171923,-3.92092e-05,-2.87861e-05,-4.15846e-06,0
-7.49092e-05,-2.48949e-06,-1.65167e-05,-0.00023283,-0.000275132,3.58446e-05,-8.60547e-05,-1.3342e-06,0
-7.20029e-05,-1.30384e-05,-3.08488e-05,-0.000327485,-0.000314946,2.04482e-05,-8.88311e-05,-1.06666e-07,0
-3.96084e-05,-2.16763e-05,-4.23194e-05,-0.000238533,-0.000227963,-1.10103e-05,-8.58421e-05,-1.10251e-06,0
-4.10646e-06,-2.6521e-05,-4.80694e-05,6.08964e-05,-8.00269e-05,-7.87359e-06,-8.45142e-05,-2.78171e-06,0
9.20219e-07,-2.63033e-05,-4.7472e-05,0.000444264,3.9551e-05,4.26103e-06,-7.00193e-05,-3.00841e-06,0
-1.54643e-05,-2.00865e-05,-3.86727e-05,0.000684783,0.000121082,1.06048e-05,-4.72349e-05,-1.7097e-06,0
-2.36653e-05,-1.10074e-05,-2.03625e-05,0.000659106,0.000202237,1.40423e-05,-2.03466e-05,-3.09011e-07,0
-1.66759e-05,-1.7636e-06,1.25171e-06,0.000403657,0.000246074,1.74033e-05,7.53734e-06,2.1456e-06,0
-8.07938e-06,6.13133e-06,1.55189e-05,8.12885e-05,0.00026398,1.69331e-05,3.35367e-05,5.18965e-06,0
-8.10718e-06,1.15842e-05,2.34457e-05,-0.000148117,0.000349933,6.91906e-06,4.62226e-05,6.10881e-06,0
-1.14953e-05,1.74346e-05,3.24624e-05,-0.000274148,0.000509504,-8.43127e-06,3.81847e-05,4.90107e-06,0
-1.00774e-05,2.4298e-05,4.13521e-05,-0.00035613,0.00055477,-1.99794e-05,2.05151e-05,3.27951e-06,0
-7.87197e-06,2.72128e-05,4.35724e-05,-0.000373674,0.000350714,-2.32984e-05,9.3919e-06,1.99765e-06,0
-1.13653e-05,2.3231e-05,4.40225e-05,-0.000294738,-4.03623e-06,-2.56567e-05,7.07354e-06,1.31123e-06,0
-1.98572e-05,1.78464e-05,4.93208e-05,-0.000166204,-0.000339654,-3.49265e-05,8.02597e-06,3.75756e-07,0
-2.87135e-05,1.49811e-05,5.3706e-05,-8.25741e-05,-0.000569392,-5.28772e-05,3.7344e-06,-1.14218e-06,0
-3.46908e-05,1.44487e-05,4.83888e-05,-7.47562e-05,-0.000653583,-6.87259e-05,-1.10527e-05,-2.01574e-06,0
-3.55838e-05,1.72205e-05,3.2001e-05,-8.83686e-05,-0.000512367,-6.66167e-05,-2.64463e-05,-1.70921e-06,0
-2.97576e-05,2.51121e-05,8.68298e-06,-7.70888e-05,-0.000182557,-3.41954e-05,-2.74606e-05,-1.44068e-07,0
-1.99935e-05,3.35857e-05,-1.82503e-05,-9.4781e-05,0.000116004,1.13968e-05,-1.4845e-05,2.42596e-06,0
-1.12481e-05,3.88615e-05,-4.67049e-05,-0.00020079,0.000277232,4.29379e-05,-3.86788e-06,5.51762e-06,0
-6.37987e-06,4.03696e-05,-7.35145e-05,-0.00031802,0.000324243,4.94306e-05,-2.92137e-06,8.65685e-06,0
-5.17642e-06,3.78374e-05,-9.203e-05,-0.000314025,0.000237694,4.16803e-05,-5.4936e-06,9.09307e-06,0
-7.00285e-06,3.81963e-05,-9.20292e-05,-0.000107487,7.37447e-05,3.54244e-05,-1.93803e-05,5.72953e-06,0
-1.07171e-05,4.34411e-05,-7.35978e-05,0.000226755,-6.97677e-05,3.03189e-05,-8.3937e-05,2.93988e-06,0
-1.33057e-05,4.64218e-05,-4.94601e-05,0.000499652,-0.000139535,1.63062e-05,-0.000152546,3.36875e-06,0
-7.45989e-06,4.66647e-05,-2.84597e-05,0.000552688,-0.00014475,-1.16041e-05,-0.000129372,4.33686e-06,0
4.46118e-06,4.86457e-05,-1.43424e-05,0.000411173,-9.45399e-05,-4.15494e-05,-2.44922e-05,3.40771e-06,0
1.32248e-05,5.15693e-05,-8.60918e-06,0.000232512,-5.07856e-05,-5.62077e-05,9.05722e-05,1.99415e-06,0
1.68256e-05,5.39302e-05,-7.73937e-06,5.57955e-05,-3.97301e-05,-6.10713e-05,0.000159504,2.75102e-06,0
1.02024e-05,5.6672e-05,-6.36785e-06,-7.26592e-05,-2.47005e-05,-5.67326e-05,0.000182384,3.96546e-06,0
-6.44511e-06,5.89685e-05,-6.70275e-06,-0.000102113,2.16749e-05,-3.08103e-05,0.000177035,5.14307e-06,0
-2.66447e-05,6.03504e-05,-8.60773e-06,-7.289e-05,8.40422e-05,2.01206e-06,0.00015478,6.41319e-06,0
-4.41042e-05,6.09276e-05,-4.53434e-06,-5.72682e-05,0.000123995,2.43596e-05,0.000114473,7.29401e-06,0
-5.66645e-05,5.9493e-05,5.60381e-06,-5.81094e-05,0.000148116,3.36383e-05,5.1857e-05,7.76361e-06,0
-6.50362e-05,5.4194e-05,1.22593e-05,-9.64221e-06,0.000154594,3.35926e-05,-1.85542e-05,7.53015e-06,0
-7.04331e-05,4.75039e-05,1.25449e-05,9.18463e-05,0.000120451,1.50028e-05,-7.54091e-05,7.34961e-06,0
-7.12481e-05,4.30997e-05,1.26615e-05,0.000153412,4.2664e-05,-3.14353e-05,-0.000100295,7.51735e-06,0
-6.627e-05,4.06693e-05,1.43577e-05,6.41569e-05,-2.06683e-05,-8.47298e-05,-9.15467e-05,7.87887e-06,0
-6.13756e-05,3.75871e-05,1.38851e-05,-8.6086e-05,-3.63375e-05,-9.68296e-05,-5.7164e-05,7.17897e-06,0
-5.86533e-05,3.40003e-05,1.18035e-05,-0.000109518,-7.64073e-06,-5.9323e-05,-1.45379e-05,6.11912e-06,0
-5.54248e-05,3.21799e-05,1.20366e-05,3.22804e-05,5.04971e-05,-1.90336e-05,2.23234e-05,4.62371e-06,0
-4.9674e-05,3.19132e-05,1.56029e-05,0.000161755,0.000118493,-1.28392e-06,4.57692e-05,2.22021e-06,0
-4.49667e-05,3.10396e-05,2.02947e-05,0.000138483,0.000129693,2.72887e-06,5.82778e-05,7.3986e-07,0
-4.48718e-05,2.62028e-05,1.87095e-05,3.70403e-05,3.87026e-05,-1.56769e-06,6.03377e-05,1.29637e-06,0
-4.54161e-05,1.89786e-05,6.11522e-06,-1.42253e-05,-0.00013203,-1.33122e-05,5.37644e-05,1.01469e-06,0
-3.91362e-05,1.49505e-05,-1.04208e-05,-1.53323e-05,-0.000296301,-2.41059e-05,4.20955e-05,1.41915e-08,0
-3.06891e-05,1.64364e-05,-2.13694e-05,-5.60842e-05,-0.000298103,-2.67148e-05,2.69079e-05,1.65546e-07,0
-2.61181e-05,1.99256e-05,-2.51e-05,-0.000175163,-5.01113e-05,-2.71009e-05,1.35094e-05,1.52147e-07,0
-2.78568e-05,2.12092e-05,-2.65764e-05,-0.000316919,0.000234759,-2.9361e-05,8.10759e-06,-2.04834e-06,0
-3.79846e-05,2.01259e-05,-2.61218e-05,-0.000420091,0.000251447,-2.21395e-05,9.53655e-06,-4.80728e-06,0
-4.94054e-05,2.07987e-05,-1.90167e-05,-0.000384931,7.20726e-05,-2.43568e-06,1.07041e-05,-4.79022e-06,0
-5.97002e-05,1.98453e-05,-1.02134e-05,-0.000227719,-5.49245e-05,1.83936e-05,6.67394e-06,-4.37561e-06,0
-6.33177e-05,1.53351e-05,-7.50343e-06,-7.31664e-05,-8.19742e-05,2.78555e-05,-1.28518e-07,-4.26142e-06,0
-6.11075e-05,1.35049e-05,-9.83001e-06,0.000108314,-7.71724e-05,5.21637e-06,-3.4597e-06,-4.39216e-06,0
-7.04198e-05,1.26394e-05,-1.28528e-05,0.000246614,-6.98539e-05,-5.17417e-05,-6.30745e-07,-4.59696e-06,0
-8.3597e-05,9.2176e-06,-1.49689e-05,0.000269441,-2.83031e-05,-7.7549e-05,2.67478e-05,-3.41616e-06,0
-7.94733e-05,7.04122e-06,-1.40441e-05,0.000199602,8.38233e-05,-4.23093e-05,9.12376e-05,-1.96103e-06,0
-6.26056e-05,8.86094e-06,-9.5588e-06,0.000104526,0.000204803,-1.15981e-05,0.000167916,-1.49106e-06,0
-5.53897e-05,1.18441e-05,-6.78909e-06,4.74595e-05,0.000194653,-2.84663e-05,0.000227871,-1.70937e-06,0
-6.30543e-05,1.17725e-05,-1.10254e-05,4.00376e-05,3.51569e-05,-6.98277e-05,0.000259648,-1.93117e-06,0
-6.6628e-05,1.17808e-05,-1.64534e-05,8.26071e-05,-9.16685e-05,-9.57955e-05,0.000246014,-1.61509e-06,0
-5.72769e-05,1.40898e-05,-1.46062e-05,0.000119226,-3.21816e-05,-7.47478e-05,0.000167604,-5.52256e-07,0
-4.57161e-05,1.54324e-05,-7.85112e-06,9.47826e-05,0.000154163,-6.73072e-06,3.72664e-05,1.71583e-06,0
-4.23508e-05,1.36027e-05,-2.44194e-06,2.07771e-05,0.000329144,5.23873e-05,-0.000106997,4.87659e-06,0
-3.95661e-05,9.64379e-06,-7.71713e-07,-3.64159e-05,0.000450047,5.89376e-05,-0.000238153,6.57463e-06,0
-3.32388e-05,5.90849e-06,-3.47273e-06,-8.58277e-05,0.000477921,3.51447e-05,-0.000336454,5.95304e-06,0
-4.40921e-05,1.43472e-06,-1.2375e-05,-0.000137827,0.000349657,1.95974e-05,-0.000373885,3.25263e-06,0
-8.57345e-05,-3.98644e-06,-2.3443e-05,-0.000135161,0.000102677,1.21575e-05,-0.00033484,-2.81952e-09,0
-0.000127186,-7.44707e-06,-2.83616e-05,-5.66775e-05,-0.00012576,-6.71064e-06,-0.000245278,-1.58551e-06,0
-0.00012671,-4.60092e-06,-2.19495e-05,3.10799e-05,-0.000250645,-2.66179e-05,-0.000146512,-2.1085e-06,0
-8.67224e-05,4.80104e-07,-1.04477e-05,4.62513e-05,-0.000304604,-1.4183e-05,-6.44189e-05,-3.64764e-06,0
-4.54256e-05,2.1107e-06,-4.65675e-06,-5.32402e-05,-0.000356324,3.33902e-05,-5.88105e-06,-6.19695e-06,0
-2.06598e-05,1.01345e-06,-5.87999e-06,-0.000260261,-0.00038423,8.16116e-05,2.92518e-05,-6.86321e-06,0
3.33425e-06,-5.48079e-07,-1.18704e-05,-0.000530166,-0.000333835,0.000123125,4.07946e-05,-5.55063e-06,0
3.69661e-05,-1.41097e-06,-2.16356e-05,-0.0007672,-0.000275927,0.000140234,2.94871e-05,-4.96386e-06,0
6.79339e-05,3.39128e-07,-3.21068e-05,-0.000791552,-0.000297495,9.28566e-05,1.06334e-05,-5.68921e-06,0
6.96315e-05,1.628e-06,-4.01288e-05,-0.000457003,-0.000297539,6.64997e-06,1.39441e-06,-5.74443e-06,0
5.19232e-05,-8.23535e-07,-4.28984e-05,5.47354e-05,-0.000132668,-4.27905e-05,-1.93607e-06,-3.27698e-06,0
4.50203e-05,-1.27218e-06,-3.78465e-05,0.000427038,0.000121504,-2.9333e-05,-2.43516e-06,-2.60252e-06,0
4.93932e-05,3.59196e-06,-2.76052e-05,0.000558995,0.000214376,5.67918e-06,1.28661e-06,-3.78785e-06,0
5.46297e-05,1.06322e-05,-1.73588e-05,0.000513577,9.24761e-05,2.93897e-05,9.46151e-06,-2.52693e-06,0
5.18378e-05,1.68069e-05,-6.69313e-06,0.000441316,-4.42919e-05,2.83777e-05,2.41224e-05,2.42019e-07,0
4.16451e-05,1.81423e-05,6.0814e-06,0.000437357,-0.000127716,1.26815e-05,4.34479e-05,1.76711e-06,0
2.81922e-05,1.42716e-05,1.68766e-05,0.000465278,-0.000121846,-6.57081e-06,6.07118e-05,1.25897e-06,0
1.41997e-05,9.84841e-06,2.10088e-05,0.000400924,2.13259e-05,-2.55932e-05,6.77281e-05,9.20198e-07,0
3.8309e-06,9.52558e-06,1.88391e-05,0.00022069,0.000224027,-3.65132e-05,6.22969e-05,1.00921e-06,0
-3.32872e-06,1.1738e-05,1.46495e-05,3.78133e-05,0.000357245,-3.82748e-05,5.07124e-05,3.32544e-07,0
