ch1,ch2,ch3,ch4,ch5,ch6,ch7,ch8,class
-8.03937e-05,1.51521e-05,-6.96135e-05,6.15079e-05,-4.63695e-05,-3.01313e-05,3.65222e-05,5.59141e-06,0
-7.09047e-05,1.50416e-05,-6.59422e-05,0.000253339,-6.38359e-05,-2.70606e-05,4.17591e-05,5.0038e-06,0
-5.66223e-05,1.69445e-05,-5.6139e-05,0.000188002,-6.88598e-05,-1.86541e-05,4.46669e-05,4.60987e-06,0
-3.72449e-05,2.35526e-05,-4.04039e-05,-0.000148728,-4.17235e-05,-7.2247e-06,3.88717e-05,3.65407e-06,0
-1.06342e-05,3.63978e-05,-1.21351e-05,-0.000400788,-1.01926e-06,5.21197e-06,3.05559e-05,3.679e-06,0
1.93904e-05,4.39795e-05,1.18624e-05,-0.000399571,1.35989e-05,1.43453e-05,2.52698e-05,3.99724e-06,0
3.56654e-05,3.89591e-05,1.31783e-05,-0.000342129,7.35045e-06,1.22219e-05,2.45928e-05,2.04913e-06,0
2.78011e-05,2.72835e-05,2.38791e-06,-0.000299528,4.2019e-06,1.96364e-06,3.07833e-05,1.10417e-06,0
1.05096e-05,2.07401e-05,-2.01577e-06,-0.000188282,2.79198e-05,-2.46592e-06,3.79889e-05,1.94481e-06,0
1.81008e-07,2.19353e-05,2.27641e-06,9.42474e-05,7.92701e-05,-1.02351e-06,4.14695e-05,1.02425e-06,0
6.06166e-06,2.54462e-05,1.06354e-05,0.000409499,0.000109088,1.94376e-06,4.00047e-05,1.84974e-07,0
1.96277e-05,2.88521e-05,1.99175e-05,0.000523787,8.3478e-05,6.22478e-06,3.37827e-05,3.14926e-06,0
2.35695e-05,2.94114e-05,2.7337e-05,0.000367984,1.1646e-05,9.16696e-06,2.3557e-05,6.72218e-06,0
1.28836e-05,2.6949e-05,3.17596e-05,0.000102254,-6.14007e-05,6.695e-06,1.23602e-05,6.85719e-06,0
-7.33607e-06,2.3795e-05,3.55164e-05,-0.000113451,-8.77994e-05,8.24619e-08,2.61377e-06,4.44575e-06,0
-2.58811e-05,2.38276e-05,4.06421e-05,-0.000211312,-6.12424e-05,-5.19627e-06,-4.30815e-06,1.43154e-06,0
-3.70266e-05,2.63625e-05,4.61802e-05,-0.000135091,2.09799e-05,-1.15367e-05,-6.58168e-06,-1.07571e-06,0
-4.2595e-05,2.72206e-05,4.92161e-05,6.45513e-05,0.000154008,-2.43787e-05,-5.68168e-06,-7.76434e-07,0
-4.71424e-05,2.48127e-05,4.42777e-05,0.000253426,0.000252521,-3.7261e-05,-2.6256e-06,1.48981e-06,0
-5.03879e-05,2.17788e-05,2.80546e-05,0.000324404,0.00022452,-3.92947e-05,1.79416e-06,2.78653e-06,0
-5.13689e-05,2.0258e-05,2.47488e-06,0.000277077,0.000102649,-3.60391e-05,6.41397e-06,2.8574e-06,0
-4.81887e-05,2.06515e-05,-2.45799e-05,0.00014987,-3.42674e-05,-3.83429e-05,8.34622e-06,3.91371e-06,0
-4.11362e-05,2.16458e-05,-4.70564e-05,-5.17397e-06,-0.000156841,-3.35861e-05,4.90805e-06,8.0599e-06,0
-3.47807e-05,2.0834e-05,-6.65671e-05,-0.000169004,-0.000253304,-6.95874e-06,-6.27462e-06,1.62629e-05,0
-3.3397e-05,1.86504e-05,-8.07799e-05,-0.000283764,-0.000300652,1.69457e-05,-2.26137e-05,2.34083e-05,0
-3.46866e-05,1.82283e-05,-7.87992e-05,-0.000282308,-0.000254496,1.41492e-05,-3.50185e-05,2.31131e-05,0
-3.36066e-05,2.18364e-05,-6.04996e-05,-0.000213835,-9.91924e-05,9.75042e-06,-3.77204e-05,1.5934e-05,0
-3.01681e-05,2.45928e-05,-4.21554e-05,-0.000229541,7.91821e-05,2.88004e-05,-3.17285e-05,4.85883e-06,0
-2.86079e-05,2.21082e-05,-3.40849e-05,-0.000445025,0.000150422,5.06608e-05,-1.96001e-05,-6.03922e-06,0
-2.9528e-05,1.74175e-05,-3.40567e-05,-0.000643205,0.000114564,4.92811e-05,-5.19908e-06,-1.42522e-05,0
-3.20311e-05,1.27546e-05,-3.42754e-05,-0.000430297,5.71527e-05,2.69456e-05,1.11827e-05,-2.02766e-05,0
-3.34875e-05,9.7399e-06,-2.8751e-05,7.61954e-05,1.89506e-05,5.0419e-06,2.66117e-05,-2.29571e-05,0
-3.06329e-05,1.00324e-05,-2.38989e-05,0.000475355,-2.06604e-06,-9.53113e-06,3.78281e-05,-1.99133e-05,0
-2.5283e-05,1.20559e-05,-2.31234e-05,0.000606167,-2.75875e-05,-2.11037e-05,4.54946e-05,-1.41267e-05,0
-2.19807e-05,1.40396e-05,-2.01505e-05,0.000482517,-4.79296e-05,-2.8126e-05,4.83661e-05,-9.82549e-06,0
-2.68573e-05,1.37048e-05,-1.38227e-05,0.00017861,-5.04131e-05,-3.54957e-05,4.57851e-05,-5.95429e-06,0
-3.72032e-05,1.03544e-05,-1.17176e-05,-0.000157386,-4.25968e-05,-4.13515e-05,3.94457e-05,-2.97231e-06,0
-4.32963e-05,5.84886e-06,-1.74286e-05,-0.000262675,-3.21154e-05,-3.99139e-05,3.40311e-05,-9.44418e-07,0
-4.31657e-05,4.26286e-06,-2.30634e-05,-7.78556e-05,-1.37509e-05,-3.14526e-05,2.90765e-05,7.28086e-07,0
-3.98958e-05,7.47207e-06,-2.07731e-05,0.000166598,7.54711e-06,-2.17959e-05,2.35334e-05,3.98111e-07,0
-3.36456e-05,1.19905e-05,-9.00224e-06,0.000236943,2.58587e-05,-1.24355e-05,1.63683e-05,1.75894e-07,0
-2.5929e-05,1.24984e-05,5.07283e-06,0.000149775,4.38344e-05,-1.05094e-06,1.02177e-05,9.96363e-07,0
-1.84088e-05,7.66605e-06,1.45818e-05,6.926e-05,5.95487e-05,1.23839e-05,8.37862e-06,1.22248e-06,0
-1.54895e-05,1.48917e-06,1.65345e-05,7.47028e-05,7.60249e-05,2.16462e-05,9.56238e-06,-9.49566e-07,0
-2.1694e-05,-3.45408e-06,1.20175e-05,0.000132105,8.69998e-05,1.41464e-05,1.11289e-05,-3.8157e-06,0
-3.41696e-05,-5.79118e-06,5.82872e-06,0.000174957,8.67495e-05,-1.10019e-05,1.18504e-05,-4.42246e-06,0
-4.52794e-05,-4.66757e-06,1.2608e-07,0.000167301,9.51142e-05,-4.22247e-05,1.18153e-05,-1.80934e-06,0
-5.18358e-05,-3.01959e-06,-3.56479e-06,0.000160827,0.000130478,-6.8218e-05,1.08203e-05,4.22707e-06,0
-5.3662e-05,-3.95116e-06,-1.26475e-06,0.00020442,0.000157154,-8.17924e-05,9.44499e-06,9.54578e-06,0
-5.04209e-05,-5.12407e-06,7.39591e-06,0.000223855,0.000142956,-7.86437e-05,8.46656e-06,9.34811e-06,0
-4.42744e-05,-3.4564e-06,1.23861e-05,0.000147096,8.77305e-05,-6.70551e-05,8.34666e-06,5.84308e-06,0
-3.92498e-05,-2.89018e-07,6.64422e-06,1.18751e-05,5.21088e-07,-5.74167e-05,7.46345e-06,2.98839e-06,0
-3.59949e-05,2.18675e-06,-2.62791e-06,-0.000125041,-8.99784e-05,-4.34177e-05,5.29483e-06,-1.16162e-06,0
-3.04613e-05,4.98596e-06,-5.19221e-06,-0.000234619,-0.000139322,-2.40283e-05,2.10468e-06,-5.78051e-06,0
-2.00248e-05,9.38009e-06,-1.75006e-06,-0.000267398,-0.000134836,-1.10458e-05,-1.70104e-07,-8.46851e-06,0
-1.16163e-05,1.35618e-05,-2.69808e-06,-0.000229054,-0.000116842,2.35764e-05,-1.8659e-06,-9.43993e-06,0
-1.95588e-05,1.5566e-05,-1.33932e-05,-0.000173839,-0.000114229,8.94623e-05,-4.06999e-06,-9.81588e-06,0
-4.23301e-05,1.49638e-05,-2.76645e-05,-0.000103551,-9.68117e-05,0.00010901,-5.96226e-06,-1.14745e-05,0
-5.33126e-05,1.54047e-05,-2.89628e-05,-2.46357e-05,-4.77842e-05,6.19764e-05,-6.11496e-06,-1.36826e-05,0
-3.84571e-05,1.95808e-05,-1.48027e-05,2.9409e-05,2.23732e-05,1.98519e-05,-5.85107e-06,-1.35463e-05,0
-1.49254e-05,2.3166e-05,4.29677e-06,6.82088e-05,0.000107642,1.16456e-05,-5.3045e-06,-1.25951e-05,0
7.33925e-07,2.41855e-05,2.92962e-05,4.46095e-05,0.000175726,1.9906e-05,-2.69485e-06,-9.97514e-06,0
2.26081e-06,2.43625e-05,4.91948e-05,-5.42952e-05,0.000187432,2.47588e-05,7.02069e-07,-3.28901e-06,0
-5.22814e-06,2.34689e-05,5.25606e-05,-0.000132248,0.00014276,2.11082e-05,5.22583e-06,3.1911e-06,0
-1.56472e-05,2.05814e-05,4.0229e-05,-0.000103615,8.78254e-05,1.59918e-05,1.13775e-05,6.12003e-06,0
-2.52545e-05,1.73281e-05,2.01455e-05,-8.75828e-06,3.95638e-05,1.21592e-05,1.62769e-05,7.06672e-06,0
-2.69519e-05,1.56346e-05,4.69822e-06,6.19559e-05,2.1328e-06,1.09271e-05,1.88269e-05,9.11465e-06,0
-1.90108e-05,1.53305e-05,-3.13286e-07,6.52709e-05,-1.28443e-05,4.32409e-06,2.08924e-05,1.10266e-05,0
-7.11708e-06,1.66173e-05,3.22491e-06,2.01024e-05,-9.26813e-06,-1.57034e-05,2.35418e-05,1.6073e-05,0
-2.65429e-06,1.72464e-05,7.54049e-06,-2.4574e-05,1.11036e-06,-4.73167e-05,2.61985e-05,2.48297e-05,0
-1.12623e-05,1.73479e-05,8.9113e-06,-4.9931e-05,1.53997e-05,-7.68039e-05,2.61969e-05,3.01496e-05,0
-3.17187e-05,2.02866e-05,7.06079e-06,-4.83965e-05,3.65525e-05,-7.83029e-05,2.3418e-05,2.77577e-05,0
-5.94333e-05,2.63343e-05,2.88061e-06,-3.02275e-05,4.76022e-05,-4.78304e-05,2.17707e-05,1.8142e-05,0
-8.81029e-05,3.15976e-05,-3.13387e-06,2.1583e-06,3.07801e-05,-3.07021e-05,2.34839e-05,4.51762e-06,0
-0.000110573,3.04264e-05,-7.92811e-06,4.01082e-05,-3.48357e-06,-6.37618e-05,2.57278e-05,-8.82377e-06,0
-0.000118083,2.29648e-05,-8.74725e-06,7.85121e-05,-1.90941e-05,-0.00011833,2.54664e-05,-1.71886e-05,0
-0.000107574,1.46302e-05,-6.64424e-06,0.000106196,-9.97083e-06,-0.00014365,2.19583e-05,-2.05097e-05,0
-8.44806e-05,9.64852e-06,-5.45533e-06,0.000119366,-3.88645e-07,-0.000128814,1.62368e-05,-2.03214e-05,0
-5.35279e-05,8.85991e-06,-6.77901e-06,9.73735e-05,1.22312e-06,-8.19654e-05,1.12895e-05,-1.89809e-05,0
-2.25888e-05,1.48454e-05,-9.38214e-06,1.52764e-05,2.93966e-06,-2.15975e-05,8.80688e-06,-1.70726e-05,0
1.99131e-06,2.97805e-05,-1.14858e-05,-7.63037e-05,-4.70473e-06,1.75548e-05,7.281e-06,-1.37914e-05,0
2.5404e-05,4.24264e-05,-1.06325e-05,-9.66516e-05,-2.68917e-05,5.24584e-05,6.10487e-06,-6.4254e-06,0
4.16779e-05,3.85395e-05,-8.67814e-06,-6.82161e-05,-4.29088e-05,0.00012349,6.89734e-06,3.55522e-06,0
3.06301e-05,2.16702e-05,-1.0539e-05,-4.29439e-05,-4.94417e-05,0.000175913,1.08852e-05,1.05218e-05,0
-7.78963e-06,2.14642e-06,-1.62984e-05,-7.30727e-05,-7.71701e-05,0.00012435,1.41691e-05,1.34348e-05,0
-3.96259e-05,-7.48252e-06,-1.72144e-05,-0.000148445,-0.000115193,2.70386e-05,1.35544e-05,1.17207e-05,0
-5.16921e-05,-5.57123e-06,-9.07338e-06,-0.00016118,-0.000105916,-6.21453e-06,1.25586e-05,8.78624e-06,0
-5.70946e-05,-4.46503e-07,-1.78785e-06,-0.00011206,-2.97444e-05,2.57714e-05,1.22903e-05,8.16674e-06,0
-5.7773e-05,4.43533e-06,-5.20141e-06,-8.99116e-05,7.28507e-05,5.61642e-05,1.09365e-05,1.06131e-05,0
-5.66044e-05,3.08708e-06,-1.75844e-05,-0.000121143,0.000142001,4.79759e-05,9.49346e-06,1.45436e-05,0
-5.11493e-05,-7.05395e-07,-2.94685e-05,-0.000128841,0.000151287,1.64881e-05,9.21628e-06,1.59423e-05,0
-4.10611e-05,5.877e-06,-3.31583e-05,-8.30458e-05,0.000111847,-2.53869e-05,9.36175e-06,1.42574e-05,0
-3.08029e-05,2.71273e-05,-2.94509e-05,-4.76925e-05,6.39098e-05,-6.9376e-05,7.35409e-06,1.08377e-05,0
-2.45329e-05,4.09005e-05,-2.41059e-05,-5.68821e-05,3.5404e-05,-8.80472e-05,4.72929e-06,7.66428e-06,0
-2.31195e-05,3.11965e-05,-2.02263e-05,-0.000118961,2.68642e-05,-4.37397e-05,3.19956e-06,5.66962e-06,0
-2.52379e-05,8.25651e-06,-1.56613e-05,-0.000230826,2.66141e-05,3.38007e-05,2.45589e-06,3.62467e-06,0
-2.98891e-05,-1.27716e-05,-9.06407e-06,-0.000340742,2.16591e-05,6.57149e-05,3.7095e-06,1.73113e-06,0
-3.363e-05,-2.48326e-05,-1.91013e-06,-0.000339516,1.48071e-05,3.84162e-05,5.6288e-06,7.31726e-07,0
-3.43531e-05,-2.76991e-05,3.03474e-06,-0.000137913,2.10838e-05,3.65944e-07,6.50153e-06,1.06086e-06,0
-3.12333e-05,-2.19712e-05,4.29117e-06,0.000181806,3.94821e-05,-1.72755e-05,6.97185e-06,2.74177e-06,0
-2.73419e-05,-1.34997e-05,2.82461e-06,0.000405332,5.2983e-05,-2.32454e-05,8.61778e-06,3.05993e-06,0
-2.65721e-05,-6.83598e-06,-6.55807e-07,0.000392331,5.61147e-05,-2.90845e-05,9.34916e-06,3.78066e-07,0
-3.07727e-05,-3.64144e-06,-6.56179e-06,0.000220423,5.39536e-05,-3.273e-05,7.40994e-06,-2.8066e-06,0
-3.57909e-05,-4.12606e-06,-1.50735e-05,0.000109034,5.90486e-05,-2.40813e-05,3.51173e-06,-2.73193e-06,0
-3.96169e-05,-7.04113e-06,-2.12087e-05,0.000142618,7.76288e-05,-9.04531e-06,-3.31721e-06,1.13895e-06,0
-4.07088e-05,-7.62047e-06,-1.86784e-05,0.000191079,9.23429e-05,-2.5007e-06,-1.58342e-05,4.7545e-06,0
-3.82332e-05,-4.7244e-06,-1.22755e-05,0.00014655,8.00335e-05,-6.297e-06,-2.93082e-05,4.49221e-06,0
-3.63289e-05,-8.35006e-08,-1.2057e-05,5.04539e-05,3.49586e-05,-1.27586e-05,-3.73428e-05,3.05006e-06,0
-3.49277e-05,4.86588e-06,-1.64077e-05,5.03338e-06,-2.60716e-05,-1.33371e-05,-3.80864e-05,4.18162e-06,0
-2.93683e-05,7.5247e-06,-1.74411e-05,1.5353e-05,-6.89419e-05,-9.21688e-07,-3.1008e-05,6.15387e-06,0
-2.47348e-05,5.95488e-06,-1.35959e-05,3.04026e-05,-7.74329e-05,1.4308e-05,-1.79739e-05,5.51761e-06,0
-2.88643e-05,3.85003e-06,-1.14339e-05,-7.36256e-06,-6.50151e-05,1.3733e-05,-2.55446e-08,1.12527e-06,0
-3.48941e-05,2.13414e-06,-1.83058e-05,-9.26947e-05,-4.54486e-05,7.17697e-07,1.84025e-05,-2.76139e-06,0
-3.34566e-05,2.5526e-06,-3.19909e-05,-0.000150209,-1.97638e-05,-9.17656e-06,3.35818e-05,-4.37084e-06,0
-2.8673e-05,3.68761e-06,-4.3267e-05,-0.000157518,-8.72982e-07,-2.05523e-05,4.3549e-05,-5.32308e-06,0
-2.59596e-05,2.40156e-06,-4.44435e-05,-9.23304e-05,1.18436e-05,-4.11167e-05,4.87075e-05,-5.4586e-06,0
-2.51263e-05,1.98276e-06,-3.69999e-05,3.5637e-05,2.63684e-05,-5.39837e-05,5.01919e-05,-4.79297e-06,0
-2.37444e-05,3.70924e-06,-2.39504e-05,0.000196089,3.23091e-05,-4.78605e-05,4.80491e-05,-2.86079e-06,0
-2.25224e-05,1.18146e-05,-7.73966e-06,0.000306372,2.67338e-05,-3.49002e-05,4.3532e-05,-9.93714e-07,0
-2.52952e-05,2.56575e-05,4.87853e-06,0.000212444,8.98336e-06,-2.77433e-05,3.54272e-05,1.34698e-06,0
-2.92445e-05,3.68576e-05,3.64571e-06,-0.000144,-2.25266e-05,-2.46969e-05,2.74605e-05,2.44727e-06,0
-3.22956e-05,3.74206e-05,-1.54036e-05,-0.000529601,-6.46471e-05,-2.18779e-05,2.31692e-05,9.58165e-07,0
-3.66975e-05,2.84845e-05,-4.00332e-05,-0.00058096,-9.99748e-05,-2.0696e-05,2.19535e-05,3.10917e-08,0
-4.36256e-05,1.48357e-05,-5.69329e-05,-0.000256465,-0.000115051,-2.29081e-05,2.23251e-05,-7.10932e-07,0
-4.99751e-05,3.04771e-06,-6.14141e-05,0.000112466,-0.000109385,-2.55069e-05,2.20617e-05,-2.40777e-06,0
-5.18022e-05,4.54293e-07,-5.0228e-05,0.000248147,-8.35296e-05,-2.06371e-05,2.16264e-05,-2.89851e-06,0
-4.9587e-05,7.48713e-06,-2.30144e-05,0.000188844,-3.3011e-05,-6.07812e-06,2.42369e-05,4.40231e-06,0
-4.65226e-05,1.58302e-05,1.20375e-05,0.000126548,3.43395e-05,8.70827e-06,3.09104e-05,2.35982e-05,0
-4.03022e-05,1.95423e-05,4.43457e-05,0.000164338,9.91502e-05,1.83475e-05,3.7397e-05,4.43201e-05,0
-2.53822e-05,2.04877e-05,6.41365e-05,0.000237648,0.000152457,2.6539e-05,3.89266e-05,5.02254e-05,0
-5.21833e-06,2.06059e-05,6.49111e-05,0.000249722,0.000182619,3.22409e-05,3.35696e-05,4.09809e-05,0
8.52384e-06,1.9872e-05,5.10432e-05,0.000244186,0.000177641,2.68698e-05,2.34658e-05,2.33801e-05,0
1.00142e-05,2.04127e-05,3.40969e-05,0.000329655,0.000152368,9.9627e-06,1.19961e-05,1.77575e-07,0
2.84542e-06,2.3626e-05,1.96694e-05,0.000417887,0.000129276,-8.44335e-06,9.78083e-07,-2.36113e-05,0
-3.61267e-06,2.70555e-05,1.03553e-05,0.000354894,0.000104212,-2.26763e-05,-9.06408e-06,-4.05826e-05,0
-4.56716e-06,3.05336e-05,9.68148e-06,0.000115573,6.0645e-05,-3.99294e-05,-1.58015e-05,-4.52962e-05,0
-6.20664e-06,3.33767e-05,1.72445e-05,-0.000192311,1.38488e-06,-5.97073e-05,-1.56944e-05,-4.05348e-05,0
-1.27621e-05,3.20935e-05,2.31591e-05,-0.000446553,-7.02312e-05,-6.11982e-05,-1.03329e-05,-3.35278e-05,0
-1.93305e-05,2.85294e-05,2.04385e-05,-0.000639989,-0.000134933,-4.35386e-05,-4.60068e-06,-2.37768e-05,0
-1.97921e-05,2.83594e-05,1.70588e-05,-0.000603235,-0.000140207,-2.85861e-05,-1.07193e-06,-1.01073e-05,0
-1.52669e-05,3.05723e-05,1.77265e-05,-0.000307257,-0.00011007,-2.62108e-05,1.51825e-06,-7.60098e-07,0
-1.18035e-05,3.19771e-05,1.46761e-05,-4.04043e-05,-8.84134e-05,-3.90054e-05,5.15631e-06,1.31599e-06,0
-1.29021e-05,3.03927e-05,5.65545e-06,7.22786e-05,-5.63336e-05,-5.34999e-05,8.38791e-06,-4.85853e-07,0
-1.81956e-05,2.74933e-05,-4.22775e-06,0.000102914,-1.67658e-05,-4.42745e-05,9.74034e-06,-1.36549e-06,0
-2.3893e-05,2.63861e-05,-1.09009e-05,0.000135459,3.71305e-06,-1.87081e-05,1.05046e-05,1.63681e-06,0
-3.08148e-05,2.56834e-05,-1.06243e-05,0.000138816,3.85609e-06,-4.59327e-06,1.25425e-05,4.52631e-06,0
-4.01555e-05,2.18103e-05,-9.59217e-06,0.000112908,1.82895e-06,-1.03324e-05,1.48346e-05,6.05826e-06,0
-4.52563e-05,1.55208e-05,-1.20611e-05,7.79372e-05,-6.7085e-07,-2.16426e-05,1.87668e-05,6.61133e-06,0
-4.15208e-05,1.36234e-05,-1.30077e-05,1.319e-05,-1.01943e-05,-2.30908e-05,2.33551e-05,4.32947e-06,0
-3.37266e-05,1.77169e-05,-1.36806e-05,-0.000145085,-2.40046e-05,-1.50169e-05,2.48465e-05,6.88701e-07,0
-2.98212e-05,2.03386e-05,-2.04007e-05,-0.000335558,-3.71735e-05,-6.45055e-06,2.25298e-05,-1.48458e-06,0
-3.08191e-05,1.79872e-05,-3.1189e-05,-0.000379338,-4.06703e-05,-4.77456e-06,1.9149e-05,-1.42305e-06,0
-3.3177e-05,1.44177e-05,-3.63431e-05,-0.00023919,-2.04293e-05,-9.25273e-06,1.74247e-05,-2.52777e-07,0
-3.47276e-05,1.2435e-05,-3.03879e-05,1.0165e-05,2.30681e-05,-1.49343e-05,1.80008e-05,6.95787e-07,0
-3.55866e-05,1.10273e-05,-1.88847e-05,0.000263897,5.74757e-05,-1.85191e-05,2.10193e-05,9.22848e-07,0
-3.48275e-05,1.15455e-05,-7.9647e-06,0.000391068,5.7667e-05,-1.65011e-05,2.2761e-05,1.4281e-06,0
-3.15906e-05,1.96368e-05,3.21939e-06,0.000280377,3.70797e-05,-7.855e-06,2.0873e-05,2.45494e-06,0
-2.91492e-05,3.36289e-05,7.8774e-06,1.99357e-05,2.16478e-05,1.57753e-06,1.70492e-05,2.72915e-06,0
-3.27914e-05,4.21268e-05,-3.89475e-06,-0.000201055,1.72343e-05,3.95322e-06,1.4385e-05,3.26992e-06,0
-4.39788e-05,3.84311e-05,-2.14021e-05,-0.000252331,1.13064e-05,-2.86794e-09,1.28589e-05,4.23355e-06,0
-5.98221e-05,2.40307e-05,-2.63212e-05,-0.000188687,4.67789e-06,-2.64284e-06,1.18249e-05,5.23311e-06,0
-7.32791e-05,1.56892e-06,-2.433e-05,-0.000156324,1.51796e-05,-3.75974e-07,9.28236e-06,6.18132e-06,0
-7.73553e-05,-2.07844e-05,-2.86861e-05,-0.000124641,4.47545e-05,3.73241e-06,6.79977e-06,6.14651e-06,0
-7.22378e-05,-3.33999e-05,-3.50969e-05,4.20942e-05,7.10022e-05,2.31061e-06,6.90339e-06,5.29773e-06,0
-6.64465e-05,-3.254e-05,-3.99856e-05,0.00023211,6.929e-05,-5.95962e-06,6.42222e-06,4.68335e-06,0
-6.06875e-05,-2.28655e-05,-4.34508e-05,0.000254121,4.30904e-05,-7.3596e-06,4.94934e-06,4.57233e-06,0
-4.96609e-05,-1.43598e-05,-3.86295e-05,0.000185758,2.15109e-05,1.73706e-06,4.66572e-06,3.45064e-06,0
-3.31373e-05,-1.20017e-05,-2.51265e-05,0.000187853,8.84515e-06,6.53717e-06,5.62291e-06,3.27819e-06,0
-8.96633e-06,-1.14913e-05,-9.01702e-06,0.000173648,4.66487e-06,3.39765e-06,6.95852e-06,2.96893e-06,0
1.7806e-05,-8.32494e-06,2.63795e-06,-3.24309e-05,1.5089e-05,1.665e-06,8.68073e-06,5.24422e-07,0
3.06012e-05,-4.91762e-06,6.58655e-06,-0.000233564,2.7424e-05,2.70424e-06,1.11553e-05,-3.94406e-07,0
2.22043e-05,-2.35439e-06,7.55585e-06,-0.00021461,2.32268e-05,2.92389e-06,1.33202e-05,5.70477e-07,0
4.12796e-06,1.1627e-06,4.62877e-06,-7.3338e-05,-6.68522e-06,6.07182e-07,1.41775e-05,1.89126e-06,0
-1.02394e-05,5.9931e-06,-3.14979e-06,1.2844e-05,-3.94291e-05,-2.83529e-07,1.46443e-05,2.35983e-06,0
-1.49091e-05,1.22333e-05,-6.86302e-06,-4.41777e-05,-4.51037e-05,3.46716e-06,1.51538e-05,1.98963e-06,0
-1.32145e-05,1.61608e-05,-1.96289e-06,-0.00015465,-3.73532e-05,6.15649e-06,1.47513e-05,9.52558e-07,0
-1.3444e-05,1.35047e-05,7.68733e-06,-0.000213813,-4.16726e-05,3.8897e-06,1.17301e-05,1.06685e-06,0
-1.86579e-05,5.22938e-06,1.65963e-05,-0.00022452,-3.96784e-05,-2.11796e-06,6.21669e-06,2.92122e-06,0
-2.62499e-05,-2.37352e-06,2.20895e-05,-0.000201997,-1.23969e-05,-8.12091e-06,1.02916e-06,4.04989e-06,0
-3.27114e-05,-3.97044e-06,2.52474e-05,-9.19473e-05,1.75529e-05,-1.28138e-05,-1.99409e-06,3.27644e-06,0
-3.46843e-05,-4.81891e-07,2.91634e-05,9.74576e-05,2.26365e-05,-1.28926e-05,-1.64876e-06,2.43942e-06,0
-3.32457e-05,2.38458e-06,3.07749e-05,0.000244845,1.34082e-05,-6.2868e-06,2.17452e-06,2.2672e-06,0
-3.19423e-05,1.03877e-06,2.64646e-05,0.000271603,2.33514e-05,5.17372e-06,6.70782e-06,1.79782e-06,0
-3.1553e-05,-1.23303e-06,1.86164e-05,0.000235505,6.04528e-05,1.55907e-05,9.53984e-06,1.17387e-06,0
-3.17648e-05,-3.17623e-06,6.745e-06,0.000230925,0.00010088,1.72485e-05,1.08419e-05,-5.39069e-08,0
-3.25962e-05,-6.50054e-06,-8.81966e-06,0.000260315,0.000124949,1.07864e-05,1.26289e-05,-2.0717e-06,0
-3.37656e-05,-1.12465e-05,-2.00905e-05,0.000271608,0.000131205,1.4792e-06,1.62996e-05,-3.52175e-06,0
-3.40062e-05,-1.39915e-05,-2.39305e-05,0.000216092,0.000122552,-7.07819e-06,2.14685e-05,-1.79004e-06,0
-3.27844e-05,-1.36476e-05,-2.84105e-05,8.12494e-05,0.00011083,-1.39107e-05,2.57185e-05,1.88515e-06,0
-3.13442e-05,-1.30462e-05,-4.08396e-05,-7.89905e-05,9.78895e-05,-1.97754e-05,2.81167e-05,4.78039e-06,0
-2.95024e-05,-1.13089e-05,-5.28956e-05,-0.000212972,6.95233e-05,-2.48904e-05,2.85497e-05,5.56068e-06,0
-2.82249e-05,-7.32262e-06,-5.46702e-05,-0.000441764,2.31147e-05,-2.8678e-05,2.61429e-05,5.52058e-06,0
-3.05232e-05,-1.7412e-06,-5.08874e-05,-0.000728538,-3.76614e-05,-3.1655e-05,2.21686e-05,5.55495e-06,0
-3.34188e-05,3.9237e-06,-4.5166e-05,-0.000673879,-6.71302e-05,-3.03692e-05,2.04821e-05,4.6038e-06,0
-3.51505e-05,7.23039e-06,-3.86746e-05,-0.000162943,-5.01793e-05,-2.26844e-05,2.01455e-05,2.192e-06,0
-3.40548e-05,9.45557e-06,-2.63513e-05,0.000404263,-1.97735e-05,-9.79829e-06,2.02369e-05,1.84202e-09,0
-2.86725e-05,1.42213e-05,-5.43036e-06,0.00061044,3.51945e-05,4.49045e-06,2.06143e-05,1.96978e-07,0
-2.37395e-05,1.97774e-05,1.15571e-05,0.00039782,9.6273e-05,1.10785e-05,1.859e-05,1.2924e-06,0
-2.30094e-05,2.25306e-05,1.47608e-05,4.44879e-05,0.000129244,8.07467e-06,1.47689e-05,1.50605e-06,0
-2.41539e-05,2.75936e-05,1.15228e-05,-9.90869e-05,0.000125784,-8.51952e-07,4.84674e-06,1.93983e-07,0
-1.90039e-05,3.93176e-05,9.21343e-06,9.79012e-05,9.98113e-05,-1.02261e-05,-1.06305e-05,-2.43632e-06,0
-4.82637e-06,5.23333e-05,9.81744e-06,0.000389765,6.1042e-05,-1.20218e-05,-2.15261e-05,-4.3908e-06,0
7.81638e-06,5.47445e-05,1.32381e-05,0.000522968,2.18856e-05,-9.49855e-06,-2.47152e-05,-5.13577e-06,0
8.169e-06,4.61617e-05,1.92895e-05,0.000420755,2.73651e-05,-8.99328e-06,-2.32679e-05,-4.23114e-06,0
-3.31636e-06,3.62634e-05,2.53073e-05,0.000184796,0.000104394,-8.79315e-06,-1.82355e-05,-2.55074e-06,0
-1.78799e-05,2.90426e-05,2.71789e-05,-3.86625e-05,0.000192479,-6.20426e-06,-7.99285e-06,-2.2993e-06,0
-2.83849e-05,2.45994e-05,2.41605e-05,-0.000191632,0.000196206,-4.87866e-06,7.25355e-06,-2.88024e-06,0
-3.39244e-05,2.20953e-05,1.60311e-05,-0.000246782,0.000115253,-1.00571e-05,2.46201e-05,-3.2962e-06,0
-3.67524e-05,2.12792e-05,4.24955e-06,-0.000210588,3.74821e-05,-2.10911e-05,3.97272e-05,-4.08383e-06,0
-3.7662e-05,2.47875e-05,-1.0427e-05,-0.000131806,2.68541e-05,-3.32246e-05,4.85348e-05,-5.16781e-06,0
-3.3262e-05,3.70001e-05,-2.36048e-05,-8.15949e-05,3.34154e-05,-3.53699e-05,4.869e-05,-5.15796e-06,0
-2.46943e-05,5.02337e-05,-3.10891e-05,-4.61284e-05,-3.54411e-06,-1.58102e-05,4.20968e-05,-3.82491e-06,0
-2.05383e-05,5.21476e-05,-3.18934e-05,-3.80228e-05,-7.39617e-05,1.8855e-05,3.37115e-05,-2.01505e-06,0
-2.66683e-05,4.28418e-05,-3.07201e-05,-0.00010546,-0.000140977,5.53488e-05,2.49753e-05,-6.01606e-07,0
-3.97958e-05,3.06577e-05,-2.95752e-05,-0.00024385,-0.00018148,7.87022e-05,1.42087e-05,1.59911e-06,0
-5.08737e-05,2.10004e-05,-2.80034e-05,-0.000293689,-0.000193568,6.58804e-05,2.1071e-06,3.51569e-06,0
-5.4635e-05,1.7708e-05,-2.61526e-05,-0.000144754,-0.000180807,3.36808e-05,-8.07062e-06,2.9698e-06,0
-5.5271e-05,2.25137e-05,-2.77825e-05,3.12414e-05,-0.000160147,9.50911e-06,-1.43711e-05,2.11897e-06,0
-5.37046e-05,3.75063e-05,-3.28488e-05,5.78699e-05,-0.000155565,-1.25908e-05,-1.46494e-05,1.93258e-06,0
-4.47479e-05,5.58247e-05,-3.54612e-05,-2.32812e-05,-0.000147429,-3.54303e-05,-6.30763e-06,2.76847e-07,0
-3.596e-05,5.60158e-05,-3.8973e-05,-0.000195773,-0.000125368,-4.67456e-05,1.16857e-05,-1.01494e-06,0
-3.95568e-05,3.08701e-05,-4.8878e-05,-0.000434545,-0.000106706,-4.78614e-05,3.48853e-05,1.0606e-06,0
-4.95012e-05,-5.99686e-06,-6.42481e-05,-0.00059421,-9.41786e-05,-5.38513e-05,5.43329e-05,4.16352e-06,0
-5.36481e-05,-3.59319e-05,-7.66524e-05,-0.000562519,-9.89942e-05,-6.4638e-05,6.31497e-05,5.61848e-06,0
-5.03879e-05,-4.81709e-05,-7.80151e-05,-0.00030752,-0.000117879,-7.34618e-05,6.21526e-05,5.57116e-06,0
-4.41623e-05,-4.12827e-05,-6.35559e-05,0.000130314,-0.000126396,-7.05785e-05,5.67946e-05,5.51988e-06,0
-3.93811e-05,-2.29292e-05,-3.50437e-05,0.000548384,-8.97502e-05,-5.72786e-05,4.84777e-05,6.08089e-06,0
-3.70944e-05,-2.54169e-06,1.79502e-06,0.000667293,3.65438e-06,-4.06408e-05,3.76817e-05,5.13463e-06,0
-3.31012e-05,1.59457e-05,3.63967e-05,0.000501843,0.000121475,-2.35172e-05,2.76925e-05,2.9135e-06,0
-2.62255e-05,2.49614e-05,5.16885e-05,0.000286191,0.00020008,-7.42175e-06,1.92279e-05,1.30719e-06,0
-2.81299e-05,2.33083e-05,4.65924e-05,0.000106482,0.000212671,-1.80432e-06,1.14426e-05,9.88118e-07,0
-4.29679e-05,1.72193e-05,3.1227e-05,-0.000105289,0.000180078,-1.66666e-05,5.26089e-06,1.11837e-06,0
-5.54663e-05,1.58371e-05,1.51152e-05,-0.000337187,0.000130752,-4.29196e-05,1.53122e-06,7.75391e-07,0
-5.41276e-05,2.53375e-05,8.3918e-06,-0.000417429,8.86685e-05,-6.41426e-05,-7.17787e-08,7.25296e-07,0
-4.34287e-05,4.11368e-05,1.59276e-05,-0.000195659,6.19092e-05,-6.27832e-05,-5.07833e-07,1.27594e-06,0
-3.68181e-05,5.05502e-05,3.21566e-05,0.000222974,4.58565e-05,-2.99232e-05,6.1422e-07,1.73443e-06,0
-3.95716e-05,4.58205e-05,4.53119e-05,0.000529199,3.23335e-05,1.70527e-05,4.15089e-06,1.4762e-06,0
-4.42359e-05,3.12602e-05,4.85294e-05,0.000523318,2.15593e-05,3.88513e-05,8.01522e-06,1.75053e-06,0
-4.4445e-05,1.38949e-05,4.25899e-05,0.000296392,1.34438e-05,2.33234e-05,9.04289e-06,3.06647e-06,0
-4.32087e-05,1.17118e-06,2.97711e-05,5.73007e-05,8.54506e-06,-2.85948e-06,7.34084e-06,4.06361e-06,0
-4.14538e-05,-4.45678e-06,8.5074e-06,-7.44246e-05,1.01082e-05,-1.29596e-05,4.7625e-06,3.64369e-06,0
-3.42236e-05,-6.59976e-06,-2.02274e-05,-0.000113174,1.35885e-05,-8.51747e-06,3.62807e-06,2.98591e-06,0
-2.38568e-05,-9.59681e-06,-5.2364e-05,-0.000130422,-1.28117e-05,-2.57392e-06,2.83908e-06,2.63435e-06,0
-1.72291e-05,-1.06609e-05,-7.63563e-05,-0.000181033,-8.01492e-05,-1.47248e-06,1.23989e-06,2.15691e-06,0
-1.69857e-05,-3.54376e-06,-8.06708e-05,-0.000264145,-0.000136287,-2.62884e-06,9.72967e-07,2.68581e-06,0
-1.67883e-05,1.97085e-05,-6.33837e-05,-0.000332128,-0.000131981,-6.43163e-07,1.18702e-06,3.13499e-06,0
-1.31726e-05,7.03866e-05,-3.86405e-05,-0.00025076,-5.22928e-05,2.11724e-06,2.11913e-06,2.11458e-06,0
-1.07076e-05,0.000130813,-2.74228e-05,3.8296e-05,7.42105e-05,-3.27831e-06,3.98438e-06,-4.60433e-08,0
-1.2698e-05,0.000151474,-2.52796e-05,0.000284775,0.000160309,-1.9688e-05,6.19756e-06,-2.1648e-06,0
-1.58687e-05,0.000115009,-2.30273e-05,0.000264748,0.000149472,-3.63949e-05,8.03701e-06,-2.85896e-06,0
-1.42105e-05,5.66258e-05,-2.01828e-05,9.71023e-05,9.39721e-05,-4.87413e-05,9.61073e-06,-3.30133e-06,0
-1.20455e-05,6.76208e-06,-1.47822e-05,-2.02777e-05,5.55097e-05,-5.92238e-05,1.15561e-05,-2.58306e-06,0
-7.80484e-06,-3.08127e-05,-1.1577e-05,-3.04842e-06,4.26363e-06,-6.25059e-05,1.27595e-05,-2.17259e-06,0
5.92934e-06,-5.3264e-05,-1.18151e-05,0.000111916,-6.24781e-05,-6.07846e-05,1.40663e-05,-3.67604e-06,0
1.90258e-05,-6.32219e-05,-1.04852e-05,0.000218767,-7.49976e-05,-5.95887e-05,1.4922e-05,-3.72243e-06,0
2.24914e-05,-6.42281e-05,-3.29646e-06,0.000218205,-7.93181e-06,-5.04712e-05,1.6394e-05,-1.92748e-06,0
1.60718e-05,-6.1258e-05,2.51045e-06,9.19888e-05,7.19295e-05,-3.96709e-05,1.8386e-05,-3.77208e-07,0
-4.5658e-06,-5.71935e-05,-8.84261e-07,-4.07793e-05,0.000106777,-3.86967e-05,1.89688e-05,4.93777e-07,0
-3.84272e-05,-5.26094e-05,-8.4905e-06,-0.000105875,0.000114326,-1.55644e-05,1.7426e-05,-2.10943e-07,0
-7.17019e-05,-4.851e-05,-1.43242e-05,-0.000180166,0.000120898,4.70651e-05,1.36604e-05,-2.02111e-06,0
-9.13129e-05,-4.31361e-05,-2.04586e-05,-0.000324281,0.000133954,9.23308e-05,9.60824e-06,-6.85189e-07,0
-9.29491e-05,-3.66475e-05,-2.96023e-05,-0.000450992,0.000161844,8.92427e-05,8.78519e-06,4.02471e-06,0
-7.81595e-05,-2.63069e-05,-3.71869e-05,-0.000438178,0.000200314,7.49673e-05,1.17235e-05,7.10003e-06,0
-5.64814e-05,-1.27456e-05,-3.6713e-05,-0.00025937,0.000227793,6.29501e-05,1.51606e-05,5.43256e-06,0
-4.16129e-05,1.80026e-07,-2.5727e-05,-1.53817e-05,0.000226892,3.22568e-05,1.7027e-05,1.84611e-06,0
-3.49473e-05,8.4788e-06,-7.59582e-06,0.000156308,0.000167971,-8.66152e-06,1.72743e-05,6.31656e-07,0
-2.89661e-05,1.49776e-05,1.13908e-05,0.000180058,5.49974e-05,-2.89071e-05,1.74796e-05,3.12146e-06,0
-2.39251e-05,2.18264e-05,2.43823e-05,0.000120128,-6.60992e-05,-2.05998e-05,1.83352e-05,8.24603e-06,0
-2.32775e-05,2.88264e-05,3.04611e-05,7.8718e-05,-0.000164353,-2.05414e-06,1.98242e-05,1.42643e-05,0
-2.74818e-05,3.53615e-05,3.44588e-05,6.36604e-05,-0.000205626,2.56394e-05,2.06902e-05,1.67018e-05,0
-3.12907e-05,4.00307e-05,3.82233e-05,2.47099e-05,-0.000165786,5.5104e-05,2.12758e-05,1.22787e-05,0
-3.15737e-05,3.90336e-05,3.48922e-05,-2.77438e-05,-9.3995e-05,5.21001e-05,2.33844e-05,3.93123e-06,0
-3.07949e-05,3.14171e-05,2.16702e-05,-4.07498e-06,-4.51702e-05,2.30668e-05,2.99859e-05,-2.46967e-06,0
-3.01073e-05,2.36763e-05,5.60285e-06,7.95382e-05,-1.28242e-05,2.1639e-06,3.87424e-05,-6.57906e-06,0
-3.03889e-05,2.28685e-05,2.84256e-07,7.26674e-05,7.52831e-06,-1.56413e-07,4.18589e-05,-1.09826e-05,0
-3.05312e-05,2.47152e-05,-1.79871e-06,-9.8447e-05,2.39022e-05,3.5855e-06,3.81143e-05,-1.39233e-05,0
-3.01536e-05,2.18687e-05,-1.37316e-05,-0.000254662,4.65989e-05,1.90288e-06,2.86021e-05,-1.27697e-05,0
-3.10888e-05,1.62513e-05,-2.56247e-05,-0.000233027,4.1605e-05,-5.75956e-06,1.57259e-05,-1.07287e-05,0
-3.21293e-05,9.97821e-06,-3.19605e-05,-0.000131369,5.73143e-06,-1.66685e-05,4.62295e-06,-1.16676e-05,0
-3.12501e-05,3.94298e-06,-3.65101e-05,-8.9253e-05,-2.17611e-05,-2.46123e-05,-3.71685e-06,-1.34262e-05,0
-2.98912e-05,-1.27179e-06,-4.2232e-05,-7.51079e-05,-2.07621e-05,-2.78464e-05,-1.07371e-05,-1.40899e-05,0
-3.14035e-05,-5.23181e-06,-4.51997e-05,1.88425e-05,-9.94637e-06,-2.77909e-05,-1.57865e-05,-1.3087e-05,0
-3.42153e-05,-7.75262e-06,-4.26264e-05,0.000145713,-1.93798e-05,-2.52916e-05,-1.72303e-05,-1.25723e-05,0
-3.38852e-05,-6.10379e-06,-3.15788e-05,0.000190536,-4.24972e-05,-2.10091e-05,-1.54496e-05,-1.19217e-05,0
-2.93992e-05,2.39706e-07,-1.40193e-05,0.000168053,-5.37841e-05,-1.32074e-05,-1.22646e-05,-9.48718e-06,0
-2.37469e-05,9.48304e-06,4.14677e-06,0.000160326,-4.70656e-05,-3.49777e-07,-8.51324e-06,-1.42677e-06,0
-2.0528e-05,1.71021e-05,1.58184e-05,0.000183509,-4.39972e-05,1.16655e-05,-3.92871e-06,1.82713e-05,0
-2.29798e-05,1.93792e-05,1.44238e-05,0.000190417,-6.17092e-05,1.42673e-05,-1.11681e-06,4.24183e-05,0
-2.99087e-05,1.55869e-05,4.8029e-07,0.000128515,-9.50299e-05,1.04326e-05,-5.14614e-06,5.49032e-05,0
-3.58981e-05,9.39165e-06,-2.15229e-05,-6.69337e-06,-0.000116339,1.5485e-05,-1.64346e-05,4.9272e-05,0
-3.76561e-05,8.18996e-06,-4.19227e-05,-7.90602e-05,-9.29769e-05,3.3189e-05,-2.76812e-05,3.00032e-05,0
-3.44393e-05,1.82735e-05,-4.9528e-05,5.50293e-05,-1.48684e-05,4.0297e-05,-3.24261e-05,4.19691e-06,0
-2.53129e-05,4.11749e-05,-3.84581e-05,0.000309127,8.19363e-05,1.91974e-05,-3.1079e-05,-1.93032e-05,0
-1.15801e-05,6.36441e-05,-1.39203e-05,0.000449275,0.00014298,-2.54121e-05,-2.62227e-05,-3.25599e-05,0
-3.09089e-07,6.75918e-05,1.35288e-05,0.0003206,0.000143719,-8.24288e-05,-1.88979e-05,-3.26495e-05,0
3.81855e-06,5.41494e-05,3.21411e-05,-6.48315e-05,9.2159e-05,-0.000123154,-6.66515e-06,-2.52405e-05,0
-8.95803e-07,3.62724e-05,3.35263e-05,-0.000473253,3.21781e-05,-0.000114137,1.11896e-05,-1.74676e-05,0
-1.66642e-05,2.33861e-05,2.26829e-05,-0.000637793,7.65395e-06,-8.48849e-05,2.86586e-05,-1.04356e-05,0
-4.24501e-05,1.8575e-05,7.4943e-06,-0.000590517,5.29262e-06,-9.54597e-05,4.09902e-05,-5.76947e-07,0
-6.84366e-05,1.55498e-05,-6.41916e-06,-0.000533943,-5.14105e-06,-0.000124505,4.85411e-05,7.76884e-06,0
-8.39477e-05,1.07848e-05,-8.70839e-06,-0.000461372,-9.9546e-06,-0.000118542,5.15839e-05,7.06979e-06,0
-8.08209e-05,7.43116e-06,4.73658e-07,-0.000250059,1.73812e-05,-6.42124e-05,5.17865e-05,-1.51376e-06,0
-5.69343e-05,4.62002e-06,1.05367e-05,2.92234e-05,6.12379e-05,2.03001e-05,4.99852e-05,-1.20182e-05,0
-2.87718e-05,3.50339e-06,1.41331e-05,0.000265043,9.7473e-05,7.14147e-05,4.55283e-05,-1.4117e-05,0
-1.91338e-05,8.09153e-06,1.60367e-05,0.000406871,0.000123935,5.80665e-05,3.96028e-05,-1.18085e-06,0
-2.44147e-05,9.375e-06,1.75941e-05,0.000387573,0.000132463,1.37713e-05,3.46802e-05,2.42191e-05,0
-1.63399e-05,2.82911e-06,1.42059e-05,0.000182649,0.000104319,-2.21345e-06,3.1432e-05,4.51589e-05,0
3.44529e-06,-6.32315e-06,3.72534e-06,-9.19887e-05,5.17034e-05,1.25642e-05,2.75239e-05,4.73233e-05,0
5.77608e-06,-1.35183e-05,-1.09914e-05,-0.000276621,-3.67759e-06,2.01245e-05,2.14153e-05,3.40302e-05,0
-1.21002e-05,-1.63475e-05,-2.44247e-05,-0.000350282,-5.5702e-05,1.98883e-05,1.52629e-05,1.37307e-05,0
-3.12457e-05,-1.5622e-05,-3.34165e-05,-0.000340659,-8.08395e-05,7.20865e-06,1.01881e-05,-4.70192e-06,0
-3.84447e-05,-1.17341e-05,-3.37462e-05,-0.000202473,-7.24429e-05,-9.85283e-06,6.52228e-06,-1.67401e-05,0
-3.32506e-05,-5.60269e-06,-2.60833e-05,7.08859e-05,-5.23628e-05,-1.87438e-05,6.13934e-06,-2.362e-05,0
-2.35372e-05,2.38099e-06,-1.37352e-05,0.00035648,-3.6662e-05,-1.41574e-05,8.61032e-06,-2.58435e-05,0
-1.63195e-05,1.1326e-05,3.59223e-07,0.00060008,-1.72583e-05,-2.70272e-06,1.06905e-05,-2.3623e-05,0
-1.35214e-05,2.45175e-05,1.81427e-05,0.000742107,2.09036e-05,9.25269e-06,1.00629e-05,-1.94051e-05,0
-1.37898e-05,4.0571e-05,3.6214e-05,0.000608367,6.84552e-05,1.81001e-05,7.36614e-06,-1.4119e-05,0
-1.43716e-05,4.77188e-05,3.96963e-05,0.000213883,8.37177e-05,1.6836e-05,4.31207e-06,-8.48264e-06,0
-9.26848e-06,3.93658e-05,2.14348e-05,-0.000163594,5.15324e-05,8.23979e-06,3.30193e-06,-3.62605e-06,0
4.85032e-06,2.54358e-05,-4.38936e-07,-0.000343376,1.1616e-05,2.06899e-06,4.71587e-06,1.11217e-06,0
1.77529e-05,1.52936e-05,-8.76024e-06,-0.000370706,-1.74548e-06,2.98502e-06,8.00011e-06,5.69362e-06,0
1.7323e-05,1.05946e-05,-7.02204e-06,-0.000282488,3.13276e-06,7.73112e-06,1.23502e-05,8.77264e-06,0
3.58504e-06,1.17452e-05,-8.73945e-06,-0.000103144,7.0383e-06,1.50803e-05,1.60406e-05,1.09265e-05,0
-1.52355e-05,1.42496e-05,-1.81753e-05,8.45722e-05,8.36294e-06,1.96701e-05,1.77996e-05,1.35919e-05,0
-3.07632e-05,1.5389e-05,-2.24055e-05,0.000219694,1.4198e-05,2.32546e-05,1.73832e-05,1.58235e-05,0
-4.03448e-05,1.6607e-05,-1.46635e-05,0.000284478,2.46228e-05,2.49465e-05,1.65729e-05,1.55373e-05,0
-4.60616e-05,1.73757e-05,-2.91751e-06,0.000299907,2.8906e-05,1.52574e-05,1.63513e-05,1.26846e-05,0
-5.08259e-05,1.66738e-05,5.71258e-06,0.00027232,2.22618e-05,-1.11917e-05,1.48625e-05,9.72394e-06,0
-5.20293e-05,1.73582e-05,3.89303e-06,0.000176135,1.4814e-05,-3.76259e-05,1.18902e-05,1.02231e-05,0
-5.43588e-05,1.94474e-05,-4.26066e-06,3.41217e-05,3.01807e-05,-3.78639e-05,7.98654e-06,1.13309e-05,0
-6.28869e-05,2.09065e-05,-3.95484e-06,-0.000110026,5.55681e-05,-6.94327e-06,5.6882e-06,8.21226e-06,0
-7.41874e-05,1.96845e-05,-2.23151e-07,-0.00021796,5.06552e-05,1.84902e-05,6.65034e-06,5.11622e-06,0
-8.17988e-05,1.50364e-05,-1.90937e-06,-0.000258864,1.42093e-05,6.56151e-06,9.48843e-06,4.50446e-06,0
-7.80309e-05,1.21912e-05,-5.65661e-06,-0.000182997,-2.95527e-05,-2.71104e-05,1.36705e-05,4.31938e-06,0
-6.64724e-05,1.28349e-05,-6.74105e-06,-2.60124e-05,-5.71688e-05,-5.35165e-05,1.68873e-05,5.30381e-06,0
-5.62475e-05,1.43199e-05,-1.00686e-05,7.72955e-05,-5.89817e-05,-6.27479e-05,1.62914e-05,6.81814e-06,0
-5.35253e-05,1.54656e-05,-1.64335e-05,0.000106393,-4.34336e-05,-6.4393e-05,1.36701e-05,6.93796e-06,0
-5.33493e-05,1.60838e-05,-1.95916e-05,0.000114907,-2.51354e-05,-6.23333e-05,1.29618e-05,5.56769e-06,0
-4.54029e-05,1.75589e-05,-2.00479e-05,0.000114073,-1.3458e-05,-4.82752e-05,1.23513e-05,4.26784e-06,0
-3.29545e-05,1.86831e-05,-2.41034e-05,5.92934e-05,-1.03848e-05,-2.66358e-05,1.14149e-05,3.57178e-06,0
-3.20227e-05,1.76903e-05,-3.44535e-05,-8.61681e-05,-1.12826e-05,-1.99909e-05,1.14029e-05,2.53525e-06,0
-4.39562e-05,1.41499e-05,-4.311e-05,-0.000237942,-6.34131e-06,-3.24873e-05,1.11668e-05,1.64693e-06,0
-5.27331e-05,1.0949e-05,-3.99885e-05,-0.000281334,6.42218e-06,-4.32176e-05,1.03761e-05,1.24044e-06,0
-4.79777e-05,1.14518e-05,-2.4795e-05,-0.000241948,1.75584e-05,-3.80133e-05,9.88806e-06,1.05591e-06,0
-3.42663e-05,1.54724e-05,-5.78331e-06,-0.000172271,1.8234e-05,-2.3742e-05,9.46222e-06,1.62964e-06,0
-2.25483e-05,1.95298e-05,7.62605e-06,-7.32214e-05,1.00133e-05,-1.36647e-05,8.06221e-06,2.09103e-06,0
-1.76696e-05,1.88927e-05,7.96322e-06,2.83615e-05,-2.8963e-06,-1.11677e-05,7.17359e-06,5.66307e-07,0
-1.7009e-05,1.43515e-05,4.98485e-07,5.76409e-05,-1.69242e-05,-1.01873e-05,8.18516e-06,-1.63138e-06,0
-1.63967e-05,1.10341e-05,-2.69843e-06,-5.51103e-05,-3.20051e-05,-8.39964e-06,9.9911e-06,-3.02788e-06,0
-1.60746e-05,1.26761e-05,-1.79685e-06,-0.000203432,-4.52571e-05,-8.484e-06,1.12035e-05,-2.7955e-06,0
-1.69952e-05,1.70072e-05,-4.3359e-06,-0.000239349,-4.43493e-05,-1.0189e-05,1.30941e-05,-1.42472e-06,0
-2.06402e-05,1.87892e-05,-1.08304e-05,-0.000184713,-2.89019e-05,-1.27306e-05,1.49347e-05,7.96109e-07,0
-2.55253e-05,1.54151e-05,-1.65252e-05,-0.00010751,9.74914e-06,-1.43856e-05,1.42154e-05,3.55999e-06,0
-2.90875e-05,1.0839e-05,-1.28433e-05,-1.83065e-05,0.000108704,-1.12094e-05,1.25155e-05,4.54845e-06,0
-3.02864e-05,9.26068e-06,5.00951e-06,9.58234e-05,0.000250529,5.42592e-08,1.13867e-05,4.51676e-06,0
-2.97624e-05,8.68674e-06,2.09194e-05,0.000204704,0.00031123,1.15707e-05,9.02816e-06,3.7559e-06,0
-2.96815e-05,6.20138e-06,2.03144e-05,0.000253897,0.000243217,1.17279e-05,4.99158e-06,4.38833e-06,0
-2.93698e-05,3.28914e-06,9.44255e-06,0.000147465,0.000112374,8.33035e-06,1.68968e-06,5.27182e-06,0
-2.84294e-05,4.65309e-06,-5.08043e-06,-5.74525e-05,-1.77856e-05,1.24351e-05,8.56871e-07,3.09021e-06,0
-3.01657e-05,6.19519e-06,-1.70662e-05,-0.000172788,-0.000101419,2.03012e-05,5.4187e-07,1.52468e-06,0
-3.2467e-05,4.34261e-06,-2.11264e-05,-0.00017591,-0.000145133,2.35901e-05,6.86706e-07,7.24137e-07,0
-3.15053e-05,4.08651e-06,-1.8152e-05,-0.000171497,-0.000156033,1.89876e-05,3.03919e-06,-4.47202e-07,0
-3.07544e-05,5.09206e-06,-1.49034e-05,-0.000209606,-0.000163573,2.53809e-06,5.84825e-06,-9.63591e-07,0
-3.09236e-05,4.54798e-06,-1.43522e-05,-0.000145491,-0.000164184,-2.36311e-05,7.38163e-06,2.02124e-07,0
-3.03504e-05,2.84578e-06,-1.39355e-05,4.52277e-05,-0.000130576,-4.14791e-05,6.94389e-06,7.11879e-07,0
-3.04213e-05,1.70814e-06,-1.50285e-05,0.000186408,-7.78765e-05,-3.54438e-05,3.74505e-06,-1.10528e-06,0
-3.30668e-05,2.11091e-08,-1.80916e-05,0.000154748,-3.41596e-05,-1.79063e-05,-1.5099e-07,-2.87504e-06,0
-3.71513e-05,-2.75672e-06,-1.84822e-05,2.87539e-05,-1.43098e-05,-1.16165e-05,-6.639e-07,-3.45492e-06,0
-3.99919e-05,-4.26072e-06,-1.03306e-05,5.49285e-06,2.4128e-06,-1.74517e-05,2.13946e-06,-2.11215e-06,0
-3.78739e-05,-1.33318e-06,3.09406e-06,9.99555e-05,3.00172e-05,-1.77408e-05,5.992e-06,2.85779e-06,0
-3.12413e-05,4.56349e-06,1.11183e-05,0.00018427,6.23421e-05,-4.65085e-06,9.79253e-06,1.03615e-05,0
-2.64103e-05,8.31549e-06,6.06595e-06,0.000178971,6.77729e-05,5.95423e-06,1.28721e-05,1.51897e-05,0
-2.52915e-05,8.31455e-06,-5.81885e-06,9.91494e-05,4.68054e-05,2.72662e-06,1.5535e-05,1.42421e-05,0
-2.36823e-05,6.50797e-06,-1.30435e-05,-1.13439e-05,2.88574e-05,-5.16214e-06,1.94536e-05,8.14356e-06,0
-2.13779e-05,5.80108e-06,-1.23795e-05,-0.000107722,3.24715e-05,-8.59355e-06,2.47851e-05,-9.41881e-07,0
-2.40783e-05,5.17244e-06,-8.20754e-06,-0.000161882,4.08479e-05,-1.10369e-05,2.96444e-05,-1.14161e-05,0
-2.82879e-05,2.43894e-06,-6.76467e-06,-0.000143038,3.43795e-05,-3.56495e-06,3.29496e-05,-2.05212e-05,0
-2.72078e-05,5.9547e-08,-9.6948e-06,-7.2352e-05,2.07044e-05,1.6178e-05,3.3729e-05,-2.54597e-05,0
-2.57473e-05,1.21291e-06,-9.61281e-06,-2.60369e-05,2.53058e-05,2.43674e-05,3.29562e-05,-2.52072e-05,0
-2.72025e-05,3.99602e-06,-5.35002e-06,5.72786e-06,4.97054e-05,1.22734e-05,3.30138e-05,-2.18995e-05,0
-2.58525e-05,5.25368e-06,-6.85832e-06,7.4436e-05,7.88495e-05,1.33378e-07,3.32602e-05,-1.93702e-05,0
-2.05673e-05,4.89035e-06,-1.27572e-05,0.000174961,0.000112871,-2.33983e-06,3.29382e-05,-1.7739e-05,0
-1.67284e-05,4.45293e-06,-1.35387e-05,0.00024651,0.00014678,-5.01617e-06,3.11571e-05,-1.44723e-05,0
-1.73657e-05,6.84411e-06,-9.19795e-06,0.000219069,0.000154101,-7.88584e-06,2.81645e-05,-1.10873e-05,0
-1.99777e-05,1.36404e-05,-6.74915e-06,0.000103446,0.000140607,-6.95549e-06,2.57143e-05,-8.59093e-06,0
-1.96572e-05,2.17036e-05,-9.14655e-06,-1.61663e-05,0.000115388,-2.5191e-06,2.25793e-05,-6.15171e-06,0
-1.74638e-05,2.68487e-05,-1.38027e-05,-8.12412e-05,4.82067e-05,2.82866e-06,1.99745e-05,-3.8612e-06,0
-1.87462e-05,2.50241e-05,-1.85635e-05,-0.000111824,-4.40973e-05,2.55653e-06,1.84008e-05,-2.54237e-06,0
-2.41812e-05,1.772e-05,-2.54239e-05,-0.000115356,-0.000133128,-1.13678e-05,1.57498e-05,-2.88892e-06,0
-3.09778e-05,7.97209e-06,-3.16527e-05,-9.31214e-05,-0.000190773,-3.06883e-05,1.26695e-05,-2.73099e-06,0
-3.55325e-05,2.93505e-07,-3.4406e-05,-7.52589e-05,-0.000197784,-4.1779e-05,1.11577e-05,-1.29192e-06,0
-3.60622e-05,-1.78073e-07,-3.47824e-05,-5.74849e-05,-0.000162071,-4.45898e-05,1.15511e-05,4.21693e-08,0
-3.4175e-05,4.97032e-06,-3.46793e-05,-2.79387e-05,-0.000106902,-4.37146e-05,1.12599e-05,5.83233e-07,0
-3.20511e-05,9.21858e-06,-3.48263e-05,3.26219e-05,-4.18947e-05,-4.27813e-05,1.02589e-05,1.13372e-06,0
-2.99268e-05,7.87865e-06,-3.06883e-05,0.00011217,2.51385e-05,-3.96242e-05,9.9844e-06,2.37861e-06,0
-2.7339e-05,4.30759e-06,-2.19966e-05,0.000143266,7.88671e-05,-3.30272e-05,9.86153e-06,3.67599e-06,0
-2.43884e-05,4.85563e-06,-1.50427e-05,8.50676e-05,0.000115618,-2.19203e-05,9.59107e-06,3.75697e-06,0
-2.13655e-05,1.11344e-05,-1.19171e-05,-9.70848e-06,0.000130137,-7.28645e-06,9.825e-06,2.63301e-06,0
-1.87669e-05,1.78184e-05,-6.96593e-06,-7.2261e-05,0.000113177,1.4911e-05,1.02818e-05,1.747e-06,0
-1.32462e-05,2.26151e-05,2.79793e-06,-0.000100613,7.0185e-05,4.78816e-05,1.02474e-05,1.4575e-06,0
-2.94133e-06,2.79692e-05,1.37437e-05,-0.000128713,2.82923e-05,6.39615e-05,1.07076e-05,3.79836e-07,0
3.49833e-06,3.41272e-05,1.77764e-05,-0.00015935,-7.44485e-06,3.25116e-05,1.12901e-05,-1.5815e-07,0
-1.40276e-06,3.67158e-05,8.68124e-06,-0.000196858,-5.15304e-05,-1.48109e-05,8.91028e-06,1.10538e-06,0
-1.45576e-05,3.33266e-05,-1.1646e-05,-0.000225044,-0.000106617,-1.56646e-05,-1.9927e-06,1.52543e-06,0
-3.05006e-05,2.76683e-05,-3.36107e-05,-0.000138518,-0.000133186,2.15896e-05,-1.85349e-05,5.28629e-08,0
-4.49712e-05,2.22164e-05,-4.3838e-05,9.78768e-05,-6.98921e-05,3.05406e-05,-2.90546e-05,-1.81346e-06,0
-5.46875e-05,1.74676e-05,-3.72022e-05,0.000293616,8.28309e-05,2.38527e-06,-3.07156e-05,-3.27801e-06,0
-5.68516e-05,1.69824e-05,-1.4528e-05,0.000293981,0.000206375,-1.40006e-05,-2.4476e-05,-3.57221e-06,0
-5.27823e-05,2.17744e-05,1.65393e-05,0.000158744,0.000207547,-5.65967e-06,-1.17478e-05,-3.75845e-06,0
-5.46286e-05,2.21435e-05,2.99125e-05,-8.54619e-05,0.000102722,-7.18532e-06,2.03107e-06,-3.28521e-06,0
-6.3851e-05,1.55221e-05,1.96606e-05,-0.000358658,-4.20981e-05,-2.76239e-05,1.77291e-05,-2.20873e-06,0
-6.61469e-05,9.79368e-06,5.20649e-06,-0.000370772,-0.000134473,-4.01801e-05,3.54571e-05,-2.70392e-06,0
-5.5905e-05,7.1836e-06,1.25479e-06,-2.43671e-05,-0.000147566,-3.84477e-05,4.80996e-05,-3.25308e-06,0
-3.97048e-05,6.58411e-06,8.21726e-06,0.000320246,-0.00010288,-2.86811e-05,5.085e-05,-3.6975e-06,0
-3.1682e-05,4.59955e-06,1.16999e-05,0.000376662,-3.08795e-05,-1.94897e-05,4.60987e-05,-3.6898e-06,0
-3.23253e-05,3.35415e-06,1.06037e-05,0.000202336,2.95703e-05,-1.06641e-05,4.13936e-05,-1.94572e-06,0
-3.20893e-05,5.5578e-06,1.04183e-05,-2.19854e-05,6.27607e-05,-1.43796e-06,3.90071e-05,9.26597e-07,0
-3.07793e-05,1.09019e-05,1.01973e-05,-0.000149476,7.42208e-05,1.67061e-06,3.87746e-05,2.98843e-06,0
-3.14143e-05,2.0897e-05,1.25522e-06,-0.000166756,6.76552e-05,-4.00753e-06,3.77891e-05,4.11496e-06,0
-3.3425e-05,3.62968e-05,-1.18355e-05,-0.000126345,4.96577e-05,-9.55527e-06,3.35499e-05,5.95459e-06,0
-3.48377e-05,4.99951e-05,-1.53921e-05,-8.5712e-05,3.52426e-05,-4.62503e-06,2.92253e-05,7.36944e-06,0
-3.55861e-05,5.3007e-05,-8.5759e-06,-3.68552e-05,3.83447e-05,7.02439e-06,2.59118e-05,7.41379e-06,0
-3.49315e-05,4.27054e-05,7.97298e-08,-4.14471e-06,6.17698e-05,1.63282e-05,2.26234e-05,8.00781e-06,0
-3.1872e-05,2.33435e-05,3.3917e-06,-3.69547e-05,9.39287e-05,1.93051e-05,1.86398e-05,9.66806e-06,0
-2.48244e-05,6.62708e-06,1.92503e-06,-7.62612e-05,0.000134343,2.10166e-05,1.21407e-05,1.01205e-05,0
-1.37803e-05,-7.98081e-07,-2.93847e-06,-4.5795e-05,0.000174763,2.39778e-05,6.11045e-07,9.30578e-06,0
-3.18813e-06,-2.38112e-06,-9.83404e-06,3.42174e-05,0.000188188,2.31807e-05,-1.19331e-05,9.71732e-06,0
5.37878e-07,-4.79479e-06,-1.75351e-05,0.000135693,0.000162168,1.22406e-05,-1.82418e-05,1.13075e-05,0
-2.16266e-06,-6.27512e-06,-2.08887e-05,0.000238232,0.000121721,-1.84413e-06,-1.70549e-05,1.16581e-05,0
-6.68294e-06,-3.70356e-06,-1.80887e-05,0.000266753,8.51919e-05,-1.1392e-05,-1.31833e-05,1.05969e-05,0
-1.0393e-05,8.60696e-07,-1.14013e-05,0.000194176,5.05805e-05,-1.52461e-05,-8.3179e-06,1.02632e-05,0
-1.5854e-05,2.22697e-06,-6.96741e-06,5.91899e-05,2.32294e-05,-1.63455e-05,-3.18604e-06,1.1523e-05,0
-2.70747e-05,1.01924e-07,-9.05632e-06,-7.48209e-05,6.73438e-06,-2.00578e-05,-2.35795e-07,1.25125e-05,0
-4.02747e-05,-3.74414e-06,-1.6486e-05,-0.000172692,-1.25587e-05,-2.45061e-05,2.02121e-06,1.30523e-05,0
-4.76183e-05,-5.75353e-06,-2.15142e-05,-0.000198869,-5.046e-05,-2.6307e-05,5.87955e-06,1.23833e-05,0
-4.80159e-05,-3.73085e-06,-2.31227e-05,-0.00013506,-0.000104788,-2.81815e-05,5.68885e-06,9.52592e-06,0
-4.5851e-05,-3.09103e-06,-2.86399e-05,-7.95515e-05,-0.000129825,-3.14257e-05,-2.45951e-06,7.80544e-06,0
-4.32552e-05,-2.01664e-06,-3.63144e-05,-7.49398e-05,-9.97185e-05,-3.39357e-05,-8.9698e-06,7.7109e-06,0
-3.92314e-05,3.87374e-06,-3.65784e-05,-1.08045e-05,-4.85831e-05,-3.11419e-05,-1.12126e-05,7.48373e-06,0
-3.43354e-05,1.14593e-05,-3.06049e-05,0.00017537,-1.38307e-05,-2.42331e-05,-1.07732e-05,5.83255e-06,0
-3.04958e-05,1.56957e-05,-2.48714e-05,0.000334977,2.2123e-06,-1.61449e-05,-4.97309e-06,2.6771e-06,0
-2.55684e-05,1.54096e-05,-1.59483e-05,0.000238943,2.1719e-05,-5.68824e-06,3.38383e-06,5.65295e-07,0
-1.95417e-05,1.23999e-05,-6.52748e-06,-8.21681e-05,3.7019e-05,3.09946e-06,1.17096e-05,-4.30276e-07,0
-1.61527e-05,1.22116e-05,-5.03459e-06,-0.000357628,3.92193e-05,4.56968e-06,1.91583e-05,-4.25314e-07,0
-1.60237e-05,2.65791e-05,-1.11643e-05,-0.000432201,3.50627e-05,6.90325e-07,2.48036e-05,1.09234e-06,0
-1.73056e-05,5.80522e-05,-1.97318e-05,-0.00032486,3.19691e-05,-2.41174e-06,2.68932e-05,1.5058e-06,0
-1.89944e-05,8.53452e-05,-2.31532e-05,-5.37053e-05,2.65047e-05,-1.2703e-06,2.65108e-05,3.40669e-07,0
-1.99267e-05,8.52269e-05,-1.51824e-05,0.000268356,1.85367e-05,2.89501e-06,2.60343e-05,-8.04935e-07,0
-2.08817e-05,5.57068e-05,-2.27662e-07,0.000437631,1.02709e-05,4.85002e-06,2.58516e-05,-1.60752e-06,0
-2.28243e-05,1.32152e-05,1.19518e-05,0.000377273,1.67555e-06,2.43323e-06,2.51857e-05,-2.68578e-06,0
-2.60001e-05,-2.23467e-05,1.29749e-05,0.00019124,-7.1735e-06,-2.81788e-06,2.36099e-05,-4.30448e-06,0
-2.92365e-05,-3.87649e-05,3.88933e-06,4.13043e-05,-1.44802e-05,-7.69141e-06,2.11784e-05,-6.13196e-06,0
-3.15854e-05,-3.69765e-05,-6.86068e-06,7.01809e-06,-8.32353e-06,-1.25168e-05,1.75294e-05,-4.72827e-06,0
-3.5577e-05,-2.90507e-05,-1.24454e-05,4.21085e-05,9.09497e-06,-1.77528e-05,1.37608e-05,6.8244e-06,0
-4.34362e-05,-2.65944e-05,-1.46653e-05,3.38384e-05,9.67592e-06,-2.53619e-05,1.09698e-05,2.67059e-05,0
-5.059e-05,-3.02568e-05,-1.61818e-05,-6.32094e-05,-1.70918e-05,-3.83358e-05,1.07034e-05,3.91499e-05,0
-4.95836e-05,-3.31595e-05,-1.56601e-05,-0.000205939,-3.96801e-05,-5.43432e-05,1.09397e-05,3.62429e-05,0
-3.9955e-05,-3.01808e-05,-1.23634e-05,-0.000298128,-4.42229e-05,-6.63446e-05,6.62996e-06,2.10752e-05,0
-2.66772e-05,-1.95642e-05,-9.67596e-06,-0.000250879,-4.88881e-05,-7.0175e-05,-5.72466e-06,-4.90274e-06,0
-1.02078e-05,-1.97007e-06,-9.64591e-06,-8.62648e-05,-5.36845e-05,-6.80266e-05,-2.12989e-05,-3.23969e-05,0
5.66315e-06,1.86605e-05,-6.60681e-06,4.68093e-05,-2.82673e-05,-6.27585e-05,-3.05531e-05,-5.14033e-05,0
9.06308e-06,3.68113e-05,1.5416e-06,-4.37668e-05,2.09079e-05,-5.31174e-05,-3.02641e-05,-5.88157e-05,0
-3.33039e-06,4.84952e-05,1.15108e-05,-0.000282238,5.1983e-05,-4.03225e-05,-2.51672e-05,-5.62602e-05,0
-1.88834e-05,4.51335e-05,2.22694e-05,-0.000293233,4.77295e-05,-2.74404e-05,-1.84796e-05,-4.84192e-05,0
-2.60077e-05,3.15534e-05,3.67112e-05,-2.39871e-05,3.0205e-05,-1.63861e-05,-7.11676e-06,-3.65868e-05,0
-2.9997e-05,2.18228e-05,5.09124e-05,0.000187277,2.11113e-05,9.09487e-06,8.84072e-06,-2.20853e-05,0
-3.53399e-05,1.54556e-05,5.41151e-05,0.000156526,2.00431e-05,5.69161e-05,2.66223e-05,-1.0423e-05,0
-4.52267e-05,9.06733e-06,4.43101e-05,0.000102392,2.2306e-05,8.70622e-05,4.22169e-05,-3.24798e-06,0
-5.86028e-05,3.59121e-06,2.47909e-05,0.000224871,2.45047e-05,7.94198e-05,5.35608e-05,1.70311e-06,0
-7.23102e-05,3.64398e-06,-2.77072e-06,0.000368161,2.38172e-05,5.59246e-05,6.17203e-05,7.29264e-06,0
-8.36328e-05,7.20254e-06,-3.14667e-05,0.00034496,5.01773e-06,3.5518e-05,6.86875e-05,1.72384e-05,0
-8.69115e-05,9.14571e-06,-5.11959e-05,0.000187221,-2.75187e-05,2.15025e-05,7.49121e-05,2.7636e-05,0
-8.06664e-05,7.65895e-06,-5.76408e-05,3.66308e-05,-4.91587e-05,9.66672e-06,7.68065e-05,2.98795e-05,0
-7.01403e-05,5.08504e-06,-5.42843e-05,-7.11484e-05,-5.16269e-05,-3.35679e-06,7.30891e-05,2.31509e-05,0
-6.17169e-05,5.51342e-06,-5.1436e-05,-0.000162356,-4.94148e-05,-2.17567e-05,6.51291e-05,1.19063e-05,0
-5.51652e-05,1.07137e-05,-5.41678e-05,-0.000241061,-4.09774e-05,-4.04107e-05,5.5107e-05,3.49873e-07,0
-4.63246e-05,1.83227e-05,-5.66494e-05,-0.000291955,-5.06473e-06,-4.81033e-05,4.4904e-05,-8.26028e-06,0
-2.85017e-05,2.39808e-05,-5.04079e-05,-0.000296483,3.36653e-05,-4.33264e-05,3.67325e-05,-1.29255e-05,0
-2.58478e-06,2.70485e-05,-3.70844e-05,-0.000215013,3.64455e-05,-3.33417e-05,3.10542e-05,-1.3347e-05,0
1.80095e-05,2.76729e-05,-2.43232e-05,-6.46141e-05,2.3992e-05,-2.53233e-05,2.56115e-05,-1.08294e-05,0
1.79613e-05,2.75621e-05,-1.29555e-05,-2.16209e-06,3.01857e-05,-2.12911e-05,1.93219e-05,-8.98079e-06,0
2.14509e-06,2.7729e-05,-8.45631e-07,-0.000115405,4.4815e-05,-1.83432e-05,1.21389e-05,-1.00806e-05,0
-1.38685e-05,2.67232e-05,7.43971e-06,-0.000254443,5.98348e-05,-1.35222e-05,3.75903e-06,-1.11072e-05,0
-2.23894e-05,2.15069e-05,3.89824e-06,-0.000288976,8.77532e-05,-7.30381e-06,-4.89242e-06,-1.02746e-05,0
-2.48315e-05,1.37988e-05,-5.25029e-06,-0.000264526,0.00011748,-7.7004e-07,-1.15765e-05,-8.32776e-06,0
-2.62786e-05,9.13532e-06,-1.09921e-05,-0.000201446,0.000100978,1.90195e-06,-1.43351e-05,-5.86532e-06,0
-2.68997e-05,9.78585e-06,-1.23727e-05,-8.81921e-05,1.21543e-05,-5.57099e-06,-1.36953e-05,-4.14734e-06,0
-2.70005e-05,1.11725e-05,-1.65007e-05,2.89149e-05,-0.000105458,-2.71349e-05,-1.33695e-05,-3.01324e-06,0
-2.94124e-05,1.02596e-05,-2.77249e-05,8.09276e-05,-0.000182017,-5.80936e-05,-1.36238e-05,-3.02432e-06,0
-3.00991e-05,9.51298e-06,-3.52996e-05,7.14164e-05,-0.000179989,-7.49238e-05,-1.31641e-05,-3.59114e-06,0
-2.53456e-05,1.25005e-05,-2.43242e-05,4.18257e-05,-0.000107956,-4.16312e-05,-1.027e-05,-9.76913e-07,0
-2.09591e-05,1.8421e-05,7.35076e-07,1.5741e-05,-5.37698e-06,1.66611e-05,-6.47708e-06,2.09149e-06,0
-2.3317e-05,1.99802e-05,2.19542e-05,2.05862e-05,9.42439e-05,4.6598e-05,-7.28039e-06,3.94131e-06,0
-3.00075e-05,1.43471e-05,3.40867e-05,0.000103122,0.000168549,4.76109e-05,-1.06234e-05,5.57923e-06,0
-3.5738e-05,6.57783e-06,3.64089e-05,0.000205205,0.000183168,3.64292e-05,-1.20886e-05,5.19813e-06,0
-3.93755e-05,2.68127e-06,3.01067e-05,0.000230692,0.000128982,2.96946e-05,-1.07462e-05,4.2771e-06,0
-4.38035e-05,5.69329e-06,1.91631e-05,0.000210327,5.55486e-05,2.99482e-05,-7.21022e-06,3.99344e-06,0
-4.80053e-05,1.19457e-05,7.53671e-06,0.000172765,2.12199e-05,3.45142e-05,-3.36264e-06,5.03354e-06,0
-4.71278e-05,1.48807e-05,-2.87305e-06,0.000144478,2.68905e-05,3.41688e-05,-2.99762e-07,6.19883e-06,0
-4.22128e-05,1.42977e-05,-9.64138e-06,0.000138859,3.74758e-05,2.12584e-05,1.90249e-06,7.24812e-06,0
