ch1,ch2,ch3,ch4,ch5,ch6,ch7,ch8,class
-1.88357e-07,9.14475e-06,9.80106e-06,5.17e-05,2.71404e-05,-1.47398e-05,-9.56398e-05,2.53601e-06,0
-3.37665e-05,4.74127e-06,1.86043e-05,7.41615e-05,1.99473e-05,-1.85749e-05,-0.000114899,3.78489e-06,0
-4.44671e-05,9.5852e-06,2.40426e-05,9.42147e-05,1.71558e-05,-1.68653e-05,-0.000118077,3.48266e-06,0
-1.43061e-05,2.17782e-05,3.09725e-05,7.35619e-05,1.91811e-05,-1.09389e-05,-0.000104757,2.30446e-06,0
1.82281e-05,3.58171e-05,3.51336e-05,2.72943e-05,2.05064e-05,-5.33818e-06,-6.43168e-05,7.21322e-07,0
1.78404e-05,4.74958e-05,2.72117e-05,-9.1672e-07,1.7954e-05,-5.66626e-06,-5.91414e-06,-5.70082e-07,0
-9.89109e-06,4.88341e-05,1.23679e-05,-1.59807e-05,1.11184e-05,-1.21219e-05,3.83001e-05,-4.8275e-07,0
-3.26916e-05,3.42636e-05,8.559e-08,-4.82875e-05,4.22858e-06,-1.76041e-05,4.69139e-05,2.05105e-06,0
-3.66734e-05,1.46648e-05,-7.38381e-06,-6.2667e-05,3.55522e-06,-1.78031e-05,2.96564e-05,3.78107e-06,0
-2.81062e-05,1.99051e-06,-1.1259e-05,-2.82072e-05,8.75675e-06,-1.56756e-05,1.12758e-05,2.39652e-06,0
-2.0844e-05,1.38705e-06,-2.87484e-05,-4.39718e-06,1.54784e-05,-1.66052e-05,6.04258e-06,1.47901e-06,0
-2.10428e-05,1.07092e-05,-6.03588e-05,-1.852e-05,1.79566e-05,-2.07292e-05,1.11832e-05,8.02541e-07,0
-2.23304e-05,2.71244e-05,-8.42492e-05,-3.28211e-05,1.35837e-05,-2.44769e-05,1.8295e-05,-2.69321e-07,0
-2.28391e-05,6.06112e-05,-8.52234e-05,-4.21987e-05,7.34204e-06,-2.47276e-05,2.51103e-05,7.47103e-07,0
-2.48312e-05,0.000111637,-6.44605e-05,-5.45106e-05,5.75938e-06,-2.23912e-05,2.85571e-05,2.08036e-06,0
-2.51243e-05,0.000170956,-3.6604e-05,-6.69253e-05,1.0258e-05,-1.80207e-05,2.45099e-05,1.499e-06,0
-1.5266e-05,0.000201291,-1.34597e-05,-6.33527e-05,1.98596e-05,-1.10601e-05,9.79169e-06,4.04384e-07,0
1.19575e-05,0.000167485,1.94082e-06,-4.15974e-05,3.05718e-05,-4.6802e-06,-1.23002e-05,9.12125e-08,0
5.45902e-05,9.63944e-05,1.02543e-05,-2.24834e-05,3.84071e-05,-2.37189e-06,-2.91621e-05,-8.38417e-07,0
9.86265e-05,7.06402e-05,1.08346e-05,-4.50656e-06,4.16439e-05,-3.23571e-06,-3.44998e-05,-2.24636e-06,0
0.000132873,0.000134751,7.33831e-06,2.32826e-05,3.95573e-05,-5.51736e-06,-3.894e-05,-2.84527e-06,0
0.000152803,0.000260198,4.79124e-06,5.12364e-05,3.34396e-05,-8.11975e-06,-5.26001e-05,-2.48535e-06,0
0.00015123,0.000410534,6.16297e-06,5.16184e-05,2.65562e-05,-1.07475e-05,-6.45129e-05,-1.50427e-06,0
0.00012374,0.000554652,9.60479e-06,1.67082e-05,2.42225e-05,-1.18218e-05,-6.07731e-05,-4.07412e-07,0
7.54892e-05,0.000621856,1.29852e-05,-2.16034e-05,2.91993e-05,-9.36988e-06,-3.9253e-05,1.51573e-07,0
1.2406e-05,0.000514436,1.52902e-05,-2.76951e-05,3.72667e-05,-7.29171e-06,-1.00191e-05,1.74611e-08,0
-6.06426e-05,0.000228746,1.28188e-05,-4.40339e-06,3.97614e-05,-9.25018e-06,1.63932e-05,1.30965e-06,0
-0.000131734,-0.000105055,5.46896e-06,3.03267e-05,3.62937e-05,-1.12773e-05,3.67775e-05,4.28905e-06,0
-0.000190682,-0.000353592,-3.45755e-06,6.82264e-05,3.37437e-05,-9.49092e-06,5.37816e-05,6.48064e-06,0
-0.000234521,-0.000509538,-1.22042e-05,9.74357e-05,3.17393e-05,-8.24038e-06,6.56619e-05,6.45792e-06,0
-0.000262674,-0.000597254,-1.88088e-05,9.05947e-05,2.36591e-05,-1.04037e-05,6.83337e-05,5.89808e-06,0
-0.000264441,-0.000557598,-1.93782e-05,3.31404e-05,1.28439e-05,-1.48519e-05,6.08669e-05,5.95663e-06,0
-0.0002232,-0.000356168,-1.44618e-05,-3.58951e-05,8.78205e-06,-1.64949e-05,4.69196e-05,6.45824e-06,0
-0.000152593,-9.3866e-05,-7.04622e-06,-7.15272e-05,8.22908e-06,-1.37457e-05,3.31437e-05,6.34959e-06,0
-8.54141e-05,7.67862e-05,-1.28907e-06,-6.60378e-05,4.34537e-06,-9.84856e-06,2.23595e-05,5.31605e-06,0
-4.03654e-05,0.000103022,-3.27887e-07,-2.0974e-05,3.45984e-06,-6.51675e-06,9.93827e-06,5.11181e-06,0
-2.36993e-05,3.88786e-05,-2.69578e-06,3.63866e-05,1.266e-05,-4.75345e-06,-7.7802e-06,6.23268e-06,0
-2.84692e-05,-1.67393e-05,-2.22955e-06,5.40708e-05,2.31844e-05,-3.57361e-06,-2.11815e-05,6.10167e-06,0
-4.4478e-05,-6.13847e-05,4.80711e-07,3.84046e-05,2.43252e-05,-3.25829e-06,-2.65899e-05,3.81384e-06,0
-6.24857e-05,-0.000129782,1.02783e-06,3.07128e-05,2.1541e-05,-2.0755e-06,-2.59006e-05,1.47158e-06,0
-7.55533e-05,-0.000187828,5.06902e-06,3.56152e-05,2.11087e-05,-2.35429e-07,-1.85123e-05,7.75762e-07,0
-8.44433e-05,-0.000232264,1.40241e-05,4.10744e-05,2.36471e-05,8.82433e-07,-8.06787e-06,1.58049e-06,0
-9.11536e-05,-0.000261569,2.08289e-05,3.82363e-05,2.29845e-05,5.94964e-07,4.69609e-06,2.62253e-06,0
-9.89391e-05,-0.000261011,2.02305e-05,3.41171e-05,1.72926e-05,-1.37579e-06,1.76258e-05,2.97947e-06,0
-0.000105478,-0.000202863,1.25844e-05,2.59701e-05,1.35864e-05,-2.80152e-06,2.60333e-05,2.12641e-06,0
-9.82728e-05,-0.000105081,2.43063e-06,8.79875e-06,1.17925e-05,-1.75137e-06,2.98949e-05,1.11164e-06,0
-7.39835e-05,-2.01608e-05,-3.80063e-06,-1.06771e-05,1.15945e-05,1.50721e-06,3.30642e-05,-3.47538e-08,0
-4.58368e-05,9.39135e-06,-6.6181e-06,-2.83936e-05,1.22531e-05,3.99968e-06,3.62095e-05,-1.26203e-06,0
-2.79422e-05,-2.50147e-05,-9.36242e-06,-4.20784e-05,1.56263e-05,5.57176e-06,3.8301e-05,-2.59864e-06,0
-2.35293e-05,-8.79588e-05,-7.68262e-06,-4.89856e-05,2.4687e-05,7.28523e-06,4.00516e-05,-4.10095e-06,0
-2.5822e-05,-0.000132827,8.79939e-07,-5.08553e-05,3.48724e-05,9.33334e-06,4.03405e-05,-4.05301e-06,0
-2.41259e-05,-0.000125488,1.12172e-05,-6.03145e-05,3.85193e-05,1.02384e-05,3.9304e-05,-2.01484e-06,0
-1.25162e-05,-7.92611e-05,1.70489e-05,-7.26734e-05,3.30748e-05,9.17823e-06,3.84331e-05,-1.99897e-07,0
2.41508e-06,-2.19658e-05,1.8421e-05,-6.87008e-05,2.10652e-05,6.87454e-06,3.89533e-05,2.6901e-07,0
7.15428e-06,2.54812e-05,1.61889e-05,-4.35663e-05,8.36461e-06,3.85605e-06,3.81468e-05,4.8369e-07,0
-5.69993e-06,6.88449e-05,9.87781e-06,-1.87104e-05,2.19914e-06,2.01508e-06,3.34507e-05,4.38082e-07,0
-2.49963e-05,0.000119599,3.94698e-06,-1.07606e-05,3.24653e-06,2.26326e-06,2.72084e-05,-3.81904e-07,0
-2.97129e-05,0.000181158,3.29928e-06,-1.94806e-05,4.42955e-06,1.90762e-06,2.31346e-05,-2.87346e-06,0
-1.15518e-05,0.000227762,2.54685e-06,-3.76698e-05,2.70487e-06,-7.03517e-07,2.08561e-05,-6.00675e-06,0
2.18543e-05,0.000232849,-4.64638e-06,-5.42913e-05,1.36757e-06,-3.19231e-06,1.84826e-05,-7.88205e-06,0
6.06251e-05,0.000214232,-1.46525e-05,-5.65411e-05,4.27669e-06,-2.14262e-06,1.54494e-05,-8.62383e-06,0
8.99848e-05,0.000202655,-2.38483e-05,-6.01829e-05,1.07151e-05,1.47029e-06,1.28149e-05,-7.93738e-06,0
9.2707e-05,0.000166916,-3.67774e-05,-7.09206e-05,1.2722e-05,1.55393e-06,1.07787e-05,-6.35918e-06,0
6.29676e-05,7.4886e-05,-5.52472e-05,-5.55338e-05,-4.6302e-06,-2.95244e-06,7.94334e-06,-4.99735e-06,0
1.79529e-05,-2.43378e-05,-5.80526e-05,-1.90045e-05,-3.92642e-05,-7.938e-06,5.14064e-06,-3.18343e-06,0
-2.177e-05,-8.82741e-05,-3.40705e-05,2.95898e-06,-6.09565e-05,-1.16591e-05,5.46016e-08,-1.90321e-06,0
-5.49352e-05,-0.000123046,-3.78448e-06,-1.57384e-05,-6.00059e-05,-1.24632e-05,-8.92289e-06,-1.1424e-06,0
-8.03476e-05,-0.000110016,1.66044e-05,-6.82647e-05,-5.02375e-05,-1.11538e-05,-1.47326e-05,3.37324e-07,0
-9.13685e-05,-2.85275e-05,2.02048e-05,-0.000106173,-4.37955e-05,-9.79435e-06,-1.19433e-05,-5.01081e-07,0
-8.49071e-05,7.46252e-05,8.57857e-06,-8.85141e-05,-4.26525e-05,-7.70944e-06,-4.52865e-07,-2.6562e-06,0
-7.30234e-05,0.000144792,-1.15593e-05,-4.04112e-05,-3.96549e-05,-7.19555e-06,1.32754e-05,-2.77048e-06,0
-6.54418e-05,0.000167125,-3.33147e-05,1.51648e-06,-3.29071e-05,-8.89824e-06,2.19861e-05,-2.10243e-06,0
-5.53824e-05,0.000150671,-4.83163e-05,5.82692e-05,-2.39178e-05,-1.12441e-05,2.56248e-05,-2.20112e-06,0
-3.93404e-05,0.000112859,-5.4349e-05,0.000146723,-1.44728e-05,-1.30688e-05,2.6496e-05,-2.72234e-06,0
-2.97189e-05,7.50919e-05,-5.27682e-05,0.000243845,-5.5019e-06,-1.43316e-05,2.69667e-05,-2.83737e-06,0
-2.78031e-05,5.47371e-05,-4.26195e-05,0.000315703,9.19929e-07,-1.61722e-05,2.10161e-05,-2.56095e-06,0
-1.54219e-05,3.74737e-05,-2.4115e-05,0.000350303,3.38454e-06,-1.91649e-05,-1.75749e-06,-1.7499e-06,0
1.10698e-05,4.6381e-06,-4.39422e-06,0.00034788,2.71328e-06,-2.06341e-05,-3.66942e-05,-1.32149e-06,0
3.50845e-05,-2.92891e-05,7.33318e-06,0.000293948,1.38626e-07,-1.77554e-05,-6.10145e-05,-1.79588e-06,0
3.73897e-05,-5.43078e-05,6.21819e-06,0.000167793,-4.46798e-07,-1.34152e-05,-5.73871e-05,-1.99771e-06,0
1.51635e-05,-7.82074e-05,-4.25098e-06,-1.01444e-05,3.14521e-06,-1.13201e-05,-2.35832e-05,-9.54572e-07,0
-1.91381e-05,-0.000111311,-1.67969e-05,-0.000179074,4.3445e-06,-1.2068e-05,3.76601e-05,-5.05342e-08,0
-4.7912e-05,-0.00014009,-2.7535e-05,-0.000300147,-2.55805e-06,-1.47796e-05,0.000110215,-5.067e-07,0
-6.06492e-05,-0.000118767,-3.53277e-05,-0.000353153,-1.16017e-05,-1.85355e-05,0.000159392,-6.58867e-07,0
-5.42257e-05,-1.2534e-05,-3.57428e-05,-0.000323441,-1.4854e-05,-2.06419e-05,0.000166301,2.73746e-07,0
-3.30766e-05,9.92244e-05,-2.78869e-05,-0.00022014,-1.22727e-05,-1.86441e-05,0.000143201,1.2282e-06,0
5.85906e-07,8.61203e-05,-1.88225e-05,-8.59249e-05,-6.00309e-06,-1.45907e-05,0.000109476,1.82035e-06,0
4.15597e-05,-4.04306e-05,-1.34549e-05,2.49253e-05,4.82517e-06,-1.21227e-05,7.12977e-05,1.95467e-06,0
6.12251e-05,-0.00014819,-1.15988e-05,7.01651e-05,1.6919e-05,-9.8199e-06,2.75466e-05,1.2548e-06,0
4.97187e-05,-0.000160211,-1.02251e-05,3.3952e-05,2.54893e-05,-6.53727e-06,-1.82676e-05,6.65174e-07,0
2.52038e-05,-0.000104412,-1.99937e-06,-3.01668e-05,2.93389e-05,-5.67402e-06,-6.11093e-05,1.904e-06,0
6.68906e-07,-4.30942e-05,7.67815e-06,-2.4145e-05,2.88833e-05,-7.61119e-06,-8.74558e-05,3.19606e-06,0
-2.4651e-05,-4.69543e-06,1.10546e-05,3.8022e-05,2.84479e-05,-9.68864e-06,-0.000100074,4.41456e-06,0
-5.69453e-05,1.27265e-05,1.26148e-05,5.45442e-05,2.89852e-05,-1.17935e-05,-0.000105278,5.34701e-06,0
-8.92563e-05,1.78905e-05,1.21692e-05,-3.19807e-06,2.92545e-05,-1.35519e-05,-0.000100307,4.36155e-06,0
-0.000115204,4.73527e-05,7.37429e-06,-6.92755e-05,3.16501e-05,-1.36529e-05,-8.91412e-05,1.9728e-06,0
-0.000126178,0.000143079,-5.07592e-07,-7.77274e-05,3.78695e-05,-1.21756e-05,-7.06028e-05,-9.31594e-07,0
-0.000114308,0.000295824,-7.70594e-06,-4.1461e-05,4.38706e-05,-1.19095e-05,-5.24489e-05,-1.275e-06,0
-8.73711e-05,0.000454533,-1.27838e-05,8.89524e-07,4.60752e-05,-1.3706e-05,-3.02723e-05,-8.75034e-07,0
-6.49015e-05,0.000574362,-1.54622e-05,1.89427e-05,4.50768e-05,-1.48154e-05,1.86825e-06,-6.72076e-07,0
-5.93439e-05,0.000611683,-1.96206e-05,-1.09882e-06,4.10981e-05,-1.39838e-05,3.34116e-05,-9.98392e-07,0
-4.88293e-05,0.000536956,-2.22628e-05,-3.33099e-05,3.7124e-05,-1.07016e-05,5.06188e-05,-1.79395e-06,0
-6.62702e-06,0.00034461,-1.89299e-05,-4.2149e-05,3.66148e-05,-5.38884e-06,5.51935e-05,-2.14176e-06,0
5.25226e-05,5.64357e-05,-1.5034e-05,-2.91729e-05,4.03044e-05,-1.53308e-06,5.63563e-05,-2.36945e-06,0
8.46682e-05,-0.000265303,-1.66289e-05,-1.85781e-05,4.23912e-05,-2.94495e-06,5.41275e-05,-2.4651e-06,0
7.08076e-05,-0.000517786,-2.20348e-05,-1.80951e-05,3.79406e-05,-8.2645e-06,4.97427e-05,-2.02389e-06,0
2.98959e-05,-0.00062545,-2.54611e-05,-2.1033e-05,2.97589e-05,-1.36991e-05,4.74481e-05,-3.99709e-07,0
-8.6641e-06,-0.000592535,-2.66975e-05,-2.53315e-05,2.29802e-05,-1.81296e-05,5.13396e-05,9.48875e-07,0
-2.92218e-05,-0.00047605,-2.74964e-05,-3.13739e-05,1.93963e-05,-2.10696e-05,5.67571e-05,1.2764e-06,0
-3.66704e-05,-0.000336983,-3.13598e-05,-3.56738e-05,1.96054e-05,-2.08916e-05,5.99984e-05,-2.31982e-08,0
-4.46959e-05,-0.000219831,-3.70018e-05,-3.79357e-05,2.14574e-05,-2.04332e-05,5.52853e-05,-1.92153e-06,0
-5.59339e-05,-0.000135395,-3.67125e-05,-4.04644e-05,1.87158e-05,-2.23925e-05,3.32193e-05,-2.49906e-06,0
-5.92065e-05,-6.16791e-05,-2.91428e-05,-4.01541e-05,1.2945e-05,-2.33271e-05,-5.73002e-06,-1.92259e-07,0
-4.86739e-05,3.79408e-06,-2.05589e-05,-2.5509e-05,1.35358e-05,-2.05106e-05,-3.19145e-05,6.2981e-07,0
-3.19192e-05,4.26605e-05,-1.1018e-05,4.60339e-06,2.40077e-05,-1.72957e-05,-2.56508e-05,-2.01517e-06,0
-1.85544e-05,4.34255e-05,3.5463e-07,3.00735e-05,3.6734e-05,-1.63169e-05,-1.5272e-05,-3.59968e-06,0
-2.10189e-05,2.96278e-05,1.01649e-05,7.51656e-06,4.27651e-05,-1.58095e-05,-3.60567e-05,-4.06249e-06,0
-4.50272e-05,4.16171e-05,1.45276e-05,-5.80881e-05,4.25613e-05,-1.31516e-05,-9.82515e-05,-4.84711e-06,0
-7.34148e-05,8.12141e-05,1.70281e-05,-0.00010185,4.08067e-05,-1.17479e-05,-0.000172615,-4.23098e-06,0
-8.87233e-05,0.000116693,2.48287e-05,-0.000109584,3.72068e-05,-1.70429e-05,-0.0001896,-3.13297e-06,0
-9.12247e-05,0.000135406,3.8934e-05,-8.13851e-05,3.43836e-05,-2.3234e-05,-0.00012243,-2.88647e-06,0
-8.40964e-05,0.000135806,5.67326e-05,-1.77643e-05,3.53627e-05,-2.26916e-05,-1.0848e-05,-2.84229e-06,0
-7.2062e-05,0.000113499,7.10071e-05,3.93673e-05,3.68746e-05,-1.74391e-05,9.44549e-05,-2.08578e-06,0
-5.73467e-05,7.61391e-05,7.48006e-05,6.71873e-05,3.76989e-05,-1.51351e-05,0.000165975,-5.01604e-07,0
-4.09219e-05,4.17329e-05,6.62681e-05,7.77796e-05,4.12356e-05,-1.44075e-05,0.000203089,5.39768e-07,0
-3.01867e-05,1.29874e-05,4.5455e-05,8.50818e-05,4.60713e-05,-1.24501e-05,0.000210983,2.02017e-06,0
-1.76885e-05,-1.1104e-05,1.38599e-05,7.96786e-05,4.56005e-05,-1.13078e-05,0.000198072,4.47986e-06,0
9.30171e-06,-1.33547e-05,-2.14874e-05,5.46113e-05,3.75189e-05,-1.04477e-05,0.000168855,6.35697e-06,0
4.27452e-05,9.20364e-06,-4.94813e-05,1.96213e-05,2.93173e-05,-6.50293e-06,0.000131285,7.27788e-06,0
6.099e-05,2.93202e-05,-6.18941e-05,-5.23537e-06,2.74955e-05,5.83619e-07,9.53145e-05,7.81533e-06,0
5.41546e-05,2.81868e-05,-5.90567e-05,-1.28823e-05,2.71932e-05,3.8911e-06,6.81947e-05,7.52064e-06,0
2.7918e-05,2.57732e-05,-4.75678e-05,-1.30154e-05,2.33797e-05,1.42816e-06,4.78788e-05,6.54403e-06,0
-9.07783e-06,5.43565e-05,-3.30697e-05,-1.12605e-05,1.82104e-05,-1.76837e-06,3.08404e-05,5.1769e-06,0
-5.25766e-05,0.000113838,-1.71576e-05,-4.79612e-06,1.21257e-05,-1.68978e-06,1.94298e-05,4.12563e-06,0
-9.88981e-05,0.000152971,-8.24384e-07,1.1019e-05,-2.26905e-07,-4.78502e-07,1.29763e-05,3.64222e-06,0
-0.000137771,0.0001336,1.51431e-05,3.23392e-05,-1.95733e-05,-5.10009e-07,5.7916e-06,3.1967e-06,0
-0.000145089,9.07418e-05,2.93177e-05,4.77958e-05,-3.96578e-05,-9.21263e-07,-5.56157e-06,2.66813e-06,0
-0.00010237,8.41559e-05,3.9511e-05,3.368e-05,-5.47119e-05,-1.42317e-06,-1.77485e-05,1.74565e-06,0
-2.84912e-05,9.41129e-05,3.90428e-05,-1.21922e-05,-6.79944e-05,-3.24738e-06,-2.65116e-05,1.20623e-06,0
2.92371e-05,5.69181e-05,2.52817e-05,-5.86298e-05,-8.30181e-05,-4.56158e-06,-3.04775e-05,1.07622e-06,0
4.65811e-05,-2.71482e-05,5.79719e-06,-8.1385e-05,-9.39985e-05,-4.51057e-06,-3.06305e-05,7.89118e-07,0
3.7375e-05,-0.000112742,-1.19322e-05,-8.10128e-05,-9.54416e-05,-3.45849e-06,-2.80557e-05,9.64405e-07,0
2.91169e-05,-0.000140847,-1.88607e-05,-4.93776e-05,-8.93008e-05,-2.11655e-06,-2.33917e-05,1.69637e-06,0
4.88696e-05,-7.5117e-05,-1.84516e-05,3.30611e-06,-8.13845e-05,-1.19167e-06,-1.68737e-05,2.25724e-06,0
8.12498e-05,2.81045e-05,-1.79474e-05,3.23534e-05,-7.15766e-05,7.80416e-07,-1.27913e-05,1.03781e-06,0
8.94735e-05,6.44458e-05,-1.06642e-05,1.94679e-05,-5.86612e-05,5.00761e-06,-1.05857e-05,-9.08687e-07,0
6.77411e-05,3.19731e-05,-5.29879e-06,5.90937e-07,-4.79606e-05,8.66828e-06,-5.48706e-06,-2.06683e-06,0
2.85643e-05,-1.60949e-06,-1.5898e-05,-1.12982e-05,-3.99823e-05,5.70896e-06,3.77018e-08,-1.96684e-06,0
-1.57216e-05,-1.70424e-05,-2.89414e-05,-2.89313e-05,-3.23971e-05,-8.30313e-07,2.45631e-06,-7.30899e-07,0
-5.51986e-05,-1.08691e-05,-2.17701e-05,-3.36325e-05,-2.99894e-05,-5.95653e-06,3.25524e-06,-1.35373e-07,0
-8.0671e-05,2.50061e-06,5.30559e-06,-1.23595e-05,-3.37265e-05,-9.3963e-06,3.43869e-06,-1.17256e-06,0
-8.77393e-05,3.24906e-06,3.20878e-05,2.58713e-05,-3.68646e-05,-1.24369e-05,2.25148e-06,-1.86227e-06,0
-8.30387e-05,-3.22377e-06,3.82126e-05,5.79013e-05,-3.37987e-05,-1.25602e-05,-3.25682e-06,-1.01567e-06,0
-7.28559e-05,1.60183e-05,2.40449e-05,7.73338e-05,-2.63339e-05,-9.10811e-06,-1.06296e-05,2.38493e-07,0
-5.96788e-05,5.90811e-05,7.74069e-06,8.171e-05,-1.81279e-05,-6.43528e-06,-1.61756e-05,9.69887e-07,0
-4.73444e-05,7.99523e-05,-4.52679e-06,6.69846e-05,-1.12518e-05,-6.30598e-06,-1.8421e-05,1.29712e-06,0
-3.86567e-05,5.4636e-05,-1.79855e-05,3.45175e-05,-5.57461e-06,-7.42106e-06,-1.75201e-05,2.09498e-06,0
-3.8159e-05,8.20263e-06,-3.21523e-05,-4.33859e-06,5.70733e-07,-6.66825e-06,-1.37822e-05,2.63057e-06,0
-4.87792e-05,-1.15649e-05,-4.47053e-05,-3.15498e-05,6.6055e-06,-5.78225e-06,-5.51964e-06,3.39844e-06,0
-6.53499e-05,-3.49702e-06,-6.31273e-05,-3.4628e-05,1.12962e-05,-7.5165e-06,6.17255e-06,4.27113e-06,0
-7.72903e-05,-1.89296e-06,-9.00204e-05,-7.90206e-06,1.4062e-05,-1.18955e-05,1.74979e-05,4.66755e-06,0
-8.23803e-05,-2.76835e-05,-0.000112678,2.99466e-05,1.64824e-05,-1.65166e-05,2.50317e-05,5.13722e-06,0
-8.68127e-05,-3.95786e-05,-0.000112224,5.00709e-05,2.09258e-05,-1.89937e-05,2.76992e-05,5.83736e-06,0
-9.07541e-05,1.67379e-05,-7.97748e-05,4.23149e-05,2.74515e-05,-1.86182e-05,2.55653e-05,5.58457e-06,0
-8.57261e-05,0.000127439,-3.28524e-05,2.72221e-05,3.37652e-05,-1.71265e-05,2.32644e-05,4.33444e-06,0
-6.45732e-05,0.00021785,5.14761e-06,2.40641e-05,3.93972e-05,-1.66687e-05,2.28448e-05,3.07331e-06,0
-2.79061e-05,0.000249309,3.01498e-05,2.64567e-05,4.28262e-05,-1.58474e-05,2.3781e-05,2.05979e-06,0
9.81628e-06,0.000213403,4.32174e-05,3.23194e-05,4.38829e-05,-1.29623e-05,2.4332e-05,1.13172e-06,0
2.99514e-05,8.82201e-05,4.09009e-05,5.45943e-05,4.56647e-05,-1.04005e-05,1.84034e-05,1.09497e-06,0
2.87706e-05,-7.96308e-05,2.32808e-05,7.76983e-05,4.74528e-05,-1.11301e-05,3.39187e-06,1.5716e-06,0
1.5984e-05,-0.000181174,-7.9223e-07,7.31654e-05,5.08128e-05,-1.2679e-05,-1.0409e-05,1.75922e-06,0
-2.12041e-06,-0.000184885,-2.3297e-05,3.58532e-05,5.96149e-05,-1.14547e-05,-1.65722e-05,9.59105e-07,0
-1.97244e-05,-7.56109e-05,-3.90166e-05,-8.09461e-06,6.76149e-05,-9.5915e-06,-1.68642e-05,1.79995e-07,0
-2.89117e-05,0.000167111,-4.67623e-05,-5.65627e-05,6.9613e-05,-1.1117e-05,-1.33554e-05,-4.00556e-08,0
-3.11866e-05,0.000423396,-4.966e-05,-0.000110122,6.85057e-05,-1.35121e-05,-7.80057e-06,-2.81171e-08,0
-3.10116e-05,0.000543827,-4.41752e-05,-0.000141316,7.1397e-05,-1.23788e-05,3.93904e-07,1.58808e-06,0
-3.46613e-05,0.000539305,-3.46245e-05,-0.000149038,7.80522e-05,-8.39562e-06,6.52124e-06,2.8514e-06,0
-3.8564e-05,0.000516477,-2.6334e-05,-0.000118938,7.76234e-05,-5.36101e-06,-1.41117e-05,4.42609e-06,0
-3.09592e-05,0.000499827,-1.77558e-05,-3.47709e-05,6.6521e-05,-3.34825e-06,-8.16246e-05,3.99769e-06,0
-8.51173e-06,0.000413774,-1.13487e-05,6.95892e-05,5.23084e-05,-1.94622e-06,-0.000145834,2.15612e-06,0
2.37692e-05,0.000174436,-9.09586e-06,0.000127441,4.29005e-05,-1.87503e-06,-0.000148797,1.36366e-06,0
5.1278e-05,-0.000164806,-8.11517e-06,0.000132909,3.66309e-05,-2.6309e-06,-9.42124e-05,1.29345e-06,0
5.67813e-05,-0.000423198,-8.25295e-06,0.000118268,3.00643e-05,-5.22116e-06,-1.50949e-05,1.32978e-06,0
3.54594e-05,-0.000477411,-1.0251e-05,8.90145e-05,2.13101e-05,-1.13887e-05,5.93625e-05,5.62922e-07,0
-4.20742e-06,-0.000383914,-1.03349e-05,4.77551e-05,1.56884e-05,-1.86192e-05,0.000117916,2.25628e-07,0
-4.75134e-05,-0.0002506,-5.18418e-06,8.36792e-06,2.02696e-05,-2.14044e-05,0.000155146,7.74101e-07,0
-8.4106e-05,-0.000140053,5.32401e-06,-1.40341e-05,3.29949e-05,-1.70372e-05,0.000170096,2.0321e-06,0
-0.00011732,-0.000101963,1.8175e-05,-2.22187e-05,4.54327e-05,-8.91372e-06,0.000163161,2.82939e-06,0
-0.000152736,-0.000154751,2.78295e-05,-2.30065e-05,5.29335e-05,-3.0135e-06,0.000142207,4.05585e-06,0
-0.000186233,-0.000257996,2.72141e-05,-1.90771e-05,5.69003e-05,-2.06492e-06,0.00011842,4.46888e-06,0
-0.000208091,-0.00034258,1.31415e-05,-2.23749e-05,5.77847e-05,-6.32706e-06,9.78638e-05,3.39748e-06,0
-0.000212063,-0.000384526,-1.03338e-05,-5.82291e-05,5.28195e-05,-1.44356e-05,8.03786e-05,1.57042e-06,0
-0.000191765,-0.000368567,-2.91048e-05,-0.000113027,4.18132e-05,-2.26243e-05,6.42311e-05,7.16311e-07,0
-0.000144211,-0.000289989,-2.97739e-05,-0.00014446,3.29214e-05,-2.45577e-05,5.12055e-05,1.72632e-06,0
-8.41928e-05,-0.000188974,-1.69458e-05,-0.000151527,3.03718e-05,-1.93073e-05,5.54253e-05,2.60734e-06,0
-3.82955e-05,-0.000124392,-6.39169e-06,-0.000155305,3.26903e-05,-1.39525e-05,0.000106555,1.41235e-06,0
-1.87861e-05,-0.000120017,-6.67378e-06,-0.000147476,3.49344e-05,-1.19072e-05,0.000189589,8.53112e-07,0
-1.25408e-05,-0.000143429,-1.34489e-05,-0.000122849,3.69795e-05,-9.8425e-06,0.000234933,3.50878e-06,0
-1.85267e-06,-0.000156085,-1.58627e-05,-9.7613e-05,3.91543e-05,-7.15629e-06,0.000190126,6.19445e-06,0
1.14532e-05,-0.000151354,-1.51413e-05,-6.98384e-05,3.59234e-05,-6.00519e-06,8.1803e-05,5.73805e-06,0
1.40179e-05,-0.000120632,-1.5519e-05,-3.28141e-05,2.97358e-05,-7.86963e-06,-3.00811e-05,2.45762e-06,0
4.29395e-06,-6.06117e-05,-1.09976e-05,-1.59594e-05,2.9312e-05,-1.02242e-05,-0.000122658,-8.19806e-07,0
-9.43025e-06,1.60567e-05,2.74558e-06,-2.40831e-05,4.02567e-05,-8.4028e-06,-0.000184882,-2.16111e-06,0
-2.07505e-05,9.69593e-05,2.28531e-05,-2.53057e-05,5.63441e-05,-2.25187e-06,-0.000203844,-1.32599e-06,0
-2.9998e-05,0.000168858,3.8737e-05,-1.45693e-05,6.6222e-05,3.80592e-06,-0.00017251,-1.27971e-06,0
-4.26799e-05,0.000204437,4.73016e-05,-1.98618e-07,6.81769e-05,7.09291e-06,-0.000114166,-8.80319e-07,0
-5.38767e-05,0.000192897,5.54772e-05,1.45191e-05,6.65584e-05,7.45032e-06,-6.60412e-05,1.43645e-06,0
-4.46279e-05,0.000148231,6.33579e-05,3.28244e-05,6.37495e-05,4.42009e-06,-4.02413e-05,1.91301e-06,0
-3.9303e-06,8.16837e-05,6.43653e-05,4.84948e-05,5.84046e-05,-3.42205e-07,-2.81155e-05,1.56081e-07,0
5.01604e-05,1.54031e-05,5.67235e-05,5.6713e-05,5.13651e-05,-3.13445e-06,-2.25625e-05,-8.43076e-07,0
8.52233e-05,-3.23663e-05,4.53425e-05,7.59572e-05,4.556e-05,-3.19576e-06,-2.3322e-05,-6.06988e-07,0
8.68244e-05,-6.03453e-05,3.39868e-05,0.000123887,4.18078e-05,-3.44181e-06,-2.63243e-05,-3.40573e-07,0
6.33391e-05,-5.4833e-05,2.16752e-05,0.000172687,4.07395e-05,-4.35817e-06,-2.5413e-05,-7.90599e-07,0
3.75809e-05,1.85666e-06,3.75237e-06,0.000190822,4.11498e-05,-4.17186e-06,-1.57626e-05,-1.54834e-06,0
2.28322e-05,7.54464e-05,-2.0571e-05,0.000180909,4.02524e-05,-3.11762e-06,1.85969e-07,-9.6702e-07,0
1.12011e-05,0.000119185,-4.31195e-05,0.00014583,3.7386e-05,-3.44469e-06,1.51283e-05,8.09828e-07,0
-8.57704e-06,0.000139289,-5.8343e-05,8.48662e-05,3.48028e-05,-5.34808e-06,2.24813e-05,1.4803e-06,0
-3.50282e-05,0.000177698,-6.95087e-05,1.62343e-05,3.20778e-05,-7.14062e-06,2.36162e-05,-8.34949e-08,0
-5.93617e-05,0.000232721,-7.75549e-05,-3.51226e-05,2.66135e-05,-7.72158e-06,1.80009e-05,-2.7518e-06,0
-7.7052e-05,0.000252327,-7.66313e-05,-7.46909e-05,2.13406e-05,-7.50754e-06,6.07418e-06,-4.9945e-06,0
-8.27448e-05,0.000229207,-6.74375e-05,-0.0001162,2.0342e-05,-6.3495e-06,-6.07978e-06,-5.18574e-06,0
-7.1162e-05,0.000190759,-5.96353e-05,-0.000156775,1.97298e-05,-4.54741e-06,-1.22623e-05,-2.80067e-06,0
-4.24865e-05,0.000119776,-5.96548e-05,-0.000198655,1.68488e-05,-4.54424e-06,-1.58783e-05,-1.53877e-07,0
-6.9948e-07,2.68782e-05,-6.18796e-05,-0.000239399,1.25732e-05,-6.27707e-06,-2.73762e-05,1.56912e-07,0
3.68182e-05,-3.79613e-05,-5.63407e-05,-0.00024673,8.12693e-06,-7.20768e-06,-4.25533e-05,3.20167e-07,0
4.90936e-05,-7.69511e-05,-3.98309e-05,-0.000159411,1.05575e-05,-7.22387e-06,-4.5499e-05,1.74276e-06,0
3.61092e-05,-9.15308e-05,-2.39253e-05,1.34433e-06,1.75011e-05,-6.9509e-06,-3.42516e-05,2.45894e-06,0
1.42363e-05,-5.93706e-05,-1.84866e-05,0.000136124,1.96973e-05,-6.58403e-06,-2.49579e-05,2.665e-06,0
-1.30904e-05,8.23406e-06,-1.53031e-05,0.000191949,1.74307e-05,-7.02712e-06,-3.55505e-05,2.57054e-06,0
-4.84305e-05,9.93908e-05,-1.09925e-05,0.000146056,1.41315e-05,-8.69219e-06,-5.33753e-05,2.95759e-06,0
-7.581e-05,0.00016811,-8.34499e-06,3.54719e-05,1.24098e-05,-1.11534e-05,-5.04356e-05,3.16618e-06,0
-8.69548e-05,0.000161083,-8.42643e-06,-6.32939e-05,1.20937e-05,-1.52278e-05,-2.34106e-05,2.08651e-06,0
-8.84667e-05,0.000103891,-6.75909e-06,-9.09116e-05,1.1754e-05,-1.85479e-05,1.50676e-05,9.35158e-07,0
-8.61785e-05,4.90313e-05,1.61173e-06,-5.38783e-05,1.22628e-05,-1.72258e-05,5.16898e-05,4.59593e-07,0
-7.45547e-05,8.74327e-06,1.33252e-05,-7.18331e-06,1.11534e-05,-1.42073e-05,8.13816e-05,-2.84265e-07,0
-5.05565e-05,-4.51946e-05,1.90465e-05,-2.35789e-06,8.31738e-06,-1.18594e-05,0.00010024,-1.68748e-06,0
-2.19694e-05,-0.000128558,1.62056e-05,-5.36806e-05,7.96815e-06,-1.02334e-05,0.000106634,-1.26467e-06,0
-4.0894e-06,-0.000234233,9.6791e-06,-0.000131395,8.05862e-06,-1.17019e-05,0.000105422,3.54952e-07,0
-4.45645e-06,-0.000303178,3.33082e-06,-0.000199936,4.93083e-06,-1.72324e-05,0.00010244,1.59114e-06,0
-1.45166e-05,-0.000276065,-1.18422e-07,-0.000223757,1.33993e-06,-2.28278e-05,9.78266e-05,2.11592e-06,0
-2.40266e-05,-0.000168593,8.45202e-07,-0.000188908,-1.90565e-07,-2.56033e-05,8.99005e-05,8.6126e-07,0
-3.03248e-05,-5.90581e-05,5.36703e-06,-0.000100849,-1.92287e-06,-2.55836e-05,7.83176e-05,-1.49967e-06,0
-3.95978e-05,-4.08292e-06,6.59067e-06,1.23277e-05,-4.20439e-06,-2.28469e-05,6.6716e-05,-2.048e-06,0
-5.24886e-05,1.28542e-06,-3.35436e-07,0.00011808,-2.46499e-06,-1.79848e-05,6.00045e-05,-7.74612e-07,0
-6.39051e-05,-1.54233e-05,-1.2865e-05,0.000200332,6.77908e-06,-1.38578e-05,5.49802e-05,-8.42381e-07,0
-6.47247e-05,-2.93609e-05,-2.29014e-05,0.000253976,1.84228e-05,-1.32298e-05,3.48345e-05,-2.41338e-06,0
-4.82346e-05,-2.90383e-05,-2.63017e-05,0.000257198,2.10214e-05,-1.44734e-05,-1.62993e-05,-2.65998e-06,0
-1.80374e-05,-1.38344e-05,-2.54002e-05,0.000215912,1.13949e-05,-1.48621e-05,-8.05e-05,-1.04594e-06,0
9.59124e-06,8.25805e-06,-2.27772e-05,0.000169176,-1.69346e-07,-1.55599e-05,-0.000111408,1.69386e-07,0
1.82822e-05,3.29898e-05,-1.38954e-05,0.000136933,-2.15022e-06,-1.70001e-05,-8.83597e-05,-7.62005e-08,0
5.31512e-06,5.5329e-05,3.19425e-06,0.000109312,4.86676e-06,-1.75492e-05,-3.33659e-05,-8.89388e-07,0
-1.33917e-05,7.8842e-05,2.52398e-05,7.55334e-05,1.14437e-05,-1.78293e-05,1.93969e-05,-1.25079e-06,0
-1.8917e-05,9.68713e-05,5.29155e-05,4.14269e-05,1.36601e-05,-1.68107e-05,6.29276e-05,-1.82115e-06,0
-1.28132e-05,9.68156e-05,8.23152e-05,1.52363e-05,1.35538e-05,-1.40876e-05,9.40693e-05,-3.45235e-06,0
-6.98038e-06,8.79677e-05,0.000109977,-3.17396e-06,1.50111e-05,-9.77262e-06,9.4932e-05,-4.61311e-06,0
-6.82984e-06,8.38905e-05,0.000131371,-2.47846e-05,1.84566e-05,-5.6143e-06,6.92369e-05,-3.33601e-06,0
-1.39976e-05,8.88502e-05,0.000130281,-5.53685e-05,2.30431e-05,-3.43162e-06,3.81689e-05,-2.22359e-06,0
-2.39897e-05,0.000108392,9.85301e-05,-8.75341e-05,2.5318e-05,-5.51926e-06,2.26531e-05,-2.33833e-06,0
-3.13012e-05,0.000132174,4.01134e-05,-0.000104326,2.32672e-05,-1.06704e-05,1.89287e-05,-3.40866e-06,0
-3.25763e-05,0.000149015,-2.80605e-05,-0.000102136,1.93969e-05,-1.31594e-05,1.83083e-05,-3.53454e-06,0
-3.08234e-05,0.000165856,-8.38728e-05,-8.23876e-05,1.45188e-05,-1.2542e-05,1.92067e-05,-1.63312e-06,0
-2.92782e-05,0.000185435,-0.000114455,-5.24856e-05,1.09617e-05,-1.26603e-05,2.33839e-05,-5.5421e-09,0
-2.82278e-05,0.000191255,-0.000121988,-2.17874e-05,9.51869e-06,-1.55373e-05,2.92603e-05,-4.99612e-07,0
-2.59771e-05,0.000163019,-0.000119541,7.67712e-07,9.9094e-06,-1.73548e-05,3.14855e-05,-2.72356e-06,0
-1.88196e-05,0.000105202,-0.00011029,9.37978e-06,1.33648e-05,-1.64152e-05,2.90428e-05,-3.82491e-06,0
-1.53373e-05,4.20499e-05,-9.02075e-05,3.52107e-06,2.03533e-05,-1.3029e-05,2.43654e-05,-4.03418e-06,0
-2.23982e-05,2.66626e-06,-6.11256e-05,-4.20253e-06,2.45279e-05,-9.13195e-06,2.24569e-05,-4.42741e-06,0
-3.60929e-05,8.09504e-06,-3.34414e-05,3.29482e-06,2.10586e-05,-8.01638e-06,2.26279e-05,-5.18202e-06,0
-4.82223e-05,4.50827e-05,-1.44826e-05,3.21005e-05,1.27869e-05,-1.0143e-05,2.35628e-05,-5.44447e-06,0
-5.57483e-05,7.09021e-05,-6.59962e-06,7.81827e-05,5.67026e-06,-1.07085e-05,2.16708e-05,-4.54401e-06,0
-5.73909e-05,6.89831e-05,-6.49948e-06,0.000124049,3.91175e-06,-7.14347e-06,1.53483e-05,-2.97805e-06,0
-5.4971e-05,6.76708e-05,-7.52046e-06,0.00015064,6.80797e-06,-3.72108e-06,7.19114e-06,-1.92047e-06,0
-5.43823e-05,0.000109489,-4.51279e-06,0.000165282,1.06188e-05,-4.6347e-06,3.58003e-06,-8.80622e-07,0
-6.24818e-05,0.000182736,1.29425e-06,0.000164093,1.15186e-05,-9.95652e-06,1.52788e-06,1.84818e-07,0
-7.31174e-05,0.000227803,6.95861e-06,0.000104094,9.21011e-06,-1.37847e-05,-4.90945e-06,1.19128e-06,0
-7.50523e-05,0.000215932,1.34581e-05,-2.14761e-05,6.47685e-06,-1.17971e-05,-1.69453e-05,2.00097e-06,0
-7.558e-05,0.00014523,1.99412e-05,-0.000164,5.02834e-06,-6.46592e-06,-3.56224e-05,1.99369e-06,0
-7.41871e-05,3.57889e-05,2.43995e-05,-0.000267343,6.50854e-06,-2.40192e-06,-5.98109e-05,1.7215e-06,0
-5.87295e-05,-6.78196e-05,2.9495e-05,-0.000325918,8.07664e-06,3.76534e-07,-7.67522e-05,1.64282e-06,0
-3.58932e-05,-0.000132591,3.54447e-05,-0.000362856,3.36956e-06,2.82051e-06,-7.52923e-05,2.39103e-06,0
-3.04237e-05,-0.000177054,3.62987e-05,-0.000354838,-3.8289e-06,1.21143e-06,-6.35693e-05,3.01358e-06,0
-4.76208e-05,-0.000252558,2.94239e-05,-0.000267232,-7.41588e-06,-3.51368e-06,-5.03892e-05,2.25196e-06,0
-6.5593e-05,-0.00036925,1.90045e-05,-0.000131551,-5.80447e-06,-4.04369e-06,-3.28869e-05,8.02072e-07,0
-6.70352e-05,-0.000444599,7.12002e-06,1.46672e-05,-4.04788e-07,-1.48377e-06,-9.88905e-06,6.62934e-07,0
-4.92951e-05,-0.000383076,-9.50704e-06,0.000124562,6.65804e-06,2.15472e-06,1.43261e-05,1.82027e-06,0
-2.59305e-05,-0.000223052,-3.09873e-05,0.000144868,1.42778e-05,5.7405e-06,3.50955e-05,2.76129e-06,0
-8.4367e-06,-7.48969e-05,-5.05262e-05,9.18032e-05,1.85866e-05,6.53364e-06,4.74078e-05,2.73988e-06,0
3.76155e-07,-5.9267e-06,-5.60032e-05,2.36636e-05,1.6352e-05,6.84182e-06,5.18581e-05,2.47163e-06,0
1.55125e-06,4.66193e-06,-4.55357e-05,-9.38605e-06,8.50856e-06,4.70265e-06,4.10702e-05,3.09717e-06,0
2.69808e-07,1.15818e-05,-2.58441e-05,-1.17896e-05,-1.53e-06,-1.02321e-06,9.4415e-06,3.79869e-06,0
-2.62351e-06,3.67407e-05,-5.58349e-06,-3.1683e-07,-9.30263e-06,-6.82008e-06,-2.35749e-05,4.43021e-06,0
-1.1184e-05,6.06078e-05,7.37262e-06,3.25032e-05,-9.59937e-06,-9.9137e-06,-2.98297e-05,4.58009e-06,0
-3.11683e-05,6.79386e-05,1.28522e-05,8.58515e-05,-1.2078e-06,-8.65184e-06,-5.52412e-06,3.3313e-06,0
-5.73052e-05,6.72242e-05,1.60171e-05,0.000132353,8.10691e-06,-5.68763e-06,3.13607e-05,2.54805e-06,0
-7.08512e-05,5.8207e-05,1.78701e-05,0.000143434,9.87584e-06,-4.6911e-06,6.08115e-05,3.02884e-06,0
-5.52715e-05,3.7228e-05,1.88795e-05,0.000131167,4.17045e-06,-5.81119e-06,7.27662e-05,3.1728e-06,0
-2.14001e-05,6.71458e-06,2.67376e-05,0.000122289,-1.80812e-06,-6.85549e-06,6.89632e-05,2.08521e-06,0
7.16747e-06,-1.58343e-05,4.36549e-05,0.000116401,-3.67154e-06,-8.02907e-06,5.64104e-05,-7.48618e-07,0
2.04784e-05,-1.95286e-05,5.95798e-05,9.7322e-05,-2.5412e-06,-9.88374e-06,4.08679e-05,-3.5942e-06,0
2.64616e-05,-8.93368e-07,6.2034e-05,5.34268e-05,-2.6013e-06,-1.13468e-05,2.57356e-05,-3.57759e-06,0
3.91024e-05,2.41392e-05,4.56927e-05,-2.44676e-06,-6.10006e-06,-1.20972e-05,1.50768e-05,-9.10898e-07,0
5.8983e-05,3.97683e-05,1.27124e-05,-3.43661e-05,-9.04654e-06,-1.21964e-05,9.15854e-06,1.91315e-06,0
6.94357e-05,5.0736e-05,-2.72355e-05,-3.47322e-05,-1.05886e-05,-1.17632e-05,6.24929e-06,2.78729e-06,0
6.25684e-05,7.89327e-05,-5.90718e-05,-3.3387e-05,-1.28898e-05,-1.03814e-05,2.60078e-06,1.57223e-06,0
4.31229e-05,0.000119163,-7.71212e-05,-4.76634e-05,-1.53492e-05,-9.80177e-06,-9.72824e-06,-4.15578e-07,0
1.37867e-05,0.000134911,-8.75774e-05,-6.66234e-05,-1.84913e-05,-1.17638e-05,-2.55585e-05,-8.79602e-07,0
-2.97646e-05,0.000105735,-9.40857e-05,-7.53961e-05,-1.93488e-05,-1.46696e-05,-3.25297e-05,-1.34759e-06,0
-8.39541e-05,5.6388e-05,-9.32567e-05,-6.52474e-05,-1.55091e-05,-1.67335e-05,-2.89407e-05,-2.17262e-06,0
-0.000122296,2.30645e-05,-7.85278e-05,-3.55753e-05,-1.23402e-05,-1.88293e-05,-1.80311e-05,-8.97003e-07,0
-0.000127113,1.66128e-05,-6.10114e-05,-3.21317e-06,-1.32629e-05,-2.1088e-05,-4.30277e-06,9.00929e-07,0
-0.000105541,4.04351e-05,-6.18788e-05,2.82782e-05,-1.66817e-05,-2.16844e-05,1.03496e-05,9.83539e-07,0
-7.80124e-05,7.89681e-05,-7.24135e-05,7.22892e-05,-1.64624e-05,-2.13775e-05,2.37735e-05,3.22956e-07,0
-5.8186e-05,0.00011408,-6.79668e-05,0.000114366,-1.03175e-05,-2.15436e-05,3.51146e-05,-1.31902e-06,0
-3.76822e-05,0.000157635,-5.02622e-05,0.00011595,-2.08772e-06,-2.08552e-05,4.2616e-05,-3.57508e-06,0
5.93475e-06,0.000217652,-3.81444e-05,6.03637e-05,2.78516e-06,-1.80062e-05,4.68559e-05,-2.64201e-06,0
6.21597e-05,0.000269638,-3.39438e-05,-1.75425e-05,3.1024e-06,-1.43231e-05,4.8721e-05,-5.69158e-07,0
9.92408e-05,0.000276803,-3.00866e-05,-6.48949e-05,2.32845e-06,-1.14239e-05,4.74918e-05,-1.06997e-06,0
0.000101119,0.000195865,-2.0712e-05,-6.61849e-05,6.38832e-06,-8.26394e-06,4.3232e-05,-2.76535e-06,0
6.99846e-05,4.61849e-05,-6.43485e-06,-4.8922e-05,1.7105e-05,-3.6029e-06,3.73005e-05,-2.76706e-06,0
2.23459e-05,-7.1864e-05,5.06754e-06,-4.80937e-05,2.53797e-05,4.65442e-08,3.04604e-05,-9.9624e-07,0
-2.52076e-05,-9.81559e-05,7.65616e-06,-6.9817e-05,2.22074e-05,-2.1275e-07,2.02512e-05,5.41464e-07,0
-6.29568e-05,-7.26105e-05,2.62136e-06,-8.61644e-05,9.39567e-06,-3.84751e-06,8.17232e-06,1.5915e-06,0
-9.1482e-05,-6.9843e-05,-2.59161e-06,-6.76392e-05,-2.88799e-06,-8.17284e-06,-6.33561e-07,2.64914e-06,0
-0.000110309,-0.000132992,-3.65354e-06,-2.61729e-05,-7.6947e-06,-9.46542e-06,-1.95816e-06,3.43585e-06,0
-0.000118447,-0.000242402,-2.36053e-06,-3.68869e-06,-4.3562e-06,-9.15367e-06,9.49425e-07,3.7826e-06,0
-0.000116681,-0.000325124,-1.79591e-06,-1.96625e-05,4.47332e-07,-1.16728e-05,4.34284e-06,4.28697e-06,0
-0.000107522,-0.000326159,-1.08919e-06,-5.1827e-05,8.49634e-07,-1.53331e-05,7.41281e-06,5.26401e-06,0
-9.1806e-05,-0.000267976,2.76895e-07,-6.19633e-05,-2.45002e-06,-1.63289e-05,1.02303e-05,5.53932e-06,0
-7.16663e-05,-0.000189973,7.39557e-07,-4.09175e-05,-3.55166e-06,-1.31929e-05,1.09626e-05,3.85679e-06,0
-5.10951e-05,-9.73906e-05,1.98715e-06,-8.5321e-06,8.32103e-07,-7.17541e-06,9.15336e-06,1.77576e-06,0
-3.46023e-05,-9.27289e-06,5.95139e-06,2.05167e-05,4.93411e-06,-1.94249e-06,7.83506e-06,2.7036e-06,0
-2.88493e-05,4.90761e-05,1.10479e-05,3.53198e-05,4.24685e-06,-3.08358e-07,6.82665e-06,7.028e-06,0
-3.31887e-05,7.91328e-05,1.54223e-05,8.47156e-06,2.51092e-06,-1.54257e-06,-3.4755e-06,1.00579e-05,0
-4.03708e-05,9.32957e-05,1.113e-05,-7.05064e-05,1.42759e-06,-2.75173e-06,-2.71508e-05,8.17224e-06,0
-4.75101e-05,9.13165e-05,4.69801e-06,-0.000142723,1.23861e-06,-3.71872e-06,-4.21174e-05,3.93488e-06,0
-5.51266e-05,7.03556e-05,7.62674e-06,-0.000155494,6.51845e-06,-2.17226e-06,-3.77589e-05,9.00316e-07,0
-5.80942e-05,3.6367e-05,1.42421e-05,-0.00010738,1.59387e-05,2.13136e-06,-2.75113e-05,1.24159e-06,0
-5.20411e-05,1.89454e-05,2.0992e-05,-2.59441e-05,2.39994e-05,3.35579e-06,-1.37926e-05,3.64588e-06,0
-4.53581e-05,6.75922e-05,2.84524e-05,2.58337e-05,2.81614e-05,-5.29299e-07,5.95215e-06,5.72042e-06,0
-4.53313e-05,0.0001781,3.78136e-05,2.77933e-05,2.74224e-05,-4.86676e-06,3.00493e-05,6.18562e-06,0
-5.26094e-05,0.000272044,4.78151e-05,1.48303e-05,2.41683e-05,-4.96601e-06,5.13052e-05,4.42577e-06,0
-6.16986e-05,0.000272004,5.47298e-05,4.77533e-06,2.31608e-05,-2.72758e-06,5.84941e-05,3.27113e-06,0
-6.60712e-05,0.000168612,4.88293e-05,-1.71308e-05,2.10799e-05,-1.89676e-06,4.8454e-05,3.29642e-06,0
-6.91357e-05,2.40704e-05,2.30838e-05,-4.34323e-05,1.48375e-05,-5.68316e-06,3.46324e-05,2.58933e-06,0
-7.04235e-05,-8.89864e-05,-1.35626e-05,-5.15173e-05,8.72958e-06,-1.22592e-05,2.89793e-05,1.06414e-06,0
-6.73428e-05,-0.000152287,-4.54519e-05,-4.07721e-05,8.81631e-06,-1.62066e-05,3.24592e-05,9.72525e-07,0
-5.96363e-05,-0.000152448,-6.57654e-05,-2.35976e-05,1.4358e-05,-1.68235e-05,4.19614e-05,1.22478e-06,0
-4.72417e-05,-3.07163e-05,-7.46186e-05,-5.44199e-06,1.86295e-05,-1.58199e-05,5.14182e-05,-6.04804e-07,0
-3.00239e-05,0.000215844,-7.15128e-05,8.1688e-06,2.07132e-05,-1.302e-05,5.60606e-05,-3.67028e-06,0
-1.42423e-05,0.000431355,-5.94282e-05,4.58662e-06,2.44084e-05,-9.29948e-06,3.82413e-05,-5.64112e-06,0
-9.91053e-06,0.000416564,-4.44235e-05,-7.4568e-06,2.97294e-05,-7.2685e-06,-2.69554e-05,-6.2719e-06,0
-1.80916e-05,0.000127018,-3.05337e-05,-4.12863e-06,3.18147e-05,-8.06749e-06,-0.000117885,-6.10697e-06,0
-2.73615e-05,-0.000269164,-1.76155e-05,2.64785e-05,2.74622e-05,-1.18932e-05,-0.000161473,-4.48941e-06,0
-2.76593e-05,-0.000527644,-2.95753e-06,7.45719e-05,1.72544e-05,-1.51872e-05,-0.000128126,-2.66036e-06,0
-2.18795e-05,-0.000542938,1.17001e-05,0.000127466,6.88156e-06,-1.50454e-05,-5.07557e-05,-1.38473e-06,0
-2.0265e-05,-0.000380743,1.91149e-05,0.000176218,3.177e-06,-1.37193e-05,3.18152e-05,-3.44816e-07,0
-2.45882e-05,-0.000197008,1.81266e-05,0.000208602,7.00906e-06,-1.34987e-05,0.000104886,9.38663e-07,0
-2.06359e-05,-9.0388e-05,1.34779e-05,0.000200996,1.10577e-05,-1.36093e-05,0.000184369,1.6206e-06,0
3.97939e-06,-3.94826e-05,1.03737e-05,0.00015646,1.04952e-05,-1.28988e-05,0.000278532,2.23072e-06,0
4.66859e-05,-9.08179e-06,9.3882e-06,0.000102149,6.46772e-06,-1.18965e-05,0.000345627,2.88953e-06,0
9.31866e-05,1.51875e-05,8.0149e-06,4.62201e-05,7.50659e-07,-1.05434e-05,0.00033264,2.00892e-06,0
0.000130803,3.06186e-05,7.2579e-06,-1.54842e-05,-3.97933e-08,-8.18489e-06,0.000231504,1.44878e-06,0
0.000144234,4.12419e-05,6.70551e-06,-7.47033e-05,2.18686e-06,-5.55477e-06,7.47883e-05,2.83936e-06,0
0.000120427,6.24473e-05,5.1293e-06,-0.000104691,-2.40289e-07,-4.61052e-06,-7.91928e-05,6.5046e-06,0
7.03686e-05,0.000100999,1.41565e-06,-9.22412e-05,-5.24308e-06,-6.17936e-06,-0.000184335,1.04779e-05,0
9.74962e-06,0.000149147,-5.85102e-06,-6.37363e-05,-8.4967e-06,-9.7663e-06,-0.000224087,1.06583e-05,0
-5.20952e-05,0.000201766,-1.19495e-05,-4.52469e-05,-8.83401e-06,-1.34396e-05,-0.000199643,8.59664e-06,0
-0.000101634,0.000248464,-1.11256e-05,-3.81842e-05,-8.42282e-06,-1.69465e-05,-0.000134683,7.22939e-06,0
-0.000132435,0.000244682,-4.51736e-06,-3.50524e-05,-6.26436e-06,-1.90173e-05,-7.39478e-05,6.18591e-06,0
-0.000144658,0.000178447,1.89447e-06,-3.56387e-05,-9.98817e-07,-1.84138e-05,-5.94664e-05,4.84786e-06,0
-0.000143424,8.52838e-05,2.46929e-06,-4.30559e-05,6.90226e-06,-1.64166e-05,-8.32247e-05,3.22192e-06,0
-0.00013476,-1.27588e-07,-1.47832e-06,-5.34649e-05,1.32181e-05,-1.34158e-05,-9.43853e-05,1.92242e-06,0
-0.000118521,-6.73478e-05,-7.70339e-06,-5.66251e-05,1.64393e-05,-1.00169e-05,-6.29815e-05,1.36279e-06,0
-9.61024e-05,-0.000120615,-1.45367e-05,-4.52238e-05,1.90049e-05,-6.88387e-06,7.13073e-07,1.31614e-06,0
-7.50245e-05,-0.000161785,-1.83836e-05,-1.90908e-05,2.00992e-05,-5.44278e-06,6.93376e-05,1.63532e-06,0
-6.20291e-05,-0.000180747,-1.77355e-05,9.56709e-06,1.90827e-05,-5.97445e-06,0.000122524,1.9686e-06,0
-5.74623e-05,-0.000161939,-1.55344e-05,8.75849e-06,1.70386e-05,-8.65252e-06,0.000152857,2.50011e-06,0
-5.79146e-05,-0.000103959,-1.65311e-05,-3.01632e-05,1.49004e-05,-1.28442e-05,0.000160439,3.10449e-06,0
-5.80799e-05,-1.9695e-05,-1.97617e-05,-7.37996e-05,8.68012e-06,-1.76805e-05,0.000145192,2.28281e-06,0
-5.23876e-05,6.99071e-05,-2.08152e-05,-8.43649e-05,4.0044e-07,-2.11044e-05,0.000110679,4.34136e-07,0
-3.86355e-05,0.000145872,-1.72985e-05,-6.62368e-05,-1.52324e-06,-2.06273e-05,7.45106e-05,7.46738e-07,0
-2.05401e-05,0.000194514,-1.13229e-05,-4.29689e-05,3.66314e-06,-1.77327e-05,5.25033e-05,2.46549e-06,0
-6.30085e-06,0.000199998,-4.8806e-06,-1.51376e-05,7.39467e-06,-1.53012e-05,4.20696e-05,2.51132e-06,0
-2.24064e-06,0.000150024,3.72967e-06,2.1336e-05,9.758e-06,-1.29402e-05,3.07416e-05,2.06503e-06,0
-6.08859e-06,6.15884e-05,1.23311e-05,3.85005e-05,1.5563e-05,-1.09418e-05,7.20834e-06,1.40078e-06,0
-1.46226e-05,-1.01277e-05,1.0904e-05,1.63256e-05,1.90531e-05,-1.0606e-05,-2.62654e-05,1.9737e-06,0
-2.33931e-05,-5.22514e-05,1.0785e-06,-3.14242e-05,1.50419e-05,-1.09945e-05,-4.94309e-05,3.09295e-06,0
-2.55922e-05,-6.71468e-05,-1.39597e-06,-9.66218e-05,5.8489e-06,-9.91624e-06,-5.05914e-05,2.28483e-06,0
-2.041e-05,-1.00148e-05,1.15839e-05,-0.000136349,1.67383e-06,-6.2618e-06,-4.74724e-05,7.78759e-07,0
-1.02827e-05,7.96775e-05,3.29926e-05,-0.000110427,9.58157e-06,-2.23521e-06,-5.49214e-05,-9.17186e-07,0
3.31181e-06,0.000115353,5.38394e-05,-4.61962e-05,2.27082e-05,7.06542e-07,-6.1411e-05,-2.60121e-06,0
1.73026e-05,7.39e-05,6.78489e-05,1.2627e-05,3.20993e-05,2.13269e-07,-5.95306e-05,-3.61636e-06,0
1.97151e-05,1.35849e-07,6.64252e-05,3.58124e-05,3.15561e-05,-6.57053e-06,-4.97995e-05,-2.66074e-06,0
1.07917e-05,-4.48763e-05,5.19368e-05,4.48731e-05,2.32823e-05,-1.60675e-05,-3.68192e-05,-1.21741e-06,0
9.32169e-06,-5.63456e-05,2.93906e-05,6.81855e-05,1.5122e-05,-2.08256e-05,-2.67739e-05,-8.34855e-07,0
1.46946e-05,-6.43466e-05,1.99461e-06,0.000108277,1.31034e-05,-1.87384e-05,-2.18963e-05,-1.03031e-06,0
9.54764e-06,-7.28447e-05,-2.73041e-05,0.000134121,1.58713e-05,-1.41197e-05,-1.81253e-05,-2.19932e-06,0
-1.13903e-05,-6.37708e-05,-5.41367e-05,0.00011234,1.76038e-05,-1.18232e-05,-9.24552e-06,-4.35921e-06,0
-3.59606e-05,-3.63774e-05,-7.22447e-05,6.32867e-05,1.63868e-05,-1.10617e-05,4.52223e-08,-5.81261e-06,0
-5.38018e-05,-3.87342e-06,-7.84487e-05,2.50047e-05,1.23179e-05,-1.06838e-05,5.71411e-06,-5.26293e-06,0
-6.69162e-05,1.18562e-05,-7.23153e-05,7.0192e-06,9.02016e-06,-1.09132e-05,9.56296e-06,-4.09922e-06,0
-7.50931e-05,1.68136e-05,-5.83797e-05,-7.1883e-06,8.91015e-06,-1.16783e-05,1.32108e-05,-3.55049e-06,0
-7.18347e-05,1.95939e-05,-3.9677e-05,-9.70273e-06,1.15036e-05,-1.20711e-05,1.47236e-05,-3.80146e-06,0
-5.6956e-05,7.76688e-06,-2.07778e-05,1.20332e-05,1.35342e-05,-1.30945e-05,1.21437e-05,-5.02714e-06,0
-4.09658e-05,-2.61847e-05,-7.36567e-06,5.22262e-05,1.40603e-05,-1.61205e-05,7.25583e-06,-6.02772e-06,0
-3.34915e-05,-6.80991e-05,-2.18283e-06,8.89887e-05,1.40102e-05,-1.99379e-05,4.39654e-06,-5.30716e-06,0
-3.54192e-05,-8.92244e-05,-3.11602e-06,9.42956e-05,1.49144e-05,-2.2844e-05,4.79294e-06,-3.29839e-06,0
-3.76608e-05,-6.55858e-05,-6.51948e-06,4.99995e-05,1.52024e-05,-2.25885e-05,7.29159e-06,-6.48932e-07,0
-3.50631e-05,-7.64877e-06,-1.05521e-05,-1.58432e-05,1.41355e-05,-1.87342e-05,1.01265e-05,-3.77261e-08,0
-3.1496e-05,4.22031e-05,-1.34991e-05,-6.65876e-05,1.46664e-05,-1.27635e-05,1.28774e-05,-2.70739e-06,0
-3.41682e-05,5.7768e-05,-1.29272e-05,-9.67991e-05,1.58876e-05,-9.95431e-06,1.59903e-05,-4.16585e-06,0
-5.15134e-05,4.32443e-05,-1.09577e-05,-0.000115741,1.60584e-05,-1.27856e-05,1.73174e-05,-4.00508e-06,0
-7.74162e-05,3.68899e-05,-9.49102e-06,-0.000128497,1.6623e-05,-1.76567e-05,9.3152e-06,-3.54017e-06,0
-9.49753e-05,6.60963e-05,-1.12478e-05,-0.000132359,1.885e-05,-1.98431e-05,-7.37656e-06,-2.76882e-06,0
-9.35442e-05,0.000111764,-1.87416e-05,-0.000128248,1.88146e-05,-1.773e-05,-2.13676e-05,-3.18601e-06,0
-7.31331e-05,0.00013635,-2.15468e-05,-0.000113534,1.43717e-05,-1.3774e-05,-2.29987e-05,-1.62192e-06,0
-3.92512e-05,0.00014399,-1.17973e-05,-8.39716e-05,9.8528e-06,-9.95534e-06,-1.51388e-05,1.90202e-06,0
-4.28024e-07,0.000139634,-2.45084e-06,-3.78495e-05,8.569e-06,-5.30176e-06,-7.81653e-06,3.22273e-06,0
2.68104e-05,0.000110478,-3.45306e-06,2.57456e-05,9.31993e-06,3.32902e-07,1.71123e-06,2.39888e-06,0
3.92649e-05,6.98486e-05,-5.52452e-06,8.76922e-05,1.09606e-05,5.29439e-06,1.26806e-05,9.20822e-07,0
4.70174e-05,4.10782e-05,-4.35276e-06,0.000127081,1.19187e-05,7.12165e-06,2.2913e-05,-5.30597e-07,0
5.18085e-05,4.39144e-05,-5.0056e-06,0.000139104,9.82575e-06,4.31095e-06,3.0333e-05,-3.06936e-08,0
5.4159e-05,7.45514e-05,-1.33991e-05,0.00011644,5.22414e-06,-5.99285e-07,3.40785e-05,1.75223e-06,0
5.77419e-05,9.63289e-05,-3.10932e-05,7.01977e-05,9.66098e-07,-3.32002e-06,3.62805e-05,3.08114e-06,0
6.21629e-05,6.80892e-05,-5.05065e-05,2.07563e-05,-3.58746e-07,-3.15993e-06,3.71376e-05,2.8695e-06,0
5.8061e-05,6.75485e-07,-5.59479e-05,-1.26461e-05,6.77203e-07,-2.49908e-06,3.46588e-05,2.1967e-06,0
4.26696e-05,-5.77587e-05,-4.38309e-05,-3.07148e-05,2.25883e-06,-2.52586e-06,2.57288e-05,3.31933e-06,0
1.9998e-05,-7.72363e-05,-2.64493e-05,-3.8576e-05,3.41574e-06,-2.51813e-06,1.43949e-05,4.81193e-06,0
-8.52494e-06,-5.92814e-05,-1.63211e-05,-3.51919e-05,2.29128e-06,-3.0371e-06,7.4024e-06,6.09239e-06,0
-4.04062e-05,-2.0098e-05,-1.46787e-05,-2.59859e-05,-3.34166e-07,-5.05406e-06,8.00088e-06,6.94831e-06,0
-7.2568e-05,1.71878e-05,-1.60713e-05,-2.56778e-05,2.43288e-07,-7.49506e-06,1.2156e-05,6.74881e-06,0
-9.95659e-05,3.36233e-05,-1.66876e-05,-3.97731e-05,5.23789e-06,-8.43219e-06,1.89266e-05,4.99744e-06,0
-0.000112268,3.26619e-05,-1.21959e-05,-4.53744e-05,1.03275e-05,-8.67476e-06,3.01413e-05,3.4387e-06,0
-0.000107527,2.70816e-05,-2.38972e-08,-2.90587e-05,1.4712e-05,-9.35108e-06,4.3077e-05,3.52489e-06,0
-9.2824e-05,2.67524e-05,1.6279e-05,-1.49833e-05,1.83568e-05,-8.99596e-06,5.06859e-05,3.53285e-06,0
-7.70653e-05,4.42675e-05,2.86968e-05,-3.52747e-05,1.71872e-05,-8.84814e-06,4.98942e-05,3.04467e-06,0
-6.26983e-05,8.84472e-05,3.63087e-05,-7.08597e-05,9.72053e-06,-9.1808e-06,4.17084e-05,3.19117e-06,0
-4.70867e-05,0.000142955,4.5092e-05,-7.02077e-05,1.83564e-06,-9.67844e-06,3.27293e-05,2.45255e-06,0
-2.79892e-05,0.000184433,5.92783e-05,-3.13594e-05,-1.7285e-06,-1.11777e-05,2.98617e-05,1.95323e-06,0
-6.92358e-06,0.00020841,7.33316e-05,3.19821e-06,-2.12988e-06,-1.22461e-05,2.98582e-05,2.20277e-06,0
8.83591e-06,0.000205904,7.51903e-05,2.31809e-05,-4.38159e-07,-1.24053e-05,2.75185e-05,1.86389e-06,0
1.77517e-05,0.000146774,6.06884e-05,4.86178e-05,3.33084e-06,-1.16153e-05,2.22499e-05,3.3186e-07,0
1.42766e-05,3.78892e-05,3.76554e-05,8.07469e-05,7.70705e-06,-9.27719e-06,1.85407e-05,-3.16345e-06,0
-4.76173e-06,-7.79298e-05,4.25792e-06,9.74938e-05,1.051e-05,-7.1628e-06,1.63173e-05,-4.61574e-06,0
-2.91078e-05,-0.000151543,-3.16288e-05,8.89419e-05,1.00614e-05,-7.77402e-06,1.43204e-05,-2.94965e-06,0
-4.69409e-05,-0.000145224,-4.49072e-05,7.01743e-05,8.85781e-06,-1.21629e-05,1.45622e-05,-2.91739e-07,0
-5.48869e-05,-8.47327e-05,-4.18146e-05,4.89095e-05,1.10201e-05,-1.66346e-05,1.49597e-05,1.36397e-06,0
-5.84795e-05,-2.47048e-05,-5.07982e-05,1.03192e-05,1.12434e-05,-1.74722e-05,8.61244e-06,-4.6176e-07,0
-5.87765e-05,7.81146e-06,-7.41348e-05,-4.76192e-05,6.68435e-06,-1.62022e-05,-1.66054e-05,-3.11244e-06,0
-5.43899e-05,2.74049e-05,-8.85613e-05,-9.09284e-05,1.94974e-06,-1.46023e-05,-5.34542e-05,-4.24149e-06,0
-4.44183e-05,4.75883e-05,-8.0996e-05,-8.51385e-05,2.26723e-06,-1.34287e-05,-7.53383e-05,-4.02469e-06,0
-2.67238e-05,6.91114e-05,-5.85096e-05,-3.23683e-05,9.38809e-06,-1.26668e-05,-6.86394e-05,-2.24982e-06,0
-2.49735e-07,8.63314e-05,-3.46418e-05,4.82727e-05,2.01902e-05,-1.07718e-05,-3.82995e-05,-6.85994e-07,0
2.26893e-05,7.52171e-05,-2.34719e-05,9.98648e-05,2.97914e-05,-8.52738e-06,7.37269e-07,-4.49369e-09,0
2.86657e-05,2.81608e-05,-2.95268e-05,6.27012e-05,3.17433e-05,-8.37379e-06,3.72335e-05,3.00727e-07,0
1.96947e-05,-1.27341e-05,-4.00346e-05,-3.22132e-05,2.67044e-05,-9.85879e-06,6.30366e-05,1.69064e-06,0
3.76872e-06,1.24947e-05,-4.1411e-05,-9.99922e-05,2.11448e-05,-1.1442e-05,7.53077e-05,4.11683e-06,0
-1.55528e-05,0.000114198,-3.34727e-05,-9.4833e-05,1.9124e-05,-1.17645e-05,7.47721e-05,5.31037e-06,0
-3.60399e-05,0.000235195,-2.27183e-05,-3.85785e-05,2.04727e-05,-9.48787e-06,6.62569e-05,4.96359e-06,0
-5.45822e-05,0.000279341,-1.25345e-05,1.58358e-05,2.39898e-05,-6.0527e-06,5.81417e-05,4.4498e-06,0
-7.01768e-05,0.000193236,-4.45659e-06,3.69509e-05,2.86302e-05,-4.61687e-06,5.46185e-05,4.81158e-06,0
-8.31504e-05,5.36839e-06,-1.81266e-06,3.83408e-05,3.16726e-05,-6.20297e-06,5.2123e-05,6.28883e-06,0
-9.12772e-05,-0.000211124,-4.40465e-06,4.06943e-05,3.13731e-05,-8.87475e-06,4.74325e-05,7.99915e-06,0
-8.77544e-05,-0.00036064,-3.81171e-06,3.88945e-05,2.84998e-05,-9.35327e-06,3.95768e-05,8.03277e-06,0
-6.85332e-05,-0.00036517,6.53646e-06,4.71771e-06,2.52166e-05,-6.91292e-06,1.18237e-05,7.62925e-06,0
-4.1049e-05,-0.000223055,2.15206e-05,-4.91852e-05,2.29771e-05,-4.56864e-06,-6.52156e-05,7.98092e-06,0
-2.22925e-05,-1.10338e-05,2.9626e-05,-8.03772e-05,2.22875e-05,-4.148e-06,-0.000158426,8.09176e-06,0
-2.0822e-05,0.000156864,3.1413e-05,-8.73013e-05,2.29416e-05,-3.64198e-06,-0.00018315,7.72756e-06,0
-2.95578e-05,0.000216574,3.08538e-05,-8.6157e-05,2.01762e-05,-4.11181e-06,-0.000112195,6.05591e-06,0
-3.84613e-05,0.000178071,2.89866e-05,-6.65728e-05,1.29778e-05,-6.14579e-06,-6.11402e-06,3.48157e-06,0
-4.94401e-05,6.45482e-05,2.71903e-05,-2.3525e-05,1.07085e-05,-6.36698e-06,7.27536e-05,2.13295e-06,0
-6.36113e-05,-8.98553e-05,2.31678e-05,-4.27564e-06,1.83517e-05,-5.0037e-06,0.000124932,2.99824e-06,0
-7.40844e-05,-0.000243076,1.65975e-05,-1.88953e-05,2.52865e-05,-4.85349e-06,0.000151437,2.78008e-06,0
-7.90717e-05,-0.000360416,7.2063e-06,-2.10849e-05,2.365e-05,-6.80177e-06,0.000153915,-2.79056e-07,0
-7.91976e-05,-0.000395716,-5.89044e-06,-6.43501e-06,1.91522e-05,-1.02481e-05,0.000137141,-4.0891e-06,0
-7.23992e-05,-0.000334087,-2.27548e-05,-5.35591e-06,1.60493e-05,-1.26783e-05,0.000113408,-5.90905e-06,0
-5.99051e-05,-0.000232951,-4.09332e-05,-1.85107e-05,1.58268e-05,-1.22729e-05,9.20646e-05,-5.79851e-06,0
-4.84037e-05,-0.000154632,-5.84602e-05,-2.57346e-05,1.71735e-05,-1.20829e-05,7.47249e-05,-5.17385e-06,0
-4.15408e-05,-0.000105486,-7.08133e-05,-2.33853e-05,1.80479e-05,-1.35056e-05,5.24758e-05,-4.48838e-06,0
-3.8349e-05,-6.87808e-05,-6.7889e-05,-2.59725e-05,1.83123e-05,-1.41993e-05,1.34491e-05,-3.40641e-06,0
-3.64463e-05,-3.66397e-05,-4.66705e-05,-4.23216e-05,1.8888e-05,-1.21766e-05,-2.65276e-05,-1.7894e-06,0
-3.41135e-05,-9.99704e-06,-2.1272e-05,-5.98622e-05,2.01476e-05,-9.01102e-06,-4.92246e-05,-1.18932e-06,0
-3.15398e-05,4.62958e-06,-8.14327e-06,-5.99197e-05,2.13812e-05,-8.041e-06,-4.91729e-05,-5.77144e-07,0
-2.97382e-05,8.99972e-06,-1.08765e-05,-4.00242e-05,2.23672e-05,-1.0194e-05,-3.75389e-05,1.02732e-06,0
-2.81285e-05,1.65915e-05,-2.00024e-05,-1.02004e-05,2.13876e-05,-1.30357e-05,-2.04993e-05,2.19174e-06,0
-2.24411e-05,4.27773e-05,-2.42409e-05,2.70514e-05,1.87359e-05,-1.25413e-05,-1.03894e-05,2.27432e-06,0
-1.03422e-05,8.83697e-05,-2.26506e-05,6.08929e-05,1.78662e-05,-8.44383e-06,-2.72117e-05,2.32222e-06,0
5.20486e-06,0.000149334,-2.10311e-05,5.89363e-05,1.93588e-05,-3.47348e-06,-7.21528e-05,1.82666e-06,0
1.89328e-05,0.000209169,-1.95577e-05,1.21049e-05,1.84027e-05,-1.54052e-06,-0.000102899,1.48906e-06,0
2.54455e-05,0.000235305,-1.40325e-05,-4.38684e-05,1.23145e-05,-3.97011e-06,-8.36314e-05,1.28589e-06,0
2.32849e-05,0.000209802,-5.37226e-06,-9.39896e-05,4.34974e-06,-7.49005e-06,-2.49801e-05,-7.76851e-08,0
1.63407e-05,0.000151134,7.52567e-07,-0.000151226,-1.85644e-06,-9.07392e-06,4.27378e-05,-2.3675e-06,0
9.219e-06,8.64487e-05,1.14223e-06,-0.000198051,-3.90423e-07,-6.37604e-06,0.00010281,-4.11251e-06,0
1.71082e-06,1.82545e-05,-1.6349e-06,-0.000187759,8.81512e-06,-2.35555e-06,0.00014558,-4.12105e-06,0
-1.05581e-05,-3.98726e-05,-8.70325e-06,-0.000110451,1.77697e-05,-2.03576e-06,0.000159845,-2.17336e-06,0
-2.50966e-05,-8.2721e-05,-2.06856e-05,9.15126e-07,2.46453e-05,-4.21722e-06,0.000145808,1.69844e-06,0
-3.02673e-05,-0.000109383,-2.7677e-05,9.27296e-05,3.04892e-05,-5.30703e-06,0.000116356,3.09612e-06,0
-3.08746e-05,-0.000101465,-1.89219e-05,0.000150206,3.44013e-05,-4.09115e-06,8.78263e-05,2.36947e-07,0
-3.78123e-05,-7.66103e-05,-1.86223e-06,0.000198413,3.16343e-05,-2.67156e-06,6.60323e-05,-1.90715e-06,0
-4.84519e-05,-4.77053e-05,7.95401e-06,0.00022104,2.55328e-05,-1.91602e-06,3.89937e-05,-1.49612e-06,0
