ch1,ch2,ch3,ch4,ch5,ch6,ch7,ch8,class
-3.2879e-05,1.58352e-05,4.10265e-05,2.58783e-05,1.31925e-05,-9.24431e-06,2.55115e-06,-8.8098e-06,0
-3.29952e-05,1.6329e-05,2.56723e-05,2.80808e-05,1.31425e-05,-9.63761e-06,5.88573e-06,-1.06096e-05,0
-3.01643e-05,1.76509e-05,-2.92538e-06,3.00198e-05,1.4254e-05,-1.03651e-05,8.11951e-06,-8.9281e-06,0
-2.64708e-05,2.0384e-05,-3.44154e-05,2.64616e-05,1.44588e-05,-1.01688e-05,9.72102e-06,-6.1594e-06,0
-2.58692e-05,2.16923e-05,-6.04678e-05,1.56277e-05,1.25872e-05,-9.18135e-06,1.20601e-05,-4.91916e-06,0
-2.738e-05,1.89213e-05,-7.41567e-05,7.81494e-06,1.09143e-05,-8.27347e-06,1.52452e-05,-6.36997e-06,0
-2.91592e-05,1.50708e-05,-7.28962e-05,3.99324e-06,8.77934e-06,-8.51807e-06,1.78409e-05,-7.18681e-06,0
-2.91674e-05,1.32919e-05,-6.01947e-05,-7.13517e-07,4.73822e-06,-1.12453e-05,1.70497e-05,-6.45472e-06,0
-2.79684e-05,1.16119e-05,-4.37113e-05,-7.44266e-06,1.79941e-06,-1.40411e-05,1.03888e-05,-5.17255e-06,0
-2.84989e-05,8.82535e-06,-2.9495e-05,-1.31227e-05,9.66312e-07,-1.49988e-05,4.3365e-07,-4.09442e-06,0
-3.0337e-05,6.52296e-06,-1.75708e-05,-1.51493e-05,1.3577e-06,-1.52059e-05,-3.52672e-06,-3.41253e-06,0
-3.04767e-05,5.07932e-06,-7.30652e-06,-1.48128e-05,1.06308e-06,-1.52517e-05,1.0634e-06,-2.9943e-06,0
-2.95955e-05,3.80902e-06,5.43783e-07,-1.36176e-05,-6.06403e-08,-1.52296e-05,1.06837e-05,-3.31234e-06,0
-3.02826e-05,2.72263e-06,3.89256e-06,-1.17014e-05,-1.65872e-06,-1.58205e-05,2.0616e-05,-3.83064e-06,0
-3.26302e-05,1.43366e-06,3.20152e-06,-8.36713e-06,-2.02227e-06,-1.79495e-05,2.89358e-05,-4.44082e-06,0
-3.46214e-05,1.55594e-06,-6.58475e-07,-5.94494e-06,6.56009e-07,-2.00789e-05,3.44254e-05,-5.2184e-06,0
-3.49987e-05,5.12236e-06,-6.50513e-06,-6.04965e-06,4.35328e-06,-2.09751e-05,3.7133e-05,-6.03704e-06,0
-3.42497e-05,1.0035e-05,-1.26698e-05,-8.75358e-06,5.99603e-06,-2.07038e-05,3.65246e-05,-5.77315e-06,0
-3.33834e-05,1.28662e-05,-1.60089e-05,-1.13606e-05,5.42457e-06,-1.99018e-05,3.28837e-05,-5.65405e-06,0
-3.32082e-05,1.3088e-05,-1.45054e-05,-1.03409e-05,4.22145e-06,-1.95483e-05,2.82775e-05,-5.62687e-06,0
-3.27764e-05,1.21383e-05,-8.09817e-06,-4.54986e-06,2.84295e-06,-1.88176e-05,2.46215e-05,-5.10365e-06,0
-3.1008e-05,1.27155e-05,-1.27672e-06,-5.00111e-07,2.59782e-06,-1.79255e-05,2.35082e-05,-5.14649e-06,0
-2.87535e-05,1.40564e-05,1.2884e-06,-6.04126e-07,4.25718e-06,-1.87767e-05,2.05017e-05,-5.0066e-06,0
-2.79134e-05,1.50963e-05,2.50956e-06,-1.62781e-06,6.16074e-06,-1.87754e-05,1.36597e-05,-2.77909e-06,0
-2.82706e-05,1.37823e-05,5.20228e-06,-3.36011e-06,6.39822e-06,-1.7916e-05,8.75709e-06,-8.17705e-07,0
-2.8715e-05,8.88265e-06,5.95067e-06,-6.82138e-06,5.79491e-06,-1.6903e-05,1.08657e-05,-1.39958e-06,0
-2.81688e-05,5.48934e-06,2.35274e-06,-1.04418e-05,5.27001e-06,-1.58616e-05,1.95183e-05,-2.91904e-06,0
-2.70558e-05,5.47409e-06,-2.51245e-06,-1.29148e-05,4.51038e-06,-1.60334e-05,2.75172e-05,-3.46856e-06,0
-2.71481e-05,6.82222e-06,-8.16451e-06,-1.24043e-05,5.78678e-06,-1.57598e-05,2.62467e-05,-2.65285e-06,0
-2.92158e-05,8.6065e-06,-1.32705e-05,-1.14334e-05,8.24219e-06,-1.62693e-05,1.48651e-05,-2.96104e-06,0
-3.12692e-05,1.00739e-05,-1.57231e-05,-1.2532e-05,1.01302e-05,-1.66138e-05,-1.22718e-07,-4.05824e-06,0
-3.07916e-05,9.98578e-06,-1.46551e-05,-1.32529e-05,1.04239e-05,-1.58388e-05,-1.03934e-05,-4.07223e-06,0
-2.88694e-05,1.0709e-05,-9.80086e-06,-1.58122e-05,9.54659e-06,-1.39705e-05,-1.26572e-05,-1.78095e-06,0
-2.90358e-05,1.18236e-05,-2.92908e-06,-1.94805e-05,9.14894e-06,-1.19251e-05,-1.14462e-05,1.20402e-06,0
-3.12688e-05,1.14041e-05,6.23737e-06,-2.23327e-05,7.57911e-06,-1.01516e-05,-1.29304e-05,1.99892e-06,0
-3.24984e-05,1.03919e-05,1.8344e-05,-2.37037e-05,5.01628e-06,-8.80887e-06,-1.57555e-05,1.06143e-06,0
-3.2638e-05,9.22395e-06,3.23355e-05,-2.4807e-05,4.00687e-06,-9.74119e-06,-1.64192e-05,2.24256e-07,0
-3.29612e-05,7.96703e-06,4.56573e-05,-2.72244e-05,4.97837e-06,-1.12046e-05,-1.57665e-05,1.12978e-07,0
-3.40153e-05,6.56175e-06,5.58081e-05,-3.00123e-05,6.84372e-06,-1.10965e-05,-1.41085e-05,3.39134e-07,0
-3.54479e-05,5.15178e-06,5.73876e-05,-2.88746e-05,9.7992e-06,-9.68663e-06,-1.0347e-05,1.95721e-06,0
-3.53001e-05,3.53071e-06,4.64311e-05,-1.83155e-05,1.36127e-05,-8.48169e-06,-3.52664e-06,4.47658e-06,0
-3.30909e-05,1.86181e-06,2.44352e-05,2.58305e-06,1.67729e-05,-8.08914e-06,4.43096e-06,5.6183e-06,0
-3.1495e-05,4.93449e-07,-5.53499e-06,2.6869e-05,1.76764e-05,-7.62218e-06,1.07797e-05,4.40087e-06,0
-3.23342e-05,-2.31808e-08,-3.97206e-05,4.29096e-05,1.71529e-05,-7.415e-06,1.58354e-05,3.19554e-06,0
-3.41256e-05,1.09278e-07,-6.93566e-05,4.75569e-05,1.70637e-05,-9.05017e-06,2.09585e-05,3.78289e-06,0
-3.51004e-05,1.12282e-06,-8.4283e-05,4.78e-05,1.77125e-05,-1.10198e-05,2.4142e-05,4.73126e-06,0
-3.53035e-05,1.7806e-06,-8.51385e-05,4.5273e-05,1.83375e-05,-1.21381e-05,2.40632e-05,4.53013e-06,0
-3.46354e-05,6.33122e-07,-7.84721e-05,3.58402e-05,1.96237e-05,-1.21678e-05,2.13563e-05,3.90913e-06,0
-3.37213e-05,-1.37892e-06,-6.85792e-05,2.20621e-05,2.11109e-05,-1.0929e-05,1.72316e-05,3.35429e-06,0
-3.39468e-05,-1.81995e-06,-5.39776e-05,9.22041e-06,2.07445e-05,-9.46659e-06,1.61376e-05,2.55246e-06,0
-3.42175e-05,-4.13903e-07,-3.46155e-05,-7.57944e-08,1.95784e-05,-9.56121e-06,1.83994e-05,2.49904e-06,0
-3.26253e-05,2.55301e-06,-1.81274e-05,-5.31819e-06,1.87864e-05,-1.06148e-05,2.05996e-05,2.68223e-06,0
-3.2206e-05,7.08716e-06,-1.02592e-05,-1.05279e-05,1.72835e-05,-1.02766e-05,2.12385e-05,1.7313e-06,0
-3.33368e-05,1.01681e-05,-7.7736e-06,-1.551e-05,1.65871e-05,-1.00691e-05,2.25548e-05,9.40041e-07,0
-3.27861e-05,1.12545e-05,-6.70026e-06,-1.58748e-05,1.41343e-05,-9.32631e-06,2.23677e-05,9.48489e-07,0
-2.92859e-05,1.23178e-05,-5.52614e-06,-1.35992e-05,9.52164e-06,-7.46326e-06,2.0039e-05,-3.23796e-07,0
-2.5827e-05,1.40752e-05,-5.55505e-06,-1.33097e-05,6.14028e-06,-6.36091e-06,1.74813e-05,-1.48911e-06,0
-2.6037e-05,1.58448e-05,-7.59169e-06,-1.8204e-05,5.41515e-06,-7.09754e-06,1.54732e-05,-1.12214e-06,0
-2.62147e-05,1.82405e-05,-8.30444e-06,-2.80004e-05,7.38773e-06,-8.95314e-06,1.66325e-05,-4.51864e-07,0
-2.46112e-05,2.2931e-05,-5.93416e-06,-3.8587e-05,1.02908e-05,-9.717e-06,2.02106e-05,-6.50491e-07,0
-2.34853e-05,3.02214e-05,-2.62145e-06,-4.53617e-05,1.46772e-05,-8.65292e-06,2.4227e-05,3.8278e-07,0
-2.47158e-05,3.67358e-05,-1.31755e-06,-4.50054e-05,1.55812e-05,-6.99338e-06,2.63421e-05,2.66241e-06,0
-2.75677e-05,3.89323e-05,-8.28468e-07,-3.61691e-05,1.31297e-05,-6.4689e-06,2.82709e-05,4.01417e-06,0
-2.96967e-05,3.83111e-05,-4.87008e-07,-2.17414e-05,1.1257e-05,-6.86899e-06,2.94066e-05,5.55178e-06,0
-3.00895e-05,3.63442e-05,-3.65436e-07,-6.76638e-06,1.17976e-05,-7.37993e-06,2.90383e-05,6.45734e-06,0
-3.00514e-05,3.39557e-05,6.22807e-07,6.02995e-06,1.34534e-05,-7.54472e-06,2.80235e-05,5.32725e-06,0
-3.15358e-05,3.14402e-05,2.50258e-06,1.80461e-05,1.44432e-05,-7.42851e-06,2.56997e-05,3.74934e-06,0
-3.34902e-05,2.83856e-05,4.31913e-06,2.90639e-05,1.60437e-05,-7.3421e-06,2.30297e-05,4.00021e-06,0
-3.47453e-05,2.3928e-05,5.4552e-06,3.33876e-05,1.86155e-05,-7.64856e-06,2.17594e-05,5.05072e-06,0
-3.55674e-05,1.86161e-05,5.97193e-06,2.88785e-05,2.07193e-05,-8.0385e-06,2.21797e-05,5.63838e-06,0
-3.60875e-05,1.50783e-05,6.08433e-06,1.85043e-05,1.97124e-05,-8.13416e-06,2.26255e-05,6.26715e-06,0
-3.56028e-05,1.5234e-05,6.51396e-06,7.97432e-06,1.77106e-05,-7.23685e-06,2.2041e-05,7.3666e-06,0
-3.36791e-05,1.74383e-05,6.43959e-06,2.19044e-06,1.69233e-05,-6.01828e-06,1.64974e-05,7.59765e-06,0
-3.10906e-05,1.85163e-05,4.98368e-06,-3.46544e-07,1.6523e-05,-6.48298e-06,-8.09654e-07,6.49551e-06,0
-2.91175e-05,1.90953e-05,3.26693e-06,-3.09097e-06,1.45169e-05,-8.12364e-06,-2.50325e-05,4.40851e-06,0
-2.86558e-05,1.99484e-05,1.90763e-06,-4.34651e-06,1.31973e-05,-8.52143e-06,-3.82358e-05,2.3272e-06,0
-2.99296e-05,2.05492e-05,6.32193e-07,-1.90322e-06,1.33379e-05,-7.65428e-06,-3.12264e-05,2.58301e-06,0
-3.05265e-05,1.97629e-05,3.36653e-07,4.73917e-06,1.35517e-05,-7.82191e-06,-9.85321e-06,4.55316e-06,0
-2.93724e-05,1.90904e-05,1.67307e-06,1.24261e-05,1.42234e-05,-8.53821e-06,1.1401e-05,5.86071e-06,0
-2.79805e-05,1.91698e-05,2.12514e-06,1.33363e-05,1.51265e-05,-8.71629e-06,2.55282e-05,6.70813e-06,0
-2.81602e-05,2.00291e-05,7.40115e-07,7.06176e-06,1.43363e-05,-1.03157e-05,3.42062e-05,7.80824e-06,0
-2.9274e-05,2.12492e-05,1.50786e-06,1.76662e-06,1.23967e-05,-1.18969e-05,4.23131e-05,7.16195e-06,0
-2.9867e-05,2.03302e-05,5.58647e-06,3.0216e-06,1.17646e-05,-1.13662e-05,5.21155e-05,5.39136e-06,0
-3.08113e-05,1.89007e-05,8.222e-06,7.8259e-06,1.1751e-05,-1.09853e-05,5.90638e-05,4.02236e-06,0
-3.08775e-05,1.81675e-05,7.19957e-06,1.1991e-05,1.3327e-05,-1.14604e-05,6.0969e-05,3.28834e-06,0
-3.01162e-05,1.82336e-05,3.8416e-06,1.02473e-05,1.59721e-05,-1.20351e-05,5.76003e-05,2.45825e-06,0
-2.93635e-05,1.94482e-05,-1.94857e-07,3.62375e-07,1.70676e-05,-1.23621e-05,5.05815e-05,-4.12531e-07,0
-2.84144e-05,2.11644e-05,-3.14014e-06,-1.33054e-05,1.61033e-05,-1.13839e-05,4.07226e-05,-3.93197e-06,0
-2.74706e-05,2.18766e-05,-4.9683e-06,-2.58795e-05,1.52304e-05,-9.08641e-06,2.91341e-05,-5.69949e-06,0
-2.65666e-05,2.13291e-05,-5.48616e-06,-3.48161e-05,1.54526e-05,-8.3253e-06,1.54133e-05,-6.47149e-06,0
-2.65889e-05,2.15883e-05,-5.00332e-06,-3.77808e-05,1.85531e-05,-8.5575e-06,9.00263e-07,-6.33745e-06,0
-2.76419e-05,2.22803e-05,-4.66055e-06,-3.35245e-05,2.38116e-05,-7.96044e-06,-1.12006e-05,-5.21972e-06,0
-2.85717e-05,2.22391e-05,-4.28208e-06,-2.59612e-05,2.74836e-05,-6.71245e-06,-1.96926e-05,-4.93451e-06,0
-2.95284e-05,2.11407e-05,-3.67459e-06,-1.63267e-05,2.76769e-05,-6.45833e-06,-2.5548e-05,-4.39182e-06,0
-3.09321e-05,2.04458e-05,-2.03844e-06,3.94462e-06,2.39918e-05,-7.85921e-06,-3.00018e-05,-2.22237e-06,0
-3.1882e-05,2.06262e-05,1.78318e-06,4.20624e-05,1.85965e-05,-9.95588e-06,-3.26156e-05,-5.46219e-08,0
-3.24115e-05,1.94416e-05,1.06886e-05,7.91181e-05,1.35209e-05,-1.05471e-05,-3.2541e-05,1.10895e-07,0
-3.25528e-05,1.5587e-05,2.55824e-05,8.39531e-05,1.01226e-05,-9.22789e-06,-2.87455e-05,-1.51497e-06,0
-3.14279e-05,1.18596e-05,4.15434e-05,5.17059e-05,8.07578e-06,-9.09774e-06,-2.4655e-05,-2.78042e-06,0
-3.00312e-05,1.1425e-05,5.07267e-05,6.15682e-06,6.97238e-06,-1.05882e-05,-2.78346e-05,-2.37511e-06,0
-2.94522e-05,1.26514e-05,4.61041e-05,-2.96793e-05,7.11395e-06,-1.33132e-05,-3.82807e-05,-7.71156e-07,0
-2.83764e-05,1.18964e-05,2.4e-05,-4.9564e-05,8.42776e-06,-1.41538e-05,-4.21466e-05,7.57756e-07,0
-2.73133e-05,8.4913e-06,-1.26772e-05,-6.04687e-05,8.73195e-06,-1.18069e-05,-3.13349e-05,1.51169e-07,0
-2.70873e-05,5.51404e-06,-5.05766e-05,-6.76597e-05,8.91869e-06,-1.03206e-05,-1.24669e-05,-1.62423e-06,0
-2.71398e-05,3.59187e-06,-7.78106e-05,-6.81415e-05,9.28603e-06,-1.10737e-05,3.32169e-06,-1.83114e-06,0
-2.73793e-05,3.91265e-06,-8.96017e-05,-6.42789e-05,8.44437e-06,-1.28657e-05,1.56091e-05,8.18244e-07,0
-2.7347e-05,5.65157e-06,-8.49128e-05,-6.31311e-05,6.29865e-06,-1.40977e-05,2.7466e-05,2.71886e-06,0
-2.72341e-05,5.88801e-06,-7.00199e-05,-6.89302e-05,5.66918e-06,-1.34421e-05,3.49261e-05,1.57527e-06,0
-2.76737e-05,5.85379e-06,-5.54316e-05,-7.57417e-05,7.08602e-06,-1.22595e-05,3.91488e-05,1.23173e-06,0
-2.83254e-05,6.01654e-06,-4.61523e-05,-7.23234e-05,7.81106e-06,-1.09363e-05,4.34268e-05,7.99985e-07,0
-2.85834e-05,9.76757e-06,-3.73439e-05,-5.91198e-05,8.17863e-06,-9.51958e-06,4.6296e-05,1.89379e-06,0
-3.00782e-05,1.66251e-05,-2.71765e-05,-3.90509e-05,6.50043e-06,-9.19484e-06,4.48832e-05,4.42642e-06,0
-3.1929e-05,2.30155e-05,-1.90681e-05,-1.71514e-05,5.4599e-06,-1.03252e-05,4.03163e-05,6.44137e-06,0
-3.16884e-05,3.19746e-05,-1.34091e-05,-2.87121e-06,6.92266e-06,-1.16175e-05,3.53907e-05,6.75794e-06,0
-3.06687e-05,4.40141e-05,-8.86906e-06,8.01367e-07,9.84933e-06,-1.09411e-05,3.12663e-05,4.10623e-06,0
-3.01161e-05,5.80967e-05,-6.16982e-06,-1.46329e-06,1.21348e-05,-9.25413e-06,2.93056e-05,1.82549e-06,0
-3.0287e-05,7.08343e-05,-6.47524e-06,-6.47544e-06,1.56157e-05,-8.55575e-06,2.70364e-05,1.39014e-06,0
-3.18003e-05,7.8216e-05,-7.98435e-06,-1.73639e-05,2.07531e-05,-7.75338e-06,2.32601e-05,2.22472e-06,0
-3.268e-05,7.74306e-05,-9.80651e-06,-3.18995e-05,2.45958e-05,-6.25204e-06,1.85556e-05,1.88143e-06,0
-3.13209e-05,6.55755e-05,-9.89054e-06,-4.36968e-05,2.52192e-05,-6.19159e-06,1.28308e-05,-5.08738e-07,0
-2.9196e-05,4.10122e-05,-8.13064e-06,-4.84084e-05,2.23924e-05,-7.02022e-06,7.84549e-06,-3.20701e-06,0
-2.76727e-05,1.18249e-05,-4.86711e-06,-4.55111e-05,1.79207e-05,-6.77041e-06,5.88211e-06,-2.9073e-06,0
-2.68354e-05,-5.51869e-06,-1.38366e-06,-3.52735e-05,1.22003e-05,-5.77611e-06,6.20286e-06,-6.39055e-07,0
-2.65578e-05,-8.70742e-06,-2.78475e-07,-1.55218e-05,7.47008e-06,-4.57032e-06,5.70606e-06,4.84393e-07,0
-2.80743e-05,-1.09261e-05,-1.68547e-06,1.45852e-05,4.44896e-06,-4.03779e-06,3.90934e-06,4.17208e-07,0
-3.21633e-05,-2.33126e-05,-4.31311e-06,4.89869e-05,3.92241e-06,-5.0823e-06,1.87533e-06,1.09261e-06,0
-3.73307e-05,-4.39296e-05,-7.21262e-06,7.73379e-05,5.30192e-06,-5.93476e-06,1.80629e-06,2.70412e-06,0
-4.0737e-05,-5.8735e-05,-8.87027e-06,9.0164e-05,7.61562e-06,-4.87164e-06,3.73632e-06,4.06852e-06,0
-4.12195e-05,-5.55854e-05,-7.57159e-06,8.38582e-05,1.06476e-05,-3.35471e-06,6.97472e-06,4.57784e-06,0
-3.93806e-05,-4.12114e-05,-5.15816e-06,6.57693e-05,1.32722e-05,-3.01756e-06,9.76904e-06,5.28561e-06,0
-3.71694e-05,-2.96813e-05,-3.94241e-06,4.78851e-05,1.39187e-05,-4.02672e-06,1.18337e-05,8.46308e-06,0
-3.49099e-05,-2.71034e-05,-5.30021e-06,3.74756e-05,1.41094e-05,-4.44671e-06,1.37385e-05,1.10822e-05,0
-3.31212e-05,-3.14272e-05,-7.06932e-06,3.14268e-05,1.43976e-05,-3.70481e-06,1.45338e-05,1.07826e-05,0
-3.2474e-05,-3.91288e-05,-8.42852e-06,2.68714e-05,1.40465e-05,-3.8153e-06,1.4791e-05,9.45208e-06,0
-3.28589e-05,-4.51211e-05,-7.87936e-06,2.33695e-05,1.45069e-05,-3.76915e-06,1.50221e-05,8.56402e-06,0
-3.26993e-05,-4.57202e-05,-7.20118e-06,1.51632e-05,1.73443e-05,-3.38134e-06,1.51573e-05,7.40965e-06,0
-3.03832e-05,-4.53405e-05,-8.8786e-06,4.02451e-06,1.87193e-05,-3.3641e-06,1.53138e-05,6.53681e-06,0
-2.91578e-05,-4.49955e-05,-9.6662e-06,-2.07241e-06,1.77807e-05,-4.86286e-06,1.45711e-05,5.06674e-06,0
-3.01829e-05,-4.07313e-05,-9.82583e-06,1.51139e-06,1.68719e-05,-6.87612e-06,1.31452e-05,2.47596e-06,0
-3.0832e-05,-3.12985e-05,-1.07867e-05,1.20144e-05,1.49389e-05,-6.444e-06,1.47591e-05,7.12273e-07,0
-2.98219e-05,-1.99354e-05,-1.25326e-05,2.28867e-05,1.27923e-05,-4.25448e-06,1.76978e-05,-4.86271e-07,0
-2.85796e-05,-9.27491e-06,-1.44845e-05,2.89215e-05,1.20065e-05,-1.91378e-06,1.82607e-05,-1.36511e-06,0
-2.7627e-05,3.13898e-07,-1.50443e-05,2.65016e-05,1.18047e-05,-4.3703e-07,1.7101e-05,-6.66306e-07,0
-2.75288e-05,8.49206e-06,-1.24828e-05,1.83331e-05,9.75643e-06,7.22473e-07,1.54711e-05,8.1711e-07,0
-2.82807e-05,1.24612e-05,-8.63481e-06,8.45164e-06,8.25324e-06,2.06654e-06,1.45865e-05,1.02437e-06,0
-2.87866e-05,1.25829e-05,-6.28471e-06,-5.65773e-07,8.32688e-06,3.03816e-06,1.56727e-05,4.96804e-07,0
-2.83623e-05,1.34213e-05,-6.09645e-06,-7.49738e-06,9.54202e-06,1.95293e-06,1.79451e-05,6.43916e-07,0
-2.75251e-05,1.65842e-05,-7.2664e-06,-1.3684e-05,1.07179e-05,4.79466e-09,1.92054e-05,1.23749e-06,0
-2.65717e-05,2.07111e-05,-7.51088e-06,-2.12176e-05,1.1112e-05,-3.37858e-07,1.87438e-05,1.69141e-06,0
-2.58089e-05,2.38889e-05,-5.59204e-06,-2.76923e-05,1.09397e-05,1.04753e-06,1.79723e-05,6.65574e-07,0
-2.71039e-05,2.51359e-05,-2.2071e-06,-2.83941e-05,1.093e-05,2.47206e-06,1.74454e-05,-1.23617e-06,0
-3.01363e-05,2.44472e-05,-3.79721e-07,-2.38682e-05,1.13723e-05,2.20448e-06,1.57529e-05,-1.62675e-06,0
-3.20595e-05,2.35014e-05,-5.63941e-07,-1.84019e-05,1.22712e-05,4.48547e-07,1.36944e-05,-1.38015e-06,0
-3.1952e-05,2.3118e-05,1.1452e-06,-1.36366e-05,1.32068e-05,-4.65926e-07,1.24911e-05,-1.84906e-06,0
-3.15457e-05,2.41246e-05,7.88534e-06,-1.03295e-05,1.23908e-05,-1.45209e-07,1.1645e-05,-3.00871e-06,0
-3.12927e-05,2.52137e-05,2.03083e-05,-8.40958e-06,8.81115e-06,-1.07989e-06,1.03999e-05,-2.80378e-06,0
-3.16016e-05,2.36965e-05,3.52273e-05,-6.47448e-06,4.82437e-06,-2.96438e-06,1.04333e-05,-6.74578e-07,0
-3.12027e-05,2.08511e-05,4.77135e-05,-3.62388e-06,5.24331e-06,-4.48443e-06,1.29034e-05,6.8173e-07,0
-2.9756e-05,2.02686e-05,5.40919e-05,3.32917e-07,8.39407e-06,-7.08652e-06,1.54463e-05,-1.32879e-07,0
-2.84802e-05,2.1832e-05,5.00163e-05,3.62175e-06,1.04843e-05,-1.01535e-05,1.60394e-05,-6.43951e-07,0
-2.90938e-05,2.18419e-05,2.95887e-05,2.41406e-06,1.06474e-05,-1.03171e-05,1.57361e-05,1.49661e-07,0
-3.14399e-05,1.84747e-05,-4.80441e-06,-3.6074e-06,9.72697e-06,-1.01674e-05,1.6466e-05,9.79403e-07,0
-3.28806e-05,1.67514e-05,-4.09531e-05,-1.03623e-05,8.58964e-06,-1.1822e-05,1.75965e-05,1.66738e-06,0
-3.29946e-05,1.9721e-05,-6.57254e-05,-1.54443e-05,1.01421e-05,-1.35372e-05,1.79824e-05,8.08898e-07,0
-3.24926e-05,2.41979e-05,-7.26957e-05,-1.59796e-05,1.54388e-05,-1.40227e-05,1.7228e-05,2.63245e-07,0
-3.18306e-05,2.77192e-05,-6.67591e-05,-1.16221e-05,2.04068e-05,-1.33225e-05,1.554e-05,4.23306e-07,0
-3.12788e-05,2.90129e-05,-5.33713e-05,-5.31853e-06,2.07295e-05,-1.2724e-05,1.40826e-05,1.56202e-07,0
-3.03312e-05,2.85207e-05,-3.81379e-05,2.82339e-06,1.78183e-05,-1.33134e-05,1.42674e-05,-5.94664e-07,0
-2.86406e-05,2.70614e-05,-2.67687e-05,1.01418e-05,1.64754e-05,-1.38122e-05,1.52372e-05,-1.87288e-06,0
-2.82081e-05,2.65352e-05,-1.88883e-05,6.684e-06,1.5186e-05,-1.44645e-05,1.49747e-05,-2.59465e-06,0
-2.90769e-05,2.56422e-05,-1.38555e-05,-5.5081e-06,1.29832e-05,-1.49975e-05,1.21546e-05,-2.48022e-06,0
-3.10162e-05,2.51412e-05,-1.3381e-05,-1.38292e-05,1.1763e-05,-1.55315e-05,8.53564e-06,-1.04615e-06,0
-3.29568e-05,2.56132e-05,-1.5781e-05,-1.42008e-05,1.05793e-05,-1.78666e-05,7.9068e-06,-6.68045e-07,0
-3.31186e-05,2.58774e-05,-1.73713e-05,-1.25907e-05,7.92777e-06,-2.00073e-05,1.16412e-05,-1.34684e-06,0
-3.25331e-05,2.665e-05,-1.73531e-05,-1.78957e-05,5.24087e-06,-2.01575e-05,1.84711e-05,-1.70817e-06,0
-3.21236e-05,2.81171e-05,-1.49262e-05,-2.75964e-05,5.79892e-06,-1.85733e-05,2.55009e-05,-1.47257e-06,0
-3.12725e-05,2.94873e-05,-1.14158e-05,-2.70385e-05,1.14938e-05,-1.66401e-05,3.01438e-05,-7.09208e-07,0
-3.03971e-05,2.9383e-05,-1.1434e-05,-9.24624e-06,1.9623e-05,-1.51018e-05,3.05473e-05,5.89125e-07,0
-3.07502e-05,2.78754e-05,-1.63174e-05,1.14783e-05,2.40357e-05,-1.54112e-05,2.75546e-05,1.50991e-06,0
-3.11139e-05,2.4957e-05,-2.05548e-05,1.88658e-05,2.30588e-05,-1.67937e-05,2.37522e-05,2.29395e-06,0
-3.09763e-05,2.30551e-05,-2.05958e-05,1.69731e-05,2.12462e-05,-1.75474e-05,2.09552e-05,3.63812e-06,0
-3.0337e-05,2.31879e-05,-1.79563e-05,2.06078e-05,2.08912e-05,-1.85561e-05,1.91409e-05,5.13339e-06,0
-3.04427e-05,2.40274e-05,-1.40543e-05,3.56539e-05,2.06141e-05,-2.06171e-05,1.6001e-05,5.95273e-06,0
-3.22829e-05,2.30871e-05,-1.13113e-05,5.80791e-05,2.22631e-05,-2.18078e-05,1.04595e-05,4.90363e-06,0
-3.29358e-05,2.16476e-05,-1.13174e-05,7.9396e-05,2.63564e-05,-1.90388e-05,5.43544e-06,4.55906e-06,0
-3.09417e-05,2.18382e-05,-1.10554e-05,9.24116e-05,3.04231e-05,-1.39255e-05,3.09285e-06,5.11917e-06,0
-2.77102e-05,2.22565e-05,-9.15479e-06,9.3764e-05,3.15513e-05,-1.09399e-05,4.14885e-06,7.05143e-06,0
-2.54355e-05,2.15549e-05,-6.5059e-06,7.87294e-05,2.68841e-05,-1.07293e-05,5.11176e-06,6.97229e-06,0
-2.48764e-05,1.8893e-05,-1.09767e-06,5.28188e-05,2.03199e-05,-1.2623e-05,7.2987e-07,2.65373e-06,0
-2.40736e-05,1.79644e-05,5.83612e-06,1.86195e-05,1.85565e-05,-1.47502e-05,-3.49448e-06,-4.90398e-07,0
-2.31087e-05,2.01063e-05,9.90363e-06,-2.76014e-05,2.21698e-05,-1.60727e-05,-2.91362e-06,6.2239e-08,0
-2.39265e-05,2.21996e-05,1.04664e-05,-7.57307e-05,2.45579e-05,-1.56331e-05,-6.01654e-07,2.56984e-06,0
-2.66994e-05,2.28466e-05,6.33051e-06,-0.000112733,2.02955e-05,-1.38993e-05,1.23032e-06,3.2984e-06,0
-2.7668e-05,2.4377e-05,1.89698e-07,-0.000126946,1.341e-05,-1.24378e-05,2.04956e-06,2.24889e-06,0
-2.63801e-05,3.09314e-05,-2.72206e-06,-0.000122136,8.70843e-06,-1.12168e-05,2.48328e-06,2.0217e-06,0
-2.53888e-05,4.36632e-05,-1.26123e-06,-0.000110329,6.07395e-06,-1.0542e-05,1.75536e-06,3.37651e-06,0
-2.37519e-05,5.84271e-05,2.34091e-06,-9.76949e-05,1.3053e-06,-1.02791e-05,8.10548e-07,4.63076e-06,0
-2.16106e-05,6.90995e-05,5.15419e-06,-8.41418e-05,-5.3139e-06,-1.08859e-05,3.49241e-06,2.94415e-06,0
-1.95283e-05,7.38926e-05,7.33189e-06,-6.835e-05,-9.21191e-06,-1.15509e-05,9.18859e-06,-4.31272e-07,0
-1.94185e-05,7.19364e-05,9.03427e-06,-4.92801e-05,-9.33453e-06,-1.19413e-05,1.41308e-05,-2.15651e-06,0
-2.10629e-05,6.19284e-05,1.08704e-05,-2.40925e-05,-7.1631e-06,-1.14742e-05,1.29595e-05,-2.21507e-06,0
-2.30795e-05,4.12479e-05,1.24086e-05,1.32421e-06,-4.4129e-06,-1.01454e-05,4.24999e-06,-1.75081e-06,0
-2.53577e-05,1.04997e-05,1.40425e-05,1.68729e-05,-2.41857e-06,-8.44158e-06,-5.3979e-06,-9.32852e-07,0
-2.81477e-05,-2.09056e-05,1.59835e-05,1.95854e-05,-2.73411e-06,-8.13013e-06,-9.61823e-06,2.279e-08,0
-3.06674e-05,-4.01247e-05,1.67962e-05,1.79836e-05,-3.98265e-06,-1.06537e-05,-7.13884e-06,4.47294e-07,0
-3.13056e-05,-3.66344e-05,1.5086e-05,1.66596e-05,-3.78237e-06,-1.48051e-05,6.58243e-07,1.22205e-07,0
-3.03159e-05,-8.3232e-06,1.16982e-05,1.32307e-05,-6.96589e-07,-1.69032e-05,1.08528e-05,-5.3314e-07,0
-2.86265e-05,2.75058e-05,6.27126e-06,4.41052e-06,3.52652e-06,-1.61161e-05,1.91308e-05,-7.46146e-07,0
-2.77756e-05,4.65864e-05,-2.5522e-06,-7.55706e-06,5.97447e-06,-1.49155e-05,2.49442e-05,-2.53533e-07,0
-2.75106e-05,4.43817e-05,-1.24262e-05,-1.69659e-05,6.25229e-06,-1.36402e-05,2.86425e-05,3.43486e-07,0
-2.80721e-05,3.01471e-05,-2.17139e-05,-1.90711e-05,7.28097e-06,-1.23994e-05,2.8322e-05,7.45323e-07,0
-2.92391e-05,1.52939e-05,-3.02365e-05,-1.69977e-05,1.02879e-05,-1.2545e-05,2.40674e-05,1.24238e-06,0
-2.9e-05,6.98193e-06,-3.5903e-05,-1.12182e-05,1.25892e-05,-1.35566e-05,1.95451e-05,1.26766e-06,0
-2.84658e-05,1.5865e-06,-3.60914e-05,1.69334e-06,1.36351e-05,-1.36268e-05,1.82105e-05,1.10253e-06,0
-2.9819e-05,-1.09629e-05,-3.16575e-05,2.01171e-05,1.41365e-05,-1.31618e-05,1.80901e-05,2.72969e-07,0
-3.16749e-05,-3.29295e-05,-2.80595e-05,3.58455e-05,1.38117e-05,-1.18511e-05,1.57516e-05,-1.66146e-06,0
-3.36436e-05,-5.50781e-05,-2.8707e-05,3.683e-05,1.09477e-05,-9.90284e-06,1.2583e-05,-1.93509e-06,0
-3.47444e-05,-6.52507e-05,-3.14034e-05,2.55884e-05,6.00067e-06,-6.77058e-06,1.20394e-05,-1.04011e-06,0
-3.51403e-05,-6.13591e-05,-3.29544e-05,1.05183e-05,3.40391e-06,-4.04976e-06,1.36839e-05,-1.14314e-06,0
-3.66484e-05,-5.07142e-05,-3.08947e-05,5.16798e-07,4.68771e-06,-2.49324e-06,1.45009e-05,-1.08865e-06,0
-3.66198e-05,-3.80512e-05,-2.65606e-05,-4.62348e-06,7.98339e-06,-6.1006e-07,1.3633e-05,-1.01835e-07,0
-3.47268e-05,-2.65388e-05,-2.12884e-05,-8.36747e-06,9.47383e-06,9.42992e-07,1.25888e-05,-1.6495e-06,0
-3.27922e-05,-1.82425e-05,-1.641e-05,-1.04794e-05,8.73493e-06,1.11164e-06,1.30291e-05,-3.91818e-06,0
-3.18263e-05,-1.32103e-05,-1.37261e-05,-1.23159e-05,6.75907e-06,-7.1937e-07,1.35498e-05,-2.91112e-06,0
-3.20964e-05,-1.06817e-05,-1.23741e-05,-1.58673e-05,3.54339e-06,-1.92883e-06,1.38314e-05,-1.22111e-06,0
-3.23882e-05,-7.78742e-06,-1.03777e-05,-1.95477e-05,7.88148e-07,-3.33768e-06,1.47816e-05,-1.06123e-06,0
-3.17936e-05,-1.99863e-06,-7.55257e-06,-1.89044e-05,1.65155e-07,-5.07474e-06,1.48213e-05,-1.83898e-06,0
-2.97713e-05,4.84092e-06,-5.73705e-06,-1.23387e-05,2.42652e-06,-6.54999e-06,1.25551e-05,-3.01245e-06,0
-2.76761e-05,8.77731e-06,-3.58757e-06,-1.87307e-06,6.23895e-06,-8.09787e-06,9.38253e-06,-4.18754e-06,0
-2.72574e-05,8.34456e-06,-3.36429e-07,5.80172e-06,9.55886e-06,-9.44682e-06,6.97488e-06,-4.20627e-06,0
-2.83459e-05,5.39442e-06,1.85843e-06,7.45316e-06,1.03393e-05,-1.09563e-05,5.47074e-06,-3.85091e-06,0
-3.02822e-05,1.04698e-06,3.77276e-06,3.7475e-06,9.69308e-06,-1.22489e-05,5.59032e-06,-1.98589e-06,0
-3.21446e-05,-3.19082e-06,9.80315e-06,-8.84055e-07,9.35497e-06,-1.4171e-05,7.38773e-06,2.30438e-06,0
-3.32765e-05,-3.75438e-06,2.08639e-05,-4.24128e-06,1.02632e-05,-1.60614e-05,1.03994e-05,6.78554e-06,0
-3.41185e-05,1.1397e-06,3.307e-05,-7.8407e-06,1.12199e-05,-1.68301e-05,1.26648e-05,8.05867e-06,0
-3.41826e-05,8.6254e-06,4.28454e-05,-1.26753e-05,1.12049e-05,-1.59974e-05,1.262e-05,5.74986e-06,0
-3.23339e-05,1.4799e-05,4.6355e-05,-1.58181e-05,1.09082e-05,-1.43982e-05,1.14989e-05,3.42981e-06,0
-3.03137e-05,1.83346e-05,3.79871e-05,-1.54884e-05,1.07219e-05,-1.30645e-05,1.04811e-05,3.74187e-06,0
-2.94636e-05,2.00599e-05,1.5619e-05,-1.39982e-05,1.05996e-05,-1.26737e-05,9.2379e-06,4.52718e-06,0
-2.93042e-05,2.19597e-05,-1.27653e-05,-1.42618e-05,1.0451e-05,-1.29985e-05,7.98524e-06,3.76085e-06,0
-2.94253e-05,2.4841e-05,-3.48431e-05,-1.56187e-05,9.18601e-06,-1.33126e-05,7.81098e-06,3.63652e-06,0
-3.07038e-05,2.59961e-05,-4.49468e-05,-1.39641e-05,7.84241e-06,-1.13102e-05,9.45392e-06,4.69495e-06,0
-3.29041e-05,2.53383e-05,-4.60181e-05,-1.30372e-05,8.9764e-06,-7.68896e-06,1.27256e-05,4.47917e-06,0
-3.47783e-05,2.68835e-05,-4.37498e-05,-1.55972e-05,1.04022e-05,-5.20434e-06,1.55855e-05,3.49126e-06,0
-3.582e-05,3.02699e-05,-4.10654e-05,-1.8877e-05,1.01283e-05,-5.00735e-06,1.21539e-05,3.35089e-06,0
-3.47246e-05,3.17391e-05,-3.80605e-05,-2.07892e-05,9.56488e-06,-5.44272e-06,1.98239e-06,2.40613e-06,0
-3.33356e-05,2.87229e-05,-3.49707e-05,-1.83859e-05,1.00605e-05,-5.17749e-06,-8.34636e-06,1.69469e-06,0
-3.23059e-05,2.30197e-05,-2.94722e-05,-1.38291e-05,1.06881e-05,-5.78525e-06,-1.25188e-05,8.56701e-07,0
-3.14238e-05,1.95316e-05,-2.21526e-05,-1.12101e-05,1.23548e-05,-5.76247e-06,-9.02105e-06,8.37652e-07,0
-3.10251e-05,2.02726e-05,-1.787e-05,-1.39956e-05,1.4734e-05,-4.52674e-06,-2.54652e-06,1.95298e-06,0
-3.17887e-05,2.20393e-05,-1.61136e-05,-2.14148e-05,1.72648e-05,-3.63499e-06,6.19741e-06,2.32027e-06,0
-3.23658e-05,2.19679e-05,-1.49005e-05,-2.1707e-05,2.11428e-05,-3.20095e-06,1.6205e-05,1.34524e-06,0
-3.17625e-05,2.09671e-05,-1.37676e-05,-1.08254e-05,2.46645e-05,-2.90359e-06,2.69907e-05,1.79313e-07,0
-3.11294e-05,2.05751e-05,-1.2343e-05,-1.13288e-06,2.51876e-05,-3.27229e-06,3.86232e-05,1.21212e-06,0
-3.02475e-05,2.11167e-05,-1.02617e-05,-1.73931e-06,2.28908e-05,-4.07736e-06,4.91195e-05,3.15643e-06,0
-2.98934e-05,2.32787e-05,-8.78166e-06,-5.50875e-06,1.99358e-05,-4.99021e-06,5.60532e-05,5.22956e-06,0
-3.07188e-05,2.62009e-05,-8.79981e-06,-2.4912e-06,1.80698e-05,-5.20807e-06,5.72228e-05,6.79125e-06,0
-3.22546e-05,2.82011e-05,-8.76151e-06,8.96606e-06,1.88572e-05,-5.7512e-06,5.48665e-05,7.01007e-06,0
-3.2264e-05,2.88242e-05,-7.16864e-06,2.23084e-05,2.04554e-05,-7.67108e-06,5.2133e-05,6.05792e-06,0
-3.12769e-05,2.84138e-05,-4.83855e-06,3.22867e-05,2.03285e-05,-1.02504e-05,4.83819e-05,5.44471e-06,0
-3.10629e-05,2.90195e-05,-3.0909e-06,4.39547e-05,1.93662e-05,-1.25414e-05,4.1345e-05,5.35582e-06,0
-3.11298e-05,3.18484e-05,-1.32247e-06,6.20939e-05,1.93547e-05,-1.40254e-05,3.19449e-05,5.70552e-06,0
-2.9979e-05,3.52441e-05,-1.47283e-08,7.08829e-05,1.97109e-05,-1.35926e-05,2.14927e-05,5.76694e-06,0
-2.90269e-05,3.60873e-05,-2.17083e-07,5.09377e-05,1.9766e-05,-1.19648e-05,1.21657e-05,4.3747e-06,0
-2.90243e-05,3.39621e-05,-2.62793e-06,1.26728e-05,2.18729e-05,-1.17516e-05,5.90559e-06,3.39317e-06,0
-3.00232e-05,3.20231e-05,-5.95075e-06,-2.09061e-05,2.40385e-05,-1.19334e-05,3.26479e-06,3.47966e-06,0
-3.17181e-05,3.14461e-05,-7.51716e-06,-4.04767e-05,2.27656e-05,-1.08318e-05,2.91652e-06,1.9284e-06,0
-3.32159e-05,3.10447e-05,-7.58029e-06,-4.52366e-05,2.07809e-05,-1.06663e-05,2.77953e-07,-1.64759e-06,0
-3.38271e-05,3.03719e-05,-6.4403e-06,-3.46434e-05,2.1087e-05,-1.21951e-05,-5.60712e-06,-5.17946e-06,0
-3.23499e-05,2.87728e-05,-3.26077e-06,-1.84263e-05,2.34697e-05,-1.28328e-05,-9.07292e-06,-6.88221e-06,0
-3.01155e-05,2.43499e-05,1.31661e-06,-9.37066e-06,2.60672e-05,-1.29667e-05,-6.58858e-06,-5.19004e-06,0
-2.77315e-05,1.82367e-05,8.23333e-06,-1.49993e-05,2.58321e-05,-1.144e-05,6.90033e-07,-2.52013e-06,0
-2.55211e-05,1.57107e-05,1.78967e-05,-3.2147e-05,2.07846e-05,-9.53528e-06,8.21297e-06,-2.13516e-06,0
-2.60299e-05,1.58148e-05,3.03875e-05,-4.51675e-05,1.53697e-05,-1.03506e-05,1.26277e-05,-4.69788e-06,0
-2.77579e-05,1.50997e-05,4.71562e-05,-4.79005e-05,1.29404e-05,-1.21105e-05,1.31715e-05,-6.64919e-06,0
-2.75557e-05,1.31924e-05,6.30972e-05,-4.16362e-05,1.34812e-05,-1.29145e-05,1.06827e-05,-7.01471e-06,0
-2.68872e-05,1.18692e-05,6.88287e-05,-2.8236e-05,1.53882e-05,-1.22347e-05,8.23905e-06,-7.19559e-06,0
-2.68419e-05,1.16045e-05,5.83062e-05,-1.25358e-05,1.66327e-05,-1.07776e-05,7.79258e-06,-6.80365e-06,0
-2.73292e-05,1.15554e-05,3.20318e-05,-1.93219e-06,1.90908e-05,-9.98218e-06,8.12169e-06,-6.4031e-06,0
-2.73315e-05,1.27435e-05,-3.93492e-06,2.03759e-06,2.24503e-05,-9.80959e-06,6.77557e-06,-5.3569e-06,0
-2.75241e-05,1.47669e-05,-3.93939e-05,3.91035e-06,2.44401e-05,-9.75113e-06,5.04024e-06,-4.70655e-06,0
-2.77653e-05,1.58575e-05,-6.46326e-05,4.67823e-06,2.30039e-05,-1.01419e-05,3.54748e-06,-5.12458e-06,0
-2.89712e-05,1.58651e-05,-7.58419e-05,4.31683e-06,1.95158e-05,-1.14721e-05,3.10311e-06,-6.15034e-06,0
-3.13306e-05,1.49485e-05,-7.39505e-05,6.02066e-06,1.62692e-05,-1.25985e-05,3.95609e-06,-7.47983e-06,0
-3.20874e-05,1.316e-05,-6.42963e-05,1.23744e-05,1.44181e-05,-1.23467e-05,4.19691e-06,-8.22295e-06,0
-3.10644e-05,1.22668e-05,-5.34953e-05,1.69171e-05,1.44447e-05,-1.08455e-05,3.37666e-06,-6.75273e-06,0
-3.05295e-05,1.12191e-05,-4.38904e-05,1.23526e-05,1.6224e-05,-9.48892e-06,2.89259e-06,-3.6958e-06,0
-3.10336e-05,8.67936e-06,-3.40475e-05,6.7916e-07,1.83563e-05,-9.41149e-06,2.85496e-06,-1.99247e-06,0
-3.0993e-05,5.90248e-06,-2.36259e-05,-1.12387e-05,1.83142e-05,-9.93406e-06,1.87746e-06,-2.34481e-06,0
-3.07128e-05,3.72326e-06,-1.53799e-05,-1.95247e-05,1.54136e-05,-1.03284e-05,-6.31572e-07,-3.22053e-06,0
-3.0619e-05,3.67456e-07,-1.06803e-05,-1.94583e-05,1.25767e-05,-9.89775e-06,-4.14823e-06,-2.84406e-06,0
-3.10365e-05,-4.72951e-06,-7.68856e-06,-7.62612e-06,1.47976e-05,-9.65344e-06,-7.10394e-06,-2.11146e-06,0
-3.12947e-05,-6.72244e-06,-7.0306e-06,1.33549e-05,2.20458e-05,-1.01128e-05,-6.91267e-06,-1.51578e-06,0
-3.04527e-05,-3.39116e-06,-7.83363e-06,3.48489e-05,3.02159e-05,-9.98874e-06,-2.85746e-06,-7.8338e-07,0
-2.91303e-05,1.08697e-07,-7.78224e-06,3.7409e-05,3.40993e-05,-9.24091e-06,3.40858e-06,-1.32389e-06,0
-2.85527e-05,2.01809e-06,-6.17134e-06,1.36654e-05,2.98224e-05,-7.9901e-06,8.79218e-06,-3.02807e-06,0
-2.94412e-05,1.00275e-06,-3.92356e-06,-1.00382e-05,2.11278e-05,-6.0628e-06,1.08691e-05,-3.05612e-06,0
-3.05125e-05,-1.86198e-06,-5.23162e-06,-1.81117e-05,1.5572e-05,-6.28942e-06,1.24323e-05,-1.43908e-06,0
-2.99133e-05,-2.24535e-06,-9.14393e-06,-1.28325e-05,1.69826e-05,-7.43783e-06,1.76379e-05,-1.11008e-07,0
-2.80031e-05,-9.65639e-07,-1.0892e-05,-2.77855e-07,2.12037e-05,-6.83318e-06,2.75965e-05,1.17397e-06,0
-2.67461e-05,6.55307e-08,-9.82705e-06,2.47384e-06,2.07015e-05,-5.46498e-06,3.63521e-05,1.36389e-06,0
-2.63307e-05,3.43717e-07,-8.03307e-06,-7.05125e-06,1.61385e-05,-4.32451e-06,4.04413e-05,1.5099e-06,0
-2.52131e-05,2.78076e-06,-6.61907e-06,-1.7621e-05,1.1796e-05,-2.90162e-06,4.19617e-05,3.38388e-06,0
-2.45448e-05,5.35147e-06,-4.8186e-06,-1.84995e-05,1.08184e-05,-1.30519e-06,4.18233e-05,5.30787e-06,0
-2.44213e-05,6.53374e-06,-3.24827e-06,-1.01641e-05,1.14191e-05,-1.13215e-06,3.8503e-05,5.99812e-06,0
-2.54543e-05,1.05916e-05,-2.7671e-06,4.5055e-06,1.1885e-05,-1.51699e-06,3.15247e-05,5.06133e-06,0
-2.67312e-05,1.90201e-05,-3.50345e-06,2.1292e-05,1.3279e-05,-1.76745e-06,2.1217e-05,4.43341e-06,0
-2.607e-05,3.22681e-05,-4.6722e-06,3.28109e-05,1.53846e-05,-1.9933e-06,6.97697e-06,4.24295e-06,0
-2.4342e-05,4.80428e-05,-4.40437e-06,3.49953e-05,1.83661e-05,-2.3282e-06,-7.95975e-06,3.56258e-06,0
-2.3771e-05,5.85067e-05,-3.72855e-06,3.01059e-05,2.21898e-05,-2.77346e-06,-1.85475e-05,3.34212e-06,0
-2.48021e-05,5.65142e-05,-4.13538e-06,2.53335e-05,2.65331e-05,-3.96809e-06,-2.10504e-05,3.61881e-06,0
-2.49833e-05,4.34341e-05,-3.0259e-06,2.33835e-05,2.98701e-05,-5.13254e-06,-1.61323e-05,4.20616e-06,0
-2.42617e-05,2.48407e-05,4.75049e-07,2.15662e-05,3.07695e-05,-4.0403e-06,-7.88379e-06,4.60486e-06,0
-2.42121e-05,4.23331e-06,3.20562e-06,1.51419e-05,2.88424e-05,-1.8747e-06,-1.49254e-06,4.10574e-06,0
-2.61509e-05,-1.50607e-05,3.87739e-06,4.56791e-06,2.49961e-05,-2.1654e-06,1.34792e-06,3.49995e-06,0
-2.94955e-05,-2.85242e-05,4.59619e-06,-5.52644e-06,1.95796e-05,-4.61408e-06,2.82793e-06,3.43773e-06,0
-3.25691e-05,-3.44656e-05,7.05907e-06,-1.07627e-05,1.40257e-05,-5.69183e-06,6.01612e-06,3.20893e-06,0
-3.36647e-05,-3.58572e-05,1.08901e-05,-1.62943e-05,9.39885e-06,-4.78395e-06,1.06918e-05,4.04011e-06,0
-3.20418e-05,-3.64372e-05,1.68207e-05,-3.3519e-05,5.55497e-06,-4.68458e-06,1.37577e-05,5.64539e-06,0
-3.04441e-05,-3.68089e-05,2.38204e-05,-6.36048e-05,3.30716e-06,-6.5032e-06,1.56718e-05,5.50529e-06,0
-3.17043e-05,-3.28931e-05,2.84806e-05,-9.04792e-05,2.05258e-06,-9.80769e-06,1.69563e-05,6.05556e-06,0
-3.38329e-05,-2.45581e-05,3.06677e-05,-0.000101977,4.95703e-07,-1.40038e-05,1.7104e-05,8.7124e-06,0
-3.50792e-05,-1.52901e-05,3.37885e-05,-9.79172e-05,-3.42627e-07,-1.60123e-05,1.76756e-05,9.87241e-06,0
-3.58812e-05,-7.65663e-06,3.32924e-05,-8.16028e-05,1.38215e-06,-1.37906e-05,1.98641e-05,8.86797e-06,0
-3.68386e-05,-2.46985e-06,2.28047e-05,-5.25147e-05,5.29986e-06,-1.1664e-05,2.31017e-05,7.3583e-06,0
-3.67054e-05,7.37261e-08,4.90218e-07,-1.06311e-05,1.10749e-05,-1.27295e-05,2.44889e-05,7.92099e-06,0
-3.59429e-05,1.58629e-06,-2.94275e-05,3.20979e-05,1.7156e-05,-1.50822e-05,2.40754e-05,9.06543e-06,0
-3.60657e-05,4.96571e-06,-5.69152e-05,6.25086e-05,2.10021e-05,-1.51625e-05,2.29056e-05,9.09968e-06,0
-3.54543e-05,8.84895e-06,-7.69311e-05,7.06466e-05,2.41474e-05,-1.37368e-05,2.142e-05,8.64713e-06,0
-3.37729e-05,1.09469e-05,-8.58034e-05,5.70558e-05,2.58191e-05,-1.3795e-05,2.04779e-05,7.62115e-06,0
-3.46603e-05,7.50629e-06,-8.2043e-05,3.64853e-05,2.51856e-05,-1.39952e-05,1.86244e-05,6.52585e-06,0
-3.79972e-05,1.54075e-06,-6.8958e-05,2.09498e-05,2.17456e-05,-1.3779e-05,1.71195e-05,5.26524e-06,0
-4.00597e-05,-1.66617e-06,-5.45187e-05,1.3223e-05,1.58382e-05,-1.38781e-05,1.74655e-05,3.2285e-06,0
-3.99023e-05,-4.70392e-07,-4.11471e-05,1.04458e-05,1.01645e-05,-1.57291e-05,1.88271e-05,1.5359e-06,0
-3.83288e-05,2.52196e-06,-2.90654e-05,7.4858e-06,5.70635e-06,-1.68479e-05,1.95909e-05,2.30012e-06,0
-3.66598e-05,4.74809e-06,-2.01659e-05,1.94311e-06,4.28985e-06,-1.6097e-05,2.01915e-05,3.10929e-06,0
-3.63279e-05,6.70593e-06,-1.42769e-05,-5.83794e-06,5.27872e-06,-1.47203e-05,2.01471e-05,1.96661e-06,0
-3.81527e-05,8.46196e-06,-1.00752e-05,-1.52546e-05,6.64903e-06,-1.46556e-05,1.90453e-05,-3.76603e-07,0
-3.95357e-05,1.04232e-05,-6.36957e-06,-2.47271e-05,6.05522e-06,-1.57211e-05,1.81286e-05,-2.00487e-06,0
-3.89115e-05,1.22337e-05,-3.3638e-06,-2.98443e-05,3.2617e-06,-1.56705e-05,1.86297e-05,-2.02257e-06,0
-3.76944e-05,1.3563e-05,5.46636e-07,-2.85537e-05,-4.12899e-07,-1.33746e-05,1.98014e-05,-1.5199e-06,0
-3.76002e-05,1.29516e-05,6.67789e-06,-2.24073e-05,-2.86948e-06,-9.40438e-06,2.01086e-05,-2.02618e-06,0
-3.75781e-05,1.27029e-05,1.36156e-05,-1.12203e-05,-2.81243e-06,-7.39775e-06,1.93432e-05,-3.76355e-06,0
-3.55471e-05,1.43496e-05,1.55459e-05,7.26957e-06,-2.14202e-06,-8.20208e-06,1.77127e-05,-4.64819e-06,0
-3.20713e-05,1.60132e-05,1.08441e-05,2.85583e-05,-1.90791e-06,-9.34026e-06,1.69429e-05,-3.48375e-06,0
-2.9219e-05,1.65387e-05,1.17428e-06,4.06516e-05,-1.10674e-06,-9.39667e-06,1.75122e-05,-2.58293e-06,0
-2.84042e-05,1.77298e-05,-1.10053e-05,3.69513e-05,2.48516e-07,-9.07465e-06,1.76952e-05,-3.9154e-06,0
-2.9909e-05,2.00937e-05,-2.14637e-05,2.36116e-05,2.19244e-06,-8.91e-06,1.5776e-05,-5.531e-06,0
-3.06109e-05,2.34529e-05,-2.79222e-05,9.98566e-06,5.60477e-06,-9.18189e-06,1.23521e-05,-5.8506e-06,0
-2.99443e-05,2.78385e-05,-3.03646e-05,-1.85366e-06,1.15842e-05,-8.29405e-06,9.3814e-06,-4.65734e-06,0
-2.91721e-05,2.98377e-05,-2.6581e-05,-1.27806e-05,1.29653e-05,-7.89585e-06,8.05411e-06,-2.03086e-06,0
-2.92069e-05,2.72918e-05,-1.71143e-05,-2.26465e-05,7.77288e-06,-5.88015e-06,6.29043e-06,-7.2476e-07,0
-2.92449e-05,2.37388e-05,-7.86027e-06,-2.22894e-05,6.34881e-06,-2.66254e-06,1.55408e-06,-1.19476e-06,0
-2.72763e-05,2.24648e-05,-1.28531e-06,-9.73156e-06,9.97948e-06,-1.89791e-06,-7.64871e-06,-6.83173e-07,0
-2.56702e-05,2.29073e-05,1.42943e-06,3.32067e-06,1.25944e-05,-9.58896e-07,-1.5757e-05,2.12696e-06,0
-2.49016e-05,2.3095e-05,5.4304e-07,8.34983e-06,8.98889e-06,2.48825e-07,-1.45578e-05,5.74262e-06,0
-2.49447e-05,2.3369e-05,-7.79757e-07,5.15851e-06,4.01826e-06,-3.158e-07,-7.0821e-06,7.18403e-06,0
-2.60972e-05,2.40122e-05,-1.09254e-06,1.05211e-06,1.02362e-06,-1.78694e-06,-8.23559e-07,5.7227e-06,0
-2.78169e-05,2.3794e-05,6.4885e-07,-9.47711e-06,1.00943e-07,-2.26393e-06,2.71153e-06,3.33455e-06,0
-2.9435e-05,2.22726e-05,4.69869e-06,-3.02653e-05,-1.05361e-06,-1.83288e-06,5.45255e-06,1.7344e-06,0
-3.07763e-05,2.09494e-05,8.14596e-06,-5.21157e-05,-3.85805e-06,-1.33063e-06,8.70101e-06,1.31369e-06,0
-3.21011e-05,2.07583e-05,8.16649e-06,-6.3076e-05,-5.20176e-06,-1.6448e-06,1.24192e-05,1.08009e-06,0
-3.29367e-05,2.21203e-05,6.03097e-06,-5.90401e-05,-5.5134e-06,-3.08782e-06,1.52919e-05,4.828e-07,0
-3.27697e-05,2.60426e-05,4.49705e-06,-4.42951e-05,-5.73602e-06,-5.14373e-06,1.66122e-05,1.04502e-06,0
-3.08192e-05,2.98634e-05,3.56094e-06,-2.4611e-05,-5.03712e-06,-6.69955e-06,1.84915e-05,2.22835e-06,0
-2.80204e-05,3.11979e-05,2.65916e-06,-5.91964e-06,-7.15562e-07,-8.05412e-06,2.21437e-05,2.62129e-06,0
-2.70544e-05,3.0417e-05,1.5782e-06,9.13266e-06,4.81665e-06,-1.00571e-05,2.48972e-05,1.25821e-06,0
-2.8507e-05,2.90401e-05,4.16446e-07,1.71052e-05,8.58005e-06,-1.19368e-05,2.50317e-05,-6.71083e-07,0
-3.11081e-05,2.65269e-05,-9.28817e-08,1.81119e-05,1.0611e-05,-1.23676e-05,2.37349e-05,-1.95396e-06,0
-3.31876e-05,2.4093e-05,2.38314e-06,1.64976e-05,1.18267e-05,-1.25324e-05,2.26252e-05,-2.40093e-06,0
-3.28529e-05,2.24039e-05,6.15382e-06,2.20914e-05,1.34306e-05,-1.25125e-05,2.19947e-05,-1.97842e-06,0
-3.06491e-05,2.09286e-05,8.38802e-06,4.2812e-05,1.64188e-05,-1.17032e-05,2.10134e-05,-1.72786e-06,0
-2.76813e-05,2.05548e-05,1.00597e-05,5.88144e-05,1.92203e-05,-1.06574e-05,1.88824e-05,-2.63086e-06,0
-2.49969e-05,2.05017e-05,9.69937e-06,4.27959e-05,2.05906e-05,-1.202e-05,1.88379e-05,-2.69808e-06,0
-2.51732e-05,1.85243e-05,6.0494e-06,6.47751e-06,1.99686e-05,-1.41768e-05,2.28434e-05,-2.27787e-06,0
-2.7419e-05,1.70632e-05,1.41504e-06,-2.17594e-05,1.83293e-05,-1.25605e-05,2.62532e-05,-3.29921e-06,0
-2.85972e-05,1.71691e-05,-5.06532e-06,-3.10539e-05,1.70189e-05,-9.26538e-06,2.60251e-05,-4.91052e-06,0
-2.78322e-05,1.53691e-05,-1.27455e-05,-2.88324e-05,1.54404e-05,-7.81493e-06,2.30737e-05,-6.09204e-06,0
-2.8242e-05,1.21445e-05,-1.73047e-05,-2.47447e-05,1.32724e-05,-9.24118e-06,2.0504e-05,-5.72712e-06,0
-3.05341e-05,8.69749e-06,-2.09533e-05,-2.81384e-05,1.25483e-05,-9.4729e-06,2.09144e-05,-4.61287e-06,0
-3.21204e-05,5.66959e-06,-2.39641e-05,-3.76236e-05,1.45312e-05,-8.02126e-06,2.27644e-05,-4.03762e-06,0
-3.19779e-05,5.38278e-06,-2.44323e-05,-4.23578e-05,1.5467e-05,-8.37292e-06,2.33499e-05,-5.42394e-06,0
-3.12139e-05,8.39889e-06,-2.3661e-05,-3.67401e-05,1.30082e-05,-1.10567e-05,2.20958e-05,-6.04977e-06,0
-3.08686e-05,1.10338e-05,-2.22696e-05,-2.30474e-05,9.84084e-06,-1.46707e-05,2.14165e-05,-5.27933e-06,0
-3.09677e-05,1.08825e-05,-2.00532e-05,-8.43944e-06,8.85568e-06,-1.77535e-05,2.05616e-05,-4.27259e-06,0
-3.15479e-05,1.19119e-05,-1.82387e-05,-2.25564e-07,1.02121e-05,-2.00609e-05,1.82484e-05,-2.90197e-06,0
-3.12699e-05,1.74491e-05,-1.73918e-05,-1.12927e-06,1.32743e-05,-2.06378e-05,1.57094e-05,-1.56519e-06,0
-3.03945e-05,2.68184e-05,-1.56105e-05,-4.21222e-06,1.67082e-05,-1.95814e-05,1.38381e-05,-1.30216e-06,0
-2.96408e-05,3.89671e-05,-1.27522e-05,-4.83855e-06,1.83611e-05,-1.83087e-05,1.24997e-05,-2.25022e-06,0
-2.92362e-05,4.98083e-05,-9.62933e-06,-3.52748e-06,1.91825e-05,-1.79722e-05,1.15188e-05,-2.67278e-06,0
-2.85142e-05,5.4213e-05,-7.40164e-06,-4.15641e-06,2.10334e-05,-1.70969e-05,1.04805e-05,-2.4944e-06,0
-2.69949e-05,5.015e-05,-5.81805e-06,-7.08673e-06,2.29446e-05,-1.51066e-05,8.71231e-06,-2.37455e-06,0
-2.51213e-05,3.7314e-05,-1.8765e-06,-9.69606e-06,2.29232e-05,-1.34027e-05,7.81114e-06,-2.21094e-06,0
-2.39309e-05,1.43752e-05,7.34248e-06,-7.03147e-06,2.10946e-05,-1.25193e-05,7.6994e-06,-1.08002e-06,0
-2.40475e-05,-1.30033e-05,1.98817e-05,-3.28424e-07,2.05371e-05,-1.2159e-05,7.31112e-06,2.8972e-07,0
-2.45107e-05,-3.03e-05,3.07752e-05,4.10506e-06,2.10024e-05,-1.2185e-05,6.94972e-06,1.26447e-06,0
-2.57602e-05,-3.0096e-05,3.47624e-05,5.77746e-06,2.01542e-05,-1.2855e-05,7.41034e-06,1.11408e-06,0
-2.92962e-05,-1.98299e-05,2.68931e-05,1.27829e-05,1.68999e-05,-1.29145e-05,8.23358e-06,8.36163e-07,0
-3.27436e-05,-9.68206e-06,6.77817e-06,2.58234e-05,1.33259e-05,-1.15722e-05,8.60998e-06,1.65994e-06,0
-3.20648e-05,-2.46197e-06,-1.94198e-05,2.69343e-05,1.04733e-05,-9.88378e-06,7.88787e-06,3.18539e-06,0
-2.88816e-05,4.18063e-06,-4.40765e-05,5.81896e-06,8.01433e-06,-8.61677e-06,7.11073e-06,4.10133e-06,0
-2.7694e-05,1.04325e-05,-6.04893e-05,-2.24312e-05,7.12594e-06,-8.40556e-06,7.42417e-06,3.4687e-06,0
-2.87394e-05,1.54556e-05,-6.42804e-05,-3.98602e-05,6.69359e-06,-9.13043e-06,8.99009e-06,8.90826e-07,0
-2.96582e-05,1.85295e-05,-5.91788e-05,-4.18221e-05,7.52424e-06,-1.08131e-05,8.74516e-06,-4.93422e-07,0
-3.05412e-05,2.05571e-05,-5.13431e-05,-3.29254e-05,1.26497e-05,-1.27416e-05,7.5843e-06,1.49961e-06,0
-3.06925e-05,2.30053e-05,-4.22185e-05,-2.03858e-05,1.7318e-05,-1.27501e-05,9.36791e-06,2.17409e-06,0
-2.94765e-05,2.41546e-05,-3.05096e-05,-4.71886e-06,1.88368e-05,-1.10279e-05,1.0983e-05,9.02831e-07,0
-2.88991e-05,2.50696e-05,-1.65891e-05,1.54809e-05,1.8879e-05,-8.68307e-06,1.18684e-05,2.80916e-07,0
-2.9121e-05,2.6648e-05,-1.67042e-06,2.76966e-05,1.7616e-05,-6.36419e-06,1.25869e-05,8.21184e-07,0
-2.91041e-05,2.8137e-05,1.55055e-05,1.75292e-05,1.5462e-05,-5.50078e-06,1.26593e-05,2.33422e-06,0
-2.86189e-05,2.72475e-05,3.64353e-05,-4.92337e-06,1.14058e-05,-5.40332e-06,1.17637e-05,2.50121e-06,0
-2.81416e-05,2.40745e-05,5.65769e-05,-2.56338e-05,7.18877e-06,-4.36174e-06,1.07855e-05,9.41507e-07,0
-2.7859e-05,2.02365e-05,6.82886e-05,-3.63622e-05,5.4457e-06,-4.12147e-06,1.00571e-05,-3.17575e-07,0
-2.76735e-05,1.65389e-05,6.53282e-05,-3.18805e-05,9.47935e-06,-4.65304e-06,8.98848e-06,-7.94111e-08,0
-2.80363e-05,1.43921e-05,4.43049e-05,-1.5905e-05,1.882e-05,-4.2063e-06,8.09894e-06,1.27155e-06,0
-2.83615e-05,1.42494e-05,1.01453e-05,3.81828e-07,2.89611e-05,-3.82455e-06,7.90091e-06,1.47048e-06,0
-2.86542e-05,1.59772e-05,-2.79343e-05,7.77025e-06,3.42691e-05,-3.6994e-06,8.98252e-06,-8.50299e-07,0
-2.93551e-05,1.63614e-05,-5.99372e-05,4.46472e-06,3.22832e-05,-1.98873e-06,9.90163e-06,-4.00602e-06,0
-3.02918e-05,1.39481e-05,-7.79254e-05,-6.18281e-06,2.70781e-05,1.67028e-07,1.04914e-05,-5.04745e-06,0
-3.10731e-05,1.08898e-05,-7.9536e-05,-1.70427e-05,2.30641e-05,9.28532e-07,1.09928e-05,-3.79971e-06,0
-3.0886e-05,9.27732e-06,-6.95331e-05,-2.19447e-05,2.09836e-05,5.46068e-08,1.0996e-05,-2.00711e-06,0
-2.9737e-05,8.4788e-06,-5.74372e-05,-2.00726e-05,1.98156e-05,-1.89629e-06,1.00957e-05,-1.19283e-06,0
-2.88365e-05,8.40989e-06,-4.76785e-05,-1.52625e-05,1.93331e-05,-4.42313e-06,8.8327e-06,-6.452e-07,0
-2.89656e-05,9.94466e-06,-3.94443e-05,-1.05816e-05,1.87819e-05,-6.56564e-06,8.34147e-06,1.20731e-07,0
-2.89134e-05,1.17169e-05,-3.01275e-05,-7.96365e-06,1.62941e-05,-7.87926e-06,1.05608e-05,3.88096e-07,0
-2.80476e-05,1.23682e-05,-1.92099e-05,-6.32064e-06,1.18205e-05,-9.72639e-06,1.62627e-05,1.03268e-06,0
-2.75992e-05,1.65699e-05,-9.80584e-06,-4.90392e-06,9.13963e-06,-1.08731e-05,2.31805e-05,1.32866e-06,0
-2.70224e-05,2.79559e-05,-3.81095e-06,-3.42936e-06,1.00807e-05,-1.06813e-05,2.87174e-05,1.57455e-06,0
-2.5847e-05,4.22827e-05,-2.95715e-08,-7.33677e-07,1.13259e-05,-1.12583e-05,2.94314e-05,3.58209e-06,0
-2.45095e-05,5.54355e-05,2.40868e-06,2.80737e-06,1.16327e-05,-1.34718e-05,2.27862e-05,5.42598e-06,0
-2.28334e-05,6.40427e-05,2.47518e-06,4.86233e-06,1.19747e-05,-1.44075e-05,8.98614e-06,5.35295e-06,0
-2.27826e-05,6.29812e-05,4.02358e-07,6.32368e-06,1.25358e-05,-1.3369e-05,-4.33927e-06,4.43044e-06,0
-2.37845e-05,5.13358e-05,-3.59561e-07,8.85279e-06,1.2642e-05,-1.32043e-05,-8.87576e-06,4.71451e-06,0
-2.36961e-05,3.11441e-05,2.90595e-06,7.65841e-06,1.11853e-05,-1.30658e-05,-4.71452e-06,4.95922e-06,0
-2.3308e-05,6.55247e-06,8.38346e-06,4.88363e-06,9.56239e-06,-1.27288e-05,4.02104e-06,5.02338e-06,0
-2.33478e-05,-1.19184e-05,1.20157e-05,3.14275e-06,8.05473e-06,-1.16906e-05,1.50099e-05,6.63669e-06,0
-2.37659e-05,-1.98439e-05,1.12921e-05,8.42368e-07,7.15416e-06,-1.01508e-05,2.70497e-05,7.73942e-06,0
-2.35185e-05,-1.73794e-05,9.01549e-06,-1.96655e-06,6.65728e-06,-1.01598e-05,3.4324e-05,7.45948e-06,0
-2.33999e-05,-1.01522e-05,7.13927e-06,-7.81455e-06,7.1075e-06,-1.07986e-05,3.4079e-05,5.65407e-06,0
-2.50828e-05,-5.74661e-06,6.21113e-06,-1.51135e-05,8.17365e-06,-1.2215e-05,2.90372e-05,3.32713e-06,0
-2.8147e-05,-7.09943e-06,7.12839e-06,-2.24043e-05,8.70224e-06,-1.30341e-05,2.09645e-05,2.6981e-06,0
-3.07135e-05,-1.13844e-05,7.55877e-06,-2.7286e-05,8.61298e-06,-1.38819e-05,1.17799e-05,3.99277e-06,0
-3.11117e-05,-1.40534e-05,5.69897e-06,-2.824e-05,7.11397e-06,-1.62553e-05,4.99021e-06,6.28767e-06,0
-2.98233e-05,-1.1736e-05,3.43193e-06,-2.18891e-05,6.12994e-06,-1.83491e-05,-4.92587e-06,7.96768e-06,0
-2.94344e-05,1.49041e-06,2.86679e-06,-3.76561e-06,7.58169e-06,-1.83313e-05,-2.50158e-05,9.07985e-06,0
-3.08739e-05,2.66804e-05,1.87175e-06,2.13891e-05,1.02602e-05,-1.65794e-05,-4.45875e-05,1.01224e-05,0
-3.23214e-05,5.91128e-05,-8.94944e-07,4.0231e-05,1.17024e-05,-1.51675e-05,-4.70233e-05,1.05109e-05,0
-3.18523e-05,8.99832e-05,-3.72424e-06,4.34056e-05,1.21502e-05,-1.46932e-05,-3.01849e-05,1.06772e-05,0
-2.99483e-05,0.000112466,-4.48451e-06,3.7176e-05,1.27771e-05,-1.43635e-05,-9.95564e-06,1.09951e-05,0
-2.84557e-05,0.000121194,-2.74706e-06,3.06179e-05,1.42568e-05,-1.31561e-05,-5.554e-07,1.00341e-05,0
-2.78513e-05,0.000112735,8.93672e-07,2.46163e-05,1.4658e-05,-1.11522e-05,1.92253e-06,7.18352e-06,0
-2.78429e-05,8.56998e-05,4.89633e-06,1.3055e-05,1.40233e-05,-8.56443e-06,7.94952e-06,3.77747e-06,0
-2.80088e-05,4.48676e-05,7.04345e-06,-6.30696e-06,1.466e-05,-6.13116e-06,1.50987e-05,1.69149e-06,0
-2.98162e-05,-2.97748e-06,6.32765e-06,-2.84537e-05,1.74906e-05,-4.47798e-06,1.35663e-05,9.83569e-07,0
-3.27386e-05,-5.07764e-05,3.52754e-06,-4.44068e-05,2.13806e-05,-3.54517e-06,5.81636e-06,1.05495e-06,0
-3.49996e-05,-9.20543e-05,2.93899e-07,-4.93002e-05,2.24024e-05,-2.8691e-06,4.87183e-06,2.60868e-06,0
-3.66347e-05,-0.000122224,-3.80615e-06,-4.47765e-05,2.09231e-05,-2.54064e-06,1.20195e-05,2.16272e-06,0
-3.83641e-05,-0.000131864,-8.49888e-06,-2.85483e-05,1.96271e-05,-2.50138e-06,2.08925e-05,4.95723e-07,0
-3.84029e-05,-0.000115026,-1.04071e-05,-2.79142e-06,1.88225e-05,-3.44972e-06,3.16546e-05,2.08874e-06,0
-3.56057e-05,-8.45093e-05,-1.08544e-05,2.19365e-05,1.89254e-05,-4.35268e-06,4.45016e-05,3.79977e-06,0
-3.24437e-05,-6.01489e-05,-1.1574e-05,3.76741e-05,1.85079e-05,-3.71729e-06,5.44097e-05,4.05914e-06,0
-3.19843e-05,-4.87689e-05,-1.21157e-05,4.2404e-05,1.6564e-05,-3.5783e-06,5.4279e-05,5.31129e-06,0
-3.66258e-05,-4.8588e-05,-1.35424e-05,4.07191e-05,1.33478e-05,-5.76356e-06,4.3923e-05,6.92302e-06,0
-4.15592e-05,-4.89103e-05,-1.41843e-05,3.02306e-05,9.70601e-06,-9.36901e-06,3.19726e-05,7.0194e-06,0
-4.27364e-05,-4.35611e-05,-1.22318e-05,7.25581e-06,6.8339e-06,-1.04945e-05,2.42052e-05,5.8132e-06,0
-4.19266e-05,-3.29848e-05,-9.36855e-06,-1.86475e-05,5.50013e-06,-8.58276e-06,2.0777e-05,5.064e-06,0
-4.13308e-05,-2.18205e-05,-7.76959e-06,-3.21331e-05,5.32502e-06,-6.41706e-06,2.00834e-05,4.2264e-06,0
-4.05432e-05,-1.45478e-05,-5.25813e-06,-2.75056e-05,5.59097e-06,-5.1547e-06,1.99396e-05,2.87062e-06,0
-3.8423e-05,-9.14816e-06,-2.03461e-06,-1.55028e-05,6.9064e-06,-5.52771e-06,1.91926e-05,2.02518e-06,0
-3.61992e-05,-3.73526e-06,8.07021e-07,-8.51227e-06,7.70167e-06,-5.9161e-06,1.58226e-05,2.06005e-06,0
-3.43569e-05,1.29117e-06,2.47368e-06,-1.02206e-05,8.08961e-06,-5.88549e-06,8.84572e-06,1.65718e-06,0
-3.27757e-05,4.21219e-06,2.8313e-06,-1.52256e-05,9.00081e-06,-6.57061e-06,3.20648e-07,2.15728e-07,0
-3.18605e-05,5.5952e-06,2.02839e-06,-1.88888e-05,9.4783e-06,-6.69339e-06,-5.65867e-06,-7.81863e-07,0
-3.27003e-05,7.31741e-06,-1.44052e-06,-2.09202e-05,8.82453e-06,-6.2334e-06,-7.99588e-06,-1.05484e-06,0
-3.45039e-05,1.1081e-05,-7.10662e-06,-2.08379e-05,8.48457e-06,-5.62993e-06,-7.14369e-06,-5.02628e-07,0
-3.52072e-05,1.58593e-05,-1.24231e-05,-1.84124e-05,9.6006e-06,-5.12448e-06,-4.69267e-06,-1.22609e-07,0
-3.32709e-05,2.09134e-05,-1.66672e-05,-1.60922e-05,1.14506e-05,-5.27858e-06,-1.81563e-06,6.24658e-07,0
-3.00223e-05,2.53563e-05,-2.34887e-05,-1.46466e-05,1.25716e-05,-6.01756e-06,2.726e-07,2.16666e-06,0
-2.74354e-05,2.85062e-05,-3.30443e-05,-1.13296e-05,1.25708e-05,-7.38062e-06,9.22168e-07,3.41417e-06,0
-2.67536e-05,3.01959e-05,-3.89054e-05,-5.65375e-06,1.24057e-05,-8.71861e-06,1.59566e-06,2.99931e-06,0
-2.77607e-05,3.13829e-05,-3.37379e-05,1.22525e-06,1.22236e-05,-8.04914e-06,2.50041e-06,2.60442e-06,0
-2.86875e-05,3.2392e-05,-1.917e-05,6.59882e-06,1.18947e-05,-5.4791e-06,4.14136e-06,4.08775e-06,0
-2.96202e-05,3.26659e-05,-2.57804e-06,9.52137e-06,1.12934e-05,-2.46603e-06,5.56411e-06,4.44604e-06,0
-3.14167e-05,3.21884e-05,1.2889e-05,8.86514e-06,1.09107e-05,-1.65269e-06,4.78217e-06,2.36437e-06,0
-3.37443e-05,3.16811e-05,3.13993e-05,3.92145e-06,1.04981e-05,-6.34031e-07,2.41609e-06,2.31924e-07,0
-3.31188e-05,3.24152e-05,5.20683e-05,2.60383e-07,8.36104e-06,5.95853e-07,2.25688e-06,-4.15817e-07,0
-3.01825e-05,3.21447e-05,6.50797e-05,-7.13869e-07,6.08227e-06,-2.28407e-06,5.24272e-06,2.14999e-07,0
-2.797e-05,3.08887e-05,6.27637e-05,-2.58515e-06,5.97413e-06,-4.79139e-06,8.81307e-06,1.14089e-06,0
-2.74109e-05,3.44286e-05,4.26955e-05,-6.08743e-06,6.43051e-06,-6.08065e-06,1.1862e-05,5.55266e-07,0
-2.91775e-05,4.62099e-05,9.66108e-06,-9.38069e-06,7.12019e-06,-7.45857e-06,1.32899e-05,-2.83039e-07,0
-3.00111e-05,5.96367e-05,-2.79314e-05,-1.16152e-05,8.50946e-06,-7.94776e-06,1.27473e-05,-9.43465e-08,0
-2.88597e-05,6.90056e-05,-5.87041e-05,-1.35434e-05,1.14673e-05,-6.53723e-06,1.11653e-05,5.26346e-07,0
-2.77785e-05,7.86115e-05,-7.60158e-05,-1.48086e-05,1.4645e-05,-4.53084e-06,8.29407e-06,1.43721e-06,0
-2.71373e-05,8.46233e-05,-8.03522e-05,-1.33744e-05,1.57832e-05,-4.14425e-06,5.32145e-06,3.07722e-06,0
-2.77287e-05,7.70702e-05,-7.29344e-05,-9.47185e-06,1.7255e-05,-4.62401e-06,4.5202e-06,2.94432e-06,0
-2.90371e-05,5.64616e-05,-5.88405e-05,-8.42242e-06,1.89982e-05,-5.04935e-06,7.16712e-06,5.6025e-07,0
-2.97071e-05,3.04974e-05,-4.59205e-05,-1.07415e-05,1.84593e-05,-6.01963e-06,1.18799e-05,-1.11325e-06,0
-2.95009e-05,8.04018e-06,-3.88377e-05,-1.0151e-05,1.6527e-05,-8.4887e-06,1.55715e-05,-1.25699e-06,0
-2.91407e-05,-5.64448e-06,-3.74872e-05,-2.62158e-06,1.53177e-05,-1.11998e-05,1.74714e-05,-6.88164e-07,0
-2.94074e-05,-1.10555e-05,-3.86164e-05,9.8646e-06,1.38927e-05,-1.36846e-05,1.85124e-05,-1.13694e-06,0
