ch1,ch2,ch3,ch4,ch5,ch6,ch7,ch8,class
-3.38916e-05,1.80304e-05,-6.68949e-06,4.92891e-05,1.56648e-05,-1.19661e-05,5.93659e-06,-3.03012e-06,0
-3.31749e-05,2.35953e-05,-6.20265e-06,7.23748e-05,1.5934e-05,-1.37428e-05,5.04452e-06,-3.53807e-06,0
-3.20899e-05,3.11633e-05,-7.44656e-06,7.54732e-05,2.00216e-05,-1.22917e-05,3.74196e-06,-3.47637e-06,0
-3.15425e-05,3.7803e-05,-8.64151e-06,6.78667e-05,2.40177e-05,-8.68047e-06,2.62473e-06,-4.00921e-06,0
-3.12521e-05,4.11304e-05,-1.03207e-05,5.63817e-05,2.60285e-05,-6.10985e-06,1.76068e-06,-4.8617e-06,0
-3.06205e-05,3.99778e-05,-1.07822e-05,4.15963e-05,2.50653e-05,-6.3298e-06,1.51144e-06,-5.86341e-06,0
-2.95704e-05,3.47475e-05,-8.18147e-06,2.77236e-05,2.334e-05,-8.32813e-06,1.88009e-06,-7.00181e-06,0
-2.89296e-05,2.72966e-05,-3.8664e-06,1.81403e-05,1.98454e-05,-9.26963e-06,2.51229e-06,-7.23682e-06,0
-2.81736e-05,1.92256e-05,-8.19428e-07,1.18216e-05,1.61438e-05,-9.54701e-06,2.1352e-06,-5.531e-06,0
-2.75134e-05,1.30539e-05,2.22427e-07,7.47723e-06,1.39623e-05,-9.94091e-06,2.17174e-06,-3.12996e-06,0
-2.79815e-05,1.12569e-05,1.13717e-06,3.95676e-06,1.36754e-05,-9.26879e-06,3.90294e-06,-1.68073e-06,0
-2.94668e-05,1.15375e-05,2.0357e-06,9.26812e-07,1.58023e-05,-8.43655e-06,5.93935e-06,-1.58687e-06,0
-3.10028e-05,1.16261e-05,2.62891e-06,-6.43009e-07,1.87514e-05,-7.16335e-06,6.69855e-06,-1.34837e-06,0
-3.15157e-05,1.26318e-05,3.05061e-06,-2.38548e-06,2.01973e-05,-4.39536e-06,7.51412e-06,-1.27074e-07,0
-3.14849e-05,1.55331e-05,3.2104e-06,-5.41467e-06,1.88063e-05,-9.12518e-07,9.97891e-06,1.88904e-06,0
-3.2125e-05,1.76829e-05,2.96829e-06,-7.80475e-06,1.65921e-05,2.00729e-06,1.30219e-05,3.77059e-06,0
-3.28492e-05,1.78566e-05,2.21031e-06,-9.9548e-06,1.42779e-05,2.63376e-06,1.49923e-05,4.55888e-06,0
-3.28265e-05,1.70811e-05,4.18534e-07,-1.49691e-05,1.23914e-05,1.63652e-06,1.60638e-05,4.50389e-06,0
-3.26356e-05,1.72208e-05,-3.06899e-06,-2.04363e-05,1.15813e-05,7.55649e-07,1.67576e-05,3.60566e-06,0
-3.10714e-05,1.6736e-05,-7.85755e-06,-2.14902e-05,1.2246e-05,-2.33729e-08,1.59997e-05,2.48136e-06,0
-2.94847e-05,1.38313e-05,-1.13372e-05,-1.79913e-05,1.35666e-05,-1.12346e-06,1.57289e-05,2.31271e-06,0
-3.09102e-05,1.10646e-05,-1.38873e-05,-1.36496e-05,1.51335e-05,-2.70175e-06,1.58973e-05,1.97449e-06,0
-3.39946e-05,1.0278e-05,-1.77433e-05,-1.19201e-05,1.72562e-05,-4.88873e-06,1.64645e-05,1.49659e-06,0
-3.47029e-05,1.00997e-05,-2.16523e-05,-1.16702e-05,1.8051e-05,-7.54602e-06,1.79533e-05,2.31528e-06,0
-3.18026e-05,8.7073e-06,-2.53804e-05,-1.0471e-05,1.53673e-05,-8.75976e-06,1.97544e-05,2.6792e-06,0
-2.91376e-05,5.41241e-06,-2.99128e-05,-8.55112e-06,1.31048e-05,-6.1048e-06,2.097e-05,3.50764e-06,0
-2.89572e-05,4.59306e-06,-3.23412e-05,-8.12947e-06,1.30562e-05,-3.1138e-06,2.09926e-05,4.8966e-06,0
-3.03676e-05,8.38717e-06,-3.10987e-05,-7.67608e-06,1.44076e-05,-4.54837e-06,2.097e-05,5.09695e-06,0
-3.18459e-05,1.42049e-05,-2.64028e-05,-6.84951e-06,1.5894e-05,-7.83792e-06,1.98981e-05,4.3809e-06,0
-3.26671e-05,2.37261e-05,-2.07917e-05,-5.09669e-06,1.63909e-05,-1.00288e-05,1.78963e-05,4.83616e-06,0
-3.28481e-05,3.36775e-05,-1.86016e-05,-7.55287e-07,1.47652e-05,-1.06703e-05,1.63929e-05,6.13071e-06,0
-3.19264e-05,3.5572e-05,-1.79795e-05,1.30237e-06,1.2776e-05,-1.17953e-05,1.53338e-05,5.1944e-06,0
-3.12084e-05,3.14984e-05,-1.7243e-05,2.05788e-06,1.24568e-05,-1.34705e-05,1.56103e-05,2.8868e-06,0
-3.12509e-05,2.76849e-05,-1.58793e-05,3.98024e-06,1.24962e-05,-1.39123e-05,1.53298e-05,6.10848e-07,0
-3.01205e-05,2.35273e-05,-1.38401e-05,2.15496e-06,1.08764e-05,-1.43138e-05,1.33895e-05,-4.98242e-07,0
-2.79154e-05,1.74184e-05,-1.17039e-05,-4.49577e-06,8.06641e-06,-1.47837e-05,1.2331e-05,2.32698e-07,0
-2.76857e-05,1.02669e-05,-1.0041e-05,-1.071e-05,6.92329e-06,-1.46185e-05,1.28982e-05,1.16179e-06,0
-2.92886e-05,4.40723e-06,-9.97102e-06,-1.50964e-05,6.99029e-06,-1.4406e-05,1.4375e-05,1.51803e-06,0
-2.98721e-05,1.07024e-06,-1.01047e-05,-1.79959e-05,7.96929e-06,-1.46134e-05,1.56844e-05,1.08258e-06,0
-2.87761e-05,-5.06274e-07,-9.36375e-06,-1.84166e-05,9.03178e-06,-1.45954e-05,1.68744e-05,5.15411e-07,0
-2.86352e-05,-1.57072e-06,-9.09824e-06,-1.70145e-05,9.20027e-06,-1.48506e-05,1.76935e-05,1.31042e-07,0
-3.07123e-05,-9.43485e-07,-1.04161e-05,-1.54031e-05,8.43562e-06,-1.50244e-05,1.68827e-05,-5.72425e-07,0
-3.30346e-05,2.57507e-06,-1.2048e-05,-1.50068e-05,7.94362e-06,-1.46063e-05,1.53594e-05,-7.04482e-07,0
-3.32392e-05,7.51557e-06,-1.24231e-05,-1.56154e-05,8.57254e-06,-1.38109e-05,1.52952e-05,1.00781e-08,0
-3.15881e-05,1.19667e-05,-1.15498e-05,-1.49913e-05,1.06538e-05,-1.1386e-05,1.45892e-05,5.5944e-07,0
-3.05768e-05,1.55447e-05,-9.963e-06,-1.24061e-05,1.09204e-05,-7.34004e-06,9.50877e-06,-7.66722e-07,0
-3.01678e-05,1.82375e-05,-8.18048e-06,-1.0694e-05,8.12329e-06,-4.12798e-06,3.31987e-08,-2.90036e-06,0
-3.03463e-05,2.02166e-05,-6.62254e-06,-8.98592e-06,6.37922e-06,-2.76317e-06,-9.89855e-06,-4.12971e-06,0
-3.07201e-05,2.07021e-05,-5.20619e-06,-5.18581e-06,8.34795e-06,-1.94839e-06,-1.48305e-05,-4.64215e-06,0
-3.05711e-05,2.05137e-05,-3.52087e-06,-3.54846e-06,1.14317e-05,2.42259e-07,-1.25018e-05,-4.85576e-06,0
-3.06617e-05,2.1224e-05,-2.82235e-06,-5.81654e-06,1.25057e-05,2.45175e-06,-5.03287e-06,-4.19668e-06,0
-3.04655e-05,2.13917e-05,-3.76776e-06,-6.0831e-06,1.2805e-05,2.86784e-06,4.65234e-06,-1.22351e-06,0
-2.96272e-05,1.94811e-05,-4.21345e-06,-5.70263e-06,1.43804e-05,2.29695e-06,1.57142e-05,-3.86293e-07,0
-2.93422e-05,1.92511e-05,-4.17859e-06,-8.1204e-06,1.61047e-05,1.9569e-06,2.4399e-05,-4.45562e-06,0
-3.06685e-05,1.96728e-05,-3.83412e-06,-9.44658e-06,1.76223e-05,2.57207e-06,3.01926e-05,-8.42089e-06,0
-3.2696e-05,1.50317e-05,-3.00604e-06,-1.0035e-05,1.88422e-05,2.85009e-06,3.60163e-05,-7.5555e-06,0
-3.36097e-05,1.03155e-05,-3.29023e-06,-1.14014e-05,1.88373e-05,1.44023e-06,3.78125e-05,-5.1634e-06,0
-3.2851e-05,8.75155e-06,-5.8396e-06,-1.32354e-05,1.89072e-05,9.65598e-08,3.45051e-05,-3.9192e-06,0
-3.12133e-05,1.36552e-05,-9.8698e-06,-1.71899e-05,1.94065e-05,-1.41891e-07,2.90589e-05,-2.01805e-06,0
-3.00751e-05,2.69458e-05,-1.31142e-05,-1.9516e-05,2.04896e-05,-2.23322e-06,2.69715e-05,-1.19706e-06,0
-2.92919e-05,3.90203e-05,-1.38725e-05,-1.84787e-05,2.14143e-05,-5.41483e-06,2.82376e-05,-1.25402e-07,0
-2.8389e-05,4.28972e-05,-1.21557e-05,-1.52176e-05,2.19239e-05,-7.22541e-06,2.8085e-05,1.48438e-06,0
-2.70572e-05,3.70452e-05,-1.04382e-05,-1.11384e-05,2.2518e-05,-7.54682e-06,2.65103e-05,2.52754e-06,0
-2.60109e-05,2.16303e-05,-1.07133e-05,-7.23433e-06,2.29142e-05,-8.19999e-06,2.40554e-05,3.20004e-06,0
-2.59934e-05,1.58062e-06,-1.26639e-05,-1.21944e-06,2.25352e-05,-1.02862e-05,2.15622e-05,3.88882e-06,0
-2.65541e-05,-1.62851e-05,-1.38488e-05,7.56467e-06,2.22775e-05,-1.23197e-05,1.85375e-05,4.45369e-06,0
-2.71919e-05,-2.73603e-05,-1.27876e-05,1.60917e-05,2.3433e-05,-1.18849e-05,1.58131e-05,4.51035e-06,0
-2.85156e-05,-2.90649e-05,-1.06929e-05,1.88378e-05,2.4762e-05,-9.86413e-06,1.35385e-05,4.67484e-06,0
-3.03198e-05,-2.2578e-05,-8.74712e-06,1.5752e-05,2.46334e-05,-9.29135e-06,1.09919e-05,4.72309e-06,0
-3.09476e-05,-1.27725e-05,-6.96142e-06,1.06612e-05,2.36301e-05,-9.39108e-06,8.17669e-06,4.22409e-06,0
-3.10158e-05,-3.41476e-06,-6.18769e-06,7.36286e-06,2.2915e-05,-8.2344e-06,5.97897e-06,2.8887e-06,0
-3.18276e-05,3.79569e-06,-5.55202e-06,4.15779e-06,2.24335e-05,-6.38301e-06,4.77202e-06,1.54135e-06,0
-3.21817e-05,8.38393e-06,-3.77881e-06,-3.32932e-06,2.14068e-05,-5.84592e-06,3.87072e-06,1.89183e-06,0
-3.04061e-05,1.18762e-05,-2.07574e-06,-1.45902e-05,2.00504e-05,-7.30542e-06,3.55762e-06,4.79478e-06,0
-2.79357e-05,1.57094e-05,-2.54001e-06,-2.27562e-05,1.91985e-05,-1.01942e-05,3.86585e-06,6.16482e-06,0
-2.63906e-05,1.85433e-05,-5.91389e-06,-2.32925e-05,1.90884e-05,-1.24588e-05,3.94794e-06,5.32604e-06,0
-2.60293e-05,1.84487e-05,-9.69747e-06,-1.90147e-05,1.80484e-05,-1.35508e-05,3.47364e-06,5.86765e-06,0
-2.64172e-05,1.58033e-05,-1.12475e-05,-1.43351e-05,1.64227e-05,-1.39827e-05,3.63886e-06,7.20474e-06,0
-2.77904e-05,1.08455e-05,-1.0356e-05,-1.25683e-05,1.54246e-05,-1.44868e-05,4.6239e-06,8.41855e-06,0
-3.04098e-05,7.28541e-06,-8.49921e-06,-1.50622e-05,1.26966e-05,-1.57886e-05,4.76729e-06,7.99212e-06,0
-3.18858e-05,7.42579e-06,-6.16685e-06,-2.21045e-05,9.78848e-06,-1.63364e-05,4.64048e-06,6.05739e-06,0
-3.12218e-05,8.52828e-06,-3.82067e-06,-3.11212e-05,7.46144e-06,-1.62258e-05,6.64932e-06,6.67711e-06,0
-3.0125e-05,9.16858e-06,-1.96026e-06,-3.94138e-05,4.18585e-06,-1.5838e-05,8.69984e-06,7.62916e-06,0
-2.96921e-05,9.809e-06,-2.21023e-06,-4.36711e-05,1.26166e-06,-1.44563e-05,9.11024e-06,6.97299e-06,0
-2.95221e-05,9.60113e-06,-3.31626e-06,-3.91885e-05,-9.95271e-07,-1.30271e-05,1.0497e-05,6.45833e-06,0
-2.93196e-05,7.39092e-06,-3.50384e-06,-2.71234e-05,-1.34964e-06,-1.14541e-05,1.34461e-05,5.50019e-06,0
-2.91083e-05,4.02378e-06,-3.5456e-06,-1.41079e-05,-6.99044e-07,-1.10398e-05,1.61688e-05,4.87789e-06,0
-2.90062e-05,1.57524e-06,-3.60108e-06,-4.99583e-06,2.4745e-07,-1.2097e-05,1.7181e-05,4.20881e-06,0
-2.98068e-05,7.82557e-07,-4.44848e-06,4.68892e-07,1.65251e-06,-1.34088e-05,1.59946e-05,2.82071e-06,0
-3.04734e-05,3.48899e-07,-6.69696e-06,4.93827e-06,3.71306e-06,-1.34689e-05,1.34092e-05,1.03181e-06,0
-3.09627e-05,1.12172e-06,-9.58129e-06,8.46508e-06,8.45193e-06,-1.15441e-05,1.15726e-05,3.07759e-07,0
-3.12312e-05,2.04382e-06,-1.10485e-05,7.7832e-06,1.38882e-05,-9.44937e-06,1.11676e-05,1.13491e-06,0
-3.11335e-05,2.94357e-06,-1.06201e-05,3.42989e-06,1.69396e-05,-7.91915e-06,1.03083e-05,1.47161e-06,0
-3.10727e-05,4.44481e-06,-9.67863e-06,2.30125e-06,1.89983e-05,-7.17886e-06,5.68734e-06,3.12706e-07,0
-2.99366e-05,6.29336e-06,-9.62247e-06,8.21606e-06,2.24639e-05,-6.01297e-06,-4.77522e-06,-1.2454e-06,0
-2.72195e-05,7.2895e-06,-8.90065e-06,1.88366e-05,2.50484e-05,-5.68699e-06,-1.7654e-05,-1.87411e-06,0
-2.48486e-05,7.45607e-06,-6.83365e-06,2.70155e-05,2.40202e-05,-7.77558e-06,-2.58532e-05,-1.51737e-06,0
-2.41481e-05,7.64201e-06,-5.40808e-06,2.74728e-05,1.91487e-05,-9.80392e-06,-2.55371e-05,-8.77541e-07,0
-2.45903e-05,7.5557e-06,-5.1057e-06,2.03327e-05,1.30703e-05,-8.92775e-06,-1.93125e-05,-4.13779e-07,0
-2.57659e-05,8.24569e-06,-5.27396e-06,1.16849e-05,9.74344e-06,-7.8578e-06,-1.01761e-05,-2.66024e-07,0
-2.63315e-05,9.4007e-06,-6.32025e-06,9.14505e-06,9.72059e-06,-8.60309e-06,1.0035e-06,-1.65082e-06,0
-2.65215e-05,1.05656e-05,-9.24172e-06,1.20086e-05,9.42674e-06,-8.86806e-06,1.3393e-05,-5.04868e-06,0
-2.74031e-05,1.11612e-05,-1.18125e-05,1.3568e-05,7.89925e-06,-7.8488e-06,2.42379e-05,-9.73241e-06,0
-2.88507e-05,1.17363e-05,-1.22761e-05,1.03363e-05,8.18181e-06,-6.33781e-06,3.23197e-05,-1.2959e-05,0
-2.97448e-05,1.25925e-05,-1.17335e-05,4.99007e-06,9.49934e-06,-6.52866e-06,3.55892e-05,-1.16471e-05,0
-3.08706e-05,1.34834e-05,-1.11707e-05,-4.47758e-07,9.6244e-06,-8.1983e-06,3.39469e-05,-8.99169e-06,0
-3.01065e-05,1.45029e-05,-1.1022e-05,-5.14709e-06,8.83703e-06,-9.23285e-06,3.17871e-05,-8.26836e-06,0
-2.71546e-05,1.35021e-05,-1.00427e-05,-6.12054e-06,9.03658e-06,-9.23204e-06,3.03214e-05,-6.74506e-06,0
-2.60827e-05,1.092e-05,-8.55008e-06,-2.63011e-06,1.01263e-05,-9.23003e-06,2.87764e-05,-5.76929e-06,0
-2.60278e-05,1.03565e-05,-6.88287e-06,-1.02295e-06,1.30542e-05,-1.02065e-05,2.64786e-05,-6.72359e-06,0
-2.48409e-05,1.05836e-05,-6.21474e-06,-5.32599e-06,1.73018e-05,-1.11856e-05,2.56624e-05,-5.50413e-06,0
-2.45178e-05,1.05414e-05,-7.26836e-06,-1.11952e-05,1.98838e-05,-1.1424e-05,2.58621e-05,-3.87111e-06,0
-2.64907e-05,1.14525e-05,-9.18034e-06,-1.47454e-05,1.90842e-05,-1.16405e-05,2.61219e-05,-4.71817e-06,0
-2.9069e-05,1.44237e-05,-1.02162e-05,-1.55766e-05,1.56386e-05,-1.09343e-05,2.70371e-05,-5.36503e-06,0
-3.13108e-05,1.78679e-05,-8.62608e-06,-1.36486e-05,1.55725e-05,-1.05362e-05,2.6012e-05,-3.50482e-06,0
-3.19682e-05,1.95139e-05,-5.75307e-06,-9.76667e-06,1.89275e-05,-1.1158e-05,2.28918e-05,-3.2511e-07,0
-3.16366e-05,2.01829e-05,-4.72339e-06,-7.0257e-06,2.1581e-05,-1.27888e-05,1.98875e-05,1.46113e-06,0
-3.05553e-05,2.06958e-05,-6.33578e-06,-7.47633e-06,2.05097e-05,-1.52087e-05,1.6664e-05,2.81793e-06,0
-2.9787e-05,2.08687e-05,-8.18475e-06,-7.17408e-06,1.72565e-05,-1.7719e-05,1.26697e-05,3.73653e-06,0
-2.95167e-05,1.99665e-05,-9.61523e-06,-1.17195e-06,1.39741e-05,-1.9891e-05,9.79495e-06,2.36939e-06,0
-2.93855e-05,1.87981e-05,-9.90878e-06,9.18038e-06,1.00959e-05,-1.99537e-05,8.95638e-06,7.5681e-07,0
-2.98388e-05,1.76146e-05,-9.27916e-06,1.79809e-05,5.55836e-06,-1.85509e-05,8.15342e-06,1.13889e-06,0
-3.01327e-05,1.68585e-05,-8.36634e-06,2.08849e-05,2.82928e-06,-1.78384e-05,5.24739e-06,2.30785e-06,0
-3.07924e-05,1.5763e-05,-8.70967e-06,1.70279e-05,4.41006e-06,-1.81168e-05,2.22711e-06,2.43651e-06,0
-3.21783e-05,1.26104e-05,-1.02313e-05,9.85752e-06,7.63753e-06,-1.7254e-05,2.23033e-06,2.8412e-06,0
-3.38676e-05,8.23355e-06,-1.16062e-05,2.78737e-06,1.03355e-05,-1.54031e-05,5.04559e-06,4.28082e-06,0
-3.4314e-05,4.97936e-06,-1.25219e-05,-3.03612e-06,1.1676e-05,-1.47145e-05,8.14728e-06,5.9654e-06,0
-3.32281e-05,3.58773e-06,-1.32053e-05,-7.37443e-06,1.11811e-05,-1.63959e-05,1.01418e-05,6.88173e-06,0
-3.1932e-05,3.19252e-06,-1.38747e-05,-1.00217e-05,9.21723e-06,-1.78224e-05,1.21071e-05,6.93278e-06,0
-3.26951e-05,1.62876e-06,-1.37698e-05,-1.07549e-05,8.50508e-06,-1.62491e-05,1.6482e-05,7.19565e-06,0
-3.49972e-05,-8.62511e-07,-1.22722e-05,-1.05329e-05,9.10993e-06,-1.40193e-05,2.38347e-05,7.30543e-06,0
-3.63892e-05,-9.94246e-07,-1.02898e-05,-1.0155e-05,9.38752e-06,-1.3568e-05,3.00124e-05,6.49911e-06,0
-3.64525e-05,9.19667e-07,-9.00922e-06,-1.02992e-05,1.00054e-05,-1.39175e-05,3.03856e-05,5.98313e-06,0
-3.44849e-05,1.92645e-06,-8.39105e-06,-1.08818e-05,1.11021e-05,-1.43518e-05,2.63531e-05,7.18196e-06,0
-3.16404e-05,-1.10989e-06,-9.05413e-06,-1.10945e-05,1.15958e-05,-1.48975e-05,2.21535e-05,8.33981e-06,0
-3.15291e-05,-6.10073e-06,-1.03531e-05,-8.50297e-06,1.1457e-05,-1.59656e-05,1.93752e-05,8.2721e-06,0
-3.24674e-05,-9.81595e-06,-1.13865e-05,-6.75428e-06,9.6693e-06,-1.64358e-05,1.7622e-05,6.74047e-06,0
-3.18456e-05,-1.17094e-05,-1.05775e-05,-6.9344e-06,7.45689e-06,-1.52299e-05,1.62712e-05,4.84329e-06,0
-3.11399e-05,-1.16685e-05,-8.33064e-06,-6.80945e-06,7.55696e-06,-1.34484e-05,1.34323e-05,4.96863e-06,0
-3.19191e-05,-1.12509e-05,-6.91148e-06,-7.05021e-06,9.50194e-06,-1.12239e-05,9.96205e-06,5.59109e-06,0
-3.29924e-05,-9.6358e-06,-5.80664e-06,-5.38995e-06,9.6991e-06,-9.81603e-06,7.824e-06,5.58593e-06,0
-3.27301e-05,-7.54126e-06,-4.93337e-06,-2.21228e-06,8.83408e-06,-8.41077e-06,5.50511e-06,5.83492e-06,0
-3.14632e-05,-6.52826e-06,-5.53184e-06,-9.4651e-07,8.236e-06,-8.10815e-06,5.21159e-06,6.33293e-06,0
-3.06673e-05,-4.45516e-06,-7.45847e-06,-4.00185e-06,7.13005e-06,-9.85475e-06,7.77363e-06,6.98417e-06,0
-3.17278e-05,-1.42046e-06,-9.72267e-06,-8.88874e-06,6.09415e-06,-1.15432e-05,1.06284e-05,7.55986e-06,0
-3.28002e-05,1.43732e-06,-1.05353e-05,-1.13265e-05,4.95693e-06,-1.25887e-05,1.25488e-05,7.64244e-06,0
-3.26929e-05,4.46804e-06,-8.93797e-06,-1.07724e-05,5.263e-06,-1.35356e-05,1.30278e-05,7.12754e-06,0
-3.20651e-05,6.96517e-06,-6.95212e-06,-9.59538e-06,7.29331e-06,-1.51624e-05,1.17277e-05,7.21942e-06,0
-3.13953e-05,7.95845e-06,-5.61146e-06,-8.45884e-06,9.50764e-06,-1.61128e-05,9.69103e-06,8.95671e-06,0
-3.13861e-05,6.54294e-06,-3.74972e-06,-7.05589e-06,1.07276e-05,-1.49942e-05,9.40294e-06,1.04325e-05,0
-3.2465e-05,3.77122e-06,-2.19824e-06,-5.81406e-06,1.05138e-05,-1.24768e-05,1.03773e-05,1.00823e-05,0
-3.3426e-05,2.34052e-06,-3.48936e-06,-5.3986e-06,8.26824e-06,-1.05543e-05,1.02655e-05,8.17091e-06,0
-3.34238e-05,3.71005e-06,-8.32018e-06,-6.76566e-06,6.60093e-06,-9.15568e-06,8.80094e-06,5.8579e-06,0
-3.36037e-05,7.17972e-06,-1.45962e-05,-8.12131e-06,6.35902e-06,-9.12064e-06,7.2047e-06,5.07394e-06,0
-3.33307e-05,1.17374e-05,-1.88224e-05,-7.25623e-06,5.61308e-06,-1.06673e-05,6.53935e-06,4.52063e-06,0
-3.16277e-05,1.62822e-05,-1.85259e-05,-4.50747e-06,3.97853e-06,-1.22592e-05,6.57124e-06,2.36524e-06,0
-3.01482e-05,1.77973e-05,-1.40804e-05,-3.47808e-07,3.95924e-06,-1.3131e-05,5.62441e-06,2.72767e-07,0
-2.90927e-05,1.79474e-05,-8.55476e-06,4.30202e-06,6.76251e-06,-1.21705e-05,4.17322e-06,-4.65982e-08,0
-2.85256e-05,1.93912e-05,-4.40813e-06,7.00916e-06,1.07534e-05,-9.98114e-06,4.12909e-06,3.25084e-07,0
-2.85431e-05,1.99874e-05,-3.08762e-07,6.64461e-06,1.40204e-05,-9.38906e-06,5.14075e-06,4.93877e-08,0
-2.89358e-05,1.90019e-05,5.20169e-06,5.36501e-06,1.66503e-05,-1.03901e-05,5.80469e-06,-1.27251e-06,0
-2.89893e-05,1.77202e-05,1.19408e-05,4.02865e-06,1.71991e-05,-1.09521e-05,6.19023e-06,-3.80453e-06,0
-2.81485e-05,1.88486e-05,1.96631e-05,2.50022e-06,1.72621e-05,-9.75673e-06,6.72511e-06,-6.56795e-06,0
-2.7753e-05,2.18572e-05,3.06063e-05,1.32876e-06,1.98045e-05,-6.88865e-06,7.19665e-06,-7.83303e-06,0
-2.79197e-05,2.43956e-05,4.71128e-05,-1.19394e-08,2.14757e-05,-4.75659e-06,6.97044e-06,-8.66142e-06,0
-2.88485e-05,2.31327e-05,6.36699e-05,-2.31296e-06,2.10909e-05,-4.96718e-06,6.96551e-06,-1.06566e-05,0
-2.98109e-05,1.94985e-05,7.21176e-05,-3.67159e-06,1.85971e-05,-6.69492e-06,8.04795e-06,-1.26026e-05,0
-3.0453e-05,1.93727e-05,6.74135e-05,-5.3387e-06,1.71945e-05,-6.71607e-06,9.44507e-06,-1.2732e-05,0
-3.05641e-05,2.111e-05,4.47486e-05,-8.59275e-06,1.94071e-05,-6.04166e-06,1.09905e-05,-1.06928e-05,0
-2.97858e-05,2.16835e-05,6.49532e-06,-1.19255e-05,2.25662e-05,-4.33262e-06,1.32706e-05,-9.60279e-06,0
-2.88569e-05,2.02206e-05,-3.52027e-05,-1.38942e-05,2.34165e-05,-2.22592e-06,1.48352e-05,-9.51537e-06,0
-2.86665e-05,1.8159e-05,-6.86176e-05,-1.31134e-05,2.2247e-05,-1.56139e-06,1.41847e-05,-8.79494e-06,0
-2.89112e-05,1.60289e-05,-8.78412e-05,-1.14814e-05,2.04845e-05,-1.68725e-06,1.35685e-05,-7.63799e-06,0
-2.79773e-05,1.53624e-05,-9.1078e-05,-8.78815e-06,2.00987e-05,-1.99309e-06,1.47731e-05,-6.8594e-06,0
-2.65267e-05,1.64033e-05,-8.08027e-05,-7.66541e-06,2.07766e-05,-1.539e-06,1.65911e-05,-7.10015e-06,0
-2.56324e-05,1.66013e-05,-6.41566e-05,-1.10688e-05,1.99478e-05,-1.11e-06,1.85623e-05,-6.56428e-06,0
-2.56165e-05,1.54727e-05,-4.95826e-05,-1.75429e-05,1.9734e-05,-1.081e-06,2.05749e-05,-4.3096e-06,0
-2.65004e-05,1.43826e-05,-4.04628e-05,-2.31534e-05,2.28769e-05,-1.51615e-06,2.11703e-05,-1.5327e-06,0
-2.84897e-05,1.40839e-05,-3.44012e-05,-2.589e-05,2.83694e-05,-8.96044e-07,2.09787e-05,5.72333e-07,0
-3.0365e-05,1.4107e-05,-2.75777e-05,-2.643e-05,3.17652e-05,2.69561e-08,2.13354e-05,1.9149e-06,0
-3.06287e-05,1.38509e-05,-1.91815e-05,-2.47817e-05,3.01017e-05,1.01433e-07,2.15333e-05,1.37862e-06,0
-2.91447e-05,1.2883e-05,-1.21548e-05,-1.99814e-05,2.39302e-05,-7.92583e-07,2.07866e-05,-1.3249e-06,0
-2.7843e-05,1.18938e-05,-7.53069e-06,-1.2781e-05,1.80629e-05,-1.04958e-06,1.97484e-05,-5.73919e-06,0
-2.88424e-05,1.08915e-05,-6.48494e-06,-6.34337e-06,1.5075e-05,-1.22486e-07,1.95095e-05,-1.00752e-05,0
-3.07331e-05,1.07521e-05,-8.30736e-06,-1.4531e-06,1.33891e-05,-9.45401e-08,1.92959e-05,-1.11965e-05,0
-3.1349e-05,1.21068e-05,-1.06426e-05,2.77944e-06,1.34839e-05,-6.55295e-07,1.80201e-05,-8.33753e-06,0
-2.96349e-05,1.41541e-05,-1.1124e-05,5.45626e-06,1.39848e-05,-2.17386e-06,1.7162e-05,-5.59369e-06,0
-2.77935e-05,1.35449e-05,-9.37646e-06,3.41729e-06,1.2386e-05,-4.1543e-06,1.6681e-05,-6.45004e-06,0
-2.76173e-05,1.22372e-05,-7.53004e-06,-3.12244e-06,1.14486e-05,-5.02955e-06,1.61672e-05,-7.8471e-06,0
-2.72487e-05,1.29365e-05,-7.29862e-06,-1.05018e-05,1.28419e-05,-5.04283e-06,1.59655e-05,-6.23743e-06,0
-2.56817e-05,1.32762e-05,-7.84601e-06,-1.65713e-05,1.41592e-05,-5.73551e-06,1.56956e-05,-3.00949e-06,0
-2.63017e-05,1.22997e-05,-6.68226e-06,-2.07913e-05,1.40397e-05,-6.77856e-06,1.60474e-05,-2.42045e-06,0
-2.89751e-05,1.09141e-05,-5.09385e-06,-2.11106e-05,1.26437e-05,-5.82764e-06,1.56982e-05,-4.85108e-06,0
-3.04148e-05,1.10795e-05,-2.30408e-06,-1.70587e-05,1.1146e-05,-5.5029e-06,1.42748e-05,-7.01396e-06,0
-3.03337e-05,1.13946e-05,1.43535e-06,-1.17779e-05,9.88328e-06,-7.30692e-06,1.40429e-05,-6.97217e-06,0
-2.9697e-05,1.04041e-05,3.52833e-06,-8.42726e-06,1.09104e-05,-9.95717e-06,1.38214e-05,-5.50346e-06,0
-2.90159e-05,8.97836e-06,2.93276e-06,-8.083e-06,1.27719e-05,-1.11403e-05,1.26435e-05,-3.93347e-06,0
-2.78794e-05,8.17679e-06,1.34822e-06,-8.18189e-06,1.27773e-05,-1.2408e-05,1.15501e-05,-3.06188e-06,0
-2.70447e-05,9.22845e-06,6.0753e-07,-6.44559e-06,1.24443e-05,-1.44322e-05,1.26971e-05,-3.28783e-06,0
-2.74343e-05,1.15355e-05,1.76088e-07,-4.22986e-06,1.20199e-05,-1.48777e-05,1.56832e-05,-4.27679e-06,0
-2.90106e-05,1.42175e-05,-2.12904e-07,-1.16905e-06,1.0325e-05,-1.44871e-05,1.72474e-05,-5.70041e-06,0
-3.03206e-05,1.57589e-05,-2.95154e-07,2.00898e-06,8.05401e-06,-1.36148e-05,1.66682e-05,-4.98799e-06,0
-3.12144e-05,1.5e-05,-2.67957e-07,4.7701e-06,7.23229e-06,-1.35665e-05,1.45244e-05,-1.54573e-06,0
-3.1392e-05,1.33368e-05,-4.00814e-07,1.1289e-05,7.42906e-06,-1.45209e-05,1.18046e-05,1.15736e-06,0
-3.09175e-05,1.3079e-05,-5.79933e-07,2.12819e-05,8.67336e-06,-1.60118e-05,9.69402e-06,1.30411e-06,0
-3.07525e-05,1.47711e-05,-1.83319e-06,2.68226e-05,1.10683e-05,-1.62001e-05,9.0795e-06,2.99679e-07,0
-3.12289e-05,1.63162e-05,-3.4651e-06,2.3838e-05,1.2744e-05,-1.58794e-05,9.01092e-06,7.11401e-07,0
-3.16952e-05,1.58777e-05,-5.21519e-06,1.51879e-05,1.22672e-05,-1.59135e-05,8.70729e-06,3.51486e-06,0
-3.20403e-05,1.39366e-05,-6.69068e-06,6.39646e-06,1.11622e-05,-1.68302e-05,7.57584e-06,6.52314e-06,0
-3.25756e-05,1.30339e-05,-7.19455e-06,1.75981e-06,1.05949e-05,-1.71026e-05,5.57882e-06,6.90566e-06,0
-3.33544e-05,1.32536e-05,-5.59441e-06,1.22027e-06,1.04699e-05,-1.64578e-05,3.8221e-06,4.98351e-06,0
-3.42921e-05,1.51469e-05,-2.55879e-06,4.56482e-06,1.11083e-05,-1.76131e-05,3.89841e-06,3.66015e-06,0
-3.46881e-05,1.77713e-05,-2.22459e-06,9.57176e-06,1.22701e-05,-1.95024e-05,5.40324e-06,3.9216e-06,0
-3.50856e-05,1.8858e-05,-5.12828e-06,1.16617e-05,1.41774e-05,-1.99008e-05,5.94508e-06,4.56002e-06,0
-3.52168e-05,1.87756e-05,-8.60195e-06,4.00305e-06,1.72377e-05,-1.87711e-05,3.63459e-06,5.21757e-06,0
-3.46116e-05,1.93122e-05,-1.0978e-05,-1.25296e-05,1.84631e-05,-1.74682e-05,2.17146e-06,3.61873e-06,0
-3.327e-05,2.06131e-05,-1.22602e-05,-2.58719e-05,1.53555e-05,-1.6431e-05,3.91192e-06,1.77426e-06,0
-3.15365e-05,2.03674e-05,-1.23444e-05,-3.08993e-05,1.06212e-05,-1.72089e-05,6.84615e-06,3.53518e-06,0
-3.05418e-05,2.07535e-05,-1.13824e-05,-2.70743e-05,9.04161e-06,-1.85046e-05,1.07081e-05,6.66034e-06,0
-3.21771e-05,2.19677e-05,-1.0672e-05,-1.83255e-05,1.07632e-05,-1.92606e-05,1.32866e-05,5.94659e-06,0
-3.28441e-05,2.27798e-05,-9.73652e-06,-1.28966e-05,1.05294e-05,-2.00683e-05,1.35865e-05,1.54496e-06,0
-3.17984e-05,2.26258e-05,-8.5162e-06,-1.11036e-05,9.85314e-06,-2.01004e-05,1.20421e-05,-2.26356e-06,0
-3.13325e-05,2.15725e-05,-7.47496e-06,-1.05179e-05,1.08556e-05,-2.00687e-05,1.05056e-05,-4.11475e-06,0
-2.95156e-05,1.90636e-05,-6.62129e-06,-1.03237e-05,1.05963e-05,-2.03223e-05,9.96288e-06,-4.14036e-06,0
-2.7641e-05,1.60126e-05,-7.45018e-06,-9.71024e-06,7.95617e-06,-2.08447e-05,1.14678e-05,-3.1844e-06,0
-2.75842e-05,1.37994e-05,-9.5339e-06,-8.89192e-06,4.53589e-06,-1.95215e-05,1.43569e-05,-9.22729e-07,0
-2.89024e-05,1.18597e-05,-1.14595e-05,-8.336e-06,3.1605e-06,-1.70024e-05,1.59291e-05,1.64462e-06,0
-2.95526e-05,1.23544e-05,-1.215e-05,-7.06207e-06,4.93403e-06,-1.59172e-05,1.52606e-05,3.3703e-06,0
-2.90612e-05,1.34593e-05,-1.21835e-05,-4.88178e-06,8.4317e-06,-1.46863e-05,1.37993e-05,3.59818e-06,0
-2.82379e-05,1.34729e-05,-1.17343e-05,-3.00592e-06,1.13187e-05,-1.21627e-05,1.36799e-05,2.65287e-06,0
-2.76638e-05,1.15123e-05,-1.08201e-05,-1.87996e-06,1.17144e-05,-1.03107e-05,1.56764e-05,1.28547e-06,0
-2.73645e-05,8.34494e-06,-1.02178e-05,-1.1541e-06,9.52653e-06,-1.07922e-05,1.84923e-05,8.60364e-07,0
-2.69261e-05,5.3515e-06,-1.01892e-05,1.36533e-07,5.78336e-06,-1.20904e-05,1.7885e-05,2.03565e-06,0
-2.67701e-05,3.27203e-06,-1.09609e-05,2.4395e-06,1.33207e-06,-1.29624e-05,1.06377e-05,2.32746e-06,0
-2.81057e-05,2.03697e-06,-1.28987e-05,5.50257e-06,-2.42845e-06,-1.17469e-05,-1.17996e-06,1.70156e-06,0
-3.08431e-05,1.18066e-06,-1.64197e-05,7.20357e-06,-4.26237e-06,-9.24265e-06,-1.04112e-05,2.43539e-06,0
-3.25704e-05,8.02165e-07,-2.01596e-05,4.92947e-06,-3.54273e-06,-8.20524e-06,-1.28645e-05,4.26751e-06,0
-3.21071e-05,-2.96776e-07,-2.27152e-05,1.09989e-06,-1.68574e-07,-8.6287e-06,-7.25247e-06,5.47613e-06,0
-3.24357e-05,-1.25098e-06,-2.31032e-05,-1.18573e-06,4.04502e-06,-1.0222e-05,3.75069e-06,5.48673e-06,0
-3.32996e-05,-5.48923e-07,-2.15341e-05,-1.39863e-06,4.51393e-06,-1.27507e-05,1.61157e-05,4.54374e-06,0
-3.14005e-05,1.03043e-06,-1.75745e-05,-2.57037e-07,2.60488e-06,-1.33683e-05,2.68543e-05,4.9661e-06,0
-3.07713e-05,2.65167e-06,-1.26287e-05,-3.66559e-07,2.44533e-06,-1.12558e-05,3.3435e-05,7.03033e-06,0
-3.37741e-05,3.54805e-06,-1.08914e-05,-8.78128e-07,5.4723e-06,-1.02423e-05,3.57309e-05,7.37288e-06,0
-3.48848e-05,3.73164e-06,-1.11032e-05,-2.89984e-07,9.57573e-06,-1.30789e-05,3.54534e-05,7.09084e-06,0
-3.28939e-05,5.76321e-06,-1.04373e-05,-1.33309e-06,1.18951e-05,-1.6385e-05,3.49194e-05,7.80449e-06,0
-3.07386e-05,7.40927e-06,-7.96025e-06,-3.23677e-06,1.39749e-05,-1.77518e-05,3.35196e-05,7.88528e-06,0
-3.01089e-05,7.2786e-06,-5.33829e-06,-2.8471e-06,1.52981e-05,-1.62046e-05,3.1161e-05,8.55755e-06,0
-3.12516e-05,7.2255e-06,-4.5651e-06,-1.90234e-06,1.37245e-05,-1.24636e-05,2.72734e-05,1.05799e-05,0
-3.2785e-05,9.44231e-06,-4.62203e-06,-1.98914e-06,1.22495e-05,-9.3314e-06,2.17859e-05,1.29458e-05,0
-3.40428e-05,1.45989e-05,-5.31386e-06,-2.87822e-06,1.4509e-05,-7.81944e-06,1.54239e-05,1.43028e-05,0
-3.46847e-05,1.94502e-05,-5.16647e-06,-3.40007e-06,1.6741e-05,-8.60787e-06,9.36718e-06,1.38672e-05,0
-3.44967e-05,2.26648e-05,-3.72317e-06,-2.71896e-06,1.83244e-05,-9.32284e-06,6.1505e-06,1.17554e-05,0
-3.42067e-05,2.44254e-05,-2.57764e-06,-1.29115e-06,1.82939e-05,-8.26488e-06,5.43994e-06,9.47398e-06,0
-3.48107e-05,2.59127e-05,-3.05919e-06,-4.63095e-07,1.58483e-05,-5.73212e-06,6.00551e-06,8.49553e-06,0
-3.51659e-05,2.85933e-05,-3.90655e-06,-2.39026e-06,1.36239e-05,-3.50386e-06,7.10576e-06,8.45162e-06,0
-3.44289e-05,3.11218e-05,-4.57644e-06,-5.62443e-06,1.2285e-05,-2.52717e-06,8.6673e-06,8.56986e-06,0
-3.33218e-05,3.19725e-05,-5.6228e-06,-7.20794e-06,1.16068e-05,-3.23483e-06,9.56079e-06,7.822e-06,0
-3.3206e-05,3.26466e-05,-7.00162e-06,-6.27995e-06,1.07331e-05,-4.58184e-06,7.73429e-06,5.7393e-06,0
-3.34204e-05,3.38866e-05,-8.73999e-06,-3.33302e-06,1.01376e-05,-4.34183e-06,3.40552e-06,3.82165e-06,0
-3.30914e-05,3.31173e-05,-9.51238e-06,9.44619e-08,9.25075e-06,-3.25046e-06,-6.66107e-07,3.85951e-06,0
-3.30496e-05,2.96062e-05,-8.86789e-06,1.68598e-06,8.87204e-06,-3.57031e-06,-1.78915e-06,4.9936e-06,0
-3.31824e-05,2.60358e-05,-7.81005e-06,-1.27992e-07,8.88691e-06,-4.02253e-06,-1.44299e-06,5.73262e-06,0
-3.33636e-05,2.48965e-05,-7.38477e-06,-3.84739e-06,7.797e-06,-2.98297e-06,-1.88942e-06,5.71399e-06,0
-3.26369e-05,2.56845e-05,-7.05847e-06,-6.47014e-06,6.58008e-06,-1.59094e-06,-1.95589e-06,4.93379e-06,0
-3.12219e-05,2.56914e-05,-6.18005e-06,-7.73575e-06,7.86866e-06,-2.26014e-07,5.75685e-07,3.51493e-06,0
-3.06139e-05,2.47077e-05,-4.79251e-06,-1.22446e-05,1.13569e-05,1.10359e-06,6.08279e-06,1.64658e-06,0
-3.10055e-05,2.46826e-05,-3.2337e-06,-1.99555e-05,1.3559e-05,1.93726e-06,1.09079e-05,4.51501e-07,0
-3.16816e-05,2.52667e-05,-1.0693e-06,-2.23997e-05,1.27405e-05,1.0349e-06,1.25562e-05,2.43502e-07,0
-3.21714e-05,2.54044e-05,-1.04664e-07,-1.77191e-05,1.05447e-05,-6.8558e-07,1.20702e-05,6.58365e-07,0
-3.04254e-05,2.37235e-05,-2.19112e-07,-1.09465e-05,9.21188e-06,-1.88433e-06,1.15303e-05,5.83443e-07,0
-2.82635e-05,2.15669e-05,-2.27821e-06,-7.20492e-06,8.13367e-06,-3.21536e-06,1.23931e-05,-1.10108e-06,0
-2.7165e-05,2.05356e-05,-4.74235e-06,-9.77527e-06,6.05619e-06,-4.87659e-06,1.31595e-05,-1.78949e-06,0
-2.59015e-05,1.86076e-05,-4.07595e-06,-1.41658e-05,6.21371e-06,-5.74959e-06,1.28011e-05,-2.17643e-06,0
-2.71384e-05,1.51127e-05,-3.15748e-06,-1.46489e-05,8.15104e-06,-5.65298e-06,1.10701e-05,-2.53554e-06,0
-2.952e-05,1.09541e-05,-1.73958e-06,-1.3388e-05,9.31246e-06,-5.29807e-06,9.4216e-06,-2.35933e-06,0
-3.04685e-05,7.99492e-06,-7.77636e-07,-1.06663e-05,1.04097e-05,-5.80627e-06,9.98165e-06,-3.80254e-06,0
-2.92681e-05,6.71148e-06,-8.17676e-07,-6.13278e-06,1.26878e-05,-6.56659e-06,1.25863e-05,-6.15778e-06,0
-2.78332e-05,6.35816e-06,-9.84098e-07,-1.93388e-06,1.44202e-05,-7.23187e-06,1.4485e-05,-7.17701e-06,0
-2.69484e-05,6.82224e-06,-1.04989e-06,-1.10331e-06,1.43504e-05,-8.46926e-06,1.20586e-05,-6.07033e-06,0
-2.76055e-05,8.52554e-06,-1.11425e-06,-5.06422e-06,1.43276e-05,-9.53796e-06,5.58497e-06,-5.09061e-06,0
-2.99343e-05,1.06845e-05,-2.5464e-06,-9.98644e-06,1.33806e-05,-1.00914e-05,-3.70188e-08,-5.44574e-06,0
-3.15532e-05,1.12854e-05,-4.78826e-06,-1.31806e-05,1.19675e-05,-9.98702e-06,-9.78205e-07,-5.20725e-06,0
-3.28308e-05,1.09262e-05,-7.10059e-06,-1.28474e-05,1.09603e-05,-9.38569e-06,1.84034e-06,-3.62118e-06,0
-3.31604e-05,1.17494e-05,-8.79074e-06,-9.81486e-06,1.09734e-05,-8.22548e-06,6.39959e-06,-1.44721e-06,0
-3.24649e-05,1.37924e-05,-1.05406e-05,-6.52497e-06,1.31315e-05,-7.67314e-06,1.1606e-05,2.57291e-08,0
-3.11554e-05,1.51846e-05,-1.24027e-05,-5.41901e-06,1.73224e-05,-7.86883e-06,1.65941e-05,-4.27301e-07,0
-3.02621e-05,1.50288e-05,-1.38415e-05,-5.91856e-06,2.02788e-05,-8.03863e-06,2.03552e-05,-2.1834e-06,0
-2.95996e-05,1.36834e-05,-1.42408e-05,-6.13772e-06,2.12638e-05,-8.50972e-06,2.2408e-05,-3.5403e-06,0
-3.03209e-05,1.22084e-05,-1.37096e-05,-5.51304e-06,2.10083e-05,-8.93234e-06,2.28954e-05,-3.16544e-06,0
-3.20164e-05,1.09383e-05,-1.18315e-05,-3.45412e-06,1.91579e-05,-8.39117e-06,2.2202e-05,-8.1491e-07,0
-3.29275e-05,8.85738e-06,-8.6114e-06,-7.66485e-08,1.63023e-05,-7.30476e-06,2.06134e-05,2.46351e-06,0
-3.25984e-05,6.75776e-06,-5.65562e-06,1.64154e-06,1.46676e-05,-7.23014e-06,1.94121e-05,5.21484e-06,0
-3.17799e-05,6.86502e-06,-4.50503e-06,9.75568e-07,1.5348e-05,-7.78884e-06,1.99038e-05,7.15846e-06,0
-3.0755e-05,8.58918e-06,-4.92433e-06,1.59769e-06,1.69785e-05,-7.33204e-06,2.03855e-05,7.50849e-06,0
-2.85989e-05,8.69505e-06,-5.71678e-06,3.08169e-06,2.0061e-05,-6.82532e-06,1.89136e-05,6.54321e-06,0
-2.66762e-05,8.44986e-06,-6.4101e-06,1.91251e-06,2.23156e-05,-6.92744e-06,1.78581e-05,4.74606e-06,0
-2.57352e-05,7.85963e-06,-6.75099e-06,-3.02411e-06,2.273e-05,-7.50403e-06,1.8301e-05,2.77603e-06,0
-2.61743e-05,8.48513e-06,-8.10303e-06,-6.86778e-06,2.31357e-05,-7.98882e-06,1.81574e-05,2.00758e-06,0
-2.71742e-05,1.099e-05,-8.39752e-06,-7.01466e-06,2.35307e-05,-7.19404e-06,1.75036e-05,2.29395e-06,0
-2.73994e-05,1.06418e-05,-8.33501e-06,-6.80872e-06,2.39478e-05,-6.43764e-06,1.63983e-05,1.89801e-06,0
-2.79946e-05,9.88389e-06,-9.3597e-06,-7.83305e-06,2.41149e-05,-5.60018e-06,1.50487e-05,7.04748e-07,0
-2.81613e-05,1.02803e-05,-9.55222e-06,-9.35497e-06,2.20518e-05,-5.01517e-06,1.46332e-05,1.6711e-06,0
-2.74338e-05,1.22357e-05,-9.88106e-06,-9.97622e-06,1.82364e-05,-4.96714e-06,1.51405e-05,6.4572e-06,0
-2.80961e-05,1.49428e-05,-1.01927e-05,-7.82546e-06,1.63223e-05,-4.17526e-06,1.50686e-05,1.15641e-05,0
-2.85481e-05,1.67777e-05,-9.40519e-06,-4.69988e-06,1.59474e-05,-2.63254e-06,1.50159e-05,1.21994e-05,0
-2.80881e-05,1.69087e-05,-8.59848e-06,-1.71129e-06,1.63651e-05,-1.83446e-06,1.53889e-05,9.25737e-06,0
-2.76919e-05,1.58797e-05,-9.72085e-06,1.21483e-06,1.68231e-05,-2.08863e-06,1.46249e-05,7.36731e-06,0
-2.79955e-05,1.55896e-05,-1.16812e-05,2.01698e-06,1.67478e-05,-3.19972e-06,1.32842e-05,7.08425e-06,0
-2.83748e-05,1.61053e-05,-1.25076e-05,1.41476e-06,1.70326e-05,-4.6755e-06,1.3843e-05,5.80061e-06,0
-2.83555e-05,1.80567e-05,-1.19734e-05,2.05543e-06,1.79737e-05,-6.03358e-06,1.48914e-05,3.82011e-06,0
-2.78934e-05,1.95864e-05,-1.15046e-05,4.29375e-06,1.95488e-05,-7.85293e-06,1.38361e-05,2.72569e-06,0
-2.63917e-05,2.00069e-05,-1.24375e-05,5.03009e-06,2.09986e-05,-1.01318e-05,1.25424e-05,2.98274e-06,0
-2.51833e-05,1.99511e-05,-1.39971e-05,3.39729e-06,2.34252e-05,-1.11668e-05,1.28766e-05,3.97873e-06,0
-2.59001e-05,1.95784e-05,-1.47398e-05,1.35395e-06,2.5387e-05,-9.78047e-06,1.33835e-05,4.19603e-06,0
-2.78326e-05,1.784e-05,-1.3571e-05,2.47335e-07,2.42296e-05,-8.1024e-06,1.25724e-05,2.94177e-06,0
-2.86643e-05,1.48696e-05,-1.18496e-05,1.14839e-07,2.19871e-05,-7.39025e-06,1.25207e-05,2.1127e-06,0
-2.84634e-05,1.15547e-05,-1.14932e-05,-6.00233e-07,2.13213e-05,-7.23101e-06,1.28822e-05,3.13539e-06,0
-2.80188e-05,8.75322e-06,-1.24368e-05,-1.86589e-06,1.99595e-05,-6.48881e-06,1.31319e-05,5.00517e-06,0
-2.7747e-05,7.80772e-06,-1.24262e-05,-3.07896e-06,1.84956e-05,-5.44669e-06,1.40966e-05,4.42347e-06,0
-2.80356e-05,8.51319e-06,-1.04346e-05,-3.56657e-06,1.86606e-05,-4.40702e-06,1.59013e-05,2.15019e-08,0
-2.87391e-05,9.26415e-06,-9.79744e-06,-3.10514e-06,1.91256e-05,-3.49406e-06,2.06395e-05,-4.02212e-06,0
-3.00133e-05,9.79793e-06,-1.04357e-05,-2.05933e-06,1.7957e-05,-2.65399e-06,2.57282e-05,-4.04493e-06,0
-3.05095e-05,9.17062e-06,-9.97435e-06,-1.95463e-06,1.38038e-05,-2.95659e-06,2.83016e-05,-2.88807e-06,0
-2.93592e-05,5.38479e-06,-9.84473e-06,-1.56597e-06,1.07162e-05,-3.89845e-06,2.75354e-05,-4.93384e-06,0
-2.98806e-05,8.86134e-07,-9.19092e-06,-2.7784e-07,1.1567e-05,-2.79956e-06,2.33843e-05,-7.69321e-06,0
-3.16227e-05,-2.87476e-06,-7.39793e-06,-1.52025e-06,1.2589e-05,-2.01933e-06,1.9229e-05,-7.3986e-06,0
-3.11083e-05,-5.43807e-06,-7.20268e-06,-2.89039e-06,1.25151e-05,-2.65088e-06,1.52386e-05,-6.20479e-06,0
-2.96843e-05,-5.91016e-06,-8.26312e-06,-2.54941e-06,1.33144e-05,-6.11983e-06,1.02803e-05,-6.26064e-06,0
-2.85161e-05,-5.63092e-06,-8.37177e-06,-2.08736e-06,1.23638e-05,-1.14111e-05,5.68218e-06,-6.64173e-06,0
-2.74337e-05,-6.35108e-06,-8.07955e-06,-1.6331e-06,8.96691e-06,-1.48248e-05,2.85824e-06,-5.87444e-06,0
-2.8457e-05,-7.44172e-06,-9.04188e-06,-8.91401e-07,7.7366e-06,-1.54902e-05,8.70168e-07,-4.84184e-06,0
-2.99299e-05,-7.43076e-06,-8.06976e-06,-2.69805e-06,1.06241e-05,-1.44352e-05,8.79531e-07,-4.2455e-06,0
-2.93022e-05,-5.31532e-06,-3.3656e-06,-5.42921e-06,1.37936e-05,-1.44274e-05,2.68778e-06,-5.14576e-06,0
-2.81289e-05,-1.50043e-06,4.00171e-07,-5.68049e-06,1.37055e-05,-1.39876e-05,5.16299e-06,-6.34077e-06,0
-2.86695e-05,1.02918e-06,6.10493e-07,-5.1481e-06,1.16607e-05,-1.36821e-05,7.72767e-06,-6.04451e-06,0
-3.0526e-05,1.75063e-06,-1.8543e-06,-6.15251e-06,1.01596e-05,-1.38384e-05,9.09057e-06,-5.51242e-06,0
-3.16259e-05,1.58489e-06,-4.24909e-06,-7.57018e-06,1.00987e-05,-1.29933e-05,8.61914e-06,-5.33044e-06,0
-3.15759e-05,7.00018e-07,-5.00945e-06,-7.65449e-06,1.13566e-05,-1.08147e-05,7.18375e-06,-5.5917e-06,0
-3.04323e-05,-4.57734e-07,-5.0671e-06,-8.56597e-06,1.21828e-05,-9.01604e-06,6.87258e-06,-5.821e-06,0
-2.99179e-05,-6.07929e-07,-6.38418e-06,-9.94447e-06,1.15974e-05,-8.5969e-06,7.75403e-06,-5.31389e-06,0
-3.06095e-05,1.41657e-06,-8.59538e-06,-1.03316e-05,1.06342e-05,-8.06638e-06,8.42237e-06,-3.49051e-06,0
-3.13471e-05,3.71938e-06,-9.96582e-06,-9.80898e-06,1.13636e-05,-6.92369e-06,6.70651e-06,-2.11571e-06,0
-3.09982e-05,3.4819e-06,-1.05205e-05,-9.32259e-06,1.39643e-05,-6.38965e-06,4.65585e-06,-1.42911e-06,0
-2.9421e-05,1.46544e-06,-1.05478e-05,-7.90334e-06,1.72833e-05,-6.97287e-06,4.5505e-06,-4.07665e-07,0
-2.88197e-05,6.05906e-07,-9.13935e-06,-5.99918e-06,1.92402e-05,-7.15403e-06,5.46504e-06,7.09053e-07,0
-2.97557e-05,1.33308e-06,-7.02721e-06,-5.64469e-06,1.71925e-05,-7.39063e-06,7.11385e-06,1.22758e-06,0
-2.95748e-05,3.10478e-06,-6.39593e-06,-7.22833e-06,1.39924e-05,-8.10759e-06,1.04835e-05,1.77457e-06,0
-2.72116e-05,4.53878e-06,-7.52965e-06,-8.96215e-06,1.38547e-05,-8.86569e-06,1.3114e-05,1.87723e-06,0
-2.50873e-05,5.12399e-06,-8.91457e-06,-9.73604e-06,1.57792e-05,-7.88296e-06,1.3078e-05,1.37193e-06,0
-2.54885e-05,7.17906e-06,-8.06739e-06,-9.19518e-06,1.71761e-05,-6.90205e-06,1.25315e-05,1.32164e-06,0
-2.74181e-05,1.0223e-05,-6.1605e-06,-7.76718e-06,1.75083e-05,-7.65947e-06,1.34182e-05,2.27827e-06,0
-2.8095e-05,1.26472e-05,-5.47067e-06,-7.69579e-06,1.82978e-05,-7.77762e-06,1.47202e-05,4.18777e-06,0
-2.88095e-05,1.33852e-05,-5.12504e-06,-1.11696e-05,1.91723e-05,-8.01381e-06,1.56177e-05,4.90283e-06,0
-2.97378e-05,1.33791e-05,-5.20967e-06,-1.55615e-05,1.81263e-05,-1.03383e-05,1.52384e-05,5.85372e-06,0
-3.00676e-05,1.41586e-05,-6.80659e-06,-1.59889e-05,1.69322e-05,-1.3131e-05,1.37024e-05,7.57493e-06,0
-3.13484e-05,1.45597e-05,-6.93528e-06,-1.35514e-05,1.63738e-05,-1.57674e-05,1.3003e-05,8.29829e-06,0
-3.10335e-05,1.43135e-05,-5.62251e-06,-1.20682e-05,1.64754e-05,-1.72061e-05,1.34367e-05,9.82948e-06,0
-2.91997e-05,1.40437e-05,-5.29388e-06,-1.48561e-05,1.62673e-05,-1.76435e-05,1.29493e-05,1.14344e-05,0
-2.82543e-05,1.56104e-05,-5.57575e-06,-2.0801e-05,1.4694e-05,-1.79891e-05,1.12239e-05,1.24522e-05,0
-2.88015e-05,1.66645e-05,-5.86697e-06,-2.44518e-05,1.19335e-05,-1.80463e-05,1.12933e-05,1.28056e-05,0
-3.05455e-05,1.62448e-05,-7.92778e-06,-2.40737e-05,1.01639e-05,-1.67356e-05,1.27364e-05,1.13998e-05,0
-3.24743e-05,1.7352e-05,-1.1677e-05,-2.22667e-05,1.07544e-05,-1.4431e-05,1.34584e-05,8.81377e-06,0
-3.28511e-05,1.9918e-05,-1.53064e-05,-1.93625e-05,1.02071e-05,-1.35614e-05,1.02738e-05,6.10967e-06,0
-3.1794e-05,2.23199e-05,-1.76217e-05,-1.33316e-05,8.17207e-06,-1.43667e-05,-1.44886e-07,4.71181e-06,0
-3.17737e-05,2.51486e-05,-1.74903e-05,-2.1426e-06,7.24245e-06,-1.45555e-05,-1.40422e-05,4.15922e-06,0
-3.27267e-05,2.80733e-05,-1.4927e-05,1.34781e-05,8.63132e-06,-1.30394e-05,-2.03917e-05,3.45215e-06,0
-3.37134e-05,2.90218e-05,-1.05275e-05,2.96701e-05,1.06622e-05,-1.15962e-05,-1.51406e-05,1.84595e-06,0
-3.4048e-05,2.96482e-05,-7.49132e-06,3.96737e-05,1.23794e-05,-1.16665e-05,-4.07574e-06,-4.01511e-07,0
-3.35682e-05,3.13225e-05,-7.1546e-06,3.82399e-05,1.39857e-05,-1.33082e-05,7.20594e-06,-2.1327e-06,0
-3.16385e-05,3.23718e-05,-9.00117e-06,2.77319e-05,1.46795e-05,-1.41468e-05,1.71039e-05,-1.368e-06,0
-3.00885e-05,3.19017e-05,-1.19742e-05,1.49177e-05,1.29309e-05,-1.37032e-05,2.52691e-05,8.56637e-07,0
-3.0726e-05,3.12666e-05,-1.26733e-05,5.35065e-06,1.00168e-05,-1.22775e-05,2.93149e-05,8.96604e-07,0
-3.17331e-05,3.07478e-05,-1.14399e-05,1.16622e-06,7.92758e-06,-1.16435e-05,2.9346e-05,-1.43888e-06,0
-3.17733e-05,3.01236e-05,-1.08296e-05,-1.04662e-07,7.65258e-06,-1.22377e-05,2.89279e-05,-2.86279e-06,0
-3.08168e-05,2.93659e-05,-8.59046e-06,-2.34003e-07,7.29659e-06,-1.28851e-05,3.05992e-05,-2.82428e-06,0
-2.94476e-05,2.93734e-05,-5.24821e-06,-2.59427e-07,4.7734e-06,-1.29581e-05,3.39331e-05,-2.58021e-06,0
-2.95819e-05,3.03373e-05,2.12471e-07,-3.54361e-06,3.78645e-06,-1.2622e-05,3.47705e-05,-8.26547e-07,0
-3.08687e-05,3.12368e-05,1.08676e-05,-9.32147e-06,4.84314e-06,-1.1906e-05,3.08642e-05,1.33344e-06,0
-3.11468e-05,3.10658e-05,2.88951e-05,-1.26189e-05,6.66377e-06,-9.37427e-06,2.63938e-05,8.24698e-07,0
-2.92806e-05,3.10426e-05,4.94245e-05,-1.24707e-05,7.45729e-06,-7.46181e-06,2.53438e-05,-1.62681e-06,0
-2.73268e-05,3.02554e-05,6.44671e-05,-8.08259e-06,6.70948e-06,-8.39455e-06,2.58744e-05,-1.63356e-06,0
-2.7139e-05,2.97362e-05,6.78582e-05,1.03727e-06,7.42686e-06,-1.07012e-05,2.51354e-05,1.49087e-06,0
-2.79452e-05,3.10594e-05,5.48358e-05,1.01605e-05,9.18388e-06,-1.26078e-05,2.31743e-05,2.88545e-06,0
-2.92579e-05,3.12769e-05,2.73935e-05,1.70425e-05,1.02798e-05,-1.33009e-05,2.17063e-05,9.2955e-07,0
-3.14589e-05,2.90832e-05,-1.14191e-05,1.95789e-05,1.13654e-05,-1.39364e-05,1.87144e-05,-1.04184e-06,0
-3.41414e-05,2.55545e-05,-5.09572e-05,1.3419e-05,1.2514e-05,-1.36405e-05,1.42817e-05,-1.49884e-06,0
-3.53227e-05,2.36305e-05,-7.992e-05,-6.97864e-07,1.30953e-05,-1.24443e-05,1.15775e-05,-1.68809e-06,0
-3.50393e-05,2.26841e-05,-9.26314e-05,-1.89707e-05,1.3107e-05,-1.14321e-05,1.0507e-05,-1.53037e-06,0
-3.35459e-05,2.06837e-05,-8.99787e-05,-3.7989e-05,1.29901e-05,-1.14319e-05,1.10804e-05,-1.61274e-06,0
-3.2012e-05,1.79362e-05,-7.72509e-05,-5.13575e-05,1.30988e-05,-1.18772e-05,1.14754e-05,-2.76464e-06,0
-3.08329e-05,1.50624e-05,-6.18679e-05,-5.21837e-05,1.36813e-05,-1.05346e-05,1.13739e-05,-3.23284e-06,0
-3.01041e-05,1.19881e-05,-4.98033e-05,-3.94604e-05,1.53554e-05,-7.80138e-06,1.14772e-05,-2.52966e-06,0
-3.01067e-05,9.25723e-06,-4.08507e-05,-2.14281e-05,1.61249e-05,-5.44171e-06,1.27869e-05,-1.46038e-06,0
-3.06567e-05,7.30802e-06,-3.26332e-05,-8.1529e-06,1.37008e-05,-4.94627e-06,1.51007e-05,-1.68948e-07,0
-3.08791e-05,5.63168e-06,-2.46994e-05,-2.47697e-06,1.06294e-05,-5.85512e-06,1.59843e-05,1.19529e-06,0
-3.00143e-05,3.50097e-06,-1.9352e-05,-1.0844e-06,1.15484e-05,-6.70237e-06,1.36649e-05,1.09942e-06,0
-2.88201e-05,1.7762e-06,-1.62555e-05,-2.12029e-06,1.58124e-05,-6.43102e-06,1.00198e-05,-4.52248e-07,0
-2.90285e-05,1.00092e-06,-1.41503e-05,-7.27089e-06,1.91286e-05,-5.76449e-06,7.48061e-06,-1.43904e-06,0
-3.09983e-05,5.51301e-07,-1.28682e-05,-1.62278e-05,1.97573e-05,-4.15618e-06,6.05405e-06,-9.19766e-07,0
-3.17903e-05,1.90421e-06,-1.21795e-05,-2.28582e-05,1.80893e-05,-2.78501e-06,7.62617e-06,5.90524e-07,0
-3.07857e-05,3.7884e-06,-1.11306e-05,-2.35357e-05,1.53822e-05,-2.22482e-06,1.26704e-05,7.75571e-07,0
-3.00579e-05,4.53991e-06,-8.97525e-06,-1.98729e-05,1.4789e-05,-3.19534e-06,1.62176e-05,9.71065e-07,0
-3.03333e-05,6.60342e-06,-6.00142e-06,-1.46841e-05,1.59497e-05,-5.12567e-06,1.60346e-05,2.22426e-06,0
-3.06915e-05,9.71034e-06,-1.77835e-06,-1.25595e-05,1.73146e-05,-5.54148e-06,1.53281e-05,2.43285e-06,0
-3.07372e-05,9.82748e-06,2.46672e-06,-1.47193e-05,1.86556e-05,-5.27255e-06,1.50984e-05,1.78424e-06,0
-3.10792e-05,8.71319e-06,4.28933e-06,-1.76433e-05,1.87119e-05,-4.40201e-06,1.54988e-05,5.82234e-07,0
-3.21458e-05,1.10059e-05,3.50508e-06,-1.7782e-05,1.8481e-05,-3.61772e-06,1.51765e-05,1.22713e-06,0
-3.14195e-05,1.36299e-05,2.45763e-06,-1.28717e-05,1.76324e-05,-3.17423e-06,1.41241e-05,2.10792e-06,0
-3.07882e-05,1.45925e-05,3.96388e-06,-2.53165e-06,1.7313e-05,-3.19578e-06,1.4033e-05,2.79949e-06,0
-3.18656e-05,1.43552e-05,4.95087e-06,8.31795e-06,1.66741e-05,-5.4424e-06,1.56119e-05,2.58355e-06,0
-3.15965e-05,1.35439e-05,4.27399e-06,1.60515e-05,1.62775e-05,-8.25196e-06,1.48817e-05,1.10083e-06,0
-3.05188e-05,1.33367e-05,4.22438e-06,1.91057e-05,1.57827e-05,-9.45708e-06,6.57065e-06,1.12406e-06,0
-2.9995e-05,1.41845e-05,5.39097e-06,1.84105e-05,1.28564e-05,-9.76148e-06,-3.79831e-06,1.66417e-06,0
-3.06969e-05,1.44532e-05,5.649e-06,1.55431e-05,1.0281e-05,-9.62956e-06,-8.99968e-06,1.74767e-06,0
-3.1851e-05,1.27669e-05,5.46825e-06,9.77534e-06,9.93012e-06,-9.33435e-06,-7.87274e-06,2.79401e-07,0
-3.32813e-05,1.04218e-05,6.69577e-06,2.97169e-06,1.13791e-05,-9.27917e-06,-1.93511e-06,-1.52681e-06,0
-3.36193e-05,9.86961e-06,7.21644e-06,-3.58864e-07,1.33516e-05,-9.71647e-06,6.44711e-06,-4.01177e-06,0
-3.2642e-05,1.15148e-05,5.95062e-06,8.14266e-07,1.56573e-05,-9.56751e-06,1.46038e-05,-5.16839e-06,0
-3.177e-05,1.30841e-05,3.7095e-06,2.16902e-06,1.72945e-05,-9.08701e-06,2.04991e-05,-3.59179e-06,0
-3.19544e-05,1.3203e-05,2.18544e-06,1.40975e-06,1.83779e-05,-9.04719e-06,2.41449e-05,-8.20647e-07,0
-3.28211e-05,1.1713e-05,5.43749e-07,4.62784e-08,1.84405e-05,-8.87261e-06,2.41697e-05,1.00886e-06,0
-3.32481e-05,9.91969e-06,-2.00616e-06,2.80942e-07,1.74408e-05,-8.74626e-06,1.88726e-05,2.12512e-06,0
-3.26216e-05,7.73064e-06,-4.38732e-06,9.56534e-07,1.58343e-05,-9.89459e-06,1.18394e-05,4.11824e-06,0
-3.05423e-05,5.09953e-06,-4.80049e-06,3.59541e-07,1.47728e-05,-1.12806e-05,8.78441e-06,5.25695e-06,0
-2.87037e-05,9.73609e-07,-4.41035e-06,-1.27586e-06,1.41437e-05,-1.10094e-05,9.76465e-06,4.33492e-06,0
-2.82562e-05,-2.99508e-06,-4.70503e-06,-4.49058e-06,1.29714e-05,-1.02664e-05,1.21605e-05,3.36305e-06,0
-2.96261e-05,-3.26201e-06,-5.93189e-06,-8.35043e-06,1.20193e-05,-1.03158e-05,1.39294e-05,3.36322e-06,0
-3.05061e-05,9.08081e-07,-7.62655e-06,-8.69415e-06,1.19394e-05,-1.09846e-05,1.43411e-05,2.10163e-06,0
-2.97893e-05,4.12491e-06,-9.39458e-06,-5.08912e-06,1.31884e-05,-1.10811e-05,1.36751e-05,-4.1577e-07,0
-2.93451e-05,3.36156e-06,-1.03044e-05,-1.11757e-06,1.59943e-05,-1.00353e-05,1.26382e-05,-1.32927e-06,0
-3.02168e-05,1.95668e-06,-1.12798e-05,1.57855e-06,2.00942e-05,-8.70082e-06,1.2001e-05,3.16904e-07,0
-3.07753e-05,-8.75685e-07,-1.27428e-05,3.10868e-06,2.11842e-05,-1.13446e-05,1.11931e-05,2.49614e-06,0
-3.11651e-05,-4.17281e-06,-1.2857e-05,4.22526e-06,1.8017e-05,-1.67636e-05,1.06351e-05,3.30763e-06,0
-3.23646e-05,-3.9996e-06,-1.46607e-05,4.0637e-06,1.52714e-05,-1.72807e-05,1.11709e-05,3.31622e-06,0
-3.3296e-05,-1.7864e-06,-1.71439e-05,1.17048e-06,1.39949e-05,-1.33598e-05,1.23298e-05,3.41605e-06,0
-3.40837e-05,-1.39125e-06,-1.73298e-05,-1.41519e-06,1.12481e-05,-8.33013e-06,1.15138e-05,2.84292e-06,0
-3.3612e-05,-2.65939e-06,-1.60916e-05,-4.50011e-06,7.59431e-06,-6.23499e-06,8.60627e-06,3.86806e-06,0
-3.19336e-05,-1.40679e-06,-1.55511e-05,-8.56873e-06,6.04864e-06,-7.25426e-06,5.62157e-06,4.84752e-06,0
-3.06847e-05,3.40164e-06,-1.52745e-05,-1.21503e-05,7.56096e-06,-7.22439e-06,3.08427e-06,4.7155e-06,0
-3.05608e-05,8.13127e-06,-1.43184e-05,-1.47524e-05,9.90593e-06,-7.03905e-06,1.14185e-06,3.72241e-06,0
-3.1422e-05,1.05363e-05,-1.40377e-05,-1.31316e-05,1.35205e-05,-8.96613e-06,2.97295e-07,3.03259e-06,0
-3.30484e-05,1.28747e-05,-1.43309e-05,-8.37227e-06,1.95347e-05,-1.34751e-05,4.4479e-07,4.23191e-06,0
-3.45436e-05,1.7455e-05,-1.41619e-05,-3.58012e-06,2.44606e-05,-1.98859e-05,1.24559e-06,6.07725e-06,0
-3.48556e-05,2.3681e-05,-1.30901e-05,-7.61446e-07,2.56638e-05,-2.72531e-05,3.25531e-06,8.03365e-06,0
-3.40682e-05,3.0283e-05,-1.26369e-05,-5.87765e-08,2.34732e-05,-2.9138e-05,5.78487e-06,9.92988e-06,0
-3.24619e-05,3.73144e-05,-1.29598e-05,-1.49268e-06,1.83058e-05,-1.62244e-05,8.05331e-06,1.18292e-05,0
-3.06735e-05,4.47196e-05,-1.22135e-05,-3.68678e-06,1.18811e-05,8.03725e-06,9.49697e-06,1.25526e-05,0
-2.95683e-05,4.90756e-05,-8.86216e-06,-5.89825e-06,7.21575e-06,2.38916e-05,1.04978e-05,1.21127e-05,0
-2.94101e-05,4.71439e-05,-4.19376e-06,-9.30821e-06,5.52869e-06,1.82218e-05,1.07962e-05,1.05343e-05,0
-2.98905e-05,3.75998e-05,-1.44706e-06,-1.44364e-05,5.93207e-06,3.17731e-06,1.02198e-05,9.61463e-06,0
-3.04152e-05,2.26338e-05,-1.24802e-06,-1.65591e-05,5.19439e-06,-5.82934e-06,9.55946e-06,1.01272e-05,0
-3.14664e-05,6.87887e-06,-2.13508e-06,-1.12056e-05,3.08939e-06,-8.54146e-06,9.54551e-06,8.67582e-06,0
-3.39714e-05,-4.67624e-06,-2.41247e-06,-1.82665e-06,2.20216e-06,-8.58014e-06,1.12698e-05,4.51498e-06,0
-3.56825e-05,-9.87457e-06,-1.29823e-06,4.96613e-06,3.25445e-06,-8.60059e-06,1.34541e-05,1.37689e-06,0
-3.44464e-05,-1.19657e-05,9.54387e-07,5.66809e-06,6.00132e-06,-9.00082e-06,1.36464e-05,-8.48527e-07,0
-3.2047e-05,-1.46514e-05,3.22758e-06,3.23363e-06,7.49838e-06,-8.8135e-06,1.14598e-05,-3.06911e-06,0
-2.96817e-05,-1.88879e-05,3.61606e-06,-1.46216e-06,7.742e-06,-6.88178e-06,1.00312e-05,-4.17622e-06,0
-2.70793e-05,-2.14385e-05,1.80759e-06,-6.5847e-06,1.01915e-05,-6.2721e-06,1.16032e-05,-4.90083e-06,0
-2.5618e-05,-1.59653e-05,-8.29588e-07,-7.12919e-06,1.37798e-05,-8.34487e-06,1.29611e-05,-4.48006e-06,0
-2.56077e-05,-4.38333e-06,-2.75186e-06,-4.90742e-06,1.51564e-05,-8.91577e-06,1.26071e-05,-2.61504e-06,0
-2.47517e-05,7.17984e-06,-3.70641e-06,-5.01192e-06,1.4766e-05,-8.12525e-06,1.24738e-05,-1.41172e-06,0
-2.27621e-05,1.49767e-05,-4.36211e-06,-7.0758e-06,1.36414e-05,-8.50983e-06,1.34481e-05,-1.9377e-06,0
-2.29276e-05,1.9297e-05,-5.67994e-06,-8.06958e-06,1.12342e-05,-1.00568e-05,1.54295e-05,-3.94571e-06,0
-2.43259e-05,2.31352e-05,-6.75735e-06,-8.00832e-06,8.79503e-06,-1.17992e-05,1.76996e-05,-5.14683e-06,0
-2.49595e-05,2.62793e-05,-6.42912e-06,-6.85986e-06,7.76037e-06,-1.46599e-05,1.98956e-05,-4.95215e-06,0
-2.50331e-05,2.78382e-05,-5.72583e-06,-4.96046e-06,9.90286e-06,-1.6444e-05,1.98089e-05,-4.48694e-06,0
-2.41479e-05,2.68067e-05,-4.6949e-06,-3.62854e-06,1.31755e-05,-1.48446e-05,1.8503e-05,-4.62688e-06,0
-2.3237e-05,2.5195e-05,-3.75137e-06,-2.82037e-06,1.49775e-05,-1.19525e-05,1.71986e-05,-5.2482e-06,0
-2.33729e-05,2.5009e-05,-3.91535e-06,-2.11798e-06,1.455e-05,-1.17324e-05,1.48551e-05,-5.03305e-06,0
-2.57031e-05,2.64071e-05,-5.15864e-06,-1.81337e-06,1.33508e-05,-1.37474e-05,1.20546e-05,-4.92275e-06,0
-2.85247e-05,2.77681e-05,-6.35941e-06,-1.8158e-06,1.36675e-05,-1.55804e-05,1.02754e-05,-5.42479e-06,0
-2.95706e-05,2.79272e-05,-7.50223e-06,-2.3615e-06,1.54677e-05,-1.62936e-05,1.0454e-05,-4.8355e-06,0
-2.87823e-05,2.82689e-05,-7.90253e-06,-4.67297e-06,1.70702e-05,-1.60219e-05,1.19179e-05,-3.22911e-06,0
-2.73525e-05,2.88501e-05,-6.70478e-06,-6.04117e-06,1.69963e-05,-1.5877e-05,1.27343e-05,-2.33013e-06,0
-2.62879e-05,2.87395e-05,-5.07649e-06,-4.91184e-06,1.65568e-05,-1.61053e-05,1.03751e-05,-1.44791e-06,0
-2.5395e-05,2.76169e-05,-5.10033e-06,-4.17232e-06,1.66479e-05,-1.55765e-05,6.19713e-06,7.27046e-07,0
-2.43658e-05,2.69876e-05,-7.14069e-06,-4.95018e-06,1.706e-05,-1.38327e-05,3.79059e-06,2.6728e-06,0
-2.35452e-05,2.69824e-05,-9.1132e-06,-4.61241e-06,1.73434e-05,-1.18561e-05,5.12498e-06,2.33531e-06,0
-2.30469e-05,2.67889e-05,-9.47371e-06,-2.76557e-06,1.77532e-05,-9.23654e-06,9.33909e-06,1.97401e-06,0
-2.31294e-05,2.70508e-05,-8.02684e-06,-2.32999e-06,1.79039e-05,-6.03538e-06,1.48921e-05,2.73743e-06,0
-2.43235e-05,2.64186e-05,-6.02171e-06,-3.7074e-06,1.94161e-05,-3.29631e-06,1.91018e-05,3.40042e-06,0
-2.6219e-05,2.34764e-05,-5.75856e-06,-4.78421e-06,2.19996e-05,-2.68633e-06,1.96972e-05,3.01113e-06,0
-2.72666e-05,1.95404e-05,-7.49418e-06,-4.53008e-06,2.26975e-05,-2.04823e-06,1.87435e-05,3.04656e-06,0
-2.75796e-05,1.56878e-05,-9.38809e-06,-3.1968e-06,2.18865e-05,-1.53516e-06,1.97289e-05,3.45146e-06,0
-2.88788e-05,1.16621e-05,-1.02596e-05,-2.73934e-06,2.12175e-05,-1.65422e-06,2.08572e-05,2.73743e-06,0
-2.96951e-05,9.85596e-06,-9.69653e-06,-4.92085e-06,2.04389e-05,-1.66327e-06,1.99884e-05,2.77205e-06,0
-2.96949e-05,1.04941e-05,-1.1892e-05,-7.53703e-06,1.73228e-05,-4.37867e-06,1.9444e-05,1.90257e-06,0
-2.875e-05,9.98565e-06,-1.71017e-05,-7.02002e-06,1.37273e-05,-7.88704e-06,2.07291e-05,-4.06424e-07,0
-2.73914e-05,8.11082e-06,-1.89517e-05,-4.21621e-06,1.25256e-05,-1.0923e-05,2.14199e-05,-1.86287e-06,0
-2.82028e-05,6.09003e-06,-1.7072e-05,-2.96527e-06,1.26374e-05,-1.56249e-05,2.00974e-05,-2.35139e-06,0
-3.1273e-05,5.03712e-06,-1.2739e-05,-3.73589e-06,1.20629e-05,-2.00524e-05,1.85119e-05,-2.32119e-06,0
-3.54827e-05,3.96895e-06,-8.59447e-06,-4.37237e-06,9.11356e-06,-2.10885e-05,1.72793e-05,-2.2679e-06,0
-4.00202e-05,1.90614e-06,-8.05451e-06,-4.22016e-06,6.25339e-06,-2.03559e-05,1.63686e-05,-2.64135e-06,0
-4.30059e-05,6.98822e-07,-8.32868e-06,-4.04117e-06,4.06751e-06,-1.94202e-05,1.58128e-05,-4.44185e-06,0
-4.11081e-05,2.14703e-06,-6.81878e-06,-2.96909e-06,2.44396e-06,-1.73816e-05,1.51984e-05,-5.3377e-06,0
-3.53573e-05,6.03238e-06,-5.49646e-06,-2.64707e-06,2.11383e-06,-1.38784e-05,1.35882e-05,-4.24622e-06,0
-3.06652e-05,1.02961e-05,-5.71997e-06,-5.26999e-06,3.31053e-06,-1.08895e-05,1.27434e-05,-2.7959e-06,0
-2.91373e-05,1.28687e-05,-4.93576e-06,-8.9008e-06,4.8488e-06,-1.01361e-05,1.36346e-05,-1.04069e-06,0
-2.95672e-05,1.21409e-05,-3.53126e-06,-1.06969e-05,4.23917e-06,-1.02498e-05,1.49066e-05,8.12689e-07,0
-3.11926e-05,9.86662e-06,-4.02572e-06,-1.03607e-05,2.16395e-06,-1.02845e-05,1.55077e-05,1.91992e-06,0
