ch1,ch2,ch3,ch4,ch5,ch6,ch7,ch8,class
-2.98072e-05,1.12965e-06,-2.07695e-06,-5.80583e-06,1.12061e-05,-8.69971e-06,3.6391e-06,2.50689e-06,0
-2.91138e-05,2.40586e-06,5.70969e-06,-8.13351e-06,1.33586e-05,-9.83158e-06,3.04249e-06,1.1117e-06,0
-2.93795e-05,5.37013e-06,1.46821e-05,-9.00531e-06,1.57749e-05,-1.08521e-05,2.25074e-06,-6.286e-07,0
-2.94456e-05,1.0609e-05,2.60975e-05,-1.13231e-05,1.78786e-05,-1.02576e-05,4.40755e-06,-8.1665e-07,0
-2.88448e-05,1.3759e-05,3.94946e-05,-1.65612e-05,1.84421e-05,-8.80996e-06,7.88183e-06,3.95078e-07,0
-2.9898e-05,1.23002e-05,4.91227e-05,-2.74622e-05,1.7584e-05,-9.06627e-06,9.61613e-06,2.31328e-06,0
-3.25806e-05,8.46374e-06,4.69266e-05,-4.28261e-05,1.56796e-05,-1.06475e-05,1.10851e-05,4.08978e-06,0
-3.42139e-05,4.47981e-06,2.91789e-05,-5.84759e-05,1.40491e-05,-1.1463e-05,1.33664e-05,4.8818e-06,0
-3.54343e-05,1.49907e-06,-6.34492e-07,-6.84583e-05,1.37319e-05,-1.12242e-05,1.53176e-05,5.62077e-06,0
-3.72042e-05,1.60629e-06,-3.35512e-05,-7.12497e-05,1.50585e-05,-1.12689e-05,1.67868e-05,5.98238e-06,0
-3.84665e-05,3.57788e-06,-5.81536e-05,-6.9594e-05,1.62557e-05,-1.07777e-05,1.88264e-05,4.9302e-06,0
-3.69361e-05,4.66478e-06,-6.91964e-05,-6.6429e-05,1.61968e-05,-9.88982e-06,2.02215e-05,2.50551e-06,0
-3.41181e-05,3.89614e-06,-6.96862e-05,-6.06449e-05,1.54102e-05,-9.87893e-06,2.09738e-05,9.93095e-07,0
-3.29646e-05,2.02566e-06,-6.32687e-05,-4.9559e-05,1.36636e-05,-1.10965e-05,2.42174e-05,1.73603e-06,0
-3.36552e-05,9.67896e-07,-5.24426e-05,-3.35039e-05,1.16526e-05,-1.2125e-05,3.29275e-05,3.3916e-06,0
-3.3868e-05,1.90138e-06,-4.13803e-05,-1.49876e-05,9.43632e-06,-1.31591e-05,4.54162e-05,5.00713e-06,0
-3.4155e-05,4.31551e-06,-3.17603e-05,3.95674e-06,9.48186e-06,-1.37314e-05,5.61404e-05,6.58942e-06,0
-3.53836e-05,7.90626e-06,-2.34104e-05,1.57068e-05,1.42511e-05,-1.27773e-05,6.20199e-05,7.00418e-06,0
-3.67062e-05,1.4503e-05,-1.61076e-05,7.55372e-06,2.02384e-05,-1.17349e-05,6.03574e-05,5.79618e-06,0
-3.65387e-05,2.86849e-05,-1.07585e-05,-7.92473e-06,2.18239e-05,-1.27148e-05,5.20129e-05,4.24494e-06,0
-3.48424e-05,4.80976e-05,-9.08134e-06,-5.39012e-06,1.83996e-05,-1.33946e-05,4.13117e-05,4.14864e-06,0
-3.43894e-05,6.3853e-05,-6.45447e-06,1.59688e-05,1.6641e-05,-1.36978e-05,2.71302e-05,3.28539e-06,0
-3.40323e-05,6.84175e-05,-2.11998e-06,4.45282e-05,1.83511e-05,-1.68815e-05,7.71718e-06,1.35571e-06,0
-3.19225e-05,5.7387e-05,-7.12091e-07,7.53293e-05,1.71416e-05,-1.88032e-05,-1.44341e-05,1.48021e-06,0
-2.93222e-05,3.80807e-05,2.56566e-07,0.000106536,1.16858e-05,-1.71217e-05,-3.25268e-05,1.6744e-06,0
-2.77311e-05,1.66355e-05,3.76879e-06,0.000121195,7.35666e-06,-1.51673e-05,-4.04097e-05,1.75403e-06,0
-2.70628e-05,7.76681e-07,7.02819e-06,0.000106329,6.79757e-06,-1.57262e-05,-3.73494e-05,1.9173e-06,0
-2.59859e-05,-6.89483e-06,5.7401e-06,7.14595e-05,8.32353e-06,-1.67657e-05,-2.60902e-05,1.13481e-06,0
-2.45983e-05,-1.08537e-05,2.12339e-07,3.58755e-05,1.03736e-05,-1.51784e-05,-1.25658e-05,2.62508e-08,0
-2.59173e-05,-1.43434e-05,-7.86787e-06,7.4664e-06,1.17235e-05,-1.33084e-05,-1.94574e-06,-1.36411e-06,0
-2.84994e-05,-1.95086e-05,-1.64373e-05,-1.82402e-05,1.1155e-05,-1.35803e-05,3.18846e-06,-2.56356e-06,0
-2.98022e-05,-2.40991e-05,-2.04668e-05,-3.7731e-05,9.76987e-06,-1.54335e-05,2.73155e-06,-4.629e-06,0
-3.02237e-05,-2.25298e-05,-1.85332e-05,-4.77919e-05,9.46037e-06,-1.59057e-05,6.9324e-07,-5.00044e-06,0
-2.99867e-05,-1.1488e-05,-1.30154e-05,-4.97908e-05,1.00655e-05,-1.28072e-05,1.97176e-06,-2.77888e-06,0
-2.92038e-05,2.71492e-06,-7.60975e-06,-4.64407e-05,9.74174e-06,-8.09269e-06,3.83588e-06,-9.22752e-08,0
-2.96807e-05,1.50218e-05,-4.31358e-06,-3.93407e-05,9.1386e-06,-4.37429e-06,2.6919e-06,2.45257e-06,0
-3.18363e-05,2.4592e-05,-3.29538e-06,-3.11874e-05,9.5284e-06,-2.94341e-06,6.021e-07,4.02097e-06,0
-3.3039e-05,3.49678e-05,-2.97843e-06,-2.25314e-05,1.14336e-05,-4.65748e-06,4.71013e-07,4.80504e-06,0
-3.29896e-05,4.6228e-05,-2.63764e-06,-1.30084e-05,1.52003e-05,-7.87306e-06,2.12354e-06,5.37653e-06,0
-3.30032e-05,5.38432e-05,-3.18602e-06,-4.84295e-06,1.76943e-05,-9.79904e-06,4.91136e-06,6.10524e-06,0
-3.35428e-05,5.57302e-05,-3.95628e-06,-8.51204e-07,1.70049e-05,-9.73665e-06,9.70331e-06,5.89853e-06,0
-3.29471e-05,5.39987e-05,-3.22521e-06,-1.45471e-06,1.58676e-05,-7.83541e-06,1.46766e-05,4.55905e-06,0
-3.12459e-05,4.81046e-05,-1.24146e-06,-6.28279e-06,1.66028e-05,-6.37936e-06,1.69733e-05,2.21143e-06,0
-3.02631e-05,3.93468e-05,2.02827e-07,-1.40077e-05,1.69934e-05,-7.04487e-06,1.73361e-05,1.56628e-06,0
-3.11175e-05,3.13015e-05,-5.81022e-07,-2.04608e-05,1.52704e-05,-8.61375e-06,1.85363e-05,3.16726e-06,0
-3.29332e-05,2.54922e-05,-3.00563e-06,-2.5944e-05,1.45859e-05,-9.04257e-06,1.92605e-05,4.37457e-06,0
-3.31258e-05,2.38584e-05,-3.07377e-06,-3.30621e-05,1.73335e-05,-9.51121e-06,1.84089e-05,3.30968e-06,0
-3.22728e-05,2.61904e-05,-1.33929e-06,-3.65223e-05,2.29151e-05,-1.12487e-05,1.82015e-05,1.45092e-06,0
-3.17799e-05,2.87295e-05,7.33733e-07,-2.9621e-05,2.89162e-05,-1.18233e-05,1.7552e-05,1.63322e-07,0
-3.06256e-05,2.68418e-05,2.01706e-06,-1.84086e-05,3.18542e-05,-1.22154e-05,1.44462e-05,-1.71196e-06,0
-2.94737e-05,2.30055e-05,2.35697e-06,-9.99281e-06,3.14899e-05,-1.19278e-05,1.16134e-05,-3.44768e-06,0
-2.96082e-05,2.08568e-05,2.97124e-06,-6.61331e-06,2.77896e-05,-1.01543e-05,1.17545e-05,-3.16216e-06,0
-3.04532e-05,2.06558e-05,1.96275e-06,-7.02354e-06,2.1989e-05,-9.18002e-06,1.38857e-05,-1.99828e-06,0
-3.1225e-05,1.97504e-05,-1.30709e-06,-6.69943e-06,1.76128e-05,-8.8226e-06,1.55388e-05,-1.75909e-06,0
-3.20351e-05,1.71659e-05,-5.19458e-06,-3.08104e-06,1.60933e-05,-9.69011e-06,1.72684e-05,-2.39013e-06,0
-3.28658e-05,1.56682e-05,-7.8028e-06,5.82627e-06,1.67871e-05,-1.05327e-05,1.88858e-05,-5.19166e-06,0
-3.26736e-05,1.6551e-05,-8.22139e-06,1.64257e-05,1.79209e-05,-1.13079e-05,1.85228e-05,-8.614e-06,0
-3.16367e-05,1.57758e-05,-6.54869e-06,2.08903e-05,1.92168e-05,-1.26363e-05,1.52613e-05,-1.0957e-05,0
-3.05108e-05,1.24214e-05,-4.37819e-06,1.91046e-05,1.95947e-05,-1.29991e-05,8.65032e-06,-1.08332e-05,0
-2.9875e-05,1.02445e-05,-2.7731e-06,1.68371e-05,1.84317e-05,-1.14575e-05,2.33251e-06,-8.78011e-06,0
-2.94096e-05,1.00459e-05,-1.56769e-06,1.7764e-05,1.78875e-05,-9.34988e-06,9.24402e-07,-7.89881e-06,0
-2.86786e-05,1.05338e-05,-2.82051e-07,1.94271e-05,1.80922e-05,-8.02616e-06,3.9188e-06,-7.96595e-06,0
-2.86745e-05,1.18103e-05,1.28991e-06,1.76754e-05,1.81613e-05,-6.34879e-06,9.06384e-06,-6.98504e-06,0
-2.99987e-05,1.39515e-05,2.22404e-06,1.22282e-05,1.75514e-05,-4.79764e-06,1.58896e-05,-4.97691e-06,0
-3.10215e-05,1.52846e-05,1.58353e-06,6.59772e-06,1.55842e-05,-3.94876e-06,2.37872e-05,-3.88269e-06,0
-3.03112e-05,1.58276e-05,3.20707e-07,3.619e-06,1.18429e-05,-3.37636e-06,3.2389e-05,-3.99596e-06,0
-2.91221e-05,1.67906e-05,-9.50339e-07,2.8629e-06,8.40484e-06,-3.26101e-06,4.10556e-05,-3.93442e-06,0
-2.8817e-05,1.77126e-05,-1.18678e-06,2.2803e-06,8.13144e-06,-4.98161e-06,4.66035e-05,-2.37632e-06,0
-2.89907e-05,1.82084e-05,6.61821e-07,-4.58488e-07,9.07141e-06,-7.53382e-06,4.55627e-05,-2.15933e-08,0
-2.82069e-05,1.97135e-05,2.02486e-06,-5.47221e-06,8.70424e-06,-8.64072e-06,3.87193e-05,1.72043e-06,0
-2.69584e-05,2.22531e-05,2.30718e-06,-9.42587e-06,8.48037e-06,-7.28524e-06,2.98034e-05,2.00785e-06,0
-2.71617e-05,2.4214e-05,3.0998e-06,-9.93583e-06,1.10492e-05,-4.77837e-06,2.32433e-05,-7.6435e-07,0
-2.89454e-05,2.39819e-05,4.47074e-06,-9.41594e-06,1.48194e-05,-3.56937e-06,2.10289e-05,-3.6103e-06,0
-3.14566e-05,2.25503e-05,5.20234e-06,-1.13668e-05,1.66407e-05,-4.04491e-06,2.11715e-05,-3.38312e-06,0
-3.20881e-05,2.1403e-05,5.2046e-06,-1.74074e-05,1.73419e-05,-3.42787e-06,2.02422e-05,-2.28904e-06,0
-3.00961e-05,2.12454e-05,3.83531e-06,-2.26974e-05,2.01455e-05,-1.76537e-06,1.56598e-05,-1.00599e-06,0
-2.93025e-05,2.00591e-05,1.18365e-07,-1.9126e-05,2.36779e-05,-1.21363e-06,9.88376e-06,4.82649e-07,0
-2.983e-05,1.75917e-05,-3.64215e-06,-3.27682e-06,2.28803e-05,-1.16171e-06,6.63398e-06,2.41073e-06,0
-3.03639e-05,1.62403e-05,-6.43751e-06,2.38072e-05,1.83544e-05,-1.91481e-06,5.24242e-06,4.02306e-06,0
-3.03901e-05,1.63262e-05,-1.07206e-05,4.28714e-05,1.32584e-05,-2.98368e-06,3.59814e-06,3.4904e-06,0
-2.97877e-05,1.68573e-05,-1.53392e-05,3.7821e-05,9.62138e-06,-4.09979e-06,-1.37513e-06,1.64664e-06,0
-2.93099e-05,1.65986e-05,-1.75032e-05,1.70952e-05,8.2246e-06,-5.48104e-06,-8.56705e-06,-7.01523e-07,0
-2.90724e-05,1.62538e-05,-1.80939e-05,-5.88498e-06,7.54006e-06,-5.19111e-06,-1.33624e-05,-7.98817e-07,0
-2.97448e-05,1.53042e-05,-1.73457e-05,-2.04362e-05,6.03937e-06,-5.08537e-06,-1.44631e-05,1.33868e-06,0
-2.98645e-05,1.52015e-05,-1.60877e-05,-2.68297e-05,2.18989e-06,-7.02296e-06,-1.38443e-05,2.63117e-06,0
-2.99479e-05,1.6082e-05,-1.55285e-05,-2.7022e-05,-1.91267e-06,-9.86694e-06,-1.45624e-05,3.48476e-06,0
-3.12986e-05,1.6445e-05,-1.47037e-05,-2.39578e-05,-3.44535e-06,-1.29611e-05,-1.75786e-05,4.18312e-06,0
-3.23918e-05,1.76621e-05,-1.25551e-05,-2.54083e-05,-2.37226e-06,-1.42403e-05,-2.03681e-05,3.93052e-06,0
-3.18369e-05,2.05567e-05,-1.00644e-05,-3.55804e-05,-1.73458e-06,-1.40014e-05,-2.01117e-05,2.62186e-06,0
-3.11873e-05,2.07379e-05,-8.85041e-06,-5.06298e-05,-3.29842e-06,-1.366e-05,-1.78189e-05,2.38358e-06,0
-3.17447e-05,1.48091e-05,-8.16786e-06,-6.13215e-05,-4.9752e-06,-1.39984e-05,-1.51426e-05,3.39405e-06,0
-3.1915e-05,4.56556e-06,-6.72885e-06,-6.26564e-05,-5.97259e-06,-1.47561e-05,-1.21919e-05,3.64116e-06,0
-3.07454e-05,-7.55958e-06,-6.12216e-06,-5.64849e-05,-6.00217e-06,-1.49426e-05,-6.78319e-06,3.12178e-06,0
-2.99372e-05,-1.94549e-05,-9.02597e-06,-4.48269e-05,-5.26669e-06,-1.40658e-05,1.56971e-06,2.84341e-06,0
-3.0933e-05,-2.89607e-05,-1.45274e-05,-3.02515e-05,-3.72511e-06,-1.41419e-05,9.29297e-06,2.70209e-06,0
-3.22831e-05,-3.29932e-05,-1.7775e-05,-1.9441e-05,-1.15053e-06,-1.50397e-05,1.30326e-05,2.19418e-06,0
-3.23349e-05,-3.10014e-05,-1.67247e-05,-1.60491e-05,1.13642e-06,-1.4232e-05,1.30153e-05,2.20661e-06,0
-3.15754e-05,-2.63076e-05,-1.36678e-05,-1.6771e-05,1.50545e-06,-1.33018e-05,1.15463e-05,3.19899e-06,0
-3.16394e-05,-2.22942e-05,-1.23306e-05,-1.56204e-05,1.25933e-06,-1.25282e-05,1.05366e-05,3.87847e-06,0
-3.23873e-05,-1.9409e-05,-1.56528e-05,-1.76169e-05,1.99623e-06,-1.13797e-05,1.14432e-05,2.89849e-06,0
-3.33604e-05,-1.68313e-05,-1.9677e-05,-2.89865e-05,4.3884e-06,-1.14153e-05,1.46808e-05,1.59697e-06,0
-3.38852e-05,-7.82784e-06,-2.09531e-05,-4.17617e-05,7.33022e-06,-1.12693e-05,1.78284e-05,1.7372e-06,0
-3.36464e-05,7.11654e-06,-2.04589e-05,-4.43043e-05,1.23806e-05,-1.2566e-05,1.86157e-05,3.02803e-06,0
-3.21951e-05,1.3415e-05,-2.07156e-05,-3.81446e-05,2.00176e-05,-1.39034e-05,2.0484e-05,2.52886e-06,0
-2.95549e-05,7.90932e-06,-2.25598e-05,-3.23212e-05,2.67968e-05,-1.13192e-05,2.34464e-05,-2.07873e-07,0
-2.78612e-05,-1.727e-08,-2.31544e-05,-2.42931e-05,2.89864e-05,-9.66879e-06,2.2604e-05,-1.32573e-06,0
-2.78211e-05,-5.36737e-06,-2.15009e-05,-5.42952e-06,2.64356e-05,-9.94567e-06,1.6575e-05,-1.99581e-10,0
-2.93241e-05,-8.18047e-06,-1.91615e-05,2.42834e-05,2.61122e-05,-1.10036e-05,9.31085e-06,1.97188e-06,0
-3.02189e-05,-1.07044e-05,-1.79602e-05,5.73674e-05,2.90186e-05,-1.16983e-05,6.19861e-06,2.59093e-06,0
-2.89026e-05,-1.25133e-05,-1.71766e-05,8.18946e-05,3.4017e-05,-1.19294e-05,6.85637e-06,4.33003e-07,0
-2.85477e-05,-1.23288e-05,-1.58803e-05,8.74749e-05,3.81311e-05,-1.11546e-05,7.71236e-06,-2.92187e-06,0
-2.88282e-05,-9.51832e-06,-1.3393e-05,7.46034e-05,3.77034e-05,-1.13071e-05,9.88813e-06,-5.06115e-06,0
-2.90123e-05,-1.5578e-06,-1.05597e-05,5.2631e-05,3.23043e-05,-1.24811e-05,1.49062e-05,-4.2623e-06,0
-3.01363e-05,1.09934e-05,-8.97298e-06,3.06207e-05,2.52253e-05,-1.17552e-05,2.08363e-05,-1.86492e-08,0
-3.1037e-05,2.32901e-05,-9.25771e-06,1.40294e-05,2.14227e-05,-1.08443e-05,2.73832e-05,4.0063e-06,0
-3.12849e-05,3.03677e-05,-1.07623e-05,3.75731e-06,2.0744e-05,-1.08419e-05,3.37722e-05,5.14697e-06,0
-3.17233e-05,2.99622e-05,-1.27355e-05,-2.04987e-06,2.16099e-05,-1.22756e-05,3.75075e-05,4.68949e-06,0
-3.19562e-05,2.3226e-05,-1.39001e-05,-7.41639e-06,2.27244e-05,-1.37985e-05,3.88913e-05,4.29648e-06,0
-3.13259e-05,1.23765e-05,-1.27338e-05,-1.29333e-05,2.31946e-05,-1.45968e-05,4.0651e-05,4.4334e-06,0
-3.05667e-05,-2.45909e-06,-1.10231e-05,-1.50311e-05,2.25729e-05,-1.36881e-05,4.26014e-05,5.12394e-06,0
-3.05135e-05,-1.98257e-05,-1.12242e-05,-1.28005e-05,2.13585e-05,-1.26596e-05,4.29848e-05,5.67073e-06,0
-3.13282e-05,-3.3556e-05,-1.25102e-05,-5.92403e-06,1.8845e-05,-1.19085e-05,4.11377e-05,5.06744e-06,0
-3.22361e-05,-3.67507e-05,-1.26581e-05,4.85333e-06,1.60502e-05,-1.17247e-05,3.80363e-05,4.24217e-06,0
-3.27601e-05,-2.98583e-05,-1.16079e-05,1.49316e-05,1.42776e-05,-1.26123e-05,3.53672e-05,3.58983e-06,0
-3.2657e-05,-1.25364e-05,-9.99731e-06,1.92775e-05,1.31415e-05,-1.4006e-05,3.27043e-05,2.85795e-06,0
-3.23927e-05,1.82409e-05,-8.26007e-06,1.96058e-05,1.19577e-05,-1.61196e-05,3.02337e-05,2.73625e-06,0
-3.19e-05,5.44172e-05,-7.02924e-06,1.74937e-05,1.13974e-05,-1.77331e-05,2.90046e-05,4.28345e-06,0
-3.17158e-05,8.30458e-05,-8.04027e-06,1.05929e-05,1.14598e-05,-1.80913e-05,2.83428e-05,6.11404e-06,0
-3.1584e-05,0.000102515,-8.9722e-06,1.01641e-06,1.18212e-05,-1.91903e-05,2.68962e-05,5.99337e-06,0
-3.08462e-05,0.000113408,-7.87727e-06,-6.67273e-06,1.36367e-05,-1.9562e-05,2.36501e-05,5.23081e-06,0
-2.85102e-05,0.000103208,-5.49069e-06,-9.13905e-06,1.75876e-05,-1.79112e-05,1.97457e-05,5.18182e-06,0
-2.57159e-05,7.06229e-05,-1.73009e-06,2.00109e-07,2.14916e-05,-1.7368e-05,1.79447e-05,4.71359e-06,0
-2.40296e-05,2.84047e-05,3.72765e-07,1.9196e-05,2.28473e-05,-1.65362e-05,1.76601e-05,5.16563e-06,0
-2.30928e-05,-1.36993e-05,-4.84771e-07,3.14919e-05,2.13742e-05,-1.36226e-05,1.71461e-05,5.37495e-06,0
-2.36829e-05,-4.63846e-05,-2.93544e-06,2.49571e-05,1.85129e-05,-1.05216e-05,1.48935e-05,3.17415e-06,0
-2.45e-05,-6.36829e-05,-5.3222e-06,6.80858e-06,1.63488e-05,-9.25138e-06,1.15849e-05,6.34729e-07,0
-2.50721e-05,-6.97179e-05,-5.47801e-06,-8.28485e-06,1.32728e-05,-8.23263e-06,9.28388e-06,2.29567e-07,0
-2.63529e-05,-7.55045e-05,-4.18775e-06,-1.52939e-05,8.69283e-06,-7.86198e-06,1.14771e-05,1.87954e-06,0
-2.78013e-05,-7.92044e-05,-3.85349e-06,-1.95489e-05,4.75867e-06,-8.46507e-06,2.05389e-05,1.84599e-06,0
-2.98406e-05,-7.19937e-05,-5.1898e-06,-2.30936e-05,3.69396e-06,-9.16058e-06,3.19147e-05,-4.64646e-08,0
-3.21735e-05,-5.27408e-05,-6.13946e-06,-2.38659e-05,5.57725e-06,-9.09134e-06,3.95809e-05,-2.05016e-06,0
-3.22074e-05,-3.28519e-05,-4.82802e-06,-2.59926e-05,8.32244e-06,-8.77602e-06,4.05281e-05,-1.51909e-06,0
-3.08124e-05,-1.98571e-05,-1.71866e-06,-3.33359e-05,9.6012e-06,-8.49871e-06,3.61791e-05,8.05752e-07,0
-3.09342e-05,-1.12905e-05,1.43341e-06,-4.36358e-05,1.01619e-05,-7.08518e-06,2.81555e-05,2.62632e-06,0
-3.20144e-05,-2.14776e-06,3.37481e-06,-5.00458e-05,1.03259e-05,-5.57371e-06,1.88557e-05,2.49721e-06,0
-3.12076e-05,1.02824e-05,3.22e-06,-4.99625e-05,9.98215e-06,-4.79456e-06,9.41995e-06,1.04057e-06,0
-2.92197e-05,2.52561e-05,1.36275e-06,-4.72908e-05,1.03527e-05,-4.36923e-06,-5.27833e-07,1.23577e-06,0
-2.86428e-05,4.22535e-05,1.48588e-07,-4.7218e-05,1.12562e-05,-3.21312e-06,-1.03696e-05,2.70735e-06,0
-2.89811e-05,5.3904e-05,3.01172e-07,-5.21719e-05,1.22243e-05,-1.91499e-06,-1.95723e-05,3.27266e-06,0
-2.85811e-05,5.59595e-05,5.87471e-07,-5.70661e-05,1.32951e-05,-5.89501e-08,-2.88117e-05,1.83909e-06,0
-2.75439e-05,5.08912e-05,7.05744e-07,-5.0503e-05,1.40765e-05,3.33309e-06,-3.78013e-05,1.2277e-06,0
-2.75087e-05,4.26351e-05,1.11389e-06,-3.22683e-05,1.43552e-05,5.87613e-06,-4.16784e-05,1.6741e-06,0
-2.74668e-05,3.32955e-05,6.67626e-07,-9.34475e-06,1.36774e-05,5.8635e-06,-3.62238e-05,1.83326e-06,0
-2.70921e-05,2.50158e-05,-9.80068e-07,1.68628e-05,1.24569e-05,4.79143e-06,-2.32773e-05,1.61685e-06,0
-2.852e-05,2.36169e-05,-2.93945e-06,4.22025e-05,1.15344e-05,4.9893e-06,-9.62887e-06,9.2411e-07,0
-3.09361e-05,2.83229e-05,-3.83553e-06,5.64253e-05,1.02788e-05,5.96294e-06,-4.0989e-07,3.23058e-07,0
-3.18525e-05,3.0659e-05,-3.87823e-06,5.74277e-05,9.92636e-06,6.08866e-06,1.7298e-06,1.84832e-06,0
-3.11025e-05,2.81215e-05,-4.63885e-06,4.61189e-05,1.14705e-05,4.71607e-06,-4.4537e-06,2.45014e-06,0
-3.14059e-05,2.15682e-05,-5.26354e-06,2.43892e-05,1.47245e-05,1.97026e-06,-1.13005e-05,1.21179e-06,0
-3.23767e-05,1.76119e-05,-4.0436e-06,1.21656e-06,1.59674e-05,1.97303e-06,-8.58137e-06,1.69808e-06,0
-3.17791e-05,1.83007e-05,-2.28953e-06,-1.99477e-05,1.56141e-05,2.54502e-06,3.26477e-06,1.54893e-06,0
-3.12545e-05,1.99158e-05,-1.98892e-06,-3.14546e-05,1.51051e-05,1.7636e-06,1.90184e-05,-4.24061e-07,0
-3.14836e-05,2.06002e-05,-2.05542e-06,-2.87982e-05,1.41199e-05,-5.14207e-07,3.13898e-05,-2.16333e-06,0
-3.13236e-05,1.76394e-05,-2.06541e-06,-1.8416e-05,1.39668e-05,-2.93654e-06,3.80386e-05,-1.90632e-06,0
-3.2003e-05,1.05609e-05,-4.84227e-06,-8.69418e-06,1.41898e-05,-2.58564e-06,4.18229e-05,1.05428e-06,0
-3.24275e-05,9.25775e-07,-8.70015e-06,-3.64153e-06,1.38473e-05,-1.93354e-06,4.39306e-05,4.56352e-06,0
-3.18414e-05,-5.04476e-06,-1.27464e-05,-4.59778e-08,1.35215e-05,-2.66814e-06,4.34564e-05,5.8661e-06,0
-3.09977e-05,-3.17707e-06,-1.83846e-05,5.28954e-06,1.45771e-05,-3.37396e-06,4.07806e-05,6.05432e-06,0
-3.04402e-05,4.53469e-06,-2.46741e-05,1.26762e-05,1.44572e-05,-1.94184e-06,3.73023e-05,6.19217e-06,0
-3.03435e-05,1.38286e-05,-3.02296e-05,1.94155e-05,1.30117e-05,-1.98348e-06,3.35008e-05,5.59368e-06,0
-3.01155e-05,2.22586e-05,-3.27936e-05,2.30268e-05,1.23178e-05,-3.91234e-06,3.06624e-05,4.03953e-06,0
-3.03832e-05,2.88959e-05,-3.11115e-05,2.29982e-05,1.34337e-05,-5.14258e-06,2.88803e-05,2.94336e-06,0
-3.10441e-05,3.29715e-05,-2.50757e-05,2.07748e-05,1.45846e-05,-5.3273e-06,2.73091e-05,2.43973e-06,0
-3.14246e-05,3.34662e-05,-1.81698e-05,1.6955e-05,1.46175e-05,-6.82708e-06,2.42298e-05,1.65952e-06,0
-3.07009e-05,3.19574e-05,-1.2758e-05,1.11909e-05,1.3377e-05,-9.71784e-06,1.9536e-05,3.52238e-07,0
-2.9677e-05,3.17052e-05,-7.56088e-06,2.9635e-06,1.09938e-05,-1.16858e-05,1.45189e-05,-8.96443e-07,0
-2.93192e-05,3.35288e-05,5.53352e-07,-8.09404e-06,8.68647e-06,-1.18953e-05,9.62405e-06,-2.38943e-06,0
-2.98012e-05,3.49829e-05,1.42516e-05,-2.09787e-05,7.95031e-06,-1.02504e-05,4.91803e-06,-4.47069e-06,0
-2.97675e-05,3.61441e-05,3.34523e-05,-3.01849e-05,9.48179e-06,-7.86253e-06,1.9236e-06,-4.77772e-06,0
-2.9741e-05,3.71591e-05,5.33022e-05,-3.02546e-05,1.18835e-05,-6.58219e-06,-3.82648e-07,-3.65212e-06,0
-3.04067e-05,3.55417e-05,6.74139e-05,-2.20759e-05,1.45992e-05,-6.91238e-06,-2.48886e-06,-1.67887e-06,0
-3.1083e-05,3.20441e-05,6.82291e-05,-1.23954e-05,1.6665e-05,-8.94585e-06,-3.43003e-06,-5.05279e-07,0
-3.05874e-05,2.9382e-05,5.03764e-05,-8.39808e-06,1.55482e-05,-1.05092e-05,-3.00769e-06,-1.39312e-06,0
-2.85739e-05,2.92012e-05,1.40296e-05,-1.22135e-05,1.2156e-05,-1.07342e-05,-1.7714e-06,-1.19781e-06,0
-2.72783e-05,3.05618e-05,-2.80586e-05,-1.73487e-05,8.82501e-06,-1.18391e-05,-4.19615e-07,-4.58756e-07,0
-2.74163e-05,3.02899e-05,-6.33676e-05,-1.60463e-05,5.22503e-06,-1.25802e-05,1.24491e-06,-1.06185e-06,0
-2.77142e-05,2.88014e-05,-8.73114e-05,-9.64124e-06,2.94785e-06,-1.27106e-05,1.35922e-06,-7.33549e-07,0
-2.66137e-05,2.8254e-05,-9.54314e-05,-1.26513e-06,1.9533e-06,-1.23993e-05,-9.92148e-08,1.12253e-06,0
-2.59501e-05,2.77559e-05,-8.98685e-05,7.94621e-06,1.29301e-06,-1.2566e-05,-4.73122e-07,1.91563e-06,0
-2.6948e-05,2.60871e-05,-7.55728e-05,1.69645e-05,3.02763e-07,-1.34352e-05,2.1887e-06,1.97675e-06,0
-2.84108e-05,2.40117e-05,-6.22531e-05,2.06956e-05,-1.95569e-06,-1.43291e-05,6.78584e-06,2.4697e-06,0
-3.00698e-05,2.33971e-05,-5.15244e-05,1.67217e-05,-5.75549e-06,-1.31526e-05,8.21754e-06,2.76629e-06,0
-3.04751e-05,2.45317e-05,-4.21519e-05,9.41403e-06,-6.84049e-06,-1.06102e-05,6.56843e-06,2.34133e-06,0
-2.8703e-05,2.60801e-05,-3.25369e-05,5.07784e-06,-4.36305e-06,-8.08585e-06,6.69577e-06,-5.52282e-07,0
-2.70039e-05,2.55508e-05,-2.38769e-05,5.69278e-06,-1.82335e-06,-5.69299e-06,7.30834e-06,-4.02768e-06,0
-2.68515e-05,2.30982e-05,-1.63375e-05,9.33969e-06,-9.98007e-07,-4.40191e-06,5.84363e-06,-5.8325e-06,0
-2.74442e-05,2.13848e-05,-8.52223e-06,1.39884e-05,-1.91072e-06,-4.8781e-06,3.35358e-06,-6.22806e-06,0
-2.86761e-05,2.10435e-05,-3.90991e-06,1.71666e-05,-2.63105e-06,-6.27794e-06,2.2606e-06,-6.18847e-06,0
-3.01689e-05,2.05991e-05,-3.0817e-06,1.66688e-05,-2.47844e-06,-6.35958e-06,2.76375e-06,-5.80985e-06,0
-3.08536e-05,1.9031e-05,-4.55858e-06,1.12428e-05,3.22132e-07,-4.95516e-06,3.76563e-06,-4.77496e-06,0
-2.98437e-05,1.73176e-05,-4.30738e-06,1.81869e-06,4.25691e-06,-3.80471e-06,4.9137e-06,-4.22741e-06,0
-2.76839e-05,1.65297e-05,-3.29634e-06,-8.53444e-06,6.27542e-06,-4.7934e-06,6.73676e-06,-4.0301e-06,0
-2.66741e-05,1.65748e-05,-2.94753e-06,-1.63523e-05,5.44403e-06,-6.25126e-06,8.92458e-06,-3.51424e-06,0
-2.77813e-05,1.6298e-05,-3.05382e-06,-2.12723e-05,4.02828e-06,-6.77317e-06,1.024e-05,-2.54123e-06,0
-2.94238e-05,1.49244e-05,-2.04071e-06,-2.32438e-05,3.0129e-06,-6.78457e-06,1.05179e-05,-1.75216e-06,0
-2.97239e-05,1.38791e-05,-1.34983e-06,-2.5155e-05,1.66024e-06,-6.6129e-06,1.19487e-05,-1.20512e-06,0
-2.80318e-05,1.26727e-05,-1.75066e-06,-2.73274e-05,1.37079e-07,-6.4326e-06,1.40473e-05,-2.21651e-06,0
-2.60704e-05,1.04559e-05,-2.23753e-06,-2.5786e-05,-1.84277e-07,-6.13618e-06,1.38938e-05,-4.95142e-06,0
-2.71441e-05,7.68218e-06,-2.21914e-06,-2.29253e-05,7.47297e-07,-5.80554e-06,1.30469e-05,-7.10048e-06,0
-2.8726e-05,4.62161e-06,-3.18282e-06,-2.42298e-05,4.65746e-07,-5.77619e-06,1.31281e-05,-7.01585e-06,0
-2.92314e-05,5.98764e-07,-4.73921e-06,-3.22751e-05,-1.7714e-07,-5.11075e-06,1.85538e-05,-4.44985e-06,0
-3.01435e-05,-1.92385e-06,-4.56478e-06,-4.26354e-05,9.97873e-08,-4.31024e-06,2.89347e-05,-2.50702e-06,0
-3.0368e-05,-1.09556e-06,-3.72861e-06,-4.93246e-05,1.98469e-06,-3.76206e-06,4.00119e-05,-2.57489e-06,0
-2.98896e-05,5.94796e-07,-3.57609e-06,-4.6079e-05,4.95674e-06,-4.15279e-06,4.92889e-05,-3.33014e-06,0
-2.90595e-05,3.9486e-06,-3.75041e-06,-2.8921e-05,1.09202e-05,-5.39729e-06,5.37313e-05,-3.26303e-06,0
-2.9171e-05,6.86192e-06,-4.44095e-06,-7.02984e-06,2.14058e-05,-4.75181e-06,5.06546e-05,-1.3245e-06,0
-2.9872e-05,7.49874e-06,-3.70623e-06,1.05852e-05,3.23143e-05,-3.28958e-06,4.20572e-05,-5.84325e-08,0
-2.98327e-05,5.72482e-06,-7.02027e-07,1.85999e-05,3.6641e-05,-3.76291e-06,3.20667e-05,7.84136e-07,0
-3.04672e-05,2.918e-06,1.71308e-06,1.96139e-05,3.17155e-05,-5.21351e-06,1.67843e-05,1.12586e-06,0
-3.1308e-05,2.19489e-06,2.21998e-06,1.86976e-05,2.5973e-05,-6.72633e-06,-1.78406e-06,9.68423e-07,0
-3.11738e-05,3.06112e-06,8.14231e-07,1.75083e-05,2.43265e-05,-7.51107e-06,-1.73617e-05,9.4616e-07,0
-3.17205e-05,3.86316e-06,1.08128e-07,1.72049e-05,2.52564e-05,-7.43859e-06,-2.41482e-05,1.54809e-06,0
-3.23996e-05,4.9433e-06,-9.07218e-09,1.42206e-05,2.67795e-05,-7.0358e-06,-2.36372e-05,3.21676e-06,0
-3.11132e-05,6.95627e-06,-1.56066e-06,7.24602e-06,2.88951e-05,-6.94291e-06,-2.15402e-05,4.9542e-06,0
-2.85629e-05,9.59111e-06,-4.82225e-06,-1.59066e-06,2.99959e-05,-8.22351e-06,-1.86866e-05,6.43152e-06,0
-2.79936e-05,1.17336e-05,-7.42303e-06,-7.96534e-06,2.68887e-05,-9.78783e-06,-1.35118e-05,7.09183e-06,0
-3.02869e-05,1.09193e-05,-8.66383e-06,-8.94001e-06,2.05812e-05,-1.09457e-05,-5.27548e-06,6.05762e-06,0
-3.22154e-05,7.67182e-06,-9.03949e-06,-4.86669e-06,1.54381e-05,-1.10878e-05,2.86722e-06,3.5046e-06,0
-3.14176e-05,4.79004e-06,-9.09958e-06,3.33214e-07,1.39804e-05,-1.14785e-05,9.16387e-06,2.50108e-06,0
-2.92577e-05,3.96882e-06,-7.64153e-06,3.31258e-06,1.37239e-05,-1.32553e-05,1.42726e-05,2.96358e-06,0
-2.83511e-05,4.25136e-06,-4.09762e-06,1.97275e-06,1.32531e-05,-1.59015e-05,2.0114e-05,3.61657e-06,0
-2.84989e-05,4.41693e-06,1.30511e-06,-3.52704e-06,1.24199e-05,-1.70569e-05,2.51837e-05,3.95954e-06,0
-2.89557e-05,3.1395e-06,1.10734e-05,-1.0795e-05,1.12163e-05,-1.58827e-05,2.68522e-05,3.75826e-06,0
-2.87989e-05,1.55804e-06,2.62117e-05,-1.53466e-05,1.04452e-05,-1.46784e-05,2.40812e-05,2.75731e-06,0
-2.67529e-05,1.6668e-07,4.45842e-05,-1.50387e-05,1.03607e-05,-1.48371e-05,1.82873e-05,1.3708e-06,0
-2.59837e-05,-3.09027e-06,6.55416e-05,-1.30211e-05,8.84864e-06,-1.61156e-05,8.85528e-06,2.16194e-07,0
-2.97605e-05,-7.73698e-06,8.56916e-05,-7.19326e-06,7.87847e-06,-1.64127e-05,-2.70732e-06,-1.72643e-07,0
-3.47071e-05,-1.16268e-05,9.5154e-05,2.38781e-06,5.71695e-06,-1.61802e-05,-9.98084e-06,-4.34153e-07,0
-3.69632e-05,-1.2414e-05,8.44053e-05,6.74781e-06,4.26022e-06,-1.63565e-05,-6.9038e-06,-2.7997e-06,0
-3.70005e-05,-9.20478e-06,4.91298e-05,9.12153e-06,4.01276e-06,-1.57223e-05,4.70987e-06,-6.60612e-06,0
-3.4086e-05,-4.13177e-06,-2.08541e-06,1.66344e-05,1.5136e-06,-1.43462e-05,1.72284e-05,-8.40578e-06,0
-2.94135e-05,1.35518e-06,-5.03197e-05,2.53242e-05,2.19733e-06,-1.34415e-05,2.39767e-05,-7.8338e-06,0
-2.843e-05,5.64892e-06,-8.43821e-05,2.72832e-05,6.20653e-06,-1.40371e-05,2.5136e-05,-7.14647e-06,0
-2.9074e-05,8.50701e-06,-0.00010134,2.17597e-05,9.38854e-06,-1.55844e-05,2.69068e-05,-7.37656e-06,0
-2.8936e-05,1.04612e-05,-0.000100542,1.49659e-05,1.05601e-05,-1.71981e-05,2.96366e-05,-7.28669e-06,0
-2.96943e-05,1.21166e-05,-8.65541e-05,9.67986e-06,1.05047e-05,-1.70573e-05,3.10966e-05,-6.31065e-06,0
-3.07639e-05,1.47074e-05,-6.63518e-05,6.38863e-06,8.68863e-06,-1.65485e-05,3.10847e-05,-5.87237e-06,0
-3.17869e-05,1.55731e-05,-4.72543e-05,2.96694e-06,7.80515e-06,-1.72821e-05,3.15928e-05,-5.87242e-06,0
-3.28473e-05,1.59522e-05,-3.19551e-05,-1.12215e-06,8.78518e-06,-1.71167e-05,3.12595e-05,-5.47552e-06,0
-3.46818e-05,1.5679e-05,-2.08673e-05,-5.68445e-06,1.06634e-05,-1.5854e-05,2.60967e-05,-4.86522e-06,0
-3.62294e-05,1.43576e-05,-1.4274e-05,-9.62268e-06,1.24503e-05,-1.51598e-05,1.51974e-05,-3.93666e-06,0
-3.65269e-05,1.34998e-05,-1.10149e-05,-1.21458e-05,1.49879e-05,-1.48305e-05,4.65526e-06,-2.2038e-06,0
-3.52877e-05,1.34133e-05,-9.97712e-06,-1.33877e-05,1.83516e-05,-1.38077e-05,1.42475e-06,-1.14752e-06,0
-3.38826e-05,1.39425e-05,-1.14977e-05,-1.55728e-05,2.05451e-05,-1.40625e-05,4.59165e-06,-1.51068e-07,0
-3.36171e-05,1.40245e-05,-1.44261e-05,-2.08213e-05,2.04986e-05,-1.64856e-05,8.14272e-06,2.17949e-06,0
-3.40615e-05,1.30829e-05,-1.72222e-05,-2.56449e-05,1.80958e-05,-1.91451e-05,8.38836e-06,4.41753e-06,0
-3.41996e-05,1.1224e-05,-2.01386e-05,-2.41077e-05,1.76245e-05,-1.94918e-05,6.08143e-06,5.33543e-06,0
-3.36862e-05,1.01255e-05,-2.30454e-05,-1.68197e-05,2.10041e-05,-1.73162e-05,4.04893e-06,5.69674e-06,0
-3.30068e-05,9.36492e-06,-2.37378e-05,-1.35484e-05,2.45634e-05,-1.42534e-05,4.64263e-06,5.11966e-06,0
-3.28591e-05,8.14145e-06,-2.23975e-05,-2.08212e-05,2.61069e-05,-1.35017e-05,6.75005e-06,4.17612e-06,0
-3.33873e-05,6.82847e-06,-2.15054e-05,-3.46853e-05,2.54373e-05,-1.39865e-05,8.728e-06,3.77748e-06,0
-3.41552e-05,6.003e-06,-1.98018e-05,-4.4051e-05,2.31587e-05,-1.37881e-05,8.83355e-06,3.07388e-06,0
-3.50234e-05,6.38822e-06,-1.77905e-05,-4.12685e-05,2.14162e-05,-1.43319e-05,6.84109e-06,2.59625e-06,0
-3.42367e-05,8.60347e-06,-1.74915e-05,-2.40376e-05,1.85667e-05,-1.40732e-05,5.26794e-06,3.64355e-06,0
-3.33919e-05,1.04999e-05,-1.93673e-05,1.01096e-05,1.61507e-05,-1.27237e-05,4.05876e-06,4.03686e-06,0
-3.39386e-05,1.27406e-05,-2.0781e-05,3.96794e-05,1.7767e-05,-1.22165e-05,5.0171e-06,1.35114e-06,0
-3.52934e-05,1.56024e-05,-1.91504e-05,4.67457e-05,2.46082e-05,-1.12812e-05,8.17044e-06,-7.28021e-07,0
-3.55883e-05,1.688e-05,-1.60681e-05,4.04249e-05,3.09876e-05,-8.76948e-06,1.08474e-05,1.63121e-07,0
-3.44811e-05,1.85781e-05,-1.30729e-05,2.96353e-05,3.17784e-05,-8.31056e-06,1.41592e-05,2.37811e-06,0
-3.45539e-05,2.65288e-05,-9.50373e-06,2.37048e-05,2.80714e-05,-1.00486e-05,1.78684e-05,3.50169e-06,0
-3.54435e-05,4.4045e-05,-6.71345e-06,1.96146e-05,2.29123e-05,-1.08417e-05,2.07549e-05,2.71173e-06,0
-3.63866e-05,6.06789e-05,-5.21167e-06,1.50532e-05,1.78252e-05,-9.77835e-06,1.92792e-05,2.8792e-07,0
-3.58375e-05,6.48621e-05,-2.61105e-06,9.29164e-06,1.40228e-05,-9.06017e-06,1.33248e-05,-1.85427e-06,0
-3.27805e-05,5.77048e-05,2.67933e-06,4.48447e-07,1.09334e-05,-9.772e-06,5.84165e-06,-1.83775e-06,0
-2.97831e-05,4.56659e-05,9.22881e-06,-1.15902e-05,7.60979e-06,-9.60929e-06,1.94788e-06,-1.79258e-06,0
-2.89383e-05,3.1998e-05,1.39878e-05,-2.59955e-05,6.35754e-06,-9.23124e-06,4.12424e-06,-1.99984e-06,0
-2.93664e-05,1.93443e-05,1.70883e-05,-3.78944e-05,6.30681e-06,-1.02229e-05,7.66212e-06,-1.8797e-06,0
-2.94673e-05,1.17536e-05,1.97509e-05,-4.32267e-05,7.72742e-06,-1.19025e-05,8.31343e-06,-1.23593e-06,0
-2.977e-05,1.01556e-05,2.01782e-05,-4.22328e-05,1.01463e-05,-1.2192e-05,7.34295e-06,-8.30331e-07,0
-3.06002e-05,1.12881e-05,1.55762e-05,-3.96116e-05,1.21733e-05,-1.13603e-05,1.00424e-05,-9.15724e-07,0
-3.09332e-05,1.25869e-05,7.01601e-06,-3.80812e-05,1.35519e-05,-1.09213e-05,1.71297e-05,-4.79264e-07,0
-3.04377e-05,1.72283e-05,-2.67517e-06,-4.10735e-05,1.53762e-05,-1.07959e-05,2.44195e-05,7.54329e-07,0
-2.95672e-05,2.80297e-05,-1.13515e-05,-4.87677e-05,1.65269e-05,-1.07008e-05,2.72477e-05,1.28627e-06,0
-2.89756e-05,4.17636e-05,-1.76971e-05,-5.8624e-05,1.59686e-05,-1.15014e-05,2.55484e-05,-1.43362e-07,0
-2.88563e-05,5.2157e-05,-1.946e-05,-6.66683e-05,1.39272e-05,-1.37656e-05,2.1723e-05,-1.36693e-06,0
-2.92983e-05,5.43416e-05,-1.57089e-05,-6.80582e-05,1.16853e-05,-1.52251e-05,1.78196e-05,-1.14929e-06,0
-2.918e-05,4.61546e-05,-1.09841e-05,-5.88174e-05,1.00711e-05,-1.51184e-05,1.32868e-05,-2.45883e-07,0
-2.77964e-05,2.98125e-05,-9.42596e-06,-4.17657e-05,9.41142e-06,-1.47645e-05,8.33523e-06,1.14517e-06,0
-2.72642e-05,9.0448e-06,-8.86971e-06,-2.01926e-05,1.05264e-05,-1.36995e-05,5.89298e-06,2.75609e-06,0
-2.85899e-05,-1.22918e-05,-7.01907e-06,-4.24192e-06,1.0646e-05,-1.26109e-05,5.89881e-06,3.65743e-06,0
-2.96867e-05,-2.70065e-05,-4.24225e-06,-4.27919e-06,8.88492e-06,-1.30162e-05,4.52452e-06,3.12614e-06,0
-2.94555e-05,-3.22512e-05,-3.00842e-06,-1.50952e-05,7.36419e-06,-1.21981e-05,3.38228e-06,1.54774e-06,0
-2.89124e-05,-2.90871e-05,-5.69703e-06,-2.46551e-05,7.50138e-06,-9.58645e-06,4.1651e-06,1.73432e-06,0
-2.83479e-05,-1.86176e-05,-1.23396e-05,-2.65038e-05,9.38844e-06,-8.28371e-06,1.28819e-06,1.67988e-06,0
-2.80072e-05,-8.3777e-06,-2.13196e-05,-2.27736e-05,1.32781e-05,-8.24998e-06,-4.39746e-06,1.51363e-06,0
-2.80662e-05,-3.60129e-06,-2.89988e-05,-1.83524e-05,1.77478e-05,-6.80852e-06,-5.58368e-06,2.14656e-06,0
-2.7337e-05,-1.67378e-06,-3.58253e-05,-6.32665e-06,2.00784e-05,-3.79751e-06,-9.38838e-07,3.24748e-06,0
-2.65288e-05,-1.29909e-06,-3.74396e-05,2.56037e-05,2.14627e-05,-9.0155e-07,4.56384e-06,5.53466e-06,0
-2.69669e-05,-3.11811e-06,-3.11664e-05,7.17399e-05,2.28763e-05,8.06816e-07,8.58344e-06,6.94727e-06,0
-2.87607e-05,-4.79445e-06,-2.12117e-05,0.000113554,2.39397e-05,1.17083e-06,1.19395e-05,7.91598e-06,0
-2.92385e-05,-2.81414e-06,-1.0708e-05,0.000135092,2.36267e-05,3.57539e-07,1.62554e-05,7.95546e-06,0
-2.70559e-05,3.00156e-06,-3.60387e-06,0.000136135,2.44868e-05,-8.23252e-07,2.13489e-05,6.92297e-06,0
-2.50329e-05,8.96664e-06,-1.28875e-06,0.000117161,2.63728e-05,-5.05446e-07,2.50668e-05,6.84077e-06,0
-2.43213e-05,1.2949e-05,-2.30978e-06,7.67646e-05,2.58401e-05,4.73529e-07,2.76747e-05,7.50452e-06,0
-2.40662e-05,1.47518e-05,-2.52357e-06,2.5357e-05,2.50832e-05,1.28211e-07,2.95263e-05,6.02301e-06,0
-2.41945e-05,1.43993e-05,-3.3526e-07,-1.7677e-05,2.52109e-05,-1.47273e-06,3.00716e-05,3.32107e-06,0
-2.57006e-05,1.31563e-05,2.45687e-06,-4.02483e-05,2.52288e-05,-2.49959e-06,2.97138e-05,1.93068e-06,0
-2.73181e-05,1.21505e-05,3.34225e-06,-4.40095e-05,2.33604e-05,-2.08562e-06,2.94858e-05,2.03892e-06,0
-2.84157e-05,1.25354e-05,2.18862e-06,-3.86666e-05,2.13416e-05,-8.27326e-07,2.98962e-05,2.40648e-06,0
-2.95833e-05,1.49813e-05,1.36385e-06,-3.18952e-05,2.09479e-05,2.24459e-07,3.01682e-05,3.06287e-06,0
-3.02739e-05,1.91342e-05,2.98043e-06,-2.73168e-05,2.09121e-05,2.62654e-07,2.93804e-05,4.12505e-06,0
-2.97794e-05,2.28811e-05,5.05309e-06,-2.90133e-05,1.96192e-05,-2.39419e-07,2.74761e-05,5.22939e-06,0
-2.86687e-05,2.40931e-05,4.41719e-06,-3.61714e-05,1.79742e-05,2.72163e-07,2.44824e-05,6.65458e-06,0
-2.89054e-05,2.07532e-05,1.80399e-06,-4.30782e-05,1.72348e-05,4.52153e-07,2.04607e-05,8.3674e-06,0
-3.05649e-05,1.26673e-05,-1.11441e-07,-4.42394e-05,1.70549e-05,-2.02269e-06,1.65649e-05,1.00601e-05,0
-3.08972e-05,2.13466e-06,-5.24134e-08,-3.82311e-05,1.62845e-05,-3.54223e-06,1.38713e-05,9.62551e-06,0
-2.96247e-05,-7.95205e-06,1.17738e-08,-2.71794e-05,1.53801e-05,-2.93239e-06,1.31888e-05,6.88117e-06,0
-2.73939e-05,-1.45589e-05,-4.5572e-07,-1.79429e-05,1.57926e-05,-3.3836e-06,1.30203e-05,4.34285e-06,0
-2.53602e-05,-1.64793e-05,-1.90951e-06,-1.32079e-05,1.71535e-05,-5.55291e-06,1.2164e-05,3.25733e-06,0
-2.63814e-05,-1.48444e-05,-3.71557e-06,-1.03229e-05,1.58268e-05,-7.5798e-06,1.28108e-05,4.05563e-06,0
-2.92929e-05,-1.12721e-05,-5.1849e-06,-7.90835e-06,1.12292e-05,-8.65696e-06,1.39127e-05,5.19937e-06,0
-3.0475e-05,-7.61992e-06,-5.69656e-06,-7.43397e-06,9.25386e-06,-9.48386e-06,1.34035e-05,6.00091e-06,0
-2.88594e-05,-5.76473e-06,-4.48812e-06,-9.98119e-06,1.08496e-05,-9.91553e-06,1.2632e-05,6.66135e-06,0
-2.83695e-05,-4.88148e-06,-3.59363e-06,-1.37214e-05,1.19991e-05,-1.04505e-05,1.08192e-05,5.10333e-06,0
-2.92785e-05,-4.01558e-06,-2.58364e-06,-1.4489e-05,1.17092e-05,-1.16511e-05,9.1527e-06,4.21807e-06,0
-3.01355e-05,-3.57304e-06,-1.50322e-06,-9.1729e-06,1.14909e-05,-1.35758e-05,8.94796e-06,4.86844e-06,0
-3.12981e-05,-5.30349e-07,-1.84816e-06,8.79826e-09,1.01425e-05,-1.46989e-05,8.95093e-06,5.97546e-06,0
-3.16284e-05,1.22066e-05,-2.85764e-06,8.82211e-06,7.68408e-06,-1.46549e-05,9.01283e-06,7.34766e-06,0
-3.0436e-05,3.7791e-05,-2.49788e-06,1.5038e-05,6.51368e-06,-1.43448e-05,9.11815e-06,8.30536e-06,0
-2.88327e-05,6.58136e-05,-1.48508e-06,1.74839e-05,8.27345e-06,-1.49077e-05,1.16242e-05,9.65728e-06,0
-2.86998e-05,8.19539e-05,-1.42798e-06,1.59276e-05,1.13839e-05,-1.63216e-05,1.77577e-05,1.10937e-05,0
-2.95116e-05,8.21269e-05,-2.29226e-06,1.25389e-05,1.34073e-05,-1.70238e-05,2.40022e-05,1.05609e-05,0
-3.08074e-05,6.97111e-05,-4.50927e-06,9.66704e-06,1.47528e-05,-1.5401e-05,2.52776e-05,7.66455e-06,0
-3.19301e-05,4.6199e-05,-8.52391e-06,6.63465e-06,1.61669e-05,-1.20875e-05,2.16818e-05,5.16277e-06,0
-3.25093e-05,1.31754e-05,-1.35627e-05,7.534e-07,1.69943e-05,-1.08286e-05,1.65499e-05,3.98136e-06,0
-3.27647e-05,-2.1589e-05,-1.67173e-05,-7.66074e-06,1.72765e-05,-1.15971e-05,1.25048e-05,3.25427e-06,0
-3.28079e-05,-5.10388e-05,-1.67845e-05,-1.37333e-05,1.77261e-05,-1.20583e-05,1.01816e-05,1.05945e-06,0
-3.24685e-05,-7.40892e-05,-1.47015e-05,-1.35057e-05,1.79971e-05,-1.1945e-05,9.07672e-06,-1.48441e-06,0
-3.25034e-05,-8.5782e-05,-1.22544e-05,-1.05634e-05,1.73215e-05,-1.09595e-05,8.04869e-06,-1.48821e-06,0
-3.42859e-05,-7.66272e-05,-1.06333e-05,-1.21163e-05,1.5523e-05,-9.26082e-06,5.48625e-06,7.37942e-07,0
-3.66593e-05,-4.83133e-05,-9.57205e-06,-1.91155e-05,1.26047e-05,-8.83151e-06,2.48944e-06,1.31445e-06,0
-3.86376e-05,-1.69366e-05,-1.05167e-05,-2.59471e-05,9.25353e-06,-8.74315e-06,8.87826e-07,-5.43083e-07,0
-4.02279e-05,1.81981e-06,-1.3438e-05,-3.06227e-05,7.30857e-06,-8.25424e-06,-2.67482e-07,-2.1157e-06,0
-3.90726e-05,9.92336e-06,-1.42902e-05,-2.93086e-05,7.47231e-06,-6.98812e-06,-2.66167e-06,-2.59724e-06,0
-3.43676e-05,2.06084e-05,-1.335e-05,-1.93003e-05,7.91766e-06,-5.00749e-06,-4.34828e-06,-3.19876e-06,0
-2.85871e-05,4.09155e-05,-1.27821e-05,-3.89309e-06,8.54894e-06,-3.38777e-06,-3.42303e-06,-4.57658e-06,0
-2.59984e-05,5.89652e-05,-1.18098e-05,8.83909e-06,1.13718e-05,-1.84527e-06,4.37035e-06,-5.45872e-06,0
-2.78762e-05,6.20434e-05,-1.01813e-05,1.29964e-05,1.42642e-05,-1.09184e-06,1.92339e-05,-4.68625e-06,0
-2.96819e-05,4.80545e-05,-8.21678e-06,1.22902e-05,1.45599e-05,-1.96085e-06,3.22921e-05,-3.34325e-06,0
-3.09187e-05,2.17628e-05,-5.82209e-06,1.02333e-05,1.24892e-05,-3.32753e-06,3.83387e-05,-2.95697e-06,0
-3.08716e-05,-3.41732e-06,-3.8431e-06,1.14499e-05,1.07708e-05,-4.29546e-06,3.52024e-05,-3.26942e-06,0
-2.80522e-05,-2.21212e-05,-2.45904e-06,1.6309e-05,1.03077e-05,-5.33555e-06,2.43254e-05,-4.13297e-06,0
-2.65213e-05,-3.45624e-05,-6.30565e-07,1.74368e-05,1.03013e-05,-4.5128e-06,1.1904e-05,-5.89045e-06,0
-2.84141e-05,-4.10897e-05,5.33775e-07,7.2066e-06,8.92565e-06,-2.03e-06,1.84513e-06,-7.79449e-06,0
-3.15612e-05,-4.08524e-05,-1.78989e-07,-1.12906e-05,3.70319e-06,-1.1372e-06,-7.15592e-06,-7.45848e-06,0
-3.28256e-05,-3.64285e-05,-1.90984e-06,-2.68455e-05,-8.10346e-07,-3.64617e-06,-1.67763e-05,-6.16341e-06,0
-3.2159e-05,-3.19973e-05,-3.7601e-06,-3.21899e-05,-2.49366e-06,-5.83468e-06,-2.50758e-05,-4.6467e-06,0
-3.1309e-05,-2.66539e-05,-4.63994e-06,-3.10226e-05,-4.09617e-06,-5.6239e-06,-2.69551e-05,-3.28241e-06,0
-3.1851e-05,-1.95608e-05,-4.5164e-06,-3.02109e-05,-6.92573e-06,-5.87528e-06,-2.08853e-05,-3.45053e-06,0
-3.36467e-05,-1.01879e-05,-4.54609e-06,-3.05538e-05,-1.02059e-05,-7.38834e-06,-1.2113e-05,-3.88613e-06,0
-3.58711e-05,-1.84867e-07,-3.9121e-06,-2.89494e-05,-1.30196e-05,-8.55856e-06,-4.66969e-06,-3.16083e-06,0
-3.75657e-05,8.88675e-06,-9.77548e-07,-2.28089e-05,-1.49814e-05,-8.11524e-06,4.53437e-07,-2.3381e-06,0
-3.73232e-05,1.65536e-05,4.05546e-06,-1.48845e-05,-1.56228e-05,-7.03152e-06,3.22184e-06,-2.71735e-06,0
-3.55503e-05,2.60997e-05,6.96609e-06,-9.10164e-06,-1.48279e-05,-6.87583e-06,4.55397e-06,-3.80292e-06,0
-3.38569e-05,3.91391e-05,5.35703e-06,-6.45357e-06,-1.17158e-05,-8.41388e-06,6.6485e-06,-4.7188e-06,0
-3.2992e-05,4.88179e-05,-2.87688e-07,-4.02867e-06,-5.85074e-06,-9.20642e-06,1.08738e-05,-3.86223e-06,0
-3.2527e-05,4.99457e-05,-8.81924e-06,-7.07767e-07,2.15182e-06,-7.87917e-06,1.61993e-05,-1.37645e-06,0
-3.31348e-05,4.59039e-05,-1.79645e-05,2.15141e-06,7.7049e-06,-7.10776e-06,1.91174e-05,1.58732e-06,0
-3.38337e-05,3.98929e-05,-2.42543e-05,3.16415e-06,1.00375e-05,-8.55446e-06,1.84169e-05,4.87266e-06,0
-3.24356e-05,3.17796e-05,-2.58853e-05,5.19223e-06,1.30893e-05,-1.00186e-05,1.56449e-05,7.46743e-06,0
-2.86467e-05,2.39517e-05,-2.44934e-05,8.67771e-06,1.55104e-05,-1.00623e-05,1.30226e-05,6.29121e-06,0
-2.60526e-05,1.92573e-05,-2.10904e-05,9.8168e-06,1.47989e-05,-9.33404e-06,1.37349e-05,2.5674e-06,0
-2.65332e-05,1.19036e-05,-1.71432e-05,8.0329e-06,1.15734e-05,-9.14835e-06,1.83517e-05,1.32653e-06,0
-2.7602e-05,1.21561e-06,-1.41263e-05,9.70507e-06,8.70838e-06,-1.0088e-05,2.18351e-05,3.36352e-06,0
-2.84941e-05,-1.23295e-06,-1.39618e-05,1.52139e-05,1.00444e-05,-1.14626e-05,2.30147e-05,4.13708e-06,0
-2.75788e-05,5.6129e-06,-1.78739e-05,1.65149e-05,1.42598e-05,-1.27194e-05,2.34844e-05,3.30561e-06,0
-2.40898e-05,1.4942e-05,-2.13112e-05,1.38902e-05,1.78974e-05,-1.50572e-05,2.32133e-05,2.72413e-06,0
-2.06383e-05,2.37675e-05,-2.20364e-05,8.32842e-06,1.80687e-05,-1.77728e-05,2.23043e-05,2.33727e-06,0
-1.90608e-05,3.12316e-05,-2.21891e-05,2.49525e-06,1.48963e-05,-1.93554e-05,2.18722e-05,2.92249e-06,0
-1.98397e-05,3.45159e-05,-2.23346e-05,-2.51206e-06,1.14149e-05,-2.09047e-05,2.29286e-05,3.01636e-06,0
-2.1891e-05,3.43609e-05,-2.28174e-05,-8.81916e-06,9.091e-06,-2.18902e-05,2.26073e-05,2.52128e-06,0
-2.40887e-05,3.29062e-05,-2.24477e-05,-1.61096e-05,7.37327e-06,-2.25502e-05,2.27999e-05,1.35573e-06,0
-2.49353e-05,3.05034e-05,-2.10019e-05,-2.2056e-05,5.28208e-06,-2.2131e-05,2.31781e-05,6.02344e-07,0
-2.53221e-05,2.89015e-05,-1.90767e-05,-2.26777e-05,4.83474e-06,-2.06557e-05,2.23403e-05,2.11592e-06,0
-2.68464e-05,2.98605e-05,-1.61168e-05,-1.69007e-05,5.71065e-06,-1.9338e-05,2.15534e-05,2.96529e-06,0
-2.89493e-05,3.30174e-05,-1.28859e-05,-5.99297e-06,5.44003e-06,-1.95207e-05,2.20763e-05,1.17809e-06,0
-3.01871e-05,3.52254e-05,-1.12276e-05,5.94332e-06,4.75043e-06,-2.01808e-05,2.2065e-05,-7.01169e-07,0
-2.98714e-05,3.68173e-05,-9.94394e-06,1.5499e-05,4.10764e-06,-1.96096e-05,2.0694e-05,-9.91544e-07,0
-2.86675e-05,3.90333e-05,-7.92763e-06,2.09474e-05,3.67406e-06,-1.86198e-05,1.95047e-05,-1.29974e-06,0
-2.74924e-05,4.20397e-05,-7.08362e-06,2.11319e-05,5.23981e-06,-1.77598e-05,1.89142e-05,-1.79323e-06,0
-2.72515e-05,4.46286e-05,-7.58307e-06,1.63443e-05,8.35188e-06,-1.78964e-05,1.91118e-05,-1.56938e-06,0
-2.79291e-05,4.49838e-05,-8.62361e-06,8.61694e-06,1.0453e-05,-1.8473e-05,1.90633e-05,-4.03756e-07,0
-2.91381e-05,4.27363e-05,-8.96814e-06,7.96693e-07,1.17473e-05,-1.78585e-05,1.85819e-05,-1.03689e-07,0
-2.9676e-05,3.9315e-05,-7.58356e-06,-5.14077e-06,1.41752e-05,-1.5555e-05,1.78888e-05,-2.97172e-06,0
-2.97365e-05,3.59333e-05,-5.65097e-06,-7.68042e-06,1.67187e-05,-1.34976e-05,1.94482e-05,-6.62303e-06,0
-2.96475e-05,3.33663e-05,-5.1153e-06,-8.27291e-06,1.90095e-05,-1.23542e-05,2.58305e-05,-8.4552e-06,0
-2.95262e-05,3.18383e-05,-5.36197e-06,-8.04895e-06,2.11646e-05,-1.24237e-05,3.57913e-05,-8.23193e-06,0
-3.03053e-05,2.8889e-05,-5.9804e-06,-5.37757e-06,2.2637e-05,-1.33486e-05,4.15588e-05,-7.28815e-06,0
-3.22251e-05,2.49796e-05,-5.94289e-06,-2.07816e-06,2.41655e-05,-1.34928e-05,4.12377e-05,-7.1599e-06,0
-3.25371e-05,2.11417e-05,-4.84232e-06,-2.95369e-07,2.54361e-05,-1.17362e-05,3.93666e-05,-7.12677e-06,0
-3.22773e-05,1.78829e-05,-4.35073e-06,8.59401e-07,2.57058e-05,-9.57566e-06,3.73537e-05,-7.51571e-06,0
-3.32501e-05,1.76441e-05,-3.09565e-06,3.61136e-06,2.43908e-05,-8.69613e-06,3.225e-05,-7.47842e-06,0
-3.44216e-05,1.97278e-05,-3.23159e-06,5.81685e-06,2.06545e-05,-9.36512e-06,2.33431e-05,-7.29429e-06,0
-3.36933e-05,2.23569e-05,-4.85935e-06,3.66522e-06,1.67401e-05,-1.07147e-05,8.4896e-06,-8.64571e-06,0
-3.23662e-05,2.21206e-05,-6.34129e-06,1.88731e-07,1.58444e-05,-1.09011e-05,-1.06968e-05,-7.79877e-06,0
-3.27457e-05,2.02905e-05,-7.86444e-06,-1.51701e-06,1.56026e-05,-1.00615e-05,-2.47372e-05,-6.83542e-06,0
-3.26545e-05,2.14683e-05,-8.41858e-06,-1.12342e-07,1.4957e-05,-9.87687e-06,-2.92437e-05,-6.69537e-06,0
-3.31655e-05,2.41404e-05,-8.1098e-06,1.34881e-06,1.7122e-05,-1.13101e-05,-2.62389e-05,-5.19103e-06,0
-3.28598e-05,2.52459e-05,-7.19832e-06,-1.07643e-07,2.0222e-05,-1.22878e-05,-1.95691e-05,-3.63429e-06,0
-3.04503e-05,2.32991e-05,-6.90329e-06,-1.64891e-06,2.08816e-05,-1.26001e-05,-1.21307e-05,-2.17543e-06,0
-2.75268e-05,2.09058e-05,-6.70366e-06,-1.26004e-06,1.98954e-05,-1.11311e-05,-7.49797e-06,-1.54704e-06,0
-2.6419e-05,1.9364e-05,-6.09769e-06,-8.94069e-07,1.92976e-05,-8.61008e-06,-6.32685e-06,-1.39052e-06,0
-2.71042e-05,1.83462e-05,-5.3934e-06,-1.46673e-06,1.93078e-05,-7.80631e-06,-1.03403e-05,-2.45281e-06,0
-2.85475e-05,1.78399e-05,-5.86503e-06,-2.2887e-06,1.89027e-05,-8.40759e-06,-1.82549e-05,-3.717e-06,0
-2.97047e-05,1.78632e-05,-6.17235e-06,-3.98238e-06,1.74752e-05,-9.13965e-06,-2.15457e-05,-2.79635e-06,0
-2.97068e-05,1.84988e-05,-3.91102e-06,-6.72732e-06,1.53946e-05,-8.93264e-06,-1.48644e-05,-1.49839e-07,0
-2.92614e-05,1.92514e-05,-1.64799e-06,-9.43227e-06,1.35838e-05,-8.50315e-06,-2.98273e-06,1.31944e-06,0
-2.76435e-05,2.01573e-05,-2.56817e-06,-1.04599e-05,1.24695e-05,-8.77315e-06,6.25167e-06,9.31843e-07,0
-2.56363e-05,2.06638e-05,-4.69577e-06,-1.02846e-05,1.32213e-05,-9.17729e-06,1.06942e-05,1.69385e-07,0
-2.47405e-05,2.07682e-05,-5.51447e-06,-9.84605e-06,1.48781e-05,-8.24511e-06,1.36087e-05,-8.23785e-07,0
-2.5732e-05,2.21283e-05,-5.50034e-06,-7.54338e-06,1.40854e-05,-8.387e-06,1.91004e-05,-1.0541e-06,0
-2.74721e-05,2.31922e-05,-5.373e-06,-1.4233e-06,1.05418e-05,-9.98123e-06,2.69793e-05,6.84057e-07,0
-2.87988e-05,2.20045e-05,-6.41702e-06,4.55336e-06,6.4271e-06,-1.08468e-05,3.12514e-05,2.74766e-06,0
-2.90268e-05,2.12418e-05,-9.1484e-06,5.00681e-06,3.05593e-06,-1.08996e-05,2.17923e-05,3.04566e-06,0
-2.83979e-05,2.19225e-05,-1.28327e-05,4.99579e-07,9.04704e-07,-1.03201e-05,-1.76006e-06,9.24969e-07,0
-2.78925e-05,2.30815e-05,-1.4939e-05,-5.16107e-06,-2.56999e-07,-1.04696e-05,-2.4305e-05,-2.36224e-06,0
-2.90702e-05,2.41892e-05,-1.38494e-05,-9.29046e-06,-1.26043e-07,-1.09326e-05,-3.01321e-05,-2.94347e-06,0
-3.04048e-05,2.31383e-05,-1.24676e-05,-1.00562e-05,1.94285e-06,-1.03667e-05,-1.52236e-05,1.47324e-07,0
-3.09628e-05,1.93065e-05,-1.12876e-05,-8.24992e-06,5.24901e-06,-8.13503e-06,9.68182e-06,2.62162e-06,0
-3.03864e-05,1.76454e-05,-9.3825e-06,-5.07244e-06,1.02507e-05,-6.06941e-06,3.26674e-05,1.66216e-06,0
-2.83453e-05,1.8072e-05,-6.56222e-06,8.7404e-07,1.81935e-05,-6.24618e-06,4.81048e-05,5.07017e-07,0
-2.87034e-05,1.79837e-05,-3.67942e-06,7.47794e-06,2.51328e-05,-6.97293e-06,5.58689e-05,2.59554e-06,0
-2.9134e-05,1.63802e-05,-3.64072e-06,8.38231e-06,2.56357e-05,-7.57391e-06,5.84157e-05,5.21319e-06,0
-2.82428e-05,1.39248e-05,-4.70863e-06,2.5022e-06,2.32948e-05,-8.34202e-06,5.5352e-05,5.98764e-06,0
-2.76747e-05,1.34752e-05,-5.63213e-06,-4.34875e-06,2.28e-05,-9.35112e-06,4.68727e-05,4.50917e-06,0
-2.74993e-05,1.36872e-05,-4.51631e-06,-7.91e-06,2.2987e-05,-1.08489e-05,3.80208e-05,9.38483e-07,0
-2.83309e-05,1.35097e-05,-2.12918e-06,-8.36261e-06,2.33613e-05,-1.18882e-05,3.41233e-05,-1.48659e-06,0
-3.04229e-05,1.22746e-05,-2.18439e-06,-6.45076e-06,2.38969e-05,-1.12404e-05,3.44315e-05,-6.33772e-07,0
-3.27624e-05,1.03178e-05,-4.08884e-06,-8.39749e-07,2.41211e-05,-1.02684e-05,3.66118e-05,2.16368e-06,0
-3.34233e-05,8.67867e-06,-5.36245e-06,4.48788e-06,2.2557e-05,-1.00536e-05,3.63247e-05,3.73979e-06,0
-3.31033e-05,6.97028e-06,-5.97686e-06,3.89675e-06,1.93978e-05,-1.00228e-05,3.17006e-05,3.81188e-06,0
-3.27899e-05,3.59177e-06,-6.70744e-06,2.36621e-06,1.60352e-05,-1.00737e-05,2.59734e-05,3.50152e-06,0
-3.22266e-05,-1.68095e-06,-6.32732e-06,1.28518e-05,1.35978e-05,-1.01742e-05,2.29234e-05,3.10237e-06,0
-3.14071e-05,-5.64601e-06,-5.59665e-06,3.50256e-05,1.29243e-05,-9.52563e-06,2.18834e-05,3.15515e-06,0
-3.0835e-05,-6.12913e-06,-5.49019e-06,4.61288e-05,1.34852e-05,-9.13705e-06,2.02516e-05,4.66336e-06,0
-3.1258e-05,-4.62571e-06,-5.49856e-06,2.97908e-05,1.43565e-05,-9.74658e-06,1.76495e-05,7.06814e-06,0
-3.28398e-05,-2.13572e-06,-5.27057e-06,-3.46138e-06,1.48569e-05,-1.00586e-05,1.39869e-05,8.2828e-06,0
-3.36936e-05,7.0783e-07,-5.68999e-06,-3.39788e-05,1.54559e-05,-9.57258e-06,1.0059e-05,9.28384e-06,0
-3.38765e-05,5.60563e-07,-6.76398e-06,-5.46987e-05,1.67715e-05,-7.77275e-06,6.28573e-06,9.90801e-06,0
-3.52274e-05,-3.73224e-06,-8.60147e-06,-7.13346e-05,1.92811e-05,-4.78668e-06,2.85813e-06,9.19605e-06,0
-3.59123e-05,-8.06169e-06,-1.02426e-05,-8.96883e-05,2.11634e-05,-2.29834e-06,-2.05931e-07,8.92955e-06,0
-3.45867e-05,-8.68396e-06,-9.98863e-06,-0.000102882,2.01689e-05,-1.56831e-06,-3.35437e-06,8.84681e-06,0
-3.50036e-05,-6.67627e-06,-1.05767e-05,-9.57998e-05,1.53564e-05,-8.75629e-07,-7.38617e-06,8.48033e-06,0
-3.68169e-05,-3.40729e-06,-1.49992e-05,-6.92284e-05,1.05826e-05,-8.01698e-07,-1.02029e-05,7.23706e-06,0
-3.79334e-05,-7.33858e-07,-1.90024e-05,-4.22715e-05,1.07828e-05,5.70511e-07,-1.08023e-05,7.02248e-06,0
-3.76913e-05,-2.94133e-06,-1.92815e-05,-2.29879e-05,1.59783e-05,2.30813e-06,-1.223e-05,7.37296e-06,0
-3.59327e-05,-9.57261e-06,-1.68455e-05,-1.06422e-05,2.27392e-05,1.67642e-06,-1.33683e-05,5.51163e-06,0
-3.53896e-05,-1.34815e-05,-1.38759e-05,-5.48587e-06,2.42919e-05,7.72001e-07,-1.22155e-05,4.07856e-06,0
-3.63521e-05,-1.16472e-05,-1.16234e-05,-6.72458e-06,2.0424e-05,6.57228e-07,-8.95236e-06,5.07982e-06,0
-3.66278e-05,-6.07844e-06,-1.03428e-05,-1.26148e-05,1.56401e-05,6.04046e-07,-4.27715e-06,7.25481e-06,0
-3.61323e-05,-1.72821e-06,-1.02992e-05,-1.38667e-05,1.26083e-05,3.35238e-07,4.21948e-07,8.22467e-06,0
-3.69035e-05,-1.47337e-06,-1.09641e-05,-7.46296e-06,1.29819e-05,3.01615e-07,5.23556e-06,6.85821e-06,0
-3.74638e-05,-2.21743e-06,-1.24069e-05,3.99498e-07,1.42107e-05,-7.24845e-07,9.52171e-06,3.29463e-06,0
-3.68851e-05,-9.0083e-07,-1.38521e-05,3.59678e-06,1.36258e-05,-1.41632e-06,1.26819e-05,7.8437e-08,0
-3.58564e-05,2.1384e-06,-1.55528e-05,2.58515e-06,1.24231e-05,-1.29106e-06,1.45196e-05,-1.5191e-06,0
-3.53067e-05,3.19286e-06,-1.56607e-05,9.27811e-08,1.21482e-05,-1.05207e-06,1.51053e-05,-1.92016e-06,0
-3.59983e-05,2.51647e-06,-1.38777e-05,-3.97561e-06,1.30518e-05,-2.54865e-06,1.47536e-05,-1.65651e-06,0
-3.71243e-05,1.81799e-06,-1.10753e-05,-7.54731e-06,1.45807e-05,-4.96073e-06,1.42757e-05,-8.64391e-07,0
-3.74632e-05,1.45549e-06,-7.36551e-06,-7.15127e-06,1.5695e-05,-6.41653e-06,1.38957e-05,-2.13927e-07,0
-3.65673e-05,1.96217e-06,-3.99146e-06,-1.68547e-06,1.53537e-05,-6.67311e-06,1.30248e-05,-2.95983e-07,0
-3.54817e-05,4.30165e-06,-1.24024e-06,7.24572e-06,1.37166e-05,-6.17426e-06,1.26802e-05,-2.2163e-07,0
-3.48249e-05,7.87648e-06,3.68134e-06,1.75165e-05,1.26237e-05,-6.09317e-06,1.45689e-05,1.33955e-06,0
-3.4548e-05,1.05063e-05,1.29554e-05,2.62614e-05,1.21538e-05,-5.7019e-06,1.99533e-05,3.18114e-06,0
-3.35773e-05,1.15246e-05,2.52873e-05,3.08627e-05,1.05847e-05,-4.04031e-06,2.79493e-05,3.86245e-06,0
-3.30578e-05,1.0573e-05,3.49515e-05,3.01194e-05,8.41232e-06,-2.76221e-06,3.56908e-05,2.59858e-06,0
-3.40841e-05,8.60668e-06,3.3215e-05,2.61685e-05,7.66808e-06,-3.91362e-06,3.94066e-05,-1.50643e-06,0
-3.46161e-05,8.66628e-06,1.7134e-05,2.04627e-05,1.00965e-05,-5.13582e-06,3.73482e-05,-5.20352e-06,0
-3.36967e-05,1.10077e-05,-6.46734e-06,1.30849e-05,1.57485e-05,-4.99259e-06,3.14729e-05,-5.03712e-06,0
-3.18608e-05,1.35838e-05,-2.76957e-05,5.25937e-06,2.09265e-05,-3.98286e-06,2.30439e-05,-2.05028e-06,0
-3.08652e-05,1.36155e-05,-4.43986e-05,-9.62398e-07,2.16293e-05,-3.76273e-06,1.48975e-05,-1.07998e-06,0
-3.1037e-05,9.5625e-06,-5.6275e-05,-6.04795e-06,1.77926e-05,-5.16728e-06,1.00676e-05,-2.21145e-06,0
-3.01425e-05,7.47247e-06,-5.82689e-05,-9.32221e-06,1.43751e-05,-7.5107e-06,8.01843e-06,-2.98435e-06,0
-2.83167e-05,1.07109e-05,-5.107e-05,-1.18029e-05,1.39976e-05,-8.98596e-06,7.21847e-06,-1.1328e-06,0
-2.5625e-05,1.36849e-05,-4.123e-05,-1.21024e-05,1.47834e-05,-9.89397e-06,5.64043e-06,1.0347e-06,0
-2.43336e-05,1.43452e-05,-2.99831e-05,1.49174e-07,1.52095e-05,-1.17798e-05,4.00595e-06,-6.40483e-07,0
-2.66891e-05,1.44798e-05,-1.79343e-05,2.52893e-05,1.40473e-05,-1.33455e-05,2.32532e-06,1.93627e-08,0
-2.94643e-05,1.20433e-05,-4.29479e-06,4.40121e-05,1.1255e-05,-1.47759e-05,-3.84613e-07,3.81048e-06,0
-3.02793e-05,8.80329e-06,1.08317e-05,4.06033e-05,9.10372e-06,-1.55491e-05,-2.76708e-06,5.58658e-06,0
-2.95696e-05,8.83129e-06,2.78133e-05,2.14575e-05,8.84688e-06,-1.53787e-05,-3.9585e-06,5.0417e-06,0
-2.88537e-05,1.04973e-05,4.43314e-05,1.44406e-06,9.35863e-06,-1.51078e-05,-3.46358e-06,3.15782e-06,0
-2.80619e-05,9.32003e-06,5.20695e-05,-1.0529e-05,9.91878e-06,-1.52568e-05,-2.23666e-07,2.37144e-06,0
-2.82788e-05,6.21401e-06,4.43497e-05,-1.54512e-05,1.0083e-05,-1.60521e-05,4.69822e-06,1.35537e-06,0
-2.84891e-05,3.25233e-06,2.08596e-05,-1.72228e-05,7.46966e-06,-1.69633e-05,8.73587e-06,-6.55142e-07,0
-2.77508e-05,8.77941e-07,-1.14186e-05,-1.76005e-05,2.3333e-06,-1.82744e-05,1.07161e-05,-2.20117e-06,0
-2.71658e-05,5.37149e-07,-4.01909e-05,-1.61562e-05,-8.05743e-07,-1.9307e-05,1.0319e-05,-1.75486e-06,0
-2.69863e-05,2.02999e-06,-5.6462e-05,-1.60963e-05,-7.91526e-07,-1.97051e-05,9.00676e-06,-2.17808e-07,0
-2.67833e-05,2.53842e-06,-6.02063e-05,-2.30233e-05,4.71248e-08,-1.9798e-05,7.96621e-06,-4.67619e-07,0
-2.60374e-05,9.5191e-07,-5.41137e-05,-3.61532e-05,-5.41659e-07,-1.98607e-05,7.60961e-06,-2.42783e-06,0
-2.64416e-05,1.17013e-06,-4.26459e-05,-4.62761e-05,-2.99298e-06,-1.99178e-05,1.02324e-05,-3.68734e-06,0
-2.86232e-05,4.31108e-06,-3.01103e-05,-4.34423e-05,-5.96759e-06,-1.94601e-05,1.91551e-05,-2.37723e-06,0
