ch1,ch2,ch3,ch4,ch5,ch6,ch7,ch8,class
-4.34787e-05,3.33337e-06,-1.76083e-05,-5.82019e-06,1.87957e-05,2.97123e-05,2.073e-05,4.20062e-06,0
-5.10431e-05,-8.76702e-07,-1.77784e-05,-5.52358e-06,1.7767e-05,1.16342e-05,1.80955e-05,2.95583e-06,0
-5.81994e-05,-6.50011e-06,-1.51728e-05,-1.90881e-06,1.7571e-05,7.40977e-06,1.58212e-05,1.18715e-06,0
-6.68292e-05,-1.12389e-05,-1.27261e-05,-2.86753e-07,1.72189e-05,-2.54531e-06,1.48305e-05,-7.43963e-07,0
-8.08923e-05,-1.55266e-05,-1.16555e-05,-1.61583e-06,1.65326e-05,-1.83226e-05,1.58171e-05,-2.52491e-06,0
-9.34136e-05,-1.96312e-05,-1.0643e-05,-2.1016e-06,1.55106e-05,-2.63729e-05,1.74249e-05,-4.13731e-06,0
-8.64185e-05,-2.3154e-05,-8.60167e-06,-2.53792e-06,1.48707e-05,-2.40563e-05,1.66981e-05,-4.42346e-06,0
-5.77148e-05,-2.09545e-05,-7.47754e-06,-4.43985e-06,1.42473e-05,-1.99297e-05,1.41639e-05,-4.61106e-06,0
-1.88121e-05,-1.01978e-05,-7.88587e-06,-6.4108e-06,1.27523e-05,-1.77623e-05,1.03308e-05,-4.63658e-06,0
1.53797e-05,4.43289e-06,-8.94667e-06,-7.71081e-06,1.1665e-05,-1.1327e-05,7.01694e-06,-4.31578e-06,0
4.24893e-05,2.6418e-05,-1.07999e-05,-8.2339e-06,1.12994e-05,-1.45434e-07,7.12717e-06,-3.77513e-06,0
6.84113e-05,5.34808e-05,-1.10503e-05,-8.68182e-06,1.03757e-05,4.63016e-06,9.33377e-06,-2.29472e-06,0
8.84568e-05,7.96075e-05,-8.60059e-06,-1.03873e-05,8.44362e-06,2.60931e-06,1.26738e-05,-8.75619e-08,0
9.61345e-05,0.000100468,-5.14728e-06,-1.28212e-05,6.64684e-06,-1.43901e-06,1.41061e-05,2.5529e-06,0
9.49204e-05,0.000107956,-2.79526e-06,-1.51052e-05,5.42375e-06,-4.62064e-06,1.31753e-05,3.03473e-06,0
9.1742e-05,0.000106501,-1.73158e-06,-1.64508e-05,6.90409e-06,-1.91759e-06,1.2087e-05,1.96586e-06,0
7.63936e-05,9.49325e-05,-1.21098e-06,-1.57344e-05,1.1735e-05,6.23489e-06,1.21378e-05,3.40246e-07,0
4.58415e-05,7.28363e-05,-1.26959e-06,-1.34781e-05,1.7127e-05,1.55191e-05,1.20723e-05,-1.87163e-06,0
7.53384e-06,4.33731e-05,-1.27404e-06,-1.12771e-05,2.17505e-05,2.27883e-05,1.13803e-05,-4.24124e-06,0
-3.61327e-05,8.60728e-06,-1.74177e-07,-8.42644e-06,2.53601e-05,2.5895e-05,1.02601e-05,-5.27733e-06,0
-8.3233e-05,-2.57434e-05,1.51627e-06,-4.16523e-06,2.95293e-05,1.93007e-05,1.00011e-05,-4.12633e-06,0
-0.000121321,-4.87599e-05,3.07206e-06,2.64548e-07,3.27432e-05,4.18519e-06,1.21555e-05,-4.1807e-06,0
-0.000135794,-5.40121e-05,3.99247e-06,3.28491e-06,3.24164e-05,-1.04692e-07,1.5254e-05,-5.40908e-06,0
-0.00013227,-4.75639e-05,3.57574e-06,4.74142e-06,2.76202e-05,1.25148e-05,1.73103e-05,-4.56855e-06,0
-0.00012928,-3.97296e-05,2.20545e-06,4.09554e-06,1.95257e-05,1.31797e-05,1.77031e-05,-1.62841e-06,0
-0.000139133,-3.98965e-05,1.18138e-06,-2.213e-07,1.11571e-05,-1.69689e-05,1.71496e-05,-8.28066e-07,0
-0.000152446,-4.77363e-05,2.43261e-07,-6.8505e-06,4.66122e-06,-6.13204e-05,1.63316e-05,-3.03509e-06,0
-0.000154161,-5.89152e-05,-1.69611e-06,-1.21316e-05,-9.9285e-07,-9.73236e-05,1.52906e-05,-5.45659e-06,0
-0.000142291,-6.62881e-05,-2.56449e-06,-1.44514e-05,-6.95793e-06,-0.000107187,1.39366e-05,-5.88179e-06,0
-0.000133004,-6.69118e-05,-1.74178e-06,-1.41819e-05,-1.01901e-05,-8.41725e-05,1.39919e-05,-4.28051e-06,0
-0.000138839,-6.35975e-05,-1.86848e-06,-1.25818e-05,-7.6444e-06,-4.89992e-05,1.58339e-05,-2.37822e-06,0
-0.000148199,-5.9454e-05,-2.13665e-06,-1.27601e-05,6.60604e-07,-2.51123e-05,1.66701e-05,-1.87654e-06,0
-0.000141157,-5.08932e-05,-9.61763e-07,-1.50981e-05,1.13971e-05,-1.37175e-05,1.49191e-05,-3.32525e-06,0
-0.000116987,-3.72709e-05,-1.15788e-06,-1.73895e-05,1.86433e-05,-1.58444e-05,1.15129e-05,-3.83164e-06,0
-9.49013e-05,-2.42799e-05,-2.83038e-06,-1.707e-05,2.02718e-05,-4.72522e-05,8.50292e-06,-1.50532e-06,0
-9.23411e-05,-1.47385e-05,-4.67557e-06,-1.43702e-05,2.0336e-05,-8.34669e-05,8.02168e-06,1.2824e-06,0
-9.90211e-05,-1.26282e-05,-7.92106e-06,-1.30894e-05,1.91091e-05,-5.03973e-05,8.75028e-06,1.69148e-06,0
-8.69146e-05,-1.05704e-05,-1.32371e-05,-1.37636e-05,1.42986e-05,2.59634e-05,1.0367e-05,1.49761e-06,0
-4.51496e-05,-1.41846e-06,-1.62626e-05,-1.47343e-05,6.9581e-06,4.59872e-05,1.28596e-05,2.16773e-06,0
1.31259e-05,8.34527e-06,-1.43804e-05,-1.5225e-05,3.88682e-06,1.62682e-06,1.46315e-05,3.31242e-06,0
6.73985e-05,2.71743e-05,-9.93218e-06,-1.29271e-05,8.2938e-06,-4.741e-05,1.43038e-05,3.93202e-06,0
0.000104998,5.91482e-05,-6.08699e-06,-6.34817e-06,1.55201e-05,-6.41808e-05,1.31732e-05,2.80239e-06,0
0.000120194,8.77533e-05,-5.19082e-06,2.24085e-06,2.26847e-05,-5.20437e-05,1.29494e-05,1.92295e-06,0
0.000113309,0.000100349,-5.79209e-06,8.03543e-06,2.75093e-05,-1.95439e-05,1.27085e-05,2.03149e-06,0
8.91785e-05,9.70207e-05,-7.25145e-06,7.73064e-06,2.59532e-05,8.14938e-06,1.29581e-05,4.0525e-06,0
6.38503e-05,8.29831e-05,-8.18358e-06,5.6831e-06,2.04738e-05,1.3612e-05,1.2848e-05,6.29354e-06,0
5.26988e-05,6.4478e-05,-7.38579e-06,6.62403e-06,1.5927e-05,5.25911e-06,1.14983e-05,7.44927e-06,0
6.01464e-05,4.65821e-05,-6.0933e-06,7.90546e-06,1.14511e-05,3.48375e-06,1.09519e-05,7.98053e-06,0
7.50965e-05,3.31733e-05,-5.25089e-06,6.59027e-06,5.41093e-06,1.17525e-05,1.17008e-05,8.61e-06,0
8.14515e-05,2.45397e-05,-4.61747e-06,3.87827e-06,-5.15208e-07,2.63013e-05,1.12841e-05,9.26454e-06,0
7.47888e-05,1.54832e-05,-4.26141e-06,6.70231e-07,-2.3047e-06,5.53136e-05,8.61237e-06,8.52695e-06,0
5.76689e-05,2.79561e-06,-4.63336e-06,-2.6957e-06,-2.80142e-07,8.11154e-05,5.14494e-06,7.10236e-06,0
3.45717e-05,-9.52133e-06,-5.72528e-06,-4.4856e-06,2.49222e-06,7.73397e-05,3.54602e-06,6.27531e-06,0
9.15333e-06,-1.08946e-05,-7.6935e-06,-4.18921e-06,4.83363e-06,5.08243e-05,4.48221e-06,6.83294e-06,0
-1.41624e-05,3.68011e-08,-9.88787e-06,-3.9778e-06,7.40234e-06,3.13246e-05,6.92912e-06,7.34276e-06,0
-3.30694e-05,1.73625e-05,-1.09511e-05,-4.61645e-06,9.51186e-06,2.3666e-05,9.94753e-06,6.70685e-06,0
-4.87313e-05,3.379e-05,-1.15432e-05,-5.33768e-06,1.02131e-05,1.82333e-05,1.36377e-05,4.62421e-06,0
-6.50823e-05,3.93977e-05,-1.35565e-05,-6.97978e-06,1.10962e-05,7.17125e-06,1.67264e-05,2.82641e-06,0
-8.06563e-05,2.36211e-05,-1.39067e-05,-8.50359e-06,1.11704e-05,-6.47816e-06,1.63159e-05,1.85181e-06,0
-9.13588e-05,-1.03288e-05,-9.91198e-06,-7.11323e-06,7.21019e-06,-1.52621e-05,1.27166e-05,1.75297e-06,0
-9.72389e-05,-4.69211e-05,-5.14728e-06,-8.089e-07,1.84117e-06,-1.70629e-05,9.61047e-06,2.46887e-06,0
-0.000102801,-7.40786e-05,-3.30191e-06,4.36955e-06,-2.42373e-07,-1.96698e-05,8.33912e-06,3.59514e-06,0
-0.000111694,-9.36307e-05,-5.4472e-06,4.64336e-06,2.34476e-06,-2.91788e-05,7.58681e-06,3.09368e-06,0
-0.000116706,-9.7946e-05,-8.32645e-06,6.05071e-06,6.95262e-06,-3.12358e-05,5.94501e-06,9.45497e-07,0
-0.000110664,-8.00711e-05,-9.41068e-06,6.96914e-06,1.06458e-05,-1.8263e-05,2.50568e-06,-1.11148e-06,0
-9.59526e-05,-5.2423e-05,-9.49742e-06,6.40454e-06,1.53495e-05,-6.47398e-06,1.33954e-06,-1.79651e-06,0
-8.80337e-05,-2.23065e-05,-8.5264e-06,6.9986e-06,1.96024e-05,-2.4728e-06,3.54717e-06,-9.82722e-07,0
-9.37077e-05,5.57768e-06,-8.59752e-06,7.26661e-06,1.92335e-05,4.71694e-07,5.77358e-06,4.49005e-08,0
-8.92334e-05,2.76984e-05,-1.01822e-05,4.8442e-06,1.50467e-05,6.50564e-06,7.42104e-06,8.36896e-07,0
-5.86512e-05,4.38697e-05,-1.18e-05,1.85673e-06,1.11891e-05,1.23043e-05,8.13685e-06,1.17667e-06,0
-1.00541e-05,5.84966e-05,-1.22965e-05,1.41928e-06,1.22587e-05,1.47844e-05,7.72792e-06,1.50472e-06,0
3.24647e-05,6.93713e-05,-1.10143e-05,1.76142e-06,1.6953e-05,1.62859e-05,8.17688e-06,-2.78961e-07,0
3.6557e-05,7.26212e-05,-9.36086e-06,1.87599e-06,1.97908e-05,1.64598e-05,9.48919e-06,-2.34162e-06,0
4.08197e-06,7.06052e-05,-8.29134e-06,-2.15372e-07,1.96389e-05,1.50501e-05,9.54765e-06,-2.27981e-06,0
-2.14574e-05,6.73573e-05,-7.99135e-06,-4.33592e-06,1.79898e-05,1.10605e-05,9.39611e-06,-2.93635e-07,0
-1.0037e-05,6.20306e-05,-8.16752e-06,-7.63895e-06,1.51394e-05,1.73245e-06,1.08366e-05,1.60648e-06,0
3.1962e-05,5.38663e-05,-9.14423e-06,-7.47928e-06,1.26586e-05,-1.72231e-05,1.34083e-05,3.01596e-06,0
7.01049e-05,4.61371e-05,-9.13357e-06,-4.58117e-06,1.25351e-05,-3.63181e-05,1.51779e-05,3.90677e-06,0
7.26424e-05,3.76644e-05,-5.93961e-06,-2.50849e-06,1.44116e-05,-4.03366e-05,1.58011e-05,2.70042e-06,0
3.98212e-05,2.50496e-05,-2.06206e-06,-2.66531e-06,1.69223e-05,-2.83009e-05,1.47475e-05,1.43842e-06,0
-8.10422e-06,8.94899e-06,-1.70311e-06,-4.4787e-06,1.863e-05,-1.50126e-05,1.23678e-05,7.5971e-07,0
-5.38916e-05,-5.94052e-06,-5.03967e-06,-5.93961e-06,1.84527e-05,-7.78424e-06,1.11914e-05,-1.06776e-06,0
-9.2986e-05,-1.92915e-05,-8.98838e-06,-7.02763e-06,1.64939e-05,-3.85897e-06,1.12769e-05,-4.3608e-06,0
-0.000124544,-2.96745e-05,-1.15762e-05,-8.77018e-06,1.53385e-05,-6.58459e-07,1.2185e-05,-6.96223e-06,0
-0.00014053,-3.03857e-05,-1.19004e-05,-9.92471e-06,1.5619e-05,1.52008e-06,1.39834e-05,-6.52496e-06,0
-0.000118633,-1.82685e-05,-9.41978e-06,-8.07892e-06,1.61005e-05,-4.72882e-06,1.52339e-05,-4.15253e-06,0
-5.51082e-05,9.36661e-07,-4.95212e-06,-6.2636e-06,1.68986e-05,-2.37683e-05,1.50916e-05,-2.70714e-06,0
1.1115e-05,2.06084e-05,-2.58043e-06,-7.82865e-06,1.50755e-05,-4.48395e-05,1.31714e-05,-3.37821e-06,0
3.8295e-05,3.54557e-05,-3.95288e-06,-1.16652e-05,9.61928e-06,-5.5695e-05,1.15324e-05,-4.83129e-06,0
2.99276e-05,4.69344e-05,-5.48859e-06,-1.44936e-05,5.73923e-06,-5.18459e-05,1.16187e-05,-3.26241e-06,0
1.51833e-05,5.10159e-05,-5.57866e-06,-1.33499e-05,4.59188e-06,-4.39503e-05,1.18185e-05,6.37041e-07,0
5.49819e-06,4.48621e-05,-6.52102e-06,-1.01366e-05,7.29926e-06,-3.88911e-05,1.28658e-05,2.97735e-06,0
-3.05407e-06,4.25436e-05,-9.25707e-06,-5.81122e-06,2.08481e-05,-3.00906e-05,1.42863e-05,3.45929e-06,0
-1.18966e-05,5.07881e-05,-1.31212e-05,-4.59208e-06,3.88429e-05,-1.68069e-05,1.42214e-05,3.30375e-06,0
-1.47867e-05,5.9411e-05,-1.88885e-05,-8.21587e-06,4.36218e-05,-1.29324e-06,1.29128e-05,3.15077e-06,0
-8.76844e-06,5.68388e-05,-2.44606e-05,-1.54189e-05,3.32187e-05,7.45408e-06,1.38415e-05,3.74621e-06,0
-4.89098e-06,4.60025e-05,-2.55169e-05,-2.2099e-05,1.9258e-05,4.66269e-06,1.55876e-05,4.58182e-06,0
-9.59295e-06,3.39245e-05,-2.0921e-05,-2.225e-05,1.16351e-05,-4.51059e-06,1.67522e-05,4.68558e-06,0
-1.80239e-05,2.62256e-05,-1.50732e-05,-1.74274e-05,9.62606e-06,-1.10624e-05,1.82182e-05,4.05616e-06,0
-2.45227e-05,2.67506e-05,-1.22216e-05,-1.0442e-05,1.02311e-05,-1.21224e-05,1.85775e-05,2.98419e-06,0
-3.10167e-05,3.58138e-05,-1.17213e-05,-5.49894e-06,1.2855e-05,-1.37752e-05,1.85106e-05,1.93151e-06,0
-3.89199e-05,4.90804e-05,-1.1482e-05,-3.43955e-06,1.81464e-05,-3.28578e-05,1.76537e-05,1.05013e-06,0
-4.39681e-05,6.07275e-05,-1.01882e-05,-3.2707e-06,2.57821e-05,-8.85939e-05,1.5701e-05,-4.09796e-07,0
-4.26835e-05,6.58329e-05,-9.19289e-06,-3.22407e-06,3.0555e-05,-0.000171973,1.15837e-05,-1.79413e-06,0
-3.19874e-05,6.41035e-05,-9.23112e-06,-3.68956e-06,2.94567e-05,-0.000232412,6.5573e-06,-2.07807e-06,0
-1.68882e-05,6.24978e-05,-9.33481e-06,-5.75411e-06,2.39326e-05,-0.000209631,4.1311e-06,-2.28629e-06,0
-9.19198e-06,6.48943e-05,-8.94113e-06,-8.48163e-06,1.94214e-05,-0.000107244,4.80906e-06,-3.21426e-06,0
-1.14072e-05,6.76211e-05,-9.17441e-06,-1.15356e-05,1.84072e-05,-8.62137e-06,5.51907e-06,-4.55072e-06,0
-1.08408e-05,6.61308e-05,-1.03435e-05,-1.44141e-05,1.88102e-05,2.34342e-05,4.76286e-06,-3.50497e-06,0
-2.80811e-06,5.92695e-05,-1.09822e-05,-1.41146e-05,1.75736e-05,6.17681e-06,3.94772e-06,-2.82776e-07,0
-5.59406e-07,4.47469e-05,-9.20758e-06,-7.97101e-06,1.4311e-05,-1.64989e-05,5.23276e-06,1.98631e-06,0
-1.41312e-05,2.72751e-05,-5.4136e-06,9.07343e-07,1.10405e-05,-1.63702e-05,9.61511e-06,2.43028e-06,0
-2.71444e-05,1.14884e-05,-3.26357e-06,7.81137e-06,9.06483e-06,2.03947e-05,1.45786e-05,1.79349e-06,0
-1.5839e-05,-4.22479e-06,-5.60871e-06,1.08533e-05,7.70369e-06,7.26309e-05,1.81854e-05,2.01267e-06,0
1.84685e-05,-1.99988e-05,-1.25412e-05,9.43974e-06,6.68763e-06,9.07562e-05,1.99339e-05,3.14244e-06,0
4.5657e-05,-2.26847e-05,-2.08281e-05,5.19314e-06,3.17298e-06,6.45175e-05,2.00105e-05,3.82299e-06,0
5.40745e-05,2.72066e-06,-2.69639e-05,-4.70347e-08,-2.93534e-06,2.56648e-05,2.03515e-05,4.16426e-06,0
4.99281e-05,3.18249e-05,-2.91298e-05,-6.86477e-06,-7.28655e-06,-1.98387e-07,2.11075e-05,4.22209e-06,0
3.99264e-05,3.54988e-05,-2.76798e-05,-1.15864e-05,-8.68269e-06,-1.59006e-05,2.02714e-05,4.04906e-06,0
3.19446e-05,2.29642e-05,-2.36694e-05,-1.24485e-05,-8.07989e-06,-2.41031e-05,1.82436e-05,3.90231e-06,0
2.24209e-05,7.92644e-06,-1.88501e-05,-1.02456e-05,-5.26988e-06,-2.39682e-05,1.58037e-05,3.37991e-06,0
1.37149e-05,-5.83175e-07,-1.51506e-05,-7.50986e-06,-9.77682e-07,-2.59345e-05,1.47187e-05,3.46845e-06,0
-2.76643e-06,1.33582e-05,-1.15104e-05,-5.01385e-06,3.26782e-06,-2.73162e-05,1.56129e-05,3.99137e-06,0
-3.31657e-05,4.58214e-05,-5.89272e-06,-2.3593e-06,1.03823e-05,-1.45665e-05,1.58593e-05,3.88656e-06,0
-7.65514e-05,6.62935e-05,-1.08294e-06,9.43585e-07,1.95209e-05,1.88511e-05,1.66164e-05,4.64811e-06,0
-0.000125791,5.26917e-05,2.5273e-07,6.30655e-06,2.49988e-05,3.66389e-05,2.1033e-05,7.08148e-06,0
-0.00016743,1.02836e-05,-1.73503e-06,1.17684e-05,2.50959e-05,1.51947e-05,2.6322e-05,8.20793e-06,0
-0.000194941,-3.89374e-05,-7.49872e-06,1.23417e-05,2.21519e-05,-2.43085e-05,2.73689e-05,6.43053e-06,0
-0.000207123,-7.83454e-05,-1.60185e-05,5.94511e-06,1.58822e-05,-4.58837e-05,2.59023e-05,4.91954e-06,0
-0.000210232,-0.000105324,-2.35657e-05,-6.39069e-07,8.72525e-06,-2.71589e-05,2.41258e-05,4.16813e-06,0
-0.000207966,-0.000123953,-2.63791e-05,5.81262e-07,5.45089e-06,1.14404e-05,2.01769e-05,4.22973e-06,0
-0.000196046,-0.000129307,-2.37634e-05,7.35763e-06,5.88889e-06,4.09129e-05,1.39964e-05,5.84999e-06,0
-0.000162589,-0.000115004,-1.64895e-05,1.20253e-05,6.02028e-06,6.56334e-05,8.57939e-06,6.9327e-06,0
-0.000105996,-8.88012e-05,-6.51525e-06,1.34778e-05,6.04013e-06,0.000106116,6.37574e-06,5.87061e-06,0
-4.87588e-05,-6.26378e-05,4.31187e-06,1.45573e-05,8.57039e-06,0.000129284,7.15414e-06,4.37493e-06,0
-2.64686e-05,-4.38343e-05,1.50646e-05,1.6352e-05,1.13916e-05,9.57946e-05,9.06058e-06,3.21535e-06,0
-4.0938e-05,-3.30664e-05,2.64419e-05,1.54374e-05,1.3364e-05,3.35663e-05,9.58947e-06,1.87636e-06,0
-6.19933e-05,-2.54666e-05,4.14436e-05,9.67075e-06,1.5982e-05,-6.72635e-06,9.58345e-06,2.09902e-06,0
-7.14898e-05,-1.81124e-05,6.06891e-05,2.65948e-06,1.72523e-05,-1.61795e-05,1.06675e-05,4.24584e-06,0
-6.78125e-05,-1.24426e-05,7.78582e-05,-3.16775e-07,1.47577e-05,-1.57608e-05,1.18001e-05,5.88347e-06,0
-5.46443e-05,-1.0253e-05,8.25437e-05,5.44096e-07,1.09713e-05,-1.9776e-05,1.14611e-05,3.83809e-06,0
-3.90999e-05,-1.10642e-05,6.6398e-05,4.06031e-09,8.51758e-06,-2.74177e-05,9.14023e-06,-2.04313e-08,0
-2.48056e-05,-1.00551e-05,3.15102e-05,-2.38763e-06,1.00745e-05,-3.62373e-05,5.873e-06,-8.89017e-07,0
-4.91672e-06,-2.7794e-06,-1.57856e-05,-4.13296e-06,1.53465e-05,-3.93159e-05,3.90293e-06,1.82394e-06,0
1.94868e-05,7.66339e-06,-5.77519e-05,-4.93739e-06,1.9591e-05,-2.9673e-05,1.06047e-06,2.21025e-06,0
3.38147e-05,1.57208e-05,-8.09734e-05,-2.5255e-06,2.26656e-05,-1.48533e-05,-4.54214e-06,6.82159e-07,0
3.30454e-05,2.24923e-05,-8.72552e-05,-1.14869e-06,2.30122e-05,-2.30819e-06,-6.88933e-06,8.64604e-07,0
2.02845e-05,2.94295e-05,-7.65096e-05,-3.07027e-06,2.1358e-05,1.24444e-05,-6.26162e-06,1.27268e-06,0
-7.48582e-06,3.56278e-05,-6.06617e-05,-5.12885e-06,2.61208e-05,2.88008e-05,-6.71188e-06,2.59823e-06,0
-4.62943e-05,3.68222e-05,-4.77532e-05,-1.00832e-05,3.22903e-05,3.88748e-05,-6.57816e-06,2.98614e-06,0
-7.81421e-05,3.44146e-05,-3.83235e-05,-1.61371e-05,3.18974e-05,4.21907e-05,-5.01136e-06,2.17063e-06,0
-8.99168e-05,3.31823e-05,-2.84813e-05,-1.96693e-05,2.59309e-05,4.17961e-05,-2.27487e-06,1.27162e-06,0
-8.16762e-05,3.46072e-05,-1.60565e-05,-1.97786e-05,1.98368e-05,3.81225e-05,3.7261e-06,1.44938e-07,0
-6.52858e-05,3.85395e-05,-3.76975e-06,-1.5862e-05,1.65352e-05,2.91296e-05,1.38253e-05,-3.31494e-07,0
-5.42811e-05,4.19358e-05,4.69588e-06,-7.74975e-06,1.15232e-05,1.95514e-05,2.38621e-05,-1.86744e-08,0
-4.48833e-05,4.2711e-05,7.21999e-06,4.19261e-06,4.23043e-06,1.0718e-05,3.03891e-05,6.56338e-07,0
-2.80306e-05,4.13907e-05,5.89248e-06,1.39728e-05,4.06627e-07,-8.47715e-08,3.23345e-05,6.37558e-07,0
-5.29628e-06,3.98439e-05,2.23174e-06,1.44627e-05,4.69746e-06,-1.70447e-05,2.99677e-05,8.5065e-07,0
1.44969e-05,3.79793e-05,-1.23348e-06,6.52703e-06,1.13842e-05,-4.25578e-05,2.31698e-05,1.66047e-06,0
2.64844e-05,3.62324e-05,-3.75407e-06,-3.9239e-06,1.20565e-05,-6.51725e-05,1.3762e-05,1.13359e-06,0
3.23228e-05,3.48874e-05,-3.64749e-06,-1.27476e-05,6.67562e-06,-6.75372e-05,6.35662e-06,3.78791e-07,0
2.92784e-05,3.41519e-05,-2.29444e-06,-1.98576e-05,1.87156e-06,-5.45242e-05,3.49532e-06,3.81435e-07,0
9.90336e-06,3.40503e-05,-1.4024e-06,-2.78599e-05,-3.374e-07,-4.17014e-05,3.40002e-06,-1.12802e-06,0
-2.08929e-05,3.36742e-05,-2.42373e-06,-3.77409e-05,-4.03825e-06,-3.28271e-05,4.07223e-06,-3.02146e-06,0
-4.66771e-05,3.07643e-05,-3.70027e-06,-4.50129e-05,-9.15372e-06,-2.34718e-05,6.99514e-06,-2.35968e-06,0
-6.39041e-05,2.6219e-05,-4.30471e-06,-4.35009e-05,-1.02279e-05,-1.43405e-05,1.21875e-05,2.21577e-07,0
-7.75949e-05,2.26792e-05,-4.96678e-06,-3.03547e-05,-4.94582e-06,-1.14421e-05,1.6777e-05,7.9201e-07,0
-7.71939e-05,2.331e-05,-6.27792e-06,-9.62106e-06,3.88891e-06,-1.09574e-05,1.97358e-05,1.06207e-06,0
-5.6191e-05,2.81892e-05,-6.85149e-06,6.10318e-06,1.15881e-05,-1.01861e-05,2.17958e-05,4.17025e-06,0
-3.26826e-05,3.34254e-05,-5.70776e-06,9.15612e-06,1.44198e-05,-1.32476e-05,2.28852e-05,6.16649e-06,0
-2.9856e-05,3.48418e-05,-3.77048e-06,6.08509e-06,1.34923e-05,-2.26816e-05,2.41755e-05,4.60127e-06,0
-5.32401e-05,3.13397e-05,-1.87185e-06,5.93366e-06,1.30732e-05,-2.76963e-05,2.39447e-05,3.21935e-06,0
-7.95345e-05,2.757e-05,4.83707e-08,1.47997e-05,1.72033e-05,-1.96421e-05,2.29623e-05,4.62577e-06,0
-5.95394e-05,2.83122e-05,1.32267e-06,2.48871e-05,2.45159e-05,-6.98285e-06,2.28246e-05,5.20649e-06,0
6.71176e-06,3.38193e-05,-3.65489e-07,2.68716e-05,2.95704e-05,8.43545e-06,2.0706e-05,4.57158e-06,0
6.29399e-05,4.17845e-05,-2.73447e-06,2.37604e-05,2.93092e-05,2.76188e-05,1.64343e-05,2.65958e-06,0
8.13787e-05,5.04025e-05,-2.68746e-06,1.83902e-05,2.6181e-05,3.68495e-05,1.3387e-05,-5.49499e-08,0
6.76522e-05,5.78452e-05,-5.14235e-07,1.40089e-05,2.40713e-05,2.93391e-05,1.28851e-05,-1.48154e-06,0
3.88992e-05,6.06651e-05,1.80988e-07,9.79256e-06,2.29121e-05,1.8024e-05,1.28015e-05,-1.50233e-06,0
4.73034e-06,5.73126e-05,-1.41191e-06,5.17947e-06,2.06098e-05,1.1612e-05,1.31461e-05,-9.22897e-07,0
-2.58444e-05,5.45833e-05,-3.26559e-06,6.46885e-07,1.75223e-05,8.12309e-06,1.35956e-05,4.92619e-07,0
-4.50966e-05,5.38178e-05,-4.25304e-06,-3.95484e-06,1.52645e-05,5.30529e-06,1.39451e-05,3.24484e-06,0
-4.68822e-05,5.10836e-05,-4.56741e-06,-8.3214e-06,1.27836e-05,1.80248e-06,1.33999e-05,4.33632e-06,0
-3.04288e-05,4.25407e-05,-4.28026e-06,-1.22022e-05,9.37303e-06,-6.76306e-06,1.15416e-05,3.30722e-06,0
-1.17048e-05,2.67038e-05,-4.3367e-06,-1.38833e-05,8.79571e-06,-1.99994e-05,9.42854e-06,2.21636e-06,0
-1.04795e-05,5.24124e-06,-5.1276e-06,-1.24527e-05,1.17869e-05,-2.86536e-05,9.02678e-06,2.79789e-06,0
-2.8056e-05,-1.94696e-05,-5.98676e-06,-8.80145e-06,1.44553e-05,-2.87118e-05,1.06563e-05,3.18547e-06,0
-3.9723e-05,-4.21334e-05,-5.73233e-06,-6.59965e-06,1.43802e-05,-2.49392e-05,1.24051e-05,2.31861e-06,0
-2.77791e-05,-5.49138e-05,-6.21203e-06,-8.14342e-06,1.24751e-05,-2.22704e-05,1.27188e-05,3.81186e-07,0
-1.62923e-06,-5.29721e-05,-8.88354e-06,-1.39542e-05,9.22432e-06,-2.03827e-05,1.11741e-05,-1.85273e-06,0
2.03462e-05,-3.9001e-05,-1.16229e-05,-1.95314e-05,5.509e-06,-1.94821e-05,9.15014e-06,-2.76391e-06,0
3.15171e-05,-1.74551e-05,-1.24492e-05,-1.76713e-05,6.07897e-06,-1.83159e-05,6.86953e-06,-2.54202e-06,0
3.06971e-05,4.73177e-06,-1.16575e-05,-7.73586e-06,1.09631e-05,-1.25917e-05,5.31174e-06,-2.54656e-06,0
2.3925e-05,2.1344e-05,-1.16027e-05,4.0799e-06,1.57622e-05,4.00858e-06,5.66552e-06,-3.90566e-06,0
1.89804e-05,2.96485e-05,-1.23441e-05,1.62424e-05,1.81776e-05,2.30975e-05,8.42719e-06,-5.49338e-06,0
1.93315e-05,3.11943e-05,-1.36493e-05,2.89167e-05,1.80343e-05,1.20726e-05,1.09635e-05,-6.2119e-06,0
2.27138e-05,2.96032e-05,-1.48958e-05,3.72015e-05,1.71523e-05,-2.45712e-05,1.07271e-05,-6.35421e-06,0
1.6934e-05,2.65905e-05,-1.49773e-05,3.69864e-05,1.34062e-05,-4.97116e-05,9.35669e-06,-6.26454e-06,0
-2.60817e-07,2.2833e-05,-1.30614e-05,2.68631e-05,6.67044e-06,-5.40856e-05,7.81562e-06,-5.24297e-06,0
-8.72225e-06,1.95208e-05,-1.01484e-05,1.16439e-05,4.45967e-06,-4.52898e-05,7.0238e-06,-4.91437e-06,0
1.65727e-06,1.70695e-05,-9.24029e-06,-2.74188e-06,9.42911e-06,-3.37161e-05,6.98351e-06,-6.70756e-06,0
2.03219e-05,1.46441e-05,-9.86723e-06,-1.50845e-05,1.62183e-05,-2.52974e-05,7.63722e-06,-8.20651e-06,0
3.51034e-05,1.15298e-05,-1.20003e-05,-2.96859e-05,1.94783e-05,-2.1118e-05,8.4384e-06,-9.14831e-06,0
4.16996e-05,1.1266e-05,-1.44228e-05,-4.50478e-05,1.88222e-05,-1.55445e-05,7.77181e-06,-9.90117e-06,0
4.42742e-05,1.86256e-05,-1.35953e-05,-5.3856e-05,1.60391e-05,-1.2462e-05,6.74191e-06,-8.31547e-06,0
4.40524e-05,3.58379e-05,-1.04309e-05,-5.31408e-05,1.31489e-05,-1.48082e-05,5.56142e-06,-5.54974e-06,0
3.72057e-05,5.88426e-05,-8.24626e-06,-4.65763e-05,1.08959e-05,-3.28408e-06,4.83415e-06,-3.93406e-06,0
2.06774e-05,8.20624e-05,-7.41458e-06,-3.82166e-05,1.18136e-05,2.24428e-05,3.48948e-06,-4.14564e-06,0
-2.96219e-06,0.000108077,-5.85459e-06,-3.16317e-05,1.58253e-05,3.32876e-05,2.54497e-06,-4.45815e-06,0
-3.47163e-05,0.000137657,-5.03346e-06,-3.36578e-05,1.87894e-05,2.81007e-05,3.72569e-06,-4.12492e-06,0
-7.26649e-05,0.000157351,-6.47081e-06,-4.30977e-05,1.61482e-05,3.08855e-05,5.3146e-06,-4.36896e-06,0
-0.000103741,0.000146835,-9.90136e-06,-5.04252e-05,8.75143e-06,3.99156e-05,7.32594e-06,-5.20447e-06,0
-0.000114378,0.000107212,-1.26363e-05,-4.82216e-05,2.0451e-06,3.61854e-05,1.06997e-05,-4.88636e-06,0
-9.97654e-05,5.70076e-05,-1.1745e-05,-3.94379e-05,-3.17279e-07,5.83273e-06,1.42547e-05,-2.90981e-06,0
-6.08614e-05,8.6497e-06,-8.26734e-06,-3.19349e-05,-3.31015e-07,-5.40046e-05,1.53156e-05,-9.05137e-07,0
-5.8077e-06,-3.49798e-05,-5.00368e-06,-2.81242e-05,-2.51479e-06,-0.000118605,1.41579e-05,4.09638e-07,0
3.86914e-05,-7.41458e-05,-3.72848e-06,-2.3304e-05,-4.8187e-06,-0.000121453,1.26839e-05,2.20626e-06,0
4.94989e-05,-0.000109357,-5.6815e-06,-1.67594e-05,-2.19609e-06,-4.53072e-05,1.1967e-05,4.91915e-06,0
3.69082e-05,-0.000132028,-9.46735e-06,-1.08716e-05,5.07002e-06,2.23817e-05,1.2518e-05,6.05404e-06,0
1.5633e-05,-0.00013766,-1.16975e-05,-3.82637e-06,1.03322e-05,2.07214e-05,1.64987e-05,5.91304e-06,0
-1.46735e-05,-0.000137298,-1.20873e-05,4.22791e-06,1.26875e-05,-9.59863e-06,2.07515e-05,6.01373e-06,0
-5.01088e-05,-0.000132597,-1.1457e-05,1.13795e-05,1.52522e-05,-2.68116e-05,2.1666e-05,4.77769e-06,0
-7.99458e-05,-0.000115448,-8.47684e-06,2.30844e-05,1.85044e-05,-3.71568e-05,1.99044e-05,1.674e-06,0
-9.85264e-05,-9.25377e-05,-2.36822e-06,3.57643e-05,2.03769e-05,-6.87174e-05,1.51144e-05,-1.00412e-06,0
-0.000117919,-7.33733e-05,4.34788e-06,3.91556e-05,2.12386e-05,-9.26715e-05,9.51518e-06,-3.50182e-06,0
-0.00014525,-6.40516e-05,5.58654e-06,3.40615e-05,2.42796e-05,-3.97584e-06,7.77516e-06,-6.1203e-06,0
-0.000178861,-7.17411e-05,5.54755e-07,2.38094e-05,2.74785e-05,0.000124191,8.90852e-06,-6.11905e-06,0
-0.000207956,-8.64103e-05,-3.70969e-06,1.40032e-05,2.54991e-05,0.00011094,8.61851e-06,-4.74109e-06,0
-0.000214349,-9.42387e-05,-4.02158e-06,8.1016e-06,1.61821e-05,2.02623e-06,7.58585e-06,-3.34739e-06,0
-0.000198084,-8.51511e-05,-4.40344e-06,5.39196e-06,3.46715e-06,-6.56041e-05,8.48424e-06,-1.03275e-06,0
-0.000172537,-6.23524e-05,-8.9179e-06,3.29119e-06,-3.6312e-06,-6.04024e-05,1.14538e-05,1.99777e-06,0
-0.000150928,-3.64349e-05,-1.38878e-05,2.14396e-07,-5.14456e-06,-3.18862e-05,1.43471e-05,4.78682e-06,0
-0.000134863,-1.89147e-05,-1.78639e-05,-9.6385e-06,-5.41588e-06,-1.4748e-05,1.53316e-05,5.93127e-06,0
-0.000113706,-8.54671e-06,-2.13838e-05,-2.5085e-05,-5.79755e-06,-1.00499e-05,1.41365e-05,5.95984e-06,0
-7.40366e-05,8.09545e-06,-2.44461e-05,-3.6138e-05,-3.85056e-06,-1.10197e-05,1.28748e-05,6.10595e-06,0
-2.48199e-05,2.92754e-05,-2.39964e-05,-3.03134e-05,-6.31173e-07,-1.1009e-05,1.30899e-05,7.88062e-06,0
1.07112e-05,4.34005e-05,-1.86004e-05,-3.97755e-06,-2.89905e-06,-1.13267e-05,1.46595e-05,9.54618e-06,0
2.24643e-05,4.74045e-05,-1.17954e-05,3.14224e-05,-8.48648e-06,-1.09726e-05,1.63709e-05,1.0315e-05,0
1.71415e-05,5.30166e-05,-7.68503e-06,6.37979e-05,-1.17302e-05,-1.16448e-05,1.72063e-05,1.04528e-05,0
8.32142e-06,6.60719e-05,-6.45333e-06,8.02175e-05,-1.13474e-05,-1.1992e-05,1.79783e-05,8.96891e-06,0
2.5765e-06,7.89497e-05,-4.91703e-06,7.36074e-05,-1.15402e-05,-1.28652e-05,1.90498e-05,7.00482e-06,0
-9.64502e-07,7.58073e-05,-4.1558e-06,4.91013e-05,-1.49954e-05,-9.5955e-06,2.02823e-05,5.23685e-06,0
-5.61061e-06,5.85565e-05,-6.11009e-06,1.93697e-05,-1.80842e-05,-5.41061e-06,2.03413e-05,4.51447e-06,0
-1.07417e-05,4.56302e-05,-1.08401e-05,-9.52091e-06,-1.30468e-05,-2.47229e-06,1.73187e-05,5.64641e-06,0
-9.3319e-06,4.58391e-05,-1.45235e-05,-3.371e-05,2.15492e-06,-2.82607e-06,1.27259e-05,6.43669e-06,0
9.11095e-06,4.9984e-05,-1.64649e-05,-4.56622e-05,2.22738e-05,-8.01379e-06,9.27557e-06,4.95649e-06,0
3.55413e-05,4.49971e-05,-1.77245e-05,-3.87343e-05,3.75454e-05,-1.63076e-05,7.22468e-06,3.24078e-06,0
4.85548e-05,3.18488e-05,-1.88424e-05,-1.95958e-05,4.52957e-05,-2.20325e-05,7.62009e-06,2.6665e-06,0
4.87348e-05,2.66653e-05,-1.85493e-05,-5.98114e-06,5.73875e-05,-2.64129e-05,1.15673e-05,2.92011e-06,0
3.85863e-05,3.66217e-05,-1.64057e-05,-7.57831e-06,7.76771e-05,-2.62026e-05,1.51737e-05,3.50472e-06,0
1.46447e-05,5.44421e-05,-1.24639e-05,-2.39148e-05,8.45183e-05,-1.5738e-05,1.56584e-05,4.72878e-06,0
6.54397e-07,7.81007e-05,-8.05829e-06,-5.39999e-05,6.39629e-05,-6.16825e-06,1.51575e-05,6.35052e-06,0
1.83886e-05,0.000102236,-7.31786e-06,-8.29072e-05,3.70864e-05,-1.07817e-05,1.57265e-05,6.8308e-06,0
4.14098e-05,0.000112608,-8.88274e-06,-9.65633e-05,1.84303e-05,-2.88241e-05,1.60866e-05,5.48177e-06,0
3.84053e-05,8.49849e-05,-9.47041e-06,-9.77814e-05,8.29195e-06,-4.40617e-05,1.54749e-05,2.77492e-06,0
1.18842e-06,2.67629e-05,-7.4874e-06,-8.58064e-05,1.4433e-05,-5.69289e-05,1.48808e-05,-9.17063e-07,0
-8.0576e-05,-2.16609e-05,-1.78809e-06,-6.43033e-05,3.73864e-05,-6.54378e-05,1.3732e-05,-3.03905e-06,0
-0.000192527,-2.18701e-05,4.77322e-06,-4.02671e-05,5.98605e-05,-6.66716e-05,1.3389e-05,-1.84189e-06,0
-0.000295226,3.06799e-05,8.51043e-06,-2.2114e-05,6.29507e-05,-6.0332e-05,1.39736e-05,8.60867e-07,0
-0.00035277,7.81364e-05,7.49028e-06,-1.21643e-05,5.00588e-05,-5.02526e-05,1.47609e-05,2.30007e-06,0
-0.000336237,9.19748e-05,2.59584e-06,-8.1794e-06,3.50154e-05,-4.25102e-05,1.7059e-05,1.852e-06,0
-0.000248013,9.26897e-05,-2.08425e-06,-8.0279e-06,2.76854e-05,-4.43884e-05,2.07034e-05,2.08796e-07,0
-0.000144082,9.05228e-05,-3.38259e-06,-9.27154e-06,2.60854e-05,-6.453e-05,2.30912e-05,-2.3993e-07,0
-6.27067e-05,7.56501e-05,-1.09464e-06,-9.89092e-06,2.43903e-05,-7.61923e-05,2.34978e-05,1.92841e-06,0
8.88408e-06,4.99579e-05,3.3413e-06,-7.81719e-06,2.13738e-05,-4.95223e-05,2.25007e-05,3.76202e-06,0
6.63851e-05,3.13749e-05,7.07418e-06,-5.11137e-06,1.53807e-05,-6.09349e-06,2.07935e-05,4.42513e-06,0
8.23247e-05,1.92493e-05,6.98228e-06,-5.65615e-06,6.64293e-06,9.65238e-06,1.96427e-05,4.60059e-06,0
5.70387e-05,-1.49452e-06,3.6845e-06,-9.46098e-06,2.99162e-07,-8.74028e-06,1.83063e-05,4.56948e-06,0
2.17613e-05,-3.99171e-05,6.54441e-07,-1.00496e-05,2.29346e-06,-3.29028e-05,1.65417e-05,4.70458e-06,0
-4.99066e-06,-8.53182e-05,-4.6603e-08,-4.62206e-06,8.08372e-06,-4.23311e-05,1.50715e-05,4.77441e-06,0
-1.70294e-05,-0.000121635,-1.49361e-06,8.16252e-07,1.03689e-05,-3.49132e-05,1.46794e-05,3.45824e-06,0
-1.63546e-05,-0.000134576,-6.36667e-06,1.13533e-06,8.02541e-06,-1.1545e-06,1.53096e-05,2.24078e-06,0
-1.34729e-05,-0.000125255,-1.1143e-05,-2.10354e-08,6.35421e-06,6.78775e-05,1.58424e-05,2.52801e-06,0
-1.21572e-05,-0.000100997,-1.21445e-05,-6.54398e-07,8.17981e-06,0.00011874,1.53373e-05,3.31894e-06,0
-6.26397e-06,-6.38714e-05,-1.18697e-05,-1.43002e-06,1.14266e-05,8.84709e-05,1.5443e-05,2.61782e-06,0
7.14905e-06,-1.66265e-05,-1.32853e-05,-2.01601e-06,9.88373e-06,2.13414e-05,1.7158e-05,-5.16832e-07,0
2.20641e-05,2.98899e-05,-1.65721e-05,-2.96647e-06,4.82585e-06,-8.8855e-06,1.97621e-05,-3.96695e-06,0
3.0904e-05,5.21534e-05,-1.81566e-05,-3.50994e-06,4.44051e-06,-3.28167e-06,2.26763e-05,-5.27642e-06,0
3.32714e-05,3.88549e-05,-1.7689e-05,-5.0214e-06,7.93649e-06,8.8842e-06,2.36588e-05,-4.18936e-06,0
3.07175e-05,1.15569e-05,-1.71829e-05,-8.70387e-06,5.57196e-06,1.59867e-05,2.19298e-05,-3.10797e-06,0
2.9357e-05,-2.12289e-06,-1.77157e-05,-9.62279e-06,-5.78996e-06,1.91635e-05,1.9718e-05,-3.49462e-06,0
4.1197e-05,6.42223e-06,-1.84637e-05,-9.34853e-06,-2.13929e-05,1.95508e-05,1.81758e-05,-5.38081e-06,0
5.10454e-05,2.48947e-05,-1.72412e-05,-7.61046e-06,-3.81878e-05,1.65869e-05,1.58297e-05,-7.19743e-06,0
3.88816e-05,3.43107e-05,-1.45511e-05,-2.5904e-06,-4.37917e-05,1.37996e-05,1.21139e-05,-7.7052e-06,0
2.02198e-05,2.49228e-05,-1.30906e-05,1.0195e-06,-9.34343e-06,1.47483e-05,8.49541e-06,-8.02243e-06,0
7.91976e-06,5.00624e-06,-1.53285e-05,1.59103e-06,5.51586e-05,1.82103e-05,4.72179e-06,-9.08521e-06,0
-9.56292e-07,-9.66016e-06,-1.9635e-05,5.9126e-07,0.000100289,1.98553e-05,4.48318e-07,-9.70799e-06,0
-6.8783e-06,-7.53263e-06,-2.38023e-05,-5.50493e-07,8.41109e-05,1.66184e-05,-3.46907e-06,-1.01638e-05,0
-5.37047e-06,1.50934e-05,-2.55437e-05,-9.81353e-07,1.37984e-05,1.11202e-05,-4.55482e-06,-1.05406e-05,0
6.67002e-06,4.55169e-05,-2.38044e-05,6.91389e-07,-3.81586e-05,6.90671e-06,-2.19997e-06,-8.74363e-06,0
2.804e-05,7.10055e-05,-1.86724e-05,4.95441e-06,-3.74611e-05,5.949e-06,1.65335e-06,-6.43208e-06,0
5.82212e-05,8.64559e-05,-1.31173e-05,1.31857e-05,-1.36921e-05,7.59588e-06,5.0084e-06,-6.20974e-06,0
8.5865e-05,9.43696e-05,-1.02146e-05,2.25513e-05,-6.72582e-06,7.88459e-06,6.88978e-06,-7.58506e-06,0
9.42538e-05,9.39137e-05,-9.43898e-06,3.02852e-05,-1.91461e-05,6.44709e-06,7.69984e-06,-9.18669e-06,0
7.53029e-05,7.80769e-05,-8.63943e-06,3.77734e-05,-3.38055e-05,7.55483e-06,8.68526e-06,-9.20845e-06,0
4.05571e-05,4.66459e-05,-6.49665e-06,4.39455e-05,-4.13682e-05,1.1724e-05,1.07738e-05,-6.89136e-06,0
1.04391e-05,1.34969e-05,-3.42445e-06,4.37892e-05,-3.6267e-05,1.11182e-05,1.22576e-05,-4.82109e-06,0
-2.06985e-06,-1.25264e-05,-6.49274e-07,3.86515e-05,-1.94447e-05,2.89939e-06,1.38308e-05,-4.96521e-06,0
2.30814e-06,-3.34276e-05,2.82504e-07,3.32766e-05,2.13459e-06,-9.83835e-06,1.62694e-05,-6.83073e-06,0
2.01725e-06,-4.55445e-05,-1.06301e-06,2.67846e-05,1.89318e-05,-2.89635e-05,1.75966e-05,-9.10007e-06,0
-2.20158e-05,-4.52934e-05,-4.32951e-06,1.80498e-05,2.44448e-05,-4.9234e-05,1.47292e-05,-9.36174e-06,0
-5.47787e-05,-3.73523e-05,-7.38557e-06,9.76855e-06,1.54923e-05,-5.86548e-05,1.06126e-05,-8.0812e-06,0
-7.85202e-05,-2.76391e-05,-9.49632e-06,2.88538e-06,6.88572e-06,-5.56431e-05,9.6223e-06,-5.44438e-06,0
-9.34476e-05,-2.19941e-05,-1.11926e-05,5.05958e-07,8.19512e-06,-4.72336e-05,1.1506e-05,-8.21801e-07,0
-0.0001047,-1.7678e-05,-1.15923e-05,2.88461e-06,1.42147e-05,-4.52953e-05,1.35804e-05,1.84233e-06,0
-9.95176e-05,-5.15464e-06,-9.65502e-06,1.90932e-06,1.68391e-05,-5.05034e-05,1.33417e-05,2.39703e-06,0
-6.19502e-05,1.10146e-05,-7.84503e-06,-1.18342e-06,1.5719e-05,-4.5368e-05,1.05564e-05,1.69206e-06,0
-2.14147e-05,2.02201e-05,-7.58264e-06,-4.572e-06,1.27143e-05,-7.54329e-06,4.44643e-06,7.29825e-07,0
-1.22399e-06,2.47299e-05,-7.1548e-06,-1.38712e-05,1.0871e-05,4.51161e-05,-3.41201e-06,2.7781e-06,0
1.72117e-05,3.72725e-05,-7.73783e-06,-2.75967e-05,1.21675e-05,5.69353e-05,-9.20867e-06,5.41641e-06,0
3.67077e-05,5.79133e-05,-8.14895e-06,-3.41754e-05,1.60629e-05,2.76671e-05,-1.0006e-05,6.03471e-06,0
3.17575e-05,6.33184e-05,-7.78548e-06,-3.0914e-05,1.90916e-05,-1.71599e-05,-8.22098e-06,4.40396e-06,0
-1.88529e-06,4.53438e-05,-7.5273e-06,-2.4431e-05,2.23382e-05,-6.11222e-05,-4.97094e-06,3.18698e-06,0
-4.99497e-05,2.42338e-05,-7.36828e-06,-1.86866e-05,3.04371e-05,-6.02775e-05,-2.46732e-07,3.54738e-06,0
-0.000108323,1.7052e-05,-7.57238e-06,-1.51799e-05,3.92312e-05,-1.33538e-05,4.84698e-06,3.49566e-06,0
-0.000168136,1.61448e-05,-8.94118e-06,-1.44729e-05,4.03071e-05,1.44432e-05,1.03842e-05,2.99892e-06,0
-0.000199638,5.73207e-06,-1.15702e-05,-1.83382e-05,3.22446e-05,-4.48521e-06,1.39113e-05,3.90526e-06,0
-0.000181084,-9.00643e-06,-1.49247e-05,-2.42632e-05,1.9229e-05,-4.82571e-05,1.59398e-05,6.2084e-06,0
-0.00013672,-1.89373e-05,-1.78913e-05,-2.71254e-05,7.14014e-06,-9.83044e-05,1.8741e-05,7.31082e-06,0
-0.000102294,-3.15336e-05,-1.86269e-05,-2.50429e-05,4.35287e-06,-0.000117675,2.31129e-05,5.70323e-06,0
-7.40254e-05,-5.38362e-05,-1.70632e-05,-1.88415e-05,9.88556e-06,-6.95883e-05,2.7209e-05,1.63531e-06,0
-3.57909e-05,-5.75094e-05,-1.39697e-05,-8.02533e-06,1.61305e-05,-2.04484e-06,2.80362e-05,-2.24703e-06,0
1.79043e-06,-2.21141e-05,-1.03095e-05,6.13883e-06,1.7084e-05,-6.73262e-06,2.62817e-05,-3.37033e-06,0
1.48186e-05,1.49615e-05,-6.99587e-06,1.86124e-05,1.69161e-05,-6.64914e-05,2.47564e-05,-2.39946e-06,0
1.07279e-06,1.50225e-05,-4.98936e-06,2.7173e-05,1.93312e-05,-5.74803e-05,2.37382e-05,-8.1245e-07,0
-2.19946e-05,-7.68115e-06,-3.32004e-06,3.29433e-05,2.53469e-05,4.68645e-05,2.25491e-05,9.76803e-07,0
-3.81413e-05,-2.33269e-05,-2.94959e-07,3.26039e-05,3.42933e-05,0.000131623,2.20328e-05,3.75308e-06,0
-4.39369e-05,-2.75592e-05,6.08195e-06,2.20786e-05,4.11072e-05,0.000143278,2.29424e-05,1.44563e-05,0
-4.95748e-05,-3.29603e-05,1.61118e-05,7.96052e-06,3.82746e-05,8.60046e-05,2.42281e-05,3.23931e-05,0
-5.76123e-05,-4.11201e-05,2.98173e-05,1.73044e-07,2.66703e-05,1.24731e-06,2.31268e-05,4.18993e-05,0
-6.19255e-05,-3.08189e-05,4.70797e-05,6.56869e-07,1.7256e-05,-1.96644e-05,2.12993e-05,3.45584e-05,0
-6.26916e-05,1.52846e-06,6.30448e-05,3.51823e-06,1.44643e-05,9.92749e-06,2.07306e-05,2.02741e-05,0
-5.64181e-05,2.40485e-05,6.52989e-05,5.3395e-06,1.35969e-05,1.88987e-05,2.08548e-05,9.16132e-06,0
-1.97112e-05,3.20188e-05,4.53136e-05,1.03035e-05,9.73375e-06,-9.65415e-07,2.08136e-05,7.58685e-07,0
3.76498e-05,7.34251e-05,5.95799e-06,1.63929e-05,3.96634e-06,-1.48042e-05,1.98977e-05,-9.0053e-06,0
7.49751e-05,0.000144696,-3.97006e-05,1.71741e-05,2.51508e-07,-1.26415e-05,1.82058e-05,-2.05791e-05,0
8.76586e-05,0.000174856,-7.7196e-05,1.49263e-05,1.50246e-07,-2.377e-06,1.49619e-05,-2.89931e-05,0
7.44295e-05,0.000145295,-0.000100032,1.16846e-05,2.88177e-06,1.00953e-05,1.15726e-05,-3.26383e-05,0
2.59142e-05,9.28305e-05,-0.000105329,7.37858e-06,6.91237e-06,1.44741e-05,1.0215e-05,-3.20894e-05,0
-5.02965e-05,4.14809e-05,-9.5457e-05,4.28392e-06,1.01968e-05,9.45681e-06,9.91379e-06,-2.91001e-05,0
-0.000127735,-9.11228e-06,-7.58565e-05,4.95441e-06,8.70509e-06,-4.49719e-06,7.93678e-06,-2.62363e-05,0
-0.000165884,-5.02566e-05,-5.50751e-05,7.54804e-06,2.17541e-06,-2.14896e-05,6.98936e-06,-2.40164e-05,0
-0.000151328,-6.19243e-05,-3.95212e-05,9.06031e-06,-7.6869e-08,-3.62782e-05,6.18155e-06,-2.11644e-05,0
-0.000113306,-3.81856e-05,-2.85787e-05,7.50063e-06,7.96498e-06,-3.89275e-05,6.96159e-07,-1.54943e-05,0
-7.98788e-05,7.96133e-06,-1.92366e-05,5.64176e-07,1.68884e-05,-2.42205e-05,-7.11204e-06,-8.51263e-06,0
-5.2476e-05,5.80968e-05,-1.06161e-05,-7.71426e-06,1.28739e-05,-5.03722e-06,-1.22492e-05,-3.75195e-06,0
-2.15933e-05,9.53305e-05,-4.67318e-06,-1.14528e-05,-4.85076e-06,3.1697e-06,-1.20426e-05,-1.73813e-06,0
8.48059e-07,0.000105747,-1.82859e-06,-1.09449e-05,-2.23086e-05,3.05024e-06,-7.07293e-06,-1.10112e-07,0
-1.54753e-05,9.80805e-05,-4.83146e-07,-1.0548e-05,-2.49017e-05,1.29213e-06,3.17048e-07,2.20803e-06,0
-7.73032e-05,9.3711e-05,5.06782e-07,-1.0904e-05,-1.45915e-05,-2.31257e-06,7.43401e-06,4.1161e-06,0
-0.000163175,9.29521e-05,3.08978e-07,-1.195e-05,-5.35474e-06,-9.81265e-06,1.41191e-05,5.02721e-06,0
-0.000238173,7.62682e-05,-1.87902e-06,-1.2845e-05,-7.5767e-06,-2.56124e-05,2.04698e-05,5.54798e-06,0
-0.000268341,5.21993e-05,-3.49804e-06,-1.09272e-05,-1.79319e-05,-4.94989e-05,2.65964e-05,5.39942e-06,0
-0.000236312,3.78894e-05,-1.77852e-06,-7.65414e-06,-2.28067e-05,-6.90059e-05,3.13696e-05,4.09358e-06,0
-0.000154905,7.13955e-06,1.68404e-06,-9.31005e-06,-1.58617e-05,-6.8822e-05,3.36184e-05,2.91553e-06,0
-7.36563e-05,-7.82456e-05,2.57663e-06,-1.62711e-05,-9.60745e-06,-6.36871e-05,3.18254e-05,2.98911e-06,0
-4.77551e-05,-0.000176538,-8.4375e-08,-1.96595e-05,-1.26497e-05,-7.96058e-05,2.69536e-05,3.14921e-06,0
-8.12848e-05,-0.000199881,-1.13463e-07,-1.47689e-05,-1.57164e-05,-9.42625e-05,2.2302e-05,2.61006e-06,0
-0.000123595,-0.000139072,2.03159e-06,-3.00421e-06,-6.91368e-06,-7.86365e-05,1.99483e-05,2.59337e-06,0
-7.22242e-05,-2.6677e-05,2.96258e-06,1.33605e-05,1.82022e-05,-2.02807e-05,1.94434e-05,2.62084e-06,0
8.9673e-05,7.11321e-05,5.33829e-06,2.06311e-05,4.62772e-05,3.57298e-05,1.78789e-05,2.43855e-06,0
0.000225741,8.94376e-05,8.19671e-06,1.32645e-05,5.82044e-05,4.50859e-05,1.50709e-05,2.70282e-06,0
0.000239806,5.20511e-05,7.95534e-06,4.92725e-06,4.98099e-05,3.34995e-05,1.34343e-05,2.9084e-06,0
0.000156273,1.35345e-05,4.64192e-06,3.45003e-06,4.25249e-05,2.50394e-05,1.364e-05,4.58208e-06,0
5.88788e-05,1.16917e-05,2.73221e-06,5.51015e-06,6.3969e-05,6.93565e-05,1.23217e-05,8.5065e-06,0
-1.60866e-05,3.91551e-05,7.37109e-07,2.48185e-06,0.000100437,0.000111114,1.01295e-05,1.11162e-05,0
-4.5037e-05,7.26261e-05,-2.88359e-06,-2.55722e-06,0.000112971,7.87711e-05,7.21199e-06,9.40765e-06,0
-2.17083e-05,9.49061e-05,-7.83473e-06,-7.35973e-06,9.24631e-05,1.89975e-05,5.11921e-06,7.50622e-06,0
1.89385e-06,9.42211e-05,-1.20979e-05,-1.24894e-05,6.36014e-05,-1.82569e-05,5.87452e-06,8.01407e-06,0
-1.40428e-05,6.75652e-05,-1.15603e-05,-1.61141e-05,4.43226e-05,-2.0684e-05,6.52996e-06,9.58464e-06,0
-4.77772e-05,3.16544e-05,-8.10394e-06,-1.65953e-05,3.49856e-05,-5.3636e-07,4.78029e-06,1.12027e-05,0
-2.74174e-05,1.4463e-05,-6.38379e-06,-1.61734e-05,2.92012e-05,2.49429e-05,1.80612e-06,1.14863e-05,0
6.50876e-05,1.64553e-05,-6.2043e-06,-1.59219e-05,2.25262e-05,3.67443e-05,9.98652e-07,1.14175e-05,0
0.000161424,1.95814e-05,-3.35882e-06,-1.29303e-05,1.63155e-05,3.27422e-05,1.76242e-06,1.17496e-05,0
0.000172529,1.11583e-05,5.13644e-08,-1.12055e-05,1.07574e-05,1.01997e-05,3.12634e-06,1.1672e-05,0
8.699e-05,1.6329e-06,-2.67584e-08,-1.45757e-05,4.19892e-06,-2.57325e-05,5.36254e-06,9.49706e-06,0
-1.65636e-05,4.10759e-06,-4.58292e-06,-2.02453e-05,-3.5671e-06,-5.52519e-05,9.5213e-06,5.72038e-06,0
-5.48733e-05,1.86061e-05,-9.09146e-06,-2.08909e-05,-7.46434e-06,-6.34572e-05,1.52955e-05,3.74637e-06,0
-2.23872e-05,3.4481e-05,-9.07975e-06,-1.68595e-05,-4.04673e-06,-6.10532e-05,2.0869e-05,5.69998e-06,0
4.44341e-05,4.77385e-05,-6.74245e-06,-1.27832e-05,1.5443e-06,-5.46274e-05,2.37357e-05,8.69123e-06,0
0.000110269,5.02933e-05,-5.81915e-06,-1.13199e-05,-4.14471e-06,-3.83919e-05,2.34889e-05,9.95353e-06,0
0.000143272,4.16738e-05,-5.78898e-06,-8.71103e-06,-2.40364e-05,-1.0217e-05,2.245e-05,1.00603e-05,0
0.00013434,3.9986e-05,-3.61215e-06,-4.07042e-06,-3.55301e-05,3.78816e-06,2.23251e-05,9.29451e-06,0
7.98956e-05,5.0836e-05,7.75866e-07,-1.35938e-06,-8.96613e-06,-2.54624e-05,2.20534e-05,8.56952e-06,0
-3.23712e-06,4.95281e-05,2.87946e-06,-5.38229e-06,4.36825e-05,-7.05279e-05,2.10654e-05,8.83804e-06,0
-6.27787e-05,1.42261e-05,2.38028e-06,-1.49073e-05,7.7242e-05,-9.07017e-05,2.18058e-05,8.6496e-06,0
-8.92832e-05,-5.73655e-05,1.91996e-06,-3.08553e-05,8.02828e-05,-8.66623e-05,2.29555e-05,9.30454e-06,0
-0.000106185,-0.000122424,2.03734e-07,-5.22564e-05,6.91035e-05,-6.77647e-05,2.19755e-05,1.10964e-05,0
-0.000118699,-0.000142083,-4.18458e-06,-6.37303e-05,4.82634e-05,-4.20733e-05,1.99247e-05,1.18116e-05,0
-0.00012491,-0.00010546,-8.57263e-06,-5.72339e-05,2.34499e-05,-2.03303e-05,1.77302e-05,1.20742e-05,0
-0.000123869,-3.64106e-05,-9.32066e-06,-3.98323e-05,7.87036e-06,1.48248e-05,1.52812e-05,1.0563e-05,0
-0.000121952,6.7892e-07,-8.715e-06,-1.94912e-05,1.03102e-05,4.76216e-05,1.16918e-05,9.02497e-06,0
-9.98327e-05,1.92751e-06,-7.60161e-06,-7.59131e-08,2.01062e-05,3.89735e-05,8.10219e-06,8.54743e-06,0
-5.77635e-05,-1.51787e-05,-6.43323e-06,1.64652e-05,1.7395e-05,6.97948e-06,6.4105e-06,7.3085e-06,0
-2.03672e-05,-2.87428e-05,-6.05113e-06,3.48194e-05,-1.26801e-05,-1.33274e-05,5.58604e-06,7.45356e-06,0
-4.50744e-06,-2.85491e-05,-6.19902e-06,5.02556e-05,-6.36219e-05,-1.25407e-05,6.6068e-06,9.40646e-06,0
-9.17388e-06,-2.11374e-05,-6.08298e-06,5.42327e-05,-8.87408e-05,-9.38617e-06,6.8834e-06,1.06227e-05,0
-2.16005e-05,-2.28677e-05,-3.85731e-06,4.71094e-05,-6.88503e-05,-1.99559e-05,4.56198e-06,1.02194e-05,0
-3.20328e-05,-3.43708e-05,-7.40139e-07,3.56449e-05,-3.56491e-05,-3.51024e-05,1.60335e-06,9.83601e-06,0
-3.43109e-05,-3.3363e-05,1.7134e-06,2.69377e-05,-1.63805e-05,-3.2997e-05,1.19579e-06,8.81372e-06,0
-2.92225e-05,-1.99922e-05,2.73954e-06,2.18208e-05,-1.09993e-05,-6.67715e-06,3.30806e-06,7.17916e-06,0
-1.42558e-05,-4.82895e-06,2.12549e-06,1.60557e-05,-1.9387e-05,9.24275e-06,5.91891e-06,6.31469e-06,0
4.3361e-06,4.48471e-06,6.95173e-07,7.65653e-06,-4.5417e-05,-7.72817e-06,7.76176e-06,5.60773e-06,0
1.03015e-05,1.16177e-05,8.40475e-07,-3.42005e-07,-6.66471e-05,-2.43709e-05,6.92217e-06,4.31167e-06,0
-6.89737e-06,1.45133e-05,3.13382e-06,-5.56893e-06,-4.79039e-05,-1.31141e-06,4.45402e-06,1.59405e-06,0
-3.38186e-05,1.38868e-05,5.65997e-06,-1.12009e-05,1.05999e-05,4.44552e-05,2.76571e-06,-1.35718e-06,0
-4.76601e-05,1.51212e-05,7.72548e-06,-2.76526e-05,6.89188e-05,6.33601e-05,1.94742e-06,-1.91042e-06,0
-3.44866e-05,2.51746e-05,8.88158e-06,-5.41389e-05,9.7573e-05,4.63758e-05,6.31647e-07,-2.38169e-07,0
7.01748e-06,3.83108e-05,8.75477e-06,-6.68486e-05,9.16377e-05,2.923e-05,1.10178e-06,1.56928e-06,0
6.08324e-05,4.64922e-05,6.77004e-06,-5.38675e-05,6.95591e-05,2.3154e-05,3.1136e-06,2.7826e-06,0
6.8444e-05,4.74916e-05,3.99442e-06,-3.60298e-05,5.78904e-05,2.06539e-05,4.25742e-06,2.78158e-06,0
3.41515e-07,5.04748e-05,2.99385e-06,-2.93366e-05,6.07872e-05,1.81691e-05,3.10082e-06,3.04874e-06,0
-8.48646e-05,5.81841e-05,3.34201e-06,-2.7463e-05,6.28425e-05,1.36023e-05,1.31539e-06,4.93633e-06,0
-0.000116487,6.2881e-05,2.54901e-06,-2.50418e-05,5.36324e-05,-9.5962e-06,6.54259e-07,7.33073e-06,0
-8.99552e-05,6.26912e-05,7.43079e-07,-2.56261e-05,4.07684e-05,-5.10276e-05,-2.40282e-07,7.20798e-06,0
-6.64584e-05,6.48329e-05,-1.29393e-07,-2.41129e-05,2.8391e-05,-8.8581e-05,-1.80518e-06,5.63333e-06,0
-6.66938e-05,7.98016e-05,-1.60757e-06,-2.16636e-05,1.60668e-05,-0.000122913,-2.20079e-06,5.31417e-06,0
-6.75457e-05,8.89819e-05,-5.91271e-06,-2.41579e-05,5.52529e-06,-0.000144132,-2.60747e-06,4.9231e-06,0
-5.65229e-05,7.16578e-05,-1.20972e-05,-2.65373e-05,-1.62308e-06,-0.00014417,-2.95833e-06,4.42142e-06,0
-3.05963e-05,2.60501e-05,-1.68912e-05,-2.38604e-05,-1.6911e-06,-0.000131552,-2.1442e-07,4.56913e-06,0
3.7673e-06,-3.2725e-05,-1.78766e-05,-1.49107e-05,3.41505e-06,-0.00011518,4.84304e-06,5.05386e-06,0
1.54506e-05,-6.76734e-05,-1.68961e-05,-3.70421e-06,1.09377e-05,-7.42444e-05,8.60231e-06,4.50569e-06,0
-2.68538e-05,-6.33402e-05,-1.55071e-05,5.9481e-06,1.76758e-05,3.56272e-05,1.0465e-05,4.27574e-06,0
-0.000107655,-4.62783e-05,-1.51759e-05,1.13812e-05,2.1823e-05,0.000172694,1.29572e-05,4.04328e-06,0
-0.000186715,-3.5213e-05,-1.71773e-05,1.34195e-05,2.24049e-05,0.000224097,1.61537e-05,3.24548e-06,0
-0.000223325,-3.38238e-05,-2.04973e-05,1.50796e-05,1.88266e-05,0.00016088,2.08781e-05,3.33752e-06,0
-0.000206524,-3.86806e-05,-2.25359e-05,1.8423e-05,1.59903e-05,6.09922e-05,2.72183e-05,3.05268e-06,0
-0.000161312,-3.94187e-05,-2.23575e-05,2.43297e-05,2.28819e-05,5.36075e-06,3.25435e-05,1.47383e-06,0
-0.000118556,-3.00221e-05,-2.14504e-05,2.91435e-05,5.65936e-05,3.0773e-07,3.50715e-05,9.77655e-07,0
-8.96463e-05,-1.98767e-05,-2.09683e-05,2.52386e-05,0.000118193,1.45355e-05,3.52455e-05,2.31147e-06,0
-7.26293e-05,-1.56138e-05,-2.11973e-05,1.36255e-05,0.000163778,1.98307e-05,3.30549e-05,2.85296e-06,0
-6.23676e-05,-8.94056e-06,-2.16428e-05,3.86927e-06,0.000142994,8.47516e-06,2.89645e-05,7.9833e-07,0
-5.02404e-05,2.60155e-09,-2.16526e-05,-1.61196e-07,5.36423e-05,3.49004e-06,2.50495e-05,-3.03549e-06,0
-3.31738e-05,2.39175e-06,-2.08121e-05,-3.37898e-06,-4.35746e-05,1.39221e-05,2.34206e-05,-5.16434e-06,0
-1.70167e-05,-3.64328e-07,-2.02213e-05,-1.08529e-05,-8.09842e-05,1.37585e-05,2.36181e-05,-4.34467e-06,0
-6.39051e-06,2.97986e-06,-2.10436e-05,-1.91736e-05,-6.70701e-05,1.45873e-06,2.33514e-05,-3.88037e-06,0
-7.99425e-07,1.57376e-05,-2.23358e-05,-2.58132e-05,-5.77426e-05,-2.55973e-06,2.1294e-05,-4.86709e-06,0
-2.67558e-06,3.14843e-05,-2.18594e-05,-3.91017e-05,-7.42265e-05,-1.3107e-06,1.89397e-05,-5.07912e-06,0
-1.37333e-05,4.25467e-05,-2.19799e-05,-5.76768e-05,-0.000100008,-2.29317e-06,1.74191e-05,-5.60327e-06,0
-3.0482e-05,4.28856e-05,-2.27443e-05,-6.76614e-05,-0.000123032,-6.86417e-06,1.49546e-05,-7.57699e-06,0
-5.08382e-05,2.92206e-05,-2.17745e-05,-8.90093e-05,-0.000122468,-1.22956e-05,9.94588e-06,-9.63845e-06,0
-6.66268e-05,7.89034e-06,-2.27361e-05,-0.000155509,-8.32447e-05,-1.80637e-05,5.49986e-06,-1.2321e-05,0
-6.4905e-05,-1.01796e-05,-2.64878e-05,-0.000207499,-3.28341e-05,-2.02956e-05,4.47247e-06,-1.51818e-05,0
-4.96324e-05,-1.79577e-05,-3.05015e-05,-0.000186941,8.1056e-06,-2.03511e-05,4.70888e-06,-1.53588e-05,0
-2.87332e-05,-1.69285e-05,-3.32683e-05,-0.000132035,3.07523e-05,-1.96133e-05,5.16591e-06,-1.50963e-05,0
-1.20015e-05,-6.8521e-06,-3.29952e-05,-8.7749e-05,3.90453e-05,-1.71797e-05,6.19416e-06,-1.60409e-05,0
-4.09894e-06,1.21994e-05,-2.90269e-05,-6.41911e-05,4.9902e-05,-1.46411e-05,8.33434e-06,-1.72646e-05,0
-6.64298e-06,3.00707e-05,-2.35597e-05,-3.57589e-05,6.16489e-05,-1.58839e-05,9.44713e-06,-1.75652e-05,0
-1.32848e-05,3.86362e-05,-1.99946e-05,5.08391e-06,5.80541e-05,-2.27632e-05,8.95054e-06,-1.60557e-05,0
-1.63431e-05,3.6728e-05,-1.87496e-05,5.79497e-05,3.77941e-05,-3.08499e-05,8.36697e-06,-1.44043e-05,0
-1.4937e-05,3.41227e-05,-1.85551e-05,0.000110785,2.59958e-05,-3.32633e-05,7.86908e-06,-1.25509e-05,0
-1.07568e-05,3.92741e-05,-1.59462e-05,0.000148954,2.81107e-05,-2.04652e-05,7.3096e-06,-9.0868e-06,0
-7.19541e-06,5.35695e-05,-9.09579e-06,0.000169575,3.17839e-05,5.80302e-06,6.80885e-06,-5.49054e-06,0
-6.56542e-06,6.98088e-05,-1.48169e-06,0.000176594,2.65862e-05,2.67559e-05,6.20827e-06,-4.8082e-06,0
-8.03774e-06,7.39326e-05,3.43603e-06,0.000173811,1.67728e-05,2.98188e-05,5.63233e-06,-6.51057e-06,0
-6.46066e-06,5.28115e-05,5.70578e-06,0.000156212,1.39273e-05,2.59548e-05,6.40461e-06,-6.74249e-06,0
-5.31031e-06,-1.00678e-05,7.30893e-06,0.00012734,2.29188e-05,3.21182e-05,8.6765e-06,-4.40995e-06,0
-3.20079e-06,-0.000108255,1.11143e-05,9.01746e-05,3.87941e-05,4.51205e-05,1.05296e-05,-1.40251e-06,0
9.75957e-06,-0.000177967,2.11403e-05,5.29523e-05,5.04498e-05,3.94877e-05,1.12021e-05,1.02066e-06,0
3.55864e-05,-0.00014368,3.81056e-05,1.74825e-05,5.38327e-05,1.39004e-05,1.31337e-05,2.71265e-06,0
5.36437e-05,-1.11585e-05,6.10508e-05,-1.37863e-05,5.2887e-05,-5.06698e-07,1.49844e-05,3.88698e-06,0
4.91459e-05,0.000126518,8.58483e-05,-3.72025e-05,5.47305e-05,8.61347e-07,1.42712e-05,3.83616e-06,0
3.15825e-05,0.000189656,0.00010322,-4.77405e-05,5.74595e-05,-1.8152e-05,1.18475e-05,3.04044e-06,0
1.64892e-05,0.000188112,0.000104194,-4.99711e-05,5.626e-05,-7.63932e-05,1.15856e-05,2.2762e-06,0
4.92843e-06,0.000152719,8.58833e-05,-4.62535e-05,4.82578e-05,-0.000131029,1.45478e-05,1.8921e-06,0
-2.83165e-05,9.53384e-05,5.08095e-05,-3.7467e-05,3.69321e-05,-0.000120837,1.67945e-05,1.56376e-06,0
-0.000102707,4.72624e-05,5.13512e-06,-2.9065e-05,2.70736e-05,-7.65487e-05,1.66302e-05,2.35672e-06,0
-0.000188241,1.07233e-05,-4.42969e-05,-2.54791e-05,2.02972e-05,-5.68198e-05,1.61718e-05,4.29196e-06,0
-0.000229841,-9.24338e-06,-8.00395e-05,-2.09227e-05,1.63505e-05,-5.11291e-05,1.67574e-05,3.66739e-06,0
-0.00020918,1.61639e-05,-8.94026e-05,-1.27589e-05,1.27493e-05,-3.11041e-05,1.28732e-05,4.58972e-07,0
-0.00015564,5.5211e-05,-8.04972e-05,-5.98686e-06,7.27256e-06,1.25514e-06,4.9697e-06,8.23978e-07,0
-0.000106693,6.15384e-05,-6.29393e-05,-2.9309e-06,1.98619e-06,9.38432e-06,-9.97252e-07,2.9012e-06,0
-6.24526e-05,3.34103e-05,-4.75815e-05,-2.16188e-06,-3.95196e-06,-4.67002e-06,-2.82374e-06,2.70006e-06,0
-1.04357e-05,1.1121e-05,-3.74036e-05,2.66075e-07,-8.44776e-06,-1.06403e-05,-7.42356e-08,1.22326e-06,0
2.35559e-05,1.16214e-05,-3.10527e-05,4.7296e-07,-1.00051e-05,4.25735e-06,6.60081e-06,-1.66036e-06,0
2.99519e-05,1.73083e-05,-2.42923e-05,-2.16126e-07,-1.00823e-05,3.12666e-05,1.6081e-05,-3.23758e-06,0
3.54123e-05,2.06859e-05,-1.58275e-05,-1.09065e-07,-7.74326e-06,5.40957e-05,2.51756e-05,-2.21733e-06,0
5.45426e-05,2.0574e-05,-8.67357e-06,2.1585e-06,-3.64476e-06,6.48445e-05,3.21445e-05,7.6891e-08,0
5.96016e-05,1.78289e-05,-4.10181e-06,4.48839e-06,-4.02768e-06,5.63856e-05,3.49853e-05,1.77778e-06,0
3.33867e-05,9.60839e-06,-2.03425e-06,5.26762e-06,-9.07157e-06,2.22389e-05,3.42731e-05,2.85738e-06,0
1.9636e-06,-2.29315e-06,-3.99118e-07,4.70358e-06,-7.33005e-06,-3.50052e-05,3.1781e-05,4.1906e-06,0
-1.01847e-05,-1.76918e-05,-1.6647e-06,4.28502e-06,3.23088e-06,-8.96962e-05,2.98882e-05,4.85792e-06,0
2.58754e-07,-3.1933e-05,-5.85965e-06,3.20225e-06,1.46167e-05,-0.000110148,2.89163e-05,4.08142e-06,0
1.93169e-05,-3.20094e-05,-1.1066e-05,1.90011e-06,1.97534e-05,-8.67193e-05,2.79348e-05,2.26705e-06,0
3.4559e-05,-9.84458e-06,-1.44907e-05,1.29675e-06,1.70732e-05,-4.98877e-05,2.79615e-05,3.67643e-07,0
3.26418e-05,1.86093e-05,-1.5491e-05,1.67229e-08,5.56944e-06,-3.22757e-05,2.85996e-05,-1.79886e-06,0
1.5061e-05,3.13478e-05,-1.48608e-05,-3.55695e-06,-8.53224e-06,-3.22829e-05,2.88232e-05,-3.0413e-06,0
-2.60647e-07,2.47213e-05,-1.46232e-05,-9.8076e-06,-1.61156e-05,-3.11064e-05,2.78059e-05,-1.99711e-06,0
1.09152e-05,1.31761e-05,-1.46542e-05,-1.87767e-05,-1.73762e-05,-2.75595e-05,2.67785e-05,9.09998e-08,0
5.81396e-05,1.04215e-05,-1.49009e-05,-2.97201e-05,-1.81332e-05,-2.63677e-05,2.65345e-05,1.04733e-06,0
0.000108004,2.11302e-05,-1.46736e-05,-3.89665e-05,-1.97196e-05,-2.49866e-05,2.61905e-05,7.84837e-07,0
0.000100816,3.753e-05,-1.24968e-05,-4.51369e-05,-2.2433e-05,-2.39671e-05,2.5105e-05,1.88651e-06,0
3.79816e-05,4.94165e-05,-1.00012e-05,-4.8884e-05,-2.38249e-05,-2.31958e-05,2.3956e-05,3.67019e-06,0
-3.07056e-05,5.67616e-05,-9.21656e-06,-4.74945e-05,-2.21993e-05,-8.73365e-06,2.12115e-05,3.86063e-06,0
-7.80301e-05,4.98074e-05,-9.11737e-06,-4.01436e-05,-1.78594e-05,2.46293e-05,1.63904e-05,2.06106e-06,0
-9.45126e-05,2.65168e-05,-9.27451e-06,-3.23936e-05,-5.9954e-06,4.58683e-05,1.18657e-05,3.50271e-07,0
-8.4477e-05,5.2862e-06,-1.03818e-05,-2.79536e-05,1.0443e-05,4.61839e-05,1.00641e-05,-3.80887e-08,0
-6.06068e-05,-3.22586e-06,-1.50096e-05,-3.19599e-05,1.83058e-05,2.59133e-05,1.01323e-05,2.78757e-07,0
-3.78994e-05,-9.57842e-08,-2.1439e-05,-4.04173e-05,1.41648e-05,-1.40051e-05,1.07472e-05,1.6326e-06,0
-2.73219e-05,1.44557e-05,-2.354e-05,-4.37918e-05,6.27523e-06,-4.45511e-05,1.07265e-05,3.01278e-06,0
