ch1,ch2,ch3,ch4,ch5,ch6,ch7,ch8,class
-1.8055e-05,1.56493e-05,-1.17301e-05,-9.00302e-05,-1.10748e-05,-1.35068e-05,1.79012e-05,3.35439e-06,0
-1.98594e-05,1.7455e-05,-1.42475e-05,-0.00010012,-4.02364e-05,-1.41384e-05,1.84656e-05,3.14186e-06,0
-2.15141e-05,2.19636e-05,-1.62895e-05,-0.000111313,-4.62399e-05,-1.27638e-05,1.99049e-05,4.86698e-06,0
-2.04025e-05,2.84266e-05,-1.72254e-05,-7.45218e-05,-1.62212e-05,-1.01786e-05,1.92438e-05,7.05673e-06,0
-1.3818e-05,3.46568e-05,-1.57536e-05,7.40239e-06,3.98853e-05,-5.64276e-06,1.42342e-05,7.21785e-06,0
2.91369e-07,4.12111e-05,-1.23948e-05,7.29402e-05,6.81076e-05,-8.01566e-07,8.00218e-06,5.57488e-06,0
2.1968e-05,5.05102e-05,-9.6937e-06,9.22328e-05,3.63793e-05,2.41927e-06,6.40264e-06,4.19723e-06,0
3.94131e-05,5.9148e-05,-9.49719e-06,7.03298e-05,-2.22045e-05,-1.1778e-06,1.01253e-05,3.81097e-06,0
4.02492e-05,6.35018e-05,-1.20337e-05,3.11116e-05,-6.24476e-05,-8.32799e-06,1.63166e-05,1.49367e-06,0
2.62997e-05,6.40785e-05,-1.59354e-05,2.93185e-06,-3.42561e-05,-1.37878e-05,2.13829e-05,-2.36081e-06,0
6.06568e-06,6.13082e-05,-1.99009e-05,2.90992e-06,0.000149477,-1.69944e-05,2.28641e-05,-4.25452e-06,0
-1.1285e-05,5.60161e-05,-2.1384e-05,3.43551e-05,0.000423377,-1.73737e-05,2.14624e-05,-5.04813e-06,0
-2.43095e-05,4.85983e-05,-1.68876e-05,7.56059e-05,0.000512057,-1.52854e-05,2.14672e-05,-5.59589e-06,0
-3.57265e-05,3.9158e-05,-1.12464e-05,7.96528e-05,0.000303169,-1.77149e-05,2.23315e-05,-5.63227e-06,0
-4.7536e-05,2.59955e-05,-8.2784e-06,3.9746e-05,1.93763e-05,-2.55726e-05,1.88751e-05,-4.61361e-06,0
-5.72496e-05,1.02981e-05,-5.04557e-06,-4.24985e-06,-0.000167111,-1.49366e-05,8.39021e-06,-3.49577e-06,0
-5.86182e-05,3.74721e-07,-1.63742e-06,-3.34895e-05,-0.000275376,4.00658e-05,-5.65572e-06,-3.60836e-06,0
-5.84707e-05,-3.94141e-06,2.35845e-06,-4.30006e-05,-0.000287489,9.55655e-05,-1.50668e-05,-3.027e-06,0
-6.28596e-05,-1.06638e-05,5.92072e-06,-2.50749e-05,-0.00018891,9.25707e-05,-1.5149e-05,-2.82213e-06,0
-6.88025e-05,-2.17589e-05,9.21101e-06,9.21514e-06,-4.21422e-05,4.59205e-05,-9.36448e-06,-3.49956e-06,0
-7.10762e-05,-3.14935e-05,7.81382e-06,2.07815e-05,3.38498e-05,-1.12345e-05,-4.19263e-06,-2.62898e-06,0
-6.72291e-05,-3.2914e-05,1.11349e-06,1.06703e-06,1.83335e-05,-4.72766e-05,-1.70082e-07,-2.02467e-07,0
-5.75269e-05,-2.3476e-05,-5.76344e-06,-2.13675e-05,-1.7881e-05,-5.08083e-05,4.87685e-06,6.04117e-07,0
-4.49715e-05,-7.76994e-06,-9.9218e-06,-1.91245e-05,-3.4273e-05,-4.41117e-05,1.06299e-05,-1.94156e-07,0
-3.45378e-05,4.35437e-06,-1.02701e-05,5.28145e-06,-3.68966e-05,-3.74408e-05,1.54345e-05,-8.65531e-07,0
-2.79398e-05,8.69526e-06,-9.98455e-06,2.17639e-05,-4.48223e-05,-1.83258e-05,1.95997e-05,-1.70877e-06,0
-2.53383e-05,9.16064e-06,-1.049e-05,1.32838e-05,-4.8779e-05,1.02856e-05,2.33922e-05,-2.23059e-06,0
-2.40622e-05,1.10075e-05,-1.23292e-05,-1.35282e-05,-3.92708e-05,2.76262e-05,2.4727e-05,-2.11626e-06,0
-2.37745e-05,1.41847e-05,-1.3618e-05,-4.09161e-05,-1.50994e-05,2.28594e-05,2.401e-05,-2.2526e-06,0
-2.3734e-05,1.50222e-05,-1.45433e-05,-5.3032e-05,3.2436e-06,5.2249e-06,2.4551e-05,-3.56366e-06,0
-2.34422e-05,1.33686e-05,-1.60316e-05,-3.2004e-05,1.28717e-05,-6.2264e-06,2.75056e-05,-4.6078e-06,0
-2.28605e-05,1.32614e-05,-1.7056e-05,1.27333e-05,1.62242e-05,-9.15327e-06,3.16137e-05,-5.08995e-06,0
-2.29529e-05,1.37264e-05,-1.5977e-05,3.09162e-05,1.03231e-05,-1.74679e-05,3.3646e-05,-5.21239e-06,0
-2.16563e-05,1.16129e-05,-1.4147e-05,6.08131e-06,-1.54036e-05,-2.94333e-05,3.05789e-05,-5.28432e-06,0
-1.88227e-05,9.82936e-06,-1.20118e-05,-1.57924e-05,-3.83175e-05,-3.21887e-05,2.55033e-05,-4.64332e-06,0
-1.70153e-05,1.13266e-05,-9.47678e-06,-1.72184e-05,-3.29547e-05,-2.53256e-05,2.31992e-05,-2.75905e-06,0
-1.64144e-05,1.48625e-05,-7.67754e-06,-1.6499e-05,-1.99642e-05,-1.59428e-05,2.21559e-05,5.41362e-07,0
-1.66623e-05,1.77107e-05,-1.00596e-05,-2.28932e-05,-3.05333e-05,-1.03976e-05,2.04033e-05,3.00527e-06,0
-1.89567e-05,1.69722e-05,-1.47121e-05,-2.6397e-05,-3.14355e-05,7.27151e-06,1.75561e-05,1.8471e-06,0
-2.79474e-05,1.35977e-05,-1.52591e-05,5.2101e-06,1.48742e-05,3.03605e-05,1.25358e-05,-5.33753e-07,0
-4.15726e-05,1.16712e-05,-1.39321e-05,6.51423e-05,5.78313e-05,1.23458e-05,7.99504e-06,9.23122e-07,0
-4.8923e-05,1.08098e-05,-1.20301e-05,7.54382e-05,0.000108797,-2.17299e-05,5.83759e-06,4.56221e-06,0
-4.51322e-05,1.19195e-05,-1.08975e-05,1.86297e-05,0.000189625,-2.68755e-05,4.23163e-06,5.0383e-06,0
-3.5502e-05,1.47614e-05,-1.12214e-05,-2.42954e-05,0.000220148,-1.69701e-05,2.34923e-06,3.5855e-06,0
-2.69769e-05,1.5526e-05,-1.32274e-05,-2.55916e-05,0.000159781,-1.04375e-05,2.89394e-07,2.33536e-06,0
-2.21791e-05,1.49689e-05,-1.59222e-05,-1.6297e-05,3.6228e-05,-1.36784e-05,-6.51618e-07,3.03508e-06,0
-1.88192e-05,1.56536e-05,-1.50904e-05,-1.16726e-05,-8.57766e-05,-1.62618e-05,7.0081e-07,5.0637e-06,0
-1.78313e-05,1.77564e-05,-1.08841e-05,-1.385e-05,-0.000142388,-1.42163e-05,2.94928e-06,6.19359e-06,0
-1.93842e-05,1.84561e-05,-5.2792e-06,-1.6589e-05,-0.000115164,-1.12207e-05,4.99783e-06,5.48527e-06,0
-2.18129e-05,1.83698e-05,-2.77141e-06,-1.5225e-05,-4.15585e-05,-9.49932e-06,6.26006e-06,2.54405e-06,0
-2.36762e-05,1.73384e-05,-4.06129e-06,-1.40821e-05,2.07172e-05,-9.74686e-06,6.93627e-06,4.26247e-09,0
-2.39462e-05,1.50937e-05,-5.77388e-06,-2.50732e-05,5.79463e-05,-1.31108e-05,8.08983e-06,-8.35403e-07,0
-2.34422e-05,1.38818e-05,-8.14315e-06,-4.73557e-05,7.14505e-05,-1.80508e-05,8.81072e-06,-1.20318e-06,0
-2.42379e-05,1.43418e-05,-1.06834e-05,-5.86297e-05,6.7136e-05,-1.89987e-05,8.28061e-06,-2.24644e-06,0
-2.61244e-05,1.53089e-05,-1.08941e-05,-5.08258e-05,5.10743e-05,-1.61526e-05,5.75023e-06,-2.87406e-06,0
-2.63386e-05,1.47895e-05,-9.15838e-06,-3.82325e-05,3.30654e-05,-1.37718e-05,-4.3046e-07,-1.32836e-06,0
-2.50249e-05,1.24026e-05,-8.71938e-06,-4.41892e-05,2.23852e-05,-1.45891e-05,-9.89627e-06,7.57989e-07,0
-2.50522e-05,9.75283e-06,-9.74383e-06,-8.03327e-05,2.1822e-05,-1.46401e-05,-2.00029e-05,1.10855e-06,0
-2.69396e-05,9.42902e-06,-1.04286e-05,-0.000121204,1.30337e-05,-1.3246e-05,-2.86747e-05,1.04371e-06,0
-2.93145e-05,1.04414e-05,-1.10335e-05,-0.000116717,-1.13528e-05,-1.26103e-05,-3.5021e-05,1.35939e-06,0
-3.18517e-05,1.01363e-05,-1.29087e-05,-5.70001e-05,-2.5198e-05,-1.3665e-05,-3.50236e-05,4.91269e-07,0
-3.50093e-05,7.85467e-06,-1.43598e-05,1.77658e-05,-1.22769e-05,-8.6282e-06,-2.6215e-05,-6.49518e-07,0
-3.65383e-05,8.12825e-06,-1.17511e-05,7.37213e-05,1.11699e-05,8.2231e-06,-1.0434e-05,-1.14995e-06,0
-3.1769e-05,1.1916e-05,-3.96518e-06,0.000100247,1.77093e-05,2.79416e-05,7.97323e-06,-8.59736e-07,0
-2.20527e-05,1.56396e-05,6.24057e-06,8.12003e-05,-9.54532e-07,3.50937e-05,2.38272e-05,-6.75037e-07,0
-1.22449e-05,1.81252e-05,1.88482e-05,4.54401e-05,-1.44099e-05,2.9116e-05,3.63656e-05,-8.19922e-07,0
1.40841e-05,1.56032e-05,-1.44899e-05,-0.000112829,-1.39521e-05,1.5638e-05,-1.94814e-05,-1.9249e-07,0
-9.55876e-06,9.27446e-06,-2.296e-05,-0.000104822,5.71024e-06,3.02543e-05,-1.24004e-05,-1.36913e-06,0
-3.12725e-05,3.23457e-06,-2.50032e-05,-6.20602e-05,-3.97245e-05,1.15376e-05,3.42396e-06,-1.58478e-06,0
-4.02452e-05,-1.85019e-06,-2.08715e-05,-3.59272e-05,-0.000135102,-1.13494e-05,1.41385e-05,-1.20649e-06,0
-4.0984e-05,-4.39388e-06,-1.52623e-05,-5.31796e-05,-0.000204426,-2.41341e-05,1.68858e-05,-1.65256e-06,0
-4.13937e-05,-3.33608e-06,-1.16883e-05,-9.51381e-05,-0.00023785,-2.29072e-05,1.31428e-05,-1.7919e-06,0
-4.2974e-05,1.39697e-06,-7.75732e-06,-0.000111928,-0.000247165,-1.51881e-05,7.86555e-06,-1.30067e-06,0
-4.2714e-05,7.71976e-06,-2.59584e-06,-0.000104971,-0.000178511,-4.97841e-06,5.0577e-06,3.21668e-08,0
-3.79527e-05,1.3486e-05,7.80718e-07,-9.50448e-05,-1.27042e-05,1.27616e-06,5.77737e-06,1.54533e-06,0
-3.08416e-05,1.82467e-05,2.91643e-06,-8.29687e-05,0.000181143,-7.78995e-07,6.19909e-06,1.79861e-06,0
-2.62976e-05,1.90176e-05,4.14117e-06,-5.27277e-05,0.000309813,-4.23922e-06,2.28006e-07,2.05133e-06,0
-2.61766e-05,1.65661e-05,5.10336e-06,1.02802e-05,0.00035781,-8.00958e-07,-1.11393e-05,1.19778e-06,0
-2.5823e-05,1.31564e-05,5.3408e-06,9.32938e-05,0.000326132,5.84478e-06,-2.19111e-05,-1.21877e-06,0
-2.3044e-05,1.0902e-05,2.94273e-06,0.000140882,0.000225555,5.6621e-06,-2.63897e-05,-4.32376e-06,0
-2.24248e-05,1.06068e-05,-1.44173e-06,0.000115552,0.000114645,-2.30809e-06,-2.2461e-05,-6.15674e-06,0
-2.61328e-05,1.15617e-05,-5.45893e-06,4.29181e-05,4.6436e-05,-1.45278e-05,-1.21071e-05,-5.78524e-06,0
-3.103e-05,1.33161e-05,-8.59725e-06,-2.4934e-05,2.04024e-05,-2.25339e-05,-2.13941e-06,-5.85925e-06,0
-3.33337e-05,1.52623e-05,-1.12577e-05,-5.45933e-05,6.31242e-08,-8.23494e-06,3.80022e-06,-6.60858e-06,0
-3.51819e-05,1.7487e-05,-1.20967e-05,-5.30796e-05,-2.58172e-05,3.95008e-05,7.39595e-06,-6.61964e-06,0
-4.03702e-05,1.9535e-05,-1.07717e-05,-4.55455e-05,-4.27006e-05,8.48501e-05,1.16557e-05,-6.02189e-06,0
-4.79387e-05,2.0818e-05,-8.66948e-06,-3.53935e-05,-2.24004e-05,8.46952e-05,1.633e-05,-6.12693e-06,0
-4.79131e-05,2.20093e-05,-6.85515e-06,-4.64251e-07,3.20387e-05,6.49132e-05,1.86262e-05,-5.82244e-06,0
-3.63896e-05,2.39995e-05,-4.77409e-06,7.02434e-05,7.48676e-05,6.60188e-05,1.56508e-05,-3.3629e-06,0
-2.76681e-05,2.54652e-05,-2.73174e-06,0.000147923,6.99804e-05,6.13233e-05,6.64717e-06,-1.92374e-07,0
-3.0282e-05,2.63106e-05,-1.3813e-06,0.00015768,4.26623e-05,1.69949e-05,-3.42123e-06,8.31437e-07,0
-3.17439e-05,2.71918e-05,-1.65878e-06,7.86433e-05,2.83675e-05,-5.79896e-05,-5.4e-06,9.26161e-07,0
-2.5753e-05,2.57111e-05,-4.37106e-06,-5.27518e-06,6.3386e-05,-0.000126505,4.02734e-06,2.11063e-06,0
-2.19458e-05,2.23153e-05,-7.97626e-06,-3.42961e-05,0.000142467,-0.00013437,1.94625e-05,1.97168e-06,0
-2.61001e-05,1.81721e-05,-1.14867e-05,-3.62104e-05,0.000224491,-7.55506e-05,3.02785e-05,1.47835e-06,0
-3.25585e-05,1.31236e-05,-1.25204e-05,-3.59319e-05,0.000257653,-2.94829e-05,3.57469e-05,2.05739e-06,0
-3.38769e-05,9.50217e-06,-1.1208e-05,-1.51684e-05,0.000201596,-2.68491e-05,4.15688e-05,2.95987e-06,0
-2.62503e-05,8.66049e-06,-1.22356e-05,1.1221e-05,7.6879e-05,-3.12505e-05,4.47369e-05,3.61402e-06,0
-1.27761e-05,9.91871e-06,-1.60735e-05,2.7168e-06,-8.71524e-05,-3.10394e-05,4.27127e-05,4.23822e-06,0
-3.90822e-06,1.3151e-05,-1.78969e-05,-1.96974e-05,-0.000225732,-2.88366e-05,3.61163e-05,5.03926e-06,0
-3.97454e-06,1.76787e-05,-1.62416e-05,-1.30355e-05,-0.000284841,-2.80618e-05,2.94205e-05,4.27808e-06,0
-9.48794e-06,2.03704e-05,-1.25906e-05,3.07255e-05,-0.000273751,-2.17752e-05,2.45239e-05,2.35882e-06,0
-1.42055e-05,1.99749e-05,-6.66606e-06,9.45625e-05,-0.000216101,-9.61102e-06,2.33863e-05,7.39466e-07,0
-1.96153e-05,1.82991e-05,-3.68656e-07,0.000146036,-0.000139574,1.55827e-06,2.5307e-05,-3.66275e-07,0
-2.98647e-05,1.71427e-05,3.60127e-06,0.000155457,-7.39976e-05,2.01468e-05,2.63382e-05,-1.74066e-06,0
-4.23654e-05,1.61509e-05,5.78186e-06,0.000118009,-3.96128e-05,4.94406e-05,2.54496e-05,-3.23291e-06,0
-5.18776e-05,1.51865e-05,7.51892e-06,5.83717e-05,-3.89916e-05,5.88641e-05,2.44747e-05,-3.14038e-06,0
-5.60416e-05,1.27768e-05,8.50707e-06,1.1331e-05,-5.54918e-05,3.74102e-05,2.53946e-05,-1.35714e-06,0
-5.49742e-05,8.29976e-06,1.08601e-05,-8.87101e-06,-7.12032e-05,1.03923e-05,2.68433e-05,3.98019e-07,0
-5.14821e-05,4.35339e-06,1.91679e-05,-1.87195e-05,-7.34915e-05,-1.94467e-06,2.62994e-05,1.3207e-06,0
-4.86989e-05,1.59783e-06,3.41257e-05,-5.09328e-05,-5.59651e-05,-2.16137e-06,2.18428e-05,1.46917e-06,0
-4.68142e-05,-9.88405e-07,5.00037e-05,-0.000108019,-2.79073e-05,3.40911e-07,1.54566e-05,9.1732e-07,0
-4.5351e-05,-2.87652e-06,5.70466e-05,-0.000133159,-9.13223e-06,3.30963e-06,1.13588e-05,2.60171e-07,0
-4.29924e-05,-1.27059e-06,4.75686e-05,-8.65929e-05,6.91566e-07,3.69239e-06,1.1182e-05,-3.1034e-07,0
-4.0169e-05,3.95105e-06,2.16234e-05,-4.22395e-06,1.0027e-05,1.40598e-06,1.25557e-05,-8.9032e-08,0
-3.68272e-05,8.29584e-06,-1.4074e-05,5.30259e-05,1.00987e-05,-1.93507e-06,1.46405e-05,-9.49498e-09,0
-3.35771e-05,8.79252e-06,-4.95009e-05,5.43966e-05,7.75585e-08,-2.59985e-06,1.55309e-05,-1.80583e-06,0
-3.04513e-05,7.69476e-06,-7.6708e-05,2.85419e-05,-7.30015e-06,-2.10227e-07,1.26364e-05,-5.03761e-06,0
-2.68359e-05,9.14629e-06,-9.05673e-05,2.505e-05,1.9143e-05,4.43628e-06,6.64874e-06,-7.54575e-06,0
-2.32914e-05,1.37664e-05,-9.04223e-05,1.85038e-05,8.17061e-05,9.96547e-06,1.53544e-06,-8.16219e-06,0
-2.22077e-05,1.71353e-05,-7.91833e-05,-2.17459e-05,0.000121818,1.3258e-05,-4.79102e-07,-7.31146e-06,0
-2.347e-05,1.68839e-05,-6.4614e-05,-4.55018e-05,9.22263e-05,1.3789e-05,1.31314e-06,-6.45285e-06,0
-2.37759e-05,1.6811e-05,-5.19886e-05,-2.14662e-05,3.52965e-05,1.69293e-05,4.72338e-06,-7.38735e-06,0
-2.21235e-05,1.96326e-05,-3.9049e-05,2.20158e-05,2.69911e-05,2.22137e-05,8.50148e-06,-7.6245e-06,0
-2.14931e-05,2.43546e-05,-2.89778e-05,4.71301e-05,5.43072e-05,2.40858e-05,1.22724e-05,-6.08881e-06,0
-2.62344e-05,2.83444e-05,-2.42838e-05,3.44275e-05,6.92091e-05,1.72738e-05,1.31848e-05,-2.72981e-06,0
-3.78831e-05,2.5306e-05,-2.34902e-05,1.17765e-05,8.55544e-05,-1.20346e-06,1.3255e-05,-5.15095e-07,0
-5.11137e-05,1.77623e-05,-2.22852e-05,1.90686e-05,0.000156468,-2.84448e-05,1.29647e-05,-6.56082e-07,0
-5.7553e-05,1.27634e-05,-1.94391e-05,6.61971e-05,0.00023207,-5.2293e-05,1.16568e-05,-2.10927e-07,0
-5.67e-05,1.22641e-05,-1.65966e-05,0.000119195,0.000200814,-6.13147e-05,1.01264e-05,-3.01394e-07,0
-5.24738e-05,1.44993e-05,-1.43668e-05,0.000129907,6.52659e-05,-5.57267e-05,9.38367e-06,-1.10176e-06,0
-4.54981e-05,1.68738e-05,-1.17924e-05,9.16072e-05,-8.01384e-05,-4.25071e-05,8.58876e-06,-2.27808e-06,0
-3.17629e-05,2.09389e-05,-8.51954e-06,3.34451e-05,-0.000169796,-2.95044e-05,5.28272e-06,-2.91985e-06,0
-1.00419e-05,2.65056e-05,-4.61482e-06,-1.05185e-05,-0.000193549,-1.87468e-05,9.99512e-07,-2.95695e-06,0
1.115e-05,3.0803e-05,1.94345e-07,-1.35391e-05,-0.000139254,-1.07378e-05,1.77106e-06,-2.4573e-06,0
1.93832e-05,3.1796e-05,5.3448e-06,1.46277e-05,-1.66091e-05,-7.76261e-06,1.04253e-05,-2.11301e-06,0
1.14867e-05,3.1149e-05,1.18098e-05,2.3091e-05,0.000109952,-1.00148e-05,2.41457e-05,-2.92051e-06,0
-2.92615e-06,3.08637e-05,1.90365e-05,-4.54367e-06,0.000165256,-1.34048e-05,3.73027e-05,-4.02946e-06,0
-1.48456e-05,3.20275e-05,2.35621e-05,-4.30382e-05,0.000127123,-1.65034e-05,4.51127e-05,-4.52047e-06,0
-2.4023e-05,3.38486e-05,2.09173e-05,-7.98515e-05,3.77351e-05,-1.96841e-05,4.58556e-05,-4.37686e-06,0
-3.20782e-05,3.46622e-05,1.39774e-05,-0.00010343,-2.71827e-05,-2.12455e-05,3.97299e-05,-4.12836e-06,0
-3.82686e-05,3.28947e-05,7.94082e-06,-0.000105261,-1.5198e-05,-1.95773e-05,3.14757e-05,-5.2368e-06,0
-4.1713e-05,2.93377e-05,4.87339e-06,-0.000107255,7.27495e-05,-1.66434e-05,2.54585e-05,-7.44754e-06,0
-4.30867e-05,2.77175e-05,2.95979e-06,-0.000122475,0.000171401,-1.51996e-05,1.89444e-05,-6.95284e-06,0
-4.32625e-05,3.00734e-05,3.16938e-07,-0.000136452,0.000197374,-1.35431e-05,8.61195e-06,-3.42637e-06,0
-4.23628e-05,3.45294e-05,-1.50143e-06,-0.000128311,0.000122567,-1.03223e-05,-4.44055e-06,-1.64823e-06,0
-3.95679e-05,3.73028e-05,-1.52388e-06,-0.000107724,-1.16523e-05,-8.97065e-06,-1.56483e-05,-2.44755e-06,0
-3.38217e-05,3.75352e-05,-1.35725e-06,-9.46263e-05,-0.000143998,-7.63594e-06,-2.20199e-05,-2.98501e-06,0
-2.86397e-05,3.48452e-05,-3.04844e-06,-8.28966e-05,-0.000230662,-5.5677e-06,-2.19488e-05,-2.91844e-06,0
-2.71327e-05,2.91922e-05,-7.61543e-06,-6.08992e-05,-0.00026389,-9.11376e-06,-1.74443e-05,-2.93507e-06,0
-2.73881e-05,2.3419e-05,-1.27267e-05,-3.77999e-05,-0.000236932,-1.61472e-05,-1.25644e-05,-3.44048e-06,0
-2.75815e-05,1.81108e-05,-1.39021e-05,-1.97714e-05,-0.000135095,-2.12608e-05,-1.13912e-05,-2.37596e-06,0
-2.87121e-05,1.09083e-05,-1.22731e-05,4.51313e-06,-1.01323e-05,-2.22701e-05,-1.72845e-05,2.34352e-06,0
-3.14748e-05,2.4062e-06,-1.26679e-05,3.50586e-05,8.63177e-05,-1.95928e-05,-2.16479e-05,5.63898e-06,0
-3.38951e-05,-6.51978e-06,-1.46056e-05,6.48153e-05,0.000129329,-1.91382e-05,-1.85016e-05,3.27593e-06,0
-3.78001e-05,-1.70429e-05,-1.65573e-05,9.35308e-05,0.000104174,-2.25926e-05,-9.63182e-06,9.51501e-07,0
-4.27056e-05,-3.06401e-05,-1.82592e-05,0.000123842,6.98011e-06,-2.66942e-05,-1.44682e-06,1.63644e-06,0
-4.4658e-05,-4.20467e-05,-1.74219e-05,0.000144909,-0.000118598,-2.85414e-05,3.43724e-06,3.15681e-06,0
-4.35915e-05,-4.3361e-05,-1.47466e-05,0.000146634,-0.000204784,-2.61888e-05,6.42492e-06,4.43041e-06,0
-4.15263e-05,-3.5511e-05,-1.45892e-05,0.000120532,-0.000222387,-2.29356e-05,9.9255e-06,5.13149e-06,0
-3.99791e-05,-2.24272e-05,-1.59981e-05,7.23507e-05,-0.000146922,-1.9673e-05,1.59633e-05,4.26213e-06,0
-3.92695e-05,-8.52512e-06,-1.41545e-05,2.90285e-05,1.072e-05,-1.27914e-05,2.25931e-05,2.0135e-06,0
-3.84329e-05,-4.89916e-07,-8.88248e-06,1.45165e-05,0.000175732,-4.49158e-06,2.87402e-05,5.97661e-08,0
-3.42803e-05,6.74452e-07,-3.67056e-06,2.92163e-05,0.000285625,3.99758e-06,3.23013e-05,1.15126e-07,0
-2.53977e-05,3.56037e-07,-2.74783e-07,5.11936e-05,0.000345688,1.83573e-05,3.26492e-05,1.3501e-06,0
-1.55381e-05,1.58311e-06,1.96224e-06,4.29919e-05,0.000345786,2.82479e-05,2.88128e-05,1.09324e-06,0
-1.19612e-05,4.47809e-06,1.87061e-06,-1.53367e-05,0.000274146,1.41194e-05,2.30473e-05,-1.38459e-06,0
-1.64455e-05,7.87668e-06,-1.20805e-06,-9.50712e-05,0.000165791,-1.74897e-05,1.8821e-05,-4.11441e-06,0
-2.28379e-05,9.82157e-06,-6.74539e-06,-0.000151364,5.4695e-05,-3.82822e-05,1.95058e-05,-4.49293e-06,0
-2.42385e-05,1.21226e-05,-1.09096e-05,-0.000168553,-5.0595e-05,-3.39951e-05,2.50978e-05,-2.75857e-06,0
-2.73287e-05,1.60398e-05,-9.70276e-06,-0.000172586,-0.000135008,-1.90385e-05,3.31083e-05,-7.527e-07,0
-3.73272e-05,1.89463e-05,-6.19997e-06,-0.000179482,-0.000160228,8.68592e-07,4.10145e-05,-6.33593e-07,0
-4.02503e-05,1.78969e-05,-6.05775e-06,-0.00016137,-0.000123974,2.03233e-05,4.65022e-05,-9.02623e-07,0
-3.28606e-05,1.53227e-05,-1.02014e-05,-0.00011119,-6.26553e-05,2.21478e-05,4.74002e-05,5.48973e-07,0
-2.38689e-05,1.6321e-05,-1.31134e-05,-5.97548e-05,1.02175e-05,1.13382e-05,3.46724e-05,2.8465e-06,0
-1.57072e-05,1.92296e-05,-9.62913e-06,-3.61058e-05,6.67508e-05,5.60621e-06,1.0891e-05,4.08816e-06,0
-7.56913e-06,2.51673e-05,-6.16229e-06,-3.29907e-05,7.1615e-05,6.20646e-06,-5.48172e-06,4.10971e-06,0
-2.64525e-06,3.32265e-05,-7.81721e-06,-1.02131e-05,1.2952e-05,-1.15831e-06,-1.01521e-05,3.73725e-06,0
-4.32401e-06,3.59001e-05,-1.18781e-05,3.10344e-05,-6.58915e-05,-1.39724e-05,-1.06684e-05,3.33887e-06,0
-1.10386e-05,3.32035e-05,-1.44755e-05,5.86426e-05,-7.86368e-05,-2.22557e-05,-1.03401e-05,3.92805e-06,0
-1.77232e-05,3.13146e-05,-1.32314e-05,4.31057e-05,-2.22425e-05,-2.12802e-05,-6.25325e-06,5.8734e-06,0
-2.11527e-05,3.17291e-05,-1.00443e-05,-2.04371e-06,4.25108e-05,-1.24342e-05,1.72991e-06,7.83075e-06,0
-2.5556e-05,2.96429e-05,-7.66621e-06,-4.18912e-05,5.89982e-05,-9.01177e-06,1.09064e-05,8.52604e-06,0
-3.36839e-05,2.64061e-05,-6.85329e-06,-4.74906e-05,4.56953e-05,-1.69564e-05,1.88517e-05,8.25326e-06,0
-5.01469e-05,2.51192e-05,-8.613e-06,-1.76554e-05,3.43667e-05,-2.5565e-05,2.37772e-05,7.38571e-06,0
-7.33538e-05,2.456e-05,-1.16214e-05,3.55497e-06,3.1318e-05,-2.71883e-05,2.49105e-05,5.68822e-06,0
-9.09225e-05,2.42103e-05,-1.15157e-05,-1.3319e-05,5.36925e-05,-2.47558e-05,2.24464e-05,4.72015e-06,0
-9.41987e-05,2.21412e-05,-8.45691e-06,-5.99515e-05,8.83113e-05,-2.23356e-05,1.83938e-05,4.11396e-06,0
-8.51485e-05,1.61531e-05,-6.90392e-06,-0.000111124,8.93091e-05,-1.87634e-05,1.49401e-05,2.86298e-06,0
-6.94054e-05,8.73635e-06,-9.08989e-06,-0.000152132,4.01012e-05,-1.0195e-05,1.40499e-05,1.10982e-06,0
-4.81776e-05,5.2672e-06,-1.19039e-05,-0.000164013,-2.92936e-05,2.82107e-06,1.49865e-05,-3.62359e-07,0
-1.99359e-05,6.98004e-06,-1.22539e-05,-0.000133475,-0.000101063,2.04118e-05,1.78254e-05,-4.11678e-07,0
1.29975e-05,1.08713e-05,-9.86753e-06,-7.20062e-05,-0.000158557,3.39848e-05,2.02436e-05,-3.68813e-07,0
3.65355e-05,1.27255e-05,-7.60505e-06,-1.8886e-05,-0.000173424,2.79344e-05,2.082e-05,-1.25511e-06,0
3.83954e-05,1.28151e-05,-6.74841e-06,2.15947e-05,-0.000128217,1.57116e-05,1.97219e-05,-2.70403e-06,0
2.51802e-05,1.30442e-05,-4.61473e-06,8.59377e-05,-4.56111e-05,2.21e-05,1.75939e-05,-2.60971e-06,0
1.08081e-05,1.39445e-05,4.03562e-07,0.000157188,2.58155e-05,3.5919e-05,1.5133e-05,-1.63226e-06,0
-2.77448e-07,1.53382e-05,4.27666e-06,0.00018157,4.96258e-05,4.22796e-05,1.48165e-05,-1.1691e-06,0
-8.82852e-06,1.5995e-05,3.9332e-06,0.000148872,4.30937e-05,3.97285e-05,1.49987e-05,-7.53703e-07,0
-1.59689e-05,1.72933e-05,7.20562e-07,9.55851e-05,4.41022e-05,3.31576e-05,1.12445e-05,2.00701e-07,0
-2.33847e-05,1.95248e-05,-1.61381e-06,5.82273e-05,5.74175e-05,2.64483e-05,3.5041e-06,7.39742e-07,0
-3.46638e-05,2.22141e-05,-2.82109e-06,3.36266e-05,6.98314e-05,1.82176e-05,-4.84097e-06,1.98713e-06,0
-4.59285e-05,2.54851e-05,-5.94848e-06,1.62109e-05,6.40119e-05,4.95111e-07,-7.28533e-06,4.47793e-06,0
-4.82605e-05,2.88403e-05,-9.67846e-06,7.86899e-06,2.01549e-05,-3.52693e-05,-2.00434e-06,6.06612e-06,0
-3.87113e-05,3.02929e-05,-1.13967e-05,7.86692e-06,-5.36626e-05,-6.34488e-05,6.9855e-06,7.10586e-06,0
-2.52646e-05,3.08019e-05,-1.28599e-05,2.16389e-05,-0.000113361,-5.74073e-05,1.46672e-05,6.75834e-06,0
-1.77487e-05,3.11578e-05,-1.50636e-05,4.79167e-05,-0.000116782,-3.98056e-05,1.96495e-05,6.24355e-06,0
-1.58546e-05,2.91595e-05,-1.49055e-05,7.26579e-05,-6.89544e-05,-3.41872e-05,2.38407e-05,6.03851e-06,0
-1.67386e-05,2.522e-05,-1.11789e-05,7.61555e-05,8.5212e-07,-3.26614e-05,2.72621e-05,6.31861e-06,0
-2.00349e-05,2.09154e-05,-7.46166e-06,6.29014e-05,6.76538e-05,-2.58871e-05,2.90067e-05,7.29939e-06,0
-2.52776e-05,1.73211e-05,-8.23289e-06,5.58931e-05,0.000122056,-1.57802e-05,2.86529e-05,6.87363e-06,0
-3.01694e-05,1.33771e-05,-1.10223e-05,7.42909e-05,0.000167463,-9.80253e-06,2.56438e-05,6.88388e-06,0
-3.48897e-05,8.11394e-06,-1.17722e-05,8.83014e-05,0.000191278,-8.91424e-06,1.8421e-05,8.30899e-06,0
-3.96483e-05,1.79353e-06,-9.56143e-06,3.57816e-05,0.000174849,-1.07693e-05,8.21562e-06,1.01415e-05,0
-4.46951e-05,-5.93402e-06,-6.92293e-06,-8.28494e-05,0.000123298,-1.29491e-05,1.73671e-06,1.15309e-05,0
-5.15692e-05,-1.52967e-05,-7.37014e-06,-0.000172223,8.3862e-05,-1.54112e-05,2.10991e-06,1.13176e-05,0
-5.92395e-05,-2.25048e-05,-1.13103e-05,-0.000157352,6.67699e-05,-1.81833e-05,4.26572e-06,9.2952e-06,0
-6.33237e-05,-2.43247e-05,-1.67057e-05,-5.73224e-05,1.98194e-05,-2.17687e-05,1.84001e-06,6.85552e-06,0
-6.27395e-05,-2.1291e-05,-2.07696e-05,5.22989e-05,-7.1907e-05,-2.57719e-05,-3.33756e-06,6.02338e-06,0
-5.88867e-05,-1.50399e-05,-1.94157e-05,0.000111704,-0.000153771,-2.75389e-05,-6.51486e-06,6.48637e-06,0
-5.1052e-05,-6.84514e-06,-1.03781e-05,0.000123398,-0.00018248,-2.25079e-05,-5.35976e-06,6.70587e-06,0
-3.90405e-05,2.73987e-06,1.34294e-06,0.000113637,-0.00013821,-1.13629e-05,-6.80028e-07,5.99647e-06,0
-2.72003e-05,1.17328e-05,7.44032e-06,8.57803e-05,-4.22109e-05,-2.28277e-06,5.26174e-06,5.00566e-06,0
-2.21622e-05,1.67891e-05,6.01144e-06,3.84355e-05,3.36541e-05,9.5063e-07,1.08564e-05,5.25415e-06,0
-2.3605e-05,1.73123e-05,2.77783e-06,-1.22973e-05,7.53875e-05,6.08228e-06,1.49434e-05,6.00533e-06,0
-2.53874e-05,1.77263e-05,8.85507e-07,-4.05151e-05,0.000103579,1.88434e-05,1.70114e-05,4.75202e-06,0
-2.44073e-05,2.0208e-05,-2.29229e-07,-1.8707e-05,9.6072e-05,3.05521e-05,1.8421e-05,1.48765e-06,0
-2.24953e-05,1.92149e-05,-1.61024e-06,3.96841e-05,4.53107e-05,3.20643e-05,2.02877e-05,2.80609e-08,0
-2.08178e-05,1.41996e-05,-5.31375e-06,7.68476e-05,-1.35923e-05,2.78451e-05,2.26788e-05,1.23384e-06,0
-2.06392e-05,1.14342e-05,-9.22295e-06,6.10858e-05,-2.84652e-05,2.99293e-05,2.66735e-05,1.82911e-06,0
-2.32218e-05,1.11879e-05,-9.96498e-06,2.29661e-05,-1.16952e-05,2.70712e-05,3.1546e-05,1.58594e-06,0
-2.59307e-05,1.05611e-05,-8.73503e-06,-1.76397e-05,4.28877e-06,4.26481e-06,3.41701e-05,1.96354e-06,0
-2.57167e-05,1.07934e-05,-8.40006e-06,-6.72326e-05,2.33579e-05,-2.41513e-05,3.57777e-05,2.74548e-06,0
-2.41938e-05,1.25674e-05,-9.77513e-06,-0.000118945,3.54804e-05,-3.5171e-05,3.72012e-05,3.06992e-06,0
-2.61579e-05,1.22771e-05,-1.11579e-05,-0.000145456,3.79144e-05,-3.37081e-05,3.62081e-05,3.32429e-06,0
-3.61171e-05,9.00509e-06,-1.18267e-05,-0.000124899,3.92959e-05,-4.0584e-05,3.24707e-05,3.45349e-06,0
-4.84564e-05,5.3626e-06,-1.29659e-05,-8.27926e-05,4.074e-05,-5.61562e-05,2.52794e-05,4.49502e-06,0
-5.16026e-05,5.29321e-06,-1.34028e-05,-5.19658e-05,1.98245e-05,-6.58787e-05,1.81466e-05,5.74088e-06,0
-4.44337e-05,8.94402e-06,-1.11042e-05,-3.76852e-05,-2.03891e-05,-6.33564e-05,1.37242e-05,5.57555e-06,0
-3.52934e-05,1.44117e-05,-7.77166e-06,-2.75052e-05,-5.64403e-05,-6.18826e-05,1.1435e-05,5.21444e-06,0
-2.70418e-05,1.71645e-05,-5.39083e-06,-1.24664e-05,-4.13654e-05,-6.45278e-05,7.59292e-06,4.28022e-06,0
-1.52814e-05,1.54325e-05,-4.87888e-06,-1.87852e-06,3.77499e-05,-5.3868e-05,-1.05545e-06,1.00477e-06,0
-5.83179e-06,1.28478e-05,-4.40795e-06,1.43118e-05,0.000114024,-2.86957e-05,-1.09569e-05,-2.75409e-06,0
-7.61426e-06,1.09879e-05,-1.76772e-06,7.47943e-05,0.00011849,-1.1022e-05,-1.32678e-05,-3.10974e-06,0
-1.82119e-05,9.95559e-06,3.32327e-06,0.000171298,5.85111e-05,-1.43758e-05,-5.98249e-06,-2.18905e-07,0
-2.57606e-05,1.05149e-05,6.50321e-06,0.000205043,2.59825e-05,-2.85138e-05,3.10191e-06,3.01628e-06,0
-2.5154e-05,1.20366e-05,2.08387e-06,0.000118564,6.95593e-05,-3.54487e-05,8.70209e-06,4.57014e-06,0
-2.32118e-05,1.13015e-05,-8.5271e-06,-1.36076e-05,0.000121637,-2.43626e-05,1.11747e-05,5.26961e-06,0
-2.56315e-05,7.13602e-06,-1.54588e-05,-9.89438e-05,0.000101706,7.28266e-06,1.36018e-05,4.51692e-06,0
-3.2258e-05,2.01459e-06,-1.28596e-05,-0.000124639,2.31053e-05,4.41807e-05,1.58908e-05,2.63428e-06,0
-3.99325e-05,-5.34779e-07,-8.97534e-06,-0.000139791,-8.0069e-05,4.79533e-05,1.65275e-05,2.31987e-06,0
-4.28049e-05,-1.10827e-06,-1.05832e-05,-0.000175671,-0.00017541,1.94444e-05,1.43147e-05,1.62356e-06,0
-3.78195e-05,-2.3586e-06,-1.56903e-05,-0.000195269,-0.000230188,-2.90596e-06,1.06747e-05,-1.37194e-06,0
-3.01326e-05,-6.72311e-06,-1.83302e-05,-0.000158898,-0.000246548,-1.10031e-05,9.05728e-06,-4.92621e-06,0
-2.31155e-05,-1.01518e-05,-1.44088e-05,-9.62293e-05,-0.000237834,-1.14606e-05,1.05575e-05,-7.95419e-06,0
-1.80229e-05,-1.03048e-05,-8.84134e-06,-5.46271e-05,-0.000184469,-1.32448e-05,1.41955e-05,-7.35049e-06,0
-1.65142e-05,-7.2956e-06,-7.80137e-06,-4.2754e-05,-7.21722e-05,-1.90985e-05,1.80949e-05,-4.40272e-06,0
-1.85029e-05,-2.27981e-06,-9.25276e-06,-3.77961e-05,6.27495e-05,-2.1928e-05,1.96708e-05,-4.12108e-06,0
-2.14817e-05,-2.8811e-07,-1.2245e-05,-3.02031e-05,0.000141938,-2.03526e-05,1.73591e-05,-5.96339e-06,0
-2.78149e-05,-1.14741e-06,-1.72309e-05,-3.10074e-05,0.000116835,-2.44597e-05,1.40186e-05,-5.70163e-06,0
-3.8813e-05,-4.94327e-07,-2.27295e-05,-3.08848e-05,3.38303e-05,-3.80158e-05,1.11405e-05,-1.67811e-07,0
-4.95529e-05,2.30448e-06,-2.58659e-05,-1.26349e-05,-3.74238e-05,-4.88521e-05,7.72615e-06,4.76798e-06,0
-5.54484e-05,5.36588e-06,-2.55923e-05,2.01177e-05,-4.29918e-05,-5.05182e-05,4.08194e-06,5.46796e-06,0
-5.09409e-05,9.77444e-06,-2.34146e-05,1.49601e-05,3.61595e-05,-4.01584e-05,8.20402e-07,3.82426e-06,0
-3.70908e-05,1.26867e-05,-2.02995e-05,-6.58397e-05,0.000145585,-2.33873e-05,-1.56471e-06,2.20846e-06,0
-2.40796e-05,1.24469e-05,-1.73962e-05,-0.000162294,0.000168112,-1.58266e-05,-3.59678e-06,2.14936e-06,0
-1.86249e-05,1.02065e-05,-1.44308e-05,-0.000190051,0.00010003,-3.08155e-05,-5.84279e-06,2.72782e-06,0
-1.97842e-05,7.15373e-06,-1.17891e-05,-0.000140107,4.22657e-05,-5.83895e-05,-7.46632e-06,3.45211e-06,0
-2.49658e-05,5.9952e-06,-9.48354e-06,-5.39216e-05,3.65847e-05,-5.29051e-05,-7.49604e-06,4.08866e-06,0
-3.38215e-05,7.55875e-06,-6.93259e-06,4.36809e-05,6.13845e-05,7.46505e-06,-7.36128e-06,5.23785e-06,0
-4.49307e-05,1.04764e-05,-1.59251e-06,0.000137621,8.40745e-05,5.9345e-05,-7.90321e-06,5.69758e-06,0
-5.09014e-05,1.41539e-05,7.36406e-06,0.0002017,9.77209e-05,5.63853e-05,-7.91848e-06,4.48797e-06,0
-4.72601e-05,1.79624e-05,1.41618e-05,0.000207245,9.28872e-05,3.9035e-05,-5.82155e-06,2.81755e-06,0
-3.751e-05,1.99189e-05,1.29043e-05,0.00015771,5.79655e-05,3.85575e-05,-2.77949e-06,2.93795e-06,0
-2.55137e-05,2.01822e-05,6.00822e-06,9.42746e-05,9.60823e-06,3.73696e-05,-1.02391e-06,4.42636e-06,0
-1.4236e-05,2.062e-05,1.85737e-07,4.40322e-05,-3.57079e-06,2.95398e-05,-2.97155e-06,5.39036e-06,0
-1.07126e-05,2.09953e-05,-2.12127e-06,-3.5316e-06,1.73088e-05,2.22378e-05,-1.19273e-05,4.87979e-06,0
-1.68014e-05,2.10505e-05,-2.20479e-06,-3.98756e-05,3.06291e-05,1.04387e-05,-2.35184e-05,3.49098e-06,0
-2.42463e-05,2.25175e-05,-2.05864e-06,-4.67198e-05,2.6366e-05,-2.34698e-06,-2.5684e-05,1.85298e-06,0
-2.73566e-05,2.43987e-05,-2.612e-06,-3.31261e-05,1.87387e-05,-8.79181e-06,-1.47153e-05,4.8777e-07,0
-2.94497e-05,2.57903e-05,-3.96471e-06,-2.56478e-06,1.44832e-05,-7.373e-06,2.72558e-06,-1.4435e-07,0
-3.48238e-05,2.54539e-05,-3.93363e-06,3.59868e-05,1.92649e-05,-4.1149e-06,2.17406e-05,-7.83265e-07,0
-4.26195e-05,2.26346e-05,-3.6406e-06,5.67463e-05,4.10452e-05,-3.5162e-06,4.2579e-05,-2.52418e-06,0
-4.82416e-05,1.94379e-05,-6.13466e-06,5.57868e-05,5.41544e-05,-5.41207e-06,5.98146e-05,-5.486e-06,0
-5.0232e-05,1.63096e-05,-8.0527e-06,6.43839e-05,3.20221e-05,-8.40469e-06,6.93632e-05,-7.0919e-06,0
-5.03747e-05,1.18135e-05,-7.26238e-06,8.56413e-05,-3.56891e-06,-1.26231e-05,7.28159e-05,-7.46271e-06,0
-5.03113e-05,5.3822e-06,-6.26477e-06,6.51852e-05,-2.44862e-05,-1.77288e-05,6.79846e-05,-6.89084e-06,0
-4.88536e-05,1.66504e-06,-7.92641e-06,-2.92088e-06,-2.8032e-05,-2.04489e-05,5.68375e-05,-5.97247e-06,0
-4.30596e-05,2.62526e-06,-1.14699e-05,-6.76241e-05,-2.40146e-05,-1.82016e-05,4.14808e-05,-5.80949e-06,0
-3.56382e-05,5.79145e-06,-1.21906e-05,-7.63238e-05,-1.20585e-05,-1.35089e-05,2.68328e-05,-4.95657e-06,0
-2.95853e-05,1.09344e-05,-6.98025e-06,-9.60573e-06,1.72548e-05,-7.863e-06,1.41399e-05,-3.33402e-06,0
-2.50848e-05,1.80747e-05,1.13035e-06,8.19361e-05,5.49929e-05,-3.17132e-06,3.61472e-06,-3.18477e-06,0
-2.09871e-05,2.40564e-05,8.77472e-06,0.000134972,7.10918e-05,-3.68361e-06,-3.33688e-06,-5.33061e-06,0
-1.91227e-05,2.57535e-05,1.7048e-05,0.000116089,4.89033e-05,-9.24748e-06,-6.37538e-06,-7.03285e-06,0
-1.92943e-05,2.43839e-05,3.00777e-05,4.62626e-05,1.20586e-05,-1.52003e-05,-5.49174e-06,-6.80014e-06,0
-1.99608e-05,2.18539e-05,4.74133e-05,-2.62701e-05,-6.40998e-06,-1.72894e-05,-3.99527e-06,-5.30999e-06,0
-2.10976e-05,1.86343e-05,6.13963e-05,-7.00066e-05,8.49913e-06,-1.53014e-05,-3.84535e-06,-4.01117e-06,0
-2.25258e-05,1.45685e-05,6.57862e-05,-7.39054e-05,5.09426e-05,-1.22147e-05,-5.06513e-06,-2.98198e-06,0
-2.46732e-05,1.04926e-05,5.61336e-05,-3.11311e-05,0.000109314,-1.21984e-05,-5.55533e-06,-2.45002e-06,0
-2.84515e-05,4.86525e-06,3.06119e-05,4.0078e-05,0.00013813,-1.48032e-05,-3.80368e-06,-2.32379e-06,0
-3.49491e-05,-3.2372e-06,-6.92922e-06,8.41754e-05,8.22199e-05,-1.79914e-05,1.44338e-06,-2.94125e-06,0
-4.14261e-05,-8.78437e-06,-4.6183e-05,7.49817e-05,-3.57306e-05,-1.85094e-05,7.18946e-06,-5.9743e-06,0
-4.4062e-05,-6.17414e-06,-7.52878e-05,4.71896e-05,-0.000125714,-1.4235e-05,1.07416e-05,-9.588e-06,0
-4.17485e-05,2.95124e-06,-8.74517e-05,3.65706e-05,-0.000133925,-6.23691e-06,1.19137e-05,-1.03388e-05,0
-3.71768e-05,1.20102e-05,-8.62413e-05,3.87983e-05,-8.16103e-05,2.20304e-06,1.3032e-05,-9.96077e-06,0
-3.26327e-05,1.71878e-05,-7.70318e-05,3.84124e-05,-2.34178e-05,8.42996e-06,1.42623e-05,-1.09417e-05,0
-2.73843e-05,1.94305e-05,-6.36753e-05,3.20294e-05,2.50361e-05,1.26584e-05,1.50338e-05,-1.15168e-05,0
-1.86317e-05,2.07427e-05,-5.08595e-05,3.21734e-05,8.90231e-05,1.7956e-05,1.62399e-05,-1.14058e-05,0
-1.07136e-05,2.28012e-05,-3.92254e-05,4.20965e-05,0.000177423,1.90301e-05,1.8245e-05,-1.03805e-05,0
-1.09493e-05,2.60505e-05,-2.83101e-05,5.8247e-05,0.000251564,2.84203e-06,2.015e-05,-8.07137e-06,0
-2.169e-05,2.55448e-05,-2.0369e-05,6.71427e-05,0.000206227,-2.49552e-05,2.2011e-05,-5.73262e-06,0
-3.25807e-05,2.07084e-05,-1.65357e-05,5.57236e-05,4.25495e-05,-4.57504e-05,2.33945e-05,-5.70923e-06,0
-3.3223e-05,1.58128e-05,-1.38033e-05,3.74164e-05,-0.000104924,-5.38136e-05,2.28845e-05,-5.2596e-06,0
-2.79015e-05,1.39067e-05,-1.24133e-05,2.97003e-05,-0.000156745,-5.21863e-05,2.16453e-05,-2.33237e-06,0
-2.45424e-05,1.60713e-05,-1.261e-05,2.45599e-05,-0.00013336,-4.37482e-05,1.96845e-05,-3.41223e-07,0
-2.57762e-05,2.243e-05,-1.11832e-05,8.55575e-06,-0.000101708,-3.57457e-05,1.73388e-05,-5.29825e-07,0
-2.7802e-05,2.97821e-05,-8.72404e-06,-1.74769e-05,-8.0508e-05,-3.4409e-05,1.50274e-05,-4.00054e-07,0
-2.89071e-05,3.25982e-05,-8.83967e-06,-6.12698e-05,-6.24633e-05,-3.10471e-05,1.33329e-05,1.54938e-06,0
-2.72572e-05,3.10801e-05,-9.09912e-06,-0.000121335,-6.34919e-05,-2.26398e-05,1.36604e-05,2.64939e-06,0
-2.44837e-05,2.78599e-05,-5.46262e-06,-0.000163855,-9.3966e-05,-1.67501e-05,1.51797e-05,2.23101e-06,0
-2.21065e-05,2.71963e-05,6.44516e-07,-0.000163275,-0.000106729,-1.44281e-05,1.67504e-05,2.16707e-06,0
-2.07158e-05,2.90738e-05,4.4151e-06,-0.0001433,-6.92005e-05,-1.2404e-05,1.81112e-05,2.83295e-06,0
-2.14385e-05,3.20377e-05,3.95134e-06,-0.000129433,-1.26567e-05,-9.74251e-06,1.86028e-05,3.46396e-06,0
-2.39076e-05,3.42994e-05,2.17497e-06,-0.000121985,3.48262e-05,-7.57137e-06,1.94476e-05,4.12239e-06,0
-2.64844e-05,3.48149e-05,2.27713e-06,-0.000117127,7.17734e-05,-6.78075e-06,2.1543e-05,4.27445e-06,0
-2.72079e-05,3.35687e-05,3.52248e-06,-0.000107311,0.000107389,-8.03613e-06,2.32951e-05,4.23096e-06,0
-2.69264e-05,2.85526e-05,2.25604e-06,-8.37719e-05,0.000134865,-9.04961e-06,2.25502e-05,4.38338e-06,0
-2.62751e-05,2.08058e-05,-1.0431e-06,-5.29318e-05,0.000137697,-9.27851e-06,2.04241e-05,3.39889e-06,0
-2.61244e-05,1.47086e-05,-3.2268e-06,-3.10888e-05,9.58881e-05,-8.86721e-06,1.97715e-05,2.71702e-06,0
-2.81639e-05,1.25782e-05,-3.8145e-06,-1.99285e-05,2.43522e-05,-5.84236e-06,2.17214e-05,3.25727e-06,0
-3.30395e-05,1.16986e-05,-5.12429e-06,-1.1377e-05,-3.65488e-05,5.25174e-06,2.33532e-05,2.54406e-06,0
-3.5946e-05,1.21655e-05,-6.63959e-06,3.16366e-06,-6.40515e-05,2.41625e-05,1.99795e-05,1.87514e-06,0
-3.25029e-05,1.40339e-05,-4.79002e-06,2.74652e-05,-7.08963e-05,4.26565e-05,1.03099e-05,2.38708e-06,0
-2.41895e-05,1.53738e-05,8.24554e-07,4.91813e-05,-7.98614e-05,5.29381e-05,8.2185e-07,2.63643e-06,0
-1.74561e-05,1.6086e-05,5.019e-06,4.25295e-05,-0.000105558,5.46352e-05,-8.44205e-07,1.15003e-06,0
-1.64018e-05,1.58398e-05,3.12375e-06,-4.64877e-07,-0.000127738,5.0027e-05,5.56066e-06,-1.639e-06,0
-1.89738e-05,1.47479e-05,-3.16013e-06,-5.20532e-05,-3.10761e-05,3.30539e-05,1.60894e-05,-1.47029e-06,0
-2.19398e-05,1.57014e-05,-7.06118e-06,-5.80525e-05,0.000280729,-5.22887e-06,2.33848e-05,1.03683e-06,0
-2.60634e-05,1.66136e-05,-7.60141e-06,-2.26231e-05,0.000638961,-5.50321e-05,2.56131e-05,3.26986e-06,0
-3.03685e-05,1.43775e-05,-7.17123e-06,1.98471e-05,0.000734687,-8.52695e-05,2.75067e-05,2.15868e-06,0
-3.24427e-05,1.20272e-05,-6.86139e-06,6.79165e-05,0.000454991,-6.99756e-05,3.0287e-05,-2.89031e-06,0
-3.57763e-05,1.23407e-05,-7.17006e-06,0.000105992,-3.28134e-05,-3.33849e-05,3.24673e-05,-6.22516e-06,0
-4.015e-05,1.25402e-05,-6.42995e-06,0.000113988,-0.000443999,-2.27052e-05,3.09815e-05,-5.74314e-06,0
-4.0137e-05,1.225e-05,-6.0066e-06,8.10975e-05,-0.000601311,-3.29493e-05,2.80459e-05,-3.26098e-06,0
-3.456e-05,1.32694e-05,-5.09452e-06,2.45196e-05,-0.000521718,-3.55186e-05,2.16032e-05,-1.5273e-06,0
-2.81635e-05,1.4418e-05,-3.00721e-06,-1.24501e-05,-0.000329419,-2.78955e-05,7.42524e-06,-1.62838e-06,0
-2.5965e-05,1.48735e-05,-3.01155e-06,9.18418e-06,-0.000134343,-2.27472e-05,-8.21895e-06,-2.57403e-06,0
-2.85196e-05,1.49207e-05,-7.3531e-06,7.08157e-05,6.07764e-07,-2.01095e-05,-1.67818e-05,-2.84275e-06,0
-3.20925e-05,1.51128e-05,-1.16668e-05,0.000125416,5.67356e-05,-1.55265e-05,-1.73159e-05,-2.47234e-06,0
-3.50069e-05,1.43987e-05,-1.24003e-05,0.000139081,4.14459e-05,-1.14286e-05,-1.4991e-05,-6.07757e-07,0
-3.81772e-05,1.1996e-05,-1.05434e-05,8.47836e-05,-8.9008e-06,-1.10255e-05,-1.02552e-05,1.64884e-06,0
-4.01418e-05,9.93641e-06,-7.38158e-06,-3.59396e-05,-3.14713e-05,-1.20284e-05,-1.86542e-06,1.56755e-06,0
-3.85265e-05,1.01574e-05,-5.41318e-06,-0.000165457,1.9028e-05,-1.06849e-05,1.04933e-05,5.21522e-07,0
-3.51735e-05,1.0262e-05,-6.24701e-06,-0.000231981,0.000105216,-8.22076e-06,2.38004e-05,4.30167e-07,0
-3.36236e-05,8.98383e-06,-9.28328e-06,-0.000213265,0.000142787,-8.1525e-06,3.21627e-05,9.0433e-07,0
-3.47187e-05,7.8515e-06,-1.36712e-05,-0.000120167,0.000116444,-1.12843e-05,3.19826e-05,1.17861e-06,0
-3.74684e-05,7.48513e-06,-1.86495e-05,5.89241e-06,0.000101576,-1.44574e-05,2.66255e-05,1.55237e-06,0
-3.97309e-05,6.5318e-06,-1.9779e-05,0.000116888,0.000166504,-1.36094e-05,2.30931e-05,3.07829e-07,0
-4.01696e-05,5.71025e-06,-1.68912e-05,0.000176834,0.000266936,-8.46213e-06,2.31032e-05,-2.01138e-06,0
-4.01126e-05,5.08367e-06,-1.56204e-05,0.000172567,0.00028942,-4.59369e-06,2.15057e-05,-2.34738e-06,0
-3.99552e-05,5.70322e-06,-1.73023e-05,0.00010576,0.000197868,-1.43331e-06,1.42742e-05,-1.28469e-06,0
-3.53007e-05,9.53301e-06,-1.63777e-05,-5.25859e-06,4.21199e-05,6.19446e-06,7.08717e-06,-1.62327e-06,0
-2.62655e-05,1.55559e-05,-8.31959e-06,-0.000110966,-0.000112292,1.79937e-05,5.80562e-06,-8.36103e-07,0
-1.99512e-05,2.04181e-05,1.21433e-06,-0.000182906,-0.000230697,1.85645e-05,6.76396e-06,3.59005e-06,0
-2.09656e-05,2.00444e-05,2.62803e-06,-0.000223027,-0.00026901,2.70972e-06,7.35824e-06,7.18459e-06,0
-2.4656e-05,1.65635e-05,-1.7336e-06,-0.000249134,-0.000206141,-6.63441e-07,8.668e-06,9.08056e-06,0
-2.65169e-05,1.51113e-05,-4.01928e-06,-0.00025398,-0.00010778,2.46508e-05,8.75853e-06,9.06332e-06,0
-2.67324e-05,1.62397e-05,-3.92484e-06,-0.00022004,-2.2499e-05,4.36212e-05,6.90959e-06,6.53241e-06,0
-2.66064e-05,1.48085e-05,-5.41334e-06,-0.000164738,4.19576e-05,2.09299e-05,4.94562e-06,5.33435e-06,0
-2.89172e-05,1.21729e-05,-7.80409e-06,-7.26921e-05,7.24822e-05,-2.24315e-05,3.40641e-06,4.99435e-06,0
-2.97765e-05,1.27557e-05,-5.8562e-06,5.19163e-05,5.59315e-05,-3.84811e-05,3.31521e-06,5.15417e-06,0
-2.60788e-05,1.61704e-05,1.63727e-06,0.000172859,-5.90105e-07,-2.41572e-05,5.09957e-06,5.60002e-06,0
-1.89841e-05,2.0887e-05,9.65066e-06,0.000251979,-6.97372e-05,-8.39566e-06,7.8653e-06,6.61229e-06,0
-1.38418e-05,2.16266e-05,1.12527e-05,0.000250193,-0.000108089,-2.93246e-06,8.05679e-06,7.61987e-06,0
-1.3435e-05,1.767e-05,5.59437e-06,0.000188258,-8.78975e-05,-5.5142e-06,6.65345e-06,8.33276e-06,0
-1.58516e-05,1.32167e-05,-1.13887e-06,0.000116158,-1.72681e-05,-8.20639e-06,4.83277e-06,8.95363e-06,0
-1.80884e-05,1.2007e-05,-2.98739e-06,5.50046e-05,7.35133e-05,-8.36222e-06,-3.03932e-07,8.69982e-06,0
-1.85757e-05,1.3113e-05,-1.16668e-06,1.61983e-06,0.000136401,-7.41841e-06,-5.53168e-06,8.35146e-06,0
-1.86871e-05,1.38303e-05,-5.53967e-07,-4.1607e-05,0.000138115,-7.34074e-06,-4.13556e-06,6.76336e-06,0
-1.97466e-05,1.38122e-05,-2.84056e-06,-7.19974e-05,9.39826e-05,-1.06663e-05,5.93182e-06,4.00654e-06,0
-2.46636e-05,1.30579e-05,-6.61306e-06,-8.95645e-05,4.68589e-05,-2.23536e-05,1.80562e-05,1.37195e-06,0
-3.09425e-05,1.05781e-05,-9.41563e-06,-9.57946e-05,2.80695e-05,-3.93472e-05,2.63763e-05,5.18795e-07,0
-3.13789e-05,7.14624e-06,-1.01972e-05,-8.95822e-05,3.16339e-05,-4.89294e-05,3.0717e-05,1.36151e-06,0
-2.62857e-05,6.33857e-06,-1.02635e-05,-7.36192e-05,3.43342e-05,-4.52109e-05,3.41314e-05,2.90034e-06,0
-2.62686e-05,6.48566e-06,-1.11185e-05,-5.63603e-05,2.12393e-05,-3.75385e-05,3.51658e-05,4.46437e-06,0
-3.41342e-05,3.84822e-06,-1.29336e-05,-4.39117e-05,-6.13287e-06,-3.53756e-05,3.36265e-05,5.96778e-06,0
-4.06304e-05,2.87856e-08,-1.54074e-05,-3.11943e-05,-2.5345e-05,-3.03336e-05,3.2054e-05,6.70481e-06,0
-3.37454e-05,1.73014e-06,-1.63262e-05,-1.32842e-05,-1.87934e-05,-5.80635e-06,3.11462e-05,7.25885e-06,0
-1.96902e-05,9.03056e-06,-1.53191e-05,3.88651e-07,-2.64918e-06,2.87447e-05,3.00152e-05,7.90386e-06,0
-2.05917e-05,1.37282e-05,-1.52323e-05,7.46604e-06,-4.30266e-07,5.64248e-05,2.73834e-05,9.20948e-06,0
-3.47462e-05,1.1063e-05,-1.73633e-05,1.12802e-05,8.39614e-07,5.8502e-05,1.77184e-05,9.97055e-06,0
-3.90288e-05,4.35069e-06,-1.9709e-05,3.87057e-06,1.45014e-05,1.71892e-05,1.22949e-06,1.03696e-05,0
-3.52156e-05,-9.57778e-08,-2.12136e-05,-1.00799e-05,2.45704e-05,-2.42897e-05,-1.39636e-05,1.03389e-05,0
-3.91756e-05,-1.28279e-06,-2.33157e-05,-1.01703e-05,2.55674e-05,-3.74029e-05,-1.88186e-05,9.04138e-06,0
-5.17971e-05,-2.04365e-06,-2.3276e-05,1.48288e-05,2.80772e-05,-3.74705e-05,-8.51425e-06,9.13937e-06,0
-6.44918e-05,-1.75567e-06,-2.12975e-05,4.74646e-05,3.23129e-05,-3.35673e-05,3.18685e-06,8.81287e-06,0
-6.86883e-05,-1.00621e-06,-2.0137e-05,5.05098e-05,3.8013e-05,-2.67408e-05,8.53215e-06,6.9915e-06,0
-6.64609e-05,-1.05932e-06,-1.98776e-05,1.98534e-05,4.50789e-05,-1.64208e-05,9.03167e-06,5.29025e-06,0
-5.88243e-05,-1.94669e-06,-2.03802e-05,-1.89905e-05,4.65203e-05,-2.92985e-06,6.50592e-06,5.35003e-06,0
-4.5144e-05,-1.8579e-06,-2.08545e-05,-4.61751e-05,3.60244e-05,1.39749e-05,4.78532e-06,6.023e-06,0
-3.24557e-05,1.77145e-06,-1.82971e-05,-5.43211e-05,1.93486e-05,2.06096e-05,5.74281e-06,5.2473e-06,0
-3.04418e-05,5.8749e-06,-1.31577e-05,-4.60703e-05,4.72393e-06,7.81716e-06,7.91725e-06,3.68534e-06,0
-3.72613e-05,6.93082e-06,-1.00541e-05,-2.95583e-05,-1.39326e-05,-1.73144e-05,8.56041e-06,2.72121e-06,0
-4.09833e-05,5.59622e-06,-1.13788e-05,-1.89126e-05,-4.45865e-05,-4.10662e-05,6.76955e-06,1.71201e-06,0
-3.63066e-05,4.42548e-06,-1.54881e-05,-1.3889e-05,-6.9886e-05,-5.71314e-05,4.11776e-06,1.11759e-06,0
-2.80757e-05,4.66785e-06,-1.7757e-05,5.15284e-06,-5.68851e-05,-6.58119e-05,4.00919e-06,2.51602e-06,0
-2.21528e-05,6.05876e-06,-1.71494e-05,3.89126e-05,-2.72532e-07,-6.99496e-05,6.65498e-06,4.5571e-06,0
-2.05973e-05,7.46814e-06,-1.52518e-05,6.55844e-05,6.94708e-05,-6.54914e-05,1.05635e-05,5.43718e-06,0
-2.28079e-05,7.97853e-06,-1.28176e-05,7.23261e-05,0.000121338,-3.97085e-05,1.34011e-05,5.94229e-06,0
-2.66982e-05,6.73382e-06,-9.24723e-06,6.04383e-05,0.000141207,1.1195e-05,1.42194e-05,7.08694e-06,0
-3.10505e-05,4.31538e-06,-4.76554e-06,3.41683e-05,0.000121214,5.1016e-05,1.36517e-05,9.6758e-06,0
-3.04828e-05,3.99421e-06,-1.02169e-07,6.03919e-06,6.40252e-05,4.09107e-05,1.21699e-05,1.21056e-05,0
-1.88788e-05,8.56374e-06,2.89668e-06,-4.03918e-06,-1.70756e-05,1.21576e-05,9.6012e-06,1.01639e-05,0
-6.01897e-06,1.53939e-05,2.63089e-06,2.0247e-05,-9.19972e-05,3.37654e-06,8.48001e-06,5.54204e-06,0
-4.38245e-06,1.83462e-05,1.51017e-06,5.53658e-05,-0.00012343,-2.72107e-06,1.05364e-05,1.68417e-06,0
-9.63039e-06,1.65284e-05,2.03859e-06,7.50043e-05,-0.000122754,-2.0707e-05,1.3473e-05,2.5024e-07,0
-1.26587e-05,1.3849e-05,3.04638e-06,0.000101528,-0.000150409,-3.84981e-05,1.68228e-05,1.88706e-06,0
-1.56838e-05,1.23012e-05,2.74816e-06,0.00011978,-0.000208892,-5.37006e-05,2.20316e-05,3.78717e-06,0
-2.42904e-05,1.24728e-05,2.3836e-07,8.81446e-05,-0.000216045,-6.37174e-05,2.34338e-05,4.05257e-06,0
-3.15371e-05,1.3559e-05,7.30888e-07,2.67343e-05,-0.000131076,-6.16553e-05,2.13679e-05,2.23053e-06,0
-3.25867e-05,1.34745e-05,4.88847e-06,-2.38382e-05,2.15938e-06,-4.94271e-05,2.12694e-05,-1.50633e-06,0
-3.1785e-05,1.12853e-05,5.88277e-06,-4.21389e-05,0.000146188,-3.21587e-05,2.20113e-05,-2.93848e-06,0
-3.42107e-05,5.93752e-06,3.23303e-06,-3.16819e-05,0.000316618,-1.5741e-05,2.14445e-05,-2.60072e-06,0
-3.57174e-05,5.57108e-07,1.97774e-06,-1.55269e-05,0.000485653,8.80273e-07,1.83386e-05,-2.88778e-06,0
-3.49702e-05,-3.61133e-06,2.54851e-06,3.12482e-07,0.000515693,1.45953e-05,1.63145e-05,-2.48986e-06,0
-4.29462e-05,-9.96132e-06,-1.8215e-06,1.5392e-05,0.000337445,3.01941e-05,1.43825e-05,-1.97659e-06,0
-6.56225e-05,-1.48176e-05,-1.13469e-05,1.56158e-05,4.57596e-05,5.17368e-05,1.25317e-05,-2.37025e-06,0
-9.38934e-05,-1.36166e-05,-1.92388e-05,-6.11194e-06,-0.000207837,5.48367e-05,1.09734e-05,-3.69647e-06,0
-0.000108336,-5.29204e-06,-1.95261e-05,-3.41316e-05,-0.000312944,3.64735e-05,9.37389e-06,-3.8525e-06,0
-0.000101228,6.97039e-06,-1.31481e-05,-5.77016e-05,-0.00024639,1.98106e-05,8.29547e-06,-3.82793e-06,0
-8.07901e-05,1.72063e-05,-6.55378e-06,-8.40009e-05,-6.59731e-05,1.4695e-05,7.48712e-06,-4.62886e-06,0
-5.90454e-05,2.06126e-05,-5.13335e-06,-0.000110063,0.000108123,1.21786e-05,6.2564e-06,-4.52113e-06,0
-3.71878e-05,1.86821e-05,-7.14731e-06,-0.000118878,0.000168935,5.49653e-06,4.85907e-06,-2.31695e-06,0
-9.96111e-06,1.57741e-05,-8.59867e-06,-9.90713e-05,0.000104464,-3.04588e-07,5.38369e-06,7.1045e-07,0
2.00357e-05,1.3709e-05,-9.70642e-06,-6.13222e-05,-1.43568e-07,-1.19749e-06,6.48693e-06,2.03314e-06,0
3.95717e-05,1.35546e-05,-1.1666e-05,-2.39911e-05,-7.11437e-05,-6.73858e-07,7.1359e-06,1.39135e-06,0
3.9889e-05,1.34906e-05,-1.2205e-05,1.34931e-05,-9.96005e-05,-2.32068e-06,7.33035e-06,1.08756e-06,0
2.81856e-05,1.22563e-05,-8.00722e-06,6.07044e-05,-9.22822e-05,-3.31462e-06,7.97895e-06,2.80825e-06,0
1.48802e-05,1.07088e-05,-2.21286e-06,0.000101039,-4.86085e-05,-1.72705e-06,8.20318e-06,4.19717e-06,0
3.41483e-06,7.3756e-06,-9.73927e-07,9.96412e-05,1.64641e-05,-2.55496e-06,7.32265e-06,3.06075e-06,0
-6.62041e-06,1.65702e-06,-5.20632e-06,5.21277e-05,5.14141e-05,-1.22664e-05,5.3961e-06,8.46739e-07,0
-1.25594e-05,-7.49791e-07,-9.66532e-06,-6.91312e-06,3.82996e-05,-2.61231e-05,5.22726e-06,1.00258e-07,0
-1.56515e-05,3.92092e-07,-1.25212e-05,-4.64348e-05,2.20851e-05,-3.28642e-05,7.26917e-06,7.36993e-07,0
-2.12282e-05,1.4846e-06,-1.60628e-05,-3.77345e-05,6.8119e-05,-3.05513e-05,1.0453e-05,1.51476e-06,0
-3.06722e-05,-1.06056e-06,-1.75877e-05,2.78461e-05,0.000181643,-2.67662e-05,1.29185e-05,9.65028e-07,0
-3.90496e-05,-7.30941e-06,-1.51106e-05,8.08063e-05,0.000182902,-2.34249e-05,1.10902e-05,-4.50237e-07,0
-4.14876e-05,-1.44161e-05,-1.27839e-05,7.383e-05,1.09144e-05,-1.70429e-05,8.97976e-06,-1.1699e-06,0
-4.26846e-05,-2.28809e-05,-1.33015e-05,3.26891e-05,-0.000147522,-8.30383e-06,1.0041e-05,-1.63351e-06,0
-4.48581e-05,-2.92644e-05,-1.39593e-05,-4.33816e-06,-0.000181704,2.65651e-06,1.32159e-05,-2.0535e-06,0
-4.59204e-05,-3.00279e-05,-1.28554e-05,-2.30449e-05,-0.000146156,1.41253e-05,1.65464e-05,-2.52301e-06,0
-4.514e-05,-2.77658e-05,-1.05431e-05,-4.64991e-05,-0.000118469,1.84353e-05,1.86154e-05,-3.16821e-06,0
-4.26952e-05,-2.34139e-05,-7.0809e-06,-6.47586e-05,-5.27761e-05,1.51148e-05,2.00118e-05,-2.94116e-06,0
-4.06064e-05,-1.62413e-05,-5.88072e-06,-6.01368e-05,3.77709e-05,1.02933e-05,2.06856e-05,-2.08792e-06,0
-3.79743e-05,-7.79841e-06,-8.51068e-06,-3.86807e-05,9.53803e-05,3.75159e-06,2.37454e-05,1.87502e-07,0
-3.31752e-05,1.65369e-06,-1.04746e-05,-1.05344e-05,0.000110472,-1.1016e-05,2.9717e-05,2.27796e-06,0
-2.63655e-05,1.13628e-05,-9.39901e-06,1.16584e-05,0.000105997,-2.83367e-05,3.34961e-05,2.0055e-06,0
-1.98438e-05,1.73781e-05,-7.3923e-06,1.11929e-05,0.000111998,-3.15225e-05,3.31627e-05,7.37913e-07,0
-1.61702e-05,1.72626e-05,-7.57944e-06,-1.47261e-05,0.000135393,-1.93407e-05,3.16253e-05,-6.97404e-08,0
-1.77482e-05,1.49056e-05,-1.10396e-05,-4.40322e-05,0.000203189,-7.64774e-06,3.13397e-05,2.73162e-08,0
-2.34321e-05,1.45296e-05,-1.46988e-05,-6.02037e-05,0.00031452,-5.06675e-06,3.13171e-05,6.91087e-07,0
-2.95122e-05,1.65008e-05,-1.63723e-05,-5.26968e-05,0.000386198,-5.04811e-06,2.8566e-05,1.47991e-06,0
-3.23596e-05,1.88249e-05,-1.65698e-05,-2.33444e-05,0.000315774,-1.90407e-06,2.01683e-05,2.09831e-06,0
-3.19173e-05,2.08678e-05,-1.55883e-05,4.37966e-06,0.00011723,2.4392e-06,6.84238e-06,2.682e-06,0
-3.09557e-05,2.37452e-05,-1.27675e-05,1.01831e-06,-0.000115354,4.94932e-06,-7.03417e-06,3.32381e-06,0
-3.25078e-05,2.58654e-05,-1.06252e-05,-2.64601e-05,-0.000284785,3.55614e-06,-1.60118e-05,4.98368e-06,0
-3.66152e-05,2.50872e-05,-1.16972e-05,-4.34652e-05,-0.000345946,-4.34245e-06,-1.74726e-05,6.98626e-06,0
-3.83365e-05,2.28254e-05,-1.23044e-05,-2.57904e-05,-0.000292235,-1.33844e-05,-1.2136e-05,7.82074e-06,0
-3.41766e-05,2.22087e-05,-1.02746e-05,1.78357e-05,-0.000175362,-1.1359e-05,-3.54579e-06,7.81098e-06,0
-2.74769e-05,2.35594e-05,-8.80597e-06,5.28031e-05,-0.000108075,-1.03539e-06,2.63669e-06,7.79554e-06,0
-2.52077e-05,2.36994e-05,-1.06163e-05,4.74635e-05,-0.000121773,3.79045e-07,3.14039e-06,6.33751e-06,0
-2.67904e-05,2.27414e-05,-1.23358e-05,1.6659e-05,-0.000129839,-8.93353e-06,2.17569e-06,4.91066e-06,0
-2.98089e-05,2.20516e-05,-1.13732e-05,6.77585e-06,-7.19914e-05,-1.76866e-05,-1.63647e-06,4.42688e-06,0
-3.11952e-05,2.14062e-05,-1.03471e-05,1.76174e-05,1.85431e-05,-1.721e-05,-1.66489e-05,1.67732e-06,0
-2.93931e-05,2.08941e-05,-8.54914e-06,3.76536e-05,8.31405e-05,-9.03492e-06,-3.40667e-05,-3.07212e-06,0
-2.67075e-05,2.01736e-05,-4.05058e-06,6.55626e-05,0.000108953,-3.5894e-06,-3.67434e-05,-5.36209e-06,0
-2.52166e-05,1.94444e-05,1.25847e-06,6.47648e-05,9.2117e-05,-3.71324e-06,-2.40151e-05,-5.49157e-06,0
-2.67076e-05,1.79461e-05,3.75228e-06,1.45918e-05,4.64583e-05,-6.38533e-06,-4.25985e-06,-5.58178e-06,0
-2.96178e-05,1.57526e-05,4.5027e-06,-6.56736e-05,5.24906e-06,-9.04167e-06,1.54832e-05,-5.18207e-06,0
-3.30814e-05,1.50596e-05,7.91328e-06,-0.000140511,-7.91683e-06,-1.2732e-05,3.07188e-05,-4.42414e-06,0
-3.79997e-05,1.56299e-05,1.62007e-05,-0.00019365,4.00034e-06,-1.96485e-05,3.41818e-05,-4.35076e-06,0
-4.46523e-05,1.50379e-05,3.04049e-05,-0.000224818,9.07206e-06,-2.99844e-05,2.21462e-05,-5.33027e-06,0
-5.1327e-05,1.3863e-05,4.62888e-05,-0.000213082,-2.84359e-06,-4.06643e-05,4.58339e-06,-5.59282e-06,0
-5.37062e-05,1.60492e-05,5.65778e-05,-0.000144661,-1.34436e-05,-4.68283e-05,-4.22606e-06,-4.74608e-06,0
-4.78886e-05,2.0503e-05,5.56256e-05,-3.99084e-05,2.84229e-06,-4.12841e-05,2.37546e-06,-3.14473e-06,0
-3.66735e-05,2.31175e-05,4.05944e-05,4.79988e-05,2.33957e-05,-2.91818e-05,1.82547e-05,-2.58369e-06,0
-2.49007e-05,2.44461e-05,1.22588e-05,8.79069e-05,1.0199e-05,-3.25858e-05,3.40148e-05,-2.83332e-06,0
-1.36034e-05,2.61419e-05,-2.308e-05,8.8185e-05,-2.44688e-05,-3.6554e-05,4.52703e-05,-2.86672e-06,0
-5.49921e-06,2.91003e-05,-5.4231e-05,6.60586e-05,-2.61252e-05,4.76321e-06,5.08604e-05,-2.73462e-06,0
-6.74427e-06,3.23848e-05,-7.27965e-05,4.24472e-05,1.09831e-05,7.39071e-05,5.0672e-05,-2.58759e-06,0
-1.67514e-05,3.2779e-05,-7.68427e-05,3.62117e-05,3.50837e-05,9.44279e-05,4.67037e-05,-2.43513e-06,0
-2.4806e-05,2.96789e-05,-7.03049e-05,3.9501e-05,1.12331e-05,5.18142e-05,4.22559e-05,-1.9642e-06,0
-2.60439e-05,2.75824e-05,-5.88897e-05,3.86948e-05,-3.02372e-05,4.5771e-06,3.94668e-05,-2.47201e-06,0
-2.43478e-05,2.7754e-05,-4.62448e-05,3.64469e-05,-3.76225e-05,-9.32932e-06,3.74503e-05,-4.702e-06,0
-2.34259e-05,2.80412e-05,-3.54128e-05,3.54519e-05,2.73466e-06,-1.68836e-06,3.49303e-05,-6.38206e-06,0
-2.60036e-05,2.70037e-05,-2.75805e-05,3.03538e-05,7.52299e-05,5.38489e-06,3.06854e-05,-5.56058e-06,0
-3.36227e-05,2.341e-05,-2.30711e-05,1.65828e-06,0.000132153,4.89469e-06,2.45179e-05,-2.2791e-06,0
-4.13223e-05,1.96262e-05,-1.92325e-05,-3.68277e-05,0.000128158,-2.55473e-06,1.72378e-05,1.12345e-06,0
-4.08433e-05,2.02294e-05,-1.28044e-05,-2.70406e-05,9.24639e-05,-1.14438e-05,1.04638e-05,3.00464e-06,0
-2.45014e-05,2.50805e-05,-6.16926e-06,4.25386e-05,5.91365e-05,-1.56354e-05,3.98317e-06,3.33776e-06,0
-3.30945e-06,3.01126e-05,-1.877e-06,9.70116e-05,2.94793e-05,-1.61258e-05,1.82551e-07,1.88774e-06,0
