ch1,ch2,ch3,ch4,ch5,ch6,ch7,ch8,class
-2.796e-05,1.70413e-05,-1.53108e-06,-3.4699e-05,1.30224e-05,-7.67213e-06,1.8509e-05,-6.01042e-06,0
-2.79085e-05,1.57427e-05,-1.92168e-06,-3.66241e-05,8.83939e-06,-8.02872e-06,1.73499e-05,-8.18803e-06,0
-2.6808e-05,1.45021e-05,-4.7275e-06,-2.97594e-05,6.46525e-06,-8.3263e-06,1.6921e-05,-8.76858e-06,0
-2.5275e-05,1.50128e-05,-7.18956e-06,-1.58999e-05,6.42838e-06,-8.48705e-06,1.69983e-05,-6.8174e-06,0
-2.44989e-05,1.59139e-05,-7.06162e-06,-4.64908e-06,7.24471e-06,-7.52078e-06,1.58383e-05,-5.59121e-06,0
-2.50154e-05,1.50649e-05,-5.36672e-06,-2.32411e-06,6.86888e-06,-6.2076e-06,1.31561e-05,-6.46678e-06,0
-2.56035e-05,1.32021e-05,-3.43734e-06,-5.197e-06,6.44079e-06,-6.3619e-06,9.61989e-06,-7.2074e-06,0
-2.76536e-05,1.18825e-05,-2.87566e-06,-8.98469e-06,7.17502e-06,-6.96035e-06,7.40952e-06,-6.54189e-06,0
-3.14946e-05,1.19408e-05,-3.76272e-06,-1.0226e-05,7.25483e-06,-6.9596e-06,6.57891e-06,-4.66888e-06,0
-3.28713e-05,1.11441e-05,-5.45721e-06,-9.7026e-06,6.42591e-06,-9.00388e-06,5.23978e-06,-3.93782e-06,0
-3.16021e-05,9.81981e-06,-7.3724e-06,-7.81063e-06,3.92679e-06,-1.11809e-05,5.09151e-06,-4.73221e-06,0
-3.05408e-05,6.83759e-06,-8.75429e-06,-5.36666e-06,2.46103e-06,-1.15098e-05,6.43732e-06,-5.93395e-06,0
-3.0463e-05,2.57868e-06,-8.87327e-06,-6.59259e-06,3.88321e-06,-1.15076e-05,7.66255e-06,-5.84317e-06,0
-3.13495e-05,9.92782e-07,-8.05311e-06,-1.30382e-05,5.69238e-06,-1.15788e-05,7.46186e-06,-4.01338e-06,0
-3.16492e-05,2.3822e-06,-7.15457e-06,-1.68837e-05,6.786e-06,-1.17129e-05,7.16869e-06,-3.83308e-06,0
-3.2595e-05,5.32e-06,-7.36976e-06,-1.20015e-05,7.60612e-06,-1.12311e-05,7.35197e-06,-4.5445e-06,0
-3.3588e-05,6.236e-06,-7.5658e-06,-3.49196e-06,8.68397e-06,-1.13742e-05,6.72654e-06,-3.59877e-06,0
-3.28242e-05,4.85906e-06,-6.49882e-06,4.97131e-06,9.4581e-06,-1.03793e-05,5.83827e-06,-1.40029e-06,0
-3.17428e-05,4.60379e-06,-5.1937e-06,1.35979e-05,1.10123e-05,-8.68433e-06,5.54397e-06,-4.28984e-07,0
-3.15931e-05,6.27289e-06,-5.31869e-06,2.46643e-05,1.1609e-05,-8.71455e-06,6.14274e-06,-1.85654e-07,0
-3.19866e-05,8.11745e-06,-5.96074e-06,3.52896e-05,1.05307e-05,-1.03393e-05,6.4589e-06,5.06406e-07,0
-3.22961e-05,9.27702e-06,-6.08504e-06,3.61619e-05,9.6683e-06,-1.22994e-05,5.09869e-06,1.86794e-06,0
-3.34679e-05,9.82953e-06,-6.65836e-06,2.36478e-05,9.75304e-06,-1.29137e-05,3.10567e-06,2.8267e-06,0
-3.55518e-05,9.13972e-06,-7.48364e-06,5.35567e-06,9.27284e-06,-1.25407e-05,5.08534e-07,2.20694e-06,0
-3.75706e-05,8.47274e-06,-7.41975e-06,-9.16259e-06,7.69719e-06,-1.18052e-05,-4.3094e-06,1.8501e-06,0
-3.74729e-05,1.04016e-05,-6.00701e-06,-1.86825e-05,7.74081e-06,-1.20658e-05,-1.16381e-05,3.15029e-06,0
-3.5596e-05,1.30815e-05,-5.2238e-06,-2.55015e-05,1.00158e-05,-1.30333e-05,-1.72773e-05,5.49078e-06,0
-3.44954e-05,1.2583e-05,-5.53857e-06,-2.99764e-05,1.25058e-05,-1.27494e-05,-1.70945e-05,6.475e-06,0
-3.50894e-05,9.62822e-06,-7.03608e-06,-3.06875e-05,1.38169e-05,-1.10887e-05,-1.1843e-05,5.11139e-06,0
-3.58615e-05,6.32531e-06,-8.64484e-06,-2.68508e-05,1.45152e-05,-9.38163e-06,-4.51285e-06,3.38763e-06,0
-3.51667e-05,3.42534e-06,-9.62023e-06,-2.06613e-05,1.38669e-05,-7.7994e-06,3.09917e-06,2.60908e-06,0
-3.32218e-05,1.19389e-06,-1.04464e-05,-1.35976e-05,1.18372e-05,-5.96482e-06,1.20801e-05,2.3455e-06,0
-3.28944e-05,-5.13407e-07,-1.01522e-05,-6.22943e-06,1.11671e-05,-5.21068e-06,2.09773e-05,3.05122e-06,0
-3.26127e-05,-2.28435e-06,-9.11299e-06,-2.25433e-07,1.27944e-05,-5.64407e-06,2.68087e-05,4.19346e-06,0
-3.22181e-05,-3.52457e-06,-1.05248e-05,4.61152e-06,1.4402e-05,-5.62082e-06,3.06442e-05,5.86312e-06,0
-3.25356e-05,-3.92307e-06,-1.28e-05,5.51349e-06,1.6469e-05,-5.34271e-06,3.36176e-05,6.85066e-06,0
-3.12734e-05,-3.07859e-06,-1.25737e-05,8.98829e-07,1.87379e-05,-5.7777e-06,3.46682e-05,7.12521e-06,0
-3.01176e-05,-2.23112e-06,-1.07542e-05,-5.61274e-06,1.98829e-05,-5.79655e-06,3.32857e-05,7.75672e-06,0
-2.9235e-05,-3.05467e-06,-8.08665e-06,-1.1526e-05,1.87994e-05,-5.65201e-06,3.07628e-05,6.98671e-06,0
-2.89979e-05,-3.40799e-06,-7.79425e-06,-1.64179e-05,1.72387e-05,-5.63983e-06,2.84637e-05,5.28028e-06,0
-2.92862e-05,-1.31396e-06,-1.12848e-05,-1.9282e-05,1.62294e-05,-4.00129e-06,2.60561e-05,5.36808e-06,0
-2.9367e-05,2.59556e-06,-1.4869e-05,-1.60417e-05,1.43534e-05,-1.12961e-06,2.44731e-05,6.5082e-06,0
-2.88049e-05,4.96248e-06,-1.72441e-05,-6.01225e-06,1.33568e-05,5.72175e-07,2.28206e-05,8.41607e-06,0
-2.78518e-05,6.38633e-06,-1.81077e-05,1.06052e-06,1.31853e-05,-1.92803e-07,2.11749e-05,1.05275e-05,0
-2.78021e-05,8.45766e-06,-1.63498e-05,-4.55155e-07,1.36795e-05,-1.39719e-06,1.99781e-05,1.05936e-05,0
-2.77859e-05,1.22093e-05,-1.3695e-05,-4.40112e-06,1.54376e-05,-1.57906e-06,1.81957e-05,1.0341e-05,0
-2.68409e-05,1.53315e-05,-1.09688e-05,-8.13857e-06,1.71545e-05,-1.97775e-06,1.69106e-05,1.00129e-05,0
-2.55918e-05,1.59961e-05,-6.33175e-06,-1.23027e-05,1.81388e-05,-3.28901e-06,1.60321e-05,8.86905e-06,0
-2.54822e-05,1.63908e-05,5.32279e-07,-1.5553e-05,1.88941e-05,-5.0718e-06,1.45184e-05,8.0334e-06,0
-2.69342e-05,1.74855e-05,8.66997e-06,-1.49171e-05,1.80083e-05,-6.78725e-06,1.32185e-05,8.08156e-06,0
-2.8932e-05,1.91387e-05,2.1127e-05,-8.9135e-06,1.4201e-05,-7.68417e-06,1.30279e-05,7.92194e-06,0
-3.05142e-05,2.112e-05,4.04962e-05,-1.56374e-07,9.99811e-06,-7.18955e-06,1.27872e-05,7.55537e-06,0
-3.14501e-05,2.43417e-05,6.19162e-05,7.21589e-06,8.44488e-06,-6.55033e-06,1.26685e-05,6.51549e-06,0
-3.18841e-05,2.70655e-05,7.57091e-05,1.17811e-05,9.13745e-06,-6.74545e-06,1.2695e-05,4.92939e-06,0
-3.24088e-05,2.93977e-05,7.2093e-05,1.48036e-05,1.06153e-05,-7.35029e-06,1.05992e-05,3.86676e-06,0
-3.2713e-05,3.28858e-05,4.80849e-05,1.62194e-05,1.30042e-05,-7.44192e-06,7.36445e-06,3.52448e-06,0
-3.23946e-05,3.66913e-05,9.43283e-06,1.12917e-05,1.73114e-05,-6.5984e-06,8.07205e-06,3.75004e-06,0
-3.13229e-05,3.76041e-05,-3.35331e-05,3.06024e-07,2.01643e-05,-5.63375e-06,1.2281e-05,4.00138e-06,0
-2.98281e-05,3.47701e-05,-6.99309e-05,-1.02763e-06,1.93105e-05,-5.52422e-06,1.3638e-05,4.39362e-06,0
-2.96725e-05,3.09829e-05,-9.12413e-05,1.18669e-05,1.76822e-05,-6.16935e-06,1.18502e-05,5.99064e-06,0
-3.0633e-05,3.01987e-05,-9.46842e-05,2.80661e-05,1.66843e-05,-6.24625e-06,1.15126e-05,7.7259e-06,0
-3.10574e-05,3.24423e-05,-8.17143e-05,4.25103e-05,1.58783e-05,-6.72614e-06,1.35558e-05,5.94591e-06,0
-3.10481e-05,3.38819e-05,-6.27963e-05,4.97321e-05,1.53034e-05,-6.87629e-06,1.46218e-05,4.15576e-06,0
-3.05489e-05,3.35069e-05,-5.01216e-05,4.71148e-05,1.32427e-05,-5.45225e-06,1.32654e-05,5.03583e-06,0
-3.09031e-05,3.16487e-05,-4.21864e-05,3.92349e-05,1.06846e-05,-3.65369e-06,1.23097e-05,5.509e-06,0
-3.10298e-05,2.92072e-05,-3.40495e-05,3.18796e-05,1.12298e-05,-3.03948e-06,1.07471e-05,5.64179e-06,0
-2.97655e-05,2.72957e-05,-2.35758e-05,2.50564e-05,1.39262e-05,-4.86293e-06,7.30498e-06,5.73516e-06,0
-2.86109e-05,2.48762e-05,-1.45695e-05,1.53507e-05,1.6406e-05,-6.61433e-06,5.27681e-06,5.79043e-06,0
-2.81094e-05,2.22618e-05,-8.24427e-06,5.8399e-06,1.67568e-05,-6.35506e-06,6.93202e-06,6.10751e-06,0
-2.90509e-05,1.98109e-05,-3.42071e-06,-3.5075e-06,1.54285e-05,-5.41087e-06,9.33126e-06,6.20796e-06,0
-2.94434e-05,1.82604e-05,-8.04152e-07,-1.45115e-05,1.27161e-05,-5.49958e-06,1.21794e-05,5.30047e-06,0
-2.98091e-05,1.72257e-05,-6.51502e-07,-2.44061e-05,1.08187e-05,-6.48847e-06,1.52638e-05,3.26499e-06,0
-3.03877e-05,1.59701e-05,-1.80946e-06,-2.96387e-05,1.06288e-05,-8.61991e-06,1.61664e-05,1.52196e-06,0
-3.05453e-05,1.53562e-05,-3.28438e-06,-3.27647e-05,1.06791e-05,-1.18401e-05,1.58291e-05,5.29472e-07,0
-2.92041e-05,1.50396e-05,-4.79872e-06,-3.65882e-05,1.08087e-05,-1.44054e-05,1.56438e-05,9.92119e-08,0
-2.7002e-05,1.51696e-05,-3.79459e-06,-3.86128e-05,1.04141e-05,-1.43945e-05,1.50884e-05,2.65182e-07,0
-2.66489e-05,1.44423e-05,-1.65392e-06,-3.78471e-05,9.5406e-06,-1.27435e-05,1.32159e-05,1.01573e-06,0
-2.7388e-05,1.38171e-05,-1.33745e-06,-3.55367e-05,7.49664e-06,-1.18407e-05,1.20943e-05,1.82672e-06,0
-2.76006e-05,1.47929e-05,-3.70499e-06,-3.28133e-05,6.7557e-06,-1.2331e-05,1.20794e-05,2.42424e-06,0
-2.69894e-05,1.74214e-05,-5.91918e-06,-2.61352e-05,9.24921e-06,-1.37822e-05,1.17245e-05,3.07076e-06,0
-2.63868e-05,1.98976e-05,-6.04044e-06,-1.21684e-05,1.14406e-05,-1.46666e-05,1.05154e-05,2.71683e-06,0
-2.54478e-05,2.02625e-05,-4.07027e-06,8.86532e-06,1.02356e-05,-1.35935e-05,9.36676e-06,-5.71215e-08,0
-2.48539e-05,1.95737e-05,-2.82412e-06,3.38192e-05,9.64342e-06,-1.05404e-05,9.24672e-06,-4.08309e-06,0
-2.56904e-05,1.92351e-05,-2.73222e-06,5.40087e-05,1.20343e-05,-6.914e-06,9.83337e-06,-6.56165e-06,0
-2.66182e-05,1.86943e-05,-2.66977e-06,5.93403e-05,1.40442e-05,-4.27061e-06,9.3217e-06,-7.26587e-06,0
-2.73186e-05,1.85735e-05,-1.84601e-06,4.84771e-05,1.33922e-05,-3.99366e-06,8.15958e-06,-7.70739e-06,0
-2.80914e-05,1.85722e-05,-1.22005e-06,2.9247e-05,1.22612e-05,-5.79823e-06,6.32387e-06,-8.13714e-06,0
-2.71003e-05,1.70353e-05,-1.29344e-06,1.14148e-05,1.28419e-05,-8.61592e-06,2.69095e-06,-7.40137e-06,0
-2.70858e-05,1.45385e-05,-2.60265e-07,-3.34252e-06,1.54513e-05,-9.67152e-06,-3.41385e-06,-6.52377e-06,0
-2.82096e-05,1.28588e-05,-9.23992e-08,-1.53105e-05,1.68672e-05,-8.5621e-06,-6.93865e-06,-6.95625e-06,0
-2.94508e-05,1.24795e-05,-1.24054e-06,-1.86358e-05,1.6527e-05,-8.17269e-06,-4.46119e-06,-7.48834e-06,0
-2.9344e-05,1.27599e-05,-3.20898e-06,-1.47915e-05,1.63594e-05,-1.04636e-05,4.10947e-07,-7.20235e-06,0
-2.86249e-05,1.41671e-05,-5.58803e-06,-1.2053e-05,1.59554e-05,-1.34055e-05,5.69674e-06,-4.889e-06,0
-2.88182e-05,1.55969e-05,-7.67908e-06,-1.26904e-05,1.71406e-05,-1.44097e-05,1.04179e-05,-2.55354e-06,0
-2.88194e-05,1.57696e-05,-1.0208e-05,-1.32759e-05,1.84164e-05,-1.37821e-05,1.64475e-05,-2.64372e-06,0
-2.87347e-05,1.596e-05,-1.34399e-05,-1.18958e-05,1.96855e-05,-1.26341e-05,2.29662e-05,-3.48448e-06,0
-2.82458e-05,1.77124e-05,-1.59297e-05,-9.53742e-06,2.01441e-05,-1.20733e-05,2.84177e-05,-3.32466e-06,0
-2.86397e-05,1.85008e-05,-1.69227e-05,-9.05883e-06,1.97001e-05,-1.16021e-05,3.16735e-05,-1.22583e-06,0
-2.86495e-05,1.76395e-05,-1.5548e-05,-1.19651e-05,1.80455e-05,-1.17841e-05,3.17806e-05,6.51636e-07,0
-2.93028e-05,1.80243e-05,-1.22761e-05,-1.66662e-05,1.74267e-05,-1.19099e-05,3.03774e-05,2.13418e-06,0
-2.97981e-05,1.94347e-05,-9.01151e-06,-2.24378e-05,1.80544e-05,-1.14595e-05,2.89481e-05,3.98664e-06,0
-2.98457e-05,1.99676e-05,-7.41661e-06,-2.92888e-05,1.9461e-05,-9.64449e-06,2.79665e-05,4.2702e-06,0
-3.0974e-05,1.99771e-05,-7.67925e-06,-3.5666e-05,2.22101e-05,-6.79105e-06,2.7392e-05,2.77808e-06,0
-3.31738e-05,1.89412e-05,-8.66452e-06,-3.94008e-05,2.35101e-05,-4.66867e-06,2.51529e-05,6.55322e-08,0
-3.48356e-05,1.56658e-05,-8.95039e-06,-3.92492e-05,2.24301e-05,-3.96119e-06,2.10515e-05,-3.54752e-06,0
-3.4518e-05,1.22153e-05,-7.97945e-06,-3.55183e-05,2.05255e-05,-4.54741e-06,1.71281e-05,-6.13567e-06,0
-3.29947e-05,1.11941e-05,-6.75968e-06,-2.90362e-05,1.93344e-05,-5.88914e-06,1.40186e-05,-6.06239e-06,0
-3.20459e-05,1.10061e-05,-6.08828e-06,-2.32097e-05,1.6194e-05,-7.53598e-06,1.18608e-05,-4.49891e-06,0
-3.26915e-05,9.71148e-06,-5.57484e-06,-2.17081e-05,1.18522e-05,-7.44112e-06,9.29895e-06,-3.76339e-06,0
-3.32028e-05,7.83912e-06,-4.82242e-06,-2.24472e-05,8.61406e-06,-5.49291e-06,6.1347e-06,-5.30908e-06,0
-3.26727e-05,5.59103e-06,-4.45932e-06,-2.27443e-05,7.67544e-06,-4.23485e-06,4.52991e-06,-6.83026e-06,0
-3.23855e-05,2.62047e-06,-4.89028e-06,-2.20229e-05,7.02953e-06,-4.74306e-06,4.41413e-06,-6.37229e-06,0
-3.30933e-05,1.28055e-06,-5.70149e-06,-2.16612e-05,6.57811e-06,-6.41916e-06,3.53594e-06,-3.62042e-06,0
-3.35011e-05,1.01241e-06,-6.13676e-06,-2.17395e-05,6.59578e-06,-7.84768e-06,2.26646e-06,-2.15089e-07,0
-3.34746e-05,-2.11723e-06,-5.6735e-06,-1.89148e-05,7.54316e-06,-7.33038e-06,1.96269e-06,1.81173e-06,0
-3.38931e-05,-6.67549e-06,-4.74882e-06,-1.35824e-05,1.10135e-05,-6.9862e-06,2.73985e-06,2.99326e-06,0
-3.42137e-05,-9.48816e-06,-4.92115e-06,-9.7698e-06,1.33466e-05,-8.15614e-06,3.73372e-06,1.86485e-06,0
-3.42212e-05,-1.03173e-05,-6.12883e-06,-5.71862e-06,1.21315e-05,-8.65671e-06,4.0532e-06,7.71634e-07,0
-3.47686e-05,-1.09365e-05,-6.60072e-06,1.50391e-06,1.08557e-05,-6.2894e-06,4.84683e-06,1.18534e-06,0
-3.33035e-05,-8.53928e-06,-5.08973e-06,7.85477e-06,1.14429e-05,-3.4007e-06,7.80349e-06,2.06314e-06,0
-3.14409e-05,-3.89866e-06,-4.37646e-06,1.00247e-05,1.36427e-05,-3.03099e-06,1.01822e-05,3.57316e-06,0
-3.11617e-05,-1.91524e-06,-6.7817e-06,5.696e-06,1.37204e-05,-3.78321e-06,1.11906e-05,4.38352e-06,0
-3.18285e-05,-2.93657e-06,-8.64906e-06,-1.19067e-06,1.21845e-05,-4.95569e-06,1.26853e-05,5.77497e-06,0
-3.21047e-05,-3.86933e-06,-7.97341e-06,-5.95387e-06,1.22812e-05,-6.09732e-06,1.42556e-05,7.69014e-06,0
-3.17216e-05,-3.72382e-06,-5.9867e-06,-7.8357e-06,1.21212e-05,-6.27251e-06,1.58138e-05,9.06899e-06,0
-3.23864e-05,-2.50923e-06,-4.1123e-06,-7.99969e-06,1.07082e-05,-6.46901e-06,1.68088e-05,9.31086e-06,0
-3.29574e-05,-1.41298e-07,-3.86425e-06,-9.49133e-06,9.43625e-06,-7.29766e-06,1.63947e-05,9.46496e-06,0
-3.16467e-05,2.05467e-06,-4.80293e-06,-1.34704e-05,8.5199e-06,-9.70863e-06,1.56672e-05,8.9211e-06,0
-2.86521e-05,3.29298e-06,-6.24573e-06,-1.87014e-05,7.29505e-06,-1.37663e-05,1.62841e-05,6.94531e-06,0
-2.72695e-05,2.7327e-06,-7.66306e-06,-2.20562e-05,8.14873e-06,-1.60918e-05,1.74614e-05,6.08322e-06,0
-2.82657e-05,8.79465e-07,-8.06992e-06,-2.22875e-05,1.06615e-05,-1.49114e-05,1.87591e-05,6.48267e-06,0
-3.02254e-05,-1.12371e-06,-7.71421e-06,-1.77566e-05,1.31289e-05,-1.2652e-05,2.01682e-05,5.26526e-06,0
-3.18474e-05,-1.12297e-06,-8.18305e-06,-7.83732e-06,1.4148e-05,-1.24734e-05,2.12522e-05,1.60696e-06,0
-3.30888e-05,-5.0944e-07,-9.49794e-06,5.5985e-06,1.43923e-05,-1.4196e-05,2.11002e-05,-1.14039e-06,0
-3.32744e-05,-1.53155e-06,-1.07148e-05,1.65845e-05,1.49067e-05,-1.57215e-05,2.04167e-05,-2.26763e-06,0
-3.24038e-05,-3.11699e-06,-1.0713e-05,2.02951e-05,1.51557e-05,-1.53993e-05,2.07036e-05,-3.79068e-06,0
-3.10165e-05,-3.00865e-06,-8.60766e-06,1.75072e-05,1.41424e-05,-1.37123e-05,2.10753e-05,-5.46816e-06,0
-3.01881e-05,-1.84087e-06,-5.42669e-06,1.28703e-05,1.24002e-05,-1.27924e-05,2.05851e-05,-5.39587e-06,0
-3.08139e-05,-1.1234e-06,-2.43615e-06,1.15231e-05,1.05043e-05,-1.40654e-05,1.89307e-05,-4.05013e-06,0
-3.01081e-05,-5.76231e-07,-2.48566e-06,1.25142e-05,1.11115e-05,-1.63665e-05,1.72386e-05,-2.06653e-06,0
-2.83518e-05,9.50407e-07,-6.07074e-06,8.27219e-06,1.40247e-05,-1.77457e-05,1.72487e-05,-3.88391e-07,0
-2.89639e-05,3.29184e-06,-1.01977e-05,-5.36996e-06,1.47561e-05,-1.76834e-05,1.83645e-05,1.53366e-07,0
-2.95401e-05,4.25554e-06,-1.21088e-05,-2.59421e-05,1.32572e-05,-1.6754e-05,1.89528e-05,1.95742e-06,0
-2.91084e-05,3.62809e-06,-1.27268e-05,-3.79285e-05,1.25566e-05,-1.67729e-05,1.76632e-05,4.63628e-06,0
-3.04264e-05,2.95419e-06,-1.39346e-05,-4.00776e-05,1.23858e-05,-1.80925e-05,1.48986e-05,6.10685e-06,0
-3.13276e-05,3.06999e-06,-1.45149e-05,-4.82116e-05,1.14372e-05,-1.92168e-05,1.29321e-05,6.11526e-06,0
-3.043e-05,3.59116e-06,-1.33335e-05,-5.77203e-05,1.19051e-05,-1.8492e-05,1.20513e-05,5.16317e-06,0
-3.00456e-05,5.37745e-06,-1.13442e-05,-4.85677e-05,1.43842e-05,-1.55346e-05,1.14598e-05,4.04333e-06,0
-3.14813e-05,7.04848e-06,-1.24859e-05,-1.36432e-05,1.62918e-05,-1.27588e-05,1.04557e-05,2.75835e-06,0
-3.21228e-05,7.54853e-06,-1.57625e-05,2.48642e-05,1.43544e-05,-1.21425e-05,1.00169e-05,2.12752e-06,0
-3.1428e-05,9.61264e-06,-1.73878e-05,4.69709e-05,1.21494e-05,-1.35631e-05,1.07892e-05,1.80586e-06,0
-3.06834e-05,1.1555e-05,-1.6893e-05,5.33423e-05,1.34749e-05,-1.4758e-05,1.23603e-05,2.04703e-06,0
-3.02699e-05,1.21452e-05,-1.51109e-05,5.31169e-05,1.53201e-05,-1.5187e-05,1.29761e-05,2.0215e-06,0
-2.98256e-05,1.29352e-05,-1.25492e-05,4.97952e-05,1.62745e-05,-1.45629e-05,1.15532e-05,1.65403e-06,0
-2.88919e-05,1.46398e-05,-9.96517e-06,4.27571e-05,1.73873e-05,-1.31916e-05,1.02937e-05,9.34624e-07,0
-2.8671e-05,1.59696e-05,-7.50437e-06,3.06911e-05,1.79272e-05,-1.29093e-05,9.60221e-06,-1.14324e-06,0
-2.99329e-05,1.61856e-05,-4.11203e-06,1.83922e-05,1.63006e-05,-1.3809e-05,9.51501e-06,-3.04334e-06,0
-3.17164e-05,1.78371e-05,-1.61316e-06,1.35553e-05,1.39938e-05,-1.50765e-05,1.09652e-05,-3.33401e-06,0
-3.19427e-05,2.07345e-05,-1.14862e-06,1.72508e-05,1.38328e-05,-1.5798e-05,1.36154e-05,-2.384e-06,0
-3.08201e-05,2.23317e-05,-1.40291e-06,2.32636e-05,1.55534e-05,-1.63792e-05,1.52842e-05,-1.29759e-06,0
-2.9867e-05,2.1462e-05,-8.39476e-07,2.04099e-05,1.57292e-05,-1.67808e-05,1.52354e-05,-2.60572e-07,0
-2.91759e-05,2.07331e-05,-1.48553e-07,7.70455e-06,1.27198e-05,-1.73347e-05,1.41643e-05,5.42648e-07,0
-2.85246e-05,2.13723e-05,-1.01373e-06,-1.56499e-06,9.66662e-06,-1.74821e-05,1.22267e-05,1.4716e-06,0
-2.89891e-05,2.33689e-05,-2.46542e-06,-1.17454e-06,7.29984e-06,-1.65331e-05,1.0365e-05,9.35477e-07,0
-2.99905e-05,2.6226e-05,-3.02861e-06,-6.38054e-07,4.86458e-06,-1.40079e-05,1.05896e-05,-1.85318e-06,0
-2.99472e-05,2.84257e-05,-2.52268e-06,-3.94811e-06,5.33598e-06,-1.07204e-05,1.32752e-05,-4.1229e-06,0
-2.88285e-05,2.806e-05,-1.58184e-06,-1.03778e-05,8.4273e-06,-7.60903e-06,1.54389e-05,-3.6712e-06,0
-2.72165e-05,2.6993e-05,-1.75702e-06,-1.80872e-05,9.64574e-06,-5.21051e-06,1.35247e-05,-2.50674e-06,0
-2.71667e-05,2.60072e-05,-1.92375e-06,-2.39785e-05,8.16723e-06,-5.34044e-06,1.00676e-05,-8.93619e-07,0
-2.84683e-05,2.17341e-05,-1.7801e-06,-2.42258e-05,5.75425e-06,-6.9273e-06,1.01766e-05,3.33342e-07,0
-2.87235e-05,1.79092e-05,-2.29703e-06,-1.65417e-05,5.09842e-06,-7.01936e-06,1.17775e-05,-8.50789e-07,0
-2.94348e-05,1.67651e-05,-4.2703e-06,-7.02208e-06,5.30159e-06,-5.38434e-06,1.09624e-05,-2.89332e-06,0
-3.1073e-05,1.58418e-05,-7.34971e-06,-6.03898e-06,5.85329e-06,-4.89127e-06,9.87721e-06,-3.52963e-06,0
-3.25036e-05,1.49531e-05,-9.62375e-06,-1.15767e-05,5.22023e-06,-5.72963e-06,9.29363e-06,-3.24569e-06,0
-3.26611e-05,1.30751e-05,-1.12764e-05,-1.42623e-05,1.55914e-06,-6.9872e-06,7.17287e-06,-2.97515e-06,0
-3.05744e-05,9.29244e-06,-1.25433e-05,-1.25309e-05,-2.38043e-06,-8.54468e-06,6.6762e-06,-2.81259e-06,0
-2.83872e-05,6.50159e-06,-1.44097e-05,-6.37499e-06,-4.68884e-06,-8.18302e-06,7.99215e-06,-3.80088e-06,0
-2.84256e-05,7.61859e-06,-1.58306e-05,2.40118e-06,-4.09439e-06,-7.2595e-06,8.96547e-06,-4.32937e-06,0
-2.98618e-05,1.02187e-05,-1.68395e-05,7.84842e-06,-2.42381e-06,-7.81192e-06,9.52861e-06,-3.23291e-06,0
-3.04464e-05,1.13992e-05,-1.78403e-05,7.07543e-06,2.63815e-08,-9.52919e-06,1.05041e-05,-1.11434e-06,0
-3.06453e-05,1.29949e-05,-1.92585e-05,-3.97396e-07,1.51621e-06,-1.17544e-05,1.22651e-05,1.99112e-06,0
-3.08629e-05,1.42792e-05,-2.13351e-05,-1.10621e-05,3.19352e-06,-1.32174e-05,1.35481e-05,4.94304e-06,0
-3.10513e-05,1.35474e-05,-2.33086e-05,-1.92223e-05,7.44807e-06,-1.27595e-05,1.40905e-05,5.69704e-06,0
-3.06634e-05,1.32779e-05,-2.39865e-05,-2.40069e-05,1.42249e-05,-1.11309e-05,1.45092e-05,4.87109e-06,0
-3.03637e-05,1.54121e-05,-2.17925e-05,-2.71605e-05,2.20131e-05,-1.03676e-05,1.53064e-05,4.87699e-06,0
-3.14014e-05,1.75042e-05,-1.8144e-05,-2.88129e-05,2.73014e-05,-1.04486e-05,1.62938e-05,5.96634e-06,0
-3.23062e-05,1.66562e-05,-1.42664e-05,-2.68344e-05,2.93752e-05,-1.11918e-05,1.67436e-05,7.13147e-06,0
-3.12065e-05,1.45948e-05,-1.02932e-05,-1.96418e-05,2.9368e-05,-1.18729e-05,1.54444e-05,7.3263e-06,0
-2.89717e-05,1.51238e-05,-6.11641e-06,-8.18835e-06,3.00296e-05,-1.1913e-05,1.32446e-05,5.38834e-06,0
-2.83752e-05,1.92862e-05,-1.75166e-06,2.39048e-06,3.16753e-05,-1.1629e-05,1.09665e-05,3.54014e-06,0
-2.92536e-05,2.38675e-05,2.53408e-06,8.21712e-06,3.08016e-05,-1.11237e-05,9.4651e-06,4.73898e-06,0
-3.00925e-05,2.72203e-05,4.50545e-06,1.03337e-05,2.63935e-05,-1.02791e-05,9.88513e-06,7.41203e-06,0
-3.15733e-05,2.85969e-05,2.68413e-06,1.13145e-05,2.24154e-05,-1.00769e-05,9.76947e-06,7.63919e-06,0
-3.42947e-05,2.91987e-05,-8.85021e-07,1.27093e-05,1.87755e-05,-1.04057e-05,7.63403e-06,4.79262e-06,0
-3.59311e-05,2.9842e-05,-2.81606e-06,1.64096e-05,1.63894e-05,-1.06217e-05,6.28369e-06,7.72673e-07,0
-3.44282e-05,2.79777e-05,-2.88221e-06,1.97722e-05,1.69405e-05,-1.14321e-05,6.74929e-06,-1.50229e-06,0
-3.14644e-05,2.47262e-05,-2.42213e-06,2.76479e-05,1.9176e-05,-1.12896e-05,7.94217e-06,5.30394e-07,0
-3.03632e-05,2.02168e-05,-2.42168e-06,3.66429e-05,1.98422e-05,-9.99169e-06,8.8106e-06,2.96911e-06,0
-3.05517e-05,1.7396e-05,-2.96894e-06,3.19962e-05,1.74443e-05,-8.85574e-06,8.67805e-06,2.61548e-06,0
-2.96841e-05,1.6027e-05,-3.14831e-06,1.55486e-05,1.44451e-05,-8.06411e-06,8.00811e-06,1.49851e-06,0
-2.90205e-05,1.48274e-05,-3.31956e-06,-4.20909e-06,1.18199e-05,-7.63109e-06,7.86251e-06,-7.94287e-07,0
-2.95441e-05,1.60972e-05,-3.25164e-06,-1.84705e-05,1.07062e-05,-5.6263e-06,7.35702e-06,-2.36699e-06,0
-2.99348e-05,1.80584e-05,-3.38198e-06,-2.81244e-05,1.09104e-05,-3.96497e-06,7.06025e-06,-1.1763e-06,0
-2.98545e-05,2.01462e-05,-3.36296e-06,-3.70154e-05,1.18106e-05,-3.63768e-06,7.71206e-06,1.21094e-06,0
-2.84321e-05,2.14948e-05,-2.56002e-06,-4.62871e-05,1.24994e-05,-3.85584e-06,8.53336e-06,3.04694e-06,0
-2.65258e-05,2.26869e-05,-2.6271e-06,-6.23599e-05,1.0468e-05,-5.09716e-06,1.01457e-05,3.24062e-06,0
-2.57728e-05,2.24654e-05,-3.31995e-06,-8.31919e-05,6.45249e-06,-5.78194e-06,1.16077e-05,2.41093e-06,0
-2.64768e-05,2.06638e-05,-3.18168e-06,-9.54941e-05,3.14578e-06,-5.40514e-06,1.10618e-05,1.01135e-06,0
-2.87592e-05,1.74829e-05,-3.16375e-06,-9.406e-05,4.3582e-07,-4.46007e-06,7.33624e-06,1.07885e-06,0
-3.071e-05,1.39811e-05,-4.58218e-06,-8.19105e-05,-1.13058e-06,-5.11393e-06,2.29195e-06,3.2422e-06,0
-3.0837e-05,1.21165e-05,-7.39868e-06,-6.21052e-05,-1.02452e-07,-7.35139e-06,-1.64824e-06,5.33425e-06,0
-3.02885e-05,1.18829e-05,-1.05963e-05,-4.27798e-05,3.1708e-06,-9.14284e-06,-2.22421e-06,5.98926e-06,0
-3.064e-05,1.28402e-05,-1.21404e-05,-3.02773e-05,7.07442e-06,-9.70116e-06,1.08386e-06,5.04262e-06,0
-3.08402e-05,1.38158e-05,-1.05594e-05,-2.49902e-05,1.09818e-05,-8.89647e-06,7.14204e-06,4.30221e-06,0
-2.97284e-05,1.30759e-05,-7.46818e-06,-2.99619e-05,1.34134e-05,-7.16865e-06,1.386e-05,4.41828e-06,0
-2.86927e-05,1.00555e-05,-4.77832e-06,-4.83504e-05,1.30749e-05,-5.6974e-06,1.94601e-05,3.83273e-06,0
-2.90337e-05,8.55779e-06,-3.55923e-06,-6.60945e-05,1.22863e-05,-4.79629e-06,2.3309e-05,2.31264e-06,0
-2.91592e-05,9.63328e-06,-4.33474e-06,-6.13555e-05,1.33049e-05,-4.38397e-06,2.43884e-05,1.09324e-06,0
-2.8132e-05,1.12347e-05,-5.37294e-06,-3.00253e-05,1.5904e-05,-4.27362e-06,2.29911e-05,1.26347e-06,0
-2.78426e-05,1.31298e-05,-4.84166e-06,1.20822e-05,1.87209e-05,-3.89223e-06,2.09341e-05,2.18838e-06,0
-2.84981e-05,1.56618e-05,-3.37101e-06,4.69999e-05,1.88492e-05,-3.54515e-06,2.06773e-05,2.91445e-06,0
-2.97101e-05,1.75156e-05,-1.24906e-06,6.89973e-05,1.5744e-05,-3.85598e-06,2.18886e-05,3.6943e-06,0
-3.0753e-05,1.88987e-05,2.28166e-07,8.12187e-05,1.43038e-05,-4.46328e-06,2.25182e-05,3.39833e-06,0
-2.94629e-05,1.76618e-05,3.98474e-07,8.1408e-05,1.78179e-05,-5.40417e-06,2.23329e-05,-2.56721e-07,0
-2.87311e-05,1.38255e-05,5.81153e-07,6.53844e-05,2.06937e-05,-6.83482e-06,2.2054e-05,-3.94132e-06,0
-2.98811e-05,1.09313e-05,-3.09911e-07,4.19523e-05,2.00275e-05,-7.54436e-06,2.16946e-05,-4.28173e-06,0
-3.08197e-05,1.08426e-05,-2.05138e-06,2.33134e-05,1.85142e-05,-6.06958e-06,2.04278e-05,-2.668e-06,0
-3.20595e-05,1.38936e-05,-4.06026e-06,1.62081e-05,1.57665e-05,-5.09866e-06,1.83989e-05,-3.57172e-08,0
-3.21343e-05,1.89944e-05,-6.07274e-06,2.03313e-05,1.26436e-05,-6.56001e-06,1.64502e-05,2.27231e-06,0
-3.16835e-05,2.29528e-05,-6.92749e-06,2.77502e-05,1.07476e-05,-1.01902e-05,1.44724e-05,2.06932e-06,0
-3.09794e-05,2.4145e-05,-6.41409e-06,2.98302e-05,1.09449e-05,-1.46603e-05,1.38961e-05,-2.58903e-07,0
-2.89989e-05,2.59053e-05,-6.49643e-06,2.11016e-05,1.13601e-05,-1.65325e-05,1.2907e-05,-1.99712e-06,0
-2.84617e-05,2.84078e-05,-7.57107e-06,3.15689e-06,1.03208e-05,-1.62583e-05,1.0596e-05,-3.35893e-06,0
-2.88202e-05,2.98965e-05,-8.07019e-06,-1.20954e-05,7.9439e-06,-1.38211e-05,8.6257e-06,-5.27675e-06,0
-2.84401e-05,3.064e-05,-6.82396e-06,-1.81596e-05,7.19464e-06,-1.11595e-05,7.02075e-06,-6.96629e-06,0
-2.80438e-05,3.04265e-05,-4.69226e-06,-1.97986e-05,8.34541e-06,-1.09188e-05,6.40321e-06,-6.64486e-06,0
-2.88668e-05,2.92374e-05,-3.62427e-06,-1.86489e-05,9.19163e-06,-1.26767e-05,6.07397e-06,-4.82511e-06,0
-3.14825e-05,2.74019e-05,-4.64618e-06,-1.05334e-05,9.80492e-06,-1.33738e-05,5.27169e-06,-2.83265e-06,0
-3.43828e-05,2.4857e-05,-6.91119e-06,5.61414e-06,1.06121e-05,-1.22831e-05,5.26879e-06,-6.12397e-07,0
-3.55261e-05,2.22335e-05,-8.39177e-06,2.16225e-05,1.03654e-05,-1.09592e-05,7.29874e-06,2.00762e-07,0
-3.48117e-05,1.9376e-05,-8.91239e-06,2.92119e-05,7.72446e-06,-1.02366e-05,9.1098e-06,-4.76672e-07,0
-3.38801e-05,1.5758e-05,-9.10772e-06,2.81437e-05,3.43044e-06,-1.15578e-05,9.60561e-06,-6.96484e-07,0
-3.30653e-05,1.25243e-05,-9.89024e-06,2.37479e-05,-3.10481e-07,-1.34572e-05,1.01243e-05,3.29012e-07,0
-3.20508e-05,1.14103e-05,-1.08581e-05,2.20079e-05,1.30417e-07,-1.3501e-05,1.07972e-05,1.33247e-06,0
-3.0664e-05,1.165e-05,-1.23902e-05,2.8456e-05,2.76741e-06,-1.21649e-05,1.11113e-05,2.21967e-06,0
-3.04333e-05,1.04327e-05,-1.43457e-05,4.39709e-05,5.20617e-06,-1.002e-05,9.72309e-06,3.51318e-06,0
-3.14024e-05,6.37626e-06,-1.46863e-05,5.92807e-05,8.25629e-06,-7.07121e-06,8.76537e-06,4.08234e-06,0
-3.18015e-05,1.84482e-06,-1.25324e-05,6.3511e-05,1.30584e-05,-5.78481e-06,1.1074e-05,3.12445e-06,0
-3.1301e-05,-1.44064e-06,-1.18375e-05,5.65282e-05,1.66077e-05,-6.13095e-06,1.24684e-05,1.26377e-06,0
-3.05612e-05,-2.31915e-06,-1.3767e-05,4.25917e-05,1.78192e-05,-6.57003e-06,1.22287e-05,1.39714e-06,0
-3.03983e-05,-7.06091e-07,-1.57071e-05,2.32073e-05,1.75243e-05,-6.2573e-06,1.41898e-05,3.26726e-06,0
-2.91853e-05,9.76615e-07,-1.41607e-05,5.63133e-06,1.68397e-05,-4.98429e-06,1.66402e-05,2.77757e-06,0
-2.82906e-05,6.33497e-06,-1.10413e-05,-1.11638e-05,1.64165e-05,-5.16406e-06,1.67041e-05,1.19647e-06,0
-2.91918e-05,1.82388e-05,-1.14605e-05,-3.44084e-05,1.14452e-05,-7.22774e-06,1.65514e-05,3.60322e-07,0
-2.97609e-05,2.93728e-05,-1.27841e-05,-5.55711e-05,4.79962e-06,-9.46788e-06,1.66763e-05,-8.28263e-07,0
-3.1565e-05,3.34022e-05,-1.33816e-05,-6.33614e-05,3.60182e-06,-1.21227e-05,1.56735e-05,-1.25487e-06,0
-3.34517e-05,3.08797e-05,-1.27546e-05,-5.8285e-05,7.2192e-06,-1.36703e-05,1.39287e-05,-1.53958e-06,0
-3.33716e-05,2.38555e-05,-1.31925e-05,-4.9895e-05,1.04318e-05,-1.40338e-05,1.25533e-05,-3.05374e-06,0
-3.27689e-05,1.51129e-05,-1.39663e-05,-4.14216e-05,1.25996e-05,-1.29456e-05,1.1599e-05,-2.58419e-06,0
-3.10683e-05,8.20434e-06,-1.32248e-05,-3.27351e-05,1.51663e-05,-1.1172e-05,1.07291e-05,-3.5441e-07,0
-2.87895e-05,4.00334e-06,-1.15565e-05,-2.63692e-05,1.68095e-05,-1.04126e-05,1.02712e-05,1.33458e-06,0
-2.74358e-05,1.1106e-06,-9.94378e-06,-2.40971e-05,1.67375e-05,-1.10368e-05,8.8834e-06,3.0573e-06,0
-2.80295e-05,-3.306e-06,-9.06573e-06,-2.46283e-05,1.49488e-05,-1.23237e-05,8.35451e-06,4.1358e-06,0
-3.0031e-05,-1.17692e-05,-8.79802e-06,-2.34431e-05,1.24791e-05,-1.34483e-05,9.95193e-06,5.11996e-06,0
-3.20153e-05,-2.3787e-05,-1.01874e-05,-1.96297e-05,1.02724e-05,-1.45571e-05,1.26383e-05,5.97584e-06,0
-3.32955e-05,-3.65444e-05,-1.18564e-05,-1.54938e-05,9.00964e-06,-1.50772e-05,1.55198e-05,5.37443e-06,0
-3.32775e-05,-4.50532e-05,-1.22941e-05,-1.3296e-05,8.34804e-06,-1.59645e-05,1.76785e-05,2.7699e-06,0
-3.19688e-05,-4.39025e-05,-1.08388e-05,-1.0575e-05,8.46737e-06,-1.69083e-05,1.84101e-05,1.88874e-07,0
-3.03437e-05,-3.30843e-05,-8.88731e-06,-6.26003e-06,1.00614e-05,-1.62332e-05,1.74685e-05,5.63497e-08,0
-2.93284e-05,-2.02806e-05,-7.69903e-06,-3.27895e-06,1.1513e-05,-1.33154e-05,1.57283e-05,1.94393e-06,0
-2.89377e-05,-1.18736e-05,-7.18938e-06,-5.29443e-06,1.20019e-05,-1.16592e-05,1.47722e-05,3.43464e-06,0
-2.77143e-05,-8.36429e-06,-6.79537e-06,-1.16254e-05,1.26582e-05,-1.18173e-05,1.50955e-05,4.13536e-06,0
-2.67445e-05,-7.45264e-06,-7.24021e-06,-1.69148e-05,1.40488e-05,-1.1448e-05,1.47188e-05,5.57996e-06,0
-2.8298e-05,-3.78349e-06,-7.64614e-06,-1.82495e-05,1.55487e-05,-1.01484e-05,1.35824e-05,6.78283e-06,0
-2.93945e-05,2.00706e-06,-7.01926e-06,-1.75616e-05,1.59559e-05,-8.63574e-06,1.31186e-05,6.46626e-06,0
-2.92731e-05,5.13949e-06,-4.46888e-06,-1.64986e-05,1.56243e-05,-7.82011e-06,1.30846e-05,6.21026e-06,0
-2.82652e-05,7.63046e-06,-2.18431e-06,-1.69962e-05,1.56007e-05,-7.04686e-06,1.32436e-05,7.10562e-06,0
-2.64745e-05,1.09758e-05,-3.13764e-06,-1.91648e-05,1.7392e-05,-4.4303e-06,1.39604e-05,8.12664e-06,0
-2.50691e-05,1.4521e-05,-5.76873e-06,-1.9941e-05,1.98244e-05,-2.77975e-06,1.38121e-05,7.51503e-06,0
-2.40818e-05,1.66749e-05,-8.10842e-06,-1.99762e-05,1.90061e-05,-3.46151e-06,1.31936e-05,6.76344e-06,0
-2.37552e-05,1.59264e-05,-9.79768e-06,-2.08228e-05,1.6847e-05,-4.2569e-06,1.35725e-05,7.23969e-06,0
-2.46825e-05,1.4881e-05,-1.08555e-05,-2.19794e-05,1.50889e-05,-6.03725e-06,1.37034e-05,6.58742e-06,0
-2.702e-05,1.54892e-05,-1.0859e-05,-2.4381e-05,1.2589e-05,-7.77611e-06,1.36668e-05,5.54673e-06,0
-2.83137e-05,1.55997e-05,-1.10536e-05,-3.01606e-05,1.04286e-05,-9.33946e-06,1.42167e-05,3.55478e-06,0
-2.92321e-05,1.84377e-05,-1.14705e-05,-3.75443e-05,1.01874e-05,-1.12034e-05,1.5694e-05,1.52196e-06,0
-3.02754e-05,2.50439e-05,-1.23732e-05,-4.36028e-05,1.05513e-05,-1.10123e-05,1.72953e-05,7.38628e-07,0
-3.03385e-05,2.9983e-05,-1.30487e-05,-4.89984e-05,1.03612e-05,-9.20191e-06,1.79927e-05,1.36986e-06,0
-2.94497e-05,3.0045e-05,-1.23982e-05,-5.96285e-05,1.18864e-05,-9.45259e-06,1.72557e-05,2.36837e-06,0
-2.82496e-05,2.62519e-05,-1.1466e-05,-7.42352e-05,1.52777e-05,-1.06649e-05,1.64244e-05,1.62773e-06,0
-2.76615e-05,2.3175e-05,-1.12032e-05,-8.39711e-05,1.70415e-05,-1.06893e-05,1.63091e-05,5.91275e-07,0
-2.67016e-05,2.35019e-05,-9.98369e-06,-7.97876e-05,1.6246e-05,-1.0037e-05,1.61107e-05,-5.25586e-07,0
-2.58157e-05,2.65494e-05,-7.50017e-06,-5.87405e-05,1.57549e-05,-9.59679e-06,1.57153e-05,-8.12039e-07,0
-2.64489e-05,2.95345e-05,-4.93811e-06,-2.41679e-05,1.77982e-05,-9.17381e-06,1.48346e-05,1.66174e-07,0
-2.85217e-05,3.06914e-05,-4.08744e-06,2.30331e-05,2.0988e-05,-9.01427e-06,1.42132e-05,1.15191e-06,0
-3.02966e-05,2.90993e-05,-5.62146e-06,7.68664e-05,2.22207e-05,-1.02305e-05,1.41582e-05,5.91062e-07,0
-3.06661e-05,2.71039e-05,-8.06475e-06,0.000121248,2.0701e-05,-1.21257e-05,1.41129e-05,-1.05677e-06,0
-2.9181e-05,2.60999e-05,-1.01204e-05,0.000139029,1.83325e-05,-1.26113e-05,1.37339e-05,-2.12712e-06,0
-2.68035e-05,2.54091e-05,-1.07424e-05,0.000125368,1.67645e-05,-1.08225e-05,1.32043e-05,-2.30844e-06,0
-2.56467e-05,2.37958e-05,-9.7021e-06,9.13258e-05,1.55714e-05,-8.79306e-06,1.28308e-05,-1.75296e-06,0
-2.67675e-05,2.06496e-05,-8.69552e-06,5.44994e-05,1.4205e-05,-7.14199e-06,1.40827e-05,-1.44936e-06,0
-2.84669e-05,1.87558e-05,-9.49678e-06,2.77611e-05,1.31644e-05,-5.48968e-06,1.58226e-05,-1.33158e-06,0
-2.8666e-05,1.95539e-05,-9.88623e-06,1.33526e-05,1.34987e-05,-3.30162e-06,1.56174e-05,1.28175e-07,0
-2.93453e-05,2.03319e-05,-9.2971e-06,1.39322e-06,1.62714e-05,2.50282e-08,1.14555e-05,5.62398e-07,0
-3.14812e-05,2.02885e-05,-9.1783e-06,-1.07852e-05,1.83841e-05,2.81989e-06,4.96649e-06,-1.03588e-06,0
-3.34232e-05,1.92365e-05,-1.09142e-05,-1.58091e-05,1.52236e-05,2.08798e-06,1.00847e-06,-2.78922e-06,0
-3.35564e-05,1.63799e-05,-1.24333e-05,-1.2863e-05,1.12049e-05,-1.14538e-06,3.0422e-07,-3.07705e-06,0
-3.25268e-05,1.33032e-05,-1.27514e-05,-9.56792e-06,1.13129e-05,-1.82246e-06,2.02675e-06,-1.29082e-06,0
-3.13877e-05,1.07267e-05,-1.39935e-05,-1.03071e-05,1.29624e-05,-9.38216e-07,5.66475e-06,1.83697e-07,0
-3.07006e-05,7.21249e-06,-1.48106e-05,-1.276e-05,1.35502e-05,-3.89181e-07,9.37743e-06,1.05612e-06,0
-3.23318e-05,3.15719e-06,-1.40482e-05,-1.38199e-05,1.18001e-05,-9.77259e-07,1.17247e-05,1.62319e-06,0
-3.42936e-05,7.18177e-07,-1.15698e-05,-1.11933e-05,9.41475e-06,-3.60565e-06,1.23124e-05,8.33586e-07,0
-3.46355e-05,-8.01987e-07,-9.3201e-06,-6.18773e-06,8.915e-06,-6.03237e-06,1.14948e-05,-1.5081e-06,0
-3.40944e-05,-2.71831e-06,-9.59361e-06,2.46543e-06,9.84869e-06,-6.09438e-06,1.07575e-05,-2.10267e-06,0
-3.31486e-05,-4.34843e-06,-1.24973e-05,1.4785e-05,1.15695e-05,-4.60089e-06,1.05727e-05,-1.23339e-06,0
-3.333e-05,-3.60842e-06,-1.67739e-05,2.46902e-05,1.22576e-05,-4.59393e-06,1.01475e-05,-1.03355e-06,0
-3.45022e-05,-1.87937e-06,-2.00592e-05,2.28098e-05,1.1999e-05,-4.8501e-06,9.79134e-06,-1.48229e-06,0
-3.42395e-05,5.41517e-07,-2.06182e-05,9.53587e-06,1.16071e-05,-4.5697e-06,1.05323e-05,-1.64711e-06,0
-3.31664e-05,3.74137e-06,-1.91213e-05,-4.657e-06,1.12572e-05,-4.76699e-06,1.10876e-05,-1.10218e-06,0
-3.38543e-05,5.29494e-06,-1.73287e-05,-1.26476e-05,1.19556e-05,-5.50984e-06,1.04677e-05,-1.06898e-06,0
-3.53973e-05,3.28362e-06,-1.58132e-05,-1.51233e-05,1.37288e-05,-5.20886e-06,1.0053e-05,-1.24013e-06,0
-3.6201e-05,4.486e-07,-1.48626e-05,-1.35239e-05,1.4952e-05,-4.69898e-06,1.10875e-05,-6.61231e-07,0
-3.62538e-05,-6.98973e-08,-1.46912e-05,-7.03838e-06,1.59927e-05,-5.47392e-06,1.19032e-05,7.60877e-07,0
-3.56458e-05,6.34264e-07,-1.51104e-05,-7.8407e-07,1.86297e-05,-6.36818e-06,1.11632e-05,1.98688e-06,0
-3.43916e-05,2.22556e-07,-1.58929e-05,-8.47819e-07,2.15945e-05,-6.27244e-06,1.11924e-05,4.25284e-06,0
-3.28141e-05,-1.20514e-06,-1.694e-05,-8.57085e-06,2.254e-05,-6.00408e-06,1.38289e-05,8.20502e-06,0
-3.13207e-05,-1.50788e-06,-1.67772e-05,-2.03465e-05,1.94847e-05,-6.50011e-06,1.69418e-05,1.20679e-05,0
-3.04703e-05,-1.81885e-06,-1.38414e-05,-3.14871e-05,1.39191e-05,-7.46492e-06,1.77755e-05,1.37301e-05,0
-3.00037e-05,-3.51302e-06,-9.12679e-06,-3.55786e-05,1.00953e-05,-8.15315e-06,1.64216e-05,1.2684e-05,0
-3.044e-05,-5.40945e-06,-3.96327e-06,-2.96493e-05,1.04639e-05,-7.04907e-06,1.48654e-05,9.74183e-06,0
-3.22149e-05,-4.75222e-06,2.93413e-06,-2.56292e-05,1.42933e-05,-6.05231e-06,1.33866e-05,7.94425e-06,0
-3.28382e-05,-9.36504e-07,1.26278e-05,-3.64202e-05,1.7831e-05,-7.07518e-06,1.22633e-05,8.88602e-06,0
-3.20996e-05,3.01452e-06,2.69782e-05,-6.12458e-05,1.71123e-05,-9.6797e-06,1.30639e-05,9.34397e-06,0
-3.12341e-05,3.86437e-06,4.64478e-05,-8.58541e-05,1.48081e-05,-1.12745e-05,1.44704e-05,6.37974e-06,0
-3.06929e-05,2.18108e-06,6.65012e-05,-9.37419e-05,1.43914e-05,-1.18443e-05,1.55478e-05,2.38415e-06,0
-3.1241e-05,-2.08039e-06,8.05239e-05,-8.08644e-05,1.42376e-05,-1.23099e-05,1.57535e-05,-2.5055e-07,0
-3.19026e-05,-5.64959e-06,7.96553e-05,-4.84981e-05,1.25146e-05,-1.32634e-05,1.43526e-05,-1.94594e-06,0
-3.29732e-05,-5.43536e-06,5.95226e-05,-6.77239e-06,9.97259e-06,-1.41422e-05,1.19419e-05,-2.62575e-06,0
-3.41421e-05,-3.23401e-06,2.20538e-05,3.01577e-05,7.21602e-06,-1.47719e-05,1.08041e-05,-3.33327e-06,0
-3.42991e-05,-1.92042e-06,-2.26862e-05,5.69146e-05,3.83738e-06,-1.57002e-05,1.27455e-05,-4.75208e-06,0
-3.40476e-05,-2.49521e-06,-6.1293e-05,7.2218e-05,2.30847e-06,-1.5445e-05,1.54927e-05,-6.22509e-06,0
-3.25211e-05,-2.93554e-06,-8.64925e-05,7.13768e-05,2.79236e-06,-1.44448e-05,1.7316e-05,-5.97138e-06,0
-2.98472e-05,-1.31571e-06,-9.51548e-05,5.68927e-05,3.93574e-06,-1.30435e-05,1.68487e-05,-4.74107e-06,0
-2.78726e-05,2.29476e-06,-8.86184e-05,3.9465e-05,6.2294e-06,-1.19916e-05,1.4109e-05,-3.85478e-06,0
-2.73394e-05,4.01992e-06,-7.37071e-05,2.28818e-05,8.60522e-06,-1.1375e-05,1.07363e-05,-4.22055e-06,0
-2.74563e-05,3.02945e-06,-6.06498e-05,9.72913e-06,1.05444e-05,-1.04835e-05,5.27257e-06,-5.30353e-06,0
-2.72336e-05,1.46159e-06,-5.27467e-05,1.533e-06,1.1993e-05,-9.12353e-06,-5.00914e-06,-5.45316e-06,0
-2.67809e-05,7.31025e-07,-4.6552e-05,-2.14296e-06,1.31948e-05,-7.93297e-06,-1.63942e-05,-4.92051e-06,0
-2.62686e-05,1.0089e-06,-3.88677e-05,-7.47361e-07,1.38784e-05,-8.23883e-06,-2.18732e-05,-5.15252e-06,0
-2.57042e-05,1.98342e-06,-2.92493e-05,6.81799e-06,1.34159e-05,-9.59785e-06,-2.0113e-05,-6.07211e-06,0
-2.50812e-05,1.92251e-06,-1.96626e-05,1.58402e-05,1.15777e-05,-1.15415e-05,-1.31675e-05,-6.27761e-06,0
-2.55164e-05,6.38819e-07,-1.10722e-05,2.67665e-05,1.03149e-05,-1.40443e-05,-4.01678e-06,-6.00777e-06,0
-2.77365e-05,-1.12076e-06,-3.03063e-06,4.91135e-05,1.08507e-05,-1.60145e-05,5.5351e-06,-6.53329e-06,0
-2.99956e-05,-3.46118e-06,2.30797e-06,7.53348e-05,9.9632e-06,-1.70035e-05,1.52619e-05,-6.97254e-06,0
-3.1248e-05,-4.58186e-06,2.13164e-06,8.08647e-05,7.54407e-06,-1.77734e-05,2.26981e-05,-5.52892e-06,0
-3.17e-05,-3.14255e-06,-1.27919e-06,6.12765e-05,7.91884e-06,-1.76127e-05,2.75892e-05,-4.4789e-06,0
-3.17424e-05,-7.84886e-07,-4.63185e-06,3.39803e-05,1.13619e-05,-1.62395e-05,3.17188e-05,-3.92518e-06,0
-3.16885e-05,9.08484e-07,-6.09434e-06,9.04356e-06,1.25504e-05,-1.51944e-05,3.38058e-05,-2.3225e-06,0
-3.14528e-05,3.46264e-07,-3.47901e-06,-1.80406e-05,1.05345e-05,-1.45929e-05,3.27927e-05,-8.79224e-07,0
-3.02437e-05,-1.36788e-06,1.47342e-06,-4.60959e-05,8.77085e-06,-1.40586e-05,2.97614e-05,-8.0276e-07,0
-2.80416e-05,2.4911e-07,2.94325e-06,-5.82294e-05,9.21737e-06,-1.21247e-05,2.9747e-05,-2.14377e-07,0
-2.66174e-05,3.09428e-06,7.16547e-07,-5.07379e-05,1.07887e-05,-1.03828e-05,2.86296e-05,5.23765e-07,0
-2.59174e-05,4.8732e-06,-1.04462e-06,-3.62625e-05,1.24012e-05,-1.02368e-05,2.30309e-05,5.71493e-07,0
-2.53542e-05,7.38461e-06,-3.24461e-07,-2.56704e-05,1.32091e-05,-1.16342e-05,1.68534e-05,-5.48052e-07,0
-2.64953e-05,1.00107e-05,1.09752e-06,-2.88837e-05,1.32268e-05,-1.26792e-05,1.12342e-05,-3.07527e-06,0
-2.77835e-05,1.26253e-05,1.56017e-06,-4.9271e-05,1.45626e-05,-1.05439e-05,9.24909e-06,-3.52116e-06,0
-2.76007e-05,1.64991e-05,1.07309e-06,-6.95646e-05,1.60096e-05,-8.93771e-06,9.40559e-06,-2.58614e-06,0
-2.68599e-05,2.13389e-05,4.69339e-08,-7.61695e-05,1.58607e-05,-1.0987e-05,8.98859e-06,-1.77748e-06,0
-2.63079e-05,2.63142e-05,1.46197e-09,-7.76032e-05,1.57839e-05,-1.4382e-05,8.05951e-06,-2.40006e-06,0
-2.59398e-05,2.93519e-05,1.77043e-06,-8.50046e-05,1.78609e-05,-1.53482e-05,7.63495e-06,-4.99283e-06,0
-2.61418e-05,3.02345e-05,3.84407e-06,-9.30923e-05,2.05193e-05,-1.53362e-05,7.14843e-06,-6.80613e-06,0
-2.7784e-05,3.09526e-05,4.79455e-06,-8.44355e-05,1.96186e-05,-1.6161e-05,6.47126e-06,-6.97055e-06,0
-2.98633e-05,3.43162e-05,4.21097e-06,-5.47154e-05,1.60814e-05,-1.62714e-05,6.0837e-06,-6.59742e-06,0
-3.1838e-05,3.91642e-05,3.06384e-06,-1.48306e-05,1.44919e-05,-1.41283e-05,5.86342e-06,-5.43303e-06,0
-3.32643e-05,4.21807e-05,1.71808e-06,2.14557e-05,1.54503e-05,-1.12688e-05,6.06866e-06,-3.50375e-06,0
-3.34151e-05,4.38536e-05,3.12732e-07,5.09019e-05,1.63713e-05,-1.09649e-05,5.95801e-06,-2.50715e-06,0
-3.23675e-05,4.91161e-05,5.02359e-07,7.24514e-05,1.82433e-05,-1.31191e-05,5.18748e-06,-3.79914e-06,0
-3.11618e-05,6.05472e-05,2.5475e-06,7.80954e-05,2.13884e-05,-1.46686e-05,4.81678e-06,-5.94976e-06,0
-3.06613e-05,7.29416e-05,4.71399e-06,6.57857e-05,2.28459e-05,-1.31535e-05,4.66685e-06,-6.66358e-06,0
-3.16224e-05,8.30298e-05,4.93218e-06,5.00956e-05,2.33985e-05,-1.04041e-05,3.63011e-06,-6.7186e-06,0
-3.28766e-05,9.18611e-05,2.42508e-06,4.99207e-05,2.39316e-05,-8.8783e-06,2.60745e-06,-6.13812e-06,0
-3.22211e-05,9.86632e-05,-1.44993e-06,6.13999e-05,2.31596e-05,-7.92294e-06,2.69855e-06,-4.53802e-06,0
-3.03039e-05,0.00010107,-4.23916e-06,6.04321e-05,1.98009e-05,-7.45959e-06,4.22736e-06,-3.90923e-06,0
-2.85448e-05,9.7817e-05,-5.13292e-06,3.75316e-05,1.52728e-05,-8.00982e-06,5.70066e-06,-5.32426e-06,0
-2.73163e-05,8.53964e-05,-3.75719e-06,9.73958e-06,1.33302e-05,-7.14718e-06,6.46664e-06,-5.89867e-06,0
-2.75361e-05,6.57897e-05,-1.9971e-06,-4.18016e-06,1.42493e-05,-6.52056e-06,6.31349e-06,-4.07287e-06,0
-2.79599e-05,3.9994e-05,-1.86575e-06,1.3536e-06,2.00481e-05,-8.91467e-06,7.08391e-06,-8.14193e-07,0
-2.68657e-05,1.36269e-05,-3.57479e-06,7.4829e-06,2.96661e-05,-1.04128e-05,8.54669e-06,1.75422e-06,0
-2.62063e-05,-6.63283e-06,-6.18075e-06,-4.78282e-06,3.41725e-05,-8.33253e-06,8.53369e-06,3.24272e-06,0
-2.51112e-05,-2.27782e-05,-8.14196e-06,-2.54164e-05,3.26406e-05,-5.84993e-06,9.54777e-06,5.24392e-06,0
-2.33249e-05,-3.20459e-05,-7.48713e-06,-4.04684e-05,2.9523e-05,-5.05675e-06,1.09773e-05,6.75128e-06,0
-2.38642e-05,-3.42908e-05,-5.2173e-06,-4.91659e-05,2.71953e-05,-5.26563e-06,1.19302e-05,7.33269e-06,0
-2.59623e-05,-3.30398e-05,-2.74721e-06,-5.14427e-05,2.62246e-05,-6.90375e-06,1.31811e-05,6.60925e-06,0
-2.75648e-05,-3.26522e-05,-1.90925e-06,-4.44185e-05,2.6198e-05,-8.95622e-06,1.37334e-05,6.86726e-06,0
-2.90239e-05,-3.01525e-05,-3.47087e-06,-3.10071e-05,2.4756e-05,-1.07569e-05,1.28822e-05,8.45203e-06,0
-3.05873e-05,-2.4315e-05,-4.91762e-06,-2.06521e-05,1.78603e-05,-1.33705e-05,1.21884e-05,8.89046e-06,0
-3.24371e-05,-1.5913e-05,-5.50969e-06,-1.74481e-05,8.62571e-06,-1.77826e-05,1.24765e-05,8.27278e-06,0
-3.4184e-05,-3.88431e-06,-5.72865e-06,-1.87412e-05,2.0656e-06,-2.10288e-05,1.31243e-05,8.94402e-06,0
-3.37392e-05,8.11676e-06,-6.78673e-06,-2.07301e-05,-9.93362e-07,-2.06988e-05,1.47883e-05,1.01696e-05,0
-3.20785e-05,1.58974e-05,-7.85122e-06,-1.90667e-05,-1.48931e-06,-1.9534e-05,1.60614e-05,1.04375e-05,0
-3.15905e-05,1.8943e-05,-8.43345e-06,-1.35958e-05,-1.78593e-06,-1.84823e-05,1.54409e-05,1.07442e-05,0
-3.26625e-05,2.13185e-05,-8.53988e-06,-9.94946e-06,-3.01127e-06,-1.66378e-05,1.39619e-05,1.07435e-05,0
-3.41205e-05,2.36371e-05,-9.29423e-06,-1.52058e-05,-4.45699e-06,-1.51143e-05,1.36287e-05,1.13523e-05,0
-3.44447e-05,2.43694e-05,-1.01613e-05,-2.7097e-05,-3.8399e-06,-1.469e-05,1.40309e-05,1.3411e-05,0
-3.4381e-05,2.39414e-05,-1.00875e-05,-3.55074e-05,-5.6169e-07,-1.42102e-05,1.43991e-05,1.55414e-05,0
-3.41472e-05,2.57596e-05,-7.56485e-06,-3.66743e-05,5.85394e-06,-1.35752e-05,1.40327e-05,1.59393e-05,0
-3.28593e-05,2.8534e-05,-3.21159e-06,-3.50573e-05,1.59999e-05,-1.33818e-05,1.34065e-05,1.595e-05,0
-3.10153e-05,2.8075e-05,-1.44955e-06,-3.42604e-05,2.63044e-05,-1.37891e-05,1.35375e-05,1.61868e-05,0
-3.02176e-05,2.36273e-05,-3.94801e-06,-3.22115e-05,3.1145e-05,-1.34509e-05,1.3961e-05,1.67078e-05,0
-3.10962e-05,2.07078e-05,-6.97507e-06,-2.15005e-05,2.97802e-05,-1.29873e-05,1.45777e-05,1.44466e-05,0
-3.11789e-05,2.31364e-05,-6.97443e-06,-1.97948e-07,2.6183e-05,-1.33972e-05,1.46543e-05,1.05341e-05,0
-2.83931e-05,2.6007e-05,-5.69328e-06,2.17193e-05,2.23213e-05,-1.24437e-05,1.49522e-05,8.69021e-06,0
-2.68456e-05,2.66283e-05,-5.11781e-06,3.45989e-05,1.99341e-05,-1.10589e-05,1.61195e-05,7.71442e-06,0
-2.8255e-05,2.89149e-05,-5.81548e-06,3.83732e-05,1.91576e-05,-1.05417e-05,1.7778e-05,7.3113e-06,0
-2.91205e-05,3.18542e-05,-6.97925e-06,3.3225e-05,1.87195e-05,-9.90936e-06,1.94232e-05,6.75261e-06,0
-2.92382e-05,3.21238e-05,-9.88625e-06,1.40655e-05,1.73158e-05,-1.01621e-05,2.07622e-05,6.06278e-06,0
-2.86996e-05,3.17675e-05,-1.28297e-05,-1.55115e-05,1.62961e-05,-9.06827e-06,2.04524e-05,5.06211e-06,0
-2.77714e-05,3.16049e-05,-1.36596e-05,-3.87373e-05,1.47127e-05,-6.23604e-06,1.92874e-05,4.4663e-06,0
-2.87084e-05,3.0542e-05,-1.32183e-05,-4.24175e-05,1.14244e-05,-4.75619e-06,1.92677e-05,4.02703e-06,0
-3.02006e-05,2.84317e-05,-1.41169e-05,-2.86037e-05,8.48005e-06,-4.85024e-06,1.97285e-05,2.96367e-06,0
-3.05169e-05,2.37738e-05,-1.73806e-05,-7.31662e-06,5.89697e-06,-4.36884e-06,1.97165e-05,2.56036e-06,0
-3.09719e-05,1.73247e-05,-1.96561e-05,1.28604e-05,2.02227e-06,-3.17457e-06,1.89263e-05,3.41027e-06,0
-3.17589e-05,1.30613e-05,-2.0887e-05,2.77442e-05,-4.23988e-06,-2.8901e-06,1.86343e-05,4.24849e-06,0
-3.31391e-05,1.09871e-05,-2.06456e-05,2.57023e-05,-7.7978e-06,-2.82465e-06,1.86341e-05,4.10312e-06,0
-3.35781e-05,1.07663e-05,-1.94386e-05,9.29459e-07,-6.18165e-06,-3.44208e-06,1.83e-05,3.19007e-06,0
-3.21695e-05,1.02143e-05,-1.9146e-05,-2.42059e-05,-2.1644e-06,-4.71068e-06,1.88733e-05,1.99694e-06,0
-3.0316e-05,8.05623e-06,-1.89966e-05,-2.42206e-05,3.95346e-07,-4.26364e-06,2.06751e-05,-2.33557e-07,0
-2.98859e-05,5.33134e-06,-1.82637e-05,-3.71512e-07,2.13707e-06,-1.11071e-06,2.19093e-05,-3.66688e-06,0
-3.01671e-05,3.20769e-06,-1.72616e-05,2.87726e-05,4.93803e-06,8.80173e-07,2.30359e-05,-6.75832e-06,0
-2.98075e-05,9.06799e-07,-1.62071e-05,5.0504e-05,8.49448e-06,-6.56913e-07,2.53963e-05,-7.87437e-06,0
-2.91734e-05,-1.49407e-06,-1.52106e-05,6.4348e-05,1.26762e-05,-3.76417e-06,2.72663e-05,-6.87371e-06,0
-2.82178e-05,-1.09724e-06,-1.46546e-05,7.61944e-05,1.7019e-05,-5.5072e-06,2.56276e-05,-5.22625e-06,0
-2.72069e-05,2.09593e-06,-1.28007e-05,8.27979e-05,2.02247e-05,-4.91403e-06,2.10965e-05,-2.9065e-06,0
-2.59016e-05,5.99083e-06,-7.77617e-06,7.06552e-05,1.90155e-05,-2.7167e-06,1.69984e-05,-6.12641e-07,0
-2.40469e-05,8.47534e-06,-1.275e-06,3.29946e-05,1.52232e-05,-1.70883e-06,1.60186e-05,2.95129e-07,0
-2.23583e-05,9.3598e-06,3.42986e-06,-1.6892e-05,1.18602e-05,-4.4776e-06,1.77418e-05,-1.29411e-06,0
-2.24971e-05,7.31225e-06,4.32889e-06,-5.59168e-05,8.09438e-06,-8.04835e-06,1.76088e-05,-4.41156e-06,0
-2.4042e-05,4.39177e-06,1.19465e-06,-7.57754e-05,3.17249e-06,-8.80871e-06,1.2236e-05,-5.52488e-06,0
-2.64602e-05,4.28602e-06,-1.85385e-06,-7.8216e-05,-1.49013e-06,-8.11641e-06,3.71485e-06,-4.67257e-06,0
-2.70246e-05,5.77359e-06,-2.88583e-06,-6.48322e-05,-2.7331e-06,-7.11879e-06,-1.85704e-06,-3.2323e-06,0
-2.43954e-05,8.29767e-06,-4.22095e-06,-4.12961e-05,3.87372e-07,-5.60045e-06,-4.48937e-06,-2.30492e-06,0
-2.38202e-05,1.00995e-05,-4.35075e-06,-2.42975e-05,6.46865e-06,-4.03721e-06,-3.55909e-06,-2.77831e-06,0
-2.65886e-05,1.04068e-05,-2.93834e-06,-2.18122e-05,1.14672e-05,-1.71735e-06,1.90674e-06,-4.54336e-06,0
-2.7418e-05,8.82412e-06,-1.74284e-06,-2.38598e-05,1.29415e-05,-5.99119e-07,9.42698e-06,-7.5752e-06,0
-2.6569e-05,7.74305e-06,-1.33579e-06,-2.42693e-05,1.56869e-05,-9.89976e-07,1.57642e-05,-8.63487e-06,0
-2.67784e-05,8.83619e-06,-2.04091e-06,-7.774e-06,2.08914e-05,-6.6273e-07,1.80793e-05,-7.66933e-06,0
-2.77273e-05,7.65098e-06,-3.583e-06,2.65352e-05,2.3709e-05,-1.27631e-07,1.8174e-05,-7.16116e-06,0
-2.79611e-05,3.50348e-06,-6.30807e-06,5.27208e-05,2.11623e-05,-1.64512e-06,1.83076e-05,-7.0321e-06,0
-2.76273e-05,-1.21278e-06,-9.61634e-06,4.96569e-05,1.73591e-05,-3.97119e-06,1.90979e-05,-6.68031e-06,0
-2.79164e-05,-3.99193e-06,-1.14238e-05,2.31194e-05,1.53573e-05,-4.61944e-06,1.89134e-05,-5.32967e-06,0
-2.87139e-05,-5.07551e-06,-1.11326e-05,-7.16754e-06,1.54364e-05,-4.07538e-06,1.77585e-05,-2.951e-06,0
-3.0129e-05,-4.21729e-06,-1.0233e-05,-3.49796e-05,1.5836e-05,-4.34938e-06,1.61175e-05,-6.49941e-07,0
-3.08167e-05,-1.87873e-06,-1.07424e-05,-5.92174e-05,1.39596e-05,-5.41732e-06,1.57967e-05,-2.28746e-07,0
-2.99944e-05,2.82809e-07,-1.23136e-05,-7.22236e-05,1.09334e-05,-6.09273e-06,1.73836e-05,-1.93439e-06,0
-3.02585e-05,1.44223e-06,-1.3672e-05,-6.09129e-05,9.54213e-06,-4.78426e-06,1.86555e-05,-4.25713e-06,0
-3.29827e-05,2.06437e-06,-1.48788e-05,-2.67261e-05,1.14074e-05,-2.03979e-06,1.79842e-05,-5.67868e-06,0
-3.53462e-05,3.24229e-06,-1.51571e-05,1.02852e-05,1.55152e-05,-1.62095e-06,1.62248e-05,-6.89203e-06,0
-3.60965e-05,6.61125e-06,-1.39909e-05,2.83799e-05,2.02193e-05,-3.71995e-06,1.56605e-05,-7.55005e-06,0
-3.617e-05,1.38737e-05,-1.19727e-05,2.5956e-05,2.15703e-05,-7.06397e-06,1.55368e-05,-6.89757e-06,0
-3.65682e-05,2.30108e-05,-1.04342e-05,1.72277e-05,1.8616e-05,-1.09531e-05,1.44878e-05,-5.77881e-06,0
-3.69082e-05,2.99693e-05,-1.01277e-05,1.34292e-05,1.4966e-05,-1.44027e-05,1.22801e-05,-5.20518e-06,0
-3.58579e-05,3.28441e-05,-9.45151e-06,1.40212e-05,1.36056e-05,-1.64669e-05,9.84202e-06,-5.14303e-06,0
-3.26047e-05,3.10118e-05,-6.9882e-06,1.25886e-05,1.47265e-05,-1.77452e-05,8.68795e-06,-4.90286e-06,0
-2.98565e-05,2.61211e-05,-4.94069e-06,7.76962e-06,1.68033e-05,-1.8186e-05,9.43583e-06,-5.20546e-06,0
-3.00334e-05,2.18907e-05,-4.96883e-06,3.29984e-06,1.66358e-05,-1.83331e-05,1.04999e-05,-7.76992e-06,0
-3.13861e-05,1.86568e-05,-4.98834e-06,5.15281e-08,1.53962e-05,-1.92566e-05,1.06752e-05,-1.08589e-05,0
-3.27317e-05,1.62215e-05,-3.58414e-06,-1.84298e-06,1.57763e-05,-2.02338e-05,1.10905e-05,-1.21462e-05,0
-3.26209e-05,1.13554e-05,-1.67093e-06,-2.25381e-06,1.77159e-05,-1.9415e-05,1.16416e-05,-1.17901e-05,0
-3.09018e-05,7.17935e-06,6.7382e-08,-3.87935e-06,1.89521e-05,-1.77264e-05,1.24593e-05,-9.97059e-06,0
-3.16348e-05,9.09496e-06,-2.33847e-08,-5.64423e-06,1.91913e-05,-1.83529e-05,1.33254e-05,-7.7099e-06,0
-3.35202e-05,1.40641e-05,-3.57029e-06,-5.94317e-06,1.77914e-05,-1.97552e-05,1.33021e-05,-4.58206e-06,0
-3.37278e-05,1.95959e-05,-6.24506e-06,-5.93179e-06,1.60066e-05,-2.02351e-05,1.40814e-05,-2.5951e-06,0
-3.33006e-05,2.29321e-05,-6.71631e-06,-8.78247e-06,1.66205e-05,-1.9653e-05,1.45282e-05,-2.8228e-06,0
-3.25761e-05,2.21126e-05,-8.22763e-06,-1.51476e-05,1.69823e-05,-1.85685e-05,1.45903e-05,-4.11723e-06,0
-3.23956e-05,1.95384e-05,-1.02064e-05,-1.99839e-05,1.75562e-05,-1.78905e-05,1.50288e-05,-4.90325e-06,0
-3.25878e-05,1.72414e-05,-1.2498e-05,-1.62116e-05,1.75277e-05,-1.68152e-05,1.56735e-05,-2.87211e-06,0
-3.24723e-05,1.54722e-05,-1.47844e-05,-1.18726e-06,1.59625e-05,-1.53323e-05,1.6707e-05,5.60291e-08,0
-3.1854e-05,1.49481e-05,-1.64718e-05,2.2145e-05,1.45524e-05,-1.44001e-05,1.79055e-05,1.70851e-06,0
-3.18021e-05,1.56634e-05,-1.74093e-05,4.2974e-05,1.50859e-05,-1.42796e-05,1.82483e-05,2.35383e-06,0
-3.19888e-05,1.68471e-05,-1.65948e-05,5.02709e-05,1.54351e-05,-1.39571e-05,1.70123e-05,2.82028e-06,0
-3.18147e-05,1.67128e-05,-1.44937e-05,4.30992e-05,1.42537e-05,-1.27469e-05,1.48472e-05,3.82584e-06,0
-3.18628e-05,1.52409e-05,-1.18921e-05,2.92479e-05,1.31027e-05,-1.04237e-05,1.29942e-05,5.93485e-06,0
-3.19221e-05,1.40719e-05,-9.55509e-06,1.69413e-05,1.11633e-05,-8.06213e-06,1.34607e-05,8.55026e-06,0
-3.14159e-05,1.424e-05,-8.04187e-06,6.97578e-06,8.45092e-06,-7.79176e-06,1.56103e-05,9.94249e-06,0
-3.05412e-05,1.55207e-05,-7.85416e-06,-6.14328e-06,6.43551e-06,-9.81428e-06,1.69592e-05,1.00747e-05,0
-3.01559e-05,1.71646e-05,-8.82155e-06,-2.59324e-05,5.90317e-06,-1.15419e-05,1.55442e-05,9.79577e-06,0
-3.11084e-05,1.82519e-05,-9.8141e-06,-4.73981e-05,4.9713e-06,-1.24227e-05,1.32554e-05,8.85576e-06,0
-3.34338e-05,1.86547e-05,-1.03386e-05,-6.36932e-05,2.78212e-06,-1.57927e-05,1.29796e-05,8.00142e-06,0
-3.39765e-05,1.89125e-05,-1.07869e-05,-7.25216e-05,1.26893e-06,-2.05766e-05,1.48216e-05,8.39916e-06,0
-3.28919e-05,1.87139e-05,-1.12291e-05,-7.3187e-05,2.26207e-06,-2.26093e-05,1.56444e-05,9.62548e-06,0
-3.36966e-05,1.89401e-05,-1.11166e-05,-6.75508e-05,3.85438e-06,-2.23846e-05,1.37728e-05,1.08899e-05,0
-3.56592e-05,1.91741e-05,-1.0131e-05,-6.34717e-05,4.42549e-06,-2.2331e-05,1.08357e-05,1.33762e-05,0
-3.67142e-05,1.78997e-05,-9.04073e-06,-6.24374e-05,5.19212e-06,-2.12303e-05,1.05219e-05,1.51808e-05,0
-3.62036e-05,1.60667e-05,-8.33643e-06,-5.75397e-05,6.70108e-06,-1.69199e-05,1.30012e-05,1.32693e-05,0
-3.44872e-05,1.61197e-05,-7.5895e-06,-5.33437e-05,7.43862e-06,-1.27592e-05,1.67487e-05,1.12761e-05,0
-3.32575e-05,1.56217e-05,-6.73184e-06,-5.39273e-05,7.73801e-06,-1.42904e-05,2.0091e-05,1.22752e-05,0
-3.46382e-05,1.32635e-05,-6.43678e-06,-5.3994e-05,1.03943e-05,-1.95488e-05,2.05068e-05,1.40546e-05,0
-3.62769e-05,1.02675e-05,-6.87179e-06,-4.91838e-05,1.38244e-05,-2.55599e-05,1.91017e-05,1.50483e-05,0
-3.5461e-05,6.65056e-06,-5.69519e-06,-3.49789e-05,1.42102e-05,-3.30669e-05,1.69473e-05,1.441e-05,0
-3.41936e-05,4.42209e-06,-3.93503e-06,-1.79438e-05,1.33367e-05,-3.81958e-05,1.4692e-05,1.33046e-05,0
-3.25045e-05,2.93533e-06,-4.14377e-06,-1.15118e-05,1.33182e-05,-2.89024e-05,1.16615e-05,1.35506e-05,0
