ch1,ch2,ch3,ch4,ch5,ch6,ch7,ch8,class
-2.65668e-05,3.43726e-05,-3.61752e-06,1.40946e-06,1.76375e-05,-7.47778e-06,8.62573e-06,7.15818e-06,0
-2.58669e-05,3.33967e-05,-4.08452e-06,-3.50373e-06,1.58054e-05,-6.74452e-06,7.97259e-06,6.10184e-06,0
-2.4878e-05,3.02119e-05,-6.35379e-06,-8.49973e-06,1.24159e-05,-8.30171e-06,6.94364e-06,5.6459e-06,0
-2.59987e-05,2.58261e-05,-7.45001e-06,-9.61104e-06,1.19013e-05,-1.11431e-05,7.53344e-06,6.62155e-06,0
-2.81602e-05,2.09993e-05,-7.82104e-06,-8.47797e-06,1.28395e-05,-1.39863e-05,8.70482e-06,7.61796e-06,0
-3.04076e-05,1.65186e-05,-8.15643e-06,-6.79725e-06,1.3952e-05,-1.47663e-05,9.97015e-06,7.19818e-06,0
-3.20112e-05,1.4535e-05,-8.14681e-06,-6.70355e-06,1.46361e-05,-1.39395e-05,1.08008e-05,6.43319e-06,0
-3.3917e-05,1.46345e-05,-8.11887e-06,-8.29901e-06,1.41205e-05,-1.34142e-05,1.08784e-05,7.00741e-06,0
-3.56292e-05,1.4832e-05,-8.24389e-06,-9.04637e-06,1.31916e-05,-1.36568e-05,9.83828e-06,7.06774e-06,0
-3.61535e-05,1.45044e-05,-8.59694e-06,-6.79483e-06,1.33079e-05,-1.33168e-05,9.2698e-06,5.78087e-06,0
-3.5659e-05,1.47138e-05,-9.59521e-06,-3.52026e-06,1.46949e-05,-1.26605e-05,1.11345e-05,5.34188e-06,0
-3.53984e-05,1.54951e-05,-9.53013e-06,-3.0007e-06,1.45587e-05,-1.21894e-05,1.53314e-05,6.17493e-06,0
-3.50318e-05,1.65309e-05,-7.60206e-06,-4.5774e-06,1.28368e-05,-1.02543e-05,1.86885e-05,7.26537e-06,0
-3.3952e-05,1.68732e-05,-6.79614e-06,-5.02429e-06,1.21847e-05,-7.99406e-06,1.86749e-05,7.83967e-06,0
-3.35289e-05,1.71759e-05,-1.0624e-05,-4.35117e-06,1.358e-05,-7.29331e-06,1.74381e-05,6.58404e-06,0
-3.39584e-05,1.70271e-05,-1.55345e-05,-4.49956e-06,1.64196e-05,-7.20542e-06,1.74897e-05,4.42278e-06,0
-3.43466e-05,1.51544e-05,-1.73728e-05,-3.08833e-06,1.9524e-05,-6.7144e-06,1.80915e-05,3.53945e-06,0
-3.39564e-05,1.26234e-05,-1.61051e-05,-9.21204e-07,2.21535e-05,-5.99702e-06,1.75295e-05,3.63992e-06,0
-3.29237e-05,1.06693e-05,-1.29123e-05,-4.74739e-07,2.33936e-05,-5.07515e-06,1.59195e-05,4.08662e-06,0
-3.11511e-05,7.85319e-06,-9.25299e-06,-9.11741e-07,2.23575e-05,-5.22922e-06,1.37882e-05,2.83262e-06,0
-3.01254e-05,2.68574e-06,-6.13746e-06,-1.36062e-06,1.83116e-05,-7.28921e-06,1.14916e-05,-3.21765e-07,0
-3.11677e-05,-1.64831e-06,-2.09721e-06,-1.03468e-06,1.41071e-05,-8.95436e-06,1.00083e-05,-1.99427e-06,0
-3.19779e-05,-4.21638e-06,4.15386e-06,8.18044e-07,1.13192e-05,-8.99294e-06,1.01145e-05,-2.30272e-06,0
-3.09004e-05,-3.83298e-06,1.17612e-05,4.19068e-06,8.74999e-06,-1.02971e-05,1.05703e-05,-1.4673e-06,0
-2.93457e-05,-2.03738e-06,2.2423e-05,6.40345e-06,6.96099e-06,-1.12561e-05,1.1353e-05,-1.36374e-06,0
-2.81848e-05,-2.06112e-06,3.61921e-05,3.22239e-06,6.37455e-06,-1.04545e-05,1.05736e-05,-2.25387e-06,0
-2.84813e-05,-4.21827e-06,5.0751e-05,-2.0455e-06,8.29661e-06,-1.02976e-05,9.39092e-06,-4.477e-07,0
-3.05644e-05,-7.39174e-06,6.1715e-05,-4.81687e-06,9.27316e-06,-1.14657e-05,1.0929e-05,-7.45988e-09,0
-3.31501e-05,-8.52347e-06,6.03756e-05,-4.65614e-06,6.78508e-06,-1.15843e-05,1.34269e-05,-1.89345e-06,0
-3.41661e-05,-8.71992e-06,4.27126e-05,-4.10063e-06,4.14813e-06,-9.49866e-06,1.36284e-05,-2.94226e-06,0
-3.37322e-05,-8.08383e-06,1.00292e-05,-3.87335e-06,3.71639e-06,-7.43918e-06,1.14394e-05,-2.06449e-06,0
-3.23832e-05,-5.44863e-06,-3.16532e-05,-8.46667e-06,4.16558e-06,-7.03348e-06,1.01679e-05,3.16994e-07,0
-2.9948e-05,-2.69844e-06,-7.12398e-05,-2.26064e-05,4.08643e-06,-7.87757e-06,1.23496e-05,2.11282e-06,0
-2.77784e-05,-5.90569e-07,-9.79645e-05,-3.77136e-05,5.49576e-06,-7.22496e-06,1.53133e-05,3.62335e-06,0
-2.70219e-05,1.63098e-06,-0.000107059,-4.30417e-05,1.0879e-05,-4.53682e-06,1.51794e-05,5.26364e-06,0
-2.73822e-05,4.52934e-06,-0.000100878,-4.0113e-05,1.89608e-05,-1.8101e-06,1.21264e-05,6.5281e-06,0
-2.79124e-05,7.2053e-06,-8.55027e-05,-4.17773e-05,2.51399e-05,-9.21169e-07,8.5965e-06,6.11543e-06,0
-2.81649e-05,9.25632e-06,-6.86848e-05,-5.05854e-05,2.67915e-05,-1.59918e-06,6.91797e-06,4.87747e-06,0
-2.81739e-05,1.15882e-05,-5.31723e-05,-5.47034e-05,2.6089e-05,-3.46863e-06,6.799e-06,4.09361e-06,0
-2.80634e-05,1.49051e-05,-3.96778e-05,-4.38725e-05,2.55595e-05,-6.23801e-06,7.72033e-06,3.41072e-06,0
-2.82023e-05,1.85329e-05,-2.7213e-05,-2.14391e-05,2.22104e-05,-9.32161e-06,9.36853e-06,1.3945e-06,0
-2.79954e-05,2.06527e-05,-1.53691e-05,6.27457e-07,1.50123e-05,-1.09332e-05,1.1883e-05,-2.4361e-06,0
-2.71463e-05,2.08017e-05,-7.19584e-06,1.11319e-05,8.15464e-06,-1.03522e-05,1.23162e-05,-5.9694e-06,0
-2.5611e-05,1.96511e-05,-2.67598e-06,7.92748e-06,5.28833e-06,-8.83118e-06,9.00661e-06,-5.8327e-06,0
-2.33579e-05,1.79021e-05,7.11359e-07,2.71857e-06,5.53965e-06,-6.79964e-06,7.48038e-06,-3.11358e-06,0
-2.19548e-05,1.7281e-05,1.77128e-06,9.33363e-06,7.97425e-06,-6.53112e-06,1.62913e-05,-2.33684e-06,0
-2.20886e-05,1.78924e-05,3.46378e-07,2.9481e-05,1.08472e-05,-6.94184e-06,3.46022e-05,-3.04032e-06,0
-2.41357e-05,1.75718e-05,-7.57388e-07,5.27614e-05,1.23333e-05,-6.02477e-06,5.14251e-05,-4.84313e-06,0
-2.53993e-05,1.7659e-05,-9.07168e-07,6.29991e-05,1.41275e-05,-5.45241e-06,5.90896e-05,-6.97494e-06,0
-2.39336e-05,1.85831e-05,5.82684e-07,5.44016e-05,1.85055e-05,-5.58765e-06,5.91118e-05,-8.61897e-06,0
-2.29282e-05,1.7354e-05,1.83414e-06,3.7259e-05,2.00391e-05,-7.24081e-06,5.45436e-05,-8.58594e-06,0
-2.55994e-05,1.63143e-05,6.83839e-07,2.17315e-05,1.67719e-05,-8.88478e-06,4.43358e-05,-6.95713e-06,0
-2.81731e-05,1.79243e-05,-9.29038e-07,1.38612e-05,1.34526e-05,-9.81939e-06,3.08628e-05,-6.41975e-06,0
-2.7371e-05,1.95628e-05,-1.67227e-06,1.21667e-05,1.07942e-05,-1.00521e-05,1.73551e-05,-5.78125e-06,0
-2.72742e-05,1.99406e-05,-2.11068e-06,9.30833e-06,1.09602e-05,-8.91349e-06,5.42127e-06,-5.81686e-06,0
-2.95509e-05,1.88872e-05,-2.17872e-06,4.20366e-07,1.22884e-05,-8.73745e-06,-3.16182e-06,-5.79882e-06,0
-3.18005e-05,1.73969e-05,-2.7912e-06,-1.12314e-05,1.33992e-05,-1.12747e-05,-7.67952e-06,-5.55526e-06,0
-3.24011e-05,1.62509e-05,-3.63575e-06,-1.97545e-05,1.46731e-05,-1.44974e-05,-7.31208e-06,-5.48478e-06,0
-3.20245e-05,1.50259e-05,-3.48062e-06,-2.19122e-05,1.4486e-05,-1.52351e-05,-3.2408e-06,-5.4097e-06,0
-3.1188e-05,1.33599e-05,-1.11107e-06,-1.94247e-05,1.28317e-05,-1.42512e-05,8.82331e-07,-5.59623e-06,0
-3.05429e-05,1.30597e-05,2.06282e-06,-2.21611e-05,1.22502e-05,-1.23317e-05,3.83669e-06,-4.43345e-06,0
-3.05383e-05,1.45393e-05,3.75986e-06,-3.34626e-05,1.20529e-05,-1.14002e-05,7.49847e-06,-2.16284e-06,0
-3.08525e-05,1.58617e-05,4.4159e-06,-4.47666e-05,1.05713e-05,-1.25034e-05,1.40525e-05,6.08294e-08,0
-3.16462e-05,1.62404e-05,3.39623e-06,-4.52755e-05,8.55859e-06,-1.3931e-05,2.36148e-05,1.68916e-06,0
-3.2948e-05,1.70033e-05,1.86932e-06,-3.56818e-05,7.74588e-06,-1.4345e-05,3.33299e-05,2.90496e-06,0
-3.32833e-05,1.92828e-05,9.52203e-07,-2.47464e-05,9.08729e-06,-1.45777e-05,3.86319e-05,3.19001e-06,0
-3.2063e-05,2.11167e-05,2.78171e-07,-1.95876e-05,1.07897e-05,-1.54436e-05,3.69668e-05,3.54828e-06,0
-3.1213e-05,2.2324e-05,-6.20134e-07,-2.08023e-05,1.19601e-05,-1.65561e-05,3.02347e-05,3.70594e-06,0
-3.17806e-05,2.32936e-05,-1.82081e-06,-2.21093e-05,1.30941e-05,-1.62552e-05,2.19371e-05,3.55876e-06,0
-3.26064e-05,2.35842e-05,-3.10714e-06,-2.02076e-05,1.38434e-05,-1.39598e-05,1.44187e-05,3.28026e-06,0
-3.21368e-05,2.37314e-05,-3.61271e-06,-1.67859e-05,1.26829e-05,-1.19964e-05,6.96251e-06,3.50581e-06,0
-3.03904e-05,2.44598e-05,-2.66832e-06,-1.20936e-05,1.11871e-05,-1.10869e-05,-7.61503e-07,4.15034e-06,0
-2.85434e-05,2.53279e-05,-2.60188e-06,-3.10493e-06,1.20355e-05,-1.08644e-05,-7.31496e-06,2.54528e-06,0
-2.75443e-05,2.61235e-05,-4.19474e-06,8.97731e-06,1.48505e-05,-1.05317e-05,-1.22558e-05,2.40735e-07,0
-2.73468e-05,2.72158e-05,-5.56849e-06,1.83844e-05,1.782e-05,-9.65966e-06,-1.67354e-05,1.22815e-07,0
-2.72216e-05,2.80664e-05,-5.36748e-06,2.0629e-05,2.04526e-05,-9.19363e-06,-2.12945e-05,5.07609e-07,0
-2.79867e-05,2.60954e-05,-4.66663e-06,1.70748e-05,2.10798e-05,-8.71568e-06,-2.11284e-05,-8.71283e-07,0
-3.00793e-05,2.44216e-05,-3.92998e-06,1.23961e-05,2.01087e-05,-8.43676e-06,-1.51228e-05,-3.51844e-06,0
-3.13042e-05,2.3984e-05,-2.66079e-06,8.39978e-06,1.92732e-05,-9.54169e-06,-7.31626e-06,-4.29826e-06,0
-3.11386e-05,2.31116e-05,-2.60123e-06,3.55634e-06,1.96888e-05,-1.01738e-05,-1.18426e-06,-3.599e-06,0
-2.96224e-05,2.44182e-05,-4.25617e-06,1.29562e-07,2.04622e-05,-9.99929e-06,2.81863e-06,-3.07645e-06,0
-2.86416e-05,2.58331e-05,-7.0357e-06,-2.4553e-06,1.83007e-05,-8.98804e-06,2.65844e-06,-3.43859e-06,0
-2.96584e-05,2.38775e-05,-8.66786e-06,-4.83452e-07,1.621e-05,-8.56541e-06,-8.05464e-06,-5.50274e-06,0
-3.0572e-05,1.90603e-05,-8.44761e-06,1.06468e-05,1.6934e-05,-1.0139e-05,-2.53392e-05,-6.56855e-06,0
-3.02421e-05,1.64176e-05,-8.4151e-06,2.17275e-05,1.69167e-05,-1.15467e-05,-3.96186e-05,-6.50865e-06,0
-2.84476e-05,1.62413e-05,-8.2088e-06,2.42707e-05,1.44527e-05,-1.11933e-05,-4.36826e-05,-5.64418e-06,0
-2.68117e-05,1.68719e-05,-7.1706e-06,1.82631e-05,1.21729e-05,-9.3147e-06,-3.42475e-05,-2.66486e-06,0
-2.6907e-05,1.73238e-05,-6.77371e-06,9.78117e-06,1.20788e-05,-6.91367e-06,-1.46156e-05,3.80783e-07,0
-2.81675e-05,1.63426e-05,-7.98293e-06,2.16916e-06,1.1989e-05,-5.21243e-06,9.00943e-06,6.11572e-07,0
-2.78473e-05,1.41032e-05,-8.40604e-06,-5.08808e-06,1.01744e-05,-5.52143e-06,3.02753e-05,-1.04274e-06,0
-2.61173e-05,1.2356e-05,-6.80292e-06,-1.12013e-05,7.51619e-06,-6.67729e-06,4.49239e-05,-2.76162e-06,0
-2.55055e-05,1.26235e-05,-5.61256e-06,-1.44986e-05,4.73401e-06,-7.03865e-06,5.24071e-05,-2.5885e-06,0
-2.6795e-05,1.34381e-05,-6.13783e-06,-1.64709e-05,2.90448e-06,-7.28825e-06,5.54666e-05,-1.13351e-07,0
-2.85117e-05,1.41396e-05,-7.14493e-06,-2.0669e-05,1.73537e-06,-8.6474e-06,5.63134e-05,3.38142e-06,0
-2.83839e-05,1.42366e-05,-7.4334e-06,-2.86933e-05,5.75173e-07,-9.66885e-06,5.46832e-05,5.21194e-06,0
-2.70204e-05,1.32307e-05,-7.2751e-06,-3.62096e-05,-3.03193e-07,-9.99041e-06,5.09832e-05,5.67797e-06,0
-2.57694e-05,1.23469e-05,-8.47092e-06,-3.69131e-05,-1.48365e-06,-1.06394e-05,4.689e-05,7.55187e-06,0
-2.60675e-05,1.30396e-05,-1.17467e-05,-3.08615e-05,-3.35517e-06,-1.15987e-05,4.31925e-05,8.97581e-06,0
-2.85019e-05,1.24633e-05,-1.59762e-05,-2.29017e-05,-4.59584e-06,-1.21867e-05,4.07163e-05,6.71468e-06,0
-3.16967e-05,9.83672e-06,-1.76116e-05,-1.69878e-05,-4.61395e-06,-1.19266e-05,3.95051e-05,3.30962e-06,0
-3.35792e-05,8.6148e-06,-1.66387e-05,-1.42648e-05,-4.45401e-06,-1.27557e-05,3.91058e-05,3.00485e-06,0
-3.41252e-05,9.5462e-06,-1.63468e-05,-1.34625e-05,-4.26294e-06,-1.46185e-05,3.64568e-05,3.75979e-06,0
-3.34384e-05,1.10765e-05,-1.71251e-05,-1.29532e-05,-1.91836e-06,-1.48949e-05,3.14772e-05,3.19704e-06,0
-3.239e-05,1.41137e-05,-1.82368e-05,-1.31739e-05,1.82833e-06,-1.37148e-05,2.55114e-05,8.31116e-07,0
-3.21304e-05,1.68396e-05,-1.63729e-05,-1.20132e-05,4.3069e-06,-1.19196e-05,2.08475e-05,5.01985e-07,0
-3.1893e-05,1.7088e-05,-1.29866e-05,-1.02867e-05,5.1377e-06,-1.06259e-05,2.01108e-05,2.86624e-06,0
-3.10463e-05,1.82243e-05,-1.20128e-05,-1.07777e-05,6.41842e-06,-1.03598e-05,1.98053e-05,4.49714e-06,0
-2.94225e-05,2.20546e-05,-1.07525e-05,-1.06007e-05,8.70151e-06,-1.06491e-05,1.82978e-05,5.2087e-06,0
-3.00811e-05,2.45561e-05,-8.73432e-06,-8.53703e-06,1.16523e-05,-1.05697e-05,1.48569e-05,4.1545e-06,0
-3.2624e-05,2.22996e-05,-8.39594e-06,-5.22464e-06,1.37414e-05,-9.78616e-06,1.21937e-05,4.01722e-06,0
-3.30309e-05,1.78521e-05,-9.12349e-06,6.83886e-07,1.37309e-05,-8.78124e-06,1.08736e-05,5.30816e-06,0
-3.18952e-05,1.34476e-05,-9.02342e-06,7.61401e-06,1.41142e-05,-6.091e-06,8.6852e-06,5.39343e-06,0
-3.15524e-05,9.48805e-06,-8.04902e-06,1.04135e-05,1.50707e-05,-4.34932e-06,5.76042e-06,4.3795e-06,0
-3.1838e-05,5.81249e-06,-7.88687e-06,9.92773e-06,1.71296e-05,-5.17719e-06,-1.48395e-06,3.03599e-06,0
-3.2439e-05,4.2745e-06,-7.60013e-06,7.63154e-06,1.87249e-05,-6.95779e-06,-1.59127e-05,3.34051e-06,0
-3.24889e-05,4.51464e-06,-6.69769e-06,4.12399e-06,1.8435e-05,-8.27035e-06,-2.88337e-05,4.58663e-06,0
-3.09934e-05,4.2085e-06,-5.99953e-06,1.97764e-06,1.69369e-05,-8.5871e-06,-2.96676e-05,3.75312e-06,0
-3.00122e-05,3.07368e-06,-4.15634e-06,9.13251e-07,1.58081e-05,-7.60723e-06,-1.83624e-05,6.09143e-07,0
-3.00404e-05,2.0051e-06,-1.23607e-06,-7.63421e-07,1.47794e-05,-5.93624e-06,-1.1836e-06,-1.92837e-06,0
-3.06515e-05,8.0938e-07,2.19118e-06,-4.2288e-06,1.25457e-05,-4.77306e-06,1.49983e-05,-1.97431e-06,0
-3.12906e-05,1.80218e-07,4.85679e-06,-9.13683e-06,1.08258e-05,-4.17008e-06,2.774e-05,-6.08553e-07,0
-3.16466e-05,1.85596e-06,5.48795e-06,-1.61237e-05,1.08789e-05,-3.74988e-06,3.61192e-05,2.11939e-07,0
-3.17902e-05,4.48451e-06,4.33108e-06,-2.33216e-05,1.22239e-05,-2.77122e-06,4.08099e-05,4.4536e-07,0
-3.14903e-05,5.65369e-06,3.20131e-06,-2.64313e-05,1.18665e-05,-1.2446e-06,4.21928e-05,1.01835e-06,0
-3.08912e-05,4.96579e-06,3.24273e-06,-2.36851e-05,8.85495e-06,6.77585e-07,4.01002e-05,2.0768e-06,0
-3.00847e-05,4.18333e-06,3.38945e-06,-1.7551e-05,6.91779e-06,1.55025e-06,3.50714e-05,3.62543e-06,0
-2.97231e-05,5.17796e-06,2.70306e-06,-9.99316e-06,7.90108e-06,6.6389e-07,2.84328e-05,4.74817e-06,0
-3.00458e-05,8.24939e-06,7.09671e-07,-1.462e-06,1.20552e-05,-8.57457e-08,2.19283e-05,3.48845e-06,0
-3.0289e-05,9.54882e-06,-1.1871e-06,9.21669e-06,1.97246e-05,1.63137e-06,1.76261e-05,1.49465e-06,0
-2.9407e-05,8.83413e-06,-2.95455e-06,1.99868e-05,2.71838e-05,2.17519e-06,1.43476e-05,7.74996e-07,0
-2.87761e-05,7.41666e-06,-8.29669e-06,2.5175e-05,3.18232e-05,-7.1613e-07,1.05871e-05,-5.01581e-07,0
-3.01225e-05,6.13221e-06,-1.37984e-05,2.2324e-05,3.14678e-05,-4.17082e-06,6.27461e-06,-1.46975e-06,0
-3.15524e-05,7.9141e-06,-1.40472e-05,1.6611e-05,2.58155e-05,-5.72032e-06,1.82824e-06,-6.24906e-07,0
-3.15146e-05,9.6188e-06,-1.18978e-05,1.09321e-05,1.91998e-05,-4.67892e-06,4.81234e-07,2.11576e-06,0
-2.92329e-05,8.26211e-06,-9.97934e-06,2.56419e-06,1.46456e-05,-3.07013e-06,5.93845e-07,4.03022e-06,0
-2.76636e-05,6.37538e-06,-1.07493e-05,-7.24378e-06,1.17283e-05,-3.08726e-06,-1.0138e-06,2.79766e-06,0
-2.93301e-05,5.2623e-06,-1.37187e-05,-1.77934e-05,8.98703e-06,-4.28344e-06,-3.19728e-06,-2.82633e-07,0
-3.17253e-05,5.15087e-06,-1.6513e-05,-2.39142e-05,5.49016e-06,-5.76671e-06,-4.21692e-06,-3.103e-06,0
-3.35203e-05,2.78876e-06,-1.79965e-05,-2.53572e-05,1.59116e-06,-7.87015e-06,-3.1052e-06,-3.77397e-06,0
-3.38766e-05,-1.28096e-06,-1.85726e-05,-2.90011e-05,-3.20757e-06,-1.14517e-05,-1.16807e-06,-2.85465e-06,0
-3.41812e-05,-3.45723e-06,-1.75178e-05,-3.83019e-05,-7.63235e-06,-1.51504e-05,-4.87587e-09,-1.02346e-06,0
-3.42518e-05,-3.40267e-06,-1.51638e-05,-4.60602e-05,-1.04507e-05,-1.77683e-05,3.79567e-07,-3.78945e-07,0
-3.33006e-05,-2.27739e-06,-1.35094e-05,-4.71102e-05,-1.17718e-05,-1.90556e-05,-1.54005e-08,-1.63034e-06,0
-3.17023e-05,-1.86287e-06,-1.26039e-05,-4.37291e-05,-9.61308e-06,-1.94123e-05,1.3647e-07,-2.28058e-06,0
-3.08487e-05,-2.36342e-06,-1.30882e-05,-3.80732e-05,-3.75225e-06,-1.99975e-05,1.27236e-06,-1.25154e-06,0
-3.20804e-05,-2.37087e-06,-1.57528e-05,-3.14149e-05,1.84183e-06,-2.07295e-05,3.63484e-06,-2.09387e-07,0
-3.44668e-05,-4.46508e-07,-1.99996e-05,-2.15184e-05,4.15514e-06,-2.10552e-05,7.01618e-06,-9.06674e-07,0
-3.55583e-05,1.90884e-06,-2.38032e-05,-7.57526e-06,4.95448e-06,-2.05525e-05,1.05183e-05,-2.52425e-06,0
-3.43645e-05,4.57779e-06,-2.63437e-05,1.15048e-05,6.65017e-06,-2.01621e-05,1.23421e-05,-4.30298e-06,0
-3.30519e-05,6.94325e-06,-2.62874e-05,3.34499e-05,1.3425e-05,-1.80192e-05,1.23702e-05,-4.42465e-06,0
-3.24187e-05,7.37344e-06,-2.34919e-05,5.17979e-05,2.59516e-05,-1.35776e-05,1.27816e-05,-1.38382e-06,0
-3.12426e-05,5.84303e-06,-1.97293e-05,6.13064e-05,3.73383e-05,-9.15784e-06,1.37185e-05,3.44285e-06,0
-2.93872e-05,4.93198e-06,-1.59999e-05,6.13603e-05,4.04415e-05,-8.40399e-06,1.38258e-05,6.50569e-06,0
-2.74567e-05,5.25834e-06,-1.18846e-05,5.21768e-05,3.62049e-05,-1.19213e-05,1.2908e-05,5.84518e-06,0
-2.70547e-05,4.94652e-06,-7.37067e-06,4.13701e-05,3.26567e-05,-1.41638e-05,1.21029e-05,4.26881e-06,0
-2.8093e-05,4.56729e-06,-3.64645e-06,3.72422e-05,3.46639e-05,-1.26813e-05,1.17579e-05,3.95225e-06,0
-2.8286e-05,5.54215e-06,-2.82067e-06,3.57853e-05,3.9432e-05,-1.07229e-05,1.17446e-05,3.64166e-06,0
-2.81497e-05,6.38998e-06,-2.88841e-06,2.85705e-05,4.18643e-05,-9.91083e-06,1.35283e-05,1.5279e-07,0
-2.71552e-05,5.05042e-06,-2.29078e-06,1.58484e-05,4.09565e-05,-1.14722e-05,1.54396e-05,-3.9262e-06,0
-2.60588e-05,2.83815e-06,-2.63353e-06,7.3781e-07,4.06804e-05,-1.44813e-05,1.45082e-05,-3.90479e-06,0
-2.43181e-05,3.75049e-06,-4.4291e-06,-1.13752e-05,4.08793e-05,-1.67859e-05,1.28181e-05,-2.58307e-06,0
-2.16787e-05,7.21772e-06,-5.12517e-06,-1.43775e-05,3.873e-05,-1.84828e-05,1.24255e-05,-2.42922e-06,0
-2.12922e-05,9.19276e-06,-4.15233e-06,-1.41996e-05,3.49334e-05,-1.84988e-05,1.26879e-05,-4.00816e-06,0
-2.30831e-05,8.53052e-06,-3.63442e-06,-1.98764e-05,3.06688e-05,-1.83313e-05,1.28371e-05,-5.07132e-06,0
-2.46171e-05,6.73061e-06,-3.6059e-06,-2.74281e-05,2.60948e-05,-1.82267e-05,1.38843e-05,-4.83244e-06,0
-2.55168e-05,6.70065e-06,-3.72425e-06,-2.70056e-05,2.22451e-05,-1.76862e-05,1.47662e-05,-5.99442e-06,0
-2.69539e-05,8.27041e-06,-3.20795e-06,-2.13576e-05,2.00405e-05,-1.82139e-05,1.47583e-05,-6.48011e-06,0
-2.8796e-05,9.71289e-06,-2.93475e-06,-1.61006e-05,2.02921e-05,-1.95866e-05,1.43229e-05,-5.81536e-06,0
-2.91994e-05,1.06224e-05,-3.51144e-06,-1.42581e-05,2.26173e-05,-2.07546e-05,1.56479e-05,-5.72425e-06,0
-2.91814e-05,1.30912e-05,-3.58537e-06,-1.47381e-05,2.35723e-05,-2.06639e-05,2.01259e-05,-5.70877e-06,0
-2.97473e-05,1.72456e-05,-1.94693e-06,-1.42619e-05,2.20827e-05,-2.06682e-05,2.51118e-05,-5.8337e-06,0
-3.05048e-05,2.08471e-05,-1.6925e-08,-1.1597e-05,1.90759e-05,-2.09435e-05,2.7198e-05,-5.53475e-06,0
-3.16794e-05,2.27969e-05,7.1856e-07,-8.64231e-06,1.57843e-05,-1.95669e-05,2.69341e-05,-3.86002e-06,0
-3.27552e-05,2.41253e-05,4.04518e-07,-6.72182e-06,1.15747e-05,-1.706e-05,2.57301e-05,-2.48839e-06,0
-3.25714e-05,2.50904e-05,5.78372e-07,-4.85628e-06,6.60359e-06,-1.57211e-05,2.30706e-05,-2.79248e-06,0
-3.07773e-05,2.47737e-05,1.69722e-06,-3.18271e-06,3.22213e-06,-1.56462e-05,2.01555e-05,-3.86801e-06,0
-2.90215e-05,2.40497e-05,2.10728e-06,-2.57085e-06,3.61217e-06,-1.42629e-05,1.78583e-05,-4.15919e-06,0
-2.76439e-05,2.42446e-05,2.12194e-07,-2.1002e-06,5.80949e-06,-1.15626e-05,1.60656e-05,-4.35017e-06,0
-2.7918e-05,2.54908e-05,-3.09906e-06,-1.22316e-07,6.87435e-06,-9.85837e-06,1.4229e-05,-6.0428e-06,0
-2.93006e-05,2.68937e-05,-5.33126e-06,1.16162e-06,5.72812e-06,-9.18713e-06,1.20188e-05,-6.64285e-06,0
-2.97084e-05,2.86907e-05,-4.83798e-06,2.11271e-06,3.43982e-06,-6.68845e-06,9.26518e-06,-6.13572e-06,0
-2.9333e-05,3.11086e-05,-3.18538e-06,3.75194e-06,2.92037e-06,-2.85373e-06,7.83622e-06,-6.4181e-06,0
-3.01571e-05,3.23812e-05,-2.27202e-06,4.49742e-06,2.45515e-06,-1.07756e-06,7.04501e-06,-7.72128e-06,0
-3.01149e-05,3.01763e-05,-2.25745e-06,5.44778e-06,-1.12623e-07,-2.14074e-06,5.41378e-06,-9.80453e-06,0
-2.8594e-05,2.68757e-05,-3.79085e-06,5.50396e-06,-1.36487e-06,-2.65562e-06,4.48852e-06,-9.99177e-06,0
-2.88782e-05,2.38995e-05,-6.19323e-06,1.67721e-06,1.07872e-06,-2.14545e-06,3.1153e-06,-8.63966e-06,0
-3.01616e-05,2.08514e-05,-8.63703e-06,-2.54785e-06,4.29534e-06,-1.33466e-06,1.78156e-06,-5.85222e-06,0
-3.04582e-05,2.02557e-05,-1.08019e-05,-4.60894e-06,6.05023e-06,5.01592e-07,3.89267e-06,-2.47881e-06,0
-2.90393e-05,2.22412e-05,-1.11313e-05,-5.12997e-06,8.29368e-06,9.14045e-07,1.0233e-05,3.56113e-08,0
-2.78416e-05,2.43139e-05,-1.25653e-05,-5.653e-06,1.12043e-05,-1.00703e-06,1.7465e-05,5.95258e-07,0
-2.7942e-05,2.33905e-05,-1.79649e-05,-7.42335e-06,1.16333e-05,-3.72454e-06,1.96924e-05,-1.40641e-06,0
-2.80305e-05,1.97735e-05,-2.12077e-05,-9.15621e-06,1.20709e-05,-5.40754e-06,1.81147e-05,-1.84766e-06,0
-2.83176e-05,1.63397e-05,-2.09999e-05,-8.59973e-06,1.35558e-05,-7.05449e-06,1.55841e-05,-6.4462e-07,0
-2.92006e-05,1.4333e-05,-2.01121e-05,-7.43916e-06,1.39232e-05,-9.15858e-06,1.34415e-05,5.53591e-07,0
-3.02453e-05,1.33933e-05,-1.76079e-05,-6.48994e-06,1.35659e-05,-1.02535e-05,1.15502e-05,2.00316e-06,0
-3.08905e-05,1.29424e-05,-1.42671e-05,-4.00915e-06,1.41742e-05,-9.68241e-06,1.05134e-05,2.92707e-06,0
-3.16525e-05,1.2053e-05,-1.31343e-05,-2.37063e-06,1.47122e-05,-8.56615e-06,1.16982e-05,3.19445e-06,0
-3.2969e-05,1.10533e-05,-1.35998e-05,-3.88854e-06,1.42959e-05,-7.96305e-06,1.26531e-05,3.11664e-06,0
-3.37815e-05,1.00706e-05,-1.34599e-05,-5.68684e-06,1.36381e-05,-6.7532e-06,1.01827e-05,3.54873e-06,0
-3.39203e-05,9.11804e-06,-1.32119e-05,-4.39808e-06,1.26512e-05,-5.23261e-06,4.44308e-06,4.8784e-06,0
-3.36704e-05,8.68425e-06,-1.25306e-05,-2.73402e-06,1.17569e-05,-4.91087e-06,-4.51291e-07,5.84453e-06,0
-3.30247e-05,8.04212e-06,-1.07421e-05,-2.38781e-06,1.10206e-05,-6.51724e-06,-3.1259e-06,5.49582e-06,0
-3.20923e-05,7.44521e-06,-9.16222e-06,-1.83225e-06,1.07294e-05,-8.88122e-06,-3.18402e-06,4.41095e-06,0
-3.1334e-05,7.18231e-06,-9.93429e-06,4.97051e-07,1.09117e-05,-9.33199e-06,-5.03427e-07,3.90121e-06,0
-3.14557e-05,8.14031e-06,-1.15034e-05,2.40922e-06,1.13533e-05,-6.10219e-06,5.0282e-06,4.11941e-06,0
-3.19296e-05,1.077e-05,-1.11601e-05,4.69238e-08,1.16405e-05,-2.94598e-06,1.29755e-05,4.79845e-06,0
-3.1269e-05,1.29469e-05,-8.66255e-06,-7.2202e-06,1.2531e-05,-2.92897e-06,2.19036e-05,6.30631e-06,0
-3.02634e-05,1.27698e-05,-5.84141e-06,-1.67979e-05,1.44661e-05,-3.7571e-06,2.96558e-05,8.25323e-06,0
-3.09292e-05,1.30165e-05,-5.20383e-06,-2.63347e-05,1.77337e-05,-3.51547e-06,3.41738e-05,1.14188e-05,0
-3.20179e-05,1.41039e-05,-6.17348e-06,-3.4517e-05,2.0316e-05,-2.3356e-06,3.33542e-05,1.44824e-05,0
-3.12041e-05,1.43954e-05,-6.83749e-06,-3.67291e-05,2.0456e-05,-7.21593e-07,2.86654e-05,1.44087e-05,0
-3.05149e-05,1.46022e-05,-5.82321e-06,-3.16719e-05,1.85572e-05,-1.83256e-06,2.37016e-05,1.19616e-05,0
-3.0842e-05,1.4605e-05,-4.3922e-06,-2.47199e-05,1.7685e-05,-5.26046e-06,2.11783e-05,8.91272e-06,0
-3.15358e-05,1.3714e-05,-3.74587e-06,-1.89508e-05,1.8025e-05,-5.15014e-06,1.96523e-05,7.62034e-06,0
-3.24227e-05,1.04921e-05,-3.41555e-06,-1.6134e-05,1.68015e-05,-2.7388e-06,1.85285e-05,6.6066e-06,0
-3.33969e-05,7.38451e-06,-4.06939e-06,-1.74089e-05,1.57506e-05,-1.68644e-06,1.87422e-05,6.26865e-06,0
-3.42855e-05,5.19757e-06,-4.655e-06,-1.84445e-05,1.51722e-05,-2.0713e-06,2.09061e-05,7.722e-06,0
-3.39615e-05,3.30954e-06,-5.9688e-06,-1.57289e-05,1.38136e-05,-2.61298e-06,2.23825e-05,7.0948e-06,0
-3.20847e-05,2.36781e-06,-8.2701e-06,-8.8538e-06,1.2979e-05,-2.7889e-06,1.96131e-05,5.01899e-06,0
-3.04324e-05,8.72641e-07,-8.53815e-06,1.11102e-07,1.29673e-05,-2.75159e-06,1.54322e-05,4.33014e-06,0
-3.09145e-05,-2.10941e-07,-6.67917e-06,6.2582e-06,1.30721e-05,-3.24031e-06,1.25208e-05,5.50389e-06,0
-3.19888e-05,7.5939e-08,-5.70721e-06,9.94191e-06,1.5795e-05,-3.71413e-06,1.29407e-05,5.62566e-06,0
-3.32359e-05,1.85817e-06,-5.70028e-06,1.23475e-05,2.04045e-05,-3.68433e-06,1.4066e-05,4.3427e-06,0
-3.38328e-05,3.15878e-06,-6.62746e-06,9.7888e-06,2.15865e-05,-3.5406e-06,1.44656e-05,3.48384e-06,0
-3.33051e-05,4.07903e-06,-7.8528e-06,4.46367e-06,1.76964e-05,-3.36226e-06,1.42678e-05,3.3146e-06,0
-3.28851e-05,5.13603e-06,-8.45897e-06,2.90103e-07,1.1534e-05,-2.6909e-06,1.37933e-05,3.79699e-06,0
-3.34593e-05,5.14474e-06,-9.15292e-06,-3.63687e-06,5.54991e-06,-1.30368e-06,1.22333e-05,4.5374e-06,0
-3.47297e-05,4.93655e-06,-9.41441e-06,-7.37774e-06,7.30709e-07,-3.37027e-07,1.04462e-05,5.29603e-06,0
-3.52789e-05,6.03083e-06,-8.9833e-06,-7.1104e-06,-3.68363e-06,-3.78452e-07,1.02764e-05,5.43738e-06,0
-3.40505e-05,7.80263e-06,-7.87403e-06,-3.99377e-06,-8.00124e-06,-1.12923e-06,1.08711e-05,5.04163e-06,0
-3.25408e-05,8.66255e-06,-6.76994e-06,-3.47301e-06,-9.8733e-06,-2.1313e-06,1.16996e-05,4.36322e-06,0
-3.21826e-05,9.58006e-06,-6.07583e-06,-6.24536e-06,-8.73578e-06,-4.41178e-06,1.23355e-05,3.66651e-06,0
-3.12436e-05,1.09285e-05,-5.8917e-06,-1.00742e-05,-5.62901e-06,-6.54427e-06,1.15947e-05,3.44555e-06,0
-2.99637e-05,1.19137e-05,-4.47879e-06,-1.21435e-05,-3.31516e-07,-8.33086e-06,8.93918e-06,3.75502e-06,0
-2.90234e-05,1.1855e-05,-3.02105e-06,-1.18286e-05,2.93765e-06,-1.00858e-05,6.57702e-06,3.7126e-06,0
-2.84049e-05,1.24387e-05,-3.73057e-06,-1.02911e-05,1.2619e-06,-9.77552e-06,7.1837e-06,4.08914e-06,0
-2.82943e-05,1.22592e-05,-4.43017e-06,-7.84752e-06,-8.3269e-07,-8.62542e-06,1.04165e-05,3.60218e-06,0
-2.78288e-05,1.0162e-05,-4.31381e-06,-5.08497e-06,4.35353e-08,-8.65679e-06,1.17494e-05,2.41988e-06,0
-2.64953e-05,8.32843e-06,-5.49377e-06,-3.46201e-06,3.43932e-06,-1.05618e-05,9.01317e-06,2.58786e-06,0
-2.59724e-05,7.61205e-06,-6.40829e-06,-3.14045e-06,5.78054e-06,-1.2637e-05,6.97886e-06,2.33958e-06,0
-2.64443e-05,6.5202e-06,-6.8344e-06,-2.47394e-06,6.89121e-06,-1.41816e-05,8.44998e-06,1.72116e-06,0
-2.71518e-05,6.66576e-06,-7.65943e-06,-2.0244e-06,6.40627e-06,-1.45575e-05,9.29728e-06,8.06631e-07,0
-2.76666e-05,8.54462e-06,-6.76709e-06,-4.86361e-06,3.7399e-06,-1.2218e-05,9.65537e-06,4.10035e-07,0
-2.80043e-05,9.80314e-06,-4.3687e-06,-9.04729e-06,3.35221e-06,-1.15637e-05,1.06306e-05,6.70597e-07,0
-2.87921e-05,1.01259e-05,-2.62567e-06,-1.10316e-05,4.67335e-06,-1.36831e-05,1.24735e-05,1.50882e-06,0
-2.94586e-05,7.1726e-06,-3.09176e-06,-3.61089e-06,6.26488e-06,-1.62256e-05,1.1525e-05,2.00855e-06,0
-3.00247e-05,2.83938e-06,-3.95879e-06,1.44037e-05,7.91697e-06,-1.69147e-05,8.08395e-06,1.77418e-06,0
-2.90348e-05,2.5309e-08,-4.37111e-06,2.71346e-05,9.12534e-06,-1.5791e-05,6.78302e-06,2.71034e-06,0
-2.70822e-05,-7.02371e-07,-5.41242e-06,2.40016e-05,1.09746e-05,-1.54779e-05,1.00021e-05,3.7342e-06,0
-2.71081e-05,6.69122e-07,-7.12581e-06,1.34145e-05,1.42328e-05,-1.53458e-05,1.75136e-05,2.87695e-06,0
-2.82402e-05,2.75421e-06,-9.35409e-06,7.32999e-06,1.6919e-05,-1.45898e-05,2.81648e-05,-2.62716e-10,0
-2.85639e-05,4.8592e-06,-1.20378e-05,5.20281e-06,1.7597e-05,-1.44826e-05,3.9101e-05,-2.72393e-06,0
-2.8697e-05,7.16217e-06,-1.34406e-05,-2.4437e-07,1.82422e-05,-1.57982e-05,4.53615e-05,-3.34101e-06,0
-2.94868e-05,9.7302e-06,-1.24361e-05,-1.28028e-05,1.99845e-05,-1.64652e-05,4.76222e-05,-3.19798e-06,0
-2.98109e-05,1.20569e-05,-9.86366e-06,-2.94504e-05,2.23361e-05,-1.59289e-05,4.87731e-05,-3.73876e-06,0
-2.9112e-05,1.31442e-05,-7.30805e-06,-4.40646e-05,2.4113e-05,-1.47805e-05,5.0253e-05,-3.96337e-06,0
-2.83952e-05,1.27291e-05,-6.68163e-06,-5.3011e-05,2.52732e-05,-1.37062e-05,4.80339e-05,-3.04835e-06,0
-2.84636e-05,1.17569e-05,-7.96253e-06,-5.75364e-05,2.51398e-05,-1.27591e-05,4.02511e-05,-5.88178e-07,0
-2.91305e-05,1.04631e-05,-9.88195e-06,-5.77701e-05,2.22254e-05,-1.21965e-05,2.7482e-05,2.64118e-06,0
-3.02193e-05,9.76753e-06,-1.18349e-05,-5.13571e-05,1.90553e-05,-1.23568e-05,1.07592e-05,3.89105e-06,0
-3.0827e-05,1.0624e-05,-1.3463e-05,-3.89299e-05,1.92189e-05,-1.24699e-05,-8.75258e-06,3.24153e-06,0
-3.04693e-05,1.18084e-05,-1.35603e-05,-2.52591e-05,2.10468e-05,-1.23443e-05,-2.94181e-05,2.94321e-06,0
-3.06614e-05,1.2798e-05,-1.23764e-05,-1.64199e-05,2.19726e-05,-1.19886e-05,-4.5639e-05,2.87777e-06,0
-3.09191e-05,1.5559e-05,-1.12123e-05,-1.16668e-05,2.12355e-05,-1.03501e-05,-5.09327e-05,3.92967e-06,0
-2.89255e-05,1.87847e-05,-1.09729e-05,-7.04461e-06,1.91405e-05,-8.50582e-06,-4.6781e-05,6.34497e-06,0
-2.53502e-05,1.98001e-05,-1.0748e-05,-2.04248e-06,1.59357e-05,-8.16744e-06,-3.88032e-05,7.95927e-06,0
-2.34169e-05,1.82304e-05,-8.59892e-06,1.54869e-06,1.27065e-05,-8.26642e-06,-3.13011e-05,7.58138e-06,0
-2.56007e-05,1.61247e-05,-7.24414e-06,3.1064e-06,1.01208e-05,-7.94274e-06,-2.43555e-05,7.27703e-06,0
-2.86765e-05,1.77527e-05,-8.00179e-06,4.17286e-06,9.6002e-06,-7.62235e-06,-1.41742e-05,7.4498e-06,0
-2.86913e-05,2.2138e-05,-8.98877e-06,4.87737e-06,9.03538e-06,-8.00484e-06,-1.44512e-06,7.35368e-06,0
-2.74736e-05,2.42429e-05,-8.72569e-06,5.17156e-06,6.89983e-06,-8.52025e-06,8.77285e-06,7.05953e-06,0
-2.60947e-05,2.44497e-05,-6.89552e-06,6.47808e-06,5.18986e-06,-8.3248e-06,1.27839e-05,7.37733e-06,0
-2.64464e-05,2.58853e-05,-5.53208e-06,8.57811e-06,5.52289e-06,-7.60428e-06,1.12865e-05,8.10337e-06,0
-2.83019e-05,2.7239e-05,-4.33041e-06,9.82519e-06,8.41442e-06,-6.20947e-06,9.42398e-06,8.10868e-06,0
-2.88541e-05,2.67986e-05,-3.44229e-06,9.90477e-06,1.15718e-05,-5.03044e-06,9.69003e-06,8.60148e-06,0
-2.87809e-05,2.42302e-05,-3.48178e-06,9.87013e-06,1.51116e-05,-5.83381e-06,9.50749e-06,9.62606e-06,0
-2.90379e-05,2.16461e-05,-4.3114e-06,1.10893e-05,1.70948e-05,-8.05267e-06,8.60893e-06,9.73211e-06,0
-2.92095e-05,2.02803e-05,-6.15009e-06,1.12325e-05,1.68745e-05,-9.69422e-06,7.85185e-06,9.10182e-06,0
-2.94119e-05,1.91489e-05,-7.47876e-06,9.54991e-06,1.5595e-05,-1.0371e-05,8.41201e-06,8.15492e-06,0
-2.94481e-05,1.79413e-05,-7.63149e-06,8.09854e-06,1.52978e-05,-1.00563e-05,1.04788e-05,6.61665e-06,0
-2.89903e-05,1.67878e-05,-7.11273e-06,7.66032e-06,1.47639e-05,-8.34363e-06,1.49358e-05,5.22253e-06,0
-2.94234e-05,1.52885e-05,-7.32111e-06,7.83719e-06,1.23311e-05,-6.28957e-06,1.9745e-05,4.79964e-06,0
-3.08215e-05,1.22437e-05,-8.67337e-06,7.57058e-06,9.52764e-06,-5.01008e-06,2.08014e-05,4.2662e-06,0
-3.17638e-05,7.56975e-06,-9.56923e-06,6.70399e-06,7.72054e-06,-4.29393e-06,1.73614e-05,3.03306e-06,0
-3.21262e-05,3.73205e-06,-8.90246e-06,5.12111e-06,8.41701e-06,-3.4485e-06,1.33282e-05,2.6009e-06,0
-3.3278e-05,3.05995e-06,-9.25089e-06,4.48275e-06,1.09534e-05,-3.2766e-06,1.20168e-05,3.50613e-06,0
-3.54466e-05,3.76539e-06,-1.34083e-05,4.8939e-06,1.38127e-05,-4.13422e-06,1.303e-05,4.43964e-06,0
-3.78383e-05,3.73463e-06,-1.86657e-05,4.80831e-06,1.52342e-05,-4.54282e-06,1.40054e-05,4.07813e-06,0
-3.85406e-05,2.42174e-06,-2.19829e-05,5.74343e-06,1.59289e-05,-4.14971e-06,1.28263e-05,2.96147e-06,0
-3.74989e-05,9.49029e-07,-2.33282e-05,7.69724e-06,1.64761e-05,-3.87783e-06,1.17271e-05,1.98729e-06,0
-3.70434e-05,6.45402e-07,-2.38409e-05,6.95724e-06,1.53347e-05,-3.63078e-06,1.31615e-05,3.58484e-06,0
-3.68379e-05,3.36454e-06,-2.44244e-05,2.50433e-06,1.28368e-05,-4.77644e-06,1.55789e-05,4.09159e-06,0
-3.58763e-05,7.95248e-06,-2.41624e-05,-4.28402e-06,1.25292e-05,-7.0232e-06,1.63449e-05,1.48248e-06,0
-3.43347e-05,9.93021e-06,-2.25589e-05,-1.13038e-05,1.46437e-05,-8.95189e-06,1.45243e-05,-7.78239e-07,0
-3.30399e-05,1.05908e-05,-2.10557e-05,-1.83185e-05,1.67478e-05,-1.07769e-05,1.15564e-05,-1.49814e-06,0
-3.33541e-05,1.26648e-05,-2.01228e-05,-2.40496e-05,1.78625e-05,-1.34922e-05,8.72919e-06,-3.84697e-07,0
-3.43694e-05,1.42529e-05,-1.9246e-05,-2.35627e-05,1.81855e-05,-1.54712e-05,6.33344e-06,1.41729e-06,0
-3.45959e-05,1.53232e-05,-1.80018e-05,-1.58241e-05,1.78829e-05,-1.38587e-05,8.16294e-06,2.37375e-06,0
-3.38185e-05,1.60895e-05,-1.47997e-05,-8.3335e-06,1.7015e-05,-1.03828e-05,1.28276e-05,1.54775e-06,0
-3.27179e-05,1.68882e-05,-1.13672e-05,-4.9886e-06,1.64731e-05,-7.77847e-06,1.50692e-05,-2.01926e-07,0
-3.30659e-05,1.85125e-05,-1.19626e-05,-9.2362e-07,1.70328e-05,-8.19555e-06,1.55337e-05,7.59935e-08,0
-3.42678e-05,1.97059e-05,-1.35628e-05,7.07924e-06,1.84267e-05,-1.00648e-05,1.54431e-05,2.24067e-06,0
-3.40538e-05,2.06638e-05,-1.27721e-05,1.77778e-05,1.94834e-05,-1.07501e-05,1.61075e-05,3.69058e-06,0
-3.22366e-05,2.36913e-05,-1.14903e-05,2.74506e-05,1.97485e-05,-9.42764e-06,1.77462e-05,4.07432e-06,0
-3.01356e-05,2.67631e-05,-1.04854e-05,3.37768e-05,1.90033e-05,-6.53035e-06,1.97235e-05,3.51978e-06,0
-2.91825e-05,2.58337e-05,-7.87497e-06,3.57972e-05,1.96688e-05,-3.70258e-06,2.26156e-05,2.65121e-06,0
-3.00236e-05,2.21325e-05,-4.5205e-06,3.37593e-05,2.4775e-05,-3.04574e-06,2.49461e-05,1.77473e-06,0
-3.0715e-05,1.83793e-05,-2.106e-06,2.47467e-05,3.21999e-05,-5.16545e-06,2.61342e-05,1.74471e-06,0
-2.98815e-05,1.67866e-05,1.15257e-08,8.50178e-06,3.57026e-05,-7.77361e-06,2.63483e-05,2.06191e-06,0
-2.8593e-05,1.6889e-05,6.22343e-07,-7.98787e-06,3.27833e-05,-8.20234e-06,2.62494e-05,2.3347e-06,0
-2.72922e-05,1.63657e-05,-3.03588e-06,-1.68874e-05,2.61039e-05,-7.39701e-06,2.57703e-05,2.21163e-06,0
-2.64128e-05,1.42527e-05,-9.93312e-06,-1.59605e-05,1.93852e-05,-7.93336e-06,2.49362e-05,2.75091e-06,0
-2.67003e-05,1.26856e-05,-1.47467e-05,-1.02356e-05,1.59514e-05,-8.95677e-06,2.46566e-05,3.85636e-06,0
-2.7607e-05,1.29653e-05,-1.49643e-05,-5.23193e-06,1.64526e-05,-9.11499e-06,2.37323e-05,3.85931e-06,0
-2.83806e-05,1.40975e-05,-1.12035e-05,-1.22712e-06,1.93605e-05,-7.711e-06,1.56485e-05,2.82195e-06,0
-2.88944e-05,1.39307e-05,-6.53882e-06,1.44581e-06,2.02872e-05,-5.60825e-06,-1.57563e-06,8.86398e-07,0
-3.04018e-05,1.27255e-05,-3.99835e-06,-9.93855e-07,1.67195e-05,-4.92648e-06,-1.48901e-05,-1.28864e-06,0
-3.28465e-05,1.20062e-05,-3.95843e-06,-8.61897e-06,1.00708e-05,-5.83273e-06,-1.42004e-05,-2.84614e-06,0
-3.32441e-05,1.18453e-05,-2.89662e-06,-1.80594e-05,5.58603e-06,-7.09964e-06,-3.14648e-06,-3.75221e-06,0
-3.12855e-05,1.14277e-05,1.33637e-06,-2.46207e-05,6.58811e-06,-7.31358e-06,1.27589e-05,-5.86212e-06,0
-2.9809e-05,1.04442e-05,2.78753e-06,-2.32194e-05,8.56977e-06,-6.48287e-06,2.75403e-05,-9.12087e-06,0
-2.94257e-05,8.63132e-06,-1.25796e-07,-1.71524e-05,1.0052e-05,-4.805e-06,3.87496e-05,-9.8068e-06,0
-2.88697e-05,6.68008e-06,-3.91735e-06,-1.39471e-05,1.16628e-05,-3.06621e-06,4.59468e-05,-8.40438e-06,0
-2.72452e-05,6.82688e-06,-4.23516e-06,-1.36821e-05,1.26558e-05,-1.44625e-06,4.59584e-05,-9.38826e-06,0
-2.65351e-05,8.55783e-06,-7.12175e-07,-1.42693e-05,1.1655e-05,-3.18891e-07,4.12855e-05,-1.02957e-05,0
-2.70204e-05,1.16222e-05,1.27722e-06,-1.48554e-05,8.772e-06,-2.45107e-06,3.54695e-05,-8.8572e-06,0
-2.75653e-05,1.25776e-05,9.07795e-07,-1.57794e-05,6.92476e-06,-5.51811e-06,3.06483e-05,-7.14526e-06,0
-2.8332e-05,1.17501e-05,-3.63101e-07,-1.30385e-05,6.71743e-06,-6.39849e-06,2.74532e-05,-7.16866e-06,0
-2.80319e-05,1.19035e-05,-7.60939e-08,-6.28938e-06,7.84036e-06,-6.53139e-06,2.54189e-05,-9.27545e-06,0
-2.74531e-05,1.44849e-05,3.35456e-07,2.52931e-07,9.77928e-06,-7.27572e-06,2.1767e-05,-1.08641e-05,0
-2.67535e-05,1.90061e-05,1.71491e-07,3.10724e-06,1.3639e-05,-7.46051e-06,1.67991e-05,-9.94783e-06,0
-2.58412e-05,2.15802e-05,-9.09105e-07,5.15971e-07,1.72282e-05,-7.76178e-06,1.28185e-05,-7.46841e-06,0
-2.48041e-05,2.13184e-05,-2.09291e-06,-5.33106e-06,1.6704e-05,-8.09522e-06,1.10777e-05,-5.94379e-06,0
-2.50864e-05,2.00322e-05,-1.84006e-06,-1.29633e-05,1.33651e-05,-7.87535e-06,1.11462e-05,-5.53705e-06,0
-2.67892e-05,1.97886e-05,-8.93894e-07,-2.18053e-05,1.07703e-05,-9.18198e-06,1.06898e-05,-5.53646e-06,0
-2.84569e-05,2.00491e-05,-1.28548e-08,-2.9879e-05,9.83775e-06,-1.24319e-05,9.24671e-06,-5.15525e-06,0
-2.91257e-05,1.99175e-05,3.08076e-07,-3.20645e-05,9.03546e-06,-1.48937e-05,7.97731e-06,-3.95838e-06,0
-2.89119e-05,1.89501e-05,7.65452e-07,-2.74029e-05,8.29098e-06,-1.4881e-05,7.13677e-06,-3.31925e-06,0
-2.91157e-05,1.89178e-05,1.03373e-07,-1.85714e-05,9.76622e-06,-1.47249e-05,5.28443e-06,-4.81046e-06,0
-2.94126e-05,2.01728e-05,-1.38284e-06,-9.89845e-06,1.41646e-05,-1.49888e-05,3.8897e-06,-7.1153e-06,0
-2.95243e-05,2.14635e-05,-3.052e-06,-5.86454e-06,1.85893e-05,-1.4692e-05,4.04233e-06,-8.15959e-06,0
-2.87119e-05,2.24418e-05,-4.43585e-06,-5.0338e-06,2.00478e-05,-1.39146e-05,4.58172e-06,-7.43479e-06,0
-2.79469e-05,2.26976e-05,-6.46917e-06,-3.3831e-06,1.78566e-05,-1.36098e-05,2.94925e-06,-5.64514e-06,0
-2.7419e-05,2.26929e-05,-7.54694e-06,-2.40604e-06,1.53968e-05,-1.35243e-05,1.76607e-06,-4.46402e-06,0
-2.7015e-05,2.33306e-05,-7.2481e-06,-2.91804e-06,1.45786e-05,-1.30216e-05,2.82923e-06,-4.24477e-06,0
-2.71756e-05,2.45269e-05,-7.19338e-06,-4.88033e-06,1.49147e-05,-1.26992e-05,2.87654e-06,-3.86102e-06,0
-2.78915e-05,2.31485e-05,-7.7821e-06,-6.28923e-06,1.57839e-05,-1.2389e-05,1.85316e-06,-8.28716e-07,0
-2.78758e-05,1.91156e-05,-8.50294e-06,-4.43373e-06,1.54109e-05,-1.07012e-05,2.62378e-06,1.11742e-06,0
-2.8074e-05,1.8632e-05,-8.83367e-06,-8.75149e-07,1.31307e-05,-9.97895e-06,4.01942e-06,-9.00439e-07,0
-2.90303e-05,2.18896e-05,-8.19436e-06,2.43428e-07,1.07942e-05,-1.163e-05,6.1792e-06,-2.98619e-06,0
-2.92136e-05,2.38002e-05,-6.12351e-06,-2.42448e-06,1.00799e-05,-1.32747e-05,9.36664e-06,-3.66623e-06,0
-2.98873e-05,2.25277e-05,-3.29801e-06,-4.00744e-06,1.13547e-05,-1.35257e-05,1.11715e-05,-4.00063e-06,0
-2.94224e-05,2.06898e-05,-1.85233e-06,-2.46252e-06,1.13795e-05,-1.24202e-05,1.20618e-05,-5.74682e-06,0
-2.79283e-05,1.98323e-05,-4.17637e-06,-2.24592e-07,1.03637e-05,-1.10386e-05,1.35742e-05,-7.2814e-06,0
-2.80141e-05,1.94899e-05,-6.45828e-06,6.06409e-07,9.91182e-06,-1.08302e-05,1.48555e-05,-6.07147e-06,0
-2.96007e-05,1.97986e-05,-6.2842e-06,5.09171e-07,9.95562e-06,-1.21343e-05,1.42236e-05,-3.75729e-06,0
-3.00643e-05,1.98456e-05,-5.44574e-06,-4.80787e-07,1.0824e-05,-1.2432e-05,1.31751e-05,-2.8438e-06,0
-2.90153e-05,1.98502e-05,-5.17687e-06,-1.57377e-06,1.16961e-05,-1.09053e-05,1.2876e-05,-3.26705e-06,0
-2.79364e-05,1.99121e-05,-4.62978e-06,-2.72185e-06,1.29068e-05,-1.03604e-05,1.4355e-05,-3.61934e-06,0
-2.74042e-05,2.07529e-05,-2.12313e-06,-3.21656e-06,1.46898e-05,-1.12657e-05,1.66545e-05,-3.17045e-06,0
-2.77467e-05,2.12975e-05,2.80865e-07,-2.36026e-06,1.70068e-05,-1.15398e-05,1.49484e-05,-2.10167e-06,0
-2.81203e-05,2.13261e-05,6.73642e-07,-3.59695e-07,1.87507e-05,-1.17559e-05,3.24969e-06,-4.77869e-07,0
-2.8604e-05,2.1316e-05,-1.01509e-07,1.89668e-06,1.98301e-05,-1.31855e-05,-1.33822e-05,1.90625e-06,0
-2.89926e-05,2.12097e-05,-1.60857e-06,3.0341e-06,1.91784e-05,-1.4563e-05,-2.19928e-05,3.96574e-06,0
-2.88922e-05,2.04664e-05,-3.41628e-06,3.04985e-06,1.81143e-05,-1.45442e-05,-1.68327e-05,3.62453e-06,0
-2.85502e-05,1.84774e-05,-4.31411e-06,1.49735e-06,1.87077e-05,-1.43065e-05,-2.69605e-06,2.35045e-06,0
-2.8889e-05,1.64001e-05,-4.25193e-06,-5.61338e-07,2.02267e-05,-1.4669e-05,1.19676e-05,1.51824e-06,0
-2.86793e-05,1.5553e-05,-4.42401e-06,-2.61769e-06,1.98628e-05,-1.56569e-05,2.33456e-05,1.9498e-07,0
-2.82271e-05,1.53094e-05,-4.80945e-06,-4.73836e-06,1.60655e-05,-1.65415e-05,3.08915e-05,6.69072e-07,0
-2.94152e-05,1.43329e-05,-4.9515e-06,-5.78497e-06,1.03275e-05,-1.69242e-05,3.43339e-05,3.53207e-06,0
-3.12253e-05,1.40768e-05,-6.33649e-06,-5.59693e-06,4.62116e-06,-1.62038e-05,3.36591e-05,5.8084e-06,0
-3.37886e-05,1.57227e-05,-8.86994e-06,-6.89245e-06,-3.94388e-07,-1.49168e-05,3.05216e-05,6.20987e-06,0
-3.54913e-05,1.68728e-05,-1.08566e-05,-1.13375e-05,-1.79798e-06,-1.4356e-05,2.75797e-05,5.76322e-06,0
-3.50898e-05,1.3845e-05,-1.1527e-05,-1.52588e-05,3.58865e-07,-1.47467e-05,2.55455e-05,5.52557e-06,0
-3.55915e-05,9.63239e-06,-1.11965e-05,-1.49315e-05,8.86864e-07,-1.62714e-05,2.38643e-05,6.60138e-06,0
-3.70021e-05,7.28008e-06,-1.28034e-05,-1.10823e-05,-7.3192e-07,-1.74297e-05,2.05345e-05,7.81757e-06,0
-3.78408e-05,4.67243e-06,-1.51862e-05,-7.20492e-06,-1.6234e-06,-1.73238e-05,1.71481e-05,7.51014e-06,0
-3.71274e-05,4.28612e-06,-1.66202e-05,-5.48982e-06,1.86993e-06,-1.59726e-05,1.8081e-05,6.98936e-06,0
-3.57383e-05,6.8256e-06,-1.7473e-05,-5.61489e-06,7.46326e-06,-1.57546e-05,2.15917e-05,7.76132e-06,0
-3.56199e-05,8.68209e-06,-1.7407e-05,-6.17171e-06,1.17176e-05,-1.66812e-05,2.31537e-05,9.19866e-06,0
-3.5172e-05,8.89644e-06,-1.76753e-05,-5.56354e-06,1.44675e-05,-1.71479e-05,2.01081e-05,8.76309e-06,0
-3.36076e-05,8.56443e-06,-1.94547e-05,-3.72623e-06,1.55103e-05,-1.67423e-05,1.58897e-05,7.84511e-06,0
-3.24079e-05,1.0169e-05,-2.1932e-05,-3.32016e-06,1.43199e-05,-1.6204e-05,1.34715e-05,8.04276e-06,0
-3.18881e-05,1.33545e-05,-2.40504e-05,-5.17892e-06,1.35252e-05,-1.72898e-05,1.29172e-05,8.11849e-06,0
-3.21956e-05,1.67099e-05,-2.48831e-05,-3.25539e-06,1.64401e-05,-1.77202e-05,1.15623e-05,8.47381e-06,0
-3.32892e-05,1.83557e-05,-2.38817e-05,3.13321e-06,1.98799e-05,-1.64457e-05,7.43405e-06,8.89649e-06,0
-3.33154e-05,1.74183e-05,-2.16744e-05,8.59243e-06,2.06291e-05,-1.49506e-05,2.56976e-06,8.18825e-06,0
-3.1745e-05,1.45126e-05,-1.86403e-05,1.01824e-05,1.9426e-05,-1.3224e-05,1.36601e-07,6.38114e-06,0
-3.04013e-05,1.22085e-05,-1.66588e-05,7.33798e-06,1.73626e-05,-1.09115e-05,1.78457e-06,4.76943e-06,0
-3.0698e-05,1.1144e-05,-1.65337e-05,9.04467e-07,1.5176e-05,-9.59161e-06,6.056e-06,3.52738e-06,0
-3.11492e-05,8.46328e-06,-1.67438e-05,-6.81522e-06,1.42703e-05,-9.54857e-06,1.01568e-05,1.62464e-06,0
-3.08787e-05,3.70928e-06,-1.53563e-05,-1.44834e-05,1.44648e-05,-1.02192e-05,9.87296e-06,-1.75243e-07,0
-3.12127e-05,-6.88498e-07,-1.29692e-05,-2.31022e-05,1.35205e-05,-1.24616e-05,4.57755e-06,-9.41858e-07,0
-3.18953e-05,-2.89119e-06,-1.09477e-05,-3.16002e-05,1.04776e-05,-1.47536e-05,-1.89152e-06,-1.34959e-06,0
-3.10801e-05,-4.92543e-06,-9.76987e-06,-3.5147e-05,7.62872e-06,-1.44893e-05,-4.82991e-06,-1.76065e-06,0
-2.91738e-05,-7.71598e-06,-9.11841e-06,-2.67152e-05,6.52809e-06,-1.34802e-05,-3.87946e-06,-3.10277e-06,0
-2.79951e-05,-1.01813e-05,-9.03332e-06,-8.53523e-06,5.98272e-06,-1.45797e-05,-9.50767e-07,-5.61512e-06,0
-2.86047e-05,-1.21739e-05,-1.04346e-05,6.15151e-06,4.01773e-06,-1.70037e-05,3.00196e-06,-7.79786e-06,0
-2.9229e-05,-1.47138e-05,-1.2441e-05,1.02169e-05,-3.9067e-07,-1.83442e-05,8.12407e-06,-8.51238e-06,0
-2.88877e-05,-1.60122e-05,-1.33047e-05,7.28205e-06,-4.32535e-06,-1.88519e-05,1.45633e-05,-7.55728e-06,0
-2.95402e-05,-1.56227e-05,-1.30885e-05,2.97924e-06,-6.4777e-06,-2.02893e-05,1.95375e-05,-5.74307e-06,0
-2.93167e-05,-1.55957e-05,-1.30938e-05,4.68836e-07,-7.29662e-06,-2.10243e-05,2.10796e-05,-2.47957e-06,0
-2.93497e-05,-1.70169e-05,-1.14475e-05,-1.36912e-06,-6.63434e-06,-2.06767e-05,2.20394e-05,1.0577e-06,0
-3.04258e-05,-1.9735e-05,-8.93787e-06,-3.13419e-06,-3.60294e-06,-1.91848e-05,2.46546e-05,1.63332e-06,0
-2.99343e-05,-1.96489e-05,-7.34731e-06,-3.86348e-06,3.49132e-06,-1.56174e-05,2.81283e-05,9.44478e-07,0
-2.97797e-05,-1.72225e-05,-6.42315e-06,-4.03903e-06,1.21394e-05,-1.33708e-05,3.10126e-05,1.29911e-06,0
-2.86345e-05,-1.57391e-05,-6.10964e-06,-8.29221e-06,1.95461e-05,-1.38896e-05,3.2015e-05,1.66287e-06,0
-2.70921e-05,-1.44893e-05,-5.0949e-06,-1.56679e-05,2.56921e-05,-1.43114e-05,3.20238e-05,1.35246e-06,0
-2.76795e-05,-1.30258e-05,-4.38753e-06,-1.93901e-05,3.16308e-05,-1.21178e-05,3.16997e-05,1.73655e-06,0
-2.96913e-05,-1.20861e-05,-4.83449e-06,-1.64934e-05,3.42986e-05,-7.95652e-06,2.95159e-05,2.70102e-06,0
-3.00878e-05,-1.15305e-05,-5.83776e-06,-5.97076e-06,3.36362e-05,-4.87766e-06,2.55316e-05,3.17479e-06,0
-2.83132e-05,-9.95983e-06,-5.72481e-06,9.12303e-06,3.39978e-05,-3.3564e-06,2.24767e-05,3.21769e-06,0
-2.69536e-05,-8.09133e-06,-5.33527e-06,2.02771e-05,3.46683e-05,-2.70185e-06,2.28759e-05,3.07639e-06,0
-2.68747e-05,-6.45334e-06,-6.12701e-06,2.07345e-05,3.17381e-05,-2.65988e-06,2.3839e-05,3.20339e-06,0
-2.87687e-05,-6.01001e-06,-6.58103e-06,1.46321e-05,2.53208e-05,-3.11092e-06,2.11408e-05,3.04911e-06,0
-3.05417e-05,-6.02669e-06,-5.8979e-06,8.98843e-06,1.95324e-05,-4.60782e-06,1.71621e-05,2.68313e-06,0
-3.11497e-05,-5.71784e-06,-5.0829e-06,5.15953e-06,1.56651e-05,-7.22059e-06,1.56073e-05,2.58464e-06,0
-3.07239e-05,-5.60484e-06,-5.09659e-06,7.378e-08,1.29968e-05,-8.15942e-06,1.58209e-05,2.92418e-06,0
-2.93776e-05,-5.15718e-06,-5.65606e-06,-6.54945e-06,1.09359e-05,-5.62041e-06,1.55137e-05,1.90277e-06,0
-2.82204e-05,-4.87363e-06,-5.60742e-06,-1.08417e-05,9.99892e-06,-2.27684e-06,1.47462e-05,-1.01408e-06,0
-2.88999e-05,-5.37396e-06,-3.44672e-06,-1.05995e-05,1.02242e-05,-1.20344e-06,1.3192e-05,-2.20267e-06,0
-3.00775e-05,-4.32274e-06,-1.88729e-06,-8.07889e-06,1.13895e-05,-2.6175e-06,1.08598e-05,-1.00847e-06,0
-3.05102e-05,-2.54999e-07,-3.54501e-06,-8.05713e-06,1.30391e-05,-3.94839e-06,9.14411e-06,-1.02384e-06,0
-3.02956e-05,4.18792e-06,-6.29592e-06,-8.51709e-06,1.38285e-05,-3.57866e-06,8.72988e-06,-1.93983e-06,0
-2.93401e-05,8.20744e-06,-8.20045e-06,-4.60138e-06,1.2723e-05,-2.20913e-06,8.05562e-06,-1.55936e-06,0
-2.80092e-05,1.10726e-05,-9.4842e-06,1.58035e-06,1.09914e-05,-8.90781e-07,6.23172e-06,-1.11128e-06,0
-2.77401e-05,1.19817e-05,-9.63671e-06,8.45563e-06,9.65713e-06,-3.47745e-07,4.40257e-06,-4.79843e-07,0
-2.85114e-05,1.11847e-05,-7.32361e-06,1.28703e-05,9.62647e-06,-8.74858e-07,1.98253e-06,1.96491e-06,0
-2.7893e-05,9.80496e-06,-4.95048e-06,9.54615e-06,1.18008e-05,-2.95309e-06,-1.46395e-06,4.89799e-06,0
-2.59244e-05,8.80214e-06,-4.10785e-06,5.92489e-07,1.34053e-05,-4.48372e-06,-5.4833e-06,5.34602e-06,0
-2.50965e-05,1.07904e-05,-3.01518e-06,-9.17828e-06,1.34902e-05,-3.87842e-06,-1.13503e-05,3.51017e-06,0
-2.65595e-05,1.47007e-05,-2.3585e-06,-1.54089e-05,1.51661e-05,-3.98359e-06,-1.79886e-05,2.05237e-06,0
-2.81293e-05,1.70872e-05,-1.2574e-06,-1.64202e-05,1.5847e-05,-5.18399e-06,-1.87089e-05,2.07407e-06,0
-2.81582e-05,1.87517e-05,2.16818e-07,-1.48136e-05,1.43829e-05,-6.96124e-06,-8.06653e-06,1.99587e-06,0
-2.69654e-05,2.17037e-05,1.20294e-06,-1.50222e-05,1.30289e-05,-8.55942e-06,9.65155e-06,1.39465e-06,0
-2.67922e-05,2.57511e-05,1.64708e-06,-1.59463e-05,1.14525e-05,-8.09953e-06,2.41897e-05,2.42079e-06,0
-2.74284e-05,2.76062e-05,-1.74538e-07,-1.17366e-05,9.45893e-06,-8.05194e-06,3.23396e-05,5.10781e-06,0
-2.76868e-05,2.71415e-05,-3.75112e-06,-3.73182e-06,7.17333e-06,-1.05298e-05,3.61834e-05,6.57864e-06,0
-2.79465e-05,2.76628e-05,-6.29995e-06,1.39069e-06,6.73504e-06,-1.30947e-05,3.58221e-05,5.72689e-06,0
-2.94113e-05,2.95605e-05,-6.65743e-06,-2.02137e-06,7.41518e-06,-1.37782e-05,3.02355e-05,4.53649e-06,0
-3.23762e-05,2.96112e-05,-5.58983e-06,-1.55419e-05,8.88883e-06,-1.38795e-05,2.03861e-05,4.1564e-06,0
-3.48245e-05,2.70906e-05,-4.56575e-06,-3.03084e-05,1.09979e-05,-1.42589e-05,8.69395e-06,3.6035e-06,0
-3.51083e-05,2.49365e-05,-4.86475e-06,-2.78595e-05,1.259e-05,-1.39102e-05,-6.42278e-07,3.07488e-06,0
-3.34469e-05,2.49794e-05,-6.36464e-06,-4.37502e-06,1.32496e-05,-1.2567e-05,-3.63996e-06,2.47377e-06,0
-3.15112e-05,2.55031e-05,-8.2435e-06,2.05476e-05,1.3012e-05,-1.01995e-05,8.02773e-07,1.82624e-06,0
-3.04299e-05,2.47287e-05,-9.14211e-06,2.86624e-05,1.23357e-05,-7.42544e-06,9.11383e-06,2.68717e-06,0
-2.98354e-05,2.3264e-05,-9.55965e-06,1.90402e-05,1.22332e-05,-5.72377e-06,1.76013e-05,4.66395e-06,0
-3.01478e-05,2.30297e-05,-1.1346e-05,3.66165e-06,1.37908e-05,-5.71828e-06,2.59942e-05,5.29074e-06,0
-3.14254e-05,2.41565e-05,-1.42812e-05,-3.84135e-06,1.65517e-05,-6.29175e-06,3.15267e-05,5.28304e-06,0
-3.12615e-05,2.33668e-05,-1.66328e-05,3.74571e-07,1.90981e-05,-5.60789e-06,3.07044e-05,6.08327e-06,0
-3.00829e-05,2.10553e-05,-1.80637e-05,6.44285e-06,2.08588e-05,-4.81527e-06,2.31268e-05,6.35103e-06,0
-3.07303e-05,2.06396e-05,-1.89394e-05,5.60538e-06,2.34814e-05,-4.84536e-06,1.04551e-05,5.32112e-06,0
-3.2936e-05,2.12099e-05,-1.97937e-05,-1.73673e-06,2.7714e-05,-4.16817e-06,-6.81151e-06,4.13921e-06,0
-3.40681e-05,2.24379e-05,-1.83375e-05,-1.60782e-05,3.06717e-05,-2.7247e-06,-2.32013e-05,3.64177e-06,0
-3.42133e-05,2.31133e-05,-1.39623e-05,-3.22107e-05,2.88417e-05,-9.88987e-07,-3.25332e-05,2.06928e-06,0
-3.40014e-05,2.04008e-05,-1.18168e-05,-3.8588e-05,2.4168e-05,-1.10818e-06,-3.38926e-05,8.26015e-08,0
-3.30814e-05,1.78003e-05,-1.293e-05,-3.49242e-05,1.98469e-05,-3.41379e-06,-2.88669e-05,-7.97721e-07,0
-3.20961e-05,1.88522e-05,-1.36328e-05,-2.52653e-05,2.04608e-05,-5.00537e-06,-2.2078e-05,-2.28688e-06,0
-3.00907e-05,2.27435e-05,-1.11075e-05,-1.56535e-05,2.72306e-05,-4.86939e-06,-1.5611e-05,-4.47703e-06,0
-2.73857e-05,2.68832e-05,-6.28486e-06,-1.12921e-05,3.06474e-05,-4.63464e-06,-9.55486e-06,-3.89439e-06,0
-2.534e-05,2.7632e-05,-3.94879e-06,-1.46893e-05,2.63509e-05,-4.7532e-06,-6.16627e-06,-2.87519e-06,0
-2.46852e-05,2.56272e-05,-4.13772e-06,-2.04708e-05,1.93012e-05,-5.16313e-06,-3.62573e-06,-3.35593e-06,0
-2.50151e-05,2.21955e-05,-5.53714e-06,-2.12276e-05,1.41818e-05,-6.77829e-06,2.18198e-06,-3.29298e-06,0
-2.47804e-05,1.91392e-05,-6.4565e-06,-1.9928e-05,1.28311e-05,-8.2259e-06,1.0159e-05,-2.02227e-06,0
-2.55523e-05,1.90244e-05,-6.40931e-06,-1.54261e-05,1.36322e-05,-9.25923e-06,1.64083e-05,-5.6576e-07,0
-2.78441e-05,2.07732e-05,-6.10171e-06,-8.59087e-06,1.47711e-05,-1.03178e-05,1.86232e-05,-5.56296e-07,0
-2.96073e-05,2.32324e-05,-4.36039e-06,-2.88337e-06,1.61853e-05,-1.07591e-05,1.89542e-05,-7.07595e-07,0
-2.98099e-05,2.47946e-05,-1.27527e-06,-3.67765e-09,1.82091e-05,-9.37219e-06,1.97731e-05,-6.54822e-07,0
-3.10174e-05,2.42334e-05,1.20721e-06,-8.65308e-07,1.91185e-05,-6.50104e-06,2.0887e-05,-1.26672e-07,0
-3.43927e-05,2.13948e-05,2.78904e-07,-6.2262e-06,1.72121e-05,-4.46486e-06,2.13219e-05,1.51926e-07,0
-3.70051e-05,1.75396e-05,-2.70797e-06,-1.47075e-05,1.3664e-05,-5.05207e-06,2.14212e-05,3.42202e-07,0
-3.67747e-05,1.55248e-05,-5.64515e-06,-2.3085e-05,1.16232e-05,-7.28546e-06,2.17453e-05,8.48684e-07,0
-3.46326e-05,1.65917e-05,-7.86933e-06,-3.02526e-05,1.33434e-05,-8.58468e-06,2.22456e-05,1.04282e-06,0
-3.31381e-05,1.92295e-05,-9.0577e-06,-3.47914e-05,1.98594e-05,-8.45147e-06,2.28544e-05,-4.93396e-07,0
-3.31468e-05,2.19918e-05,-8.20593e-06,-3.2988e-05,2.99382e-05,-7.43538e-06,2.28777e-05,-3.84501e-06,0
-3.3844e-05,2.40503e-05,-6.68536e-06,-2.06942e-05,3.67883e-05,-6.84419e-06,2.363e-05,-6.13983e-06,0
-3.41433e-05,2.45279e-05,-6.43664e-06,-2.36e-06,3.50695e-05,-8.29612e-06,2.56193e-05,-6.12201e-06,0
-3.30007e-05,2.29652e-05,-6.66975e-06,1.31932e-05,2.63646e-05,-1.08541e-05,2.64042e-05,-5.39321e-06,0
-3.08016e-05,2.16721e-05,-6.83674e-06,2.30802e-05,1.46481e-05,-1.20086e-05,2.63394e-05,-6.20468e-06,0
-3.00441e-05,2.09795e-05,-7.62138e-06,2.87468e-05,4.24708e-06,-1.12921e-05,2.66938e-05,-8.07114e-06,0
-3.03456e-05,1.8305e-05,-8.84859e-06,3.04633e-05,-2.11311e-06,-1.00155e-05,2.69814e-05,-8.35463e-06,0
-3.09535e-05,1.50813e-05,-1.26436e-05,2.64921e-05,-6.26457e-06,-9.1297e-06,2.81509e-05,-6.20271e-06,0
-3.21863e-05,1.53132e-05,-1.74496e-05,1.71316e-05,-9.4414e-06,-8.87829e-06,3.06452e-05,-4.03577e-06,0
-3.31441e-05,1.72454e-05,-1.97123e-05,6.14885e-06,-1.32838e-05,-9.4227e-06,3.36859e-05,-4.54629e-06,0
-3.3613e-05,1.72249e-05,-2.0408e-05,-1.27851e-06,-1.66616e-05,-1.02417e-05,3.48191e-05,-6.51365e-06,0
-3.35461e-05,1.63948e-05,-2.00071e-05,-1.33319e-06,-1.1783e-05,-1.0797e-05,3.31192e-05,-8.11904e-06,0
-3.3563e-05,1.46829e-05,-1.81898e-05,3.28997e-06,-1.28879e-06,-1.02591e-05,2.97596e-05,-7.77964e-06,0
-3.3385e-05,1.33736e-05,-1.28279e-05,7.46e-06,4.71857e-06,-8.42091e-06,2.57396e-05,-5.73859e-06,0
-3.29661e-05,1.30768e-05,-6.27067e-06,8.6365e-06,5.96676e-06,-7.0291e-06,2.27744e-05,-4.09683e-06,0
-3.37135e-05,1.542e-05,-1.7058e-06,8.88322e-06,7.51792e-06,-6.14176e-06,1.97266e-05,-1.60722e-06,0
-3.28026e-05,2.00329e-05,1.7719e-06,1.27764e-05,1.01957e-05,-5.92641e-06,1.52589e-05,-4.45293e-07,0
-3.02462e-05,2.30699e-05,4.07354e-06,1.86221e-05,1.38733e-05,-7.0445e-06,1.09292e-05,-7.27295e-07,0
-2.89759e-05,2.35085e-05,4.65561e-06,2.11563e-05,1.78019e-05,-8.76734e-06,9.37609e-06,-7.31121e-08,0
-2.94526e-05,2.28542e-05,2.2033e-06,1.97752e-05,1.93935e-05,-1.05405e-05,1.03477e-05,1.9469e-06,0
-3.01683e-05,2.19285e-05,-1.58214e-06,1.63634e-05,1.72425e-05,-1.12276e-05,1.09437e-05,3.89691e-06,0
-2.97593e-05,2.16877e-05,-3.87496e-06,1.13401e-05,1.26614e-05,-1.09932e-05,9.68041e-06,3.87776e-06,0
-2.90463e-05,2.28745e-05,-4.30905e-06,3.82831e-06,8.6944e-06,-1.07086e-05,7.58896e-06,2.87632e-06,0
-2.80378e-05,2.3824e-05,-4.08566e-06,-6.83692e-06,6.78502e-06,-1.12165e-05,6.58845e-06,2.28671e-06,0
-2.75572e-05,2.30425e-05,-4.65317e-06,-2.0407e-05,6.14719e-06,-1.28565e-05,7.7812e-06,2.76023e-06,0
-2.81584e-05,1.98039e-05,-4.98e-06,-3.34213e-05,4.32399e-06,-1.54243e-05,1.09734e-05,3.45001e-06,0
