ch1,ch2,ch3,ch4,ch5,ch6,ch7,ch8,class
-2.52572e-05,-4.52801e-05,-0.00010789,-1.60935e-05,1.06145e-06,-1.55165e-05,-0.000161348,-3.24702e-05,0
-3.34561e-05,-5.83686e-05,-9.52623e-05,8.62689e-06,2.92987e-07,-1.41616e-05,-9.70276e-05,-4.41029e-05,0
-3.1966e-05,-5.41759e-05,-7.63941e-05,4.10846e-05,3.69137e-06,-1.30731e-05,-9.62323e-06,-4.30209e-05,0
-1.92343e-05,-4.09782e-05,-5.71642e-05,6.86194e-05,7.07411e-06,-1.41278e-05,6.63685e-05,-3.71096e-05,0
-8.70469e-06,-2.68514e-05,-3.72004e-05,8.92635e-05,3.57e-06,-1.66695e-05,0.000115263,-3.29957e-05,0
-8.56293e-06,-1.52105e-05,-2.20777e-05,8.93434e-05,-3.25058e-06,-1.80918e-05,0.000128192,-2.78228e-05,0
-1.2459e-05,-5.50725e-06,-1.47281e-05,4.13584e-05,-3.9693e-06,-1.76503e-05,0.000117543,-1.77319e-05,0
-1.33782e-06,8.66248e-06,-1.07311e-05,-5.70712e-05,-1.04585e-06,-1.43682e-05,0.000100765,-6.17245e-06,0
2.69187e-05,3.3188e-05,-6.0077e-06,-0.000169787,2.37868e-06,-1.05472e-05,8.47116e-05,1.85311e-06,0
4.98753e-05,6.23621e-05,-3.21688e-06,-0.000242204,1.0013e-05,-6.91263e-06,5.68419e-05,3.98682e-06,0
5.46409e-05,8.21933e-05,-6.07959e-06,-0.000245007,1.99667e-05,-4.54489e-06,3.35272e-06,6.17444e-06,0
4.37877e-05,9.49956e-05,-1.16203e-05,-0.000191966,2.60181e-05,-5.0588e-06,-4.8151e-05,2.07509e-05,0
2.41035e-05,0.000110501,-1.79982e-05,-0.000127258,2.69775e-05,-6.11042e-06,-6.3577e-05,4.15128e-05,0
-1.09921e-06,0.000123964,-2.06952e-05,-8.20333e-05,2.6412e-05,-4.3767e-06,-3.98129e-05,4.95481e-05,0
-2.56995e-05,0.000121375,-1.61867e-05,-5.47706e-05,2.38516e-05,-1.37446e-06,-6.29354e-06,3.63773e-05,0
-4.32046e-05,9.82504e-05,-5.08346e-06,-3.05282e-05,1.72654e-05,-2.12294e-06,1.76342e-05,1.28438e-05,0
-5.23298e-05,4.75881e-05,7.6648e-06,-5.23316e-06,9.06262e-06,-6.77616e-06,2.8213e-05,-8.46311e-06,0
-5.98546e-05,-3.03637e-05,1.84119e-05,1.65235e-05,4.37695e-06,-1.2436e-05,3.08991e-05,-2.28898e-05,0
-7.05919e-05,-0.000102234,2.34659e-05,3.32882e-05,5.39584e-06,-1.52178e-05,2.90374e-05,-3.08294e-05,0
-7.55012e-05,-0.000129792,2.23808e-05,3.87688e-05,1.1213e-05,-1.46557e-05,2.91131e-05,-3.32019e-05,0
-6.56461e-05,-0.000115807,1.84829e-05,2.52196e-05,1.68638e-05,-1.12422e-05,2.96256e-05,-3.01034e-05,0
-5.21703e-05,-9.68938e-05,1.75568e-05,3.79833e-06,1.80218e-05,-6.94551e-06,2.64548e-05,-2.3683e-05,0
-5.0486e-05,-9.41796e-05,2.05092e-05,-8.45261e-06,1.56395e-05,-5.15788e-06,2.30663e-05,-1.33478e-05,0
-5.98266e-05,-8.20822e-05,2.11247e-05,-8.42895e-06,1.39259e-05,-6.1149e-06,1.99882e-05,-1.04563e-06,0
-7.13393e-05,-4.06684e-05,1.56705e-05,-7.64458e-07,1.45299e-05,-7.6267e-06,1.56647e-05,7.39271e-06,0
-7.95736e-05,1.26016e-05,6.79625e-06,8.84577e-06,1.6577e-05,-6.97933e-06,1.24694e-05,1.11561e-05,0
-8.37946e-05,3.76926e-05,1.36001e-07,1.53615e-05,1.85678e-05,-5.71144e-06,1.07912e-05,1.34685e-05,0
-8.46965e-05,1.13996e-05,-3.32545e-06,1.67913e-05,1.6856e-05,-6.62218e-06,8.91384e-06,1.39117e-05,0
-8.01536e-05,-3.27856e-05,-2.33595e-06,1.46813e-05,1.38003e-05,-8.10127e-06,5.415e-06,1.20708e-05,0
-6.3816e-05,-4.58954e-05,4.46915e-06,1.25725e-05,1.38579e-05,-8.10854e-06,-6.05832e-06,1.02588e-05,0
-3.70587e-05,-1.9374e-05,7.93977e-06,1.75447e-05,1.68938e-05,-6.34335e-06,-3.26437e-05,9.4206e-06,0
-5.61979e-06,7.70713e-06,1.22079e-06,2.77573e-05,1.81453e-05,-5.27097e-06,-6.6137e-05,9.83764e-06,0
1.67554e-05,2.29919e-06,-6.03773e-06,3.86956e-05,1.52799e-05,-5.66728e-06,-8.47588e-05,1.0442e-05,0
8.99195e-06,-3.21584e-05,-4.59155e-06,4.71104e-05,1.17942e-05,-6.73243e-06,-8.13249e-05,9.37507e-06,0
-2.75048e-05,-5.51923e-05,3.46671e-07,4.55552e-05,9.88838e-06,-8.28892e-06,-6.21128e-05,7.14928e-06,0
-7.38188e-05,-4.47026e-05,2.9332e-06,3.13818e-05,1.02552e-05,-9.57416e-06,-4.02686e-05,3.81477e-06,0
-0.000118789,-1.87077e-05,4.80781e-06,1.29269e-05,1.29848e-05,-9.5521e-06,-3.04094e-05,1.73459e-06,0
-0.000155422,1.21857e-05,3.11555e-06,-1.67499e-06,1.58661e-05,-7.31098e-06,-3.30301e-05,2.74914e-06,0
-0.000178104,4.5665e-05,-6.23607e-06,-1.00824e-05,1.82169e-05,-5.95522e-06,-2.93816e-05,4.81374e-06,0
-0.000183631,7.45124e-05,-1.80759e-05,-1.66404e-05,2.0736e-05,-6.50553e-06,-1.02025e-05,6.03829e-06,0
-0.000169887,8.55365e-05,-2.2759e-05,-2.48393e-05,2.15389e-05,-6.87287e-06,1.94842e-05,6.52075e-06,0
-0.000137911,7.42952e-05,-1.8943e-05,-2.6608e-05,2.082e-05,-6.34031e-06,4.87167e-05,5.62353e-06,0
-9.51299e-05,4.93885e-05,-1.24118e-05,-1.16677e-05,2.19704e-05,-6.29628e-06,7.25649e-05,2.49577e-06,0
-5.0824e-05,2.27469e-05,-7.77448e-06,1.8912e-05,2.60221e-05,-7.48757e-06,9.08535e-05,-6.33082e-07,0
-1.12603e-05,1.77612e-06,-6.22027e-06,4.63325e-05,2.89086e-05,-7.48202e-06,0.000102263,5.39049e-07,0
1.66096e-05,-5.99625e-06,-7.40036e-06,5.85041e-05,2.80202e-05,-3.32322e-06,0.000104918,7.97351e-06,0
3.11139e-05,2.29482e-06,-8.47796e-06,6.50215e-05,2.64331e-05,1.94016e-06,0.000102795,1.64243e-05,0
3.91502e-05,1.14448e-05,-7.10627e-06,6.55991e-05,2.74397e-05,3.65362e-06,0.000112554,1.78248e-05,0
4.92184e-05,3.60719e-06,-3.1675e-06,4.53599e-05,2.75022e-05,2.16263e-06,0.000146274,1.15663e-05,0
5.93486e-05,-3.43183e-07,2.14858e-06,5.86816e-06,2.31396e-05,-1.93722e-06,0.000188249,4.63474e-06,0
6.75935e-05,3.40951e-05,4.30472e-06,-3.91437e-05,1.79376e-05,-7.61053e-06,0.000207143,-3.16981e-07,0
7.36465e-05,9.2052e-05,3.22237e-06,-7.63957e-05,1.55847e-05,-1.18403e-05,0.000187973,-2.44544e-06,0
7.10098e-05,0.00012729,8.21033e-06,-0.000104793,1.58985e-05,-1.43337e-05,0.000127535,-2.55236e-06,0
6.21269e-05,0.000111386,1.6675e-05,-0.000110214,1.59887e-05,-1.48187e-05,4.14463e-05,-4.49617e-06,0
4.78417e-05,5.49697e-05,1.96949e-05,-8.08672e-05,1.59069e-05,-1.07642e-05,-5.03365e-05,-5.85254e-06,0
2.55393e-05,-9.50428e-06,1.8796e-05,-3.23788e-05,1.79242e-05,-6.46751e-06,-0.000126967,-5.57234e-06,0
-6.13357e-07,-5.40439e-05,1.92478e-05,2.2964e-05,2.18098e-05,-6.05278e-06,-0.000159396,-5.20245e-06,0
-2.37147e-05,-6.78359e-05,2.23049e-05,6.78626e-05,2.51533e-05,-6.84521e-06,-0.000150428,-4.08243e-06,0
-4.43313e-05,-6.24089e-05,2.08862e-05,8.5262e-05,2.6122e-05,-8.65513e-06,-0.000122621,-4.37083e-06,0
-6.66598e-05,-5.20382e-05,1.97674e-05,7.25601e-05,2.4117e-05,-1.2175e-05,-9.70418e-05,-5.91603e-06,0
-8.89407e-05,-4.4561e-05,2.69248e-05,4.38267e-05,2.03619e-05,-1.53428e-05,-8.12108e-05,-5.50218e-06,0
-0.000100202,-4.0016e-05,3.67326e-05,1.68988e-05,1.75223e-05,-1.82323e-05,-6.66772e-05,-3.2481e-06,0
-9.13866e-05,-3.04222e-05,3.33977e-05,1.85648e-06,1.59323e-05,-2.0751e-05,-4.56544e-05,-1.10575e-06,0
-6.87168e-05,-1.49786e-05,4.54138e-06,-2.56512e-06,1.35268e-05,-2.03443e-05,-2.18967e-05,1.58587e-07,0
-4.40589e-05,-1.0856e-06,-3.98216e-05,-4.27848e-06,1.03829e-05,-1.75778e-05,-2.56006e-06,1.73738e-06,0
-2.59591e-05,3.62952e-06,-7.6501e-05,-6.582e-06,8.08161e-06,-1.5534e-05,1.01687e-05,3.80204e-06,0
-1.49623e-05,6.1099e-07,-9.36642e-05,-7.78151e-06,7.64054e-06,-1.448e-05,1.39193e-05,4.97525e-06,0
-8.94976e-06,-3.42066e-06,-9.54628e-05,-6.80363e-06,8.90321e-06,-1.37287e-05,1.15373e-05,4.91277e-06,0
-5.49352e-06,-5.44248e-06,-8.6897e-05,-4.41352e-06,1.06516e-05,-1.36929e-05,4.9474e-06,4.66203e-06,0
-5.69826e-06,-6.08149e-06,-7.13474e-05,-1.63729e-06,1.1746e-05,-1.40774e-05,4.54654e-07,5.34821e-06,0
-1.19282e-05,-4.84575e-06,-5.41243e-05,-8.74011e-07,1.26959e-05,-1.43641e-05,2.15799e-06,5.60697e-06,0
-2.16966e-05,1.12763e-06,-3.8903e-05,-1.36364e-06,1.37394e-05,-1.4583e-05,7.53644e-06,4.69529e-06,0
-2.56468e-05,1.13655e-05,-2.48817e-05,-2.89259e-06,1.36756e-05,-1.53504e-05,9.88391e-06,3.89045e-06,0
-1.95381e-05,2.04908e-05,-1.34974e-05,-5.24646e-06,1.31446e-05,-1.55127e-05,8.35091e-06,3.74444e-06,0
-1.13959e-05,2.57219e-05,-6.6368e-06,-8.22559e-06,1.24842e-05,-1.44975e-05,5.74084e-06,3.45914e-06,0
-1.10381e-05,2.98949e-05,-2.81498e-06,-1.28322e-05,1.22687e-05,-1.35985e-05,6.51872e-06,3.40137e-06,0
-1.80966e-05,3.59592e-05,-8.71832e-07,-1.93418e-05,1.1387e-05,-1.27693e-05,2.1957e-05,3.27054e-06,0
-1.85764e-05,4.03988e-05,3.43506e-08,-2.58184e-05,7.93886e-06,-1.1103e-05,5.22412e-05,2.71411e-06,0
-7.21811e-06,3.88647e-05,1.01527e-06,-2.72311e-05,4.11849e-06,-9.56772e-06,8.32165e-05,1.47255e-06,0
8.09663e-06,3.69991e-05,2.39639e-06,-2.32799e-05,3.37676e-06,-9.69671e-06,0.000104546,3.93779e-07,0
1.34138e-05,3.87475e-05,4.06423e-06,-1.96925e-05,2.32759e-06,-9.50969e-06,0.000111389,2.03122e-06,0
1.8954e-06,4.00874e-05,6.6876e-06,-1.83637e-05,-1.20376e-07,-9.44441e-06,0.000106093,4.19138e-06,0
-1.51877e-05,3.52064e-05,9.37989e-06,-1.79428e-05,1.46589e-06,-1.06294e-05,7.53227e-05,4.88272e-06,0
-2.861e-05,2.29145e-05,1.22408e-05,-1.80835e-05,5.27946e-06,-1.19168e-05,9.34066e-06,5.05928e-06,0
-3.71745e-05,1.17776e-05,1.58703e-05,-2.33938e-05,8.37131e-06,-1.09932e-05,-6.08851e-05,8.04539e-06,0
-3.92387e-05,1.08326e-05,1.81805e-05,-3.4416e-05,8.52227e-06,-8.62023e-06,-0.000102773,1.19575e-05,0
-3.38581e-05,1.92426e-05,1.90307e-05,-4.25455e-05,5.2475e-06,-7.97803e-06,-0.000107806,1.33307e-05,0
-2.85586e-05,2.9123e-05,1.97328e-05,-4.43038e-05,1.94784e-06,-8.44144e-06,-9.50628e-05,1.31575e-05,0
-2.68617e-05,3.70688e-05,1.98818e-05,-4.06453e-05,9.47199e-07,-9.87178e-06,-8.62876e-05,1.33184e-05,0
-2.69789e-05,4.45834e-05,1.89392e-05,-3.31769e-05,3.58388e-06,-1.14527e-05,-8.18428e-05,1.45497e-05,0
-2.92225e-05,4.12665e-05,1.75256e-05,-2.80851e-05,7.84682e-06,-1.30851e-05,-7.09089e-05,1.4483e-05,0
-3.20772e-05,8.91705e-06,1.63552e-05,-3.25224e-05,1.07176e-05,-1.43975e-05,-5.06456e-05,1.34403e-05,0
-3.39495e-05,-3.05541e-05,1.46124e-05,-4.38232e-05,1.06699e-05,-1.40746e-05,-2.26725e-05,1.12991e-05,0
-3.50983e-05,-2.58032e-05,1.25655e-05,-4.32904e-05,1.00506e-05,-1.15192e-05,7.98889e-06,8.88439e-06,0
-3.59993e-05,2.90516e-05,1.08906e-05,-1.28428e-05,1.2289e-05,-8.91624e-06,3.48157e-05,6.58407e-06,0
-3.54503e-05,9.50421e-05,8.43335e-06,3.87089e-05,1.83564e-05,-8.00322e-06,4.94704e-05,2.95976e-06,0
-3.61942e-05,0.000133115,3.29284e-06,7.37842e-05,2.47847e-05,-7.53014e-06,5.00342e-05,-1.08891e-06,0
-4.08648e-05,0.000125549,-4.02127e-06,7.01013e-05,2.79913e-05,-7.65074e-06,4.52944e-05,-3.78827e-06,0
-4.79413e-05,8.1998e-05,-1.11469e-05,4.79045e-05,2.87566e-05,-8.80594e-06,4.19626e-05,-6.87921e-06,0
-5.15382e-05,3.06621e-05,-1.64252e-05,2.72828e-05,2.76485e-05,-1.04008e-05,3.88504e-05,-1.16047e-05,0
-4.97147e-05,-1.00261e-05,-1.86088e-05,1.01965e-05,2.54925e-05,-1.09484e-05,3.49644e-05,-1.51123e-05,0
-4.2802e-05,-2.92278e-05,-1.59798e-05,4.24056e-08,2.36644e-05,-1.07058e-05,3.32379e-05,-1.46599e-05,0
-3.48708e-05,-2.26831e-05,-1.20481e-05,-1.88227e-06,2.18146e-05,-9.899e-06,3.05492e-05,-1.114e-05,0
-3.26069e-05,-7.28407e-06,-1.57386e-05,-2.1329e-06,1.80556e-05,-9.62268e-06,2.51522e-05,-7.40241e-06,0
-3.6133e-05,-3.97122e-07,-2.41897e-05,-5.00883e-06,1.2948e-05,-9.91423e-06,2.27451e-05,-5.0025e-06,0
-3.94942e-05,-5.03746e-06,-2.93852e-05,-7.60315e-06,1.05067e-05,-9.00765e-06,2.73549e-05,-4.31173e-06,0
-3.98415e-05,-9.83688e-06,-2.90121e-05,-4.80433e-06,1.19951e-05,-9.0724e-06,3.2268e-05,-3.69922e-06,0
-3.86828e-05,-6.13883e-06,-2.53933e-05,-4.33529e-06,1.35135e-05,-1.23916e-05,3.22743e-05,-4.60161e-06,0
-3.72726e-05,-1.67603e-06,-2.43138e-05,-1.27971e-05,1.37411e-05,-1.59128e-05,2.8449e-05,-7.06902e-06,0
-3.76605e-05,-1.61937e-06,-2.52643e-05,-1.74068e-05,1.26749e-05,-1.7569e-05,2.24094e-05,-6.76865e-06,0
-3.93372e-05,-2.77141e-07,-2.44131e-05,-7.42386e-06,1.06852e-05,-1.87785e-05,1.70339e-05,-3.00885e-06,0
-4.04284e-05,9.65575e-07,-2.10635e-05,1.2555e-05,1.03941e-05,-1.85361e-05,1.56028e-05,-1.47227e-07,0
-3.98711e-05,1.462e-06,-1.75633e-05,3.35789e-05,1.12972e-05,-1.77908e-05,1.52359e-05,2.47543e-08,0
-3.75432e-05,2.46519e-06,-1.43117e-05,5.32304e-05,1.11836e-05,-1.60255e-05,1.51648e-05,-1.94793e-06,0
-3.5139e-05,4.58178e-06,-1.11371e-05,6.21566e-05,1.01905e-05,-1.24407e-05,1.5427e-05,-3.13929e-06,0
-3.3686e-05,6.76861e-06,-8.9413e-06,5.37476e-05,9.62137e-06,-9.40528e-06,1.69436e-05,-1.3914e-06,0
-3.27507e-05,7.38694e-06,-7.50592e-06,3.16529e-05,1.00957e-05,-7.81375e-06,2.25793e-05,5.73882e-07,0
-3.28394e-05,7.81023e-06,-6.87863e-06,2.16001e-06,1.059e-05,-6.94193e-06,3.04745e-05,7.54682e-07,0
-3.29697e-05,8.25444e-06,-7.02912e-06,-2.61823e-05,9.19665e-06,-5.55771e-06,3.63231e-05,-5.6825e-07,0
-3.19229e-05,9.6196e-06,-6.73161e-06,-4.41852e-05,6.4274e-06,-4.04987e-06,3.81232e-05,-2.96404e-06,0
-3.01044e-05,9.91646e-06,-5.31994e-06,-4.72194e-05,6.73381e-06,-1.67073e-06,3.76543e-05,-3.66749e-06,0
-2.92639e-05,9.02094e-06,-4.24411e-06,-4.26508e-05,1.16177e-05,7.0795e-07,3.64128e-05,-1.00761e-06,0
-2.8988e-05,7.68354e-06,-5.26668e-06,-3.96652e-05,1.62799e-05,1.16695e-06,3.65489e-05,1.12907e-06,0
-2.93767e-05,7.17935e-06,-8.74077e-06,-3.95285e-05,1.71243e-05,-1.11607e-06,3.71987e-05,3.48062e-07,0
-3.09485e-05,6.50971e-06,-1.22975e-05,-3.54484e-05,1.46878e-05,-3.6194e-06,3.56564e-05,-9.03542e-07,0
-3.21749e-05,4.40364e-06,-1.30284e-05,-2.4897e-05,1.26822e-05,-3.77845e-06,3.08525e-05,-8.15256e-07,0
-3.16912e-05,1.77013e-06,-9.57708e-06,-1.12247e-05,1.35984e-05,-3.68417e-06,2.40022e-05,-3.13103e-07,0
-3.10571e-05,8.53307e-07,-5.31222e-06,5.45437e-06,1.50524e-05,-5.84732e-06,7.8031e-06,6.43775e-08,0
-3.12998e-05,2.07521e-06,-2.55407e-06,2.45023e-05,1.35866e-05,-8.67475e-06,-3.10215e-05,-5.43132e-07,0
-3.17778e-05,4.13672e-06,2.14689e-06,3.59677e-05,9.70625e-06,-1.03421e-05,-8.0566e-05,-1.26488e-06,0
-3.26793e-05,6.7008e-06,1.02673e-05,3.56759e-05,6.24752e-06,-1.1803e-05,-0.000101417,-2.37223e-06,0
-3.29699e-05,9.94129e-06,2.11612e-05,2.79457e-05,6.34871e-06,-1.22556e-05,-7.29467e-05,-5.2854e-06,0
-3.15069e-05,1.21214e-05,3.21768e-05,2.07712e-05,8.93305e-06,-1.13619e-05,-1.55391e-05,-7.97493e-06,0
-2.89385e-05,1.19195e-05,3.4885e-05,1.27239e-05,9.0419e-06,-9.09785e-06,4.13784e-05,-6.3528e-06,0
-2.77214e-05,1.03354e-05,2.33676e-05,-3.33721e-07,7.71863e-06,-7.38327e-06,7.65826e-05,-3.90737e-06,0
-2.74565e-05,9.3793e-06,2.77699e-08,-1.11192e-05,4.69152e-06,-7.30081e-06,8.8588e-05,-3.89544e-06,0
-2.67003e-05,1.11931e-05,-2.64428e-05,-1.57551e-05,-6.39181e-08,-7.29376e-06,8.80161e-05,-3.34816e-06,0
-2.58837e-05,1.12161e-05,-4.66101e-05,-1.95105e-05,-2.51056e-06,-7.19763e-06,7.14674e-05,-1.96945e-06,0
-2.67559e-05,9.5311e-06,-5.72105e-05,-2.86383e-05,-1.97117e-06,-6.65668e-06,2.11607e-05,-1.38952e-06,0
-2.81713e-05,9.66955e-06,-5.79223e-05,-1.98769e-05,-4.28265e-07,-6.64466e-06,-5.19101e-05,-1.81625e-06,0
-2.22343e-05,1.45181e-05,-4.97984e-05,1.96122e-05,1.53104e-06,-7.75534e-06,-8.52136e-05,-1.19502e-06,0
-6.94189e-06,2.35347e-05,-3.94524e-05,6.05712e-05,5.93346e-06,-1.00987e-05,-5.53323e-05,7.32745e-07,0
7.90541e-06,3.20171e-05,-3.30401e-05,7.55245e-05,1.0035e-05,-1.21615e-05,3.72915e-06,7.77927e-06,0
1.3882e-05,3.77892e-05,-3.01721e-05,5.77544e-05,1.08814e-05,-1.19554e-05,5.42913e-05,2.20354e-05,0
9.99864e-06,3.97009e-05,-2.6891e-05,2.10067e-05,1.15454e-05,-1.0427e-05,8.45945e-05,3.54283e-05,0
-1.43244e-07,3.78659e-05,-2.25158e-05,-1.59704e-05,1.35249e-05,-9.16594e-06,9.57459e-05,3.99861e-05,0
-1.18014e-05,3.19225e-05,-1.81619e-05,-5.31972e-05,1.46575e-05,-8.53812e-06,8.87822e-05,3.48439e-05,0
-2.29335e-05,2.26547e-05,-1.45769e-05,-9.50173e-05,1.43855e-05,-7.41795e-06,7.27743e-05,2.02442e-05,0
-3.25478e-05,1.34826e-05,-1.24924e-05,-0.000135411,1.42082e-05,-6.03466e-06,5.60159e-05,-2.56105e-06,0
-4.02434e-05,6.37185e-06,-1.17492e-05,-0.000155244,1.56554e-05,-6.4516e-06,4.40304e-05,-2.63053e-05,0
-4.99365e-05,-3.05036e-08,-1.22148e-05,-0.000134473,1.75303e-05,-8.93877e-06,3.56473e-05,-4.02667e-05,0
-6.40128e-05,-5.91058e-06,-1.21175e-05,-8.246e-05,1.91016e-05,-1.02568e-05,2.99427e-05,-4.12595e-05,0
-7.46992e-05,-7.43537e-06,-9.83508e-06,-4.42974e-05,2.12682e-05,-9.15312e-06,2.49528e-05,-3.62711e-05,0
-7.11599e-05,6.7092e-07,-5.09832e-06,-5.05393e-05,2.08938e-05,-7.41268e-06,2.30558e-05,-3.10229e-05,0
-5.10611e-05,1.56233e-05,-7.59291e-08,-7.31781e-05,1.59122e-05,-6.36423e-06,2.17946e-05,-2.43435e-05,0
-1.91993e-05,2.59412e-05,4.49728e-06,-6.96639e-05,1.19144e-05,-3.45084e-06,1.57157e-05,-1.65233e-05,0
1.08159e-05,2.59403e-05,9.57079e-06,-3.69855e-05,1.34018e-05,-3.16627e-07,5.39454e-06,-9.48852e-06,0
2.02801e-05,1.97141e-05,1.53744e-05,-8.35669e-06,1.89765e-05,-8.40165e-07,-3.12305e-06,-3.62366e-06,0
8.96406e-06,9.95275e-06,2.17339e-05,-2.36237e-06,2.42155e-05,-2.37278e-06,-8.74818e-06,7.44714e-08,0
-1.009e-05,4.02836e-06,2.71108e-05,-2.80569e-06,2.65259e-05,-2.33465e-06,-1.26075e-05,1.87986e-06,0
-3.10762e-05,9.78496e-06,2.82751e-05,5.11967e-06,2.49035e-05,1.23926e-07,-1.56242e-05,3.47014e-06,0
-5.20886e-05,1.15601e-05,2.16511e-05,1.41048e-05,2.0468e-05,2.65398e-06,-1.70107e-05,7.84641e-06,0
-7.22048e-05,-2.09244e-06,1.08676e-05,1.59346e-05,1.60567e-05,1.40992e-06,-1.40719e-05,1.27723e-05,0
-8.6605e-05,-2.2349e-05,5.62246e-06,1.23107e-05,1.16722e-05,-2.38515e-06,-9.49187e-06,1.32707e-05,0
-9.11461e-05,-3.72302e-05,8.43353e-06,4.36804e-06,1.07447e-05,-6.88982e-06,-6.33059e-06,8.61053e-06,0
-8.78166e-05,-4.15391e-05,1.35669e-05,-2.81041e-06,1.17216e-05,-1.056e-05,-5.75008e-06,4.10797e-06,0
-7.83805e-05,-4.13103e-05,1.23307e-05,-2.51416e-06,1.18819e-05,-1.23156e-05,-5.28944e-06,4.31152e-06,0
-6.41531e-05,-3.30858e-05,2.63243e-06,7.31819e-06,1.30671e-05,-1.37446e-05,-2.7435e-06,6.84015e-06,0
-5.08374e-05,-1.77764e-05,-8.22586e-06,2.37458e-05,1.43227e-05,-1.46706e-05,-5.9398e-07,6.96684e-06,0
-4.34533e-05,-4.40741e-06,-1.57239e-05,3.56314e-05,1.3954e-05,-1.61534e-05,-4.97077e-08,5.75661e-06,0
-3.90627e-05,4.52163e-06,-1.83715e-05,3.56854e-05,1.24379e-05,-1.73409e-05,2.82517e-06,6.16406e-06,0
-3.1945e-05,9.63609e-06,-1.76718e-05,2.04055e-05,1.20631e-05,-1.73547e-05,8.65887e-06,7.47274e-06,0
-1.99737e-05,1.35117e-05,-1.91968e-05,-7.49205e-06,1.1685e-05,-1.69158e-05,1.47421e-05,7.06747e-06,0
-9.47785e-06,1.70598e-05,-2.30519e-05,-3.53833e-05,7.88547e-06,-1.71579e-05,1.82808e-05,5.095e-06,0
-6.75485e-06,2.17349e-05,-2.32085e-05,-5.23635e-05,1.89173e-06,-1.80359e-05,1.93336e-05,4.05161e-06,0
-1.07625e-05,2.76853e-05,-1.67241e-05,-5.92536e-05,-2.35288e-06,-1.80515e-05,1.96365e-05,5.22099e-06,0
-1.73006e-05,3.5488e-05,-6.40177e-06,-6.3838e-05,-2.38428e-06,-1.74244e-05,2.08577e-05,7.05937e-06,0
-2.47125e-05,4.35288e-05,2.64174e-06,-6.56786e-05,1.42345e-06,-1.56369e-05,2.22649e-05,5.96927e-06,0
-3.21552e-05,5.01657e-05,5.52526e-06,-5.30941e-05,5.95273e-06,-1.36154e-05,2.29271e-05,3.67292e-06,0
-3.75854e-05,5.50481e-05,-6.71154e-07,-1.86112e-05,9.08515e-06,-1.16459e-05,2.18269e-05,3.37988e-06,0
-4.08314e-05,5.73869e-05,-1.12673e-05,2.29162e-05,1.1051e-05,-8.86572e-06,1.95528e-05,5.34652e-06,0
-4.4343e-05,5.60055e-05,-1.70341e-05,4.9248e-05,1.40716e-05,-7.15968e-06,1.68917e-05,8.11771e-06,0
-4.79631e-05,4.80608e-05,-1.78768e-05,5.98507e-05,1.8866e-05,-8.59614e-06,1.38213e-05,1.13625e-05,0
-4.60344e-05,2.88027e-05,-2.25693e-05,6.97407e-05,2.19194e-05,-1.09868e-05,9.83014e-06,1.15416e-05,0
-3.7559e-05,3.49746e-06,-3.48723e-05,7.96972e-05,1.94563e-05,-1.27512e-05,6.45427e-06,1.22901e-05,0
-2.6624e-05,-1.15644e-05,-5.20616e-05,8.08977e-05,1.46336e-05,-1.26663e-05,6.75449e-06,2.57864e-05,0
-1.89723e-05,-5.83094e-06,-6.36683e-05,7.10913e-05,1.1444e-05,-1.11838e-05,1.06985e-05,4.20205e-05,0
-1.60251e-05,2.86067e-05,-5.54451e-05,5.6467e-05,1.10837e-05,-9.21666e-06,1.44249e-05,3.86687e-05,0
-1.33479e-05,7.5841e-05,-3.37749e-05,4.17759e-05,1.15082e-05,-7.32233e-06,7.11161e-06,1.74905e-05,0
-1.09101e-05,0.000111606,-1.52766e-05,2.72007e-05,9.94143e-06,-6.8119e-06,-9.34773e-06,-6.94011e-06,0
-1.03594e-05,0.000132547,-3.80961e-06,1.43547e-05,6.48512e-06,-7.28264e-06,-1.90203e-05,-2.36444e-05,0
-1.19709e-05,0.000132743,1.37156e-06,3.4081e-06,2.66145e-06,-8.13957e-06,-2.88137e-05,-3.08083e-05,0
-1.61106e-05,0.000104461,3.35537e-06,-1.31747e-05,1.28215e-06,-8.20093e-06,-5.31064e-05,-3.27928e-05,0
-2.17408e-05,5.30158e-05,4.70547e-06,-3.61782e-05,2.91444e-06,-8.02453e-06,-7.53098e-05,-3.18696e-05,0
-2.79422e-05,-1.80347e-06,4.73799e-06,-4.9603e-05,4.73579e-06,-8.36683e-06,-7.24662e-05,-2.82989e-05,0
-3.17685e-05,-4.96049e-05,4.30486e-06,-4.52165e-05,5.5588e-06,-9.08373e-06,-4.51855e-05,-1.98268e-05,0
-2.79449e-05,-9.08449e-05,3.20268e-06,-3.51253e-05,7.85972e-06,-9.94125e-06,-5.76303e-06,-7.73667e-06,0
-1.60027e-05,-0.000114858,-2.11179e-06,-2.89313e-05,1.2216e-05,-1.1319e-05,3.24503e-05,3.65788e-06,0
-1.23682e-06,-0.000105553,-9.93205e-06,-2.30662e-05,1.77818e-05,-1.15931e-05,6.05098e-05,1.11228e-05,0
9.7464e-06,-7.10477e-05,-1.38724e-05,-1.30098e-05,2.35424e-05,-1.10765e-05,7.49276e-05,1.5173e-05,0
1.29071e-05,-3.3979e-05,-1.32979e-05,-4.39648e-06,2.99854e-05,-1.06486e-05,7.99385e-05,1.64575e-05,0
5.72229e-06,-7.13139e-06,-1.03493e-05,3.07753e-06,3.37478e-05,-1.00247e-05,8.30806e-05,1.51152e-05,0
-1.09847e-05,9.34806e-06,-5.91072e-06,2.83946e-05,3.10359e-05,-9.52384e-06,8.45061e-05,1.11341e-05,0
-3.02079e-05,1.90344e-05,-7.64516e-07,7.25669e-05,2.6166e-05,-8.33422e-06,8.11183e-05,6.27577e-06,0
-4.51788e-05,2.20472e-05,3.01201e-06,0.000103139,2.38847e-05,-6.64414e-06,7.13028e-05,4.18987e-06,0
-5.50546e-05,2.2104e-05,4.22474e-06,9.50041e-05,2.14187e-05,-6.68318e-06,5.62112e-05,4.82721e-06,0
-6.18368e-05,2.43437e-05,2.94158e-06,6.18419e-05,1.62429e-05,-1.0079e-05,3.78858e-05,4.97399e-06,0
-6.2842e-05,3.418e-05,-5.15076e-07,2.64428e-05,1.08192e-05,-1.32705e-05,2.27304e-05,4.38358e-06,0
-5.23207e-05,4.86699e-05,-7.20742e-06,-2.60931e-06,6.75967e-06,-1.34882e-05,1.52174e-05,3.99418e-06,0
-3.19497e-05,5.885e-05,-1.76544e-05,-3.46536e-05,4.37407e-06,-1.11049e-05,1.46509e-05,4.14971e-06,0
-1.24047e-05,5.72322e-05,-2.79336e-05,-7.98573e-05,2.40667e-06,-8.74153e-06,1.75918e-05,4.5685e-06,0
-2.97374e-06,3.93094e-05,-3.27348e-05,-0.000117127,7.00454e-07,-9.13822e-06,1.99374e-05,4.56459e-06,0
-6.3007e-06,9.21216e-06,-2.93353e-05,-0.000115423,7.77806e-07,-1.15373e-05,2.01974e-05,5.1648e-06,0
-1.73187e-05,-1.89627e-05,-2.25434e-05,-7.35422e-05,2.67249e-06,-1.26655e-05,1.86078e-05,5.83202e-06,0
-3.14405e-05,-4.55102e-05,-1.92116e-05,-3.71037e-06,5.46425e-06,-1.2256e-05,1.3814e-05,1.08282e-05,0
-4.59595e-05,-6.55439e-05,-1.94694e-05,7.58993e-05,8.56795e-06,-1.11949e-05,7.50512e-06,2.20012e-05,0
-5.90604e-05,-8.25549e-05,-1.92466e-05,0.000127794,1.08295e-05,-8.70962e-06,2.01054e-06,3.1291e-05,0
-6.69612e-05,-9.47933e-05,-1.66101e-05,0.000122788,1.24938e-05,-7.05529e-06,-1.20761e-06,3.22046e-05,0
-6.31479e-05,-7.84133e-05,-1.20122e-05,8.83441e-05,1.33935e-05,-7.12418e-06,-1.01344e-06,2.638e-05,0
-4.58398e-05,-4.24355e-05,-7.31657e-06,6.49865e-05,1.45173e-05,-7.2418e-06,-5.7387e-07,1.88442e-05,0
-1.92394e-05,-6.41399e-06,-4.62227e-06,4.4837e-05,1.69532e-05,-6.56208e-06,-1.89076e-06,1.01924e-05,0
1.93043e-06,2.00559e-05,-3.57087e-06,2.172e-05,2.07286e-05,-4.93314e-06,-6.2847e-06,1.37803e-06,0
6.09688e-06,3.84397e-05,-4.33269e-06,-7.94368e-06,2.19186e-05,-3.06351e-06,-1.1606e-05,-6.14606e-06,0
-5.27431e-06,5.55799e-05,-6.91835e-06,-4.06828e-05,1.76641e-05,-3.68238e-06,-1.56763e-05,-1.17842e-05,0
-2.02779e-05,7.58145e-05,-1.09753e-05,-6.11762e-05,1.25299e-05,-6.70912e-06,-1.96041e-05,-1.51948e-05,0
-2.5925e-05,8.50317e-05,-1.32254e-05,-6.22538e-05,1.09228e-05,-8.37852e-06,-2.26727e-05,-1.58983e-05,0
-2.02563e-05,7.58794e-05,-1.15436e-05,-4.96796e-05,1.30032e-05,-8.87323e-06,-2.15302e-05,-1.39648e-05,0
-1.37752e-05,5.83005e-05,-7.05877e-06,-3.36742e-05,1.52704e-05,-9.43898e-06,-1.31643e-05,-1.25692e-05,0
-1.6148e-05,4.188e-05,-2.89859e-06,-1.85929e-05,1.64253e-05,-9.40295e-06,2.60012e-06,-1.3934e-05,0
-2.61585e-05,3.16438e-05,-1.98368e-06,-8.77716e-06,1.55085e-05,-9.34682e-06,2.05733e-05,-1.55862e-05,0
-3.7908e-05,2.80783e-05,-1.54262e-06,-2.96242e-06,1.30493e-05,-1.03376e-05,3.1818e-05,-1.38994e-05,0
-4.70496e-05,3.07743e-05,3.09031e-07,1.17278e-06,1.1179e-05,-1.1238e-05,2.77899e-05,-9.18793e-06,0
-5.41573e-05,3.15586e-05,1.84668e-06,7.44569e-06,1.00883e-05,-1.11775e-05,4.60964e-06,-4.72163e-06,0
-6.10415e-05,2.41801e-05,1.67865e-07,1.21218e-05,9.4435e-06,-9.68417e-06,-2.62106e-05,-1.54635e-06,0
-6.70523e-05,8.50117e-06,-3.75256e-06,8.87032e-06,9.65153e-06,-7.16898e-06,-4.05904e-05,1.23895e-06,0
-6.95655e-05,-1.03281e-05,-5.49178e-06,-3.29301e-06,1.01349e-05,-5.85236e-06,-2.76061e-05,2.14271e-06,0
-6.76945e-05,-3.25196e-05,-2.90998e-06,-1.72378e-05,1.06371e-05,-6.31189e-06,8.47175e-07,1.84143e-06,0
-6.28468e-05,-4.82289e-05,-7.29109e-08,-2.87685e-05,1.12391e-05,-7.6303e-06,2.89988e-05,1.88528e-06,0
-5.63821e-05,-4.24687e-05,3.11108e-07,-3.57046e-05,1.16001e-05,-8.75209e-06,4.96957e-05,3.29131e-06,0
-4.82026e-05,-1.93564e-05,1.14669e-06,-3.69188e-05,1.18005e-05,-8.71119e-06,6.23989e-05,5.1163e-06,0
-4.09824e-05,2.68457e-06,3.57834e-06,-3.35234e-05,1.08151e-05,-8.59032e-06,6.80024e-05,5.27523e-06,0
-4.27577e-05,1.35071e-05,4.63791e-06,-2.52789e-05,9.1566e-06,-9.10776e-06,4.98181e-05,3.50509e-06,0
-5.41189e-05,1.19171e-05,3.91991e-06,-1.42081e-05,8.06074e-06,-7.32385e-06,-2.89133e-05,5.67258e-07,0
-5.99289e-05,3.87918e-06,2.31833e-06,-7.14036e-06,8.05367e-06,-6.09559e-06,-0.00012317,-2.57603e-06,0
-4.9175e-05,-1.60581e-06,-8.13285e-07,-9.1878e-06,1.07586e-05,-7.80976e-06,-0.000135663,-4.28496e-06,0
-2.97961e-05,-2.93647e-06,-4.26687e-06,-1.40454e-05,1.42097e-05,-8.80307e-06,-6.14826e-05,-4.76939e-06,0
-1.81886e-05,-1.28731e-06,-6.63758e-06,-1.48135e-05,1.3804e-05,-9.09622e-06,3.77883e-05,-6.03545e-06,0
-1.87613e-05,5.05529e-06,-8.00501e-06,-1.25452e-05,1.04209e-05,-9.5964e-06,0.000108338,-9.81673e-06,0
-2.13086e-05,1.54961e-05,-8.9721e-06,-1.13013e-05,8.30594e-06,-1.02445e-05,0.000137688,-1.52502e-05,0
-1.62623e-05,2.26068e-05,-5.65069e-06,-1.23139e-05,8.86531e-06,-1.02374e-05,0.000134275,-1.62324e-05,0
-6.29486e-06,2.51234e-05,3.0854e-06,-1.55721e-05,9.81521e-06,-8.65088e-06,0.000114686,-1.2942e-05,0
-1.9284e-06,2.56526e-05,1.22234e-05,-2.00041e-05,1.02156e-05,-6.57042e-06,8.80704e-05,-8.77174e-06,0
-6.54777e-06,2.70282e-05,1.8587e-05,-2.44503e-05,1.14182e-05,-5.8369e-06,6.12303e-05,-5.45029e-06,0
-1.47814e-05,2.85632e-05,2.52128e-05,-2.60226e-05,1.30909e-05,-7.22116e-06,4.14819e-05,-3.51291e-06,0
-2.17149e-05,2.95543e-05,3.69544e-05,-2.40024e-05,1.46576e-05,-8.876e-06,2.8961e-05,-3.68053e-06,0
-2.81362e-05,3.01115e-05,5.20559e-05,-1.91831e-05,1.55724e-05,-9.29619e-06,2.54248e-05,-5.13211e-06,0
-3.44232e-05,3.08105e-05,5.95405e-05,-1.22443e-05,1.48537e-05,-8.19519e-06,2.69782e-05,-4.54558e-06,0
-3.79603e-05,3.22315e-05,5.04323e-05,-2.92309e-06,1.32028e-05,-6.31646e-06,2.54739e-05,-2.0283e-06,0
-3.70532e-05,3.27414e-05,2.48022e-05,7.78381e-06,1.40526e-05,-4.6867e-06,2.1509e-05,1.13813e-07,0
-3.37812e-05,3.14142e-05,-1.06434e-05,1.53883e-05,1.798e-05,-3.58966e-06,3.85541e-05,5.93074e-07,0
-2.97773e-05,2.88535e-05,-4.2709e-05,1.43382e-05,2.05322e-05,-2.83738e-06,8.3897e-05,1.10033e-06,0
-2.51655e-05,2.62529e-05,-6.15815e-05,4.85662e-06,2.00942e-05,-1.65487e-06,0.000130614,2.10683e-06,0
-2.01273e-05,2.38851e-05,-6.62017e-05,-6.21254e-06,1.79005e-05,-1.31443e-06,0.00014042,2.89981e-06,0
-1.46211e-05,2.2435e-05,-5.85727e-05,-1.11812e-05,1.53379e-05,-2.96956e-06,0.000100359,3.01238e-06,0
-8.35348e-06,2.19452e-05,-4.51916e-05,-8.39331e-06,1.44391e-05,-4.77226e-06,2.69832e-05,2.1232e-06,0
-2.37665e-06,2.25045e-05,-3.72955e-05,-4.92646e-06,1.60688e-05,-4.83745e-06,-4.98576e-05,5.27634e-07,0
1.46051e-06,2.3854e-05,-3.46209e-05,-7.11546e-06,1.77865e-05,-3.84827e-06,-0.000111896,-4.40178e-07,0
8.1759e-07,2.3828e-05,-3.05263e-05,-1.35587e-05,1.70567e-05,-4.16153e-06,-0.000150541,-4.02718e-07,0
-4.14829e-06,2.24419e-05,-2.60966e-05,-1.72973e-05,1.4792e-05,-5.07313e-06,-0.000153843,-4.22337e-07,0
-8.30727e-06,2.19664e-05,-2.06136e-05,-1.42611e-05,1.20775e-05,-4.35015e-06,-0.000125359,-2.4063e-06,0
-1.15752e-05,2.3535e-05,-1.45154e-05,-1.15047e-05,8.00807e-06,-3.34108e-06,-9.11753e-05,-3.63694e-06,0
-1.49709e-05,2.35018e-05,-1.13547e-05,-1.71187e-05,6.28832e-06,-3.50745e-06,-7.63208e-05,-1.68529e-06,0
-1.855e-05,2.08417e-05,-9.21551e-06,-2.47655e-05,9.45384e-06,-3.89888e-06,-7.66847e-05,1.42106e-07,0
-2.28169e-05,1.80397e-05,-7.71247e-06,-2.85554e-05,1.31976e-05,-3.36514e-06,-7.23186e-05,-1.1914e-07,0
-2.58608e-05,1.47909e-05,-7.17908e-06,-2.93695e-05,1.40769e-05,-2.52703e-06,-5.57139e-05,-2.11495e-06,0
-2.64572e-05,1.51061e-05,-5.48059e-06,-2.54715e-05,1.50646e-05,-4.15686e-06,-3.38328e-05,-5.05848e-06,0
-2.54259e-05,1.78449e-05,-4.04872e-06,-1.56425e-05,1.79632e-05,-7.70256e-06,-1.22914e-05,-8.55244e-06,0
-2.48314e-05,1.95221e-05,-4.25231e-06,-2.44856e-06,1.94188e-05,-9.06708e-06,7.84203e-06,-1.01422e-05,0
-2.39747e-05,2.07026e-05,-5.06683e-06,9.61032e-06,1.89584e-05,-8.46714e-06,2.43009e-05,-9.08562e-06,0
-2.28962e-05,2.22823e-05,-4.56495e-06,1.54267e-05,1.69624e-05,-7.60685e-06,3.41053e-05,-5.68313e-06,0
-2.34954e-05,2.42808e-05,-2.67803e-06,1.46836e-05,1.37037e-05,-7.86714e-06,4.02833e-05,-8.67052e-07,0
-2.64991e-05,2.5451e-05,-1.60465e-06,1.22974e-05,1.12093e-05,-8.7972e-06,4.64375e-05,2.38063e-06,0
-3.00567e-05,2.49228e-05,-3.49692e-06,8.88088e-06,1.11656e-05,-1.03234e-05,5.1299e-05,2.80754e-06,0
-3.13805e-05,2.235e-05,-8.71327e-06,4.24025e-06,1.13955e-05,-1.26045e-05,5.16297e-05,1.40551e-06,0
-3.1062e-05,1.89283e-05,-1.36457e-05,3.53188e-06,1.04263e-05,-1.43271e-05,4.83295e-05,-3.19226e-07,0
-3.18044e-05,1.59626e-05,-1.40422e-05,1.13373e-05,8.80107e-06,-1.43818e-05,4.70289e-05,-7.70659e-07,0
-3.38752e-05,1.45698e-05,-1.01726e-05,2.26647e-05,7.97271e-06,-1.42386e-05,5.4138e-05,6.31883e-07,0
-3.55283e-05,1.46486e-05,-6.63785e-06,2.92525e-05,8.33111e-06,-1.54701e-05,6.67324e-05,2.09963e-06,0
-3.5938e-05,1.60319e-05,-5.40368e-06,2.98451e-05,8.3741e-06,-1.60152e-05,7.41675e-05,2.03702e-06,0
-3.47115e-05,1.65303e-05,-5.49604e-06,2.50686e-05,6.88287e-06,-1.53304e-05,7.50014e-05,1.09891e-06,0
-3.39319e-05,1.42053e-05,-6.84774e-06,1.54319e-05,4.20405e-06,-1.48828e-05,6.79479e-05,4.90047e-07,0
-3.51221e-05,9.80013e-06,-1.09925e-05,4.77431e-06,2.35706e-06,-1.6055e-05,4.13746e-05,2.00384e-07,0
-3.66302e-05,4.11137e-06,-1.58951e-05,-4.53341e-06,2.46816e-06,-1.7563e-05,2.09025e-06,1.80398e-07,0
-3.65433e-05,1.72745e-07,-1.81227e-05,-1.55325e-05,3.73412e-06,-1.86838e-05,-2.89709e-05,-9.61722e-07,0
-3.61782e-05,1.04528e-06,-1.78362e-05,-2.92344e-05,5.00236e-06,-1.97843e-05,-4.15141e-05,-3.72463e-06,0
-3.79556e-05,3.36411e-06,-1.7185e-05,-4.02499e-05,8.77893e-06,-2.12156e-05,-3.50241e-05,-5.50426e-06,0
-4.0234e-05,1.54502e-06,-1.9865e-05,-4.28449e-05,1.50329e-05,-2.27205e-05,-1.97326e-05,-5.04186e-06,0
-4.232e-05,-2.02588e-06,-2.35162e-05,-3.56973e-05,1.73264e-05,-2.52995e-05,-1.52277e-05,-3.86617e-06,0
-4.39863e-05,-2.99792e-06,-2.34047e-05,-2.66213e-05,1.33536e-05,-2.57238e-05,-3.54701e-05,-2.54507e-06,0
-4.43618e-05,-2.07301e-06,-1.97551e-05,-2.66908e-05,1.00331e-05,-2.29987e-05,-6.28275e-05,-1.59167e-06,0
-4.50773e-05,4.61441e-07,-1.4242e-05,-3.13678e-05,9.81167e-06,-2.04425e-05,-6.75567e-05,-1.76352e-06,0
-4.49405e-05,2.12408e-06,-5.50818e-06,-2.97612e-05,1.05499e-05,-1.90582e-05,-4.37464e-05,-2.70498e-06,0
-4.32403e-05,1.91642e-06,6.50786e-06,-2.10629e-05,1.17907e-05,-1.90384e-05,-6.43227e-06,-3.78533e-06,0
-4.08677e-05,-1.04161e-06,1.97328e-05,-1.13565e-05,1.28556e-05,-1.76631e-05,2.46118e-05,-4.11019e-06,0
-3.82319e-05,-3.77328e-06,3.11025e-05,-7.10036e-06,1.17431e-05,-1.58955e-05,4.27366e-05,-3.75524e-06,0
-3.67242e-05,-1.67604e-06,3.47184e-05,-1.02428e-05,8.29564e-06,-1.48444e-05,5.14885e-05,-3.14777e-06,0
-3.66664e-05,2.54879e-06,2.62137e-05,-1.67564e-05,6.71309e-06,-1.36016e-05,5.5633e-05,-2.30654e-06,0
-3.65565e-05,3.76036e-06,5.06929e-06,-2.19908e-05,8.17308e-06,-1.25281e-05,5.71524e-05,-8.04418e-07,0
-3.58655e-05,4.90842e-07,-2.24793e-05,-2.18068e-05,1.08684e-05,-1.25336e-05,5.60231e-05,7.70466e-07,0
-3.55983e-05,-2.61577e-06,-4.64115e-05,-1.47793e-05,1.31163e-05,-1.26577e-05,5.29822e-05,2.34993e-06,0
-3.51466e-05,-2.72047e-06,-5.82962e-05,-6.16971e-06,1.46078e-05,-1.1785e-05,5.18294e-05,5.85614e-06,0
-3.42404e-05,-1.10817e-07,-5.7367e-05,-1.69673e-06,1.55934e-05,-1.02226e-05,5.40121e-05,1.64776e-05,0
-3.38276e-05,2.36175e-06,-5.00067e-05,-2.21796e-06,1.63426e-05,-8.09642e-06,5.44444e-05,3.28716e-05,0
-3.3788e-05,2.99891e-06,-4.08411e-05,-4.05067e-06,1.68137e-05,-6.46182e-06,5.1654e-05,4.38978e-05,0
-3.27468e-05,2.54691e-06,-3.13957e-05,-3.94082e-06,1.73058e-05,-6.6731e-06,4.69803e-05,4.36754e-05,0
-3.16759e-05,3.28489e-06,-2.35038e-05,-1.60846e-06,1.73296e-05,-7.95669e-06,4.17873e-05,3.2565e-05,0
-3.22948e-05,4.70186e-06,-1.67592e-05,-3.95403e-07,1.62123e-05,-8.25006e-06,3.71565e-05,1.16675e-05,0
-3.27712e-05,5.06387e-06,-1.0119e-05,-2.86038e-06,1.61646e-05,-6.82174e-06,3.39026e-05,-1.22853e-05,0
-3.21638e-05,4.47759e-06,-5.61835e-06,-6.26298e-06,1.78574e-05,-5.31634e-06,3.08026e-05,-2.94483e-05,0
-3.07966e-05,5.77162e-06,-4.18231e-06,-7.89203e-06,1.85232e-05,-5.68518e-06,2.56551e-05,-3.55774e-05,0
-2.89207e-05,1.08613e-05,-4.24756e-06,-9.14086e-06,1.69104e-05,-6.717e-06,2.10871e-05,-3.26772e-05,0
-2.83744e-05,1.49799e-05,-4.7515e-06,-1.15388e-05,1.51947e-05,-7.60519e-06,2.11815e-05,-2.82938e-05,0
-2.89138e-05,1.3166e-05,-6.053e-06,-1.44034e-05,1.57165e-05,-9.86464e-06,2.19836e-05,-2.20756e-05,0
-3.00514e-05,8.83097e-06,-6.99681e-06,-1.13492e-05,1.79726e-05,-1.18545e-05,1.85599e-05,-1.11583e-05,0
-3.05607e-05,7.30679e-06,-7.18761e-06,-1.1535e-06,1.94826e-05,-1.10254e-05,1.13518e-05,-1.60913e-06,0
-3.01434e-05,7.47316e-06,-7.59423e-06,1.30518e-05,1.89372e-05,-9.26066e-06,7.26816e-06,3.82233e-06,0
-3.00271e-05,6.88345e-06,-6.95192e-06,2.65957e-05,1.84969e-05,-8.92498e-06,5.07025e-06,8.37059e-06,0
-3.04989e-05,5.9774e-06,-5.39268e-06,3.32035e-05,1.84016e-05,-9.48015e-06,-9.93016e-06,1.30935e-05,0
-3.01357e-05,6.5506e-06,-4.48892e-06,3.17434e-05,1.72617e-05,-1.06142e-05,-3.89945e-05,1.60924e-05,0
-2.85728e-05,8.75107e-06,-2.73265e-06,2.4466e-05,1.76639e-05,-1.25923e-05,-6.23094e-05,1.77536e-05,0
-2.78344e-05,1.13012e-05,9.45824e-08,2.05186e-05,1.89746e-05,-1.30966e-05,-8.35499e-05,1.84262e-05,0
-2.80446e-05,1.16262e-05,2.68403e-06,2.04975e-05,1.88327e-05,-1.12377e-05,-0.000108497,1.79099e-05,0
-2.92645e-05,1.14709e-05,4.07702e-06,1.99161e-05,1.6967e-05,-8.80155e-06,-0.00010759,1.46608e-05,0
-3.03005e-05,1.23584e-05,2.80776e-06,1.72734e-05,1.48474e-05,-7.15519e-06,-6.44246e-05,1.02916e-05,0
-2.95587e-05,1.30553e-05,-8.21788e-07,1.23254e-05,1.38681e-05,-6.14313e-06,4.1561e-06,7.74312e-06,0
-2.7306e-05,1.34215e-05,-4.87869e-06,6.12095e-06,1.44566e-05,-5.37528e-06,6.57261e-05,7.20232e-06,0
-2.60721e-05,1.29158e-05,-8.62324e-06,-3.52644e-08,1.56361e-05,-4.26468e-06,0.000101809,8.33308e-06,0
-2.66229e-05,1.17358e-05,-1.1648e-05,-5.15578e-06,1.54481e-05,-3.40292e-06,0.000110807,8.81297e-06,0
-2.74653e-05,1.222e-05,-1.34973e-05,-9.21826e-06,1.43305e-05,-2.98592e-06,0.000100124,8.02921e-06,0
-2.85008e-05,1.46986e-05,-1.45563e-05,-1.0842e-05,1.34917e-05,-2.32651e-06,8.06781e-05,7.15624e-06,0
-2.99979e-05,1.6329e-05,-1.46115e-05,-1.05426e-05,1.3421e-05,-1.8838e-06,6.33911e-05,6.45724e-06,0
-3.1097e-05,1.75498e-05,-1.35357e-05,-1.03036e-05,1.35843e-05,-2.05429e-06,5.11344e-05,5.69914e-06,0
-3.10678e-05,2.04729e-05,-1.2316e-05,-1.1399e-05,1.30675e-05,-2.93969e-06,3.94616e-05,6.35444e-06,0
-2.99991e-05,2.44546e-05,-1.18169e-05,-1.20799e-05,1.17347e-05,-3.62211e-06,2.8313e-05,7.71082e-06,0
-2.96289e-05,2.61107e-05,-1.18682e-05,-1.1698e-05,1.09772e-05,-4.39659e-06,2.1022e-05,7.37953e-06,0
-2.97994e-05,2.5924e-05,-1.18757e-05,-1.17322e-05,1.27874e-05,-5.9504e-06,1.76579e-05,5.60667e-06,0
-2.87672e-05,2.53938e-05,-1.11853e-05,-1.34833e-05,1.68309e-05,-7.69004e-06,3.7389e-06,4.77348e-06,0
-2.82532e-05,2.02849e-05,-9.95094e-06,-1.4581e-05,1.92899e-05,-7.4592e-06,-3.53042e-05,4.40731e-06,0
-2.91986e-05,1.22725e-05,-8.37646e-06,-1.40223e-05,2.02036e-05,-7.4716e-06,-7.37344e-05,5.21562e-06,0
-3.03329e-05,6.92285e-06,-6.59652e-06,-1.18112e-05,1.94419e-05,-7.64374e-06,-7.15747e-05,9.3523e-06,0
-2.98957e-05,6.76798e-06,-4.49421e-06,-8.32856e-06,1.63866e-05,-6.13288e-06,-3.80043e-05,1.16626e-05,0
-2.8064e-05,1.05868e-05,-2.26156e-06,-8.67664e-06,1.36826e-05,-6.38871e-06,2.38763e-06,1.04485e-05,0
-2.65754e-05,1.44032e-05,-1.68731e-06,-1.44336e-05,1.27515e-05,-7.49474e-06,3.69715e-05,8.82571e-06,0
-2.66671e-05,1.72722e-05,-1.26982e-06,-1.74768e-05,1.29311e-05,-7.18431e-06,5.66489e-05,8.25377e-06,0
-2.73807e-05,1.91864e-05,7.98048e-07,-1.26558e-05,1.30079e-05,-6.65916e-06,6.04815e-05,8.16043e-06,0
-2.76281e-05,1.93949e-05,2.77359e-06,-4.84622e-06,1.3658e-05,-6.8845e-06,5.46523e-05,5.22326e-06,0
-2.81173e-05,1.69978e-05,3.73953e-06,3.38107e-06,1.53869e-05,-6.75264e-06,4.67567e-05,1.0083e-06,0
-2.91637e-05,1.64387e-05,3.72164e-06,1.24301e-05,1.75481e-05,-7.5806e-06,3.97793e-05,-1.16902e-06,0
-3.04833e-05,1.83553e-05,4.63742e-06,2.02618e-05,1.77646e-05,-9.40202e-06,3.42536e-05,-2.5938e-06,0
-3.07229e-05,1.9626e-05,5.40162e-06,2.40034e-05,1.56858e-05,-1.05838e-05,2.84836e-05,-5.66323e-06,0
-3.03527e-05,2.06637e-05,5.19002e-06,2.20696e-05,1.29415e-05,-1.12585e-05,2.32007e-05,-8.7407e-06,0
-3.07049e-05,2.12935e-05,4.20797e-06,1.47663e-05,1.02757e-05,-1.26268e-05,2.13894e-05,-8.89588e-06,0
-3.07545e-05,2.07052e-05,2.40508e-06,6.17823e-06,8.38819e-06,-1.47316e-05,2.37401e-05,-5.8327e-06,0
-2.9741e-05,1.98634e-05,-4.75838e-07,6.18764e-07,7.88192e-06,-1.51441e-05,2.60501e-05,-2.1619e-06,0
-2.8244e-05,2.04661e-05,-4.23224e-06,-1.27782e-06,7.89883e-06,-1.34913e-05,2.54589e-05,-9.7831e-07,0
-2.7774e-05,2.13708e-05,-7.52749e-06,-3.01594e-06,7.98837e-06,-1.17737e-05,2.05828e-05,-1.64416e-06,0
-2.9267e-05,2.17865e-05,-1.1682e-05,-8.3482e-06,8.32227e-06,-1.16729e-05,1.13612e-05,-1.51162e-06,0
-3.14798e-05,2.1484e-05,-1.543e-05,-1.4782e-05,8.5396e-06,-1.22869e-05,1.65616e-06,1.11431e-07,0
-3.22667e-05,1.92598e-05,-1.68823e-05,-1.48963e-05,8.62024e-06,-1.261e-05,-2.7757e-06,2.01256e-06,0
-3.17117e-05,1.50111e-05,-1.62117e-05,-5.39002e-06,8.66033e-06,-1.27853e-05,-3.42386e-07,3.06003e-06,0
-3.22667e-05,1.31229e-05,-1.43916e-05,9.15287e-06,8.60471e-06,-1.36589e-05,3.17999e-06,2.48415e-06,0
-3.27421e-05,1.61467e-05,-1.239e-05,2.00753e-05,8.5236e-06,-1.41876e-05,1.2173e-06,1.84497e-06,0
-3.21978e-05,2.28327e-05,-1.15649e-05,2.06024e-05,8.18498e-06,-1.27614e-05,-4.99399e-06,6.76228e-07,0
-3.32379e-05,3.13256e-05,-1.12749e-05,1.00452e-05,5.21236e-06,-1.00031e-05,-5.01728e-06,-1.46561e-06,0
-3.49021e-05,3.8706e-05,-1.12398e-05,-5.53852e-06,8.72993e-07,-8.18629e-06,2.94879e-06,-1.92284e-06,0
-3.46246e-05,4.13755e-05,-1.15516e-05,-1.74838e-05,5.00786e-07,-7.06522e-06,9.65144e-06,-5.97588e-07,0
-3.23282e-05,4.02663e-05,-1.16028e-05,-2.35998e-05,4.38959e-06,-5.09302e-06,9.83956e-06,-9.68571e-07,0
-2.7362e-05,3.70996e-05,-1.16997e-05,-2.59068e-05,8.41348e-06,-3.10779e-06,5.13335e-06,-2.79266e-06,0
-2.06954e-05,3.29791e-05,-1.13995e-05,-2.57805e-05,1.16673e-05,-1.20218e-06,1.114e-06,-4.52652e-06,0
-1.56239e-05,2.74774e-05,-1.11645e-05,-2.85394e-05,1.22364e-05,-2.10505e-07,8.51606e-07,-5.49592e-06,0
-1.39952e-05,1.49047e-05,-1.23523e-05,-3.4628e-05,1.00711e-05,-2.4158e-06,2.70477e-06,-5.96436e-06,0
-1.7027e-05,-4.59443e-06,-1.23099e-05,-3.5888e-05,8.16543e-06,-7.32234e-06,4.66626e-06,-5.41893e-06,0
-1.85589e-05,-2.08111e-05,-8.56313e-06,-2.98446e-05,6.4783e-06,-1.12726e-05,4.16496e-06,-3.29178e-06,0
-1.39277e-05,-2.04808e-05,-4.61663e-06,-2.13392e-05,6.72662e-06,-1.10917e-05,3.71708e-06,-2.16632e-06,0
-8.56783e-06,-4.73233e-06,-3.88499e-06,-1.59648e-05,8.46914e-06,-7.18529e-06,1.61773e-06,-2.00172e-06,0
-7.84643e-06,1.27154e-05,-4.98348e-06,-1.23137e-05,9.79772e-06,-3.99168e-06,-6.24502e-06,-1.94886e-06,0
-1.27058e-05,2.16336e-05,-5.88276e-06,-3.63116e-06,1.04373e-05,-3.80805e-06,-1.64583e-05,-1.37675e-06,0
-2.31032e-05,2.0365e-05,-6.23222e-06,1.17919e-05,1.00731e-05,-5.59588e-06,-1.95472e-05,-1.75574e-06,0
-3.63157e-05,1.33089e-05,-5.1267e-06,2.62602e-05,9.19048e-06,-7.65909e-06,-9.21714e-06,-3.1965e-06,0
-4.75073e-05,6.51989e-06,-2.88793e-06,2.79641e-05,9.50175e-06,-8.47803e-06,9.70589e-06,-4.88947e-06,0
-5.51309e-05,3.80529e-06,-1.45294e-06,1.496e-05,1.17429e-05,-8.20562e-06,2.7956e-05,-6.13781e-06,0
-5.80446e-05,3.51043e-06,-1.64571e-06,-1.54565e-06,1.38988e-05,-8.98683e-06,3.85633e-05,-6.64553e-06,0
-5.80946e-05,1.97995e-06,-1.70445e-06,-1.01467e-05,1.5453e-05,-1.20734e-05,4.13728e-05,-6.33618e-06,0
-5.83698e-05,-1.19249e-06,-3.26383e-07,-7.89382e-06,1.80458e-05,-1.53358e-05,3.92816e-05,-4.00735e-06,0
-5.85228e-05,-4.00463e-06,1.26519e-06,2.19631e-06,2.11781e-05,-1.71212e-05,3.47695e-05,-2.11933e-07,0
-5.60082e-05,-5.59711e-06,1.63863e-06,1.47988e-05,2.32312e-05,-1.8022e-05,2.7408e-05,3.31276e-06,0
-5.00865e-05,-5.60984e-06,1.4183e-06,2.40555e-05,2.47891e-05,-1.8722e-05,1.73997e-05,5.66736e-06,0
-4.32074e-05,-5.51259e-06,9.85342e-07,2.74557e-05,2.67965e-05,-1.86491e-05,5.73197e-06,6.46062e-06,0
-3.81718e-05,-5.65698e-06,9.04421e-07,2.58698e-05,2.82853e-05,-1.77055e-05,-6.40374e-06,6.26146e-06,0
-3.46889e-05,-5.22605e-06,2.15314e-06,2.21245e-05,2.7979e-05,-1.75774e-05,-1.71655e-05,6.09533e-06,0
-3.22358e-05,-4.99183e-06,3.40326e-06,2.44345e-05,2.68893e-05,-1.78084e-05,-2.33594e-05,5.81716e-06,0
-2.93682e-05,-4.64978e-06,2.5739e-06,3.01444e-05,2.48107e-05,-1.76038e-05,-2.53594e-05,7.00987e-06,0
-2.59417e-05,-3.10112e-06,6.82388e-07,2.67179e-05,2.2327e-05,-1.7342e-05,-2.99476e-05,7.38859e-06,0
-2.34231e-05,-2.10802e-06,-2.37225e-06,1.13136e-05,2.1335e-05,-1.65629e-05,-4.13315e-05,5.30206e-06,0
-2.20301e-05,-2.7648e-06,-8.37375e-06,-5.24319e-06,2.0906e-05,-1.4383e-05,-4.78113e-05,4.69055e-06,0
-2.26305e-05,-3.15661e-06,-1.61851e-05,-1.44701e-05,1.81012e-05,-1.13843e-05,-4.04221e-05,6.15025e-06,0
-2.32883e-05,-1.12278e-06,-2.07329e-05,-2.16764e-05,1.30067e-05,-9.77502e-06,-2.73119e-05,6.5784e-06,0
-2.34282e-05,3.12165e-06,-1.95872e-05,-3.03364e-05,9.7656e-06,-8.96733e-06,-1.46459e-05,4.63436e-06,0
-2.45315e-05,4.62589e-06,-1.67808e-05,-3.79678e-05,9.1957e-06,-8.5464e-06,-2.93275e-07,2.0791e-06,0
-2.63937e-05,3.3296e-06,-1.28529e-05,-4.0368e-05,8.94068e-06,-8.38933e-06,2.0125e-05,1.36903e-06,0
-2.73911e-05,3.85315e-06,-8.86053e-06,-4.26037e-05,7.7589e-06,-7.45872e-06,3.99324e-05,3.18824e-06,0
-2.70281e-05,6.37497e-06,-7.03265e-06,-4.75066e-05,6.49444e-06,-6.63582e-06,5.10225e-05,5.39067e-06,0
-2.62045e-05,6.79833e-06,-6.13703e-06,-5.08391e-05,5.84282e-06,-5.00243e-06,5.58795e-05,5.01343e-06,0
-2.57536e-05,4.72925e-06,-5.62402e-06,-4.90727e-05,6.56674e-06,-2.13808e-06,5.85862e-05,4.24339e-06,0
-2.53596e-05,3.79915e-06,-5.51753e-06,-3.96769e-05,8.80583e-06,-3.35776e-07,5.92695e-05,5.2816e-06,0
-2.46958e-05,4.45066e-06,-5.94757e-06,-2.76184e-05,1.01642e-05,-3.79292e-07,5.82932e-05,7.4338e-06,0
-2.4841e-05,5.21569e-06,-6.55876e-06,-2.04209e-05,8.79719e-06,-9.81621e-07,5.80086e-05,8.8155e-06,0
-2.6217e-05,5.32886e-06,-7.0403e-06,-1.83445e-05,6.22747e-06,-1.56592e-06,5.78985e-05,8.15059e-06,0
-2.75132e-05,6.74633e-06,-7.18347e-06,-1.52305e-05,5.13681e-06,-2.46341e-06,5.47161e-05,6.26814e-06,0
-2.79238e-05,9.05995e-06,-7.52558e-06,-1.03985e-05,6.21497e-06,-3.12101e-06,4.83616e-05,3.5001e-06,0
-2.76135e-05,8.92433e-06,-7.78861e-06,-8.48129e-06,8.10891e-06,-4.2098e-06,4.19493e-05,1.09735e-07,0
-2.67356e-05,6.24761e-06,-7.57005e-06,-1.2988e-05,9.28431e-06,-7.08831e-06,3.74451e-05,-1.98251e-06,0
-2.65786e-05,3.798e-06,-8.14982e-06,-2.0533e-05,9.81769e-06,-1.00028e-05,3.30069e-05,-1.37167e-07,0
-2.7207e-05,2.94156e-06,-1.05318e-05,-2.53194e-05,1.05516e-05,-1.03235e-05,2.65054e-05,2.96856e-06,0
-2.77769e-05,3.94895e-06,-1.3179e-05,-2.45015e-05,1.08922e-05,-9.66524e-06,1.96207e-05,4.14116e-06,0
-2.76517e-05,6.30287e-06,-1.34705e-05,-1.99413e-05,1.05784e-05,-1.01352e-05,1.49993e-05,3.69076e-06,0
-2.60732e-05,9.63766e-06,-1.22776e-05,-7.80613e-06,1.06103e-05,-1.09987e-05,1.41816e-05,2.37395e-06,0
-2.50908e-05,1.29602e-05,-1.15558e-05,1.45535e-05,1.1052e-05,-1.19983e-05,1.76668e-05,8.76856e-08,0
-2.60182e-05,1.39526e-05,-1.11103e-05,3.91232e-05,1.27572e-05,-1.23846e-05,2.32928e-05,-2.7372e-06,0
-2.8099e-05,1.55485e-05,-8.67342e-06,5.64179e-05,1.45496e-05,-1.12595e-05,2.76903e-05,-3.54666e-06,0
-2.99505e-05,1.84494e-05,-5.13158e-06,5.27445e-05,1.56041e-05,-8.88118e-06,2.83049e-05,-3.34659e-06,0
-2.95946e-05,1.87827e-05,-2.01902e-06,2.97004e-05,1.84161e-05,-5.93415e-06,2.63674e-05,-3.92283e-06,0
-2.94755e-05,1.63558e-05,-1.48145e-06,5.97556e-06,1.95475e-05,-3.6845e-06,2.33142e-05,-3.04967e-06,0
-3.03537e-05,1.37026e-05,-9.27384e-06,4.52099e-06,1.75065e-05,-2.88961e-06,1.83439e-05,-2.51567e-06,0
-3.15e-05,1.25938e-05,-2.2435e-05,3.04572e-05,1.55304e-05,-3.22682e-06,1.50215e-05,-3.61339e-06,0
-3.21422e-05,1.3188e-05,-3.19853e-05,5.50083e-05,1.45664e-05,-3.05573e-06,1.27186e-05,-4.91039e-06,0
-3.01392e-05,1.62546e-05,-3.25516e-05,4.45407e-05,1.46842e-05,-2.78233e-06,9.81436e-06,-6.19111e-06,0
-2.72731e-05,1.94631e-05,-2.43625e-05,-4.41759e-06,1.41434e-05,-2.30236e-06,5.99183e-06,-6.99379e-06,0
-2.57852e-05,1.89552e-05,-1.43148e-05,-5.16797e-05,1.44031e-05,-8.7522e-07,1.16607e-06,-5.67438e-06,0
-2.76628e-05,1.58469e-05,-8.41162e-06,-6.75314e-05,1.60144e-05,-6.14083e-07,-7.37332e-06,-3.4102e-06,0
-3.08287e-05,1.57609e-05,-6.18049e-06,-5.74184e-05,1.67199e-05,-2.06181e-06,-2.35802e-05,-3.64686e-06,0
-3.22474e-05,2.17801e-05,-3.89486e-06,-3.68667e-05,1.35929e-05,-2.90641e-06,-3.83424e-05,-5.95082e-06,0
-3.05416e-05,2.98684e-05,-1.09562e-07,-1.30527e-05,7.24333e-06,-1.7236e-06,-3.96323e-05,-7.30761e-06,0
-2.7339e-05,3.66114e-05,3.18611e-06,1.58809e-05,2.91627e-06,-5.0504e-07,-2.55849e-05,-6.01979e-06,0
-2.53791e-05,4.13725e-05,3.36588e-06,4.36047e-05,3.25979e-06,7.23809e-07,-4.94465e-06,-2.8108e-06,0
-2.50793e-05,4.29545e-05,5.81919e-07,5.37366e-05,5.36975e-06,2.17183e-06,1.50222e-05,-4.89943e-08,0
-2.5552e-05,4.10391e-05,-2.82763e-06,4.1785e-05,6.08191e-06,2.11904e-06,3.08523e-05,8.66074e-07,0
-2.61377e-05,3.80562e-05,-5.39644e-06,2.31107e-05,6.32046e-06,1.35858e-07,3.97666e-05,1.33086e-06,0
-2.69196e-05,3.73354e-05,-6.16589e-06,9.45538e-06,7.01636e-06,-1.75435e-06,4.15209e-05,2.20511e-06,0
-2.65166e-05,4.0753e-05,-5.23569e-06,1.62902e-06,9.05189e-06,-2.22028e-06,3.86303e-05,3.13767e-06,0
-2.57938e-05,4.57347e-05,-4.73336e-06,-3.07859e-06,1.21015e-05,-1.39783e-06,3.31672e-05,3.66134e-06,0
-2.54417e-05,4.81386e-05,-4.46399e-06,-4.59115e-06,1.53071e-05,-5.83208e-07,2.60075e-05,5.13431e-06,0
-2.59671e-05,4.93489e-05,-3.71993e-06,-5.38143e-06,1.8147e-05,-1.85476e-06,1.89116e-05,9.84869e-06,0
-2.70866e-05,5.22265e-05,-4.07342e-06,-6.52276e-06,2.01799e-05,-3.83421e-06,1.15025e-05,1.86788e-05,0
-2.82641e-05,5.15442e-05,-6.87172e-06,-7.40799e-06,1.9362e-05,-4.92709e-06,3.00491e-06,2.7787e-05,0
-2.8551e-05,4.05193e-05,-9.90818e-06,-6.26283e-06,1.67973e-05,-5.70698e-06,-8.8312e-06,3.25752e-05,0
-2.9708e-05,2.04315e-05,-1.10981e-05,-3.63015e-06,1.48351e-05,-7.34471e-06,-1.99875e-05,3.09299e-05,0
-3.31841e-05,-3.43602e-06,-1.05378e-05,-7.10595e-06,1.33251e-05,-8.81555e-06,-2.2284e-05,2.47436e-05,0
-3.55937e-05,-2.02173e-05,-8.42893e-06,-2.0691e-05,1.26773e-05,-9.75052e-06,-1.56891e-05,1.55106e-05,0
-3.54206e-05,-2.65406e-05,-8.62844e-06,-3.24225e-05,9.88798e-06,-1.10015e-05,-5.69756e-06,5.43641e-06,0
-3.42963e-05,-2.51663e-05,-1.07718e-05,-3.67999e-05,5.8648e-06,-1.28018e-05,-3.83865e-07,-2.7483e-06,0
-3.2975e-05,-1.52979e-05,-1.26417e-05,-3.81702e-05,4.16065e-06,-1.4106e-05,2.00628e-06,-9.46524e-06,0
-3.32327e-05,-4.1654e-06,-1.54193e-05,-3.4854e-05,2.48214e-06,-1.44737e-05,6.70857e-06,-1.58216e-05,0
-3.55193e-05,1.74611e-06,-1.88859e-05,-2.84214e-05,-1.04865e-07,-1.61315e-05,1.21777e-05,-2.26319e-05,0
-3.66026e-05,3.27487e-06,-2.12989e-05,-2.09451e-05,-1.81258e-06,-1.77046e-05,1.52665e-05,-2.6066e-05,0
-3.60789e-05,4.409e-06,-2.10563e-05,-9.32769e-06,-1.21928e-06,-1.69473e-05,1.4156e-05,-2.57027e-05,0
-3.43505e-05,7.9302e-06,-1.81162e-05,4.28901e-06,4.01306e-07,-1.55077e-05,1.2405e-05,-2.34042e-05,0
-3.22364e-05,1.35519e-05,-1.5168e-05,9.95996e-06,1.77029e-06,-1.52688e-05,9.57246e-06,-1.95899e-05,0
-3.12865e-05,1.85393e-05,-1.37031e-05,6.40752e-06,4.34669e-06,-1.55549e-05,2.7681e-06,-1.41528e-05,0
-3.26115e-05,2.12462e-05,-1.27795e-05,-5.01278e-06,7.81435e-06,-1.51949e-05,-6.56098e-06,-8.28442e-06,0
-3.4567e-05,2.22173e-05,-1.22787e-05,-2.25063e-05,9.94346e-06,-1.50919e-05,-1.20752e-05,-4.32024e-06,0
-3.53009e-05,2.21349e-05,-1.16998e-05,-3.72561e-05,1.10934e-05,-1.51984e-05,-9.3775e-06,-1.95516e-06,0
-3.5364e-05,2.12787e-05,-1.01197e-05,-3.82085e-05,1.50388e-05,-1.49334e-05,-2.46435e-07,9.78269e-07,0
-3.45782e-05,2.01937e-05,-8.26007e-06,-2.59664e-05,2.18618e-05,-1.47284e-05,9.83885e-06,4.12419e-06,0
-3.27292e-05,1.99934e-05,-6.81821e-06,-7.00066e-06,2.7749e-05,-1.48059e-05,1.55219e-05,5.08717e-06,0
-3.13967e-05,2.04455e-05,-4.34976e-06,1.64544e-05,3.06862e-05,-1.42878e-05,1.68949e-05,3.31952e-06,0
-3.18556e-05,1.99003e-05,-1.52307e-06,3.79728e-05,3.07203e-05,-1.30744e-05,1.84437e-05,1.06053e-07,0
-3.22991e-05,1.79018e-05,7.35666e-07,4.26236e-05,2.87886e-05,-1.23309e-05,2.29588e-05,-1.8851e-06,0
-3.11226e-05,1.6509e-05,2.29658e-06,2.31747e-05,2.58495e-05,-1.23678e-05,2.81635e-05,-2.3571e-06,0
-2.93696e-05,1.55105e-05,2.67697e-06,-4.79332e-06,2.23982e-05,-1.25915e-05,3.08073e-05,-2.21627e-06,0
-2.94423e-05,1.46842e-05,-1.00653e-07,-1.9167e-05,1.75374e-05,-1.33025e-05,3.12121e-05,-1.56031e-06,0
-3.09913e-05,1.46298e-05,-5.40198e-06,-1.75721e-05,1.03018e-05,-1.48287e-05,3.05249e-05,-9.26043e-07,0
-3.17839e-05,1.55395e-05,-8.75624e-06,-1.21872e-05,2.57917e-06,-1.62268e-05,2.82798e-05,-4.29928e-07,0
-3.25686e-05,1.6117e-05,-9.00872e-06,-8.71982e-06,-2.60407e-06,-1.58814e-05,2.44106e-05,3.54489e-08,0
-3.28603e-05,1.73381e-05,-7.03009e-06,-5.69477e-06,-2.37941e-06,-1.41667e-05,1.50385e-05,-9.80997e-07,0
-3.21028e-05,2.07508e-05,-4.22184e-06,-1.65473e-06,1.17891e-06,-1.25901e-05,7.16947e-06,-1.72937e-06,0
-3.0779e-05,2.23951e-05,-1.39533e-06,-1.18142e-06,5.50687e-07,-1.19313e-05,7.64345e-06,-2.25692e-07,0
-2.92171e-05,1.92834e-05,6.00357e-07,-5.64185e-06,-6.91872e-06,-1.46391e-05,1.03316e-05,1.1971e-06,0
-2.85677e-05,1.58441e-05,2.01506e-06,-1.1941e-05,-1.27946e-05,-1.72429e-05,1.21313e-05,9.86233e-07,0
-2.83113e-05,1.5259e-05,3.56164e-06,-1.60646e-05,-8.54076e-06,-1.62679e-05,9.9664e-06,1.57023e-06,0
-2.76575e-05,1.50728e-05,5.56291e-06,-1.49715e-05,2.54852e-06,-1.42893e-05,5.87418e-06,3.32725e-06,0
-2.63774e-05,1.43999e-05,8.76179e-06,-1.02852e-05,1.22656e-05,-1.36356e-05,2.80246e-06,4.08522e-06,0
-2.62083e-05,1.43598e-05,1.09323e-05,-6.29594e-06,1.69911e-05,-1.20766e-05,3.10172e-06,4.7779e-06,0
-2.69272e-05,1.4742e-05,1.06912e-05,-6.76001e-06,1.83232e-05,-8.56713e-06,6.03321e-06,5.70376e-06,0
-2.82248e-05,1.48255e-05,9.40455e-06,-1.03053e-05,2.02866e-05,-4.79426e-06,6.82636e-06,6.29896e-06,0
-2.98961e-05,1.50474e-05,9.48921e-06,-1.19619e-05,2.02691e-05,-1.87459e-06,5.59881e-06,6.55797e-06,0
-2.99319e-05,1.5468e-05,1.06689e-05,-1.06352e-05,1.21412e-05,-2.64841e-06,4.48416e-06,6.08384e-06,0
-2.79332e-05,1.65245e-05,1.24866e-05,-9.02796e-06,2.0787e-06,-7.0447e-06,5.8448e-06,5.32918e-06,0
-2.64839e-05,1.72003e-05,1.36963e-05,-6.96768e-06,2.73944e-06,-1.20481e-05,1.01199e-05,5.76449e-06,0
-2.69279e-05,1.67153e-05,1.23777e-05,-2.75006e-06,1.73006e-05,-1.65019e-05,1.71302e-05,7.68045e-06,0
