ch1,ch2,ch3,ch4,ch5,ch6,ch7,ch8,class
-2.73521e-05,1.48909e-05,-5.57045e-06,-1.60025e-05,8.56302e-06,-9.34122e-06,1.19734e-05,6.10046e-06,0
-2.70413e-05,1.51497e-05,-5.06144e-06,4.18411e-07,8.58941e-06,-8.31358e-06,1.2557e-05,5.13299e-06,0
-2.76225e-05,1.42338e-05,-4.63445e-06,1.27928e-05,9.44199e-06,-9.62127e-06,1.31502e-05,5.42137e-06,0
-2.83438e-05,1.04561e-05,-5.6913e-06,1.81406e-05,1.06434e-05,-1.06212e-05,1.36185e-05,7.96913e-06,0
-2.91182e-05,6.20471e-06,-6.35251e-06,1.76419e-05,1.16461e-05,-9.78996e-06,1.49042e-05,1.00463e-05,0
-3.11355e-05,4.5878e-06,-6.01614e-06,1.3377e-05,1.13908e-05,-7.55443e-06,1.57258e-05,1.05695e-05,0
-3.38461e-05,6.21414e-06,-5.24814e-06,9.28933e-06,9.87924e-06,-5.53023e-06,1.49764e-05,9.97098e-06,0
-3.55702e-05,6.70476e-06,-5.66641e-06,5.11765e-06,8.23926e-06,-4.97948e-06,1.35794e-05,8.52041e-06,0
-3.50122e-05,5.90636e-06,-7.0236e-06,-1.21763e-07,7.803e-06,-5.75792e-06,1.19996e-05,6.91572e-06,0
-3.29941e-05,5.51312e-06,-9.04008e-06,-5.32764e-06,6.72851e-06,-6.24332e-06,1.13541e-05,4.92833e-06,0
-3.08225e-05,7.16647e-06,-9.80063e-06,-6.50001e-06,5.20705e-06,-5.94973e-06,1.13085e-05,2.93199e-06,0
-2.95503e-05,9.37004e-06,-8.40003e-06,-2.59411e-06,5.69073e-06,-5.35985e-06,9.86363e-06,1.86579e-06,0
-2.82964e-05,1.06937e-05,-6.44492e-06,2.95945e-06,9.13266e-06,-4.54658e-06,7.06509e-06,6.53854e-07,0
-2.66626e-05,1.09462e-05,-6.09745e-06,3.94831e-06,1.11634e-05,-4.90136e-06,3.89749e-06,-1.22516e-06,0
-2.50917e-05,1.13204e-05,-7.38121e-06,-1.22712e-06,1.04399e-05,-7.4831e-06,1.04269e-06,-2.4987e-06,0
-2.45288e-05,1.17022e-05,-9.65627e-06,-7.83356e-06,9.75782e-06,-1.10171e-05,2.63866e-07,-3.24936e-06,0
-2.5378e-05,1.21698e-05,-1.11853e-05,-1.2235e-05,1.10445e-05,-1.17211e-05,2.72725e-06,-3.63381e-06,0
-2.64851e-05,1.12142e-05,-1.10598e-05,-1.18454e-05,1.13135e-05,-1.11035e-05,7.78644e-06,-2.64248e-06,0
-2.77199e-05,9.2398e-06,-1.17343e-05,-6.68158e-06,9.33866e-06,-1.12691e-05,1.30972e-05,-1.91931e-06,0
-2.95344e-05,8.31791e-06,-1.32465e-05,-2.02231e-06,8.53271e-06,-1.32277e-05,1.59025e-05,-1.95232e-06,0
-2.98534e-05,8.44328e-06,-1.46154e-05,-8.15949e-07,8.73164e-06,-1.55252e-05,1.64327e-05,-2.06348e-06,0
-2.84991e-05,1.05708e-05,-1.55759e-05,-1.67203e-07,9.13596e-06,-1.6228e-05,1.57747e-05,-2.54499e-06,0
-2.77338e-05,1.3285e-05,-1.61681e-05,-2.6867e-07,1.1413e-05,-1.57957e-05,1.52197e-05,-3.42398e-06,0
-2.7687e-05,1.55249e-05,-1.40657e-05,-2.83488e-07,1.36167e-05,-1.39697e-05,1.60826e-05,-5.37606e-06,0
-2.68526e-05,1.70784e-05,-9.92642e-06,2.72831e-06,1.28995e-05,-1.1982e-05,1.60099e-05,-6.92772e-06,0
-2.59162e-05,1.61527e-05,-9.33652e-06,6.00329e-06,1.10687e-05,-1.10168e-05,1.30809e-05,-8.20814e-06,0
-2.75614e-05,1.30764e-05,-1.0826e-05,7.36439e-06,9.80557e-06,-1.15885e-05,9.4922e-06,-7.54059e-06,0
-2.98284e-05,1.20439e-05,-1.14815e-05,5.86213e-06,9.23882e-06,-1.38057e-05,8.44964e-06,-4.31746e-06,0
-3.07891e-05,1.3794e-05,-1.07859e-05,3.23294e-06,9.64382e-06,-1.5525e-05,9.66531e-06,-3.2981e-06,0
-3.07048e-05,1.61969e-05,-9.1761e-06,1.78051e-06,1.12101e-05,-1.41885e-05,1.15166e-05,-4.3854e-06,0
-2.97737e-05,1.95583e-05,-8.65238e-06,4.40631e-07,1.24956e-05,-1.22668e-05,1.38772e-05,-5.59601e-06,0
-2.9208e-05,2.31301e-05,-8.643e-06,-2.23929e-07,1.36222e-05,-1.10879e-05,1.63374e-05,-5.91202e-06,0
-2.91089e-05,2.38703e-05,-7.91193e-06,-3.81986e-07,1.49446e-05,-9.94699e-06,1.79992e-05,-4.03452e-06,0
-2.97433e-05,2.16099e-05,-7.19726e-06,-4.36558e-07,1.44626e-05,-8.99056e-06,1.77338e-05,-1.52311e-06,0
-3.00965e-05,1.93423e-05,-7.16425e-06,-1.0057e-06,1.27481e-05,-7.3524e-06,1.63633e-05,-5.57599e-07,0
-2.93212e-05,1.78895e-05,-6.4448e-06,-2.1433e-06,1.31699e-05,-5.85309e-06,1.4162e-05,-1.08286e-06,0
-2.87837e-05,1.72735e-05,-5.58645e-06,-5.64398e-06,1.49782e-05,-5.56541e-06,1.26646e-05,-2.18376e-06,0
-2.89005e-05,1.81957e-05,-5.77828e-06,-1.14159e-05,1.61065e-05,-6.89414e-06,1.37478e-05,-2.77883e-06,0
-2.91025e-05,1.88973e-05,-6.87424e-06,-1.69641e-05,1.66415e-05,-8.98002e-06,1.62383e-05,-6.72816e-07,0
-2.97296e-05,1.77165e-05,-8.55482e-06,-1.92193e-05,1.58184e-05,-1.04474e-05,1.65167e-05,2.82266e-06,0
-3.16564e-05,1.51599e-05,-1.04351e-05,-1.89395e-05,1.3188e-05,-1.01661e-05,8.41809e-06,3.7475e-06,0
-3.35424e-05,1.3518e-05,-1.14207e-05,-1.82771e-05,1.00821e-05,-9.07386e-06,-1.11215e-05,2.05435e-06,0
-3.36192e-05,1.30867e-05,-1.16771e-05,-1.58497e-05,8.6897e-06,-8.99968e-06,-3.16762e-05,2.18582e-07,0
-3.18215e-05,1.30256e-05,-1.21038e-05,-1.25618e-05,9.04586e-06,-9.47899e-06,-3.93254e-05,-2.75086e-07,0
-2.94497e-05,1.34709e-05,-1.24889e-05,-1.07055e-05,8.55256e-06,-9.35221e-06,-3.34748e-05,-1.34626e-06,0
-2.84347e-05,1.33745e-05,-1.17843e-05,-9.22955e-06,7.19912e-06,-8.48386e-06,-2.08113e-05,-2.05002e-06,0
-2.92815e-05,1.32399e-05,-9.3776e-06,-8.33339e-06,6.46623e-06,-8.63648e-06,-3.72606e-06,-1.13231e-06,0
-3.00449e-05,1.43163e-05,-6.73351e-06,-1.0819e-05,6.45693e-06,-1.08811e-05,1.75011e-05,-1.31288e-08,0
-3.00452e-05,1.71309e-05,-4.88688e-06,-1.10414e-05,7.57269e-06,-1.08564e-05,3.80664e-05,1.72294e-07,0
-2.96501e-05,1.95949e-05,-4.15871e-06,-1.78384e-06,9.55337e-06,-7.28704e-06,5.51554e-05,3.94797e-07,0
-2.95996e-05,1.93569e-05,-4.87132e-06,1.02051e-05,1.33924e-05,-4.778e-06,7.28764e-05,1.87187e-06,0
-3.03909e-05,1.903e-05,-5.59797e-06,1.30479e-05,1.75682e-05,-2.88702e-06,8.90902e-05,9.48425e-07,0
-2.9654e-05,1.95457e-05,-5.59917e-06,6.26195e-06,2.04187e-05,-1.9493e-06,9.48152e-05,-3.95759e-07,0
-2.84852e-05,1.97701e-05,-5.52056e-06,-3.22494e-06,2.07601e-05,-1.75776e-06,8.54101e-05,4.54029e-07,0
-2.83161e-05,1.84067e-05,-4.69802e-06,-1.02667e-05,1.81937e-05,-3.23329e-06,6.23071e-05,1.53512e-06,0
-2.75372e-05,1.60718e-05,-4.09456e-06,-1.3762e-05,1.62057e-05,-5.43287e-06,3.77202e-05,3.50083e-06,0
-2.74569e-05,1.39726e-05,-6.86604e-06,-1.36533e-05,1.55673e-05,-5.70358e-06,2.13182e-05,4.85775e-06,0
-2.82881e-05,1.29429e-05,-1.08161e-05,-9.65906e-06,1.65483e-05,-5.39339e-06,1.2049e-05,3.32911e-06,0
-2.8529e-05,1.26971e-05,-1.15548e-05,5.23749e-07,2.06062e-05,-4.88553e-06,4.49963e-06,1.4486e-06,0
-2.87667e-05,1.12578e-05,-9.59358e-06,1.3997e-05,2.62919e-05,-5.55857e-06,-3.20301e-06,1.65772e-06,0
-3.03557e-05,8.5399e-06,-6.98724e-06,2.39266e-05,2.81739e-05,-6.19715e-06,-7.92379e-06,2.60051e-06,0
-3.22858e-05,6.15917e-06,-3.99986e-06,2.83425e-05,2.60869e-05,-6.35966e-06,-9.18456e-06,2.0513e-06,0
-3.27896e-05,4.64917e-06,-1.08196e-06,2.88507e-05,2.35227e-05,-7.0657e-06,-9.24168e-06,1.05125e-06,0
-3.18174e-05,3.63169e-06,-4.68309e-07,2.78023e-05,2.14407e-05,-8.34394e-06,-9.75449e-06,7.25044e-07,0
-3.03623e-05,4.31477e-06,-1.75762e-06,2.53776e-05,1.95984e-05,-8.54309e-06,-9.76952e-06,5.95699e-08,0
-2.92172e-05,6.65749e-06,-2.08468e-06,2.06615e-05,1.85782e-05,-6.42006e-06,-9.29238e-06,-1.0734e-06,0
-2.84134e-05,8.72535e-06,-7.63882e-07,1.38752e-05,2.01559e-05,-4.01998e-06,-8.72675e-06,-2.16343e-06,0
-2.86531e-05,8.44698e-06,3.45629e-07,7.0436e-06,2.37693e-05,-3.42405e-06,-6.50234e-06,-3.05446e-06,0
-3.00826e-05,7.72234e-06,7.76622e-07,4.79928e-09,2.58755e-05,-4.5433e-06,-1.29978e-06,-3.34204e-06,0
-3.16559e-05,7.50625e-06,-1.30023e-07,-7.28021e-06,2.28664e-05,-6.43591e-06,4.93376e-06,-2.53238e-06,0
-3.13576e-05,6.07211e-06,-2.4535e-06,-1.40311e-05,1.82926e-05,-8.16587e-06,8.30152e-06,-2.23418e-06,0
-2.99937e-05,2.46392e-06,-5.11429e-06,-1.95377e-05,1.6144e-05,-8.32197e-06,6.74715e-06,-2.62199e-06,0
-2.94068e-05,-1.20094e-06,-7.4529e-06,-2.16828e-05,1.64403e-05,-6.45136e-06,1.68227e-06,-2.42361e-06,0
-2.90808e-05,-3.34838e-06,-8.22514e-06,-2.0465e-05,1.81172e-05,-5.61994e-06,-2.74369e-06,-1.01293e-06,0
-2.95951e-05,-3.96406e-06,-7.77826e-06,-1.91419e-05,1.78493e-05,-6.81767e-06,-2.80457e-07,-2.51415e-07,0
-3.1308e-05,-1.45679e-06,-8.76729e-06,-2.00836e-05,1.3203e-05,-6.66356e-06,7.97196e-06,-9.49016e-07,0
-3.24094e-05,8.03346e-07,-1.11439e-05,-2.07556e-05,6.13761e-06,-2.7643e-06,1.46387e-05,-2.10813e-06,0
-3.15992e-05,1.43703e-06,-1.29396e-05,-1.97876e-05,2.17701e-06,9.91983e-07,1.54334e-05,-1.86058e-06,0
-2.98284e-05,2.17018e-06,-1.38664e-05,-1.86171e-05,2.80042e-06,1.59963e-06,9.87249e-06,-5.66982e-07,0
-2.85359e-05,3.65728e-06,-1.39138e-05,-1.59761e-05,3.58316e-06,1.37435e-06,-1.65358e-06,-7.8808e-07,0
-2.88165e-05,6.38404e-06,-1.51667e-05,-1.16424e-05,3.65774e-06,-1.50125e-07,-1.32196e-05,-9.50814e-07,0
-2.87799e-05,8.70016e-06,-1.62521e-05,-6.28361e-06,4.16691e-06,-1.16758e-06,-1.43696e-05,-1.11977e-06,0
-2.77353e-05,1.03055e-05,-1.43727e-05,-2.08477e-06,4.76236e-06,-1.95156e-06,-4.69775e-06,-1.08909e-06,0
-2.71689e-05,1.03556e-05,-1.14097e-05,-1.28872e-06,5.86659e-06,-1.82899e-06,7.21847e-06,-1.07324e-06,0
-2.68207e-05,1.11395e-05,-9.08829e-06,-1.54079e-06,6.20248e-06,-1.79939e-06,1.46662e-05,-8.49135e-07,0
-2.73824e-05,1.35509e-05,-8.19465e-06,-4.55242e-07,6.37897e-06,-3.65876e-06,1.82229e-05,6.75984e-07,0
-2.88672e-05,1.47731e-05,-8.57071e-06,1.4275e-06,7.86248e-06,-5.32864e-06,2.09342e-05,1.7617e-06,0
-2.97125e-05,1.43876e-05,-9.26835e-06,1.89219e-06,9.69562e-06,-5.92059e-06,2.4207e-05,1.2447e-06,0
-2.98475e-05,1.36507e-05,-9.38538e-06,2.82549e-07,9.2516e-06,-5.68583e-06,2.60725e-05,-1.764e-09,0
-3.0834e-05,1.2872e-05,-9.30041e-06,-1.87189e-06,6.58877e-06,-5.98455e-06,2.66515e-05,-3.18119e-07,0
-3.26172e-05,1.19661e-05,-9.98805e-06,-4.15241e-06,3.75757e-06,-6.89817e-06,2.95764e-05,4.88653e-07,0
-3.34386e-05,1.15455e-05,-1.00377e-05,-7.00227e-06,2.25513e-06,-8.13269e-06,3.6423e-05,1.17606e-06,0
-3.2755e-05,1.21167e-05,-9.37727e-06,-8.28806e-06,2.63587e-06,-9.42404e-06,4.51531e-05,1.12202e-06,0
-3.19921e-05,1.31356e-05,-8.93021e-06,-5.2021e-06,3.6237e-06,-1.15814e-05,5.18542e-05,1.61264e-06,0
-3.12131e-05,1.4085e-05,-8.70358e-06,1.33169e-06,4.49079e-06,-1.36046e-05,5.29119e-05,3.62277e-06,0
-3.03062e-05,1.64455e-05,-8.16784e-06,6.29214e-06,4.13758e-06,-1.43689e-05,4.82648e-05,5.45249e-06,0
-3.01439e-05,1.8869e-05,-7.82298e-06,7.74051e-06,2.78595e-06,-1.47618e-05,4.10944e-05,4.71151e-06,0
-3.11523e-05,1.92145e-05,-9.20223e-06,1.09314e-05,3.02271e-06,-1.67035e-05,3.23826e-05,3.23075e-06,0
-3.18022e-05,1.70301e-05,-1.08805e-05,2.25325e-05,4.52077e-06,-1.82928e-05,2.00213e-05,2.96757e-06,0
-3.08822e-05,1.47413e-05,-1.05178e-05,3.72752e-05,5.59272e-06,-1.76396e-05,2.39165e-06,2.85697e-06,0
-3.10761e-05,1.4152e-05,-9.51156e-06,4.04325e-05,6.34373e-06,-1.61259e-05,-1.60397e-05,2.33602e-06,0
-3.1783e-05,1.3909e-05,-9.16274e-06,2.88576e-05,5.37029e-06,-1.66882e-05,-2.73761e-05,1.61426e-06,0
-3.0584e-05,1.06458e-05,-9.1245e-06,1.05175e-05,6.42891e-06,-1.9083e-05,-3.04507e-05,1.97607e-06,0
-2.94263e-05,7.76178e-06,-9.8392e-06,-5.2629e-06,1.10654e-05,-1.9345e-05,-2.8648e-05,1.29046e-06,0
-2.9241e-05,7.51993e-06,-1.06952e-05,-2.14583e-05,1.47774e-05,-1.68268e-05,-2.58642e-05,-1.11084e-06,0
-2.82184e-05,6.45369e-06,-1.12458e-05,-3.99077e-05,1.39624e-05,-1.3373e-05,-2.55702e-05,3.19283e-07,0
-2.69103e-05,4.51152e-06,-1.01691e-05,-4.94498e-05,1.09379e-05,-9.57489e-06,-2.2822e-05,3.28982e-06,0
-2.69021e-05,3.68462e-06,-9.0442e-06,-4.58922e-05,9.83665e-06,-6.99264e-06,-1.90403e-05,4.34132e-06,0
-2.66362e-05,4.20777e-06,-7.34073e-06,-3.34816e-05,1.00402e-05,-6.02699e-06,-2.56519e-05,4.0366e-06,0
-2.51581e-05,3.10957e-06,-3.82772e-06,-2.49782e-05,1.10168e-05,-5.12588e-06,-3.95197e-05,2.88798e-06,0
-2.46475e-05,3.13726e-06,-2.16596e-06,-2.45869e-05,1.3627e-05,-4.68363e-06,-4.25339e-05,2.13938e-06,0
-2.58086e-05,5.34916e-06,-3.58649e-06,-2.51747e-05,1.8667e-05,-5.60124e-06,-2.4715e-05,1.8053e-06,0
-2.68847e-05,6.99288e-06,-6.16122e-06,-2.34475e-05,2.18886e-05,-8.01641e-06,5.33299e-06,2.74068e-06,0
-2.67865e-05,7.64247e-06,-6.4788e-06,-2.01336e-05,2.18448e-05,-9.30883e-06,3.00618e-05,3.944e-06,0
-2.5736e-05,8.94174e-06,-3.79741e-06,-1.89952e-05,1.92289e-05,-9.17551e-06,4.45098e-05,4.44122e-06,0
-2.55812e-05,1.14566e-05,-3.84739e-07,-2.25489e-05,1.56246e-05,-9.46193e-06,5.21782e-05,4.53016e-06,0
-2.77142e-05,1.3703e-05,1.08697e-06,-2.68232e-05,1.31262e-05,-1.05489e-05,5.36292e-05,4.46827e-06,0
-3.07788e-05,1.4164e-05,4.20522e-07,-2.62494e-05,1.18654e-05,-1.0895e-05,4.99482e-05,4.60909e-06,0
-3.23554e-05,1.18722e-05,-9.02664e-07,-2.22492e-05,1.07529e-05,-1.09244e-05,4.45663e-05,5.34282e-06,0
-3.14087e-05,8.86768e-06,-1.10546e-06,-1.85751e-05,9.59164e-06,-1.22812e-05,3.9595e-05,6.52128e-06,0
-2.90786e-05,7.90411e-06,-7.04804e-07,-1.68434e-05,9.91709e-06,-1.47178e-05,3.442e-05,7.86696e-06,0
-2.70617e-05,9.21172e-06,-2.58853e-06,-1.53206e-05,1.12227e-05,-1.68813e-05,3.04581e-05,8.64642e-06,0
-2.701e-05,1.08918e-05,-6.37311e-06,-1.37355e-05,1.25222e-05,-1.72806e-05,2.75316e-05,8.82716e-06,0
-2.87393e-05,1.22356e-05,-9.70213e-06,-1.2435e-05,1.27614e-05,-1.59247e-05,2.55518e-05,8.86314e-06,0
-3.04325e-05,1.18697e-05,-1.07217e-05,-1.04298e-05,1.31213e-05,-1.49174e-05,2.39379e-05,9.21622e-06,0
-3.13842e-05,9.65184e-06,-9.2109e-06,-8.02779e-06,1.2837e-05,-1.49974e-05,2.11205e-05,9.44214e-06,0
-3.16992e-05,7.55222e-06,-7.86706e-06,-4.57064e-06,1.01862e-05,-1.53041e-05,1.69937e-05,7.23485e-06,0
-3.1557e-05,5.88122e-06,-8.50462e-06,-1.78867e-06,7.92409e-06,-1.62521e-05,1.38773e-05,3.84405e-06,0
-3.11083e-05,4.08086e-06,-1.03876e-05,-2.62566e-06,9.34538e-06,-1.73479e-05,1.23332e-05,2.07902e-06,0
-3.05961e-05,4.64052e-06,-1.37377e-05,-4.13564e-06,1.18234e-05,-1.79538e-05,1.21844e-05,2.09852e-06,0
-3.0379e-05,7.58564e-06,-1.58706e-05,-3.18834e-06,1.13399e-05,-1.82289e-05,1.33644e-05,2.24825e-06,0
-3.1906e-05,1.00605e-05,-1.26235e-05,-1.62693e-06,1.1402e-05,-1.75763e-05,1.27162e-05,2.32771e-07,0
-3.26393e-05,1.17557e-05,-9.02319e-06,-1.38545e-06,1.47719e-05,-1.61621e-05,8.58554e-06,-2.18823e-06,0
-3.15057e-05,1.26081e-05,-7.96165e-06,-5.47415e-08,1.74922e-05,-1.54487e-05,2.57394e-06,-3.47677e-06,0
-3.19889e-05,1.25751e-05,-7.97988e-06,1.80221e-06,1.87711e-05,-1.51258e-05,-1.67882e-06,-3.07851e-06,0
-3.23793e-05,1.1067e-05,-8.22519e-06,6.87472e-07,1.9106e-05,-1.51162e-05,-5.12881e-07,-1.25634e-06,0
-3.1351e-05,9.72395e-06,-8.16106e-06,-2.05339e-06,1.88936e-05,-1.5914e-05,3.94471e-06,-1.26883e-06,0
-3.00677e-05,9.67427e-06,-8.77804e-06,-2.59455e-06,1.84462e-05,-1.64323e-05,8.53814e-06,-1.73334e-06,0
-3.02539e-05,1.11315e-05,-8.11913e-06,-1.36305e-06,1.6684e-05,-1.54892e-05,1.24355e-05,-3.73548e-07,0
-3.09357e-05,1.33313e-05,-7.19222e-06,-4.33723e-07,1.57641e-05,-1.45857e-05,1.46689e-05,2.12406e-06,0
-3.05308e-05,1.59231e-05,-8.42135e-06,2.31139e-06,1.58727e-05,-1.35363e-05,1.3969e-05,3.35688e-06,0
-2.99905e-05,1.74692e-05,-1.20026e-05,6.16407e-06,1.54785e-05,-1.15164e-05,1.15793e-05,3.28809e-06,0
-2.95704e-05,1.73072e-05,-1.43212e-05,7.73737e-06,1.46669e-05,-9.31746e-06,1.07735e-05,2.4701e-06,0
-2.89747e-05,1.66027e-05,-1.37183e-05,5.72001e-06,1.55787e-05,-7.69157e-06,1.24764e-05,1.87144e-06,0
-2.8763e-05,1.49539e-05,-1.17225e-05,9.60424e-07,1.86398e-05,-6.07539e-06,1.5102e-05,2.30048e-06,0
-2.95854e-05,1.30482e-05,-1.00659e-05,-3.52301e-06,2.0375e-05,-4.18808e-06,1.76505e-05,3.50527e-06,0
-3.0936e-05,1.25006e-05,-1.01779e-05,-6.19431e-06,1.9744e-05,-3.48223e-06,2.04864e-05,5.70911e-06,0
-3.23147e-05,1.46592e-05,-1.06846e-05,-8.15387e-06,1.86496e-05,-3.8765e-06,2.13911e-05,6.22561e-06,0
-3.22568e-05,1.9219e-05,-1.03692e-05,-9.17094e-06,1.77159e-05,-4.50809e-06,1.91967e-05,4.94717e-06,0
-3.16838e-05,2.26739e-05,-1.05633e-05,-8.88437e-06,1.67907e-05,-4.44315e-06,1.49304e-05,3.91836e-06,0
-3.23544e-05,2.07943e-05,-1.12986e-05,-8.18908e-06,1.53419e-05,-4.09613e-06,9.73969e-06,3.78583e-06,0
-3.40829e-05,1.70693e-05,-9.96402e-06,-8.47527e-06,1.35237e-05,-4.09536e-06,5.5835e-06,3.71918e-06,0
-3.52986e-05,1.60571e-05,-7.50855e-06,-9.49636e-06,1.42256e-05,-4.16579e-06,6.42363e-06,3.70922e-06,0
-3.57543e-05,1.7677e-05,-7.70698e-06,-9.68755e-06,1.6832e-05,-5.57178e-06,1.04917e-05,5.01646e-06,0
-3.63183e-05,1.98599e-05,-1.02946e-05,-1.01106e-05,1.79508e-05,-7.66399e-06,1.31675e-05,5.59531e-06,0
-3.57647e-05,2.1551e-05,-1.16917e-05,-1.06393e-05,1.75223e-05,-7.6246e-06,1.20018e-05,4.45203e-06,0
-3.51653e-05,2.11943e-05,-1.16577e-05,-9.84168e-06,1.7128e-05,-6.39651e-06,5.77689e-06,3.74427e-06,0
-3.49179e-05,2.0542e-05,-1.15231e-05,-8.85713e-06,1.7774e-05,-6.59357e-06,-4.54871e-06,4.70614e-06,0
-3.33628e-05,2.07428e-05,-1.16247e-05,-4.23464e-06,1.82029e-05,-8.47128e-06,-1.06873e-05,5.37324e-06,0
-3.24601e-05,2.22678e-05,-1.19162e-05,5.11377e-06,1.80591e-05,-8.68949e-06,-5.49719e-07,4.33385e-06,0
-3.10225e-05,3.13518e-05,-1.20432e-05,1.37449e-05,1.87597e-05,-7.88316e-06,2.2107e-05,4.18621e-06,0
-2.83771e-05,4.67192e-05,-1.18483e-05,2.00549e-05,1.96841e-05,-7.38817e-06,4.18556e-05,5.10494e-06,0
-2.74252e-05,5.9525e-05,-1.22827e-05,2.19715e-05,2.10807e-05,-7.58971e-06,5.20713e-05,4.56838e-06,0
-2.73797e-05,6.39973e-05,-1.18231e-05,1.85252e-05,2.38739e-05,-7.78543e-06,5.86975e-05,2.86473e-06,0
-2.77287e-05,5.83107e-05,-9.70005e-06,1.31476e-05,2.66629e-05,-6.48752e-06,6.68517e-05,3.33562e-06,0
-2.88042e-05,4.3876e-05,-6.84851e-06,7.41157e-06,2.4807e-05,-5.51193e-06,7.17266e-05,4.5425e-06,0
-2.99927e-05,2.64518e-05,-5.04388e-06,1.55654e-06,1.89338e-05,-4.91612e-06,6.79318e-05,5.45987e-06,0
-3.06444e-05,9.27033e-06,-4.65528e-06,-3.3267e-06,1.5131e-05,-4.14482e-06,5.79947e-05,5.834e-06,0
-2.97979e-05,-5.13752e-06,-3.73602e-06,-7.53215e-06,1.42469e-05,-3.49966e-06,4.61896e-05,5.20456e-06,0
-2.80684e-05,-1.35108e-05,-2.24926e-06,-1.35058e-05,1.30083e-05,-3.68534e-06,3.40961e-05,4.39373e-06,0
-2.85225e-05,-1.60088e-05,-2.18451e-06,-2.10658e-05,9.36212e-06,-4.30402e-06,2.19392e-05,4.15067e-06,0
-3.1849e-05,-1.27816e-05,-4.69889e-06,-2.4957e-05,6.23178e-06,-5.86821e-06,1.00958e-05,4.9001e-06,0
-3.39026e-05,-2.03294e-06,-7.34725e-06,-2.18772e-05,6.54381e-06,-7.65023e-06,-1.10113e-06,3.93985e-06,0
-3.23222e-05,1.5037e-05,-8.65461e-06,-1.37748e-05,8.65595e-06,-8.24476e-06,-1.11971e-05,6.15868e-07,0
-3.01128e-05,2.94342e-05,-8.88114e-06,-5.50662e-06,9.11629e-06,-8.01149e-06,-1.97599e-05,-2.86441e-06,0
-2.97252e-05,3.30116e-05,-9.06957e-06,-3.54108e-07,7.31964e-06,-8.6562e-06,-2.5533e-05,-5.0295e-06,0
-3.02529e-05,2.72237e-05,-9.57162e-06,1.17523e-06,4.9404e-06,-1.02888e-05,-2.72634e-05,-6.1191e-06,0
-2.9881e-05,1.92643e-05,-9.77044e-06,-2.93086e-07,3.84999e-06,-1.10038e-05,-2.39593e-05,-5.38272e-06,0
-2.86374e-05,1.3237e-05,-9.1191e-06,-2.64571e-06,3.71868e-06,-1.06214e-05,-1.79323e-05,-3.65375e-06,0
-2.76468e-05,8.7489e-06,-8.64666e-06,-4.21844e-06,2.76634e-06,-1.06336e-05,-1.62265e-05,-1.91682e-06,0
-2.68827e-05,4.94833e-06,-7.44022e-06,-4.06702e-06,1.0692e-06,-1.15343e-05,-2.14499e-05,2.57545e-07,0
-2.64895e-05,-4.23455e-07,-6.62298e-06,-3.02818e-06,-1.32545e-06,-1.34314e-05,-2.7215e-05,2.66788e-06,0
-2.80297e-05,-8.7609e-06,-7.52914e-06,-2.41662e-06,-3.14757e-06,-1.52206e-05,-2.73384e-05,2.26794e-06,0
-2.97292e-05,-1.66721e-05,-7.85011e-06,-5.22333e-07,-2.54378e-06,-1.4224e-05,-2.10282e-05,5.72472e-07,0
-3.02248e-05,-2.31835e-05,-8.83736e-06,4.59328e-06,4.63364e-08,-1.13294e-05,-9.91862e-06,4.53602e-07,0
-3.02226e-05,-2.38243e-05,-9.71234e-06,9.885e-06,2.53545e-06,-9.6684e-06,-1.46361e-06,-2.21999e-07,0
-3.00561e-05,-1.6475e-05,-9.82485e-06,1.21033e-05,3.42817e-06,-1.00704e-05,1.16251e-06,-2.34893e-06,0
-3.06599e-05,-9.39922e-06,-1.14614e-05,1.24687e-05,3.05916e-06,-1.21629e-05,3.19973e-06,-2.31063e-06,0
-3.27035e-05,-6.41435e-06,-1.43813e-05,1.03834e-05,3.01365e-06,-1.59258e-05,7.27571e-06,-1.39396e-06,0
-3.49587e-05,-6.83717e-06,-1.55166e-05,5.43837e-06,3.7943e-06,-1.94407e-05,1.18749e-05,-3.79155e-06,0
-3.46609e-05,-4.72529e-06,-1.45367e-05,-1.57879e-06,4.24099e-06,-2.06741e-05,1.42907e-05,-6.31126e-06,0
-3.36349e-05,1.10879e-06,-1.35131e-05,-9.26638e-06,4.27482e-06,-1.9044e-05,1.39041e-05,-6.60401e-06,0
-3.24739e-05,6.27183e-06,-1.18666e-05,-1.42141e-05,3.1861e-06,-1.66886e-05,1.29134e-05,-6.87039e-06,0
-3.15236e-05,8.38115e-06,-1.01708e-05,-1.59725e-05,9.91129e-07,-1.48197e-05,1.25348e-05,-7.99902e-06,0
-3.10592e-05,8.509e-06,-1.03036e-05,-1.53109e-05,3.93609e-07,-1.34876e-05,9.13763e-06,-7.19508e-06,0
-3.11053e-05,8.83895e-06,-1.22284e-05,-1.33314e-05,2.76685e-06,-1.29607e-05,2.40488e-06,-5.00954e-06,0
-3.13957e-05,9.65275e-06,-1.38027e-05,-1.17724e-05,6.28072e-06,-1.26691e-05,-1.35671e-06,-3.23553e-06,0
-3.21024e-05,1.31026e-05,-1.36371e-05,-1.16082e-05,9.23824e-06,-1.28009e-05,2.89599e-06,-3.44928e-06,0
-3.37462e-05,1.91374e-05,-1.27733e-05,-1.2928e-05,1.02726e-05,-1.25217e-05,1.25611e-05,-4.08908e-06,0
-3.51039e-05,2.39701e-05,-1.29137e-05,-1.36887e-05,8.42694e-06,-1.14342e-05,2.03763e-05,-2.84614e-06,0
-3.5385e-05,2.48091e-05,-1.43703e-05,-1.23964e-05,6.40668e-06,-1.0983e-05,2.27907e-05,-8.06976e-07,0
-3.3772e-05,2.45436e-05,-1.4695e-05,-8.74936e-06,6.27334e-06,-1.10651e-05,2.13921e-05,-2.43747e-07,0
-3.18022e-05,2.65791e-05,-1.18085e-05,-3.2652e-06,7.36374e-06,-9.73366e-06,1.92634e-05,-8.0014e-07,0
-3.10203e-05,3.06149e-05,-8.60948e-06,7.82728e-07,7.77515e-06,-6.41622e-06,1.84316e-05,-1.06421e-07,0
-3.14619e-05,3.35541e-05,-7.77271e-06,2.83665e-07,7.34417e-06,-3.05678e-06,1.9655e-05,1.48726e-06,0
-3.03398e-05,3.56333e-05,-7.75336e-06,-4.14657e-06,5.70885e-06,-1.34151e-06,2.17376e-05,3.11013e-06,0
-2.77593e-05,3.70339e-05,-7.32644e-06,-1.24308e-05,3.1287e-06,-2.21608e-06,2.44906e-05,2.96792e-06,0
-2.45792e-05,3.65408e-05,-7.2387e-06,-2.53447e-05,1.45365e-06,-4.67514e-06,2.59431e-05,2.13803e-06,0
-2.30035e-05,3.22348e-05,-8.31261e-06,-3.96595e-05,-1.57231e-07,-5.7726e-06,2.42436e-05,2.35376e-06,0
-2.44755e-05,2.44691e-05,-8.90819e-06,-4.83926e-05,-6.31259e-07,-5.35479e-06,2.21689e-05,2.20672e-06,0
-2.53825e-05,1.12643e-05,-8.33627e-06,-4.60431e-05,8.29395e-07,-5.08885e-06,2.21205e-05,1.60708e-06,0
-2.4789e-05,-1.87218e-06,-7.08561e-06,-3.40364e-05,2.20315e-06,-5.94418e-06,2.32703e-05,5.19985e-07,0
-2.52382e-05,-4.74177e-06,-6.13063e-06,-2.0277e-05,3.05218e-06,-5.97408e-06,2.30985e-05,8.55562e-07,0
-2.62787e-05,-1.52324e-06,-6.64297e-06,-1.14442e-05,3.48063e-06,-7.62127e-06,2.2079e-05,2.58939e-06,0
-2.63224e-05,4.17478e-06,-7.21125e-06,-7.01074e-06,1.77773e-06,-8.39051e-06,2.10503e-05,2.64674e-06,0
-2.59277e-05,8.69426e-06,-7.06668e-06,-9.77301e-07,-4.66554e-07,-4.89039e-06,1.96491e-05,1.12914e-06,0
-2.50781e-05,1.29246e-05,-6.74284e-06,9.52533e-06,-1.01882e-06,-1.74444e-06,1.78671e-05,3.68599e-07,0
-2.59452e-05,1.71035e-05,-5.6942e-06,2.12873e-05,1.00651e-06,-2.12469e-07,1.60064e-05,7.10631e-07,0
-2.81603e-05,1.87949e-05,-4.18626e-06,3.05067e-05,6.81489e-06,2.3015e-07,1.45363e-05,6.9785e-07,0
-2.92362e-05,1.66984e-05,-2.76073e-06,3.28265e-05,1.24581e-05,1.04094e-06,1.41754e-05,-3.78459e-07,0
-2.89449e-05,1.27838e-05,-2.15477e-06,2.98154e-05,1.67241e-05,1.13111e-06,1.42921e-05,-2.15233e-06,0
-2.8754e-05,1.17966e-05,-3.01707e-06,2.44896e-05,1.95882e-05,1.76217e-06,1.37557e-05,-1.64581e-06,0
-2.89104e-05,1.357e-05,-3.70653e-06,1.81422e-05,2.02148e-05,2.28721e-06,1.34248e-05,-9.55733e-08,0
-2.7905e-05,1.64573e-05,-3.67311e-06,1.07368e-05,1.93709e-05,2.22937e-06,1.358e-05,1.26533e-06,0
-2.66929e-05,1.86736e-05,-4.10939e-06,2.56059e-06,1.8514e-05,2.44439e-06,1.22976e-05,2.11029e-06,0
-2.73704e-05,1.99899e-05,-4.65313e-06,-2.14857e-06,1.93106e-05,1.7509e-06,9.63545e-06,2.1238e-06,0
-3.00559e-05,1.89032e-05,-4.9076e-06,-9.70751e-07,2.12327e-05,-1.60641e-07,9.13234e-06,1.19461e-06,0
-3.16964e-05,1.64971e-05,-5.3469e-06,3.48836e-06,2.35459e-05,-2.44055e-06,1.05527e-05,-4.87704e-07,0
-3.06144e-05,1.50499e-05,-6.38129e-06,6.55156e-06,2.49305e-05,-4.19573e-06,9.98914e-06,-2.93725e-06,0
-2.90203e-05,1.43594e-05,-7.42006e-06,8.1439e-06,2.51558e-05,-5.84193e-06,6.77842e-06,-5.23325e-06,0
-2.88893e-05,1.30326e-05,-7.64228e-06,9.30279e-06,2.58658e-05,-6.42435e-06,5.23178e-06,-5.36814e-06,0
-2.96326e-05,1.15434e-05,-9.28136e-06,1.03686e-05,2.85577e-05,-5.12223e-06,8.63055e-06,-4.9052e-06,0
-2.95666e-05,9.19008e-06,-1.20559e-05,9.33828e-06,3.11852e-05,-3.40828e-06,1.58312e-05,-5.35006e-06,0
-2.83257e-05,6.6136e-06,-1.21526e-05,5.04173e-06,3.10391e-05,-3.66819e-06,2.21496e-05,-6.30952e-06,0
-2.71059e-05,5.75091e-06,-1.00084e-05,1.06071e-07,2.82319e-05,-3.89191e-06,2.59283e-05,-6.74479e-06,0
-2.70202e-05,6.17364e-06,-7.75332e-06,-2.48808e-06,2.41539e-05,-4.00772e-06,2.81866e-05,-6.71163e-06,0
-2.79175e-05,4.91098e-06,-6.79632e-06,-3.58237e-06,1.97125e-05,-4.34595e-06,2.94015e-05,-6.86275e-06,0
-2.89449e-05,1.76296e-06,-7.08409e-06,-6.38111e-06,1.59602e-05,-5.05902e-06,2.95165e-05,-8.56105e-06,0
-2.96371e-05,6.5126e-07,-6.49991e-06,-8.85885e-06,1.53323e-05,-6.90133e-06,2.75508e-05,-9.26435e-06,0
-3.07577e-05,1.72647e-06,-5.16188e-06,-9.36859e-06,1.7849e-05,-9.67301e-06,2.34367e-05,-9.94098e-06,0
-3.26453e-05,3.24403e-06,-4.01722e-06,-1.79275e-05,1.93184e-05,-1.14476e-05,1.19963e-05,-9.92228e-06,0
-3.36526e-05,4.74665e-06,-4.07221e-06,-3.56895e-05,1.94559e-05,-1.00281e-05,-2.4484e-06,-8.42438e-06,0
-3.21473e-05,6.21713e-06,-5.81082e-06,-4.83348e-05,2.06034e-05,-6.87725e-06,-7.75358e-06,-7.59018e-06,0
-2.9616e-05,8.26539e-06,-7.55119e-06,-4.95027e-05,2.15905e-05,-4.6488e-06,-1.94086e-06,-6.14918e-06,0
-2.89206e-05,1.00239e-05,-8.17732e-06,-4.25544e-05,2.22098e-05,-4.20136e-06,1.10419e-05,-5.07153e-06,0
-2.99569e-05,9.96658e-06,-8.90878e-06,-3.49063e-05,2.46747e-05,-4.67237e-06,2.40299e-05,-3.41291e-06,0
-3.05793e-05,1.08551e-05,-8.88926e-06,-3.09681e-05,2.73979e-05,-4.80788e-06,3.55105e-05,-9.76612e-07,0
-2.92363e-05,1.33391e-05,-7.65e-06,-2.17474e-05,2.77595e-05,-3.35937e-06,4.17061e-05,8.0222e-07,0
-2.79826e-05,1.61215e-05,-6.23772e-06,1.08524e-06,2.77427e-05,-1.60737e-06,3.86102e-05,2.72748e-06,0
-2.97386e-05,1.77435e-05,-4.9049e-06,3.03902e-05,3.06605e-05,-1.21109e-06,3.12639e-05,5.20925e-06,0
-3.33961e-05,1.97066e-05,-4.22217e-06,5.32868e-05,3.45346e-05,-2.88712e-06,2.45221e-05,6.01014e-06,0
-3.56612e-05,2.30055e-05,-4.1698e-06,6.01101e-05,3.65776e-05,-5.68124e-06,1.84098e-05,4.767e-06,0
-3.47006e-05,2.54138e-05,-3.554e-06,5.21355e-05,3.8162e-05,-7.74966e-06,1.24518e-05,3.19905e-06,0
-3.24663e-05,2.51004e-05,-2.00428e-06,3.86871e-05,3.89736e-05,-7.73977e-06,9.70196e-06,3.1871e-06,0
-3.11483e-05,2.24147e-05,-1.7555e-06,2.58062e-05,3.69306e-05,-6.62161e-06,1.0117e-05,5.34542e-06,0
-3.13519e-05,1.9943e-05,-3.79663e-06,1.37755e-05,3.2229e-05,-6.69566e-06,1.103e-05,7.53428e-06,0
-3.20061e-05,1.86389e-05,-6.60496e-06,4.07539e-06,2.68829e-05,-8.65921e-06,9.51962e-06,7.79504e-06,0
-3.22133e-05,1.83358e-05,-7.44494e-06,-1.69906e-06,2.07584e-05,-1.13104e-05,5.43724e-06,7.43112e-06,0
-3.16722e-05,1.81149e-05,-5.84725e-06,-4.53271e-06,1.66098e-05,-1.26857e-05,2.3334e-06,7.94271e-06,0
-3.07184e-05,1.88651e-05,-4.38133e-06,-4.45295e-06,1.63805e-05,-1.17485e-05,2.90802e-06,6.95386e-06,0
-2.97646e-05,2.17279e-05,-3.7725e-06,-2.33035e-06,1.88742e-05,-9.77386e-06,5.94122e-06,4.51918e-06,0
-2.89897e-05,2.36672e-05,-3.20338e-06,-1.95323e-06,2.10607e-05,-8.95817e-06,8.95772e-06,4.83012e-06,0
-2.88758e-05,2.20406e-05,-2.36894e-06,-5.72249e-06,2.02372e-05,-9.50578e-06,1.01141e-05,5.939e-06,0
-3.02038e-05,1.86693e-05,-1.74071e-06,-1.1655e-05,1.72355e-05,-1.02135e-05,1.241e-05,3.29946e-06,0
-3.27346e-05,1.63535e-05,-1.64825e-06,-1.9027e-05,1.24634e-05,-1.02595e-05,2.04472e-05,5.78194e-07,0
-3.34323e-05,1.68793e-05,-1.14823e-06,-2.54683e-05,8.84058e-06,-1.16698e-05,2.90669e-05,1.36399e-06,0
-3.25947e-05,1.88029e-05,6.96463e-08,-2.90328e-05,6.43357e-06,-1.45008e-05,3.21384e-05,3.27876e-06,0
-3.0977e-05,1.98619e-05,1.44355e-06,-2.99711e-05,6.47313e-06,-1.45995e-05,2.98573e-05,5.77786e-06,0
-3.01692e-05,1.99734e-05,-1.58381e-07,-2.66047e-05,9.47278e-06,-1.22107e-05,2.25381e-05,8.10714e-06,0
-3.17471e-05,1.97504e-05,-4.17605e-06,-2.20051e-05,1.15674e-05,-1.08002e-05,1.45272e-05,8.91735e-06,0
-3.37891e-05,1.83361e-05,-6.39676e-06,-1.89694e-05,1.42006e-05,-1.1746e-05,1.07968e-05,8.7891e-06,0
-3.46707e-05,1.68864e-05,-5.55276e-06,-1.6837e-05,1.65354e-05,-1.31637e-05,8.84158e-06,6.95464e-06,0
-3.56783e-05,1.7523e-05,-4.5079e-06,-1.3924e-05,1.71314e-05,-1.45399e-05,3.50595e-06,5.96618e-06,0
-3.59833e-05,1.87182e-05,-4.02607e-06,-1.08439e-05,1.54622e-05,-1.6847e-05,-5.95053e-06,5.91081e-06,0
-3.41779e-05,1.96545e-05,-4.08049e-06,-9.20641e-06,1.29765e-05,-1.77842e-05,-1.73204e-05,6.35161e-06,0
-3.31075e-05,2.00021e-05,-4.34021e-06,-9.68831e-06,1.24218e-05,-1.67395e-05,-2.47598e-05,8.00047e-06,0
-3.21873e-05,1.84194e-05,-4.66849e-06,-8.19186e-06,1.33672e-05,-1.51333e-05,-2.29379e-05,8.7278e-06,0
-3.04125e-05,1.60192e-05,-6.91577e-06,2.21189e-06,1.25353e-05,-1.4823e-05,-1.52729e-05,7.29315e-06,0
-2.9584e-05,1.44881e-05,-9.72278e-06,1.75939e-05,9.27489e-06,-1.49045e-05,-8.73896e-06,5.77015e-06,0
-3.09317e-05,1.2994e-05,-1.115e-05,2.64499e-05,7.16911e-06,-1.42476e-05,-5.98362e-06,6.42258e-06,0
-3.22176e-05,1.10894e-05,-1.0454e-05,2.32252e-05,7.10736e-06,-1.30194e-05,-4.05695e-06,6.60183e-06,0
-3.22354e-05,9.62878e-06,-9.33999e-06,1.22973e-05,7.57456e-06,-1.13497e-05,-9.86025e-07,4.24947e-06,0
-3.15519e-05,8.61544e-06,-8.51475e-06,-5.0218e-08,6.96878e-06,-1.03829e-05,3.21168e-06,1.01499e-06,0
-3.11282e-05,7.69601e-06,-8.52485e-06,-9.68623e-06,5.6999e-06,-1.09063e-05,3.415e-06,-6.28919e-07,0
-3.10413e-05,7.54608e-06,-8.88122e-06,-1.68785e-05,3.30876e-06,-1.23125e-05,-8.49824e-06,-3.95789e-07,0
-3.06375e-05,7.82024e-06,-9.14551e-06,-2.18216e-05,3.14742e-07,-1.30126e-05,-3.08491e-05,1.50093e-06,0
-3.03587e-05,6.16048e-06,-9.67849e-06,-2.25605e-05,-1.42555e-06,-1.33521e-05,-4.49941e-05,2.33492e-06,0
-2.98949e-05,3.21102e-06,-1.16302e-05,-1.9897e-05,-3.06736e-07,-1.3096e-05,-3.7123e-05,9.14693e-07,0
-2.99239e-05,1.78662e-06,-1.38362e-05,-1.7747e-05,2.89823e-06,-1.15758e-05,-1.49012e-05,-9.59727e-07,0
-3.04497e-05,8.23406e-07,-1.42747e-05,-1.87142e-05,6.29149e-06,-1.08556e-05,8.26248e-06,-2.23431e-06,0
-3.0479e-05,-1.23492e-06,-1.36703e-05,-2.05032e-05,7.6465e-06,-1.15497e-05,2.69918e-05,-3.62901e-06,0
-3.05769e-05,-5.01136e-06,-1.46239e-05,-2.11522e-05,5.01994e-06,-1.14721e-05,4.07429e-05,-4.04709e-06,0
-3.18777e-05,-9.12288e-06,-1.86164e-05,-2.32789e-05,8.49503e-07,-1.07076e-05,4.65947e-05,-2.79208e-06,0
-3.19075e-05,-1.14251e-05,-2.23494e-05,-2.63097e-05,-1.44556e-06,-1.03731e-05,4.56996e-05,-1.2468e-06,0
-3.03829e-05,-1.02702e-05,-2.28387e-05,-2.68071e-05,3.47534e-07,-1.17794e-05,4.19635e-05,-1.13776e-06,0
-2.92612e-05,-5.98732e-06,-1.91544e-05,-2.35475e-05,6.64488e-06,-1.27821e-05,3.69012e-05,-1.49467e-06,0
-2.87804e-05,-3.98113e-06,-1.42974e-05,-2.22188e-05,1.43677e-05,-1.09928e-05,3.09647e-05,-8.95689e-08,0
-2.77465e-05,-5.43878e-06,-1.09553e-05,-2.49516e-05,2.05623e-05,-9.03068e-06,2.44399e-05,1.10111e-06,0
-2.69752e-05,-6.31097e-06,-9.66517e-06,-2.88249e-05,2.14784e-05,-9.35906e-06,2.02701e-05,2.30014e-06,0
-2.78737e-05,-4.40437e-06,-1.0881e-05,-3.24119e-05,1.7138e-05,-1.12464e-05,1.96863e-05,2.11103e-06,0
-2.87354e-05,-1.45298e-06,-1.14327e-05,-3.44547e-05,1.32009e-05,-1.27581e-05,2.17359e-05,9.019e-07,0
-2.81977e-05,9.84201e-07,-1.05091e-05,-3.60402e-05,1.1537e-05,-1.31046e-05,2.43797e-05,4.92551e-07,0
-2.72232e-05,4.23369e-06,-9.26843e-06,-3.33697e-05,1.12561e-05,-1.22553e-05,2.46743e-05,1.50141e-06,0
-2.64687e-05,8.69934e-06,-7.76528e-06,-2.24331e-05,1.12392e-05,-1.21123e-05,2.13477e-05,1.21845e-06,0
-2.49234e-05,1.11616e-05,-6.20755e-06,-3.69281e-06,1.16749e-05,-1.32523e-05,1.43679e-05,-1.66369e-06,0
-2.50515e-05,9.57577e-06,-5.18976e-06,1.49837e-05,1.3292e-05,-1.39198e-05,6.97015e-06,-4.10385e-06,0
-2.72567e-05,7.24517e-06,-5.09608e-06,2.76663e-05,1.54292e-05,-1.50333e-05,3.9766e-06,-4.09378e-06,0
-2.92099e-05,8.59355e-06,-4.5321e-06,3.55009e-05,1.6609e-05,-1.78367e-05,7.19318e-06,-1.85935e-06,0
-2.94722e-05,1.29517e-05,-3.81178e-06,3.91151e-05,1.66285e-05,-1.93139e-05,1.31432e-05,1.78418e-08,0
-2.92214e-05,1.55692e-05,-4.09404e-06,3.58551e-05,1.52977e-05,-1.7674e-05,1.42109e-05,2.34788e-08,0
-2.98965e-05,1.49382e-05,-6.00863e-06,2.54742e-05,1.27041e-05,-1.59428e-05,-6.48705e-07,-1.03507e-06,0
-2.96901e-05,1.41222e-05,-7.79394e-06,1.35542e-05,9.94492e-06,-1.45703e-05,-2.93333e-05,-1.38815e-06,0
-2.8839e-05,1.37202e-05,-9.10147e-06,6.31515e-06,7.62938e-06,-1.24762e-05,-4.72768e-05,-1.4906e-06,0
-3.01008e-05,1.18868e-05,-1.02647e-05,2.56519e-06,7.02172e-06,-1.16424e-05,-3.49933e-05,-1.74988e-06,0
-3.2691e-05,9.12044e-06,-9.52524e-06,-1.29975e-06,7.1213e-06,-1.33525e-05,-5.93015e-07,-2.82978e-06,0
-3.37517e-05,7.04e-06,-9.53254e-06,-4.19138e-06,4.97879e-06,-1.41917e-05,3.1568e-05,-3.17024e-06,0
-3.24759e-05,6.58596e-06,-1.18827e-05,-6.21055e-06,1.4064e-06,-1.17409e-05,4.85987e-05,-2.88882e-06,0
-2.99431e-05,6.51998e-06,-1.3741e-05,-4.43384e-06,1.43083e-06,-9.80761e-06,5.41183e-05,-2.83067e-06,0
-2.87023e-05,6.56071e-06,-1.51706e-05,9.71084e-07,6.68507e-06,-9.5448e-06,5.23872e-05,-3.27529e-06,0
-2.89623e-05,9.0417e-06,-1.43136e-05,8.9253e-06,1.12444e-05,-1.03701e-05,4.5257e-05,-3.56074e-06,0
-2.92152e-05,1.2697e-05,-1.26553e-05,1.8099e-05,1.0434e-05,-1.10858e-05,3.91898e-05,-3.99049e-06,0
-2.85774e-05,1.4515e-05,-1.19067e-05,2.27166e-05,7.41592e-06,-9.57495e-06,3.63304e-05,-4.07371e-06,0
-2.80576e-05,1.64591e-05,-1.11977e-05,2.3859e-05,7.01128e-06,-6.66543e-06,3.21848e-05,-2.56013e-06,0
-2.96154e-05,1.77374e-05,-1.25564e-05,2.20233e-05,9.89855e-06,-5.47988e-06,3.01244e-05,-1.23383e-06,0
-3.19475e-05,1.6985e-05,-1.30809e-05,1.49519e-05,1.26969e-05,-6.28577e-06,3.09174e-05,1.03999e-06,0
-3.21752e-05,1.6769e-05,-1.08107e-05,5.70564e-06,1.26335e-05,-6.83903e-06,3.03887e-05,3.18094e-06,0
-3.22192e-05,1.79848e-05,-8.27603e-06,-1.46198e-06,1.16223e-05,-6.79966e-06,2.82787e-05,3.29294e-06,0
-3.32792e-05,1.78329e-05,-6.82965e-06,-6.515e-06,1.18814e-05,-7.31314e-06,2.55496e-05,2.81467e-06,0
-3.39786e-05,1.6106e-05,-5.385e-06,-1.0726e-05,1.39235e-05,-9.01112e-06,2.03515e-05,2.60855e-06,0
-3.36997e-05,1.471e-05,-4.61664e-06,-1.40643e-05,1.59681e-05,-9.79075e-06,1.15027e-05,2.34242e-06,0
-3.19705e-05,1.49202e-05,-5.59829e-06,-1.79929e-05,1.69741e-05,-9.69122e-06,3.49909e-06,2.94923e-06,0
-3.03845e-05,1.7726e-05,-7.86701e-06,-2.19931e-05,1.79031e-05,-9.60666e-06,-7.90286e-07,4.77372e-06,0
-3.01994e-05,2.239e-05,-9.61022e-06,-2.18168e-05,1.90243e-05,-1.03538e-05,-1.48963e-06,6.81522e-06,0
-3.11848e-05,2.74967e-05,-9.98002e-06,-1.5928e-05,1.9478e-05,-1.16121e-05,-9.87584e-07,8.44518e-06,0
-3.24162e-05,3.09149e-05,-9.49898e-06,-8.46027e-06,1.80775e-05,-1.27029e-05,-1.09234e-06,9.66581e-06,0
-3.30491e-05,3.22009e-05,-9.56273e-06,-4.00304e-06,1.65741e-05,-1.28648e-05,-1.50268e-06,1.06174e-05,0
-3.229e-05,3.17009e-05,-1.06757e-05,-3.93564e-06,1.64191e-05,-1.17313e-05,-1.04718e-06,1.05282e-05,0
-3.07682e-05,2.99021e-05,-1.11265e-05,-6.2978e-06,1.82936e-05,-9.92821e-06,-5.0556e-07,9.04335e-06,0
-3.00132e-05,2.85215e-05,-9.7386e-06,-7.67113e-06,2.162e-05,-8.3318e-06,-3.63242e-07,7.64079e-06,0
-2.98589e-05,2.88426e-05,-8.29562e-06,-6.59277e-06,2.51483e-05,-8.14809e-06,7.1299e-07,7.66408e-06,0
-2.95678e-05,2.944e-05,-8.61595e-06,-4.52685e-06,2.77469e-05,-9.11625e-06,4.03283e-06,8.40364e-06,0
-2.87969e-05,3.01977e-05,-9.14473e-06,-2.29886e-06,2.79222e-05,-9.743e-06,9.23189e-06,7.65395e-06,0
-2.83902e-05,2.95064e-05,-9.00979e-06,2.72616e-07,2.61726e-05,-1.03144e-05,1.37117e-05,4.96162e-06,0
-2.77707e-05,2.87619e-05,-9.13571e-06,1.14578e-06,2.29811e-05,-1.27994e-05,1.52288e-05,2.64088e-06,0
-2.61487e-05,3.04454e-05,-9.60452e-06,-1.1791e-06,2.09132e-05,-1.51139e-05,1.54549e-05,2.71311e-06,0
-2.56318e-05,3.29802e-05,-9.54149e-06,-2.60331e-06,2.0619e-05,-1.56751e-05,1.8193e-05,4.19816e-06,0
-2.62503e-05,3.3444e-05,-9.5837e-06,1.50155e-06,1.83979e-05,-1.47717e-05,2.31961e-05,4.2329e-06,0
-2.71658e-05,3.14184e-05,-8.79997e-06,1.28885e-05,1.61739e-05,-1.32348e-05,2.63521e-05,2.48835e-06,0
-2.57435e-05,2.92177e-05,-8.68022e-06,2.40852e-05,1.62786e-05,-1.09792e-05,2.56266e-05,8.51158e-07,0
-2.33981e-05,2.85447e-05,-8.56841e-06,2.57807e-05,1.62927e-05,-9.8699e-06,2.32633e-05,-1.10068e-06,0
-2.32389e-05,3.13882e-05,-6.26654e-06,1.79422e-05,1.39099e-05,-1.02268e-05,1.91778e-05,-3.0524e-06,0
-2.34283e-05,3.94976e-05,-3.74258e-06,4.536e-06,1.02656e-05,-9.76263e-06,1.59381e-05,-4.41438e-06,0
-2.35367e-05,5.04158e-05,-3.03516e-06,-8.80953e-06,8.44403e-06,-9.96193e-06,1.46887e-05,-5.34426e-06,0
-2.39356e-05,5.62665e-05,-4.92294e-06,-1.86127e-05,8.93012e-06,-1.06739e-05,1.25497e-05,-5.8109e-06,0
-2.56096e-05,5.49208e-05,-6.72862e-06,-2.47524e-05,9.89359e-06,-9.81067e-06,9.42554e-06,-6.35507e-06,0
-2.70429e-05,4.90287e-05,-6.63493e-06,-2.84357e-05,1.09236e-05,-6.93294e-06,5.23219e-06,-7.22234e-06,0
-2.7957e-05,4.12051e-05,-4.9345e-06,-2.86123e-05,1.30799e-05,-5.32689e-06,3.5864e-07,-7.60748e-06,0
-2.79763e-05,3.33546e-05,-3.80746e-06,-2.64161e-05,1.5441e-05,-6.78642e-06,-1.59083e-06,-6.26723e-06,0
-2.67563e-05,3.00601e-05,-3.59757e-06,-2.34114e-05,1.7232e-05,-9.83156e-06,1.58177e-06,-5.37169e-06,0
-2.51056e-05,3.29265e-05,-4.27346e-06,-2.14027e-05,1.89255e-05,-1.26479e-05,6.2384e-06,-5.31846e-06,0
-2.44931e-05,3.59955e-05,-5.60782e-06,-2.08743e-05,1.98988e-05,-1.33444e-05,9.26327e-06,-4.57829e-06,0
-2.56908e-05,3.24966e-05,-6.12323e-06,-1.95234e-05,1.89873e-05,-1.23964e-05,1.19699e-05,-3.55465e-06,0
-2.82268e-05,2.18549e-05,-5.57003e-06,-1.6255e-05,1.68449e-05,-1.11059e-05,1.56758e-05,-3.03502e-06,0
-3.12728e-05,8.10028e-06,-5.42837e-06,-1.29894e-05,1.52344e-05,-1.04252e-05,1.87366e-05,-2.17491e-06,0
-3.31548e-05,-5.72722e-06,-7.38295e-06,-1.21886e-05,1.43253e-05,-1.01615e-05,2.19256e-05,-5.86598e-07,0
-3.36118e-05,-1.84542e-05,-1.08185e-05,-1.2986e-05,1.29136e-05,-1.04651e-05,2.63486e-05,3.29949e-07,0
-3.24602e-05,-2.91506e-05,-1.34947e-05,-1.36261e-05,1.1199e-05,-1.18604e-05,3.02442e-05,8.20419e-07,0
-3.22758e-05,-3.41671e-05,-1.35506e-05,-1.32068e-05,1.0166e-05,-1.33892e-05,3.2266e-05,1.02095e-06,0
-3.40271e-05,-3.27714e-05,-1.29784e-05,-1.44024e-05,9.73239e-06,-1.33069e-05,3.19424e-05,1.71788e-07,0
-3.62146e-05,-2.89256e-05,-1.41796e-05,-1.7302e-05,9.33188e-06,-1.22105e-05,2.9954e-05,2.86372e-07,0
-3.63544e-05,-2.52108e-05,-1.59092e-05,-1.97938e-05,9.99461e-06,-1.18892e-05,2.55607e-05,1.53407e-06,0
-3.4987e-05,-2.20185e-05,-1.62756e-05,-2.05645e-05,1.11774e-05,-1.26835e-05,1.78784e-05,2.53442e-06,0
-3.62155e-05,-1.97427e-05,-1.64203e-05,-1.7678e-05,1.14367e-05,-1.32492e-05,9.37169e-06,2.67031e-06,0
-3.92628e-05,-1.79402e-05,-1.64749e-05,-1.12754e-05,9.68628e-06,-1.24485e-05,5.27403e-06,-2.34429e-07,0
-3.88993e-05,-1.70945e-05,-1.60467e-05,-3.07634e-06,7.42758e-06,-1.21597e-05,5.38923e-06,-3.35553e-06,0
-3.58458e-05,-1.56922e-05,-1.4689e-05,2.75465e-06,6.82844e-06,-1.27892e-05,4.25845e-06,-2.42056e-06,0
-3.36014e-05,-1.09253e-05,-1.27137e-05,4.6449e-06,7.26248e-06,-1.3097e-05,1.37188e-06,1.20536e-06,0
-3.34036e-05,-4.19845e-06,-1.22897e-05,6.79265e-06,7.99348e-06,-1.12654e-05,7.48967e-07,3.71585e-06,0
-3.47285e-05,-5.17412e-07,-1.19613e-05,9.94156e-06,8.97834e-06,-8.09731e-06,4.89119e-06,4.63882e-06,0
-3.44673e-05,-4.50669e-08,-1.03521e-05,1.13127e-05,1.17257e-05,-4.70484e-06,8.08544e-06,5.00555e-06,0
-3.37217e-05,-1.42192e-06,-9.99566e-06,7.69602e-06,1.3997e-05,-1.8841e-06,4.42477e-06,4.92073e-06,0
-3.26875e-05,-4.19449e-06,-1.04728e-05,5.00163e-07,1.30434e-05,-2.52162e-07,-2.40125e-06,5.23812e-06,0
-3.1029e-05,-6.0787e-06,-1.05428e-05,-4.51251e-06,1.02818e-05,-2.43547e-07,-5.59853e-06,5.55944e-06,0
-3.07365e-05,-5.42629e-06,-1.07643e-05,-4.80193e-06,8.73495e-06,-1.20481e-06,-5.03373e-06,4.79464e-06,0
-3.14146e-05,-2.63176e-06,-1.05865e-05,-3.68949e-06,7.48455e-06,-2.40311e-06,-4.96662e-06,3.94516e-06,0
-3.19053e-05,3.97991e-07,-9.97323e-06,-4.39517e-06,5.5883e-06,-4.3149e-06,-8.83338e-06,3.29828e-06,0
-3.20791e-05,3.10155e-06,-9.82234e-06,-6.61208e-06,4.17297e-06,-5.80637e-06,-1.47692e-05,1.67634e-06,0
-3.24489e-05,4.59651e-06,-1.04726e-05,-8.72916e-06,2.90725e-06,-6.96029e-06,-1.6447e-05,-1.70936e-07,0
-3.2509e-05,4.84756e-06,-1.05031e-05,-8.99268e-06,1.30867e-06,-8.1345e-06,-1.14535e-05,-1.09523e-06,0
-3.19941e-05,4.72937e-06,-9.35237e-06,-8.60343e-06,-4.29353e-07,-8.51632e-06,-2.85774e-06,-1.03688e-06,0
-3.04512e-05,4.69154e-06,-7.93991e-06,-1.02444e-05,-1.29936e-06,-6.93172e-06,4.67545e-06,-8.90185e-07,0
-2.82874e-05,4.1614e-06,-6.90581e-06,-1.39489e-05,-5.81147e-07,-4.72662e-06,9.51935e-06,-7.58939e-07,0
-2.70257e-05,4.09866e-06,-6.16551e-06,-1.67106e-05,1.63513e-06,-3.02617e-06,1.24944e-05,-7.85795e-07,0
-2.67786e-05,5.32318e-06,-5.82481e-06,-1.82202e-05,4.28851e-06,-2.11793e-06,1.50882e-05,-7.3072e-07,0
-2.64975e-05,7.16035e-06,-5.26525e-06,-1.88923e-05,7.36792e-06,-1.46556e-06,1.70702e-05,-8.45538e-08,0
-2.61151e-05,7.97665e-06,-3.70832e-06,-1.72829e-05,9.65043e-06,-1.00081e-06,1.72504e-05,-2.39942e-07,0
-2.68115e-05,8.24623e-06,-3.28395e-06,-1.19045e-05,1.02175e-05,-7.38514e-07,1.78056e-05,-1.36054e-06,0
-2.90454e-05,9.44515e-06,-5.4755e-06,-4.90203e-06,1.10372e-05,-1.20028e-06,1.93287e-05,-2.49881e-06,0
-3.1273e-05,1.15976e-05,-6.49399e-06,6.80763e-07,1.33423e-05,-2.94574e-06,1.94404e-05,-1.79365e-06,0
-3.14813e-05,1.58641e-05,-5.8736e-06,3.48599e-06,1.57173e-05,-3.65451e-06,2.1808e-05,-1.55828e-06,0
-2.99969e-05,1.9947e-05,-5.61278e-06,2.11267e-06,1.66526e-05,-3.03268e-06,2.4852e-05,-3.38779e-06,0
-2.81477e-05,2.26158e-05,-3.9735e-06,6.36142e-07,1.64432e-05,-3.0223e-06,2.38963e-05,-3.96181e-06,0
-2.65529e-05,2.25395e-05,-3.55567e-06,2.10704e-06,1.63383e-05,-1.69239e-06,2.07434e-05,-3.9156e-06,0
-2.51427e-05,1.84242e-05,-6.2754e-06,3.46289e-06,1.81237e-05,2.08653e-07,1.8108e-05,-3.95932e-06,0
-2.54622e-05,1.41575e-05,-8.43587e-06,1.81066e-06,2.14688e-05,-6.5502e-08,1.62452e-05,-4.16213e-06,0
-2.69322e-05,1.10413e-05,-9.13644e-06,-2.17814e-06,2.20899e-05,-1.98954e-06,1.05771e-05,-4.20151e-06,0
-2.8789e-05,9.3623e-06,-9.84652e-06,-4.16083e-06,2.02881e-05,-5.02232e-06,-5.73114e-06,-4.38627e-06,0
-3.0614e-05,9.26063e-06,-9.71381e-06,-4.50155e-06,1.89435e-05,-6.20643e-06,-2.58892e-05,-3.32e-06,0
-2.94663e-05,9.97002e-06,-8.14419e-06,-6.58519e-06,1.86168e-05,-5.41859e-06,-3.34257e-05,-8.38527e-07,0
-2.66557e-05,9.81506e-06,-8.06502e-06,-1.09691e-05,1.89954e-05,-5.39813e-06,-2.54393e-05,1.4459e-07,0
-2.55001e-05,9.11987e-06,-9.66507e-06,-1.41665e-05,1.86477e-05,-6.19953e-06,-7.89634e-06,-1.34511e-07,0
-2.64471e-05,8.7759e-06,-1.02536e-05,-1.27278e-05,1.68181e-05,-6.41359e-06,1.18448e-05,1.52115e-07,0
-2.78532e-05,8.66854e-06,-8.78824e-06,-6.92985e-06,1.62147e-05,-6.04487e-06,3.01746e-05,1.80886e-06,0
-2.89813e-05,9.38567e-06,-6.57235e-06,1.30432e-06,1.925e-05,-6.89062e-06,4.48373e-05,2.81545e-06,0
-2.98757e-05,1.11071e-05,-5.63211e-06,6.18229e-06,2.28147e-05,-8.84949e-06,5.46541e-05,2.45781e-06,0
-3.01507e-05,1.42556e-05,-6.00584e-06,4.76766e-06,2.27048e-05,-9.86816e-06,5.81253e-05,2.31279e-06,0
-3.0566e-05,1.64992e-05,-6.74501e-06,8.41091e-07,1.88742e-05,-9.82759e-06,5.4811e-05,4.22182e-06,0
-3.21531e-05,1.61052e-05,-7.02344e-06,-1.21891e-06,1.52655e-05,-1.10585e-05,4.86122e-05,6.04877e-06,0
-3.3846e-05,1.5037e-05,-7.54688e-06,-1.19718e-06,1.281e-05,-1.37463e-05,4.33752e-05,5.10434e-06,0
-3.45722e-05,1.52582e-05,-8.25563e-06,1.46032e-07,1.02691e-05,-1.45728e-05,4.00323e-05,1.77901e-06,0
-3.51764e-05,1.64862e-05,-8.55969e-06,1.86148e-06,8.36362e-06,-1.30452e-05,3.80206e-05,-1.63302e-06,0
-3.51801e-05,1.82973e-05,-8.38393e-06,2.17239e-06,8.66012e-06,-1.21155e-05,3.7274e-05,-3.09643e-06,0
-3.44261e-05,1.88077e-05,-7.38805e-06,3.73856e-07,1.01245e-05,-1.3137e-05,3.60512e-05,-2.79052e-06,0
-3.39959e-05,1.7952e-05,-6.30081e-06,-5.24083e-07,1.22801e-05,-1.35305e-05,3.45863e-05,-1.68146e-06,0
-3.33503e-05,1.9079e-05,-6.69146e-06,7.5246e-07,1.39312e-05,-1.1987e-05,3.21036e-05,-7.57323e-07,0
-3.2992e-05,2.18571e-05,-8.0747e-06,9.11937e-07,1.39336e-05,-1.02212e-05,2.78553e-05,-7.48753e-07,0
-3.23039e-05,2.29264e-05,-9.16381e-06,-1.95434e-06,1.33814e-05,-9.67661e-06,2.12165e-05,-6.39818e-07,0
-3.21299e-05,2.17231e-05,-1.00785e-05,-3.49301e-06,1.3033e-05,-9.91256e-06,1.40564e-05,1.18469e-06,0
-3.33469e-05,2.10656e-05,-1.15936e-05,6.11422e-07,1.39018e-05,-9.51166e-06,9.83196e-06,2.96513e-06,0
-3.44765e-05,2.27152e-05,-1.29076e-05,7.00341e-06,1.54025e-05,-7.7655e-06,6.74099e-06,2.5184e-06,0
-3.52015e-05,2.35217e-05,-1.32269e-05,1.48476e-05,1.56593e-05,-5.38923e-06,2.45002e-06,2.02359e-06,0
-3.39718e-05,2.29981e-05,-1.22613e-05,2.21052e-05,1.45427e-05,-3.89766e-06,-9.13837e-07,2.75039e-06,0
-3.20195e-05,2.34417e-05,-1.06581e-05,2.45473e-05,1.49985e-05,-4.74979e-06,1.25653e-06,2.07539e-06,0
-3.07046e-05,2.77812e-05,-9.21964e-06,2.15412e-05,1.74687e-05,-6.73701e-06,9.05334e-06,1.51085e-06,0
-3.10584e-05,3.26419e-05,-7.88623e-06,1.48925e-05,1.99934e-05,-5.83562e-06,1.85086e-05,2.51935e-06,0
-3.13324e-05,3.34841e-05,-6.39182e-06,5.87573e-06,1.91993e-05,-3.31396e-06,2.62796e-05,3.95987e-06,0
-3.02234e-05,3.0495e-05,-4.15752e-06,-3.33696e-06,1.49873e-05,-2.33502e-06,3.16967e-05,4.46822e-06,0
-2.88147e-05,2.59414e-05,-3.12166e-06,-1.23105e-05,1.17583e-05,-4.31605e-06,3.37199e-05,3.44723e-06,0
-2.82386e-05,2.27818e-05,-3.31818e-06,-2.03365e-05,1.04453e-05,-7.61664e-06,3.11491e-05,2.21534e-06,0
-2.84073e-05,1.889e-05,-3.54994e-06,-2.42614e-05,9.62952e-06,-9.9073e-06,2.65884e-05,2.12314e-06,0
-2.89819e-05,1.46126e-05,-2.11904e-06,-2.47945e-05,1.05448e-05,-1.10522e-05,2.12929e-05,3.57191e-06,0
-3.05318e-05,1.23692e-05,4.99081e-07,-2.38265e-05,1.37244e-05,-1.11062e-05,1.40257e-05,5.3754e-06,0
-3.13883e-05,1.3469e-05,1.26135e-06,-2.30675e-05,1.54413e-05,-1.04934e-05,5.0054e-06,5.02189e-06,0
-3.12423e-05,1.5558e-05,-6.82188e-07,-2.25305e-05,1.35041e-05,-9.66049e-06,-3.67081e-06,2.32613e-06,0
-2.9962e-05,1.64474e-05,-3.42095e-06,-2.0782e-05,9.45321e-06,-1.00089e-05,-1.08369e-05,-5.1879e-07,0
-2.85551e-05,1.6355e-05,-4.76925e-06,-1.66711e-05,5.93559e-06,-1.08597e-05,-1.56884e-05,-2.76084e-06,0
-2.7775e-05,1.79563e-05,-4.87145e-06,-1.15923e-05,5.61187e-06,-1.1412e-05,-1.78359e-05,-4.49692e-06,0
-2.80803e-05,2.05358e-05,-4.94588e-06,-8.58489e-06,7.72051e-06,-1.29343e-05,-1.82079e-05,-6.06417e-06,0
-2.84629e-05,2.12038e-05,-4.69629e-06,-8.68546e-06,8.41621e-06,-1.32836e-05,-1.76661e-05,-8.59498e-06,0
-2.83565e-05,2.15645e-05,-5.44562e-06,-9.67339e-06,7.46193e-06,-1.07166e-05,-1.64401e-05,-1.08561e-05,0
-2.9078e-05,2.12062e-05,-8.09517e-06,-1.11792e-05,7.07885e-06,-9.51679e-06,-1.40587e-05,-1.0569e-05,0
-3.09877e-05,1.94176e-05,-8.86114e-06,-1.21871e-05,7.758e-06,-9.99193e-06,-9.51307e-06,-8.44986e-06,0
-3.09654e-05,1.93464e-05,-9.51085e-06,-1.15554e-05,7.4018e-06,-1.08727e-05,-3.04914e-06,-6.55836e-06,0
-2.96937e-05,1.94446e-05,-1.22417e-05,-1.00762e-05,6.79435e-06,-1.19271e-05,1.62976e-06,-5.29803e-06,0
-3.18277e-05,1.70742e-05,-1.40499e-05,-1.00203e-05,7.74104e-06,-1.21742e-05,1.49923e-06,-3.38617e-06,0
-3.52808e-05,1.40789e-05,-1.53551e-05,-1.04058e-05,7.46579e-06,-1.24286e-05,-1.08712e-06,2.03208e-07,0
-3.60123e-05,1.29324e-05,-1.57441e-05,-8.40328e-06,6.46079e-06,-1.37415e-05,-1.1691e-06,3.80961e-06,0
-3.48921e-05,1.39302e-05,-1.22213e-05,-5.17237e-06,6.63396e-06,-1.58791e-05,3.54061e-06,4.4271e-06,0
-3.3187e-05,1.34438e-05,-9.22794e-06,-2.61659e-06,8.40247e-06,-1.64282e-05,8.66193e-06,4.54826e-06,0
-3.08329e-05,1.07421e-05,-8.23232e-06,-2.09123e-06,1.14521e-05,-1.68544e-05,7.32835e-06,4.11237e-06,0
-2.86504e-05,7.28937e-06,-7.58868e-06,-1.79074e-06,1.54409e-05,-1.61799e-05,1.50547e-06,3.78808e-06,0
-2.82685e-05,3.04296e-06,-7.61485e-06,-1.38143e-06,2.05955e-05,-1.30653e-05,2.46132e-07,4.31886e-06,0
-2.94414e-05,-1.50875e-06,-6.86308e-06,-1.98118e-06,2.48498e-05,-1.07927e-05,7.95645e-06,5.58591e-06,0
-2.92406e-05,-4.79422e-06,-6.3784e-06,-3.34964e-06,2.61521e-05,-1.0405e-05,1.98031e-05,7.52555e-06,0
-2.8293e-05,-6.37647e-06,-7.59015e-06,5.25035e-07,2.53783e-05,-1.18047e-05,2.93573e-05,8.48743e-06,0
-2.82369e-05,-6.64813e-06,-9.84279e-06,1.50303e-05,2.55098e-05,-1.42483e-05,3.41403e-05,8.35332e-06,0
-2.94128e-05,-5.11382e-06,-1.13089e-05,3.59614e-05,2.5342e-05,-1.5176e-05,3.51239e-05,6.71756e-06,0
-3.09545e-05,-1.99766e-06,-1.26498e-05,5.35912e-05,2.44886e-05,-1.38316e-05,3.49609e-05,6.30179e-06,0
-3.22921e-05,8.26121e-07,-1.39558e-05,6.207e-05,2.41212e-05,-1.22594e-05,3.58849e-05,7.93186e-06,0
-3.31017e-05,2.78142e-06,-1.41723e-05,6.30527e-05,2.41017e-05,-1.12543e-05,3.76122e-05,1.05993e-05,0
-3.2835e-05,5.00901e-06,-1.35761e-05,6.22711e-05,2.47441e-05,-1.02147e-05,4.05421e-05,1.25155e-05,0
-3.14258e-05,8.04117e-06,-1.3866e-05,6.2238e-05,2.57724e-05,-8.82173e-06,4.55807e-05,1.26345e-05,0
-3.02012e-05,1.00126e-05,-1.47552e-05,5.75624e-05,2.67063e-05,-7.11457e-06,4.8122e-05,1.07047e-05,0
-3.11226e-05,1.07014e-05,-1.38116e-05,4.56834e-05,2.72666e-05,-5.45345e-06,4.41444e-05,8.34685e-06,0
-3.2789e-05,1.13131e-05,-1.13899e-05,2.75247e-05,2.56341e-05,-5.54929e-06,3.44099e-05,7.03016e-06,0
-3.33822e-05,1.19617e-05,-8.18117e-06,1.28065e-06,2.07927e-05,-7.65821e-06,2.23193e-05,7.20052e-06,0
-3.34552e-05,1.27295e-05,-3.94469e-06,-3.02311e-05,1.7097e-05,-9.51965e-06,1.08917e-05,6.81512e-06,0
-3.35636e-05,1.50645e-05,-6.95328e-07,-5.50584e-05,1.54134e-05,-9.92956e-06,1.79129e-07,4.86861e-06,0
-3.25119e-05,1.68536e-05,1.12062e-06,-6.86979e-05,1.27525e-05,-9.90194e-06,-9.02215e-06,2.08356e-06,0
-3.05179e-05,1.495e-05,2.26739e-06,-7.81529e-05,9.1814e-06,-1.02018e-05,-1.65501e-05,-4.32853e-07,0
-2.97172e-05,1.25452e-05,1.86481e-06,-8.56695e-05,7.02133e-06,-8.76533e-06,-2.32172e-05,-2.88123e-07,0
-2.91815e-05,1.27145e-05,-9.65555e-07,-8.8601e-05,6.90455e-06,-6.91051e-06,-2.63046e-05,3.08723e-06,0
-2.93227e-05,1.52251e-05,-3.35617e-06,-8.46428e-05,7.53412e-06,-6.52818e-06,-2.37742e-05,7.24318e-06,0
-3.04109e-05,1.64999e-05,-3.75471e-06,-7.39476e-05,6.8101e-06,-6.66628e-06,-1.60511e-05,7.46518e-06,0
-3.01996e-05,1.4941e-05,-3.79283e-06,-5.96894e-05,5.97217e-06,-7.68919e-06,-7.05799e-06,6.25444e-06,0
-2.94378e-05,1.32064e-05,-4.63988e-06,-4.30459e-05,5.9e-06,-8.58025e-06,-1.02734e-06,5.82437e-06,0
-2.8854e-05,1.32363e-05,-6.01384e-06,-2.81303e-05,6.16837e-06,-9.3803e-06,-2.47651e-06,4.502e-06,0
-2.93991e-05,1.50117e-05,-6.35612e-06,-1.94423e-05,6.74401e-06,-9.37866e-06,-1.26533e-05,2.33684e-06,0
-3.15945e-05,1.63199e-05,-6.12421e-06,-1.43645e-05,7.05287e-06,-9.3822e-06,-1.95207e-05,1.15644e-06,0
-3.40834e-05,1.52398e-05,-4.07817e-06,-1.27726e-05,7.34498e-06,-9.35283e-06,-1.44962e-05,2.03904e-06,0
-3.51082e-05,1.22113e-05,-2.6282e-06,-1.20525e-05,6.93074e-06,-8.73323e-06,-1.01178e-06,4.10073e-06,0
-3.37631e-05,1.02203e-05,-3.04478e-06,-1.05617e-05,5.73612e-06,-8.93428e-06,1.29687e-05,5.55608e-06,0
-3.09356e-05,1.10608e-05,-3.72558e-06,-1.2141e-05,4.31366e-06,-1.00314e-05,2.32767e-05,5.55502e-06,0
-2.86491e-05,1.37487e-05,-4.12817e-06,-1.71789e-05,3.42625e-06,-1.18184e-05,2.8935e-05,5.07624e-06,0
-2.78044e-05,1.64471e-05,-4.49416e-06,-2.38516e-05,3.21325e-06,-1.27106e-05,2.87589e-05,4.98928e-06,0
-2.78141e-05,1.74473e-05,-5.22702e-06,-2.94332e-05,4.3051e-06,-1.29159e-05,2.30916e-05,4.6578e-06,0
-2.8355e-05,1.57405e-05,-6.06624e-06,-3.33849e-05,6.47043e-06,-1.34948e-05,1.15004e-05,3.24613e-06,0
-2.90463e-05,1.2263e-05,-7.87005e-06,-3.44677e-05,9.16989e-06,-1.47058e-05,-7.50146e-06,1.70595e-06,0
-2.92307e-05,9.9936e-06,-9.87575e-06,-2.99558e-05,1.26151e-05,-1.53635e-05,-3.47039e-05,1.26822e-07,0
-2.93067e-05,1.007e-05,-1.15367e-05,-1.71599e-05,1.62286e-05,-1.49064e-05,-6.46903e-05,-1.3572e-06,0
