ch1,ch2,ch3,ch4,ch5,ch6,ch7,ch8,class
-2.00663e-05,0.000159253,1.80433e-06,3.20038e-05,1.8663e-05,-7.71619e-06,-2.42684e-05,1.73413e-06,0
-7.76792e-06,0.000128682,6.21959e-06,-7.55607e-05,1.32108e-05,-6.05567e-06,3.55469e-05,1.56534e-05,0
-4.70784e-06,9.63646e-05,1.19158e-05,-0.000138515,1.1962e-05,-3.00964e-06,7.34273e-05,3.6794e-05,0
-5.89292e-06,9.24637e-05,1.85054e-05,-0.00011707,1.42904e-05,-4.24747e-08,8.89814e-05,4.87432e-05,0
-7.70711e-06,0.000115331,2.48875e-05,-6.45303e-05,1.90165e-05,7.75912e-07,8.51505e-05,4.76777e-05,0
-1.11856e-05,0.000137353,2.32621e-05,-5.57381e-05,2.12408e-05,-1.30006e-06,7.63199e-05,3.59669e-05,0
-1.66561e-05,0.000147898,8.01323e-06,-9.94757e-05,1.88603e-05,-4.87935e-06,7.32491e-05,1.58127e-05,0
-2.30218e-05,0.000151514,-1.58845e-05,-0.000133325,1.24183e-05,-7.33187e-06,7.09181e-05,-8.11768e-06,0
-2.23123e-05,0.000152209,-2.96394e-05,-0.000124044,5.65526e-06,-8.11352e-06,6.39371e-05,-2.82518e-05,0
-1.02179e-05,0.000146951,-2.37868e-05,-8.70185e-05,4.43942e-06,-6.62387e-06,5.60109e-05,-3.73431e-05,0
1.79303e-06,0.000131313,-1.13647e-05,-4.47101e-05,6.8232e-06,-5.92409e-06,5.04438e-05,-3.6266e-05,0
3.82349e-06,0.000111565,-7.39416e-06,-1.93943e-05,9.89206e-06,-7.77757e-06,4.78433e-05,-3.06009e-05,0
-4.7228e-06,8.2592e-05,-1.10291e-05,-2.75053e-05,1.09615e-05,-8.87278e-06,4.85548e-05,-2.35795e-05,0
-1.53607e-05,2.75596e-05,-1.41007e-05,-6.13217e-05,8.92513e-06,-7.21912e-06,4.68881e-05,-1.21855e-05,0
-2.13209e-05,-5.28339e-05,-1.26363e-05,-8.30603e-05,6.13208e-06,-5.68062e-06,4.69967e-05,1.71953e-06,0
-2.30226e-05,-0.00013479,-9.67024e-06,-7.06795e-05,5.57839e-06,-6.96366e-06,6.57964e-05,1.09232e-05,0
-2.47568e-05,-0.0001933,-7.63763e-06,-3.27831e-05,7.29794e-06,-1.01951e-05,0.000105803,1.27721e-05,0
-2.61791e-05,-0.000215613,-5.76814e-06,1.94023e-05,1.02204e-05,-1.33691e-05,0.000142973,1.10282e-05,0
-2.35655e-05,-0.000206941,-4.71001e-06,8.33555e-05,1.24232e-05,-1.49104e-05,0.000153881,9.2207e-06,0
-1.92917e-05,-0.000172618,-6.8498e-06,0.000140719,1.10019e-05,-1.53981e-05,0.000131836,8.32272e-06,0
-1.78586e-05,-0.000110787,-1.07312e-05,0.000168475,5.33968e-06,-1.60677e-05,8.00098e-05,7.07891e-06,0
-1.68498e-05,-3.25895e-05,-1.0963e-05,0.000156143,1.02433e-07,-1.57017e-05,4.92575e-06,6.36109e-06,0
-1.89151e-05,3.0211e-05,-6.34781e-06,0.000116575,3.10764e-07,-1.34249e-05,-8.28071e-05,8.33813e-06,0
-2.82991e-05,6.18526e-05,-1.99654e-06,7.13928e-05,3.06208e-06,-1.30437e-05,-0.000162721,8.78874e-06,0
-3.70882e-05,7.1206e-05,-1.29104e-06,3.07119e-05,4.2474e-06,-1.54132e-05,-0.000205014,5.90974e-06,0
-3.97998e-05,7.20394e-05,-1.82838e-06,-6.10658e-06,2.5224e-06,-1.72564e-05,-0.000199315,1.67185e-06,0
-3.86681e-05,7.50323e-05,-2.4111e-06,-4.26048e-05,1.77179e-06,-1.6089e-05,-0.000165898,-1.40935e-06,0
-3.43078e-05,7.41991e-05,-2.59963e-06,-7.89645e-05,3.91526e-06,-1.2761e-05,-0.000144525,-2.1248e-06,0
-2.28588e-05,6.07549e-05,-4.32316e-07,-0.000112636,5.86667e-06,-1.05836e-05,-0.000146528,-2.45138e-06,0
-7.10967e-07,2.86454e-05,5.55948e-06,-0.000117151,5.36247e-06,-1.12446e-05,-0.000136785,-2.30849e-06,0
2.61023e-05,-8.29196e-06,1.4291e-05,-7.74036e-05,2.06453e-06,-1.38229e-05,-0.000104632,-1.64782e-06,0
4.71506e-05,-1.75191e-05,2.17937e-05,-2.49477e-05,1.43686e-06,-1.5897e-05,-6.4206e-05,-1.27885e-06,0
5.6325e-05,7.289e-06,2.87696e-05,3.94512e-05,5.03325e-06,-1.58641e-05,-2.62135e-05,-8.73063e-08,0
4.73941e-05,2.7673e-05,3.77691e-05,0.000122105,1.09771e-05,-1.4131e-05,6.69796e-06,1.01128e-06,0
1.93873e-05,4.81763e-06,4.28345e-05,0.000151212,1.62042e-05,-1.18216e-05,3.19577e-05,-4.95679e-07,0
-1.7382e-05,-4.43818e-05,3.62461e-05,8.40249e-05,1.80435e-05,-9.58457e-06,4.99135e-05,-3.16239e-06,0
-5.55586e-05,-7.53182e-05,1.93156e-05,-1.03316e-05,1.6973e-05,-8.00101e-06,6.08526e-05,-4.19651e-06,0
-9.97358e-05,-6.81016e-05,3.19796e-06,-6.69357e-05,1.49201e-05,-7.55537e-06,6.22175e-05,-3.14512e-06,0
-0.000142337,-3.63977e-05,-3.94777e-06,-8.18726e-05,1.58145e-05,-7.937e-06,5.86914e-05,-8.45478e-07,0
-0.000165719,-3.4385e-06,-6.43143e-06,-7.4811e-05,1.93409e-05,-8.73785e-06,5.50143e-05,5.526e-07,0
-0.000162846,1.70283e-05,-1.50889e-05,-5.52468e-05,2.56789e-05,-8.44507e-06,4.45096e-05,2.27112e-07,0
-0.00014067,2.68629e-05,-3.43307e-05,-2.63613e-05,3.2016e-05,-6.41031e-06,1.64753e-05,-1.03425e-06,0
-0.000108486,3.4916e-05,-5.49964e-05,-3.29531e-07,3.30462e-05,-4.58788e-06,-1.41826e-05,-1.91684e-06,0
-7.05214e-05,3.88539e-05,-6.36888e-05,1.67568e-05,2.72601e-05,-4.06507e-06,-2.90702e-05,-1.07822e-06,0
-3.06708e-05,3.32688e-05,-6.38449e-05,2.63043e-05,1.87769e-05,-4.80962e-06,-3.43754e-05,1.16121e-06,0
4.02758e-06,2.17006e-05,-6.96998e-05,3.26781e-05,1.21262e-05,-5.52991e-06,-3.76153e-05,2.34166e-06,0
2.30862e-05,1.37073e-05,-7.41255e-05,3.0664e-05,9.65623e-06,-4.93937e-06,-2.17638e-05,1.63197e-06,0
2.21417e-05,1.43138e-05,-5.72568e-05,1.9774e-05,1.21457e-05,-3.37452e-06,2.04645e-05,5.20871e-07,0
1.08331e-05,1.91656e-05,-2.58101e-05,4.24736e-06,1.76769e-05,-2.28165e-06,6.74736e-05,-1.12405e-07,0
9.0347e-06,2.47975e-05,-2.78929e-06,-1.47939e-05,2.32325e-05,-2.14771e-06,9.73263e-05,-1.48268e-06,0
2.47452e-05,3.47331e-05,6.66033e-06,-3.2934e-05,2.50023e-05,-1.52848e-06,0.000108306,-3.14574e-06,0
4.36588e-05,4.99816e-05,1.54227e-05,-4.20728e-05,2.33486e-05,-1.12234e-06,0.000108332,-3.18634e-06,0
5.15581e-05,5.90241e-05,3.0951e-05,-3.95061e-05,2.13738e-05,-2.40298e-06,0.000103133,-2.59339e-06,0
4.53872e-05,4.98237e-05,4.67455e-05,-2.44772e-05,2.12691e-05,-3.57381e-06,9.53791e-05,-1.09218e-06,0
2.83351e-05,4.32061e-05,4.87939e-05,-5.56981e-06,1.97774e-05,-4.96614e-06,8.62733e-05,2.26087e-06,0
7.23918e-06,6.49664e-05,3.13223e-05,1.26958e-05,1.79832e-05,-5.97818e-06,7.58644e-05,4.96496e-06,0
-1.37175e-05,0.000109668,3.0331e-06,3.01415e-05,2.33801e-05,-5.66352e-06,6.58657e-05,6.20005e-06,0
-2.57029e-05,0.00015503,-2.58646e-05,3.94971e-05,3.32139e-05,-5.61583e-06,5.73369e-05,5.97234e-06,0
-2.61391e-05,0.000182468,-4.62467e-05,3.64088e-05,3.62193e-05,-6.52902e-06,4.86117e-05,5.01345e-06,0
-2.52238e-05,0.000189729,-5.49875e-05,2.33783e-05,3.06234e-05,-7.8062e-06,4.1356e-05,5.23923e-06,0
-2.88316e-05,0.000173329,-5.40016e-05,1.16508e-05,2.44408e-05,-9.37462e-06,3.64153e-05,5.7588e-06,0
-2.99496e-05,0.000124083,-4.97712e-05,3.57972e-06,2.43314e-05,-1.02576e-05,3.11956e-05,7.64637e-06,0
-2.25038e-05,3.26466e-05,-4.16117e-05,-3.21937e-06,2.87949e-05,-9.07958e-06,2.02258e-05,8.07475e-06,0
-1.61086e-05,-9.1441e-05,-2.81691e-05,-4.72749e-06,3.12697e-05,-9.14981e-06,7.09145e-06,5.7335e-06,0
-2.38068e-05,-0.000195813,-1.45312e-05,3.66534e-06,2.94181e-05,-1.19932e-05,-2.88774e-07,1.93377e-06,0
-4.21382e-05,-0.000227887,-3.80599e-06,1.34458e-05,2.55062e-05,-1.50007e-05,-5.60816e-08,-3.0079e-06,0
-6.00455e-05,-0.000200945,3.30987e-06,1.74155e-05,2.19348e-05,-1.65592e-05,2.03965e-06,-8.9284e-06,0
-7.7256e-05,-0.000159023,3.21921e-06,1.3957e-05,1.82863e-05,-1.72159e-05,1.63639e-06,-1.57305e-05,0
-9.47263e-05,-0.000117343,-4.15705e-06,2.96801e-06,1.49071e-05,-1.71193e-05,-4.30387e-07,-2.02953e-05,0
-0.000105205,-7.79675e-05,-6.1638e-06,-9.27489e-06,1.533e-05,-1.49018e-05,-2.67246e-06,-2.07381e-05,0
-0.000102595,-5.04729e-05,3.61965e-06,-1.63526e-05,2.07163e-05,-1.12656e-05,-3.22313e-06,-1.64273e-05,0
-9.30297e-05,-3.92493e-05,1.6811e-05,-2.12853e-05,2.50182e-05,-9.63383e-06,-4.4924e-07,-9.48175e-06,0
-8.43105e-05,-3.64176e-05,2.31193e-05,-2.75278e-05,2.36283e-05,-1.12519e-05,4.85802e-06,-2.77612e-06,0
-7.59569e-05,-3.40612e-05,2.29187e-05,-2.40734e-05,1.92292e-05,-1.40325e-05,9.00674e-06,7.82052e-07,0
-6.41811e-05,-2.71339e-05,1.89347e-05,-3.43363e-06,1.61879e-05,-1.5441e-05,8.87133e-06,1.21399e-06,0
-5.09465e-05,-1.76514e-05,1.78751e-05,1.05398e-05,1.50095e-05,-1.65663e-05,6.14225e-06,1.04852e-06,0
-4.06747e-05,-9.43975e-06,2.53224e-05,1.08339e-06,1.32359e-05,-1.9512e-05,4.81332e-06,1.31011e-06,0
-2.97497e-05,-2.1129e-06,3.29095e-05,-5.77532e-06,1.11309e-05,-2.03104e-05,6.21428e-06,1.43381e-07,0
-8.0817e-06,1.11451e-05,2.79897e-05,-5.63556e-06,9.0234e-06,-1.65047e-05,8.00784e-06,-2.32833e-06,0
1.6734e-05,3.82792e-05,1.10747e-05,-1.39396e-05,6.70946e-06,-1.26711e-05,9.28613e-06,-3.115e-06,0
3.05583e-05,8.21016e-05,-1.19855e-05,-7.85736e-06,7.36779e-06,-1.31768e-05,1.30692e-05,-1.85742e-06,0
3.79776e-05,0.000126933,-3.38289e-05,1.76182e-05,1.06373e-05,-1.62962e-05,1.71823e-05,7.07571e-07,0
4.85543e-05,0.00015338,-5.49241e-05,3.7188e-05,1.30829e-05,-1.76586e-05,1.42878e-05,1.82081e-06,0
5.22434e-05,0.000143639,-6.12985e-05,4.49409e-05,1.47484e-05,-1.67131e-05,-8.95674e-06,9.29251e-07,0
3.66213e-05,8.17346e-05,-4.23762e-05,3.95437e-05,1.55594e-05,-1.49445e-05,-4.29388e-05,1.3137e-06,0
9.01157e-06,1.45768e-05,-2.99801e-05,2.36384e-05,1.43533e-05,-1.6123e-05,-5.69736e-05,1.35819e-06,0
-2.35951e-05,8.36116e-06,-3.93622e-05,1.12889e-05,9.05673e-06,-1.93222e-05,-4.27578e-05,1.0808e-06,0
-5.4578e-05,5.39301e-05,-5.39428e-05,1.15192e-05,5.49673e-07,-2.06652e-05,-1.32371e-05,2.06672e-06,0
-7.70336e-05,8.96193e-05,-5.29123e-05,6.27e-06,-4.84872e-06,-2.04244e-05,1.15765e-05,4.64634e-06,0
-8.52136e-05,8.28604e-05,-4.03231e-05,-1.76989e-05,-4.74266e-06,-1.89222e-05,3.2489e-05,6.47948e-06,0
-8.48171e-05,5.29195e-05,-2.94347e-05,-4.36913e-05,-2.33609e-06,-1.74808e-05,5.83445e-05,4.00693e-06,0
-7.39131e-05,2.86014e-05,-2.4122e-05,-5.86525e-05,-1.80779e-06,-1.88327e-05,6.49231e-05,1.03719e-06,0
-4.83924e-05,1.4682e-05,-2.05283e-05,-6.55824e-05,-4.7501e-06,-2.22039e-05,3.06985e-05,1.30543e-07,0
-2.39243e-05,6.52267e-06,-1.5511e-05,-6.66296e-05,-8.99098e-06,-2.38289e-05,-1.31819e-05,6.62568e-08,0
-1.20048e-05,1.68977e-05,-1.162e-05,-6.59155e-05,-1.10919e-05,-2.29764e-05,-2.48293e-05,-1.36983e-07,0
-9.92497e-06,6.04403e-05,-8.63167e-06,-6.62094e-05,-1.00252e-05,-2.10465e-05,-6.42086e-06,1.12063e-06,0
-1.14498e-05,0.000115592,-5.44396e-06,-5.7191e-05,-8.63237e-06,-1.89275e-05,1.69887e-05,6.00445e-06,0
-1.92357e-05,0.000138611,-7.33346e-07,-2.68055e-05,-7.79706e-06,-1.64365e-05,3.49891e-05,1.52532e-05,0
-3.86978e-05,0.000116033,2.66559e-06,2.35851e-05,-3.08556e-06,-1.33123e-05,5.13198e-05,2.24548e-05,0
-6.918e-05,7.80201e-05,3.61825e-06,8.14975e-05,5.46886e-06,-1.02636e-05,6.46009e-05,2.05167e-05,0
-9.9008e-05,5.19204e-05,2.63765e-06,0.000129239,9.90886e-06,-9.89757e-06,6.99829e-05,1.23024e-05,0
-0.00011909,1.39722e-05,2.65779e-06,0.000140471,7.11391e-06,-1.20661e-05,6.78958e-05,5.11093e-06,0
-0.000127081,-6.98551e-05,1.3569e-06,0.0001124,8.98975e-07,-1.50694e-05,6.08758e-05,2.55009e-07,0
-0.000124266,-0.000175235,-4.57107e-06,7.05113e-05,-6.29507e-06,-1.78772e-05,5.01752e-05,-3.11258e-06,0
-0.000112499,-0.000223612,-1.24603e-05,2.79919e-05,-1.16454e-05,-2.04171e-05,3.94845e-05,-4.45344e-06,0
-9.43077e-05,-0.000184709,-1.46022e-05,-2.87886e-05,-9.13926e-06,-2.15049e-05,3.40645e-05,-6.55249e-06,0
-7.18498e-05,-0.000119373,-6.86451e-06,-0.000101829,-1.25215e-06,-1.80529e-05,3.67434e-05,-8.18767e-06,0
-4.40418e-05,-7.63599e-05,4.81434e-06,-0.000169733,7.75722e-06,-1.16422e-05,3.60741e-05,-8.52707e-06,0
-1.79081e-05,-6.80197e-05,7.53111e-06,-0.000207437,1.20451e-05,-6.90179e-06,1.6785e-05,-8.85114e-06,0
2.09423e-06,-7.98151e-05,-2.40877e-06,-0.000203081,9.39988e-06,-6.03232e-06,-1.28222e-05,-8.41277e-06,0
1.75276e-05,-8.43706e-05,-1.50461e-05,-0.00016172,6.1758e-06,-7.67271e-06,-3.23688e-05,-7.88156e-06,0
2.55794e-05,-7.54438e-05,-1.89836e-05,-0.000100814,5.10062e-06,-8.07251e-06,-5.44134e-05,-8.27733e-06,0
2.60925e-05,-4.77213e-05,-1.36394e-05,-4.36723e-05,9.71109e-06,-4.73924e-06,-0.000133209,-8.97193e-06,0
2.17613e-05,-1.14661e-05,-8.18936e-06,5.69531e-06,1.56677e-05,-5.42763e-07,-0.000231475,-8.21969e-06,0
1.99755e-05,1.66291e-05,-4.34754e-06,3.81121e-05,1.94265e-05,2.90572e-06,-0.000238281,-5.16598e-06,0
2.85523e-05,1.62956e-05,-6.12354e-07,3.88565e-05,1.89165e-05,5.08488e-06,-0.00013786,-8.65571e-07,0
4.29171e-05,-4.32494e-06,5.24413e-06,1.74867e-05,1.58721e-05,5.79825e-06,4.13103e-06,2.5164e-06,0
4.66069e-05,-5.45418e-06,1.31101e-05,-2.86568e-06,1.39651e-05,4.8564e-06,0.000110268,3.58275e-06,0
3.6907e-05,2.99287e-05,2.19184e-05,-1.05511e-05,1.22761e-05,2.01037e-06,0.000154924,5.10347e-06,0
2.00928e-05,8.45836e-05,3.09163e-05,-9.8294e-06,1.02656e-05,-5.79043e-07,0.000155624,6.8534e-06,0
-4.67792e-08,0.000129136,3.7367e-05,-5.5495e-06,7.45544e-06,-5.35811e-07,0.000136568,6.44147e-06,0
-1.94813e-05,0.000141342,3.43121e-05,-2.67202e-06,6.76267e-06,2.53872e-06,0.000110648,4.46678e-06,0
-3.778e-05,0.000113306,1.62854e-05,-5.38862e-06,9.51177e-06,5.95441e-06,8.46756e-05,2.45783e-06,0
-5.73716e-05,5.79263e-05,-1.07918e-05,-9.64602e-06,1.18049e-05,6.88235e-06,6.86956e-05,1.42488e-06,0
-8.20575e-05,-9.55744e-06,-3.33454e-05,-7.08485e-06,8.48108e-06,4.17274e-06,7.22931e-05,2.94612e-06,0
-0.000106428,-6.01086e-05,-4.20369e-05,5.82969e-06,3.77422e-06,-2.49171e-07,9.88771e-05,7.01735e-06,0
-0.00011934,-6.16024e-05,-3.92772e-05,2.57637e-05,1.76315e-06,-3.99858e-06,0.00012177,9.8658e-06,0
-0.000111464,-2.15636e-05,-3.37065e-05,4.07145e-05,1.89383e-06,-5.93466e-06,0.000118801,9.67202e-06,0
-8.06966e-05,2.23019e-05,-2.86377e-05,3.76537e-05,3.60981e-06,-5.73409e-06,0.000106367,6.81956e-06,0
-2.58486e-05,5.86501e-05,-2.16078e-05,1.30751e-05,6.82444e-06,-3.78362e-06,0.0001059,3.79203e-06,0
3.50596e-05,8.79088e-05,-1.22361e-05,-1.51891e-05,9.53591e-06,-2.20399e-06,9.8186e-05,3.10166e-06,0
7.43767e-05,0.000100907,-3.74255e-06,-2.22223e-05,8.7458e-06,-2.01056e-06,4.5484e-05,4.42914e-06,0
8.39593e-05,0.000104607,7.73712e-07,-1.09616e-05,5.30356e-06,-3.63057e-06,-5.62814e-05,6.32599e-06,0
7.17016e-05,0.00010959,3.01567e-07,2.03826e-05,2.72698e-06,-6.87266e-06,-0.000148304,8.65412e-06,0
4.54624e-05,0.000112714,-3.54224e-06,4.93294e-05,3.09747e-07,-1.02281e-05,-0.000172961,9.36613e-06,0
9.27094e-06,0.000104448,-7.15619e-06,2.2362e-05,-1.97071e-06,-1.26974e-05,-0.000130636,8.72944e-06,0
-3.0741e-05,7.39491e-05,-1.00469e-05,-2.94924e-05,-2.26378e-06,-1.35279e-05,-6.53074e-05,7.73135e-06,0
-7.21723e-05,3.18104e-05,-9.42028e-06,-4.37281e-05,-1.82295e-07,-1.28726e-05,-7.39569e-06,6.72283e-06,0
-0.00010976,-6.48088e-07,-3.15804e-06,-2.06436e-05,2.28129e-06,-1.34033e-05,3.33446e-05,7.58988e-06,0
-0.000133498,-2.949e-05,5.01034e-06,6.81322e-07,3.35461e-06,-1.58254e-05,5.77211e-05,8.85344e-06,0
-0.000138861,-5.98016e-05,6.75815e-06,1.48363e-06,4.74047e-06,-1.81969e-05,7.17651e-05,9.28508e-06,0
-0.000129664,-7.09139e-05,-6.59813e-07,-1.50324e-05,7.26539e-06,-1.99999e-05,6.8775e-05,7.9799e-06,0
-0.000109222,-4.8835e-05,-9.9245e-06,-4.27336e-05,1.0857e-05,-1.91136e-05,4.85603e-05,5.96241e-06,0
-8.28677e-05,-4.11937e-06,-1.32151e-05,-5.5344e-05,1.39345e-05,-1.63975e-05,1.51301e-05,4.09333e-06,0
-5.82418e-05,2.49236e-05,-1.14189e-05,-4.63553e-05,1.58699e-05,-1.33323e-05,-1.84218e-05,2.60728e-06,0
-4.08725e-05,2.22027e-05,-1.18983e-05,-4.2983e-05,1.55997e-05,-1.14725e-05,-4.05749e-05,3.82982e-06,0
-2.98584e-05,2.14285e-05,-1.61815e-05,-5.19646e-05,1.42612e-05,-1.23967e-05,-4.77998e-05,1.26941e-05,0
-2.05065e-05,4.22582e-05,-2.2568e-05,-4.50761e-05,1.56232e-05,-1.43273e-05,-4.54562e-05,2.78969e-05,0
-1.39299e-05,5.82083e-05,-2.995e-05,-1.62462e-05,2.13254e-05,-1.41703e-05,-3.79051e-05,3.78121e-05,0
-7.76452e-06,4.59965e-05,-3.50687e-05,1.48727e-05,2.49065e-05,-1.24028e-05,-2.76694e-05,3.66465e-05,0
6.18615e-06,3.14933e-05,-3.13379e-05,3.12261e-05,2.1814e-05,-1.151e-05,-2.02492e-05,2.57987e-05,0
2.74257e-05,5.65234e-05,-1.61689e-05,2.8193e-05,1.76467e-05,-1.10285e-05,-2.0162e-05,7.49027e-06,0
4.40474e-05,0.000126693,3.17194e-06,1.70968e-05,1.96796e-05,-8.9565e-06,-2.61856e-05,-1.52598e-05,0
4.68344e-05,0.000181752,1.71922e-05,2.22565e-05,2.64504e-05,-5.16055e-06,-3.30841e-05,-3.54215e-05,0
3.90298e-05,0.000151752,2.28528e-05,4.7265e-05,3.09629e-05,-1.79341e-06,-3.67751e-05,-4.58993e-05,0
3.17516e-05,4.07983e-05,2.03508e-05,6.19394e-05,3.12484e-05,6.87918e-07,-3.58484e-05,-4.57934e-05,0
2.97533e-05,-8.22171e-05,1.36191e-05,5.22889e-05,3.00048e-05,2.16688e-06,-3.67488e-05,-3.99214e-05,0
2.56419e-05,-0.000170261,8.19016e-06,3.44299e-05,2.92695e-05,2.45474e-06,-4.51311e-05,-3.30086e-05,0
1.31255e-05,-0.000219462,4.47693e-06,1.03122e-05,2.77627e-05,4.80924e-07,-5.63714e-05,-2.37795e-05,0
-7.5873e-06,-0.000225128,7.54574e-07,-1.7519e-05,2.25301e-05,-4.16318e-06,-6.19627e-05,-1.12156e-05,0
-3.13834e-05,-0.00017836,-1.19296e-06,-2.03266e-05,1.73798e-05,-9.44224e-06,-6.19236e-05,2.1568e-06,0
-4.67118e-05,-0.000107122,-2.02701e-07,5.01324e-06,1.88477e-05,-1.13706e-05,-5.45137e-05,9.81577e-06,0
-4.28424e-05,-7.31753e-05,1.3454e-06,4.00035e-05,2.37526e-05,-8.25174e-06,-5.26822e-05,8.0148e-06,0
-3.3729e-05,-7.51732e-05,2.60406e-06,6.8902e-05,2.80819e-05,-4.0903e-06,-7.17585e-05,4.04972e-06,0
-4.54823e-05,-7.31169e-05,4.04562e-06,7.19144e-05,2.93863e-05,-4.33249e-06,-9.78808e-05,3.02795e-06,0
-7.86358e-05,-6.92586e-05,5.73854e-06,3.30259e-05,2.85876e-05,-8.17742e-06,-9.96885e-05,4.5761e-06,0
-0.000110565,-4.81058e-05,5.42486e-06,-2.16185e-05,2.92303e-05,-1.09999e-05,-5.85614e-05,7.51049e-06,0
-0.000122427,-3.14704e-07,2.33403e-06,-4.81293e-05,3.16505e-05,-1.04513e-05,9.77429e-06,9.3626e-06,0
-0.000112854,4.0665e-05,-3.70118e-07,-4.04834e-05,3.4193e-05,-8.25065e-06,7.56145e-05,7.5191e-06,0
-8.49037e-05,4.26292e-05,-2.07928e-06,-1.36672e-05,3.45668e-05,-7.93368e-06,0.000116915,2.91511e-06,0
-5.64449e-05,1.20315e-05,-2.554e-06,2.23264e-05,3.03349e-05,-1.04499e-05,0.000130914,-2.3575e-07,0
-4.63012e-05,-2.53637e-05,-4.85713e-07,4.67963e-05,2.25302e-05,-1.46941e-05,0.000125771,-7.81474e-07,0
-4.83326e-05,-5.13338e-05,1.86154e-06,4.11023e-05,1.54621e-05,-1.79439e-05,0.000111048,2.80168e-07,0
-4.84956e-05,-4.37322e-05,-3.25967e-06,1.80002e-05,1.10531e-05,-1.84591e-05,9.32595e-05,1.27373e-06,0
-4.39532e-05,-3.62342e-07,-1.95913e-05,-8.77619e-07,7.83051e-06,-1.63473e-05,7.6407e-05,2.42724e-06,0
-4.72246e-05,5.25867e-05,-3.68722e-05,-1.3951e-05,4.97568e-06,-1.41083e-05,6.40407e-05,2.90291e-06,0
-6.23252e-05,8.49015e-05,-4.45267e-05,-3.34685e-05,2.89869e-06,-1.36348e-05,5.7212e-05,2.18499e-06,0
-7.83488e-05,9.26838e-05,-4.15257e-05,-5.63524e-05,2.09892e-06,-1.47182e-05,5.42873e-05,1.74854e-06,0
-8.34597e-05,8.25201e-05,-2.96338e-05,-6.46123e-05,3.4805e-06,-1.5647e-05,4.98603e-05,3.04286e-06,0
-7.83438e-05,6.41157e-05,-1.46367e-05,-4.98924e-05,4.39386e-06,-1.53474e-05,4.2297e-05,5.79053e-06,0
-6.92112e-05,4.57022e-05,-9.64242e-06,-2.60063e-05,2.17791e-06,-1.4945e-05,3.47662e-05,7.76037e-06,0
-6.0355e-05,3.42293e-05,-1.96866e-05,-5.65622e-06,3.56949e-08,-1.46467e-05,2.9823e-05,7.38695e-06,0
-5.65933e-05,3.03117e-05,-3.88118e-05,1.52658e-05,3.00677e-07,-1.37993e-05,2.55192e-05,6.04155e-06,0
-5.38239e-05,2.95573e-05,-6.37529e-05,3.60535e-05,1.23498e-06,-1.37512e-05,2.20743e-05,6.88289e-06,0
-4.15494e-05,3.05128e-05,-8.56783e-05,4.77101e-05,2.97212e-06,-1.38285e-05,2.17785e-05,8.42406e-06,0
-2.09053e-05,3.16728e-05,-8.86029e-05,4.42565e-05,4.22332e-06,-1.29319e-05,2.31397e-05,8.6813e-06,0
-5.14322e-06,3.55328e-05,-7.4463e-05,2.69303e-05,4.62539e-06,-1.16792e-05,2.3058e-05,8.46239e-06,0
-2.99226e-07,5.25649e-05,-5.31142e-05,1.86781e-05,6.5433e-06,-9.42298e-06,2.13037e-05,6.56034e-06,0
-1.32813e-06,8.87264e-05,-2.68431e-05,2.77368e-05,9.20211e-06,-7.29382e-06,1.84072e-05,4.69354e-06,0
-2.44075e-06,0.000118731,-7.89045e-06,3.96861e-05,9.43107e-06,-5.67563e-06,1.59182e-05,4.96954e-06,0
-1.28445e-06,0.000126444,1.41999e-06,6.60616e-05,7.43115e-06,-4.0838e-06,1.3059e-05,3.80929e-06,0
5.23126e-06,0.000123439,8.39289e-06,9.99434e-05,7.38941e-06,-2.18642e-06,1.00674e-05,3.97022e-06,0
2.28245e-05,0.000118571,9.89628e-06,9.39464e-05,8.25898e-06,-3.68067e-07,1.19297e-05,3.68129e-06,0
4.38657e-05,0.00011079,6.36549e-06,5.17095e-05,8.24183e-06,-1.52497e-07,1.43903e-05,2.22721e-06,0
5.34375e-05,8.06777e-05,9.32338e-07,1.13135e-05,6.13524e-06,-1.71201e-06,1.80581e-06,1.61834e-05,0
5.1211e-05,3.81249e-05,-1.81579e-06,-2.11386e-05,1.79392e-08,-3.62314e-06,-2.47473e-05,4.06333e-05,0
4.26136e-05,2.33209e-05,-3.09409e-07,-5.04641e-05,-3.77797e-06,-4.6445e-06,-4.93282e-05,5.19538e-05,0
3.54746e-05,3.75348e-05,6.68844e-06,-7.75994e-05,-1.64292e-06,-2.09055e-06,-6.9661e-05,4.1891e-05,0
2.85487e-05,5.71643e-05,1.62646e-05,-0.000101498,3.02144e-06,2.01939e-06,-0.000103798,1.9594e-05,0
1.5071e-05,7.6816e-05,1.77331e-05,-0.000119453,5.16756e-06,4.17591e-06,-0.000141355,-2.18012e-06,0
-5.01193e-06,0.000101819,6.19347e-06,-0.000118991,5.21644e-06,3.34697e-06,-0.000127069,-1.87042e-05,0
-2.53872e-05,0.000116074,-5.47032e-06,-8.91687e-05,7.07156e-06,9.59903e-07,-4.31542e-05,-2.86037e-05,0
-3.95088e-05,9.03969e-05,-1.63669e-06,-3.70353e-05,1.08878e-05,-1.7287e-07,7.00492e-05,-3.37961e-05,0
-4.9338e-05,1.94708e-05,1.12576e-05,1.05182e-05,1.53443e-05,-1.48173e-06,0.000160073,-3.60589e-05,0
-6.39781e-05,-7.43656e-05,1.72401e-05,2.2947e-05,1.72889e-05,-4.86662e-06,0.000206273,-3.55385e-05,0
-8.4891e-05,-0.000153923,1.2922e-05,-1.99786e-06,1.43351e-05,-9.59526e-06,0.000213641,-3.08227e-05,0
-9.80668e-05,-0.000178527,7.60245e-06,-3.3886e-05,8.60944e-06,-1.32153e-05,0.000193416,-2.24796e-05,0
-9.34363e-05,-0.000138266,5.91227e-06,-5.1205e-05,5.60412e-06,-1.54436e-05,0.000155535,-1.27221e-05,0
-7.38278e-05,-6.63405e-05,9.05866e-06,-6.18971e-05,4.04622e-06,-1.63675e-05,0.000110395,-4.58661e-06,0
-4.96986e-05,-1.00471e-05,1.49558e-05,-7.95716e-05,1.54264e-06,-1.54299e-05,7.39983e-05,-8.50641e-07,0
-3.04437e-05,1.12902e-05,1.76619e-05,-9.14651e-05,2.36017e-06,-1.16847e-05,5.40631e-05,-1.46113e-06,0
-1.84541e-05,1.57551e-05,1.42858e-05,-7.18539e-05,8.05586e-06,-6.36432e-06,4.76882e-05,-3.23841e-06,0
-1.31487e-05,2.64018e-05,1.06266e-05,-1.91832e-05,1.28372e-05,-1.3526e-06,4.71256e-05,-5.63382e-06,0
-1.3008e-05,3.81238e-05,1.41245e-05,4.13682e-05,1.5511e-05,8.07114e-07,4.22841e-05,-9.3322e-06,0
-1.46494e-05,3.57325e-05,1.96022e-05,6.59621e-05,1.8372e-05,4.14016e-07,3.12703e-05,-9.76196e-06,0
-1.88555e-05,1.66829e-05,1.27383e-05,4.1625e-05,1.85671e-05,-1.36265e-06,2.12961e-05,-6.67543e-06,0
-2.32608e-05,-1.45246e-06,-5.56285e-06,3.34103e-06,1.67647e-05,-4.56847e-06,1.45143e-05,-2.68074e-06,0
-2.48509e-05,2.69731e-06,-2.14402e-05,-3.37423e-05,1.83257e-05,-6.55084e-06,8.12065e-06,9.87603e-07,0
-2.62568e-05,3.27404e-05,-3.4461e-05,-7.62975e-05,2.28358e-05,-7.21383e-06,-2.54987e-06,2.55391e-06,0
-2.82432e-05,8.34333e-05,-4.72864e-05,-9.68624e-05,2.58484e-05,-8.60782e-06,-1.17135e-05,1.00858e-06,0
-3.15658e-05,0.000123887,-5.59474e-05,-7.08543e-05,2.30516e-05,-1.10831e-05,-1.65193e-05,-9.52918e-07,0
-3.47881e-05,0.000122683,-5.59731e-05,-2.0607e-05,1.55317e-05,-1.4186e-05,-1.54475e-05,-2.53843e-06,0
-3.26463e-05,9.65704e-05,-4.49434e-05,2.34721e-05,1.23645e-05,-1.62267e-05,-7.2432e-06,-3.38998e-06,0
-2.3409e-05,7.19286e-05,-3.06499e-05,4.75736e-05,1.5574e-05,-1.48528e-05,2.65767e-06,-3.49678e-06,0
-8.86531e-06,5.29261e-05,-1.82374e-05,5.21657e-05,1.74751e-05,-1.1289e-05,6.52542e-06,-3.46311e-06,0
7.8307e-07,3.63135e-05,-4.85467e-06,4.39905e-05,1.55433e-05,-8.47382e-06,-5.63219e-07,-2.03033e-06,0
-5.39891e-06,4.76529e-06,5.51254e-06,2.72692e-05,1.54969e-05,-7.87791e-06,-1.42592e-05,-3.2505e-07,0
-2.81067e-05,-5.93559e-05,6.05824e-06,1.8464e-06,1.90086e-05,-9.67089e-06,-2.82488e-05,-5.93023e-07,0
-5.28096e-05,-0.000123687,-2.71501e-06,-2.62505e-05,2.31948e-05,-1.33285e-05,-5.05357e-05,-1.94123e-06,0
-5.87092e-05,-0.000136745,-1.13045e-05,-4.5384e-05,2.4529e-05,-1.65466e-05,-0.000110041,-1.97064e-06,0
-4.47803e-05,-0.000110217,-1.40968e-05,-4.34289e-05,2.07901e-05,-1.76337e-05,-0.000181882,-6.22151e-07,0
-2.26582e-05,-8.60946e-05,-1.25545e-05,-3.56635e-06,1.53771e-05,-1.70576e-05,-0.000176356,4.34713e-07,0
-2.09612e-06,-7.42911e-05,-1.0655e-05,6.24609e-05,1.44405e-05,-1.52285e-05,-6.71736e-05,3.01657e-07,0
7.32537e-06,-6.34536e-05,-1.14808e-05,0.00010698,1.79332e-05,-1.28028e-05,6.59658e-05,4.40169e-07,0
-2.81448e-06,-4.78872e-05,-1.86384e-05,0.000104551,1.98128e-05,-1.05128e-05,0.000139501,1.58499e-06,0
-2.21206e-05,-2.47212e-05,-3.09385e-05,7.99196e-05,1.75185e-05,-7.33786e-06,0.000139947,3.39626e-06,0
-2.85519e-05,6.54394e-06,-3.61587e-05,5.83702e-05,1.47181e-05,-4.25545e-06,0.000101392,4.48838e-06,0
-1.75327e-05,3.82287e-05,-2.5225e-05,3.70111e-05,1.4331e-05,-3.60406e-06,5.67035e-05,3.67421e-06,0
-1.17942e-05,5.33811e-05,-8.35907e-06,1.20773e-05,1.30224e-05,-4.62683e-06,2.40262e-05,1.73278e-06,0
-2.4198e-05,4.34166e-05,7.33003e-07,1.59262e-06,8.37641e-06,-5.91457e-06,9.51535e-06,6.44303e-07,0
-3.73101e-05,2.54397e-05,3.69936e-06,7.8303e-06,4.29309e-06,-7.58798e-06,9.46729e-06,-9.25846e-07,0
-3.84437e-05,1.77781e-05,3.69361e-06,3.51537e-06,4.85506e-06,-8.42644e-06,1.63494e-05,-2.26831e-06,0
-3.0806e-05,1.67127e-05,-4.37031e-07,2.95979e-06,7.39639e-06,-8.91134e-06,2.04791e-05,4.79735e-07,0
-3.08314e-05,1.14987e-05,-5.18817e-06,-7.28286e-07,1.03145e-05,-9.58071e-06,2.16638e-05,2.8809e-06,0
-5.01709e-05,1.78007e-06,-4.53079e-06,-3.07635e-05,1.59445e-05,-9.66707e-06,2.47204e-05,2.76771e-06,0
-7.21914e-05,-3.75732e-06,-8.60344e-08,-2.97684e-05,2.38114e-05,-9.89644e-06,2.62138e-05,3.64566e-06,0
-7.50252e-05,1.07225e-05,5.63634e-06,2.67015e-05,2.92674e-05,-9.66051e-06,2.22263e-05,4.27779e-06,0
-6.04537e-05,4.85014e-05,9.47669e-06,6.92671e-05,2.78138e-05,-8.98184e-06,1.36193e-05,4.68871e-06,0
-3.65331e-05,7.60788e-05,8.326e-06,4.0203e-05,2.16082e-05,-9.95673e-06,7.36926e-06,4.71119e-06,0
-1.28973e-06,7.48402e-05,5.39896e-06,-2.86773e-05,1.52695e-05,-1.16338e-05,1.9229e-05,4.76229e-06,0
3.9476e-05,6.77676e-05,1.99551e-06,-8.82393e-05,1.21797e-05,-1.09874e-05,5.12894e-05,9.83966e-06,0
7.1413e-05,6.82946e-05,-3.91414e-06,-0.00011976,9.5031e-06,-1.11943e-05,8.71656e-05,1.91512e-05,0
8.61964e-05,8.26196e-05,-1.06553e-05,-0.000121715,4.54642e-06,-1.21779e-05,0.000124323,2.38843e-05,0
8.17696e-05,0.000112647,-1.4433e-05,-0.00010396,1.42518e-06,-1.13776e-05,0.000153799,2.06737e-05,0
6.30053e-05,0.000145706,-1.54294e-05,-7.17531e-05,3.20557e-06,-1.11397e-05,0.000148577,1.32519e-05,0
3.51684e-05,0.000151528,-1.73062e-05,-3.13708e-05,7.72384e-06,-1.3207e-05,0.000104774,5.20609e-06,0
3.62856e-06,0.000106564,-2.1897e-05,1.29241e-06,1.13013e-05,-1.59831e-05,4.74238e-05,-6.53477e-07,0
-2.64873e-05,2.75744e-05,-2.63176e-05,4.1208e-06,1.41011e-05,-1.67844e-05,-8.13558e-07,-3.58852e-06,0
-5.24333e-05,-3.75617e-05,-2.53542e-05,-1.88515e-05,1.74201e-05,-1.48919e-05,-4.00402e-05,-4.12008e-06,0
-7.58002e-05,-7.28247e-05,-1.60242e-05,-4.13921e-05,2.07845e-05,-1.09724e-05,-8.04449e-05,-4.09716e-06,0
-9.95412e-05,-0.000107758,-4.59878e-06,-3.31452e-05,2.03609e-05,-8.54171e-06,-0.000120409,-5.39242e-06,0
-0.000117191,-0.000146384,-8.00885e-07,1.11051e-05,1.64432e-05,-1.0103e-05,-0.000143209,-7.53831e-06,0
-0.000116821,-0.000154406,-3.25605e-06,5.70229e-05,1.61195e-05,-1.39014e-05,-0.000138401,-8.71508e-06,0
-9.50776e-05,-0.000111939,-2.8347e-06,6.38485e-05,2.4078e-05,-1.53366e-05,-0.000118773,-8.13638e-06,0
-6.52239e-05,-4.21008e-05,1.43153e-06,2.75391e-05,3.65805e-05,-1.46754e-05,-0.000113053,-6.3918e-06,0
-4.57941e-05,1.95969e-05,3.545e-06,-2.45624e-05,4.27991e-05,-1.37072e-05,-0.000125246,-5.52607e-06,0
-4.73063e-05,6.68904e-05,2.96131e-06,-5.47024e-05,3.7914e-05,-1.26882e-05,-0.000122302,-5.46067e-06,0
-6.42127e-05,0.000128628,4.85048e-07,-5.05322e-05,2.95012e-05,-1.26705e-05,-8.68235e-05,-4.62872e-06,0
-8.26954e-05,0.00020799,-7.36689e-06,-3.42736e-05,2.34578e-05,-1.28276e-05,-3.6792e-05,-3.86064e-06,0
-9.30434e-05,0.000270902,-1.9501e-05,-2.32682e-05,1.82433e-05,-1.14911e-05,8.58696e-06,-3.03653e-06,0
-9.09624e-05,0.000274107,-2.437e-05,-1.71779e-05,1.51575e-05,-7.99283e-06,3.53355e-05,-1.1317e-06,0
-8.01469e-05,0.000214169,-1.82901e-05,-1.12279e-05,1.78036e-05,-3.51967e-06,3.80655e-05,8.66672e-08,0
-6.34875e-05,0.000127262,-8.23962e-06,-6.73448e-06,2.26914e-05,1.55047e-06,2.657e-05,-6.94076e-07,0
-3.81949e-05,3.00808e-05,7.83882e-07,-4.48979e-06,2.44747e-05,4.97017e-06,1.60698e-05,-2.40637e-06,0
-1.26978e-05,-6.05921e-05,5.73602e-06,-8.10911e-06,2.34148e-05,6.59797e-06,1.54268e-05,-4.28304e-06,0
-1.81329e-06,-0.00013589,9.48735e-06,-1.92785e-05,2.22884e-05,5.63389e-06,1.42782e-05,-3.90177e-06,0
-1.02536e-05,-0.000195598,1.11008e-05,-2.85296e-05,1.95459e-05,1.84823e-06,7.60639e-06,-1.27177e-06,0
-2.72381e-05,-0.000215765,9.05597e-06,-2.65108e-05,1.20395e-05,-4.19882e-06,2.81244e-06,1.32925e-06,0
-4.29565e-05,-0.000169358,4.62274e-06,-1.51084e-05,3.84512e-06,-1.14062e-05,9.66408e-06,3.53858e-06,0
-5.72181e-05,-8.45964e-05,-1.8248e-06,3.06891e-06,3.20207e-06,-1.5432e-05,2.43182e-05,4.69912e-06,0
-6.56878e-05,-1.99539e-05,-8.04593e-06,2.28356e-05,1.26614e-05,-1.49999e-05,3.39279e-05,5.22872e-06,0
-5.0644e-05,-1.28855e-05,-7.5613e-06,3.48841e-05,2.30676e-05,-1.14196e-05,3.53495e-05,5.11872e-06,0
3.23431e-06,-4.28462e-05,1.91299e-06,3.22611e-05,2.43907e-05,-7.09449e-06,3.2209e-05,5.38539e-06,0
7.2002e-05,-5.73461e-05,1.23653e-05,1.53079e-05,1.71904e-05,-4.02106e-06,2.95628e-05,6.40477e-06,0
0.000105935,-4.51836e-05,1.44026e-05,-7.94899e-06,7.6131e-06,-3.81598e-06,2.85938e-05,7.1119e-06,0
8.71231e-05,-2.61736e-05,5.48099e-06,-2.55609e-05,2.74523e-07,-5.40212e-06,2.7299e-05,6.43325e-06,0
4.25622e-05,-2.40038e-05,-4.76655e-06,-3.05042e-05,-2.869e-06,-7.24264e-06,2.12189e-05,4.5289e-06,0
-9.04482e-07,-5.10609e-05,-4.49508e-06,-1.98256e-05,7.29647e-07,-8.7443e-06,1.2862e-05,3.08579e-06,0
-4.07744e-05,-9.51699e-05,7.40738e-06,1.148e-05,1.16142e-05,-9.40118e-06,8.46998e-06,2.9841e-06,0
-8.42059e-05,-0.000113209,1.74004e-05,5.35919e-05,2.18355e-05,-9.52803e-06,1.14897e-05,4.73108e-06,0
-0.000130997,-8.64437e-05,1.28122e-05,7.49627e-05,2.3034e-05,-1.20488e-05,1.70656e-05,6.56157e-06,0
-0.000171598,-5.20268e-05,-3.82874e-06,6.42295e-05,1.73659e-05,-1.59751e-05,1.15956e-05,8.16299e-06,0
-0.000195393,-5.55747e-05,-1.64487e-05,4.04765e-05,1.11041e-05,-1.73744e-05,-6.18105e-06,8.36639e-06,0
-0.000194778,-8.31924e-05,-2.14571e-05,1.41115e-05,7.08879e-06,-1.5947e-05,-1.43589e-05,7.65652e-06,0
-0.000166317,-9.01024e-05,-2.93624e-05,-1.17114e-05,4.60815e-06,-1.4656e-05,-6.95946e-06,6.60185e-06,0
-0.000126978,-6.48824e-05,-4.0267e-05,-3.20733e-05,3.1299e-06,-1.60477e-05,-7.97495e-06,5.16432e-06,0
-9.69433e-05,-2.14885e-05,-4.60854e-05,-5.39444e-05,3.36468e-06,-1.74275e-05,-1.79318e-05,6.17997e-06,0
-8.31827e-05,1.44114e-05,-4.18762e-05,-8.2171e-05,1.91253e-06,-1.60324e-05,-2.70016e-06,7.20583e-06,0
-8.0114e-05,3.70463e-05,-3.13382e-05,-9.78394e-05,-1.28339e-06,-1.45802e-05,3.75938e-05,7.18888e-06,0
-7.56628e-05,6.16276e-05,-1.84042e-05,-7.26391e-05,-8.3214e-07,-1.55397e-05,7.23685e-05,7.00383e-06,0
-6.36989e-05,9.25475e-05,-2.20681e-06,-9.70841e-06,5.29281e-06,-1.52639e-05,8.36536e-05,5.88439e-06,0
-3.98135e-05,0.000115655,1.5859e-05,6.08867e-05,1.17027e-05,-1.41283e-05,7.37543e-05,5.01696e-06,0
-1.22204e-05,0.000113749,3.39926e-05,0.000110508,1.40375e-05,-1.50224e-05,6.2032e-05,6.14131e-06,0
8.53611e-06,9.02264e-05,4.66255e-05,0.000119964,1.56569e-05,-1.69254e-05,5.86034e-05,8.04903e-06,0
1.67558e-05,5.75166e-05,4.79814e-05,9.68629e-05,1.88914e-05,-1.75767e-05,5.79614e-05,9.5031e-06,0
1.85088e-05,3.32233e-05,4.17351e-05,6.30046e-05,1.98324e-05,-1.66784e-05,4.95447e-05,9.88084e-06,0
2.09937e-05,2.8881e-05,3.51879e-05,4.2444e-05,1.72229e-05,-1.67059e-05,3.50729e-05,8.43459e-06,0
1.92872e-05,4.7123e-05,3.19964e-05,3.07421e-05,1.365e-05,-1.94288e-05,2.34673e-05,8.07916e-06,0
8.6342e-06,8.60519e-05,3.06683e-05,1.51607e-05,1.01848e-05,-2.19864e-05,2.00347e-05,8.4561e-06,0
-7.6894e-06,0.000129141,3.16941e-05,1.95108e-06,7.01474e-06,-2.06017e-05,1.96957e-05,8.84731e-06,0
-2.39782e-05,0.000151798,3.33773e-05,-3.40217e-06,4.90786e-06,-1.67816e-05,1.38427e-05,9.75369e-06,0
-3.63951e-05,0.000130405,2.58983e-05,-4.22403e-06,5.13027e-06,-1.47979e-05,1.17892e-07,1.01136e-05,0
-4.02153e-05,6.42077e-05,6.09666e-06,-9.16555e-06,6.4391e-06,-1.63004e-05,-1.43997e-05,8.64426e-06,0
-3.61622e-05,-1.74431e-05,-1.95284e-05,-1.98334e-05,8.42812e-06,-1.8425e-05,-1.91356e-05,9.31367e-06,0
-2.69793e-05,-7.30463e-05,-5.20272e-05,-2.82361e-05,1.05823e-05,-1.93845e-05,-1.23233e-05,1.97557e-05,0
-1.49799e-05,-8.99428e-05,-8.93145e-05,-1.87961e-05,1.26115e-05,-1.89554e-05,-6.82813e-07,3.69104e-05,0
-2.48306e-06,-7.90733e-05,-0.000112208,7.07962e-07,1.46364e-05,-1.8736e-05,9.39763e-06,4.60157e-05,0
6.37647e-06,-4.96368e-05,-0.000108166,-3.0255e-06,1.46081e-05,-1.98006e-05,1.76304e-05,4.00248e-05,0
1.19753e-05,-1.39005e-05,-8.51726e-05,-3.70022e-05,1.37433e-05,-1.92614e-05,2.17165e-05,2.34772e-05,0
1.54788e-05,1.18235e-05,-6.26242e-05,-6.08636e-05,1.66637e-05,-1.59054e-05,2.01393e-05,4.34912e-07,0
1.73517e-05,2.63383e-05,-5.32116e-05,-5.85581e-05,2.53291e-05,-1.0598e-05,1.8253e-05,-2.48505e-05,0
1.88573e-05,3.44487e-05,-5.40263e-05,-5.86023e-05,3.64309e-05,-5.32462e-06,1.85595e-05,-4.63923e-05,0
1.80127e-05,3.73556e-05,-5.71905e-05,-5.8285e-05,4.09233e-05,-3.16046e-06,1.74982e-05,-5.71908e-05,0
1.24003e-05,3.83263e-05,-5.45579e-05,-3.77391e-05,3.73912e-05,-3.07472e-06,2.14927e-05,-5.51477e-05,0
1.01252e-05,4.40388e-05,-4.29239e-05,-6.83065e-06,3.09949e-05,-2.3217e-06,3.56986e-05,-4.7945e-05,0
2.71685e-05,5.74129e-05,-2.87653e-05,2.6712e-05,2.58466e-05,-2.09911e-06,4.79554e-05,-4.08359e-05,0
5.91884e-05,7.2828e-05,-2.32169e-05,3.65856e-05,2.25714e-05,-3.82791e-06,4.79492e-05,-3.02327e-05,0
7.57307e-05,8.65896e-05,-2.43526e-05,1.29955e-05,1.84367e-05,-7.46514e-06,3.88091e-05,-1.86458e-05,0
6.27228e-05,0.000102633,-2.83754e-05,-9.10468e-06,1.52519e-05,-1.1388e-05,2.35264e-05,-9.77225e-06,0
3.63299e-05,0.000124928,-3.353e-05,-1.14733e-05,1.62667e-05,-1.45654e-05,-2.19053e-05,-5.3465e-06,0
1.10694e-05,0.000139359,-3.22131e-05,-2.73681e-06,1.83322e-05,-1.61528e-05,-0.00010315,-3.53897e-06,0
-9.58449e-06,0.00012847,-2.287e-05,6.15988e-06,1.76636e-05,-1.47741e-05,-0.000155343,-5.11539e-07,0
-2.81209e-05,9.47457e-05,-1.01918e-05,1.31797e-05,1.77624e-05,-1.13175e-05,-0.000128553,3.00107e-06,0
-4.82291e-05,6.39318e-05,9.75936e-07,1.10784e-05,2.01449e-05,-7.40709e-06,-6.0671e-05,6.7607e-06,0
-7.09344e-05,4.16019e-05,8.11352e-06,-1.01364e-05,2.15494e-05,-5.60684e-06,-2.05276e-05,1.04651e-05,0
-8.94353e-05,1.24513e-05,8.66975e-06,-3.81069e-05,1.85231e-05,-7.37663e-06,-2.02399e-05,1.2506e-05,0
-9.38387e-05,-1.3546e-05,4.23186e-06,-4.44342e-05,1.35566e-05,-1.15368e-05,-2.63648e-05,1.15268e-05,0
-8.27211e-05,-1.55969e-05,-1.43097e-06,-1.35226e-05,1.04182e-05,-1.48205e-05,-1.29222e-05,9.10789e-06,0
-6.41285e-05,3.21158e-06,-3.04626e-06,3.86387e-05,9.07998e-06,-1.52241e-05,1.78787e-05,6.9299e-06,0
-4.93489e-05,1.89538e-05,2.17459e-06,6.64258e-05,7.38993e-06,-1.37754e-05,4.92997e-05,4.67799e-06,0
-4.31703e-05,1.04105e-05,1.00007e-05,5.39341e-05,5.36769e-06,-1.25142e-05,6.83695e-05,1.9945e-06,0
-3.83994e-05,-3.03569e-05,1.47398e-05,2.25797e-05,4.91686e-06,-1.20717e-05,7.53902e-05,5.42644e-07,0
-2.46392e-05,-8.11007e-05,1.69493e-05,-7.26625e-06,5.72349e-06,-1.12644e-05,9.0202e-05,1.21853e-06,0
-3.66018e-06,-0.000100287,1.84759e-05,-3.48405e-05,6.44005e-06,-1.013e-05,0.000125267,1.68025e-06,0
7.13023e-06,-8.57245e-05,1.71253e-05,-5.84657e-05,5.81277e-06,-1.01451e-05,0.000164611,1.26053e-07,0
1.75599e-06,-7.10811e-05,1.20262e-05,-6.23919e-05,3.55111e-06,-1.12676e-05,0.000186848,-9.95619e-07,0
-1.07021e-05,-6.63105e-05,7.88181e-06,-3.6829e-05,1.69584e-06,-1.0116e-05,0.000189114,-1.83728e-06,0
-2.39571e-05,-6.18268e-05,8.82946e-06,1.00367e-05,4.65061e-06,-5.9842e-06,0.000166691,-2.74749e-06,0
-3.51299e-05,-6.27783e-05,1.27996e-05,5.22728e-05,1.15007e-05,-2.70108e-06,0.000118347,-2.15205e-06,0
-4.75509e-05,-6.16045e-05,1.31904e-05,5.37761e-05,1.58351e-05,-2.66729e-06,5.88294e-05,-1.75635e-06,0
-6.75559e-05,-2.9681e-05,1.00841e-05,1.33311e-05,1.23441e-05,-5.73506e-06,-3.35232e-06,-1.64119e-06,0
-8.62342e-05,3.22944e-05,1.38342e-05,-2.50131e-05,8.17154e-06,-9.88345e-06,-4.73298e-05,-8.85144e-07,0
-8.28583e-05,8.9215e-05,2.28943e-05,-3.66822e-05,1.14049e-05,-1.05493e-05,-5.96747e-05,1.20495e-06,0
-6.30365e-05,0.000102108,2.16746e-05,-2.56261e-05,1.24112e-05,-7.08867e-06,-5.50774e-05,4.58556e-06,0
-4.65216e-05,8.3961e-05,7.68077e-06,-1.23735e-05,6.66134e-06,-3.96468e-06,-5.75206e-05,7.67164e-06,0
-4.00744e-05,7.29496e-05,-5.65214e-06,-1.1995e-05,6.77727e-07,-1.1708e-06,-0.000125169,1.04413e-05,0
-4.13709e-05,6.95967e-05,-1.05086e-05,-1.88169e-05,-1.66014e-06,1.75418e-06,-0.000220772,1.0824e-05,0
-5.01262e-05,5.37783e-05,-8.16241e-06,-3.02693e-05,-9.60704e-07,2.44374e-06,-0.000225589,8.3472e-06,0
-6.43798e-05,-2.58054e-07,-3.47868e-06,-4.46949e-05,7.66168e-07,1.54601e-06,-0.000118887,4.6143e-06,0
-6.93122e-05,-7.83948e-05,5.25614e-08,-5.52587e-05,1.68364e-06,3.3217e-07,2.72304e-05,6.3127e-07,0
-5.51304e-05,-0.000135062,2.65817e-06,-5.18427e-05,2.03053e-06,7.26991e-08,0.000132771,-1.40464e-06,0
-3.15806e-05,-0.000146664,5.29551e-06,-3.56611e-05,4.8832e-06,1.09315e-06,0.000170996,-1.09719e-07,0
-2.11536e-05,-0.000129784,6.38991e-06,-1.8165e-05,8.17532e-06,1.46152e-06,0.000157989,9.91916e-07,0
-2.7665e-05,-0.000100188,5.21877e-06,-8.17001e-06,9.5058e-06,-4.869e-08,0.00012724,-1.01524e-06,0
-3.04674e-05,-5.79557e-05,3.49728e-06,-8.27074e-06,8.2811e-06,-1.81803e-06,9.68388e-05,-3.67146e-06,0
-1.91184e-05,-2.44109e-05,3.2725e-06,-1.81303e-05,6.00346e-06,-2.34616e-06,7.19011e-05,-5.8615e-06,0
-1.81617e-06,-2.18995e-05,4.66162e-06,-3.91562e-05,4.76932e-06,-2.13167e-06,5.31712e-05,-9.21282e-06,0
1.78588e-05,-2.68612e-05,6.42385e-06,-6.72748e-05,4.68455e-06,-1.30193e-06,3.92985e-05,-1.3977e-05,0
3.55414e-05,2.07683e-06,7.9794e-06,-8.90754e-05,5.28187e-06,-4.87785e-07,2.81768e-05,-1.68347e-05,0
2.94808e-05,5.06866e-05,8.96634e-06,-7.20481e-05,6.10635e-06,-1.36501e-06,1.88543e-05,-1.62816e-05,0
-9.53867e-06,7.78901e-05,7.07505e-06,5.82514e-06,7.82974e-06,-4.14179e-06,1.00056e-05,-1.27911e-05,0
-5.60474e-05,7.15274e-05,-1.03429e-06,0.000100041,1.33762e-05,-5.87834e-06,-3.58455e-06,-7.82344e-06,0
-8.3661e-05,5.54241e-05,-1.37571e-05,0.000128623,1.98174e-05,-4.28475e-06,-2.03142e-05,-3.98309e-06,0
-9.19549e-05,6.03069e-05,-2.34575e-05,8.92282e-05,1.94073e-05,-5.84037e-07,-3.12922e-05,-3.56369e-06,0
-9.06638e-05,6.53221e-05,-2.20014e-05,5.53622e-05,1.58437e-05,1.75025e-06,-3.06133e-05,-4.54957e-06,0
-8.47613e-05,8.40244e-06,-1.68904e-05,5.14696e-05,1.59091e-05,2.37188e-06,-2.7446e-05,-3.90098e-06,0
-8.59223e-05,-0.000110829,-2.08494e-05,3.92761e-05,1.86585e-05,2.53714e-07,-3.17338e-05,-1.74654e-06,0
-9.99541e-05,-0.000207255,-3.60012e-05,8.55835e-06,2.15377e-05,-7.3633e-06,-3.72312e-05,-1.58903e-06,0
-0.00010196,-0.000190823,-4.83763e-05,-1.52969e-05,2.44187e-05,-1.26485e-05,-3.4526e-05,-3.3709e-06,0
-7.71021e-05,-9.84064e-05,-4.05115e-05,-2.78493e-05,2.60828e-05,-1.02834e-05,-2.61472e-05,-3.33442e-06,0
-4.42623e-05,-2.88073e-05,-2.71191e-05,-2.94355e-05,2.47135e-05,-6.30758e-06,-1.47039e-05,-2.49072e-06,0
-2.09904e-05,5.74206e-06,-2.82114e-05,-8.16311e-06,2.19743e-05,-5.1306e-06,-2.93972e-06,-1.51176e-06,0
-7.67352e-06,2.74529e-05,-3.71138e-05,1.98399e-05,1.70857e-05,-6.08716e-06,7.8309e-06,3.68666e-07,0
8.86273e-06,4.29417e-05,-3.81881e-05,2.86401e-05,1.07233e-05,-7.57058e-06,1.83016e-05,2.0801e-06,0
3.30076e-05,4.25105e-05,-3.37609e-05,7.59848e-06,8.78369e-06,-9.25059e-06,2.7209e-05,2.43507e-06,0
4.95778e-05,3.02599e-05,-3.21736e-05,-3.59108e-05,1.18756e-05,-9.64798e-06,3.13782e-05,2.03817e-06,0
4.69376e-05,1.9782e-05,-2.84379e-05,-7.13348e-05,1.6653e-05,-8.81727e-06,3.01908e-05,1.74638e-06,0
2.95973e-05,2.38606e-05,-1.63102e-05,-7.09083e-05,1.79923e-05,-7.68081e-06,1.19249e-05,2.45555e-06,0
1.34754e-05,3.94645e-05,2.72499e-06,-4.41568e-05,1.52671e-05,-7.1264e-06,-3.52196e-05,3.87038e-06,0
7.91994e-06,5.36966e-05,1.92019e-05,-2.19662e-05,1.18318e-05,-8.20031e-06,-8.30257e-05,3.76677e-06,0
7.58214e-06,6.12232e-05,2.755e-05,-2.01113e-05,1.00527e-05,-1.15364e-05,-8.86552e-05,2.71432e-06,0
5.26877e-06,6.48104e-05,2.80023e-05,-3.87273e-05,1.11401e-05,-1.53483e-05,-4.47143e-05,3.44064e-06,0
1.19442e-06,7.31102e-05,2.37774e-05,-6.01615e-05,1.40726e-05,-1.70781e-05,1.93717e-05,5.23312e-06,0
-1.70978e-06,8.54121e-05,1.43733e-05,-6.29777e-05,1.70991e-05,-1.59909e-05,7.05213e-05,6.10512e-06,0
-5.63314e-06,9.36912e-05,-3.53883e-06,-4.81255e-05,1.7869e-05,-1.31777e-05,9.38471e-05,6.44936e-06,0
-1.25567e-05,8.44558e-05,-2.7696e-05,-3.7833e-05,1.64619e-05,-1.20716e-05,9.23038e-05,7.23697e-06,0
-1.89281e-05,5.58429e-05,-4.50289e-05,-3.68051e-05,1.55387e-05,-1.28311e-05,7.74952e-05,7.85984e-06,0
-2.13855e-05,2.94121e-05,-4.43631e-05,-2.86945e-05,1.80197e-05,-1.21525e-05,6.15398e-05,7.84155e-06,0
-1.86507e-05,3.95687e-05,-3.19508e-05,-8.65814e-06,2.08411e-05,-8.86597e-06,4.90754e-05,7.35544e-06,0
-1.17814e-05,8.41203e-05,-2.00546e-05,4.25962e-06,2.06235e-05,-7.03947e-06,3.99039e-05,6.42048e-06,0
-4.73715e-06,0.000130525,-1.38104e-05,1.6216e-06,2.00062e-05,-8.02944e-06,3.57035e-05,5.84292e-06,0
-2.13465e-06,0.000153582,-1.09279e-05,-1.45533e-06,2.10669e-05,-7.61347e-06,4.10875e-05,6.01925e-06,0
-5.45022e-06,0.000152244,-7.43619e-06,1.59146e-06,2.1247e-05,-4.80808e-06,7.07303e-05,7.14418e-06,0
-9.93919e-06,0.000147602,-4.0544e-06,2.96381e-06,2.13676e-05,-3.56545e-06,0.000124706,9.35797e-06,0
-1.36243e-05,0.000149438,-4.25493e-06,7.9433e-06,2.47439e-05,-5.5674e-06,0.000181294,1.11081e-05,0
-1.77707e-05,0.000139671,-6.06411e-06,2.15928e-05,2.51392e-05,-6.91508e-06,0.000205473,1.01682e-05,0
-2.13517e-05,0.000115201,-1.33964e-06,3.44206e-05,1.97614e-05,-6.43872e-06,0.000180881,8.05801e-06,0
-2.90302e-05,9.08662e-05,9.34284e-06,3.83249e-05,1.4521e-05,-7.09444e-06,0.000118648,7.39143e-06,0
-4.38909e-05,6.94872e-05,1.6692e-05,3.14523e-05,1.27025e-05,-8.67282e-06,2.92706e-05,6.34744e-06,0
-5.82905e-05,3.94275e-05,2.04385e-05,1.75123e-05,1.24226e-05,-1.03579e-05,-6.48128e-05,6.07026e-06,0
-6.58608e-05,-7.53396e-06,2.7607e-05,1.43979e-06,1.1541e-05,-1.11218e-05,-0.000144144,6.51343e-06,0
-7.13023e-05,-5.37335e-05,4.09872e-05,-1.37026e-05,1.26459e-05,-1.09074e-05,-0.000184308,5.27702e-06,0
-8.36247e-05,-7.96478e-05,5.39929e-05,-2.93094e-05,1.68334e-05,-1.09519e-05,-0.00018213,3.87968e-06,0
-0.000101439,-8.68397e-05,5.88819e-05,-4.22766e-05,1.89262e-05,-1.1792e-05,-0.000153887,3.52641e-06,0
-0.000110213,-8.85983e-05,5.39332e-05,-4.99431e-05,1.46381e-05,-1.42188e-05,-0.000118667,2.6704e-06,0
-9.90763e-05,-8.47486e-05,4.51383e-05,-5.06161e-05,8.38959e-06,-1.55463e-05,-9.41655e-05,1.30746e-06,0
-7.26538e-05,-7.45131e-05,3.501e-05,-5.10745e-05,5.48628e-06,-1.45877e-05,-7.95012e-05,6.44476e-07,0
-4.57925e-05,-6.26089e-05,1.96409e-05,-5.67787e-05,4.41474e-06,-1.47478e-05,-6.49023e-05,2.25373e-08,0
-2.79447e-05,-4.9757e-05,-2.58797e-06,-5.87048e-05,2.33694e-06,-1.83999e-05,-4.66382e-05,2.6986e-08,0
-1.51803e-05,-2.92549e-05,-2.53562e-05,-4.29434e-05,1.13214e-06,-2.16724e-05,-3.66449e-05,8.97313e-08,0
-9.89188e-07,1.08851e-06,-4.525e-05,-4.57588e-06,3.89082e-06,-1.90006e-05,-5.27711e-05,-1.42711e-06,0
1.64179e-05,3.12549e-05,-6.51514e-05,4.84396e-05,9.78751e-06,-1.15483e-05,-9.9269e-05,-4.24942e-06,0
3.26964e-05,4.92444e-05,-7.93602e-05,9.65232e-05,1.47457e-05,-4.89085e-06,-0.000140737,-6.16097e-06,0
3.96603e-05,5.25247e-05,-7.996e-05,0.000109714,1.57619e-05,-1.318e-06,-0.000135143,-6.11817e-06,0
3.06061e-05,5.03413e-05,-7.25761e-05,7.44918e-05,1.22434e-05,-1.07488e-06,-7.55668e-05,-5.13793e-06,0
6.42745e-06,4.96814e-05,-6.32272e-05,2.11829e-05,6.88198e-06,-2.68662e-06,5.05994e-06,-5.25073e-06,0
-2.28856e-05,4.5001e-05,-4.74341e-05,-1.44401e-05,5.2256e-06,-2.85817e-06,7.2775e-05,-5.3054e-06,0
-4.77787e-05,2.66528e-05,-2.31295e-05,-3.97613e-05,7.66706e-06,-1.93734e-06,0.00011405,-1.51386e-06,0
-6.78728e-05,-5.66898e-06,3.79799e-06,-6.29698e-05,9.53467e-06,-1.4687e-06,0.00013309,6.88561e-06,0
-8.52606e-05,-4.13749e-05,1.8859e-05,-6.91032e-05,8.05027e-06,-1.81619e-06,0.000135256,1.31928e-05,0
-9.73648e-05,-6.20022e-05,1.6693e-05,-5.41701e-05,5.6733e-06,-3.3609e-06,0.000126065,1.10931e-05,0
-9.83163e-05,-5.43878e-05,7.3667e-06,-3.26458e-05,4.3353e-06,-8.18917e-06,0.000108607,2.33937e-06,0
-8.66217e-05,-2.75682e-05,2.97644e-06,-1.55674e-05,3.29645e-06,-1.36823e-05,8.80141e-05,-6.60718e-06,0
-7.32682e-05,-2.93054e-06,-1.91282e-06,-7.81148e-06,4.65574e-06,-1.58047e-05,7.46386e-05,-1.15435e-05,0
-6.79414e-05,1.34125e-05,-1.84454e-05,4.45634e-06,9.74752e-06,-1.47261e-05,6.83007e-05,-1.40563e-05,0
-6.50773e-05,2.60111e-05,-4.10433e-05,3.53609e-05,1.46461e-05,-1.21004e-05,6.21242e-05,-1.59014e-05,0
-4.68632e-05,2.93605e-05,-5.67983e-05,6.71051e-05,1.65044e-05,-9.16579e-06,5.09273e-05,-1.71464e-05,0
-4.36219e-06,2.74103e-05,-5.81856e-05,9.65466e-05,1.84943e-05,-5.07382e-06,3.58882e-05,-1.57679e-05,0
4.95552e-05,3.90463e-05,-4.41618e-05,0.00012748,2.07783e-05,-1.99822e-06,2.07236e-05,-1.35683e-05,0
8.86373e-05,4.89234e-05,-1.9995e-05,0.000140251,2.22414e-05,-3.12162e-07,8.55673e-06,-1.10029e-05,0
9.60182e-05,3.95061e-05,1.42975e-06,0.000125037,2.43804e-05,9.76438e-07,-1.20328e-07,-7.75615e-06,0
7.43913e-05,2.98133e-05,1.32089e-05,9.29717e-05,2.43192e-05,7.77363e-07,-5.16337e-06,-6.9122e-06,0
4.03809e-05,5.55661e-05,1.5358e-05,5.03056e-05,1.95465e-05,-6.93649e-07,-9.93767e-06,-7.05468e-06,0
2.03519e-05,0.000117002,9.84791e-06,-1.80815e-06,1.14629e-05,-3.41812e-06,-1.42914e-05,-5.51235e-06,0
2.22706e-05,0.000173673,1.10782e-06,-3.8278e-05,6.14708e-06,-6.08013e-06,-1.73448e-05,-3.8621e-06,0
2.74634e-05,0.000208099,-6.32475e-06,-3.66863e-05,8.68793e-06,-8.51638e-06,-1.59661e-05,-3.85542e-06,0
1.34174e-05,0.000235006,-9.63151e-06,-1.16418e-05,1.54679e-05,-1.10098e-05,-9.29988e-06,-2.41068e-06,0
-1.73124e-05,0.000266228,-9.26816e-06,6.17498e-06,1.94786e-05,-1.32335e-05,-1.6194e-06,1.69833e-06,0
-4.23439e-05,0.000294859,-7.00183e-06,4.36317e-06,2.05846e-05,-1.41719e-05,3.27026e-06,5.31969e-06,0
-5.07718e-05,0.000306531,-4.56068e-06,-1.58746e-05,2.27287e-05,-1.33313e-05,7.14357e-06,5.69635e-06,0
-5.87513e-05,0.000272449,-4.50988e-06,-5.23304e-05,2.53236e-05,-1.27525e-05,1.52689e-05,4.46834e-06,0
-8.53794e-05,0.000175621,-8.92052e-06,-9.3698e-05,2.61521e-05,-1.38749e-05,2.62236e-05,4.41659e-06,0
-0.000124862,3.06398e-05,-1.73426e-05,-0.000114366,2.45834e-05,-1.60183e-05,2.71561e-05,6.17663e-06,0
-0.000162261,-0.000132917,-2.42438e-05,-9.4402e-05,1.94538e-05,-1.87152e-05,1.51488e-05,8.61382e-06,0
-0.000189897,-0.000276264,-2.4533e-05,-4.42005e-05,9.32331e-06,-2.30416e-05,1.16721e-05,9.91766e-06,0
-0.00020294,-0.000362557,-2.04234e-05,1.83136e-05,-1.64086e-06,-2.85236e-05,2.94024e-05,1.0483e-05,0
-0.000197994,-0.000389208,-1.5663e-05,9.11824e-05,-7.93317e-06,-3.26306e-05,5.42883e-05,1.1491e-05,0
-0.000182765,-0.00037622,-1.42127e-05,0.000147559,-8.7583e-06,-3.37098e-05,6.73147e-05,1.25488e-05,0
-0.000163758,-0.00033743,-1.42019e-05,0.000144504,-2.93697e-06,-3.0203e-05,6.34081e-05,1.18018e-05,0
-0.000141108,-0.000307587,-1.29303e-05,9.72408e-05,5.47795e-06,-2.39776e-05,4.59208e-05,1.04837e-05,0
-0.000105986,-0.000292714,-1.25681e-05,4.77534e-05,8.83488e-06,-1.9854e-05,2.01205e-05,9.49952e-06,0
-5.78854e-05,-0.000241895,-9.55505e-06,1.45439e-05,7.46816e-06,-1.6812e-05,-1.44009e-07,6.06831e-06,0
-1.59621e-05,-0.000141542,-4.45175e-06,-2.09615e-05,4.32769e-06,-1.14958e-05,-1.78003e-06,5.90175e-07,0
1.18959e-05,-3.28606e-05,-9.61482e-07,-7.14501e-05,1.24809e-06,-4.34271e-06,1.01539e-05,-4.35791e-06,0
3.27892e-05,4.09232e-05,-2.41437e-06,-0.000107961,8.64997e-08,6.58563e-07,2.5826e-05,-6.6452e-06,0
4.53178e-05,6.45778e-05,-6.94621e-06,-0.000110129,4.62727e-07,3.66792e-06,3.83286e-05,-6.31044e-06,0
3.93593e-05,4.58042e-05,-6.27987e-06,-7.90903e-05,1.61549e-06,3.13838e-06,4.21518e-05,-4.59688e-06,0
1.81009e-05,1.46057e-05,4.97114e-07,-2.49887e-05,4.64403e-06,3.92178e-07,3.92474e-05,-2.49446e-06,0
-6.67535e-06,-3.73485e-06,6.969e-06,3.76291e-05,4.97454e-06,-4.70523e-07,3.61933e-05,-4.94984e-07,0
-2.93978e-05,-1.85204e-05,4.96488e-06,8.76593e-05,3.37434e-07,-2.78869e-08,3.06824e-05,2.62024e-06,0
-4.98347e-05,-4.63777e-05,-5.75807e-06,0.000103203,-3.31087e-06,-1.71548e-07,1.95367e-05,5.34158e-06,0
-6.40154e-05,-7.04089e-05,-1.46829e-05,8.10862e-05,-1.09486e-06,-1.35753e-06,6.32675e-06,6.40536e-06,0
-6.69218e-05,-6.77906e-05,-1.07706e-05,3.2783e-05,4.44455e-06,-2.24315e-06,-3.26408e-06,5.69717e-06,0
-6.10632e-05,-4.51898e-05,1.61918e-06,-3.27811e-05,8.01164e-06,-3.55071e-06,-2.1005e-06,4.69837e-06,0
-5.26293e-05,-1.3287e-05,8.35711e-06,-0.000107723,1.02552e-05,-6.15787e-06,8.31294e-06,4.76971e-06,0
-4.42545e-05,2.56521e-05,6.22368e-06,-0.000162243,1.46195e-05,-8.1777e-06,1.32658e-05,6.01697e-06,0
-3.29696e-05,7.7715e-05,3.27236e-06,-0.000161134,2.15934e-05,-6.42944e-06,6.65792e-06,7.47905e-06,0
-1.5923e-05,0.000139304,9.97519e-07,-0.000118276,2.66577e-05,-3.2542e-06,4.43843e-06,7.39504e-06,0
1.46708e-06,0.000182907,-4.74985e-06,-9.06106e-05,2.58172e-05,-1.57881e-06,1.40566e-06,5.70694e-06,0
1.0268e-05,0.00017346,-1.07721e-05,-9.80175e-05,2.10911e-05,-2.179e-06,-3.04227e-05,4.29824e-06,0
7.02406e-06,0.000107801,-1.70863e-05,-0.00010443,1.74579e-05,-4.29602e-06,-6.37318e-05,4.68736e-06,0
-7.37418e-06,2.76335e-05,-2.86912e-05,-8.46306e-05,1.1364e-05,-7.95664e-06,-4.57617e-05,6.44016e-06,0
-2.54452e-05,-1.34167e-05,-3.70294e-05,-5.36587e-05,-2.19326e-07,-9.93504e-06,8.95422e-06,1.69179e-05,0
-3.3243e-05,-1.84376e-07,-2.45604e-05,-3.97241e-05,-6.77686e-06,-6.95448e-06,4.94054e-05,3.61505e-05,0
-2.43187e-05,2.01602e-05,1.47472e-06,-3.2694e-05,3.13309e-06,-5.70201e-07,6.21808e-05,4.65211e-05,0
-5.73536e-06,-1.24088e-05,1.83785e-05,3.60716e-06,2.70975e-05,5.68776e-06,6.58285e-05,4.18295e-05,0
8.90799e-06,-5.22673e-05,1.99079e-05,5.65442e-05,4.7026e-05,7.54991e-06,6.47851e-05,2.8369e-05,0
8.2533e-06,-3.66788e-05,1.52485e-05,8.49229e-05,4.71912e-05,3.29577e-06,5.38005e-05,5.93616e-06,0
-5.73465e-06,9.2025e-06,1.35874e-05,7.53779e-05,3.27771e-05,-3.19836e-06,3.58986e-05,-2.12428e-05,0
-1.407e-05,5.68668e-05,1.50501e-05,4.26277e-05,2.13622e-05,-7.42426e-06,2.28531e-05,-4.02266e-05,0
-4.63877e-06,0.000105846,1.69125e-05,2.05487e-05,2.10568e-05,-1.05613e-05,1.55554e-05,-4.39013e-05,0
8.19406e-06,0.0001559,1.577e-05,2.5943e-05,2.57708e-05,-1.28426e-05,7.27298e-06,-3.83529e-05,0
8.51691e-06,0.000183049,9.13871e-06,4.43448e-05,3.08711e-05,-1.26297e-05,-8.45443e-07,-3.30122e-05,0
-2.74584e-06,0.000173507,-8.03538e-06,4.73514e-05,3.34616e-05,-1.12375e-05,-4.97452e-06,-2.87892e-05,0
-1.16272e-05,0.000144181,-2.72272e-05,2.86509e-05,3.30351e-05,-1.04511e-05,-8.37101e-06,-2.1323e-05,0
-9.57677e-06,0.00011551,-3.35355e-05,7.78464e-06,3.18762e-05,-1.16211e-05,-1.5562e-05,-1.17855e-05,0
-7.82203e-07,8.41871e-05,-2.6155e-05,3.00036e-06,3.03786e-05,-1.32211e-05,-2.15894e-05,-5.74188e-06,0
5.05757e-06,3.10072e-05,-1.49604e-05,1.47359e-05,2.80997e-05,-1.31739e-05,-2.38015e-05,-3.53739e-06,0
3.74593e-06,-5.29107e-05,-7.69338e-06,3.20965e-05,2.61392e-05,-1.237e-05,-2.68989e-05,-2.70105e-06,0
-2.05702e-06,-0.000130968,-2.24861e-06,4.77785e-05,2.61153e-05,-1.08049e-05,-3.84795e-05,-1.86407e-07,0
