ch1,ch2,ch3,ch4,ch5,ch6,ch7,ch8,class
-2.5563e-05,5.70022e-07,-1.88507e-05,2.30164e-05,2.22347e-05,-1.43831e-05,2.12476e-05,-1.40408e-06,0
-2.38008e-05,6.14083e-06,-1.70184e-05,4.01476e-05,2.33335e-05,-1.66126e-05,2.19956e-05,-1.88558e-06,0
-2.213e-05,1.03245e-05,-1.39946e-05,5.26599e-05,2.57997e-05,-1.85307e-05,2.13893e-05,-1.92199e-06,0
-2.26847e-05,1.37877e-05,-1.14838e-05,5.50364e-05,2.85318e-05,-1.9439e-05,2.02782e-05,-1.64222e-06,0
-2.47924e-05,1.67723e-05,-1.0858e-05,4.44666e-05,2.96281e-05,-1.95629e-05,2.00724e-05,-1.9401e-06,0
-2.67851e-05,1.85439e-05,-1.09127e-05,2.62865e-05,2.91606e-05,-1.88322e-05,2.08167e-05,-1.97442e-06,0
-2.73333e-05,2.05624e-05,-9.21394e-06,7.72916e-06,2.89362e-05,-1.65925e-05,2.14375e-05,-1.55941e-06,0
-2.64489e-05,2.49612e-05,-6.19028e-06,-5.84609e-06,2.94831e-05,-1.43047e-05,2.19581e-05,-1.30625e-06,0
-2.65584e-05,3.01382e-05,-2.97452e-06,-1.20346e-05,2.97546e-05,-1.45414e-05,2.2418e-05,-6.85826e-07,0
-2.76227e-05,3.42226e-05,6.27252e-07,-1.17006e-05,2.76698e-05,-1.71241e-05,2.18249e-05,1.45094e-07,0
-2.73512e-05,3.74499e-05,5.07002e-06,-8.76167e-06,2.44895e-05,-1.87364e-05,1.91462e-05,-1.76143e-07,0
-2.515e-05,3.95365e-05,1.10321e-05,-9.80117e-06,2.12041e-05,-1.88798e-05,1.59885e-05,5.72611e-07,0
-2.41331e-05,4.13477e-05,1.93501e-05,-1.34398e-05,1.78461e-05,-1.88403e-05,1.30217e-05,9.60513e-07,0
-2.75963e-05,4.19275e-05,2.90744e-05,-1.08927e-05,1.45368e-05,-1.68709e-05,1.16414e-05,-1.42733e-07,0
-3.22515e-05,4.06465e-05,3.90014e-05,-1.38921e-06,1.25599e-05,-1.40335e-05,1.42086e-05,3.99784e-07,0
-3.26783e-05,3.86582e-05,5.27631e-05,1.10651e-05,1.30186e-05,-1.23158e-05,1.61558e-05,1.14113e-06,0
-2.96691e-05,3.53607e-05,6.21783e-05,2.14119e-05,1.38124e-05,-1.27272e-05,1.56833e-05,2.64357e-06,0
-2.73015e-05,3.10989e-05,5.75667e-05,2.97033e-05,1.45002e-05,-1.43241e-05,1.63299e-05,5.66627e-06,0
-2.63533e-05,2.86586e-05,3.75731e-05,3.57308e-05,1.5611e-05,-1.60408e-05,1.92012e-05,7.62623e-06,0
-2.70714e-05,2.66097e-05,1.13809e-06,2.9687e-05,1.78103e-05,-1.87867e-05,2.23244e-05,7.80423e-06,0
-2.88091e-05,2.30435e-05,-4.16824e-05,1.47877e-05,1.8734e-05,-2.56461e-05,2.26469e-05,7.67515e-06,0
-2.93269e-05,2.01455e-05,-7.68881e-05,3.85146e-06,1.78806e-05,-3.50112e-05,2.01703e-05,7.22891e-06,0
-2.89664e-05,1.90123e-05,-9.36895e-05,-5.26708e-06,1.63215e-05,-3.1304e-05,1.60651e-05,4.96431e-06,0
-2.95312e-05,2.11305e-05,-9.38346e-05,-2.70539e-05,1.35672e-05,-7.62744e-06,1.23417e-05,3.36419e-06,0
-3.13144e-05,2.93666e-05,-8.42144e-05,-5.9499e-05,1.03754e-05,1.66534e-05,1.23379e-05,3.97057e-06,0
-3.24004e-05,3.98973e-05,-7.11879e-05,-7.77278e-05,7.16415e-06,2.21698e-05,1.50607e-05,4.8874e-06,0
-3.27436e-05,4.26685e-05,-5.85499e-05,-7.2171e-05,6.36202e-06,1.16465e-05,1.7851e-05,5.53335e-06,0
-3.22717e-05,3.72989e-05,-4.59204e-05,-5.33644e-05,7.58184e-06,-5.84113e-07,1.96864e-05,4.96916e-06,0
-3.12232e-05,3.0203e-05,-3.39102e-05,-2.80795e-05,8.09187e-06,-6.41534e-06,1.95136e-05,3.14684e-06,0
-3.06376e-05,2.48233e-05,-2.35166e-05,3.15784e-07,6.76167e-06,-6.57103e-06,1.79093e-05,2.66499e-06,0
-3.12945e-05,1.92984e-05,-1.55995e-05,2.57411e-05,4.93409e-06,-5.20232e-06,1.70167e-05,4.343e-06,0
-3.30301e-05,1.23392e-05,-8.33338e-06,4.11415e-05,5.65038e-06,-4.32671e-06,1.71686e-05,6.36466e-06,0
-3.40286e-05,5.81545e-06,-7.48258e-07,4.60051e-05,9.74624e-06,-3.57244e-06,1.68806e-05,6.40092e-06,0
-3.33036e-05,2.17653e-06,6.65948e-06,4.73673e-05,1.33343e-05,-2.22254e-06,1.56221e-05,5.37618e-06,0
-3.23952e-05,3.32325e-06,1.24347e-05,5.00523e-05,1.1713e-05,-1.13017e-07,1.43144e-05,5.89426e-06,0
-3.20353e-05,7.42482e-06,1.73936e-05,4.49992e-05,8.74286e-06,1.44039e-06,1.41068e-05,6.83551e-06,0
-3.17511e-05,1.24201e-05,2.03387e-05,1.67755e-05,9.88178e-06,1.00543e-06,1.57428e-05,5.13054e-06,0
-3.28656e-05,1.83013e-05,1.89747e-05,-3.71258e-05,1.29058e-05,-6.53021e-06,1.91241e-05,2.92342e-06,0
-3.42976e-05,2.63719e-05,1.50151e-05,-9.98265e-05,1.24704e-05,-2.02722e-05,2.2877e-05,1.38285e-06,0
-3.44681e-05,3.31518e-05,1.3347e-05,-0.000145365,9.24947e-06,-2.89475e-05,2.65983e-05,-1.14108e-06,0
-3.40536e-05,3.37268e-05,1.41061e-05,-0.000164505,6.93836e-06,-2.97862e-05,2.9123e-05,-1.46195e-06,0
-3.40859e-05,2.88275e-05,1.40925e-05,-0.000176693,5.3504e-06,-2.83122e-05,2.77886e-05,1.43071e-06,0
-3.39306e-05,1.97454e-05,1.36741e-05,-0.000196921,4.8072e-06,-2.85111e-05,2.16865e-05,4.63943e-06,0
-3.42762e-05,9.82869e-06,1.26401e-05,-0.000194007,9.26171e-06,-2.83333e-05,1.68192e-05,5.18684e-06,0
-3.42475e-05,2.2182e-06,1.07454e-05,-0.000131264,1.6306e-05,-2.46487e-05,1.64751e-05,3.26163e-06,0
-3.27419e-05,-2.82263e-06,1.28516e-05,-2.39943e-05,2.34184e-05,-1.81419e-05,1.63256e-05,7.4201e-07,0
-3.16025e-05,-7.71456e-06,1.64875e-05,7.65836e-05,3.16996e-05,-7.8677e-06,1.59088e-05,-8.14918e-07,0
-3.1361e-05,-1.18685e-05,1.6573e-05,0.000138585,3.5558e-05,1.41691e-06,1.15207e-05,-3.2242e-07,0
-3.15166e-05,-9.15595e-06,1.54658e-05,0.000166013,3.34876e-05,3.58235e-06,-3.15005e-06,8.19116e-07,0
-3.20556e-05,-3.60658e-07,1.67874e-05,0.000171856,3.04966e-05,1.64747e-05,-2.31052e-05,3.93157e-07,0
-3.34141e-05,8.89415e-06,2.12536e-05,0.000171292,3.33812e-05,5.54762e-05,-3.70605e-05,-1.42673e-06,0
-3.52051e-05,1.41317e-05,2.52453e-05,0.000166063,3.90279e-05,8.71878e-05,-3.90514e-05,-2.29278e-06,0
-3.64768e-05,1.65618e-05,2.71766e-05,0.000145606,3.95339e-05,7.79843e-05,-2.9463e-05,-1.56455e-06,0
-3.60938e-05,1.81661e-05,2.63656e-05,0.000110108,3.24821e-05,4.53183e-05,-1.7125e-05,-4.0722e-07,0
-3.46526e-05,1.85995e-05,2.29709e-05,7.54962e-05,2.0998e-05,2.2485e-05,-9.46687e-06,-1.14634e-06,0
-3.35285e-05,1.92239e-05,1.76162e-05,5.62424e-05,1.25777e-05,1.62389e-05,-5.72836e-06,-2.65602e-06,0
-3.38276e-05,2.06605e-05,1.16395e-05,5.27172e-05,9.07867e-06,1.5494e-05,-2.40601e-06,-1.40547e-06,0
-3.54366e-05,2.19275e-05,7.24325e-06,5.53176e-05,8.86992e-06,1.30888e-05,2.01394e-06,1.84115e-06,0
-3.72152e-05,2.31586e-05,5.54477e-06,5.39911e-05,9.98204e-06,9.17292e-06,6.65472e-06,3.99242e-06,0
-3.798e-05,2.6039e-05,4.61157e-06,4.69285e-05,1.15286e-05,6.351e-06,1.31647e-05,3.81137e-06,0
-3.69192e-05,2.88151e-05,3.47233e-06,3.86797e-05,1.21374e-05,4.71623e-06,2.18071e-05,2.53791e-06,0
-3.53052e-05,2.92387e-05,1.35256e-06,3.15935e-05,1.04415e-05,2.95897e-06,2.97561e-05,2.52108e-06,0
-3.52977e-05,2.66111e-05,-3.21517e-06,1.78065e-05,6.47893e-06,3.36488e-07,3.39662e-05,3.73196e-06,0
-3.66482e-05,2.25339e-05,-8.75727e-06,-3.64286e-06,2.9215e-06,-3.49107e-06,3.04084e-05,3.63453e-06,0
-3.81301e-05,2.05262e-05,-1.17812e-05,-2.27254e-05,2.88291e-06,-7.07021e-06,1.32709e-05,2.92143e-06,0
-3.91451e-05,2.06867e-05,-1.26713e-05,-3.37721e-05,6.34463e-06,-9.14798e-06,-9.0021e-06,3.0116e-06,0
-3.95492e-05,2.14699e-05,-1.59512e-05,-4.09169e-05,9.72114e-06,-1.23108e-05,-1.52371e-05,2.21261e-06,0
-3.94873e-05,2.36999e-05,-2.0984e-05,-5.18588e-05,1.06833e-05,-1.64864e-05,1.37603e-07,6.17502e-07,0
-3.91138e-05,2.85552e-05,-2.27824e-05,-7.0048e-05,1.07948e-05,-2.0296e-05,2.46432e-05,5.58007e-07,0
-3.78727e-05,3.3557e-05,-2.18767e-05,-8.56701e-05,1.15385e-05,-2.01106e-05,4.59217e-05,1.1738e-06,0
-3.5407e-05,3.43208e-05,-2.12487e-05,-8.1158e-05,1.2681e-05,-1.64967e-05,5.77698e-05,1.30742e-06,0
-3.4399e-05,2.94407e-05,-2.08403e-05,-5.5831e-05,1.33119e-05,-1.65622e-05,6.09041e-05,-5.33246e-07,0
-3.42257e-05,1.82767e-05,-2.0937e-05,-2.9695e-05,1.28433e-05,-1.82993e-05,5.78004e-05,-1.74633e-06,0
-3.30555e-05,4.0364e-06,-2.09988e-05,-1.85387e-05,1.19131e-05,-1.9247e-05,5.1068e-05,5.69492e-07,0
-3.48939e-05,-5.07959e-06,-1.96304e-05,-1.24609e-05,1.15012e-05,-2.25607e-05,4.46722e-05,8.33088e-07,0
-3.87659e-05,-7.08633e-06,-1.77415e-05,-1.04686e-06,1.15247e-05,-2.7176e-05,3.84623e-05,-9.21102e-07,0
-3.85782e-05,-5.46663e-06,-1.73904e-05,9.55762e-06,1.05672e-05,-2.84528e-05,3.29397e-05,-1.13105e-06,0
-3.45468e-05,-2.21337e-06,-1.83352e-05,1.46729e-05,8.55927e-06,-2.58509e-05,3.02432e-05,-8.80557e-07,0
-3.08787e-05,1.34934e-06,-1.76611e-05,1.21206e-05,6.22066e-06,-2.45419e-05,3.40193e-05,-2.05308e-06,0
-3.03228e-05,3.93492e-06,-1.36459e-05,-6.26287e-07,4.37226e-06,-2.53308e-05,4.38798e-05,-3.5844e-06,0
-3.10567e-05,5.04114e-06,-8.62298e-06,-2.10367e-05,2.82028e-06,-2.43732e-05,5.23703e-05,-3.70343e-06,0
-3.16044e-05,4.89634e-06,-3.56017e-06,-4.1461e-05,1.79775e-06,-2.16699e-05,5.46156e-05,-2.05066e-06,0
-3.19779e-05,5.38371e-06,-5.73299e-07,-5.66323e-05,2.95485e-06,-2.1025e-05,5.07582e-05,-1.30077e-06,0
-3.19734e-05,7.44126e-06,4.91124e-07,-6.43816e-05,5.67322e-06,-2.28879e-05,4.27074e-05,-2.56855e-06,0
-3.11269e-05,9.65092e-06,2.38488e-06,-6.47104e-05,8.83811e-06,-2.44164e-05,3.29232e-05,-2.68377e-06,0
-2.92093e-05,1.24172e-05,3.90538e-06,-6.03878e-05,1.09381e-05,-2.48125e-05,2.26602e-05,-1.80263e-06,0
-2.81202e-05,1.64775e-05,3.67596e-06,-5.68887e-05,1.18683e-05,-2.4866e-05,1.09722e-05,-2.07762e-06,0
-2.81085e-05,2.02966e-05,2.60342e-06,-5.68087e-05,1.20328e-05,-2.43218e-05,-3.88458e-06,-3.52454e-06,0
-2.82028e-05,2.26704e-05,4.17242e-07,-5.65662e-05,1.29553e-05,-2.2619e-05,-1.99435e-05,-3.70805e-06,0
-2.85552e-05,2.4805e-05,-4.64146e-06,-5.48202e-05,1.42193e-05,-2.053e-05,-3.1106e-05,-2.91189e-06,0
-2.9057e-05,2.63909e-05,-1.14231e-05,-5.17484e-05,1.56194e-05,-1.9329e-05,-3.47117e-05,-2.29887e-06,0
-2.90746e-05,2.46755e-05,-1.82069e-05,-4.51747e-05,1.72658e-05,-1.94793e-05,-3.11962e-05,-1.43956e-06,0
-2.93817e-05,1.8412e-05,-2.08149e-05,-3.72688e-05,1.84889e-05,-1.9612e-05,-2.29752e-05,8.34397e-07,0
-2.97983e-05,1.10629e-05,-1.65427e-05,-3.42005e-05,1.84353e-05,-1.94058e-05,-1.46397e-05,2.57291e-06,0
-3.08428e-05,5.90835e-06,-9.57398e-06,-3.55798e-05,1.69034e-05,-1.85227e-05,-9.99573e-06,3.60101e-06,0
-3.27072e-05,2.41798e-06,-4.93373e-06,-3.67863e-05,1.62431e-05,-1.73712e-05,-1.05644e-05,4.51026e-06,0
-3.37345e-05,2.94403e-06,-4.09672e-06,-3.46877e-05,1.56264e-05,-1.7496e-05,-1.36488e-05,3.02596e-06,0
-3.24273e-05,4.61052e-06,-5.59402e-06,-3.07247e-05,1.39817e-05,-1.77248e-05,-1.38973e-05,1.38894e-06,0
-3.08109e-05,2.4056e-06,-7.55589e-06,-2.55165e-05,1.22528e-05,-1.62821e-05,-9.06558e-06,1.8699e-07,0
-2.95223e-05,-5.9712e-07,-7.76853e-06,-2.00587e-05,1.14229e-05,-1.47006e-05,-2.74362e-06,-1.40957e-06,0
-2.81378e-05,5.57121e-07,-7.18481e-06,-1.67434e-05,1.14551e-05,-1.42738e-05,8.78669e-07,-2.56773e-06,0
-2.85314e-05,4.99454e-06,-6.84444e-06,-1.39967e-05,1.04969e-05,-1.43942e-05,1.79891e-06,-2.89079e-06,0
-2.9042e-05,6.54995e-06,-6.75335e-06,-1.18762e-05,8.90514e-06,-1.61416e-05,1.82456e-06,-3.16028e-06,0
-2.85118e-05,6.66508e-06,-7.27036e-06,-1.01761e-05,7.64597e-06,-1.88301e-05,1.86189e-06,-3.59125e-06,0
-2.7857e-05,7.93656e-06,-6.18066e-06,-9.5019e-06,8.13065e-06,-1.99391e-05,1.45144e-06,-4.08624e-06,0
-2.81809e-05,8.74781e-06,-4.1381e-06,-9.98877e-06,9.29505e-06,-1.96948e-05,1.87641e-06,-4.28846e-06,0
-2.83593e-05,9.25344e-06,-1.50156e-06,-9.52663e-06,9.92065e-06,-1.78091e-05,5.00001e-06,-5.0475e-06,0
-2.82012e-05,9.08326e-06,-1.30029e-07,-8.31812e-06,1.20434e-05,-1.46941e-05,9.05857e-06,-5.67279e-06,0
-2.81141e-05,8.55145e-06,-3.31946e-06,-7.78662e-06,1.32429e-05,-1.15615e-05,1.13692e-05,-4.1262e-06,0
-2.82548e-05,9.12801e-06,-1.18294e-05,-6.97838e-06,1.09197e-05,-9.18356e-06,1.16308e-05,-2.55988e-06,0
-2.85164e-05,9.36531e-06,-2.15936e-05,-4.73692e-06,5.69962e-06,-7.86245e-06,1.03371e-05,-3.19965e-06,0
-2.85502e-05,7.80948e-06,-2.73492e-05,-3.05374e-06,8.7797e-07,-7.39384e-06,8.27387e-06,-5.02667e-06,0
-2.81322e-05,6.59723e-06,-2.79563e-05,-3.1668e-06,-2.38645e-06,-7.31979e-06,7.13634e-06,-6.14314e-06,0
-2.70716e-05,7.11442e-06,-2.44049e-05,-4.2886e-06,-4.43288e-06,-6.35916e-06,7.73929e-06,-6.0664e-06,0
-2.58414e-05,7.70506e-06,-1.93935e-05,-4.3088e-06,-5.0261e-06,-5.84258e-06,9.66226e-06,-5.02985e-06,0
-2.52437e-05,7.34829e-06,-1.58448e-05,-2.55591e-06,-3.30905e-06,-6.57731e-06,1.17872e-05,-3.47274e-06,0
-2.63638e-05,8.725e-06,-1.54878e-05,-3.45766e-08,-3.14563e-07,-8.62561e-06,1.30822e-05,-2.125e-06,0
-2.81356e-05,1.41447e-05,-1.68356e-05,1.49727e-06,2.5178e-06,-1.25511e-05,1.37268e-05,-1.74485e-06,0
-2.9641e-05,2.05776e-05,-1.71427e-05,2.71892e-06,5.67318e-06,-1.7296e-05,1.42705e-05,-1.18545e-06,0
-3.14107e-05,2.3753e-05,-1.56521e-05,6.36096e-06,9.31342e-06,-2.03104e-05,1.59726e-05,-9.29928e-07,0
-3.33648e-05,2.13581e-05,-1.49887e-05,9.50576e-06,1.18143e-05,-2.02849e-05,1.8599e-05,-1.59026e-06,0
-3.40355e-05,1.54724e-05,-1.56219e-05,7.27351e-06,1.11462e-05,-1.85336e-05,2.13205e-05,-1.84101e-06,0
-3.38034e-05,1.16775e-05,-1.70876e-05,4.18189e-06,9.82951e-06,-1.70637e-05,2.6076e-05,-9.61236e-07,0
-3.31414e-05,1.25758e-05,-1.85462e-05,5.29637e-06,1.11637e-05,-1.57716e-05,3.14228e-05,1.31354e-06,0
-3.24757e-05,1.86273e-05,-1.9093e-05,7.18537e-06,1.44138e-05,-1.41622e-05,3.14763e-05,2.09808e-06,0
-2.99535e-05,2.79445e-05,-1.91524e-05,8.86876e-06,1.54543e-05,-6.46875e-06,2.2609e-05,2.15456e-06,0
-2.43422e-05,3.61351e-05,-1.9483e-05,1.06048e-05,1.5257e-05,9.30302e-06,1.00432e-05,4.44652e-06,0
-2.14309e-05,4.02236e-05,-2.01751e-05,1.44638e-05,1.41461e-05,1.79236e-05,2.14795e-06,6.12886e-06,0
-2.50277e-05,4.17323e-05,-2.14324e-05,1.96255e-05,1.31751e-05,1.22451e-05,2.40686e-06,6.28567e-06,0
-3.11891e-05,3.89787e-05,-2.32966e-05,2.12037e-05,1.31751e-05,1.5736e-06,9.19106e-06,5.00046e-06,0
-3.43486e-05,3.06484e-05,-2.49766e-05,1.96715e-05,1.09791e-05,-5.83447e-06,1.87651e-05,4.36836e-06,0
-3.3144e-05,1.53137e-05,-2.61563e-05,1.77221e-05,7.7886e-06,-7.1049e-06,2.65764e-05,4.80396e-06,0
-2.92358e-05,-6.39441e-06,-2.52238e-05,1.53185e-05,5.82639e-06,-4.98424e-06,3.07376e-05,5.46582e-06,0
-2.42439e-05,-2.53521e-05,-2.23945e-05,1.17206e-05,6.09365e-06,-3.15317e-06,3.34188e-05,5.25136e-06,0
-2.03949e-05,-3.21751e-05,-1.91378e-05,9.69506e-06,6.79058e-06,-2.01301e-06,3.38555e-05,3.95012e-06,0
-1.57842e-05,-2.43202e-05,-1.73927e-05,7.22178e-06,6.82097e-06,-1.81581e-06,3.13741e-05,2.68437e-06,0
-8.36402e-06,-7.64093e-06,-1.8543e-05,3.40704e-06,6.41171e-06,-2.88921e-06,2.83943e-05,3.14938e-07,0
-2.97408e-06,9.00314e-06,-2.29953e-05,-1.073e-06,6.85978e-06,-4.10525e-06,2.6384e-05,-1.02571e-06,0
-2.64636e-06,2.14741e-05,-3.01265e-05,-7.58727e-06,8.58911e-06,-4.22748e-06,2.47624e-05,-1.14129e-06,0
-5.48737e-06,2.9699e-05,-3.83009e-05,-1.40217e-05,9.56924e-06,-3.44618e-06,2.28184e-05,-5.52472e-07,0
-8.8726e-06,2.97598e-05,-4.34134e-05,-1.6351e-05,7.99161e-06,-2.46355e-06,2.09267e-05,4.69955e-07,0
-1.18329e-05,2.23357e-05,-4.11488e-05,-1.20468e-05,4.72568e-06,-1.1715e-06,1.99277e-05,6.97656e-07,0
-1.56198e-05,1.51684e-05,-3.34961e-05,-3.02776e-07,2.65723e-06,-1.75957e-07,1.7998e-05,1.18821e-07,0
-2.1617e-05,1.45585e-05,-2.62748e-05,1.70636e-05,1.53776e-06,-3.08785e-07,1.53521e-05,4.55587e-07,0
-2.95959e-05,1.94287e-05,-2.27002e-05,3.4972e-05,5.70761e-08,3.03794e-07,1.64892e-05,6.70591e-07,0
-4.02448e-05,2.44521e-05,-2.06147e-05,4.98267e-05,-1.08412e-06,2.46304e-06,2.48613e-05,1.25939e-06,0
-5.06065e-05,2.11071e-05,-1.7459e-05,5.91733e-05,-1.0945e-06,3.88031e-06,3.58061e-05,2.71555e-06,0
-5.65773e-05,7.13822e-06,-1.50463e-05,6.41172e-05,-2.31434e-06,2.47851e-06,4.06319e-05,4.67825e-06,0
-5.83224e-05,-1.03847e-05,-1.49567e-05,6.53207e-05,-4.70271e-06,2.52655e-07,3.84414e-05,7.10936e-06,0
-5.71421e-05,-2.49001e-05,-1.44806e-05,6.27418e-05,-5.00496e-06,3.91592e-07,3.18839e-05,8.19585e-06,0
-5.46583e-05,-3.6351e-05,-1.19121e-05,5.36977e-05,-2.29515e-06,-2.21788e-07,2.08109e-05,9.07191e-06,0
-5.03428e-05,-4.29426e-05,-9.33829e-06,4.04685e-05,8.80735e-07,-4.68023e-06,7.96108e-06,9.35556e-06,0
-4.37169e-05,-4.15861e-05,-9.06286e-06,2.87829e-05,4.59701e-06,-1.04716e-05,-2.66021e-06,7.74688e-06,0
-3.91771e-05,-3.49336e-05,-1.02022e-05,2.0182e-05,1.08287e-05,-1.47842e-05,-1.23964e-05,6.37309e-06,0
-3.70555e-05,-2.41479e-05,-1.05625e-05,1.50509e-05,1.77919e-05,-1.60423e-05,-2.21005e-05,6.79515e-06,0
-3.50114e-05,-1.42606e-05,-9.88814e-06,9.13268e-06,2.11473e-05,-1.4267e-05,-3.01322e-05,7.01495e-06,0
-3.34988e-05,-6.33431e-06,-9.17881e-06,2.93438e-06,1.93527e-05,-1.2204e-05,-3.1421e-05,6.38684e-06,0
-3.29919e-05,-1.02398e-08,-1.03936e-05,-3.85886e-07,1.63375e-05,-1.05173e-05,-2.69953e-05,5.90553e-06,0
-3.40083e-05,4.62446e-06,-1.2432e-05,4.42823e-07,1.45098e-05,-7.81433e-06,-2.22865e-05,4.81746e-06,0
-3.29379e-05,9.07208e-06,-1.26258e-05,1.81993e-06,1.44848e-05,-4.16764e-06,-1.75199e-05,3.5871e-06,0
-2.87009e-05,1.27661e-05,-1.05108e-05,-5.69258e-07,1.4516e-05,-1.59681e-06,-1.29533e-05,2.51709e-06,0
-2.39319e-05,1.51261e-05,-6.88421e-06,-4.74684e-06,1.37696e-05,-1.01159e-06,-9.72594e-06,1.47203e-06,0
-2.2033e-05,1.71348e-05,-3.95793e-06,-9.34148e-06,1.19638e-05,-1.92494e-06,-7.20757e-06,3.72792e-07,0
-2.31915e-05,1.97936e-05,-3.41746e-06,-1.72591e-05,1.01272e-05,-4.49565e-06,-3.96416e-06,-1.83239e-06,0
-2.41638e-05,2.20473e-05,-4.83839e-06,-2.83271e-05,1.0133e-05,-7.77268e-06,-9.1752e-07,-3.502e-06,0
-2.35653e-05,2.34553e-05,-5.48476e-06,-3.64947e-05,1.12008e-05,-9.91574e-06,1.26681e-06,-3.64725e-06,0
-2.26094e-05,2.35394e-05,-4.31196e-06,-3.90862e-05,1.15027e-05,-1.06596e-05,2.91024e-06,-3.74873e-06,0
-2.26505e-05,2.31588e-05,-2.81474e-06,-3.78002e-05,1.02055e-05,-1.1221e-05,4.70408e-06,-4.98148e-06,0
-2.30015e-05,2.32234e-05,-1.82907e-06,-3.47609e-05,9.74499e-06,-1.20298e-05,6.74402e-06,-5.75561e-06,0
-2.31445e-05,2.64123e-05,-6.48269e-07,-2.75176e-05,1.11399e-05,-1.24346e-05,9.79493e-06,-6.00829e-06,0
-2.29554e-05,3.65489e-05,7.00624e-07,-1.04739e-05,1.29415e-05,-1.17566e-05,1.33984e-05,-5.53497e-06,0
-2.29397e-05,5.64011e-05,2.13958e-06,1.69679e-05,1.4528e-05,-1.07247e-05,1.50044e-05,-4.19281e-06,0
-2.3055e-05,7.65387e-05,2.93727e-06,4.20377e-05,1.67899e-05,-9.67097e-06,1.44477e-05,-2.80625e-06,0
-2.20516e-05,8.35946e-05,3.11633e-06,4.68035e-05,1.85316e-05,-9.54375e-06,1.43083e-05,-2.54669e-07,0
-2.074e-05,7.46712e-05,4.43052e-06,3.20503e-05,1.90613e-05,-1.02067e-05,1.58606e-05,4.76028e-07,0
-2.16168e-05,5.54513e-05,6.38014e-06,1.65856e-05,1.92472e-05,-1.13589e-05,1.76421e-05,-1.85413e-06,0
-2.34732e-05,3.59459e-05,7.42283e-06,1.12533e-05,1.99364e-05,-1.17591e-05,1.88082e-05,-4.97416e-06,0
-2.47756e-05,1.67159e-05,5.17267e-06,1.0143e-05,2.01489e-05,-9.80348e-06,2.16849e-05,-7.46207e-06,0
-2.45051e-05,-3.16155e-06,1.29064e-06,4.97704e-06,2.05236e-05,-8.05653e-06,2.43829e-05,-6.84527e-06,0
-2.37125e-05,-2.24933e-05,-3.95798e-07,-2.3462e-07,2.17443e-05,-8.19824e-06,2.41385e-05,-4.05882e-06,0
-2.30738e-05,-3.51542e-05,7.21301e-07,-3.00503e-06,2.15934e-05,-1.00864e-05,2.33239e-05,-2.95718e-06,0
-2.09742e-05,-3.6531e-05,3.91665e-06,-8.61353e-06,2.0246e-05,-1.11974e-05,2.27752e-05,-4.16786e-06,0
-1.97004e-05,-3.23141e-05,9.21147e-06,-1.4963e-05,1.96077e-05,-9.62578e-06,2.1194e-05,-4.72278e-06,0
-2.04513e-05,-2.52945e-05,1.57987e-05,-2.10835e-05,1.98874e-05,-6.93537e-06,2.00893e-05,-3.47507e-06,0
-2.20651e-05,-1.87841e-05,2.163e-05,-2.75915e-05,2.02898e-05,-4.53116e-06,2.0861e-05,-1.55123e-06,0
-2.37847e-05,-1.26289e-05,2.86481e-05,-3.07276e-05,2.01976e-05,-2.75817e-06,2.09354e-05,-6.80452e-07,0
-2.48018e-05,-5.75348e-06,3.84464e-05,-1.7109e-05,2.06823e-05,-2.7049e-06,2.08993e-05,-1.62888e-06,0
-2.55413e-05,-6.25883e-07,4.87526e-05,1.45121e-05,2.19758e-05,-4.6243e-06,2.13408e-05,-2.62958e-06,0
-2.63415e-05,1.70295e-06,5.62382e-05,3.86555e-05,2.39435e-05,-6.78559e-06,2.20569e-05,-1.39637e-06,0
-2.7845e-05,2.53519e-06,5.64756e-05,3.90354e-05,2.57e-05,-8.86992e-06,2.28878e-05,1.42474e-06,0
-3.03177e-05,3.40256e-06,4.50496e-05,2.52366e-05,2.59727e-05,-1.03011e-05,2.33137e-05,2.82066e-06,0
-3.2608e-05,3.10093e-06,2.19236e-05,7.21726e-06,2.61861e-05,-1.00863e-05,2.41396e-05,2.88169e-06,0
-3.41201e-05,1.24246e-06,-8.02768e-06,-2.25494e-05,2.59478e-05,-9.76032e-06,2.67331e-05,2.34378e-06,0
-3.61874e-05,-1.59734e-06,-3.97194e-05,-6.433e-05,2.497e-05,-1.0825e-05,3.00658e-05,1.13451e-06,0
-3.96492e-05,-4.62617e-06,-6.66743e-05,-0.000101932,2.34048e-05,-1.32346e-05,3.09675e-05,7.8525e-07,0
-4.35078e-05,-5.23044e-06,-8.00635e-05,-0.000121648,2.10096e-05,-1.74322e-05,2.82403e-05,2.95865e-06,0
-4.63406e-05,9.9148e-07,-7.6529e-05,-0.000121817,1.748e-05,-2.53873e-05,2.36188e-05,5.44116e-06,0
-4.43642e-05,1.56677e-05,-6.18944e-05,-0.00011165,1.50746e-05,-3.47178e-05,1.93501e-05,4.91817e-06,0
-3.76335e-05,3.15668e-05,-4.52146e-05,-0.000106345,1.42301e-05,-3.82346e-05,1.56734e-05,1.3037e-06,0
-3.19264e-05,3.95163e-05,-3.30574e-05,-0.000113563,1.21083e-05,-3.61728e-05,1.31591e-05,-1.34994e-06,0
-3.04509e-05,3.91026e-05,-2.49169e-05,-0.000125745,7.88591e-06,-3.49169e-05,1.12858e-05,-8.08977e-07,0
-3.22372e-05,3.36065e-05,-1.70722e-05,-0.000125546,4.72084e-06,-3.88246e-05,7.02437e-06,5.47627e-07,0
-3.36832e-05,2.69431e-05,-9.62263e-06,-9.90178e-05,5.0929e-06,-4.14304e-05,-6.62776e-07,1.91339e-06,0
-3.2592e-05,2.09781e-05,-5.34005e-06,-5.31407e-05,6.62925e-06,-2.63283e-05,-7.69382e-06,4.77027e-06,0
-3.14146e-05,1.71934e-05,-5.63567e-06,-4.08443e-06,8.15426e-06,7.23366e-06,-1.08402e-05,8.0128e-06,0
-3.01819e-05,1.3082e-05,-5.80537e-06,2.71777e-05,1.01575e-05,2.86939e-05,-9.39029e-06,8.52858e-06,0
-2.80432e-05,4.41261e-06,-2.42878e-06,3.96218e-05,1.26917e-05,2.27077e-05,-6.04129e-06,6.50609e-06,0
-2.74516e-05,-6.54721e-06,1.43813e-06,5.71022e-05,1.71453e-05,7.94047e-06,-2.09859e-06,4.74806e-06,0
-2.91197e-05,-1.21021e-05,3.4042e-06,8.26506e-05,2.19338e-05,-2.58898e-06,3.67664e-06,5.80298e-06,0
-3.09771e-05,-7.09328e-06,3.81656e-06,9.65098e-05,2.40476e-05,-5.74314e-06,1.0203e-05,7.57216e-06,0
-3.07746e-05,5.40048e-06,2.69435e-06,8.85765e-05,2.22058e-05,-5.58353e-06,1.6645e-05,8.29495e-06,0
-2.95769e-05,1.64548e-05,1.57277e-06,7.54549e-05,1.93148e-05,-3.93171e-06,1.96429e-05,9.0277e-06,0
-2.9592e-05,2.04943e-05,2.16084e-06,6.00532e-05,2.04138e-05,-2.31298e-06,1.97018e-05,9.70852e-06,0
-2.96366e-05,2.09998e-05,3.24465e-06,3.67141e-05,2.30378e-05,-2.52607e-06,2.02335e-05,1.02941e-05,0
-2.88129e-05,2.00031e-05,4.07825e-06,1.29273e-05,2.28866e-05,-3.61105e-06,2.16762e-05,1.03058e-05,0
-2.80514e-05,1.95325e-05,4.33812e-06,6.85367e-06,1.97393e-05,-4.01484e-06,2.4332e-05,9.75537e-06,0
-2.79842e-05,2.13439e-05,5.30346e-06,2.47143e-05,1.62472e-05,-3.23907e-06,2.80682e-05,8.9186e-06,0
-2.88014e-05,2.39254e-05,6.63407e-06,4.16127e-05,1.32628e-05,-3.5656e-06,3.16829e-05,7.71107e-06,0
-2.97512e-05,2.4349e-05,6.93732e-06,3.1833e-05,1.04587e-05,-5.06172e-06,3.24813e-05,6.44403e-06,0
-3.07929e-05,2.20346e-05,5.61128e-06,-1.70498e-06,8.26292e-06,-6.96149e-06,3.01802e-05,6.18725e-06,0
-3.20266e-05,1.96343e-05,3.42288e-06,-2.91114e-05,6.69847e-06,-8.24155e-06,2.73266e-05,5.34468e-06,0
-3.36214e-05,1.94798e-05,2.12365e-06,-3.10356e-05,5.74982e-06,-9.49946e-06,2.49292e-05,2.72103e-06,0
-3.51832e-05,2.00186e-05,1.17187e-06,-1.32994e-05,5.28821e-06,-9.82227e-06,2.03466e-05,5.61561e-07,0
-3.5927e-05,1.99865e-05,-2.35554e-07,9.47196e-06,6.06703e-06,-9.22114e-06,1.27498e-05,5.82985e-07,0
-3.64277e-05,2.12014e-05,-1.67106e-06,3.43487e-05,1.09771e-05,-8.06507e-06,5.71313e-06,1.80462e-06,0
-3.67771e-05,2.28121e-05,-1.77818e-06,6.2904e-05,1.99491e-05,-7.78524e-06,2.10901e-06,2.44346e-06,0
-3.65956e-05,2.39582e-05,-2.57086e-06,8.97374e-05,2.65255e-05,-9.63473e-06,1.02241e-06,2.25432e-06,0
-3.58423e-05,2.50111e-05,-5.11006e-06,9.56242e-05,2.71899e-05,-1.33762e-05,2.28319e-08,1.48182e-06,0
-3.52688e-05,2.47699e-05,-7.09281e-06,7.20308e-05,2.51209e-05,-1.44454e-05,-6.5621e-07,1.66942e-06,0
-3.44474e-05,2.39545e-05,-7.33804e-06,2.99514e-05,2.52448e-05,-1.14401e-05,8.48593e-07,1.49172e-06,0
-3.21498e-05,2.37424e-05,-5.49167e-06,-1.33001e-05,2.78054e-05,-8.41334e-06,3.07263e-06,7.79179e-07,0
-3.01735e-05,2.41542e-05,-1.00387e-06,-4.39831e-05,2.84913e-05,-5.6041e-06,-2.18271e-06,2.52263e-06,0
-2.99463e-05,2.54038e-05,3.35569e-06,-5.37547e-05,2.61576e-05,-2.65285e-06,-2.30222e-05,4.43894e-06,0
-3.08776e-05,2.53099e-05,3.95236e-06,-4.5484e-05,2.26156e-05,-4.09697e-06,-4.73528e-05,4.54526e-06,0
-3.11248e-05,2.38767e-05,5.22534e-06,-3.37505e-05,2.07774e-05,-8.95405e-06,-5.38923e-05,5.00717e-06,0
-3.04071e-05,2.41986e-05,1.22324e-05,-2.51505e-05,2.09213e-05,-1.11574e-05,-4.0164e-05,5.17021e-06,0
-3.07403e-05,2.57671e-05,2.39111e-05,-1.99762e-05,1.942e-05,-1.00684e-05,-1.76686e-05,4.5085e-06,0
-3.16756e-05,2.51312e-05,3.86563e-05,-1.49689e-05,1.50292e-05,-9.65197e-06,2.86502e-06,5.11217e-06,0
-3.13801e-05,2.20611e-05,5.40859e-05,-1.35043e-05,1.01812e-05,-1.15756e-05,1.82196e-05,6.03036e-06,0
-3.02297e-05,1.76947e-05,6.28999e-05,-1.78217e-05,8.26999e-06,-1.32025e-05,2.84156e-05,4.74053e-06,0
-2.94152e-05,1.54002e-05,5.79725e-05,-3.17424e-05,9.1942e-06,-1.42952e-05,3.54413e-05,2.132e-06,0
-2.9199e-05,1.42088e-05,3.61546e-05,-5.36406e-05,9.06181e-06,-1.41294e-05,4.02691e-05,1.24394e-06,0
-3.07536e-05,1.13858e-05,1.7634e-07,-7.16258e-05,7.76174e-06,-1.41933e-05,4.24662e-05,2.59329e-06,0
-3.47014e-05,7.62531e-06,-3.91129e-05,-7.39329e-05,7.49499e-06,-1.56476e-05,4.15961e-05,3.92441e-06,0
-3.85486e-05,3.89503e-06,-7.01215e-05,-5.61362e-05,8.52033e-06,-1.88876e-05,3.75483e-05,3.69906e-06,0
-4.00948e-05,2.04828e-06,-8.65313e-05,-2.59479e-05,1.02862e-05,-2.08836e-05,3.21266e-05,2.96986e-06,0
-3.90433e-05,2.66954e-06,-8.79509e-05,5.16212e-06,1.09008e-05,-1.91467e-05,2.84267e-05,2.42026e-06,0
-3.61854e-05,6.40876e-06,-7.80343e-05,2.98375e-05,1.11913e-05,-1.65941e-05,2.87159e-05,8.93756e-07,0
-3.44514e-05,1.12391e-05,-6.28751e-05,4.85072e-05,1.17105e-05,-1.5903e-05,3.1869e-05,-1.26255e-06,0
-3.50466e-05,1.41289e-05,-4.75268e-05,6.12614e-05,1.19134e-05,-1.70237e-05,3.4092e-05,-1.88949e-06,0
-3.56559e-05,1.46148e-05,-3.45849e-05,6.23736e-05,1.24411e-05,-1.84493e-05,3.23769e-05,2.81866e-07,0
-3.61088e-05,1.4442e-05,-2.53277e-05,4.53107e-05,1.32832e-05,-1.97173e-05,2.79603e-05,2.46127e-06,0
-3.69095e-05,1.49425e-05,-1.94041e-05,1.80754e-05,1.32116e-05,-2.12744e-05,2.32359e-05,5.88542e-07,0
-3.74116e-05,1.64433e-05,-1.63519e-05,-1.73142e-06,1.15175e-05,-2.19438e-05,1.97368e-05,-3.20193e-06,0
-3.79841e-05,1.78111e-05,-1.52291e-05,-6.53526e-06,1.06593e-05,-2.02826e-05,1.6908e-05,-5.41141e-06,0
-3.81152e-05,1.78069e-05,-1.43774e-05,-2.42592e-06,1.18806e-05,-1.85968e-05,1.50207e-05,-5.72551e-06,0
-3.712e-05,1.67417e-05,-1.45247e-05,1.07879e-07,1.27836e-05,-1.7417e-05,1.45631e-05,-4.77813e-06,0
-3.43999e-05,1.71047e-05,-1.52648e-05,-3.05045e-06,1.15424e-05,-1.71853e-05,1.46324e-05,-2.84965e-06,0
-3.35297e-05,1.90824e-05,-1.39134e-05,-9.52041e-06,7.59759e-06,-1.62761e-05,1.36257e-05,-1.57264e-06,0
-3.4961e-05,1.78951e-05,-1.09748e-05,-1.8742e-05,3.97046e-06,-1.39736e-05,8.92312e-06,-2.01788e-06,0
-3.5126e-05,1.47335e-05,-8.08063e-06,-2.86438e-05,5.61848e-06,-1.22758e-05,3.72248e-06,-1.88227e-06,0
-3.38311e-05,1.32961e-05,-7.35409e-06,-3.61207e-05,1.11602e-05,-1.1042e-05,3.57796e-06,-2.06309e-06,0
-3.21927e-05,1.23406e-05,-9.10304e-06,-3.98188e-05,1.5106e-05,-1.13722e-05,4.95503e-06,-1.55082e-06,0
-3.18694e-05,1.05943e-05,-1.21036e-05,-3.36028e-05,1.48214e-05,-1.21042e-05,6.53468e-06,-2.34751e-07,0
-3.20158e-05,6.44118e-06,-1.41421e-05,-1.27422e-05,1.12333e-05,-1.1606e-05,1.05927e-05,-6.67906e-07,0
-3.15506e-05,2.12374e-06,-1.31476e-05,1.16131e-06,7.19446e-06,-1.02732e-05,1.68278e-05,-1.15564e-06,0
-3.01128e-05,2.22998e-06,-1.15947e-05,-1.11173e-05,4.84342e-06,-8.04877e-06,2.38857e-05,-7.67472e-07,0
-2.84993e-05,6.62499e-06,-9.40697e-06,-3.32369e-05,3.34515e-06,-5.51121e-06,2.95557e-05,-5.75119e-07,0
-2.77641e-05,9.48687e-06,-8.23364e-06,-4.10004e-05,1.88107e-06,-4.16748e-06,2.81969e-05,-7.824e-07,0
-2.79424e-05,9.52976e-06,-9.84374e-06,-2.96596e-05,8.34751e-07,-3.37989e-06,1.23623e-05,-5.78396e-07,0
-2.85828e-05,9.73264e-06,-1.22777e-05,-1.36149e-05,-8.58013e-07,-2.67897e-06,-9.72383e-06,2.62018e-07,0
-2.91041e-05,1.21734e-05,-1.39134e-05,-2.92078e-06,-3.65623e-06,-4.02778e-06,-2.08773e-05,8.03834e-07,0
-2.92756e-05,1.7433e-05,-1.3174e-05,7.43481e-07,-5.3677e-06,-6.5698e-06,-1.54884e-05,-1.54749e-07,0
-2.89997e-05,2.31029e-05,-9.80194e-06,-3.45475e-06,-6.14538e-06,-7.57543e-06,-1.5077e-06,-1.13508e-06,0
-2.81354e-05,2.74608e-05,-5.09085e-06,-2.07695e-05,-7.27482e-06,-7.75395e-06,9.49428e-06,-8.16961e-07,0
-2.68192e-05,2.79652e-05,-2.15271e-06,-4.90296e-05,-7.99653e-06,-8.51595e-06,1.21206e-05,2.69838e-07,0
-2.50052e-05,2.2734e-05,-1.97258e-06,-7.3846e-05,-7.02643e-06,-9.72405e-06,9.67311e-06,7.46931e-07,0
-2.45356e-05,1.13463e-05,-3.05927e-06,-8.26294e-05,-5.07251e-06,-1.179e-05,7.78041e-06,1.73576e-07,0
-2.67428e-05,-2.2396e-06,-3.39988e-06,-7.47225e-05,-3.78954e-06,-1.42781e-05,8.96346e-06,-3.48306e-07,0
-2.87326e-05,-9.96311e-06,-3.37901e-06,-5.59557e-05,-3.54807e-06,-1.63833e-05,1.23993e-05,-7.44908e-07,0
-2.8244e-05,-7.02652e-06,-2.9752e-06,-3.1964e-05,-2.01722e-06,-1.7643e-05,1.47151e-05,-6.32879e-07,0
-2.80822e-05,3.21444e-06,-3.02217e-06,-1.12147e-05,2.23438e-06,-1.90157e-05,1.4651e-05,7.29876e-07,0
-2.97298e-05,1.60217e-05,-3.72142e-06,7.75222e-07,6.13837e-06,-2.04192e-05,1.50019e-05,4.14379e-07,0
-2.96704e-05,2.38679e-05,-2.81584e-06,1.13463e-05,9.24046e-06,-1.94257e-05,1.92582e-05,-7.69955e-08,0
-2.91366e-05,2.53008e-05,-1.53928e-06,2.42949e-05,1.39891e-05,-1.68216e-05,2.66386e-05,1.69951e-06,0
-2.85792e-05,2.56583e-05,-2.03082e-06,2.55166e-05,1.75598e-05,-1.3442e-05,3.16379e-05,3.47041e-06,0
-2.68801e-05,2.62218e-05,-1.77965e-06,1.33019e-05,1.79419e-05,-8.03817e-06,3.19608e-05,5.44829e-06,0
-2.57072e-05,2.93466e-05,5.78894e-07,-5.58072e-07,1.87191e-05,-4.22924e-06,2.76224e-05,6.85708e-06,0
-2.42297e-05,3.39009e-05,2.86904e-06,-9.98504e-06,2.07946e-05,-3.08243e-06,1.8843e-05,5.40284e-06,0
-2.42823e-05,3.29551e-05,2.90857e-06,-1.28432e-05,2.334e-05,5.37132e-06,9.16743e-06,2.18669e-06,0
-2.64223e-05,2.47706e-05,6.60056e-07,-9.45288e-06,2.48119e-05,1.81262e-05,2.67517e-06,3.11933e-07,0
-2.70806e-05,1.2898e-05,-1.13773e-06,-6.70498e-06,2.38148e-05,1.88065e-05,8.05864e-07,-4.50657e-07,0
-2.60648e-05,3.53013e-06,-2.04346e-06,-8.73065e-06,2.22368e-05,8.84407e-06,1.33633e-06,-3.80562e-07,0
-2.58441e-05,7.8434e-07,-2.55486e-06,-9.22219e-06,2.27886e-05,-6.3797e-07,1.10309e-06,1.47716e-07,0
-2.67122e-05,2.30052e-06,-3.43708e-06,-4.31948e-06,2.52193e-05,-4.14812e-06,8.15494e-07,1.44487e-06,0
-2.75194e-05,5.72136e-06,-4.21949e-06,2.34447e-06,2.915e-05,-4.06469e-06,1.03771e-06,3.09104e-06,0
-2.88767e-05,8.00991e-06,-5.58411e-06,5.55754e-06,3.35077e-05,-4.03861e-06,6.69683e-07,3.36986e-06,0
-3.0012e-05,8.16365e-06,-7.27886e-06,4.33803e-06,3.52449e-05,-5.32857e-06,1.08834e-06,2.55036e-06,0
-2.99515e-05,5.93134e-06,-7.71821e-06,6.92667e-07,3.31124e-05,-6.8605e-06,3.30101e-06,2.02959e-06,0
-2.92633e-05,2.64956e-06,-8.37345e-06,-2.60252e-06,2.89123e-05,-6.84697e-06,3.07883e-06,1.80195e-06,0
-2.95086e-05,-4.77861e-07,-1.02187e-05,-3.95863e-06,2.56627e-05,-6.62262e-06,-3.25194e-06,7.46041e-07,0
-3.10166e-05,-8.50254e-07,-1.22417e-05,-3.37015e-06,2.36083e-05,-6.86143e-06,-1.11765e-05,-1.38937e-06,0
-3.24187e-05,2.76139e-06,-1.36025e-05,8.3782e-07,2.20229e-05,-6.70359e-06,-1.22819e-05,-3.26214e-06,0
-3.30507e-05,7.90468e-06,-1.35338e-05,9.47265e-06,1.955e-05,-5.51115e-06,-3.70815e-06,-3.92317e-06,0
-3.36622e-05,1.18528e-05,-1.20471e-05,1.85402e-05,1.60343e-05,-5.06743e-06,8.84589e-06,-3.16667e-06,0
-3.38455e-05,1.29329e-05,-1.14352e-05,2.331e-05,1.38732e-05,-5.37816e-06,1.96466e-05,-1.36688e-06,0
-3.29e-05,1.16984e-05,-1.29548e-05,2.42722e-05,1.49873e-05,-4.85371e-06,2.6273e-05,-3.04986e-07,0
-3.11879e-05,9.6786e-06,-1.53673e-05,2.28468e-05,1.67382e-05,-2.78151e-06,2.90655e-05,8.77662e-07,0
-2.86686e-05,8.63798e-06,-1.52306e-05,1.86643e-05,1.73938e-05,-1.95531e-06,2.98733e-05,1.79316e-06,0
-2.72494e-05,7.57678e-06,-1.32067e-05,1.20009e-05,1.88747e-05,-2.19388e-06,2.99814e-05,1.53087e-06,0
-2.83518e-05,6.55595e-06,-1.15445e-05,5.60892e-06,1.97359e-05,-1.83116e-06,2.93744e-05,-3.19995e-07,0
-3.03153e-05,5.78982e-06,-1.05645e-05,4.14275e-07,2.06012e-05,-1.41234e-06,2.78834e-05,-2.1413e-06,0
-3.04408e-05,4.68615e-06,-9.89644e-06,-3.36797e-06,2.30343e-05,-1.92617e-07,2.50834e-05,-2.76367e-06,0
-3.08522e-05,5.85351e-06,-6.97706e-06,-3.65726e-06,2.27802e-05,8.11407e-07,2.27655e-05,-3.31849e-06,0
-3.0687e-05,8.62827e-06,-3.613e-06,-4.68005e-06,1.8709e-05,8.34571e-07,2.09991e-05,-3.75159e-06,0
-2.87242e-05,9.54119e-06,-2.59475e-06,-7.93077e-06,1.54837e-05,9.60582e-07,1.76726e-05,-3.17991e-06,0
-2.79509e-05,8.04552e-06,-1.59791e-06,-9.16572e-06,1.57678e-05,1.02992e-06,1.41932e-05,-2.35645e-06,0
-2.78652e-05,5.59549e-06,-1.03322e-06,-7.62721e-06,1.90512e-05,9.43417e-08,1.29456e-05,-3.30303e-06,0
-2.7543e-05,5.66691e-06,-2.66637e-06,-3.73831e-06,2.02134e-05,-3.08859e-06,1.39747e-05,-4.08468e-06,0
-2.8031e-05,5.70655e-06,-5.36044e-06,-1.2539e-06,1.67781e-05,-6.79743e-06,1.42554e-05,-3.76604e-06,0
-3.00785e-05,4.51506e-06,-9.17735e-06,-1.7798e-06,1.43709e-05,-8.29065e-06,1.42658e-05,-1.96859e-06,0
-3.1008e-05,3.11099e-06,-1.40358e-05,-2.43802e-06,1.56467e-05,-8.39889e-06,1.66478e-05,1.01512e-06,0
-3.05821e-05,2.1258e-06,-2.04308e-05,-1.33807e-06,1.65452e-05,-8.19552e-06,2.29039e-05,2.4564e-06,0
-3.04028e-05,8.26826e-07,-2.89698e-05,1.54301e-06,1.49691e-05,-7.59889e-06,2.9625e-05,2.91354e-06,0
-2.94524e-05,-1.53958e-06,-3.52523e-05,2.39227e-06,1.13647e-05,-6.39368e-06,3.31558e-05,3.29582e-06,0
-2.73169e-05,-3.50314e-06,-3.28153e-05,4.85792e-07,9.39292e-06,-5.6131e-06,3.20157e-05,2.89802e-06,0
-2.61305e-05,-4.43548e-06,-2.36023e-05,-1.5403e-06,1.15718e-05,-5.26334e-06,2.58489e-05,2.00149e-06,0
-2.70945e-05,-4.23232e-06,-1.51162e-05,-1.51991e-06,1.28731e-05,-5.91371e-06,1.74766e-05,1.56784e-06,0
-2.86658e-05,-5.10459e-06,-1.09175e-05,-6.72683e-07,9.91734e-06,-7.44622e-06,9.7705e-06,2.67372e-06,0
-2.95102e-05,-6.82749e-06,-9.36689e-06,-2.55708e-06,6.53896e-06,-8.21651e-06,3.04016e-06,3.42969e-06,0
-2.90487e-05,-7.27016e-06,-7.66783e-06,-6.67256e-06,5.68089e-06,-6.81497e-06,-3.95353e-06,2.20958e-06,0
-2.81281e-05,-4.7676e-06,-4.90344e-06,-9.59607e-06,5.14065e-06,-5.39376e-06,-9.98725e-06,5.1246e-07,0
-2.74426e-05,-1.84677e-06,-1.90385e-06,-1.07247e-05,4.51889e-06,-6.18542e-06,-1.33549e-05,-1.22716e-06,0
-2.7232e-05,-1.84871e-06,-2.49211e-07,-1.06113e-05,3.49058e-06,-8.02475e-06,-1.24624e-05,-2.2094e-06,0
-2.70121e-05,-4.21537e-06,-3.78695e-07,-1.02262e-05,8.96776e-07,-1.00366e-05,-8.45329e-06,-2.16408e-06,0
-2.62849e-05,-5.44447e-06,-2.77181e-06,-1.12635e-05,-3.19897e-06,-1.10558e-05,-4.31684e-06,-2.27335e-06,0
-2.57579e-05,-4.76945e-06,-9.84076e-06,-1.12846e-05,-7.41624e-06,-1.1916e-05,-7.89406e-07,-2.72736e-06,0
-2.56226e-05,-2.74156e-06,-2.03461e-05,-1.02937e-05,-9.47619e-06,-1.3577e-05,2.95328e-06,-2.61009e-06,0
-2.57232e-05,1.94076e-07,-2.59693e-05,-1.03431e-05,-8.89772e-06,-1.52545e-05,5.02171e-06,-2.00195e-06,0
-2.5789e-05,2.93619e-06,-2.42798e-05,-1.05941e-05,-6.54095e-06,-1.6409e-05,3.95249e-06,-9.24195e-07,0
-2.5496e-05,3.92371e-06,-1.93981e-05,-9.90198e-06,-4.76124e-06,-1.63555e-05,2.56497e-06,7.08716e-07,0
-2.49965e-05,4.28961e-06,-1.55452e-05,-8.74529e-06,-4.82777e-06,-1.52112e-05,3.40348e-06,1.40442e-06,0
-2.51576e-05,4.55578e-06,-1.48886e-05,-7.76891e-06,-4.04132e-06,-1.40933e-05,4.69357e-06,1.29533e-06,0
-2.61148e-05,4.34803e-06,-1.4997e-05,-6.79139e-06,-1.55949e-06,-1.43723e-05,5.80748e-06,1.47343e-06,0
-2.75308e-05,5.09479e-06,-1.43361e-05,-7.16492e-06,1.32368e-06,-1.46938e-05,7.22997e-06,7.57117e-07,0
-2.86386e-05,6.76952e-06,-1.33172e-05,-1.08675e-05,4.02283e-06,-1.3784e-05,8.31123e-06,-1.92982e-06,0
-2.94955e-05,9.23874e-06,-1.30708e-05,-1.83329e-05,6.37165e-06,-1.27937e-05,6.07123e-06,-3.45149e-06,0
-3.01044e-05,1.09483e-05,-1.42846e-05,-2.67081e-05,7.87465e-06,-1.28593e-05,-2.87494e-06,-2.69884e-06,0
-3.02137e-05,1.25679e-05,-1.50666e-05,-3.17505e-05,8.11881e-06,-1.36084e-05,-1.28866e-05,-1.87605e-06,0
-2.98587e-05,1.3516e-05,-1.4393e-05,-3.20395e-05,8.49367e-06,-1.36394e-05,-1.67889e-05,-1.69321e-06,0
-3.01878e-05,1.44296e-05,-1.3023e-05,-2.86517e-05,9.15323e-06,-1.33758e-05,-1.26605e-05,-1.01327e-06,0
-3.03644e-05,1.58671e-05,-1.16331e-05,-2.39581e-05,9.01707e-06,-1.28438e-05,-3.573e-06,3.46892e-07,0
-2.91397e-05,1.80599e-05,-1.03542e-05,-2.10521e-05,8.27767e-06,-1.26001e-05,5.2166e-06,9.66399e-07,0
-2.84445e-05,2.02991e-05,-9.90189e-06,-2.21466e-05,7.37033e-06,-1.25184e-05,1.09657e-05,-2.46496e-07,0
-2.94957e-05,2.21136e-05,-1.03209e-05,-2.83724e-05,6.32933e-06,-1.30919e-05,1.54452e-05,-1.56436e-06,0
-3.15161e-05,2.67513e-05,-9.37503e-06,-4.25376e-05,6.76857e-06,-1.46462e-05,2.00252e-05,-1.55937e-06,0
-3.2264e-05,3.96054e-05,-7.05659e-06,-6.31509e-05,9.23454e-06,-1.53917e-05,2.38858e-05,-1.42282e-06,0
-3.12675e-05,6.44605e-05,-5.3906e-06,-7.8212e-05,1.15551e-05,-1.49976e-05,2.72326e-05,-1.01523e-06,0
-2.96635e-05,9.68866e-05,-4.88919e-06,-7.77649e-05,1.294e-05,-1.53724e-05,3.15466e-05,3.30317e-07,0
-2.90806e-05,0.000126616,-4.70898e-06,-6.40368e-05,1.42352e-05,-1.70361e-05,3.56831e-05,1.49266e-06,0
-2.8586e-05,0.000141553,-3.85037e-06,-4.54186e-05,1.44112e-05,-1.77798e-05,3.69948e-05,1.19311e-06,0
-2.77533e-05,0.000132442,-1.69125e-06,-2.91888e-05,1.32669e-05,-1.66115e-05,3.49652e-05,6.20147e-07,0
-2.77703e-05,9.78035e-05,5.3689e-07,-1.64716e-05,1.23416e-05,-1.39067e-05,3.04381e-05,6.39058e-07,0
-2.86613e-05,4.76849e-05,1.79746e-06,1.78173e-06,1.07296e-05,-1.14283e-05,2.65054e-05,1.17816e-06,0
-2.93983e-05,-2.36671e-06,2.17682e-06,2.6907e-05,9.29182e-06,-1.03518e-05,2.38745e-05,1.07578e-06,0
-2.99484e-05,-4.03952e-05,1.8881e-06,4.92019e-05,1.03698e-05,-1.07474e-05,2.31999e-05,-2.4002e-07,0
-2.99872e-05,-6.53634e-05,7.19622e-07,6.94687e-05,1.23838e-05,-1.10364e-05,2.61688e-05,3.84341e-07,0
-2.93941e-05,-7.62534e-05,4.61966e-07,8.76656e-05,1.35396e-05,-8.97294e-06,3.02636e-05,3.56221e-06,0
-2.91213e-05,-7.30639e-05,2.4749e-06,0.000101233,1.53812e-05,-7.04332e-06,3.16963e-05,3.3723e-06,0
-2.94829e-05,-5.51754e-05,4.70329e-06,0.00010127,1.82852e-05,-7.1204e-06,2.99698e-05,2.0599e-06,0
-2.98147e-05,-2.73382e-05,5.80894e-06,8.52277e-05,1.99562e-05,-8.0709e-06,2.70594e-05,2.44571e-06,0
-3.00748e-05,-3.79668e-06,5.61267e-06,6.59948e-05,1.86937e-05,-8.36955e-06,2.45521e-05,2.27183e-06,0
-3.13472e-05,1.21195e-05,4.6846e-06,4.99466e-05,1.50954e-05,-8.35173e-06,2.24466e-05,1.00912e-06,0
-3.23462e-05,2.12797e-05,3.90353e-06,4.31406e-05,1.41345e-05,-9.66408e-06,1.96294e-05,4.98597e-07,0
-3.29659e-05,2.49651e-05,4.28779e-06,4.0813e-05,1.76346e-05,-1.01773e-05,1.44778e-05,2.33159e-06,0
-3.15994e-05,2.27272e-05,3.81133e-06,3.92889e-05,2.17889e-05,-8.57501e-06,7.44136e-06,4.46555e-06,0
-2.91617e-05,1.95578e-05,1.57582e-06,3.90008e-05,2.27447e-05,-5.85503e-06,7.05701e-07,4.93761e-06,0
-2.8633e-05,1.76633e-05,-9.83945e-07,3.68594e-05,2.09871e-05,-3.05164e-06,-1.99144e-06,2.47805e-06,0
-2.90956e-05,1.16197e-05,-1.74996e-06,2.89779e-05,1.85839e-05,-1.2659e-06,8.76077e-07,1.02038e-06,0
-2.85173e-05,1.90835e-06,-1.59343e-07,1.623e-05,1.71285e-05,-1.8642e-06,5.66412e-06,1.93525e-06,0
-2.7988e-05,-5.21123e-06,1.65079e-06,7.85032e-06,1.69786e-05,-3.58926e-06,9.45834e-06,3.73308e-06,0
-2.97678e-05,-5.44698e-06,2.04392e-06,8.79807e-06,1.61967e-05,-4.87488e-06,1.17732e-05,4.96027e-06,0
-3.23574e-05,-2.6988e-06,2.11022e-07,1.08385e-05,1.43725e-05,-5.96976e-06,1.249e-05,4.87501e-06,0
-3.42269e-05,-3.05467e-06,-2.03099e-06,3.79735e-06,1.27842e-05,-7.73421e-06,1.19546e-05,4.55098e-06,0
-3.52169e-05,-9.07199e-06,-2.34285e-06,-5.20323e-06,1.26725e-05,-1.06337e-05,1.08033e-05,5.27548e-06,0
-3.62252e-05,-1.63829e-05,-2.31197e-07,-5.45519e-06,1.35005e-05,-1.27593e-05,9.0839e-06,5.51474e-06,0
-3.75668e-05,-1.86245e-05,2.23173e-06,1.19823e-05,1.44132e-05,-1.1373e-05,8.21896e-06,4.58496e-06,0
-3.70176e-05,-1.37606e-05,3.09939e-06,4.60438e-05,1.35516e-05,-7.2017e-06,1.02358e-05,5.84028e-06,0
-3.33204e-05,-7.25424e-06,2.21503e-06,6.3368e-05,1.14338e-05,-5.24823e-06,1.4127e-05,8.31938e-06,0
-2.9996e-05,-3.78732e-06,9.52542e-09,3.37273e-05,1.11701e-05,-5.87304e-06,1.67919e-05,8.96016e-06,0
-3.03372e-05,-3.13064e-06,-3.29177e-06,-2.08806e-05,1.28295e-05,-6.26405e-06,1.68382e-05,8.82497e-06,0
-3.26439e-05,-3.20344e-08,-7.05737e-06,-6.85419e-05,1.19799e-05,-6.90536e-06,1.44147e-05,8.70992e-06,0
-3.37008e-05,8.22061e-06,-1.062e-05,-0.000100983,8.28923e-06,-8.65377e-06,1.19101e-05,7.40034e-06,0
-3.28055e-05,1.76987e-05,-1.52504e-05,-0.000127502,4.15124e-06,-1.20947e-05,1.17582e-05,7.3453e-06,0
-3.10582e-05,2.136e-05,-2.30777e-05,-0.000143437,2.1368e-06,-1.60152e-05,1.32259e-05,8.90071e-06,0
-2.96585e-05,2.10199e-05,-3.1507e-05,-0.000133114,2.01829e-06,-2.18465e-05,1.48051e-05,9.65122e-06,0
-2.95063e-05,2.34763e-05,-3.37505e-05,-0.000105927,2.9517e-06,-3.11837e-05,1.51002e-05,8.89907e-06,0
-3.14551e-05,2.60052e-05,-2.77241e-05,-8.68147e-05,4.37556e-06,-2.82143e-05,1.41349e-05,7.2582e-06,0
-3.42152e-05,2.59411e-05,-2.11492e-05,-8.3785e-05,3.01893e-06,-2.88033e-06,1.46877e-05,5.92809e-06,0
-3.60639e-05,2.25767e-05,-1.84727e-05,-7.65275e-05,2.33454e-06,2.26708e-05,1.56584e-05,5.05254e-06,0
-3.50109e-05,2.07682e-05,-1.70994e-05,-5.56092e-05,3.52286e-06,2.5445e-05,1.58244e-05,5.26534e-06,0
-3.31449e-05,2.29434e-05,-1.72533e-05,-2.9522e-05,5.21537e-06,1.13605e-05,1.60021e-05,6.45728e-06,0
-3.30691e-05,2.61657e-05,-1.97858e-05,-1.17499e-05,7.7458e-06,-2.03598e-06,1.68108e-05,8.08095e-06,0
-3.35409e-05,2.79099e-05,-2.22531e-05,-1.03078e-05,1.13734e-05,-8.01175e-06,1.85833e-05,8.43008e-06,0
-3.25786e-05,2.97284e-05,-2.28918e-05,-1.83286e-05,1.53369e-05,-9.39159e-06,1.86217e-05,6.85029e-06,0
-2.86984e-05,3.69745e-05,-2.12538e-05,-1.43707e-05,2.07238e-05,-8.89068e-06,1.76631e-05,5.29469e-06,0
-2.45846e-05,5.19724e-05,-1.72273e-05,1.17254e-05,2.90774e-05,-7.69709e-06,1.74261e-05,3.37559e-06,0
-2.28186e-05,6.95552e-05,-1.35226e-05,4.03139e-05,3.84951e-05,-8.67778e-06,1.76205e-05,1.17195e-06,0
-2.5129e-05,8.48079e-05,-1.18554e-05,5.19067e-05,4.48349e-05,-1.32997e-05,1.81164e-05,-1.27043e-06,0
-2.93185e-05,9.80222e-05,-1.16999e-05,5.58146e-05,4.58231e-05,-1.83997e-05,1.92427e-05,-4.06808e-06,0
-3.12809e-05,0.000107031,-1.11307e-05,6.23237e-05,4.42382e-05,-1.96121e-05,1.9925e-05,-5.23718e-06,0
-2.97263e-05,0.000109279,-9.70346e-06,5.96942e-05,4.13787e-05,-1.8251e-05,1.92203e-05,-4.54979e-06,0
-2.7555e-05,0.000102924,-7.84007e-06,4.91486e-05,3.58893e-05,-1.81998e-05,1.7379e-05,-5.01064e-06,0
-2.74558e-05,8.5157e-05,-5.19504e-06,4.49613e-05,2.68257e-05,-1.98622e-05,1.57465e-05,-7.67926e-06,0
-2.86518e-05,5.4976e-05,-1.44217e-06,4.21805e-05,1.68633e-05,-2.13482e-05,1.48461e-05,-1.06546e-05,0
-2.88937e-05,1.57502e-05,1.80409e-06,2.15645e-05,1.11276e-05,-2.07245e-05,1.39454e-05,-1.24934e-05,0
-2.77493e-05,-2.83978e-05,2.68078e-06,-2.76916e-05,1.04495e-05,-1.34584e-05,1.38536e-05,-1.27697e-05,0
-2.78548e-05,-6.59421e-05,1.0802e-06,-8.17453e-05,1.01556e-05,1.44649e-06,1.45584e-05,-1.2327e-05,0
-3.43015e-05,-7.95489e-05,-1.98686e-06,-9.72429e-05,1.12412e-05,9.5992e-06,1.52386e-05,-1.28901e-05,0
-4.49342e-05,-6.85774e-05,-4.27283e-06,-7.21411e-05,1.57197e-05,3.30602e-06,1.50067e-05,-1.41478e-05,0
-4.99619e-05,-4.98931e-05,-5.53675e-06,-2.87179e-05,2.0833e-05,-5.56324e-06,1.13292e-05,-1.40866e-05,0
-4.62492e-05,-3.43811e-05,-7.812e-06,9.88885e-06,2.3815e-05,-8.3101e-06,5.49772e-06,-1.24958e-05,0
-3.97699e-05,-1.93768e-05,-8.59622e-06,2.92407e-05,2.53211e-05,-6.69739e-06,2.53533e-06,-1.18608e-05,0
-3.64093e-05,-3.45759e-06,-5.17824e-06,4.21322e-05,2.82756e-05,-5.27733e-06,1.61555e-06,-1.22333e-05,0
-3.57007e-05,5.56752e-06,-3.7681e-07,6.19412e-05,3.3358e-05,-5.34424e-06,1.14298e-06,-1.26959e-05,0
-3.70592e-05,4.1396e-06,2.86425e-06,7.22662e-05,3.775e-05,-6.05963e-06,1.09076e-06,-1.37898e-05,0
-3.70423e-05,-4.73903e-06,3.35142e-06,5.68053e-05,4.17061e-05,-5.3666e-06,3.32948e-06,-1.34955e-05,0
-3.46406e-05,-1.35448e-05,1.91927e-06,3.1676e-05,4.80659e-05,-2.32539e-06,5.88009e-06,-1.18772e-05,0
-3.12616e-05,-1.64978e-05,5.15213e-07,1.45585e-05,5.32018e-05,1.04642e-06,5.82292e-06,-1.02483e-05,0
-2.86893e-05,-1.3282e-05,1.0028e-06,1.67117e-05,5.38603e-05,1.12514e-06,5.55821e-06,-9.05786e-06,0
-2.77029e-05,-4.97447e-06,2.1535e-06,3.18993e-05,4.78511e-05,-2.17963e-06,4.31758e-06,-7.87679e-06,0
-2.80636e-05,5.95834e-06,3.98588e-07,4.15139e-05,3.76393e-05,-4.29503e-06,2.49755e-06,-6.59804e-06,0
-2.92079e-05,1.47216e-05,-4.16751e-06,3.66816e-05,2.77022e-05,-2.84075e-06,2.31582e-06,-6.38439e-06,0
-2.89525e-05,1.81814e-05,-7.13673e-06,1.96997e-05,1.99619e-05,-2.95836e-07,1.42744e-06,-6.67408e-06,0
-2.73744e-05,1.62496e-05,-7.69982e-06,-6.60237e-06,1.44582e-05,-4.05624e-07,-2.42961e-06,-6.55612e-06,0
-2.61068e-05,9.79083e-06,-8.59846e-06,-3.91316e-05,1.03024e-05,-4.17245e-06,-4.72744e-06,-5.63954e-06,0
-2.64864e-05,4.17386e-06,-1.00097e-05,-7.19244e-05,7.8656e-06,-8.73856e-06,-7.18104e-07,-4.66613e-06,0
-2.73203e-05,1.84569e-06,-1.04337e-05,-9.99025e-05,7.5315e-06,-9.8609e-06,7.68135e-06,-4.21531e-06,0
-2.73194e-05,1.21916e-06,-1.13396e-05,-0.000115033,9.48443e-06,-8.73044e-06,1.4735e-05,-3.99523e-06,0
-2.66624e-05,1.79741e-06,-1.4419e-05,-0.000114935,1.13938e-05,-8.22945e-06,1.75536e-05,-3.18775e-06,0
-2.71753e-05,5.37098e-06,-1.69563e-05,-0.000101818,1.32082e-05,-9.08648e-06,1.79731e-05,-1.61589e-06,0
-2.79205e-05,1.03136e-05,-1.66451e-05,-7.29396e-05,1.60784e-05,-1.09917e-05,1.87652e-05,4.05497e-08,0
-2.77212e-05,1.50367e-05,-1.28711e-05,-2.36735e-05,1.81737e-05,-1.33302e-05,2.18946e-05,2.24549e-06,0
-2.75436e-05,1.93373e-05,-6.26816e-06,3.00414e-05,1.86959e-05,-1.64596e-05,2.59448e-05,3.95173e-06,0
-2.89422e-05,2.13338e-05,-1.66658e-06,6.19439e-05,1.92472e-05,-1.9288e-05,2.82584e-05,3.94708e-06,0
-3.03996e-05,2.10846e-05,1.74463e-07,6.13617e-05,1.80032e-05,-2.04556e-05,2.88767e-05,3.8732e-06,0
-3.09604e-05,2.015e-05,6.40945e-06,4.39001e-05,1.42005e-05,-2.12364e-05,2.63441e-05,3.111e-06,0
-3.14003e-05,1.7928e-05,2.04966e-05,2.79845e-05,9.58472e-06,-2.11123e-05,2.17554e-05,8.71249e-07,0
-3.00613e-05,1.73709e-05,4.09073e-05,1.41573e-05,4.43265e-06,-1.74512e-05,1.75446e-05,-4.13888e-07,0
-2.92367e-05,1.96039e-05,6.3791e-05,1.74588e-06,6.35858e-07,-1.3707e-05,7.2682e-06,3.54945e-07,0
-2.97454e-05,1.96107e-05,8.18328e-05,-9.10493e-06,-1.28962e-06,-1.47622e-05,-1.37559e-05,2.17252e-06,0
-2.84871e-05,1.7272e-05,8.74593e-05,-1.4385e-05,-2.48439e-06,-1.59579e-05,-3.30433e-05,2.59738e-06,0
-2.76799e-05,1.49185e-05,7.21855e-05,-9.80754e-06,-2.0354e-06,-1.47186e-05,-3.69771e-05,2.005e-06,0
-2.73485e-05,1.34351e-05,3.68026e-05,-4.08325e-06,-1.78629e-06,-1.46416e-05,-2.65589e-05,2.69484e-06,0
-2.59962e-05,1.16513e-05,-1.1118e-05,-6.23516e-06,-4.55314e-06,-1.50232e-05,-1.07904e-05,4.40086e-06,0
-2.59945e-05,9.65968e-06,-6.03502e-05,-1.32238e-05,-7.93687e-06,-1.4494e-05,3.28476e-06,6.5196e-06,0
-2.69378e-05,8.43026e-06,-9.56228e-05,-2.0441e-05,-1.05457e-05,-1.37266e-05,1.41539e-05,8.55217e-06,0
-2.78856e-05,8.36596e-06,-0.000113028,-2.79515e-05,-1.29467e-05,-1.18488e-05,2.11707e-05,8.9731e-06,0
-2.84623e-05,9.50971e-06,-0.000113475,-3.3024e-05,-1.45765e-05,-9.31187e-06,2.46792e-05,7.98173e-06,0
-2.90596e-05,9.98329e-06,-0.000100722,-3.3522e-05,-1.54416e-05,-7.99253e-06,2.68149e-05,6.60994e-06,0
-3.02779e-05,1.01867e-05,-8.09891e-05,-3.12726e-05,-1.57448e-05,-8.01395e-06,2.89816e-05,5.37262e-06,0
-3.11704e-05,1.17591e-05,-6.11977e-05,-2.8762e-05,-1.67317e-05,-8.1085e-06,2.96288e-05,4.52577e-06,0
-3.1266e-05,1.42425e-05,-4.37391e-05,-2.87728e-05,-1.77965e-05,-8.30508e-06,2.79847e-05,4.06338e-06,0
-3.08451e-05,1.56666e-05,-2.85318e-05,-2.829e-05,-1.61089e-05,-9.53216e-06,2.4372e-05,4.1643e-06,0
-3.02466e-05,1.65222e-05,-1.80521e-05,-2.05704e-05,-1.19606e-05,-1.10304e-05,1.54834e-05,4.63419e-06,0
-2.96681e-05,1.82932e-05,-1.23656e-05,-6.03154e-06,-8.63402e-06,-1.27391e-05,-2.74053e-06,4.57382e-06,0
-2.89212e-05,1.9033e-05,-9.3566e-06,6.82449e-06,-6.97442e-06,-1.48134e-05,-2.10712e-05,4.11189e-06,0
-2.84603e-05,1.989e-05,-7.58612e-06,1.37121e-05,-5.46297e-06,-1.69808e-05,-2.37705e-05,4.36897e-06,0
-2.87703e-05,2.20068e-05,-6.51703e-06,1.33729e-05,-3.26286e-06,-1.77384e-05,-9.09352e-06,4.32706e-06,0
-2.9191e-05,2.27672e-05,-5.49925e-06,4.93419e-06,4.1673e-08,-1.70878e-05,1.21078e-05,3.27967e-06,0
-2.8354e-05,2.12591e-05,-5.38392e-06,-9.8115e-06,3.94706e-06,-1.57596e-05,2.88365e-05,2.05943e-06,0
-2.71477e-05,1.93693e-05,-5.29118e-06,-2.70502e-05,8.27779e-06,-1.44787e-05,3.78765e-05,2.04267e-06,0
-2.7583e-05,1.86759e-05,-6.10239e-06,-3.75981e-05,1.13903e-05,-1.56021e-05,4.06462e-05,4.168e-06,0
-2.83816e-05,1.93416e-05,-6.89473e-06,-3.316e-05,1.3073e-05,-1.7558e-05,3.91158e-05,6.75425e-06,0
-2.91759e-05,1.77961e-05,-7.00774e-06,-1.33525e-05,1.43664e-05,-1.72703e-05,3.49435e-05,7.26322e-06,0
-3.22935e-05,1.5306e-05,-8.00512e-06,1.03515e-05,1.40976e-05,-1.60774e-05,3.0426e-05,7.7032e-06,0
-3.33845e-05,1.54392e-05,-9.24242e-06,2.9418e-05,1.15381e-05,-1.56305e-05,2.65615e-05,7.51012e-06,0
-3.06156e-05,1.53207e-05,-1.02933e-05,4.19814e-05,9.41309e-06,-1.44014e-05,2.35074e-05,7.03177e-06,0
-2.86317e-05,1.61774e-05,-9.85279e-06,4.38455e-05,9.7311e-06,-1.39746e-05,2.10301e-05,8.4109e-06,0
-2.87939e-05,1.78945e-05,-8.6575e-06,3.64188e-05,1.11725e-05,-1.46681e-05,1.85695e-05,8.76684e-06,0
-3.08334e-05,1.81993e-05,-9.26365e-06,2.50174e-05,1.29331e-05,-1.33305e-05,1.74688e-05,7.63018e-06,0
-3.14252e-05,1.67963e-05,-1.04103e-05,1.34498e-05,1.5589e-05,-1.25887e-05,1.72956e-05,6.04549e-06,0
-3.0078e-05,1.51449e-05,-1.02841e-05,7.45138e-07,1.82915e-05,-1.24484e-05,1.65088e-05,6.1868e-06,0
-2.88066e-05,1.41769e-05,-6.64441e-06,-1.56115e-05,1.94772e-05,-1.19133e-05,1.62563e-05,8.07244e-06,0
-2.76512e-05,1.29148e-05,-1.29056e-06,-3.263e-05,1.98582e-05,-1.09297e-05,1.83134e-05,8.65269e-06,0
-2.83119e-05,1.30184e-05,1.74807e-06,-3.84465e-05,1.94353e-05,-9.5862e-06,2.14638e-05,8.03144e-06,0
-3.06537e-05,1.46513e-05,2.37088e-06,-3.21459e-05,1.87868e-05,-1.06537e-05,2.41581e-05,7.90339e-06,0
-3.09271e-05,1.71546e-05,2.11141e-06,-2.38872e-05,1.74193e-05,-1.40493e-05,2.49213e-05,7.45814e-06,0
-2.9183e-05,1.84365e-05,1.74994e-06,-1.87753e-05,1.61269e-05,-1.75259e-05,2.26347e-05,6.43231e-06,0
-2.80569e-05,1.64876e-05,6.93249e-07,-1.55454e-05,1.50289e-05,-1.89816e-05,1.80136e-05,4.94179e-06,0
-2.81148e-05,1.28261e-05,-1.00704e-06,-1.31343e-05,1.31264e-05,-1.94445e-05,1.25508e-05,3.41379e-06,0
-2.8428e-05,1.09839e-05,-1.79018e-06,-1.19399e-05,1.1877e-05,-2.01105e-05,6.77892e-06,3.20622e-06,0
-2.81009e-05,1.2363e-05,-1.06301e-06,-9.26789e-06,1.32838e-05,-2.06561e-05,-1.08438e-06,3.57062e-06,0
-2.68348e-05,1.46907e-05,-6.50683e-07,-3.14005e-06,1.56861e-05,-2.03964e-05,-1.12339e-05,3.04621e-06,0
-2.60394e-05,1.61904e-05,-1.10203e-07,5.1352e-06,1.58129e-05,-1.87711e-05,-1.8359e-05,1.78931e-06,0
-2.73728e-05,1.73055e-05,1.3682e-06,1.10006e-05,1.58472e-05,-1.39983e-05,-1.63226e-05,1.17488e-06,0
-2.83898e-05,1.83772e-05,2.38643e-06,1.45532e-05,1.71795e-05,-7.08336e-06,-6.85007e-06,1.22307e-06,0
-2.8431e-05,2.06252e-05,1.49964e-06,1.66207e-05,1.83152e-05,-3.83812e-06,6.57427e-06,1.55426e-06,0
-2.90941e-05,2.3273e-05,5.18744e-07,2.57877e-05,1.76078e-05,-1.86145e-06,2.26333e-05,2.17944e-06,0
-3.05324e-05,2.35497e-05,1.62748e-07,5.72486e-05,1.59429e-05,7.43445e-06,3.9931e-05,2.86726e-06,0
