ch1,ch2,ch3,ch4,ch5,ch6,ch7,ch8,class
-2.97666e-05,2.26879e-06,-4.88513e-06,4.4735e-06,7.4057e-06,-9.7606e-06,1.61458e-06,-1.08367e-06,0
-2.89913e-05,6.01837e-06,-4.44316e-06,1.32711e-06,7.42543e-06,-1.0557e-05,8.96877e-07,-2.64255e-07,0
-2.81716e-05,9.0978e-06,-6.60177e-06,5.03554e-07,4.70476e-06,-1.11523e-05,1.8136e-06,-1.86414e-07,0
-2.80084e-05,1.17824e-05,-8.02653e-06,4.23305e-07,7.02729e-08,-1.13785e-05,3.0169e-06,-1.65236e-07,0
-2.91384e-05,1.4292e-05,-8.2629e-06,8.63865e-07,-1.87876e-06,-1.07356e-05,2.61617e-06,-3.87625e-07,0
-3.01818e-05,1.49774e-05,-8.39378e-06,1.5843e-06,7.67788e-07,-1.07201e-05,8.01017e-07,-1.4652e-06,0
-3.0312e-05,1.38923e-05,-8.57041e-06,3.59787e-07,6.21231e-06,-1.05859e-05,-2.1578e-07,-2.80721e-06,0
-3.02832e-05,1.23095e-05,-7.95363e-06,-2.74851e-06,1.26684e-05,-9.34944e-06,1.99446e-08,-3.00905e-06,0
-3.02524e-05,1.10935e-05,-7.99694e-06,-5.26439e-06,1.75182e-05,-8.24394e-06,1.08466e-06,-1.48088e-06,0
-2.9825e-05,1.05486e-05,-8.87379e-06,-6.89381e-06,1.71717e-05,-8.40873e-06,1.875e-06,3.7218e-07,0
-2.8773e-05,1.06869e-05,-9.88018e-06,-8.79902e-06,1.28753e-05,-8.82625e-06,1.8655e-06,5.83123e-07,0
-2.73516e-05,1.06257e-05,-1.05064e-05,-9.17789e-06,8.63254e-06,-8.51513e-06,2.9962e-06,-8.63864e-07,0
-2.63298e-05,9.27849e-06,-1.09934e-05,-6.14894e-06,5.29356e-06,-8.03475e-06,6.46491e-06,-2.76514e-06,0
-2.60997e-05,6.05652e-06,-1.16833e-05,-2.01305e-06,1.54423e-06,-8.96653e-06,9.99024e-06,-4.17983e-06,0
-2.56307e-05,3.41059e-06,-1.28853e-05,6.47483e-08,-1.35875e-06,-1.04327e-05,1.16743e-05,-5.11813e-06,0
-2.51325e-05,4.06126e-06,-1.27184e-05,-4.88731e-07,-1.32592e-06,-1.14628e-05,1.31083e-05,-4.12075e-06,0
-2.56921e-05,8.05028e-06,-1.10127e-05,-3.51412e-06,-2.12026e-07,-1.20297e-05,1.37883e-05,-1.81668e-06,0
-2.71988e-05,1.12392e-05,-9.40731e-06,-7.5233e-06,1.45416e-07,-1.22307e-05,1.29524e-05,-6.79323e-08,0
-2.91243e-05,8.43082e-06,-8.9375e-06,-9.52162e-06,1.67029e-06,-1.36077e-05,1.25986e-05,-5.36558e-07,0
-3.01191e-05,1.96103e-06,-8.59812e-06,-1.0698e-05,4.88613e-06,-1.43035e-05,1.39521e-05,-3.40281e-06,0
-2.9727e-05,-1.39966e-06,-9.04727e-06,-1.55544e-05,5.46142e-06,-1.41038e-05,1.54355e-05,-4.32508e-06,0
-2.86896e-05,9.10821e-07,-1.06286e-05,-2.46006e-05,3.22579e-06,-1.49899e-05,1.47811e-05,-1.79581e-06,0
-2.77259e-05,7.2812e-06,-1.22215e-05,-3.19108e-05,2.48018e-06,-1.66284e-05,1.36618e-05,1.28849e-06,0
-2.7968e-05,1.13852e-05,-1.22409e-05,-2.93024e-05,4.91407e-06,-1.65676e-05,1.22127e-05,3.01406e-06,0
-2.87096e-05,1.15159e-05,-1.01925e-05,-1.43905e-05,1.06069e-05,-1.43661e-05,9.83393e-06,3.74345e-06,0
-2.80447e-05,1.2511e-05,-8.00974e-06,4.68688e-06,1.66751e-05,-1.38951e-05,8.94319e-06,3.5462e-06,0
-2.49629e-05,1.47888e-05,-6.08245e-06,1.72321e-05,2.00283e-05,-1.62358e-05,9.65783e-06,2.80754e-06,0
-2.28855e-05,1.88837e-05,-5.24439e-06,2.0959e-05,1.85353e-05,-1.75577e-05,1.08565e-05,2.88609e-06,0
-2.39874e-05,2.29489e-05,-5.74352e-06,2.13058e-05,1.22794e-05,-1.57542e-05,1.18443e-05,2.77789e-06,0
-2.58392e-05,2.43636e-05,-7.13267e-06,2.15876e-05,4.98765e-06,-1.28064e-05,1.10169e-05,1.08205e-06,0
-2.63474e-05,2.42264e-05,-8.19088e-06,2.02804e-05,-1.41147e-06,-1.15749e-05,1.04604e-05,-3.3681e-07,0
-2.64963e-05,2.58705e-05,-8.75102e-06,1.51045e-05,-5.81706e-06,-1.19704e-05,1.18373e-05,-2.11865e-07,0
-2.71306e-05,3.11646e-05,-8.21834e-06,8.09467e-06,-7.54495e-06,-1.29061e-05,1.36264e-05,5.42324e-07,0
-2.87119e-05,4.06198e-05,-7.83714e-06,2.35371e-06,-6.77463e-06,-1.42521e-05,1.47171e-05,1.10494e-06,0
-3.11425e-05,5.25822e-05,-8.25562e-06,-5.49231e-07,-5.57609e-06,-1.57784e-05,1.50685e-05,2.5824e-06,0
-3.2276e-05,6.30729e-05,-8.57404e-06,7.76577e-07,-4.61965e-06,-1.67668e-05,1.55326e-05,5.10835e-06,0
-3.13758e-05,6.67908e-05,-9.16677e-06,4.48376e-06,-1.69181e-06,-1.62413e-05,1.61892e-05,6.72276e-06,0
-2.99223e-05,5.92063e-05,-9.90925e-06,8.30156e-06,3.09577e-06,-1.47705e-05,1.59955e-05,7.56371e-06,0
-3.04506e-05,4.13308e-05,-9.93277e-06,1.26346e-05,8.83267e-06,-1.35142e-05,1.49729e-05,8.71658e-06,0
-3.26622e-05,1.85663e-05,-9.11597e-06,1.71098e-05,1.4708e-05,-1.18772e-05,1.5336e-05,9.6229e-06,0
-3.43672e-05,-4.73057e-06,-7.70962e-06,1.68601e-05,2.21298e-05,-9.46438e-06,1.69275e-05,9.76027e-06,0
-3.34992e-05,-2.63107e-05,-6.29383e-06,4.86873e-06,3.06281e-05,-7.64365e-06,1.7512e-05,9.17241e-06,0
-3.1195e-05,-3.85168e-05,-6.26651e-06,-1.70873e-05,3.38223e-05,-7.10608e-06,1.54794e-05,7.95093e-06,0
-2.93746e-05,-3.33004e-05,-7.02388e-06,-3.30735e-05,3.14196e-05,-6.79932e-06,1.27326e-05,5.74174e-06,0
-2.84297e-05,-1.58358e-05,-6.17919e-06,-3.01235e-05,2.86328e-05,-4.93924e-06,1.18103e-05,4.29867e-06,0
-2.81686e-05,-1.248e-06,-4.29308e-06,-1.44894e-05,2.90417e-05,-2.57079e-06,1.33345e-05,6.49159e-06,0
-2.95864e-05,6.28146e-06,-5.21019e-06,-2.6044e-06,3.29211e-05,-1.0821e-06,1.46301e-05,9.52376e-06,0
-3.22188e-05,9.73301e-06,-8.69774e-06,-2.98476e-06,3.33943e-05,-2.65272e-06,1.4053e-05,1.0035e-05,0
-3.5018e-05,6.26524e-06,-1.23118e-05,-6.38736e-06,2.8349e-05,-6.45268e-06,1.36072e-05,8.53028e-06,0
-3.75199e-05,-4.22225e-06,-1.42399e-05,-2.68028e-06,2.25881e-05,-9.31324e-06,1.33653e-05,6.63892e-06,0
-3.8708e-05,-1.44636e-05,-1.43123e-05,5.19659e-06,2.06153e-05,-1.23923e-05,1.22845e-05,6.44099e-06,0
-3.86468e-05,-1.68178e-05,-1.36964e-05,1.16685e-05,2.13678e-05,-1.52479e-05,1.19271e-05,6.74092e-06,0
-3.77249e-05,-1.18267e-05,-1.24117e-05,9.99565e-06,1.88607e-05,-1.55913e-05,1.34578e-05,5.4736e-06,0
-3.68058e-05,-5.72029e-06,-1.11407e-05,1.13759e-06,1.64154e-05,-1.35483e-05,1.46779e-05,4.29597e-06,0
-3.56065e-05,-1.35433e-06,-1.13981e-05,-1.25356e-05,1.55275e-05,-1.07738e-05,1.45501e-05,3.05266e-06,0
-3.45935e-05,2.44602e-06,-1.21694e-05,-2.92469e-05,1.28188e-05,-9.21061e-06,1.35066e-05,1.19556e-06,0
-3.46664e-05,6.51347e-06,-1.25584e-05,-3.85292e-05,8.86444e-06,-9.02216e-06,1.32443e-05,-5.61858e-07,0
-3.55893e-05,1.08742e-05,-1.3048e-05,-3.36234e-05,6.65476e-06,-8.86047e-06,1.34677e-05,-9.43708e-07,0
-3.52499e-05,1.46514e-05,-1.22314e-05,-1.97218e-05,8.57232e-06,-8.61568e-06,1.29287e-05,-4.94759e-07,0
-3.30368e-05,1.65483e-05,-1.0268e-05,-9.57439e-06,1.21405e-05,-8.21152e-06,1.16853e-05,-5.7571e-07,0
-3.14222e-05,1.70901e-05,-9.57571e-06,-1.01431e-05,1.44649e-05,-8.22825e-06,9.30461e-06,-8.01174e-08,0
-3.16001e-05,1.72153e-05,-1.20877e-05,-1.66361e-05,1.60829e-05,-8.04634e-06,6.75369e-06,1.71587e-06,0
-3.25066e-05,1.62457e-05,-1.51158e-05,-2.12115e-05,1.90215e-05,-7.11749e-06,5.19695e-06,3.57027e-06,0
-3.37376e-05,1.37966e-05,-1.46511e-05,-1.94454e-05,2.35334e-05,-5.76251e-06,4.84667e-06,3.75251e-06,0
-3.48105e-05,1.25199e-05,-1.15839e-05,-1.25575e-05,2.72133e-05,-5.48402e-06,4.14172e-06,1.90571e-06,0
-3.52379e-05,1.45461e-05,-1.01174e-05,-9.90406e-06,2.46662e-05,-6.77211e-06,2.4359e-06,-5.81799e-07,0
-3.58395e-05,1.74386e-05,-1.0919e-05,-1.5578e-05,1.5779e-05,-8.10243e-06,9.60656e-07,-1.58996e-06,0
-3.60964e-05,1.84265e-05,-1.09577e-05,-2.05054e-05,6.86424e-06,-8.20594e-06,1.25484e-06,-1.4488e-06,0
-3.42935e-05,1.72474e-05,-9.74381e-06,-1.80999e-05,3.24353e-06,-7.54303e-06,4.19044e-06,-6.14e-07,0
-3.07141e-05,1.47828e-05,-9.42396e-06,-1.18712e-05,6.59869e-06,-7.5619e-06,8.37083e-06,6.55969e-07,0
-3.00616e-05,1.60092e-05,-9.55995e-06,-5.57434e-06,1.18297e-05,-7.77401e-06,1.02907e-05,8.62649e-07,0
-3.28709e-05,2.20228e-05,-8.30582e-06,-1.09523e-06,1.36115e-05,-9.83356e-06,7.81935e-06,-4.45381e-07,0
-3.39738e-05,3.00112e-05,-7.70754e-06,4.2686e-06,1.25394e-05,-1.21979e-05,-1.28562e-06,-1.00431e-06,0
-3.15249e-05,3.84441e-05,-7.87233e-06,1.45402e-05,1.25773e-05,-1.1208e-05,-1.39463e-05,-1.00309e-06,0
-2.85704e-05,3.83393e-05,-7.10881e-06,3.08902e-05,1.60863e-05,-7.77369e-06,-1.78608e-05,6.94315e-07,0
-2.82928e-05,3.51156e-05,-4.58997e-06,5.82444e-05,2.10984e-05,-4.88159e-06,-1.40387e-05,3.13056e-06,0
-2.81894e-05,3.74488e-05,-2.9306e-06,8.82656e-05,2.56245e-05,-3.10749e-06,-7.61409e-06,3.62176e-06,0
-2.72368e-05,3.86227e-05,-3.6203e-06,9.99745e-05,2.88224e-05,-1.50486e-06,2.16752e-06,3.71348e-06,0
-2.67811e-05,3.67565e-05,-5.12996e-06,8.7197e-05,3.19179e-05,-1.12658e-06,1.25892e-05,4.0099e-06,0
-2.68834e-05,3.12586e-05,-6.57702e-06,5.84196e-05,2.98725e-05,-3.98064e-06,2.09663e-05,3.4027e-06,0
-2.56483e-05,2.14271e-05,-6.06018e-06,2.90186e-05,2.10936e-05,-9.47123e-06,2.65718e-05,1.39414e-06,0
-2.22813e-05,5.6972e-06,-5.17576e-06,4.10028e-06,1.46851e-05,-1.36595e-05,2.89052e-05,5.49232e-07,0
-1.85762e-05,-1.19803e-05,-4.79555e-06,-1.76574e-05,1.72889e-05,-1.73476e-05,2.98614e-05,1.15705e-06,0
-1.62451e-05,-2.32032e-05,-3.62757e-06,-3.43615e-05,2.58204e-05,-1.97826e-05,3.15335e-05,1.79227e-06,0
-1.7464e-05,-2.54054e-05,-3.00628e-06,-4.72828e-05,3.04779e-05,-1.24328e-05,3.18357e-05,1.99548e-06,0
-2.06326e-05,-2.20826e-05,-4.87133e-06,-5.88719e-05,2.56279e-05,8.19189e-06,3.06977e-05,2.64674e-06,0
-2.29439e-05,-1.68965e-05,-8.0062e-06,-6.58008e-05,1.48581e-05,2.87808e-05,2.84313e-05,3.11673e-06,0
-2.29356e-05,-1.03931e-05,-9.41494e-06,-6.38089e-05,8.29675e-06,3.0947e-05,2.66968e-05,2.82293e-06,0
-2.2585e-05,-4.09221e-06,-8.64844e-06,-5.81855e-05,7.71099e-06,1.57766e-05,2.59271e-05,1.62375e-06,0
-2.34072e-05,7.71663e-07,-7.65274e-06,-5.47356e-05,6.70981e-06,4.21449e-07,2.62075e-05,-7.59451e-07,0
-2.46981e-05,4.99335e-06,-8.07969e-06,-5.33335e-05,1.95272e-06,-4.85114e-06,2.70456e-05,-2.55384e-06,0
-2.62784e-05,1.00101e-05,-8.88324e-06,-4.82409e-05,-2.69999e-06,-4.86212e-06,2.74592e-05,-2.43368e-06,0
-2.9058e-05,1.34489e-05,-8.3089e-06,-3.83431e-05,-3.88591e-06,-5.74307e-06,2.55576e-05,-1.10622e-06,0
-3.46915e-05,1.25408e-05,-7.48876e-06,-2.79187e-05,-2.62956e-06,-7.4276e-06,2.05783e-05,-7.0053e-07,0
-4.4183e-05,8.74134e-06,-8.3187e-06,-2.06088e-05,-3.87298e-06,-1.04757e-05,1.59158e-05,-1.14751e-06,0
-5.42525e-05,6.73791e-06,-9.8928e-06,-1.75365e-05,-1.03969e-05,-1.61382e-05,1.29943e-05,-9.14854e-08,0
-5.63796e-05,7.51872e-06,-1.20354e-05,-1.86228e-05,-1.86388e-05,-1.99985e-05,1.22233e-05,8.15948e-07,0
-4.82366e-05,8.68323e-06,-1.49912e-05,-1.97114e-05,-2.12001e-05,-1.65368e-05,1.24167e-05,-1.08498e-06,0
-3.76786e-05,1.00844e-05,-1.62385e-05,-1.43006e-05,-1.19329e-05,-8.52399e-06,1.21741e-05,-2.78112e-06,0
-3.17101e-05,1.33325e-05,-1.55694e-05,-9.91642e-07,4.48926e-06,-2.01674e-06,1.0821e-05,-2.61327e-06,0
-2.96224e-05,1.57559e-05,-1.30185e-05,1.11784e-05,1.7172e-05,3.97109e-07,6.55544e-06,-1.62239e-06,0
-2.77652e-05,1.50045e-05,-8.03058e-06,1.33011e-05,2.2281e-05,-8.90296e-07,3.21758e-06,-2.3436e-07,0
-2.54696e-05,1.37366e-05,-3.21739e-06,1.34802e-05,2.68456e-05,-3.88637e-06,3.38743e-06,7.63934e-07,0
-2.35188e-05,1.33214e-05,-1.20205e-06,1.77743e-05,3.66018e-05,-7.95694e-06,4.17588e-06,9.63401e-07,0
-2.09564e-05,1.51144e-05,-4.35211e-07,2.22181e-05,4.85288e-05,-1.43015e-05,4.79806e-06,9.03694e-07,0
-1.96205e-05,1.78842e-05,2.5843e-07,2.85846e-05,5.67983e-05,-2.25735e-05,4.27267e-06,3.70677e-07,0
-2.00391e-05,1.82651e-05,8.38342e-07,3.49539e-05,5.80906e-05,-2.85691e-05,4.21495e-06,3.36452e-07,0
-2.15534e-05,1.69692e-05,2.37227e-06,3.46408e-05,5.31227e-05,-3.05242e-05,3.07999e-06,-2.43287e-07,0
-2.51233e-05,1.6403e-05,2.78374e-06,2.66131e-05,4.26464e-05,-3.18607e-05,3.01987e-07,-1.74338e-06,0
-2.82629e-05,1.68621e-05,-1.91338e-07,1.62658e-05,3.0715e-05,-3.04617e-05,-4.61848e-06,-1.86988e-06,0
-2.90049e-05,1.68406e-05,-3.59583e-06,8.52192e-06,2.35327e-05,-1.87565e-05,-1.13762e-05,-1.00051e-06,0
-3.011e-05,1.80861e-05,-4.00579e-06,2.8053e-06,1.97196e-05,-6.30203e-06,-1.61474e-05,-4.57975e-07,0
-3.21498e-05,2.45213e-05,-2.93154e-06,-4.42669e-06,1.48651e-05,-5.94474e-06,-1.62421e-05,-1.23438e-06,0
-3.33569e-05,3.44781e-05,-2.60057e-06,-1.1635e-05,7.01275e-06,-8.23456e-06,-1.09678e-05,-2.53521e-06,0
-3.36529e-05,3.99497e-05,-3.96485e-06,-1.2716e-05,-1.04846e-06,-4.36778e-06,-2.59201e-06,-3.91038e-06,0
-3.42612e-05,3.73621e-05,-5.05088e-06,-6.52373e-06,-6.5358e-06,-2.11687e-06,7.71912e-06,-4.52111e-06,0
-3.56051e-05,2.96509e-05,-4.00921e-06,4.26238e-06,-8.20137e-06,-8.34911e-06,1.76614e-05,-3.70021e-06,0
-3.57818e-05,2.13269e-05,-1.33219e-06,1.40161e-05,-6.35248e-06,-1.56955e-05,2.54573e-05,-1.63535e-06,0
-3.42915e-05,1.47234e-05,1.54439e-06,1.79914e-05,-2.47634e-06,-1.72749e-05,2.98336e-05,-9.22369e-07,0
-3.28617e-05,9.24595e-06,3.54352e-06,1.45052e-05,8.75112e-07,-1.33366e-05,3.13482e-05,-3.25468e-06,0
-3.04023e-05,4.28796e-06,4.61958e-06,5.67902e-06,1.88532e-06,-2.9811e-06,3.13234e-05,-6.04695e-06,0
-2.55537e-05,4.7969e-08,4.96709e-06,-4.88797e-06,2.85909e-06,1.48895e-05,2.96373e-05,-6.3754e-06,0
-2.35625e-05,-3.41169e-06,4.81876e-06,-1.18898e-05,1.05461e-05,2.95139e-05,2.64249e-05,-5.45979e-06,0
-2.78189e-05,-8.16755e-06,4.31612e-06,-1.52519e-05,2.7741e-05,2.87049e-05,2.36106e-05,-5.22733e-06,0
-3.34163e-05,-1.09819e-05,4.91305e-06,-2.13523e-05,4.32613e-05,1.79455e-05,2.25311e-05,-4.9079e-06,0
-3.38645e-05,-6.2358e-06,6.46488e-06,-3.23414e-05,4.51859e-05,7.20887e-06,2.17879e-05,-5.27843e-06,0
-2.96164e-05,2.60667e-06,5.87361e-06,-3.50148e-05,3.81199e-05,-9.78638e-07,1.90243e-05,-5.14973e-06,0
-2.44745e-05,7.11336e-06,2.81152e-06,-1.62401e-05,3.45453e-05,-1.68713e-05,1.44802e-05,-5.89953e-06,0
-2.05906e-05,7.56159e-06,-1.14397e-06,1.27332e-05,3.42077e-05,-4.01427e-05,1.00754e-05,-7.37972e-06,0
-1.87858e-05,7.66505e-06,-5.2844e-06,3.20822e-05,3.20863e-05,-4.10014e-05,8.04307e-06,-6.5927e-06,0
-2.00706e-05,7.14139e-06,-8.24864e-06,3.65604e-05,2.80337e-05,-1.31416e-05,8.62361e-06,-4.57433e-06,0
-2.32172e-05,5.60761e-06,-1.12896e-05,3.09099e-05,2.24013e-05,1.17595e-05,1.06267e-05,-3.73593e-06,0
-2.68137e-05,3.11258e-06,-1.5272e-05,1.87272e-05,1.7106e-05,1.35755e-05,1.34109e-05,-3.7546e-06,0
-2.96537e-05,-1.30664e-07,-2.02621e-05,1.85921e-06,1.30772e-05,1.58592e-06,1.60971e-05,-1.71099e-06,0
-3.10974e-05,-2.29829e-06,-2.36216e-05,-1.53241e-05,1.00522e-05,-7.46065e-06,1.72593e-05,-7.1904e-07,0
-3.26044e-05,-3.6314e-06,-2.43068e-05,-3.15359e-05,7.76907e-06,-7.28567e-06,1.64531e-05,-8.45845e-07,0
-3.26858e-05,-4.08145e-06,-2.40951e-05,-4.98266e-05,4.60579e-06,-2.21368e-06,1.54787e-05,1.24574e-06,0
-3.12586e-05,-1.9821e-06,-2.36151e-05,-6.89572e-05,1.23716e-06,1.98942e-07,1.42206e-05,3.67839e-06,0
-3.05018e-05,1.55381e-06,-2.27213e-05,-8.86996e-05,-1.01219e-06,-8.2369e-07,1.28415e-05,2.84638e-06,0
-3.15957e-05,4.16606e-06,-2.13162e-05,-0.000103955,-3.12333e-06,-2.54368e-06,1.27061e-05,-4.18544e-07,0
-3.24528e-05,4.69741e-06,-2.10635e-05,-0.000105615,-6.13453e-06,-3.98209e-06,1.43974e-05,-1.33193e-06,0
-3.24978e-05,4.56142e-06,-2.14129e-05,-8.98121e-05,-8.13251e-06,-5.32246e-06,1.73575e-05,8.89163e-07,0
-3.24667e-05,4.93139e-06,-2.15502e-05,-6.44804e-05,-8.55309e-06,-7.0506e-06,1.96996e-05,3.50739e-06,0
-3.29857e-05,5.90769e-06,-2.07594e-05,-4.05507e-05,-7.90492e-06,-9.70144e-06,1.91774e-05,3.81033e-06,0
-3.44208e-05,6.26216e-06,-1.90105e-05,-1.74021e-05,-5.31336e-06,-1.19247e-05,1.72955e-05,3.12444e-06,0
-3.56202e-05,6.53067e-06,-1.71431e-05,1.22105e-05,-9.31716e-07,-1.28458e-05,1.69129e-05,2.86487e-06,0
-3.53078e-05,7.93503e-06,-1.63193e-05,4.69326e-05,3.65263e-06,-1.30402e-05,1.80458e-05,1.36399e-06,0
-3.34908e-05,9.39846e-06,-1.58575e-05,7.46458e-05,6.01006e-06,-1.389e-05,1.90772e-05,-1.75077e-06,0
-3.07934e-05,1.01514e-05,-1.48391e-05,8.49809e-05,6.37503e-06,-1.47393e-05,1.86637e-05,-2.78808e-06,0
-2.86099e-05,1.14782e-05,-1.28965e-05,7.79179e-05,7.19896e-06,-1.36528e-05,1.60084e-05,-6.27887e-07,0
-3.01798e-05,1.48401e-05,-1.18855e-05,6.14221e-05,9.81941e-06,-1.13557e-05,1.27138e-05,1.03272e-06,0
-3.25969e-05,1.79159e-05,-1.2374e-05,4.31348e-05,1.25601e-05,-1.02491e-05,1.18633e-05,3.05029e-07,0
-3.20399e-05,1.78638e-05,-1.04306e-05,3.06942e-05,1.40648e-05,-1.09004e-05,1.36383e-05,-1.60549e-06,0
-2.93907e-05,1.5942e-05,-7.69957e-06,2.29784e-05,1.29392e-05,-1.16644e-05,1.56543e-05,-3.22491e-06,0
-2.71161e-05,1.52166e-05,-6.34039e-06,1.41153e-05,9.30331e-06,-1.30467e-05,1.64237e-05,-1.963e-06,0
-2.74713e-05,1.73197e-05,-6.76495e-06,4.5017e-06,5.40572e-06,-1.48801e-05,1.64709e-05,1.22125e-06,0
-2.93713e-05,1.9576e-05,-9.64858e-06,-3.57991e-06,3.57207e-06,-1.56011e-05,1.55452e-05,7.51274e-07,0
-3.10473e-05,2.15658e-05,-1.2549e-05,-9.20302e-06,5.15893e-06,-1.47309e-05,1.40507e-05,-1.73558e-06,0
-3.1828e-05,2.37508e-05,-1.4727e-05,-1.19961e-05,7.19229e-06,-1.30453e-05,1.36964e-05,-2.61474e-06,0
-3.15346e-05,2.48981e-05,-1.53971e-05,-1.1999e-05,6.90335e-06,-1.17124e-05,1.393e-05,-2.44645e-06,0
-3.0724e-05,2.56288e-05,-1.39003e-05,-1.00772e-05,6.44615e-06,-1.04312e-05,1.37956e-05,-1.90818e-06,0
-2.9517e-05,2.86228e-05,-1.2479e-05,-8.90356e-06,9.35531e-06,-8.90085e-06,1.24584e-05,-1.54081e-06,0
-2.90922e-05,3.26397e-05,-1.25502e-05,-9.93431e-06,1.31299e-05,-6.73381e-06,1.06695e-05,-1.62412e-06,0
-2.92477e-05,3.40852e-05,-1.40715e-05,-1.16938e-05,1.38845e-05,-4.68951e-06,1.10099e-05,-1.948e-06,0
-2.89148e-05,3.11489e-05,-1.47144e-05,-1.33291e-05,1.29823e-05,-4.23619e-06,1.27212e-05,-1.94391e-06,0
-2.95247e-05,2.48136e-05,-1.35053e-05,-1.39281e-05,1.24009e-05,-3.60324e-06,1.33926e-05,-1.00488e-06,0
-3.14549e-05,1.80092e-05,-1.16081e-05,-1.51458e-05,1.3042e-05,-3.62885e-06,1.2514e-05,-3.359e-07,0
-3.20148e-05,1.09222e-05,-1.00468e-05,-1.6762e-05,1.46764e-05,-5.573e-06,1.20305e-05,-1.95732e-07,0
-3.02248e-05,6.13507e-06,-9.31616e-06,-1.47101e-05,1.78326e-05,-6.9131e-06,1.17823e-05,1.77581e-06,0
-2.92019e-05,5.33189e-06,-8.72257e-06,-8.47548e-06,2.28396e-05,-6.29817e-06,1.16458e-05,4.90451e-06,0
-2.9433e-05,7.17238e-06,-8.90268e-06,-2.92134e-06,2.76651e-05,-5.96586e-06,1.23599e-05,5.25456e-06,0
-2.89121e-05,8.80293e-06,-1.07844e-05,-2.37236e-06,2.94877e-05,-7.13131e-06,1.36005e-05,3.71587e-06,0
-2.87564e-05,1.01431e-05,-1.34599e-05,-3.75698e-06,2.76911e-05,-8.95196e-06,1.40416e-05,3.82294e-06,0
-2.99821e-05,1.33065e-05,-1.49124e-05,-3.46946e-06,2.46034e-05,-1.08067e-05,1.41507e-05,6.09431e-06,0
-3.07954e-05,2.10628e-05,-1.464e-05,-2.88986e-06,2.17871e-05,-1.227e-05,1.4868e-05,8.51186e-06,0
-3.09206e-05,3.39203e-05,-1.29549e-05,-3.83472e-06,2.03168e-05,-1.30209e-05,1.54323e-05,8.53415e-06,0
-3.0663e-05,4.86682e-05,-9.88024e-06,-4.13417e-06,1.8964e-05,-1.33713e-05,1.44128e-05,6.35324e-06,0
-3.05633e-05,5.92175e-05,-6.98751e-06,-4.07633e-06,1.62394e-05,-1.48275e-05,1.18492e-05,4.02092e-06,0
-3.02783e-05,6.05312e-05,-5.2473e-06,-7.3926e-06,1.24474e-05,-1.83713e-05,1.12731e-05,3.66975e-06,0
-2.9408e-05,5.22439e-05,-4.42346e-06,-1.08292e-05,9.39184e-06,-2.24537e-05,1.23082e-05,3.31137e-06,0
-2.96392e-05,3.60735e-05,-4.76134e-06,-1.15723e-05,1.02834e-05,-2.34281e-05,1.44417e-05,1.90235e-06,0
-3.11366e-05,1.5655e-05,-3.99738e-06,-1.11792e-05,1.38241e-05,-2.22924e-05,1.64034e-05,7.02836e-07,0
-3.10586e-05,-1.79521e-06,-2.52832e-06,-8.1019e-06,1.59316e-05,-2.16553e-05,1.45134e-05,-3.09303e-07,0
-2.79439e-05,-1.33301e-05,-3.93907e-06,-4.28864e-06,1.47688e-05,-2.06513e-05,9.38166e-06,8.05518e-07,0
-2.65181e-05,-2.0118e-05,-5.9108e-06,-3.28237e-06,1.22012e-05,-2.11121e-05,5.93418e-06,2.4602e-06,0
-2.65037e-05,-2.11748e-05,-5.78099e-06,-2.84345e-06,1.1407e-05,-2.56539e-05,6.23207e-06,3.27978e-06,0
-2.62513e-05,-1.90909e-05,-4.33263e-06,-1.96004e-06,1.25996e-05,-2.824e-05,8.65525e-06,4.0469e-06,0
-2.78172e-05,-1.58973e-05,-3.04067e-06,-1.8531e-06,1.18904e-05,-2.60913e-05,1.12353e-05,5.04237e-06,0
-3.04516e-05,-1.18195e-05,-2.15495e-06,-3.07722e-06,1.01749e-05,-2.36684e-05,1.29638e-05,7.06049e-06,0
-3.22472e-05,-4.8587e-06,-1.42589e-06,-3.473e-06,8.7191e-06,-2.21943e-05,1.52101e-05,8.33759e-06,0
-3.17025e-05,2.65227e-06,-1.9012e-06,-1.55774e-06,7.02822e-06,-2.09791e-05,1.86354e-05,7.35899e-06,0
-3.05105e-05,6.3753e-06,-3.59953e-06,1.33921e-07,6.94803e-06,-2.00251e-05,2.20353e-05,5.36395e-06,0
-3.03638e-05,7.52075e-06,-6.65306e-06,9.21166e-08,9.29178e-06,-1.96405e-05,2.32508e-05,4.94195e-06,0
-3.08795e-05,9.90545e-06,-1.01499e-05,-5.717e-07,1.24209e-05,-2.13013e-05,2.25506e-05,4.92324e-06,0
-3.0833e-05,1.19943e-05,-1.16299e-05,-1.11454e-06,1.22108e-05,-2.56803e-05,2.16141e-05,3.86189e-06,0
-3.03604e-05,1.18064e-05,-1.16945e-05,-2.95845e-06,1.00579e-05,-3.14915e-05,2.12483e-05,4.12855e-06,0
-2.9323e-05,1.25442e-05,-1.0975e-05,-6.38631e-06,8.20313e-06,-3.74097e-05,2.09153e-05,5.70867e-06,0
-2.74295e-05,1.44519e-05,-9.06864e-06,-8.34219e-06,8.30027e-06,-3.56816e-05,2.03252e-05,4.91101e-06,0
-2.57595e-05,1.43859e-05,-7.10622e-06,-7.40827e-06,1.07799e-05,-1.75558e-05,1.97361e-05,1.79431e-06,0
-2.53957e-05,1.25732e-05,-7.51057e-06,-5.52105e-06,1.372e-05,7.78166e-06,1.88535e-05,6.30191e-07,0
-2.62368e-05,1.15008e-05,-1.06463e-05,-1.55552e-06,1.3808e-05,1.80526e-05,1.76134e-05,1.96836e-06,0
-2.60896e-05,9.70915e-06,-1.23523e-05,5.57068e-06,1.04459e-05,8.64447e-06,1.57398e-05,4.30469e-06,0
-2.44659e-05,7.5128e-06,-9.96508e-06,1.16114e-05,6.79539e-06,-3.6158e-06,1.3088e-05,7.21714e-06,0
-2.27719e-05,6.12866e-06,-6.41466e-06,1.21712e-05,5.40868e-06,-7.51672e-06,1.10638e-05,8.20407e-06,0
-2.08398e-05,7.32303e-06,-5.25804e-06,7.44222e-06,6.74794e-06,-5.56379e-06,1.07078e-05,5.88566e-06,0
-1.98168e-05,1.23239e-05,-5.7715e-06,-2.35329e-07,9.41727e-06,-2.08054e-06,1.13289e-05,3.45525e-06,0
-2.27345e-05,1.8824e-05,-5.48783e-06,-1.11476e-05,1.10404e-05,-2.85026e-08,1.06474e-05,1.96657e-06,0
-2.73725e-05,2.13293e-05,-3.196e-06,-2.34023e-05,1.03604e-05,-1.01915e-06,9.47206e-06,8.57804e-07,0
-3.06962e-05,1.96411e-05,-6.65241e-07,-3.1278e-05,9.46063e-06,-3.91977e-06,9.22653e-06,1.3714e-07,0
-3.23846e-05,1.78814e-05,-5.02197e-07,-2.9319e-05,8.68892e-06,-6.13776e-06,7.36311e-06,-3.6918e-07,0
-3.37562e-05,1.69821e-05,-1.18105e-06,-2.12353e-05,6.97208e-06,-7.49786e-06,6.73534e-06,2.03891e-07,0
-3.37549e-05,1.77025e-05,-2.34999e-06,-1.5903e-05,6.71375e-06,-6.83708e-06,8.23286e-06,2.76637e-07,0
-3.06152e-05,2.03884e-05,-5.8634e-06,-1.30977e-05,9.24085e-06,-5.22202e-06,9.44893e-06,-1.3814e-07,0
-2.90881e-05,2.45734e-05,-9.78809e-06,-1.05058e-05,1.18036e-05,-4.41433e-06,9.68744e-06,1.19672e-06,0
-2.90024e-05,2.74316e-05,-1.1177e-05,-7.99856e-06,1.33615e-05,-3.79775e-06,8.75386e-06,1.78289e-06,0
-2.89121e-05,2.86382e-05,-9.75458e-06,-5.6348e-06,1.37723e-05,-3.74124e-06,7.24975e-06,5.63319e-07,0
-3.0145e-05,2.95837e-05,-8.34382e-06,-3.81686e-06,1.33888e-05,-3.1546e-06,5.97076e-06,-3.91687e-07,0
-3.20368e-05,3.1871e-05,-7.69255e-06,-4.84144e-06,1.11245e-05,-3.50968e-06,5.74084e-06,-1.07692e-06,0
-3.25793e-05,3.65553e-05,-7.54414e-06,-6.63604e-06,8.37059e-06,-4.21745e-06,5.16354e-06,-2.92708e-07,0
-3.29226e-05,3.99456e-05,-7.24377e-06,-7.66435e-06,7.46322e-06,-4.69352e-06,3.31884e-06,7.80358e-07,0
-3.43111e-05,4.09391e-05,-5.79219e-06,-1.07122e-05,8.09573e-06,-5.18347e-06,1.51074e-06,1.05551e-06,0
-3.4742e-05,4.12666e-05,-2.99959e-06,-1.47426e-05,9.77842e-06,-5.45138e-06,1.05398e-06,9.19879e-07,0
-3.34175e-05,4.13201e-05,-6.6378e-08,-1.57535e-05,1.25441e-05,-4.99955e-06,1.35765e-06,-4.23793e-08,0
-3.1126e-05,3.99242e-05,8.93509e-07,-1.42506e-05,1.44753e-05,-4.18096e-06,3.85057e-06,-1.21223e-06,0
-3.01019e-05,3.53148e-05,-6.61281e-07,-1.32967e-05,1.47741e-05,-3.66267e-06,8.79993e-06,-1.9607e-06,0
-2.96923e-05,2.82122e-05,-3.76679e-06,-1.14896e-05,1.5236e-05,-2.99444e-06,1.42128e-05,-1.49716e-06,0
-2.86857e-05,2.15496e-05,-4.99824e-06,-7.84262e-06,1.52727e-05,-2.73955e-06,1.79899e-05,-1.48625e-07,0
-2.7603e-05,1.53402e-05,-3.17605e-06,-4.11748e-06,1.4826e-05,-3.22441e-06,1.95099e-05,1.64839e-06,0
-2.88344e-05,7.77464e-06,-7.6892e-07,-3.25061e-06,1.60543e-05,-3.8993e-06,1.84476e-05,2.23291e-06,0
-3.25575e-05,7.44842e-07,-2.99641e-07,-4.19338e-06,1.84604e-05,-4.78754e-06,1.50852e-05,9.44869e-07,0
-3.79071e-05,-1.98557e-06,-1.9248e-06,-7.10268e-06,1.83678e-05,-6.73939e-06,1.08726e-05,-9.75877e-07,0
-4.15546e-05,-5.72409e-07,-4.65018e-06,-1.20328e-05,1.67107e-05,-8.54742e-06,7.94896e-06,-2.52716e-06,0
-4.08377e-05,1.59089e-06,-7.23225e-06,-1.40194e-05,1.43979e-05,-8.57623e-06,6.67878e-06,-3.47671e-06,0
-3.87865e-05,4.14978e-06,-9.36641e-06,-1.01024e-05,1.25081e-05,-7.08267e-06,3.4522e-06,-3.57617e-06,0
-3.7268e-05,7.51274e-06,-9.58267e-06,1.12036e-06,1.3091e-05,-5.97663e-06,2.94185e-07,-3.63057e-06,0
-3.46364e-05,1.44778e-05,-7.20242e-06,2.69289e-05,1.53125e-05,-5.24929e-06,2.00666e-07,-3.47063e-06,0
-3.27349e-05,2.73104e-05,-5.83427e-06,5.16632e-05,1.61098e-05,-5.42546e-06,1.62883e-06,-1.55451e-06,0
-3.30355e-05,3.86319e-05,-6.06703e-06,5.22245e-05,1.39094e-05,-6.25396e-06,2.85224e-06,8.21176e-07,0
-3.31885e-05,3.99215e-05,-6.13682e-06,3.31793e-05,1.3098e-05,-6.29264e-06,3.67899e-06,1.53291e-06,0
-3.23204e-05,3.21008e-05,-6.47857e-06,8.85114e-06,1.4109e-05,-5.70066e-06,3.79774e-06,1.10587e-06,0
-3.09659e-05,1.77727e-05,-6.55703e-06,-6.15583e-06,1.39132e-05,-7.28545e-06,2.63182e-06,1.55854e-06,0
-3.07268e-05,9.5862e-07,-4.83107e-06,-1.41476e-05,1.30973e-05,-9.87011e-06,1.24587e-06,3.19835e-06,0
-3.05096e-05,-1.20782e-05,-1.95711e-06,-2.325e-05,1.38186e-05,-9.34926e-06,9.87548e-08,5.36857e-06,0
-3.07441e-05,-1.83311e-05,-9.65771e-07,-3.41248e-05,1.61021e-05,-8.84984e-06,-8.64452e-07,5.99541e-06,0
-3.18345e-05,-1.83002e-05,-3.23411e-06,-3.97045e-05,1.70452e-05,-1.02304e-05,-2.68329e-07,4.80596e-06,0
-3.24003e-05,-1.60736e-05,-6.17857e-06,-3.2795e-05,1.68626e-05,-1.13539e-05,3.49544e-06,4.71652e-06,0
-3.23938e-05,-1.32443e-05,-6.78113e-06,-1.82993e-05,1.66099e-05,-1.10141e-05,9.05448e-06,6.92869e-06,0
-3.17851e-05,-1.05525e-05,-6.24602e-06,-3.40842e-06,1.67684e-05,-9.70886e-06,1.38198e-05,9.28207e-06,0
-3.11991e-05,-7.48881e-06,-6.09419e-06,1.19342e-05,1.72429e-05,-9.04807e-06,1.64656e-05,9.04123e-06,0
-3.17691e-05,-2.85949e-06,-7.14593e-06,2.55348e-05,1.721e-05,-9.61326e-06,1.65542e-05,7.39204e-06,0
-3.27505e-05,2.81668e-06,-8.85604e-06,3.10844e-05,1.54491e-05,-1.10152e-05,1.57271e-05,6.19324e-06,0
-3.30339e-05,5.85728e-06,-9.25122e-06,2.82832e-05,1.21713e-05,-1.36312e-05,1.51706e-05,5.00663e-06,0
-3.16163e-05,7.70148e-06,-8.04217e-06,1.91099e-05,9.29099e-06,-1.66547e-05,1.52494e-05,3.06598e-06,0
-2.942e-05,1.51469e-05,-6.51888e-06,7.49198e-06,8.27102e-06,-1.78738e-05,1.65181e-05,-1.18233e-08,0
-2.89233e-05,2.6833e-05,-5.8038e-06,-2.63273e-06,9.3636e-06,-1.74031e-05,1.85763e-05,-3.17538e-06,0
-2.97783e-05,3.44637e-05,-6.41965e-06,-9.87408e-06,1.03094e-05,-1.61896e-05,1.97907e-05,-4.02753e-06,0
-3.02242e-05,3.31594e-05,-7.96294e-06,-1.43521e-05,1.09704e-05,-1.41418e-05,1.91583e-05,-3.4286e-06,0
-2.97381e-05,2.67563e-05,-8.39789e-06,-1.5795e-05,1.30875e-05,-1.29595e-05,1.79055e-05,-3.25383e-06,0
-3.0318e-05,1.94585e-05,-7.87346e-06,-1.70804e-05,1.54145e-05,-1.46888e-05,1.71432e-05,-3.09861e-06,0
-3.21762e-05,1.17186e-05,-7.82235e-06,-1.93852e-05,1.49645e-05,-1.65799e-05,1.68216e-05,-2.89075e-06,0
-3.19376e-05,5.24248e-06,-8.5789e-06,-2.20758e-05,1.18739e-05,-1.62092e-05,1.57543e-05,-2.31153e-06,0
-2.93205e-05,4.26429e-06,-8.84937e-06,-2.3273e-05,1.00036e-05,-1.43991e-05,1.4603e-05,-1.63083e-06,0
-2.75804e-05,9.66632e-06,-7.83362e-06,-1.61034e-05,1.18993e-05,-9.76236e-06,1.52811e-05,-1.41948e-06,0
-2.78774e-05,1.6304e-05,-4.04621e-06,1.73003e-06,1.41183e-05,-6.12997e-06,1.5707e-05,-2.10322e-06,0
-2.83894e-05,2.00339e-05,-1.55596e-06,1.92994e-05,1.55799e-05,-6.58516e-06,1.37527e-05,-2.2285e-06,0
-3.00256e-05,1.96443e-05,-1.97673e-06,2.56337e-05,1.73298e-05,-6.89375e-06,1.20663e-05,-1.94167e-07,0
-3.24062e-05,1.4895e-05,-2.10374e-06,1.81878e-05,1.69811e-05,-6.03578e-06,1.12418e-05,1.92516e-06,0
-3.33729e-05,6.64119e-06,-3.00099e-06,-3.0446e-07,1.51349e-05,-5.50691e-06,1.01287e-05,1.04085e-06,0
-3.25614e-05,-8.27887e-06,-4.17076e-06,-2.00671e-05,1.41185e-05,-5.69644e-06,9.47411e-06,-1.01301e-06,0
-2.87727e-05,-2.82857e-05,-5.57822e-06,-3.2969e-05,1.54468e-05,-6.29196e-06,8.68505e-06,-6.1143e-07,0
-2.65876e-05,-4.36021e-05,-6.86318e-06,-3.78272e-05,1.84346e-05,-7.17233e-06,8.26947e-06,1.6555e-06,0
-2.66018e-05,-4.45951e-05,-6.57269e-06,-3.8139e-05,1.91284e-05,-7.91505e-06,9.15467e-06,1.44167e-06,0
-2.6637e-05,-3.48078e-05,-4.79733e-06,-3.79137e-05,1.72724e-05,-8.5211e-06,6.84685e-06,-2.84008e-07,0
-2.68187e-05,-2.48815e-05,-2.61468e-06,-4.03976e-05,1.55381e-05,-8.21661e-06,-2.63074e-06,1.0381e-07,0
-2.73421e-05,-1.88105e-05,-1.04467e-06,-4.28374e-05,1.38653e-05,-8.34192e-06,-1.34479e-05,1.66509e-06,0
-2.82152e-05,-1.43469e-05,-1.78783e-06,-3.3496e-05,1.17476e-05,-1.01824e-05,-1.83605e-05,2.33313e-06,0
-2.80616e-05,-1.07919e-05,-5.45272e-06,-7.87261e-06,1.12459e-05,-1.27196e-05,-1.52429e-05,2.05951e-06,0
-2.7748e-05,-9.87066e-06,-9.87465e-06,1.85347e-05,1.24447e-05,-1.41588e-05,-5.94301e-06,2.25754e-06,0
-2.82072e-05,-1.01539e-05,-1.29022e-05,2.83409e-05,1.23845e-05,-1.43115e-05,6.00627e-06,2.27477e-06,0
-2.95298e-05,-9.91204e-06,-1.42319e-05,2.08917e-05,1.11139e-05,-1.42391e-05,1.67158e-05,2.30793e-06,0
-2.95867e-05,-9.09121e-06,-1.39489e-05,6.0407e-06,1.10126e-05,-1.33851e-05,2.453e-05,2.84154e-06,0
-2.78448e-05,-9.87558e-06,-1.17938e-05,-6.69723e-06,1.2062e-05,-1.20602e-05,3.08268e-05,3.79274e-06,0
-2.58482e-05,-1.10249e-05,-9.29255e-06,-1.29188e-05,1.18936e-05,-1.08901e-05,3.58736e-05,4.02372e-06,0
-2.61478e-05,-1.1091e-05,-8.01957e-06,-1.52654e-05,1.10059e-05,-1.01834e-05,3.9101e-05,4.54003e-06,0
-2.8369e-05,-9.8764e-06,-8.08481e-06,-1.76136e-05,9.9935e-06,-1.02532e-05,4.02731e-05,5.83652e-06,0
-3.02581e-05,-8.22294e-06,-9.23325e-06,-2.07393e-05,8.67006e-06,-1.09782e-05,3.94814e-05,6.0174e-06,0
-3.06885e-05,-6.75451e-06,-1.20477e-05,-2.38094e-05,8.75939e-06,-1.15929e-05,3.6109e-05,4.50227e-06,0
-3.09414e-05,-4.90676e-06,-1.74868e-05,-2.71978e-05,8.71939e-06,-1.25623e-05,3.21839e-05,3.43203e-06,0
-3.1736e-05,-1.71216e-06,-2.37005e-05,-3.09162e-05,8.72875e-06,-1.35063e-05,2.95741e-05,4.93419e-06,0
-3.0896e-05,1.55701e-06,-2.82639e-05,-3.05101e-05,9.71301e-06,-1.39388e-05,2.7571e-05,7.60668e-06,0
-2.87278e-05,4.70689e-06,-2.62599e-05,-2.29621e-05,1.14666e-05,-1.44555e-05,2.4821e-05,8.11693e-06,0
-2.74041e-05,6.62382e-06,-1.99166e-05,-1.41553e-05,1.52323e-05,-1.51985e-05,2.01366e-05,6.69616e-06,0
-2.83652e-05,8.73919e-06,-1.49007e-05,-9.51801e-06,1.90241e-05,-1.57775e-05,1.57961e-05,7.24795e-06,0
-2.88287e-05,1.17812e-05,-1.20272e-05,-4.94821e-06,1.98903e-05,-1.65833e-05,1.38247e-05,8.85532e-06,0
-2.92683e-05,1.2467e-05,-1.18129e-05,4.87712e-06,1.72417e-05,-1.69418e-05,1.1355e-05,9.28642e-06,0
-2.99832e-05,1.24072e-05,-1.16012e-05,1.73817e-05,1.51589e-05,-1.67129e-05,4.66647e-06,6.63977e-06,0
-2.93559e-05,1.26138e-05,-1.07831e-05,2.47244e-05,1.55051e-05,-1.60116e-05,-4.5691e-06,1.28915e-06,0
-3.00193e-05,1.31867e-05,-9.96426e-06,2.34812e-05,1.63765e-05,-1.40984e-05,-1.05191e-05,-1.96356e-06,0
-3.22273e-05,1.40494e-05,-9.39286e-06,1.46847e-05,1.38877e-05,-1.22969e-05,-1.01045e-05,-2.93013e-06,0
-3.42475e-05,1.68216e-05,-8.2402e-06,5.36163e-06,9.14802e-06,-1.16601e-05,-4.80249e-06,-4.19416e-06,0
-3.39142e-05,2.09485e-05,-7.15292e-06,6.89422e-08,7.3445e-06,-1.14228e-05,1.78511e-06,-4.77868e-06,0
-3.17622e-05,2.36472e-05,-5.78659e-06,-3.72402e-06,8.18459e-06,-1.0779e-05,9.88307e-06,-4.0177e-06,0
-2.99469e-05,2.45009e-05,-4.57006e-06,-7.53069e-06,1.00403e-05,-9.75569e-06,1.89475e-05,-2.90757e-06,0
-3.04467e-05,2.59393e-05,-4.42447e-06,-1.05518e-05,1.08375e-05,-8.73439e-06,2.64697e-05,-1.79579e-06,0
-3.21581e-05,2.81477e-05,-4.52991e-06,-1.00912e-05,1.00738e-05,-7.6409e-06,3.26029e-05,-4.15861e-07,0
-3.24457e-05,3.00596e-05,-3.92478e-06,-4.72305e-06,9.02898e-06,-6.53078e-06,3.65948e-05,-2.08601e-07,0
-3.14886e-05,3.04592e-05,-2.71765e-06,3.43382e-06,9.643e-06,-6.70909e-06,3.67094e-05,-1.52024e-06,0
-3.01525e-05,2.94529e-05,-2.69317e-06,9.05414e-06,1.21366e-05,-7.58937e-06,3.41067e-05,-2.90831e-06,0
-2.94968e-05,2.84861e-05,-3.97892e-06,1.05503e-05,1.50458e-05,-7.66704e-06,3.21054e-05,-3.42992e-06,0
-2.98545e-05,2.69666e-05,-6.29839e-06,1.15301e-05,1.71021e-05,-6.59734e-06,3.14705e-05,-4.04877e-06,0
-3.07652e-05,2.43198e-05,-8.34908e-06,1.33234e-05,1.81487e-05,-5.19165e-06,3.04819e-05,-6.77008e-06,0
-3.13734e-05,2.11539e-05,-9.27674e-06,1.36009e-05,1.85382e-05,-4.66968e-06,2.75029e-05,-1.01207e-05,0
-3.24322e-05,1.9535e-05,-1.00589e-05,1.10729e-05,1.91247e-05,-5.36367e-06,2.38935e-05,-9.61443e-06,0
-3.36235e-05,2.109e-05,-1.1354e-05,9.15223e-06,2.08149e-05,-5.06101e-06,2.05474e-05,-7.04195e-06,0
-3.33594e-05,2.33793e-05,-1.12905e-05,1.21675e-05,2.28054e-05,-3.61917e-06,1.73506e-05,-7.73835e-06,0
-3.10525e-05,2.35972e-05,-1.09083e-05,1.79908e-05,2.28547e-05,-3.4473e-06,1.53007e-05,-8.90847e-06,0
-2.96262e-05,2.59015e-05,-1.06419e-05,1.99607e-05,1.97678e-05,-5.22738e-06,1.49721e-05,-7.51693e-06,0
-2.97726e-05,2.93534e-05,-1.15698e-05,1.46548e-05,1.41927e-05,-7.36798e-06,1.49192e-05,-5.00656e-06,0
-3.00426e-05,3.16409e-05,-1.37939e-05,5.61407e-06,8.93273e-06,-7.63169e-06,1.41869e-05,-3.65377e-06,0
-3.09148e-05,3.24706e-05,-1.6008e-05,-1.9293e-06,7.53554e-06,-7.97441e-06,1.18652e-05,-4.483e-06,0
-2.95629e-05,3.27616e-05,-1.77604e-05,-3.90862e-06,6.70907e-06,-8.46813e-06,8.9387e-06,-5.60588e-06,0
-2.74046e-05,3.28778e-05,-1.77047e-05,-4.49308e-06,4.33919e-06,-7.97563e-06,6.87542e-06,-3.89106e-06,0
-2.74806e-05,3.09178e-05,-1.61289e-05,-9.089e-06,2.03475e-06,-7.69505e-06,6.2022e-06,-5.76087e-07,0
-2.89348e-05,2.96512e-05,-1.34895e-05,-1.15451e-05,-8.81415e-07,-7.92227e-06,6.05775e-06,2.89181e-07,0
-3.11606e-05,2.93696e-05,-1.11997e-05,-6.32977e-06,-4.13215e-06,-9.82857e-06,5.42411e-06,-1.73123e-06,0
-3.20953e-05,2.70946e-05,-9.3418e-06,1.17597e-06,-4.72089e-06,-1.19087e-05,5.0441e-06,-3.10798e-06,0
-3.04806e-05,2.20157e-05,-8.46669e-06,3.27496e-06,1.17293e-06,-1.20623e-05,5.00553e-06,-1.93539e-06,0
-2.79349e-05,1.85366e-05,-8.70773e-06,2.38969e-06,1.16021e-05,-1.12449e-05,5.80782e-06,-5.80477e-07,0
-2.67118e-05,1.82624e-05,-8.85918e-06,1.03486e-05,1.98597e-05,-1.01473e-05,6.66592e-06,-1.09541e-06,0
-2.64459e-05,1.83565e-05,-7.6871e-06,3.00934e-05,2.19824e-05,-8.38889e-06,7.06388e-06,-2.23122e-06,0
-2.6617e-05,1.80226e-05,-7.05147e-06,4.46944e-05,2.04803e-05,-7.09825e-06,6.84112e-06,-2.11115e-06,0
-2.7252e-05,1.83098e-05,-7.53241e-06,4.0224e-05,1.79028e-05,-7.12667e-06,6.68826e-06,-2.03328e-06,0
-2.76796e-05,1.87801e-05,-7.34175e-06,2.21514e-05,1.43629e-05,-7.3002e-06,6.96472e-06,-3.10509e-06,0
-2.83182e-05,1.92244e-05,-7.11384e-06,1.37835e-06,1.10032e-05,-7.04487e-06,7.07101e-06,-3.67775e-06,0
-2.99335e-05,1.89156e-05,-7.75563e-06,-1.98569e-05,9.26608e-06,-7.55307e-06,7.24385e-06,-2.84958e-06,0
-3.12309e-05,1.6961e-05,-8.62849e-06,-3.90356e-05,9.40898e-06,-9.08354e-06,8.76185e-06,-1.764e-06,0
-3.20052e-05,1.48847e-05,-8.69706e-06,-4.85709e-05,1.01222e-05,-1.00522e-05,1.02512e-05,-1.27489e-06,0
-3.3477e-05,1.5279e-05,-7.97804e-06,-4.76385e-05,1.07538e-05,-9.28361e-06,1.10368e-05,-1.84514e-06,0
-3.41307e-05,1.8295e-05,-6.8741e-06,-4.69333e-05,1.16475e-05,-8.37276e-06,1.2201e-05,-2.6597e-06,0
-3.26761e-05,2.1609e-05,-5.83153e-06,-5.24183e-05,1.29242e-05,-8.67917e-06,1.3205e-05,-2.11579e-06,0
-3.03651e-05,2.58992e-05,-5.44539e-06,-5.70083e-05,1.46849e-05,-8.16667e-06,1.35815e-05,-2.97117e-07,0
-2.88494e-05,2.92076e-05,-5.67263e-06,-4.94948e-05,1.77667e-05,-7.00552e-06,1.30621e-05,1.43513e-06,0
-2.87346e-05,2.9358e-05,-6.32946e-06,-3.09036e-05,2.1986e-05,-6.48877e-06,1.19235e-05,2.90845e-06,0
-2.96584e-05,2.84027e-05,-8.35437e-06,-7.40709e-06,2.50837e-05,-8.08936e-06,1.05175e-05,2.02366e-06,0
-2.97553e-05,2.91229e-05,-8.73311e-06,1.46202e-05,2.36797e-05,-1.02206e-05,9.13058e-06,-1.80289e-07,0
-2.94149e-05,2.87817e-05,-6.89857e-06,2.61659e-05,2.0794e-05,-9.5939e-06,6.99338e-06,1.00405e-06,0
-2.87614e-05,2.62856e-05,-5.80659e-06,2.53286e-05,1.96904e-05,-8.05996e-06,4.89847e-06,2.99578e-06,0
-2.78588e-05,2.53048e-05,-4.19987e-06,1.4819e-05,1.88225e-05,-8.35699e-06,3.99345e-06,2.23396e-06,0
-2.67977e-05,2.57326e-05,-2.3072e-06,5.73253e-06,1.67066e-05,-1.01912e-05,4.18459e-06,2.79759e-07,0
-2.56014e-05,2.71509e-05,-3.32035e-06,-3.03936e-07,1.32178e-05,-1.1901e-05,4.5231e-06,-1.08475e-07,0
-2.55625e-05,2.73621e-05,-6.28956e-06,-4.48617e-06,1.18809e-05,-1.24525e-05,4.80623e-06,9.81819e-07,0
-2.60751e-05,2.60575e-05,-8.81097e-06,-5.69826e-06,1.26638e-05,-1.29881e-05,4.9931e-06,1.81967e-06,0
-2.69244e-05,2.56091e-05,-9.5951e-06,-5.38994e-06,1.30917e-05,-1.39281e-05,5.45654e-06,1.85577e-06,0
-2.84104e-05,2.46501e-05,-8.84876e-06,-3.21558e-06,1.23194e-05,-1.47053e-05,7.15411e-06,8.63793e-08,0
-3.08663e-05,2.20777e-05,-7.656e-06,1.04907e-06,1.04082e-05,-1.51927e-05,9.10274e-06,-1.05056e-06,0
-3.21796e-05,1.96392e-05,-7.10391e-06,5.97153e-06,8.77728e-06,-1.52044e-05,1.09503e-05,3.38633e-07,0
-3.04653e-05,1.89171e-05,-7.17005e-06,5.95927e-06,9.49778e-06,-1.41036e-05,1.2018e-05,1.71463e-06,0
-2.82522e-05,1.98165e-05,-7.22556e-06,1.01527e-07,1.33815e-05,-1.24692e-05,1.24846e-05,2.14149e-06,0
-2.84047e-05,2.03824e-05,-8.16904e-06,-6.6421e-06,1.79559e-05,-1.19601e-05,1.24713e-05,2.95643e-06,0
-2.98176e-05,1.93459e-05,-9.71709e-06,-9.47857e-06,2.04883e-05,-1.19841e-05,1.14766e-05,4.41005e-06,0
-3.01861e-05,1.71171e-05,-1.05839e-05,-1.12306e-05,2.00744e-05,-1.14537e-05,8.80769e-06,6.47181e-06,0
-3.0446e-05,1.4248e-05,-9.43691e-06,-1.33533e-05,1.69582e-05,-1.12529e-05,5.20135e-06,9.52961e-06,0
-3.17338e-05,1.17135e-05,-7.56837e-06,-1.59134e-05,1.30432e-05,-1.23339e-05,2.80033e-06,1.19752e-05,0
-3.23957e-05,1.04496e-05,-5.93268e-06,-1.73182e-05,1.03721e-05,-1.27899e-05,2.67875e-06,1.29864e-05,0
-3.09278e-05,1.00175e-05,-4.33192e-06,-1.57922e-05,9.08954e-06,-1.23145e-05,5.30143e-06,1.25444e-05,0
-2.86483e-05,1.05117e-05,-2.98252e-06,-1.25523e-05,8.79175e-06,-1.22284e-05,9.60877e-06,1.10617e-05,0
-2.74856e-05,1.2606e-05,-3.01643e-06,-9.34964e-06,8.49895e-06,-1.25002e-05,1.40661e-05,9.38425e-06,0
-2.80393e-05,1.45412e-05,-3.87762e-06,-6.36206e-06,8.7713e-06,-1.28578e-05,1.75833e-05,9.09304e-06,0
-2.947e-05,1.49035e-05,-4.50496e-06,-2.94775e-06,1.17249e-05,-1.30496e-05,2.00343e-05,9.19707e-06,0
-3.03454e-05,1.40726e-05,-7.08106e-06,-9.7656e-08,1.54988e-05,-1.19387e-05,2.29046e-05,9.10852e-06,0
-3.01353e-05,1.21785e-05,-1.06648e-05,1.20486e-06,1.76453e-05,-1.2277e-05,2.69539e-05,9.87299e-06,0
-3.05001e-05,1.03907e-05,-1.11126e-05,-8.23924e-07,1.8304e-05,-1.34974e-05,2.84777e-05,9.40617e-06,0
-3.17483e-05,1.01764e-05,-9.10081e-06,-3.56319e-06,1.54887e-05,-1.32183e-05,2.74831e-05,8.85907e-06,0
-3.08316e-05,1.17474e-05,-7.25286e-06,-5.25775e-06,1.10035e-05,-1.25723e-05,2.56298e-05,8.46613e-06,0
-2.90175e-05,1.42993e-05,-6.78459e-06,-7.0227e-06,8.00279e-06,-9.55199e-06,2.36094e-05,6.70723e-06,0
-2.85834e-05,1.46165e-05,-8.07334e-06,-9.55486e-06,4.80644e-06,-6.96232e-06,2.22321e-05,5.32591e-06,0
-2.8419e-05,1.21967e-05,-9.70748e-06,-1.12259e-05,2.75246e-06,-7.85757e-06,2.00146e-05,4.16636e-06,0
-2.71466e-05,1.05372e-05,-1.03987e-05,-9.81204e-06,2.46284e-06,-9.79296e-06,1.701e-05,2.0892e-06,0
-2.58471e-05,1.03522e-05,-9.50561e-06,-7.46972e-06,3.28445e-06,-1.02386e-05,1.48648e-05,1.08515e-06,0
-2.67422e-05,1.01287e-05,-8.11929e-06,-5.84565e-06,5.20831e-06,-1.0123e-05,1.54023e-05,1.97353e-06,0
-2.82414e-05,1.0834e-05,-7.5408e-06,-4.6937e-06,7.52962e-06,-1.06222e-05,1.5953e-05,2.51529e-06,0
-2.97715e-05,1.3994e-05,-9.34399e-06,-2.8494e-06,9.82439e-06,-1.09758e-05,1.52799e-05,1.86968e-06,0
-3.0279e-05,1.72055e-05,-1.18924e-05,-2.1401e-06,1.15099e-05,-1.12454e-05,1.446e-05,4.77451e-07,0
-2.95524e-05,1.83589e-05,-1.27041e-05,-1.19204e-06,1.38208e-05,-1.04797e-05,1.43893e-05,-1.24993e-06,0
-2.99153e-05,1.84015e-05,-1.3201e-05,2.17232e-06,1.89193e-05,-7.8221e-06,1.50203e-05,-2.88864e-06,0
-3.1279e-05,1.8297e-05,-1.32081e-05,3.83373e-06,2.45553e-05,-5.65781e-06,1.56789e-05,-3.70665e-06,0
-3.25917e-05,1.79596e-05,-1.2363e-05,3.10926e-06,2.45863e-05,-6.59839e-06,1.58735e-05,-3.05972e-06,0
-3.32077e-05,1.69356e-05,-1.15995e-05,5.27514e-06,1.83937e-05,-9.12253e-06,1.50815e-05,-8.3221e-07,0
-3.35005e-05,1.54389e-05,-1.10894e-05,1.37436e-05,1.0995e-05,-1.05492e-05,1.3877e-05,4.00314e-07,0
-3.32731e-05,1.38869e-05,-1.05261e-05,2.58498e-05,6.24543e-06,-9.75613e-06,1.31611e-05,8.35259e-09,0
-3.25484e-05,1.30809e-05,-1.02379e-05,3.65479e-05,4.09507e-06,-7.52811e-06,1.28731e-05,1.00802e-07,0
-3.15564e-05,1.20469e-05,-1.02122e-05,3.86605e-05,2.30256e-06,-5.29757e-06,1.1374e-05,3.96191e-07,0
-3.03165e-05,8.59629e-06,-1.01345e-05,2.71067e-05,9.24433e-07,-3.75045e-06,9.19426e-06,2.94457e-07,0
-2.94683e-05,3.51864e-06,-1.03773e-05,5.84348e-06,5.47304e-07,-4.17453e-06,7.66877e-06,4.41176e-07,0
-2.97708e-05,-2.18744e-06,-1.05283e-05,-1.37993e-05,6.45147e-07,-5.60859e-06,8.25373e-06,6.92806e-07,0
-3.12718e-05,-7.5755e-06,-9.99401e-06,-2.8774e-05,4.03114e-06,-6.52197e-06,1.00187e-05,-9.4211e-07,0
-3.23753e-05,-9.93064e-06,-9.82756e-06,-4.28158e-05,1.19245e-05,-6.1198e-06,1.36807e-05,-1.96039e-06,0
-3.29588e-05,-6.60372e-06,-8.73465e-06,-5.33027e-05,2.2474e-05,-4.31723e-06,1.81576e-05,-5.25681e-07,0
-3.35457e-05,-1.34119e-06,-5.09234e-06,-4.92258e-05,3.04214e-05,-3.82775e-06,1.91061e-05,1.26584e-06,0
-3.24347e-05,1.41109e-06,-1.9416e-06,-3.47891e-05,3.1294e-05,-3.14622e-06,1.70673e-05,3.41145e-06,0
-3.02875e-05,2.23776e-06,-1.62906e-06,-2.62101e-05,2.70909e-05,-2.20151e-06,1.39951e-05,5.50734e-06,0
-2.86224e-05,2.10776e-06,-2.2133e-06,-2.7882e-05,2.04179e-05,-2.12546e-06,1.0246e-05,6.8819e-06,0
-2.96631e-05,4.23764e-06,-3.8955e-06,-3.37123e-05,1.35711e-05,-1.28079e-06,7.55588e-06,6.84377e-06,0
-3.36957e-05,7.24003e-06,-7.69872e-06,-3.48295e-05,8.51146e-06,-8.65098e-07,6.82967e-06,5.90201e-06,0
-3.57101e-05,7.98104e-06,-1.101e-05,-2.92105e-05,7.53563e-06,-3.48672e-07,7.30171e-06,5.42551e-06,0
-3.42352e-05,6.61305e-06,-1.39185e-05,-1.33777e-05,9.15679e-06,1.02559e-06,7.60667e-06,3.62079e-06,0
-3.26033e-05,5.24956e-06,-1.6716e-05,7.13214e-06,1.01849e-05,1.25706e-06,6.30669e-06,4.09092e-07,0
-3.31296e-05,5.86052e-06,-1.82838e-05,2.09852e-05,9.99064e-06,9.28922e-08,3.97856e-06,-2.34541e-06,0
-3.41464e-05,6.70406e-06,-1.76928e-05,2.49321e-05,9.37196e-06,-2.50015e-07,1.80657e-06,-2.80932e-06,0
-3.41988e-05,6.28422e-06,-1.62075e-05,2.19104e-05,9.4817e-06,-1.03091e-09,1.73337e-06,-9.33888e-07,0
-3.31766e-05,5.7424e-06,-1.34924e-05,1.85571e-05,9.50527e-06,-1.06284e-06,2.68827e-06,9.00743e-07,0
-3.23991e-05,6.50325e-06,-9.42258e-06,1.62061e-05,8.3964e-06,-3.53843e-06,3.38467e-06,1.19598e-06,0
-3.2397e-05,7.3726e-06,-5.56398e-06,9.72444e-06,5.87265e-06,-5.10606e-06,4.17306e-06,-4.14963e-07,0
-3.21653e-05,8.05738e-06,-3.81145e-06,-2.19363e-06,4.39704e-06,-3.95688e-06,5.48646e-06,-2.5762e-06,0
-3.14634e-05,8.72894e-06,-4.93227e-06,-1.2059e-05,7.59939e-06,-1.05868e-06,6.11237e-06,-2.68893e-06,0
-3.0329e-05,9.0156e-06,-6.14083e-06,-1.60865e-05,1.406e-05,1.39202e-06,4.94181e-06,-6.1787e-07,0
-2.90196e-05,1.06843e-05,-5.71823e-06,-1.92731e-05,1.80804e-05,2.93062e-06,4.44725e-06,1.15772e-06,0
-2.78382e-05,1.83038e-05,-4.94135e-06,-2.5284e-05,1.71062e-05,2.50281e-06,7.04898e-06,2.64664e-06,0
-2.70483e-05,3.28301e-05,-6.07022e-06,-2.74841e-05,1.25521e-05,-7.2898e-07,1.14484e-05,4.39207e-06,0
-2.6959e-05,4.62471e-05,-7.40058e-06,-1.59821e-05,7.42263e-06,-3.70488e-06,1.39066e-05,5.72485e-06,0
-2.88029e-05,5.21864e-05,-7.08059e-06,4.6978e-06,5.62255e-06,-6.24949e-06,1.30981e-05,5.49906e-06,0
-3.13386e-05,4.80367e-05,-5.15495e-06,1.36446e-05,8.80576e-06,-8.93988e-06,1.05488e-05,4.28181e-06,0
-3.27946e-05,3.11787e-05,-4.1624e-06,2.24478e-06,1.30745e-05,-1.07673e-05,7.90917e-06,4.166e-06,0
-3.25358e-05,9.17387e-06,-4.22304e-06,-1.82892e-05,1.44549e-05,-1.16174e-05,6.82181e-06,4.8169e-06,0
-3.18721e-05,-1.27005e-05,-4.44835e-06,-3.91923e-05,1.42825e-05,-1.1285e-05,7.88672e-06,4.36194e-06,0
-2.95361e-05,-3.28406e-05,-5.38822e-06,-4.99565e-05,1.2807e-05,-1.04192e-05,8.06184e-06,4.32732e-06,0
-2.36413e-05,-4.39213e-05,-6.12989e-06,-4.65217e-05,9.6489e-06,-6.71961e-06,7.2523e-06,4.9335e-06,0
-1.87486e-05,-4.44474e-05,-5.98402e-06,-3.38071e-05,8.83648e-06,-2.67048e-06,7.72072e-06,5.03908e-06,0
-1.85235e-05,-3.78575e-05,-5.3574e-06,-1.5466e-05,9.5943e-06,-3.57063e-06,9.11793e-06,4.82528e-06,0
-2.11752e-05,-2.98917e-05,-5.51251e-06,-2.67225e-06,9.8106e-06,-7.9683e-06,1.10157e-05,3.06779e-06,0
-2.31577e-05,-2.35769e-05,-6.08786e-06,4.44338e-06,9.96888e-06,-1.41196e-05,1.2947e-05,6.27248e-07,0
-2.37025e-05,-1.77877e-05,-7.21364e-06,1.7383e-05,9.32656e-06,-2.30256e-05,1.41777e-05,-1.18102e-06,0
-2.28742e-05,-1.11775e-05,-9.34321e-06,3.69394e-05,1.03319e-05,-2.90169e-05,1.4431e-05,-1.87164e-06,0
-2.11771e-05,-4.46099e-06,-1.10956e-05,5.26922e-05,1.30596e-05,-1.72857e-05,1.48901e-05,-2.40431e-06,0
-2.0367e-05,8.11037e-07,-1.13419e-05,5.90573e-05,1.81134e-05,9.03581e-06,1.55674e-05,-2.59742e-06,0
-2.139e-05,5.10135e-06,-8.8527e-06,5.43658e-05,2.70285e-05,2.55787e-05,1.45458e-05,-3.2492e-06,0
-2.28669e-05,9.50614e-06,-5.39022e-06,3.94518e-05,3.80275e-05,2.02249e-05,1.15743e-05,-4.9528e-06,0
-2.46206e-05,1.43016e-05,-3.81734e-06,2.01184e-05,4.53328e-05,5.24618e-06,8.44085e-06,-6.46072e-06,0
-3.07711e-05,2.05576e-05,-4.12849e-06,5.65266e-06,4.41447e-05,-1.05385e-05,6.90912e-06,-5.92484e-06,0
-4.2274e-05,2.87537e-05,-5.40879e-06,2.03358e-06,3.47597e-05,-2.60725e-05,7.22105e-06,-3.11746e-06,0
-5.06745e-05,3.52628e-05,-6.54748e-06,5.21127e-06,2.18092e-05,-3.04573e-05,7.76288e-06,1.61286e-07,0
-4.8791e-05,3.83255e-05,-6.6069e-06,8.91406e-06,1.2414e-05,-2.0267e-05,7.58083e-06,3.31099e-06,0
-4.04059e-05,3.78389e-05,-4.52762e-06,8.71652e-06,8.79076e-06,-1.20287e-05,8.07823e-06,5.74653e-06,0
-3.35332e-05,3.28491e-05,-1.01536e-06,3.99779e-06,8.80017e-06,-1.54253e-05,9.67726e-06,6.70056e-06,0
-3.18107e-05,2.5652e-05,9.4334e-07,-4.59982e-06,9.61628e-06,-2.06234e-05,1.05961e-05,4.90538e-06,0
-3.24616e-05,1.98007e-05,-1.5191e-06,-1.41132e-05,1.11135e-05,-2.03606e-05,1.08007e-05,2.71507e-06,0
-3.26618e-05,1.46541e-05,-6.35393e-06,-2.10781e-05,1.2061e-05,-1.64101e-05,1.18306e-05,1.72118e-06,0
-3.14037e-05,8.37015e-06,-9.3852e-06,-1.99581e-05,1.08485e-05,-1.30175e-05,1.20196e-05,1.49861e-06,0
-2.89082e-05,1.89839e-06,-9.12608e-06,-1.22925e-05,9.01632e-06,-1.22781e-05,9.76396e-06,1.75549e-06,0
-2.83442e-05,-2.00536e-07,-8.04907e-06,-4.83206e-06,7.39634e-06,-1.30891e-05,7.05456e-06,2.55603e-06,0
-3.01722e-05,6.10148e-06,-9.54646e-06,-5.59686e-07,7.07277e-06,-1.42873e-05,6.4426e-06,4.86854e-06,0
-3.13693e-05,1.57695e-05,-1.18291e-05,-2.34444e-06,1.10221e-05,-1.61932e-05,7.03921e-06,6.29394e-06,0
-3.21934e-05,2.29634e-05,-1.40981e-05,-8.95289e-06,1.58874e-05,-1.81037e-05,8.24367e-06,6.93581e-06,0
-3.31513e-05,2.64216e-05,-1.55376e-05,-1.44763e-05,1.78303e-05,-1.87627e-05,1.07819e-05,7.40171e-06,0
-3.14199e-05,2.40262e-05,-1.47069e-05,-1.98883e-05,2.05352e-05,-1.74557e-05,1.16685e-05,6.59261e-06,0
-2.87976e-05,1.74482e-05,-1.40174e-05,-2.32053e-05,2.6488e-05,-1.47733e-05,5.76995e-06,7.38628e-06,0
-3.11447e-05,1.03144e-05,-1.40291e-05,-1.45634e-05,3.20691e-05,-1.37506e-05,-5.05579e-06,7.93996e-06,0
-3.62287e-05,3.64319e-06,-1.37144e-05,-1.99899e-06,3.44583e-05,-1.59611e-05,-1.08936e-05,6.42676e-06,0
-3.86724e-05,-2.4742e-06,-1.18168e-05,-1.57144e-06,3.37489e-05,-1.88322e-05,-8.31997e-06,3.49072e-06,0
-3.81523e-05,-8.07126e-06,-1.03534e-05,-1.23853e-05,2.88726e-05,-1.96446e-05,-5.5548e-07,1.25625e-06,0
-3.66165e-05,-1.09055e-05,-1.09946e-05,-2.26954e-05,2.34504e-05,-1.8173e-05,8.00611e-06,-1.00081e-07,0
-3.63585e-05,-1.03305e-05,-1.35264e-05,-2.37042e-05,1.98942e-05,-1.47104e-05,1.49562e-05,-2.93697e-06,0
-3.60303e-05,-7.94671e-06,-1.57938e-05,-1.76442e-05,1.73746e-05,-1.0856e-05,1.99859e-05,-4.52125e-06,0
-3.24327e-05,-4.50076e-06,-1.62843e-05,-1.28382e-05,1.39218e-05,-5.69071e-06,2.34917e-05,-3.40506e-06,0
-2.51337e-05,-6.29493e-07,-1.49916e-05,-1.21846e-05,1.00232e-05,3.03605e-06,2.62112e-05,-2.21456e-06,0
-1.99275e-05,4.27951e-06,-1.17381e-05,-1.27364e-05,6.79938e-06,1.03904e-05,2.81133e-05,-3.17761e-06,0
-2.2795e-05,1.0636e-05,-7.81935e-06,-1.50805e-05,1.03439e-06,7.56743e-06,3.03246e-05,-5.00628e-06,0
-3.14283e-05,1.70741e-05,-5.53946e-06,-2.43432e-05,-6.0308e-06,-4.35839e-06,3.24242e-05,-7.38081e-06,0
-3.82154e-05,2.00585e-05,-6.40592e-06,-3.96279e-05,-8.90426e-06,-1.67523e-05,3.28941e-05,-9.50237e-06,0
-3.7989e-05,1.97626e-05,-9.02479e-06,-5.16705e-05,-5.93107e-06,-2.66268e-05,3.10568e-05,-1.05364e-05,0
-3.27409e-05,1.97731e-05,-1.16299e-05,-5.42292e-05,-1.34621e-06,-3.94359e-05,2.87087e-05,-1.04365e-05,0
-2.69974e-05,2.02992e-05,-1.25397e-05,-4.93669e-05,9.33636e-08,-5.65007e-05,2.79474e-05,-8.46396e-06,0
-2.42367e-05,2.13362e-05,-1.23867e-05,-3.9787e-05,-1.86091e-06,-6.06755e-05,2.9203e-05,-5.44403e-06,0
-2.50543e-05,2.23894e-05,-1.1312e-05,-3.17705e-05,-2.249e-06,-3.6566e-05,3.13858e-05,-4.71676e-06,0
-2.62749e-05,2.25311e-05,-1.08565e-05,-3.2347e-05,1.57813e-06,-6.3625e-06,3.21755e-05,-6.38986e-06,0
-2.60006e-05,2.19299e-05,-1.07108e-05,-3.9934e-05,7.57763e-06,1.62181e-06,2.93733e-05,-7.68747e-06,0
-2.51806e-05,2.01801e-05,-8.42657e-06,-4.21846e-05,1.41868e-05,-4.57881e-06,2.45899e-05,-8.10241e-06,0
-2.60625e-05,1.98016e-05,-5.68024e-06,-3.24184e-05,2.29655e-05,-8.97703e-06,2.02658e-05,-8.61321e-06,0
-2.76777e-05,2.03894e-05,-4.60002e-06,-1.28373e-05,3.18159e-05,-9.41536e-06,1.62929e-05,-8.9593e-06,0
-2.92926e-05,1.84025e-05,-3.29741e-06,5.8e-06,3.6319e-05,-8.58987e-06,9.3468e-06,-8.4499e-06,0
-3.0724e-05,1.8451e-05,-1.71126e-06,1.92149e-05,3.65453e-05,-8.15205e-06,1.8383e-07,-7.60527e-06,0
-3.05248e-05,2.87766e-05,-3.69629e-07,3.62613e-05,3.57225e-05,-9.50027e-06,-4.77488e-06,-6.55419e-06,0
-3.05753e-05,4.72308e-05,9.48854e-07,5.52179e-05,3.20786e-05,-1.10995e-05,-6.01503e-06,-5.76351e-06,0
-3.1095e-05,5.97096e-05,2.63101e-06,7.24756e-05,2.54888e-05,-1.22172e-05,-4.3311e-06,-4.36991e-06,0
-3.10322e-05,5.92958e-05,5.13518e-06,8.1707e-05,2.18654e-05,-1.33168e-05,2.09225e-06,-8.86585e-07,0
-2.98141e-05,5.13352e-05,6.42408e-06,7.88256e-05,2.19354e-05,-1.45045e-05,1.16837e-05,3.05026e-06,0
-2.858e-05,3.95176e-05,7.21172e-06,6.41977e-05,2.28813e-05,-1.74191e-05,2.01663e-05,4.60518e-06,0
-2.74503e-05,2.49317e-05,8.12941e-06,3.99819e-05,2.09393e-05,-1.96221e-05,2.67827e-05,5.05869e-06,0
-2.65684e-05,1.10432e-05,8.57386e-06,1.43456e-05,1.66208e-05,-1.4597e-05,3.11127e-05,4.6982e-06,0
-2.61156e-05,1.93828e-06,7.25525e-06,-3.03843e-06,1.21164e-05,-3.50667e-06,3.27932e-05,3.50943e-06,0
-2.61437e-05,-1.40311e-06,4.70852e-06,-9.92275e-06,8.20873e-06,2.34238e-06,3.21828e-05,1.884e-06,0
-2.66673e-05,-8.31839e-07,3.87255e-06,-1.03e-05,6.86773e-06,-1.83362e-06,2.85403e-05,-2.6814e-07,0
-2.71118e-05,1.43518e-06,5.02707e-06,-6.63926e-06,1.03791e-05,-9.59238e-06,2.3702e-05,-1.00757e-06,0
-2.70309e-05,3.86267e-06,5.26135e-06,-1.40922e-06,1.61718e-05,-1.41729e-05,2.12141e-05,-2.19944e-07,0
-2.61309e-05,5.56597e-06,3.14979e-06,2.01402e-06,1.90686e-05,-1.78963e-05,2.13676e-05,5.40342e-07,0
-2.55155e-05,7.40461e-06,3.91812e-08,8.43346e-07,1.76174e-05,-2.36603e-05,2.03628e-05,1.64893e-06,0
-2.48347e-05,1.04899e-05,-3.08876e-06,-9.14316e-07,1.36981e-05,-2.45751e-05,1.73022e-05,3.33989e-06,0
-2.46683e-05,1.23327e-05,-6.40709e-06,2.50726e-06,1.09654e-05,-9.08744e-06,1.49062e-05,4.70676e-06,0
-2.55485e-05,1.07892e-05,-9.11296e-06,1.19322e-05,1.14414e-05,1.55829e-05,1.40543e-05,6.05377e-06,0
-2.67793e-05,8.07306e-06,-1.07356e-05,2.16492e-05,1.13276e-05,2.46384e-05,1.28192e-05,6.36134e-06,0
