ch1,ch2,ch3,ch4,ch5,ch6,ch7,ch8,class
-3.32342e-05,2.15118e-05,-1.45864e-05,5.1435e-05,-6.04306e-05,9.5245e-05,-9.94729e-06,-6.19217e-06,0
-1.92571e-05,2.73102e-05,-1.34548e-05,6.82803e-05,-1.37526e-05,8.16422e-05,-1.40015e-05,-9.56279e-06,0
-1.49808e-05,3.33708e-05,-7.96305e-06,6.09186e-05,1.10883e-05,4.99216e-05,-1.24759e-05,-8.46683e-06,0
-3.13898e-06,3.87709e-05,-2.72846e-06,3.46427e-05,1.9332e-05,2.35964e-05,-6.73954e-06,-6.32344e-06,0
1.62812e-05,3.65039e-05,9.83982e-07,8.71522e-06,2.30775e-05,5.31028e-07,-9.81295e-07,-5.49268e-06,0
2.60403e-05,2.33624e-05,3.00845e-06,-7.29365e-06,2.92419e-05,-1.93112e-05,3.54684e-06,-3.70554e-06,0
1.65977e-05,1.67174e-06,4.79664e-06,-2.21349e-05,3.03206e-05,-3.38918e-05,7.8784e-06,-3.42337e-06,0
-3.36581e-06,-1.85197e-05,6.17105e-06,-3.64486e-05,2.18458e-05,-4.06423e-05,1.07479e-05,-4.23081e-06,0
-2.21759e-05,-2.51699e-05,7.06115e-06,-3.93998e-05,1.29354e-05,-3.62633e-05,9.29424e-06,-4.90399e-06,0
-3.8665e-05,-6.30787e-06,8.19217e-06,-2.41586e-05,1.84455e-05,-2.22435e-05,4.07814e-06,-4.41725e-06,0
-6.20631e-05,3.18335e-05,9.94213e-06,5.0246e-06,3.22761e-05,5.86656e-07,3.0268e-06,-3.82272e-06,0
-9.09638e-05,6.03356e-05,9.05551e-06,3.42672e-05,3.58105e-05,3.1363e-05,1.21913e-05,-3.55687e-06,0
-0.000108992,6.06623e-05,4.57922e-06,5.29244e-05,2.60088e-05,5.19512e-05,2.60001e-05,-1.37172e-06,0
-0.000104828,4.83071e-05,-2.84633e-07,6.12217e-05,1.9391e-05,3.89001e-05,3.67147e-05,7.91386e-06,0
-8.47618e-05,3.88239e-05,-2.77392e-06,6.57295e-05,2.09839e-05,9.97376e-06,3.99504e-05,2.49186e-05,0
-6.36913e-05,3.17687e-05,-3.34771e-06,7.0091e-05,1.98393e-05,-6.91536e-06,2.36993e-05,3.96316e-05,0
-5.01376e-05,2.71121e-05,-4.16498e-06,6.79705e-05,1.4098e-05,-7.40065e-06,-6.71467e-06,4.40097e-05,0
-4.25045e-05,2.77103e-05,-5.80248e-06,5.18687e-05,1.32331e-05,-2.30154e-06,-4.91879e-06,3.87118e-05,0
-3.67467e-05,3.35578e-05,-7.33617e-06,2.61651e-05,1.94706e-05,3.3503e-07,5.37968e-05,2.31253e-05,0
-3.54603e-05,4.16866e-05,-5.48224e-06,-1.74924e-06,2.42586e-05,-2.74368e-06,0.000120712,-1.79629e-06,0
-4.07603e-05,4.98694e-05,1.10374e-06,-3.18028e-05,2.1516e-05,-9.77221e-06,0.000139261,-2.69881e-05,0
-5.05305e-05,6.26979e-05,8.15554e-06,-5.89023e-05,1.68608e-05,-1.38619e-05,0.000106423,-4.2411e-05,0
-5.75371e-05,7.52346e-05,1.02267e-05,-7.1793e-05,1.73212e-05,-1.54745e-05,5.23002e-05,-4.38767e-05,0
-5.20373e-05,7.66583e-05,6.80794e-06,-6.56466e-05,1.96351e-05,-2.91597e-05,5.63266e-06,-3.62892e-05,0
-3.48279e-05,7.12327e-05,2.4362e-06,-4.79548e-05,1.82439e-05,-4.86604e-05,-2.00577e-05,-2.88801e-05,0
-1.75975e-05,6.56394e-05,5.56138e-08,-3.4025e-05,1.41629e-05,-5.60707e-05,-3.05532e-05,-2.14504e-05,0
-1.07671e-05,5.53988e-05,-2.54307e-06,-2.72225e-05,1.17357e-05,-5.50743e-05,-3.17475e-05,-1.06767e-05,0
-1.09578e-05,4.01951e-05,-5.2585e-06,-2.14369e-05,8.43059e-06,-4.71348e-05,-2.85515e-05,-1.14277e-06,0
-7.57764e-06,2.86134e-05,-7.20232e-06,-1.34912e-05,2.21307e-06,-2.79022e-05,-3.2602e-05,5.30242e-06,0
-5.05574e-06,5.60943e-06,-7.48139e-06,-4.51998e-06,-3.19106e-06,6.28037e-06,-3.50719e-05,8.018e-06,0
-1.08083e-05,-3.52851e-05,-4.89071e-06,8.6705e-06,-1.82284e-06,5.07236e-05,-3.07301e-05,9.59099e-06,0
-1.583e-05,-7.32434e-05,-2.02682e-06,1.8664e-05,4.31947e-06,6.54823e-05,-2.57429e-05,1.14946e-05,0
-8.52633e-07,-9.29002e-05,-1.90547e-06,1.18324e-05,8.20155e-06,3.75256e-05,-2.60393e-05,1.29911e-05,0
3.15639e-05,-8.68228e-05,-2.82542e-06,-2.29816e-06,7.88641e-06,7.28683e-06,-2.8388e-05,1.34771e-05,0
5.32067e-05,-6.42866e-05,-2.26647e-06,-3.4437e-06,3.58177e-06,-4.72558e-06,-2.72029e-05,1.3768e-05,0
4.90063e-05,-3.19093e-05,-6.76674e-07,1.23156e-05,-1.02237e-05,-5.68522e-06,-2.42491e-05,1.4123e-05,0
2.80463e-05,1.21031e-05,2.66895e-07,2.59493e-05,-2.57568e-05,-8.81131e-06,-2.31505e-05,1.22636e-05,0
3.45368e-06,5.11554e-05,-3.5658e-07,2.29098e-05,-2.04705e-05,-1.13356e-05,-2.4441e-05,9.40699e-06,0
-2.4703e-05,5.87786e-05,-1.63079e-06,1.09825e-05,9.91357e-06,-1.03645e-05,-2.13188e-05,7.03126e-06,0
-5.80726e-05,2.2874e-05,-2.60337e-06,7.36656e-06,4.49697e-05,-1.10526e-05,-1.24494e-05,6.68268e-06,0
-8.55646e-05,-3.12952e-05,-2.96039e-06,1.35588e-05,6.41884e-05,-1.68084e-05,-9.81754e-07,6.75232e-06,0
-9.24626e-05,-6.18055e-05,-2.57057e-06,1.93809e-05,6.20807e-05,-2.24021e-05,5.70881e-06,5.27524e-06,0
-7.77028e-05,-5.54894e-05,-3.81652e-07,1.83365e-05,4.7835e-05,-1.86795e-05,6.2173e-06,3.85424e-06,0
-5.68097e-05,-3.11192e-05,2.74016e-06,9.54136e-06,3.8415e-05,-4.37454e-06,4.13773e-06,6.27769e-06,0
-4.47452e-05,-8.29077e-06,5.18953e-06,-2.06116e-06,4.24818e-05,1.86415e-05,4.51506e-06,1.02835e-05,0
-4.06953e-05,7.02962e-06,7.23758e-06,-7.05774e-06,5.01716e-05,4.28906e-05,7.84772e-06,1.07185e-05,0
-4.94461e-05,1.27701e-05,8.0987e-06,-4.87898e-06,5.13388e-05,4.2811e-05,1.36064e-05,7.64396e-06,0
-6.36616e-05,9.55703e-06,1.1595e-05,-7.48687e-06,5.37895e-05,6.50412e-06,2.09239e-05,3.52897e-06,0
-5.43167e-05,6.67691e-06,2.29406e-05,-1.34532e-05,6.22769e-05,-3.73144e-05,3.10128e-05,1.18448e-06,0
-2.92229e-05,9.4263e-06,3.97341e-05,-7.64035e-06,8.08737e-05,-6.35134e-05,4.16897e-05,8.6262e-07,0
-1.36059e-05,1.41069e-05,5.38101e-05,9.18991e-06,0.000100013,-6.41729e-05,4.67971e-05,-5.39916e-07,0
-1.49917e-05,1.57991e-05,4.95398e-05,1.93468e-06,8.44899e-05,-4.29941e-05,4.52992e-05,-2.40077e-06,0
-2.37789e-05,1.61796e-05,2.02323e-05,-4.55467e-05,3.50012e-05,-1.42616e-05,4.49875e-05,-2.29537e-06,0
-2.76733e-05,1.82269e-05,-2.60959e-05,-8.63717e-05,-1.45856e-05,-1.70288e-06,4.58525e-05,-1.63222e-06,0
-2.74541e-05,1.61305e-05,-7.12723e-05,-9.16631e-05,-4.28435e-05,-9.54734e-06,2.73746e-05,-1.94938e-06,0
-2.70774e-05,1.26537e-05,-9.89271e-05,-7.51573e-05,-4.50636e-05,-2.01703e-05,-1.24472e-05,-2.82905e-06,0
-2.75158e-05,1.5313e-05,-0.000108496,-5.2916e-05,-2.88578e-05,-1.69183e-05,-3.66167e-05,-2.70294e-06,0
-2.75494e-05,2.25472e-05,-0.00010407,-3.98752e-05,-5.56607e-06,-1.8481e-06,-1.6585e-05,-2.98652e-06,0
-2.97985e-05,2.98675e-05,-9.21435e-05,-3.80448e-05,6.3377e-06,1.34236e-05,2.99669e-05,-4.11062e-06,0
-3.25973e-05,3.22911e-05,-7.75444e-05,-3.65055e-05,2.00088e-06,2.39404e-05,6.95739e-05,-4.71136e-06,0
-3.59933e-05,2.53279e-05,-6.53489e-05,-3.01178e-05,-7.00493e-06,2.08998e-05,8.62517e-05,-4.19181e-06,0
-4.1611e-05,1.39241e-05,-5.65377e-05,-2.64357e-05,-1.78784e-05,4.89119e-06,8.30889e-05,-2.26939e-06,0
-4.66635e-05,4.19384e-06,-4.89242e-05,-3.09815e-05,-3.62827e-05,-1.66654e-05,6.89438e-05,-7.76046e-07,0
-4.9522e-05,-3.49465e-07,-4.07881e-05,-3.77984e-05,-5.47842e-05,-3.73863e-05,5.27084e-05,-7.90626e-07,0
-5.25121e-05,2.46892e-06,-3.22622e-05,-3.41577e-05,-5.7843e-05,-5.2067e-05,3.73637e-05,-1.95186e-06,0
-5.65089e-05,1.21167e-05,-2.38182e-05,-1.73067e-05,-4.08435e-05,-5.43918e-05,2.28611e-05,-4.00172e-06,0
-5.85891e-05,2.3258e-05,-1.53464e-05,8.36198e-06,-1.06635e-05,-4.42708e-05,1.30109e-05,-5.48273e-06,0
-5.65982e-05,2.88552e-05,-8.80234e-06,3.36755e-05,1.73674e-05,-2.93533e-05,1.42913e-05,-5.02951e-06,0
-4.64736e-05,2.81048e-05,-3.83922e-06,4.41797e-05,3.5414e-05,-1.73766e-05,2.28441e-05,-3.5404e-06,0
-2.18773e-05,2.33079e-05,-2.81746e-07,3.01879e-05,5.2854e-05,-8.81236e-06,2.82458e-05,-2.40845e-06,0
1.16445e-05,1.08171e-05,3.07285e-06,-2.18915e-06,7.6961e-05,-2.5232e-06,2.52388e-05,-5.64392e-07,0
3.11407e-05,-1.95359e-05,4.97355e-06,-3.48143e-05,8.72658e-05,2.29637e-07,1.63766e-05,1.81402e-06,0
3.46279e-05,-5.07957e-05,3.45008e-06,-5.65254e-05,6.93027e-05,-9.01844e-07,5.81774e-06,2.66988e-06,0
5.94437e-05,-5.53722e-05,-5.53757e-07,-6.70964e-05,3.70732e-05,-6.64501e-06,-5.55795e-07,3.22733e-06,0
0.000112476,-3.30133e-05,-2.49697e-06,-6.10219e-05,8.74872e-06,-1.32797e-05,1.00464e-05,4.44723e-06,0
0.000128514,-2.2825e-06,-1.95858e-06,-3.07715e-05,-1.37639e-06,-1.54346e-05,4.3059e-05,4.56226e-06,0
7.53597e-05,1.58463e-05,-4.20135e-07,1.49322e-05,4.62964e-06,-1.15796e-05,8.64415e-05,3.91018e-06,0
-7.03053e-06,2.17404e-05,7.1849e-07,6.69619e-05,7.91855e-06,-6.68349e-06,0.000135194,3.54822e-06,0
-6.67517e-05,2.22381e-05,2.08331e-06,0.000110705,-2.08227e-06,-7.04752e-06,0.000174609,2.1886e-06,0
-9.29417e-05,1.79501e-05,3.17501e-06,0.000128503,-1.61345e-05,-9.30945e-06,0.000178645,1.50879e-06,0
-0.000112236,-2.15269e-06,-1.68165e-07,0.000115514,-2.14119e-05,-9.58412e-06,0.000135045,3.15713e-06,0
-0.000131235,-3.54742e-05,-4.09088e-06,8.0212e-05,-2.2666e-05,-1.01634e-05,4.86775e-05,4.3233e-06,0
-0.000128442,-3.81649e-05,-4.5034e-06,4.4318e-05,-3.21702e-05,-1.1569e-05,-5.61825e-05,6.10525e-06,0
-9.01054e-05,9.0535e-06,-2.48252e-06,1.68853e-05,-4.78166e-05,-1.15746e-05,-0.000156771,1.26075e-05,0
-4.69043e-05,7.14397e-05,-1.07487e-06,-2.58212e-06,-5.29383e-05,-8.45805e-06,-0.000213236,2.03498e-05,0
-2.40688e-05,0.000104521,-3.86177e-07,-1.29748e-05,-4.27342e-05,-4.07411e-06,-0.000209957,2.14719e-05,0
-1.6753e-05,0.000100949,3.25431e-06,-1.36658e-05,-2.94247e-05,-8.26544e-07,-0.000166302,1.52996e-05,0
-1.36354e-05,7.95621e-05,8.19188e-06,-9.7485e-06,-1.94836e-05,-4.17077e-07,-0.000113888,6.7384e-06,0
-1.27941e-05,5.73662e-05,8.6741e-06,-8.51603e-06,-4.21236e-06,6.7928e-07,-7.75364e-05,2.00825e-07,0
-1.74534e-05,3.83936e-05,3.17067e-06,-1.13656e-05,1.9715e-05,5.52178e-07,-5.74459e-05,-4.04796e-06,0
-2.71378e-05,2.11888e-05,-4.84928e-06,-1.65932e-05,3.68143e-05,-4.69448e-06,-4.16912e-05,-6.30321e-06,0
-3.92059e-05,1.80642e-06,-1.14673e-05,-2.16239e-05,3.97277e-05,-1.2254e-05,-2.56152e-05,-6.20132e-06,0
-4.21067e-05,-1.70596e-05,-1.78686e-05,-2.75349e-05,4.54689e-05,-1.54174e-05,-2.32581e-05,-4.42067e-06,0
-2.28077e-05,-2.16034e-05,-2.54018e-05,-3.31526e-05,6.62221e-05,-1.20121e-05,-3.67269e-05,-2.65485e-06,0
1.47498e-05,-1.03405e-05,-3.07646e-05,-3.68497e-05,8.12442e-05,-8.13011e-06,-5.06237e-05,-3.16241e-06,0
4.0424e-05,2.96346e-06,-2.93351e-05,-3.91772e-05,6.30579e-05,-9.50206e-06,-4.45587e-05,-5.8824e-06,0
3.42483e-05,5.16518e-06,-2.20259e-05,-4.10141e-05,1.61941e-05,-1.50513e-05,-1.45061e-05,-7.91685e-06,0
3.34379e-06,-3.87353e-06,-1.45487e-05,-3.91372e-05,-3.03465e-05,-1.63892e-05,3.25744e-05,-7.61079e-06,0
-3.63673e-05,-1.36355e-05,-9.96731e-06,-3.20392e-05,-5.29514e-05,-1.07039e-05,7.83291e-05,-7.56806e-06,0
-7.735e-05,-6.66021e-06,-6.06184e-06,-2.15886e-05,-5.10249e-05,-5.28948e-06,0.000104655,-7.68524e-06,0
-0.000114327,1.97427e-05,-9.84693e-07,-1.36284e-05,-4.24365e-05,-8.57342e-06,0.000107507,-6.59278e-06,0
-0.000139342,4.50876e-05,2.59249e-06,-1.02717e-05,-2.9418e-05,-1.58684e-05,9.50947e-05,-5.38906e-06,0
-0.000138658,4.80513e-05,4.87663e-06,-1.0889e-05,-4.3984e-06,-1.80131e-05,7.62775e-05,-3.96432e-06,0
-0.000110338,3.35168e-05,6.50387e-06,-1.42112e-05,3.93002e-05,-1.16747e-05,5.65948e-05,-1.69516e-06,0
-6.7159e-05,7.36191e-07,7.94928e-06,-1.17463e-05,9.731e-05,8.3644e-07,3.91412e-05,1.37701e-06,0
-3.50265e-05,-3.92592e-05,1.29173e-05,-4.71603e-06,0.0001167,1.00153e-05,2.73506e-05,2.74336e-06,0
-2.51964e-05,-5.04437e-05,2.31445e-05,-1.39536e-06,8.64582e-05,1.25091e-05,2.89968e-05,1.94512e-06,0
-2.58663e-05,-3.39758e-05,3.5996e-05,-3.49211e-07,5.85208e-05,1.27077e-05,4.34523e-05,1.2401e-06,0
-3.09791e-05,-9.83118e-06,4.58235e-05,3.76459e-06,4.71705e-05,1.14484e-05,5.65222e-05,-9.65249e-07,0
-3.43871e-05,1.33845e-05,4.63475e-05,1.27191e-05,4.13685e-05,1.05674e-05,5.80851e-05,-2.51531e-06,0
-3.74377e-05,3.37213e-05,3.32098e-05,2.18909e-05,3.60223e-05,3.69497e-06,5.33406e-05,-3.18028e-06,0
-3.73022e-05,4.83304e-05,1.00383e-05,2.79068e-05,4.16293e-05,-1.6424e-05,4.86405e-05,-4.01344e-06,0
-3.16384e-05,5.02343e-05,-1.47882e-05,2.95277e-05,4.99494e-05,-3.28098e-05,4.50288e-05,-4.2746e-06,0
-1.83348e-05,3.86028e-05,-3.52703e-05,2.27951e-05,4.39472e-05,-3.22568e-05,3.80727e-05,-4.4728e-06,0
4.4371e-07,1.82192e-05,-4.75078e-05,1.13884e-05,2.48385e-05,-2.68165e-05,2.79788e-05,-5.12973e-06,0
1.64773e-05,-8.44986e-06,-5.25884e-05,1.58315e-08,2.53081e-06,-2.08814e-05,1.71301e-05,-5.49517e-06,0
2.08394e-05,-2.69273e-05,-5.36129e-05,-8.63577e-06,-1.01406e-05,-1.05302e-05,1.06186e-05,-5.09808e-06,0
1.09998e-05,-2.54745e-05,-4.94138e-05,-1.38712e-05,-8.60237e-06,2.35806e-06,8.43603e-06,-4.77375e-06,0
-8.55054e-06,-1.46285e-05,-4.03138e-05,-1.54411e-05,3.19325e-06,1.11689e-05,7.16147e-06,-4.42156e-06,0
-2.99087e-05,-2.95161e-06,-3.05265e-05,-1.59771e-05,1.25898e-05,1.23275e-05,7.72832e-06,-4.22976e-06,0
-3.62576e-05,6.96202e-06,-2.30174e-05,-1.79202e-05,1.33019e-05,-2.59645e-07,1.05336e-05,-3.38904e-06,0
-2.24896e-05,9.3264e-06,-1.85521e-05,-2.11585e-05,6.05428e-06,-3.10147e-05,1.22216e-05,-2.60926e-06,0
-7.57572e-06,1.86184e-06,-1.65976e-05,-2.41856e-05,-1.30408e-06,-5.48541e-05,8.34867e-06,-2.53156e-06,0
-1.23463e-05,-6.77633e-06,-1.54089e-05,-2.34014e-05,7.40335e-06,-3.7995e-05,-6.12815e-06,-2.89197e-06,0
-3.29315e-05,-7.93796e-06,-1.31365e-05,-1.90626e-05,5.94324e-05,1.62964e-06,-3.24822e-05,-2.71701e-06,0
-5.78062e-05,2.39214e-06,-9.72793e-06,-1.39789e-05,0.000145221,1.74399e-05,-5.6831e-05,-2.39143e-06,0
-8.89061e-05,1.97807e-05,-4.96838e-06,-1.08299e-05,0.000189615,8.16631e-06,-6.45631e-05,-1.79187e-06,0
-0.000133074,2.83805e-05,-1.52815e-06,-9.24224e-06,0.000144613,-5.49807e-06,-6.36084e-05,2.37548e-07,0
-0.000173467,1.95287e-05,-2.1243e-06,-6.48263e-06,5.7487e-05,-1.25695e-05,-6.16272e-05,3.27577e-06,0
-0.000180411,1.48686e-06,-2.14521e-06,-3.7165e-06,-1.24971e-05,-1.50163e-05,-4.57644e-05,4.55875e-06,0
-0.000150258,-1.05719e-05,-7.15227e-07,-8.27729e-06,-6.14598e-05,-1.8457e-05,-2.00691e-05,5.09801e-06,0
-9.08907e-05,-1.08119e-05,2.23446e-06,-2.08194e-05,-0.000105273,-1.96434e-05,5.40082e-06,6.79944e-06,0
-1.45328e-05,-1.87981e-06,5.71644e-06,-2.93332e-05,-0.000134448,-1.03572e-05,2.99711e-05,7.90052e-06,0
5.27471e-05,9.94812e-06,5.90105e-06,-2.73432e-05,-0.000137815,1.03036e-05,5.38983e-05,7.10064e-06,0
7.84554e-05,1.45684e-05,1.1064e-06,-2.23233e-05,-0.000119402,2.82851e-05,7.23665e-05,7.49808e-06,0
5.91185e-05,1.29409e-05,-7.18743e-06,-1.71212e-05,-9.28085e-05,3.16123e-05,7.74907e-05,1.0661e-05,0
3.02178e-05,1.5268e-05,-1.01431e-05,-8.54914e-06,-6.6646e-05,2.3848e-05,7.73619e-05,1.34446e-05,0
1.27626e-05,2.12173e-05,-6.79094e-06,1.83775e-06,-3.93089e-05,1.25862e-05,7.84864e-05,1.48106e-05,0
9.17573e-06,2.58829e-05,-4.27804e-06,1.10207e-05,-2.18238e-05,3.83155e-06,8.0992e-05,1.60274e-05,0
5.44959e-06,2.87001e-05,-6.4397e-06,1.66649e-05,-1.34941e-05,-1.84832e-06,8.27366e-05,1.75749e-05,0
-4.08425e-06,3.0144e-05,-9.26745e-06,1.71087e-05,-8.69955e-06,-5.20591e-06,8.47249e-05,1.83076e-05,0
-1.5178e-05,2.73432e-05,-1.05715e-05,1.61514e-05,-4.20533e-06,-6.66964e-06,8.46608e-05,1.74494e-05,0
-2.43976e-05,1.70064e-05,-1.22499e-05,1.79959e-05,-3.91187e-06,-1.07213e-05,7.7108e-05,1.50859e-05,0
-2.92133e-05,-1.56237e-06,-1.48686e-05,2.19129e-05,-1.31191e-05,-2.38895e-05,6.19197e-05,1.32518e-05,0
-3.13285e-05,-2.33097e-05,-1.66943e-05,2.37117e-05,-2.69378e-05,-4.85979e-05,4.28365e-05,1.20044e-05,0
-3.03511e-05,-4.01839e-05,-1.64474e-05,2.14959e-05,-3.19966e-05,-6.67413e-05,2.3397e-05,1.03544e-05,0
-3.01516e-05,-5.02005e-05,-1.50647e-05,1.72901e-05,-2.26456e-05,-5.99877e-05,3.24925e-06,6.98652e-06,0
-3.15669e-05,-5.56269e-05,-1.30479e-05,1.65968e-05,-6.93702e-06,-3.93771e-05,-1.46877e-05,1.80083e-06,0
-3.62191e-05,-5.70145e-05,-1.24045e-05,2.31409e-05,9.64788e-06,-2.8048e-05,-2.53664e-05,-2.94845e-06,0
-4.11578e-05,-5.0156e-05,-1.35597e-05,2.97536e-05,2.52117e-05,-2.58508e-05,-2.44599e-05,-5.45665e-06,0
-4.50433e-05,-2.63516e-05,-1.47419e-05,2.82862e-05,3.59786e-05,-2.09521e-05,-1.43876e-05,-6.09936e-06,0
-4.47122e-05,1.51209e-05,-1.35642e-05,2.26304e-05,3.65277e-05,-1.44507e-05,-1.31078e-06,-4.67555e-06,0
-4.24687e-05,4.68759e-05,-1.08668e-05,1.83694e-05,3.21386e-05,-1.17703e-05,6.37482e-06,-1.33879e-06,0
-3.95987e-05,4.62167e-05,-7.77572e-06,1.38274e-05,3.06515e-05,-7.39794e-06,6.15683e-06,8.77948e-07,0
-3.15796e-05,3.87414e-05,-5.60259e-06,8.82618e-06,3.19353e-05,3.12378e-07,1.72072e-06,2.08651e-07,0
-1.77187e-05,4.47776e-05,-3.07156e-06,2.1234e-06,3.15622e-05,2.88781e-06,-5.05007e-06,-2.71632e-06,0
-5.29031e-06,6.06776e-05,-1.55552e-06,-1.08539e-05,2.87081e-05,-3.43286e-06,-1.77132e-05,-5.2768e-06,0
2.01385e-06,6.832e-05,-3.26146e-06,-2.61673e-05,2.34832e-05,-1.16609e-05,-2.80226e-05,-5.30553e-06,0
4.5842e-06,2.65805e-05,-2.91655e-06,-3.47578e-05,1.84719e-05,-1.32755e-05,-2.9306e-05,-3.74853e-06,0
7.10585e-06,-3.62156e-05,4.2982e-07,-3.58991e-05,1.81116e-05,-7.12292e-06,-3.19213e-05,-2.56123e-06,0
8.53428e-06,-7.5957e-05,1.68617e-06,-3.31808e-05,2.13881e-05,-3.14209e-07,-3.246e-05,-2.25867e-06,0
4.62051e-06,-8.24867e-05,2.69519e-07,-3.13474e-05,2.62269e-05,1.42401e-06,-2.31049e-05,-2.27438e-06,0
5.66941e-07,-1.80649e-05,-1.24226e-06,-3.24099e-05,3.22651e-05,-9.73428e-07,-8.50737e-06,-1.80166e-06,0
-3.45165e-06,6.48406e-05,-1.53712e-06,-3.48416e-05,3.3576e-05,-5.11743e-06,4.09638e-06,-1.07508e-06,0
-1.1017e-05,0.000104505,-1.27011e-06,-3.45093e-05,2.87373e-05,-7.60008e-06,1.41968e-05,-1.14019e-06,0
-3.06743e-05,0.000110639,-2.191e-06,-2.98903e-05,2.50285e-05,-7.77535e-06,2.36334e-05,-2.18894e-06,0
-5.57659e-05,8.84247e-05,-4.58274e-06,-2.48752e-05,2.56278e-05,-8.44629e-06,3.0473e-05,-3.13805e-06,0
-7.29368e-05,6.55521e-05,-6.41979e-06,-2.52133e-05,2.77886e-05,-1.21178e-05,3.41696e-05,-2.23388e-06,0
-8.2866e-05,4.50896e-05,-5.1393e-06,-3.02973e-05,2.79376e-05,-1.49265e-05,3.58222e-05,-8.68401e-07,0
-8.86527e-05,1.20189e-05,-1.4403e-06,-3.5271e-05,2.62622e-05,-1.40606e-05,3.51659e-05,6.23523e-07,0
-7.2869e-05,-3.54537e-05,1.21749e-06,-3.80954e-05,2.53442e-05,-1.01958e-05,3.38618e-05,1.04033e-06,0
-2.31035e-05,-6.71086e-05,5.54664e-07,-3.80105e-05,2.55649e-05,-7.41818e-06,3.33302e-05,-1.50393e-06,0
4.00512e-05,-5.77023e-05,-2.50074e-06,-3.45347e-05,2.74102e-05,-8.53717e-06,3.20521e-05,-3.27982e-06,0
7.90726e-05,-9.18149e-06,-5.45568e-06,-2.73229e-05,3.0587e-05,-1.69826e-05,2.97397e-05,-2.09739e-06,0
7.03622e-05,5.59024e-05,-7.38143e-06,-1.92218e-05,3.01486e-05,-3.50188e-05,2.8751e-05,-2.87447e-07,0
3.15859e-05,9.63459e-05,-9.64192e-06,-1.09588e-05,2.44259e-05,-4.68477e-05,2.71475e-05,-2.6553e-07,0
8.92317e-08,9.47974e-05,-1.23663e-05,-1.42719e-06,1.85374e-05,-3.8124e-05,2.2105e-05,-8.86102e-07,0
-1.437e-05,7.39946e-05,-1.2863e-05,9.04658e-06,1.727e-05,-2.57979e-05,1.9517e-05,-2.34712e-07,0
-2.47158e-05,6.49771e-05,-9.84489e-06,1.69643e-05,2.01978e-05,-2.45702e-05,2.55902e-05,1.42094e-06,0
-3.31817e-05,6.35355e-05,-5.40284e-06,2.26582e-05,2.58237e-05,-1.1813e-05,3.46322e-05,2.47988e-06,0
-3.55463e-05,6.29191e-05,-2.20803e-06,2.6739e-05,3.29396e-05,2.3102e-05,3.75109e-05,2.84073e-06,0
-4.24272e-05,6.52195e-05,-2.67975e-06,2.619e-05,3.6699e-05,5.6853e-05,3.05536e-05,2.33203e-06,0
-6.38829e-05,7.37197e-05,-5.062e-06,2.06027e-05,3.17074e-05,7.15981e-05,1.56378e-05,8.05127e-07,0
-8.39435e-05,7.75274e-05,-6.276e-06,1.33611e-05,2.29577e-05,5.11835e-05,-7.00588e-07,-1.66909e-06,0
-9.1083e-05,4.78401e-05,-6.60971e-06,7.9595e-06,1.85395e-05,1.18328e-05,-1.11051e-05,-2.89113e-06,0
-8.76505e-05,-1.77603e-05,-1.02085e-05,3.12182e-06,2.04471e-05,-8.00569e-06,-1.85337e-05,-1.58749e-06,0
-7.72503e-05,-7.09085e-05,-1.46363e-05,-6.12385e-06,2.45708e-05,-7.47832e-06,-2.63074e-05,-7.57684e-07,0
-6.38127e-05,-0.00010106,-1.82006e-05,-1.98122e-05,2.7368e-05,-3.05429e-06,-2.88661e-05,-2.81199e-07,0
-5.07758e-05,-0.000101062,-2.33396e-05,-3.55587e-05,2.65932e-05,-5.04277e-06,-2.52485e-05,7.60674e-07,0
-3.93713e-05,-6.28142e-05,-2.51595e-05,-4.59912e-05,2.14033e-05,-6.61687e-06,-1.80492e-05,2.41278e-07,0
-3.15382e-05,-1.39124e-05,-2.25037e-05,-4.53549e-05,1.34416e-05,-7.42991e-06,-1.14904e-05,-4.17336e-07,0
-2.46934e-05,3.17558e-05,-1.91619e-05,-4.27983e-05,1.92206e-06,-8.89093e-06,-8.95213e-06,-1.00152e-06,0
-1.14448e-05,6.05434e-05,-1.82549e-05,-3.69568e-05,-9.26955e-06,-1.16393e-05,-2.31077e-05,-3.16268e-06,0
1.02154e-05,7.2702e-05,-1.98732e-05,-2.54405e-05,-1.288e-05,-1.35319e-05,-5.47181e-05,-5.63304e-06,0
3.99098e-05,7.02129e-05,-2.19883e-05,-1.41501e-05,-6.90967e-06,-1.26783e-05,-7.34163e-05,-5.78066e-06,0
6.72357e-05,6.59134e-05,-2.28273e-05,-6.85098e-06,-1.04288e-06,-1.09296e-05,-5.54382e-05,-3.81072e-06,0
7.69613e-05,6.63816e-05,-2.29182e-05,-5.25345e-06,-2.24219e-06,-7.64424e-06,-1.10919e-05,-2.56268e-06,0
5.63037e-05,7.05975e-05,-2.19954e-05,-6.41086e-06,-6.76781e-06,-6.97601e-06,3.2313e-05,-2.44719e-06,0
4.95766e-06,7.47745e-05,-1.90573e-05,-4.18081e-06,-9.99821e-06,-9.24611e-06,5.73691e-05,-3.02737e-06,0
-6.25153e-05,7.23348e-05,-1.39526e-05,1.02908e-05,-1.12003e-05,-1.35153e-05,6.3088e-05,-3.68644e-06,0
-0.000122075,5.76362e-05,-8.60235e-06,3.43721e-05,-9.28805e-06,-1.72466e-05,5.80633e-05,-5.18861e-06,0
-0.000161124,2.95718e-05,-5.16308e-06,5.43688e-05,-1.19005e-06,-2.4741e-05,5.01385e-05,-5.93301e-06,0
-0.000182077,7.05725e-07,-1.75248e-06,6.38659e-05,1.37429e-05,-3.84576e-05,4.32449e-05,-4.59532e-06,0
-0.000182996,-1.7585e-05,3.42051e-06,7.01844e-05,3.26186e-05,-5.20013e-05,3.74802e-05,-1.91834e-06,0
-0.000158828,-2.29267e-05,9.40035e-06,7.85663e-05,4.87166e-05,-5.27081e-05,3.33031e-05,1.02935e-06,0
-0.00011318,-2.68688e-05,1.33029e-05,8.54207e-05,5.3945e-05,-4.13674e-05,3.26563e-05,2.32928e-06,0
-6.50346e-05,-3.9242e-05,1.37611e-05,8.56648e-05,4.86529e-05,-2.61251e-05,3.68321e-05,1.11203e-06,0
-3.73641e-05,-5.89983e-05,1.11697e-05,7.36544e-05,4.89906e-05,-4.5956e-06,4.2889e-05,-1.0038e-06,0
-3.92923e-05,-6.76158e-05,8.97804e-06,4.81223e-05,6.02568e-05,2.69081e-05,4.56901e-05,-1.25659e-06,0
-4.85955e-05,-4.22802e-05,1.00662e-05,1.81114e-05,8.3744e-05,6.35967e-05,3.84577e-05,1.53726e-06,0
-2.78447e-05,1.29999e-05,1.11783e-05,-7.07593e-06,0.000118532,7.67677e-05,1.93876e-05,3.91956e-06,0
1.4027e-05,6.74852e-05,9.36578e-06,-2.56844e-05,0.000124868,3.58092e-05,4.35009e-07,5.29709e-06,0
4.09182e-05,0.000113831,5.12921e-06,-3.46958e-05,6.86467e-05,-2.38222e-05,8.49934e-07,4.23496e-06,0
4.57129e-05,0.000134523,1.4217e-06,-3.28579e-05,-1.25273e-05,-4.40462e-05,1.82017e-05,-2.95814e-07,0
2.10171e-05,0.000104255,-1.81877e-06,-3.07604e-05,-7.03819e-05,-2.80818e-05,3.83227e-05,-1.87403e-06,0
-2.85442e-05,3.06035e-05,-6.36981e-06,-3.66984e-05,-9.68303e-05,-8.11136e-06,6.35511e-05,1.94067e-07,0
-6.60061e-05,-4.14362e-05,-8.69515e-06,-4.5084e-05,-9.03621e-05,6.02494e-06,7.89978e-05,1.75955e-06,0
-6.88657e-05,-6.64085e-05,-9.63576e-06,-4.94511e-05,-6.21521e-05,1.07663e-05,6.12682e-05,1.10598e-06,0
-5.66823e-05,-5.82138e-05,-1.04002e-05,-4.64543e-05,-2.97138e-05,-4.73643e-07,1.54198e-05,1.65376e-06,0
-5.25102e-05,-3.91772e-05,-1.07601e-05,-3.53995e-05,-5.93456e-06,-1.59163e-05,-3.85175e-05,5.25137e-06,0
-5.3535e-05,-2.15697e-05,-1.24925e-05,-2.20447e-05,1.19561e-05,-1.95958e-05,-8.09911e-05,8.68446e-06,0
-4.1766e-05,-8.41811e-06,-1.76948e-05,-1.53863e-05,3.41365e-05,-1.3961e-05,-9.72993e-05,9.18386e-06,0
-6.74169e-06,-2.36579e-06,-2.40342e-05,-1.4487e-05,5.34393e-05,-9.61707e-06,-8.55572e-05,8.36225e-06,0
4.19657e-05,-3.93924e-06,-2.70543e-05,-1.32696e-05,5.47784e-05,-7.90954e-06,-5.8545e-05,7.80379e-06,0
7.36863e-05,-7.15825e-06,-2.66776e-05,-8.58064e-06,3.98655e-05,-7.16091e-06,-3.22977e-05,7.63831e-06,0
6.85179e-05,-5.86225e-06,-2.43861e-05,-1.89684e-06,2.4967e-05,-8.18707e-06,-2.26018e-05,6.78674e-06,0
3.6041e-05,5.9784e-06,-2.24281e-05,8.02284e-07,1.63411e-05,-1.53147e-05,-3.34582e-05,4.79088e-06,0
1.57661e-06,2.469e-05,-1.96986e-05,-3.55015e-06,9.61262e-06,-2.55801e-05,-4.75375e-05,2.50422e-06,0
-1.6894e-05,4.00098e-05,-1.3418e-05,-1.17824e-05,2.13121e-06,-2.91913e-05,-4.44885e-05,4.33932e-07,0
-2.04054e-05,4.3924e-05,1.73022e-07,-1.7438e-05,-9.85619e-07,-2.16954e-05,-2.39146e-05,1.41014e-07,0
-1.52346e-05,4.40464e-05,2.10705e-05,-1.83689e-05,1.64157e-06,-1.2961e-05,-4.89887e-06,1.71619e-06,0
-7.98535e-06,4.88323e-05,4.51718e-05,-1.31253e-05,7.04264e-06,-1.12373e-05,-7.65328e-06,2.52151e-06,0
-5.38571e-07,5.66229e-05,6.63297e-05,1.17887e-06,1.23641e-05,-1.4919e-05,-3.07615e-05,8.44216e-07,0
3.52328e-06,5.34393e-05,7.88708e-05,2.04908e-05,1.52927e-05,-1.96891e-05,-4.53504e-05,-1.67599e-06,0
3.61318e-06,2.85785e-05,7.48337e-05,3.21116e-05,1.11322e-05,-2.28048e-05,-3.12131e-05,-3.08211e-06,0
-1.76135e-06,-5.35857e-07,5.03896e-05,2.90389e-05,-2.4826e-06,-2.25512e-05,1.90956e-06,-8.65413e-07,0
-5.67155e-06,-3.81249e-06,1.40313e-05,1.6377e-05,-2.44779e-05,-1.79453e-05,3.39705e-05,3.06319e-06,0
8.47089e-06,1.53743e-05,-1.93759e-05,2.76993e-06,-3.87818e-05,-1.1885e-05,5.71525e-05,4.82412e-06,0
2.96704e-05,2.35951e-05,-3.80721e-05,-8.26758e-06,-3.32828e-05,-6.41475e-06,6.86645e-05,4.60535e-06,0
2.65618e-05,-1.26639e-05,-3.85786e-05,-1.79414e-05,-2.14788e-05,-1.89563e-06,7.23961e-05,2.69584e-06,0
1.87931e-06,-6.84227e-05,-2.70453e-05,-2.67635e-05,-1.15039e-05,2.49575e-06,9.14957e-05,6.25717e-07,0
-2.01211e-05,-9.25613e-05,-2.16187e-05,-2.99489e-05,4.39177e-07,1.06506e-05,0.000104012,-1.30375e-06,0
-2.68777e-05,-7.58514e-05,-3.16732e-05,-2.54195e-05,1.30873e-05,2.11199e-05,4.06455e-05,-3.31852e-06,0
-2.36808e-05,-4.00302e-05,-5.17003e-05,-1.44302e-05,2.10101e-05,2.39922e-05,-4.98009e-05,-2.93432e-06,0
-2.8723e-05,-2.10811e-05,-6.58066e-05,-1.31241e-06,1.19905e-05,1.61035e-05,-5.3005e-05,-1.15161e-06,0
-4.42656e-05,-8.84854e-06,-6.15007e-05,3.66423e-06,-2.15311e-05,5.89286e-06,3.79801e-05,6.71316e-07,0
-5.45065e-05,1.55378e-05,-4.26126e-05,3.65178e-06,-5.69785e-05,2.64808e-06,0.000141811,2.03138e-06,0
-5.00411e-05,4.60394e-05,-2.18776e-05,5.27322e-06,-6.95669e-05,4.43265e-06,0.000183236,2.16963e-06,0
-4.99464e-05,7.10539e-05,-7.02731e-06,5.84576e-06,-5.3081e-05,-6.24961e-06,0.000156653,6.10409e-07,0
-8.37206e-05,7.26595e-05,7.01086e-07,3.29134e-06,-1.14092e-05,-3.42577e-05,9.83039e-05,-1.50634e-06,0
-0.00013049,4.25426e-05,-3.80747e-06,-2.25762e-06,3.67333e-05,-5.43224e-05,5.25886e-05,-2.11655e-06,0
-0.000144491,-6.49641e-06,-2.15683e-05,-9.64737e-06,7.53767e-05,-5.4861e-05,2.82834e-05,-1.14474e-06,0
-0.000123568,-4.12294e-05,-4.61447e-05,-1.65763e-05,0.000116313,-4.38166e-05,1.08937e-05,-4.22786e-07,0
-9.83945e-05,-4.4436e-05,-6.86117e-05,-1.88089e-05,0.000169068,-2.99221e-05,-6.3617e-06,-3.55001e-07,0
-8.68255e-05,-2.84404e-05,-8.13038e-05,-1.65948e-05,0.000210053,-1.83962e-05,-1.61576e-05,-4.93845e-07,0
-8.12708e-05,-1.22852e-05,-8.01758e-05,-7.82766e-06,0.00020946,-1.1144e-05,-1.14553e-05,-9.58687e-07,0
-7.47054e-05,4.27237e-06,-6.95093e-05,1.16401e-05,0.000170815,-7.93519e-06,1.77107e-06,-1.34847e-06,0
-6.72627e-05,1.91702e-05,-5.67733e-05,3.11452e-05,0.00012042,-7.99043e-06,1.61293e-05,-1.55984e-06,0
-6.11494e-05,2.12923e-05,-4.41981e-05,3.12852e-05,7.63994e-05,-1.01622e-05,2.60431e-05,-1.16419e-06,0
-5.32446e-05,5.94777e-06,-3.22125e-05,1.0138e-05,4.39105e-05,-1.20926e-05,2.77267e-05,-1.76636e-06,0
-4.0812e-05,-3.043e-05,-2.16623e-05,-1.7209e-05,1.95277e-05,-1.2052e-05,1.70576e-05,-2.05485e-06,0
-2.65565e-05,-7.44253e-05,-1.18166e-05,-3.80438e-05,-2.75688e-06,-9.00453e-06,3.99863e-06,6.22077e-07,0
-1.64614e-05,-9.19108e-05,-3.36332e-06,-4.54962e-05,-2.51979e-05,-5.03871e-06,-1.61509e-06,1.10908e-05,0
-1.63019e-05,-5.8653e-05,3.20206e-06,-4.04808e-05,-4.04504e-05,-5.06756e-06,2.40473e-06,2.76633e-05,0
-2.54807e-05,2.75188e-05,8.90824e-06,-3.28332e-05,-4.37198e-05,-1.13749e-05,9.25064e-06,3.59231e-05,0
-3.42088e-05,0.000121541,1.15785e-05,-3.20345e-05,-3.9704e-05,-1.6677e-05,9.97883e-06,3.38359e-05,0
-3.73568e-05,0.000157004,9.40114e-06,-2.9133e-05,-4.25764e-05,-1.63523e-05,-4.60566e-06,2.32146e-05,0
-3.56578e-05,0.000138188,5.85684e-06,-8.46363e-06,-5.90645e-05,-1.37837e-05,-3.36419e-05,4.26591e-06,0
-3.01394e-05,0.000113881,4.64385e-06,2.26581e-05,-6.27794e-05,-9.84967e-06,-6.9477e-05,-1.74557e-05,0
-2.2284e-05,9.93928e-05,4.88201e-06,4.2398e-05,-8.19324e-06,-5.76806e-06,-9.19455e-05,-3.70498e-05,0
-1.33885e-05,8.56701e-05,6.84706e-06,5.24751e-05,9.7416e-05,-9.93984e-06,-8.68435e-05,-4.59685e-05,0
-7.17817e-06,6.31885e-05,8.31063e-06,6.18516e-05,0.00016529,-1.25632e-05,-6.3706e-05,-4.38169e-05,0
-1.81232e-06,2.47323e-05,8.51876e-06,5.72027e-05,0.000146203,8.58807e-06,-3.32087e-05,-3.6824e-05,0
7.75176e-06,-1.45053e-05,8.11088e-06,3.30365e-05,7.95504e-05,3.09806e-05,-4.73262e-06,-3.05008e-05,0
1.8161e-05,-2.99401e-05,4.04597e-06,3.77309e-06,1.77982e-05,1.25136e-05,1.77466e-05,-2.25425e-05,0
2.00694e-05,-1.19618e-05,-7.84811e-07,-1.75863e-05,-2.83308e-05,-1.40063e-05,3.2436e-05,-1.01462e-05,0
1.42583e-05,1.94513e-05,-3.38708e-06,-2.95245e-05,-6.6903e-05,-3.01233e-06,3.94726e-05,6.67868e-07,0
6.67748e-06,4.45896e-05,-6.25858e-06,-3.78253e-05,-9.65196e-05,2.12159e-05,3.94765e-05,5.06794e-06,0
1.38027e-06,5.73625e-05,-1.08432e-05,-4.83827e-05,-0.000118377,2.25164e-05,3.50157e-05,5.27237e-06,0
5.14026e-06,5.37431e-05,-1.45323e-05,-5.52764e-05,-0.000134303,5.44175e-08,3.01711e-05,5.85738e-06,0
1.77423e-05,3.12004e-05,-1.45445e-05,-5.01968e-05,-0.000138261,-2.35024e-05,2.70825e-05,8.65689e-06,0
2.1936e-05,-6.52971e-06,-1.19089e-05,-3.91804e-05,-0.000120334,-3.46374e-05,2.22008e-05,1.26235e-05,0
5.14675e-06,-3.79987e-05,-9.50367e-06,-3.30639e-05,-8.77899e-05,-3.22126e-05,1.21467e-05,1.45284e-05,0
-1.97527e-05,-4.12654e-05,-7.88063e-06,-3.30177e-05,-5.17063e-05,-2.0095e-05,1.17871e-06,1.31506e-05,0
-3.27606e-05,-1.71012e-05,-5.46619e-06,-3.10725e-05,-1.91952e-05,-5.01334e-06,-2.52007e-06,8.09094e-06,0
-3.97605e-05,1.5399e-05,-3.03824e-06,-2.31348e-05,4.94435e-06,5.38921e-06,3.25983e-06,2.28318e-06,0
-5.03549e-05,3.84928e-05,-2.27074e-06,-1.53607e-05,1.8806e-05,9.49661e-06,1.36195e-05,-2.50476e-06,0
-5.26268e-05,4.23515e-05,-6.02814e-07,-1.57466e-05,2.12073e-05,6.32963e-06,2.44476e-05,-6.8646e-06,0
-5.47986e-05,3.85392e-05,5.68837e-06,-2.05809e-05,1.03577e-05,-1.08306e-05,3.43497e-05,-9.68342e-06,0
-7.65332e-05,3.59895e-05,1.33149e-05,-1.72113e-05,-1.00276e-06,-3.8735e-05,4.01552e-05,-8.18563e-06,0
-0.000111244,3.65918e-05,1.55278e-05,3.45245e-06,1.08563e-05,-5.03201e-05,4.12693e-05,-3.98451e-06,0
-0.000142882,4.27231e-05,1.16956e-05,3.45821e-05,4.25262e-05,-3.51524e-05,4.17945e-05,-5.33383e-08,0
-0.000158222,4.12544e-05,7.46021e-06,5.71273e-05,5.34135e-05,-2.12705e-05,4.22413e-05,2.2846e-06,0
-0.000155378,2.39953e-05,5.65342e-06,5.76774e-05,2.05347e-05,-2.31936e-05,4.09549e-05,3.90676e-06,0
-0.000144808,8.59385e-06,4.1313e-06,3.61245e-05,2.71469e-06,-2.65026e-05,3.89342e-05,6.00671e-06,0
-0.000123818,5.82475e-07,2.18545e-06,5.62569e-07,2.05713e-05,-3.43735e-05,3.64033e-05,5.92424e-06,0
-7.07606e-05,-4.07905e-06,3.84238e-07,-3.98038e-05,8.39657e-06,-4.92167e-05,3.41406e-05,2.77394e-06,0
-6.91683e-06,2.89955e-07,-3.01665e-06,-7.10535e-05,-2.67601e-05,-4.99257e-05,3.20295e-05,-5.68975e-07,0
2.40089e-05,1.36752e-05,-7.75745e-06,-8.83184e-05,-4.16778e-05,-3.86863e-05,2.7536e-05,-1.11332e-06,0
2.78438e-05,2.44752e-05,-1.08214e-05,-9.68696e-05,-3.22544e-05,-2.79493e-05,2.20054e-05,-1.37441e-06,0
2.49914e-05,1.92088e-05,-1.14349e-05,-9.45138e-05,-1.55436e-05,-2.08131e-05,1.87377e-05,-2.99155e-06,0
2.1761e-05,1.17239e-06,-1.0415e-05,-8.01889e-05,-6.76003e-06,-1.64473e-05,1.67888e-05,-2.58486e-06,0
1.5518e-05,-1.89938e-05,-1.0063e-05,-6.13762e-05,-2.22399e-06,-1.45121e-05,1.43952e-05,2.77931e-07,0
6.04556e-06,-3.03652e-05,-1.01862e-05,-4.35474e-05,4.08721e-06,-1.21233e-05,1.23767e-05,2.1326e-06,0
-3.00314e-06,-2.73291e-05,-8.0132e-06,-2.41641e-05,1.77867e-05,-6.65314e-06,1.04999e-05,3.40804e-06,0
-8.04127e-06,-8.49569e-06,-1.90264e-06,-1.04805e-06,3.53997e-05,-1.19314e-06,8.33553e-06,5.37734e-06,0
-9.16236e-06,1.95494e-05,5.6046e-06,2.44299e-05,5.19029e-05,1.01405e-06,7.54142e-06,7.659e-06,0
-9.39399e-06,4.01939e-05,8.93906e-06,4.65039e-05,6.22406e-05,1.52113e-06,9.39908e-06,9.94135e-06,0
-1.08508e-05,3.9803e-05,6.22621e-06,5.83908e-05,6.44064e-05,2.09092e-06,1.16049e-05,1.08631e-05,0
-1.23461e-05,1.70377e-05,1.39813e-06,6.01606e-05,5.7302e-05,8.19356e-07,1.20432e-05,1.07872e-05,0
-1.14592e-05,-1.56714e-05,-3.10837e-07,5.66497e-05,4.68405e-05,-1.65261e-06,1.04846e-05,1.09652e-05,0
-9.0449e-06,-4.01367e-05,7.89858e-07,5.15465e-05,4.05665e-05,-3.24145e-06,8.13954e-06,1.05153e-05,0
-6.57236e-06,-4.13136e-05,1.44576e-06,4.48369e-05,4.10913e-05,-2.13926e-06,5.94596e-06,8.82259e-06,0
-4.95101e-06,-1.46058e-05,-1.40921e-07,3.69722e-05,4.48342e-05,9.09399e-08,3.23775e-06,7.25701e-06,0
-4.70915e-06,3.15718e-05,-3.428e-06,3.00045e-05,4.47692e-05,6.76503e-07,-2.8722e-07,7.16122e-06,0
-6.08037e-06,7.39325e-05,-8.03095e-06,2.41274e-05,3.73664e-05,-1.58229e-06,-2.67352e-06,8.53845e-06,0
-6.84884e-06,9.00882e-05,-1.25706e-05,1.81519e-05,2.74816e-05,-3.41467e-06,-2.5607e-06,8.69637e-06,0
-6.84861e-06,8.12709e-05,-1.45125e-05,1.06105e-05,2.25158e-05,-5.56655e-06,-1.49806e-06,8.41029e-06,0
-6.32855e-06,6.11409e-05,-1.43439e-05,7.37682e-08,2.30819e-05,-8.72382e-06,1.44266e-07,9.6581e-06,0
-6.71079e-06,4.68612e-05,-1.39097e-05,-1.46596e-05,2.56247e-05,-1.05224e-05,1.97308e-06,1.03954e-05,0
-7.01868e-06,4.49339e-05,-1.47658e-05,-3.60682e-05,2.47663e-05,-8.98154e-06,3.01318e-06,1.04147e-05,0
-8.35385e-06,4.21667e-05,-1.61327e-05,-5.3978e-05,2.1406e-05,-5.58665e-06,2.0049e-06,8.55882e-06,0
-1.5326e-05,2.65195e-05,-1.53382e-05,-5.10037e-05,2.02147e-05,-3.49992e-06,1.75953e-07,3.94385e-06,0
-2.67865e-05,-2.17597e-06,-1.21681e-05,-2.57154e-05,2.42342e-05,-1.62672e-06,1.821e-06,5.81212e-07,0
-3.98009e-05,-3.59655e-05,-7.81409e-06,6.78576e-06,2.75687e-05,-1.04067e-07,6.3941e-06,2.62849e-07,0
-4.87338e-05,-5.80314e-05,-4.12816e-06,2.7849e-05,2.56723e-05,8.25595e-08,1.08228e-05,1.03946e-06,0
-4.93354e-05,-5.19908e-05,-1.71893e-06,3.42704e-05,2.30467e-05,-1.42093e-06,1.34035e-05,1.50662e-06,0
-4.36318e-05,-2.5987e-05,3.18941e-07,2.8554e-05,2.41644e-05,-3.42322e-06,1.72217e-05,5.68933e-07,0
-3.38444e-05,2.53232e-06,1.51032e-06,1.44127e-05,2.06687e-05,-4.43241e-06,2.10115e-05,-7.22225e-08,0
-2.1218e-05,2.69321e-05,1.60934e-06,-1.51832e-06,7.54283e-06,-5.16791e-06,2.3311e-05,-2.15117e-07,0
-2.01927e-06,4.24903e-05,-3.48464e-07,-1.37703e-05,-4.33302e-06,-5.39397e-06,2.72977e-05,-1.5146e-06,0
2.06845e-05,4.56689e-05,-2.4422e-06,-1.75552e-05,-5.21148e-06,-4.52115e-06,3.32287e-05,-2.75132e-06,0
2.8464e-05,3.15055e-05,-2.26056e-06,-1.01946e-05,1.68133e-06,-3.41901e-06,3.74426e-05,-3.73351e-06,0
1.35619e-05,4.58967e-06,-2.06626e-07,7.13548e-06,7.29578e-06,-2.55429e-06,3.69028e-05,-4.63881e-06,0
-1.16835e-05,-1.44797e-05,1.04487e-06,2.10862e-05,7.72307e-06,-3.32412e-06,3.60323e-05,-4.17856e-06,0
-3.37054e-05,-1.39011e-05,7.78286e-07,1.79256e-05,5.87829e-06,-7.73701e-06,3.86525e-05,-2.05971e-06,0
-5.11423e-05,-1.34092e-07,1.29651e-06,1.40489e-06,9.16703e-06,-1.6391e-05,4.20185e-05,-6.53052e-07,0
-6.67934e-05,1.50182e-05,2.30903e-06,-1.04383e-05,1.72132e-05,-2.61111e-05,3.93829e-05,-1.39976e-06,0
-8.05004e-05,2.29245e-05,1.47569e-06,-5.87021e-06,1.67614e-05,-3.10315e-05,3.04061e-05,-2.76561e-06,0
-8.64368e-05,1.85765e-05,-1.19626e-06,9.01227e-06,1.27668e-06,-2.89156e-05,1.66698e-05,-2.19788e-06,0
-7.8007e-05,6.3679e-06,-2.78195e-06,1.85392e-05,-1.46454e-05,-2.35778e-05,-5.47562e-06,6.0386e-07,0
-6.09728e-05,-6.33165e-06,-3.18672e-06,1.79882e-05,-1.54006e-05,-1.77756e-05,-4.06959e-05,3.29578e-06,0
-4.68527e-05,-1.56423e-05,-4.60217e-06,1.47183e-05,-5.18526e-06,-1.3661e-05,-7.57476e-05,4.64624e-06,0
-3.96889e-05,-1.63627e-05,-7.46889e-06,1.24424e-05,2.322e-06,-2.04097e-05,-8.39398e-05,5.64649e-06,0
-3.56384e-05,3.34342e-08,-9.68585e-06,9.65962e-06,3.63603e-06,-3.72824e-05,-5.84455e-05,7.0356e-06,0
-3.24687e-05,2.70774e-05,-1.08589e-05,5.13252e-06,5.07992e-06,-4.69377e-05,-1.62764e-05,6.9525e-06,0
-3.44045e-05,4.07561e-05,-1.09554e-05,2.12267e-06,1.08054e-05,-4.6304e-05,2.13143e-05,5.33748e-06,0
-4.13652e-05,3.28903e-05,-1.04605e-05,5.22446e-06,8.79355e-06,-4.35573e-05,4.40112e-05,4.54535e-06,0
-4.40633e-05,1.08911e-05,-1.12881e-05,1.24606e-05,-1.65043e-05,-3.21717e-05,4.8518e-05,3.8651e-06,0
-4.02593e-05,-1.05631e-05,-1.36673e-05,1.95337e-05,-4.4978e-05,-1.36045e-05,4.24122e-05,4.34286e-06,0
-3.66725e-05,-3.49297e-05,-1.70631e-05,2.24922e-05,-4.96511e-05,1.50076e-05,3.74927e-05,6.61185e-06,0
-3.06341e-05,-6.63161e-05,-1.94138e-05,1.73285e-05,-3.62736e-05,4.78243e-05,3.1131e-05,7.84566e-06,0
-2.02156e-05,-8.0655e-05,-1.92503e-05,4.52651e-06,-1.33261e-05,4.71327e-05,2.25714e-05,7.51958e-06,0
-1.71111e-05,-7.77976e-05,-1.88038e-05,-1.23039e-05,1.18246e-05,1.80748e-05,1.91679e-05,3.73076e-06,0
-2.04135e-05,-6.57507e-05,-1.76022e-05,-2.59303e-05,2.82048e-05,-8.75713e-06,2.25708e-05,-2.94344e-06,0
-1.53493e-05,-3.55753e-05,-1.62739e-05,-2.79155e-05,3.39942e-05,-1.8015e-05,2.58379e-05,-7.65608e-06,0
-2.42278e-06,1.22735e-05,-1.55294e-05,-2.06964e-05,4.19195e-05,-1.3982e-05,2.5843e-05,-7.91003e-06,0
3.01137e-06,5.21792e-05,-1.46921e-05,-1.53617e-05,6.7694e-05,-7.81564e-06,2.3182e-05,-6.19266e-06,0
-6.43986e-06,6.50457e-05,-1.47224e-05,-1.80562e-05,9.75718e-05,-3.54242e-06,1.82172e-05,-4.91725e-06,0
-1.98688e-05,6.03987e-05,-1.53603e-05,-2.53555e-05,0.000101649,-3.12354e-06,1.23161e-05,-3.4008e-06,0
-2.98151e-05,4.91988e-05,-1.56932e-05,-3.10067e-05,7.94739e-05,-5.01023e-06,7.16056e-06,-2.47212e-06,0
-4.69524e-05,3.39013e-05,-1.473e-05,-3.16601e-05,5.26363e-05,-9.5133e-06,2.32212e-06,-2.79416e-06,0
-7.60445e-05,1.23241e-05,-1.32497e-05,-2.64929e-05,3.49496e-05,-1.40188e-05,-4.31227e-06,-3.68856e-06,0
-9.97412e-05,-6.67333e-06,-1.08962e-05,-1.87615e-05,2.65221e-05,-1.59635e-05,-8.92357e-06,-3.30469e-06,0
-9.71571e-05,-9.04635e-06,-8.14522e-06,-1.54981e-05,2.0724e-05,-9.6591e-06,-8.181e-06,-1.14151e-06,0
-6.45488e-05,7.64584e-06,-6.195e-06,-2.12698e-05,1.28254e-05,2.52671e-06,-3.54968e-06,8.47273e-07,0
-2.50666e-05,3.01459e-05,-5.88585e-06,-3.16034e-05,3.9013e-06,1.25783e-05,6.45062e-07,4.92278e-07,0
-1.98e-05,4.4245e-05,-7.1396e-06,-3.84019e-05,-2.37189e-06,1.5398e-05,5.02205e-06,-1.87227e-06,0
-6.06947e-05,4.59164e-05,-9.19499e-06,-3.73011e-05,-5.77566e-06,1.17642e-05,1.09407e-05,-2.74844e-06,0
-0.000102099,4.62894e-05,-1.17859e-05,-3.28455e-05,-5.67649e-06,-2.67339e-07,1.61856e-05,-1.23455e-06,0
-9.05897e-05,5.77502e-05,-1.36236e-05,-2.84925e-05,2.22225e-06,-1.6144e-05,1.91232e-05,-6.54923e-07,0
-2.89679e-05,7.88873e-05,-1.28956e-05,-2.03257e-05,1.91712e-05,-2.44722e-05,2.03778e-05,-2.07281e-06,0
2.96062e-05,0.000100715,-1.09781e-05,-7.53651e-06,3.54448e-05,-2.23561e-05,1.85046e-05,-2.94214e-06,0
5.7141e-05,0.000107164,-9.37153e-06,5.11478e-06,3.82641e-05,-2.10749e-05,1.5291e-05,-1.59938e-06,0
7.50653e-05,8.06812e-05,-8.5659e-06,1.21531e-05,2.69306e-05,-3.14126e-05,1.56441e-05,9.16631e-07,0
8.71069e-05,3.59968e-05,-1.01402e-05,1.07987e-05,1.36625e-05,-4.89992e-05,1.76295e-05,4.59738e-07,0
7.04456e-05,1.55863e-05,-1.28677e-05,2.99238e-06,7.88715e-06,-6.26864e-05,1.79906e-05,-2.47156e-06,0
2.23247e-05,2.90585e-05,-1.46027e-05,-4.6907e-06,9.54864e-06,-6.46553e-05,1.49994e-05,-3.68954e-06,0
-2.48681e-05,4.99241e-05,-1.57149e-05,-7.37088e-06,1.33025e-05,-5.67744e-05,8.63668e-06,-2.24973e-06,0
-4.95043e-05,4.71721e-05,-1.54351e-05,-7.36675e-06,1.3442e-05,-4.37244e-05,2.37139e-06,1.62446e-06,0
-6.25357e-05,6.93187e-06,-1.2545e-05,-6.58028e-06,6.33053e-06,-1.64378e-05,1.40782e-06,4.22217e-06,0
-7.52084e-05,-5.4476e-05,-9.84194e-06,-3.27557e-06,1.24121e-05,4.34846e-05,4.07623e-06,3.55727e-06,0
-8.75307e-05,-9.86837e-05,-1.10755e-05,2.18891e-07,3.9278e-05,8.73995e-05,2.14107e-06,9.4219e-07,0
-8.71542e-05,-0.000109656,-1.42135e-05,2.54647e-06,6.44e-05,6.80471e-05,-3.15263e-06,-1.16494e-06,0
-7.62668e-05,-0.000101686,-1.50002e-05,7.033e-06,8.41108e-05,2.43175e-05,-4.35984e-06,-1.55779e-06,0
-6.79341e-05,-9.13005e-05,-1.30571e-05,1.27031e-05,8.91193e-05,-1.63938e-06,1.57206e-06,-1.1339e-06,0
-6.6421e-05,-8.02802e-05,-9.55276e-06,1.54613e-05,6.4801e-05,-3.22109e-06,1.11882e-05,-5.58811e-07,0
-6.29863e-05,-5.9614e-05,-6.28233e-06,1.55388e-05,1.87833e-05,3.76346e-06,1.93798e-05,-9.59507e-07,0
-4.79391e-05,-3.00044e-05,-4.96727e-06,1.25707e-05,-2.32941e-05,9.96707e-06,2.50308e-05,-1.67021e-06,0
-2.88464e-05,-1.66633e-05,-5.4115e-06,4.12065e-06,-4.6184e-05,1.28233e-05,2.67417e-05,-2.15461e-06,0
-1.60252e-05,-4.07065e-05,-5.21657e-06,-8.93402e-06,-5.14908e-05,1.30437e-05,2.24055e-05,-2.26705e-06,0
-7.17933e-06,-7.43195e-05,-3.86254e-06,-1.9581e-05,-4.70446e-05,1.05732e-05,1.34261e-05,-1.70515e-06,0
5.64908e-06,-8.06117e-05,-1.56787e-06,-2.09285e-05,-3.81374e-05,1.74155e-06,1.99702e-06,-3.12181e-07,0
1.7169e-05,-5.34815e-05,1.20912e-06,-1.24681e-05,-2.07456e-05,-1.13215e-05,-1.95386e-05,2.54943e-07,0
1.61502e-05,-1.1293e-05,3.65294e-06,7.02128e-07,6.73352e-06,-2.27553e-05,-5.56519e-05,-2.00849e-07,0
-7.51836e-07,2.21846e-05,2.66395e-06,1.30674e-05,3.78093e-05,-2.70218e-05,-8.99117e-05,4.84805e-07,0
-2.57075e-05,3.97562e-05,-3.97461e-06,2.20684e-05,6.21341e-05,-2.56482e-05,-9.64242e-05,1.53531e-06,0
-4.24728e-05,4.97813e-05,-1.03818e-05,2.45595e-05,6.84397e-05,-2.07654e-05,-6.78228e-05,2.13723e-06,0
-3.27212e-05,5.98586e-05,-1.33469e-05,1.76754e-05,5.14389e-05,-1.5653e-05,-1.46681e-05,1.92454e-06,0
1.00608e-05,7.01768e-05,-1.51307e-05,2.36505e-06,2.67138e-05,-1.1805e-05,4.37101e-05,5.94893e-07,0
5.26268e-05,7.52448e-05,-1.64349e-05,-1.06531e-05,1.21705e-05,-8.87926e-06,7.75182e-05,-9.16214e-07,0
5.49754e-05,7.13514e-05,-1.51164e-05,-1.55652e-05,8.91302e-06,-4.19916e-06,7.65433e-05,-1.78203e-06,0
2.08594e-05,6.04412e-05,-8.93732e-06,-1.71613e-05,5.99007e-06,-6.17134e-07,6.73531e-05,1.01832e-07,0
-2.91735e-05,4.79203e-05,-1.45865e-06,-1.69338e-05,-2.3809e-06,-2.2858e-06,7.48843e-05,1.1389e-06,0
-7.54558e-05,4.03111e-05,8.07133e-06,-1.18619e-05,-9.33969e-06,-7.5163e-06,9.49743e-05,9.77691e-07,0
-0.00010002,4.0338e-05,2.56169e-05,8.68716e-06,-5.1856e-06,-1.08505e-05,0.000112112,4.57972e-06,0
-0.000100775,3.75199e-05,4.96738e-05,3.09807e-05,3.50908e-06,-3.2675e-06,0.000123309,1.29028e-05,0
-8.99872e-05,2.5828e-05,7.45265e-05,2.78612e-05,3.62067e-06,1.40637e-05,0.000132727,2.13346e-05,0
-6.89349e-05,1.85461e-05,9.52503e-05,7.11664e-06,-5.76498e-06,2.9447e-05,0.000140396,2.26717e-05,0
-4.72245e-05,2.73527e-05,0.000101174,-8.13776e-06,-2.20878e-05,3.61395e-05,0.000147238,1.73071e-05,0
-4.44775e-05,4.43735e-05,8.3379e-05,-8.62815e-06,-3.15064e-05,3.03088e-05,0.000151819,1.03727e-05,0
-5.6692e-05,5.59762e-05,4.43769e-05,2.42794e-06,-1.02314e-05,-2.36274e-06,0.000133997,4.84603e-06,0
-6.68826e-05,6.12908e-05,-6.31829e-06,2.16345e-05,3.9697e-05,-6.68282e-05,7.94268e-05,-3.53127e-07,0
-6.70925e-05,6.19266e-05,-5.79873e-05,4.20578e-05,8.54803e-05,-0.000111773,4.59255e-06,-3.75433e-06,0
-6.39778e-05,5.09418e-05,-0.000101369,4.78225e-05,9.74341e-05,-8.91029e-05,-6.02e-05,-5.86218e-06,0
-5.80814e-05,2.74236e-05,-0.00012694,3.06047e-05,6.84681e-05,-3.79075e-05,-9.20665e-05,-7.12928e-06,0
-4.55406e-05,1.36072e-05,-0.000130283,2.81545e-06,2.12131e-05,-1.30243e-05,-0.000100242,-6.03375e-06,0
-2.77742e-05,1.99688e-05,-0.00011464,-1.78605e-05,-1.31309e-05,-1.12871e-05,-0.00010824,-3.06966e-06,0
-1.42299e-05,2.26123e-05,-8.98569e-05,-2.70511e-05,-2.73209e-05,-4.91067e-06,-0.000118183,4.63928e-07,0
-8.90387e-06,-1.70024e-06,-6.61525e-05,-3.24219e-05,-3.28235e-05,6.40604e-06,-0.000113695,3.46814e-06,0
-6.43964e-06,-4.96421e-05,-4.90875e-05,-4.16835e-05,-3.28426e-05,7.79716e-06,-9.21569e-05,5.3677e-06,0
-4.97627e-06,-0.000103551,-3.79462e-05,-5.6614e-05,-2.40981e-05,1.00802e-06,-6.58919e-05,6.31567e-06,0
-1.19317e-05,-0.000136064,-3.21806e-05,-7.15335e-05,-8.39466e-06,-3.89682e-06,-4.0066e-05,7.68744e-06,0
-3.42497e-05,-0.000137574,-3.11072e-05,-7.61093e-05,8.33421e-06,-9.02913e-06,-8.34312e-06,8.93211e-06,0
-6.57297e-05,-0.000108302,-2.79784e-05,-6.5877e-05,2.14836e-05,-1.71689e-05,3.92238e-05,9.70271e-06,0
-9.1546e-05,-2.89024e-05,-2.10403e-05,-4.9431e-05,2.93482e-05,-2.26625e-05,9.87716e-05,1.08825e-05,0
-0.000101958,7.21425e-05,-1.51788e-05,-3.64117e-05,2.4601e-05,-2.24092e-05,0.000158501,1.23411e-05,0
-0.000100513,0.000130796,-1.23648e-05,-2.68844e-05,8.9356e-06,-1.86757e-05,0.000205262,1.26335e-05,0
-8.5565e-05,0.000121592,-1.22931e-05,-1.86198e-05,-5.65482e-06,-1.58049e-05,0.000223827,1.0914e-05,0
-5.44515e-05,7.42818e-05,-1.23966e-05,-1.23864e-05,-1.18171e-05,-1.46597e-05,0.000193571,7.93301e-06,0
-2.18037e-05,3.01383e-05,-9.10409e-06,-6.77258e-06,-1.13194e-05,-1.4722e-05,0.00010693,5.33117e-06,0
1.08135e-05,2.22999e-06,-4.53673e-06,-1.84793e-06,-5.39186e-06,-1.3946e-05,-1.15678e-05,4.93644e-06,0
5.32077e-05,1.58977e-06,-1.29259e-06,-3.66433e-06,4.19622e-06,-1.06515e-05,-0.000129942,5.84088e-06,0
9.03283e-05,3.26667e-05,2.10745e-06,-1.19805e-05,9.26441e-06,-6.16706e-06,-0.000209752,5.92348e-06,0
9.94534e-05,7.83418e-05,4.87665e-06,-2.34393e-05,1.00007e-05,-4.25733e-06,-0.000229519,7.58596e-06,0
7.85652e-05,0.000104575,3.93213e-06,-3.42288e-05,7.91289e-06,-4.39329e-06,-0.000200234,1.12666e-05,0
4.15323e-05,9.93008e-05,1.23859e-06,-3.77908e-05,6.30028e-06,-3.82031e-06,-0.000151381,1.38551e-05,0
-2.56488e-08,7.3909e-05,7.95104e-07,-3.24197e-05,5.17345e-06,-2.80069e-06,-0.00010501,1.29424e-05,0
-4.29752e-05,4.18233e-05,1.55364e-06,-2.67034e-05,1.25158e-06,-1.27103e-06,-6.37895e-05,9.44735e-06,0
-8.29693e-05,6.65206e-06,1.58785e-06,-2.73645e-05,-6.67447e-06,-7.40244e-07,-2.84452e-05,4.24322e-06,0
-0.000108469,-2.65431e-05,1.5056e-06,-3.10331e-05,-1.62786e-05,-2.46359e-06,-1.95074e-07,-3.865e-07,0
-0.000112049,-4.33146e-05,1.16877e-06,-3.23003e-05,-2.47613e-05,-5.74235e-06,1.71868e-05,-2.77932e-06,0
-9.69754e-05,-3.58838e-05,-1.24125e-07,-2.78114e-05,-3.14161e-05,-1.04254e-05,2.64352e-05,-3.65027e-06,0
-7.00878e-05,1.88851e-06,-9.20257e-07,-1.69237e-05,-2.22992e-05,-1.67256e-05,2.85034e-05,-3.38243e-06,0
-3.20842e-05,5.31747e-05,7.70637e-08,-6.6329e-08,2.79226e-05,-2.17987e-05,2.21498e-05,-4.00307e-06,0
1.00513e-05,8.43033e-05,1.52833e-06,1.95621e-05,0.000109107,-2.27285e-05,8.37411e-06,-5.99766e-06,0
3.38059e-05,7.4185e-05,2.09643e-06,3.73653e-05,0.000153684,-2.01921e-05,-3.01831e-06,-7.32561e-06,0
2.59867e-05,2.64365e-05,1.54175e-06,5.01274e-05,0.000127243,-1.63243e-05,-3.9051e-06,-6.0462e-06,0
3.3876e-06,-3.34226e-05,-1.0369e-07,5.58412e-05,7.57439e-05,-1.05849e-05,-6.24995e-07,-3.55141e-06,0
-1.09206e-05,-5.28045e-05,-3.45353e-06,5.22872e-05,4.94739e-05,-2.28552e-06,-6.4412e-06,-1.82545e-06,0
-1.9678e-05,-1.3749e-05,-7.33322e-06,4.48126e-05,3.52144e-05,2.66661e-06,-1.66082e-05,-7.93233e-07,0
-4.03818e-05,2.43606e-05,-8.23968e-06,4.20418e-05,3.79611e-06,4.70334e-07,-7.94413e-06,1.03486e-06,0
-6.97074e-05,3.1312e-05,-6.59129e-06,4.35154e-05,-3.21477e-05,-3.13604e-06,2.33578e-05,1.59949e-06,0
-8.51881e-05,1.82757e-05,-3.65715e-06,4.32408e-05,-4.97693e-05,-3.0312e-06,5.60534e-05,1.38303e-06,0
-7.30228e-05,-6.98835e-06,-2.2236e-06,3.44334e-05,-5.02384e-05,-2.11495e-06,7.6215e-05,2.8012e-06,0
-4.20227e-05,-1.54367e-05,-5.47405e-06,2.05929e-05,-4.40662e-05,-3.59981e-06,8.93183e-05,3.88006e-06,0
-1.89688e-05,-5.52581e-06,-8.31694e-06,1.52307e-05,-2.87101e-05,-5.12503e-06,9.63964e-05,3.05924e-06,0
-1.61784e-05,5.57369e-06,-9.65912e-06,1.89098e-05,-1.0342e-05,-2.56019e-06,9.47132e-05,1.20288e-06,0
-2.78471e-05,8.87162e-06,-8.79715e-06,2.05328e-05,-3.14939e-06,1.32024e-06,8.57997e-05,-3.95882e-07,0
-4.38169e-05,5.50604e-06,-5.03106e-06,1.54475e-05,-9.91946e-06,1.65725e-06,7.24125e-05,-8.47759e-07,0
-5.89073e-05,2.05503e-06,-8.35702e-07,7.49981e-06,-2.43256e-05,-1.57108e-06,5.67586e-05,-2.58636e-06,0
-7.36434e-05,1.09819e-06,2.03094e-06,2.04016e-06,-2.83654e-05,-7.60019e-06,4.47956e-05,-5.70092e-06,0
-7.90184e-05,1.04828e-06,2.56702e-06,-1.47432e-06,-1.36445e-05,-1.2112e-05,4.06088e-05,-6.96935e-06,0
-7.57668e-05,-5.32365e-07,3.41098e-06,-5.76733e-06,9.4742e-07,-1.32735e-05,4.05396e-05,-5.70402e-06,0
-6.93872e-05,-6.56344e-07,4.51592e-06,-1.17229e-05,-1.20795e-06,-1.28922e-05,3.77783e-05,-3.47079e-06,0
-6.06018e-05,2.5982e-06,5.15087e-06,-1.63339e-05,-6.01486e-06,-1.21293e-05,2.94564e-05,-3.07464e-06,0
-4.72923e-05,1.54576e-05,3.56659e-06,-1.87743e-05,2.69837e-06,-1.08666e-05,2.01645e-05,-2.67988e-06,0
-3.10614e-05,3.14589e-05,-7.65575e-07,-1.98203e-05,2.1719e-05,-9.10879e-06,1.38889e-05,-6.62102e-07,0
-1.68807e-05,3.95601e-05,-5.53867e-06,-1.88064e-05,4.10236e-05,-7.82993e-06,5.03316e-06,7.12004e-06,0
-2.03364e-06,3.15011e-05,-8.19214e-06,-1.53182e-05,5.67213e-05,-6.74108e-06,-1.93597e-05,2.16298e-05,0
1.92026e-05,1.199e-05,-7.87718e-06,-9.2316e-06,6.58725e-05,-5.66087e-06,-5.49151e-05,3.30121e-05,0
3.94976e-05,-8.20876e-06,-5.74449e-06,-1.94308e-06,6.62882e-05,-4.31725e-06,-7.77701e-05,3.38394e-05,0
3.44618e-05,-2.2384e-05,-4.22747e-06,2.12754e-06,6.47618e-05,-3.16612e-06,-8.41362e-05,2.53744e-05,0
4.54021e-06,-2.72232e-05,-4.21806e-06,-1.5109e-06,6.56159e-05,-2.90112e-06,-8.34058e-05,8.43542e-06,0
-2.71855e-05,-1.76228e-05,-4.89524e-06,-1.09587e-05,6.33909e-05,-3.48217e-06,-6.01486e-05,-1.65173e-05,0
-4.69988e-05,-3.94229e-06,-7.84353e-06,-2.72226e-05,5.13873e-05,-4.39768e-06,-1.18868e-06,-4.21196e-05,0
-4.99434e-05,3.56706e-06,-1.50229e-05,-5.4147e-05,3.36273e-05,-5.02407e-06,6.77967e-05,-5.8762e-05,0
-3.20865e-05,1.09856e-05,-2.48232e-05,-8.51969e-05,1.71719e-05,-5.07693e-06,0.000113387,-6.15571e-05,0
-9.06817e-06,1.8903e-05,-3.13913e-05,-0.000101973,4.93145e-06,-6.15631e-06,0.000130648,-5.54948e-05,0
-5.2588e-06,2.38524e-05,-3.11346e-05,-9.35592e-05,-5.84783e-06,-7.17948e-06,0.000130785,-4.7322e-05,0
-1.60883e-05,2.68349e-05,-2.71748e-05,-6.5425e-05,-2.3407e-05,-6.75105e-06,0.000118895,-3.71246e-05,0
-2.09456e-05,3.04605e-05,-2.34768e-05,-3.31236e-05,-4.86097e-05,-6.23877e-06,9.58434e-05,-2.55892e-05,0
-1.87792e-05,3.20114e-05,-2.07207e-05,-1.02255e-05,-5.72542e-05,-6.04879e-06,6.57968e-05,-1.47447e-05,0
-2.17779e-05,2.99983e-05,-1.69935e-05,1.86425e-06,-3.3664e-05,-5.38141e-06,4.26509e-05,-7.80461e-06,0
-3.13772e-05,2.49175e-05,-1.2192e-05,2.03659e-05,-2.93363e-06,-6.86149e-06,3.18978e-05,-5.36489e-06,0
-4.02751e-05,1.80722e-05,-8.34799e-06,5.49064e-05,1.38276e-05,-7.20486e-06,2.78296e-05,-3.69305e-06,0
-4.94706e-05,1.17323e-05,-7.22298e-06,8.75381e-05,1.94019e-05,-3.22826e-06,2.79433e-05,-1.54264e-06,0
-6.22438e-05,7.1314e-06,-9.42817e-06,0.000102868,2.04637e-05,-6.84211e-07,2.71408e-05,2.82283e-06,0
-7.09182e-05,8.81306e-08,-1.14365e-05,9.65748e-05,2.09466e-05,-1.27671e-06,2.21021e-05,7.82877e-06,0
-5.64387e-05,-8.6227e-06,-1.27409e-05,7.55215e-05,2.02001e-05,-4.03106e-06,9.90058e-06,1.21972e-05,0
-1.57457e-05,-1.69258e-05,-1.35291e-05,4.20531e-05,2.12537e-05,-4.4882e-06,-8.937e-06,1.32251e-05,0
3.14261e-05,-2.1766e-05,-1.17269e-05,-3.51771e-06,2.14271e-05,-2.40795e-06,-2.51329e-05,1.06987e-05,0
5.90434e-05,-3.05511e-05,-8.77649e-06,-4.72948e-05,1.92212e-05,3.3841e-07,-3.07543e-05,8.02264e-06,0
4.6859e-05,-4.52806e-05,-7.30534e-06,-7.30383e-05,2.02805e-05,-2.30892e-07,-3.11177e-05,7.13712e-06,0
6.46316e-06,-4.41486e-05,-6.74708e-06,-7.68215e-05,2.53864e-05,-7.81943e-06,-3.20786e-05,8.61245e-06,0
-3.73084e-05,-1.45642e-05,-5.52308e-06,-6.60189e-05,2.9443e-05,-2.41988e-05,-3.1976e-05,9.88397e-06,0
-6.83071e-05,2.89542e-05,-3.27715e-06,-4.59647e-05,2.88042e-05,-4.17812e-05,-2.877e-05,9.89608e-06,0
-8.17211e-05,6.23246e-05,-7.00477e-07,-2.2819e-05,2.17632e-05,-3.55922e-05,-2.40181e-05,8.84602e-06,0
-7.73305e-05,7.4699e-05,1.72965e-06,-2.77573e-06,1.04972e-05,2.03945e-06,-1.81305e-05,7.38978e-06,0
-6.19023e-05,6.72638e-05,3.75191e-06,9.79906e-06,2.43419e-06,3.37347e-05,-1.03191e-05,3.49985e-06,0
