ch1,ch2,ch3,ch4,ch5,ch6,ch7,ch8,class
-3.29317e-05,1.25267e-06,-1.43628e-05,-2.0172e-05,1.35161e-05,-4.28755e-06,1.82909e-05,3.75105e-06,0
-3.32225e-05,7.23297e-07,-1.39862e-05,-2.01647e-05,1.15038e-05,-3.19355e-06,1.82503e-05,4.81992e-06,0
-3.25721e-05,8.51274e-07,-1.39335e-05,-1.57528e-05,1.41669e-05,-2.02402e-06,1.84488e-05,6.35479e-06,0
-3.06603e-05,2.30465e-06,-1.29597e-05,-7.45392e-06,2.18406e-05,-1.65181e-06,1.6688e-05,7.38178e-06,0
-2.92712e-05,5.38532e-06,-1.0576e-05,8.18855e-06,2.98172e-05,-7.66596e-07,1.3213e-05,6.77899e-06,0
-3.01062e-05,9.23145e-06,-7.60708e-06,3.11286e-05,3.29464e-05,1.8486e-06,1.04214e-05,6.20495e-06,0
-3.16536e-05,1.22569e-05,-6.14105e-06,4.90806e-05,2.90926e-05,4.65708e-06,9.65317e-06,7.08829e-06,0
-3.15688e-05,1.33932e-05,-6.47281e-06,5.09774e-05,2.40668e-05,4.31215e-06,9.58339e-06,7.73322e-06,0
-2.97656e-05,1.58401e-05,-7.12066e-06,3.60072e-05,2.33285e-05,2.09692e-06,8.32038e-06,7.02764e-06,0
-2.89901e-05,2.1035e-05,-6.83892e-06,5.26955e-06,2.47082e-05,-9.47008e-07,6.38663e-06,7.17545e-06,0
-3.01816e-05,2.54551e-05,-5.87352e-06,-3.69762e-05,2.46886e-05,-3.26494e-06,4.79075e-06,7.90004e-06,0
-3.15431e-05,2.86867e-05,-5.18992e-06,-7.39744e-05,2.20481e-05,-2.99226e-06,3.60494e-06,7.817e-06,0
-3.24578e-05,3.15505e-05,-6.25245e-06,-9.48239e-05,1.77657e-05,-3.03483e-06,4.3484e-06,7.05512e-06,0
-3.37423e-05,3.18656e-05,-9.37677e-06,-0.000106832,1.25324e-05,-5.77577e-06,5.64114e-06,5.92106e-06,0
-3.33772e-05,2.91079e-05,-1.25272e-05,-0.000109343,8.7884e-06,-7.6099e-06,4.44013e-06,5.04774e-06,0
-3.1333e-05,2.6294e-05,-1.46447e-05,-9.86186e-05,9.50846e-06,-6.4535e-06,3.13224e-06,4.38044e-06,0
-2.85378e-05,2.58504e-05,-1.45439e-05,-8.18762e-05,1.36466e-05,-5.86316e-06,3.65058e-06,5.72229e-06,0
-2.44836e-05,2.77342e-05,-1.17901e-05,-6.80704e-05,1.76986e-05,-7.32313e-06,3.0628e-07,8.496e-06,0
-2.32013e-05,3.01127e-05,-7.79935e-06,-5.63678e-05,1.72074e-05,-9.26785e-06,-5.77965e-06,9.71508e-06,0
-2.49593e-05,2.92655e-05,-4.42387e-06,-3.36564e-05,1.2273e-05,-1.05239e-05,-7.21758e-06,8.27985e-06,0
-2.61453e-05,2.65583e-05,-2.65431e-06,3.26711e-06,7.74441e-06,-1.15637e-05,-2.37657e-06,6.63705e-06,0
-2.72176e-05,2.53591e-05,-2.33999e-06,4.42865e-05,6.33008e-06,-1.20457e-05,4.80445e-06,5.82719e-06,0
-2.89353e-05,2.48267e-05,-4.47309e-06,7.20126e-05,6.21807e-06,-1.21539e-05,1.00167e-05,5.68625e-06,0
-2.9643e-05,2.23951e-05,-7.43351e-06,8.04886e-05,6.97329e-06,-1.20231e-05,1.33849e-05,6.0865e-06,0
-2.90312e-05,2.02586e-05,-7.81616e-06,7.58192e-05,9.71648e-06,-1.09825e-05,1.52469e-05,6.9178e-06,0
-2.82412e-05,2.10845e-05,-5.75286e-06,6.27709e-05,1.3198e-05,-9.94829e-06,1.64975e-05,7.90672e-06,0
-2.77794e-05,2.28476e-05,-3.77362e-06,4.42781e-05,1.49414e-05,-9.83759e-06,1.71062e-05,6.97146e-06,0
-2.74468e-05,2.38237e-05,-3.32943e-06,2.72741e-05,1.42756e-05,-9.7815e-06,1.6671e-05,4.33345e-06,0
-2.65403e-05,2.44554e-05,-3.38834e-06,1.89971e-05,1.29437e-05,-8.54422e-06,1.62101e-05,1.66571e-06,0
-2.5507e-05,2.56595e-05,-3.26936e-06,1.62368e-05,1.37512e-05,-7.25135e-06,1.72401e-05,5.91689e-07,0
-2.5103e-05,2.63677e-05,-3.22756e-06,1.01055e-05,1.82365e-05,-6.72262e-06,1.91785e-05,1.20289e-06,0
-2.56498e-05,2.62212e-05,-2.70022e-06,-3.77437e-06,2.18856e-05,-7.08757e-06,2.15247e-05,1.61013e-06,0
-2.67688e-05,2.45655e-05,-1.29831e-06,-2.09654e-05,2.01926e-05,-7.20306e-06,2.45408e-05,5.5356e-07,0
-2.8197e-05,2.08995e-05,-9.09488e-09,-3.5975e-05,1.47745e-05,-6.88467e-06,2.5907e-05,-1.01261e-06,0
-2.97551e-05,1.58397e-05,-8.08532e-07,-4.28858e-05,9.20355e-06,-8.07696e-06,2.21073e-05,-1.21523e-06,0
-3.06624e-05,1.16395e-05,-4.67344e-06,-3.81156e-05,5.61638e-06,-9.9959e-06,1.16932e-05,-1.71798e-06,0
-3.04077e-05,8.6146e-06,-9.18525e-06,-2.35351e-05,5.13327e-06,-1.09439e-05,-7.77696e-08,-3.86516e-06,0
-3.01189e-05,5.80308e-06,-1.33228e-05,-1.00128e-05,6.35452e-06,-1.07293e-05,-6.72799e-06,-5.14729e-06,0
-2.93938e-05,3.11949e-06,-1.66458e-05,-2.77228e-06,7.48221e-06,-1.07444e-05,-8.55704e-06,-3.78046e-06,0
-2.75681e-05,2.3405e-06,-1.73473e-05,8.18578e-07,7.61269e-06,-1.07393e-05,-6.63769e-06,-2.43069e-06,0
-2.63727e-05,1.29084e-06,-1.55996e-05,3.3909e-07,5.59056e-06,-1.03137e-05,-1.07918e-06,-3.67232e-06,0
-2.58065e-05,-1.4912e-06,-1.33044e-05,-1.3711e-07,2.26281e-06,-9.54969e-06,7.36532e-06,-4.02009e-06,0
-2.51018e-05,-1.62087e-06,-1.16044e-05,1.78944e-06,1.12297e-06,-8.52549e-06,1.94943e-05,-3.47413e-06,0
-2.54664e-05,3.23379e-08,-1.17054e-05,3.04375e-06,2.60413e-06,-9.594e-06,3.20083e-05,-4.20019e-06,0
-2.71794e-05,1.69987e-06,-1.14745e-05,2.86655e-06,4.31596e-06,-1.07174e-05,3.96428e-05,-4.9839e-06,0
-2.85915e-05,3.50361e-06,-9.08329e-06,4.82586e-07,5.32234e-06,-9.79104e-06,3.97654e-05,-5.03555e-06,0
-2.85639e-05,5.72435e-06,-7.80969e-06,-2.08104e-06,5.76987e-06,-7.82808e-06,3.37408e-05,-5.00708e-06,0
-2.7607e-05,7.14501e-06,-7.62265e-06,-4.52668e-06,6.09016e-06,-7.55966e-06,2.6349e-05,-5.48734e-06,0
-2.73538e-05,6.99234e-06,-9.49444e-06,-6.73561e-06,6.98814e-06,-7.51204e-06,2.12218e-05,-4.9215e-06,0
-2.7929e-05,5.94781e-06,-1.15838e-05,-6.62676e-06,8.16197e-06,-6.73385e-06,2.02616e-05,-4.87433e-06,0
-2.88004e-05,5.87458e-06,-1.16207e-05,-4.47879e-06,8.20409e-06,-6.55499e-06,2.09286e-05,-5.76548e-06,0
-3.00476e-05,6.56861e-06,-8.7389e-06,-3.10827e-06,7.47757e-06,-5.79223e-06,2.0499e-05,-6.03473e-06,0
-3.10969e-05,7.1577e-06,-4.91309e-06,-4.33862e-06,7.11901e-06,-5.75732e-06,1.91051e-05,-5.73279e-06,0
-3.23314e-05,8.00912e-06,-4.44735e-06,-4.67278e-06,6.93923e-06,-6.03585e-06,1.73877e-05,-6.51981e-06,0
-3.4044e-05,8.71429e-06,-6.36949e-06,-3.34103e-06,6.94578e-06,-6.34451e-06,1.4946e-05,-8.79259e-06,0
-3.49291e-05,9.45707e-06,-8.09413e-06,-2.74861e-06,8.6159e-06,-6.55834e-06,1.31488e-05,-9.4664e-06,0
-3.38936e-05,1.05071e-05,-7.51678e-06,-3.61555e-06,1.17145e-05,-7.96666e-06,1.32715e-05,-7.33473e-06,0
-3.17024e-05,1.20693e-05,-5.17428e-06,-3.81035e-06,1.35454e-05,-9.98917e-06,1.41666e-05,-5.25915e-06,0
-3.08356e-05,1.31241e-05,-2.92945e-06,-3.15553e-06,1.09704e-05,-1.18421e-05,1.46658e-05,-5.33997e-06,0
-3.18325e-05,1.30581e-05,-2.63882e-06,-1.37619e-06,6.3778e-06,-1.38269e-05,1.33123e-05,-5.94238e-06,0
-3.322e-05,1.26682e-05,-3.0149e-06,2.67233e-07,4.06089e-06,-1.53245e-05,1.06004e-05,-6.47649e-06,0
-3.41124e-05,1.31836e-05,-3.14342e-06,9.58208e-07,2.62442e-06,-1.66532e-05,7.79999e-06,-6.97793e-06,0
-3.44873e-05,1.3665e-05,-2.80598e-06,1.41043e-06,8.04199e-07,-1.86285e-05,6.37005e-06,-5.18571e-06,0
-3.40865e-05,1.35663e-05,-2.3856e-06,2.69915e-07,-3.42601e-07,-1.91584e-05,4.86042e-06,-3.59104e-06,0
-3.35787e-05,1.3789e-05,-2.43126e-06,-2.0636e-06,-1.85106e-06,-1.79758e-05,6.38121e-07,-5.03825e-06,0
-3.35826e-05,1.37643e-05,-3.41629e-06,-4.04704e-06,-3.99514e-06,-1.64659e-05,-9.23309e-06,-6.20051e-06,0
-3.38577e-05,1.19828e-05,-4.36146e-06,-5.05647e-06,-4.06067e-06,-1.49391e-05,-2.32433e-05,-5.32327e-06,0
-3.38073e-05,8.82067e-06,-4.63665e-06,-2.97549e-06,-9.68309e-07,-1.50738e-05,-3.25282e-05,-3.85578e-06,0
-3.26298e-05,5.16046e-06,-6.46411e-06,1.01361e-06,3.68834e-06,-1.36861e-05,-3.01749e-05,-3.45833e-06,0
-3.07363e-05,2.80944e-06,-9.15854e-06,4.29168e-06,1.16897e-05,-1.12144e-05,-1.86507e-05,-2.92576e-06,0
-2.92702e-05,5.06804e-07,-1.07988e-05,7.03192e-06,2.23458e-05,-1.05914e-05,-5.58783e-06,-3.90713e-07,0
-2.89976e-05,-2.28413e-06,-1.29947e-05,8.72347e-06,2.77304e-05,-1.03668e-05,6.83612e-06,2.70228e-06,0
-3.12976e-05,-3.35961e-06,-1.64415e-05,8.33936e-06,2.67526e-05,-9.96149e-06,1.95763e-05,2.75953e-06,0
-3.39353e-05,-2.36974e-06,-1.8657e-05,5.93475e-06,2.32006e-05,-1.19372e-05,3.00895e-05,2.11149e-06,0
-3.35439e-05,-6.15552e-07,-1.94575e-05,2.81324e-06,2.00107e-05,-1.55447e-05,3.57521e-05,2.76938e-06,0
-3.23479e-05,1.89953e-07,-1.86898e-05,-1.70627e-07,1.88306e-05,-1.75124e-05,3.71433e-05,4.75025e-06,0
-3.22381e-05,1.65102e-06,-1.64119e-05,-1.74485e-06,1.962e-05,-1.77907e-05,3.74203e-05,7.46128e-06,0
-3.35426e-05,3.49817e-06,-1.50682e-05,-1.76918e-06,2.03849e-05,-1.79484e-05,3.80794e-05,9.75355e-06,0
-3.50829e-05,4.13969e-06,-1.53649e-05,-2.58326e-07,2.02358e-05,-1.86485e-05,3.76734e-05,1.13114e-05,0
-3.53641e-05,2.55163e-06,-1.67557e-05,2.13628e-06,2.08344e-05,-1.92604e-05,3.60384e-05,1.08399e-05,0
-3.38619e-05,-4.52384e-08,-1.76156e-05,3.68572e-06,2.07592e-05,-1.96427e-05,3.36065e-05,8.91704e-06,0
-3.20812e-05,-1.15855e-06,-1.62684e-05,1.40111e-06,2.02762e-05,-1.88499e-05,3.15656e-05,6.22093e-06,0
-3.21132e-05,4.39256e-07,-1.35299e-05,-4.78432e-06,1.98224e-05,-1.70615e-05,3.10884e-05,4.70809e-06,0
-3.36662e-05,3.44087e-06,-9.79576e-06,-1.151e-05,1.92288e-05,-1.62521e-05,3.21785e-05,4.59298e-06,0
-3.50397e-05,5.70505e-06,-6.80053e-06,-1.66813e-05,1.88071e-05,-1.68689e-05,3.27946e-05,4.83999e-06,0
-3.49299e-05,6.81087e-06,-5.89066e-06,-2.05517e-05,1.8495e-05,-1.727e-05,3.10445e-05,4.6486e-06,0
-3.42731e-05,8.72759e-06,-6.79969e-06,-2.42967e-05,1.85245e-05,-1.67449e-05,2.76501e-05,4.50504e-06,0
-3.37377e-05,1.24575e-05,-7.64843e-06,-2.76005e-05,1.85324e-05,-1.55387e-05,2.41058e-05,4.19434e-06,0
-3.33465e-05,1.55583e-05,-7.74366e-06,-2.81512e-05,1.76094e-05,-1.477e-05,2.09013e-05,3.71916e-06,0
-3.22549e-05,1.65014e-05,-7.35952e-06,-2.38681e-05,1.71427e-05,-1.55339e-05,1.84887e-05,3.99122e-06,0
-3.0566e-05,1.74319e-05,-6.28539e-06,-1.56003e-05,1.93148e-05,-1.55365e-05,1.66668e-05,3.71155e-06,0
-2.97256e-05,1.98594e-05,-4.28445e-06,-3.66557e-06,2.17397e-05,-1.3431e-05,1.36831e-05,2.55632e-06,0
-2.96972e-05,2.10529e-05,-1.85399e-06,1.04904e-05,2.21504e-05,-1.1862e-05,1.05719e-05,2.41642e-06,0
-2.97181e-05,1.97371e-05,-3.45854e-07,1.9906e-05,2.14123e-05,-1.16596e-05,8.18909e-06,1.71425e-06,0
-2.99765e-05,1.70701e-05,-4.38883e-07,1.92724e-05,2.11066e-05,-1.19339e-05,5.46415e-06,1.09537e-07,0
-3.0757e-05,1.52377e-05,-2.03568e-06,1.25909e-05,2.05211e-05,-1.18052e-05,2.3566e-06,-7.40473e-07,0
-3.14632e-05,1.63273e-05,-2.37976e-06,5.70849e-06,1.71384e-05,-9.1517e-06,1.71223e-07,-8.94009e-07,0
-3.13375e-05,1.9093e-05,-3.15646e-06,3.13166e-06,1.41835e-05,-5.86738e-06,3.54499e-07,1.81468e-07,0
-3.05812e-05,2e-05,-2.76592e-06,4.42248e-06,1.47995e-05,-3.88124e-06,1.85522e-06,1.42497e-06,0
-2.92278e-05,1.92343e-05,-3.49725e-07,5.04519e-06,1.60743e-05,-3.47539e-06,3.36125e-06,1.15902e-06,0
-2.76321e-05,1.88314e-05,-2.68908e-07,4.59101e-06,1.60773e-05,-4.4223e-06,4.57146e-06,-3.30678e-07,0
-2.74704e-05,1.8707e-05,-9.51377e-07,3.09852e-06,1.57904e-05,-5.32804e-06,6.01663e-06,-6.74186e-07,0
-2.90943e-05,1.80385e-05,-1.18095e-06,3.54539e-07,1.60207e-05,-4.87128e-06,7.16951e-06,1.17877e-06,0
-3.06655e-05,1.66735e-05,-1.4456e-06,-5.50154e-06,1.51648e-05,-3.20105e-06,7.74172e-06,3.4593e-06,0
-3.08623e-05,1.43667e-05,-1.61088e-06,-1.25308e-05,1.40694e-05,-1.56092e-06,6.44071e-06,4.18028e-06,0
-3.07193e-05,1.06033e-05,-8.47283e-07,-1.65913e-05,1.39969e-05,4.07857e-07,3.4085e-06,3.7232e-06,0
-3.08685e-05,6.68909e-06,2.19927e-07,-1.81074e-05,1.42119e-05,2.66697e-06,2.63736e-06,2.48358e-06,0
-3.0766e-05,4.59313e-06,3.08465e-07,-1.9382e-05,1.33708e-05,3.51169e-06,4.77085e-06,5.59917e-07,0
-2.98675e-05,3.67083e-06,-6.07918e-07,-2.01556e-05,1.18004e-05,2.30065e-06,6.99828e-06,-1.44547e-06,0
-2.90573e-05,3.37114e-06,-1.15199e-06,-1.8557e-05,1.02063e-05,7.94207e-07,7.3946e-06,-1.20401e-06,0
-2.96919e-05,5.28898e-06,-7.51293e-07,-1.58305e-05,9.05336e-06,6.07434e-08,7.26698e-06,1.45998e-06,0
-3.12658e-05,8.01461e-06,-1.41426e-06,-1.37741e-05,8.66205e-06,5.10354e-07,8.35298e-06,3.6658e-06,0
-3.18902e-05,9.57354e-06,-4.1556e-06,-1.29919e-05,9.18849e-06,1.41604e-06,1.02435e-05,3.87215e-06,0
-3.13451e-05,1.17383e-05,-6.72084e-06,-1.14325e-05,1.00111e-05,1.57714e-06,1.19966e-05,3.37173e-06,0
-3.12279e-05,1.51657e-05,-7.41474e-06,-7.5478e-06,1.0255e-05,7.27289e-07,1.30459e-05,2.36938e-06,0
-3.17781e-05,1.71865e-05,-6.97452e-06,-1.68904e-06,1.05275e-05,5.05689e-07,1.22632e-05,1.01435e-06,0
-3.12023e-05,1.77154e-05,-5.93821e-06,3.91405e-06,9.95994e-06,7.23074e-07,1.06793e-05,2.37955e-07,0
-2.7599e-05,1.84282e-05,-4.19681e-06,4.96327e-06,8.17153e-06,-1.67647e-07,9.04753e-06,2.42957e-08,0
-2.35176e-05,1.87844e-05,-2.65055e-06,1.328e-06,5.94852e-06,-2.17394e-06,8.57123e-06,5.94434e-07,0
-2.26786e-05,1.84912e-05,-4.67419e-06,-2.51703e-06,5.24291e-06,-4.46245e-06,9.87273e-06,4.34561e-07,0
-2.4432e-05,1.82915e-05,-8.59966e-06,-4.90239e-06,5.91771e-06,-6.07827e-06,1.11208e-05,4.04581e-07,0
-2.55518e-05,1.93924e-05,-1.07766e-05,-5.55973e-06,6.27751e-06,-7.41073e-06,1.48993e-05,4.45693e-07,0
-2.50894e-05,2.00979e-05,-1.12809e-05,-5.51665e-06,4.18639e-06,-9.90492e-06,2.46024e-05,-1.19816e-06,0
-2.42022e-05,1.96139e-05,-1.1207e-05,-5.81541e-06,2.75255e-06,-1.24767e-05,3.62257e-05,-3.3413e-06,0
-2.3918e-05,1.96763e-05,-1.40693e-05,-6.62159e-06,4.0874e-06,-1.3785e-05,4.48295e-05,-4.42223e-06,0
-2.51143e-05,1.98476e-05,-1.78433e-05,-6.05337e-06,6.28613e-06,-1.48994e-05,5.27309e-05,-3.83145e-06,0
-2.7509e-05,1.84598e-05,-1.79194e-05,-2.98277e-06,9.49335e-06,-1.60209e-05,5.76191e-05,-1.95459e-07,0
-2.93799e-05,1.56925e-05,-1.49849e-05,-8.17821e-07,1.05313e-05,-1.73929e-05,5.49485e-05,2.42868e-06,0
-2.93816e-05,1.38974e-05,-1.11434e-05,3.93166e-07,8.68494e-06,-1.74188e-05,4.48141e-05,9.23699e-07,0
-2.91879e-05,1.29022e-05,-8.88259e-06,1.27992e-06,6.19431e-06,-1.63757e-05,2.78354e-05,5.37005e-07,0
-2.89517e-05,1.45043e-05,-7.64804e-06,4.08124e-07,5.142e-06,-1.48543e-05,8.15329e-06,1.53162e-06,0
-2.93522e-05,1.8129e-05,-7.36793e-06,-1.43292e-06,6.11305e-06,-1.24747e-05,-1.08394e-05,2.09304e-06,0
-3.12455e-05,2.06199e-05,-8.23327e-06,-2.25163e-06,7.37064e-06,-1.01904e-05,-2.79324e-05,2.84795e-06,0
-3.27505e-05,2.13467e-05,-9.18518e-06,-2.74022e-06,6.38162e-06,-8.73241e-06,-4.23264e-05,3.06404e-06,0
-3.31847e-05,2.0859e-05,-1.00109e-05,-4.45718e-06,3.95705e-06,-8.76824e-06,-5.20119e-05,1.25531e-06,0
-3.32484e-05,2.08166e-05,-1.06738e-05,-7.42885e-06,4.12731e-06,-9.92826e-06,-5.41574e-05,4.03378e-08,0
-3.39943e-05,2.2747e-05,-1.09943e-05,-1.03224e-05,5.34989e-06,-1.07506e-05,-4.78828e-05,2.01131e-06,0
-3.45919e-05,2.52739e-05,-1.06032e-05,-1.21913e-05,4.65605e-06,-9.62359e-06,-3.60141e-05,4.04716e-06,0
-3.39525e-05,2.49516e-05,-9.37383e-06,-1.27178e-05,4.10717e-06,-8.07631e-06,-2.31586e-05,3.20709e-06,0
-3.27957e-05,2.266e-05,-8.42068e-06,-1.25141e-05,6.70738e-06,-7.82531e-06,-1.23815e-05,9.35356e-07,0
-3.28777e-05,2.06733e-05,-9.40309e-06,-1.10323e-05,1.07505e-05,-8.92983e-06,-3.7717e-06,7.02316e-07,0
-3.34728e-05,1.99969e-05,-1.14793e-05,-8.01101e-06,1.40646e-05,-1.07707e-05,3.26433e-06,2.00361e-06,0
-3.34697e-05,1.92259e-05,-1.31281e-05,-4.53567e-06,1.70043e-05,-1.25707e-05,7.64542e-06,2.62534e-06,0
-3.42393e-05,1.5322e-05,-1.36863e-05,-2.12521e-06,1.99349e-05,-1.32747e-05,9.84614e-06,2.77781e-06,0
-3.52249e-05,9.00633e-06,-1.42732e-05,-1.21147e-06,2.29334e-05,-1.32222e-05,1.24805e-05,2.91368e-06,0
-3.50646e-05,6.91188e-06,-1.50297e-05,1.51982e-06,2.4572e-05,-1.41924e-05,1.58482e-05,2.77665e-06,0
-3.45531e-05,1.04262e-05,-1.61364e-05,6.82337e-06,2.52723e-05,-1.50421e-05,1.69006e-05,2.60176e-06,0
-3.35571e-05,1.51626e-05,-1.6845e-05,1.03654e-05,2.59964e-05,-1.42662e-05,1.60964e-05,2.45446e-06,0
-3.25905e-05,1.775e-05,-1.55084e-05,8.66894e-06,2.38505e-05,-1.42376e-05,1.58296e-05,3.10966e-06,0
-3.13579e-05,1.80896e-05,-1.5085e-05,3.78454e-06,2.02802e-05,-1.56448e-05,1.66896e-05,2.60094e-06,0
-2.87097e-05,1.68804e-05,-1.51707e-05,-9.43497e-07,1.88351e-05,-1.59656e-05,1.8231e-05,1.5421e-06,0
-2.5324e-05,1.42838e-05,-1.23527e-05,-3.38781e-06,1.99046e-05,-1.5186e-05,1.95377e-05,3.24923e-06,0
-2.20421e-05,1.31713e-05,-1.01608e-05,-4.52977e-06,2.07296e-05,-1.27576e-05,1.98528e-05,6.1861e-06,0
-2.1867e-05,1.22374e-05,-1.10574e-05,-5.52512e-06,1.81699e-05,-9.4554e-06,2.02333e-05,7.67161e-06,0
-2.44188e-05,1.08596e-05,-1.27554e-05,-5.80579e-06,1.42824e-05,-7.49875e-06,2.11721e-05,8.72666e-06,0
-2.68455e-05,1.12083e-05,-1.55284e-05,-5.38672e-06,9.70334e-06,-6.10807e-06,2.2946e-05,9.85044e-06,0
-2.89281e-05,1.18177e-05,-1.88761e-05,-5.25841e-06,5.52025e-06,-5.18203e-06,2.39343e-05,9.26392e-06,0
-2.9567e-05,1.17158e-05,-2.05265e-05,-6.98008e-06,1.76397e-06,-5.24436e-06,2.43134e-05,7.50692e-06,0
-2.87265e-05,1.22739e-05,-2.1007e-05,-1.00747e-05,-1.54577e-06,-5.62358e-06,2.51805e-05,5.71885e-06,0
-2.86096e-05,1.3601e-05,-2.13738e-05,-1.279e-05,-4.24242e-06,-5.56495e-06,2.47378e-05,4.71419e-06,0
-2.91948e-05,1.39606e-05,-2.16043e-05,-1.25867e-05,-5.50227e-06,-5.49119e-06,2.28118e-05,4.12645e-06,0
-2.93003e-05,1.23209e-05,-2.05377e-05,-1.00795e-05,-4.05578e-06,-6.6619e-06,2.08658e-05,3.29972e-06,0
-2.92745e-05,1.00859e-05,-1.82329e-05,-8.52037e-06,-1.63684e-06,-7.56628e-06,2.08709e-05,2.20189e-06,0
-2.94894e-05,9.47286e-06,-1.53856e-05,-9.93948e-06,2.32255e-07,-6.98387e-06,2.18324e-05,1.38173e-06,0
-2.99793e-05,1.01047e-05,-1.29002e-05,-1.28542e-05,2.65523e-06,-6.40516e-06,2.20179e-05,6.4433e-07,0
-3.06158e-05,1.0911e-05,-1.06953e-05,-1.53445e-05,7.53301e-06,-6.71299e-06,2.10405e-05,4.79407e-07,0
-3.06631e-05,1.20121e-05,-7.9479e-06,-1.71921e-05,1.32236e-05,-6.18808e-06,1.9984e-05,1.51827e-06,0
-2.95762e-05,1.27193e-05,-5.3874e-06,-1.89309e-05,1.85346e-05,-3.79788e-06,1.85509e-05,3.19235e-06,0
-2.81467e-05,1.17104e-05,-3.88459e-06,-1.92898e-05,2.30185e-05,-1.95073e-06,1.6856e-05,5.16662e-06,0
-2.85655e-05,9.11886e-06,-2.70793e-06,-1.60785e-05,2.72305e-05,-1.84727e-06,1.5893e-05,6.09297e-06,0
-2.96472e-05,7.08388e-06,-1.20789e-06,-1.20388e-05,3.08925e-05,-1.42772e-06,1.56121e-05,4.77102e-06,0
-2.92406e-05,5.28685e-06,-1.0001e-06,-1.05273e-05,3.16343e-05,-4.39482e-07,1.5323e-05,3.20161e-06,0
-2.90432e-05,3.81814e-06,-1.12926e-06,-8.35328e-06,2.86726e-05,-1.80427e-06,1.46422e-05,3.80501e-06,0
-2.93367e-05,3.62964e-06,-7.45412e-07,-2.13983e-06,2.4898e-05,-4.38161e-06,1.51194e-05,5.13372e-06,0
-2.92519e-05,4.19087e-06,-6.13442e-07,4.05528e-06,2.30055e-05,-4.95393e-06,1.64347e-05,5.11432e-06,0
-2.86249e-05,7.3669e-06,-8.51705e-07,1.01092e-05,2.43485e-05,-4.5242e-06,1.71536e-05,2.91919e-06,0
-2.88538e-05,1.08144e-05,-1.49117e-06,1.43181e-05,2.73081e-05,-5.19577e-06,1.84401e-05,3.56476e-07,0
-3.01806e-05,1.15525e-05,-2.80565e-06,1.70654e-05,2.94121e-05,-5.86097e-06,1.79866e-05,-9.17426e-07,0
-3.04438e-05,1.08408e-05,-4.07426e-06,2.27827e-05,3.0898e-05,-5.9719e-06,1.52131e-05,-1.76254e-06,0
-2.80022e-05,9.07349e-06,-3.39581e-06,3.17843e-05,3.06107e-05,-6.19544e-06,1.39839e-05,-1.38239e-06,0
-2.45035e-05,6.88392e-06,-1.3115e-06,4.56678e-05,2.83766e-05,-7.09109e-06,1.42028e-05,-8.76716e-07,0
-2.28598e-05,6.20533e-06,-2.41166e-06,5.5629e-05,2.62192e-05,-9.05711e-06,1.47967e-05,-8.76195e-07,0
-2.33692e-05,6.17389e-06,-6.60863e-06,5.27715e-05,2.65454e-05,-1.07161e-05,1.48592e-05,-1.97414e-07,0
-2.62337e-05,5.38396e-06,-9.29733e-06,3.6522e-05,2.82992e-05,-1.20507e-05,1.43431e-05,5.83318e-07,0
-2.88872e-05,5.52116e-06,-9.24897e-06,1.08556e-05,2.60947e-05,-1.31776e-05,1.42943e-05,1.2174e-06,0
-2.9272e-05,6.47181e-06,-8.27699e-06,-1.64085e-05,2.07629e-05,-1.38557e-05,1.3567e-05,1.86491e-06,0
-2.8617e-05,7.25524e-06,-7.14707e-06,-3.83778e-05,1.69567e-05,-1.32223e-05,1.3377e-05,1.87104e-06,0
-2.87419e-05,6.43796e-06,-4.70519e-06,-5.05922e-05,1.52501e-05,-1.03954e-05,1.57234e-05,8.81672e-07,0
-2.94269e-05,5.40351e-06,-1.19419e-06,-5.27482e-05,1.33202e-05,-6.976e-06,1.8956e-05,-9.69953e-08,0
-2.91662e-05,5.73655e-06,8.60209e-07,-5.00309e-05,1.20205e-05,-4.95246e-06,2.05193e-05,-3.81063e-07,0
-2.79313e-05,7.10688e-06,8.58383e-07,-4.62317e-05,1.33147e-05,-5.08424e-06,1.98248e-05,1.96519e-07,0
-2.72507e-05,8.87671e-06,1.6185e-07,-3.88272e-05,1.60794e-05,-6.59451e-06,1.91294e-05,1.24721e-06,0
-2.79139e-05,1.10063e-05,-5.00772e-07,-2.68881e-05,2.00914e-05,-7.99894e-06,1.9141e-05,2.3488e-06,0
-2.83716e-05,1.35899e-05,-1.11112e-06,-1.43431e-05,2.4555e-05,-8.48754e-06,1.80357e-05,3.024e-06,0
-2.80107e-05,1.5225e-05,-2.53616e-06,-5.49274e-06,2.69693e-05,-8.9828e-06,1.41956e-05,3.48379e-06,0
-2.76379e-05,1.48676e-05,-4.65441e-06,9.66077e-08,2.51587e-05,-1.01441e-05,9.09294e-06,3.84255e-06,0
-2.73192e-05,1.2119e-05,-6.77392e-06,2.06608e-07,2.02802e-05,-1.13873e-05,4.34435e-06,4.9795e-06,0
-2.64326e-05,9.49065e-06,-8.30108e-06,-7.38806e-06,1.42192e-05,-1.14547e-05,1.08386e-06,6.34038e-06,0
-2.71453e-05,9.08786e-06,-9.38138e-06,-1.77625e-05,9.74149e-06,-9.50615e-06,-5.47307e-07,6.26855e-06,0
-2.97176e-05,9.8532e-06,-8.65999e-06,-2.76781e-05,7.01542e-06,-7.25868e-06,-1.408e-06,5.36719e-06,0
-3.18973e-05,9.82073e-06,-7.69039e-06,-4.1724e-05,4.35676e-06,-7.69151e-06,-1.18998e-06,5.36221e-06,0
-3.24864e-05,8.18307e-06,-9.52739e-06,-5.51359e-05,4.80479e-06,-1.05755e-05,1.74596e-07,5.38059e-06,0
-3.24611e-05,6.01222e-06,-1.17077e-05,-5.63797e-05,7.43457e-06,-1.39135e-05,2.79252e-06,4.51917e-06,0
-3.25085e-05,4.5772e-06,-1.17877e-05,-4.86184e-05,7.12846e-06,-1.3631e-05,5.34608e-06,5.06184e-06,0
-3.19358e-05,2.85832e-06,-1.18408e-05,-4.14193e-05,5.43862e-06,-1.10627e-05,8.02036e-06,4.41272e-06,0
-3.22504e-05,2.01183e-06,-1.14843e-05,-3.83491e-05,8.66283e-06,-9.11457e-06,1.11193e-05,2.22315e-06,0
-3.21121e-05,3.35291e-06,-1.05436e-05,-3.72974e-05,2.11375e-05,-5.65697e-06,1.25841e-05,-1.24315e-06,0
-3.10045e-05,4.21901e-06,-9.52948e-06,-3.19289e-05,3.53496e-05,-2.95213e-06,1.16526e-05,-4.90539e-06,0
-3.08087e-05,4.12104e-06,-7.55393e-06,-1.78999e-05,3.89923e-05,-1.96314e-06,7.93399e-06,-6.45931e-06,0
-3.24238e-05,4.04822e-06,-6.81999e-06,4.32392e-06,3.37567e-05,-2.5812e-06,4.24786e-06,-7.2847e-06,0
-3.47939e-05,2.55279e-06,-7.70002e-06,3.01274e-05,3.01584e-05,-2.10472e-06,1.89474e-06,-5.20868e-06,0
-3.4761e-05,2.51959e-06,-8.43567e-06,4.95602e-05,3.03395e-05,-1.36322e-07,1.30526e-06,-2.56577e-06,0
-3.32451e-05,9.24504e-06,-8.72226e-06,5.46629e-05,2.94809e-05,1.46747e-07,3.03952e-06,-1.43474e-06,0
-3.27283e-05,1.80212e-05,-9.23606e-06,4.2154e-05,2.59053e-05,-2.13879e-06,6.23452e-06,-1.78973e-06,0
-3.28239e-05,2.03636e-05,-9.86755e-06,1.98272e-05,2.1467e-05,-4.36065e-06,9.9493e-06,-2.72024e-06,0
-3.21631e-05,1.6776e-05,-1.03831e-05,6.97063e-07,1.8554e-05,-5.10601e-06,1.39937e-05,-2.38317e-06,0
-3.11408e-05,1.19407e-05,-1.08328e-05,-7.02448e-06,1.69915e-05,-6.23402e-06,1.91767e-05,-1.76728e-06,0
-3.04156e-05,8.60357e-06,-1.11107e-05,-2.1472e-06,1.45515e-05,-8.05068e-06,2.43499e-05,-2.01936e-06,0
-2.94045e-05,4.48446e-06,-1.0156e-05,9.27973e-06,9.62056e-06,-1.03237e-05,2.86233e-05,-3.49911e-06,0
-2.82158e-05,-1.64852e-06,-7.94593e-06,1.92324e-05,4.73815e-06,-1.2165e-05,3.05257e-05,-3.61527e-06,0
-2.80581e-05,-7.64182e-06,-6.59869e-06,2.23987e-05,2.64417e-06,-1.38284e-05,2.94735e-05,-8.08448e-07,0
-2.91825e-05,-1.33187e-05,-7.84707e-06,1.97687e-05,3.75874e-06,-1.38016e-05,2.60355e-05,2.31292e-06,0
-3.01788e-05,-1.77022e-05,-1.00166e-05,1.52213e-05,6.24734e-06,-1.22702e-05,2.22078e-05,2.79046e-06,0
-3.06274e-05,-1.77698e-05,-1.08303e-05,1.08213e-05,7.40188e-06,-1.18232e-05,1.57487e-05,2.80922e-06,0
-3.07144e-05,-1.24027e-05,-1.05267e-05,5.25312e-06,6.41802e-06,-1.33485e-05,2.63205e-06,3.29168e-06,0
-3.11274e-05,-4.80826e-06,-9.88227e-06,-9.17654e-07,6.2443e-06,-1.4679e-05,-1.04805e-05,4.63405e-06,0
-3.15226e-05,2.72764e-06,-9.35975e-06,-4.10235e-06,7.94627e-06,-1.45291e-05,-1.3061e-05,6.969e-06,0
-3.05755e-05,8.24485e-06,-8.49403e-06,-3.70373e-07,9.52879e-06,-1.29831e-05,-5.16562e-06,6.54622e-06,0
-2.93301e-05,1.10499e-05,-6.23002e-06,1.10113e-05,1.15324e-05,-1.09363e-05,6.98582e-06,2.82274e-06,0
-2.89735e-05,1.5774e-05,-4.22291e-06,2.31485e-05,1.17909e-05,-9.22281e-06,1.92102e-05,8.74491e-07,0
-2.82943e-05,2.83499e-05,-5.48683e-06,2.19388e-05,9.43904e-06,-9.06327e-06,2.7807e-05,1.50493e-06,0
-2.73572e-05,5.1843e-05,-9.54382e-06,7.91855e-06,6.44957e-06,-1.0755e-05,3.37764e-05,1.24859e-06,0
-2.76437e-05,7.24132e-05,-1.50186e-05,-5.58601e-06,4.67403e-06,-1.22944e-05,3.79402e-05,2.10763e-06,0
-2.96887e-05,7.7129e-05,-2.10782e-05,-1.15498e-05,4.56224e-06,-1.44082e-05,3.85581e-05,4.09939e-06,0
-3.25915e-05,6.96951e-05,-2.46657e-05,-1.21813e-05,4.39956e-06,-1.55183e-05,3.90695e-05,6.36575e-06,0
-3.21042e-05,5.38141e-05,-2.39649e-05,-1.31793e-05,3.61858e-06,-1.41572e-05,3.8361e-05,8.04758e-06,0
-2.93844e-05,3.78001e-05,-2.06916e-05,-1.34182e-05,2.60056e-06,-1.32393e-05,3.65084e-05,6.6312e-06,0
-2.87169e-05,2.38101e-05,-1.65606e-05,-1.36168e-05,3.99279e-06,-1.30129e-05,3.3995e-05,4.35608e-06,0
-3.0728e-05,9.73899e-06,-1.41285e-05,-1.46142e-05,7.07442e-06,-1.27146e-05,2.94809e-05,3.95365e-06,0
-3.24008e-05,-5.26359e-06,-1.31842e-05,-1.55539e-05,8.65722e-06,-1.32916e-05,2.3508e-05,4.15473e-06,0
-3.17737e-05,-1.79702e-05,-1.20685e-05,-1.60281e-05,8.17763e-06,-1.5244e-05,1.67784e-05,3.08586e-06,0
-3.03272e-05,-2.73903e-05,-1.10522e-05,-1.72579e-05,6.21713e-06,-1.77062e-05,1.14659e-05,1.29777e-06,0
-2.95533e-05,-3.61392e-05,-9.84766e-06,-2.00417e-05,4.74918e-06,-1.92273e-05,8.19839e-06,-1.2079e-06,0
-3.06886e-05,-4.17448e-05,-7.94639e-06,-2.27458e-05,4.97523e-06,-1.89953e-05,5.90208e-06,-3.15314e-06,0
-3.18847e-05,-4.0206e-05,-5.37454e-06,-2.30692e-05,6.726e-06,-1.74399e-05,3.28136e-06,-3.38704e-06,0
-3.14404e-05,-3.22297e-05,-3.05077e-06,-1.92572e-05,9.30015e-06,-1.6206e-05,1.33565e-06,-2.94774e-06,0
-3.02069e-05,-2.56455e-05,-1.9615e-06,-1.08479e-05,1.04759e-05,-1.57226e-05,7.68431e-07,-2.8237e-06,0
-3.049e-05,-2.21697e-05,-2.8788e-06,3.44353e-07,9.01904e-06,-1.60527e-05,2.22947e-06,-2.31794e-06,0
-3.11449e-05,-1.93462e-05,-4.9776e-06,8.69573e-06,8.10803e-06,-1.67596e-05,2.68864e-06,-1.48109e-06,0
-3.14535e-05,-1.43178e-05,-5.90428e-06,1.19052e-05,8.96838e-06,-1.85726e-05,3.12781e-07,-1.49309e-06,0
-3.20282e-05,-7.55611e-06,-5.04457e-06,1.08392e-05,9.55838e-06,-2.26901e-05,-1.16972e-06,-1.84701e-06,0
-3.28498e-05,-1.51e-06,-4.13862e-06,6.56134e-06,9.3211e-06,-2.83386e-05,1.75319e-07,-1.52897e-06,0
-3.39762e-05,1.81832e-06,-4.089e-06,2.23609e-06,7.76791e-06,-3.50925e-05,6.77682e-07,-7.85018e-07,0
-3.39984e-05,5.47624e-06,-3.79884e-06,3.1956e-06,5.4666e-06,-4.35812e-05,-3.89164e-07,-4.37621e-07,0
-3.25348e-05,1.2279e-05,-7.07296e-07,1.0199e-05,5.83283e-06,-4.4103e-05,-1.13672e-06,7.02767e-07,0
-3.15345e-05,1.96871e-05,3.38873e-06,1.80281e-05,9.18438e-06,-2.26113e-05,-1.73817e-07,1.24912e-06,0
-3.02069e-05,2.35536e-05,7.08011e-06,2.26759e-05,1.20647e-05,9.93244e-06,-2.59552e-07,-3.88436e-07,0
-2.84287e-05,2.58591e-05,7.53962e-06,2.50927e-05,1.13519e-05,1.82446e-05,-5.75759e-07,-3.13492e-06,0
-2.93798e-05,3.19691e-05,3.26402e-06,2.44543e-05,8.70963e-06,1.52714e-06,2.25941e-06,-6.01443e-06,0
-3.14582e-05,4.19289e-05,-1.8887e-07,2.08208e-05,7.46487e-06,-1.18865e-05,4.30876e-06,-8.45116e-06,0
-3.15322e-05,4.9577e-05,-9.86604e-07,1.39149e-05,6.22238e-06,-1.42956e-05,4.41699e-06,-1.03963e-05,0
-3.07381e-05,4.90378e-05,4.9433e-07,5.59288e-06,6.23146e-06,-1.03772e-05,5.78798e-06,-1.0802e-05,0
-2.92958e-05,4.35553e-05,1.94159e-06,-2.305e-06,6.67935e-06,-8.92357e-06,9.41661e-06,-8.97133e-06,0
-2.66278e-05,3.8373e-05,2.47524e-06,-1.1843e-05,7.65347e-06,-9.86345e-06,1.17948e-05,-6.81819e-06,0
-2.57589e-05,3.45522e-05,2.32611e-06,-2.09899e-05,1.06928e-05,-1.20834e-05,1.08922e-05,-5.69588e-06,0
-2.58616e-05,3.15853e-05,1.2445e-06,-2.92206e-05,1.17412e-05,-1.28318e-05,9.79471e-06,-5.46201e-06,0
-2.58463e-05,2.85659e-05,-1.33641e-06,-3.4281e-05,1.0872e-05,-1.09952e-05,1.0591e-05,-5.53296e-06,0
-2.63313e-05,2.46508e-05,-4.79303e-06,-3.53649e-05,9.98282e-06,-9.80932e-06,1.03938e-05,-6.2829e-06,0
-2.8165e-05,2.28311e-05,-6.52853e-06,-3.22312e-05,1.01139e-05,-1.05486e-05,9.66939e-06,-6.7449e-06,0
-3.07578e-05,2.55314e-05,-5.85998e-06,-2.54394e-05,1.07924e-05,-1.23564e-05,9.91476e-06,-6.38693e-06,0
-3.26697e-05,2.99611e-05,-5.06044e-06,-1.70157e-05,1.0867e-05,-1.19416e-05,1.08607e-05,-5.96975e-06,0
-3.2601e-05,3.08856e-05,-6.52062e-06,-1.05223e-05,9.87276e-06,-1.05541e-05,1.21683e-05,-5.77648e-06,0
-3.0528e-05,3.12221e-05,-9.77867e-06,-1.04455e-05,8.38688e-06,-9.28044e-06,1.36578e-05,-6.41505e-06,0
-2.87662e-05,3.72498e-05,-1.28944e-05,-1.67184e-05,7.98502e-06,-9.23889e-06,1.42749e-05,-7.16549e-06,0
-2.87631e-05,4.92752e-05,-1.37459e-05,-2.33261e-05,8.20556e-06,-1.02459e-05,1.36756e-05,-7.20652e-06,0
-2.97002e-05,6.58465e-05,-1.31526e-05,-2.33012e-05,7.79697e-06,-1.22968e-05,1.40599e-05,-5.2634e-06,0
-2.95365e-05,8.39593e-05,-1.21054e-05,-1.74618e-05,5.88432e-06,-1.29716e-05,1.60963e-05,-3.45897e-06,0
-2.88611e-05,8.95541e-05,-1.02795e-05,-9.7186e-06,2.6913e-06,-1.17753e-05,1.81663e-05,-2.91178e-06,0
-2.86078e-05,7.39213e-05,-9.21498e-06,-1.72819e-06,-1.27437e-06,-9.33072e-06,1.93754e-05,-1.22347e-06,0
-2.99277e-05,4.68236e-05,-9.57676e-06,5.02483e-06,-3.50757e-06,-6.78805e-06,1.87274e-05,1.47678e-06,0
-3.05722e-05,2.20439e-05,-9.39726e-06,6.78304e-06,-3.92604e-06,-4.72105e-06,1.75241e-05,3.05913e-06,0
-2.84601e-05,1.86852e-05,-7.78063e-06,4.8961e-06,-3.00455e-06,-4.39456e-06,1.69816e-05,2.33549e-06,0
-2.53109e-05,3.82399e-05,-4.55075e-06,1.86705e-06,-3.57098e-07,-3.01516e-06,1.54423e-05,1.61026e-06,0
-2.28524e-05,5.37844e-05,-1.17026e-06,-6.9248e-07,2.45541e-06,-4.74988e-07,1.28126e-05,2.27894e-06,0
-2.17148e-05,4.61475e-05,-5.23696e-08,-4.37841e-06,5.92639e-06,-3.92637e-07,1.06618e-05,2.27693e-06,0
-2.22702e-05,1.94519e-05,-1.48969e-07,-1.07674e-05,7.76401e-06,-4.25264e-07,1.08175e-05,3.37682e-06,0
-2.52822e-05,-9.00646e-06,9.56567e-08,-1.63627e-05,7.50516e-06,-4.29332e-07,1.16959e-05,5.70353e-06,0
-2.98777e-05,-2.74987e-05,-1.69339e-06,-1.64461e-05,8.16829e-06,-9.81725e-07,1.29092e-05,5.3818e-06,0
-3.32923e-05,-3.6796e-05,-3.88186e-06,-1.12069e-05,1.27021e-05,-2.25887e-06,1.29067e-05,4.34501e-06,0
-3.44647e-05,-3.74908e-05,-4.47956e-06,-7.00813e-06,1.90705e-05,-2.41209e-06,1.18143e-05,3.91218e-06,0
-3.34469e-05,-2.69785e-05,-3.5346e-06,-1.32727e-06,2.23278e-05,-1.92474e-06,1.19216e-05,3.62714e-06,0
-3.16638e-05,-9.67335e-06,-1.28604e-06,1.22882e-05,2.35974e-05,-1.17895e-06,1.27588e-05,3.64743e-06,0
-3.04157e-05,2.2429e-06,5.04244e-07,2.87915e-05,2.29357e-05,-2.58529e-07,1.44131e-05,4.02513e-06,0
-2.94862e-05,5.15828e-06,1.65244e-06,3.82221e-05,2.12944e-05,2.58128e-07,1.56459e-05,4.94665e-06,0
-2.96313e-05,5.55738e-06,1.58811e-06,3.73134e-05,2.06066e-05,-7.09468e-07,1.55375e-05,4.76504e-06,0
-2.9583e-05,6.92815e-06,-4.0871e-07,2.68943e-05,2.01294e-05,-2.94856e-06,1.51735e-05,4.29823e-06,0
-2.78397e-05,8.08497e-06,-4.84309e-06,1.31082e-05,2.04855e-05,-4.51671e-06,1.57061e-05,3.48478e-06,0
-2.40407e-05,5.53123e-06,-9.39277e-06,1.51561e-06,2.23791e-05,-4.85964e-06,1.63961e-05,2.07482e-06,0
-1.73577e-05,-1.36194e-06,-1.15886e-05,-7.08398e-06,2.58496e-05,-4.70654e-06,1.73513e-05,2.02894e-06,0
-1.03854e-05,-9.54169e-06,-1.23498e-05,-1.29609e-05,2.96047e-05,-5.24709e-06,1.88867e-05,3.93659e-06,0
-9.76915e-06,-1.45998e-05,-1.46215e-05,-1.59897e-05,3.19555e-05,-5.93501e-06,1.91468e-05,5.25346e-06,0
-1.63662e-05,-1.32394e-05,-1.87172e-05,-1.76133e-05,3.18658e-05,-6.65187e-06,1.75064e-05,3.70975e-06,0
-2.50584e-05,-6.57365e-06,-2.14151e-05,-2.08765e-05,2.84385e-05,-7.23973e-06,1.60181e-05,1.62785e-06,0
-3.34537e-05,-3.35559e-07,-2.05369e-05,-2.68721e-05,2.34459e-05,-8.07445e-06,1.58166e-05,1.90784e-06,0
-4.13796e-05,1.58025e-06,-1.85815e-05,-3.55286e-05,1.93416e-05,-9.48396e-06,1.53853e-05,3.83114e-06,0
-4.6918e-05,2.18346e-06,-1.91912e-05,-4.43433e-05,1.54896e-05,-1.17313e-05,1.38546e-05,4.24899e-06,0
-4.94094e-05,4.02389e-06,-2.17706e-05,-5.08119e-05,1.25441e-05,-1.33118e-05,1.24484e-05,2.44373e-06,0
-5.17338e-05,3.79095e-06,-2.28893e-05,-5.1121e-05,1.25559e-05,-1.35437e-05,1.106e-05,1.26473e-06,0
-5.50467e-05,3.08189e-07,-2.19301e-05,-4.22004e-05,1.3362e-05,-1.36755e-05,1.05587e-05,2.40343e-06,0
-5.71542e-05,1.08241e-06,-2.08429e-05,-2.55353e-05,1.30331e-05,-1.41309e-05,1.17782e-05,3.50443e-06,0
-5.51161e-05,9.26391e-06,-2.07832e-05,-1.90536e-06,9.96884e-06,-1.38259e-05,1.39438e-05,2.03854e-06,0
-5.06788e-05,1.65902e-05,-1.93956e-05,1.92757e-05,5.38822e-06,-1.26277e-05,1.63681e-05,-3.20222e-07,0
-4.66533e-05,1.94622e-05,-1.71682e-05,2.78023e-05,3.34619e-06,-1.28386e-05,1.64821e-05,-2.0945e-06,0
-4.22022e-05,2.04106e-05,-1.54692e-05,2.59589e-05,5.3726e-06,-1.38273e-05,1.48068e-05,-2.94781e-06,0
-3.86018e-05,1.99715e-05,-1.52005e-05,1.66504e-05,1.02745e-05,-1.31331e-05,1.45725e-05,-1.58548e-06,0
-3.59479e-05,2.00113e-05,-1.76162e-05,5.17111e-06,1.3409e-05,-9.48786e-06,1.74392e-05,3.20976e-08,0
-3.35439e-05,2.1128e-05,-1.8996e-05,-4.71533e-06,1.34955e-05,-5.44651e-06,2.14352e-05,5.66394e-07,0
-3.20307e-05,2.46884e-05,-1.81057e-05,-1.19779e-05,1.32198e-05,-3.27505e-06,2.3873e-05,-3.46555e-07,0
-3.16292e-05,2.71201e-05,-1.58114e-05,-1.70314e-05,1.27131e-05,-3.04072e-06,2.50232e-05,-1.18923e-06,0
-3.14634e-05,2.57889e-05,-1.56433e-05,-1.85266e-05,1.09973e-05,-4.85914e-06,2.49936e-05,-1.31052e-06,0
-3.12018e-05,2.33823e-05,-1.68761e-05,-1.61386e-05,9.95613e-06,-7.40891e-06,2.29184e-05,-7.73918e-07,0
-3.11436e-05,2.15165e-05,-1.71634e-05,-1.2798e-05,1.00856e-05,-9.69099e-06,1.93158e-05,1.83834e-06,0
-3.08264e-05,1.99678e-05,-1.60214e-05,-1.0895e-05,9.76963e-06,-1.19347e-05,1.51554e-05,5.22301e-06,0
-2.92652e-05,1.71686e-05,-1.28649e-05,-9.42077e-06,8.88984e-06,-1.27785e-05,1.06083e-05,6.61039e-06,0
-2.70484e-05,1.44979e-05,-1.00632e-05,-5.00571e-06,8.71933e-06,-1.19285e-05,7.01837e-06,5.74494e-06,0
-2.59914e-05,1.39901e-05,-9.57758e-06,1.09548e-06,9.57808e-06,-1.11445e-05,5.37268e-06,4.5846e-06,0
-2.59334e-05,1.68626e-05,-1.06581e-05,5.3733e-06,1.04387e-05,-1.16775e-05,5.09525e-06,3.21058e-06,0
-2.60913e-05,2.08259e-05,-9.80271e-06,5.88737e-06,1.07951e-05,-1.24361e-05,5.29404e-06,1.83716e-06,0
-2.58612e-05,2.45644e-05,-6.25706e-06,5.1026e-06,1.04243e-05,-1.22206e-05,5.70791e-06,7.35958e-07,0
-2.62852e-05,2.66277e-05,-2.59055e-06,3.94653e-06,9.19825e-06,-1.19807e-05,6.41553e-06,-9.98326e-08,0
-2.78958e-05,2.62388e-05,-1.69885e-06,1.90502e-06,6.55709e-06,-1.25509e-05,7.23071e-06,-1.67703e-06,0
-2.93015e-05,2.44756e-05,-3.54388e-06,-4.14768e-07,4.41858e-06,-1.3759e-05,7.35534e-06,-2.87414e-06,0
-2.93359e-05,2.41547e-05,-5.09562e-06,-1.98771e-06,5.31244e-06,-1.443e-05,6.31962e-06,-2.09184e-06,0
-2.95208e-05,2.58243e-05,-5.20013e-06,-3.69137e-06,8.14653e-06,-1.41988e-05,5.29444e-06,4.96796e-08,0
-2.91258e-05,2.65987e-05,-5.49233e-06,-4.69821e-06,1.19165e-05,-1.38664e-05,5.55703e-06,2.05757e-06,0
-2.79763e-05,2.59861e-05,-5.25235e-06,-5.05639e-06,1.57236e-05,-1.54938e-05,6.72262e-06,2.15158e-06,0
-2.71785e-05,2.57371e-05,-4.86019e-06,-5.76962e-06,1.73175e-05,-1.73472e-05,8.34548e-06,2.7093e-07,0
-2.63553e-05,3.29082e-05,-4.60516e-06,-7.45613e-06,1.53537e-05,-1.71306e-05,9.00672e-06,-2.26902e-06,0
-2.72672e-05,4.57432e-05,-4.73197e-06,-7.6771e-06,1.31572e-05,-1.48413e-05,8.28309e-06,-3.1127e-06,0
-2.75694e-05,5.42283e-05,-4.71402e-06,-3.23804e-06,1.44953e-05,-1.30558e-05,8.57836e-06,-2.80587e-06,0
-2.64749e-05,5.5848e-05,-4.16674e-06,1.44118e-06,1.66202e-05,-1.29324e-05,1.25803e-05,-1.56303e-06,0
-2.65943e-05,5.08969e-05,-4.13874e-06,3.93608e-06,1.59506e-05,-1.2682e-05,2.28226e-05,2.77502e-07,0
-2.71625e-05,3.86989e-05,-3.63316e-06,3.43444e-06,1.22509e-05,-1.23434e-05,3.84e-05,1.25396e-06,0
-2.73919e-05,2.02757e-05,-3.73876e-06,-7.55518e-07,7.78981e-06,-1.21321e-05,5.75319e-05,1.68658e-06,0
-2.69322e-05,1.73567e-06,-3.48318e-06,-4.05562e-06,6.13896e-06,-1.13787e-05,7.48662e-05,1.52153e-06,0
-2.62755e-05,-1.34643e-05,-2.257e-06,-5.53925e-06,8.71063e-06,-9.29403e-06,8.16819e-05,2.41901e-06,0
-2.52798e-05,-2.2557e-05,-1.02052e-06,-6.29364e-06,1.18186e-05,-7.42528e-06,7.40771e-05,3.05641e-06,0
-2.42824e-05,-2.54956e-05,-7.31108e-07,-5.72671e-06,1.35105e-05,-6.79792e-06,5.36364e-05,3.08439e-06,0
-2.46728e-05,-2.37289e-05,-2.09808e-06,-5.0574e-06,1.43216e-05,-6.2249e-06,2.34501e-05,2.96527e-06,0
-2.57976e-05,-1.73115e-05,-4.55223e-06,-5.45164e-06,1.43779e-05,-5.99795e-06,-1.01746e-05,2.28652e-06,0
-2.63582e-05,-1.11752e-05,-7.13712e-06,-6.44659e-06,1.49159e-05,-7.02698e-06,-3.82316e-05,3.72402e-07,0
-2.7004e-05,-7.93898e-06,-9.15245e-06,-7.08171e-06,1.59048e-05,-8.1251e-06,-5.62672e-05,-2.17338e-06,0
-2.836e-05,-6.62489e-06,-1.08066e-05,-7.59794e-06,1.72935e-05,-8.56649e-06,-6.30353e-05,-3.01607e-06,0
-2.8807e-05,-4.59325e-06,-1.15601e-05,-6.23044e-06,1.80592e-05,-7.99884e-06,-6.02702e-05,-2.35777e-06,0
-2.83057e-05,-8.94535e-07,-1.08899e-05,-3.87075e-06,1.84861e-05,-7.06956e-06,-5.14379e-05,-7.98316e-07,0
-2.82006e-05,3.77734e-06,-9.09117e-06,-6.21748e-06,1.90769e-05,-7.85536e-06,-3.99253e-05,-7.74151e-08,0
-2.87026e-05,6.45193e-06,-8.39258e-06,-1.78275e-05,1.91667e-05,-1.0019e-05,-2.73611e-05,-4.80797e-07,0
-2.92075e-05,6.44247e-06,-9.40867e-06,-3.2779e-05,1.80643e-05,-1.07513e-05,-1.62747e-05,-7.53573e-07,0
-3.03069e-05,5.55271e-06,-1.125e-05,-3.77475e-05,1.61938e-05,-9.98634e-06,-9.03932e-06,5.30377e-08,0
-3.07333e-05,4.53089e-06,-1.38191e-05,-2.53067e-05,1.40563e-05,-9.1203e-06,-3.18676e-06,1.09578e-06,0
-2.92174e-05,3.22753e-06,-1.60967e-05,-9.6564e-07,1.33353e-05,-8.35534e-06,2.22719e-06,1.53052e-06,0
-2.71933e-05,3.56064e-06,-1.62784e-05,2.24435e-05,1.58348e-05,-8.53473e-06,7.44595e-06,1.16167e-06,0
-2.65855e-05,5.8977e-06,-1.45123e-05,3.50742e-05,1.80225e-05,-9.53889e-06,1.34795e-05,1.03478e-06,0
-2.88469e-05,7.19926e-06,-1.13949e-05,3.77799e-05,1.77671e-05,-1.00414e-05,1.77248e-05,1.13997e-06,0
-3.12748e-05,6.96372e-06,-8.33789e-06,3.70739e-05,1.84659e-05,-8.5877e-06,1.8009e-05,1.19636e-06,0
-3.06885e-05,7.20665e-06,-7.86197e-06,2.85156e-05,1.99848e-05,-6.62241e-06,1.61764e-05,-1.51087e-07,0
-2.76422e-05,8.27218e-06,-8.68898e-06,1.0584e-05,2.14482e-05,-6.03081e-06,1.4555e-05,4.07607e-07,0
-2.7012e-05,9.26498e-06,-9.34616e-06,-5.28003e-06,2.56663e-05,-6.05095e-06,1.44081e-05,2.71492e-06,0
-2.89968e-05,8.51723e-06,-8.92946e-06,-1.07531e-05,3.09623e-05,-5.82502e-06,1.56456e-05,2.88334e-06,0
-2.9943e-05,4.73833e-06,-8.88028e-06,-8.20988e-06,3.49279e-05,-4.75226e-06,1.5999e-05,3.88067e-06,0
-2.91018e-05,1.11112e-06,-9.68659e-06,-5.48454e-06,3.31555e-05,-6.01341e-06,1.65334e-05,5.09203e-06,0
-2.69745e-05,-6.20903e-07,-1.03951e-05,-5.6499e-06,2.64263e-05,-7.88444e-06,1.79846e-05,4.58391e-06,0
-2.68393e-05,-1.47943e-06,-1.09054e-05,-8.72705e-06,2.15534e-05,-8.14637e-06,1.97081e-05,1.89205e-06,0
-2.76931e-05,-4.36969e-06,-9.95269e-06,-1.28917e-05,1.88264e-05,-8.56692e-06,2.28566e-05,-7.52489e-07,0
-2.80176e-05,-8.37837e-06,-9.12088e-06,-1.7599e-05,1.59174e-05,-8.4289e-06,2.53326e-05,-3.26267e-06,0
-2.82116e-05,-1.05773e-05,-9.32002e-06,-2.29709e-05,1.31876e-05,-7.60105e-06,2.58537e-05,-5.87391e-06,0
-2.78924e-05,-9.70004e-06,-8.50224e-06,-2.71533e-05,1.13113e-05,-6.69049e-06,2.58282e-05,-8.19363e-06,0
-2.69568e-05,-7.08043e-06,-5.6593e-06,-2.79173e-05,1.16271e-05,-7.64102e-06,2.60913e-05,-9.84363e-06,0
-2.70622e-05,-4.92516e-06,-3.10697e-06,-2.54985e-05,1.53788e-05,-9.13873e-06,2.59826e-05,-1.03727e-05,0
-2.96887e-05,-4.04332e-06,-2.64617e-06,-2.17603e-05,2.08972e-05,-8.52789e-06,2.50887e-05,-1.08053e-05,0
-3.29266e-05,-4.51453e-06,-4.22171e-06,-1.86826e-05,2.51914e-05,-5.32869e-06,2.30511e-05,-1.1844e-05,0
-3.44265e-05,-4.75295e-06,-7.00093e-06,-1.63056e-05,2.6707e-05,-1.08941e-06,2.01256e-05,-1.27604e-05,0
-3.43464e-05,-4.33798e-06,-8.7604e-06,-8.2802e-06,2.7621e-05,1.64861e-06,1.7585e-05,-1.16844e-05,0
-3.43105e-05,-2.87554e-06,-8.17786e-06,6.1822e-06,2.88862e-05,1.33168e-06,1.67324e-05,-9.10342e-06,0
-3.42633e-05,4.02752e-07,-6.57358e-06,1.67979e-05,2.85666e-05,-6.28292e-07,1.74022e-05,-6.6087e-06,0
-3.36238e-05,4.17437e-06,-5.63007e-06,1.619e-05,2.51629e-05,-1.47472e-06,1.848e-05,-5.18264e-06,0
-3.16697e-05,6.74227e-06,-5.68411e-06,5.87726e-06,2.27458e-05,2.36781e-07,1.81512e-05,-4.39838e-06,0
-2.94557e-05,9.05556e-06,-5.07135e-06,-1.23279e-05,2.51405e-05,2.24722e-06,1.54026e-05,-3.82146e-06,0
-2.85316e-05,1.1472e-05,-4.08381e-06,-3.01067e-05,2.9718e-05,3.08067e-06,1.17176e-05,-3.7824e-06,0
-2.88441e-05,1.30309e-05,-4.57963e-06,-3.99244e-05,2.97828e-05,3.05221e-06,8.11481e-06,-4.19964e-06,0
-2.88941e-05,1.46304e-05,-6.43084e-06,-4.1031e-05,2.42921e-05,1.95329e-06,6.36545e-06,-3.75178e-06,0
-2.85744e-05,1.80512e-05,-8.71741e-06,-3.22259e-05,2.30206e-05,6.66633e-07,8.70954e-06,-3.63971e-06,0
-2.78472e-05,1.97222e-05,-9.04242e-06,-1.20022e-05,3.07245e-05,-6.80281e-07,1.30731e-05,-5.18764e-06,0
-2.78537e-05,1.97798e-05,-6.75337e-06,1.12855e-05,3.8305e-05,-1.67839e-06,1.48722e-05,-6.88708e-06,0
-2.83925e-05,1.98615e-05,-4.51347e-06,2.10382e-05,3.9381e-05,-2.14982e-06,1.11276e-05,-6.59198e-06,0
-2.90082e-05,1.7637e-05,-5.32342e-06,1.83881e-05,3.90531e-05,-2.63842e-06,5.93212e-06,-4.99273e-06,0
-3.01852e-05,1.50104e-05,-7.63175e-06,1.21383e-05,3.85131e-05,-4.15045e-06,5.1039e-06,-2.6567e-06,0
-3.03581e-05,1.43771e-05,-8.27203e-06,1.70601e-06,3.26401e-05,-5.01806e-06,6.96192e-06,1.26348e-07,0
-3.06978e-05,1.69319e-05,-7.98441e-06,-4.74595e-06,2.33309e-05,-5.27938e-06,9.45134e-06,2.50078e-06,0
-3.17751e-05,2.05654e-05,-7.89748e-06,8.45554e-06,1.72627e-05,-6.57902e-06,9.99208e-06,5.27479e-06,0
-3.16253e-05,2.20466e-05,-7.33607e-06,3.86667e-05,1.37417e-05,-9.24501e-06,1.06698e-05,7.0846e-06,0
-2.9848e-05,2.12592e-05,-6.41847e-06,6.48756e-05,1.0266e-05,-1.15443e-05,1.36906e-05,6.66876e-06,0
-2.84873e-05,2.15291e-05,-4.75138e-06,7.22802e-05,8.22075e-06,-1.02354e-05,1.63219e-05,6.10678e-06,0
-2.74636e-05,2.41952e-05,-2.71314e-06,5.81113e-05,1.00139e-05,-8.25817e-06,1.68713e-05,7.29272e-06,0
-2.69591e-05,2.73612e-05,-2.10951e-06,2.33198e-05,1.41519e-05,-9.23628e-06,1.55389e-05,9.53379e-06,0
-2.78483e-05,2.90966e-05,-2.29521e-06,-2.29765e-05,1.63673e-05,-1.16266e-05,1.42567e-05,1.077e-05,0
-3.05133e-05,2.85377e-05,-2.64234e-06,-6.29747e-05,1.5857e-05,-1.23506e-05,1.34583e-05,1.04665e-05,0
-3.28437e-05,2.69841e-05,-2.73099e-06,-8.17327e-05,1.25439e-05,-1.17668e-05,1.39532e-05,1.11881e-05,0
-3.3399e-05,2.69855e-05,-2.23612e-06,-7.80147e-05,7.18257e-06,-1.1277e-05,1.52561e-05,1.3909e-05,0
-3.4431e-05,2.97774e-05,-1.33072e-06,-6.46671e-05,2.73249e-06,-1.11076e-05,1.50479e-05,1.59303e-05,0
-3.63277e-05,3.23358e-05,-2.8664e-09,-5.43318e-05,2.02749e-06,-1.18464e-05,1.27278e-05,1.47248e-05,0
-3.65952e-05,3.32908e-05,2.30211e-06,-4.89073e-05,6.03052e-06,-1.30301e-05,1.0781e-05,1.23075e-05,0
-3.52673e-05,3.3098e-05,3.27891e-06,-4.50674e-05,1.11213e-05,-1.37112e-05,1.11645e-05,1.13131e-05,0
-3.44196e-05,3.20802e-05,2.20757e-08,-3.73552e-05,1.0658e-05,-1.37314e-05,1.32364e-05,1.15381e-05,0
-3.40189e-05,3.15831e-05,-5.05973e-06,-2.46625e-05,6.64686e-06,-1.42799e-05,1.49656e-05,1.1496e-05,0
-3.4918e-05,3.04151e-05,-8.51208e-06,-1.1011e-05,3.21757e-06,-1.53436e-05,1.6178e-05,1.06823e-05,0
-3.63356e-05,2.60817e-05,-9.73706e-06,1.3825e-06,-7.78143e-08,-1.65742e-05,1.74532e-05,1.04781e-05,0
-3.69406e-05,2.20825e-05,-1.04786e-05,1.05669e-05,-2.32887e-06,-1.82872e-05,1.76075e-05,1.05008e-05,0
-3.63708e-05,2.16316e-05,-1.09253e-05,1.67154e-05,-3.21497e-06,-1.79255e-05,1.55656e-05,8.01119e-06,0
-3.64244e-05,2.24652e-05,-1.08987e-05,1.88024e-05,-2.64531e-06,-1.58027e-05,1.49012e-05,4.55065e-06,0
-3.69658e-05,2.30256e-05,-1.06657e-05,2.26275e-05,-4.33494e-06,-1.46403e-05,1.62928e-05,4.15966e-06,0
-3.6144e-05,2.27116e-05,-9.1905e-06,3.06989e-05,-6.38516e-06,-1.43585e-05,1.58683e-05,6.70066e-06,0
-3.43349e-05,2.40436e-05,-7.1622e-06,3.45217e-05,-2.7393e-06,-1.3561e-05,1.34009e-05,8.77011e-06,0
-3.38022e-05,2.48911e-05,-5.08814e-06,3.38969e-05,2.83287e-06,-1.20279e-05,1.18204e-05,7.6073e-06,0
-3.44368e-05,2.4073e-05,-3.89559e-06,3.02721e-05,4.5484e-06,-1.18688e-05,1.21621e-05,5.8492e-06,0
-3.41187e-05,2.36864e-05,-4.44402e-06,2.60703e-05,2.50138e-06,-1.17257e-05,1.24219e-05,5.98563e-06,0
-3.4691e-05,2.24524e-05,-5.56148e-06,2.03296e-05,1.53556e-06,-1.06781e-05,1.24393e-05,7.18446e-06,0
-3.48338e-05,2.12741e-05,-7.55828e-06,1.27456e-05,2.56784e-06,-9.12295e-06,1.29369e-05,8.3232e-06,0
-3.37551e-05,2.00731e-05,-1.01468e-05,3.35602e-06,3.44532e-06,-8.00598e-06,1.44486e-05,5.95409e-06,0
-3.27488e-05,2.0055e-05,-1.28359e-05,-6.74948e-06,2.81984e-06,-7.01605e-06,1.54966e-05,1.22805e-06,0
-3.23742e-05,2.08655e-05,-1.38803e-05,-1.26661e-05,5.15684e-07,-5.40674e-06,1.5807e-05,-3.70356e-07,0
-3.1921e-05,2.18002e-05,-1.2166e-05,-1.16834e-05,-9.04764e-07,-4.28765e-06,1.46177e-05,9.47128e-07,0
-3.0883e-05,2.32183e-05,-9.1106e-06,-4.61254e-06,-6.06223e-07,-3.24029e-06,1.24892e-05,1.32631e-06,0
-3.04711e-05,2.42243e-05,-6.63155e-06,2.41941e-06,-8.8688e-07,-2.47366e-06,1.14095e-05,-7.69142e-08,0
-2.99032e-05,2.38922e-05,-5.64344e-06,4.11958e-06,-3.06228e-06,-2.67956e-06,1.28065e-05,-1.13475e-06,0
-2.85188e-05,2.28077e-05,-6.26161e-06,-9.13297e-07,-5.9613e-06,-3.51128e-06,1.69238e-05,-1.30986e-06,0
-2.80223e-05,2.18839e-05,-8.23494e-06,-7.6582e-06,-8.80219e-06,-4.07255e-06,2.1362e-05,-1.55329e-06,0
-2.9373e-05,2.14211e-05,-1.02072e-05,-1.41399e-05,-9.76179e-06,-4.46907e-06,2.35642e-05,-2.02246e-06,0
-3.0912e-05,2.17579e-05,-1.14142e-05,-2.16346e-05,-7.78385e-06,-5.66606e-06,2.29131e-05,-2.59077e-06,0
-3.18751e-05,2.16283e-05,-1.1328e-05,-2.79196e-05,-6.05393e-06,-7.14392e-06,2.08181e-05,-2.84272e-06,0
-3.13378e-05,2.10738e-05,-1.19993e-05,-3.03669e-05,-5.86667e-06,-7.54993e-06,1.7904e-05,-1.07996e-06,0
-3.01739e-05,1.92287e-05,-1.33812e-05,-2.9358e-05,-7.02892e-06,-7.78445e-06,1.46041e-05,1.62879e-06,0
-2.95686e-05,1.48585e-05,-1.26286e-05,-2.44114e-05,-8.829e-06,-7.06617e-06,1.18375e-05,1.88506e-06,0
-2.92395e-05,1.17442e-05,-1.21771e-05,-1.8347e-05,-7.21083e-06,-5.93491e-06,9.99624e-06,3.61233e-07,0
-2.96254e-05,1.35326e-05,-1.35047e-05,-1.5126e-05,-2.15156e-06,-5.68173e-06,8.04288e-06,-5.83214e-07,0
-3.00498e-05,1.79444e-05,-1.3125e-05,-1.87648e-05,1.18617e-06,-7.36192e-06,7.76077e-06,-5.49867e-08,0
-2.87263e-05,1.90112e-05,-1.19725e-05,-2.78535e-05,-2.70135e-07,-9.46097e-06,7.73106e-06,-5.38364e-08,0
-2.8139e-05,1.57973e-05,-1.16559e-05,-3.53765e-05,-2.5811e-06,-1.02182e-05,6.91601e-06,-1.54591e-07,0
-3.00029e-05,1.36308e-05,-1.11828e-05,-3.72363e-05,-2.54144e-06,-1.20755e-05,5.20151e-06,8.62447e-07,0
-3.15167e-05,1.28434e-05,-9.5349e-06,-2.82839e-05,-9.78609e-07,-1.28782e-05,3.67335e-06,1.22925e-06,0
-3.23003e-05,1.20819e-05,-6.92237e-06,-7.79394e-06,1.62007e-06,-1.15236e-05,4.37988e-06,4.29278e-06,0
-3.18535e-05,1.09336e-05,-5.7013e-06,1.69849e-05,4.1667e-06,-1.13427e-05,3.6594e-06,6.88253e-06,0
-3.09891e-05,1.05326e-05,-6.06386e-06,3.46037e-05,5.73343e-06,-1.24743e-05,2.49072e-06,5.38575e-06,0
-3.16788e-05,1.44653e-05,-8.52964e-06,3.73976e-05,7.97302e-06,-1.31335e-05,2.39103e-06,3.61295e-06,0
-3.26547e-05,2.37714e-05,-1.14121e-05,3.05521e-05,1.19152e-05,-1.38114e-05,4.15455e-06,3.90883e-06,0
-3.14843e-05,3.27028e-05,-1.04919e-05,2.18296e-05,1.58908e-05,-1.49882e-05,7.38094e-06,4.94457e-06,0
-2.95381e-05,3.64187e-05,-6.89894e-06,1.52223e-05,1.88045e-05,-1.64295e-05,9.20574e-06,4.99538e-06,0
-2.7725e-05,3.46484e-05,-4.40262e-06,1.29778e-05,2.00394e-05,-1.83639e-05,9.74303e-06,4.60365e-06,0
-2.6223e-05,2.88474e-05,-5.1404e-06,1.30148e-05,2.02261e-05,-2.01981e-05,9.95249e-06,3.16632e-06,0
-2.60677e-05,2.06731e-05,-7.36898e-06,1.19876e-05,2.01614e-05,-2.07076e-05,8.37736e-06,9.22482e-07,0
-2.63201e-05,1.09969e-05,-8.40728e-06,7.76061e-06,1.91488e-05,-2.09435e-05,3.33463e-07,-1.02941e-06,0
-2.6492e-05,9.9457e-07,-9.2102e-06,1.59866e-06,1.74658e-05,-2.22369e-05,-1.45402e-05,-1.25586e-06,0
-2.69507e-05,-1.04729e-05,-1.02809e-05,-6.04769e-06,1.64783e-05,-2.26121e-05,-2.7228e-05,1.19376e-07,0
-2.75301e-05,-2.21883e-05,-1.04658e-05,-1.42059e-05,1.48214e-05,-2.18088e-05,-2.81222e-05,2.04381e-06,0
-2.72118e-05,-3.07749e-05,-1.01264e-05,-2.01851e-05,1.21803e-05,-2.2639e-05,-1.74651e-05,2.7612e-06,0
-2.71305e-05,-3.37284e-05,-1.01053e-05,-2.08989e-05,9.42053e-06,-2.52356e-05,-1.80529e-06,2.55441e-06,0
-2.75958e-05,-3.15049e-05,-9.56452e-06,-1.71595e-05,6.9341e-06,-2.67431e-05,1.32459e-05,2.49023e-06,0
-2.73271e-05,-2.85773e-05,-8.50926e-06,-1.43717e-05,6.49826e-06,-2.55587e-05,2.72732e-05,2.15733e-06,0
-2.69185e-05,-2.83259e-05,-8.52577e-06,-1.4763e-05,8.60493e-06,-2.39515e-05,4.07161e-05,-1.25176e-07,0
-2.82506e-05,-2.8071e-05,-8.96511e-06,-1.43069e-05,1.08297e-05,-2.51005e-05,4.87731e-05,-3.44136e-06,0
-2.99676e-05,-2.47407e-05,-7.97816e-06,-1.2923e-05,1.15117e-05,-2.74707e-05,5.0719e-05,-5.14244e-06,0
-3.14454e-05,-1.80725e-05,-6.62425e-06,-1.39689e-05,1.2379e-05,-2.84706e-05,5.02212e-05,-5.25565e-06,0
-3.30374e-05,-1.10451e-05,-6.20954e-06,-1.60028e-05,1.52148e-05,-2.78994e-05,4.68558e-05,-4.06534e-06,0
-3.32268e-05,-4.76553e-06,-5.94753e-06,-1.46331e-05,1.85625e-05,-2.39821e-05,4.23421e-05,-2.38295e-06,0
-3.20899e-05,4.86047e-06,-5.57611e-06,-1.24725e-05,1.91689e-05,-2.05164e-05,3.81052e-05,-2.58373e-06,0
-2.86304e-05,2.31873e-05,-4.92515e-06,-1.15311e-05,1.69865e-05,-2.05922e-05,3.31485e-05,-3.99475e-06,0
-2.50516e-05,4.77883e-05,-4.96197e-06,-8.06922e-06,1.57072e-05,-2.13535e-05,2.74481e-05,-5.72429e-06,0
-2.50383e-05,6.95784e-05,-5.3195e-06,-1.80635e-06,1.49886e-05,-2.08502e-05,2.20199e-05,-6.13707e-06,0
-2.67371e-05,8.05102e-05,-2.99023e-06,4.37405e-06,1.26697e-05,-1.90657e-05,1.92152e-05,-3.68367e-06,0
-2.63852e-05,7.82875e-05,1.62463e-07,6.01278e-06,1.0321e-05,-1.72239e-05,1.86048e-05,-1.58989e-06,0
-2.46991e-05,6.50756e-05,1.01915e-06,4.38e-06,1.04815e-05,-1.53681e-05,1.86509e-05,-9.52884e-07,0
-2.2803e-05,4.19664e-05,-4.77714e-07,5.27464e-07,1.24599e-05,-1.43354e-05,1.90732e-05,-1.88199e-06,0
-2.08003e-05,1.65374e-05,-2.60257e-06,-4.53557e-06,1.30707e-05,-1.19848e-05,1.85635e-05,-1.83361e-06,0
-2.04739e-05,-2.9009e-06,-4.25461e-06,-1.05123e-05,1.20365e-05,-8.81588e-06,1.57696e-05,-4.16679e-07,0
-2.15874e-05,-1.4091e-05,-6.04421e-06,-1.58824e-05,1.05238e-05,-7.15389e-06,1.27214e-05,7.17538e-07,0
-2.19032e-05,-1.9836e-05,-7.9075e-06,-1.81522e-05,9.91594e-06,-7.45118e-06,1.02533e-05,8.1592e-07,0
-2.13248e-05,-2.28888e-05,-8.5649e-06,-1.74185e-05,9.89674e-06,-8.20742e-06,8.2605e-06,4.83741e-07,0
-2.19172e-05,-2.52635e-05,-7.65317e-06,-1.47462e-05,1.00864e-05,-8.29802e-06,7.00188e-06,-1.41386e-07,0
-2.33847e-05,-2.42962e-05,-6.96362e-06,-1.21482e-05,1.07808e-05,-7.59916e-06,6.43189e-06,-1.96731e-06,0
-2.47224e-05,-1.23709e-05,-7.27232e-06,-1.16017e-05,1.17349e-05,-6.06537e-06,6.74012e-06,-3.49099e-06,0
-2.5889e-05,8.9683e-06,-8.31758e-06,-1.45892e-05,1.29842e-05,-5.3572e-06,8.03474e-06,-4.09287e-06,0
-2.68679e-05,2.77595e-05,-9.9507e-06,-1.89013e-05,1.55438e-05,-4.83077e-06,8.84775e-06,-4.40803e-06,0
-2.77935e-05,4.01933e-05,-1.17734e-05,-1.98519e-05,1.85275e-05,-4.6362e-06,8.24186e-06,-5.42724e-06,0
-2.90507e-05,5.09067e-05,-1.29883e-05,-1.36817e-05,1.97848e-05,-5.22581e-06,6.6842e-06,-5.85203e-06,0
-2.94713e-05,5.56407e-05,-1.32632e-05,-2.06693e-06,1.96616e-05,-6.17338e-06,4.31573e-06,-2.87595e-06,0
-2.79017e-05,5.02221e-05,-1.13697e-05,9.41195e-06,2.08441e-05,-5.79014e-06,3.88031e-06,1.94615e-06,0
-2.54644e-05,3.09232e-05,-7.66851e-06,1.82371e-05,2.34124e-05,-4.90701e-06,6.05615e-06,4.62892e-06,0
-2.43056e-05,-2.40801e-06,-5.31733e-06,2.29591e-05,2.39075e-05,-4.15267e-06,8.85264e-06,4.47977e-06,0
-2.42157e-05,-3.69198e-05,-5.55684e-06,2.27379e-05,2.21385e-05,-3.18886e-06,1.16128e-05,2.63886e-06,0
-2.31771e-05,-6.81089e-05,-8.15113e-06,1.82123e-05,1.85625e-05,-3.72943e-06,1.33927e-05,1.86506e-06,0
