ch1,ch2,ch3,ch4,ch5,ch6,ch7,ch8,class
1.75956e-05,8.7478e-06,-4.7032e-06,-1.6961e-05,4.13711e-09,5.36045e-06,-0.000212332,4.94788e-07,0
-1.01238e-05,-3.84153e-05,-4.06207e-06,-2.45767e-06,5.71501e-07,-5.42769e-06,-0.000323618,8.09465e-07,0
-3.08505e-05,-9.41863e-05,-8.12753e-06,1.14453e-05,-1.37731e-06,-1.35853e-05,-0.000348328,2.65258e-07,0
-5.69525e-05,-0.000110965,-1.31062e-05,2.53177e-05,-4.7894e-06,-1.84041e-05,-0.000290259,-6.23286e-07,0
-8.4951e-05,-6.45135e-05,-1.55085e-05,3.77612e-05,-9.25931e-06,-1.93784e-05,-0.000190951,-5.85198e-07,0
-0.000101924,-2.66365e-06,-1.3496e-05,4.68555e-05,-1.20665e-05,-1.8414e-05,-9.69568e-05,-8.49908e-07,0
-0.000103114,1.4441e-05,-7.84882e-06,5.16972e-05,-1.00977e-05,-1.85157e-05,-5.30084e-05,-1.65084e-06,0
-9.03679e-05,-9.66054e-06,-3.73701e-06,4.74075e-05,-3.64794e-06,-2.27332e-05,-6.50437e-05,-3.64777e-07,0
-7.72568e-05,-1.31283e-05,-3.3524e-06,3.31261e-05,4.07779e-06,-2.97193e-05,-6.62278e-05,3.43417e-06,0
-7.57594e-05,2.24222e-05,-3.39897e-06,1.65635e-05,7.34379e-06,-3.30212e-05,-1.66827e-05,4.73364e-06,0
-9.198e-05,4.95207e-05,-3.66961e-06,-6.24337e-07,3.87646e-06,-3.33879e-05,5.25703e-05,1.68946e-06,0
-0.000101254,5.59272e-05,-5.34094e-06,-1.36387e-05,6.88536e-07,-3.37952e-05,0.00010718,-1.59321e-06,0
-7.26423e-05,4.33389e-05,-3.91273e-06,-1.38211e-05,5.47337e-06,-3.34474e-05,0.00014046,-2.18942e-06,0
-1.85932e-05,9.22779e-06,1.74164e-07,-5.24534e-06,1.67877e-05,-2.82841e-05,0.000149683,-1.12055e-06,0
2.92971e-05,-5.40266e-06,4.58742e-06,2.88554e-06,2.80772e-05,-1.48125e-05,0.000134428,-2.63216e-06,0
4.90937e-05,1.46101e-05,7.33788e-06,8.5496e-06,3.62876e-05,2.25851e-06,0.000103734,-7.56269e-06,0
2.95609e-05,1.55699e-05,5.06504e-06,1.04669e-05,3.88148e-05,1.77566e-05,7.00446e-05,-1.19518e-05,0
-2.15457e-05,-2.68357e-05,-9.22354e-07,6.64951e-06,3.61302e-05,2.6516e-05,4.24468e-05,-1.22801e-05,0
-6.47514e-05,-7.12469e-05,-5.51135e-06,-4.99038e-07,3.22593e-05,2.48927e-05,1.95431e-05,-9.77748e-06,0
-6.8467e-05,-8.78095e-05,-6.87178e-06,-9.23289e-06,3.05317e-05,1.46868e-05,-1.49343e-05,-6.76543e-06,0
-4.95197e-05,-8.88381e-05,-5.98522e-06,-1.86541e-05,2.98722e-05,1.5185e-06,-6.47269e-05,-3.632e-06,0
-4.41733e-05,-8.306e-05,-3.14959e-06,-2.51385e-05,2.57067e-05,-9.0302e-06,-0.000100358,-2.11068e-06,0
-6.3656e-05,-6.88835e-05,1.58128e-08,-2.86711e-05,2.31507e-05,-1.29776e-05,-9.55041e-05,-2.42257e-06,0
-9.67094e-05,-4.75908e-05,4.18989e-07,-3.53026e-05,4.59193e-05,-1.17597e-05,-5.33734e-05,-3.15854e-06,0
-0.000129095,-2.52047e-05,-2.40422e-06,-4.54711e-05,9.37118e-05,-1.07081e-05,-1.70736e-06,-3.1048e-06,0
-0.000143701,-3.81283e-06,-4.62239e-06,-5.18965e-05,0.000115753,-1.23436e-05,3.85542e-05,-1.31219e-06,0
-0.000119631,1.29849e-05,-4.46413e-06,-5.19095e-05,8.26581e-05,-1.57024e-05,6.04729e-05,1.27564e-06,0
-6.28893e-05,1.48863e-05,-2.43094e-06,-4.95622e-05,2.0953e-05,-1.80087e-05,6.62865e-05,3.3113e-06,0
-1.28895e-05,-3.19675e-06,-5.90509e-07,-4.74444e-05,-3.15311e-05,-1.75652e-05,6.09975e-05,4.13486e-06,0
6.82489e-06,-2.05068e-05,-5.22832e-07,-4.33158e-05,-5.44437e-05,-1.23803e-05,5.21908e-05,3.64558e-06,0
1.28813e-05,-1.2374e-05,-9.3309e-07,-3.49371e-05,-5.02939e-05,-1.03547e-06,4.4973e-05,2.54118e-06,0
2.33713e-05,1.71115e-05,-4.43916e-07,-2.26948e-05,-4.04227e-05,1.23453e-05,3.76561e-05,1.892e-06,0
3.98194e-05,6.24985e-05,3.26145e-07,-1.07848e-05,-4.23432e-05,1.63288e-05,2.86827e-05,2.21386e-06,0
5.65108e-05,0.00011984,-2.85297e-07,-6.67323e-06,-5.14674e-05,5.4486e-06,2.06996e-05,1.57589e-06,0
6.67692e-05,0.000173854,-6.76287e-07,-1.07603e-05,-6.33507e-05,-1.22799e-05,1.64342e-05,-1.82536e-07,0
7.6807e-05,0.00021274,2.49942e-06,-1.83656e-05,-8.22562e-05,-2.7303e-05,1.90092e-05,-1.96162e-06,0
7.6563e-05,0.000211817,4.89354e-06,-2.58455e-05,-9.13269e-05,-3.56105e-05,2.58562e-05,-3.14975e-06,0
5.47608e-05,0.000141265,3.89418e-06,-2.84947e-05,-8.38764e-05,-2.45789e-05,2.73499e-05,-3.56506e-06,0
1.37145e-05,2.73298e-05,2.7652e-06,-2.44203e-05,-6.83265e-05,5.83019e-07,1.94629e-05,-3.87775e-06,0
-3.80757e-05,-7.8415e-05,1.75013e-06,-1.33828e-05,-4.47575e-05,9.78645e-06,4.38934e-06,-4.53007e-06,0
-7.5625e-05,-0.000118018,5.73485e-07,-3.22959e-06,-2.58299e-05,-2.93871e-06,-7.66446e-06,-5.54343e-06,0
-8.94703e-05,-7.01325e-05,8.91522e-08,-5.36606e-06,-1.62086e-05,-1.773e-05,-1.32898e-05,-5.15956e-06,0
-8.71498e-05,8.42742e-06,-3.79655e-07,-1.69432e-05,-4.57879e-06,-2.25646e-05,-2.47711e-05,-4.10296e-06,0
-7.92704e-05,5.19173e-05,-2.48396e-06,-2.8009e-05,1.24694e-05,-1.59154e-05,-4.71263e-05,-4.05428e-06,0
-7.00357e-05,5.44661e-05,-5.31111e-06,-3.13138e-05,2.81373e-05,-1.72636e-06,-6.56665e-05,-3.9539e-06,0
-5.79904e-05,5.68539e-05,-7.04282e-06,-2.66143e-05,4.44364e-05,1.14159e-05,-6.13893e-05,-2.08845e-06,0
-4.5852e-05,6.90529e-05,-5.40003e-06,-1.74059e-05,6.32573e-05,3.33934e-05,-3.32912e-05,1.60935e-07,0
-4.21652e-05,6.41875e-05,-1.07014e-06,-6.64318e-06,7.3844e-05,6.08428e-05,-3.85599e-07,1.55113e-06,0
-5.42704e-05,2.11705e-05,3.38236e-06,7.39224e-07,7.04179e-05,6.38333e-05,2.09422e-05,1.45804e-06,0
-7.91313e-05,-3.16281e-05,5.91634e-06,3.01713e-06,6.14921e-05,3.78672e-05,2.34962e-05,-5.05904e-08,0
-0.000101696,-4.5202e-05,7.86731e-06,4.3036e-06,5.72439e-05,5.59845e-06,1.45979e-05,-1.43045e-06,0
-0.000108327,-1.99388e-05,1.268e-05,1.03039e-05,5.83499e-05,-1.27787e-05,4.30468e-06,-9.69389e-07,0
-0.000100508,6.04451e-06,2.12157e-05,2.11722e-05,6.15382e-05,-1.43576e-05,-9.35873e-06,1.63818e-06,0
-8.42631e-05,1.72126e-05,3.30933e-05,2.96584e-05,6.59272e-05,-1.0205e-05,-2.74749e-05,2.95235e-06,0
-6.1493e-05,2.05555e-05,4.49722e-05,2.92598e-05,7.05507e-05,-1.16298e-05,-3.42905e-05,2.13931e-06,0
-2.9779e-05,1.81237e-05,4.8893e-05,1.81469e-05,7.09215e-05,-1.87636e-05,-1.39487e-05,1.03798e-06,0
9.23231e-06,1.10074e-05,3.86063e-05,3.55789e-07,6.44374e-05,-2.18485e-05,2.64904e-05,5.70018e-07,0
4.52948e-05,2.85966e-06,1.63474e-05,-1.11601e-05,5.2199e-05,-1.48894e-05,6.16898e-05,9.08603e-07,0
5.88896e-05,3.84746e-06,-1.13057e-05,-8.67463e-06,3.84179e-05,-7.23122e-06,7.8302e-05,-3.92026e-07,0
4.44038e-05,1.98404e-05,-3.67276e-05,5.99354e-06,2.92666e-05,-9.76223e-06,8.24698e-05,-2.31335e-06,0
2.36618e-05,4.48279e-05,-5.31891e-05,2.90269e-05,2.74656e-05,-1.88255e-05,7.78005e-05,-3.55675e-07,0
1.18719e-05,6.58498e-05,-5.65334e-05,5.26176e-05,2.98113e-05,-2.78825e-05,6.97437e-05,2.37283e-06,0
4.56214e-06,7.69688e-05,-5.09035e-05,7.46157e-05,3.36733e-05,-3.74242e-05,6.45457e-05,3.17796e-06,0
-1.29456e-07,8.38369e-05,-4.65785e-05,8.81774e-05,3.28236e-05,-4.39001e-05,6.40753e-05,2.1497e-06,0
5.68153e-06,9.00673e-05,-4.52511e-05,8.75126e-05,2.49381e-05,-4.54137e-05,6.44546e-05,1.14251e-06,0
1.77856e-05,9.10491e-05,-4.45042e-05,7.69884e-05,1.66027e-05,-4.3587e-05,6.29402e-05,1.25014e-06,0
1.9844e-05,8.0312e-05,-4.23002e-05,5.76276e-05,1.03284e-05,-3.64811e-05,5.36721e-05,1.34872e-06,0
3.97823e-06,5.02076e-05,-3.71679e-05,3.12341e-05,3.61841e-06,-3.18411e-05,2.97318e-05,2.25701e-06,0
-2.91238e-05,3.68349e-06,-3.16264e-05,5.74126e-06,-3.46063e-06,-3.24618e-05,5.25156e-07,2.75889e-06,0
-6.00834e-05,-3.28303e-05,-2.70379e-05,-1.13272e-05,-4.89262e-06,-3.42676e-05,-2.27474e-05,1.63792e-06,0
-6.94012e-05,-4.4176e-05,-2.51307e-05,-2.38526e-05,3.51943e-06,-3.19725e-05,-3.68934e-05,8.14652e-07,0
-6.38699e-05,-4.55009e-05,-2.4682e-05,-3.45643e-05,1.61186e-05,-2.65975e-05,-4.23656e-05,1.37788e-06,0
-6.3773e-05,-5.12296e-05,-2.36062e-05,-4.1842e-05,2.34765e-05,-2.28107e-05,-4.0437e-05,1.71898e-06,0
-7.32401e-05,-5.50016e-05,-2.19342e-05,-4.48994e-05,2.45572e-05,-2.02394e-05,-3.25579e-05,1.16574e-06,0
-7.54262e-05,-4.60135e-05,-2.04195e-05,-4.55611e-05,2.14345e-05,-1.96734e-05,-2.27277e-05,-1.32011e-06,0
-6.05999e-05,-2.37627e-05,-1.87734e-05,-4.36759e-05,1.67583e-05,-2.09751e-05,-1.84236e-05,-3.63704e-06,0
-3.43898e-05,-1.53206e-06,-1.64335e-05,-3.6728e-05,1.39183e-05,-2.24515e-05,-2.04858e-05,-4.45508e-06,0
-9.27119e-06,1.70775e-06,-1.49195e-05,-2.37758e-05,1.47481e-05,-2.25489e-05,-1.97519e-05,-4.44967e-06,0
-5.27912e-07,-6.91085e-06,-1.4522e-05,-9.21407e-06,1.68922e-05,-2.33193e-05,-1.12071e-05,-4.43881e-06,0
-1.4803e-05,5.24843e-07,-1.49279e-05,-3.19156e-06,1.68578e-05,-2.33546e-05,2.77621e-06,-3.75481e-06,0
-3.25145e-05,2.25217e-05,-1.47821e-05,-8.4086e-06,1.47729e-05,-2.05046e-05,1.65927e-05,-1.12999e-06,0
-3.23691e-05,3.16058e-05,-1.32652e-05,-1.82607e-05,1.29316e-05,-1.53792e-05,2.42887e-05,2.61612e-06,0
-2.07967e-05,2.57643e-05,-1.17368e-05,-2.37912e-05,1.13319e-05,-1.23056e-05,2.10441e-05,6.11528e-06,0
-1.44552e-05,2.02972e-05,-1.1872e-05,-2.30575e-05,7.84931e-06,-1.20904e-05,1.02951e-05,8.82075e-06,0
-1.56858e-05,2.07166e-05,-1.11848e-05,-1.86714e-05,3.47367e-06,-1.1105e-05,5.24348e-06,1.05675e-05,0
-1.99619e-05,2.49824e-05,-8.76164e-06,-1.61225e-05,1.70183e-06,-7.61149e-06,1.40935e-05,1.07012e-05,0
-2.5176e-05,2.91946e-05,-6.18046e-06,-1.74264e-05,3.97643e-06,-3.53026e-06,3.1013e-05,1.14401e-05,0
-3.04502e-05,2.52078e-05,-3.67007e-06,-1.77904e-05,7.22017e-06,-1.05911e-06,4.82619e-05,1.15843e-05,0
-3.71842e-05,4.17188e-06,-2.2164e-06,-1.55586e-05,4.40244e-06,-9.5775e-07,6.22819e-05,9.94215e-06,0
-4.36166e-05,-2.28645e-05,-2.97182e-06,-1.44981e-05,-8.8162e-06,-1.89586e-06,6.9716e-05,6.8342e-06,0
-4.67803e-05,-3.75793e-05,-4.81276e-06,-1.49482e-05,-1.77912e-05,-1.01966e-06,6.83819e-05,6.27616e-06,0
-5.0131e-05,-3.35034e-05,-8.05755e-06,-1.06186e-05,-1.60594e-05,4.1023e-07,6.35903e-05,9.5768e-06,0
-5.38566e-05,-2.09904e-05,-1.26872e-05,-5.13618e-06,-1.10416e-05,1.2549e-06,5.98491e-05,1.20548e-05,0
-5.56265e-05,5.1659e-06,-1.57935e-05,-7.57744e-06,-4.7463e-06,7.60528e-07,5.52337e-05,1.30816e-05,0
-5.14677e-05,6.52788e-05,-1.689e-05,-1.26653e-05,-1.31032e-07,-1.80931e-06,4.53386e-05,1.22587e-05,0
-3.32603e-05,0.000137377,-1.64903e-05,-1.01965e-05,1.80919e-06,-4.7755e-06,2.26324e-05,1.08909e-05,0
-9.52684e-06,0.000148437,-1.54467e-05,1.43305e-06,2.28832e-08,-5.36596e-06,-2.9005e-06,9.24554e-06,0
1.72016e-06,5.33042e-05,-1.33403e-05,1.2516e-05,-3.13724e-06,-2.75035e-06,-1.51413e-05,7.12735e-06,0
-1.68183e-06,-8.94958e-05,-8.60853e-06,1.66318e-05,-4.78881e-06,1.61823e-06,-1.19649e-05,5.44122e-06,0
-1.2909e-05,-0.000191903,5.46553e-08,1.59296e-05,-4.49223e-06,4.68977e-06,-2.14434e-06,4.84075e-06,0
-2.48207e-05,-0.000194079,1.18289e-05,1.14554e-05,-4.83669e-06,6.12437e-06,5.90742e-06,4.16695e-06,0
-3.76662e-05,-9.72585e-05,2.52137e-05,2.11481e-06,-6.56284e-06,5.03499e-06,1.64339e-05,3.15843e-06,0
-5.59368e-05,3.33894e-05,3.91319e-05,-1.0912e-05,-7.46765e-06,-5.07008e-07,3.38438e-05,3.5567e-06,0
-7.61684e-05,0.000121925,5.18259e-05,-2.40045e-05,-6.01938e-06,-7.26361e-06,5.88126e-05,4.01725e-06,0
-8.90243e-05,0.000125474,5.94942e-05,-3.54387e-05,-3.14251e-06,-9.98548e-06,8.9125e-05,3.36187e-06,0
-8.63402e-05,6.46899e-05,5.68577e-05,-4.28299e-05,-1.36787e-06,-8.37207e-06,0.000117751,2.25542e-06,0
-7.52068e-05,-8.65208e-06,4.038e-05,-4.5669e-05,-1.81207e-06,-4.82208e-06,0.000139876,1.8634e-06,0
-7.15398e-05,-5.92536e-05,1.03822e-05,-4.54166e-05,-4.75464e-06,4.49246e-08,0.000159062,1.54286e-06,0
-7.55447e-05,-7.4297e-05,-2.56593e-05,-4.43982e-05,-3.33458e-06,8.48191e-06,0.000167348,1.72516e-06,0
-7.20676e-05,-4.59707e-05,-5.61851e-05,-4.19328e-05,1.10626e-05,1.90023e-05,0.000135392,2.66817e-06,0
-6.36148e-05,1.73297e-06,-7.44176e-05,-3.76418e-05,2.96046e-05,1.83798e-05,5.93535e-05,3.47323e-06,0
-5.75136e-05,3.22539e-05,-7.91452e-05,-3.27276e-05,3.16533e-05,3.93169e-06,3.41285e-07,3.41749e-06,0
-3.9715e-05,3.15691e-05,-7.05472e-05,-2.61724e-05,2.12264e-05,-9.77388e-06,7.78194e-06,2.44235e-06,0
-5.4139e-06,1.24924e-05,-5.2659e-05,-1.7689e-05,1.74062e-05,-1.58231e-05,6.15619e-05,1.47244e-06,0
2.23125e-05,1.02852e-05,-3.46022e-05,-8.72567e-06,2.52526e-05,-2.15498e-05,0.000109227,2.98664e-06,0
2.75982e-05,5.10995e-05,-2.23142e-05,-3.35052e-06,3.70504e-05,-2.38368e-05,0.000102312,6.18238e-06,0
1.52194e-05,0.000106445,-1.49135e-05,-1.54977e-06,4.38742e-05,8.38134e-06,3.6038e-05,6.81266e-06,0
-8.48678e-06,0.000112983,-1.27246e-05,4.34555e-06,4.12058e-05,5.24468e-05,-4.4324e-05,5.9756e-06,0
-3.35976e-05,7.97539e-05,-1.24682e-05,1.50234e-05,3.43303e-05,5.38546e-05,-0.000100718,4.05306e-06,0
-5.01871e-05,4.25768e-05,-1.09e-05,1.85335e-05,2.97346e-05,2.82436e-05,-0.00012927,1.20805e-06,0
-5.60594e-05,-1.73877e-06,-9.10114e-06,9.76599e-06,2.67687e-05,8.55064e-06,-0.000129457,4.34025e-07,0
-5.83777e-05,-4.97473e-05,-7.86324e-06,-7.21541e-06,2.77958e-05,3.36651e-06,-0.000118977,1.92086e-06,0
-6.03416e-05,-7.13099e-05,-7.75867e-06,-2.64051e-05,3.08652e-05,4.5044e-06,-0.000106849,3.69079e-06,0
-5.80758e-05,-4.75154e-05,-4.95977e-06,-3.49081e-05,3.23745e-05,6.89216e-06,-9.64952e-05,4.23559e-06,0
-5.02264e-05,-2.01509e-05,5.33493e-07,-2.54022e-05,3.38028e-05,7.72822e-06,-0.000111619,3.10614e-06,0
-4.05172e-05,-4.69316e-06,4.59018e-06,-3.53886e-06,3.52151e-05,5.1487e-06,-0.000158188,1.19111e-06,0
-3.54238e-05,7.70572e-06,7.116e-06,1.80161e-05,2.93467e-05,-2.10995e-08,-0.00019391,4.8236e-07,0
-3.41393e-05,1.81374e-05,8.98432e-06,3.05143e-05,1.41679e-05,-6.04123e-06,-0.000177905,1.59108e-06,0
-3.40029e-05,2.53195e-05,9.80673e-06,3.63213e-05,4.78225e-07,-9.23792e-06,-0.000116327,2.97378e-06,0
-3.44064e-05,2.73047e-05,9.05659e-06,3.98079e-05,-3.20009e-07,-9.67927e-06,-3.84102e-05,3.59692e-06,0
-3.61057e-05,2.7077e-05,6.3318e-06,3.74094e-05,1.21922e-05,-7.68814e-06,2.40251e-05,3.49217e-06,0
-3.73672e-05,2.38868e-05,2.96797e-06,2.50076e-05,2.8511e-05,-5.16704e-06,5.6501e-05,2.96135e-06,0
-3.4925e-05,2.17968e-05,1.20901e-06,6.2783e-06,4.0391e-05,-3.09918e-06,5.81292e-05,2.08445e-06,0
-2.9268e-05,1.98586e-05,2.85119e-07,-1.98986e-05,4.28118e-05,-3.8231e-06,4.32636e-05,1.33268e-06,0
-2.3275e-05,1.92673e-05,-3.79996e-06,-5.80418e-05,3.37973e-05,-6.84788e-06,2.76883e-05,1.94459e-06,0
-1.91707e-05,1.69085e-05,-1.19542e-05,-0.000101621,1.62866e-05,-1.19598e-05,2.13415e-05,3.55739e-06,0
-1.6609e-05,1.62901e-05,-2.03526e-05,-0.000146181,5.83864e-07,-1.54708e-05,2.13312e-05,4.25055e-06,0
-1.49538e-05,1.66882e-05,-2.69556e-05,-0.000189429,-7.50497e-06,-1.51209e-05,2.10996e-05,3.92529e-06,0
-1.4507e-05,1.74748e-05,-3.3253e-05,-0.000202198,-1.22557e-05,-1.31677e-05,1.58173e-05,7.93715e-06,0
-1.62205e-05,1.6912e-05,-4.08687e-05,-0.000176482,-8.10696e-06,-1.23615e-05,6.20597e-06,2.32191e-05,0
-1.8841e-05,1.6797e-05,-4.67236e-05,-0.000129548,6.80649e-06,-1.25581e-05,2.78219e-06,3.9573e-05,0
-2.28619e-05,1.8014e-05,-4.43777e-05,-6.27973e-05,1.13298e-05,-1.31923e-05,1.05222e-05,4.32152e-05,0
-2.84645e-05,1.80507e-05,-3.65078e-05,9.88749e-06,-4.89321e-06,-1.28802e-05,1.48415e-05,3.69717e-05,0
-3.05961e-05,1.48807e-05,-2.85794e-05,7.69205e-05,-4.91828e-05,-1.22351e-05,1.05169e-05,2.10038e-05,0
-2.86319e-05,1.36502e-05,-2.14583e-05,0.000117903,-8.9753e-05,-1.09622e-05,2.16008e-05,-1.96944e-06,0
-2.56909e-05,1.72395e-05,-1.66992e-05,0.000127522,-7.4429e-05,-7.02509e-06,6.13544e-05,-2.27551e-05,0
-2.20409e-05,2.01615e-05,-1.33804e-05,0.000125548,-2.2485e-05,-6.36965e-06,0.000119921,-3.57927e-05,0
-1.9968e-05,1.89058e-05,-1.1551e-05,0.00011776,2.80359e-05,-1.1279e-05,0.000167409,-3.82044e-05,0
-2.01821e-05,1.3894e-05,-1.21175e-05,0.000104127,6.22643e-05,-1.76653e-05,0.000179954,-3.39053e-05,0
-1.95972e-05,1.11028e-05,-1.14395e-05,7.77016e-05,7.81034e-05,-2.12254e-05,0.000153857,-2.8204e-05,0
-1.63733e-05,1.11397e-05,-7.59931e-06,4.28198e-05,7.22626e-05,-1.95484e-05,8.81096e-05,-2.25069e-05,0
-1.31727e-05,1.28529e-05,-4.11393e-06,1.04478e-05,5.42403e-05,-1.50546e-05,-6.60938e-06,-1.43253e-05,0
-1.0689e-05,1.51333e-05,-7.80739e-07,-1.07839e-05,3.22195e-05,-1.10714e-05,-0.00010651,-4.25511e-06,0
-8.79912e-06,1.83891e-05,3.08542e-06,-2.12903e-05,1.02255e-05,-9.17814e-06,-0.000188885,2.87575e-06,0
-7.12697e-06,2.14016e-05,6.75753e-06,-1.783e-05,-3.1408e-06,-8.58882e-06,-0.00024375,4.98949e-06,0
-1.40694e-06,2.47407e-05,8.97795e-06,9.09153e-07,-7.61741e-06,-8.27947e-06,-0.000260805,3.38071e-06,0
8.05881e-06,2.79675e-05,9.85961e-06,2.80441e-05,-1.12806e-06,-8.05439e-06,-0.000227023,1.15822e-06,0
1.56405e-05,3.11508e-05,1.11207e-05,5.26896e-05,1.2272e-05,-8.01134e-06,-0.000152347,6.97204e-07,0
1.8345e-05,3.34517e-05,1.06504e-05,6.43044e-05,2.53548e-05,-9.18635e-06,-6.30128e-05,2.08113e-06,0
1.59594e-05,3.48899e-05,6.44791e-06,6.20631e-05,3.15025e-05,-1.10467e-05,1.44534e-05,3.71591e-06,0
6.67775e-06,3.55047e-05,5.10457e-07,5.37274e-05,3.11042e-05,-1.31673e-05,6.64886e-05,4.80804e-06,0
-9.91921e-06,3.51281e-05,-2.3256e-06,5.04825e-05,2.57489e-05,-1.36435e-05,9.06378e-05,4.64456e-06,0
-3.16086e-05,3.36587e-05,-6.20824e-07,4.65512e-05,1.82805e-05,-1.32152e-05,9.98542e-05,3.69112e-06,0
-5.32297e-05,3.15907e-05,2.31668e-06,2.96724e-05,1.08779e-05,-1.47173e-05,0.000105675,2.89043e-06,0
-6.90091e-05,3.18429e-05,2.13925e-06,-1.24692e-06,5.08199e-06,-1.97208e-05,0.000104571,2.04492e-06,0
-7.29504e-05,3.53014e-05,4.0938e-07,-2.98558e-05,-1.34603e-07,-2.50872e-05,9.30426e-05,1.09906e-06,0
-6.20055e-05,2.97875e-05,1.49452e-07,-3.96553e-05,-3.55392e-06,-2.62486e-05,7.87981e-05,1.49936e-07,0
-4.43872e-05,5.36294e-06,3.21331e-07,-3.17521e-05,-2.0152e-06,-2.53134e-05,7.16885e-05,-4.1764e-07,0
-2.91316e-05,-2.62104e-05,-1.32009e-06,-2.30207e-05,2.6942e-06,-2.80816e-05,6.94082e-05,-9.7419e-08,0
-1.61428e-05,-4.23329e-05,-3.30418e-06,-2.02894e-05,6.42503e-06,-3.18801e-05,6.62862e-05,2.26672e-07,0
-7.26327e-06,-2.93181e-05,-2.30741e-06,-1.75803e-05,8.82349e-06,-3.35675e-05,5.5692e-05,-1.24406e-06,0
-6.53653e-06,5.35066e-07,7.21214e-07,-1.14641e-05,1.46982e-05,-3.37465e-05,4.13797e-05,-2.38426e-06,0
-1.54131e-05,2.84605e-05,1.9312e-06,-4.25139e-06,2.58913e-05,-3.38126e-05,3.92396e-05,-1.02786e-06,0
-3.00529e-05,5.22168e-05,-8.20376e-07,3.88152e-06,3.8429e-05,-3.84963e-05,4.62711e-05,1.00795e-07,0
-4.39058e-05,6.66436e-05,-4.65922e-06,1.09125e-05,4.55143e-05,-3.29015e-05,4.81934e-05,1.43599e-08,0
-4.93376e-05,5.98702e-05,-5.79412e-06,1.31896e-05,4.57787e-05,-4.83431e-06,4.33581e-05,-9.99395e-08,0
-4.6043e-05,4.41953e-05,-3.58761e-06,1.12712e-05,4.19242e-05,2.0521e-05,3.67081e-05,-7.21246e-07,0
-4.34154e-05,4.33564e-05,-6.37396e-07,1.06607e-05,3.9611e-05,1.94751e-05,3.31882e-05,-2.67389e-06,0
-4.21331e-05,6.3445e-05,7.72453e-07,9.74067e-06,3.79444e-05,1.35131e-06,3.03374e-05,-4.87815e-06,0
-3.84442e-05,0.000100993,6.34723e-07,-2.50169e-06,3.2532e-05,-1.22135e-05,2.60844e-05,-4.98728e-06,0
-3.32979e-05,0.000132065,-2.69809e-08,-1.7285e-05,2.23657e-05,-1.39529e-05,1.97999e-05,-3.97863e-06,0
-3.2143e-05,0.000131199,-4.19642e-07,-1.50065e-05,1.20213e-05,-1.05709e-05,4.06006e-06,-2.80247e-06,0
-3.64406e-05,0.00010227,-6.54884e-07,7.47697e-06,5.182e-06,-9.04095e-06,-2.46092e-05,-9.24569e-07,0
-4.32089e-05,6.58361e-05,-1.40697e-06,3.6163e-05,3.35779e-06,-1.00268e-05,-4.86361e-05,6.68338e-07,0
-5.05722e-05,3.52235e-05,-2.16475e-06,5.64065e-05,8.33586e-06,-1.16261e-05,-4.64616e-05,1.31669e-06,0
-5.11511e-05,3.13928e-06,-2.01542e-06,6.14564e-05,1.81646e-05,-1.2536e-05,-2.08912e-05,5.8148e-07,0
-3.86885e-05,-4.20131e-05,-2.24013e-06,5.27409e-05,2.44539e-05,-1.28037e-05,6.54821e-06,-1.50964e-06,0
-1.90342e-05,-8.84558e-05,-3.57403e-06,3.44771e-05,1.78302e-05,-1.38523e-05,2.12763e-05,-2.75285e-06,0
-2.42696e-06,-9.68934e-05,-4.37229e-06,1.27828e-05,2.68528e-06,-1.43015e-05,2.50937e-05,-2.85652e-06,0
3.75421e-06,-5.22847e-05,-4.15599e-06,-7.04154e-06,-7.17605e-06,-1.32115e-05,2.42935e-05,-4.19671e-06,0
-4.74671e-06,1.56493e-05,-3.45939e-06,-2.22582e-05,-3.95965e-06,-1.09624e-05,2.40969e-05,-6.25281e-06,0
-2.27115e-05,6.46105e-05,-3.10236e-06,-3.44044e-05,7.69358e-06,-8.12159e-06,3.08196e-05,-6.68182e-06,0
-3.96572e-05,7.22044e-05,-4.3182e-06,-4.32767e-05,1.60637e-05,-6.07104e-06,4.33587e-05,-4.98851e-06,0
-5.0695e-05,3.60299e-05,-6.16413e-06,-4.71275e-05,1.66184e-05,-5.4977e-06,5.30732e-05,-4.58569e-06,0
-5.63338e-05,-5.33031e-05,-7.93162e-06,-4.82091e-05,1.22548e-05,-6.90698e-06,5.82053e-05,-7.8728e-06,0
-5.48701e-05,-0.000173801,-1.02291e-05,-5.16533e-05,2.98882e-06,-1.18508e-05,6.02425e-05,-9.58836e-06,0
-4.56686e-05,-0.000221236,-1.32268e-05,-5.78461e-05,-6.21191e-06,-1.71969e-05,5.96795e-05,-7.17154e-06,0
-1.70037e-05,-0.000129223,-1.41657e-05,-6.14666e-05,-1.04273e-05,-1.94679e-05,5.92334e-05,-4.45681e-06,0
3.93978e-05,3.90792e-05,-1.34852e-05,-5.67089e-05,-9.11947e-06,-1.75061e-05,5.74261e-05,-2.80603e-06,0
9.37275e-05,0.000190092,-1.22967e-05,-4.47762e-05,-6.66429e-06,-1.5203e-05,4.59335e-05,-2.7646e-06,0
0.000104526,0.000251074,-1.03632e-05,-3.29535e-05,-6.23085e-06,-1.57719e-05,2.67469e-05,-4.3753e-06,0
6.11558e-05,0.000196152,-9.47401e-06,-2.43102e-05,-6.06753e-06,-1.45957e-05,1.48169e-05,-5.26932e-06,0
-1.01055e-05,7.45899e-05,-7.58741e-06,-2.02223e-05,-4.51237e-06,-1.8916e-06,1.37234e-05,-2.77113e-06,0
-8.6837e-05,-5.16615e-05,-4.20426e-06,-1.78079e-05,1.23117e-06,1.62728e-05,1.24305e-05,-3.75851e-07,0
-0.00015317,-0.000141244,-1.43123e-06,-1.8149e-05,7.87916e-06,1.66988e-05,-3.66943e-06,1.44914e-06,0
-0.000200224,-0.0001858,-2.13058e-06,-2.47372e-05,1.17527e-05,-1.38315e-07,-3.30901e-05,7.15488e-06,0
-0.000216708,-0.000188604,-4.64676e-06,-3.57675e-05,1.08528e-05,-1.5085e-05,-5.25277e-05,1.57388e-05,0
-0.000186465,-0.000145504,-8.32857e-06,-4.34101e-05,7.98418e-06,-1.91101e-05,-4.55559e-05,2.55049e-05,0
-0.000123644,-7.94353e-05,-1.18757e-05,-4.04562e-05,8.13819e-06,-1.78274e-05,-1.8169e-05,3.38092e-05,0
-5.91456e-05,-3.17475e-05,-1.19912e-05,-2.84726e-05,1.22003e-05,-1.56189e-05,1.55704e-05,3.56737e-05,0
-1.40418e-05,-1.53751e-05,-8.22614e-06,-1.51788e-05,1.75388e-05,-1.59161e-05,4.41636e-05,2.84922e-05,0
1.15932e-05,-1.64855e-05,-3.42292e-06,-7.88813e-06,1.94818e-05,-2.24086e-05,5.84889e-05,1.61346e-05,0
2.08941e-05,-3.33946e-05,-1.63769e-06,-7.46387e-06,1.66021e-05,-3.32345e-05,5.91814e-05,3.13274e-06,0
1.25744e-05,-6.88394e-05,-3.38973e-06,-8.84591e-06,1.12778e-05,-4.05992e-05,5.0341e-05,-7.95274e-06,0
-9.19053e-06,-0.000102438,-7.38969e-06,-7.55639e-06,6.39821e-06,-3.61773e-05,2.93918e-05,-1.50834e-05,0
-3.13011e-05,-9.09548e-05,-1.04401e-05,-5.83516e-06,3.15415e-06,-2.26851e-05,4.81042e-07,-1.89093e-05,0
-4.70492e-05,-2.76783e-05,-1.15082e-05,-6.52215e-06,7.86118e-06,-1.07483e-05,-1.56774e-05,-2.06116e-05,0
-5.81307e-05,3.73797e-05,-1.31937e-05,-9.2672e-06,2.44395e-05,-4.25082e-07,-8.2924e-06,-2.06978e-05,0
-6.21679e-05,5.6633e-05,-1.89897e-05,-1.13532e-05,4.23647e-05,7.00617e-06,1.00784e-05,-1.75157e-05,0
-5.67699e-05,3.08656e-05,-2.32507e-05,-1.04142e-05,4.61285e-05,-5.50253e-06,2.45209e-05,-1.11709e-05,0
-4.81389e-05,-4.58753e-06,-2.11447e-05,-5.94484e-06,3.68273e-05,-2.7279e-05,2.98565e-05,-4.94694e-06,0
-4.14855e-05,-1.67358e-05,-1.48933e-05,1.62836e-06,3.04941e-05,-3.25616e-05,2.97019e-05,6.49288e-07,0
-3.87701e-05,-4.83141e-06,-1.02317e-05,8.14217e-06,4.18498e-05,-2.16842e-05,2.75104e-05,3.67887e-06,0
-4.24954e-05,1.23958e-05,-8.75112e-06,9.64492e-06,6.61951e-05,-7.1635e-06,2.06992e-05,4.2956e-06,0
-4.85717e-05,2.31133e-05,-1.03232e-05,1.3054e-05,6.95498e-05,2.96294e-06,8.25692e-06,3.46655e-06,0
-4.84889e-05,2.47623e-05,-1.29539e-05,1.99004e-05,4.02545e-05,2.09924e-05,-5.44789e-06,1.9116e-06,0
-3.75804e-05,2.89659e-05,-1.20811e-05,2.65736e-05,1.10751e-05,5.22519e-05,-2.63636e-05,1.5886e-06,0
-2.28114e-05,4.00268e-05,-9.78056e-06,3.15696e-05,2.26022e-06,5.67883e-05,-4.37229e-05,5.02457e-07,0
-1.08662e-05,3.43828e-05,-6.60359e-06,2.64374e-05,2.21229e-06,2.72879e-05,-3.48735e-05,6.27123e-07,0
-2.8669e-06,3.40232e-06,-4.40379e-06,1.02997e-05,-1.38779e-06,6.03928e-06,-3.03201e-06,3.30379e-06,0
7.51466e-06,-2.08423e-05,-2.74369e-06,-8.11609e-06,-4.85084e-06,3.38016e-06,4.18335e-05,4.96941e-06,0
1.91303e-05,-1.65487e-05,-2.63678e-07,-1.90588e-05,-1.44723e-06,7.96143e-06,7.94964e-05,4.36083e-06,0
1.62128e-05,2.39891e-06,1.51511e-06,-2.27648e-05,7.70528e-06,1.6121e-05,8.08168e-05,2.84102e-06,0
-4.97634e-06,2.26415e-05,-1.35679e-06,-2.72942e-05,1.20757e-05,2.18617e-05,3.56167e-05,2.87293e-06,0
-2.91265e-05,3.55338e-05,-1.07019e-05,-3.57423e-05,5.43187e-06,1.60089e-05,-1.35999e-05,4.72216e-06,0
-4.09122e-05,4.10689e-05,-2.12043e-05,-4.0885e-05,-6.93846e-06,3.76563e-06,-1.88546e-05,6.10735e-06,0
-4.13104e-05,6.3847e-05,-2.4737e-05,-3.74711e-05,-1.5379e-05,-7.37138e-06,2.16818e-05,5.495e-06,0
-3.80331e-05,0.000114593,-1.67845e-05,-2.86276e-05,-1.40595e-05,-1.56489e-05,7.43849e-05,2.0646e-06,0
-3.2917e-05,0.000159215,1.87518e-07,-1.64997e-05,-7.20802e-06,-2.04796e-05,0.000106954,-1.50299e-06,0
-2.58069e-05,0.000161271,1.74831e-05,-2.99777e-06,-1.1814e-06,-2.03693e-05,0.000117034,-2.86997e-06,0
-1.29314e-05,0.000141219,2.50446e-05,8.80694e-06,2.14493e-06,-1.59263e-05,0.000112605,-3.06063e-06,0
1.43036e-05,0.000134969,2.13203e-05,1.68878e-05,7.82773e-06,-1.33743e-05,9.72651e-05,-2.93179e-06,0
4.96406e-05,0.000142248,9.64961e-06,2.22984e-05,1.69662e-05,-1.75447e-05,6.93416e-05,-3.35557e-06,0
6.36507e-05,0.000129491,-9.21921e-06,2.56031e-05,2.19581e-05,-2.55287e-05,3.44254e-05,-4.60974e-06,0
4.17436e-05,6.98688e-05,-3.28633e-05,2.47722e-05,1.69285e-05,-2.8618e-05,3.34266e-07,-5.55071e-06,0
9.38171e-06,-1.71864e-05,-5.25717e-05,1.9033e-05,9.15064e-06,-2.74875e-05,-2.49106e-05,-4.98779e-06,0
-8.65453e-06,-7.7387e-05,-5.975e-05,1.29978e-05,1.06111e-05,-2.55679e-05,-3.68155e-05,-3.79523e-06,0
-1.71306e-05,-7.10673e-05,-5.32484e-05,1.00692e-05,1.93581e-05,-2.42543e-05,-3.70529e-05,-4.63242e-06,0
-3.17443e-05,-2.87955e-05,-4.04646e-05,1.03477e-05,2.49968e-05,-2.91323e-05,-3.53727e-05,-7.12368e-06,0
-5.62624e-05,-2.39089e-05,-2.82897e-05,9.84761e-06,1.95671e-05,-3.9593e-05,-3.99818e-05,-8.22496e-06,0
-7.90433e-05,-5.13783e-05,-2.1842e-05,5.6256e-06,1.68064e-06,-3.84837e-05,-4.75152e-05,-8.22506e-06,0
-9.51097e-05,-4.81755e-05,-2.23225e-05,-3.91067e-06,-1.65157e-05,-4.54614e-06,-5.12952e-05,-7.40366e-06,0
-0.000107392,-1.74219e-05,-2.48989e-05,-2.08909e-05,-2.15867e-05,4.61095e-05,-5.2485e-05,-7.85893e-06,0
-0.000119967,-1.89682e-06,-2.44315e-05,-3.9278e-05,-1.51598e-05,6.64329e-05,-4.95295e-05,-8.98293e-06,0
-0.000119953,2.01716e-06,-2.22814e-05,-5.17518e-05,-2.2051e-06,4.80897e-05,-3.89722e-05,-9.75765e-06,0
-9.21109e-05,2.31447e-05,-2.15093e-05,-5.7929e-05,1.0876e-05,1.81029e-05,-2.61907e-05,-1.23289e-05,0
-5.17336e-05,5.30392e-05,-2.23732e-05,-6.54873e-05,1.4204e-05,-2.86068e-06,-2.19265e-05,-1.16868e-05,0
-1.66986e-05,7.03114e-05,-2.29734e-05,-7.67089e-05,5.56352e-06,-2.49378e-05,-2.45598e-05,-7.24433e-06,0
7.898e-08,6.85377e-05,-1.98556e-05,-8.44039e-05,-7.43131e-06,-4.68553e-05,-2.34431e-05,-3.43309e-06,0
2.9593e-06,5.18959e-05,-1.60384e-05,-8.52756e-05,-9.49379e-06,-3.42869e-05,-1.56708e-05,-2.19053e-06,0
8.72581e-06,3.14389e-05,-1.31693e-05,-7.83551e-05,6.36016e-06,6.88269e-06,-2.40565e-06,-2.59612e-06,0
8.74897e-06,1.57312e-05,-1.09188e-05,-5.94714e-05,2.72956e-05,3.06894e-05,7.4693e-06,-2.48818e-06,0
-1.69774e-05,-9.17044e-06,-9.72956e-06,-2.44971e-05,3.36564e-05,2.19087e-05,1.01315e-05,-8.92682e-07,0
-5.8669e-05,-5.05859e-05,-1.02486e-05,1.87275e-05,2.46003e-05,2.64745e-06,1.08875e-05,1.15549e-06,0
-8.55211e-05,-7.16294e-05,-1.04485e-05,5.66572e-05,1.92354e-05,-8.94346e-06,1.51734e-05,1.73854e-06,0
-8.3111e-05,-3.7916e-05,-7.14083e-06,8.24644e-05,3.71615e-05,-1.16134e-05,1.80122e-05,1.38319e-06,0
-6.01373e-05,2.51605e-05,-1.38062e-06,9.53382e-05,8.90526e-05,-1.40814e-05,1.41138e-05,1.03009e-07,0
-3.13294e-05,5.81619e-05,2.87392e-06,9.63922e-05,0.000150767,-2.07659e-05,-2.21029e-06,-1.65173e-06,0
-2.43744e-06,3.38269e-05,3.25773e-06,8.79629e-05,0.000166583,-2.78516e-05,-4.27695e-05,-2.43023e-06,0
2.25242e-05,-1.71613e-05,2.28923e-06,7.59902e-05,0.000117121,-3.31839e-05,-0.000100228,-7.90928e-07,0
3.63147e-05,-4.4546e-05,3.92349e-06,6.49454e-05,4.47664e-05,-4.08838e-05,-0.000129906,1.89638e-06,0
3.8241e-05,-2.97988e-05,8.16673e-06,5.17045e-05,4.72153e-06,-4.60444e-05,-0.000102721,3.50971e-06,0
3.64987e-05,1.30961e-05,1.14356e-05,3.07344e-05,9.62384e-06,-4.03775e-05,-4.98122e-05,3.18282e-06,0
3.49031e-05,5.36492e-05,1.16936e-05,7.72985e-06,2.35223e-05,-2.85102e-05,-1.84086e-05,2.69974e-06,0
2.77269e-05,7.07554e-05,9.18791e-06,-6.54083e-06,1.73398e-05,-2.07113e-05,-1.01668e-05,4.01549e-06,0
1.26446e-05,6.57962e-05,4.95933e-06,-7.29348e-06,-2.73317e-06,-1.62602e-05,7.93785e-06,6.22962e-06,0
-1.87665e-06,5.25665e-05,8.0352e-07,-9.96595e-07,-1.7516e-05,-1.16152e-05,4.67302e-05,7.21515e-06,0
-9.58621e-06,4.38433e-05,8.51134e-07,-5.43595e-07,-2.64956e-05,-6.64157e-06,8.51123e-05,6.32594e-06,0
-1.42704e-05,4.33091e-05,3.62488e-06,-9.19518e-06,-3.31483e-05,-3.91612e-06,9.94175e-05,5.57039e-06,0
-2.25701e-05,4.58795e-05,3.5227e-06,-2.57305e-05,-2.8606e-05,-7.01238e-06,8.29735e-05,6.1713e-06,0
-3.4073e-05,4.60413e-05,-1.60521e-06,-7.83777e-05,-1.35923e-05,-1.03063e-05,5.50565e-05,6.13352e-06,0
-3.94114e-05,4.43353e-05,-7.91265e-06,-0.000153871,6.4512e-06,-1.08302e-05,4.22025e-05,4.49246e-06,0
-3.09938e-05,4.33075e-05,-8.84282e-06,-0.000184408,1.9913e-05,-1.0466e-05,4.30992e-05,3.20586e-06,0
-1.91761e-05,4.33468e-05,-5.46067e-06,-0.000157018,1.33136e-05,-9.15942e-06,4.24688e-05,3.4402e-06,0
-1.43499e-05,4.46802e-05,-3.25798e-06,-8.96235e-05,-4.12104e-06,-9.18238e-06,3.22257e-05,5.7069e-06,0
-1.3569e-05,4.65423e-05,-3.47059e-06,-5.99925e-06,-1.76505e-05,-1.13168e-05,2.20807e-05,5.62648e-06,0
-7.75924e-06,4.48844e-05,-4.87342e-06,7.10164e-05,-2.41061e-05,-1.30823e-05,2.23589e-05,3.33753e-06,0
5.92689e-06,3.71789e-05,-5.22165e-06,0.000123198,-2.80739e-05,-1.28912e-05,3.10403e-05,2.18466e-06,0
1.25078e-05,2.63113e-05,-2.30746e-06,0.000139187,-2.89104e-05,-1.04592e-05,3.93409e-05,1.19167e-06,0
9.06713e-07,1.57597e-05,3.22675e-06,0.000127776,-1.86697e-05,-8.06212e-06,4.17581e-05,1.00864e-06,0
-2.55409e-05,8.4017e-06,8.70539e-06,0.000107055,-8.26987e-08,-7.51472e-06,4.24939e-05,1.56662e-06,0
-5.14182e-05,3.57029e-06,1.15049e-05,9.17775e-05,1.40459e-05,-7.89629e-06,4.66324e-05,1.28479e-06,0
-6.31686e-05,-8.11402e-06,1.10112e-05,7.92848e-05,1.63994e-05,-6.69778e-06,5.26732e-05,1.2003e-07,0
-6.53528e-05,-3.13234e-05,7.91058e-06,6.30614e-05,1.39296e-05,-4.88773e-06,5.47292e-05,-3.06364e-07,0
-6.95152e-05,-4.99766e-05,2.66772e-06,4.30158e-05,1.46835e-05,-4.91576e-06,5.04801e-05,4.70082e-07,0
-7.48794e-05,-4.27884e-05,-3.97278e-06,2.46987e-05,1.88968e-05,-5.14455e-06,3.8986e-05,1.3598e-06,0
-7.49652e-05,-1.53286e-05,-8.9454e-06,6.52172e-06,2.04054e-05,-3.31444e-06,2.27805e-05,1.05498e-06,0
-6.98209e-05,1.07024e-05,-9.1213e-06,-1.49525e-05,1.51723e-05,-9.52888e-07,7.81399e-06,6.23747e-07,0
-6.43141e-05,2.88371e-05,-5.94715e-06,-3.22247e-05,8.68133e-06,-1.4178e-06,1.95787e-07,8.22677e-07,0
-6.0838e-05,4.26662e-05,-4.02451e-06,-3.20192e-05,8.16076e-06,-4.45893e-06,-9.63595e-07,2.54503e-07,0
-5.31851e-05,5.30849e-05,-4.4224e-06,-2.01478e-05,1.10985e-05,-7.82839e-06,5.78661e-10,-4.12134e-07,0
-3.49896e-05,5.89703e-05,-4.43753e-06,-1.41425e-05,1.2711e-05,-9.39092e-06,1.17696e-06,8.67793e-07,0
-1.59784e-05,5.33131e-05,-3.17362e-06,-1.37452e-05,1.25789e-05,-6.65266e-06,3.55739e-06,2.91975e-06,0
-7.87119e-06,2.95202e-05,-3.20298e-06,-8.59023e-06,1.20398e-05,-3.33028e-06,6.31794e-06,4.58851e-06,0
-9.52896e-06,-1.60823e-06,-5.4132e-06,-8.04551e-06,1.28683e-05,-2.78098e-06,7.02214e-06,5.98038e-06,0
-2.28285e-05,-7.83455e-06,-9.22269e-06,-1.95859e-05,1.34009e-05,-3.99978e-06,-3.28871e-07,6.50505e-06,0
-4.41389e-05,1.96395e-05,-1.34382e-05,-2.50016e-05,1.15784e-05,-6.85958e-06,-4.91124e-06,5.52424e-06,0
-6.39797e-05,3.15377e-05,-1.77204e-05,-1.53036e-05,1.1801e-05,-1.09766e-05,1.3911e-05,3.47983e-06,0
-7.60439e-05,-4.72408e-06,-2.03531e-05,8.17952e-07,1.52207e-05,-1.54589e-05,6.04593e-05,2.48988e-06,0
-7.8389e-05,-5.68749e-05,-1.96847e-05,6.84539e-06,1.8448e-05,-1.9868e-05,0.000124657,2.45052e-06,0
-7.92818e-05,-9.85213e-05,-1.98826e-05,-1.09211e-05,2.02809e-05,-2.29996e-05,0.000180223,3.09896e-06,0
-8.40484e-05,-0.000116744,-2.06598e-05,-3.79881e-05,2.02082e-05,-2.37087e-05,0.000205472,2.77753e-06,0
-8.81145e-05,-0.000103032,-2.06821e-05,-4.89891e-05,1.99589e-05,-2.26246e-05,0.000182226,7.06657e-07,0
-8.46844e-05,-6.99806e-05,-1.95103e-05,-4.04671e-05,2.02523e-05,-2.01733e-05,0.000108537,-2.05098e-06,0
-7.34936e-05,-4.08578e-05,-1.68716e-05,-2.27396e-05,2.09851e-05,-1.72453e-05,3.78152e-06,-2.92644e-06,0
-6.04153e-05,-3.74805e-05,-1.54221e-05,-2.98314e-06,2.05177e-05,-1.56359e-05,-0.000104166,-9.31654e-07,0
-5.11044e-05,-5.2395e-05,-1.51935e-05,1.55729e-05,1.95576e-05,-1.62e-05,-0.000183374,1.43029e-06,0
-4.57979e-05,-7.27037e-05,-1.26779e-05,2.21121e-05,1.86063e-05,-1.74037e-05,-0.000211479,2.68126e-06,0
-4.01746e-05,-8.50214e-05,-6.9679e-06,1.13323e-05,1.7527e-05,-1.79653e-05,-0.000188408,1.1099e-06,0
-3.2531e-05,-7.33387e-05,-2.21553e-06,-9.57416e-06,1.65803e-05,-1.82189e-05,-0.000137561,-5.5501e-08,0
-2.20564e-05,-3.84258e-05,-9.89007e-07,-2.98551e-05,1.56442e-05,-1.93463e-05,-8.24669e-05,1.29314e-06,0
-4.48186e-06,9.62175e-06,-2.57501e-06,-4.50436e-05,1.4805e-05,-1.98036e-05,-3.3125e-05,3.36522e-06,0
2.36126e-05,6.28387e-05,-4.52828e-06,-5.24301e-05,1.3461e-05,-1.68431e-05,1.70261e-05,4.59554e-06,0
5.24573e-05,0.000109234,-5.96983e-06,-5.20382e-05,1.06725e-05,-1.18457e-05,7.01149e-05,4.50566e-06,0
5.94278e-05,0.000133814,-7.88428e-06,-5.06345e-05,5.29134e-06,-8.24897e-06,0.00011365,3.30611e-06,0
3.35895e-05,0.00014059,-1.05303e-05,-5.40251e-05,-1.52269e-06,-7.78005e-06,0.000138293,1.78103e-06,0
-9.50253e-06,0.000141453,-1.20803e-05,-6.25175e-05,-6.22857e-06,-8.95515e-06,0.000149293,1.40648e-07,0
-4.59143e-05,0.000142021,-1.23749e-05,-7.24652e-05,-6.90982e-06,-9.10857e-06,0.000161081,-1.2837e-06,0
-6.98809e-05,0.000145729,-1.09999e-05,-8.33977e-05,-4.74253e-06,-9.88295e-06,0.000172209,-2.80074e-06,0
-8.78893e-05,0.000147451,-9.18692e-06,-9.06948e-05,-6.12919e-07,-1.2335e-05,0.000152533,-5.42668e-06,0
-9.59793e-05,0.000116553,-1.04234e-05,-8.14362e-05,2.55704e-06,-1.38656e-05,8.52332e-05,-6.50097e-06,0
-8.51882e-05,3.43836e-05,-1.36747e-05,-5.44169e-05,1.15743e-06,-1.36889e-05,-2.22802e-06,-5.68906e-06,0
-4.39005e-05,-8.91496e-05,-1.99039e-05,-3.49245e-05,-6.55116e-06,-1.24261e-05,-8.46277e-05,-3.50536e-06,0
3.83452e-06,-0.000182395,-2.86543e-05,-4.18728e-05,-1.05046e-05,-1.13256e-05,-0.000137841,-6.97046e-07,0
1.60369e-05,-0.000188328,-3.45792e-05,-5.73436e-05,-2.56369e-06,-1.0077e-05,-0.00014964,1.87605e-06,0
1.86089e-06,-0.000146034,-3.39406e-05,-5.68043e-05,6.85534e-06,-6.90208e-06,-0.000139346,3.38468e-06,0
-1.70846e-05,-9.05105e-05,-2.91618e-05,-4.04182e-05,8.67912e-06,-2.72732e-06,-0.000113281,2.4627e-06,0
-3.43538e-05,-4.28087e-05,-2.61566e-05,-1.72668e-05,3.24396e-06,6.40008e-07,-8.38847e-05,3.15397e-07,0
-4.60806e-05,-4.22784e-06,-2.46327e-05,8.67819e-07,-3.99221e-06,1.41666e-06,-6.33637e-05,5.27538e-07,0
-4.87861e-05,2.06371e-05,-2.14384e-05,6.93945e-06,-6.93123e-06,1.44103e-07,-5.02958e-05,3.18244e-06,0
-4.4121e-05,3.01062e-05,-1.57875e-05,2.37586e-06,-1.1502e-06,-1.77865e-06,-4.21365e-05,4.43317e-06,0
-3.44296e-05,3.12713e-05,-7.59067e-06,-8.81399e-06,1.0335e-05,-5.52723e-06,-4.1553e-05,2.6884e-06,0
-2.36678e-05,3.30075e-05,9.10446e-08,-1.67181e-05,2.05206e-05,-1.44339e-05,-4.30874e-05,-9.95466e-07,0
-1.87904e-05,4.74718e-05,3.86724e-06,-8.1816e-06,2.6529e-05,-2.60145e-05,-3.06552e-05,-2.55253e-06,0
-2.22636e-05,6.81054e-05,6.35214e-06,1.85202e-05,3.01109e-05,-2.97766e-05,-1.92725e-06,-4.07113e-07,0
-2.52974e-05,7.01277e-05,1.33059e-05,4.7486e-05,3.44915e-05,-2.47216e-05,3.50869e-05,2.22182e-06,0
-1.46618e-05,3.57528e-05,2.59945e-05,6.58557e-05,3.8727e-05,-1.64304e-05,6.77511e-05,3.62135e-06,0
3.63521e-06,-1.41378e-06,4.18855e-05,7.31849e-05,4.01037e-05,-9.97352e-06,8.66963e-05,4.24197e-06,0
9.21252e-06,-5.84908e-06,5.76572e-05,7.51007e-05,3.94094e-05,-7.21201e-06,8.69525e-05,3.03705e-06,0
-5.94879e-06,1.21676e-05,6.90318e-05,7.7226e-05,3.91185e-05,-6.64569e-06,7.48986e-05,9.46003e-07,0
-2.73495e-05,1.11699e-05,7.00374e-05,7.84759e-05,3.85345e-05,-5.48675e-06,5.90573e-05,8.99715e-07,0
-4.29064e-05,-2.1921e-05,5.65909e-05,7.72314e-05,3.89883e-05,-1.64756e-06,4.42711e-05,3.05404e-06,0
-5.43412e-05,-5.97259e-05,3.28285e-05,7.86491e-05,4.52543e-05,2.79599e-06,3.27419e-05,4.48311e-06,0
-6.53828e-05,-6.93934e-05,6.48438e-06,8.12253e-05,5.80454e-05,6.10512e-06,2.55975e-05,4.27306e-06,0
-7.03444e-05,-6.46437e-05,-1.81846e-05,7.26126e-05,6.64943e-05,7.09281e-06,1.42191e-05,4.65758e-06,0
-6.6367e-05,-6.17009e-05,-3.97693e-05,5.14078e-05,6.11009e-05,4.45272e-06,-9.26403e-06,5.44187e-06,0
-5.97028e-05,-3.85416e-05,-5.49566e-05,3.31096e-05,4.7079e-05,6.82158e-07,-2.8472e-05,4.49252e-06,0
-5.1976e-05,1.43983e-05,-6.14587e-05,2.63292e-05,3.28693e-05,-1.36186e-06,-2.94839e-05,2.97893e-06,0
-3.7935e-05,6.8507e-05,-5.94893e-05,2.5617e-05,2.15826e-05,-1.78252e-06,-3.17679e-05,4.38518e-06,0
-1.2839e-05,0.000102279,-5.09138e-05,2.70789e-05,1.44187e-05,-9.1103e-07,-3.68554e-05,6.87064e-06,0
2.53829e-06,0.000112569,-4.16185e-05,2.87964e-05,1.03808e-05,-3.6762e-06,-2.34454e-05,7.19133e-06,0
-7.52271e-06,0.000100328,-3.22667e-05,2.59437e-05,7.00629e-06,-1.30537e-05,3.50828e-06,6.30789e-06,0
-2.19666e-05,6.81292e-05,-2.17028e-05,2.03086e-05,1.1525e-06,-2.52178e-05,2.67246e-05,1.08041e-05,0
-2.64083e-05,1.74805e-05,-1.34007e-05,1.53253e-05,-4.10579e-06,-2.94052e-05,4.22283e-05,2.63612e-05,0
-2.3197e-05,-8.12996e-06,-8.59953e-06,1.23057e-05,1.8336e-06,-2.26799e-05,5.77419e-05,4.18036e-05,0
-1.90212e-05,2.29062e-05,-6.59826e-06,8.95542e-06,1.83959e-05,-1.47238e-05,7.06263e-05,4.68279e-05,0
-1.42496e-05,6.68434e-05,-5.88952e-06,3.85605e-06,3.43542e-05,-2.28886e-06,7.65191e-05,4.42748e-05,0
-9.01638e-06,6.52323e-05,-6.65087e-06,1.66708e-07,4.08117e-05,1.89062e-05,7.47099e-05,3.27603e-05,0
-9.11285e-06,2.6478e-05,-9.57779e-06,-2.51453e-06,3.71323e-05,2.92982e-05,6.90238e-05,1.26923e-05,0
-1.79374e-05,-1.12158e-05,-1.25198e-05,-6.34264e-06,2.97002e-05,1.23261e-05,6.16418e-05,-1.09342e-05,0
-3.12274e-05,-2.69868e-05,-1.36817e-05,-1.20348e-05,2.26256e-05,-1.78415e-05,5.37036e-05,-2.91584e-05,0
-4.09494e-05,-2.93453e-05,-1.36865e-05,-1.84406e-05,1.52275e-05,-3.02155e-05,4.76692e-05,-3.50969e-05,0
-4.43933e-05,-2.12496e-05,-1.31004e-05,-2.24571e-05,7.41086e-06,-1.06144e-05,4.05637e-05,-3.17676e-05,0
-4.32361e-05,4.69043e-06,-1.2106e-05,-2.42283e-05,2.16499e-06,1.72725e-05,1.24229e-05,-2.54236e-05,0
-4.29192e-05,3.2853e-05,-1.12251e-05,-2.86253e-05,6.14709e-07,2.24431e-05,-5.36061e-05,-1.94015e-05,0
-4.49644e-05,4.43689e-05,-9.882e-06,-3.84663e-05,-2.74601e-07,3.20701e-06,-0.000118819,-1.28516e-05,0
-4.53427e-05,3.71706e-05,-7.61375e-06,-5.15154e-05,-2.89381e-06,-1.73256e-05,-0.000118625,-5.03163e-06,0
-3.89812e-05,2.35044e-05,-4.8745e-06,-6.22752e-05,-7.29576e-06,-2.45485e-05,-4.66509e-05,1.83451e-06,0
-2.88919e-05,1.55743e-05,-2.68597e-06,-7.16944e-05,-1.34679e-05,-2.34099e-05,4.15172e-05,5.27601e-06,0
-2.16243e-05,2.31775e-05,-2.58709e-06,-8.26145e-05,-1.86499e-05,-2.16424e-05,9.85641e-05,6.04967e-06,0
-2.01389e-05,4.06684e-05,-4.58664e-06,-9.24246e-05,-1.65136e-05,-2.01286e-05,0.000119771,4.92864e-06,0
-1.96021e-05,5.2013e-05,-6.77219e-06,-9.70463e-05,-8.06369e-06,-1.52191e-05,0.000119947,3.4617e-06,0
-1.78301e-05,4.96158e-05,-8.76416e-06,-9.83869e-05,-1.80673e-06,-8.22637e-06,0.000106568,3.48703e-06,0
-1.77999e-05,3.68237e-05,-1.03519e-05,-9.8087e-05,-1.62839e-06,-1.53326e-07,8.64522e-05,7.51211e-06,0
-1.76901e-05,1.89899e-05,-9.1297e-06,-9.06822e-05,-3.47088e-06,1.17264e-05,6.19655e-05,1.28854e-05,0
-1.04452e-05,-1.45724e-07,-3.65336e-06,-7.30305e-05,-3.04276e-07,1.76174e-05,2.64521e-05,1.38593e-05,0
6.62652e-07,-1.13509e-05,2.71003e-06,-5.15389e-05,7.43855e-06,9.21758e-06,-1.24905e-05,1.06562e-05,0
3.38055e-06,9.08615e-07,2.52686e-06,-3.34017e-05,6.49304e-06,-3.45801e-08,-4.28327e-05,7.00152e-06,0
-4.02242e-06,1.98379e-05,-2.57155e-06,-1.28805e-05,-3.30668e-06,-3.9494e-06,-0.000101382,6.57226e-06,0
-1.81368e-05,2.03939e-05,-6.89437e-06,9.05757e-06,-6.85855e-06,-6.43477e-06,-0.000168486,9.77013e-06,0
-3.20552e-05,2.58625e-06,-9.81429e-06,2.82275e-05,3.13144e-07,-7.32963e-06,-0.00016483,1.19887e-05,0
-3.95681e-05,-4.30151e-05,-1.15822e-05,5.33065e-05,1.53717e-05,-6.24734e-06,-9.3557e-05,1.03211e-05,0
-4.16843e-05,-0.000101132,-1.07114e-05,8.84169e-05,2.93431e-05,-4.61966e-06,3.78355e-06,6.53144e-06,0
-4.26576e-05,-0.000117999,-4.19309e-06,0.00011951,3.76677e-05,-9.04927e-06,7.50872e-05,3.42981e-06,0
-4.55414e-05,-6.85219e-05,2.96245e-06,0.00011803,3.93661e-05,-1.97735e-05,9.92541e-05,1.51742e-06,0
-4.79185e-05,3.00967e-05,5.99476e-06,8.33548e-05,3.33543e-05,-2.81029e-05,0.000101181,-1.58921e-06,0
-4.95081e-05,0.000127405,5.83493e-06,4.6732e-05,2.70869e-05,-2.92144e-05,0.000113014,-6.04393e-06,0
-5.48191e-05,0.000177903,3.91144e-06,2.82671e-05,2.6129e-05,-2.50834e-05,0.000136876,-7.61601e-06,0
-6.3841e-05,0.000182253,-1.48264e-06,2.21349e-05,2.61099e-05,-2.30997e-05,0.000151417,-4.62821e-06,0
-6.64753e-05,0.00016207,-9.49119e-06,1.82795e-05,2.22803e-05,-2.15041e-05,0.000144196,-4.97569e-07,0
-5.21717e-05,0.000131959,-1.5044e-05,1.64286e-05,1.81313e-05,-1.32855e-05,0.000109357,2.26541e-06,0
-2.69216e-05,9.7548e-05,-1.57376e-05,1.66734e-05,1.47956e-05,3.28467e-06,4.45228e-05,3.15549e-06,0
-1.3049e-05,6.07532e-05,-1.38783e-05,1.57699e-05,1.03642e-05,3.0978e-05,-3.74518e-05,3.55212e-06,0
-2.83603e-05,2.0621e-05,-1.17281e-05,1.08612e-05,3.93425e-06,5.63472e-05,-9.52063e-05,4.72953e-06,0
-5.79647e-05,-8.41192e-06,-8.70509e-06,5.44506e-06,-1.68855e-06,5.31374e-05,-0.00010287,5.55383e-06,0
-6.83231e-05,-6.66513e-06,-5.75766e-06,2.5153e-06,-3.27487e-06,2.69332e-05,-6.85641e-05,3.71799e-06,0
-4.66231e-05,2.76646e-05,-5.43888e-06,2.00556e-06,-1.82961e-06,4.90567e-06,-2.12116e-05,1.78851e-06,0
-1.25202e-05,7.85675e-05,-9.37061e-06,8.15643e-07,5.98214e-07,-1.1312e-05,2.03195e-05,1.16782e-06,0
4.13691e-06,0.000111713,-1.60515e-05,-3.45576e-06,1.19542e-06,-3.88223e-05,4.77873e-05,-5.48815e-07,0
-5.05927e-06,9.05444e-05,-2.1874e-05,-9.79473e-06,-4.26841e-06,-7.54574e-05,5.91825e-05,-2.14196e-06,0
-1.46635e-05,1.30509e-05,-2.28135e-05,-1.54077e-05,-1.1119e-05,-7.59072e-05,5.2163e-05,-1.91282e-06,0
-4.45062e-06,-7.56266e-05,-2.03904e-05,-1.78732e-05,-1.01691e-05,-3.12954e-05,2.70167e-05,8.57438e-07,0
1.06311e-05,-0.00010876,-1.63788e-05,-1.69923e-05,-2.25302e-06,-6.41464e-07,-8.59512e-07,3.66157e-06,0
9.48794e-06,-9.63565e-05,-1.25812e-05,-1.63402e-05,5.43488e-06,-6.87613e-06,-1.34032e-05,3.72607e-06,0
-3.749e-06,-9.9892e-05,-9.62709e-06,-1.7592e-05,6.62927e-06,-2.10508e-05,-1.09734e-05,2.73672e-06,0
-1.13014e-05,-0.00010536,-8.5095e-06,-1.95467e-05,2.10813e-06,-2.48944e-05,-2.91431e-06,-2.64377e-07,0
-9.515e-06,-8.19473e-05,-8.41284e-06,-2.27112e-05,-3.49169e-06,-2.08905e-05,5.01403e-06,-3.90439e-06,0
-5.25598e-06,-4.61805e-05,-3.79898e-06,-2.43249e-05,-6.74509e-06,-1.44064e-05,7.59136e-06,-6.39167e-06,0
-5.92378e-06,-2.107e-05,6.29888e-06,-2.2005e-05,-8.48031e-06,-1.17878e-05,4.28182e-06,-6.54549e-06,0
-9.31984e-06,-1.04567e-05,1.87507e-05,-1.94923e-05,-8.53341e-06,-1.25206e-05,-8.5861e-07,-4.33538e-06,0
-1.1759e-05,-6.5472e-06,2.93611e-05,-1.81793e-05,-8.121e-06,-1.35533e-05,-1.4359e-06,-1.46199e-06,0
-1.63735e-05,-9.02784e-06,3.41064e-05,-1.72328e-05,-8.98197e-06,-1.53315e-05,3.64678e-06,3.01172e-06,0
-2.45368e-05,-1.73873e-05,2.88341e-05,-1.79968e-05,-8.11501e-06,-1.87173e-05,1.03169e-05,7.03624e-06,0
-3.34942e-05,-2.15829e-05,1.17954e-05,-1.93325e-05,-3.01235e-06,-2.31725e-05,1.64338e-05,8.37821e-06,0
-3.59899e-05,-1.75948e-05,-1.24452e-05,-1.89441e-05,4.853e-06,-2.66611e-05,1.29368e-05,6.19482e-06,0
-3.08799e-05,-9.69503e-06,-3.61997e-05,-1.70659e-05,9.22059e-06,-2.89668e-05,-9.3517e-06,1.87954e-06,0
-2.43626e-05,-7.9533e-07,-5.3042e-05,-1.63093e-05,8.47897e-06,-3.05178e-05,-3.76856e-05,-3.03844e-06,0
-2.12107e-05,3.47388e-06,-5.80463e-05,-1.71192e-05,6.71378e-06,-3.07687e-05,-5.30779e-05,-5.67151e-06,0
-2.27913e-05,-6.2381e-06,-5.27857e-05,-2.01796e-05,5.76922e-06,-2.93351e-05,-4.81397e-05,-7.17326e-06,0
-2.96244e-05,-2.70266e-05,-4.51278e-05,-2.44749e-05,4.92347e-06,-2.66436e-05,-3.03251e-05,-9.37217e-06,0
-3.79248e-05,-4.07319e-05,-3.99324e-05,-2.75129e-05,2.82704e-06,-2.28197e-05,-8.51609e-06,-1.01932e-05,0
-3.55949e-05,-2.82557e-05,-3.59233e-05,-2.78423e-05,7.57238e-07,-1.95623e-05,1.23851e-05,-9.68698e-06,0
-1.93919e-05,8.33163e-06,-3.17875e-05,-2.49506e-05,1.56353e-06,-1.46588e-05,3.08546e-05,-1.02905e-05,0
-7.1506e-06,4.53059e-05,-2.57099e-05,-1.90608e-05,4.21428e-06,-3.03489e-06,4.4346e-05,-1.12921e-05,0
-1.31059e-05,6.88875e-05,-1.76413e-05,-1.00607e-05,5.67044e-06,1.19119e-05,5.23907e-05,-9.94657e-06,0
-3.64999e-05,8.0531e-05,-1.15711e-05,-1.59976e-06,3.40395e-06,1.98992e-05,5.63358e-05,-7.71916e-06,0
-7.31883e-05,7.43149e-05,-9.43544e-06,8.2593e-07,-2.03802e-06,1.49286e-05,5.52517e-05,-5.45895e-06,0
-0.000111511,5.19832e-05,-8.40824e-06,-2.61859e-06,-9.01808e-06,5.75165e-07,4.97378e-05,-2.52616e-06,0
-0.000132669,3.4983e-05,-7.03422e-06,-9.41359e-06,-1.57705e-05,-1.08394e-05,4.82325e-05,8.60831e-07,0
-0.000120705,3.89768e-05,-7.50298e-06,-1.47716e-05,-1.47702e-05,-1.3365e-05,5.46836e-05,2.76388e-06,0
-6.81428e-05,5.35638e-05,-7.75864e-06,-1.43922e-05,1.77674e-06,-1.05807e-05,6.33644e-05,3.2002e-06,0
-2.73016e-06,4.58195e-05,-4.23399e-06,-1.189e-05,2.39817e-05,-8.0818e-06,6.06919e-05,2.52226e-06,0
3.79239e-05,1.56992e-05,-1.88085e-07,-1.05383e-05,3.57523e-05,-7.34573e-06,4.08205e-05,2.11565e-06,0
5.16584e-05,-5.9918e-06,2.29681e-06,-1.26947e-05,3.338e-05,-7.25704e-06,2.24551e-05,2.48911e-06,0
4.74022e-05,-2.92297e-05,3.95568e-06,-1.58296e-05,2.73431e-05,-9.35533e-06,1.63569e-05,2.50588e-06,0
3.70335e-05,-5.86934e-05,4.30648e-06,-1.53676e-05,3.65301e-05,-9.89933e-06,1.07514e-05,2.74817e-06,0
2.39713e-05,-6.03205e-05,4.90906e-06,-1.40898e-05,4.68222e-05,-8.03091e-06,-3.3345e-06,3.94091e-06,0
5.48563e-06,-1.69191e-05,4.44712e-06,-1.63961e-05,4.00521e-05,-1.21877e-05,-1.58495e-05,5.04108e-06,0
-2.60149e-05,5.59893e-05,1.71453e-06,-2.37784e-05,3.13109e-05,-2.65776e-05,-2.0599e-05,3.915e-06,0
-6.42781e-05,0.000119394,-1.74508e-06,-3.48088e-05,3.14359e-05,-4.07585e-05,-1.96404e-05,1.02697e-06,0
-8.58936e-05,0.000134612,-4.29516e-06,-4.57104e-05,3.01071e-05,-4.65032e-05,-1.79732e-05,-1.00003e-06,0
-8.46608e-05,0.000103638,-4.85671e-06,-5.34706e-05,1.92781e-05,-4.57662e-05,-1.88653e-05,-1.07238e-06,0
-6.51388e-05,7.0574e-05,-4.17555e-06,-5.869e-05,1.56678e-05,-4.26253e-05,-2.15927e-05,-9.26915e-07,0
-3.34396e-05,7.80115e-05,-2.45787e-06,-6.00326e-05,3.39306e-05,-3.41103e-05,-2.42525e-05,-1.07187e-06,0
3.27737e-06,0.000132305,-5.1108e-08,-5.68743e-05,5.69788e-05,-1.79223e-05,-2.64033e-05,1.41349e-07,0
3.43227e-05,0.000200741,2.7486e-06,-4.97955e-05,5.80123e-05,2.59118e-06,-2.71691e-05,5.61835e-06,0
4.91314e-05,0.00022515,5.21627e-06,-3.71696e-05,4.19774e-05,2.88125e-05,-2.55998e-05,1.44709e-05,0
4.27688e-05,0.000154581,4.4446e-06,-1.74616e-05,2.96912e-05,4.73523e-05,-2.88707e-05,2.02372e-05,0
2.47481e-05,1.44159e-05,2.31839e-07,7.98239e-06,2.68649e-05,3.43031e-05,-4.42706e-05,1.88849e-05,0
3.23891e-06,-9.6731e-05,-2.62853e-06,3.60841e-05,2.61285e-05,3.06074e-06,-6.00859e-05,1.32337e-05,0
-2.49101e-05,-0.00014363,-2.82361e-06,6.09734e-05,2.29515e-05,-1.41448e-05,-5.02374e-05,7.60104e-06,0
-5.77443e-05,-0.000182694,-5.87961e-06,7.37393e-05,1.70729e-05,-1.79951e-05,-4.95723e-06,3.44221e-06,0
-7.84643e-05,-0.000222493,-1.38964e-05,7.00522e-05,8.63605e-06,-2.18192e-05,6.62143e-05,4.20781e-07,0
-7.72726e-05,-0.000202812,-2.26669e-05,5.17173e-05,2.61611e-06,-2.5874e-05,0.000140322,-1.58187e-06,0
-6.91256e-05,-0.000119199,-2.69456e-05,3.04105e-05,4.92844e-06,-2.3504e-05,0.000188938,-2.73581e-06,0
-7.55239e-05,-4.41453e-05,-2.64848e-05,1.76225e-05,1.04215e-05,-1.67883e-05,0.000206129,-4.26596e-06,0
-9.77457e-05,-1.08373e-05,-2.44587e-05,1.4181e-05,1.115e-05,-1.33498e-05,0.000201672,-5.48771e-06,0
-0.000117681,1.30305e-07,-1.97058e-05,1.59726e-05,8.28333e-06,-1.23812e-05,0.000174457,-5.03322e-06,0
-0.000105712,-7.21968e-07,-1.21843e-05,1.71904e-05,4.64289e-06,-1.00228e-05,0.000119156,-3.9467e-06,0
-6.28549e-05,-3.02019e-05,5.32255e-07,1.41245e-05,3.87218e-06,-8.68461e-06,2.91667e-05,-3.82484e-06,0
-2.00727e-05,-8.16326e-05,2.10152e-05,5.80242e-06,4.86947e-06,-8.3208e-06,-7.96588e-05,-5.59266e-06,0
-1.28861e-05,-0.000106159,4.32395e-05,-5.26858e-06,7.17663e-06,-7.23622e-06,-0.000174002,-7.0266e-06,0
-5.68582e-05,-8.55436e-05,6.33445e-05,-1.32844e-05,9.8599e-06,-1.00393e-05,-0.000223063,-6.06257e-06,0
-9.81784e-05,-3.52856e-05,7.51546e-05,-1.66621e-05,1.06487e-05,-1.55064e-05,-0.000221737,-4.4891e-06,0
-0.000101388,4.82034e-05,6.89259e-05,-1.63034e-05,1.00192e-05,-1.65929e-05,-0.000202649,-2.55488e-06,0
-9.14058e-05,0.000142294,4.11753e-05,-1.18277e-05,1.28856e-05,-1.68546e-05,-0.000186324,-2.45281e-07,0
-9.67349e-05,0.000176238,-1.61998e-06,-4.82588e-06,2.09516e-05,-2.04377e-05,-0.000165432,1.82603e-06,0
-0.000112975,0.000132167,-4.36654e-05,-3.19434e-06,2.79729e-05,-2.43481e-05,-0.000122711,2.18647e-06,0
-0.000111909,5.32969e-05,-7.12347e-05,-1.38034e-05,2.83123e-05,-2.40417e-05,-6.07785e-05,1.00084e-06,0
-7.89939e-05,-1.05959e-05,-8.02673e-05,-2.76172e-05,2.28169e-05,-2.05924e-05,1.97203e-07,-7.28574e-07,0
-2.98352e-05,-3.99145e-05,-7.49385e-05,-3.34676e-05,1.78536e-05,-1.80189e-05,4.80048e-05,-2.43334e-06,0
1.53539e-05,-3.69145e-05,-6.3218e-05,-3.59098e-05,1.48762e-05,-5.31653e-06,8.31752e-05,-3.02011e-06,0
5.22509e-05,-9.32973e-06,-5.12313e-05,-4.17711e-05,1.27917e-05,2.57379e-05,0.000110284,-1.80402e-06,0
7.38215e-05,1.83006e-05,-4.08411e-05,-4.65898e-05,1.26884e-05,5.8024e-05,0.000129225,1.209e-06,0
7.70147e-05,2.97198e-05,-3.17632e-05,-4.28153e-05,1.69961e-05,6.7536e-05,0.000135801,3.87173e-06,0
6.72751e-05,3.7854e-05,-2.24133e-05,-2.99776e-05,2.33196e-05,5.22305e-05,0.000127093,4.71416e-06,0
4.53545e-05,5.70064e-05,-1.37914e-05,-8.12116e-06,2.29342e-05,2.70733e-05,0.000108155,3.54427e-06,0
9.33235e-06,7.45091e-05,-1.08147e-05,2.53155e-05,1.11912e-05,7.70446e-06,8.65498e-05,1.97247e-06,0
-3.06474e-05,7.25546e-05,-1.4723e-05,6.44587e-05,-3.42737e-06,-4.94314e-06,6.49974e-05,6.68884e-07,0
-5.9943e-05,6.12099e-05,-2.05357e-05,9.7472e-05,-1.03993e-05,-1.83472e-05,3.59248e-05,-5.90027e-07,0
-6.9657e-05,7.47522e-05,-2.61087e-05,0.000113753,-8.20047e-06,-2.76581e-05,-2.54676e-05,-1.78818e-06,0
-6.60074e-05,0.000113326,-3.25993e-05,0.000108762,-2.02182e-07,-2.00797e-05,-0.000128621,-3.17968e-06,0
-5.90276e-05,0.000127263,-3.50107e-05,9.05327e-05,1.38735e-05,-9.01942e-07,-0.000198288,-4.66255e-06,0
-5.4781e-05,9.2553e-05,-3.27523e-05,6.83606e-05,3.32081e-05,1.28004e-05,-0.000158786,-5.77514e-06,0
-5.49467e-05,3.5384e-05,-3.17211e-05,4.59909e-05,5.00157e-05,6.86243e-06,-3.08202e-05,-6.22609e-06,0
-5.05291e-05,1.03106e-05,-2.81759e-05,2.90189e-05,5.32406e-05,-2.31239e-05,8.29103e-05,-6.72754e-06,0
-4.1996e-05,2.27327e-05,-1.85945e-05,2.08805e-05,4.56955e-05,-4.50576e-05,0.00012325,-7.10357e-06,0
-3.798e-05,9.27799e-06,-7.78184e-06,2.05023e-05,4.23626e-05,-3.71135e-05,0.000125107,-5.17768e-06,0
-3.55106e-05,-3.61365e-05,5.21926e-07,2.19495e-05,4.40755e-05,-2.12353e-05,0.000110783,-3.58652e-06,0
-3.29488e-05,-7.53487e-05,4.55871e-06,1.9653e-05,4.5673e-05,-1.37436e-05,9.08452e-05,-5.85042e-06,0
