ch1,ch2,ch3,ch4,ch5,ch6,ch7,ch8,class
-2.96175e-05,3.46244e-06,-1.14213e-05,-2.95626e-05,8.07822e-06,-1.03786e-05,8.25584e-06,-4.56957e-08,0
-2.95611e-05,4.81928e-06,-1.18751e-05,-3.29503e-05,8.42246e-06,-9.62267e-06,8.39589e-06,-1.87355e-06,0
-2.98834e-05,8.89598e-06,-1.17318e-05,-3.71754e-05,7.67352e-06,-8.4904e-06,4.93696e-06,-3.1125e-06,0
-3.07632e-05,1.3152e-05,-1.09846e-05,-3.51385e-05,8.1931e-06,-8.01883e-06,-1.84651e-06,-2.79727e-06,0
-3.12808e-05,1.6562e-05,-9.59692e-06,-2.13699e-05,1.06462e-05,-8.6067e-06,-6.81499e-06,-3.49804e-06,0
-3.19287e-05,1.83802e-05,-8.67823e-06,2.4011e-06,1.41083e-05,-9.15404e-06,-5.43118e-06,-5.9078e-06,0
-3.32855e-05,1.79349e-05,-9.1632e-06,2.7314e-05,1.53827e-05,-9.31172e-06,5.71953e-07,-7.97964e-06,0
-3.45085e-05,1.63302e-05,-1.07324e-05,4.49022e-05,1.46088e-05,-8.93104e-06,6.38884e-06,-9.01092e-06,0
-3.46314e-05,1.59244e-05,-1.16883e-05,5.00353e-05,1.53996e-05,-8.81801e-06,9.56249e-06,-9.31075e-06,0
-3.45358e-05,1.70016e-05,-1.07134e-05,4.58487e-05,1.91162e-05,-9.3506e-06,1.09168e-05,-9.38449e-06,0
-3.45247e-05,1.82685e-05,-8.69512e-06,3.84204e-05,2.21055e-05,-1.02814e-05,1.18358e-05,-8.45947e-06,0
-3.40402e-05,1.83988e-05,-7.23179e-06,2.98425e-05,2.2833e-05,-8.94328e-06,1.17708e-05,-6.94616e-06,0
-3.33182e-05,1.77322e-05,-7.80869e-06,2.40839e-05,2.18949e-05,-7.16169e-06,1.07752e-05,-6.43916e-06,0
-3.2844e-05,1.65274e-05,-9.73153e-06,2.43524e-05,2.02267e-05,-8.39896e-06,1.00011e-05,-6.33067e-06,0
-3.13638e-05,1.51411e-05,-1.14483e-05,2.76151e-05,1.87502e-05,-1.17048e-05,1.01748e-05,-5.40014e-06,0
-3.08713e-05,1.48313e-05,-1.15806e-05,2.9184e-05,1.78516e-05,-1.46016e-05,1.16343e-05,-4.1648e-06,0
-3.19058e-05,1.55579e-05,-1.05912e-05,2.73095e-05,1.76534e-05,-1.38731e-05,1.3629e-05,-3.54187e-06,0
-3.30727e-05,1.6546e-05,-1.15948e-05,2.20291e-05,1.84897e-05,-9.95352e-06,1.49133e-05,-2.76449e-06,0
-3.33631e-05,1.66748e-05,-1.31347e-05,1.41907e-05,1.91598e-05,-7.74872e-06,1.40056e-05,1.32057e-07,0
-3.24754e-05,1.68345e-05,-1.17444e-05,8.29192e-06,1.95064e-05,-9.67434e-06,1.23829e-05,1.86425e-06,0
-3.14714e-05,1.62745e-05,-9.30963e-06,4.21805e-06,1.83363e-05,-1.23675e-05,1.29628e-05,3.8582e-07,0
-3.15937e-05,1.55164e-05,-9.47729e-06,-1.90754e-06,1.55471e-05,-1.29679e-05,1.34238e-05,-2.23469e-06,0
-3.21669e-05,1.64131e-05,-1.21093e-05,-6.78463e-06,1.4228e-05,-1.34769e-05,1.12702e-05,-3.9746e-06,0
-3.21799e-05,1.65305e-05,-1.33106e-05,-1.18706e-05,1.48713e-05,-1.42953e-05,8.84551e-06,-2.94966e-06,0
-3.16449e-05,1.49189e-05,-1.36074e-05,-1.80866e-05,1.59366e-05,-1.36992e-05,8.37092e-06,-1.90648e-07,0
-3.04796e-05,1.18396e-05,-1.35156e-05,-2.16699e-05,1.40299e-05,-1.20376e-05,9.03913e-06,1.98308e-06,0
-3.12263e-05,1.04527e-05,-1.27007e-05,-2.26812e-05,1.08782e-05,-1.17807e-05,9.12352e-06,2.41894e-06,0
-3.24747e-05,1.19526e-05,-1.24432e-05,-2.44114e-05,8.22967e-06,-1.26706e-05,8.51346e-06,2.25506e-06,0
-3.34279e-05,1.34427e-05,-1.17992e-05,-2.51441e-05,6.99786e-06,-1.47411e-05,8.54343e-06,2.69266e-06,0
-3.40804e-05,1.38792e-05,-1.05855e-05,-2.20091e-05,8.05182e-06,-1.594e-05,9.83498e-06,3.62526e-06,0
-3.46918e-05,1.39631e-05,-1.01976e-05,-1.73222e-05,1.0972e-05,-1.47051e-05,1.08712e-05,3.93821e-06,0
-3.46862e-05,1.44337e-05,-1.1291e-05,-1.40849e-05,1.48773e-05,-1.33289e-05,9.96988e-06,3.51787e-06,0
-3.38521e-05,1.43151e-05,-1.32136e-05,-1.12431e-05,1.84074e-05,-1.22188e-05,6.22957e-06,3.02244e-06,0
-3.36712e-05,1.26926e-05,-1.57634e-05,-6.33235e-06,1.95661e-05,-1.24744e-05,2.61818e-06,2.83648e-06,0
-3.3468e-05,9.67296e-06,-1.78864e-05,-3.4908e-07,1.70437e-05,-1.35899e-05,3.00113e-06,2.8745e-06,0
-3.26379e-05,9.39594e-06,-1.79317e-05,5.27401e-06,1.35895e-05,-1.37086e-05,6.67708e-06,3.50472e-06,0
-3.11048e-05,1.63874e-05,-1.56916e-05,1.03261e-05,1.1455e-05,-1.29213e-05,1.01758e-05,3.56013e-06,0
-3.04763e-05,3.04706e-05,-1.33571e-05,1.47231e-05,1.11587e-05,-1.2925e-05,1.24014e-05,3.5556e-06,0
-3.09275e-05,4.39946e-05,-1.24064e-05,1.55939e-05,1.22495e-05,-1.27846e-05,1.37023e-05,5.36308e-06,0
-3.09714e-05,4.76888e-05,-1.29715e-05,1.02867e-05,1.39292e-05,-1.18291e-05,1.29732e-05,6.78034e-06,0
-3.01528e-05,4.03594e-05,-1.44462e-05,3.47293e-07,1.42741e-05,-9.6176e-06,1.21299e-05,6.2186e-06,0
-3.068e-05,2.55807e-05,-1.5021e-05,-8.52077e-06,1.21597e-05,-8.42639e-06,1.42043e-05,4.73332e-06,0
-3.22959e-05,6.16069e-06,-1.31791e-05,-1.13382e-05,9.28828e-06,-1.02871e-05,1.83291e-05,2.9578e-06,0
-3.3156e-05,-1.5334e-05,-9.49123e-06,-8.56539e-06,7.74689e-06,-1.30951e-05,1.8255e-05,3.32968e-06,0
-3.19618e-05,-3.29842e-05,-7.38225e-06,-6.31093e-06,7.10534e-06,-1.29541e-05,1.35603e-05,5.02273e-06,0
-2.93403e-05,-4.01879e-05,-7.38581e-06,-9.98169e-06,4.95326e-06,-9.97263e-06,1.12061e-05,6.00539e-06,0
-2.80094e-05,-3.39089e-05,-6.72906e-06,-1.70137e-05,2.35407e-06,-8.35643e-06,1.57537e-05,7.55574e-06,0
-2.93426e-05,-1.64595e-05,-5.16305e-06,-2.30154e-05,1.86944e-06,-7.54262e-06,2.58009e-05,7.6776e-06,0
-3.1589e-05,2.62357e-06,-4.63232e-06,-2.78763e-05,1.73732e-06,-7.56192e-06,3.28135e-05,6.48985e-06,0
-3.18238e-05,1.75674e-05,-6.74885e-06,-3.25129e-05,2.45851e-06,-9.20896e-06,3.53305e-05,5.78746e-06,0
-3.07545e-05,3.04212e-05,-9.2308e-06,-3.54553e-05,3.11439e-06,-9.75198e-06,3.57395e-05,6.26819e-06,0
-3.0876e-05,4.43347e-05,-9.31753e-06,-3.57928e-05,2.70182e-06,-8.81481e-06,3.29141e-05,7.36356e-06,0
-3.10926e-05,5.38523e-05,-8.7036e-06,-3.25111e-05,5.07437e-06,-8.77552e-06,2.83341e-05,8.25342e-06,0
-3.00494e-05,5.00432e-05,-7.90038e-06,-2.58236e-05,9.43039e-06,-9.7759e-06,2.35448e-05,9.65286e-06,0
-2.81465e-05,3.02659e-05,-6.6795e-06,-1.96852e-05,1.1331e-05,-1.074e-05,1.91123e-05,1.10147e-05,0
-2.67049e-05,-1.93474e-06,-6.73456e-06,-1.60598e-05,1.00601e-05,-1.04565e-05,1.32156e-05,1.0977e-05,0
-2.68684e-05,-3.28958e-05,-8.69568e-06,-1.59526e-05,9.06144e-06,-9.57746e-06,6.57542e-06,9.58316e-06,0
-2.74937e-05,-5.04178e-05,-9.95576e-06,-1.69263e-05,9.14124e-06,-8.75814e-06,3.33095e-06,7.33873e-06,0
-2.77156e-05,-5.34655e-05,-8.42196e-06,-1.60682e-05,9.23089e-06,-8.31763e-06,5.36362e-06,5.73348e-06,0
-2.82659e-05,-4.62339e-05,-6.58958e-06,-1.21914e-05,9.75882e-06,-8.56328e-06,7.91516e-06,6.46491e-06,0
-2.93718e-05,-3.24784e-05,-6.40061e-06,-5.85003e-06,1.05404e-05,-9.82063e-06,6.56051e-06,7.33968e-06,0
-2.92569e-05,-1.72978e-05,-7.84883e-06,1.38499e-06,1.01027e-05,-1.13072e-05,4.00469e-06,5.09171e-06,0
-2.84909e-05,-2.40969e-06,-9.67854e-06,6.98269e-06,8.45572e-06,-1.07936e-05,4.5444e-06,9.79152e-07,0
-2.91459e-05,1.36462e-05,-9.5401e-06,7.43046e-06,6.97675e-06,-8.77408e-06,6.85283e-06,-1.60354e-06,0
-3.13282e-05,2.83377e-05,-7.16499e-06,3.17723e-06,7.53226e-06,-8.56657e-06,8.07534e-06,-1.63926e-06,0
-3.262e-05,3.6933e-05,-5.25861e-06,-2.20404e-06,1.05907e-05,-1.11867e-05,9.17717e-06,4.44378e-07,0
-3.21867e-05,4.05147e-05,-5.2511e-06,-4.42831e-06,1.51503e-05,-1.31438e-05,1.00722e-05,2.03972e-06,0
-3.0647e-05,4.24167e-05,-5.70919e-06,-3.44652e-06,2.10737e-05,-1.29079e-05,8.62825e-06,7.06546e-07,0
-2.86886e-05,3.85854e-05,-5.996e-06,-5.11154e-06,2.323e-05,-1.22463e-05,3.50357e-06,-2.42407e-06,0
-2.82864e-05,2.49303e-05,-6.80397e-06,-1.08237e-05,1.8479e-05,-1.21428e-05,-1.6861e-06,-4.7964e-06,0
-3.01506e-05,7.81967e-06,-7.5051e-06,-1.4687e-05,1.27477e-05,-1.24028e-05,-2.54346e-06,-4.35164e-06,0
-3.07194e-05,-3.10841e-06,-6.69904e-06,-1.67706e-05,1.05218e-05,-1.1248e-05,4.79246e-07,-2.58383e-06,0
-2.89064e-05,-8.1342e-06,-3.96247e-06,-1.86086e-05,1.00627e-05,-8.45496e-06,1.76357e-07,-6.82973e-07,0
-2.7486e-05,-1.12674e-05,-1.47567e-07,-1.90784e-05,1.05731e-05,-8.03404e-06,-1.46962e-05,9.90233e-07,0
-2.64185e-05,-1.1984e-05,3.11803e-06,-1.83733e-05,1.27778e-05,-8.88605e-06,-4.07269e-05,8.54727e-07,0
-2.54776e-05,-7.94684e-06,3.54139e-06,-1.73011e-05,1.27127e-05,-8.97638e-06,-5.54233e-05,-1.42814e-07,0
-2.5793e-05,1.66553e-06,2.50335e-06,-1.62485e-05,1.07362e-05,-8.53277e-06,-4.77369e-05,-7.51381e-07,0
-2.83279e-05,1.06779e-05,2.61641e-06,-1.63388e-05,9.4993e-06,-7.76835e-06,-2.47621e-05,7.23037e-08,0
-3.04458e-05,1.15393e-05,2.45131e-06,-1.80824e-05,9.61695e-06,-7.87703e-06,3.44604e-06,6.95419e-07,0
-2.98367e-05,8.05853e-06,2.86084e-06,-2.04282e-05,1.16126e-05,-7.46172e-06,2.94236e-05,9.32834e-07,0
-2.85691e-05,1.20665e-05,3.03524e-06,-1.99327e-05,1.30623e-05,-6.70769e-06,4.87503e-05,1.7027e-07,0
-2.74519e-05,2.77969e-05,3.45232e-06,-1.59953e-05,1.24113e-05,-6.81958e-06,6.12625e-05,-4.29997e-07,0
-2.61438e-05,4.75853e-05,4.09588e-06,-1.05115e-05,1.21384e-05,-7.2548e-06,6.71525e-05,5.40668e-07,0
-2.55685e-05,5.99954e-05,3.01011e-06,-5.90233e-06,1.29715e-05,-5.89868e-06,6.59924e-05,1.19027e-06,0
-2.63937e-05,5.84796e-05,9.57191e-07,-6.46747e-06,1.33707e-05,-3.90291e-06,5.98102e-05,1.41646e-06,0
-2.65259e-05,4.51771e-05,-4.09228e-07,-1.14689e-05,1.4056e-05,-3.35088e-06,5.13911e-05,4.89804e-07,0
-2.48708e-05,2.71553e-05,-1.42459e-06,-1.3566e-05,1.44304e-05,-3.63212e-06,4.35759e-05,4.93476e-08,0
-2.30875e-05,1.26451e-05,-3.9469e-06,-6.3818e-06,1.33371e-05,-4.2401e-06,3.80083e-05,6.80591e-07,0
-2.24114e-05,6.95411e-06,-7.25714e-06,6.83578e-06,1.05346e-05,-5.20489e-06,3.39405e-05,1.31402e-06,0
-2.29648e-05,1.09478e-05,-1.09303e-05,2.03704e-05,7.01754e-06,-6.08045e-06,2.74302e-05,1.1704e-06,0
-2.47286e-05,1.76974e-05,-1.49121e-05,3.18705e-05,3.67943e-06,-6.02681e-06,1.86436e-05,4.57967e-08,0
-2.68999e-05,1.70592e-05,-1.82196e-05,3.90835e-05,3.5986e-06,-5.79379e-06,1.35186e-05,-1.42931e-06,0
-2.88674e-05,7.79732e-06,-1.88015e-05,3.81251e-05,7.45697e-06,-6.93533e-06,1.44648e-05,-1.58171e-06,0
-3.05502e-05,5.15423e-08,-1.97645e-05,2.80164e-05,9.62446e-06,-9.98306e-06,1.70722e-05,-1.38814e-06,0
-3.12372e-05,4.08631e-06,-2.40633e-05,1.2787e-05,7.45293e-06,-1.31582e-05,1.76214e-05,-1.01262e-06,0
-3.11111e-05,1.83706e-05,-2.71874e-05,-8.24231e-07,5.09637e-06,-1.48008e-05,1.51933e-05,6.14399e-07,0
-3.05401e-05,3.26694e-05,-2.49861e-05,-8.45215e-06,4.84284e-06,-1.43454e-05,1.20825e-05,2.57555e-06,0
-3.06742e-05,3.69406e-05,-1.92239e-05,-1.04992e-05,5.08979e-06,-1.35323e-05,8.6524e-06,4.85159e-06,0
-3.03098e-05,3.0377e-05,-1.33992e-05,-1.03295e-05,5.74055e-06,-1.29014e-05,5.64825e-06,5.92641e-06,0
-3.0949e-05,1.20197e-05,-1.17158e-05,-1.07211e-05,6.79823e-06,-1.30513e-05,4.35631e-06,5.15434e-06,0
-3.30206e-05,-1.47493e-05,-1.43177e-05,-1.22364e-05,7.61224e-06,-1.44771e-05,2.62101e-06,4.27757e-06,0
-3.37102e-05,-3.86513e-05,-1.6548e-05,-1.34109e-05,8.40599e-06,-1.50398e-05,1.81832e-06,4.1648e-06,0
-3.32399e-05,-5.55006e-05,-1.67103e-05,-1.51058e-05,1.00853e-05,-1.42682e-05,2.8768e-06,4.70373e-06,0
-3.25324e-05,-6.11146e-05,-1.6325e-05,-1.62688e-05,1.23714e-05,-1.30972e-05,4.69037e-06,4.69605e-06,0
-3.23843e-05,-5.7912e-05,-1.45157e-05,-1.50739e-05,1.49238e-05,-1.2146e-05,6.21107e-06,3.11128e-06,0
-3.25078e-05,-5.01471e-05,-1.14355e-05,-1.04975e-05,1.60423e-05,-1.04846e-05,7.84696e-06,1.56071e-06,0
-3.21669e-05,-3.94464e-05,-9.12561e-06,6.57728e-06,1.50304e-05,-8.11203e-06,1.18267e-05,6.5099e-07,0
-3.14565e-05,-2.81533e-05,-7.3373e-06,3.45409e-05,1.52672e-05,-6.55125e-06,1.58151e-05,8.7697e-07,0
-3.11355e-05,-2.15574e-05,-8.81664e-06,5.32442e-05,1.66714e-05,-6.69816e-06,1.61152e-05,2.32909e-06,0
-3.06961e-05,-2.16336e-05,-1.30209e-05,5.10909e-05,1.93454e-05,-6.35801e-06,1.29036e-05,3.02879e-06,0
-3.02113e-05,-2.21219e-05,-1.67581e-05,3.6271e-05,2.44259e-05,-5.11674e-06,6.11407e-06,1.39238e-06,0
-2.99703e-05,-1.72171e-05,-1.9077e-05,2.17317e-05,2.88815e-05,-3.99718e-06,-1.11901e-06,-2.72055e-06,0
-3.0514e-05,-6.24431e-06,-2.02385e-05,1.44732e-05,3.10613e-05,-3.22176e-06,-4.80231e-06,-6.37187e-06,0
-3.23566e-05,3.41296e-06,-1.98659e-05,1.35648e-05,3.22204e-05,-2.75326e-06,-4.464e-06,-6.55517e-06,0
-3.44673e-05,8.55551e-06,-1.72136e-05,1.15524e-05,3.31806e-05,-2.9795e-06,-4.06192e-07,-4.3808e-06,0
-3.51698e-05,1.16118e-05,-1.37732e-05,2.0715e-06,3.28943e-05,-4.05835e-06,4.8136e-06,-2.86421e-06,0
-3.41338e-05,1.47413e-05,-1.10339e-05,-1.2863e-05,3.12629e-05,-4.16107e-06,8.61198e-06,-2.63774e-06,0
-3.29229e-05,1.73636e-05,-8.53215e-06,-2.64402e-05,2.87563e-05,-2.76335e-06,1.10287e-05,-3.40773e-06,0
-3.17351e-05,2.08667e-05,-5.52655e-06,-3.57454e-05,2.58341e-05,-7.88835e-07,1.26744e-05,-5.10785e-06,0
-3.0532e-05,2.43364e-05,-2.29755e-06,-4.36625e-05,2.33968e-05,-3.84709e-07,1.3479e-05,-5.55254e-06,0
-3.09204e-05,2.64289e-05,5.04999e-07,-4.91517e-05,2.24385e-05,-1.7053e-06,1.43429e-05,-4.12578e-06,0
-3.22379e-05,2.79207e-05,6.26647e-07,-4.85701e-05,2.21135e-05,-3.80833e-06,1.54517e-05,-2.95993e-06,0
-3.21669e-05,3.13808e-05,-1.41388e-06,-4.14103e-05,2.16454e-05,-4.74499e-06,1.67949e-05,-2.54793e-06,0
-3.18882e-05,3.60344e-05,-2.34203e-06,-2.98489e-05,2.14287e-05,-3.67856e-06,1.94338e-05,-2.31731e-06,0
-3.2687e-05,3.57606e-05,-3.10904e-06,-1.98857e-05,2.22565e-05,-3.63195e-06,2.3684e-05,-2.24005e-06,0
-3.3067e-05,3.05371e-05,-3.10779e-06,-1.55573e-05,2.38694e-05,-6.86442e-06,3.2288e-05,-2.435e-06,0
-3.3063e-05,2.57857e-05,-1.28743e-06,-1.60305e-05,2.30158e-05,-1.01277e-05,4.56704e-05,-3.1284e-06,0
-3.30716e-05,2.41116e-05,-6.82515e-07,-1.9115e-05,2.1324e-05,-9.67449e-06,5.57432e-05,-2.58307e-06,0
-3.16676e-05,2.39654e-05,-2.58503e-06,-2.27211e-05,2.12264e-05,-8.44838e-06,5.91669e-05,8.61552e-08,0
-2.89342e-05,2.30641e-05,-4.21118e-06,-2.45238e-05,2.14716e-05,-8.2986e-06,5.70258e-05,1.64792e-06,0
-2.75196e-05,2.14324e-05,-3.15483e-06,-2.37178e-05,2.42948e-05,-7.95269e-06,4.94619e-05,5.50065e-07,0
-2.8495e-05,2.10307e-05,-3.12891e-06,-2.21019e-05,2.7883e-05,-7.66152e-06,3.9738e-05,1.87954e-07,0
-3.00129e-05,2.01219e-05,-4.41577e-06,-1.92607e-05,2.70416e-05,-8.80611e-06,2.83861e-05,1.80872e-06,0
-3.04884e-05,1.79256e-05,-5.49628e-06,-1.32724e-05,2.29557e-05,-1.05413e-05,1.44122e-05,2.1999e-06,0
-3.13181e-05,1.62821e-05,-5.54572e-06,-6.45208e-06,2.07154e-05,-1.06781e-05,-1.85138e-06,2.01683e-07,0
-3.2327e-05,1.63328e-05,-5.48209e-06,-2.10237e-06,2.07188e-05,-1.03084e-05,-1.54223e-05,-1.25946e-06,0
-3.27008e-05,1.76583e-05,-6.91982e-06,-1.30722e-07,2.01727e-05,-9.88218e-06,-2.39582e-05,-1.05701e-06,0
-3.31788e-05,1.89158e-05,-7.28079e-06,1.33174e-06,1.9076e-05,-9.81271e-06,-2.95336e-05,5.56518e-08,0
-3.32259e-05,1.91886e-05,-2.95483e-06,2.94808e-06,1.7758e-05,-1.03715e-05,-3.65286e-05,6.36141e-07,0
-3.29445e-05,1.93157e-05,8.24374e-06,5.27399e-06,1.68304e-05,-1.18847e-05,-4.5031e-05,-4.65263e-07,0
-3.29816e-05,1.85079e-05,2.0576e-05,7.57425e-06,1.6471e-05,-1.31215e-05,-4.59161e-05,-2.25975e-06,0
-3.35767e-05,1.67298e-05,2.61251e-05,7.50528e-06,1.48454e-05,-1.23876e-05,-3.3883e-05,-4.11698e-06,0
-3.33936e-05,1.54692e-05,2.13426e-05,5.9416e-06,1.06577e-05,-1.12984e-05,-1.34861e-05,-5.26557e-06,0
-3.21735e-05,1.46493e-05,7.06186e-06,5.50425e-06,6.33897e-06,-1.05346e-05,7.05433e-06,-5.15757e-06,0
-3.14754e-05,1.30117e-05,-1.36207e-05,6.14871e-06,4.70525e-06,-9.69156e-06,2.45754e-05,-3.89675e-06,0
-3.1537e-05,1.08968e-05,-3.50954e-05,5.73579e-06,6.63673e-06,-9.3533e-06,3.67575e-05,-3.26343e-06,0
-3.10973e-05,1.02086e-05,-5.24896e-05,3.57251e-06,1.01762e-05,-9.9492e-06,4.23666e-05,-4.37414e-06,0
-3.11069e-05,1.14252e-05,-6.24096e-05,1.03579e-06,1.30119e-05,-1.02257e-05,4.35589e-05,-4.88923e-06,0
-3.23445e-05,1.30903e-05,-6.25045e-05,-8.55762e-07,1.50624e-05,-1.03504e-05,4.25608e-05,-3.27555e-06,0
-3.31193e-05,1.32305e-05,-5.54932e-05,-3.62822e-06,1.67156e-05,-1.10219e-05,3.98749e-05,-2.32416e-06,0
-3.4205e-05,1.07154e-05,-4.58481e-05,-9.35497e-06,1.84255e-05,-1.24621e-05,3.64068e-05,-1.64682e-06,0
-3.48396e-05,7.65837e-06,-3.54983e-05,-1.67089e-05,2.10531e-05,-1.29625e-05,3.26405e-05,-8.20839e-07,0
-3.40792e-05,7.3156e-06,-2.699e-05,-2.16248e-05,2.25732e-05,-1.22975e-05,2.90665e-05,-1.44772e-06,0
-3.24208e-05,8.67416e-06,-2.0373e-05,-1.88391e-05,1.92854e-05,-1.03037e-05,2.67748e-05,-3.06719e-06,0
-3.15149e-05,1.05188e-05,-1.32543e-05,-6.59438e-06,1.69212e-05,-8.79306e-06,2.3714e-05,-4.24455e-06,0
-3.34078e-05,1.25043e-05,-5.89629e-06,8.19477e-06,1.82137e-05,-9.13586e-06,1.92737e-05,-3.37414e-06,0
-3.43563e-05,1.33405e-05,-1.11756e-07,1.91771e-05,1.78003e-05,-7.5439e-06,1.68404e-05,-2.13543e-06,0
-3.27351e-05,1.1653e-05,2.99698e-06,2.55799e-05,1.64982e-05,-6.28452e-06,1.44077e-05,-6.03719e-07,0
-3.04263e-05,1.12622e-05,4.27649e-06,2.94735e-05,1.63699e-05,-6.94592e-06,9.56394e-06,1.50213e-06,0
-2.91822e-05,1.4301e-05,3.89194e-06,2.94804e-05,1.7987e-05,-8.94859e-06,3.77146e-06,3.46151e-06,0
-2.89558e-05,1.80001e-05,3.57309e-06,2.08168e-05,1.91235e-05,-1.23092e-05,2.98836e-07,4.08521e-06,0
-2.89505e-05,2.05621e-05,3.24592e-06,4.72749e-06,1.81105e-05,-1.41635e-05,2.01355e-07,3.78541e-06,0
-2.80484e-05,2.1148e-05,1.34337e-06,-1.45329e-05,1.5771e-05,-1.35902e-05,1.0403e-06,4.08503e-06,0
-2.70334e-05,2.01016e-05,-1.97055e-06,-2.85382e-05,1.299e-05,-1.18532e-05,1.73456e-06,4.62119e-06,0
-2.7312e-05,2.00818e-05,-5.67467e-06,-3.39759e-05,1.06748e-05,-9.10937e-06,2.78124e-06,4.642e-06,0
-2.76562e-05,2.14835e-05,-7.73633e-06,-3.42394e-05,9.33451e-06,-6.57758e-06,5.58813e-06,4.72088e-06,0
-2.69547e-05,2.16693e-05,-6.79718e-06,-3.33219e-05,7.99931e-06,-5.47198e-06,8.5008e-06,5.50626e-06,0
-2.50445e-05,2.22735e-05,-5.16411e-06,-3.15988e-05,6.58219e-06,-4.33805e-06,1.04385e-05,5.45661e-06,0
-2.38378e-05,2.39455e-05,-4.42551e-06,-2.47594e-05,7.30139e-06,-4.04255e-06,1.18146e-05,4.66809e-06,0
-2.38408e-05,2.47062e-05,-3.24289e-06,-9.52875e-06,8.90071e-06,-5.6855e-06,1.37829e-05,4.01898e-06,0
-2.45987e-05,2.52567e-05,-9.39194e-07,1.30306e-05,9.15401e-06,-7.37577e-06,1.61644e-05,3.42088e-06,0
-2.50743e-05,2.67174e-05,6.57033e-07,3.4313e-05,8.74282e-06,-6.94027e-06,1.783e-05,2.49579e-06,0
-2.51891e-05,2.7123e-05,2.63695e-07,4.66482e-05,8.74679e-06,-6.26478e-06,1.78665e-05,1.91618e-06,0
-2.58145e-05,2.6935e-05,-2.25969e-06,4.64766e-05,7.63551e-06,-7.83812e-06,1.65369e-05,1.90681e-06,0
-2.7305e-05,2.79005e-05,-4.8987e-06,3.30982e-05,5.21906e-06,-1.03782e-05,1.44708e-05,1.46569e-06,0
-2.76037e-05,2.85476e-05,-3.62813e-06,1.47025e-05,3.9802e-06,-1.19679e-05,1.30193e-05,2.90239e-07,0
-2.65984e-05,2.76224e-05,3.32257e-08,3.45839e-06,5.13364e-06,-1.24635e-05,1.31853e-05,3.08852e-07,0
-2.55038e-05,2.59866e-05,2.86161e-06,-1.70145e-06,7.16731e-06,-1.18947e-05,1.31956e-05,2.128e-06,0
-2.55744e-05,2.44199e-05,3.04855e-06,-1.34685e-06,1.28797e-05,-1.0292e-05,1.19334e-05,3.63076e-06,0
-2.65136e-05,2.32277e-05,3.43997e-06,7.29567e-06,2.07203e-05,-8.85528e-06,9.81457e-06,3.8943e-06,0
-2.61149e-05,2.33852e-05,5.67157e-06,1.72301e-05,2.54898e-05,-7.66834e-06,7.59531e-06,3.5582e-06,0
-2.4886e-05,2.31938e-05,6.04031e-06,2.00041e-05,2.48224e-05,-6.40786e-06,6.29071e-06,3.10477e-06,0
-2.50573e-05,2.2858e-05,5.23635e-06,1.54023e-05,1.95373e-05,-4.70857e-06,6.31796e-06,3.0977e-06,0
-2.69837e-05,2.30996e-05,4.98011e-06,9.14648e-06,1.53843e-05,-4.10079e-06,6.04709e-06,1.79278e-06,0
-2.75596e-05,2.17553e-05,5.05059e-06,4.54547e-06,1.3259e-05,-5.80251e-06,6.0282e-06,-6.11005e-07,0
-2.65844e-05,1.90868e-05,4.82641e-06,6.74606e-07,1.18909e-05,-7.97099e-06,6.52492e-06,-9.00731e-07,0
-2.60044e-05,1.6992e-05,3.57486e-06,-4.33117e-06,1.02523e-05,-8.31494e-06,7.14625e-06,-7.08698e-07,0
-2.606e-05,1.7852e-05,2.3562e-06,-8.89253e-06,9.5783e-06,-7.76038e-06,8.66339e-06,-5.82314e-07,0
-2.69476e-05,1.94228e-05,1.69291e-06,-9.91057e-06,9.03191e-06,-7.00167e-06,1.0036e-05,2.54908e-09,0
-2.88914e-05,1.93087e-05,2.16195e-06,-8.75585e-06,7.01305e-06,-6.00355e-06,1.0606e-05,7.16945e-07,0
-3.02263e-05,1.79424e-05,1.76185e-06,-8.93129e-06,4.73164e-06,-6.44524e-06,1.02138e-05,1.36838e-06,0
-3.12208e-05,1.52709e-05,5.41868e-07,-1.07168e-05,3.7326e-06,-7.35772e-06,1.00531e-05,2.08188e-06,0
-3.21842e-05,1.22394e-05,-1.69085e-07,-1.48238e-05,4.58162e-06,-7.75023e-06,1.17782e-05,3.14186e-06,0
-3.25788e-05,9.63928e-06,-1.34811e-06,-2.28124e-05,5.12665e-06,-7.33883e-06,1.4565e-05,3.56005e-06,0
-3.25459e-05,8.49736e-06,-2.65599e-06,-3.36008e-05,3.98122e-06,-6.65355e-06,1.64713e-05,3.15047e-06,0
-3.31856e-05,8.82538e-06,-3.23336e-06,-4.26353e-05,1.87729e-06,-6.38022e-06,1.73713e-05,3.24117e-06,0
-3.45005e-05,9.79134e-06,-2.26101e-06,-4.33543e-05,1.32933e-06,-6.59198e-06,1.74269e-05,3.96912e-06,0
-3.5461e-05,1.05142e-05,-8.34957e-07,-3.33887e-05,3.19841e-06,-6.15425e-06,1.70616e-05,3.7801e-06,0
-3.5053e-05,1.03961e-05,8.38717e-07,-1.89938e-05,5.14243e-06,-5.97265e-06,1.74475e-05,2.00155e-06,0
-3.26709e-05,9.75822e-06,1.76163e-06,-7.42482e-06,5.41667e-06,-7.24711e-06,1.76827e-05,8.67944e-07,0
-3.06069e-05,9.75044e-06,5.78922e-07,7.31672e-07,6.62386e-06,-8.40813e-06,1.63621e-05,1.11745e-06,0
-3.02657e-05,9.90444e-06,-2.60688e-06,7.22899e-06,1.00725e-05,-8.23329e-06,1.34973e-05,8.9291e-07,0
-3.20301e-05,1.03054e-05,-6.52278e-06,9.03067e-06,1.24433e-05,-6.85579e-06,1.16388e-05,9.17731e-07,0
-3.44093e-05,1.26243e-05,-1.22602e-05,4.36571e-06,1.22021e-05,-6.43482e-06,1.07964e-05,7.45339e-07,0
-3.53519e-05,1.54604e-05,-2.15796e-05,-1.62274e-06,1.30965e-05,-7.80984e-06,9.20887e-06,4.74479e-07,0
-3.51538e-05,1.55946e-05,-3.08481e-05,-5.12635e-06,1.45021e-05,-9.78885e-06,7.30545e-06,-5.05643e-07,0
-3.50257e-05,1.35328e-05,-3.58461e-05,-7.35038e-06,1.27496e-05,-1.16332e-05,5.95565e-06,-2.12115e-07,0
-3.58031e-05,1.22245e-05,-3.62811e-05,-9.49515e-06,1.01052e-05,-1.30973e-05,7.44795e-06,1.56067e-06,0
-3.64126e-05,1.17429e-05,-3.14614e-05,-1.15061e-05,9.21313e-06,-1.29647e-05,1.03474e-05,9.53971e-07,0
-3.50187e-05,1.35087e-05,-2.49108e-05,-1.25071e-05,8.51074e-06,-1.13714e-05,1.16769e-05,-7.56673e-07,0
-3.27817e-05,1.83129e-05,-2.11833e-05,-1.06475e-05,5.88447e-06,-8.99578e-06,1.20066e-05,-8.67678e-07,0
-3.08046e-05,2.23537e-05,-1.83211e-05,-7.27565e-06,2.88928e-06,-7.64199e-06,1.06888e-05,5.07572e-08,0
-2.95057e-05,3.05299e-05,-1.62532e-05,-4.55122e-06,1.38913e-06,-7.36145e-06,8.77942e-06,6.81948e-07,0
-2.92008e-05,4.58507e-05,-1.54171e-05,-2.68179e-06,1.184e-06,-8.98828e-06,7.30357e-06,2.39971e-06,0
-2.91914e-05,5.93036e-05,-1.46596e-05,-6.47524e-07,2.99296e-06,-1.25233e-05,7.43818e-06,2.86996e-06,0
-3.03866e-05,6.4341e-05,-1.29633e-05,1.6471e-06,7.26837e-06,-1.59468e-05,9.34418e-06,3.01336e-06,0
-3.19236e-05,6.0056e-05,-1.04666e-05,8.59432e-07,1.15272e-05,-1.81197e-05,1.11763e-05,3.97855e-06,0
-3.2399e-05,4.57464e-05,-8.49432e-06,-1.26411e-06,1.35785e-05,-1.81649e-05,1.21359e-05,3.74294e-06,0
-3.16531e-05,2.24139e-05,-7.48474e-06,-1.44191e-06,1.34118e-05,-1.65898e-05,1.28696e-05,1.63532e-06,0
-3.02759e-05,-2.8899e-06,-7.19409e-06,-7.49888e-07,1.25672e-05,-1.46969e-05,1.47782e-05,7.29858e-07,0
-2.86843e-05,-1.90306e-05,-7.52826e-06,-3.09108e-06,1.06432e-05,-1.44195e-05,1.65756e-05,3.04678e-06,0
-2.79564e-05,-2.12242e-05,-7.78692e-06,-8.27493e-06,7.4767e-06,-1.46666e-05,1.67766e-05,5.53749e-06,0
-2.85377e-05,-1.51011e-05,-7.69801e-06,-1.2084e-05,4.24323e-06,-1.48205e-05,1.54213e-05,5.31618e-06,0
-2.85792e-05,-7.28004e-06,-7.80526e-06,-1.346e-05,1.55459e-06,-1.52823e-05,1.4415e-05,1.99605e-06,0
-2.76803e-05,-2.37748e-06,-9.63749e-06,-1.38572e-05,-6.28281e-07,-1.57309e-05,1.49564e-05,-7.45642e-07,0
-2.65881e-05,1.439e-06,-1.27574e-05,-1.41065e-05,-1.61865e-06,-1.52553e-05,1.69408e-05,-2.0826e-06,0
-2.62334e-05,1.04344e-05,-1.34924e-05,-1.3179e-05,2.18804e-07,-1.41944e-05,1.82806e-05,-2.09982e-06,0
-2.59757e-05,2.64034e-05,-1.0087e-05,-1.12867e-05,3.89481e-06,-1.36907e-05,1.83065e-05,-1.15245e-06,0
-2.49193e-05,4.19513e-05,-4.79392e-06,-8.27412e-06,7.01359e-06,-1.37509e-05,1.85919e-05,3.24072e-08,0
-2.52032e-05,4.64382e-05,-1.93445e-06,-4.37702e-06,1.00788e-05,-1.21167e-05,2.00949e-05,6.23948e-07,0
-2.76252e-05,3.31171e-05,-3.06591e-06,-1.69156e-06,1.47921e-05,-8.82222e-06,2.22722e-05,1.42349e-06,0
-2.93834e-05,5.67492e-06,-6.11679e-06,-4.38166e-06,1.81218e-05,-6.285e-06,2.53255e-05,2.86888e-06,0
-2.81295e-05,-2.40619e-05,-6.9223e-06,-1.0313e-05,1.67978e-05,-5.29706e-06,3.04097e-05,4.20428e-06,0
-2.57195e-05,-5.05066e-05,-4.91666e-06,-1.40653e-05,1.49789e-05,-6.32143e-06,3.43918e-05,4.04941e-06,0
-2.59116e-05,-6.6837e-05,-4.11069e-06,-1.38846e-05,1.80719e-05,-8.09072e-06,3.34986e-05,1.52018e-06,0
-2.84806e-05,-6.39255e-05,-5.31962e-06,-1.06013e-05,2.27717e-05,-9.3894e-06,2.52184e-05,-2.85177e-07,0
-3.06289e-05,-5.26527e-05,-5.91776e-06,-7.36737e-06,2.33534e-05,-9.65783e-06,1.44962e-05,-1.21242e-06,0
-3.15304e-05,-4.48244e-05,-6.42633e-06,-4.2945e-06,2.10392e-05,-9.01389e-06,1.31536e-05,-1.17141e-06,0
-3.28499e-05,-3.79964e-05,-7.43016e-06,-1.64617e-06,1.97618e-05,-8.86945e-06,2.18967e-05,1.20629e-06,0
-3.35325e-05,-3.23466e-05,-7.75842e-06,-6.03611e-06,1.77478e-05,-1.04812e-05,2.77825e-05,2.42422e-06,0
-3.47179e-05,-2.68448e-05,-7.50042e-06,-2.34774e-05,1.44276e-05,-1.19554e-05,2.0092e-05,1.92964e-06,0
-3.5866e-05,-2.02236e-05,-6.94303e-06,-4.51543e-05,1.23308e-05,-1.18119e-05,1.95156e-06,1.16342e-06,0
-3.52665e-05,-1.11187e-05,-7.1022e-06,-5.39371e-05,1.24966e-05,-1.22565e-05,-1.36095e-05,1.36287e-06,0
-3.38222e-05,-5.91153e-09,-7.40266e-06,-4.83015e-05,1.25256e-05,-1.28922e-05,-1.76569e-05,2.58312e-06,0
-3.23106e-05,9.78804e-06,-6.69474e-06,-3.67451e-05,1.19163e-05,-1.24766e-05,-1.40731e-05,3.24058e-06,0
-3.15926e-05,1.35105e-05,-5.67797e-06,-2.41094e-05,1.36025e-05,-1.18259e-05,-8.7964e-06,4.3007e-06,0
-3.15001e-05,8.84762e-06,-6.31125e-06,-1.01907e-05,1.56408e-05,-1.23539e-05,-2.93728e-06,5.47049e-06,0
-3.17635e-05,1.61841e-07,-7.42964e-06,1.08251e-05,1.5138e-05,-1.31029e-05,1.52601e-06,5.92005e-06,0
-3.14879e-05,-5.70816e-06,-7.37913e-06,3.84082e-05,1.38414e-05,-1.32754e-05,2.96345e-06,5.36616e-06,0
-3.15106e-05,-5.78363e-06,-6.92017e-06,6.15441e-05,1.45858e-05,-1.3964e-05,3.09187e-06,4.7757e-06,0
-3.19916e-05,-2.36491e-06,-7.28916e-06,6.89732e-05,1.66115e-05,-1.44476e-05,2.39149e-06,4.40954e-06,0
-3.23249e-05,2.84077e-06,-8.59958e-06,6.02174e-05,1.93898e-05,-1.41711e-05,-1.67496e-06,4.22039e-06,0
-3.20092e-05,8.35481e-06,-9.73244e-06,4.18221e-05,2.26859e-05,-1.37015e-05,-7.59968e-06,4.22389e-06,0
-3.12178e-05,1.17647e-05,-1.07635e-05,1.9939e-05,2.57949e-05,-1.36632e-05,-1.12312e-05,4.16136e-06,0
-2.86732e-05,1.30473e-05,-1.17191e-05,-2.65103e-06,2.68735e-05,-1.34789e-05,-1.07389e-05,3.95489e-06,0
-2.58776e-05,1.54031e-05,-1.14768e-05,-2.5311e-05,2.44722e-05,-1.25522e-05,-8.11502e-06,5.58028e-06,0
-2.42259e-05,1.86891e-05,-1.04797e-05,-4.32611e-05,1.95043e-05,-1.15777e-05,-6.52445e-06,8.44975e-06,0
-2.43175e-05,2.06752e-05,-1.15439e-05,-5.03069e-05,1.43722e-05,-1.13383e-05,-5.72157e-06,8.76758e-06,0
-2.56447e-05,2.12695e-05,-1.28432e-05,-4.67065e-05,1.18791e-05,-9.7245e-06,-1.99569e-06,6.0882e-06,0
-2.57526e-05,2.13929e-05,-1.22175e-05,-3.59939e-05,1.14274e-05,-8.16646e-06,3.95607e-06,4.12952e-06,0
-2.6218e-05,2.18549e-05,-1.00478e-05,-2.28856e-05,1.06627e-05,-7.82459e-06,6.03791e-06,3.94964e-06,0
-2.85104e-05,2.27744e-05,-9.7562e-06,-1.58732e-05,1.00885e-05,-7.50163e-06,1.91809e-06,2.69867e-06,0
-3.02118e-05,2.27441e-05,-9.66234e-06,-1.71414e-05,1.12456e-05,-7.4614e-06,-1.13254e-06,1.18477e-06,0
-3.02951e-05,2.33526e-05,-7.65956e-06,-1.71893e-05,1.64728e-05,-6.95321e-06,2.07482e-06,7.94835e-07,0
-2.87316e-05,2.46982e-05,-6.97067e-06,-1.17391e-05,2.04665e-05,-6.49401e-06,7.82161e-06,5.19551e-07,0
-2.65693e-05,2.65743e-05,-5.09974e-06,-3.49353e-06,1.90843e-05,-4.94622e-06,1.43137e-05,1.48528e-08,0
-2.75255e-05,2.9401e-05,-2.60032e-06,8.18406e-06,1.65513e-05,-2.29659e-06,1.77317e-05,2.54184e-07,0
-2.88846e-05,3.50725e-05,-5.74724e-07,1.97868e-05,1.53077e-05,-2.25217e-06,1.81487e-05,1.08972e-06,0
-2.82854e-05,4.66894e-05,2.71268e-07,2.54922e-05,1.64864e-05,-5.16329e-06,1.95943e-05,1.68548e-06,0
-2.74261e-05,5.90641e-05,-1.15167e-06,2.24317e-05,1.70494e-05,-7.1294e-06,2.09429e-05,6.76116e-07,0
-2.77567e-05,6.67806e-05,-3.90111e-06,1.70787e-05,1.55675e-05,-7.72893e-06,2.09613e-05,-1.60764e-06,0
-2.85576e-05,6.59532e-05,-5.9536e-06,1.73156e-05,1.33167e-05,-8.94247e-06,1.889e-05,-3.25108e-06,0
-2.96918e-05,5.82259e-05,-6.52185e-06,1.99724e-05,1.44648e-05,-1.00955e-05,1.54522e-05,-2.45525e-06,0
-3.01002e-05,4.60092e-05,-5.73893e-06,1.85547e-05,2.00695e-05,-9.08524e-06,1.44234e-05,-1.81896e-07,0
-2.95406e-05,3.15351e-05,-4.5993e-06,1.16373e-05,2.54216e-05,-7.16096e-06,1.75032e-05,1.29405e-06,0
-2.95375e-05,1.83027e-05,-5.35068e-06,1.98178e-06,2.50755e-05,-6.45661e-06,2.14318e-05,1.92731e-06,0
-2.9487e-05,6.65475e-06,-7.56367e-06,-8.15301e-06,2.03784e-05,-6.89331e-06,2.40383e-05,2.8938e-06,0
-2.89833e-05,-2.88052e-06,-1.07445e-05,-1.59002e-05,1.68396e-05,-7.58804e-06,2.55675e-05,3.30555e-06,0
-2.80046e-05,-8.40366e-06,-1.40278e-05,-1.92377e-05,1.57975e-05,-7.67768e-06,2.55306e-05,2.72145e-06,0
-2.70448e-05,-8.26727e-06,-1.68493e-05,-1.82926e-05,1.68516e-05,-7.51369e-06,2.38622e-05,3.17886e-06,0
-2.69954e-05,-4.52994e-06,-1.96087e-05,-1.61613e-05,1.85963e-05,-7.27007e-06,2.28794e-05,3.48749e-06,0
-2.94466e-05,1.58991e-07,-2.32877e-05,-1.63057e-05,1.92743e-05,-6.74442e-06,2.24339e-05,2.34974e-06,0
-3.22796e-05,3.04234e-06,-2.49507e-05,-1.91352e-05,1.75564e-05,-5.94081e-06,2.10389e-05,1.68838e-06,0
-3.3793e-05,2.85341e-06,-2.35445e-05,-2.26481e-05,1.56256e-05,-5.40868e-06,1.91025e-05,1.94261e-06,0
-3.38748e-05,3.25066e-07,-2.19084e-05,-2.42213e-05,1.4884e-05,-6.20385e-06,1.69978e-05,1.61031e-06,0
-3.2979e-05,-5.03382e-07,-2.05845e-05,-2.32557e-05,1.45394e-05,-7.4599e-06,1.57047e-05,1.75239e-06,0
-3.30174e-05,4.08328e-06,-2.01765e-05,-2.1085e-05,1.33624e-05,-7.0844e-06,1.34947e-05,1.81052e-06,0
-3.35528e-05,1.61941e-05,-1.95205e-05,-1.89636e-05,1.24323e-05,-5.8284e-06,1.06902e-05,2.37608e-07,0
-3.30376e-05,3.30471e-05,-1.74918e-05,-1.49724e-05,1.13179e-05,-4.9267e-06,1.08853e-05,-1.55841e-06,0
-3.13389e-05,4.5857e-05,-1.52769e-05,-8.17901e-06,8.38582e-06,-4.55505e-06,1.32111e-05,-1.38156e-06,0
-2.98768e-05,5.80178e-05,-1.38717e-05,-1.88452e-06,3.55565e-06,-3.51462e-06,1.58341e-05,-1.42139e-07,0
-2.93066e-05,7.13191e-05,-1.26624e-05,-4.71759e-07,-3.52285e-07,-9.60398e-07,1.62061e-05,1.51741e-07,0
-2.95311e-05,7.63981e-05,-1.13996e-05,-3.68316e-06,-4.01853e-07,9.00953e-07,1.39094e-05,4.45691e-08,0
-3.11123e-05,7.17704e-05,-1.08142e-05,-5.57835e-06,-4.08553e-07,5.08056e-07,9.56825e-06,-7.89503e-07,0
-3.18484e-05,5.79095e-05,-1.07281e-05,-5.00524e-06,-2.59858e-06,-2.26081e-06,5.82372e-06,-1.80136e-06,0
-3.08137e-05,3.67841e-05,-1.15781e-05,-3.34526e-06,-4.04628e-06,-5.34679e-06,6.0968e-06,-3.01444e-06,0
-3.153e-05,1.12385e-05,-1.22323e-05,-3.00135e-06,-3.76326e-06,-6.0288e-06,3.87741e-06,-4.47801e-06,0
-3.34097e-05,-1.4156e-05,-1.27781e-05,-4.09277e-06,-2.88901e-06,-4.93476e-06,-2.42038e-06,-4.29447e-06,0
-3.3196e-05,-3.43881e-05,-1.30477e-05,-4.83467e-06,-1.01664e-06,-3.81568e-06,-8.36355e-06,-2.8074e-06,0
-3.2365e-05,-4.71283e-05,-1.28783e-05,-5.7456e-06,7.67396e-07,-3.85595e-06,-1.21263e-05,-4.39179e-07,0
-3.33292e-05,-5.3667e-05,-1.34999e-05,-6.70512e-06,4.95504e-07,-5.64587e-06,-1.12512e-05,1.5554e-06,0
-3.51003e-05,-5.84536e-05,-1.43417e-05,-7.48975e-06,-8.46277e-07,-8.58079e-06,-4.31869e-06,1.45819e-06,0
-3.64769e-05,-6.0182e-05,-1.4933e-05,-7.65478e-06,-6.8775e-07,-9.49469e-06,6.9089e-06,1.3354e-08,0
-3.68323e-05,-5.5844e-05,-1.46444e-05,-8.51228e-06,9.06296e-07,-7.29719e-06,1.7646e-05,-9.00738e-07,0
-3.55174e-05,-4.59398e-05,-1.33398e-05,-8.82514e-06,2.14814e-06,-4.94187e-06,2.42015e-05,-4.96516e-07,0
-3.25648e-05,-3.55009e-05,-1.1244e-05,-7.1558e-06,2.72413e-06,-4.38518e-06,2.61609e-05,9.24596e-07,0
-2.97427e-05,-2.6437e-05,-8.90976e-06,-5.92088e-06,3.82655e-06,-5.38636e-06,2.64132e-05,2.01329e-06,0
-2.87103e-05,-1.75772e-05,-6.18313e-06,-6.89574e-06,7.13724e-06,-6.99562e-06,2.88027e-05,1.70043e-06,0
-2.83689e-05,-9.41305e-06,-4.2001e-06,-8.48275e-06,1.27269e-05,-7.80212e-06,3.34603e-05,1.51124e-06,0
-2.82497e-05,-4.20907e-06,-3.9488e-06,-9.62811e-06,1.60922e-05,-7.35842e-06,3.61964e-05,1.50608e-06,0
-2.94937e-05,-7.66773e-07,-3.47054e-06,-8.30392e-06,1.36552e-05,-7.46466e-06,3.55107e-05,8.0299e-07,0
-3.1096e-05,8.50121e-06,-1.98562e-06,-3.26698e-06,8.5349e-06,-9.67792e-06,3.38332e-05,7.31175e-07,0
-3.21292e-05,2.46639e-05,-1.50629e-06,3.73566e-06,3.19772e-06,-1.23116e-05,3.17083e-05,7.89483e-07,0
-3.21833e-05,3.67196e-05,-2.4996e-06,9.36324e-06,9.35584e-07,-1.48319e-05,2.99887e-05,-5.14993e-07,0
-3.24054e-05,3.90374e-05,-3.42279e-06,1.15188e-05,4.03476e-06,-1.72577e-05,2.93396e-05,-7.99573e-07,0
-3.30984e-05,3.93911e-05,-4.13509e-06,1.21825e-05,8.21531e-06,-1.77338e-05,2.71911e-05,1.61865e-06,0
-3.27799e-05,4.19207e-05,-6.24633e-06,1.38857e-05,1.01535e-05,-1.74334e-05,2.43432e-05,3.77868e-06,0
-3.11818e-05,4.0332e-05,-7.22701e-06,1.34899e-05,1.11353e-05,-1.64428e-05,2.05462e-05,2.47192e-06,0
-2.94007e-05,3.14303e-05,-7.14993e-06,9.29167e-06,1.17902e-05,-1.59702e-05,9.50711e-06,-1.01604e-06,0
-2.89751e-05,1.21738e-05,-7.04833e-06,5.94949e-06,1.25013e-05,-1.62066e-05,-7.99677e-06,-3.01842e-06,0
-2.95102e-05,-1.61545e-05,-7.01239e-06,5.96579e-06,1.46428e-05,-1.65044e-05,-2.04429e-05,-1.91107e-06,0
-2.99791e-05,-4.0681e-05,-7.7511e-06,8.03369e-06,1.59989e-05,-1.58058e-05,-2.03773e-05,1.2261e-06,0
-2.96035e-05,-5.37292e-05,-5.31814e-06,1.05769e-05,1.58743e-05,-1.48308e-05,-1.17174e-05,3.10662e-06,0
-2.96623e-05,-5.58785e-05,-1.01643e-07,1.46211e-05,1.5963e-05,-1.43751e-05,-9.19964e-07,1.8431e-06,0
-2.95271e-05,-4.79527e-05,2.75808e-06,1.53497e-05,1.79707e-05,-1.3181e-05,1.12875e-05,-3.10569e-07,0
-2.83175e-05,-3.21593e-05,1.92241e-06,9.04973e-06,2.11065e-05,-1.19421e-05,2.52218e-05,-2.24905e-06,0
-2.75005e-05,-1.37819e-05,6.86787e-07,-2.90572e-06,2.32381e-05,-1.01095e-05,3.83087e-05,-3.92802e-06,0
-2.77032e-05,1.70941e-06,4.73997e-07,-1.80733e-05,2.31657e-05,-9.26646e-06,4.70044e-05,-6.08415e-06,0
-2.71346e-05,1.23102e-05,7.53769e-07,-3.23175e-05,2.11718e-05,-9.98655e-06,5.1433e-05,-8.69604e-06,0
-2.66807e-05,1.80668e-05,-4.87667e-07,-3.91452e-05,1.89006e-05,-1.08733e-05,5.41245e-05,-1.03238e-05,0
-2.83348e-05,1.99715e-05,-4.12713e-06,-3.45441e-05,1.70185e-05,-1.07217e-05,5.4528e-05,-1.00051e-05,0
-3.09313e-05,2.08602e-05,-7.3971e-06,-2.11121e-05,1.61766e-05,-1.12031e-05,4.99074e-05,-8.14128e-06,0
-3.23492e-05,2.18448e-05,-7.49111e-06,-4.39426e-06,1.72293e-05,-1.20602e-05,4.05694e-05,-5.98892e-06,0
-3.15898e-05,2.41672e-05,-5.44852e-06,1.1924e-05,1.96946e-05,-1.27549e-05,2.8977e-05,-4.4123e-06,0
-2.953e-05,2.73289e-05,-3.55949e-06,2.56105e-05,2.14242e-05,-1.36544e-05,1.36929e-05,-4.53008e-06,0
-2.76286e-05,2.79057e-05,-3.61827e-06,3.32102e-05,2.25223e-05,-1.33059e-05,-3.92636e-06,-4.87395e-06,0
-2.71804e-05,2.45159e-05,-5.20941e-06,3.40179e-05,2.27029e-05,-1.18557e-05,-1.79251e-05,-3.79031e-06,0
-2.71524e-05,2.1922e-05,-4.50598e-06,2.68974e-05,2.09641e-05,-1.11715e-05,-2.32818e-05,-2.57741e-06,0
-2.79397e-05,2.24428e-05,-1.93144e-06,1.43077e-05,1.75378e-05,-1.25209e-05,-2.11318e-05,-2.62105e-06,0
-2.93135e-05,2.39622e-05,-1.15744e-06,3.21377e-06,1.34887e-05,-1.38125e-05,-1.72933e-05,-1.30196e-06,0
-3.00225e-05,2.54491e-05,-1.50279e-06,-3.95089e-06,1.16156e-05,-1.40553e-05,-1.56772e-05,1.60254e-06,0
-2.97668e-05,2.77942e-05,-1.51401e-06,-1.06461e-05,1.28906e-05,-1.23449e-05,-1.68928e-05,2.49029e-06,0
-2.92514e-05,2.98897e-05,-2.33094e-06,-1.70901e-05,1.3942e-05,-9.9428e-06,-2.72836e-05,1.28327e-06,0
-2.8776e-05,2.98718e-05,-4.50654e-06,-2.1741e-05,1.33944e-05,-1.06479e-05,-4.49931e-05,1.47865e-06,0
-2.90388e-05,2.98767e-05,-6.97421e-06,-2.26217e-05,1.29265e-05,-1.27401e-05,-5.03091e-05,3.46794e-06,0
-2.90612e-05,2.95176e-05,-9.59417e-06,-2.06309e-05,1.25788e-05,-1.35709e-05,-3.70116e-05,4.50047e-06,0
-2.70077e-05,3.07065e-05,-1.18431e-05,-1.98009e-05,1.14227e-05,-1.29886e-05,-1.34195e-05,4.25491e-06,0
-2.54144e-05,3.31999e-05,-1.20646e-05,-1.8832e-05,9.76782e-06,-1.21268e-05,8.38551e-06,4.52757e-06,0
-2.47748e-05,3.41675e-05,-9.0978e-06,-1.62516e-05,7.33647e-06,-1.26547e-05,2.20186e-05,4.64389e-06,0
-2.49466e-05,3.44531e-05,-4.64026e-06,-1.08797e-05,5.92724e-06,-1.36831e-05,2.87837e-05,2.85604e-06,0
-2.69841e-05,3.61087e-05,-2.94439e-06,-4.16746e-06,7.11643e-06,-1.26751e-05,2.95267e-05,1.53516e-06,0
-2.84548e-05,3.97871e-05,-4.33888e-06,-9.3738e-07,9.37657e-06,-1.00892e-05,2.75335e-05,2.4932e-06,0
-2.82464e-05,4.19132e-05,-5.70001e-06,-9.00207e-07,1.19429e-05,-9.05483e-06,2.61154e-05,3.37415e-06,0
-2.7785e-05,4.05928e-05,-4.28144e-06,5.62631e-07,1.40668e-05,-1.0864e-05,2.71919e-05,4.00323e-06,0
-2.70791e-05,3.77532e-05,-1.48272e-06,2.65794e-06,1.52054e-05,-1.42967e-05,2.97319e-05,4.70773e-06,0
-2.57962e-05,3.65344e-05,-5.20972e-08,2.10908e-06,1.49755e-05,-1.58963e-05,3.23806e-05,4.70328e-06,0
-2.60651e-05,3.53704e-05,-9.07379e-07,-7.295e-07,1.33042e-05,-1.4166e-05,3.40419e-05,4.55748e-06,0
-2.933e-05,3.10012e-05,-1.53026e-06,-3.63978e-06,9.55664e-06,-1.14635e-05,3.4817e-05,4.38694e-06,0
-3.27187e-05,2.41475e-05,-1.32053e-06,-5.89777e-06,5.99326e-06,-1.02695e-05,3.43941e-05,4.56396e-06,0
-3.33692e-05,1.89327e-05,-2.89528e-06,-9.18768e-06,5.65993e-06,-1.04657e-05,3.09951e-05,5.07375e-06,0
-3.21735e-05,1.71306e-05,-6.31417e-06,-1.30598e-05,8.44482e-06,-1.08654e-05,2.53836e-05,5.33915e-06,0
-3.14617e-05,1.70653e-05,-9.72488e-06,-1.67727e-05,1.21895e-05,-9.38856e-06,2.06243e-05,5.75065e-06,0
-3.19382e-05,1.65258e-05,-1.28402e-05,-2.17778e-05,1.54883e-05,-5.56837e-06,1.76526e-05,5.54896e-06,0
-3.36177e-05,1.46792e-05,-1.61343e-05,-2.78244e-05,1.7294e-05,-2.70296e-06,1.6556e-05,3.61822e-06,0
-3.47216e-05,1.30107e-05,-1.81755e-05,-2.91265e-05,1.7431e-05,-1.87796e-06,1.77502e-05,2.09479e-06,0
-3.44154e-05,1.1974e-05,-1.89302e-05,-2.39537e-05,1.71691e-05,-1.32836e-06,1.85199e-05,2.74961e-06,0
-3.32389e-05,1.4103e-05,-1.8827e-05,-1.72973e-05,1.62695e-05,-3.91976e-07,1.71549e-05,4.61937e-06,0
-3.28851e-05,1.71169e-05,-1.72443e-05,-1.26901e-05,1.61951e-05,-4.25667e-07,1.29847e-05,3.87714e-06,0
-3.4544e-05,1.83198e-05,-1.50829e-05,-1.10105e-05,1.70924e-05,-2.34446e-06,9.14535e-06,1.90142e-06,0
-3.60038e-05,1.72085e-05,-1.26349e-05,-1.04244e-05,1.76944e-05,-4.03447e-06,9.53536e-06,1.80325e-06,0
-3.56262e-05,1.57934e-05,-1.02368e-05,-1.10448e-05,1.69447e-05,-3.79021e-06,1.22724e-05,2.27387e-06,0
-3.46432e-05,1.58338e-05,-1.01386e-05,-1.03687e-05,1.42522e-05,-2.58912e-06,1.66978e-05,2.14144e-06,0
-3.39721e-05,1.6684e-05,-1.18907e-05,-7.68316e-06,1.24788e-05,-3.37016e-06,2.02063e-05,1.57128e-06,0
-3.1552e-05,2.67692e-05,-1.5629e-05,-5.27292e-06,1.18934e-05,-5.34921e-06,2.0548e-05,1.5169e-06,0
-2.93689e-05,4.60203e-05,-1.95297e-05,-2.774e-06,1.23708e-05,-6.63397e-06,1.92234e-05,1.72878e-06,0
-2.93993e-05,6.62723e-05,-2.01361e-05,-1.28053e-06,1.34163e-05,-6.90909e-06,1.75354e-05,2.09104e-06,0
-2.96453e-05,7.81622e-05,-1.7568e-05,-1.18987e-06,1.45675e-05,-5.93764e-06,1.64098e-05,2.3853e-06,0
-2.9334e-05,7.50716e-05,-1.46076e-05,-1.58887e-06,1.73338e-05,-4.25646e-06,1.54907e-05,2.34414e-06,0
-2.89968e-05,5.96047e-05,-1.27521e-05,5.01214e-06,1.98773e-05,-4.28709e-06,1.46562e-05,1.5148e-06,0
-2.993e-05,3.57259e-05,-1.0753e-05,2.26034e-05,2.1275e-05,-6.60862e-06,1.36131e-05,4.67751e-07,0
-3.15445e-05,1.04728e-05,-9.37819e-06,4.01339e-05,2.29474e-05,-8.35339e-06,1.21442e-05,2.37876e-07,0
-3.1566e-05,-8.73196e-06,-9.85134e-06,4.27912e-05,2.53562e-05,-8.93177e-06,1.02651e-05,1.2703e-06,0
-2.94833e-05,-1.65317e-05,-1.09948e-05,2.9581e-05,2.68568e-05,-8.29708e-06,9.58787e-06,3.10076e-06,0
-2.75321e-05,-1.24209e-05,-1.20307e-05,1.1777e-05,2.6569e-05,-6.87385e-06,9.36181e-06,5.52227e-06,0
-2.63367e-05,-1.04519e-06,-1.2437e-05,-1.23595e-06,2.49766e-05,-5.53217e-06,8.89235e-06,7.45688e-06,0
-2.57594e-05,8.27907e-06,-1.09012e-05,-6.88348e-06,2.39933e-05,-6.10595e-06,8.41105e-06,6.91372e-06,0
-2.61286e-05,1.01431e-05,-8.14533e-06,-8.37516e-06,2.29971e-05,-8.50637e-06,7.90757e-06,4.09186e-06,0
-2.70375e-05,8.67098e-06,-6.19061e-06,-8.60632e-06,2.02407e-05,-1.0502e-05,7.04257e-06,1.01933e-06,0
-2.77952e-05,5.85304e-06,-5.32677e-06,-8.24035e-06,1.58169e-05,-1.12335e-05,4.84301e-06,-1.66567e-07,0
-2.84176e-05,-4.37617e-06,-4.02635e-06,-8.89639e-06,1.11857e-05,-1.24528e-05,2.03228e-06,-4.9625e-07,0
-2.94657e-05,-2.30795e-05,-1.51679e-06,-1.56419e-05,9.95402e-06,-1.36529e-05,7.41044e-07,-6.84459e-07,0
-3.01363e-05,-3.68688e-05,1.21654e-06,-2.84321e-05,1.20062e-05,-1.34022e-05,2.10951e-06,3.0219e-07,0
-2.92818e-05,-3.51177e-05,2.19935e-06,-3.98207e-05,1.29366e-05,-1.28023e-05,4.73547e-06,1.63071e-06,0
-2.9405e-05,-2.43937e-05,4.52536e-08,-4.78244e-05,1.13347e-05,-1.29224e-05,7.88038e-06,2.21371e-06,0
-3.19911e-05,-1.48877e-05,-4.90497e-06,-5.56983e-05,1.01614e-05,-1.34661e-05,9.5796e-06,2.32523e-06,0
-3.45003e-05,-1.03393e-05,-1.05073e-05,-6.02365e-05,1.10372e-05,-1.44367e-05,1.13452e-05,2.51514e-06,0
-3.68533e-05,-8.79109e-06,-1.4406e-05,-5.35819e-05,1.33294e-05,-1.41929e-05,1.45281e-05,2.11353e-06,0
-3.7818e-05,-6.92783e-06,-1.50303e-05,-3.82902e-05,1.65725e-05,-1.18789e-05,1.48431e-05,1.27333e-06,0
-3.66874e-05,-3.44339e-06,-1.33307e-05,-2.52716e-05,1.78131e-05,-9.90841e-06,1.46644e-05,8.75585e-07,0
-3.37584e-05,2.04461e-06,-1.2992e-05,-1.71186e-05,1.5253e-05,-8.83414e-06,1.48917e-05,8.32159e-07,0
-3.01505e-05,7.33215e-06,-1.41298e-05,-8.36971e-06,1.40579e-05,-9.54762e-06,1.42952e-05,1.66202e-06,0
-2.90392e-05,1.27069e-05,-1.47965e-05,2.43605e-06,1.54331e-05,-1.15772e-05,1.41187e-05,3.68134e-06,0
-2.94183e-05,1.72797e-05,-1.42346e-05,1.13012e-05,1.66557e-05,-1.24709e-05,1.36123e-05,5.76093e-06,0
-3.02382e-05,2.05744e-05,-1.18081e-05,1.76355e-05,1.71755e-05,-1.05254e-05,1.35672e-05,6.1267e-06,0
-3.21452e-05,2.36759e-05,-9.80447e-06,2.16233e-05,1.74831e-05,-7.6317e-06,1.16205e-05,4.45824e-06,0
-3.23901e-05,2.74594e-05,-7.83888e-06,2.33088e-05,1.65483e-05,-6.87534e-06,9.68395e-06,2.54929e-06,0
-2.97396e-05,3.22341e-05,-6.30228e-06,2.36867e-05,1.41426e-05,-8.81621e-06,9.0786e-06,1.83613e-06,0
-2.74412e-05,3.69757e-05,-5.42512e-06,2.36431e-05,1.30095e-05,-1.06833e-05,9.44137e-06,2.74296e-06,0
-2.64789e-05,4.02944e-05,-3.98032e-06,2.38443e-05,1.43804e-05,-1.06769e-05,1.06335e-05,3.18154e-06,0
-2.53763e-05,4.15727e-05,-2.00789e-06,2.19208e-05,1.67285e-05,-1.01153e-05,1.14344e-05,1.36875e-06,0
-2.4855e-05,4.12917e-05,3.03314e-07,1.4287e-05,1.66507e-05,-9.82509e-06,1.24884e-05,-6.51928e-07,0
-2.6522e-05,3.93684e-05,8.96287e-07,2.16137e-06,1.34481e-05,-9.68943e-06,1.62687e-05,-1.6936e-06,0
-2.88323e-05,3.659e-05,-1.16473e-06,-8.43346e-06,1.01061e-05,-9.39376e-06,2.23696e-05,-2.72104e-06,0
-2.91641e-05,3.3616e-05,-4.47586e-06,-1.36261e-05,8.60119e-06,-9.65135e-06,2.54309e-05,-5.21331e-06,0
-2.81409e-05,3.07036e-05,-6.04948e-06,-1.301e-05,7.21577e-06,-1.13626e-05,2.55233e-05,-8.28838e-06,0
-2.68386e-05,2.76183e-05,-5.22853e-06,-1.16128e-05,5.43792e-06,-1.34893e-05,2.6825e-05,-9.99309e-06,0
-2.58004e-05,2.3235e-05,-2.83631e-06,-1.50654e-05,5.88148e-06,-1.52444e-05,3.02561e-05,-9.93098e-06,0
-2.55875e-05,1.81999e-05,-1.81662e-06,-1.95826e-05,7.93015e-06,-1.66663e-05,3.16377e-05,-7.90371e-06,0
-2.62317e-05,1.48758e-05,-1.81615e-06,-1.78788e-05,8.49962e-06,-1.55877e-05,2.92075e-05,-5.41164e-06,0
-2.87096e-05,1.35752e-05,-7.0758e-07,-1.28654e-05,6.99813e-06,-1.23063e-05,2.3107e-05,-5.68897e-06,0
-3.13386e-05,1.65709e-05,-9.04856e-07,-9.44143e-06,4.03442e-06,-1.04561e-05,1.44097e-05,-8.21433e-06,0
-3.19996e-05,2.17631e-05,-3.43768e-06,-6.41182e-06,2.45242e-06,-1.20241e-05,5.51729e-06,-1.04437e-05,0
-3.13612e-05,2.42563e-05,-6.13155e-06,-3.81603e-06,4.204e-06,-1.39278e-05,-1.01352e-06,-1.12788e-05,0
-3.24749e-05,2.29029e-05,-7.53081e-06,-3.72456e-06,7.52806e-06,-1.25704e-05,-5.05362e-06,-1.09451e-05,0
-3.50759e-05,1.92666e-05,-8.36596e-06,-5.28964e-06,1.0287e-05,-1.09441e-05,-8.52578e-06,-1.00931e-05,0
-3.55633e-05,1.71636e-05,-7.53493e-06,-5.16846e-06,1.26059e-05,-1.05501e-05,-1.15093e-05,-7.76244e-06,0
-3.42315e-05,1.61897e-05,-4.59298e-06,-4.19566e-06,1.57281e-05,-1.021e-05,-1.08276e-05,-4.78977e-06,0
-3.1807e-05,1.44632e-05,-3.54553e-06,-3.67889e-06,1.87571e-05,-9.5774e-06,-6.80431e-06,-2.88484e-06,0
-3.05492e-05,1.10152e-05,-5.81834e-06,-1.11652e-06,2.08266e-05,-8.99606e-06,-4.48737e-06,-2.13468e-06,0
-3.0833e-05,7.98763e-06,-1.09377e-05,1.2969e-06,2.17993e-05,-9.14074e-06,-3.8089e-06,-1.26453e-06,0
-3.1578e-05,7.31153e-06,-1.85696e-05,2.64751e-06,2.03725e-05,-9.51785e-06,-2.43728e-06,-1.49773e-07,0
-3.14555e-05,7.28581e-06,-2.70469e-05,3.67181e-06,1.74993e-05,-1.05635e-05,-8.34166e-07,-1.21046e-07,0
-2.92365e-05,8.322e-06,-3.21138e-05,2.53517e-06,1.48874e-05,-1.08146e-05,8.72695e-07,-1.18223e-06,0
-2.60095e-05,9.88573e-06,-3.18963e-05,9.51247e-07,1.16107e-05,-1.08145e-05,3.09977e-06,-2.48261e-06,0
-2.4118e-05,1.09761e-05,-2.87558e-05,5.0581e-07,8.90532e-06,-1.10978e-05,4.71507e-06,-3.10724e-06,0
-2.45025e-05,1.19627e-05,-2.45914e-05,-2.75751e-06,8.03985e-06,-1.10683e-05,5.10554e-06,-3.79331e-06,0
-2.54685e-05,1.22883e-05,-2.05674e-05,-1.13275e-05,8.50284e-06,-1.03729e-05,5.13066e-06,-4.81919e-06,0
-2.67934e-05,9.31125e-06,-1.66566e-05,-1.88707e-05,8.96386e-06,-8.76242e-06,4.84806e-06,-4.07417e-06,0
-2.81919e-05,1.76107e-06,-1.1832e-05,-2.09961e-05,8.50644e-06,-7.19578e-06,4.04425e-06,-1.76099e-06,0
-2.94682e-05,-7.17746e-06,-5.5927e-06,-2.05838e-05,7.1775e-06,-6.63905e-06,1.63082e-06,-5.05498e-07,0
-3.07781e-05,-1.33332e-05,-1.5161e-06,-1.92251e-05,6.21507e-06,-7.7002e-06,-2.65241e-06,-5.01781e-07,0
-3.28814e-05,-1.46123e-05,-2.26446e-06,-1.38894e-05,7.07562e-06,-9.26407e-06,-4.26792e-06,-5.96368e-07,0
-3.43523e-05,-1.27344e-05,-4.63526e-06,-5.0402e-06,1.04959e-05,-1.06043e-05,1.26003e-06,-1.05551e-06,0
-3.44953e-05,-8.70095e-06,-5.1951e-06,2.49678e-06,1.51161e-05,-1.07092e-05,1.26818e-05,-1.85191e-06,0
-3.35048e-05,-2.55052e-06,-5.38996e-06,6.69796e-06,1.66475e-05,-9.81223e-06,2.49945e-05,-2.38359e-06,0
-3.14608e-05,4.2653e-06,-6.65411e-06,9.4248e-06,1.42967e-05,-8.85822e-06,3.48559e-05,-2.96107e-06,0
-2.92414e-05,9.12509e-06,-1.02219e-05,1.13839e-05,1.15761e-05,-8.1801e-06,4.11145e-05,-2.49911e-06,0
-2.77852e-05,1.12678e-05,-1.57718e-05,1.10664e-05,1.06626e-05,-6.49244e-06,4.39444e-05,-7.56359e-07,0
-2.82925e-05,1.29794e-05,-2.22972e-05,7.5339e-06,1.09187e-05,-4.92983e-06,4.30726e-05,8.0574e-07,0
-2.91714e-05,1.58628e-05,-2.74247e-05,2.94057e-06,1.04599e-05,-5.41199e-06,3.87202e-05,1.16399e-06,0
-2.88242e-05,1.83915e-05,-2.55907e-05,-2.87697e-06,8.42475e-06,-5.64159e-06,3.18646e-05,2.6655e-06,0
-2.84727e-05,1.9581e-05,-1.83224e-05,-1.25102e-05,6.47932e-06,-4.80019e-06,2.4869e-05,6.09861e-06,0
-2.87148e-05,2.10702e-05,-1.09039e-05,-2.10697e-05,5.31295e-06,-4.77382e-06,2.19166e-05,7.51491e-06,0
-2.7589e-05,2.42062e-05,-6.02713e-06,-2.35419e-05,5.91194e-06,-5.66118e-06,2.34781e-05,8.86691e-06,0
-2.64545e-05,2.70383e-05,-3.5469e-06,-2.04534e-05,7.27564e-06,-5.70144e-06,2.60503e-05,9.60607e-06,0
-2.68378e-05,2.63094e-05,-2.45391e-06,-1.47373e-05,7.57645e-06,-5.12669e-06,2.76958e-05,7.47132e-06,0
-2.79014e-05,2.06404e-05,-3.04058e-06,-1.06343e-05,5.41242e-06,-4.09344e-06,2.74203e-05,5.83626e-06,0
-2.90514e-05,1.0102e-05,-2.77199e-06,-5.64424e-06,1.62686e-06,-2.79809e-06,2.51019e-05,6.9872e-06,0
-3.11079e-05,2.43643e-06,-3.91323e-06,1.57674e-06,-5.79293e-07,-3.02387e-06,2.13953e-05,8.48121e-06,0
-3.42708e-05,4.42891e-07,-7.21542e-06,6.10184e-06,-5.73162e-07,-5.02571e-06,1.70427e-05,8.60051e-06,0
-3.53361e-05,1.23968e-06,-8.45949e-06,4.99603e-06,1.53359e-06,-7.1496e-06,1.30659e-05,8.14428e-06,0
-3.45702e-05,4.29669e-06,-6.28747e-06,4.6344e-07,3.6005e-06,-6.97e-06,7.95574e-06,8.50585e-06,0
-3.38554e-05,9.00971e-06,-2.30881e-06,-2.04026e-06,3.91212e-06,-5.28899e-06,2.51443e-06,8.90184e-06,0
-3.37709e-05,1.32048e-05,9.10653e-07,2.37162e-06,3.14438e-06,-4.2116e-06,5.23796e-08,6.15105e-06,0
-3.50003e-05,1.41861e-05,5.16799e-06,1.45652e-05,3.64498e-06,-4.56928e-06,2.7846e-07,2.83116e-06,0
-3.64195e-05,1.36226e-05,1.33003e-05,2.6635e-05,5.60926e-06,-5.32588e-06,1.28982e-06,3.10734e-06,0
-3.57501e-05,1.2805e-05,2.50429e-05,3.09314e-05,7.28429e-06,-5.35216e-06,1.78097e-06,5.91683e-06,0
-3.35911e-05,1.22051e-05,3.75544e-05,2.38147e-05,7.48158e-06,-4.72829e-06,2.14696e-06,7.44037e-06,0
-3.28916e-05,1.04941e-05,4.87719e-05,9.7932e-06,7.35766e-06,-3.25192e-06,3.99917e-06,7.53801e-06,0
-3.38027e-05,8.30961e-06,5.46629e-05,-2.72322e-06,1.02628e-05,-1.58461e-06,6.53791e-06,7.84944e-06,0
-3.41471e-05,7.96335e-06,5.08577e-05,-1.14579e-05,1.49864e-05,-1.28732e-06,6.98204e-06,8.26197e-06,0
-3.29696e-05,8.75342e-06,3.38298e-05,-1.91642e-05,1.77183e-05,-2.52902e-06,5.78777e-06,7.18389e-06,0
-3.18524e-05,8.8119e-06,4.30459e-06,-2.80988e-05,1.86381e-05,-4.44169e-06,5.94552e-06,6.42706e-06,0
-3.13185e-05,8.15122e-06,-2.86992e-05,-3.41591e-05,1.87616e-05,-7.25455e-06,7.48246e-06,7.72719e-06,0
-3.05007e-05,6.08317e-06,-5.43566e-05,-3.40265e-05,1.73649e-05,-9.15687e-06,7.3943e-06,9.04359e-06,0
-2.91402e-05,4.77978e-06,-6.73891e-05,-3.10676e-05,1.56587e-05,-9.45875e-06,5.36365e-06,8.06576e-06,0
-2.82103e-05,5.09005e-06,-6.80173e-05,-2.74706e-05,1.52675e-05,-7.57256e-06,5.0704e-06,6.55187e-06,0
-2.80516e-05,4.58019e-06,-5.92469e-05,-2.3651e-05,1.50106e-05,-5.83625e-06,7.2254e-06,7.2252e-06,0
-2.84099e-05,3.44124e-06,-4.64386e-05,-2.21559e-05,1.29029e-05,-6.95734e-06,1.01834e-05,6.85475e-06,0
-2.8994e-05,3.16197e-06,-3.64701e-05,-1.95355e-05,9.47271e-06,-8.89629e-06,1.68567e-05,5.57399e-06,0
-2.90389e-05,5.68527e-06,-3.02923e-05,-1.39204e-05,7.59076e-06,-1.02052e-05,2.68701e-05,6.79207e-06,0
-2.90347e-05,7.18826e-06,-2.47307e-05,-8.37913e-06,6.80752e-06,-1.14876e-05,3.29763e-05,7.61434e-06,0
-2.97109e-05,5.1146e-06,-1.94807e-05,-5.88167e-06,6.45643e-06,-1.27088e-05,3.26255e-05,5.89251e-06,0
-3.12955e-05,2.84229e-06,-1.61228e-05,-6.24918e-06,6.406e-06,-1.32345e-05,2.78283e-05,4.44547e-06,0
-3.28787e-05,2.45804e-06,-1.43343e-05,-3.6945e-06,6.53346e-06,-1.31665e-05,2.28644e-05,4.0093e-06,0
-3.42026e-05,2.14038e-06,-1.1938e-05,1.86382e-06,8.90921e-06,-1.06507e-05,1.78565e-05,2.87067e-06,0
-3.43336e-05,1.71394e-06,-9.86654e-06,5.9693e-06,1.3972e-05,-7.45992e-06,1.0678e-05,1.38704e-06,0
-3.22034e-05,2.39451e-06,-8.34066e-06,5.65516e-06,2.10878e-05,-6.65158e-06,1.55637e-06,1.01685e-06,0
-3.02848e-05,3.19372e-06,-7.30737e-06,3.01656e-06,2.6841e-05,-7.04349e-06,-6.7275e-06,1.9851e-06,0
-3.0265e-05,2.97568e-06,-6.50058e-06,3.16954e-07,2.9193e-05,-7.90642e-06,-1.02897e-05,2.42197e-06,0
-3.0924e-05,2.65878e-06,-5.54483e-06,-1.63194e-06,2.87409e-05,-9.21905e-06,-8.66633e-06,8.34561e-07,0
-3.1678e-05,2.85057e-06,-4.42486e-06,-5.5528e-07,2.76734e-05,-1.00269e-05,-3.92487e-06,-5.25998e-07,0
-3.2551e-05,2.00507e-06,-4.25077e-06,4.06783e-06,2.72488e-05,-1.01143e-05,1.77727e-06,-7.6377e-07,0
-3.25673e-05,3.67048e-07,-5.86343e-06,9.00315e-06,2.69667e-05,-9.19547e-06,8.04368e-06,-3.62288e-07,0
-3.17874e-05,8.05715e-07,-7.17621e-06,9.34057e-06,2.75276e-05,-7.40986e-06,1.38734e-05,4.62877e-07,0
-3.14251e-05,3.55971e-06,-5.91445e-06,5.72225e-06,2.97074e-05,-6.7954e-06,1.7762e-05,6.43104e-07,0
-3.15092e-05,5.03533e-06,-2.91723e-06,1.33938e-06,3.18798e-05,-8.7007e-06,1.96983e-05,1.09518e-07,0
-3.13367e-05,4.17128e-06,-2.00715e-06,-3.53741e-06,3.11929e-05,-1.20443e-05,2.17826e-05,-7.69105e-07,0
-3.09476e-05,2.36024e-06,-3.57028e-06,-9.08088e-06,2.85228e-05,-1.43305e-05,2.38194e-05,-2.23565e-06,0
-3.00878e-05,1.36457e-06,-4.25526e-06,-1.32682e-05,2.61561e-05,-1.48373e-05,2.40988e-05,-2.85977e-06,0
