ch1,ch2,ch3,ch4,ch5,ch6,ch7,ch8,class
-2.96669e-05,2.06787e-05,-5.55958e-05,-7.11211e-07,1.16233e-05,-1.30512e-05,1.4331e-05,2.99285e-06,0
-3.08126e-05,2.41619e-05,-5.41345e-05,3.07827e-06,1.16291e-05,-1.35915e-05,1.37362e-05,5.13601e-06,0
-3.04524e-05,2.32394e-05,-4.63753e-05,6.08219e-06,1.01592e-05,-1.45271e-05,1.17408e-05,7.50729e-06,0
-2.78896e-05,1.96415e-05,-3.73311e-05,5.39702e-06,9.40021e-06,-1.53106e-05,1.03159e-05,8.27483e-06,0
-2.58349e-05,1.46892e-05,-2.9783e-05,2.94869e-06,9.53283e-06,-1.62898e-05,1.14107e-05,7.61857e-06,0
-2.64183e-05,1.02894e-05,-2.39527e-05,1.91273e-06,8.91374e-06,-1.81298e-05,1.63906e-05,6.45079e-06,0
-2.97037e-05,8.83945e-06,-1.8133e-05,2.87676e-06,8.0122e-06,-1.89829e-05,2.18407e-05,5.43401e-06,0
-3.18174e-05,1.14866e-05,-1.09429e-05,5.69743e-06,8.06013e-06,-1.89488e-05,2.38581e-05,5.01289e-06,0
-3.1592e-05,1.65769e-05,-5.19276e-06,8.92129e-06,8.76516e-06,-1.98974e-05,2.25872e-05,5.74505e-06,0
-3.0923e-05,2.16745e-05,-2.77385e-06,1.13575e-05,9.87853e-06,-2.12448e-05,2.11862e-05,6.94309e-06,0
-3.09033e-05,2.33667e-05,-1.92312e-06,1.21319e-05,1.14383e-05,-2.10087e-05,2.02514e-05,7.8347e-06,0
-3.1098e-05,2.01945e-05,-1.7658e-06,1.06349e-05,1.22648e-05,-1.90276e-05,1.92469e-05,7.45879e-06,0
-3.10058e-05,1.40716e-05,-2.87105e-06,6.80756e-06,1.11843e-05,-1.6368e-05,1.89738e-05,5.09548e-06,0
-3.20071e-05,9.3797e-06,-4.74008e-06,-6.40693e-08,1.01585e-05,-1.38908e-05,1.72826e-05,2.35332e-06,0
-3.40744e-05,8.85943e-06,-6.02887e-06,-1.03879e-05,1.09446e-05,-1.2605e-05,1.25891e-05,1.88746e-06,0
-3.45507e-05,1.1917e-05,-6.60053e-06,-1.90037e-05,1.24407e-05,-1.19054e-05,6.16354e-06,2.46874e-06,0
-3.25495e-05,1.56303e-05,-6.90938e-06,-1.94645e-05,1.26165e-05,-1.10892e-05,5.20159e-08,2.34634e-06,0
-3.11087e-05,1.72673e-05,-7.16157e-06,-1.26224e-05,9.96276e-06,-1.0292e-05,-4.37738e-06,1.60723e-06,0
-3.09505e-05,1.78151e-05,-7.70387e-06,-4.91513e-06,6.12189e-06,-1.03988e-05,-6.30158e-06,1.52976e-06,0
-2.97086e-05,2.06961e-05,-7.86809e-06,-9.48647e-07,4.267e-06,-1.15903e-05,-4.23825e-06,1.1747e-06,0
-2.79662e-05,2.46593e-05,-6.41368e-06,2.236e-07,4.15744e-06,-1.2674e-05,-5.12453e-07,1.47239e-07,0
-2.81991e-05,2.66006e-05,-4.38756e-06,1.37329e-07,4.3988e-06,-1.2544e-05,2.0895e-06,-5.18489e-07,0
-2.98384e-05,2.75019e-05,-2.853e-06,-1.74084e-06,4.63875e-06,-1.27686e-05,3.74565e-06,-1.68239e-06,0
-3.07567e-05,2.79605e-05,-1.86946e-06,-4.01401e-06,5.70054e-06,-1.25017e-05,5.0484e-06,-2.25212e-06,0
-2.97662e-05,2.96636e-05,-2.2192e-06,-4.86767e-06,6.54578e-06,-1.02146e-05,5.06292e-06,-1.07454e-06,0
-2.91477e-05,3.12922e-05,-3.07171e-06,-5.09953e-06,6.77237e-06,-8.215e-06,5.23338e-06,-4.44572e-07,0
-2.89132e-05,3.08813e-05,-3.7064e-06,-5.74404e-06,7.55428e-06,-7.4136e-06,7.30742e-06,6.39842e-07,0
-2.70754e-05,2.97256e-05,-2.51512e-06,-7.19108e-06,1.00903e-05,-6.94697e-06,8.87043e-06,3.39662e-06,0
-2.53901e-05,2.86198e-05,-1.49397e-06,-9.09629e-06,1.40515e-05,-4.96079e-06,9.96114e-06,4.12333e-06,0
-2.45547e-05,2.7708e-05,-2.17012e-06,-1.08902e-05,1.64964e-05,-2.97441e-06,1.11362e-05,2.14237e-06,0
-2.52227e-05,2.548e-05,-2.79869e-06,-1.22952e-05,1.67721e-05,-2.31996e-06,1.09278e-05,6.23028e-07,0
-2.87518e-05,2.09245e-05,-5.22406e-06,-1.27672e-05,1.56938e-05,-2.05814e-06,8.95284e-06,1.53476e-06,0
-3.29654e-05,1.52726e-05,-7.6172e-06,-1.26706e-05,1.41818e-05,-2.85025e-06,8.65239e-06,2.2165e-06,0
-3.38267e-05,1.2152e-05,-8.67399e-06,-1.07601e-05,1.31904e-05,-5.37319e-06,1.11242e-05,1.03134e-06,0
-3.212e-05,1.30887e-05,-8.96582e-06,-7.62566e-06,1.39542e-05,-7.18861e-06,1.36611e-05,5.65953e-08,0
-3.10097e-05,1.42832e-05,-9.83721e-06,-5.52922e-06,1.45167e-05,-6.11218e-06,1.50036e-05,7.89876e-07,0
-3.11295e-05,1.41723e-05,-1.0943e-05,-4.56243e-06,1.29465e-05,-4.96993e-06,1.53484e-05,1.36434e-06,0
-3.231e-05,1.53137e-05,-1.15794e-05,-3.50286e-06,9.44912e-06,-5.46867e-06,1.54326e-05,1.57263e-06,0
-3.29018e-05,1.68329e-05,-1.14546e-05,-1.69845e-06,5.81531e-06,-6.26364e-06,1.63643e-05,2.88783e-06,0
-3.21686e-05,1.58931e-05,-9.9292e-06,-5.92093e-08,3.23984e-06,-6.65883e-06,1.98042e-05,4.58256e-06,0
-3.10002e-05,1.37251e-05,-8.44537e-06,1.18344e-06,2.87029e-06,-7.07073e-06,2.6566e-05,5.01851e-06,0
-2.97287e-05,1.286e-05,-7.57943e-06,1.79402e-06,4.93833e-06,-6.80553e-06,3.44565e-05,3.336e-06,0
-2.95947e-05,1.24204e-05,-6.66672e-06,1.83859e-06,7.37455e-06,-6.48613e-06,3.88341e-05,1.1499e-06,0
-3.04583e-05,1.09285e-05,-5.45747e-06,7.58845e-07,8.44337e-06,-6.88588e-06,3.90966e-05,-2.82669e-07,0
-3.05975e-05,9.10115e-06,-5.15805e-06,6.80671e-08,7.93203e-06,-7.05731e-06,3.50711e-05,-6.17443e-07,0
-3.10963e-05,7.84569e-06,-5.96249e-06,1.02966e-06,8.03386e-06,-7.07025e-06,2.75587e-05,-9.13294e-07,0
-3.14686e-05,7.23337e-06,-8.64815e-06,8.06874e-07,9.00242e-06,-7.28005e-06,2.01302e-05,-1.82181e-06,0
-3.10252e-05,7.2103e-06,-9.84182e-06,-2.64095e-06,9.4323e-06,-7.96558e-06,1.43078e-05,-1.97949e-06,0
-2.99483e-05,8.8087e-06,-9.1439e-06,-5.38659e-06,7.86838e-06,-9.53907e-06,9.04973e-06,-6.97428e-08,0
-2.9074e-05,1.16471e-05,-1.06331e-05,-3.87716e-06,6.11316e-06,-1.19751e-05,3.41101e-06,1.84545e-06,0
-3.09445e-05,1.3777e-05,-1.04534e-05,-1.05368e-06,6.94023e-06,-1.1656e-05,-3.06626e-06,1.17031e-06,0
-3.28963e-05,1.39237e-05,-7.26448e-06,3.87504e-07,1.27045e-05,-9.60551e-06,-1.09451e-05,-5.77218e-07,0
-3.30038e-05,1.36438e-05,-4.53532e-06,1.05404e-06,1.89726e-05,-8.95598e-06,-1.56169e-05,-9.19481e-08,0
-3.1982e-05,1.34906e-05,-2.01134e-06,3.72717e-07,2.21951e-05,-9.46743e-06,-1.25279e-05,3.86554e-06,0
-3.11727e-05,1.29042e-05,2.34626e-06,-1.68687e-07,2.2445e-05,-1.11584e-05,-2.55602e-07,6.34748e-06,0
-3.21723e-05,1.23127e-05,1.00738e-05,2.6919e-06,1.96134e-05,-1.33068e-05,1.58673e-05,6.6799e-06,0
-3.41409e-05,1.05189e-05,2.10997e-05,8.13608e-06,1.84193e-05,-1.57743e-05,2.70447e-05,7.40871e-06,0
-3.47952e-05,9.13087e-06,3.52584e-05,1.31556e-05,1.87034e-05,-1.62671e-05,3.2034e-05,8.1301e-06,0
-3.45062e-05,9.29281e-06,4.54201e-05,1.5809e-05,2.00694e-05,-1.55036e-05,3.31609e-05,9.12644e-06,0
-3.37053e-05,1.04222e-05,4.17697e-05,1.73991e-05,2.1414e-05,-1.53536e-05,3.25269e-05,8.46595e-06,0
-3.21316e-05,1.12708e-05,2.20073e-05,2.14171e-05,2.2161e-05,-1.66811e-05,2.69108e-05,6.03793e-06,0
-3.10019e-05,1.14939e-05,-1.00508e-05,2.66839e-05,2.20259e-05,-1.69184e-05,1.44579e-05,4.41221e-06,0
-3.05964e-05,1.16553e-05,-4.49723e-05,2.68869e-05,2.22905e-05,-1.44793e-05,-6.81714e-07,4.9939e-06,0
-3.07394e-05,1.22506e-05,-7.26052e-05,2.2205e-05,2.40635e-05,-1.14174e-05,-1.74453e-05,5.62474e-06,0
-3.03037e-05,1.34966e-05,-8.87705e-05,1.48094e-05,2.46422e-05,-9.86853e-06,-3.81852e-05,5.34774e-06,0
-2.90186e-05,1.47794e-05,-9.10868e-05,5.19504e-06,2.38589e-05,-9.82169e-06,-5.677e-05,4.98719e-06,0
-2.72388e-05,1.52002e-05,-7.92035e-05,-5.65803e-06,2.34338e-05,-8.42371e-06,-6.17962e-05,4.46868e-06,0
-2.65237e-05,1.53746e-05,-5.91884e-05,-1.55682e-05,2.39685e-05,-5.70064e-06,-4.94955e-05,3.81387e-06,0
-2.76032e-05,1.72871e-05,-3.87758e-05,-2.31924e-05,2.45297e-05,-3.7459e-06,-2.66157e-05,4.10673e-06,0
-2.9295e-05,2.02203e-05,-2.13787e-05,-2.921e-05,2.5976e-05,-3.53161e-06,-2.29149e-06,4.9299e-06,0
-3.06763e-05,2.20532e-05,-8.52066e-06,-3.53824e-05,2.69748e-05,-3.01258e-06,1.91167e-05,4.17939e-06,0
-3.19376e-05,2.10379e-05,-1.83184e-06,-4.41566e-05,2.61616e-05,-2.01682e-06,3.46079e-05,2.18456e-06,0
-3.18823e-05,1.89093e-05,2.91193e-07,-5.23692e-05,2.3552e-05,-2.08975e-06,4.1938e-05,1.83059e-06,0
-3.02164e-05,1.76923e-05,-1.68414e-06,-5.48554e-05,2.05938e-05,-4.21826e-06,4.24171e-05,3.72657e-06,0
-2.89604e-05,1.79276e-05,-5.90998e-06,-4.85184e-05,1.84313e-05,-4.88052e-06,3.89727e-05,4.77593e-06,0
-2.77558e-05,1.99324e-05,-1.2554e-05,-3.80601e-05,1.81712e-05,-3.94259e-06,2.97711e-05,3.19916e-06,0
-2.6159e-05,2.3433e-05,-2.03714e-05,-2.99208e-05,1.825e-05,-4.0962e-06,1.80258e-05,2.00641e-07,0
-2.56254e-05,2.51166e-05,-2.21626e-05,-2.39888e-05,1.89842e-05,-6.04816e-06,9.38987e-06,-1.2618e-06,0
-2.71749e-05,2.16351e-05,-1.49656e-05,-2.00693e-05,2.06108e-05,-7.56969e-06,6.61239e-06,-3.49472e-07,0
-2.88794e-05,1.66374e-05,-5.79439e-06,-1.72868e-05,1.92361e-05,-5.97707e-06,9.27088e-06,1.36263e-06,0
-2.90596e-05,1.23386e-05,-1.72847e-06,-1.59778e-05,1.74876e-05,-4.72948e-06,1.60113e-05,9.22316e-07,0
-2.76193e-05,1.08902e-05,-2.89398e-07,-1.50822e-05,1.79922e-05,-6.15947e-06,2.42251e-05,6.68927e-07,0
-2.70684e-05,1.46361e-05,1.73689e-06,-1.36361e-05,1.86143e-05,-8.98539e-06,3.05185e-05,2.072e-06,0
-2.74162e-05,1.8597e-05,4.27241e-06,-1.27272e-05,1.90105e-05,-1.09026e-05,3.549e-05,2.13747e-06,0
-2.71616e-05,1.96134e-05,4.19188e-06,-9.40299e-06,2.05005e-05,-1.02213e-05,3.74403e-05,3.50252e-07,0
-2.81338e-05,1.7275e-05,9.68011e-07,-3.1978e-06,2.12962e-05,-8.12055e-06,3.69899e-05,-1.17147e-06,0
-2.82541e-05,1.37498e-05,-2.03185e-06,2.59906e-06,2.07361e-05,-6.45569e-06,3.52795e-05,-7.54368e-07,0
-2.7659e-05,1.1174e-05,-3.13271e-06,6.18197e-06,1.99566e-05,-5.3292e-06,3.31576e-05,-5.75048e-07,0
-2.79448e-05,9.74064e-06,-2.84645e-06,8.5896e-06,1.87358e-05,-4.38369e-06,3.18046e-05,-2.5785e-06,0
-2.90525e-05,9.00016e-06,-1.76729e-06,8.39948e-06,1.6641e-05,-3.38653e-06,3.261e-05,-5.20416e-06,0
-3.00172e-05,8.72915e-06,-1.39681e-06,6.22501e-06,1.52802e-05,-2.8707e-06,3.47021e-05,-6.71321e-06,0
-3.11316e-05,7.08506e-06,-4.0804e-06,4.51e-06,1.49405e-05,-2.70465e-06,3.49855e-05,-6.7012e-06,0
-3.27509e-05,3.96257e-06,-7.91146e-06,2.75188e-06,1.33055e-05,-3.15e-06,3.25353e-05,-6.01848e-06,0
-3.30308e-05,3.00874e-06,-9.72666e-06,-3.64084e-07,1.06758e-05,-4.55669e-06,2.85008e-05,-6.5148e-06,0
-3.25321e-05,4.15368e-06,-9.84524e-06,-3.41046e-06,9.655e-06,-5.49361e-06,2.40039e-05,-7.34303e-06,0
-3.2431e-05,5.9469e-06,-9.63118e-06,-4.05894e-06,1.07037e-05,-5.65006e-06,1.89971e-05,-7.16552e-06,0
-3.21569e-05,8.52337e-06,-8.09136e-06,-3.9389e-06,1.15535e-05,-6.94695e-06,1.52e-05,-5.33734e-06,0
-3.08139e-05,1.14634e-05,-5.75722e-06,-4.6311e-06,1.20721e-05,-9.03695e-06,1.24832e-05,-3.48043e-06,0
-2.98057e-05,1.20908e-05,-4.1736e-06,-5.10969e-06,1.30527e-05,-1.00181e-05,8.38781e-06,-3.17173e-06,0
-2.97585e-05,1.13426e-05,-3.41723e-06,-2.79441e-06,1.39653e-05,-1.09774e-05,2.20351e-06,-3.84428e-06,0
-3.05249e-05,1.12288e-05,-2.98253e-06,1.14829e-06,1.46137e-05,-1.23249e-05,-3.61068e-06,-4.37584e-06,0
-3.07325e-05,1.16806e-05,-3.23906e-06,3.84719e-06,1.48271e-05,-1.09052e-05,-7.28191e-06,-4.29491e-06,0
-3.07e-05,1.12081e-05,-4.98558e-06,5.88545e-06,1.39547e-05,-7.88195e-06,-6.95516e-06,-3.59579e-06,0
-3.07333e-05,1.12678e-05,-7.01417e-06,6.32166e-06,1.18292e-05,-6.40162e-06,-1.91168e-06,-7.92527e-07,0
-2.89225e-05,1.44034e-05,-7.51689e-06,4.04767e-06,9.46648e-06,-5.53517e-06,3.38028e-06,1.94535e-06,0
-2.74385e-05,1.6681e-05,-8.99413e-06,2.12241e-06,7.72817e-06,-4.84945e-06,6.71427e-06,-3.21248e-08,0
-2.87638e-05,1.84128e-05,-1.07e-05,9.46689e-07,6.2056e-06,-6.03286e-06,9.13246e-06,-2.73256e-06,0
-3.01304e-05,2.20672e-05,-9.68441e-06,1.66734e-06,4.03384e-06,-7.40136e-06,8.85575e-06,-3.03877e-06,0
-3.01916e-05,2.4048e-05,-9.10302e-06,4.73343e-06,4.30191e-06,-7.0771e-06,8.40846e-06,-2.33567e-06,0
-3.06557e-05,2.60334e-05,-9.17766e-06,8.61244e-06,7.68572e-06,-5.82486e-06,1.02451e-05,-4.33475e-07,0
-3.13858e-05,2.98087e-05,-9.36245e-06,1.06542e-05,9.18084e-06,-4.64182e-06,1.31371e-05,2.33585e-07,0
-3.13307e-05,3.38332e-05,-8.6755e-06,9.7376e-06,8.04861e-06,-4.06052e-06,1.57568e-05,-2.73267e-07,0
-3.19951e-05,3.32332e-05,-7.40038e-06,6.98334e-06,7.80686e-06,-3.63471e-06,1.50998e-05,-8.18761e-07,0
-3.17072e-05,2.61952e-05,-5.39641e-06,3.12705e-06,1.08626e-05,-3.71816e-06,1.27111e-05,-1.36482e-06,0
-3.02679e-05,1.70123e-05,-2.65697e-06,-1.37075e-06,1.64756e-05,-4.03531e-06,1.18331e-05,-2.06106e-06,0
-3.041e-05,9.62585e-06,2.89848e-07,-6.14635e-06,2.2473e-05,-5.01338e-06,1.17638e-05,-1.84551e-06,0
-3.13967e-05,3.638e-06,3.11015e-06,-8.06648e-06,2.71802e-05,-6.49655e-06,1.11133e-05,-1.04425e-06,0
-3.17875e-05,-3.68257e-06,5.54403e-06,-4.97957e-06,3.0923e-05,-7.63391e-06,9.87708e-06,-7.35964e-07,0
-3.09301e-05,-1.02948e-05,7.40169e-06,-1.30018e-06,3.32962e-05,-8.21831e-06,8.11632e-06,1.38784e-08,0
-2.9993e-05,-1.40737e-05,6.99109e-06,-4.14019e-06,3.16222e-05,-8.59628e-06,6.68016e-06,2.5028e-06,0
-2.97716e-05,-1.37245e-05,4.11329e-06,-1.13277e-05,2.51233e-05,-9.91041e-06,6.31193e-06,4.45811e-06,0
-3.05774e-05,-9.70306e-06,-1.4221e-06,-1.64342e-05,1.75103e-05,-1.21036e-05,7.09428e-06,4.02527e-06,0
-3.1779e-05,-3.66193e-06,-9.3875e-06,-1.52579e-05,1.33063e-05,-1.39226e-05,8.7866e-06,3.43839e-06,0
-3.20436e-05,1.31398e-06,-1.86004e-05,-7.25133e-06,1.2916e-05,-1.38391e-05,1.00667e-05,3.83082e-06,0
-3.0395e-05,3.98058e-06,-2.44224e-05,3.31751e-06,1.29501e-05,-1.18138e-05,9.29014e-06,3.90719e-06,0
-2.86937e-05,4.91038e-06,-2.2891e-05,1.03582e-05,1.12872e-05,-9.36519e-06,7.39606e-06,2.44658e-06,0
-2.78649e-05,6.19285e-06,-1.59213e-05,1.10964e-05,9.28624e-06,-7.51982e-06,7.27637e-06,1.53442e-06,0
-2.70546e-05,7.76856e-06,-9.59658e-06,5.62416e-06,8.47696e-06,-6.8022e-06,8.64854e-06,1.26705e-06,0
-2.63036e-05,7.8753e-06,-6.21507e-06,-1.86323e-06,8.50072e-06,-7.26392e-06,9.80501e-06,-2.79188e-07,0
-2.7259e-05,6.84043e-06,-5.10247e-06,-7.51391e-06,1.01834e-05,-8.64597e-06,1.16376e-05,-2.5621e-06,0
-2.87868e-05,6.90321e-06,-4.84018e-06,-1.35455e-05,1.2965e-05,-9.83874e-06,1.33338e-05,-2.93785e-06,0
-2.92061e-05,6.76269e-06,-4.60764e-06,-2.27744e-05,1.19729e-05,-9.5445e-06,1.29543e-05,-2.23632e-06,0
-2.97371e-05,4.65845e-06,-5.27022e-06,-3.36765e-05,8.10353e-06,-8.89002e-06,1.03648e-05,-8.24645e-07,0
-3.10983e-05,2.69038e-06,-5.70669e-06,-3.74549e-05,4.22424e-06,-9.29547e-06,9.12574e-06,8.33789e-07,0
-3.22447e-05,1.73522e-06,-4.81146e-06,-3.07576e-05,2.52421e-06,-9.32816e-06,1.03379e-05,1.15746e-06,0
-3.17022e-05,2.40576e-06,-4.80272e-06,-1.93728e-05,3.55458e-06,-1.05676e-05,1.18991e-05,2.39701e-07,0
-3.09539e-05,3.09605e-06,-5.80126e-06,-5.37021e-06,3.01946e-06,-1.41678e-05,1.2679e-05,-3.41636e-06,0
-3.102e-05,1.04783e-06,-6.916e-06,8.90449e-06,-8.28054e-08,-1.65976e-05,1.29158e-05,-7.51085e-06,0
-3.10478e-05,-3.03853e-06,-7.0516e-06,1.88326e-05,-2.41973e-06,-1.64267e-05,1.4394e-05,-9.10368e-06,0
-3.11452e-05,-5.00102e-06,-6.0484e-06,2.25067e-05,-2.23961e-06,-1.45159e-05,1.57241e-05,-8.5528e-06,0
-3.05992e-05,-3.89356e-06,-5.1714e-06,1.78072e-05,-1.84112e-07,-1.29049e-05,1.61448e-05,-6.71046e-06,0
-2.9122e-05,-1.84736e-06,-4.23013e-06,7.49503e-06,2.64532e-06,-1.27642e-05,1.41859e-05,-4.99988e-06,0
-2.78916e-05,-7.6203e-07,-4.02645e-06,-3.1239e-06,3.69595e-06,-1.36747e-05,1.15539e-05,-3.11858e-06,0
-2.68026e-05,-1.86759e-06,-5.03653e-06,-1.25238e-05,2.45722e-06,-1.48794e-05,1.05295e-05,-1.77179e-06,0
-2.6561e-05,-5.2955e-06,-5.46929e-06,-1.87931e-05,6.14103e-07,-1.63136e-05,1.04453e-05,-1.95169e-06,0
-2.77823e-05,-7.74272e-06,-3.93555e-06,-1.93628e-05,-4.24864e-07,-1.81301e-05,1.10652e-05,-2.15903e-06,0
-2.91983e-05,-6.70393e-06,-2.22524e-06,-1.7018e-05,-3.37997e-07,-1.99735e-05,1.24806e-05,-1.42477e-06,0
-2.88166e-05,-2.96484e-06,-1.81783e-06,-1.70237e-05,1.38338e-06,-2.09633e-05,1.47937e-05,-7.13489e-07,0
-2.70639e-05,7.47855e-07,-3.40396e-06,-2.05819e-05,3.98312e-06,-2.02858e-05,1.69098e-05,-2.31515e-07,0
-2.683e-05,1.52779e-06,-5.73492e-06,-2.33259e-05,5.48916e-06,-1.87674e-05,1.80624e-05,6.51944e-07,0
-2.97894e-05,4.88766e-07,-7.24439e-06,-2.23124e-05,4.98641e-06,-1.92478e-05,1.78552e-05,1.31262e-06,0
-3.31451e-05,5.64451e-07,-8.43244e-06,-2.18657e-05,3.74596e-06,-2.18714e-05,1.65087e-05,1.916e-06,0
-3.40194e-05,2.73747e-06,-9.42752e-06,-2.3055e-05,3.11332e-06,-2.32428e-05,1.51141e-05,2.17648e-06,0
-3.28555e-05,6.30349e-06,-7.2532e-06,-2.05228e-05,2.60523e-06,-2.2187e-05,1.4305e-05,1.67358e-06,0
-3.17389e-05,8.85921e-06,-3.69104e-06,-1.38953e-05,3.10653e-06,-2.02632e-05,1.28334e-05,1.79466e-06,0
-3.16261e-05,8.94418e-06,-2.86879e-06,-6.96693e-06,5.54822e-06,-1.89031e-05,1.14718e-05,2.50134e-06,0
-3.23749e-05,5.95674e-06,-4.09734e-06,-1.42923e-06,8.85046e-06,-1.73265e-05,1.21199e-05,2.1429e-06,0
-3.39013e-05,-1.49243e-07,-4.57969e-06,2.60365e-06,1.01315e-05,-1.5171e-05,1.41416e-05,1.01838e-06,0
-3.50317e-05,-4.40415e-06,-4.48891e-06,5.81531e-06,9.88661e-06,-1.42055e-05,1.67e-05,1.52376e-07,0
-3.51214e-05,-2.26854e-06,-3.38602e-06,8.73091e-06,1.21522e-05,-1.60246e-05,1.82391e-05,4.28234e-08,0
-3.42874e-05,2.78224e-06,-1.26295e-06,1.30559e-05,1.44021e-05,-1.81046e-05,1.72563e-05,-1.03441e-06,0
-3.37336e-05,6.18924e-06,-3.4096e-07,1.59977e-05,1.33735e-05,-1.84366e-05,1.60981e-05,-2.34813e-06,0
-3.49392e-05,8.22889e-06,1.11864e-07,1.34562e-05,1.10275e-05,-1.69521e-05,1.60325e-05,-2.05574e-06,0
-3.62238e-05,9.25645e-06,-9.49157e-07,6.98062e-06,7.35819e-06,-1.43945e-05,1.70583e-05,-5.55798e-07,0
-3.60803e-05,1.06885e-05,-3.46095e-06,-1.64927e-06,4.52858e-06,-1.36061e-05,1.76262e-05,7.5041e-07,0
-3.50916e-05,1.13324e-05,-7.6026e-06,-1.06753e-05,3.94721e-06,-1.34255e-05,1.66834e-05,1.7999e-06,0
-3.44119e-05,1.19409e-05,-1.42339e-05,-1.66675e-05,5.87073e-06,-1.31143e-05,1.44985e-05,3.12178e-06,0
-3.40893e-05,1.52694e-05,-2.14022e-05,-1.98911e-05,9.55694e-06,-1.32166e-05,1.33577e-05,3.2319e-06,0
-3.26474e-05,1.97686e-05,-2.60832e-05,-2.03456e-05,1.29932e-05,-1.31523e-05,1.33083e-05,2.24332e-06,0
-3.12292e-05,2.27018e-05,-2.83982e-05,-1.62383e-05,1.53182e-05,-1.27015e-05,1.38547e-05,1.63827e-06,0
-3.04091e-05,2.26888e-05,-3.09427e-05,-1.08383e-05,1.58325e-05,-1.12434e-05,1.59654e-05,2.02687e-06,0
-2.96192e-05,2.23704e-05,-3.17623e-05,-9.55821e-06,1.63044e-05,-9.66323e-06,1.78861e-05,1.80883e-06,0
-2.94483e-05,2.41097e-05,-2.75293e-05,-1.19331e-05,1.73083e-05,-8.33644e-06,1.80881e-05,1.62756e-06,0
-3.04896e-05,2.75269e-05,-1.9508e-05,-1.40994e-05,1.74814e-05,-6.65922e-06,1.69907e-05,1.37593e-06,0
-3.15428e-05,3.08393e-05,-1.30468e-05,-1.49215e-05,1.62724e-05,-5.44825e-06,1.67514e-05,-3.03453e-07,0
-3.20254e-05,3.21703e-05,-1.12215e-05,-1.34263e-05,1.56132e-05,-5.81067e-06,1.60993e-05,-2.00735e-06,0
-3.20164e-05,3.03367e-05,-1.05518e-05,-8.69854e-06,1.59914e-05,-7.22903e-06,1.46425e-05,-2.28608e-06,0
-3.04322e-05,2.7855e-05,-7.29802e-06,-2.51851e-06,1.66965e-05,-7.21899e-06,1.30834e-05,-2.22675e-06,0
-2.7746e-05,2.7063e-05,-3.98742e-06,-6.94652e-07,1.80564e-05,-4.95652e-06,1.20298e-05,-3.89572e-06,0
-2.59805e-05,2.56402e-05,-3.07677e-06,-5.26611e-06,1.92293e-05,-2.79654e-06,1.23759e-05,-5.31865e-06,0
-2.63691e-05,2.27333e-05,-3.76992e-06,-1.26323e-05,1.97357e-05,-2.72627e-06,1.50981e-05,-3.30988e-06,0
-2.7795e-05,2.37538e-05,-5.19621e-06,-1.82509e-05,2.08435e-05,-4.55955e-06,1.76424e-05,4.94103e-07,0
-2.75171e-05,3.20344e-05,-5.78788e-06,-1.79878e-05,2.30525e-05,-6.18603e-06,1.75959e-05,2.8213e-06,0
-2.66732e-05,4.19113e-05,-6.62992e-06,-1.31483e-05,2.61788e-05,-6.85966e-06,1.59899e-05,2.07189e-06,0
-2.75905e-05,4.60465e-05,-7.6783e-06,-8.57095e-06,2.84346e-05,-7.05044e-06,1.42648e-05,1.2144e-06,0
-2.94231e-05,4.23949e-05,-1.03506e-05,-5.75773e-06,2.97049e-05,-6.91093e-06,1.19219e-05,1.71937e-06,0
-3.04615e-05,3.45612e-05,-1.42545e-05,-4.57269e-06,3.06766e-05,-6.85997e-06,9.45985e-06,-3.26754e-07,0
-3.10584e-05,2.45416e-05,-1.53859e-05,-2.51007e-06,3.07167e-05,-6.51781e-06,8.50452e-06,-4.70243e-06,0
-3.18115e-05,1.25344e-05,-1.48152e-05,1.52394e-06,3.1446e-05,-4.48335e-06,7.02361e-06,-7.08325e-06,0
-3.11637e-05,3.1098e-06,-1.31311e-05,5.0036e-06,3.24164e-05,-2.47072e-06,3.45946e-06,-4.933e-06,0
-2.97101e-05,-2.66562e-06,-1.11082e-05,7.8358e-06,3.18922e-05,-2.08302e-06,-1.94068e-06,-2.0958e-06,0
-2.73941e-05,-5.93292e-06,-7.3273e-06,1.03577e-05,3.07238e-05,-3.47937e-06,-6.86089e-06,-1.50045e-06,0
-2.69238e-05,-5.10773e-06,-5.5228e-07,1.35912e-05,2.99587e-05,-5.26324e-06,-7.11667e-06,-2.32855e-06,0
-2.89266e-05,1.31981e-06,8.26936e-06,1.52727e-05,2.84301e-05,-5.46711e-06,-1.95803e-06,-2.64177e-06,0
-3.07319e-05,1.23994e-05,1.86764e-05,1.2807e-05,2.57112e-05,-5.1328e-06,4.57348e-06,-1.44593e-06,0
-3.08954e-05,2.23712e-05,2.91614e-05,7.8154e-06,2.32518e-05,-4.72448e-06,1.01584e-05,-6.73896e-07,0
-3.04223e-05,2.5524e-05,3.62643e-05,2.68297e-06,2.13439e-05,-4.99047e-06,1.50646e-05,-1.30247e-06,0
-3.03496e-05,1.72287e-05,3.29338e-05,-9.48038e-07,1.80126e-05,-4.25707e-06,1.85652e-05,-2.05621e-06,0
-2.99552e-05,9.72674e-08,1.71442e-05,-4.01449e-06,1.3729e-05,-2.36815e-06,1.84834e-05,-9.81363e-07,0
-2.98249e-05,-1.66388e-05,-6.94573e-06,-7.1777e-06,1.18746e-05,-1.17486e-06,1.45021e-05,7.95923e-07,0
-3.00089e-05,-2.52845e-05,-3.19528e-05,-9.09216e-06,1.30623e-05,-2.38648e-06,9.11119e-06,1.64241e-06,0
-3.01848e-05,-2.29791e-05,-5.07743e-05,-1.05896e-05,1.4772e-05,-5.36085e-06,6.27342e-06,1.05121e-06,0
-2.94653e-05,-1.20524e-05,-5.83784e-05,-1.45602e-05,1.51343e-05,-7.99409e-06,6.81789e-06,2.44093e-07,0
-2.88247e-05,4.25517e-07,-5.58444e-05,-1.80269e-05,1.46552e-05,-9.43373e-06,8.34222e-06,-3.01532e-07,0
-2.82382e-05,5.4155e-06,-4.84722e-05,-1.66015e-05,1.42876e-05,-9.31498e-06,8.42599e-06,-9.0336e-07,0
-2.75419e-05,2.66582e-06,-3.8459e-05,-1.14112e-05,1.44275e-05,-8.44836e-06,7.77235e-06,-1.42116e-07,0
-2.79375e-05,-1.60374e-06,-2.75363e-05,-5.90504e-06,1.51279e-05,-7.50618e-06,7.79968e-06,1.66922e-06,0
-2.98329e-05,-2.56943e-06,-1.92144e-05,-1.70057e-06,1.55597e-05,-7.29738e-06,7.15686e-06,4.23569e-06,0
-3.12084e-05,9.00509e-07,-1.4201e-05,-4.12661e-07,1.53565e-05,-7.32374e-06,4.31346e-06,6.51905e-06,0
-3.08223e-05,5.77128e-06,-9.61012e-06,-1.28493e-06,1.54999e-05,-6.38821e-06,-1.95044e-07,7.84539e-06,0
-3.00674e-05,1.04553e-05,-6.07851e-06,-3.28773e-06,1.53372e-05,-5.48821e-06,-6.66374e-06,9.11737e-06,0
-3.07637e-05,1.51438e-05,-5.11335e-06,-6.24078e-06,1.44806e-05,-6.1714e-06,-2.37176e-05,8.736e-06,0
-3.05793e-05,2.00835e-05,-5.95715e-06,-8.27653e-06,1.22087e-05,-8.29749e-06,-4.85854e-05,6.3628e-06,0
-2.90308e-05,2.79438e-05,-7.82486e-06,-8.90918e-06,1.04639e-05,-1.0251e-05,-5.62607e-05,3.55343e-06,0
-2.72818e-05,3.86791e-05,-9.98074e-06,-7.19896e-06,1.10757e-05,-1.0313e-05,-4.06118e-05,3.24688e-06,0
-2.69004e-05,4.63438e-05,-1.07913e-05,-4.80339e-06,1.19054e-05,-1.0577e-05,-1.51453e-05,4.57662e-06,0
-2.8203e-05,4.60469e-05,-1.0926e-05,-1.92216e-06,1.40199e-05,-1.08018e-05,9.76085e-06,5.60155e-06,0
-2.81065e-05,4.01039e-05,-9.79052e-06,3.34453e-07,1.64114e-05,-1.14897e-05,2.74594e-05,7.42287e-06,0
-2.63271e-05,3.31004e-05,-8.23426e-06,-9.30628e-08,1.81737e-05,-1.15005e-05,3.95098e-05,8.14234e-06,0
-2.45448e-05,2.54665e-05,-7.30224e-06,-1.59978e-06,1.84781e-05,-1.02281e-05,4.57334e-05,7.60592e-06,0
-2.61516e-05,1.65304e-05,-6.03022e-06,-8.6425e-07,1.76466e-05,-9.64164e-06,4.73818e-05,6.20648e-06,0
-2.84555e-05,6.03922e-06,-4.44588e-06,7.54512e-07,1.83081e-05,-1.04566e-05,4.65984e-05,4.85172e-06,0
-2.92797e-05,-4.38683e-06,-2.93169e-06,1.80471e-06,2.11585e-05,-1.26268e-05,4.29905e-05,5.31022e-06,0
-2.93949e-05,-1.13204e-05,-2.2285e-06,2.76801e-06,2.38771e-05,-1.34234e-05,3.89308e-05,6.49413e-06,0
-2.88943e-05,-1.17812e-05,-1.28024e-06,1.41617e-06,2.31131e-05,-1.19668e-05,3.74293e-05,7.22748e-06,0
-2.83918e-05,-5.73397e-06,-2.00014e-07,-6.75489e-07,2.07904e-05,-9.84659e-06,3.65905e-05,7.75333e-06,0
-2.89972e-05,2.60794e-06,9.01532e-07,1.64299e-07,2.04746e-05,-8.54135e-06,3.35156e-05,7.56255e-06,0
-2.98493e-05,9.98293e-06,1.24413e-06,4.11156e-06,2.15539e-05,-7.81592e-06,2.92717e-05,7.17094e-06,0
-2.91222e-05,1.62307e-05,3.79237e-07,6.14255e-06,2.1296e-05,-7.40549e-06,2.52766e-05,6.49639e-06,0
-2.81458e-05,2.16186e-05,-1.18384e-06,5.08741e-06,1.92873e-05,-6.29182e-06,2.0744e-05,6.67361e-06,0
-2.76132e-05,2.46077e-05,-2.80773e-06,3.76948e-06,1.7078e-05,-4.67773e-06,1.52847e-05,8.01e-06,0
-2.7066e-05,2.5152e-05,-3.98021e-06,3.98022e-06,1.54959e-05,-2.88621e-06,1.09781e-05,8.14863e-06,0
-2.71912e-05,2.54739e-05,-4.15739e-06,3.55565e-06,1.22738e-05,-2.1192e-06,8.07642e-06,6.43713e-06,0
-2.8746e-05,2.7912e-05,-2.3345e-06,-3.59087e-07,8.80443e-06,-2.62113e-06,5.08177e-06,4.02604e-06,0
-2.98356e-05,3.20452e-05,1.0472e-06,-4.26701e-06,8.91414e-06,-3.50411e-06,2.10232e-06,3.36806e-06,0
-3.04257e-05,3.24452e-05,2.81235e-06,-3.37188e-06,1.12916e-05,-4.843e-06,1.26809e-06,4.3798e-06,0
-3.0394e-05,2.82673e-05,4.30472e-07,6.85178e-07,1.26125e-05,-6.89204e-06,3.70289e-06,4.43072e-06,0
-2.93606e-05,2.60127e-05,-3.10668e-06,3.80936e-06,1.07383e-05,-9.09865e-06,7.24713e-06,2.21429e-06,0
-2.81894e-05,2.66176e-05,-4.90069e-06,4.80657e-06,6.5746e-06,-1.00822e-05,9.58688e-06,8.10884e-07,0
-2.73593e-05,2.66064e-05,-3.90904e-06,5.45356e-06,3.58579e-06,-8.97206e-06,1.28811e-05,-1.05439e-06,0
-2.81452e-05,2.40846e-05,-2.43427e-06,4.82776e-06,-1.1119e-07,-8.00319e-06,1.97614e-05,-4.50431e-06,0
-3.00289e-05,2.03539e-05,-4.63426e-06,2.67889e-06,-3.93354e-06,-8.25057e-06,2.85429e-05,-6.18383e-06,0
-3.02712e-05,1.87836e-05,-5.71799e-06,-5.43986e-07,-5.30192e-06,-8.67875e-06,3.38534e-05,-4.35287e-06,0
-2.87404e-05,1.75902e-05,-3.14054e-06,-5.59201e-06,-5.60186e-06,-9.57649e-06,3.398e-05,-3.87574e-07,0
-2.80837e-05,1.79678e-05,-7.38823e-07,-1.20313e-05,-4.70906e-06,-8.74128e-06,3.04815e-05,3.07158e-07,0
-2.86916e-05,1.97327e-05,1.10446e-07,-1.93882e-05,-4.19566e-06,-6.80854e-06,2.68614e-05,-1.33109e-06,0
-3.07105e-05,1.82625e-05,-4.71541e-07,-2.28671e-05,-3.92856e-06,-5.36293e-06,2.23232e-05,-2.35578e-06,0
-3.28141e-05,1.48779e-05,-2.41108e-06,-2.12535e-05,-3.53827e-06,-4.90918e-06,1.71658e-05,-1.87461e-06,0
-3.30176e-05,1.31483e-05,-3.72689e-06,-1.59436e-05,-2.64877e-06,-6.18015e-06,1.00497e-05,-3.24802e-07,0
-3.25507e-05,1.55751e-05,-2.23412e-06,-9.408e-06,1.33316e-07,-7.68736e-06,-2.72698e-06,-7.38449e-07,0
-3.312e-05,1.96262e-05,-5.17873e-07,-2.69687e-06,4.30498e-06,-7.82161e-06,-1.73138e-05,-9.49576e-07,0
-3.39281e-05,2.14978e-05,-8.24735e-07,7.16611e-06,9.34846e-06,-7.0702e-06,-2.57086e-05,2.03633e-06,0
-3.29681e-05,2.03383e-05,-2.63272e-06,1.96735e-05,1.50669e-05,-6.93397e-06,-2.26125e-05,5.98867e-06,0
-3.13008e-05,1.73951e-05,-5.18228e-06,3.05714e-05,2.02145e-05,-6.8772e-06,-1.37468e-05,7.40417e-06,0
-3.04863e-05,1.30351e-05,-1.01467e-05,3.59587e-05,2.097e-05,-5.49678e-06,-5.10397e-06,6.50893e-06,0
-3.04977e-05,8.12137e-06,-1.70734e-05,3.2579e-05,1.71074e-05,-3.48448e-06,5.51011e-07,3.92779e-06,0
-3.10007e-05,5.07011e-06,-2.33222e-05,2.0968e-05,1.26659e-05,-2.62729e-06,3.64729e-06,3.08931e-07,0
-3.20395e-05,5.63297e-06,-2.7688e-05,7.91203e-06,9.85627e-06,-3.00841e-06,5.72145e-06,-1.90906e-06,0
-3.3332e-05,1.09412e-05,-2.99034e-05,-7.92084e-08,9.14496e-06,-3.98267e-06,9.67469e-06,-9.09579e-07,0
-3.40902e-05,1.89204e-05,-2.90928e-05,-5.10788e-06,1.00902e-05,-5.60028e-06,1.58573e-05,1.56787e-06,0
-3.30761e-05,2.63645e-05,-2.52824e-05,-1.27337e-05,1.13461e-05,-6.59877e-06,2.07325e-05,2.3597e-06,0
-3.13998e-05,3.03267e-05,-2.16858e-05,-2.19686e-05,1.2259e-05,-6.80584e-06,2.23224e-05,1.75868e-06,0
-3.10829e-05,3.04856e-05,-2.06353e-05,-3.0943e-05,1.35353e-05,-7.7179e-06,2.25196e-05,2.39303e-06,0
-3.15019e-05,2.64248e-05,-2.06514e-05,-3.91145e-05,1.41211e-05,-9.51027e-06,2.39087e-05,3.24978e-06,0
-3.29888e-05,1.38593e-05,-1.89711e-05,-4.30461e-05,1.25396e-05,-1.12233e-05,2.5351e-05,2.99641e-06,0
-3.5214e-05,-7.02606e-06,-1.50941e-05,-4.20222e-05,1.0238e-05,-1.21618e-05,2.59469e-05,3.1881e-06,0
-3.68104e-05,-2.73059e-05,-1.03769e-05,-3.57321e-05,1.1166e-05,-1.3553e-05,2.60627e-05,3.1926e-06,0
-3.62306e-05,-3.37277e-05,-1.49554e-06,-2.49684e-05,1.27024e-05,-1.38043e-05,2.44108e-05,2.52563e-06,0
-3.4191e-05,-2.62442e-05,1.31998e-05,-1.77757e-05,9.81064e-06,-1.141e-05,2.19677e-05,1.8632e-06,0
-3.27256e-05,-1.77054e-05,2.79508e-05,-1.68958e-05,4.46354e-06,-9.73229e-06,2.19414e-05,2.10759e-06,0
-3.22993e-05,-9.91338e-06,4.07327e-05,-1.69258e-05,2.00002e-06,-9.58068e-06,2.15675e-05,1.86077e-06,0
-3.30224e-05,-1.19191e-06,4.84283e-05,-1.36696e-05,4.07957e-06,-9.00152e-06,1.57359e-05,8.22215e-07,0
-3.3895e-05,7.58364e-06,4.58507e-05,-1.13251e-05,6.79684e-06,-8.02344e-06,4.94924e-06,4.6608e-07,0
-3.47978e-05,1.36715e-05,3.10241e-05,-1.22934e-05,9.54764e-06,-7.19332e-06,-5.4385e-06,7.31635e-07,0
-3.4811e-05,1.569e-05,3.78714e-06,-1.31453e-05,1.21214e-05,-6.4618e-06,-9.52834e-06,1.13279e-06,0
-3.37107e-05,1.51455e-05,-3.03299e-05,-1.27133e-05,1.35815e-05,-6.93357e-06,-6.12349e-06,2.45276e-06,0
-3.27076e-05,1.32345e-05,-5.88876e-05,-1.16079e-05,1.51506e-05,-8.03784e-06,-1.70733e-06,4.02555e-06,0
-3.30316e-05,1.08941e-05,-7.36943e-05,-1.12484e-05,1.7858e-05,-7.96723e-06,1.38128e-06,4.34486e-06,0
-3.40717e-05,8.65871e-06,-7.37296e-05,-1.1407e-05,2.00986e-05,-7.32967e-06,5.55808e-06,3.60675e-06,0
-3.36742e-05,8.22096e-06,-6.36527e-05,-1.01478e-05,2.04359e-05,-7.61375e-06,1.15863e-05,2.69559e-06,0
-3.22484e-05,9.82585e-06,-5.09203e-05,-6.90541e-06,2.02737e-05,-9.03473e-06,1.85385e-05,2.92896e-06,0
-3.15641e-05,1.32134e-05,-3.91014e-05,-2.66172e-06,2.0592e-05,-1.04094e-05,2.46994e-05,3.60876e-06,0
-3.21568e-05,1.65098e-05,-2.92935e-05,2.03816e-06,1.98046e-05,-1.08937e-05,2.8778e-05,3.65566e-06,0
-3.24463e-05,1.89698e-05,-1.99555e-05,5.54112e-06,1.78956e-05,-1.04129e-05,3.0851e-05,2.70283e-06,0
-3.14225e-05,1.99022e-05,-1.00486e-05,8.16551e-06,1.75098e-05,-9.86427e-06,3.20128e-05,1.50572e-06,0
-2.98424e-05,1.98784e-05,-1.86183e-06,1.08126e-05,1.77136e-05,-1.01076e-05,3.29562e-05,1.0906e-06,0
-2.96291e-05,2.01847e-05,2.69294e-06,1.18174e-05,1.73798e-05,-1.13911e-05,3.31985e-05,1.16119e-06,0
-3.06977e-05,2.12112e-05,3.83689e-06,9.72014e-06,1.76142e-05,-1.25073e-05,3.28818e-05,1.72867e-06,0
-3.11759e-05,2.19711e-05,1.43655e-06,5.52614e-06,2.10033e-05,-1.19539e-05,3.47662e-05,3.16883e-06,0
-3.07147e-05,2.18369e-05,-1.01088e-06,-4.11122e-07,2.63289e-05,-9.80458e-06,3.77104e-05,3.96063e-06,0
-3.03927e-05,2.07322e-05,-4.10092e-07,-6.97213e-06,2.702e-05,-7.27189e-06,3.72106e-05,4.48304e-06,0
-3.03733e-05,1.97734e-05,5.42871e-07,-1.24167e-05,2.10543e-05,-7.32975e-06,3.30783e-05,5.21415e-06,0
-3.03843e-05,2.14676e-05,-8.61428e-07,-1.36311e-05,1.4803e-05,-9.66492e-06,2.97724e-05,5.4917e-06,0
-2.94237e-05,2.49715e-05,-3.20466e-06,-9.82518e-06,1.09908e-05,-1.22823e-05,2.74635e-05,4.89438e-06,0
-2.91608e-05,2.70977e-05,-3.61257e-06,-7.86472e-06,9.58493e-06,-1.38877e-05,2.5364e-05,2.83336e-06,0
-2.97896e-05,2.65662e-05,-1.93011e-06,-8.22e-06,9.75225e-06,-1.39208e-05,2.43648e-05,1.83603e-06,0
-2.841e-05,2.38137e-05,-5.92171e-07,-6.9868e-06,9.68458e-06,-1.30863e-05,2.18818e-05,3.23928e-06,0
-2.44132e-05,2.2939e-05,-3.07246e-07,-4.74953e-06,1.02619e-05,-1.13445e-05,1.90456e-05,4.90209e-06,0
-2.11524e-05,2.73773e-05,1.56175e-06,-3.20069e-06,8.73791e-06,-9.93531e-06,1.53666e-05,4.11247e-06,0
-2.16713e-05,3.25223e-05,5.8202e-06,-2.07884e-06,5.6635e-06,-9.62846e-06,1.24529e-05,1.65941e-06,0
-2.26057e-05,3.29957e-05,1.00267e-05,-1.10623e-06,1.77692e-06,-9.87959e-06,1.25834e-05,-4.11461e-08,0
-2.39024e-05,2.72158e-05,1.09009e-05,-6.48843e-07,-6.91224e-07,-9.69306e-06,1.58159e-05,-1.46016e-07,0
-2.51995e-05,1.97639e-05,6.86087e-06,-1.57725e-06,4.56436e-07,-9.92301e-06,2.02174e-05,-8.71854e-07,0
-2.57546e-05,1.47203e-05,-1.32147e-06,-2.26433e-06,3.07015e-06,-1.02764e-05,2.0642e-05,-3.1655e-06,0
-2.66039e-05,1.07177e-05,-1.16449e-05,-7.08196e-07,4.4437e-06,-1.05288e-05,1.68972e-05,-4.89911e-06,0
-2.80293e-05,6.36879e-06,-2.04219e-05,9.8414e-07,3.06841e-06,-1.14801e-05,1.19354e-05,-5.66533e-06,0
-2.91767e-05,5.13183e-06,-2.24269e-05,2.22421e-06,2.1814e-06,-1.21241e-05,8.75584e-06,-4.10194e-06,0
-3.00976e-05,8.12291e-06,-1.84343e-05,2.9924e-06,4.04575e-06,-1.14888e-05,5.92486e-06,-9.15519e-07,0
-3.0931e-05,1.19131e-05,-1.31982e-05,2.78663e-06,7.64226e-06,-1.00246e-05,3.41212e-06,7.02549e-07,0
-3.05559e-05,1.27872e-05,-9.5682e-06,1.32225e-06,1.02807e-05,-1.00125e-05,1.55294e-06,-3.55586e-07,0
-2.9984e-05,8.33206e-06,-7.56467e-06,8.84496e-07,1.18969e-05,-1.06427e-05,2.89621e-07,-9.51731e-07,0
-2.92651e-05,1.04554e-06,-7.12124e-06,1.26985e-06,1.23093e-05,-1.03324e-05,-4.16988e-06,3.4322e-07,0
-2.9009e-05,-4.35196e-06,-8.41379e-06,2.93501e-07,1.05347e-05,-1.03669e-05,-1.70355e-05,1.12432e-06,0
-2.93132e-05,-5.24773e-06,-1.049e-05,-1.09979e-06,7.38643e-06,-1.11689e-05,-3.38611e-05,-4.39956e-07,0
-2.93026e-05,-3.01662e-06,-1.21981e-05,-1.78555e-06,5.40966e-06,-1.14266e-05,-4.16471e-05,-3.39217e-06,0
-2.89385e-05,1.29664e-07,-1.15617e-05,-3.41982e-06,5.83597e-06,-1.11096e-05,-3.42166e-05,-3.87324e-06,0
-2.98507e-05,3.79915e-06,-7.36851e-06,-5.69308e-06,6.42945e-06,-1.15856e-05,-1.85598e-05,-2.23409e-06,0
-3.01715e-05,6.40046e-06,-2.70614e-06,-6.02716e-06,5.31991e-06,-1.28933e-05,-2.6657e-06,-1.55137e-06,0
-2.9554e-05,5.55393e-06,-2.35687e-06,-5.89836e-06,3.40001e-06,-1.32164e-05,9.15288e-06,-2.22221e-06,0
-2.8639e-05,2.84311e-06,-4.58228e-06,-5.85759e-06,3.17337e-06,-1.25439e-05,1.55742e-05,-3.9353e-06,0
-2.86993e-05,-3.387e-07,-8.10046e-06,-6.29605e-06,4.59035e-06,-1.12352e-05,1.99297e-05,-3.58748e-06,0
-3.03537e-05,-2.65343e-06,-9.98688e-06,-6.57838e-06,3.87513e-06,-1.08133e-05,2.55295e-05,-1.03004e-06,0
-3.08719e-05,-1.41466e-06,-8.26924e-06,-6.38596e-06,2.52148e-06,-1.25172e-05,3.00865e-05,-6.37964e-07,0
-3.05273e-05,3.23709e-06,-6.87918e-06,-4.92781e-06,4.89843e-06,-1.37071e-05,3.07876e-05,-9.5988e-07,0
-2.90194e-05,6.9161e-06,-6.0107e-06,-1.10586e-06,1.10093e-05,-1.29088e-05,2.64151e-05,-7.69281e-07,0
-2.82072e-05,7.26238e-06,-4.60972e-06,6.59824e-06,1.89766e-05,-1.07157e-05,1.9182e-05,-7.59695e-07,0
-2.86646e-05,4.95491e-06,-3.28763e-06,1.50877e-05,2.37882e-05,-9.748e-06,1.42625e-05,-8.65304e-07,0
-3.00125e-05,1.45212e-06,-1.58687e-06,1.67649e-05,2.28302e-05,-1.1233e-05,1.5289e-05,-8.25968e-07,0
-3.1665e-05,1.8145e-06,-5.60454e-07,1.20093e-05,1.92679e-05,-1.21528e-05,1.98992e-05,-1.61149e-06,0
-3.26087e-05,1.15112e-05,-8.29222e-07,6.54252e-06,1.57316e-05,-1.22275e-05,2.3645e-05,-3.52937e-06,0
-3.14417e-05,2.76426e-05,-1.2429e-06,4.03038e-06,1.31454e-05,-1.17642e-05,2.42608e-05,-5.2452e-06,0
-2.82731e-05,4.05935e-05,-3.25338e-07,2.49262e-06,1.21253e-05,-1.02211e-05,2.11114e-05,-5.6528e-06,0
-2.51597e-05,4.58669e-05,3.10956e-06,1.09521e-06,1.15702e-05,-9.25262e-06,1.60782e-05,-5.115e-06,0
-2.40622e-05,4.52083e-05,7.06233e-06,-1.09744e-07,1.22099e-05,-9.35135e-06,1.13675e-05,-4.96507e-06,0
-2.62709e-05,4.082e-05,9.74025e-06,-1.19347e-07,1.49398e-05,-9.32213e-06,7.91027e-06,-4.74512e-06,0
-2.99811e-05,3.38685e-05,1.08046e-05,1.35566e-08,1.82666e-05,-8.40935e-06,7.2338e-06,-4.58794e-06,0
-3.27442e-05,2.59879e-05,1.02248e-05,-1.90981e-06,1.93075e-05,-7.04838e-06,8.81054e-06,-4.64522e-06,0
-3.27778e-05,1.64108e-05,6.36982e-06,-4.81546e-06,1.76611e-05,-5.86333e-06,9.84441e-06,-3.87942e-06,0
-3.18189e-05,3.49119e-06,-1.30196e-07,-7.59248e-06,1.54982e-05,-5.91308e-06,9.34473e-06,-1.84345e-06,0
-3.18884e-05,-1.12015e-05,-7.34001e-06,-1.08537e-05,1.63321e-05,-6.5822e-06,7.2658e-06,2.55893e-07,0
-3.26699e-05,-2.30416e-05,-1.58173e-05,-1.4804e-05,2.03422e-05,-6.74732e-06,3.59816e-06,1.21316e-06,0
-3.27241e-05,-2.75905e-05,-2.41427e-05,-1.86425e-05,2.29339e-05,-6.08981e-06,1.55618e-06,9.032e-07,0
-3.34533e-05,-2.51211e-05,-2.70545e-05,-2.52197e-05,2.09416e-05,-5.3153e-06,3.53268e-06,-2.50855e-07,0
-3.56015e-05,-1.87009e-05,-2.1612e-05,-3.39863e-05,1.62104e-05,-5.59055e-06,6.90531e-06,-1.85279e-06,0
-3.82287e-05,-1.04707e-05,-1.12626e-05,-3.90526e-05,1.3225e-05,-6.63973e-06,8.05414e-06,-2.56789e-06,0
-3.92195e-05,-2.16012e-06,-3.77589e-06,-3.67004e-05,1.25611e-05,-6.92161e-06,5.64837e-06,-3.29864e-06,0
-3.88706e-05,4.66152e-06,-3.01931e-06,-3.02469e-05,1.32037e-05,-6.69903e-06,2.02381e-06,-4.15365e-06,0
-3.76299e-05,8.78933e-06,-5.92457e-06,-2.70582e-05,1.23525e-05,-7.13729e-06,7.16221e-07,-5.45664e-06,0
-3.46018e-05,1.15192e-05,-1.13464e-05,-2.83459e-05,1.09472e-05,-8.07005e-06,2.77771e-06,-4.98966e-06,0
-3.27908e-05,1.64391e-05,-1.96041e-05,-2.86434e-05,1.13023e-05,-8.18724e-06,6.09378e-06,-2.18424e-06,0
-3.18988e-05,2.15554e-05,-2.65216e-05,-2.74699e-05,1.23173e-05,-7.35676e-06,1.05976e-05,-1.40156e-06,0
-3.2835e-05,2.25524e-05,-2.80138e-05,-2.47918e-05,1.17458e-05,-8.36112e-06,1.45683e-05,-1.23863e-06,0
-3.51722e-05,2.21881e-05,-2.68491e-05,-1.93218e-05,9.70795e-06,-9.96978e-06,1.37695e-05,-1.92397e-06,0
-3.53634e-05,2.18792e-05,-2.39302e-05,-1.31952e-05,8.78693e-06,-1.02128e-05,9.27474e-06,-3.64861e-06,0
-3.38879e-05,2.21836e-05,-1.94056e-05,-9.21562e-06,8.53085e-06,-1.10659e-05,7.24723e-06,-4.53323e-06,0
-3.3085e-05,2.39403e-05,-1.54695e-05,-7.43565e-06,8.19344e-06,-1.18469e-05,9.55481e-06,-4.41801e-06,0
-3.31906e-05,2.55837e-05,-1.33856e-05,-5.36934e-06,7.02747e-06,-1.151e-05,1.26108e-05,-4.16436e-06,0
-3.27849e-05,2.74494e-05,-1.20854e-05,-2.16283e-06,6.7784e-06,-1.0051e-05,1.37354e-05,-4.48027e-06,0
-3.19828e-05,2.93387e-05,-1.00485e-05,2.07572e-07,8.15791e-06,-8.01941e-06,1.321e-05,-4.0437e-06,0
-3.07163e-05,3.04053e-05,-8.0081e-06,-1.96533e-07,9.72776e-06,-7.2467e-06,1.4188e-05,-2.20849e-06,0
-2.9286e-05,2.99394e-05,-6.64703e-06,-1.07775e-06,1.08779e-05,-7.47947e-06,1.64156e-05,2.18197e-07,0
-2.91728e-05,2.92634e-05,-6.92868e-06,-1.29568e-06,1.14832e-05,-7.82958e-06,1.83654e-05,2.37678e-06,0
-2.99003e-05,2.91537e-05,-8.57961e-06,-2.18633e-06,1.08906e-05,-7.54154e-06,2.00169e-05,3.74456e-06,0
-3.01263e-05,2.92504e-05,-1.02995e-05,-3.1104e-06,8.21853e-06,-7.34146e-06,2.12483e-05,3.85643e-06,0
-3.00312e-05,2.8613e-05,-9.69029e-06,-1.63123e-06,6.47005e-06,-7.73227e-06,2.01644e-05,3.1429e-06,0
-2.9674e-05,2.67718e-05,-6.53238e-06,3.45943e-06,7.15789e-06,-7.83419e-06,1.61612e-05,2.69218e-06,0
-2.97581e-05,2.41958e-05,-3.26036e-06,1.12787e-05,7.91257e-06,-6.885e-06,1.21832e-05,2.12372e-06,0
-3.14184e-05,2.22718e-05,-3.06572e-06,2.07881e-05,6.78679e-06,-6.70737e-06,1.02066e-05,1.51436e-06,0
-3.34571e-05,2.17469e-05,-5.07971e-06,3.0345e-05,5.00887e-06,-8.21378e-06,8.28613e-06,2.76344e-06,0
-3.4248e-05,2.37636e-05,-6.06687e-06,3.64006e-05,3.94955e-06,-8.77516e-06,3.8341e-06,4.7761e-06,0
-3.33328e-05,2.94113e-05,-6.37449e-06,3.7793e-05,4.59055e-06,-8.01132e-06,-1.99427e-06,5.13068e-06,0
-3.1662e-05,3.60085e-05,-7.67983e-06,3.53471e-05,5.54799e-06,-7.96447e-06,-4.10864e-06,5.19605e-06,0
-2.98098e-05,3.96967e-05,-9.35763e-06,3.07623e-05,5.18093e-06,-8.25644e-06,-8.86486e-07,6.06462e-06,0
-2.81386e-05,3.76224e-05,-1.01784e-05,2.53158e-05,6.55361e-06,-7.75304e-06,3.377e-06,7.21848e-06,0
-2.58925e-05,3.0382e-05,-8.10108e-06,1.21296e-05,1.15209e-05,-6.32701e-06,6.2937e-06,8.33765e-06,0
-2.5079e-05,2.01416e-05,-5.7998e-06,-1.05689e-05,1.56032e-05,-5.29041e-06,7.641e-06,9.49272e-06,0
-2.657e-05,1.17305e-05,-4.84807e-06,-2.6407e-05,1.42798e-05,-5.83383e-06,8.78172e-06,1.051e-05,0
-2.66949e-05,8.5326e-06,-1.30433e-06,-2.66085e-05,1.14243e-05,-6.36422e-06,8.68315e-06,1.08134e-05,0
-2.5974e-05,9.74578e-06,7.29766e-06,-1.72796e-05,1.08145e-05,-7.309e-06,7.78896e-06,1.21095e-05,0
-2.61601e-05,1.20666e-05,2.03084e-05,-6.83476e-06,1.39878e-05,-9.83766e-06,7.96707e-06,1.36237e-05,0
-2.66432e-05,1.25043e-05,3.20546e-05,-2.638e-06,1.98236e-05,-1.22104e-05,1.15924e-05,1.39301e-05,0
-2.53226e-05,1.1479e-05,4.02325e-05,-5.4974e-06,2.35414e-05,-1.24366e-05,1.71088e-05,1.13035e-05,0
-2.43227e-05,1.04568e-05,3.94669e-05,-1.24412e-05,2.32797e-05,-1.19565e-05,1.93246e-05,6.98361e-06,0
-2.42989e-05,1.11688e-05,2.71967e-05,-2.10853e-05,2.17601e-05,-1.19051e-05,1.77164e-05,5.55352e-06,0
-2.43026e-05,1.21389e-05,5.48005e-06,-2.94276e-05,2.15197e-05,-1.25536e-05,1.57446e-05,6.90727e-06,0
-2.51062e-05,1.07644e-05,-1.94786e-05,-3.3497e-05,2.01787e-05,-1.32373e-05,1.68839e-05,8.94214e-06,0
-2.69655e-05,7.70003e-06,-3.83955e-05,-2.9352e-05,1.55697e-05,-1.39926e-05,1.96454e-05,8.47364e-06,0
-2.8678e-05,5.10218e-06,-4.51324e-05,-1.47544e-05,1.02326e-05,-1.44951e-05,2.1475e-05,5.67623e-06,0
-2.82121e-05,3.58399e-06,-4.19675e-05,4.75321e-06,7.9203e-06,-1.4606e-05,2.1835e-05,3.49483e-06,0
-2.61361e-05,2.5037e-06,-3.754e-05,1.73087e-05,8.47131e-06,-1.47269e-05,2.24568e-05,3.86979e-06,0
-2.41416e-05,1.37059e-06,-3.44051e-05,1.538e-05,9.85828e-06,-1.5085e-05,2.25804e-05,4.79116e-06,0
-2.3984e-05,-5.72434e-07,-3.35763e-05,3.48487e-06,1.04105e-05,-1.52384e-05,2.14404e-05,4.06094e-06,0
-2.48723e-05,-3.33742e-06,-3.6185e-05,-7.71635e-06,9.9282e-06,-1.42598e-05,2.04363e-05,2.55217e-06,0
-2.56272e-05,-5.4784e-06,-4.00785e-05,-1.26404e-05,9.29767e-06,-1.21554e-05,2.08301e-05,2.6658e-06,0
-2.59289e-05,-6.68291e-06,-3.95374e-05,-1.2195e-05,9.13418e-06,-1.00987e-05,2.13687e-05,4.96661e-06,0
-2.74579e-05,-7.72675e-06,-3.39482e-05,-1.15279e-05,1.02705e-05,-1.07089e-05,2.00424e-05,7.35908e-06,0
-2.89416e-05,-8.60477e-06,-2.55526e-05,-1.34078e-05,1.26357e-05,-1.18032e-05,1.72553e-05,8.79295e-06,0
-2.85331e-05,-8.63879e-06,-1.78334e-05,-1.78649e-05,1.43097e-05,-1.15141e-05,1.54273e-05,8.31858e-06,0
-2.78446e-05,-8.41428e-06,-1.27354e-05,-2.5383e-05,1.49683e-05,-1.03761e-05,1.52099e-05,5.9639e-06,0
-2.74923e-05,-9.09612e-06,-1.08175e-05,-3.40606e-05,1.59072e-05,-1.0518e-05,1.58266e-05,3.70039e-06,0
-2.84456e-05,-8.59994e-06,-1.15801e-05,-4.00542e-05,1.68698e-05,-1.18122e-05,1.64899e-05,4.42478e-06,0
-2.97254e-05,-4.53337e-06,-1.24266e-05,-3.96817e-05,1.77041e-05,-1.20019e-05,1.54602e-05,5.05718e-06,0
-2.94391e-05,-9.54212e-07,-1.16343e-05,-3.33877e-05,1.89147e-05,-1.0272e-05,1.55197e-05,3.13984e-06,0
-2.97069e-05,-3.41021e-07,-9.36826e-06,-2.29787e-05,1.95163e-05,-9.42562e-06,1.76089e-05,1.9333e-06,0
-2.98603e-05,-2.10103e-07,-7.49267e-06,-1.17407e-05,1.95321e-05,-9.09668e-06,1.85725e-05,3.18861e-06,0
-2.96038e-05,1.76227e-07,-6.93902e-06,-5.46354e-06,2.06338e-05,-7.71399e-06,1.022e-05,3.775e-06,0
-3.00175e-05,1.29768e-06,-6.11352e-06,-1.77365e-06,2.12892e-05,-7.70026e-06,-1.26641e-05,1.79673e-06,0
-2.89434e-05,3.53257e-06,-3.99398e-06,-9.01773e-07,2.08511e-05,-6.43859e-06,-3.41055e-05,8.84722e-07,0
-2.69557e-05,7.65296e-06,-7.73255e-07,-1.53276e-06,1.94142e-05,-4.44262e-06,-3.51186e-05,6.80004e-07,0
-2.67006e-05,1.13769e-05,1.52117e-06,-5.3665e-08,1.83259e-05,-2.52248e-06,-1.68921e-05,4.43035e-07,0
-2.86553e-05,1.45474e-05,1.30702e-06,5.88486e-07,1.89137e-05,-1.11127e-06,8.12635e-06,9.19803e-07,0
-3.02457e-05,1.74112e-05,1.30113e-06,-1.23411e-07,2.03188e-05,-2.0338e-06,2.93835e-05,1.75862e-06,0
-3.11289e-05,1.92621e-05,1.17042e-06,1.38103e-07,2.2025e-05,-3.72889e-06,4.28985e-05,1.99102e-06,0
-3.10311e-05,1.9943e-05,-6.711e-08,1.62703e-06,2.13435e-05,-6.40392e-06,5.15532e-05,1.7332e-07,0
-3.04448e-05,1.99719e-05,-1.67511e-06,3.62447e-06,1.93261e-05,-9.29101e-06,5.52566e-05,-1.80425e-06,0
-3.16041e-05,1.98894e-05,-2.53236e-06,5.72367e-06,1.90286e-05,-1.09607e-05,5.22746e-05,-2.26809e-06,0
-3.33483e-05,1.82141e-05,-2.60825e-06,6.21299e-06,2.04594e-05,-1.1931e-05,4.56527e-05,-2.0971e-06,0
-3.33307e-05,1.64434e-05,-2.04456e-06,5.26285e-06,2.293e-05,-1.24502e-05,4.01505e-05,-3.04007e-06,0
-3.22779e-05,1.54773e-05,-1.62548e-06,4.32441e-06,2.52623e-05,-1.20414e-05,4.04125e-05,-4.2964e-06,0
-3.23947e-05,1.47571e-05,-1.29805e-06,5.53673e-06,2.59692e-05,-1.10195e-05,4.75354e-05,-4.57149e-06,0
-3.3882e-05,1.40533e-05,-1.92148e-07,1.02059e-05,2.52749e-05,-9.84239e-06,5.64307e-05,-4.06808e-06,0
-3.47464e-05,1.41411e-05,1.49861e-06,1.74417e-05,2.45966e-05,-9.91465e-06,5.8732e-05,-3.58781e-06,0
-3.38456e-05,1.34771e-05,2.15193e-06,2.16856e-05,2.3233e-05,-1.31884e-05,5.17465e-05,-3.44401e-06,0
-3.24432e-05,1.36829e-05,1.60815e-06,2.13605e-05,2.04367e-05,-1.73895e-05,3.86208e-05,-2.72537e-06,0
-3.18747e-05,1.5282e-05,1.31439e-06,2.06615e-05,1.75953e-05,-1.79345e-05,2.27599e-05,-2.85099e-06,0
-3.20333e-05,1.58833e-05,1.79843e-06,1.85861e-05,1.57908e-05,-1.50526e-05,5.50498e-06,-4.17023e-06,0
-3.17321e-05,1.55648e-05,2.73398e-06,1.42714e-05,1.34863e-05,-1.31687e-05,-1.39e-05,-4.555e-06,0
-3.11181e-05,1.38584e-05,1.75989e-06,8.89682e-06,1.15893e-05,-1.3477e-05,-3.98803e-05,-4.80486e-06,0
-3.15479e-05,1.20188e-05,-8.77172e-07,1.40028e-06,8.83767e-06,-1.46476e-05,-7.03601e-05,-5.74401e-06,0
-3.21241e-05,1.22273e-05,-4.96804e-06,-5.61849e-06,4.58051e-06,-1.52656e-05,-8.72175e-05,-6.36898e-06,0
-3.22537e-05,1.30656e-05,-1.03106e-05,-9.90188e-06,2.63073e-06,-1.5263e-05,-8.13184e-05,-6.24745e-06,0
-3.25982e-05,1.25789e-05,-1.32958e-05,-1.49401e-05,3.84904e-06,-1.47971e-05,-5.88121e-05,-4.24288e-06,0
-3.32227e-05,1.17855e-05,-1.32313e-05,-2.15035e-05,7.73782e-06,-1.40559e-05,-2.75306e-05,-1.85374e-06,0
-3.4137e-05,9.09033e-06,-1.23848e-05,-2.47193e-05,1.15976e-05,-1.34825e-05,-3.02862e-07,-7.39047e-07,0
-3.36821e-05,4.62591e-06,-1.31993e-05,-2.28859e-05,1.43181e-05,-1.32065e-05,1.78987e-05,8.05496e-08,0
-3.32494e-05,3.46695e-06,-1.48185e-05,-1.91344e-05,1.49741e-05,-1.24899e-05,2.70689e-05,-3.65863e-07,0
-3.38512e-05,5.54389e-06,-1.47555e-05,-1.59464e-05,1.53766e-05,-1.18066e-05,2.81379e-05,-4.2532e-07,0
-3.41595e-05,6.56512e-06,-1.46203e-05,-1.52786e-05,1.59577e-05,-1.22719e-05,2.70485e-05,3.57017e-07,0
-3.26922e-05,5.32748e-06,-1.46824e-05,-1.53097e-05,1.62153e-05,-1.23833e-05,2.69108e-05,5.52913e-07,0
-3.03442e-05,2.85221e-06,-1.47726e-05,-1.32691e-05,1.63771e-05,-1.15512e-05,2.64406e-05,4.52252e-07,0
-2.98655e-05,1.74139e-06,-1.48528e-05,-1.01338e-05,1.541e-05,-9.1772e-06,2.39132e-05,-3.04469e-07,0
-3.0417e-05,2.50668e-06,-1.44303e-05,-6.90749e-06,1.50041e-05,-6.503e-06,2.21577e-05,-1.61308e-06,0
-3.07774e-05,3.24489e-06,-1.35979e-05,-3.52368e-06,1.47535e-05,-4.5376e-06,2.15948e-05,-2.85964e-06,0
-3.1253e-05,3.78615e-06,-1.40894e-05,-4.87217e-07,1.48963e-05,-3.44959e-06,2.15906e-05,-3.4444e-06,0
-3.18476e-05,4.0397e-06,-1.56573e-05,6.27891e-07,1.62685e-05,-2.99859e-06,2.1887e-05,-3.43216e-06,0
-3.23341e-05,2.78832e-06,-1.50661e-05,-8.81365e-07,1.91132e-05,-2.72602e-06,2.10515e-05,-2.9805e-06,0
-3.33018e-05,1.80166e-06,-1.2726e-05,-2.74738e-06,2.06465e-05,-2.47521e-06,1.86807e-05,-3.51185e-06,0
-3.38671e-05,2.87302e-06,-1.13797e-05,-3.68943e-06,1.91228e-05,-1.87854e-06,1.67135e-05,-4.54716e-06,0
-3.34964e-05,3.95875e-06,-1.06488e-05,-4.392e-06,1.59189e-05,-1.09412e-06,1.55999e-05,-4.39562e-06,0
-3.36605e-05,2.92166e-06,-9.41274e-06,-4.70239e-06,1.41878e-05,-8.74965e-07,1.45976e-05,-2.24662e-06,0
-3.50506e-05,2.28523e-06,-9.93548e-06,-4.41872e-06,1.29806e-05,-1.58219e-06,1.43391e-05,1.95386e-07,0
-3.46104e-05,4.72385e-06,-1.14058e-05,-2.781e-06,1.24211e-05,-2.19861e-06,1.46065e-05,9.48175e-07,0
-3.12933e-05,9.1502e-06,-9.10302e-06,-5.23156e-07,1.40832e-05,-4.19506e-06,1.39634e-05,-2.84236e-07,0
-2.94797e-05,1.35507e-05,-3.92901e-06,-6.4442e-07,1.61161e-05,-7.99957e-06,1.2457e-05,-9.40255e-07,0
-3.1815e-05,1.69161e-05,-1.40992e-06,-2.92777e-06,1.83471e-05,-9.75047e-06,1.16472e-05,-1.57363e-08,0
-3.35198e-05,1.89494e-05,-4.02569e-06,-5.04002e-06,1.89734e-05,-8.33381e-06,1.07081e-05,-1.62344e-06,0
-3.25177e-05,1.93846e-05,-1.18143e-05,-5.59898e-06,1.76405e-05,-7.07548e-06,1.04677e-05,-6.27812e-06,0
-3.20793e-05,1.97656e-05,-1.88836e-05,-4.72013e-06,1.53019e-05,-6.27741e-06,1.11642e-05,-9.6362e-06,0
-3.09741e-05,2.06735e-05,-1.70166e-05,-4.69645e-06,1.38386e-05,-5.71017e-06,1.21158e-05,-9.79305e-06,0
-2.88606e-05,2.34184e-05,-4.00806e-06,-4.85096e-06,1.33221e-05,-5.8345e-06,1.38141e-05,-9.23649e-06,0
-2.77291e-05,2.79346e-05,1.42519e-05,-3.15817e-06,1.36975e-05,-7.34949e-06,1.54784e-05,-7.80338e-06,0
-2.75206e-05,3.50225e-05,3.3001e-05,-2.08086e-06,1.33651e-05,-9.16505e-06,1.72865e-05,-5.16745e-06,0
-2.74292e-05,4.57879e-05,4.68338e-05,-4.50138e-06,1.23829e-05,-9.98004e-06,1.89723e-05,-3.6779e-06,0
-2.7541e-05,5.76952e-05,4.7434e-05,-9.03458e-06,1.27065e-05,-9.39592e-06,1.94825e-05,-3.76049e-06,0
-2.79001e-05,6.65663e-05,3.10687e-05,-1.27271e-05,1.25379e-05,-9.5577e-06,1.8916e-05,-4.21285e-06,0
-2.80282e-05,6.87232e-05,7.17933e-07,-1.34597e-05,1.15576e-05,-1.18988e-05,1.74841e-05,-4.90508e-06,0
-2.80302e-05,6.30138e-05,-3.30278e-05,-1.09891e-05,1.16917e-05,-1.42141e-05,1.56256e-05,-5.36548e-06,0
-2.86413e-05,4.83528e-05,-6.0798e-05,-9.30932e-06,1.35414e-05,-1.49403e-05,1.42878e-05,-5.61328e-06,0
-2.93686e-05,2.71583e-05,-7.53212e-05,-9.82656e-06,1.47871e-05,-1.33333e-05,1.37979e-05,-5.64319e-06,0
-2.87896e-05,5.12791e-06,-7.4022e-05,-7.62609e-06,1.46595e-05,-1.17163e-05,1.19487e-05,-4.54313e-06,0
-2.67359e-05,-1.06527e-05,-6.15945e-05,3.98431e-07,1.32248e-05,-1.1332e-05,7.98601e-06,-2.48804e-06,0
-2.43828e-05,-1.63521e-05,-4.58699e-05,9.20704e-06,1.13006e-05,-1.1486e-05,5.21553e-06,-1.56141e-06,0
-2.43331e-05,-1.31238e-05,-3.21213e-05,1.3577e-05,9.91422e-06,-1.12008e-05,6.05001e-06,-2.39277e-06,0
-2.71101e-05,-5.76814e-06,-2.12848e-05,1.40037e-05,1.03737e-05,-1.1036e-05,9.11075e-06,-3.29236e-06,0
-2.94618e-05,1.48775e-07,-1.31576e-05,1.17759e-05,1.19038e-05,-1.07605e-05,1.15156e-05,-3.53395e-06,0
-2.9e-05,4.12259e-06,-8.55441e-06,8.409e-06,1.0929e-05,-1.03196e-05,1.2518e-05,-3.84094e-06,0
-2.7603e-05,9.69755e-06,-5.75003e-06,4.845e-06,8.18054e-06,-1.08726e-05,1.27661e-05,-4.17609e-06,0
-2.774e-05,1.63065e-05,-2.45721e-06,1.38903e-06,6.91148e-06,-1.29281e-05,1.32688e-05,-4.04309e-06,0
-2.82484e-05,2.11646e-05,-3.93869e-07,-2.86681e-06,6.04464e-06,-1.29942e-05,1.43708e-05,-4.94482e-06,0
-2.78315e-05,2.47079e-05,8.51742e-07,-9.71051e-06,3.90008e-06,-1.1316e-05,1.63253e-05,-5.42661e-06,0
-2.78531e-05,2.49679e-05,2.43992e-06,-1.70948e-05,1.82818e-06,-1.19285e-05,1.83445e-05,-3.77165e-06,0
-2.95065e-05,2.0877e-05,3.47637e-06,-2.26597e-05,-2.29049e-07,-1.36983e-05,1.76734e-05,-1.39472e-06,0
-3.20629e-05,1.65685e-05,3.01629e-06,-2.42535e-05,-2.08705e-06,-1.58937e-05,1.48152e-05,-3.96718e-08,0
-3.39744e-05,1.52615e-05,2.72463e-06,-2.19628e-05,-2.52752e-06,-1.66883e-05,1.34775e-05,4.26741e-07,0
-3.46043e-05,1.40524e-05,3.20571e-06,-1.89521e-05,-2.11348e-06,-1.60349e-05,1.38376e-05,1.30633e-06,0
-3.50447e-05,1.06847e-05,1.21321e-06,-1.71698e-05,-1.12508e-06,-1.51938e-05,1.29752e-05,2.81552e-06,0
-3.4265e-05,9.20837e-06,-7.06834e-07,-1.47544e-05,-7.35036e-07,-1.36808e-05,1.05837e-05,4.46998e-06,0
-3.25574e-05,9.12812e-06,-1.41799e-06,-7.29418e-06,-1.36957e-06,-1.28325e-05,8.28388e-06,4.94145e-06,0
-3.14707e-05,8.4526e-06,-2.42817e-06,3.31928e-06,-2.25622e-07,-1.28937e-05,8.63791e-06,4.59743e-06,0
-3.1703e-05,8.75571e-06,-3.05561e-06,1.33867e-05,3.48027e-06,-1.2609e-05,9.0605e-06,3.9431e-06,0
-3.30964e-05,1.06143e-05,-4.98224e-06,1.90356e-05,7.49957e-06,-1.13405e-05,7.83432e-06,4.60462e-06,0
-3.37575e-05,1.35308e-05,-6.641e-06,2.01262e-05,1.03053e-05,-9.49879e-06,7.58769e-06,7.33274e-06,0
-3.26078e-05,1.59649e-05,-8.43523e-06,1.84967e-05,1.25055e-05,-9.14567e-06,9.87856e-06,9.5922e-06,0
-3.12634e-05,1.84119e-05,-1.10004e-05,1.47946e-05,1.33536e-05,-1.08948e-05,1.379e-05,1.1185e-05,0
-3.14654e-05,1.94534e-05,-1.30899e-05,8.76205e-06,1.32511e-05,-1.18062e-05,1.64307e-05,1.11317e-05,0
-3.17224e-05,1.9262e-05,-1.32422e-05,2.24514e-06,1.38356e-05,-1.09587e-05,1.6611e-05,9.06025e-06,0
-3.16481e-05,1.85191e-05,-1.08056e-05,-3.56628e-07,1.53017e-05,-1.0318e-05,1.49446e-05,6.47378e-06,0
-3.21835e-05,1.81046e-05,-7.92521e-06,2.49025e-06,1.59406e-05,-1.05256e-05,1.47077e-05,5.32786e-06,0
-3.2703e-05,1.9436e-05,-5.9825e-06,9.7352e-06,1.36152e-05,-1.19478e-05,1.69453e-05,6.4214e-06,0
-3.12237e-05,2.1801e-05,-3.74407e-06,1.90605e-05,8.96499e-06,-1.22188e-05,1.99381e-05,9.20616e-06,0
