ch1,ch2,ch3,ch4,ch5,ch6,ch7,ch8,class
-2.90914e-05,4.71058e-06,-1.69552e-05,4.93207e-06,2.01243e-05,-9.32478e-06,-1.44997e-05,-2.86608e-06,0
-2.77192e-05,5.36308e-06,-1.35286e-05,6.59327e-06,1.77083e-05,-1.00087e-05,-2.09968e-05,-2.54359e-06,0
-2.72439e-05,7.56703e-06,-9.35094e-06,5.76306e-06,1.62038e-05,-1.04342e-05,-1.39007e-05,-1.71856e-06,0
-2.86278e-05,1.04821e-05,-3.85059e-06,2.7951e-06,1.58408e-05,-9.68968e-06,1.70412e-06,-1.51905e-06,0
-2.98374e-05,1.32742e-05,5.17927e-06,-6.06452e-06,1.65304e-05,-8.57742e-06,1.88901e-05,-1.83232e-06,0
-3.05114e-05,1.44163e-05,1.7489e-05,-2.00437e-05,1.71193e-05,-7.24076e-06,3.34979e-05,-7.68676e-07,0
-3.13093e-05,1.52342e-05,3.13476e-05,-3.05033e-05,1.55409e-05,-6.23967e-06,4.419e-05,5.8095e-07,0
-3.07892e-05,1.7146e-05,4.46702e-05,-2.74834e-05,1.19172e-05,-6.52312e-06,4.94805e-05,1.57989e-06,0
-2.91105e-05,1.80819e-05,5.29853e-05,-9.69409e-06,9.44707e-06,-7.13172e-06,5.09875e-05,2.28217e-06,0
-2.85321e-05,1.67506e-05,5.06376e-05,1.32024e-05,9.13982e-06,-6.90954e-06,5.21835e-05,1.99194e-06,0
-2.88914e-05,1.46228e-05,3.44635e-05,2.85255e-05,1.03002e-05,-6.67504e-06,5.30492e-05,7.51519e-07,0
-2.9435e-05,1.29817e-05,5.58433e-06,3.54911e-05,1.18039e-05,-8.07995e-06,5.02569e-05,3.37948e-07,0
-3.02861e-05,1.13493e-05,-3.04154e-05,4.38153e-05,1.26368e-05,-1.08491e-05,4.37586e-05,7.51804e-07,0
-3.1494e-05,9.70911e-06,-6.29855e-05,5.71717e-05,1.30022e-05,-1.29059e-05,3.6569e-05,-2.63522e-07,0
-3.30157e-05,8.72877e-06,-8.16747e-05,6.91462e-05,1.44401e-05,-1.16335e-05,3.25803e-05,-2.77034e-06,0
-3.34631e-05,8.6279e-06,-8.29176e-05,6.80258e-05,1.49362e-05,-8.48241e-06,3.10848e-05,-3.99574e-06,0
-3.36105e-05,9.10553e-06,-7.04328e-05,4.55137e-05,1.35995e-05,-6.91957e-06,2.79442e-05,-3.41966e-06,0
-3.30964e-05,9.03512e-06,-5.29521e-05,1.66728e-06,1.21013e-05,-6.85321e-06,2.3476e-05,-3.16182e-06,0
-3.24663e-05,7.96631e-06,-3.62428e-05,-5.8335e-05,1.12239e-05,-7.44942e-06,2.03069e-05,-4.02615e-06,0
-3.25057e-05,5.19109e-06,-2.34968e-05,-0.00010788,1.27083e-05,-7.63826e-06,1.65547e-05,-4.3371e-06,0
-3.2443e-05,1.59979e-06,-1.62079e-05,-0.00013306,1.42202e-05,-7.10534e-06,1.20525e-05,-3.82849e-06,0
-3.25191e-05,4.61726e-07,-1.12192e-05,-0.000148775,1.33709e-05,-6.91925e-06,8.76082e-06,-4.1533e-06,0
-3.13897e-05,2.18933e-07,-7.30011e-06,-0.000148211,1.08995e-05,-6.17279e-06,6.95233e-06,-3.14735e-06,0
-3.01902e-05,-7.48303e-07,-5.09481e-06,-0.000125575,7.62352e-06,-5.55936e-06,4.69169e-06,-2.20159e-06,0
-2.88908e-05,-1.47511e-06,-4.57538e-06,-9.06373e-05,5.21071e-06,-5.58322e-06,1.5511e-06,-2.04352e-06,0
-2.75622e-05,3.45782e-07,-5.14836e-06,-5.98194e-05,5.38076e-06,-5.10008e-06,-1.61972e-06,-3.48028e-07,0
-2.79691e-05,4.75867e-06,-5.58722e-06,-3.78781e-05,8.00744e-06,-4.08205e-06,-3.66334e-06,1.55041e-06,0
-2.86804e-05,9.92162e-06,-4.41559e-06,-1.91301e-05,9.5622e-06,-2.83453e-06,-1.78837e-06,2.01398e-06,0
-2.83276e-05,1.32257e-05,-2.17485e-06,-1.00288e-06,1.03056e-05,-2.4312e-06,2.94409e-06,1.05073e-06,0
-2.85982e-05,1.22597e-05,-3.49371e-07,1.36867e-05,1.20225e-05,-3.09423e-06,7.05839e-06,1.85104e-06,0
-2.89982e-05,1.01999e-05,4.28275e-07,2.40589e-05,1.27657e-05,-3.47048e-06,8.77617e-06,6.46837e-06,0
-2.77611e-05,1.10688e-05,2.01373e-07,3.59607e-05,1.13808e-05,-2.19552e-06,8.15562e-06,1.12076e-05,0
-2.6763e-05,1.42837e-05,-2.0542e-07,4.80905e-05,9.51635e-06,-6.02995e-07,6.56753e-06,1.19708e-05,0
-2.81243e-05,1.69248e-05,3.09023e-07,6.037e-05,9.27974e-06,-8.91924e-07,6.23226e-06,7.64129e-06,0
-3.00854e-05,1.85791e-05,2.4667e-06,7.41997e-05,1.09619e-05,-2.22098e-06,6.91175e-06,8.91089e-07,0
-2.9808e-05,2.04659e-05,4.97502e-06,8.54788e-05,1.47597e-05,-2.10708e-06,7.93475e-06,-4.09621e-06,0
-2.85911e-05,2.24336e-05,6.58682e-06,8.17733e-05,1.92167e-05,-5.61732e-07,8.54213e-06,-4.87007e-06,0
-2.74355e-05,2.21131e-05,7.57518e-06,6.19351e-05,2.17416e-05,9.08837e-07,8.16879e-06,-2.91148e-06,0
-2.7006e-05,1.86246e-05,8.96621e-06,3.80885e-05,2.18214e-05,1.49283e-06,6.73483e-06,-2.30516e-06,0
-2.67395e-05,1.45108e-05,9.37468e-06,1.99213e-05,2.04422e-05,1.19357e-06,5.98498e-06,-4.35424e-06,0
-2.65042e-05,1.30384e-05,7.46198e-06,3.41316e-06,1.85758e-05,6.1974e-07,7.81313e-06,-6.33338e-06,0
-2.79912e-05,1.34024e-05,4.50559e-06,-1.40826e-05,1.78699e-05,7.19884e-07,9.45027e-06,-7.1607e-06,0
-3.10144e-05,1.26393e-05,2.47839e-06,-2.02162e-05,1.91635e-05,1.81991e-06,1.02749e-05,-6.37242e-06,0
-3.31393e-05,9.66125e-06,1.13375e-06,-6.5341e-06,2.05806e-05,2.46076e-06,9.84149e-06,-3.99574e-06,0
-3.37594e-05,7.84347e-06,6.0584e-07,1.55272e-05,1.96621e-05,2.1145e-06,6.82912e-06,-2.85576e-06,0
-3.52455e-05,1.01131e-05,1.13384e-06,3.77588e-05,1.89001e-05,2.07309e-06,4.66688e-06,-2.305e-06,0
-3.5956e-05,1.46274e-05,1.4718e-06,5.06148e-05,2.00776e-05,2.13356e-06,4.30108e-06,-1.5572e-06,0
-3.52341e-05,1.72724e-05,5.16992e-07,4.39766e-05,2.0443e-05,1.42431e-06,5.296e-06,-1.49629e-06,0
-3.47805e-05,1.72007e-05,-1.83498e-06,3.0779e-05,1.85084e-05,1.198e-06,5.17252e-06,-1.52333e-06,0
-3.47475e-05,1.55806e-05,-5.5169e-06,2.29989e-05,1.61412e-05,-2.15725e-07,2.36095e-06,-4.51776e-07,0
-3.49704e-05,1.27382e-05,-1.04854e-05,1.53377e-05,1.35269e-05,-2.3861e-06,-9.02004e-07,1.36482e-06,0
-3.46773e-05,1.02142e-05,-1.3822e-05,-1.2561e-05,9.7271e-06,-3.39002e-06,-7.22051e-07,2.42993e-06,0
-3.37394e-05,9.19812e-06,-1.41315e-05,-5.18418e-05,5.20675e-06,-3.85426e-06,3.37734e-06,2.09694e-06,0
-3.3383e-05,1.00671e-05,-1.36881e-05,-7.13616e-05,1.13979e-06,-4.78432e-06,5.98688e-06,1.70028e-06,0
-3.28753e-05,1.04107e-05,-1.37265e-05,-5.9465e-05,1.76951e-07,-7.29158e-06,6.55403e-06,3.18455e-06,0
-3.11329e-05,8.14329e-06,-1.29513e-05,-2.88059e-05,3.98572e-06,-9.44756e-06,7.57271e-06,3.80924e-06,0
-3.01964e-05,4.6798e-06,-1.03927e-05,1.85337e-06,9.4582e-06,-1.00149e-05,9.58578e-06,2.73228e-06,0
-3.09963e-05,3.80881e-06,-4.53773e-06,2.37709e-05,9.18346e-06,-9.71758e-06,1.05612e-05,2.97326e-06,0
-3.1509e-05,5.94402e-06,2.07799e-06,3.25832e-05,2.79554e-06,-9.88619e-06,9.73217e-06,4.18802e-06,0
-3.10939e-05,9.09876e-06,5.41643e-06,2.62051e-05,-2.76089e-06,-1.01304e-05,8.18722e-06,4.91122e-06,0
-3.07679e-05,1.29215e-05,4.63082e-06,-1.37737e-06,-2.73846e-06,-1.03564e-05,7.9191e-06,5.36062e-06,0
-3.04999e-05,1.82883e-05,-2.22962e-07,-4.40397e-05,3.00209e-07,-1.06816e-05,8.80465e-06,6.09928e-06,0
-3.06877e-05,2.41112e-05,-8.87862e-06,-7.9173e-05,2.83108e-06,-1.10444e-05,9.22986e-06,7.07423e-06,0
-3.13678e-05,2.74961e-05,-1.90247e-05,-9.01686e-05,3.62989e-06,-1.15381e-05,9.31085e-06,7.49111e-06,0
-3.14348e-05,2.73045e-05,-2.54362e-05,-7.97621e-05,2.96031e-06,-1.17239e-05,1.062e-05,6.70362e-06,0
-3.09098e-05,2.61723e-05,-2.60214e-05,-5.84768e-05,3.22503e-06,-1.16878e-05,1.23176e-05,5.76711e-06,0
-3.10141e-05,2.64283e-05,-2.28102e-05,-2.89091e-05,6.81421e-06,-1.29573e-05,1.22922e-05,4.87795e-06,0
-3.15983e-05,2.55264e-05,-1.95493e-05,3.6135e-06,1.36536e-05,-1.44624e-05,1.24552e-05,3.1285e-06,0
-3.13668e-05,2.35286e-05,-1.79915e-05,1.84768e-05,2.08047e-05,-1.43132e-05,1.4807e-05,1.30079e-06,0
-3.03483e-05,2.24835e-05,-1.74159e-05,1.67629e-05,2.32847e-05,-1.3755e-05,1.75164e-05,-5.56489e-07,0
-2.9513e-05,2.07182e-05,-1.55404e-05,2.32979e-05,2.07175e-05,-1.37908e-05,1.79002e-05,-1.99503e-06,0
-2.98606e-05,1.73099e-05,-1.19398e-05,3.51453e-05,1.80504e-05,-1.41886e-05,1.62212e-05,4.5347e-08,0
-3.10082e-05,1.43401e-05,-9.37535e-06,3.17713e-05,1.75875e-05,-1.32146e-05,1.20336e-05,2.92547e-06,0
-3.08308e-05,1.14052e-05,-7.27528e-06,1.89235e-05,1.76861e-05,-1.25917e-05,7.09942e-06,1.9146e-06,0
-2.98719e-05,6.19936e-06,-6.14434e-06,2.04327e-05,1.56493e-05,-1.28638e-05,3.49079e-06,-7.81465e-07,0
-2.94142e-05,-1.17857e-06,-6.30981e-06,3.45106e-05,1.57287e-05,-1.25781e-05,3.10051e-06,1.58955e-07,0
-2.9256e-05,-5.19926e-06,-7.53252e-06,3.49439e-05,1.77352e-05,-1.17743e-05,7.39307e-06,3.60945e-06,0
-2.97522e-05,-3.19558e-06,-1.03706e-05,9.10611e-06,1.84772e-05,-1.24335e-05,1.31674e-05,4.90305e-06,0
-3.05457e-05,3.58908e-07,-1.23044e-05,-1.95591e-05,1.84555e-05,-1.47786e-05,1.79824e-05,4.27342e-06,0
-2.97006e-05,3.54753e-06,-1.17913e-05,-2.37571e-05,1.86418e-05,-1.52793e-05,1.98191e-05,2.16952e-06,0
-2.75841e-05,6.06011e-06,-7.65552e-06,-6.03526e-06,2.00198e-05,-1.36892e-05,1.97283e-05,5.81264e-07,0
-2.66603e-05,6.99419e-06,-4.66856e-06,1.67155e-05,2.08376e-05,-1.34399e-05,2.1674e-05,8.39185e-07,0
-2.75654e-05,7.64249e-06,-5.47362e-06,3.56632e-05,1.94386e-05,-1.58915e-05,2.4815e-05,1.08243e-06,0
-2.88856e-05,9.39386e-06,-7.18462e-06,4.81545e-05,1.51257e-05,-1.94414e-05,2.58459e-05,8.46287e-07,0
-2.96611e-05,1.10339e-05,-7.01357e-06,4.96787e-05,1.05724e-05,-2.1417e-05,2.5525e-05,1.12157e-06,0
-2.97773e-05,1.11534e-05,-4.70377e-06,3.18125e-05,8.21104e-06,-2.02595e-05,2.45041e-05,1.39897e-06,0
-2.97631e-05,1.00643e-05,-2.66452e-06,-4.14812e-06,7.46191e-06,-1.78943e-05,2.30797e-05,9.48465e-07,0
-3.0724e-05,9.37104e-06,-1.59411e-06,-4.16463e-05,6.51767e-06,-1.7046e-05,2.31551e-05,8.95498e-07,0
-3.15922e-05,9.87512e-06,-1.98467e-06,-6.28134e-05,5.35851e-06,-1.81352e-05,2.3942e-05,7.28546e-07,0
-3.19384e-05,1.09504e-05,-2.96375e-06,-5.86847e-05,4.91817e-06,-1.90992e-05,2.36497e-05,-3.99961e-07,0
-3.17622e-05,1.17678e-05,-3.42335e-06,-3.72097e-05,5.93442e-06,-1.94097e-05,2.21975e-05,-2.20756e-06,0
-3.18521e-05,1.2018e-05,-2.98965e-06,-1.64326e-05,8.84301e-06,-1.91662e-05,2.06763e-05,-3.56008e-06,0
-3.21527e-05,1.34709e-05,-2.89529e-06,-8.66361e-06,1.10124e-05,-1.81721e-05,1.94528e-05,-4.07998e-06,0
-3.12065e-05,1.59354e-05,-2.78816e-06,-1.08599e-05,1.0145e-05,-1.59383e-05,1.78367e-05,-4.91563e-06,0
-2.95971e-05,1.72174e-05,-1.84025e-06,-1.20746e-05,8.35694e-06,-1.30014e-05,1.58607e-05,-5.79677e-06,0
-2.85378e-05,1.74243e-05,-6.87191e-07,-6.07553e-06,8.56552e-06,-1.06209e-05,1.62766e-05,-6.20566e-06,0
-2.89672e-05,1.77668e-05,4.69885e-07,1.56781e-06,1.16615e-05,-1.04158e-05,1.79603e-05,-5.3894e-06,0
-3.00418e-05,1.73083e-05,1.87086e-06,-5.52118e-06,1.3661e-05,-1.23598e-05,1.85097e-05,-2.20312e-06,0
-3.03511e-05,1.45974e-05,1.39161e-06,-2.43329e-05,1.13152e-05,-1.39631e-05,1.76864e-05,1.12118e-06,0
-2.98524e-05,1.30381e-05,-5.07757e-07,-2.92854e-05,6.89374e-06,-1.55734e-05,1.46758e-05,1.79384e-06,0
-2.90741e-05,1.28755e-05,-1.72041e-06,-1.66006e-05,5.83169e-06,-1.55496e-05,1.18317e-05,6.67691e-07,0
-2.82666e-05,1.17858e-05,-7.7059e-07,-8.62919e-07,9.80438e-06,-1.31746e-05,1.52732e-05,-8.54367e-07,0
-2.54934e-05,1.07756e-05,9.98879e-07,9.34825e-06,1.54986e-05,-1.01725e-05,2.437e-05,-1.54943e-06,0
-2.27472e-05,1.02893e-05,9.18579e-07,1.54076e-05,2.16038e-05,-8.91715e-06,3.16583e-05,-1.21508e-06,0
-2.35556e-05,1.08045e-05,3.78341e-07,1.53786e-05,2.52453e-05,-9.3345e-06,3.41572e-05,-8.51846e-07,0
-2.61289e-05,1.16749e-05,3.3543e-07,7.36313e-06,2.47989e-05,-9.76669e-06,3.40271e-05,7.57034e-07,0
-2.76271e-05,1.09166e-05,1.57291e-07,-3.70025e-06,2.26026e-05,-1.008e-05,3.15049e-05,3.05932e-06,0
-2.81234e-05,7.91313e-06,-1.40662e-06,-1.22056e-05,2.18038e-05,-9.12301e-06,2.42065e-05,3.70602e-06,0
-2.85071e-05,4.08849e-06,-3.40435e-06,-1.60799e-05,2.16433e-05,-8.66776e-06,1.44107e-05,3.11858e-06,0
-2.82425e-05,5.59489e-07,-4.15316e-06,-1.76259e-05,2.07855e-05,-7.1513e-06,4.17807e-06,1.30713e-06,0
-2.81259e-05,-1.28088e-06,-3.49328e-06,-1.84778e-05,1.88175e-05,-5.75169e-06,-4.96826e-06,-7.25302e-07,0
-2.88732e-05,-4.30541e-07,-3.81456e-06,-1.91212e-05,1.72183e-05,-7.25627e-06,-1.23302e-05,-7.72296e-08,0
-3.01408e-05,4.00887e-07,-5.44633e-06,-1.84871e-05,1.71715e-05,-1.0101e-05,-1.66706e-05,1.65193e-06,0
-3.11627e-05,-6.68401e-07,-7.21296e-06,-1.73606e-05,1.81031e-05,-1.09198e-05,-1.75599e-05,2.41096e-06,0
-3.25396e-05,-5.90847e-07,-8.11474e-06,-1.58489e-05,1.86181e-05,-1.00653e-05,-1.53475e-05,3.19235e-06,0
-3.41344e-05,2.52292e-06,-7.769e-06,-1.50426e-05,1.68637e-05,-1.0141e-05,-1.09949e-05,4.33978e-06,0
-3.52537e-05,6.67513e-06,-6.0515e-06,-1.49029e-05,1.38497e-05,-9.65355e-06,-6.33197e-06,4.19029e-06,0
-3.57376e-05,9.54762e-06,-3.83959e-06,-1.55286e-05,1.11786e-05,-8.40062e-06,-1.60815e-06,3.21608e-06,0
-3.54365e-05,1.16669e-05,-4.23561e-06,-1.62671e-05,9.7855e-06,-7.80258e-06,2.79103e-06,3.25141e-06,0
-3.48052e-05,1.43332e-05,-7.45209e-06,-1.5978e-05,9.63216e-06,-7.89137e-06,6.49821e-06,3.50794e-06,0
-3.5646e-05,1.69396e-05,-9.73062e-06,-1.39234e-05,1.21815e-05,-7.28289e-06,9.20838e-06,3.69298e-06,0
-3.63562e-05,1.92926e-05,-9.71278e-06,-1.23066e-05,1.5141e-05,-6.28056e-06,1.05913e-05,4.50853e-06,0
-3.51649e-05,2.13457e-05,-9.465e-06,-1.37238e-05,1.37288e-05,-5.34417e-06,1.02685e-05,7.03692e-06,0
-3.41535e-05,2.2647e-05,-8.59085e-06,-1.30162e-05,8.85704e-06,-4.44079e-06,1.06251e-05,1.5844e-05,0
-3.36202e-05,2.33299e-05,-7.62526e-06,-4.20153e-06,3.23234e-06,-3.10833e-06,1.14382e-05,3.3236e-05,0
-3.26367e-05,2.39293e-05,-7.79231e-06,7.30272e-06,-1.17149e-06,-3.53817e-06,1.12454e-05,4.62366e-05,0
-3.11124e-05,2.406e-05,-9.33293e-06,1.44331e-05,-3.97728e-07,-5.32845e-06,8.35366e-06,4.63306e-05,0
-3.07331e-05,2.31687e-05,-1.1862e-05,2.03523e-05,2.03753e-06,-6.49002e-06,-1.30905e-06,3.71208e-05,0
-3.17343e-05,2.41565e-05,-1.42408e-05,2.80547e-05,1.70881e-06,-6.56443e-06,-1.21733e-05,1.79374e-05,0
-3.25786e-05,2.47219e-05,-1.39947e-05,3.00195e-05,-1.74017e-07,-6.1571e-06,-1.36017e-05,-8.55382e-06,0
-3.19227e-05,2.19787e-05,-1.17573e-05,1.95645e-05,-1.88402e-06,-5.89931e-06,-6.00074e-06,-3.42811e-05,0
-3.10079e-05,2.11061e-05,-1.13987e-05,-3.8184e-06,-1.75208e-06,-6.53748e-06,6.48236e-06,-4.94295e-05,0
-2.9826e-05,2.13281e-05,-1.25183e-05,-3.75188e-05,1.10769e-06,-7.62098e-06,1.86914e-05,-5.20728e-05,0
-2.82833e-05,2.02522e-05,-1.26519e-05,-6.71566e-05,8.23442e-06,-8.17919e-06,2.89699e-05,-4.71128e-05,0
-2.78537e-05,1.79473e-05,-1.17888e-05,-8.46119e-05,1.52147e-05,-7.38372e-06,3.55626e-05,-3.77828e-05,0
-2.86116e-05,1.58606e-05,-1.20434e-05,-9.33033e-05,1.51056e-05,-6.68347e-06,3.78013e-05,-2.8879e-05,0
-2.93162e-05,1.47885e-05,-1.37584e-05,-9.47862e-05,9.74616e-06,-8.12404e-06,3.57333e-05,-2.08151e-05,0
-2.94487e-05,1.4295e-05,-1.47041e-05,-8.39108e-05,5.54293e-06,-8.84233e-06,3.08052e-05,-1.13448e-05,0
-2.92373e-05,1.50126e-05,-1.31483e-05,-5.90277e-05,4.73768e-06,-9.54434e-06,2.65484e-05,-1.22953e-06,0
-2.8522e-05,1.59982e-05,-1.09256e-05,-2.7765e-05,6.20337e-06,-1.11304e-05,2.25349e-05,4.61225e-06,0
-2.82287e-05,1.62402e-05,-1.05074e-05,7.58203e-08,9.09536e-06,-1.23495e-05,1.82195e-05,5.24053e-06,0
-2.9131e-05,1.51969e-05,-1.16193e-05,2.20559e-05,1.24267e-05,-1.19639e-05,1.26071e-05,5.54525e-06,0
-3.01589e-05,1.45216e-05,-1.38671e-05,4.52445e-05,1.50626e-05,-1.08146e-05,8.70893e-06,8.0222e-06,0
-2.96498e-05,1.47234e-05,-1.61503e-05,7.14596e-05,1.8573e-05,-8.84361e-06,5.73146e-06,1.03573e-05,0
-2.79243e-05,1.53259e-05,-1.61507e-05,9.353e-05,2.30537e-05,-6.10646e-06,-3.89782e-07,1.12068e-05,0
-2.72036e-05,1.63386e-05,-1.31309e-05,0.000104668,2.62179e-05,-3.41573e-06,-1.07797e-05,1.14643e-05,0
-2.80654e-05,1.78486e-05,-9.32322e-06,0.000104161,2.79528e-05,-1.54532e-06,-1.93333e-05,1.03907e-05,0
-2.79691e-05,1.8801e-05,-6.91919e-06,9.21351e-05,2.95882e-05,-5.35344e-07,-2.15736e-05,9.04425e-06,0
-2.61501e-05,1.93097e-05,-6.55691e-06,6.65495e-05,3.10909e-05,-9.48607e-07,-1.89417e-05,7.71186e-06,0
-2.46559e-05,1.89429e-05,-7.86279e-06,2.93032e-05,3.17406e-05,-3.74158e-06,-1.39683e-05,5.72645e-06,0
-2.64109e-05,1.6314e-05,-8.84762e-06,-1.79557e-05,2.96658e-05,-7.17187e-06,-8.05532e-06,2.41772e-06,0
-2.76807e-05,1.24027e-05,-8.56521e-06,-7.4551e-05,2.53858e-05,-1.01492e-05,-1.20449e-06,3.68889e-07,0
-2.72552e-05,1.00416e-05,-7.66182e-06,-0.000125245,2.05445e-05,-1.18021e-05,6.14589e-06,1.49465e-06,0
-2.89443e-05,1.15935e-05,-9.51639e-06,-0.000162844,1.56881e-05,-1.26932e-05,1.32253e-05,3.33505e-06,0
-3.08655e-05,1.31019e-05,-1.35393e-05,-0.000196795,1.08587e-05,-1.2677e-05,1.94927e-05,2.7521e-06,0
-3.11349e-05,1.21562e-05,-1.38609e-05,-0.000226933,4.94801e-06,-1.34096e-05,2.32753e-05,9.38144e-07,0
-2.97718e-05,1.13251e-05,-1.14589e-05,-0.000217475,6.42843e-07,-1.38385e-05,2.39724e-05,-8.41051e-07,0
-2.81895e-05,1.2652e-05,-7.97359e-06,-0.000150991,1.07111e-06,-1.00487e-05,2.56267e-05,-4.1065e-06,0
-2.77095e-05,1.70167e-05,-4.80993e-06,-6.45859e-05,3.81062e-06,-4.47778e-06,2.94778e-05,-5.55882e-06,0
-2.6226e-05,2.74492e-05,-5.89422e-06,3.52891e-06,4.27571e-06,-4.99565e-07,3.3367e-05,-4.17264e-06,0
-2.3435e-05,4.32369e-05,-9.61461e-06,4.35097e-05,4.94977e-06,1.18436e-06,3.55038e-05,-1.40783e-06,0
-2.33266e-05,5.53171e-05,-1.41626e-05,8.30599e-05,7.13476e-06,9.34773e-07,3.55342e-05,2.16818e-06,0
-2.57441e-05,5.80931e-05,-1.90078e-05,0.0001316,7.31188e-06,-9.06124e-08,3.51168e-05,5.07252e-06,0
-2.7916e-05,5.29785e-05,-2.15394e-05,0.000176941,8.07137e-06,-6.79974e-07,3.68336e-05,6.21389e-06,0
-2.86401e-05,4.42139e-05,-1.98724e-05,0.000204937,1.319e-05,-8.4053e-07,4.14051e-05,7.36429e-06,0
-2.75298e-05,3.45122e-05,-1.45442e-05,0.000205382,2.03713e-05,-2.34585e-07,4.61928e-05,9.01048e-06,0
-2.59411e-05,2.50909e-05,-8.243e-06,0.000183128,2.5604e-05,1.92642e-06,4.81387e-05,9.51832e-06,0
-2.61335e-05,1.67087e-05,-3.20837e-06,0.000150506,2.67196e-05,4.60269e-06,4.72172e-05,8.78e-06,0
-2.79189e-05,8.13316e-06,-1.70768e-06,0.000114064,2.25543e-05,5.32155e-06,4.42922e-05,8.56372e-06,0
-2.87928e-05,-2.12809e-06,-4.2647e-06,6.91604e-05,1.65781e-05,3.69986e-06,4.04618e-05,9.6672e-06,0
-2.80138e-05,-1.14846e-05,-9.00523e-06,1.55579e-05,1.24893e-05,2.34372e-06,3.47676e-05,1.08654e-05,0
-2.7155e-05,-1.7123e-05,-1.42084e-05,-3.6816e-05,9.45791e-06,2.99236e-06,2.46159e-05,1.14139e-05,0
-2.79089e-05,-1.98444e-05,-1.81382e-05,-7.14635e-05,6.18887e-06,4.68475e-06,1.02211e-05,1.00652e-05,0
-3.00246e-05,-2.00642e-05,-2.04726e-05,-8.6106e-05,4.29681e-06,5.52484e-06,-3.68152e-06,7.84333e-06,0
-3.13166e-05,-1.60316e-05,-2.14631e-05,-7.91584e-05,4.96208e-06,5.49048e-06,-1.28285e-05,6.39794e-06,0
-3.11753e-05,-5.52584e-06,-2.05101e-05,-5.46717e-05,7.31572e-06,5.33182e-06,-1.72542e-05,6.46727e-06,0
-3.16969e-05,1.21418e-05,-1.78444e-05,-2.89222e-05,9.64643e-06,5.91136e-06,-1.74503e-05,8.14898e-06,0
-3.33169e-05,3.23312e-05,-1.50292e-05,-8.65296e-06,1.09168e-05,7.04969e-06,-1.23866e-05,1.03859e-05,0
-3.29607e-05,4.66619e-05,-1.35509e-05,1.02836e-05,1.22361e-05,7.81641e-06,-5.24158e-06,1.0483e-05,0
-3.00209e-05,5.35314e-05,-1.25895e-05,2.32044e-05,1.36093e-05,7.79777e-06,6.40332e-07,9.00365e-06,0
-2.74043e-05,5.17062e-05,-1.05089e-05,1.99709e-05,1.29295e-05,5.474e-06,7.48757e-06,7.71588e-06,0
-2.72861e-05,4.04389e-05,-7.65193e-06,9.76243e-06,1.07404e-05,7.35004e-07,1.59584e-05,6.50087e-06,0
-2.96015e-05,2.43742e-05,-5.46039e-06,1.43451e-05,1.20254e-05,-4.20476e-06,2.29334e-05,5.68934e-06,0
-3.02235e-05,1.03907e-05,-4.89852e-06,3.39259e-05,1.82441e-05,-7.4005e-06,2.56898e-05,5.23687e-06,0
-2.81525e-05,1.29177e-06,-4.76508e-06,5.14023e-05,2.63684e-05,-8.90196e-06,2.26399e-05,4.63028e-06,0
-2.70617e-05,-6.72699e-06,-4.44756e-06,5.20113e-05,2.8753e-05,-1.01891e-05,1.5566e-05,4.27465e-06,0
-2.71871e-05,-1.58198e-05,-4.89135e-06,4.23319e-05,2.29529e-05,-1.10659e-05,7.78417e-06,4.53895e-06,0
-2.78722e-05,-2.43392e-05,-6.58336e-06,3.67162e-05,1.63132e-05,-1.01282e-05,6.41035e-07,3.88626e-06,0
-3.07643e-05,-2.77462e-05,-7.66492e-06,3.23083e-05,1.47428e-05,-7.27057e-06,-4.43922e-06,2.04596e-06,0
-3.35324e-05,-2.79598e-05,-6.66588e-06,2.21516e-05,1.6318e-05,-5.50944e-06,-5.65229e-06,-9.0762e-07,0
-3.42007e-05,-2.63706e-05,-3.69659e-06,9.52068e-07,1.65669e-05,-6.88856e-06,-2.53595e-06,-3.69824e-06,0
-3.37087e-05,-2.03284e-05,1.72581e-06,-2.56039e-05,1.60541e-05,-9.54796e-06,2.80359e-06,-4.8816e-06,0
-3.25678e-05,-1.18412e-05,8.87057e-06,-4.73838e-05,1.50764e-05,-1.19875e-05,8.34078e-06,-3.95082e-06,0
-3.25171e-05,-4.61074e-06,1.82066e-05,-5.87694e-05,1.32877e-05,-1.37452e-05,1.18568e-05,-2.28587e-06,0
-3.32918e-05,-7.84273e-07,3.08037e-05,-6.24509e-05,1.13443e-05,-1.42343e-05,1.19084e-05,-2.12226e-06,0
-3.38723e-05,1.65931e-06,4.45907e-05,-6.24096e-05,1.04859e-05,-1.40675e-05,9.95312e-06,-3.87553e-06,0
-3.38296e-05,6.3036e-06,5.37228e-05,-5.85792e-05,1.10561e-05,-1.44656e-05,7.4771e-06,-5.99712e-06,0
-3.35515e-05,1.49449e-05,5.15105e-05,-4.96298e-05,1.24798e-05,-1.44189e-05,3.7692e-06,-6.35004e-06,0
-3.37254e-05,2.52112e-05,3.40452e-05,-3.48148e-05,1.35545e-05,-1.27378e-05,1.29501e-06,-4.21928e-06,0
-3.38968e-05,3.33252e-05,1.74485e-06,-1.76615e-05,1.34657e-05,-1.10716e-05,3.85935e-06,-1.68644e-06,0
-3.37655e-05,3.63662e-05,-3.80188e-05,-7.96457e-06,1.29235e-05,-1.17174e-05,1.00344e-05,-1.21332e-06,0
-3.37697e-05,3.43054e-05,-7.11653e-05,-9.14062e-06,1.28035e-05,-1.41677e-05,1.57552e-05,-2.57791e-06,0
-3.32232e-05,2.93915e-05,-8.77469e-05,-1.22718e-05,1.30932e-05,-1.60966e-05,1.90388e-05,-3.7569e-06,0
-3.26304e-05,2.42505e-05,-8.68227e-05,-1.26698e-05,1.31762e-05,-1.58483e-05,2.03735e-05,-3.27678e-06,0
-3.29337e-05,1.90738e-05,-7.12994e-05,-1.06888e-05,1.26237e-05,-1.51065e-05,2.13456e-05,-3.32872e-06,0
-3.2469e-05,1.41063e-05,-5.11139e-05,-5.80221e-06,1.1898e-05,-1.55058e-05,2.24056e-05,-5.29033e-06,0
-3.11473e-05,1.19975e-05,-3.51391e-05,-2.48622e-06,1.13373e-05,-1.67338e-05,2.09256e-05,-6.33329e-06,0
-3.11073e-05,8.43881e-06,-2.27698e-05,-5.95878e-06,1.2539e-05,-1.71261e-05,1.79358e-05,-4.75029e-06,0
-3.27613e-05,2.27477e-06,-1.57457e-05,-1.28461e-05,1.44157e-05,-1.6556e-05,1.4509e-05,-2.24518e-06,0
-3.47593e-05,-7.79013e-07,-1.38608e-05,-2.15892e-05,1.55413e-05,-1.75565e-05,1.06649e-05,5.22399e-07,0
-3.49523e-05,8.69462e-08,-1.19277e-05,-3.30614e-05,1.61509e-05,-1.93607e-05,9.53181e-06,1.5583e-06,0
-3.27507e-05,4.51314e-06,-9.49285e-06,-4.31639e-05,1.36983e-05,-1.99359e-05,1.11454e-05,1.53064e-06,0
-2.97822e-05,8.4644e-06,-9.67597e-06,-4.93513e-05,1.0282e-05,-1.91549e-05,1.41576e-05,1.88496e-06,0
-2.80815e-05,8.68039e-06,-1.04414e-05,-4.96544e-05,7.37498e-06,-1.90654e-05,1.35425e-05,1.36027e-06,0
-2.83122e-05,8.77028e-06,-6.43944e-06,-4.37356e-05,5.54551e-06,-1.9062e-05,8.27652e-06,3.62105e-07,0
-3.07543e-05,1.0937e-05,1.02561e-07,-3.49102e-05,4.44754e-06,-1.79633e-05,2.11907e-06,-6.31727e-07,0
-3.36713e-05,1.41209e-05,6.82161e-06,-2.7518e-05,2.88179e-06,-1.70644e-05,-7.75122e-07,-1.45125e-06,0
-3.35721e-05,1.44971e-05,1.25559e-05,-2.26622e-05,1.90591e-06,-1.76524e-05,2.20712e-06,-2.33216e-06,0
-3.16883e-05,1.29908e-05,1.55768e-05,-1.88424e-05,2.57672e-06,-1.84908e-05,7.82323e-06,-1.2744e-06,0
-3.00487e-05,1.27311e-05,1.57937e-05,-1.65629e-05,4.06913e-06,-1.75395e-05,1.27863e-05,1.45753e-06,0
-3.02175e-05,1.28092e-05,1.4136e-05,-1.50879e-05,5.11973e-06,-1.61687e-05,1.50355e-05,2.5361e-06,0
-3.14618e-05,1.16364e-05,1.18815e-05,-1.4598e-05,6.61793e-06,-1.61156e-05,1.37984e-05,1.71725e-06,0
-3.24219e-05,9.90599e-06,8.7357e-06,-1.39507e-05,8.7373e-06,-1.64047e-05,1.07468e-05,2.73141e-06,0
-3.2649e-05,7.8005e-06,5.96029e-06,-1.15775e-05,9.14632e-06,-1.62696e-05,9.53389e-06,5.24059e-06,0
-3.29928e-05,4.87876e-06,3.45242e-06,-8.91256e-06,6.88724e-06,-1.65479e-05,9.49748e-06,6.65979e-06,0
-3.33519e-05,2.581e-06,-6.93782e-07,-7.98815e-06,4.79949e-06,-1.69636e-05,9.27008e-06,6.91903e-06,0
-3.17771e-05,2.08769e-06,-7.41036e-06,-8.52098e-06,3.79601e-06,-1.65014e-05,1.0366e-05,5.80409e-06,0
-2.94097e-05,3.13305e-06,-1.65571e-05,-9.68189e-06,3.61327e-06,-1.52678e-05,1.36495e-05,2.80116e-06,0
-2.87401e-05,3.98067e-06,-2.70698e-05,-1.04974e-05,4.05471e-06,-1.48586e-05,1.62477e-05,-3.34841e-07,0
-2.94205e-05,4.65878e-06,-3.40134e-05,-9.09693e-06,5.09342e-06,-1.47572e-05,1.6806e-05,-2.33616e-07,0
-2.96889e-05,5.04105e-06,-3.31287e-05,-1.65174e-06,5.3329e-06,-1.52899e-05,1.75942e-05,1.91469e-06,0
-2.99494e-05,5.78245e-06,-2.60823e-05,1.06694e-05,5.57393e-06,-1.6284e-05,1.84145e-05,1.9569e-06,0
-3.04794e-05,5.35284e-06,-1.83019e-05,1.66665e-05,7.08094e-06,-1.54369e-05,1.65014e-05,6.07606e-07,0
-3.11996e-05,3.3001e-06,-1.45528e-05,1.24219e-05,7.6271e-06,-1.42502e-05,1.20827e-05,1.75757e-06,0
-3.13749e-05,3.36648e-06,-1.26984e-05,4.61646e-06,7.76778e-06,-1.44143e-05,7.90136e-06,3.17928e-06,0
-3.13961e-05,5.7623e-06,-1.10154e-05,1.01344e-06,7.98395e-06,-1.52449e-05,7.79383e-06,1.88121e-06,0
-3.0751e-05,8.61929e-06,-9.23131e-06,1.85971e-06,1.07275e-05,-1.64453e-05,1.08242e-05,1.02291e-06,0
-2.85015e-05,1.03117e-05,-6.30267e-06,2.67855e-06,1.67735e-05,-1.69176e-05,1.42822e-05,1.55868e-06,0
-2.63671e-05,1.15472e-05,-2.64181e-06,3.12866e-06,2.05737e-05,-1.53095e-05,1.60904e-05,6.28593e-07,0
-2.64451e-05,1.34693e-05,1.12277e-07,1.74727e-06,2.19683e-05,-1.26041e-05,1.1733e-05,3.75172e-07,0
-2.79342e-05,1.70734e-05,5.67664e-07,-4.71987e-06,2.12093e-05,-1.13167e-05,4.74626e-06,1.64586e-06,0
-2.96188e-05,2.07109e-05,6.04444e-07,-1.39786e-05,1.96024e-05,-1.17867e-05,7.746e-07,2.84474e-06,0
-3.10347e-05,2.28882e-05,-1.95007e-07,-1.84685e-05,1.9636e-05,-1.25103e-05,3.01589e-06,3.59998e-06,0
-3.13029e-05,2.43162e-05,9.81045e-08,-1.60476e-05,2.09926e-05,-1.21076e-05,9.70568e-06,4.04845e-06,0
-3.05923e-05,2.38419e-05,3.44113e-06,-8.40069e-06,2.2574e-05,-1.06104e-05,1.60645e-05,4.03924e-06,0
-3.0938e-05,2.18858e-05,7.43663e-06,1.34468e-06,2.33812e-05,-8.56612e-06,1.5987e-05,3.34793e-06,0
-3.23578e-05,1.85989e-05,9.2641e-06,5.89464e-06,2.30923e-05,-7.0853e-06,3.06293e-06,2.86754e-06,0
-3.32548e-05,1.53624e-05,8.27846e-06,2.72146e-06,2.13007e-05,-6.13857e-06,-1.61415e-05,3.19047e-06,0
-3.35867e-05,1.32285e-05,5.98878e-06,-1.11232e-06,2.00301e-05,-4.27877e-06,-2.26755e-05,4.29362e-06,0
-3.36146e-05,1.30058e-05,3.60666e-06,5.33558e-07,1.99858e-05,-1.2892e-06,-7.21273e-06,5.15536e-06,0
-3.38018e-05,1.44591e-05,1.95501e-06,4.55827e-06,2.00662e-05,1.30586e-06,2.21758e-05,4.63409e-06,0
-3.37374e-05,1.60049e-05,4.66941e-07,6.72813e-06,1.94388e-05,1.43844e-06,4.90001e-05,3.15727e-06,0
-3.29005e-05,1.69572e-05,-1.54925e-07,6.90219e-06,1.78943e-05,-1.46522e-06,6.0639e-05,3.07428e-06,0
-3.1541e-05,1.83589e-05,-5.43471e-07,6.78338e-06,1.48771e-05,-4.9302e-06,5.68644e-05,4.53443e-06,0
-3.18035e-05,1.9736e-05,-2.49508e-06,6.51942e-06,1.16821e-05,-5.60559e-06,4.63797e-05,4.92125e-06,0
-3.31229e-05,1.91665e-05,-6.60275e-06,5.93376e-06,9.88926e-06,-4.94907e-06,3.90508e-05,3.20864e-06,0
-3.31518e-05,1.76562e-05,-1.0342e-05,4.54242e-06,9.51302e-06,-4.48543e-06,3.68121e-05,1.19503e-06,0
-3.29162e-05,1.65716e-05,-1.20594e-05,2.6291e-06,9.40083e-06,-5.0119e-06,3.46987e-05,2.76904e-07,0
-3.22979e-05,1.65371e-05,-1.26516e-05,2.28074e-06,1.03791e-05,-6.65586e-06,2.75775e-05,1.05923e-06,0
-2.99935e-05,1.68456e-05,-1.3229e-05,2.41825e-06,1.35172e-05,-6.63266e-06,1.88037e-05,1.4774e-06,0
-2.94775e-05,1.7036e-05,-1.43281e-05,5.1407e-07,1.58969e-05,-4.69149e-06,1.5645e-05,1.97741e-06,0
-3.20817e-05,1.7164e-05,-1.47946e-05,-2.16153e-06,1.51705e-05,-4.39913e-06,1.77971e-05,4.12358e-06,0
-3.37009e-05,1.84348e-05,-1.48843e-05,-1.84479e-06,1.23794e-05,-6.61523e-06,1.77364e-05,6.26876e-06,0
-3.40997e-05,1.97596e-05,-1.57336e-05,1.17145e-07,1.06475e-05,-9.45489e-06,1.24077e-05,9.09461e-06,0
-3.41938e-05,2.14995e-05,-1.70159e-05,-7.12542e-07,1.18221e-05,-1.17605e-05,6.74149e-06,1.12301e-05,0
-3.3068e-05,2.61243e-05,-1.74754e-05,-3.01281e-06,1.34684e-05,-1.35505e-05,4.43523e-06,1.08002e-05,0
-3.19834e-05,3.41274e-05,-1.77529e-05,-1.5873e-06,1.25511e-05,-1.55567e-05,5.22511e-06,8.61798e-06,0
-3.12775e-05,4.15812e-05,-1.80304e-05,2.99842e-06,9.41315e-06,-1.56831e-05,6.03107e-06,5.19017e-06,0
-3.0711e-05,4.45906e-05,-1.83132e-05,1.46875e-05,6.86006e-06,-1.35958e-05,4.15727e-06,2.78529e-06,0
-3.02617e-05,4.27503e-05,-2.00547e-05,3.54336e-05,7.16967e-06,-1.19696e-05,5.74465e-07,2.0792e-06,0
-2.91956e-05,3.72072e-05,-2.17723e-05,4.91276e-05,9.42762e-06,-1.13514e-05,-3.64926e-06,1.09446e-06,0
-2.77295e-05,3.11177e-05,-2.11151e-05,4.6268e-05,1.13047e-05,-1.22428e-05,-9.68375e-06,-6.60948e-07,0
-2.68446e-05,2.58725e-05,-1.76572e-05,3.11869e-05,1.12662e-05,-1.34835e-05,-1.67681e-05,-1.36203e-06,0
-2.70791e-05,2.08148e-05,-1.53986e-05,1.36211e-05,8.74254e-06,-1.4273e-05,-1.93321e-05,-1.07926e-06,0
-2.73036e-05,1.50305e-05,-1.72635e-05,-1.05484e-06,5.69794e-06,-1.34283e-05,-1.50755e-05,-1.5228e-06,0
-2.65153e-05,8.23109e-06,-1.99952e-05,-1.17119e-05,5.3444e-06,-1.15956e-05,-8.49813e-06,-3.2669e-06,0
-2.61827e-05,1.47915e-06,-1.8877e-05,-1.73755e-05,7.81202e-06,-1.04448e-05,-3.46083e-06,-5.4819e-06,0
-2.7463e-05,-2.63875e-06,-1.34684e-05,-2.0623e-05,1.23889e-05,-9.75665e-06,-9.44746e-07,-5.30224e-06,0
-2.86109e-05,-3.10153e-06,-9.7275e-06,-2.49493e-05,1.80499e-05,-9.61602e-06,-7.87759e-07,-2.65486e-06,0
-2.89162e-05,4.50112e-09,-1.00898e-05,-3.35703e-05,2.04691e-05,-1.07856e-05,-4.93369e-06,-7.49847e-07,0
-2.91862e-05,4.80288e-06,-1.18165e-05,-4.41614e-05,1.6814e-05,-1.28083e-05,-1.35872e-05,-1.61834e-07,0
-2.96627e-05,8.36688e-06,-1.30652e-05,-5.0866e-05,1.18682e-05,-1.32691e-05,-2.01479e-05,1.17685e-06,0
-2.95646e-05,1.10509e-05,-1.24493e-05,-4.85902e-05,1.04276e-05,-1.30439e-05,-1.80301e-05,2.21919e-06,0
-2.89367e-05,1.4312e-05,-9.50886e-06,-3.76218e-05,1.09849e-05,-1.21656e-05,-7.99938e-06,1.70615e-06,0
-2.96792e-05,1.62038e-05,-7.41323e-06,-2.40219e-05,1.12741e-05,-1.20724e-05,3.71471e-06,3.72564e-07,0
-3.0932e-05,1.58533e-05,-7.11174e-06,-1.40142e-05,1.06807e-05,-1.47479e-05,1.37396e-05,-5.38764e-07,0
-3.00591e-05,1.41837e-05,-6.20806e-06,-9.4841e-06,8.7087e-06,-1.7141e-05,2.2428e-05,-2.27902e-06,0
-2.7648e-05,1.20931e-05,-3.83148e-06,-1.0661e-05,7.39326e-06,-1.75542e-05,2.91112e-05,-4.05027e-06,0
-2.72655e-05,1.16394e-05,-1.63511e-06,-1.12801e-05,9.15829e-06,-1.74033e-05,3.26467e-05,-3.33122e-06,0
-2.9706e-05,1.03876e-05,-2.2673e-07,-7.85175e-06,1.3445e-05,-1.72017e-05,3.28071e-05,-2.28212e-06,0
-3.08652e-05,8.44827e-06,1.27859e-07,-5.23696e-06,1.687e-05,-1.78568e-05,3.15227e-05,-1.12799e-06,0
-2.85255e-05,1.00272e-05,-9.51653e-07,-4.02812e-06,1.82394e-05,-1.78805e-05,2.78147e-05,-9.4716e-07,0
-2.59875e-05,1.38107e-05,-7.61934e-07,-2.31991e-06,1.7237e-05,-1.71496e-05,2.27823e-05,-1.6687e-06,0
-2.62756e-05,1.66447e-05,4.97205e-07,-1.15276e-06,1.49414e-05,-1.57e-05,1.99246e-05,-1.95074e-06,0
-2.71046e-05,1.61592e-05,2.30863e-07,-2.55291e-06,1.49565e-05,-1.40042e-05,1.90172e-05,-3.12054e-06,0
-2.72692e-05,1.26556e-05,-1.07541e-06,-2.15169e-06,1.8586e-05,-1.31992e-05,1.87991e-05,-3.66215e-06,0
-2.70858e-05,9.7617e-06,-1.03785e-06,5.68579e-07,2.5055e-05,-1.26789e-05,1.8967e-05,-2.99579e-06,0
-2.67401e-05,9.647e-06,-8.03947e-07,-2.29716e-07,3.02887e-05,-1.18889e-05,2.04673e-05,-1.6635e-06,0
-2.64326e-05,9.21322e-06,-2.0057e-06,-5.764e-06,3.10636e-05,-9.10481e-06,2.11656e-05,-1.22998e-06,0
-2.66642e-05,7.30049e-06,-3.50672e-06,-1.25578e-05,2.7704e-05,-6.04473e-06,1.95786e-05,-2.04127e-06,0
-2.71258e-05,5.52611e-06,-4.66502e-06,-1.79349e-05,2.3438e-05,-6.38302e-06,1.72782e-05,-2.71972e-06,0
-2.65265e-05,5.1265e-06,-4.55597e-06,-1.98798e-05,1.99551e-05,-9.71665e-06,1.55797e-05,-3.82458e-06,0
-2.52008e-05,6.4813e-06,-2.79824e-06,-1.76732e-05,1.8379e-05,-1.08507e-05,1.37649e-05,-4.56054e-06,0
-2.39633e-05,9.38543e-06,-1.13452e-06,-1.38004e-05,1.89965e-05,-7.5314e-06,1.22742e-05,-4.00894e-06,0
-2.37145e-05,1.37252e-05,-1.05714e-06,-1.01985e-05,2.12604e-05,-2.77861e-06,1.27443e-05,-4.22534e-06,0
-2.51051e-05,1.70401e-05,-1.8924e-06,-7.79845e-06,2.50131e-05,-5.40978e-07,1.50226e-05,-6.32773e-06,0
-2.78221e-05,1.75158e-05,-2.43458e-06,-5.29881e-06,2.78823e-05,-7.01582e-07,1.66505e-05,-7.52691e-06,0
-3.03645e-05,1.58676e-05,-3.01981e-06,5.06423e-06,2.79436e-05,-1.42471e-06,1.60621e-05,-5.83586e-06,0
-3.25228e-05,1.40941e-05,-3.14634e-06,2.70031e-05,2.64017e-05,-2.0846e-06,1.45408e-05,-3.43222e-06,0
-3.32173e-05,1.39541e-05,-2.02663e-06,4.32805e-05,2.62587e-05,-3.06311e-06,1.37207e-05,-3.63049e-06,0
-3.17419e-05,1.55169e-05,-7.90098e-07,3.72016e-05,2.75542e-05,-4.03448e-06,1.37271e-05,-5.88704e-06,0
-3.04104e-05,1.55281e-05,-1.03064e-07,1.71588e-05,2.73668e-05,-5.27692e-06,1.42399e-05,-6.63466e-06,0
-3.07059e-05,1.41992e-05,-5.20819e-07,-2.78052e-07,2.4167e-05,-8.14846e-06,1.46458e-05,-4.9261e-06,0
-3.09683e-05,1.22822e-05,-1.65032e-06,-9.73474e-06,2.11764e-05,-1.07988e-05,1.20762e-05,-2.48451e-06,0
-3.00729e-05,9.54322e-06,-8.12356e-07,-1.52543e-05,1.82966e-05,-1.14492e-05,9.2525e-06,-1.18146e-08,0
-2.86313e-05,7.61852e-06,-6.67708e-07,-2.04372e-05,1.47954e-05,-1.00176e-05,1.13963e-05,1.68612e-06,0
-2.84499e-05,8.28341e-06,-1.6674e-06,-2.37883e-05,1.44385e-05,-8.32576e-06,1.69448e-05,3.02197e-06,0
-2.96196e-05,9.25723e-06,-6.18564e-07,-2.39414e-05,1.57538e-05,-8.70022e-06,2.14214e-05,4.04053e-06,0
-3.10742e-05,8.18794e-06,-4.71872e-07,-2.02356e-05,1.47819e-05,-9.0075e-06,2.28704e-05,4.97051e-06,0
-3.25273e-05,5.81911e-06,-1.35611e-06,-1.25499e-05,1.33465e-05,-7.40818e-06,2.36813e-05,4.35429e-06,0
-3.33046e-05,3.70858e-06,-3.86906e-06,-5.58779e-06,1.37734e-05,-5.86419e-06,2.4337e-05,2.3213e-06,0
-3.29689e-05,2.31701e-06,-5.62847e-06,-1.33444e-06,1.28828e-05,-5.73338e-06,2.38532e-05,1.94003e-06,0
-3.24789e-05,-1.83705e-07,-3.95978e-06,1.17734e-06,9.77935e-06,-6.2199e-06,2.27518e-05,1.83334e-06,0
-3.21291e-05,-3.45621e-06,-3.64532e-07,3.26922e-07,5.9667e-06,-5.89452e-06,2.08169e-05,1.99062e-07,0
-3.11157e-05,-5.8977e-06,2.9693e-06,-5.90451e-06,2.51773e-06,-4.04323e-06,1.99329e-05,-2.7584e-06,0
-3.02801e-05,-5.72782e-06,3.80275e-06,-1.44334e-05,6.35969e-07,-1.83521e-06,2.03527e-05,-5.02025e-06,0
-3.07661e-05,-4.63775e-06,3.42042e-06,-1.97041e-05,8.02033e-07,-1.90772e-06,2.05526e-05,-4.73457e-06,0
-3.21903e-05,-3.56397e-06,2.19876e-06,-1.93408e-05,1.08743e-06,-3.55151e-06,2.05627e-05,-2.52968e-06,0
-3.29479e-05,-3.37435e-06,1.26062e-06,-1.51258e-05,-9.09474e-08,-4.49683e-06,1.96443e-05,-1.1907e-06,0
-3.25557e-05,-4.77907e-06,1.02174e-06,-1.30734e-05,-9.32814e-07,-4.10985e-06,1.72812e-05,-8.99432e-07,0
-3.10761e-05,-6.51333e-06,1.39775e-06,-1.56682e-05,-1.13656e-06,-3.71202e-06,1.57623e-05,-7.11653e-07,0
-2.94259e-05,-6.84762e-06,1.01415e-06,-1.90713e-05,-6.62566e-07,-5.006e-06,1.63548e-05,-1.46881e-06,0
-2.8604e-05,-5.87691e-06,-1.70645e-06,-2.01622e-05,2.98096e-07,-6.09612e-06,1.71995e-05,-2.32249e-06,0
-2.9239e-05,-5.38702e-06,-7.47163e-06,-2.4231e-05,1.28227e-06,-5.72301e-06,1.60256e-05,-1.67242e-06,0
-3.02737e-05,-5.59696e-06,-1.34742e-05,-3.54651e-05,1.95174e-06,-5.4723e-06,1.10529e-05,7.76425e-09,0
-3.13295e-05,-6.2731e-06,-1.6836e-05,-4.65243e-05,3.07551e-06,-6.52607e-06,2.73568e-06,2.11232e-06,0
-3.30226e-05,-5.91588e-06,-1.97443e-05,-4.88799e-05,4.87307e-06,-8.29636e-06,-4.79917e-06,4.00326e-06,0
-3.48276e-05,-3.8112e-06,-2.30655e-05,-3.97438e-05,8.38908e-06,-9.15868e-06,-7.47279e-06,5.18939e-06,0
-3.53232e-05,-4.74589e-07,-2.48741e-05,-1.79147e-05,1.54908e-05,-8.93585e-06,-6.82911e-06,6.58045e-06,0
-3.40494e-05,2.63805e-06,-2.40748e-05,1.61617e-05,2.38908e-05,-8.70273e-06,-5.65052e-06,7.55119e-06,0
-3.24496e-05,6.80047e-06,-2.02278e-05,5.35926e-05,2.97341e-05,-8.73754e-06,-2.56961e-06,5.24076e-06,0
-3.101e-05,1.21609e-05,-1.54461e-05,7.8901e-05,3.10394e-05,-8.57304e-06,3.18556e-06,7.01321e-07,0
-2.94155e-05,1.67688e-05,-1.1962e-05,8.65313e-05,2.61177e-05,-9.3685e-06,1.08281e-05,-6.47515e-07,0
-2.91695e-05,1.92781e-05,-9.43325e-06,7.78254e-05,1.82343e-05,-1.10439e-05,1.65705e-05,2.77214e-06,0
-3.00338e-05,2.00204e-05,-8.13982e-06,5.30819e-05,1.36487e-05,-1.33724e-05,1.80899e-05,5.24471e-06,0
-3.01325e-05,1.9483e-05,-7.06018e-06,2.04536e-05,1.00364e-05,-1.46687e-05,1.96921e-05,4.57114e-06,0
-3.06015e-05,1.83678e-05,-7.65932e-06,-6.91527e-06,6.04795e-06,-1.37833e-05,2.34504e-05,3.16535e-06,0
-3.06306e-05,1.91497e-05,-9.43204e-06,-2.38371e-05,4.86311e-06,-1.19154e-05,2.69907e-05,1.74939e-06,0
-2.99757e-05,1.97192e-05,-9.9419e-06,-3.6552e-05,6.10328e-06,-1.10872e-05,2.72941e-05,2.18305e-06,0
-3.00905e-05,1.97058e-05,-8.05276e-06,-4.1958e-05,8.92343e-06,-1.25002e-05,2.6135e-05,3.26524e-06,0
-3.19736e-05,1.74132e-05,-5.27158e-06,-3.05521e-05,1.32783e-05,-1.26047e-05,2.56686e-05,4.70287e-06,0
-3.34369e-05,1.45039e-05,-5.00897e-06,-7.50195e-06,1.6496e-05,-1.15862e-05,2.67752e-05,5.13964e-06,0
-3.22171e-05,1.2107e-05,-6.9536e-06,1.3979e-05,1.58883e-05,-1.07075e-05,2.76915e-05,3.87171e-06,0
-3.09607e-05,9.46521e-06,-1.00445e-05,2.31358e-05,1.30141e-05,-1.07369e-05,2.63192e-05,3.66099e-06,0
-3.12648e-05,9.9435e-06,-1.40601e-05,1.76349e-05,1.05014e-05,-1.08529e-05,2.60455e-05,9.548e-06,0
-3.2011e-05,1.26078e-05,-1.75987e-05,4.04652e-06,8.76051e-06,-1.10683e-05,2.93311e-05,2.42697e-05,0
-3.20511e-05,1.34846e-05,-1.94761e-05,-3.28651e-06,7.77631e-06,-1.16717e-05,3.41044e-05,4.02941e-05,0
-3.08025e-05,1.04906e-05,-1.99257e-05,4.76975e-06,8.63855e-06,-1.10481e-05,3.69487e-05,4.66718e-05,0
-2.93101e-05,7.6773e-06,-1.76876e-05,2.04749e-05,1.10255e-05,-9.89568e-06,3.73341e-05,4.18046e-05,0
-2.94219e-05,7.3383e-06,-1.2192e-05,3.04835e-05,1.08407e-05,-1.01495e-05,3.49097e-05,2.88995e-05,0
-3.04039e-05,8.85827e-06,-5.96903e-06,3.1513e-05,6.47375e-06,-1.19548e-05,2.90363e-05,8.10776e-06,0
-3.0627e-05,9.82127e-06,-3.53912e-06,2.66862e-05,1.60523e-06,-1.26122e-05,1.94873e-05,-1.72069e-05,0
-3.00881e-05,9.81452e-06,-6.47961e-06,1.65714e-05,-1.8679e-06,-1.23539e-05,6.93785e-06,-3.92774e-05,0
-2.96248e-05,1.02207e-05,-1.22302e-05,3.46798e-06,-2.35529e-06,-1.21973e-05,-6.69091e-06,-4.8948e-05,0
-2.98251e-05,1.2104e-05,-1.95372e-05,-6.38393e-06,2.78533e-06,-1.14299e-05,-1.85989e-05,-4.41617e-05,0
-3.09086e-05,1.44271e-05,-2.84388e-05,-1.44535e-05,1.14084e-05,-9.47287e-06,-2.71217e-05,-3.28393e-05,0
-3.18189e-05,1.55958e-05,-3.61853e-05,-2.56622e-05,1.79108e-05,-7.85097e-06,-3.08879e-05,-2.4368e-05,0
-3.17126e-05,1.61003e-05,-3.92687e-05,-3.01174e-05,2.1681e-05,-7.56536e-06,-3.01042e-05,-1.88855e-05,0
-3.05425e-05,1.81986e-05,-3.75027e-05,-2.28457e-05,2.56497e-05,-9.02804e-06,-2.58336e-05,-1.21739e-05,0
-2.97018e-05,2.06236e-05,-3.12997e-05,-1.20856e-05,3.01481e-05,-1.13144e-05,-1.80877e-05,-3.39904e-06,0
-2.99791e-05,2.21107e-05,-2.2799e-05,-6.04709e-06,3.406e-05,-1.17912e-05,-9.89458e-06,2.6767e-06,0
-3.02114e-05,2.42475e-05,-1.59831e-05,-4.99731e-06,3.4694e-05,-9.52404e-06,-3.83247e-06,4.27379e-06,0
-2.89883e-05,2.51778e-05,-9.36732e-06,-6.7678e-06,3.32459e-05,-7.28925e-06,4.29174e-06,3.75029e-06,0
-2.74225e-05,2.58496e-05,1.54167e-06,-9.74959e-06,3.12991e-05,-5.28863e-06,1.41948e-05,4.36079e-06,0
-2.75345e-05,2.53884e-05,1.6609e-05,-1.1359e-05,2.87775e-05,-4.53827e-06,2.03806e-05,6.97477e-06,0
-2.82652e-05,2.40368e-05,3.24043e-05,-1.25826e-05,2.36774e-05,-5.47164e-06,2.27359e-05,9.92276e-06,0
-2.92734e-05,2.4779e-05,4.71045e-05,-1.44428e-05,1.76521e-05,-6.17832e-06,2.36605e-05,1.11685e-05,0
-3.11063e-05,2.75501e-05,5.63756e-05,-1.59001e-05,1.54674e-05,-6.05084e-06,2.10974e-05,9.30721e-06,0
-3.23169e-05,3.03174e-05,5.46191e-05,-1.33698e-05,1.49729e-05,-4.14882e-06,7.7175e-06,7.38745e-06,0
-3.2007e-05,3.10719e-05,3.94223e-05,-8.32777e-06,1.39305e-05,-3.36191e-06,-1.12882e-05,5.02114e-06,0
-3.14943e-05,2.88996e-05,1.11438e-05,-3.26159e-06,1.26162e-05,-4.10089e-06,-2.24511e-05,1.39681e-06,0
-3.07511e-05,2.55583e-05,-2.25089e-05,-1.09364e-06,1.31419e-05,-5.38922e-06,-2.07613e-05,-1.34251e-06,0
-2.96518e-05,2.20813e-05,-5.04731e-05,-1.45181e-06,1.3768e-05,-6.91705e-06,-1.11877e-05,-2.16002e-06,0
-2.90171e-05,1.83557e-05,-6.49543e-05,-2.82685e-06,1.22945e-05,-8.78994e-06,4.64652e-07,-3.23502e-06,0
-2.91798e-05,1.60323e-05,-6.57561e-05,-5.46666e-06,9.40605e-06,-1.06859e-05,1.1952e-05,-4.10092e-06,0
-2.93988e-05,1.49258e-05,-5.93646e-05,-8.19597e-06,7.23966e-06,-1.15625e-05,2.15876e-05,-4.83307e-06,0
-3.01146e-05,1.29058e-05,-5.26236e-05,-1.00552e-05,6.07405e-06,-1.15993e-05,2.76845e-05,-5.72835e-06,0
-3.14899e-05,9.75755e-06,-4.75924e-05,-1.19977e-05,5.51913e-06,-1.12464e-05,2.92069e-05,-6.262e-06,0
-3.23448e-05,7.24709e-06,-4.0908e-05,-1.5532e-05,5.76409e-06,-1.0347e-05,2.75494e-05,-6.23763e-06,0
-3.21549e-05,4.57116e-06,-3.01225e-05,-1.82374e-05,6.56483e-06,-9.74438e-06,2.48029e-05,-4.87485e-06,0
-3.10873e-05,1.69015e-06,-1.8339e-05,-1.89694e-05,8.03585e-06,-1.03637e-05,2.15139e-05,-2.92225e-06,0
-3.09308e-05,5.8775e-07,-9.30008e-06,-1.7026e-05,9.85089e-06,-1.26675e-05,1.66176e-05,-6.34047e-07,0
-3.23375e-05,2.66052e-06,-4.37498e-06,-1.38013e-05,1.14727e-05,-1.59e-05,1.38642e-05,2.25903e-06,0
-3.32893e-05,6.5446e-06,-5.24554e-06,-1.45309e-05,1.01856e-05,-1.7185e-05,1.56551e-05,4.14168e-06,0
-3.208e-05,9.64857e-06,-1.07204e-05,-1.7557e-05,6.7601e-06,-1.6359e-05,1.76187e-05,3.5376e-06,0
-2.95101e-05,1.39683e-05,-1.73213e-05,-1.70918e-05,4.7312e-06,-1.50289e-05,1.61453e-05,2.32363e-06,0
-2.81404e-05,1.85324e-05,-2.18925e-05,-1.51919e-05,5.63153e-06,-1.51362e-05,1.04259e-05,2.20411e-06,0
-2.99535e-05,1.99375e-05,-2.27654e-05,-1.69817e-05,8.70083e-06,-1.5255e-05,5.7194e-06,1.41229e-06,0
-3.21646e-05,2.16055e-05,-1.77483e-05,-2.40176e-05,1.15617e-05,-1.39817e-05,6.79749e-06,-1.49534e-07,0
-3.13402e-05,2.52308e-05,-8.2836e-06,-2.55135e-05,1.17654e-05,-1.33206e-05,1.13275e-05,9.86889e-07,0
-2.94045e-05,2.85563e-05,-5.47904e-08,-1.11933e-05,1.14707e-05,-1.41988e-05,1.6962e-05,2.28766e-06,0
-2.91214e-05,3.04274e-05,2.63702e-06,1.36461e-05,1.05552e-05,-1.63996e-05,2.05479e-05,2.41075e-06,0
-2.80762e-05,3.02823e-05,1.83098e-07,3.3475e-05,7.77763e-06,-1.84106e-05,2.20107e-05,1.59667e-06,0
-2.5974e-05,2.95932e-05,-1.94628e-06,3.90236e-05,5.80714e-06,-1.78939e-05,2.17567e-05,7.8223e-07,0
-2.47774e-05,2.78335e-05,-2.63405e-06,3.2393e-05,5.92288e-06,-1.58222e-05,2.04446e-05,9.10277e-07,0
-2.54666e-05,2.28177e-05,-2.41409e-06,1.89117e-05,7.55702e-06,-1.48423e-05,1.99953e-05,1.98277e-06,0
-2.77611e-05,1.69892e-05,-1.20618e-06,5.33942e-06,8.56071e-06,-1.32047e-05,2.06393e-05,3.89516e-06,0
-2.85856e-05,1.19129e-05,1.21744e-06,-4.55819e-06,8.74963e-06,-1.00808e-05,2.22646e-05,4.91082e-06,0
-2.74918e-05,6.0499e-06,4.25783e-06,-1.28673e-05,8.02057e-06,-8.07214e-06,2.45809e-05,5.08608e-06,0
-2.55369e-05,1.77113e-06,6.69027e-06,-1.93966e-05,7.45431e-06,-7.88326e-06,2.70844e-05,4.41357e-06,0
-2.50854e-05,2.18186e-06,7.76798e-06,-2.28804e-05,7.82228e-06,-7.76725e-06,2.74667e-05,4.02768e-06,0
-2.61969e-05,6.50033e-06,7.60988e-06,-2.70295e-05,8.44057e-06,-7.54854e-06,2.58402e-05,4.52329e-06,0
-2.76548e-05,1.06129e-05,7.49809e-06,-3.2708e-05,9.23262e-06,-7.78385e-06,2.32663e-05,5.363e-06,0
-2.91213e-05,1.17768e-05,6.47383e-06,-3.41909e-05,1.00494e-05,-7.97867e-06,2.08132e-05,5.3859e-06,0
-3.07806e-05,1.2368e-05,4.90804e-06,-2.18151e-05,1.07192e-05,-7.3604e-06,1.88892e-05,4.4102e-06,0
-3.24512e-05,1.45445e-05,4.17567e-06,6.8173e-06,1.11934e-05,-6.75531e-06,1.74683e-05,3.39783e-06,0
-3.24712e-05,1.7171e-05,4.28356e-06,3.7708e-05,1.11995e-05,-7.59199e-06,1.61763e-05,3.10838e-06,0
-3.16216e-05,1.96488e-05,4.48619e-06,4.93901e-05,8.76627e-06,-8.83821e-06,1.4297e-05,2.02577e-06,0
-3.10544e-05,2.10205e-05,4.97237e-06,3.74066e-05,5.33973e-06,-9.73357e-06,1.23369e-05,-3.74859e-07,0
-3.08221e-05,2.07892e-05,7.40522e-06,1.67735e-05,4.62263e-06,-9.96961e-06,1.01076e-05,-2.53227e-06,0
-3.15232e-05,1.95848e-05,1.15387e-05,-4.32949e-08,6.22354e-06,-9.25606e-06,5.33072e-06,-2.66908e-06,0
-3.2578e-05,1.69367e-05,1.30963e-05,-1.35255e-05,7.83332e-06,-8.24046e-06,1.98237e-06,2.9311e-07,0
-3.34414e-05,1.50191e-05,1.2043e-05,-2.44011e-05,9.12492e-06,-7.6151e-06,5.75395e-06,3.50296e-06,0
-3.42223e-05,1.2143e-05,8.94908e-06,-3.21125e-05,9.31933e-06,-7.64086e-06,1.36035e-05,3.98576e-06,0
-3.42556e-05,8.10283e-06,5.83799e-06,-3.67927e-05,7.31833e-06,-1.0679e-05,2.0506e-05,3.62705e-06,0
-3.38507e-05,4.64103e-06,6.20178e-06,-3.96185e-05,6.11242e-06,-1.42732e-05,2.55121e-05,4.51037e-06,0
-3.27118e-05,1.57649e-06,7.68906e-06,-4.05581e-05,7.18271e-06,-1.51259e-05,2.66624e-05,5.02187e-06,0
-3.08905e-05,1.60453e-06,7.46635e-06,-3.70649e-05,6.14571e-06,-1.56639e-05,2.19148e-05,4.42797e-06,0
-2.93752e-05,3.73072e-06,4.08444e-06,-2.28076e-05,2.64459e-06,-1.6692e-05,1.37779e-05,3.91005e-06,0
-2.82669e-05,4.57094e-06,-7.7509e-07,2.05369e-07,6.50608e-08,-1.79574e-05,5.17888e-06,3.34972e-06,0
-2.77986e-05,3.33398e-06,-5.36513e-06,1.39195e-05,8.31648e-08,-1.85185e-05,-2.60536e-06,2.23511e-06,0
-2.93534e-05,2.07392e-06,-7.47017e-06,6.45229e-06,1.54917e-06,-1.80527e-05,-1.102e-05,1.73612e-06,0
-3.15649e-05,2.00924e-06,-6.94402e-06,-1.61286e-05,2.74211e-06,-1.68528e-05,-2.26689e-05,1.77463e-06,0
-3.19662e-05,3.26953e-06,-7.31718e-06,-3.70105e-05,5.37139e-06,-1.6344e-05,-3.38641e-05,1.24397e-06,0
-3.10508e-05,3.85739e-06,-1.02148e-05,-5.00244e-05,1.05391e-05,-1.68824e-05,-3.5779e-05,1.58969e-07,0
-3.08506e-05,4.23032e-06,-1.33366e-05,-5.4859e-05,1.51569e-05,-1.68922e-05,-2.73331e-05,-1.03563e-07,0
-3.11534e-05,4.93187e-06,-1.52929e-05,-5.39325e-05,1.61262e-05,-1.56172e-05,-1.28638e-05,5.21701e-07,0
-3.05883e-05,5.10611e-06,-1.67409e-05,-5.31172e-05,1.49185e-05,-1.33871e-05,1.4563e-06,1.06056e-06,0
-2.96067e-05,5.74218e-06,-1.74868e-05,-5.62696e-05,1.48635e-05,-1.13891e-05,1.36126e-05,1.12323e-06,0
-2.87056e-05,8.166e-06,-1.74783e-05,-6.02723e-05,1.67299e-05,-1.06725e-05,2.41843e-05,8.36318e-07,0
-2.77769e-05,1.18256e-05,-1.72783e-05,-5.81796e-05,1.8531e-05,-1.06029e-05,3.19656e-05,4.83171e-07,0
-2.7363e-05,1.37517e-05,-1.76804e-05,-4.53363e-05,1.89155e-05,-9.42033e-06,3.58087e-05,4.55998e-07,0
-2.87027e-05,1.34545e-05,-1.77195e-05,-2.07986e-05,1.82993e-05,-7.29933e-06,3.56675e-05,7.35669e-07,0
-3.11481e-05,1.23426e-05,-1.66492e-05,1.07392e-05,1.7376e-05,-5.05973e-06,3.27437e-05,1.95498e-07,0
-3.34897e-05,1.14993e-05,-1.5128e-05,3.95864e-05,1.71293e-05,-4.50903e-06,2.75077e-05,-1.46993e-06,0
-3.46697e-05,1.12213e-05,-1.44918e-05,5.46236e-05,1.75059e-05,-5.66333e-06,2.31468e-05,-3.6984e-06,0
-3.43911e-05,1.16798e-05,-1.42298e-05,5.49246e-05,1.69666e-05,-6.82111e-06,2.22362e-05,-5.74406e-06,0
-3.36103e-05,1.24545e-05,-1.44851e-05,4.82911e-05,1.75234e-05,-7.14578e-06,2.26298e-05,-7.14502e-06,0
-3.20127e-05,1.53714e-05,-1.61291e-05,3.9357e-05,1.99569e-05,-6.16124e-06,2.16707e-05,-7.31983e-06,0
-3.00063e-05,1.84873e-05,-1.68536e-05,2.93737e-05,2.13328e-05,-5.4984e-06,2.04464e-05,-5.80024e-06,0
-2.92242e-05,1.95667e-05,-1.56359e-05,1.95109e-05,2.00777e-05,-6.11817e-06,2.03364e-05,-3.9622e-06,0
-2.98504e-05,1.94343e-05,-1.43656e-05,1.28537e-05,1.7085e-05,-6.28489e-06,2.2431e-05,-4.03987e-06,0
-3.04214e-05,1.97149e-05,-1.54945e-05,1.55996e-05,1.56e-05,-5.64524e-06,2.26833e-05,-4.94277e-06,0
-3.05709e-05,2.04959e-05,-1.70354e-05,1.80079e-05,1.58078e-05,-4.52979e-06,2.00083e-05,-4.44189e-06,0
-3.21877e-05,1.94804e-05,-1.69476e-05,1.06119e-05,1.49269e-05,-3.26221e-06,1.79515e-05,-2.81075e-06,0
-3.39908e-05,1.73795e-05,-1.70881e-05,-1.8572e-06,1.21699e-05,-2.99704e-06,1.67985e-05,-5.7867e-07,0
-3.41153e-05,1.60443e-05,-1.74401e-05,-1.2811e-05,1.00026e-05,-3.78675e-06,1.64091e-05,1.15633e-06,0
-3.20303e-05,1.71206e-05,-1.74535e-05,-1.55994e-05,1.1323e-05,-4.36599e-06,1.59517e-05,1.40218e-06,0
-2.97725e-05,1.83452e-05,-1.60944e-05,-9.39358e-06,1.32299e-05,-4.6119e-06,1.33598e-05,1.9126e-06,0
-2.84226e-05,1.73352e-05,-1.37418e-05,-2.5186e-06,1.2285e-05,-6.10529e-06,8.47196e-06,4.32115e-06,0
-2.70066e-05,1.53547e-05,-1.23805e-05,-1.88016e-07,9.62592e-06,-8.47037e-06,4.95174e-06,7.24944e-06,0
-2.68002e-05,1.39581e-05,-1.24282e-05,1.49627e-06,9.02267e-06,-1.04122e-05,5.14421e-06,8.06944e-06,0
-2.73061e-05,1.17286e-05,-1.28171e-05,8.63738e-06,1.04567e-05,-1.11533e-05,8.40528e-06,6.9502e-06,0
-2.84188e-05,8.91371e-06,-1.32979e-05,2.38881e-05,1.03605e-05,-1.06755e-05,1.19719e-05,5.20301e-06,0
-3.00021e-05,7.18809e-06,-1.34044e-05,4.18762e-05,9.02732e-06,-8.80797e-06,1.41648e-05,3.71219e-06,0
-3.13364e-05,6.60252e-06,-1.25477e-05,5.51268e-05,9.12988e-06,-7.0355e-06,1.53478e-05,4.35428e-06,0
-3.18239e-05,7.6612e-06,-1.06382e-05,6.01412e-05,1.06014e-05,-7.07462e-06,1.7636e-05,7.86373e-06,0
-3.14855e-05,9.72615e-06,-7.9993e-06,5.82801e-05,1.17297e-05,-7.99766e-06,2.02968e-05,1.15179e-05,0
-3.0608e-05,1.0588e-05,-6.57376e-06,4.94861e-05,1.27318e-05,-9.30065e-06,2.10686e-05,1.19764e-05,0
-2.94756e-05,9.92444e-06,-7.40037e-06,3.18394e-05,1.29167e-05,-9.85187e-06,1.97516e-05,9.09823e-06,0
-2.87401e-05,8.6796e-06,-9.92891e-06,3.36462e-06,1.15547e-05,-8.20675e-06,1.68791e-05,3.93071e-06,0
-2.92668e-05,7.74029e-06,-1.23878e-05,-3.06348e-05,9.47931e-06,-5.27487e-06,1.49197e-05,-9.1096e-07,0
-3.02002e-05,6.04761e-06,-1.25505e-05,-5.58405e-05,8.64943e-06,-3.14766e-06,1.46523e-05,-1.68777e-06,0
-2.98989e-05,3.00346e-06,-1.10377e-05,-6.75158e-05,9.91545e-06,-2.8365e-06,1.49625e-05,-1.23676e-06,0
-2.77336e-05,1.93382e-06,-9.38402e-06,-7.56752e-05,1.16203e-05,-2.43381e-06,1.52478e-05,-2.7943e-06,0
-2.58817e-05,3.6085e-06,-8.29339e-06,-8.29073e-05,1.13312e-05,-1.44468e-06,1.38988e-05,-3.50702e-06,0
-2.686e-05,5.69243e-06,-9.80122e-06,-7.65528e-05,1.02809e-05,-2.59753e-06,1.1419e-05,-3.23683e-06,0
-2.96203e-05,6.14179e-06,-1.12507e-05,-4.29805e-05,9.11296e-06,-4.42884e-06,7.96184e-06,-3.15533e-06,0
-3.24868e-05,6.38392e-06,-1.01857e-05,2.75938e-06,7.66799e-06,-5.53513e-06,2.71348e-06,-3.47438e-06,0
-3.38496e-05,8.02642e-06,-8.21126e-06,3.47066e-05,9.787e-06,-5.92979e-06,-2.40719e-06,-3.55828e-06,0
-3.39038e-05,1.17298e-05,-7.52834e-06,4.55655e-05,1.63287e-05,-5.69695e-06,-5.05859e-06,-3.97943e-06,0
-3.2836e-05,1.33184e-05,-6.56622e-06,4.15377e-05,2.20725e-05,-5.61577e-06,-2.91526e-06,-4.06702e-06,0
-3.128e-05,1.26586e-05,-5.95293e-06,3.04613e-05,2.33909e-05,-5.94904e-06,5.90164e-07,-2.96354e-06,0
-2.99742e-05,1.30889e-05,-6.70264e-06,1.18688e-05,1.96394e-05,-7.99541e-06,2.23655e-06,-1.71998e-06,0
-2.9301e-05,1.4053e-05,-5.60584e-06,-6.74395e-06,1.30089e-05,-9.33571e-06,2.83422e-06,-2.6057e-07,0
-2.8914e-05,1.52829e-05,-4.42433e-06,-1.75906e-05,9.45839e-06,-8.84176e-06,4.1889e-06,1.70988e-06,0
-2.89632e-05,1.42993e-05,-5.55969e-06,-1.9134e-05,1.04852e-05,-7.94084e-06,5.95209e-06,4.16527e-06,0
-2.93981e-05,1.14826e-05,-8.71611e-06,-1.74494e-05,1.3457e-05,-6.72611e-06,4.97214e-06,4.9365e-06,0
-3.08366e-05,7.91617e-06,-1.15388e-05,-1.9403e-05,1.56937e-05,-6.06122e-06,2.09852e-06,4.05807e-06,0
-3.27113e-05,4.79673e-06,-1.26427e-05,-2.90247e-05,1.73571e-05,-6.31844e-06,2.71651e-06,2.49066e-06,0
-3.29352e-05,3.67347e-06,-1.11843e-05,-4.41968e-05,2.00987e-05,-6.17928e-06,7.9754e-06,6.90194e-07,0
-3.1197e-05,4.83914e-06,-9.03468e-06,-5.95059e-05,2.33246e-05,-3.64504e-06,1.30456e-05,-1.62603e-06,0
-2.85685e-05,7.35468e-06,-8.10725e-06,-7.15164e-05,2.54755e-05,-6.43631e-07,1.5383e-05,-3.52626e-06,0
-2.76269e-05,1.00089e-05,-9.16888e-06,-7.35819e-05,2.61506e-05,2.77808e-07,1.56078e-05,-4.1754e-06,0
-2.8465e-05,1.1723e-05,-1.10454e-05,-5.9246e-05,2.52459e-05,-6.33873e-07,1.58649e-05,-4.2194e-06,0
-2.9665e-05,1.19702e-05,-1.08585e-05,-2.76993e-05,2.27533e-05,-1.68817e-06,1.66238e-05,-3.85296e-06,0
-2.96649e-05,1.26039e-05,-7.96475e-06,1.04331e-05,1.91645e-05,-1.26291e-06,1.70258e-05,-2.52584e-06,0
-2.92308e-05,1.52051e-05,-3.68857e-06,4.38281e-05,1.53736e-05,-8.45311e-08,1.42956e-05,-1.31024e-07,0
-2.8588e-05,1.70917e-05,-4.99631e-07,6.62883e-05,1.28334e-05,1.24058e-07,2.74851e-06,1.83237e-06,0
-2.75238e-05,1.65032e-05,1.35922e-06,7.56346e-05,1.17052e-05,-1.58094e-06,-2.03098e-05,2.45427e-06,0
