ch1,ch2,ch3,ch4,ch5,ch6,ch7,ch8,class
-3.21112e-05,-3.74748e-06,3.43997e-06,2.86252e-05,1.24992e-05,-3.56937e-06,-3.40062e-06,-6.42914e-06,0
-3.27121e-05,-3.04633e-06,2.76925e-06,2.30558e-05,1.09511e-05,-4.84396e-06,-8.35193e-06,-6.14278e-06,0
-3.21596e-05,-2.85464e-06,1.87975e-06,1.17416e-05,7.8938e-06,-6.3314e-06,-1.00329e-05,-5.11391e-06,0
-3.17815e-05,-2.32753e-06,1.20798e-06,-1.45971e-07,5.36677e-06,-7.05793e-06,-8.73961e-06,-4.0873e-06,0
-3.22504e-05,-1.35141e-06,1.77967e-06,-9.81051e-06,4.7869e-06,-7.21927e-06,-7.29344e-06,-2.54024e-06,0
-3.20799e-05,-6.55434e-08,2.55955e-06,-1.84623e-05,5.40407e-06,-7.06797e-06,-6.13173e-06,3.19869e-08,0
-3.09477e-05,2.52117e-06,2.30443e-06,-2.32369e-05,6.10396e-06,-7.1599e-06,-3.77661e-06,2.38781e-06,0
-3.00314e-05,6.55217e-06,-1.9997e-07,-2.26418e-05,7.33976e-06,-7.94678e-06,-1.23712e-06,3.5319e-06,0
-2.96969e-05,1.06e-05,-3.47428e-06,-2.05993e-05,9.40649e-06,-8.53465e-06,1.37135e-07,4.17159e-06,0
-2.8445e-05,1.47485e-05,-4.21624e-06,-1.95898e-05,1.04333e-05,-8.24957e-06,2.69853e-06,4.71884e-06,0
-2.72199e-05,1.91996e-05,-2.33158e-06,-1.8607e-05,1.10487e-05,-7.58228e-06,9.13256e-06,5.24215e-06,0
-2.69661e-05,2.28357e-05,-1.12176e-06,-1.69683e-05,1.23839e-05,-8.07725e-06,1.69884e-05,5.77383e-06,0
-2.67488e-05,2.33769e-05,-1.61138e-06,-1.60605e-05,1.30089e-05,-1.02447e-05,2.26731e-05,5.4069e-06,0
-2.56148e-05,2.15841e-05,-1.56461e-06,-1.71246e-05,1.09342e-05,-1.31672e-05,2.35364e-05,4.83332e-06,0
-2.5167e-05,1.99101e-05,3.00003e-07,-1.86367e-05,8.73939e-06,-1.47955e-05,2.01397e-05,4.53339e-06,0
-2.58259e-05,1.95327e-05,2.75619e-06,-1.69809e-05,8.47075e-06,-1.45601e-05,1.37198e-05,4.53201e-06,0
-2.63899e-05,2.02955e-05,2.86885e-06,-9.7995e-06,9.30395e-06,-1.45211e-05,4.61269e-06,4.4501e-06,0
-2.65304e-05,1.89519e-05,-1.03e-07,4.31907e-06,1.13955e-05,-1.46926e-05,-3.2171e-06,3.8315e-06,0
-2.70562e-05,1.21641e-05,-3.61345e-06,2.39222e-05,1.27769e-05,-1.33385e-05,-7.44851e-06,2.60284e-06,0
-2.81919e-05,4.85528e-06,-5.84135e-06,3.69207e-05,1.21479e-05,-1.1705e-05,-9.1324e-06,1.85205e-06,0
-2.87774e-05,2.46452e-06,-5.50089e-06,3.44063e-05,1.18938e-05,-1.14832e-05,-8.89833e-06,4.75369e-07,0
-2.83838e-05,4.79368e-06,-4.60072e-06,2.31152e-05,1.11501e-05,-1.13948e-05,-6.75375e-06,5.79672e-07,0
-2.79792e-05,8.64373e-06,-4.1345e-06,1.44933e-05,9.9927e-06,-9.8775e-06,-3.62671e-06,3.08557e-06,0
-2.63551e-05,1.03942e-05,-4.33795e-06,1.0512e-05,1.08772e-05,-7.97854e-06,-9.61957e-07,3.77667e-06,0
-2.43769e-05,9.87535e-06,-4.98649e-06,7.39995e-06,1.45364e-05,-7.20382e-06,9.9122e-07,3.63163e-06,0
-2.46435e-05,7.46208e-06,-6.89136e-06,1.60904e-06,1.77828e-05,-7.38292e-06,3.29827e-06,3.83061e-06,0
-2.70275e-05,2.64414e-06,-9.4432e-06,-1.12109e-05,1.54873e-05,-7.46969e-06,6.39179e-06,5.68052e-06,0
-2.89879e-05,-2.15469e-06,-8.92409e-06,-2.65763e-05,1.01975e-05,-8.08249e-06,9.52942e-06,7.70872e-06,0
-2.92415e-05,-3.7462e-06,-7.86708e-06,-3.8073e-05,5.98457e-06,-9.10641e-06,1.25697e-05,8.01145e-06,0
-2.89546e-05,-3.30595e-06,-7.91526e-06,-3.90902e-05,2.62392e-06,-1.04984e-05,1.63141e-05,6.80085e-06,0
-2.89227e-05,-2.82405e-06,-9.02122e-06,-2.96106e-05,-2.60498e-07,-1.23317e-05,2.04455e-05,4.32797e-06,0
-2.96529e-05,-3.27849e-06,-9.19383e-06,-1.36454e-05,-8.03217e-07,-1.35874e-05,2.27758e-05,2.69483e-06,0
-3.00235e-05,-2.70361e-06,-7.53488e-06,2.77742e-06,9.45e-07,-1.40191e-05,2.26734e-05,1.27645e-06,0
-2.95648e-05,1.25384e-06,-5.91438e-06,8.90245e-06,1.56631e-06,-1.40853e-05,2.13388e-05,-9.80757e-07,0
-2.82817e-05,6.40159e-06,-4.85921e-06,1.74958e-06,4.43727e-07,-1.3391e-05,1.90172e-05,-1.7432e-06,0
-2.70256e-05,9.01396e-06,-3.85213e-06,-1.35347e-05,2.4053e-07,-1.15539e-05,1.76676e-05,-1.57717e-07,0
-2.63673e-05,9.38112e-06,-2.54527e-06,-3.04464e-05,3.53626e-06,-9.78935e-06,1.85911e-05,1.24958e-06,0
-2.63873e-05,9.25959e-06,-2.02757e-06,-4.37237e-05,1.02819e-05,-8.50566e-06,2.01524e-05,9.6899e-07,0
-2.66624e-05,1.09098e-05,-2.70364e-06,-4.38825e-05,1.83662e-05,-7.73446e-06,2.0691e-05,-7.81171e-07,0
-2.68574e-05,1.56982e-05,-4.19959e-06,-3.02939e-05,2.5224e-05,-7.04161e-06,1.97648e-05,-2.80865e-06,0
-2.67093e-05,1.96457e-05,-5.19887e-06,-1.45135e-05,2.88759e-05,-6.53595e-06,1.74404e-05,-4.36315e-06,0
-2.73298e-05,1.9221e-05,-4.28226e-06,-6.71411e-06,2.76929e-05,-6.97247e-06,1.45673e-05,-3.97214e-06,0
-2.95124e-05,1.79845e-05,-2.86813e-06,-7.10124e-06,2.19209e-05,-7.90028e-06,1.34416e-05,-1.52754e-06,0
-3.1069e-05,2.00822e-05,-2.7372e-06,-1.37109e-05,1.46891e-05,-8.07504e-06,1.35419e-05,-3.37162e-07,0
-2.98052e-05,2.34014e-05,-2.09804e-06,-2.40116e-05,1.02164e-05,-7.07756e-06,1.32878e-05,-1.77122e-06,0
-2.73165e-05,2.64266e-05,-1.61053e-06,-3.06653e-05,8.88973e-06,-5.70458e-06,1.29469e-05,-4.6829e-06,0
-2.72356e-05,2.9574e-05,-3.36775e-06,-2.92864e-05,7.11746e-06,-6.44444e-06,1.32041e-05,-6.95361e-06,0
-2.8555e-05,3.34037e-05,-4.63542e-06,-2.03019e-05,7.23472e-06,-8.70949e-06,1.3852e-05,-7.26597e-06,0
-2.9608e-05,3.78604e-05,-3.6648e-06,-9.08106e-06,1.04417e-05,-7.9927e-06,1.22842e-05,-6.51927e-06,0
-2.9251e-05,4.06384e-05,-2.93688e-06,-5.72238e-07,1.29367e-05,-4.7226e-06,8.87244e-06,-6.92984e-06,0
-2.79421e-05,3.89589e-05,-4.29857e-06,3.52504e-06,1.45642e-05,-4.13376e-06,6.42298e-06,-6.89751e-06,0
-2.72956e-05,3.35405e-05,-7.5413e-06,3.23183e-06,1.52868e-05,-6.04708e-06,4.66958e-06,-5.18085e-06,0
-2.76259e-05,2.4397e-05,-9.34824e-06,1.62362e-06,1.51069e-05,-7.51685e-06,4.88788e-06,-4.85189e-06,0
-2.73995e-05,1.34706e-05,-7.92864e-06,1.32088e-06,1.48139e-05,-9.00738e-06,6.26691e-06,-4.78309e-06,0
-2.71105e-05,6.44222e-06,-5.99219e-06,4.93859e-06,1.35363e-05,-1.02539e-05,7.44389e-06,-4.35755e-06,0
-2.88152e-05,2.09635e-06,-6.13018e-06,1.48194e-05,1.12234e-05,-1.05774e-05,8.52837e-06,-4.58829e-06,0
-2.99265e-05,-3.1735e-07,-6.59271e-06,2.88776e-05,8.98332e-06,-1.05695e-05,1.05315e-05,-5.98044e-06,0
-2.91659e-05,-4.97269e-08,-5.64251e-06,3.91668e-05,8.7335e-06,-1.04088e-05,1.42752e-05,-6.94942e-06,0
-2.85053e-05,2.48358e-06,-4.54151e-06,4.1164e-05,1.04821e-05,-8.84643e-06,1.66984e-05,-5.44638e-06,0
-2.94783e-05,5.90287e-06,-4.03123e-06,3.67332e-05,1.21288e-05,-6.68077e-06,1.65946e-05,-2.90449e-06,0
-3.09406e-05,9.40993e-06,-4.44307e-06,2.99357e-05,1.35162e-05,-6.09882e-06,1.53004e-05,-1.77581e-06,0
-3.25638e-05,1.19738e-05,-6.09041e-06,2.23051e-05,1.67081e-05,-6.89255e-06,1.45267e-05,-2.84818e-06,0
-3.42944e-05,1.35315e-05,-8.13563e-06,1.34964e-05,2.02643e-05,-8.36304e-06,1.47575e-05,-3.93361e-06,0
-3.42838e-05,1.84338e-05,-8.40773e-06,4.86488e-06,2.09978e-05,-1.03033e-05,1.29405e-05,-4.44707e-06,0
-3.20553e-05,2.72122e-05,-6.12678e-06,-4.25926e-06,2.03501e-05,-1.15305e-05,6.19701e-06,-4.65961e-06,0
-3.0371e-05,3.38267e-05,-4.19103e-06,-1.66018e-05,2.04562e-05,-1.05878e-05,-9.11882e-07,-3.75716e-06,0
-3.09363e-05,3.27953e-05,-5.39438e-06,-3.2278e-05,2.00714e-05,-9.40829e-06,-2.51353e-06,-1.04153e-06,0
-3.08604e-05,2.43985e-05,-7.84327e-06,-4.28572e-05,1.66661e-05,-1.01874e-05,2.25634e-06,1.99716e-06,0
-2.98929e-05,1.25561e-05,-9.53912e-06,-4.24267e-05,1.26937e-05,-1.15933e-05,1.12268e-05,2.83229e-06,0
-3.04037e-05,1.7085e-06,-9.88742e-06,-3.44858e-05,1.1464e-05,-1.22166e-05,2.10643e-05,1.41302e-06,0
-3.13695e-05,-7.68711e-06,-9.31791e-06,-2.44609e-05,1.14877e-05,-1.1827e-05,2.79428e-05,4.46748e-07,0
-3.14928e-05,-1.42229e-05,-7.59532e-06,-1.67047e-05,9.92589e-06,-1.08691e-05,3.01867e-05,1.69719e-06,0
-3.22956e-05,-1.7762e-05,-6.54287e-06,-1.39897e-05,7.20016e-06,-9.434e-06,3.00188e-05,3.38665e-06,0
-3.33672e-05,-2.08e-05,-8.03422e-06,-1.49305e-05,6.17855e-06,-9.66263e-06,2.91717e-05,3.78939e-06,0
-3.31593e-05,-2.62096e-05,-8.38197e-06,-1.66328e-05,5.28192e-06,-1.0916e-05,2.67444e-05,2.81486e-06,0
-3.19371e-05,-2.99184e-05,-9.93943e-06,-1.51718e-05,4.83672e-06,-1.15664e-05,2.26151e-05,2.55372e-06,0
-3.12226e-05,-2.60758e-05,-1.63103e-05,-1.22246e-05,7.34334e-06,-1.18622e-05,1.86059e-05,4.71128e-06,0
-3.07659e-05,-1.69733e-05,-2.13273e-05,-8.32017e-06,1.20096e-05,-1.13e-05,1.72481e-05,6.49005e-06,0
-2.98694e-05,-5.22921e-06,-2.04118e-05,-1.92912e-06,1.99578e-05,-9.85404e-06,1.8673e-05,6.51171e-06,0
-2.94761e-05,1.90754e-06,-1.66907e-05,4.5497e-06,2.69115e-05,-8.0327e-06,1.89038e-05,5.97396e-06,0
-2.93572e-05,4.77318e-06,-1.36675e-05,6.97905e-06,2.89638e-05,-7.20475e-06,1.72293e-05,6.42689e-06,0
-2.92809e-05,8.45707e-06,-1.25535e-05,4.56329e-06,2.91142e-05,-6.91923e-06,1.57565e-05,5.94436e-06,0
-2.94816e-05,1.26651e-05,-1.25577e-05,1.56302e-06,2.75779e-05,-6.81024e-06,1.51356e-05,5.16437e-06,0
-2.98306e-05,1.69835e-05,-1.15474e-05,5.05004e-07,2.52241e-05,-5.94849e-06,1.52213e-05,6.18885e-06,0
-3.03812e-05,1.95665e-05,-9.51206e-06,4.21034e-06,2.38265e-05,-5.01182e-06,1.54359e-05,9.4711e-06,0
-3.13993e-05,2.18354e-05,-6.88553e-06,8.99809e-06,2.18459e-05,-4.44742e-06,1.57053e-05,1.25197e-05,0
-3.15079e-05,2.46637e-05,-4.46758e-06,8.22212e-06,1.86211e-05,-4.95874e-06,1.57715e-05,1.11061e-05,0
-3.01285e-05,2.78126e-05,-2.98948e-06,1.38826e-06,1.6347e-05,-5.80027e-06,1.55674e-05,7.13023e-06,0
-2.83108e-05,3.00872e-05,-3.46206e-06,-6.26533e-06,1.59394e-05,-5.64786e-06,1.48869e-05,4.71259e-06,0
-2.75463e-05,3.13533e-05,-4.54642e-06,-1.21054e-05,1.53459e-05,-4.99048e-06,1.43435e-05,5.0375e-06,0
-2.82338e-05,3.18684e-05,-3.89664e-06,-1.75929e-05,1.33746e-05,-3.58412e-06,1.51978e-05,5.09037e-06,0
-2.91946e-05,3.17515e-05,-3.05728e-06,-2.32987e-05,1.1158e-05,-2.09176e-06,1.6933e-05,5.04198e-06,0
-2.99815e-05,3.03236e-05,-4.09853e-06,-2.63841e-05,1.07299e-05,-1.07363e-06,1.6704e-05,4.33141e-06,0
-3.12073e-05,2.64931e-05,-6.66662e-06,-2.21866e-05,1.2362e-05,-1.361e-06,1.28726e-05,2.49488e-06,0
-3.28195e-05,2.23627e-05,-8.22495e-06,-9.56184e-06,1.40046e-05,-2.89599e-06,7.65016e-06,-4.54077e-07,0
-3.25132e-05,2.05829e-05,-8.28631e-06,2.19101e-06,1.47364e-05,-3.77489e-06,4.69654e-06,-3.389e-06,0
-3.13386e-05,2.13646e-05,-7.629e-06,6.43706e-07,1.33346e-05,-2.2966e-06,5.3745e-06,-5.03651e-06,0
-3.11699e-05,2.19064e-05,-6.71171e-06,-9.75872e-06,1.01969e-05,-1.02953e-06,8.26253e-06,-5.66838e-06,0
-3.16665e-05,2.13986e-05,-6.15952e-06,-1.95473e-05,8.17081e-06,-8.29955e-07,1.19597e-05,-5.42702e-06,0
-3.23456e-05,1.82218e-05,-7.0422e-06,-2.75166e-05,7.9879e-06,-8.13234e-07,1.43059e-05,-5.53572e-06,0
-3.18435e-05,1.44719e-05,-9.43762e-06,-3.32142e-05,8.406e-06,-4.16815e-07,1.5727e-05,-6.28201e-06,0
-3.14865e-05,1.46454e-05,-1.31198e-05,-3.8797e-05,7.70311e-06,-5.40321e-07,1.72134e-05,-6.46039e-06,0
-3.18765e-05,1.78062e-05,-1.46354e-05,-3.55005e-05,6.37585e-06,-1.70019e-06,1.82732e-05,-5.12448e-06,0
-3.3029e-05,2.05924e-05,-1.41235e-05,-1.14016e-05,5.37017e-06,-3.8175e-06,1.94561e-05,-2.44211e-06,0
-3.35904e-05,2.32841e-05,-1.37778e-05,2.75543e-05,5.50424e-06,-6.19893e-06,1.99456e-05,9.65725e-07,0
-3.17416e-05,2.42474e-05,-1.23199e-05,6.34831e-05,7.91128e-06,-6.35481e-06,1.96081e-05,3.72553e-06,0
-2.96671e-05,2.13608e-05,-1.0854e-05,7.92822e-05,1.26154e-05,-5.80878e-06,1.78774e-05,4.82076e-06,0
-2.8618e-05,1.64156e-05,-1.11605e-05,7.25582e-05,1.67076e-05,-5.92955e-06,1.57721e-05,5.02554e-06,0
-2.86716e-05,1.09002e-05,-1.56808e-05,5.20468e-05,1.58045e-05,-5.85715e-06,1.23427e-05,5.87871e-06,0
-2.91724e-05,7.12918e-06,-2.25214e-05,3.0102e-05,1.21036e-05,-6.82702e-06,5.82145e-07,7.18245e-06,0
-2.96748e-05,4.71393e-06,-2.73488e-05,1.37371e-05,9.43106e-06,-9.39518e-06,-1.59112e-05,8.87327e-06,0
-2.93471e-05,4.17542e-06,-2.59989e-05,3.23978e-06,8.00798e-06,-1.07581e-05,-2.51423e-05,9.74792e-06,0
-2.90262e-05,5.06321e-06,-2.12265e-05,-4.47793e-06,6.74585e-06,-1.0826e-05,-2.3097e-05,1.03878e-05,0
-2.87518e-05,6.19517e-06,-1.77468e-05,-1.08499e-05,5.09292e-06,-1.11252e-05,-1.20043e-05,1.03953e-05,0
-2.86992e-05,7.07511e-06,-1.68608e-05,-1.43902e-05,3.6447e-06,-1.26391e-05,3.23217e-06,8.51584e-06,0
-2.97449e-05,6.96286e-06,-1.74573e-05,-1.40127e-05,2.06863e-06,-1.46685e-05,1.73721e-05,7.19196e-06,0
-3.09263e-05,7.51015e-06,-1.66639e-05,-1.02317e-05,2.14872e-07,-1.55907e-05,2.88849e-05,7.61695e-06,0
-3.17784e-05,9.26105e-06,-1.42469e-05,-3.88635e-06,-1.14085e-06,-1.5405e-05,3.78985e-05,7.4808e-06,0
-3.16282e-05,1.15156e-05,-1.2262e-05,4.17272e-06,-9.57828e-07,-1.51582e-05,4.19505e-05,6.88434e-06,0
-3.10688e-05,1.35032e-05,-1.2997e-05,1.06567e-05,4.53336e-07,-1.60111e-05,3.87284e-05,7.59999e-06,0
-3.1047e-05,1.5359e-05,-1.42583e-05,1.30935e-05,1.20146e-06,-1.72879e-05,3.13021e-05,8.17257e-06,0
-3.15416e-05,1.70819e-05,-1.42244e-05,1.22949e-05,1.86389e-06,-1.73439e-05,2.56035e-05,8.08886e-06,0
-3.11212e-05,1.8743e-05,-1.2446e-05,1.03301e-05,4.91165e-06,-1.60189e-05,2.26526e-05,7.19458e-06,0
-3.0949e-05,2.19899e-05,-1.05621e-05,6.90238e-06,8.90441e-06,-1.48479e-05,1.9322e-05,5.91858e-06,0
-3.15471e-05,2.63085e-05,-8.10591e-06,3.9868e-06,1.33129e-05,-1.38086e-05,1.54273e-05,4.19407e-06,0
-3.07471e-05,2.82851e-05,-4.94262e-06,4.04403e-06,1.94872e-05,-1.11276e-05,1.20103e-05,9.76785e-07,0
-2.91915e-05,2.78814e-05,-3.25415e-06,6.7728e-06,2.40974e-05,-7.78323e-06,9.75396e-06,-2.1487e-06,0
-2.96569e-05,2.66613e-05,-3.13584e-06,8.90985e-06,2.43844e-05,-5.43388e-06,8.67556e-06,-3.54994e-06,0
-3.26515e-05,2.61281e-05,-2.95921e-06,2.60316e-06,2.34534e-05,-5.01929e-06,7.64896e-06,-4.05873e-06,0
-3.43203e-05,2.58382e-05,-1.97886e-06,-1.39212e-05,2.28731e-05,-7.71554e-06,6.68462e-06,-3.77222e-06,0
-3.28748e-05,2.55712e-05,-7.64036e-07,-3.40839e-05,2.15122e-05,-1.02992e-05,5.33424e-06,-3.10786e-06,0
-3.08495e-05,2.44323e-05,-5.13924e-07,-4.80471e-05,2.11297e-05,-1.06227e-05,4.78309e-06,-3.02327e-06,0
-2.86191e-05,2.27461e-05,-2.05821e-06,-4.71295e-05,2.08394e-05,-9.83936e-06,5.18581e-06,-2.76798e-06,0
-2.66711e-05,2.17515e-05,-2.6186e-06,-3.7477e-05,1.97794e-05,-9.16047e-06,4.94782e-06,-2.01583e-06,0
-2.60299e-05,1.93583e-05,-1.2679e-06,-2.87641e-05,1.89096e-05,-1.00357e-05,3.90538e-06,-7.29812e-07,0
-2.68468e-05,1.6967e-05,-9.09605e-08,-2.1965e-05,1.9702e-05,-1.22936e-05,2.64447e-06,6.90586e-07,0
-2.88748e-05,1.58272e-05,-2.23348e-07,-1.62755e-05,2.19748e-05,-1.47928e-05,2.75066e-06,2.01824e-06,0
-3.13068e-05,1.66614e-05,1.49749e-08,-1.03243e-05,2.45566e-05,-1.5922e-05,3.86668e-06,1.13643e-06,0
-3.25307e-05,1.51407e-05,1.8529e-06,-3.88485e-06,2.69966e-05,-1.49659e-05,4.21948e-06,-1.18194e-06,0
-3.24434e-05,1.07195e-05,2.95905e-06,7.55583e-07,2.68376e-05,-1.34293e-05,3.01496e-06,-3.49907e-06,0
-3.20459e-05,7.80491e-06,2.53277e-06,3.2549e-06,2.42824e-05,-1.32137e-05,2.94158e-06,-5.32844e-06,0
-3.14591e-05,6.96128e-06,1.76983e-06,4.94038e-06,2.12998e-05,-1.34058e-05,5.28253e-06,-7.22794e-06,0
-3.12123e-05,5.12221e-06,-5.33919e-07,5.22078e-06,2.01621e-05,-1.14278e-05,8.88053e-06,-9.14407e-06,0
-3.06375e-05,2.59878e-07,-5.51339e-06,2.94423e-06,2.04362e-05,-9.44561e-06,1.33403e-05,-9.13625e-06,0
-2.96817e-05,-4.43859e-06,-1.1078e-05,-1.15732e-06,2.10619e-05,-1.01423e-05,1.75384e-05,-7.16355e-06,0
-2.90039e-05,-5.65943e-06,-1.46255e-05,-3.82118e-06,2.10288e-05,-1.07347e-05,1.98145e-05,-4.06969e-06,0
-3.04213e-05,-3.17729e-06,-1.68478e-05,-4.63959e-06,1.9624e-05,-1.00779e-05,1.99968e-05,-2.39014e-06,0
-3.21211e-05,1.37216e-06,-1.85663e-05,-7.09532e-06,1.69037e-05,-9.39556e-06,2.01191e-05,-2.28258e-06,0
-3.12953e-05,9.50405e-06,-1.98844e-05,-1.17731e-05,1.33636e-05,-8.49418e-06,2.06704e-05,-3.16591e-06,0
-2.95771e-05,2.2286e-05,-2.09064e-05,-1.52631e-05,9.97951e-06,-7.14269e-06,2.07434e-05,-4.49262e-06,0
-2.86476e-05,3.81799e-05,-1.98951e-05,-1.71468e-05,6.84659e-06,-5.64686e-06,1.95555e-05,-5.77175e-06,0
-2.87199e-05,5.16308e-05,-1.64693e-05,-1.97871e-05,5.19779e-06,-5.42465e-06,1.78948e-05,-5.46406e-06,0
-2.84733e-05,5.66216e-05,-1.39569e-05,-2.32777e-05,4.6679e-06,-6.50246e-06,1.59094e-05,-4.30601e-06,0
-2.79753e-05,4.90903e-05,-1.47428e-05,-2.54489e-05,2.92132e-06,-7.08819e-06,1.6123e-05,-4.13119e-06,0
-2.8069e-05,3.13686e-05,-1.58407e-05,-2.4376e-05,3.08451e-06,-7.61438e-06,2.42838e-05,-4.54137e-06,0
-2.77339e-05,6.82687e-06,-1.4637e-05,-1.97435e-05,7.83879e-06,-8.90006e-06,3.71935e-05,-4.53083e-06,0
-2.66041e-05,-1.43212e-05,-1.25591e-05,-1.5613e-05,1.31861e-05,-9.59063e-06,4.5234e-05,-5.4472e-06,0
-2.48146e-05,-2.13149e-05,-9.8108e-06,-1.41312e-05,1.69824e-05,-7.88689e-06,4.75495e-05,-6.5112e-06,0
-2.32916e-05,-1.44026e-05,-6.92028e-06,-1.54472e-05,1.83152e-05,-5.56246e-06,4.50022e-05,-4.80824e-06,0
-2.35123e-05,4.67837e-06,-4.04387e-06,-2.00165e-05,1.8117e-05,-5.03568e-06,3.7246e-05,-1.29014e-06,0
-2.51868e-05,2.51172e-05,-5.198e-07,-2.32732e-05,1.66888e-05,-6.7314e-06,2.63679e-05,1.76551e-06,0
-2.5962e-05,3.80489e-05,3.5219e-06,-2.14873e-05,1.41763e-05,-9.87581e-06,1.23968e-05,3.0208e-06,0
-2.52706e-05,4.07186e-05,9.60725e-06,-1.55216e-05,1.1435e-05,-1.24255e-05,-3.25841e-06,3.58772e-06,0
-2.4998e-05,3.68024e-05,1.98401e-05,-1.00876e-05,1.00173e-05,-1.39024e-05,-1.73837e-05,4.28623e-06,0
-2.67636e-05,2.92069e-05,3.54452e-05,-6.62577e-06,1.01441e-05,-1.37231e-05,-2.38925e-05,4.81246e-06,0
-2.96642e-05,1.78922e-05,5.30497e-05,-2.70233e-06,9.51346e-06,-1.27867e-05,-2.29585e-05,5.55895e-06,0
-3.13797e-05,6.68473e-06,6.45085e-05,1.72933e-06,7.9225e-06,-1.17883e-05,-1.91133e-05,7.12071e-06,0
-3.15837e-05,-2.6632e-06,6.14371e-05,4.58201e-06,6.32342e-06,-1.06673e-05,-1.40718e-05,8.98633e-06,0
-3.22235e-05,-6.94989e-06,4.06369e-05,4.76379e-06,6.36624e-06,-1.06177e-05,-7.55929e-06,9.76618e-06,0
-3.43794e-05,-3.85221e-06,5.64011e-06,3.62614e-06,7.57503e-06,-1.10476e-05,7.1867e-07,9.82713e-06,0
-3.57434e-05,6.8051e-06,-3.43672e-05,1.73419e-06,7.86777e-06,-1.10427e-05,1.03171e-05,1.03492e-05,0
-3.46969e-05,2.06043e-05,-6.84097e-05,-5.3173e-07,7.24831e-06,-1.11184e-05,2.01492e-05,1.0124e-05,0
-3.24683e-05,3.03656e-05,-8.85835e-05,-1.9213e-06,8.05249e-06,-1.16102e-05,2.57053e-05,8.64588e-06,0
-3.2008e-05,3.06171e-05,-9.20072e-05,-3.09586e-06,1.0234e-05,-1.17125e-05,2.47741e-05,7.17024e-06,0
-3.33956e-05,2.19989e-05,-8.16241e-05,-5.93343e-06,1.06782e-05,-1.11813e-05,1.81263e-05,7.14389e-06,0
-3.43348e-05,7.72714e-06,-6.60571e-05,-7.84448e-06,7.81761e-06,-1.0471e-05,8.80974e-06,6.81626e-06,0
-3.40509e-05,-8.78101e-06,-5.29592e-05,-5.73251e-06,3.76508e-06,-1.18444e-05,4.38759e-07,4.50609e-06,0
-3.35394e-05,-2.24165e-05,-4.24665e-05,-6.36317e-07,3.42136e-06,-1.32124e-05,-4.13031e-06,1.06289e-06,0
-3.26005e-05,-2.83594e-05,-3.21208e-05,4.20025e-06,8.24981e-06,-1.21368e-05,-5.64209e-06,-1.49574e-06,0
-3.25652e-05,-2.62289e-05,-2.19658e-05,4.35356e-06,1.31999e-05,-1.1111e-05,-5.83009e-06,-2.17e-06,0
-3.29678e-05,-1.96304e-05,-1.35096e-05,1.1722e-06,1.34602e-05,-1.13748e-05,-4.81784e-06,-2.15033e-06,0
-3.21006e-05,-1.23329e-05,-6.8018e-06,-2.54932e-06,1.10211e-05,-1.174e-05,-2.52443e-06,-1.61252e-06,0
-3.18855e-05,-6.35648e-06,-8.10685e-07,-4.08267e-06,8.07696e-06,-9.96145e-06,3.42374e-06,-7.45069e-07,0
-3.22941e-05,-1.7642e-06,3.24279e-06,-2.37326e-06,6.22306e-06,-9.01627e-06,1.1172e-05,-3.48431e-07,0
-3.29602e-05,1.75347e-06,2.86434e-06,-3.21991e-06,7.03397e-06,-9.89365e-06,1.74802e-05,4.19577e-08,0
-3.23773e-05,5.39353e-06,1.21795e-07,-6.27564e-06,7.27614e-06,-1.01326e-05,2.19867e-05,1.08213e-06,0
-3.1563e-05,8.28274e-06,-3.23232e-06,-7.48132e-06,8.34742e-06,-1.08444e-05,2.41661e-05,3.63571e-06,0
-3.30707e-05,9.79623e-06,-7.1061e-06,-5.95887e-06,1.05271e-05,-1.27233e-05,2.5779e-05,7.34483e-06,0
-3.51497e-05,9.42298e-06,-1.09355e-05,-3.32213e-06,1.26201e-05,-1.22699e-05,2.5926e-05,8.63724e-06,0
-3.55923e-05,7.59281e-06,-1.32388e-05,-2.35691e-07,1.33502e-05,-1.02774e-05,2.36622e-05,7.5508e-06,0
-3.44956e-05,5.92694e-06,-1.18088e-05,2.1316e-06,1.24032e-05,-1.04494e-05,2.09356e-05,6.93715e-06,0
-3.36912e-05,7.3076e-06,-9.01032e-06,2.43869e-06,1.08405e-05,-1.2208e-05,1.93817e-05,7.79776e-06,0
-3.40127e-05,9.58813e-06,-7.35486e-06,3.78103e-06,1.03184e-05,-1.35917e-05,1.91465e-05,9.22071e-06,0
-3.45822e-05,1.00515e-05,-6.22297e-06,6.99032e-06,1.29674e-05,-1.27459e-05,1.86481e-05,1.01262e-05,0
-3.45891e-05,9.68913e-06,-4.61906e-06,1.05597e-05,1.61846e-05,-1.07733e-05,1.71983e-05,1.05938e-05,0
-3.38447e-05,9.95584e-06,-3.10584e-06,1.31987e-05,1.86853e-05,-9.13253e-06,1.50683e-05,1.02795e-05,0
-3.19625e-05,1.15239e-05,-2.65515e-06,1.52082e-05,1.94823e-05,-8.05139e-06,1.24903e-05,9.91668e-06,0
-2.93586e-05,1.29564e-05,-3.50874e-06,1.53982e-05,1.80486e-05,-7.11725e-06,1.10444e-05,9.89541e-06,0
-2.80756e-05,1.22715e-05,-5.69954e-06,1.39274e-05,1.59529e-05,-6.42773e-06,1.16185e-05,9.6276e-06,0
-2.88155e-05,9.25506e-06,-7.98164e-06,1.21481e-05,1.59848e-05,-5.41374e-06,1.21692e-05,8.39776e-06,0
-2.94969e-05,7.25405e-06,-8.15341e-06,9.47768e-06,1.63323e-05,-5.20686e-06,1.16991e-05,6.22936e-06,0
-2.99012e-05,7.79051e-06,-6.80554e-06,5.25476e-06,1.52864e-05,-5.81009e-06,1.13717e-05,4.12308e-06,0
-3.09181e-05,9.97461e-06,-5.91474e-06,8.99013e-07,1.41918e-05,-4.54733e-06,1.19965e-05,2.16595e-06,0
-3.19349e-05,1.28496e-05,-4.58532e-06,-1.45089e-06,1.50104e-05,-2.3084e-06,1.2058e-05,4.05553e-07,0
-3.24237e-05,1.82261e-05,-2.76614e-06,-3.57629e-06,1.69905e-05,-9.70079e-07,1.0804e-05,-4.58808e-08,0
-3.16163e-05,2.32268e-05,-3.02591e-06,-8.0277e-06,1.77222e-05,-1.18913e-06,1.03904e-05,1.85496e-07,0
-2.99739e-05,2.43106e-05,-3.58214e-06,-1.4215e-05,1.62083e-05,-3.34052e-06,1.07183e-05,-5.336e-08,0
-2.93106e-05,2.36145e-05,-2.95228e-06,-2.04538e-05,1.2702e-05,-5.84478e-06,1.03852e-05,-3.31816e-07,0
-3.1056e-05,2.38527e-05,-4.11048e-06,-2.4681e-05,9.22147e-06,-7.98075e-06,9.5254e-06,7.00106e-07,0
-3.24756e-05,2.34385e-05,-6.75766e-06,-2.30605e-05,1.04075e-05,-7.74155e-06,9.14445e-06,2.20723e-06,0
-3.12801e-05,2.22874e-05,-6.88775e-06,-1.57187e-05,1.622e-05,-5.65177e-06,1.15622e-05,1.24728e-06,0
-3.10418e-05,2.26307e-05,-4.01856e-06,-8.50843e-06,1.97385e-05,-5.25884e-06,1.3014e-05,4.71434e-07,0
-3.29302e-05,2.43658e-05,-2.49082e-06,-7.04031e-06,1.97434e-05,-6.28069e-06,1.23255e-05,9.34311e-07,0
-3.37747e-05,2.94516e-05,-2.95316e-06,-7.39787e-06,1.8283e-05,-7.70523e-06,1.30653e-05,1.3566e-06,0
-3.27702e-05,3.53586e-05,-4.02961e-06,-6.96319e-06,1.91393e-05,-8.0957e-06,1.46744e-05,1.34051e-06,0
-3.08486e-05,3.87025e-05,-4.31729e-06,-7.25194e-06,2.14965e-05,-8.04519e-06,1.44993e-05,6.77046e-07,0
-2.83999e-05,3.74691e-05,-2.00581e-06,-5.74128e-06,2.40915e-05,-7.6446e-06,1.36025e-05,1.52421e-06,0
-2.78522e-05,3.22784e-05,7.42139e-07,-2.45523e-06,2.68819e-05,-7.26672e-06,1.34525e-05,3.24052e-06,0
-2.89192e-05,2.75799e-05,1.58818e-06,-1.81883e-06,2.78454e-05,-6.21351e-06,1.45067e-05,2.8675e-06,0
-2.93515e-05,2.47513e-05,1.77479e-06,-7.31323e-06,2.68618e-05,-5.14077e-06,1.60414e-05,-4.22263e-08,0
-2.98776e-05,2.25388e-05,1.68724e-06,-1.36081e-05,2.38972e-05,-6.03616e-06,1.70612e-05,-2.36784e-06,0
-3.08342e-05,1.99011e-05,9.66389e-07,-1.38774e-05,2.14117e-05,-8.80508e-06,1.8669e-05,-3.60015e-06,0
-3.08236e-05,1.76351e-05,-2.15605e-07,-8.10472e-06,2.05403e-05,-1.12544e-05,2.0389e-05,-5.60254e-06,0
-3.00601e-05,1.48127e-05,-9.43453e-07,-2.07965e-06,2.0183e-05,-1.18851e-05,2.08912e-05,-7.017e-06,0
-3.06378e-05,1.11312e-05,-3.5201e-07,-5.56702e-07,1.89003e-05,-1.14627e-05,1.98338e-05,-6.89246e-06,0
-3.18977e-05,9.05673e-06,2.26732e-07,-4.22516e-06,1.76499e-05,-1.00938e-05,1.94512e-05,-6.76905e-06,0
-3.28052e-05,9.47487e-06,-1.88294e-07,-1.12033e-05,1.67416e-05,-8.77006e-06,1.92859e-05,-7.53607e-06,0
-3.40162e-05,1.03199e-05,-6.87671e-07,-1.72495e-05,1.5042e-05,-7.63665e-06,1.83239e-05,-7.94105e-06,0
-3.4806e-05,1.0515e-05,-1.13254e-06,-1.79626e-05,1.33317e-05,-6.85965e-06,1.58949e-05,-6.62143e-06,0
-3.36219e-05,1.05806e-05,-1.76517e-06,-1.24363e-05,1.20321e-05,-6.88104e-06,9.08201e-06,-4.77277e-06,0
-3.14068e-05,1.10139e-05,-1.37123e-06,-4.3929e-06,1.09364e-05,-8.28624e-06,-5.70533e-06,-2.99755e-06,0
-3.06569e-05,1.09505e-05,-4.78699e-07,1.16741e-06,1.08409e-05,-9.51768e-06,-2.19836e-05,-2.18201e-06,0
-3.15239e-05,8.8562e-06,2.05729e-07,-2.09184e-08,1.24534e-05,-1.02436e-05,-2.73208e-05,-4.01661e-06,0
-3.20985e-05,6.63951e-06,6.5391e-07,-5.12521e-06,1.334e-05,-1.10865e-05,-1.84363e-05,-4.96916e-06,0
-3.23158e-05,6.19912e-06,9.02185e-07,-1.1558e-05,1.31706e-05,-1.15378e-05,-3.29802e-06,-3.03476e-06,0
-3.2162e-05,6.81578e-06,-2.46189e-07,-2.17277e-05,1.28793e-05,-1.16161e-05,1.07635e-05,-1.79555e-07,0
-3.1703e-05,8.02831e-06,-2.62579e-06,-3.13997e-05,1.25278e-05,-1.15549e-05,2.43631e-05,2.22402e-06,0
-3.02912e-05,7.72385e-06,-4.61516e-06,-3.03568e-05,1.36827e-05,-1.22598e-05,3.45421e-05,1.53271e-06,0
-2.78435e-05,6.76868e-06,-8.03595e-06,-1.73829e-05,1.61139e-05,-1.37856e-05,4.08454e-05,1.31001e-06,0
-2.71963e-05,8.58067e-06,-1.2083e-05,-2.49601e-06,1.82766e-05,-1.48357e-05,4.43575e-05,3.39077e-06,0
-2.80441e-05,1.09673e-05,-1.3929e-05,7.42617e-06,1.81207e-05,-1.41159e-05,4.36442e-05,4.76942e-06,0
-2.92282e-05,1.16991e-05,-1.3421e-05,1.42555e-05,1.50846e-05,-1.26498e-05,4.10095e-05,5.21149e-06,0
-2.97963e-05,1.16037e-05,-1.0547e-05,2.02581e-05,9.35839e-06,-1.17849e-05,3.65178e-05,5.46673e-06,0
-2.96612e-05,1.3539e-05,-8.53521e-06,2.17289e-05,4.57667e-06,-1.16669e-05,3.22983e-05,5.60034e-06,0
-3.03055e-05,1.6468e-05,-8.18462e-06,1.76921e-05,4.34974e-06,-1.22528e-05,2.76083e-05,3.91822e-06,0
-3.13143e-05,1.82058e-05,-9.0017e-06,1.16441e-05,6.53192e-06,-1.20667e-05,2.26864e-05,2.35664e-06,0
-3.0589e-05,1.79629e-05,-1.21711e-05,9.8168e-06,8.75493e-06,-1.02339e-05,2.04594e-05,7.00992e-07,0
-2.87821e-05,1.58538e-05,-1.67842e-05,1.60704e-05,1.05851e-05,-9.12602e-06,2.07747e-05,-1.09645e-06,0
-2.71896e-05,1.30093e-05,-2.08387e-05,2.73374e-05,1.35606e-05,-9.85478e-06,2.37217e-05,-2.22113e-06,0
-2.62678e-05,1.13656e-05,-2.21838e-05,3.7685e-05,1.64761e-05,-1.01387e-05,2.96494e-05,-2.33674e-06,0
-2.65294e-05,1.24534e-05,-2.09054e-05,4.16264e-05,1.7617e-05,-9.71999e-06,3.60907e-05,-2.04809e-06,0
-2.72305e-05,1.39376e-05,-1.6882e-05,3.79634e-05,1.55222e-05,-1.07272e-05,3.95803e-05,-2.03189e-06,0
-2.78136e-05,1.4302e-05,-1.27685e-05,2.72279e-05,1.10434e-05,-1.24662e-05,3.94074e-05,-1.43984e-06,0
-2.80071e-05,1.33205e-05,-1.04875e-05,1.29922e-05,6.79592e-06,-1.24974e-05,3.46134e-05,-7.56394e-07,0
-2.78689e-05,1.16804e-05,-9.34104e-06,-1.58663e-06,3.99272e-06,-1.04183e-05,2.60282e-05,-2.41336e-07,0
-2.69065e-05,1.01661e-05,-8.33009e-06,-1.64117e-05,2.19187e-06,-8.019e-06,1.50622e-05,-9.72216e-07,0
-2.48553e-05,8.22721e-06,-8.06223e-06,-2.95322e-05,9.56065e-07,-7.25585e-06,3.55414e-06,-2.01323e-06,0
-2.26255e-05,4.9382e-06,-7.63624e-06,-3.77585e-05,6.47549e-08,-8.46857e-06,-6.64075e-06,-3.33101e-06,0
-2.32036e-05,3.05117e-06,-5.70232e-06,-4.35815e-05,-1.14557e-06,-9.28196e-06,-1.23198e-05,-4.12093e-06,0
-2.58155e-05,3.0041e-06,-4.00593e-06,-5.19926e-05,-1.98442e-06,-9.60605e-06,-1.46379e-05,-4.23126e-06,0
-2.68855e-05,1.92466e-06,-3.95339e-06,-5.75253e-05,-1.45506e-06,-9.1254e-06,-1.66622e-05,-4.07501e-06,0
-2.59443e-05,4.94451e-07,-6.15024e-06,-5.28388e-05,1.08822e-06,-8.27274e-06,-1.96334e-05,-4.78451e-06,0
-2.62151e-05,-2.38901e-07,-9.08951e-06,-4.18625e-05,3.63013e-06,-8.77678e-06,-2.15923e-05,-7.31245e-06,0
-2.8401e-05,-8.18642e-07,-9.6498e-06,-3.10137e-05,7.05207e-06,-9.11053e-06,-1.95082e-05,-8.57343e-06,0
-2.81219e-05,-8.61562e-07,-6.96478e-06,-2.42542e-05,1.34842e-05,-9.84326e-06,-1.31459e-05,-7.49339e-06,0
-2.60304e-05,2.34773e-06,-3.27219e-06,-2.05201e-05,1.92932e-05,-1.08254e-05,-5.7786e-06,-4.77114e-06,0
-2.61697e-05,1.44213e-05,-2.57515e-06,-1.85402e-05,2.22007e-05,-1.21538e-05,-5.67237e-07,-3.70862e-06,0
-2.72864e-05,3.1778e-05,-5.75845e-06,-1.65682e-05,2.38259e-05,-1.12208e-05,3.68179e-06,-5.0662e-06,0
-2.6635e-05,4.29137e-05,-8.45787e-06,-9.91865e-06,2.33139e-05,-8.64546e-06,9.8228e-06,-6.17752e-06,0
-2.56641e-05,4.59348e-05,-1.08377e-05,-2.01869e-06,2.10013e-05,-7.41306e-06,1.60413e-05,-6.51737e-06,0
-2.54186e-05,4.3483e-05,-1.32962e-05,2.27566e-06,1.80001e-05,-7.68189e-06,1.88131e-05,-5.09431e-06,0
-2.60191e-05,3.4348e-05,-1.51158e-05,8.68285e-07,1.52394e-05,-9.13129e-06,2.07605e-05,-2.46056e-06,0
-2.67461e-05,1.81917e-05,-1.53543e-05,-3.9304e-06,1.16608e-05,-9.7069e-06,2.38382e-05,-1.71149e-07,0
-2.7105e-05,1.18319e-06,-1.35121e-05,-8.18004e-06,8.92812e-06,-9.51879e-06,2.59205e-05,3.2876e-07,0
-2.71251e-05,-9.39724e-06,-1.1167e-05,-1.10593e-05,9.10726e-06,-8.60399e-06,2.59998e-05,1.12625e-06,0
-2.73081e-05,-1.22813e-05,-1.09823e-05,-1.48557e-05,9.61708e-06,-8.2531e-06,2.49427e-05,3.21116e-06,0
-2.88491e-05,-1.31994e-05,-1.26497e-05,-2.17647e-05,9.32376e-06,-7.99413e-06,2.39793e-05,4.53999e-06,0
-3.13152e-05,-1.75893e-05,-1.47984e-05,-2.98998e-05,8.47261e-06,-8.06509e-06,2.40237e-05,5.55412e-06,0
-3.32484e-05,-2.1513e-05,-1.736e-05,-3.09389e-05,8.12207e-06,-8.71496e-06,2.28296e-05,6.78147e-06,0
-3.40454e-05,-2.05471e-05,-1.78112e-05,-1.93436e-05,9.05337e-06,-8.95126e-06,1.91105e-05,7.46984e-06,0
-3.4307e-05,-1.91728e-05,-1.61886e-05,-3.84853e-06,1.11267e-05,-8.85269e-06,1.42228e-05,7.92384e-06,0
-3.43673e-05,-2.16773e-05,-1.45492e-05,5.83735e-06,1.25546e-05,-9.15509e-06,1.09046e-05,9.61704e-06,0
-3.55159e-05,-2.6724e-05,-1.40304e-05,9.83063e-06,1.23637e-05,-9.85565e-06,8.95185e-06,1.19442e-05,0
-3.74656e-05,-3.01819e-05,-1.41432e-05,1.24513e-05,1.09579e-05,-1.06674e-05,6.09425e-06,1.29136e-05,0
-3.84752e-05,-2.75617e-05,-1.4633e-05,2.02556e-05,1.09352e-05,-1.10478e-05,1.84697e-06,1.1287e-05,0
-3.72708e-05,-1.8389e-05,-1.46278e-05,3.72155e-05,1.31455e-05,-1.12703e-05,-1.17342e-06,8.93512e-06,0
-3.51743e-05,-8.17222e-06,-1.38031e-05,5.96917e-05,1.6058e-05,-1.21054e-05,-1.06734e-06,7.20387e-06,0
-3.47716e-05,-3.92041e-07,-1.18448e-05,7.55512e-05,1.94165e-05,-1.21788e-05,9.88942e-07,6.10747e-06,0
-3.56337e-05,4.40227e-06,-9.10112e-06,6.59282e-05,2.13661e-05,-1.03122e-05,4.11291e-06,4.68188e-06,0
-3.55497e-05,7.32013e-06,-5.61135e-06,3.27667e-05,2.12838e-05,-7.94232e-06,6.49818e-06,3.51698e-06,0
-3.28496e-05,1.19999e-05,-3.50338e-06,-1.18836e-05,2.01061e-05,-5.6532e-06,4.95313e-06,2.70947e-06,0
-3.01872e-05,1.62282e-05,-5.64886e-06,-4.88439e-05,1.57577e-05,-3.53359e-06,1.07731e-07,1.31333e-06,0
-2.96323e-05,1.89308e-05,-1.01034e-05,-5.94716e-05,1.04002e-05,-4.07255e-06,-3.00084e-06,-4.09598e-07,0
-2.96316e-05,2.20063e-05,-1.21919e-05,-4.56121e-05,7.10925e-06,-5.7173e-06,-1.95136e-06,-2.12601e-06,0
-3.02135e-05,2.59769e-05,-9.47623e-06,-1.84477e-05,4.90473e-06,-8.23463e-06,-6.33754e-07,-2.37048e-06,0
-3.17588e-05,2.98429e-05,-5.86228e-06,6.23169e-06,4.81214e-06,-9.04852e-06,-6.63472e-07,-1.548e-06,0
-3.30623e-05,3.1946e-05,-4.66074e-06,1.96424e-05,6.09893e-06,-9.29429e-06,1.05872e-06,-1.30913e-06,0
-3.2488e-05,3.33581e-05,-3.83466e-06,1.72241e-05,7.97537e-06,-1.11273e-05,4.51391e-06,-1.08448e-06,0
-3.08536e-05,3.44195e-05,-2.40557e-06,8.29555e-06,1.1834e-05,-1.17282e-05,7.13988e-06,-8.39311e-08,0
-2.88089e-05,3.50506e-05,-2.02387e-06,-8.3534e-07,1.5246e-05,-1.05871e-05,9.1718e-06,-7.75231e-07,0
-2.66952e-05,3.45396e-05,-2.88379e-06,-6.89599e-06,1.71534e-05,-9.63677e-06,1.11857e-05,-1.64448e-06,0
-2.56722e-05,3.33324e-05,-5.00838e-06,-7.96257e-06,1.85535e-05,-1.14505e-05,1.16461e-05,-7.45616e-07,0
-2.55274e-05,3.23315e-05,-7.01723e-06,-7.20938e-06,2.05007e-05,-1.35006e-05,1.10522e-05,9.09205e-07,0
-2.49296e-05,3.15583e-05,-6.62479e-06,-5.71614e-06,2.25079e-05,-1.40085e-05,9.92059e-06,1.16067e-06,0
-2.47297e-05,3.1107e-05,-4.34762e-06,-4.09053e-06,2.30586e-05,-1.28635e-05,8.89797e-06,-9.80549e-08,0
-2.58755e-05,3.18329e-05,-1.51445e-06,-2.61906e-06,2.24289e-05,-1.1919e-05,9.27519e-06,-6.65037e-07,0
-2.70871e-05,3.17747e-05,1.36494e-06,-4.64234e-06,2.05624e-05,-1.20924e-05,1.15684e-05,-1.61962e-06,0
-2.76968e-05,2.90085e-05,2.92377e-06,-1.01093e-05,1.86598e-05,-1.22804e-05,1.36597e-05,-2.76099e-06,0
-2.75082e-05,2.66609e-05,2.08404e-06,-1.8319e-05,1.70789e-05,-1.24629e-05,1.33923e-05,-2.10969e-06,0
-2.72422e-05,2.63493e-05,-6.73911e-07,-2.36972e-05,1.49488e-05,-1.3323e-05,1.22648e-05,9.35962e-07,0
-2.7837e-05,2.52833e-05,-3.45284e-06,-2.34739e-05,1.17508e-05,-1.4213e-05,1.27782e-05,4.14668e-06,0
-2.88708e-05,2.30612e-05,-5.67604e-06,-1.96549e-05,9.26955e-06,-1.42155e-05,1.38768e-05,5.33843e-06,0
-2.90945e-05,2.31521e-05,-7.2653e-06,-1.54853e-05,9.2245e-06,-1.40207e-05,1.38223e-05,4.26075e-06,0
-2.9448e-05,2.63096e-05,-7.89182e-06,-1.15247e-05,1.02383e-05,-1.52204e-05,1.29766e-05,2.93698e-06,0
-3.04646e-05,2.91086e-05,-8.13148e-06,-1.0123e-05,1.03212e-05,-1.64299e-05,1.26483e-05,2.81874e-06,0
-3.21736e-05,2.73242e-05,-7.41449e-06,-9.42742e-06,1.09925e-05,-1.47934e-05,1.33312e-05,3.16786e-06,0
-3.25745e-05,2.14272e-05,-5.7223e-06,-5.35075e-06,1.18975e-05,-1.28134e-05,1.17215e-05,2.91263e-06,0
-3.14318e-05,1.61914e-05,-4.57166e-06,-1.18046e-06,1.28854e-05,-1.25689e-05,1.5746e-06,2.52842e-06,0
-3.16129e-05,1.60033e-05,-5.81457e-06,-2.43006e-06,1.27356e-05,-1.36619e-05,-1.2624e-05,2.51268e-06,0
-3.30671e-05,1.62438e-05,-1.00096e-05,-6.09286e-06,1.23191e-05,-1.38409e-05,-1.78672e-05,3.02439e-06,0
-3.40327e-05,1.51231e-05,-1.51787e-05,-8.34454e-06,1.38819e-05,-1.18523e-05,-1.21761e-05,3.03233e-06,0
-3.35702e-05,1.51823e-05,-1.76264e-05,-7.69255e-06,1.53956e-05,-9.4293e-06,-1.84963e-06,3.32778e-06,0
-3.26937e-05,1.56064e-05,-1.71511e-05,-2.95904e-06,1.57752e-05,-7.78698e-06,9.18061e-06,5.75415e-06,0
-3.09604e-05,1.71218e-05,-1.56669e-05,-4.79927e-07,1.24085e-05,-7.56977e-06,2.18874e-05,6.66299e-06,0
-2.97855e-05,1.84756e-05,-1.40931e-05,-1.42309e-06,9.67849e-06,-7.95511e-06,3.40108e-05,6.35106e-06,0
-3.02576e-05,1.90113e-05,-1.37918e-05,-2.47003e-06,1.14253e-05,-7.29687e-06,4.13571e-05,7.11481e-06,0
-3.11753e-05,1.87567e-05,-1.42048e-05,-1.45615e-06,1.57718e-05,-5.53574e-06,4.36273e-05,7.5629e-06,0
-3.14308e-05,1.86334e-05,-1.58419e-05,8.13988e-07,1.86695e-05,-5.64525e-06,4.30956e-05,6.34001e-06,0
-3.09979e-05,1.89608e-05,-1.69121e-05,3.12587e-06,1.83454e-05,-7.80134e-06,4.06749e-05,4.50485e-06,0
-3.15455e-05,1.99069e-05,-1.59097e-05,4.54466e-06,1.59874e-05,-9.6012e-06,3.66793e-05,4.03181e-06,0
-3.24603e-05,2.07972e-05,-1.46918e-05,5.77984e-06,1.24827e-05,-1.10117e-05,3.16543e-05,4.467e-06,0
-3.30019e-05,2.00426e-05,-1.4503e-05,6.52641e-06,8.99475e-06,-1.29248e-05,2.59032e-05,5.72237e-06,0
-3.24225e-05,1.70078e-05,-1.49483e-05,5.82987e-06,6.4281e-06,-1.4167e-05,2.08894e-05,6.81718e-06,0
-3.14793e-05,1.29237e-05,-1.42043e-05,3.15273e-06,7.33598e-06,-1.38029e-05,1.82746e-05,5.71389e-06,0
-3.09605e-05,1.06565e-05,-1.16099e-05,-1.49894e-06,9.54246e-06,-1.27594e-05,2.06527e-05,3.59289e-06,0
-3.00678e-05,1.06861e-05,-7.49138e-06,-7.81063e-06,9.72793e-06,-1.16501e-05,2.61147e-05,2.77619e-06,0
-2.89797e-05,1.17417e-05,-3.95083e-06,-1.57284e-05,7.94385e-06,-1.03461e-05,2.95192e-05,2.67409e-06,0
-2.86984e-05,1.33951e-05,-2.89323e-06,-2.41881e-05,6.587e-06,-9.47202e-06,2.74527e-05,1.3521e-06,0
-2.96091e-05,1.49524e-05,-3.51145e-06,-3.10984e-05,6.27275e-06,-1.1016e-05,2.13585e-05,-5.46422e-07,0
-3.08654e-05,1.53642e-05,-4.30535e-06,-3.37022e-05,5.07069e-06,-1.25361e-05,1.4916e-05,-1.1119e-06,0
-3.08313e-05,1.36336e-05,-5.56665e-06,-3.00622e-05,3.50707e-06,-1.24044e-05,8.89826e-06,3.23448e-07,0
-3.03148e-05,9.85985e-06,-6.5946e-06,-1.9301e-05,4.96567e-06,-1.18738e-05,2.97558e-06,2.81338e-06,0
-3.05882e-05,6.82747e-06,-7.54942e-06,-7.40935e-06,9.48953e-06,-1.10953e-05,-1.38174e-06,3.34961e-06,0
-3.05188e-05,6.32599e-06,-7.26658e-06,-4.90311e-07,1.48431e-05,-9.87322e-06,-3.10651e-06,1.12914e-06,0
-2.98863e-05,6.71291e-06,-6.19087e-06,2.98449e-06,1.90701e-05,-8.93931e-06,-3.25528e-06,-1.17184e-06,0
-2.89134e-05,5.37241e-06,-5.83009e-06,3.2321e-06,2.01497e-05,-7.41429e-06,-3.40064e-06,-2.79698e-06,0
-2.89862e-05,5.10249e-06,-5.62822e-06,2.47188e-06,1.77009e-05,-6.31812e-06,-3.35657e-06,-3.77318e-06,0
-2.95592e-05,5.78236e-06,-4.91632e-06,7.7269e-07,1.39145e-05,-7.56572e-06,-1.38291e-06,-3.1414e-06,0
-2.99829e-05,5.63162e-06,-3.65906e-06,-5.00082e-06,1.29011e-05,-8.21903e-06,2.02159e-06,-6.37276e-07,0
-2.96071e-05,4.7449e-06,-3.55651e-06,-1.21201e-05,1.62251e-05,-6.61932e-06,4.70294e-06,1.26322e-06,0
-2.79211e-05,3.51952e-06,-4.35799e-06,-1.69485e-05,2.10236e-05,-4.6463e-06,5.00054e-06,8.29082e-07,0
-2.63824e-05,3.59465e-06,-4.87132e-06,-1.57395e-05,2.38013e-05,-6.12201e-06,4.52494e-06,-4.56455e-08,0
-2.69778e-05,4.85542e-06,-4.32846e-06,-9.70161e-06,2.47628e-05,-9.70031e-06,5.04248e-06,1.1873e-06,0
-2.92434e-05,7.33522e-06,-4.68007e-06,-4.52293e-06,2.35215e-05,-1.06487e-05,6.58978e-06,3.49463e-06,0
-3.12648e-05,9.21933e-06,-5.91726e-06,-2.93934e-06,2.10702e-05,-8.98342e-06,8.54097e-06,3.12634e-06,0
-3.19266e-05,8.41509e-06,-7.4561e-06,-3.49813e-06,1.75813e-05,-7.13945e-06,9.66834e-06,9.40703e-07,0
-3.0781e-05,6.51192e-06,-8.24578e-06,-4.6662e-06,1.38079e-05,-6.90726e-06,9.34907e-06,3.76789e-08,0
-2.90993e-05,6.08296e-06,-7.63056e-06,-4.06477e-06,1.17439e-05,-8.12029e-06,8.04399e-06,9.97448e-07,0
-2.75983e-05,6.64469e-06,-6.79789e-06,-1.62838e-06,1.20354e-05,-8.22453e-06,7.11107e-06,1.01565e-06,0
-2.69769e-05,5.93335e-06,-7.17448e-06,-1.41524e-07,1.35749e-05,-6.47906e-06,8.25066e-06,-1.11454e-06,0
-2.76842e-05,3.55004e-06,-8.41926e-06,-2.93885e-08,1.46045e-05,-5.96587e-06,1.05217e-05,-3.54391e-06,0
-2.8683e-05,2.51532e-06,-8.1657e-06,-4.88364e-07,1.49707e-05,-8.61663e-06,1.22587e-05,-4.34299e-06,0
-2.90545e-05,3.71119e-06,-7.06908e-06,-1.00463e-06,1.43432e-05,-1.1576e-05,1.36435e-05,-3.52253e-06,0
-2.88526e-05,4.11362e-06,-6.57458e-06,-6.07435e-07,1.35821e-05,-1.275e-05,1.54056e-05,-2.84252e-06,0
-2.74985e-05,2.27811e-06,-7.25843e-06,5.3427e-07,1.37986e-05,-1.28775e-05,1.84243e-05,-3.7221e-06,0
-2.63864e-05,2.14002e-06,-7.6312e-06,4.7363e-07,1.5947e-05,-1.26028e-05,2.20233e-05,-5.28737e-06,0
-2.71425e-05,5.11112e-06,-7.37577e-06,-1.37909e-06,1.74341e-05,-1.23996e-05,2.50825e-05,-5.72909e-06,0
-2.86828e-05,8.1631e-06,-7.9003e-06,-3.83686e-06,1.78847e-05,-1.14276e-05,2.67061e-05,-5.16007e-06,0
-2.92437e-05,9.38997e-06,-8.94771e-06,-3.72008e-06,1.81875e-05,-1.01825e-05,2.72293e-05,-3.81257e-06,0
-2.82764e-05,9.12063e-06,-8.52879e-06,-6.48223e-07,1.66941e-05,-9.27076e-06,2.63099e-05,-2.37883e-06,0
-2.84314e-05,7.38461e-06,-8.13255e-06,2.8903e-06,1.44658e-05,-8.01017e-06,2.31108e-05,-5.4147e-07,0
-3.05544e-05,6.37119e-06,-8.43495e-06,8.76236e-06,1.39726e-05,-8.33576e-06,1.87421e-05,2.7033e-06,0
-3.21704e-05,7.20816e-06,-8.22792e-06,1.85405e-05,1.30127e-05,-1.11096e-05,1.50401e-05,4.36526e-06,0
-3.3393e-05,6.44785e-06,-8.47982e-06,2.63287e-05,1.00322e-05,-1.33695e-05,1.31197e-05,1.37622e-06,0
-3.27833e-05,4.26533e-06,-9.81614e-06,2.61876e-05,8.79886e-06,-1.30253e-05,1.26461e-05,-1.71205e-06,0
-3.0693e-05,2.5832e-06,-1.20226e-05,1.88449e-05,7.95449e-06,-1.13513e-05,1.23475e-05,-1.42504e-06,0
-2.9816e-05,2.23985e-06,-1.33698e-05,1.09726e-05,6.73081e-06,-9.71251e-06,1.1557e-05,4.84159e-07,0
-3.0668e-05,1.96119e-06,-1.31676e-05,3.64978e-06,5.20142e-06,-9.36481e-06,1.11817e-05,-1.00691e-07,0
-3.16382e-05,1.71942e-06,-1.16626e-05,-4.95638e-06,4.47576e-06,-9.65453e-06,1.23068e-05,-2.75459e-06,0
-3.15664e-05,1.79123e-06,-9.9561e-06,-1.25216e-05,7.73978e-06,-9.59727e-06,1.39549e-05,-3.80694e-06,0
-3.10489e-05,1.37984e-06,-9.39366e-06,-1.7613e-05,1.11236e-05,-9.24518e-06,1.49943e-05,-2.49327e-06,0
-2.94481e-05,1.42073e-06,-9.66286e-06,-2.02776e-05,1.19266e-05,-7.36088e-06,1.45064e-05,-1.07291e-06,0
-2.8373e-05,3.1694e-06,-1.03969e-05,-2.29578e-05,1.18005e-05,-5.22902e-06,1.1937e-05,-1.96766e-06,0
-2.90309e-05,4.24737e-06,-1.07657e-05,-2.78254e-05,1.22542e-05,-4.41207e-06,9.60556e-06,-2.97366e-06,0
-3.02574e-05,2.84982e-06,-1.00729e-05,-3.23677e-05,1.22039e-05,-5.40972e-06,9.70456e-06,-3.85248e-06,0
-3.02188e-05,1.95131e-06,-8.95721e-06,-2.95104e-05,1.24446e-05,-6.82578e-06,1.20045e-05,-4.99052e-06,0
-3.01513e-05,3.60578e-06,-8.05619e-06,-1.84156e-05,1.34162e-05,-8.25729e-06,1.56461e-05,-5.36703e-06,0
-3.18886e-05,6.59201e-06,-8.3959e-06,-8.43842e-06,1.30916e-05,-1.00765e-05,1.83262e-05,-4.88053e-06,0
-3.42594e-05,8.97483e-06,-1.00857e-05,-5.66518e-06,1.07961e-05,-1.13483e-05,1.78694e-05,-4.64598e-06,0
-3.44811e-05,9.57316e-06,-1.1056e-05,-5.45708e-06,7.66371e-06,-1.10808e-05,1.54374e-05,-5.02074e-06,0
-3.24661e-05,7.43859e-06,-1.04698e-05,-2.50078e-06,5.92051e-06,-8.67357e-06,1.35815e-05,-5.75338e-06,0
-3.11927e-05,4.7089e-06,-9.94935e-06,6.49131e-07,6.22831e-06,-6.40871e-06,1.32362e-05,-5.98867e-06,0
-3.16564e-05,2.32882e-06,-1.04711e-05,2.71886e-07,6.70666e-06,-7.1335e-06,1.33993e-05,-3.80813e-06,0
-3.24182e-05,-6.72805e-08,-1.23557e-05,-1.59739e-06,5.98297e-06,-1.07488e-05,1.40465e-05,-4.90348e-07,0
-3.18656e-05,-2.88844e-06,-1.37269e-05,-2.67867e-06,7.02214e-06,-1.38423e-05,1.53588e-05,5.89008e-07,0
-3.07251e-05,-5.72589e-06,-1.41683e-05,-1.85541e-06,9.71506e-06,-1.4507e-05,1.66905e-05,-1.24815e-06,0
-3.01259e-05,-5.95955e-06,-1.45421e-05,1.53441e-06,1.04123e-05,-1.44388e-05,1.70077e-05,-4.72942e-06,0
-3.05786e-05,-5.20746e-06,-1.30183e-05,5.66752e-06,8.76306e-06,-1.33951e-05,1.48308e-05,-6.03318e-06,0
-3.19171e-05,-4.38151e-06,-9.94486e-06,6.75714e-06,7.57685e-06,-1.18934e-05,1.35686e-05,-4.65203e-06,0
-3.13877e-05,-4.04693e-06,-9.00448e-06,5.58876e-06,7.13821e-06,-1.2458e-05,1.74701e-05,-3.38326e-06,0
-2.98063e-05,-4.06059e-06,-9.79755e-06,4.8992e-06,7.37758e-06,-1.31803e-05,2.28449e-05,-1.81579e-06,0
-2.82691e-05,-3.48655e-06,-8.56643e-06,2.05433e-06,9.11318e-06,-1.3028e-05,2.45431e-05,-2.95334e-07,0
-2.57137e-05,-4.05072e-06,-7.87177e-06,-1.12684e-06,1.13431e-05,-1.23008e-05,2.17093e-05,1.35329e-06,0
-2.56644e-05,-3.33191e-06,-8.62886e-06,-2.373e-06,1.10315e-05,-1.10274e-05,1.71248e-05,2.63918e-06,0
-2.76392e-05,-1.00783e-06,-8.91811e-06,-3.28318e-06,7.52819e-06,-9.53574e-06,1.31415e-05,3.48184e-06,0
-2.92402e-05,1.29641e-08,-9.19053e-06,-2.42261e-06,5.96694e-06,-8.50439e-06,9.5529e-06,4.64887e-06,0
-3.03245e-05,-1.9693e-06,-1.05838e-05,3.69237e-07,7.78226e-06,-8.02764e-06,5.41156e-06,5.43373e-06,0
-3.09136e-05,-4.58751e-06,-1.26825e-05,2.75016e-06,9.68278e-06,-8.05281e-06,1.92694e-06,6.81943e-06,0
-3.05418e-05,-3.69948e-06,-1.36044e-05,5.00258e-06,1.08479e-05,-7.56788e-06,1.02026e-06,7.78425e-06,0
-2.95245e-05,7.79609e-07,-1.16523e-05,8.4618e-06,1.23268e-05,-5.76714e-06,1.74364e-06,7.1035e-06,0
-2.84486e-05,6.18363e-06,-7.99278e-06,9.67228e-06,1.41793e-05,-4.64681e-06,4.71652e-06,5.96373e-06,0
-2.78187e-05,9.71145e-06,-6.04219e-06,5.2954e-06,1.51257e-05,-4.93598e-06,1.27884e-05,3.97879e-06,0
-2.91609e-05,1.14445e-05,-5.80624e-06,-9.73512e-07,1.39642e-05,-6.0717e-06,2.50303e-05,1.54324e-06,0
-3.14721e-05,1.31838e-05,-6.30408e-06,-6.35895e-06,1.24095e-05,-7.39023e-06,3.6189e-05,-1.56409e-10,0
-3.27854e-05,1.55979e-05,-6.34036e-06,-1.43721e-05,1.32213e-05,-8.14542e-06,4.2309e-05,-4.98169e-07,0
-3.27391e-05,1.73693e-05,-5.13023e-06,-2.47666e-05,1.55563e-05,-7.11713e-06,4.14523e-05,-1.01832e-06,0
-3.20675e-05,1.87031e-05,-2.86621e-06,-3.04707e-05,1.5816e-05,-4.71803e-06,3.3692e-05,-1.39936e-06,0
-3.07983e-05,2.10523e-05,-9.78956e-07,-2.83785e-05,1.30356e-05,-1.71079e-06,2.21788e-05,-1.05232e-06,0
-2.98033e-05,2.44399e-05,-1.1534e-06,-2.38985e-05,1.04071e-05,1.05318e-06,1.0366e-05,-4.25795e-07,0
-3.00262e-05,2.70402e-05,-3.16469e-06,-2.36642e-05,9.92559e-06,3.53991e-06,-1.72035e-06,-2.36817e-07,0
-3.11735e-05,2.78533e-05,-5.36769e-06,-2.60849e-05,1.01315e-05,4.69997e-06,-1.48785e-05,-1.27973e-06,0
-3.22959e-05,2.74825e-05,-7.42559e-06,-2.55982e-05,9.65563e-06,3.60443e-06,-2.71365e-05,-2.82307e-06,0
-3.23214e-05,2.58775e-05,-8.79536e-06,-2.29777e-05,9.52679e-06,3.08119e-06,-3.40841e-05,-3.32032e-06,0
-3.08044e-05,2.35657e-05,-8.78691e-06,-1.93692e-05,9.96988e-06,4.04895e-06,-3.33611e-05,-2.85746e-06,0
-2.91529e-05,2.20994e-05,-8.2398e-06,-1.37379e-05,1.07451e-05,4.16571e-06,-2.77721e-05,-1.95931e-06,0
-2.79902e-05,2.13559e-05,-7.11244e-06,-8.06012e-06,1.13137e-05,2.96327e-06,-1.98632e-05,1.39094e-06,0
-2.84168e-05,2.12808e-05,-5.78264e-06,-5.56537e-06,1.06695e-05,2.23598e-06,-1.35044e-05,5.27399e-06,0
-2.91532e-05,2.29949e-05,-5.55305e-06,-7.86505e-06,1.12773e-05,8.99437e-07,-9.63919e-06,6.13961e-06,0
-2.86819e-05,3.13924e-05,-5.79181e-06,-1.23018e-05,1.41847e-05,-1.14985e-06,-5.80169e-06,4.75135e-06,0
-2.75852e-05,4.53118e-05,-5.77938e-06,-1.14182e-05,1.85497e-05,-2.74524e-06,-2.51079e-06,2.35212e-06,0
-2.58243e-05,5.75442e-05,-5.90487e-06,-1.72386e-06,2.19988e-05,-3.63248e-06,7.22616e-07,1.77153e-06,0
-2.57412e-05,6.53686e-05,-5.76348e-06,9.73854e-06,2.22448e-05,-3.97144e-06,3.43083e-06,1.81038e-06,0
-2.65805e-05,6.53854e-05,-4.97334e-06,1.60107e-05,2.01072e-05,-3.95779e-06,5.87545e-06,1.49977e-06,0
-2.77413e-05,5.80049e-05,-4.58854e-06,1.45978e-05,1.75764e-05,-3.51913e-06,7.67756e-06,2.53075e-06,0
-2.77772e-05,4.86496e-05,-4.90938e-06,8.52221e-06,1.69666e-05,-4.29943e-06,8.65548e-06,2.85551e-06,0
-2.66033e-05,3.92053e-05,-5.5533e-06,3.22856e-06,1.70501e-05,-6.26615e-06,9.73623e-06,7.54567e-07,0
-2.66924e-05,2.74147e-05,-6.0577e-06,1.20113e-06,1.63672e-05,-8.64842e-06,9.95466e-06,-1.54458e-06,0
-2.8257e-05,1.5593e-05,-5.35533e-06,1.15957e-06,1.61595e-05,-9.35919e-06,1.02299e-05,-1.9984e-06,0
-2.95349e-05,6.55428e-06,-2.89877e-06,3.10249e-07,1.74625e-05,-8.17735e-06,1.11262e-05,-1.80409e-06,0
-2.95528e-05,1.47521e-06,-1.32591e-07,-3.5702e-08,1.84829e-05,-6.65974e-06,1.26998e-05,-1.45768e-06,0
-2.98925e-05,-2.17004e-07,7.29632e-07,4.97159e-08,1.77086e-05,-5.77027e-06,1.47422e-05,-9.6459e-07,0
-3.16381e-05,-1.06512e-06,1.14281e-07,-1.67745e-07,1.68871e-05,-6.37182e-06,1.71146e-05,-5.01298e-07,0
-3.39101e-05,-2.43644e-06,2.98449e-07,6.49438e-07,1.79227e-05,-7.96791e-06,1.8885e-05,-8.59055e-07,0
-3.39976e-05,-4.72908e-06,4.39231e-06,1.15495e-06,1.96465e-05,-9.31529e-06,1.87579e-05,-2.01578e-06,0
-3.22647e-05,-7.17058e-06,1.43178e-05,-4.32831e-06,1.96919e-05,-8.67664e-06,1.79452e-05,-3.37761e-06,0
-3.11256e-05,-8.52265e-06,3.05612e-05,-1.60088e-05,1.80776e-05,-7.94172e-06,1.83842e-05,-4.19093e-06,0
-3.09052e-05,-7.11182e-06,5.02084e-05,-2.54169e-05,1.51107e-05,-9.33815e-06,2.10423e-05,-3.98347e-06,0
-3.06955e-05,-2.44504e-06,6.73772e-05,-2.39007e-05,1.1897e-05,-1.08338e-05,2.44712e-05,-1.85984e-06,0
-3.08926e-05,3.92889e-06,7.14764e-05,-1.30435e-05,1.22263e-05,-1.05158e-05,2.62922e-05,1.52844e-06,0
-3.20047e-05,8.60299e-06,5.62694e-05,1.82887e-07,1.63962e-05,-9.59292e-06,2.54743e-05,3.96621e-06,0
-3.35051e-05,1.30475e-05,2.52224e-05,1.49807e-05,1.88882e-05,-8.96711e-06,2.28314e-05,5.9102e-06,0
-3.37771e-05,1.81971e-05,-1.36185e-05,2.46218e-05,1.78407e-05,-9.43332e-06,2.13233e-05,5.85275e-06,0
-3.37008e-05,2.26751e-05,-5.25697e-05,2.32526e-05,1.79957e-05,-1.02226e-05,2.07684e-05,2.69744e-06,0
-3.35089e-05,2.60537e-05,-8.0311e-05,1.58605e-05,2.07712e-05,-1.15683e-05,1.9228e-05,-7.01961e-07,0
-3.35777e-05,2.76207e-05,-8.93488e-05,6.42492e-06,2.14792e-05,-1.28941e-05,1.43914e-05,-1.54578e-06,0
-3.39651e-05,2.73349e-05,-8.18273e-05,-3.62306e-06,1.89865e-05,-1.20291e-05,8.22743e-06,1.12971e-06,0
-3.34898e-05,2.5592e-05,-6.46497e-05,-1.07097e-05,1.7724e-05,-9.90349e-06,3.78359e-06,4.41141e-06,0
-3.38499e-05,2.4216e-05,-5.10733e-05,-1.06786e-05,1.88061e-05,-8.6192e-06,-1.92351e-06,6.23004e-06,0
-3.35987e-05,2.28241e-05,-4.19251e-05,-9.96078e-06,1.83089e-05,-9.37305e-06,-7.70758e-06,7.30908e-06,0
-3.26212e-05,2.083e-05,-3.41242e-05,-1.62231e-05,1.65539e-05,-1.01799e-05,-9.76364e-06,8.18836e-06,0
-3.38676e-05,1.86445e-05,-2.5767e-05,-2.29945e-05,1.55483e-05,-1.1084e-05,-5.38384e-06,8.10702e-06,0
-3.6565e-05,1.74663e-05,-1.93466e-05,-2.01649e-05,1.39719e-05,-1.20979e-05,4.29062e-06,6.94013e-06,0
-3.80488e-05,1.76602e-05,-1.41378e-05,-6.17167e-06,1.20008e-05,-1.2572e-05,1.64391e-05,5.32648e-06,0
-3.73736e-05,1.80314e-05,-7.87332e-06,9.16835e-06,1.17346e-05,-1.25423e-05,2.7738e-05,3.36493e-06,0
-3.51886e-05,1.86732e-05,-3.68197e-06,1.61838e-05,1.28746e-05,-1.23733e-05,3.59642e-05,1.27572e-06,0
-3.29017e-05,1.95714e-05,-2.83157e-06,2.03922e-05,1.44326e-05,-1.2473e-05,4.03013e-05,-6.95972e-07,0
-3.14719e-05,1.99821e-05,-5.84333e-06,3.40847e-05,1.61917e-05,-1.23685e-05,4.11587e-05,-2.46268e-06,0
-3.13012e-05,2.11188e-05,-9.5834e-06,5.69179e-05,1.67874e-05,-1.3685e-05,4.09032e-05,-3.76715e-06,0
-3.22507e-05,2.73417e-05,-1.279e-05,7.33789e-05,1.54476e-05,-1.5776e-05,4.12861e-05,-4.05631e-06,0
-3.39501e-05,4.01921e-05,-1.26442e-05,7.0335e-05,1.35795e-05,-1.56885e-05,4.15187e-05,-3.60049e-06,0
-3.5523e-05,5.3351e-05,-1.01551e-05,4.93912e-05,1.37581e-05,-1.33005e-05,3.95109e-05,-2.60423e-06,0
-3.56532e-05,6.01895e-05,-8.38694e-06,1.98313e-05,1.53254e-05,-1.20807e-05,3.74518e-05,-2.22696e-06,0
-3.35786e-05,6.05435e-05,-9.29123e-06,-9.21759e-06,1.56594e-05,-1.38287e-05,3.6824e-05,-2.84848e-06,0
-3.02745e-05,5.68108e-05,-1.09224e-05,-3.11501e-05,1.38299e-05,-1.60372e-05,3.57812e-05,-2.01838e-06,0
-2.83319e-05,5.42442e-05,-1.07401e-05,-4.49368e-05,9.64142e-06,-1.5713e-05,3.32484e-05,5.81219e-07,0
-2.78137e-05,5.42812e-05,-7.96221e-06,-5.60285e-05,2.84565e-06,-1.52441e-05,3.03626e-05,1.13052e-06,0
-2.62122e-05,5.25623e-05,-4.99599e-06,-6.5899e-05,-3.79261e-06,-1.68313e-05,2.80011e-05,3.45582e-07,0
-2.52771e-05,4.91963e-05,-4.17339e-06,-7.22334e-05,-8.99768e-06,-1.76403e-05,2.6483e-05,1.18488e-06,0
-2.59948e-05,4.20245e-05,-4.5008e-06,-7.7048e-05,-1.32928e-05,-1.71667e-05,2.40209e-05,2.50741e-06,0
-2.64465e-05,2.47633e-05,-5.93577e-06,-8.16406e-05,-1.46638e-05,-1.53042e-05,2.11917e-05,2.94382e-06,0
-2.67085e-05,2.59163e-06,-9.44512e-06,-8.00606e-05,-1.04731e-05,-1.30694e-05,1.8181e-05,3.07545e-06,0
-2.76811e-05,-1.79399e-05,-1.18377e-05,-7.02714e-05,-3.29055e-06,-1.22416e-05,1.33753e-05,3.36654e-06,0
-3.01523e-05,-3.8868e-05,-1.15956e-05,-5.50038e-05,1.47082e-06,-1.3364e-05,9.24097e-06,3.84794e-06,0
-3.21613e-05,-5.34006e-05,-1.23121e-05,-3.27425e-05,3.94878e-06,-1.6038e-05,7.85076e-06,3.61224e-06,0
-3.24996e-05,-5.38591e-05,-1.25459e-05,-6.16169e-06,6.75078e-06,-1.65894e-05,8.29891e-06,3.38136e-06,0
-3.0965e-05,-4.4224e-05,-9.80737e-06,2.02531e-05,1.32497e-05,-1.45512e-05,9.25154e-06,3.69727e-06,0
-2.87674e-05,-3.32673e-05,-5.30122e-06,4.1188e-05,2.36406e-05,-1.1136e-05,1.06157e-05,4.37729e-06,0
-2.75201e-05,-2.53752e-05,-1.97162e-06,5.22118e-05,3.47035e-05,-8.43582e-06,1.20877e-05,6.58041e-06,0
-2.73521e-05,-1.83757e-05,-5.80315e-07,5.01789e-05,4.07117e-05,-7.28728e-06,1.46982e-05,8.72495e-06,0
-2.73014e-05,-1.03357e-05,-1.49852e-06,3.81601e-05,3.83633e-05,-7.17118e-06,2.13961e-05,9.1225e-06,0
-2.63362e-05,-1.52755e-06,-3.65403e-06,2.49464e-05,3.13457e-05,-8.10335e-06,2.92282e-05,9.55306e-06,0
-2.50884e-05,5.90412e-06,-5.366e-06,1.46795e-05,2.58059e-05,-9.2794e-06,3.35249e-05,9.7114e-06,0
-2.40418e-05,1.18213e-05,-3.91804e-06,7.65231e-06,2.43168e-05,-1.1406e-05,3.38476e-05,7.36534e-06,0
-2.35525e-05,1.59476e-05,5.32906e-07,2.43495e-06,2.6674e-05,-1.24059e-05,3.04648e-05,3.36746e-06,0
-2.33263e-05,1.75886e-05,4.56781e-06,-3.45625e-06,3.09402e-05,-1.1522e-05,2.47037e-05,9.26217e-07,0
-2.41128e-05,1.71035e-05,6.2012e-06,-1.1656e-05,3.25766e-05,-1.13806e-05,1.66878e-05,1.87396e-06,0
-2.66779e-05,1.75119e-05,6.7271e-06,-1.76023e-05,3.08163e-05,-1.26726e-05,6.09693e-06,3.42409e-06,0
-2.93297e-05,2.52359e-05,7.51606e-06,-1.80634e-05,2.72117e-05,-1.32744e-05,-5.80392e-06,2.77232e-06,0
-2.93922e-05,4.06763e-05,8.35866e-06,-1.52991e-05,2.32698e-05,-1.27299e-05,-1.56909e-05,1.66311e-06,0
-2.78911e-05,5.36919e-05,8.46801e-06,-1.43047e-05,2.08683e-05,-1.18975e-05,-2.09001e-05,3.46353e-06,0
