ch1,ch2,ch3,ch4,ch5,ch6,ch7,ch8,class
-3.37e-05,6.48182e-06,-1.09597e-05,-3.73359e-06,6.92699e-06,-7.37062e-06,5.92628e-06,2.48776e-06,0
-3.40045e-05,8.97946e-06,-9.83668e-06,-4.48183e-06,5.79525e-06,-8.67105e-06,2.05876e-06,1.2128e-06,0
-3.47517e-05,1.19748e-05,-8.55557e-06,-7.82795e-06,6.51053e-06,-1.07459e-05,-1.09966e-06,4.36394e-07,0
-3.46941e-05,1.40577e-05,-7.69482e-06,-1.39503e-05,5.56278e-06,-1.30509e-05,7.02746e-07,6.63224e-08,0
-3.33265e-05,1.49846e-05,-6.12931e-06,-1.92191e-05,1.42e-06,-1.46531e-05,5.37604e-06,-6.76744e-07,0
-3.16842e-05,1.43115e-05,-4.62723e-06,-2.04292e-05,-3.23058e-06,-1.33514e-05,9.49401e-06,-1.49619e-06,0
-3.1364e-05,1.33674e-05,-4.19495e-06,-1.78748e-05,-5.27465e-06,-9.79967e-06,1.13233e-05,-4.39593e-07,0
-3.202e-05,1.30606e-05,-4.19597e-06,-1.21764e-05,-4.56665e-06,-7.25783e-06,1.28241e-05,1.42195e-06,0
-3.17947e-05,1.34141e-05,-3.59009e-06,-4.37131e-06,4.44541e-07,-6.71405e-06,1.4341e-05,3.13245e-06,0
-3.0135e-05,1.41222e-05,-1.80394e-06,4.96571e-06,1.17914e-05,-6.59691e-06,1.56769e-05,3.63296e-06,0
-2.90816e-05,1.45369e-05,-8.99719e-07,1.39857e-05,2.7328e-05,-5.19846e-06,1.57394e-05,2.91425e-06,0
-2.93291e-05,1.47356e-05,-3.21766e-06,1.78421e-05,3.86052e-05,-4.50518e-06,1.48614e-05,1.66447e-06,0
-2.99178e-05,1.48789e-05,-7.29721e-06,1.47576e-05,3.82996e-05,-8.01206e-06,1.32636e-05,1.66415e-06,0
-3.02125e-05,1.50897e-05,-1.05203e-05,9.13923e-06,3.01288e-05,-1.1341e-05,1.12513e-05,3.60087e-06,0
-2.95738e-05,1.4837e-05,-1.15023e-05,5.21815e-06,2.286e-05,-1.14318e-05,1.01344e-05,6.95659e-06,0
-2.96953e-05,1.64182e-05,-1.04366e-05,2.01867e-06,2.02125e-05,-9.99042e-06,1.06335e-05,7.65008e-06,0
-2.98501e-05,1.87987e-05,-8.05971e-06,-3.54762e-06,1.99681e-05,-8.80016e-06,1.20009e-05,3.51657e-06,0
-2.73703e-05,1.91062e-05,-5.66809e-06,-8.29228e-06,1.84986e-05,-9.55948e-06,1.31888e-05,-3.52861e-07,0
-2.44176e-05,1.69407e-05,-4.33684e-06,-1.0139e-05,1.45693e-05,-1.20447e-05,1.40092e-05,-2.19094e-07,0
-2.46313e-05,1.42519e-05,-4.08765e-06,-9.14021e-06,9.08627e-06,-1.39339e-05,1.27159e-05,8.36105e-07,0
-2.78077e-05,1.27576e-05,-4.15052e-06,-6.04525e-06,4.48007e-06,-1.14522e-05,9.42883e-06,4.31647e-07,0
-2.97925e-05,1.42522e-05,-3.70757e-06,-5.36616e-06,2.56505e-06,-8.11264e-06,7.8498e-06,1.14581e-06,0
-3.05243e-05,1.87221e-05,-3.35924e-06,-6.83833e-06,2.94245e-06,-5.4595e-06,9.61987e-06,1.90563e-06,0
-3.16682e-05,2.24733e-05,-3.69263e-06,-8.06061e-06,2.46998e-06,-3.85094e-06,1.28607e-05,-2.72681e-08,0
-3.12725e-05,2.41499e-05,-5.08995e-06,-8.54632e-06,4.95376e-07,-3.73783e-06,1.50576e-05,-2.06734e-06,0
-2.94582e-05,2.50411e-05,-6.79476e-06,-8.94456e-06,-2.35981e-06,-4.5774e-06,1.56367e-05,-2.50901e-06,0
-2.9343e-05,2.38353e-05,-8.78856e-06,-9.47709e-06,-3.75326e-06,-6.27167e-06,1.44465e-05,-2.52715e-06,0
-3.08578e-05,1.98627e-05,-1.03444e-05,-9.18358e-06,-1.39907e-06,-9.25757e-06,1.32188e-05,-2.96356e-06,0
-3.2179e-05,1.57498e-05,-1.06532e-05,-7.24544e-06,3.40421e-06,-1.24292e-05,1.32494e-05,-4.60253e-06,0
-3.20851e-05,1.29143e-05,-9.83775e-06,-3.62097e-06,8.34655e-06,-1.312e-05,1.32019e-05,-5.97493e-06,0
-3.06953e-05,1.26831e-05,-8.44812e-06,-6.62911e-07,1.08992e-05,-1.32807e-05,1.47531e-05,-5.74465e-06,0
-2.91666e-05,1.45846e-05,-6.1643e-06,-5.99173e-07,1.21854e-05,-1.42567e-05,1.87448e-05,-4.78338e-06,0
-2.78315e-05,1.69725e-05,-3.81045e-06,-2.3289e-06,1.41917e-05,-1.56911e-05,2.31436e-05,-4.40348e-06,0
-2.6156e-05,2.07746e-05,-3.39321e-06,-2.71309e-06,1.75763e-05,-1.52662e-05,2.53866e-05,-4.79803e-06,0
-2.4338e-05,2.76032e-05,-3.596e-06,-1.66055e-06,1.97611e-05,-1.30075e-05,2.61237e-05,-4.93336e-06,0
-2.39762e-05,3.75099e-05,-3.36778e-06,-1.89028e-06,1.86243e-05,-1.1411e-05,2.51205e-05,-4.40315e-06,0
-2.4496e-05,4.79831e-05,-3.03785e-06,-3.91674e-06,1.51841e-05,-1.17323e-05,2.18464e-05,-2.83978e-06,0
-2.54261e-05,5.29424e-05,-3.79817e-06,-6.0044e-06,1.23889e-05,-1.28288e-05,1.72591e-05,3.94906e-07,0
-2.6754e-05,4.98575e-05,-4.82717e-06,-8.06732e-06,1.15477e-05,-1.42336e-05,1.31638e-05,3.45846e-06,0
-2.71794e-05,4.59056e-05,-4.95915e-06,-1.09809e-05,1.25579e-05,-1.55213e-05,1.05282e-05,3.84735e-06,0
-2.73481e-05,4.70676e-05,-4.42884e-06,-1.29315e-05,1.32617e-05,-1.58756e-05,9.26097e-06,2.63674e-06,0
-2.81365e-05,4.977e-05,-4.55837e-06,-1.25025e-05,1.29214e-05,-1.59743e-05,7.72776e-06,2.70989e-06,0
-2.8939e-05,4.69748e-05,-5.32457e-06,-9.18456e-06,1.31414e-05,-1.67364e-05,6.79467e-06,3.77009e-06,0
-3.06608e-05,3.87678e-05,-6.96237e-06,-2.16732e-06,1.51422e-05,-1.69573e-05,7.2014e-06,5.13895e-06,0
-3.09207e-05,3.10167e-05,-9.35593e-06,4.82023e-06,1.86586e-05,-1.64947e-05,6.33818e-06,6.89285e-06,0
-3.0003e-05,2.46741e-05,-1.02841e-05,8.11876e-06,2.14034e-05,-1.65567e-05,3.5095e-06,8.68118e-06,0
-3.07371e-05,1.99079e-05,-8.09924e-06,7.68295e-06,2.38271e-05,-1.77106e-05,-3.9546e-07,9.06727e-06,0
-3.13511e-05,1.76355e-05,-5.18712e-06,4.49536e-06,2.42285e-05,-1.98899e-05,-2.32612e-06,6.86456e-06,0
-3.06531e-05,1.52283e-05,-5.77653e-06,8.3332e-07,2.0677e-05,-2.14408e-05,-1.8165e-06,5.68156e-06,0
-2.85255e-05,1.19478e-05,-8.27446e-06,-2.82326e-06,1.66037e-05,-2.12174e-05,1.29727e-06,6.6166e-06,0
-2.71432e-05,8.55818e-06,-9.115e-06,-2.16942e-06,1.52318e-05,-1.93245e-05,4.52751e-06,6.58881e-06,0
-2.81409e-05,4.73105e-06,-7.29215e-06,1.38223e-06,1.50224e-05,-1.67032e-05,6.7119e-06,4.17659e-06,0
-3.06095e-05,2.4071e-07,-4.61435e-06,9.49789e-07,1.47059e-05,-1.49465e-05,7.50995e-06,1.51458e-06,0
-3.29954e-05,-4.26963e-06,-3.9273e-06,-4.78502e-06,1.4221e-05,-1.39579e-05,5.72691e-06,1.52581e-06,0
-3.30199e-05,-8.50756e-06,-4.71941e-06,-1.12335e-05,1.28031e-05,-1.25245e-05,5.22429e-06,3.15748e-06,0
-3.10422e-05,-1.00657e-05,-5.10072e-06,-1.37758e-05,1.15249e-05,-1.11532e-05,6.77917e-06,4.14859e-06,0
-2.94601e-05,-8.34399e-06,-5.06053e-06,-1.2893e-05,1.12661e-05,-9.63159e-06,8.96842e-06,4.90563e-06,0
-2.90335e-05,-6.79929e-06,-4.39481e-06,-1.2004e-05,1.12311e-05,-9.06367e-06,1.09941e-05,6.42042e-06,0
-2.96816e-05,-5.75838e-06,-3.72972e-06,-1.27495e-05,1.09726e-05,-9.71617e-06,1.14344e-05,6.70383e-06,0
-3.12467e-05,-5.16652e-06,-4.31158e-06,-1.33736e-05,1.01161e-05,-1.00711e-05,1.00833e-05,6.00091e-06,0
-3.25558e-05,-5.50636e-06,-6.6431e-06,-1.44372e-05,9.84917e-06,-9.17165e-06,9.9581e-06,5.2552e-06,0
-3.25618e-05,-7.39365e-06,-8.87698e-06,-1.55984e-05,1.07353e-05,-8.79789e-06,1.2403e-05,3.48543e-06,0
-3.16919e-05,-1.04619e-05,-9.07092e-06,-1.58364e-05,1.02494e-05,-9.49936e-06,1.48073e-05,2.01068e-06,0
-3.115e-05,-1.25352e-05,-8.36993e-06,-1.32457e-05,7.08411e-06,-9.80221e-06,1.47775e-05,2.60694e-06,0
-3.1277e-05,-1.14034e-05,-8.24566e-06,-8.4826e-06,3.82156e-06,-1.06762e-05,1.41953e-05,4.64449e-06,0
-3.08215e-05,-8.42192e-06,-7.41713e-06,-3.31501e-06,2.33779e-06,-1.2831e-05,1.56244e-05,7.15167e-06,0
-2.99218e-05,-5.26081e-06,-6.102e-06,1.13484e-06,3.02172e-06,-1.47923e-05,1.78049e-05,9.12569e-06,0
-3.04339e-05,-2.25598e-06,-5.62768e-06,4.69349e-06,6.24226e-06,-1.45973e-05,1.79529e-05,9.78451e-06,0
-3.1596e-05,1.07966e-07,-5.67655e-06,7.20778e-06,1.00543e-05,-1.18406e-05,1.51689e-05,1.00566e-05,0
-3.10315e-05,2.35669e-06,-6.05183e-06,7.61307e-06,1.12813e-05,-8.97872e-06,1.34311e-05,8.95286e-06,0
-2.94755e-05,1.41475e-06,-5.98744e-06,2.1685e-06,1.03121e-05,-7.90179e-06,1.4724e-05,5.97058e-06,0
-2.86964e-05,-1.10241e-06,-5.33899e-06,-8.09627e-06,8.54312e-06,-7.87378e-06,1.58549e-05,4.30145e-06,0
-2.91146e-05,-2.33143e-06,-4.8246e-06,-1.70915e-05,5.23906e-06,-7.22204e-06,1.53104e-05,3.31839e-06,0
-3.13867e-05,-2.92588e-06,-5.02855e-06,-2.11577e-05,3.24773e-06,-7.03975e-06,1.524e-05,5.50114e-07,0
-3.39671e-05,-1.01823e-06,-3.9016e-06,-1.93904e-05,3.96414e-06,-7.86044e-06,1.60658e-05,-1.93976e-06,0
-3.41746e-05,1.6875e-06,-2.35673e-06,-1.78045e-05,3.94245e-06,-8.2292e-06,1.67401e-05,-2.36849e-06,0
-3.2841e-05,3.79478e-06,-3.23841e-06,-1.70521e-05,8.74176e-07,-9.04729e-06,1.30466e-05,-1.82597e-06,0
-3.10627e-05,6.50978e-06,-7.0632e-06,-1.16752e-05,-1.00035e-06,-9.81785e-06,3.64798e-06,-2.12445e-06,0
-3.02548e-05,8.59622e-06,-1.00427e-05,-2.28421e-06,-1.1639e-07,-9.58496e-06,-3.63957e-06,-2.39016e-06,0
-3.05608e-05,8.87296e-06,-8.47573e-06,4.99867e-06,1.15362e-06,-7.61986e-06,-1.67132e-06,-2.13072e-06,0
-3.11896e-05,8.79087e-06,-6.79933e-06,9.08623e-06,2.73748e-06,-5.95196e-06,8.55079e-06,-1.03215e-06,0
-3.11513e-05,1.02089e-05,-7.13606e-06,1.02931e-05,3.07424e-06,-5.5558e-06,2.29532e-05,-1.87444e-07,0
-3.05569e-05,1.1474e-05,-6.86665e-06,9.66873e-06,3.5441e-06,-6.46741e-06,3.82968e-05,-6.27601e-07,0
-3.0197e-05,1.09831e-05,-5.93511e-06,8.77288e-06,6.07896e-06,-7.44973e-06,5.15244e-05,-1.25523e-06,0
-2.85956e-05,1.04128e-05,-6.63302e-06,6.73867e-06,1.10603e-05,-6.49814e-06,6.06858e-05,-6.72654e-07,0
-2.68287e-05,9.90862e-06,-7.92566e-06,4.29752e-06,1.71879e-05,-4.44645e-06,6.37949e-05,8.96482e-07,0
-2.69934e-05,7.53437e-06,-8.09189e-06,1.98425e-06,2.14332e-05,-2.32613e-06,6.09212e-05,2.46112e-06,0
-2.92651e-05,4.35866e-06,-7.96094e-06,-2.46789e-06,2.06601e-05,-1.72371e-06,5.3022e-05,3.95063e-06,0
-3.10244e-05,4.16864e-06,-8.5959e-06,-9.52985e-06,1.65373e-05,-1.86093e-06,4.15566e-05,4.54005e-06,0
-3.16394e-05,6.58744e-06,-1.03264e-05,-1.55082e-05,1.34483e-05,-2.18278e-06,2.76369e-05,3.96873e-06,0
-3.15532e-05,7.98067e-06,-1.27465e-05,-1.86239e-05,1.19063e-05,-3.60496e-06,1.18438e-05,2.89514e-06,0
-3.19273e-05,8.20111e-06,-1.51742e-05,-1.78463e-05,1.14345e-05,-4.83313e-06,-4.29367e-06,2.57785e-06,0
-3.38436e-05,8.1711e-06,-1.48055e-05,-1.31691e-05,1.2294e-05,-3.66455e-06,-1.76242e-05,1.71097e-06,0
-3.47532e-05,7.75802e-06,-1.08276e-05,-7.31402e-06,1.44402e-05,-2.09518e-06,-2.57252e-05,7.88883e-07,0
-3.3111e-05,7.12469e-06,-6.98557e-06,-2.85882e-06,1.69294e-05,-1.6606e-06,-2.8154e-05,1.34882e-06,0
-3.08276e-05,7.25371e-06,-5.48734e-06,3.59386e-09,1.9051e-05,-2.13854e-06,-2.76659e-05,3.01392e-06,0
-2.84574e-05,9.26848e-06,-5.85083e-06,1.236e-06,2.06024e-05,-2.81773e-06,-2.84949e-05,5.18919e-06,0
-2.62642e-05,1.22019e-05,-6.79494e-06,2.10798e-06,2.14301e-05,-2.39703e-06,-3.10956e-05,5.89228e-06,0
-2.59707e-05,1.33421e-05,-6.50539e-06,1.05749e-06,1.91502e-05,-2.01363e-06,-3.22193e-05,4.5228e-06,0
-2.75568e-05,1.29237e-05,-6.68652e-06,-1.9622e-06,1.35693e-05,-1.60437e-06,-2.83808e-05,3.27606e-06,0
-2.86343e-05,1.2395e-05,-8.61548e-06,-5.12539e-06,8.58566e-06,-1.19897e-07,-2.05617e-05,1.80592e-06,0
-2.8055e-05,1.34329e-05,-1.00635e-05,-7.43436e-06,5.91035e-06,1.98314e-06,-1.35361e-05,6.99495e-07,0
-2.75556e-05,1.59031e-05,-1.17376e-05,-7.2778e-06,5.1812e-06,2.48568e-06,-9.6393e-06,1.68231e-06,0
-2.65846e-05,1.83163e-05,-1.40764e-05,-8.01374e-06,7.35213e-06,8.45515e-07,-6.3804e-06,2.01609e-06,0
-2.58595e-05,1.94753e-05,-1.4015e-05,-9.97795e-06,1.0599e-05,-1.2286e-06,-2.5649e-06,1.51532e-06,0
-2.6306e-05,1.76603e-05,-1.30196e-05,-1.02247e-05,1.09557e-05,-3.53661e-06,1.31092e-06,8.18936e-07,0
-2.71696e-05,1.48601e-05,-1.32952e-05,-7.16693e-06,1.00482e-05,-4.78091e-06,5.27825e-06,-5.9718e-07,0
-2.75424e-05,1.26869e-05,-1.36984e-05,-3.51702e-06,1.14946e-05,-4.42492e-06,8.77647e-06,-1.09721e-06,0
-2.73448e-05,1.28258e-05,-1.42399e-05,-1.98378e-06,1.37758e-05,-4.29854e-06,1.01144e-05,-2.09111e-06,0
-2.67397e-05,1.55314e-05,-1.40007e-05,-2.25391e-06,1.46038e-05,-4.10476e-06,1.05656e-05,-3.17789e-06,0
-2.6922e-05,2.01189e-05,-1.38977e-05,-3.55366e-06,1.52513e-05,-4.33358e-06,1.27288e-05,-2.74473e-06,0
-2.76863e-05,2.3754e-05,-1.48274e-05,-3.7922e-06,1.69475e-05,-6.40937e-06,1.7803e-05,-2.58784e-06,0
-2.82165e-05,2.39081e-05,-1.56304e-05,-2.73908e-06,1.79066e-05,-9.1991e-06,2.33534e-05,-3.70366e-06,0
-2.9545e-05,2.00029e-05,-1.51716e-05,-2.11155e-06,1.75054e-05,-1.06945e-05,2.56979e-05,-4.63978e-06,0
-3.15714e-05,1.42072e-05,-1.25711e-05,-2.19397e-06,1.77721e-05,-1.07898e-05,2.59483e-05,-4.46824e-06,0
-3.21908e-05,1.02571e-05,-8.95838e-06,-1.00474e-06,1.94737e-05,-1.02526e-05,2.60881e-05,-4.76422e-06,0
-3.0712e-05,8.36104e-06,-6.21555e-06,5.90782e-07,2.17305e-05,-9.25241e-06,2.57619e-05,-5.16714e-06,0
-2.9925e-05,7.66119e-06,-6.01689e-06,7.53733e-07,2.31949e-05,-8.66123e-06,2.3629e-05,-4.469e-06,0
-3.06646e-05,6.95458e-06,-7.75349e-06,-7.89428e-07,2.31885e-05,-9.66161e-06,2.08029e-05,-3.85365e-06,0
-3.17926e-05,6.94196e-06,-9.46169e-06,-3.76709e-06,2.07158e-05,-1.13739e-05,1.833e-05,-4.08627e-06,0
-3.16994e-05,6.77381e-06,-1.04047e-05,-6.20957e-06,1.7153e-05,-1.15635e-05,1.70189e-05,-4.10292e-06,0
-3.12232e-05,6.84562e-06,-1.20398e-05,-8.24984e-06,1.55601e-05,-1.04096e-05,1.84344e-05,-3.9721e-06,0
-3.12766e-05,8.26331e-06,-1.42593e-05,-1.17228e-05,1.58506e-05,-9.9764e-06,2.09419e-05,-4.08872e-06,0
-3.17502e-05,1.19767e-05,-1.63116e-05,-1.50678e-05,1.58989e-05,-1.15218e-05,2.142e-05,-3.94996e-06,0
-3.26118e-05,1.72636e-05,-1.86976e-05,-1.5771e-05,1.46543e-05,-1.22052e-05,1.92832e-05,-2.28979e-06,0
-3.25288e-05,1.9706e-05,-1.85901e-05,-1.38531e-05,1.32176e-05,-9.46513e-06,1.76749e-05,-5.99556e-07,0
-3.03752e-05,1.8766e-05,-1.58734e-05,-9.55572e-06,1.17635e-05,-7.64396e-06,1.80131e-05,1.07283e-06,0
-2.93835e-05,1.64147e-05,-1.38159e-05,-4.81924e-06,1.09067e-05,-8.96682e-06,1.71386e-05,2.74798e-06,0
-3.13291e-05,1.51644e-05,-1.29876e-05,-3.01338e-06,1.06846e-05,-1.00225e-05,1.32862e-05,1.61631e-06,0
-3.26127e-05,1.7347e-05,-1.30418e-05,-2.35851e-06,1.05115e-05,-1.15079e-05,6.55558e-06,9.59499e-08,0
-3.16663e-05,2.09602e-05,-1.13702e-05,-2.10566e-06,1.12051e-05,-1.33718e-05,2.03039e-06,1.44266e-06,0
-3.09729e-05,2.23274e-05,-8.5227e-06,-1.13622e-06,1.15722e-05,-1.25593e-05,1.78514e-06,3.74258e-06,0
-3.09296e-05,1.96625e-05,-8.08004e-06,-1.4685e-06,1.06001e-05,-1.0593e-05,3.23484e-06,4.85511e-06,0
-2.97136e-05,1.75894e-05,-7.86441e-06,-4.57293e-06,9.87892e-06,-8.92212e-06,5.28266e-06,5.44243e-06,0
-2.92748e-05,1.68764e-05,-6.12795e-06,-4.25462e-06,1.15959e-05,-8.05974e-06,8.68308e-06,5.64648e-06,0
-2.8862e-05,1.62529e-05,-3.41859e-06,-2.26794e-06,1.313e-05,-8.26813e-06,1.53276e-05,4.86956e-06,0
-2.74368e-05,1.75697e-05,2.10843e-06,-2.03069e-06,1.26821e-05,-8.82714e-06,2.35949e-05,3.47964e-06,0
-2.65412e-05,2.02381e-05,1.2326e-05,-2.04846e-06,1.13054e-05,-9.23644e-06,2.91762e-05,2.91001e-06,0
-2.63332e-05,2.41721e-05,2.57885e-05,-1.34021e-06,9.43493e-06,-9.08745e-06,2.95154e-05,3.50784e-06,0
-2.63695e-05,2.81292e-05,4.07361e-05,-1.60595e-06,8.87633e-06,-8.38474e-06,2.81207e-05,3.14654e-06,0
-2.67322e-05,3.02784e-05,5.54272e-05,-2.17357e-06,9.72506e-06,-8.0176e-06,2.85262e-05,1.14897e-06,0
-2.8076e-05,3.04377e-05,6.42909e-05,-2.60677e-06,1.01415e-05,-8.76821e-06,3.06325e-05,-6.9287e-07,0
-3.00889e-05,3.12687e-05,5.97329e-05,-4.26733e-06,9.73124e-06,-9.5123e-06,3.27324e-05,-6.42204e-07,0
-3.18622e-05,3.24238e-05,3.79831e-05,-6.29475e-06,1.10105e-05,-8.2927e-06,3.45273e-05,1.05097e-06,0
-3.24977e-05,3.13653e-05,3.24838e-06,-6.67028e-06,1.33098e-05,-5.20119e-06,3.51286e-05,2.34833e-06,0
-3.26955e-05,2.92431e-05,-3.36669e-05,-6.62303e-06,1.39367e-05,-2.79724e-06,3.38049e-05,2.03057e-06,0
-3.26888e-05,2.93818e-05,-6.28128e-05,-1.01813e-05,1.28363e-05,-2.2946e-06,3.07099e-05,1.75351e-06,0
-3.22525e-05,2.97246e-05,-7.97308e-05,-1.67385e-05,1.18533e-05,-3.29654e-06,2.6048e-05,3.82797e-06,0
-3.19707e-05,2.77126e-05,-8.27297e-05,-2.13994e-05,1.15466e-05,-5.47704e-06,2.11437e-05,5.37703e-06,0
-3.356e-05,2.48583e-05,-7.35059e-05,-2.12328e-05,1.11271e-05,-6.82678e-06,1.80614e-05,5.69589e-06,0
-3.51845e-05,2.38015e-05,-6.04601e-05,-2.02679e-05,1.10025e-05,-6.19967e-06,1.76029e-05,5.4491e-06,0
-3.50869e-05,2.31855e-05,-5.05658e-05,-2.15875e-05,9.14131e-06,-6.68733e-06,1.82751e-05,3.10488e-06,0
-3.43284e-05,2.01686e-05,-4.25882e-05,-2.2011e-05,4.83261e-06,-7.04113e-06,2.05459e-05,2.19813e-06,0
-3.30573e-05,1.71879e-05,-2.9944e-05,-1.75674e-05,1.38659e-06,-5.38688e-06,2.36489e-05,3.70401e-06,0
-3.27989e-05,1.65016e-05,-1.25495e-05,-6.28658e-06,1.79471e-06,-5.45014e-06,2.46509e-05,3.59049e-06,0
-3.33322e-05,1.64651e-05,2.62708e-06,1.01842e-05,3.2116e-06,-7.91681e-06,2.37689e-05,2.55849e-06,0
-3.36867e-05,1.4828e-05,1.4395e-05,2.49079e-05,2.37648e-06,-8.21722e-06,2.08242e-05,3.02692e-06,0
-3.33741e-05,1.33842e-05,2.41515e-05,3.23117e-05,3.29224e-06,-6.63319e-06,1.71104e-05,3.13422e-06,0
-3.32107e-05,1.25024e-05,3.49216e-05,3.278e-05,7.52913e-06,-6.05741e-06,1.50457e-05,2.84053e-06,0
-3.15394e-05,1.19886e-05,4.66152e-05,2.63142e-05,1.0083e-05,-6.67404e-06,1.47624e-05,2.25851e-06,0
-2.9241e-05,1.24439e-05,5.34901e-05,1.27844e-05,8.49705e-06,-8.16331e-06,1.23767e-05,-8.57739e-08,0
-2.84412e-05,1.24038e-05,4.78223e-05,-2.81004e-06,6.51118e-06,-6.6193e-06,7.17037e-06,-2.23771e-06,0
-2.8435e-05,1.08468e-05,2.87645e-05,-1.71787e-05,5.4991e-06,-3.95103e-06,6.55595e-06,-2.12899e-06,0
-2.83112e-05,9.17061e-06,2.84779e-06,-2.58006e-05,5.35028e-06,-4.53287e-06,1.24763e-05,-5.10646e-07,0
-2.84674e-05,8.88912e-06,-2.29101e-05,-2.73928e-05,5.41297e-06,-6.77761e-06,1.99187e-05,-6.38389e-08,0
-3.00835e-05,9.68748e-06,-4.09207e-05,-2.53987e-05,5.77195e-06,-7.2993e-06,2.46465e-05,-1.50547e-06,0
-3.20908e-05,9.53471e-06,-4.6572e-05,-2.18742e-05,6.72296e-06,-5.89256e-06,2.61302e-05,-3.73751e-06,0
-3.43414e-05,6.469e-06,-4.37041e-05,-1.82677e-05,7.04598e-06,-5.00029e-06,2.10236e-05,-5.57778e-06,0
-3.59823e-05,1.85351e-06,-4.07783e-05,-1.36146e-05,7.82506e-06,-5.08933e-06,9.10581e-06,-5.83872e-06,0
-3.63425e-05,-7.94123e-07,-3.98666e-05,-9.71369e-06,9.17432e-06,-5.41976e-06,-4.54396e-06,-4.57874e-06,0
-3.53652e-05,-4.70361e-07,-3.9406e-05,-8.10821e-06,1.0973e-05,-4.87318e-06,-1.51776e-05,-3.10093e-06,0
-3.40198e-05,5.39809e-07,-3.73565e-05,-7.3713e-06,1.18131e-05,-4.26258e-06,-2.02345e-05,-2.39115e-06,0
-3.25203e-05,7.38695e-07,-3.37764e-05,-4.62832e-06,1.118e-05,-5.1348e-06,-1.98337e-05,-1.60816e-06,0
-3.14531e-05,7.8559e-08,-3.08434e-05,2.97833e-07,1.12311e-05,-6.97781e-06,-1.58112e-05,-9.91683e-07,0
-3.10132e-05,-6.82765e-07,-2.89366e-05,4.01204e-06,1.40337e-05,-8.31105e-06,-9.97379e-06,-1.04821e-06,0
-3.13481e-05,2.25185e-07,-2.67431e-05,4.8819e-06,1.72541e-05,-1.02818e-05,-2.44146e-06,-1.63035e-06,0
-3.17175e-05,1.90088e-06,-2.52458e-05,3.3764e-06,1.95908e-05,-1.23358e-05,4.25912e-06,-4.2912e-06,0
-3.13732e-05,1.74772e-06,-2.47534e-05,3.80874e-07,2.13214e-05,-1.33385e-05,9.95589e-06,-6.72193e-06,0
-3.1142e-05,2.93166e-06,-2.27946e-05,-3.36885e-07,2.15437e-05,-1.50867e-05,1.47679e-05,-5.6104e-06,0
-3.17225e-05,8.30377e-06,-1.89841e-05,1.75676e-06,2.05473e-05,-1.58744e-05,1.67247e-05,-3.09653e-06,0
-3.13448e-05,1.2817e-05,-1.39631e-05,1.53266e-06,1.71143e-05,-1.39238e-05,1.66899e-05,-1.70134e-06,0
-2.9503e-05,1.35457e-05,-8.75764e-06,-3.18315e-06,1.42412e-05,-1.26743e-05,1.5776e-05,-1.78931e-06,0
-2.8567e-05,1.3857e-05,-5.68664e-06,-8.82892e-06,1.34419e-05,-1.27226e-05,1.576e-05,-2.14104e-06,0
-2.74336e-05,1.22733e-05,-3.34909e-06,-1.28351e-05,1.12347e-05,-1.29854e-05,1.60741e-05,-1.46002e-06,0
-2.747e-05,8.95112e-06,-2.93167e-06,-1.63515e-05,8.24123e-06,-1.36317e-05,1.53759e-05,-2.44062e-07,0
-3.0367e-05,6.57458e-06,-5.58458e-06,-1.96107e-05,6.77467e-06,-1.24146e-05,1.39536e-05,-1.9491e-07,0
-3.36066e-05,5.63484e-06,-9.03297e-06,-2.01724e-05,7.1828e-06,-1.01141e-05,1.25434e-05,-4.96301e-07,0
-3.44348e-05,5.69854e-06,-1.02038e-05,-1.63156e-05,1.00599e-05,-9.93234e-06,1.20946e-05,5.41503e-07,0
-3.43824e-05,5.65006e-06,-6.95395e-06,-1.05829e-05,1.5232e-05,-1.24638e-05,1.07878e-05,2.21303e-06,0
-3.37071e-05,6.31549e-06,-2.37341e-06,-4.08523e-06,2.19699e-05,-1.35437e-05,1.1141e-05,3.33505e-06,0
-3.12693e-05,7.37777e-06,1.22067e-06,3.63232e-06,3.00712e-05,-1.20879e-05,1.33729e-05,3.27086e-06,0
-2.9527e-05,8.4438e-06,1.86516e-06,8.93234e-06,3.52284e-05,-1.0007e-05,1.54098e-05,2.181e-06,0
-2.99868e-05,8.75713e-06,-2.01177e-07,8.5362e-06,3.35322e-05,-8.80988e-06,1.60104e-05,1.66129e-06,0
-3.09299e-05,9.71554e-06,-2.90626e-06,3.80993e-06,2.79641e-05,-8.2367e-06,1.45143e-05,1.84951e-06,0
-3.10122e-05,1.02273e-05,-4.20389e-06,-2.44701e-06,2.37227e-05,-6.64478e-06,1.24308e-05,2.03972e-06,0
-3.06195e-05,9.09306e-06,-3.2727e-06,-7.4815e-06,2.21765e-05,-5.06715e-06,1.17201e-05,2.28111e-06,0
-3.01468e-05,8.50198e-06,-1.17443e-06,-9.25884e-06,2.04757e-05,-5.79288e-06,1.32201e-05,1.30348e-06,0
-2.95519e-05,1.0036e-05,-1.85105e-07,-6.66304e-06,1.8468e-05,-8.76917e-06,1.42774e-05,-8.8619e-07,0
-2.93138e-05,1.15787e-05,-1.84787e-06,-1.23531e-06,1.76811e-05,-1.13084e-05,1.31945e-05,-2.1799e-06,0
-3.05364e-05,1.14157e-05,-3.88797e-06,3.43778e-06,1.71305e-05,-1.27169e-05,1.15003e-05,-1.73893e-06,0
-3.26055e-05,1.08356e-05,-3.27035e-06,5.52064e-06,1.56228e-05,-1.43329e-05,1.23513e-05,-2.80694e-07,0
-3.39945e-05,1.01853e-05,-2.53062e-06,4.19914e-06,1.33166e-05,-1.79242e-05,1.45342e-05,3.03336e-07,0
-3.39131e-05,9.96363e-06,-4.33894e-06,-2.82612e-07,9.93303e-06,-2.06791e-05,1.48523e-05,-1.31143e-06,0
-3.35849e-05,1.02009e-05,-6.02007e-06,-4.53694e-06,8.00337e-06,-1.95883e-05,1.28511e-05,-1.78072e-06,0
-3.37032e-05,1.17236e-05,-3.44328e-06,-7.97997e-06,1.00477e-05,-1.61061e-05,1.07549e-05,-1.05178e-06,0
-3.36208e-05,1.47001e-05,1.78516e-07,-1.35129e-05,1.16077e-05,-1.41677e-05,1.084e-05,-5.80466e-07,0
-3.3678e-05,1.70684e-05,1.05911e-06,-2.20015e-05,9.18453e-06,-1.49381e-05,1.24546e-05,5.97685e-07,0
-3.33747e-05,1.51155e-05,8.52255e-07,-2.57139e-05,6.85688e-06,-1.61974e-05,1.26998e-05,1.14532e-06,0
-3.22024e-05,1.07689e-05,-3.87481e-07,-2.08435e-05,8.47727e-06,-1.60882e-05,1.10502e-05,1.4194e-07,0
-3.12243e-05,8.83078e-06,-2.84069e-06,-1.28851e-05,1.34638e-05,-1.55891e-05,8.91921e-06,-1.37453e-06,0
-3.02616e-05,8.99809e-06,-3.84284e-06,-4.9845e-06,1.98355e-05,-1.61371e-05,1.98972e-06,-1.28649e-06,0
-2.82317e-05,8.14994e-06,-1.42303e-06,3.04121e-07,2.47519e-05,-1.53923e-05,-1.5655e-05,-8.82503e-07,0
-2.57752e-05,6.45932e-06,8.13819e-07,5.52065e-06,2.94908e-05,-1.32137e-05,-3.42164e-05,-5.25376e-07,0
-2.37388e-05,6.54532e-06,2.68582e-06,1.1159e-05,3.24204e-05,-1.15565e-05,-3.71955e-05,-3.76901e-07,0
-2.26813e-05,8.08063e-06,3.85072e-06,1.26786e-05,3.07914e-05,-1.1332e-05,-2.26483e-05,5.42057e-07,0
-2.38734e-05,8.87273e-06,3.14066e-06,9.30515e-06,2.72082e-05,-1.28026e-05,-2.17277e-06,1.51294e-06,0
-2.55551e-05,7.5901e-06,8.1608e-07,5.52737e-06,2.42888e-05,-1.41943e-05,1.45607e-05,-6.52392e-08,0
-2.59272e-05,6.82732e-06,-2.02918e-06,3.8409e-06,2.36089e-05,-1.49403e-05,2.58675e-05,-9.94515e-07,0
-2.57564e-05,7.92843e-06,-4.99959e-06,3.42692e-06,2.2846e-05,-1.61907e-05,3.27583e-05,-2.84272e-07,0
-2.64545e-05,8.76028e-06,-7.1956e-06,3.83177e-06,2.10611e-05,-1.85633e-05,3.73696e-05,2.94834e-07,0
-2.74843e-05,9.15216e-06,-8.693e-06,4.41218e-06,1.94216e-05,-2.01013e-05,3.97014e-05,-4.33354e-07,0
-2.77759e-05,9.22155e-06,-1.09806e-05,4.22705e-06,1.85005e-05,-1.88228e-05,3.96686e-05,5.6833e-08,0
-2.73576e-05,9.11259e-06,-1.26157e-05,3.14073e-06,1.84267e-05,-1.7711e-05,3.81712e-05,2.52052e-06,0
-2.68102e-05,8.4669e-06,-1.27747e-05,2.30299e-06,1.85531e-05,-1.89894e-05,3.62646e-05,4.37745e-06,0
-2.77607e-05,6.89221e-06,-1.20184e-05,3.1439e-06,1.86441e-05,-2.05992e-05,3.48102e-05,4.57075e-06,0
-3.03576e-05,4.31258e-06,-1.0924e-05,6.31418e-06,1.89106e-05,-2.03658e-05,3.35595e-05,3.50217e-06,0
-3.27592e-05,1.4465e-06,-8.54964e-06,1.03437e-05,1.92571e-05,-1.88769e-05,3.15362e-05,2.42493e-06,0
-3.17199e-05,9.45376e-07,-6.66022e-06,1.36847e-05,2.0344e-05,-1.61952e-05,2.9007e-05,2.28407e-06,0
-2.78969e-05,2.65925e-06,-5.13517e-06,1.61012e-05,2.26483e-05,-1.25441e-05,2.64846e-05,2.43723e-06,0
-2.45243e-05,2.71159e-06,-3.03559e-06,1.79157e-05,2.45926e-05,-8.71215e-06,2.29279e-05,2.37455e-06,0
-2.40963e-05,9.9663e-07,-2.45328e-06,1.53826e-05,2.42358e-05,-5.75972e-06,1.84419e-05,1.99048e-06,0
-2.6072e-05,1.55158e-06,-3.08901e-06,7.48526e-06,2.15185e-05,-5.05384e-06,1.43589e-05,7.82769e-07,0
-2.81172e-05,6.54935e-06,-1.99477e-06,-1.46689e-06,1.67603e-05,-6.81495e-06,1.18774e-05,-3.17199e-07,0
-2.81177e-05,1.31081e-05,-1.12463e-06,-7.81547e-06,1.12883e-05,-8.42963e-06,1.17917e-05,-5.60957e-08,0
-2.64337e-05,1.56341e-05,-3.67995e-06,-1.15637e-05,7.72535e-06,-7.68335e-06,1.24301e-05,1.16371e-06,0
-2.60163e-05,1.37468e-05,-6.18364e-06,-1.45698e-05,5.40968e-06,-7.31327e-06,1.09653e-05,5.32533e-07,0
-2.69211e-05,1.1946e-05,-5.03182e-06,-1.91767e-05,4.09384e-06,-7.32478e-06,8.30519e-06,-5.05549e-08,0
-2.81667e-05,1.22276e-05,-3.07388e-06,-2.54395e-05,4.51065e-06,-6.53574e-06,6.1679e-06,-2.95608e-07,0
-2.89878e-05,1.2711e-05,-1.55744e-06,-3.00257e-05,7.0104e-06,-7.27506e-06,4.53108e-06,-3.84497e-07,0
-2.86942e-05,1.35447e-05,-1.74621e-06,-3.16783e-05,9.33492e-06,-9.44019e-06,3.47617e-06,1.29296e-06,0
-2.72024e-05,1.42212e-05,-4.58772e-06,-2.84563e-05,9.73679e-06,-1.04693e-05,3.25264e-06,2.2422e-06,0
-2.62297e-05,1.4247e-05,-8.76089e-06,-2.16102e-05,7.18878e-06,-1.01426e-05,4.513e-06,1.21274e-06,0
-2.67942e-05,1.3981e-05,-1.23288e-05,-1.38534e-05,5.01527e-06,-9.78771e-06,6.44255e-06,1.36951e-06,0
-2.8141e-05,1.46591e-05,-1.13068e-05,-5.88003e-06,6.82106e-06,-9.74073e-06,7.4297e-06,3.88732e-06,0
-2.92353e-05,1.65399e-05,-6.19662e-06,1.30212e-06,1.15119e-05,-9.99047e-06,7.2015e-06,5.6264e-06,0
-3.01189e-05,1.9084e-05,-9.00804e-07,5.01591e-06,1.63716e-05,-1.1224e-05,6.94873e-06,6.00076e-06,0
-3.01833e-05,2.24371e-05,2.21641e-06,3.04281e-06,1.6977e-05,-1.31804e-05,7.29293e-06,5.37736e-06,0
-2.9267e-05,2.53863e-05,4.03943e-06,-1.68074e-06,1.47244e-05,-1.41133e-05,7.53938e-06,4.55194e-06,0
-2.96534e-05,2.71632e-05,4.73894e-06,-5.95428e-06,1.25255e-05,-1.32891e-05,7.56599e-06,3.34606e-06,0
-3.18158e-05,2.92146e-05,4.27556e-06,-9.24979e-06,1.21205e-05,-1.15514e-05,7.60249e-06,2.1682e-06,0
-3.33902e-05,3.32361e-05,1.51603e-06,-1.23032e-05,1.29484e-05,-1.01243e-05,8.0032e-06,2.21101e-06,0
-3.27518e-05,3.68368e-05,-4.38517e-06,-1.52944e-05,1.42864e-05,-9.463e-06,8.21174e-06,4.30254e-06,0
-3.11225e-05,3.74371e-05,-1.19444e-05,-1.68534e-05,1.4948e-05,-9.14626e-06,6.78685e-06,6.20118e-06,0
-3.02548e-05,3.54209e-05,-1.81954e-05,-1.4607e-05,1.51673e-05,-9.86693e-06,3.83253e-06,5.01976e-06,0
-3.00391e-05,3.39926e-05,-2.27766e-05,-8.54835e-06,1.56636e-05,-1.09016e-05,1.5584e-06,3.27033e-06,0
-2.98739e-05,3.56571e-05,-2.35799e-05,-2.17609e-06,1.46633e-05,-9.84434e-06,1.4161e-06,4.55695e-06,0
-3.07676e-05,3.74261e-05,-1.89824e-05,-1.5629e-07,1.23822e-05,-8.76279e-06,3.06943e-06,7.63448e-06,0
-3.16829e-05,3.51552e-05,-1.41708e-05,-2.59373e-06,1.04431e-05,-9.77617e-06,5.34993e-06,8.87851e-06,0
-3.16934e-05,3.0871e-05,-1.12569e-05,-5.336e-06,1.03577e-05,-1.02374e-05,7.87731e-06,7.03209e-06,0
-3.11504e-05,2.67745e-05,-9.28456e-06,-6.9288e-06,1.01941e-05,-9.28047e-06,1.00725e-05,4.3537e-06,0
-3.1268e-05,2.49678e-05,-7.84678e-06,-8.78067e-06,8.79087e-06,-8.74321e-06,1.0372e-05,3.17569e-06,0
-3.25792e-05,2.51829e-05,-7.89394e-06,-9.70123e-06,9.07552e-06,-8.03425e-06,9.04129e-06,3.44895e-06,0
-3.31141e-05,2.37225e-05,-8.44817e-06,-7.09482e-06,1.09468e-05,-6.45507e-06,7.59123e-06,3.7488e-06,0
-3.22596e-05,2.19495e-05,-8.2135e-06,-2.03671e-06,1.19095e-05,-5.696e-06,7.15144e-06,2.98331e-06,0
-3.07539e-05,2.10909e-05,-7.87601e-06,3.90776e-06,1.11565e-05,-5.62855e-06,6.18494e-06,1.73775e-06,0
-3.00353e-05,2.05926e-05,-6.61004e-06,8.9431e-06,1.1162e-05,-4.20815e-06,3.63286e-06,1.40841e-06,0
-3.14334e-05,2.02571e-05,-5.77072e-06,9.92915e-06,1.13266e-05,-3.43498e-06,3.24864e-06,3.85937e-06,0
-3.25162e-05,1.77549e-05,-6.49555e-06,6.18619e-06,9.66064e-06,-5.11544e-06,6.31747e-06,5.45525e-06,0
-3.23872e-05,1.40004e-05,-8.34754e-06,1.56998e-06,8.21887e-06,-7.99373e-06,1.06543e-05,5.48909e-06,0
-3.19632e-05,9.9948e-06,-1.05931e-05,-1.63565e-06,8.14451e-06,-1.0808e-05,1.27682e-05,4.68859e-06,0
-3.11114e-05,5.88578e-06,-1.2617e-05,-3.65832e-06,8.28275e-06,-1.19533e-05,1.23034e-05,3.14144e-06,0
-3.04895e-05,3.9999e-06,-1.32338e-05,-5.06316e-06,6.67958e-06,-1.26816e-05,1.17696e-05,1.12067e-06,0
-3.08904e-05,5.32131e-06,-1.244e-05,-5.97865e-06,5.79992e-06,-1.3943e-05,1.22801e-05,5.22356e-07,0
-3.24002e-05,7.15149e-06,-1.19975e-05,-6.64738e-06,6.09939e-06,-1.48959e-05,1.33641e-05,1.45653e-06,0
-3.35031e-05,6.07468e-06,-1.09811e-05,-7.37592e-06,6.87211e-06,-1.55672e-05,1.34209e-05,1.4914e-06,0
-3.44738e-05,3.70726e-06,-1.02756e-05,-7.33846e-06,9.25694e-06,-1.56668e-05,1.27621e-05,1.25486e-06,0
-3.37953e-05,2.86999e-06,-1.05792e-05,-7.37964e-06,1.32682e-05,-1.48789e-05,1.1566e-05,1.46271e-06,0
-3.16238e-05,3.33048e-06,-1.12217e-05,-8.67176e-06,1.57243e-05,-1.43964e-05,1.07652e-05,1.77046e-06,0
-2.99584e-05,2.36091e-06,-1.11714e-05,-1.09822e-05,1.43935e-05,-1.59949e-05,9.86082e-06,1.63948e-07,0
-2.99834e-05,1.00428e-06,-1.06294e-05,-1.2067e-05,1.09735e-05,-1.88594e-05,7.56805e-06,-7.50968e-07,0
-3.05283e-05,2.09236e-06,-9.26105e-06,-1.02376e-05,8.091e-06,-1.98948e-05,4.42939e-06,1.37244e-06,0
-3.01595e-05,4.52872e-06,-6.50109e-06,-7.15873e-06,7.53854e-06,-1.8403e-05,3.29801e-06,4.23598e-06,0
-2.94258e-05,5.16694e-06,-4.3465e-06,-5.52582e-06,8.78484e-06,-1.56979e-05,4.33706e-06,4.46462e-06,0
-2.90802e-05,4.48147e-06,-4.62227e-06,-5.60906e-06,9.97785e-06,-1.30141e-05,5.99137e-06,3.11674e-06,0
-2.96769e-05,2.92523e-06,-6.95527e-06,-7.79627e-06,1.02421e-05,-1.08674e-05,8.09544e-06,5.17333e-07,0
-2.96726e-05,-2.85095e-07,-9.19942e-06,-1.00522e-05,9.61267e-06,-8.89059e-06,1.04005e-05,-3.23837e-06,0
-2.9161e-05,-2.05427e-06,-1.05739e-05,-1.1357e-05,8.26983e-06,-7.53323e-06,1.31496e-05,-5.03383e-06,0
-2.95333e-05,-1.68922e-06,-1.16153e-05,-1.20569e-05,7.88834e-06,-5.7853e-06,1.48413e-05,-3.40999e-06,0
-2.9167e-05,-9.80693e-07,-1.04929e-05,-9.07814e-06,8.43752e-06,-4.92742e-06,1.82961e-05,-1.08579e-06,0
-2.69248e-05,-7.38935e-08,-8.5489e-06,-5.76998e-06,9.05154e-06,-5.51752e-06,2.33212e-05,6.63501e-07,0
-2.63177e-05,-7.23137e-07,-9.3775e-06,-3.69268e-06,8.67944e-06,-6.17148e-06,2.69863e-05,1.81829e-06,0
-2.68959e-05,-2.62512e-06,-1.14755e-05,-8.91716e-07,9.83429e-06,-8.30353e-06,2.82194e-05,1.34394e-06,0
-2.63491e-05,-5.0932e-06,-1.21744e-05,2.71068e-06,1.35751e-05,-9.79563e-06,2.57576e-05,7.4536e-07,0
-2.5681e-05,-6.86805e-06,-1.02999e-05,5.94847e-06,1.65964e-05,-1.00663e-05,2.21672e-05,4.76621e-07,0
-2.45642e-05,-6.55543e-06,-8.28555e-06,6.32969e-06,1.73551e-05,-1.03133e-05,1.98195e-05,-1.42663e-06,0
-2.31591e-05,-5.87656e-06,-7.8626e-06,4.76447e-06,1.64249e-05,-1.03856e-05,2.01153e-05,-3.70867e-06,0
-2.47956e-05,-5.48436e-06,-8.71153e-06,2.68641e-06,1.45587e-05,-1.00579e-05,2.16776e-05,-5.055e-06,0
-2.79477e-05,-4.30429e-06,-8.13664e-06,2.27878e-06,1.28729e-05,-1.00223e-05,2.5641e-05,-5.48798e-06,0
-2.97457e-05,-8.36087e-07,-6.13335e-06,2.72366e-06,1.25288e-05,-1.11924e-05,3.07923e-05,-5.59491e-06,0
-2.9324e-05,3.70973e-06,-3.79795e-06,2.50393e-06,1.29009e-05,-1.10514e-05,3.10009e-05,-6.39769e-06,0
-2.72824e-05,7.10303e-06,-1.97061e-06,1.4415e-06,1.42631e-05,-9.82679e-06,2.54581e-05,-7.70246e-06,0
-2.51082e-05,7.51285e-06,-2.22286e-07,-1.28978e-06,1.62115e-05,-8.04658e-06,1.99407e-05,-8.73939e-06,0
-2.39166e-05,7.13371e-06,1.65268e-06,-6.05408e-06,1.76029e-05,-6.23587e-06,1.97164e-05,-8.32651e-06,0
-2.40449e-05,7.99695e-06,1.6897e-06,-1.14562e-05,1.79995e-05,-4.75825e-06,2.36414e-05,-7.38582e-06,0
-2.46239e-05,1.0376e-05,7.8633e-07,-1.43924e-05,1.78646e-05,-3.36614e-06,2.77652e-05,-7.11712e-06,0
-2.58466e-05,1.2962e-05,6.28649e-08,-1.42231e-05,1.79386e-05,-1.81974e-06,2.82215e-05,-7.87027e-06,0
-2.72841e-05,1.3838e-05,-1.67914e-06,-1.26208e-05,1.81585e-05,2.0018e-08,2.34091e-05,-7.82922e-06,0
-2.85572e-05,1.33573e-05,-5.25433e-06,-1.16433e-05,1.85286e-05,1.42504e-06,1.32913e-05,-6.35991e-06,0
-2.94599e-05,1.33163e-05,-9.18673e-06,-1.26156e-05,1.85626e-05,2.71476e-06,2.24391e-06,-4.04385e-06,0
-3.062e-05,1.37872e-05,-1.20813e-05,-1.37549e-05,1.86256e-05,3.37044e-06,-4.94755e-06,-3.02991e-06,0
-3.07439e-05,1.33787e-05,-1.29576e-05,-1.11719e-05,1.89553e-05,2.36502e-06,-5.69903e-06,-3.70748e-06,0
-3.02383e-05,1.45077e-05,-1.37098e-05,-6.85013e-06,1.85894e-05,8.13886e-07,-1.82183e-06,-4.43422e-06,0
-2.95268e-05,1.69436e-05,-1.36522e-05,-5.12833e-06,1.67958e-05,-4.1159e-07,2.85954e-06,-3.84862e-06,0
-2.94134e-05,1.85172e-05,-1.37465e-05,-6.49419e-06,1.2756e-05,-1.897e-06,5.0682e-06,-2.69548e-06,0
-3.17223e-05,1.87192e-05,-1.64599e-05,-8.67775e-06,8.12952e-06,-3.00259e-06,3.6756e-06,-3.42158e-06,0
-3.36992e-05,1.74722e-05,-2.26716e-05,-1.15284e-05,4.79687e-06,-5.24649e-06,6.26618e-06,-4.45075e-06,0
-3.36383e-05,1.73996e-05,-2.61465e-05,-1.32861e-05,2.60447e-06,-5.5176e-06,1.33402e-05,-2.06702e-06,0
-3.4406e-05,1.88056e-05,-2.35433e-05,-1.34442e-05,5.81657e-07,-4.83429e-06,1.72822e-05,1.37147e-06,0
-3.6145e-05,1.83922e-05,-2.04664e-05,-1.41764e-05,-6.66653e-09,-6.05794e-06,1.60763e-05,1.97702e-06,0
-3.6698e-05,1.88221e-05,-1.93933e-05,-1.33387e-05,1.81975e-06,-6.67341e-06,1.16801e-05,5.84962e-07,0
-3.70913e-05,2.17411e-05,-2.10258e-05,-9.22225e-06,3.0157e-06,-7.83771e-06,5.77602e-06,-8.2042e-07,0
-3.65649e-05,2.38499e-05,-2.18666e-05,-5.0736e-06,1.47315e-06,-9.35689e-06,4.38192e-07,-1.31345e-06,0
-3.45461e-05,2.32467e-05,-1.88094e-05,-3.61184e-06,-9.98297e-07,-9.96941e-06,-2.42052e-06,-1.23574e-06,0
-3.29189e-05,2.07273e-05,-1.35386e-05,-2.34758e-06,-9.98585e-07,-9.85544e-06,-2.85911e-06,-5.84972e-07,0
-3.22775e-05,1.83192e-05,-7.95175e-06,-1.46252e-06,1.55879e-06,-9.84394e-06,-3.5077e-07,1.14063e-06,0
-3.16369e-05,1.61197e-05,-1.69186e-06,-3.99911e-07,7.75138e-06,-9.53805e-06,2.55485e-06,2.93895e-06,0
-3.06922e-05,1.54922e-05,3.01168e-06,3.37852e-06,1.83883e-05,-8.59425e-06,3.4218e-06,3.82381e-06,0
-2.99406e-05,1.79474e-05,5.83814e-06,9.16041e-06,2.90767e-05,-6.10903e-06,3.75575e-06,4.30453e-06,0
-2.94367e-05,2.19879e-05,8.50043e-06,1.16749e-05,3.3459e-05,-2.85501e-06,5.45307e-06,4.26519e-06,0
-3e-05,2.44437e-05,1.01264e-05,8.75773e-06,3.01639e-05,-6.515e-07,8.44919e-06,4.61697e-06,0
-3.09989e-05,2.33504e-05,8.84387e-06,3.73654e-06,2.33272e-05,-7.75399e-07,1.12541e-05,5.52124e-06,0
-3.18152e-05,1.92155e-05,6.18697e-06,-9.87212e-07,1.7885e-05,-3.67673e-06,1.41102e-05,6.54549e-06,0
-3.26777e-05,1.46409e-05,7.22655e-06,-4.47014e-06,1.65236e-05,-8.16576e-06,1.68707e-05,7.37032e-06,0
-3.31243e-05,1.31568e-05,1.569e-05,-5.12941e-06,1.69389e-05,-1.23773e-05,1.80471e-05,7.61331e-06,0
-3.23058e-05,1.55684e-05,2.97138e-05,-3.23677e-06,1.61666e-05,-1.44675e-05,1.82843e-05,6.39374e-06,0
-3.10923e-05,1.97408e-05,4.01112e-05,-3.01257e-06,1.39947e-05,-1.41045e-05,1.90719e-05,4.10257e-06,0
-3.11735e-05,2.27291e-05,3.86595e-05,-5.92748e-06,1.16097e-05,-1.22385e-05,1.96338e-05,1.97266e-06,0
-3.16936e-05,2.35458e-05,2.29591e-05,-9.57543e-06,1.01499e-05,-1.06041e-05,2.01432e-05,1.84581e-06,0
-3.09321e-05,2.29727e-05,-3.66402e-06,-1.1827e-05,1.00525e-05,-9.48721e-06,2.21591e-05,3.46805e-06,0
-2.87384e-05,2.19401e-05,-3.46333e-05,-1.37033e-05,9.13281e-06,-1.03677e-05,2.55934e-05,4.19996e-06,0
-2.71208e-05,2.08689e-05,-6.40884e-05,-1.59531e-05,6.27383e-06,-1.25977e-05,2.7753e-05,3.9189e-06,0
-2.69452e-05,1.97269e-05,-8.35595e-05,-1.59473e-05,4.51407e-06,-1.27393e-05,2.76511e-05,2.32633e-06,0
-2.74957e-05,1.87451e-05,-8.44847e-05,-1.26123e-05,6.73107e-06,-1.17829e-05,2.70216e-05,4.00185e-07,0
-2.80812e-05,1.57776e-05,-7.16466e-05,-9.32322e-06,9.84558e-06,-1.08011e-05,2.75468e-05,1.72509e-06,0
-2.82661e-05,1.00141e-05,-5.53522e-05,-6.15134e-06,1.1038e-05,-1.031e-05,2.71613e-05,2.73841e-06,0
-2.81483e-05,3.83367e-06,-4.13836e-05,-3.82721e-06,1.05941e-05,-1.13433e-05,2.33901e-05,2.07461e-06,0
-2.84671e-05,-6.34082e-07,-3.22222e-05,-3.50765e-06,8.55673e-06,-1.16484e-05,1.73102e-05,1.71795e-06,0
-3.0215e-05,-3.07609e-06,-2.61798e-05,-3.75617e-06,6.07395e-06,-9.52029e-06,1.0101e-05,1.50647e-06,0
-3.22131e-05,-3.89282e-06,-2.08571e-05,-5.05718e-06,3.12039e-06,-6.75236e-06,3.48687e-06,3.29087e-06,0
-3.28261e-05,-2.78979e-06,-1.64804e-05,-5.91873e-06,1.07054e-06,-6.11905e-06,4.08024e-07,5.50909e-06,0
-3.34077e-05,-1.96364e-07,-1.54346e-05,-5.99693e-06,2.40876e-06,-6.63149e-06,9.24785e-07,7.83075e-06,0
-3.31089e-05,2.56418e-06,-1.53857e-05,-7.54973e-06,5.4908e-06,-6.88058e-06,2.35833e-06,8.39051e-06,0
-3.15739e-05,3.1849e-06,-1.4441e-05,-8.77866e-06,6.52225e-06,-7.06087e-06,3.40085e-06,7.67124e-06,0
-3.01297e-05,1.53248e-06,-1.37942e-05,-8.78011e-06,6.3107e-06,-7.70047e-06,3.60106e-06,6.83072e-06,0
-3.00016e-05,6.89232e-09,-1.39476e-05,-9.74672e-06,5.88983e-06,-8.85267e-06,2.46772e-06,5.65617e-06,0
-3.11088e-05,1.24914e-06,-1.4885e-05,-1.26515e-05,6.61725e-06,-9.33428e-06,5.33364e-07,3.98908e-06,0
-3.25405e-05,4.79946e-06,-1.54092e-05,-1.5941e-05,8.93359e-06,-8.56549e-06,-5.15739e-07,2.92937e-06,0
-3.3354e-05,8.27899e-06,-1.44371e-05,-1.81011e-05,1.02042e-05,-6.75474e-06,-4.73725e-07,3.78889e-06,0
-3.27779e-05,1.05422e-05,-1.14476e-05,-2.21453e-05,9.04962e-06,-5.30094e-06,7.03727e-08,4.86668e-06,0
-3.14156e-05,1.17304e-05,-7.99602e-06,-3.03109e-05,6.76025e-06,-6.2394e-06,-1.62404e-06,5.39528e-06,0
-3.01339e-05,1.22588e-05,-5.24592e-06,-3.97399e-05,5.63501e-06,-7.78565e-06,-6.60344e-06,4.85616e-06,0
-3.06947e-05,1.27723e-05,-4.24582e-06,-4.34677e-05,6.59986e-06,-6.43419e-06,-1.02009e-05,5.28415e-06,0
-3.2416e-05,1.47142e-05,-4.64204e-06,-3.56984e-05,8.48732e-06,-4.17055e-06,-7.81723e-06,6.03661e-06,0
-3.3037e-05,1.66066e-05,-4.26845e-06,-1.8016e-05,1.03534e-05,-2.80581e-06,1.34312e-06,4.76299e-06,0
-3.21557e-05,1.68243e-05,-3.71735e-06,3.11762e-07,1.26453e-05,-1.38047e-06,1.36417e-05,2.52279e-06,0
-3.27026e-05,1.5928e-05,-3.40848e-06,1.30596e-05,1.27342e-05,1.81796e-07,2.25881e-05,1.81699e-06,0
-3.30345e-05,1.48421e-05,-2.89782e-06,2.19417e-05,1.04525e-05,1.09411e-06,2.601e-05,2.75678e-06,0
-3.11526e-05,1.34524e-05,-3.31003e-06,2.75533e-05,6.83096e-06,8.19033e-07,2.82223e-05,3.57096e-06,0
-2.97757e-05,1.29587e-05,-1.9164e-06,2.54451e-05,4.52517e-06,-7.82645e-07,3.10106e-05,3.78893e-06,0
-2.82908e-05,1.53816e-05,2.50926e-06,1.42101e-05,4.81068e-06,-3.51176e-06,3.34452e-05,5.28065e-06,0
-2.71632e-05,1.74162e-05,4.74702e-06,2.6031e-06,4.12331e-06,-5.45644e-06,3.44934e-05,5.22404e-06,0
-2.72423e-05,1.73014e-05,3.46901e-06,-8.76817e-07,4.19481e-06,-6.94013e-06,3.35667e-05,3.59385e-06,0
-2.71548e-05,1.7775e-05,2.58132e-06,-6.74105e-08,6.20514e-06,-7.72366e-06,3.26051e-05,2.59197e-06,0
-2.66341e-05,1.94327e-05,3.94306e-06,1.26648e-06,8.47032e-06,-5.7778e-06,3.16468e-05,1.07421e-06,0
-2.75915e-05,1.95558e-05,4.92609e-06,1.68565e-06,1.09996e-05,-4.7413e-06,3.02051e-05,2.82672e-07,0
-3.05237e-05,1.67233e-05,4.98163e-06,2.25772e-07,1.14184e-05,-5.93585e-06,2.92011e-05,-5.97124e-07,0
-3.22411e-05,1.35602e-05,5.8024e-06,-7.27801e-08,1.10698e-05,-8.03982e-06,2.95514e-05,-2.5043e-07,0
-3.25754e-05,1.19432e-05,4.78241e-06,2.34177e-06,1.39252e-05,-9.18237e-06,3.02201e-05,6.37211e-07,0
-3.09038e-05,1.22382e-05,1.9269e-06,6.00774e-06,1.83189e-05,-8.89412e-06,2.99915e-05,7.10167e-08,0
-2.8418e-05,1.32896e-05,-1.33212e-06,8.78083e-06,1.83551e-05,-9.3678e-06,2.90216e-05,-1.03356e-06,0
-2.70554e-05,1.47578e-05,-4.06781e-06,1.04327e-05,1.41724e-05,-1.13559e-05,2.76789e-05,-1.2067e-06,0
-2.68046e-05,1.54742e-05,-5.52793e-06,9.44526e-06,9.24933e-06,-1.38818e-05,2.68142e-05,-2.25352e-06,0
-2.74861e-05,1.41928e-05,-5.96368e-06,4.90505e-06,4.72134e-06,-1.49017e-05,2.50134e-05,-5.25762e-06,0
-2.85077e-05,1.11624e-05,-5.38394e-06,-2.54773e-06,3.2469e-06,-1.49698e-05,2.0951e-05,-6.36946e-06,0
-2.95089e-05,7.88739e-06,-5.23079e-06,-9.5101e-06,5.91395e-06,-1.55809e-05,1.66693e-05,-4.9271e-06,0
-3.00156e-05,6.68857e-06,-4.73603e-06,-1.05776e-05,1.20852e-05,-1.71822e-05,1.44231e-05,-3.66593e-06,0
-3.05912e-05,6.73523e-06,-3.38681e-06,-4.43505e-06,2.1512e-05,-1.73434e-05,1.20995e-05,-4.58203e-06,0
-3.01002e-05,6.46987e-06,-1.78924e-06,4.26142e-06,3.26275e-05,-1.43273e-05,7.62456e-06,-5.26328e-06,0
-2.8818e-05,5.82665e-06,-1.03945e-06,8.92054e-06,4.02843e-05,-9.72803e-06,3.4369e-06,-3.24027e-06,0
-2.72942e-05,5.28773e-06,-1.37355e-06,5.94865e-06,4.18759e-05,-6.93557e-06,9.86559e-07,6.8909e-07,0
-2.67257e-05,5.95494e-06,-2.89832e-06,-1.6533e-06,3.83805e-05,-6.3348e-06,-1.0158e-06,3.4131e-06,0
-2.77712e-05,9.91664e-06,-3.96061e-06,-5.40513e-06,3.38779e-05,-6.73033e-06,-3.34667e-06,3.44863e-06,0
-2.89335e-05,1.40604e-05,-3.51795e-06,-2.56673e-06,3.19782e-05,-7.47327e-06,-4.03533e-06,4.28492e-07,0
-2.874e-05,1.62406e-05,-3.01823e-06,-1.86817e-08,3.22268e-05,-8.36346e-06,-5.93898e-07,-2.74275e-06,0
-2.80204e-05,1.79548e-05,-2.77158e-06,-2.8751e-06,3.15037e-05,-1.07572e-05,3.00095e-06,-2.3172e-06,0
-2.75921e-05,1.93079e-05,-3.51271e-06,-1.08757e-05,2.78726e-05,-1.34163e-05,3.48463e-06,-1.92017e-06,0
-2.77484e-05,2.1102e-05,-4.7906e-06,-2.06876e-05,2.23007e-05,-1.41532e-05,1.48506e-06,-3.322e-06,0
-2.8349e-05,2.28086e-05,-5.46084e-06,-2.62446e-05,1.87599e-05,-1.32654e-05,5.23933e-07,-4.47528e-06,0
-2.98827e-05,2.43484e-05,-7.09161e-06,-2.34093e-05,1.86347e-05,-1.29911e-05,3.46847e-06,-3.91202e-06,0
-3.25737e-05,2.4449e-05,-9.72338e-06,-1.76243e-05,1.91181e-05,-1.38995e-05,6.94948e-06,-1.75252e-06,0
-3.31729e-05,2.43533e-05,-1.10556e-05,-1.49194e-05,1.92567e-05,-1.42692e-05,7.55943e-06,1.73787e-07,0
-3.27548e-05,2.46288e-05,-1.03629e-05,-1.42534e-05,1.85103e-05,-1.42386e-05,6.7103e-06,7.50763e-07,0
-3.22427e-05,2.41761e-05,-7.12122e-06,-1.39889e-05,1.6995e-05,-1.39731e-05,8.58878e-06,1.05682e-06,0
-3.1996e-05,2.44552e-05,-2.65915e-06,-1.2076e-05,1.555e-05,-1.34014e-05,1.59253e-05,1.20057e-06,0
-3.26126e-05,2.46441e-05,5.6133e-07,-8.55818e-06,1.54942e-05,-1.29869e-05,2.62389e-05,1.63153e-06,0
-3.23178e-05,2.56359e-05,2.26449e-06,-5.67284e-06,1.50665e-05,-1.30841e-05,3.46661e-05,1.34929e-06,0
-3.15518e-05,2.6353e-05,5.63872e-06,-5.39566e-06,1.44689e-05,-1.31364e-05,4.12531e-05,-8.93143e-07,0
-3.09436e-05,2.62886e-05,1.30295e-05,-7.19006e-06,1.54468e-05,-1.18107e-05,4.57359e-05,-2.49793e-06,0
-3.15813e-05,2.47891e-05,2.33167e-05,-7.96772e-06,1.71964e-05,-1.06222e-05,4.73315e-05,-2.33715e-06,0
-3.23901e-05,2.25567e-05,3.59171e-05,-5.37007e-06,1.85697e-05,-1.0584e-05,4.50711e-05,-2.16347e-06,0
-3.18683e-05,2.09142e-05,4.96594e-05,-9.28846e-07,1.90389e-05,-1.15966e-05,3.78101e-05,-3.04184e-06,0
-3.1211e-05,1.98051e-05,5.8659e-05,2.94427e-06,1.8757e-05,-1.33715e-05,2.46325e-05,-2.93162e-06,0
-3.12841e-05,1.8983e-05,5.53399e-05,4.58045e-06,1.79559e-05,-1.60774e-05,2.3024e-06,-1.16367e-06,0
-3.09175e-05,1.75613e-05,3.67119e-05,5.40049e-06,1.65354e-05,-1.82647e-05,-2.85992e-05,1.13064e-06,0
-2.95254e-05,1.5683e-05,6.05484e-06,7.87236e-06,1.42654e-05,-1.78781e-05,-5.66865e-05,1.8138e-06,0
-2.7837e-05,1.27913e-05,-2.92866e-05,1.04979e-05,1.31158e-05,-1.58043e-05,-6.89706e-05,1.32273e-06,0
-2.70508e-05,9.37843e-06,-6.03138e-05,1.0235e-05,1.34412e-05,-1.42415e-05,-6.36445e-05,8.50093e-07,0
-2.86799e-05,5.8193e-06,-7.94719e-05,6.82759e-06,1.31191e-05,-1.42346e-05,-4.70306e-05,7.11769e-07,0
-3.09925e-05,3.04674e-06,-8.36281e-05,3.23326e-06,1.17068e-05,-1.55722e-05,-2.673e-05,1.67482e-06,0
-3.16506e-05,8.77345e-07,-7.54261e-05,1.07774e-07,9.91915e-06,-1.6364e-05,-7.92308e-06,1.44677e-06,0
-3.06627e-05,2.83098e-07,-6.09622e-05,-3.47613e-06,7.50804e-06,-1.43202e-05,5.34065e-06,-2.30956e-07,0
-2.9147e-05,1.43871e-06,-4.80835e-05,-6.72799e-06,6.19764e-06,-1.18236e-05,1.19147e-05,-2.07274e-06,0
-2.80567e-05,3.3537e-06,-3.92891e-05,-9.83045e-06,6.22136e-06,-1.25761e-05,1.65376e-05,-3.60837e-06,0
-2.8281e-05,5.03352e-06,-3.03745e-05,-1.30279e-05,5.65433e-06,-1.49803e-05,2.15536e-05,-3.35441e-06,0
-2.97531e-05,4.67779e-06,-2.22466e-05,-1.50285e-05,5.18432e-06,-1.56066e-05,2.31302e-05,-2.52784e-06,0
-3.17345e-05,1.23968e-06,-1.68133e-05,-1.6156e-05,4.72207e-06,-1.4326e-05,1.85498e-05,-1.77493e-06,0
-3.35126e-05,-3.21519e-06,-1.29672e-05,-1.53395e-05,4.918e-06,-1.25267e-05,1.18338e-05,-1.1304e-06,0
-3.43647e-05,-5.85886e-06,-1.08029e-05,-1.22013e-05,5.23612e-06,-1.31424e-05,1.01776e-05,-6.61627e-07,0
-3.48215e-05,-4.09267e-06,-1.06918e-05,-8.0135e-06,4.23999e-06,-1.38789e-05,1.38446e-05,1.13366e-06,0
-3.49469e-05,5.58438e-07,-1.06736e-05,-5.75281e-06,3.50047e-06,-1.31079e-05,1.93584e-05,2.9238e-06,0
-3.38543e-05,3.85649e-06,-9.39474e-06,-5.42107e-06,3.94436e-06,-1.1847e-05,2.50066e-05,3.79806e-06,0
-3.25087e-05,5.02885e-06,-8.20526e-06,-3.29016e-06,5.8006e-06,-1.02628e-05,2.81442e-05,3.64067e-06,0
-3.12085e-05,4.46051e-06,-7.22456e-06,-1.46546e-06,5.56705e-06,-1.02265e-05,2.81158e-05,2.79283e-06,0
-3.05271e-05,3.82843e-06,-7.05044e-06,-9.59176e-07,4.51456e-06,-1.06487e-05,2.6912e-05,1.88474e-06,0
-3.07989e-05,3.06782e-06,-7.15162e-06,1.02864e-07,6.8016e-06,-1.01206e-05,2.59941e-05,1.60607e-06,0
-3.05286e-05,4.09939e-07,-6.12115e-06,1.35553e-06,1.19323e-05,-8.36582e-06,2.59389e-05,1.2836e-06,0
-2.89449e-05,-2.02283e-06,-4.27273e-06,1.45857e-06,1.65295e-05,-6.90499e-06,2.5159e-05,3.5914e-07,0
-2.84559e-05,-2.24724e-06,-3.06181e-06,7.47804e-07,1.73818e-05,-5.75834e-06,2.27135e-05,-9.94612e-07,0
-3.01926e-05,-1.6315e-06,-3.46799e-06,2.09722e-06,1.59055e-05,-5.71794e-06,2.0283e-05,-1.60813e-06,0
-3.23251e-05,-6.14836e-07,-4.46115e-06,5.08697e-06,1.33365e-05,-8.14398e-06,1.98481e-05,-1.46762e-06,0
-3.35967e-05,1.42601e-06,-4.28912e-06,6.84648e-06,1.07763e-05,-1.13733e-05,2.03975e-05,-2.37151e-06,0
-3.31781e-05,4.45837e-06,-3.85453e-06,6.59581e-06,9.62644e-06,-1.27417e-05,1.97774e-05,-3.26209e-06,0
-3.20281e-05,6.77526e-06,-4.80698e-06,5.44008e-06,1.01451e-05,-1.20965e-05,1.87388e-05,-2.84177e-06,0
-3.04023e-05,8.06456e-06,-5.08209e-06,4.50795e-06,1.10391e-05,-1.11342e-05,1.77843e-05,-1.35774e-06,0
-2.87539e-05,9.06798e-06,-3.54156e-06,4.42195e-06,1.20033e-05,-9.71335e-06,1.64505e-05,-5.90424e-07,0
-2.84619e-05,1.01979e-05,-3.31155e-06,3.40336e-06,1.24963e-05,-8.47485e-06,1.4845e-05,-1.54502e-06,0
-2.93362e-05,1.06879e-05,-5.09266e-06,7.64058e-07,1.20809e-05,-9.14518e-06,1.5069e-05,-2.54087e-06,0
-2.96956e-05,1.11137e-05,-6.20731e-06,5.90283e-07,1.02792e-05,-1.03317e-05,1.75914e-05,-5.44082e-07,0
-2.94921e-05,1.11254e-05,-5.63627e-06,1.97909e-06,8.33944e-06,-1.0745e-05,1.95486e-05,2.71219e-06,0
-3.04695e-05,9.99945e-06,-3.97573e-06,1.14666e-07,8.13561e-06,-1.04451e-05,2.01536e-05,4.16177e-06,0
-3.17337e-05,1.02328e-05,-1.84817e-06,-6.3026e-06,8.70119e-06,-8.16419e-06,1.94542e-05,4.497e-06,0
-3.1851e-05,1.09418e-05,3.33063e-07,-1.29528e-05,8.75553e-06,-6.34606e-06,1.65447e-05,3.77045e-06,0
-3.0268e-05,1.0615e-05,1.71553e-06,-1.59121e-05,8.44791e-06,-7.43154e-06,1.25547e-05,3.11291e-06,0
-2.77266e-05,1.00782e-05,2.01239e-06,-1.71053e-05,9.59222e-06,-9.09961e-06,9.50605e-06,3.27037e-06,0
-2.55655e-05,1.03048e-05,1.16132e-06,-1.75638e-05,1.31753e-05,-8.50108e-06,8.50998e-06,2.54803e-06,0
-2.51974e-05,1.24696e-05,4.36203e-07,-1.7173e-05,1.60956e-05,-6.80487e-06,8.86472e-06,4.13638e-07,0
-2.81314e-05,1.43654e-05,6.50431e-07,-1.52033e-05,1.61784e-05,-5.68502e-06,9.93142e-06,-2.19792e-06,0
-3.06287e-05,1.4458e-05,7.90972e-07,-1.14689e-05,1.58082e-05,-5.15373e-06,1.15222e-05,-2.77382e-06,0
-3.17109e-05,1.5016e-05,-2.08236e-06,-8.22793e-06,1.62737e-05,-3.76291e-06,1.1614e-05,-2.84043e-06,0
-3.19059e-05,1.65996e-05,-5.84744e-06,-7.27821e-06,1.70145e-05,-2.59135e-06,1.29386e-05,-3.25896e-06,0
-3.12613e-05,1.84998e-05,-6.77088e-06,-7.50498e-06,1.89202e-05,-3.50427e-06,1.62946e-05,-2.71541e-06,0
-3.10487e-05,2.04958e-05,-6.62583e-06,-6.71873e-06,2.06418e-05,-5.68295e-06,1.85883e-05,-1.38131e-06,0
-3.20567e-05,2.03972e-05,-7.17547e-06,-5.72335e-06,1.95221e-05,-6.60403e-06,1.94177e-05,-1.64092e-07,0
-3.35636e-05,1.78859e-05,-7.14838e-06,-5.10994e-06,1.76302e-05,-5.54549e-06,1.92937e-05,-6.44741e-07,0
-3.49482e-05,1.48058e-05,-5.67678e-06,-3.89226e-06,1.63429e-05,-4.21836e-06,1.89726e-05,-2.21673e-06,0
-3.56947e-05,1.21058e-05,-4.61915e-06,-2.81601e-06,1.59044e-05,-3.6525e-06,1.84312e-05,-3.32242e-06,0
-3.48601e-05,1.09733e-05,-6.22909e-06,-3.62064e-06,1.62192e-05,-4.06264e-06,1.78829e-05,-2.8319e-06,0
-3.39349e-05,1.20817e-05,-1.00029e-05,-5.65854e-06,1.73045e-05,-3.43866e-06,1.67461e-05,-8.23097e-07,0
-3.33853e-05,1.39264e-05,-1.21314e-05,-5.93617e-06,1.85172e-05,-2.28014e-06,1.5088e-05,1.38357e-06,0
-3.31364e-05,1.51075e-05,-1.15559e-05,-3.77064e-06,2.05393e-05,-1.58558e-06,1.36047e-05,2.24095e-06,0
-3.20634e-05,1.63452e-05,-9.22417e-06,-3.54056e-07,2.36504e-05,-7.98895e-07,1.28174e-05,2.64841e-06,0
-3.13452e-05,1.80539e-05,-7.02371e-06,3.87251e-06,2.67843e-05,-3.05343e-07,1.18384e-05,3.19274e-06,0
-3.23039e-05,1.94217e-05,-5.88906e-06,8.40649e-06,2.85967e-05,-1.20088e-06,9.9799e-06,3.17844e-06,0
-3.29358e-05,1.91016e-05,-7.21465e-06,1.17207e-05,2.78741e-05,-2.87809e-06,9.90568e-06,1.38041e-06,0
-3.13488e-05,1.73448e-05,-9.46162e-06,1.15454e-05,2.60398e-05,-4.4496e-06,1.26008e-05,3.78153e-07,0
-2.92842e-05,1.53235e-05,-9.39966e-06,9.2541e-06,2.41359e-05,-6.12743e-06,1.37328e-05,8.08081e-07,0
-2.94388e-05,1.43358e-05,-7.90821e-06,6.53375e-06,2.38936e-05,-8.0605e-06,1.05112e-05,1.31008e-06,0
-3.15599e-05,1.28495e-05,-7.29806e-06,6.22141e-06,2.5593e-05,-8.90917e-06,4.50079e-06,1.66657e-06,0
-3.14693e-05,1.29019e-05,-8.37405e-06,5.75159e-06,2.52645e-05,-9.14446e-06,2.02033e-06,2.31452e-06,0
-2.98927e-05,1.64332e-05,-9.04915e-06,1.78334e-06,1.97349e-05,-1.06852e-05,3.13418e-06,4.06872e-06,0
-2.90697e-05,1.76353e-05,-8.91671e-06,-1.94657e-06,1.29231e-05,-1.0647e-05,4.98309e-06,3.47303e-06,0
-2.84479e-05,1.57653e-05,-8.19932e-06,-6.38822e-06,9.39679e-06,-7.68287e-06,8.45267e-06,3.05925e-06,0
-2.83786e-05,1.29676e-05,-7.45402e-06,-1.18228e-05,9.32747e-06,-6.05209e-06,1.10191e-05,3.85977e-06,0
-2.77155e-05,1.00988e-05,-7.52566e-06,-1.81542e-05,9.74702e-06,-6.98601e-06,1.13373e-05,3.57732e-06,0
-2.68938e-05,9.07875e-06,-8.25067e-06,-2.4731e-05,8.26958e-06,-8.24054e-06,8.73699e-06,2.22146e-06,0
-2.74592e-05,1.04245e-05,-1.04409e-05,-3.07596e-05,5.64538e-06,-8.3749e-06,6.87473e-06,1.40648e-06,0
-2.86468e-05,1.33548e-05,-1.34891e-05,-3.43052e-05,2.19146e-06,-7.8308e-06,8.40744e-06,2.69069e-06,0
-2.80716e-05,1.53097e-05,-1.40462e-05,-3.23637e-05,-5.42558e-07,-8.07416e-06,1.18812e-05,4.2172e-06,0
-2.64352e-05,1.56312e-05,-1.13098e-05,-2.51804e-05,1.13015e-06,-8.41302e-06,1.39564e-05,5.46778e-06,0
-2.52239e-05,1.54209e-05,-8.36364e-06,-1.56848e-05,7.65959e-06,-6.84971e-06,1.31753e-05,6.25776e-06,0
-2.47486e-05,1.53902e-05,-6.6668e-06,-6.96533e-06,1.63872e-05,-4.21028e-06,1.10984e-05,6.48672e-06,0
-2.52275e-05,1.45376e-05,-6.9027e-06,-1.26935e-06,2.27592e-05,-2.95201e-06,9.1026e-06,6.10797e-06,0
-2.57739e-05,1.29959e-05,-8.00212e-06,-1.17845e-06,2.24753e-05,-3.83574e-06,6.25381e-06,5.30326e-06,0
-2.59194e-05,1.1815e-05,-8.59598e-06,-5.60253e-06,1.65311e-05,-5.48411e-06,-3.16448e-07,4.00197e-06,0
-2.73203e-05,1.21365e-05,-9.1992e-06,-8.701e-06,1.2135e-05,-5.58858e-06,-1.07616e-05,2.76101e-06,0
-3.03105e-05,1.4632e-05,-1.04904e-05,-6.21697e-06,1.45891e-05,-4.6443e-06,-1.95077e-05,2.6073e-06,0
-3.22505e-05,1.72655e-05,-1.18225e-05,-2.19965e-06,1.99836e-05,-4.05501e-06,-1.7476e-05,3.49528e-06,0
-3.1168e-05,1.92131e-05,-1.23572e-05,-1.21907e-06,2.10588e-05,-5.01493e-06,-1.5178e-06,4.39065e-06,0
-2.89588e-05,2.09812e-05,-1.19992e-05,-2.87237e-06,1.70074e-05,-7.4437e-06,1.97535e-05,5.41996e-06,0
-2.78847e-05,2.19756e-05,-1.16794e-05,-3.5775e-06,1.44868e-05,-9.56829e-06,3.78246e-05,6.71645e-06,0
