ch1,ch2,ch3,ch4,ch5,ch6,ch7,ch8,class
-3.16706e-05,8.82886e-06,-5.08101e-06,-2.26975e-05,2.22557e-05,-6.99179e-06,4.62279e-06,6.81499e-07,0
-3.07624e-05,1.15754e-05,-3.24257e-06,-2.37332e-05,2.41408e-05,-4.99097e-06,7.89201e-06,-1.41153e-06,0
-2.9045e-05,1.31973e-05,-4.13726e-06,-2.47177e-05,2.62228e-05,-4.23666e-06,1.05571e-05,-4.29817e-06,0
-2.7718e-05,1.1453e-05,-5.91882e-06,-2.32291e-05,2.78444e-05,-6.13574e-06,1.19751e-05,-5.21697e-06,0
-2.69236e-05,1.1272e-05,-6.06873e-06,-1.80971e-05,2.74563e-05,-8.94215e-06,1.16501e-05,-3.63393e-06,0
-2.72484e-05,1.94897e-05,-5.75612e-06,-1.00473e-05,2.74792e-05,-9.24864e-06,9.92794e-06,-1.89993e-06,0
-2.88506e-05,3.33742e-05,-5.53188e-06,4.30774e-07,2.82703e-05,-7.85568e-06,8.82744e-06,-2.44667e-06,0
-2.99096e-05,4.20852e-05,-4.57861e-06,1.30148e-05,3.00057e-05,-6.92541e-06,1.06495e-05,-4.18402e-06,0
-3.05164e-05,4.21989e-05,-4.00096e-06,2.39165e-05,3.31378e-05,-7.79644e-06,1.38687e-05,-4.14832e-06,0
-3.13801e-05,3.64235e-05,-5.73077e-06,2.80547e-05,3.37182e-05,-9.03844e-06,1.53321e-05,-1.95426e-06,0
-3.17056e-05,2.8548e-05,-8.04368e-06,2.47324e-05,2.94386e-05,-9.03978e-06,1.47478e-05,4.80738e-07,0
-3.15395e-05,2.09117e-05,-9.43816e-06,1.72933e-05,2.41393e-05,-8.57625e-06,1.35106e-05,2.54281e-06,0
-3.06763e-05,1.46778e-05,-1.08497e-05,1.00102e-05,2.06468e-05,-8.66684e-06,1.29758e-05,4.10137e-06,0
-2.97611e-05,9.34348e-06,-1.08441e-05,5.61905e-06,1.92123e-05,-8.95305e-06,1.22106e-05,4.77712e-06,0
-3.03261e-05,3.39108e-06,-8.82273e-06,3.57623e-06,1.96788e-05,-9.66067e-06,9.78312e-06,4.74157e-06,0
-3.22892e-05,-2.72457e-06,-6.40719e-06,1.70644e-06,2.11649e-05,-1.18741e-05,5.76827e-06,4.57037e-06,0
-3.38891e-05,-7.37329e-06,-6.29903e-06,7.76663e-07,2.08368e-05,-1.46428e-05,3.26629e-06,4.464e-06,0
-3.47217e-05,-9.00835e-06,-7.88407e-06,1.18437e-06,1.83102e-05,-1.6298e-05,4.96483e-06,4.46671e-06,0
-3.53911e-05,-5.69189e-06,-1.04136e-05,5.86962e-08,1.58938e-05,-1.74593e-05,8.64215e-06,4.46456e-06,0
-3.53812e-05,1.58967e-06,-1.31922e-05,-3.49202e-06,1.44962e-05,-1.76305e-05,9.88978e-06,3.76499e-06,0
-3.42017e-05,8.68209e-06,-1.47604e-05,-7.81929e-06,1.38352e-05,-1.67841e-05,9.05698e-06,3.11978e-06,0
-3.36764e-05,1.36082e-05,-1.42397e-05,-1.14814e-05,1.23925e-05,-1.6736e-05,8.93642e-06,3.3319e-06,0
-3.40864e-05,1.67906e-05,-1.35915e-05,-1.14675e-05,1.07851e-05,-1.62819e-05,9.20615e-06,5.56079e-06,0
-3.3916e-05,1.8574e-05,-1.25633e-05,-8.53864e-06,1.11519e-05,-1.50856e-05,9.69674e-06,8.21019e-06,0
-3.4305e-05,1.92256e-05,-1.21622e-05,-7.42559e-06,1.12093e-05,-1.30469e-05,1.14092e-05,8.12912e-06,0
-3.50208e-05,2.09424e-05,-1.31214e-05,-8.04653e-06,9.23125e-06,-1.1862e-05,1.37295e-05,6.38291e-06,0
-3.39642e-05,2.35696e-05,-1.38352e-05,-4.25558e-06,7.08701e-06,-1.42699e-05,1.41477e-05,4.60951e-06,0
-3.1058e-05,2.35472e-05,-1.46952e-05,3.55552e-06,5.33645e-06,-1.659e-05,1.31922e-05,3.89568e-06,0
-2.78547e-05,2.23677e-05,-1.64137e-05,9.81896e-06,5.92656e-06,-1.56963e-05,1.19125e-05,4.37732e-06,0
-2.57364e-05,2.11804e-05,-1.82113e-05,1.18418e-05,7.30822e-06,-1.40385e-05,1.08382e-05,2.64462e-06,0
-2.51206e-05,1.82405e-05,-1.75934e-05,9.5691e-06,7.33706e-06,-1.32315e-05,1.0552e-05,1.68342e-07,0
-2.49984e-05,1.63019e-05,-1.57006e-05,6.62228e-06,7.08291e-06,-1.42007e-05,1.15993e-05,-1.15338e-07,0
-2.58794e-05,1.52727e-05,-1.55743e-05,7.37149e-06,9.09339e-06,-1.7176e-05,1.28331e-05,9.84229e-07,0
-2.65959e-05,1.39038e-05,-1.61873e-05,1.62337e-05,1.08154e-05,-1.99017e-05,1.27791e-05,1.82191e-06,0
-2.60281e-05,1.29728e-05,-1.55526e-05,2.97041e-05,1.02082e-05,-2.04858e-05,1.1571e-05,1.56553e-06,0
-2.62766e-05,1.30974e-05,-1.40515e-05,3.89626e-05,1.0199e-05,-1.95436e-05,6.78564e-06,1.09467e-06,0
-2.75302e-05,1.31147e-05,-1.2681e-05,3.78032e-05,1.14411e-05,-1.83701e-05,-8.12646e-06,1.07297e-06,0
-2.88005e-05,1.30507e-05,-1.17846e-05,2.84438e-05,1.30567e-05,-1.64809e-05,-3.26247e-05,1.40215e-06,0
-2.98814e-05,1.36721e-05,-1.15286e-05,1.83704e-05,1.39411e-05,-1.39255e-05,-5.01272e-05,1.19424e-06,0
-3.10627e-05,1.47067e-05,-1.23533e-05,1.06493e-05,1.48023e-05,-1.16782e-05,-4.69294e-05,-9.00551e-07,0
-3.16468e-05,1.56052e-05,-1.21498e-05,5.09675e-06,1.51298e-05,-1.01634e-05,-2.60382e-05,-4.20347e-06,0
-3.13272e-05,1.54569e-05,-1.06981e-05,1.02834e-06,1.5848e-05,-9.62486e-06,-1.2387e-06,-5.5352e-06,0
-3.05673e-05,1.53709e-05,-8.89938e-06,-2.99504e-06,1.7359e-05,-1.06199e-05,1.9776e-05,-4.27891e-06,0
-3.01474e-05,1.6295e-05,-7.40316e-06,-1.0552e-05,1.84635e-05,-1.10952e-05,3.75173e-05,-1.81009e-06,0
-3.0619e-05,1.76771e-05,-5.59699e-06,-2.58416e-05,1.81843e-05,-9.53008e-06,5.07766e-05,3.67006e-07,0
-3.15647e-05,1.70358e-05,-2.86364e-06,-5.00967e-05,1.67898e-05,-8.67022e-06,5.53754e-05,1.21097e-06,0
-3.1152e-05,1.35211e-05,-2.06535e-06,-7.35158e-05,1.43326e-05,-9.46428e-06,5.00266e-05,1.09615e-06,0
-2.92531e-05,9.03475e-06,-5.4216e-06,-8.24265e-05,1.15165e-05,-1.00859e-05,3.56846e-05,1.0233e-06,0
-2.91622e-05,7.21462e-06,-8.12186e-06,-7.07011e-05,9.36583e-06,-9.40174e-06,1.38566e-05,1.58534e-06,0
-3.06547e-05,7.65355e-06,-5.83207e-06,-4.38743e-05,9.05266e-06,-7.76852e-06,-8.19228e-06,1.22608e-06,0
-3.10681e-05,7.32977e-06,-3.21886e-06,-2.20996e-05,1.04186e-05,-6.48701e-06,-1.94693e-05,9.34416e-08,0
-3.04895e-05,6.44383e-06,-5.34627e-06,-1.43263e-05,1.23354e-05,-6.43061e-06,-1.56822e-05,1.1737e-06,0
-2.92437e-05,3.56072e-06,-7.61813e-06,-8.35581e-06,1.30601e-05,-8.4768e-06,-4.25858e-06,2.67372e-06,0
-2.89181e-05,-1.2521e-06,-6.5574e-06,6.36477e-06,1.24224e-05,-1.0796e-05,5.65523e-06,4.1987e-06,0
-3.03502e-05,-4.46446e-06,-5.95135e-06,2.72772e-05,1.13623e-05,-1.05364e-05,1.31858e-05,5.53644e-06,0
-3.11747e-05,-1.78105e-06,-4.94085e-06,4.30482e-05,1.02502e-05,-8.23228e-06,2.17627e-05,6.28975e-06,0
-3.19646e-05,1.07598e-05,-2.28138e-06,4.43651e-05,1.18807e-05,-8.28836e-06,2.90486e-05,6.30154e-06,0
-3.27342e-05,2.78375e-05,9.50783e-07,3.01417e-05,1.46466e-05,-1.10504e-05,3.24781e-05,4.54093e-06,0
-3.17491e-05,4.09722e-05,2.03387e-06,8.46297e-06,1.50066e-05,-1.24602e-05,3.32694e-05,1.56901e-06,0
-2.97334e-05,4.72468e-05,-3.77419e-07,-1.24991e-05,1.17857e-05,-1.1334e-05,3.47622e-05,-1.55198e-06,0
-2.85265e-05,4.54983e-05,-4.03938e-06,-2.59745e-05,8.77807e-06,-9.00881e-06,3.60462e-05,-2.32636e-06,0
-2.95337e-05,3.29465e-05,-6.89494e-06,-3.00248e-05,8.76042e-06,-7.56164e-06,3.49756e-05,-2.17641e-06,0
-3.16892e-05,1.34889e-05,-7.24085e-06,-2.56954e-05,1.13743e-05,-6.67385e-06,3.13345e-05,-1.94389e-06,0
-3.2779e-05,-5.82609e-06,-5.77179e-06,-1.5626e-05,1.52694e-05,-6.94829e-06,2.60038e-05,-9.08671e-07,0
-3.19671e-05,-2.02476e-05,-5.15989e-06,-4.55756e-06,1.94342e-05,-7.51902e-06,2.21878e-05,8.41887e-07,0
-3.10623e-05,-2.50503e-05,-5.59029e-06,2.75647e-06,2.2496e-05,-7.64875e-06,2.05304e-05,2.85386e-06,0
-3.05151e-05,-2.27562e-05,-4.98547e-06,3.86811e-06,2.23989e-05,-7.32867e-06,1.94311e-05,4.39782e-06,0
-3.01327e-05,-1.82132e-05,-3.0382e-06,3.06329e-07,1.89794e-05,-6.15947e-06,1.12945e-05,4.8788e-06,0
-2.95689e-05,-1.37946e-05,-1.25693e-06,-4.17972e-06,1.40686e-05,-4.40915e-06,-8.06749e-06,4.90757e-06,0
-2.90673e-05,-9.7782e-06,-7.07458e-07,-5.62862e-06,1.17947e-05,-4.29634e-06,-2.94494e-05,5.08085e-06,0
-2.93741e-05,-7.59027e-06,-1.5117e-06,-5.17937e-06,1.29335e-05,-7.36795e-06,-3.84613e-05,5.14907e-06,0
-2.94901e-05,-6.29117e-06,-3.04688e-06,-2.90189e-06,1.50408e-05,-9.54999e-06,-3.03201e-05,4.81465e-06,0
-2.84539e-05,-4.22095e-06,-4.19719e-06,1.24324e-06,1.7283e-05,-8.39188e-06,-1.13336e-05,3.77145e-06,0
-2.77003e-05,-3.13692e-07,-4.39129e-06,3.6982e-06,1.99676e-05,-6.5569e-06,9.18966e-06,2.79043e-06,0
-2.84611e-05,5.74055e-06,-3.45872e-06,1.88582e-06,2.18346e-05,-6.063e-06,2.58779e-05,2.27276e-06,0
-2.90842e-05,1.28468e-05,-1.98954e-06,-3.89635e-06,2.18135e-05,-5.12179e-06,3.85584e-05,2.60037e-06,0
-2.91047e-05,1.69267e-05,-5.76537e-07,-1.22566e-05,2.0473e-05,-4.2739e-06,4.6361e-05,4.12467e-06,0
-2.83935e-05,1.57882e-05,4.49151e-07,-1.82312e-05,2.07705e-05,-5.32165e-06,4.67694e-05,4.1124e-06,0
-2.80649e-05,1.45039e-05,1.09499e-06,-2.19528e-05,1.96489e-05,-6.80969e-06,4.17312e-05,2.7021e-06,0
-2.74837e-05,1.55688e-05,9.75154e-07,-2.44742e-05,1.51712e-05,-6.93956e-06,3.73446e-05,6.94824e-07,0
-2.70244e-05,1.69457e-05,-1.41253e-07,-2.27171e-05,1.03831e-05,-6.45666e-06,3.37025e-05,-3.7013e-06,0
-2.79037e-05,1.7138e-05,-2.83852e-06,-1.72362e-05,7.0516e-06,-5.74383e-06,2.80572e-05,-5.59146e-06,0
-2.91154e-05,1.74774e-05,-7.84789e-06,-1.23003e-05,6.95992e-06,-4.76886e-06,2.16073e-05,-2.59049e-06,0
-3.00844e-05,1.88751e-05,-1.19882e-05,-8.53388e-06,6.52567e-06,-3.9312e-06,1.70862e-05,1.32584e-06,0
-3.04275e-05,2.07941e-05,-1.3424e-05,-3.86527e-06,5.46471e-06,-4.1866e-06,1.67764e-05,3.21526e-06,0
-2.99462e-05,2.10186e-05,-1.33876e-05,2.47422e-06,5.22117e-06,-5.63554e-06,2.02788e-05,3.2091e-06,0
-2.94909e-05,2.19389e-05,-1.23749e-05,9.54947e-06,5.85582e-06,-6.62906e-06,2.38857e-05,1.75238e-06,0
-2.86558e-05,2.48576e-05,-1.05087e-05,1.41793e-05,6.64084e-06,-6.52263e-06,2.5306e-05,2.87275e-07,0
-2.77074e-05,2.72576e-05,-9.44043e-06,1.47125e-05,6.4014e-06,-6.26883e-06,2.4736e-05,3.89423e-07,0
-2.88664e-05,2.68211e-05,-1.02396e-05,1.20565e-05,6.40514e-06,-6.32092e-06,2.32415e-05,8.95531e-07,0
-3.11951e-05,2.38847e-05,-1.11493e-05,8.07962e-06,7.73756e-06,-7.10374e-06,2.25694e-05,1.04393e-06,0
-3.26176e-05,2.02405e-05,-1.1678e-05,3.05469e-06,1.09519e-05,-1.00067e-05,2.15273e-05,8.24283e-07,0
-3.32764e-05,1.76252e-05,-1.2627e-05,-8.72156e-08,1.5238e-05,-1.26958e-05,1.71088e-05,1.24345e-06,0
-3.40181e-05,1.85495e-05,-1.30126e-05,-9.52274e-07,1.96605e-05,-1.33427e-05,1.04382e-05,1.99887e-06,0
-3.43466e-05,2.21974e-05,-1.22814e-05,-2.01426e-06,2.17037e-05,-1.39076e-05,5.25592e-06,2.35322e-06,0
-3.41608e-05,2.57776e-05,-1.15098e-05,-5.73331e-06,2.09427e-05,-1.53342e-05,1.82883e-06,2.85617e-06,0
-3.23697e-05,2.78156e-05,-1.09676e-05,-1.21749e-05,1.95176e-05,-1.70908e-05,-1.431e-06,4.14922e-06,0
-2.91267e-05,2.92593e-05,-9.83293e-06,-1.62892e-05,1.85279e-05,-1.89333e-05,-1.75754e-06,4.40918e-06,0
-2.66803e-05,2.88191e-05,-8.15639e-06,-1.56681e-05,1.79389e-05,-1.93777e-05,3.0978e-06,2.50822e-06,0
-2.66294e-05,2.66341e-05,-7.41062e-06,-1.53806e-05,1.78837e-05,-1.84032e-05,9.23112e-06,3.42402e-07,0
-2.70073e-05,2.38071e-05,-7.58836e-06,-1.71511e-05,1.82431e-05,-1.70961e-05,9.54893e-06,-8.81367e-07,0
-2.67176e-05,2.11956e-05,-7.98203e-06,-1.84261e-05,1.79693e-05,-1.51868e-05,3.96356e-06,-6.91075e-07,0
-2.78722e-05,1.89743e-05,-8.90265e-06,-1.98508e-05,1.52954e-05,-1.44395e-05,1.80949e-06,-1.19175e-07,0
-2.88601e-05,1.70066e-05,-1.01724e-05,-2.35897e-05,1.13787e-05,-1.48165e-05,9.23836e-06,-1.10801e-06,0
-2.97697e-05,1.55694e-05,-1.08888e-05,-2.96927e-05,8.90478e-06,-1.38445e-05,2.18979e-05,-3.01884e-06,0
-3.12183e-05,1.30144e-05,-1.05176e-05,-3.53048e-05,7.62698e-06,-1.17578e-05,3.44386e-05,-4.69187e-06,0
-3.1229e-05,1.11969e-05,-1.0713e-05,-3.73027e-05,7.36318e-06,-1.19627e-05,4.0491e-05,-4.2208e-06,0
-3.13317e-05,1.20853e-05,-1.24395e-05,-3.45158e-05,7.28121e-06,-1.42338e-05,3.62145e-05,-2.34453e-06,0
-3.09418e-05,1.15941e-05,-1.49451e-05,-2.69348e-05,6.45168e-06,-1.52145e-05,2.61659e-05,-1.68309e-06,0
-2.97884e-05,1.11863e-05,-1.6409e-05,-1.55198e-05,5.89277e-06,-1.54822e-05,1.43758e-05,-8.69334e-07,0
-3.00764e-05,1.17979e-05,-1.46959e-05,-2.61611e-06,5.90932e-06,-1.48826e-05,4.15632e-06,-5.17725e-07,0
-3.00407e-05,1.1117e-05,-1.16455e-05,7.00132e-06,4.14691e-06,-1.26995e-05,-4.08191e-06,-2.22905e-06,0
-2.9396e-05,1.02192e-05,-9.24242e-06,8.79353e-06,3.01043e-06,-1.02179e-05,-9.42087e-06,-3.97072e-06,0
-3.0586e-05,1.01302e-05,-9.29043e-06,5.10739e-06,4.48176e-06,-7.68901e-06,-1.02245e-05,-3.74524e-06,0
-3.14507e-05,1.10455e-05,-1.0371e-05,1.21352e-06,5.74559e-06,-6.02531e-06,-6.33632e-06,-2.25809e-06,0
-2.98683e-05,1.12784e-05,-9.48192e-06,9.76419e-07,6.5908e-06,-5.62501e-06,-2.63117e-06,-4.88931e-07,0
-2.79475e-05,1.16966e-05,-8.8032e-06,2.34592e-06,7.92869e-06,-5.78799e-06,-1.55008e-06,-4.2826e-07,0
-2.78837e-05,1.29628e-05,-1.06605e-05,2.02785e-06,9.16584e-06,-6.48826e-06,-1.15735e-06,-9.20058e-07,0
-2.93261e-05,1.44148e-05,-1.30162e-05,4.99339e-07,9.0781e-06,-6.9962e-06,-3.28152e-07,-5.66393e-07,0
-3.02122e-05,1.26974e-05,-1.31879e-05,1.23713e-06,9.29583e-06,-6.40367e-06,1.59931e-06,8.19333e-07,0
-2.99067e-05,8.02088e-06,-1.18344e-05,4.22389e-06,1.0125e-05,-6.48231e-06,4.04906e-06,2.28977e-06,0
-2.95755e-05,4.08128e-06,-9.62371e-06,6.69626e-06,1.1117e-05,-7.55021e-06,5.87662e-06,2.39748e-06,0
-3.00255e-05,3.03641e-06,-8.12121e-06,7.71996e-06,1.22386e-05,-7.10003e-06,5.6647e-06,1.90937e-06,0
-3.08237e-05,4.63593e-06,-8.79733e-06,7.37874e-06,1.23214e-05,-4.64487e-06,4.98238e-06,3.85784e-07,0
-3.1441e-05,7.03188e-06,-1.02187e-05,7.36606e-06,1.22134e-05,-1.54382e-06,3.98218e-06,-1.56076e-06,0
-3.12115e-05,1.0922e-05,-1.02669e-05,7.55251e-06,1.34708e-05,1.04768e-07,3.67985e-06,-1.14337e-06,0
-3.01846e-05,1.6186e-05,-9.43593e-06,6.57532e-06,1.55214e-05,-1.39829e-07,5.13203e-06,1.28425e-06,0
-2.99876e-05,1.95583e-05,-8.78539e-06,5.77714e-06,1.66161e-05,-1.21013e-06,5.97261e-06,2.20244e-06,0
-3.13523e-05,2.06242e-05,-9.46222e-06,6.24549e-06,1.6688e-05,-2.86568e-06,4.00754e-06,1.69679e-06,0
-3.18142e-05,2.22582e-05,-1.03591e-05,4.24545e-06,1.59168e-05,-4.35806e-06,2.38619e-06,7.53282e-07,0
-3.0968e-05,2.35549e-05,-1.06625e-05,-1.92726e-06,1.45049e-05,-4.97914e-06,3.43566e-06,-2.32075e-07,0
-3.00766e-05,2.28666e-05,-9.61737e-06,-9.53902e-06,1.33329e-05,-4.93229e-06,6.12186e-06,-1.15916e-06,0
-2.91936e-05,1.92114e-05,-8.65387e-06,-1.73657e-05,1.14263e-05,-4.81618e-06,9.32714e-06,-1.05762e-06,0
-2.79981e-05,1.63247e-05,-1.05276e-05,-2.49633e-05,9.08718e-06,-5.30213e-06,1.20284e-05,-6.96838e-07,0
-2.66509e-05,1.70838e-05,-1.30109e-05,-2.67988e-05,8.05966e-06,-4.7776e-06,1.34928e-05,-1.63149e-07,0
-2.58661e-05,1.89659e-05,-1.55451e-05,-2.07791e-05,8.07147e-06,-2.45145e-06,1.398e-05,9.38001e-07,0
-2.61136e-05,2.07934e-05,-1.57917e-05,-9.02976e-06,8.88807e-06,-1.0737e-06,1.40043e-05,9.98331e-07,0
-2.78721e-05,2.00838e-05,-1.46095e-05,4.21243e-06,9.19942e-06,-1.96331e-06,1.48047e-05,-1.23729e-06,0
-3.00665e-05,1.8642e-05,-1.37179e-05,1.47656e-05,9.54033e-06,-3.37533e-06,1.59228e-05,-3.88158e-06,0
-2.96327e-05,1.9454e-05,-1.21534e-05,2.27706e-05,1.04949e-05,-3.30749e-06,1.48809e-05,-5.95321e-06,0
-2.82627e-05,2.07727e-05,-9.61537e-06,2.7062e-05,1.12263e-05,-1.59869e-06,1.10935e-05,-7.89247e-06,0
-2.81685e-05,2.13619e-05,-8.55821e-06,2.53826e-05,1.09668e-05,-1.17682e-06,8.09545e-06,-8.71765e-06,0
-2.9211e-05,2.0507e-05,-1.09861e-05,1.86844e-05,1.01013e-05,-3.79945e-06,8.20833e-06,-7.82785e-06,0
-3.04318e-05,1.92287e-05,-1.39748e-05,1.10521e-05,9.67107e-06,-8.0435e-06,1.0018e-05,-4.98611e-06,0
-3.07457e-05,1.78658e-05,-1.50063e-05,4.67442e-06,9.09256e-06,-1.06317e-05,1.25104e-05,-2.19371e-06,0
-3.14218e-05,1.59639e-05,-1.34379e-05,1.34735e-06,8.15367e-06,-1.07097e-05,1.35308e-05,8.58541e-08,0
-3.27326e-05,1.38396e-05,-1.0331e-05,7.64545e-07,8.07336e-06,-9.73829e-06,1.24248e-05,6.17991e-07,0
-3.42066e-05,1.2493e-05,-7.04628e-06,-2.29177e-07,9.96299e-06,-9.14678e-06,1.09954e-05,4.79633e-07,0
-3.43824e-05,1.19668e-05,-5.51199e-06,-2.65126e-06,1.22157e-05,-1.06521e-05,1.07766e-05,8.16619e-07,0
-3.36581e-05,1.12073e-05,-5.25008e-06,-4.52183e-06,1.26551e-05,-1.34883e-05,1.13249e-05,1.26031e-06,0
-3.32988e-05,1.05897e-05,-6.01734e-06,-3.96403e-06,1.12042e-05,-1.51584e-05,1.22534e-05,1.19254e-06,0
-3.39283e-05,1.09651e-05,-7.27992e-06,-1.54218e-06,1.00856e-05,-1.53071e-05,1.31224e-05,2.93002e-07,0
-3.49575e-05,1.23334e-05,-7.95087e-06,1.41994e-07,1.04902e-05,-1.59875e-05,1.43564e-05,-3.89036e-08,0
-3.49335e-05,1.31137e-05,-7.18774e-06,4.62759e-07,1.12683e-05,-1.53737e-05,1.45581e-05,8.03972e-07,0
-3.38152e-05,1.22348e-05,-6.6275e-06,2.27685e-06,1.12261e-05,-1.34227e-05,1.37416e-05,2.55467e-06,0
-3.36487e-05,1.05637e-05,-9.14693e-06,7.1161e-06,1.01885e-05,-1.37837e-05,1.25829e-05,3.82125e-06,0
-3.35168e-05,9.0066e-06,-1.22609e-05,1.28042e-05,8.60815e-06,-1.59817e-05,1.12725e-05,3.85429e-06,0
-3.21312e-05,6.23913e-06,-1.13936e-05,1.61674e-05,7.80625e-06,-1.59547e-05,1.08728e-05,3.34304e-06,0
-3.08135e-05,2.61153e-06,-7.84861e-06,1.69697e-05,6.61749e-06,-1.41507e-05,1.03444e-05,2.62902e-06,0
-3.00866e-05,2.26851e-06,-7.31405e-06,1.69401e-05,3.58725e-06,-1.50074e-05,1.01547e-05,3.24327e-06,0
-3.0279e-05,4.03764e-06,-7.34802e-06,1.6567e-05,-1.56313e-07,-1.78629e-05,1.28044e-05,4.67426e-06,0
-3.1078e-05,5.39997e-06,-5.949e-06,1.42236e-05,-2.3397e-06,-1.96679e-05,1.82424e-05,5.05858e-06,0
-3.12778e-05,6.32968e-06,-4.6769e-06,6.9824e-06,-1.67508e-06,-1.95703e-05,2.48275e-05,5.03688e-06,0
-2.97725e-05,5.4136e-06,-2.1425e-06,-4.25275e-06,-3.91393e-07,-1.90724e-05,3.09961e-05,4.30792e-06,0
-2.89386e-05,3.1456e-06,-6.04547e-07,-1.65232e-05,7.3373e-07,-1.78472e-05,3.50864e-05,5.08905e-06,0
-2.92472e-05,1.56551e-06,-8.76234e-07,-2.9668e-05,2.76809e-06,-1.65058e-05,3.64289e-05,7.46751e-06,0
-2.82334e-05,2.29223e-06,-2.33361e-06,-4.08744e-05,5.64541e-06,-1.57155e-05,3.31083e-05,8.90808e-06,0
-2.68719e-05,4.45916e-06,-3.49513e-06,-4.86514e-05,7.29933e-06,-1.44095e-05,2.26983e-05,7.96744e-06,0
-2.63357e-05,7.8032e-06,-4.10288e-06,-5.57201e-05,6.12997e-06,-1.35739e-05,8.17851e-06,5.59949e-06,0
-2.7218e-05,1.07793e-05,-4.00354e-06,-6.11293e-05,4.48288e-06,-1.25433e-05,-2.2186e-06,3.54474e-06,0
-2.95337e-05,1.14862e-05,-2.53632e-06,-5.95964e-05,4.99152e-06,-1.06884e-05,-5.48287e-06,3.08534e-06,0
-3.15044e-05,1.09543e-05,-1.29362e-06,-5.10725e-05,7.29821e-06,-9.22985e-06,-3.6844e-06,4.13871e-06,0
-3.18574e-05,9.71195e-06,-8.84712e-07,-4.1847e-05,8.621e-06,-9.85172e-06,-6.23041e-07,4.65685e-06,0
-3.18764e-05,7.28039e-06,-2.3857e-06,-3.64184e-05,8.66224e-06,-1.1281e-05,1.93225e-06,3.57624e-06,0
-3.26281e-05,4.28211e-06,-3.81051e-06,-3.39885e-05,8.93517e-06,-1.16654e-05,4.8002e-06,2.45977e-06,0
-3.28238e-05,1.90786e-06,-3.55757e-06,-3.04982e-05,9.34861e-06,-1.07817e-05,7.41329e-06,2.52621e-06,0
-3.18397e-05,1.16158e-06,-1.65612e-06,-2.35239e-05,8.73182e-06,-9.87655e-06,9.16084e-06,2.36041e-06,0
-2.9823e-05,3.35412e-06,-4.0179e-07,-1.40464e-05,7.37578e-06,-1.00666e-05,1.0573e-05,8.79168e-07,0
-2.80602e-05,6.96109e-06,-1.15773e-06,-5.36844e-06,5.9392e-06,-1.04656e-05,1.23883e-05,-9.47181e-07,0
-2.79878e-05,9.66335e-06,-2.57791e-06,-1.57245e-06,3.8158e-06,-1.1025e-05,1.50332e-05,-1.14027e-06,0
-2.93174e-05,9.46087e-06,-3.3777e-06,-4.99955e-06,1.86568e-06,-1.08107e-05,1.81611e-05,2.60071e-07,0
-2.9464e-05,7.25396e-06,-4.25015e-06,-1.18275e-05,1.05807e-06,-8.39347e-06,2.14939e-05,1.58122e-06,0
-2.74114e-05,6.63488e-06,-5.47206e-06,-1.25806e-05,4.63044e-07,-5.82301e-06,2.4294e-05,9.32178e-07,0
-2.39317e-05,7.50615e-06,-6.44548e-06,-2.17131e-06,-1.67009e-06,-5.5449e-06,2.39542e-05,-1.46979e-06,0
-2.24538e-05,8.19861e-06,-6.941e-06,1.28472e-05,-2.71815e-06,-6.52252e-06,2.13953e-05,-4.23952e-06,0
-2.57919e-05,8.10037e-06,-6.83251e-06,2.29895e-05,1.58503e-08,-7.46252e-06,1.8871e-05,-5.36287e-06,0
-2.95378e-05,7.88177e-06,-6.37539e-06,2.67888e-05,6.49889e-06,-8.71677e-06,1.62495e-05,-6.05822e-06,0
-2.95875e-05,7.63401e-06,-5.81561e-06,3.01018e-05,1.05993e-05,-1.16747e-05,1.3334e-05,-6.07197e-06,0
-2.89601e-05,5.98008e-06,-6.69052e-06,3.31059e-05,1.12059e-05,-1.43638e-05,1.1817e-05,-3.95681e-06,0
-2.98522e-05,3.14794e-06,-6.96538e-06,3.51426e-05,1.44707e-05,-1.48725e-05,1.27529e-05,-7.982e-07,0
-2.99751e-05,2.22314e-06,-7.97681e-06,3.74971e-05,1.96015e-05,-1.40175e-05,1.47303e-05,2.23343e-06,0
-2.99335e-05,2.6988e-06,-1.04532e-05,3.56293e-05,2.37474e-05,-1.21243e-05,1.62838e-05,3.71595e-06,0
-2.99972e-05,4.21044e-06,-1.10156e-05,2.66344e-05,2.63251e-05,-1.02309e-05,1.60018e-05,3.63772e-06,0
-2.96168e-05,6.96062e-06,-9.34301e-06,1.40508e-05,2.90645e-05,-7.76287e-06,1.46064e-05,2.97813e-06,0
-2.9949e-05,8.2732e-06,-6.16003e-06,4.94967e-07,3.03854e-05,-5.73023e-06,1.27307e-05,2.97438e-06,0
-3.04128e-05,8.69802e-06,-3.05717e-06,-1.41144e-05,3.02628e-05,-5.13541e-06,1.13787e-05,3.65171e-06,0
-3.07172e-05,8.6885e-06,-2.67483e-06,-2.55833e-05,2.87439e-05,-5.95315e-06,1.18162e-05,4.58574e-06,0
-3.11404e-05,9.73717e-06,-5.20889e-06,-3.20649e-05,2.66625e-05,-6.87234e-06,1.33741e-05,5.17819e-06,0
-3.07746e-05,1.21017e-05,-7.48501e-06,-3.22528e-05,2.59464e-05,-6.27642e-06,1.57763e-05,5.62833e-06,0
-3.02644e-05,1.53311e-05,-7.51805e-06,-2.67064e-05,2.62807e-05,-5.63459e-06,1.7172e-05,5.27763e-06,0
-3.10593e-05,1.78021e-05,-6.3712e-06,-1.89714e-05,2.66325e-05,-4.52197e-06,1.75605e-05,5.03832e-06,0
-3.24216e-05,1.84773e-05,-5.91014e-06,-1.09e-05,2.74244e-05,-3.82338e-06,1.7941e-05,5.5151e-06,0
-3.37464e-05,1.85675e-05,-6.23349e-06,-3.02537e-06,2.98439e-05,-4.35258e-06,1.73029e-05,4.99808e-06,0
-3.37492e-05,1.90362e-05,-7.72534e-06,2.40842e-06,3.12524e-05,-5.0866e-06,1.58886e-05,3.47893e-06,0
-3.1478e-05,1.94691e-05,-9.6473e-06,4.34352e-07,2.91103e-05,-5.67154e-06,1.55283e-05,1.60481e-06,0
-3.00519e-05,1.93541e-05,-1.12208e-05,-7.63301e-06,2.45134e-05,-6.43848e-06,1.59927e-05,-6.36601e-07,0
-3.13775e-05,1.99924e-05,-1.27344e-05,-1.61435e-05,2.09417e-05,-7.14811e-06,1.60209e-05,-1.95816e-06,0
-3.32215e-05,2.13595e-05,-1.37618e-05,-2.26451e-05,1.94912e-05,-7.38955e-06,1.57998e-05,-2.08517e-06,0
-3.37639e-05,2.24755e-05,-1.47546e-05,-2.6863e-05,2.12107e-05,-7.57704e-06,1.5535e-05,-2.08585e-06,0
-3.36786e-05,2.21753e-05,-1.52044e-05,-2.45699e-05,2.38531e-05,-6.59135e-06,1.52342e-05,-2.12032e-06,0
-3.33235e-05,2.10011e-05,-1.45959e-05,-1.47164e-05,2.42016e-05,-4.81419e-06,1.44554e-05,-3.12478e-06,0
-3.20111e-05,1.9314e-05,-1.35753e-05,-6.1887e-06,2.19698e-05,-3.97919e-06,1.4063e-05,-2.57608e-06,0
-3.08987e-05,1.78005e-05,-1.2123e-05,-4.12919e-06,2.13931e-05,-3.92446e-06,1.54654e-05,-1.57106e-06,0
-2.93696e-05,1.6119e-05,-9.56493e-06,-4.65888e-06,2.21346e-05,-3.41702e-06,1.67096e-05,-1.89931e-06,0
-2.74567e-05,1.50122e-05,-7.91072e-06,-4.33931e-06,2.02943e-05,-3.01926e-06,1.497e-05,-1.80726e-06,0
-2.78441e-05,1.35274e-05,-7.79086e-06,-2.20132e-06,1.8269e-05,-3.56282e-06,1.28569e-05,-2.37984e-06,0
-2.83786e-05,1.15393e-05,-6.58751e-06,1.4623e-08,1.78599e-05,-3.0011e-06,1.25243e-05,-2.58327e-06,0
-2.69205e-05,1.1562e-05,-3.74201e-06,2.12188e-06,1.88523e-05,-1.86037e-06,1.31009e-05,-2.11333e-06,0
-2.50806e-05,1.32727e-05,-1.96579e-06,5.7412e-06,1.99722e-05,-1.44232e-06,1.37405e-05,-2.34415e-06,0
-2.54993e-05,1.38498e-05,-2.24691e-06,8.44763e-06,1.93004e-05,-2.29275e-06,1.37443e-05,-2.77533e-06,0
-2.6748e-05,1.12405e-05,-2.32931e-06,9.4827e-06,1.72526e-05,-2.8601e-06,1.29487e-05,-2.64285e-06,0
-2.67936e-05,6.88814e-06,-2.74385e-06,9.38363e-06,1.70004e-05,-1.92629e-06,1.22632e-05,-1.2505e-06,0
-2.66117e-05,2.53401e-06,-3.96535e-06,6.9074e-06,1.76018e-05,-1.05558e-06,1.27323e-05,3.9429e-07,0
-2.67591e-05,4.57142e-07,-5.24624e-06,3.90363e-06,1.70862e-05,-1.16341e-06,1.2947e-05,4.70812e-07,0
-2.81048e-05,1.31611e-06,-5.95852e-06,2.05604e-06,1.61913e-05,-1.55375e-06,1.02862e-05,8.13718e-07,0
-2.95144e-05,3.4449e-06,-6.12752e-06,-6.75374e-07,1.56416e-05,-1.54426e-06,6.10491e-06,2.97513e-06,0
-2.98047e-05,4.80725e-06,-6.40901e-06,-3.4027e-06,1.49964e-05,-2.00184e-06,3.42124e-06,5.24758e-06,0
-3.02378e-05,5.46281e-06,-6.78961e-06,-3.20744e-06,1.43377e-05,-2.43713e-06,3.03331e-06,6.17842e-06,0
-3.10787e-05,6.22831e-06,-6.07789e-06,-1.56145e-06,1.35291e-05,-3.26285e-06,5.59947e-06,6.24187e-06,0
-3.10749e-05,6.96258e-06,-4.29216e-06,-1.74974e-06,1.19975e-05,-4.89365e-06,1.00128e-05,5.56918e-06,0
-3.0926e-05,7.0259e-06,-2.83307e-06,-3.11409e-06,9.64924e-06,-7.00322e-06,1.3518e-05,3.87288e-06,0
-3.16133e-05,7.4426e-06,-2.08609e-06,-3.13123e-06,7.36889e-06,-7.98035e-06,1.45051e-05,2.15221e-06,0
-3.23592e-05,1.00008e-05,-2.60677e-06,-2.19525e-06,6.22656e-06,-6.88232e-06,1.33769e-05,1.91032e-06,0
-3.1999e-05,1.19025e-05,-5.64086e-06,-2.38025e-06,5.13653e-06,-4.77661e-06,1.10849e-05,2.8295e-06,0
-3.05567e-05,1.15412e-05,-1.02469e-05,-3.01416e-06,4.3906e-06,-5.80353e-06,9.54289e-06,3.02241e-06,0
-3.05929e-05,1.05457e-05,-1.32781e-05,-2.85514e-06,4.4119e-06,-9.0691e-06,8.54866e-06,2.7965e-06,0
-3.2653e-05,9.45563e-06,-1.42762e-05,-3.07266e-06,4.1237e-06,-9.45475e-06,7.71173e-06,2.48287e-06,0
-3.3436e-05,8.47731e-06,-1.32234e-05,-4.60507e-06,5.14939e-06,-7.87764e-06,7.6729e-06,2.06829e-06,0
-3.18079e-05,7.92493e-06,-1.09646e-05,-6.30402e-06,7.41827e-06,-8.97075e-06,8.64445e-06,3.50495e-06,0
-2.92741e-05,8.74709e-06,-8.63246e-06,-6.14561e-06,7.66469e-06,-1.13792e-05,1.0284e-05,5.77906e-06,0
-2.93912e-05,1.01151e-05,-7.51418e-06,-4.99854e-06,7.0524e-06,-1.07613e-05,1.02344e-05,6.36609e-06,0
-3.1149e-05,1.03334e-05,-7.97888e-06,-3.31874e-06,7.44252e-06,-9.36984e-06,9.01805e-06,5.4632e-06,0
-3.12255e-05,8.39742e-06,-8.48104e-06,-1.45373e-06,9.14143e-06,-8.15759e-06,7.44779e-06,4.15656e-06,0
-3.15763e-05,7.16133e-06,-9.31606e-06,-1.21001e-06,1.06131e-05,-6.55647e-06,6.25938e-06,3.6401e-06,0
-3.17896e-05,9.08347e-06,-1.08225e-05,-1.54322e-06,1.08358e-05,-5.88307e-06,6.84064e-06,2.44643e-06,0
-3.16686e-05,1.35646e-05,-1.1898e-05,-1.91087e-06,1.07202e-05,-6.80715e-06,8.10176e-06,1.54806e-06,0
-3.07053e-05,1.76525e-05,-1.07004e-05,-3.12065e-06,1.05222e-05,-7.93964e-06,1.02417e-05,2.10776e-06,0
-2.86699e-05,1.87251e-05,-8.52865e-06,-4.06805e-06,1.14222e-05,-8.23303e-06,1.22142e-05,3.06571e-06,0
-2.83186e-05,1.78708e-05,-8.27202e-06,-4.09178e-06,1.38021e-05,-8.41008e-06,1.23744e-05,3.78727e-06,0
-2.92914e-05,1.43555e-05,-9.23539e-06,-4.01184e-06,1.65824e-05,-8.94683e-06,1.15981e-05,2.72713e-06,0
-3.05913e-05,1.46728e-05,-8.80093e-06,-4.39766e-06,1.74655e-05,-9.41184e-06,1.08909e-05,8.57282e-07,0
-3.1803e-05,2.49031e-05,-5.893e-06,-4.52524e-06,1.58074e-05,-9.65035e-06,1.04892e-05,6.64321e-08,0
-3.16356e-05,3.92004e-05,-3.54271e-06,-4.37758e-06,1.18223e-05,-1.04955e-05,1.16944e-05,1.0928e-06,0
-2.91609e-05,4.68917e-05,-4.47633e-06,-3.21357e-06,7.34204e-06,-1.21921e-05,1.36204e-05,2.5965e-06,0
-2.64033e-05,4.41539e-05,-6.55718e-06,-5.44709e-07,5.37618e-06,-1.33724e-05,1.36244e-05,2.92413e-06,0
-2.62682e-05,3.61735e-05,-7.11453e-06,2.46808e-06,6.70812e-06,-1.42101e-05,1.30865e-05,1.68512e-06,0
-2.8258e-05,2.86144e-05,-7.21081e-06,4.26964e-06,9.81371e-06,-1.54298e-05,1.36594e-05,-2.0494e-07,0
-2.97435e-05,2.1553e-05,-8.24985e-06,3.67658e-06,1.20892e-05,-1.52585e-05,1.508e-05,-1.01687e-06,0
-3.09623e-05,1.34121e-05,-9.68427e-06,1.48004e-06,1.3046e-05,-1.30873e-05,1.77512e-05,-1.15828e-07,0
-3.26543e-05,6.73359e-06,-1.12653e-05,-1.91757e-06,1.40394e-05,-1.11519e-05,2.3166e-05,1.70264e-06,0
-3.34606e-05,2.19531e-06,-1.19447e-05,-4.63983e-06,1.52155e-05,-1.02588e-05,2.84269e-05,2.91467e-06,0
-3.26406e-05,-3.01587e-06,-1.0974e-05,-2.4264e-06,1.52924e-05,-9.08874e-06,2.97257e-05,3.04392e-06,0
-3.11865e-05,-1.12153e-05,-1.06151e-05,6.73894e-06,1.50604e-05,-8.47666e-06,2.84309e-05,2.50878e-06,0
-2.97574e-05,-1.73738e-05,-1.23226e-05,1.58833e-05,1.49962e-05,-9.44265e-06,2.61898e-05,1.83713e-06,0
-2.7566e-05,-1.51603e-05,-1.42555e-05,1.88859e-05,1.50993e-05,-1.15354e-05,2.29801e-05,1.73471e-06,0
-2.5931e-05,-7.71175e-06,-1.54972e-05,1.69548e-05,1.55566e-05,-1.38991e-05,1.85048e-05,1.97022e-06,0
-2.56356e-05,1.73863e-07,-1.54042e-05,9.66074e-06,1.53561e-05,-1.56013e-05,1.36606e-05,4.12236e-07,0
-2.63976e-05,7.282e-06,-1.48966e-05,-3.12459e-06,1.57549e-05,-1.57789e-05,1.17017e-05,-1.69204e-06,0
-2.91223e-05,1.15396e-05,-1.49708e-05,-1.71529e-05,1.78083e-05,-1.60073e-05,1.19214e-05,-1.54627e-06,0
-3.28442e-05,1.38457e-05,-1.46616e-05,-2.76308e-05,1.84336e-05,-1.62144e-05,1.16535e-05,-1.35157e-06,0
-3.4802e-05,1.50418e-05,-1.36063e-05,-3.16653e-05,1.64723e-05,-1.40666e-05,9.84893e-06,-1.47896e-06,0
-3.44164e-05,1.51845e-05,-1.11529e-05,-3.41145e-05,1.54306e-05,-1.26465e-05,8.29559e-06,-1.27569e-06,0
-3.38407e-05,1.37604e-05,-8.55183e-06,-4.52327e-05,1.67478e-05,-1.22008e-05,8.97897e-06,-7.06845e-07,0
-3.4511e-05,1.0562e-05,-7.49896e-06,-6.12545e-05,1.7387e-05,-1.23611e-05,9.68042e-06,-4.54394e-07,0
-3.45552e-05,9.29609e-06,-8.00986e-06,-6.76791e-05,1.55898e-05,-1.33794e-05,9.72737e-06,-1.4614e-06,0
-3.37925e-05,9.55924e-06,-9.11643e-06,-5.30935e-05,1.44025e-05,-1.27048e-05,9.62687e-06,-2.92954e-06,0
-3.29356e-05,1.04538e-05,-9.40247e-06,-2.0854e-05,1.60557e-05,-1.01043e-05,1.04042e-05,-4.38781e-06,0
-3.25321e-05,1.21729e-05,-8.34664e-06,1.18716e-05,1.78574e-05,-8.40584e-06,1.1108e-05,-6.0844e-06,0
-3.38085e-05,1.39818e-05,-7.36709e-06,2.84362e-05,1.73066e-05,-9.72728e-06,1.12284e-05,-6.68818e-06,0
-3.55368e-05,1.54215e-05,-6.54897e-06,2.5437e-05,1.60435e-05,-1.27604e-05,1.21003e-05,-4.64397e-06,0
-3.60247e-05,1.60653e-05,-4.56168e-06,1.48513e-05,1.72702e-05,-1.45437e-05,1.42766e-05,-2.04202e-06,0
-3.53825e-05,1.64276e-05,-2.99513e-06,5.79203e-06,2.14299e-05,-1.37012e-05,1.07347e-05,-6.31531e-07,0
-3.44424e-05,1.67792e-05,-2.82517e-06,5.50682e-07,2.63814e-05,-1.28873e-05,-1.36809e-05,-6.60411e-07,0
-3.37689e-05,1.73964e-05,-2.26337e-06,-1.23115e-06,2.97921e-05,-1.39667e-05,-5.92998e-05,-1.68339e-06,0
-3.27446e-05,1.81238e-05,-1.13211e-06,-2.6054e-06,3.13322e-05,-1.58581e-05,-9.8065e-05,-3.41681e-06,0
-3.13527e-05,1.93492e-05,-1.55749e-06,-6.91547e-06,3.23999e-05,-1.66007e-05,-0.000100778,-4.8715e-06,0
-3.10336e-05,2.16134e-05,-3.63951e-06,-1.14337e-05,3.22078e-05,-1.65894e-05,-6.87371e-05,-4.76212e-06,0
-3.0817e-05,2.31668e-05,-6.72675e-06,-1.12914e-05,2.9771e-05,-1.67379e-05,-2.25627e-05,-2.90491e-06,0
-2.98332e-05,2.21101e-05,-9.33726e-06,-8.1984e-06,2.64287e-05,-1.78656e-05,2.11522e-05,-1.34855e-06,0
-2.91443e-05,1.89473e-05,-9.98796e-06,-6.60043e-06,2.41191e-05,-1.88739e-05,5.76182e-05,-1.53221e-06,0
-2.96217e-05,1.56763e-05,-8.85714e-06,-5.77999e-06,2.39869e-05,-1.84582e-05,8.67969e-05,-1.42338e-06,0
-2.97803e-05,1.38024e-05,-6.99419e-06,-1.90572e-06,2.46001e-05,-1.78083e-05,0.000105333,1.18899e-08,0
-2.96931e-05,1.41322e-05,-6.858e-06,2.9538e-06,2.40524e-05,-1.75104e-05,0.000110494,7.31205e-08,0
-3.03171e-05,1.74922e-05,-7.94635e-06,4.87493e-06,2.30684e-05,-1.60788e-05,0.000103273,-1.10519e-06,0
-2.94764e-05,2.09396e-05,-9.92032e-06,3.90229e-06,2.04757e-05,-1.30751e-05,7.64414e-05,-5.45434e-07,0
-2.87262e-05,2.22355e-05,-1.14174e-05,3.13284e-06,1.61516e-05,-1.2105e-05,3.97603e-05,6.18576e-07,0
-2.93727e-05,2.00789e-05,-1.03577e-05,4.00642e-06,1.25449e-05,-1.41585e-05,1.90539e-05,-7.09148e-07,0
-2.88585e-05,1.74412e-05,-8.23622e-06,4.2805e-06,1.21729e-05,-1.57636e-05,1.70201e-05,-2.99717e-06,0
-2.74792e-05,1.72655e-05,-7.10095e-06,2.96078e-06,1.30732e-05,-1.4546e-05,2.37803e-05,-2.12479e-06,0
-2.66881e-05,1.71469e-05,-8.88447e-06,8.51865e-07,1.15437e-05,-1.13974e-05,2.91701e-05,1.6041e-06,0
-2.67399e-05,1.92762e-05,-1.15243e-05,-1.23052e-06,1.04964e-05,-9.29488e-06,3.57044e-05,3.70036e-06,0
-2.66567e-05,2.69634e-05,-1.23864e-05,-2.40312e-06,1.09378e-05,-8.60519e-06,4.41878e-05,4.37582e-06,0
-2.70872e-05,3.93619e-05,-1.1734e-05,-2.31517e-06,1.24427e-05,-7.77219e-06,4.78809e-05,5.09807e-06,0
-2.72095e-05,5.03041e-05,-1.10148e-05,-2.78818e-06,1.24076e-05,-7.27949e-06,4.57655e-05,2.84618e-06,0
-2.6374e-05,5.51189e-05,-1.13666e-05,-3.78912e-06,1.105e-05,-7.3075e-06,4.02147e-05,-6.21173e-07,0
-2.63512e-05,4.99746e-05,-1.20738e-05,-2.74665e-06,1.03882e-05,-6.82084e-06,3.26081e-05,-2.04148e-06,0
-2.72263e-05,3.5634e-05,-1.22773e-05,-1.16365e-06,9.48006e-06,-5.66164e-06,2.40351e-05,-1.52765e-06,0
-2.82787e-05,1.72774e-05,-1.15833e-05,-7.76612e-07,7.81524e-06,-4.55218e-06,1.51933e-05,-1.32162e-06,0
-2.93296e-05,-4.56328e-07,-1.06649e-05,-2.35434e-06,5.9327e-06,-3.20672e-06,5.06233e-06,-1.50868e-06,0
-2.93478e-05,-1.52245e-05,-1.01803e-05,-4.92093e-06,6.7216e-06,-1.79344e-06,-1.83754e-06,-1.50658e-06,0
-2.75678e-05,-2.42353e-05,-9.68462e-06,-6.06854e-06,9.75563e-06,-1.07684e-06,-3.03277e-06,-1.35234e-06,0
-2.58971e-05,-2.3992e-05,-9.05364e-06,-5.662e-06,1.22958e-05,-1.4574e-06,-5.99816e-07,-1.52609e-06,0
-2.59708e-05,-1.68396e-05,-9.48251e-06,-6.13375e-06,1.18892e-05,-1.86496e-06,9.4321e-07,-2.84887e-06,0
-2.723e-05,-8.10223e-06,-1.06588e-05,-7.48012e-06,9.67159e-06,-1.12243e-06,5.69694e-07,-3.3388e-06,0
-2.8043e-05,-1.80155e-06,-1.16824e-05,-7.39716e-06,8.30278e-06,-5.09962e-07,-1.61093e-06,-2.20319e-06,0
-2.82601e-05,3.87048e-06,-1.24907e-05,-6.36062e-06,8.75947e-06,-7.05827e-07,-4.39303e-06,-1.43841e-06,0
-2.78341e-05,9.29234e-06,-1.29874e-05,-4.84738e-06,9.8947e-06,-9.46895e-07,-5.08397e-06,-5.54778e-07,0
-2.82668e-05,1.17675e-05,-1.36239e-05,-1.99303e-06,1.06359e-05,-1.58663e-06,-4.76564e-06,1.03762e-06,0
-2.95652e-05,1.09714e-05,-1.43103e-05,1.84342e-06,1.09238e-05,-1.8922e-06,-6.61247e-06,7.50845e-07,0
-2.93736e-05,8.52907e-06,-1.51122e-05,5.03175e-06,1.01843e-05,-3.04268e-06,-8.82886e-06,-1.28084e-06,0
-2.72899e-05,7.97747e-06,-1.46604e-05,6.53575e-06,8.79566e-06,-5.39216e-06,-1.10239e-05,-1.99436e-06,0
-2.59872e-05,1.14274e-05,-1.24787e-05,6.00809e-06,9.89461e-06,-5.79674e-06,-1.70632e-05,-6.36633e-07,0
-2.73563e-05,1.5078e-05,-1.15424e-05,4.71491e-06,1.27595e-05,-4.97557e-06,-2.13064e-05,1.93605e-09,0
-2.98029e-05,1.80104e-05,-1.265e-05,3.67405e-06,1.32511e-05,-4.9387e-06,-1.71689e-05,-2.75444e-07,0
-3.07254e-05,2.08408e-05,-1.25604e-05,4.45013e-06,1.16351e-05,-5.70658e-06,-9.02632e-06,-4.78577e-07,0
-2.96055e-05,2.28036e-05,-9.7545e-06,6.21827e-06,1.12451e-05,-5.22137e-06,-3.7042e-06,-1.20657e-06,0
-2.855e-05,2.3347e-05,-8.24898e-06,7.23549e-06,1.29766e-05,-5.17594e-06,-3.12833e-06,-2.49466e-06,0
-2.96458e-05,2.23063e-05,-9.81555e-06,5.91986e-06,1.43279e-05,-7.51199e-06,-3.67274e-06,-1.83745e-06,0
-3.17442e-05,2.13783e-05,-1.10733e-05,3.10078e-06,1.37977e-05,-9.18548e-06,-2.10708e-06,8.12744e-07,0
-3.32683e-05,1.99636e-05,-1.00601e-05,2.18899e-06,1.31693e-05,-8.99402e-06,1.03485e-06,3.05592e-06,0
-3.43382e-05,1.7436e-05,-7.78912e-06,2.71097e-06,1.42445e-05,-7.32582e-06,4.09433e-06,3.64506e-06,0
-3.50668e-05,1.57743e-05,-6.16326e-06,3.68011e-06,1.56316e-05,-5.55842e-06,6.83812e-06,3.20667e-06,0
-3.61131e-05,1.6076e-05,-6.11279e-06,2.86213e-06,1.60685e-05,-5.51571e-06,8.64024e-06,4.04373e-06,0
-3.58907e-05,1.60251e-05,-6.85967e-06,-1.20679e-06,1.49144e-05,-7.28669e-06,8.13168e-06,5.46312e-06,0
-3.39565e-05,1.52956e-05,-6.7855e-06,-9.66389e-06,1.24624e-05,-8.76714e-06,7.74611e-06,6.2187e-06,0
-3.20274e-05,1.40883e-05,-5.7676e-06,-2.15056e-05,9.1207e-06,-8.99494e-06,8.23937e-06,6.47045e-06,0
-3.1932e-05,1.30313e-05,-5.11013e-06,-3.49681e-05,6.4339e-06,-9.45146e-06,9.81594e-06,6.74264e-06,0
-3.31263e-05,1.19413e-05,-5.40783e-06,-4.77733e-05,4.00733e-06,-1.06196e-05,1.39341e-05,6.24313e-06,0
-3.34311e-05,9.68842e-06,-5.75558e-06,-5.42454e-05,7.03736e-07,-1.12096e-05,2.24288e-05,5.30657e-06,0
-3.26164e-05,6.52489e-06,-5.20986e-06,-4.93464e-05,-2.24166e-06,-1.13944e-05,3.22326e-05,4.96585e-06,0
-3.19698e-05,3.76465e-06,-4.06523e-06,-3.36196e-05,-3.96005e-06,-1.29785e-05,3.82812e-05,5.4422e-06,0
-3.17616e-05,3.90394e-06,-3.19391e-06,-1.48607e-05,-3.9468e-06,-1.53866e-05,3.95127e-05,5.54936e-06,0
-3.14784e-05,6.54179e-06,-2.52874e-06,-1.17161e-06,-2.4808e-06,-1.50934e-05,3.69002e-05,5.4733e-06,0
-3.05044e-05,8.38265e-06,-2.06029e-06,5.61425e-06,-9.06061e-07,-1.17057e-05,3.23411e-05,6.92455e-06,0
-2.91633e-05,7.47921e-06,-1.56901e-06,9.88744e-06,3.47688e-07,-9.52339e-06,2.65975e-05,8.00488e-06,0
-2.86994e-05,4.70232e-06,-1.21831e-06,1.2178e-05,1.25935e-06,-9.03391e-06,1.67996e-05,6.86044e-06,0
-2.95598e-05,2.82042e-06,-2.04474e-06,8.98576e-06,2.58676e-06,-9.63093e-06,1.50594e-06,5.66513e-06,0
-3.08692e-05,2.58084e-06,-3.92868e-06,-8.52919e-07,6.04118e-06,-1.08613e-05,-1.19141e-05,5.73772e-06,0
-3.0492e-05,3.0157e-06,-5.77564e-06,-1.36405e-05,1.02286e-05,-1.23186e-05,-1.67315e-05,4.72878e-06,0
-3.02864e-05,4.50913e-06,-7.93308e-06,-2.34874e-05,1.32281e-05,-1.25394e-05,-1.47134e-05,4.37096e-06,0
-3.04597e-05,7.96662e-06,-9.80301e-06,-2.99162e-05,1.58013e-05,-1.01442e-05,-7.76792e-06,4.66118e-06,0
-2.98296e-05,1.13934e-05,-9.76043e-06,-3.36685e-05,1.8905e-05,-7.0311e-06,3.95031e-06,3.21563e-06,0
-2.95711e-05,1.25505e-05,-9.49168e-06,-2.93034e-05,2.14852e-05,-5.71402e-06,1.67551e-05,8.81265e-07,0
-3.06544e-05,1.23703e-05,-9.04946e-06,-1.56972e-05,2.09405e-05,-6.93015e-06,2.49468e-05,-2.32037e-07,0
-3.16858e-05,1.07986e-05,-8.00593e-06,-3.13811e-06,1.72379e-05,-7.32418e-06,2.80954e-05,1.00182e-06,0
-3.05326e-05,1.1214e-05,-5.87321e-06,8.48267e-07,1.40832e-05,-6.47181e-06,2.85547e-05,2.06362e-06,0
-2.91477e-05,1.23338e-05,-4.35566e-06,5.50232e-07,1.2759e-05,-5.60542e-06,2.73325e-05,2.26285e-06,0
-2.88726e-05,1.16213e-05,-5.72683e-06,7.11684e-07,1.13956e-05,-7.02482e-06,2.50281e-05,1.80816e-06,0
-2.93152e-05,1.00469e-05,-8.03847e-06,2.75363e-06,1.0177e-05,-1.00393e-05,2.14989e-05,8.84589e-07,0
-3.0757e-05,8.69068e-06,-9.57997e-06,6.68787e-06,1.10628e-05,-1.23883e-05,1.75159e-05,4.92651e-07,0
-3.27699e-05,8.26836e-06,-9.98031e-06,9.69355e-06,1.44632e-05,-1.34499e-05,1.37102e-05,1.5083e-06,0
-3.32006e-05,8.24853e-06,-1.03438e-05,8.19152e-06,1.86756e-05,-1.31292e-05,1.10305e-05,3.30239e-06,0
-3.2748e-05,8.96465e-06,-1.02238e-05,1.92733e-06,2.09725e-05,-1.23811e-05,9.40436e-06,5.05731e-06,0
-3.27205e-05,9.96061e-06,-7.78166e-06,-6.67641e-06,2.09103e-05,-1.15759e-05,9.46237e-06,5.95169e-06,0
-3.27347e-05,1.0503e-05,-3.96228e-06,-1.38596e-05,1.95592e-05,-1.04227e-05,1.08935e-05,4.73912e-06,0
-3.26299e-05,9.25659e-06,-1.80998e-06,-1.61627e-05,1.7905e-05,-8.9936e-06,1.231e-05,3.17002e-06,0
-3.28216e-05,6.62929e-06,-2.9703e-06,-1.40367e-05,1.63259e-05,-1.02481e-05,1.26259e-05,3.46033e-06,0
-3.42284e-05,4.73594e-06,-5.79507e-06,-8.76256e-06,1.46343e-05,-1.40628e-05,1.15232e-05,4.79275e-06,0
-3.55462e-05,4.92636e-06,-7.19366e-06,-1.4504e-06,1.31842e-05,-1.6366e-05,9.75936e-06,5.58792e-06,0
-3.45652e-05,4.99951e-06,-7.57126e-06,7.51629e-06,1.28723e-05,-1.47218e-05,8.7248e-06,5.31935e-06,0
-3.11634e-05,4.07042e-06,-9.17137e-06,1.62945e-05,1.40008e-05,-1.27312e-05,8.45996e-06,3.88011e-06,0
-2.72714e-05,2.95053e-06,-1.13352e-05,2.17641e-05,1.4476e-05,-1.29912e-05,7.92658e-06,3.09143e-06,0
-2.64179e-05,5.23051e-06,-1.25685e-05,2.14546e-05,1.30363e-05,-1.44719e-05,7.64675e-06,2.68465e-06,0
-2.88216e-05,1.03812e-05,-1.21931e-05,1.8996e-05,1.23809e-05,-1.60006e-05,8.59902e-06,3.05365e-06,0
-2.98096e-05,1.41566e-05,-1.0663e-05,1.83424e-05,1.46853e-05,-1.67971e-05,9.43256e-06,4.0421e-06,0
-2.86733e-05,1.42523e-05,-1.0496e-05,1.82623e-05,1.80379e-05,-1.8557e-05,9.0972e-06,4.15684e-06,0
-2.78949e-05,1.26216e-05,-1.16964e-05,1.60804e-05,1.96938e-05,-1.90257e-05,9.1708e-06,3.96166e-06,0
-2.86209e-05,1.34933e-05,-1.30521e-05,1.33959e-05,1.86983e-05,-1.65689e-05,1.01578e-05,2.52981e-06,0
-2.92389e-05,1.57202e-05,-1.43077e-05,1.23265e-05,1.62662e-05,-1.54763e-05,1.06441e-05,-1.13642e-06,0
-2.76313e-05,1.80831e-05,-1.56174e-05,1.0469e-05,1.44904e-05,-1.59376e-05,1.17811e-05,-4.40167e-06,0
-2.76332e-05,1.82861e-05,-1.7022e-05,7.66803e-06,1.37027e-05,-1.62807e-05,1.23269e-05,-5.30299e-06,0
-2.94976e-05,1.52687e-05,-1.79476e-05,4.81763e-06,1.14693e-05,-1.50734e-05,1.22209e-05,-5.27811e-06,0
-2.9719e-05,1.25285e-05,-1.70185e-05,3.08068e-06,8.68063e-06,-1.43342e-05,1.38994e-05,-5.06267e-06,0
-2.99298e-05,1.34767e-05,-1.38491e-05,1.29303e-06,8.19819e-06,-1.40288e-05,1.42894e-05,-5.06921e-06,0
-3.05933e-05,1.64539e-05,-1.01509e-05,-9.04753e-07,7.38867e-06,-1.35908e-05,1.53045e-05,-4.81689e-06,0
-3.09948e-05,1.85903e-05,-8.32157e-06,-2.67871e-06,6.57308e-06,-1.29804e-05,1.67557e-05,-4.80867e-06,0
-3.1109e-05,1.93234e-05,-9.2434e-06,-1.30945e-06,8.05199e-06,-1.11778e-05,1.72867e-05,-4.60664e-06,0
-3.07157e-05,1.86027e-05,-1.06804e-05,5.5746e-07,9.55879e-06,-9.84836e-06,1.70648e-05,-4.37403e-06,0
-2.96661e-05,1.67422e-05,-1.06934e-05,-9.6933e-07,9.0183e-06,-9.3135e-06,1.67063e-05,-4.07223e-06,0
-3.00901e-05,1.50304e-05,-9.11758e-06,-3.08564e-06,8.0855e-06,-9.35223e-06,1.59725e-05,-3.57483e-06,0
-3.17378e-05,1.49663e-05,-6.84095e-06,-3.82322e-06,8.03178e-06,-8.87241e-06,1.51452e-05,-2.50581e-06,0
-3.30234e-05,1.54631e-05,-3.60652e-06,-4.34592e-06,8.46679e-06,-9.1369e-06,1.56874e-05,-5.90474e-07,0
-3.33255e-05,1.55218e-05,-6.71621e-07,-5.77318e-06,9.05712e-06,-9.52146e-06,1.59061e-05,9.49983e-07,0
-3.22488e-05,1.65515e-05,3.07064e-07,-7.02163e-06,8.83774e-06,-9.05528e-06,1.40193e-05,2.20666e-06,0
-3.12343e-05,1.87834e-05,8.46706e-07,-9.99922e-06,8.36984e-06,-7.27403e-06,1.03322e-05,3.00662e-06,0
-3.00724e-05,2.00055e-05,2.50874e-06,-1.39828e-05,9.04351e-06,-5.66531e-06,8.31615e-06,2.29588e-06,0
-2.90128e-05,1.90834e-05,4.53556e-06,-1.45759e-05,1.13218e-05,-4.24235e-06,9.70659e-06,-2.97516e-07,0
-2.86789e-05,1.78358e-05,7.00511e-06,-1.10377e-05,1.25705e-05,-1.55899e-06,1.36757e-05,-1.02843e-06,0
-2.87413e-05,1.71989e-05,9.82684e-06,-8.26178e-06,1.15334e-05,6.9215e-07,1.74426e-05,1.03478e-06,0
-2.99359e-05,1.69605e-05,1.10096e-05,-9.56876e-06,1.01285e-05,5.05817e-07,1.89691e-05,2.09033e-06,0
-3.13061e-05,1.75522e-05,8.63515e-06,-1.33942e-05,1.10829e-05,-9.71033e-07,1.80197e-05,4.29989e-07,0
-3.04107e-05,1.7538e-05,3.72961e-06,-1.54063e-05,1.31641e-05,-2.07425e-06,1.76071e-05,-1.53029e-06,0
-2.96442e-05,1.71136e-05,-4.62439e-06,-1.43709e-05,1.44336e-05,-2.54737e-06,1.70974e-05,-3.4365e-06,0
-2.9891e-05,1.69974e-05,-1.51713e-05,-1.03362e-05,1.47364e-05,-3.54283e-06,1.52515e-05,-3.76873e-06,0
-2.99891e-05,1.66678e-05,-2.22857e-05,-3.91882e-06,1.29816e-05,-5.33428e-06,1.42603e-05,-2.45099e-06,0
-3.03181e-05,1.57522e-05,-2.36649e-05,3.62678e-06,1.2416e-05,-5.09504e-06,1.37059e-05,-2.47225e-06,0
-2.96981e-05,1.45063e-05,-2.02778e-05,1.13681e-05,1.31939e-05,-5.34186e-06,1.13279e-05,-2.7721e-06,0
-2.85914e-05,1.44691e-05,-1.66487e-05,2.16389e-05,1.32164e-05,-7.09844e-06,8.5951e-06,-3.53477e-06,0
-2.69873e-05,1.46489e-05,-1.42909e-05,3.79121e-05,1.19109e-05,-8.01111e-06,8.45909e-06,-6.06616e-06,0
-2.59205e-05,1.37568e-05,-1.28234e-05,5.29568e-05,9.98207e-06,-7.43429e-06,1.04321e-05,-8.51562e-06,0
-2.63223e-05,1.19546e-05,-1.20967e-05,5.43436e-05,9.99796e-06,-5.63398e-06,1.31362e-05,-8.74872e-06,0
-2.61048e-05,1.07398e-05,-1.19304e-05,3.8198e-05,1.10635e-05,-3.37759e-06,1.53529e-05,-7.91353e-06,0
-2.63908e-05,1.10359e-05,-1.27601e-05,1.55695e-05,1.23965e-05,-1.94103e-06,1.56795e-05,-7.09544e-06,0
-2.76626e-05,1.16546e-05,-1.43847e-05,-2.76808e-06,1.38187e-05,-2.69403e-06,1.43711e-05,-6.88846e-06,0
-2.96267e-05,1.2228e-05,-1.43187e-05,-1.70067e-05,1.59211e-05,-3.82788e-06,1.35624e-05,-7.18583e-06,0
-3.07178e-05,1.37894e-05,-1.27411e-05,-2.95288e-05,1.7432e-05,-4.26133e-06,1.43442e-05,-7.9727e-06,0
-2.98508e-05,1.75807e-05,-1.10956e-05,-3.8453e-05,1.76116e-05,-4.96562e-06,1.42917e-05,-8.16354e-06,0
-2.75727e-05,2.23322e-05,-9.49716e-06,-4.46864e-05,1.72768e-05,-6.55267e-06,1.24314e-05,-7.5757e-06,0
-2.54412e-05,2.51711e-05,-7.98625e-06,-5.31361e-05,1.63004e-05,-7.86191e-06,1.04315e-05,-7.4263e-06,0
-2.53137e-05,2.54464e-05,-6.77413e-06,-6.50141e-05,1.55492e-05,-7.90708e-06,8.83749e-06,-7.0417e-06,0
-2.67854e-05,2.46499e-05,-5.72371e-06,-7.65849e-05,1.52575e-05,-8.24217e-06,7.55972e-06,-6.4773e-06,0
-2.85579e-05,2.4036e-05,-4.83658e-06,-8.39714e-05,1.50486e-05,-9.17819e-06,6.54077e-06,-6.21483e-06,0
-2.93242e-05,2.42579e-05,-4.75515e-06,-8.55674e-05,1.42668e-05,-9.49954e-06,6.87946e-06,-5.60632e-06,0
-2.97819e-05,2.53565e-05,-4.38817e-06,-7.94491e-05,1.36973e-05,-9.74028e-06,7.24012e-06,-2.97152e-06,0
-3.14289e-05,2.60055e-05,-5.18962e-06,-6.62775e-05,1.25481e-05,-1.10701e-05,7.40515e-06,3.78293e-07,0
-3.34057e-05,2.55961e-05,-6.8124e-06,-5.26464e-05,1.03803e-05,-1.24165e-05,8.56499e-06,1.67108e-06,0
-3.35418e-05,2.39544e-05,-7.46915e-06,-4.11529e-05,8.90274e-06,-1.22219e-05,9.86398e-06,8.7171e-07,0
-3.19099e-05,2.35081e-05,-7.72284e-06,-2.83091e-05,9.57024e-06,-1.03689e-05,1.01103e-05,7.69215e-07,0
-2.97901e-05,2.48313e-05,-7.12702e-06,-1.33555e-05,1.06103e-05,-9.38501e-06,1.0337e-05,2.38016e-06,0
-2.85435e-05,2.40382e-05,-4.36561e-06,1.71103e-06,1.08237e-05,-8.73032e-06,1.15563e-05,3.04449e-06,0
-2.79689e-05,2.10319e-05,-2.17252e-06,1.38564e-05,1.17643e-05,-7.10603e-06,1.25617e-05,2.60352e-06,0
-2.89686e-05,1.76308e-05,-2.34312e-06,2.14196e-05,1.27677e-05,-5.49837e-06,1.22034e-05,1.96515e-06,0
-3.06568e-05,1.58537e-05,-2.37362e-06,2.50117e-05,1.43091e-05,-4.72313e-06,1.11731e-05,1.55297e-06,0
-3.18559e-05,1.6402e-05,-1.83913e-06,2.30267e-05,1.72702e-05,-4.96894e-06,9.66732e-06,2.44804e-06,0
-3.20861e-05,1.76916e-05,-3.00596e-06,1.48229e-05,1.83231e-05,-6.26521e-06,8.12127e-06,3.08986e-06,0
-3.18149e-05,1.74386e-05,-4.17429e-06,4.80342e-06,1.5532e-05,-8.6319e-06,8.42322e-06,2.41022e-06,0
-3.18346e-05,1.57253e-05,-2.50358e-06,-3.00185e-06,1.17653e-05,-1.07825e-05,1.08346e-05,1.97393e-06,0
-3.23654e-05,1.49697e-05,4.42065e-07,-9.07248e-06,9.05764e-06,-1.14693e-05,1.31725e-05,2.70168e-06,0
-3.20576e-05,1.53396e-05,9.96829e-07,-1.45096e-05,8.00725e-06,-1.07146e-05,1.41296e-05,4.7091e-06,0
-3.06844e-05,1.49076e-05,-1.37494e-06,-1.54515e-05,7.47728e-06,-1.03434e-05,1.37558e-05,5.48353e-06,0
-3.08342e-05,1.51441e-05,-4.26077e-06,-1.20708e-05,5.87756e-06,-1.08704e-05,1.33887e-05,5.64387e-06,0
-3.22671e-05,1.59874e-05,-6.47125e-06,-7.41321e-06,4.77807e-06,-1.16045e-05,1.46921e-05,6.566e-06,0
-3.37849e-05,1.50581e-05,-8.66441e-06,-2.22351e-06,6.77546e-06,-1.07217e-05,1.76183e-05,5.706e-06,0
-3.42088e-05,1.35941e-05,-1.00338e-05,2.24818e-06,1.18514e-05,-8.86742e-06,2.074e-05,3.0792e-06,0
-3.46919e-05,1.32028e-05,-9.81159e-06,7.18777e-06,1.76661e-05,-7.69292e-06,2.14736e-05,1.07148e-06,0
-3.54649e-05,1.43666e-05,-1.00533e-05,1.42771e-05,2.20442e-05,-7.52516e-06,2.03292e-05,1.05779e-06,0
-3.55315e-05,1.53745e-05,-1.06467e-05,2.27794e-05,2.32424e-05,-7.68401e-06,1.91648e-05,1.63437e-06,0
-3.47131e-05,1.44769e-05,-1.16161e-05,2.97705e-05,2.08108e-05,-8.2938e-06,1.82985e-05,2.32307e-06,0
-3.41902e-05,1.16097e-05,-1.29187e-05,3.37771e-05,1.59889e-05,-1.01367e-05,1.72723e-05,3.23367e-06,0
-3.4567e-05,7.94446e-06,-1.42742e-05,3.46909e-05,1.1531e-05,-1.24697e-05,1.59134e-05,3.74455e-06,0
-3.53869e-05,4.1968e-06,-1.62314e-05,3.23827e-05,1.06619e-05,-1.403e-05,1.41727e-05,4.19832e-06,0
-3.54409e-05,1.87461e-06,-1.7135e-05,2.67284e-05,1.19407e-05,-1.39546e-05,1.21176e-05,5.74404e-06,0
-3.44828e-05,3.16698e-06,-1.58078e-05,1.83727e-05,1.21775e-05,-1.35042e-05,1.15863e-05,6.38469e-06,0
-3.38943e-05,7.79855e-06,-1.47451e-05,8.21448e-06,1.15975e-05,-1.17769e-05,1.28766e-05,5.53551e-06,0
-3.25834e-05,1.15806e-05,-1.28989e-05,-4.5497e-06,9.4183e-06,-8.99168e-06,1.30554e-05,5.27173e-06,0
-2.91264e-05,1.05463e-05,-9.95818e-06,-1.74946e-05,7.14042e-06,-7.3246e-06,1.20718e-05,5.74438e-06,0
-2.78072e-05,5.45943e-06,-8.32588e-06,-2.72063e-05,5.74805e-06,-7.27077e-06,1.18004e-05,6.11512e-06,0
-2.95283e-05,1.3558e-06,-8.53631e-06,-3.35631e-05,4.71186e-06,-8.13152e-06,1.3318e-05,6.11868e-06,0
-2.95405e-05,9.9868e-07,-8.73718e-06,-3.46914e-05,4.71952e-06,-9.15901e-06,1.52853e-05,7.15983e-06,0
-2.87796e-05,3.97039e-06,-7.21839e-06,-3.33198e-05,4.32115e-06,-9.13804e-06,1.57158e-05,8.09211e-06,0
-2.88275e-05,7.74963e-06,-6.9086e-06,-3.22429e-05,3.91671e-06,-8.76333e-06,1.47194e-05,7.42102e-06,0
-2.88821e-05,9.11455e-06,-8.58756e-06,-3.03085e-05,4.08833e-06,-1.03303e-05,1.33669e-05,5.14586e-06,0
-2.8008e-05,7.82492e-06,-1.14742e-05,-2.72027e-05,5.28306e-06,-1.20788e-05,1.09409e-05,3.37273e-06,0
-2.59201e-05,5.58807e-06,-1.41655e-05,-2.12405e-05,6.58938e-06,-1.2319e-05,8.20676e-06,1.92232e-06,0
-2.40551e-05,6.96389e-06,-1.50545e-05,-1.34916e-05,8.01394e-06,-1.1746e-05,6.7023e-06,1.04701e-06,0
-2.40419e-05,1.13084e-05,-1.30038e-05,-5.44695e-06,1.06521e-05,-1.2773e-05,6.15462e-06,2.09508e-06,0
-2.53193e-05,1.3027e-05,-9.30128e-06,2.36123e-07,1.34906e-05,-1.38467e-05,7.54863e-06,3.268e-06,0
-2.69168e-05,1.10212e-05,-8.38509e-06,3.10506e-06,1.58021e-05,-1.23172e-05,9.96563e-06,4.46948e-06,0
-2.70421e-05,8.76112e-06,-1.02849e-05,3.26645e-06,1.73602e-05,-1.01731e-05,1.14912e-05,5.55308e-06,0
-2.46626e-05,8.44366e-06,-1.25231e-05,2.77772e-06,1.7312e-05,-1.04142e-05,1.13808e-05,5.93398e-06,0
-2.30644e-05,8.72065e-06,-1.35821e-05,4.32814e-06,1.48563e-05,-1.22e-05,1.06693e-05,4.75811e-06,0
-2.42604e-05,8.18454e-06,-1.32405e-05,6.73708e-06,1.2583e-05,-1.12148e-05,9.62926e-06,2.95364e-06,0
-2.64504e-05,7.05135e-06,-1.2398e-05,8.00737e-06,1.18362e-05,-8.45463e-06,8.17841e-06,2.05081e-06,0
-2.76124e-05,6.47933e-06,-1.13144e-05,6.76652e-06,1.24903e-05,-7.30283e-06,7.28298e-06,2.54175e-06,0
-2.78986e-05,5.7661e-06,-9.84386e-06,3.97194e-06,1.33493e-05,-8.44349e-06,7.58905e-06,3.23766e-06,0
-2.7988e-05,3.00646e-06,-9.78706e-06,5.99246e-07,1.38103e-05,-9.43782e-06,8.50745e-06,3.21667e-06,0
-2.76296e-05,-1.24841e-06,-1.17154e-05,-1.23074e-06,1.46495e-05,-9.62278e-06,9.83698e-06,2.98683e-06,0
-2.66727e-05,-4.16854e-06,-1.23449e-05,-1.31714e-06,1.48883e-05,-1.01282e-05,1.13629e-05,3.43637e-06,0
-2.60551e-05,-4.51683e-06,-1.13878e-05,-1.50751e-06,1.35648e-05,-1.11586e-05,1.23909e-05,4.775e-06,0
-2.62798e-05,-4.24899e-06,-1.00258e-05,-2.30393e-06,1.07936e-05,-1.15729e-05,1.24733e-05,4.48838e-06,0
-2.6043e-05,-4.70462e-06,-8.43592e-06,-3.09945e-06,9.66382e-06,-1.1049e-05,1.1657e-05,4.73015e-06,0
-2.553e-05,-6.68841e-06,-7.70311e-06,-3.63238e-06,8.97721e-06,-1.19958e-05,1.25691e-05,6.15301e-06,0
-2.5499e-05,-6.89391e-06,-7.29081e-06,-2.40567e-06,6.15695e-06,-1.37946e-05,1.6473e-05,5.37087e-06,0
-2.68913e-05,-4.08412e-06,-5.38001e-06,-1.45066e-06,6.04889e-06,-1.43176e-05,2.15811e-05,3.9682e-06,0
-2.99321e-05,-3.27942e-06,-5.41934e-06,-1.29816e-06,8.62099e-06,-1.3831e-05,2.60365e-05,4.43756e-06,0
-3.23988e-05,-4.07405e-06,-7.97328e-06,-8.33626e-07,1.0669e-05,-1.28427e-05,2.75162e-05,4.99888e-06,0
-3.27036e-05,-3.74433e-06,-8.26652e-06,-1.5976e-06,1.28272e-05,-1.14987e-05,2.58791e-05,3.30218e-06,0
-3.11894e-05,1.58019e-06,-7.24879e-06,-7.40666e-06,1.3369e-05,-9.32628e-06,2.36472e-05,2.2385e-06,0
-3.01592e-05,1.00117e-05,-6.68313e-06,-1.56807e-05,1.32852e-05,-6.33601e-06,2.16398e-05,2.24198e-06,0
-2.94384e-05,1.55765e-05,-6.65082e-06,-1.75413e-05,1.48912e-05,-5.87243e-06,2.02197e-05,7.46374e-07,0
-2.83313e-05,1.7389e-05,-6.10678e-06,-1.37099e-05,1.65201e-05,-6.84202e-06,1.94838e-05,-8.22971e-07,0
-2.91027e-05,1.56351e-05,-6.42487e-06,-1.06701e-05,1.66675e-05,-6.32868e-06,1.85969e-05,-2.0239e-07,0
-3.05975e-05,1.23644e-05,-7.69327e-06,-1.24375e-05,1.56023e-05,-7.12977e-06,1.69238e-05,1.40443e-06,0
-2.9998e-05,7.63402e-06,-8.97465e-06,-1.41559e-05,1.5247e-05,-1.0048e-05,1.28568e-05,2.26082e-06,0
-2.78717e-05,2.69831e-06,-9.31474e-06,-8.87796e-06,1.70306e-05,-1.12643e-05,8.04962e-06,2.38128e-06,0
-2.69095e-05,-6.48584e-07,-7.36795e-06,6.01307e-06,1.93019e-05,-1.0288e-05,6.19436e-06,1.4719e-06,0
-2.86846e-05,-2.35578e-06,-6.07375e-06,2.39205e-05,2.02368e-05,-1.01463e-05,8.15494e-06,1.04818e-06,0
-3.21172e-05,-2.92259e-06,-7.8013e-06,3.53787e-05,1.95557e-05,-1.08821e-05,1.16998e-05,2.66431e-06,0
-3.48448e-05,-2.771e-06,-1.11384e-05,3.596e-05,1.854e-05,-1.11185e-05,1.44863e-05,4.54491e-06,0
-3.54097e-05,-2.49123e-06,-1.20009e-05,2.7287e-05,1.77276e-05,-1.16495e-05,1.67037e-05,4.23281e-06,0
