ch1,ch2,ch3,ch4,ch5,ch6,ch7,ch8,class
-3.41203e-05,2.33585e-06,-1.36341e-05,1.00246e-06,2.66306e-06,-9.07978e-06,1.52436e-05,3.41766e-06,0
-3.50491e-05,2.37857e-06,-1.2769e-05,1.6753e-06,1.94698e-08,-1.16496e-05,1.28186e-05,4.02471e-06,0
-3.62957e-05,5.01267e-06,-1.24472e-05,1.86409e-07,-3.14578e-06,-1.37729e-05,1.24005e-05,3.43828e-06,0
-3.55716e-05,6.31668e-06,-1.19911e-05,-2.35404e-06,-4.21661e-06,-1.38955e-05,1.38335e-05,2.85667e-06,0
-3.27516e-05,4.5832e-06,-1.10667e-05,-3.84862e-06,-2.06992e-06,-1.42206e-05,1.40115e-05,3.67203e-06,0
-2.99324e-05,2.02883e-06,-9.43104e-06,-4.98974e-06,1.36509e-06,-1.4422e-05,1.33614e-05,2.80859e-06,0
-2.79327e-05,3.30708e-06,-8.53766e-06,-4.93839e-06,4.6696e-06,-1.43089e-05,1.32269e-05,1.74724e-07,0
-2.81497e-05,6.18803e-06,-1.02631e-05,-2.57285e-06,8.15073e-06,-1.26251e-05,1.63142e-05,-2.33836e-06,0
-2.95595e-05,6.54481e-06,-1.27561e-05,-1.46849e-06,8.68167e-06,-9.90985e-06,2.3045e-05,-2.59944e-06,0
-3.07625e-05,4.16119e-06,-1.37216e-05,-2.97425e-06,6.54263e-06,-8.00779e-06,3.00848e-05,-1.59116e-09,0
-3.04604e-05,1.84697e-06,-1.26099e-05,-4.20818e-06,4.31722e-06,-6.78582e-06,3.50917e-05,2.55263e-06,0
-2.88127e-05,5.82217e-07,-9.33466e-06,-3.24957e-06,2.86213e-06,-7.04657e-06,3.76227e-05,3.09867e-06,0
-2.78126e-05,1.21651e-07,-5.57787e-06,-2.84496e-06,1.99543e-06,-8.23401e-06,3.81309e-05,1.81481e-06,0
-2.81381e-05,9.00002e-07,-4.5342e-06,-4.00737e-06,1.01778e-06,-9.78811e-06,3.46918e-05,-2.48314e-07,0
-2.96011e-05,2.63689e-06,-5.8612e-06,-5.11876e-06,1.75669e-06,-1.14853e-05,2.75748e-05,-1.35408e-06,0
-3.11858e-05,3.90241e-06,-7.194e-06,-6.59225e-06,3.30665e-06,-1.25781e-05,1.95721e-05,2.55262e-08,0
-3.11506e-05,2.83252e-06,-6.83963e-06,-9.6772e-06,4.29336e-06,-1.31814e-05,1.13114e-05,2.88713e-06,0
-3.07937e-05,1.17526e-06,-5.37229e-06,-1.29363e-05,6.02968e-06,-1.42084e-05,1.64548e-06,4.29659e-06,0
-3.23822e-05,9.63184e-07,-4.18021e-06,-1.40168e-05,8.26143e-06,-1.46232e-05,-7.46267e-06,3.95157e-06,0
-3.44996e-05,2.43093e-06,-3.10603e-06,-1.22918e-05,8.78418e-06,-1.39701e-05,-1.21405e-05,3.39043e-06,0
-3.46048e-05,4.08028e-06,-2.42911e-06,-1.02621e-05,8.16753e-06,-1.3643e-05,-1.22114e-05,3.21632e-06,0
-3.2733e-05,5.48369e-06,-2.9572e-06,-1.07761e-05,8.41914e-06,-1.39809e-05,-9.0182e-06,4.07154e-06,0
-3.13326e-05,6.93123e-06,-3.49828e-06,-1.42874e-05,9.92896e-06,-1.45112e-05,-4.01393e-06,5.35581e-06,0
-3.12358e-05,9.28729e-06,-3.75086e-06,-1.84571e-05,1.05206e-05,-1.43116e-05,-5.28399e-08,6.19957e-06,0
-3.21381e-05,1.16115e-05,-5.35006e-06,-2.17816e-05,1.04135e-05,-1.33953e-05,5.5287e-07,5.9444e-06,0
-3.39049e-05,1.21469e-05,-6.81856e-06,-2.17743e-05,1.22854e-05,-1.20364e-05,9.23489e-07,4.81267e-06,0
-3.54926e-05,1.066e-05,-5.7007e-06,-1.84358e-05,1.56548e-05,-9.98999e-06,4.61394e-06,4.27365e-06,0
-3.45978e-05,9.35979e-06,-2.95958e-06,-1.5348e-05,1.72085e-05,-8.06666e-06,9.10364e-06,4.4193e-06,0
-3.064e-05,9.26543e-06,-1.19547e-06,-1.11574e-05,1.61543e-05,-8.09792e-06,1.02363e-05,4.1686e-06,0
-2.73383e-05,9.05684e-06,-8.58811e-07,-2.08445e-06,1.63722e-05,-8.91904e-06,5.77938e-06,4.21314e-06,0
-2.74825e-05,9.75124e-06,-1.91821e-06,1.069e-05,1.94093e-05,-7.92584e-06,-6.1097e-06,5.28194e-06,0
-2.83911e-05,1.0026e-05,-3.83891e-06,1.97879e-05,2.07853e-05,-6.49966e-06,-1.53405e-05,6.52769e-06,0
-2.73135e-05,9.67932e-06,-4.49763e-06,2.16221e-05,2.10114e-05,-7.47076e-06,-1.28059e-05,7.0407e-06,0
-2.66432e-05,1.01538e-05,-3.42561e-06,1.86676e-05,2.23576e-05,-1.0297e-05,-5.23931e-06,7.66358e-06,0
-2.81586e-05,1.23512e-05,-2.7507e-06,1.30472e-05,2.20132e-05,-1.08435e-05,-3.86563e-06,7.60795e-06,0
-3.00681e-05,1.46555e-05,-4.51197e-06,6.71045e-06,2.16448e-05,-9.18138e-06,-1.06434e-05,7.85589e-06,0
-3.03862e-05,1.31685e-05,-8.31233e-06,-2.86494e-09,2.2121e-05,-9.02026e-06,-1.27332e-05,8.13673e-06,0
-2.94384e-05,1.08836e-05,-1.17606e-05,-5.67459e-06,2.22324e-05,-1.03027e-05,-3.44389e-06,7.67997e-06,0
-2.88248e-05,1.00511e-05,-1.17119e-05,-9.40655e-06,2.25288e-05,-1.09684e-05,1.19721e-05,7.39562e-06,0
-2.86106e-05,9.69337e-06,-9.99982e-06,-1.14605e-05,2.22261e-05,-1.0683e-05,2.68629e-05,7.34854e-06,0
-2.85286e-05,9.7552e-06,-9.83354e-06,-1.08741e-05,1.96943e-05,-1.04233e-05,3.79344e-05,7.52555e-06,0
-2.89436e-05,1.07027e-05,-1.16419e-05,-7.74948e-06,1.69392e-05,-9.16373e-06,4.52717e-05,6.44063e-06,0
-2.90011e-05,1.26793e-05,-1.2418e-05,-4.99362e-06,1.55082e-05,-6.67731e-06,5.04295e-05,4.49776e-06,0
-2.88135e-05,1.47513e-05,-1.03771e-05,-4.7235e-06,1.47766e-05,-5.40087e-06,5.2841e-05,2.46034e-06,0
-2.96587e-05,1.71347e-05,-8.2293e-06,-5.38907e-06,1.50217e-05,-6.37668e-06,5.22442e-05,1.94105e-06,0
-2.99362e-05,1.91904e-05,-7.82401e-06,-4.54921e-06,1.56231e-05,-7.33132e-06,5.02984e-05,2.82847e-06,0
-2.89846e-05,1.94544e-05,-8.83697e-06,-2.69517e-06,1.58136e-05,-7.65435e-06,4.73083e-05,3.14109e-06,0
-2.81608e-05,1.86569e-05,-9.3131e-06,-2.62755e-06,1.51898e-05,-7.3785e-06,4.24399e-05,2.15219e-06,0
-2.75545e-05,1.89298e-05,-8.32587e-06,-2.61142e-06,1.30703e-05,-5.94985e-06,3.64282e-05,1.83365e-06,0
-2.71233e-05,2.0221e-05,-7.04892e-06,-1.82805e-06,9.62875e-06,-4.80524e-06,3.13015e-05,2.84008e-06,0
-2.76666e-05,2.21643e-05,-6.50222e-06,-2.78422e-06,6.80593e-06,-4.32918e-06,2.74498e-05,3.78089e-06,0
-2.92159e-05,2.36687e-05,-6.07411e-06,-4.96522e-06,5.26823e-06,-3.49894e-06,2.48944e-05,4.07346e-06,0
-3.06288e-05,2.27021e-05,-6.18798e-06,-4.59858e-06,5.45277e-06,-2.87298e-06,2.24923e-05,3.34056e-06,0
-3.05472e-05,2.04038e-05,-6.23153e-06,-2.89798e-06,7.3572e-06,-3.10845e-06,1.95106e-05,7.49175e-07,0
-2.887e-05,1.92632e-05,-6.25123e-06,-2.47926e-06,1.0043e-05,-3.90759e-06,1.6318e-05,-2.20251e-06,0
-2.82349e-05,2.08165e-05,-6.7199e-06,-2.43316e-06,1.22549e-05,-5.436e-06,1.40707e-05,-2.89185e-06,0
-3.01021e-05,2.43844e-05,-5.81729e-06,-2.88047e-06,1.43358e-05,-6.51516e-06,1.17397e-05,-2.2306e-06,0
-3.25218e-05,2.60095e-05,-3.54373e-06,-1.76475e-06,1.48193e-05,-5.88963e-06,8.28034e-06,-2.54851e-06,0
-3.34231e-05,2.48313e-05,-2.5418e-06,4.37144e-07,1.17988e-05,-4.1118e-06,4.94229e-06,-3.7202e-06,0
-3.18458e-05,2.25361e-05,-2.91381e-06,-1.27095e-06,8.89772e-06,-3.21936e-06,5.25706e-07,-3.92817e-06,0
-2.94639e-05,2.04341e-05,-4.40191e-06,-4.45418e-06,8.36268e-06,-3.94184e-06,-4.60273e-06,-2.83758e-06,0
-2.70911e-05,1.84553e-05,-6.44046e-06,-7.00859e-06,8.66782e-06,-6.15317e-06,-6.2122e-06,-1.35756e-06,0
-2.57071e-05,1.59547e-05,-8.05265e-06,-9.13186e-06,9.61866e-06,-8.52101e-06,-4.32471e-06,7.21981e-07,0
-2.57784e-05,1.31487e-05,-1.05767e-05,-8.72492e-06,1.13565e-05,-8.78449e-06,-1.46518e-06,2.21571e-06,0
-2.59125e-05,1.1847e-05,-1.28365e-05,-7.11101e-06,1.2977e-05,-7.88258e-06,1.83836e-06,1.1624e-06,0
-2.67468e-05,1.22875e-05,-1.23764e-05,-6.5159e-06,1.40453e-05,-6.87347e-06,4.66902e-06,6.03654e-08,0
-2.61895e-05,1.27611e-05,-1.08443e-05,-6.75756e-06,1.37056e-05,-5.59615e-06,6.74181e-06,6.66571e-07,0
-2.45992e-05,1.29505e-05,-1.15605e-05,-7.03876e-06,1.31454e-05,-4.59607e-06,8.5557e-06,2.33232e-06,0
-2.45709e-05,1.3223e-05,-1.46395e-05,-6.83699e-06,1.33555e-05,-5.15509e-06,8.74441e-06,2.88047e-06,0
-2.63368e-05,1.4387e-05,-1.68942e-05,-5.73827e-06,1.30529e-05,-7.6863e-06,8.20607e-06,2.41987e-06,0
-2.76753e-05,1.51053e-05,-1.50878e-05,-3.29061e-06,1.20775e-05,-9.8741e-06,8.74068e-06,2.50933e-06,0
-2.76499e-05,1.31251e-05,-1.13406e-05,1.36885e-06,1.21722e-05,-1.01813e-05,1.04831e-05,2.86453e-06,0
-2.73909e-05,8.20384e-06,-1.01099e-05,5.726e-06,1.29363e-05,-9.22968e-06,1.31874e-05,2.94875e-06,0
-2.73277e-05,3.05788e-06,-1.3472e-05,6.60015e-06,1.22959e-05,-8.29376e-06,1.58702e-05,2.59697e-06,0
-2.74915e-05,4.91501e-08,-1.7878e-05,3.17876e-06,1.12375e-05,-7.24959e-06,1.88828e-05,3.01131e-06,0
-2.74172e-05,5.79033e-07,-1.66985e-05,-1.35004e-06,1.09617e-05,-5.79646e-06,2.191e-05,3.81178e-06,0
-2.66789e-05,3.74241e-06,-6.24487e-06,-3.09633e-06,1.06264e-05,-5.1005e-06,2.38338e-05,3.00904e-06,0
-2.54816e-05,7.46719e-06,1.07268e-05,-9.51911e-07,1.00562e-05,-5.92544e-06,2.35548e-05,-4.99666e-07,0
-2.47635e-05,9.68825e-06,2.65679e-05,3.71063e-06,9.78111e-06,-6.99936e-06,2.29821e-05,-4.45346e-06,0
-2.49049e-05,1.06671e-05,3.24831e-05,8.33344e-06,9.25661e-06,-6.44842e-06,2.42865e-05,-5.9546e-06,0
-2.6678e-05,1.2536e-05,2.42437e-05,1.13967e-05,8.99804e-06,-5.78075e-06,2.52633e-05,-5.49001e-06,0
-2.82257e-05,1.3906e-05,4.85346e-06,1.17308e-05,9.96308e-06,-5.56355e-06,2.40815e-05,-4.61075e-06,0
-2.89523e-05,1.37086e-05,-1.9608e-05,8.52246e-06,1.1737e-05,-4.91314e-06,2.03937e-05,-4.37682e-06,0
-2.91076e-05,1.24646e-05,-4.30788e-05,3.96174e-06,1.23604e-05,-4.97518e-06,1.39892e-05,-3.31542e-06,0
-2.88455e-05,1.15393e-05,-5.86076e-05,-2.9736e-06,1.2169e-05,-2.76445e-06,4.19396e-06,3.56181e-07,0
-2.90206e-05,1.08205e-05,-5.90298e-05,-9.61594e-06,1.27115e-05,1.18148e-06,-2.82445e-06,1.75685e-06,0
-3.05651e-05,9.78789e-06,-5.20443e-05,-1.3134e-05,1.15133e-05,2.40448e-06,-2.85766e-06,-8.59529e-07,0
-3.1901e-05,1.02314e-05,-4.62217e-05,-1.90189e-05,8.05461e-06,8.30493e-07,-1.38449e-06,-2.13454e-06,0
-3.09826e-05,1.11806e-05,-3.7855e-05,-2.46659e-05,5.224e-06,-9.15083e-07,4.03959e-07,2.02443e-07,0
-2.94431e-05,1.21142e-05,-2.79213e-05,-2.5451e-05,4.75431e-06,-1.36522e-06,1.8025e-06,2.90832e-06,0
-2.77977e-05,1.37658e-05,-1.96885e-05,-2.2905e-05,4.71773e-06,-2.32603e-06,3.62757e-06,2.58219e-06,0
-2.71287e-05,1.51305e-05,-1.3404e-05,-2.01834e-05,5.46802e-06,-2.70426e-06,4.8795e-06,2.01038e-06,0
-2.81865e-05,1.40001e-05,-8.46901e-06,-1.73992e-05,6.85526e-06,-2.68039e-06,6.04845e-06,2.35409e-06,0
-2.96704e-05,1.16987e-05,-4.34612e-06,-1.43856e-05,6.51006e-06,-3.41164e-06,7.46452e-06,1.76812e-06,0
-3.12288e-05,1.10294e-05,-1.49133e-06,-1.14905e-05,5.63775e-06,-5.89183e-06,7.65302e-06,-5.8403e-08,0
-3.408e-05,1.25912e-05,-3.55963e-07,-1.00431e-05,5.06992e-06,-7.91947e-06,7.4503e-06,-2.18827e-06,0
-3.65135e-05,1.56201e-05,-6.81768e-08,-1.01624e-05,6.06915e-06,-8.20195e-06,8.59426e-06,-3.48206e-06,0
-3.65698e-05,1.73577e-05,-7.32837e-07,-1.00898e-05,8.31002e-06,-8.73819e-06,1.22422e-05,-3.73215e-06,0
-3.48017e-05,1.86099e-05,-2.16145e-06,-1.02389e-05,1.03675e-05,-1.00283e-05,1.50216e-05,-3.58094e-06,0
-3.40968e-05,2.08901e-05,-3.3299e-06,-1.23574e-05,1.03191e-05,-1.05165e-05,1.59458e-05,-4.54886e-06,0
-3.53327e-05,2.37117e-05,-4.10421e-06,-1.65185e-05,8.65952e-06,-9.29976e-06,1.59548e-05,-6.95114e-06,0
-3.63607e-05,2.49812e-05,-5.49503e-06,-1.99916e-05,7.14756e-06,-8.45696e-06,1.66053e-05,-9.04343e-06,0
-3.60078e-05,2.35354e-05,-7.59833e-06,-2.02486e-05,6.28817e-06,-8.5621e-06,1.66463e-05,-8.64147e-06,0
-3.54177e-05,2.04177e-05,-8.46466e-06,-1.58651e-05,6.19444e-06,-9.54442e-06,1.5883e-05,-6.53249e-06,0
-3.56401e-05,1.76574e-05,-7.39671e-06,-9.98853e-06,6.40123e-06,-1.09254e-05,1.51848e-05,-4.54098e-06,0
-3.55035e-05,1.57457e-05,-6.47503e-06,-7.38254e-06,6.42981e-06,-1.31772e-05,1.49207e-05,-2.93974e-06,0
-3.46624e-05,1.41635e-05,-6.6785e-06,-8.02319e-06,6.97779e-06,-1.57454e-05,1.42071e-05,-1.84681e-06,0
-3.38637e-05,1.29944e-05,-6.86307e-06,-7.39542e-06,8.80428e-06,-1.67995e-05,1.18101e-05,-1.53454e-06,0
-3.29894e-05,1.28239e-05,-6.30827e-06,-4.82536e-06,1.10971e-05,-1.44129e-05,8.44265e-06,-4.54882e-07,0
-3.15379e-05,1.38552e-05,-3.76587e-06,-1.92739e-06,1.29561e-05,-1.18202e-05,6.47919e-06,1.59015e-06,0
-3.08182e-05,1.29522e-05,-7.96667e-07,9.02399e-07,1.34997e-05,-1.1692e-05,6.30634e-06,1.45587e-06,0
-2.92751e-05,1.13455e-05,8.2031e-07,2.07681e-06,1.44875e-05,-1.19315e-05,5.46879e-06,-8.23379e-07,0
-2.83137e-05,1.31699e-05,-1.90265e-07,1.17815e-06,1.45702e-05,-1.11181e-05,6.05545e-06,-2.08221e-06,0
-2.94504e-05,1.52584e-05,-1.47197e-06,1.02903e-06,1.20502e-05,-1.14114e-05,1.26951e-05,-1.70852e-06,0
-3.0422e-05,1.38707e-05,-1.95035e-06,1.88938e-06,1.02786e-05,-1.42662e-05,2.34852e-05,1.02312e-06,0
-2.9749e-05,1.15023e-05,-2.29665e-06,3.76774e-06,1.3935e-05,-1.62952e-05,3.37331e-05,3.308e-06,0
-2.82374e-05,1.04906e-05,-2.0901e-06,6.11258e-06,2.00183e-05,-1.64075e-05,4.1423e-05,3.00783e-06,0
-2.75226e-05,8.39155e-06,-3.31696e-06,4.72296e-06,2.26766e-05,-1.62419e-05,4.7262e-05,1.78882e-06,0
-2.7032e-05,5.27352e-06,-5.44908e-06,1.56672e-06,2.17481e-05,-1.52995e-05,4.96223e-05,-1.62604e-07,0
-2.69425e-05,3.38302e-06,-7.34289e-06,-1.6499e-06,1.85682e-05,-1.38993e-05,4.75307e-05,-1.83161e-06,0
-2.74011e-05,2.81611e-06,-8.8004e-06,-4.98266e-06,1.5382e-05,-1.34595e-05,4.31828e-05,-3.3031e-06,0
-2.73688e-05,3.05881e-06,-1.05724e-05,-8.78687e-06,1.40774e-05,-1.37325e-05,3.55478e-05,-3.69794e-06,0
-2.73149e-05,4.14034e-06,-1.11762e-05,-1.26675e-05,1.459e-05,-1.41587e-05,2.29157e-05,-1.80493e-06,0
-2.8489e-05,6.84095e-06,-1.08956e-05,-1.46346e-05,1.49738e-05,-1.41211e-05,6.20149e-06,1.39206e-06,0
-2.94892e-05,9.19152e-06,-1.1421e-05,-1.5646e-05,1.37566e-05,-1.55186e-05,-1.06879e-05,4.0718e-06,0
-2.97263e-05,9.91688e-06,-1.19901e-05,-1.4277e-05,1.19454e-05,-1.71789e-05,-2.45016e-05,6.3035e-06,0
-2.97573e-05,1.00746e-05,-1.12201e-05,-1.10016e-05,1.03365e-05,-1.68404e-05,-3.01085e-05,7.53065e-06,0
-2.96014e-05,9.95012e-06,-1.00047e-05,-4.9624e-06,9.2615e-06,-1.47473e-05,-2.60158e-05,7.23309e-06,0
-2.88769e-05,8.63516e-06,-1.03303e-05,8.97699e-06,9.81802e-06,-1.32826e-05,-1.72947e-05,5.88052e-06,0
-2.85999e-05,7.74285e-06,-1.10956e-05,2.87966e-05,1.21374e-05,-1.34031e-05,-1.00254e-05,4.02884e-06,0
-2.9586e-05,8.92884e-06,-1.07724e-05,4.14602e-05,1.60124e-05,-1.24805e-05,-6.22428e-06,3.18138e-06,0
-3.12264e-05,1.09891e-05,-8.89862e-06,4.09612e-05,2.10765e-05,-1.0147e-05,-4.33736e-06,3.26189e-06,0
-3.24742e-05,1.33984e-05,-6.61992e-06,3.18831e-05,2.62916e-05,-8.95867e-06,-1.36346e-06,3.58531e-06,0
-3.3176e-05,1.63123e-05,-4.75331e-06,1.95317e-05,2.98759e-05,-9.39537e-06,3.05941e-06,3.7906e-06,0
-3.39439e-05,1.72389e-05,-3.40857e-06,8.61341e-06,3.28283e-05,-9.40555e-06,6.26593e-06,2.70202e-06,0
-3.37322e-05,1.59918e-05,-4.22002e-06,-1.32504e-06,3.22832e-05,-8.28867e-06,5.86704e-06,1.27893e-06,0
-3.24027e-05,1.54732e-05,-6.75124e-06,-1.07209e-05,2.91724e-05,-6.91022e-06,4.56802e-06,1.67141e-06,0
-3.08953e-05,1.58634e-05,-8.32831e-06,-1.6882e-05,3.20401e-05,-6.56029e-06,5.6965e-06,1.39034e-06,0
-3.03023e-05,1.69688e-05,-7.4886e-06,-1.82783e-05,3.75316e-05,-5.85203e-06,9.43281e-06,4.58014e-07,0
-3.12282e-05,1.73741e-05,-5.68452e-06,-2.4883e-05,3.549e-05,-5.45818e-06,1.41377e-05,1.45633e-06,0
-3.16109e-05,1.7975e-05,-4.46771e-06,-3.71953e-05,2.81137e-05,-6.3682e-06,1.5828e-05,2.19796e-06,0
-3.13741e-05,1.94469e-05,-3.35115e-06,-4.1934e-05,2.47264e-05,-8.31742e-06,1.53325e-05,1.03711e-06,0
-3.02554e-05,1.89527e-05,-3.51373e-06,-3.29916e-05,2.72449e-05,-8.86823e-06,1.53692e-05,-5.02231e-07,0
-2.82913e-05,1.71791e-05,-4.43498e-06,-1.52584e-05,3.06094e-05,-6.92035e-06,1.72835e-05,2.21716e-07,0
-2.6685e-05,1.66448e-05,-3.76799e-06,-1.571e-06,2.88436e-05,-7.50401e-06,1.91416e-05,1.98487e-06,0
-2.58887e-05,1.76642e-05,-1.94784e-06,3.58801e-06,2.41491e-05,-1.07306e-05,1.90573e-05,2.01055e-06,0
-2.70745e-05,1.83547e-05,-7.45929e-07,2.59914e-06,1.9781e-05,-1.28542e-05,1.77837e-05,4.94189e-07,0
-2.80738e-05,1.79917e-05,1.48097e-07,-1.36028e-07,1.61171e-05,-1.26098e-05,1.74593e-05,-1.34118e-06,0
-2.82878e-05,1.64061e-05,2.61054e-07,-1.62171e-06,1.29116e-05,-1.16167e-05,1.97168e-05,-1.2143e-06,0
-2.86008e-05,1.42494e-05,-7.59525e-07,-1.20442e-06,1.14578e-05,-1.30399e-05,2.46405e-05,3.93305e-07,0
-2.99541e-05,1.35829e-05,-1.12076e-06,-5.49229e-07,1.16891e-05,-1.66415e-05,3.01525e-05,1.37112e-06,0
-3.16943e-05,1.44085e-05,-1.18824e-07,-6.30724e-07,1.11569e-05,-1.80467e-05,3.54509e-05,-1.02074e-07,0
-3.27324e-05,1.43872e-05,3.43917e-07,-8.05807e-07,8.86583e-06,-1.58687e-05,4.03108e-05,-1.48728e-06,0
-3.25972e-05,1.19643e-05,-7.59869e-07,-2.19715e-06,6.26189e-06,-1.37878e-05,4.29769e-05,-3.79646e-07,0
-3.10862e-05,9.22587e-06,-2.23887e-06,-3.99035e-06,6.17316e-06,-1.47474e-05,4.26732e-05,3.54285e-07,0
-3.01931e-05,8.50823e-06,-3.62499e-06,-5.24101e-06,7.41666e-06,-1.72574e-05,3.94784e-05,-7.03074e-07,0
-3.18112e-05,9.09443e-06,-5.57667e-06,-5.90843e-06,8.40604e-06,-1.85109e-05,3.39966e-05,-1.08243e-06,0
-3.51369e-05,8.43284e-06,-9.24442e-06,-6.48542e-06,7.82358e-06,-1.7558e-05,2.64421e-05,2.3037e-07,0
-3.82578e-05,6.56803e-06,-1.42562e-05,-7.97793e-06,6.87274e-06,-1.66309e-05,1.65984e-05,9.30129e-07,0
-4.03721e-05,5.48421e-06,-2.01775e-05,-8.50051e-06,6.4988e-06,-1.71465e-05,3.24494e-06,1.52347e-06,0
-3.99849e-05,5.90032e-06,-2.66785e-05,-6.04186e-06,6.30811e-06,-1.78658e-05,-1.12334e-05,3.7554e-06,0
-3.6947e-05,6.46472e-06,-3.22737e-05,-4.8929e-06,5.94952e-06,-1.80991e-05,-2.05422e-05,7.44239e-06,0
-3.39319e-05,6.08142e-06,-3.3158e-05,-7.6505e-06,7.0662e-06,-1.70148e-05,-2.1801e-05,1.03574e-05,0
-3.30939e-05,5.5575e-06,-2.71931e-05,-1.28206e-05,8.34631e-06,-1.38883e-05,-1.82137e-05,1.01864e-05,0
-3.28991e-05,5.67071e-06,-1.91345e-05,-1.67459e-05,7.23826e-06,-1.03876e-05,-1.4776e-05,8.4877e-06,0
-3.30302e-05,6.83154e-06,-1.25887e-05,-1.7525e-05,5.25835e-06,-1.1338e-05,-1.24094e-05,7.35763e-06,0
-3.38894e-05,7.88003e-06,-7.95754e-06,-1.54335e-05,4.59167e-06,-1.30088e-05,-1.05126e-05,6.97488e-06,0
-3.32937e-05,7.87067e-06,-3.20443e-06,-1.05787e-05,7.20215e-06,-1.31909e-05,-7.71799e-06,5.72019e-06,0
-3.10955e-05,7.89796e-06,2.2933e-06,-5.62884e-06,1.10012e-05,-1.33382e-05,-8.89773e-07,2.86468e-06,0
-2.8662e-05,6.72313e-06,3.81846e-06,-2.61764e-06,1.41418e-05,-1.25858e-05,8.14403e-06,1.07586e-06,0
-2.56453e-05,6.26286e-06,1.77958e-06,-2.37278e-06,1.57779e-05,-1.28811e-05,1.55481e-05,2.66743e-07,0
-2.42048e-05,8.83842e-06,-2.6453e-06,-3.3382e-06,1.42005e-05,-1.36491e-05,1.81095e-05,3.83255e-07,0
-2.42371e-05,1.18437e-05,-8.96823e-06,-3.29668e-06,1.17749e-05,-1.43968e-05,1.84172e-05,1.64954e-06,0
-2.52849e-05,1.26342e-05,-1.64359e-05,-2.79581e-06,1.17518e-05,-1.39095e-05,2.01673e-05,3.2948e-06,0
-2.70323e-05,9.7778e-06,-2.38733e-05,-2.31686e-06,1.30374e-05,-1.36701e-05,2.47464e-05,3.51919e-06,0
-2.85287e-05,5.74181e-06,-2.76278e-05,-2.0041e-06,1.2745e-05,-1.37071e-05,3.29019e-05,1.93147e-06,0
-2.92e-05,3.42048e-06,-2.45989e-05,-5.54297e-07,1.04889e-05,-1.33162e-05,4.12267e-05,2.13396e-08,0
-2.79708e-05,3.26203e-06,-1.74127e-05,1.11023e-06,7.77848e-06,-1.38065e-05,4.76294e-05,-7.12008e-07,0
-2.71461e-05,3.0223e-06,-1.16931e-05,9.51827e-07,6.13259e-06,-1.44285e-05,5.13361e-05,-6.18516e-07,0
-2.81997e-05,2.69546e-06,-8.59616e-06,7.42382e-07,6.57489e-06,-1.38461e-05,5.0572e-05,-1.19109e-06,0
-3.0454e-05,3.33889e-06,-7.75442e-06,-3.15952e-07,7.22753e-06,-1.35064e-05,4.43381e-05,-2.06044e-06,0
-3.13549e-05,3.53211e-06,-8.80328e-06,-3.23798e-06,6.81268e-06,-1.49064e-05,3.56686e-05,-2.62584e-06,0
-3.05957e-05,4.0207e-06,-9.96252e-06,-5.41348e-06,6.62435e-06,-1.6302e-05,2.61343e-05,-1.71146e-06,0
-2.92125e-05,6.59956e-06,-8.87708e-06,-5.55521e-06,8.73624e-06,-1.63934e-05,1.4154e-05,-1.23999e-07,0
-2.86599e-05,9.7836e-06,-7.28322e-06,-4.57306e-06,1.27097e-05,-1.54794e-05,-3.22985e-07,1.35599e-06,0
-2.92071e-05,1.19041e-05,-7.2253e-06,-3.21268e-06,1.5728e-05,-1.48317e-05,-1.31583e-05,2.64125e-06,0
-3.00069e-05,1.25875e-05,-7.95311e-06,-3.07699e-06,1.76725e-05,-1.43644e-05,-1.94648e-05,4.32875e-06,0
-3.03042e-05,1.23954e-05,-6.74961e-06,-3.24799e-06,1.87934e-05,-1.4537e-05,-1.85618e-05,4.2916e-06,0
-3.04303e-05,1.33839e-05,-3.78421e-06,-1.88761e-06,1.76775e-05,-1.46953e-05,-1.44501e-05,1.64311e-06,0
-3.0172e-05,1.53254e-05,-1.19015e-06,-3.96415e-07,1.56301e-05,-1.47919e-05,-1.04314e-05,-1.21849e-06,0
-2.8602e-05,1.77715e-05,4.22115e-07,-7.11568e-07,1.40874e-05,-1.43835e-05,-6.02787e-06,-1.59282e-06,0
-2.71399e-05,2.09391e-05,1.01393e-06,-2.43302e-06,1.43963e-05,-1.34321e-05,-1.13653e-06,7.85059e-07,0
-2.55618e-05,2.32594e-05,5.95065e-07,-4.65901e-06,1.72324e-05,-1.16431e-05,3.26217e-06,1.60188e-06,0
-2.43832e-05,2.32618e-05,-3.62892e-07,-5.043e-06,1.95153e-05,-9.09052e-06,7.32544e-06,2.48702e-06,0
-2.56005e-05,1.92902e-05,-1.84227e-06,-4.97539e-06,1.89109e-05,-7.93033e-06,1.12309e-05,4.23791e-06,0
-2.7202e-05,1.27096e-05,-4.52176e-06,-4.87722e-06,1.75036e-05,-7.28322e-06,1.38712e-05,4.96545e-06,0
-2.73395e-05,9.35222e-06,-5.64933e-06,-4.8876e-07,1.90124e-05,-6.51207e-06,9.56013e-06,5.99672e-06,0
-2.78197e-05,9.23874e-06,-5.63079e-06,4.96302e-06,2.30766e-05,-5.34571e-06,-3.04099e-06,5.57176e-06,0
-2.87164e-05,9.96084e-06,-7.27545e-06,6.00272e-06,2.52731e-05,-6.26682e-06,-1.32195e-05,4.6627e-06,0
-2.91753e-05,1.08922e-05,-9.06297e-06,1.81094e-06,2.47366e-05,-9.06518e-06,-1.1643e-05,5.5887e-06,0
-2.89007e-05,1.14578e-05,-1.05621e-05,-4.8851e-06,2.35522e-05,-1.0485e-05,-7.20738e-07,7.14245e-06,0
-2.9235e-05,1.06783e-05,-1.22938e-05,-1.28259e-05,2.20282e-05,-1.05756e-05,1.22967e-05,7.38268e-06,0
-3.1222e-05,9.22633e-06,-1.37374e-05,-2.10063e-05,2.12996e-05,-1.01195e-05,2.37381e-05,5.79683e-06,0
-3.38087e-05,1.02998e-05,-1.25555e-05,-2.87176e-05,2.12474e-05,-8.94486e-06,3.01902e-05,3.95216e-06,0
-3.47106e-05,1.40532e-05,-9.19425e-06,-3.39182e-05,2.04565e-05,-6.86353e-06,3.16122e-05,3.02961e-06,0
-3.2958e-05,1.68994e-05,-6.62115e-06,-3.24502e-05,1.85097e-05,-5.94903e-06,2.94951e-05,2.93216e-06,0
-3.13282e-05,1.54389e-05,-5.02547e-06,-2.32166e-05,1.65872e-05,-6.96904e-06,2.69988e-05,2.68192e-06,0
-3.26832e-05,1.04641e-05,-4.15518e-06,-8.13608e-06,1.62475e-05,-8.62547e-06,2.73264e-05,1.97017e-06,0
-3.56462e-05,5.0019e-06,-4.6314e-06,8.08376e-06,1.69237e-05,-8.98807e-06,2.99322e-05,1.61941e-06,0
-3.67252e-05,1.56092e-06,-6.04437e-06,2.06291e-05,1.63242e-05,-7.6412e-06,3.20047e-05,2.54167e-06,0
-3.54134e-05,1.12615e-06,-7.09373e-06,2.80228e-05,1.32522e-05,-5.70853e-06,3.15524e-05,4.97166e-06,0
-3.35864e-05,2.89262e-06,-8.75689e-06,3.03647e-05,1.00377e-05,-4.74164e-06,2.91142e-05,7.49605e-06,0
-3.30621e-05,3.43477e-06,-1.20232e-05,2.63953e-05,8.94681e-06,-5.25018e-06,2.45384e-05,7.01578e-06,0
-3.44451e-05,1.97905e-06,-1.54272e-05,1.77005e-05,9.30841e-06,-5.85178e-06,1.8077e-05,2.91945e-06,0
-3.61355e-05,4.31559e-07,-1.7105e-05,9.74329e-06,1.05552e-05,-5.59697e-06,1.12549e-05,-1.30855e-06,0
-3.59027e-05,-5.50387e-07,-1.62808e-05,6.00832e-06,1.11245e-05,-4.9947e-06,6.47196e-06,-3.28779e-06,0
-3.36747e-05,-2.39851e-07,-1.37567e-05,5.87307e-06,8.78785e-06,-5.15257e-06,4.78579e-06,-3.7189e-06,0
-3.05339e-05,4.25544e-07,-1.08353e-05,6.8491e-06,4.26193e-06,-5.83919e-06,4.25332e-06,-3.51913e-06,0
-2.80216e-05,1.3085e-06,-4.57445e-06,5.57461e-06,5.60918e-07,-5.61165e-06,3.25646e-06,-3.52621e-06,0
-2.66407e-05,3.03647e-06,7.00326e-06,2.03505e-06,-5.30448e-07,-5.33833e-06,1.6303e-06,-2.98033e-06,0
-2.44495e-05,3.71137e-06,2.03315e-05,-4.52957e-07,-7.4594e-07,-5.66531e-06,-7.03402e-08,-2.22238e-06,0
-2.29764e-05,4.28906e-06,3.42362e-05,-1.90046e-06,-1.02695e-06,-5.85046e-06,-1.46181e-06,-2.42867e-06,0
-2.46592e-05,6.12496e-06,4.58013e-05,-3.51235e-06,1.11978e-07,-6.73638e-06,-2.39027e-06,-2.19845e-06,0
-2.81522e-05,7.01186e-06,4.659e-05,-6.75106e-06,3.68092e-06,-8.09909e-06,6.38652e-07,-1.10959e-06,0
-3.02381e-05,7.78857e-06,3.40718e-05,-1.08835e-05,5.40225e-06,-7.32349e-06,2.98922e-06,-5.67626e-07,0
-2.81625e-05,1.15446e-05,7.1407e-06,-1.30793e-05,2.97137e-06,-5.78474e-06,-5.77918e-06,-4.09986e-07,0
-2.54222e-05,1.63696e-05,-2.69088e-05,-1.46504e-05,1.22703e-06,-6.20657e-06,-2.30737e-05,9.44748e-08,0
-2.50634e-05,1.84183e-05,-5.73566e-05,-1.74652e-05,2.95288e-06,-7.61942e-06,-3.34881e-05,2.18246e-06,0
-2.62809e-05,1.74236e-05,-7.69485e-05,-2.0545e-05,5.80068e-06,-8.74438e-06,-2.76184e-05,5.49175e-06,0
-2.77604e-05,1.4922e-05,-8.08617e-05,-2.16641e-05,5.98008e-06,-7.90935e-06,-7.76453e-06,6.54982e-06,0
-2.86824e-05,1.34132e-05,-7.15282e-05,-1.99378e-05,5.13481e-06,-7.76071e-06,1.57435e-05,4.40289e-06,0
-2.87529e-05,1.41054e-05,-5.49615e-05,-1.72649e-05,3.94222e-06,-9.35419e-06,3.21174e-05,1.58019e-06,0
-2.76405e-05,1.51708e-05,-3.91934e-05,-1.57978e-05,3.07764e-06,-9.99923e-06,3.8561e-05,-4.62624e-08,0
-2.61314e-05,1.50153e-05,-2.73253e-05,-1.4131e-05,3.20857e-06,-9.17224e-06,3.59029e-05,-8.34616e-07,0
-2.47585e-05,1.47368e-05,-1.81362e-05,-1.0872e-05,2.9219e-06,-7.62965e-06,2.74696e-05,-1.4542e-06,0
-2.41524e-05,1.54729e-05,-1.01801e-05,-7.20291e-06,3.12665e-06,-5.42871e-06,1.86022e-05,-3.00221e-06,0
-2.43907e-05,1.65012e-05,-4.47993e-06,-5.82797e-06,4.6713e-06,-2.79878e-06,1.39669e-05,-3.87273e-06,0
-2.48293e-05,1.63773e-05,-1.34159e-06,-6.75615e-06,6.74571e-06,-1.85626e-06,1.2541e-05,-3.03703e-06,0
-2.5247e-05,1.5201e-05,-1.72637e-06,-8.4358e-06,8.16205e-06,-1.70603e-06,1.26855e-05,-2.51559e-06,0
-2.55363e-05,1.26677e-05,-4.98966e-06,-9.20074e-06,8.93351e-06,-7.05342e-07,1.49086e-05,-3.20447e-06,0
-2.52323e-05,1.07989e-05,-9.16327e-06,-6.43543e-06,1.0244e-05,-5.56281e-07,1.92405e-05,-4.19628e-06,0
-2.58985e-05,1.27018e-05,-1.13476e-05,-1.18682e-06,1.29036e-05,-1.66985e-06,2.40324e-05,-4.64225e-06,0
-2.70279e-05,1.59971e-05,-1.19325e-05,3.43733e-06,1.37884e-05,-1.33014e-06,2.69227e-05,-5.19684e-06,0
-2.61589e-05,1.82228e-05,-1.25472e-05,4.74495e-06,1.26017e-05,1.10537e-06,2.54663e-05,-5.97203e-06,0
-2.41889e-05,1.88555e-05,-1.09228e-05,1.79322e-06,1.09091e-05,3.09467e-06,1.41041e-05,-7.08177e-06,0
-2.38507e-05,1.72682e-05,-6.5842e-06,-3.9246e-06,9.11821e-06,3.26539e-06,-6.02106e-06,-7.91856e-06,0
-2.54903e-05,1.58811e-05,-1.91139e-06,-1.09013e-05,7.49243e-06,2.30884e-06,-2.23098e-05,-7.18754e-06,0
-2.68885e-05,1.8098e-05,2.56883e-07,-1.66401e-05,7.81876e-06,-4.21581e-07,-2.19188e-05,-6.14406e-06,0
-2.83489e-05,2.02306e-05,8.44099e-07,-1.87122e-05,7.84864e-06,-2.75066e-06,-1.12115e-05,-5.49544e-06,0
-2.89841e-05,1.96442e-05,7.17427e-07,-2.08508e-05,6.37953e-06,-2.32195e-06,-7.61983e-07,-5.43829e-06,0
-2.79486e-05,1.91889e-05,2.79515e-07,-2.23068e-05,7.03576e-06,-2.8349e-06,9.65295e-06,-6.30227e-06,0
-2.76591e-05,1.92527e-05,1.61962e-06,-2.12095e-05,9.49885e-06,-4.11084e-06,1.76361e-05,-5.92478e-06,0
-2.76213e-05,2.03742e-05,3.68789e-06,-1.9392e-05,1.1114e-05,-5.51871e-06,2.40721e-05,-4.56638e-06,0
-2.71822e-05,2.17073e-05,4.41921e-06,-1.50556e-05,9.14681e-06,-6.36199e-06,2.71293e-05,-4.79674e-06,0
-2.79894e-05,2.21503e-05,3.27224e-06,-8.06133e-06,6.96696e-06,-4.55214e-06,2.70742e-05,-6.33255e-06,0
-2.9873e-05,2.21804e-05,2.35211e-06,8.99916e-07,7.32923e-06,-3.11915e-06,2.64246e-05,-7.72063e-06,0
-3.1337e-05,2.12596e-05,2.4959e-06,1.06633e-05,9.61731e-06,-3.37847e-06,2.51868e-05,-8.50311e-06,0
-3.2146e-05,2.08023e-05,1.49686e-06,1.68164e-05,1.29432e-05,-3.47198e-06,2.33835e-05,-8.88496e-06,0
-3.17886e-05,2.09157e-05,-3.13131e-07,1.55343e-05,1.45113e-05,-2.46964e-06,2.15034e-05,-8.46631e-06,0
-3.04102e-05,1.98822e-05,-1.22172e-06,9.01733e-06,1.35258e-05,-1.36157e-06,2.12082e-05,-7.07486e-06,0
-2.97621e-05,1.83383e-05,-1.25576e-06,3.01984e-06,1.14815e-05,-8.77899e-07,2.32485e-05,-5.37874e-06,0
-3.09828e-05,1.82054e-05,-2.70689e-06,-3.63181e-07,9.96689e-06,-1.75727e-06,2.72488e-05,-4.12437e-06,0
-3.34403e-05,1.94357e-05,-4.81955e-06,-2.6839e-06,9.40604e-06,-1.9815e-06,3.02175e-05,-4.32536e-06,0
-3.4717e-05,2.06814e-05,-4.97325e-06,-4.23239e-06,1.02528e-05,6.26709e-07,3.02322e-05,-4.35401e-06,0
-3.40039e-05,2.16709e-05,-2.55134e-06,-4.9307e-06,1.30859e-05,3.2026e-06,2.66806e-05,-3.31533e-06,0
-3.36025e-05,2.24866e-05,-4.74768e-07,-6.59634e-06,1.61316e-05,2.36391e-06,2.20831e-05,-2.62351e-06,0
-3.46389e-05,2.17551e-05,-9.77182e-07,-9.94266e-06,1.72514e-05,-1.38295e-06,1.83214e-05,-2.80166e-06,0
-3.57243e-05,1.90331e-05,-3.32979e-06,-1.27388e-05,1.71374e-05,-5.13221e-06,1.52514e-05,-2.65456e-06,0
-3.61711e-05,1.74064e-05,-4.98948e-06,-1.23156e-05,1.70829e-05,-6.13012e-06,1.21295e-05,-1.49671e-06,0
-3.63574e-05,1.82065e-05,-4.70637e-06,-7.94791e-06,1.68407e-05,-5.16244e-06,1.11847e-05,-6.04757e-07,0
-3.63216e-05,2.07161e-05,-2.0506e-06,-4.3057e-06,1.59001e-05,-5.47787e-06,1.08968e-05,-4.71763e-08,0
-3.48564e-05,2.31036e-05,1.60499e-06,-4.3415e-06,1.56448e-05,-6.2179e-06,8.58419e-06,2.54733e-07,0
-3.31617e-05,2.38102e-05,2.33991e-06,-5.57515e-06,1.73686e-05,-6.35547e-06,6.01071e-06,-9.3673e-07,0
-3.27179e-05,2.39888e-05,-1.63293e-06,-6.76904e-06,2.00174e-05,-6.80468e-06,6.98485e-06,-1.64196e-06,0
-3.30013e-05,2.32259e-05,-7.79569e-06,-6.71032e-06,2.08079e-05,-8.65629e-06,9.82037e-06,1.35761e-06,0
-3.33618e-05,2.08213e-05,-1.18626e-05,-5.41507e-06,1.96208e-05,-9.56233e-06,1.10557e-05,4.05769e-06,0
-3.38937e-05,1.74231e-05,-1.27076e-05,-4.15758e-06,1.96732e-05,-8.40014e-06,1.07104e-05,3.91036e-06,0
-3.39126e-05,1.47438e-05,-1.15473e-05,-3.65473e-06,1.98806e-05,-9.13623e-06,8.97111e-06,3.73529e-06,0
-3.29786e-05,1.43379e-05,-9.30254e-06,-3.41005e-06,1.8073e-05,-1.03912e-05,7.61133e-06,3.46576e-06,0
-3.27143e-05,1.54395e-05,-5.00049e-06,-2.0458e-06,1.44655e-05,-9.25861e-06,7.57023e-06,3.21963e-06,0
-3.31494e-05,1.60196e-05,-9.09266e-07,-1.64668e-06,1.13879e-05,-7.93983e-06,8.60431e-06,4.8257e-06,0
-3.38163e-05,1.58892e-05,2.79086e-06,-3.94339e-06,1.01827e-05,-8.61977e-06,1.00285e-05,7.9466e-06,0
-3.31737e-05,1.72627e-05,9.62404e-06,-7.57727e-06,9.69109e-06,-1.00147e-05,1.27559e-05,1.03815e-05,0
-3.1376e-05,1.90424e-05,1.99059e-05,-9.29376e-06,8.97731e-06,-1.00616e-05,1.47348e-05,1.09268e-05,0
-3.07206e-05,1.93002e-05,2.97888e-05,-7.39878e-06,7.13796e-06,-9.05835e-06,1.42215e-05,1.0059e-05,0
-3.09562e-05,1.78333e-05,3.48281e-05,-4.62401e-06,4.88699e-06,-9.47168e-06,1.18547e-05,9.11499e-06,0
-3.0914e-05,1.60881e-05,3.20757e-05,-3.52243e-06,4.3293e-06,-1.13577e-05,9.35435e-06,7.99747e-06,0
-3.13756e-05,1.5493e-05,1.92926e-05,-3.3975e-06,6.23663e-06,-1.20653e-05,7.38927e-06,6.96019e-06,0
-3.3506e-05,1.45423e-05,-1.71578e-06,-3.19199e-06,8.57059e-06,-1.09584e-05,7.15789e-06,6.01652e-06,0
-3.58919e-05,1.30026e-05,-2.49327e-05,-2.85409e-06,1.03669e-05,-9.31943e-06,8.6093e-06,5.12821e-06,0
-3.64139e-05,1.24428e-05,-4.23179e-05,-2.38353e-06,1.16251e-05,-8.53655e-06,9.49562e-06,5.9782e-06,0
-3.52855e-05,1.2983e-05,-4.83887e-05,-2.11333e-06,1.25066e-05,-8.62599e-06,9.52338e-06,8.7498e-06,0
-3.38412e-05,1.3182e-05,-4.44505e-05,2.21742e-07,1.3406e-05,-8.29502e-06,9.67912e-06,1.14255e-05,0
-3.26245e-05,1.26312e-05,-3.703e-05,4.99017e-06,1.4035e-05,-6.862e-06,1.01036e-05,1.09272e-05,0
-3.3052e-05,1.12704e-05,-3.25792e-05,8.32491e-06,1.37919e-05,-5.2539e-06,1.15391e-05,7.64029e-06,0
-3.46869e-05,1.01678e-05,-3.48105e-05,7.0031e-06,1.31014e-05,-4.92112e-06,1.38908e-05,5.2606e-06,0
-3.58253e-05,1.13734e-05,-4.19354e-05,1.80478e-06,1.36557e-05,-6.60328e-06,1.45535e-05,5.9344e-06,0
-3.69048e-05,1.38385e-05,-4.50933e-05,-3.66026e-06,1.53246e-05,-8.66668e-06,1.40594e-05,7.85182e-06,0
-3.63027e-05,1.37456e-05,-3.94554e-05,-9.00378e-06,1.70555e-05,-1.08707e-05,1.45289e-05,8.87248e-06,0
-3.36842e-05,1.19862e-05,-3.00387e-05,-1.40353e-05,1.88085e-05,-1.22897e-05,1.58536e-05,9.21177e-06,0
-3.05778e-05,1.10389e-05,-2.08555e-05,-1.92689e-05,1.9782e-05,-1.03112e-05,1.7115e-05,8.97559e-06,0
-2.83398e-05,8.96717e-06,-1.34668e-05,-2.22498e-05,1.96914e-05,-8.25968e-06,1.72942e-05,8.30532e-06,0
-2.89153e-05,5.78586e-06,-8.86501e-06,-1.79617e-05,1.88455e-05,-8.25284e-06,1.69922e-05,7.17146e-06,0
-2.97312e-05,3.76727e-06,-6.68729e-06,-8.81402e-06,1.87734e-05,-7.2355e-06,1.7338e-05,5.53372e-06,0
-2.87064e-05,3.27755e-06,-6.68526e-06,1.13064e-06,2.1647e-05,-7.2063e-06,1.7705e-05,4.53764e-06,0
-2.85115e-05,3.28229e-06,-8.29779e-06,7.99466e-06,2.51589e-05,-9.40505e-06,1.87239e-05,5.01722e-06,0
-2.87933e-05,3.1695e-06,-9.2247e-06,9.39988e-06,2.65202e-05,-1.11022e-05,1.96272e-05,4.51149e-06,0
-2.90365e-05,3.892e-06,-8.75724e-06,7.1946e-06,2.77874e-05,-1.1939e-05,2.002e-05,1.34742e-06,0
-3.05259e-05,5.03666e-06,-8.09383e-06,4.98544e-06,3.01038e-05,-1.22668e-05,1.94688e-05,-6.77543e-07,0
-3.05128e-05,5.14976e-06,-7.57662e-06,1.79331e-06,3.05313e-05,-1.41761e-05,1.94647e-05,7.58771e-07,0
-2.83436e-05,4.80647e-06,-7.41571e-06,-2.2066e-06,2.75778e-05,-1.72595e-05,1.93531e-05,3.3864e-06,0
-2.68485e-05,3.6787e-06,-7.5081e-06,-5.92558e-07,2.38156e-05,-1.81431e-05,1.72578e-05,5.08822e-06,0
-2.72214e-05,3.40293e-06,-8.60331e-06,1.08026e-05,2.18073e-05,-1.7538e-05,1.46736e-05,6.49737e-06,0
-2.82197e-05,5.5689e-06,-9.73449e-06,2.49598e-05,2.06427e-05,-1.85255e-05,1.17364e-05,6.64765e-06,0
-2.91484e-05,9.27268e-06,-9.58202e-06,2.94389e-05,1.95326e-05,-2.09267e-05,8.49457e-06,4.8997e-06,0
-3.00447e-05,1.13713e-05,-7.39153e-06,2.1247e-05,1.86329e-05,-2.31871e-05,6.69826e-06,3.11106e-06,0
-2.99829e-05,1.05007e-05,-4.11473e-06,6.19366e-06,1.8743e-05,-2.47386e-05,7.95335e-06,2.49485e-06,0
-2.84118e-05,8.3388e-06,-1.13344e-06,-7.19732e-06,2.02312e-05,-2.50876e-05,9.38521e-06,2.33909e-06,0
-2.59722e-05,5.40354e-06,4.66218e-07,-1.49943e-05,2.18724e-05,-2.39706e-05,8.72708e-06,1.63645e-06,0
-2.51526e-05,3.13349e-06,2.4644e-07,-1.84788e-05,2.22778e-05,-2.1629e-05,7.58674e-06,9.36883e-07,0
-2.77641e-05,2.44913e-06,-8.34707e-07,-2.0465e-05,2.14553e-05,-1.79607e-05,9.43899e-06,1.48207e-07,0
-3.20087e-05,2.42705e-06,-1.55956e-06,-2.33808e-05,1.9389e-05,-1.27829e-05,1.27189e-05,-1.46127e-06,0
-3.45703e-05,2.23119e-06,-2.80761e-07,-3.13661e-05,1.7878e-05,-8.63454e-06,1.41704e-05,-3.82832e-06,0
-3.43083e-05,9.79452e-07,2.21543e-06,-4.20512e-05,1.93353e-05,-8.66441e-06,1.37484e-05,-5.28443e-06,0
-3.23738e-05,-1.00589e-06,4.04043e-06,-4.54227e-05,2.11524e-05,-1.09423e-05,1.19358e-05,-4.44823e-06,0
-3.05075e-05,-4.71302e-07,5.10191e-06,-3.90951e-05,2.06167e-05,-1.16231e-05,1.11856e-05,-2.59221e-06,0
-2.96841e-05,2.7498e-06,5.28792e-06,-2.66017e-05,1.75416e-05,-1.11028e-05,1.20352e-05,-2.45279e-06,0
-3.05463e-05,5.72707e-06,3.49401e-06,-1.41648e-05,1.5277e-05,-1.17394e-05,1.25404e-05,-3.25748e-06,0
-2.99345e-05,6.26264e-06,1.36646e-06,-9.62359e-06,1.51379e-05,-1.19295e-05,1.48599e-05,-4.09082e-06,0
-2.85103e-05,5.89874e-06,-9.33908e-07,-9.91456e-06,1.31916e-05,-1.09802e-05,1.96049e-05,-4.76133e-06,0
-2.94728e-05,5.39784e-06,-2.62333e-06,-1.16889e-05,9.12955e-06,-1.12761e-05,2.56688e-05,-3.19854e-06,0
-3.10565e-05,3.72053e-06,-2.03275e-06,-1.33142e-05,7.50963e-06,-1.12395e-05,3.26852e-05,-1.42124e-06,0
-3.27943e-05,2.94911e-06,-3.14747e-06,-1.26541e-05,9.68786e-06,-1.04388e-05,3.87488e-05,-1.32851e-06,0
-3.27557e-05,4.48582e-06,-6.30246e-06,-1.22256e-05,1.31814e-05,-9.48868e-06,4.35839e-05,-1.09582e-06,0
-3.026e-05,8.74824e-06,-7.57874e-06,-1.20293e-05,1.55033e-05,-7.96789e-06,4.44069e-05,-1.32486e-06,0
-2.78634e-05,1.59858e-05,-5.66855e-06,-1.16613e-05,1.5919e-05,-8.02051e-06,3.93997e-05,-9.44891e-07,0
-2.75501e-05,2.23421e-05,-2.33254e-06,-8.69044e-06,1.50512e-05,-9.92326e-06,3.20951e-05,-7.24753e-07,0
-2.79843e-05,2.47844e-05,-3.735e-07,-5.07653e-06,1.36804e-05,-1.15337e-05,2.33444e-05,-2.00765e-06,0
-2.80028e-05,2.54177e-05,-8.93522e-07,-3.68147e-06,1.37694e-05,-1.25824e-05,9.69201e-06,-2.9425e-06,0
-2.72974e-05,2.6382e-05,-2.02233e-06,-4.91756e-06,1.47235e-05,-1.3022e-05,-7.44417e-06,-2.48418e-06,0
-2.61166e-05,2.66041e-05,-1.73741e-06,-6.4419e-06,1.49137e-05,-1.30608e-05,-2.25477e-05,-2.63014e-06,0
-2.65309e-05,2.54278e-05,-1.00558e-06,-6.48522e-06,1.36676e-05,-1.36554e-05,-3.03709e-05,-3.86364e-06,0
-2.84994e-05,2.46043e-05,-9.64439e-07,-6.13627e-06,1.26279e-05,-1.4728e-05,-2.6271e-05,-4.08468e-06,0
-2.99898e-05,2.36865e-05,-2.37814e-06,-5.45037e-06,1.41147e-05,-1.51356e-05,-1.0765e-05,-3.47622e-06,0
-2.86628e-05,2.10365e-05,-4.18498e-06,-4.4388e-06,1.7673e-05,-1.30421e-05,7.21383e-06,-3.39524e-06,0
-2.6498e-05,1.89543e-05,-4.28321e-06,-3.37895e-06,2.11226e-05,-9.18757e-06,1.90066e-05,-5.01161e-06,0
-2.57701e-05,2.0252e-05,-3.63249e-06,-2.58423e-06,2.26755e-05,-6.79793e-06,2.36243e-05,-6.09419e-06,0
-2.60142e-05,2.28097e-05,-4.14086e-06,-4.06608e-08,2.22628e-05,-7.51005e-06,2.38964e-05,-5.40396e-06,0
-2.61701e-05,2.41277e-05,-3.76487e-06,4.30157e-06,2.06614e-05,-9.38282e-06,2.27953e-05,-3.25193e-06,0
-2.61727e-05,2.37285e-05,-2.34474e-06,6.9137e-06,1.83497e-05,-1.07023e-05,2.03909e-05,-1.73122e-06,0
-2.70793e-05,2.17265e-05,-1.43873e-06,5.95517e-06,1.45692e-05,-1.20137e-05,1.48854e-05,-1.9227e-06,0
-2.85351e-05,1.80263e-05,-2.29495e-06,4.49659e-06,1.14035e-05,-1.35138e-05,5.31359e-06,-2.60189e-06,0
-2.95922e-05,1.48613e-05,-6.05445e-06,4.3921e-06,1.10455e-05,-1.42218e-05,-7.4855e-06,-1.3726e-06,0
-2.93546e-05,1.5289e-05,-9.91509e-06,6.27286e-06,1.03645e-05,-1.34112e-05,-2.19204e-05,9.1837e-07,0
-2.89529e-05,1.61375e-05,-1.20016e-05,6.77136e-06,7.24091e-06,-1.23177e-05,-3.37881e-05,2.72352e-06,0
-3.01538e-05,1.2641e-05,-1.38669e-05,3.73111e-06,5.00984e-06,-1.28586e-05,-3.54863e-05,3.78184e-06,0
-3.07722e-05,8.43891e-06,-1.47576e-05,6.0046e-07,4.32173e-06,-1.36276e-05,-2.74786e-05,3.73145e-06,0
-3.01583e-05,6.04372e-06,-1.10609e-05,-9.35474e-07,3.17147e-06,-1.28082e-05,-1.68946e-05,4.42813e-06,0
-2.97968e-05,5.6209e-06,-6.10599e-06,-2.14768e-06,8.84075e-07,-1.39162e-05,-8.50112e-06,5.71613e-06,0
-3.01318e-05,7.36581e-06,-5.67007e-06,-3.17869e-06,-2.46567e-06,-1.73101e-05,-2.53408e-06,6.79632e-06,0
-3.12025e-05,8.89849e-06,-9.93027e-06,-3.87617e-06,-5.18744e-06,-1.8413e-05,4.97496e-06,7.47828e-06,0
-3.20877e-05,8.86178e-06,-1.68602e-05,-2.65044e-06,-4.09147e-06,-1.63807e-05,1.31718e-05,9.50237e-06,0
-3.20418e-05,5.68066e-06,-2.62574e-05,4.45194e-07,-2.29818e-07,-1.42933e-05,1.53448e-05,1.11745e-05,0
-3.06641e-05,1.17155e-06,-3.5503e-05,1.76085e-06,1.1981e-06,-1.51457e-05,1.3128e-05,1.10071e-05,0
-2.89049e-05,-1.4207e-06,-4.15932e-05,2.39097e-06,1.05042e-06,-1.67934e-05,1.33508e-05,1.00536e-05,0
-2.88974e-05,-6.09806e-07,-4.35481e-05,1.54805e-06,2.75111e-06,-1.68366e-05,1.63762e-05,8.96823e-06,0
-3.02952e-05,1.98036e-06,-3.90545e-05,-2.35264e-06,5.13439e-06,-1.67923e-05,2.11087e-05,8.03277e-06,0
-2.99842e-05,4.6431e-06,-2.84047e-05,-6.71727e-06,5.68225e-06,-1.66535e-05,2.49662e-05,7.66988e-06,0
-2.90713e-05,7.64188e-06,-1.66209e-05,-8.19035e-06,5.61293e-06,-1.52469e-05,2.51586e-05,7.71408e-06,0
-2.87724e-05,1.10385e-05,-8.94171e-06,-8.38617e-06,7.38775e-06,-1.36497e-05,2.17192e-05,7.31406e-06,0
-2.81266e-05,1.326e-05,-4.38958e-06,-1.01791e-05,1.04207e-05,-1.33244e-05,1.88365e-05,7.4025e-06,0
-2.80989e-05,1.29072e-05,-9.45957e-07,-1.23469e-05,1.25087e-05,-1.2495e-05,2.00927e-05,8.08411e-06,0
-2.98797e-05,1.15318e-05,6.27589e-07,-1.27938e-05,1.27638e-05,-1.14209e-05,2.38611e-05,8.65181e-06,0
-3.22681e-05,1.09212e-05,-5.65007e-07,-1.22578e-05,1.18806e-05,-1.19255e-05,2.68443e-05,7.25204e-06,0
-3.43896e-05,1.03645e-05,-3.95542e-06,-1.27829e-05,1.00909e-05,-1.24026e-05,2.72784e-05,4.88444e-06,0
-3.56219e-05,9.15303e-06,-8.788e-06,-1.49152e-05,7.08797e-06,-1.1062e-05,2.72569e-05,3.24095e-06,0
-3.49586e-05,8.47718e-06,-1.48258e-05,-1.64575e-05,3.28919e-06,-9.23303e-06,3.02101e-05,2.62241e-06,0
-3.37591e-05,8.67908e-06,-1.98374e-05,-1.34283e-05,2.08158e-06,-8.44421e-06,3.55496e-05,1.58341e-06,0
-3.28308e-05,9.12596e-06,-1.90365e-05,-6.47113e-06,7.0735e-06,-6.59242e-06,3.96633e-05,-3.95298e-07,0
-3.06929e-05,1.08606e-05,-1.35198e-05,5.5183e-08,1.61494e-05,-5.20202e-06,3.96646e-05,3.41508e-07,0
-2.89394e-05,1.31864e-05,-9.1766e-06,2.80038e-06,2.51832e-05,-6.39144e-06,3.25795e-05,2.86766e-06,0
-2.99307e-05,1.46928e-05,-7.30067e-06,5.72543e-07,2.61445e-05,-7.2219e-06,1.85405e-05,4.37865e-06,0
-3.0407e-05,1.48657e-05,-6.75631e-06,-7.03687e-06,1.77357e-05,-7.47431e-06,6.81524e-06,5.44158e-06,0
-2.88231e-05,1.36557e-05,-6.31766e-06,-1.82903e-05,1.0035e-05,-7.35353e-06,4.49435e-06,4.82577e-06,0
-2.7911e-05,1.26361e-05,-6.04073e-06,-2.80313e-05,7.80977e-06,-7.37498e-06,1.07406e-05,3.15181e-06,0
-2.93175e-05,1.17581e-05,-6.40999e-06,-3.09848e-05,1.07296e-05,-9.98674e-06,1.87523e-05,2.21725e-06,0
-3.11261e-05,1.09084e-05,-8.14233e-06,-2.47817e-05,1.60231e-05,-1.22747e-05,2.33413e-05,8.58412e-07,0
-3.18237e-05,8.03558e-06,-1.17263e-05,-1.26357e-05,1.92666e-05,-1.27497e-05,2.8885e-05,-2.00695e-06,0
-3.18589e-05,4.07882e-06,-1.60042e-05,-1.13744e-06,1.9142e-05,-1.27846e-05,3.27444e-05,-4.17644e-06,0
-3.20232e-05,1.72547e-06,-1.83398e-05,8.55568e-06,1.9656e-05,-1.19456e-05,3.19133e-05,-4.28276e-06,0
-3.1577e-05,1.72454e-06,-1.73002e-05,1.72193e-05,2.0658e-05,-1.0485e-05,2.7404e-05,-4.132e-06,0
-3.09558e-05,3.33427e-06,-1.48567e-05,2.31842e-05,1.99189e-05,-8.12364e-06,2.14452e-05,-3.74473e-06,0
-3.14351e-05,5.68812e-06,-1.39743e-05,2.21794e-05,1.77385e-05,-5.8078e-06,1.54113e-05,-2.71994e-06,0
-3.34684e-05,6.91195e-06,-1.53722e-05,1.42663e-05,1.6035e-05,-4.31469e-06,1.16782e-05,-1.5965e-06,0
-3.48957e-05,6.63083e-06,-1.62225e-05,6.21927e-06,1.62144e-05,-4.07016e-06,1.06907e-05,-1.28419e-06,0
-3.51873e-05,7.28334e-06,-1.51698e-05,3.18516e-06,1.68963e-05,-4.82657e-06,9.3899e-06,-9.08932e-07,0
-3.53188e-05,9.12297e-06,-1.30624e-05,4.5846e-06,1.70081e-05,-5.62517e-06,7.24189e-06,-2.74271e-07,0
-3.47846e-05,1.17711e-05,-1.01877e-05,7.02072e-06,1.74013e-05,-6.06331e-06,4.10028e-06,3.72255e-07,0
-3.37489e-05,1.56227e-05,-6.99405e-06,9.54082e-06,1.8589e-05,-6.4835e-06,1.38279e-07,8.25706e-07,0
-3.21761e-05,1.91739e-05,-5.58759e-06,1.188e-05,1.87713e-05,-7.16544e-06,-5.30448e-06,8.46161e-07,0
-3.16666e-05,1.93948e-05,-7.03916e-06,1.4175e-05,1.86835e-05,-8.28915e-06,-8.80205e-06,1.36408e-06,0
-3.23444e-05,1.81099e-05,-9.04304e-06,1.48422e-05,1.98221e-05,-9.94153e-06,-9.00063e-06,3.53812e-06,0
-3.24952e-05,1.60124e-05,-9.37971e-06,1.14104e-05,2.09246e-05,-1.07731e-05,-5.7821e-06,6.23449e-06,0
-3.07782e-05,1.32493e-05,-8.02549e-06,3.22616e-06,1.90455e-05,-1.1331e-05,6.47243e-07,6.26185e-06,0
-2.8411e-05,1.1432e-05,-6.21344e-06,-4.70622e-06,1.5835e-05,-1.06006e-05,8.82111e-06,4.01815e-06,0
-2.67274e-05,1.03022e-05,-4.97811e-06,-8.94306e-06,1.3272e-05,-7.99639e-06,1.49228e-05,3.26696e-06,0
-2.53946e-05,9.1467e-06,-5.40773e-06,-9.44901e-06,1.13666e-05,-6.61771e-06,1.66119e-05,4.9074e-06,0
-2.48582e-05,9.58655e-06,-5.79432e-06,-4.90096e-06,1.08519e-05,-7.38395e-06,1.60278e-05,4.24983e-06,0
-2.56699e-05,1.21841e-05,-4.13421e-06,2.38823e-06,9.17725e-06,-9.4639e-06,1.42366e-05,5.44294e-07,0
-2.50417e-05,1.33019e-05,-1.40286e-06,5.93763e-06,4.42523e-06,-1.14032e-05,9.08415e-06,-1.58772e-06,0
-2.53354e-05,1.30442e-05,-1.17207e-06,2.57197e-06,3.69525e-07,-1.14046e-05,1.74807e-06,-2.44188e-06,0
-2.6632e-05,1.42559e-05,-2.83587e-06,-2.26338e-06,-6.77283e-07,-1.00508e-05,-2.61681e-06,-3.90134e-06,0
-2.6154e-05,1.48167e-05,-3.35979e-06,-3.16145e-06,1.01169e-06,-9.18036e-06,-3.48158e-06,-4.15176e-06,0
-2.58955e-05,1.59479e-05,-3.91136e-06,-4.36601e-07,4.21442e-06,-8.73452e-06,-2.83821e-06,-4.06582e-06,0
-2.63709e-05,1.77605e-05,-3.29307e-06,1.82273e-06,6.83632e-06,-7.45002e-06,-5.3603e-07,-3.84308e-06,0
-2.78735e-05,1.99258e-05,-2.14544e-06,2.0577e-06,8.83405e-06,-5.68014e-06,3.51366e-06,-2.71176e-06,0
-2.9264e-05,2.20185e-05,-1.48322e-06,-2.067e-07,9.82716e-06,-4.12481e-06,6.31469e-06,-1.77839e-06,0
-2.90872e-05,2.24213e-05,-9.38599e-07,-3.20022e-06,9.05307e-06,-2.93834e-06,6.39725e-06,-1.65731e-06,0
-2.83912e-05,2.39325e-05,-9.57871e-07,-2.61605e-06,9.90224e-06,-1.73682e-06,5.16779e-06,-2.67517e-06,0
-2.86494e-05,2.62396e-05,-1.06489e-06,1.67717e-07,1.51684e-05,3.21175e-07,4.33918e-06,-2.53119e-06,0
-2.8467e-05,2.70838e-05,-8.16732e-07,1.66509e-06,2.11754e-05,1.83944e-06,6.2746e-06,-1.75568e-06,0
-2.6701e-05,2.63779e-05,1.24033e-06,1.91231e-06,2.35541e-05,1.58372e-06,1.13213e-05,-1.6941e-06,0
-2.42116e-05,2.64432e-05,3.89135e-06,1.29498e-06,2.20498e-05,1.08803e-06,1.60131e-05,-1.46509e-06,0
-2.39051e-05,2.64247e-05,4.15053e-06,-1.97872e-06,1.9161e-05,1.15896e-06,1.77574e-05,-8.99479e-07,0
-2.60422e-05,2.46667e-05,1.80546e-06,-8.24388e-06,1.51289e-05,4.63555e-07,1.77659e-05,-3.97041e-07,0
-2.86618e-05,2.23137e-05,-1.40465e-06,-1.58028e-05,1.00538e-05,-1.97116e-06,1.80138e-05,-7.95613e-07,0
-3.03029e-05,2.12589e-05,-4.5176e-06,-2.27029e-05,6.10618e-06,-4.76012e-06,2.00331e-05,-1.18335e-06,0
-3.01167e-05,2.12238e-05,-6.6395e-06,-2.7018e-05,4.3495e-06,-6.12866e-06,2.32376e-05,-7.44798e-07,0
-2.89681e-05,2.21112e-05,-7.2435e-06,-2.77969e-05,3.49367e-06,-7.07053e-06,2.3951e-05,-1.25592e-06,0
-2.84008e-05,2.28494e-05,-8.03009e-06,-2.44062e-05,3.12726e-06,-8.47022e-06,2.08734e-05,-2.57025e-06,0
-2.8592e-05,2.23404e-05,-8.42924e-06,-1.7829e-05,2.71661e-06,-9.63889e-06,1.69566e-05,-1.76856e-06,0
-2.91286e-05,2.17505e-05,-8.44064e-06,-1.27608e-05,1.7895e-06,-9.21598e-06,1.55664e-05,-1.03503e-06,0
-3.02642e-05,2.13734e-05,-8.95638e-06,-1.06059e-05,1.87956e-06,-8.44643e-06,1.53843e-05,-1.97324e-06,0
-3.18953e-05,2.10096e-05,-8.81328e-06,-8.31255e-06,4.96667e-06,-8.51035e-06,1.5795e-05,-3.65689e-06,0
-3.24923e-05,1.96168e-05,-1.0288e-05,-3.09753e-06,1.22394e-05,-8.60358e-06,1.59183e-05,-4.7684e-06,0
-3.20426e-05,1.65973e-05,-1.0814e-05,2.62835e-06,2.00914e-05,-1.08691e-05,1.44364e-05,-3.41831e-06,0
-3.31248e-05,1.36497e-05,-9.4561e-06,4.5236e-06,2.30752e-05,-1.43209e-05,1.255e-05,-1.29088e-06,0
-3.35754e-05,1.00273e-05,-9.52558e-06,1.70153e-06,1.99736e-05,-1.58832e-05,1.08237e-05,7.84488e-07,0
-3.14436e-05,5.96493e-06,-1.05588e-05,-3.47036e-06,1.72584e-05,-1.47038e-05,1.13451e-05,-2.48015e-07,0
-2.93109e-05,4.33861e-06,-1.10458e-05,-7.01082e-06,1.85291e-05,-1.29292e-05,1.36912e-05,-4.28514e-06,0
-2.91461e-05,2.99832e-06,-9.69e-06,-9.49432e-06,1.7476e-05,-1.18977e-05,1.46975e-05,-6.4465e-06,0
-2.92485e-05,1.11151e-06,-8.74243e-06,-1.10152e-05,1.38198e-05,-1.12949e-05,1.43119e-05,-6.9199e-06,0
-2.86437e-05,9.80502e-07,-8.5637e-06,-1.19198e-05,1.01433e-05,-1.1688e-05,1.35704e-05,-6.04701e-06,0
-2.90503e-05,1.97992e-06,-8.65111e-06,-1.28085e-05,8.10919e-06,-1.13501e-05,1.24558e-05,-3.83503e-06,0
-3.03044e-05,3.09498e-06,-8.83461e-06,-1.38765e-05,7.03598e-06,-9.57945e-06,1.07853e-05,-1.41879e-06,0
-3.1524e-05,2.25583e-06,-8.62937e-06,-1.737e-05,5.93849e-06,-8.08303e-06,9.68529e-06,-4.8062e-07,0
-3.18051e-05,-5.36965e-07,-8.30847e-06,-2.09799e-05,6.42142e-06,-8.143e-06,1.02424e-05,-1.21719e-07,0
-3.12639e-05,-2.66423e-06,-7.61408e-06,-2.1256e-05,7.6905e-06,-9.088e-06,1.12859e-05,-1.6287e-07,0
-3.14339e-05,-3.34332e-06,-7.24204e-06,-1.7007e-05,8.60025e-06,-9.66859e-06,1.11862e-05,-2.28484e-06,0
-3.32814e-05,-2.27771e-06,-8.227e-06,-9.18004e-06,7.99967e-06,-9.23808e-06,1.01581e-05,-5.31662e-06,0
-3.50265e-05,-9.93148e-07,-8.99244e-06,-8.20012e-07,6.97549e-06,-9.05147e-06,1.08309e-05,-7.31882e-06,0
-3.50649e-05,-1.44355e-07,-7.9045e-06,4.86878e-06,6.63709e-06,-9.07565e-06,1.35903e-05,-6.66755e-06,0
-3.36619e-05,1.64934e-06,-6.07057e-06,7.84401e-06,7.39288e-06,-7.41705e-06,1.59151e-05,-4.2364e-06,0
-3.22348e-05,5.61229e-06,-6.54663e-06,9.44674e-06,7.50743e-06,-4.94291e-06,1.67086e-05,-2.21957e-06,0
-3.13535e-05,9.85421e-06,-8.57243e-06,7.44638e-06,6.21186e-06,-3.62994e-06,1.64104e-05,-1.72455e-06,0
-2.9699e-05,1.26962e-05,-9.11408e-06,-1.19043e-06,4.38311e-06,-2.54275e-06,1.55276e-05,-1.75809e-06,0
-2.78974e-05,1.41592e-05,-8.31223e-06,-1.40047e-05,2.5779e-06,-9.72399e-07,1.46516e-05,-1.52575e-06,0
-2.76153e-05,1.6054e-05,-8.00834e-06,-2.48352e-05,4.93541e-07,-5.98282e-07,1.33589e-05,-1.3523e-06,0
-2.93253e-05,1.8083e-05,-9.27264e-06,-2.90734e-05,-1.26639e-06,-3.31304e-06,1.27177e-05,-1.27706e-06,0
-3.07937e-05,1.74999e-05,-1.04364e-05,-2.56371e-05,-6.08252e-07,-8.23762e-06,1.31545e-05,2.39435e-07,0
-3.16682e-05,1.72003e-05,-1.1548e-05,-1.95648e-05,2.54256e-06,-1.14858e-05,1.35606e-05,2.23292e-06,0
-3.29574e-05,1.85472e-05,-1.28025e-05,-1.53674e-05,7.27268e-06,-1.196e-05,1.4366e-05,3.78049e-06,0
-3.22002e-05,1.8431e-05,-1.31575e-05,-1.33888e-05,1.08374e-05,-1.17443e-05,1.46308e-05,5.04662e-06,0
-2.84845e-05,1.80512e-05,-1.29114e-05,-1.15798e-05,1.12448e-05,-1.13601e-05,1.51042e-05,4.10895e-06,0
-2.66242e-05,1.89565e-05,-1.28104e-05,-9.65683e-06,1.03369e-05,-1.05391e-05,1.72862e-05,2.94193e-06,0
-2.7064e-05,1.85954e-05,-1.10293e-05,-8.72111e-06,1.0077e-05,-9.51128e-06,1.88628e-05,2.49226e-06,0
-2.75428e-05,1.67533e-05,-7.94953e-06,-8.05631e-06,1.20825e-05,-9.95129e-06,1.63653e-05,3.80408e-06,0
-2.93258e-05,1.55245e-05,-6.09493e-06,-6.29468e-06,1.50588e-05,-1.15994e-05,1.18182e-05,5.68516e-06,0
-3.11291e-05,1.66426e-05,-5.45657e-06,-3.5552e-06,1.62753e-05,-1.14768e-05,9.37155e-06,6.21356e-06,0
-3.2193e-05,1.81316e-05,-4.36543e-06,-1.49826e-06,1.64291e-05,-1.10002e-05,9.3873e-06,6.96067e-06,0
-3.22013e-05,1.57201e-05,-2.33204e-06,3.70209e-07,1.66675e-05,-1.16977e-05,1.05689e-05,7.48371e-06,0
-3.18534e-05,1.20359e-05,-1.1243e-06,1.96164e-06,1.54072e-05,-1.32117e-05,1.21879e-05,8.68564e-06,0
-3.14786e-05,1.13588e-05,-1.77815e-06,1.31716e-06,1.2725e-05,-1.43064e-05,1.30675e-05,9.92875e-06,0
-3.09474e-05,1.30647e-05,-4.51822e-06,-2.9716e-07,1.05893e-05,-1.3862e-05,1.14171e-05,1.11564e-05,0
-3.0663e-05,1.6113e-05,-7.45006e-06,3.53697e-06,1.01838e-05,-1.22526e-05,9.97665e-06,1.08537e-05,0
-3.05965e-05,1.95503e-05,-9.78508e-06,1.63333e-05,1.117e-05,-1.08178e-05,9.9316e-06,7.7992e-06,0
-3.16578e-05,2.07106e-05,-1.30642e-05,3.07024e-05,1.2857e-05,-9.665e-06,9.21093e-06,5.35055e-06,0
-3.35356e-05,1.92456e-05,-1.63962e-05,3.43711e-05,1.5026e-05,-8.4426e-06,8.97055e-06,5.95772e-06,0
-3.4365e-05,1.87651e-05,-1.65357e-05,2.60649e-05,1.60054e-05,-7.90774e-06,1.02656e-05,6.38935e-06,0
-3.35236e-05,2.04171e-05,-1.36082e-05,1.50805e-05,1.61523e-05,-7.87075e-06,1.07423e-05,3.69922e-06,0
-3.24001e-05,2.17549e-05,-1.08602e-05,8.14571e-06,1.70545e-05,-7.63262e-06,9.16828e-06,4.64966e-07,0
-3.16512e-05,2.19243e-05,-1.05031e-05,4.2622e-06,1.92488e-05,-6.77917e-06,7.16769e-06,-1.4437e-06,0
-3.10552e-05,2.31866e-05,-1.15139e-05,6.77449e-08,2.06007e-05,-6.54065e-06,5.05817e-06,-1.38471e-06,0
-2.93728e-05,2.54104e-05,-1.13632e-05,-5.64671e-06,2.07117e-05,-7.89465e-06,4.06664e-06,-5.03723e-07,0
-2.71004e-05,2.49201e-05,-9.89188e-06,-1.09261e-05,2.06912e-05,-9.28961e-06,5.57362e-06,2.34687e-07,0
-2.64538e-05,2.13216e-05,-7.98217e-06,-1.34154e-05,2.03056e-05,-8.18945e-06,5.37212e-06,-7.98225e-07,0
-2.77105e-05,1.96456e-05,-6.37285e-06,-1.6972e-05,1.94345e-05,-6.17166e-06,-2.98665e-06,-3.29279e-06,0
-2.91759e-05,2.06946e-05,-6.38894e-06,-2.13453e-05,1.86277e-05,-6.1725e-06,-1.63086e-05,-3.43936e-06,0
-2.86371e-05,2.25432e-05,-6.67143e-06,-2.07154e-05,1.72986e-05,-7.43306e-06,-2.13635e-05,-1.50242e-06,0
-2.706e-05,2.25084e-05,-8.08882e-06,-1.45136e-05,1.66986e-05,-9.15381e-06,-1.30254e-05,-1.89646e-06,0
-2.61979e-05,1.96412e-05,-1.16959e-05,-6.80759e-06,1.64629e-05,-1.1044e-05,1.29388e-06,-2.93664e-06,0
-2.46498e-05,1.91273e-05,-1.35449e-05,-2.1081e-06,1.48867e-05,-1.22292e-05,1.52297e-05,-3.2727e-06,0
-2.31096e-05,2.21207e-05,-1.49015e-05,-1.59719e-06,1.30408e-05,-1.15148e-05,2.67675e-05,-3.42896e-06,0
-2.28895e-05,2.53832e-05,-1.47173e-05,-3.3992e-06,1.18633e-05,-8.08515e-06,3.35715e-05,-2.57672e-06,0
-2.483e-05,2.67594e-05,-1.04855e-05,-4.16739e-06,1.22253e-05,-5.13208e-06,3.44094e-05,-2.33502e-06,0
-2.63043e-05,2.64072e-05,-4.99217e-06,-5.00199e-06,1.12866e-05,-4.08718e-06,3.23327e-05,-1.9194e-06,0
-2.6849e-05,2.39074e-05,-1.53315e-07,-7.70447e-06,9.29586e-06,-3.82358e-06,3.05718e-05,-8.37225e-07,0
-2.88569e-05,2.12603e-05,3.56268e-06,-1.15862e-05,8.26066e-06,-3.31451e-06,2.90476e-05,1.1944e-07,0
-3.04374e-05,2.00365e-05,7.85388e-06,-1.6772e-05,7.65752e-06,-3.59814e-06,2.81284e-05,-2.41569e-07,0
-3.07566e-05,1.9591e-05,1.34765e-05,-2.24101e-05,8.00563e-06,-5.76907e-06,2.78895e-05,5.25799e-07,0
