ch1,ch2,ch3,ch4,ch5,ch6,ch7,ch8,class
-3.08356e-05,2.39631e-05,-1.44176e-05,-2.00644e-05,1.30421e-05,-1.01887e-05,1.3655e-05,2.94412e-06,0
-3.19167e-05,2.14211e-05,-2.01832e-05,-1.13438e-05,1.23377e-05,-1.02204e-05,1.6571e-05,1.9415e-06,0
-3.15993e-05,1.95564e-05,-2.33695e-05,-7.12818e-08,1.25266e-05,-9.39429e-06,1.89841e-05,-2.27179e-07,0
-3.12908e-05,1.87836e-05,-2.47782e-05,8.46248e-06,1.35934e-05,-7.06943e-06,1.99756e-05,-1.84081e-06,0
-3.16909e-05,1.77878e-05,-2.53187e-05,1.13078e-05,1.28447e-05,-5.06142e-06,1.94836e-05,-1.89811e-06,0
-3.17449e-05,1.61981e-05,-2.45941e-05,7.95532e-06,9.29488e-06,-5.47223e-06,1.80196e-05,-1.18849e-06,0
-3.02266e-05,1.50559e-05,-2.37577e-05,1.71139e-06,6.3083e-06,-7.18461e-06,1.63642e-05,-9.58429e-08,0
-2.76617e-05,1.5228e-05,-2.40203e-05,-9.43283e-07,3.87766e-06,-8.07742e-06,1.59056e-05,2.08331e-06,0
-2.60747e-05,1.58525e-05,-2.47248e-05,5.18064e-08,1.93709e-06,-8.59086e-06,1.70893e-05,3.21231e-06,0
-2.71305e-05,1.5565e-05,-2.4653e-05,-1.88453e-06,6.40412e-07,-9.8222e-06,1.91952e-05,1.68242e-06,0
-2.8197e-05,1.38214e-05,-2.34666e-05,-8.06606e-06,1.37405e-07,-1.11012e-05,2.07636e-05,-3.35449e-08,0
-2.77136e-05,1.33748e-05,-2.31771e-05,-1.31008e-05,2.12057e-06,-1.2672e-05,2.13903e-05,-5.06718e-07,0
-2.90736e-05,1.48431e-05,-2.37213e-05,-1.44728e-05,5.9013e-06,-1.38347e-05,2.0079e-05,1.46737e-06,0
-3.16018e-05,1.85514e-05,-2.17737e-05,-1.36193e-05,9.15415e-06,-1.49581e-05,1.65229e-05,4.399e-06,0
-3.19118e-05,2.29013e-05,-1.78772e-05,-1.22646e-05,1.14325e-05,-1.6194e-05,1.22664e-05,4.2327e-06,0
-3.0828e-05,2.36787e-05,-1.40016e-05,-1.12001e-05,1.12607e-05,-1.67991e-05,1.04445e-05,4.60191e-06,0
-3.13137e-05,2.14384e-05,-1.24452e-05,-8.38349e-06,1.18835e-05,-1.54079e-05,1.23144e-05,7.27214e-06,0
-3.1481e-05,1.76279e-05,-1.27032e-05,-3.5442e-06,1.43932e-05,-1.36796e-05,1.42613e-05,8.566e-06,0
-2.92603e-05,1.45375e-05,-1.14873e-05,1.57044e-06,1.40548e-05,-1.25687e-05,1.51379e-05,8.65124e-06,0
-2.73815e-05,1.47289e-05,-1.09037e-05,4.58496e-06,1.21336e-05,-1.05216e-05,1.50818e-05,8.04229e-06,0
-2.64825e-05,1.57344e-05,-1.16528e-05,3.32987e-06,1.06123e-05,-7.26673e-06,1.17161e-05,6.88309e-06,0
-2.76724e-05,1.5966e-05,-1.17574e-05,1.44092e-07,9.60443e-06,-5.15203e-06,-1.15458e-09,5.71358e-06,0
-2.89882e-05,1.68888e-05,-8.1042e-06,-3.21284e-06,9.91764e-06,-6.74206e-06,-1.68691e-05,3.8049e-06,0
-2.72059e-05,1.74747e-05,-2.42577e-06,-4.92384e-06,1.22372e-05,-9.17905e-06,-2.60851e-05,2.5181e-06,0
-2.50408e-05,1.56507e-05,3.50349e-07,-3.70245e-06,1.42383e-05,-1.06157e-05,-2.29972e-05,1.98765e-06,0
-2.54032e-05,1.49048e-05,-2.54196e-07,-2.99348e-06,1.36458e-05,-1.07276e-05,-1.08323e-05,1.63922e-06,0
-2.7743e-05,1.63868e-05,-1.24907e-06,-4.00726e-06,1.1517e-05,-1.02961e-05,6.36655e-06,1.95709e-06,0
-2.85303e-05,1.72715e-05,-4.71986e-07,-6.16349e-06,9.06575e-06,-1.04866e-05,2.63708e-05,2.59222e-06,0
-2.64574e-05,1.68515e-05,9.04843e-07,-8.51128e-06,8.18845e-06,-1.13604e-05,4.62644e-05,2.33758e-06,0
-2.37666e-05,1.54117e-05,2.28541e-06,-9.02649e-06,1.09052e-05,-1.19293e-05,6.08429e-05,4.54014e-07,0
-2.40632e-05,1.42444e-05,2.37572e-06,-7.13433e-06,1.55367e-05,-1.17705e-05,6.61903e-05,-1.51367e-06,0
-2.61526e-05,1.44894e-05,1.16958e-06,-3.36542e-06,1.79342e-05,-1.20321e-05,6.15644e-05,-2.20969e-06,0
-2.7139e-05,1.58192e-05,3.64562e-07,6.28124e-07,1.7198e-05,-1.30777e-05,4.90191e-05,-2.65616e-06,0
-2.66791e-05,1.69788e-05,1.88233e-06,3.2822e-06,1.47536e-05,-1.38825e-05,3.29914e-05,-3.89618e-06,0
-2.57275e-05,1.67388e-05,5.47669e-06,3.18351e-06,1.21644e-05,-1.32694e-05,1.83844e-05,-4.60962e-06,0
-2.59105e-05,1.44233e-05,7.42761e-06,7.45375e-08,1.20637e-05,-1.14837e-05,7.35076e-06,-5.17941e-06,0
-2.82476e-05,1.1619e-05,6.05276e-06,-5.36636e-06,1.54163e-05,-9.73268e-06,-8.72536e-07,-6.1381e-06,0
-2.97822e-05,1.03565e-05,4.14017e-06,-1.3286e-05,1.84879e-05,-1.00358e-05,-5.65485e-06,-6.08502e-06,0
-2.93965e-05,1.07359e-05,2.38988e-06,-2.27942e-05,1.91306e-05,-1.10837e-05,-5.25304e-06,-4.17798e-06,0
-2.81653e-05,1.03823e-05,6.32864e-07,-2.95817e-05,1.78702e-05,-1.0465e-05,-2.32843e-06,-1.9854e-06,0
-2.70474e-05,1.0214e-05,-1.80011e-06,-2.63904e-05,1.49213e-05,-8.54533e-06,9.74495e-07,-4.95512e-07,0
-2.79914e-05,1.11982e-05,-5.66311e-06,-1.18845e-05,1.27934e-05,-6.66885e-06,3.7943e-06,3.01863e-07,0
-2.89614e-05,1.14356e-05,-6.94666e-06,6.99489e-06,1.27282e-05,-5.85202e-06,5.7015e-06,-1.12408e-06,0
-2.99151e-05,1.05747e-05,-5.73157e-06,2.46445e-05,1.52599e-05,-4.9337e-06,6.2887e-06,-4.27662e-06,0
-3.19963e-05,7.773e-06,-5.52103e-06,3.57574e-05,1.95856e-05,-3.85789e-06,7.46436e-06,-6.32409e-06,0
-3.28776e-05,4.6088e-06,-8.2464e-06,3.8416e-05,2.08379e-05,-4.13963e-06,1.18351e-05,-8.66976e-06,0
-3.17461e-05,3.96211e-06,-1.10144e-05,3.35005e-05,1.76402e-05,-3.85973e-06,1.52097e-05,-1.09497e-05,0
-3.0474e-05,4.91524e-06,-1.20362e-05,2.2282e-05,1.51401e-05,-2.79274e-06,1.34073e-05,-1.07949e-05,0
-3.01545e-05,5.81947e-06,-1.05269e-05,9.33046e-06,1.47534e-05,-1.8061e-06,8.19985e-06,-9.83073e-06,0
-2.98503e-05,6.81313e-06,-5.88579e-06,-2.63767e-06,1.59655e-05,-4.95371e-07,4.69455e-06,-8.04821e-06,0
-2.85187e-05,8.09307e-06,-1.58806e-06,-8.8628e-06,1.875e-05,-6.47813e-07,5.15907e-06,-6.46366e-06,0
-2.88024e-05,9.45892e-06,-5.39148e-07,-9.28972e-06,2.21238e-05,-2.44362e-06,8.09102e-06,-5.77678e-06,0
-2.98887e-05,8.93389e-06,-3.41127e-06,-7.21087e-06,2.25655e-05,-3.57122e-06,1.11308e-05,-4.93497e-06,0
-3.01156e-05,6.99923e-06,-6.12427e-06,-7.45144e-06,1.87799e-05,-4.81084e-06,1.26148e-05,-4.46459e-06,0
-2.98855e-05,7.63972e-06,-4.931e-06,-1.34638e-05,1.42936e-05,-5.99989e-06,1.26038e-05,-2.47362e-06,0
-2.98555e-05,1.01875e-05,-2.77254e-09,-2.33176e-05,1.18565e-05,-5.4894e-06,1.19385e-05,4.27013e-07,0
-3.00502e-05,1.13907e-05,4.11177e-06,-3.34982e-05,1.28426e-05,-4.80444e-06,1.20141e-05,1.29202e-06,0
-3.01709e-05,1.04714e-05,3.48929e-06,-3.97596e-05,1.72855e-05,-4.70202e-06,1.33605e-05,-1.71184e-07,0
-2.94684e-05,1.00421e-05,-1.05122e-06,-3.81657e-05,2.24161e-05,-4.81457e-06,1.48716e-05,-2.60954e-06,0
-2.7732e-05,1.06585e-05,-4.76035e-06,-2.8624e-05,2.43656e-05,-5.36571e-06,1.52741e-05,-4.13367e-06,0
-2.73547e-05,1.09609e-05,-4.60547e-06,-1.73147e-05,2.3246e-05,-5.79176e-06,1.49131e-05,-4.86426e-06,0
-2.83959e-05,1.09364e-05,-3.01942e-06,-9.2274e-06,2.18642e-05,-4.99733e-06,1.41234e-05,-5.90706e-06,0
-2.99865e-05,1.02871e-05,-3.07958e-06,-4.82567e-06,2.20202e-05,-3.75185e-06,1.21572e-05,-6.7195e-06,0
-3.12545e-05,8.82711e-06,-4.66411e-06,-2.30961e-06,2.19345e-05,-4.17361e-06,1.07653e-05,-4.51141e-06,0
-3.22384e-05,6.76295e-06,-5.77334e-06,-2.37963e-06,2.08922e-05,-6.33836e-06,1.15293e-05,-2.75564e-07,0
-3.19492e-05,5.34216e-06,-6.22779e-06,-2.56523e-06,1.87921e-05,-8.26768e-06,1.25385e-05,1.79876e-06,0
-3.14295e-05,4.76626e-06,-6.52878e-06,3.03608e-08,1.59841e-05,-9.68824e-06,1.24455e-05,1.28392e-06,0
-3.10563e-05,3.93951e-06,-6.47165e-06,2.98688e-06,1.37383e-05,-1.07656e-05,1.1057e-05,4.89346e-07,0
-3.13141e-05,3.44004e-06,-5.73384e-06,1.35772e-06,1.13665e-05,-1.11022e-05,8.91457e-06,-4.42844e-07,0
-3.29336e-05,4.92985e-06,-6.27844e-06,-1.21471e-06,7.72937e-06,-1.19549e-05,6.49799e-06,-1.00326e-06,0
-3.50904e-05,8.42851e-06,-9.62678e-06,1.86199e-06,5.86921e-06,-1.38496e-05,4.6114e-06,1.04301e-06,0
-3.64638e-05,1.05893e-05,-1.1354e-05,7.64951e-06,6.54338e-06,-1.22987e-05,5.38781e-06,4.24981e-06,0
-3.56017e-05,1.08849e-05,-8.45931e-06,1.1691e-05,7.6992e-06,-1.04934e-05,7.43814e-06,6.1762e-06,0
-3.38761e-05,1.15548e-05,-5.80654e-06,1.19336e-05,7.96317e-06,-1.17004e-05,8.89701e-06,6.68687e-06,0
-3.25504e-05,1.20215e-05,-6.258e-06,1.0215e-05,6.77506e-06,-1.12445e-05,9.79816e-06,5.51341e-06,0
-3.32997e-05,1.25543e-05,-8.081e-06,9.10953e-06,5.5076e-06,-9.45522e-06,9.78145e-06,5.02717e-06,0
-3.38508e-05,1.36285e-05,-1.19284e-05,7.90236e-06,3.46578e-06,-9.34406e-06,9.83168e-06,5.93397e-06,0
-3.33391e-05,1.46018e-05,-1.54875e-05,6.30546e-06,5.32115e-07,-9.96611e-06,9.52166e-06,7.23945e-06,0
-3.35698e-05,1.33787e-05,-1.68114e-05,4.8734e-06,-7.63369e-07,-9.33177e-06,9.93843e-06,8.35163e-06,0
-3.40879e-05,1.07983e-05,-1.76461e-05,3.81109e-06,7.54061e-07,-9.36344e-06,1.16025e-05,8.08841e-06,0
-3.47909e-05,9.51326e-06,-1.69748e-05,2.0262e-06,3.88514e-06,-9.99979e-06,1.23112e-05,6.48822e-06,0
-3.53915e-05,1.07451e-05,-1.45713e-05,-3.21109e-07,7.04311e-06,-1.03406e-05,1.17162e-05,5.18027e-06,0
-3.54665e-05,1.18375e-05,-1.15102e-05,-5.54775e-06,8.25207e-06,-1.03823e-05,1.11789e-05,4.89441e-06,0
-3.443e-05,1.23187e-05,-9.87382e-06,-1.83323e-05,7.47587e-06,-1.08584e-05,1.28083e-05,4.55568e-06,0
-3.3398e-05,1.36022e-05,-9.83065e-06,-3.85334e-05,6.7443e-06,-1.18362e-05,1.57712e-05,4.49656e-06,0
-3.3303e-05,1.50206e-05,-1.05189e-05,-5.70142e-05,5.83674e-06,-1.32615e-05,1.9363e-05,4.87622e-06,0
-3.41603e-05,1.57391e-05,-1.17414e-05,-6.11194e-05,4.52954e-06,-1.40848e-05,2.22805e-05,4.85357e-06,0
-3.51372e-05,1.50844e-05,-1.2889e-05,-4.97766e-05,4.28185e-06,-1.2733e-05,2.27244e-05,4.3105e-06,0
-3.51556e-05,1.45493e-05,-1.27301e-05,-3.29359e-05,3.95551e-06,-9.88921e-06,2.11916e-05,4.2106e-06,0
-3.41529e-05,1.40133e-05,-1.18316e-05,-1.85479e-05,3.40274e-06,-8.28972e-06,1.92672e-05,4.18365e-06,0
-3.29828e-05,1.34666e-05,-1.06037e-05,-5.50257e-06,3.97001e-06,-8.93662e-06,1.75421e-05,4.34831e-06,0
-3.25383e-05,1.36297e-05,-9.56789e-06,8.32503e-06,4.7315e-06,-1.05663e-05,1.58868e-05,4.94509e-06,0
-3.30213e-05,1.34928e-05,-1.13254e-05,2.1078e-05,4.33346e-06,-1.26201e-05,1.43863e-05,5.72277e-06,0
-3.33387e-05,1.12694e-05,-1.38327e-05,2.53887e-05,4.70392e-06,-1.51282e-05,1.32579e-05,5.93015e-06,0
-3.24177e-05,9.82364e-06,-1.36035e-05,2.041e-05,6.77211e-06,-1.76537e-05,1.28806e-05,5.26358e-06,0
-3.02218e-05,1.16557e-05,-1.12955e-05,1.36343e-05,8.31328e-06,-1.76307e-05,1.23067e-05,4.43626e-06,0
-2.79659e-05,1.39117e-05,-1.13455e-05,9.68165e-06,9.64495e-06,-1.5829e-05,1.17647e-05,3.11449e-06,0
-2.80509e-05,1.27255e-05,-1.35499e-05,9.60668e-06,1.63944e-05,-1.43425e-05,1.05047e-05,1.82939e-06,0
-2.84501e-05,9.93192e-06,-1.45928e-05,1.12896e-05,2.54559e-05,-1.42027e-05,1.06864e-05,2.64093e-06,0
-2.96862e-05,8.11857e-06,-1.35709e-05,9.97421e-06,2.87877e-05,-1.4575e-05,1.40119e-05,3.75454e-06,0
-3.23194e-05,8.18448e-06,-1.18915e-05,3.71245e-06,2.58796e-05,-1.41124e-05,1.56793e-05,4.35171e-06,0
-3.20928e-05,1.03725e-05,-1.11686e-05,-3.17209e-06,1.89535e-05,-1.33971e-05,1.5839e-05,4.60872e-06,0
-3.157e-05,1.3696e-05,-1.11883e-05,-8.75609e-06,1.21774e-05,-1.43582e-05,1.64564e-05,4.02072e-06,0
-3.2273e-05,1.66653e-05,-1.25388e-05,-1.25806e-05,6.97242e-06,-1.60562e-05,1.70453e-05,2.36979e-06,0
-3.24474e-05,1.74983e-05,-1.48113e-05,-1.23533e-05,5.81371e-06,-1.50162e-05,1.81487e-05,-8.20547e-08,0
-3.29953e-05,1.73318e-05,-1.62309e-05,-6.70659e-06,8.47882e-06,-1.19471e-05,1.86728e-05,-1.23119e-06,0
-3.30496e-05,1.65684e-05,-1.59001e-05,1.46507e-06,1.02337e-05,-1.05018e-05,1.86922e-05,-1.53784e-06,0
-3.19392e-05,1.55501e-05,-1.41004e-05,8.42448e-06,9.78497e-06,-1.10623e-05,1.96007e-05,-2.17899e-06,0
-3.02896e-05,1.4967e-05,-1.13752e-05,9.52503e-06,9.37297e-06,-1.02564e-05,1.98429e-05,-3.30518e-06,0
-2.98487e-05,1.4892e-05,-9.23687e-06,2.2952e-06,8.83364e-06,-7.98973e-06,1.89704e-05,-3.89855e-06,0
-3.08506e-05,1.55613e-05,-9.75904e-06,-8.67949e-06,7.51098e-06,-5.94126e-06,1.78023e-05,-4.56341e-06,0
-3.19661e-05,1.59432e-05,-1.13434e-05,-1.50346e-05,7.21053e-06,-4.35757e-06,1.5705e-05,-4.23083e-06,0
-3.16697e-05,1.54544e-05,-1.18908e-05,-9.22862e-06,6.56362e-06,-3.84736e-06,1.37063e-05,-2.16755e-06,0
-2.95592e-05,1.42185e-05,-1.10597e-05,4.25538e-06,5.03186e-06,-5.48641e-06,1.21143e-05,-6.65005e-07,0
-2.7368e-05,1.28652e-05,-8.93965e-06,1.37303e-05,6.09007e-06,-7.95543e-06,1.09754e-05,-1.48505e-06,0
-2.62327e-05,1.19517e-05,-5.9899e-06,1.45725e-05,1.16411e-05,-7.85611e-06,1.06143e-05,-3.46374e-06,0
-2.62384e-05,1.20973e-05,-3.7124e-06,9.80676e-06,1.72235e-05,-5.01223e-06,1.10143e-05,-4.33978e-06,0
-2.73835e-05,1.42884e-05,-3.30051e-06,1.37946e-06,1.99543e-05,-2.25367e-06,1.2041e-05,-3.77028e-06,0
-2.82708e-05,1.89838e-05,-4.17341e-06,-9.59353e-06,2.06229e-05,-1.97924e-06,1.39559e-05,-3.00023e-06,0
-2.83656e-05,2.57812e-05,-4.80966e-06,-2.2107e-05,2.10829e-05,-4.096e-06,1.99709e-05,-2.99353e-06,0
-2.86197e-05,2.98749e-05,-4.14382e-06,-3.50009e-05,2.21781e-05,-6.39345e-06,3.07109e-05,-3.69709e-06,0
-2.80043e-05,2.91611e-05,-3.20296e-06,-4.56055e-05,2.17913e-05,-6.86877e-06,3.81685e-05,-4.64317e-06,0
-2.68598e-05,2.53407e-05,-1.0946e-06,-5.18447e-05,1.99762e-05,-5.60463e-06,3.54697e-05,-4.39779e-06,0
-2.72961e-05,2.02805e-05,2.61146e-07,-5.36763e-05,1.75872e-05,-4.73678e-06,2.52484e-05,-1.80996e-06,0
-2.90761e-05,1.3817e-05,-2.09149e-06,-5.0188e-05,1.3496e-05,-5.35679e-06,1.7116e-05,-6.94817e-07,0
-3.02367e-05,9.31542e-06,-4.70376e-06,-3.22248e-05,1.02264e-05,-6.20731e-06,1.58572e-05,-2.1718e-06,0
-3.08285e-05,9.79287e-06,-6.43519e-06,-9.81427e-07,1.16912e-05,-6.701e-06,1.60472e-05,-1.90518e-06,0
-3.1019e-05,1.11702e-05,-7.69628e-06,2.28224e-05,1.6677e-05,-6.97074e-06,1.0885e-05,-2.33126e-07,0
-3.02401e-05,1.10163e-05,-4.97883e-06,2.73557e-05,1.91775e-05,-5.42205e-06,-2.5577e-07,2.51976e-06,0
-2.86502e-05,6.70818e-06,-1.29466e-06,1.99511e-05,1.70441e-05,-3.26152e-06,-1.26112e-05,3.99136e-06,0
-2.73921e-05,5.45197e-07,-1.54669e-06,1.04588e-05,1.49058e-05,-2.30954e-06,-1.92005e-05,3.73964e-06,0
-2.62834e-05,-3.53516e-06,-3.33204e-06,3.51142e-06,1.48125e-05,-2.99294e-06,-1.75714e-05,3.30897e-06,0
-2.55062e-05,-6.30434e-06,-4.14937e-06,5.05845e-06,1.66264e-05,-4.86388e-06,-1.42548e-05,4.12903e-06,0
-2.55502e-05,-1.02085e-05,-4.29256e-06,1.6581e-05,1.79511e-05,-6.56034e-06,-1.15752e-05,5.52536e-06,0
-2.5843e-05,-1.24464e-05,-3.6639e-06,2.85854e-05,1.91463e-05,-7.76898e-06,-9.3268e-06,6.07506e-06,0
-2.66041e-05,-9.65826e-06,-4.06182e-06,3.17451e-05,2.02762e-05,-8.21817e-06,-7.88822e-06,7.00976e-06,0
-2.71865e-05,-3.3992e-06,-5.98808e-06,2.40495e-05,2.03542e-05,-9.1449e-06,-6.02211e-06,6.75319e-06,0
-2.76962e-05,3.69405e-06,-6.94478e-06,1.16153e-05,2.09204e-05,-1.10781e-05,-3.22737e-06,3.85635e-06,0
-2.93281e-05,8.90107e-06,-5.3347e-06,3.60941e-07,2.17276e-05,-1.25059e-05,-2.16887e-06,-2.17029e-07,0
-3.11509e-05,1.17283e-05,-1.89303e-06,-8.52034e-06,2.04514e-05,-1.26705e-05,-3.83669e-06,-2.24807e-06,0
-3.16096e-05,1.33199e-05,-8.24166e-07,-1.3709e-05,1.67469e-05,-1.25126e-05,-5.97035e-06,-1.99402e-06,0
-3.10544e-05,1.547e-05,-3.76623e-06,-1.43311e-05,1.52575e-05,-1.25545e-05,-5.31216e-06,-2.38569e-07,0
-2.99479e-05,1.69818e-05,-8.76726e-06,-1.54532e-05,1.69991e-05,-1.10791e-05,-4.63397e-07,1.89448e-06,0
-2.9285e-05,1.72732e-05,-1.40319e-05,-2.25375e-05,1.8373e-05,-7.94983e-06,6.1961e-06,3.95058e-06,0
-2.99794e-05,1.68683e-05,-1.98131e-05,-3.29991e-05,1.72295e-05,-5.60441e-06,1.23595e-05,5.30354e-06,0
-3.07224e-05,1.5547e-05,-2.47049e-05,-4.00245e-05,1.52716e-05,-4.08134e-06,1.50911e-05,5.41439e-06,0
-3.03502e-05,1.28882e-05,-2.62088e-05,-3.95302e-05,1.4384e-05,-2.8452e-06,1.41391e-05,3.41307e-06,0
-3.15831e-05,1.05677e-05,-2.50151e-05,-3.24048e-05,1.41437e-05,-1.47354e-06,1.27857e-05,1.03486e-06,0
-3.48996e-05,1.17827e-05,-2.28195e-05,-2.27023e-05,1.26852e-05,-1.289e-08,1.32008e-05,1.71484e-06,0
-3.6348e-05,1.73568e-05,-2.0408e-05,-1.61566e-05,8.81667e-06,7.46527e-07,1.31241e-05,3.93489e-06,0
-3.46976e-05,2.70722e-05,-1.87372e-05,-1.41342e-05,4.48494e-06,3.17921e-07,1.2618e-05,3.81267e-06,0
-3.22629e-05,4.11553e-05,-1.70447e-05,-1.25675e-05,3.13554e-06,-1.86516e-06,1.42069e-05,1.65483e-06,0
-3.16314e-05,5.11102e-05,-1.59163e-05,-1.17388e-05,3.36907e-06,-3.35876e-06,1.79437e-05,1.91758e-06,0
-3.19345e-05,5.19761e-05,-1.52394e-05,-1.85209e-05,1.9446e-06,-3.69507e-06,2.22901e-05,3.63625e-06,0
-3.12403e-05,4.48369e-05,-1.4288e-05,-2.98067e-05,4.52499e-07,-4.68136e-06,2.53366e-05,4.89092e-06,0
-3.07568e-05,2.95595e-05,-1.35034e-05,-3.49324e-05,2.3415e-06,-5.02819e-06,2.45281e-05,5.07286e-06,0
-3.20719e-05,1.26232e-05,-1.32758e-05,-3.24203e-05,6.13118e-06,-5.34656e-06,2.19235e-05,4.42141e-06,0
-3.2462e-05,-4.30987e-06,-1.50251e-05,-2.67127e-05,9.26251e-06,-6.45535e-06,2.09508e-05,3.87338e-06,0
-3.02714e-05,-1.79669e-05,-1.47388e-05,-1.86645e-05,1.22877e-05,-8.14115e-06,2.06271e-05,3.13204e-06,0
-2.87545e-05,-2.36267e-05,-1.23283e-05,-5.75831e-06,1.82357e-05,-8.60434e-06,1.85075e-05,2.9571e-06,0
-2.82665e-05,-2.19146e-05,-9.39825e-06,1.3538e-05,2.69086e-05,-6.84113e-06,1.29921e-05,2.09886e-06,0
-2.7761e-05,-1.56274e-05,-5.53761e-06,3.63875e-05,3.18255e-05,-4.49467e-06,1.97277e-06,1.98908e-06,0
-2.81623e-05,-6.47184e-06,-1.89223e-06,5.44342e-05,3.11017e-05,-2.72043e-06,-1.05142e-05,4.44173e-06,0
-3.01941e-05,3.24184e-06,1.76014e-07,6.03072e-05,2.70622e-05,-3.0692e-06,-1.54716e-05,6.90465e-06,0
-3.19072e-05,1.02918e-05,4.29163e-08,5.35283e-05,2.38635e-05,-4.40282e-06,-1.03455e-05,6.78634e-06,0
-3.18531e-05,1.44409e-05,-1.11742e-06,3.91329e-05,2.33569e-05,-5.86181e-06,1.7035e-06,5.1871e-06,0
-3.02552e-05,1.66309e-05,-2.11856e-06,2.16347e-05,2.34739e-05,-7.33045e-06,1.67867e-05,3.90917e-06,0
-2.81813e-05,1.86494e-05,-1.13145e-06,5.61411e-06,2.31366e-05,-8.536e-06,3.18469e-05,3.43183e-06,0
-2.68803e-05,2.25044e-05,8.48592e-07,-8.26188e-06,2.35348e-05,-9.81197e-06,4.26833e-05,4.32562e-06,0
-2.66593e-05,2.70458e-05,1.03634e-06,-2.38795e-05,2.53352e-05,-1.15041e-05,4.63869e-05,4.47397e-06,0
-2.8304e-05,2.8544e-05,-1.61545e-06,-3.9884e-05,2.63737e-05,-1.25387e-05,4.30201e-05,2.93171e-06,0
-3.08383e-05,2.79461e-05,-5.30792e-06,-4.89631e-05,2.39553e-05,-1.27241e-05,3.66768e-05,1.31572e-06,0
-3.08919e-05,2.73179e-05,-8.76925e-06,-4.50749e-05,1.97315e-05,-1.40118e-05,3.1465e-05,1.36289e-06,0
-2.83306e-05,2.70459e-05,-1.09272e-05,-2.95619e-05,1.69849e-05,-1.60965e-05,2.84334e-05,1.716e-06,0
-2.72556e-05,2.71274e-05,-1.17273e-05,-1.17982e-05,1.44074e-05,-1.77915e-05,2.73098e-05,2.06899e-07,0
-2.84511e-05,2.7968e-05,-1.26655e-05,-8.67801e-07,1.08784e-05,-1.87272e-05,2.72578e-05,-3.08423e-07,0
-2.88408e-05,2.85609e-05,-1.19565e-05,3.12906e-06,7.44991e-06,-1.85908e-05,2.58991e-05,1.51181e-06,0
-2.77036e-05,2.67306e-05,-8.31597e-06,6.21086e-06,5.9878e-06,-1.89543e-05,2.35682e-05,1.96498e-06,0
-2.72693e-05,2.24962e-05,-5.8987e-06,9.57843e-06,6.08312e-06,-1.96906e-05,2.06848e-05,1.47642e-06,0
-2.64805e-05,1.855e-05,-6.12116e-06,7.7603e-06,6.27738e-06,-1.85453e-05,1.76343e-05,2.32776e-06,0
-2.58907e-05,1.52714e-05,-7.27918e-06,1.26177e-06,7.32795e-06,-1.73834e-05,1.71236e-05,3.13918e-06,0
-2.54962e-05,1.2137e-05,-8.28533e-06,-4.87309e-06,1.03258e-05,-1.82574e-05,1.87517e-05,3.66825e-06,0
-2.55041e-05,1.03003e-05,-9.31674e-06,-2.71223e-06,1.46004e-05,-1.99472e-05,1.85475e-05,3.23979e-06,0
-2.65595e-05,1.02766e-05,-1.14337e-05,8.35927e-06,1.735e-05,-2.03581e-05,1.55965e-05,2.47324e-06,0
-2.66612e-05,1.14314e-05,-1.46246e-05,2.22319e-05,1.69504e-05,-1.99504e-05,1.29636e-05,2.92549e-06,0
-2.64865e-05,1.20554e-05,-1.81817e-05,3.57705e-05,1.54131e-05,-1.95999e-05,1.10809e-05,2.99707e-06,0
-2.70218e-05,1.13164e-05,-2.00211e-05,4.50694e-05,1.56304e-05,-1.84894e-05,8.41768e-06,1.9732e-06,0
-2.75728e-05,9.2011e-06,-2.077e-05,4.84537e-05,1.5964e-05,-1.69057e-05,5.56492e-06,7.21116e-07,0
-2.84526e-05,7.69083e-06,-2.11611e-05,4.4239e-05,1.5405e-05,-1.69627e-05,4.87588e-06,5.36915e-07,0
-3.03945e-05,7.2931e-06,-2.1477e-05,3.61634e-05,1.54281e-05,-1.85561e-05,6.19056e-06,9.75667e-07,0
-3.17676e-05,6.85353e-06,-2.12068e-05,2.9382e-05,1.70843e-05,-2.0144e-05,8.14339e-06,1.59711e-06,0
-3.16502e-05,5.01289e-06,-1.89334e-05,2.57477e-05,1.74111e-05,-2.14161e-05,9.00813e-06,1.04639e-06,0
-3.0984e-05,3.90511e-06,-1.51647e-05,1.94531e-05,1.37911e-05,-2.19684e-05,9.07398e-06,-9.43373e-08,0
-3.08294e-05,6.47481e-06,-1.21283e-05,6.03914e-06,9.2568e-06,-2.18834e-05,1.03814e-05,-1.08488e-06,0
-3.01057e-05,1.14769e-05,-1.05026e-05,-9.06093e-06,7.34942e-06,-2.20968e-05,1.18616e-05,-2.03933e-06,0
-2.88075e-05,1.52377e-05,-9.09391e-06,-1.91126e-05,1.00148e-05,-2.33342e-05,1.14567e-05,-1.67858e-06,0
-2.8371e-05,1.48163e-05,-7.05713e-06,-2.48273e-05,1.5574e-05,-2.49019e-05,1.03517e-05,-8.30668e-07,0
-2.8675e-05,1.25407e-05,-4.5528e-06,-3.27056e-05,1.9466e-05,-2.66645e-05,1.08648e-05,5.03065e-08,0
-2.89458e-05,1.04247e-05,-4.58655e-06,-4.49497e-05,1.80195e-05,-2.76002e-05,1.29509e-05,-2.47127e-07,0
-2.8717e-05,9.5355e-06,-7.77176e-06,-5.93191e-05,1.27924e-05,-2.7446e-05,1.51488e-05,-1.53507e-06,0
-2.76806e-05,1.18147e-05,-9.2865e-06,-7.0064e-05,6.56022e-06,-2.84031e-05,1.66542e-05,-2.14017e-06,0
-2.69517e-05,1.50758e-05,-6.75383e-06,-7.52672e-05,1.02758e-06,-2.97175e-05,1.64808e-05,-1.81678e-06,0
-2.64704e-05,1.63605e-05,-5.17953e-06,-7.57634e-05,-2.04361e-06,-2.99965e-05,1.464e-05,-1.34335e-06,0
-2.65947e-05,1.59022e-05,-6.19957e-06,-7.08052e-05,-1.92688e-06,-2.96409e-05,1.30309e-05,-9.15307e-07,0
-2.72117e-05,1.56769e-05,-6.9691e-06,-5.92368e-05,-8.84866e-07,-2.78295e-05,1.29868e-05,-1.3751e-06,0
-2.71751e-05,1.73612e-05,-4.78649e-06,-4.64181e-05,-1.62428e-06,-2.59164e-05,1.33131e-05,-3.12146e-06,0
-2.68099e-05,1.96791e-05,7.44715e-07,-3.64039e-05,7.4242e-07,-2.35555e-05,1.29561e-05,-3.81068e-06,0
-2.69891e-05,2.18971e-05,5.21852e-06,-1.62925e-05,8.74559e-06,-1.91096e-05,1.18965e-05,-4.22073e-06,0
-2.73146e-05,2.22524e-05,5.95406e-06,2.42647e-05,1.88435e-05,-1.55505e-05,1.0701e-05,-4.958e-06,0
-2.73308e-05,1.94874e-05,4.257e-06,6.45933e-05,2.99924e-05,-1.41191e-05,9.53056e-06,-4.76717e-06,0
-2.81855e-05,1.7541e-05,4.46841e-06,7.78143e-05,3.75085e-05,-1.35902e-05,8.47087e-06,-5.93952e-06,0
-3.02803e-05,1.72247e-05,7.24561e-06,6.61289e-05,3.79416e-05,-1.28622e-05,8.65635e-06,-6.35918e-06,0
-3.22106e-05,1.586e-05,9.74557e-06,4.72875e-05,3.26201e-05,-1.23469e-05,8.21484e-06,-5.10633e-06,0
-3.21076e-05,1.33819e-05,9.27811e-06,2.87523e-05,2.63065e-05,-1.17857e-05,6.58383e-06,-2.97049e-06,0
-3.19206e-05,1.12709e-05,5.6215e-06,1.19074e-05,2.10156e-05,-1.11764e-05,5.74073e-06,-4.46613e-07,0
-3.15202e-05,1.05663e-05,1.21392e-06,-1.12686e-06,1.67548e-05,-1.14546e-05,6.60519e-06,-2.01362e-07,0
-3.05778e-05,1.16347e-05,-1.95117e-06,-1.01363e-05,1.38617e-05,-1.19017e-05,7.22762e-06,-2.3104e-06,0
-2.94012e-05,1.3612e-05,-3.90902e-06,-1.81831e-05,1.01992e-05,-1.24016e-05,7.80853e-06,-3.7433e-06,0
-2.94487e-05,1.38821e-05,-5.83852e-06,-2.91539e-05,6.81933e-06,-1.31005e-05,9.36042e-06,-3.06913e-06,0
-3.12447e-05,1.09793e-05,-7.6945e-06,-4.03376e-05,4.25926e-06,-1.38576e-05,1.0823e-05,-2.16129e-06,0
-3.40588e-05,6.04652e-06,-9.53235e-06,-4.30928e-05,1.89689e-06,-1.43131e-05,1.15943e-05,-1.07784e-06,0
-3.62391e-05,2.5746e-06,-1.04278e-05,-3.32447e-05,-4.57218e-07,-1.46077e-05,1.1345e-05,-4.96548e-07,0
-3.64166e-05,3.5319e-06,-1.0695e-05,-1.81303e-05,-1.7782e-06,-1.51627e-05,1.06539e-05,-9.1828e-07,0
-3.57822e-05,7.2637e-06,-1.07841e-05,-2.8913e-06,-3.30241e-06,-1.54755e-05,9.9247e-06,-1.88912e-06,0
-3.45456e-05,1.00566e-05,-9.81602e-06,1.7041e-05,-5.67033e-06,-1.45868e-05,1.02105e-05,-2.55239e-06,0
-3.36187e-05,1.09658e-05,-6.61937e-06,4.18802e-05,-6.63495e-06,-1.35098e-05,1.1142e-05,-2.718e-06,0
-3.27771e-05,1.12566e-05,-3.25958e-06,5.99893e-05,-4.85848e-06,-1.30343e-05,1.11786e-05,-2.24641e-06,0
-3.21827e-05,1.09543e-05,-2.13482e-06,6.15592e-05,-8.33444e-07,-1.26433e-05,1.0256e-05,-2.17763e-06,0
-3.23722e-05,8.38632e-06,-3.27554e-07,4.6606e-05,3.92688e-06,-1.26511e-05,9.2927e-06,-2.44187e-06,0
-3.31355e-05,5.33297e-06,3.14444e-06,1.83018e-05,7.96513e-06,-1.21449e-05,8.79258e-06,-1.97747e-06,0
-3.3797e-05,5.21646e-06,2.9113e-06,-1.45782e-05,1.09022e-05,-9.9466e-06,9.72412e-06,-2.25888e-06,0
-3.41401e-05,6.98261e-06,2.66566e-07,-3.33182e-05,1.30126e-05,-6.58958e-06,1.15362e-05,-3.16433e-06,0
-3.41604e-05,8.49771e-06,-7.32407e-07,-2.98704e-05,1.56363e-05,-4.94876e-06,1.36937e-05,-3.21412e-06,0
-3.57484e-05,7.82511e-06,-1.45109e-06,-1.61136e-05,1.83103e-05,-5.10097e-06,1.49172e-05,-1.58513e-06,0
-3.68042e-05,7.2428e-06,-2.29467e-06,-9.48373e-06,2.08078e-05,-5.36789e-06,1.44104e-05,1.60587e-06,0
-3.63066e-05,8.84754e-06,-4.56504e-06,-1.20757e-05,2.28735e-05,-5.63298e-06,1.44469e-05,3.6216e-06,0
-3.54563e-05,9.22282e-06,-8.21704e-06,-1.56399e-05,2.22569e-05,-5.23908e-06,1.64336e-05,3.63089e-06,0
-3.49499e-05,6.40019e-06,-1.14608e-05,-2.33843e-05,2.08933e-05,-5.54863e-06,1.83097e-05,2.15737e-06,0
-3.44394e-05,1.97267e-06,-1.23397e-05,-3.87229e-05,1.89525e-05,-5.11276e-06,1.96755e-05,-3.44684e-07,0
-3.28282e-05,-5.19302e-08,-1.21825e-05,-5.54371e-05,1.5231e-05,-3.26643e-06,2.04498e-05,-1.85728e-06,0
-3.20424e-05,1.73695e-06,-1.25015e-05,-6.43016e-05,1.12453e-05,-1.90406e-06,1.80855e-05,-1.51519e-06,0
-3.20355e-05,3.30123e-06,-1.23794e-05,-5.99292e-05,7.4532e-06,-1.11884e-06,1.57867e-05,-5.76819e-07,0
-3.18512e-05,2.43396e-06,-1.15724e-05,-4.54675e-05,5.29698e-06,1.91379e-07,1.49614e-05,-1.91791e-08,0
-2.97773e-05,1.1972e-06,-1.1196e-05,-2.34799e-05,4.97924e-06,2.2034e-06,1.36695e-05,5.36262e-07,0
-2.75364e-05,-4.05811e-07,-1.27556e-05,3.63018e-06,4.47507e-06,3.47103e-06,1.23117e-05,-1.88579e-07,0
-2.71626e-05,-4.00896e-06,-1.45015e-05,3.46768e-05,4.03113e-06,3.73957e-06,1.22352e-05,-2.43267e-06,0
-2.93792e-05,-9.65532e-06,-1.47816e-05,6.52431e-05,4.9523e-06,3.77408e-06,1.25232e-05,-4.43613e-06,0
-3.2783e-05,-1.43458e-05,-1.526e-05,7.60989e-05,6.43575e-06,4.79848e-06,1.00661e-05,-4.99578e-06,0
-3.44242e-05,-1.51048e-05,-1.83905e-05,5.77293e-05,6.42378e-06,6.15152e-06,5.04199e-06,-5.68309e-06,0
-3.28676e-05,-1.20922e-05,-2.23335e-05,2.76399e-05,4.85861e-06,6.77713e-06,1.06039e-06,-6.55872e-06,0
-3.14119e-05,-7.93108e-06,-2.36371e-05,7.43776e-06,2.47369e-06,5.93348e-06,1.86677e-06,-6.0304e-06,0
-3.2709e-05,-5.60941e-06,-2.14891e-05,1.02582e-06,4.08152e-07,3.86286e-06,8.41743e-06,-4.44674e-06,0
-3.35364e-05,-5.30187e-06,-1.86858e-05,4.23465e-06,-1.10953e-06,2.23464e-06,1.84944e-05,-2.54635e-06,0
-3.1415e-05,-4.71189e-06,-1.74258e-05,1.12733e-05,-2.48364e-06,2.13604e-06,2.79269e-05,-4.90909e-07,0
-2.77798e-05,-4.22234e-06,-1.72244e-05,2.00867e-05,-3.5034e-06,2.12082e-06,3.43786e-05,1.94409e-06,0
-2.69253e-05,-5.62118e-06,-1.62781e-05,2.74383e-05,-2.42347e-06,1.43773e-06,3.86493e-05,4.67797e-06,0
-2.91117e-05,-7.34861e-06,-1.22899e-05,2.2162e-05,2.23867e-06,6.03687e-07,4.21446e-05,6.41075e-06,0
-3.12487e-05,-6.99635e-06,-8.06125e-06,5.76682e-06,1.00434e-05,4.40914e-07,4.38248e-05,7.1865e-06,0
-3.0757e-05,-5.30232e-06,-7.89469e-06,-6.29804e-06,1.74075e-05,8.52713e-07,3.99353e-05,8.13823e-06,0
-3.07903e-05,-5.93942e-06,-1.09448e-05,-9.81184e-06,2.25056e-05,1.92193e-06,3.06549e-05,8.42963e-06,0
-3.25762e-05,-7.74627e-06,-1.34691e-05,-1.15607e-05,2.40487e-05,2.25782e-06,2.03519e-05,8.36458e-06,0
-3.30507e-05,-7.30977e-06,-1.37767e-05,-1.63007e-05,2.14851e-05,1.70363e-06,1.03922e-05,1.00577e-05,0
-3.35372e-05,-3.74493e-06,-1.09192e-05,-2.46652e-05,1.94433e-05,3.54377e-06,2.98968e-06,1.25313e-05,0
-3.28956e-05,1.99425e-06,-7.09198e-06,-3.31184e-05,2.06063e-05,6.28277e-06,2.81556e-08,1.34503e-05,0
-3.19679e-05,6.29693e-06,-4.95778e-06,-3.55467e-05,2.31213e-05,8.10596e-06,-5.82235e-07,1.2499e-05,0
-3.18698e-05,6.75214e-06,-4.9164e-06,-3.3172e-05,2.18767e-05,7.64361e-06,-2.34146e-07,9.52875e-06,0
-3.0916e-05,6.97162e-06,-5.1889e-06,-2.78378e-05,1.86569e-05,6.31404e-06,-1.81208e-07,6.93337e-06,0
-3.06646e-05,1.0312e-05,-3.79957e-06,-1.81281e-05,1.74218e-05,5.48924e-06,-1.64247e-07,6.09488e-06,0
-2.96956e-05,1.39175e-05,-1.80284e-06,-9.36941e-06,1.73672e-05,4.61572e-06,-3.45921e-07,6.95731e-06,0
-2.762e-05,1.59997e-05,7.75252e-08,-5.04315e-06,1.61848e-05,2.99355e-06,-9.56346e-07,9.59088e-06,0
-2.6085e-05,1.75161e-05,2.69719e-08,-6.05437e-06,1.34012e-05,6.45572e-07,-9.34714e-07,1.20921e-05,0
-2.66844e-05,1.9388e-05,-1.61645e-06,-9.83261e-06,1.19411e-05,-1.69106e-06,1.80961e-07,1.18586e-05,0
-2.77065e-05,2.04013e-05,-2.22302e-06,-1.47011e-05,1.2606e-05,-3.21575e-06,4.46627e-07,8.9439e-06,0
-2.75459e-05,2.07086e-05,-9.41825e-07,-2.08816e-05,1.4315e-05,-2.97052e-06,-1.31588e-06,6.30161e-06,0
-2.76326e-05,2.2384e-05,8.84034e-07,-2.99535e-05,1.48557e-05,-2.89641e-06,-2.91551e-06,5.64613e-06,0
-2.86425e-05,2.52481e-05,1.22789e-06,-4.03003e-05,1.40195e-05,-2.81433e-06,-1.89317e-06,5.3194e-06,0
-3.05542e-05,2.69841e-05,-3.02679e-07,-4.78736e-05,1.43662e-05,-1.9092e-06,2.19372e-06,3.71987e-06,0
-3.18571e-05,2.55613e-05,-2.8825e-06,-4.98836e-05,1.5836e-05,-1.74457e-06,6.56123e-06,2.03521e-06,0
-3.15894e-05,2.25412e-05,-5.99758e-06,-4.34616e-05,1.68668e-05,-4.08993e-06,9.33954e-06,4.9769e-07,0
-2.98052e-05,2.00378e-05,-8.99594e-06,-2.9713e-05,1.78926e-05,-6.16603e-06,1.10112e-05,-1.68056e-06,0
-2.90703e-05,1.77411e-05,-1.28304e-05,-1.40197e-05,1.85517e-05,-6.09313e-06,1.34085e-05,-3.34628e-06,0
-3.01998e-05,1.57259e-05,-1.76535e-05,-3.25316e-06,1.82961e-05,-5.41354e-06,1.68093e-05,-2.35573e-06,0
-3.17441e-05,1.49559e-05,-2.14333e-05,5.09941e-07,1.78608e-05,-5.43046e-06,1.97208e-05,-1.04162e-06,0
-3.18179e-05,1.5963e-05,-2.23211e-05,1.20723e-06,1.70638e-05,-7.14897e-06,2.14785e-05,-2.49806e-06,0
-3.13188e-05,1.82036e-05,-2.0608e-05,1.85599e-06,1.54322e-05,-7.88394e-06,2.10974e-05,-4.6878e-06,0
-3.11425e-05,1.98618e-05,-1.8137e-05,9.4828e-07,1.46973e-05,-7.59553e-06,1.58353e-05,-4.71379e-06,0
-3.07095e-05,2.11566e-05,-1.49237e-05,-1.98628e-06,1.72904e-05,-8.63432e-06,5.46968e-06,-3.29524e-06,0
-3.11129e-05,2.13154e-05,-1.1837e-05,-5.04404e-06,1.77981e-05,-9.73319e-06,-7.76992e-07,-3.09984e-06,0
-3.21766e-05,2.06428e-05,-7.90553e-06,-4.4859e-06,1.3364e-05,-1.01154e-05,2.0666e-06,-4.02244e-06,0
-3.19958e-05,2.03171e-05,-4.36793e-06,-1.47528e-06,9.86758e-06,-9.18172e-06,8.81483e-06,-3.53155e-06,0
-2.98367e-05,1.99439e-05,-2.63948e-06,4.00054e-06,7.81831e-06,-8.78696e-06,1.53207e-05,-1.86409e-06,0
-2.93969e-05,1.93494e-05,-7.23467e-07,1.0943e-05,7.18588e-06,-9.43511e-06,1.84613e-05,5.37254e-07,0
-3.00814e-05,1.72564e-05,1.68303e-08,1.46762e-05,6.43167e-06,-1.07155e-05,1.85629e-05,2.58361e-06,0
-2.9337e-05,1.47269e-05,8.6179e-07,1.37323e-05,5.91894e-06,-1.22803e-05,1.67003e-05,2.78543e-06,0
-2.92445e-05,1.38767e-05,2.21892e-06,9.62696e-06,7.89903e-06,-1.27283e-05,1.48234e-05,2.70506e-06,0
-2.9109e-05,1.48996e-05,2.46786e-06,3.13842e-06,9.36544e-06,-1.33465e-05,1.42567e-05,1.93035e-06,0
-2.77226e-05,1.51867e-05,2.20841e-06,-5.52658e-06,9.92909e-06,-1.33194e-05,1.45365e-05,9.77719e-07,0
-2.64976e-05,1.48348e-05,8.35526e-07,-1.47671e-05,1.02239e-05,-1.20387e-05,1.50167e-05,1.23099e-06,0
-2.72763e-05,1.52493e-05,-7.75712e-07,-2.33507e-05,1.04938e-05,-1.11902e-05,1.5809e-05,2.78208e-06,0
-2.94955e-05,1.56821e-05,-1.57726e-06,-3.01925e-05,1.05667e-05,-1.26571e-05,1.57408e-05,3.69858e-06,0
-3.10198e-05,1.57049e-05,-2.14596e-06,-3.48995e-05,1.00528e-05,-1.43948e-05,1.37363e-05,3.34921e-06,0
-3.05986e-05,1.60476e-05,-3.05684e-06,-3.71884e-05,8.77716e-06,-1.44542e-05,1.1713e-05,2.53034e-06,0
-2.91707e-05,1.68415e-05,-3.9272e-06,-3.69311e-05,8.0213e-06,-1.29825e-05,1.02376e-05,2.1758e-06,0
-2.77488e-05,1.78069e-05,-5.69025e-06,-3.23736e-05,8.54737e-06,-1.14276e-05,7.53577e-06,3.31976e-06,0
-2.70022e-05,1.94649e-05,-8.7978e-06,-2.43903e-05,9.94222e-06,-1.0963e-05,3.4628e-06,4.77414e-06,0
-2.75601e-05,2.0839e-05,-1.05112e-05,-1.45606e-05,1.20296e-05,-1.08921e-05,1.94968e-06,5.64635e-06,0
-2.84523e-05,2.19976e-05,-8.96865e-06,-2.81334e-06,1.38216e-05,-1.07375e-05,5.80431e-06,5.10586e-06,0
-2.90499e-05,2.44743e-05,-5.57619e-06,1.0338e-05,1.35685e-05,-1.18491e-05,1.39198e-05,3.31098e-06,0
-2.92758e-05,3.09097e-05,-2.78389e-06,1.98559e-05,1.17441e-05,-1.40241e-05,2.07488e-05,2.12917e-06,0
-2.96536e-05,4.16378e-05,-6.38193e-07,2.00626e-05,1.25532e-05,-1.45549e-05,2.3993e-05,3.14287e-06,0
-2.98739e-05,5.06429e-05,-1.69789e-07,1.29609e-05,1.69631e-05,-1.4946e-05,2.44775e-05,5.79213e-06,0
-3.08706e-05,5.09891e-05,-2.70032e-06,6.49969e-06,2.15199e-05,-1.6191e-05,2.27536e-05,7.1462e-06,0
-3.19397e-05,4.56896e-05,-5.95798e-06,3.4481e-06,2.31025e-05,-1.66554e-05,1.94616e-05,4.59981e-06,0
-3.17216e-05,4.03412e-05,-6.55114e-06,2.16051e-06,2.14126e-05,-1.74045e-05,1.46269e-05,2.90887e-06,0
-3.1456e-05,3.3803e-05,-5.58347e-06,5.48732e-06,2.18522e-05,-1.78006e-05,9.9595e-06,3.50816e-06,0
-3.12246e-05,2.55439e-05,-6.03654e-06,1.0609e-05,2.59512e-05,-1.71063e-05,8.63787e-06,3.13945e-06,0
-3.06149e-05,1.80565e-05,-9.34081e-06,1.4446e-05,2.91487e-05,-1.66772e-05,1.00422e-05,2.6e-06,0
-2.97092e-05,1.14942e-05,-1.4174e-05,1.78694e-05,2.92469e-05,-1.49501e-05,1.20475e-05,3.66917e-06,0
-3.00791e-05,2.65025e-06,-1.83489e-05,2.37443e-05,2.71337e-05,-1.29721e-05,1.23554e-05,5.04236e-06,0
-3.13255e-05,-7.16532e-06,-2.11441e-05,3.26203e-05,2.54964e-05,-1.19282e-05,1.18679e-05,4.72558e-06,0
-3.25538e-05,-1.31677e-05,-2.16293e-05,3.39107e-05,2.3739e-05,-1.24539e-05,1.34994e-05,3.30646e-06,0
-3.31378e-05,-1.28129e-05,-2.16611e-05,2.31804e-05,2.11791e-05,-1.33927e-05,1.95519e-05,6.72809e-07,0
-3.15495e-05,-8.85753e-06,-2.16556e-05,4.51237e-06,1.90746e-05,-1.30105e-05,2.93287e-05,-3.85723e-07,0
-2.91241e-05,-5.39569e-06,-2.12963e-05,-1.29286e-05,1.96691e-05,-1.23289e-05,3.76677e-05,1.27449e-06,0
-2.80102e-05,-3.96092e-06,-2.00923e-05,-2.47275e-05,2.20091e-05,-1.24732e-05,4.21444e-05,3.50346e-06,0
-2.85032e-05,-5.00157e-06,-1.85696e-05,-3.57288e-05,2.23067e-05,-1.38639e-05,4.31464e-05,5.15666e-06,0
-2.93081e-05,-5.98813e-06,-1.84887e-05,-4.54801e-05,2.02038e-05,-1.56216e-05,3.94278e-05,5.29339e-06,0
-2.97122e-05,-4.90618e-06,-1.94165e-05,-4.66601e-05,1.77868e-05,-1.6819e-05,3.00761e-05,3.97019e-06,0
-2.89789e-05,-1.40696e-07,-1.80543e-05,-3.70285e-05,1.53422e-05,-1.6556e-05,1.79201e-05,2.84842e-06,0
-2.67681e-05,7.88632e-06,-1.2218e-05,-2.0631e-05,1.25573e-05,-1.53487e-05,3.52372e-06,2.14043e-06,0
-2.44587e-05,1.70716e-05,-6.10853e-06,-7.90639e-07,1.04589e-05,-1.49962e-05,-1.27925e-05,5.28789e-07,0
-2.3837e-05,2.46676e-05,-3.71622e-06,1.77896e-05,9.01528e-06,-1.62825e-05,-2.73705e-05,-2.00848e-06,0
-2.44611e-05,2.74775e-05,-4.22017e-06,3.27386e-05,8.45703e-06,-1.72011e-05,-3.43874e-05,-3.59886e-06,0
-2.50882e-05,2.52611e-05,-4.62e-06,4.33184e-05,9.17759e-06,-1.64852e-05,-3.24423e-05,-2.8941e-06,0
-2.56694e-05,2.0067e-05,-4.79023e-06,4.40199e-05,9.99153e-06,-1.58599e-05,-2.49018e-05,-1.77456e-06,0
-2.62503e-05,1.21782e-05,-4.40209e-06,3.1395e-05,9.61074e-06,-1.77653e-05,-1.5754e-05,-1.55864e-06,0
-2.53241e-05,3.36373e-06,-2.4337e-06,1.64486e-05,8.66342e-06,-2.01303e-05,-8.12319e-06,-2.50457e-06,0
-2.3594e-05,-3.2125e-08,-9.92042e-07,8.44588e-06,8.59856e-06,-1.9835e-05,-3.943e-06,-3.64922e-06,0
-2.50461e-05,4.47912e-06,-9.85775e-07,4.82484e-06,9.8906e-06,-1.8327e-05,-3.46533e-06,-2.19673e-06,0
-2.85602e-05,1.30708e-05,-5.80807e-07,-6.84245e-06,1.17027e-05,-1.7374e-05,-3.42051e-06,7.15134e-08,0
-2.95319e-05,1.9822e-05,1.74872e-06,-3.03912e-05,1.1405e-05,-1.65383e-05,5.3908e-07,2.46199e-07,0
-2.84582e-05,2.42562e-05,3.315e-06,-5.12838e-05,7.79371e-06,-1.65069e-05,6.56581e-06,-2.63518e-08,0
-2.85801e-05,3.38802e-05,1.50871e-07,-5.91753e-05,3.97867e-06,-1.72066e-05,7.17725e-06,-1.00474e-07,0
-2.92634e-05,4.84237e-05,-6.88988e-06,-5.09762e-05,3.38702e-06,-1.8034e-05,-2.38824e-06,-8.15363e-07,0
-3.04354e-05,6.00159e-05,-1.33863e-05,-3.01934e-05,6.80343e-06,-1.86275e-05,-1.45698e-05,-1.76918e-06,0
-3.24713e-05,6.31991e-05,-1.4513e-05,-1.49937e-05,8.15507e-06,-1.83645e-05,-1.90367e-05,-2.17381e-06,0
-3.27209e-05,5.34708e-05,-1.19939e-05,-1.9826e-05,5.86553e-06,-1.74486e-05,-1.26745e-05,-3.01035e-06,0
-3.14722e-05,3.57795e-05,-9.16819e-06,-3.64568e-05,4.08499e-06,-1.58406e-05,1.81699e-06,-5.25961e-06,0
-3.09597e-05,1.6713e-05,-7.18102e-06,-5.08839e-05,2.78756e-06,-1.51486e-05,1.80385e-05,-6.86681e-06,0
-3.00552e-05,-1.27947e-07,-5.6267e-06,-5.37264e-05,2.25131e-06,-1.51251e-05,3.23828e-05,-7.0204e-06,0
-2.8634e-05,-1.16048e-05,-4.11305e-06,-4.3849e-05,2.86964e-06,-1.50024e-05,4.24898e-05,-6.53897e-06,0
-2.83624e-05,-1.44894e-05,-3.0656e-06,-2.64679e-05,5.34049e-06,-1.49516e-05,4.72915e-05,-6.35266e-06,0
-2.92345e-05,-1.01185e-05,-1.56532e-06,-1.44561e-06,9.97151e-06,-1.37867e-05,4.63937e-05,-6.41484e-06,0
-2.98078e-05,-3.0603e-06,-3.99864e-07,3.02617e-05,1.59389e-05,-1.09456e-05,4.22104e-05,-5.55656e-06,0
-2.99731e-05,4.51804e-06,-7.27223e-07,5.80786e-05,2.01026e-05,-7.87095e-06,3.6817e-05,-3.74313e-06,0
-3.01205e-05,1.37115e-05,-2.27943e-06,7.14959e-05,2.12438e-05,-5.76936e-06,3.16221e-05,-1.91613e-06,0
-2.89139e-05,2.46435e-05,-3.68781e-06,6.96246e-05,2.39501e-05,-4.76622e-06,2.91372e-05,-1.5631e-06,0
-2.72326e-05,3.3281e-05,-5.03005e-06,5.48564e-05,2.98032e-05,-4.64349e-06,2.8805e-05,-2.54148e-06,0
-2.75057e-05,3.63699e-05,-6.75031e-06,3.21913e-05,3.2278e-05,-4.60882e-06,2.70049e-05,-3.72295e-06,0
-2.94664e-05,3.23826e-05,-8.70829e-06,1.11662e-05,2.84442e-05,-3.34813e-06,2.33643e-05,-3.25578e-06,0
-3.13596e-05,2.50272e-05,-9.59401e-06,-3.48733e-06,2.36832e-05,-7.59197e-07,2.05565e-05,-1.76795e-06,0
-3.2396e-05,1.84665e-05,-9.93748e-06,-1.18351e-05,2.02026e-05,2.31399e-07,1.86817e-05,-1.9614e-06,0
-3.24934e-05,1.3818e-05,-1.08395e-05,-1.37858e-05,1.55944e-05,-1.46676e-06,1.76709e-05,-1.58096e-06,0
-3.19934e-05,7.13332e-06,-1.10371e-05,-1.00484e-05,1.1778e-05,-4.07739e-06,1.61746e-05,8.63757e-07,0
-3.11458e-05,-2.40425e-06,-9.1236e-06,-6.80882e-07,1.18036e-05,-5.07695e-06,1.2371e-05,1.63601e-06,0
-3.10256e-05,-1.05503e-05,-7.11701e-06,9.19628e-06,1.24883e-05,-3.26455e-06,9.35836e-06,2.53808e-07,0
-3.18185e-05,-1.3887e-05,-8.48161e-06,1.15163e-05,1.05853e-05,-4.44323e-07,9.13318e-06,-7.93725e-07,0
-3.22235e-05,-1.19165e-05,-1.26415e-05,6.65598e-06,8.45643e-06,1.14694e-06,9.30595e-06,-1.97189e-06,0
-3.23619e-05,-8.51359e-06,-1.64879e-05,-1.06997e-06,8.33824e-06,1.46405e-06,9.04658e-06,-1.42652e-06,0
-3.21617e-05,-6.58131e-06,-1.92064e-05,-8.73295e-06,7.42549e-06,3.93776e-07,8.95055e-06,-3.40566e-07,0
-3.20025e-05,-5.09711e-06,-2.13735e-05,-1.11754e-05,5.26693e-06,-2.50929e-06,8.14252e-06,3.12359e-07,0
-3.32668e-05,-3.42256e-06,-2.27507e-05,-5.02638e-06,3.38719e-06,-4.55492e-06,8.48804e-06,1.4487e-06,0
-3.48739e-05,-2.0349e-06,-2.42503e-05,4.62505e-06,2.49887e-06,-3.97959e-06,9.85891e-06,1.09262e-06,0
-3.58044e-05,-1.43956e-06,-2.49728e-05,1.39491e-05,3.01485e-06,-2.77151e-06,9.91981e-06,1.88767e-06,0
-3.55233e-05,-1.3273e-06,-2.22144e-05,2.21686e-05,3.89567e-06,-3.03574e-06,9.72359e-06,3.13042e-06,0
-3.46002e-05,-9.78548e-07,-1.8049e-05,2.73387e-05,5.4912e-06,-3.21207e-06,1.05873e-05,5.17835e-06,0
-3.39017e-05,1.20532e-06,-1.41198e-05,2.69938e-05,7.80268e-06,-2.14367e-06,1.32639e-05,6.50467e-06,0
-3.32514e-05,4.2284e-06,-1.10991e-05,2.06377e-05,8.69993e-06,-1.3301e-06,1.5063e-05,5.93619e-06,0
-3.368e-05,6.60241e-06,-1.13386e-05,8.31157e-06,6.86433e-06,-9.2728e-07,1.53551e-05,5.11739e-06,0
-3.39822e-05,9.2597e-06,-1.30164e-05,-6.87975e-06,4.86285e-06,-7.47322e-07,1.57366e-05,3.54359e-06,0
-3.35572e-05,1.37546e-05,-1.29262e-05,-1.65523e-05,3.88857e-06,-6.94575e-07,1.64132e-05,2.02234e-06,0
-3.32095e-05,1.81855e-05,-1.0513e-05,-1.66263e-05,4.21222e-06,-1.83974e-07,1.63634e-05,2.04546e-06,0
-3.37417e-05,1.95925e-05,-8.32237e-06,-1.00743e-05,5.07685e-06,4.46908e-07,1.5889e-05,4.36337e-06,0
-3.43984e-05,1.91831e-05,-8.42186e-06,-3.45004e-06,5.20648e-06,1.16676e-06,1.57291e-05,5.96274e-06,0
-3.36533e-05,1.70956e-05,-1.02682e-05,-1.40193e-06,6.26987e-06,2.72088e-06,1.5963e-05,5.96393e-06,0
-3.13662e-05,1.42541e-05,-1.1305e-05,-6.53559e-06,1.01412e-05,4.44533e-06,1.74001e-05,4.10805e-06,0
-2.97108e-05,1.27352e-05,-1.10757e-05,-1.629e-05,1.45518e-05,5.46367e-06,1.93296e-05,1.69602e-06,0
-3.08309e-05,1.37468e-05,-1.1108e-05,-2.10344e-05,1.4282e-05,5.28704e-06,1.9604e-05,5.87432e-07,0
-3.24454e-05,1.60201e-05,-1.16452e-05,-1.35719e-05,1.06106e-05,2.89577e-06,1.787e-05,1.00113e-06,0
-3.24879e-05,1.84395e-05,-1.07683e-05,4.39093e-07,8.07106e-06,-2.78255e-07,1.64927e-05,1.19086e-06,0
-3.23377e-05,1.96958e-05,-8.58351e-06,8.30655e-06,8.03922e-06,-2.53936e-06,1.55883e-05,1.27832e-06,0
-3.25575e-05,1.87679e-05,-6.6559e-06,3.10515e-06,8.04724e-06,-3.47631e-06,1.45559e-05,2.15591e-06,0
-3.20212e-05,1.71514e-05,-5.50693e-06,-1.10802e-05,8.05072e-06,-3.73869e-06,1.35719e-05,3.06727e-06,0
-3.08969e-05,1.73843e-05,-5.26451e-06,-2.24247e-05,1.19224e-05,-6.03224e-06,1.36128e-05,2.40039e-06,0
-3.00263e-05,1.93003e-05,-6.52358e-06,-2.40127e-05,1.66833e-05,-8.71327e-06,1.44271e-05,3.60902e-07,0
-2.95297e-05,2.17421e-05,-8.48068e-06,-1.78571e-05,1.78278e-05,-9.30208e-06,1.39206e-05,-1.56233e-06,0
-2.86449e-05,2.31256e-05,-8.82461e-06,-8.41776e-06,1.52038e-05,-8.78945e-06,1.22655e-05,-2.13252e-06,0
-2.7529e-05,2.38716e-05,-9.52762e-06,-1.20073e-06,1.1998e-05,-9.31643e-06,1.10479e-05,-2.0261e-06,0
-2.7424e-05,2.28822e-05,-9.93455e-06,-3.57339e-07,1.1788e-05,-1.11959e-05,1.1021e-05,-2.05601e-06,0
-2.87205e-05,2.01066e-05,-9.62401e-06,-4.77003e-06,1.28672e-05,-1.17584e-05,1.09929e-05,4.97729e-07,0
-2.9696e-05,1.94305e-05,-9.90789e-06,-1.03852e-05,1.31128e-05,-1.04149e-05,1.19335e-05,4.47568e-06,0
-2.98907e-05,2.11384e-05,-1.01871e-05,-1.57981e-05,1.14361e-05,-8.63787e-06,1.2849e-05,6.95024e-06,0
-2.94697e-05,2.34252e-05,-9.28114e-06,-2.75029e-05,1.04782e-05,-7.61873e-06,1.15836e-05,6.48687e-06,0
-2.96551e-05,2.46481e-05,-7.92239e-06,-4.90168e-05,1.01998e-05,-7.9539e-06,1.01779e-05,4.91083e-06,0
-3.00739e-05,2.44106e-05,-7.50404e-06,-6.35504e-05,9.293e-06,-7.8857e-06,8.57627e-06,4.35038e-06,0
-3.04333e-05,2.30828e-05,-7.67431e-06,-5.79841e-05,9.2871e-06,-6.71444e-06,6.57227e-06,5.27902e-06,0
-3.09032e-05,2.08722e-05,-8.32094e-06,-4.55616e-05,8.90004e-06,-5.42795e-06,6.49585e-06,6.12776e-06,0
-3.10862e-05,1.81552e-05,-8.39123e-06,-3.71332e-05,8.07207e-06,-4.78176e-06,9.31081e-06,6.20007e-06,0
-3.10579e-05,1.54801e-05,-7.85403e-06,-2.20611e-05,7.53704e-06,-5.18025e-06,1.14742e-05,6.87973e-06,0
-3.05119e-05,1.30195e-05,-6.98219e-06,7.97011e-06,7.68536e-06,-6.24965e-06,1.17406e-05,8.80728e-06,0
-2.98643e-05,1.2401e-05,-5.89297e-06,4.01249e-05,7.87044e-06,-7.10761e-06,1.17134e-05,1.0856e-05,0
-2.82492e-05,1.37678e-05,-4.11677e-06,5.24714e-05,8.05324e-06,-7.10313e-06,1.22374e-05,1.14213e-05,0
-2.58656e-05,1.52774e-05,-2.87911e-06,3.60898e-05,8.58164e-06,-7.05241e-06,1.21067e-05,1.03438e-05,0
-2.40525e-05,1.45741e-05,-3.19991e-06,5.20506e-06,8.87394e-06,-7.80454e-06,1.11719e-05,7.75434e-06,0
-2.43156e-05,1.05268e-05,-4.8114e-06,-2.13571e-05,6.90213e-06,-9.59868e-06,1.12635e-05,5.23939e-06,0
-2.59432e-05,4.18517e-06,-7.09599e-06,-4.09762e-05,2.19971e-06,-1.09488e-05,1.15258e-05,3.46571e-06,0
-2.78778e-05,1.69388e-07,-8.27652e-06,-6.27153e-05,-8.60328e-07,-1.15524e-05,1.10819e-05,1.68927e-06,0
-2.8757e-05,4.20617e-07,-8.62269e-06,-8.35484e-05,2.40735e-06,-1.23679e-05,1.01149e-05,-2.56557e-07,0
-2.82142e-05,1.88804e-06,-9.23684e-06,-8.03911e-05,9.77258e-06,-1.29161e-05,1.05032e-05,-3.06891e-06,0
-2.8526e-05,7.48851e-07,-8.55615e-06,-4.52081e-05,1.66402e-05,-1.25829e-05,1.17862e-05,-5.41887e-06,0
-2.91374e-05,-1.48154e-06,-5.58244e-06,-4.37197e-06,2.10806e-05,-1.19946e-05,1.08382e-05,-5.04166e-06,0
-2.99218e-05,-3.041e-06,-2.71284e-06,2.23524e-05,2.28758e-05,-1.13115e-05,8.44401e-06,-3.90728e-06,0
-3.12266e-05,-5.31713e-06,-1.30431e-06,4.14717e-05,2.2696e-05,-1.09264e-05,6.99845e-06,-4.74322e-06,0
-3.11908e-05,-6.15072e-06,1.43398e-07,5.67058e-05,2.17163e-05,-1.14187e-05,7.33893e-06,-6.87153e-06,0
-3.12298e-05,-6.68967e-06,1.64317e-06,5.20876e-05,2.19009e-05,-1.20241e-05,7.43579e-06,-8.06724e-06,0
-3.14585e-05,-6.73432e-06,1.97954e-06,2.1641e-05,2.1444e-05,-1.28987e-05,8.36025e-06,-7.30796e-06,0
-3.1905e-05,-5.55065e-06,2.57349e-06,-6.9218e-06,1.89159e-05,-1.51545e-05,1.12467e-05,-5.29118e-06,0
-3.23168e-05,-4.53377e-06,3.98804e-06,-1.32712e-05,1.65034e-05,-1.63081e-05,1.44938e-05,-4.30122e-06,0
-3.21692e-05,-3.94234e-06,4.59989e-06,-7.3311e-06,1.67438e-05,-1.62851e-05,1.67222e-05,-4.2247e-06,0
-3.22609e-05,-4.0734e-06,2.94087e-06,-6.17177e-06,1.9117e-05,-1.64422e-05,1.53872e-05,-3.20971e-06,0
-3.20283e-05,-4.37874e-06,7.50102e-07,-1.56788e-05,2.13815e-05,-1.54741e-05,1.33183e-05,-1.81841e-06,0
-3.08509e-05,-5.23264e-06,4.35634e-07,-2.89094e-05,2.23473e-05,-1.51206e-05,1.12433e-05,-1.5161e-06,0
-2.9678e-05,-6.8705e-06,5.30861e-07,-3.64803e-05,2.38581e-05,-1.59243e-05,1.0634e-05,-2.0938e-06,0
-2.91038e-05,-8.12369e-06,-1.06537e-06,-3.58273e-05,2.59237e-05,-1.65545e-05,1.21613e-05,-2.66925e-06,0
-2.83135e-05,-8.31771e-06,-3.2859e-06,-3.15413e-05,2.51377e-05,-1.54503e-05,1.39758e-05,-2.99887e-06,0
-2.81032e-05,-8.09706e-06,-4.48201e-06,-3.02558e-05,2.13591e-05,-1.3077e-05,1.45136e-05,-3.57405e-06,0
-2.85579e-05,-6.86242e-06,-5.31237e-06,-3.52817e-05,1.74099e-05,-1.22467e-05,1.42868e-05,-3.69614e-06,0
-2.8724e-05,-3.29785e-06,-7.31197e-06,-4.1615e-05,1.62985e-05,-1.48111e-05,1.4698e-05,-1.96695e-06,0
-2.81137e-05,2.43646e-06,-9.15636e-06,-4.47221e-05,1.71929e-05,-1.81861e-05,1.42699e-05,-9.32386e-08,0
-2.91642e-05,8.64292e-06,-8.36322e-06,-4.60276e-05,1.8221e-05,-2.01572e-05,1.19062e-05,-4.68524e-07,0
-3.22949e-05,1.30474e-05,-6.55608e-06,-4.72708e-05,1.91476e-05,-2.14178e-05,8.63959e-06,-2.21228e-06,0
-3.43646e-05,1.51885e-05,-6.80088e-06,-4.46985e-05,2.02891e-05,-2.17644e-05,6.5608e-06,-3.08583e-06,0
-3.33671e-05,1.58776e-05,-9.76166e-06,-3.11713e-05,2.1187e-05,-2.1093e-05,5.78316e-06,-2.5794e-06,0
-3.09006e-05,1.57567e-05,-1.34695e-05,-6.45969e-06,1.96092e-05,-2.08883e-05,6.71631e-06,-1.06334e-06,0
-2.88732e-05,1.6261e-05,-1.45844e-05,2.02171e-05,1.6479e-05,-2.09354e-05,7.50703e-06,-3.52027e-07,0
-2.90337e-05,1.68926e-05,-1.36957e-05,3.25103e-05,1.51972e-05,-2.00812e-05,5.86402e-06,-7.74849e-07,0
-3.06668e-05,1.5062e-05,-1.40909e-05,1.14368e-05,1.41887e-05,-2.02069e-05,1.76469e-06,-4.10173e-07,0
-3.17968e-05,1.34946e-05,-1.5745e-05,-3.54002e-05,1.10477e-05,-2.05416e-05,-4.36985e-08,1.95446e-06,0
-3.16973e-05,1.39453e-05,-1.56971e-05,-7.6522e-05,6.0994e-06,-1.91973e-05,1.81763e-06,4.16988e-06,0
-3.06505e-05,1.10312e-05,-1.41877e-05,-9.09989e-05,1.92286e-06,-1.73336e-05,4.83633e-06,5.01217e-06,0
-3.13899e-05,6.19113e-06,-1.3692e-05,-8.35685e-05,6.38202e-08,-1.71424e-05,7.80228e-06,3.79601e-06,0
-3.2632e-05,6.81452e-06,-1.55049e-05,-5.93317e-05,1.22256e-06,-1.78786e-05,1.05672e-05,1.40046e-06,0
-3.17728e-05,1.31615e-05,-1.89298e-05,-1.7258e-05,5.154e-06,-1.65564e-05,1.20205e-05,1.43417e-06,0
-3.11597e-05,1.99095e-05,-2.12874e-05,2.54073e-05,8.64863e-06,-1.39679e-05,1.31484e-05,2.6498e-06,0
-3.07692e-05,2.44073e-05,-2.25347e-05,5.29225e-05,1.1605e-05,-1.2331e-05,1.49944e-05,4.258e-06,0
-2.93424e-05,2.63264e-05,-2.15129e-05,5.8889e-05,1.45381e-05,-1.1273e-05,1.54514e-05,5.04146e-06,0
-2.86832e-05,2.71368e-05,-1.8596e-05,5.61702e-05,1.66589e-05,-1.04911e-05,1.50355e-05,5.57546e-06,0
-2.86973e-05,2.97085e-05,-1.5116e-05,5.67233e-05,1.62109e-05,-1.13266e-05,1.56777e-05,5.83991e-06,0
-2.89814e-05,3.25678e-05,-1.14578e-05,7.21062e-05,1.43261e-05,-1.35357e-05,1.75375e-05,5.30068e-06,0
-2.87015e-05,3.34288e-05,-8.15887e-06,0.000101749,1.4431e-05,-1.49273e-05,1.88032e-05,6.69713e-06,0
-2.74535e-05,3.28993e-05,-5.62659e-06,0.000115838,1.72502e-05,-1.52803e-05,1.86691e-05,9.53067e-06,0
-2.59317e-05,3.33034e-05,-4.32266e-06,9.53311e-05,1.96375e-05,-1.51307e-05,1.72902e-05,1.04979e-05,0
-2.65986e-05,3.40578e-05,-5.34708e-06,5.81901e-05,1.7539e-05,-1.46781e-05,1.54002e-05,8.51583e-06,0
-2.94894e-05,3.4082e-05,-7.54427e-06,2.71167e-05,1.14139e-05,-1.46486e-05,1.50941e-05,4.83544e-06,0
-3.12323e-05,3.37363e-05,-7.7667e-06,-2.12507e-06,4.85643e-06,-1.52757e-05,1.7562e-05,8.14789e-07,0
-3.06024e-05,3.26087e-05,-6.66083e-06,-3.52389e-05,1.67774e-06,-1.49245e-05,2.07592e-05,-2.21843e-06,0
-2.91551e-05,3.11822e-05,-5.31777e-06,-6.7557e-05,9.63328e-07,-1.30839e-05,2.26061e-05,-4.84565e-06,0
-2.81155e-05,3.04777e-05,-3.37412e-06,-7.81349e-05,5.44591e-07,-1.11476e-05,2.2923e-05,-6.70473e-06,0
-2.7052e-05,3.10313e-05,-1.27449e-06,-5.34521e-05,1.2316e-06,-9.77513e-06,2.12884e-05,-6.59303e-06,0
-2.60755e-05,3.22578e-05,-1.67143e-06,-2.43301e-07,2.80656e-06,-9.07773e-06,1.74809e-05,-5.24948e-06,0
-2.51991e-05,3.28372e-05,-4.09829e-06,6.33448e-05,4.9282e-06,-8.7766e-06,1.48423e-05,-3.50226e-06,0
-2.4166e-05,3.49437e-05,-4.30067e-06,0.000116406,8.50184e-06,-8.18115e-06,1.52016e-05,-3.72625e-07,0
-2.42214e-05,4.04959e-05,-1.06774e-06,0.000138039,1.31466e-05,-6.93338e-06,1.62976e-05,1.70441e-06,0
-2.46716e-05,4.47095e-05,4.16235e-07,0.00011923,1.65144e-05,-5.03435e-06,1.62536e-05,9.87517e-07,0
-2.36347e-05,4.25279e-05,-2.92142e-08,8.09714e-05,1.75976e-05,-3.39416e-06,1.59998e-05,1.2745e-07,0
-2.24308e-05,3.65635e-05,7.08116e-07,5.5041e-05,1.88733e-05,-3.32298e-06,1.5772e-05,1.01459e-06,0
-2.26344e-05,3.27991e-05,1.73239e-06,4.49835e-05,2.05304e-05,-4.17759e-06,1.52489e-05,3.88002e-07,0
-2.38464e-05,2.84159e-05,1.90409e-06,3.21455e-05,2.41011e-05,-4.85266e-06,1.48978e-05,-2.16902e-06,0
-2.44113e-05,2.31072e-05,1.43337e-06,1.00919e-05,3.12934e-05,-4.96994e-06,1.69181e-05,-3.82908e-06,0
-2.44057e-05,1.92868e-05,2.37494e-06,-9.69255e-06,3.57936e-05,-5.87856e-06,2.41909e-05,-5.47105e-06,0
-2.54272e-05,1.44988e-05,3.90396e-06,-2.53059e-05,3.40723e-05,-6.97873e-06,3.44845e-05,-7.17917e-06,0
-2.83018e-05,8.07312e-06,3.44694e-06,-4.1512e-05,2.90987e-05,-7.53972e-06,4.20976e-05,-7.71148e-06,0
-3.05174e-05,1.64341e-06,2.42678e-06,-5.53334e-05,2.59562e-05,-8.67133e-06,4.34949e-05,-6.25131e-06,0
-3.12387e-05,-1.88878e-06,1.62643e-06,-6.04367e-05,2.60475e-05,-1.10217e-05,3.91419e-05,-3.65236e-06,0
-3.09591e-05,-1.32176e-06,4.67327e-07,-5.69343e-05,2.73708e-05,-1.32718e-05,3.22264e-05,1.27559e-07,0
-3.05774e-05,3.3701e-06,-8.47771e-07,-4.58139e-05,2.83263e-05,-1.40797e-05,2.32046e-05,2.87045e-06,0
-3.15785e-05,9.55496e-06,-2.54133e-06,-2.79885e-05,2.81088e-05,-1.42149e-05,1.2803e-05,3.17248e-06,0
-3.20692e-05,1.36572e-05,-3.86871e-06,-1.11348e-05,2.65658e-05,-1.40742e-05,2.79929e-06,3.09736e-06,0
-3.13895e-05,1.52203e-05,-5.68136e-06,3.79708e-06,2.37486e-05,-1.39768e-05,-6.06758e-06,3.90865e-06,0
-3.14677e-05,1.50772e-05,-8.35834e-06,1.6219e-05,2.02262e-05,-1.34907e-05,-1.18498e-05,5.22438e-06,0
-3.30337e-05,1.3881e-05,-1.11109e-05,2.35483e-05,1.66511e-05,-1.29321e-05,-1.27836e-05,6.67835e-06,0
-3.45312e-05,1.31581e-05,-1.2976e-05,2.50485e-05,1.54394e-05,-1.28143e-05,-9.73572e-06,8.40504e-06,0
-3.51843e-05,1.36489e-05,-1.38037e-05,2.93938e-05,1.72887e-05,-1.3981e-05,-5.42787e-06,9.41607e-06,0
-3.49658e-05,1.4031e-05,-1.48154e-05,3.9851e-05,1.86116e-05,-1.58838e-05,-1.92125e-06,9.29435e-06,0
-3.44339e-05,1.18591e-05,-1.66042e-05,4.52526e-05,1.58767e-05,-1.61251e-05,-1.18061e-06,9.1399e-06,0
-3.41262e-05,7.96256e-06,-1.76645e-05,3.31384e-05,1.09467e-05,-1.42101e-05,-2.1201e-06,8.69441e-06,0
-3.48685e-05,5.64327e-06,-1.79829e-05,8.38715e-06,6.65832e-06,-1.26346e-05,-2.31968e-06,6.87126e-06,0
-3.59839e-05,4.2194e-06,-1.91329e-05,-1.83967e-05,2.92037e-06,-1.26041e-05,-1.01474e-06,5.07944e-06,0
-3.57966e-05,2.45711e-06,-2.08363e-05,-4.1663e-05,6.06211e-07,-1.28683e-05,-4.90575e-07,3.86226e-06,0
-3.53935e-05,9.15667e-07,-2.20869e-05,-5.98238e-05,1.85385e-06,-1.26344e-05,-1.59413e-06,3.03686e-06,0
