ch1,ch2,ch3,ch4,ch5,ch6,ch7,ch8,class
-3.28145e-05,-1.1696e-06,-9.36649e-06,-8.36056e-06,-6.76858e-07,-8.0369e-06,2.5298e-05,-1.09172e-06,0
-3.25221e-05,1.1544e-06,-9.87156e-06,-7.90212e-06,8.49888e-08,-7.61486e-06,2.96872e-05,-1.04389e-06,0
-3.09084e-05,2.01721e-06,-1.11719e-05,-6.92565e-06,1.247e-06,-5.14151e-06,2.98882e-05,-5.2528e-07,0
-2.98173e-05,1.47517e-06,-1.18429e-05,-6.7913e-06,3.16205e-06,-2.70898e-06,2.8485e-05,-1.32603e-06,0
-2.94043e-05,2.11563e-06,-1.12741e-05,-8.33516e-06,6.64651e-06,-2.29761e-06,2.5176e-05,-2.21308e-06,0
-2.93894e-05,5.24636e-06,-9.22399e-06,-9.85384e-06,9.58527e-06,-3.2546e-06,1.98127e-05,-8.53218e-07,0
-2.96375e-05,8.27386e-06,-6.98706e-06,-1.02026e-05,9.24127e-06,-4.45789e-06,1.36777e-05,2.15559e-06,0
-2.9191e-05,7.4315e-06,-5.49807e-06,-9.63041e-06,7.91422e-06,-4.95268e-06,5.83207e-06,3.14916e-06,0
-2.7579e-05,5.25733e-06,-4.52386e-06,-9.21552e-06,8.9104e-06,-5.54475e-06,-2.7426e-06,3.21725e-06,0
-2.71827e-05,6.79734e-06,-4.537e-06,-1.00671e-05,1.167e-05,-5.69909e-06,-9.21507e-06,3.87691e-06,0
-2.88146e-05,1.00553e-05,-4.92405e-06,-1.09002e-05,1.10722e-05,-5.94049e-06,-1.13386e-05,4.11432e-06,0
-3.06785e-05,1.14619e-05,-4.97826e-06,-1.06455e-05,7.68857e-06,-7.91498e-06,-9.4765e-06,3.73953e-06,0
-3.30237e-05,1.08609e-05,-4.06522e-06,-1.01729e-05,5.50637e-06,-9.30551e-06,-7.30701e-06,2.19202e-06,0
-3.36198e-05,9.75984e-06,-3.10467e-06,-1.00488e-05,6.40853e-06,-1.03225e-05,-5.0377e-06,1.74703e-06,0
-3.30286e-05,9.10988e-06,-3.9157e-06,-1.08635e-05,9.77206e-06,-9.6338e-06,-1.18061e-06,3.15469e-06,0
-3.27306e-05,8.85223e-06,-5.6709e-06,-1.19797e-05,1.14619e-05,-6.96554e-06,2.8624e-06,4.42134e-06,0
-3.14673e-05,8.62123e-06,-6.42236e-06,-1.22489e-05,1.22857e-05,-5.0555e-06,5.64254e-06,4.80808e-06,0
-3.0672e-05,8.53726e-06,-7.63344e-06,-1.2355e-05,1.15423e-05,-5.45726e-06,7.7754e-06,5.06088e-06,0
-3.05315e-05,9.5036e-06,-9.72316e-06,-1.33333e-05,9.19855e-06,-7.2349e-06,9.88285e-06,6.13409e-06,0
-3.07472e-05,1.20719e-05,-1.22611e-05,-1.42486e-05,6.63403e-06,-7.7773e-06,1.14716e-05,7.09753e-06,0
-3.11856e-05,1.54599e-05,-1.36146e-05,-1.30881e-05,5.1074e-06,-8.46461e-06,1.20759e-05,6.8724e-06,0
-3.20449e-05,1.70986e-05,-1.54876e-05,-1.17707e-05,5.17157e-06,-1.06072e-05,1.17978e-05,5.63853e-06,0
-3.16819e-05,1.72135e-05,-1.88526e-05,-1.16472e-05,5.97128e-06,-1.22458e-05,1.04019e-05,4.39162e-06,0
-3.014e-05,1.6806e-05,-1.99629e-05,-1.17518e-05,5.9315e-06,-1.09473e-05,9.04659e-06,4.52141e-06,0
-2.95403e-05,1.51281e-05,-1.74343e-05,-1.18086e-05,4.60865e-06,-8.4807e-06,8.97806e-06,4.71992e-06,0
-2.98699e-05,1.21592e-05,-1.30658e-05,-1.15778e-05,3.85885e-06,-7.32394e-06,9.92116e-06,4.39968e-06,0
-2.97849e-05,1.03565e-05,-1.08447e-05,-1.07629e-05,4.52582e-06,-6.71522e-06,1.12303e-05,4.90185e-06,0
-3.00521e-05,1.14466e-05,-1.04753e-05,-1.09177e-05,5.22928e-06,-6.40763e-06,1.2156e-05,5.06953e-06,0
-3.1207e-05,1.25468e-05,-9.78335e-06,-1.33428e-05,4.85628e-06,-7.22162e-06,1.41659e-05,3.51452e-06,0
-3.11656e-05,1.36615e-05,-8.23425e-06,-1.56046e-05,4.13882e-06,-8.71833e-06,1.79913e-05,2.15242e-06,0
-3.00381e-05,1.71921e-05,-7.19181e-06,-1.47197e-05,5.05279e-06,-9.59851e-06,2.16192e-05,3.31468e-06,0
-2.87378e-05,2.14927e-05,-6.00738e-06,-1.21266e-05,8.63549e-06,-9.15035e-06,2.35767e-05,5.64054e-06,0
-2.84614e-05,2.23759e-05,-4.97728e-06,-9.03267e-06,1.17366e-05,-8.02188e-06,2.29886e-05,7.1348e-06,0
-2.94078e-05,2.05464e-05,-4.29252e-06,-6.97328e-06,1.22083e-05,-7.24893e-06,1.9968e-05,7.25264e-06,0
-3.0919e-05,1.92622e-05,-2.77175e-06,-7.94231e-06,1.18344e-05,-6.97181e-06,1.70715e-05,6.84048e-06,0
-3.14568e-05,1.82934e-05,-1.27298e-06,-6.96723e-06,1.19785e-05,-8.15059e-06,1.52205e-05,6.31679e-06,0
-3.13342e-05,1.67643e-05,4.28668e-07,-2.24269e-06,1.13281e-05,-1.17291e-05,1.37805e-05,5.03411e-06,0
-3.11651e-05,1.67608e-05,1.23189e-06,1.40724e-06,1.01201e-05,-1.43859e-05,1.09508e-05,4.20487e-06,0
-3.123e-05,1.77265e-05,1.51831e-06,4.43597e-06,1.18095e-05,-1.40199e-05,8.18411e-06,4.34086e-06,0
-3.16068e-05,1.76642e-05,5.30273e-07,9.20036e-06,1.8595e-05,-1.29204e-05,6.86427e-06,2.91254e-06,0
-3.06873e-05,1.99369e-05,-4.50153e-07,1.94931e-05,2.39954e-05,-1.18931e-05,5.15713e-06,-7.89748e-07,0
-2.98552e-05,2.32202e-05,-5.53698e-07,3.69012e-05,2.25145e-05,-1.24179e-05,4.04548e-06,-3.41959e-06,0
-2.88689e-05,2.33872e-05,-1.05845e-06,4.6977e-05,1.69695e-05,-1.24252e-05,5.56525e-06,-3.20966e-06,0
-2.85587e-05,2.14041e-05,-1.9648e-06,4.35511e-05,1.20657e-05,-1.12473e-05,9.2738e-06,-1.77583e-06,0
-3.06257e-05,1.99767e-05,-5.21594e-06,3.3584e-05,1.08861e-05,-1.01728e-05,1.15226e-05,-6.46224e-08,0
-3.26817e-05,2.15171e-05,-9.28897e-06,2.38509e-05,1.24217e-05,-8.56275e-06,1.15262e-05,1.72477e-06,0
-3.36857e-05,2.35633e-05,-1.11165e-05,1.67742e-05,1.46567e-05,-7.03933e-06,1.06399e-05,3.14856e-06,0
-3.41422e-05,2.46611e-05,-1.12263e-05,5.79427e-06,1.74459e-05,-5.59349e-06,1.02871e-05,3.13378e-06,0
-3.41152e-05,2.53322e-05,-1.09581e-05,-1.01021e-05,1.89819e-05,-4.90581e-06,1.19675e-05,1.58562e-06,0
-3.3449e-05,2.50903e-05,-1.03496e-05,-2.4332e-05,1.96571e-05,-3.76304e-06,1.47816e-05,3.06114e-07,0
-3.30093e-05,2.38563e-05,-9.62443e-06,-3.25339e-05,2.22242e-05,-1.10657e-06,1.4917e-05,9.80169e-07,0
-3.32631e-05,2.33476e-05,-8.79419e-06,-3.85625e-05,2.53007e-05,2.0232e-06,7.90361e-06,2.94664e-06,0
-3.36975e-05,2.43713e-05,-8.88745e-06,-4.60644e-05,2.67016e-05,3.65494e-06,-3.95047e-06,3.41405e-06,0
-3.21483e-05,2.48778e-05,-1.01335e-05,-5.36395e-05,2.67761e-05,3.26564e-06,-1.10714e-05,1.97703e-06,0
-2.85253e-05,2.45245e-05,-1.13966e-05,-5.59809e-05,2.69238e-05,1.61729e-06,-7.32905e-06,2.09867e-07,0
-2.65402e-05,2.48101e-05,-1.07028e-05,-5.09926e-05,2.68816e-05,-3.79502e-07,4.51012e-06,-7.98197e-07,0
-2.72236e-05,2.55409e-05,-7.89099e-06,-4.33651e-05,2.67087e-05,-1.48318e-06,1.85244e-05,-9.43033e-07,0
-2.81226e-05,2.48917e-05,-4.93555e-06,-3.78636e-05,2.46131e-05,-1.4753e-06,3.06933e-05,-1.2677e-06,0
-2.72657e-05,2.39619e-05,-4.73821e-06,-3.51525e-05,2.18842e-05,-1.13856e-06,4.03871e-05,-1.76464e-06,0
-2.58045e-05,2.30813e-05,-7.14522e-06,-3.44571e-05,1.89636e-05,-8.91869e-07,4.61418e-05,-4.92744e-07,0
-2.60053e-05,2.10154e-05,-7.99398e-06,-3.13158e-05,1.72005e-05,-1.36598e-06,4.52383e-05,2.432e-06,0
-2.7115e-05,1.82167e-05,-7.20604e-06,-2.23095e-05,1.86698e-05,-5.07008e-06,3.94471e-05,4.48966e-06,0
-2.7251e-05,1.6562e-05,-7.37185e-06,-1.48649e-05,1.98052e-05,-8.29663e-06,3.37722e-05,5.16351e-06,0
-2.76934e-05,1.52682e-05,-8.78918e-06,-1.31319e-05,1.98236e-05,-7.22011e-06,3.18681e-05,4.68773e-06,0
-2.89163e-05,1.40515e-05,-1.06973e-05,-1.23059e-05,1.832e-05,-5.85012e-06,3.1649e-05,3.88235e-06,0
-2.90978e-05,1.28681e-05,-1.2185e-05,-1.53799e-06,1.62412e-05,-5.77555e-06,2.934e-05,1.71262e-06,0
-2.86215e-05,1.10023e-05,-1.12577e-05,2.09571e-05,1.51066e-05,-7.26936e-06,2.43925e-05,-1.89584e-06,0
-2.74749e-05,9.52245e-06,-9.37429e-06,4.01892e-05,1.65596e-05,-8.23871e-06,1.76574e-05,-4.03714e-06,0
-2.66579e-05,9.41419e-06,-7.47631e-06,4.42286e-05,1.91855e-05,-8.46874e-06,1.1565e-05,-4.06915e-06,0
-2.76228e-05,9.41841e-06,-7.40458e-06,3.43014e-05,1.9646e-05,-9.59106e-06,7.46351e-06,-2.1733e-06,0
-2.82679e-05,8.14268e-06,-1.03876e-05,1.71757e-05,1.51413e-05,-1.00974e-05,5.04445e-06,-1.14178e-06,0
-2.76853e-05,6.16357e-06,-1.22371e-05,-1.1637e-08,7.43728e-06,-9.49744e-06,4.25383e-06,-7.4955e-07,0
-2.67769e-05,4.0269e-06,-1.21032e-05,-1.38961e-05,1.14379e-06,-8.62559e-06,3.18231e-06,8.31257e-07,0
-2.73061e-05,3.00629e-06,-1.19292e-05,-2.38251e-05,1.19699e-08,-7.92592e-06,1.78626e-06,1.87836e-06,0
-3.0168e-05,2.04387e-06,-1.28838e-05,-2.86063e-05,6.51428e-06,-6.01245e-06,8.57461e-07,1.91241e-06,0
-3.28778e-05,-6.68634e-07,-1.41081e-05,-2.73656e-05,1.70738e-05,-3.8243e-06,-2.75654e-07,2.85284e-06,0
-3.18999e-05,-3.97204e-06,-1.3546e-05,-2.03169e-05,2.71165e-05,-1.6576e-06,-3.84686e-06,4.36396e-06,0
-2.90703e-05,-5.78469e-06,-1.15601e-05,-1.13693e-05,3.44569e-05,-3.55801e-10,-1.0853e-05,5.27135e-06,0
-2.84411e-05,-5.41845e-06,-1.00761e-05,-3.23541e-06,3.92162e-05,7.56835e-07,-1.67385e-05,5.65897e-06,0
-3.06176e-05,-3.22153e-06,-1.04001e-05,4.48043e-06,4.05405e-05,1.47061e-07,-1.63502e-05,5.02825e-06,0
-3.28149e-05,-1.35473e-06,-1.09329e-05,1.35359e-05,4.03683e-05,-1.51509e-06,-9.26297e-06,3.86252e-06,0
-3.28902e-05,-1.13455e-06,-9.65726e-06,2.53549e-05,4.1802e-05,-2.27096e-06,1.30793e-06,3.71272e-06,0
-3.1533e-05,-6.39942e-07,-5.72524e-06,3.5384e-05,4.46566e-05,-6.10235e-07,1.20381e-05,5.31747e-06,0
-2.99182e-05,1.17277e-06,-2.3934e-06,3.45134e-05,4.39763e-05,1.36244e-06,1.84045e-05,5.94282e-06,0
-2.92532e-05,1.65245e-06,-3.39723e-06,2.17182e-05,3.78971e-05,2.07183e-07,1.80345e-05,4.99003e-06,0
-2.98521e-05,-4.02716e-07,-6.28631e-06,4.86632e-06,3.09341e-05,-4.03796e-06,1.56352e-05,4.79251e-06,0
-2.98679e-05,-2.18541e-06,-6.80661e-06,-8.30088e-06,2.61013e-05,-8.15516e-06,1.7058e-05,5.11537e-06,0
-2.96728e-05,-2.54304e-06,-4.61331e-06,-1.68882e-05,2.2291e-05,-8.9893e-06,2.03397e-05,5.04357e-06,0
-3.07682e-05,-1.49785e-06,-3.64336e-06,-2.1932e-05,1.80705e-05,-9.41979e-06,2.28078e-05,4.28626e-06,0
-3.21684e-05,-3.25989e-07,-3.14179e-06,-2.18955e-05,1.42966e-05,-9.38906e-06,2.37441e-05,2.49049e-06,0
-3.20258e-05,-6.1277e-07,-2.23625e-06,-1.65342e-05,1.24046e-05,-8.42274e-06,2.36053e-05,1.81967e-06,0
-3.04362e-05,-9.85524e-07,-2.93202e-06,-8.68664e-06,1.41441e-05,-6.65512e-06,2.34512e-05,9.5221e-07,0
-3.01206e-05,-2.49729e-07,-3.73292e-06,2.01514e-06,1.8434e-05,-5.43017e-06,2.27435e-05,-1.6668e-06,0
-2.90488e-05,2.18816e-06,-4.23912e-06,1.77929e-05,2.3303e-05,-6.88283e-06,2.10584e-05,-3.96299e-06,0
-2.7396e-05,5.87247e-06,-3.85008e-06,3.19874e-05,2.45011e-05,-9.05665e-06,2.03722e-05,-4.56864e-06,0
-2.698e-05,8.54805e-06,-2.36684e-06,3.88251e-05,1.91458e-05,-1.14627e-05,2.28352e-05,-3.58335e-06,0
-2.74735e-05,8.34027e-06,-1.16917e-06,3.55921e-05,1.03433e-05,-1.28025e-05,2.40048e-05,-4.0786e-06,0
-2.6521e-05,7.17369e-06,1.50529e-07,2.61843e-05,2.69482e-06,-1.42096e-05,2.17936e-05,-6.2778e-06,0
-2.47457e-05,8.25337e-06,-7.68072e-07,1.68355e-05,-8.59584e-07,-1.64039e-05,1.86011e-05,-7.36406e-06,0
-2.49545e-05,1.11485e-05,-3.1343e-06,1.12071e-05,-2.22063e-06,-1.82171e-05,1.75024e-05,-6.45772e-06,0
-2.77331e-05,1.35035e-05,-5.85651e-06,8.2464e-06,-1.88731e-06,-1.91932e-05,1.80182e-05,-4.61234e-06,0
-3.14773e-05,1.34549e-05,-8.90361e-06,2.92319e-06,-5.7601e-07,-1.87793e-05,1.73752e-05,-4.34794e-06,0
-3.28881e-05,1.16613e-05,-1.11562e-05,-7.10299e-06,-2.09258e-06,-1.80113e-05,1.56212e-05,-5.64564e-06,0
-3.32156e-05,1.0512e-05,-1.17426e-05,-2.06316e-05,-4.3781e-06,-1.76062e-05,1.36678e-05,-6.17118e-06,0
-3.30326e-05,1.0996e-05,-1.07838e-05,-3.1025e-05,-4.69637e-06,-1.77709e-05,1.2793e-05,-4.29346e-06,0
-3.29037e-05,1.16979e-05,-8.88869e-06,-3.73059e-05,-3.70211e-06,-1.84861e-05,1.38048e-05,-1.88879e-06,0
-3.22953e-05,1.06864e-05,-6.14029e-06,-4.18708e-05,-3.51572e-06,-2.02101e-05,1.52118e-05,-2.43208e-06,0
-3.22536e-05,8.78102e-06,-5.23088e-06,-4.54315e-05,-3.39351e-06,-2.20926e-05,1.52811e-05,-3.88566e-06,0
-3.34688e-05,8.08659e-06,-7.52516e-06,-4.56564e-05,-1.99113e-06,-2.29886e-05,1.376e-05,-2.09126e-06,0
-3.37045e-05,8.57721e-06,-1.05947e-05,-4.23378e-05,-1.04727e-06,-2.25575e-05,1.14973e-05,1.63147e-06,0
-3.18116e-05,8.99092e-06,-9.32267e-06,-3.67856e-05,-2.02614e-06,-2.11945e-05,9.88323e-06,2.37092e-06,0
-2.88351e-05,9.30025e-06,-4.70663e-06,-2.82898e-05,-2.66649e-06,-2.07572e-05,9.04706e-06,2.12751e-07,0
-2.68286e-05,9.76942e-06,-1.17834e-06,-1.92978e-05,-8.01989e-07,-2.17448e-05,8.33424e-06,-1.62812e-06,0
-2.69811e-05,9.07888e-06,-2.10615e-07,-1.36941e-05,4.02349e-06,-2.25677e-05,7.43124e-06,-2.54391e-06,0
-2.77716e-05,7.24233e-06,1.95202e-07,-1.07208e-05,9.83532e-06,-2.25225e-05,8.74205e-06,-3.52323e-06,0
-2.82686e-05,6.74969e-06,-2.72043e-06,-6.66173e-06,1.15696e-05,-2.19869e-05,1.28378e-05,-4.12942e-06,0
-2.87478e-05,7.13402e-06,-8.62476e-06,2.7641e-06,1.02506e-05,-2.16853e-05,1.67211e-05,-3.94929e-06,0
-2.94829e-05,6.03016e-06,-1.202e-05,2.29858e-05,1.03365e-05,-1.9992e-05,1.75556e-05,-4.33964e-06,0
-2.96286e-05,4.16539e-06,-1.38854e-05,4.53835e-05,1.14205e-05,-1.64546e-05,1.67147e-05,-4.94388e-06,0
-2.86784e-05,3.0612e-06,-1.50933e-05,5.81428e-05,1.16368e-05,-1.44086e-05,1.68255e-05,-4.04308e-06,0
-2.86423e-05,3.65108e-06,-1.3509e-05,5.97229e-05,1.19297e-05,-1.36634e-05,1.71476e-05,-3.05007e-06,0
-2.80088e-05,4.17601e-06,-9.63986e-06,5.2815e-05,1.21299e-05,-1.20563e-05,1.65039e-05,-2.34825e-06,0
-2.83918e-05,3.8242e-06,-7.90939e-06,4.2865e-05,1.47438e-05,-9.90555e-06,1.57746e-05,-1.47054e-06,0
-2.91248e-05,3.47131e-06,-5.31396e-06,2.79709e-05,1.85805e-05,-8.1689e-06,1.51799e-05,-1.34228e-06,0
-2.82427e-05,4.14422e-06,2.23051e-06,8.76442e-06,2.13952e-05,-6.16827e-06,1.38757e-05,-1.96801e-06,0
-2.74569e-05,5.8626e-06,1.30677e-05,-1.22715e-05,2.25479e-05,-4.0222e-06,1.18534e-05,-2.1913e-06,0
-2.78269e-05,5.82417e-06,2.72321e-05,-3.16079e-05,1.91884e-05,-4.35718e-06,8.65003e-06,-1.61935e-06,0
-2.88306e-05,4.3759e-06,4.57682e-05,-4.16014e-05,1.37533e-05,-6.74312e-06,7.69282e-07,-7.28204e-07,0
-3.06684e-05,4.74601e-06,6.39384e-05,-4.02249e-05,1.07746e-05,-9.43948e-06,-1.41644e-05,8.5875e-08,0
-3.24803e-05,8.40912e-06,7.23109e-05,-3.34746e-05,1.0916e-05,-1.23895e-05,-2.82086e-05,7.96968e-07,0
-3.26499e-05,1.2738e-05,6.48887e-05,-2.66752e-05,1.00863e-05,-1.50606e-05,-3.09128e-05,1.19093e-06,0
-3.24331e-05,1.45215e-05,4.15405e-05,-2.03601e-05,7.16272e-06,-1.67129e-05,-2.10156e-05,1.74844e-06,0
-3.25436e-05,1.34786e-05,6.01929e-06,-1.81355e-05,4.19113e-06,-1.7285e-05,-4.05975e-06,3.03252e-06,0
-3.3521e-05,1.10029e-05,-3.67956e-05,-1.94606e-05,2.54608e-06,-1.7955e-05,1.44407e-05,3.72274e-06,0
-3.49989e-05,8.97787e-06,-7.66675e-05,-1.81792e-05,1.87801e-06,-1.86852e-05,3.07651e-05,3.92637e-06,0
-3.57013e-05,8.52026e-06,-0.000101253,-1.0571e-05,3.09208e-06,-1.88025e-05,4.27203e-05,4.14058e-06,0
-3.48934e-05,1.00691e-05,-0.000106069,-3.08671e-06,7.64167e-06,-1.80485e-05,4.83642e-05,4.67732e-06,0
-3.39723e-05,1.36844e-05,-9.53234e-05,-2.97443e-06,1.23818e-05,-1.72271e-05,4.75936e-05,5.0875e-06,0
-3.31331e-05,1.72953e-05,-7.76389e-05,-8.68042e-06,1.3629e-05,-1.71549e-05,4.38946e-05,4.63344e-06,0
-3.16025e-05,1.91666e-05,-6.20097e-05,-1.36564e-05,1.40114e-05,-1.68442e-05,4.01568e-05,3.14413e-06,0
-2.99808e-05,1.99212e-05,-5.06746e-05,-1.27648e-05,1.54362e-05,-1.56232e-05,3.79584e-05,2.09166e-06,0
-2.98358e-05,2.09947e-05,-4.03142e-05,-7.67761e-06,1.56883e-05,-1.49952e-05,3.59083e-05,2.29045e-06,0
-3.0459e-05,2.24708e-05,-2.99636e-05,-5.32056e-06,1.33671e-05,-1.5372e-05,3.22154e-05,2.50042e-06,0
-3.15083e-05,2.20678e-05,-1.96696e-05,-7.94913e-06,8.70673e-06,-1.56436e-05,2.96903e-05,1.7898e-06,0
-3.16236e-05,1.73863e-05,-9.32001e-06,-1.17673e-05,5.23581e-06,-1.39478e-05,2.92911e-05,-1.28414e-06,0
-2.9622e-05,1.21819e-05,-1.55143e-06,-1.17976e-05,5.92797e-06,-1.17303e-05,3.08799e-05,-3.60936e-06,0
-2.86106e-05,1.03083e-05,2.50708e-06,-9.12257e-06,1.21277e-05,-1.05234e-05,3.07998e-05,-2.39464e-06,0
-2.93877e-05,9.40004e-06,4.89499e-06,-7.1338e-06,2.20261e-05,-9.37992e-06,2.69447e-05,-2.74807e-07,0
-2.97185e-05,9.1838e-06,5.23822e-06,-6.84262e-06,3.1302e-05,-8.75537e-06,2.02789e-05,2.86523e-06,0
-2.88733e-05,1.01648e-05,4.49971e-06,-6.59859e-06,3.48828e-05,-8.50438e-06,1.22102e-05,4.21397e-06,0
-2.87107e-05,1.20359e-05,3.08139e-06,-7.02036e-06,3.06804e-05,-7.85738e-06,8.43851e-06,2.80431e-06,0
-2.89052e-05,1.41761e-05,2.32496e-06,-7.73642e-06,2.27211e-05,-6.45993e-06,9.24425e-06,2.64006e-06,0
-2.9628e-05,1.55663e-05,2.51418e-06,-6.62827e-06,1.73733e-05,-6.14046e-06,1.17111e-05,5.50558e-06,0
-3.13675e-05,1.55947e-05,1.64755e-06,-5.9091e-06,1.64068e-05,-7.8639e-06,1.47277e-05,7.64645e-06,0
-3.2611e-05,1.47197e-05,-1.24309e-07,-4.42681e-06,1.54139e-05,-1.0015e-05,2.03217e-05,6.66452e-06,0
-3.25507e-05,1.4355e-05,-1.70932e-06,-2.56792e-06,1.23471e-05,-1.01383e-05,2.81846e-05,5.91939e-06,0
-3.17892e-05,1.59482e-05,-2.61042e-06,-1.69948e-06,8.65301e-06,-8.90447e-06,3.52815e-05,6.2913e-06,0
-3.07753e-05,1.73726e-05,-3.70829e-06,-2.18464e-06,5.56031e-06,-7.75289e-06,3.99127e-05,6.91483e-06,0
-3.10323e-05,1.51516e-05,-4.06852e-06,-1.86671e-06,4.60957e-06,-7.14641e-06,3.92518e-05,7.97492e-06,0
-3.26378e-05,1.24353e-05,-3.73559e-06,-1.21693e-06,5.52993e-06,-6.46982e-06,3.20174e-05,1.10799e-05,0
-3.3749e-05,1.25385e-05,-4.27036e-06,-2.14829e-06,5.757e-06,-6.62106e-06,2.03851e-05,1.36117e-05,0
-3.3484e-05,1.36647e-05,-5.87977e-06,-4.5191e-06,4.84178e-06,-7.57447e-06,7.11125e-06,1.34331e-05,0
-3.26382e-05,1.35404e-05,-6.85308e-06,-5.13715e-06,5.30897e-06,-6.90732e-06,-6.78832e-06,1.16553e-05,0
-3.32133e-05,1.42844e-05,-6.57985e-06,-3.3789e-06,7.89106e-06,-4.60231e-06,-2.09842e-05,9.90779e-06,0
-3.34223e-05,1.6377e-05,-5.42691e-06,-2.59456e-06,1.00883e-05,-2.85829e-06,-3.38077e-05,8.22545e-06,0
-3.10325e-05,1.84788e-05,-4.91284e-06,-3.28175e-06,1.1795e-05,-1.27083e-06,-4.19934e-05,6.42422e-06,0
-2.92305e-05,2.05868e-05,-6.79013e-06,-3.08477e-06,1.34913e-05,2.82674e-07,-4.31183e-05,5.13339e-06,0
-2.9768e-05,2.23508e-05,-9.63068e-06,-3.15806e-06,1.342e-05,-9.85033e-07,-3.77035e-05,4.15331e-06,0
-3.02029e-05,2.20802e-05,-1.07969e-05,-4.43156e-06,1.15024e-05,-2.257e-06,-3.02817e-05,2.07791e-06,0
-2.94659e-05,1.99963e-05,-1.23334e-05,-3.78575e-06,9.95744e-06,-1.91447e-06,-2.58615e-05,-1.6746e-06,0
-2.94478e-05,1.90554e-05,-1.5917e-05,-2.87432e-06,1.00052e-05,-3.1296e-06,-2.61253e-05,-5.10961e-06,0
-3.10047e-05,1.75356e-05,-1.93102e-05,-3.92742e-06,1.21762e-05,-5.2037e-06,-2.89986e-05,-4.0842e-06,0
-3.21539e-05,1.55045e-05,-2.1481e-05,-5.46592e-06,1.37064e-05,-7.05548e-06,-2.88821e-05,-2.15372e-06,0
-3.21485e-05,1.41547e-05,-1.96953e-05,-5.67729e-06,1.29722e-05,-1.10187e-05,-2.33163e-05,-4.18867e-06,0
-3.13715e-05,1.53034e-05,-1.51772e-05,-5.83762e-06,1.53552e-05,-1.48377e-05,-1.43789e-05,-6.47894e-06,0
-3.07409e-05,1.97344e-05,-1.20693e-05,-6.47069e-06,2.01559e-05,-1.39319e-05,-4.60538e-06,-7.5724e-06,0
-3.04799e-05,2.41412e-05,-1.05266e-05,-6.89479e-06,2.39592e-05,-9.85372e-06,3.06406e-06,-7.25323e-06,0
-3.08241e-05,2.75353e-05,-9.90077e-06,-6.84528e-06,2.45438e-05,-8.41623e-06,1.28616e-05,-7.87515e-06,0
-3.045e-05,3.0965e-05,-9.31054e-06,-5.286e-06,2.19677e-05,-8.4411e-06,2.56039e-05,-9.30881e-06,0
-3.01958e-05,3.36119e-05,-8.74666e-06,-2.3821e-06,1.9613e-05,-8.64592e-06,3.52488e-05,-9.65005e-06,0
-2.89514e-05,3.40275e-05,-8.01345e-06,-2.69988e-06,1.74412e-05,-8.12683e-06,3.97642e-05,-8.72147e-06,0
-2.78486e-05,3.36569e-05,-6.65335e-06,-6.29339e-06,1.69574e-05,-6.25767e-06,4.14619e-05,-8.37146e-06,0
-2.89243e-05,3.24133e-05,-5.05512e-06,-8.98002e-06,1.92561e-05,-4.82745e-06,4.08856e-05,-7.8716e-06,0
-3.01957e-05,2.97779e-05,-4.48466e-06,-8.36026e-06,2.22551e-05,-4.6182e-06,3.59502e-05,-5.77408e-06,0
-3.07802e-05,2.61051e-05,-6.01324e-06,-4.31706e-06,2.23267e-05,-5.58409e-06,2.74876e-05,-3.78146e-06,0
-3.11146e-05,2.27806e-05,-7.97262e-06,1.89915e-07,2.03555e-05,-5.88055e-06,1.80364e-05,-2.62187e-06,0
-3.22248e-05,2.0679e-05,-8.67308e-06,9.93563e-07,1.88359e-05,-5.13276e-06,1.05918e-05,-2.33414e-06,0
-3.29488e-05,1.90105e-05,-8.50677e-06,-1.47205e-06,1.71534e-05,-3.84012e-06,5.10597e-06,-1.98065e-06,0
-3.3834e-05,1.75471e-05,-7.74024e-06,-1.92124e-06,1.49912e-05,-3.51411e-06,1.47738e-06,-1.78464e-06,0
-3.40278e-05,1.60502e-05,-5.93171e-06,2.07264e-06,1.35277e-05,-4.91714e-06,-5.56327e-08,-1.92574e-06,0
-3.28461e-05,1.47294e-05,-4.90665e-06,9.51973e-06,1.32698e-05,-8.30919e-06,1.55784e-06,-2.07592e-06,0
-3.09534e-05,1.43857e-05,-5.88753e-06,1.98133e-05,1.32489e-05,-1.12424e-05,5.06374e-06,-8.80244e-07,0
-3.05022e-05,1.48309e-05,-8.0232e-06,2.97788e-05,1.36061e-05,-1.31923e-05,8.09197e-06,5.97008e-07,0
-3.18495e-05,1.47284e-05,-1.07233e-05,2.98428e-05,1.52428e-05,-1.44065e-05,1.02142e-05,6.76477e-07,0
-3.36672e-05,1.52021e-05,-1.1422e-05,1.38687e-05,1.71603e-05,-1.54672e-05,1.14608e-05,-6.55592e-07,0
-3.39571e-05,1.78704e-05,-1.03114e-05,-1.25443e-05,1.59556e-05,-1.65837e-05,1.16966e-05,-1.76142e-06,0
-3.23129e-05,2.05361e-05,-1.04457e-05,-3.57368e-05,1.29003e-05,-1.69524e-05,1.17142e-05,-2.69558e-06,0
-3.00791e-05,2.10328e-05,-1.00859e-05,-4.86078e-05,1.1297e-05,-1.69559e-05,1.28199e-05,-2.98234e-06,0
-2.8613e-05,2.01197e-05,-7.84096e-06,-5.52798e-05,1.18888e-05,-1.6537e-05,1.28732e-05,-5.63217e-07,0
-2.87412e-05,1.80147e-05,-4.95433e-06,-5.84901e-05,1.18463e-05,-1.51981e-05,1.27945e-05,2.25495e-06,0
-3.0345e-05,1.56245e-05,-3.16157e-06,-5.80559e-05,9.36757e-06,-1.3769e-05,1.46658e-05,2.63467e-06,0
-3.11307e-05,1.45557e-05,-1.43938e-06,-5.07831e-05,6.03527e-06,-1.25854e-05,1.56669e-05,9.64069e-07,0
-3.05978e-05,1.36154e-05,1.49661e-06,-2.80673e-05,4.24703e-06,-1.08506e-05,1.55108e-05,-3.13598e-06,0
-3.05861e-05,1.13656e-05,2.96303e-06,5.57566e-06,7.85709e-06,-8.65131e-06,1.74679e-05,-7.36668e-06,0
-3.05157e-05,8.7289e-06,3.82161e-06,3.66058e-05,1.46415e-05,-6.03525e-06,2.10229e-05,-6.96688e-06,0
-2.95643e-05,7.1962e-06,4.88547e-06,5.62619e-05,2.18414e-05,-4.41607e-06,2.26847e-05,-4.32278e-06,0
-2.85505e-05,7.36672e-06,4.23783e-06,5.98021e-05,2.74746e-05,-3.53578e-06,2.00592e-05,-2.83128e-06,0
-2.86162e-05,8.03373e-06,1.44192e-06,4.54565e-05,2.68315e-05,-3.70436e-06,1.64212e-05,-3.14813e-06,0
-2.82157e-05,7.52392e-06,-6.76781e-07,1.95634e-05,1.94543e-05,-4.42865e-06,1.42424e-05,-3.57069e-06,0
-2.78986e-05,6.04857e-06,4.91673e-07,-2.79254e-06,1.05499e-05,-4.49639e-06,1.28996e-05,-1.12359e-06,0
-2.75218e-05,6.11045e-06,3.31019e-06,-1.32166e-05,5.36919e-06,-4.70763e-06,1.28229e-05,2.41092e-06,0
-2.73692e-05,9.13345e-06,5.22091e-06,-1.34484e-05,4.24301e-06,-5.34949e-06,1.36655e-05,3.70566e-06,0
-2.76221e-05,1.30105e-05,5.43504e-06,-8.02639e-06,7.19765e-06,-6.23214e-06,1.41414e-05,3.53941e-06,0
-2.80072e-05,1.54952e-05,5.97038e-06,2.79085e-07,1.27605e-05,-6.30309e-06,1.4542e-05,3.14857e-06,0
-2.79465e-05,1.68259e-05,8.66447e-06,7.44658e-06,1.75362e-05,-5.78336e-06,1.65472e-05,2.45326e-06,0
-2.71764e-05,1.84428e-05,1.09546e-05,1.03296e-05,1.83391e-05,-5.64484e-06,1.87379e-05,2.46396e-06,0
-2.55905e-05,1.96165e-05,9.59618e-06,9.25323e-06,1.546e-05,-6.02823e-06,1.90664e-05,3.05283e-06,0
-2.41291e-05,1.87353e-05,5.29419e-06,6.58093e-06,1.15164e-05,-6.5638e-06,1.83814e-05,3.11856e-06,0
-2.46305e-05,1.63248e-05,-2.03361e-07,4.16381e-06,7.74842e-06,-6.1834e-06,1.834e-05,4.06471e-06,0
-2.61997e-05,1.47264e-05,-4.98999e-06,4.64665e-06,4.11182e-06,-3.96201e-06,1.82345e-05,5.93997e-06,0
-2.77365e-05,1.55921e-05,-8.3902e-06,9.55051e-06,1.09638e-06,-1.57937e-06,1.84935e-05,5.94633e-06,0
-2.85568e-05,1.67553e-05,-1.08913e-05,1.6991e-05,1.33351e-06,-1.63109e-06,2.02403e-05,3.61332e-06,0
-2.90643e-05,1.64285e-05,-1.19418e-05,2.62005e-05,4.21893e-06,-4.03467e-06,2.21001e-05,1.52001e-07,0
-2.96546e-05,1.58121e-05,-1.23818e-05,3.19312e-05,6.98634e-06,-6.24777e-06,2.17925e-05,-2.0992e-06,0
-3.00537e-05,1.5306e-05,-1.27516e-05,3.0536e-05,7.54868e-06,-7.0789e-06,2.02019e-05,-1.65581e-06,0
-3.08568e-05,1.56556e-05,-1.34433e-05,2.78921e-05,4.80069e-06,-7.5971e-06,1.83122e-05,1.06809e-06,0
-3.17353e-05,1.57465e-05,-1.4771e-05,2.76768e-05,2.03331e-06,-8.05135e-06,1.63666e-05,4.2326e-06,0
-3.10594e-05,1.42409e-05,-1.50253e-05,2.60971e-05,1.78955e-06,-9.0903e-06,1.68978e-05,5.4274e-06,0
-3.01948e-05,1.25904e-05,-1.51123e-05,1.80163e-05,3.10473e-06,-1.00099e-05,1.919e-05,5.18603e-06,0
-3.11832e-05,1.35629e-05,-1.7927e-05,5.81824e-06,5.19258e-06,-1.0885e-05,2.05806e-05,4.50932e-06,0
-3.19073e-05,1.59824e-05,-2.2937e-05,-7.98216e-06,5.46695e-06,-1.14541e-05,1.46835e-05,4.45137e-06,0
-2.96709e-05,1.61129e-05,-2.65611e-05,-2.31981e-05,4.23522e-06,-1.25395e-05,1.34345e-06,4.88963e-06,0
-2.59469e-05,1.75356e-05,-2.53518e-05,-3.70707e-05,5.16775e-06,-1.41234e-05,-8.7376e-06,3.82288e-06,0
-2.41728e-05,2.075e-05,-2.03181e-05,-4.75475e-05,7.34031e-06,-1.44027e-05,-1.0138e-05,2.1301e-06,0
-2.57327e-05,2.40944e-05,-1.63748e-05,-5.59189e-05,5.94906e-06,-1.37164e-05,-2.71228e-06,2.52108e-06,0
-2.76419e-05,2.67606e-05,-1.5102e-05,-6.27876e-05,2.77079e-06,-1.27035e-05,1.0584e-05,3.75052e-06,0
-2.97766e-05,2.63195e-05,-1.46057e-05,-6.48879e-05,2.3665e-06,-1.25883e-05,2.34283e-05,3.69478e-06,0
-3.15317e-05,2.47637e-05,-1.28995e-05,-6.03354e-05,4.83075e-06,-1.29947e-05,3.25258e-05,2.43498e-06,0
-3.14623e-05,2.48339e-05,-1.03247e-05,-4.86086e-05,1.046e-05,-1.17554e-05,3.64503e-05,1.92586e-06,0
-3.00445e-05,2.7845e-05,-9.54809e-06,-3.21389e-05,1.902e-05,-9.07554e-06,3.59079e-05,3.17408e-06,0
-2.86195e-05,3.12862e-05,-1.08592e-05,-1.79918e-05,2.66334e-05,-7.99499e-06,3.46924e-05,4.03345e-06,0
-2.82377e-05,3.10687e-05,-1.21111e-05,-1.23947e-05,2.76994e-05,-8.11804e-06,3.51337e-05,3.90889e-06,0
-2.82101e-05,2.62279e-05,-1.23718e-05,-1.28475e-05,2.34749e-05,-7.44327e-06,3.56665e-05,3.41468e-06,0
-2.86217e-05,2.09998e-05,-1.22335e-05,-1.32852e-05,2.11266e-05,-6.28303e-06,3.44742e-05,2.63484e-06,0
-2.90759e-05,1.95919e-05,-1.10052e-05,-1.07636e-05,2.25794e-05,-5.76639e-06,3.31036e-05,2.66557e-06,0
-2.91285e-05,2.10486e-05,-8.97051e-06,-7.71768e-06,2.3946e-05,-6.24222e-06,3.13374e-05,3.93811e-06,0
-2.90844e-05,2.29029e-05,-7.55235e-06,-5.02745e-06,2.35935e-05,-6.65879e-06,2.7202e-05,5.41277e-06,0
-2.97709e-05,2.311e-05,-7.00752e-06,-1.07534e-06,2.1911e-05,-5.4741e-06,2.00156e-05,6.06088e-06,0
-3.00421e-05,2.13429e-05,-6.93543e-06,3.13241e-06,1.8283e-05,-4.51086e-06,1.08608e-05,6.31386e-06,0
-2.92895e-05,1.99243e-05,-7.19864e-06,5.51852e-06,1.30335e-05,-6.39152e-06,4.11202e-06,6.93108e-06,0
-2.8191e-05,1.91302e-05,-9.00528e-06,4.34355e-06,8.63892e-06,-9.97154e-06,3.17408e-06,5.62664e-06,0
-2.7901e-05,1.74973e-05,-1.0309e-05,2.28918e-06,6.11107e-06,-1.10567e-05,5.28828e-06,3.52342e-06,0
-2.7292e-05,1.32958e-05,-8.95448e-06,2.5042e-06,3.77228e-06,-8.60267e-06,8.1997e-06,2.54649e-06,0
-2.71046e-05,9.38806e-06,-6.30724e-06,6.12141e-06,3.0605e-06,-5.02875e-06,1.02997e-05,2.35499e-06,0
-2.96709e-05,8.08278e-06,-5.12644e-06,8.85664e-06,4.18964e-06,-4.26257e-06,1.08061e-05,2.1063e-06,0
-3.27762e-05,6.94212e-06,-6.28119e-06,6.35842e-06,4.90605e-06,-5.72035e-06,9.25477e-06,2.32244e-06,0
-3.458e-05,6.21574e-06,-7.54849e-06,9.34936e-07,5.41374e-06,-7.01832e-06,5.70337e-06,4.13784e-06,0
-3.60926e-05,5.2041e-06,-9.96513e-06,-4.94405e-06,5.79007e-06,-8.28944e-06,2.39154e-06,5.04989e-06,0
-3.53921e-05,2.91328e-06,-1.32466e-05,-9.10595e-06,5.66771e-06,-8.86078e-06,-7.61726e-07,4.43778e-06,0
-3.21544e-05,6.30875e-07,-1.43477e-05,-1.11412e-05,7.33307e-06,-8.32361e-06,-2.26575e-06,4.17964e-06,0
-3.01214e-05,2.2487e-06,-1.34378e-05,-1.20806e-05,1.44419e-05,-4.29987e-06,-2.11437e-06,3.73453e-06,0
-3.03705e-05,6.91545e-06,-1.34473e-05,-1.58118e-05,2.51733e-05,-4.92165e-07,-1.56074e-06,2.2017e-06,0
-3.1073e-05,1.26127e-05,-1.57981e-05,-2.34142e-05,3.21978e-05,2.26409e-07,-1.67144e-06,7.18091e-07,0
-3.18705e-05,1.583e-05,-1.85476e-05,-3.02452e-05,3.10997e-05,-8.13977e-07,-2.61567e-06,7.99569e-07,0
-3.26478e-05,1.62986e-05,-1.81978e-05,-3.30306e-05,2.48399e-05,-1.99564e-06,-1.2739e-06,1.99842e-06,0
-3.28706e-05,1.72905e-05,-1.33981e-05,-3.1237e-05,1.92529e-05,-2.62706e-06,3.68089e-06,2.20858e-06,0
-3.27308e-05,1.91318e-05,-7.15083e-06,-2.54245e-05,1.70392e-05,-3.01614e-06,8.51629e-06,2.53385e-06,0
-3.26204e-05,2.06682e-05,-3.26442e-06,-1.40415e-05,1.66253e-05,-3.81627e-06,1.04343e-05,3.70174e-06,0
-3.32824e-05,2.04527e-05,-2.24087e-06,1.15289e-06,1.66625e-05,-5.61917e-06,1.08785e-05,3.78079e-06,0
-3.33021e-05,2.03455e-05,-1.47139e-06,1.44599e-05,1.62818e-05,-7.21448e-06,1.1803e-05,2.49117e-06,0
-3.2141e-05,2.12966e-05,2.04332e-09,2.01561e-05,1.46131e-05,-8.29586e-06,1.27513e-05,1.46636e-06,0
-3.09796e-05,2.36833e-05,6.06103e-07,1.72967e-05,1.26439e-05,-8.3057e-06,1.17976e-05,1.72995e-06,0
-3.05965e-05,2.47111e-05,-3.00259e-07,1.07038e-05,1.158e-05,-7.47533e-06,9.51588e-06,3.75389e-06,0
-3.00948e-05,2.22223e-05,-1.17136e-06,4.05472e-06,1.19119e-05,-6.86699e-06,8.62125e-06,5.50015e-06,0
-3.01046e-05,1.80645e-05,-1.42716e-06,-4.11766e-06,1.24655e-05,-7.61062e-06,1.01497e-05,5.46913e-06,0
-3.07694e-05,1.45183e-05,-1.89944e-06,-1.39635e-05,1.26164e-05,-8.67387e-06,1.25211e-05,4.82497e-06,0
-3.13422e-05,1.23299e-05,-2.8005e-06,-2.28622e-05,1.31076e-05,-9.69876e-06,1.5169e-05,4.04902e-06,0
-3.02523e-05,1.13295e-05,-3.20804e-06,-2.86001e-05,1.36734e-05,-9.34595e-06,1.90958e-05,3.44575e-06,0
-2.86863e-05,1.01445e-05,-3.17312e-06,-2.99799e-05,1.33864e-05,-7.65206e-06,2.20039e-05,2.09748e-06,0
-2.81656e-05,9.31816e-06,-2.92923e-06,-2.82963e-05,1.24789e-05,-8.01688e-06,1.96607e-05,4.16494e-07,0
-2.79259e-05,8.90912e-06,-3.18731e-06,-2.53124e-05,1.14484e-05,-1.01036e-05,1.35734e-05,-1.57603e-06,0
-2.84897e-05,8.50709e-06,-5.1185e-06,-1.99013e-05,1.12572e-05,-1.2089e-05,5.5875e-06,-4.17328e-06,0
-2.96326e-05,7.01223e-06,-7.17664e-06,-1.38111e-05,1.27355e-05,-1.30268e-05,1.33025e-06,-4.15756e-06,0
-2.99707e-05,5.08325e-06,-7.40181e-06,-9.52368e-06,1.44819e-05,-1.20244e-05,2.29175e-06,-2.29382e-06,0
-2.93359e-05,4.33625e-06,-7.12066e-06,-4.78472e-06,1.5252e-05,-1.05558e-05,4.73488e-06,-1.33945e-06,0
-3.01969e-05,4.27361e-06,-5.80322e-06,-4.42018e-08,1.43877e-05,-1.05476e-05,6.91228e-06,-2.01206e-06,0
-3.09905e-05,3.59742e-06,-2.71587e-06,4.6233e-06,1.50683e-05,-1.27118e-05,6.61162e-06,-2.12507e-06,0
-3.0932e-05,2.60896e-06,-1.84506e-06,7.79546e-06,1.88298e-05,-1.58237e-05,7.18464e-06,2.91237e-07,0
-2.94271e-05,3.04965e-06,-3.24354e-06,8.0792e-06,2.23662e-05,-1.85273e-05,9.3916e-06,2.37819e-06,0
-2.81925e-05,3.06797e-06,-5.95576e-06,7.6262e-06,2.35468e-05,-2.05784e-05,1.16959e-05,3.55577e-06,0
-2.90008e-05,2.05668e-06,-9.88239e-06,8.363e-06,2.25524e-05,-2.12834e-05,1.13373e-05,4.76964e-06,0
-3.01196e-05,7.63423e-07,-1.40799e-05,8.95143e-06,2.07767e-05,-2.18855e-05,1.0006e-05,5.09139e-06,0
-3.01917e-05,5.71223e-07,-1.77757e-05,8.04575e-06,1.8818e-05,-2.24544e-05,9.2447e-06,3.3242e-06,0
-2.92219e-05,1.60647e-06,-1.96877e-05,7.34743e-06,1.74594e-05,-2.12123e-05,7.77717e-06,1.25097e-06,0
-2.94267e-05,3.91248e-06,-1.83567e-05,7.44257e-06,1.61467e-05,-1.7545e-05,5.3795e-06,5.07144e-07,0
-3.02112e-05,6.51894e-06,-1.44175e-05,7.9887e-06,1.54737e-05,-1.41163e-05,2.37749e-06,8.31789e-07,0
-3.07788e-05,8.46629e-06,-1.00876e-05,7.20684e-06,1.5781e-05,-1.26441e-05,3.23609e-07,1.56945e-06,0
-3.05476e-05,9.15137e-06,-6.85462e-06,3.52973e-06,1.58788e-05,-1.26296e-05,-7.6959e-08,1.67559e-06,0
-2.98084e-05,7.43121e-06,-5.75244e-06,-1.5572e-06,1.57818e-05,-1.26607e-05,1.30321e-06,9.75306e-07,0
-2.9703e-05,4.76869e-06,-6.35592e-06,-4.58592e-06,1.6423e-05,-1.15489e-05,4.20255e-06,-1.37015e-07,0
-3.00696e-05,5.50737e-06,-7.20145e-06,-3.34267e-06,1.77972e-05,-1.04447e-05,7.90568e-06,-1.44283e-06,0
-2.99296e-05,8.53845e-06,-6.4632e-06,2.2312e-06,2.03037e-05,-1.0503e-05,1.00489e-05,-1.71267e-06,0
-2.94622e-05,1.04005e-05,-5.23294e-06,9.61932e-06,2.22868e-05,-1.20978e-05,1.04919e-05,-6.13747e-07,0
-2.93998e-05,1.27016e-05,-4.91665e-06,1.47178e-05,2.18953e-05,-1.27693e-05,1.09978e-05,-4.90761e-07,0
-3.03972e-05,1.60319e-05,-5.53963e-06,1.53102e-05,2.04942e-05,-1.18499e-05,1.2828e-05,-1.25763e-06,0
-3.21628e-05,1.82709e-05,-6.87949e-06,1.34561e-05,1.79329e-05,-1.2111e-05,1.4795e-05,-9.66491e-07,0
-3.21641e-05,1.72249e-05,-7.73297e-06,1.05064e-05,1.64172e-05,-1.20967e-05,1.76691e-05,9.03953e-07,0
-3.06303e-05,1.38373e-05,-8.89822e-06,6.4304e-06,1.5026e-05,-1.1773e-05,1.95226e-05,2.44481e-06,0
-2.93799e-05,1.19199e-05,-8.9342e-06,1.78316e-06,1.18027e-05,-1.13978e-05,2.11782e-05,2.02435e-06,0
-2.75512e-05,1.15217e-05,-7.71028e-06,-3.8012e-06,1.09177e-05,-1.07669e-05,2.50538e-05,6.56783e-07,0
-2.744e-05,1.01746e-05,-7.80935e-06,-8.29637e-06,1.15755e-05,-1.17329e-05,2.83984e-05,5.94607e-07,0
-2.96197e-05,7.42207e-06,-7.33009e-06,-1.15959e-05,1.14029e-05,-1.15949e-05,2.97889e-05,2.40581e-06,0
-3.15528e-05,4.54282e-06,-7.62985e-06,-1.41545e-05,1.20884e-05,-1.14566e-05,3.04818e-05,3.12057e-06,0
-3.19064e-05,3.47064e-06,-8.77293e-06,-1.60032e-05,1.25705e-05,-1.12488e-05,2.9552e-05,1.72514e-06,0
-3.05957e-05,1.87746e-06,-9.72436e-06,-1.81447e-05,1.23665e-05,-9.36104e-06,2.52594e-05,8.23654e-08,0
-2.90291e-05,4.96244e-07,-1.01161e-05,-1.89919e-05,1.09859e-05,-7.90234e-06,1.90275e-05,-1.2629e-06,0
-2.78937e-05,2.62716e-07,-9.76578e-06,-1.7138e-05,7.5706e-06,-7.88617e-06,1.2947e-05,-1.5267e-06,0
-2.82753e-05,9.10655e-08,-1.02501e-05,-1.26206e-05,4.85657e-06,-7.60854e-06,8.77642e-06,-1.69621e-07,0
-2.99464e-05,-8.55117e-07,-1.25602e-05,-8.42144e-06,4.27993e-06,-6.68355e-06,6.70721e-06,6.89403e-07,0
-3.0707e-05,-6.86477e-07,-1.58335e-05,-5.7653e-06,4.85553e-06,-7.08065e-06,5.84222e-06,-9.87141e-07,0
-3.04102e-05,2.0923e-06,-1.76601e-05,-3.02886e-06,6.05298e-06,-7.47742e-06,3.77752e-06,-3.83046e-06,0
-3.13125e-05,5.99414e-06,-1.7861e-05,-1.65993e-06,7.83351e-06,-7.45081e-06,1.67165e-07,-5.31269e-06,0
-3.25644e-05,1.02327e-05,-1.69525e-05,-4.76139e-06,1.07073e-05,-8.43982e-06,-4.24277e-06,-5.25656e-06,0
-3.32794e-05,1.33785e-05,-1.51699e-05,-1.30485e-05,1.45669e-05,-1.04085e-05,-6.59423e-06,-4.24014e-06,0
-3.40073e-05,1.44723e-05,-1.16596e-05,-2.2129e-05,1.95799e-05,-1.12965e-05,-4.47851e-06,-2.90361e-06,0
-3.47424e-05,1.39354e-05,-8.75534e-06,-2.30499e-05,2.66904e-05,-1.07179e-05,8.23972e-07,-2.30742e-06,0
-3.41405e-05,1.37536e-05,-7.96332e-06,-1.04001e-05,3.54637e-05,-9.29816e-06,5.55658e-06,-2.05533e-06,0
-3.27951e-05,1.28404e-05,-8.43065e-06,6.86445e-06,4.11654e-05,-8.3998e-06,8.27897e-06,-1.56603e-06,0
-3.238e-05,1.15128e-05,-9.3474e-06,1.43034e-05,3.71175e-05,-8.66635e-06,1.09141e-05,-1.61687e-06,0
-3.16267e-05,1.2171e-05,-8.89139e-06,1.28551e-05,2.49228e-05,-1.03766e-05,1.44463e-05,-2.3488e-06,0
-2.98096e-05,1.43117e-05,-7.51237e-06,1.41705e-05,1.29601e-05,-1.31385e-05,1.80358e-05,-2.03945e-06,0
-2.9043e-05,1.32769e-05,-7.98922e-06,2.06534e-05,5.94538e-06,-1.4323e-05,2.02148e-05,-2.06289e-06,0
-2.96334e-05,8.47757e-06,-9.45618e-06,2.51238e-05,1.64272e-06,-1.27395e-05,2.03923e-05,-3.16836e-06,0
-2.97667e-05,1.26653e-06,-9.65361e-06,2.3724e-05,-8.39245e-07,-1.06604e-05,1.23118e-05,-4.03094e-06,0
-3.01943e-05,-3.83694e-06,-7.39723e-06,1.97207e-05,-8.45846e-07,-9.05577e-06,-6.73393e-06,-4.98158e-06,0
-3.02469e-05,-3.64933e-06,-4.28452e-06,1.69217e-05,-6.82923e-08,-6.6367e-06,-2.42033e-05,-4.92845e-06,0
-2.88225e-05,-3.57762e-06,-4.47038e-06,1.16913e-05,1.00585e-06,-4.71217e-06,-2.6591e-05,-3.73144e-06,0
-2.74116e-05,-5.05117e-06,-5.77092e-06,3.16005e-06,2.48881e-06,-5.10426e-06,-1.11729e-05,-2.53009e-06,0
-2.64967e-05,-6.2137e-06,-4.70384e-06,-1.38546e-06,2.83607e-06,-7.04779e-06,1.33381e-05,-2.12174e-06,0
-2.67746e-05,-5.83075e-06,-3.3455e-06,-1.02748e-06,2.25982e-06,-8.12858e-06,3.7613e-05,-1.89075e-06,0
-2.79963e-05,-3.45979e-06,-2.71961e-06,3.95187e-06,6.79792e-06,-6.49092e-06,5.64055e-05,-2.04221e-06,0
-2.96293e-05,6.71454e-07,-1.42241e-06,7.55044e-06,1.45689e-05,-3.93723e-06,6.456e-05,-2.31154e-06,0
-3.08158e-05,4.08844e-06,-1.06903e-06,8.60966e-07,1.9627e-05,-4.23896e-06,6.02355e-05,-2.78108e-06,0
-3.01548e-05,5.03864e-06,-3.21672e-06,-1.36826e-05,2.10463e-05,-5.40261e-06,4.47638e-05,-4.19162e-06,0
-2.92856e-05,5.26326e-06,-6.75462e-06,-2.50319e-05,2.00972e-05,-6.68458e-06,2.35168e-05,-5.76223e-06,0
-2.91266e-05,5.64339e-06,-1.02867e-05,-2.46032e-05,1.85237e-05,-7.43289e-06,4.9519e-06,-6.87502e-06,0
-2.83379e-05,5.39388e-06,-1.13404e-05,-1.80919e-05,1.68286e-05,-5.76749e-06,-7.79351e-06,-6.55761e-06,0
-2.72363e-05,5.07205e-06,-9.73913e-06,-1.48448e-05,1.61225e-05,-2.68438e-06,-1.61312e-05,-5.08755e-06,0
-2.75744e-05,4.517e-06,-7.88643e-06,-1.67994e-05,1.4546e-05,-9.24588e-07,-1.92652e-05,-4.03559e-06,0
-2.88623e-05,3.49144e-06,-6.34355e-06,-1.98631e-05,1.10531e-05,-2.70538e-06,-1.49406e-05,-4.13429e-06,0
-2.95523e-05,2.27573e-06,-5.07163e-06,-2.06458e-05,7.39742e-06,-6.56659e-06,-3.71095e-06,-4.50359e-06,0
-2.91491e-05,4.98015e-07,-4.74073e-06,-1.8054e-05,5.30773e-06,-9.97561e-06,9.62295e-06,-5.02868e-06,0
-2.90699e-05,-1.75488e-06,-5.44722e-06,-1.36406e-05,2.94725e-06,-1.10676e-05,2.08913e-05,-5.50683e-06,0
-2.97091e-05,-2.4332e-06,-5.68984e-06,-9.45602e-06,-3.33247e-07,-9.96782e-06,2.86844e-05,-5.1394e-06,0
-3.00692e-05,7.37195e-07,-5.00444e-06,-7.10684e-06,-2.12212e-06,-8.14751e-06,3.27275e-05,-3.37088e-06,0
-2.99761e-05,4.60454e-06,-4.41611e-06,-6.41485e-06,-1.05487e-06,-7.54319e-06,3.39996e-05,-1.71225e-06,0
-2.96221e-05,6.33511e-06,-4.91934e-06,-6.19961e-06,-9.34646e-07,-8.33992e-06,3.53227e-05,-1.60487e-06,0
-2.85619e-05,7.77161e-06,-6.75742e-06,-6.38159e-06,-5.38946e-06,-1.01406e-05,3.75463e-05,-2.38681e-06,0
-2.75482e-05,9.83424e-06,-8.47763e-06,-6.40517e-06,-9.70336e-06,-1.10871e-05,3.85823e-05,-2.36728e-06,0
-2.70655e-05,9.96238e-06,-9.81836e-06,-6.80428e-06,-1.02174e-05,-1.09199e-05,3.66959e-05,-8.47326e-07,0
-2.80811e-05,6.68659e-06,-9.85831e-06,-7.7632e-06,-9.5416e-06,-1.17243e-05,3.26418e-05,1.52171e-06,0
-2.99126e-05,4.63965e-06,-7.89578e-06,-9.0439e-06,-9.32481e-06,-1.39118e-05,2.81782e-05,2.89553e-06,0
-3.13574e-05,5.94006e-06,-7.00323e-06,-1.14843e-05,-7.77807e-06,-1.42175e-05,2.4163e-05,2.28163e-06,0
-3.20138e-05,5.10508e-06,-7.10009e-06,-1.27231e-05,-5.38225e-06,-1.22687e-05,2.14155e-05,2.01861e-07,0
-3.21295e-05,2.39357e-06,-8.31065e-06,-1.12665e-05,-2.63433e-06,-1.09226e-05,2.03423e-05,-1.93247e-06,0
-3.3306e-05,9.05654e-07,-9.29938e-06,-7.41086e-06,-9.68889e-08,-9.82516e-06,1.86431e-05,-1.59084e-06,0
-3.32574e-05,-1.27171e-06,-8.39129e-06,-9.15696e-08,1.08972e-06,-8.47888e-06,2.02658e-05,-6.49123e-07,0
-3.261e-05,-3.13554e-06,-6.71289e-06,7.47648e-06,1.66421e-06,-7.28085e-06,2.78765e-05,-1.12199e-07,0
-3.32674e-05,-2.917e-06,-6.44893e-06,1.23932e-05,2.24973e-06,-7.74703e-06,3.62222e-05,-1.78436e-07,0
-3.41491e-05,-1.2165e-06,-7.90071e-06,1.07688e-05,3.35517e-06,-8.26842e-06,4.0802e-05,-1.90291e-07,0
-3.29242e-05,2.43679e-07,-8.61902e-06,4.40314e-06,4.93262e-06,-8.18668e-06,4.08064e-05,-1.2254e-07,0
-3.04574e-05,6.47058e-08,-8.67748e-06,-8.73099e-07,6.28121e-06,-8.66199e-06,3.71106e-05,-6.55873e-08,0
-2.89937e-05,1.33441e-07,-7.92359e-06,-4.49325e-06,7.49896e-06,-1.01098e-05,3.04999e-05,2.21331e-06,0
-2.8752e-05,1.51316e-06,-7.38456e-06,-6.90336e-06,9.20954e-06,-1.17127e-05,2.20244e-05,5.66414e-06,0
-2.90892e-05,2.86373e-06,-8.31557e-06,-7.0234e-06,1.25919e-05,-1.14741e-05,1.11434e-05,7.09648e-06,0
-2.98237e-05,2.95312e-06,-1.00882e-05,-5.34675e-06,1.70659e-05,-1.07473e-05,7.16418e-09,4.94584e-06,0
-3.10348e-05,3.87053e-06,-1.13777e-05,-3.90709e-06,1.99206e-05,-1.0912e-05,-9.43121e-06,1.53176e-06,0
-3.15819e-05,8.96717e-06,-1.17089e-05,-2.28128e-06,2.06387e-05,-1.10622e-05,-1.58104e-05,-1.26828e-08,0
-3.08069e-05,1.6362e-05,-1.02731e-05,-8.00785e-07,2.11976e-05,-1.09396e-05,-1.78068e-05,1.83992e-06,0
-2.89212e-05,2.07134e-05,-7.8219e-06,-9.3899e-07,2.34774e-05,-1.10361e-05,-1.62566e-05,4.89848e-06,0
-2.83357e-05,2.15475e-05,-6.20295e-06,-3.56916e-06,2.6924e-05,-1.09637e-05,-1.45448e-05,6.4414e-06,0
-2.99781e-05,2.23016e-05,-6.63488e-06,-6.81127e-06,2.80781e-05,-1.11357e-05,-1.21094e-05,5.82722e-06,0
-3.27936e-05,2.25834e-05,-8.66107e-06,-9.0141e-06,2.43083e-05,-1.13013e-05,-8.81243e-06,5.38377e-06,0
-3.45679e-05,2.09011e-05,-1.11586e-05,-9.36441e-06,1.93161e-05,-9.92891e-06,-5.42101e-06,5.14692e-06,0
-3.37092e-05,1.87096e-05,-1.32821e-05,-7.58305e-06,1.93216e-05,-8.36297e-06,-1.54282e-06,3.63164e-06,0
-3.14566e-05,1.76713e-05,-1.20645e-05,-5.45913e-06,2.26171e-05,-9.18098e-06,2.43563e-06,2.15448e-06,0
-2.93949e-05,1.60998e-05,-8.3755e-06,-6.48443e-06,2.40407e-05,-1.13615e-05,7.64902e-06,3.38793e-06,0
-2.79601e-05,1.64785e-05,-5.8813e-06,-9.1144e-06,2.53404e-05,-1.24399e-05,1.22427e-05,6.96825e-06,0
-2.71254e-05,2.07474e-05,-5.43849e-06,-9.72439e-06,2.68718e-05,-1.33311e-05,1.3922e-05,8.34817e-06,0
-2.69737e-05,2.35239e-05,-7.39189e-06,-9.59689e-06,2.52894e-05,-1.50255e-05,1.38914e-05,8.50536e-06,0
-2.74262e-05,2.32852e-05,-1.06724e-05,-1.05298e-05,2.20714e-05,-1.66944e-05,1.34758e-05,8.11197e-06,0
-2.90692e-05,2.21652e-05,-1.3365e-05,-1.08323e-05,1.98226e-05,-1.71373e-05,1.19994e-05,6.61498e-06,0
-3.17933e-05,2.15376e-05,-1.4469e-05,-9.42068e-06,1.84473e-05,-1.59475e-05,1.17109e-05,5.13228e-06,0
-3.25579e-05,2.21232e-05,-1.40523e-05,-9.57739e-06,1.78534e-05,-1.49367e-05,1.38298e-05,4.30629e-06,0
-3.08808e-05,2.37958e-05,-1.34165e-05,-9.98654e-06,1.80345e-05,-1.40592e-05,1.68221e-05,4.82781e-06,0
-2.9113e-05,2.45492e-05,-1.34512e-05,-7.1391e-06,1.75271e-05,-1.40203e-05,1.8732e-05,6.39872e-06,0
-2.78703e-05,2.52105e-05,-1.36175e-05,-3.20875e-06,1.60969e-05,-1.42347e-05,1.88412e-05,7.65151e-06,0
-2.78558e-05,2.65981e-05,-1.2973e-05,-9.88247e-07,1.37517e-05,-1.37819e-05,1.86289e-05,7.51463e-06,0
-3.00227e-05,2.7833e-05,-1.30587e-05,1.16437e-06,1.24823e-05,-1.42831e-05,1.92805e-05,6.73844e-06,0
-3.22732e-05,2.77912e-05,-1.4999e-05,2.53107e-06,1.33605e-05,-1.59067e-05,2.03697e-05,6.04086e-06,0
-3.23868e-05,2.55737e-05,-1.58008e-05,3.63592e-06,1.56073e-05,-1.75657e-05,2.04478e-05,5.53247e-06,0
-3.1029e-05,2.26858e-05,-1.35165e-05,8.74007e-06,1.91327e-05,-1.81643e-05,1.894e-05,4.77511e-06,0
-2.9471e-05,2.03756e-05,-1.03448e-05,1.99473e-05,2.35649e-05,-1.86806e-05,1.68539e-05,3.82829e-06,0
-2.88424e-05,1.85862e-05,-8.26524e-06,3.61368e-05,2.76259e-05,-1.94712e-05,1.61181e-05,2.68092e-06,0
-2.91989e-05,1.60032e-05,-7.67297e-06,4.94953e-05,3.02154e-05,-1.99342e-05,1.6421e-05,2.57547e-06,0
-2.94289e-05,1.3115e-05,-7.25988e-06,4.78217e-05,3.17772e-05,-1.98548e-05,1.61524e-05,3.18056e-06,0
-2.87019e-05,1.12517e-05,-5.37312e-06,2.65836e-05,3.14546e-05,-1.98358e-05,1.48185e-05,1.67594e-06,0
-2.83301e-05,1.1514e-05,-3.84151e-06,-2.08146e-06,2.91576e-05,-1.95653e-05,1.27976e-05,-1.75953e-06,0
-2.85169e-05,1.34298e-05,-4.94807e-06,-2.37384e-05,2.61852e-05,-1.95109e-05,1.14765e-05,-3.61931e-06,0
-2.89913e-05,1.51544e-05,-5.96626e-06,-3.3852e-05,2.29614e-05,-1.90411e-05,1.23138e-05,-2.63582e-06,0
-2.93485e-05,1.48987e-05,-4.59599e-06,-3.82144e-05,1.88714e-05,-1.69862e-05,1.14151e-05,-1.48916e-06,0
-2.88971e-05,1.38836e-05,-2.19829e-06,-4.32906e-05,1.57834e-05,-1.53986e-05,7.17675e-06,-2.10389e-06,0
-2.86706e-05,1.4196e-05,-3.88686e-07,-4.78387e-05,1.52632e-05,-1.4547e-05,3.63504e-06,-2.98225e-06,0
-2.84314e-05,1.52139e-05,7.48189e-07,-5.06687e-05,1.6768e-05,-1.24161e-05,2.54207e-06,-2.45653e-06,0
-2.79032e-05,1.47818e-05,5.04966e-07,-5.42959e-05,2.17538e-05,-9.90322e-06,3.20235e-06,-2.67471e-06,0
-2.74363e-05,1.41918e-05,-2.30165e-06,-5.9304e-05,2.56165e-05,-8.94213e-06,2.53049e-06,-3.91596e-06,0
-2.55439e-05,1.35825e-05,-5.33016e-06,-6.18891e-05,2.26872e-05,-9.9005e-06,1.84668e-06,-3.57322e-06,0
-2.39035e-05,1.14961e-05,-7.3847e-06,-5.6767e-05,1.77783e-05,-1.11413e-05,2.61902e-06,-1.40818e-06,0
-2.52999e-05,9.69901e-06,-9.91264e-06,-4.60957e-05,1.27986e-05,-1.0756e-05,2.57477e-06,3.82623e-08,0
-2.74472e-05,8.01467e-06,-1.31684e-05,-3.92083e-05,8.98299e-06,-9.29996e-06,6.92677e-07,1.74485e-08,0
-2.86288e-05,5.78628e-06,-1.54255e-05,-3.87259e-05,8.50563e-06,-7.86528e-06,-9.85151e-07,-5.19256e-07,0
-2.82763e-05,3.91281e-06,-1.48267e-05,-3.82202e-05,1.16383e-05,-8.16357e-06,8.81214e-08,-1.41301e-06,0
-2.8075e-05,3.35903e-06,-1.28509e-05,-2.71963e-05,1.48084e-05,-9.39356e-06,4.21299e-06,-2.83665e-06,0
-2.91822e-05,2.24585e-06,-1.07693e-05,-7.83518e-06,1.42774e-05,-9.82543e-06,1.01957e-05,-3.69256e-06,0
-3.05518e-05,9.07794e-08,-8.74462e-06,8.70384e-06,1.16823e-05,-9.03342e-06,1.62135e-05,-3.45487e-06,0
-3.1767e-05,-1.12189e-06,-7.29972e-06,1.80452e-05,9.92949e-06,-6.98936e-06,2.04925e-05,-3.9754e-06,0
-3.12681e-05,-3.07233e-07,-6.95214e-06,2.28777e-05,1.04744e-05,-4.84335e-06,2.36406e-05,-5.33588e-06,0
-3.01191e-05,9.23698e-07,-6.49397e-06,2.60998e-05,1.23982e-05,-4.74115e-06,2.63372e-05,-6.54833e-06,0
-3.02941e-05,1.89099e-06,-4.78753e-06,2.63491e-05,1.50349e-05,-6.47577e-06,2.48569e-05,-5.63595e-06,0
-3.13675e-05,2.8759e-06,-4.02462e-06,2.15817e-05,1.61951e-05,-8.59776e-06,1.55956e-05,-4.23362e-06,0
-3.19047e-05,4.0439e-06,-6.64489e-06,1.23778e-05,1.54135e-05,-1.08445e-05,-2.35976e-07,-4.95402e-06,0
-3.21361e-05,5.15642e-06,-1.09916e-05,3.50949e-06,1.29094e-05,-1.16968e-05,-1.2896e-05,-7.34995e-06,0
-3.15594e-05,5.41969e-06,-1.31098e-05,-8.78089e-07,9.25146e-06,-9.62818e-06,-1.31869e-05,-8.92948e-06,0
-2.99108e-05,6.44914e-06,-1.26762e-05,-2.16447e-06,6.07002e-06,-6.48152e-06,-2.07213e-06,-6.79926e-06,0
-2.92519e-05,9.26864e-06,-1.12808e-05,-6.18573e-06,5.27392e-06,-5.5523e-06,1.31257e-05,-3.42041e-06,0
-3.02141e-05,1.30656e-05,-9.87462e-06,-1.13051e-05,5.26685e-06,-6.06869e-06,2.79687e-05,-2.04096e-06,0
-3.13983e-05,1.61331e-05,-9.00689e-06,-1.09905e-05,3.85899e-06,-6.88865e-06,3.99913e-05,-1.42919e-06,0
-3.10165e-05,1.8118e-05,-8.79365e-06,-4.19422e-06,7.19367e-07,-7.48865e-06,4.65907e-05,-4.20442e-07,0
-2.97629e-05,1.92007e-05,-8.92978e-06,2.35983e-06,-2.34241e-06,-5.95529e-06,4.71873e-05,-5.22126e-07,0
-2.94434e-05,1.85964e-05,-9.67518e-06,6.48764e-06,-3.06905e-06,-3.9765e-06,4.24042e-05,-1.34586e-06,0
-3.06606e-05,1.61239e-05,-8.30217e-06,8.68593e-06,-2.24554e-06,-4.21361e-06,3.62506e-05,-6.02895e-07,0
-3.14712e-05,1.27686e-05,-4.68594e-06,7.64749e-06,-2.94268e-06,-7.08097e-06,2.87839e-05,3.15904e-06,0
-3.06681e-05,9.90012e-06,-1.86624e-06,7.07401e-06,-3.39355e-06,-1.00383e-05,2.07732e-05,6.22798e-06,0
-2.9845e-05,9.27904e-06,-1.07591e-06,8.4478e-06,-1.25061e-06,-1.08125e-05,1.75742e-05,4.88632e-06,0
-2.85731e-05,1.01124e-05,-2.0053e-06,1.3e-05,6.5398e-07,-9.84206e-06,1.55653e-05,2.02538e-06,0
-2.75941e-05,1.1417e-05,-1.75127e-06,1.79628e-05,1.20739e-06,-9.56529e-06,1.16571e-05,9.43005e-07,0
-2.82416e-05,1.1734e-05,-7.72588e-08,2.0865e-05,1.45735e-06,-1.06474e-05,7.34436e-06,1.74539e-06,0
-2.95406e-05,9.02506e-06,1.76905e-06,2.54109e-05,1.86979e-06,-1.03592e-05,3.47937e-06,3.34841e-06,0
-3.0322e-05,6.72958e-06,2.10974e-06,3.40454e-05,2.90655e-06,-9.53055e-06,1.34788e-06,4.31104e-06,0
-3.11121e-05,5.84418e-06,-1.59821e-07,4.19091e-05,5.67348e-06,-8.61942e-06,5.22368e-07,5.30466e-06,0
-3.23653e-05,4.93889e-06,-2.15836e-06,4.21219e-05,7.56252e-06,-6.47843e-06,9.7658e-07,6.66984e-06,0
-3.38156e-05,5.31533e-06,-1.0155e-06,3.41313e-05,7.97587e-06,-3.54732e-06,2.57893e-06,6.61192e-06,0
-3.57985e-05,8.25518e-06,1.59292e-06,2.18473e-05,7.88631e-06,-2.04589e-06,3.87683e-06,6.26088e-06,0
-3.66362e-05,1.15267e-05,1.63665e-06,9.33688e-06,7.88498e-06,-1.42826e-06,4.93809e-06,7.17561e-06,0
-3.60674e-05,1.19902e-05,-2.23724e-06,-2.55525e-06,7.89804e-06,-1.96758e-06,7.23826e-06,7.59264e-06,0
-3.52277e-05,1.08939e-05,-7.58342e-06,-1.1121e-05,8.13905e-06,-3.32258e-06,1.06555e-05,7.36464e-06,0
-3.58705e-05,1.02278e-05,-1.2164e-05,-1.6621e-05,8.43806e-06,-4.16105e-06,1.41741e-05,7.53467e-06,0
-3.57983e-05,1.08039e-05,-1.60963e-05,-2.33185e-05,8.45631e-06,-4.56668e-06,1.65632e-05,7.51048e-06,0
-3.34428e-05,1.28407e-05,-1.99318e-05,-3.25694e-05,1.01751e-05,-4.44217e-06,1.82554e-05,7.38539e-06,0
-3.23154e-05,1.54111e-05,-2.16079e-05,-4.10266e-05,1.46108e-05,-4.73437e-06,1.85195e-05,7.10973e-06,0
-3.32698e-05,1.59961e-05,-1.99477e-05,-4.44651e-05,1.99125e-05,-5.72637e-06,1.65656e-05,6.25466e-06,0
-3.34107e-05,1.481e-05,-1.67807e-05,-4.19048e-05,2.30148e-05,-6.74007e-06,1.42021e-05,5.546e-06,0
-3.29408e-05,1.41465e-05,-1.3432e-05,-3.63126e-05,2.20201e-05,-6.12209e-06,1.21292e-05,5.44306e-06,0
-3.34396e-05,1.4646e-05,-9.95687e-06,-3.12233e-05,1.76045e-05,-5.39027e-06,9.75136e-06,5.12016e-06,0
-3.3623e-05,1.3685e-05,-6.3764e-06,-2.91949e-05,1.37788e-05,-5.49022e-06,7.68666e-06,5.21633e-06,0
-3.31719e-05,1.01233e-05,-3.07534e-06,-2.85253e-05,1.504e-05,-7.54382e-06,5.32325e-06,5.92775e-06,0
-3.27948e-05,8.49944e-06,7.79261e-07,-2.19e-05,1.97327e-05,-9.35374e-06,3.49043e-06,6.714e-06,0
-3.25337e-05,1.0837e-05,3.87368e-06,-1.07254e-05,2.32996e-05,-8.5461e-06,2.6601e-06,6.2703e-06,0
-3.13295e-05,1.45823e-05,4.428e-06,-2.48293e-06,2.47757e-05,-5.39649e-06,1.30887e-06,3.81311e-06,0
-3.1391e-05,1.52264e-05,2.33865e-06,-1.3678e-06,2.28916e-05,-3.12939e-06,-1.03825e-06,6.56616e-07,0
-3.29436e-05,1.3066e-05,-9.86775e-07,-2.06706e-06,1.73052e-05,-5.44146e-06,-3.4366e-06,-2.50339e-06,0
-3.28568e-05,1.20543e-05,-4.24079e-06,-1.90403e-06,1.2428e-05,-8.38899e-06,-1.0698e-06,-3.2089e-06,0
-3.03097e-05,1.26026e-05,-6.56427e-06,-4.68916e-06,1.22795e-05,-9.21917e-06,5.80888e-06,-1.82176e-06,0
-2.84703e-05,1.44773e-05,-7.76423e-06,-8.63372e-06,1.28128e-05,-8.30681e-06,1.46998e-05,-1.2585e-06,0
-2.76975e-05,1.72382e-05,-9.40417e-06,-1.28808e-05,1.00348e-05,-7.05088e-06,2.38993e-05,-1.48841e-06,0
-2.65615e-05,1.92485e-05,-1.01463e-05,-1.4026e-05,6.06393e-06,-6.60252e-06,2.9678e-05,-2.02323e-06,0
-2.66646e-05,1.86542e-05,-9.83515e-06,-1.06302e-05,6.10321e-06,-6.92605e-06,3.0237e-05,-1.99e-06,0
-2.77931e-05,1.67937e-05,-8.64521e-06,-7.62655e-06,8.26285e-06,-7.80307e-06,2.66769e-05,-3.10346e-06,0
-2.85592e-05,1.49012e-05,-7.3117e-06,-7.23033e-06,9.38904e-06,-7.7144e-06,2.17664e-05,-5.15946e-06,0
-2.87738e-05,1.33985e-05,-7.88178e-06,-7.81363e-06,9.03974e-06,-7.10798e-06,1.70309e-05,-5.18974e-06,0
-2.8957e-05,1.23452e-05,-9.34905e-06,-7.66652e-06,8.17775e-06,-7.37141e-06,1.41793e-05,-4.08745e-06,0
-2.93826e-05,1.09179e-05,-9.20367e-06,-5.74097e-06,7.48242e-06,-8.06346e-06,1.24153e-05,-3.51636e-06,0
-3.11255e-05,1.02427e-05,-7.70657e-06,-2.34174e-06,6.17386e-06,-8.55786e-06,1.0206e-05,-2.74e-06,0
-3.35965e-05,1.07893e-05,-7.03218e-06,1.28966e-06,7.04484e-06,-8.01823e-06,8.31733e-06,-1.13369e-06,0
-3.43021e-05,1.15733e-05,-6.8998e-06,5.76137e-06,1.18284e-05,-6.98858e-06,7.97452e-06,-6.14639e-07,0
-3.26057e-05,1.14373e-05,-6.20154e-06,1.0493e-05,1.95424e-05,-6.7412e-06,8.24007e-06,-1.33763e-06,0
-3.06727e-05,1.16488e-05,-5.3446e-06,1.29123e-05,2.49248e-05,-6.75235e-06,7.07883e-06,-1.78976e-06,0
-3.1014e-05,1.40578e-05,-5.21155e-06,1.19042e-05,2.59205e-05,-6.04694e-06,5.39023e-06,-1.2162e-06,0
-3.29532e-05,1.84051e-05,-6.6356e-06,1.03367e-05,2.48468e-05,-5.04128e-06,4.36222e-06,5.00932e-07,0
-3.33912e-05,2.21607e-05,-9.76439e-06,1.0248e-05,2.35184e-05,-5.6345e-06,3.68072e-06,1.91046e-06,0
-3.17557e-05,2.41853e-05,-1.1741e-05,1.03675e-05,2.19029e-05,-8.38384e-06,3.48356e-06,2.14148e-06,0
-3.03846e-05,2.58767e-05,-1.13891e-05,1.25633e-05,2.11869e-05,-1.08391e-05,5.10323e-06,1.10004e-06,0
-2.95178e-05,2.846e-05,-1.13906e-05,1.75131e-05,2.20121e-05,-1.14816e-05,6.33668e-06,-5.29831e-07,0
-2.90327e-05,3.05939e-05,-1.39042e-05,1.82316e-05,2.27522e-05,-1.1752e-05,5.57824e-06,7.45152e-07,0
-3.02274e-05,3.05163e-05,-1.6346e-05,1.2388e-05,2.09628e-05,-1.2937e-05,4.61113e-06,3.15568e-06,0
-3.13308e-05,2.75407e-05,-1.58479e-05,5.46622e-06,1.98329e-05,-1.36293e-05,5.0164e-06,4.85916e-06,0
-3.06386e-05,2.47647e-05,-1.37112e-05,1.35456e-06,1.99626e-05,-1.14627e-05,6.79833e-06,7.84426e-06,0
-2.9711e-05,2.46825e-05,-1.13773e-05,3.62749e-07,1.93026e-05,-8.41547e-06,7.44076e-06,8.93273e-06,0
-2.95049e-05,2.6615e-05,-9.50855e-06,1.94066e-06,1.86131e-05,-8.09299e-06,7.07225e-06,8.44914e-06,0
-2.78014e-05,3.13812e-05,-6.7424e-06,3.20757e-06,1.74517e-05,-8.66499e-06,7.65038e-06,8.05577e-06,0
