ch1,ch2,ch3,ch4,ch5,ch6,ch7,ch8,class
-2.79574e-05,1.72357e-06,-6.98228e-06,-1.64481e-05,1.55516e-05,-1.33821e-05,1.29726e-05,6.97141e-07,0
-2.66492e-05,6.45992e-06,-6.28194e-06,-1.69482e-05,1.48388e-05,-1.32152e-05,1.24547e-05,9.1286e-07,0
-2.54714e-05,1.27583e-05,-7.22848e-06,-1.14723e-05,1.36167e-05,-1.21508e-05,1.3913e-05,5.63624e-07,0
-2.46509e-05,1.73575e-05,-8.68121e-06,-3.23522e-06,1.03657e-05,-1.13852e-05,1.32467e-05,-3.78438e-08,0
-2.44397e-05,1.95087e-05,-8.01096e-06,2.80855e-06,7.37694e-06,-1.23422e-05,9.4566e-06,1.06826e-06,0
-2.4135e-05,2.10678e-05,-5.70269e-06,4.67118e-06,6.07361e-06,-1.3384e-05,4.0901e-06,3.17156e-06,0
-2.3931e-05,2.32543e-05,-3.50655e-06,1.34235e-06,4.20918e-06,-1.39545e-05,-3.89694e-07,3.79684e-06,0
-2.4276e-05,2.43887e-05,-2.9727e-06,-8.08574e-06,2.27336e-06,-1.46452e-05,-5.05309e-06,3.24323e-06,0
-2.45673e-05,2.30858e-05,-2.61084e-06,-1.95875e-05,1.66089e-06,-1.52187e-05,-1.05205e-05,3.23554e-06,0
-2.47118e-05,2.22432e-05,-2.82952e-06,-2.51894e-05,1.02975e-06,-1.67238e-05,-1.70236e-05,4.10287e-06,0
-2.61331e-05,2.14918e-05,-4.06843e-06,-1.84825e-05,4.10237e-06,-1.71351e-05,-2.48026e-05,4.56954e-06,0
-2.73487e-05,2.06335e-05,-5.93519e-06,3.40232e-06,1.27493e-05,-1.51714e-05,-2.89577e-05,2.86252e-06,0
-2.63171e-05,1.98599e-05,-7.2254e-06,2.55318e-05,1.5604e-05,-1.46139e-05,-2.35788e-05,3.98853e-07,0
-2.60773e-05,1.79849e-05,-6.28717e-06,3.33168e-05,1.14037e-05,-1.55384e-05,-9.8354e-06,-4.417e-07,0
-2.8124e-05,1.43165e-05,-5.5695e-06,2.88484e-05,7.09295e-06,-1.60909e-05,4.01776e-06,9.56274e-07,0
-3.01438e-05,1.01036e-05,-6.61389e-06,1.49541e-05,5.28033e-06,-1.68268e-05,1.4154e-05,3.82596e-06,0
-3.19648e-05,7.10578e-06,-1.02997e-05,1.09569e-06,4.61833e-06,-1.74017e-05,1.9629e-05,5.77665e-06,0
-3.20155e-05,4.56568e-06,-1.46008e-05,-9.14217e-06,1.92006e-06,-1.81043e-05,2.14637e-05,6.67223e-06,0
-3.01122e-05,2.17918e-06,-1.71627e-05,-1.56448e-05,-3.08895e-07,-1.78985e-05,2.05121e-05,6.0981e-06,0
-2.98017e-05,4.90244e-07,-1.77457e-05,-1.96362e-05,1.09074e-06,-1.63248e-05,1.74961e-05,3.69947e-06,0
-3.19503e-05,1.10214e-06,-1.56498e-05,-2.28469e-05,5.77307e-06,-1.43713e-05,1.40129e-05,1.81856e-06,0
-3.34319e-05,3.45088e-06,-1.26497e-05,-2.58715e-05,1.28803e-05,-1.27182e-05,1.0824e-05,1.42896e-06,0
-3.35675e-05,7.23791e-06,-9.7739e-06,-2.78992e-05,2.16362e-05,-1.17287e-05,8.21472e-06,1.76159e-06,0
-3.24255e-05,1.15361e-05,-6.97465e-06,-2.44207e-05,2.99937e-05,-1.18226e-05,7.52485e-06,2.8458e-06,0
-2.99989e-05,1.51073e-05,-4.29591e-06,-1.63812e-05,3.66189e-05,-1.15821e-05,8.88272e-06,4.07961e-06,0
-2.77613e-05,2.01836e-05,-1.27196e-06,-8.77605e-06,3.94747e-05,-9.54553e-06,1.0797e-05,4.35203e-06,0
-2.6194e-05,2.89842e-05,1.38343e-06,-6.61992e-06,3.77469e-05,-6.97473e-06,1.13203e-05,3.828e-06,0
-2.55728e-05,4.06317e-05,2.61725e-06,-9.09232e-06,3.24246e-05,-6.5272e-06,1.00055e-05,2.00983e-06,0
-2.63271e-05,4.92145e-05,1.61735e-06,-1.20852e-05,2.71138e-05,-7.79847e-06,8.78677e-06,-6.49523e-07,0
-2.8012e-05,5.1619e-05,-3.33311e-07,-1.13292e-05,2.47198e-05,-8.45225e-06,8.81382e-06,-2.9251e-06,0
-2.91374e-05,5.38071e-05,-2.17027e-06,-8.55518e-06,2.43264e-05,-8.10417e-06,9.03546e-06,-3.60666e-06,0
-2.93488e-05,6.40187e-05,-2.68568e-06,-6.51566e-06,2.51834e-05,-7.22104e-06,8.21092e-06,-3.64436e-06,0
-2.80805e-05,7.87898e-05,-1.30986e-06,-4.40817e-06,2.64481e-05,-5.96421e-06,6.97742e-06,-3.5798e-06,0
-2.73469e-05,8.70727e-05,4.10725e-07,-1.36428e-06,2.58338e-05,-5.45354e-06,5.52164e-06,-2.91614e-06,0
-2.77835e-05,8.28627e-05,4.79545e-07,7.31907e-07,2.24628e-05,-5.64798e-06,4.42738e-06,-2.90334e-06,0
-2.83473e-05,6.36439e-05,-4.67175e-07,-1.41587e-06,1.86436e-05,-5.77561e-06,3.67692e-06,-3.55876e-06,0
-2.92768e-05,3.36707e-05,-2.24232e-06,-5.32463e-06,1.5264e-05,-5.9515e-06,3.82587e-06,-3.14011e-06,0
-3.09391e-05,1.12723e-06,-4.67165e-06,-6.01919e-06,1.1557e-05,-5.81742e-06,5.52356e-06,-2.33053e-06,0
-3.3356e-05,-3.02883e-05,-5.84636e-06,-2.6086e-06,8.37061e-06,-6.46191e-06,6.54172e-06,-2.36301e-06,0
-3.42728e-05,-5.12883e-05,-4.71392e-06,8.24508e-07,6.78564e-06,-6.35628e-06,7.07407e-06,-2.21034e-06,0
-3.48223e-05,-6.08532e-05,-3.50635e-06,1.18334e-06,5.15483e-06,-5.46869e-06,9.71385e-06,2.41496e-07,0
-3.49833e-05,-6.3242e-05,-5.17632e-06,1.71523e-07,4.51047e-06,-5.11409e-06,1.42507e-05,2.23413e-06,0
-3.35457e-05,-5.6345e-05,-6.4789e-06,-4.73083e-08,4.47412e-06,-5.70494e-06,1.74288e-05,1.78946e-06,0
-3.30885e-05,-4.44285e-05,-7.03402e-06,2.72637e-06,3.9627e-06,-6.72438e-06,1.81047e-05,2.59592e-06,0
-3.32964e-05,-2.88225e-05,-8.25624e-06,7.82988e-06,4.40481e-06,-6.85541e-06,1.72659e-05,2.6772e-06,0
-3.2801e-05,-9.43031e-06,-8.34762e-06,1.14818e-05,5.25525e-06,-7.10446e-06,1.639e-05,1.23623e-06,0
-3.16594e-05,1.04691e-05,-7.63165e-06,1.07046e-05,4.97874e-06,-7.70445e-06,1.59362e-05,6.35732e-07,0
-3.09312e-05,2.54987e-05,-6.72773e-06,7.97025e-06,2.73449e-06,-8.91226e-06,1.64591e-05,1.43689e-06,0
-3.01995e-05,3.00299e-05,-6.1979e-06,6.47171e-06,9.34341e-07,-1.09746e-05,1.87721e-05,2.63199e-06,0
-2.95168e-05,2.40947e-05,-7.42116e-06,6.07652e-06,7.81433e-07,-1.11605e-05,2.02878e-05,3.53443e-06,0
-2.90944e-05,1.17387e-05,-1.08998e-05,6.56127e-06,7.47485e-07,-8.17588e-06,2.07321e-05,2.93972e-06,0
-2.82535e-05,-3.52522e-06,-1.35277e-05,6.2007e-06,3.24496e-07,-5.67979e-06,2.10242e-05,1.00388e-06,0
-2.85186e-05,-1.95391e-05,-1.40656e-05,4.31104e-06,3.90802e-08,-4.99148e-06,2.13054e-05,-1.50461e-07,0
-3.01149e-05,-3.3216e-05,-1.47456e-05,6.5323e-07,9.16977e-07,-5.1943e-06,2.13331e-05,3.6198e-07,0
-3.10715e-05,-3.9223e-05,-1.61206e-05,-4.67799e-06,2.7026e-06,-4.77235e-06,2.12415e-05,1.52645e-06,0
-3.08828e-05,-3.49434e-05,-1.79545e-05,-1.08277e-05,4.41665e-06,-4.01001e-06,2.08248e-05,2.21211e-06,0
-3.07773e-05,-2.56489e-05,-2.06192e-05,-1.62086e-05,5.62345e-06,-4.96169e-06,1.98806e-05,2.65211e-06,0
-3.1496e-05,-1.83161e-05,-2.36227e-05,-2.10456e-05,7.35967e-06,-7.55792e-06,1.9477e-05,2.78906e-06,0
-3.28837e-05,-1.20352e-05,-2.34543e-05,-2.6508e-05,1.00128e-05,-9.33167e-06,1.94611e-05,2.83762e-06,0
-3.36874e-05,-6.07955e-06,-1.88044e-05,-3.31936e-05,1.10398e-05,-9.24077e-06,1.94515e-05,2.50526e-06,0
-3.36255e-05,-2.42143e-06,-1.27549e-05,-3.7303e-05,1.01739e-05,-8.97831e-06,1.92331e-05,2.67949e-06,0
-3.27847e-05,-2.7855e-07,-8.9198e-06,-3.6875e-05,9.93997e-06,-8.46489e-06,1.88792e-05,3.35263e-06,0
-3.2499e-05,7.05905e-07,-8.04198e-06,-3.44335e-05,1.07955e-05,-7.38071e-06,1.8666e-05,3.17183e-06,0
-3.37995e-05,5.58877e-07,-9.19418e-06,-3.14576e-05,1.04269e-05,-7.39301e-06,1.62454e-05,1.5114e-06,0
-3.533e-05,1.35255e-06,-1.00089e-05,-2.73134e-05,8.75161e-06,-7.68303e-06,7.23008e-06,1.35007e-06,0
-3.60357e-05,5.76006e-06,-9.14031e-06,-1.23827e-05,8.54291e-06,-6.6305e-06,-1.21636e-05,2.19042e-06,0
-3.48103e-05,7.93517e-06,-7.5487e-06,1.93663e-05,9.79545e-06,-4.10645e-06,-2.9538e-05,1.11987e-06,0
-3.30144e-05,4.33707e-06,-6.266e-06,5.35075e-05,1.21025e-05,-3.17278e-06,-3.11138e-05,-1.61108e-06,0
-3.25428e-05,8.69974e-07,-5.86628e-06,7.16997e-05,1.62253e-05,-5.86141e-06,-2.06581e-05,-2.30261e-06,0
-3.23404e-05,2.13091e-08,-4.12979e-06,6.66717e-05,1.87665e-05,-8.70636e-06,-3.7409e-06,-1.33553e-06,0
-3.28741e-05,8.12114e-07,-2.4592e-06,4.91582e-05,1.94648e-05,-1.00005e-05,1.29247e-05,-8.86503e-07,0
-3.31077e-05,2.31351e-06,-1.25375e-06,3.27779e-05,1.86278e-05,-9.78216e-06,2.98354e-05,2.82293e-07,0
-3.26194e-05,4.53936e-06,7.56039e-08,1.72511e-05,1.63722e-05,-1.09919e-05,4.2782e-05,1.64487e-07,0
-3.29719e-05,8.24942e-06,9.33886e-08,3.61954e-06,1.40616e-05,-1.15495e-05,4.75755e-05,-7.80407e-07,0
-3.36258e-05,1.16655e-05,-1.34315e-06,-3.44803e-06,1.07934e-05,-1.0607e-05,4.70966e-05,-2.03064e-06,0
-3.33825e-05,1.38691e-05,-4.26439e-06,-4.15158e-06,9.10629e-06,-1.07882e-05,4.49249e-05,-2.44492e-06,0
-3.36973e-05,1.67781e-05,-7.0788e-06,-8.64428e-06,1.04668e-05,-1.19739e-05,4.18489e-05,-1.76028e-06,0
-3.42947e-05,2.04576e-05,-8.59714e-06,-1.88774e-05,1.40587e-05,-1.20188e-05,3.73463e-05,-1.10991e-06,0
-3.28344e-05,2.43571e-05,-7.12073e-06,-2.50894e-05,1.9442e-05,-1.06345e-05,3.26401e-05,-1.20256e-06,0
-3.06935e-05,2.76992e-05,-3.74179e-06,-1.80535e-05,2.57593e-05,-9.57132e-06,2.651e-05,-1.52563e-06,0
-2.92026e-05,2.99476e-05,-6.10911e-07,-1.74625e-06,3.03435e-05,-8.67753e-06,2.18703e-05,-4.59877e-07,0
-2.75444e-05,3.09092e-05,1.4816e-06,1.00335e-05,3.1839e-05,-8.39196e-06,2.17012e-05,2.21873e-06,0
-2.51489e-05,3.09593e-05,2.92038e-06,9.19801e-06,3.22423e-05,-7.3219e-06,2.80592e-05,4.77897e-06,0
-2.33652e-05,3.14066e-05,2.99172e-06,-2.51306e-06,3.2613e-05,-4.9028e-06,3.52081e-05,6.17559e-06,0
-2.22105e-05,3.1674e-05,7.02041e-07,-1.64272e-05,3.16731e-05,-3.06582e-06,3.49361e-05,7.49657e-06,0
-2.18831e-05,3.15008e-05,-3.51359e-06,-2.59395e-05,2.83447e-05,-4.21327e-06,2.47967e-05,8.86799e-06,0
-2.29713e-05,3.22883e-05,-6.40746e-06,-2.79173e-05,2.37193e-05,-6.7866e-06,1.10525e-05,1.04439e-05,0
-2.50402e-05,3.45077e-05,-5.86215e-06,-2.33588e-05,2.08059e-05,-9.13221e-06,1.49086e-06,1.11934e-05,0
-2.62868e-05,3.65041e-05,-5.09368e-06,-1.43582e-05,2.11337e-05,-1.04286e-05,-2.99545e-06,1.07526e-05,0
-2.61726e-05,3.65749e-05,-4.33824e-06,-6.15425e-06,2.33129e-05,-1.23513e-05,-6.37293e-06,9.40787e-06,0
-2.69349e-05,3.57005e-05,-4.43026e-06,-3.04715e-06,2.53031e-05,-1.56214e-05,-9.1146e-06,8.93581e-06,0
-2.87305e-05,3.59399e-05,-7.1388e-06,-3.59544e-06,2.47884e-05,-1.665e-05,-1.05059e-05,9.16356e-06,0
-3.02173e-05,3.64758e-05,-9.80164e-06,-4.31895e-06,2.16847e-05,-1.47929e-05,-9.54993e-06,9.12517e-06,0
-3.02443e-05,3.42808e-05,-9.19714e-06,-5.05711e-06,1.8254e-05,-1.40456e-05,-6.46428e-06,7.20553e-06,0
-2.9145e-05,2.8967e-05,-8.18478e-06,-6.68385e-06,1.71715e-05,-1.4295e-05,-2.41273e-06,4.35264e-06,0
-2.7559e-05,2.4128e-05,-8.54571e-06,-9.51438e-06,1.89932e-05,-1.34972e-05,2.53568e-06,4.71339e-06,0
-2.72906e-05,2.17845e-05,-8.30623e-06,-1.22199e-05,2.00856e-05,-1.27211e-05,7.95278e-06,5.98016e-06,0
-2.96891e-05,1.94591e-05,-6.6454e-06,-1.44888e-05,1.81927e-05,-1.21277e-05,1.29911e-05,7.13091e-06,0
-3.0886e-05,1.60087e-05,-5.26563e-06,-1.77836e-05,1.45376e-05,-1.23038e-05,1.57558e-05,7.73913e-06,0
-3.04167e-05,1.25011e-05,-6.30464e-06,-2.14351e-05,1.27082e-05,-1.42812e-05,1.63499e-05,8.49235e-06,0
-3.00186e-05,9.98273e-06,-8.84713e-06,-2.54583e-05,1.28586e-05,-1.5584e-05,1.47408e-05,8.68609e-06,0
-2.99605e-05,9.2199e-06,-1.20045e-05,-2.9401e-05,1.23317e-05,-1.58926e-05,1.46639e-05,6.56345e-06,0
-3.03101e-05,1.12178e-05,-1.36281e-05,-3.1969e-05,1.0884e-05,-1.65467e-05,1.72019e-05,3.36359e-06,0
-3.08831e-05,1.4966e-05,-1.384e-05,-3.15941e-05,1.00962e-05,-1.5822e-05,2.28486e-05,1.03996e-06,0
-3.06871e-05,1.73689e-05,-1.33228e-05,-2.62551e-05,1.19683e-05,-1.4684e-05,3.15973e-05,3.22743e-07,0
-2.99758e-05,1.88548e-05,-1.18157e-05,-1.69396e-05,1.508e-05,-1.39313e-05,4.02227e-05,-4.17169e-08,0
-3.05351e-05,1.97075e-05,-1.02282e-05,-6.93833e-06,1.71342e-05,-1.37205e-05,4.398e-05,-1.6214e-07,0
-3.21815e-05,1.92428e-05,-9.60645e-06,3.46103e-06,1.69153e-05,-1.36454e-05,4.18322e-05,-5.80522e-07,0
-3.29812e-05,1.87074e-05,-9.58453e-06,1.43017e-05,1.59373e-05,-1.35956e-05,3.53419e-05,-3.19394e-07,0
-3.19035e-05,1.96886e-05,-8.63212e-06,2.24825e-05,1.68138e-05,-1.28851e-05,2.59819e-05,1.21442e-07,0
-3.01751e-05,2.14807e-05,-6.51885e-06,2.322e-05,1.99223e-05,-1.19262e-05,1.54303e-05,-5.43858e-07,0
-2.83375e-05,2.2285e-05,-4.07663e-06,1.74105e-05,2.17402e-05,-1.1924e-05,3.36153e-06,-1.94463e-06,0
-2.78334e-05,2.12647e-05,-3.53146e-06,1.02401e-05,1.97379e-05,-1.2534e-05,-9.41375e-06,-2.37421e-06,0
-2.78546e-05,2.07636e-05,-5.1953e-06,4.69835e-06,1.73551e-05,-1.2668e-05,-1.89025e-05,-1.87968e-06,0
-2.75964e-05,2.31269e-05,-7.58509e-06,5.34117e-07,1.76716e-05,-1.29474e-05,-2.14872e-05,-1.62502e-06,0
-2.69013e-05,2.55683e-05,-8.7263e-06,-3.97499e-06,1.81259e-05,-1.42602e-05,-1.93644e-05,-1.30572e-06,0
-2.55556e-05,2.58658e-05,-7.81329e-06,-7.84724e-06,1.73221e-05,-1.43511e-05,-1.61386e-05,3.75339e-07,0
-2.58434e-05,2.65627e-05,-6.72674e-06,-8.60214e-06,1.72811e-05,-1.36245e-05,-1.25355e-05,1.86335e-06,0
-2.88298e-05,2.82779e-05,-6.84984e-06,-7.18683e-06,1.75926e-05,-1.41623e-05,-8.00748e-06,1.97904e-06,0
-3.10153e-05,2.81672e-05,-7.73045e-06,-4.75088e-06,1.80593e-05,-1.46306e-05,-2.81258e-06,3.00142e-06,0
-2.96334e-05,2.73935e-05,-9.0656e-06,-5.50328e-06,1.73934e-05,-1.36551e-05,3.0618e-06,4.39014e-06,0
-2.8047e-05,2.71034e-05,-1.008e-05,-7.71377e-06,1.47884e-05,-1.24072e-05,9.34777e-06,3.58837e-06,0
-2.84609e-05,2.60126e-05,-1.12605e-05,-6.85745e-06,1.22329e-05,-1.19663e-05,1.73828e-05,1.02157e-06,0
-3.05255e-05,2.39322e-05,-1.29767e-05,-7.65319e-06,1.22196e-05,-1.23855e-05,2.60622e-05,4.98017e-07,0
-3.29885e-05,2.31915e-05,-1.41851e-05,-7.39463e-06,1.32047e-05,-1.30938e-05,3.05048e-05,1.56365e-06,0
-3.38052e-05,2.38659e-05,-1.52e-05,-7.8647e-06,1.11678e-05,-1.49772e-05,2.90644e-05,1.8613e-06,0
-3.26081e-05,2.42722e-05,-1.63853e-05,-1.12306e-05,7.65902e-06,-1.78478e-05,2.35046e-05,2.23722e-06,0
-2.9065e-05,2.58105e-05,-1.66178e-05,-1.3694e-05,6.00944e-06,-1.87448e-05,1.67579e-05,3.53384e-06,0
-2.5904e-05,2.78513e-05,-1.63172e-05,-1.45926e-05,5.7268e-06,-1.68519e-05,1.21674e-05,4.78256e-06,0
-2.50732e-05,2.76865e-05,-1.55363e-05,-1.31698e-05,3.26681e-06,-1.4249e-05,1.03485e-05,5.55526e-06,0
-2.62685e-05,2.53335e-05,-1.43838e-05,-9.15024e-06,-6.11242e-07,-1.3013e-05,1.03426e-05,6.37041e-06,0
-2.68892e-05,2.46158e-05,-1.4368e-05,-4.09035e-06,-1.71919e-06,-1.30639e-05,1.04782e-05,7.19157e-06,0
-2.64449e-05,2.59114e-05,-1.41461e-05,-5.30765e-07,-4.61629e-07,-1.30638e-05,9.99971e-06,6.48556e-06,0
-2.64275e-05,2.58803e-05,-1.25796e-05,1.32218e-06,4.71871e-07,-1.17588e-05,7.75244e-06,4.08419e-06,0
-2.7111e-05,2.2859e-05,-1.00977e-05,1.48996e-06,2.93322e-07,-1.01898e-05,3.78746e-06,2.42628e-06,0
-2.86007e-05,1.82121e-05,-8.39007e-06,3.01523e-07,-6.19606e-07,-1.01328e-05,1.33773e-07,2.6715e-06,0
-2.97584e-05,1.46651e-05,-7.93223e-06,-4.28763e-06,-1.08238e-06,-1.14487e-05,-1.51714e-06,3.52524e-06,0
-2.98632e-05,1.23027e-05,-8.64145e-06,-1.05501e-05,2.1343e-07,-1.28596e-05,-8.88719e-07,2.93188e-06,0
-2.86792e-05,1.0302e-05,-1.07743e-05,-1.29503e-05,3.19653e-06,-1.28939e-05,2.98118e-07,1.30233e-06,0
-2.87064e-05,9.33766e-06,-1.34972e-05,-8.78637e-06,6.63615e-06,-1.25084e-05,1.61568e-06,2.34242e-07,0
-2.9948e-05,9.26961e-06,-1.57407e-05,-1.64889e-06,8.06294e-06,-1.20788e-05,2.26062e-06,-6.66173e-07,0
-3.02195e-05,9.32839e-06,-1.73678e-05,3.80007e-06,8.03135e-06,-1.09524e-05,2.15434e-06,-2.53291e-06,0
-2.8675e-05,9.92891e-06,-1.88546e-05,7.44674e-06,8.71646e-06,-9.4273e-06,2.40095e-06,-4.67312e-06,0
-2.74466e-05,9.73359e-06,-1.84224e-05,7.41291e-06,8.51249e-06,-7.6543e-06,2.71906e-06,-4.67392e-06,0
-2.74969e-05,9.70292e-06,-1.54552e-05,5.32023e-06,7.77048e-06,-6.45934e-06,3.61493e-06,-4.10709e-06,0
-2.82929e-05,9.46676e-06,-1.36303e-05,6.73376e-06,7.08746e-06,-5.42247e-06,6.28396e-06,-4.26604e-06,0
-3.00705e-05,7.54343e-06,-1.19335e-05,9.77633e-06,5.62757e-06,-3.93673e-06,8.67609e-06,-2.91315e-06,0
-3.16769e-05,5.54189e-06,-7.74149e-06,6.08564e-06,5.19852e-06,-4.1891e-06,8.93657e-06,-1.05244e-06,0
-3.08355e-05,5.5224e-06,4.48071e-08,-4.42337e-06,6.61658e-06,-4.11017e-06,8.8281e-06,2.28961e-08,0
-2.93019e-05,8.89376e-06,1.0905e-05,-6.63034e-06,9.32134e-06,-2.48104e-06,1.03106e-05,9.4136e-07,0
-2.86498e-05,1.3839e-05,2.36826e-05,3.08966e-06,1.05306e-05,-1.77632e-06,1.10995e-05,1.01739e-06,0
-2.88415e-05,1.72779e-05,3.98275e-05,1.48437e-05,9.39308e-06,-1.89593e-06,1.16982e-05,1.92037e-07,0
-2.97482e-05,1.62699e-05,5.75416e-05,2.13648e-05,8.17109e-06,-3.4296e-06,1.27266e-05,-1.38708e-06,0
-3.05622e-05,1.21435e-05,7.08405e-05,1.75724e-05,8.88972e-06,-5.74904e-06,1.35213e-05,-4.7652e-06,0
-3.15109e-05,8.32242e-06,7.12715e-05,3.70179e-06,1.18014e-05,-7.06768e-06,1.46635e-05,-7.30702e-06,0
-3.14412e-05,6.65358e-06,5.56178e-05,-1.20982e-05,1.4349e-05,-8.21345e-06,1.58577e-05,-6.58622e-06,0
-2.99037e-05,5.68277e-06,2.47633e-05,-1.90091e-05,1.5026e-05,-8.77521e-06,1.68181e-05,-4.61661e-06,0
-2.94002e-05,4.20264e-06,-1.3726e-05,-1.70725e-05,1.4116e-05,-7.78314e-06,1.76915e-05,-3.2945e-06,0
-3.08511e-05,2.59073e-06,-4.91052e-05,-1.36623e-05,1.24177e-05,-6.2321e-06,1.88341e-05,-1.91606e-06,0
-3.1119e-05,2.81862e-06,-7.28819e-05,-1.3747e-05,1.19102e-05,-4.76492e-06,1.96816e-05,-7.96364e-07,0
-2.96395e-05,5.96907e-06,-8.11209e-05,-1.82455e-05,1.40237e-05,-4.21551e-06,1.91127e-05,-7.09448e-07,0
-2.84968e-05,1.02535e-05,-7.70392e-05,-2.54044e-05,1.68675e-05,-4.1834e-06,1.74869e-05,-6.19202e-07,0
-2.95165e-05,1.62001e-05,-6.68229e-05,-3.03482e-05,1.74058e-05,-4.31501e-06,1.74969e-05,4.96217e-07,0
-3.19741e-05,2.68859e-05,-5.67764e-05,-2.92113e-05,1.46845e-05,-4.61356e-06,1.89175e-05,2.15465e-06,0
-3.41647e-05,4.25491e-05,-4.81025e-05,-2.2735e-05,1.08343e-05,-4.6776e-06,1.81157e-05,3.32082e-06,0
-3.43665e-05,5.66257e-05,-4.04477e-05,-1.81126e-05,9.2198e-06,-4.66058e-06,1.46952e-05,3.09519e-06,0
-3.2976e-05,6.29451e-05,-3.37204e-05,-1.85327e-05,1.20566e-05,-5.89063e-06,1.2464e-05,1.10721e-06,0
-3.20618e-05,5.84001e-05,-2.79469e-05,-1.75207e-05,1.72811e-05,-6.73046e-06,1.30491e-05,-9.82459e-07,0
-3.22563e-05,4.3304e-05,-2.38348e-05,-9.07975e-06,2.0886e-05,-5.40932e-06,1.62449e-05,-1.82395e-06,0
-3.32028e-05,2.27793e-05,-2.12637e-05,4.75611e-06,2.19956e-05,-3.1502e-06,1.93518e-05,-2.3535e-06,0
-3.33273e-05,2.5569e-06,-1.74093e-05,1.72785e-05,2.1174e-05,-9.33075e-07,1.94232e-05,-3.35825e-06,0
-3.39145e-05,-1.32503e-05,-1.34665e-05,2.14544e-05,1.8251e-05,-6.12029e-07,1.79198e-05,-3.80449e-06,0
-3.59799e-05,-2.01535e-05,-1.30912e-05,1.88291e-05,1.65309e-05,-2.80168e-06,1.72385e-05,-3.6045e-06,0
-3.50922e-05,-1.93396e-05,-1.43522e-05,1.61402e-05,1.70951e-05,-6.50448e-06,1.03382e-05,-4.28482e-06,0
-3.19567e-05,-1.63046e-05,-1.42402e-05,1.11518e-05,1.85908e-05,-8.37452e-06,-4.50587e-06,-5.51404e-06,0
-2.9964e-05,-1.4114e-05,-1.31122e-05,-4.24037e-07,2.08436e-05,-7.46495e-06,-1.45006e-05,-3.12659e-06,0
-2.97536e-05,-1.25557e-05,-1.31022e-05,-1.77811e-05,2.13617e-05,-6.37699e-06,-1.13192e-05,1.08377e-06,0
-3.07787e-05,-9.024e-06,-1.29994e-05,-3.04367e-05,1.90467e-05,-6.53406e-06,1.90882e-06,3.16041e-06,0
-3.22085e-05,-3.22776e-06,-1.14138e-05,-3.49525e-05,1.67482e-05,-5.44969e-06,1.81573e-05,3.35305e-06,0
-3.35911e-05,2.14643e-06,-8.71317e-06,-3.86121e-05,1.70383e-05,-3.19239e-06,3.24724e-05,2.16004e-06,0
-3.36955e-05,7.08462e-06,-5.33929e-06,-4.2585e-05,1.73143e-05,-2.41186e-06,4.36593e-05,8.15377e-07,0
-3.17299e-05,1.04186e-05,-2.97676e-06,-4.19324e-05,1.55284e-05,-1.84342e-06,5.22626e-05,1.96154e-07,0
-2.91377e-05,1.08505e-05,-1.59296e-06,-3.75071e-05,1.27821e-05,-1.0494e-06,5.63428e-05,4.68253e-07,0
-2.84071e-05,1.05821e-05,2.99029e-07,-3.5054e-05,1.1824e-05,-2.89904e-08,5.24859e-05,5.82177e-07,0
-2.83372e-05,1.13705e-05,1.65266e-06,-3.77337e-05,1.194e-05,2.48341e-07,4.14903e-05,3.405e-07,0
-2.81581e-05,1.24436e-05,5.6432e-07,-4.30915e-05,1.24982e-05,-3.67926e-07,3.10084e-05,1.53072e-06,0
-2.83483e-05,1.31212e-05,-4.86823e-07,-4.23066e-05,1.4139e-05,-1.56357e-06,2.61031e-05,4.042e-06,0
-2.99472e-05,1.44713e-05,-5.74205e-07,-3.18595e-05,1.56826e-05,-2.54723e-06,2.62357e-05,4.45752e-06,0
-3.20149e-05,1.58988e-05,-6.10868e-07,-1.83997e-05,1.61037e-05,-3.19957e-06,2.68342e-05,2.68924e-06,0
-3.29153e-05,1.93145e-05,-5.02058e-07,-1.06052e-05,1.47373e-05,-4.40063e-06,2.48699e-05,2.31577e-06,0
-3.20712e-05,2.59099e-05,-1.06577e-07,-7.67375e-06,1.33545e-05,-5.61669e-06,2.11307e-05,5.24456e-06,0
-3.0744e-05,3.19375e-05,6.77421e-07,-5.96548e-06,1.29988e-05,-5.57551e-06,1.66671e-05,8.29676e-06,0
-2.97986e-05,3.27497e-05,2.56984e-07,-4.70217e-06,1.22985e-05,-3.8975e-06,1.16424e-05,8.52923e-06,0
-2.90145e-05,2.91608e-05,-8.86594e-07,-2.91722e-06,1.07864e-05,-2.68603e-06,6.70419e-06,7.15762e-06,0
-2.81609e-05,2.25042e-05,-1.64971e-06,1.84138e-07,9.65291e-06,-3.06983e-06,2.23838e-06,6.63706e-06,0
-2.67426e-05,1.33801e-05,-3.13111e-06,3.50704e-06,7.32502e-06,-4.0042e-06,-9.86701e-07,7.9361e-06,0
-2.65537e-05,3.40225e-06,-5.10739e-06,6.41597e-06,4.45173e-06,-4.9313e-06,-2.43546e-06,9.18911e-06,0
-2.82444e-05,-3.47875e-06,-6.20653e-06,8.66429e-06,3.62399e-06,-6.34369e-06,-2.84657e-06,9.04124e-06,0
-2.96876e-05,-5.65101e-06,-5.77526e-06,8.04667e-06,4.84853e-06,-7.20345e-06,-2.27998e-06,6.88376e-06,0
-2.94298e-05,-8.72367e-06,-3.86589e-06,8.20684e-06,5.3374e-06,-7.52612e-06,-2.69757e-06,4.0479e-06,0
-2.90542e-05,-1.44253e-05,-3.96005e-06,1.15708e-05,6.59894e-06,-9.21622e-06,-4.07254e-06,4.11414e-06,0
-2.90256e-05,-1.7365e-05,-5.04482e-06,1.49682e-05,8.06633e-06,-1.08996e-05,-3.24317e-06,3.90925e-06,0
-2.92998e-05,-1.46238e-05,-3.60686e-06,1.69528e-05,5.70014e-06,-9.611e-06,9.51155e-07,-1.05368e-06,0
-2.86806e-05,-7.78289e-06,-1.77352e-06,1.72635e-05,3.04731e-06,-6.9785e-06,3.56127e-06,-5.34583e-06,0
-2.88071e-05,8.19852e-07,-1.48145e-06,1.635e-05,1.58e-06,-6.33092e-06,2.20075e-06,-4.26805e-06,0
-3.07358e-05,6.7859e-06,-3.09486e-06,1.31542e-05,6.46787e-07,-7.9106e-06,-5.63931e-07,2.9231e-07,0
-3.19898e-05,1.00895e-05,-4.46728e-06,9.31421e-06,-2.52225e-07,-9.30183e-06,-1.68569e-06,3.28116e-06,0
-3.30644e-05,1.22054e-05,-3.43113e-06,7.8613e-06,-1.25711e-07,-1.15004e-05,8.51236e-07,3.1163e-06,0
-3.42866e-05,1.37455e-05,-1.85055e-06,8.21199e-06,2.54772e-06,-1.44709e-05,4.71457e-06,2.08344e-06,0
-3.46937e-05,1.41209e-05,-1.03969e-06,8.59948e-06,6.70054e-06,-1.59986e-05,7.48353e-06,1.17545e-06,0
-3.36661e-05,1.37097e-05,-1.45789e-06,7.40669e-06,9.57301e-06,-1.62947e-05,8.56297e-06,1.20352e-06,0
-3.2177e-05,1.3796e-05,-2.02122e-06,6.27403e-06,1.01503e-05,-1.64263e-05,9.31622e-06,1.25682e-06,0
-2.97604e-05,1.44305e-05,-2.92796e-06,6.75298e-06,1.1358e-05,-1.77036e-05,1.03477e-05,1.47493e-06,0
-2.73263e-05,1.56338e-05,-5.15377e-06,7.52308e-06,1.56962e-05,-1.94394e-05,1.21313e-05,2.20867e-06,0
-2.70325e-05,1.67656e-05,-7.74722e-06,7.71733e-06,2.00412e-05,-1.91664e-05,1.37108e-05,3.12567e-06,0
-2.86937e-05,1.71417e-05,-9.52937e-06,6.45126e-06,2.0273e-05,-1.67617e-05,1.39334e-05,4.21661e-06,0
-2.98081e-05,1.54375e-05,-9.70718e-06,2.76163e-06,1.79711e-05,-1.46052e-05,1.48241e-05,4.83463e-06,0
-2.85032e-05,1.26771e-05,-8.686e-06,-1.0811e-06,1.71618e-05,-1.33109e-05,1.73399e-05,4.08732e-06,0
-2.66012e-05,9.64182e-06,-7.3072e-06,-3.18119e-06,1.81339e-05,-1.31108e-05,1.95004e-05,1.54808e-06,0
-2.70167e-05,7.15769e-06,-6.51925e-06,-4.73372e-06,1.65931e-05,-1.3946e-05,1.96275e-05,-1.18003e-06,0
-2.90819e-05,5.42863e-06,-6.08801e-06,-7.19007e-06,1.20729e-05,-1.56701e-05,1.88093e-05,-3.54907e-06,0
-3.07059e-05,4.79004e-06,-5.73977e-06,-1.02661e-05,8.02682e-06,-1.75939e-05,1.77406e-05,-5.65832e-06,0
-3.12635e-05,6.01756e-06,-5.25388e-06,-1.32252e-05,7.5771e-06,-1.80907e-05,1.63214e-05,-6.90984e-06,0
-2.95766e-05,7.66611e-06,-3.8904e-06,-1.25632e-05,1.24648e-05,-1.63827e-05,1.29941e-05,-7.19926e-06,0
-2.89756e-05,6.99202e-06,-2.15037e-06,-5.87572e-06,1.74566e-05,-1.34262e-05,-1.39563e-06,-6.09373e-06,0
-3.00492e-05,4.26189e-06,-1.37587e-06,5.12531e-06,1.83043e-05,-1.1546e-05,-2.78528e-05,-4.44055e-06,0
-3.049e-05,3.24481e-06,-5.76736e-07,2.07588e-05,1.72428e-05,-1.11583e-05,-4.47733e-05,-4.15097e-06,0
-3.07312e-05,4.26357e-06,-8.48628e-07,4.33262e-05,1.56363e-05,-1.14291e-05,-3.72629e-05,-5.60098e-06,0
-3.03112e-05,4.31751e-06,-2.98155e-06,6.52816e-05,1.68921e-05,-1.26182e-05,-1.34609e-05,-7.93457e-06,0
-2.93918e-05,3.34307e-06,-5.71954e-06,7.4343e-05,2.14793e-05,-1.3086e-05,1.23407e-05,-8.8824e-06,0
-2.86448e-05,2.412e-06,-7.13062e-06,6.82304e-05,2.35213e-05,-1.29441e-05,3.16557e-05,-8.97694e-06,0
-2.91e-05,2.45539e-06,-7.05749e-06,5.28268e-05,2.12412e-05,-1.27009e-05,4.32907e-05,-9.46608e-06,0
-3.10298e-05,3.01917e-06,-7.40431e-06,3.38838e-05,1.93157e-05,-1.14279e-05,5.05072e-05,-9.12863e-06,0
-3.18506e-05,4.13316e-06,-8.10993e-06,1.23369e-05,1.92716e-05,-9.6387e-06,5.32589e-05,-6.49522e-06,0
-3.05109e-05,6.667e-06,-9.1458e-06,-3.00286e-06,1.97287e-05,-8.89924e-06,5.18492e-05,-3.1543e-06,0
-2.96455e-05,1.05652e-05,-1.03727e-05,-8.59242e-06,1.74713e-05,-8.07594e-06,4.74905e-05,-2.55672e-06,0
-3.1107e-05,1.38948e-05,-1.14059e-05,-1.3456e-05,1.3414e-05,-5.72129e-06,4.14736e-05,-3.8985e-06,0
-3.38622e-05,1.24378e-05,-1.20924e-05,-2.30973e-05,1.21661e-05,-2.9695e-06,3.58711e-05,-5.16395e-06,0
-3.52431e-05,9.1805e-06,-1.21964e-05,-3.495e-05,1.43202e-05,-4.71783e-07,3.16802e-05,-4.96875e-06,0
-3.4961e-05,7.39061e-06,-1.11375e-05,-4.44757e-05,1.54528e-05,-2.06429e-07,2.89618e-05,-3.74288e-06,0
-3.43416e-05,7.92023e-06,-9.82854e-06,-4.81652e-05,1.37348e-05,-2.68654e-06,2.50574e-05,-2.9617e-06,0
-3.43015e-05,9.22246e-06,-9.42928e-06,-4.41087e-05,1.2692e-05,-5.33269e-06,2.08957e-05,-2.97612e-06,0
-3.38671e-05,9.94889e-06,-9.90346e-06,-3.53804e-05,1.32672e-05,-5.15542e-06,1.8843e-05,-3.7969e-06,0
-3.20006e-05,1.06946e-05,-1.0122e-05,-2.8185e-05,1.44089e-05,-3.42318e-06,1.66394e-05,-5.13798e-06,0
-2.94407e-05,1.09345e-05,-9.61899e-06,-2.62502e-05,1.49175e-05,-2.12188e-06,1.02483e-05,-5.37245e-06,0
-2.73421e-05,9.96784e-06,-8.67059e-06,-2.7163e-05,1.53855e-05,-1.5387e-06,2.70143e-06,-3.74976e-06,0
-2.65359e-05,7.75924e-06,-7.88251e-06,-2.9829e-05,1.63262e-05,-2.05791e-06,-9.08312e-07,-1.64325e-06,0
-2.79796e-05,5.10883e-06,-7.46121e-06,-3.5107e-05,1.81538e-05,-4.23605e-06,1.21351e-06,5.64126e-07,0
-3.11198e-05,2.64475e-06,-6.36679e-06,-4.22957e-05,1.86369e-05,-6.74201e-06,6.1711e-06,2.25034e-06,0
-3.25322e-05,2.6952e-06,-4.77912e-06,-4.5799e-05,1.56816e-05,-8.07243e-06,9.48872e-06,2.82389e-06,0
-3.11479e-05,4.72032e-06,-3.66237e-06,-4.12632e-05,1.14391e-05,-7.85285e-06,1.17823e-05,2.97677e-06,0
-2.81111e-05,8.61321e-06,-2.94326e-06,-3.32207e-05,9.93831e-06,-6.61162e-06,1.36715e-05,3.7296e-06,0
-2.5525e-05,1.38273e-05,-3.19999e-06,-3.11312e-05,1.1498e-05,-6.48975e-06,1.39161e-05,5.50848e-06,0
-2.57934e-05,1.71531e-05,-4.82068e-06,-3.62027e-05,1.47682e-05,-8.52255e-06,1.27494e-05,7.65243e-06,0
-2.71533e-05,1.84912e-05,-6.16356e-06,-3.84651e-05,1.52526e-05,-1.19291e-05,1.0412e-05,9.30686e-06,0
-2.76189e-05,1.84803e-05,-5.98802e-06,-3.15027e-05,1.36273e-05,-1.39638e-05,7.95194e-06,9.74131e-06,0
-2.81157e-05,1.66439e-05,-6.04707e-06,-1.65057e-05,1.37488e-05,-1.37611e-05,6.73525e-06,8.82945e-06,0
-2.85952e-05,1.47971e-05,-7.77502e-06,3.05456e-06,1.46114e-05,-1.26507e-05,7.2088e-06,6.73268e-06,0
-2.94293e-05,1.40007e-05,-8.01557e-06,1.85093e-05,1.61215e-05,-1.17811e-05,7.48442e-06,5.23032e-06,0
-3.03456e-05,1.34993e-05,-6.33627e-06,2.67641e-05,1.61575e-05,-1.21026e-05,5.94426e-06,4.27246e-06,0
-2.98129e-05,1.35155e-05,-5.83748e-06,3.0677e-05,1.33177e-05,-1.45395e-05,6.36381e-06,3.53225e-06,0
-2.90788e-05,1.40472e-05,-7.1225e-06,3.0557e-05,8.64071e-06,-1.79993e-05,9.03295e-06,3.99498e-06,0
-2.98561e-05,1.26218e-05,-9.71569e-06,2.42108e-05,5.98708e-06,-1.99791e-05,1.09192e-05,4.76616e-06,0
-3.11418e-05,9.28901e-06,-1.11712e-05,1.24162e-05,7.57614e-06,-2.01023e-05,9.58107e-06,5.25554e-06,0
-3.07981e-05,7.23537e-06,-1.08501e-05,2.1821e-06,1.05472e-05,-1.8515e-05,5.88789e-06,4.4786e-06,0
-2.86048e-05,9.42304e-06,-9.7896e-06,-3.82597e-06,1.07475e-05,-1.6241e-05,2.53845e-06,3.76932e-06,0
-2.79737e-05,1.39415e-05,-7.94384e-06,-5.5806e-06,8.22751e-06,-1.56965e-05,1.68658e-06,4.08268e-06,0
-2.96933e-05,1.70892e-05,-6.91197e-06,-5.65652e-06,4.37405e-06,-1.69232e-05,5.20374e-06,4.66098e-06,0
-3.20741e-05,1.8707e-05,-6.85818e-06,-5.86149e-06,1.49387e-06,-1.85351e-05,1.20563e-05,3.76021e-06,0
-3.443e-05,1.99896e-05,-5.56331e-06,-6.59734e-06,1.19562e-06,-1.84927e-05,1.91554e-05,1.22137e-06,0
-3.58163e-05,2.12796e-05,-2.5345e-06,-7.16448e-06,2.20233e-06,-1.72117e-05,2.38482e-05,-4.05348e-07,0
-3.58593e-05,2.11435e-05,-1.40636e-06,-6.34561e-06,3.2471e-06,-1.58716e-05,2.47656e-05,-6.41296e-07,0
-3.43214e-05,2.11203e-05,-3.15698e-06,-2.30752e-06,4.55714e-06,-1.46385e-05,2.1746e-05,-5.86075e-07,0
-3.1153e-05,2.3154e-05,-4.68028e-06,4.55407e-06,7.34731e-06,-1.36683e-05,1.55173e-05,-1.26847e-06,0
-2.85683e-05,2.65438e-05,-4.28724e-06,1.04979e-05,1.08219e-05,-1.19003e-05,7.38552e-06,-2.92689e-06,0
-2.91971e-05,2.8357e-05,-3.82825e-06,1.30032e-05,1.31418e-05,-9.81207e-06,-6.30502e-07,-4.65252e-06,0
-3.15402e-05,2.83248e-05,-5.24528e-06,1.20582e-05,1.53056e-05,-8.6036e-06,-5.97798e-06,-5.47704e-06,0
-3.35842e-05,2.84693e-05,-6.73603e-06,8.47888e-06,1.83607e-05,-7.68581e-06,-7.76049e-06,-5.58886e-06,0
-3.46127e-05,3.15417e-05,-7.24411e-06,3.30694e-06,2.25795e-05,-6.45013e-06,-8.4862e-06,-5.39375e-06,0
-3.39437e-05,3.80099e-05,-7.88464e-06,1.61554e-06,2.71779e-05,-4.78723e-06,-6.97814e-06,-4.49722e-06,0
-3.19399e-05,4.22126e-05,-8.93793e-06,4.70121e-06,2.91499e-05,-2.69145e-06,-3.22656e-06,-3.21751e-06,0
-2.99067e-05,4.1139e-05,-1.01195e-05,9.2984e-06,2.87012e-05,-1.55735e-06,-1.18715e-06,-3.16084e-06,0
-2.87626e-05,3.83992e-05,-1.19169e-05,1.07463e-05,2.80098e-05,-2.78871e-06,-2.74026e-06,-2.16406e-06,0
-2.94462e-05,3.277e-05,-1.3712e-05,7.11885e-06,2.806e-05,-4.33319e-06,-6.64187e-06,8.26866e-09,0
-2.99708e-05,2.25878e-05,-1.52045e-05,-5.19366e-07,2.69207e-05,-6.61724e-06,-1.01047e-05,-1.69844e-07,0
-2.95507e-05,1.24491e-05,-1.72601e-05,-1.0265e-05,2.27495e-05,-9.69121e-06,-1.10057e-05,-1.1409e-06,0
-2.95817e-05,5.26654e-06,-1.84622e-05,-1.67171e-05,1.93756e-05,-1.01346e-05,-8.58165e-06,-6.65479e-07,0
-2.89798e-05,3.65934e-06,-1.79722e-05,-1.66258e-05,1.99061e-05,-9.85026e-06,-4.57872e-06,-5.95367e-07,0
-2.81553e-05,4.80218e-06,-1.62536e-05,-9.40273e-06,2.09591e-05,-9.50527e-06,-1.00436e-06,-1.4108e-06,0
-2.83257e-05,4.02206e-06,-1.54423e-05,3.25107e-07,2.16228e-05,-8.63668e-06,3.32665e-06,-1.02285e-06,0
-2.91203e-05,5.65463e-07,-1.61511e-05,4.5025e-06,2.14792e-05,-6.79809e-06,9.84225e-06,1.58712e-06,0
-2.9618e-05,-2.66763e-06,-1.52086e-05,2.50365e-06,2.03202e-05,-7.31356e-06,1.63141e-05,3.85059e-06,0
-2.98159e-05,-3.55602e-06,-1.2692e-05,1.7977e-06,1.94913e-05,-1.02771e-05,2.01607e-05,4.11471e-06,0
-2.86332e-05,-3.81181e-06,-1.02462e-05,1.21192e-05,1.85933e-05,-1.24749e-05,2.25779e-05,2.25668e-06,0
-2.64438e-05,-3.82609e-06,-8.29222e-06,3.11946e-05,1.66876e-05,-1.39541e-05,2.61891e-05,3.49114e-07,0
-2.55306e-05,-3.7556e-06,-7.03627e-06,4.72158e-05,1.53042e-05,-1.476e-05,2.95697e-05,1.303e-06,0
-2.64577e-05,-3.02762e-06,-7.13638e-06,5.26877e-05,1.59054e-05,-1.513e-05,3.06711e-05,3.96776e-06,0
-2.74618e-05,-1.5701e-06,-8.62846e-06,4.71508e-05,1.6143e-05,-1.55296e-05,2.97667e-05,6.45491e-06,0
-2.80375e-05,-2.75028e-07,-1.04577e-05,3.31958e-05,1.50701e-05,-1.62523e-05,2.89361e-05,7.70608e-06,0
-2.8673e-05,-1.14081e-06,-1.07992e-05,1.46919e-05,1.33443e-05,-1.5965e-05,2.89095e-05,7.65956e-06,0
-2.83296e-05,-3.58315e-06,-8.99557e-06,-4.8965e-06,1.24137e-05,-1.54175e-05,2.98666e-05,6.67824e-06,0
-2.77343e-05,-4.13105e-06,-6.61988e-06,-2.2944e-05,1.28419e-05,-1.43637e-05,3.17244e-05,6.07074e-06,0
-2.74243e-05,-2.0063e-06,-5.40733e-06,-3.68309e-05,1.54419e-05,-1.33277e-05,3.20757e-05,6.31519e-06,0
-2.7285e-05,8.36165e-07,-4.64736e-06,-4.70228e-05,1.83848e-05,-1.29304e-05,3.00155e-05,5.70686e-06,0
-2.70659e-05,4.1684e-06,-2.87366e-06,-5.66321e-05,1.88491e-05,-1.24498e-05,2.63397e-05,3.83694e-06,0
-2.57848e-05,8.58297e-06,-1.75897e-06,-6.57232e-05,1.75194e-05,-1.15946e-05,2.1384e-05,3.84433e-06,0
-2.50638e-05,1.17898e-05,-3.64305e-06,-6.44638e-05,1.64335e-05,-1.15453e-05,1.68654e-05,6.49805e-06,0
-2.63085e-05,1.20266e-05,-6.41856e-06,-4.92605e-05,1.58654e-05,-1.13187e-05,1.56712e-05,8.82068e-06,0
-2.81917e-05,1.07313e-05,-7.47276e-06,-3.08526e-05,1.58444e-05,-1.04983e-05,1.57246e-05,9.23697e-06,0
-2.82469e-05,1.04526e-05,-7.61471e-06,-2.08987e-05,1.36565e-05,-9.81227e-06,1.52583e-05,8.56324e-06,0
-2.72369e-05,1.04132e-05,-7.255e-06,-1.86362e-05,9.41515e-06,-1.01976e-05,1.58008e-05,5.76175e-06,0
-2.72141e-05,1.03741e-05,-6.84272e-06,-1.98759e-05,8.76331e-06,-1.15027e-05,1.74751e-05,1.1131e-05,0
-2.89228e-05,1.0223e-05,-7.83507e-06,-2.00641e-05,1.23863e-05,-1.22617e-05,1.77744e-05,2.87003e-05,0
-3.13031e-05,8.42049e-06,-1.02576e-05,-1.47852e-05,1.60412e-05,-1.32347e-05,1.65031e-05,4.14727e-05,0
-3.12768e-05,7.60479e-06,-1.05574e-05,-8.91574e-06,1.55094e-05,-1.45162e-05,1.56703e-05,4.36823e-05,0
-3.04029e-05,9.41885e-06,-8.60557e-06,-5.21314e-06,1.28108e-05,-1.51908e-05,1.47832e-05,3.52384e-05,0
-3.00242e-05,1.35054e-05,-6.7958e-06,-4.94835e-06,1.00247e-05,-1.49627e-05,1.71187e-05,1.68542e-05,0
-3.01435e-05,1.77711e-05,-4.80936e-06,-6.50872e-06,7.1018e-06,-1.46769e-05,2.62886e-05,-6.93389e-06,0
-3.04807e-05,2.24249e-05,-2.3412e-06,-8.97298e-06,4.1684e-06,-1.47668e-05,3.84793e-05,-3.07651e-05,0
-3.10362e-05,2.99229e-05,-1.31454e-06,-1.14276e-05,3.33012e-06,-1.4633e-05,4.60702e-05,-4.65882e-05,0
-3.08011e-05,4.12877e-05,-2.44861e-06,-1.20243e-05,4.40909e-06,-1.4014e-05,4.58851e-05,-5.0461e-05,0
-2.97377e-05,5.6977e-05,-4.35002e-06,-7.98742e-06,4.88272e-06,-1.35721e-05,3.87635e-05,-4.57782e-05,0
-2.95373e-05,7.27501e-05,-5.93467e-06,1.5024e-06,4.05512e-06,-1.28539e-05,2.74303e-05,-3.78687e-05,0
-2.96706e-05,8.219e-05,-6.1539e-06,1.11781e-05,2.8074e-06,-1.22866e-05,1.44363e-05,-2.96449e-05,0
-2.95218e-05,8.18726e-05,-5.1563e-06,1.46945e-05,2.07384e-06,-1.22814e-05,1.6779e-06,-2.14353e-05,0
-2.8635e-05,7.18783e-05,-4.41182e-06,9.51448e-06,1.4464e-06,-1.2687e-05,-1.0478e-05,-1.35583e-05,0
-2.75959e-05,5.10271e-05,-5.3627e-06,9.60985e-07,5.76476e-07,-1.34266e-05,-2.08069e-05,-8.24116e-06,0
-2.75315e-05,1.98164e-05,-6.85458e-06,-5.2162e-06,-9.653e-07,-1.40446e-05,-2.52875e-05,-6.31466e-06,0
-2.94566e-05,-1.57088e-05,-7.34771e-06,-7.71249e-06,-1.45318e-06,-1.37475e-05,-2.29966e-05,-6.00367e-06,0
-3.13139e-05,-4.6946e-05,-7.74618e-06,-1.10541e-05,-6.61994e-07,-1.28772e-05,-1.64047e-05,-3.67557e-06,0
-3.21144e-05,-6.46665e-05,-9.38861e-06,-1.56716e-05,4.18972e-08,-1.23208e-05,-9.3999e-06,4.78545e-07,0
-3.27048e-05,-6.30097e-05,-1.18137e-05,-1.85052e-05,-6.77861e-08,-1.22871e-05,-3.47551e-06,4.11737e-06,0
-3.28368e-05,-4.82817e-05,-1.3167e-05,-2.08181e-05,-1.42412e-06,-1.07623e-05,4.64766e-07,6.98577e-06,0
-3.20821e-05,-3.16614e-05,-1.2029e-05,-2.65336e-05,-3.33376e-06,-9.05647e-06,3.67436e-06,9.73872e-06,0
-3.06993e-05,-1.95261e-05,-1.07792e-05,-3.1593e-05,-4.12696e-06,-9.51407e-06,6.69035e-06,1.01871e-05,0
-3.04277e-05,-1.27192e-05,-1.09897e-05,-2.77318e-05,-2.87899e-06,-1.07065e-05,1.05933e-05,8.04122e-06,0
-3.15644e-05,-1.1081e-05,-1.24607e-05,-1.66402e-05,-3.93868e-07,-1.12022e-05,1.65033e-05,6.83697e-06,0
-3.28242e-05,-1.17965e-05,-1.38227e-05,-4.88162e-06,1.71152e-06,-1.13578e-05,2.07436e-05,6.41176e-06,0
-3.48602e-05,-1.10686e-05,-1.42957e-05,3.23493e-06,5.65591e-06,-1.31741e-05,2.08714e-05,6.2474e-06,0
-3.53748e-05,-7.61337e-06,-1.48423e-05,5.70475e-06,1.04546e-05,-1.40716e-05,1.72338e-05,5.39084e-06,0
-3.41149e-05,-8.76918e-07,-1.49418e-05,4.91775e-06,1.31019e-05,-1.21481e-05,1.33953e-05,4.13711e-06,0
-3.30982e-05,3.49952e-06,-1.45113e-05,3.09223e-06,1.39541e-05,-9.56312e-06,1.11486e-05,4.70735e-06,0
-3.24329e-05,4.25383e-06,-1.39149e-05,2.12556e-06,1.53102e-05,-8.76472e-06,1.10199e-05,6.92188e-06,0
-3.2755e-05,4.77441e-06,-1.4251e-05,3.04277e-06,1.64432e-05,-8.84665e-06,1.20943e-05,8.6553e-06,0
-3.2125e-05,7.61663e-06,-1.32734e-05,4.42768e-06,1.5349e-05,-8.51386e-06,1.22968e-05,8.86364e-06,0
-3.18949e-05,1.24535e-05,-9.20922e-06,7.25396e-06,1.42715e-05,-7.36108e-06,1.19289e-05,7.95776e-06,0
-3.3211e-05,1.64242e-05,-5.62073e-06,1.03175e-05,1.37383e-05,-5.44614e-06,1.13066e-05,6.20312e-06,0
-3.44153e-05,1.82086e-05,-4.99087e-06,1.09029e-05,1.31634e-05,-4.45564e-06,1.16266e-05,4.90784e-06,0
-3.35654e-05,1.73823e-05,-6.03143e-06,9.71228e-06,1.22141e-05,-4.7957e-06,1.1958e-05,5.51621e-06,0
-3.18113e-05,1.46773e-05,-6.44123e-06,9.5728e-06,1.13808e-05,-4.42765e-06,1.01507e-05,7.77979e-06,0
-3.06189e-05,1.12928e-05,-6.24882e-06,1.02236e-05,1.11718e-05,-2.67664e-06,7.1172e-06,8.89214e-06,0
-3.02034e-05,8.33263e-06,-7.34279e-06,1.09133e-05,1.18121e-05,-1.9871e-06,5.94782e-06,7.72793e-06,0
-3.10437e-05,6.69097e-06,-9.62868e-06,1.14787e-05,1.11941e-05,-3.05619e-06,7.40123e-06,6.32225e-06,0
-3.23538e-05,6.6077e-06,-1.11875e-05,1.0782e-05,9.45027e-06,-4.3742e-06,9.49708e-06,6.36064e-06,0
-3.30917e-05,7.99285e-06,-1.09699e-05,8.31447e-06,8.79448e-06,-3.95095e-06,1.0882e-05,6.14185e-06,0
-3.30773e-05,1.00507e-05,-9.76813e-06,5.30582e-06,1.03051e-05,-3.04864e-06,1.2096e-05,4.71869e-06,0
-3.32098e-05,1.15301e-05,-8.93258e-06,1.7669e-06,1.27019e-05,-3.80861e-06,1.26971e-05,4.29791e-06,0
-3.30275e-05,1.39215e-05,-8.86604e-06,-2.81531e-06,1.3708e-05,-5.88235e-06,1.02812e-05,5.25813e-06,0
-3.25617e-05,1.63216e-05,-8.85944e-06,-5.43562e-06,1.26791e-05,-7.90559e-06,7.48964e-06,6.62016e-06,0
-3.10706e-05,1.53242e-05,-8.36602e-06,-5.63252e-06,1.07052e-05,-9.08976e-06,8.40482e-06,6.41418e-06,0
-2.91361e-05,1.27625e-05,-7.61746e-06,-5.57496e-06,1.04055e-05,-8.44051e-06,1.00003e-05,5.70125e-06,0
-2.8361e-05,1.25949e-05,-7.20373e-06,-5.07027e-06,1.17461e-05,-6.41664e-06,1.0868e-05,5.40988e-06,0
-2.89178e-05,1.45271e-05,-7.77422e-06,-6.23007e-06,1.2194e-05,-4.40421e-06,1.3022e-05,4.7745e-06,0
-3.01869e-05,1.72037e-05,-8.24489e-06,-8.12149e-06,1.08131e-05,-2.1857e-06,1.49018e-05,3.08705e-06,0
-3.04878e-05,2.00101e-05,-8.70306e-06,-1.06485e-05,8.91929e-06,-1.78635e-06,1.64677e-05,1.52953e-06,0
-2.93245e-05,2.18598e-05,-9.72883e-06,-1.39812e-05,8.54037e-06,-3.76035e-06,1.70398e-05,2.20255e-06,0
-2.63914e-05,2.25604e-05,-8.18923e-06,-1.61033e-05,1.10701e-05,-5.01046e-06,1.66326e-05,3.06515e-06,0
-2.48268e-05,2.63402e-05,-6.21725e-06,-1.6091e-05,1.61423e-05,-6.09816e-06,1.66516e-05,4.56347e-06,0
-2.70146e-05,3.4095e-05,-7.52541e-06,-1.40095e-05,2.06499e-05,-6.76921e-06,1.64857e-05,4.78607e-06,0
-2.85367e-05,3.93547e-05,-9.12103e-06,-1.36531e-05,2.28699e-05,-5.11392e-06,1.61501e-05,4.54175e-06,0
-2.92545e-05,3.97785e-05,-1.01562e-05,-1.20272e-05,2.59945e-05,-2.37386e-06,1.43749e-05,4.4933e-06,0
-3.04053e-05,3.71057e-05,-1.0345e-05,-7.50483e-06,2.96407e-05,-7.31049e-07,1.22381e-05,3.65138e-06,0
-3.10641e-05,3.23338e-05,-9.15531e-06,-9.69045e-07,3.08348e-05,-8.84699e-07,1.14346e-05,2.36297e-06,0
-2.97573e-05,2.61982e-05,-7.50408e-06,4.33087e-06,2.8552e-05,-7.58692e-07,1.10555e-05,1.91027e-06,0
-2.72594e-05,2.1161e-05,-5.91221e-06,5.91208e-06,2.51502e-05,4.62767e-08,9.56102e-06,2.83923e-06,0
-2.54906e-05,1.75623e-05,-4.93981e-06,7.55989e-06,2.33526e-05,1.0686e-06,1.71094e-06,2.15894e-06,0
-2.45184e-05,1.2409e-05,-4.32671e-06,1.37782e-05,2.23822e-05,2.09551e-06,-1.34367e-05,1.0068e-06,0
-2.47954e-05,4.29414e-06,-4.83571e-06,2.5124e-05,1.93704e-05,2.51298e-06,-2.52181e-05,8.63586e-07,0
-2.62189e-05,-2.84224e-06,-7.28485e-06,3.67586e-05,1.46466e-05,1.74248e-06,-2.37418e-05,1.74464e-06,0
-2.8468e-05,-4.48121e-06,-9.84044e-06,4.35194e-05,1.10647e-05,-6.81114e-07,-1.1054e-05,1.47681e-06,0
-3.02707e-05,-8.20018e-07,-9.99092e-06,4.33808e-05,1.05142e-05,-3.28039e-06,5.12395e-06,6.17211e-07,0
-3.1048e-05,3.38968e-06,-8.86017e-06,3.9149e-05,1.1367e-05,-4.75617e-06,1.85668e-05,3.84843e-07,0
-3.04732e-05,4.95527e-06,-9.44546e-06,3.29509e-05,1.12338e-05,-6.36788e-06,2.57474e-05,7.48942e-07,0
-3.01023e-05,5.25387e-06,-1.19003e-05,2.32809e-05,1.0213e-05,-8.14836e-06,2.93475e-05,-8.1962e-07,0
-3.11387e-05,6.08151e-06,-1.32247e-05,5.03992e-06,9.27176e-06,-8.33445e-06,3.40035e-05,-3.68346e-06,0
-3.2347e-05,8.47648e-06,-1.35694e-05,-1.67766e-05,1.09879e-05,-7.72364e-06,3.97294e-05,-5.24086e-06,0
-3.16252e-05,1.18823e-05,-1.41088e-05,-3.20528e-05,1.51039e-05,-8.44351e-06,4.34906e-05,-4.4486e-06,0
-3.14013e-05,1.67732e-05,-1.2664e-05,-4.29483e-05,1.74818e-05,-9.22399e-06,4.46346e-05,-3.64623e-06,0
-3.24229e-05,2.18684e-05,-9.84498e-06,-5.49104e-05,1.61045e-05,-8.4954e-06,4.39138e-05,-5.51689e-06,0
-3.19663e-05,2.58329e-05,-6.7475e-06,-7.02779e-05,1.41677e-05,-8.99073e-06,4.13783e-05,-7.22803e-06,0
-3.15643e-05,2.47599e-05,-5.15932e-06,-8.38332e-05,1.21722e-05,-1.0215e-05,3.80142e-05,-6.7217e-06,0
-3.08042e-05,1.84151e-05,-6.29071e-06,-8.49012e-05,1.17748e-05,-9.46439e-06,3.24219e-05,-4.37111e-06,0
-2.88363e-05,1.43168e-05,-6.535e-06,-6.99051e-05,1.27694e-05,-8.63058e-06,1.94027e-05,-4.16226e-06,0
-2.74143e-05,1.47556e-05,-4.52329e-06,-4.32897e-05,1.38624e-05,-6.83158e-06,-3.17488e-06,-5.30747e-06,0
-2.66257e-05,1.8695e-05,-1.91626e-06,-1.61293e-05,1.50701e-05,-3.77491e-06,-2.37279e-05,-4.88312e-06,0
-2.51193e-05,2.28621e-05,1.00912e-07,-6.88946e-07,1.52499e-05,-3.49542e-06,-2.91969e-05,-3.58677e-06,0
-2.43155e-05,2.23491e-05,1.02661e-06,1.343e-06,1.52976e-05,-5.08529e-06,-1.92074e-05,-2.04709e-06,0
-2.61301e-05,1.70745e-05,-8.27614e-08,-1.06753e-06,1.6022e-05,-6.02031e-06,-2.56381e-06,9.5758e-07,0
-2.81901e-05,1.03578e-05,-4.57345e-06,-3.06489e-06,1.76141e-05,-7.40233e-06,1.43956e-05,4.83077e-06,0
-2.89326e-05,5.18412e-06,-1.05521e-05,-3.87208e-06,1.88064e-05,-9.92836e-06,3.02588e-05,6.85269e-06,0
-2.91567e-05,3.69737e-06,-1.40182e-05,-7.75466e-06,1.88464e-05,-1.15875e-05,4.20735e-05,5.16598e-06,0
-2.87105e-05,5.22866e-06,-1.52974e-05,-1.71622e-05,1.63631e-05,-1.25933e-05,4.84653e-05,1.17948e-06,0
-2.83811e-05,8.00909e-06,-1.69435e-05,-2.72536e-05,1.29184e-05,-1.42863e-05,4.98995e-05,-1.57261e-06,0
-2.83584e-05,1.02066e-05,-1.9183e-05,-3.14649e-05,1.1524e-05,-1.574e-05,4.728e-05,-1.60403e-06,0
-2.83694e-05,1.14571e-05,-2.17105e-05,-2.61559e-05,1.20679e-05,-1.60447e-05,4.13444e-05,-1.12012e-06,0
-2.88688e-05,1.25374e-05,-2.4023e-05,-1.6211e-05,1.20971e-05,-1.46829e-05,3.4947e-05,-2.39645e-06,0
-3.02535e-05,1.44704e-05,-2.4562e-05,-7.69776e-06,1.08958e-05,-1.27809e-05,3.01621e-05,-3.70256e-06,0
-3.11799e-05,1.6691e-05,-2.29936e-05,-2.40561e-06,9.15134e-06,-1.32495e-05,2.58962e-05,-3.65679e-06,0
-3.10686e-05,1.73532e-05,-2.10842e-05,1.26893e-06,7.70526e-06,-1.60399e-05,2.17551e-05,-3.02308e-06,0
-3.21255e-05,1.76166e-05,-1.95907e-05,1.92655e-06,7.6116e-06,-1.73311e-05,1.97559e-05,-2.97559e-06,0
-3.34349e-05,2.25196e-05,-1.75482e-05,1.69323e-06,8.82326e-06,-1.62402e-05,2.07252e-05,-3.71656e-06,0
-3.20655e-05,3.33277e-05,-1.45629e-05,2.11046e-06,1.05358e-05,-1.53488e-05,2.46102e-05,-4.73452e-06,0
-2.88778e-05,4.06142e-05,-1.20086e-05,1.77919e-06,1.11928e-05,-1.58362e-05,2.79267e-05,-4.46321e-06,0
-2.67072e-05,3.8628e-05,-1.11681e-05,2.17756e-06,1.08291e-05,-1.67915e-05,2.62697e-05,-2.07401e-06,0
-2.60689e-05,3.17828e-05,-1.08343e-05,4.58967e-06,1.24505e-05,-1.76989e-05,1.93624e-05,-8.65591e-07,0
-2.6275e-05,2.49653e-05,-8.59057e-06,6.13527e-06,1.59782e-05,-1.77199e-05,1.0903e-05,-8.20693e-07,0
-2.64117e-05,1.69979e-05,-6.56141e-06,6.38053e-06,1.51602e-05,-1.60431e-05,5.4602e-06,9.47739e-07,0
-2.63084e-05,8.25742e-06,-7.45368e-06,7.59662e-06,1.03424e-05,-1.41179e-05,3.77595e-06,2.41507e-06,0
-2.65099e-05,1.25179e-06,-9.66467e-06,7.7828e-06,7.77295e-06,-1.20744e-05,2.69794e-06,3.43438e-06,0
-2.84644e-05,-5.45387e-06,-1.10767e-05,6.57486e-06,7.41825e-06,-1.00249e-05,7.95139e-08,4.66669e-06,0
-3.11297e-05,-1.07735e-05,-1.05554e-05,6.20325e-06,8.42169e-06,-9.34978e-06,-2.38636e-06,6.29642e-06,0
-3.21209e-05,-1.1873e-05,-9.24114e-06,8.15904e-06,1.10621e-05,-9.99571e-06,-5.51719e-06,7.27958e-06,0
-3.24515e-05,-6.63308e-06,-7.58778e-06,1.00955e-05,1.20505e-05,-1.06211e-05,-6.39656e-06,4.87773e-06,0
-3.23604e-05,1.57233e-06,-5.84776e-06,1.08912e-05,1.07007e-05,-9.4968e-06,-4.06024e-06,1.79109e-06,0
-3.25075e-05,8.17832e-06,-6.23743e-06,1.04292e-05,9.84162e-06,-7.68083e-06,-4.4873e-07,9.98591e-07,0
-3.27513e-05,1.25541e-05,-7.41423e-06,8.27427e-06,1.02064e-05,-6.65565e-06,2.76965e-06,2.30898e-06,0
-3.26373e-05,1.49663e-05,-7.94922e-06,5.88868e-06,1.11069e-05,-7.41987e-06,4.10099e-06,4.26719e-06,0
-3.26382e-05,1.58316e-05,-8.26098e-06,4.68236e-06,1.12731e-05,-8.58833e-06,3.99565e-06,5.37845e-06,0
-3.29697e-05,1.54195e-05,-7.13401e-06,4.92588e-06,1.02805e-05,-8.71493e-06,3.32553e-06,5.38384e-06,0
-3.35058e-05,1.60086e-05,-4.76121e-06,4.08421e-06,9.86893e-06,-8.58942e-06,2.66538e-06,4.84907e-06,0
-3.48294e-05,1.72457e-05,-2.81041e-06,1.54209e-06,1.12672e-05,-8.40016e-06,1.03474e-06,3.91594e-06,0
-3.6864e-05,1.82826e-05,-2.55559e-06,9.08097e-07,1.34259e-05,-8.38157e-06,-9.93139e-08,2.96222e-06,0
-3.76918e-05,1.981e-05,-3.25716e-06,4.10336e-06,1.50295e-05,-8.51563e-06,1.22246e-06,3.19938e-06,0
-3.53849e-05,2.17503e-05,-3.49186e-06,1.01694e-05,1.69636e-05,-8.70044e-06,5.49433e-06,5.58315e-06,0
-3.10924e-05,2.28648e-05,-3.26357e-06,1.65075e-05,1.88891e-05,-9.02433e-06,9.81444e-06,8.65761e-06,0
-2.86947e-05,2.25911e-05,-2.76283e-06,2.00354e-05,1.90502e-05,-9.44034e-06,1.27465e-05,9.46274e-06,0
-2.84031e-05,2.16296e-05,-1.22112e-06,1.87355e-05,1.7588e-05,-8.79371e-06,1.42425e-05,7.89584e-06,0
-2.87293e-05,1.90289e-05,1.64214e-06,1.31318e-05,1.71475e-05,-7.60198e-06,1.43132e-05,6.47525e-06,0
-2.87515e-05,1.47666e-05,3.38231e-06,6.46855e-06,1.92304e-05,-6.96479e-06,1.35922e-05,5.85437e-06,0
-2.83167e-05,1.16608e-05,1.90253e-06,-6.8276e-08,2.19161e-05,-6.20069e-06,1.31131e-05,4.56587e-06,0
-2.83867e-05,1.08999e-05,3.52258e-07,-8.51713e-06,2.20686e-05,-6.79623e-06,1.33002e-05,3.56687e-06,0
-2.9751e-05,9.52769e-06,1.82702e-06,-1.97877e-05,2.05623e-05,-9.09503e-06,1.37441e-05,3.85061e-06,0
-3.20626e-05,5.28439e-06,3.65329e-06,-2.99686e-05,1.89215e-05,-9.05384e-06,1.25955e-05,4.61414e-06,0
-3.48451e-05,5.34498e-07,3.31836e-06,-3.61078e-05,1.68985e-05,-8.4876e-06,8.42359e-06,5.17827e-06,0
-3.46178e-05,-1.26139e-07,8.45118e-07,-3.78995e-05,1.76086e-05,-9.28289e-06,4.82689e-06,2.85551e-06,0
-3.10568e-05,-3.60902e-07,-9.23229e-08,-3.5092e-05,1.79493e-05,-1.04693e-05,3.65398e-06,-1.15685e-06,0
-2.81771e-05,-3.32607e-06,2.20268e-06,-2.72963e-05,1.83609e-05,-1.09903e-05,2.64749e-06,-1.82178e-06,0
-2.725e-05,-5.60117e-06,3.73871e-06,-1.54816e-05,2.24426e-05,-1.04752e-05,3.16862e-06,-7.44609e-07,0
-2.79998e-05,-6.78902e-06,2.94231e-06,-2.10272e-06,2.80367e-05,-9.64739e-06,4.91839e-06,-4.84588e-07,0
-2.88687e-05,-4.40284e-06,9.16188e-07,9.63666e-06,3.25756e-05,-8.79378e-06,5.37254e-06,-7.28089e-07,0
-2.86252e-05,8.96117e-07,-1.01638e-06,1.46824e-05,3.07137e-05,-9.08753e-06,6.40405e-06,-8.57989e-07,0
-2.91933e-05,5.09475e-06,-3.67304e-06,1.54164e-05,2.46612e-05,-9.12518e-06,8.17683e-06,-1.39862e-06,0
-3.06226e-05,7.25737e-06,-6.50334e-06,1.56391e-05,1.77466e-05,-8.78754e-06,1.02254e-05,-2.64136e-06,0
-3.06671e-05,8.92235e-06,-8.00677e-06,1.78474e-05,1.25491e-05,-9.2354e-06,1.05032e-05,-3.70248e-06,0
-3.02336e-05,1.1095e-05,-7.0933e-06,2.08726e-05,1.12777e-05,-1.13197e-05,8.22782e-06,-3.57671e-06,0
-2.96501e-05,1.26863e-05,-5.30153e-06,1.91946e-05,1.27601e-05,-1.40571e-05,6.24754e-06,-2.35953e-06,0
-2.87204e-05,1.27178e-05,-4.73935e-06,1.21075e-05,1.52975e-05,-1.65206e-05,5.58061e-06,-2.36956e-06,0
-2.75769e-05,1.13836e-05,-5.1222e-06,3.73679e-06,1.57634e-05,-1.79774e-05,4.56747e-06,-2.59271e-06,0
-2.65127e-05,1.19512e-05,-5.82049e-06,-4.43608e-06,1.31312e-05,-1.82287e-05,3.30002e-06,-1.21447e-06,0
-2.55918e-05,1.50972e-05,-5.03746e-06,-1.56891e-05,9.86257e-06,-1.69736e-05,3.14532e-06,9.5626e-07,0
-2.4981e-05,1.73831e-05,-3.08632e-06,-3.05173e-05,8.55258e-06,-1.37494e-05,4.04136e-06,2.19102e-06,0
-2.47901e-05,1.71542e-05,-1.13044e-06,-4.38664e-05,6.55358e-06,-1.11445e-05,5.3204e-06,1.8065e-06,0
-2.47703e-05,1.55545e-05,-1.98259e-07,-4.6961e-05,2.747e-06,-1.03521e-05,6.47236e-06,4.23866e-07,0
-2.53595e-05,1.3668e-05,1.19619e-07,-3.96786e-05,4.09143e-07,-1.00045e-05,7.91457e-06,-1.77582e-06,0
-2.72194e-05,1.26342e-05,-9.34276e-07,-3.15754e-05,1.77794e-06,-1.05358e-05,1.00254e-05,-3.6314e-06,0
-2.9618e-05,1.10204e-05,-3.78883e-06,-2.81775e-05,5.56723e-06,-1.09471e-05,1.32798e-05,-3.51949e-06,0
-3.04318e-05,8.74515e-06,-6.96437e-06,-2.36473e-05,1.00015e-05,-8.77907e-06,1.77097e-05,-2.01731e-06,0
-3.01965e-05,8.44361e-06,-9.37439e-06,-1.51983e-05,1.3025e-05,-5.87311e-06,2.56129e-05,3.59059e-07,0
-3.03367e-05,8.89923e-06,-1.08146e-05,-7.81593e-06,1.31359e-05,-3.78462e-06,3.50352e-05,3.07982e-06,0
-2.98243e-05,8.00607e-06,-1.09901e-05,-3.9115e-06,1.27607e-05,-4.50643e-06,4.0201e-05,5.06235e-06,0
-2.87934e-05,7.78806e-06,-1.02976e-05,-3.73244e-07,1.496e-05,-8.43602e-06,3.95573e-05,6.9608e-06,0
-2.74471e-05,6.39552e-06,-1.04561e-05,1.9185e-06,1.65892e-05,-1.11115e-05,3.59917e-05,7.02528e-06,0
-2.74189e-05,3.37729e-06,-1.1161e-05,4.67787e-07,1.45596e-05,-1.11427e-05,2.98074e-05,3.83241e-06,0
-2.93368e-05,6.3338e-07,-1.15114e-05,-7.82964e-08,9.74368e-06,-1.06731e-05,2.11421e-05,1.22121e-06,0
-3.04888e-05,-1.62185e-06,-1.25292e-05,2.01754e-07,6.32798e-06,-9.85267e-06,1.31297e-05,9.11754e-07,0
-3.18633e-05,-1.12102e-06,-1.37159e-05,2.25035e-07,6.68641e-06,-8.59443e-06,5.60888e-06,1.72129e-06,0
-3.42172e-05,2.39992e-06,-1.3707e-05,-7.74407e-07,9.35482e-06,-9.76765e-06,1.22023e-06,2.38976e-06,0
-3.57903e-05,7.7617e-06,-1.39861e-05,-4.83302e-06,1.35159e-05,-1.20825e-05,-1.70819e-06,1.8981e-06,0
-3.59755e-05,1.10028e-05,-1.56655e-05,-8.72089e-06,1.68572e-05,-1.28179e-05,-3.30444e-06,1.17383e-06,0
-3.51009e-05,1.10402e-05,-1.797e-05,-9.28209e-06,1.74655e-05,-1.27018e-05,-1.50864e-06,1.10625e-06,0
-3.33228e-05,1.01635e-05,-1.82189e-05,-3.93947e-06,1.6702e-05,-1.11463e-05,1.73985e-06,4.05217e-07,0
-3.22203e-05,1.19015e-05,-1.59422e-05,6.76401e-06,1.76401e-05,-9.42708e-06,5.72291e-06,-6.23925e-07,0
-3.22201e-05,1.44557e-05,-1.33751e-05,1.74376e-05,1.87711e-05,-7.79056e-06,9.38155e-06,-6.56367e-07,0
-3.16757e-05,1.42762e-05,-1.18709e-05,2.59108e-05,1.82661e-05,-6.09977e-06,1.15602e-05,-1.0397e-07,0
-3.03546e-05,1.15795e-05,-1.17825e-05,3.13522e-05,1.67137e-05,-4.80556e-06,1.20121e-05,7.751e-07,0
-2.98845e-05,9.69311e-06,-1.21945e-05,2.97878e-05,1.54316e-05,-4.89044e-06,1.28848e-05,1.27483e-06,0
-3.05374e-05,1.11224e-05,-1.20817e-05,1.85496e-05,1.55764e-05,-6.51129e-06,1.44048e-05,7.34595e-07,0
-3.07194e-05,1.41167e-05,-1.13187e-05,1.30856e-06,1.81426e-05,-7.80851e-06,1.55451e-05,-1.98858e-06,0
-2.92049e-05,1.63268e-05,-1.07102e-05,-1.58198e-05,2.08168e-05,-7.41441e-06,1.53745e-05,-5.73887e-06,0
-2.73424e-05,1.887e-05,-1.01429e-05,-2.68087e-05,1.99077e-05,-5.87981e-06,1.49889e-05,-8.48226e-06,0
-2.67181e-05,2.65918e-05,-9.53543e-06,-2.70726e-05,1.61186e-05,-5.78534e-06,1.42558e-05,-9.51716e-06,0
-2.57094e-05,3.88506e-05,-9.29218e-06,-1.74992e-05,1.27246e-05,-6.89632e-06,1.2386e-05,-8.79736e-06,0
-2.50152e-05,5.07788e-05,-8.79157e-06,-5.23371e-06,1.0544e-05,-7.4418e-06,7.7526e-06,-7.28219e-06,0
-2.56003e-05,5.82737e-05,-9.00084e-06,4.45756e-06,6.79322e-06,-6.54072e-06,-7.9302e-06,-4.52449e-06,0
-2.74067e-05,5.81995e-05,-1.11949e-05,1.19526e-05,2.67084e-06,-4.62144e-06,-3.78392e-05,-1.53303e-06,0
-2.93068e-05,4.71725e-05,-1.25744e-05,1.78227e-05,1.49804e-06,-2.9715e-06,-6.13471e-05,-5.10021e-07,0
-2.91359e-05,2.95682e-05,-1.11147e-05,2.31339e-05,2.11972e-06,-1.71895e-06,-6.03579e-05,-1.84084e-06,0
-2.81339e-05,1.07409e-05,-8.14467e-06,2.61494e-05,3.45969e-06,-1.15576e-07,-3.88984e-05,-4.63452e-06,0
-2.75576e-05,-4.73924e-06,-6.59547e-06,2.1739e-05,3.88163e-06,2.28807e-07,-1.05837e-05,-5.7236e-06,0
-2.81489e-05,-1.37328e-05,-6.96288e-06,9.0477e-06,2.91007e-06,-1.15577e-06,1.45407e-05,-5.27553e-06,0
