ch1,ch2,ch3,ch4,ch5,ch6,ch7,ch8,class
-5.23011e-05,1.75414e-05,-1.58615e-05,1.19318e-05,3.64852e-05,-1.93295e-05,1.49464e-05,4.15626e-06,0
-7.7619e-05,-3.56929e-06,-1.43723e-05,2.3062e-05,5.32486e-05,3.33207e-05,1.35467e-05,1.92803e-06,0
-8.93177e-05,-1.48568e-05,-1.34745e-05,4.91929e-05,5.72312e-05,3.82885e-05,9.60235e-06,1.15207e-06,0
-7.46872e-05,-1.36761e-05,-1.21706e-05,8.85885e-05,4.47943e-05,2.10833e-05,6.38869e-06,2.35361e-06,0
-4.34779e-05,-7.50521e-06,-7.67127e-06,0.000110653,1.85052e-05,1.33189e-05,5.88007e-06,2.99491e-06,0
-1.76733e-05,-5.15828e-06,-3.72212e-07,9.6247e-05,-1.55394e-05,1.07559e-05,6.60096e-06,2.4774e-06,0
-8.88758e-06,-4.70281e-06,4.7852e-06,5.05894e-05,-4.76681e-05,1.38576e-08,6.22254e-06,1.94056e-06,0
-1.14278e-05,1.2017e-06,4.42765e-06,1.09083e-06,-6.78176e-05,-1.27478e-05,6.34506e-06,6.18621e-08,0
-1.6002e-05,1.12914e-05,8.18993e-07,-3.32351e-05,-7.2756e-05,-1.50477e-05,8.51147e-06,-3.05248e-06,0
-2.18871e-05,1.84463e-05,-2.97462e-06,-5.10698e-05,-6.46993e-05,-8.1103e-06,1.10243e-05,-4.51545e-06,0
-2.86044e-05,1.9417e-05,-5.21807e-06,-5.88622e-05,-4.599e-05,-1.04247e-06,1.23026e-05,-2.56267e-06,0
-3.34898e-05,1.70819e-05,-7.1613e-06,-5.29473e-05,-2.0455e-05,3.39743e-06,1.19165e-05,1.23548e-06,0
-3.85062e-05,1.67225e-05,-7.98526e-06,-2.82562e-05,8.81114e-06,6.64968e-06,1.10477e-05,2.27817e-06,0
-4.64702e-05,2.01388e-05,-7.3094e-06,1.2348e-07,3.20976e-05,7.76865e-06,1.04735e-05,-3.43607e-07,0
-5.42789e-05,2.34265e-05,-8.7736e-06,1.24919e-05,3.90771e-05,4.40287e-06,1.02024e-05,-2.42826e-06,0
-5.63296e-05,2.43874e-05,-1.23113e-05,-3.17779e-06,3.293e-05,-2.71792e-06,1.14985e-05,-2.31067e-06,0
-4.4801e-05,2.60391e-05,-1.63983e-05,-4.56527e-05,2.36838e-05,-1.0801e-05,1.39243e-05,-7.69707e-07,0
-2.09616e-05,2.85707e-05,-1.72531e-05,-7.8057e-05,2.45319e-05,-1.43677e-05,1.41996e-05,3.57631e-08,0
6.82072e-06,3.01804e-05,-1.47654e-05,-7.38203e-05,3.88457e-05,-1.31311e-05,1.28921e-05,1.72819e-07,0
3.65923e-05,3.1452e-05,-1.28811e-05,-3.62427e-05,5.1266e-05,-8.64503e-06,1.12586e-05,1.94604e-06,0
6.22964e-05,3.44628e-05,-1.0762e-05,4.5471e-05,5.64241e-05,4.72122e-06,9.12604e-06,3.99119e-06,0
7.5401e-05,3.97513e-05,-8.03227e-06,0.000147498,5.43591e-05,2.29522e-05,9.16185e-06,4.17624e-06,0
6.62066e-05,4.26705e-05,-6.51902e-06,0.000197465,4.33517e-05,2.54115e-05,9.55313e-06,3.14597e-06,0
3.34988e-05,4.20864e-05,-6.5301e-06,0.000174077,3.14698e-05,6.49487e-06,9.33579e-06,3.74141e-06,0
-9.86038e-06,4.03816e-05,-6.69622e-06,0.00012257,2.40632e-05,-1.94015e-05,9.89148e-06,5.97047e-06,0
-4.5607e-05,3.59767e-05,-6.39885e-06,7.77828e-05,2.00789e-05,-3.80159e-05,1.19745e-05,8.99987e-06,0
-6.32067e-05,3.00072e-05,-5.10039e-06,4.44178e-05,1.5388e-05,-4.54744e-05,1.45487e-05,1.19072e-05,0
-6.51612e-05,2.33318e-05,-3.99387e-06,2.99387e-05,1.02698e-05,-4.48266e-05,1.54276e-05,1.26579e-05,0
-6.17807e-05,1.66039e-05,-3.59472e-06,2.90211e-05,8.87792e-06,-4.14081e-05,1.53041e-05,9.64806e-06,0
-5.93382e-05,1.04491e-05,-4.93384e-06,1.24131e-05,1.13983e-05,-3.43548e-05,1.55086e-05,5.82006e-06,0
-5.42141e-05,4.08452e-06,-8.33618e-06,-2.20116e-05,9.32089e-06,-2.4117e-05,1.58955e-05,4.89266e-06,0
-4.52568e-05,-4.8172e-07,-1.16937e-05,-4.40152e-05,-1.71846e-06,-6.78285e-06,1.59403e-05,5.5036e-06,0
-3.83055e-05,-4.99527e-07,-1.33486e-05,-4.03293e-05,-1.27128e-05,2.32415e-05,1.61604e-05,5.06345e-06,0
-3.85637e-05,3.3806e-06,-1.33072e-05,-3.34249e-05,-1.19656e-05,4.02915e-05,1.57539e-05,3.30054e-06,0
-4.25337e-05,6.96834e-06,-1.21542e-05,-3.86557e-05,6.29768e-06,2.43147e-05,1.50188e-05,1.13698e-06,0
-4.3839e-05,9.74947e-06,-1.0411e-05,-5.32325e-05,3.31216e-05,4.40097e-07,1.49726e-05,-4.57028e-07,0
-4.29224e-05,1.02366e-05,-9.62316e-06,-7.1712e-05,4.67718e-05,-8.48261e-06,1.62241e-05,-7.81288e-07,0
-4.29931e-05,2.83321e-06,-8.43261e-06,-9.57691e-05,4.04412e-05,-9.27925e-06,1.69967e-05,-9.56801e-07,0
-4.12027e-05,-1.03334e-05,-6.73866e-06,-0.000119578,2.86172e-05,-1.11608e-05,1.68533e-05,-1.13191e-06,0
-3.49483e-05,-1.88529e-05,-7.06129e-06,-0.00012447,2.11193e-05,-1.55285e-05,1.76246e-05,-4.30908e-07,0
-2.95144e-05,-1.91098e-05,-7.55525e-06,-0.000112055,1.84982e-05,-1.86187e-05,1.86078e-05,8.27257e-07,0
-3.56375e-05,-1.5285e-05,-6.06178e-06,-0.000109723,1.78404e-05,-1.6864e-05,1.93933e-05,9.99694e-07,0
-6.49456e-05,-1.35556e-05,-7.9105e-06,-0.000117384,1.6248e-05,-1.60908e-05,1.85778e-05,-7.87653e-07,0
-0.000100418,-1.31092e-05,-1.27633e-05,-0.0001041,1.30735e-05,-2.24225e-05,1.649e-05,-1.84733e-06,0
-0.000114387,-7.73221e-06,-1.62804e-05,-5.88139e-05,1.05459e-05,-2.61516e-05,1.45393e-05,-1.81164e-06,0
-0.000105663,1.07088e-06,-1.64862e-05,-4.49308e-06,9.19381e-06,-2.12705e-05,1.18436e-05,-2.60557e-06,0
-8.16317e-05,8.54521e-06,-1.19099e-05,2.88072e-05,7.75431e-06,-1.42815e-05,9.67735e-06,-3.17222e-06,0
-4.89502e-05,1.44586e-05,-7.60129e-06,2.70983e-05,7.42305e-06,-9.29478e-06,8.61461e-06,-4.27107e-06,0
-1.60306e-06,2.02886e-05,-5.38314e-06,3.79838e-06,9.74961e-06,-5.0059e-06,9.10796e-06,-4.39622e-06,0
5.5553e-05,2.2909e-05,-4.50683e-06,-2.29883e-05,1.43468e-05,-5.16424e-06,1.02878e-05,-2.24396e-06,0
9.50156e-05,1.9555e-05,-5.63853e-06,-4.88906e-05,1.78041e-05,-1.74452e-05,1.09312e-05,-5.50186e-07,0
9.50259e-05,1.71601e-05,-8.99432e-06,-5.6807e-05,1.53327e-05,-3.57072e-05,1.20306e-05,1.15247e-06,0
6.7384e-05,1.90912e-05,-1.20534e-05,-3.57559e-05,9.27797e-06,-3.40807e-05,1.31117e-05,2.12122e-06,0
3.8919e-05,2.20576e-05,-1.19902e-05,3.52171e-06,6.80306e-06,-6.44518e-06,1.33724e-05,1.77132e-06,0
1.92441e-05,2.14469e-05,-1.10198e-05,3.79748e-05,9.24627e-06,1.81903e-05,1.33759e-05,1.78802e-06,0
5.1585e-06,1.81279e-05,-1.1172e-05,5.12504e-05,1.35516e-05,1.91235e-05,1.39184e-05,3.06807e-06,0
-1.12437e-05,1.85353e-05,-1.14651e-05,4.66029e-05,1.4746e-05,4.02921e-06,1.41548e-05,4.00183e-06,0
-3.03526e-05,2.28286e-05,-1.1481e-05,4.22905e-05,1.06845e-05,-8.51714e-06,1.36599e-05,4.16996e-06,0
-4.48114e-05,2.52842e-05,-1.27923e-05,4.52461e-05,5.01305e-06,-1.29224e-05,1.24327e-05,4.05986e-06,0
-4.11815e-05,2.39445e-05,-1.48355e-05,3.35266e-05,5.05669e-06,-1.4252e-05,1.22454e-05,3.93783e-06,0
-1.83591e-05,2.35206e-05,-1.54873e-05,-8.45047e-06,1.65179e-05,-1.71508e-05,1.3318e-05,4.49279e-06,0
1.00455e-05,2.18692e-05,-1.38575e-05,-6.4628e-05,3.81345e-05,-1.93475e-05,1.45054e-05,4.47746e-06,0
2.9062e-05,1.77521e-05,-1.0279e-05,-0.000109472,5.62443e-05,-1.93877e-05,1.60336e-05,4.35048e-06,0
3.37629e-05,1.72394e-05,-5.54876e-06,-0.000138342,5.89563e-05,-1.77047e-05,1.64345e-05,4.60432e-06,0
2.92316e-05,2.38492e-05,-3.74754e-06,-0.000155807,4.98522e-05,-1.27204e-05,1.3993e-05,3.96574e-06,0
2.2817e-05,2.97032e-05,-5.07066e-06,-0.000132144,3.90229e-05,-7.35821e-06,1.1173e-05,3.57566e-06,0
3.5537e-06,2.82821e-05,-3.40094e-06,-4.02193e-05,2.90932e-05,-1.9317e-05,1.01049e-05,5.9175e-06,0
-3.59379e-05,2.24225e-05,-5.0604e-07,8.51059e-05,1.05878e-05,-4.43431e-05,1.07019e-05,9.05961e-06,0
-7.12822e-05,1.77658e-05,-1.97808e-06,0.000158363,-1.83518e-05,-4.70595e-05,1.15223e-05,9.07641e-06,0
-8.53452e-05,2.02372e-05,-5.25179e-06,0.000130647,-4.67259e-05,-2.32798e-05,1.02387e-05,5.99394e-06,0
-8.64686e-05,2.50015e-05,-6.68723e-06,6.37758e-05,-6.15649e-05,4.00154e-06,1.07199e-05,3.88859e-06,0
-8.90509e-05,2.38232e-05,-4.04188e-06,1.71282e-05,-6.63355e-05,2.09793e-05,1.24704e-05,2.98238e-06,0
-9.96715e-05,1.34356e-05,1.85831e-06,6.96528e-06,-6.34724e-05,2.64626e-05,1.35458e-05,3.04716e-06,0
-0.000117401,-2.66159e-06,8.0972e-06,3.92524e-05,-4.40448e-05,2.4657e-05,1.29277e-05,3.27225e-06,0
-0.000130711,-1.44078e-05,1.10982e-05,6.23765e-05,-9.441e-06,1.67237e-05,1.05157e-05,2.4498e-06,0
-0.000127395,-2.14281e-05,9.60373e-06,4.741e-05,2.37605e-05,-2.83912e-06,9.99624e-06,7.73303e-07,0
-0.000112475,-2.86304e-05,6.91569e-06,2.48448e-05,4.02695e-05,-3.39738e-05,1.05843e-05,-1.56213e-06,0
-9.60476e-05,-3.43331e-05,2.48059e-06,1.72079e-05,5.09291e-05,-6.34569e-05,1.14502e-05,-2.47557e-06,0
-7.85392e-05,-3.34699e-05,-3.82852e-06,1.84969e-05,6.19398e-05,-7.11155e-05,1.0733e-05,-2.505e-06,0
-6.13761e-05,-2.56937e-05,-1.09849e-05,1.74098e-05,6.28935e-05,-5.85679e-05,8.6478e-06,-3.04175e-06,0
-4.8858e-05,-1.48627e-05,-1.82354e-05,1.40724e-05,4.98096e-05,-4.43201e-05,6.88065e-06,-3.30294e-06,0
-4.06462e-05,-4.87676e-06,-2.35567e-05,9.61436e-06,4.0045e-05,-3.298e-05,6.89853e-06,-3.52929e-06,0
-3.3662e-05,1.05089e-06,-2.36745e-05,1.92587e-06,4.33202e-05,-1.90594e-05,6.01479e-06,-4.4974e-06,0
-2.95526e-05,2.60913e-06,-2.01209e-05,-1.13659e-05,4.69583e-05,-4.68328e-06,-6.59327e-07,-3.79554e-06,0
-3.01754e-05,2.0569e-06,-1.66566e-05,-2.69419e-05,3.80666e-05,2.13434e-06,-1.08483e-05,-1.04665e-06,0
-3.50086e-05,2.81178e-06,-1.29787e-05,-3.37666e-05,1.98941e-05,3.65629e-06,-1.68407e-05,1.83773e-06,0
-4.24811e-05,6.56461e-06,-7.55081e-06,-2.07639e-05,5.34785e-06,8.30814e-06,-1.48075e-05,3.35314e-06,0
-4.57216e-05,1.42287e-05,-1.40434e-06,8.03935e-06,-2.49439e-06,1.88533e-05,-8.99602e-06,3.51074e-06,0
-3.40026e-05,2.38693e-05,4.99811e-06,3.91129e-05,-6.93642e-06,3.08771e-05,-3.7305e-06,3.22555e-06,0
-9.2974e-06,2.6144e-05,1.45234e-05,6.11323e-05,-1.38459e-05,4.00103e-05,8.43564e-07,2.65367e-06,0
1.69603e-05,1.05669e-05,2.92511e-05,6.93264e-05,-2.18208e-05,4.35782e-05,8.05418e-06,1.39504e-06,0
3.90441e-05,-1.038e-05,4.79967e-05,6.63728e-05,-2.52042e-05,4.27877e-05,1.68717e-05,-3.57612e-07,0
4.34372e-05,-1.30885e-05,6.40356e-05,5.39094e-05,-2.00738e-05,3.73839e-05,2.35053e-05,-1.60854e-06,0
2.04358e-05,8.13238e-06,6.78985e-05,2.80064e-05,-1.15847e-05,2.21805e-05,2.78118e-05,-2.46507e-06,0
-7.35695e-06,4.16176e-05,5.3551e-05,-5.56884e-06,-4.32637e-06,-1.06008e-05,3.22081e-05,-3.15564e-06,0
-1.20919e-05,6.65775e-05,2.34443e-05,-3.41594e-05,2.16993e-06,-5.49883e-05,3.64203e-05,-2.9239e-06,0
-1.49478e-06,7.3902e-05,-1.89605e-05,-5.19323e-05,2.28076e-05,-8.24277e-05,4.00392e-05,-2.79168e-06,0
-1.53441e-06,6.36824e-05,-5.6886e-05,-5.19911e-05,5.71723e-05,-7.28556e-05,4.10468e-05,-3.82815e-06,0
-1.69863e-05,3.73074e-05,-7.93909e-05,-3.93e-05,7.26449e-05,-4.67275e-05,3.87999e-05,-4.77527e-06,0
-3.73779e-05,6.32434e-06,-8.98706e-05,-3.66694e-05,6.00125e-05,-3.0309e-05,3.60036e-05,-3.18447e-06,0
-5.43317e-05,-1.27413e-05,-8.96464e-05,-5.56245e-05,3.70396e-05,-2.97702e-05,3.38341e-05,3.23304e-07,0
-6.24656e-05,-1.41455e-05,-8.77827e-05,-8.51571e-05,2.10708e-05,-3.92672e-05,3.2591e-05,1.54161e-06,0
-6.15909e-05,-7.64519e-06,-8.3476e-05,-9.55702e-05,1.45812e-05,-4.524e-05,3.02188e-05,-3.80199e-07,0
-5.30591e-05,2.28391e-06,-7.39657e-05,-8.10365e-05,1.31511e-05,-4.19812e-05,2.76532e-05,-2.80678e-06,0
-4.29178e-05,1.61345e-05,-5.96749e-05,-5.45959e-05,1.39264e-05,-3.20058e-05,2.49764e-05,-3.7358e-06,0
-3.85875e-05,3.10406e-05,-4.44737e-05,-1.41523e-05,1.42458e-05,-2.49558e-05,2.21025e-05,-3.49789e-06,0
-4.09373e-05,4.22068e-05,-2.95511e-05,3.51712e-05,1.47144e-05,-1.73884e-05,1.8545e-05,-2.47494e-06,0
-4.32728e-05,4.94564e-05,-1.64709e-05,6.52989e-05,1.64105e-05,-3.14584e-06,1.38449e-05,-7.79021e-07,0
-3.85524e-05,5.54832e-05,-9.55349e-06,5.09226e-05,2.002e-05,2.28124e-05,9.58956e-06,4.26666e-07,0
-2.80492e-05,6.21118e-05,-6.98522e-06,7.97662e-06,2.45567e-05,5.77737e-05,6.75317e-06,-3.55129e-07,0
-2.04896e-05,6.56901e-05,-5.14426e-06,-2.62423e-05,2.58338e-05,6.77367e-05,6.34161e-06,-1.74582e-06,0
-1.75534e-05,5.78575e-05,-2.42136e-06,-3.53738e-05,2.00086e-05,3.67363e-05,7.6878e-06,-1.09342e-06,0
-1.21965e-05,3.88133e-05,-9.58237e-07,-3.65246e-05,9.04774e-06,-1.49452e-06,8.6829e-06,1.67469e-06,0
-4.48959e-06,1.49255e-05,4.94457e-07,-4.72485e-05,-1.96766e-06,-1.46258e-05,7.95091e-06,3.39296e-06,0
-1.33455e-06,-9.88338e-06,1.99044e-06,-5.78897e-05,-9.14493e-06,-8.69962e-06,6.21812e-06,2.03048e-06,0
-6.67316e-06,-3.57185e-05,2.91694e-06,-5.31882e-05,-1.15876e-05,-2.23608e-06,5.13088e-06,-5.66355e-07,0
-1.82264e-05,-5.68564e-05,1.61822e-06,-3.94316e-05,-1.20147e-05,-6.28722e-07,6.26583e-06,-1.28907e-06,0
-3.13083e-05,-6.58663e-05,-1.32466e-06,-2.70299e-05,-1.38234e-05,1.51712e-07,8.77634e-06,-6.77474e-08,0
-4.10559e-05,-6.01765e-05,-3.90363e-06,-1.63645e-05,-1.98519e-05,-1.24458e-06,1.22282e-05,7.67751e-07,0
-4.60713e-05,-4.36429e-05,-4.39876e-06,-6.31896e-06,-3.02731e-05,-8.61905e-06,1.49658e-05,6.89862e-07,0
-4.87251e-05,-2.44624e-05,-4.87026e-06,9.16422e-06,-3.87481e-05,-1.85934e-05,1.49076e-05,3.64206e-07,0
-5.24261e-05,-9.96687e-06,-5.46701e-06,3.83264e-05,-3.88542e-05,-2.43874e-05,1.34031e-05,5.91954e-07,0
-5.60561e-05,-3.088e-07,-5.1386e-06,7.22443e-05,-2.7257e-05,-2.46003e-05,1.29942e-05,2.89012e-07,0
-5.11808e-05,7.99915e-06,-5.922e-06,8.96287e-05,-1.50717e-06,-2.19504e-05,1.22143e-05,1.30081e-06,0
-3.4046e-05,1.35596e-05,-5.11063e-06,7.57513e-05,2.08711e-05,-1.82441e-05,9.57532e-06,3.2947e-06,0
-1.30043e-05,1.7983e-05,-4.14958e-06,4.48777e-05,2.4873e-05,-1.33599e-05,7.5312e-06,4.1121e-06,0
3.58095e-06,2.90174e-05,-5.05377e-06,3.2008e-05,2.02283e-05,-1.15506e-05,6.87238e-06,3.14843e-06,0
1.82945e-05,4.84668e-05,-3.31711e-06,4.36347e-05,1.80051e-05,-6.74709e-06,6.45646e-06,1.3005e-07,0
3.61907e-05,7.21692e-05,-8.49109e-07,4.65852e-05,2.35692e-05,5.53658e-06,5.89361e-06,-2.80979e-08,0
5.10313e-05,9.16051e-05,1.61518e-06,1.97307e-05,3.22895e-05,1.19316e-05,6.44574e-06,1.44254e-06,0
5.71382e-05,0.000105244,3.77337e-06,-2.90655e-06,3.78573e-05,7.39935e-06,6.6504e-06,1.12085e-06,0
5.63494e-05,0.000116859,6.66691e-06,1.57176e-05,4.00247e-05,-1.03006e-05,4.86519e-06,-4.36231e-07,0
4.54045e-05,0.000123643,1.11561e-05,6.00596e-05,4.06259e-05,-3.60822e-05,1.40611e-06,-1.6019e-06,0
1.94631e-05,0.000119558,1.55034e-05,8.68683e-05,4.01248e-05,-4.16189e-05,-1.27453e-06,-1.29749e-06,0
-1.90889e-05,9.79482e-05,1.79155e-05,7.9003e-05,3.56597e-05,-7.61666e-06,-1.18053e-06,3.67267e-07,0
-6.11978e-05,5.99813e-05,1.72364e-05,5.35053e-05,2.84898e-05,2.83148e-05,4.14477e-08,1.79967e-06,0
-9.81673e-05,1.72209e-05,1.61564e-05,3.39352e-05,2.498e-05,1.98546e-05,7.24237e-07,8.86238e-07,0
-0.00012438,-1.81961e-05,1.31546e-05,2.53049e-05,2.57163e-05,-2.40825e-05,1.91114e-06,3.16519e-07,0
-0.000132975,-4.6494e-05,7.41546e-06,1.24431e-05,2.48869e-05,-6.30742e-05,4.95701e-06,2.42206e-06,0
-0.000120715,-6.78318e-05,7.92035e-08,-9.05094e-06,2.10352e-05,-6.82579e-05,8.92049e-06,4.13739e-06,0
-9.63412e-05,-7.56684e-05,-5.51752e-06,-1.89621e-05,1.79917e-05,-3.87274e-05,1.14063e-05,1.84116e-06,0
-7.10435e-05,-6.83203e-05,-8.58834e-06,-3.39512e-06,1.82368e-05,-3.07767e-06,1.17085e-05,-1.39443e-06,0
-4.89527e-05,-5.60204e-05,-8.96763e-06,1.15981e-05,1.86145e-05,8.15182e-06,1.22292e-05,-2.80882e-06,0
-3.30655e-05,-4.88539e-05,-9.33768e-06,-1.48521e-05,1.39212e-05,-3.63648e-07,1.36923e-05,-2.53683e-06,0
-2.691e-05,-4.26404e-05,-1.08923e-05,-7.2801e-05,4.0372e-06,3.31884e-06,1.52575e-05,-1.0058e-06,0
-2.87103e-05,-2.9015e-05,-1.29957e-05,-0.000108863,-3.96022e-06,3.4629e-05,1.64997e-05,6.76811e-07,0
-3.16331e-05,-1.2819e-05,-1.459e-05,-9.11134e-05,-3.55624e-06,5.13682e-05,1.749e-05,2.12239e-06,0
-3.4992e-05,-2.88223e-06,-1.49292e-05,-2.60683e-05,2.44421e-06,2.97644e-05,1.90918e-05,3.05492e-06,0
-4.2378e-05,1.27445e-07,-1.49133e-05,1.90996e-05,6.91844e-06,4.8152e-06,1.96811e-05,4.57732e-06,0
-5.08912e-05,-3.66871e-06,-1.43553e-05,-2.10334e-05,7.30536e-06,-2.27478e-06,1.81181e-05,5.39336e-06,0
-5.68541e-05,-2.44869e-05,-1.27011e-05,-0.000111252,4.11869e-06,1.61773e-06,1.61878e-05,3.42037e-06,0
-6.04476e-05,-5.72396e-05,-1.12666e-05,-0.000165438,8.41311e-07,3.14756e-06,1.4966e-05,1.41346e-06,0
-6.50984e-05,-7.43665e-05,-1.10238e-05,-0.00015574,1.87248e-06,9.658e-07,1.36809e-05,-7.05877e-07,0
-6.8046e-05,-5.75079e-05,-1.03538e-05,-0.000120394,1.33268e-05,-1.48836e-06,1.18388e-05,-1.63133e-06,0
-6.39335e-05,-1.1838e-05,-9.0588e-06,-7.99267e-05,2.7598e-05,-2.75983e-06,1.03838e-05,2.47416e-08,0
-5.24441e-05,3.46047e-05,-5.39714e-06,-2.39202e-05,2.94371e-05,-1.23293e-06,8.43802e-06,2.26022e-06,0
-3.4886e-05,6.30777e-05,-3.58793e-07,3.5779e-05,2.61254e-05,1.23304e-06,7.37869e-06,4.13167e-06,0
-1.68066e-05,7.24643e-05,6.22587e-07,5.96395e-05,2.6226e-05,1.49514e-06,7.34741e-06,4.82497e-06,0
-6.34986e-06,6.73646e-05,-5.12492e-06,4.18732e-05,2.49855e-05,-2.50231e-06,7.17029e-06,6.42209e-06,0
-6.46119e-06,5.29275e-05,-1.16176e-05,9.35721e-06,1.72985e-05,-9.7754e-06,7.88087e-06,8.47254e-06,0
-2.38175e-06,4.51785e-05,-1.43111e-05,-7.46567e-06,6.62721e-06,-1.65507e-05,8.4258e-06,8.37447e-06,0
2.01603e-05,5.2225e-05,-1.36217e-05,-9.31541e-06,1.40441e-06,-1.99115e-05,7.46887e-06,6.21318e-06,0
5.06383e-05,6.20555e-05,-1.0899e-05,-1.25923e-05,4.82109e-06,-2.088e-05,7.23648e-06,3.95582e-06,0
6.61391e-05,6.44676e-05,-6.9266e-06,-2.15651e-05,1.41333e-05,-2.03222e-05,8.75533e-06,1.71983e-06,0
5.6546e-05,5.97576e-05,-4.10686e-06,-3.73194e-05,2.23707e-05,-2.11959e-05,1.03853e-05,1.984e-07,0
2.98441e-05,5.50948e-05,-4.80462e-06,-5.75622e-05,2.48413e-05,-2.11928e-05,1.16205e-05,7.49886e-07,0
-1.8348e-06,5.23801e-05,-6.58071e-06,-6.94752e-05,2.42925e-05,-1.43199e-05,1.20911e-05,1.47031e-06,0
-3.03667e-05,5.01564e-05,-6.22071e-06,-5.39933e-05,2.66073e-05,-4.34446e-06,1.20808e-05,5.20169e-07,0
-5.23284e-05,4.66387e-05,-4.00046e-06,-1.93398e-05,3.25969e-05,-2.14977e-06,1.2725e-05,-6.2854e-07,0
-6.81219e-05,4.12056e-05,-2.18918e-06,1.39291e-05,3.59748e-05,-8.96963e-06,1.45848e-05,-7.76183e-07,0
-7.98711e-05,3.28959e-05,-2.58235e-06,3.20288e-05,3.14844e-05,-1.58314e-05,1.62959e-05,2.31657e-07,0
-8.47722e-05,2.32339e-05,-6.05877e-06,3.73859e-05,2.37904e-05,-1.77762e-05,1.81554e-05,2.1794e-06,0
-7.76062e-05,1.64461e-05,-1.02346e-05,2.71383e-05,2.33758e-05,-1.69841e-05,1.98395e-05,3.05297e-06,0
-6.04822e-05,1.8498e-05,-1.21431e-05,-1.34975e-06,2.95681e-05,-1.64518e-05,2.04954e-05,3.01734e-06,0
-4.40736e-05,2.66068e-05,-1.3752e-05,-3.30142e-05,3.04166e-05,-1.66312e-05,1.96176e-05,3.22953e-06,0
-3.56874e-05,3.08465e-05,-1.63458e-05,-5.34759e-05,2.08441e-05,-1.69336e-05,1.77523e-05,3.65439e-06,0
-3.31124e-05,2.78032e-05,-1.78755e-05,-6.62625e-05,1.01916e-05,-1.711e-05,1.69251e-05,4.16822e-06,0
-3.56217e-05,2.24532e-05,-1.85738e-05,-6.36631e-05,9.60082e-06,-1.33096e-05,1.87496e-05,4.2215e-06,0
-3.83444e-05,1.66193e-05,-1.74941e-05,-3.5102e-05,2.00973e-05,-3.93953e-06,2.24722e-05,4.04206e-06,0
-3.53588e-05,9.96386e-06,-1.52319e-05,5.21906e-07,3.00781e-05,6.61634e-06,2.53003e-05,2.75998e-06,0
-2.97182e-05,4.40073e-06,-1.35226e-05,2.22806e-05,2.57341e-05,1.40515e-05,2.59135e-05,5.63588e-07,0
-2.56386e-05,-2.51697e-06,-1.29529e-05,3.68545e-05,5.99357e-06,1.62901e-05,2.47306e-05,-8.43605e-07,0
-2.54311e-05,-1.41488e-05,-1.53135e-05,6.32991e-05,-1.87379e-05,1.6208e-05,2.22395e-05,-1.46609e-06,0
-2.43849e-05,-2.77198e-05,-1.5843e-05,0.000102569,-3.17433e-05,8.42376e-06,1.93219e-05,-1.16864e-06,0
-2.07311e-05,-3.25664e-05,-1.22039e-05,0.000135624,-2.46595e-05,-1.51448e-05,1.7892e-05,3.30677e-07,0
-1.78864e-05,-2.38622e-05,-9.12249e-06,0.00013575,-3.67018e-06,-4.65365e-05,1.66629e-05,2.92524e-06,0
-1.86186e-05,-7.42551e-06,-9.64817e-06,9.81566e-05,1.66085e-05,-7.04642e-05,1.35837e-05,5.63246e-06,0
-2.52182e-05,6.64633e-06,-1.31014e-05,5.42827e-05,2.48225e-05,-7.2053e-05,9.93792e-06,6.76887e-06,0
-3.24058e-05,1.21378e-05,-1.64824e-05,3.20733e-05,2.09131e-05,-4.80428e-05,6.43412e-06,4.31077e-06,0
-3.27931e-05,1.13814e-05,-1.87689e-05,2.16386e-05,1.21049e-05,-2.22665e-05,-3.05715e-07,9.11277e-08,0
-2.65095e-05,1.19176e-05,-1.93082e-05,1.93258e-06,7.56028e-06,-1.31894e-05,-9.67563e-06,-2.0188e-06,0
-1.77955e-05,1.58476e-05,-1.82951e-05,-2.80175e-05,8.74465e-06,-1.63142e-05,-1.52505e-05,-1.34851e-06,0
-7.62395e-06,1.9739e-05,-1.50554e-05,-4.96616e-05,6.84015e-06,-2.00402e-05,-1.42295e-05,-1.17518e-06,0
4.46349e-07,2.07424e-05,-9.50964e-06,-4.80774e-05,-3.71681e-06,-1.9886e-05,-9.21722e-06,-2.56122e-06,0
-7.06994e-08,1.76067e-05,-3.45712e-06,-1.9711e-05,-1.56581e-05,-1.94318e-05,-3.94971e-06,-2.99668e-06,0
-1.05934e-05,9.53499e-06,1.03115e-06,2.04354e-05,-1.9981e-05,-1.94381e-05,5.05772e-07,-2.28165e-06,0
-2.80382e-05,-2.07687e-06,3.64589e-06,4.9114e-05,-1.29058e-05,-1.45881e-05,6.41262e-06,-1.38964e-06,0
-4.78626e-05,-9.90025e-06,6.10887e-06,5.68988e-05,5.0296e-06,-1.08779e-06,1.46873e-05,-4.77312e-07,0
-6.22599e-05,-4.35189e-06,7.90071e-06,4.02241e-05,2.37552e-05,1.38553e-05,2.21445e-05,1.18357e-06,0
-6.4964e-05,1.38812e-05,8.23235e-06,-1.21027e-06,3.09313e-05,2.20637e-05,2.81104e-05,2.8989e-06,0
-5.64881e-05,3.23998e-05,8.01117e-06,-3.9077e-05,2.86304e-05,2.21136e-05,3.33581e-05,3.51615e-06,0
-4.08919e-05,3.80013e-05,6.5905e-06,-4.48962e-05,2.48801e-05,1.77277e-05,3.57542e-05,2.6577e-06,0
-1.7666e-05,2.71004e-05,4.33891e-06,-2.85941e-05,2.15328e-05,1.33928e-05,3.47949e-05,2.05435e-06,0
1.148e-05,9.66518e-06,2.15025e-06,-1.90413e-05,1.87651e-05,1.15128e-05,3.21735e-05,3.61527e-06,0
2.43421e-05,-9.94264e-06,7.817e-07,-2.3065e-05,1.59178e-05,5.18418e-06,2.85182e-05,3.24237e-06,0
5.50768e-06,-2.83271e-05,-5.65637e-07,-2.69151e-05,1.04636e-05,-1.54921e-05,2.47461e-05,4.35289e-07,0
-1.71831e-05,-3.2393e-05,-5.71723e-06,-2.36193e-05,6.0139e-06,-3.96584e-05,2.18617e-05,3.00715e-07,0
-2.35118e-05,-2.25881e-05,-1.06738e-05,-1.62963e-05,4.60714e-06,-5.16314e-05,2.03763e-05,2.10104e-06,0
-2.58667e-05,-9.84462e-06,-1.29072e-05,-2.14026e-05,1.14853e-06,-5.53916e-05,1.87288e-05,4.02771e-06,0
-3.22561e-05,1.93249e-06,-1.32186e-05,-3.37768e-05,-6.23322e-06,-5.29348e-05,1.54698e-05,5.0891e-06,0
-4.16821e-05,1.1427e-05,-1.04434e-05,-3.52029e-05,-1.31074e-05,-4.27349e-05,1.32321e-05,5.06615e-06,0
-4.64135e-05,1.77963e-05,-7.85317e-06,-2.50635e-05,-1.60554e-05,-2.81143e-05,1.04001e-05,4.84492e-06,0
-4.56828e-05,2.1671e-05,-7.79861e-06,1.51212e-06,-1.71242e-05,-1.63075e-05,6.47869e-06,3.90042e-06,0
-4.24625e-05,2.50767e-05,-9.00061e-06,3.79512e-05,-1.50131e-05,-1.13414e-05,4.26431e-06,3.04022e-06,0
-4.21702e-05,2.70281e-05,-9.5808e-06,5.60514e-05,-6.55212e-06,-1.1037e-05,4.28748e-06,3.04031e-06,0
-4.953e-05,2.50322e-05,-8.2614e-06,3.16817e-05,4.67546e-06,-1.29027e-05,4.48972e-06,3.67261e-06,0
-5.99969e-05,2.14504e-05,-7.0082e-06,-2.88741e-05,1.17644e-05,-1.41672e-05,2.48596e-06,3.45048e-06,0
-6.09605e-05,1.81784e-05,-8.50971e-06,-8.96119e-05,1.17562e-05,-1.43874e-05,-7.34304e-07,1.09239e-06,0
-4.63679e-05,1.38882e-05,-1.18374e-05,-0.000125783,5.79304e-06,-1.36793e-05,-2.3885e-06,-1.32269e-06,0
-2.42615e-05,9.69043e-06,-1.56431e-05,-0.000139746,-1.91544e-06,-1.43997e-05,-1.0909e-06,-1.81803e-06,0
1.61101e-06,5.4677e-06,-1.83346e-05,-0.000142946,-6.22396e-06,-1.46321e-05,1.4492e-06,-7.69632e-07,0
3.37767e-05,-3.96502e-06,-1.85322e-05,-0.000141887,-5.18682e-06,-8.71444e-06,2.85843e-06,2.38645e-07,0
6.35216e-05,-1.57332e-05,-1.64069e-05,-0.000134453,-6.22846e-07,6.31206e-06,2.41971e-06,5.05212e-07,0
6.45845e-05,-1.40585e-05,-1.49014e-05,-0.000103693,6.26093e-06,2.37704e-05,2.38568e-06,3.02278e-07,0
2.72108e-05,8.30388e-06,-1.55079e-05,-3.46684e-05,1.1887e-05,2.7633e-05,3.70607e-06,-5.14294e-07,0
-1.83868e-05,3.72068e-05,-1.70393e-05,5.59575e-05,1.30241e-05,1.30329e-05,5.20992e-06,-1.38736e-06,0
-3.59943e-05,5.57604e-05,-1.93058e-05,0.000121098,1.32997e-05,-4.26941e-06,6.36505e-06,-1.1644e-06,0
-2.69002e-05,6.23066e-05,-1.95785e-05,0.000129614,1.65253e-05,-1.21016e-05,7.92047e-06,-5.52427e-07,0
-1.69004e-05,6.02982e-05,-1.55562e-05,0.000106816,2.28812e-05,-1.27773e-05,9.27828e-06,-8.78321e-07,0
-4.00318e-05,4.48756e-05,-9.88313e-06,9.41955e-05,2.6501e-05,-1.20455e-05,1.05041e-05,-1.819e-06,0
-0.000105572,2.15065e-05,-6.6316e-06,0.000102457,2.25283e-05,-1.50917e-05,1.16765e-05,-3.06064e-06,0
-0.000173493,4.94413e-06,-5.10616e-06,0.000128778,1.7553e-05,-2.35648e-05,1.331e-05,-3.56605e-06,0
-0.000187773,-1.73201e-07,-6.00685e-07,0.000141569,1.86573e-05,-2.61007e-05,1.40895e-05,-2.17673e-06,0
-0.000149952,-4.07338e-06,5.20331e-06,0.000109832,3.49254e-05,-1.63683e-05,1.32889e-05,-1.13612e-06,0
-0.000102871,-1.48124e-05,7.152e-06,5.56768e-05,6.18864e-05,-8.52215e-06,1.47393e-05,-1.73791e-06,0
-6.63087e-05,-2.25471e-05,5.74568e-06,1.6061e-05,7.88028e-05,-1.46113e-05,1.73488e-05,-2.3296e-06,0
-4.4814e-05,-1.84444e-05,4.05942e-06,6.60223e-06,7.71147e-05,-2.14008e-05,1.82792e-05,-3.23433e-06,0
-2.7722e-05,-4.3336e-06,2.92935e-06,8.2278e-06,6.35172e-05,-1.51001e-06,1.76127e-05,-3.25963e-06,0
-1.54937e-05,9.05908e-06,3.05399e-06,1.77845e-05,4.77315e-05,3.29156e-05,1.70438e-05,-2.33007e-06,0
-1.19052e-05,1.86766e-05,3.92936e-06,4.98246e-05,2.70722e-05,4.7368e-05,1.65829e-05,-1.92432e-06,0
-1.43094e-05,2.64401e-05,1.78018e-06,7.22146e-05,4.26003e-06,3.83331e-05,1.50501e-05,-2.83296e-06,0
-1.74916e-05,3.19804e-05,-2.43037e-06,4.08187e-05,-1.5462e-05,2.29792e-05,1.28513e-05,-4.37757e-06,0
-1.75307e-05,3.59832e-05,-5.20571e-06,-2.69773e-05,-3.27e-05,4.65374e-06,1.08319e-05,-4.83278e-06,0
-1.56107e-05,3.77511e-05,-6.33284e-06,-8.25649e-05,-4.59805e-05,-2.59517e-05,1.03571e-05,-3.83109e-06,0
-1.41577e-05,3.75425e-05,-8.3631e-06,-0.000105522,-4.89104e-05,-5.7944e-05,1.16176e-05,-1.22334e-06,0
-1.87038e-05,3.46912e-05,-1.32696e-05,-9.6397e-05,-3.50131e-05,-6.68e-05,1.23093e-05,1.37817e-06,0
-2.80411e-05,3.01176e-05,-2.02455e-05,-6.4886e-05,-1.01191e-05,-5.31886e-05,1.12776e-05,2.64802e-06,0
-3.64908e-05,2.56835e-05,-2.61033e-05,-2.95665e-05,1.89113e-05,-3.84787e-05,1.01173e-05,1.72492e-06,0
-3.87447e-05,2.37202e-05,-2.84222e-05,-1.09243e-05,5.28594e-05,-3.16076e-05,1.11445e-05,-1.02225e-06,0
-3.83515e-05,2.22689e-05,-2.73197e-05,-1.49373e-05,8.57543e-05,-2.71491e-05,1.4161e-05,-4.70937e-06,0
-3.85982e-05,1.94609e-05,-2.46569e-05,-2.94062e-05,9.70453e-05,-2.11106e-05,1.59415e-05,-6.30628e-06,0
-3.83157e-05,1.68599e-05,-2.3134e-05,-4.05936e-05,7.64643e-05,-1.51028e-05,1.60578e-05,-4.9751e-06,0
-3.33743e-05,1.71393e-05,-2.3119e-05,-4.38896e-05,3.98653e-05,-1.01381e-05,1.63013e-05,-3.2938e-06,0
-2.24657e-05,1.89655e-05,-2.18977e-05,-3.07999e-05,1.30792e-05,-6.30464e-06,1.59991e-05,-2.55321e-06,0
-8.45737e-06,1.96915e-05,-1.58082e-05,1.02792e-06,6.14186e-06,-3.43941e-06,1.56073e-05,-1.75513e-06,0
5.11225e-06,2.14034e-05,-4.84455e-06,2.7214e-05,1.41471e-05,-1.185e-06,1.60557e-05,-1.2556e-06,0
1.36916e-05,2.48285e-05,5.86362e-06,2.98402e-05,2.80397e-05,5.79322e-07,1.71093e-05,-1.06903e-06,0
1.50385e-05,2.76926e-05,1.37914e-05,2.70421e-05,4.0404e-05,3.27218e-06,1.75798e-05,-3.65773e-07,0
1.73017e-05,3.36018e-05,2.86458e-05,1.83259e-05,4.72355e-05,1.03177e-05,1.6268e-05,-1.96847e-06,0
2.69239e-05,4.48736e-05,5.00946e-05,1.27743e-06,4.73211e-05,1.95321e-05,1.42736e-05,-2.62964e-06,0
4.42787e-05,5.90171e-05,6.59636e-05,-1.19279e-06,4.29635e-05,2.51332e-05,1.37411e-05,-1.52005e-06,0
6.24767e-05,7.59016e-05,7.00433e-05,4.08801e-06,3.38698e-05,2.64054e-05,1.54127e-05,-1.41644e-06,0
6.38348e-05,8.95433e-05,5.82721e-05,-7.60012e-07,2.00809e-05,1.92741e-05,1.6809e-05,-2.83907e-06,0
3.84986e-05,9.42887e-05,3.1047e-05,-2.55182e-05,7.52638e-06,-2.90936e-06,1.79459e-05,-4.06802e-06,0
-3.51731e-06,8.72971e-05,-7.52899e-06,-6.33159e-05,-3.54866e-07,-3.79899e-05,1.91136e-05,-3.50223e-06,0
-4.3689e-05,6.95729e-05,-4.58267e-05,-8.86587e-05,-9.24476e-07,-6.82957e-05,1.8176e-05,-2.35422e-06,0
-7.21345e-05,4.46379e-05,-7.2075e-05,-8.70051e-05,2.79341e-06,-7.27605e-05,1.5413e-05,-4.66259e-08,0
-8.53879e-05,1.39464e-05,-8.18146e-05,-6.43559e-05,3.75625e-07,-5.73874e-05,1.45856e-05,2.17777e-06,0
-8.72851e-05,-2.37049e-05,-7.76207e-05,-3.55109e-05,-8.26629e-06,-4.1209e-05,1.59545e-05,3.45194e-06,0
-8.61073e-05,-6.17069e-05,-6.51135e-05,-1.94661e-05,-1.71517e-05,-2.74303e-05,1.70127e-05,5.10829e-06,0
-8.86852e-05,-8.33758e-05,-5.05598e-05,-3.5199e-05,-2.28302e-05,-1.1683e-05,1.76175e-05,6.75364e-06,0
-9.00962e-05,-8.41307e-05,-3.96798e-05,-8.01844e-05,-2.54454e-05,1.42148e-05,1.86428e-05,7.44393e-06,0
-8.197e-05,-7.10953e-05,-3.36509e-05,-0.000116526,-1.8124e-05,3.83949e-05,1.9775e-05,8.22296e-06,0
-6.75015e-05,-5.04734e-05,-3.15146e-05,-0.000105248,1.67968e-06,3.07261e-05,1.95952e-05,8.02343e-06,0
-5.76604e-05,-2.91628e-05,-2.9607e-05,-4.72676e-05,2.09489e-05,-4.31278e-06,1.84611e-05,4.48327e-06,0
-5.42217e-05,-1.46734e-05,-2.54455e-05,2.41317e-05,2.67334e-05,-3.04217e-05,1.69237e-05,-4.87136e-09,0
-5.11457e-05,-1.04865e-05,-1.89059e-05,6.84231e-05,2.00155e-05,-2.42203e-05,1.54494e-05,-2.4301e-06,0
-4.81227e-05,-1.44797e-05,-1.32957e-05,6.41409e-05,1.10429e-05,2.38418e-08,1.37162e-05,-3.01534e-06,0
-4.47369e-05,-1.90607e-05,-1.13052e-05,2.67076e-05,4.78646e-06,1.91679e-05,1.28642e-05,-2.62747e-06,0
-3.71114e-05,-1.71206e-05,-1.15837e-05,-1.05522e-05,2.05515e-07,4.89724e-05,1.3625e-05,-1.98651e-06,0
-3.03073e-05,-9.40217e-06,-1.1834e-05,-2.28721e-05,-4.52372e-06,8.73739e-05,1.35711e-05,-1.83238e-06,0
-3.24192e-05,-3.58961e-06,-1.22198e-05,-1.68012e-06,-9.09244e-06,8.24572e-05,1.16085e-05,-1.57416e-06,0
-3.86031e-05,-4.31833e-06,-1.2576e-05,1.15873e-05,-1.52726e-05,3.44096e-05,9.31821e-06,-9.10489e-07,0
-4.01003e-05,-9.05931e-06,-1.20829e-05,-1.43797e-05,-2.24341e-05,-8.59145e-06,8.0151e-06,-1.73614e-06,0
-3.89306e-05,-9.98105e-06,-9.41357e-06,-4.50977e-05,-2.58346e-05,-2.23335e-05,9.12296e-06,-2.38852e-06,0
-4.25238e-05,-2.40348e-06,-6.01851e-06,-5.0743e-05,-2.24411e-05,-1.6629e-05,1.12657e-05,-9.47179e-07,0
-4.60066e-05,5.86644e-06,-6.15068e-06,-3.0129e-05,-8.785e-06,-8.41409e-06,1.11363e-05,7.28816e-07,0
-3.57917e-05,1.18824e-05,-6.41693e-06,-3.93745e-07,1.00182e-05,-3.88046e-06,8.85293e-06,1.38726e-06,0
-3.11039e-06,2.47977e-05,-4.60133e-06,3.41193e-05,1.89107e-05,-1.04988e-05,7.35161e-06,1.79553e-06,0
4.36633e-05,4.4487e-05,-1.99303e-06,9.26319e-05,1.76453e-05,-1.98942e-05,7.12442e-06,8.10943e-07,0
8.43204e-05,6.32611e-05,1.70904e-06,0.000150537,1.74554e-05,-2.10203e-06,7.56944e-06,5.71042e-08,0
0.000101545,7.45368e-05,5.59128e-06,0.000142547,2.22177e-05,4.46812e-05,8.84234e-06,1.45989e-06,0
9.20199e-05,7.55165e-05,8.34668e-06,7.3542e-05,2.78821e-05,5.91052e-05,9.35197e-06,2.15307e-06,0
6.20733e-05,6.77763e-05,8.41314e-06,-5.53843e-07,2.92253e-05,1.50591e-05,8.91333e-06,2.16538e-06,0
2.53665e-05,5.54336e-05,6.3511e-06,-5.77292e-05,2.53006e-05,-3.08875e-05,8.88832e-06,3.10358e-06,0
-3.57514e-06,4.49973e-05,4.48053e-06,-7.6752e-05,1.93432e-05,-3.68809e-05,9.71347e-06,4.26128e-06,0
-2.52098e-05,3.54046e-05,4.17418e-06,-4.77849e-05,1.56699e-05,-2.4656e-05,9.56889e-06,4.50396e-06,0
-5.04888e-05,1.68952e-05,6.0695e-06,-7.96521e-06,1.66249e-05,-2.26868e-05,9.1367e-06,4.70549e-06,0
-8.70185e-05,-1.34412e-05,1.014e-05,4.01709e-06,2.04647e-05,-3.10716e-05,9.80326e-06,5.27682e-06,0
-0.000125501,-4.64659e-05,1.37384e-05,-3.15273e-06,2.28179e-05,-3.91091e-05,1.14076e-05,6.79474e-06,0
-0.000145921,-6.90907e-05,1.31529e-05,-8.00318e-07,2.22239e-05,-3.99542e-05,1.3392e-05,8.47423e-06,0
-0.000137723,-7.14271e-05,8.65776e-06,1.3783e-05,2.10436e-05,-3.673e-05,1.49497e-05,8.79709e-06,0
-0.00011079,-5.52869e-05,3.8951e-06,2.78338e-05,1.97581e-05,-3.33861e-05,1.59088e-05,7.95564e-06,0
-8.42576e-05,-3.51858e-05,2.16123e-06,3.50746e-05,1.69877e-05,-3.08524e-05,1.6357e-05,7.20302e-06,0
-6.92478e-05,-2.53378e-05,1.7532e-06,3.45112e-05,1.33241e-05,-2.73461e-05,1.62013e-05,7.03945e-06,0
-6.30736e-05,-2.82732e-05,-1.90432e-07,2.95626e-05,9.56481e-06,-2.37911e-05,1.47374e-05,6.80701e-06,0
-5.70596e-05,-3.4702e-05,-3.50702e-06,2.74582e-05,4.72459e-06,-1.93722e-05,1.3395e-05,6.11135e-06,0
-4.90814e-05,-3.18332e-05,-7.56893e-06,2.70588e-05,2.52617e-07,-1.30301e-05,1.36186e-05,6.24888e-06,0
-4.28457e-05,-1.69887e-05,-9.91096e-06,1.93467e-05,-4.58026e-07,-6.64924e-06,1.36085e-05,6.01034e-06,0
-3.76523e-05,7.96333e-07,-9.01408e-06,-1.0543e-06,7.6297e-07,-4.79909e-06,1.37051e-05,6.06934e-06,0
-3.17882e-05,1.49575e-05,-8.21771e-06,-3.08023e-05,-5.18775e-06,-7.74381e-06,1.34411e-05,7.47879e-06,0
-2.66045e-05,2.44726e-05,-8.82715e-06,-5.84025e-05,-1.95176e-05,-1.45497e-05,1.23739e-05,6.42945e-06,0
-2.18762e-05,2.51835e-05,-1.12739e-05,-5.99109e-05,-3.14686e-05,-2.54828e-05,1.16315e-05,4.11372e-06,0
-1.77143e-05,1.95189e-05,-1.63422e-05,-2.57045e-05,-3.27378e-05,-3.5031e-05,1.16422e-05,4.45289e-06,0
-1.68309e-05,1.25765e-05,-1.93239e-05,1.05263e-05,-2.37838e-05,-3.91285e-05,1.21078e-05,5.40649e-06,0
-1.97539e-05,7.7942e-06,-1.8812e-05,2.4598e-05,-1.43229e-05,-3.92113e-05,1.27517e-05,4.54506e-06,0
-2.45586e-05,8.12839e-06,-1.7178e-05,2.60751e-05,-4.50881e-06,-3.88303e-05,1.46661e-05,4.57727e-06,0
-2.79133e-05,1.10468e-05,-1.42378e-05,1.02164e-05,8.95057e-06,-3.57692e-05,1.56021e-05,3.95698e-06,0
-2.60932e-05,1.6741e-05,-9.47079e-06,-4.20953e-05,2.46045e-05,-2.64067e-05,1.64403e-05,2.55344e-06,0
-1.85173e-05,2.52768e-05,-2.61379e-06,-0.000112355,3.92495e-05,-1.65585e-05,1.65333e-05,4.47885e-07,0
-8.97436e-06,3.5547e-05,4.37256e-06,-0.000159346,4.79178e-05,-1.08944e-05,1.55376e-05,-1.60011e-06,0
-1.54943e-08,4.39935e-05,8.54901e-06,-0.000176226,5.1895e-05,-5.18674e-06,1.35542e-05,-6.87404e-07,0
7.07746e-06,4.57988e-05,9.0462e-06,-0.000166119,5.54072e-05,3.75098e-07,8.53427e-06,2.79841e-06,0
8.24717e-06,4.1294e-05,7.40071e-06,-0.000126265,5.53774e-05,-3.95259e-07,-1.12494e-06,6.07897e-06,0
2.00901e-06,3.34282e-05,4.83838e-06,-5.90707e-05,4.73758e-05,-1.07368e-05,-1.2296e-05,7.3283e-06,0
-9.73403e-06,2.44802e-05,4.23825e-07,2.42662e-05,3.75516e-05,-1.79767e-05,-1.91856e-05,7.02879e-06,0
-2.23758e-05,1.49174e-05,-5.44424e-06,0.000100048,3.17898e-05,-5.90914e-06,-1.94578e-05,5.26446e-06,0
-3.32906e-05,6.67161e-06,-1.00509e-05,0.000139938,2.80414e-05,1.49941e-05,-1.25732e-05,3.27447e-06,0
-4.18424e-05,2.42264e-06,-1.24529e-05,0.000129365,2.14928e-05,2.08381e-05,-2.04671e-06,1.51045e-06,0
-4.57406e-05,4.4062e-06,-1.28663e-05,8.06833e-05,1.47783e-05,1.06315e-05,8.49498e-06,4.30039e-07,0
-3.98373e-05,1.20205e-05,-1.19154e-05,1.60155e-05,1.32279e-05,2.90616e-06,1.6779e-05,1.2036e-08,0
-2.20132e-05,2.03812e-05,-1.12334e-05,-5.25915e-05,1.40094e-05,4.45837e-06,2.34701e-05,-2.07084e-08,0
1.26713e-06,2.58947e-05,-1.31091e-05,-0.00011346,9.03913e-06,1.00141e-05,2.81088e-05,-1.06859e-06,0
1.93615e-05,2.76108e-05,-1.91559e-05,-0.000142233,-1.69358e-07,1.69992e-05,3.06281e-05,-2.75181e-06,0
2.93952e-05,2.84814e-05,-2.59475e-05,-0.000126638,-8.3424e-06,2.29019e-05,3.08385e-05,-3.25488e-06,0
3.67676e-05,3.06575e-05,-2.9047e-05,-7.23771e-05,-1.52871e-05,2.44254e-05,3.01619e-05,-2.91301e-06,0
4.26901e-05,3.4565e-05,-2.73378e-05,-2.12265e-07,-1.88952e-05,2.20507e-05,3.05682e-05,-2.76991e-06,0
4.48988e-05,3.836e-05,-2.34724e-05,6.34388e-05,-1.35105e-05,1.9071e-05,3.0562e-05,-3.93442e-06,0
3.49455e-05,3.7473e-05,-2.05327e-05,0.000101689,1.23719e-06,1.38258e-05,3.08369e-05,-5.29055e-06,0
2.80698e-06,3.11798e-05,-1.93108e-05,0.000108814,1.38905e-05,5.86916e-07,3.0943e-05,-5.14717e-06,0
-3.863e-05,2.14153e-05,-1.92938e-05,0.000114718,1.24217e-05,-1.46103e-05,3.10732e-05,-5.8915e-06,0
-7.0667e-05,1.14597e-05,-1.99444e-05,0.000135297,3.55058e-06,-2.54404e-05,3.26122e-05,-6.78068e-06,0
-8.93315e-05,8.43757e-07,-2.09657e-05,0.000125853,2.37544e-06,-3.31869e-05,3.17745e-05,-7.25281e-06,0
-9.58827e-05,-9.56075e-06,-2.15381e-05,7.43179e-05,3.30414e-06,-3.17203e-05,2.85296e-05,-7.33289e-06,0
-9.94898e-05,-1.43163e-05,-2.01092e-05,2.01891e-05,3.7723e-06,-2.17045e-05,2.56337e-05,-4.91125e-06,0
-0.000107794,-1.10649e-05,-1.63258e-05,-6.57194e-06,1.51703e-05,-1.22137e-05,2.19732e-05,-1.83561e-06,0
-0.000115462,-5.64578e-06,-1.255e-05,-7.48026e-06,3.45257e-05,-6.91918e-06,1.55721e-05,-1.66297e-06,0
-0.000110059,-6.15343e-06,-1.14368e-05,-1.07381e-05,4.9064e-05,-7.00681e-06,8.14847e-06,-4.23171e-06,0
-9.17715e-05,-1.01569e-05,-1.30301e-05,-2.46618e-05,5.38656e-05,-2.07973e-05,2.22149e-06,-6.41668e-06,0
-6.756e-05,-9.6436e-06,-1.55792e-05,-3.48044e-05,5.35462e-05,-4.66527e-05,1.44598e-08,-7.15688e-06,0
-4.18922e-05,-2.20098e-06,-1.79121e-05,-3.70422e-05,5.38065e-05,-6.13148e-05,7.95011e-07,-7.03437e-06,0
-1.87858e-05,3.01855e-06,-1.80034e-05,-3.71064e-05,5.39211e-05,-5.20774e-05,3.05642e-06,-6.52246e-06,0
3.16742e-06,8.39153e-07,-1.43196e-05,-3.39433e-05,5.21741e-05,-3.09443e-05,6.71842e-06,-5.5236e-06,0
2.00965e-05,-3.58639e-06,-7.69551e-06,-1.63199e-05,5.08202e-05,-1.45113e-05,9.85138e-06,-4.04945e-06,0
1.66006e-05,-5.51393e-06,-2.81448e-06,1.27805e-05,5.06588e-05,-6.04235e-06,1.17853e-05,-2.94827e-06,0
-1.03961e-05,-3.89107e-06,-2.31283e-06,2.68843e-05,4.63267e-05,-2.18823e-06,1.22123e-05,-3.87342e-06,0
-3.9933e-05,9.70146e-07,-4.93805e-06,9.53239e-06,3.45414e-05,-2.51403e-06,1.33072e-05,-5.13714e-06,0
-5.4644e-05,8.54476e-06,-7.49556e-06,-1.8495e-05,1.99432e-05,-7.08608e-06,1.53765e-05,-5.45782e-06,0
-5.43761e-05,1.55427e-05,-8.009e-06,-2.43916e-05,8.08289e-06,-1.24469e-05,1.69215e-05,-5.05929e-06,0
-4.58772e-05,1.82319e-05,-6.3337e-06,2.40532e-06,-9.5832e-07,-1.5429e-05,1.55839e-05,-4.64481e-06,0
-3.50105e-05,1.71483e-05,-2.09574e-06,4.38158e-05,-8.12173e-06,-1.53668e-05,1.19248e-05,-4.74157e-06,0
-2.73539e-05,1.60123e-05,2.84258e-06,6.7828e-05,-7.28519e-06,-1.36283e-05,9.88151e-06,-4.61918e-06,0
-2.24986e-05,1.65391e-05,5.50427e-06,5.89654e-05,6.09977e-06,-9.57741e-06,1.04899e-05,-4.54673e-06,0
-1.41139e-05,2.12967e-05,5.21625e-06,2.49806e-05,2.41017e-05,-3.04373e-06,1.21489e-05,-5.06848e-06,0
-3.60303e-06,2.85625e-05,4.94084e-06,-1.27417e-05,3.27107e-05,7.72194e-07,1.40321e-05,-4.34693e-06,0
-9.01147e-07,3.47798e-05,5.70509e-06,-3.30994e-05,2.84462e-05,-2.93914e-07,1.41674e-05,-3.47394e-06,0
-8.39263e-06,4.27585e-05,5.18734e-06,-2.40142e-05,1.63959e-05,-4.93511e-06,1.28016e-05,-3.02196e-06,0
-1.70924e-05,5.3869e-05,1.45945e-06,-4.24502e-06,4.38777e-06,-1.14243e-05,1.1378e-05,-2.19007e-06,0
-2.11429e-05,6.35728e-05,-1.29174e-06,-1.1477e-06,1.7473e-06,-1.39806e-05,1.05414e-05,-1.56703e-06,0
-2.43379e-05,6.5147e-05,-1.5105e-06,7.77806e-06,6.8165e-06,-8.15613e-06,1.00094e-05,-3.75172e-07,0
-3.23386e-05,5.4459e-05,-3.14505e-06,4.79089e-05,1.02972e-05,-2.25979e-06,8.81129e-06,1.15311e-06,0
-4.71845e-05,3.17215e-05,-7.87119e-06,7.00285e-05,8.01673e-06,-6.75165e-07,8.17975e-06,3.27443e-06,0
-5.96971e-05,5.15897e-06,-1.3187e-05,5.08189e-05,-1.23154e-06,4.53634e-06,9.97666e-06,4.99985e-06,0
-6.30697e-05,-1.61806e-05,-1.64161e-05,4.14783e-05,-1.13175e-05,1.98566e-05,1.28048e-05,5.39681e-06,0
-6.7988e-05,-2.87959e-05,-1.61949e-05,4.64255e-05,-1.16951e-05,3.05329e-05,1.38879e-05,5.33256e-06,0
-7.14574e-05,-2.88059e-05,-1.38483e-05,3.30055e-05,-4.86652e-06,2.09862e-05,1.21981e-05,5.59871e-06,0
-5.73292e-05,-1.87961e-05,-1.32992e-05,-1.71662e-05,1.22732e-06,4.84718e-06,9.06623e-06,5.67229e-06,0
-3.05282e-05,-8.31121e-06,-1.49653e-05,-8.23681e-05,1.29443e-06,-2.06369e-06,6.21342e-06,6.5524e-06,0
-8.2214e-06,-3.2828e-06,-1.89197e-05,-0.000137225,-2.12712e-06,2.36896e-06,4.76525e-06,7.82807e-06,0
2.23633e-07,-3.17865e-06,-2.25718e-05,-0.000168483,-3.57699e-06,7.40582e-06,6.10947e-06,8.47848e-06,0
-3.15623e-06,-4.42765e-06,-2.31424e-05,-0.00016279,-2.33974e-06,2.76836e-06,7.41437e-06,8.2159e-06,0
-1.07531e-05,-3.4966e-06,-2.1506e-05,-0.000132125,-1.84461e-06,-1.05743e-05,8.4092e-06,7.57147e-06,0
-1.69055e-05,-2.11989e-06,-1.93649e-05,-9.14395e-05,-2.68088e-06,-2.01997e-05,9.27017e-06,6.8216e-06,0
-2.09446e-05,-3.96631e-06,-1.77083e-05,-4.65191e-05,-4.95521e-07,-1.9792e-05,9.70627e-06,6.30471e-06,0
-2.30867e-05,-8.20435e-06,-1.60598e-05,1.14604e-07,5.85022e-06,-1.65242e-05,9.94928e-06,7.08363e-06,0
-2.17851e-05,-1.07564e-05,-1.2293e-05,4.06584e-05,1.36741e-05,-1.5929e-05,1.00812e-05,8.8987e-06,0
-1.85506e-05,-9.34017e-06,-6.79851e-06,6.97709e-05,1.79719e-05,-1.81447e-05,9.70081e-06,1.09139e-05,0
-1.73803e-05,-4.05811e-06,-3.17303e-06,7.45897e-05,1.65138e-05,-2.22357e-05,9.81129e-06,1.18509e-05,0
-2.03476e-05,2.36122e-06,-9.69712e-07,5.16958e-05,1.3003e-05,-2.6949e-05,9.78186e-06,9.87009e-06,0
-2.53501e-05,1.134e-06,1.45788e-06,1.54413e-05,2.09086e-05,-2.79551e-05,8.41238e-06,6.32118e-06,0
-2.49668e-05,-8.42601e-06,2.23672e-06,-2.43363e-05,3.6918e-05,-2.46442e-05,6.73383e-06,5.70825e-06,0
-1.59397e-05,-7.75911e-06,-4.38605e-07,-5.5486e-05,3.66402e-05,-2.07832e-05,6.29539e-06,6.46435e-06,0
-1.26323e-05,1.55224e-05,-4.28106e-06,-4.91851e-05,1.89739e-05,-1.99364e-05,7.34102e-06,6.31104e-06,0
-2.01852e-05,4.07439e-05,-3.10136e-06,-1.10718e-05,1.44275e-07,-2.38323e-05,9.60711e-06,6.68048e-06,0
-2.82454e-05,4.43536e-05,5.85521e-07,2.2816e-05,-9.85322e-06,-3.153e-05,1.11003e-05,8.3532e-06,0
-3.42406e-05,3.74956e-05,-1.48065e-06,4.36511e-05,-2.66373e-06,-2.71673e-05,1.04813e-05,9.68565e-06,0
-4.52143e-05,3.49303e-05,-5.60801e-06,3.97194e-05,1.14383e-05,-1.64508e-05,1.04202e-05,9.72938e-06,0
-5.3768e-05,3.07702e-05,-6.2767e-06,1.05101e-05,1.1294e-05,-2.81439e-05,1.06084e-05,9.71593e-06,0
-3.73372e-05,1.99554e-05,-5.4848e-06,-3.86517e-06,-3.61033e-06,-5.24619e-05,1.13732e-05,9.9935e-06,0
-6.99238e-07,1.14186e-05,-4.8465e-06,2.3709e-05,-1.08484e-05,-6.03632e-05,1.11589e-05,8.14215e-06,0
2.50816e-05,9.86862e-06,-3.47336e-06,6.58867e-05,6.69272e-06,-4.42853e-05,1.11705e-05,5.83864e-06,0
2.56985e-05,6.60799e-06,-2.66032e-07,7.74998e-05,3.51447e-05,-9.00062e-06,1.18574e-05,6.37165e-06,0
1.67201e-05,9.24871e-06,3.19147e-06,5.33767e-05,4.9313e-05,4.63262e-05,1.35347e-05,7.8434e-06,0
6.4678e-06,2.69845e-05,5.15754e-06,5.22032e-06,4.50138e-05,8.54365e-05,1.61646e-05,8.03871e-06,0
-1.02458e-05,4.95918e-05,4.83119e-06,-6.14899e-05,3.10285e-05,5.80499e-05,1.80839e-05,7.07088e-06,0
-3.10051e-05,5.55126e-05,1.62111e-06,-0.000127044,1.32518e-05,1.44916e-06,1.83907e-05,6.81366e-06,0
-4.59171e-05,3.85735e-05,-3.52856e-06,-0.000161738,-6.46127e-06,-8.25415e-06,1.68932e-05,8.25313e-06,0
-5.11105e-05,1.31773e-05,-1.02282e-05,-0.000145556,-2.19583e-05,2.83281e-05,1.45334e-05,8.50717e-06,0
-4.8178e-05,-5.1117e-06,-1.75396e-05,-9.27003e-05,-2.07068e-05,5.14589e-05,1.14662e-05,5.59975e-06,0
-3.95894e-05,-1.04231e-05,-2.18218e-05,-3.79785e-05,-2.02643e-06,4.29666e-05,9.87961e-06,1.12269e-06,0
-3.12071e-05,-6.94296e-06,-2.10095e-05,-6.76724e-06,2.3137e-05,2.62786e-05,1.02236e-05,-2.64285e-06,0
-2.55345e-05,1.58391e-06,-1.76744e-05,-9.37031e-07,5.22374e-05,1.72648e-05,1.07777e-05,-4.97972e-06,0
-2.32142e-05,1.06315e-05,-1.23714e-05,-6.48669e-06,8.59297e-05,1.54718e-05,8.93322e-06,-6.45236e-06,0
-3.063e-05,1.73138e-05,-4.20315e-06,-4.85071e-06,0.000101544,1.40973e-05,6.68632e-06,-6.95066e-06,0
-5.52281e-05,1.82384e-05,4.13965e-06,4.95237e-06,7.68759e-05,4.71128e-06,7.30404e-06,-6.26298e-06,0
-8.89054e-05,1.31504e-05,1.35758e-05,7.73271e-06,3.08634e-05,-2.0265e-05,9.69956e-06,-4.62976e-06,0
-0.000112924,7.27336e-06,2.86077e-05,-6.38495e-06,-4.82982e-08,-5.40962e-05,1.14241e-05,-3.19498e-06,0
-0.000115958,6.3809e-06,4.66955e-05,-3.73994e-05,-2.87929e-06,-7.44163e-05,1.36596e-05,-2.87469e-06,0
-0.000102986,1.28772e-05,6.24828e-05,-8.08187e-05,1.37409e-05,-7.40181e-05,1.66723e-05,-4.51334e-06,0
-8.84932e-05,2.62138e-05,7.10776e-05,-0.00011161,3.46707e-05,-6.37461e-05,1.74724e-05,-6.49062e-06,0
-8.05842e-05,3.84713e-05,6.12989e-05,-0.00011167,4.85451e-05,-3.60367e-05,1.41418e-05,-6.47682e-06,0
-7.22807e-05,4.73252e-05,3.0648e-05,-8.96092e-05,4.47134e-05,-4.98444e-06,1.02544e-05,-5.08563e-06,0
-5.40143e-05,5.43304e-05,-8.41694e-06,-3.39239e-05,2.92146e-05,2.12121e-06,9.12586e-06,-4.89826e-06,0
-2.22801e-05,5.97379e-05,-4.4864e-05,6.32349e-05,1.52205e-05,-9.9061e-06,8.70638e-06,-5.35462e-06,0
1.97061e-05,6.25701e-05,-7.10965e-05,0.000154834,6.88894e-06,-2.08628e-05,8.27049e-06,-5.59949e-06,0
5.89262e-05,6.06605e-05,-8.23025e-05,0.000185484,5.15286e-06,-2.33986e-05,7.22882e-06,-4.6146e-06,0
7.99362e-05,5.59714e-05,-7.855e-05,0.00016763,4.58498e-06,-2.2209e-05,6.26499e-06,-2.60345e-06,0
7.49165e-05,4.69671e-05,-6.52486e-05,0.00013227,3.54362e-06,-1.68675e-05,7.28027e-06,-1.2616e-06,0
4.57497e-05,3.54191e-05,-5.03871e-05,8.31717e-05,1.9687e-06,-7.25055e-06,8.91802e-06,-1.29147e-06,0
3.95459e-06,2.53653e-05,-3.9995e-05,2.29866e-05,1.61605e-06,2.94284e-06,1.05922e-05,-1.7348e-06,0
-3.84775e-05,1.6435e-05,-3.25432e-05,-1.8306e-05,4.00728e-06,7.47362e-06,1.13864e-05,-1.2971e-06,0
-7.81781e-05,3.62126e-06,-2.57562e-05,-1.53853e-05,8.81793e-06,5.09853e-06,1.02183e-05,-4.46816e-07,0
-0.000112518,-1.53413e-05,-2.00078e-05,1.41872e-05,1.25573e-05,-4.38265e-07,8.79903e-06,-2.72038e-07,0
-0.00013503,-3.26757e-05,-1.56487e-05,2.79005e-05,1.4342e-05,-6.69285e-06,8.9809e-06,-1.6267e-06,0
-0.000138904,-4.11393e-05,-1.33359e-05,1.03584e-05,1.56099e-05,-1.94213e-05,1.09245e-05,-3.18744e-06,0
-0.000124645,-4.47469e-05,-1.22396e-05,-1.25203e-05,1.77069e-05,-4.57114e-05,1.28086e-05,-3.89218e-06,0
-0.000100745,-5.01995e-05,-1.23205e-05,-1.78464e-05,1.92511e-05,-7.63819e-05,1.42461e-05,-3.38495e-06,0
-7.87269e-05,-5.56473e-05,-1.26558e-05,-4.84324e-06,1.58244e-05,-8.88629e-05,1.4754e-05,-1.85266e-06,0
-6.52778e-05,-5.30323e-05,-1.27666e-05,1.063e-05,7.67846e-06,-7.78226e-05,1.38084e-05,6.06189e-07,0
-5.90159e-05,-3.97149e-05,-1.08074e-05,1.24433e-05,-5.20878e-07,-5.94745e-05,1.02378e-05,2.51479e-06,0
-5.38548e-05,-2.15642e-05,-7.46628e-06,-3.1727e-06,-4.98147e-06,-4.35685e-05,2.77487e-06,2.47629e-06,0
-4.71035e-05,-2.3899e-06,-5.92326e-06,-2.12888e-05,-5.80254e-06,-2.8703e-05,-6.20416e-06,-3.83388e-07,0
-4.0568e-05,1.36894e-05,-7.56622e-06,-2.7802e-05,-4.38218e-06,-1.55831e-05,-1.13398e-05,-3.93027e-06,0
-3.35755e-05,2.02172e-05,-1.01696e-05,-1.94685e-05,-1.42463e-06,-9.00492e-06,-1.09951e-05,-4.23275e-06,0
-2.49766e-05,2.4358e-05,-1.09396e-05,-8.6177e-06,2.45737e-06,-8.54645e-06,-7.38714e-06,-1.58161e-06,0
-1.6731e-05,3.42571e-05,-1.101e-05,-3.3758e-06,4.16633e-06,-1.07303e-05,-1.98248e-06,1.41102e-08,0
-1.24931e-05,4.22931e-05,-1.26149e-05,-2.43132e-06,2.88124e-06,-1.29882e-05,4.51674e-06,-1.05467e-06,0
-1.33127e-05,4.28957e-05,-1.37216e-05,-1.97032e-05,-2.14191e-06,-1.44119e-05,1.38253e-05,-3.3437e-06,0
-1.46175e-05,4.48165e-05,-1.25755e-05,-6.38677e-05,-5.01102e-06,-1.5014e-05,2.46848e-05,-4.20637e-06,0
-1.10099e-05,4.65715e-05,-1.27165e-05,-0.000106991,-3.66818e-06,-1.75309e-05,3.30289e-05,-3.14371e-06,0
-1.70873e-06,4.14484e-05,-1.49989e-05,-0.000116428,-4.47612e-06,-2.24658e-05,3.80537e-05,-9.04135e-07,0
8.06375e-06,3.53724e-05,-1.79011e-05,-9.49689e-05,-8.41282e-06,-2.45558e-05,3.79549e-05,1.59888e-06,0
1.43739e-05,3.25448e-05,-1.83318e-05,-5.46797e-05,-1.04164e-05,-2.3612e-05,3.58594e-05,4.50297e-06,0
1.574e-05,3.29997e-05,-1.47034e-05,-7.81236e-06,-6.71824e-06,-1.95572e-05,3.37347e-05,6.40007e-06,0
8.47237e-06,3.60174e-05,-1.04358e-05,2.25535e-05,-5.93116e-06,-1.63903e-05,3.03836e-05,4.8217e-06,0
-5.66256e-06,4.2199e-05,-8.99282e-06,3.67455e-05,-7.36587e-06,-2.31852e-05,2.79141e-05,2.91215e-06,0
-1.6872e-05,4.94058e-05,-9.75672e-06,6.05926e-05,-1.35599e-06,-3.58922e-05,2.67635e-05,3.24939e-06,0
-2.21703e-05,5.11274e-05,-9.20839e-06,9.56231e-05,1.06406e-05,-2.37486e-05,2.61345e-05,5.13343e-06,0
-3.51624e-05,4.4173e-05,-6.47122e-06,0.000105573,1.81138e-05,2.90407e-05,2.42323e-05,6.27995e-06,0
-5.98852e-05,3.16555e-05,-3.93693e-06,7.07983e-05,1.32048e-05,8.0099e-05,2.23286e-05,5.64518e-06,0
-7.68489e-05,2.01421e-05,-3.65945e-06,2.14858e-05,3.69851e-06,8.5598e-05,2.11196e-05,3.53359e-06,0
-6.7687e-05,1.25503e-05,-4.90756e-06,-2.54765e-06,7.725e-07,5.73178e-05,1.98697e-05,1.75051e-06,0
-3.70651e-05,6.96091e-06,-4.68119e-06,7.78076e-06,7.18382e-06,3.26796e-05,1.79457e-05,7.11375e-07,0
-5.36838e-06,1.94953e-06,-2.16842e-06,3.13549e-05,1.96459e-05,2.16178e-05,1.58705e-05,5.22613e-07,0
9.30982e-06,-2.30177e-06,8.36934e-07,5.488e-05,3.19828e-05,9.2136e-06,1.36531e-05,1.314e-06,0
6.48085e-06,-6.00805e-06,2.46802e-06,9.06747e-05,3.36145e-05,-1.1451e-05,1.11144e-05,1.44306e-06,0
3.26233e-06,-1.05451e-05,1.47509e-06,0.00014219,2.26138e-05,-2.71955e-05,8.63532e-06,-2.41717e-07,0
6.69996e-06,-1.52794e-05,-1.35575e-06,0.000177461,1.29035e-05,-2.81405e-05,7.28294e-06,-2.68325e-06,0
5.02123e-06,-1.86739e-05,-2.79694e-06,0.000174967,1.35243e-05,-2.48949e-05,6.57375e-06,-3.87835e-06,0
-2.38612e-06,-1.75156e-05,-1.93639e-06,0.000138178,1.7067e-05,-2.38088e-05,5.90357e-06,-3.18097e-06,0
-3.0255e-06,-8.91602e-06,-1.60105e-06,6.69561e-05,1.58967e-05,-1.82541e-05,6.33315e-06,-1.41006e-06,0
7.45592e-07,4.35818e-06,-2.8172e-06,-3.82064e-05,1.16951e-05,-1.12796e-05,6.14813e-06,2.95431e-07,0
-1.71839e-06,1.41492e-05,-3.8765e-06,-0.000135227,7.68338e-06,-1.13308e-05,5.02198e-06,1.18278e-07,0
-1.07349e-05,1.7204e-05,-4.7404e-06,-0.000178567,8.18308e-06,-1.53495e-05,2.81282e-06,-1.43678e-06,0
-1.98162e-05,1.73548e-05,-3.87755e-06,-0.000177226,1.21453e-05,-1.33725e-05,6.38988e-07,-3.41229e-07,0
-2.31531e-05,1.72376e-05,-1.401e-06,-0.00014586,1.54454e-05,-6.29343e-06,9.20387e-07,1.98406e-06,0
-2.24143e-05,1.47952e-05,-2.08657e-06,-0.00012614,1.30216e-05,-3.50331e-06,4.13699e-06,2.13857e-06,0
-2.30623e-05,8.99501e-06,-5.19755e-06,-0.000142219,7.18451e-06,-5.12704e-06,6.40118e-06,1.68166e-06,0
-2.44666e-05,5.62383e-06,-6.74841e-06,-0.000163026,3.01896e-06,-6.82145e-06,5.78237e-06,3.34313e-06,0
-2.61612e-05,7.01976e-06,-4.95156e-06,-0.000176159,-1.90075e-06,-7.50569e-06,5.26567e-06,5.34672e-06,0
-2.67627e-05,8.51494e-06,-3.27641e-06,-0.000169078,-7.73022e-06,-7.21895e-06,5.64151e-06,5.69343e-06,0
-2.62326e-05,6.02916e-06,-5.22369e-06,-0.000136174,-1.49596e-05,-8.1307e-06,7.02624e-06,5.30874e-06,0
-2.62966e-05,1.46863e-06,-8.3182e-06,-9.40487e-05,-2.25769e-05,-1.03885e-05,9.44242e-06,4.41543e-06,0
-2.77405e-05,-1.88258e-06,-9.81782e-06,-5.25448e-05,-2.6038e-05,-1.17909e-05,1.11939e-05,3.1878e-06,0
-3.07328e-05,-2.35137e-06,-9.00459e-06,-1.48747e-05,-1.9192e-05,-1.14341e-05,1.17365e-05,2.48184e-06,0
-3.65066e-05,-1.3987e-06,-7.39935e-06,5.71327e-06,-4.01013e-06,-9.7705e-06,1.28276e-05,1.73064e-06,0
-4.23491e-05,-5.03428e-07,-6.69159e-06,5.74731e-06,1.15173e-05,-9.17765e-06,1.46093e-05,3.51059e-07,0
-4.29948e-05,1.46981e-06,-6.31551e-06,1.0182e-05,2.58178e-05,-8.21191e-06,1.58846e-05,2.74547e-07,0
-3.952e-05,4.24741e-06,-5.6261e-06,4.01872e-05,4.06125e-05,-5.48239e-06,1.61514e-05,1.67584e-06,0
-3.54914e-05,6.14647e-06,-5.86113e-06,8.55165e-05,5.20967e-05,-2.51403e-06,1.62547e-05,3.70514e-06,0
-3.14157e-05,5.76747e-06,-5.71936e-06,0.000115642,5.24019e-05,-4.76599e-07,1.73629e-05,5.22782e-06,0
-2.5007e-05,5.1286e-06,-4.05292e-06,0.000106883,4.18829e-05,1.37142e-06,1.89723e-05,5.74352e-06,0
-1.79771e-05,6.66985e-06,-2.35808e-06,5.92644e-05,3.13411e-05,2.00217e-06,1.96254e-05,5.97229e-06,0
-1.46028e-05,8.61099e-06,-1.99421e-06,1.93524e-07,2.7315e-05,-3.5744e-07,1.85459e-05,6.01351e-06,0
-1.68155e-05,8.96528e-06,-2.21972e-06,-3.55496e-05,2.75007e-05,-4.52611e-06,1.694e-05,5.09821e-06,0
-1.83896e-05,9.56136e-06,-2.33164e-06,-2.48337e-05,3.15612e-05,-6.62542e-06,1.53776e-05,2.92104e-06,0
-1.30445e-05,1.08499e-05,-3.35761e-06,2.60039e-05,3.81716e-05,-3.37884e-06,1.42798e-05,1.74364e-06,0
-3.37509e-06,1.03439e-05,-4.90932e-06,8.3316e-05,4.53529e-05,3.72156e-06,1.42948e-05,2.90214e-06,0
3.24707e-06,1.1342e-05,-6.36271e-06,0.000107607,5.04711e-05,9.45606e-06,1.45396e-05,4.87315e-06,0
1.14811e-06,1.95661e-05,-7.20733e-06,7.70439e-05,5.05397e-05,1.08934e-05,1.43009e-05,6.04368e-06,0
