ch1,ch2,ch3,ch4,ch5,ch6,ch7,ch8,class
-4.50064e-05,0.000110687,-2.1116e-05,5.34217e-05,-4.095e-05,-2.77328e-05,-0.000184549,-1.94846e-06,0
-5.95721e-05,0.000139884,-2.21882e-05,-1.20282e-05,-4.90242e-05,-2.47222e-05,-0.000208323,-2.84227e-06,0
-6.69328e-05,0.000188294,-1.91981e-05,-4.52153e-05,-6.09365e-05,-2.01041e-05,-8.16873e-05,-3.75652e-06,0
-5.24859e-05,0.000246529,-1.28586e-05,-5.85158e-05,-6.46612e-05,-8.19072e-06,0.000116224,-4.84515e-06,0
-2.92246e-05,0.000287488,-6.7983e-06,-6.45346e-05,-4.55183e-05,8.51623e-06,0.00025716,-6.15393e-06,0
-2.70075e-05,0.000295006,-1.51486e-06,-7.79859e-05,4.64067e-06,3.10237e-05,0.000275069,-5.938e-06,0
-4.68493e-05,0.000272225,3.56414e-06,-0.000104786,6.84246e-05,6.2221e-05,0.000147361,-3.59541e-06,0
-5.95396e-05,0.000213652,6.56818e-06,-0.000121084,0.000106905,7.0026e-05,-0.000104839,-2.61144e-06,0
-3.67349e-05,0.000112268,7.91573e-06,-0.000111035,9.88837e-05,3.45676e-05,-0.000329722,-2.48597e-06,0
1.05904e-05,-7.20373e-06,8.34802e-06,-5.92465e-05,7.1424e-05,-3.30448e-06,-0.000417485,-2.25802e-07,0
4.00174e-05,-9.82854e-05,8.18307e-06,2.09869e-05,5.82789e-05,-1.31931e-05,-0.000436813,1.92397e-06,0
3.64967e-05,-0.000146087,6.92661e-06,7.70129e-05,4.74846e-05,-1.9059e-05,-0.000489687,2.89074e-06,0
1.72699e-05,-0.00017228,3.24609e-06,0.000107597,2.04842e-05,-4.10764e-05,-0.000524523,3.72119e-06,0
8.12709e-06,-0.000193024,-2.84376e-06,0.000117058,-2.48209e-05,-6.09372e-05,-0.000404139,4.28141e-06,0
6.01035e-06,-0.000220163,-7.98936e-06,8.93025e-05,-6.34301e-05,-6.94343e-05,-0.000154611,4.47774e-06,0
-3.4147e-06,-0.000245133,-1.44122e-05,4.13943e-05,-6.64229e-05,-8.15074e-05,0.000178587,4.80435e-06,0
-1.8184e-05,-0.000251961,-1.8987e-05,1.3739e-06,-3.49165e-05,-9.63395e-05,0.000472393,5.99812e-06,0
-2.42078e-05,-0.000246209,-1.71805e-05,-3.33802e-05,3.23017e-06,-7.43005e-05,0.000587031,6.72507e-06,0
-2.24449e-05,-0.000235552,-1.1372e-05,-7.35966e-05,3.18115e-05,-1.36249e-05,0.000523294,7.20087e-06,0
-2.75725e-05,-0.000220704,-5.09299e-06,-8.93853e-05,5.83768e-05,3.18482e-05,0.000414547,7.573e-06,0
-3.92609e-05,-0.000204139,-3.36158e-06,-8.25142e-05,8.07635e-05,5.0452e-05,0.000381393,7.6733e-06,0
-4.77255e-05,-0.000185429,-4.94859e-06,-8.24317e-05,8.35514e-05,6.12836e-05,0.00039915,8.10438e-06,0
-4.62991e-05,-0.000163759,-5.15023e-06,-7.95548e-05,5.83463e-05,5.79423e-05,0.000402522,8.54417e-06,0
-3.92061e-05,-0.000143641,-4.43966e-06,-5.61959e-05,1.86877e-05,2.92919e-05,0.000366122,7.90281e-06,0
-3.08062e-05,-0.000123822,-7.31836e-06,-3.60803e-05,-1.8467e-05,-3.64895e-06,0.000322059,4.39587e-06,0
-2.39473e-05,-9.61988e-05,-1.11765e-05,-3.05667e-05,-4.27861e-05,-1.34843e-05,0.000260053,-5.08342e-07,0
-1.8058e-05,-6.03051e-05,-1.12124e-05,-2.52963e-05,-5.36029e-05,7.37406e-06,0.000161997,-4.1541e-06,0
-1.76845e-05,-3.3036e-05,-7.46209e-06,-3.63121e-05,-5.65841e-05,3.62533e-05,3.16028e-05,-4.94695e-06,0
-2.61449e-05,-2.78274e-05,-5.61672e-06,-9.29387e-05,-5.73767e-05,3.50161e-05,-8.5148e-05,-3.30393e-06,0
-3.7957e-05,-3.65159e-05,-6.52201e-06,-0.000156146,-4.79417e-05,4.00772e-06,-0.00015853,1.94026e-07,0
-4.35662e-05,-4.19618e-05,-7.83951e-06,-0.000151503,-2.38595e-05,-1.96344e-05,-0.000177836,4.46755e-06,0
-4.20443e-05,-3.76215e-05,-1.09894e-05,-7.28725e-05,-1.62894e-06,-2.17138e-05,-0.000165481,7.55396e-06,0
-4.02018e-05,-2.81758e-05,-1.53745e-05,4.31441e-05,1.1646e-05,-1.56033e-05,-0.000186638,8.22075e-06,0
-4.21195e-05,-1.74817e-05,-1.65528e-05,0.000156804,2.93903e-05,-1.11235e-05,-0.000260158,6.7395e-06,0
-4.40091e-05,8.10206e-07,-1.4425e-05,0.000245162,5.66234e-05,-8.28541e-06,-0.000266697,4.06568e-06,0
-4.02264e-05,2.72899e-05,-1.15046e-05,0.000263578,7.35572e-05,-5.1949e-06,-0.000118943,2.20975e-06,0
-3.49273e-05,5.00392e-05,-6.63664e-06,0.000197738,7.08114e-05,-3.19949e-06,8.85351e-05,2.46298e-06,0
-3.19536e-05,5.69039e-05,-3.54094e-07,0.000105784,6.063e-05,-3.20546e-06,0.000215629,2.54233e-06,0
-3.09313e-05,5.202e-05,4.67034e-06,3.40837e-05,5.05867e-05,-5.33717e-06,0.000238483,3.19199e-06,0
-3.05537e-05,6.26545e-05,2.4899e-06,-6.66824e-06,4.59103e-05,-7.0785e-06,0.000225453,3.87053e-06,0
-2.84496e-05,0.000103226,-3.88208e-06,-2.8978e-05,4.56452e-05,-8.582e-06,0.000209496,3.68412e-06,0
-2.32765e-05,0.000156349,-6.00202e-06,-4.48552e-05,4.41413e-05,-7.90737e-06,0.000179822,3.22965e-06,0
-2.05033e-05,0.000201719,-4.81428e-06,-5.92831e-05,3.47991e-05,-7.6461e-06,0.00012967,1.8067e-06,0
-2.21303e-05,0.000233082,-6.10091e-06,-5.83656e-05,1.00469e-05,-1.33319e-05,8.72782e-05,3.36064e-07,0
-2.58705e-05,0.000244267,-9.58193e-06,-3.29927e-05,-1.85215e-05,-2.14209e-05,6.91411e-05,5.56418e-08,0
-3.00507e-05,0.000230315,-1.17825e-05,-3.56734e-06,-3.31739e-05,-2.6947e-05,7.06748e-05,7.12689e-07,0
-3.25075e-05,0.000189915,-1.40685e-05,2.15735e-07,-3.303e-05,-2.97591e-05,7.66443e-05,9.64247e-07,0
-3.06641e-05,0.000137362,-1.55391e-05,-1.37684e-05,-2.64425e-05,-2.92137e-05,9.86037e-05,4.80888e-07,0
-2.23582e-05,0.000101257,-1.08931e-05,-1.61814e-06,-1.29404e-05,-2.07551e-05,0.000128073,-1.40785e-06,0
-1.16585e-05,0.00010181,-3.3447e-08,5.42869e-05,3.95346e-06,-7.00156e-06,0.000140276,-2.7579e-06,0
-9.86729e-06,0.000131529,9.78678e-06,0.00012478,1.77579e-05,6.27657e-07,0.000102708,-2.37922e-06,0
-2.26238e-05,0.000169891,1.60584e-05,0.0001667,3.07022e-05,-3.77206e-06,-4.41822e-05,-1.66208e-06,0
-3.98994e-05,0.000210648,1.97798e-05,0.000153408,4.23247e-05,-1.39028e-05,-0.000285951,-1.80502e-06,0
-5.02017e-05,0.000235741,1.70524e-05,8.349e-05,4.34745e-05,-2.28601e-05,-0.000461225,-2.98873e-06,0
-5.14877e-05,0.000212324,4.72938e-06,-1.27946e-06,3.15857e-05,-2.85821e-05,-0.000429505,-4.07413e-06,0
-4.71661e-05,0.000144145,-9.52611e-06,-4.75191e-05,1.33928e-05,-2.95299e-05,-0.000246069,-3.90801e-06,0
-4.23283e-05,7.86292e-05,-1.49184e-05,-5.1909e-05,-6.27113e-06,-2.39203e-05,-6.19077e-05,-2.70364e-06,0
-3.75613e-05,3.87703e-05,-1.2175e-05,-5.53309e-05,-2.24096e-05,-1.29014e-05,4.44078e-05,-1.232e-06,0
-2.91282e-05,6.96637e-06,-9.51127e-06,-7.49681e-05,-2.65308e-05,1.86854e-07,6.6021e-05,1.50811e-06,0
-9.84089e-06,-3.69716e-05,-1.17495e-05,-9.27467e-05,-1.09434e-05,1.62516e-05,2.09255e-05,2.17093e-06,0
1.07946e-05,-9.70994e-05,-1.59261e-05,-8.26807e-05,1.14897e-05,2.87037e-05,-6.04594e-05,4.04423e-07,0
3.96393e-06,-0.000168977,-1.72529e-05,-2.44026e-05,1.90775e-05,2.89387e-05,-0.000143587,1.50241e-06,0
-2.40066e-05,-0.000217819,-1.50421e-05,6.77608e-05,1.32721e-05,1.50046e-05,-0.00016257,3.97041e-06,0
-5.26995e-05,-0.000221021,-1.33281e-05,0.0001326,1.21722e-05,-1.50066e-05,-0.000103278,4.92259e-06,0
-7.82803e-05,-0.000215258,-1.52456e-05,0.000131134,1.66287e-05,-4.66873e-05,-5.48288e-05,4.09533e-06,0
-9.44691e-05,-0.000212233,-2.06373e-05,8.27771e-05,1.64231e-05,-6.2367e-05,-0.000135775,2.70148e-06,0
-0.000100629,-0.000197601,-2.67539e-05,1.69096e-05,1.08473e-05,-6.20277e-05,-0.000292638,4.21e-06,0
-9.87518e-05,-0.00017288,-2.80288e-05,-4.46113e-05,-1.58504e-06,-5.6561e-05,-0.000276429,5.77016e-06,0
-9.19558e-05,-0.000159893,-2.33626e-05,-8.73021e-05,-1.81203e-05,-4.97325e-05,-2.18269e-05,4.35974e-06,0
-8.25762e-05,-0.00017293,-1.90133e-05,-0.000121921,-3.19292e-05,-4.03731e-05,0.000282031,2.30025e-06,0
-7.46728e-05,-0.000203819,-2.18214e-05,-0.000161486,-4.55769e-05,-3.38025e-05,0.000462675,2.01384e-06,0
-6.82483e-05,-0.000229967,-3.05802e-05,-0.000191898,-6.4621e-05,-3.13174e-05,0.000506529,3.53387e-06,0
-6.11863e-05,-0.000228902,-3.73576e-05,-0.000181675,-8.58521e-05,-3.43973e-05,0.000461157,5.08766e-06,0
-4.97425e-05,-0.000198326,-3.86585e-05,-0.000131216,-0.000100961,-3.35268e-05,0.000331245,6.04706e-06,0
-3.17218e-05,-0.000152786,-3.72348e-05,-9.26022e-05,-9.94297e-05,-1.13949e-05,0.000133138,6.05696e-06,0
-1.83485e-05,-0.000112112,-3.68583e-05,-0.000100708,-8.01451e-05,1.67203e-05,-7.65386e-05,5.22605e-06,0
-1.92201e-05,-7.81005e-05,-3.772e-05,-0.000123455,-5.34624e-05,1.41359e-05,-0.000212312,3.50522e-06,0
-2.83281e-05,-4.68403e-05,-3.6023e-05,-9.38402e-05,-2.00732e-05,-1.33507e-05,-0.000194507,1.83126e-06,0
-3.42156e-05,-1.75591e-05,-3.06047e-05,-2.03852e-06,1.6094e-05,-1.95891e-05,-4.6811e-05,1.34033e-06,0
-3.69389e-05,9.14207e-06,-2.4993e-05,9.72454e-05,3.8774e-05,5.59991e-06,8.82818e-05,2.65304e-06,0
-4.13065e-05,3.66956e-05,-2.35241e-05,0.000159103,4.86733e-05,2.42479e-05,0.00013574,4.53578e-06,0
-4.79263e-05,6.07908e-05,-2.75181e-05,0.000180787,6.7929e-05,1.50533e-05,0.000126212,3.79466e-06,0
-4.93098e-05,7.95317e-05,-2.96883e-05,0.00018146,0.000101939,-1.22069e-06,7.45652e-06,2.44891e-08,0
-4.24705e-05,9.67544e-05,-1.91786e-05,0.000186834,0.000130179,-2.32668e-06,-0.000271437,-3.65335e-06,0
-3.3998e-05,0.000108091,3.26367e-06,0.000184364,0.000143485,7.91813e-06,-0.000496316,-3.70915e-06,0
-3.01601e-05,0.00010655,2.50462e-05,0.000124619,0.000145069,1.32929e-05,-0.000464353,-3.11116e-07,0
-3.05507e-05,9.15882e-05,3.46415e-05,7.99967e-06,0.000132034,6.7953e-06,-0.000267945,1.24826e-06,0
-3.24803e-05,7.32017e-05,2.97814e-05,-9.43184e-05,0.000110068,-5.87144e-06,-0.00010921,-2.22348e-07,0
-4.35526e-05,2.43174e-05,-1.18602e-05,-1.81983e-05,9.59712e-07,-5.63755e-06,-2.06861e-05,6.95093e-07,0
-4.34943e-05,2.59374e-05,-1.41501e-05,1.25077e-06,5.0403e-06,-6.58589e-06,-4.83924e-06,1.22185e-06,0
-4.09747e-05,2.76196e-05,-1.31505e-05,1.06237e-05,1.09203e-05,-5.48572e-06,3.34084e-05,4.90564e-07,0
-3.89386e-05,2.74229e-05,-1.12141e-05,1.4646e-05,1.50824e-05,-4.33784e-06,6.23538e-05,-9.02863e-08,0
-3.6179e-05,2.54741e-05,-1.0401e-05,1.45334e-05,1.50893e-05,-4.78121e-06,7.71219e-05,7.54361e-07,0
-3.32403e-05,2.06481e-05,-9.42873e-06,1.296e-05,1.37282e-05,-4.55339e-06,8.29053e-05,1.65094e-06,0
-2.82288e-05,1.41861e-05,-8.6658e-06,9.8749e-06,1.15324e-05,-2.44779e-07,8.13965e-05,-4.09282e-07,0
-2.08849e-05,8.61426e-06,-9.69938e-06,5.01517e-06,7.62713e-06,9.089e-06,6.0142e-05,-3.41642e-06,0
-1.5813e-05,6.09561e-06,-1.29053e-05,-2.40717e-07,6.43881e-06,1.71424e-05,2.17107e-05,-4.49211e-06,0
-1.75997e-05,7.11321e-06,-1.56487e-05,-4.11311e-06,7.23952e-06,1.59109e-05,-1.06545e-05,-3.87706e-06,0
-2.63084e-05,9.05298e-06,-1.4175e-05,-5.8156e-06,7.35881e-06,6.15672e-06,-2.85906e-05,-3.0687e-06,0
-3.44959e-05,9.17373e-06,-1.12116e-05,-5.25267e-06,5.52627e-06,-4.4381e-06,-3.80464e-05,-2.29657e-06,0
-3.65088e-05,7.92543e-06,-1.05699e-05,-3.01652e-06,1.36211e-06,-1.05009e-05,-3.12528e-05,-1.04973e-06,0
-3.35885e-05,8.66304e-06,-1.09602e-05,6.95697e-07,-2.0822e-06,-1.24787e-05,4.31543e-06,-8.45861e-07,0
-2.95065e-05,1.47143e-05,-1.03684e-05,4.64982e-06,-1.16395e-06,-1.20138e-05,5.53037e-05,-1.74908e-06,0
-2.60664e-05,2.46409e-05,-8.41683e-06,5.02788e-06,4.87626e-06,-9.93978e-06,8.48303e-05,-2.73228e-06,0
-2.37075e-05,3.21902e-05,-5.82377e-06,4.05115e-06,1.24211e-05,-6.94203e-06,7.02438e-05,-3.41157e-06,0
-2.3314e-05,3.48459e-05,-3.03966e-06,3.55501e-06,1.64166e-05,-5.11521e-06,3.50126e-05,-3.05186e-06,0
-2.56913e-05,3.32909e-05,-1.89763e-06,-1.47335e-06,1.21456e-05,-7.12212e-06,2.0695e-05,-2.93449e-06,0
-2.92168e-05,2.89401e-05,-3.82949e-06,-1.78734e-05,2.03273e-06,-1.15204e-05,3.50463e-05,-3.6472e-06,0
-3.0638e-05,2.33355e-05,-7.61782e-06,-4.31479e-05,-7.59654e-06,-1.45851e-05,5.57261e-05,-4.39067e-06,0
-3.08689e-05,1.75178e-05,-9.77599e-06,-6.69038e-05,-1.08333e-05,-1.50375e-05,6.61828e-05,-4.37359e-06,0
-3.10172e-05,1.13625e-05,-9.28729e-06,-7.80414e-05,-7.92733e-06,-1.52574e-05,6.32696e-05,-4.19266e-06,0
-3.0667e-05,5.30911e-06,-9.05859e-06,-7.60481e-05,-3.52228e-06,-1.5379e-05,5.3788e-05,-6.23695e-06,0
-3.00934e-05,2.8172e-08,-9.4062e-06,-6.36728e-05,1.29186e-06,-1.37403e-05,4.62304e-05,-8.47506e-06,0
-2.97618e-05,-2.47149e-06,-9.46844e-06,-4.3492e-05,9.08504e-06,-1.21675e-05,4.27671e-05,-7.35306e-06,0
-2.86268e-05,-2.10782e-06,-8.45525e-06,-1.94603e-05,1.97826e-05,-1.12756e-05,3.9557e-05,-4.42986e-06,0
-2.72041e-05,-2.62322e-06,-6.12689e-06,8.06062e-06,2.90506e-05,-7.64366e-06,3.09531e-05,-2.77318e-06,0
-2.75705e-05,-5.14097e-06,-5.93317e-06,3.3907e-05,3.31445e-05,-3.80473e-06,2.03867e-05,-9.07309e-07,0
-2.72754e-05,-4.75234e-06,-5.65967e-06,5.28927e-05,3.32163e-05,-3.93368e-06,1.1701e-05,6.28935e-07,0
-2.72329e-05,1.86086e-06,-3.21636e-06,5.49831e-05,3.26122e-05,-6.78648e-06,1.74049e-07,6.21112e-07,0
-2.82893e-05,9.53779e-06,-2.11133e-06,3.23106e-05,3.22214e-05,-9.8976e-06,-1.30001e-05,1.40778e-06,0
-2.79759e-05,1.28538e-05,-2.90424e-06,-4.69951e-06,3.08972e-05,-1.14565e-05,-2.12855e-05,1.75102e-06,0
-2.82847e-05,1.15169e-05,-4.97942e-06,-3.73292e-05,2.62259e-05,-1.25145e-05,-1.98891e-05,2.46961e-08,0
-2.93005e-05,9.59968e-06,-5.05432e-06,-4.39663e-05,2.05904e-05,-1.37033e-05,-1.26897e-05,-3.00288e-06,0
-3.08866e-05,1.11023e-05,-3.17517e-06,-2.53466e-05,1.77836e-05,-1.4022e-05,-3.54366e-06,-4.68234e-06,0
-3.27206e-05,1.40066e-05,-1.7692e-06,-1.98657e-06,1.5158e-05,-1.59117e-05,7.2926e-06,-4.18192e-06,0
-3.47709e-05,1.32113e-05,-2.54338e-06,1.22723e-05,1.26483e-05,-2.07062e-05,1.47499e-05,-2.39658e-06,0
-3.7783e-05,7.4391e-06,-4.88267e-06,1.85681e-05,1.23426e-05,-2.51356e-05,1.3687e-05,1.79829e-08,0
-3.9579e-05,-9.74553e-08,-6.33744e-06,2.06783e-05,1.42731e-05,-2.73552e-05,7.2292e-06,8.55935e-07,0
-3.80252e-05,-6.01157e-06,-6.71876e-06,1.27376e-05,1.65388e-05,-2.69694e-05,5.05872e-06,-4.76271e-07,0
-3.38449e-05,-8.13997e-06,-7.89638e-06,-3.30663e-06,1.47438e-05,-2.47966e-05,1.22948e-05,-1.30115e-06,0
-3.00975e-05,-6.0799e-06,-1.05724e-05,-1.56647e-05,8.01344e-06,-2.22774e-05,2.53657e-05,5.2581e-08,0
-2.7851e-05,-2.75236e-06,-1.23887e-05,-1.45609e-05,2.04832e-06,-2.13259e-05,3.92925e-05,1.26915e-06,0
-2.7248e-05,-7.78193e-07,-1.26574e-05,-6.64833e-06,1.36329e-06,-2.12691e-05,5.75914e-05,1.20257e-06,0
-2.77737e-05,1.13871e-06,-1.28481e-05,-7.38222e-06,1.57408e-06,-1.99784e-05,8.42961e-05,6.62603e-07,0
-2.81261e-05,4.93811e-06,-1.38885e-05,-1.97121e-05,-6.20902e-07,-1.91146e-05,0.00011089,9.19067e-07,0
-2.79228e-05,9.42418e-06,-1.44419e-05,-2.64601e-05,-2.59705e-06,-2.24655e-05,0.000119868,1.80356e-06,0
-2.81442e-05,1.34811e-05,-1.46096e-05,-1.62464e-05,-2.57168e-06,-2.85223e-05,9.95138e-05,3.13785e-06,0
-2.89865e-05,1.70333e-05,-1.42437e-05,-5.66698e-07,-1.15811e-06,-3.09334e-05,4.26484e-05,5.63674e-06,0
-2.9947e-05,2.05854e-05,-1.19798e-05,1.70431e-05,2.34608e-06,-2.69893e-05,-4.57502e-05,8.74776e-06,0
-3.02017e-05,2.28607e-05,-7.68612e-06,5.6189e-05,7.05564e-06,-1.91007e-05,-0.000137792,9.30592e-06,0
-3.10181e-05,2.20146e-05,-4.93259e-06,0.000111166,1.03353e-05,-1.38272e-05,-0.000189883,5.96683e-06,0
-3.55423e-05,1.95813e-05,-8.38185e-06,0.000139504,9.1369e-06,-1.4595e-05,-0.000177563,4.0009e-06,0
-4.1476e-05,1.79865e-05,-1.66058e-05,0.000127199,2.79028e-06,-1.74047e-05,-0.000121951,4.05351e-06,0
-4.34103e-05,2.05669e-05,-1.9335e-05,0.000102216,-1.80117e-06,-1.56943e-05,-7.16153e-05,3.87404e-06,0
-4.0389e-05,2.71117e-05,-1.45669e-05,7.62668e-05,7.37351e-09,-1.07658e-05,-4.27407e-05,3.09875e-06,0
-3.42773e-05,3.17768e-05,-9.92687e-06,4.2574e-05,2.68996e-06,-8.88645e-06,-2.35513e-05,2.97179e-06,0
-2.97987e-05,3.25691e-05,-7.35276e-06,4.72195e-06,3.98018e-06,-9.33779e-06,-7.20278e-06,3.20891e-06,0
-3.0018e-05,3.17517e-05,-4.59512e-06,-3.42855e-05,6.24157e-06,-9.06474e-06,5.15212e-06,3.34495e-06,0
-3.11006e-05,2.97182e-05,-3.04926e-07,-6.24389e-05,9.98376e-06,-6.60076e-06,-3.48845e-07,3.84181e-06,0
-3.2e-05,2.6614e-05,2.24613e-06,-7.46074e-05,1.52392e-05,-2.5436e-06,-1.88701e-05,4.49439e-06,0
-3.53437e-05,2.29222e-05,8.24229e-07,-7.97351e-05,2.36586e-05,-1.06675e-06,-3.5795e-05,7.19942e-06,0
-4.16343e-05,1.81987e-05,-3.09364e-06,-8.31334e-05,3.03739e-05,-9.40245e-06,-3.32922e-05,9.79839e-06,0
-4.64942e-05,1.20454e-05,-7.4288e-06,-8.84789e-05,2.81808e-05,-2.61847e-05,-1.03358e-05,1.13038e-05,0
-4.59447e-05,5.16e-06,-1.17294e-05,-8.75091e-05,2.17399e-05,-4.00966e-05,1.54101e-05,1.12509e-05,0
-4.00084e-05,-3.36193e-07,-1.40224e-05,-7.12451e-05,2.02293e-05,-4.41644e-05,2.78721e-05,1.07403e-05,0
-3.13581e-05,-1.79519e-06,-1.2812e-05,-4.45498e-05,2.49843e-05,-3.94373e-05,1.82807e-05,1.01773e-05,0
-2.36213e-05,2.35314e-06,-9.87479e-06,-2.5793e-05,3.0641e-05,-3.03174e-05,-1.58297e-05,9.47881e-06,0
-1.8003e-05,1.06709e-05,-8.16963e-06,-2.80206e-05,3.13273e-05,-2.13978e-05,-8.22971e-05,9.85748e-06,0
-1.38906e-05,1.81946e-05,-9.06078e-06,-4.22371e-05,2.54612e-05,-1.50637e-05,-0.000168955,1.11076e-05,0
-1.06261e-05,2.15741e-05,-9.69579e-06,-4.94088e-05,2.15123e-05,-8.27902e-06,-0.000199253,1.26047e-05,0
-9.088e-06,2.19822e-05,-7.8751e-06,-4.46462e-05,2.47572e-05,-4.68198e-07,-0.000102706,1.27412e-05,0
-1.18461e-05,2.01607e-05,-5.49165e-06,-3.80362e-05,2.74809e-05,2.6262e-06,5.20467e-05,1.17929e-05,0
-1.99126e-05,1.55796e-05,-5.18608e-06,-3.01151e-05,2.0769e-05,-4.9722e-07,0.000143206,1.0366e-05,0
-2.93293e-05,9.22215e-06,-6.53013e-06,-1.73901e-05,8.91552e-06,2.0984e-06,0.000185674,8.25932e-06,0
-3.62917e-05,2.15914e-06,-7.1021e-06,-3.75176e-06,1.73402e-06,1.69762e-05,0.000268938,6.46969e-06,0
-4.01629e-05,-3.56792e-06,-6.14521e-06,1.823e-06,2.53107e-06,2.30837e-05,0.00037723,7.8092e-06,0
-4.30221e-05,-6.56982e-06,-5.07738e-06,-2.78006e-06,6.40725e-06,6.43434e-06,0.000416769,1.00873e-05,0
-4.49708e-05,-9.97013e-06,-6.01832e-06,-3.90089e-06,8.41317e-06,-1.26513e-05,0.000353111,1.04235e-05,0
-4.35112e-05,-1.50688e-05,-9.48547e-06,8.07417e-06,9.12595e-06,-1.74875e-05,0.000241354,9.05636e-06,0
-3.85999e-05,-1.79601e-05,-1.27029e-05,2.4772e-05,9.85782e-06,-1.12326e-05,0.000109669,6.30217e-06,0
-3.41077e-05,-1.61211e-05,-1.20488e-05,2.73645e-05,9.94607e-06,-5.35128e-06,-2.35606e-05,4.22078e-06,0
-3.20704e-05,-1.00952e-05,-8.98262e-06,1.93965e-05,9.35648e-06,-5.60393e-06,-0.00012341,4.6071e-06,0
-3.05028e-05,-3.03317e-06,-6.1257e-06,1.7675e-05,8.21455e-06,-6.51577e-06,-0.000168241,5.11253e-06,0
-2.80452e-05,1.90281e-06,-3.02794e-06,2.00014e-05,8.58423e-06,-5.10284e-06,-0.000148814,4.97784e-06,0
-2.71769e-05,6.45703e-06,-1.68004e-06,2.37233e-05,1.28427e-05,-2.13907e-06,-0.000102823,3.7254e-06,0
-2.87991e-05,9.85394e-06,-1.53656e-06,2.23266e-05,1.69613e-05,1.64163e-06,-6.93858e-05,7.17103e-07,0
-3.08985e-05,1.09679e-05,-2.2918e-06,1.55796e-05,1.59693e-05,5.74015e-06,-5.57784e-05,-2.28311e-06,0
-3.27257e-05,1.1298e-05,-4.69768e-06,9.0983e-06,1.10943e-05,8.86846e-06,-4.31456e-05,-4.10604e-06,0
-3.18998e-05,1.1387e-05,-8.48125e-06,3.7317e-06,7.16096e-06,1.17711e-05,-2.14858e-05,-4.2684e-06,0
-3.12941e-05,1.22279e-05,-1.29489e-05,-2.07563e-06,7.98639e-06,9.64872e-06,-6.37814e-07,-3.13286e-06,0
-3.08517e-05,1.31581e-05,-1.68816e-05,-8.58882e-06,1.20678e-05,-7.72703e-06,-7.28303e-06,-1.69368e-06,0
-2.76524e-05,1.40629e-05,-2.03118e-05,-1.5202e-05,1.05401e-05,-3.41512e-05,-4.97954e-05,-8.067e-08,0
-2.43057e-05,1.58721e-05,-2.08587e-05,-1.83833e-05,6.29886e-07,-5.01695e-05,-8.62165e-05,-4.24196e-07,0
-2.61148e-05,1.89718e-05,-1.85137e-05,-1.31591e-05,-9.91256e-06,-5.03197e-05,-8.2543e-05,-3.60994e-06,0
-3.22525e-05,2.34031e-05,-1.57916e-05,-2.25913e-06,-1.1593e-05,-4.79398e-05,-6.15447e-05,-6.09952e-06,0
-3.8488e-05,3.084e-05,-1.26059e-05,1.26392e-05,-3.13326e-06,-5.47466e-05,-5.39552e-05,-6.36346e-06,0
-4.51245e-05,3.97671e-05,-8.71339e-06,2.39433e-05,9.14256e-06,-6.59177e-05,-4.77706e-05,-5.10601e-06,0
-4.7368e-05,4.46012e-05,-8.39013e-06,2.32372e-05,1.68331e-05,-6.24321e-05,-3.1661e-05,-3.78683e-06,0
-3.43526e-05,4.3517e-05,-1.19057e-05,1.23605e-05,1.75339e-05,-2.67119e-05,-1.62325e-05,-2.95711e-06,0
-1.00227e-05,3.75038e-05,-1.29964e-05,2.46346e-06,1.66848e-05,2.86231e-05,-4.27725e-06,-3.42531e-06,0
6.45703e-07,2.40681e-05,-9.93811e-06,-1.68747e-06,1.84471e-05,5.63039e-05,1.18573e-05,-4.43715e-06,0
-7.15788e-06,3.1938e-06,-6.30905e-06,-3.2295e-06,2.20709e-05,3.2695e-05,3.88213e-05,-4.86134e-06,0
-1.45659e-05,-1.67733e-05,-4.50745e-06,-7.57529e-06,2.49455e-05,-7.90952e-06,7.57437e-05,-6.36811e-06,0
-1.40498e-05,-2.66624e-05,-5.02599e-06,-9.80323e-06,2.49487e-05,-2.82387e-05,0.000100197,-9.60319e-06,0
-1.31174e-05,-2.5796e-05,-6.55378e-06,-4.05608e-06,2.21169e-05,-2.67014e-05,9.49895e-05,-1.11834e-05,0
-1.60454e-05,-2.14153e-05,-8.17677e-06,1.66342e-06,1.77179e-05,-2.05525e-05,7.10313e-05,-1.03987e-05,0
-1.91028e-05,-1.70781e-05,-9.66122e-06,2.28173e-06,1.18575e-05,-2.1885e-05,4.80682e-05,-1.06615e-05,0
-1.97247e-05,-1.16386e-05,-1.08476e-05,7.73111e-07,9.17142e-06,-2.60071e-05,2.9229e-05,-1.08393e-05,0
-2.01932e-05,-5.80856e-06,-1.08342e-05,-1.15745e-06,9.2241e-06,-2.62399e-05,-5.95472e-06,-8.61386e-06,0
-2.2583e-05,-1.62134e-06,-7.9764e-06,-6.76296e-06,8.83121e-06,-2.13654e-05,-4.76748e-05,-5.64132e-06,0
-2.42713e-05,3.18705e-06,-5.2265e-06,-1.94587e-05,8.95945e-06,-1.55141e-05,-4.97998e-05,-4.511e-06,0
-2.51635e-05,8.00035e-06,-4.08928e-06,-3.34277e-05,9.74394e-06,-1.30074e-05,-7.29723e-06,-5.08128e-06,0
-2.49731e-05,9.5488e-06,-3.1908e-06,-3.60263e-05,1.31446e-05,-1.00954e-05,4.15833e-05,-5.27592e-06,0
-2.3949e-05,1.04441e-05,-2.80543e-06,-2.37232e-05,2.0494e-05,-5.66083e-06,6.48574e-05,-5.92232e-06,0
-2.43905e-05,1.46397e-05,-3.65829e-06,-8.01741e-06,2.97875e-05,-1.21169e-06,6.56062e-05,-6.51293e-06,0
-2.55726e-05,2.00947e-05,-3.50889e-06,-2.45095e-06,3.39316e-05,1.70562e-06,6.10216e-05,-7.2749e-06,0
-2.71929e-05,2.30887e-05,-1.56449e-06,-1.18577e-05,3.07759e-05,1.46805e-06,5.32556e-05,-7.83536e-06,0
-2.87475e-05,2.5852e-05,-2.51273e-08,-2.85717e-05,2.54569e-05,3.63277e-06,3.30291e-05,-7.1391e-06,0
-3.04127e-05,2.74534e-05,-5.40106e-07,-3.68044e-05,2.16012e-05,1.22309e-05,8.23048e-06,-5.39329e-06,0
-3.13562e-05,2.52973e-05,-3.91571e-06,-3.37594e-05,1.75925e-05,1.85937e-05,5.04084e-07,-4.25836e-06,0
-3.18764e-05,2.02599e-05,-7.43626e-06,-2.58338e-05,1.1938e-05,1.59415e-05,1.33365e-05,-3.45251e-06,0
-3.21464e-05,1.4994e-05,-8.97695e-06,-1.38571e-05,7.49256e-06,8.78671e-06,3.0481e-05,-1.57382e-06,0
-3.12447e-05,1.15312e-05,-9.87274e-06,8.99063e-07,6.63917e-06,3.93782e-06,3.39569e-05,-3.53292e-07,0
-3.05291e-05,9.82418e-06,-1.13628e-05,8.84659e-06,8.73007e-06,2.56286e-06,2.41431e-05,5.06126e-07,0
-3.13519e-05,7.42449e-06,-1.28039e-05,7.97756e-06,1.04241e-05,2.06457e-06,1.3705e-05,1.16929e-06,0
-3.27885e-05,3.2017e-06,-1.35669e-05,6.29101e-06,1.06874e-05,2.28253e-07,1.5812e-05,1.44738e-06,0
-3.35282e-05,1.59939e-07,-1.34085e-05,6.37307e-06,8.93953e-06,-3.77997e-06,2.54054e-05,6.8256e-07,0
-3.406e-05,5.841e-08,-1.24843e-05,-1.3656e-06,5.99719e-06,-9.46797e-06,2.81916e-05,-6.22311e-07,0
-3.53169e-05,3.12499e-06,-1.16576e-05,-2.19251e-05,5.07966e-06,-1.8123e-05,2.16467e-05,-1.84294e-06,0
-3.6914e-05,6.99631e-06,-1.17669e-05,-4.27389e-05,4.85569e-06,-2.81607e-05,1.40817e-05,-1.31865e-06,0
-3.61229e-05,9.61178e-06,-1.22602e-05,-5.0034e-05,1.4985e-06,-3.31268e-05,1.04541e-05,-1.0556e-06,0
-3.45267e-05,1.07601e-05,-1.11974e-05,-3.98546e-05,-3.03266e-06,-2.93181e-05,9.31268e-06,-1.1113e-06,0
-3.46125e-05,1.26637e-05,-9.34498e-06,-1.64848e-05,-4.36204e-06,-2.25532e-05,9.62302e-06,1.15856e-06,0
-3.62159e-05,1.76678e-05,-8.31705e-06,1.30642e-05,8.51659e-07,-2.07116e-05,1.36635e-05,2.61164e-06,0
-3.83034e-05,2.22284e-05,-8.15307e-06,3.82169e-05,1.02814e-05,-2.26403e-05,1.85873e-05,1.00119e-06,0
-3.77539e-05,2.23392e-05,-9.29055e-06,5.58135e-05,1.7082e-05,-2.30445e-05,1.50801e-05,5.94001e-07,0
-3.46641e-05,2.0424e-05,-1.01811e-05,7.22292e-05,2.06322e-05,-2.17225e-05,2.21601e-06,2.2417e-06,0
-3.20772e-05,2.09258e-05,-9.97706e-06,8.4349e-05,2.41739e-05,-1.74565e-05,-4.5492e-06,3.48549e-06,0
-3.11243e-05,2.50275e-05,-6.99873e-06,8.91034e-05,3.03208e-05,-1.08362e-05,4.89456e-07,4.63438e-06,0
-3.08904e-05,2.99028e-05,-1.12812e-06,8.53551e-05,3.84298e-05,-5.22786e-06,8.36994e-06,5.08362e-06,0
-2.90182e-05,3.2609e-05,2.44147e-06,6.86327e-05,4.14132e-05,-2.42097e-06,1.32464e-05,5.6305e-06,0
-2.76473e-05,3.38561e-05,2.03197e-06,4.08396e-05,3.56985e-05,-4.09408e-06,1.65049e-05,6.4761e-06,0
-3.01198e-05,3.38789e-05,-1.27067e-08,9.67243e-06,2.66888e-05,-7.85199e-06,2.63224e-05,8.18815e-06,0
-3.57313e-05,3.21769e-05,-1.36149e-06,-1.62455e-05,2.01072e-05,-1.09121e-05,3.87028e-05,1.05e-05,0
-3.97102e-05,2.92019e-05,-1.13319e-06,-3.02602e-05,1.73058e-05,-1.30762e-05,4.2683e-05,1.23203e-05,0
-3.95465e-05,2.87535e-05,6.7648e-07,-3.33108e-05,1.5541e-05,-1.54028e-05,3.57696e-05,1.23442e-05,0
-3.70733e-05,3.17571e-05,8.42471e-07,-3.43596e-05,1.15842e-05,-1.77927e-05,2.70867e-05,9.7769e-06,0
-3.54399e-05,3.42079e-05,-2.31258e-06,-4.00551e-05,5.78661e-06,-1.86911e-05,2.17695e-05,7.3393e-06,0
-3.46097e-05,3.43196e-05,-6.38695e-06,-4.84779e-05,2.00004e-06,-1.68031e-05,1.75003e-05,6.91862e-06,0
-3.15993e-05,3.44495e-05,-8.84586e-06,-5.27601e-05,2.38201e-06,-1.19518e-05,1.23358e-05,7.1179e-06,0
-2.60415e-05,3.6483e-05,-8.63639e-06,-5.20998e-05,5.15293e-06,-3.69982e-06,6.69079e-06,7.09871e-06,0
-1.97346e-05,3.73128e-05,-6.65277e-06,-4.87478e-05,5.37868e-06,7.85482e-06,7.90617e-07,6.77934e-06,0
-1.62462e-05,3.43719e-05,-4.01753e-06,-4.07957e-05,2.35983e-06,1.67114e-05,-3.57902e-06,6.10541e-06,0
-1.9147e-05,2.9951e-05,-9.39006e-07,-2.71859e-05,1.84775e-06,1.57559e-05,-3.22604e-06,5.18915e-06,0
-2.83964e-05,2.86853e-05,1.86508e-06,-1.17954e-05,6.1151e-06,8.4979e-06,-7.80517e-07,4.52432e-06,0
-3.52135e-05,3.00401e-05,7.81598e-07,-1.97275e-06,9.70303e-06,2.63296e-06,-1.92764e-06,3.89529e-06,0
-3.399e-05,2.92465e-05,-5.11311e-06,2.15135e-06,9.68795e-06,-1.40108e-06,-7.26202e-06,3.19069e-06,0
-2.99471e-05,2.60553e-05,-1.17053e-05,5.41859e-06,8.12426e-06,-5.52942e-06,-9.6339e-06,2.32806e-06,0
-2.95636e-05,2.38422e-05,-1.4525e-05,6.07957e-06,7.91084e-06,-7.57243e-06,-2.4117e-06,1.79891e-06,0
-3.05735e-05,2.2044e-05,-1.19914e-05,1.13445e-05,1.29258e-05,-5.756e-06,1.09727e-05,2.47413e-06,0
-2.91615e-05,2.05434e-05,-6.98658e-06,1.85188e-05,2.04546e-05,-2.19249e-06,2.21921e-05,2.28624e-06,0
-2.79798e-05,1.95055e-05,-4.87146e-06,1.38549e-05,2.44721e-05,-1.17429e-07,2.14172e-05,6.45064e-07,0
-2.83499e-05,1.95604e-05,-4.67273e-06,1.24972e-06,2.3447e-05,6.59815e-07,1.20096e-05,-1.10536e-06,0
-2.73903e-05,1.82653e-05,-4.44468e-06,-1.47709e-05,1.99581e-05,6.78547e-07,1.27848e-05,-2.02505e-06,0
-2.66378e-05,1.2064e-05,-5.41419e-06,-2.90084e-05,1.73857e-05,8.67855e-07,2.80894e-05,-2.55941e-06,0
-2.85627e-05,4.25426e-06,-6.32966e-06,-3.48447e-05,1.71424e-05,2.87757e-06,4.2331e-05,-1.0486e-06,0
-2.99546e-05,-3.4371e-06,-6.98962e-06,-3.83153e-05,1.70288e-05,4.36439e-06,4.10761e-05,2.84524e-06,0
-2.99775e-05,-1.01946e-05,-8.26741e-06,-4.04847e-05,1.41671e-05,3.39103e-06,2.8637e-05,4.82865e-06,0
-3.16298e-05,-1.29783e-05,-1.01228e-05,-3.3328e-05,1.03794e-05,1.03525e-06,5.63886e-06,3.25897e-06,0
-3.33819e-05,-1.07901e-05,-1.09554e-05,-1.57172e-05,1.02183e-05,6.02585e-08,-3.95923e-05,4.40013e-07,0
-3.38598e-05,-6.86206e-06,-1.05291e-05,6.32693e-06,1.29026e-05,4.4343e-07,-8.14681e-05,-1.28248e-06,0
-3.47733e-05,-3.2562e-06,-1.00896e-05,2.23185e-05,1.44193e-05,1.3293e-06,-6.8864e-05,-1.22112e-06,0
-3.52372e-05,-4.83086e-07,-9.81248e-06,2.63287e-05,1.3174e-05,2.62169e-06,-4.26025e-07,7.44321e-07,0
-3.36881e-05,2.86749e-06,-9.39217e-06,1.8156e-05,9.9142e-06,4.21539e-06,8.08528e-05,1.87622e-06,0
-3.06897e-05,6.35888e-06,-8.50328e-06,1.3884e-06,6.02909e-06,5.73033e-06,0.000131523,7.46498e-07,0
-2.96942e-05,7.92144e-06,-8.45692e-06,-1.67916e-05,5.52193e-07,5.77939e-06,0.00013562,-1.20245e-06,0
-3.1449e-05,6.24638e-06,-1.02735e-05,-2.83825e-05,-4.78511e-06,3.19489e-06,0.000100933,-3.02703e-06,0
-3.23327e-05,2.52422e-06,-1.29801e-05,-2.92144e-05,-6.59107e-06,-4.19534e-07,4.94549e-05,-4.80832e-06,0
-2.89985e-05,5.40199e-07,-1.4614e-05,-2.39525e-05,-4.97352e-06,-1.76904e-06,1.38123e-05,-6.60191e-06,0
-2.39177e-05,1.74091e-06,-1.36321e-05,-1.97384e-05,-1.14575e-06,-4.14677e-07,8.86729e-06,-7.2176e-06,0
-2.12514e-05,4.21358e-06,-1.14757e-05,-1.5419e-05,3.89366e-06,1.70776e-06,1.62691e-05,-6.05572e-06,0
-2.20235e-05,4.71642e-06,-1.02809e-05,-1.04103e-05,6.70765e-06,2.69896e-06,1.38795e-05,-4.86367e-06,0
-2.38179e-05,4.20467e-06,-8.59628e-06,-8.58371e-06,6.17475e-06,2.48318e-06,-4.89111e-06,-4.7235e-06,0
-2.43098e-05,5.90234e-06,-5.73134e-06,-6.90673e-06,5.54008e-06,2.30926e-06,-3.54471e-05,-4.94809e-06,0
-2.38726e-05,1.1031e-05,-3.97405e-06,-2.51243e-06,7.97095e-06,1.66421e-06,-5.90938e-05,-5.83817e-06,0
-2.23384e-05,1.7468e-05,-4.44755e-06,2.14123e-06,1.44888e-05,-5.88633e-07,-7.20841e-05,-7.93708e-06,0
-2.11176e-05,2.23741e-05,-5.49523e-06,4.90196e-06,2.3633e-05,-2.38276e-06,-7.95639e-05,-8.60584e-06,0
-2.15796e-05,2.18005e-05,-5.16412e-06,4.4623e-06,2.9614e-05,-6.17507e-06,-8.14013e-05,-6.85746e-06,0
-2.23739e-05,1.51378e-05,-6.38092e-06,1.48169e-06,2.59764e-05,-1.08741e-05,-9.35158e-05,-4.88295e-06,0
-2.4956e-05,8.0439e-06,-1.02493e-05,-1.44101e-07,1.81591e-05,-1.51851e-05,-0.000160453,-2.30968e-06,0
-3.06488e-05,4.92538e-06,-1.334e-05,2.81155e-06,1.43692e-05,-2.21334e-05,-0.00025004,-6.92778e-07,0
-3.66819e-05,4.49551e-06,-1.41867e-05,8.80208e-06,1.55411e-05,-2.93355e-05,-0.000252865,5.45253e-07,0
-4.09239e-05,4.44529e-06,-1.22302e-05,8.17758e-06,1.71977e-05,-3.52968e-05,-0.00015416,1.71622e-06,0
-4.25133e-05,2.95293e-06,-9.43583e-06,-1.17064e-06,1.37822e-05,-3.73556e-05,-2.47392e-05,1.3721e-06,0
-4.15752e-05,-1.70789e-06,-9.50076e-06,-8.62013e-06,8.25444e-06,-3.3085e-05,7.09938e-05,1.67005e-06,0
-4.1653e-05,-9.77733e-06,-1.21245e-05,-1.04414e-05,5.23259e-06,-2.65627e-05,0.000126195,3.13262e-06,0
-4.45188e-05,-1.82406e-05,-1.275e-05,-1.45573e-05,2.68489e-06,-2.43969e-05,0.000155974,3.90539e-06,0
-4.6806e-05,-2.10486e-05,-1.00285e-05,-2.25856e-05,-6.49306e-07,-2.627e-05,0.000161291,2.79295e-06,0
-4.59525e-05,-1.72206e-05,-6.71986e-06,-1.94077e-05,-1.05539e-06,-2.89545e-05,0.000148844,1.66109e-06,0
-4.42193e-05,-1.15801e-05,-6.6521e-06,-4.15268e-06,1.26763e-06,-2.95239e-05,0.000134411,2.28297e-06,0
-4.50622e-05,-6.73139e-06,-1.07886e-05,6.98728e-06,2.49009e-06,-2.67961e-05,0.000126821,3.46308e-06,0
-4.61849e-05,-2.65035e-06,-1.52341e-05,1.34391e-05,4.25173e-06,-2.14542e-05,0.000125009,3.26891e-06,0
-4.36894e-05,5.91144e-08,-1.51408e-05,2.98693e-05,1.17353e-05,-1.51875e-05,0.000128903,1.71851e-06,0
-3.82369e-05,-1.35339e-08,-9.8666e-06,5.19536e-05,2.49731e-05,-1.03476e-05,0.000123989,2.62825e-07,0
-3.39213e-05,-2.6038e-06,-5.03712e-06,5.5356e-05,3.61618e-05,-8.5319e-06,0.00010377,6.86989e-07,0
-3.13123e-05,-5.09491e-06,-4.81049e-06,3.3685e-05,3.94359e-05,-9.91793e-06,8.86334e-05,3.2146e-06,0
-2.83903e-05,-4.08172e-06,-7.85832e-06,2.47459e-06,3.62568e-05,-1.02308e-05,0.000101795,4.47478e-06,0
-2.53819e-05,5.03006e-07,-1.02798e-05,-2.17143e-05,3.15267e-05,-6.75594e-06,0.000129959,4.26999e-06,0
-2.41579e-05,5.32161e-06,-9.24331e-06,-2.97616e-05,2.87447e-05,-3.60518e-06,0.000131007,5.33222e-06,0
-2.73817e-05,9.22382e-06,-5.24645e-06,-2.30874e-05,2.94013e-05,-5.3687e-06,8.73869e-05,6.41528e-06,0
-3.42226e-05,1.12866e-05,-3.12962e-06,-1.41372e-05,2.9803e-05,-8.96933e-06,4.04872e-05,5.80355e-06,0
-3.96447e-05,1.04682e-05,-4.06252e-06,-1.34982e-05,2.45764e-05,-1.08657e-05,2.06462e-05,3.17665e-06,0
-3.88281e-05,9.50725e-06,-4.19278e-06,-2.31577e-05,1.62174e-05,-1.34694e-05,-7.01906e-06,6.05657e-08,0
-3.24788e-05,1.06519e-05,-2.5621e-06,-3.34718e-05,8.87223e-06,-1.86082e-05,-6.9763e-05,1.13321e-06,0
-2.4821e-05,1.28731e-05,-2.31379e-06,-3.38794e-05,4.8308e-06,-2.24367e-05,-0.000127905,5.25511e-06,0
-2.04537e-05,1.72471e-05,-3.20709e-06,-2.40335e-05,5.51277e-06,-2.37559e-05,-0.000122009,7.22413e-06,0
-2.28475e-05,2.17876e-05,-2.90029e-06,-1.13054e-05,6.50217e-06,-2.72782e-05,-8.25e-05,6.80803e-06,0
-2.96769e-05,2.3448e-05,-3.80874e-06,-6.56275e-06,7.21789e-06,-3.12071e-05,-8.16787e-05,6.16246e-06,0
-3.50501e-05,2.37889e-05,-6.22476e-06,-8.45034e-06,9.48367e-06,-1.81144e-05,-0.000105863,5.46035e-06,0
-3.56351e-05,2.36431e-05,-9.02006e-06,-1.2038e-05,7.9266e-06,1.23484e-05,-0.000102428,4.09909e-06,0
-3.23446e-05,2.27918e-05,-1.14428e-05,-1.70566e-05,2.9745e-06,3.42105e-05,-5.38362e-05,2.16882e-06,0
-2.70117e-05,2.35969e-05,-1.06041e-05,-1.67195e-05,-1.54307e-06,3.38694e-05,1.29359e-05,-6.37382e-07,0
-2.35987e-05,2.58927e-05,-8.80556e-06,-9.11964e-06,-3.14063e-06,2.16938e-05,5.69016e-05,-1.63811e-06,0
-2.24926e-05,2.81766e-05,-1.01095e-05,3.36457e-06,-1.00927e-06,1.27777e-05,6.30193e-05,-6.43776e-07,0
-2.1323e-05,2.80474e-05,-1.25702e-05,1.80575e-05,1.67264e-06,1.02743e-05,4.58321e-05,-3.20908e-07,0
-2.03388e-05,2.57142e-05,-1.41196e-05,3.09824e-05,2.94811e-06,1.02054e-05,2.91105e-05,-1.11204e-06,0
-2.00952e-05,2.38737e-05,-1.38174e-05,3.80318e-05,1.81036e-06,8.34911e-06,2.4898e-05,-9.63724e-07,0
-2.15454e-05,2.28047e-05,-1.30235e-05,3.58508e-05,-1.44916e-06,4.51409e-06,2.93428e-05,-6.12635e-08,0
-2.47433e-05,2.24439e-05,-1.36526e-05,2.55447e-05,-3.1354e-06,8.00643e-07,2.8946e-05,4.63036e-07,0
-2.75575e-05,2.12349e-05,-1.53248e-05,1.03989e-05,-8.88584e-07,-7.77722e-07,2.09438e-05,3.55414e-09,0
-2.80417e-05,1.98467e-05,-1.66582e-05,-7.09706e-06,2.46045e-06,-1.94859e-06,1.11e-05,-1.61308e-06,0
-2.83267e-05,2.02699e-05,-1.64374e-05,-2.64534e-05,3.96217e-06,-4.63937e-06,3.8668e-06,-2.96082e-06,0
-2.90725e-05,2.33979e-05,-1.44142e-05,-4.90314e-05,3.42736e-06,-6.29722e-06,-2.01435e-06,-3.1133e-06,0
-2.95973e-05,2.56675e-05,-1.2314e-05,-7.4813e-05,2.16777e-06,-5.52992e-06,-6.10764e-06,-1.6462e-06,0
-3.062e-05,2.45083e-05,-1.24368e-05,-9.28955e-05,2.44959e-06,-7.52724e-06,-8.47223e-06,-5.68029e-07,0
-3.34934e-05,2.16361e-05,-1.54301e-05,-9.38583e-05,6.1628e-06,-1.45473e-05,-1.36024e-05,-1.83536e-07,0
-3.91542e-05,1.97536e-05,-1.9357e-05,-8.25401e-05,1.08466e-05,-2.10292e-05,-3.13184e-05,-8.23767e-07,0
-4.56041e-05,1.88731e-05,-2.016e-05,-6.89711e-05,1.26584e-05,-2.37733e-05,-6.9656e-05,-1.51945e-06,0
-4.76081e-05,1.76965e-05,-1.82816e-05,-4.92663e-05,1.29235e-05,-2.32826e-05,-0.0001033,-1.3847e-06,0
-4.42621e-05,1.54687e-05,-1.6095e-05,-1.50892e-05,1.50981e-05,-1.91231e-05,-9.45385e-05,-3.89286e-07,0
-3.89877e-05,1.19896e-05,-1.52275e-05,1.38568e-05,1.76529e-05,-1.33265e-05,-5.25806e-05,-2.89723e-07,0
-3.49826e-05,1.09839e-05,-1.54486e-05,1.30208e-05,1.77678e-05,-8.76647e-06,-3.38206e-06,1.49057e-07,0
-3.33706e-05,1.50007e-05,-1.47793e-05,-2.45919e-06,1.89581e-05,-3.8474e-06,3.17073e-05,1.57022e-06,0
-3.2164e-05,2.09273e-05,-1.31002e-05,-2.38976e-06,2.47446e-05,-1.44277e-06,4.93984e-05,-8.12311e-08,0
-3.06806e-05,2.54178e-05,-1.15214e-05,1.44166e-05,3.26396e-05,-9.90638e-06,6.03144e-05,3.8762e-07,0
-2.86714e-05,2.66983e-05,-9.67645e-06,3.09671e-05,3.75843e-05,-1.78398e-05,6.30543e-05,4.02117e-06,0
-2.65285e-05,2.69343e-05,-7.66734e-06,3.63706e-05,3.70397e-05,-4.62733e-06,6.00772e-05,6.42916e-06,0
-2.69244e-05,2.76286e-05,-6.34052e-06,3.31609e-05,3.37077e-05,7.54954e-06,5.44256e-05,7.89445e-06,0
-3.0619e-05,2.80415e-05,-5.19121e-06,3.31092e-05,3.26369e-05,-3.59022e-06,5.45806e-05,8.02977e-06,0
-3.41093e-05,2.85514e-05,-3.89977e-06,3.68177e-05,3.44777e-05,-1.90159e-05,5.81105e-05,7.86175e-06,0
-3.53543e-05,2.7654e-05,-3.02367e-06,3.32438e-05,3.44214e-05,-2.11374e-05,5.91977e-05,7.09047e-06,0
-3.44785e-05,2.64962e-05,-2.80949e-06,2.29458e-05,3.0922e-05,-1.48896e-05,5.54757e-05,5.01459e-06,0
-3.31006e-05,2.60026e-05,-3.04271e-06,1.67028e-05,2.54576e-05,-1.05043e-05,5.07489e-05,3.44873e-06,0
-3.22461e-05,2.47333e-05,-4.33914e-06,1.86542e-05,2.07163e-05,-1.09131e-05,4.72907e-05,3.69922e-06,0
-2.98842e-05,2.10357e-05,-5.01531e-06,2.81209e-05,1.83077e-05,-1.43861e-05,4.12981e-05,4.39384e-06,0
-2.57363e-05,1.71302e-05,-5.37134e-06,3.90371e-05,1.69763e-05,-1.67085e-05,2.49075e-05,3.47643e-06,0
-2.03666e-05,1.55876e-05,-6.58642e-06,4.34123e-05,1.36109e-05,-1.71581e-05,-1.73034e-06,2.32879e-06,0
-1.61731e-05,1.59072e-05,-8.26543e-06,4.43702e-05,8.72112e-06,-2.18186e-05,-2.98913e-05,2.71367e-06,0
-1.5847e-05,1.59887e-05,-8.72387e-06,5.2519e-05,6.97762e-06,-3.54029e-05,-7.92599e-05,3.79642e-06,0
-1.92253e-05,1.4731e-05,-6.01182e-06,6.80336e-05,8.41584e-06,-4.5213e-05,-0.000156192,3.36814e-06,0
-2.39048e-05,1.31378e-05,-1.11637e-06,7.70616e-05,1.11716e-05,-3.18947e-05,-0.000184914,1.54595e-06,0
-2.61592e-05,1.26786e-05,1.5e-06,7.17317e-05,1.55499e-05,-3.29224e-06,-9.49051e-05,2.99808e-07,0
-2.47809e-05,1.24275e-05,4.68654e-07,5.60905e-05,2.14903e-05,1.15504e-05,6.16713e-05,5.41053e-07,0
-2.34407e-05,1.01811e-05,-5.7515e-07,3.0776e-05,2.4684e-05,8.73821e-06,0.000178767,1.57317e-06,0
-2.31785e-05,6.9397e-06,-7.77681e-09,-9.42193e-06,2.16563e-05,2.7373e-06,0.000211616,3.73647e-06,0
-2.31546e-05,5.66299e-06,2.35583e-07,-5.87639e-05,1.61254e-05,-1.46152e-06,0.000194508,5.48063e-06,0
-2.61559e-05,5.23997e-06,-3.59275e-06,-9.40839e-05,1.38123e-05,-3.70275e-06,0.000167745,4.53924e-06,0
-2.93474e-05,2.49751e-06,-8.25149e-06,-9.95126e-05,1.22418e-05,-3.69114e-06,0.000138106,2.73311e-06,0
-3.09241e-05,-1.9047e-06,-8.67197e-06,-8.10578e-05,9.74193e-06,-1.2047e-06,9.35324e-05,2.62267e-06,0
-3.116e-05,-6.6892e-06,-5.67206e-06,-5.74797e-05,1.07422e-05,-1.86172e-06,4.44439e-05,4.08373e-06,0
-3.02029e-05,-8.74628e-06,-4.81083e-06,-4.62798e-05,1.10796e-05,-1.06957e-05,1.11112e-05,3.23503e-06,0
-2.90227e-05,-8.40017e-06,-6.44446e-06,-5.46926e-05,9.01347e-06,-2.27806e-05,3.76259e-06,1.66569e-06,0
-2.78911e-05,-5.83669e-06,-6.16463e-06,-7.18375e-05,1.00182e-05,-2.8119e-05,1.44403e-05,2.81869e-06,0
-2.81319e-05,-2.57011e-06,-4.87494e-06,-7.92415e-05,1.29629e-05,-2.5685e-05,1.06794e-05,3.95891e-06,0
-2.92803e-05,-1.60753e-06,-6.20073e-06,-8.06393e-05,1.2513e-05,-2.35685e-05,-1.20251e-05,2.80011e-06,0
-2.91541e-05,-2.11075e-06,-8.86074e-06,-7.62002e-05,9.35993e-06,-2.33814e-05,-3.32747e-05,2.61653e-07,0
-2.9559e-05,-4.51203e-06,-9.53726e-06,-6.42176e-05,1.02792e-05,-2.34974e-05,-3.80126e-05,-1.51971e-06,0
-3.20033e-05,-8.53483e-06,-9.77006e-06,-5.16174e-05,1.11305e-05,-2.26899e-05,-3.00288e-05,-2.27827e-06,0
-3.42458e-05,-1.19578e-05,-1.05917e-05,-4.20695e-05,8.58238e-06,-2.1398e-05,-1.81449e-05,-4.19011e-06,0
-3.50848e-05,-1.25153e-05,-1.11132e-05,-2.52849e-05,5.07502e-06,-2.04541e-05,-7.18607e-06,-5.74767e-06,0
-3.3378e-05,-1.05451e-05,-9.67389e-06,1.01757e-05,4.23066e-06,-1.95263e-05,1.35701e-06,-3.86284e-06,0
-3.22377e-05,-7.48091e-06,-6.67619e-06,5.2062e-05,8.95155e-06,-1.92761e-05,6.91633e-06,7.933e-07,0
-3.34224e-05,-4.65556e-06,-3.4537e-06,7.58659e-05,1.86914e-05,-1.86387e-05,9.09295e-06,4.98351e-06,0
-3.58763e-05,-3.09354e-06,-2.37716e-06,6.75007e-05,2.69198e-05,-1.84433e-05,9.69081e-06,6.26572e-06,0
-3.75095e-05,-2.67658e-06,-5.32819e-06,4.11305e-05,2.49695e-05,-1.98784e-05,1.07165e-05,5.54362e-06,0
-3.69577e-05,-2.02937e-06,-9.82879e-06,2.0757e-05,1.65793e-05,-2.19059e-05,1.12436e-05,4.40406e-06,0
-3.47072e-05,-1.12813e-06,-1.14743e-05,1.76253e-05,1.06026e-05,-2.21396e-05,1.16422e-05,3.79497e-06,0
-3.31482e-05,-1.03121e-06,-9.74363e-06,2.34016e-05,1.21433e-05,-2.05185e-05,1.65997e-05,3.88234e-06,0
-3.35192e-05,-1.36502e-06,-7.63776e-06,2.8463e-05,1.85693e-05,-1.85115e-05,2.48885e-05,4.07286e-06,0
-3.37486e-05,-9.72099e-08,-6.73679e-06,2.52956e-05,2.43892e-05,-1.68128e-05,3.26706e-05,3.60848e-06,0
-3.25494e-05,2.44288e-06,-6.99675e-06,1.56823e-05,2.47383e-05,-1.67418e-05,4.30243e-05,3.55298e-06,0
-3.0942e-05,2.43146e-06,-7.97e-06,9.19619e-06,2.02681e-05,-1.84325e-05,5.91611e-05,3.26401e-06,0
-3.03097e-05,1.48925e-07,-1.04146e-05,7.21548e-06,1.47453e-05,-1.89446e-05,6.38661e-05,2.68399e-06,0
-3.12896e-05,-1.64159e-06,-1.22848e-05,7.67564e-06,1.17729e-05,-1.70616e-05,4.26158e-05,1.58636e-06,0
-3.26597e-05,-1.41273e-06,-1.26775e-05,9.68447e-06,1.06918e-05,-1.3894e-05,7.75983e-06,-9.32046e-07,0
-3.20829e-05,2.01785e-06,-1.40467e-05,1.22768e-05,1.02019e-05,-1.19792e-05,-2.12344e-05,-1.37335e-06,0
-3.09781e-05,7.66236e-06,-1.49736e-05,1.25654e-05,9.48292e-06,-1.02954e-05,-3.87526e-05,1.48453e-06,0
-3.01859e-05,1.15885e-05,-1.46328e-05,8.73968e-06,6.65938e-06,-8.2638e-06,-4.9347e-05,3.2095e-06,0
-3.05017e-05,1.2917e-05,-1.42381e-05,3.13551e-06,3.96122e-06,-6.93484e-06,-5.19769e-05,1.75443e-06,0
-3.04462e-05,1.52416e-05,-1.32296e-05,-2.23764e-06,4.37601e-06,-5.69947e-06,-4.39097e-05,-1.00114e-06,0
-2.96718e-05,1.82434e-05,-1.14019e-05,-9.8025e-06,5.7373e-06,-4.8887e-06,-2.85925e-05,-2.16587e-06,0
-2.76303e-05,1.97908e-05,-9.0194e-06,-1.91031e-05,4.73773e-06,-3.47491e-06,-1.00408e-05,-2.75368e-07,0
-2.48899e-05,2.1567e-05,-6.11133e-06,-2.24665e-05,5.85144e-06,-2.68181e-06,5.75448e-06,7.87338e-07,0
-2.4275e-05,2.51451e-05,-3.77029e-06,-1.86476e-05,1.30469e-05,-2.03666e-06,1.50085e-05,-7.68607e-08,0
-2.5536e-05,2.70342e-05,-3.57227e-06,-1.36128e-05,2.02702e-05,-2.27201e-06,1.73405e-05,2.87881e-08,0
-2.74416e-05,2.61959e-05,-4.56425e-06,-1.01068e-05,2.12322e-05,-3.45001e-06,1.43752e-05,1.85521e-06,0
-2.95789e-05,2.40519e-05,-5.7058e-06,-8.91776e-06,1.78746e-05,-4.38951e-06,9.0269e-06,2.29828e-06,0
-3.17611e-05,2.10197e-05,-6.67145e-06,-1.00817e-05,1.24082e-05,-5.91473e-06,5.08635e-06,6.60932e-07,0
-3.31185e-05,1.79013e-05,-7.20832e-06,-1.1544e-05,7.61283e-06,-7.27469e-06,5.13545e-06,-7.58254e-07,0
-3.32997e-05,1.61741e-05,-7.55989e-06,-9.73976e-06,5.61921e-06,-8.03306e-06,1.01549e-05,-1.26201e-06,0
-3.13564e-05,1.82287e-05,-7.83739e-06,-6.74017e-06,6.23208e-06,-8.33028e-06,1.73637e-05,-1.19537e-06,0
-2.8656e-05,2.35628e-05,-7.83063e-06,-6.54871e-06,7.18414e-06,-8.44694e-06,1.05907e-05,-1.04454e-06,0
-2.75474e-05,2.9507e-05,-8.69843e-06,-9.77431e-06,6.27901e-06,-8.04306e-06,-3.16642e-05,-1.53021e-06,0
-2.82916e-05,3.4143e-05,-9.93716e-06,-1.22195e-05,2.70802e-06,-8.12198e-06,-0.0001058,-3.13306e-06,0
-2.8429e-05,3.68821e-05,-9.50895e-06,-1.11568e-05,-2.10262e-06,-1.00495e-05,-0.000160097,-4.00228e-06,0
-2.82794e-05,3.72217e-05,-8.19327e-06,-8.37769e-06,-4.05111e-06,-1.22943e-05,-0.000144783,-3.25635e-06,0
-2.82883e-05,3.75633e-05,-6.66556e-06,-6.81034e-06,-3.58308e-09,-1.28516e-05,-7.16442e-05,-1.82093e-06,0
-2.8907e-05,3.84382e-05,-6.5564e-06,-5.38078e-06,6.56005e-06,-1.20044e-05,1.46815e-05,-1.22253e-06,0
-3.25369e-05,3.75233e-05,-8.39717e-06,-3.65206e-06,9.38397e-06,-9.19747e-06,8.5028e-05,-1.51152e-06,0
-3.70029e-05,3.33043e-05,-1.08676e-05,-3.86675e-06,9.39929e-06,-4.82667e-06,0.00012461,-1.83264e-06,0
-3.77798e-05,2.67675e-05,-1.30294e-05,-7.97509e-06,9.41482e-06,-8.68884e-07,0.000122547,-1.93889e-06,0
-3.53706e-05,1.91744e-05,-1.419e-05,-1.21593e-05,1.16185e-05,1.72259e-06,7.86148e-05,-2.9631e-06,0
-3.23875e-05,9.79707e-06,-1.33696e-05,-1.30134e-05,1.76504e-05,1.40198e-06,2.16049e-05,-5.83064e-06,0
-2.63977e-05,2.33987e-06,-1.16897e-05,-1.36809e-05,2.0042e-05,-3.24088e-07,7.02688e-07,-7.56902e-06,0
-1.82513e-05,-1.38648e-06,-1.0151e-05,-1.34274e-05,1.71269e-05,-8.13037e-08,2.20718e-05,-5.97672e-06,0
-1.34648e-05,-2.85008e-06,-8.69367e-06,-1.14615e-05,1.61004e-05,2.38302e-06,5.12971e-05,-4.35973e-06,0
-1.32346e-05,-1.84204e-06,-7.40795e-06,-8.97945e-06,1.49925e-05,3.68786e-06,6.51723e-05,-5.14419e-06,0
-1.70965e-05,-1.20871e-06,-6.49332e-06,-7.06254e-06,1.31404e-05,1.48448e-06,6.09147e-05,-6.77158e-06,0
-2.23504e-05,6.96129e-07,-5.46674e-06,-6.89545e-06,1.146e-05,-2.89062e-06,6.0917e-05,-6.95238e-06,0
-2.75888e-05,5.75595e-06,-1.77237e-06,-8.03382e-06,1.05243e-05,-9.90734e-06,7.81769e-05,-4.91121e-06,0
-3.26462e-05,1.05512e-05,1.03437e-06,-5.49909e-06,1.01599e-05,-1.91306e-05,0.000101951,-3.46062e-06,0
-3.62717e-05,1.39875e-05,6.40161e-07,1.53627e-06,1.06583e-05,-2.55724e-05,0.00011955,-3.69014e-06,0
-3.94092e-05,1.70302e-05,-1.48542e-06,7.04987e-06,1.23865e-05,-2.62405e-05,0.000126945,-2.97576e-06,0
-4.24101e-05,1.83675e-05,-4.11776e-06,6.68679e-06,1.17478e-05,-2.34238e-05,0.000113962,-8.59558e-07,0
-4.49424e-05,1.69929e-05,-6.5071e-06,2.83625e-06,7.90823e-06,-2.20266e-05,7.52223e-05,9.68818e-07,0
-4.59393e-05,1.76176e-05,-7.7487e-06,1.19708e-06,4.57447e-06,-2.28498e-05,2.47082e-05,9.41701e-07,0
-4.5052e-05,2.3476e-05,-6.90133e-06,2.59572e-06,6.64249e-06,-2.25301e-05,-1.66449e-05,-3.4435e-07,0
-4.09416e-05,3.1877e-05,-5.1195e-06,3.05605e-06,1.21299e-05,-1.98565e-05,-3.39319e-05,-1.27242e-06,0
-3.4608e-05,3.74093e-05,-4.19085e-06,-1.51317e-06,1.49353e-05,-1.59481e-05,-2.70455e-05,-1.68816e-06,0
-2.79409e-05,3.85398e-05,-5.73528e-06,-1.05441e-05,1.28978e-05,-1.02729e-05,-6.3109e-06,-1.37065e-06,0
-2.09437e-05,3.57505e-05,-8.00822e-06,-1.5427e-05,1.09467e-05,-6.13079e-07,1.00659e-05,5.26704e-07,0
-1.60275e-05,2.93344e-05,-8.78666e-06,-8.27433e-06,1.3068e-05,7.52983e-06,1.16995e-05,2.78373e-06,0
-1.81701e-05,2.0211e-05,-8.16958e-06,4.57559e-06,1.74268e-05,6.48325e-06,2.19716e-06,4.18104e-06,0
-2.70357e-05,9.51141e-06,-8.24196e-06,1.19852e-05,2.0382e-05,-1.00463e-06,-4.7118e-06,5.54964e-06,0
-3.30127e-05,-1.54827e-06,-9.69317e-06,1.48905e-05,2.03214e-05,-8.14136e-06,-7.7044e-06,5.48371e-06,0
-3.01218e-05,-9.30303e-06,-1.08573e-05,1.74756e-05,1.77451e-05,-1.22244e-05,-1.33797e-05,4.27045e-06,0
-2.57834e-05,-1.21048e-05,-1.02833e-05,1.54158e-05,1.40304e-05,-1.36227e-05,-2.37393e-05,3.18713e-06,0
-2.56586e-05,-1.10768e-05,-9.96722e-06,5.31466e-06,1.1638e-05,-1.26099e-05,-3.59415e-05,1.94113e-06,0
-2.65921e-05,-7.80009e-06,-1.10491e-05,-7.55972e-06,1.28672e-05,-9.89041e-06,-4.67834e-05,1.61888e-06,0
-2.7176e-05,-6.80176e-06,-1.2901e-05,-1.35021e-05,1.71312e-05,-6.57322e-06,-5.48234e-05,3.23047e-06,0
-2.98367e-05,-6.94949e-06,-1.41748e-05,-9.81959e-06,1.98628e-05,-5.39203e-06,-5.32392e-05,4.94449e-06,0
-3.41579e-05,-5.18021e-06,-1.23943e-05,-1.99084e-06,1.99824e-05,-5.804e-06,-4.5104e-05,5.18395e-06,0
-3.34596e-05,7.4732e-07,-7.53679e-06,4.57354e-06,1.98413e-05,-6.47355e-06,-4.36563e-05,4.1096e-06,0
-3.02675e-05,9.08602e-06,-3.81529e-06,4.19356e-06,1.92186e-05,-1.0448e-05,-4.84265e-05,3.6449e-06,0
-2.99246e-05,1.4659e-05,-4.04921e-06,-5.70956e-06,1.93296e-05,-1.56543e-05,-5.15218e-05,5.44877e-06,0
-3.12497e-05,1.56631e-05,-6.4735e-06,-2.08562e-05,2.01897e-05,-2.30502e-05,-4.52757e-05,7.1919e-06,0
-3.1798e-05,1.34946e-05,-9.0175e-06,-3.72461e-05,1.84376e-05,-2.73217e-05,-3.48839e-05,6.55505e-06,0
-3.05852e-05,1.31203e-05,-1.00592e-05,-5.52018e-05,1.387e-05,-1.38551e-05,-2.71179e-05,3.62871e-06,0
-2.85911e-05,1.59637e-05,-8.12591e-06,-6.74716e-05,8.31697e-06,1.32663e-05,-1.76185e-05,1.6566e-06,0
-2.68305e-05,1.96812e-05,-4.712e-06,-6.45233e-05,5.96317e-06,3.34707e-05,-5.06205e-06,2.21684e-06,0
-2.68124e-05,2.15888e-05,-3.36e-06,-5.12948e-05,9.36064e-06,3.31944e-05,6.0951e-06,4.84182e-06,0
-2.58602e-05,2.21807e-05,-4.95945e-06,-3.89753e-05,1.42834e-05,1.98898e-05,1.33095e-05,6.80092e-06,0
-2.34547e-05,2.38115e-05,-7.36265e-06,-3.21242e-05,1.65507e-05,7.6216e-06,9.42902e-06,5.95868e-06,0
-2.31992e-05,2.5428e-05,-8.06624e-06,-2.69056e-05,1.65605e-05,9.21205e-07,-1.7414e-05,3.67065e-06,0
-2.69705e-05,2.51085e-05,-7.91944e-06,-1.97174e-05,1.45732e-05,-2.64739e-06,-4.58201e-05,2.12306e-06,0
-3.12665e-05,2.33659e-05,-7.86412e-06,-1.01719e-05,1.12597e-05,-5.09367e-06,-4.10154e-05,1.63322e-06,0
-3.21156e-05,2.11518e-05,-8.00948e-06,-5.25458e-07,9.57817e-06,-7.08643e-06,-2.00439e-05,2.79539e-07,0
-3.05798e-05,1.79986e-05,-8.37182e-06,5.58928e-06,1.11414e-05,-9.33032e-06,-4.30054e-05,-1.58781e-06,0
-3.00322e-05,1.42051e-05,-9.03453e-06,7.31603e-06,1.45498e-05,-1.05268e-05,-0.000101674,-3.28219e-06,0
-3.1303e-05,1.12158e-05,-9.45998e-06,6.67617e-06,1.71518e-05,-9.30924e-06,-0.000101654,-4.54587e-06,0
-3.19891e-05,1.11502e-05,-9.26158e-06,5.49762e-06,1.69159e-05,-7.61635e-06,1.09305e-06,-5.56831e-06,0
-3.16703e-05,1.34574e-05,-9.06251e-06,6.03745e-06,1.41265e-05,-7.65359e-06,0.000129363,-5.98581e-06,0
-3.09728e-05,1.73771e-05,-9.43077e-06,8.31596e-06,1.01011e-05,-8.69954e-06,0.000194991,-5.65238e-06,0
-3.01498e-05,2.14698e-05,-1.09013e-05,8.63688e-06,7.14216e-06,-1.03292e-05,0.00018724,-4.91431e-06,0
-3.01113e-05,2.23245e-05,-1.31245e-05,5.70729e-06,6.89132e-06,-1.14941e-05,0.0001316,-4.54921e-06,0
-3.22256e-05,2.08316e-05,-1.3972e-05,1.08622e-06,5.98693e-06,-1.07602e-05,7.33986e-05,-4.96527e-06,0
-3.43377e-05,1.91308e-05,-1.29376e-05,-2.53835e-06,4.52536e-06,-9.05773e-06,6.35702e-05,-6.73126e-06,0
-3.4074e-05,1.84378e-05,-9.58908e-06,-4.02432e-06,6.11333e-06,-8.76568e-06,9.6075e-05,-7.7004e-06,0
-3.26491e-05,1.8756e-05,-7.97036e-06,-3.74269e-06,9.47899e-06,-1.05174e-05,0.000141664,-6.40812e-06,0
-3.0357e-05,1.86877e-05,-1.00538e-05,-4.64153e-06,1.05321e-05,-1.3024e-05,0.00017887,-4.44408e-06,0
-2.8088e-05,1.90702e-05,-1.11553e-05,-5.90885e-06,9.80672e-06,-1.46908e-05,0.000182613,-7.44757e-07,0
-2.83384e-05,2.05035e-05,-1.10224e-05,-2.88123e-06,9.88233e-06,-1.41646e-05,0.000145781,2.04292e-06,0
-2.90253e-05,2.12716e-05,-1.01167e-05,2.8531e-06,9.57562e-06,-1.33361e-05,8.57547e-05,2.9232e-06,0
-2.85688e-05,2.06725e-05,-8.89419e-06,9.21899e-06,9.56617e-06,-1.38153e-05,2.83561e-05,4.26906e-06,0
-2.86648e-05,1.93144e-05,-7.93492e-06,1.39565e-05,1.07506e-05,-1.41131e-05,-8.19444e-06,5.87904e-06,0
-2.93423e-05,1.77547e-05,-8.93983e-06,1.34013e-05,1.23622e-05,-1.39971e-05,-1.57724e-05,6.50053e-06,0
-2.93841e-05,1.71075e-05,-1.11546e-05,1.04806e-05,1.39901e-05,-1.33318e-05,-3.21214e-06,5.64779e-06,0
-2.93302e-05,1.73745e-05,-1.3415e-05,7.32666e-06,1.4861e-05,-1.19154e-05,1.65041e-05,4.71037e-06,0
-3.03487e-05,1.77732e-05,-1.46074e-05,5.37285e-06,1.41783e-05,-1.10047e-05,3.17873e-05,4.43274e-06,0
-3.04627e-05,1.82466e-05,-1.41064e-05,7.69181e-06,1.43202e-05,-1.03407e-05,3.58725e-05,4.39469e-06,0
-2.91504e-05,1.83566e-05,-1.23886e-05,1.08677e-05,1.63419e-05,-9.1918e-06,2.66315e-05,4.33021e-06,0
-2.83917e-05,1.70153e-05,-1.01891e-05,8.02819e-06,1.59401e-05,-8.99287e-06,1.0764e-05,4.58003e-06,0
-2.92293e-05,1.44595e-05,-8.3586e-06,2.45654e-06,1.31855e-05,-1.01317e-05,-3.32103e-06,3.59284e-06,0
-3.08302e-05,1.27607e-05,-6.8706e-06,-7.00837e-07,1.26899e-05,-1.12031e-05,-1.26005e-05,3.37462e-07,0
-3.18634e-05,1.33e-05,-6.63326e-06,-6.11625e-06,1.45564e-05,-1.14368e-05,-1.86855e-05,-2.4069e-06,0
-3.14408e-05,1.43007e-05,-7.08818e-06,-1.50414e-05,1.4137e-05,-1.09188e-05,-2.38123e-05,-2.28723e-06,0
-3.09295e-05,1.35189e-05,-6.7144e-06,-1.99359e-05,1.12094e-05,-1.06317e-05,-3.01311e-05,-1.10741e-06,0
-3.17754e-05,1.3065e-05,-5.19117e-06,-1.55092e-05,1.01404e-05,-1.20221e-05,-3.85391e-05,-3.56683e-07,0
-3.24484e-05,1.54616e-05,-5.61506e-06,-6.89619e-06,1.17992e-05,-1.36711e-05,-4.44057e-05,1.18831e-06,0
-3.19257e-05,1.82254e-05,-8.64999e-06,1.1616e-06,1.4139e-05,-1.42269e-05,-4.98216e-05,2.42169e-06,0
-3.13182e-05,1.7541e-05,-1.07373e-05,9.41314e-06,1.69933e-05,-1.42923e-05,-6.0873e-05,1.83166e-06,0
-3.07015e-05,1.2862e-05,-9.42018e-06,1.91659e-05,1.89028e-05,-1.26738e-05,-7.3174e-05,6.7536e-07,0
-2.89416e-05,7.60093e-06,-7.8862e-06,3.07364e-05,1.85713e-05,-9.98614e-06,-7.20308e-05,1.26078e-06,0
-2.68686e-05,2.80504e-06,-7.61729e-06,4.05048e-05,1.78312e-05,-9.5334e-06,-5.76921e-05,3.34787e-06,0
-2.73322e-05,-2.00035e-06,-5.92292e-06,3.76807e-05,1.63108e-05,-1.08153e-05,-4.51226e-05,3.1458e-06,0
-2.94652e-05,-2.01017e-06,-4.29261e-06,2.56316e-05,1.34451e-05,-1.04425e-05,-3.76411e-05,1.37587e-06,0
-2.79417e-05,2.94975e-06,-4.94191e-06,1.4845e-05,1.22369e-05,-7.32634e-06,-3.00207e-05,2.35046e-06,0
-2.37193e-05,7.82967e-06,-7.40194e-06,7.40917e-06,1.35048e-05,-4.29914e-06,-2.01963e-05,5.98236e-06,0
-2.18038e-05,1.06284e-05,-9.66382e-06,2.79807e-06,1.42505e-05,-4.09007e-06,-1.11377e-05,8.29684e-06,0
-2.26684e-05,1.20535e-05,-1.00676e-05,-2.16487e-06,1.30524e-05,-6.56723e-06,-5.47585e-06,7.00979e-06,0
