ch1,ch2,ch3,ch4,ch5,ch6,ch7,ch8,class
-2.28496e-05,-8.94727e-05,-1.07309e-05,9.98033e-06,1.65881e-05,-4.62931e-06,1.53014e-05,2.89172e-06,0
-2.58935e-05,-9.26602e-05,-1.10994e-05,1.60468e-06,1.61901e-05,-5.86097e-06,1.78418e-05,4.38234e-06,0
-3.07023e-05,-8.52689e-05,-1.21384e-05,-4.62991e-06,1.65287e-05,-8.32661e-06,1.83147e-05,3.83607e-06,0
-3.37384e-05,-7.75783e-05,-1.36011e-05,-6.61687e-06,1.71779e-05,-9.75624e-06,1.66251e-05,1.2803e-06,0
-3.3945e-05,-7.43088e-05,-1.31667e-05,-6.54252e-06,1.61131e-05,-1.02107e-05,1.29679e-05,-5.59932e-07,0
-3.31312e-05,-6.52039e-05,-1.10751e-05,-7.3168e-06,1.55586e-05,-8.66153e-06,9.82927e-06,3.39843e-07,0
-3.34018e-05,-4.04863e-05,-8.98244e-06,-9.10759e-06,1.54084e-05,-5.57517e-06,8.33553e-06,9.44592e-07,0
-3.35994e-05,-8.66618e-06,-8.98728e-06,-9.4046e-06,1.64411e-05,-3.66005e-06,7.34468e-06,-3.33154e-07,0
-3.27975e-05,1.45963e-05,-9.41894e-06,-7.87376e-06,1.68026e-05,-2.57387e-06,7.88294e-06,-1.43756e-06,0
-3.27448e-05,2.54204e-05,-9.14073e-06,-4.57385e-06,1.58779e-05,-3.34567e-06,9.46161e-06,-2.00657e-06,0
-3.35663e-05,2.87863e-05,-7.49509e-06,1.45397e-06,1.44829e-05,-3.95402e-06,1.00115e-05,-1.29356e-06,0
-3.43774e-05,2.96006e-05,-4.66889e-06,6.2846e-06,1.21816e-05,-3.31207e-06,9.1051e-06,-7.26554e-07,0
-3.48884e-05,2.83208e-05,-3.4417e-06,7.5126e-06,9.77071e-06,-2.77878e-06,8.48431e-06,-1.04087e-06,0
-3.56002e-05,2.89237e-05,-5.93176e-06,6.12215e-06,8.79981e-06,-3.21875e-06,9.19542e-06,-2.57389e-06,0
-3.66396e-05,4.06357e-05,-9.8111e-06,4.32615e-06,9.97007e-06,-4.47527e-06,1.05834e-05,-3.34596e-06,0
-3.67577e-05,5.94918e-05,-1.22993e-05,2.53004e-06,1.22717e-05,-5.24165e-06,1.06669e-05,-2.52569e-06,0
-3.54823e-05,7.10263e-05,-1.39592e-05,2.34457e-06,1.60825e-05,-4.05707e-06,9.46782e-06,-1.94376e-06,0
-3.31317e-05,6.7535e-05,-1.58328e-05,3.91117e-06,2.04654e-05,-2.22016e-06,9.39907e-06,-2.72345e-06,0
-3.03926e-05,5.0502e-05,-1.68098e-05,5.99439e-06,2.20285e-05,-3.14482e-06,1.12411e-05,-3.67252e-06,0
-2.89575e-05,2.28157e-05,-1.61099e-05,6.67592e-06,1.74636e-05,-4.94498e-06,1.28321e-05,-4.18027e-06,0
-2.9847e-05,-9.13387e-06,-1.5342e-05,6.44051e-06,1.05096e-05,-5.76231e-06,1.302e-05,-4.36341e-06,0
-3.1339e-05,-3.72221e-05,-1.52184e-05,5.28234e-06,5.69792e-06,-5.2237e-06,1.11971e-05,-3.98449e-06,0
-3.23577e-05,-4.96681e-05,-1.51574e-05,1.22466e-06,3.93187e-06,-4.76642e-06,9.25486e-06,-2.86875e-06,0
-3.2863e-05,-3.6007e-05,-1.41096e-05,-4.83828e-06,4.4067e-06,-4.11122e-06,9.15603e-06,-1.51771e-06,0
-3.23819e-05,-2.29347e-06,-1.40769e-05,-9.64562e-06,5.61218e-06,-2.35459e-06,1.01275e-05,-1.19534e-06,0
-3.12125e-05,2.82124e-05,-1.41216e-05,-1.14453e-05,6.37876e-06,-3.37391e-06,1.10716e-05,-1.15774e-06,0
-3.22909e-05,4.19737e-05,-1.20051e-05,-9.48467e-06,7.88255e-06,-5.45963e-06,1.01297e-05,3.14302e-07,0
-3.45269e-05,4.26089e-05,-1.00927e-05,-5.55915e-06,1.13922e-05,-5.59898e-06,8.0083e-06,1.0881e-06,0
-3.50651e-05,3.8844e-05,-8.55423e-06,-1.2242e-06,1.4739e-05,-5.2422e-06,8.07666e-06,-2.77658e-06,0
-3.37569e-05,3.29883e-05,-7.35249e-06,4.04702e-07,1.71582e-05,-5.67813e-06,1.09016e-05,-6.65485e-06,0
-3.0087e-05,2.2892e-05,-8.49951e-06,-1.70672e-06,2.03045e-05,-6.19496e-06,1.38778e-05,-6.58202e-06,0
-2.8713e-05,1.14193e-05,-9.58019e-06,-5.78688e-06,2.49273e-05,-6.06102e-06,1.4629e-05,-4.28221e-06,0
-2.98611e-05,3.8966e-06,-8.1934e-06,-9.68295e-06,2.81743e-05,-6.0589e-06,1.29341e-05,-1.70185e-06,0
-3.12276e-05,3.18418e-06,-7.47751e-06,-6.66786e-06,2.85718e-05,-6.3334e-06,1.11665e-05,-1.14555e-06,0
-3.29434e-05,4.3209e-06,-8.96198e-06,2.65738e-06,2.73706e-05,-7.06762e-06,1.05343e-05,-2.77817e-06,0
-3.43217e-05,6.99811e-06,-1.16089e-05,1.30357e-05,2.42612e-05,-7.85226e-06,1.09647e-05,-3.08769e-06,0
-3.42479e-05,1.15228e-05,-1.35041e-05,1.88292e-05,2.15195e-05,-8.67535e-06,1.02242e-05,-7.39685e-07,0
-3.32826e-05,1.70309e-05,-1.37446e-05,1.95244e-05,2.13582e-05,-8.82835e-06,7.54819e-06,2.42783e-06,0
-3.33148e-05,2.34194e-05,-1.28522e-05,1.66951e-05,2.08647e-05,-7.4831e-06,5.58209e-06,4.78193e-06,0
-3.3418e-05,2.96569e-05,-1.10548e-05,1.33246e-05,1.95668e-05,-5.51469e-06,5.47234e-06,4.93916e-06,0
-3.25841e-05,3.81838e-05,-9.27678e-06,1.0188e-05,1.89678e-05,-4.34033e-06,6.40838e-06,3.73992e-06,0
-3.13506e-05,5.03493e-05,-7.63405e-06,5.97596e-06,1.86586e-05,-4.22065e-06,8.39069e-06,5.04096e-06,0
-3.04855e-05,6.07655e-05,-6.48053e-06,4.77095e-07,1.78324e-05,-4.55789e-06,1.16002e-05,8.23764e-06,0
-2.97254e-05,6.30503e-05,-6.64701e-06,-5.09247e-06,1.69832e-05,-5.17413e-06,1.3634e-05,9.45395e-06,0
-2.97705e-05,5.77485e-05,-8.27831e-06,-7.6755e-06,1.64569e-05,-6.37246e-06,1.29712e-05,8.0483e-06,0
-3.06704e-05,4.73193e-05,-1.00859e-05,-7.96036e-06,1.57726e-05,-6.91136e-06,1.1803e-05,6.2774e-06,0
-3.08778e-05,3.48722e-05,-1.05093e-05,-8.46107e-06,1.48385e-05,-6.40124e-06,1.20329e-05,6.51382e-06,0
-2.99362e-05,2.44122e-05,-9.75639e-06,-1.17934e-05,1.33986e-05,-8.00257e-06,1.23621e-05,8.00311e-06,0
-2.98767e-05,1.75477e-05,-7.90539e-06,-1.75544e-05,1.19692e-05,-9.97688e-06,1.14756e-05,9.44246e-06,0
-3.01546e-05,9.39255e-06,-5.05494e-06,-2.31747e-05,1.1417e-05,-9.50758e-06,1.00754e-05,1.09779e-05,0
-2.98795e-05,-6.93639e-08,-4.08232e-06,-2.48577e-05,1.04889e-05,-8.66455e-06,1.06489e-05,1.28529e-05,0
-3.08333e-05,-2.87784e-06,-4.43375e-06,-2.26087e-05,7.97665e-06,-1.02712e-05,1.30594e-05,1.34921e-05,0
-3.34529e-05,3.41314e-06,-4.16011e-06,-1.74849e-05,7.06682e-06,-1.39364e-05,1.43141e-05,1.20406e-05,0
-3.50662e-05,1.58157e-05,-4.49642e-06,-4.33248e-06,8.97689e-06,-1.59078e-05,1.30038e-05,1.00134e-05,0
-3.37726e-05,3.38769e-05,-4.69456e-06,1.27034e-05,1.15442e-05,-1.33395e-05,1.11066e-05,1.00735e-05,0
-3.15256e-05,5.87769e-05,-4.82218e-06,2.1356e-05,1.46492e-05,-1.02178e-05,1.10747e-05,1.17538e-05,0
-2.96689e-05,7.77076e-05,-5.13688e-06,1.81533e-05,1.65037e-05,-1.01233e-05,1.17198e-05,1.11207e-05,0
-2.7665e-05,8.20131e-05,-4.6358e-06,6.37995e-06,1.57486e-05,-1.01597e-05,1.21888e-05,8.21216e-06,0
-2.79888e-05,7.40278e-05,-4.38308e-06,-6.61373e-06,1.39176e-05,-9.48366e-06,1.1612e-05,7.23463e-06,0
-2.96883e-05,5.50846e-05,-3.97787e-06,-1.72753e-05,1.22838e-05,-7.78804e-06,1.05847e-05,8.12233e-06,0
-2.97956e-05,3.16387e-05,-2.88348e-06,-2.30046e-05,1.41401e-05,-5.529e-06,1.09688e-05,8.50901e-06,0
-2.98237e-05,7.97264e-06,-2.05871e-06,-2.44734e-05,1.91157e-05,-3.47294e-06,9.7992e-06,8.25418e-06,0
-2.89587e-05,-1.20529e-05,-1.69888e-06,-2.33034e-05,2.26896e-05,-2.10186e-06,8.16082e-06,7.69422e-06,0
-2.77992e-05,-2.8193e-05,-2.51831e-06,-2.3111e-05,2.35942e-05,-8.91331e-07,8.10762e-06,6.66001e-06,0
-2.86851e-05,-3.92787e-05,-2.34379e-06,-2.57272e-05,2.42118e-05,-8.71438e-07,8.93387e-06,6.28865e-06,0
-3.12565e-05,-4.19278e-05,-9.28062e-07,-3.02756e-05,2.51931e-05,-2.47392e-06,1.05215e-05,6.46768e-06,0
-3.2818e-05,-3.56239e-05,-6.2574e-08,-3.55072e-05,2.41176e-05,-4.25316e-06,1.23922e-05,6.31433e-06,0
-3.24148e-05,-2.70131e-05,-2.01176e-06,-3.66653e-05,2.10299e-05,-5.99182e-06,1.42018e-05,5.74309e-06,0
-3.20807e-05,-2.19905e-05,-6.69829e-06,-3.24374e-05,1.8381e-05,-7.90894e-06,1.55409e-05,3.85649e-06,0
-3.2372e-05,-1.77224e-05,-1.10758e-05,-2.33439e-05,1.8277e-05,-1.12977e-05,1.71127e-05,2.14504e-07,0
-3.22099e-05,-1.24687e-05,-1.23388e-05,-1.35061e-05,2.00027e-05,-1.46997e-05,1.89735e-05,-3.42541e-06,0
-3.12509e-05,-8.23876e-06,-1.04631e-05,-6.76493e-06,2.18019e-05,-1.63019e-05,2.0479e-05,-5.01308e-06,0
-2.93018e-05,-7.13597e-06,-8.68734e-06,-3.2503e-06,2.15346e-05,-1.6022e-05,2.06694e-05,-5.12808e-06,0
-2.68967e-05,-7.08973e-06,-7.72064e-06,1.3097e-07,1.8715e-05,-1.53027e-05,2.04129e-05,-4.56218e-06,0
-2.5929e-05,-6.72166e-06,-7.66759e-06,1.36637e-07,1.54875e-05,-1.46508e-05,1.97549e-05,-4.27479e-06,0
-2.71224e-05,-5.44307e-06,-8.27787e-06,-3.44612e-06,1.3619e-05,-1.37523e-05,1.9493e-05,-5.35185e-06,0
-2.86596e-05,-4.54527e-06,-9.24504e-06,-5.43154e-06,1.23639e-05,-1.33278e-05,1.9096e-05,-8.18374e-06,0
-2.9045e-05,-5.23746e-06,-1.08876e-05,-2.9841e-06,9.61784e-06,-1.36769e-05,1.66928e-05,-9.86744e-06,0
-2.89683e-05,-7.39566e-06,-1.29561e-05,7.61839e-07,5.41822e-06,-1.36855e-05,1.47704e-05,-8.3054e-06,0
-3.01313e-05,-8.42925e-06,-1.33523e-05,3.11752e-07,1.75205e-06,-1.36664e-05,1.75905e-05,-4.88444e-06,0
-3.00341e-05,-7.13023e-06,-1.25025e-05,-4.34825e-06,6.30455e-07,-1.24578e-05,3.00667e-05,-2.87755e-06,0
-2.76104e-05,-4.58044e-06,-1.09075e-05,-9.67021e-06,2.0205e-06,-1.07606e-05,4.62946e-05,-3.09823e-06,0
-2.63509e-05,-2.58828e-06,-8.22321e-06,-1.12669e-05,2.17236e-06,-9.23095e-06,5.87243e-05,-4.26048e-06,0
-2.73573e-05,-1.32512e-06,-6.43234e-06,-1.29797e-05,-7.41461e-08,-8.61848e-06,6.95335e-05,-5.7469e-06,0
-2.90084e-05,-6.62467e-07,-7.4766e-06,-1.64393e-05,-3.6249e-06,-9.19063e-06,7.47867e-05,-4.59981e-06,0
-2.95126e-05,4.95323e-07,-8.47544e-06,-1.90797e-05,-5.21791e-06,-9.74307e-06,7.04924e-05,-2.47698e-06,0
-3.02955e-05,6.69749e-06,-7.84247e-06,-2.24983e-05,-2.5831e-06,-1.14593e-05,5.64342e-05,-2.35001e-06,0
-3.05789e-05,1.95437e-05,-9.08239e-06,-2.58309e-05,5.93598e-07,-1.36623e-05,3.32345e-05,-3.53684e-06,0
-2.96484e-05,3.54851e-05,-1.05836e-05,-2.84578e-05,5.55593e-06,-1.56763e-05,4.07828e-06,-5.944e-06,0
-2.80891e-05,4.74968e-05,-1.00567e-05,-3.18927e-05,9.97515e-06,-1.57303e-05,-2.3509e-05,-7.63917e-06,0
-2.74022e-05,5.09322e-05,-9.37129e-06,-3.7631e-05,1.14789e-05,-1.46376e-05,-4.2554e-05,-8.24109e-06,0
-2.83839e-05,4.30388e-05,-1.07959e-05,-4.34049e-05,1.0566e-05,-1.3611e-05,-5.08644e-05,-8.06164e-06,0
-2.93344e-05,2.67475e-05,-1.29589e-05,-4.61008e-05,8.03735e-06,-1.30807e-05,-4.89979e-05,-7.72185e-06,0
-2.9001e-05,7.4936e-06,-1.27548e-05,-4.3124e-05,7.18023e-06,-1.40224e-05,-4.1224e-05,-7.36355e-06,0
-2.80563e-05,-1.29959e-05,-1.10621e-05,-2.94236e-05,1.057e-05,-1.47793e-05,-3.11747e-05,-6.76405e-06,0
-2.83691e-05,-2.96307e-05,-1.08189e-05,-3.94783e-06,1.83644e-05,-1.38555e-05,-2.12266e-05,-6.72518e-06,0
-2.96377e-05,-3.24572e-05,-1.16608e-05,2.39728e-05,2.61704e-05,-1.42969e-05,-1.25306e-05,-6.8092e-06,0
-3.11055e-05,-1.77232e-05,-1.1117e-05,4.08194e-05,2.95132e-05,-1.72217e-05,-7.42943e-06,-5.41668e-06,0
-3.20794e-05,6.12322e-06,-8.11523e-06,4.58489e-05,2.70773e-05,-1.88941e-05,-6.17151e-06,-3.00202e-06,0
-3.22662e-05,2.67845e-05,-4.02242e-06,4.64078e-05,2.30867e-05,-1.66921e-05,-5.02379e-06,-2.10867e-06,0
-3.14012e-05,3.64466e-05,-1.45183e-06,4.41951e-05,2.1442e-05,-1.25992e-05,3.20409e-07,-1.22839e-06,0
-3.02447e-05,3.83988e-05,-1.11096e-06,3.69749e-05,2.05216e-05,-1.02794e-05,8.72992e-06,1.25362e-06,0
-3.04353e-05,4.38304e-05,-2.61308e-06,2.65336e-05,1.67871e-05,-9.95351e-06,1.56026e-05,3.09555e-06,0
-3.147e-05,5.53187e-05,-5.02472e-06,1.56064e-05,1.34222e-05,-9.82724e-06,1.79166e-05,2.59714e-06,0
-3.01232e-05,6.19707e-05,-5.47395e-06,1.2791e-06,1.20629e-05,-1.09357e-05,1.50491e-05,2.48137e-06,0
-2.80218e-05,5.35636e-05,-3.46478e-06,-2.52552e-05,9.83893e-06,-1.41095e-05,1.0019e-05,2.81887e-06,0
-2.86308e-05,3.56399e-05,-1.62956e-06,-6.00105e-05,8.16235e-06,-1.81161e-05,6.96891e-06,2.28364e-06,0
-3.08352e-05,1.90811e-05,-2.64525e-06,-9.12338e-05,1.0452e-05,-2.25969e-05,7.63274e-06,1.0094e-06,0
-3.11001e-05,8.02489e-06,-6.74202e-06,-0.000106659,1.01017e-05,-2.88485e-05,8.7498e-06,6.9966e-07,0
-2.94496e-05,3.06038e-06,-1.01517e-05,-0.000103692,3.44941e-06,-2.99831e-05,8.6859e-06,3.35638e-06,0
-2.76752e-05,8.47516e-06,-1.12874e-05,-9.34978e-05,-3.89928e-06,-1.23362e-05,9.60605e-06,6.39848e-06,0
-2.57436e-05,3.00973e-05,-1.08432e-05,-8.18899e-05,-5.3098e-06,1.62687e-05,1.14156e-05,8.59188e-06,0
-2.61845e-05,5.28093e-05,-1.13714e-05,-7.26544e-05,1.72527e-06,3.0706e-05,1.36908e-05,1.2069e-05,0
-2.67399e-05,6.17764e-05,-1.33836e-05,-5.70017e-05,9.69854e-06,2.35578e-05,1.55338e-05,1.5186e-05,0
-2.49672e-05,6.67807e-05,-1.29213e-05,-2.52742e-05,1.57661e-05,1.3199e-05,1.59421e-05,1.55587e-05,0
-2.4224e-05,6.91062e-05,-1.02205e-05,1.77488e-05,1.80416e-05,1.03865e-05,1.61438e-05,1.35871e-05,0
-2.58409e-05,5.60874e-05,-7.54179e-06,5.6872e-05,1.56724e-05,1.06116e-05,1.62908e-05,1.02208e-05,0
-2.88066e-05,2.63359e-05,-4.96792e-06,8.17557e-05,1.12687e-05,1.00443e-05,1.61045e-05,7.46839e-06,0
-3.14726e-05,-9.19416e-06,-9.6497e-07,8.52896e-05,8.75996e-06,9.13337e-06,1.58576e-05,6.3762e-06,0
-3.20263e-05,-3.89846e-05,4.51899e-06,6.59623e-05,1.06588e-05,9.20958e-06,1.61629e-05,6.89878e-06,0
-3.02615e-05,-5.34966e-05,9.28196e-06,3.53318e-05,1.58822e-05,1.00559e-05,1.6611e-05,8.49339e-06,0
-2.833e-05,-4.70977e-05,1.08364e-05,1.01155e-05,2.27962e-05,1.08673e-05,1.59665e-05,9.35771e-06,0
-2.80064e-05,-2.17142e-05,9.11918e-06,3.00843e-06,2.92475e-05,1.15598e-05,1.4304e-05,8.17315e-06,0
-2.99983e-05,1.37103e-05,5.52722e-06,1.33771e-05,3.25662e-05,1.19872e-05,1.35234e-05,6.95886e-06,0
-3.48498e-05,4.58913e-05,7.75304e-07,3.24734e-05,3.13391e-05,1.05782e-05,1.52367e-05,8.09403e-06,0
-4.04099e-05,6.04849e-05,-3.28581e-06,4.76778e-05,2.80661e-05,7.99278e-06,1.85162e-05,9.56096e-06,0
-4.27442e-05,4.75216e-05,-4.45007e-06,5.65428e-05,2.53484e-05,6.01972e-06,2.09407e-05,8.85417e-06,0
-3.98816e-05,1.06778e-05,-3.2797e-06,6.38946e-05,2.39478e-05,6.27276e-06,2.14577e-05,7.13643e-06,0
-3.501e-05,-3.24044e-05,-1.67933e-06,6.90686e-05,2.33267e-05,6.51348e-06,2.17154e-05,5.57468e-06,0
-3.2902e-05,-6.70597e-05,4.76436e-07,6.75124e-05,2.33336e-05,4.74268e-06,2.26452e-05,4.39494e-06,0
-3.27789e-05,-8.22019e-05,2.27779e-06,6.18277e-05,2.32088e-05,2.52223e-06,2.36245e-05,2.97874e-06,0
-3.08435e-05,-6.61459e-05,1.60826e-06,5.64979e-05,2.22779e-05,1.78102e-06,2.42516e-05,4.88799e-07,0
-2.85062e-05,-3.23856e-05,-9.50503e-08,5.09049e-05,2.02791e-05,2.43436e-06,2.3421e-05,-2.60363e-06,0
-2.72133e-05,-1.20685e-05,-1.86335e-06,4.23399e-05,1.70538e-05,3.47529e-06,2.23607e-05,-5.28666e-06,0
-2.67377e-05,-1.45896e-05,-5.71417e-06,2.78607e-05,1.53125e-05,3.56976e-06,2.20237e-05,-7.65428e-06,0
-2.89196e-05,-1.6344e-05,-8.85157e-06,1.2663e-05,1.65908e-05,4.01052e-06,2.02461e-05,-8.47482e-06,0
-3.16756e-05,1.0796e-07,-9.25618e-06,3.48335e-06,1.51291e-05,4.32443e-06,1.71324e-05,-7.92862e-06,0
-3.14402e-05,2.30256e-05,-7.37904e-06,1.39766e-06,1.05216e-05,3.36293e-06,1.64303e-05,-8.13545e-06,0
-2.86436e-05,4.46196e-05,-3.6621e-06,5.91929e-06,6.19344e-06,1.76352e-06,1.63037e-05,-9.30827e-06,0
-2.83654e-05,6.73203e-05,-1.04143e-06,1.45225e-05,1.75938e-06,-1.45248e-06,1.47553e-05,-1.15259e-05,0
-3.17493e-05,8.69035e-05,-8.95101e-07,2.51455e-05,-1.58892e-06,-6.41912e-06,1.3919e-05,-1.19531e-05,0
-3.50253e-05,9.53905e-05,-2.26368e-06,3.0899e-05,-1.69152e-06,-1.07107e-05,1.41323e-05,-9.20512e-06,0
-3.61678e-05,8.46517e-05,-3.09072e-06,3.23974e-05,1.75058e-06,-1.04797e-05,1.46197e-05,-6.04495e-06,0
-3.52963e-05,5.30759e-05,-2.07656e-06,3.27419e-05,4.99153e-06,-8.01248e-06,1.43457e-05,-3.89594e-06,0
-3.55164e-05,1.42953e-05,-1.63202e-06,3.37374e-05,5.36917e-06,-8.23765e-06,1.44953e-05,-2.65622e-06,0
-3.89691e-05,-2.50396e-05,-5.81422e-06,3.55832e-05,3.92752e-06,-1.23996e-05,1.31844e-05,-2.09011e-06,0
-4.37289e-05,-6.70529e-05,-1.2874e-05,3.13497e-05,3.35267e-06,-1.75687e-05,1.0839e-05,-2.39838e-06,0
-4.62524e-05,-9.69793e-05,-1.75356e-05,2.07455e-05,4.08498e-06,-2.05786e-05,8.8093e-06,-2.28472e-06,0
-4.62088e-05,-9.52118e-05,-1.80444e-05,8.7835e-06,5.11719e-06,-2.13219e-05,8.30729e-06,-7.38604e-07,0
-4.50883e-05,-5.80426e-05,-1.80629e-05,6.53051e-08,5.17316e-06,-2.30589e-05,9.99698e-06,-1.70569e-08,0
-4.46087e-05,1.23844e-05,-2.11343e-05,-8.62151e-06,3.39807e-06,-2.64761e-05,1.1903e-05,-1.09397e-06,0
-4.50979e-05,0.000109098,-2.51214e-05,-2.01495e-05,2.95139e-07,-2.90288e-05,1.34762e-05,-1.76124e-06,0
-4.4099e-05,0.000198844,-2.72604e-05,-3.22046e-05,-1.61232e-06,-2.86742e-05,1.42271e-05,-1.60945e-06,0
-3.98538e-05,0.000234853,-2.75806e-05,-3.90927e-05,-8.19794e-07,-2.54118e-05,1.40318e-05,-1.6123e-06,0
-3.4013e-05,0.000197976,-2.59682e-05,-4.26754e-05,1.36179e-06,-2.02346e-05,1.413e-05,-8.22359e-07,0
-2.77543e-05,0.000107162,-2.31171e-05,-5.08871e-05,4.77166e-06,-1.45986e-05,1.50901e-05,3.94341e-08,0
-1.51362e-05,5.42988e-06,-1.98324e-05,-6.662e-05,8.38119e-06,-1.24251e-05,1.44243e-05,-1.09169e-06,0
7.19438e-06,-5.20882e-05,-1.71969e-05,-8.08596e-05,1.05693e-05,-1.28747e-05,1.26571e-05,-2.98344e-06,0
2.79967e-05,-5.0045e-05,-1.77495e-05,-8.54397e-05,1.16347e-05,-1.27532e-05,1.1887e-05,-4.30296e-06,0
3.25714e-05,-3.49981e-05,-1.83003e-05,-7.91485e-05,1.25545e-05,-1.3801e-05,1.20218e-05,-3.91166e-06,0
2.02102e-05,-4.04667e-05,-1.62069e-05,-6.43762e-05,1.38042e-05,-1.76093e-05,1.30266e-05,-1.14255e-06,0
-1.56464e-06,-6.069e-05,-1.3821e-05,-4.86161e-05,1.56781e-05,-2.03193e-05,1.4538e-05,6.4047e-07,0
-2.34199e-05,-8.0102e-05,-1.18352e-05,-4.01946e-05,1.58935e-05,-2.13619e-05,1.5187e-05,1.2199e-06,0
-4.17492e-05,-8.80587e-05,-1.09442e-05,-4.08567e-05,1.21122e-05,-2.46131e-05,1.4049e-05,2.05221e-06,0
-5.48562e-05,-8.90045e-05,-1.10529e-05,-4.79651e-05,9.40404e-06,-2.66425e-05,1.29979e-05,3.43801e-06,0
-5.78102e-05,-8.34435e-05,-1.18957e-05,-5.78633e-05,1.02474e-05,-2.41302e-05,1.3095e-05,5.53018e-06,0
-5.37855e-05,-6.63971e-05,-1.27003e-05,-6.4558e-05,1.04167e-05,-2.36849e-05,1.0933e-05,6.35778e-06,0
-4.65619e-05,-3.72899e-05,-1.1544e-05,-6.85779e-05,9.41598e-06,-2.64457e-05,8.93039e-06,5.90961e-06,0
-4.32655e-05,4.11028e-06,-9.7915e-06,-6.6089e-05,1.09595e-05,-2.20133e-05,8.50397e-06,7.30976e-06,0
-4.76374e-05,5.0322e-05,-1.06562e-05,-5.41566e-05,1.50707e-05,-1.1564e-05,8.81701e-06,9.82292e-06,0
-5.3918e-05,8.47956e-05,-1.45281e-05,-3.43359e-05,1.88423e-05,-7.61445e-06,1.03289e-05,9.81461e-06,0
-5.71445e-05,9.94674e-05,-1.77284e-05,-8.26268e-06,2.15184e-05,-1.19885e-05,1.23558e-05,7.82633e-06,0
-5.78884e-05,9.83398e-05,-1.70789e-05,1.73059e-05,2.19768e-05,-1.67968e-05,1.34322e-05,6.82835e-06,0
-5.61195e-05,8.29703e-05,-1.42775e-05,3.28768e-05,2.12025e-05,-1.73699e-05,1.29451e-05,7.4049e-06,0
-5.19943e-05,5.45705e-05,-1.20873e-05,3.96683e-05,2.00784e-05,-1.49504e-05,1.34055e-05,7.17821e-06,0
-4.82304e-05,2.22534e-05,-1.01389e-05,4.60558e-05,1.85242e-05,-1.16659e-05,1.46662e-05,7.0624e-06,0
-4.50168e-05,2.25916e-06,-8.31738e-06,5.41131e-05,1.78801e-05,-8.92835e-06,1.65448e-05,8.00925e-06,0
-4.29103e-05,-1.25452e-06,-7.70584e-06,6.08695e-05,2.0148e-05,-8.71444e-06,1.78527e-05,8.25197e-06,0
-4.17778e-05,-6.56993e-06,-9.46616e-06,6.05215e-05,2.40456e-05,-1.18101e-05,1.80019e-05,6.36394e-06,0
-4.18099e-05,-2.45923e-05,-1.23471e-05,4.68367e-05,2.58683e-05,-1.64532e-05,1.6055e-05,4.19499e-06,0
-4.1417e-05,-3.96993e-05,-1.37934e-05,1.88344e-05,2.34907e-05,-2.04247e-05,1.29172e-05,3.66537e-06,0
-3.93263e-05,-3.56071e-05,-1.40289e-05,-1.76285e-05,1.83868e-05,-2.25075e-05,1.09462e-05,3.89375e-06,0
-3.40264e-05,-1.02406e-05,-1.52545e-05,-5.68388e-05,1.35311e-05,-2.26853e-05,1.00051e-05,3.56889e-06,0
-2.71368e-05,2.05272e-05,-1.63294e-05,-9.17805e-05,1.05734e-05,-2.09565e-05,8.61786e-06,2.37189e-06,0
-2.46076e-05,3.22734e-05,-1.50924e-05,-0.000113229,9.97031e-06,-1.867e-05,7.11587e-06,1.07429e-06,0
-3.03572e-05,2.39086e-05,-1.31749e-05,-0.000120324,9.20975e-06,-1.76316e-05,6.93093e-06,-5.34665e-07,0
-4.45332e-05,1.77278e-05,-1.30933e-05,-0.000118625,7.91331e-06,-1.7627e-05,7.82814e-06,-7.54255e-07,0
-6.52969e-05,4.72526e-05,-1.62134e-05,-0.000105616,8.46033e-06,-1.77721e-05,8.83702e-06,1.77201e-06,0
-7.99311e-05,0.000102732,-1.87254e-05,-6.81254e-05,8.94067e-06,-1.98567e-05,8.11937e-06,3.05924e-06,0
-7.13076e-05,0.000126988,-1.76705e-05,-1.44074e-05,6.85324e-06,-2.40951e-05,7.57763e-06,2.2979e-06,0
-4.4597e-05,0.000114395,-1.23603e-05,3.41705e-05,5.86516e-06,-2.72601e-05,9.22613e-06,2.65579e-06,0
-1.57727e-05,8.71751e-05,-6.97473e-06,7.60194e-05,5.81533e-06,-2.92814e-05,1.17801e-05,3.05766e-06,0
6.10083e-06,5.12147e-05,-4.96432e-06,9.99064e-05,5.63412e-06,-2.95998e-05,1.38951e-05,2.64868e-06,0
1.87063e-05,9.30405e-06,-2.98415e-06,9.29998e-05,7.88387e-06,-2.90206e-05,1.48624e-05,1.46353e-06,0
2.39468e-05,-3.87198e-05,-1.38736e-06,6.40709e-05,1.06094e-05,-3.2723e-05,1.60966e-05,8.27781e-07,0
1.92288e-05,-7.59991e-05,-9.96982e-07,3.51405e-05,1.17546e-05,-3.81535e-05,1.36744e-05,6.67281e-07,0
6.92233e-06,-8.08258e-05,-2.93753e-06,1.3781e-05,1.30904e-05,-3.51843e-05,1.95675e-06,9.52219e-07,0
-4.81782e-06,-5.88391e-05,-4.61667e-06,-9.65858e-06,1.41839e-05,-2.52035e-05,-1.32214e-05,3.96564e-07,0
-1.04721e-05,-3.51014e-05,-3.03771e-06,-3.48314e-05,1.63898e-05,-2.02921e-05,-2.2407e-05,-1.12225e-06,0
-9.91414e-06,-1.76609e-05,-1.62361e-06,-5.36947e-05,2.05206e-05,-2.36246e-05,-2.46514e-05,-1.54723e-06,0
-5.35363e-06,2.40691e-06,-1.7043e-06,-5.89435e-05,2.36838e-05,-2.78065e-05,-2.21129e-05,-1.17444e-06,0
-1.46063e-06,3.52885e-05,-2.82902e-06,-4.9225e-05,2.44048e-05,-2.76999e-05,-1.37054e-05,1.47016e-07,0
-7.03986e-06,6.89658e-05,-4.79171e-06,-2.95391e-05,2.10589e-05,-2.5594e-05,4.59752e-09,1.84287e-06,0
-2.27211e-05,8.38953e-05,-7.33698e-06,-4.36042e-06,1.64701e-05,-2.42445e-05,1.65436e-05,2.84118e-06,0
-3.59657e-05,7.815e-05,-8.75282e-06,2.24124e-05,1.66931e-05,-2.34859e-05,3.17526e-05,1.86717e-06,0
-3.49116e-05,5.96105e-05,-7.33302e-06,4.35926e-05,2.26056e-05,-2.14701e-05,4.23967e-05,-7.02117e-08,0
-2.4003e-05,3.64654e-05,-3.36745e-06,5.16109e-05,2.65304e-05,-1.83111e-05,4.72609e-05,-1.65665e-06,0
-1.50711e-05,1.68808e-05,3.49487e-07,4.46737e-05,2.29996e-05,-1.63425e-05,4.77643e-05,-1.16219e-06,0
-1.39117e-05,7.98995e-06,1.22434e-06,3.15399e-05,1.4844e-05,-1.61064e-05,4.64405e-05,1.51799e-06,0
-1.69989e-05,9.71536e-06,6.32791e-08,1.94039e-05,7.55412e-06,-1.73158e-05,4.42858e-05,4.22919e-06,0
-2.01282e-05,1.67917e-05,-1.34183e-06,8.66123e-06,2.52973e-06,-1.83562e-05,4.10808e-05,6.22277e-06,0
-2.02585e-05,2.25074e-05,-2.50107e-06,1.98331e-06,-3.99879e-07,-1.84643e-05,3.52832e-05,6.49037e-06,0
-1.87807e-05,2.74864e-05,-3.49912e-06,2.15566e-06,6.03204e-07,-1.74598e-05,2.69267e-05,3.97671e-06,0
-1.91407e-05,3.23941e-05,-3.50659e-06,1.58327e-06,4.14427e-06,-1.42473e-05,1.83319e-05,1.83763e-06,0
-2.15089e-05,3.74623e-05,-2.9422e-06,-4.9499e-06,4.84719e-06,-1.2183e-05,1.20028e-05,9.63515e-07,0
-2.41264e-05,3.88673e-05,8.62586e-08,-1.31767e-05,-3.66136e-07,-1.39489e-05,1.08237e-05,1.82877e-06,0
-2.3715e-05,3.32599e-05,4.95819e-06,-2.31006e-05,-6.69591e-06,-1.57072e-05,1.37864e-05,3.38794e-06,0
-2.33205e-05,2.77957e-05,7.47665e-06,-3.67172e-05,-9.61477e-06,-1.46435e-05,1.51672e-05,2.28017e-06,0
-2.65797e-05,3.17116e-05,6.54262e-06,-4.59993e-05,-5.94105e-06,-1.23733e-05,1.40306e-05,5.58996e-07,0
-2.74785e-05,4.37687e-05,4.31413e-06,-4.21136e-05,3.39009e-06,-9.71284e-06,1.24093e-05,-1.105e-06,0
-2.48603e-05,5.5277e-05,2.02916e-06,-3.46534e-05,1.13931e-05,-5.89912e-06,1.02396e-05,-1.92865e-06,0
-2.24169e-05,5.83751e-05,2.41555e-07,-3.52918e-05,1.48447e-05,-2.80127e-06,7.85633e-06,-2.94512e-06,0
-2.18497e-05,5.24617e-05,6.62845e-07,-3.78624e-05,1.2794e-05,-2.47769e-06,5.94777e-06,-4.16569e-06,0
-2.39133e-05,4.21016e-05,1.12988e-06,-3.56785e-05,9.87389e-06,-4.18807e-06,3.88908e-06,-4.11765e-06,0
-2.52322e-05,2.76312e-05,-1.20709e-07,-2.70098e-05,1.24056e-05,-4.71545e-06,2.21868e-06,-4.3264e-06,0
-2.4213e-05,8.83093e-06,-1.92756e-06,-1.67594e-05,2.00782e-05,-2.49563e-06,2.21496e-06,-4.3608e-06,0
-2.22237e-05,-9.42343e-06,-2.59102e-06,-1.14242e-05,2.70736e-05,1.14313e-06,2.36035e-06,-2.88992e-06,0
-2.10308e-05,-2.05641e-05,-2.76111e-06,-5.87606e-06,2.90266e-05,4.65482e-06,1.40881e-06,-1.25914e-06,0
-2.19036e-05,-2.0834e-05,-3.64182e-06,1.01684e-05,2.90214e-05,6.64456e-06,8.0337e-07,-1.09183e-06,0
-2.49604e-05,-1.33392e-05,-5.25407e-06,4.01203e-05,3.03884e-05,7.05807e-06,1.27818e-06,-8.37329e-07,0
-2.74478e-05,-5.17916e-06,-5.84851e-06,7.02222e-05,3.18418e-05,7.46639e-06,2.26093e-06,-5.4128e-07,0
-2.83111e-05,2.17293e-06,-4.23001e-06,8.20645e-05,3.09934e-05,8.746e-06,4.20666e-06,-1.02775e-06,0
-2.81078e-05,9.98693e-06,-2.21232e-06,6.79277e-05,2.97571e-05,9.49385e-06,5.33715e-06,-1.14757e-06,0
-2.7645e-05,1.68161e-05,-2.34628e-06,3.87516e-05,2.99454e-05,8.52834e-06,3.59413e-06,-4.64972e-07,0
-2.71213e-05,2.02603e-05,-4.95721e-06,1.95852e-05,3.10744e-05,7.50236e-06,1.69063e-06,-5.40916e-07,0
-2.73049e-05,2.16055e-05,-9.34366e-06,2.90164e-05,3.23965e-05,7.37233e-06,1.80446e-06,-1.10483e-06,0
-2.80017e-05,2.21763e-05,-1.55491e-05,5.44166e-05,3.17463e-05,7.06496e-06,2.18084e-06,-1.49927e-06,0
-2.82549e-05,2.55522e-05,-2.12369e-05,7.05409e-05,2.55413e-05,6.09167e-06,2.19027e-06,-2.38191e-06,0
-2.94554e-05,3.48089e-05,-2.64171e-05,7.13329e-05,1.6227e-05,3.77481e-06,3.85141e-06,-2.29254e-06,0
-3.14469e-05,4.54448e-05,-2.98802e-05,6.27944e-05,1.02721e-05,1.34713e-06,3.56599e-06,-2.23058e-06,0
-3.20323e-05,5.76797e-05,-3.17081e-05,4.88689e-05,7.74724e-06,1.09682e-06,-6.77676e-07,-3.62801e-06,0
-3.08864e-05,7.26922e-05,-3.17404e-05,3.52432e-05,7.69561e-06,2.12941e-06,-3.21272e-06,-5.08783e-06,0
-2.97625e-05,8.03032e-05,-2.64673e-05,3.41116e-05,1.05012e-05,2.22785e-06,-8.48142e-07,-5.02186e-06,0
-3.05837e-05,7.83653e-05,-1.92493e-05,3.63778e-05,1.1505e-05,1.6161e-06,4.02367e-06,-2.90392e-06,0
-3.29832e-05,7.27438e-05,-1.24883e-05,2.25908e-05,8.24415e-06,2.97165e-06,8.22573e-06,-1.39519e-07,0
-3.53759e-05,6.73525e-05,-9.17815e-06,-5.6916e-06,7.14345e-06,6.97497e-06,1.08281e-05,6.29304e-07,0
-3.71293e-05,5.80204e-05,-1.02576e-05,-3.96205e-05,1.38831e-05,1.10616e-05,1.34216e-05,-6.59773e-07,0
-3.78974e-05,3.8502e-05,-1.17248e-05,-6.84235e-05,2.5979e-05,1.34015e-05,1.72851e-05,-8.46762e-07,0
-3.75044e-05,1.17808e-05,-1.1622e-05,-8.66904e-05,3.45375e-05,1.2799e-05,2.03471e-05,-8.02e-07,0
-3.59772e-05,-1.94982e-05,-8.67979e-06,-9.46464e-05,3.64661e-05,1.15323e-05,2.08979e-05,-2.61717e-06,0
-3.51033e-05,-5.21864e-05,-5.45574e-06,-9.81489e-05,3.50432e-05,1.14707e-05,1.98063e-05,-4.57e-06,0
-3.46367e-05,-7.72795e-05,-3.39735e-06,-0.000110058,2.97917e-05,1.06569e-05,2.03805e-05,-5.49561e-06,0
-3.41309e-05,-8.47892e-05,-4.05379e-06,-0.000142993,2.06288e-05,7.10225e-06,2.17511e-05,-5.19365e-06,0
-3.49646e-05,-7.84926e-05,-8.18926e-06,-0.000200744,1.11344e-05,2.08201e-06,2.14482e-05,-3.53958e-06,0
-3.71692e-05,-6.48327e-05,-1.41445e-05,-0.000260776,2.10723e-06,-2.06345e-06,2.13901e-05,-2.11178e-06,0
-3.89959e-05,-3.63488e-05,-1.90434e-05,-0.000281271,-7.13643e-06,-5.63164e-06,2.22938e-05,-1.57e-06,0
-3.95698e-05,3.54529e-06,-2.02765e-05,-0.000237338,-1.18369e-05,-7.89461e-06,2.27355e-05,6.16292e-09,0
-3.82722e-05,3.01638e-05,-1.74456e-05,-0.000147213,-7.4504e-06,-8.15417e-06,2.19758e-05,2.38315e-06,0
-3.58893e-05,2.81903e-05,-1.14922e-05,-4.81415e-05,2.01621e-06,-5.80022e-06,2.1338e-05,3.29824e-06,0
-3.4607e-05,4.94012e-06,-5.07915e-06,3.63416e-05,9.78445e-06,-1.11287e-06,2.07956e-05,2.78972e-06,0
-3.42753e-05,-1.83605e-05,-1.60843e-06,0.00011038,1.24731e-05,3.24164e-06,1.88412e-05,3.1445e-06,0
-3.3509e-05,-2.08301e-05,-1.74654e-06,0.00018329,1.11437e-05,5.57961e-06,1.57118e-05,5.10758e-06,0
-3.33327e-05,-6.40844e-07,-2.46352e-06,0.000244165,8.82899e-06,7.99262e-06,1.29288e-05,6.21477e-06,0
-3.54941e-05,2.07528e-05,-4.2455e-06,0.000270849,8.08478e-06,9.42385e-06,1.11004e-05,5.04598e-06,0
-3.8978e-05,1.99417e-05,-7.8038e-06,0.000253069,1.02406e-05,8.13577e-06,1.10929e-05,4.08065e-06,0
-4.32304e-05,-9.43339e-06,-8.0797e-06,0.000198312,1.32555e-05,5.02611e-06,1.5138e-05,3.62521e-06,0
-4.5174e-05,-5.68659e-05,-4.26221e-06,0.000127262,1.30069e-05,9.71125e-07,2.49492e-05,2.19914e-06,0
-4.38004e-05,-9.98191e-05,-1.78152e-06,5.94819e-05,9.38771e-06,-1.05108e-06,3.62034e-05,-2.88699e-07,0
-4.0387e-05,-0.000114456,7.77786e-07,6.39277e-06,9.98468e-06,-8.25467e-08,4.13835e-05,-2.46261e-06,0
-3.5474e-05,-8.69088e-05,5.32602e-06,-2.29353e-05,1.67877e-05,2.69084e-06,3.79681e-05,-2.29354e-06,0
-3.59366e-05,-2.96164e-05,7.75959e-06,-3.63385e-05,2.14579e-05,2.36814e-06,3.45532e-05,-7.72697e-07,0
-3.89645e-05,3.08559e-05,8.0123e-06,-5.76806e-05,1.96423e-05,-1.69019e-06,3.7502e-05,6.60166e-07,0
-3.85569e-05,8.47667e-05,8.83211e-06,-9.35866e-05,1.74034e-05,-5.00896e-06,3.8474e-05,3.95027e-08,0
-3.7248e-05,0.000107648,1.15652e-05,-0.000114376,2.13363e-05,-6.82545e-06,3.33038e-05,-1.90808e-06,0
-3.69502e-05,8.63575e-05,1.68062e-05,-9.48337e-05,3.16208e-05,-5.92727e-06,2.2405e-05,-3.63376e-06,0
-3.68818e-05,4.65045e-05,2.24314e-05,-4.30037e-05,4.20863e-05,-3.09964e-06,9.31185e-06,-4.94897e-06,0
-3.43276e-05,4.34815e-06,2.87374e-05,-3.86179e-07,4.40663e-05,-3.66504e-07,-2.8989e-06,-5.38989e-06,0
-3.34487e-05,-3.74701e-05,3.31788e-05,7.61929e-06,3.61337e-05,1.79593e-07,-1.551e-05,-3.84038e-06,0
-3.55632e-05,-7.71055e-05,3.16643e-05,1.66269e-06,2.33645e-05,-2.44102e-06,-2.73307e-05,-5.22362e-07,0
-3.89406e-05,-0.000104517,2.16414e-05,1.51168e-05,1.06813e-05,-6.51134e-06,-3.55936e-05,1.95251e-06,0
-4.34588e-05,-0.000115191,5.10809e-06,5.40284e-05,1.26231e-06,-1.08816e-05,-3.74728e-05,3.80334e-06,0
-4.86606e-05,-0.000108331,-1.4503e-05,8.97221e-05,-3.03412e-06,-1.50199e-05,-3.19208e-05,4.28904e-06,0
-5.23506e-05,-8.60038e-05,-3.7368e-05,0.000105117,-3.16249e-07,-1.76135e-05,-2.27732e-05,3.82099e-06,0
-5.13309e-05,-5.7443e-05,-6.14911e-05,0.000104658,9.68808e-06,-1.7163e-05,-1.50907e-05,3.20412e-06,0
-4.65933e-05,-2.85742e-05,-8.23326e-05,9.4878e-05,1.88809e-05,-1.48592e-05,-8.25759e-06,2.57161e-06,0
-4.14358e-05,-1.00661e-06,-9.28716e-05,7.84395e-05,1.85494e-05,-1.35343e-05,-7.85913e-07,2.86271e-06,0
-3.73743e-05,1.92911e-05,-8.90967e-05,6.39694e-05,1.19677e-05,-1.36965e-05,6.97211e-06,4.53006e-06,0
-3.33012e-05,2.5214e-05,-7.30694e-05,5.78479e-05,8.78671e-06,-1.39273e-05,1.24142e-05,6.16382e-06,0
-2.95491e-05,2.29202e-05,-5.22854e-05,5.6359e-05,9.91604e-06,-1.32691e-05,1.35705e-05,5.64813e-06,0
-2.75708e-05,2.08721e-05,-3.40055e-05,5.73739e-05,9.01052e-06,-1.2942e-05,1.28683e-05,4.21894e-06,0
-2.77923e-05,2.06029e-05,-2.49809e-05,5.76706e-05,5.60586e-06,-1.39249e-05,1.45286e-05,2.92116e-06,0
-2.82114e-05,2.55081e-05,-2.57318e-05,3.22838e-05,2.08565e-06,-1.37802e-05,1.92199e-05,2.70832e-06,0
-2.79821e-05,4.72083e-05,-2.64625e-05,-3.75922e-05,-2.09276e-06,-1.08634e-05,2.45554e-05,4.15521e-06,0
-2.90912e-05,8.70339e-05,-1.92827e-05,-0.00012756,-6.56636e-06,-7.34163e-06,2.76841e-05,5.03481e-06,0
-3.24428e-05,0.00012199,-9.51138e-06,-0.000185063,-7.62705e-06,-6.57128e-06,2.76961e-05,3.45788e-06,0
-3.35655e-05,0.000126907,-3.79161e-06,-0.000187243,-3.63119e-06,-7.72226e-06,2.5466e-05,7.46607e-07,0
-3.24471e-05,0.000102842,-2.47903e-06,-0.000156645,3.07747e-06,-9.38489e-06,2.09752e-05,-6.53402e-07,0
-3.26182e-05,8.0083e-05,-4.26814e-06,-0.000115283,5.80358e-06,-1.07724e-05,1.35962e-05,-8.15427e-07,0
-3.48303e-05,8.0957e-05,-7.23488e-06,-7.27786e-05,-2.91194e-07,-1.29926e-05,7.95969e-06,1.58377e-07,0
-3.52065e-05,9.15831e-05,-7.17331e-06,-3.73755e-05,-1.02184e-05,-1.64376e-05,5.59268e-06,2.26182e-06,0
-3.09587e-05,0.000114855,-5.63357e-06,-1.80334e-05,-1.44214e-05,-1.67002e-05,5.1943e-06,3.95252e-06,0
-2.64312e-05,0.000160405,-7.64237e-06,-1.19233e-05,-9.04407e-06,-1.27312e-05,8.41117e-06,5.78395e-06,0
-2.277e-05,0.000210677,-1.06546e-05,-1.46478e-05,-2.09656e-06,-9.05713e-06,1.36964e-05,6.38256e-06,0
-1.99049e-05,0.000257902,-1.18701e-05,-1.51029e-05,-1.88549e-06,-9.23134e-06,2.06367e-05,5.40116e-06,0
-1.89044e-05,0.000291824,-1.16747e-05,-8.21432e-06,-6.14158e-06,-1.26073e-05,2.6452e-05,5.1374e-06,0
-1.97409e-05,0.000286266,-1.09685e-05,3.05622e-06,-3.64916e-06,-1.48503e-05,2.88822e-05,5.11685e-06,0
-1.91244e-05,0.00022778,-8.01934e-06,1.07867e-05,7.22148e-06,-1.27822e-05,2.89374e-05,3.47609e-06,0
-1.60202e-05,0.000118281,-4.11116e-06,3.28845e-06,1.61667e-05,-9.66402e-06,2.85299e-05,7.33358e-07,0
-1.49477e-05,-3.13944e-05,-1.97265e-06,-1.90197e-05,1.99826e-05,-9.75257e-06,2.77684e-05,-9.42438e-07,0
-1.83401e-05,-0.000188166,-1.36629e-06,-4.34659e-05,2.27516e-05,-1.36123e-05,2.54519e-05,-1.66379e-06,0
-2.2916e-05,-0.000303108,-1.31261e-06,-5.54119e-05,2.42e-05,-1.70851e-05,2.24692e-05,-1.11266e-06,0
-2.54562e-05,-0.000344042,-1.98287e-06,-5.36853e-05,2.00245e-05,-1.8155e-05,2.14699e-05,-2.33066e-07,0
-2.71721e-05,-0.000320262,-3.1496e-06,-4.75763e-05,1.23537e-05,-1.88272e-05,2.30549e-05,-1.66955e-06,0
-2.93136e-05,-0.00025928,-3.53765e-06,-5.61429e-05,6.30082e-06,-2.00032e-05,2.42905e-05,-4.61643e-06,0
-2.86915e-05,-0.000185708,-1.8393e-06,-8.77766e-05,3.67051e-06,-2.17543e-05,2.29779e-05,-6.13381e-06,0
-2.06574e-05,-0.000122856,1.10296e-06,-0.000122853,2.9127e-06,-2.49064e-05,1.9789e-05,-5.66356e-06,0
-8.90814e-06,-8.89841e-05,1.12708e-06,-0.000126353,4.95998e-06,-2.74831e-05,1.65194e-05,-2.44831e-06,0
-2.79727e-06,-8.49036e-05,-2.49298e-06,-9.19317e-05,1.04807e-05,-2.37888e-05,1.46527e-05,3.04736e-06,0
-7.01563e-06,-9.04952e-05,-5.02884e-06,-3.77321e-05,1.61e-05,-1.645e-05,1.34495e-05,5.91912e-06,0
-1.79717e-05,-8.18097e-05,-2.62728e-06,1.97559e-05,2.06085e-05,-1.24798e-05,1.12357e-05,4.50978e-06,0
-2.81586e-05,-5.09787e-05,3.83791e-06,6.99421e-05,2.3408e-05,-1.0594e-05,9.02689e-06,2.66451e-06,0
-3.36119e-05,-2.04185e-05,1.12005e-05,0.000107304,2.20144e-05,-9.13351e-06,7.71904e-06,4.5201e-06,0
-3.54815e-05,-9.73281e-06,1.47207e-05,0.000122628,1.92755e-05,-1.06454e-05,7.86478e-06,8.56727e-06,0
-3.77148e-05,4.49274e-06,1.42458e-05,0.000113591,2.17572e-05,-1.63397e-05,3.54174e-06,1.09416e-05,0
-4.24932e-05,4.13345e-05,1.53251e-05,0.000100282,2.62336e-05,-2.5783e-05,-9.4934e-06,1.1186e-05,0
-4.88293e-05,8.21345e-05,1.60536e-05,8.61258e-05,2.35798e-05,-3.81179e-05,-2.91119e-05,9.98251e-06,0
-5.20649e-05,0.000109481,1.48552e-05,5.54011e-05,1.76524e-05,-4.86662e-05,-4.34343e-05,8.05181e-06,0
-5.28913e-05,0.000115917,1.29238e-05,1.28434e-05,1.34055e-05,-5.78946e-05,-4.11459e-05,6.58086e-06,0
-5.68146e-05,0.000114891,9.04659e-06,-1.61155e-05,9.51382e-06,-6.1954e-05,-2.8493e-05,6.93868e-06,0
-5.8084e-05,0.000131265,5.78898e-06,-8.86311e-06,7.93754e-06,-4.75421e-05,-1.1293e-05,8.56809e-06,0
-4.6981e-05,0.000148355,5.11411e-06,2.50552e-05,7.32583e-06,-2.14501e-05,7.61881e-06,8.91299e-06,0
-2.16192e-05,0.000124461,6.00652e-06,6.59317e-05,4.981e-06,-6.5983e-06,2.65476e-05,7.39835e-06,0
3.77409e-06,5.42806e-05,6.39901e-06,9.24194e-05,2.75068e-06,-1.05566e-05,4.42978e-05,5.87714e-06,0
1.49315e-05,-2.30049e-05,4.88507e-06,9.57016e-05,3.01253e-06,-1.4862e-05,5.89305e-05,5.16717e-06,0
1.16026e-05,-7.2278e-05,1.30307e-06,8.33594e-05,1.64802e-06,-6.96526e-06,6.8417e-05,4.41372e-06,0
-4.5543e-06,-9.05931e-05,-2.41466e-06,6.15082e-05,-3.10924e-06,2.66946e-06,7.31649e-05,2.81347e-06,0
-3.00205e-05,-8.88533e-05,-2.50302e-06,2.54335e-05,-7.69399e-06,1.79261e-06,8.07257e-05,1.81274e-06,0
-5.67283e-05,-7.24177e-05,8.63863e-07,-2.25565e-05,-9.55906e-06,-5.78821e-06,9.36605e-05,1.51696e-06,0
-7.34135e-05,-4.78029e-05,2.1382e-06,-5.52701e-05,-8.29669e-06,-1.0817e-05,0.000101201,1.49631e-06,0
-7.57579e-05,-2.89353e-05,-2.05052e-06,-5.2172e-05,-4.55723e-06,-1.03201e-05,9.48601e-05,1.30794e-06,0
-6.94055e-05,-2.28646e-05,-9.01646e-06,-2.26411e-05,-4.46193e-07,-6.97367e-06,7.72026e-05,3.42661e-07,0
-6.20734e-05,-2.43437e-05,-1.40821e-05,5.98166e-06,1.83587e-06,-5.61484e-06,5.28205e-05,-9.1906e-07,0
-5.66571e-05,-2.27956e-05,-1.39144e-05,1.198e-05,2.67728e-06,-6.35988e-06,2.70098e-05,-1.63078e-06,0
-5.09647e-05,-1.12714e-05,-1.07483e-05,-1.03175e-05,3.87518e-06,-5.84408e-06,3.6492e-06,-1.78155e-06,0
-4.14546e-05,1.08645e-05,-8.93293e-06,-4.49422e-05,7.35468e-06,-3.05499e-06,-1.72548e-05,-1.93191e-06,0
-2.62633e-05,3.43611e-05,-6.44296e-06,-7.0175e-05,1.2262e-05,-1.64201e-06,-3.41157e-05,-1.823e-06,0
-7.97549e-06,4.74541e-05,-3.18573e-06,-7.5315e-05,1.61445e-05,-3.48164e-06,-4.09275e-05,-1.10834e-06,0
5.5382e-06,4.83237e-05,-2.64732e-06,-6.76841e-05,1.61076e-05,-9.49659e-06,-3.70498e-05,5.59144e-07,0
8.78221e-06,3.90952e-05,-5.00431e-06,-5.71068e-05,1.21633e-05,-2.14472e-05,-2.73399e-05,8.39284e-07,0
6.45547e-06,2.76313e-05,-7.00481e-06,-4.98642e-05,1.23002e-05,-3.41974e-05,-1.93115e-05,-3.54579e-07,0
3.95707e-06,2.82691e-05,-6.5394e-06,-4.74806e-05,2.21702e-05,-3.85366e-05,-1.73125e-05,-7.45395e-08,0
3.26381e-07,4.18428e-05,-6.38142e-06,-4.21813e-05,3.7111e-05,-3.46693e-05,-1.93819e-05,2.25912e-07,0
-6.16636e-06,5.62119e-05,-8.1873e-06,-3.40346e-05,4.57658e-05,-3.02572e-05,-2.21139e-05,-1.55844e-06,0
-1.65181e-05,6.50965e-05,-7.8662e-06,-2.27749e-05,3.81318e-05,-2.9233e-05,-2.16055e-05,-3.65379e-06,0
-2.68387e-05,0.000102594,-4.45042e-06,-1.26511e-05,2.37343e-05,-2.71244e-05,-1.89714e-05,-5.76053e-06,0
-3.67092e-05,0.000224824,-5.3494e-06,-9.46547e-06,1.76504e-05,-2.11014e-05,-1.559e-05,-5.39827e-06,0
-4.76222e-05,0.000405041,-1.04572e-05,-6.90387e-06,1.74636e-05,-1.00547e-05,-1.30604e-05,-2.97728e-06,0
-5.13148e-05,0.000560396,-1.30964e-05,-6.39921e-07,1.75036e-05,5.65503e-06,-1.4421e-05,-1.73531e-06,0
-4.98516e-05,0.000620012,-1.22574e-05,5.00728e-06,1.77507e-05,2.3548e-05,-1.93603e-05,-1.68635e-06,0
-5.36984e-05,0.000541893,-1.0948e-05,1.05802e-05,1.76149e-05,3.75538e-05,-2.25161e-05,1.39658e-06,0
-6.24802e-05,0.000351359,-1.16671e-05,1.58281e-05,1.58728e-05,5.19627e-05,-2.12946e-05,1.23721e-05,0
-6.57964e-05,0.000107729,-1.37013e-05,1.38983e-05,1.3836e-05,7.27428e-05,-1.76012e-05,2.53255e-05,0
-5.87829e-05,-0.000134822,-1.59159e-05,8.76119e-06,1.46212e-05,7.8104e-05,-1.34756e-05,3.18244e-05,0
-4.62536e-05,-0.000339571,-1.87308e-05,-1.47831e-06,1.99124e-05,5.292e-05,-1.03255e-05,3.04527e-05,0
-3.3341e-05,-0.000464554,-2.63901e-05,-1.75741e-05,2.58999e-05,1.96754e-05,-6.48016e-06,2.13824e-05,0
-1.9654e-05,-0.000474186,-3.79861e-05,-2.30096e-05,2.49891e-05,7.5122e-06,-3.79976e-07,4.69901e-06,0
-6.71488e-06,-0.000385823,-4.71221e-05,3.0107e-06,1.60005e-05,9.37662e-06,6.93771e-06,-1.48441e-05,0
-1.33651e-06,-0.000266428,-5.06173e-05,5.23322e-05,7.29182e-06,4.7473e-07,1.17888e-05,-3.1571e-05,0
-2.82706e-06,-0.000179662,-5.00595e-05,9.09069e-05,6.362e-06,-2.45889e-05,1.16021e-05,-4.10559e-05,0
-1.69619e-06,-0.000138993,-4.65037e-05,9.70945e-05,1.02964e-05,-4.58195e-05,9.80535e-06,-4.18581e-05,0
5.22818e-06,-0.000130643,-3.94403e-05,7.52298e-05,1.29889e-05,-4.14731e-05,1.2556e-05,-3.66585e-05,0
6.07982e-06,-0.000142525,-3.13987e-05,4.09934e-05,1.48196e-05,-1.85683e-05,2.01378e-05,-2.92613e-05,0
-7.18338e-06,-0.000156973,-2.36456e-05,5.02424e-06,1.65575e-05,-6.99165e-06,3.07448e-05,-2.13004e-05,0
-2.56515e-05,-0.000145819,-1.69998e-05,-2.32339e-05,1.59722e-05,-1.87826e-05,4.15774e-05,-1.20848e-05,0
-3.62345e-05,-8.42217e-05,-1.10715e-05,-4.49562e-05,1.51792e-05,-3.45179e-05,5.0873e-05,-3.8846e-06,0
-3.5583e-05,5.08088e-05,-4.44688e-06,-7.23464e-05,2.00165e-05,-3.41645e-05,5.88296e-05,7.57683e-07,0
-2.99187e-05,0.000218517,2.2651e-06,-0.000119705,2.54683e-05,-2.07368e-05,6.28685e-05,2.54323e-06,0
-2.66085e-05,0.000334551,4.96906e-06,-0.000171051,2.20086e-05,-9.64698e-06,6.08222e-05,2.77959e-06,0
-2.68427e-05,0.000354173,6.89532e-06,-0.000183758,1.53175e-05,-9.23986e-06,5.75653e-05,3.95616e-06,0
-3.04403e-05,0.000313832,1.48103e-05,-0.000151886,1.14854e-05,-1.26867e-05,5.64899e-05,5.74109e-06,0
-3.57165e-05,0.000248993,2.55508e-05,-9.67134e-05,9.62097e-06,-1.20472e-05,5.35593e-05,6.14188e-06,0
-3.77094e-05,0.000123467,3.25604e-05,-2.87892e-05,8.57382e-06,-1.03556e-05,4.9724e-05,5.73951e-06,0
-3.72195e-05,-4.6712e-05,3.67266e-05,4.26808e-05,8.78383e-06,-9.70123e-06,4.4694e-05,5.05134e-06,0
-3.76468e-05,-0.000194694,4.03131e-05,9.43981e-05,9.40425e-06,-1.05324e-05,3.81365e-05,3.01816e-06,0
-4.31451e-05,-0.000279978,4.01098e-05,9.18506e-05,9.40344e-06,-1.21758e-05,3.12542e-05,-4.77983e-07,0
-5.6601e-05,-0.000316039,3.32722e-05,5.19761e-05,1.14981e-05,-1.45427e-05,2.43763e-05,-3.60556e-06,0
-7.27556e-05,-0.000290353,1.70556e-05,2.61456e-05,1.46436e-05,-1.70538e-05,1.96497e-05,-4.64209e-06,0
-8.64363e-05,-0.000178499,-4.27579e-06,3.07565e-05,1.80909e-05,-1.9102e-05,1.67447e-05,-2.27125e-06,0
-9.3638e-05,-1.11628e-05,-1.98382e-05,3.26352e-05,2.2337e-05,-2.08147e-05,1.56438e-05,3.16867e-06,0
-9.01664e-05,0.000142735,-2.45801e-05,8.50281e-06,2.76451e-05,-2.19478e-05,1.55629e-05,6.78005e-06,0
-7.67488e-05,0.000222305,-2.52187e-05,-1.42807e-05,3.1669e-05,-2.26917e-05,1.58749e-05,3.79167e-06,0
-5.8675e-05,0.000221459,-2.82097e-05,5.6186e-07,3.50446e-05,-2.25444e-05,1.4608e-05,-4.26581e-06,0
-3.98884e-05,0.000155104,-3.32684e-05,5.99774e-05,3.89489e-05,-2.08672e-05,1.11677e-05,-1.16186e-05,0
-2.03438e-05,4.44493e-05,-3.84471e-05,0.000134072,4.07886e-05,-1.85512e-05,7.2463e-06,-1.45558e-05,0
7.49275e-07,-8.72576e-05,-4.34475e-05,0.000185481,3.95258e-05,-1.66453e-05,4.76112e-06,-1.36768e-05,0
2.33701e-05,-0.000200787,-4.83814e-05,0.00019008,3.40177e-05,-1.55182e-05,4.36553e-06,-1.19792e-05,0
4.57547e-05,-0.000265102,-4.9569e-05,0.000159008,2.34397e-05,-1.52216e-05,4.15346e-06,-1.1081e-05,0
6.14149e-05,-0.00026772,-4.43472e-05,0.000113648,1.05518e-05,-1.50841e-05,3.39779e-06,-9.69392e-06,0
6.14527e-05,-0.000226924,-3.38585e-05,5.78363e-05,-9.8621e-07,-1.60281e-05,2.48241e-06,-7.31604e-06,0
5.33952e-05,-0.000168571,-2.10845e-05,-2.87458e-06,-9.2838e-06,-1.81506e-05,2.15186e-06,-5.27033e-06,0
4.66208e-05,-0.000108782,-8.02427e-06,-5.57137e-05,-1.05063e-05,-1.87597e-05,1.54442e-06,-6.7918e-06,0
3.16086e-05,-4.90983e-05,5.88065e-06,-0.000100459,-7.08785e-06,-1.62516e-05,-7.01442e-07,-8.86155e-06,0
7.46353e-06,1.92094e-05,2.12974e-05,-0.000137733,-5.38807e-06,-1.29977e-05,-3.10239e-06,-8.51343e-06,0
-1.04459e-05,0.0001,3.65453e-05,-0.000161289,-6.39854e-06,-9.88699e-06,-2.96445e-06,-7.10783e-06,0
-1.23429e-05,0.000195106,5.02868e-05,-0.000168006,-6.94033e-06,-4.93416e-06,-9.84693e-07,-5.19721e-06,0
-3.33634e-06,0.000262805,5.78029e-05,-0.000159546,-6.30761e-06,-2.42221e-06,1.6825e-06,-3.85097e-06,0
-1.17335e-07,0.000290231,5.63292e-05,-0.000143757,-7.9294e-06,-4.83779e-06,3.83355e-06,-1.96975e-06,0
-1.32175e-05,0.000295218,4.39616e-05,-0.000131319,-1.16851e-05,-6.17841e-06,3.71544e-06,3.43136e-08,0
-2.84039e-05,0.000265504,1.91655e-05,-0.000117313,-1.27118e-05,-5.81388e-06,1.42337e-06,2.12459e-06,0
-2.22107e-05,0.000179656,-1.21666e-05,-9.29333e-05,-1.17933e-05,-5.01065e-06,-1.05327e-06,4.40223e-06,0
3.45429e-06,2.36654e-05,-4.31757e-05,-5.99599e-05,-1.30865e-05,-6.45418e-06,-1.98207e-06,5.09281e-06,0
2.0008e-05,-0.00013519,-6.59629e-05,-2.27044e-05,-1.50007e-05,-1.05295e-05,-2.94538e-08,4.40163e-06,0
1.02099e-05,-0.000197051,-7.67017e-05,8.94886e-06,-1.30123e-05,-1.48788e-05,5.449e-06,2.23938e-06,0
-1.47509e-05,-0.000156852,-7.5806e-05,2.63673e-05,-6.86114e-06,-1.71123e-05,1.57573e-05,-7.24068e-07,0
-3.87763e-05,-8.79418e-05,-6.48498e-05,2.76213e-05,3.07952e-07,-1.73732e-05,2.77894e-05,-2.92778e-06,0
-5.61401e-05,-1.65752e-05,-4.82274e-05,1.67822e-05,9.03894e-06,-1.66556e-05,3.50156e-05,-3.03668e-06,0
-6.96684e-05,7.88542e-05,-3.19085e-05,-5.12029e-06,2.08223e-05,-1.39779e-05,3.39316e-05,-9.04099e-07,0
-8.35039e-05,0.00018286,-2.05176e-05,-2.744e-05,3.36851e-05,-1.10087e-05,2.61698e-05,1.90607e-06,0
-9.72919e-05,0.000263637,-1.36226e-05,-4.00018e-05,4.26127e-05,-7.826e-06,1.59751e-05,3.45424e-06,0
-0.000106936,0.000309293,-7.75307e-06,-4.36512e-05,4.27597e-05,-6.46662e-06,5.82169e-06,4.07805e-06,0
-0.000111407,0.000310284,2.70175e-07,-3.48841e-05,3.66956e-05,-7.36352e-06,-4.01101e-06,3.978e-06,0
-0.000112477,0.000230764,8.72372e-06,-1.02929e-05,3.27256e-05,-8.53885e-06,-1.28918e-05,2.47316e-06,0
-0.000111921,7.22188e-05,1.18673e-05,1.69251e-05,3.52457e-05,-6.86363e-06,-1.73162e-05,1.69837e-06,0
-0.000109345,-8.74601e-05,6.66106e-06,3.07126e-05,3.90792e-05,-3.13573e-06,-1.64118e-05,3.12461e-06,0
-9.902e-05,-0.000165076,-1.61921e-06,3.2254e-05,3.74279e-05,-7.55553e-07,-1.2854e-05,5.80487e-06,0
-7.66974e-05,-0.000158066,-4.94751e-06,2.70482e-05,3.09958e-05,-1.31468e-06,-9.26434e-06,7.38943e-06,0
-4.83032e-05,-0.000116809,-2.33735e-06,1.9233e-05,2.26661e-05,-2.88122e-06,-4.54332e-06,7.01572e-06,0
-2.90553e-05,-6.66685e-05,1.08357e-06,1.73456e-05,1.38649e-05,-3.36922e-06,1.91623e-06,5.92906e-06,0
-2.32018e-05,4.19142e-06,1.62839e-06,1.69341e-05,5.3324e-06,-3.59877e-06,9.75205e-06,4.91357e-06,0
-2.27558e-05,9.76163e-05,7.33658e-07,1.47002e-06,-8.42806e-07,-2.95775e-06,1.99118e-05,3.87039e-06,0
-2.19863e-05,0.000171332,1.80866e-06,-2.79609e-05,-6.0528e-06,-2.3276e-06,3.1056e-05,3.40308e-06,0
-8.00308e-06,0.000169746,5.34873e-06,-5.69568e-05,-1.09346e-05,-4.13828e-06,3.76592e-05,3.04927e-06,0
1.85003e-05,0.000102434,8.63256e-06,-8.11792e-05,-1.20286e-05,-6.16853e-06,3.77586e-05,2.60067e-06,0
3.73944e-05,4.4344e-05,1.09291e-05,-0.00010348,-9.52371e-06,-4.66446e-06,3.41539e-05,3.99166e-06,0
4.10203e-05,1.35765e-05,1.18324e-05,-0.000111579,-7.88615e-06,-2.02446e-06,2.62828e-05,7.48481e-06,0
3.24122e-05,-4.40813e-05,9.34609e-06,-8.41718e-05,-8.81015e-06,-6.91763e-07,1.07544e-05,1.24969e-05,0
1.58788e-05,-0.000130982,3.97416e-06,-2.63019e-05,-9.54815e-06,-2.05924e-06,-7.37242e-06,1.641e-05,0
-7.15582e-06,-0.000200584,1.26014e-06,3.48126e-05,-9.75631e-06,-4.75971e-06,-2.11764e-05,1.60324e-05,0
-3.41446e-05,-0.000228659,2.01434e-06,8.23899e-05,-7.80153e-06,-4.36479e-06,-3.58217e-05,1.43353e-05,0
-5.58672e-05,-0.0002176,1.76131e-06,0.000110818,-6.76486e-07,-1.5382e-06,-5.52522e-05,1.27638e-05,0
-6.22545e-05,-0.000172912,9.21077e-07,0.000118034,1.18905e-05,1.24613e-06,-6.9408e-05,1.1491e-05,0
-5.32971e-05,-9.85202e-05,4.49063e-06,0.000104986,2.43655e-05,4.49119e-06,-6.76987e-05,1.09874e-05,0
-3.7927e-05,-1.7263e-05,1.1037e-05,7.65775e-05,2.78649e-05,6.40328e-06,-4.99268e-05,1.12355e-05,0
-2.9654e-05,3.76771e-05,1.41353e-05,4.35859e-05,2.4154e-05,5.9193e-06,-2.3378e-05,1.12091e-05,0
-3.86087e-05,5.90427e-05,1.17509e-05,1.43942e-05,2.25626e-05,4.93467e-06,3.10069e-06,1.07362e-05,0
-6.09937e-05,8.1523e-05,4.71709e-06,-1.17512e-05,2.33909e-05,2.55321e-06,2.62457e-05,1.05504e-05,0
-8.39215e-05,0.000121369,-3.63478e-06,-3.42006e-05,2.0268e-05,-4.505e-06,4.58748e-05,1.01845e-05,0
-9.67325e-05,0.000141488,-1.13011e-05,-3.37922e-05,1.15015e-05,-1.44975e-05,6.21489e-05,1.0074e-05,0
-9.73477e-05,0.000103675,-1.76769e-05,4.47661e-06,4.2618e-06,-2.04228e-05,7.25801e-05,9.81235e-06,0
-9.04508e-05,1.88589e-05,-2.28675e-05,5.54061e-05,7.01174e-06,-1.88089e-05,7.51985e-05,8.42624e-06,0
-8.25642e-05,-7.69055e-05,-2.63203e-05,7.70756e-05,1.83671e-05,-1.25173e-05,7.31846e-05,6.22685e-06,0
-8.02832e-05,-0.000151316,-2.4476e-05,6.38892e-05,2.79086e-05,-6.83232e-06,6.97857e-05,5.96753e-06,0
-8.87642e-05,-0.000198019,-1.54928e-05,4.2859e-05,2.87815e-05,-4.8559e-06,6.58458e-05,6.39641e-06,0
-9.43109e-05,-0.000229933,-4.60837e-06,3.19266e-05,2.4377e-05,-6.12537e-06,6.1259e-05,5.87212e-06,0
-7.38559e-05,-0.000250187,1.39841e-06,2.92682e-05,1.86262e-05,-1.04582e-05,5.36859e-05,5.45021e-06,0
-3.10661e-05,-0.00022612,-2.91447e-08,2.43938e-05,1.48068e-05,-1.69982e-05,4.41269e-05,7.12012e-06,0
1.15664e-05,-7.42337e-05,-5.13409e-06,1.16794e-05,1.81274e-05,-2.05471e-05,3.68807e-05,9.03755e-06,0
3.29785e-05,0.000205079,-1.03231e-05,4.558e-07,2.69225e-05,-1.95359e-05,3.41138e-05,7.60097e-06,0
2.78608e-05,0.00048037,-1.52118e-05,-4.188e-06,3.14932e-05,-1.71999e-05,3.24058e-05,5.13461e-06,0
1.17017e-05,0.000606393,-1.71158e-05,-2.46041e-05,2.68342e-05,-1.46491e-05,2.65129e-05,5.34475e-06,0
-7.81033e-06,0.000554708,-1.89703e-05,-5.25682e-05,2.26835e-05,-1.03869e-05,1.76969e-05,6.94638e-06,0
-2.98674e-05,0.000353459,-1.94991e-05,-5.46729e-05,2.43103e-05,-3.37642e-06,9.55581e-06,6.94465e-06,0
-4.76409e-05,3.29639e-05,-1.35034e-05,-3.04429e-05,2.39405e-05,4.08054e-06,1.75166e-06,5.77484e-06,0
-5.71714e-05,-0.000254344,-8.32256e-06,-4.65834e-06,2.07469e-05,8.43803e-06,-3.82055e-06,5.29156e-06,0
-6.39309e-05,-0.000407003,-9.21286e-06,2.329e-06,1.81864e-05,6.92073e-06,-3.39295e-06,4.77561e-06,0
-7.01089e-05,-0.000424256,-1.56923e-05,1.09056e-05,1.8617e-05,1.79839e-06,-3.07575e-07,3.76849e-06,0
-7.34105e-05,-0.00036037,-2.24439e-05,2.69112e-05,1.9431e-05,-4.32707e-06,5.1837e-07,3.81448e-06,0
-7.46189e-05,-0.000278129,-2.19201e-05,2.60111e-05,1.57329e-05,-1.29381e-05,3.57068e-07,3.88502e-06,0
-7.3777e-05,-0.000201459,-1.45163e-05,1.08975e-05,7.87205e-06,-2.10834e-05,2.04534e-06,1.57296e-06,0
-6.89709e-05,-0.000135465,-5.19086e-06,-5.20163e-06,6.34657e-07,-2.40478e-05,4.08072e-06,-1.76099e-06,0
-5.64615e-05,-8.20603e-05,-1.85146e-08,-2.20826e-05,-4.18011e-06,-2.20428e-05,8.0167e-06,-2.58918e-06,0
-3.89746e-05,-5.51563e-05,-8.93458e-07,-4.19714e-05,-1.07409e-05,-1.97336e-05,1.82314e-05,7.78004e-08,0
-2.58818e-05,-4.39616e-05,-5.64795e-06,-5.53033e-05,-1.89696e-05,-1.92016e-05,3.18481e-05,4.06717e-06,0
-2.55667e-05,-4.6242e-05,-1.09783e-05,-5.44645e-05,-2.44036e-05,-2.0266e-05,3.52582e-05,6.22345e-06,0
-3.49883e-05,-6.60634e-05,-1.76971e-05,-4.99178e-05,-2.20275e-05,-2.32349e-05,1.97967e-05,4.85861e-06,0
-4.29967e-05,-9.72574e-05,-2.58452e-05,-5.41797e-05,-1.06912e-05,-2.61921e-05,-5.65035e-06,1.99125e-06,0
-4.20963e-05,-8.99675e-05,-2.97308e-05,-5.27443e-05,3.45817e-06,-2.69329e-05,-2.69012e-05,2.46665e-07,0
-3.43729e-05,-1.98155e-05,-2.59147e-05,-1.5973e-05,1.09823e-05,-2.6397e-05,-3.98333e-05,-8.81098e-07,0
-2.48562e-05,8.03694e-05,-1.69323e-05,5.44881e-05,1.23436e-05,-2.52834e-05,-4.56277e-05,-1.65119e-06,0
-1.62312e-05,0.000157506,-6.97803e-06,0.000122923,1.68655e-05,-2.20746e-05,-4.32596e-05,-1.60924e-06,0
-8.29229e-06,0.000197243,6.74227e-07,0.000154871,2.72118e-05,-1.87962e-05,-3.16395e-05,-1.7035e-07,0
2.46904e-07,0.000208271,4.68672e-06,0.000133996,3.5813e-05,-1.63949e-05,-1.32197e-05,1.49983e-06,0
8.67514e-06,0.000198738,7.1367e-06,7.41414e-05,3.73579e-05,-1.47968e-05,6.35387e-06,1.37932e-06,0
1.70249e-05,0.000168508,1.04111e-05,1.76427e-05,3.49497e-05,-1.39097e-05,2.17992e-05,2.32673e-08,0
2.46512e-05,0.000119894,1.53251e-05,4.66682e-06,3.36815e-05,-1.29087e-05,2.63418e-05,-7.66877e-07,0
2.67283e-05,6.753e-05,2.27269e-05,6.32994e-05,3.11875e-05,-1.1971e-05,2.22041e-05,-1.44103e-06,0
2.13164e-05,2.86968e-05,2.67968e-05,0.000144494,2.41152e-05,-8.55458e-06,1.76531e-05,-1.8335e-06,0
1.64277e-05,8.30506e-06,1.94088e-05,0.0001594,1.60397e-05,-7.73906e-06,1.67309e-05,-2.60052e-06,0
1.62394e-05,-4.6425e-06,-2.92239e-06,0.000101986,1.10265e-05,-1.46656e-05,2.09058e-05,-3.9571e-06,0
1.99395e-05,-7.66008e-08,-3.61816e-05,2.9309e-05,9.31383e-06,-2.12201e-05,2.66663e-05,-5.40405e-06,0
2.88352e-05,3.57546e-05,-6.63264e-05,-6.56264e-06,8.23235e-06,-2.24961e-05,3.0941e-05,-6.45325e-06,0
4.16139e-05,0.000102663,-8.63808e-05,-1.43712e-05,8.69789e-06,-2.34076e-05,3.43469e-05,-5.64896e-06,0
5.29908e-05,0.000161336,-9.43204e-05,-6.56292e-06,1.55228e-05,-2.49628e-05,3.6146e-05,-4.12689e-06,0
5.94685e-05,0.000185648,-8.87628e-05,1.47573e-05,3.19534e-05,-2.40563e-05,3.48511e-05,-2.89491e-06,0
6.00555e-05,0.000179605,-7.30767e-05,3.01267e-05,4.91633e-05,-2.20856e-05,3.17166e-05,-3.05478e-06,0
5.10346e-05,0.000163228,-5.44249e-05,1.84078e-05,5.69693e-05,-2.15621e-05,2.76699e-05,-3.65672e-06,0
3.26834e-05,0.000150586,-3.86772e-05,-4.22424e-05,5.1884e-05,-2.24121e-05,2.29938e-05,-3.41847e-06,0
1.25873e-05,0.000151539,-2.73406e-05,-0.000131755,3.76025e-05,-2.65581e-05,1.913e-05,-4.26931e-06,0
-4.22316e-06,0.000176819,-1.92958e-05,-0.000204525,2.49286e-05,-3.54959e-05,1.59395e-05,-6.37658e-06,0
-1.76199e-05,0.000216119,-1.34678e-05,-0.000235931,2.12949e-05,-2.8504e-05,1.02539e-05,-7.67219e-06,0
