ch1,ch2,ch3,ch4,ch5,ch6,ch7,ch8,class
-3.31247e-05,8.45878e-06,1.51023e-05,1.00986e-05,8.46191e-06,-6.25989e-06,-5.07815e-05,1.8777e-07,0
-3.15328e-05,8.27822e-06,1.73068e-05,5.26774e-06,6.52761e-06,-5.86279e-06,-2.63346e-05,-2.84857e-06,0
-3.11556e-05,7.68248e-06,1.9889e-05,2.8498e-06,6.16242e-06,-5.9577e-06,-3.24011e-06,-5.36559e-06,0
-3.18666e-05,7.30727e-06,2.19789e-05,4.93114e-06,7.14183e-06,-4.92018e-06,1.20764e-05,-5.9725e-06,0
-3.28699e-05,7.00711e-06,2.32572e-05,9.16797e-06,8.92034e-06,-3.97575e-06,2.253e-05,-4.98255e-06,0
-3.40114e-05,7.61069e-06,2.28634e-05,9.19908e-06,1.10585e-05,-3.6735e-06,3.06284e-05,-4.50525e-06,0
-3.47232e-05,9.42997e-06,1.74609e-05,6.38882e-06,1.14547e-05,-2.66805e-06,3.5527e-05,-3.81163e-06,0
-3.60924e-05,1.17023e-05,3.07238e-06,2.89142e-06,1.18506e-05,-2.83078e-06,3.55468e-05,-3.97202e-06,0
-3.52471e-05,1.27381e-05,-1.90203e-05,-2.11163e-06,1.30172e-05,-4.40252e-06,2.76697e-05,-4.93577e-06,0
-3.2638e-05,1.31719e-05,-4.38266e-05,-6.96539e-06,1.36162e-05,-5.63669e-06,1.84303e-05,-2.96172e-06,0
-3.09891e-05,1.24215e-05,-6.34098e-05,-1.02944e-05,1.411e-05,-6.09799e-06,1.51224e-05,-1.61768e-06,0
-3.08717e-05,1.16038e-05,-6.96447e-05,-1.11411e-05,1.43832e-05,-6.62855e-06,1.71798e-05,-1.06755e-06,0
-3.18255e-05,1.15523e-05,-6.23909e-05,-8.98955e-06,1.39539e-05,-6.43545e-06,1.98381e-05,6.82203e-07,0
-3.08049e-05,1.08986e-05,-4.7424e-05,-5.53513e-06,1.3007e-05,-5.6981e-06,2.07494e-05,2.44855e-06,0
-2.98606e-05,1.14481e-05,-3.03213e-05,-1.98494e-06,1.224e-05,-6.09324e-06,2.167e-05,3.23114e-06,0
-3.10156e-05,1.25295e-05,-1.17655e-05,1.09164e-07,1.2471e-05,-7.27012e-06,2.545e-05,2.50911e-06,0
-3.26381e-05,1.17491e-05,1.12515e-05,-7.35127e-07,1.37996e-05,-8.91489e-06,3.16939e-05,1.54983e-06,0
-3.26158e-05,1.00243e-05,3.58511e-05,-2.58509e-06,1.51537e-05,-1.00286e-05,3.55926e-05,1.59462e-06,0
-3.2091e-05,8.57394e-06,5.14862e-05,-2.73996e-06,1.59405e-05,-9.9846e-06,3.22667e-05,2.83064e-06,0
-3.1671e-05,7.10969e-06,4.9684e-05,-2.33386e-06,1.53459e-05,-1.03065e-05,2.37432e-05,3.82905e-06,0
-3.09936e-05,6.22349e-06,3.07866e-05,-3.7023e-06,1.42645e-05,-1.24432e-05,1.77705e-05,3.10597e-06,0
-3.05935e-05,6.14997e-06,7.12617e-07,-6.60269e-06,1.42689e-05,-1.44162e-05,1.53964e-05,1.10174e-06,0
-3.06405e-05,6.19679e-06,-3.31186e-05,-1.02471e-05,1.47077e-05,-1.41928e-05,1.04412e-05,2.1936e-07,0
-3.10579e-05,6.77871e-06,-6.40136e-05,-1.37122e-05,1.47946e-05,-1.26494e-05,-3.30711e-07,1.50254e-06,0
-3.10065e-05,7.9075e-06,-8.58074e-05,-1.65532e-05,1.55082e-05,-1.13639e-05,-9.65589e-06,3.31037e-06,0
-3.09442e-05,8.64849e-06,-9.42477e-05,-1.74908e-05,1.68883e-05,-1.07333e-05,-1.16904e-05,4.73986e-06,0
-3.11069e-05,8.15454e-06,-8.82275e-05,-1.3615e-05,1.76916e-05,-9.95877e-06,-1.06153e-05,5.28148e-06,0
-3.16199e-05,8.58917e-06,-7.44809e-05,-6.07789e-06,1.76006e-05,-9.50482e-06,-1.28676e-05,3.91236e-06,0
-3.11847e-05,1.05749e-05,-6.168e-05,1.63225e-06,1.79142e-05,-9.3472e-06,-1.59678e-05,2.58767e-06,0
-2.98541e-05,1.16457e-05,-4.90788e-05,6.84964e-06,1.90685e-05,-8.19742e-06,-1.52764e-05,3.15187e-06,0
-2.95908e-05,1.15301e-05,-3.64284e-05,5.58525e-06,2.0973e-05,-5.85944e-06,-1.05124e-05,4.26243e-06,0
-3.08973e-05,1.09162e-05,-2.36373e-05,-6.03622e-07,2.37769e-05,-3.64462e-06,-5.44137e-06,4.58262e-06,0
-3.07831e-05,1.06352e-05,-1.333e-05,-7.59431e-06,2.47158e-05,-3.68603e-06,-1.42357e-06,3.30794e-06,0
-2.94935e-05,1.00387e-05,-6.59483e-06,-1.09763e-05,2.38534e-05,-5.13086e-06,5.05153e-06,2.71909e-06,0
-2.91178e-05,8.86484e-06,-9.7864e-07,-8.42607e-06,2.22569e-05,-6.18032e-06,1.47308e-05,3.45713e-06,0
-2.97113e-05,9.51718e-06,2.62485e-06,-9.51891e-07,2.16699e-05,-7.01165e-06,2.17975e-05,4.55728e-06,0
-3.10533e-05,1.20672e-05,5.86154e-06,1.06234e-05,2.38339e-05,-6.36687e-06,2.30702e-05,6.1953e-06,0
-3.1415e-05,1.27234e-05,7.86976e-06,1.86915e-05,2.48267e-05,-5.51671e-06,2.20902e-05,6.77137e-06,0
-2.97432e-05,1.21042e-05,7.84273e-06,1.7554e-05,2.28334e-05,-5.82636e-06,2.05783e-05,6.18137e-06,0
-2.8174e-05,1.46389e-05,6.79412e-06,1.06083e-05,1.94265e-05,-6.31617e-06,1.87694e-05,5.92321e-06,0
-2.8287e-05,2.00998e-05,6.77156e-06,2.26161e-06,1.48377e-05,-7.78126e-06,1.75304e-05,7.28591e-06,0
-2.79836e-05,2.29082e-05,5.91888e-06,-5.45214e-06,1.16322e-05,-9.96329e-06,1.81784e-05,8.50789e-06,0
-2.80253e-05,2.1479e-05,3.53767e-06,-1.09045e-05,1.14306e-05,-1.16082e-05,1.94685e-05,8.32483e-06,0
-2.86805e-05,1.78624e-05,4.96659e-07,-1.52039e-05,1.06867e-05,-1.16779e-05,2.11933e-05,7.33945e-06,0
-2.95201e-05,1.4405e-05,-1.78019e-06,-1.96605e-05,7.82895e-06,-1.09172e-05,2.40704e-05,6.5896e-06,0
-3.13998e-05,1.42214e-05,-2.05695e-06,-2.08913e-05,5.76799e-06,-9.20957e-06,2.69076e-05,6.49762e-06,0
-3.35785e-05,1.6368e-05,-1.24239e-06,-1.7461e-05,5.64905e-06,-7.16628e-06,2.92424e-05,7.08005e-06,0
-3.36577e-05,1.7282e-05,-5.72132e-08,-1.28778e-05,5.64789e-06,-6.67488e-06,3.05445e-05,8.24092e-06,0
-3.1643e-05,1.45358e-05,1.56739e-06,-9.67406e-06,5.13991e-06,-7.5598e-06,2.83133e-05,1.02551e-05,0
-3.05956e-05,9.8564e-06,5.51947e-06,-6.3218e-06,4.76536e-06,-8.76142e-06,2.27556e-05,1.18732e-05,0
-3.11752e-05,5.73192e-06,1.05157e-05,-9.68784e-07,4.32349e-06,-9.19295e-06,1.72162e-05,1.00777e-05,0
-3.14952e-05,3.12117e-06,1.34544e-05,4.68609e-06,3.40682e-06,-8.50727e-06,1.23013e-05,6.22062e-06,0
-2.99288e-05,1.6081e-06,1.12774e-05,7.70019e-06,2.65991e-06,-7.49819e-06,7.54823e-06,4.16327e-06,0
-2.83271e-05,3.14472e-06,6.25945e-06,7.44041e-06,2.48533e-06,-8.43506e-06,4.2828e-06,4.14696e-06,0
-2.7853e-05,7.92686e-06,-9.43711e-07,5.80969e-06,3.3207e-06,-9.66136e-06,2.07425e-06,3.75473e-06,0
-2.76718e-05,1.24775e-05,-9.49837e-06,4.32972e-06,5.32231e-06,-8.30569e-06,2.15609e-06,3.89353e-06,0
-2.87818e-05,1.52022e-05,-1.64239e-05,1.08844e-06,8.33214e-06,-6.33713e-06,5.60558e-06,4.68506e-06,0
-3.08781e-05,1.59301e-05,-2.09484e-05,-6.20579e-06,1.05317e-05,-6.70257e-06,1.01097e-05,3.82131e-06,0
-3.05101e-05,1.67776e-05,-2.18846e-05,-1.70499e-05,1.06122e-05,-9.48649e-06,1.28629e-05,2.33384e-06,0
-3.01072e-05,1.63038e-05,-1.64723e-05,-2.74616e-05,1.02784e-05,-1.23426e-05,1.27136e-05,2.75019e-06,0
-3.14742e-05,1.34207e-05,-7.83286e-06,-3.85597e-05,9.96841e-06,-1.244e-05,1.136e-05,2.67215e-06,0
-3.15435e-05,1.39561e-05,-2.82377e-06,-4.98764e-05,1.0116e-05,-1.04237e-05,1.0113e-05,3.47199e-07,0
-3.10913e-05,1.6685e-05,-1.18875e-06,-5.48402e-05,1.21646e-05,-9.27989e-06,8.46403e-06,-1.96162e-06,0
-3.01569e-05,1.62149e-05,1.29129e-07,-5.05756e-05,1.4253e-05,-9.95392e-06,6.72264e-06,-2.15357e-06,0
-2.90838e-05,1.45008e-05,4.59723e-07,-3.85146e-05,1.43695e-05,-1.05015e-05,7.11701e-06,-1.5304e-06,0
-2.84597e-05,1.50961e-05,-1.85889e-06,-2.50434e-05,1.32416e-05,-9.84605e-06,8.2565e-06,7.04655e-08,0
-2.85611e-05,2.28395e-05,-5.46296e-06,-1.2316e-05,1.12497e-05,-8.67412e-06,8.06344e-06,2.7977e-06,0
-2.78144e-05,3.67187e-05,-7.86021e-06,-8.9675e-07,1.0089e-05,-7.74616e-06,7.42118e-06,4.05742e-06,0
-2.55589e-05,4.58546e-05,-7.87443e-06,8.94189e-06,1.02682e-05,-7.63558e-06,6.95855e-06,3.77162e-06,0
-2.46695e-05,4.37918e-05,-5.40837e-06,1.44201e-05,1.07321e-05,-8.7927e-06,5.65198e-06,3.0847e-06,0
-2.62205e-05,3.41159e-05,-1.36573e-06,1.18811e-05,1.13781e-05,-1.10449e-05,2.93957e-08,3.17655e-06,0
-2.77046e-05,2.24303e-05,2.34911e-06,3.74808e-06,1.36043e-05,-1.2499e-05,-1.26513e-05,3.43618e-06,0
-2.76199e-05,1.24291e-05,5.93543e-06,-4.30131e-06,1.68325e-05,-1.16556e-05,-2.92513e-05,3.04687e-06,0
-2.75401e-05,4.17466e-06,1.24765e-05,-9.91983e-06,1.78411e-05,-1.06127e-05,-4.39909e-05,2.03538e-06,0
-2.73492e-05,-3.95807e-06,2.33741e-05,-1.41895e-05,1.70227e-05,-1.18223e-05,-5.05385e-05,3.31605e-07,0
-2.7159e-05,-1.06184e-05,3.70349e-05,-1.72487e-05,1.6483e-05,-1.42544e-05,-4.19659e-05,-2.07518e-06,0
-2.79034e-05,-1.35454e-05,5.14609e-05,-1.98084e-05,1.67847e-05,-1.5661e-05,-1.77069e-05,-3.90779e-06,0
-2.99438e-05,-1.32823e-05,6.15213e-05,-1.97304e-05,1.82015e-05,-1.52835e-05,1.30463e-05,-4.42952e-06,0
-3.18493e-05,-1.2694e-05,6.07685e-05,-1.73095e-05,1.94115e-05,-1.49255e-05,3.81537e-05,-3.8383e-06,0
-3.25483e-05,-1.15408e-05,4.70284e-05,-1.4324e-05,1.84421e-05,-1.65079e-05,5.38109e-05,-3.87571e-06,0
-3.2062e-05,-7.84674e-06,2.35132e-05,-8.26535e-06,1.68421e-05,-2.03184e-05,6.38828e-05,-4.4916e-06,0
-3.23099e-05,-2.62885e-06,-7.3364e-06,3.49611e-06,1.54208e-05,-2.41727e-05,6.94321e-05,-4.10977e-06,0
-3.39951e-05,1.48204e-06,-3.95624e-05,1.6581e-05,1.34408e-05,-2.53498e-05,6.93402e-05,-3.1599e-06,0
-3.47175e-05,3.44101e-06,-6.39373e-05,2.26035e-05,1.2608e-05,-2.44433e-05,6.42374e-05,-1.85839e-06,0
-3.41714e-05,4.18487e-06,-7.60647e-05,1.76582e-05,1.42063e-05,-2.46973e-05,5.58294e-05,-2.1278e-06,0
-3.29008e-05,2.70635e-06,-7.52898e-05,7.5752e-06,1.53079e-05,-2.41396e-05,4.83849e-05,-4.03109e-06,0
-3.23309e-05,-1.76156e-07,-6.40399e-05,-7.22931e-08,1.41915e-05,-2.13531e-05,4.63408e-05,-5.77894e-06,0
-3.33419e-05,-4.09628e-07,-4.95709e-05,-5.36912e-06,1.22567e-05,-1.97718e-05,4.74222e-05,-7.32408e-06,0
-3.43985e-05,7.28124e-07,-3.7801e-05,-9.08548e-06,1.15445e-05,-2.02369e-05,4.65253e-05,-7.14387e-06,0
-3.32111e-05,2.45251e-06,-2.93208e-05,-1.15952e-05,1.28146e-05,-2.26736e-05,4.27467e-05,-5.34697e-06,0
-3.08931e-05,5.1006e-06,-2.28897e-05,-1.34332e-05,1.47063e-05,-2.42765e-05,3.57728e-05,-5.55713e-06,0
-3.07869e-05,9.46293e-06,-1.69321e-05,-1.32091e-05,1.50458e-05,-2.25374e-05,2.62688e-05,-6.21418e-06,0
-3.13252e-05,1.50178e-05,-1.23897e-05,-1.19784e-05,1.29394e-05,-1.86935e-05,1.84419e-05,-5.60788e-06,0
-3.1637e-05,1.92261e-05,-9.84209e-06,-1.05716e-05,1.02884e-05,-1.44546e-05,1.36151e-05,-5.41156e-06,0
-3.14951e-05,2.34435e-05,-9.67943e-06,-9.97353e-06,7.34662e-06,-1.25039e-05,9.12834e-06,-3.86876e-06,0
-3.0112e-05,2.5189e-05,-9.85776e-06,-9.29851e-06,4.50795e-06,-1.27927e-05,6.73334e-06,-1.512e-06,0
-2.93944e-05,2.41955e-05,-8.7038e-06,-5.94607e-06,2.46151e-06,-1.39102e-05,7.13783e-06,8.38394e-08,0
-2.98125e-05,2.21619e-05,-7.76271e-06,1.58051e-06,6.56257e-07,-1.46986e-05,9.84862e-06,1.32861e-07,0
-3.01101e-05,2.03477e-05,-6.67752e-06,1.01414e-05,-8.18866e-07,-1.3831e-05,1.29826e-05,-9.89211e-07,0
-2.91834e-05,1.92281e-05,-3.87694e-06,1.6077e-05,-1.50639e-06,-1.11855e-05,1.25755e-05,-2.07138e-06,0
-2.83958e-05,1.89119e-05,-6.92333e-07,1.77837e-05,-1.57644e-06,-7.73231e-06,9.8434e-06,-2.47901e-06,0
-2.88462e-05,1.91375e-05,5.39205e-08,1.32379e-05,-2.05653e-06,-5.06558e-06,8.54362e-06,-2.55512e-06,0
-2.99181e-05,1.92256e-05,-9.13967e-07,3.6505e-06,-3.46394e-06,-3.87327e-06,9.95495e-06,-2.90574e-06,0
-3.01081e-05,1.94667e-05,-1.8668e-06,-7.71685e-06,-4.8473e-06,-3.48638e-06,1.17132e-05,-2.66884e-06,0
-2.94346e-05,1.96272e-05,-1.1423e-06,-1.70909e-05,-4.60244e-06,-2.54392e-06,1.22051e-05,-2.38851e-06,0
-2.85252e-05,1.98837e-05,7.14176e-07,-2.35313e-05,-3.98982e-06,-2.05381e-06,1.23522e-05,-2.06119e-06,0
-2.79391e-05,1.92027e-05,9.38347e-07,-2.78369e-05,-4.47411e-06,-1.8638e-06,1.30698e-05,-2.1002e-06,0
-2.74802e-05,1.89943e-05,9.85559e-08,-3.00053e-05,-4.75726e-06,-1.28449e-06,1.28862e-05,-2.48487e-06,0
-2.57222e-05,2.14406e-05,7.02994e-07,-2.75738e-05,-5.74442e-06,-2.89777e-07,1.1444e-05,-1.74389e-06,0
-2.34404e-05,3.0019e-05,2.72546e-06,-2.15674e-05,-7.51136e-06,3.04614e-07,8.98851e-06,-8.33543e-07,0
-2.23109e-05,4.33701e-05,4.06286e-06,-1.41633e-05,-8.08781e-06,-8.00754e-07,6.05036e-06,-9.06509e-07,0
-2.23334e-05,5.31123e-05,2.3727e-06,-7.48018e-06,-6.5463e-06,-2.06749e-06,3.94992e-06,2.50834e-07,0
-2.3001e-05,5.58149e-05,-1.42175e-06,-2.57782e-06,-3.20917e-06,-2.26971e-06,2.55159e-06,2.8945e-06,0
-2.55287e-05,5.30547e-05,-5.21188e-06,1.43461e-06,1.3845e-06,-8.01259e-07,3.52364e-07,3.82052e-06,0
-2.8078e-05,4.25509e-05,-1.1157e-05,6.62227e-06,8.83627e-06,1.95724e-06,-2.35616e-06,2.81653e-06,0
-2.80631e-05,2.44547e-05,-1.78452e-05,1.14737e-05,1.62942e-05,4.20048e-06,-4.98146e-06,2.40546e-06,0
-2.74088e-05,2.17881e-06,-2.01123e-05,1.26119e-05,1.97655e-05,5.04935e-06,-4.76822e-06,3.04599e-06,0
-2.87276e-05,-1.98835e-05,-1.97059e-05,1.00762e-05,1.99097e-05,5.66855e-06,-2.37151e-06,3.67566e-06,0
-3.0269e-05,-3.67962e-05,-1.78495e-05,5.21908e-06,1.75244e-05,5.28493e-06,-2.27907e-06,3.3342e-06,0
-3.11239e-05,-4.54111e-05,-1.63731e-05,1.01639e-06,1.47672e-05,2.92832e-06,-3.97907e-06,2.56741e-06,0
-3.30846e-05,-4.43816e-05,-1.63831e-05,-7.24592e-07,1.39996e-05,7.92235e-07,-5.07457e-06,2.04301e-06,0
-3.44972e-05,-3.5575e-05,-1.58339e-05,-1.51273e-06,1.45859e-05,4.27129e-07,-2.49895e-06,2.30392e-06,0
-3.41196e-05,-2.45465e-05,-1.41024e-05,-4.25456e-06,1.50315e-05,9.62013e-07,3.22245e-06,2.96306e-06,0
-3.29928e-05,-1.48451e-05,-1.00522e-05,-5.82425e-06,1.54295e-05,1.24134e-06,8.25219e-06,4.08611e-06,0
-3.18548e-05,-8.50497e-06,-5.97534e-06,-2.09766e-06,1.72291e-05,1.5095e-06,1.06437e-05,4.74331e-06,0
-3.07313e-05,-6.17667e-06,-3.80338e-06,5.82257e-06,2.12995e-05,1.45367e-06,1.15207e-05,3.51172e-06,0
-2.99202e-05,-3.12944e-06,-3.6003e-06,1.32262e-05,2.62219e-05,3.35882e-07,1.04286e-05,1.90951e-06,0
-2.97124e-05,2.74494e-06,-4.59807e-06,1.64146e-05,2.95858e-05,-1.75617e-06,8.8276e-06,1.43285e-06,0
-2.98733e-05,8.80049e-06,-7.56276e-06,1.3307e-05,2.96462e-05,-4.0897e-06,1.00382e-05,2.36385e-06,0
-3.08489e-05,1.22755e-05,-1.10509e-05,4.6103e-06,2.70884e-05,-6.69732e-06,1.37426e-05,3.62646e-06,0
-3.25507e-05,1.25317e-05,-1.22467e-05,-5.48752e-06,2.5545e-05,-8.30931e-06,1.55831e-05,3.35587e-06,0
-3.33424e-05,1.07623e-05,-1.11215e-05,-1.30434e-05,2.57999e-05,-7.58918e-06,1.4049e-05,8.77835e-07,0
-3.28662e-05,9.8345e-06,-9.6062e-06,-1.80056e-05,2.54355e-05,-6.52026e-06,1.22905e-05,-1.83857e-06,0
-3.18442e-05,1.04651e-05,-8.9145e-06,-2.04625e-05,2.24931e-05,-7.76286e-06,1.29027e-05,-2.30315e-06,0
-3.0067e-05,1.21283e-05,-8.60138e-06,-1.88763e-05,1.87767e-05,-1.01828e-05,1.3957e-05,-1.25169e-06,0
-2.76432e-05,1.5337e-05,-8.26566e-06,-1.50299e-05,1.67145e-05,-1.01764e-05,1.26123e-05,-1.77149e-06,0
-2.63972e-05,1.94765e-05,-8.63119e-06,-1.27812e-05,1.50116e-05,-8.20474e-06,1.07134e-05,-2.89986e-06,0
-2.73642e-05,2.1764e-05,-8.44898e-06,-1.28294e-05,1.43343e-05,-6.65442e-06,9.88407e-06,-3.13351e-06,0
-2.91475e-05,2.15626e-05,-7.45097e-06,-1.21085e-05,1.54093e-05,-6.01562e-06,1.05102e-05,-3.23648e-06,0
-3.03716e-05,1.93558e-05,-7.49249e-06,-8.75641e-06,1.87733e-05,-6.46922e-06,9.94741e-06,-3.85483e-06,0
-2.94727e-05,1.93375e-05,-6.64925e-06,-2.27081e-06,2.39436e-05,-6.08625e-06,6.40315e-06,-5.19139e-06,0
-2.83969e-05,2.34155e-05,-4.84001e-06,4.8915e-06,2.81002e-05,-4.46105e-06,3.90655e-06,-5.99857e-06,0
-2.79196e-05,2.64258e-05,-5.00164e-06,7.77815e-06,2.78022e-05,-2.64995e-06,4.92083e-06,-4.79364e-06,0
-2.81701e-05,2.66563e-05,-6.29237e-06,6.61461e-06,2.37245e-05,-2.49173e-06,6.45712e-06,-2.35806e-06,0
-3.00381e-05,2.7589e-05,-5.17531e-06,4.34576e-06,1.94575e-05,-4.37933e-06,8.74942e-06,-9.54274e-07,0
-3.07004e-05,2.93233e-05,-3.14431e-06,3.36119e-06,1.55531e-05,-5.32126e-06,1.08052e-05,-2.29087e-06,0
-2.90697e-05,2.96005e-05,-2.42611e-06,4.96424e-06,1.34311e-05,-5.15719e-06,1.18323e-05,-3.02107e-06,0
-2.69274e-05,2.93338e-05,-4.72938e-06,5.84901e-06,1.29083e-05,-3.85103e-06,1.38773e-05,-2.86473e-06,0
-2.66479e-05,3.03941e-05,-5.75416e-06,4.83728e-06,1.29323e-05,-1.68541e-06,1.68215e-05,-3.72948e-06,0
-2.72078e-05,3.3094e-05,-3.99127e-06,3.39199e-06,1.27511e-05,5.87475e-07,1.97556e-05,-5.04919e-06,0
-2.85845e-05,3.5741e-05,-1.32675e-06,3.3288e-06,1.22523e-05,8.74258e-07,2.10603e-05,-5.51495e-06,0
-3.0271e-05,3.64739e-05,8.47558e-07,3.66038e-06,1.13161e-05,-1.07832e-06,2.06257e-05,-4.76505e-06,0
-3.12821e-05,3.50714e-05,7.98468e-07,3.54301e-06,9.92668e-06,-3.26886e-06,1.96802e-05,-4.4908e-06,0
-3.22339e-05,3.25429e-05,-9.58485e-07,3.9442e-06,9.42263e-06,-4.69931e-06,1.87944e-05,-4.21381e-06,0
-3.27575e-05,2.8813e-05,-3.74247e-06,3.64408e-06,1.04611e-05,-5.53878e-06,1.72479e-05,-3.74532e-06,0
-3.25323e-05,2.38955e-05,-6.07244e-06,3.24271e-06,1.16751e-05,-6.31138e-06,1.48931e-05,-3.37247e-06,0
-3.16093e-05,1.85416e-05,-8.17919e-06,3.50538e-06,1.19129e-05,-6.68769e-06,1.1996e-05,-3.04512e-06,0
-3.14488e-05,1.47729e-05,-9.69599e-06,3.32927e-06,1.19233e-05,-7.02888e-06,9.83308e-06,-1.56391e-06,0
-3.19142e-05,1.34209e-05,-1.08637e-05,1.7313e-06,1.15864e-05,-7.10552e-06,8.72557e-06,-1.1027e-06,0
-3.18051e-05,1.4228e-05,-1.17397e-05,-4.05623e-07,1.05565e-05,-7.44004e-06,8.83315e-06,-3.19113e-06,0
-3.20528e-05,1.56738e-05,-1.31952e-05,-2.67222e-06,1.0172e-05,-8.72041e-06,9.15713e-06,-5.12219e-06,0
-3.38401e-05,1.6346e-05,-1.4699e-05,-4.58802e-06,1.17764e-05,-1.05349e-05,9.06196e-06,-3.46426e-06,0
-3.46156e-05,1.46782e-05,-1.65195e-05,-7.1767e-06,1.38102e-05,-1.06811e-05,8.59582e-06,-3.00853e-07,0
-3.33214e-05,1.13049e-05,-1.88895e-05,-9.47947e-06,1.43522e-05,-9.96181e-06,7.86457e-06,1.49978e-06,0
-3.23984e-05,1.1107e-05,-2.12646e-05,-9.23879e-06,1.43019e-05,-9.72944e-06,9.21031e-06,2.44389e-06,0
-3.25392e-05,1.43296e-05,-2.24122e-05,-7.88442e-06,1.57258e-05,-1.00383e-05,1.23801e-05,2.42494e-06,0
-3.2447e-05,1.40128e-05,-2.29559e-05,-7.1801e-06,1.66723e-05,-1.09394e-05,1.33309e-05,2.43065e-06,0
-3.2878e-05,9.83351e-06,-2.15899e-05,-5.13965e-06,1.64405e-05,-1.15539e-05,8.82709e-06,3.63485e-06,0
-3.29401e-05,5.62093e-06,-1.79433e-05,-6.03709e-07,1.58297e-05,-1.27517e-05,2.7649e-06,3.87194e-06,0
-3.21035e-05,4.57649e-06,-1.35283e-05,1.42352e-06,1.45239e-05,-1.39597e-05,1.55031e-06,3.31492e-06,0
-3.12779e-05,7.19669e-06,-1.00796e-05,3.27637e-08,1.29259e-05,-1.38907e-05,5.22208e-06,3.89418e-06,0
-3.08575e-05,8.89572e-06,-8.12778e-06,-1.638e-06,1.13966e-05,-1.22446e-05,7.87416e-06,4.5946e-06,0
-3.07436e-05,9.14899e-06,-4.42429e-06,-2.47034e-06,1.03201e-05,-1.15705e-05,8.59251e-06,4.29518e-06,0
-2.95397e-05,8.32533e-06,4.88731e-07,-2.3015e-06,9.83024e-06,-1.20429e-05,1.10168e-05,2.52053e-06,0
-2.93216e-05,7.06859e-06,8.11359e-06,-1.96106e-06,9.28262e-06,-1.20477e-05,1.43091e-05,1.9131e-06,0
-2.97435e-05,5.97409e-06,1.87799e-05,-3.32576e-06,5.90104e-06,-1.14647e-05,1.82244e-05,3.59761e-06,0
-2.98812e-05,6.03607e-06,2.95524e-05,-6.40842e-06,1.59271e-06,-1.07776e-05,2.28441e-05,5.80416e-06,0
-2.97074e-05,6.91101e-06,3.78237e-05,-1.00467e-05,-4.89456e-07,-1.03595e-05,2.58417e-05,6.45268e-06,0
-2.92421e-05,6.58692e-06,4.2293e-05,-1.25461e-05,-8.55155e-07,-9.96054e-06,2.66153e-05,7.36821e-06,0
-2.88658e-05,5.60925e-06,3.86463e-05,-1.35949e-05,-3.9699e-07,-9.50947e-06,2.70156e-05,8.84602e-06,0
-3.03849e-05,5.72264e-06,2.16781e-05,-1.44372e-05,9.27459e-07,-9.27521e-06,3.05743e-05,8.56219e-06,0
-3.28191e-05,7.12574e-06,-6.40995e-06,-1.60022e-05,3.497e-06,-1.11057e-05,3.89222e-05,6.99891e-06,0
-3.26784e-05,8.40898e-06,-3.77015e-05,-1.97667e-05,6.14276e-06,-1.38148e-05,4.76682e-05,6.11337e-06,0
-3.10316e-05,8.99524e-06,-6.26698e-05,-2.47707e-05,6.94266e-06,-1.50646e-05,5.10851e-05,7.05797e-06,0
-3.02652e-05,1.12632e-05,-7.29874e-05,-2.83453e-05,6.08361e-06,-1.42884e-05,5.00752e-05,8.54123e-06,0
-3.10053e-05,2.00442e-05,-6.82552e-05,-2.98726e-05,4.59387e-06,-1.33166e-05,4.89508e-05,9.11386e-06,0
-3.23638e-05,3.46504e-05,-5.66737e-05,-3.11603e-05,3.47603e-06,-1.34648e-05,4.67179e-05,8.44926e-06,0
-3.26864e-05,4.76259e-05,-4.42624e-05,-3.16196e-05,4.79187e-06,-1.43805e-05,4.02331e-05,6.75843e-06,0
-3.03383e-05,5.50337e-05,-3.24143e-05,-2.88188e-05,7.72401e-06,-1.44036e-05,2.85833e-05,3.90836e-06,0
-2.78091e-05,5.76742e-05,-2.29029e-05,-2.07811e-05,1.02772e-05,-1.30049e-05,1.06017e-05,1.59274e-06,0
-2.71801e-05,5.42749e-05,-1.52017e-05,-5.69803e-06,1.19655e-05,-1.22932e-05,-1.17499e-05,1.49346e-06,0
-2.7768e-05,4.50894e-05,-7.5115e-06,1.31966e-05,1.49097e-05,-1.29407e-05,-3.57371e-05,3.4144e-06,0
-2.71982e-05,3.44608e-05,-1.46509e-06,2.98724e-05,1.86916e-05,-1.24742e-05,-5.48691e-05,4.21329e-06,0
-2.53771e-05,2.27092e-05,3.46267e-06,4.32672e-05,2.20612e-05,-1.15257e-05,-6.04551e-05,2.65475e-06,0
-2.52825e-05,7.56083e-06,9.61612e-06,5.15174e-05,2.50731e-05,-1.33376e-05,-5.06189e-05,1.61187e-06,0
-2.68192e-05,-1.12897e-05,1.35113e-05,5.38619e-05,2.52119e-05,-1.56699e-05,-3.0211e-05,7.11696e-07,0
-2.85431e-05,-2.85477e-05,1.19159e-05,4.59233e-05,2.31679e-05,-1.54041e-05,-9.27844e-06,1.62554e-07,0
-3.02537e-05,-3.45379e-05,7.25555e-06,2.82653e-05,2.1813e-05,-1.43756e-05,6.31961e-06,-1.3758e-07,0
-3.15772e-05,-2.76786e-05,2.08858e-07,1.28454e-05,2.21122e-05,-1.40797e-05,1.60985e-05,9.1388e-07,0
-3.19463e-05,-1.61793e-05,-9.43392e-06,2.95507e-06,2.22685e-05,-1.3769e-05,2.36679e-05,2.45324e-06,0
-3.09231e-05,-9.61927e-06,-1.924e-05,-1.80252e-06,2.14931e-05,-1.38949e-05,2.77177e-05,8.73598e-07,0
-3.10155e-05,-8.34166e-06,-2.48406e-05,-6.2576e-06,1.95936e-05,-1.43056e-05,2.55805e-05,-9.29194e-07,0
-3.13624e-05,-5.62904e-06,-2.2791e-05,-1.36284e-05,1.58817e-05,-1.50968e-05,2.11516e-05,-1.25599e-06,0
-3.02041e-05,1.00341e-06,-1.53927e-05,-2.24086e-05,1.25672e-05,-1.52753e-05,1.87232e-05,-1.41096e-06,0
-2.90682e-05,7.49037e-06,-8.89959e-06,-2.9833e-05,1.13259e-05,-1.46853e-05,1.81706e-05,-2.77065e-06,0
-2.91244e-05,9.80841e-06,-7.07959e-06,-3.39016e-05,1.21605e-05,-1.39692e-05,1.81429e-05,-3.54679e-06,0
-3.00274e-05,1.06717e-05,-8.77891e-06,-3.46096e-05,1.4816e-05,-1.33036e-05,2.02797e-05,-2.21123e-06,0
-3.07342e-05,1.43783e-05,-1.08087e-05,-2.98352e-05,1.86231e-05,-1.26794e-05,2.55921e-05,-2.60153e-07,0
-3.19474e-05,1.97508e-05,-1.15464e-05,-1.94106e-05,2.23366e-05,-1.27981e-05,3.29476e-05,-2.31645e-08,0
-3.33307e-05,2.26026e-05,-1.13959e-05,-7.17389e-06,2.42884e-05,-1.45461e-05,3.86913e-05,-1.80893e-06,0
-3.45949e-05,2.1694e-05,-1.19356e-05,-2.88905e-07,2.32148e-05,-1.68057e-05,4.04061e-05,-3.21974e-06,0
-3.4779e-05,1.879e-05,-1.27026e-05,-1.99005e-07,1.95449e-05,-1.82865e-05,3.68298e-05,-2.48324e-06,0
-3.38471e-05,1.70342e-05,-1.18481e-05,-3.19687e-06,1.62627e-05,-1.81703e-05,2.94365e-05,-7.50433e-07,0
-3.25209e-05,1.73004e-05,-1.01366e-05,-6.18895e-06,1.59758e-05,-1.68947e-05,2.14167e-05,-5.60922e-08,0
-3.15474e-05,1.55919e-05,-9.20992e-06,-8.65281e-06,1.74116e-05,-1.53488e-05,1.45845e-05,-6.11666e-07,0
-3.1044e-05,9.083e-06,-8.9496e-06,-1.19238e-05,1.67404e-05,-1.39618e-05,6.88247e-06,-1.83102e-06,0
-3.12167e-05,8.80111e-07,-8.07531e-06,-1.86457e-05,1.25165e-05,-1.38366e-05,-3.08482e-06,-2.08856e-06,0
-3.22141e-05,-1.75082e-06,-6.34901e-06,-2.68461e-05,8.49667e-06,-1.31083e-05,-1.38717e-05,-2.31516e-06,0
-3.24745e-05,2.9818e-06,-5.45754e-06,-3.16357e-05,8.68145e-06,-9.13039e-06,-2.1312e-05,-1.23871e-06,0
-3.14448e-05,9.32045e-06,-5.30464e-06,-3.16555e-05,1.18927e-05,-5.42501e-06,-2.25226e-05,1.85551e-06,0
-3.05128e-05,1.47437e-05,-4.4417e-06,-2.80273e-05,1.39121e-05,-3.38612e-06,-1.8069e-05,3.12943e-06,0
-2.87043e-05,1.68897e-05,-3.11332e-06,-2.43633e-05,1.35532e-05,-3.02846e-06,-1.08674e-05,1.88414e-06,0
-2.74005e-05,1.60148e-05,-2.19789e-06,-1.94068e-05,1.14474e-05,-4.5832e-06,-5.60071e-06,6.73437e-07,0
-2.77705e-05,1.4247e-05,-5.11246e-07,-1.09776e-05,9.81347e-06,-4.73164e-06,-4.03626e-06,1.3056e-06,0
-2.77601e-05,1.21724e-05,1.14493e-06,-1.64174e-06,1.13103e-05,-3.01237e-06,-4.34672e-06,3.94033e-06,0
-2.86755e-05,1.16143e-05,-7.16605e-07,7.49955e-06,1.23119e-05,-2.30229e-06,-2.54856e-06,6.2089e-06,0
-2.91354e-05,1.12489e-05,-3.47701e-06,1.38605e-05,1.07621e-05,-3.90641e-06,1.18617e-06,6.11036e-06,0
-2.73236e-05,1.26862e-05,-4.13491e-06,1.71468e-05,9.28649e-06,-5.42828e-06,3.78071e-06,4.29289e-06,0
-2.54084e-05,1.56576e-05,-2.53285e-06,1.95811e-05,9.17054e-06,-4.42475e-06,4.3612e-06,3.07689e-06,0
-2.44518e-05,1.67281e-05,-1.34436e-06,1.99574e-05,9.80064e-06,-2.7113e-06,4.45665e-06,2.87424e-06,0
-2.52074e-05,1.28745e-05,-2.76486e-06,1.52883e-05,1.10138e-05,-2.54252e-06,5.57055e-06,2.74713e-06,0
-2.81667e-05,5.61656e-06,-6.41418e-06,5.498e-06,1.27756e-05,-4.63916e-06,8.37197e-06,3.59166e-06,0
-3.19109e-05,9.37847e-07,-9.60841e-06,-5.07875e-06,1.35053e-05,-7.49978e-06,1.40495e-05,4.76725e-06,0
-3.43074e-05,1.32111e-06,-1.03901e-05,-1.17029e-05,1.30131e-05,-8.53186e-06,2.16672e-05,4.11374e-06,0
-3.57787e-05,5.01915e-06,-1.02192e-05,-1.16564e-05,1.21633e-05,-8.25083e-06,2.62401e-05,2.21844e-06,0
-3.70913e-05,9.96722e-06,-1.04564e-05,-6.4346e-06,1.17587e-05,-7.66919e-06,2.59556e-05,8.95687e-07,0
-3.7199e-05,1.68073e-05,-1.24641e-05,2.37881e-07,1.25235e-05,-7.65879e-06,2.33188e-05,4.55297e-07,0
-3.60949e-05,2.61956e-05,-1.52139e-05,3.06441e-06,1.45419e-05,-8.38755e-06,2.20899e-05,1.10548e-06,0
-3.36494e-05,3.71246e-05,-1.62778e-05,1.24319e-06,1.58816e-05,-9.87551e-06,2.34361e-05,2.01319e-06,0
-3.05226e-05,4.67253e-05,-1.52216e-05,-2.8407e-07,1.56017e-05,-1.12551e-05,2.53876e-05,1.40984e-06,0
-2.76262e-05,5.39549e-05,-1.34956e-05,2.12432e-06,1.47786e-05,-1.18624e-05,2.62944e-05,-4.32509e-07,0
-2.67047e-05,5.77056e-05,-1.03752e-05,4.49119e-06,1.41392e-05,-1.15999e-05,2.43303e-05,-1.30688e-06,0
-2.76608e-05,5.68654e-05,-5.00352e-06,9.38285e-07,1.48099e-05,-9.93612e-06,2.11323e-05,-1.35046e-06,0
-2.82672e-05,5.11936e-05,1.19589e-06,-7.39347e-06,1.58289e-05,-9.01479e-06,1.99824e-05,-2.36203e-06,0
-2.83601e-05,4.13124e-05,3.73649e-06,-1.48652e-05,1.5276e-05,-1.0002e-05,2.01551e-05,-4.64734e-06,0
-2.75673e-05,3.00307e-05,2.2847e-06,-1.88335e-05,1.41009e-05,-1.0905e-05,2.17047e-05,-5.31639e-06,0
-2.68975e-05,2.33286e-05,3.15487e-07,-2.07154e-05,1.48388e-05,-1.09134e-05,2.25182e-05,-4.51803e-06,0
-2.82121e-05,1.93343e-05,-5.15e-06,-2.15753e-05,1.76422e-05,-1.02251e-05,2.08017e-05,-3.9933e-06,0
-2.91558e-05,1.09668e-05,-1.60025e-05,-2.19786e-05,1.84822e-05,-8.49942e-06,1.78856e-05,-3.09956e-06,0
-2.95891e-05,1.42595e-06,-2.56104e-05,-2.22371e-05,1.56031e-05,-8.07058e-06,1.38976e-05,-1.97198e-06,0
-3.00175e-05,-6.32148e-06,-3.08668e-05,-2.26115e-05,1.31918e-05,-1.06547e-05,1.04852e-05,-1.42463e-06,0
-3.09571e-05,-1.51762e-05,-2.96943e-05,-2.25463e-05,1.47905e-05,-1.34209e-05,7.54582e-06,-5.42962e-07,0
-3.1763e-05,-2.52303e-05,-2.36116e-05,-2.01329e-05,1.83253e-05,-1.46434e-05,6.42474e-06,2.32089e-06,0
-3.07797e-05,-3.10756e-05,-1.78894e-05,-1.67658e-05,1.95206e-05,-1.58401e-05,8.13881e-06,4.27081e-06,0
-2.98485e-05,-3.17198e-05,-1.36495e-05,-1.49303e-05,1.85843e-05,-1.63429e-05,1.0122e-05,3.0839e-06,0
-3.03757e-05,-2.90343e-05,-1.18229e-05,-1.2826e-05,1.71425e-05,-1.54621e-05,9.50179e-06,2.19542e-07,0
-3.18794e-05,-2.53675e-05,-1.02689e-05,-1.07737e-05,1.61116e-05,-1.47297e-05,8.36731e-06,-1.38203e-07,0
-3.22848e-05,-2.19476e-05,-8.9493e-06,-8.75641e-06,1.64059e-05,-1.58147e-05,8.79661e-06,7.58181e-07,0
-3.14284e-05,-1.72724e-05,-7.5704e-06,-5.9797e-06,1.73513e-05,-1.76544e-05,9.53219e-06,-3.59246e-07,0
-2.90803e-05,-1.08992e-05,-5.55805e-06,-2.97609e-06,1.7062e-05,-1.77402e-05,9.63082e-06,-1.33021e-06,0
-2.67356e-05,-2.60828e-06,-3.93023e-06,-1.07955e-06,1.48049e-05,-1.62175e-05,8.07018e-06,-2.13795e-07,0
-2.6451e-05,5.56563e-06,-3.44616e-06,-1.97705e-07,1.32267e-05,-1.40297e-05,6.60263e-06,1.96747e-06,0
-2.86456e-05,1.19213e-05,-2.58775e-06,1.57963e-07,1.33161e-05,-1.20875e-05,8.07619e-06,3.49828e-06,0
-3.17405e-05,1.43306e-05,-5.65904e-07,-8.25741e-07,1.34723e-05,-1.08748e-05,1.21261e-05,4.09654e-06,0
-3.33068e-05,1.43031e-05,6.82634e-07,-2.33962e-06,1.24743e-05,-1.04728e-05,1.55472e-05,3.30881e-06,0
-3.30572e-05,1.55557e-05,2.76434e-08,-1.77574e-06,1.13006e-05,-1.10083e-05,1.75897e-05,1.39683e-06,0
-3.20077e-05,1.78328e-05,-1.50334e-06,2.69219e-06,1.1042e-05,-1.24684e-05,1.87861e-05,-6.84822e-07,0
-3.06375e-05,1.91642e-05,-1.38993e-06,7.28053e-06,9.81346e-06,-1.33563e-05,1.9507e-05,-8.65413e-07,0
-2.96986e-05,2.04274e-05,8.45776e-07,8.39758e-06,6.39038e-06,-1.25277e-05,1.93158e-05,3.1268e-07,0
-2.97186e-05,2.28914e-05,3.30587e-06,7.14549e-06,4.09242e-06,-1.15714e-05,1.72205e-05,5.71707e-08,0
-2.96205e-05,2.42006e-05,3.16281e-06,4.91662e-06,5.27591e-06,-1.15216e-05,1.59854e-05,-1.39508e-06,0
-2.91356e-05,2.49396e-05,1.67668e-06,1.07647e-06,7.13526e-06,-1.2044e-05,1.80607e-05,-1.27927e-06,0
-2.88586e-05,2.63082e-05,2.36052e-06,-3.9633e-06,6.43145e-06,-1.14073e-05,2.01631e-05,4.36609e-07,0
-2.76903e-05,2.65469e-05,5.47234e-06,-8.1096e-06,4.99121e-06,-9.92855e-06,1.9829e-05,2.34263e-06,0
-2.50478e-05,2.60797e-05,7.56313e-06,-9.03254e-06,5.20284e-06,-8.23592e-06,1.78498e-05,2.66236e-06,0
-2.34847e-05,2.78169e-05,7.02451e-06,-6.54964e-06,5.99883e-06,-6.03873e-06,1.50684e-05,2.00532e-06,0
-2.22558e-05,3.06094e-05,6.40722e-06,-7.38488e-06,6.33717e-06,-6.05886e-06,1.13071e-05,1.40678e-06,0
-2.21093e-05,2.95991e-05,5.30179e-06,-1.26191e-05,6.72486e-06,-8.13897e-06,8.69552e-06,1.05153e-06,0
-2.35099e-05,2.71487e-05,3.75191e-06,-1.42693e-05,8.72066e-06,-9.2652e-06,8.27401e-06,1.15393e-06,0
-2.53208e-05,2.7115e-05,3.09221e-06,-1.20425e-05,1.04488e-05,-9.14334e-06,7.87346e-06,2.51177e-07,0
-2.66018e-05,2.87001e-05,1.72361e-06,-9.94005e-06,1.10688e-05,-9.82077e-06,6.31076e-06,-5.55349e-07,0
-2.57015e-05,3.04922e-05,-5.19334e-07,-9.58708e-06,1.07573e-05,-1.07084e-05,4.68916e-06,-7.75447e-07,0
-2.48521e-05,3.12587e-05,-4.1166e-06,-7.25574e-06,1.05448e-05,-1.12002e-05,5.65213e-06,-2.53492e-07,0
-2.61378e-05,3.10344e-05,-8.1072e-06,-2.50629e-06,1.12469e-05,-1.10643e-05,7.99267e-06,-7.67114e-08,0
-2.88285e-05,2.98177e-05,-9.51207e-06,2.18244e-06,1.35625e-05,-1.07127e-05,8.75038e-06,1.51983e-07,0
-3.03687e-05,2.76527e-05,-7.41351e-06,6.50623e-06,1.69869e-05,-1.05165e-05,6.81496e-06,4.64367e-07,0
-3.05693e-05,2.48612e-05,-4.15085e-06,9.33689e-06,1.85943e-05,-1.04518e-05,4.27991e-06,2.96348e-07,0
-3.02401e-05,2.1868e-05,-2.10972e-06,1.18181e-05,1.88101e-05,-1.06788e-05,3.48207e-06,5.82383e-07,0
-3.01089e-05,1.82486e-05,-1.1764e-06,1.37555e-05,1.91901e-05,-1.00483e-05,6.60588e-06,9.35587e-07,0
-3.07616e-05,1.51887e-05,-1.00244e-06,1.28274e-05,1.99021e-05,-8.71528e-06,1.53693e-05,1.13569e-06,0
-3.2441e-05,1.33787e-05,-7.30406e-07,8.2636e-06,2.03762e-05,-7.41903e-06,2.56066e-05,1.21854e-06,0
-3.44171e-05,1.14196e-05,2.7921e-06,3.86903e-06,2.08703e-05,-6.07898e-06,2.9835e-05,1.80559e-06,0
-3.55166e-05,8.49212e-06,1.04382e-05,2.53216e-07,2.12559e-05,-4.6932e-06,2.68163e-05,2.12665e-06,0
-3.58748e-05,6.05228e-06,2.01965e-05,-5.40733e-06,2.10023e-05,-5.2015e-06,2.07765e-05,1.38572e-06,0
-3.58382e-05,5.37223e-06,3.17954e-05,-1.0657e-05,1.95788e-05,-7.04664e-06,1.54e-05,-9.48944e-07,0
-3.58925e-05,5.16083e-06,4.1282e-05,-1.08485e-05,1.8248e-05,-6.5727e-06,1.31082e-05,-3.02736e-06,0
-3.51465e-05,5.21393e-06,4.03854e-05,-9.72239e-06,1.75394e-05,-3.90828e-06,1.22849e-05,-3.49107e-06,0
-3.37452e-05,6.02055e-06,2.57753e-05,-1.18441e-05,1.67367e-05,-3.26691e-06,1.08226e-05,-4.14685e-06,0
-3.29611e-05,7.17606e-06,1.56839e-07,-1.5516e-05,1.4583e-05,-4.05391e-06,9.30465e-06,-4.59799e-06,0
-3.18721e-05,8.60615e-06,-2.43878e-05,-1.57187e-05,1.15775e-05,-3.68823e-06,8.57428e-06,-3.42098e-06,0
-3.10062e-05,1.03196e-05,-3.2251e-05,-1.35829e-05,9.9423e-06,-1.46883e-06,8.84406e-06,-1.51655e-06,0
-3.06783e-05,1.13176e-05,-2.23101e-05,-1.46935e-05,9.59447e-06,2.55979e-08,1.07172e-05,1.25696e-06,0
-3.03148e-05,1.09363e-05,-4.40034e-06,-1.67198e-05,9.15443e-06,-6.83036e-07,1.30751e-05,3.20141e-06,0
-2.92969e-05,7.72633e-06,1.01673e-05,-1.38994e-05,8.62632e-06,-2.19478e-06,1.32093e-05,3.00249e-06,0
-2.77938e-05,9.98509e-07,1.36253e-05,-2.92155e-06,9.76196e-06,-3.14514e-06,1.26409e-05,3.89316e-06,0
-2.79677e-05,-3.61269e-06,-1.68447e-06,1.28306e-05,1.12478e-05,-2.68248e-06,1.06267e-05,3.03523e-06,0
-2.98244e-05,-5.05972e-06,-3.27741e-05,2.64083e-05,1.08258e-05,-1.70655e-06,7.20878e-06,-2.70045e-07,0
-3.24174e-05,-6.40471e-06,-6.43213e-05,3.07095e-05,7.968e-06,-1.15736e-06,8.0237e-06,-1.47092e-06,0
-3.3289e-05,-7.42962e-06,-8.61642e-05,2.84715e-05,4.37417e-06,-2.13715e-06,1.26489e-05,-9.63343e-07,0
-3.26236e-05,-7.26912e-06,-9.38738e-05,2.37711e-05,4.01795e-06,-3.60439e-06,1.53326e-05,2.18567e-08,0
-3.11026e-05,-6.17113e-06,-8.76233e-05,1.40277e-05,3.51675e-06,-5.0498e-06,1.39003e-05,8.19079e-07,0
-2.96509e-05,-6.32937e-06,-7.44933e-05,-2.988e-08,6.52429e-07,-5.99507e-06,1.1497e-05,3.05408e-07,0
-2.95363e-05,-6.96994e-06,-6.4335e-05,-1.48237e-05,-8.04851e-07,-6.44304e-06,1.18664e-05,-5.215e-07,0
-3.00338e-05,-6.6731e-06,-5.79079e-05,-2.52673e-05,-6.44125e-07,-6.65187e-06,1.49652e-05,7.09288e-07,0
-3.00683e-05,-6.1315e-06,-5.06225e-05,-3.02632e-05,-2.20461e-08,-6.11134e-06,1.63636e-05,2.40995e-06,0
-3.0737e-05,-6.05465e-06,-4.02251e-05,-2.93323e-05,1.02467e-06,-5.29434e-06,1.36697e-05,1.7384e-06,0
-3.24295e-05,-5.78703e-06,-2.92451e-05,-2.12923e-05,1.19448e-06,-5.72011e-06,8.72805e-06,-4.90428e-07,0
-3.31218e-05,-4.35034e-06,-2.08504e-05,-1.02474e-05,-1.78183e-06,-8.07362e-06,4.20555e-06,-2.44128e-06,0
-3.25658e-05,-1.24568e-06,-1.49717e-05,-1.70014e-06,-5.14383e-06,-1.03093e-05,3.13347e-06,-2.03267e-06,0
-3.15459e-05,1.82046e-06,-1.08151e-05,3.66565e-06,-5.56665e-06,-1.08865e-05,7.29446e-06,4.95013e-07,0
-3.04249e-05,4.0233e-06,-8.13848e-06,5.72075e-06,-7.93349e-07,-9.89808e-06,1.27226e-05,2.49298e-06,0
-2.89466e-05,6.15276e-06,-5.8921e-06,4.5114e-06,9.336e-06,-7.57491e-06,1.52149e-05,3.02501e-06,0
-2.83935e-05,7.92888e-06,-2.14298e-06,1.16524e-06,2.02119e-05,-4.75314e-06,1.58583e-05,2.32762e-06,0
-2.84958e-05,8.95906e-06,2.83687e-06,-2.87396e-06,2.63188e-05,-2.3283e-06,1.56182e-05,1.38842e-06,0
-2.94896e-05,1.11387e-05,7.11498e-06,-4.49999e-06,2.99097e-05,-2.70171e-07,1.51879e-05,2.78242e-06,0
-3.11007e-05,1.31535e-05,8.60606e-06,-3.19624e-06,3.43763e-05,1.24952e-06,1.47736e-05,4.84621e-06,0
-3.15983e-05,1.349e-05,8.93406e-06,-9.21719e-07,3.6e-05,1.13066e-07,1.53032e-05,4.77699e-06,0
-2.91461e-05,1.33807e-05,1.22842e-05,5.70734e-07,3.21411e-05,-3.21776e-06,1.64447e-05,3.29863e-06,0
-2.72495e-05,1.31667e-05,1.91795e-05,-2.05765e-07,2.42242e-05,-5.55216e-06,1.71413e-05,1.4358e-06,0
-2.82352e-05,1.35933e-05,2.24577e-05,-4.81887e-06,1.57642e-05,-5.43513e-06,1.77959e-05,1.12987e-06,0
-3.00829e-05,1.3718e-05,1.58098e-05,-1.11686e-05,8.92761e-06,-5.41901e-06,1.86634e-05,2.23497e-06,0
-3.25823e-05,1.34176e-05,3.07284e-06,-1.62903e-05,4.86749e-06,-8.32376e-06,1.49861e-05,3.36992e-06,0
-3.3416e-05,1.26134e-05,-8.10887e-06,-1.87044e-05,3.83139e-06,-1.03452e-05,-2.96824e-06,2.61437e-06,0
-3.27828e-05,1.22707e-05,-1.41054e-05,-1.537e-05,4.37407e-06,-9.97676e-06,-2.72959e-05,8.01156e-07,0
-3.20094e-05,1.387e-05,-1.49295e-05,-9.43598e-06,4.6471e-06,-8.10443e-06,-3.74953e-05,-5.47253e-07,0
-3.08671e-05,1.74647e-05,-1.38824e-05,-7.72729e-06,6.72543e-06,-6.34668e-06,-2.61797e-05,-1.48983e-06,0
-3.01425e-05,2.04527e-05,-1.33319e-05,-9.03706e-06,1.09606e-05,-6.29116e-06,-2.77825e-06,-1.46396e-06,0
-3.10654e-05,2.11357e-05,-1.11372e-05,-9.47903e-06,1.41897e-05,-7.5354e-06,2.02737e-05,-1.07208e-06,0
-3.22051e-05,2.09738e-05,-7.22893e-06,-7.74067e-06,1.49733e-05,-9.17776e-06,3.52171e-05,-9.89062e-07,0
-3.21217e-05,2.13859e-05,-4.28354e-06,-6.40639e-06,1.45527e-05,-9.67959e-06,3.9924e-05,-8.77349e-07,0
-3.06927e-05,2.21404e-05,-3.8091e-06,-8.03318e-06,1.52475e-05,-1.06243e-05,3.91508e-05,-1.95923e-08,0
-2.81317e-05,2.21913e-05,-5.289e-06,-1.00548e-05,1.73369e-05,-1.16741e-05,3.63557e-05,1.54637e-06,0
-2.68539e-05,2.12545e-05,-7.30634e-06,-9.47622e-06,2.02005e-05,-1.12342e-05,3.37082e-05,4.78099e-06,0
-2.79624e-05,1.92283e-05,-8.83967e-06,-6.49911e-06,2.18028e-05,-8.98868e-06,3.29613e-05,7.94576e-06,0
-3.03014e-05,1.60569e-05,-8.77637e-06,-2.88936e-06,2.18804e-05,-7.03928e-06,3.31632e-05,7.91899e-06,0
-3.17413e-05,1.23587e-05,-6.38814e-06,5.7023e-07,2.0754e-05,-7.10585e-06,3.24247e-05,5.09598e-06,0
-3.17678e-05,9.65679e-06,-2.30489e-06,2.2737e-06,1.89304e-05,-8.7704e-06,3.07668e-05,3.20186e-06,0
-3.10536e-05,8.96727e-06,2.11787e-06,1.65211e-06,1.70781e-05,-1.01268e-05,2.80875e-05,4.29379e-06,0
-2.98032e-05,1.0694e-05,6.26026e-06,-2.76645e-07,1.45969e-05,-9.38615e-06,2.42511e-05,6.18278e-06,0
-2.92835e-05,1.38701e-05,9.34871e-06,-1.3074e-06,1.19837e-05,-7.26536e-06,1.66524e-05,6.20209e-06,0
-3.03769e-05,1.96961e-05,1.28724e-05,-1.56243e-07,1.14421e-05,-6.41124e-06,5.15338e-06,4.28492e-06,0
-3.12096e-05,3.12541e-05,2.09665e-05,1.67151e-06,1.32566e-05,-8.15473e-06,-8.97838e-06,2.34558e-06,0
-2.99419e-05,4.57922e-05,3.48273e-05,2.78323e-06,1.58574e-05,-1.01656e-05,-2.58338e-05,5.34061e-07,0
-2.83596e-05,5.64407e-05,5.00391e-05,2.4894e-06,1.90754e-05,-1.12295e-05,-3.57821e-05,-1.38828e-06,0
-2.7326e-05,6.21847e-05,5.83773e-05,9.01592e-07,2.09741e-05,-1.12601e-05,-2.84606e-05,-1.76404e-06,0
-2.83164e-05,6.70509e-05,5.32809e-05,-1.42678e-06,1.98977e-05,-1.16435e-05,-5.2883e-06,-6.49063e-07,0
-3.16384e-05,6.81176e-05,3.29641e-05,-5.43559e-06,1.75848e-05,-1.36778e-05,1.83188e-05,1.18916e-06,0
-3.31684e-05,5.48708e-05,4.10721e-06,-1.29927e-05,1.66309e-05,-1.61223e-05,3.31576e-05,1.3191e-06,0
-3.29532e-05,2.57523e-05,-2.70166e-05,-1.97799e-05,1.61665e-05,-1.78805e-05,3.86071e-05,-6.63811e-07,0
-3.19641e-05,-5.22267e-06,-5.30121e-05,-1.9919e-05,1.538e-05,-1.77236e-05,3.57532e-05,-2.22909e-06,0
-3.10872e-05,-2.65059e-05,-6.41073e-05,-1.70243e-05,1.52829e-05,-1.48669e-05,2.80559e-05,-2.80313e-06,0
-3.09036e-05,-3.42924e-05,-6.24998e-05,-1.40024e-05,1.44215e-05,-1.33605e-05,2.0105e-05,-1.95958e-06,0
-2.90214e-05,-2.96039e-05,-5.57646e-05,-9.59793e-06,1.29185e-05,-1.32313e-05,1.97116e-05,-1.56551e-06,0
-2.73452e-05,-2.43747e-05,-5.03376e-05,-5.25738e-06,1.1929e-05,-1.26345e-05,2.27347e-05,-1.13164e-06,0
-2.85171e-05,-2.50537e-05,-4.71532e-05,-3.05089e-06,1.24577e-05,-1.19936e-05,2.45684e-05,-2.48065e-07,0
-3.11579e-05,-2.85593e-05,-4.35371e-05,-2.64985e-06,1.54159e-05,-1.06642e-05,2.4705e-05,1.64302e-07,0
-3.27316e-05,-3.08473e-05,-3.57793e-05,-1.57326e-06,1.85337e-05,-9.58426e-06,2.29787e-05,2.58033e-07,0
-3.21529e-05,-2.87435e-05,-2.50352e-05,-8.49124e-07,1.88279e-05,-9.36834e-06,2.24427e-05,4.76159e-07,0
-3.01344e-05,-2.17133e-05,-1.53579e-05,-2.0114e-07,1.69107e-05,-9.72273e-06,2.58417e-05,8.9906e-07,0
-2.93504e-05,-1.19387e-05,-8.42689e-06,9.88636e-07,1.62281e-05,-1.02824e-05,3.0795e-05,1.67804e-06,0
-3.00015e-05,-3.43e-06,-4.78392e-06,-3.88598e-07,1.68313e-05,-1.14448e-05,3.20173e-05,2.93338e-06,0
-2.94115e-05,1.77615e-06,-3.19166e-06,-7.09939e-06,1.80632e-05,-1.2988e-05,2.83817e-05,3.59818e-06,0
-2.8104e-05,4.72335e-06,-3.69688e-06,-1.57613e-05,1.97827e-05,-1.50729e-05,2.19342e-05,3.66941e-06,0
-2.82419e-05,6.79926e-06,-4.85061e-06,-1.77964e-05,1.98279e-05,-1.68531e-05,1.58282e-05,3.57407e-06,0
-2.91772e-05,6.35108e-06,-5.51147e-06,-1.06106e-05,1.7638e-05,-1.62745e-05,1.052e-05,3.01167e-06,0
-2.94206e-05,5.42951e-06,-7.0621e-06,3.9439e-07,1.60537e-05,-1.43091e-05,5.63989e-06,2.54082e-06,0
-2.8533e-05,6.61342e-06,-1.1407e-05,9.50086e-06,1.64028e-05,-1.29469e-05,2.6826e-06,2.79719e-06,0
-2.7667e-05,9.37028e-06,-1.61843e-05,1.45003e-05,1.70199e-05,-1.24897e-05,4.24838e-06,2.62918e-06,0
-2.74732e-05,1.27787e-05,-2.1174e-05,1.56686e-05,1.57434e-05,-1.29698e-05,8.15686e-06,2.98909e-06,0
-2.58797e-05,1.60312e-05,-2.59527e-05,1.37565e-05,1.25832e-05,-1.25751e-05,1.28195e-05,3.5022e-06,0
-2.49699e-05,1.6959e-05,-2.44257e-05,7.4067e-06,1.08737e-05,-1.11492e-05,1.76002e-05,3.19172e-06,0
-2.60825e-05,1.67967e-05,-1.63772e-05,5.61096e-08,1.06384e-05,-1.02786e-05,1.94388e-05,2.59199e-06,0
-2.6679e-05,1.721e-05,-8.94212e-06,-6.83396e-06,9.29642e-06,-9.79316e-06,1.57842e-05,1.63689e-06,0
-2.56409e-05,1.90295e-05,-6.24125e-06,-1.47491e-05,7.29502e-06,-9.56053e-06,9.68624e-06,8.83853e-07,0
-2.51595e-05,2.29363e-05,-4.73937e-06,-1.88478e-05,7.55986e-06,-9.32204e-06,6.97179e-06,1.58486e-06,0
-2.67032e-05,2.50178e-05,-2.9457e-06,-1.72974e-05,1.10037e-05,-9.18794e-06,6.22001e-06,2.83437e-06,0
-2.76862e-05,2.8189e-05,-3.8437e-06,-1.1925e-05,1.54725e-05,-9.72764e-06,3.8552e-06,2.46056e-06,0
-2.85442e-05,3.3307e-05,-5.29916e-06,-6.14148e-06,1.80719e-05,-1.15095e-05,1.70013e-06,1.30275e-06,0
-2.82088e-05,3.54438e-05,-5.63859e-06,-2.53259e-06,1.7701e-05,-1.26273e-05,-2.51216e-07,9.82471e-07,0
-2.75381e-05,3.32931e-05,-3.68772e-06,1.848e-06,1.45793e-05,-1.22902e-05,-2.86456e-06,1.73688e-06,0
-2.87818e-05,3.00712e-05,3.52683e-07,7.66001e-06,1.15643e-05,-1.20107e-05,-4.11455e-06,2.04431e-06,0
-2.89042e-05,2.87723e-05,4.08697e-06,1.07368e-05,1.04188e-05,-1.07865e-05,-5.72164e-06,2.40398e-07,0
-2.71357e-05,2.79902e-05,5.78294e-06,1.01636e-05,8.79769e-06,-9.52268e-06,-1.32747e-05,-1.50195e-06,0
-2.63676e-05,2.58254e-05,4.68402e-06,8.50651e-06,6.4287e-06,-9.88281e-06,-2.66334e-05,-7.62655e-07,0
-2.84379e-05,2.22114e-05,3.24429e-06,4.64878e-06,4.23313e-06,-1.18096e-05,-3.85323e-05,1.17268e-06,0
-3.044e-05,2.0245e-05,4.66868e-06,-2.42783e-06,3.95924e-06,-1.30289e-05,-4.33987e-05,2.53815e-06,0
-3.11255e-05,2.09388e-05,9.42868e-06,-9.66146e-06,4.78547e-06,-1.23214e-05,-4.08078e-05,2.61415e-06,0
-3.16408e-05,2.14842e-05,1.30473e-05,-1.59715e-05,4.09266e-06,-1.17694e-05,-3.42289e-05,8.96461e-07,0
-3.27943e-05,1.97102e-05,1.26153e-05,-2.25491e-05,5.91106e-07,-1.31197e-05,-2.74713e-05,-1.53315e-06,0
-3.3968e-05,1.73115e-05,8.47524e-06,-2.6581e-05,-3.64193e-06,-1.55921e-05,-2.33034e-05,-2.26991e-06,0
-3.44474e-05,1.66551e-05,1.34411e-06,-2.43251e-05,-4.94416e-06,-1.63925e-05,-2.06347e-05,-1.49913e-06,0
-3.40191e-05,1.78381e-05,-7.97747e-06,-1.72769e-05,-2.82921e-06,-1.49304e-05,-1.59893e-05,-6.59073e-07,0
-3.29724e-05,1.88715e-05,-1.62233e-05,-8.77169e-06,5.06949e-07,-1.3643e-05,-7.42317e-06,8.69604e-08,0
-3.23046e-05,1.78023e-05,-2.14426e-05,-1.60151e-06,2.65252e-06,-1.40075e-05,3.00257e-06,8.01168e-07,0
-3.18709e-05,1.36843e-05,-2.35903e-05,2.88836e-06,3.85201e-06,-1.43168e-05,1.23713e-05,1.28357e-06,0
-3.24394e-05,1.02783e-05,-2.16599e-05,3.89004e-06,4.32233e-06,-1.3864e-05,1.91312e-05,4.8597e-07,0
-3.357e-05,1.24715e-05,-1.55534e-05,1.94984e-06,5.20069e-06,-1.25923e-05,2.44502e-05,-1.10843e-06,0
-3.28886e-05,1.73093e-05,-1.08574e-05,-7.27027e-07,6.75183e-06,-1.14452e-05,2.77298e-05,-1.29629e-06,0
-2.9776e-05,2.15976e-05,-8.71817e-06,-3.16137e-06,8.9203e-06,-1.0647e-05,2.88615e-05,-3.67642e-08,0
-2.79579e-05,2.35345e-05,-4.71392e-06,-6.11559e-06,1.30337e-05,-9.96532e-06,3.12274e-05,1.96936e-06,0
-2.88738e-05,2.43936e-05,-1.41049e-06,-1.26784e-05,1.58917e-05,-1.01202e-05,3.59019e-05,2.09376e-06,0
-2.92646e-05,2.40931e-05,1.43877e-06,-1.84682e-05,1.70466e-05,-1.00636e-05,4.18106e-05,2.03898e-06,0
-2.91431e-05,1.97612e-05,3.7428e-06,-1.8276e-05,1.77894e-05,-9.56275e-06,4.7049e-05,3.16679e-06,0
-3.05384e-05,1.55905e-05,2.26801e-06,-1.46692e-05,1.76006e-05,-9.01741e-06,5.10436e-05,1.14238e-06,0
-3.34196e-05,1.51267e-05,-2.67293e-07,-9.64719e-06,1.95776e-05,-8.96246e-06,5.22144e-05,-1.57027e-06,0
-3.4804e-05,1.76917e-05,-2.27065e-06,-6.53805e-06,2.17268e-05,-1.04068e-05,5.17002e-05,-1.78506e-06,0
-3.35124e-05,2.00715e-05,-3.1279e-06,-6.36882e-06,2.21464e-05,-1.25784e-05,5.0328e-05,-3.28333e-07,0
-3.29712e-05,2.08223e-05,-2.95265e-06,-6.962e-06,2.25381e-05,-1.42889e-05,4.56273e-05,1.55435e-06,0
-3.30956e-05,1.97384e-05,-2.69643e-06,-7.485e-06,2.4875e-05,-1.34821e-05,3.8836e-05,2.48645e-06,0
-3.31271e-05,1.81713e-05,-2.30701e-06,-7.84239e-06,2.78235e-05,-1.02841e-05,3.39272e-05,2.14881e-06,0
-3.29359e-05,1.88429e-05,-3.10007e-06,-7.77574e-06,2.90188e-05,-7.53355e-06,3.18262e-05,9.5312e-07,0
-3.13942e-05,2.02114e-05,-4.78449e-06,-8.12979e-06,2.85342e-05,-7.87028e-06,3.09769e-05,-7.7551e-07,0
-2.95015e-05,1.9589e-05,-5.64463e-06,-8.39223e-06,2.80421e-05,-9.36002e-06,3.03036e-05,-2.16873e-06,0
-2.90921e-05,1.5611e-05,-4.54411e-06,-9.17306e-06,2.8856e-05,-8.85153e-06,2.91851e-05,-2.57554e-06,0
-3.00533e-05,1.1243e-05,-3.51762e-06,-1.12836e-05,2.91792e-05,-6.72857e-06,2.76679e-05,-1.85218e-06,0
-3.05846e-05,8.17254e-06,-5.59392e-06,-1.25742e-05,2.80074e-05,-4.77057e-06,2.54005e-05,-1.06697e-06,0
-3.03133e-05,6.05242e-06,-1.05161e-05,-1.12309e-05,2.56867e-05,-4.739e-06,2.24762e-05,-8.57511e-07,0
-2.97646e-05,4.81445e-06,-1.62339e-05,-8.90903e-06,2.39327e-05,-6.37326e-06,1.99339e-05,-3.64717e-07,0
-2.88756e-05,5.11609e-06,-2.05611e-05,-9.03065e-06,2.33281e-05,-8.1673e-06,1.79902e-05,9.3852e-07,0
-2.79112e-05,7.08217e-06,-2.17565e-05,-1.07715e-05,2.29171e-05,-7.91511e-06,1.36629e-05,1.80747e-06,0
-2.75892e-05,1.13922e-05,-2.10655e-05,-1.1106e-05,2.03055e-05,-6.55627e-06,6.60247e-06,1.27428e-06,0
-2.84951e-05,1.76241e-05,-2.08925e-05,-8.65736e-06,1.70908e-05,-5.91816e-06,1.56092e-06,3.37613e-07,0
-3.02855e-05,2.23451e-05,-2.19537e-05,-5.91571e-06,1.52242e-05,-6.38139e-06,1.97691e-06,2.59662e-07,0
-3.16699e-05,2.49733e-05,-2.32842e-05,-1.67263e-06,1.57813e-05,-6.74598e-06,5.62163e-06,9.53941e-07,0
-3.23444e-05,2.73281e-05,-2.30811e-05,7.07823e-06,1.71122e-05,-7.26271e-06,9.02158e-06,1.53738e-06,0
-3.18431e-05,2.93269e-05,-2.11453e-05,1.37562e-05,1.63865e-05,-8.82241e-06,1.13342e-05,1.93511e-06,0
-3.24447e-05,2.87306e-05,-1.9611e-05,1.57172e-05,1.45533e-05,-1.03481e-05,1.16208e-05,9.62921e-07,0
-3.41448e-05,2.46902e-05,-1.7917e-05,1.6783e-05,1.48305e-05,-1.00646e-05,1.10184e-05,9.94808e-07,0
-3.41397e-05,1.69949e-05,-1.49183e-05,1.81551e-05,1.60919e-05,-9.66065e-06,1.04733e-05,2.70548e-06,0
-3.18434e-05,8.12191e-06,-1.15671e-05,2.05699e-05,1.57923e-05,-9.5673e-06,9.53387e-06,3.8636e-06,0
-2.65611e-05,7.78523e-06,-8.41348e-06,2.02508e-05,1.69847e-05,-8.36899e-06,9.12408e-06,4.40592e-06,0
-2.30839e-05,2.41906e-05,-5.35733e-06,1.79413e-05,1.67951e-05,-7.44638e-06,1.10919e-05,4.99879e-06,0
-2.45547e-05,4.81944e-05,-3.34913e-06,1.53191e-05,1.55675e-05,-6.54817e-06,1.43282e-05,6.10102e-06,0
-2.73771e-05,6.53815e-05,-3.43896e-06,1.18516e-05,1.32832e-05,-6.56656e-06,1.53547e-05,6.19809e-06,0
-2.89126e-05,7.05705e-05,-3.73959e-06,7.42237e-06,1.09033e-05,-8.11398e-06,1.3271e-05,4.83285e-06,0
-2.90136e-05,6.53446e-05,-2.55034e-06,2.16553e-06,1.13434e-05,-9.30204e-06,1.21e-05,3.07527e-06,0
-2.84353e-05,5.07799e-05,-1.30711e-06,-2.08975e-06,1.16879e-05,-9.47148e-06,1.38744e-05,7.58895e-07,0
-2.81754e-05,2.36607e-05,-1.24627e-06,-4.75987e-06,1.09077e-05,-8.8384e-06,1.56113e-05,-1.02771e-06,0
-2.83834e-05,-1.38399e-05,-1.75365e-06,-5.40003e-06,8.47615e-06,-7.74804e-06,1.51156e-05,-1.48798e-06,0
-2.8922e-05,-4.91186e-05,-1.92787e-06,-5.64498e-06,5.57794e-06,-6.87987e-06,1.30266e-05,-8.25164e-07,0
-3.02258e-05,-6.95097e-05,-2.06033e-06,-6.86493e-06,2.71395e-06,-6.11132e-06,1.14916e-05,6.96015e-07,0
-3.13348e-05,-7.06346e-05,-2.9916e-06,-1.05529e-05,8.58329e-07,-5.78655e-06,1.14585e-05,1.3535e-06,0
-3.21529e-05,-5.89462e-05,-5.54046e-06,-1.55748e-05,-1.62181e-07,-6.18745e-06,1.21988e-05,1.21817e-06,0
-3.26555e-05,-4.40593e-05,-9.03618e-06,-2.02589e-05,-9.00637e-07,-6.64618e-06,1.26091e-05,1.29061e-06,0
-3.24537e-05,-3.05066e-05,-1.15462e-05,-2.39952e-05,-9.98015e-07,-5.82483e-06,1.18889e-05,2.08674e-06,0
-3.18746e-05,-1.89402e-05,-1.24542e-05,-2.80913e-05,-4.34444e-07,-4.39627e-06,1.02297e-05,3.32207e-06,0
-3.11336e-05,-1.06672e-05,-1.10588e-05,-3.32537e-05,2.18047e-07,-3.85338e-06,9.86465e-06,4.48041e-06,0
-3.06641e-05,-7.69421e-06,-8.28268e-06,-3.80605e-05,1.04887e-06,-4.7366e-06,1.02256e-05,5.22579e-06,0
-3.08972e-05,-7.50488e-06,-6.05436e-06,-4.09059e-05,2.0748e-06,-6.97271e-06,8.38652e-06,4.06355e-06,0
-3.03531e-05,-5.97334e-06,-6.42879e-06,-3.98164e-05,3.44896e-06,-8.8582e-06,4.18763e-06,8.95915e-08,0
-2.79573e-05,-2.77679e-06,-8.96721e-06,-3.34676e-05,5.78692e-06,-9.115e-06,1.92268e-06,-2.27044e-06,0
-2.61214e-05,-9.11547e-08,-9.60408e-06,-2.25299e-05,8.28536e-06,-7.80635e-06,3.16509e-06,-1.34424e-07,0
-2.65255e-05,2.7507e-06,-7.30668e-06,-1.12767e-05,1.08637e-05,-5.86705e-06,5.29624e-06,3.82828e-06,0
-2.81866e-05,6.11524e-06,-4.3783e-06,-2.9754e-06,1.15245e-05,-5.02764e-06,5.73302e-06,6.4122e-06,0
-2.90373e-05,8.33408e-06,-2.30354e-06,1.97174e-06,9.35236e-06,-5.43863e-06,1.96575e-06,7.04502e-06,0
-2.99018e-05,1.00277e-05,-2.14437e-06,5.56449e-06,8.11456e-06,-6.35827e-06,-2.0878e-06,5.5213e-06,0
-3.13453e-05,1.25419e-05,-3.92015e-06,1.01034e-05,8.60108e-06,-6.9902e-06,-2.35261e-06,2.60275e-06,0
-3.16988e-05,1.34555e-05,-4.98966e-06,1.30085e-05,8.03137e-06,-6.34238e-06,2.47378e-07,7.0982e-07,0
-3.07121e-05,1.28156e-05,-4.39922e-06,1.22819e-05,8.31115e-06,-4.28069e-06,4.32206e-06,5.57732e-08,0
-2.93496e-05,1.25475e-05,-5.15735e-06,9.10074e-06,1.0557e-05,-2.63274e-06,8.48547e-06,5.4919e-07,0
-2.96462e-05,1.43512e-05,-7.32297e-06,4.44194e-06,1.23416e-05,-3.18958e-06,1.18017e-05,5.82844e-07,0
-3.19401e-05,1.65419e-05,-1.091e-05,-1.36493e-06,1.11928e-05,-4.61845e-06,1.35673e-05,-5.96585e-07,0
-3.50649e-05,1.93789e-05,-1.27228e-05,-7.10649e-06,8.51194e-06,-4.68434e-06,1.51313e-05,-2.20225e-06,0
-3.62984e-05,2.50115e-05,-1.04064e-05,-9.11721e-06,6.14854e-06,-2.41685e-06,1.59957e-05,-3.58438e-06,0
-3.51468e-05,3.2781e-05,-7.50889e-06,-9.83024e-06,5.17256e-06,4.96072e-07,1.50125e-05,-3.4533e-06,0
-3.2818e-05,4.02586e-05,-6.71815e-06,-1.13087e-05,5.46246e-06,1.54564e-06,1.41878e-05,-1.47581e-06,0
-3.02534e-05,4.21199e-05,-8.10692e-06,-1.31343e-05,5.17978e-06,3.95476e-07,1.46786e-05,4.41234e-07,0
-2.9769e-05,3.6677e-05,-9.43394e-06,-1.34237e-05,5.36693e-06,-9.80863e-07,1.5737e-05,7.12645e-07,0
-3.07282e-05,2.66286e-05,-9.57692e-06,-1.18631e-05,7.18199e-06,-1.74762e-06,1.68418e-05,1.80587e-08,0
-3.11913e-05,1.75361e-05,-7.95278e-06,-9.65686e-06,8.34515e-06,-2.21967e-06,1.85561e-05,-7.86498e-07,0
-3.08876e-05,1.29534e-05,-6.43565e-06,-7.06493e-06,7.40626e-06,-2.4054e-06,2.09036e-05,-7.84637e-07,0
-3.05884e-05,1.3138e-05,-6.98758e-06,-5.45576e-06,6.20697e-06,-2.23171e-06,2.21815e-05,-7.5711e-07,0
-3.03966e-05,1.51201e-05,-6.97771e-06,-3.38076e-06,6.95951e-06,-1.27026e-06,2.1741e-05,-1.85844e-06,0
-2.99338e-05,1.5599e-05,-3.34904e-06,1.0943e-06,1.19441e-05,-2.18242e-07,2.12554e-05,-3.12419e-06,0
-2.89653e-05,1.39508e-05,1.88192e-08,6.24108e-06,1.89177e-05,-3.67561e-07,2.07333e-05,-3.24072e-06,0
-2.77574e-05,1.32156e-05,8.77116e-07,9.00417e-06,2.22018e-05,-1.39758e-06,1.90615e-05,-2.28249e-06,0
-2.7288e-05,1.27536e-05,1.32359e-06,9.95121e-06,2.12383e-05,-1.76242e-06,1.58531e-05,-1.50519e-06,0
-2.83591e-05,8.85366e-06,3.7637e-06,1.01692e-05,1.98493e-05,-2.84389e-06,1.38015e-05,-1.10775e-06,0
-2.9629e-05,3.92844e-06,6.63252e-06,1.30115e-05,1.90594e-05,-5.41964e-06,1.5269e-05,-1.63958e-06,0
-2.99187e-05,2.74704e-06,5.593e-06,1.67392e-05,1.97822e-05,-6.83316e-06,1.55872e-05,-1.11956e-06,0
-2.79356e-05,1.07369e-05,-1.63767e-07,1.65796e-05,2.12249e-05,-7.3268e-06,1.06533e-05,1.57095e-06,0
-2.56165e-05,2.96839e-05,-8.66296e-06,1.27539e-05,2.09941e-05,-7.17335e-06,6.26971e-06,3.5186e-06,0
-2.57558e-05,4.55919e-05,-1.70291e-05,7.39539e-06,1.90451e-05,-6.07404e-06,6.63026e-06,2.87837e-06,0
-2.68713e-05,5.02612e-05,-2.2759e-05,2.09298e-06,1.65106e-05,-6.53144e-06,9.57572e-06,1.10228e-06,0
-2.90469e-05,4.89468e-05,-2.39432e-05,-9.55552e-08,1.26463e-05,-8.795e-06,1.25475e-05,1.03976e-06,0
-3.05422e-05,4.46852e-05,-2.16084e-05,5.76354e-08,8.07794e-06,-1.01896e-05,1.21401e-05,1.46113e-06,0
-3.0461e-05,3.82007e-05,-1.79036e-05,-6.07237e-07,6.74951e-06,-1.00751e-05,7.68615e-06,1.69865e-06,0
-3.07933e-05,2.93042e-05,-1.43419e-05,-1.75419e-06,8.30125e-06,-1.04859e-05,3.79133e-06,7.79768e-07,0
-3.12812e-05,1.98921e-05,-1.24135e-05,-2.72737e-06,9.98589e-06,-1.21429e-05,6.15913e-06,-2.55712e-06,0
-3.13751e-05,8.113e-06,-1.20234e-05,-3.8138e-06,1.04207e-05,-1.31488e-05,1.39028e-05,-5.01392e-06,0
