ch1,ch2,ch3,ch4,ch5,ch6,ch7,ch8,class
-3.25344e-05,4.18402e-05,-5.69466e-05,1.25299e-05,1.29444e-05,-1.96972e-06,3.44214e-05,-3.24474e-06,0
-3.28859e-05,5.23179e-05,-4.68547e-05,1.28628e-05,1.70627e-05,-2.04006e-07,2.98075e-05,-4.11545e-06,0
-3.23701e-05,5.20121e-05,-4.25914e-05,7.27059e-06,1.91121e-05,-2.89866e-07,2.76209e-05,-2.91238e-06,0
-3.16967e-05,4.39272e-05,-3.94726e-05,-5.18823e-06,2.02436e-05,-1.80514e-06,2.64974e-05,-2.60714e-07,0
-3.15141e-05,3.49215e-05,-3.17373e-05,-2.03295e-05,2.07458e-05,-2.43085e-06,2.6355e-05,9.68745e-07,0
-3.085e-05,2.63275e-05,-1.8896e-05,-3.08393e-05,1.71628e-05,-4.85705e-07,2.73329e-05,1.02889e-06,0
-2.84534e-05,1.81261e-05,-5.01588e-06,-3.67532e-05,9.38555e-06,1.26977e-06,2.74767e-05,-4.20218e-07,0
-2.62097e-05,1.26018e-05,1.16329e-05,-4.46568e-05,2.84013e-06,3.57627e-07,2.6673e-05,-1.02515e-06,0
-2.52001e-05,1.25193e-05,2.91258e-05,-6.00148e-05,-2.30732e-07,-1.48607e-06,2.4759e-05,-4.17603e-07,0
-2.43379e-05,1.69289e-05,3.6733e-05,-7.33944e-05,-2.39894e-06,-2.75746e-06,2.10104e-05,-1.62175e-06,0
-2.53655e-05,2.19416e-05,3.06284e-05,-7.54577e-05,-5.14577e-06,-3.01274e-06,1.62327e-05,-3.24703e-06,0
-2.71811e-05,2.82555e-05,1.28356e-05,-6.86449e-05,-2.7507e-06,-2.89626e-06,1.15132e-05,-3.74356e-06,0
-2.78286e-05,3.86776e-05,-1.14618e-05,-5.49502e-05,6.84532e-06,-3.30139e-06,3.43878e-06,-2.59059e-06,0
-2.78494e-05,4.54437e-05,-3.40119e-05,-3.58908e-05,1.6312e-05,-5.1659e-06,-7.42375e-06,-5.11195e-07,0
-2.70157e-05,3.8405e-05,-4.96143e-05,-1.23136e-05,1.79175e-05,-6.65075e-06,-1.4208e-05,5.97757e-07,0
-2.60207e-05,2.10512e-05,-5.187e-05,1.1237e-05,1.31686e-05,-7.05221e-06,-1.25982e-05,5.25495e-07,0
-2.65461e-05,4.03353e-07,-4.30347e-05,3.5738e-05,9.50219e-06,-8.60687e-06,-5.04722e-06,5.21712e-07,0
-2.78009e-05,-1.80724e-05,-3.21486e-05,5.67266e-05,9.08689e-06,-1.11115e-05,2.77882e-06,3.14105e-07,0
-2.97476e-05,-3.1996e-05,-2.57151e-05,6.45472e-05,1.03081e-05,-1.32298e-05,9.27321e-06,-1.04287e-07,0
-3.17708e-05,-3.93999e-05,-2.37501e-05,5.78601e-05,1.22817e-05,-1.49344e-05,1.45645e-05,-3.30423e-07,0
-3.22003e-05,-3.84694e-05,-2.14872e-05,4.40753e-05,1.53955e-05,-1.57015e-05,1.93464e-05,-7.26423e-07,0
-3.26636e-05,-3.47494e-05,-1.65984e-05,3.38593e-05,1.74067e-05,-1.51174e-05,2.2754e-05,-1.58476e-06,0
-3.44056e-05,-3.11263e-05,-9.17465e-06,2.82935e-05,1.66499e-05,-1.45096e-05,2.30344e-05,-2.2547e-06,0
-3.69747e-05,-2.62076e-05,-3.21439e-06,2.42473e-05,1.40074e-05,-1.52003e-05,2.1273e-05,-2.03154e-06,0
-3.86994e-05,-1.79275e-05,1.86991e-07,2.08531e-05,1.15405e-05,-1.6226e-05,2.02639e-05,-9.45776e-07,0
-3.86376e-05,-7.86494e-06,2.10508e-06,1.85351e-05,1.10937e-05,-1.61767e-05,2.04533e-05,6.92074e-07,0
-3.67783e-05,4.39656e-07,3.0445e-06,1.22132e-05,1.30003e-05,-1.55418e-05,2.00864e-05,1.86014e-06,0
-3.43939e-05,5.79306e-06,1.93103e-06,8.51351e-07,1.59119e-05,-1.44006e-05,1.83363e-05,2.94102e-06,0
-3.27265e-05,8.59406e-06,-6.51567e-07,-7.63335e-06,1.78512e-05,-1.17326e-05,1.5489e-05,4.71621e-06,0
-3.26443e-05,8.05658e-06,-4.54559e-06,-6.28893e-06,1.77472e-05,-8.53825e-06,1.29561e-05,6.56854e-06,0
-3.38857e-05,5.18425e-06,-8.46465e-06,1.75192e-06,1.61404e-05,-8.06055e-06,1.2354e-05,6.43039e-06,0
-3.47358e-05,3.37645e-06,-1.14971e-05,9.97583e-06,1.48019e-05,-1.09905e-05,1.34193e-05,5.09254e-06,0
-3.43676e-05,4.63903e-06,-1.24884e-05,1.54952e-05,1.54508e-05,-1.3859e-05,1.51892e-05,4.80216e-06,0
-3.22114e-05,8.04472e-06,-1.10955e-05,1.70706e-05,1.89657e-05,-1.50541e-05,1.64621e-05,6.14503e-06,0
-2.89633e-05,1.29764e-05,-8.53776e-06,1.27087e-05,2.12137e-05,-1.48539e-05,1.49565e-05,8.19962e-06,0
-2.84838e-05,1.62875e-05,-4.13882e-06,1.70402e-06,1.89139e-05,-1.48379e-05,1.04911e-05,8.27525e-06,0
-3.07249e-05,1.32491e-05,2.62055e-06,-7.24266e-06,1.66519e-05,-1.60736e-05,7.45647e-06,7.22537e-06,0
-3.28708e-05,1.0255e-05,1.29047e-05,-6.70231e-06,1.74128e-05,-1.63982e-05,6.40167e-06,7.36367e-06,0
-3.33709e-05,1.30472e-05,2.44139e-05,-4.56905e-06,1.93026e-05,-1.49758e-05,3.55211e-06,6.66674e-06,0
-3.27734e-05,1.71567e-05,3.28478e-05,-3.48677e-06,1.98517e-05,-1.22723e-05,-1.79038e-06,5.78727e-06,0
-3.29924e-05,1.8064e-05,3.50785e-05,-2.38478e-06,1.77165e-05,-1.0415e-05,-8.87471e-06,6.29972e-06,0
-3.17894e-05,2.0303e-05,2.81171e-05,-1.07271e-06,1.43788e-05,-9.87985e-06,-1.33326e-05,7.75719e-06,0
-2.94858e-05,2.72634e-05,1.28682e-05,3.62879e-06,1.18001e-05,-9.06749e-06,-1.31593e-05,8.70176e-06,0
-2.8288e-05,3.29266e-05,-8.50101e-06,1.01945e-05,1.14558e-05,-8.15101e-06,-1.03876e-05,8.1829e-06,0
-2.78395e-05,3.29009e-05,-3.07343e-05,1.53361e-05,1.08648e-05,-6.74824e-06,-7.97107e-06,7.44211e-06,0
-2.76027e-05,2.78678e-05,-4.71126e-05,1.25853e-05,8.44958e-06,-5.52068e-06,-7.74468e-06,6.58195e-06,0
-2.76907e-05,2.37517e-05,-5.57569e-05,-7.95508e-07,6.37348e-06,-5.25114e-06,-8.0703e-06,4.4355e-06,0
-2.74098e-05,2.24341e-05,-5.71435e-05,-2.2519e-05,5.86988e-06,-7.01261e-06,-5.45851e-06,1.10188e-06,0
-2.65007e-05,2.32842e-05,-5.22483e-05,-4.19716e-05,7.23364e-06,-8.98673e-06,3.96046e-07,-1.18048e-06,0
-2.65519e-05,2.83705e-05,-4.45994e-05,-4.80289e-05,1.06511e-05,-9.01885e-06,5.91612e-06,-2.97224e-06,0
-2.76236e-05,3.73429e-05,-4.00773e-05,-4.0851e-05,1.38821e-05,-8.28505e-06,9.51202e-06,-4.51684e-06,0
-2.82556e-05,4.67886e-05,-3.86734e-05,-3.01289e-05,1.49028e-05,-7.99917e-06,1.22179e-05,-5.19702e-06,0
-2.81553e-05,5.49231e-05,-3.64618e-05,-2.37406e-05,1.50693e-05,-8.00361e-06,1.49073e-05,-5.2646e-06,0
-2.76068e-05,6.03774e-05,-3.09691e-05,-2.26029e-05,1.54423e-05,-9.19069e-06,1.64627e-05,-4.75468e-06,0
-2.71495e-05,6.15032e-05,-2.35081e-05,-2.31351e-05,1.43343e-05,-1.18794e-05,1.69761e-05,-2.68753e-06,0
-2.70389e-05,6.078e-05,-1.51895e-05,-2.2252e-05,1.27975e-05,-1.24487e-05,1.49428e-05,-3.21198e-07,0
-2.70425e-05,5.66483e-05,-8.48925e-06,-1.92458e-05,1.40145e-05,-1.07638e-05,4.57193e-06,-1.13413e-07,0
-2.7055e-05,4.30695e-05,-5.44363e-06,-1.60712e-05,1.66161e-05,-1.05492e-05,-1.86926e-05,-1.69325e-06,0
-2.64246e-05,1.62193e-05,-4.05563e-06,-1.40813e-05,1.92157e-05,-1.24622e-05,-4.20843e-05,-3.95318e-06,0
-2.60928e-05,-1.93848e-05,-1.12584e-06,-1.03299e-05,2.0878e-05,-1.35898e-05,-4.52834e-05,-5.61459e-06,0
-2.7276e-05,-5.61092e-05,3.33442e-06,-8.18877e-06,2.14422e-05,-1.28084e-05,-2.57939e-05,-4.8984e-06,0
-2.86195e-05,-7.91877e-05,6.65695e-06,-1.27089e-05,2.22638e-05,-1.03359e-05,2.43781e-06,-3.05197e-06,0
-2.9589e-05,-7.44987e-05,9.80002e-06,-2.15529e-05,2.30784e-05,-7.25502e-06,2.65755e-05,-2.17158e-06,0
-2.94113e-05,-5.00832e-05,1.21667e-05,-2.81198e-05,2.10957e-05,-5.13976e-06,4.25226e-05,-1.49851e-06,0
-2.83019e-05,-2.56028e-05,1.13714e-05,-2.91999e-05,1.71974e-05,-6.90808e-06,5.29946e-05,-1.39291e-07,0
-2.76997e-05,-1.13225e-05,7.2764e-06,-2.41458e-05,1.5798e-05,-1.02022e-05,5.92567e-05,1.5444e-06,0
-2.76994e-05,-2.47266e-06,4.09967e-06,-1.38509e-05,1.84356e-05,-1.07066e-05,5.95726e-05,1.76822e-06,0
-2.9276e-05,6.05559e-06,6.19947e-06,-2.66653e-06,1.99653e-05,-8.4937e-06,5.85728e-05,1.31434e-06,0
-3.0103e-05,1.29651e-05,9.13585e-06,5.32057e-06,1.94252e-05,-6.49622e-06,5.69343e-05,8.2205e-07,0
-2.81369e-05,1.80782e-05,9.20991e-06,9.76486e-06,1.97627e-05,-6.88348e-06,5.42691e-05,6.71629e-07,0
-2.65223e-05,1.99333e-05,6.44319e-06,1.08957e-05,1.9774e-05,-8.18923e-06,5.06425e-05,3.74722e-07,0
-2.75907e-05,1.99929e-05,3.26343e-06,6.46135e-06,1.87222e-05,-9.8828e-06,4.59327e-05,5.19187e-07,0
-2.91807e-05,2.11581e-05,1.94815e-06,-1.92661e-07,1.68638e-05,-1.07509e-05,3.99841e-05,1.04296e-06,0
-2.95384e-05,2.29459e-05,1.0709e-06,-4.39784e-06,1.49767e-05,-1.11572e-05,3.12388e-05,2.05189e-06,0
-2.91528e-05,2.35129e-05,-4.58544e-07,-4.39438e-06,1.2382e-05,-1.19496e-05,2.26011e-05,3.12991e-06,0
-2.90731e-05,2.12332e-05,-3.54817e-06,-1.07239e-06,1.05997e-05,-1.30095e-05,1.63956e-05,2.52797e-06,0
-2.96411e-05,1.8616e-05,-8.20073e-06,-9.93746e-07,1.17343e-05,-1.35235e-05,1.1166e-05,1.25387e-06,0
-3.06306e-05,1.79639e-05,-1.27115e-05,-4.44964e-06,1.40298e-05,-1.32539e-05,5.55205e-06,1.9875e-07,0
-3.20704e-05,1.9059e-05,-1.42204e-05,-4.34839e-06,1.45416e-05,-1.2715e-05,2.61704e-06,-9.71341e-07,0
-3.25205e-05,1.99234e-05,-1.29783e-05,1.96753e-06,1.29679e-05,-1.22738e-05,3.15085e-06,-2.48065e-06,0
-3.13154e-05,1.99686e-05,-1.06787e-05,9.99554e-06,1.0487e-05,-1.24196e-05,4.15431e-06,-3.03685e-06,0
-3.03837e-05,2.0436e-05,-8.36426e-06,1.54215e-05,9.02543e-06,-1.30476e-05,4.16208e-06,-2.68736e-06,0
-3.24343e-05,2.27315e-05,-5.71221e-06,1.66389e-05,9.3048e-06,-1.3358e-05,4.43978e-06,-1.58726e-06,0
-3.58253e-05,2.49428e-05,-3.03916e-06,1.33578e-05,1.00129e-05,-1.27684e-05,4.15655e-06,-5.24821e-07,0
-3.57444e-05,2.63445e-05,-1.17373e-06,7.04674e-06,1.05107e-05,-1.29445e-05,2.78877e-06,-4.73155e-07,0
-3.23378e-05,2.76881e-05,1.7362e-07,-3.02174e-07,1.07659e-05,-1.39907e-05,1.83707e-06,-3.30844e-06,0
-2.98017e-05,2.97675e-05,1.30364e-06,-1.21323e-05,1.15977e-05,-1.45335e-05,2.70268e-06,-5.98948e-06,0
-3.05201e-05,3.1035e-05,1.63597e-06,-2.78749e-05,1.23733e-05,-1.46137e-05,6.13181e-06,-4.62483e-06,0
-3.23601e-05,2.8689e-05,2.8948e-06,-4.02428e-05,1.27587e-05,-1.40036e-05,9.40436e-06,-1.33072e-06,0
-3.07898e-05,2.61871e-05,3.97575e-06,-4.37729e-05,1.48261e-05,-1.26381e-05,1.05252e-05,2.12738e-06,0
-2.76786e-05,2.60154e-05,3.89985e-06,-2.83345e-05,1.54716e-05,-1.23834e-05,1.04773e-05,3.22316e-06,0
-2.69617e-05,2.54218e-05,3.99684e-06,8.08697e-06,1.52319e-05,-1.27389e-05,1.04885e-05,1.96331e-06,0
-2.80664e-05,2.21014e-05,2.79545e-06,4.39022e-05,1.645e-05,-1.24792e-05,1.01385e-05,1.34173e-06,0
-2.95116e-05,1.98008e-05,2.43752e-06,5.55631e-05,1.80206e-05,-1.28966e-05,9.09738e-06,1.47485e-06,0
-3.16173e-05,2.03735e-05,1.69412e-06,4.21214e-05,1.98264e-05,-1.15749e-05,9.31792e-06,1.86737e-06,0
-3.21357e-05,2.15505e-05,-9.10168e-07,1.78918e-05,1.95931e-05,-9.88272e-06,8.90855e-06,1.59977e-06,0
-3.08336e-05,2.18253e-05,-3.65651e-06,-3.41346e-07,1.84388e-05,-1.05287e-05,8.33258e-06,2.10651e-06,0
-3.1481e-05,2.15196e-05,-7.01849e-06,-1.02126e-05,1.677e-05,-1.10272e-05,9.5665e-06,4.14104e-06,0
-3.33617e-05,2.09452e-05,-1.05821e-05,-1.66528e-05,1.57777e-05,-9.96426e-06,9.85268e-06,6.16936e-06,0
-3.61919e-05,1.86391e-05,-1.41974e-05,-1.918e-05,1.80728e-05,-9.35953e-06,8.80389e-06,7.25794e-06,0
-3.84551e-05,1.56652e-05,-1.88498e-05,-1.41749e-05,2.20645e-05,-1.05895e-05,6.53691e-06,7.29071e-06,0
-3.80269e-05,1.54524e-05,-2.31927e-05,-1.25306e-06,2.37067e-05,-1.14856e-05,4.2989e-06,5.85478e-06,0
-3.58574e-05,1.76513e-05,-2.42871e-05,1.13758e-05,2.24009e-05,-9.52292e-06,3.25672e-06,3.98394e-06,0
-3.45152e-05,2.05796e-05,-2.22455e-05,1.49634e-05,2.01977e-05,-5.59867e-06,3.87862e-06,3.82395e-06,0
-3.4839e-05,2.28596e-05,-2.00935e-05,7.48446e-06,1.68388e-05,-4.43044e-06,5.58707e-06,3.59933e-06,0
-3.5978e-05,2.20007e-05,-1.87557e-05,-5.08521e-06,1.20892e-05,-6.68708e-06,8.47522e-06,2.508e-06,0
-3.67039e-05,1.75279e-05,-1.67368e-05,-1.44238e-05,8.31827e-06,-8.84968e-06,1.33941e-05,2.56198e-06,0
-3.62198e-05,1.14004e-05,-1.41623e-05,-1.75493e-05,7.77667e-06,-8.8166e-06,2.15763e-05,4.47206e-06,0
-3.55782e-05,6.39716e-06,-1.28427e-05,-2.00346e-05,9.00011e-06,-7.47169e-06,3.21314e-05,4.55074e-06,0
-3.43503e-05,3.56683e-06,-1.20158e-05,-2.45053e-05,1.01687e-05,-6.67519e-06,4.01358e-05,2.0014e-06,0
-3.29949e-05,2.29947e-06,-9.53898e-06,-2.55027e-05,1.20594e-05,-8.41467e-06,4.14667e-05,2.7504e-08,0
-3.31927e-05,3.27665e-06,-7.28863e-06,-1.70747e-05,1.4552e-05,-1.05053e-05,3.48301e-05,1.03196e-06,0
-3.45094e-05,1.16183e-05,-7.21837e-06,-4.85981e-06,1.51343e-05,-1.04677e-05,2.37373e-05,1.73946e-06,0
-3.5924e-05,3.01182e-05,-7.80852e-06,-2.90542e-06,1.39344e-05,-9.35675e-06,1.43514e-05,8.29901e-08,0
-3.59551e-05,4.88958e-05,-8.79644e-06,-1.32641e-05,1.36577e-05,-8.94353e-06,8.70569e-06,-7.22051e-07,0
-3.42527e-05,5.3173e-05,-9.87033e-06,-2.60908e-05,1.42921e-05,-8.714e-06,3.22946e-06,8.53147e-07,0
-3.3108e-05,3.95887e-05,-9.38401e-06,-4.20411e-05,1.34324e-05,-7.75468e-06,-5.70437e-06,4.44037e-06,0
-3.3559e-05,1.74992e-05,-8.3195e-06,-6.01879e-05,1.23274e-05,-7.69145e-06,-1.44132e-05,5.47517e-06,0
-3.44882e-05,-2.52156e-06,-8.94342e-06,-7.28237e-05,1.14738e-05,-7.74688e-06,-1.70561e-05,3.33265e-06,0
-3.41037e-05,-1.84965e-05,-1.15757e-05,-7.05645e-05,1.18631e-05,-8.06328e-06,-1.44866e-05,3.16641e-06,0
-3.23045e-05,-2.72441e-05,-1.2932e-05,-4.80762e-05,1.50163e-05,-8.29951e-06,-7.91326e-06,4.29338e-06,0
-3.0465e-05,-2.70009e-05,-1.23774e-05,-1.54827e-05,1.83803e-05,-8.16537e-06,4.99078e-06,4.54757e-06,0
-3.00106e-05,-2.23518e-05,-1.14215e-05,1.81911e-05,2.02799e-05,-8.69534e-06,2.22723e-05,4.0987e-06,0
-2.99745e-05,-1.84975e-05,-9.1798e-06,4.82699e-05,2.04438e-05,-9.31706e-06,3.66475e-05,3.40768e-06,0
-2.85893e-05,-1.82329e-05,-6.69731e-06,6.99014e-05,2.00945e-05,-9.2094e-06,4.46009e-05,4.34308e-06,0
-2.71637e-05,-2.0111e-05,-4.1043e-06,7.75536e-05,1.8701e-05,-8.66237e-06,4.66854e-05,6.02823e-06,0
-2.7138e-05,-1.9165e-05,-1.32123e-06,7.13997e-05,1.63293e-05,-8.15394e-06,4.54495e-05,6.35444e-06,0
-2.84916e-05,-1.19193e-05,1.06597e-06,5.87606e-05,1.55281e-05,-7.9291e-06,3.8583e-05,6.21176e-06,0
-3.06462e-05,-3.69742e-06,2.43171e-06,5.36247e-05,1.62313e-05,-9.16329e-06,2.25979e-05,5.91105e-06,0
-3.14274e-05,1.16575e-06,2.38271e-06,5.80381e-05,1.79916e-05,-1.07203e-05,-8.20112e-07,5.31798e-06,0
-3.00784e-05,2.75548e-06,1.71117e-06,5.70228e-05,2.10501e-05,-1.06164e-05,-2.41383e-05,5.44692e-06,0
-2.78007e-05,3.91644e-06,1.53697e-06,4.10905e-05,2.38176e-05,-9.21923e-06,-3.77187e-05,5.93968e-06,0
-2.62145e-05,6.13846e-06,2.64832e-06,1.65196e-05,2.45577e-05,-8.75014e-06,-3.92532e-05,4.63855e-06,0
-2.63094e-05,8.12417e-06,3.39324e-06,-5.18344e-06,2.3239e-05,-8.41486e-06,-3.32057e-05,1.20482e-06,0
-2.73032e-05,7.85791e-06,2.21489e-06,-1.96314e-05,2.07162e-05,-6.74961e-06,-2.32539e-05,-1.46523e-06,0
-2.76418e-05,6.39057e-06,-2.97887e-08,-2.52188e-05,1.88477e-05,-5.17147e-06,-1.1673e-05,-2.60213e-06,0
-2.80081e-05,5.78145e-06,-9.49621e-07,-2.54249e-05,1.95799e-05,-4.84359e-06,-3.92756e-06,-2.93561e-06,0
-2.97556e-05,6.30769e-06,-3.49675e-08,-2.42017e-05,2.15615e-05,-5.51604e-06,-1.22751e-06,-2.48915e-06,0
-3.14308e-05,8.94025e-06,1.11363e-06,-2.43532e-05,2.09782e-05,-5.6279e-06,7.56069e-07,-1.35299e-06,0
-3.22776e-05,1.2599e-05,1.14512e-06,-3.26646e-05,1.76087e-05,-4.94107e-06,5.77035e-06,-6.85084e-07,0
-3.19057e-05,1.40272e-05,4.31367e-07,-4.97549e-05,1.38934e-05,-3.75845e-06,1.39698e-05,-7.74956e-07,0
-3.21161e-05,1.2443e-05,-8.40723e-07,-6.42997e-05,1.03979e-05,-3.01041e-06,2.29605e-05,-4.26525e-07,0
-3.14258e-05,1.00201e-05,-3.22218e-06,-6.92164e-05,7.87386e-06,-2.87872e-06,3.10774e-05,-2.6251e-07,0
-2.88434e-05,7.18158e-06,-6.63811e-06,-6.54188e-05,7.59787e-06,-2.83521e-06,3.80121e-05,-1.07653e-06,0
-2.8186e-05,5.3244e-06,-9.09251e-06,-5.79252e-05,9.00274e-06,-3.39239e-06,4.23783e-05,-1.65065e-06,0
-2.92456e-05,5.67153e-06,-9.77267e-06,-4.85127e-05,9.36254e-06,-3.73467e-06,4.37461e-05,-2.56734e-06,0
-3.14968e-05,6.83976e-06,-1.0685e-05,-3.40939e-05,7.66912e-06,-4.4973e-06,4.16026e-05,-2.14695e-06,0
-3.34052e-05,7.78864e-06,-1.07504e-05,-1.36145e-05,5.09616e-06,-7.12939e-06,3.3477e-05,1.01008e-06,0
-3.50915e-05,8.68056e-06,-9.9246e-06,7.59143e-06,3.19161e-06,-9.50762e-06,1.99548e-05,3.78901e-06,0
-3.59162e-05,8.81108e-06,-1.04806e-05,1.99395e-05,3.81227e-06,-9.80384e-06,6.58589e-06,5.69667e-06,0
-3.3799e-05,8.19097e-06,-1.18061e-05,2.22736e-05,6.40009e-06,-8.58055e-06,-1.21568e-06,6.15798e-06,0
-3.10099e-05,6.61248e-06,-1.16927e-05,1.79275e-05,9.58485e-06,-7.92285e-06,-2.00215e-06,4.73966e-06,0
-2.98953e-05,5.16221e-06,-1.08174e-05,1.00443e-05,1.1358e-05,-8.09592e-06,5.91643e-07,3.25019e-06,0
-3.0966e-05,4.90607e-06,-1.24065e-05,1.94043e-07,1.03364e-05,-7.95642e-06,2.71765e-06,3.03371e-06,0
-3.26941e-05,5.32424e-06,-1.61921e-05,-9.63923e-06,6.61333e-06,-7.80058e-06,2.67018e-06,4.49097e-06,0
-3.38356e-05,7.0475e-06,-1.92086e-05,-1.6393e-05,1.3081e-06,-8.19228e-06,1.32283e-06,6.81038e-06,0
-3.32573e-05,8.8651e-06,-1.91755e-05,-1.69894e-05,-2.14276e-06,-8.70601e-06,2.39167e-06,7.30991e-06,0
-3.21517e-05,9.90009e-06,-1.48961e-05,-9.71507e-06,-1.8131e-06,-8.88608e-06,6.43238e-06,5.97571e-06,0
-3.16077e-05,1.11141e-05,-8.40751e-06,2.82946e-06,6.25291e-07,-8.72456e-06,1.35021e-05,4.45072e-06,0
-3.09999e-05,1.34197e-05,-3.64821e-06,1.75618e-05,2.14452e-06,-7.73193e-06,2.30334e-05,2.61726e-06,0
-2.99208e-05,1.6414e-05,-3.54719e-06,3.15426e-05,2.97096e-06,-6.2712e-06,3.13002e-05,-1.7171e-07,0
-2.88723e-05,1.89859e-05,-9.21439e-06,4.34932e-05,5.84201e-06,-6.26074e-06,3.35868e-05,-3.18524e-06,0
-2.82453e-05,2.05124e-05,-1.9576e-05,5.04422e-05,9.51158e-06,-8.04209e-06,3.11259e-05,-3.59604e-06,0
-2.78225e-05,2.16862e-05,-3.1544e-05,4.41452e-05,9.2621e-06,-9.03205e-06,2.92274e-05,-2.29685e-06,0
-2.8044e-05,2.37854e-05,-4.04726e-05,2.17675e-05,4.38916e-06,-8.54666e-06,2.82815e-05,-2.18321e-06,0
-2.78499e-05,2.71958e-05,-4.24086e-05,-2.00857e-06,-1.10297e-06,-6.89053e-06,2.55597e-05,-3.91793e-06,0
-2.79497e-05,3.16892e-05,-3.71515e-05,-1.48107e-05,-4.82629e-06,-5.63761e-06,2.1185e-05,-6.55716e-06,0
-2.82618e-05,3.45574e-05,-2.77942e-05,-2.19185e-05,-7.26321e-06,-6.42957e-06,1.72419e-05,-8.0334e-06,0
-2.68551e-05,3.21507e-05,-1.93121e-05,-2.54346e-05,-6.98294e-06,-8.05645e-06,1.53746e-05,-7.01351e-06,0
-2.58033e-05,2.58766e-05,-1.52592e-05,-1.74068e-05,-6.05201e-06,-8.50671e-06,1.41586e-05,-4.9922e-06,0
-2.57512e-05,1.88735e-05,-1.6622e-05,1.95737e-06,-9.74927e-06,-7.48493e-06,1.42936e-05,-3.94158e-06,0
-2.64128e-05,1.42364e-05,-1.79136e-05,1.25874e-05,-1.43604e-05,-7.6954e-06,1.4586e-05,-3.40525e-06,0
-2.71244e-05,1.51001e-05,-1.42188e-05,3.05805e-06,-1.58285e-05,-1.00533e-05,1.30182e-05,-3.8378e-06,0
-2.4493e-05,1.78425e-05,-9.68811e-06,-1.46897e-05,-1.52252e-05,-1.17663e-05,1.22079e-05,-4.25748e-06,0
-2.0341e-05,1.97628e-05,-6.03565e-06,-2.2743e-05,-1.2142e-05,-1.04993e-05,9.47757e-06,-3.07933e-06,0
-2e-05,2.31259e-05,-3.92743e-06,-1.6564e-05,-7.00251e-06,-9.04758e-06,6.52221e-06,-2.48034e-06,0
-2.2824e-05,2.67013e-05,-3.09059e-06,-7.08047e-06,-2.65868e-06,-8.746e-06,7.1294e-06,-2.04407e-06,0
-2.42981e-05,2.78596e-05,-2.19584e-06,4.39692e-06,-1.23195e-06,-8.48619e-06,1.00709e-05,-1.06734e-06,0
-2.4804e-05,2.70533e-05,-4.83698e-07,1.53522e-05,-6.37337e-07,-9.57859e-06,1.2495e-05,-1.25009e-06,0
-2.49247e-05,2.58477e-05,1.61576e-06,1.64638e-05,2.28115e-06,-1.18294e-05,1.35489e-05,-2.71276e-06,0
-2.51836e-05,2.48977e-05,2.41442e-06,8.21368e-06,7.99774e-06,-1.40234e-05,1.3436e-05,-3.49704e-06,0
-2.47149e-05,2.3932e-05,3.10943e-06,-1.90189e-06,1.44295e-05,-1.50051e-05,1.20005e-05,-1.91964e-06,0
-2.35824e-05,2.28657e-05,4.74786e-06,-1.33249e-05,1.80659e-05,-1.51309e-05,1.03901e-05,-3.71377e-07,0
-2.39111e-05,2.21893e-05,5.98126e-06,-2.96874e-05,1.73097e-05,-1.47957e-05,8.79541e-06,-9.94524e-07,0
-2.64273e-05,2.09991e-05,5.4092e-06,-4.62741e-05,1.31491e-05,-1.40755e-05,7.07588e-06,-3.29968e-06,0
-2.98399e-05,1.86844e-05,4.06339e-06,-5.47591e-05,8.37175e-06,-1.32998e-05,6.55979e-06,-4.35776e-06,0
-3.15047e-05,1.70977e-05,1.56063e-06,-5.13738e-05,5.11144e-06,-1.3778e-05,8.31164e-06,-2.03054e-06,0
-3.16578e-05,1.6833e-05,-1.92413e-06,-3.9672e-05,3.88195e-06,-1.47913e-05,1.12295e-05,2.20566e-06,0
-3.08126e-05,1.64705e-05,-4.50462e-06,-2.44759e-05,5.22934e-06,-1.41103e-05,1.27235e-05,5.56477e-06,0
-3.02963e-05,1.6372e-05,-5.81191e-06,-9.90512e-06,9.59213e-06,-1.26178e-05,1.04846e-05,6.50722e-06,0
-3.09477e-05,1.7921e-05,-7.30016e-06,1.93074e-06,1.52008e-05,-1.23654e-05,6.75378e-06,5.06176e-06,0
-3.18541e-05,1.94799e-05,-9.52047e-06,1.17873e-05,1.78432e-05,-1.31555e-05,5.52028e-06,2.56408e-06,0
-3.25166e-05,1.8201e-05,-1.23347e-05,2.16453e-05,1.68316e-05,-1.34084e-05,8.4053e-06,2.1145e-06,0
-3.36344e-05,1.48048e-05,-1.65837e-05,2.92844e-05,1.3914e-05,-1.2663e-05,1.31159e-05,4.14989e-06,0
-3.37328e-05,9.52898e-06,-2.01277e-05,3.17844e-05,1.19172e-05,-1.19286e-05,1.54529e-05,6.64324e-06,0
-3.27888e-05,2.94264e-06,-1.98041e-05,2.93058e-05,1.23853e-05,-1.24024e-05,1.34239e-05,6.64308e-06,0
-3.23872e-05,8.46203e-08,-1.89027e-05,2.21271e-05,1.26059e-05,-1.28845e-05,7.02641e-06,4.68238e-06,0
-3.19886e-05,2.28397e-06,-1.80657e-05,1.25735e-05,1.14747e-05,-1.25446e-05,-2.67013e-06,4.13427e-06,0
-3.11583e-05,6.56154e-06,-1.53332e-05,6.17201e-06,1.09378e-05,-1.08767e-05,-7.5517e-06,3.7208e-06,0
-3.14998e-05,1.09974e-05,-1.19419e-05,2.88771e-06,1.20725e-05,-8.24466e-06,-4.124e-06,3.77216e-06,0
-3.23422e-05,1.25088e-05,-8.76982e-06,-2.98341e-06,1.29302e-05,-7.75492e-06,5.01699e-06,4.31517e-06,0
-3.18974e-05,1.03011e-05,-7.64994e-06,-1.37734e-05,1.34697e-05,-9.65226e-06,1.56288e-05,4.78761e-06,0
-3.24621e-05,7.83294e-06,-8.46568e-06,-3.18833e-05,1.45239e-05,-1.06784e-05,2.18815e-05,6.7164e-06,0
-3.22874e-05,6.092e-06,-9.41909e-06,-5.82888e-05,1.5229e-05,-1.02964e-05,2.60591e-05,7.68826e-06,0
-3.01175e-05,5.76502e-06,-9.64418e-06,-8.05006e-05,1.50451e-05,-8.80598e-06,2.97525e-05,7.08203e-06,0
-2.91777e-05,7.19397e-06,-1.00496e-05,-8.55877e-05,1.51211e-05,-7.60017e-06,3.17225e-05,6.47176e-06,0
-2.94867e-05,9.18308e-06,-9.88334e-06,-8.04834e-05,1.62192e-05,-7.39673e-06,3.09483e-05,7.04754e-06,0
-3.01644e-05,1.14297e-05,-8.32651e-06,-7.38981e-05,1.89592e-05,-8.24668e-06,2.84291e-05,6.27535e-06,0
-3.05406e-05,1.29071e-05,-6.78631e-06,-6.46959e-05,2.30831e-05,-9.50194e-06,2.57097e-05,4.32004e-06,0
-3.06383e-05,1.22997e-05,-6.45858e-06,-4.57559e-05,2.7306e-05,-9.97113e-06,2.46925e-05,3.49505e-06,0
-3.11254e-05,8.21225e-06,-6.83122e-06,-1.46626e-05,3.10032e-05,-9.9302e-06,2.52706e-05,3.59446e-06,0
-3.25825e-05,3.09495e-06,-6.54496e-06,2.44341e-05,3.37307e-05,-9.93996e-06,2.37457e-05,4.85387e-06,0
-3.43345e-05,1.37232e-06,-4.44386e-06,6.16827e-05,3.52739e-05,-9.9747e-06,1.97325e-05,5.65499e-06,0
-3.56905e-05,3.25367e-06,-3.30513e-06,8.40614e-05,3.42757e-05,-9.77829e-06,1.6026e-05,4.52872e-06,0
-3.58717e-05,4.74275e-06,-5.71341e-06,8.80314e-05,3.11936e-05,-1.02122e-05,1.48407e-05,2.07065e-06,0
-3.43636e-05,3.4585e-06,-7.58474e-06,8.11037e-05,2.59125e-05,-1.08409e-05,1.52952e-05,-1.87733e-07,0
-3.36907e-05,-1.37699e-09,-5.89334e-06,7.21748e-05,1.9299e-05,-1.05232e-05,1.59249e-05,-1.82268e-06,0
-3.45727e-05,-4.65414e-06,-2.47662e-06,6.44251e-05,1.42347e-05,-9.14056e-06,1.6482e-05,-2.27175e-06,0
-3.51237e-05,-6.60663e-06,-2.262e-06,5.44682e-05,1.14713e-05,-8.76079e-06,1.58855e-05,-2.32288e-06,0
-3.49932e-05,-2.53885e-06,-6.76546e-06,3.86522e-05,8.97726e-06,-8.50548e-06,1.4533e-05,-2.61708e-06,0
-3.46952e-05,4.61562e-06,-1.07503e-05,2.0221e-05,7.41166e-06,-7.60093e-06,1.41103e-05,-2.8844e-06,0
-3.36959e-05,1.07107e-05,-1.10314e-05,2.67278e-06,5.97468e-06,-7.63449e-06,1.3774e-05,-2.55089e-06,0
-3.261e-05,1.37622e-05,-9.37269e-06,-8.33631e-06,4.95293e-06,-8.7903e-06,1.36779e-05,-1.54697e-06,0
-3.34149e-05,1.45112e-05,-8.51821e-06,-9.64395e-06,6.28834e-06,-9.87425e-06,1.2796e-05,-1.18565e-06,0
-3.48128e-05,1.79553e-05,-7.77581e-06,-4.12527e-06,6.59382e-06,-9.65496e-06,1.1597e-05,-2.55246e-06,0
-3.39087e-05,2.36483e-05,-5.79524e-06,3.98147e-06,6.50253e-06,-8.44318e-06,1.3283e-05,-3.06674e-06,0
-3.2996e-05,2.59543e-05,-3.75985e-06,9.91564e-06,7.72445e-06,-6.95991e-06,1.71024e-05,-1.95097e-06,0
-3.25244e-05,2.48504e-05,-3.19468e-06,6.95796e-06,9.5446e-06,-6.98995e-06,1.87867e-05,-1.20264e-06,0
-3.14076e-05,2.67237e-05,-4.99579e-06,-4.6515e-06,1.12751e-05,-8.50832e-06,1.76488e-05,-2.12858e-06,0
-3.10818e-05,3.552e-05,-8.11161e-06,-1.52822e-05,1.28569e-05,-9.63196e-06,1.54397e-05,-2.86619e-06,0
-3.09722e-05,4.74726e-05,-1.10439e-05,-1.70817e-05,1.3314e-05,-1.01478e-05,1.25084e-05,-1.92432e-06,0
-2.962e-05,5.63404e-05,-1.23801e-05,-1.37402e-05,1.37182e-05,-1.06454e-05,8.66439e-06,-1.88468e-06,0
-2.9278e-05,5.77805e-05,-1.23112e-05,-1.48212e-05,1.42896e-05,-1.2487e-05,4.92599e-06,-2.14497e-06,0
-2.98875e-05,5.15411e-05,-1.13106e-05,-1.5803e-05,1.29237e-05,-1.44304e-05,3.88234e-06,-1.32931e-06,0
-3.02567e-05,4.88306e-05,-1.0909e-05,-2.18792e-06,1.10237e-05,-1.38725e-05,3.84905e-06,-8.24326e-07,0
-3.14952e-05,6.12249e-05,-1.09216e-05,2.12103e-05,1.0383e-05,-1.13624e-05,3.21547e-06,-1.66798e-06,0
-3.19132e-05,7.78619e-05,-1.02077e-05,3.13042e-05,1.16559e-05,-9.02868e-06,2.12587e-06,-3.42832e-06,0
-3.07061e-05,8.1588e-05,-8.21972e-06,2.07605e-05,1.24143e-05,-8.02839e-06,2.24657e-06,-5.107e-06,0
-3.04919e-05,6.91018e-05,-5.89292e-06,-4.69286e-07,1.15803e-05,-7.51721e-06,3.14258e-06,-6.17637e-06,0
-3.21073e-05,4.65754e-05,-5.03276e-06,-2.10772e-05,1.15967e-05,-7.1731e-06,2.92647e-06,-7.0847e-06,0
-3.19972e-05,1.96812e-05,-5.14839e-06,-3.79778e-05,1.27855e-05,-6.8766e-06,1.73454e-06,-7.73113e-06,0
-2.94952e-05,-7.62254e-06,-5.81071e-06,-5.13709e-05,1.45757e-05,-6.52407e-06,2.91868e-07,-7.51572e-06,0
-2.75552e-05,-2.8671e-05,-7.4818e-06,-5.98439e-05,1.72832e-05,-6.86773e-06,-1.01464e-06,-5.87297e-06,0
-2.87888e-05,-4.14249e-05,-9.44599e-06,-6.29803e-05,2.07321e-05,-8.58117e-06,-1.84482e-06,-3.85347e-06,0
-3.21913e-05,-5.17618e-05,-9.92576e-06,-6.36342e-05,2.2486e-05,-1.06667e-05,-6.88882e-07,-3.36908e-06,0
-3.39282e-05,-6.40283e-05,-8.86907e-06,-6.54955e-05,2.01896e-05,-1.27751e-05,1.04005e-06,-4.33149e-06,0
-3.30515e-05,-7.1591e-05,-6.78383e-06,-6.85114e-05,1.54704e-05,-1.47759e-05,1.14005e-06,-4.61732e-06,0
-3.23836e-05,-6.64234e-05,-4.61267e-06,-6.89105e-05,1.06446e-05,-1.62607e-05,1.59109e-06,-4.71483e-06,0
-3.21402e-05,-5.21385e-05,-2.11074e-06,-6.74207e-05,8.28537e-06,-1.72347e-05,5.91483e-06,-4.19556e-06,0
-3.1106e-05,-3.45715e-05,5.71857e-07,-6.68944e-05,1.16714e-05,-1.69225e-05,1.46885e-05,-2.60423e-06,0
-2.95234e-05,-1.77245e-05,5.21099e-06,-6.27208e-05,1.97075e-05,-1.54858e-05,2.24513e-05,-1.85209e-06,0
-2.76077e-05,-2.81108e-06,1.18801e-05,-5.47459e-05,2.67327e-05,-1.44226e-05,2.54612e-05,-1.56704e-06,0
-2.69018e-05,7.90158e-06,1.61834e-05,-4.71256e-05,2.76962e-05,-1.50991e-05,2.49309e-05,-1.50912e-07,0
-2.8138e-05,1.11992e-05,1.91877e-05,-3.55382e-05,2.53135e-05,-1.56407e-05,2.26988e-05,2.38835e-06,0
-2.90681e-05,9.96473e-06,2.62904e-05,-1.8221e-05,2.21378e-05,-1.43445e-05,2.23381e-05,3.03059e-06,0
-2.9333e-05,7.52211e-06,3.51255e-05,-1.74645e-06,1.99707e-05,-1.28546e-05,2.1296e-05,3.86155e-07,0
-2.99461e-05,7.02242e-06,3.59771e-05,1.19746e-05,2.30307e-05,-1.12317e-05,1.8297e-05,-2.28899e-06,0
-3.03721e-05,9.51044e-06,2.19008e-05,2.10074e-05,2.64092e-05,-8.5064e-06,1.437e-05,-3.72701e-06,0
-2.90433e-05,1.61475e-05,-4.71364e-06,2.31911e-05,2.68813e-05,-6.737e-06,1.03827e-05,-5.08834e-06,0
-2.69185e-05,2.31802e-05,-3.4724e-05,1.56571e-05,2.57096e-05,-7.25985e-06,6.78934e-06,-4.88451e-06,0
-2.62805e-05,2.64098e-05,-5.75285e-05,1.14452e-06,2.3928e-05,-7.49184e-06,3.23041e-06,-2.92452e-06,0
-2.70378e-05,2.61458e-05,-6.79594e-05,-1.11675e-05,2.35946e-05,-4.91254e-06,8.12488e-07,-1.63662e-06,0
-2.78975e-05,2.93766e-05,-6.67428e-05,-1.8862e-05,2.40951e-05,-2.40453e-06,-1.03256e-06,-1.85528e-06,0
-2.7545e-05,3.96934e-05,-5.72721e-05,-2.45748e-05,2.25015e-05,-2.3289e-06,-2.42847e-06,-2.32673e-06,0
-2.70495e-05,5.19069e-05,-4.44445e-05,-2.82672e-05,1.92638e-05,-3.60874e-06,-3.42532e-06,-2.94826e-06,0
-2.75274e-05,6.09952e-05,-3.28376e-05,-2.78322e-05,1.87218e-05,-5.16006e-06,-3.07478e-06,-3.18e-06,0
-2.82919e-05,6.19819e-05,-2.49872e-05,-2.36809e-05,2.09308e-05,-5.84579e-06,-1.75465e-06,-2.35499e-06,0
-2.81617e-05,5.3451e-05,-1.9128e-05,-1.59089e-05,2.1452e-05,-5.84349e-06,-3.06805e-06,-1.96618e-06,0
-2.80226e-05,3.86325e-05,-1.39537e-05,-4.39697e-06,1.89944e-05,-6.04939e-06,-1.0052e-05,-2.51861e-06,0
-2.79477e-05,2.47744e-05,-9.85812e-06,1.05792e-05,1.71381e-05,-6.68152e-06,-1.81055e-05,-2.62534e-06,0
-2.73881e-05,1.31835e-05,-7.36892e-06,2.64599e-05,1.7155e-05,-5.94196e-06,-2.23356e-05,-2.55208e-06,0
-2.59252e-05,1.34169e-06,-6.42633e-06,4.08667e-05,1.81189e-05,-4.52466e-06,-2.19989e-05,-3.36441e-06,0
-2.4089e-05,-1.11387e-05,-7.14321e-06,5.54069e-05,1.90928e-05,-5.16125e-06,-1.65817e-05,-4.12435e-06,0
-2.43537e-05,-2.15545e-05,-7.32704e-06,7.11504e-05,2.00592e-05,-6.05362e-06,-6.30083e-06,-3.23798e-06,0
-2.58036e-05,-2.73241e-05,-6.26968e-06,7.77205e-05,2.0749e-05,-5.6823e-06,8.65713e-06,-1.36819e-06,0
-2.69293e-05,-2.60467e-05,-3.85519e-06,6.40339e-05,1.95735e-05,-5.4545e-06,2.61156e-05,4.94147e-07,0
-2.89931e-05,-1.89143e-05,-2.28499e-07,3.94864e-05,1.64082e-05,-4.45502e-06,3.96172e-05,2.47256e-06,0
-2.98301e-05,-6.5034e-06,3.15975e-06,2.11921e-05,1.34937e-05,-3.24384e-06,4.55857e-05,4.04661e-06,0
-2.85157e-05,9.30431e-06,1.01056e-05,1.70779e-05,1.08874e-05,-4.3779e-06,4.69749e-05,3.76804e-06,0
-2.83807e-05,2.22018e-05,2.16356e-05,1.98939e-05,9.79383e-06,-7.71743e-06,4.63559e-05,3.07067e-06,0
-2.96594e-05,3.56526e-05,3.28644e-05,1.75655e-05,9.38166e-06,-9.01539e-06,4.78057e-05,3.79519e-06,0
-2.93518e-05,5.21413e-05,4.05214e-05,8.72318e-06,8.63077e-06,-6.56299e-06,5.54535e-05,4.23707e-06,0
-2.72452e-05,6.01895e-05,4.30994e-05,-4.99293e-06,8.487e-06,-5.0726e-06,6.271e-05,4.51848e-06,0
-2.58065e-05,5.19322e-05,3.62296e-05,-2.21454e-05,8.31958e-06,-5.79184e-06,6.40157e-05,4.97283e-06,0
-2.49582e-05,3.19119e-05,1.88987e-05,-4.82245e-05,8.25508e-06,-5.85231e-06,6.07093e-05,5.78748e-06,0
-2.42272e-05,7.16192e-06,-2.57289e-06,-7.74402e-05,7.55448e-06,-5.35603e-06,5.29137e-05,7.18661e-06,0
-2.47606e-05,-1.64789e-05,-2.24347e-05,-9.02403e-05,8.19835e-06,-5.40528e-06,3.91881e-05,8.73924e-06,0
-2.70626e-05,-2.94495e-05,-3.49862e-05,-8.151e-05,9.4842e-06,-6.36484e-06,1.88788e-05,9.06286e-06,0
-2.97944e-05,-2.83232e-05,-3.64111e-05,-5.74368e-05,1.0447e-05,-7.87873e-06,-1.0535e-06,7.74456e-06,0
-3.14046e-05,-2.18637e-05,-2.86699e-05,-2.67417e-05,1.04101e-05,-9.36354e-06,-1.21534e-05,6.12775e-06,0
-3.13303e-05,-1.78306e-05,-2.00049e-05,1.48465e-06,9.1563e-06,-1.12536e-05,-1.36312e-05,5.7568e-06,0
-3.05403e-05,-1.593e-05,-1.46941e-05,2.20646e-05,6.64511e-06,-1.3321e-05,-1.45519e-05,6.20086e-06,0
-3.09682e-05,-1.23865e-05,-1.26832e-05,3.35216e-05,4.66427e-06,-1.49229e-05,-2.05104e-05,5.76164e-06,0
-3.28196e-05,-7.24456e-06,-1.4238e-05,3.26914e-05,4.8796e-06,-1.5613e-05,-2.78226e-05,3.47339e-06,0
-3.36298e-05,-1.28483e-06,-1.73882e-05,2.36878e-05,5.39863e-06,-1.59905e-05,-3.01384e-05,2.62909e-07,0
-3.32114e-05,4.66666e-06,-2.15142e-05,1.98251e-05,4.79481e-06,-1.56605e-05,-2.61761e-05,-5.4023e-07,0
-3.27644e-05,9.74519e-06,-2.62581e-05,3.33715e-05,4.37892e-06,-1.42371e-05,-1.96417e-05,1.37209e-06,0
-3.26606e-05,1.27241e-05,-2.90026e-05,5.61557e-05,6.84713e-06,-1.29779e-05,-1.28582e-05,3.37579e-06,0
-3.2284e-05,1.36036e-05,-2.53288e-05,6.36536e-05,1.15245e-05,-1.28073e-05,-6.65544e-06,3.14678e-06,0
-3.06821e-05,1.29364e-05,-1.59655e-05,4.81918e-05,1.71877e-05,-1.26008e-05,-4.07023e-07,1.13529e-06,0
-2.84721e-05,1.27659e-05,-7.47285e-06,2.23724e-05,1.95658e-05,-1.22048e-05,5.4588e-06,4.369e-07,0
-2.76908e-05,1.40725e-05,-5.90885e-06,1.35742e-07,1.78994e-05,-1.21655e-05,9.80305e-06,1.85878e-06,0
-2.85859e-05,1.64364e-05,-7.87458e-06,-9.90749e-06,1.58321e-05,-1.22669e-05,1.31825e-05,2.60249e-06,0
-3.07749e-05,2.00671e-05,-8.91298e-06,-9.71765e-06,1.47673e-05,-1.16876e-05,1.60733e-05,2.20144e-06,0
-3.27618e-05,2.31817e-05,-1.00747e-05,-7.07224e-06,1.22442e-05,-1.03067e-05,1.77859e-05,9.80339e-07,0
-3.03893e-05,2.23665e-05,-1.00965e-05,-7.53735e-06,9.30455e-06,-1.22304e-05,1.83723e-05,2.08624e-06,0
-2.64337e-05,1.97047e-05,-7.64589e-06,-1.06792e-05,7.98165e-06,-1.66017e-05,1.63948e-05,4.18327e-06,0
-2.50643e-05,1.83642e-05,-6.46096e-06,-1.73516e-05,6.18167e-06,-1.852e-05,1.33903e-05,4.78e-06,0
-2.47927e-05,1.77903e-05,-9.57994e-06,-2.87252e-05,5.02706e-06,-1.64238e-05,1.32578e-05,6.39055e-06,0
-2.48523e-05,1.81806e-05,-1.46545e-05,-3.3649e-05,6.60182e-06,-1.17973e-05,1.70489e-05,8.07492e-06,0
-2.63062e-05,1.7868e-05,-1.88741e-05,-2.81015e-05,1.12023e-05,-8.09819e-06,2.19541e-05,8.00714e-06,0
-2.79214e-05,1.7234e-05,-2.07558e-05,-2.09551e-05,1.61123e-05,-7.86962e-06,2.55335e-05,7.06202e-06,0
-2.91985e-05,1.70363e-05,-2.03391e-05,-1.81337e-05,1.88787e-05,-9.562e-06,2.70215e-05,7.443e-06,0
-2.9779e-05,1.80856e-05,-1.87799e-05,-1.57974e-05,1.81334e-05,-1.05373e-05,2.68658e-05,6.94764e-06,0
-2.89231e-05,2.09027e-05,-1.62562e-05,-1.02474e-05,1.61716e-05,-1.1595e-05,2.64212e-05,5.7783e-06,0
-2.78467e-05,2.40857e-05,-1.33216e-05,-3.14445e-06,1.77224e-05,-1.32174e-05,2.48679e-05,2.78526e-06,0
-2.83075e-05,2.55668e-05,-1.12515e-05,2.87251e-06,2.1967e-05,-1.5033e-05,2.20875e-05,-1.64148e-06,0
-3.04801e-05,2.4627e-05,-9.95868e-06,5.0372e-06,2.2911e-05,-1.61559e-05,2.01621e-05,-3.26569e-06,0
-3.15509e-05,2.42795e-05,-8.39217e-06,4.3808e-06,1.78072e-05,-1.62568e-05,2.00992e-05,-2.61541e-06,0
-3.15471e-05,2.54775e-05,-6.63614e-06,4.35959e-06,1.13869e-05,-1.56036e-05,2.07897e-05,-2.21236e-06,0
-3.19373e-05,2.62487e-05,-5.92018e-06,6.59482e-06,7.29264e-06,-1.5624e-05,2.14325e-05,-3.77651e-06,0
-3.18907e-05,2.57363e-05,-6.16274e-06,9.70198e-06,5.38041e-06,-1.67639e-05,2.11992e-05,-7.20819e-06,0
-3.04077e-05,2.48644e-05,-6.35364e-06,1.09094e-05,4.95122e-06,-1.76761e-05,2.02313e-05,-9.90779e-06,0
-2.89016e-05,2.28143e-05,-6.48898e-06,8.01628e-06,5.64998e-06,-1.64178e-05,2.06427e-05,-1.00238e-05,0
-2.84215e-05,1.89998e-05,-6.5534e-06,2.05774e-06,6.68605e-06,-1.19985e-05,2.5211e-05,-8.77486e-06,0
-2.82222e-05,1.63556e-05,-6.49552e-06,-4.72087e-06,6.13413e-06,-7.77536e-06,3.48829e-05,-7.29475e-06,0
-2.71071e-05,1.70004e-05,-6.72901e-06,-1.52354e-05,3.79056e-06,-6.47796e-06,4.59176e-05,-6.70757e-06,0
-2.60462e-05,1.92829e-05,-5.3671e-06,-3.13526e-05,1.85644e-06,-7.17208e-06,5.41806e-05,-6.14157e-06,0
-2.71653e-05,1.87587e-05,-2.94263e-06,-4.74349e-05,1.29337e-06,-7.99984e-06,6.05147e-05,-3.9078e-06,0
-2.95414e-05,1.73621e-05,-1.29387e-06,-5.80339e-05,2.17926e-06,-7.22711e-06,6.29489e-05,-1.43054e-06,0
-3.17247e-05,1.84852e-05,-9.0385e-07,-6.10769e-05,3.78701e-06,-4.96773e-06,5.99257e-05,-7.11952e-08,0
-3.21748e-05,1.90515e-05,-7.90609e-07,-5.53167e-05,6.59338e-06,-3.74158e-06,5.24737e-05,1.54027e-06,0
-3.08747e-05,1.86234e-05,-1.68339e-07,-4.02097e-05,1.22019e-05,-4.06479e-06,3.84437e-05,2.75437e-06,0
-3.04555e-05,1.86386e-05,-9.53296e-07,-2.64048e-05,1.50836e-05,-3.24613e-06,2.12788e-05,3.18915e-06,0
-3.12621e-05,1.83717e-05,-3.09049e-06,-1.62107e-05,1.24797e-05,-1.20126e-06,2.05642e-06,3.18496e-06,0
-3.02134e-05,1.75305e-05,-5.15766e-06,-1.85419e-06,1.00978e-05,-1.94858e-06,-1.82775e-05,2.091e-06,0
-2.85586e-05,1.83689e-05,-6.67548e-06,1.03796e-05,1.10871e-05,-3.11469e-06,-3.52169e-05,-3.4055e-07,0
-2.95181e-05,1.93096e-05,-7.12649e-06,1.55648e-05,1.3982e-05,-2.0075e-06,-4.63394e-05,-1.82736e-06,0
-3.04832e-05,1.81215e-05,-6.88588e-06,8.35074e-06,1.53938e-05,-8.92536e-07,-4.60616e-05,-1.76036e-06,0
-3.09958e-05,1.61923e-05,-7.51789e-06,-5.39136e-06,1.47808e-05,-1.38007e-06,-3.44643e-05,-1.59174e-06,0
-3.23523e-05,1.36844e-05,-8.12565e-06,-1.07742e-05,1.30539e-05,-2.98302e-06,-1.85442e-05,-1.19409e-06,0
-3.235e-05,1.25734e-05,-8.20263e-06,1.818e-06,1.16439e-05,-4.44638e-06,-4.83789e-06,-1.89631e-07,0
-3.12519e-05,1.36082e-05,-8.245e-06,3.07014e-05,1.14371e-05,-5.15711e-06,7.35006e-06,1.77131e-06,0
-3.04736e-05,1.62218e-05,-7.63917e-06,5.76821e-05,1.23777e-05,-4.28495e-06,1.74509e-05,3.83112e-06,0
-2.99777e-05,1.76801e-05,-6.1406e-06,6.31992e-05,1.29185e-05,-2.75158e-06,2.3623e-05,5.3477e-06,0
-2.9999e-05,1.79471e-05,-4.81838e-06,4.43869e-05,1.16083e-05,-2.64551e-06,2.56719e-05,5.71262e-06,0
-3.10902e-05,1.85125e-05,-4.1466e-06,1.56391e-05,9.83457e-06,-4.17164e-06,2.3073e-05,6.48222e-06,0
-3.28019e-05,1.97193e-05,-3.84597e-06,-1.14147e-05,8.69028e-06,-5.41369e-06,1.68421e-05,8.11539e-06,0
-3.47051e-05,2.04435e-05,-5.37516e-06,-2.75901e-05,9.54274e-06,-6.15615e-06,8.77579e-06,8.70663e-06,0
-3.67335e-05,2.13965e-05,-7.94114e-06,-2.90613e-05,1.11339e-05,-6.72019e-06,9.441e-07,9.09714e-06,0
-3.73501e-05,2.81236e-05,-8.40377e-06,-2.34794e-05,1.16904e-05,-6.90784e-06,-5.36146e-06,1.06725e-05,0
-3.56044e-05,3.99061e-05,-5.06669e-06,-2.36274e-05,1.06976e-05,-6.61825e-06,-6.97547e-06,1.17715e-05,0
-3.32459e-05,4.67234e-05,2.55366e-07,-2.95558e-05,8.83965e-06,-5.51708e-06,-4.42776e-06,1.18465e-05,0
-3.27993e-05,4.15728e-05,6.10146e-06,-3.2895e-05,7.00325e-06,-3.70579e-06,-8.21962e-07,1.1403e-05,0
-3.25852e-05,2.94832e-05,1.63189e-05,-2.86982e-05,6.70726e-06,-3.26313e-06,-1.35623e-06,1.0408e-05,0
-3.23265e-05,1.60812e-05,3.32051e-05,-1.50312e-05,7.37119e-06,-4.79112e-06,-7.12256e-06,9.7974e-06,0
-3.30734e-05,1.2802e-06,5.32834e-05,5.64742e-06,7.47748e-06,-5.83477e-06,-1.31427e-05,1.00909e-05,0
-3.28832e-05,-1.30812e-05,7.05842e-05,2.67269e-05,9.75451e-06,-5.35098e-06,-1.34971e-05,9.48312e-06,0
-3.24556e-05,-1.96877e-05,7.5836e-05,4.39558e-05,1.38931e-05,-5.97458e-06,-6.82598e-06,7.84195e-06,0
-3.1944e-05,-1.88064e-05,6.24155e-05,5.64355e-05,1.70337e-05,-8.04195e-06,5.00668e-06,6.11973e-06,0
-3.22358e-05,-1.97722e-05,3.26531e-05,6.01547e-05,1.80167e-05,-7.05494e-06,1.91012e-05,4.49407e-06,0
-3.25107e-05,-2.58937e-05,-3.97186e-06,5.45954e-05,1.71363e-05,-3.29268e-06,3.18432e-05,2.16076e-06,0
-3.1083e-05,-3.05051e-05,-4.01775e-05,3.95737e-05,1.65085e-05,-1.86566e-06,4.09794e-05,-2.2e-06,0
-3.00275e-05,-3.12063e-05,-7.10312e-05,1.72292e-05,1.72767e-05,-2.85809e-06,4.25162e-05,-4.40522e-06,0
-3.09883e-05,-2.90732e-05,-8.97697e-05,-1.93178e-06,1.82826e-05,-3.36636e-06,3.84138e-05,-2.20869e-06,0
-3.35139e-05,-2.40727e-05,-9.32476e-05,-1.28127e-05,1.77177e-05,-2.15416e-06,3.64743e-05,5.26705e-07,0
-3.55126e-05,-1.8249e-05,-8.51274e-05,-2.03908e-05,1.6994e-05,-1.39566e-06,3.89782e-05,1.48878e-06,0
-3.64103e-05,-1.40311e-05,-7.47237e-05,-2.85793e-05,1.82591e-05,-1.89205e-06,3.92394e-05,1.40863e-06,0
-3.54033e-05,-1.07028e-05,-6.61731e-05,-3.22297e-05,2.00156e-05,-2.51252e-06,3.21568e-05,4.68869e-08,0
-3.24389e-05,-7.42126e-06,-5.94544e-05,-2.78145e-05,1.99698e-05,-3.09555e-06,2.02212e-05,-2.61323e-06,0
-2.98723e-05,-5.46839e-06,-5.36068e-05,-1.86921e-05,1.86895e-05,-1.75159e-06,1.00635e-05,-3.42406e-06,0
-2.93474e-05,-5.24036e-06,-4.71326e-05,-1.01199e-05,1.79225e-05,2.48439e-07,5.61629e-06,-2.72792e-07,0
-3.04123e-05,-5.07261e-06,-3.99173e-05,-4.25928e-06,1.78887e-05,5.40419e-07,3.71865e-06,3.17599e-06,0
-3.15047e-05,-1.91097e-06,-3.12591e-05,-1.9973e-08,1.81043e-05,-1.03808e-06,9.13593e-07,4.55246e-06,0
-3.09991e-05,3.49316e-06,-2.18586e-05,3.97019e-06,1.71336e-05,-2.03919e-06,-1.86375e-06,4.26115e-06,0
-2.9112e-05,7.29339e-06,-1.53454e-05,7.28177e-06,1.5057e-05,-1.25898e-06,-3.36919e-06,2.46637e-06,0
-2.79898e-05,8.38403e-06,-1.32026e-05,7.98512e-06,1.30366e-05,7.60304e-08,-3.2564e-06,4.06834e-07,0
-2.89028e-05,9.80456e-06,-1.26966e-05,7.31308e-06,1.35401e-05,8.39543e-08,-8.28882e-07,-2.9867e-07,0
-3.04028e-05,1.21649e-05,-1.09967e-05,6.19399e-06,1.70224e-05,-1.48848e-06,2.41986e-06,1.52903e-06,0
-3.09984e-05,1.25746e-05,-8.42732e-06,4.92671e-06,2.00039e-05,-3.2037e-06,3.03052e-06,3.99313e-06,0
-3.01968e-05,1.06911e-05,-6.18105e-06,7.01568e-07,1.9174e-05,-4.8846e-06,8.35403e-07,4.50037e-06,0
-2.85901e-05,1.07799e-05,-3.95196e-06,-9.61296e-06,1.57857e-05,-5.41529e-06,1.81585e-07,1.90538e-06,0
-2.74924e-05,1.26646e-05,-1.94962e-06,-2.41172e-05,1.32538e-05,-3.83567e-06,3.94342e-06,-1.61091e-06,0
-2.76358e-05,1.47485e-05,3.31181e-07,-3.52643e-05,1.20575e-05,-2.81296e-06,1.15105e-05,-1.58628e-06,0
-2.84428e-05,1.75291e-05,3.18439e-06,-3.78488e-05,1.13735e-05,-3.32133e-06,1.7836e-05,2.86349e-06,0
-2.94997e-05,1.93393e-05,4.3896e-06,-3.33919e-05,1.17377e-05,-2.93965e-06,2.02991e-05,7.32243e-06,0
-3.15143e-05,1.84623e-05,1.59062e-06,-2.69977e-05,1.4248e-05,-1.41668e-06,1.91151e-05,7.47238e-06,0
-3.25542e-05,1.78895e-05,-3.90679e-06,-2.45222e-05,1.59414e-05,-9.81989e-07,1.6012e-05,6.22013e-06,0
-3.32961e-05,1.8415e-05,-9.07929e-06,-2.44647e-05,1.48909e-05,-3.98247e-06,1.4291e-05,4.84721e-06,0
-3.33523e-05,1.87026e-05,-9.55625e-06,-2.39872e-05,1.4467e-05,-6.84507e-06,1.30597e-05,2.53448e-06,0
-3.04496e-05,1.83796e-05,-6.22189e-06,-2.46466e-05,1.54106e-05,-6.77376e-06,1.26809e-05,2.13267e-06,0
-2.76547e-05,1.77971e-05,-3.09117e-06,-2.19712e-05,1.4733e-05,-7.02071e-06,1.30215e-05,2.00376e-06,0
-2.71906e-05,1.85954e-05,-8.83055e-07,-1.57282e-05,1.24383e-05,-8.79549e-06,1.31034e-05,-3.48526e-07,0
-2.90389e-05,1.96131e-05,1.63782e-06,-9.63877e-06,1.05713e-05,-1.11694e-05,1.11473e-05,-4.33363e-06,0
-3.16091e-05,2.03925e-05,2.9987e-06,-6.78745e-06,9.86276e-06,-1.39245e-05,8.38632e-06,-6.96291e-06,0
-3.26828e-05,2.01953e-05,3.39024e-06,-3.65308e-06,9.36701e-06,-1.57037e-05,6.74004e-06,-6.43874e-06,0
-3.21991e-05,1.89977e-05,3.87957e-06,1.41865e-05,8.95537e-06,-1.67263e-05,4.78509e-06,-4.53916e-06,0
-3.17901e-05,1.94977e-05,3.36039e-06,4.97223e-05,1.05291e-05,-1.70564e-05,1.39992e-06,-3.11513e-06,0
-3.22846e-05,2.37398e-05,3.6327e-06,8.27669e-05,1.35747e-05,-1.71589e-05,-7.36996e-07,-2.82057e-06,0
-3.30035e-05,2.85087e-05,3.90866e-06,8.81797e-05,1.49447e-05,-1.81167e-05,1.16951e-06,-3.4666e-06,0
-3.36001e-05,3.10273e-05,2.58312e-06,6.16799e-05,1.36055e-05,-2.00449e-05,5.57585e-06,-3.4695e-06,0
-3.43182e-05,3.38494e-05,-2.90811e-07,1.89382e-05,1.0656e-05,-2.32451e-05,1.14062e-05,-3.23399e-06,0
-3.54923e-05,3.79924e-05,-1.70113e-06,-1.8824e-05,8.17997e-06,-2.62815e-05,1.64425e-05,-4.37107e-06,0
-3.64357e-05,3.95502e-05,-1.14411e-06,-4.15753e-05,6.72616e-06,-2.71945e-05,1.883e-05,-5.28748e-06,0
-3.62017e-05,3.69614e-05,4.73272e-08,-5.05749e-05,4.76297e-06,-2.56777e-05,1.86837e-05,-4.58901e-06,0
-3.44073e-05,3.47241e-05,6.15995e-07,-4.90027e-05,2.23277e-06,-2.33772e-05,1.82621e-05,-3.91607e-06,0
-3.16285e-05,3.84301e-05,1.27354e-08,-3.87895e-05,1.70598e-06,-2.16764e-05,1.70188e-05,-4.91998e-06,0
-2.94922e-05,4.52508e-05,-1.20856e-07,-2.81847e-05,3.83681e-06,-2.08539e-05,1.51031e-05,-5.3677e-06,0
-2.81424e-05,4.5857e-05,1.12612e-06,-2.77755e-05,5.11992e-06,-2.0094e-05,1.38973e-05,-5.37062e-06,0
-2.71545e-05,3.7715e-05,2.49139e-06,-3.68026e-05,5.037e-06,-2.05341e-05,1.2938e-05,-5.21404e-06,0
-2.75759e-05,2.35091e-05,1.78728e-06,-4.44367e-05,4.48123e-06,-2.28475e-05,1.18415e-05,-4.11114e-06,0
-2.78975e-05,9.66924e-06,-6.9282e-07,-4.54902e-05,4.02218e-06,-2.44485e-05,1.22689e-05,-2.99685e-06,0
-2.70904e-05,1.71855e-06,-2.60309e-06,-3.80568e-05,6.85191e-06,-2.36629e-05,1.43284e-05,-2.44654e-06,0
-2.7106e-05,-1.30936e-06,-2.33735e-06,-2.16084e-05,1.15094e-05,-2.24064e-05,1.57556e-05,-3.38698e-06,0
-2.7918e-05,-1.2462e-06,-2.06303e-06,-6.86389e-06,1.30333e-05,-2.22604e-05,1.55675e-05,-6.1438e-06,0
-2.83446e-05,-1.87581e-06,-2.27004e-06,-1.27124e-07,1.17938e-05,-2.12322e-05,1.38055e-05,-7.42699e-06,0
-2.82382e-05,-6.61159e-06,-2.84911e-06,-4.96407e-06,9.6803e-06,-1.93787e-05,1.41478e-05,-5.56794e-06,0
-2.79524e-05,-1.25241e-05,-4.7383e-06,-2.50798e-05,7.57167e-06,-1.82994e-05,1.74919e-05,-2.55561e-06,0
-2.83973e-05,-9.59287e-06,-6.40688e-06,-4.68754e-05,6.63685e-06,-1.69773e-05,2.29328e-05,-3.364e-07,0
-2.85795e-05,2.21086e-06,-7.05236e-06,-5.59212e-05,7.29005e-06,-1.59259e-05,2.81649e-05,-1.64023e-06,0
-2.76654e-05,1.30822e-05,-5.5032e-06,-5.42352e-05,1.02542e-05,-1.41691e-05,3.04456e-05,-3.57298e-06,0
-2.83288e-05,1.97645e-05,-2.84913e-06,-5.08849e-05,1.23858e-05,-1.21626e-05,2.93385e-05,-3.43776e-06,0
-2.93013e-05,2.18794e-05,-2.01619e-06,-4.77849e-05,1.04252e-05,-1.19759e-05,2.70825e-05,-2.06637e-06,0
-2.93203e-05,2.02445e-05,-3.57349e-06,-3.6509e-05,6.73356e-06,-1.29371e-05,2.49824e-05,-1.66087e-06,0
-2.87685e-05,1.5003e-05,-5.25376e-06,-1.34855e-05,5.11082e-06,-1.36378e-05,2.19058e-05,-1.88789e-06,0
-2.76013e-05,9.37931e-06,-4.66e-06,1.53288e-05,6.6453e-06,-1.32559e-05,1.80067e-05,-2.25506e-06,0
-2.75113e-05,7.74373e-06,-2.52508e-06,4.12609e-05,1.10912e-05,-1.21045e-05,1.37562e-05,-4.03638e-06,0
-2.85526e-05,1.0525e-05,-1.03922e-06,5.64727e-05,1.65957e-05,-1.0054e-05,1.03213e-05,-4.40506e-06,0
-2.9931e-05,1.83821e-05,-2.41961e-06,5.75205e-05,2.09878e-05,-9.57036e-06,8.91837e-06,-2.388e-06,0
-3.03785e-05,3.13198e-05,-4.76898e-06,4.9478e-05,2.36183e-05,-1.16775e-05,1.02087e-05,-1.33515e-06,0
-3.02768e-05,4.49088e-05,-5.37094e-06,3.81061e-05,2.33611e-05,-1.30064e-05,1.29847e-05,-2.37525e-06,0
-2.96168e-05,5.39539e-05,-4.11934e-06,2.71301e-05,2.07707e-05,-1.13923e-05,1.41694e-05,-3.49046e-06,0
-2.84649e-05,5.77674e-05,-3.72831e-06,1.84187e-05,1.93164e-05,-1.02848e-05,1.0392e-05,-3.413e-06,0
-2.86446e-05,5.58619e-05,-4.55023e-06,1.28938e-05,2.13155e-05,-1.17662e-05,3.46625e-06,-1.13114e-06,0
-3.00877e-05,4.47646e-05,-4.87434e-06,1.1602e-05,2.48391e-05,-1.36753e-05,-1.87033e-06,1.35929e-06,0
-3.07067e-05,2.39065e-05,-4.86548e-06,1.18292e-05,2.5784e-05,-1.3759e-05,-3.21208e-06,1.72527e-06,0
-2.9872e-05,-2.54453e-06,-5.14941e-06,1.01962e-05,2.30034e-05,-1.23534e-05,-9.87353e-07,1.93487e-07,0
-2.98343e-05,-2.80658e-05,-7.08439e-06,6.86645e-06,1.89998e-05,-1.18207e-05,2.4652e-06,-3.98539e-07,0
-3.0908e-05,-4.81546e-05,-9.20197e-06,3.66917e-06,1.48224e-05,-1.16106e-05,5.06442e-06,5.5449e-07,0
-3.19143e-05,-6.0728e-05,-9.56126e-06,3.54835e-06,1.30756e-05,-1.05199e-05,5.61348e-06,1.50331e-06,0
-3.27163e-05,-6.05079e-05,-7.37858e-06,7.11818e-06,1.32488e-05,-1.07207e-05,6.02749e-06,1.58762e-07,0
-3.28809e-05,-5.04234e-05,-4.64949e-06,9.22015e-06,1.37891e-05,-1.21181e-05,7.67015e-06,-1.22725e-06,0
-3.30263e-05,-3.96123e-05,-4.00313e-06,7.03168e-06,1.36475e-05,-1.25643e-05,1.04121e-05,1.4383e-06,0
-3.18775e-05,-2.88303e-05,-5.50993e-06,2.29462e-06,1.31633e-05,-1.23425e-05,1.29538e-05,4.4726e-06,0
-2.90792e-05,-1.82791e-05,-9.99104e-06,-1.4818e-06,1.33572e-05,-1.15181e-05,1.28098e-05,4.66651e-06,0
-2.8461e-05,-9.07536e-06,-1.67684e-05,-3.59314e-06,1.29603e-05,-1.0842e-05,1.1945e-05,4.24245e-06,0
-3.05304e-05,4.58986e-06,-2.80785e-05,-5.37194e-06,1.11476e-05,-1.13899e-05,1.18586e-05,4.12083e-06,0
-3.08841e-05,2.55017e-05,-4.15334e-05,-7.73652e-06,7.71205e-06,-1.21221e-05,1.12123e-05,3.27657e-06,0
-2.8695e-05,4.33194e-05,-5.01991e-05,-9.91361e-06,6.12012e-06,-1.31909e-05,1.01925e-05,2.2431e-06,0
-2.74955e-05,4.93301e-05,-4.99692e-05,-1.04595e-05,6.79153e-06,-1.43975e-05,8.99698e-06,1.72588e-06,0
-2.77045e-05,4.58298e-05,-4.0621e-05,-1.1034e-05,8.37871e-06,-1.38624e-05,5.4125e-06,2.13022e-06,0
-2.81275e-05,3.82987e-05,-2.85311e-05,-1.03662e-05,8.82689e-06,-1.26971e-05,-9.68059e-07,3.57047e-06,0
-2.74305e-05,3.19285e-05,-1.93927e-05,-7.52371e-06,6.9474e-06,-1.09317e-05,-6.70661e-06,6.17359e-06,0
-2.65966e-05,2.882e-05,-1.46223e-05,-4.01289e-06,4.13575e-06,-8.01519e-06,-8.39839e-06,8.21771e-06,0
-2.74705e-05,2.7506e-05,-1.32422e-05,1.1681e-06,3.18113e-06,-4.86385e-06,-5.29668e-06,8.15018e-06,0
-2.91443e-05,2.47786e-05,-1.42394e-05,8.60734e-06,4.16628e-06,-3.3371e-06,4.05029e-07,6.93776e-06,0
-2.95871e-05,1.89244e-05,-1.46195e-05,1.37888e-05,5.26776e-06,-3.71622e-06,5.89634e-06,6.33424e-06,0
-2.83737e-05,1.23219e-05,-1.31048e-05,1.17192e-05,6.07983e-06,-4.28697e-06,1.09846e-05,5.55083e-06,0
-2.76996e-05,8.85153e-06,-1.10475e-05,3.68034e-06,6.95263e-06,-4.20394e-06,1.55956e-05,3.48141e-06,0
-2.87928e-05,9.82206e-06,-1.03309e-05,-6.52023e-06,8.22549e-06,-3.44898e-06,1.54368e-05,1.26325e-06,0
-3.02138e-05,1.32361e-05,-1.06097e-05,-1.59401e-05,8.4507e-06,-3.5685e-06,5.22679e-06,7.54381e-09,0
-3.08358e-05,1.82183e-05,-1.06597e-05,-2.29199e-05,8.11588e-06,-4.80357e-06,-9.27697e-06,-1.02317e-06,0
-3.03337e-05,2.27981e-05,-9.67635e-06,-2.60225e-05,9.40164e-06,-5.53539e-06,-1.22309e-05,-2.00628e-06,0
-2.99889e-05,2.17047e-05,-9.14099e-06,-2.51665e-05,1.36955e-05,-5.00485e-06,3.99592e-06,-1.51573e-06,0
-3.04559e-05,1.15453e-05,-9.00284e-06,-2.05392e-05,2.03197e-05,-4.94294e-06,3.33298e-05,8.49143e-07,0
-3.07993e-05,-7.74836e-06,-6.09002e-06,-1.63656e-05,2.6993e-05,-6.72399e-06,6.1312e-05,3.41899e-06,0
-3.10974e-05,-2.88831e-05,-2.42583e-06,-1.96236e-05,3.01882e-05,-7.90793e-06,8.00323e-05,5.09699e-06,0
-2.96543e-05,-3.82142e-05,-1.4339e-06,-2.79989e-05,2.90066e-05,-5.95763e-06,9.01776e-05,5.15663e-06,0
-2.80909e-05,-3.24928e-05,-3.94387e-06,-3.12844e-05,2.45076e-05,-3.36433e-06,8.65727e-05,4.54056e-06,0
-2.8286e-05,-2.23027e-05,-7.16749e-06,-2.95272e-05,2.00134e-05,-3.88582e-06,6.50715e-05,4.41822e-06,0
-2.86481e-05,-1.54556e-05,-7.52859e-06,-2.70547e-05,1.93348e-05,-4.98472e-06,3.72728e-05,3.23859e-06,0
-2.89435e-05,-9.23723e-06,-6.35155e-06,-2.15402e-05,2.08636e-05,-4.05029e-06,1.60929e-05,2.01293e-06,0
-3.03992e-05,-1.56217e-06,-5.9959e-06,-1.87208e-05,2.12965e-05,-2.49084e-06,3.9361e-06,1.63376e-06,0
-3.1421e-05,5.99291e-06,-7.66862e-06,-2.11498e-05,1.86211e-05,-2.99885e-06,-1.4701e-06,1.26418e-06,0
-3.02779e-05,1.24297e-05,-8.93028e-06,-2.40699e-05,1.63545e-05,-5.39889e-06,-1.34593e-06,1.98297e-06,0
-3.04488e-05,1.54139e-05,-7.24352e-06,-2.57566e-05,1.66997e-05,-5.83586e-06,1.39634e-06,4.52925e-06,0
-3.19644e-05,1.53797e-05,-3.5248e-06,-2.49034e-05,1.65491e-05,-4.76655e-06,3.07436e-06,6.97186e-06,0
-3.22017e-05,1.4663e-05,7.83663e-07,-1.62708e-05,1.52517e-05,-4.8708e-06,3.64755e-06,7.03091e-06,0
-3.11598e-05,1.41068e-05,4.20304e-06,2.65663e-06,1.31654e-05,-6.38991e-06,5.5254e-06,5.69527e-06,0
-3.02869e-05,1.29284e-05,9.05671e-06,2.40233e-05,1.14073e-05,-7.43898e-06,1.00582e-05,5.27561e-06,0
-3.07222e-05,1.02112e-05,1.45387e-05,3.92968e-05,1.0149e-05,-7.36803e-06,1.31506e-05,4.74728e-06,0
-3.11004e-05,7.61687e-06,1.80473e-05,4.46718e-05,9.83706e-06,-6.23784e-06,1.28467e-05,3.465e-06,0
-3.00241e-05,7.62456e-06,2.03775e-05,4.26604e-05,9.85729e-06,-5.34953e-06,1.15985e-05,3.06538e-06,0
-2.86913e-05,8.3073e-06,2.34475e-05,3.75814e-05,8.61085e-06,-5.67698e-06,1.2456e-05,3.1437e-06,0
-2.86062e-05,6.87467e-06,2.68333e-05,2.99283e-05,6.67496e-06,-6.29089e-06,1.45552e-05,2.56342e-06,0
-2.90106e-05,5.1283e-06,2.82409e-05,2.10995e-05,5.0886e-06,-7.06529e-06,1.47544e-05,1.19796e-06,0
-2.94138e-05,5.32103e-06,2.3889e-05,1.64176e-05,4.69217e-06,-8.2177e-06,1.19654e-05,-4.94913e-07,0
-2.97135e-05,8.18182e-06,1.16354e-05,1.40676e-05,6.06403e-06,-1.00251e-05,9.55096e-06,-1.87629e-06,0
-2.96151e-05,1.71058e-05,-4.77526e-06,6.33305e-06,9.85536e-06,-1.14224e-05,9.10123e-06,-1.34571e-06,0
-2.91375e-05,3.34664e-05,-2.13226e-05,-5.73367e-06,1.33042e-05,-1.23019e-05,8.2856e-06,4.37958e-07,0
-2.81608e-05,4.76866e-05,-3.67875e-05,-1.39103e-05,1.39931e-05,-1.33554e-05,6.21744e-06,4.39375e-07,0
-2.63585e-05,5.24251e-05,-5.07152e-05,-1.65736e-05,1.23801e-05,-1.41962e-05,4.59449e-06,-2.94641e-07,0
-2.53308e-05,4.8768e-05,-5.82551e-05,-1.99621e-05,1.04404e-05,-1.32092e-05,6.08823e-06,5.82778e-07,0
-2.62465e-05,3.99646e-05,-5.66155e-05,-2.3418e-05,1.02215e-05,-1.04726e-05,9.28544e-06,1.18916e-06,0
-2.75354e-05,2.89558e-05,-5.05542e-05,-1.01774e-05,1.02607e-05,-8.12864e-06,1.00724e-05,-3.60337e-07,0
-2.80825e-05,1.85232e-05,-4.32352e-05,1.66434e-05,1.03456e-05,-7.96666e-06,7.39698e-06,-7.60264e-07,0
-2.79831e-05,1.14793e-05,-3.46856e-05,3.11823e-05,1.13417e-05,-9.04182e-06,4.04883e-06,-4.59454e-07,0
-2.6969e-05,5.9218e-06,-2.56277e-05,2.83679e-05,1.21682e-05,-9.03288e-06,1.88793e-06,-5.57577e-07,0
-2.66834e-05,1.89418e-06,-1.68305e-05,1.46579e-05,1.13229e-05,-8.49382e-06,1.43058e-06,1.05853e-06,0
-2.89926e-05,6.68608e-07,-9.13108e-06,1.14488e-06,1.01019e-05,-8.14452e-06,2.57367e-06,2.63062e-06,0
