ch1,ch2,ch3,ch4,ch5,ch6,ch7,ch8,class
-2.32809e-05,-3.27972e-06,-6.01598e-06,-1.72746e-05,7.70094e-06,-1.32692e-05,1.58259e-05,-1.52577e-07,0
-2.38062e-05,-1.90883e-05,-8.8509e-06,-2.01376e-05,6.67284e-06,-1.15136e-05,1.85289e-05,4.29531e-07,0
-2.51951e-05,-3.25244e-05,-1.27438e-05,-2.81316e-05,6.0926e-06,-1.20012e-05,1.9991e-05,2.62169e-06,0
-2.79303e-05,-3.95794e-05,-1.45284e-05,-4.04489e-05,6.25344e-06,-1.4774e-05,1.99648e-05,5.42033e-06,0
-3.04427e-05,-3.60146e-05,-1.34433e-05,-5.29626e-05,7.22818e-06,-1.61227e-05,1.90802e-05,6.79497e-06,0
-3.06543e-05,-2.50128e-05,-1.07865e-05,-5.84711e-05,8.02008e-06,-1.46366e-05,1.77328e-05,6.87808e-06,0
-2.87268e-05,-1.33467e-05,-8.38353e-06,-5.16346e-05,7.90025e-06,-1.22663e-05,1.64065e-05,6.72038e-06,0
-2.63507e-05,-4.69245e-06,-8.09697e-06,-3.23034e-05,8.00101e-06,-1.14611e-05,1.53452e-05,7.88235e-06,0
-2.51613e-05,1.97883e-06,-7.86925e-06,-7.98571e-06,8.92367e-06,-1.22734e-05,1.45552e-05,9.64418e-06,0
-2.44041e-05,5.44566e-06,-5.09629e-06,1.01482e-05,1.14577e-05,-1.32529e-05,1.47172e-05,1.06018e-05,0
-2.37202e-05,5.71702e-06,-1.90726e-06,1.54236e-05,1.42729e-05,-1.32553e-05,1.39834e-05,1.15071e-05,0
-2.4383e-05,5.18942e-06,-1.4665e-07,1.19529e-05,1.57954e-05,-1.16142e-05,1.21128e-05,1.43637e-05,0
-2.44619e-05,6.54933e-06,1.30853e-06,5.91984e-06,1.57681e-05,-1.00618e-05,1.10177e-05,1.59918e-05,0
-2.36878e-05,9.74549e-06,2.76298e-06,-2.85199e-07,1.45285e-05,-8.41194e-06,1.1372e-05,1.45404e-05,0
-2.52319e-05,1.02026e-05,2.27303e-06,-7.87665e-06,1.29089e-05,-8.07028e-06,1.16148e-05,1.08917e-05,0
-2.65959e-05,1.08111e-05,3.15766e-07,-1.48114e-05,1.18963e-05,-8.85582e-06,9.61987e-06,8.33989e-06,0
-2.59212e-05,1.29927e-05,-7.12759e-07,-1.60465e-05,1.37994e-05,-9.00131e-06,7.12851e-06,9.0065e-06,0
-2.59704e-05,1.31195e-05,-1.31653e-06,-1.37179e-05,1.49069e-05,-8.97818e-06,5.91384e-06,9.53639e-06,0
-2.68188e-05,1.48907e-05,-1.34339e-06,-1.14069e-05,1.29417e-05,-8.63368e-06,7.60287e-06,7.76125e-06,0
-2.74783e-05,1.73683e-05,-1.52972e-06,-9.37605e-06,1.08841e-05,-8.56049e-06,1.0487e-05,4.96801e-06,0
-2.82129e-05,1.78666e-05,-2.55542e-06,-6.2092e-06,9.55554e-06,-7.95495e-06,1.26024e-05,2.74443e-06,0
-3.03207e-05,1.68055e-05,-3.03346e-06,-2.60569e-06,8.74706e-06,-5.56371e-06,1.35143e-05,-1.9202e-07,0
-3.13791e-05,1.60552e-05,-3.75644e-06,-4.81566e-07,8.4465e-06,-3.35429e-06,1.36495e-05,-2.68497e-06,0
-3.00208e-05,1.61549e-05,-5.7723e-06,4.43492e-07,8.93724e-06,-3.74888e-06,1.51804e-05,-4.73765e-06,0
-2.87308e-05,1.64084e-05,-7.75174e-06,6.75703e-07,8.57822e-06,-5.198e-06,1.72097e-05,-6.09222e-06,0
-2.81847e-05,1.68897e-05,-7.67598e-06,-9.49036e-08,7.64582e-06,-6.33014e-06,1.78837e-05,-5.9426e-06,0
-2.80609e-05,1.68613e-05,-6.55977e-06,-1.70786e-06,8.67437e-06,-7.45269e-06,1.72922e-05,-5.88002e-06,0
-2.85277e-05,1.61442e-05,-5.56111e-06,-2.74007e-06,1.20016e-05,-8.4657e-06,1.61116e-05,-6.3429e-06,0
-2.93074e-05,1.47699e-05,-5.21928e-06,-2.12976e-06,1.55163e-05,-9.20463e-06,1.48004e-05,-7.12612e-06,0
-2.89923e-05,1.3612e-05,-6.08093e-06,1.48689e-07,1.76813e-05,-1.00874e-05,1.37511e-05,-7.52953e-06,0
-2.92189e-05,1.28034e-05,-8.05322e-06,4.22265e-06,1.84076e-05,-1.06321e-05,1.29524e-05,-6.96309e-06,0
-3.11057e-05,1.36485e-05,-9.98075e-06,9.57773e-06,1.76986e-05,-1.01419e-05,1.21381e-05,-4.87766e-06,0
-3.27898e-05,1.61414e-05,-9.0589e-06,1.20877e-05,1.63003e-05,-1.03791e-05,1.1616e-05,-3.16754e-06,0
-3.29154e-05,1.90617e-05,-6.10407e-06,9.20755e-06,1.40478e-05,-1.17068e-05,1.10668e-05,-4.50271e-06,0
-3.24664e-05,2.12261e-05,-3.71063e-06,2.6978e-06,1.13343e-05,-1.2319e-05,7.54792e-06,-6.70441e-06,0
-3.23908e-05,2.29299e-05,-1.03414e-06,-3.75384e-06,1.05785e-05,-1.1163e-05,9.27088e-07,-6.69449e-06,0
-3.26682e-05,2.58657e-05,1.66121e-06,-1.14627e-05,1.1322e-05,-9.43728e-06,-4.0067e-06,-4.61749e-06,0
-3.20894e-05,3.16281e-05,2.18176e-06,-2.14264e-05,1.18919e-05,-7.84355e-06,-4.10387e-06,-2.80904e-06,0
-3.00701e-05,3.93231e-05,-7.74036e-07,-2.82122e-05,1.26476e-05,-5.79686e-06,1.22063e-07,-2.29478e-06,0
-2.83864e-05,4.55053e-05,-5.6603e-06,-2.70155e-05,1.38846e-05,-5.92397e-06,7.65157e-06,-6.14101e-07,0
-2.97091e-05,4.58182e-05,-8.68116e-06,-1.84405e-05,1.57721e-05,-8.90056e-06,1.65384e-05,1.12497e-06,0
-3.13741e-05,4.10011e-05,-1.05112e-05,-1.10962e-05,1.60897e-05,-9.76272e-06,2.43802e-05,9.48004e-07,0
-3.07146e-05,3.48011e-05,-1.21326e-05,-8.6207e-06,1.4689e-05,-7.50267e-06,2.95073e-05,-1.17105e-07,0
-2.96285e-05,2.78712e-05,-1.30097e-05,-6.62801e-06,1.33709e-05,-6.01634e-06,2.95724e-05,-5.51329e-07,0
-2.90625e-05,2.21769e-05,-1.36743e-05,-3.40978e-06,1.35961e-05,-5.89052e-06,2.42031e-05,-3.27781e-07,0
-2.96252e-05,1.82594e-05,-1.38959e-05,-8.48132e-07,1.61934e-05,-6.52988e-06,1.70583e-05,-4.79299e-07,0
-2.98186e-05,1.24362e-05,-1.16779e-05,-3.73979e-06,1.69637e-05,-8.04228e-06,1.32392e-05,-5.98022e-07,0
-2.86482e-05,4.26159e-06,-8.15333e-06,-1.54046e-05,1.40232e-05,-9.217e-06,1.35474e-05,1.52186e-08,0
-2.78672e-05,-6.21745e-06,-7.2935e-06,-3.2396e-05,1.03493e-05,-8.82026e-06,1.51019e-05,1.84328e-06,0
-2.8546e-05,-1.45355e-05,-9.17605e-06,-4.47374e-05,8.53892e-06,-7.96038e-06,1.73909e-05,2.63451e-06,0
-3.02512e-05,-1.27654e-05,-1.01e-05,-4.69069e-05,9.55406e-06,-8.96945e-06,1.8247e-05,1.79021e-06,0
-3.32207e-05,-3.56983e-06,-1.06714e-05,-4.07747e-05,1.11663e-05,-1.00821e-05,1.7259e-05,1.82123e-06,0
-3.56964e-05,3.70875e-06,-1.27035e-05,-3.32926e-05,1.10586e-05,-1.02265e-05,1.69519e-05,2.30551e-06,0
-3.57089e-05,5.34055e-06,-1.43083e-05,-2.45018e-05,1.1595e-05,-9.96814e-06,1.78242e-05,1.36866e-06,0
-3.47055e-05,4.88685e-06,-1.48365e-05,-5.64099e-06,1.55462e-05,-8.37841e-06,1.86457e-05,-1.35118e-07,0
-3.43743e-05,5.88357e-06,-1.41011e-05,2.23532e-05,1.96105e-05,-6.07962e-06,1.82519e-05,-2.05623e-06,0
-3.37772e-05,8.74364e-06,-1.27096e-05,4.85918e-05,2.04164e-05,-4.85532e-06,1.7008e-05,-4.24133e-06,0
-3.31841e-05,1.15927e-05,-1.09493e-05,6.30831e-05,1.88908e-05,-4.46815e-06,1.49566e-05,-5.79973e-06,0
-3.34605e-05,1.19528e-05,-9.75733e-06,6.21121e-05,1.70089e-05,-3.82048e-06,1.35435e-05,-6.34118e-06,0
-3.30895e-05,8.30527e-06,-1.00128e-05,4.84893e-05,1.47048e-05,-2.39648e-06,1.37983e-05,-5.12942e-06,0
-3.06142e-05,4.16054e-06,-1.20745e-05,3.11101e-05,1.20995e-05,-5.11306e-07,1.33303e-05,-2.47695e-06,0
-2.78958e-05,2.45909e-06,-1.44241e-05,1.66201e-05,1.09694e-05,-2.91004e-07,1.00939e-05,-1.16834e-06,0
-2.74667e-05,3.64219e-06,-1.44159e-05,8.50202e-06,1.1186e-05,-1.70007e-06,6.38626e-06,-1.42737e-06,0
-2.82567e-05,9.35012e-06,-1.23991e-05,2.5571e-06,1.21387e-05,-2.07147e-06,3.57192e-06,-1.00921e-06,0
-2.83402e-05,2.04054e-05,-1.09504e-05,-9.68403e-06,1.33526e-05,-1.48614e-06,5.95487e-07,-1.69074e-06,0
-2.87329e-05,3.14861e-05,-1.06327e-05,-2.6045e-05,1.52304e-05,-1.62814e-06,-8.33846e-07,-3.51916e-06,0
-3.13569e-05,3.8029e-05,-1.14164e-05,-3.82405e-05,1.79904e-05,-2.90968e-06,9.35514e-07,-3.68521e-06,0
-3.28406e-05,3.86348e-05,-1.28121e-05,-4.41804e-05,2.31894e-05,-5.32199e-06,1.92291e-06,-2.02991e-06,0
-3.23809e-05,2.99483e-05,-1.3538e-05,-4.24912e-05,2.62328e-05,-7.2997e-06,1.64735e-06,-9.07548e-07,0
-3.24152e-05,1.4847e-05,-1.36216e-05,-3.15446e-05,2.24912e-05,-8.18384e-06,3.61261e-06,-6.19484e-08,0
-3.25036e-05,9.38589e-07,-1.30859e-05,-1.26396e-05,1.88564e-05,-9.43033e-06,6.17534e-06,8.85795e-07,0
-3.34029e-05,-8.83791e-06,-1.25224e-05,8.5114e-06,1.78721e-05,-9.97342e-06,6.12968e-06,8.97607e-07,0
-3.42833e-05,-1.05901e-05,-1.22979e-05,2.57908e-05,1.82379e-05,-8.80148e-06,5.76091e-06,2.59031e-07,0
-3.28975e-05,-5.07019e-06,-1.05502e-05,3.69013e-05,1.79981e-05,-8.46115e-06,5.97095e-06,-3.72149e-07,0
-3.04879e-05,5.17786e-07,-7.54458e-06,4.0254e-05,1.58829e-05,-8.69166e-06,4.4786e-06,-1.10788e-06,0
-2.92964e-05,3.35606e-06,-7.09375e-06,3.60845e-05,1.30454e-05,-9.68654e-06,2.1806e-06,-8.04168e-07,0
-2.89395e-05,3.00513e-06,-8.35527e-06,2.4707e-05,1.05449e-05,-1.04845e-05,2.19515e-06,1.03827e-06,0
-2.81772e-05,1.71831e-06,-9.23381e-06,1.01213e-05,8.80336e-06,-1.06974e-05,5.04302e-06,2.09626e-06,0
-2.73394e-05,8.4479e-07,-9.2644e-06,-3.26695e-06,6.6958e-06,-1.09677e-05,7.09497e-06,2.84984e-06,0
-2.77339e-05,6.50919e-07,-8.56916e-06,-1.234e-05,4.41676e-06,-9.71763e-06,7.82418e-06,2.90831e-06,0
-2.893e-05,2.61475e-06,-7.88579e-06,-1.79632e-05,2.08626e-06,-7.09529e-06,8.29653e-06,1.27755e-06,0
-2.99552e-05,7.01998e-06,-6.92498e-06,-1.97678e-05,4.13102e-07,-5.19537e-06,9.3536e-06,2.02157e-07,0
-3.04436e-05,1.13746e-05,-5.68938e-06,-1.69956e-05,-3.93715e-07,-6.48746e-06,1.09009e-05,1.52355e-06,0
-3.02587e-05,1.40925e-05,-4.12464e-06,-1.06114e-05,7.77768e-07,-9.20112e-06,1.27346e-05,3.37073e-06,0
-2.93586e-05,1.47365e-05,-3.01286e-06,-2.16464e-06,4.48424e-06,-1.09031e-05,1.36568e-05,3.50461e-06,0
-2.80838e-05,1.36331e-05,-3.4414e-06,4.11894e-06,8.37678e-06,-1.17726e-05,1.40128e-05,2.80754e-06,0
-2.73728e-05,1.3992e-05,-4.04543e-06,5.24111e-06,1.04232e-05,-1.25796e-05,1.46799e-05,3.50566e-06,0
-2.80263e-05,1.752e-05,-3.03866e-06,2.42956e-06,1.07556e-05,-1.22797e-05,1.43704e-05,6.49067e-06,0
-2.98599e-05,2.2193e-05,-1.50561e-06,5.9849e-07,1.14489e-05,-1.11258e-05,1.29923e-05,9.66552e-06,0
-3.11764e-05,2.51751e-05,2.15411e-07,2.29335e-06,1.21059e-05,-1.0699e-05,1.08813e-05,1.02312e-05,0
-3.12207e-05,2.65503e-05,1.88488e-06,3.30607e-06,1.25189e-05,-1.18637e-05,8.05272e-06,7.9653e-06,0
-2.9743e-05,2.78423e-05,2.46311e-06,-8.72687e-07,1.45104e-05,-1.34982e-05,7.12472e-06,7.36702e-06,0
-2.80058e-05,2.8678e-05,2.46813e-06,-4.87346e-06,1.68771e-05,-1.42896e-05,1.19482e-05,9.15525e-06,0
-2.81938e-05,3.09465e-05,1.22024e-06,-5.61216e-06,1.74562e-05,-1.42564e-05,1.90509e-05,1.00413e-05,0
-2.95978e-05,3.57091e-05,-1.6273e-06,-4.52698e-06,1.40226e-05,-1.39951e-05,2.2578e-05,9.8196e-06,0
-2.98012e-05,3.95887e-05,-3.50684e-06,-3.70294e-06,1.07021e-05,-1.41514e-05,2.1671e-05,8.61699e-06,0
-3.0394e-05,4.03603e-05,-3.11133e-06,-2.31934e-06,9.06176e-06,-1.53515e-05,1.77947e-05,6.74044e-06,0
-3.06573e-05,3.8616e-05,-2.24983e-06,-5.0743e-07,6.72388e-06,-1.60927e-05,1.27048e-05,5.62869e-06,0
-2.93855e-05,3.67667e-05,-2.29182e-06,-4.77617e-07,7.26985e-06,-1.53697e-05,7.54447e-06,5.67226e-06,0
-2.9226e-05,3.70568e-05,-3.73021e-06,-1.50433e-06,8.66639e-06,-1.46036e-05,3.69527e-06,5.15648e-06,0
-2.97284e-05,3.83989e-05,-5.97345e-06,-2.88803e-06,8.65486e-06,-1.30335e-05,2.8965e-06,3.19254e-06,0
-3.09168e-05,3.88794e-05,-9.44203e-06,-3.48176e-06,9.56898e-06,-1.13033e-05,4.40001e-06,1.41844e-06,0
-3.24884e-05,3.82753e-05,-1.38557e-05,-4.49743e-06,1.05386e-05,-1.16979e-05,5.2894e-06,1.49728e-06,0
-3.31021e-05,3.55148e-05,-1.70728e-05,-7.44811e-06,8.32159e-06,-1.28604e-05,5.5927e-06,2.5218e-06,0
-3.30277e-05,3.03682e-05,-1.77921e-05,-1.11578e-05,5.75725e-06,-1.3759e-05,8.27373e-06,2.7746e-06,0
-3.34279e-05,2.46859e-05,-1.65507e-05,-1.33893e-05,5.73429e-06,-1.46363e-05,1.26338e-05,2.49957e-06,0
-3.3636e-05,2.16784e-05,-1.46042e-05,-1.47442e-05,5.42853e-06,-1.4907e-05,1.63434e-05,2.22429e-06,0
-3.4089e-05,2.15325e-05,-1.28083e-05,-1.60457e-05,3.98353e-06,-1.44005e-05,1.77112e-05,1.41733e-06,0
-3.48428e-05,2.09571e-05,-1.14567e-05,-1.66359e-05,4.24127e-06,-1.27973e-05,1.65773e-05,8.49637e-07,0
-3.54031e-05,1.76337e-05,-1.16222e-05,-1.33315e-05,7.14538e-06,-1.09094e-05,1.51261e-05,8.34468e-07,0
-3.58197e-05,1.24223e-05,-1.36487e-05,-7.38612e-06,9.59665e-06,-9.14999e-06,1.57583e-05,2.82853e-07,0
-3.57932e-05,8.80958e-06,-1.56039e-05,-5.81558e-06,9.7018e-06,-8.01358e-06,1.72887e-05,-8.54306e-07,0
-3.5586e-05,8.58017e-06,-1.72376e-05,-1.13342e-05,8.84549e-06,-7.26775e-06,1.8385e-05,-8.63364e-07,0
-3.5061e-05,9.62681e-06,-1.88844e-05,-2.03787e-05,8.19815e-06,-6.73957e-06,1.93502e-05,-4.89469e-08,0
-3.38647e-05,8.92888e-06,-1.90897e-05,-2.79714e-05,8.15733e-06,-6.32581e-06,1.89249e-05,-1.00432e-06,0
-3.22281e-05,5.84907e-06,-1.7431e-05,-3.09845e-05,9.47459e-06,-6.44375e-06,1.55275e-05,-3.42814e-06,0
-3.12132e-05,2.52553e-06,-1.53722e-05,-3.03823e-05,1.13478e-05,-6.33084e-06,1.02062e-05,-4.58614e-06,0
-3.05351e-05,4.93943e-07,-1.38203e-05,-2.88978e-05,1.26512e-05,-5.41581e-06,7.80157e-06,-2.94926e-06,0
-3.04575e-05,-6.47788e-07,-1.50653e-05,-2.51919e-05,1.25744e-05,-4.31832e-06,1.04155e-05,-4.47329e-07,0
-3.10424e-05,-9.11136e-07,-1.88059e-05,-1.78928e-05,1.14441e-05,-3.8882e-06,1.38867e-05,1.7058e-06,0
-3.25469e-05,2.57411e-07,-2.26693e-05,-8.76782e-06,1.03452e-05,-5.32682e-06,1.51635e-05,3.15041e-06,0
-3.31552e-05,2.74951e-06,-2.39465e-05,-3.89623e-06,1.17939e-05,-4.89061e-06,1.59066e-05,3.22307e-06,0
-3.06244e-05,4.55887e-06,-2.2295e-05,-3.69758e-06,1.55133e-05,-1.87776e-06,1.57184e-05,2.37017e-06,0
-2.84277e-05,4.87754e-06,-1.97867e-05,-4.45622e-06,1.76838e-05,-2.08008e-06,1.43925e-05,1.43728e-06,0
-2.89177e-05,5.4562e-06,-1.74066e-05,-3.84715e-06,1.94873e-05,-4.01142e-06,1.36137e-05,-1.14829e-08,0
-3.04668e-05,6.3958e-06,-1.52176e-05,2.67828e-08,2.08469e-05,-3.69753e-06,1.49116e-05,-1.97225e-06,0
-3.33332e-05,6.99318e-06,-1.33379e-05,2.99934e-06,2.07172e-05,-4.03862e-06,1.67164e-05,-2.27809e-06,0
-3.4079e-05,7.27085e-06,-1.35369e-05,2.87677e-06,2.04379e-05,-6.27999e-06,1.78795e-05,-6.42389e-07,0
-3.27578e-05,6.1674e-06,-1.48357e-05,2.45406e-06,2.00772e-05,-8.35517e-06,1.82729e-05,1.95564e-07,0
-3.24515e-05,4.11359e-06,-1.5862e-05,2.56399e-06,2.05545e-05,-8.42269e-06,1.7092e-05,-1.05049e-07,0
-3.28928e-05,1.49847e-06,-1.62298e-05,1.17151e-07,2.10279e-05,-7.64254e-06,1.53313e-05,-2.90884e-07,0
-3.34807e-05,-8.55659e-07,-1.4272e-05,-4.91395e-06,1.89667e-05,-7.4868e-06,1.42929e-05,-9.15537e-07,0
-3.30158e-05,-2.22906e-06,-1.00146e-05,-9.60761e-06,1.37306e-05,-6.89618e-06,1.44675e-05,-1.53826e-06,0
-3.30737e-05,-4.09804e-06,-4.71296e-06,-1.36048e-05,7.32076e-06,-5.13928e-06,1.45034e-05,-2.74303e-06,0
-3.39396e-05,-5.94024e-06,1.31715e-06,-1.62484e-05,3.17241e-06,-3.22647e-06,1.38838e-05,-3.49037e-06,0
-3.52759e-05,-3.66073e-06,8.55011e-06,-1.61071e-05,3.49935e-06,-2.56263e-06,1.29681e-05,-3.61614e-06,0
-3.61766e-05,5.88864e-06,1.9369e-05,-1.43903e-05,6.73073e-06,-3.61664e-06,1.33609e-05,-3.67213e-06,0
-3.59883e-05,1.87826e-05,3.5997e-05,-1.40476e-05,1.01727e-05,-4.92167e-06,1.48808e-05,-3.75943e-06,0
-3.43835e-05,2.77757e-05,5.61301e-05,-1.48665e-05,1.34259e-05,-4.72112e-06,1.58111e-05,-3.79936e-06,0
-3.22533e-05,2.92042e-05,7.20364e-05,-1.436e-05,1.55458e-05,-3.91927e-06,1.56625e-05,-4.15978e-06,0
-3.10863e-05,2.42285e-05,7.36676e-05,-1.1582e-05,1.46616e-05,-3.34694e-06,1.52799e-05,-4.83998e-06,0
-3.09487e-05,1.60877e-05,5.58795e-05,-6.77484e-06,1.23498e-05,-3.57613e-06,1.43654e-05,-3.2946e-06,0
-3.09624e-05,8.65025e-06,2.33817e-05,-8.66533e-07,1.2634e-05,-4.35285e-06,1.33794e-05,-5.74338e-07,0
-3.14548e-05,3.35819e-06,-1.47171e-05,2.59515e-06,1.71144e-05,-5.14333e-06,1.32433e-05,1.99875e-07,0
-3.09892e-05,-1.75849e-06,-5.08113e-05,1.97727e-06,2.3662e-05,-6.4675e-06,1.30197e-05,-1.26661e-06,0
-2.8845e-05,-8.24297e-06,-7.85079e-05,9.89928e-07,2.79664e-05,-7.76166e-06,1.37048e-05,-2.72852e-06,0
-2.87671e-05,-1.4806e-05,-9.01498e-05,8.29349e-08,2.74755e-05,-7.91758e-06,1.57205e-05,-3.06938e-06,0
-3.1332e-05,-1.8776e-05,-8.37453e-05,-2.29631e-06,2.32478e-05,-6.82761e-06,1.67225e-05,-2.38848e-06,0
-3.27207e-05,-1.93973e-05,-6.79201e-05,-1.05512e-07,1.89076e-05,-7.02765e-06,1.66726e-05,-1.63239e-06,0
-3.17836e-05,-1.58039e-05,-5.52142e-05,9.98216e-06,1.77457e-05,-8.03079e-06,1.59485e-05,-8.90165e-07,0
-3.04331e-05,-6.94029e-06,-4.59506e-05,1.87127e-05,1.82417e-05,-8.42612e-06,1.48829e-05,-1.82998e-06,0
-2.84068e-05,4.15689e-06,-3.59683e-05,1.62924e-05,1.78147e-05,-8.14498e-06,1.47778e-05,-4.1929e-06,0
-2.6892e-05,1.30162e-05,-2.71029e-05,5.11586e-06,1.62661e-05,-7.75938e-06,1.42797e-05,-4.71116e-06,0
-2.57839e-05,1.65957e-05,-1.78764e-05,-5.23552e-06,1.2536e-05,-9.99238e-06,1.27325e-05,-3.30499e-06,0
-2.44069e-05,1.43208e-05,-9.78349e-06,-9.3569e-06,9.6008e-06,-1.25872e-05,1.08591e-05,-2.4721e-06,0
-2.38549e-05,9.8541e-06,-4.40955e-06,-6.82326e-06,1.15594e-05,-1.38899e-05,1.02158e-05,-3.27917e-06,0
-2.56046e-05,6.86633e-06,-1.71191e-06,5.6976e-06,1.71206e-05,-1.46995e-05,7.82486e-06,-4.89537e-06,0
-2.80584e-05,5.29171e-06,5.72066e-07,2.75298e-05,2.20165e-05,-1.50233e-05,6.71923e-07,-5.20753e-06,0
-2.92135e-05,4.92369e-06,1.75457e-06,4.40157e-05,2.24329e-05,-1.38291e-05,-9.87207e-06,-4.46631e-06,0
-2.97133e-05,4.59484e-06,1.19927e-06,4.30971e-05,2.00108e-05,-1.15426e-05,-1.75658e-05,-3.98624e-06,0
-3.04871e-05,4.42193e-06,2.9225e-07,2.84584e-05,1.6002e-05,-1.09096e-05,-1.78825e-05,-2.74511e-06,0
-3.10012e-05,7.21926e-06,-9.87508e-07,1.10495e-05,1.17017e-05,-1.15051e-05,-1.17381e-05,-7.17994e-07,0
-3.0732e-05,1.18667e-05,-1.57611e-06,-1.14682e-06,9.02517e-06,-1.17962e-05,-3.17069e-06,1.65891e-06,0
-2.99108e-05,1.53404e-05,-2.56524e-06,-7.20046e-06,7.9844e-06,-1.14011e-05,5.51697e-06,3.61181e-06,0
-2.87417e-05,1.48661e-05,-3.85794e-06,-1.16572e-05,8.63412e-06,-1.1093e-05,1.46753e-05,4.53583e-06,0
-2.90771e-05,1.15566e-05,-4.38268e-06,-1.69631e-05,1.01934e-05,-1.1321e-05,2.19911e-05,4.57908e-06,0
-3.01664e-05,8.22682e-06,-3.58541e-06,-2.13344e-05,1.11516e-05,-1.2327e-05,2.61723e-05,4.96548e-06,0
-3.07179e-05,6.314e-06,-2.32094e-06,-2.51995e-05,1.18455e-05,-1.38345e-05,2.81526e-05,5.35512e-06,0
-3.05019e-05,6.16014e-06,3.60465e-08,-3.04937e-05,1.34338e-05,-1.48896e-05,3.00757e-05,4.51153e-06,0
-2.98108e-05,8.14085e-06,2.09547e-06,-3.46202e-05,1.4552e-05,-1.5254e-05,3.05558e-05,3.43811e-06,0
-2.99568e-05,1.37692e-05,2.17026e-06,-3.33521e-05,1.3532e-05,-1.62198e-05,2.94517e-05,2.42585e-06,0
-3.1806e-05,2.09455e-05,8.03999e-07,-2.78044e-05,1.16353e-05,-1.63865e-05,2.72881e-05,9.42084e-07,0
-3.29004e-05,2.41177e-05,4.89493e-07,-2.24209e-05,1.24433e-05,-1.56296e-05,2.50369e-05,9.72095e-07,0
-3.24948e-05,2.30044e-05,1.50945e-06,-1.90634e-05,1.21268e-05,-1.64766e-05,2.36447e-05,1.59002e-06,0
-3.12775e-05,2.12009e-05,2.40305e-06,-1.76928e-05,1.01086e-05,-1.80707e-05,2.21933e-05,7.02773e-07,0
-2.97773e-05,1.94372e-05,1.24593e-06,-1.52486e-05,8.26234e-06,-1.81982e-05,2.0732e-05,7.58456e-07,0
-2.88635e-05,1.80088e-05,-2.90897e-06,-1.17532e-05,4.95963e-06,-1.75134e-05,1.89923e-05,2.90956e-06,0
-2.78515e-05,1.75475e-05,-7.15245e-06,-9.8692e-06,3.29361e-06,-1.80938e-05,1.6775e-05,4.35595e-06,0
-2.69124e-05,1.68443e-05,-8.89025e-06,-8.61112e-06,3.93435e-06,-1.87379e-05,1.53677e-05,3.59531e-06,0
-2.46408e-05,1.45203e-05,-7.863e-06,-6.36404e-06,4.64274e-06,-1.85803e-05,1.47016e-05,1.15712e-06,0
-2.29361e-05,1.28175e-05,-6.60524e-06,-2.06854e-06,5.344e-06,-1.68436e-05,1.4144e-05,1.38635e-07,0
-2.32397e-05,1.44045e-05,-5.50577e-06,3.71073e-06,6.34056e-06,-1.65022e-05,1.26163e-05,1.11021e-06,0
-2.37036e-05,2.13347e-05,-4.46758e-06,9.61285e-06,6.22956e-06,-1.82293e-05,1.06771e-05,2.44229e-06,0
-2.52188e-05,2.88892e-05,-2.53932e-06,1.21895e-05,5.7272e-06,-1.89899e-05,9.87055e-06,3.97038e-06,0
-2.67111e-05,3.03325e-05,-2.32583e-07,9.53295e-06,6.08719e-06,-1.87777e-05,1.04474e-05,4.71879e-06,0
-2.60673e-05,2.73825e-05,5.03444e-07,3.72261e-06,7.60959e-06,-1.83554e-05,1.20934e-05,4.9669e-06,0
-2.48033e-05,2.44423e-05,-5.62393e-07,-1.41528e-06,9.07801e-06,-1.74912e-05,1.37222e-05,5.59256e-06,0
-2.54556e-05,2.2018e-05,-2.44345e-06,-7.16957e-06,9.55105e-06,-1.60667e-05,1.5245e-05,6.53939e-06,0
-2.63426e-05,1.85157e-05,-4.21435e-06,-1.64777e-05,1.00099e-05,-1.48124e-05,1.60584e-05,5.93991e-06,0
-2.68807e-05,1.38383e-05,-5.9257e-06,-2.48612e-05,1.08077e-05,-1.42112e-05,1.70924e-05,3.62554e-06,0
-2.8577e-05,9.25797e-06,-7.24667e-06,-2.60505e-05,1.17437e-05,-1.51147e-05,1.9017e-05,9.06826e-07,0
-3.05288e-05,4.17886e-06,-7.51359e-06,-2.07221e-05,1.31946e-05,-1.65349e-05,2.07323e-05,-7.11229e-07,0
-3.09903e-05,-2.30909e-06,-7.47404e-06,-1.40149e-05,1.41517e-05,-1.68512e-05,2.12446e-05,-4.86122e-07,0
-2.97541e-05,-8.45293e-06,-8.65862e-06,-6.71118e-06,1.29244e-05,-1.52638e-05,2.05845e-05,4.43756e-07,0
-2.85832e-05,-1.11415e-05,-9.55273e-06,1.98603e-06,1.1853e-05,-1.3289e-05,1.83787e-05,1.42375e-06,0
-2.80155e-05,-7.78605e-06,-9.24662e-06,1.06425e-05,1.2547e-05,-1.20897e-05,1.55961e-05,2.42469e-06,0
-2.83821e-05,-6.69252e-07,-9.60642e-06,1.66476e-05,1.28015e-05,-1.25283e-05,1.37408e-05,2.08211e-06,0
-3.05962e-05,5.98715e-06,-1.03787e-05,1.83409e-05,1.20325e-05,-1.36268e-05,1.39288e-05,3.75048e-07,0
-3.20327e-05,9.52408e-06,-1.00608e-05,1.99117e-05,1.23204e-05,-1.41334e-05,1.55947e-05,-1.49608e-06,0
-3.10552e-05,1.12288e-05,-8.63102e-06,2.55177e-05,1.3641e-05,-1.45418e-05,1.64991e-05,-3.50186e-06,0
-3.03843e-05,1.29703e-05,-7.18023e-06,2.98422e-05,1.52123e-05,-1.43943e-05,1.55903e-05,-5.45245e-06,0
-2.97859e-05,1.52745e-05,-7.98319e-06,2.4114e-05,1.68142e-05,-1.29805e-05,1.27949e-05,-6.35826e-06,0
-2.97801e-05,1.86099e-05,-8.55798e-06,8.37964e-06,1.56982e-05,-1.16175e-05,8.70363e-06,-5.98108e-06,0
-2.98267e-05,2.09693e-05,-7.60213e-06,-3.10229e-06,1.33573e-05,-1.10266e-05,5.99539e-06,-3.5558e-06,0
-2.79744e-05,2.10861e-05,-7.16264e-06,-8.39378e-06,1.29953e-05,-1.03348e-05,6.11384e-06,-1.6812e-06,0
-2.6358e-05,2.11541e-05,-6.5124e-06,-1.73788e-05,1.33854e-05,-1.0332e-05,7.48062e-06,-2.62267e-06,0
-2.68863e-05,2.18732e-05,-5.75915e-06,-3.07137e-05,1.34497e-05,-1.0797e-05,8.96128e-06,-3.3785e-06,0
-2.8184e-05,2.19865e-05,-4.37433e-06,-4.07246e-05,1.37243e-05,-1.08169e-05,8.69991e-06,-1.98261e-06,0
-2.81421e-05,2.18797e-05,-3.11464e-06,-4.07365e-05,1.49782e-05,-1.20948e-05,7.7648e-06,3.14371e-07,0
-2.66769e-05,2.33317e-05,-3.67554e-06,-3.45278e-05,1.6281e-05,-1.35143e-05,8.58133e-06,1.23153e-06,0
-2.66283e-05,2.66118e-05,-5.51865e-06,-2.42021e-05,1.95476e-05,-1.32066e-05,1.11487e-05,2.13176e-06,0
-2.8759e-05,2.80956e-05,-6.43195e-06,-1.38597e-05,2.26584e-05,-1.34142e-05,1.40602e-05,2.99683e-06,0
-3.05784e-05,2.88365e-05,-5.64681e-06,-6.28389e-06,2.39616e-05,-1.39272e-05,1.54803e-05,3.18966e-06,0
-3.1326e-05,3.20639e-05,-5.27904e-06,-1.38596e-06,2.46646e-05,-1.3801e-05,1.51086e-05,2.28878e-06,0
-3.06867e-05,3.56905e-05,-6.45489e-06,6.70246e-07,2.33925e-05,-1.29366e-05,1.42961e-05,6.5096e-07,0
-2.98203e-05,3.76279e-05,-7.48e-06,2.21331e-06,2.04168e-05,-1.31615e-05,1.30851e-05,-1.08943e-06,0
-3.08832e-05,3.7557e-05,-6.46961e-06,5.8856e-06,1.62793e-05,-1.45111e-05,1.14106e-05,-2.31934e-06,0
-3.35152e-05,3.65639e-05,-4.11589e-06,1.22615e-05,1.23957e-05,-1.55902e-05,1.07128e-05,-2.74321e-06,0
-3.48263e-05,3.68527e-05,-2.57374e-06,1.7254e-05,9.4749e-06,-1.52945e-05,1.12173e-05,-3.12697e-06,0
-3.38605e-05,3.89391e-05,-3.43832e-06,1.68364e-05,8.29606e-06,-1.33023e-05,1.189e-05,-2.47498e-06,0
-3.229e-05,4.01417e-05,-5.55335e-06,1.12548e-05,8.84038e-06,-1.1212e-05,1.15752e-05,-1.19243e-06,0
-3.179e-05,3.94677e-05,-7.39903e-06,6.23042e-06,8.91956e-06,-9.46623e-06,9.96783e-06,-7.73266e-07,0
-3.20424e-05,3.92318e-05,-8.62228e-06,5.00412e-06,7.41468e-06,-7.88639e-06,7.65406e-06,-4.68515e-07,0
-3.18596e-05,3.96331e-05,-9.52655e-06,4.12281e-06,6.70245e-06,-7.22799e-06,6.75844e-06,1.35321e-06,0
-3.10815e-05,3.82629e-05,-9.56799e-06,-2.47085e-07,7.4228e-06,-7.45718e-06,8.06628e-06,2.9675e-06,0
-3.12877e-05,3.58011e-05,-7.31851e-06,-4.12412e-06,9.74457e-06,-6.83832e-06,9.91881e-06,3.07049e-06,0
-3.18146e-05,3.37667e-05,-4.55953e-06,-2.63993e-06,1.52501e-05,-5.8891e-06,1.11198e-05,2.02572e-06,0
-3.04791e-05,3.20405e-05,-3.18297e-06,3.29714e-06,2.47447e-05,-5.18096e-06,1.06475e-05,2.07175e-06,0
-2.91068e-05,3.0286e-05,-3.93399e-06,6.10743e-06,3.23924e-05,-4.3274e-06,9.32383e-06,3.1637e-06,0
-2.95305e-05,2.71183e-05,-4.54169e-06,2.13639e-06,3.17731e-05,-2.17792e-06,7.92644e-06,3.21201e-06,0
-2.90606e-05,2.21299e-05,-2.64764e-06,-2.41532e-06,2.57798e-05,2.63156e-07,8.47861e-06,1.58959e-06,0
-2.79512e-05,1.84553e-05,-2.05162e-06,-5.07447e-06,2.16563e-05,6.12596e-07,1.12077e-05,1.59402e-07,0
-2.92272e-05,1.60274e-05,-4.36743e-06,-4.98404e-06,2.25177e-05,4.16381e-07,1.29086e-05,1.45633e-06,0
-2.92892e-05,1.27774e-05,-5.95404e-06,-1.14302e-06,2.47056e-05,1.96841e-06,1.24193e-05,3.8446e-06,0
-2.91247e-05,1.07611e-05,-6.52995e-06,1.82165e-06,2.39051e-05,3.1115e-06,1.06075e-05,5.3532e-06,0
-2.93042e-05,8.25251e-06,-8.27797e-06,9.58334e-07,1.82578e-05,2.2788e-06,1.04495e-05,4.87443e-06,0
-2.76815e-05,5.72553e-06,-1.07815e-05,-9.94031e-07,1.22713e-05,1.38871e-06,1.06131e-05,3.05332e-06,0
-2.70115e-05,4.66086e-06,-1.32001e-05,-1.023e-06,1.02491e-05,1.75149e-06,1.09174e-05,1.89943e-06,0
-2.78527e-05,4.22583e-06,-1.50338e-05,1.83216e-06,1.03529e-05,2.41497e-06,1.15956e-05,1.89231e-06,0
-2.8842e-05,3.88756e-06,-1.76382e-05,6.74151e-06,1.13566e-05,2.66318e-06,1.00648e-05,2.42182e-06,0
-2.85271e-05,2.18072e-06,-2.09622e-05,7.81757e-06,1.32547e-05,2.71952e-06,5.61237e-06,4.35747e-06,0
-2.73526e-05,4.66588e-07,-2.38918e-05,2.1854e-06,1.43577e-05,2.41775e-06,1.85124e-06,6.25104e-06,0
-2.63757e-05,2.02326e-07,-2.5472e-05,-5.64555e-06,1.33518e-05,1.86968e-06,2.35665e-06,5.58847e-06,0
-2.69109e-05,1.0349e-06,-2.50995e-05,-1.28001e-05,1.16425e-05,4.56535e-07,4.70881e-06,2.80241e-06,0
-2.90797e-05,2.9006e-06,-2.28013e-05,-1.86146e-05,1.09867e-05,-1.42472e-06,7.30749e-06,1.07835e-06,0
-3.0974e-05,6.68265e-06,-1.95932e-05,-1.82676e-05,1.11124e-05,-3.41115e-06,1.0899e-05,1.11114e-06,0
-3.07658e-05,1.44047e-05,-1.70108e-05,-7.76392e-06,1.10542e-05,-4.70817e-06,1.55436e-05,2.06218e-07,0
-2.98458e-05,2.77244e-05,-1.4927e-05,2.39792e-06,1.05607e-05,-5.07071e-06,1.73908e-05,-2.37969e-06,0
-2.97124e-05,4.14744e-05,-1.32612e-05,1.51151e-07,1.05153e-05,-5.7995e-06,1.3299e-05,-5.01205e-06,0
-2.95274e-05,4.73692e-05,-1.1137e-05,-1.1297e-05,1.09118e-05,-6.81342e-06,4.89631e-06,-5.7941e-06,0
-2.88985e-05,4.16906e-05,-9.20768e-06,-1.96591e-05,1.11196e-05,-6.97134e-06,-1.10192e-06,-5.40076e-06,0
-2.8827e-05,2.61867e-05,-7.73563e-06,-1.8137e-05,1.1522e-05,-7.10705e-06,1.40632e-07,-4.42956e-06,0
-3.08405e-05,6.05506e-06,-6.25844e-06,-1.14346e-05,1.31132e-05,-7.92334e-06,6.90974e-06,-3.18011e-06,0
-3.35798e-05,-1.50201e-05,-5.5855e-06,-8.12392e-06,1.38266e-05,-8.64228e-06,1.39066e-05,-1.09777e-06,0
-3.43765e-05,-3.34589e-05,-6.29406e-06,-7.72545e-06,1.17687e-05,-9.99257e-06,1.8374e-05,1.98642e-06,0
-3.2797e-05,-4.56018e-05,-8.67603e-06,-8.01154e-06,8.30553e-06,-1.1623e-05,2.1964e-05,4.12844e-06,0
-3.1144e-05,-4.91259e-05,-1.10143e-05,-1.30396e-05,6.3249e-06,-1.0213e-05,2.5483e-05,4.52623e-06,0
-3.03187e-05,-4.30999e-05,-9.42376e-06,-2.6099e-05,6.81063e-06,-6.32624e-06,2.85139e-05,4.53471e-06,0
-2.97796e-05,-3.18848e-05,-6.52443e-06,-4.45086e-05,5.15438e-06,-5.39465e-06,3.0438e-05,4.91149e-06,0
-2.99314e-05,-2.20462e-05,-6.03211e-06,-5.77338e-05,2.01477e-06,-8.59684e-06,3.17781e-05,5.58132e-06,0
-3.05655e-05,-1.67915e-05,-5.95275e-06,-5.7396e-05,6.20999e-07,-1.19977e-05,3.09727e-05,6.31974e-06,0
-3.21873e-05,-1.25161e-05,-5.16942e-06,-4.5793e-05,1.72696e-06,-1.17372e-05,2.70365e-05,6.26721e-06,0
-3.43443e-05,-6.63051e-06,-5.12746e-06,-2.99352e-05,5.19444e-06,-9.17918e-06,2.4385e-05,5.64095e-06,0
-3.50319e-05,-1.85913e-06,-5.75927e-06,-1.35183e-05,9.82813e-06,-7.72012e-06,2.46709e-05,5.76335e-06,0
-3.49774e-05,8.11867e-07,-4.97492e-06,2.94842e-06,1.60162e-05,-8.35448e-06,2.31961e-05,5.78879e-06,0
-3.39106e-05,6.01122e-06,-3.85905e-06,2.09413e-05,2.11436e-05,-9.12519e-06,1.88279e-05,4.68173e-06,0
-3.11016e-05,1.80882e-05,-3.70503e-06,3.49034e-05,2.35553e-05,-8.25636e-06,1.34538e-05,3.12785e-06,0
-2.88536e-05,3.46234e-05,-3.05199e-06,3.44686e-05,2.33537e-05,-5.34155e-06,7.88595e-06,2.18741e-06,0
-2.85282e-05,4.94353e-05,-9.46461e-07,2.09877e-05,2.12693e-05,-1.85621e-06,4.29448e-06,1.54609e-06,0
-2.86982e-05,5.60031e-05,6.51362e-08,6.13041e-06,1.83165e-05,-1.07732e-06,3.75594e-06,1.02328e-06,0
-2.87021e-05,4.98647e-05,-1.79614e-06,-2.4215e-06,1.53414e-05,-2.95134e-06,5.16879e-06,1.18614e-06,0
-2.88271e-05,3.09263e-05,-5.01226e-06,-4.37558e-06,1.32975e-05,-5.12088e-06,6.43475e-06,1.9414e-06,0
-2.95764e-05,5.26425e-06,-7.53594e-06,-2.46262e-06,1.28998e-05,-6.0515e-06,7.03548e-06,3.1933e-06,0
-3.11572e-05,-2.0316e-05,-8.14003e-06,-3.4557e-07,1.40752e-05,-5.52639e-06,7.12207e-06,4.62463e-06,0
-3.24333e-05,-4.1006e-05,-7.05853e-06,-7.64563e-07,1.53254e-05,-4.20416e-06,6.32997e-06,5.11836e-06,0
-3.26702e-05,-5.24626e-05,-5.64596e-06,-2.29785e-06,1.54084e-05,-3.01556e-06,5.32724e-06,4.57173e-06,0
-3.20157e-05,-5.12862e-05,-5.87741e-06,-2.78167e-06,1.34701e-05,-1.89463e-06,4.34285e-06,4.2107e-06,0
-3.07244e-05,-3.96548e-05,-7.66558e-06,-4.86045e-06,1.02551e-05,-1.06769e-06,3.70158e-06,3.88282e-06,0
-3.0532e-05,-2.56436e-05,-8.70183e-06,-9.63145e-06,7.40466e-06,-2.57366e-06,5.29698e-06,3.0963e-06,0
-3.15395e-05,-1.59884e-05,-7.86508e-06,-1.51894e-05,6.53117e-06,-6.64215e-06,9.13982e-06,1.06221e-06,0
-3.23827e-05,-8.75634e-06,-6.59455e-06,-1.82561e-05,6.60367e-06,-9.81589e-06,1.11907e-05,-1.62856e-07,0
-3.23561e-05,-4.00325e-07,-7.73921e-06,-1.69008e-05,6.97525e-06,-9.60582e-06,9.21181e-06,1.33293e-06,0
-2.96022e-05,5.9855e-06,-1.00957e-05,-1.40082e-05,7.25838e-06,-6.56294e-06,5.81533e-06,3.14181e-06,0
-2.72405e-05,9.9785e-06,-9.26231e-06,-1.28832e-05,4.31551e-06,-4.55338e-06,3.81163e-06,2.68502e-06,0
-2.72866e-05,1.14063e-05,-7.02381e-06,-1.38767e-05,3.55855e-08,-5.30764e-06,4.25497e-06,5.37448e-07,0
-2.69021e-05,1.00818e-05,-5.82418e-06,-1.44896e-05,-7.47246e-07,-6.31643e-06,6.87253e-06,-6.72716e-07,0
-2.68131e-05,8.75508e-06,-5.41337e-06,-1.1938e-05,1.60581e-06,-6.6157e-06,8.92844e-06,8.42552e-07,0
-2.79636e-05,7.92723e-06,-5.28316e-06,-5.983e-06,6.45175e-06,-5.70186e-06,8.5728e-06,1.64548e-06,0
-2.95604e-05,9.47965e-06,-5.81074e-06,-7.60804e-07,1.23595e-05,-4.80953e-06,5.64568e-06,-7.18724e-08,0
-3.13156e-05,1.25541e-05,-7.63854e-06,1.79447e-07,1.64822e-05,-6.45268e-06,2.60949e-06,-1.28383e-06,0
-3.22369e-05,1.42949e-05,-7.43197e-06,-1.18632e-06,1.82182e-05,-7.12399e-06,6.08102e-07,-9.38937e-08,0
-3.27908e-05,1.46019e-05,-6.50588e-06,-3.24748e-06,1.93287e-05,-6.18913e-06,-7.55564e-07,1.75641e-06,0
-3.24425e-05,1.49593e-05,-6.86921e-06,-7.18826e-06,2.16745e-05,-6.28681e-06,1.27392e-07,2.49771e-06,0
-3.18455e-05,1.49695e-05,-6.71133e-06,-1.29749e-05,2.41062e-05,-6.61422e-06,1.82592e-06,2.91462e-06,0
-3.15142e-05,1.47916e-05,-5.60667e-06,-1.6812e-05,2.52325e-05,-6.65624e-06,2.03409e-06,2.9713e-06,0
-3.01919e-05,1.60709e-05,-4.74672e-06,-1.62333e-05,2.58461e-05,-6.74958e-06,8.90589e-07,4.05797e-06,0
-2.851e-05,1.73596e-05,-3.85657e-06,-1.12225e-05,2.49524e-05,-7.42589e-06,1.74874e-07,5.8657e-06,0
-2.79358e-05,1.74935e-05,-4.19683e-06,-3.72875e-06,2.16145e-05,-8.12327e-06,9.53141e-07,6.57551e-06,0
-2.93446e-05,1.72518e-05,-7.5744e-06,3.39711e-06,1.7219e-05,-9.4184e-06,3.34893e-06,4.16088e-06,0
-3.13896e-05,1.8376e-05,-1.2163e-05,9.88327e-06,1.39388e-05,-1.19862e-05,5.51203e-06,1.94952e-07,0
-3.18127e-05,1.96732e-05,-1.4709e-05,1.39925e-05,1.27947e-05,-1.46403e-05,4.90507e-06,-1.45607e-06,0
-2.98459e-05,1.95504e-05,-1.47251e-05,1.49685e-05,1.27205e-05,-1.528e-05,2.71058e-06,-5.52067e-07,0
-2.77981e-05,1.7911e-05,-1.41859e-05,1.54014e-05,1.29922e-05,-1.48436e-05,1.85323e-06,3.73494e-08,0
-2.69423e-05,1.58393e-05,-1.36554e-05,1.68661e-05,1.40601e-05,-1.48282e-05,2.27571e-06,-3.68604e-07,0
-2.78647e-05,1.31231e-05,-1.39703e-05,1.66555e-05,1.6343e-05,-1.45144e-05,3.54739e-06,3.2511e-07,0
-2.95989e-05,8.75371e-06,-1.40944e-05,1.27208e-05,1.76205e-05,-1.38592e-05,6.28568e-06,2.37122e-06,0
-3.12629e-05,3.62708e-06,-1.3281e-05,7.01785e-06,1.79126e-05,-1.42005e-05,9.86745e-06,4.60569e-06,0
-3.18205e-05,-7.54405e-08,-1.22458e-05,1.78928e-06,1.98155e-05,-1.54873e-05,1.24575e-05,5.06065e-06,0
-3.03281e-05,-1.54966e-06,-1.20065e-05,-2.7562e-06,2.16967e-05,-1.58212e-05,1.35214e-05,3.24377e-06,0
-2.90755e-05,-4.45702e-06,-1.27425e-05,-7.40209e-06,2.02853e-05,-1.51511e-05,1.42482e-05,1.94633e-06,0
-2.81873e-05,-1.08253e-05,-1.48427e-05,-9.92138e-06,1.67142e-05,-1.50658e-05,1.38768e-05,1.65723e-06,0
-2.83009e-05,-1.36446e-05,-1.67716e-05,-9.23446e-06,1.48828e-05,-1.56695e-05,1.19581e-05,1.13285e-06,0
-3.00917e-05,-1.00247e-05,-1.77864e-05,-7.05578e-06,1.57844e-05,-1.65957e-05,1.00974e-05,1.21581e-06,0
-3.12121e-05,-4.76858e-06,-1.90018e-05,-7.05361e-06,1.79535e-05,-1.66242e-05,1.0228e-05,1.39128e-06,0
-3.1414e-05,1.06216e-07,-2.02075e-05,-1.01635e-05,2.06178e-05,-1.5063e-05,1.1897e-05,2.95963e-06,0
-3.12605e-05,3.35507e-06,-2.13075e-05,-1.22548e-05,1.91033e-05,-1.40595e-05,1.33215e-05,5.9177e-06,0
-3.02561e-05,6.01633e-06,-2.17095e-05,-1.20679e-05,1.41097e-05,-1.45865e-05,1.27571e-05,8.20535e-06,0
-2.88995e-05,8.81395e-06,-1.91837e-05,-6.50043e-06,1.11717e-05,-1.45972e-05,1.11262e-05,8.75081e-06,0
-2.94e-05,1.26929e-05,-1.45144e-05,2.74273e-06,1.41188e-05,-1.32127e-05,1.01797e-05,8.3183e-06,0
-3.08555e-05,1.84086e-05,-1.19716e-05,9.97759e-06,1.99335e-05,-1.23955e-05,9.69209e-06,7.68575e-06,0
-3.11105e-05,2.35031e-05,-1.18533e-05,1.37347e-05,2.14987e-05,-1.24218e-05,1.13012e-05,7.35861e-06,0
-3.09729e-05,2.63284e-05,-1.2496e-05,1.3265e-05,1.86628e-05,-1.21127e-05,1.42905e-05,7.08842e-06,0
-3.11949e-05,2.87385e-05,-1.29266e-05,9.03526e-06,1.36625e-05,-1.14112e-05,1.62778e-05,6.98303e-06,0
-3.13998e-05,3.15106e-05,-1.23602e-05,2.69669e-06,1.0211e-05,-1.14696e-05,1.76959e-05,7.41585e-06,0
-3.13086e-05,3.31002e-05,-1.12631e-05,-3.26107e-06,8.75337e-06,-1.17379e-05,1.83803e-05,6.57043e-06,0
-3.14203e-05,3.26534e-05,-1.02099e-05,-7.9855e-06,8.62914e-06,-1.15127e-05,1.79452e-05,4.83419e-06,0
-3.14647e-05,3.15925e-05,-8.71711e-06,-1.06038e-05,9.11394e-06,-1.10456e-05,1.70956e-05,3.86383e-06,0
-3.06109e-05,3.20846e-05,-7.60308e-06,-1.09663e-05,9.58635e-06,-1.09972e-05,1.68749e-05,4.67276e-06,0
-2.98786e-05,3.41734e-05,-7.78416e-06,-1.0147e-05,8.85762e-06,-1.09666e-05,1.77224e-05,6.47987e-06,0
-3.13732e-05,3.68381e-05,-8.96619e-06,-9.45002e-06,7.75547e-06,-1.00727e-05,1.85842e-05,8.46993e-06,0
-3.29185e-05,3.83572e-05,-1.02431e-05,-7.53216e-06,7.44478e-06,-9.50747e-06,1.86015e-05,8.80212e-06,0
-3.21623e-05,3.86196e-05,-9.81257e-06,-2.14549e-06,7.36223e-06,-1.03554e-05,1.82329e-05,7.08783e-06,0
-2.98281e-05,3.78459e-05,-7.20579e-06,5.94341e-06,7.43013e-06,-1.12248e-05,1.8253e-05,6.48082e-06,0
-2.80749e-05,3.56828e-05,-5.54952e-06,1.56622e-05,6.30029e-06,-1.27961e-05,1.96607e-05,8.18603e-06,0
-2.79624e-05,3.33037e-05,-5.53082e-06,2.7647e-05,3.7468e-06,-1.64797e-05,2.17923e-05,8.75415e-06,0
-2.77874e-05,3.07771e-05,-5.48433e-06,3.40771e-05,1.00959e-06,-2.01067e-05,2.26118e-05,8.73412e-06,0
-2.77692e-05,2.73893e-05,-4.68999e-06,2.99128e-05,7.0143e-07,-2.21112e-05,2.25466e-05,9.32236e-06,0
-2.91677e-05,2.35856e-05,-3.58451e-06,1.37329e-05,2.86216e-06,-2.16494e-05,2.14944e-05,6.97621e-06,0
-3.11193e-05,2.09806e-05,-3.34436e-06,-7.40026e-06,4.63708e-06,-1.99019e-05,1.95918e-05,3.96032e-06,0
-3.36812e-05,1.89897e-05,-5.0185e-06,-1.83148e-05,6.59608e-06,-1.94962e-05,1.7881e-05,3.96082e-06,0
-3.50899e-05,1.53018e-05,-9.68331e-06,-2.08367e-05,8.98478e-06,-2.03553e-05,1.72938e-05,4.71126e-06,0
-3.35875e-05,1.32436e-05,-1.43349e-05,-2.18302e-05,7.5889e-06,-2.03733e-05,1.63921e-05,4.52287e-06,0
-3.31618e-05,1.50622e-05,-1.47245e-05,-2.74471e-05,4.97951e-06,-1.8496e-05,1.47807e-05,4.22482e-06,0
-3.33211e-05,1.95315e-05,-1.27036e-05,-3.41957e-05,3.16653e-06,-1.46587e-05,1.43262e-05,3.64955e-06,0
-3.03058e-05,2.38016e-05,-1.21656e-05,-4.12865e-05,2.70067e-06,-1.02525e-05,1.44601e-05,2.71886e-06,0
-2.69918e-05,2.40727e-05,-1.24743e-05,-4.89197e-05,4.69034e-06,-7.06556e-06,1.49185e-05,1.71754e-06,0
-2.58363e-05,2.13161e-05,-1.14876e-05,-5.12128e-05,7.10249e-06,-6.65763e-06,1.57496e-05,1.89677e-06,0
-2.61831e-05,1.84613e-05,-9.56103e-06,-4.17533e-05,8.89994e-06,-8.04192e-06,1.58027e-05,1.59569e-06,0
-2.72097e-05,1.74313e-05,-8.40713e-06,-2.24091e-05,1.04247e-05,-8.49417e-06,1.36034e-05,-4.99601e-07,0
-2.77572e-05,1.84756e-05,-6.90989e-06,-6.12289e-06,1.18575e-05,-7.5206e-06,1.10757e-05,-3.29848e-06,0
-2.70933e-05,1.93904e-05,-4.40821e-06,-1.234e-07,1.1343e-05,-7.16009e-06,1.04317e-05,-5.58952e-06,0
-2.59018e-05,1.78634e-05,-2.6868e-06,-3.02595e-06,1.03836e-05,-7.95054e-06,1.25358e-05,-6.31381e-06,0
-2.57322e-05,1.42381e-05,-2.51652e-06,-7.8094e-06,9.78658e-06,-8.46736e-06,1.60551e-05,-5.78448e-06,0
-2.59094e-05,1.13231e-05,-2.45957e-06,-1.15947e-05,8.95831e-06,-8.2077e-06,1.76993e-05,-5.19323e-06,0
-2.61026e-05,1.15757e-05,-1.23275e-06,-1.39351e-05,9.14637e-06,-7.3646e-06,1.65456e-05,-5.16347e-06,0
-2.63468e-05,1.55987e-05,1.26717e-07,-1.56721e-05,1.11913e-05,-6.35057e-06,1.4439e-05,-4.8985e-06,0
-2.66784e-05,2.31797e-05,4.65608e-07,-1.83552e-05,1.36424e-05,-5.38591e-06,1.38662e-05,-5.05695e-06,0
-2.765e-05,3.28536e-05,-1.28458e-07,-2.73441e-05,1.54636e-05,-4.60112e-06,1.49961e-05,-7.01193e-06,0
-2.79677e-05,3.85487e-05,-3.48601e-07,-4.26009e-05,1.65341e-05,-3.25084e-06,1.63916e-05,-9.58696e-06,0
-2.73905e-05,3.58951e-05,-4.31432e-07,-5.53782e-05,1.62289e-05,-2.02464e-06,1.7284e-05,-9.25001e-06,0
-2.74115e-05,2.81331e-05,-1.75513e-06,-5.98073e-05,1.44239e-05,-9.28008e-07,1.75678e-05,-5.86367e-06,0
-2.79657e-05,1.95926e-05,-1.78005e-06,-5.88804e-05,1.18555e-05,-5.3649e-07,1.70787e-05,-3.828e-06,0
-2.80399e-05,1.51307e-05,-3.67951e-07,-5.67812e-05,1.16904e-05,-1.46701e-06,1.60793e-05,-5.5106e-06,0
-2.74311e-05,1.62731e-05,-4.54175e-07,-5.05851e-05,1.43238e-05,-2.44101e-06,1.59863e-05,-6.91271e-06,0
-2.62049e-05,1.74385e-05,-5.47376e-07,-2.89666e-05,1.7704e-05,-2.44242e-06,1.55313e-05,-6.58144e-06,0
-2.56056e-05,1.34889e-05,-5.96534e-07,6.75895e-06,2.18845e-05,-2.6717e-06,1.29659e-05,-7.57272e-06,0
-2.67604e-05,5.9593e-06,-8.54514e-07,4.27023e-05,2.71301e-05,-2.97812e-06,1.07336e-05,-8.59613e-06,0
-2.83573e-05,-2.34163e-06,-5.70062e-07,6.52015e-05,3.14276e-05,-1.42192e-06,9.57808e-06,-7.27455e-06,0
-2.94892e-05,-7.29297e-06,-1.41983e-06,6.81026e-05,3.12221e-05,4.08974e-07,9.5951e-06,-6.51105e-06,0
-2.97439e-05,-7.60861e-06,-3.54851e-06,5.91912e-05,2.76045e-05,1.31545e-07,9.57928e-06,-6.85027e-06,0
-2.96775e-05,-7.24698e-06,-5.35328e-06,4.79112e-05,2.29622e-05,-2.40333e-06,9.84647e-06,-5.88616e-06,0
-3.05479e-05,-8.32279e-06,-6.02354e-06,4.24905e-05,1.98799e-05,-4.68085e-06,1.20899e-05,-3.57159e-06,0
-3.28407e-05,-1.15108e-05,-6.59587e-06,4.10655e-05,1.93567e-05,-6.75134e-06,1.4033e-05,-1.34156e-06,0
-3.44545e-05,-1.59941e-05,-8.48097e-06,3.78403e-05,1.78004e-05,-9.1827e-06,1.47096e-05,4.18971e-07,0
-3.3736e-05,-1.96446e-05,-1.03036e-05,3.14605e-05,1.4316e-05,-9.99666e-06,1.51096e-05,2.71183e-06,0
-3.34041e-05,-1.75893e-05,-9.60701e-06,2.48925e-05,1.07346e-05,-8.49957e-06,1.5624e-05,4.67265e-06,0
-3.44187e-05,-9.5489e-06,-6.45497e-06,1.8893e-05,8.55658e-06,-7.12227e-06,1.58442e-05,5.25448e-06,0
-3.50376e-05,1.20412e-07,-2.67454e-06,1.37048e-05,6.65104e-06,-8.12895e-06,1.53134e-05,3.57943e-06,0
-3.40941e-05,6.52856e-06,6.0818e-07,9.48723e-06,4.1854e-06,-9.9172e-06,1.33991e-05,1.03466e-06,0
-3.25521e-05,8.49696e-06,1.25038e-06,4.80597e-06,1.82656e-06,-1.02854e-05,1.16158e-05,-7.41676e-07,0
-3.10859e-05,7.6817e-06,-2.67857e-06,-7.58787e-07,2.11074e-07,-9.30806e-06,1.20061e-05,-9.29074e-07,0
-2.94333e-05,5.64415e-06,-1.00217e-05,-6.35409e-06,-6.38322e-07,-8.69741e-06,1.43025e-05,1.17274e-07,0
-2.80082e-05,3.59352e-06,-1.70326e-05,-1.14224e-05,-3.99587e-07,-9.45576e-06,1.61112e-05,1.77975e-07,0
-2.82178e-05,2.37921e-06,-1.95286e-05,-1.62597e-05,2.13593e-06,-1.03962e-05,1.57094e-05,-4.9494e-07,0
-2.92902e-05,2.62333e-06,-1.73283e-05,-1.96064e-05,6.38469e-06,-1.01685e-05,1.48278e-05,-7.27044e-07,0
-2.99194e-05,3.08951e-06,-1.39598e-05,-1.99306e-05,9.484e-06,-9.27795e-06,1.54386e-05,-1.5805e-06,0
-3.10056e-05,4.14484e-06,-1.08643e-05,-1.66633e-05,9.87989e-06,-8.82339e-06,1.62431e-05,-2.44888e-06,0
-3.16116e-05,6.71046e-06,-7.92668e-06,-1.30669e-05,9.31545e-06,-8.72329e-06,1.6739e-05,-2.07442e-06,0
-3.17953e-05,8.4815e-06,-6.55978e-06,-1.19539e-05,9.47756e-06,-8.25202e-06,1.72753e-05,-9.19844e-07,0
-3.29447e-05,6.99589e-06,-4.89971e-06,-1.16852e-05,8.17843e-06,-8.24882e-06,1.69701e-05,-1.6182e-07,0
-3.37623e-05,5.59338e-06,-1.41533e-06,-1.09039e-05,6.76176e-06,-8.9539e-06,1.66392e-05,-3.22066e-07,0
-3.37176e-05,8.50551e-06,1.64537e-06,-9.68183e-06,9.70782e-06,-1.0515e-05,1.61907e-05,-1.4399e-06,0
-3.32272e-05,1.34924e-05,1.74711e-06,-6.41405e-06,1.48796e-05,-1.1587e-05,1.67082e-05,-8.16275e-07,0
-3.2077e-05,1.61515e-05,7.00865e-07,-3.91914e-06,1.7266e-05,-1.10392e-05,1.88897e-05,1.89359e-06,0
-3.12187e-05,1.65383e-05,-1.11619e-06,-5.25223e-06,1.56101e-05,-1.07353e-05,2.12861e-05,3.45419e-06,0
-3.11286e-05,1.49645e-05,-4.94487e-06,-7.76003e-06,1.43538e-05,-1.0881e-05,2.16235e-05,5.15681e-06,0
-3.16001e-05,1.43171e-05,-1.01605e-05,-8.93015e-06,1.41004e-05,-1.20247e-05,1.90324e-05,5.83438e-06,0
-2.98204e-05,1.38802e-05,-1.70562e-05,-1.21519e-05,1.2899e-05,-1.507e-05,1.69172e-05,4.02879e-06,0
-2.74548e-05,1.14746e-05,-2.17618e-05,-1.93326e-05,1.29773e-05,-1.80664e-05,1.67477e-05,4.20407e-07,0
-2.85465e-05,8.39081e-06,-2.33204e-05,-2.59619e-05,1.53556e-05,-1.92901e-05,1.66006e-05,-2.19168e-06,0
-3.0608e-05,6.41443e-06,-2.2138e-05,-2.58937e-05,1.84309e-05,-1.95611e-05,1.6955e-05,-3.10851e-06,0
-3.11465e-05,5.89749e-06,-1.83787e-05,-1.62353e-05,2.15788e-05,-1.91271e-05,1.8573e-05,-3.31369e-06,0
-3.04561e-05,7.46265e-06,-1.40583e-05,-2.73859e-07,2.36146e-05,-1.75513e-05,1.86342e-05,-2.73817e-06,0
-2.98977e-05,1.09051e-05,-9.29823e-06,1.48164e-05,2.27612e-05,-1.60612e-05,1.72697e-05,-3.06594e-06,0
-2.97083e-05,1.41761e-05,-5.75145e-07,2.48143e-05,1.99921e-05,-1.59002e-05,1.6105e-05,-5.03257e-06,0
-3.02335e-05,1.66955e-05,1.45897e-05,2.86729e-05,1.72909e-05,-1.63983e-05,1.50795e-05,-6.77782e-06,0
-3.15093e-05,1.54245e-05,3.37645e-05,2.75806e-05,1.50726e-05,-1.7351e-05,1.39441e-05,-5.54059e-06,0
-3.29794e-05,9.74709e-06,5.36922e-05,3.12797e-05,1.20975e-05,-1.89969e-05,1.36482e-05,-2.88717e-06,0
-3.46811e-05,2.68336e-06,6.81518e-05,4.62382e-05,8.78131e-06,-1.9873e-05,1.4635e-05,-1.58986e-06,0
-3.55495e-05,-1.03882e-06,6.90357e-05,6.03728e-05,7.48667e-06,-1.85656e-05,1.54449e-05,-6.23595e-07,0
-3.43091e-05,-8.39088e-07,5.18475e-05,5.7338e-05,8.71892e-06,-1.50019e-05,1.5544e-05,1.43467e-06,0
-3.21366e-05,1.12833e-06,1.87541e-05,3.73859e-05,1.03599e-05,-1.16539e-05,1.43456e-05,2.28688e-06,0
-3.06835e-05,3.58188e-06,-2.18475e-05,1.36133e-05,1.00536e-05,-1.01766e-05,1.3737e-05,9.35061e-07,0
-3.00224e-05,6.72353e-06,-5.88728e-05,-4.78569e-06,8.45533e-06,-9.37251e-06,1.60795e-05,-6.72688e-07,0
-2.98548e-05,1.12082e-05,-8.3793e-05,-1.90696e-05,8.43344e-06,-9.14379e-06,1.8607e-05,-1.7466e-06,0
-2.93758e-05,2.2095e-05,-9.22751e-05,-2.82537e-05,1.05509e-05,-9.63838e-06,1.80506e-05,-3.23132e-06,0
-2.7546e-05,3.95144e-05,-8.62504e-05,-3.05694e-05,1.44119e-05,-1.11794e-05,1.53719e-05,-3.36334e-06,0
-2.55724e-05,5.53529e-05,-7.19936e-05,-3.17224e-05,1.64042e-05,-1.30909e-05,1.25122e-05,-1.85747e-06,0
-2.58707e-05,6.31797e-05,-5.51759e-05,-3.64239e-05,1.29039e-05,-1.39405e-05,1.06777e-05,1.05786e-06,0
-2.73218e-05,5.67853e-05,-4.15351e-05,-4.07984e-05,8.3087e-06,-1.4718e-05,1.07531e-05,2.66796e-06,0
-2.87734e-05,3.77259e-05,-3.21048e-05,-4.35144e-05,7.32572e-06,-1.57067e-05,1.10238e-05,3.12143e-06,0
-2.93861e-05,1.81048e-05,-2.31602e-05,-4.5765e-05,8.32335e-06,-1.52942e-05,1.05787e-05,3.64799e-06,0
-2.85103e-05,3.70087e-06,-1.51094e-05,-4.67889e-05,9.55085e-06,-1.19965e-05,1.0371e-05,2.45363e-06,0
-2.80106e-05,-7.59399e-06,-1.01278e-05,-4.80701e-05,1.07712e-05,-8.04303e-06,1.04096e-05,1.84371e-06,0
-2.84999e-05,-1.39312e-05,-8.34919e-06,-4.54801e-05,1.16399e-05,-7.50612e-06,1.1383e-05,7.73741e-07,0
-2.91254e-05,-1.52401e-05,-6.61687e-06,-3.92063e-05,1.30706e-05,-9.31161e-06,1.20964e-05,-1.15726e-07,0
-2.96864e-05,-1.15657e-05,-4.91217e-06,-3.25607e-05,1.5096e-05,-9.55889e-06,1.19552e-05,3.60412e-08,0
-2.99773e-05,-4.64696e-06,-4.38092e-06,-2.6931e-05,1.51712e-05,-6.67486e-06,1.10092e-05,9.30918e-07,0
-2.98691e-05,3.34141e-06,-4.3361e-06,-2.21714e-05,1.2966e-05,-3.68645e-06,9.41264e-06,1.16824e-06,0
-3.01118e-05,1.03421e-05,-3.18478e-06,-1.3988e-05,1.07814e-05,-3.1598e-06,6.61315e-06,1.32462e-06,0
-3.0254e-05,1.40702e-05,-4.08768e-07,-2.66135e-06,9.17648e-06,-4.09686e-06,4.17518e-06,1.84521e-06,0
-2.93783e-05,1.54879e-05,1.89173e-06,8.49454e-06,8.29479e-06,-5.15091e-06,5.53224e-06,2.85074e-06,0
-2.91086e-05,1.63706e-05,2.33285e-06,1.59848e-05,7.29333e-06,-6.69525e-06,8.75872e-06,4.41273e-06,0
-3.0468e-05,1.76706e-05,3.4888e-08,1.80589e-05,5.50352e-06,-7.44597e-06,1.12406e-05,4.89568e-06,0
-3.19443e-05,1.89049e-05,-1.51726e-06,1.51975e-05,3.76007e-06,-6.81792e-06,1.17425e-05,4.22996e-06,0
-3.19076e-05,1.98421e-05,2.62492e-08,9.43411e-06,3.42447e-06,-6.3712e-06,7.17624e-06,3.1328e-06,0
-3.05016e-05,2.01755e-05,1.92756e-06,4.794e-06,4.38603e-06,-7.03315e-06,-3.93514e-06,2.65956e-06,0
-2.85548e-05,2.02369e-05,3.58248e-07,5.06429e-06,7.06519e-06,-7.59586e-06,-1.3983e-05,1.70996e-06,0
-2.66511e-05,2.094e-05,-1.53293e-06,9.69284e-06,1.12094e-05,-6.20819e-06,-1.59442e-05,-4.16339e-07,0
-2.50455e-05,2.18469e-05,-1.76231e-06,1.31139e-05,1.47725e-05,-4.54247e-06,-1.10685e-05,-2.42566e-06,0
-2.43867e-05,2.13096e-05,-2.05776e-06,1.22514e-05,1.69282e-05,-4.20553e-06,-4.34861e-06,-1.76619e-06,0
-2.50481e-05,2.03868e-05,-1.63582e-06,7.44181e-06,1.80703e-05,-6.23655e-06,8.98948e-07,8.4922e-07,0
-2.57779e-05,1.84704e-05,-5.41741e-07,8.05317e-07,1.83388e-05,-7.43907e-06,6.18736e-06,2.49141e-06,0
-2.73341e-05,1.53069e-05,-3.32675e-08,-4.80366e-06,1.53982e-05,-5.81688e-06,1.16949e-05,1.49462e-06,0
-3.00635e-05,1.22674e-05,-4.23926e-07,-8.64435e-06,1.17431e-05,-5.7603e-06,1.49318e-05,-2.72743e-07,0
-3.02244e-05,8.76573e-06,-3.29676e-06,-1.1566e-05,1.17206e-05,-7.77059e-06,1.57922e-05,-1.91042e-06,0
-2.67092e-05,6.51153e-06,-7.73766e-06,-1.41673e-05,1.28666e-05,-9.5684e-06,1.69539e-05,-3.42443e-06,0
-2.48776e-05,5.33054e-06,-1.03563e-05,-1.51996e-05,1.25547e-05,-1.00928e-05,1.85096e-05,-5.35457e-06,0
-2.58867e-05,4.04884e-06,-1.06254e-05,-1.30793e-05,1.23503e-05,-9.1528e-06,1.79091e-05,-6.82609e-06,0
-2.66218e-05,2.90272e-06,-1.0154e-05,-9.71793e-06,1.34075e-05,-9.53864e-06,1.56369e-05,-6.02404e-06,0
-2.77862e-05,9.62001e-07,-1.12173e-05,-8.77027e-06,1.53019e-05,-1.09197e-05,1.36631e-05,-3.6006e-06,0
-2.97946e-05,5.45798e-07,-1.16341e-05,-1.01478e-05,1.57436e-05,-1.26615e-05,1.35546e-05,-2.09442e-06,0
-3.13283e-05,4.00337e-06,-1.03204e-05,-1.18423e-05,1.50109e-05,-1.39545e-05,1.4131e-05,-2.38441e-06,0
-3.22375e-05,8.58485e-06,-8.32947e-06,-1.20589e-05,1.4811e-05,-1.30962e-05,1.59736e-05,-3.18328e-06,0
-3.30204e-05,1.01131e-05,-8.51602e-06,-1.33487e-05,1.51791e-05,-1.11748e-05,2.11066e-05,-2.92525e-06,0
-3.43892e-05,9.4987e-06,-1.24291e-05,-1.52494e-05,1.68089e-05,-1.0816e-05,2.67819e-05,-1.83756e-06,0
-3.52542e-05,9.7501e-06,-1.6703e-05,-1.29355e-05,1.83421e-05,-1.19416e-05,2.83614e-05,-1.72207e-06,0
-3.49476e-05,1.11354e-05,-1.75375e-05,-5.61017e-06,1.93811e-05,-1.30147e-05,2.45667e-05,-2.56611e-06,0
-3.41439e-05,1.38254e-05,-1.42033e-05,3.2706e-06,1.95636e-05,-1.39116e-05,1.76755e-05,-4.69328e-06,0
-3.3723e-05,1.79304e-05,-9.14318e-06,7.16257e-06,1.92682e-05,-1.46218e-05,1.00269e-05,-5.88664e-06,0
-3.43028e-05,2.27679e-05,-6.01521e-06,4.47029e-06,1.90534e-05,-1.51657e-05,6.09702e-06,-4.51296e-06,0
-3.51716e-05,2.64121e-05,-5.35978e-06,6.3714e-07,1.93214e-05,-1.43808e-05,7.56486e-06,-2.24086e-06,0
-3.48103e-05,2.81022e-05,-4.61235e-06,1.60472e-06,2.04178e-05,-1.30423e-05,1.10387e-05,-1.96669e-06,0
-3.34778e-05,2.89364e-05,-3.09313e-06,4.28705e-06,2.28245e-05,-1.24259e-05,1.2677e-05,-3.47609e-06,0
-3.30697e-05,2.926e-05,-1.63538e-06,3.21063e-06,2.67921e-05,-1.30845e-05,1.26553e-05,-5.07954e-06,0
-3.27779e-05,2.71514e-05,-1.43993e-06,-9.91841e-07,2.97802e-05,-1.38322e-05,1.19939e-05,-5.59729e-06,0
-3.12243e-05,2.20691e-05,-2.51901e-06,-3.98006e-06,2.9358e-05,-1.43685e-05,1.15813e-05,-5.57759e-06,0
-2.80994e-05,1.58167e-05,-3.11194e-06,-2.70853e-06,2.65108e-05,-1.48562e-05,1.11633e-05,-4.98952e-06,0
-2.58673e-05,1.19413e-05,-2.58135e-06,4.34131e-06,2.45265e-05,-1.45522e-05,9.85104e-06,-3.24222e-06,0
-2.63809e-05,1.23437e-05,-2.55749e-06,1.40121e-05,2.47664e-05,-1.23576e-05,9.02189e-06,-2.27175e-06,0
-2.70976e-05,1.35899e-05,-3.53741e-06,1.66759e-05,2.71028e-05,-8.8635e-06,9.16948e-06,-3.13779e-06,0
-2.69671e-05,1.38997e-05,-5.3029e-06,8.69145e-06,2.59352e-05,-5.79043e-06,8.2419e-06,-4.72362e-06,0
-2.65185e-05,1.57328e-05,-9.00881e-06,-4.74007e-06,1.99529e-05,-5.60599e-06,5.42342e-06,-3.88764e-06,0
-2.56981e-05,1.72086e-05,-1.29113e-05,-1.34471e-05,1.66699e-05,-7.40719e-06,4.36088e-06,-8.03075e-08,0
-2.73293e-05,1.68918e-05,-1.3537e-05,-1.54433e-05,1.84418e-05,-7.23133e-06,5.7944e-06,2.60397e-06,0
-2.97171e-05,1.68857e-05,-1.19891e-05,-1.76001e-05,2.14054e-05,-6.08999e-06,8.59023e-06,2.02853e-06,0
-2.92513e-05,1.52169e-05,-1.12265e-05,-2.17985e-05,2.01456e-05,-5.13137e-06,9.07301e-06,1.18158e-06,0
-2.88515e-05,1.31971e-05,-1.34217e-05,-2.40663e-05,1.60735e-05,-3.91309e-06,6.40656e-06,1.23647e-06,0
-2.96813e-05,1.13633e-05,-1.62629e-05,-1.98837e-05,1.30369e-05,-4.73323e-06,3.93873e-06,9.20588e-07,0
-3.01623e-05,1.04167e-05,-1.65493e-05,-1.12835e-05,1.19316e-05,-6.95651e-06,2.89854e-06,1.44715e-06,0
-3.16687e-05,1.16625e-05,-1.51816e-05,-3.15706e-06,1.35634e-05,-6.94452e-06,2.3258e-06,2.20415e-06,0
-3.41986e-05,1.33308e-05,-1.33729e-05,1.31313e-07,1.37131e-05,-5.33257e-06,1.48489e-06,2.86119e-06,0
-3.56194e-05,1.41808e-05,-1.20509e-05,-2.33415e-07,1.23523e-05,-4.65382e-06,-2.44481e-07,3.59901e-06,0
-3.46913e-05,1.37793e-05,-1.04386e-05,-2.51669e-07,1.17537e-05,-5.89872e-06,-5.84593e-06,4.12956e-06,0
-3.24022e-05,1.35832e-05,-7.38789e-06,1.30513e-06,1.31128e-05,-7.68755e-06,-1.26566e-05,5.43524e-06,0
-3.07252e-05,1.32307e-05,-3.94181e-06,2.68928e-06,1.44912e-05,-9.96314e-06,-1.6355e-05,6.17085e-06,0
-3.07206e-05,1.32737e-05,-1.74544e-06,2.15632e-06,1.32507e-05,-1.14545e-05,-1.55135e-05,5.97783e-06,0
-3.19066e-05,1.36237e-05,-1.07577e-06,1.01488e-06,1.11753e-05,-1.07413e-05,-1.09092e-05,5.41167e-06,0
-3.30348e-05,1.43316e-05,-1.16236e-06,2.79051e-06,9.77539e-06,-8.53777e-06,-4.22873e-06,5.21698e-06,0
-3.41262e-05,1.48372e-05,-1.38764e-06,1.14024e-05,1.02099e-05,-7.73116e-06,3.07101e-06,5.19582e-06,0
-3.41074e-05,1.57444e-05,-2.25205e-06,2.21651e-05,1.16973e-05,-1.02848e-05,1.03142e-05,5.11446e-06,0
-3.31066e-05,1.68041e-05,-3.03553e-06,2.46849e-05,1.25642e-05,-1.32326e-05,1.77012e-05,4.97575e-06,0
-3.21222e-05,1.50338e-05,-1.42317e-06,1.5801e-05,1.23066e-05,-1.43294e-05,2.4848e-05,5.50251e-06,0
-3.06906e-05,1.15185e-05,1.10924e-06,3.00481e-06,1.25989e-05,-1.33148e-05,3.02236e-05,7.12813e-06,0
-2.8414e-05,8.2515e-06,1.32512e-06,-8.75147e-06,1.25279e-05,-1.1422e-05,3.24336e-05,8.71309e-06,0
-2.75242e-05,5.18248e-06,-2.18203e-07,-1.64325e-05,1.14115e-05,-1.14475e-05,3.28939e-05,8.30772e-06,0
-2.90518e-05,2.86411e-06,-1.72402e-06,-1.6288e-05,1.12579e-05,-1.29479e-05,3.18775e-05,5.2778e-06,0
-3.12389e-05,2.02907e-06,-1.80215e-06,-1.15499e-05,1.43336e-05,-1.39391e-05,2.98169e-05,2.47716e-06,0
-3.21053e-05,3.33412e-06,-1.72728e-06,-7.86867e-06,1.89918e-05,-1.34851e-05,2.85771e-05,1.79637e-06,0
-3.16124e-05,5.62207e-06,-1.66768e-06,-5.25637e-06,2.13549e-05,-1.17133e-05,2.7271e-05,1.34196e-06,0
