ch1,ch2,ch3,ch4,ch5,ch6,ch7,ch8,class
-3.28804e-05,4.58372e-05,-9.1137e-06,-8.60231e-06,8.67529e-06,-7.74505e-06,8.57711e-06,5.08331e-06,0
-3.28722e-05,4.08397e-05,-6.49337e-06,-1.55926e-05,7.37145e-06,-5.96607e-06,8.68876e-06,3.62513e-06,0
-3.15207e-05,3.5685e-05,-4.24648e-06,-2.19574e-05,6.64441e-06,-4.34853e-06,8.64966e-06,3.22604e-06,0
-3.03725e-05,3.14167e-05,-4.64726e-06,-2.52989e-05,6.24844e-06,-2.71649e-06,8.39172e-06,4.04089e-06,0
-2.97764e-05,2.68908e-05,-4.87423e-06,-2.43854e-05,7.49912e-06,-2.11693e-06,9.76267e-06,4.22502e-06,0
-3.11074e-05,2.23882e-05,-3.88758e-06,-1.90709e-05,1.09833e-05,-3.4872e-06,1.07494e-05,1.82068e-06,0
-3.27561e-05,1.52783e-05,-2.3131e-06,-1.14498e-05,1.39014e-05,-5.97508e-06,9.97215e-06,2.42236e-07,0
-3.33329e-05,3.15912e-06,-2.77145e-06,-5.85622e-06,1.57076e-05,-8.56956e-06,7.13428e-06,1.25242e-06,0
-3.306e-05,-1.10331e-05,-5.24233e-06,-3.69138e-06,1.5991e-05,-1.01526e-05,3.4992e-06,2.35155e-06,0
-3.25184e-05,-1.81894e-05,-6.95937e-06,-6.05279e-06,1.58997e-05,-1.07309e-05,2.18006e-06,2.44323e-06,0
-3.18526e-05,-1.58886e-05,-7.66671e-06,-1.06364e-05,1.66769e-05,-1.09746e-05,4.18668e-06,2.06258e-06,0
-3.1353e-05,-6.63831e-06,-7.87646e-06,-1.39698e-05,1.91321e-05,-1.07551e-05,8.96386e-06,1.82389e-06,0
-3.10746e-05,5.28643e-06,-8.73624e-06,-1.33253e-05,2.18333e-05,-1.0313e-05,1.60769e-05,1.50577e-06,0
-3.10837e-05,1.51994e-05,-1.00511e-05,-9.70245e-06,2.37842e-05,-1.08362e-05,2.64333e-05,5.1986e-07,0
-3.11857e-05,2.04371e-05,-1.14266e-05,-6.06255e-06,2.41975e-05,-1.2049e-05,3.80969e-05,3.26445e-07,0
-3.06348e-05,2.19969e-05,-1.11648e-05,-5.14163e-06,2.31964e-05,-1.30801e-05,4.72872e-05,1.71884e-06,0
-2.94205e-05,2.13182e-05,-8.55926e-06,-7.91913e-06,2.19263e-05,-1.32833e-05,5.20264e-05,3.67839e-06,0
-2.82714e-05,2.09307e-05,-5.25827e-06,-1.28395e-05,2.07159e-05,-1.22636e-05,5.14051e-05,5.64125e-06,0
-2.74288e-05,2.1438e-05,-3.39099e-06,-1.6441e-05,1.95201e-05,-1.14125e-05,4.53415e-05,7.33706e-06,0
-2.66262e-05,2.00226e-05,-1.78746e-06,-1.81041e-05,1.91801e-05,-1.28722e-05,3.70357e-05,7.30108e-06,0
-2.49839e-05,1.49318e-05,2.50078e-06,-1.80074e-05,1.97101e-05,-1.48612e-05,2.58873e-05,5.63953e-06,0
-2.36734e-05,5.69584e-06,1.11725e-05,-1.46451e-05,1.94434e-05,-1.50269e-05,1.13407e-05,4.53656e-06,0
-2.73652e-05,-4.19557e-06,2.17705e-05,-1.11455e-05,1.95053e-05,-1.37339e-05,-4.01467e-06,3.57104e-06,0
-3.21372e-05,-9.4328e-06,3.21438e-05,-1.05693e-05,1.78099e-05,-1.28887e-05,-1.61302e-05,3.03598e-06,0
-3.23288e-05,-9.4032e-06,4.57337e-05,-1.18372e-05,1.41432e-05,-1.29511e-05,-2.2405e-05,3.42349e-06,0
-3.05306e-05,-7.91067e-06,5.74727e-05,-1.10627e-05,1.24339e-05,-1.40897e-05,-2.22448e-05,3.33843e-06,0
-3.13276e-05,-5.47043e-06,5.6508e-05,-9.13567e-06,1.09129e-05,-1.60453e-05,-1.73047e-05,6.83372e-07,0
-3.29192e-05,-3.38023e-06,4.15838e-05,-9.56557e-06,1.04165e-05,-1.62207e-05,-1.17584e-05,-3.23646e-06,0
-3.22211e-05,-2.16552e-06,1.40224e-05,-1.09947e-05,1.21041e-05,-1.47605e-05,-5.80274e-06,-5.26756e-06,0
-3.09093e-05,-6.86508e-08,-2.05893e-05,-9.80575e-06,1.26786e-05,-1.3812e-05,-1.18476e-06,-4.87301e-06,0
-2.99706e-05,2.16759e-06,-5.20431e-05,-6.63481e-06,1.18849e-05,-1.47667e-05,1.52528e-06,-4.65104e-06,0
-2.91793e-05,4.25852e-06,-7.27107e-05,-4.72316e-06,1.39827e-05,-1.62675e-05,2.74806e-06,-5.17165e-06,0
-2.90273e-05,5.66389e-06,-7.88343e-05,-6.49123e-06,1.91564e-05,-1.53657e-05,2.34265e-06,-4.18163e-06,0
-2.93422e-05,6.06389e-06,-7.25317e-05,-1.08733e-05,2.31135e-05,-1.23078e-05,-3.02667e-06,-1.84831e-06,0
-2.94303e-05,5.50054e-06,-5.95287e-05,-1.41762e-05,2.61229e-05,-9.50765e-06,-1.62183e-05,4.40353e-07,0
-3.01349e-05,6.41404e-06,-4.58979e-05,-1.5295e-05,2.92514e-05,-6.72753e-06,-2.99518e-05,1.15431e-06,0
-3.09393e-05,8.98018e-06,-3.51212e-05,-1.43495e-05,3.21405e-05,-4.27626e-06,-3.38461e-05,1.49214e-06,0
-3.1932e-05,9.72798e-06,-2.72793e-05,-1.19925e-05,3.24652e-05,-3.06567e-06,-2.48399e-05,1.55542e-06,0
-3.34025e-05,7.70541e-06,-2.09695e-05,-9.74374e-06,2.96784e-05,-2.70368e-06,-7.02962e-06,1.05512e-06,0
-3.40445e-05,4.2717e-06,-1.59825e-05,-9.32506e-06,2.61674e-05,-2.85075e-06,1.34133e-05,9.00644e-07,0
-3.36023e-05,6.99905e-07,-1.27744e-05,-9.58063e-06,2.35539e-05,-3.74167e-06,2.96423e-05,1.16499e-06,0
-3.32322e-05,-1.57693e-06,-1.18154e-05,-8.98213e-06,2.15573e-05,-5.24462e-06,3.75032e-05,2.10294e-06,0
-3.30086e-05,-3.76137e-07,-1.1147e-05,-9.75611e-06,1.95115e-05,-6.62033e-06,3.79737e-05,3.72913e-06,0
-3.1969e-05,3.94443e-06,-9.97033e-06,-1.17805e-05,1.75167e-05,-7.09657e-06,3.55854e-05,4.7485e-06,0
-3.04365e-05,8.86589e-06,-9.91078e-06,-1.2372e-05,1.56487e-05,-6.28629e-06,3.26303e-05,4.34935e-06,0
-3.00051e-05,1.09194e-05,-1.09415e-05,-1.05683e-05,1.44429e-05,-5.13549e-06,2.86474e-05,2.52646e-06,0
-3.00987e-05,9.89673e-06,-1.10799e-05,-7.11845e-06,1.34844e-05,-4.19079e-06,2.41659e-05,1.1973e-06,0
-2.92812e-05,9.57458e-06,-8.89583e-06,-4.68029e-06,1.2106e-05,-4.23403e-06,2.12965e-05,1.55504e-06,0
-2.92252e-05,1.18714e-05,-4.36354e-06,-3.83384e-06,1.02652e-05,-5.58365e-06,1.99231e-05,9.59927e-07,0
-3.14908e-05,1.40466e-05,-9.94211e-07,-3.09493e-06,8.41304e-06,-6.88913e-06,1.87304e-05,6.04282e-07,0
-3.36974e-05,1.51817e-05,-1.31111e-06,-2.81401e-06,6.88159e-06,-6.88154e-06,1.79587e-05,1.02444e-06,0
-3.37746e-05,1.69928e-05,-3.17167e-06,-3.97665e-06,5.6263e-06,-6.87621e-06,1.80928e-05,3.09688e-07,0
-3.19932e-05,1.96272e-05,-4.03626e-06,-5.68976e-06,4.67438e-06,-6.49739e-06,1.75022e-05,-6.0353e-07,0
-2.96441e-05,2.06672e-05,-3.36295e-06,-4.69725e-06,3.31963e-06,-6.9284e-06,1.56257e-05,1.88691e-07,0
-2.93078e-05,2.04537e-05,-3.9633e-06,-2.21804e-06,1.79476e-06,-8.36332e-06,1.41699e-05,1.64273e-06,0
-3.01317e-05,2.0285e-05,-6.41534e-06,-3.19754e-06,2.86579e-07,-9.03585e-06,1.2603e-05,6.99888e-07,0
-3.09838e-05,2.08541e-05,-7.95129e-06,-4.76856e-06,-7.34795e-07,-9.06876e-06,1.07187e-05,-2.57477e-06,0
-3.05185e-05,2.30671e-05,-7.05612e-06,-3.70192e-06,-1.62604e-07,-9.88259e-06,9.9731e-06,-3.88492e-06,0
-2.93111e-05,2.51151e-05,-5.83986e-06,-3.34603e-06,1.02205e-06,-1.15676e-05,1.0026e-05,-3.23859e-06,0
-2.88862e-05,2.42854e-05,-6.82203e-06,-5.31427e-06,2.61683e-06,-1.1861e-05,8.7138e-06,-3.65673e-06,0
-2.82871e-05,1.99765e-05,-7.42466e-06,-8.28894e-06,4.04904e-06,-1.14084e-05,6.61495e-06,-4.38146e-06,0
-2.82186e-05,1.70557e-05,-5.60829e-06,-9.86033e-06,4.3611e-06,-1.05066e-05,6.48386e-06,-5.34861e-06,0
-2.91718e-05,1.61341e-05,-3.52531e-06,-9.64974e-06,4.3494e-06,-1.06643e-05,9.10354e-06,-5.93924e-06,0
-3.0753e-05,1.55296e-05,-2.848e-06,-8.78015e-06,4.38995e-06,-1.22207e-05,1.4156e-05,-6.29273e-06,0
-3.21055e-05,1.58614e-05,-2.43759e-06,-6.80176e-06,3.69443e-06,-1.40092e-05,1.9172e-05,-6.52384e-06,0
-3.34866e-05,1.73696e-05,-2.30762e-06,-3.20389e-06,3.30091e-06,-1.40196e-05,2.07538e-05,-5.57959e-06,0
-3.41351e-05,1.85557e-05,-4.5125e-06,2.81539e-07,4.33231e-06,-1.31127e-05,1.94339e-05,-3.7096e-06,0
-3.34521e-05,1.8201e-05,-8.586e-06,2.7031e-06,5.93782e-06,-1.34729e-05,1.86329e-05,-3.57438e-06,0
-3.25404e-05,1.77056e-05,-1.21948e-05,6.50397e-06,6.75466e-06,-1.3804e-05,1.8847e-05,-4.92718e-06,0
-3.14957e-05,1.77084e-05,-1.2889e-05,1.53074e-05,6.76871e-06,-1.27434e-05,1.69899e-05,-5.93007e-06,0
-2.96137e-05,1.74266e-05,-1.03135e-05,3.05179e-05,7.94643e-06,-1.22045e-05,1.34436e-05,-6.04811e-06,0
-2.84038e-05,1.6879e-05,-6.76992e-06,4.60653e-05,1.04177e-05,-1.35823e-05,1.09126e-05,-4.39989e-06,0
-2.91764e-05,1.78191e-05,-4.60143e-06,5.24112e-05,1.05173e-05,-1.33022e-05,1.00437e-05,-2.06743e-06,0
-3.01112e-05,1.9224e-05,-2.99556e-06,4.67306e-05,7.84862e-06,-1.10516e-05,1.0133e-05,-3.06808e-07,0
-2.91193e-05,1.83226e-05,-1.94971e-06,3.40621e-05,6.26553e-06,-8.93165e-06,9.3734e-06,1.18843e-06,0
-2.79028e-05,1.58344e-05,-2.51413e-06,2.01879e-05,6.28098e-06,-7.90255e-06,8.64206e-06,3.77017e-06,0
-2.85613e-05,1.54484e-05,-3.69724e-06,7.04037e-06,5.95086e-06,-7.95473e-06,1.03573e-05,5.57004e-06,0
-3.01528e-05,1.60361e-05,-5.03118e-06,-5.32255e-06,5.21854e-06,-9.0312e-06,1.28357e-05,4.77511e-06,0
-3.11091e-05,1.45103e-05,-6.2971e-06,-1.96956e-05,5.1889e-06,-1.06193e-05,1.5344e-05,3.65421e-06,0
-2.9826e-05,1.35419e-05,-5.65661e-06,-3.26629e-05,4.29565e-06,-1.07142e-05,1.76722e-05,3.85105e-06,0
-2.87318e-05,1.41702e-05,-3.65943e-06,-4.01575e-05,4.23557e-06,-9.7069e-06,1.86071e-05,3.8668e-06,0
-2.8498e-05,1.39319e-05,-2.04557e-06,-4.49788e-05,5.21617e-06,-9.28678e-06,1.83648e-05,3.36465e-06,0
-2.8414e-05,1.29857e-05,-1.45197e-06,-4.77322e-05,5.00887e-06,-8.64138e-06,1.90857e-05,2.54524e-06,0
-2.89393e-05,1.3387e-05,-4.25242e-06,-4.90328e-05,4.29474e-06,-6.64594e-06,2.11712e-05,2.64379e-06,0
-2.86021e-05,1.59007e-05,-7.85535e-06,-4.57332e-05,4.26704e-06,-5.07809e-06,2.30777e-05,3.04078e-06,0
-2.77156e-05,1.84144e-05,-9.34002e-06,-3.62648e-05,4.95226e-06,-5.72658e-06,2.23211e-05,2.66176e-06,0
-2.83908e-05,1.85786e-05,-9.5029e-06,-2.36353e-05,5.15622e-06,-7.21949e-06,1.8131e-05,2.53376e-06,0
-3.05914e-05,1.64215e-05,-8.43759e-06,-1.37061e-05,5.99747e-06,-8.47898e-06,1.44668e-05,2.22899e-06,0
-3.12169e-05,1.43565e-05,-7.54082e-06,-8.6292e-06,5.92025e-06,-8.90309e-06,1.21971e-05,2.09615e-06,0
-2.9969e-05,1.45065e-05,-7.1277e-06,-7.98146e-06,6.59323e-06,-8.6441e-06,1.08143e-05,3.48251e-06,0
-2.80497e-05,1.74082e-05,-6.36571e-06,-1.12456e-05,8.58302e-06,-9.00409e-06,1.10993e-05,5.65899e-06,0
-2.69233e-05,2.11736e-05,-5.11976e-06,-1.50684e-05,1.00427e-05,-9.94036e-06,1.13432e-05,5.24645e-06,0
-2.78151e-05,2.1617e-05,-4.66401e-06,-1.53056e-05,1.28532e-05,-1.02445e-05,9.67779e-06,2.26603e-06,0
-2.93503e-05,1.79573e-05,-5.16811e-06,-1.12831e-05,1.85852e-05,-1.04723e-05,8.07722e-06,1.9218e-08,0
-2.97181e-05,1.33874e-05,-5.50642e-06,-9.30103e-06,2.41872e-05,-1.08975e-05,8.54772e-06,8.23971e-07,0
-2.84738e-05,1.078e-05,-4.75432e-06,-1.33048e-05,2.59645e-05,-1.09168e-05,1.11819e-05,3.42735e-06,0
-2.72957e-05,1.02677e-05,-3.48694e-06,-1.95958e-05,2.45547e-05,-1.07717e-05,1.48758e-05,4.40317e-06,0
-2.80573e-05,1.07302e-05,-3.17374e-06,-2.01087e-05,2.2356e-05,-1.04017e-05,1.87822e-05,3.70644e-06,0
-3.00598e-05,1.19537e-05,-3.05677e-06,-1.38466e-05,2.14195e-05,-1.06174e-05,2.18207e-05,3.45141e-06,0
-3.15253e-05,1.38394e-05,-2.91371e-06,-5.41788e-06,2.06854e-05,-1.2485e-05,2.42127e-05,4.24065e-06,0
-3.10794e-05,1.6872e-05,-4.68781e-06,-9.00507e-07,1.77894e-05,-1.52164e-05,2.60616e-05,4.99678e-06,0
-2.85443e-05,1.93566e-05,-8.40108e-06,-9.08972e-07,1.23539e-05,-1.63046e-05,2.48038e-05,3.6501e-06,0
-2.78472e-05,1.76815e-05,-1.21488e-05,-1.81247e-06,9.59917e-06,-1.62108e-05,2.15505e-05,8.85497e-07,0
-3.04468e-05,1.21028e-05,-1.73294e-05,-2.45351e-06,9.66946e-06,-1.70773e-05,2.03418e-05,-1.72261e-07,0
-3.21241e-05,8.48408e-06,-2.26292e-05,-1.97411e-06,9.33764e-06,-1.6865e-05,2.04351e-05,1.31879e-06,0
-3.18753e-05,9.70397e-06,-2.43871e-05,-9.24214e-07,9.15139e-06,-1.4505e-05,1.85735e-05,8.51687e-07,0
-3.22935e-05,1.16529e-05,-2.27196e-05,-7.69102e-07,1.03425e-05,-1.27577e-05,1.54355e-05,-1.49006e-06,0
-3.33491e-05,1.28062e-05,-2.00557e-05,-1.02306e-06,1.16043e-05,-1.20087e-05,1.23877e-05,-2.38311e-06,0
-3.36562e-05,1.34419e-05,-1.9011e-05,-4.95764e-07,1.18963e-05,-1.26204e-05,1.12688e-05,-3.29356e-06,0
-3.24592e-05,1.51493e-05,-1.83069e-05,-1.65053e-07,1.18052e-05,-1.28255e-05,1.22356e-05,-2.90153e-06,0
-3.12846e-05,1.67513e-05,-1.71618e-05,-1.92881e-07,1.22805e-05,-1.13365e-05,1.60135e-05,-1.46825e-06,0
-3.06291e-05,1.50875e-05,-1.56902e-05,-6.81592e-07,1.18366e-05,-1.08714e-05,2.27805e-05,-1.18094e-06,0
-2.99196e-05,1.10026e-05,-1.35675e-05,-1.78943e-06,1.11666e-05,-1.1146e-05,2.77741e-05,-3.63889e-07,0
-3.03888e-05,8.95447e-06,-1.27243e-05,-1.81591e-06,1.28164e-05,-1.06613e-05,2.95477e-05,1.79215e-06,0
-3.12987e-05,1.04763e-05,-1.36779e-05,-1.83613e-07,1.52273e-05,-8.55665e-06,3.02594e-05,4.01063e-06,0
-3.07712e-05,1.07914e-05,-1.51902e-05,1.91595e-06,1.80229e-05,-6.10342e-06,3.03027e-05,4.46524e-06,0
-3.00926e-05,8.68664e-06,-1.48596e-05,4.00704e-06,1.98433e-05,-5.70281e-06,2.75925e-05,3.25533e-06,0
-3.03187e-05,6.64071e-06,-1.27977e-05,5.06219e-06,2.00661e-05,-6.9709e-06,2.20042e-05,2.45765e-06,0
-2.97897e-05,6.93796e-06,-1.04115e-05,5.85706e-06,1.82979e-05,-8.17289e-06,1.2185e-05,2.05301e-06,0
-2.86787e-05,8.38331e-06,-8.8383e-06,1.00794e-05,1.63223e-05,-8.55261e-06,-7.30299e-06,1.63189e-06,0
-2.86339e-05,8.12845e-06,-8.01285e-06,1.60954e-05,1.46951e-05,-8.56627e-06,-3.19754e-05,1.13431e-06,0
-3.1041e-05,4.88783e-06,-7.54509e-06,1.92523e-05,1.34579e-05,-8.50028e-06,-4.62406e-05,-6.21699e-09,0
-3.42046e-05,1.70153e-06,-7.56607e-06,1.93048e-05,1.36587e-05,-9.16299e-06,-4.11913e-05,-1.4339e-06,0
-3.51306e-05,1.56627e-06,-7.30946e-06,1.81962e-05,1.48078e-05,-1.18389e-05,-2.23332e-05,-2.24831e-06,0
-3.40207e-05,2.88726e-06,-6.59165e-06,1.72562e-05,1.45266e-05,-1.50963e-05,-4.08372e-07,-2.59342e-06,0
-3.29723e-05,2.41078e-06,-5.80768e-06,1.66199e-05,1.28116e-05,-1.58769e-05,1.73341e-05,-2.61693e-06,0
-3.24862e-05,1.04081e-06,-5.87543e-06,1.54843e-05,1.284e-05,-1.38117e-05,2.75105e-05,-1.32678e-06,0
-3.27414e-05,7.41271e-07,-7.0526e-06,1.44332e-05,1.43707e-05,-1.08369e-05,3.00368e-05,1.6326e-06,0
-3.32471e-05,1.82252e-06,-7.66582e-06,1.29574e-05,1.63893e-05,-9.96293e-06,2.71655e-05,3.1696e-06,0
-3.33225e-05,5.8522e-06,-7.18237e-06,1.08431e-05,2.0159e-05,-1.22588e-05,2.35143e-05,1.71989e-06,0
-3.28675e-05,1.15444e-05,-6.23212e-06,9.53555e-06,2.42598e-05,-1.53282e-05,2.18179e-05,1.33798e-06,0
-3.29173e-05,1.53456e-05,-4.85427e-06,6.91714e-06,2.39635e-05,-1.74717e-05,2.01879e-05,3.57908e-06,0
-3.26385e-05,1.51157e-05,-4.86832e-06,4.32864e-06,2.11033e-05,-1.82942e-05,1.87045e-05,5.45618e-06,0
-3.03603e-05,1.38708e-05,-6.5883e-06,5.01382e-06,1.8343e-05,-1.7771e-05,1.96275e-05,5.34222e-06,0
-2.84806e-05,1.08126e-05,-8.72025e-06,7.63428e-06,1.6742e-05,-1.55059e-05,2.09585e-05,4.97911e-06,0
-2.75035e-05,3.74516e-06,-7.82452e-06,8.57185e-06,1.53998e-05,-1.27364e-05,2.0204e-05,6.91208e-06,0
-2.68655e-05,-3.75083e-06,-5.43826e-06,3.25149e-06,1.32403e-05,-1.05262e-05,1.91945e-05,9.19084e-06,0
-2.78732e-05,-6.76339e-06,-4.34429e-06,-7.1407e-06,1.24617e-05,-7.74521e-06,1.81579e-05,9.79896e-06,0
-2.9571e-05,-4.8218e-06,-4.71857e-06,-2.0039e-05,1.27696e-05,-6.631e-06,1.61133e-05,9.8181e-06,0
-2.91294e-05,-2.73581e-06,-6.63592e-06,-3.27279e-05,1.23297e-05,-7.324e-06,1.39437e-05,9.20101e-06,0
-2.85551e-05,-1.4959e-06,-9.94172e-06,-3.78099e-05,1.12691e-05,-7.1385e-06,1.24513e-05,7.90271e-06,0
-2.88476e-05,2.27823e-07,-1.31873e-05,-3.38273e-05,1.10961e-05,-6.50718e-06,1.15225e-05,5.79397e-06,0
-2.96204e-05,2.7638e-06,-1.49313e-05,-2.44607e-05,1.1774e-05,-6.71024e-06,1.14111e-05,4.73439e-06,0
-3.04262e-05,5.86233e-06,-1.63179e-05,-1.88203e-05,1.17809e-05,-8.06396e-06,1.03045e-05,5.31752e-06,0
-2.98245e-05,9.22887e-06,-1.79802e-05,-2.13853e-05,9.55507e-06,-8.28346e-06,8.38889e-06,4.8474e-06,0
-2.84361e-05,1.26623e-05,-1.85559e-05,-2.77277e-05,7.14011e-06,-6.28067e-06,7.57435e-06,3.10003e-06,0
-2.78419e-05,1.61431e-05,-1.52162e-05,-3.10633e-05,6.67958e-06,-4.43488e-06,7.09532e-06,2.08593e-06,0
-2.89051e-05,1.97799e-05,-9.39898e-06,-2.85482e-05,6.56781e-06,-4.65916e-06,8.07653e-06,2.53647e-06,0
-2.95493e-05,2.16968e-05,-1.22288e-06,-2.24391e-05,6.24987e-06,-5.28735e-06,1.02009e-05,3.27221e-06,0
-2.82092e-05,2.05969e-05,1.08592e-05,-1.46195e-05,6.84178e-06,-4.6704e-06,1.24712e-05,3.63222e-06,0
-2.6137e-05,1.79956e-05,2.58079e-05,-9.32589e-06,8.01531e-06,-4.5827e-06,1.4511e-05,3.83541e-06,0
-2.63219e-05,1.53796e-05,3.92459e-05,-9.75432e-06,8.99124e-06,-6.20868e-06,1.51181e-05,3.5968e-06,0
-2.79146e-05,1.22843e-05,4.73726e-05,-1.49514e-05,1.0059e-05,-7.29229e-06,1.34266e-05,2.24098e-06,0
-2.89568e-05,7.97632e-06,4.67771e-05,-1.92637e-05,1.2327e-05,-6.83012e-06,1.19287e-05,4.23353e-08,0
-2.90029e-05,3.08872e-06,3.45288e-05,-2.06908e-05,1.54342e-05,-6.14914e-06,1.21643e-05,-1.34051e-06,0
-2.82548e-05,-1.14561e-06,1.10933e-05,-1.9379e-05,1.67312e-05,-4.78718e-06,1.35112e-05,-8.93737e-07,0
-2.72356e-05,-2.25924e-06,-1.71991e-05,-1.78596e-05,1.64493e-05,-3.85344e-06,1.44823e-05,-1.27283e-06,0
-2.61755e-05,2.75954e-06,-3.9616e-05,-1.66525e-05,1.72133e-05,-4.15392e-06,1.2916e-05,-2.87521e-06,0
-2.54449e-05,8.90124e-06,-4.74053e-05,-1.04923e-05,1.73509e-05,-3.93489e-06,9.50512e-06,-4.0308e-06,0
-2.44469e-05,1.11412e-05,-4.13727e-05,2.00087e-06,1.81718e-05,-2.97881e-06,6.24829e-06,-3.2327e-06,0
-2.47751e-05,1.27768e-05,-3.24331e-05,1.22571e-05,1.95161e-05,-2.49115e-06,5.74276e-06,-3.18055e-07,0
-2.71979e-05,1.58099e-05,-3.01071e-05,1.45591e-05,1.63392e-05,-2.04211e-06,7.25252e-06,1.60645e-07,0
-2.91138e-05,2.02398e-05,-3.213e-05,1.25821e-05,1.35772e-05,-7.7046e-07,9.00853e-06,-3.2941e-06,0
-2.99817e-05,2.32789e-05,-3.37893e-05,1.03998e-05,1.53707e-05,1.50368e-07,1.07922e-05,-6.01739e-06,0
-3.12765e-05,2.11878e-05,-3.21548e-05,9.40376e-06,2.00086e-05,-7.55786e-07,1.20083e-05,-5.99737e-06,0
-3.26579e-05,1.54227e-05,-2.38735e-05,8.23632e-06,2.22647e-05,-2.03286e-06,1.23729e-05,-5.88236e-06,0
-3.2694e-05,1.13768e-05,-1.39714e-05,7.15338e-06,2.05584e-05,-1.31602e-06,1.33327e-05,-5.45271e-06,0
-3.15593e-05,1.04214e-05,-4.43834e-06,6.18674e-06,1.88264e-05,-9.84944e-07,1.40253e-05,-4.31777e-06,0
-2.97599e-05,8.91892e-06,2.48458e-06,5.13496e-06,1.77071e-05,-2.5106e-06,1.20364e-05,-2.35219e-06,0
-2.77695e-05,6.79996e-06,4.26872e-06,4.06577e-06,1.69471e-05,-4.93613e-06,7.66535e-06,-1.99727e-06,0
-2.73585e-05,5.06107e-06,1.10048e-06,3.28863e-06,1.7077e-05,-6.09466e-06,3.08991e-06,-3.39111e-06,0
-2.84575e-05,3.11221e-06,-6.48131e-06,1.7852e-06,1.8118e-05,-6.13454e-06,1.94616e-06,-3.54687e-06,0
-3.02898e-05,3.13961e-06,-1.61003e-05,5.22064e-09,1.85274e-05,-7.64528e-06,5.67983e-06,-1.90771e-06,0
-3.22611e-05,6.45696e-06,-2.50945e-05,-5.86408e-07,1.77707e-05,-8.54375e-06,1.186e-05,1.75361e-07,0
-3.33695e-05,9.37632e-06,-3.12818e-05,-3.4483e-07,1.56646e-05,-7.42095e-06,1.72303e-05,1.23005e-06,0
-3.29865e-05,9.79559e-06,-3.25106e-05,6.7174e-07,1.44595e-05,-6.59208e-06,2.16474e-05,2.22827e-06,0
-3.16938e-05,1.00837e-05,-2.67769e-05,1.75732e-06,1.6254e-05,-7.62974e-06,2.44502e-05,4.18878e-06,0
-3.07691e-05,1.29891e-05,-1.75959e-05,2.63147e-07,1.90281e-05,-8.73534e-06,2.27263e-05,7.26091e-06,0
-3.04285e-05,1.65979e-05,-1.06392e-05,-4.42248e-06,1.90832e-05,-7.88157e-06,1.672e-05,1.06608e-05,0
-2.96217e-05,1.70938e-05,-7.94373e-06,-8.26636e-06,1.69043e-05,-6.23658e-06,1.12331e-05,1.30975e-05,0
-2.87005e-05,1.60999e-05,-7.60543e-06,-8.21824e-06,1.53194e-05,-6.15681e-06,1.05152e-05,1.30273e-05,0
-2.88037e-05,1.65927e-05,-8.4069e-06,-4.98781e-06,1.51067e-05,-7.27792e-06,1.41345e-05,1.17523e-05,0
-2.93321e-05,1.82322e-05,-9.35912e-06,-2.14735e-06,1.42725e-05,-9.93777e-06,1.84856e-05,9.96337e-06,0
-2.97886e-05,2.01062e-05,-9.20262e-06,-2.78352e-06,1.187e-05,-1.2812e-05,1.97211e-05,9.32562e-06,0
-3.03396e-05,2.29779e-05,-8.49256e-06,-5.07905e-06,9.06444e-06,-1.31632e-05,1.671e-05,1.04619e-05,0
-3.1453e-05,2.56956e-05,-8.60648e-06,-5.30849e-06,7.26679e-06,-1.09563e-05,1.31099e-05,1.15542e-05,0
-3.25992e-05,2.63851e-05,-6.61922e-06,-5.11534e-06,7.04249e-06,-9.99336e-06,1.14053e-05,9.42354e-06,0
-3.40168e-05,2.39558e-05,-2.18896e-06,-7.11851e-06,5.21115e-06,-1.10897e-05,1.12517e-05,5.30958e-06,0
-3.50034e-05,2.12979e-05,3.74706e-07,-9.33225e-06,1.97445e-06,-1.06655e-05,1.05205e-05,2.88828e-06,0
-3.36205e-05,2.13021e-05,4.70961e-07,-1.1437e-05,1.72899e-06,-1.05309e-05,7.2652e-06,1.41824e-06,0
-2.97033e-05,2.22501e-05,-6.46175e-07,-1.27881e-05,4.17058e-06,-1.0616e-05,4.59906e-06,6.61816e-07,0
-2.65837e-05,2.22258e-05,-2.00888e-06,-1.17531e-05,8.79377e-06,-9.08783e-06,3.83515e-06,-1.94579e-07,0
-2.62351e-05,2.04916e-05,-1.83355e-06,-1.02058e-05,1.53193e-05,-6.11395e-06,5.60261e-06,-8.85075e-07,0
-2.67764e-05,2.13673e-05,-1.30856e-07,-1.04844e-05,1.86767e-05,-4.08927e-06,6.72232e-06,-6.93074e-07,0
-2.80133e-05,2.47127e-05,1.05351e-06,-1.42972e-05,1.78246e-05,-3.72255e-06,5.53542e-06,1.15645e-06,0
-2.89447e-05,2.61363e-05,-6.2857e-08,-1.78734e-05,1.50686e-05,-3.20888e-06,4.07589e-06,3.92742e-06,0
-2.90914e-05,2.45243e-05,-1.9911e-06,-1.77445e-05,1.30891e-05,-1.47174e-06,3.08499e-06,4.95956e-06,0
-2.93947e-05,2.15663e-05,-3.27594e-06,-1.4804e-05,1.19833e-05,6.08027e-08,3.91748e-06,4.28556e-06,0
-2.88446e-05,2.01392e-05,-2.62845e-06,-1.0383e-05,9.89249e-06,-3.36206e-07,5.09617e-06,3.46487e-06,0
-2.7755e-05,2.0431e-05,-2.07423e-07,-2.6047e-06,8.2372e-06,-1.36869e-06,6.18871e-06,3.46887e-06,0
-2.75602e-05,1.95484e-05,2.49214e-06,8.86777e-06,8.36749e-06,-2.45763e-06,6.19107e-06,4.64753e-06,0
-2.83318e-05,1.66838e-05,4.44378e-06,1.92982e-05,1.02739e-05,-3.07338e-06,5.80301e-06,6.25044e-06,0
-3.01183e-05,1.44095e-05,4.83061e-06,2.60245e-05,1.18594e-05,-3.84931e-06,6.848e-06,6.71537e-06,0
-3.23496e-05,1.23637e-05,5.0064e-06,2.80878e-05,1.13537e-05,-4.59515e-06,1.07881e-05,5.58504e-06,0
-3.32318e-05,8.22203e-06,4.87295e-06,2.39954e-05,9.44935e-06,-5.05636e-06,1.74961e-05,3.8827e-06,0
-3.28516e-05,3.49796e-06,3.91664e-06,1.52439e-05,7.51354e-06,-5.73087e-06,2.25378e-05,2.2427e-06,0
-3.31462e-05,8.4613e-07,2.5239e-06,8.63548e-06,6.39667e-06,-6.56698e-06,1.76525e-05,1.22308e-06,0
-3.3721e-05,2.24574e-06,2.36322e-06,5.95021e-06,7.89292e-06,-7.0454e-06,3.45684e-06,2.42305e-07,0
-3.3524e-05,7.57236e-06,2.13355e-06,3.73857e-06,1.21903e-05,-7.84197e-06,-5.80628e-06,-2.88961e-07,0
-3.23418e-05,1.09527e-05,-3.73887e-07,1.5903e-06,1.49398e-05,-9.33655e-06,-1.40437e-06,-3.06609e-07,0
-3.16967e-05,1.03943e-05,-5.7267e-06,2.10061e-06,1.33684e-05,-1.08491e-05,1.0299e-05,1.93384e-07,0
-3.21168e-05,1.09312e-05,-1.15538e-05,8.97194e-07,1.04776e-05,-1.19131e-05,1.93999e-05,8.29608e-07,0
-3.09781e-05,1.98102e-05,-1.59275e-05,-3.23342e-06,7.52103e-06,-1.22178e-05,2.13341e-05,-3.37639e-07,0
-2.84543e-05,3.37437e-05,-1.65714e-05,-1.44044e-06,4.07785e-06,-1.11887e-05,1.40047e-05,-1.3272e-06,0
-2.61509e-05,4.5631e-05,-1.31521e-05,7.7091e-06,2.62525e-06,-9.37142e-06,3.59194e-06,-1.21874e-06,0
-2.60702e-05,5.78351e-05,-7.46258e-06,1.27549e-05,3.62528e-06,-9.30364e-06,-2.19682e-06,-1.78364e-06,0
-2.66616e-05,7.12032e-05,-1.05422e-06,9.59234e-06,6.056e-06,-1.08034e-05,-3.36527e-06,-2.86095e-06,0
-2.62772e-05,8.24699e-05,7.2059e-06,3.69431e-06,7.13874e-06,-1.2094e-05,-3.86318e-07,-1.41658e-06,0
-2.76545e-05,8.4249e-05,1.89906e-05,-1.96251e-06,7.95463e-06,-1.22388e-05,4.10382e-06,1.2576e-06,0
-2.89432e-05,7.42458e-05,3.18344e-05,-3.48024e-06,9.8104e-06,-1.31092e-05,7.73802e-06,2.0706e-06,0
-2.87847e-05,5.7489e-05,4.47348e-05,-2.26035e-06,1.24638e-05,-1.32913e-05,1.18063e-05,5.78911e-07,0
-2.86079e-05,3.71037e-05,5.21898e-05,-7.63612e-07,1.62584e-05,-1.28001e-05,1.41297e-05,-2.22163e-06,0
-2.85394e-05,1.96571e-05,4.94803e-05,-1.50722e-06,1.91193e-05,-1.30231e-05,1.55869e-05,-3.27574e-06,0
-2.80878e-05,1.54234e-06,3.29908e-05,-4.60004e-06,2.13955e-05,-1.259e-05,1.81725e-05,-2.76079e-06,0
-2.89929e-05,-2.87412e-05,1.46716e-06,-1.01904e-05,2.33212e-05,-1.21412e-05,1.77819e-05,-1.42348e-06,0
-3.09352e-05,-6.68976e-05,-3.76746e-05,-1.8547e-05,2.41777e-05,-1.27732e-05,8.67008e-06,-9.73789e-07,0
-3.18314e-05,-9.64305e-05,-7.15801e-05,-2.54012e-05,2.35269e-05,-1.50453e-05,-6.53752e-06,-3.11983e-06,0
-3.32706e-05,-0.000109478,-9.06329e-05,-2.80182e-05,2.22875e-05,-1.63107e-05,-1.68622e-05,-5.8079e-06,0
-3.58316e-05,-0.000108148,-9.26601e-05,-2.7632e-05,2.13545e-05,-1.67704e-05,-1.52053e-05,-5.98969e-06,0
-3.72054e-05,-9.34581e-05,-8.18881e-05,-2.72568e-05,2.0561e-05,-1.73626e-05,-3.77431e-06,-5.37772e-06,0
-3.5477e-05,-6.74356e-05,-6.53628e-05,-2.55596e-05,1.99946e-05,-1.72253e-05,1.02856e-05,-5.93401e-06,0
-3.17726e-05,-3.78805e-05,-4.84274e-05,-2.2444e-05,1.95464e-05,-1.57752e-05,2.34118e-05,-6.05503e-06,0
-2.92845e-05,-1.54913e-05,-3.39635e-05,-2.10034e-05,1.80241e-05,-1.38602e-05,3.47118e-05,-4.78313e-06,0
-2.95386e-05,-4.62301e-06,-2.32158e-05,-2.24873e-05,1.57879e-05,-1.27394e-05,4.214e-05,-3.92165e-06,0
-3.04731e-05,-3.20569e-06,-1.64791e-05,-2.39267e-05,1.38231e-05,-1.26776e-05,4.30434e-05,-4.3222e-06,0
-3.135e-05,-5.20262e-06,-1.2066e-05,-2.17415e-05,1.16593e-05,-1.41361e-05,3.82523e-05,-4.22321e-06,0
-3.2634e-05,-6.2193e-06,-9.64079e-06,-1.44203e-05,9.24303e-06,-1.62478e-05,3.06231e-05,-4.19564e-06,0
-3.5033e-05,-3.57914e-06,-8.87922e-06,-5.81181e-06,7.51783e-06,-1.75798e-05,2.04144e-05,-4.41777e-06,0
-3.62842e-05,3.06191e-06,-9.05141e-06,-1.52494e-06,6.62928e-06,-1.87296e-05,1.03241e-05,-5.05364e-06,0
-3.51906e-05,1.05939e-05,-8.92868e-06,-4.50223e-07,6.18242e-06,-1.88621e-05,5.38444e-06,-6.65863e-06,0
-3.44437e-05,1.50584e-05,-7.08915e-06,-1.12576e-07,9.51074e-06,-1.7764e-05,4.51296e-06,-7.06199e-06,0
-3.41186e-05,1.51816e-05,-5.2336e-06,-2.04783e-06,1.42445e-05,-1.8468e-05,7.30711e-06,-6.34492e-06,0
-3.37956e-05,1.41294e-05,-4.97142e-06,-3.06778e-06,1.57513e-05,-1.92424e-05,1.77689e-05,-6.41845e-06,0
-3.32302e-05,1.47347e-05,-5.42674e-06,-1.68475e-06,1.64832e-05,-1.92985e-05,3.18988e-05,-6.23046e-06,0
-3.25425e-05,1.52521e-05,-6.64254e-06,-1.28285e-06,1.71234e-05,-1.93097e-05,4.23275e-05,-5.27495e-06,0
-3.19288e-05,1.54578e-05,-5.57912e-06,-3.25615e-06,1.86526e-05,-1.90706e-05,4.56134e-05,-3.40825e-06,0
-3.01938e-05,1.67406e-05,-3.37849e-06,-9.44742e-06,2.05246e-05,-1.8524e-05,4.24828e-05,-9.60827e-07,0
-2.81177e-05,1.91755e-05,-3.08401e-06,-1.74124e-05,2.19887e-05,-1.68383e-05,3.67224e-05,1.04766e-06,0
-2.79084e-05,2.02603e-05,-1.83338e-06,-2.57427e-05,2.33476e-05,-1.46817e-05,2.89589e-05,2.08343e-06,0
-2.8874e-05,1.893e-05,1.6309e-06,-3.51785e-05,2.30817e-05,-1.31834e-05,2.0021e-05,3.65414e-06,0
-3.00755e-05,1.91132e-05,4.47737e-06,-4.14496e-05,2.09316e-05,-1.1785e-05,1.0755e-05,4.58385e-06,0
-3.27652e-05,2.0214e-05,4.51923e-06,-3.90719e-05,1.80911e-05,-1.06521e-05,2.49512e-06,4.23937e-06,0
-3.51731e-05,2.01996e-05,3.57432e-06,-3.12019e-05,1.6525e-05,-1.02499e-05,-4.28328e-06,4.4483e-06,0
-3.38372e-05,1.96308e-05,3.52342e-06,-2.28166e-05,1.64933e-05,-1.05079e-05,-7.81455e-06,4.82894e-06,0
-3.05954e-05,2.06952e-05,2.78778e-06,-1.59486e-05,1.8335e-05,-1.09183e-05,-7.9026e-06,4.77351e-06,0
-2.83684e-05,2.27423e-05,-1.39933e-06,-1.15471e-05,1.96765e-05,-1.09003e-05,-6.312e-06,4.26195e-06,0
-2.75914e-05,2.38944e-05,-6.52938e-06,-9.02199e-06,1.8477e-05,-1.05871e-05,-2.89478e-06,3.91093e-06,0
-2.76771e-05,2.43535e-05,-9.59427e-06,-6.84878e-06,1.58411e-05,-9.6381e-06,1.89182e-06,3.76596e-06,0
-2.85624e-05,2.36567e-05,-1.04997e-05,-4.25875e-06,1.31823e-05,-9.01951e-06,7.01558e-06,3.69501e-06,0
-2.9446e-05,2.08955e-05,-8.96458e-06,-1.87305e-06,1.16785e-05,-9.74559e-06,1.13015e-05,3.57873e-06,0
-2.94016e-05,1.87839e-05,-5.86929e-06,4.84756e-07,1.25204e-05,-1.19179e-05,1.52369e-05,3.71127e-06,0
-2.82176e-05,1.95642e-05,-5.03828e-06,2.12844e-06,1.28812e-05,-1.41313e-05,1.79241e-05,3.08066e-06,0
-2.67489e-05,2.19923e-05,-6.14671e-06,2.52485e-06,1.03563e-05,-1.523e-05,1.74726e-05,2.08163e-06,0
-2.66181e-05,2.34386e-05,-6.50837e-06,2.33814e-06,7.72124e-06,-1.37297e-05,1.47602e-05,1.07687e-06,0
-2.66589e-05,2.19105e-05,-7.11923e-06,3.43751e-06,6.22214e-06,-1.09753e-05,1.37201e-05,-2.59936e-07,0
-2.7286e-05,2.00818e-05,-9.14778e-06,4.48547e-06,5.70477e-06,-1.0057e-05,1.43577e-05,-1.07665e-06,0
-2.89064e-05,2.04809e-05,-1.13897e-05,3.97492e-06,5.2618e-06,-9.78732e-06,1.5682e-05,-1.84799e-06,0
-2.99667e-05,2.17353e-05,-1.1596e-05,1.30788e-06,5.70261e-06,-1.01007e-05,1.62737e-05,-1.73383e-06,0
-3.03693e-05,2.12311e-05,-1.03521e-05,-1.37838e-06,8.90754e-06,-9.95612e-06,1.60162e-05,-1.07497e-06,0
-2.9874e-05,2.00534e-05,-1.04364e-05,-4.19428e-06,1.32525e-05,-7.93264e-06,1.57834e-05,-1.76392e-06,0
-2.84096e-05,1.84009e-05,-1.13958e-05,-8.84667e-06,1.48902e-05,-4.48978e-06,1.56548e-05,-2.23861e-06,0
-2.66317e-05,1.62676e-05,-1.24301e-05,-1.14582e-05,1.20726e-05,-1.68197e-06,1.5602e-05,-2.257e-06,0
-2.5982e-05,1.59485e-05,-1.274e-05,-1.07331e-05,8.67565e-06,-1.9381e-06,1.44931e-05,-1.15524e-06,0
-2.57563e-05,1.8503e-05,-1.19641e-05,-6.16761e-06,7.64914e-06,-3.82696e-06,1.29482e-05,1.94983e-07,0
-2.55311e-05,2.43089e-05,-1.13573e-05,8.65039e-07,8.23962e-06,-6.45872e-06,1.19747e-05,-3.24596e-07,0
-2.7582e-05,3.14117e-05,-1.09293e-05,6.33909e-06,9.79548e-06,-8.12515e-06,9.9014e-06,-1.76522e-06,0
-2.97023e-05,3.58908e-05,-1.09428e-05,8.37284e-06,1.10338e-05,-8.55709e-06,7.33459e-06,-2.75068e-06,0
-2.94061e-05,3.48734e-05,-1.01975e-05,9.50191e-06,1.17277e-05,-9.26043e-06,5.7047e-06,-2.75164e-06,0
-2.82864e-05,3.32098e-05,-8.25542e-06,1.08531e-05,1.15407e-05,-1.0242e-05,5.38597e-06,-2.11701e-06,0
-2.68716e-05,3.38581e-05,-6.10317e-06,9.86553e-06,1.1523e-05,-1.02776e-05,6.23837e-06,-1.8851e-06,0
-2.56862e-05,3.38564e-05,-5.35568e-06,4.26094e-06,1.14862e-05,-1.00303e-05,5.29023e-06,-3.05468e-06,0
-2.65931e-05,3.04304e-05,-5.52912e-06,-4.28543e-06,1.11682e-05,-1.05827e-05,2.39005e-06,-3.95221e-06,0
-2.89563e-05,2.47035e-05,-4.81553e-06,-1.10602e-05,9.53578e-06,-1.06747e-05,5.51256e-07,-2.83699e-06,0
-3.08749e-05,2.02428e-05,-2.76305e-06,-1.41126e-05,6.9947e-06,-9.64495e-06,3.18116e-06,-6.62656e-07,0
-3.09049e-05,1.70802e-05,-8.14989e-07,-1.2926e-05,5.81538e-06,-8.72054e-06,8.54038e-06,1.01131e-07,0
-2.94271e-05,1.35207e-05,-6.73506e-07,-9.35847e-06,5.57885e-06,-9.53014e-06,1.22357e-05,-7.85481e-07,0
-2.87662e-05,1.0636e-05,-2.1942e-06,-8.07556e-06,4.51413e-06,-1.12035e-05,1.27665e-05,-1.46043e-06,0
-3.03169e-05,1.15534e-05,-3.25374e-06,-1.09886e-05,2.22522e-06,-1.26778e-05,1.21275e-05,-1.25105e-06,0
-3.25511e-05,1.59089e-05,-3.11244e-06,-1.44404e-05,1.5607e-06,-1.35695e-05,1.15498e-05,-1.71425e-06,0
-3.24737e-05,2.08067e-05,-4.44296e-06,-1.59066e-05,3.44846e-06,-1.48453e-05,1.24027e-05,-2.63635e-06,0
-3.12105e-05,2.38555e-05,-7.76679e-06,-1.40913e-05,6.65668e-06,-1.45712e-05,1.59686e-05,-1.82999e-06,0
-3.15815e-05,2.50238e-05,-9.58178e-06,-9.94386e-06,9.31069e-06,-1.25438e-05,2.05254e-05,1.99698e-06,0
-3.20048e-05,2.45068e-05,-7.88752e-06,-4.0006e-06,1.22756e-05,-1.11098e-05,2.30459e-05,5.12815e-06,0
-3.19497e-05,2.59814e-05,-5.94753e-06,2.81192e-06,1.68533e-05,-1.13488e-05,2.28069e-05,5.26357e-06,0
-3.24182e-05,2.82975e-05,-4.31116e-06,8.99411e-06,2.10842e-05,-1.39499e-05,2.19999e-05,3.65292e-06,0
-3.3038e-05,2.71022e-05,-3.93496e-06,1.2828e-05,2.22993e-05,-1.5581e-05,2.1709e-05,2.19731e-06,0
-3.34826e-05,2.31327e-05,-6.67152e-06,1.01121e-05,2.04048e-05,-1.53289e-05,1.90951e-05,3.34912e-06,0
-3.4061e-05,1.96781e-05,-1.03578e-05,4.77772e-06,1.76936e-05,-1.37988e-05,1.49793e-05,5.68203e-06,0
-3.4103e-05,1.847e-05,-1.38394e-05,3.31696e-06,1.8161e-05,-1.20008e-05,1.36714e-05,6.59069e-06,0
-3.31102e-05,1.88303e-05,-1.77401e-05,3.37276e-06,1.97108e-05,-1.07631e-05,1.60814e-05,5.12826e-06,0
-3.2819e-05,1.92292e-05,-2.21805e-05,-6.63741e-07,1.79151e-05,-8.5044e-06,2.04514e-05,2.50505e-06,0
-3.20799e-05,1.83491e-05,-2.49273e-05,-4.62432e-06,1.49651e-05,-6.52518e-06,2.25361e-05,1.63404e-07,0
-3.17976e-05,1.69871e-05,-2.55254e-05,-4.82014e-06,1.4178e-05,-5.92668e-06,2.11674e-05,-1.39355e-06,0
-3.2642e-05,1.49306e-05,-2.46721e-05,-3.25586e-06,1.40247e-05,-6.07941e-06,1.84881e-05,-2.24804e-06,0
-3.41294e-05,1.26115e-05,-2.31972e-05,-1.07469e-06,1.37988e-05,-5.59065e-06,1.70212e-05,-1.5526e-06,0
-3.41992e-05,1.09693e-05,-2.09319e-05,2.4276e-06,1.463e-05,-4.78682e-06,1.54705e-05,-2.47421e-07,0
-3.26865e-05,1.05163e-05,-1.75382e-05,7.15512e-06,1.36514e-05,-3.99022e-06,1.27246e-05,8.58346e-07,0
-3.11377e-05,9.474e-06,-1.31821e-05,7.67151e-06,9.01441e-06,-3.58337e-06,9.58508e-06,1.45142e-06,0
-3.05047e-05,7.79697e-06,-9.6711e-06,1.81586e-06,3.14625e-06,-3.77232e-06,7.2109e-06,8.72492e-07,0
-3.18001e-05,7.47818e-06,-9.17407e-06,-6.6573e-06,-9.84614e-07,-4.44743e-06,6.76453e-06,8.51432e-08,0
-3.26901e-05,8.67667e-06,-9.39281e-06,-1.42182e-05,-2.61879e-06,-5.72054e-06,7.82815e-06,-3.00734e-07,0
-3.15962e-05,9.7542e-06,-8.17762e-06,-2.0164e-05,-2.12788e-06,-5.80295e-06,9.17555e-06,-6.70389e-07,0
-2.96647e-05,1.00531e-05,-6.7001e-06,-2.42421e-05,-8.37783e-07,-4.8194e-06,1.00408e-05,-1.0267e-06,0
-2.94438e-05,1.05633e-05,-6.54402e-06,-2.5316e-05,1.05376e-06,-4.36723e-06,9.95532e-06,-3.53534e-07,0
-2.96165e-05,1.15621e-05,-7.56162e-06,-2.17223e-05,3.998e-06,-4.58454e-06,7.00785e-06,5.68618e-07,0
-2.9304e-05,1.26703e-05,-8.98202e-06,-1.4265e-05,6.8615e-06,-5.0027e-06,1.70228e-06,-3.57039e-07,0
-2.86343e-05,1.22552e-05,-9.6762e-06,-6.96637e-06,7.79773e-06,-6.84632e-06,-1.65181e-06,-2.43508e-06,0
-2.81665e-05,1.11035e-05,-1.04408e-05,-2.63432e-06,9.2617e-06,-9.5064e-06,3.48511e-08,-1.36221e-06,0
-2.85838e-05,1.13037e-05,-1.03938e-05,9.77344e-07,1.37404e-05,-9.99061e-06,5.15878e-06,1.48083e-06,0
-2.89288e-05,1.21967e-05,-1.03813e-05,7.31544e-06,2.01738e-05,-8.86427e-06,1.02524e-05,3.64345e-06,0
-2.85307e-05,1.31864e-05,-1.01348e-05,1.54878e-05,2.56409e-05,-8.32066e-06,1.35128e-05,5.22304e-06,0
-2.77103e-05,1.38724e-05,-6.16499e-06,2.2531e-05,3.09678e-05,-7.60615e-06,1.57421e-05,5.05785e-06,0
-2.69937e-05,1.33152e-05,-1.87668e-06,2.43263e-05,3.61454e-05,-7.2412e-06,1.72954e-05,4.61574e-06,0
-2.76885e-05,1.14322e-05,-8.52933e-07,2.09388e-05,3.82981e-05,-6.83691e-06,1.63913e-05,3.22434e-06,0
-2.85596e-05,1.15409e-05,-8.79997e-07,1.7875e-05,3.67546e-05,-6.76814e-06,1.47293e-05,1.70055e-06,0
-2.80166e-05,1.42267e-05,-1.38664e-06,1.57624e-05,3.28768e-05,-7.89006e-06,1.48751e-05,6.93926e-07,0
-2.75951e-05,1.57345e-05,-2.45887e-06,1.27158e-05,3.01717e-05,-7.84768e-06,1.36108e-05,3.28949e-07,0
-2.88258e-05,1.59347e-05,-2.79048e-06,8.5942e-06,2.81743e-05,-6.38227e-06,1.12487e-05,7.18885e-07,0
-3.02672e-05,1.585e-05,-2.25906e-06,4.72876e-06,2.70565e-05,-5.12062e-06,1.00454e-05,1.30772e-06,0
-2.99529e-05,1.65355e-05,-1.58235e-06,6.58428e-07,2.70489e-05,-3.89907e-06,1.09483e-05,3.31926e-06,0
-2.89493e-05,1.91066e-05,-1.73019e-06,-1.96866e-06,2.62126e-05,-2.67146e-06,1.38791e-05,5.03886e-06,0
-2.92282e-05,2.23584e-05,-1.57454e-06,-8.86823e-07,2.31029e-05,-2.61087e-06,1.61506e-05,5.48166e-06,0
-3.08725e-05,2.47421e-05,-8.51717e-07,1.30049e-06,2.06306e-05,-3.19995e-06,1.56058e-05,4.84812e-06,0
-3.13714e-05,2.45551e-05,8.08567e-07,9.44673e-07,1.98494e-05,-3.27813e-06,1.33591e-05,4.99544e-06,0
-2.90767e-05,2.10975e-05,2.67792e-06,-3.13923e-06,1.87526e-05,-3.18592e-06,1.33357e-05,6.4618e-06,0
-2.67776e-05,1.68475e-05,2.94722e-06,-8.48992e-06,1.62417e-05,-3.32826e-06,1.39581e-05,8.5417e-06,0
-2.66059e-05,1.47798e-05,2.14598e-06,-1.38175e-05,1.36544e-05,-3.38452e-06,1.0183e-05,9.15697e-06,0
-2.74279e-05,1.65428e-05,1.27942e-06,-1.72958e-05,1.42219e-05,-2.77562e-06,5.78902e-09,7.08146e-06,0
-2.9049e-05,1.97687e-05,-3.65954e-08,-1.84686e-05,1.73769e-05,-1.73155e-06,-1.01037e-05,4.66531e-06,0
-3.13161e-05,2.06684e-05,-1.71546e-06,-1.74888e-05,2.00706e-05,-1.61934e-06,-1.19555e-05,2.29505e-06,0
-3.36359e-05,1.76957e-05,-2.29577e-06,-1.52301e-05,1.9671e-05,-2.79657e-06,-5.31715e-06,-5.65707e-07,0
-3.43803e-05,1.19478e-05,-1.48465e-06,-1.30773e-05,1.74687e-05,-5.11778e-06,3.41913e-06,-1.98851e-06,0
-3.3332e-05,6.30327e-06,1.20605e-07,-1.10916e-05,1.50871e-05,-8.01935e-06,1.06692e-05,-7.11028e-07,0
-3.28359e-05,3.43782e-06,2.65342e-06,-8.56811e-06,1.4822e-05,-9.94472e-06,1.71973e-05,1.67638e-06,0
-3.38211e-05,3.67769e-06,5.67452e-06,-5.68319e-06,1.58192e-05,-1.04546e-05,2.29177e-05,2.73538e-06,0
-3.28837e-05,6.28241e-06,9.85369e-06,-4.46023e-06,1.52071e-05,-1.10268e-05,2.63472e-05,3.08138e-06,0
-3.14786e-05,7.75801e-06,1.35467e-05,-4.54097e-06,1.31593e-05,-1.11752e-05,2.69189e-05,4.1711e-06,0
-3.10215e-05,4.42214e-06,1.03775e-05,-3.93775e-06,1.08032e-05,-9.81175e-06,2.62119e-05,3.77714e-06,0
-2.9818e-05,-9.9015e-09,1.66764e-06,-1.87613e-06,9.9802e-06,-9.0998e-06,2.34034e-05,2.52398e-06,0
-2.94891e-05,-2.70519e-06,-8.9455e-06,3.52708e-07,7.6405e-06,-9.59544e-06,2.10842e-05,3.13878e-06,0
-2.97158e-05,-3.30394e-06,-2.32463e-05,-4.48662e-07,3.1061e-06,-8.27423e-06,1.95799e-05,4.5402e-06,0
-2.94503e-05,-2.23656e-06,-3.80905e-05,-4.83076e-06,2.8377e-06,-5.99527e-06,1.75774e-05,3.7376e-06,0
-2.88816e-05,1.77381e-08,-4.6887e-05,-7.8319e-06,3.87225e-06,-3.80511e-06,1.60909e-05,3.10015e-06,0
-2.93265e-05,1.29977e-06,-4.58053e-05,-7.62425e-06,1.5202e-06,-3.25635e-06,1.32465e-05,1.26364e-06,0
-3.05728e-05,8.09703e-07,-3.59686e-05,-7.14692e-06,-1.60578e-06,-4.63666e-06,9.51382e-06,-1.41726e-06,0
-3.02745e-05,1.93771e-06,-2.53836e-05,-6.12402e-06,-3.7088e-06,-5.63241e-06,7.26688e-06,-2.17335e-06,0
-3.00042e-05,3.5266e-06,-1.82236e-05,-4.59901e-06,-5.8528e-06,-7.36279e-06,7.77606e-06,-1.93094e-06,0
-3.09223e-05,5.50745e-06,-1.30909e-05,-2.4565e-06,-8.25336e-06,-1.01018e-05,8.63206e-06,-5.03976e-07,0
-3.12008e-05,8.59562e-06,-7.55759e-06,4.57438e-07,-8.46378e-06,-1.30389e-05,8.51982e-06,4.10368e-07,0
-3.08149e-05,1.1491e-05,-2.48339e-06,3.88576e-06,-5.33635e-06,-1.43555e-05,8.98242e-06,9.41876e-07,0
-3.05354e-05,1.21474e-05,-8.51871e-08,7.52376e-06,-9.91558e-07,-1.38978e-05,1.13835e-05,8.54475e-07,0
-3.0773e-05,1.02858e-05,3.98821e-07,1.21125e-05,1.70911e-06,-1.36922e-05,1.50919e-05,-5.45087e-07,0
-3.16935e-05,7.83105e-06,6.64383e-07,1.89418e-05,2.92791e-06,-1.43767e-05,1.83237e-05,-2.06117e-06,0
-3.30072e-05,6.47727e-06,1.74688e-06,2.48367e-05,4.69939e-06,-1.43745e-05,2.08772e-05,-2.19611e-06,0
-3.36173e-05,7.00907e-06,7.14817e-07,2.5582e-05,8.96413e-06,-1.36063e-05,2.20169e-05,-2.61321e-06,0
-3.33309e-05,9.12572e-06,-3.97429e-06,1.92135e-05,1.46945e-05,-1.2768e-05,2.1814e-05,-3.11836e-06,0
-3.19335e-05,1.26986e-05,-1.06744e-05,9.13682e-06,1.86327e-05,-1.20712e-05,2.04992e-05,-2.14393e-06,0
-3.02985e-05,1.63929e-05,-1.75391e-05,-2.85564e-06,1.89956e-05,-1.1634e-05,1.89809e-05,-1.57845e-06,0
-2.97736e-05,1.83093e-05,-2.32724e-05,-1.69524e-05,1.72319e-05,-1.13592e-05,1.83369e-05,-3.27149e-06,0
-2.97732e-05,1.79814e-05,-2.5047e-05,-3.06838e-05,1.54777e-05,-1.06817e-05,1.70003e-05,-5.82285e-06,0
-2.87497e-05,1.66088e-05,-2.17557e-05,-4.05176e-05,1.44442e-05,-1.01028e-05,1.41017e-05,-7.96589e-06,0
-2.78263e-05,1.52054e-05,-1.60981e-05,-4.91351e-05,1.29226e-05,-1.21675e-05,1.23981e-05,-9.23701e-06,0
-2.80275e-05,1.4543e-05,-1.33265e-05,-5.94756e-05,1.0457e-05,-1.50831e-05,1.22945e-05,-8.40254e-06,0
-2.92503e-05,1.31894e-05,-1.41997e-05,-6.49673e-05,6.91154e-06,-1.53196e-05,1.23532e-05,-5.34231e-06,0
-3.12572e-05,1.19655e-05,-1.52135e-05,-5.94615e-05,3.72074e-06,-1.35992e-05,1.2178e-05,-3.44401e-06,0
-3.23181e-05,1.27028e-05,-1.68295e-05,-4.68745e-05,1.18108e-06,-1.2059e-05,1.21474e-05,-3.86228e-06,0
-3.17944e-05,1.48073e-05,-1.77456e-05,-3.5289e-05,-4.89145e-07,-1.04877e-05,1.31256e-05,-5.5719e-06,0
-3.00084e-05,1.69192e-05,-1.54909e-05,-2.8022e-05,2.82137e-06,-1.08586e-05,1.08028e-05,-7.22273e-06,0
-2.82609e-05,1.83912e-05,-1.0797e-05,-2.41746e-05,9.96378e-06,-1.36676e-05,-6.12238e-06,-6.40692e-06,0
-2.88001e-05,1.8102e-05,-5.45053e-06,-2.25246e-05,1.59955e-05,-1.59348e-05,-3.50218e-05,-4.75699e-06,0
-3.12739e-05,1.62128e-05,-1.96056e-06,-2.03311e-05,1.66019e-05,-1.58723e-05,-5.18529e-05,-2.71397e-06,0
-3.1407e-05,1.5317e-05,9.16155e-07,-1.58421e-05,1.27994e-05,-1.3692e-05,-4.35008e-05,-1.8997e-06,0
-2.98285e-05,1.5105e-05,6.15016e-06,-1.09661e-05,1.02768e-05,-1.13357e-05,-1.84724e-05,-2.69643e-06,0
-2.95714e-05,1.37436e-05,1.45831e-05,-6.85237e-06,1.06e-05,-1.00232e-05,7.48536e-06,-3.90442e-06,0
-3.00989e-05,1.19393e-05,2.69575e-05,-4.5079e-06,1.34119e-05,-9.58115e-06,2.71699e-05,-4.85468e-06,0
-2.99455e-05,1.0902e-05,3.88696e-05,-3.13503e-06,1.82125e-05,-8.83736e-06,3.94055e-05,-5.45607e-06,0
-2.929e-05,9.82385e-06,4.28485e-05,-2.11995e-06,2.29121e-05,-9.30253e-06,4.50989e-05,-4.76076e-06,0
-2.89552e-05,8.38276e-06,3.59401e-05,-1.65275e-06,2.44649e-05,-1.11511e-05,4.71803e-05,-1.74172e-06,0
-2.93055e-05,8.25511e-06,1.80105e-05,-2.05912e-06,2.20119e-05,-1.29672e-05,4.63968e-05,1.23717e-06,0
-2.98532e-05,9.61321e-06,-6.54364e-06,-2.28569e-06,1.72633e-05,-1.31147e-05,4.23544e-05,2.96426e-06,0
-3.01423e-05,9.6177e-06,-3.00517e-05,-2.90681e-06,1.32135e-05,-1.15056e-05,3.59032e-05,3.80073e-06,0
-3.05046e-05,8.3002e-06,-4.68959e-05,-3.68551e-06,1.23305e-05,-9.89375e-06,3.08668e-05,4.52652e-06,0
-3.04831e-05,8.04824e-06,-5.33382e-05,-1.09579e-06,1.40301e-05,-8.4164e-06,2.80223e-05,5.87197e-06,0
-2.94772e-05,9.59149e-06,-5.02578e-05,4.88352e-06,1.53121e-05,-7.7768e-06,2.61093e-05,6.35722e-06,0
-2.74462e-05,1.05812e-05,-4.18704e-05,1.08308e-05,1.34923e-05,-8.62368e-06,2.50113e-05,4.94798e-06,0
-2.62227e-05,9.83809e-06,-3.18606e-05,1.41055e-05,1.00492e-05,-1.08455e-05,2.51829e-05,3.88525e-06,0
-2.61216e-05,9.6558e-06,-2.36225e-05,1.39169e-05,7.54174e-06,-1.32838e-05,2.55283e-05,3.78254e-06,0
-2.58345e-05,1.02816e-05,-1.79477e-05,1.13136e-05,5.74628e-06,-1.30714e-05,2.43864e-05,4.43978e-06,0
-2.46769e-05,8.77597e-06,-1.22906e-05,8.76388e-06,2.73776e-06,-1.04261e-05,2.23488e-05,4.96024e-06,0
-2.48021e-05,6.02542e-06,-6.75929e-06,8.17231e-06,1.1721e-06,-9.05934e-06,2.16824e-05,3.82406e-06,0
-2.75947e-05,5.15449e-06,-3.74935e-06,7.70481e-06,2.48424e-06,-7.26639e-06,2.19848e-05,2.42053e-06,0
-3.12033e-05,5.53661e-06,-3.78903e-06,4.16316e-06,3.59303e-06,-5.5316e-06,2.25813e-05,3.32915e-06,0
-3.25238e-05,5.81896e-06,-3.37765e-06,1.80603e-06,4.86164e-06,-6.63816e-06,2.13617e-05,3.68814e-06,0
-3.2294e-05,6.96758e-06,-3.29623e-06,1.22083e-06,7.28529e-06,-7.73456e-06,1.7777e-05,4.04849e-06,0
-3.15859e-05,9.90442e-06,-4.96322e-06,9.93701e-07,1.06264e-05,-7.30386e-06,1.15902e-05,6.61168e-06,0
-3.0168e-05,1.3414e-05,-6.48837e-06,1.0616e-06,1.48924e-05,-6.57331e-06,4.39899e-06,7.20665e-06,0
-3.00661e-05,1.34546e-05,-7.47906e-06,1.28587e-06,2.06957e-05,-5.27027e-06,2.96424e-06,5.17867e-06,0
-2.95917e-05,1.14438e-05,-9.29869e-06,3.75475e-06,2.60442e-05,-3.64744e-06,6.71404e-06,2.37497e-06,0
-2.95256e-05,1.27148e-05,-1.26232e-05,7.30191e-06,2.70685e-05,-3.76933e-06,1.07444e-05,1.15734e-06,0
-3.10045e-05,1.58766e-05,-1.54702e-05,1.127e-05,2.49151e-05,-4.81841e-06,1.16898e-05,3.08121e-06,0
-3.25481e-05,1.8083e-05,-1.70443e-05,1.35373e-05,2.42404e-05,-5.29081e-06,1.19163e-05,5.76311e-06,0
-3.34605e-05,1.76288e-05,-1.49508e-05,1.46446e-05,2.44835e-05,-5.6741e-06,1.59759e-05,7.74175e-06,0
-3.34754e-05,1.53389e-05,-1.03243e-05,1.67046e-05,2.41038e-05,-5.25636e-06,2.39686e-05,8.43867e-06,0
-3.28258e-05,1.41672e-05,-5.56173e-06,1.88832e-05,2.38004e-05,-4.85451e-06,3.1544e-05,7.36689e-06,0
-3.11665e-05,1.48855e-05,-1.43393e-06,2.01796e-05,2.31575e-05,-5.26477e-06,3.68691e-05,5.65039e-06,0
-2.84491e-05,1.56034e-05,2.65414e-06,2.13626e-05,2.29966e-05,-5.61554e-06,3.91708e-05,3.9532e-06,0
-2.68373e-05,1.522e-05,8.53989e-06,2.13087e-05,2.33371e-05,-5.56446e-06,3.61405e-05,3.60641e-06,0
-2.76719e-05,1.42601e-05,1.86629e-05,1.68556e-05,2.33666e-05,-5.57303e-06,2.89463e-05,5.49157e-06,0
-2.87596e-05,1.24446e-05,3.31408e-05,6.19759e-06,2.16904e-05,-4.7809e-06,1.89591e-05,7.78306e-06,0
-2.88597e-05,9.11837e-06,4.92159e-05,-9.5337e-06,1.91432e-05,-2.06315e-06,5.39511e-06,7.11931e-06,0
-2.93336e-05,5.65368e-06,6.23983e-05,-2.43553e-05,1.85164e-05,-1.42638e-08,-1.14643e-05,4.54292e-06,0
-3.03379e-05,3.13953e-06,6.46673e-05,-3.21836e-05,1.9266e-05,-7.13326e-07,-2.66245e-05,2.69329e-06,0
-2.99904e-05,1.85715e-06,5.1035e-05,-3.04696e-05,1.93373e-05,-2.88262e-06,-3.47474e-05,1.6867e-06,0
-2.84773e-05,1.83694e-06,2.31566e-05,-2.18375e-05,1.93007e-05,-3.57696e-06,-3.53683e-05,9.56253e-07,0
-2.83348e-05,1.93039e-06,-1.24034e-05,-1.0989e-05,1.96082e-05,-2.89424e-06,-3.17043e-05,3.77222e-07,0
-3.06651e-05,2.30079e-06,-4.67045e-05,-3.53277e-06,2.02544e-05,-3.05645e-06,-2.56067e-05,6.32373e-07,0
-3.23891e-05,2.67237e-06,-7.17208e-05,-1.85029e-06,2.09773e-05,-6.08374e-06,-2.09099e-05,1.79552e-06,0
-3.25845e-05,3.77672e-06,-8.10386e-05,-2.83447e-06,2.21373e-05,-1.10603e-05,-2.36324e-05,3.06485e-06,0
-3.29931e-05,6.01162e-06,-7.45646e-05,-3.76377e-06,2.33674e-05,-1.49743e-05,-3.01059e-05,4.32802e-06,0
-3.32605e-05,6.51041e-06,-5.9518e-05,-6.53395e-06,2.23487e-05,-1.63353e-05,-2.83182e-05,4.01102e-06,0
-3.15042e-05,5.74495e-06,-4.29855e-05,-1.02277e-05,1.97608e-05,-1.70308e-05,-1.51379e-05,4.151e-07,0
-3.0515e-05,7.0922e-06,-2.99156e-05,-1.18673e-05,1.75234e-05,-1.80867e-05,3.42793e-06,-2.14638e-06,0
-3.21133e-05,9.60963e-06,-2.2034e-05,-1.32407e-05,1.62691e-05,-1.87133e-05,2.00118e-05,-1.01526e-06,0
-3.34907e-05,1.0052e-05,-1.92209e-05,-1.4183e-05,1.38605e-05,-1.88382e-05,3.078e-05,1.09792e-06,0
-3.44569e-05,9.91862e-06,-1.89672e-05,-1.40139e-05,1.12163e-05,-1.69647e-05,3.67978e-05,2.22173e-06,0
-3.43458e-05,1.18622e-05,-2.09145e-05,-1.53083e-05,1.05235e-05,-1.53028e-05,4.00362e-05,2.56544e-06,0
-3.35147e-05,1.51131e-05,-2.18536e-05,-1.89118e-05,1.14199e-05,-1.53529e-05,4.03581e-05,2.28383e-06,0
-3.20535e-05,1.83071e-05,-2.125e-05,-2.09073e-05,1.45745e-05,-1.6791e-05,3.62553e-05,2.56396e-06,0
-2.96966e-05,1.97957e-05,-1.99359e-05,-1.88002e-05,1.8808e-05,-1.78922e-05,2.98174e-05,3.44213e-06,0
-2.79576e-05,1.85747e-05,-1.67716e-05,-1.45468e-05,2.33403e-05,-1.7814e-05,2.41453e-05,4.20349e-06,0
-2.75575e-05,1.56205e-05,-1.33349e-05,-9.27784e-06,2.96111e-05,-1.71093e-05,2.08362e-05,3.90741e-06,0
-2.77256e-05,1.2178e-05,-1.09047e-05,-3.82484e-06,3.52985e-05,-1.45542e-05,1.88672e-05,2.54232e-06,0
-2.97577e-05,8.51764e-06,-1.01611e-05,-6.0405e-07,3.73246e-05,-1.17819e-05,1.68296e-05,1.0997e-06,0
-3.25806e-05,4.90083e-06,-9.18995e-06,9.01506e-09,3.42949e-05,-1.03651e-05,1.46505e-05,-5.97845e-07,0
-3.38354e-05,2.5849e-06,-8.01221e-06,1.72982e-07,2.78261e-05,-1.05166e-05,1.31169e-05,-2.07716e-06,0
-3.36424e-05,4.51855e-06,-6.9481e-06,4.94034e-07,2.25097e-05,-1.20224e-05,1.1745e-05,-3.49389e-06,0
-3.26779e-05,1.03447e-05,-5.95461e-06,6.11361e-07,2.09737e-05,-1.40394e-05,1.04105e-05,-4.57714e-06,0
-3.23811e-05,1.49442e-05,-4.66331e-06,8.59844e-07,2.1237e-05,-1.4842e-05,1.01904e-05,-5.83831e-06,0
-3.19963e-05,1.53029e-05,-3.55392e-06,1.17574e-06,2.12657e-05,-1.45085e-05,1.10631e-05,-6.67511e-06,0
-3.05424e-05,1.35706e-05,-2.72668e-06,2.07681e-06,2.10424e-05,-1.40172e-05,1.17291e-05,-5.94911e-06,0
-2.91739e-05,1.20049e-05,-2.64533e-06,4.11848e-06,1.96449e-05,-1.34108e-05,1.1077e-05,-4.44302e-06,0
-2.88604e-05,1.13463e-05,-2.00999e-06,5.6802e-06,1.81719e-05,-1.25575e-05,1.10661e-05,-3.48266e-06,0
-2.87091e-05,1.08263e-05,-1.95781e-06,3.27017e-06,1.69123e-05,-1.24755e-05,1.44155e-05,-2.95743e-06,0
-2.87581e-05,1.0934e-05,-2.57155e-06,-2.23736e-06,1.56289e-05,-1.24683e-05,2.11561e-05,-2.05116e-06,0
-2.92876e-05,1.19439e-05,-1.33861e-06,-7.28954e-06,1.32461e-05,-1.03221e-05,2.68127e-05,4.39927e-08,0
-2.95913e-05,1.16061e-05,-4.50325e-07,-1.04442e-05,8.505e-06,-7.34079e-06,2.85392e-05,2.65314e-06,0
-2.88201e-05,1.15533e-05,-1.08749e-06,-1.20526e-05,3.83902e-06,-5.72111e-06,2.04654e-05,2.60464e-06,0
-2.86053e-05,1.18755e-05,-2.56704e-06,-1.68827e-05,6.36227e-07,-6.08841e-06,3.74358e-06,-3.52304e-07,0
-2.95402e-05,1.06654e-05,-2.25684e-06,-2.26695e-05,-3.37317e-06,-7.05051e-06,-8.15654e-06,-2.00338e-06,0
-2.9285e-05,6.26227e-06,5.86498e-07,-2.42025e-05,-7.45741e-06,-9.09959e-06,-1.11439e-05,-3.58033e-07,0
-2.75185e-05,2.40062e-06,3.19057e-06,-2.24716e-05,-9.56215e-06,-1.07841e-05,-1.08938e-05,1.04916e-06,0
-2.73633e-05,1.20229e-06,3.10389e-06,-1.84971e-05,-1.00459e-05,-1.0398e-05,-1.41027e-05,5.74594e-07,0
-2.99652e-05,-1.38508e-08,1.81454e-07,-1.48773e-05,-1.08019e-05,-9.91055e-06,-1.89252e-05,6.137e-07,0
-3.15925e-05,-1.04481e-06,-3.36758e-06,-1.02061e-05,-1.21558e-05,-9.30437e-06,-1.90864e-05,9.10861e-07,0
-3.12757e-05,-2.44861e-06,-6.85194e-06,-3.07606e-06,-1.08609e-05,-8.55749e-06,-1.32955e-05,-1.79432e-07,0
-3.00628e-05,-2.58503e-06,-8.56368e-06,4.55335e-06,-7.6854e-06,-8.66268e-06,-6.19961e-06,-2.06262e-06,0
-2.94753e-05,1.02629e-07,-9.04371e-06,9.83644e-06,-5.25498e-06,-9.70656e-06,-6.9879e-07,-3.15787e-06,0
-3.22945e-05,4.84415e-06,-9.27381e-06,9.68947e-06,-3.50155e-06,-9.59392e-06,4.17276e-06,-2.4268e-06,0
-3.55186e-05,9.99895e-06,-8.65419e-06,4.67779e-06,-2.184e-06,-7.88554e-06,9.9934e-06,-1.30373e-06,0
-3.60549e-05,1.40461e-05,-8.10444e-06,-1.55927e-06,-7.70198e-07,-6.80577e-06,1.61912e-05,-1.54545e-06,0
-3.49521e-05,1.533e-05,-8.79744e-06,-6.25606e-06,-7.95031e-08,-7.38463e-06,2.0432e-05,-2.62754e-06,0
-3.33746e-05,1.47228e-05,-1.01905e-05,-9.61427e-06,-6.44083e-07,-8.76117e-06,2.3815e-05,-2.38186e-06,0
-3.26635e-05,1.46068e-05,-1.00571e-05,-1.12788e-05,-1.24055e-06,-9.62949e-06,2.84465e-05,-1.37775e-06,0
-3.30935e-05,1.60262e-05,-8.80789e-06,-8.53039e-06,2.97853e-07,-9.11322e-06,3.25857e-05,-1.00719e-06,0
-3.35352e-05,1.83453e-05,-6.97692e-06,-1.51535e-07,4.55662e-06,-7.40201e-06,3.1316e-05,-3.20262e-07,0
-3.37582e-05,2.00035e-05,-6.14819e-06,9.05792e-06,9.58795e-06,-5.49073e-06,2.25841e-05,1.60078e-06,0
-3.3775e-05,2.07312e-05,-6.151e-06,1.34729e-05,1.31965e-05,-3.80968e-06,5.15879e-06,2.70807e-06,0
-3.26357e-05,2.06968e-05,-5.69307e-06,1.2758e-05,1.4955e-05,-2.8479e-06,-1.47284e-05,2.60838e-06,0
-3.22823e-05,2.02278e-05,-5.64039e-06,8.31042e-06,1.61869e-05,-1.37666e-06,-2.29046e-05,3.34141e-06,0
-3.30394e-05,1.84461e-05,-6.07144e-06,-2.85494e-08,1.60934e-05,-2.45392e-07,-1.36949e-05,4.48771e-06,0
-3.32351e-05,1.82465e-05,-5.95482e-06,-9.98596e-06,1.41556e-05,-1.01496e-06,5.21194e-06,5.42474e-06,0
-3.30374e-05,2.35339e-05,-6.73437e-06,-1.64238e-05,1.20898e-05,-2.06927e-06,2.43732e-05,7.26986e-06,0
-3.24936e-05,2.97466e-05,-7.0069e-06,-1.60386e-05,1.05906e-05,-1.9729e-06,3.83459e-05,8.82028e-06,0
-3.09494e-05,3.7418e-05,-7.32341e-06,-1.14376e-05,9.8497e-06,-3.81107e-07,4.68866e-05,8.25203e-06,0
-2.88178e-05,4.74577e-05,-9.84585e-06,-1.06173e-05,9.94266e-06,2.69961e-07,4.90581e-05,7.93064e-06,0
-2.72468e-05,5.29633e-05,-1.10876e-05,-1.54845e-05,7.97741e-06,-6.85942e-07,4.79882e-05,6.61069e-06,0
-2.62254e-05,5.20752e-05,-9.67743e-06,-2.0849e-05,4.78308e-06,-1.86139e-06,4.64994e-05,4.6682e-06,0
-2.64256e-05,4.50952e-05,-6.51079e-06,-2.4385e-05,3.72571e-06,-1.70892e-06,4.28454e-05,3.39585e-06,0
-2.79119e-05,3.28545e-05,-3.74418e-06,-2.6415e-05,4.07149e-06,-8.41754e-07,3.85819e-05,2.35577e-06,0
-2.77899e-05,1.30679e-05,-2.52816e-06,-2.85167e-05,3.88818e-06,-1.55993e-06,3.46721e-05,1.98609e-06,0
-2.59181e-05,-7.49576e-06,-1.82841e-06,-2.91887e-05,3.13798e-06,-2.06557e-06,3.13846e-05,2.41318e-06,0
-2.58145e-05,-1.71929e-05,-1.67943e-06,-2.5875e-05,2.16836e-06,-1.79742e-06,2.76485e-05,3.04532e-06,0
-2.74401e-05,-1.73455e-05,-2.14053e-06,-1.98307e-05,1.35442e-06,-1.12058e-06,2.57813e-05,1.67945e-06,0
-2.76866e-05,-1.02125e-05,-3.65542e-06,-1.37448e-05,2.40153e-06,3.44081e-08,2.53404e-05,3.17855e-08,0
-2.64326e-05,7.86207e-07,-5.79912e-06,-6.48013e-06,4.86095e-06,2.48227e-06,2.42822e-05,6.41432e-08,0
-2.46994e-05,9.18532e-06,-7.01943e-06,2.71198e-06,6.51878e-06,4.83628e-06,2.126e-05,6.07573e-07,0
-2.30676e-05,1.15556e-05,-6.59744e-06,1.04753e-05,6.87814e-06,4.44545e-06,1.6829e-05,1.62966e-09,0
-2.29683e-05,1.03649e-05,-5.5749e-06,1.45771e-05,7.01716e-06,1.63513e-06,1.23023e-05,-5.90528e-07,0
-2.43541e-05,8.05845e-06,-5.74637e-06,1.56375e-05,7.26628e-06,-1.24452e-06,9.23047e-06,-1.52621e-07,0
-2.61969e-05,3.84418e-06,-6.49712e-06,1.59685e-05,8.78166e-06,-2.03444e-06,9.196e-06,6.41169e-07,0
