ch1,ch2,ch3,ch4,ch5,ch6,ch7,ch8,class
-3.0442e-05,8.35745e-06,-7.22787e-06,-5.71715e-06,1.72338e-06,-1.40359e-05,9.28234e-06,-4.29037e-06,0
-3.03372e-05,1.07437e-05,-7.9322e-06,-4.89025e-06,1.92861e-06,-1.44038e-05,9.71293e-06,-2.75762e-06,0
-2.96403e-05,1.4272e-05,-9.20178e-06,-3.89279e-06,2.97274e-06,-1.41279e-05,9.21119e-06,-2.17913e-06,0
-2.87973e-05,1.72313e-05,-1.01696e-05,-1.97409e-06,3.63853e-06,-1.25437e-05,7.74287e-06,-1.01894e-06,0
-2.9189e-05,1.8088e-05,-1.01717e-05,1.1514e-06,4.63596e-06,-1.11395e-05,7.29744e-06,5.56578e-07,0
-2.97632e-05,1.8744e-05,-9.1457e-06,8.9375e-06,4.93233e-06,-1.12319e-05,7.90252e-06,2.17062e-06,0
-3.03182e-05,2.11845e-05,-7.29412e-06,2.28677e-05,3.59875e-06,-1.17557e-05,7.50615e-06,4.62799e-06,0
-3.08763e-05,2.38071e-05,-5.074e-06,3.59342e-05,3.75726e-06,-1.21891e-05,6.53839e-06,6.54837e-06,0
-3.11664e-05,2.52551e-05,-2.37281e-06,3.95035e-05,4.49546e-06,-1.18965e-05,6.66994e-06,6.41325e-06,0
-3.06025e-05,2.55485e-05,-2.83661e-07,3.22213e-05,5.60967e-06,-1.01829e-05,7.43382e-06,6.73943e-06,0
-2.9984e-05,2.63664e-05,-7.66146e-07,2.00627e-05,7.56088e-06,-8.86014e-06,8.35588e-06,8.12134e-06,0
-2.98695e-05,2.74642e-05,-1.02533e-06,7.80429e-06,1.05537e-05,-6.88388e-06,1.0005e-05,9.46741e-06,0
-2.881e-05,2.78413e-05,-1.21285e-07,-5.05847e-06,1.36985e-05,-4.08667e-06,9.5815e-06,9.92447e-06,0
-2.83658e-05,2.65431e-05,1.94357e-07,-1.81517e-05,1.39742e-05,-3.23757e-06,7.7448e-06,9.41231e-06,0
-2.87232e-05,2.30904e-05,2.83698e-07,-2.64968e-05,1.06038e-05,-5.23609e-06,6.96522e-06,8.57504e-06,0
-2.8669e-05,2.1395e-05,1.12325e-06,-2.88342e-05,6.67247e-06,-8.00579e-06,7.78396e-06,7.85764e-06,0
-2.73643e-05,2.22346e-05,1.99518e-06,-3.1246e-05,6.1255e-06,-8.42767e-06,8.02678e-06,7.74206e-06,0
-2.56984e-05,2.33277e-05,8.21284e-07,-3.9102e-05,6.48202e-06,-7.1072e-06,7.40941e-06,6.51833e-06,0
-2.52899e-05,2.28808e-05,5.33589e-07,-4.72573e-05,6.36449e-06,-5.38821e-06,8.7066e-06,4.7855e-06,0
-2.58924e-05,2.17284e-05,3.4625e-08,-4.6954e-05,6.37739e-06,-4.52814e-06,1.05707e-05,5.18233e-06,0
-2.69322e-05,2.11672e-05,-3.22286e-06,-3.7575e-05,7.07181e-06,-4.60359e-06,1.31101e-05,6.83419e-06,0
-2.71922e-05,2.09821e-05,-8.14186e-06,-2.47884e-05,8.51129e-06,-5.06276e-06,1.5328e-05,7.68209e-06,0
-2.74432e-05,1.99918e-05,-1.20334e-05,-1.6864e-05,9.26852e-06,-6.3082e-06,1.6997e-05,7.50147e-06,0
-2.84722e-05,1.73738e-05,-1.45285e-05,-1.5253e-05,7.73271e-06,-9.34428e-06,1.84739e-05,6.71835e-06,0
-2.93598e-05,1.45042e-05,-1.72206e-05,-1.52267e-05,5.56085e-06,-1.29291e-05,1.95991e-05,6.65916e-06,0
-2.9488e-05,1.3028e-05,-1.97076e-05,-1.3126e-05,6.22974e-06,-1.41565e-05,1.88598e-05,7.47809e-06,0
-2.97671e-05,1.31498e-05,-2.13739e-05,-8.35535e-06,9.42946e-06,-1.35086e-05,1.75342e-05,7.96912e-06,0
-2.96441e-05,1.26382e-05,-2.29173e-05,-2.12257e-06,1.28795e-05,-1.21453e-05,1.70441e-05,7.59301e-06,0
-2.84364e-05,1.17407e-05,-2.48524e-05,3.28809e-06,1.41797e-05,-1.16602e-05,1.66275e-05,8.34129e-06,0
-2.80735e-05,1.16891e-05,-2.59974e-05,5.86272e-06,1.43392e-05,-1.26224e-05,1.59884e-05,1.07351e-05,0
-2.85863e-05,1.16096e-05,-2.58284e-05,6.57856e-06,1.49505e-05,-1.34574e-05,1.57569e-05,1.20017e-05,0
-2.8191e-05,1.26384e-05,-2.34319e-05,5.91543e-06,1.51666e-05,-1.36319e-05,1.58863e-05,9.99009e-06,0
-2.85792e-05,1.53312e-05,-1.92996e-05,1.61925e-06,1.43996e-05,-1.41112e-05,1.54047e-05,6.62819e-06,0
-3.06386e-05,1.59036e-05,-1.54166e-05,-5.00432e-06,1.29055e-05,-1.46804e-05,1.58447e-05,5.20489e-06,0
-3.25654e-05,1.44834e-05,-1.27768e-05,-1.07248e-05,1.24841e-05,-1.43959e-05,1.67663e-05,4.75674e-06,0
-3.3686e-05,1.53302e-05,-1.1888e-05,-1.44034e-05,1.32207e-05,-1.36191e-05,1.61233e-05,4.5157e-06,0
-3.50943e-05,1.94163e-05,-1.32574e-05,-1.38414e-05,1.22389e-05,-1.33103e-05,1.44814e-05,5.59871e-06,0
-3.5487e-05,2.18011e-05,-1.46906e-05,-7.95443e-06,1.06973e-05,-1.26029e-05,1.28951e-05,6.17211e-06,0
-3.37364e-05,2.13737e-05,-1.42672e-05,-8.42083e-08,1.05702e-05,-1.26969e-05,1.19751e-05,4.83759e-06,0
-3.14678e-05,2.01399e-05,-1.48497e-05,4.12177e-06,1.15129e-05,-1.18891e-05,1.26453e-05,4.44689e-06,0
-3.0401e-05,1.73852e-05,-1.64466e-05,4.589e-06,1.27094e-05,-1.00865e-05,1.32216e-05,3.26732e-06,0
-3.18564e-05,1.4776e-05,-1.58248e-05,4.08966e-06,1.23872e-05,-9.99501e-06,1.45085e-05,2.64285e-07,0
-3.2636e-05,1.46906e-05,-1.35442e-05,3.72459e-06,1.20221e-05,-9.63456e-06,1.66568e-05,-2.14208e-06,0
-3.25179e-05,1.53641e-05,-1.09701e-05,3.03442e-06,1.31005e-05,-7.66731e-06,1.70944e-05,-3.02723e-06,0
-3.17669e-05,1.45048e-05,-1.03789e-05,-1.01225e-06,1.42573e-05,-3.84803e-06,1.76607e-05,-2.95046e-06,0
-3.12447e-05,1.17359e-05,-1.15183e-05,-8.34958e-06,1.5038e-05,-1.2972e-06,1.96574e-05,-4.72588e-06,0
-3.11242e-05,8.5534e-06,-1.13878e-05,-1.55571e-05,1.63469e-05,-6.53861e-07,2.16271e-05,-7.9251e-06,0
-2.97433e-05,6.53757e-06,-1.00171e-05,-2.08251e-05,1.85189e-05,-1.29578e-06,2.28932e-05,-1.09172e-05,0
-2.83298e-05,6.69781e-06,-8.60156e-06,-2.34676e-05,2.03148e-05,-2.35418e-06,2.23911e-05,-1.21447e-05,0
-2.79898e-05,9.21044e-06,-8.49854e-06,-2.37801e-05,2.06208e-05,-3.05247e-06,2.0206e-05,-1.19237e-05,0
-2.92111e-05,1.1518e-05,-9.60503e-06,-2.14249e-05,1.97082e-05,-3.83151e-06,1.87759e-05,-1.126e-05,0
-3.03052e-05,1.24087e-05,-1.15148e-05,-1.56152e-05,1.81341e-05,-5.26827e-06,1.88244e-05,-1.06752e-05,0
-3.02403e-05,1.29877e-05,-1.29327e-05,-7.70141e-06,1.64786e-05,-6.2426e-06,1.82178e-05,-1.05418e-05,0
-2.98379e-05,1.43731e-05,-1.23379e-05,-1.29145e-06,1.53077e-05,-5.33951e-06,1.64965e-05,-1.07514e-05,0
-3.0423e-05,1.4737e-05,-9.62891e-06,1.27664e-06,1.50533e-05,-4.49246e-06,1.45391e-05,-9.65792e-06,0
-3.10552e-05,1.31935e-05,-7.07769e-06,3.20948e-07,1.50788e-05,-6.3562e-06,1.42548e-05,-6.93079e-06,0
-3.0538e-05,1.21796e-05,-7.29719e-06,-2.10257e-06,1.46178e-05,-1.01737e-05,1.61851e-05,-5.2925e-06,0
-2.93008e-05,1.40707e-05,-8.26478e-06,-2.83888e-06,1.37714e-05,-1.35509e-05,1.69785e-05,-5.00224e-06,0
-2.92262e-05,1.77079e-05,-7.64723e-06,-2.31994e-06,1.23471e-05,-1.54376e-05,1.65128e-05,-4.34684e-06,0
-2.99077e-05,2.01533e-05,-6.1893e-06,-3.61178e-06,1.18976e-05,-1.3808e-05,1.70397e-05,-2.9727e-06,0
-2.92124e-05,1.89404e-05,-4.83309e-06,-9.20243e-06,1.24905e-05,-1.04703e-05,1.71184e-05,-3.20995e-06,0
-2.87521e-05,1.51073e-05,-4.59027e-06,-1.65603e-05,1.37052e-05,-7.97254e-06,1.60773e-05,-3.32801e-06,0
-3.01889e-05,1.2018e-05,-6.83797e-06,-1.75819e-05,1.68466e-05,-9.17892e-06,1.63887e-05,-2.53089e-06,0
-3.02777e-05,1.07714e-05,-8.31155e-06,-9.11413e-06,1.94864e-05,-1.17289e-05,1.78488e-05,-1.05826e-06,0
-2.93613e-05,9.46481e-06,-6.73086e-06,2.8809e-06,1.92988e-05,-1.18528e-05,1.67412e-05,2.47998e-06,0
-2.83394e-05,9.37343e-06,-5.01041e-06,1.04386e-05,1.84298e-05,-1.18049e-05,1.50588e-05,4.45142e-06,0
-2.6135e-05,1.01619e-05,-2.77491e-06,1.45531e-05,1.89801e-05,-1.22158e-05,1.41749e-05,4.45065e-06,0
-2.65217e-05,1.04173e-05,-1.90566e-06,1.99939e-05,1.88546e-05,-1.19067e-05,1.23817e-05,4.14884e-06,0
-2.89906e-05,1.14961e-05,-2.79542e-06,2.62932e-05,1.62889e-05,-1.1496e-05,1.16665e-05,3.43775e-06,0
-3.03661e-05,1.29673e-05,-2.86012e-06,2.82962e-05,1.4546e-05,-1.19335e-05,1.17919e-05,3.49728e-06,0
-3.04305e-05,1.28101e-05,-3.09963e-06,2.38951e-05,1.51703e-05,-1.36348e-05,1.26027e-05,3.70343e-06,0
-3.00217e-05,1.07595e-05,-1.60141e-06,1.71525e-05,1.6457e-05,-1.63376e-05,1.38725e-05,3.60748e-06,0
-2.93395e-05,1.09657e-05,5.90263e-07,1.08526e-05,1.71408e-05,-1.81743e-05,1.38405e-05,3.07202e-06,0
-2.96848e-05,1.494e-05,1.01902e-06,6.65965e-06,1.64704e-05,-1.70155e-05,1.17698e-05,3.4203e-06,0
-3.09335e-05,2.0387e-05,-7.10174e-07,3.65085e-06,1.43089e-05,-1.38587e-05,9.76735e-06,5.11411e-06,0
-3.20329e-05,2.27446e-05,-2.47629e-06,2.51829e-07,1.29716e-05,-1.17947e-05,8.67777e-06,6.07034e-06,0
-3.36552e-05,2.06185e-05,-2.76504e-06,-3.32044e-06,1.35165e-05,-1.14553e-05,6.57775e-06,5.28321e-06,0
-3.514e-05,1.69903e-05,-3.13907e-06,-5.4154e-06,1.39198e-05,-1.31668e-05,2.72777e-06,4.09724e-06,0
-3.51231e-05,1.72702e-05,-4.45678e-06,-5.31499e-06,1.43875e-05,-1.51729e-05,-4.44209e-06,3.24782e-06,0
-3.42215e-05,2.16239e-05,-5.83837e-06,-3.98209e-06,1.54009e-05,-1.48566e-05,-1.50308e-05,3.2298e-06,0
-3.39044e-05,2.40667e-05,-5.62817e-06,-3.90321e-06,1.59665e-05,-1.2136e-05,-2.22813e-05,4.59669e-06,0
-3.40976e-05,2.22983e-05,-4.59959e-06,-6.49988e-06,1.56863e-05,-9.91635e-06,-2.04901e-05,5.3455e-06,0
-3.38794e-05,2.03411e-05,-3.06182e-06,-9.0169e-06,1.43296e-05,-1.06778e-05,-1.24908e-05,3.40995e-06,0
-3.36003e-05,2.02271e-05,-7.47346e-07,-8.32118e-06,1.14403e-05,-1.28254e-05,-1.73044e-06,1.18387e-07,0
-3.43798e-05,1.97472e-05,1.23789e-06,-4.93703e-06,9.38514e-06,-1.40389e-05,1.11456e-05,-1.11053e-07,0
-3.40733e-05,1.8015e-05,3.82243e-07,-3.42147e-06,8.93416e-06,-1.34114e-05,2.41889e-05,2.73022e-06,0
-3.27224e-05,1.5674e-05,-2.24597e-06,-5.33137e-06,8.02399e-06,-1.07575e-05,3.51804e-05,4.49115e-06,0
-3.20543e-05,1.42789e-05,-3.56238e-06,-6.42506e-06,7.71677e-06,-9.50827e-06,4.22236e-05,3.67034e-06,0
-3.11704e-05,1.36584e-05,-4.09068e-06,-5.44661e-06,9.06255e-06,-9.91783e-06,4.41578e-05,1.91997e-06,0
-3.15025e-05,1.32751e-05,-5.23694e-06,-4.48963e-06,9.64411e-06,-8.79411e-06,4.13966e-05,-4.25815e-07,0
-3.13734e-05,1.14021e-05,-4.29605e-06,-4.39574e-06,8.97838e-06,-8.50865e-06,3.43817e-05,-3.1108e-06,0
-2.82928e-05,9.84664e-06,-2.80827e-06,-4.12592e-06,8.34864e-06,-1.09153e-05,2.68859e-05,-5.77395e-06,0
-2.52676e-05,9.40524e-06,-3.92934e-06,-3.70219e-06,7.80905e-06,-1.19903e-05,2.13807e-05,-6.85627e-06,0
-2.38344e-05,5.28452e-06,-5.20099e-06,-3.28034e-06,7.00717e-06,-9.58712e-06,1.8869e-05,-5.7775e-06,0
-2.52321e-05,2.38628e-07,-5.94226e-06,-2.44722e-06,5.40141e-06,-7.39604e-06,1.80191e-05,-3.71064e-06,0
-2.66463e-05,-1.00499e-06,-5.93146e-06,-2.62047e-06,3.07516e-06,-6.75209e-06,1.64287e-05,-2.36212e-06,0
-2.64726e-05,1.1717e-06,-5.04979e-06,-3.05972e-06,8.40397e-07,-5.8914e-06,1.51144e-05,-2.02077e-06,0
-2.66959e-05,3.92922e-06,-4.37067e-06,-3.52526e-06,9.10561e-07,-4.92954e-06,1.36728e-05,-1.98383e-06,0
-2.66355e-05,5.79025e-06,-4.30857e-06,-2.92757e-06,1.59948e-06,-4.60535e-06,1.29742e-05,-2.05994e-06,0
-2.67262e-05,6.94928e-06,-3.65362e-06,-2.60495e-06,1.18347e-06,-4.36877e-06,1.25975e-05,-1.61571e-06,0
-2.71481e-05,7.02255e-06,-3.17659e-06,-3.17773e-06,1.28951e-06,-3.52258e-06,1.12488e-05,-5.73672e-07,0
-2.8634e-05,5.99511e-06,-3.81344e-06,-6.1252e-06,2.70355e-06,-3.92792e-06,9.86085e-06,7.79916e-07,0
-3.02612e-05,4.27973e-06,-5.36248e-06,-1.11237e-05,5.69849e-06,-5.68261e-06,9.46567e-06,2.67493e-07,0
-3.08455e-05,2.9638e-06,-7.53138e-06,-1.40638e-05,7.47591e-06,-6.51762e-06,9.90027e-06,-3.04452e-07,0
-3.02713e-05,8.73812e-07,-9.91008e-06,-1.3329e-05,6.41541e-06,-7.72672e-06,1.13528e-05,4.26023e-07,0
-2.96012e-05,-2.129e-06,-1.25486e-05,-1.17641e-05,6.19957e-06,-1.11516e-05,1.39622e-05,1.00728e-06,0
-2.95954e-05,-5.40238e-06,-1.50865e-05,-1.36822e-05,1.08182e-05,-1.47772e-05,1.56131e-05,9.62849e-07,0
-3.01192e-05,-8.71354e-06,-1.70521e-05,-1.7873e-05,1.68536e-05,-1.53983e-05,1.39498e-05,3.82705e-07,0
-3.0202e-05,-1.1064e-05,-1.84291e-05,-2.2054e-05,1.81145e-05,-1.32726e-05,9.24086e-06,-1.15332e-06,0
-2.87257e-05,-1.15731e-05,-1.95177e-05,-2.38944e-05,1.4859e-05,-1.06014e-05,4.2704e-06,-2.77908e-06,0
-2.70439e-05,-1.1942e-05,-2.01478e-05,-2.37011e-05,1.17657e-05,-1.02263e-05,2.28841e-06,-3.08291e-06,0
-2.65586e-05,-1.27724e-05,-1.9839e-05,-2.2801e-05,1.07523e-05,-1.21781e-05,4.34956e-06,-1.83842e-06,0
-2.71152e-05,-1.3469e-05,-1.82087e-05,-2.35543e-05,1.10796e-05,-1.38119e-05,7.06181e-06,3.53189e-07,0
-2.78707e-05,-1.26912e-05,-1.65055e-05,-2.72143e-05,1.12031e-05,-1.37073e-05,8.26217e-06,1.56573e-06,0
-2.7665e-05,-1.04333e-05,-1.41271e-05,-3.06452e-05,1.09363e-05,-1.35556e-05,9.18511e-06,1.3866e-06,0
-2.69706e-05,-7.55563e-06,-1.22805e-05,-2.78104e-05,1.25232e-05,-1.43725e-05,1.01639e-05,2.19626e-06,0
-2.76097e-05,-3.77826e-06,-1.19585e-05,-1.8736e-05,1.4999e-05,-1.4213e-05,1.00258e-05,5.50678e-06,0
-2.92152e-05,-1.6009e-06,-1.18831e-05,-8.57072e-06,1.65445e-05,-1.32187e-05,1.0069e-05,6.43811e-06,0
-3.18831e-05,-5.90067e-07,-1.2578e-05,5.77085e-06,1.61267e-05,-1.31528e-05,1.12456e-05,5.00324e-06,0
-3.35746e-05,7.28429e-07,-1.33237e-05,2.32652e-05,1.68156e-05,-1.26049e-05,1.23176e-05,4.61143e-06,0
-3.27873e-05,3.90063e-06,-1.21591e-05,3.21808e-05,2.12491e-05,-1.06861e-05,1.26733e-05,4.97296e-06,0
-3.228e-05,7.56374e-06,-1.072e-05,2.6264e-05,2.58992e-05,-8.61148e-06,1.23039e-05,5.62088e-06,0
-3.29062e-05,1.01657e-05,-1.12765e-05,6.8679e-06,2.79853e-05,-6.67959e-06,1.29048e-05,4.9441e-06,0
-3.18398e-05,1.18107e-05,-1.2925e-05,-1.29241e-05,2.59441e-05,-5.38627e-06,1.46461e-05,5.67031e-06,0
-2.99683e-05,1.24498e-05,-1.3393e-05,-2.15456e-05,2.01451e-05,-4.51267e-06,1.54207e-05,9.8109e-06,0
-2.8662e-05,1.35201e-05,-1.13439e-05,-2.11526e-05,1.46609e-05,-5.20476e-06,1.41204e-05,1.2948e-05,0
-2.83936e-05,1.49094e-05,-9.19468e-06,-1.85029e-05,1.21033e-05,-6.17956e-06,1.18485e-05,1.17592e-05,0
-2.93504e-05,1.61767e-05,-7.78597e-06,-1.89438e-05,1.11966e-05,-6.18696e-06,1.02175e-05,8.30458e-06,0
-2.95094e-05,1.69602e-05,-7.7717e-06,-2.26061e-05,9.19037e-06,-6.36996e-06,1.02157e-05,6.3998e-06,0
-2.96937e-05,1.57505e-05,-8.51133e-06,-2.20002e-05,6.70722e-06,-6.40732e-06,1.07171e-05,5.85053e-06,0
-3.12599e-05,1.23484e-05,-9.40431e-06,-8.75369e-06,5.69719e-06,-5.87668e-06,1.0767e-05,4.79433e-06,0
-3.37278e-05,8.69083e-06,-1.09565e-05,1.38765e-05,6.44514e-06,-5.88594e-06,1.05381e-05,3.27691e-06,0
-3.46821e-05,6.50681e-06,-1.24045e-05,3.42603e-05,8.08399e-06,-6.19189e-06,1.04427e-05,1.66783e-06,0
-3.41816e-05,5.80768e-06,-1.27023e-05,4.14827e-05,9.87418e-06,-5.2493e-06,1.04859e-05,5.00732e-07,0
-3.28127e-05,6.45736e-06,-1.20617e-05,3.31514e-05,1.16765e-05,-4.4312e-06,1.01997e-05,8.07832e-07,0
-3.11724e-05,8.74528e-06,-1.21583e-05,1.48449e-05,1.30003e-05,-4.41896e-06,1.04459e-05,2.47316e-06,0
-3.05465e-05,1.14168e-05,-1.27289e-05,-1.21683e-08,1.62405e-05,-3.96924e-06,1.19353e-05,3.63046e-06,0
-3.16209e-05,1.47426e-05,-1.19991e-05,8.55334e-07,2.15445e-05,-2.3327e-06,1.41802e-05,2.81412e-06,0
-3.28699e-05,1.96394e-05,-8.90043e-06,1.22937e-05,2.50497e-05,3.00506e-07,1.57132e-05,1.37942e-06,0
-3.26317e-05,2.37247e-05,-4.66194e-06,1.73404e-05,2.44417e-05,1.09424e-06,1.51806e-05,1.80036e-06,0
-3.18281e-05,2.53584e-05,-2.1985e-06,8.18114e-06,2.21413e-05,-9.04086e-07,1.2987e-05,2.8505e-06,0
-3.14331e-05,2.6684e-05,-2.65726e-06,-7.50242e-06,2.16882e-05,-3.16679e-06,1.17846e-05,2.86843e-06,0
-3.09081e-05,2.8334e-05,-5.09123e-06,-1.71663e-05,1.96992e-05,-6.18171e-06,1.17233e-05,2.9879e-06,0
-2.87886e-05,2.8965e-05,-8.35327e-06,-2.05827e-05,1.17128e-05,-7.80154e-06,1.13577e-05,4.6904e-06,0
-2.72734e-05,2.91951e-05,-9.26266e-06,-1.9429e-05,7.55166e-06,-5.68068e-06,1.11599e-05,5.96724e-06,0
-2.76825e-05,3.11354e-05,-8.54242e-06,-1.44395e-05,1.5713e-05,-3.01641e-06,1.1183e-05,4.25884e-06,0
-2.7835e-05,3.21066e-05,-7.73292e-06,-6.73941e-06,2.89509e-05,-2.84131e-06,1.00411e-05,1.61513e-06,0
-2.62084e-05,3.21933e-05,-6.09669e-06,1.45233e-05,4.02706e-05,-3.71466e-06,8.93144e-06,-1.25718e-06,0
-2.4991e-05,3.17314e-05,-4.28e-06,5.27726e-05,4.85927e-05,-4.9664e-06,8.60666e-06,-2.85543e-06,0
-2.54089e-05,2.92171e-05,-4.24668e-06,9.14892e-05,5.26864e-05,-6.33017e-06,9.61087e-06,-1.58427e-06,0
-2.61178e-05,2.77007e-05,-6.03821e-06,0.000109778,5.00863e-05,-6.70299e-06,1.08849e-05,5.91136e-07,0
-2.69484e-05,2.7344e-05,-6.95027e-06,9.96191e-05,4.17624e-05,-6.64795e-06,1.07283e-05,2.2589e-06,0
-2.72097e-05,2.78259e-05,-6.83598e-06,6.91559e-05,3.1548e-05,-6.04044e-06,1.16927e-05,3.06602e-06,0
-2.7075e-05,2.92555e-05,-8.45793e-06,3.40193e-05,2.33524e-05,-5.98771e-06,1.42777e-05,1.72019e-06,0
-2.77857e-05,2.96756e-05,-1.20711e-05,2.24908e-08,1.91015e-05,-6.35512e-06,1.67079e-05,-8.68714e-07,0
-2.91237e-05,2.71815e-05,-1.54817e-05,-3.105e-05,1.83107e-05,-7.25676e-06,1.80724e-05,-1.53133e-06,0
-3.13186e-05,2.47475e-05,-1.70335e-05,-5.09815e-05,1.81536e-05,-7.3909e-06,1.79293e-05,-4.64373e-07,0
-3.34967e-05,2.54486e-05,-1.62501e-05,-5.71783e-05,1.7953e-05,-5.34296e-06,1.49295e-05,1.06518e-06,0
-3.36883e-05,2.84008e-05,-1.35516e-05,-5.87638e-05,1.75501e-05,-2.90719e-06,1.04648e-05,2.73866e-06,0
-3.26835e-05,2.99758e-05,-9.43792e-06,-6.5553e-05,1.61948e-05,-2.25671e-06,7.93937e-06,3.78539e-06,0
-3.26594e-05,2.74424e-05,-5.05819e-06,-7.38423e-05,1.41078e-05,-2.83956e-06,8.09841e-06,2.85679e-06,0
-3.28726e-05,2.36204e-05,-6.64939e-08,-7.31202e-05,1.12578e-05,-3.58039e-06,8.71356e-06,7.22267e-07,0
-3.12692e-05,2.18381e-05,8.14825e-06,-6.23093e-05,9.10634e-06,-3.85791e-06,9.34612e-06,-4.63047e-07,0
-2.99898e-05,2.06588e-05,2.26944e-05,-4.89517e-05,9.43141e-06,-3.30465e-06,1.16583e-05,-1.40159e-06,0
-3.10728e-05,1.75209e-05,4.29034e-05,-3.81351e-05,1.37292e-05,-3.76068e-06,1.40875e-05,-3.12155e-06,0
-3.27454e-05,1.42241e-05,6.42676e-05,-2.97425e-05,2.20849e-05,-5.19569e-06,1.35124e-05,-4.67809e-06,0
-3.31858e-05,1.44365e-05,7.93148e-05,-2.20498e-05,3.09915e-05,-6.02856e-06,1.02991e-05,-5.69234e-06,0
-3.19034e-05,1.62793e-05,7.81244e-05,-1.70364e-05,3.28875e-05,-5.95315e-06,7.91886e-06,-6.62621e-06,0
-3.09483e-05,1.5586e-05,5.56346e-05,-1.59771e-05,2.54556e-05,-6.49272e-06,7.69403e-06,-7.3514e-06,0
-3.09832e-05,1.42837e-05,1.88317e-05,-1.2358e-05,1.57111e-05,-7.48264e-06,7.5987e-06,-4.74425e-06,0
-3.03997e-05,1.61652e-05,-2.52933e-05,-1.39069e-06,8.84335e-06,-9.251e-06,7.23898e-06,-1.83658e-06,0
-2.87801e-05,1.7901e-05,-6.22125e-05,9.97512e-06,7.20377e-06,-1.19258e-05,8.52017e-06,-1.32754e-06,0
-2.685e-05,1.76675e-05,-8.14902e-05,1.09448e-05,9.11256e-06,-1.29274e-05,1.09028e-05,6.08928e-08,0
-2.65485e-05,1.63043e-05,-8.59884e-05,5.35734e-06,9.46306e-06,-1.3115e-05,1.30579e-05,6.90592e-07,0
-2.69919e-05,1.35575e-05,-7.48749e-05,5.48917e-07,8.89984e-06,-1.29899e-05,1.42284e-05,-1.95811e-07,0
-2.83565e-05,1.20689e-05,-5.76173e-05,-4.61401e-06,6.55936e-06,-1.10865e-05,1.38758e-05,4.2376e-07,0
-2.93046e-05,9.46303e-06,-4.32873e-05,-1.00946e-05,3.40115e-06,-1.02876e-05,1.36494e-05,2.68407e-06,0
-2.93107e-05,6.49633e-06,-3.37425e-05,-1.2736e-05,1.04334e-06,-1.18186e-05,1.26879e-05,3.9943e-06,0
-3.08733e-05,6.3799e-06,-2.74209e-05,-1.21492e-05,1.13252e-06,-1.3802e-05,1.13069e-05,4.6867e-06,0
-3.23291e-05,7.49398e-06,-2.17661e-05,-9.85369e-06,1.89872e-06,-1.35639e-05,1.27636e-05,4.96226e-06,0
-3.21939e-05,7.44117e-06,-1.53994e-05,-4.72905e-06,6.88086e-07,-1.09228e-05,1.58238e-05,5.11959e-06,0
-3.2858e-05,7.4491e-06,-1.10277e-05,-3.21169e-07,-3.36803e-07,-9.58088e-06,1.63981e-05,4.56657e-06,0
-3.48525e-05,8.35866e-06,-1.05696e-05,3.8152e-07,-1.59324e-06,-1.04696e-05,1.44409e-05,1.55232e-06,0
-3.5321e-05,9.23923e-06,-1.31666e-05,-1.2369e-06,-2.64494e-06,-1.25078e-05,1.29783e-05,-2.70664e-06,0
-3.40319e-05,8.94643e-06,-1.81909e-05,-3.43474e-06,-3.3608e-06,-1.35402e-05,1.29954e-05,-4.19502e-06,0
-3.26958e-05,7.28238e-06,-2.24695e-05,-6.26719e-06,-2.33008e-06,-1.28663e-05,1.28887e-05,-2.38859e-06,0
-3.20484e-05,4.4978e-06,-2.39852e-05,-1.15827e-05,1.12828e-06,-1.21053e-05,1.11852e-05,-1.16661e-06,0
-3.17088e-05,2.97765e-08,-2.268e-05,-2.02906e-05,4.81794e-06,-1.18633e-05,9.34271e-06,-1.79547e-06,0
-3.12631e-05,-2.65374e-06,-2.09354e-05,-3.033e-05,5.16391e-06,-1.13371e-05,8.69306e-06,-2.38121e-06,0
-3.08001e-05,-3.50602e-06,-1.81014e-05,-3.64518e-05,2.84447e-06,-1.06537e-05,9.59692e-06,-2.76802e-06,0
-3.14454e-05,-4.20479e-06,-1.36632e-05,-3.40051e-05,6.6257e-07,-1.00737e-05,1.16626e-05,-4.37827e-06,0
-3.28024e-05,-3.05206e-06,-9.17942e-06,-2.43074e-05,-5.16258e-07,-1.03669e-05,1.3644e-05,-5.7583e-06,0
-3.24535e-05,4.20558e-07,-7.30553e-06,-1.38893e-05,2.00551e-07,-1.15241e-05,1.48948e-05,-6.1376e-06,0
-3.06249e-05,3.51778e-06,-5.92366e-06,-6.45733e-06,1.80835e-06,-1.17108e-05,1.52512e-05,-5.79127e-06,0
-3.03197e-05,5.29502e-06,-3.29784e-06,6.47335e-07,1.82643e-06,-1.22126e-05,1.37044e-05,-4.79911e-06,0
-3.04348e-05,6.7445e-06,-6.87115e-07,9.97476e-06,1.31326e-06,-1.33178e-05,1.22332e-05,-4.44304e-06,0
-3.03331e-05,7.88257e-06,8.38228e-07,1.52374e-05,2.26465e-06,-1.47043e-05,1.18235e-05,-4.30514e-06,0
-3.00124e-05,9.54013e-06,1.11352e-06,1.54408e-05,3.25723e-06,-1.64923e-05,1.29186e-05,-2.47035e-06,0
-3.01611e-05,1.16344e-05,2.01392e-06,1.24164e-05,2.09483e-06,-1.76416e-05,1.45862e-05,-1.42237e-06,0
-3.20571e-05,1.22924e-05,4.05164e-06,8.65104e-06,1.64683e-07,-1.82474e-05,1.54577e-05,-1.73078e-06,0
-3.15483e-05,1.16126e-05,5.23197e-06,7.07157e-06,-7.62485e-07,-1.78145e-05,1.55782e-05,-7.77099e-07,0
-2.89405e-05,1.08613e-05,5.69185e-06,5.52359e-06,9.1977e-08,-1.63785e-05,1.36982e-05,-6.04847e-08,0
-2.82939e-05,1.15389e-05,6.41886e-06,4.73773e-06,1.76163e-06,-1.52889e-05,1.27462e-05,-5.83375e-07,0
-2.86401e-05,1.18881e-05,5.54802e-06,7.56267e-07,3.90502e-06,-1.47912e-05,1.30203e-05,-4.6433e-07,0
-2.82717e-05,1.23942e-05,4.4676e-06,-5.36997e-06,7.58844e-06,-1.38571e-05,1.36996e-05,-5.86635e-07,0
-2.86845e-05,1.31353e-05,4.17704e-06,-8.62485e-06,1.15735e-05,-1.2323e-05,1.50143e-05,-2.66288e-06,0
-3.00971e-05,1.28363e-05,4.13318e-06,-8.96711e-06,1.32995e-05,-1.09833e-05,1.72061e-05,-4.3772e-06,0
-3.06341e-05,1.12454e-05,2.2691e-06,-8.9494e-06,1.22935e-05,-1.04016e-05,1.95568e-05,-4.95613e-06,0
-2.91618e-05,8.018e-06,-1.39913e-06,-8.31122e-06,1.18013e-05,-9.74871e-06,2.02451e-05,-4.88065e-06,0
-2.64556e-05,4.88527e-06,-6.73807e-06,-6.46115e-06,1.1635e-05,-9.37075e-06,1.91199e-05,-4.15402e-06,0
-2.53063e-05,2.51048e-06,-1.13328e-05,-5.69693e-06,1.13955e-05,-9.5795e-06,1.76486e-05,-2.6186e-06,0
-2.67831e-05,1.27114e-06,-1.14376e-05,-5.81846e-06,1.10682e-05,-9.88583e-06,1.62276e-05,-1.02968e-07,0
-2.85358e-05,1.58105e-06,-9.10723e-06,-6.8234e-06,1.11402e-05,-1.10629e-05,1.47879e-05,2.74616e-06,0
-2.88602e-05,5.31741e-06,-7.48588e-06,-7.5505e-06,1.14681e-05,-1.26401e-05,1.40443e-05,4.94021e-06,0
-2.90813e-05,1.0249e-05,-5.98163e-06,-7.91062e-06,1.24344e-05,-1.36783e-05,1.41895e-05,5.53356e-06,0
-2.95846e-05,1.33525e-05,-2.31711e-06,-7.801e-06,1.43718e-05,-1.4018e-05,1.4855e-05,4.50677e-06,0
-2.98893e-05,1.39184e-05,1.3568e-06,-6.90484e-06,1.63921e-05,-1.38807e-05,1.49108e-05,3.31678e-06,0
-2.96935e-05,1.34333e-05,2.66922e-06,-6.41545e-06,1.70318e-05,-1.23041e-05,1.35449e-05,3.81198e-06,0
-2.93044e-05,1.19905e-05,1.91194e-06,-6.8208e-06,1.55964e-05,-9.42612e-06,1.23793e-05,5.09117e-06,0
-2.97431e-05,1.03844e-05,-7.70897e-07,-6.48973e-06,1.35011e-05,-6.61549e-06,1.30893e-05,5.14254e-06,0
-2.92825e-05,1.21857e-05,-2.94244e-06,-5.93485e-06,1.27288e-05,-6.1808e-06,1.28124e-05,3.9855e-06,0
-2.78025e-05,1.50651e-05,-3.09572e-06,-5.91836e-06,1.43494e-05,-7.52185e-06,1.30813e-05,2.17588e-06,0
-2.74408e-05,1.67479e-05,-3.21306e-06,-5.29895e-06,1.6917e-05,-7.55281e-06,1.36341e-05,9.86239e-07,0
-2.9377e-05,1.77039e-05,-4.51441e-06,-4.24079e-06,1.84789e-05,-7.10249e-06,1.23749e-05,1.46513e-06,0
-3.16184e-05,1.85291e-05,-6.78065e-06,-4.01424e-06,1.99552e-05,-6.87443e-06,1.18796e-05,1.96328e-06,0
-3.14141e-05,2.05811e-05,-6.9771e-06,-4.83808e-06,2.03285e-05,-6.88342e-06,1.22112e-05,2.97058e-06,0
-3.03243e-05,2.30935e-05,-6.79309e-06,-6.41369e-06,1.83183e-05,-8.40336e-06,1.21479e-05,3.83325e-06,0
-2.91009e-05,2.53604e-05,-7.08496e-06,-8.0565e-06,1.77332e-05,-9.74588e-06,1.15613e-05,4.8019e-06,0
-2.77366e-05,2.50371e-05,-6.41202e-06,-8.00444e-06,2.00487e-05,-1.01099e-05,1.07867e-05,5.61272e-06,0
-2.90845e-05,2.28435e-05,-5.95677e-06,-5.93112e-06,2.38398e-05,-1.05351e-05,1.03039e-05,4.65296e-06,0
-3.21069e-05,2.02716e-05,-6.07461e-06,-4.751e-06,2.47186e-05,-1.03174e-05,1.12042e-05,3.60014e-06,0
-3.35401e-05,1.91379e-05,-5.94924e-06,-5.07918e-06,2.27978e-05,-9.34946e-06,1.31708e-05,1.80413e-06,0
-3.31505e-05,2.0405e-05,-6.11675e-06,-4.20732e-06,2.01794e-05,-7.83993e-06,1.38889e-05,-6.16082e-07,0
-3.21393e-05,2.09462e-05,-8.01458e-06,-1.65124e-06,1.72616e-05,-7.96256e-06,1.34391e-05,-1.65139e-06,0
-3.14646e-05,2.06707e-05,-1.05384e-05,1.81488e-06,1.44883e-05,-8.8352e-06,1.32812e-05,-5.98129e-07,0
-3.12871e-05,2.05859e-05,-1.29531e-05,4.3539e-06,1.53753e-05,-9.48514e-06,1.27581e-05,1.22712e-06,0
-3.17055e-05,2.11812e-05,-1.39076e-05,5.5931e-06,1.85708e-05,-8.97714e-06,1.17967e-05,3.2024e-06,0
-3.16225e-05,2.15628e-05,-1.29579e-05,5.32394e-06,1.9765e-05,-7.69757e-06,1.02541e-05,4.18996e-06,0
-3.07459e-05,2.18764e-05,-1.08079e-05,3.67163e-06,1.92508e-05,-6.774e-06,8.52907e-06,4.59116e-06,0
-3.00919e-05,2.15278e-05,-9.59928e-06,2.23064e-06,1.79957e-05,-6.66063e-06,8.07163e-06,4.94001e-06,0
-2.99454e-05,2.11038e-05,-9.37762e-06,1.0847e-06,1.74312e-05,-8.37774e-06,8.70785e-06,4.34731e-06,0
-3.0026e-05,2.00691e-05,-8.85049e-06,-1.51004e-06,1.74707e-05,-1.04027e-05,9.31407e-06,4.16954e-06,0
-3.03797e-05,1.85424e-05,-8.52165e-06,-5.86754e-06,1.75283e-05,-1.15961e-05,8.81566e-06,5.52632e-06,0
-3.14842e-05,1.80206e-05,-9.61881e-06,-9.12924e-06,1.64947e-05,-1.17273e-05,7.48367e-06,7.61625e-06,0
-3.2893e-05,1.81697e-05,-1.12975e-05,-8.31828e-06,1.60085e-05,-1.2282e-05,6.79398e-06,8.46613e-06,0
-3.38319e-05,1.74093e-05,-1.189e-05,-5.25145e-06,1.5983e-05,-1.22836e-05,6.59235e-06,8.45535e-06,0
-3.46047e-05,1.51351e-05,-1.14409e-05,-3.55675e-06,1.53936e-05,-1.07456e-05,6.68695e-06,8.0158e-06,0
-3.4998e-05,1.29673e-05,-9.7563e-06,-3.49734e-06,1.36555e-05,-8.73864e-06,8.00822e-06,6.51429e-06,0
-3.46466e-05,1.20239e-05,-9.10287e-06,-3.45737e-06,1.24704e-05,-8.91916e-06,1.09753e-05,6.23075e-06,0
-3.42664e-05,1.00494e-05,-1.07617e-05,-2.57626e-06,1.14582e-05,-1.08208e-05,1.37965e-05,8.95113e-06,0
-3.30312e-05,6.50351e-06,-1.14845e-05,-1.42948e-06,9.29093e-06,-1.21735e-05,1.40448e-05,1.10947e-05,0
-3.03068e-05,4.60958e-06,-1.23081e-05,-1.6804e-06,7.10546e-06,-1.3276e-05,1.19243e-05,1.03867e-05,0
-2.87755e-05,4.72893e-06,-1.2554e-05,-3.29682e-06,4.72549e-06,-1.53898e-05,9.73009e-06,8.5361e-06,0
-2.85695e-05,7.75285e-06,-9.11462e-06,-4.15262e-06,3.6615e-06,-1.7905e-05,8.74498e-06,6.28028e-06,0
-2.83934e-05,1.03933e-05,-6.39136e-06,-4.66995e-06,4.61206e-06,-1.89095e-05,7.76245e-06,4.25833e-06,0
-2.94144e-05,8.52808e-06,-5.67027e-06,-5.53219e-06,5.4152e-06,-1.73132e-05,7.37328e-06,2.13531e-06,0
-3.00234e-05,6.14774e-06,-6.39844e-06,-5.95057e-06,5.31287e-06,-1.46179e-05,7.53565e-06,1.25019e-07,0
-2.79599e-05,6.14934e-06,-9.4674e-06,-7.22118e-06,4.22514e-06,-1.40843e-05,7.10752e-06,-6.86127e-07,0
-2.58793e-05,8.13246e-06,-1.3046e-05,-9.13521e-06,3.59244e-06,-1.59578e-05,6.6494e-06,-1.1565e-06,0
-2.6024e-05,1.03468e-05,-1.47303e-05,-9.93644e-06,5.69854e-06,-1.83158e-05,6.25646e-06,-1.84346e-06,0
-2.76623e-05,9.87074e-06,-1.45465e-05,-9.17026e-06,8.15122e-06,-1.90625e-05,7.02465e-06,-2.57321e-06,0
-2.95233e-05,7.90495e-06,-1.46071e-05,-5.48205e-06,8.7189e-06,-1.80868e-05,8.5712e-06,-3.20168e-06,0
-2.98221e-05,6.77829e-06,-1.46351e-05,-3.40679e-07,8.71424e-06,-1.69368e-05,9.3609e-06,-4.18618e-06,0
-2.86589e-05,8.01805e-06,-1.36362e-05,2.10704e-06,9.06141e-06,-1.73136e-05,1.1125e-05,-5.02639e-06,0
-2.88154e-05,1.11184e-05,-1.21613e-05,1.01905e-07,9.21879e-06,-1.86131e-05,1.4092e-05,-5.62369e-06,0
-3.03817e-05,1.41428e-05,-1.01019e-05,-2.59568e-06,9.63898e-06,-1.92985e-05,1.6109e-05,-6.59635e-06,0
-3.09589e-05,1.58906e-05,-7.88135e-06,-2.19804e-07,1.03236e-05,-1.86985e-05,1.58031e-05,-7.62636e-06,0
-3.00352e-05,1.59901e-05,-6.35892e-06,8.24432e-06,1.13177e-05,-1.62364e-05,1.3312e-05,-8.80725e-06,0
-2.86615e-05,1.42246e-05,-6.43274e-06,1.80313e-05,1.39475e-05,-1.2465e-05,9.52582e-06,-9.44156e-06,0
-2.81394e-05,1.12729e-05,-7.97244e-06,2.20931e-05,1.73177e-05,-9.53925e-06,6.10903e-06,-8.16104e-06,0
-2.85278e-05,9.37385e-06,-8.81092e-06,1.88094e-05,1.78934e-05,-7.83905e-06,4.79683e-06,-5.78764e-06,0
-2.9274e-05,9.98849e-06,-7.90748e-06,1.30834e-05,1.53548e-05,-7.18495e-06,5.77666e-06,-4.75642e-06,0
-2.96896e-05,1.10944e-05,-6.85466e-06,8.13039e-06,1.24658e-05,-6.90846e-06,8.31966e-06,-4.56688e-06,0
-2.96753e-05,1.07871e-05,-6.71008e-06,4.38471e-06,1.23835e-05,-5.3813e-06,1.15749e-05,-4.28063e-06,0
-2.92195e-05,9.42914e-06,-7.49767e-06,2.26338e-06,1.42776e-05,-4.04761e-06,1.60204e-05,-4.05389e-06,0
-2.79092e-05,8.70627e-06,-8.30524e-06,1.77888e-06,1.53204e-05,-3.21645e-06,1.94238e-05,-3.64232e-06,0
-2.64001e-05,8.49747e-06,-8.84133e-06,1.7743e-06,1.62677e-05,-3.2671e-06,1.62978e-05,-3.28473e-06,0
-2.58643e-05,7.12341e-06,-9.83267e-06,2.05065e-06,1.77834e-05,-4.76592e-06,5.84344e-06,-3.41383e-06,0
-2.57017e-05,7.39161e-06,-1.00986e-05,-1.1326e-06,1.82378e-05,-4.13502e-06,-4.86528e-06,-3.7459e-06,0
-2.61884e-05,6.90049e-06,-9.12604e-06,-6.0037e-06,1.81737e-05,-1.26781e-06,-8.22892e-06,-3.26123e-06,0
-2.69671e-05,6.16815e-06,-7.49087e-06,-6.8736e-06,1.78767e-05,6.58096e-07,-4.29617e-06,-2.89029e-06,0
-2.702e-05,8.38058e-06,-6.02408e-06,-6.99043e-06,1.7477e-05,1.37721e-07,1.79826e-06,-3.33993e-06,0
-2.69104e-05,1.0433e-05,-4.57279e-06,-8.229e-06,1.70347e-05,-1.81934e-06,9.98651e-06,-4.64144e-06,0
-2.70594e-05,1.07748e-05,-5.11393e-06,-8.78157e-06,1.58841e-05,-3.90213e-06,1.94886e-05,-4.69129e-06,0
-2.65978e-05,9.62834e-06,-7.92641e-06,-7.87895e-06,1.42371e-05,-5.91678e-06,2.87892e-05,-4.54018e-06,0
-2.46587e-05,8.6973e-06,-9.48214e-06,-8.48518e-06,1.07167e-05,-6.10154e-06,3.57516e-05,-5.52556e-06,0
-2.42527e-05,8.65542e-06,-9.24317e-06,-7.77509e-06,9.02382e-06,-5.32043e-06,3.78905e-05,-4.77516e-06,0
-2.68619e-05,8.75401e-06,-8.13439e-06,-6.84165e-06,9.77573e-06,-5.97992e-06,3.76851e-05,-3.98824e-06,0
-2.96377e-05,9.2106e-06,-7.18416e-06,-7.93772e-06,1.15197e-05,-6.21942e-06,3.6069e-05,-5.16164e-06,0
-3.07888e-05,1.14169e-05,-6.8844e-06,-9.55796e-06,1.29858e-05,-5.84041e-06,3.36364e-05,-6.18642e-06,0
-3.06034e-05,1.29271e-05,-7.18336e-06,-1.14245e-05,1.29721e-05,-6.51161e-06,3.11682e-05,-5.07557e-06,0
-2.97586e-05,1.24912e-05,-8.33449e-06,-1.21667e-05,1.2176e-05,-7.33425e-06,2.9549e-05,-3.93606e-06,0
-3.03016e-05,1.2205e-05,-9.77087e-06,-1.15457e-05,1.1211e-05,-6.18979e-06,2.74009e-05,-4.17933e-06,0
-3.26345e-05,1.23637e-05,-9.43026e-06,-9.72677e-06,1.15207e-05,-2.70273e-06,2.51513e-05,-5.88538e-06,0
-3.44137e-05,1.20335e-05,-7.0452e-06,-9.30587e-06,1.22539e-05,-3.62173e-07,2.33932e-05,-6.74453e-06,0
-3.42084e-05,1.18134e-05,-5.09797e-06,-1.00915e-05,1.34329e-05,-1.17788e-06,2.1529e-05,-4.64076e-06,0
-3.28755e-05,1.22809e-05,-4.94776e-06,-1.06244e-05,1.43882e-05,-3.52617e-06,1.90276e-05,-5.36279e-07,0
-3.13096e-05,1.3462e-05,-7.29182e-06,-9.31091e-06,1.55855e-05,-5.438e-06,1.645e-05,2.99076e-06,0
-2.95757e-05,1.63611e-05,-1.1123e-05,-7.52434e-06,1.83154e-05,-6.43013e-06,1.50245e-05,4.04035e-06,0
-2.88326e-05,1.85119e-05,-1.30181e-05,-5.96057e-06,2.21641e-05,-6.03936e-06,1.36898e-05,3.99416e-06,0
-3.00062e-05,1.71492e-05,-1.25269e-05,-3.80999e-06,2.43335e-05,-4.80587e-06,1.11348e-05,4.05402e-06,0
-3.11229e-05,1.54165e-05,-1.07957e-05,1.6474e-06,2.48357e-05,-3.87313e-06,9.20176e-06,5.16534e-06,0
-3.12581e-05,1.64471e-05,-8.41617e-06,9.98645e-06,2.58984e-05,-3.37404e-06,1.04483e-05,7.13813e-06,0
-3.08092e-05,1.6605e-05,-6.58437e-06,1.67737e-05,2.66061e-05,-2.03553e-06,1.10323e-05,6.94258e-06,0
-2.97512e-05,1.43915e-05,-5.32355e-06,1.91959e-05,2.49733e-05,-7.99957e-07,9.47567e-06,4.14931e-06,0
-2.88508e-05,1.37284e-05,-5.10593e-06,2.23623e-05,2.12834e-05,-1.41502e-06,8.49015e-06,4.17533e-06,0
-2.76667e-05,1.51427e-05,-7.12312e-06,2.95965e-05,1.82037e-05,-4.09048e-06,8.87539e-06,7.18284e-06,0
-2.78318e-05,1.43252e-05,-1.09767e-05,3.26941e-05,1.73526e-05,-7.7262e-06,8.14653e-06,7.11406e-06,0
-2.913e-05,1.37091e-05,-1.4858e-05,2.81071e-05,1.55934e-05,-8.49611e-06,7.75096e-06,5.8448e-06,0
-2.98846e-05,1.43432e-05,-1.57922e-05,1.76626e-05,1.44318e-05,-5.84128e-06,8.70058e-06,6.10454e-06,0
-3.03016e-05,1.47166e-05,-1.4018e-05,4.42106e-06,1.74626e-05,-3.71634e-06,8.57021e-06,4.97091e-06,0
-3.04864e-05,1.56858e-05,-1.26064e-05,-9.3714e-06,2.1171e-05,-5.09486e-06,8.76926e-06,3.49385e-06,0
-3.0463e-05,1.5611e-05,-1.19251e-05,-2.32727e-05,2.22385e-05,-7.41145e-06,1.07689e-05,3.28195e-06,0
-3.03557e-05,1.44893e-05,-1.08697e-05,-3.62319e-05,1.98557e-05,-8.74891e-06,1.17563e-05,4.54588e-06,0
-3.05842e-05,1.18387e-05,-9.08389e-06,-4.5745e-05,1.57331e-05,-9.35307e-06,1.15813e-05,5.42902e-06,0
-3.12274e-05,9.51024e-06,-6.81799e-06,-5.22954e-05,1.26245e-05,-9.99594e-06,1.29462e-05,4.65075e-06,0
-3.28063e-05,7.89716e-06,-4.85023e-06,-5.77963e-05,1.30911e-05,-1.10036e-05,1.45736e-05,4.17073e-06,0
-3.42133e-05,6.06247e-06,-4.4345e-06,-6.06079e-05,1.55608e-05,-1.14902e-05,1.59785e-05,5.22661e-06,0
-3.42921e-05,4.22629e-06,-4.76609e-06,-5.67619e-05,1.76114e-05,-1.21418e-05,1.69124e-05,6.5384e-06,0
-3.39802e-05,3.6405e-06,-4.33965e-06,-4.4007e-05,1.84239e-05,-1.35756e-05,1.61402e-05,6.93328e-06,0
-3.40617e-05,4.05706e-06,-3.5627e-06,-2.54631e-05,1.86202e-05,-1.38975e-05,1.36896e-05,5.61569e-06,0
-3.36379e-05,4.26962e-06,-3.76816e-06,-1.02478e-05,1.898e-05,-1.23558e-05,1.14089e-05,3.4739e-06,0
-3.27381e-05,4.09206e-06,-4.70878e-06,-4.09282e-06,2.00774e-05,-1.09852e-05,1.03852e-05,2.23736e-06,0
-3.30268e-05,3.72408e-06,-5.65386e-06,-4.13671e-06,2.12726e-05,-1.08727e-05,1.05144e-05,1.41206e-06,0
-3.49491e-05,3.37877e-06,-6.21768e-06,-4.69259e-06,2.04581e-05,-1.17219e-05,1.01393e-05,1.01798e-06,0
-3.70922e-05,2.08431e-06,-6.09691e-06,-2.92135e-06,1.72139e-05,-1.20626e-05,8.12581e-06,1.10023e-06,0
-3.72694e-05,2.50316e-06,-5.73325e-06,-8.266e-07,1.45368e-05,-1.24022e-05,5.85217e-06,1.7788e-06,0
-3.46889e-05,5.27823e-06,-5.35948e-06,6.45431e-07,1.53702e-05,-1.2604e-05,4.89983e-06,3.17942e-06,0
-3.22207e-05,8.75871e-06,-4.59769e-06,3.06579e-06,1.70578e-05,-1.1629e-05,5.25742e-06,4.06274e-06,0
-3.07445e-05,1.16024e-05,-3.98691e-06,5.31709e-06,1.71534e-05,-1.09569e-05,5.74454e-06,2.90098e-06,0
-3.02777e-05,1.17635e-05,-5.57014e-06,4.62424e-06,1.54429e-05,-1.16149e-05,5.35865e-06,3.5665e-07,0
-3.10551e-05,1.00952e-05,-9.38987e-06,2.07703e-06,1.37999e-05,-1.33423e-05,5.08014e-06,1.59506e-07,0
-3.18756e-05,8.52183e-06,-1.44135e-05,-1.21367e-06,1.16801e-05,-1.46193e-05,5.7084e-06,4.05546e-06,0
-3.20685e-05,8.15294e-06,-1.69448e-05,-5.33808e-06,6.95456e-06,-1.43296e-05,5.31606e-06,8.73767e-06,0
-3.17646e-05,8.66967e-06,-1.53677e-05,-9.95556e-06,2.37281e-06,-1.35932e-05,3.86098e-06,1.13945e-05,0
-3.11313e-05,9.5882e-06,-1.18255e-05,-1.56763e-05,6.05162e-07,-1.34816e-05,4.11135e-06,9.88013e-06,0
-2.88963e-05,1.00263e-05,-9.10355e-06,-2.09317e-05,1.47592e-06,-1.43625e-05,6.84643e-06,6.16813e-06,0
-2.80467e-05,7.35777e-06,-9.96703e-06,-2.57144e-05,2.84367e-06,-1.61019e-05,1.01385e-05,3.12967e-06,0
-2.77737e-05,2.87935e-06,-1.27464e-05,-3.29891e-05,2.36647e-06,-1.73531e-05,1.31508e-05,2.13281e-06,0
-2.83398e-05,-3.39847e-07,-1.36764e-05,-3.74651e-05,2.10654e-07,-1.63885e-05,1.54995e-05,2.76838e-06,0
-3.08541e-05,-5.31653e-07,-1.20691e-05,-3.09136e-05,-3.5613e-07,-1.40739e-05,1.70359e-05,3.295e-06,0
-3.23392e-05,9.04759e-07,-1.06715e-05,-1.82066e-05,9.12158e-07,-1.24807e-05,1.65308e-05,3.29114e-06,0
-3.21716e-05,1.92902e-06,-1.00554e-05,-7.41872e-06,3.21329e-06,-1.25386e-05,1.41843e-05,2.53924e-06,0
-3.08405e-05,1.65286e-06,-1.00607e-05,-1.03353e-07,7.72036e-06,-1.13807e-05,9.55252e-06,1.55453e-06,0
-2.92634e-05,-4.19617e-07,-1.00991e-05,4.61889e-06,1.26961e-05,-8.26334e-06,3.88858e-06,-2.89297e-08,0
-2.81418e-05,-1.67204e-06,-9.46459e-06,6.83696e-06,1.61305e-05,-5.71043e-06,1.39307e-07,-9.83061e-07,0
-2.89097e-05,-6.2031e-07,-8.72457e-06,6.60684e-06,1.64081e-05,-4.67957e-06,-7.41446e-07,-7.62823e-07,0
-3.03357e-05,1.47435e-06,-8.44119e-06,5.15625e-06,1.44496e-05,-5.38899e-06,1.88227e-06,-3.98796e-07,0
-3.1238e-05,3.03598e-06,-9.06724e-06,4.54099e-06,1.34435e-05,-6.45646e-06,6.23102e-06,-4.7832e-08,0
-2.99359e-05,3.63108e-06,-1.0192e-05,6.97555e-06,1.34753e-05,-5.6615e-06,9.58883e-06,1.42003e-06,0
-2.77406e-05,2.98106e-06,-1.0359e-05,1.22412e-05,1.1788e-05,-2.89735e-06,1.20223e-05,3.27045e-06,0
-2.70459e-05,2.64795e-06,-8.51184e-06,1.94087e-05,1.02584e-05,-1.43227e-06,1.51934e-05,3.96167e-06,0
-2.71857e-05,4.8443e-06,-5.03001e-06,2.67423e-05,1.15301e-05,-2.39152e-06,1.7652e-05,3.06827e-06,0
-2.72937e-05,9.10249e-06,-1.03962e-06,2.98371e-05,1.31125e-05,-4.31858e-06,1.85316e-05,1.42793e-06,0
-2.7624e-05,1.28273e-05,-5.88745e-07,2.5741e-05,1.306e-05,-4.9231e-06,1.88371e-05,6.3745e-07,0
-2.77986e-05,1.50767e-05,-4.35138e-06,1.70433e-05,1.30823e-05,-4.9444e-06,2.01368e-05,1.38764e-06,0
-2.80211e-05,1.52818e-05,-8.16764e-06,7.60539e-06,1.39672e-05,-5.95532e-06,2.04829e-05,3.88899e-06,0
-2.89422e-05,1.36992e-05,-9.18361e-06,5.36741e-07,1.44133e-05,-7.63114e-06,2.04994e-05,7.04075e-06,0
-2.8666e-05,1.32109e-05,-8.82225e-06,-2.21319e-06,1.31152e-05,-7.50069e-06,2.10604e-05,8.85197e-06,0
-2.96616e-05,1.35752e-05,-8.9501e-06,7.06053e-07,1.12421e-05,-5.76281e-06,1.90064e-05,8.11175e-06,0
-3.21896e-05,1.30842e-05,-9.91145e-06,5.41208e-06,1.07149e-05,-6.44623e-06,1.58282e-05,5.86846e-06,0
-3.18502e-05,1.45948e-05,-1.10776e-05,9.37184e-06,1.12538e-05,-8.28758e-06,1.36018e-05,4.09271e-06,0
-2.88229e-05,1.88002e-05,-1.06632e-05,1.46239e-05,1.16391e-05,-9.37177e-06,1.29025e-05,2.82516e-06,0
-2.70888e-05,1.97257e-05,-9.49991e-06,1.84286e-05,9.7517e-06,-9.84885e-06,1.48392e-05,2.41797e-06,0
-2.82229e-05,1.81717e-05,-8.1665e-06,1.8877e-05,8.67321e-06,-1.00079e-05,1.7396e-05,3.26415e-06,0
-2.93207e-05,1.71591e-05,-6.59288e-06,1.61896e-05,8.81764e-06,-9.34748e-06,1.75593e-05,2.91467e-06,0
-2.80086e-05,1.63998e-05,-4.5384e-06,1.16051e-05,9.07581e-06,-7.77996e-06,1.49912e-05,1.40677e-06,0
-2.58288e-05,1.6508e-05,-3.43346e-06,8.02823e-06,9.08951e-06,-7.09755e-06,1.21721e-05,4.28894e-07,0
-2.53663e-05,1.68797e-05,-3.01952e-06,5.67949e-06,9.19422e-06,-7.24372e-06,1.26235e-05,4.27231e-07,0
-2.56155e-05,1.72337e-05,-2.99118e-06,6.57671e-07,1.25784e-05,-7.129e-06,1.41762e-05,9.59666e-07,0
-2.53399e-05,1.72725e-05,-3.23507e-06,-9.61322e-06,1.90676e-05,-6.54574e-06,1.36859e-05,1.56907e-06,0
-2.48706e-05,1.71477e-05,-4.05532e-06,-2.50479e-05,2.22893e-05,-5.60177e-06,1.22238e-05,2.10865e-06,0
-2.50811e-05,1.60957e-05,-6.59215e-06,-4.07009e-05,1.82273e-05,-4.02013e-06,1.20047e-05,2.59439e-06,0
-2.62153e-05,1.31237e-05,-8.77732e-06,-5.01023e-05,1.17846e-05,-2.41185e-06,1.36319e-05,4.63254e-06,0
-2.79521e-05,8.9975e-06,-9.42185e-06,-5.28662e-05,7.21323e-06,-2.66514e-06,1.56407e-05,7.4651e-06,0
-3.05954e-05,6.82345e-06,-8.77308e-06,-5.08165e-05,6.51418e-06,-5.02913e-06,1.67899e-05,8.00498e-06,0
-3.26212e-05,7.85009e-06,-8.27612e-06,-4.22603e-05,8.42037e-06,-6.79571e-06,1.77545e-05,5.84598e-06,0
-3.3159e-05,1.04838e-05,-7.36329e-06,-2.57544e-05,1.00083e-05,-7.18008e-06,1.83774e-05,3.57048e-06,0
-3.33043e-05,1.37065e-05,-3.67806e-06,-5.78786e-06,8.74081e-06,-7.76528e-06,1.69441e-05,2.558e-06,0
-3.37352e-05,1.5874e-05,3.19946e-06,9.49636e-06,6.61201e-06,-8.99285e-06,1.35612e-05,2.69602e-06,0
-3.36805e-05,1.61597e-05,9.95434e-06,1.7018e-05,6.68015e-06,-1.06085e-05,1.09923e-05,3.2716e-06,0
-3.32575e-05,1.67898e-05,1.71373e-05,1.99083e-05,8.34085e-06,-1.03572e-05,9.77889e-06,2.4083e-06,0
-3.23688e-05,1.74841e-05,2.92799e-05,1.74148e-05,9.33664e-06,-9.67905e-06,3.25109e-06,5.63135e-07,0
-3.23324e-05,1.53472e-05,4.78525e-05,9.89491e-06,9.58317e-06,-1.12669e-05,-8.69389e-06,-1.05499e-06,0
-3.3087e-05,1.24448e-05,6.82403e-05,4.95349e-06,9.33301e-06,-1.31167e-05,-1.70739e-05,-2.98259e-06,0
-3.33478e-05,1.23924e-05,8.04745e-05,6.72555e-06,8.25678e-06,-1.36689e-05,-1.71728e-05,-3.3586e-06,0
-3.1942e-05,1.42513e-05,7.40181e-05,9.25465e-06,9.29007e-06,-1.12199e-05,-9.75433e-06,-1.27594e-06,0
-2.84841e-05,1.66883e-05,4.88085e-05,5.79501e-06,1.04487e-05,-8.90649e-06,-1.05187e-06,6.56948e-07,0
-2.67784e-05,1.92681e-05,1.07474e-05,-5.26409e-07,8.19375e-06,-8.19465e-06,6.09304e-06,1.67924e-06,0
-2.81729e-05,2.09688e-05,-3.21057e-05,-5.24142e-06,5.30239e-06,-9.05673e-06,1.33538e-05,3.36367e-06,0
-2.91363e-05,2.28077e-05,-6.70572e-05,-7.98352e-06,5.74234e-06,-1.14662e-05,2.00388e-05,4.97024e-06,0
-2.8582e-05,2.49063e-05,-8.76071e-05,-1.06352e-05,7.72587e-06,-1.15841e-05,2.49765e-05,4.08259e-06,0
-2.85802e-05,2.63442e-05,-9.06501e-05,-1.87185e-05,6.77054e-06,-1.11713e-05,2.76009e-05,1.15098e-06,0
-2.90123e-05,2.58988e-05,-8.05184e-05,-3.30271e-05,3.64767e-06,-1.04576e-05,2.86437e-05,-2.07332e-06,0
-3.05933e-05,2.50518e-05,-6.69573e-05,-4.46899e-05,2.37093e-06,-1.02199e-05,2.83979e-05,-3.17429e-06,0
-3.19922e-05,2.57101e-05,-5.60321e-05,-4.84627e-05,2.29188e-06,-1.05417e-05,2.68904e-05,-1.76394e-06,0
-3.13462e-05,2.67824e-05,-4.73436e-05,-5.00006e-05,2.06281e-06,-1.18424e-05,2.4772e-05,4.57062e-08,0
-2.95419e-05,2.69859e-05,-3.80843e-05,-5.11262e-05,1.14539e-06,-1.33305e-05,2.30735e-05,2.96797e-06,0
-2.83902e-05,2.55008e-05,-2.7457e-05,-4.94401e-05,-9.34908e-07,-1.30742e-05,2.27991e-05,7.51764e-06,0
-2.87541e-05,2.30837e-05,-1.76188e-05,-4.20216e-05,-2.43734e-06,-1.27203e-05,2.32324e-05,1.07107e-05,0
-3.09845e-05,2.09449e-05,-1.11377e-05,-2.83152e-05,-2.40621e-06,-1.2764e-05,2.30669e-05,1.13544e-05,0
-3.32684e-05,2.01885e-05,-7.50657e-06,-1.12587e-05,-1.8206e-06,-1.37021e-05,2.26773e-05,1.13667e-05,0
-3.34072e-05,2.01024e-05,-5.83889e-06,6.20988e-06,-1.42457e-06,-1.52655e-05,2.2756e-05,1.17918e-05,0
-3.25803e-05,2.01733e-05,-5.89529e-06,2.10008e-05,6.13954e-07,-1.60619e-05,2.28394e-05,1.19776e-05,0
-3.19624e-05,2.03923e-05,-7.29598e-06,3.23504e-05,3.52177e-06,-1.53747e-05,2.22076e-05,1.13469e-05,0
-3.17566e-05,2.16151e-05,-8.87313e-06,3.9594e-05,4.2746e-06,-1.52739e-05,2.05658e-05,1.08913e-05,0
-3.14813e-05,2.28062e-05,-1.00272e-05,4.2903e-05,2.88702e-06,-1.59637e-05,1.7353e-05,1.09952e-05,0
-3.05991e-05,2.165e-05,-9.14415e-06,4.44808e-05,3.90851e-06,-1.7007e-05,1.34651e-05,1.09596e-05,0
-2.93704e-05,2.06898e-05,-6.42929e-06,4.43992e-05,9.35357e-06,-1.74034e-05,1.02833e-05,9.93438e-06,0
-2.91618e-05,2.11697e-05,-4.37595e-06,4.0256e-05,1.64631e-05,-1.63391e-05,9.00492e-06,8.592e-06,0
-3.00282e-05,2.14827e-05,-4.84661e-06,3.09855e-05,2.18812e-05,-1.51181e-05,1.01471e-05,6.65063e-06,0
-3.1308e-05,2.01376e-05,-6.51722e-06,1.87739e-05,2.34444e-05,-1.36005e-05,1.22144e-05,4.09011e-06,0
-3.16041e-05,1.64247e-05,-7.76198e-06,9.85351e-06,2.50225e-05,-1.00231e-05,1.30319e-05,3.22517e-06,0
-3.19245e-05,1.22764e-05,-8.53768e-06,3.26933e-06,2.67018e-05,-6.05033e-06,1.16128e-05,4.12427e-06,0
-3.21687e-05,1.12345e-05,-6.60534e-06,-2.56799e-06,2.66767e-05,-4.3824e-06,1.01962e-05,4.81127e-06,0
-2.9947e-05,1.39754e-05,-4.29237e-06,-6.38866e-06,2.72034e-05,-4.39038e-06,9.51625e-06,4.73602e-06,0
-2.70447e-05,1.60933e-05,-4.73311e-06,-1.02171e-05,2.67063e-05,-4.35149e-06,9.95923e-06,4.46203e-06,0
-2.53612e-05,1.56653e-05,-6.77197e-06,-1.16747e-05,2.362e-05,-5.06405e-06,1.1304e-05,3.37275e-06,0
-2.48388e-05,1.52753e-05,-8.22432e-06,-8.0988e-06,2.15352e-05,-5.92359e-06,1.1831e-05,1.61399e-06,0
-2.54028e-05,1.40268e-05,-7.47714e-06,-1.32596e-06,2.24489e-05,-5.69054e-06,1.19253e-05,-5.05307e-07,0
-2.69381e-05,1.14705e-05,-7.62127e-06,4.62316e-06,2.5395e-05,-5.83723e-06,1.19111e-05,-1.52976e-06,0
-2.87451e-05,9.86449e-06,-9.48338e-06,4.92364e-06,2.77112e-05,-6.361e-06,1.08638e-05,-3.02179e-06,0
-2.95741e-05,9.0097e-06,-1.22913e-05,-4.28782e-07,2.70388e-05,-6.09785e-06,9.06585e-06,-5.14524e-06,0
-3.00477e-05,7.9444e-06,-1.36616e-05,-6.04186e-06,2.51431e-05,-5.75076e-06,8.14267e-06,-5.42779e-06,0
-3.12157e-05,7.43429e-06,-1.30471e-05,-9.71941e-06,2.36292e-05,-6.40158e-06,7.0628e-06,-3.56744e-06,0
-3.22851e-05,8.34971e-06,-1.1496e-05,-1.17088e-05,2.30494e-05,-7.16347e-06,6.04708e-06,-2.13721e-06,0
-3.22145e-05,9.40784e-06,-8.39595e-06,-1.26765e-05,2.19419e-05,-8.35263e-06,5.45998e-06,-3.21972e-06,0
-3.11991e-05,9.43563e-06,-5.77136e-06,-1.37727e-05,2.09998e-05,-9.55747e-06,3.42262e-06,-4.58983e-06,0
-2.99285e-05,8.46482e-06,-5.18827e-06,-1.56776e-05,2.17629e-05,-9.80322e-06,1.14309e-06,-4.07735e-06,0
-2.96699e-05,8.43797e-06,-6.54387e-06,-1.89171e-05,2.38052e-05,-9.84021e-06,2.11153e-06,-1.93794e-06,0
-3.14362e-05,9.1406e-06,-8.29346e-06,-2.22026e-05,2.56155e-05,-1.07235e-05,6.03794e-06,-6.88179e-07,0
-3.29256e-05,7.60991e-06,-9.18264e-06,-2.29943e-05,2.64937e-05,-1.17225e-05,9.71811e-06,-9.2111e-08,0
-3.25549e-05,5.06267e-06,-7.69416e-06,-2.13896e-05,2.66887e-05,-1.1912e-05,1.15722e-05,1.10539e-06,0
-3.14716e-05,5.4425e-06,-5.3919e-06,-2.00739e-05,2.53057e-05,-1.03687e-05,1.15274e-05,2.55493e-06,0
-3.05493e-05,9.4417e-06,-4.28038e-06,-2.03135e-05,2.37136e-05,-7.71666e-06,1.05489e-05,2.334e-06,0
-3.07436e-05,1.25082e-05,-4.62493e-06,-2.04265e-05,2.47101e-05,-6.76243e-06,1.00013e-05,-2.39282e-07,0
-3.18598e-05,1.23299e-05,-5.40345e-06,-1.87077e-05,2.65553e-05,-8.52937e-06,1.0493e-05,-3.66909e-06,0
-3.30588e-05,1.10018e-05,-5.14691e-06,-1.3456e-05,2.57618e-05,-1.19745e-05,1.05193e-05,-5.24713e-06,0
-3.46101e-05,8.88361e-06,-4.85516e-06,-1.74719e-06,2.32977e-05,-1.35742e-05,9.28725e-06,-5.91745e-06,0
-3.47089e-05,5.32684e-06,-5.76587e-06,1.09093e-05,1.90382e-05,-1.15348e-05,7.84578e-06,-5.85146e-06,0
-3.2008e-05,9.47858e-07,-6.37828e-06,1.6402e-05,1.52666e-05,-8.68303e-06,6.66348e-06,-4.35601e-06,0
-3.00115e-05,-7.79744e-07,-5.71528e-06,1.95476e-05,1.48425e-05,-7.37492e-06,6.18859e-06,-4.72986e-06,0
-3.03714e-05,1.35606e-06,-5.43378e-06,2.54317e-05,1.64149e-05,-9.3201e-06,5.09987e-06,-7.01491e-06,0
-3.06165e-05,4.00084e-06,-5.85895e-06,2.86709e-05,1.85254e-05,-1.12875e-05,4.85677e-06,-6.91233e-06,0
-3.0284e-05,4.19831e-06,-7.13984e-06,2.57257e-05,1.76869e-05,-1.14632e-05,9.14417e-06,-4.94175e-06,0
-3.08536e-05,3.02275e-06,-9.13227e-06,1.86149e-05,1.36538e-05,-1.09851e-05,1.43965e-05,-3.83235e-06,0
-3.29392e-05,3.95868e-06,-8.74109e-06,7.97219e-06,9.5975e-06,-1.00051e-05,1.64632e-05,-3.8844e-06,0
-3.24989e-05,5.64143e-06,-7.38597e-06,-3.46107e-06,7.84495e-06,-9.9646e-06,1.61586e-05,-4.29985e-06,0
-2.89652e-05,6.13688e-06,-7.37683e-06,-1.50012e-05,9.63644e-06,-9.08939e-06,1.4016e-05,-3.73012e-06,0
-2.59207e-05,5.83948e-06,-7.81322e-06,-2.79774e-05,1.1168e-05,-7.43017e-06,9.33669e-06,-3.55352e-06,0
-2.54999e-05,5.87709e-06,-8.26534e-06,-3.82904e-05,9.23233e-06,-5.3002e-06,5.40403e-06,-4.36575e-06,0
-2.76116e-05,6.301e-06,-8.44714e-06,-4.08944e-05,5.36281e-06,-3.92107e-06,4.8627e-06,-5.49933e-06,0
-3.03312e-05,7.06656e-06,-8.43642e-06,-3.72763e-05,3.44878e-06,-4.70289e-06,7.50784e-06,-5.75402e-06,0
-3.20997e-05,8.51456e-06,-8.05697e-06,-3.08945e-05,3.86084e-06,-6.84414e-06,1.17578e-05,-7.09502e-06,0
-3.26601e-05,1.04514e-05,-7.45525e-06,-2.46242e-05,4.89827e-06,-8.08868e-06,1.51232e-05,-9.60936e-06,0
-3.28632e-05,1.23191e-05,-6.29485e-06,-2.04522e-05,6.2744e-06,-7.41186e-06,1.71642e-05,-1.19587e-05,0
-3.24335e-05,1.33444e-05,-5.24294e-06,-1.74067e-05,8.41312e-06,-6.48008e-06,1.87928e-05,-1.37011e-05,0
-3.16981e-05,1.4116e-05,-3.8933e-06,-1.31553e-05,1.05958e-05,-6.28806e-06,1.99482e-05,-1.40186e-05,0
-3.07343e-05,1.43012e-05,-1.92104e-06,-6.90375e-06,1.09684e-05,-7.00248e-06,1.85005e-05,-1.34544e-05,0
-2.98834e-05,1.32902e-05,-2.6667e-08,-1.28267e-06,1.02001e-05,-8.09729e-06,1.5662e-05,-1.21767e-05,0
-2.97478e-05,1.17689e-05,9.14783e-07,2.26382e-06,1.00977e-05,-8.3295e-06,1.43038e-05,-1.01274e-05,0
-3.06322e-05,1.07753e-05,8.84416e-08,3.13303e-06,1.2152e-05,-8.17023e-06,1.51365e-05,-8.05277e-06,0
-3.0635e-05,9.67355e-06,-1.66746e-06,2.66129e-06,1.59956e-05,-8.46588e-06,1.64651e-05,-7.93775e-06,0
-2.97756e-05,8.05768e-06,-1.47908e-06,1.27738e-06,2.01119e-05,-8.38209e-06,1.60406e-05,-9.03628e-06,0
-2.96877e-05,7.48593e-06,-6.54413e-08,-4.84644e-07,2.11947e-05,-7.71728e-06,1.34824e-05,-9.37556e-06,0
-3.0014e-05,6.5782e-06,1.24387e-07,-1.46394e-06,1.89865e-05,-7.38237e-06,1.22496e-05,-1.0412e-05,0
-2.97754e-05,2.95089e-06,-9.85495e-07,2.33779e-07,1.90878e-05,-9.01901e-06,1.37437e-05,-1.16032e-05,0
-2.96529e-05,2.02574e-06,-3.79037e-06,4.71202e-06,2.18255e-05,-9.27378e-06,1.18976e-05,-1.12896e-05,0
-2.87042e-05,5.63838e-06,-6.09863e-06,7.3119e-06,2.02827e-05,-6.91661e-06,3.0923e-06,-9.10589e-06,0
-2.80174e-05,7.54132e-06,-7.75211e-06,7.36734e-06,1.6927e-05,-5.07864e-06,-5.86189e-06,-5.69063e-06,0
-2.84746e-05,5.28233e-06,-1.19717e-05,5.08819e-06,1.58571e-05,-4.81524e-06,-8.23302e-06,-4.56667e-06,0
-2.76853e-05,3.55904e-06,-1.70752e-05,6.93213e-07,1.51759e-05,-5.84557e-06,-4.48045e-06,-4.34759e-06,0
-2.7182e-05,4.64558e-06,-1.89549e-05,-2.51351e-06,1.41179e-05,-6.30229e-06,1.50799e-06,-4.12192e-06,0
-2.65706e-05,6.03109e-06,-1.6418e-05,-3.79176e-06,1.17575e-05,-6.3557e-06,8.29768e-06,-3.61874e-06,0
-2.69248e-05,6.62572e-06,-1.39824e-05,-4.01916e-06,1.03072e-05,-7.42747e-06,1.6977e-05,-3.06642e-06,0
-2.84174e-05,4.94782e-06,-1.55985e-05,-5.00949e-06,1.05808e-05,-8.50045e-06,2.5395e-05,-3.28398e-06,0
-2.85851e-05,2.58571e-06,-2.02422e-05,-6.67665e-06,1.12895e-05,-1.00962e-05,3.23584e-05,-3.39166e-06,0
-2.79122e-05,8.10147e-07,-2.53811e-05,-8.9586e-06,1.27178e-05,-1.17561e-05,3.70668e-05,-2.64296e-06,0
-2.8509e-05,4.24637e-08,-2.77738e-05,-1.24011e-05,1.42052e-05,-1.10844e-05,3.8625e-05,8.57753e-07,0
-3.02317e-05,1.56786e-06,-2.63666e-05,-1.6425e-05,1.48183e-05,-8.99466e-06,3.78225e-05,4.62169e-06,0
-3.1766e-05,3.72949e-06,-2.18517e-05,-1.90703e-05,1.54652e-05,-8.30552e-06,3.55338e-05,6.45075e-06,0
-3.27647e-05,3.81633e-06,-1.78133e-05,-2.04631e-05,1.52138e-05,-9.15646e-06,3.26657e-05,6.68524e-06,0
-3.30481e-05,2.29846e-06,-1.79367e-05,-2.20413e-05,1.36006e-05,-9.55202e-06,3.12631e-05,6.73576e-06,0
-3.32502e-05,1.85664e-06,-2.10761e-05,-2.12002e-05,1.29425e-05,-1.00266e-05,2.97375e-05,5.64175e-06,0
-3.37828e-05,3.26755e-06,-2.23596e-05,-1.74183e-05,1.39816e-05,-1.14392e-05,2.57318e-05,3.13302e-06,0
-3.42998e-05,5.76963e-06,-1.98524e-05,-1.35965e-05,1.53008e-05,-1.24084e-05,2.20906e-05,1.39013e-06,0
-3.37889e-05,8.31804e-06,-1.63508e-05,-1.20373e-05,1.61109e-05,-1.0773e-05,2.15651e-05,9.93602e-07,0
-3.25672e-05,1.07916e-05,-1.62569e-05,-1.07783e-05,1.66735e-05,-8.36719e-06,2.23248e-05,2.10235e-06,0
-3.15122e-05,1.27423e-05,-1.96214e-05,-8.34939e-06,1.63317e-05,-7.15508e-06,2.09424e-05,4.75038e-06,0
-3.12715e-05,1.48289e-05,-2.20163e-05,-5.27864e-06,1.51241e-05,-6.34531e-06,1.79393e-05,7.24007e-06,0
-3.23773e-05,1.84334e-05,-2.01739e-05,-2.55035e-06,1.31645e-05,-5.01844e-06,1.44899e-05,7.84766e-06,0
-3.37589e-05,2.19423e-05,-1.59377e-05,-9.04023e-07,1.26776e-05,-3.68886e-06,1.11967e-05,7.61057e-06,0
-3.43039e-05,2.25711e-05,-1.30311e-05,2.58974e-07,1.3891e-05,-4.45356e-06,8.44873e-06,6.16695e-06,0
-3.38947e-05,1.94565e-05,-1.29843e-05,-4.87438e-08,1.38217e-05,-6.53142e-06,7.45057e-06,4.60238e-06,0
-3.30693e-05,1.6111e-05,-1.4843e-05,-2.33542e-06,1.45314e-05,-7.54591e-06,7.90406e-06,4.19975e-06,0
-3.30578e-05,1.52845e-05,-1.35754e-05,-2.93733e-06,1.52298e-05,-7.16419e-06,7.35606e-06,5.51058e-06,0
-3.26994e-05,1.5544e-05,-9.09732e-06,-2.38662e-06,1.30968e-05,-7.35646e-06,6.61967e-06,7.87523e-06,0
-3.23631e-05,1.53951e-05,-5.20982e-06,-1.51326e-06,1.11499e-05,-8.6437e-06,6.78262e-06,9.30929e-06,0
-3.24426e-05,1.32361e-05,-1.94181e-06,2.00001e-06,1.15979e-05,-1.0352e-05,9.13309e-06,9.8575e-06,0
-3.23538e-05,1.09588e-05,-2.21223e-07,7.5085e-06,1.13593e-05,-1.23959e-05,1.30314e-05,1.01167e-05,0
