ch1,ch2,ch3,ch4,ch5,ch6,ch7,ch8,class
-3.44811e-05,1.36965e-05,-1.53225e-05,-1.26274e-05,2.90438e-05,-2.98699e-06,1.12198e-05,7.48285e-06,0
-3.41612e-05,1.87144e-05,-1.19973e-05,7.39146e-06,2.89308e-05,-4.03191e-06,1.13939e-05,8.0193e-06,0
-3.41946e-05,2.35065e-05,-1.0341e-05,3.40176e-05,3.05624e-05,-5.04879e-06,1.13957e-05,1.00601e-05,0
-3.32906e-05,2.76762e-05,-9.82566e-06,4.61522e-05,3.27692e-05,-5.86461e-06,1.09356e-05,1.17465e-05,0
-3.12329e-05,2.91429e-05,-8.17559e-06,3.79381e-05,3.10371e-05,-6.60609e-06,1.26453e-05,1.14593e-05,0
-2.95436e-05,2.69476e-05,-5.02886e-06,2.05995e-05,2.48496e-05,-8.52977e-06,1.73866e-05,9.92207e-06,0
-2.96799e-05,2.25431e-05,-2.53623e-06,3.77903e-06,1.9041e-05,-9.97099e-06,2.06143e-05,9.30431e-06,0
-3.09424e-05,1.91519e-05,-3.00261e-06,-1.02979e-05,1.58662e-05,-1.0817e-05,2.11291e-05,9.8023e-06,0
-3.06964e-05,2.02964e-05,-3.78728e-06,-1.97486e-05,1.43653e-05,-1.15836e-05,2.08647e-05,1.01339e-05,0
-2.7968e-05,2.20286e-05,-2.9349e-06,-2.2681e-05,1.50076e-05,-1.21255e-05,2.23001e-05,9.33814e-06,0
-2.62544e-05,2.08974e-05,-2.25932e-06,-2.23787e-05,1.73293e-05,-1.2356e-05,2.43616e-05,8.61824e-06,0
-2.74785e-05,1.77142e-05,-3.03201e-06,-2.21661e-05,1.92971e-05,-1.26778e-05,2.49673e-05,8.41261e-06,0
-2.85087e-05,1.34472e-05,-2.92119e-06,-2.14308e-05,1.92766e-05,-1.40419e-05,2.36422e-05,8.75169e-06,0
-2.90883e-05,8.1895e-06,-1.36188e-06,-1.85898e-05,1.61198e-05,-1.54699e-05,2.09108e-05,9.07404e-06,0
-3.0794e-05,2.76807e-06,-2.65851e-06,-1.27982e-05,1.36272e-05,-1.66335e-05,1.81625e-05,8.47424e-06,0
-3.2578e-05,9.93283e-07,-5.65368e-06,-8.90265e-07,1.30919e-05,-1.62289e-05,1.66531e-05,7.00875e-06,0
-3.25697e-05,2.5851e-06,-7.83296e-06,1.42112e-05,1.32677e-05,-1.61993e-05,1.43028e-05,4.35375e-06,0
-3.23718e-05,6.05984e-06,-8.61371e-06,2.1812e-05,1.42632e-05,-1.71993e-05,1.07375e-05,2.87867e-06,0
-3.22419e-05,9.63143e-06,-8.44018e-06,2.11818e-05,1.34898e-05,-1.81638e-05,7.77512e-06,5.11451e-06,0
-3.07227e-05,1.16661e-05,-7.36512e-06,1.87229e-05,1.2786e-05,-1.9109e-05,6.0092e-06,8.52494e-06,0
-2.94434e-05,1.04231e-05,-6.1718e-06,1.72097e-05,1.45287e-05,-1.99369e-05,4.37328e-06,9.17533e-06,0
-2.98292e-05,8.27305e-06,-5.45585e-06,1.46442e-05,1.55565e-05,-2.06602e-05,2.89926e-06,7.69177e-06,0
-3.01079e-05,7.71053e-06,-4.26696e-06,9.48391e-06,1.36977e-05,-2.00086e-05,1.78194e-06,7.17472e-06,0
-2.91743e-05,7.60421e-06,-3.50469e-06,1.64509e-06,1.0927e-05,-1.79577e-05,1.61661e-06,7.86868e-06,0
-2.84742e-05,7.25636e-06,-3.26101e-06,-9.1737e-06,9.22786e-06,-1.56427e-05,2.83056e-06,7.95576e-06,0
-2.88728e-05,7.84924e-06,-3.50348e-06,-2.09387e-05,8.57732e-06,-1.49793e-05,4.25324e-06,6.1596e-06,0
-2.99008e-05,9.5704e-06,-4.1597e-06,-3.18021e-05,8.90006e-06,-1.64431e-05,6.20464e-06,3.06763e-06,0
-2.97978e-05,1.00871e-05,-4.80691e-06,-3.94376e-05,9.72026e-06,-1.76965e-05,8.41202e-06,7.4891e-07,0
-2.7901e-05,8.11865e-06,-4.95858e-06,-4.14761e-05,9.45391e-06,-1.70115e-05,1.04854e-05,3.02479e-07,0
-2.60475e-05,5.27822e-06,-4.90965e-06,-3.80256e-05,7.60931e-06,-1.62767e-05,1.21283e-05,7.33627e-07,0
-2.72479e-05,6.08281e-06,-4.95786e-06,-2.9358e-05,5.80384e-06,-1.65592e-05,1.56875e-05,7.81404e-08,0
-2.94004e-05,1.21877e-05,-5.84028e-06,-1.82418e-05,5.1389e-06,-1.74926e-05,2.32731e-05,-2.43647e-06,0
-3.00694e-05,2.17959e-05,-7.82668e-06,-9.41536e-06,5.41384e-06,-1.68726e-05,3.18118e-05,-5.52982e-06,0
-2.92847e-05,2.90731e-05,-9.31073e-06,-3.48208e-06,5.07386e-06,-1.4196e-05,3.76511e-05,-7.06949e-06,0
-2.82859e-05,3.0698e-05,-8.60093e-06,-8.46946e-07,2.78684e-06,-1.1737e-05,3.9603e-05,-6.3156e-06,0
-2.7238e-05,3.0427e-05,-7.03192e-06,-1.72641e-06,1.70349e-06,-9.97021e-06,3.60572e-05,-4.7858e-06,0
-2.58969e-05,2.89829e-05,-6.35615e-06,-5.10912e-06,3.0525e-06,-9.84346e-06,2.2321e-05,-4.90137e-06,0
-2.7254e-05,2.45236e-05,-5.46822e-06,-6.0232e-06,4.61784e-06,-1.10085e-05,4.80701e-06,-6.06561e-06,0
-3.00077e-05,1.74729e-05,-4.02886e-06,-3.04146e-06,4.75148e-06,-1.36606e-05,-3.7709e-06,-6.28348e-06,0
-3.17008e-05,1.08292e-05,-2.84229e-06,-1.96461e-06,4.62828e-06,-1.67245e-05,-4.17831e-06,-6.15348e-06,0
-3.33253e-05,5.54884e-06,-2.99599e-06,-1.99109e-06,6.87766e-06,-1.68259e-05,3.17211e-07,-5.43835e-06,0
-3.40486e-05,1.55411e-06,-6.18476e-06,-1.31258e-06,8.49076e-06,-1.46041e-05,4.43491e-06,-4.66584e-06,0
-3.38183e-05,-1.37567e-07,-9.00576e-06,-7.57773e-07,7.63499e-06,-1.37396e-05,7.4686e-06,-5.31256e-06,0
-3.33425e-05,-5.39606e-07,-9.73474e-06,-1.05881e-06,6.65133e-06,-1.41272e-05,8.43428e-06,-7.1645e-06,0
-3.32085e-05,2.21704e-06,-1.03436e-05,-2.66702e-06,7.35133e-06,-1.4921e-05,4.51784e-06,-9.14764e-06,0
-3.3549e-05,8.50816e-06,-1.13779e-05,-4.37978e-06,7.66195e-06,-1.57915e-05,-8.87586e-07,-9.52403e-06,0
-3.23287e-05,1.49644e-05,-1.25896e-05,-5.07762e-06,6.54911e-06,-1.52156e-05,-3.53189e-06,-9.0734e-06,0
-3.05407e-05,1.85807e-05,-1.25605e-05,-3.45382e-06,6.05291e-06,-1.33874e-05,-2.42032e-06,-8.36832e-06,0
-2.96567e-05,1.95056e-05,-1.19741e-05,-2.98667e-06,8.01846e-06,-1.22819e-05,1.61619e-06,-7.85059e-06,0
-2.95799e-05,2.08865e-05,-1.15607e-05,-5.13326e-06,1.13887e-05,-1.36017e-05,7.53683e-06,-6.75672e-06,0
-3.02703e-05,2.3993e-05,-1.18608e-05,-5.68006e-06,1.22217e-05,-1.56873e-05,1.2862e-05,-5.67465e-06,0
-3.153e-05,2.7099e-05,-1.32577e-05,-3.44019e-06,9.8063e-06,-1.63258e-05,1.69115e-05,-6.06509e-06,0
-3.31253e-05,2.74901e-05,-1.56894e-05,9.80963e-07,6.41631e-06,-1.46342e-05,1.97556e-05,-7.50696e-06,0
-3.42017e-05,2.5711e-05,-1.74486e-05,6.77709e-06,5.10201e-06,-1.31769e-05,2.32914e-05,-8.37572e-06,0
-3.40632e-05,2.36394e-05,-1.79682e-05,1.12578e-05,6.65684e-06,-1.3317e-05,2.55698e-05,-7.88081e-06,0
-3.24336e-05,2.23304e-05,-1.70866e-05,1.07123e-05,1.08461e-05,-1.35944e-05,2.48523e-05,-6.88017e-06,0
-3.10297e-05,2.21339e-05,-1.57124e-05,5.48502e-06,1.46539e-05,-1.36367e-05,2.13153e-05,-5.70192e-06,0
-3.16697e-05,2.20206e-05,-1.44212e-05,-6.68786e-07,1.40805e-05,-1.39814e-05,1.30579e-05,-4.6018e-06,0
-3.32951e-05,2.14748e-05,-1.22442e-05,-4.16637e-06,1.08596e-05,-1.49556e-05,-3.93653e-06,-2.22891e-06,0
-3.37422e-05,2.17107e-05,-1.08604e-05,-4.72768e-06,1.07653e-05,-1.47533e-05,-2.1771e-05,-8.45945e-07,0
-3.30149e-05,2.19638e-05,-1.00535e-05,-3.38854e-06,1.434e-05,-1.25976e-05,-2.68482e-05,-1.19882e-06,0
-3.23798e-05,2.07924e-05,-5.87778e-06,-2.26308e-07,1.96903e-05,-1.14977e-05,-1.77501e-05,-1.60367e-06,0
-3.2852e-05,1.8891e-05,3.36497e-06,4.34667e-06,2.54161e-05,-1.16509e-05,-4.098e-06,-1.43858e-06,0
-3.36437e-05,1.62382e-05,1.61315e-05,7.20328e-06,2.85253e-05,-1.05688e-05,9.08217e-06,-5.85001e-07,0
-3.20702e-05,1.38644e-05,2.98822e-05,2.88768e-06,2.80531e-05,-8.69723e-06,2.27016e-05,2.22567e-07,0
-3.01139e-05,1.23287e-05,4.38287e-05,-6.04695e-06,2.74495e-05,-8.09431e-06,3.27902e-05,5.20744e-07,0
-2.92189e-05,1.07825e-05,5.30208e-05,-1.39283e-05,3.04341e-05,-7.85276e-06,3.70074e-05,1.15197e-07,0
-2.9446e-05,1.08736e-05,5.05652e-05,-1.8632e-05,3.29876e-05,-6.1114e-06,3.67232e-05,7.73956e-08,0
-3.0159e-05,1.27528e-05,3.36812e-05,-1.98697e-05,3.31864e-05,-5.19937e-06,3.37682e-05,1.55274e-06,0
-2.94194e-05,1.41565e-05,1.78755e-06,-2.08332e-05,3.02746e-05,-5.98993e-06,3.07081e-05,2.74321e-06,0
-2.83825e-05,1.37487e-05,-3.51966e-05,-2.08896e-05,2.4648e-05,-7.4629e-06,2.8845e-05,3.00021e-06,0
-2.8775e-05,1.09418e-05,-6.53608e-05,-1.71061e-05,2.01403e-05,-7.41577e-06,2.5014e-05,4.40503e-06,0
-2.98242e-05,7.75498e-06,-8.05191e-05,-9.45432e-06,1.79995e-05,-6.26437e-06,1.96538e-05,5.53143e-06,0
-2.95743e-05,6.07333e-06,-8.13886e-05,-2.35564e-06,1.76547e-05,-5.27872e-06,1.60794e-05,5.07814e-06,0
-2.79989e-05,6.21291e-06,-7.42063e-05,7.43985e-07,1.88954e-05,-4.51319e-06,1.69146e-05,3.5533e-06,0
-2.63501e-05,6.85676e-06,-6.26141e-05,4.34851e-07,2.23358e-05,-3.91489e-06,2.07894e-05,2.11627e-06,0
-2.70288e-05,7.20326e-06,-4.88685e-05,-8.11565e-07,2.4354e-05,-3.78398e-06,2.35155e-05,1.48244e-06,0
-2.89859e-05,7.23794e-06,-3.60045e-05,-1.60184e-06,2.19345e-05,-4.47517e-06,2.22801e-05,1.62886e-06,0
-2.99699e-05,7.31448e-06,-2.56238e-05,-2.8999e-06,1.58186e-05,-4.95694e-06,1.7875e-05,2.26389e-06,0
-2.99569e-05,7.34484e-06,-1.69621e-05,-4.13291e-06,9.72702e-06,-4.94129e-06,1.26341e-05,2.10034e-06,0
-3.01126e-05,6.49292e-06,-1.05268e-05,-4.31406e-06,8.2318e-06,-4.28959e-06,8.22511e-06,1.53247e-06,0
-3.05747e-05,5.24919e-06,-5.42629e-06,-2.76759e-06,1.0617e-05,-3.75471e-06,6.44803e-06,7.29889e-07,0
-3.10287e-05,4.55525e-06,-2.31485e-07,-2.21489e-06,1.20414e-05,-2.81237e-06,6.98553e-06,2.37366e-07,0
-3.11194e-05,5.64472e-06,4.51612e-06,-4.12288e-06,1.09608e-05,-1.85264e-06,7.62487e-06,7.68455e-07,0
-3.05485e-05,6.58868e-06,6.33504e-06,-5.8957e-06,9.02302e-06,-1.75173e-06,6.98456e-06,1.97012e-06,0
-3.05036e-05,6.07342e-06,5.99683e-06,-5.36429e-06,8.621e-06,-2.29214e-06,5.26158e-06,3.13671e-06,0
-3.12787e-05,5.76099e-06,5.6512e-06,-3.61307e-06,9.62271e-06,-3.07822e-06,1.99066e-06,2.78622e-06,0
-3.25709e-05,6.55267e-06,5.84198e-06,-1.93863e-06,9.2068e-06,-3.01047e-06,6.22574e-08,-3.68375e-07,0
-3.3591e-05,8.95205e-06,3.65057e-06,-1.24296e-06,7.90571e-06,-1.81446e-06,1.11268e-06,-4.06485e-06,0
-3.31119e-05,1.25798e-05,-8.27991e-09,-5.30811e-07,8.31723e-06,6.74174e-08,2.42055e-06,-4.90315e-06,0
-3.01313e-05,1.40244e-05,-4.01225e-06,-4.16955e-08,1.13501e-05,1.38428e-07,3.41357e-06,-2.78565e-06,0
-2.7921e-05,1.57001e-05,-9.03393e-06,-2.8994e-06,1.32577e-05,-1.98596e-06,4.01158e-06,-1.74169e-06,0
-2.78811e-05,1.98221e-05,-1.42825e-05,-6.68914e-06,1.28287e-05,-3.79434e-06,4.78164e-06,-3.75283e-06,0
-2.91876e-05,2.32552e-05,-1.78565e-05,-8.71133e-06,1.13971e-05,-4.60471e-06,6.01596e-06,-3.99415e-06,0
-2.99212e-05,2.58404e-05,-1.71533e-05,-9.95758e-06,9.7935e-06,-3.75089e-06,6.47224e-06,-2.24686e-06,0
-2.9325e-05,2.7095e-05,-1.17564e-05,-9.62704e-06,1.0579e-05,-2.47515e-06,6.10936e-06,-1.04789e-07,0
-2.85063e-05,2.67437e-05,-4.52898e-06,-6.33429e-06,1.38641e-05,-1.61471e-06,4.11079e-06,1.66772e-06,0
-2.72867e-05,2.5659e-05,4.80809e-08,-2.72568e-06,1.68981e-05,-1.72564e-06,6.07177e-07,2.62112e-06,0
-2.804e-05,2.49584e-05,2.10734e-06,-1.07306e-06,1.66517e-05,-2.54435e-06,-2.60262e-06,2.87874e-06,0
-2.86456e-05,2.40119e-05,2.87275e-06,-1.83128e-06,1.42243e-05,-4.23111e-06,-3.82708e-06,2.91472e-06,0
-2.82473e-05,2.28642e-05,2.7868e-06,-6.39191e-06,1.25369e-05,-5.7942e-06,-1.85179e-06,3.31807e-06,0
-2.87671e-05,2.18408e-05,1.25985e-06,-1.21747e-05,1.35591e-05,-5.68022e-06,3.31017e-06,3.01327e-06,0
-2.94791e-05,2.06879e-05,-4.44181e-07,-1.33172e-05,1.7248e-05,-4.02085e-06,1.09232e-05,1.54564e-06,0
-2.887e-05,2.02796e-05,-1.02509e-06,-6.91829e-06,2.16468e-05,-2.27015e-06,1.92517e-05,-4.6294e-07,0
-2.8609e-05,2.08766e-05,-5.27057e-07,3.06332e-06,2.43786e-05,-3.43418e-06,2.50169e-05,-1.60083e-06,0
-2.91731e-05,2.18179e-05,-1.1664e-09,8.03519e-06,2.48755e-05,-7.17915e-06,2.6271e-05,-1.51148e-06,0
-2.90046e-05,2.25933e-05,-5.93309e-08,3.283e-06,2.45888e-05,-1.07187e-05,2.42725e-05,-2.9322e-07,0
-2.81008e-05,2.28698e-05,-1.01659e-07,-7.26077e-06,2.43809e-05,-1.098e-05,2.21779e-05,1.16873e-06,0
-2.72745e-05,2.34462e-05,-2.70197e-08,-1.49029e-05,2.40942e-05,-9.1407e-06,2.13588e-05,2.61695e-06,0
-2.78798e-05,2.40286e-05,-9.60994e-08,-1.53157e-05,2.26215e-05,-7.52486e-06,2.13208e-05,3.87447e-06,0
-2.89821e-05,2.22077e-05,-5.54076e-07,-1.26634e-05,2.02868e-05,-7.5205e-06,1.97653e-05,3.87545e-06,0
-2.96293e-05,1.96359e-05,-1.03286e-06,-1.19231e-05,1.69153e-05,-8.98833e-06,1.18437e-05,1.85099e-06,0
-3.0511e-05,1.88461e-05,-1.97648e-06,-1.07007e-05,1.3391e-05,-1.10008e-05,6.65618e-07,9.53168e-07,0
-3.22849e-05,1.91823e-05,-2.58572e-06,-7.98981e-06,1.11438e-05,-1.24093e-05,-5.57802e-06,2.74325e-06,0
-3.24255e-05,1.83908e-05,-3.03138e-06,-6.12726e-06,1.04334e-05,-1.29868e-05,-4.38671e-06,3.90905e-06,0
-3.16467e-05,1.48384e-05,-5.41185e-06,-5.50971e-06,1.24426e-05,-1.37045e-05,1.58442e-06,3.75447e-06,0
-3.02972e-05,1.05412e-05,-8.92085e-06,-5.56052e-06,1.5539e-05,-1.45516e-05,7.12991e-06,2.89841e-06,0
-2.88843e-05,7.2569e-06,-1.19423e-05,-5.11408e-06,1.67905e-05,-1.38296e-05,1.29477e-05,3.06717e-06,0
-2.99107e-05,4.21568e-06,-1.36879e-05,-6.94445e-06,1.53343e-05,-1.32724e-05,1.8765e-05,3.97505e-06,0
-3.20505e-05,3.04605e-06,-1.33921e-05,-9.21404e-06,1.32964e-05,-1.45719e-05,2.18143e-05,1.2324e-06,0
-3.31223e-05,3.31012e-06,-1.20954e-05,-7.67279e-06,1.2088e-05,-1.50758e-05,2.40885e-05,-1.91345e-06,0
-3.21824e-05,4.40171e-06,-1.12904e-05,-6.83253e-06,1.03483e-05,-1.54436e-05,2.56546e-05,-1.09903e-06,0
-2.96861e-05,5.69142e-06,-1.10569e-05,-6.0844e-06,8.47438e-06,-1.70054e-05,2.61933e-05,1.69908e-06,0
-2.70319e-05,4.98719e-06,-9.79586e-06,-3.00613e-06,8.00456e-06,-1.75401e-05,2.67904e-05,4.22804e-06,0
-2.49829e-05,3.85445e-06,-7.52257e-06,-1.11929e-06,1.08511e-05,-1.57459e-05,2.83989e-05,5.52629e-06,0
-2.39044e-05,4.7668e-06,-5.10816e-06,9.31903e-08,1.63633e-05,-1.4119e-05,3.08173e-05,4.72952e-06,0
-2.44954e-05,6.82434e-06,-2.77941e-06,7.22877e-06,1.96824e-05,-1.37539e-05,3.58079e-05,2.76273e-06,0
-2.59976e-05,7.27514e-06,1.77999e-07,2.24122e-05,1.8167e-05,-1.46475e-05,4.13594e-05,2.18163e-06,0
-2.66945e-05,6.48412e-06,3.19703e-06,3.86219e-05,1.57815e-05,-1.52903e-05,4.16656e-05,3.82801e-06,0
-2.65273e-05,6.16457e-06,5.3545e-06,5.12128e-05,1.6312e-05,-1.54104e-05,3.53574e-05,5.23447e-06,0
-2.62211e-05,7.12033e-06,6.18069e-06,6.18147e-05,1.9646e-05,-1.57668e-05,2.55858e-05,3.61469e-06,0
-2.6996e-05,8.39774e-06,6.0647e-06,7.11348e-05,2.30155e-05,-1.48748e-05,1.65013e-05,7.94333e-07,0
-2.92701e-05,9.57373e-06,7.64778e-06,7.36225e-05,2.44997e-05,-1.28573e-05,1.06354e-05,2.68326e-08,0
-3.07908e-05,9.44482e-06,1.22271e-05,6.27452e-05,2.40128e-05,-1.21184e-05,8.65195e-06,1.8579e-06,0
-3.11684e-05,6.6976e-06,1.88992e-05,3.90308e-05,2.19463e-05,-1.28784e-05,7.72044e-06,3.38858e-06,0
-3.18096e-05,3.51437e-06,2.30113e-05,5.59294e-06,1.74331e-05,-1.35437e-05,5.62927e-06,2.692e-06,0
-3.32932e-05,3.64982e-06,2.06058e-05,-3.5591e-05,1.06195e-05,-1.33559e-05,3.23908e-06,9.1934e-07,0
-3.43716e-05,6.9782e-06,1.27999e-05,-7.61318e-05,4.8179e-06,-1.26287e-05,2.04482e-06,-5.75652e-07,0
-3.41666e-05,9.88608e-06,3.49479e-06,-0.000105431,1.97371e-06,-1.3215e-05,1.87086e-06,-1.40083e-06,0
-3.27637e-05,1.11296e-05,-6.28556e-06,-0.000118357,2.44558e-06,-1.46095e-05,2.3747e-06,-1.06071e-06,0
-3.10027e-05,1.11441e-05,-1.60148e-05,-0.000110747,4.96112e-06,-1.57831e-05,3.20665e-06,-1.84321e-06,0
-3.00133e-05,1.19754e-05,-2.5321e-05,-8.51025e-05,1.03505e-05,-1.57469e-05,2.42739e-06,-3.33424e-06,0
-3.17272e-05,1.31364e-05,-3.42176e-05,-5.14258e-05,2.03385e-05,-1.40997e-05,1.87583e-06,-3.62312e-06,0
-3.36648e-05,9.6472e-06,-4.15711e-05,-2.1917e-05,2.96923e-05,-1.37921e-05,8.6558e-06,-2.85722e-06,0
-3.36372e-05,3.09521e-06,-4.69805e-05,-3.71042e-06,3.21452e-05,-1.34983e-05,2.34856e-05,-1.99923e-06,0
-3.23624e-05,4.72661e-07,-4.70982e-05,4.13715e-06,2.98794e-05,-1.17539e-05,3.5655e-05,-2.42096e-06,0
-3.1212e-05,2.49567e-06,-4.21586e-05,2.58815e-06,2.62878e-05,-1.03623e-05,3.89756e-05,-3.84233e-06,0
-3.24001e-05,5.69272e-06,-3.63235e-05,-3.54527e-06,2.39971e-05,-8.8574e-06,3.67565e-05,-4.35752e-06,0
-3.33971e-05,6.55862e-06,-3.09002e-05,-9.19309e-06,2.36287e-05,-8.0174e-06,3.06931e-05,-2.78929e-06,0
-3.38214e-05,5.23659e-06,-2.51413e-05,-1.36156e-05,2.34674e-05,-6.99649e-06,2.2101e-05,-1.26098e-06,0
-3.29456e-05,5.47904e-06,-1.9185e-05,-1.66479e-05,2.18027e-05,-5.15205e-06,9.76132e-06,-1.31167e-06,0
-3.05711e-05,8.00054e-06,-1.50662e-05,-2.05419e-05,2.00207e-05,-4.07274e-06,-3.82177e-06,-3.30192e-06,0
-2.79014e-05,1.08947e-05,-1.44553e-05,-2.9891e-05,1.98715e-05,-4.72495e-06,-1.53365e-05,-4.46744e-06,0
-2.66223e-05,1.24139e-05,-1.55769e-05,-4.0223e-05,2.1321e-05,-6.63349e-06,-2.27416e-05,-4.02668e-06,0
-2.56861e-05,1.30093e-05,-1.51388e-05,-4.39301e-05,2.45834e-05,-8.94942e-06,-2.42017e-05,-3.01548e-06,0
-2.55087e-05,1.35241e-05,-1.33678e-05,-3.8182e-05,2.76553e-05,-1.09394e-05,-1.87396e-05,-2.38563e-06,0
-2.72531e-05,1.35223e-05,-1.14034e-05,-2.56618e-05,2.9144e-05,-1.14067e-05,-7.0535e-06,-3.16382e-06,0
-2.87175e-05,1.37702e-05,-1.03431e-05,-1.44193e-05,2.88999e-05,-1.12631e-05,3.41057e-06,-3.40493e-06,0
-2.95617e-05,1.52613e-05,-1.03683e-05,-8.52128e-06,2.73082e-05,-1.11016e-05,8.95093e-06,-1.04855e-06,0
-2.94676e-05,1.75625e-05,-1.06873e-05,-6.70202e-06,2.32204e-05,-1.05629e-05,1.07449e-05,2.97592e-06,0
-2.89981e-05,1.98912e-05,-1.074e-05,-5.51212e-06,1.73001e-05,-9.81671e-06,1.18368e-05,4.48374e-06,0
-2.91585e-05,2.14365e-05,-1.04324e-05,-3.61363e-06,1.18816e-05,-9.66267e-06,1.39292e-05,2.62154e-06,0
-3.14466e-05,2.17691e-05,-1.07062e-05,-1.7516e-06,9.20038e-06,-1.01623e-05,1.71118e-05,1.69083e-06,0
-3.3042e-05,2.11036e-05,-1.12247e-05,-1.46616e-06,8.87513e-06,-1.06832e-05,1.84682e-05,4.01226e-06,0
-3.30852e-05,1.90662e-05,-1.03574e-05,-1.73187e-06,8.73234e-06,-1.04579e-05,1.64697e-05,5.06981e-06,0
-3.2992e-05,1.71837e-05,-9.30567e-06,1.23821e-07,7.61635e-06,-1.09648e-05,1.26975e-05,2.82606e-06,0
-3.26499e-05,1.59206e-05,-9.2534e-06,9.47265e-06,4.74797e-06,-1.28738e-05,9.83283e-06,7.43373e-07,0
-3.18604e-05,1.23772e-05,-9.83115e-06,2.54774e-05,6.41668e-07,-1.40296e-05,1.03671e-05,-1.55726e-07,0
-3.1045e-05,7.33909e-06,-1.04513e-05,3.93931e-05,-1.25952e-06,-1.31766e-05,1.41301e-05,5.08524e-07,0
-3.03094e-05,4.44885e-06,-8.84378e-06,4.57878e-05,1.54873e-06,-1.13445e-05,1.70776e-05,2.3591e-06,0
-2.84971e-05,3.84863e-06,-4.76257e-06,4.54119e-05,6.39952e-06,-9.5275e-06,1.59636e-05,2.64861e-06,0
-2.60505e-05,4.4157e-06,-1.01158e-06,3.9202e-05,9.18706e-06,-5.99296e-06,1.19162e-05,1.18157e-06,0
-2.56795e-05,2.91511e-06,-4.28572e-07,3.03765e-05,1.19006e-05,-4.64135e-06,8.50121e-06,1.52532e-06,0
-2.83935e-05,8.39618e-07,-5.82639e-07,2.25495e-05,1.70648e-05,-6.2132e-06,9.38809e-06,3.46195e-06,0
-3.0411e-05,1.54856e-06,-3.13481e-07,1.66993e-05,2.07222e-05,-7.37441e-06,1.45606e-05,5.5712e-06,0
-2.91048e-05,3.44635e-06,-4.92191e-07,1.35484e-05,2.09572e-05,-7.15065e-06,2.0127e-05,7.25551e-06,0
-2.74728e-05,6.86913e-06,-9.30489e-07,8.76252e-06,1.99428e-05,-4.5126e-06,2.19302e-05,8.5531e-06,0
-2.77477e-05,9.74529e-06,2.37788e-07,3.51203e-07,1.90975e-05,-2.51617e-06,2.06415e-05,1.04893e-05,0
-2.84737e-05,1.05393e-05,3.63706e-06,-8.89137e-06,1.75122e-05,-2.69447e-06,1.96737e-05,1.17048e-05,0
-2.87192e-05,9.48986e-06,5.68356e-06,-1.29355e-05,1.58647e-05,-3.5656e-06,1.98898e-05,1.2526e-05,0
-2.85019e-05,8.57623e-06,6.05525e-06,-1.21985e-05,1.36821e-05,-3.65734e-06,1.96697e-05,1.11e-05,0
-2.88888e-05,9.02322e-06,4.64015e-06,-8.27581e-06,1.16687e-05,-4.39921e-06,1.82717e-05,9.20926e-06,0
-3.08476e-05,9.88802e-06,1.86573e-06,-1.70255e-06,1.07625e-05,-4.98339e-06,1.51954e-05,8.94563e-06,0
-3.27278e-05,1.04122e-05,-3.71796e-07,3.93643e-06,9.56227e-06,-4.45509e-06,1.20431e-05,8.02532e-06,0
-3.19092e-05,1.13281e-05,-8.65362e-07,5.62109e-06,6.64958e-06,-3.99051e-06,8.16645e-06,5.5869e-06,0
-3.01698e-05,1.23609e-05,-7.36568e-07,4.51302e-06,3.95165e-06,-3.8293e-06,1.44642e-06,3.54788e-06,0
-2.99239e-05,1.22481e-05,-1.62946e-06,2.99896e-06,3.16576e-06,-3.64824e-06,-6.59793e-06,3.19909e-06,0
-3.0658e-05,1.29284e-05,-3.88223e-06,1.21681e-06,1.76723e-06,-3.29627e-06,-1.12174e-05,2.51384e-06,0
-3.17364e-05,1.47662e-05,-6.31414e-06,-2.39418e-07,-7.48799e-07,-3.76756e-06,-7.41502e-06,1.49877e-06,0
-3.2802e-05,1.66573e-05,-7.50088e-06,-1.56852e-06,-3.60902e-06,-4.54612e-06,4.82865e-06,5.83265e-07,0
-3.2513e-05,1.78691e-05,-7.96369e-06,-2.71271e-06,-5.23645e-06,-5.01803e-06,1.88057e-05,9.55798e-07,0
-3.21566e-05,1.79427e-05,-9.14092e-06,-4.10051e-06,-5.12565e-06,-4.64362e-06,2.82332e-05,2.39001e-06,0
-3.1807e-05,1.59145e-05,-1.02016e-05,-5.04583e-06,-3.25829e-06,-4.89559e-06,3.35903e-05,4.38277e-06,0
-3.13103e-05,1.45077e-05,-1.02764e-05,-5.72178e-06,-7.56328e-07,-6.25505e-06,3.69726e-05,5.75452e-06,0
-3.13256e-05,1.52275e-05,-1.21076e-05,-5.49461e-06,1.75036e-06,-7.22141e-06,3.88793e-05,4.71226e-06,0
-3.05957e-05,1.66891e-05,-1.3615e-05,-3.82131e-06,5.19906e-06,-7.56711e-06,3.73197e-05,2.88737e-06,0
-3.1485e-05,1.89262e-05,-1.29968e-05,6.22675e-07,8.90477e-06,-7.84244e-06,3.20207e-05,2.51087e-06,0
-3.25131e-05,1.98993e-05,-1.13776e-05,5.78649e-06,1.30614e-05,-7.77737e-06,2.61192e-05,2.52779e-06,0
-3.0935e-05,1.76838e-05,-1.01583e-05,5.59217e-06,1.71681e-05,-7.53946e-06,2.09296e-05,2.64171e-06,0
-2.89593e-05,1.38105e-05,-1.08222e-05,-2.77208e-06,1.9009e-05,-7.16867e-06,1.98434e-05,4.04137e-06,0
-2.79375e-05,1.20792e-05,-1.04581e-05,-1.32813e-05,1.75268e-05,-5.83477e-06,2.20403e-05,5.18929e-06,0
-2.73758e-05,1.35078e-05,-8.64784e-06,-1.96248e-05,1.4227e-05,-5.41092e-06,2.28798e-05,5.16146e-06,0
-2.67713e-05,1.59362e-05,-6.94664e-06,-2.07304e-05,1.22848e-05,-7.03744e-06,2.13836e-05,4.06373e-06,0
-2.79155e-05,1.6767e-05,-7.35525e-06,-1.82913e-05,1.25424e-05,-9.45628e-06,1.75049e-05,2.2349e-06,0
-3.00782e-05,1.60787e-05,-1.10506e-05,-1.53213e-05,1.29321e-05,-1.19689e-05,1.33283e-05,2.46629e-06,0
-3.15588e-05,1.63825e-05,-1.56245e-05,-1.29031e-05,1.2056e-05,-1.35478e-05,8.20316e-06,4.16907e-06,0
-3.26955e-05,1.77961e-05,-1.95403e-05,-1.07084e-05,1.12685e-05,-1.37449e-05,1.86488e-06,5.09492e-06,0
-3.32512e-05,1.92498e-05,-2.12379e-05,-9.07382e-06,1.06978e-05,-1.41234e-05,-3.18001e-06,4.10974e-06,0
-3.27247e-05,1.96292e-05,-1.9553e-05,-8.62576e-06,1.02295e-05,-1.55131e-05,-5.24649e-06,1.46945e-06,0
-3.12882e-05,1.94739e-05,-1.53154e-05,-6.37242e-06,9.251e-06,-1.6288e-05,-4.71475e-06,-4.09907e-07,0
-3.07889e-05,1.87026e-05,-1.08174e-05,-3.39647e-06,9.14233e-06,-1.63494e-05,-2.18486e-06,-9.59858e-08,0
-3.15387e-05,1.67399e-05,-8.17497e-06,-1.02204e-06,1.12082e-05,-1.6387e-05,1.46366e-06,6.46843e-07,0
-3.24173e-05,1.42397e-05,-7.58915e-06,1.69466e-06,1.30542e-05,-1.56166e-05,1.14222e-06,3.21891e-07,0
-3.27258e-05,1.25184e-05,-8.1118e-06,4.51708e-06,1.32359e-05,-1.48943e-05,-9.95246e-06,6.52677e-07,0
-3.24548e-05,1.20003e-05,-8.94386e-06,5.42014e-06,1.2344e-05,-1.55412e-05,-2.76943e-05,1.52146e-06,0
-3.23879e-05,1.12331e-05,-1.01362e-05,4.50037e-06,1.09541e-05,-1.59847e-05,-3.57396e-05,2.68209e-06,0
-3.37288e-05,9.41294e-06,-1.18362e-05,4.25522e-06,9.21657e-06,-1.48747e-05,-2.46086e-05,3.56174e-06,0
-3.47377e-05,6.92658e-06,-1.31757e-05,4.20465e-06,9.02276e-06,-1.35945e-05,-1.29999e-06,3.51451e-06,0
-3.31609e-05,5.59367e-06,-1.17131e-05,1.68299e-06,9.96114e-06,-1.30819e-05,2.04403e-05,2.11342e-06,0
-3.02728e-05,5.91785e-06,-8.10511e-06,-5.7539e-06,1.20164e-05,-1.26238e-05,3.58986e-05,4.36452e-07,0
-2.85057e-05,8.32331e-06,-7.15313e-06,-1.54221e-05,1.46522e-05,-1.22393e-05,4.73671e-05,-1.05128e-06,0
-2.84237e-05,1.20948e-05,-9.08884e-06,-2.16026e-05,1.42694e-05,-1.23483e-05,5.32922e-05,-2.12562e-06,0
-2.98745e-05,1.38126e-05,-9.68816e-06,-1.95013e-05,1.02055e-05,-1.17913e-05,5.28302e-05,-2.03487e-06,0
-3.243e-05,1.20879e-05,-6.73363e-06,-1.11282e-05,8.2466e-06,-1.12882e-05,4.99325e-05,-1.63841e-06,0
-3.37165e-05,1.0585e-05,-2.8176e-06,-6.39134e-06,1.02909e-05,-1.18095e-05,4.71027e-05,-9.63484e-07,0
-3.3206e-05,1.16603e-05,-9.08939e-07,-7.60213e-06,1.4084e-05,-1.20018e-05,4.26469e-05,7.77538e-08,0
-3.16408e-05,1.50167e-05,-3.86653e-07,-1.15358e-05,1.58087e-05,-1.04055e-05,3.69385e-05,3.75649e-07,0
-2.99772e-05,1.72201e-05,-6.94035e-07,-1.35605e-05,1.31428e-05,-9.36036e-06,2.81901e-05,6.74481e-07,0
-2.86471e-05,1.75867e-05,-1.88885e-06,-1.25086e-05,1.11422e-05,-9.60165e-06,1.23943e-05,9.36196e-07,0
-2.75874e-05,1.91792e-05,-2.50533e-06,-1.14081e-05,1.18438e-05,-9.63922e-06,-1.23086e-06,1.57675e-06,0
-2.68799e-05,2.04084e-05,-2.36648e-06,-8.84544e-06,1.46069e-05,-1.07878e-05,-6.16021e-06,3.19292e-06,0
-2.61234e-05,2.00119e-05,-2.47374e-06,-8.3621e-06,1.55938e-05,-1.22962e-05,-3.72417e-06,2.56348e-06,0
-2.51055e-05,1.855e-05,-3.32615e-06,-1.16133e-05,1.30669e-05,-1.18823e-05,2.40195e-06,-2.234e-08,0
-2.52037e-05,1.67585e-05,-3.94455e-06,-1.53393e-05,1.03139e-05,-9.10576e-06,5.38343e-06,-1.66481e-06,0
-2.70441e-05,1.36079e-05,-3.61423e-06,-1.78533e-05,8.42091e-06,-6.635e-06,7.42294e-06,-5.26361e-07,0
-2.86529e-05,9.48597e-06,-3.04293e-06,-1.75419e-05,7.98693e-06,-5.61589e-06,1.22793e-05,4.52807e-08,0
-2.90573e-05,7.69912e-06,-2.14621e-06,-1.16663e-05,8.62089e-06,-5.76143e-06,1.73856e-05,-1.54916e-06,0
-2.83252e-05,8.81363e-06,-1.7932e-06,-2.71635e-06,1.06124e-05,-6.08242e-06,1.88379e-05,-3.01527e-06,0
-2.7987e-05,1.07464e-05,-2.44631e-06,3.83057e-06,1.43721e-05,-5.7139e-06,1.76626e-05,-3.50894e-06,0
-2.86154e-05,1.2555e-05,-4.1622e-06,5.22672e-06,1.78888e-05,-5.68918e-06,1.68011e-05,-2.5808e-06,0
-2.86683e-05,1.35134e-05,-5.18771e-06,8.9297e-07,1.66101e-05,-5.79157e-06,1.68901e-05,-2.33442e-06,0
-2.75168e-05,1.29494e-05,-5.43183e-06,-7.73177e-06,1.02007e-05,-5.50767e-06,1.69015e-05,-4.09108e-06,0
-2.64498e-05,1.05579e-05,-6.04586e-06,-1.90515e-05,4.55628e-06,-4.94959e-06,1.53638e-05,-5.88225e-06,0
-2.70643e-05,6.18421e-06,-6.52395e-06,-2.87556e-05,3.29349e-06,-4.97968e-06,1.20077e-05,-5.29559e-06,0
-2.91045e-05,2.50871e-06,-6.85368e-06,-3.04351e-05,4.98911e-06,-5.95209e-06,9.03883e-06,-2.85036e-06,0
-3.07617e-05,2.20261e-06,-8.12575e-06,-2.24684e-05,7.75703e-06,-7.27897e-06,8.26234e-06,-7.27138e-07,0
-3.08642e-05,4.14301e-06,-1.02785e-05,-9.82278e-06,1.26104e-05,-8.12328e-06,9.03197e-06,2.06959e-07,0
-3.10975e-05,6.18974e-06,-1.12459e-05,1.14766e-06,1.97241e-05,-7.0852e-06,1.00238e-05,-4.54301e-07,0
-3.19774e-05,7.06606e-06,-1.11487e-05,5.67697e-06,2.58025e-05,-4.12474e-06,9.08439e-06,-1.44163e-06,0
-3.16692e-05,7.11262e-06,-1.03927e-05,5.18996e-06,2.8033e-05,-1.68398e-06,6.52688e-06,-8.12769e-07,0
-3.02774e-05,7.85504e-06,-9.06892e-06,3.1707e-06,2.56632e-05,-1.55858e-06,4.04796e-06,-1.27893e-06,0
-2.88223e-05,9.1083e-06,-7.41738e-06,2.44907e-06,2.24082e-05,-2.21771e-06,3.26235e-06,-4.96988e-06,0
-2.83291e-05,9.60454e-06,-6.37637e-06,3.1226e-06,2.29342e-05,-1.74913e-06,3.8409e-06,-7.63091e-06,0
-2.97143e-05,9.144e-06,-8.34939e-06,4.02961e-06,2.57197e-05,-1.48452e-06,4.14247e-06,-5.79155e-06,0
-3.12592e-05,8.00413e-06,-1.03838e-05,3.9163e-06,2.72037e-05,-1.28914e-06,6.37562e-06,-3.83744e-06,0
-3.06689e-05,6.25737e-06,-1.06826e-05,1.8487e-06,2.61434e-05,-2.07625e-06,1.27284e-05,-3.21989e-06,0
-2.89755e-05,4.7196e-06,-1.05662e-05,-9.01429e-07,2.34238e-05,-3.42418e-06,2.16306e-05,-3.39559e-06,0
-2.76733e-05,3.96726e-06,-1.00832e-05,-2.19473e-06,2.12405e-05,-3.46096e-06,2.96335e-05,-4.39265e-06,0
-2.68938e-05,5.56498e-06,-1.07766e-05,-1.44531e-06,1.9974e-05,-3.78488e-06,3.47544e-05,-4.8088e-06,0
-2.65716e-05,9.78196e-06,-1.04791e-05,-1.27592e-06,1.80326e-05,-3.8522e-06,3.70122e-05,-5.91586e-06,0
-2.71923e-05,1.31798e-05,-9.9156e-06,-1.64578e-06,1.6585e-05,-3.38155e-06,3.5884e-05,-6.88831e-06,0
-2.82121e-05,1.58348e-05,-9.38645e-06,-2.85844e-06,1.43415e-05,-2.70994e-06,3.2067e-05,-7.05232e-06,0
-2.80002e-05,1.9897e-05,-9.09966e-06,-4.53174e-06,1.06042e-05,-3.21123e-06,2.32552e-05,-7.20266e-06,0
-2.74362e-05,2.33269e-05,-9.28689e-06,-4.54032e-06,6.97458e-06,-5.11056e-06,5.676e-06,-8.55647e-06,0
-2.75915e-05,2.35179e-05,-9.02648e-06,-3.63071e-06,5.06291e-06,-6.68097e-06,-1.51523e-05,-1.00281e-05,0
-2.82152e-05,2.07695e-05,-8.66309e-06,-4.06305e-06,4.77438e-06,-7.12858e-06,-3.0093e-05,-1.02841e-05,0
-2.98775e-05,1.68245e-05,-8.5805e-06,-5.41473e-06,5.91291e-06,-6.87395e-06,-3.47409e-05,-9.32913e-06,0
-3.25076e-05,1.25024e-05,-9.36378e-06,-6.87968e-06,7.49637e-06,-6.59891e-06,-3.17789e-05,-7.49911e-06,0
-3.3986e-05,8.75438e-06,-9.76723e-06,-8.93015e-06,7.26343e-06,-6.93719e-06,-2.64254e-05,-5.2333e-06,0
-3.36871e-05,6.18814e-06,-1.06303e-05,-1.02587e-05,6.10801e-06,-7.1506e-06,-2.02367e-05,-3.47582e-06,0
-3.31813e-05,5.00014e-06,-1.2238e-05,-1.04683e-05,5.1554e-06,-6.50614e-06,-1.48746e-05,-2.42324e-06,0
-3.37214e-05,5.279e-06,-1.46933e-05,-1.08314e-05,5.05441e-06,-5.40827e-06,-1.29721e-05,-5.06532e-07,0
-3.4854e-05,7.24362e-06,-1.65996e-05,-1.16343e-05,4.62682e-06,-4.59645e-06,-1.07563e-05,1.81672e-06,0
-3.46539e-05,1.08471e-05,-1.68085e-05,-1.12069e-05,3.11651e-06,-5.0835e-06,-2.16497e-06,1.99521e-06,0
-3.24453e-05,1.33283e-05,-1.57759e-05,-8.44529e-06,1.9875e-06,-6.18316e-06,9.80347e-06,1.08802e-06,0
-3.08713e-05,1.24853e-05,-1.41222e-05,-3.34637e-06,3.94312e-06,-6.98361e-06,1.70999e-05,1.48888e-06,0
-2.9961e-05,9.78716e-06,-1.20368e-05,2.14901e-06,7.55542e-06,-7.59831e-06,1.8579e-05,8.19488e-07,0
-2.87466e-05,6.68981e-06,-1.09076e-05,5.70713e-06,8.24412e-06,-9.23796e-06,1.85252e-05,2.68747e-07,0
-2.89601e-05,3.45219e-06,-1.1211e-05,7.19983e-06,4.9378e-06,-1.17622e-05,1.85665e-05,2.76614e-06,0
-3.03343e-05,1.74372e-06,-1.26398e-05,4.50225e-06,3.37805e-06,-1.60321e-05,1.86786e-05,3.80352e-06,0
-3.22961e-05,7.06425e-07,-1.27581e-05,-1.91988e-06,4.43537e-06,-1.8933e-05,1.85989e-05,1.46329e-06,0
-3.41004e-05,-3.77309e-07,-1.00216e-05,-6.77754e-06,5.83622e-06,-1.89113e-05,1.96635e-05,2.63091e-07,0
-3.42751e-05,-2.47474e-06,-9.52632e-06,-1.02171e-05,8.81927e-06,-1.87649e-05,2.14669e-05,-5.5886e-07,0
-3.22081e-05,-6.49374e-06,-1.01205e-05,-1.40398e-05,1.14287e-05,-1.84492e-05,2.27127e-05,-1.54025e-06,0
-2.96122e-05,-7.65715e-06,-1.0093e-05,-1.55454e-05,1.14129e-05,-1.71573e-05,2.21639e-05,1.17727e-07,0
-2.65379e-05,-3.37306e-06,-9.68588e-06,-1.31993e-05,1.00042e-05,-1.44499e-05,1.99976e-05,3.24489e-06,0
-2.50559e-05,2.30234e-06,-8.07977e-06,-1.04867e-05,9.75137e-06,-1.28181e-05,1.66284e-05,6.08926e-06,0
-2.59905e-05,4.49347e-06,-6.88134e-06,-1.10017e-05,1.1476e-05,-1.10643e-05,1.37397e-05,8.11226e-06,0
-2.5937e-05,3.37258e-06,-5.50424e-06,-1.25431e-05,1.38809e-05,-8.31461e-06,1.46346e-05,8.17184e-06,0
-2.578e-05,1.46113e-06,-4.15908e-06,-1.05919e-05,1.4854e-05,-5.39923e-06,1.67444e-05,7.01401e-06,0
-2.68978e-05,-4.99404e-07,-3.18911e-06,-4.87323e-06,1.3163e-05,-3.46342e-06,1.82331e-05,5.62114e-06,0
-2.85896e-05,-2.0446e-06,-1.55666e-06,3.17123e-07,1.02093e-05,-3.99969e-06,1.77101e-05,5.33278e-06,0
-2.92611e-05,-2.61293e-06,1.47701e-06,3.07721e-06,9.16755e-06,-5.32178e-06,1.51295e-05,6.64093e-06,0
-3.0037e-05,-2.85178e-06,3.63144e-06,2.80536e-06,9.73411e-06,-6.32683e-06,1.30745e-05,8.37171e-06,0
-3.18618e-05,-3.69486e-06,2.71364e-06,-1.00987e-06,1.03128e-05,-6.62018e-06,1.37311e-05,8.5129e-06,0
-3.33439e-05,-4.29482e-06,-5.46964e-07,-7.02372e-06,9.83842e-06,-6.85702e-06,1.62322e-05,6.61078e-06,0
-3.29489e-05,-4.11324e-06,-3.31058e-06,-1.42482e-05,9.84339e-06,-8.07775e-06,1.8278e-05,4.85159e-06,0
-3.15974e-05,-3.91321e-06,-3.04352e-06,-2.21731e-05,1.09956e-05,-9.98215e-06,1.83946e-05,3.89621e-06,0
-3.14244e-05,-4.04926e-06,-1.53029e-06,-2.5648e-05,1.32045e-05,-9.84196e-06,1.7513e-05,3.91534e-06,0
-3.27757e-05,-3.98614e-06,-1.4016e-06,-2.00225e-05,1.78136e-05,-7.34688e-06,1.78121e-05,4.68172e-06,0
-3.42231e-05,-2.61793e-06,-2.67623e-06,-1.08146e-05,2.39596e-05,-6.00951e-06,1.86094e-05,6.62791e-06,0
-3.44026e-05,8.2729e-07,-3.77729e-06,-4.43646e-06,2.79041e-05,-6.33957e-06,1.89988e-05,8.0626e-06,0
-3.41072e-05,4.63822e-06,-3.66655e-06,-2.67082e-07,2.85857e-05,-6.63979e-06,1.88997e-05,6.97002e-06,0
-3.29753e-05,5.16442e-06,-1.7524e-06,3.29993e-06,2.79089e-05,-5.83554e-06,1.85166e-05,4.16685e-06,0
-3.05483e-05,2.99354e-06,1.58004e-07,6.1959e-06,2.5566e-05,-4.48465e-06,1.61336e-05,2.10843e-06,0
-2.86048e-05,1.69539e-06,1.22084e-06,6.67594e-06,2.39754e-05,-3.96392e-06,6.27952e-06,2.67786e-06,0
-2.86139e-05,3.16853e-06,1.16591e-06,3.82357e-06,2.42948e-05,-3.78783e-06,-1.28582e-05,3.81838e-06,0
-2.86412e-05,5.25674e-06,-2.14421e-06,2.61707e-06,2.18748e-05,-5.22353e-06,-2.49534e-05,3.3662e-06,0
-2.78236e-05,5.90725e-06,-8.34567e-06,2.90389e-06,1.67609e-05,-6.88059e-06,-2.08674e-05,1.93514e-06,0
-2.80157e-05,5.24634e-06,-1.49174e-05,3.525e-06,1.32365e-05,-7.43154e-06,-8.32431e-06,2.43022e-06,0
-2.86403e-05,4.35054e-06,-1.82729e-05,4.60418e-06,1.2207e-05,-6.90462e-06,7.54207e-06,3.64626e-06,0
-2.89019e-05,6.77718e-06,-1.83553e-05,4.54227e-06,1.18876e-05,-5.28678e-06,2.33198e-05,3.72238e-06,0
-2.91903e-05,1.17592e-05,-1.78805e-05,3.59711e-06,8.80934e-06,-5.79806e-06,3.69825e-05,1.80916e-06,0
-2.94877e-05,1.61393e-05,-1.54438e-05,1.37422e-06,5.73882e-06,-7.62111e-06,4.43606e-05,-1.72135e-06,0
-2.98509e-05,1.89773e-05,-1.1708e-05,-1.47751e-06,5.55649e-06,-8.91558e-06,4.49443e-05,-2.5613e-06,0
-2.98537e-05,2.14872e-05,-8.45887e-06,-2.60727e-06,6.06285e-06,-1.035e-05,4.28692e-05,-1.78953e-06,0
-3.00631e-05,2.34131e-05,-4.1273e-06,-1.12361e-06,5.62014e-06,-1.17171e-05,4.15967e-05,-1.48228e-06,0
-3.07012e-05,2.39785e-05,2.77286e-06,1.97849e-07,4.42637e-06,-1.22497e-05,4.04103e-05,-2.52462e-06,0
-3.03904e-05,2.43312e-05,1.21332e-05,4.91858e-07,4.03278e-06,-1.28669e-05,3.84167e-05,-3.42603e-06,0
-2.78875e-05,2.42944e-05,2.40147e-05,1.04849e-06,4.03594e-06,-1.4154e-05,3.5388e-05,-2.96216e-06,0
-2.62112e-05,2.34756e-05,3.88359e-05,4.26182e-06,3.15793e-06,-1.51968e-05,3.02476e-05,-9.3018e-08,0
-2.74944e-05,2.20895e-05,5.20448e-05,7.2222e-06,1.43355e-06,-1.51698e-05,2.46142e-05,3.74379e-06,0
-2.93169e-05,1.92839e-05,5.53801e-05,7.40923e-06,9.88425e-07,-1.37697e-05,2.02163e-05,5.16843e-06,0
-2.99945e-05,1.54561e-05,4.31087e-05,6.45291e-06,3.52475e-06,-1.22098e-05,1.79681e-05,4.78585e-06,0
-2.98382e-05,1.41263e-05,1.54223e-05,4.76717e-06,7.03283e-06,-1.18459e-05,1.88116e-05,3.42823e-06,0
-2.97602e-05,1.48035e-05,-1.97269e-05,1.54879e-06,7.14628e-06,-1.19035e-05,2.53048e-05,2.56737e-06,0
-2.99574e-05,1.40687e-05,-4.93667e-05,-1.69147e-06,5.16522e-06,-1.21837e-05,3.5472e-05,2.36497e-06,0
-3.05062e-05,1.25075e-05,-6.73443e-05,-2.91969e-06,5.52712e-06,-1.20956e-05,4.32675e-05,2.1064e-06,0
-3.11204e-05,1.2084e-05,-7.47453e-05,-3.55071e-06,6.38738e-06,-1.10394e-05,4.48534e-05,2.49336e-06,0
-3.09118e-05,1.29866e-05,-7.25109e-05,-3.04501e-06,5.09459e-06,-1.0412e-05,3.91264e-05,5.63714e-06,0
-2.93754e-05,1.57598e-05,-6.47786e-05,2.89281e-06,3.35208e-06,-1.14414e-05,3.00285e-05,8.29752e-06,0
-2.89948e-05,1.88042e-05,-5.84761e-05,1.4251e-05,3.13127e-06,-1.36127e-05,2.1552e-05,7.98744e-06,0
-3.02624e-05,1.99903e-05,-5.62658e-05,1.95255e-05,4.27374e-06,-1.46321e-05,1.26432e-05,7.5092e-06,0
-3.06151e-05,2.13317e-05,-5.18264e-05,1.50291e-05,4.5791e-06,-1.37596e-05,-1.88088e-07,7.72571e-06,0
-2.9573e-05,2.16414e-05,-4.02147e-05,7.33397e-06,3.69989e-06,-1.34642e-05,-1.67623e-05,8.50758e-06,0
-2.96367e-05,2.10792e-05,-2.48849e-05,1.67909e-06,3.55217e-06,-1.52177e-05,-2.96316e-05,8.23372e-06,0
-3.07593e-05,2.27075e-05,-1.29577e-05,-3.7265e-07,6.09502e-06,-1.56584e-05,-3.4841e-05,6.58581e-06,0
-3.05297e-05,2.41069e-05,-6.21129e-06,7.8984e-07,1.04289e-05,-1.35418e-05,-3.27458e-05,5.78648e-06,0
-3.01079e-05,2.42549e-05,-2.48279e-06,4.99348e-06,1.2707e-05,-1.10131e-05,-2.73918e-05,4.69299e-06,0
-2.99528e-05,2.35914e-05,-1.65513e-06,5.43737e-06,9.14029e-06,-8.40906e-06,-2.12822e-05,3.13558e-06,0
-2.98506e-05,2.32119e-05,-1.56204e-06,-3.88813e-06,3.82281e-06,-7.04802e-06,-1.55921e-05,1.52602e-06,0
-3.10545e-05,2.34508e-05,-2.30952e-06,-1.90923e-05,3.42609e-06,-7.69004e-06,-1.14705e-05,1.25469e-06,0
-3.2973e-05,2.57903e-05,-3.78555e-06,-3.08022e-05,5.45835e-06,-9.26205e-06,-8.12308e-06,2.39801e-06,0
-3.42637e-05,2.91976e-05,-5.54235e-06,-3.2541e-05,7.00145e-06,-1.00273e-05,-5.33955e-06,3.61791e-06,0
-3.46785e-05,3.10161e-05,-5.47118e-06,-2.53434e-05,7.97155e-06,-1.01899e-05,-2.07081e-06,4.23903e-06,0
-3.38835e-05,3.12799e-05,-4.22714e-06,-1.54227e-05,7.40547e-06,-1.15976e-05,1.00043e-06,3.548e-06,0
-3.22202e-05,3.11451e-05,-3.85398e-06,-7.725e-06,5.57382e-06,-1.30144e-05,3.63723e-06,2.32478e-06,0
-3.09437e-05,3.18286e-05,-4.46095e-06,-2.6568e-06,5.70021e-06,-1.3242e-05,7.05329e-06,7.00726e-07,0
-3.15524e-05,3.17169e-05,-5.26651e-06,8.00355e-07,7.99697e-06,-1.29297e-05,1.3513e-05,-1.04129e-06,0
-3.36616e-05,3.0064e-05,-5.24383e-06,3.3566e-06,1.00384e-05,-1.27503e-05,2.07449e-05,-2.4032e-06,0
-3.51909e-05,2.81205e-05,-4.76954e-06,4.60183e-06,1.16379e-05,-1.27072e-05,2.52997e-05,-3.0729e-06,0
-3.54066e-05,2.7257e-05,-3.96087e-06,3.51443e-06,1.34597e-05,-1.3634e-05,2.53655e-05,-3.53268e-06,0
-3.48358e-05,2.62368e-05,-2.69347e-06,8.73549e-07,1.51658e-05,-1.48013e-05,2.17434e-05,-2.92131e-06,0
-3.39924e-05,2.57723e-05,1.29147e-06,-1.67344e-06,1.68504e-05,-1.44641e-05,1.70524e-05,-1.52764e-06,0
-3.20396e-05,2.60888e-05,6.86015e-06,-4.61818e-06,1.81685e-05,-1.33338e-05,1.31014e-05,-3.41598e-08,0
-2.94054e-05,2.64489e-05,1.28674e-05,-9.5118e-06,1.81007e-05,-1.20179e-05,1.07851e-05,4.73371e-07,0
-2.8482e-05,2.50377e-05,1.67297e-05,-1.81689e-05,1.85271e-05,-1.17867e-05,9.60783e-06,-1.96785e-07,0
-2.95397e-05,2.13153e-05,1.4386e-05,-2.722e-05,2.10911e-05,-1.37011e-05,8.01092e-06,-1.70737e-06,0
-3.10296e-05,1.84946e-05,6.21088e-06,-3.15526e-05,2.37921e-05,-1.42891e-05,7.16187e-06,-2.88819e-06,0
-3.24124e-05,1.78357e-05,-3.78252e-06,-3.24548e-05,2.55073e-05,-1.21641e-05,7.26824e-06,-2.82866e-06,0
-3.3503e-05,1.88567e-05,-1.57142e-05,-3.15312e-05,2.41815e-05,-9.94122e-06,7.71848e-06,-2.86997e-06,0
-3.36253e-05,2.05343e-05,-2.65495e-05,-2.8636e-05,2.29934e-05,-7.85842e-06,9.87174e-06,-3.23844e-06,0
-3.4284e-05,2.27154e-05,-3.342e-05,-2.23577e-05,2.48694e-05,-5.23583e-06,1.19636e-05,-4.1892e-06,0
-3.51018e-05,2.43451e-05,-3.48826e-05,-1.69842e-05,2.54995e-05,-4.35678e-06,1.08848e-05,-3.82754e-06,0
-3.40807e-05,2.21438e-05,-2.963e-05,-1.50664e-05,2.57383e-05,-6.08355e-06,6.44766e-06,-2.55711e-06,0
-3.32092e-05,2.04104e-05,-2.16588e-05,-1.40327e-05,2.59847e-05,-6.85127e-06,1.93312e-06,-2.02094e-06,0
-3.20142e-05,2.24447e-05,-1.44311e-05,-1.37562e-05,2.54922e-05,-6.94718e-06,4.86443e-07,-8.42411e-07,0
-3.07456e-05,2.55565e-05,-1.18887e-05,-1.33432e-05,2.36834e-05,-7.9083e-06,4.56149e-06,1.45329e-07,0
-3.19508e-05,2.67927e-05,-1.22759e-05,-1.31773e-05,2.27476e-05,-8.72244e-06,1.15805e-05,-7.40902e-07,0
-3.2698e-05,2.62305e-05,-1.16947e-05,-1.25325e-05,2.31595e-05,-9.43898e-06,1.87781e-05,-1.95154e-06,0
-3.06856e-05,2.64174e-05,-9.10492e-06,-1.0417e-05,2.3651e-05,-9.76718e-06,2.41151e-05,-9.44446e-07,0
-2.84532e-05,2.69772e-05,-7.7024e-06,-5.93288e-06,2.42794e-05,-8.56422e-06,2.49393e-05,1.41758e-06,0
-2.82269e-05,2.69456e-05,-7.67028e-06,-1.9727e-06,2.4183e-05,-7.01528e-06,2.30841e-05,3.22044e-06,0
-3.00725e-05,2.55364e-05,-7.52386e-06,-1.75206e-06,2.29999e-05,-5.46589e-06,2.1282e-05,3.57761e-06,0
-3.23514e-05,2.39662e-05,-7.65045e-06,-3.35771e-06,2.16992e-05,-3.15849e-06,1.96713e-05,2.66914e-06,0
-3.35673e-05,2.29893e-05,-6.59155e-06,-3.43735e-06,2.19709e-05,-1.5668e-06,1.86542e-05,1.87512e-06,0
-3.41807e-05,2.24416e-05,-3.90063e-06,-1.0119e-06,2.40562e-05,-2.12888e-06,1.78896e-05,1.93228e-06,0
-3.49073e-05,2.06409e-05,-1.55792e-06,-1.52047e-08,2.76557e-05,-3.56985e-06,1.47486e-05,1.58017e-06,0
-3.53172e-05,1.84737e-05,-3.90641e-07,-6.32886e-07,3.13167e-05,-3.83865e-06,9.04282e-06,-1.68296e-07,0
-3.48684e-05,1.66868e-05,1.52211e-06,1.77901e-07,3.41709e-05,-3.76862e-06,4.54548e-06,-1.76589e-06,0
-3.40653e-05,1.43338e-05,3.66384e-06,1.96762e-06,3.47471e-05,-3.75364e-06,5.09341e-06,-2.64376e-06,0
-3.34766e-05,1.22126e-05,5.00463e-06,1.66396e-06,3.35408e-05,-2.99294e-06,9.53268e-06,-2.53343e-06,0
-3.21541e-05,1.08935e-05,5.47417e-06,-2.7146e-07,3.01443e-05,-2.66422e-06,1.28126e-05,-1.03021e-06,0
-2.97688e-05,9.99078e-06,4.1799e-06,-2.57204e-06,2.46274e-05,-2.21872e-06,1.33796e-05,-8.85501e-07,0
-2.85453e-05,9.35259e-06,-1.44993e-06,-5.85541e-06,1.91043e-05,2.69327e-08,1.60085e-05,-2.35364e-06,0
-2.87213e-05,9.47181e-06,-1.08852e-05,-7.43944e-06,1.46603e-05,2.28951e-06,2.178e-05,-1.8896e-06,0
-2.92826e-05,9.93402e-06,-1.86915e-05,-5.41206e-06,1.20204e-05,2.40018e-06,2.66315e-05,2.74283e-07,0
-2.99935e-05,1.09811e-05,-2.18239e-05,-1.99852e-06,1.26491e-05,-1.81371e-06,2.95232e-05,5.51925e-07,0
-3.10082e-05,1.32904e-05,-2.31676e-05,2.9104e-07,1.36751e-05,-7.16848e-06,2.99959e-05,-9.84719e-08,0
-3.2232e-05,1.42735e-05,-2.13952e-05,1.10189e-06,1.22421e-05,-8.48125e-06,2.85074e-05,1.22466e-06,0
-3.20774e-05,1.44467e-05,-1.54991e-05,4.5545e-07,1.08075e-05,-5.60311e-06,2.61319e-05,1.39276e-06,0
-2.98173e-05,1.53975e-05,-9.85235e-06,-2.51265e-06,9.6016e-06,-1.23356e-06,2.33297e-05,8.00826e-07,0
-2.92763e-05,1.48476e-05,-6.43583e-06,-6.24768e-06,8.57647e-06,6.93039e-07,2.07575e-05,1.14274e-06,0
-3.04594e-05,1.27314e-05,-4.47535e-06,-9.66169e-06,7.6505e-06,-1.13743e-06,1.87727e-05,2.89385e-07,0
-3.00407e-05,1.06956e-05,-3.66942e-06,-1.10998e-05,6.72726e-06,-2.96682e-06,1.74693e-05,-3.41344e-07,0
-3.00032e-05,9.47028e-06,-4.71526e-06,-9.41875e-06,5.79728e-06,-2.14987e-06,1.5345e-05,1.90948e-07,0
-3.13157e-05,7.56944e-06,-4.67828e-06,-7.3664e-06,4.21539e-06,-1.48705e-06,1.23637e-05,5.1067e-07,0
-3.17867e-05,5.36509e-06,-2.14346e-06,-3.9022e-06,5.06427e-06,-3.25106e-06,9.12923e-06,2.38547e-07,0
-2.96738e-05,5.18012e-06,4.96501e-07,1.30998e-06,1.02791e-05,-6.06834e-06,5.48905e-06,-2.48946e-07,0
-2.72427e-05,6.95847e-06,1.89421e-06,5.21243e-06,1.86004e-05,-7.65459e-06,1.36253e-06,-6.58445e-07,0
-2.52132e-05,8.48951e-06,2.34774e-06,6.49469e-06,2.8177e-05,-9.15735e-06,-3.12237e-06,-1.11946e-06,0
-2.43378e-05,8.38055e-06,1.75969e-06,8.57529e-06,3.58309e-05,-1.11649e-05,-1.0266e-05,-1.37437e-06,0
-2.47779e-05,6.36032e-06,9.35554e-07,1.2861e-05,3.7745e-05,-1.30621e-05,-2.02544e-05,-1.5515e-06,0
-2.6168e-05,3.35736e-06,1.02651e-06,1.68947e-05,3.35145e-05,-1.52272e-05,-2.5843e-05,-2.80251e-06,0
-2.80606e-05,8.87915e-07,7.41144e-07,1.95282e-05,2.77134e-05,-1.78787e-05,-2.08219e-05,-4.43975e-06,0
-2.8977e-05,-5.92687e-07,-8.51892e-07,2.07805e-05,2.28599e-05,-1.94113e-05,-6.79632e-06,-5.14475e-06,0
-2.92589e-05,-2.04061e-06,-2.9849e-06,2.17148e-05,1.97656e-05,-1.8808e-05,1.01916e-05,-5.09959e-06,0
-2.96665e-05,-4.18372e-06,-5.17001e-06,2.2781e-05,1.85106e-05,-1.80526e-05,2.49086e-05,-4.99198e-06,0
-2.98969e-05,-5.99481e-06,-6.7825e-06,2.14453e-05,1.7645e-05,-1.8636e-05,3.41852e-05,-4.35365e-06,0
-2.87936e-05,-4.93375e-06,-6.98754e-06,1.45088e-05,1.56746e-05,-2.04835e-05,3.84959e-05,-3.77941e-06,0
-2.79086e-05,-3.93796e-07,-6.86395e-06,6.19175e-06,1.27445e-05,-2.15469e-05,4.00248e-05,-4.39228e-06,0
-2.76327e-05,4.57911e-06,-6.22344e-06,4.15618e-07,9.5541e-06,-1.95383e-05,3.9504e-05,-5.17966e-06,0
-2.74758e-05,8.05494e-06,-4.56832e-06,-5.92675e-06,6.54877e-06,-1.53655e-05,3.5965e-05,-5.65333e-06,0
-2.78628e-05,1.04422e-05,-5.23723e-06,-1.29958e-05,5.04841e-06,-1.25154e-05,3.0964e-05,-7.236e-06,0
-2.85727e-05,1.17816e-05,-8.65434e-06,-1.35348e-05,6.79992e-06,-1.13832e-05,2.99356e-05,-7.80577e-06,0
-2.94306e-05,1.41255e-05,-1.24185e-05,-2.04231e-06,9.527e-06,-9.03411e-06,3.58314e-05,-5.77788e-06,0
-3.05153e-05,1.66658e-05,-1.54712e-05,1.18868e-05,1.10798e-05,-6.75579e-06,4.41833e-05,-5.41225e-06,0
-2.95526e-05,1.77378e-05,-1.76837e-05,1.3694e-05,1.19199e-05,-8.10421e-06,4.89659e-05,-5.03951e-06,0
-2.80167e-05,1.91947e-05,-1.78981e-05,4.71319e-06,1.14002e-05,-1.05012e-05,4.93302e-05,-4.74867e-06,0
-2.82235e-05,1.89669e-05,-1.54739e-05,-3.62216e-06,9.65508e-06,-9.81078e-06,4.56314e-05,-5.32727e-06,0
-2.93642e-05,1.58348e-05,-1.14788e-05,-7.69784e-06,7.02275e-06,-6.41358e-06,3.82018e-05,-4.54581e-06,0
-2.97397e-05,1.28353e-05,-7.94985e-06,-1.14035e-05,6.34148e-06,-2.92902e-06,2.53182e-05,-3.28278e-06,0
-2.92901e-05,1.17757e-05,-6.76398e-06,-1.48847e-05,7.68827e-06,-5.38904e-07,4.09829e-06,-2.38426e-06,0
-2.84951e-05,1.04053e-05,-5.52074e-06,-1.8548e-05,8.32093e-06,8.51199e-07,-2.07249e-05,-3.16025e-06,0
-2.79807e-05,8.26549e-06,-4.04256e-06,-2.41939e-05,7.6068e-06,7.33241e-07,-3.81987e-05,-3.8425e-06,0
-2.80781e-05,8.072e-06,-4.02747e-06,-3.31383e-05,6.21656e-06,2.38822e-07,-4.34263e-05,-3.8979e-06,0
-2.82908e-05,8.8585e-06,-5.59087e-06,-4.13535e-05,4.08272e-06,-8.05887e-07,-3.92275e-05,-3.8133e-06,0
-2.88126e-05,8.80415e-06,-7.66867e-06,-4.31895e-05,1.37599e-06,-2.45214e-06,-3.13533e-05,-4.54807e-06,0
-2.94262e-05,8.64128e-06,-9.15937e-06,-3.97745e-05,2.02477e-07,-2.67106e-06,-2.3354e-05,-4.71331e-06,0
-3.06164e-05,9.66686e-06,-9.53591e-06,-3.51433e-05,1.76673e-06,-2.7053e-06,-1.36052e-05,-3.22631e-06,0
-3.10346e-05,9.9056e-06,-9.26903e-06,-3.28227e-05,3.79362e-06,-4.00169e-06,-2.31936e-06,-7.85452e-07,0
-3.05081e-05,8.14906e-06,-1.10363e-05,-3.34623e-05,2.64893e-06,-5.38737e-06,6.87919e-06,9.84223e-07,0
-2.90841e-05,7.7328e-06,-1.44771e-05,-3.73193e-05,-1.66718e-06,-5.85018e-06,1.2758e-05,6.52152e-07,0
-2.89067e-05,1.02962e-05,-1.6406e-05,-4.45623e-05,-6.48536e-06,-6.05479e-06,1.76124e-05,-1.94609e-07,0
-3.13156e-05,1.28145e-05,-1.50524e-05,-5.19656e-05,-8.70688e-06,-6.9715e-06,2.22109e-05,5.78741e-07,0
-3.42173e-05,1.33304e-05,-1.0599e-05,-5.1219e-05,-7.63248e-06,-9.26439e-06,2.57631e-05,4.12778e-06,0
-3.44378e-05,1.17985e-05,-5.61055e-06,-3.63679e-05,-4.22723e-06,-1.18034e-05,2.79225e-05,6.96558e-06,0
-3.24355e-05,9.35594e-06,-4.10687e-06,-1.08565e-05,-1.19113e-06,-1.23481e-05,2.90265e-05,7.2914e-06,0
-3.06232e-05,9.36347e-06,-6.36969e-06,1.39702e-05,-1.70082e-07,-1.11778e-05,2.92508e-05,7.18417e-06,0
-2.93717e-05,1.02388e-05,-9.32233e-06,2.806e-05,1.58321e-06,-1.07471e-05,2.79865e-05,7.49628e-06,0
-2.89269e-05,1.06825e-05,-9.61813e-06,3.19046e-05,4.58608e-06,-9.70344e-06,2.44939e-05,6.70421e-06,0
-2.80054e-05,1.13407e-05,-5.12458e-06,3.40879e-05,9.33244e-06,-6.55787e-06,2.05976e-05,5.3266e-06,0
-2.64315e-05,1.29167e-05,5.89416e-07,3.46761e-05,1.43468e-05,-4.61427e-06,1.6919e-05,4.57647e-06,0
-2.63008e-05,1.42306e-05,3.98037e-06,3.128e-05,1.72263e-05,-3.76533e-06,1.31327e-05,4.01415e-06,0
-2.60613e-05,1.39799e-05,3.75292e-06,2.39296e-05,1.78953e-05,-2.19367e-06,7.31568e-06,2.93709e-06,0
-2.59399e-05,1.14841e-05,-5.9947e-07,1.44468e-05,1.39453e-05,-2.44635e-06,1.0505e-06,3.30907e-06,0
-2.94697e-05,5.16063e-06,-5.23964e-06,6.98596e-06,1.02195e-05,-5.03822e-06,1.62257e-06,5.52376e-06,0
-3.15685e-05,-6.4514e-07,-7.15229e-06,-7.94433e-07,1.15166e-05,-6.63195e-06,7.46374e-06,7.1524e-06,0
-3.02027e-05,-3.08432e-06,-5.31263e-06,-8.03047e-06,1.62191e-05,-7.06559e-06,1.33681e-05,8.08734e-06,0
-2.89321e-05,-4.69077e-06,-2.90855e-06,-1.00704e-05,2.06261e-05,-7.92493e-06,1.56657e-05,9.28734e-06,0
-2.85235e-05,-5.08107e-06,-2.83448e-06,-6.40988e-06,2.1176e-05,-9.60996e-06,1.57307e-05,9.40933e-06,0
-2.8187e-05,-2.79395e-06,-4.67062e-06,-2.29891e-06,1.85291e-05,-1.19193e-05,1.54632e-05,7.95672e-06,0
-2.86683e-05,2.0055e-07,-6.25275e-06,-2.61969e-06,1.57571e-05,-1.33578e-05,1.55587e-05,6.74984e-06,0
-2.91018e-05,2.33334e-06,-6.88526e-06,-8.06491e-06,1.35788e-05,-1.34321e-05,1.59949e-05,6.33674e-06,0
-2.79641e-05,2.27043e-06,-8.55671e-06,-1.44996e-05,1.05741e-05,-1.37659e-05,1.47654e-05,7.41363e-06,0
-2.71362e-05,1.20349e-06,-1.02679e-05,-1.92846e-05,7.43792e-06,-1.42147e-05,6.6901e-06,9.57832e-06,0
-2.83005e-05,4.37571e-07,-1.02374e-05,-2.44188e-05,5.92492e-06,-1.36606e-05,-1.39698e-05,1.13273e-05,0
-3.13029e-05,6.64814e-08,-8.47212e-06,-2.88273e-05,7.21383e-06,-1.32622e-05,-3.72818e-05,1.09939e-05,0
-3.33184e-05,9.15739e-07,-6.47623e-06,-2.71984e-05,8.56629e-06,-1.37713e-05,-4.3832e-05,9.09445e-06,0
-3.28785e-05,3.12563e-06,-5.6802e-06,-1.99979e-05,7.8697e-06,-1.38829e-05,-2.67326e-05,7.02259e-06,0
-3.10436e-05,5.07748e-06,-7.54846e-06,-1.33178e-05,5.62953e-06,-1.27978e-05,1.78447e-06,5.95545e-06,0
-3.01291e-05,6.34255e-06,-1.04902e-05,-9.09446e-06,3.12475e-06,-1.26188e-05,2.72361e-05,6.72135e-06,0
-3.05199e-05,8.65301e-06,-1.17686e-05,-7.54525e-06,1.5074e-06,-1.57357e-05,4.36502e-05,7.59804e-06,0
-3.13595e-05,1.09872e-05,-9.75975e-06,-7.30313e-06,1.51648e-06,-1.96709e-05,5.25922e-05,6.51006e-06,0
-3.15854e-05,1.22321e-05,-6.86133e-06,-5.94168e-06,3.77371e-06,-2.1127e-05,5.54684e-05,4.96463e-06,0
-3.03764e-05,1.25903e-05,-5.72201e-06,-4.67426e-06,7.92399e-06,-1.99368e-05,5.16067e-05,4.33151e-06,0
-2.86084e-05,1.25493e-05,-5.30052e-06,-4.74704e-06,1.22472e-05,-1.74215e-05,4.53845e-05,4.54287e-06,0
-2.74293e-05,1.20224e-05,-6.16721e-06,-7.04124e-06,1.53879e-05,-1.56898e-05,4.2124e-05,4.67507e-06,0
-2.67581e-05,9.23816e-06,-7.7774e-06,-1.0968e-05,1.66146e-05,-1.49988e-05,4.01978e-05,3.60109e-06,0
-2.58402e-05,6.6071e-06,-8.24408e-06,-1.13452e-05,1.66155e-05,-1.64694e-05,3.75042e-05,3.06332e-06,0
-2.62244e-05,7.33086e-06,-6.93011e-06,-8.71473e-06,1.6875e-05,-1.85302e-05,3.43438e-05,2.37794e-06,0
-2.72996e-05,7.78474e-06,-5.39079e-06,-6.09826e-06,1.69871e-05,-1.85966e-05,3.179e-05,1.71742e-06,0
-2.68564e-05,6.83316e-06,-4.96272e-06,-4.44962e-06,1.68129e-05,-1.7371e-05,2.99285e-05,5.40995e-07,0
-2.68672e-05,6.26805e-06,-5.06766e-06,-2.40896e-06,1.73397e-05,-1.59257e-05,2.56568e-05,-2.30552e-06,0
-2.73059e-05,6.96532e-06,-5.67074e-06,-2.17934e-07,1.69582e-05,-1.59372e-05,1.96206e-05,-5.12281e-06,0
-2.73247e-05,7.97442e-06,-6.9091e-06,-8.92815e-08,1.42734e-05,-1.64347e-05,1.35683e-05,-7.47123e-06,0
-2.74868e-05,9.07391e-06,-8.59607e-06,-7.26177e-07,1.14644e-05,-1.72224e-05,7.55696e-06,-7.59849e-06,0
-2.7508e-05,1.06452e-05,-9.07554e-06,-1.05308e-06,9.52302e-06,-1.75529e-05,3.80005e-06,-5.22345e-06,0
-2.82333e-05,1.18334e-05,-8.16882e-06,7.63755e-07,1.02656e-05,-1.66662e-05,3.55819e-06,-3.38468e-06,0
-3.01022e-05,1.2705e-05,-8.20328e-06,4.24596e-06,1.35976e-05,-1.51065e-05,4.94167e-06,-2.95484e-06,0
-3.14843e-05,1.3659e-05,-1.04995e-05,7.68592e-06,1.57578e-05,-1.52572e-05,5.8693e-06,-2.08096e-06,0
-3.07604e-05,1.44787e-05,-1.34838e-05,8.80218e-06,1.51e-05,-1.72254e-05,6.24413e-06,-1.7516e-06,0
-2.95465e-05,1.3012e-05,-1.47738e-05,7.05123e-06,1.34253e-05,-1.79487e-05,7.01183e-06,-3.28144e-06,0
-2.99183e-05,1.01837e-05,-1.43999e-05,4.72624e-06,1.26041e-05,-1.70071e-05,7.74724e-06,-4.62715e-06,0
-3.18816e-05,7.93082e-06,-1.41426e-05,3.74173e-06,1.30213e-05,-1.60193e-05,7.80138e-06,-4.20809e-06,0
-3.36503e-05,6.81811e-06,-1.48347e-05,3.65901e-06,1.44829e-05,-1.52769e-05,7.04329e-06,-3.35208e-06,0
-3.42544e-05,6.67705e-06,-1.51779e-05,2.8622e-06,1.57756e-05,-1.42867e-05,5.38984e-06,-4.49069e-06,0
-3.36758e-05,7.49851e-06,-1.38058e-05,1.51361e-06,1.55379e-05,-1.39305e-05,3.68655e-06,-5.55743e-06,0
-3.2504e-05,9.17141e-06,-1.04803e-05,6.06286e-07,1.45697e-05,-1.24817e-05,3.71376e-06,-3.79411e-06,0
-3.11419e-05,1.03842e-05,-7.62743e-06,2.82859e-06,1.30728e-05,-1.0194e-05,4.68328e-06,-2.93957e-07,0
-2.94468e-05,1.12478e-05,-6.73093e-06,9.89491e-06,1.12275e-05,-9.13286e-06,2.52619e-06,2.05084e-06,0
-2.8152e-05,1.28135e-05,-7.70599e-06,2.15058e-05,1.05067e-05,-9.51046e-06,-3.57883e-06,6.42565e-07,0
-2.85269e-05,1.45565e-05,-9.92452e-06,3.27324e-05,9.9709e-06,-9.5532e-06,-8.00718e-06,-2.73558e-06,0
-3.11825e-05,1.67619e-05,-1.09762e-05,3.58799e-05,9.66114e-06,-8.88706e-06,-5.36256e-06,-4.76847e-06,0
-3.37866e-05,1.85994e-05,-1.10074e-05,3.02956e-05,9.34869e-06,-7.86103e-06,8.82522e-07,-4.35543e-06,0
-3.31855e-05,1.89303e-05,-1.18158e-05,2.01603e-05,9.00131e-06,-4.46397e-06,2.95463e-06,-2.28895e-06,0
-3.17449e-05,1.70222e-05,-1.10803e-05,1.07648e-05,9.24381e-06,-2.06263e-06,1.18644e-06,-8.74375e-07,0
-3.22539e-05,1.51984e-05,-8.6153e-06,3.83047e-07,8.20618e-06,-3.97389e-06,1.14673e-06,-1.35514e-06,0
-3.2582e-05,1.72343e-05,-7.36456e-06,-1.29144e-05,6.75865e-06,-6.10866e-06,3.32244e-06,-1.22647e-06,0
-3.14807e-05,1.90209e-05,-6.04542e-06,-2.37486e-05,6.98847e-06,-6.53118e-06,5.50982e-06,-1.23303e-06,0
