ch1,ch2,ch3,ch4,ch5,ch6,ch7,ch8,class
-3.30717e-05,-5.35021e-05,-1.67411e-05,-2.27155e-05,1.24528e-05,-7.70471e-06,6.73544e-06,-7.18042e-06,0
-3.38753e-05,-4.28777e-05,-1.71639e-05,-2.44791e-05,1.46314e-05,-8.32787e-06,1.08627e-05,-6.64239e-06,0
-3.24142e-05,-2.56275e-05,-1.55361e-05,-2.82161e-05,1.54052e-05,-8.78566e-06,1.47305e-05,-7.25272e-06,0
-3.12973e-05,-1.1323e-05,-1.21853e-05,-3.64337e-05,1.51462e-05,-9.10495e-06,1.66929e-05,-7.5049e-06,0
-3.12361e-05,-4.9652e-06,-9.55416e-06,-4.42255e-05,1.46428e-05,-8.22181e-06,1.79414e-05,-5.68145e-06,0
-3.07075e-05,-4.97128e-06,-1.03754e-05,-4.37851e-05,1.52952e-05,-6.4715e-06,1.95463e-05,-3.45594e-06,0
-2.92804e-05,-3.65218e-06,-1.31092e-05,-3.51917e-05,1.66421e-05,-5.21231e-06,2.06354e-05,-2.6673e-06,0
-2.85378e-05,2.15461e-06,-1.46428e-05,-2.34878e-05,1.67955e-05,-4.69992e-06,2.18975e-05,-3.46946e-06,0
-2.84655e-05,8.80901e-06,-1.53848e-05,-1.25518e-05,1.53348e-05,-4.4818e-06,2.37734e-05,-4.40783e-06,0
-2.84938e-05,1.67239e-05,-1.66363e-05,-2.69601e-06,1.49621e-05,-4.93425e-06,2.38328e-05,-3.63755e-06,0
-2.90664e-05,3.04036e-05,-1.87492e-05,5.07563e-06,1.82786e-05,-6.52924e-06,2.08274e-05,-1.06032e-06,0
-3.03918e-05,4.40293e-05,-2.14459e-05,8.72392e-06,2.089e-05,-8.2168e-06,1.76051e-05,1.30472e-06,0
-3.19732e-05,4.91065e-05,-2.33823e-05,7.61469e-06,1.88256e-05,-9.72444e-06,1.69646e-05,2.3514e-06,0
-3.16887e-05,4.52184e-05,-2.22832e-05,4.90104e-06,1.35273e-05,-1.07059e-05,1.78594e-05,2.73343e-06,0
-2.90845e-05,3.57662e-05,-1.95453e-05,3.24127e-06,1.06877e-05,-1.09962e-05,1.85597e-05,3.23055e-06,0
-2.63479e-05,2.29593e-05,-1.75366e-05,2.30822e-06,1.22825e-05,-1.01892e-05,1.91968e-05,3.60984e-06,0
-2.55773e-05,1.04566e-05,-1.67049e-05,1.51465e-06,1.60558e-05,-9.9546e-06,1.90855e-05,2.76354e-06,0
-2.54649e-05,2.19439e-06,-1.61502e-05,5.5897e-07,1.78424e-05,-1.17392e-05,1.78939e-05,4.98111e-07,0
-2.58908e-05,-1.98851e-06,-1.49728e-05,-2.15089e-06,1.706e-05,-1.31637e-05,1.88556e-05,-2.11672e-06,0
-2.82156e-05,-4.61857e-06,-1.30955e-05,-7.17605e-06,1.46053e-05,-1.24887e-05,2.22717e-05,-2.71559e-06,0
-3.1177e-05,-1.53947e-06,-1.10561e-05,-1.01183e-05,1.16206e-05,-1.19586e-05,2.515e-05,-1.17575e-06,0
-3.21516e-05,9.23984e-06,-8.56188e-06,-9.15081e-06,1.08011e-05,-1.27798e-05,2.53545e-05,3.18261e-07,0
-2.98027e-05,2.28559e-05,-4.94762e-06,-8.29808e-06,1.01737e-05,-1.27647e-05,2.21665e-05,-8.75479e-07,0
-2.82362e-05,3.27727e-05,-3.01129e-06,-7.91418e-06,6.53398e-06,-1.06097e-05,1.7817e-05,-2.20848e-06,0
-2.76196e-05,3.60321e-05,-3.08186e-06,-6.09697e-06,3.71346e-06,-1.07806e-05,1.29711e-05,-1.87102e-06,0
-2.54825e-05,3.57949e-05,-3.4625e-06,-3.57578e-06,3.1832e-06,-1.32473e-05,8.79389e-06,-1.4858e-06,0
-2.42124e-05,3.37169e-05,-3.79841e-06,-3.00365e-06,2.94466e-06,-1.36207e-05,8.048e-06,-3.80985e-09,0
-2.51855e-05,2.95926e-05,-2.50174e-06,-2.07232e-06,4.53095e-06,-1.25714e-05,7.31558e-06,1.97792e-06,0
-2.73337e-05,2.44924e-05,-3.27625e-07,-8.98912e-07,8.00045e-06,-1.08047e-05,5.36148e-06,2.58326e-06,0
-2.82425e-05,2.24019e-05,6.10774e-07,-1.25037e-06,1.03114e-05,-9.7808e-06,4.34764e-06,2.77013e-06,0
-2.93712e-05,2.37033e-05,-5.33977e-07,-1.37822e-06,9.9114e-06,-9.7632e-06,4.48707e-06,4.34165e-06,0
-2.97066e-05,2.60671e-05,-1.6641e-06,-2.30105e-06,1.01288e-05,-1.00961e-05,5.63868e-06,6.07889e-06,0
-2.94337e-05,2.70849e-05,-2.61211e-06,-3.96998e-06,1.17223e-05,-9.47177e-06,6.50068e-06,6.29483e-06,0
-2.95502e-05,2.88508e-05,-3.87886e-06,-4.77048e-06,1.319e-05,-8.19609e-06,6.52732e-06,4.8757e-06,0
-2.99262e-05,3.13834e-05,-4.81201e-06,-3.85433e-06,1.44239e-05,-7.97342e-06,6.85879e-06,3.47394e-06,0
-2.92347e-05,3.26893e-05,-5.08822e-06,-3.04227e-06,1.72857e-05,-7.84962e-06,7.49976e-06,2.60261e-06,0
-2.82704e-05,3.15974e-05,-4.58147e-06,-2.43435e-06,2.08767e-05,-5.90017e-06,8.27158e-06,1.55896e-06,0
-2.90809e-05,2.85123e-05,-3.74974e-06,-3.27339e-06,2.26264e-05,-3.04951e-06,9.61495e-06,1.96289e-07,0
-2.94281e-05,2.61394e-05,-2.8675e-06,-6.99742e-06,2.21347e-05,-2.78925e-06,1.2176e-05,-6.81914e-07,0
-2.87732e-05,2.54872e-05,-3.04629e-06,-1.35499e-05,2.05283e-05,-4.90981e-06,1.46994e-05,7.13919e-07,0
-2.79015e-05,2.53039e-05,-3.76288e-06,-1.98222e-05,1.85917e-05,-6.68476e-06,1.10897e-05,3.29871e-06,0
-2.83929e-05,2.27014e-05,-4.60842e-06,-2.25607e-05,1.57965e-05,-7.16401e-06,-1.93918e-06,4.24526e-06,0
-2.94445e-05,1.97697e-05,-5.09881e-06,-2.09096e-05,1.2975e-05,-7.03837e-06,-1.58645e-05,3.10749e-06,0
-2.95894e-05,1.80919e-05,-5.31406e-06,-1.67533e-05,1.16531e-05,-6.91045e-06,-1.92828e-05,2.15464e-06,0
-2.86163e-05,1.63652e-05,-5.34487e-06,-1.28124e-05,1.12826e-05,-7.20811e-06,-1.08952e-05,3.8039e-06,0
-2.89171e-05,1.23304e-05,-5.71862e-06,-6.11628e-06,1.10273e-05,-8.15627e-06,2.86547e-06,5.49896e-06,0
-3.09108e-05,8.84469e-06,-5.37365e-06,7.47657e-06,1.10491e-05,-8.83798e-06,1.71524e-05,4.76367e-06,0
-3.23737e-05,7.5489e-06,-2.44003e-06,2.50219e-05,1.19422e-05,-9.49938e-06,2.94567e-05,3.24011e-06,0
-3.19714e-05,5.47574e-06,-3.61114e-08,3.41237e-05,1.50238e-05,-1.081e-05,3.6484e-05,2.85014e-06,0
-3.23672e-05,4.16005e-06,-3.78444e-07,3.07681e-05,1.75574e-05,-1.07224e-05,3.9875e-05,4.92774e-06,0
-3.20669e-05,5.54197e-06,-2.44834e-06,2.18188e-05,1.76794e-05,-9.66298e-06,4.03174e-05,6.35413e-06,0
-3.05909e-05,8.10445e-06,-4.35618e-06,1.30092e-05,1.682e-05,-8.51675e-06,3.79251e-05,5.97014e-06,0
-3.15708e-05,9.46068e-06,-4.43406e-06,5.8797e-06,1.57993e-05,-6.14337e-06,3.52893e-05,5.35371e-06,0
-3.37489e-05,9.31095e-06,-3.27385e-06,-2.13267e-06,1.41702e-05,-3.36987e-06,3.13374e-05,6.31585e-06,0
-3.59063e-05,9.32693e-06,-1.96255e-06,-9.65459e-06,1.20949e-05,-1.77214e-06,2.65826e-05,8.87438e-06,0
-3.71103e-05,9.64128e-06,-1.12722e-06,-1.25677e-05,1.11091e-05,-2.15312e-06,2.40331e-05,9.42035e-06,0
-3.62496e-05,1.01404e-05,-1.30498e-06,-8.29047e-06,1.1508e-05,-4.20855e-06,2.24692e-05,7.94082e-06,0
-3.37284e-05,8.43012e-06,-3.00554e-06,-1.91669e-06,1.26575e-05,-6.56461e-06,1.8646e-05,5.22769e-06,0
-3.23452e-05,3.48375e-06,-4.82759e-06,2.73658e-07,1.23729e-05,-6.67834e-06,1.28935e-05,2.1071e-06,0
-3.25714e-05,-1.68851e-07,-5.80862e-06,-1.05284e-06,1.14305e-05,-4.68446e-06,7.5626e-06,9.85279e-07,0
-3.38994e-05,-1.83211e-06,-6.94472e-06,-2.56418e-06,1.13637e-05,-2.86611e-06,3.53795e-06,1.85251e-06,0
-3.5133e-05,-2.90807e-06,-8.35121e-06,-3.18688e-06,1.13101e-05,-3.08437e-06,1.83171e-06,3.27045e-06,0
-3.45103e-05,-2.99464e-06,-8.68731e-06,-3.52394e-06,1.19767e-05,-4.62713e-06,2.57108e-06,4.91086e-06,0
-3.20584e-05,-2.53509e-06,-8.38825e-06,-2.23519e-06,1.40705e-05,-4.33503e-06,4.14537e-06,5.91679e-06,0
-3.0282e-05,-3.71726e-06,-8.7056e-06,-2.57198e-07,1.66925e-05,-2.96161e-06,5.3184e-06,4.96422e-06,0
-3.05996e-05,-4.53799e-06,-9.41016e-06,1.06611e-06,1.83623e-05,-2.7042e-06,5.4183e-06,1.95312e-06,0
-3.21443e-05,2.70504e-06,-9.91099e-06,1.97508e-06,1.89605e-05,-2.87363e-06,4.31835e-06,-4.14088e-07,0
-3.30073e-05,1.94792e-05,-9.80187e-06,5.88669e-06,1.86548e-05,-3.1124e-06,2.07336e-06,-2.92238e-08,0
-3.21405e-05,3.68706e-05,-9.15818e-06,1.29501e-05,1.767e-05,-3.87616e-06,1.60204e-06,1.37754e-06,0
-3.20577e-05,4.63216e-05,-7.95583e-06,1.79648e-05,1.69262e-05,-4.29317e-06,2.98958e-06,1.39956e-06,0
-3.31641e-05,4.3971e-05,-8.37598e-06,1.73556e-05,1.70047e-05,-4.71926e-06,2.74971e-06,1.38893e-06,0
-3.37586e-05,2.93871e-05,-9.83625e-06,1.22705e-05,1.79264e-05,-5.8719e-06,1.85182e-06,2.89435e-06,0
-3.32496e-05,9.15852e-06,-9.87986e-06,4.57688e-06,1.83303e-05,-6.50617e-06,3.52659e-06,4.73497e-06,0
-3.22977e-05,-8.78439e-06,-9.12234e-06,-1.85869e-06,1.57504e-05,-6.25698e-06,5.84326e-06,5.29776e-06,0
-3.11768e-05,-2.17145e-05,-7.6384e-06,-4.32612e-06,1.02825e-05,-6.23271e-06,6.5424e-06,5.06816e-06,0
-3.02118e-05,-2.74387e-05,-5.54729e-06,-6.62998e-06,6.1729e-06,-7.08652e-06,6.84659e-06,4.41532e-06,0
-2.93873e-05,-2.60984e-05,-4.27169e-06,-1.10702e-05,5.24713e-06,-7.73263e-06,8.41391e-06,4.5714e-06,0
-2.94617e-05,-2.06073e-05,-3.87245e-06,-1.52913e-05,4.91092e-06,-8.50296e-06,1.3454e-05,6.41344e-06,0
-3.06395e-05,-1.41453e-05,-3.73556e-06,-2.0313e-05,3.9532e-06,-9.37592e-06,2.24813e-05,8.88009e-06,0
-3.07161e-05,-8.34767e-06,-4.27951e-06,-2.63856e-05,4.30477e-06,-9.49534e-06,3.16666e-05,1.15867e-05,0
-2.87264e-05,-2.94691e-06,-4.52322e-06,-3.09257e-05,7.10916e-06,-9.95123e-06,3.52035e-05,1.0777e-05,0
-2.68206e-05,1.67751e-06,-4.48891e-06,-3.18611e-05,8.8381e-06,-1.00984e-05,3.30667e-05,7.14288e-06,0
-2.66732e-05,4.9378e-06,-6.39461e-06,-2.82666e-05,7.32239e-06,-9.30054e-06,2.88871e-05,3.32935e-06,0
-2.63509e-05,7.46262e-06,-8.34549e-06,-2.33696e-05,5.71207e-06,-8.42875e-06,2.26089e-05,9.42888e-07,0
-2.63779e-05,8.70361e-06,-9.76793e-06,-1.59015e-05,6.95004e-06,-8.13102e-06,1.38164e-05,-5.14462e-08,0
-2.7079e-05,7.08963e-06,-1.01183e-05,-5.86468e-06,9.60495e-06,-8.32476e-06,4.46437e-06,-9.26125e-07,0
-2.85894e-05,5.41778e-06,-9.7323e-06,4.34683e-06,1.26751e-05,-8.57811e-06,-3.9597e-06,-1.24859e-06,0
-3.0217e-05,5.27031e-06,-1.14369e-05,1.11997e-05,1.59457e-05,-9.19986e-06,-9.82e-06,-4.59321e-07,0
-3.1486e-05,6.77188e-06,-1.41926e-05,6.9204e-06,1.74613e-05,-1.0376e-05,-1.23695e-05,7.13036e-08,0
-3.18804e-05,8.20758e-06,-1.6365e-05,-1.12638e-05,1.5464e-05,-1.1471e-05,-1.26449e-05,-4.44432e-07,0
-3.24429e-05,8.70331e-06,-1.69585e-05,-3.27634e-05,1.13763e-05,-1.23666e-05,-1.1403e-05,5.85707e-07,0
-3.47963e-05,1.05075e-05,-1.71204e-05,-4.47571e-05,8.24383e-06,-1.32099e-05,-8.35803e-06,2.56917e-06,0
-3.62842e-05,1.46808e-05,-1.84595e-05,-4.43311e-05,5.94216e-06,-1.46882e-05,-3.1169e-06,3.11357e-06,0
-3.52756e-05,2.00918e-05,-2.06251e-05,-3.8127e-05,2.95205e-06,-1.52687e-05,2.96549e-06,1.6633e-06,0
-3.22846e-05,2.32603e-05,-2.15545e-05,-3.32511e-05,-5.03861e-07,-1.39736e-05,7.20211e-06,5.54969e-07,0
-3.07154e-05,2.33824e-05,-2.14263e-05,-2.79304e-05,-2.20289e-06,-1.33243e-05,8.63905e-06,1.01882e-06,0
-3.10043e-05,2.28026e-05,-2.14962e-05,-1.32655e-05,-1.70826e-06,-1.37531e-05,1.0166e-05,1.88802e-06,0
-3.10592e-05,2.34462e-05,-2.08724e-05,1.41987e-05,2.93867e-07,-1.4463e-05,1.28388e-05,1.36784e-06,0
-3.00842e-05,2.42293e-05,-1.84565e-05,4.32772e-05,3.54478e-06,-1.50312e-05,1.48238e-05,4.06518e-07,0
-2.96564e-05,2.42533e-05,-1.30178e-05,5.96532e-05,8.70073e-06,-1.53754e-05,1.58384e-05,7.07272e-07,0
-2.94858e-05,2.5365e-05,-4.16711e-06,5.70903e-05,1.59222e-05,-1.42624e-05,1.55961e-05,3.54028e-06,0
-2.85193e-05,2.80172e-05,5.38866e-06,4.46502e-05,2.44426e-05,-1.17428e-05,1.58632e-05,5.35316e-06,0
-2.85434e-05,2.71631e-05,1.65295e-05,3.47894e-05,3.11268e-05,-1.07013e-05,1.72034e-05,4.93525e-06,0
-2.82789e-05,2.26151e-05,3.26426e-05,2.92613e-05,3.4362e-05,-1.02316e-05,1.61287e-05,4.1559e-06,0
-2.84971e-05,1.94167e-05,5.15324e-05,2.31544e-05,3.38304e-05,-9.94066e-06,1.2996e-05,3.89228e-06,0
-2.98862e-05,1.71181e-05,6.62895e-05,1.32096e-05,2.8041e-05,-9.92103e-06,1.13628e-05,4.29127e-06,0
-2.94478e-05,1.42147e-05,6.62442e-05,4.84591e-07,2.03812e-05,-9.49314e-06,1.21008e-05,3.2365e-06,0
-2.87704e-05,1.37753e-05,4.78989e-05,-1.03995e-05,1.53641e-05,-1.01048e-05,1.31299e-05,2.5277e-06,0
-2.92642e-05,1.60679e-05,1.59507e-05,-1.62277e-05,1.28782e-05,-1.01442e-05,1.3022e-05,2.18137e-06,0
-2.98329e-05,1.84649e-05,-2.12864e-05,-2.13224e-05,1.09813e-05,-1.01422e-05,1.43929e-05,2.54049e-06,0
-2.92264e-05,1.91183e-05,-5.38695e-05,-2.47515e-05,1.12602e-05,-1.10956e-05,1.6175e-05,1.47163e-06,0
-2.92293e-05,1.66564e-05,-7.58224e-05,-2.42972e-05,1.50379e-05,-1.27756e-05,1.24286e-05,8.37491e-07,0
-2.89561e-05,1.39168e-05,-8.3526e-05,-2.21073e-05,1.97306e-05,-1.40353e-05,4.54781e-06,1.38419e-06,0
-2.81097e-05,1.20433e-05,-7.79649e-05,-1.82157e-05,2.20489e-05,-1.37119e-05,-3.00046e-07,7.43563e-07,0
-2.89792e-05,1.0812e-05,-6.50149e-05,-1.44487e-05,2.2139e-05,-1.36752e-05,6.38764e-07,-3.2573e-08,0
-3.12215e-05,1.07245e-05,-5.23646e-05,-1.18498e-05,2.09377e-05,-1.478e-05,6.03183e-06,-9.20275e-07,0
-3.29894e-05,1.11353e-05,-4.19453e-05,-1.0018e-05,1.87799e-05,-1.53342e-05,1.39097e-05,-2.30815e-06,0
-3.27205e-05,1.17841e-05,-3.20843e-05,-1.06181e-05,1.67291e-05,-1.42797e-05,2.0588e-05,-3.35475e-06,0
-3.17748e-05,1.2908e-05,-2.26615e-05,-1.47318e-05,1.40387e-05,-1.32433e-05,2.32995e-05,-3.43182e-06,0
-3.1463e-05,1.30415e-05,-1.61046e-05,-1.92731e-05,1.10634e-05,-1.34495e-05,2.35812e-05,-4.16739e-06,0
-3.26639e-05,1.16931e-05,-1.42702e-05,-2.1289e-05,1.0404e-05,-1.41359e-05,2.47047e-05,-3.91501e-06,0
-3.33662e-05,1.12732e-05,-1.42585e-05,-2.10671e-05,1.32633e-05,-1.3885e-05,2.67306e-05,-3.00597e-06,0
-3.32298e-05,1.24763e-05,-1.44011e-05,-1.95548e-05,1.54062e-05,-1.36661e-05,2.76149e-05,-2.49741e-06,0
-3.26821e-05,1.32083e-05,-1.48896e-05,-1.64916e-05,1.33694e-05,-1.41227e-05,2.70704e-05,-3.07095e-06,0
-3.28245e-05,1.17152e-05,-1.52435e-05,-1.3484e-05,1.0491e-05,-1.46745e-05,2.56997e-05,-4.452e-06,0
-3.27825e-05,9.67213e-06,-1.33101e-05,-1.26501e-05,1.05817e-05,-1.41602e-05,2.43567e-05,-6.07575e-06,0
-3.18386e-05,8.67723e-06,-9.12437e-06,-1.47627e-05,1.19898e-05,-1.42454e-05,2.38442e-05,-7.10951e-06,0
-3.19301e-05,7.84312e-06,-5.33746e-06,-1.85722e-05,1.24453e-05,-1.5541e-05,2.29111e-05,-6.64292e-06,0
-3.32732e-05,6.56124e-06,-3.94816e-06,-2.09989e-05,1.19597e-05,-1.52999e-05,2.17985e-05,-6.26472e-06,0
-3.38078e-05,4.74788e-06,-3.19744e-06,-2.11202e-05,1.00995e-05,-1.43555e-05,2.13897e-05,-5.72075e-06,0
-3.10818e-05,2.4429e-06,-1.10506e-06,-1.89585e-05,9.05674e-06,-1.39264e-05,2.15333e-05,-3.48516e-06,0
-2.78876e-05,2.105e-06,1.21904e-06,-1.73132e-05,9.86231e-06,-1.3405e-05,2.02976e-05,-2.55033e-06,0
-2.87736e-05,3.67466e-06,1.40582e-06,-1.63039e-05,1.15899e-05,-1.34259e-05,1.64483e-05,-2.94148e-06,0
-3.15155e-05,5.24232e-06,-8.05451e-07,-1.28437e-05,1.29002e-05,-1.32155e-05,1.346e-05,-2.77033e-06,0
-3.20605e-05,7.84935e-06,-3.01469e-06,-5.44168e-06,1.35802e-05,-1.18415e-05,1.25808e-05,-9.39565e-07,0
-3.13432e-05,9.16695e-06,-6.9546e-06,6.74753e-06,1.39271e-05,-1.05571e-05,1.26358e-05,2.00226e-06,0
-3.16592e-05,7.77442e-06,-1.1904e-05,1.85613e-05,1.56032e-05,-9.64833e-06,1.26662e-05,2.16198e-06,0
-3.12308e-05,6.44549e-06,-1.31204e-05,2.47018e-05,1.95742e-05,-9.70229e-06,1.43012e-05,1.18685e-06,0
-2.89625e-05,5.07586e-06,-1.08306e-05,2.38338e-05,2.26017e-05,-1.1077e-05,1.68612e-05,2.26578e-07,0
-2.61813e-05,2.44742e-06,-7.19072e-06,1.77481e-05,2.28933e-05,-1.35602e-05,1.73412e-05,1.85865e-07,0
-2.43252e-05,1.31193e-06,-4.61848e-06,1.27682e-05,2.12244e-05,-1.41948e-05,1.64084e-05,-7.45471e-08,0
-2.42148e-05,2.3625e-06,-3.54519e-06,9.07894e-06,1.97417e-05,-1.23368e-05,1.51253e-05,-5.49736e-07,0
-2.38446e-05,4.99442e-06,-2.79032e-06,-1.49493e-06,1.83644e-05,-1.00131e-05,1.4413e-05,-9.1492e-07,0
-2.38587e-05,8.58275e-06,-1.58849e-06,-1.98186e-05,1.61146e-05,-9.65229e-06,1.48827e-05,-8.43292e-07,0
-2.55829e-05,9.6293e-06,-3.1112e-07,-3.3133e-05,1.28574e-05,-1.18645e-05,1.52772e-05,2.02578e-06,0
-2.7871e-05,6.89014e-06,-5.55693e-07,-3.14803e-05,1.01436e-05,-1.36394e-05,1.44755e-05,5.3459e-06,0
-2.89556e-05,2.57213e-06,-2.00285e-06,-2.09057e-05,9.79534e-06,-1.371e-05,1.29086e-05,6.14705e-06,0
-2.91588e-05,9.58416e-08,-2.40087e-06,-1.20466e-05,1.11219e-05,-1.29824e-05,1.24132e-05,4.87742e-06,0
-2.94568e-05,6.9633e-07,-3.4995e-07,-6.94352e-06,1.20244e-05,-1.2923e-05,1.29672e-05,4.21373e-06,0
-3.09131e-05,3.51327e-06,9.00402e-07,-3.70544e-06,1.2375e-05,-1.33996e-05,1.24713e-05,4.29371e-06,0
-3.26302e-05,6.89386e-06,6.10795e-08,-8.78959e-07,1.33963e-05,-1.41132e-05,9.81435e-06,3.69553e-06,0
-3.29535e-05,1.052e-05,-4.87505e-08,3.41376e-06,1.56066e-05,-1.44208e-05,5.39193e-06,2.16298e-06,0
-3.152e-05,1.34441e-05,6.51713e-07,8.6326e-06,1.83098e-05,-1.49848e-05,1.08689e-06,1.88059e-07,0
-2.91109e-05,1.54248e-05,1.18105e-08,1.11537e-05,1.92351e-05,-1.50588e-05,-3.93888e-06,-1.78416e-06,0
-2.72462e-05,1.78925e-05,-1.21388e-06,8.69131e-06,1.76736e-05,-1.49569e-05,-8.49647e-06,-1.18688e-06,0
-2.75446e-05,2.10596e-05,-2.13389e-06,4.84982e-06,1.53123e-05,-1.46393e-05,-1.03857e-05,1.00055e-06,0
-2.90068e-05,2.2866e-05,-5.0444e-06,2.04687e-06,1.37506e-05,-1.27879e-05,-9.38483e-06,1.1639e-06,0
-2.8793e-05,2.34823e-05,-8.26079e-06,-6.63399e-07,1.27906e-05,-1.24259e-05,-3.4785e-06,-2.07603e-07,0
-2.87583e-05,2.23635e-05,-9.02856e-06,4.145e-06,1.04878e-05,-1.35086e-05,9.44213e-06,-1.76034e-06,0
-2.9714e-05,1.95614e-05,-7.92612e-06,1.55791e-05,6.5068e-06,-1.26188e-05,2.77609e-05,-1.77197e-06,0
-2.96913e-05,1.76874e-05,-6.88238e-06,2.40669e-05,3.83026e-06,-1.1571e-05,4.48508e-05,-6.16688e-07,0
-2.8994e-05,1.4939e-05,-6.94795e-06,2.58379e-05,3.72588e-06,-1.16613e-05,5.55049e-05,1.85381e-07,0
-2.89776e-05,1.13464e-05,-7.05967e-06,1.92204e-05,6.50202e-06,-1.15213e-05,5.6302e-05,1.93728e-06,0
-2.95893e-05,8.02218e-06,-8.86804e-06,9.94658e-06,7.76167e-06,-1.14126e-05,4.86255e-05,3.47657e-06,0
-3.02254e-05,6.36993e-06,-1.06971e-05,3.1232e-06,5.96449e-06,-1.06852e-05,3.64927e-05,3.86511e-06,0
-3.1726e-05,6.6073e-06,-1.02652e-05,-6.70925e-07,4.42711e-06,-9.91102e-06,2.15108e-05,4.44309e-06,0
-3.3118e-05,6.9312e-06,-9.70898e-06,-3.71862e-06,4.43412e-06,-9.81642e-06,6.72241e-06,4.53981e-06,0
-3.27388e-05,6.65103e-06,-1.07819e-05,-7.88054e-06,6.07719e-06,-1.05327e-05,-5.79127e-06,3.46377e-06,0
-3.11223e-05,7.81304e-06,-1.36577e-05,-1.53025e-05,6.0445e-06,-1.13992e-05,-1.26008e-05,2.84433e-06,0
-2.84504e-05,9.12033e-06,-1.60733e-05,-2.66738e-05,4.44391e-06,-1.14653e-05,-1.22721e-05,2.56577e-06,0
-2.64804e-05,9.25538e-06,-1.54856e-05,-3.67038e-05,4.23313e-06,-9.99378e-06,-7.5916e-06,1.24015e-06,0
-2.58184e-05,8.55074e-06,-1.28378e-05,-3.98904e-05,6.23327e-06,-8.41373e-06,-2.29008e-06,-2.79371e-07,0
-2.63582e-05,7.61384e-06,-1.08884e-05,-3.55509e-05,8.75641e-06,-7.90324e-06,2.77511e-06,-7.4461e-07,0
-2.75711e-05,7.11519e-06,-1.02159e-05,-2.88241e-05,1.08479e-05,-8.42823e-06,8.12693e-06,1.19119e-08,0
-2.87201e-05,9.30643e-06,-9.24229e-06,-2.38676e-05,1.21988e-05,-9.90839e-06,1.32333e-05,1.16992e-06,0
-2.85462e-05,1.86783e-05,-6.92812e-06,-2.12061e-05,1.31508e-05,-1.07842e-05,1.67783e-05,1.6433e-06,0
-2.68393e-05,3.00803e-05,-4.90348e-06,-1.84516e-05,1.38167e-05,-1.03081e-05,1.83434e-05,7.24088e-07,0
-2.59815e-05,3.46501e-05,-4.99548e-06,-1.32344e-05,1.33664e-05,-9.08565e-06,1.90768e-05,-3.93725e-07,0
-2.65795e-05,3.08286e-05,-7.43262e-06,-6.4328e-06,1.22843e-05,-8.09063e-06,1.94479e-05,-9.1741e-07,0
-2.80109e-05,2.35521e-05,-1.00403e-05,-2.22787e-06,1.16748e-05,-7.11118e-06,2.03011e-05,-5.59743e-07,0
-2.87137e-05,1.66452e-05,-1.00355e-05,-2.21321e-06,1.0532e-05,-6.03147e-06,1.95652e-05,-5.17438e-07,0
-2.86816e-05,1.01194e-05,-7.31904e-06,-3.64419e-06,8.47509e-06,-5.28874e-06,1.66329e-05,-1.08368e-06,0
-2.86513e-05,3.47411e-06,-5.23074e-06,-2.63752e-06,6.56041e-06,-5.76258e-06,1.34098e-05,-2.05052e-06,0
-2.97841e-05,-1.95889e-06,-4.58579e-06,-3.41345e-08,5.48789e-06,-8.04441e-06,1.17966e-05,-2.58687e-06,0
-3.29842e-05,-7.33503e-06,-3.66751e-06,-2.17947e-07,5.30299e-06,-9.62956e-06,1.13018e-05,-3.00945e-06,0
-3.57159e-05,-1.49234e-05,-3.01677e-06,-2.04416e-06,5.12811e-06,-1.01791e-05,1.06737e-05,-3.46313e-06,0
-3.54854e-05,-2.19918e-05,-3.92603e-06,-1.60613e-06,4.87781e-06,-1.00471e-05,1.01407e-05,-2.13088e-06,0
-3.42581e-05,-2.04864e-05,-5.42319e-06,-2.28051e-06,4.84436e-06,-8.81391e-06,1.13863e-05,-1.11659e-06,0
-3.35857e-05,-6.73668e-06,-5.88397e-06,-4.31316e-06,6.65574e-06,-8.40876e-06,1.30725e-05,-1.47946e-06,0
-3.25754e-05,1.51586e-05,-6.73625e-06,4.22104e-06,8.807e-06,-7.27221e-06,1.18809e-05,-8.46252e-07,0
-3.12036e-05,3.53271e-05,-8.62967e-06,2.47375e-05,1.07433e-05,-6.16342e-06,9.61465e-06,1.63061e-06,0
-3.00508e-05,4.6794e-05,-9.27847e-06,4.08137e-05,1.30371e-05,-5.57184e-06,8.53125e-06,3.41952e-06,0
-3.01721e-05,4.80747e-05,-8.03622e-06,4.12949e-05,1.51512e-05,-5.4239e-06,8.40839e-06,3.86666e-06,0
-3.06964e-05,4.18675e-05,-5.96984e-06,2.97046e-05,1.72778e-05,-5.59215e-06,8.83678e-06,3.7691e-06,0
-3.01623e-05,3.14243e-05,-4.1383e-06,1.50984e-05,2.06548e-05,-5.83222e-06,9.95857e-06,3.94048e-06,0
-2.97936e-05,1.49179e-05,-2.61904e-06,3.91423e-06,2.37294e-05,-6.67982e-06,1.05801e-05,4.9496e-06,0
-2.99536e-05,-3.63275e-06,-1.82986e-06,-3.51693e-06,2.32373e-05,-7.68724e-06,1.16319e-05,6.69044e-06,0
-2.99019e-05,-1.34501e-05,-2.85414e-06,-8.84149e-06,2.01648e-05,-8.81368e-06,1.33547e-05,7.75403e-06,0
-3.00449e-05,-1.09917e-05,-4.87616e-06,-1.27309e-05,1.61564e-05,-8.76108e-06,1.47074e-05,7.15661e-06,0
-3.04598e-05,-3.7667e-06,-5.97593e-06,-1.43164e-05,1.2597e-05,-8.86627e-06,1.73627e-05,6.81524e-06,0
-2.94658e-05,1.27506e-06,-5.66154e-06,-1.53286e-05,1.01629e-05,-9.48468e-06,2.11419e-05,7.11512e-06,0
-2.73372e-05,2.94536e-06,-5.53377e-06,-2.00388e-05,9.47134e-06,-8.97582e-06,2.40885e-05,6.53955e-06,0
-2.68552e-05,3.04126e-06,-6.2616e-06,-2.65905e-05,1.00147e-05,-7.19559e-06,2.45664e-05,4.82465e-06,0
-2.85543e-05,4.26858e-06,-6.82785e-06,-3.01096e-05,1.058e-05,-6.54336e-06,2.23908e-05,3.50473e-06,0
-3.13727e-05,1.06744e-05,-7.10059e-06,-2.98153e-05,1.0821e-05,-6.92115e-06,1.80513e-05,3.20495e-06,0
-3.33982e-05,2.01848e-05,-7.30407e-06,-2.55858e-05,1.17221e-05,-6.51715e-06,1.30425e-05,3.1118e-06,0
-3.28876e-05,2.61468e-05,-6.21516e-06,-1.97164e-05,1.22704e-05,-5.36492e-06,1.01073e-05,2.2687e-06,0
-3.08744e-05,2.65225e-05,-5.15968e-06,-1.67347e-05,1.2009e-05,-5.36239e-06,8.55629e-06,2.78109e-06,0
-2.83122e-05,2.61978e-05,-4.88551e-06,-1.67824e-05,1.16336e-05,-5.3622e-06,5.12286e-06,5.13348e-06,0
-2.52855e-05,2.6251e-05,-4.52282e-06,-1.6308e-05,1.13703e-05,-5.10439e-06,3.52521e-08,6.29735e-06,0
-2.44898e-05,2.50896e-05,-4.24085e-06,-1.38779e-05,1.32314e-05,-5.729e-06,-2.27342e-06,5.69787e-06,0
-2.61845e-05,2.50797e-05,-4.70747e-06,-1.36401e-05,1.55274e-05,-5.28139e-06,-8.8336e-07,4.59287e-06,0
-2.75449e-05,2.5388e-05,-5.65278e-06,-1.54795e-05,1.37068e-05,-4.61202e-06,4.24708e-07,4.74333e-06,0
-2.85225e-05,2.26483e-05,-7.24126e-06,-1.46458e-05,8.26045e-06,-4.74685e-06,1.40746e-06,4.70368e-06,0
-2.90195e-05,1.50972e-05,-8.80501e-06,-1.45445e-05,4.74322e-06,-4.57299e-06,1.81165e-06,3.93301e-06,0
-2.86643e-05,7.19986e-06,-7.68372e-06,-1.48302e-05,6.58052e-06,-3.20814e-06,1.45644e-06,2.01124e-06,0
-2.86173e-05,3.74552e-06,-6.97045e-06,-1.0412e-05,1.15437e-05,-2.56179e-06,1.90954e-06,-4.35479e-07,0
-2.89496e-05,5.40668e-06,-7.67956e-06,-4.90556e-06,1.47052e-05,-3.61056e-06,1.90397e-06,-1.2287e-06,0
-2.96455e-05,9.91961e-06,-7.66748e-06,-3.03049e-06,1.40406e-05,-5.50822e-06,2.03532e-06,-2.39046e-06,0
-3.01044e-05,1.29283e-05,-7.35797e-06,-4.94287e-06,1.23789e-05,-6.26376e-06,2.4098e-06,-4.14105e-06,0
-3.01844e-05,1.42449e-05,-7.38263e-06,-6.73661e-06,1.33965e-05,-5.98201e-06,3.14086e-06,-6.10738e-06,0
-3.07664e-05,1.56538e-05,-8.01153e-06,-6.09134e-06,1.71813e-05,-7.10649e-06,3.5788e-06,-6.73415e-06,0
-3.12847e-05,1.71316e-05,-8.95683e-06,-3.05119e-06,2.10669e-05,-8.42049e-06,2.97777e-06,-5.78054e-06,0
-3.14889e-05,1.66361e-05,-9.5855e-06,-6.83594e-08,2.26563e-05,-7.85997e-06,4.4668e-06,-4.37041e-06,0
-3.15282e-05,1.36637e-05,-9.41183e-06,9.8074e-07,2.31592e-05,-6.20738e-06,8.92797e-06,-3.21797e-06,0
-3.2175e-05,1.05181e-05,-9.83813e-06,5.73968e-07,2.45403e-05,-3.67555e-06,1.33929e-05,-2.29407e-06,0
-3.28826e-05,9.46567e-06,-1.11196e-05,-1.6619e-07,2.48014e-05,-1.33178e-06,1.54819e-05,-1.409e-06,0
-3.28515e-05,9.7794e-06,-1.21354e-05,2.79402e-07,2.22733e-05,-1.64882e-06,1.61722e-05,-1.28004e-06,0
-3.29382e-05,9.08373e-06,-1.23582e-05,2.26835e-06,1.90283e-05,-3.6553e-06,1.67334e-05,3.43823e-08,0
-3.35804e-05,7.47722e-06,-1.17071e-05,6.31435e-06,1.66967e-05,-4.34241e-06,1.67988e-05,2.84371e-06,0
-3.44247e-05,6.54896e-06,-1.09353e-05,1.17311e-05,1.58644e-05,-3.08497e-06,1.57532e-05,5.51431e-06,0
-3.50209e-05,8.67351e-06,-1.08875e-05,1.76572e-05,1.72281e-05,-2.11629e-06,1.47267e-05,6.67104e-06,0
-3.50092e-05,1.30172e-05,-1.04447e-05,2.19618e-05,1.99639e-05,-2.64448e-06,1.47809e-05,6.27235e-06,0
-3.43161e-05,1.64144e-05,-8.40458e-06,2.2751e-05,2.11439e-05,-2.52384e-06,1.61921e-05,5.71294e-06,0
-3.36265e-05,1.68611e-05,-7.35098e-06,2.08181e-05,1.99925e-05,-1.75245e-06,1.72109e-05,5.33239e-06,0
-3.32719e-05,1.73721e-05,-7.12033e-06,1.79509e-05,2.01428e-05,-3.56679e-06,1.76979e-05,4.9821e-06,0
-3.25745e-05,2.04807e-05,-5.91459e-06,1.51568e-05,2.18281e-05,-6.90326e-06,2.23241e-05,4.00259e-06,0
-3.22531e-05,2.31672e-05,-5.83334e-06,1.25322e-05,2.18198e-05,-9.40111e-06,2.88901e-05,1.81809e-06,0
-3.27768e-05,2.33237e-05,-6.87316e-06,8.06512e-06,2.16562e-05,-1.13447e-05,3.19535e-05,4.6204e-07,0
-3.21743e-05,2.1591e-05,-8.63057e-06,1.96986e-06,2.14219e-05,-1.3743e-05,3.01701e-05,-6.77121e-07,0
-3.17309e-05,2.25515e-05,-1.00632e-05,-2.65755e-06,1.95691e-05,-1.54366e-05,2.62218e-05,-1.44322e-06,0
-3.0898e-05,2.66779e-05,-9.78848e-06,-4.92315e-06,1.81218e-05,-1.51509e-05,2.23624e-05,-1.99245e-06,0
-2.99264e-05,3.08773e-05,-9.82103e-06,-5.92751e-06,1.6886e-05,-1.28657e-05,1.78211e-05,-2.73469e-06,0
-3.06062e-05,3.36783e-05,-1.07446e-05,-8.51426e-06,1.65643e-05,-1.02031e-05,1.33748e-05,-2.62083e-06,0
-3.1878e-05,3.39239e-05,-9.30643e-06,-1.57537e-05,1.69856e-05,-9.83639e-06,1.04793e-05,-1.9718e-06,0
-3.24799e-05,3.39195e-05,-7.59517e-06,-2.47439e-05,1.75169e-05,-1.09567e-05,8.61374e-06,-2.12716e-06,0
-3.23274e-05,3.38068e-05,-7.57554e-06,-2.9282e-05,1.67887e-05,-1.0766e-05,7.28606e-07,-1.85076e-06,0
-3.27203e-05,3.21739e-05,-7.57442e-06,-2.97625e-05,1.56244e-05,-8.70137e-06,-1.28536e-05,-5.69811e-07,0
-3.29646e-05,2.9336e-05,-8.21479e-06,-2.88285e-05,1.65684e-05,-7.34378e-06,-2.26134e-05,-1.62654e-07,0
-3.34073e-05,2.80965e-05,-9.4217e-06,-2.7466e-05,1.83881e-05,-8.12773e-06,-2.18465e-05,8.42344e-10,0
-3.34322e-05,2.93609e-05,-1.12875e-05,-2.55243e-05,2.09079e-05,-9.60457e-06,-1.27381e-05,-6.23351e-07,0
-3.20729e-05,3.42326e-05,-1.18665e-05,-2.2636e-05,2.20735e-05,-1.00905e-05,-8.30084e-07,-2.33648e-07,0
-3.02222e-05,4.41697e-05,-1.09867e-05,-1.78656e-05,2.02748e-05,-9.71586e-06,1.09757e-05,3.33696e-07,0
-2.95583e-05,5.52756e-05,-1.03649e-05,-1.1848e-05,1.62283e-05,-9.22076e-06,2.12886e-05,3.20176e-07,0
-2.98036e-05,6.22649e-05,-1.04423e-05,-6.58417e-06,1.28578e-05,-8.24387e-06,3.05024e-05,1.30976e-06,0
-2.97297e-05,6.25148e-05,-1.03785e-05,-1.84644e-06,1.16463e-05,-6.46222e-06,3.69654e-05,2.962e-06,0
-2.96952e-05,5.46049e-05,-1.0791e-05,3.92658e-06,1.15673e-05,-5.23614e-06,3.9748e-05,2.82222e-06,0
-2.97182e-05,3.78695e-05,-1.18002e-05,9.56833e-06,1.26812e-05,-5.66211e-06,3.92392e-05,7.45699e-07,0
-2.95984e-05,1.57139e-05,-1.25175e-05,1.17149e-05,1.53694e-05,-7.34828e-06,3.68692e-05,-1.69153e-06,0
-2.89835e-05,-7.33109e-06,-1.23463e-05,1.09627e-05,1.70015e-05,-8.85471e-06,3.3591e-05,-1.97075e-06,0
-2.75717e-05,-2.3258e-05,-1.08427e-05,7.11596e-06,1.66583e-05,-1.0263e-05,3.06984e-05,6.49506e-07,0
-2.60363e-05,-2.5814e-05,-9.58657e-06,-6.59514e-07,1.51929e-05,-1.13954e-05,2.73819e-05,1.88092e-06,0
-2.54784e-05,-1.8926e-05,-9.19564e-06,-6.69291e-06,1.24404e-05,-1.02322e-05,2.25898e-05,2.14936e-06,0
-2.64667e-05,-9.29003e-06,-8.99349e-06,-5.88721e-06,9.25555e-06,-8.02946e-06,1.72403e-05,3.58912e-06,0
-2.67182e-05,-5.34161e-07,-9.41143e-06,-2.43327e-06,6.08146e-06,-7.18071e-06,1.37376e-05,3.78234e-06,0
-2.56798e-05,4.83948e-06,-9.55672e-06,-4.02736e-06,3.51609e-06,-8.74774e-06,1.26618e-05,2.22719e-06,0
-2.50194e-05,5.49379e-06,-8.09078e-06,-1.02378e-05,1.35238e-06,-1.16883e-05,1.2397e-05,8.24191e-07,0
-2.56206e-05,5.61009e-06,-7.27278e-06,-1.29193e-05,8.44784e-07,-1.24205e-05,1.10546e-05,-4.45363e-07,0
-2.72123e-05,7.65249e-06,-7.224e-06,-8.41889e-06,2.93171e-06,-1.11374e-05,9.59648e-06,3.64379e-07,0
-2.83895e-05,9.28919e-06,-6.97765e-06,-1.19209e-06,7.82353e-06,-1.11034e-05,9.41654e-06,1.49635e-06,0
-3.01357e-05,9.08175e-06,-6.07654e-06,4.58004e-06,1.2012e-05,-1.26507e-05,7.80282e-06,1.55877e-06,0
-2.96308e-05,6.75569e-06,-5.30434e-06,9.12604e-06,1.48893e-05,-1.47594e-05,6.36514e-06,1.19128e-06,0
-2.76668e-05,6.63117e-06,-5.23307e-06,1.30548e-05,1.69457e-05,-1.63255e-05,7.76752e-06,6.58947e-07,0
-2.78985e-05,8.47383e-06,-5.75651e-06,1.64927e-05,1.51027e-05,-1.58451e-05,1.47382e-05,1.09116e-06,0
-3.01404e-05,1.09108e-05,-6.4611e-06,1.87536e-05,1.101e-05,-1.47365e-05,2.5634e-05,2.09231e-06,0
-3.22348e-05,1.19759e-05,-5.99026e-06,1.82976e-05,8.12936e-06,-1.44819e-05,3.34534e-05,2.10465e-06,0
-3.33564e-05,1.10394e-05,-4.73287e-06,1.41167e-05,8.69867e-06,-1.35777e-05,3.49521e-05,2.61185e-07,0
-3.40244e-05,9.83599e-06,-3.53507e-06,9.09855e-06,1.12275e-05,-1.26288e-05,3.22193e-05,-1.78101e-06,0
-3.3821e-05,8.74509e-06,-3.62718e-06,5.72164e-06,1.26505e-05,-1.28202e-05,2.70945e-05,-3.02251e-06,0
-3.37439e-05,8.03861e-06,-4.96677e-06,1.88951e-06,1.26946e-05,-1.36371e-05,1.8451e-05,-4.65292e-06,0
-3.42846e-05,7.55437e-06,-6.71994e-06,-5.82299e-06,1.20444e-05,-1.32413e-05,7.89948e-06,-6.53997e-06,0
-3.5188e-05,7.94047e-06,-8.08947e-06,-1.42002e-05,1.05186e-05,-1.20592e-05,-5.49472e-07,-6.64913e-06,0
-3.57061e-05,8.04812e-06,-8.8522e-06,-1.75192e-05,9.43192e-06,-1.18499e-05,-6.57156e-06,-4.5213e-06,0
-3.65542e-05,8.06777e-06,-8.57061e-06,-1.63174e-05,1.00736e-05,-1.20319e-05,-1.26091e-05,-1.3563e-06,0
-3.73303e-05,8.48937e-06,-7.33528e-06,-1.39588e-05,1.13946e-05,-1.11522e-05,-1.83103e-05,-3.79554e-08,0
-3.79488e-05,9.96963e-06,-6.74784e-06,-1.45051e-05,1.20921e-05,-1.0485e-05,-2.12883e-05,-1.60748e-06,0
-3.75328e-05,1.13199e-05,-8.15139e-06,-1.75146e-05,1.22894e-05,-1.19355e-05,-1.95359e-05,-2.77889e-06,0
-3.5816e-05,1.31962e-05,-9.97937e-06,-1.99955e-05,1.23728e-05,-1.38748e-05,-1.34491e-05,-1.35229e-06,0
-3.42935e-05,1.54691e-05,-8.19584e-06,-2.15332e-05,1.20278e-05,-1.37493e-05,-5.75985e-06,4.14002e-07,0
-3.27514e-05,1.61831e-05,-4.07583e-06,-2.17855e-05,1.00355e-05,-1.0904e-05,1.92601e-06,1.01852e-06,0
-3.12378e-05,1.43235e-05,-2.47268e-06,-1.89104e-05,6.89457e-06,-8.07856e-06,8.3374e-06,1.98968e-06,0
-3.00113e-05,1.15331e-05,-3.00059e-06,-1.43894e-05,5.07836e-06,-7.14251e-06,1.17251e-05,3.07678e-06,0
-2.88148e-05,9.24455e-06,-3.85916e-06,-1.05547e-05,5.13536e-06,-9.18614e-06,1.4803e-05,3.53118e-06,0
-2.7161e-05,8.25197e-06,-5.21525e-06,-1.12993e-05,6.04916e-06,-1.27733e-05,1.93399e-05,3.28679e-06,0
-2.57956e-05,7.22787e-06,-7.60196e-06,-1.60183e-05,6.04855e-06,-1.47795e-05,2.23372e-05,1.70571e-06,0
-2.67628e-05,5.11717e-06,-8.75443e-06,-2.05747e-05,6.49209e-06,-1.55563e-05,2.22393e-05,1.45054e-06,0
-2.86546e-05,2.51252e-06,-7.21314e-06,-2.30262e-05,6.84497e-06,-1.57413e-05,1.91815e-05,2.61932e-06,0
-2.98534e-05,6.67817e-07,-6.96104e-06,-2.27288e-05,7.25665e-06,-1.44231e-05,1.37278e-05,3.22181e-06,0
-2.93316e-05,1.64907e-06,-9.12039e-06,-2.35353e-05,9.62423e-06,-1.24543e-05,2.6678e-06,2.6148e-06,0
-2.691e-05,3.76048e-06,-1.10321e-05,-2.59152e-05,9.72806e-06,-1.05559e-05,-1.50222e-05,2.51012e-06,0
-2.55994e-05,5.28921e-06,-1.09831e-05,-2.7707e-05,7.41112e-06,-9.748e-06,-2.903e-05,3.13713e-06,0
-2.55218e-05,5.22407e-06,-1.15717e-05,-2.3999e-05,4.02981e-06,-9.96204e-06,-2.92889e-05,3.14424e-06,0
-2.63839e-05,5.82083e-06,-1.26418e-05,-1.55603e-05,1.58664e-06,-1.04732e-05,-1.71156e-05,3.30125e-06,0
-2.76152e-05,5.84915e-06,-1.28286e-05,-1.05761e-05,5.79463e-08,-1.06337e-05,-2.15247e-06,3.2676e-06,0
-2.78887e-05,2.86456e-06,-1.18535e-05,-1.17173e-05,-1.20097e-06,-1.01906e-05,1.04531e-05,2.80773e-06,0
-2.68971e-05,-8.34537e-07,-1.0736e-05,-1.32353e-05,-1.17035e-06,-1.07023e-05,2.10532e-05,2.92286e-06,0
-2.56968e-05,-2.90927e-06,-1.10747e-05,-8.5796e-06,1.50186e-07,-1.15988e-05,2.91464e-05,3.66678e-06,0
-2.5192e-05,-3.92751e-06,-1.19837e-05,4.48804e-07,2.56789e-06,-1.23215e-05,3.39557e-05,3.83968e-06,0
-2.57758e-05,-5.23237e-06,-1.22876e-05,1.01566e-05,3.28706e-06,-1.21329e-05,3.48908e-05,3.9923e-06,0
-2.69454e-05,-6.21329e-06,-1.13971e-05,2.27422e-05,1.8296e-06,-1.12228e-05,3.22799e-05,4.36309e-06,0
-2.65399e-05,-5.25085e-06,-1.09406e-05,4.24827e-05,1.09954e-06,-1.04699e-05,2.69709e-05,4.71977e-06,0
-2.49885e-05,-2.09879e-06,-1.07206e-05,6.44442e-05,5.12094e-06,-1.0938e-05,2.26838e-05,4.20794e-06,0
-2.47848e-05,1.20577e-06,-9.89593e-06,7.61576e-05,1.25648e-05,-1.16267e-05,2.17524e-05,3.55979e-06,0
-2.59612e-05,2.40118e-06,-7.87114e-06,6.75627e-05,1.99332e-05,-1.23814e-05,2.07904e-05,3.80059e-06,0
-2.62055e-05,5.85716e-07,-5.55353e-06,4.15266e-05,2.35685e-05,-1.36417e-05,1.79745e-05,5.23996e-06,0
-2.51331e-05,-3.1626e-08,-4.5376e-06,1.3404e-05,2.25334e-05,-1.4309e-05,1.81387e-05,6.53539e-06,0
-2.509e-05,6.7936e-06,-5.91584e-06,-5.65e-06,1.99448e-05,-1.47583e-05,2.18741e-05,6.70067e-06,0
-2.68876e-05,2.04992e-05,-8.48853e-06,-1.29577e-05,1.90573e-05,-1.38216e-05,2.54693e-05,6.54005e-06,0
-2.8325e-05,3.15123e-05,-1.09996e-05,-1.02354e-05,2.09811e-05,-1.31186e-05,2.76382e-05,6.10303e-06,0
-2.97687e-05,3.29189e-05,-1.39078e-05,-4.65129e-06,2.65046e-05,-1.44617e-05,2.71981e-05,6.40526e-06,0
-3.02642e-05,2.85891e-05,-1.44211e-05,-3.8315e-06,3.12066e-05,-1.55122e-05,2.62232e-05,6.91974e-06,0
-2.83572e-05,2.55548e-05,-1.10718e-05,-7.77206e-06,3.1646e-05,-1.59e-05,2.40332e-05,8.74194e-06,0
-2.64503e-05,2.88774e-05,-1.01324e-05,-1.02191e-05,2.90817e-05,-1.5234e-05,1.95764e-05,1.05863e-05,0
-2.67115e-05,3.20341e-05,-1.30766e-05,-8.83743e-06,2.48085e-05,-1.32947e-05,1.65204e-05,9.63427e-06,0
-3.08468e-05,2.70275e-05,-1.59916e-05,-4.93832e-06,2.21475e-05,-1.23124e-05,1.53223e-05,8.25517e-06,0
-3.35464e-05,1.57915e-05,-1.66926e-05,1.5607e-07,1.98806e-05,-1.28242e-05,1.51898e-05,6.97612e-06,0
-3.23781e-05,2.28511e-06,-1.54147e-05,5.66744e-06,1.95675e-05,-1.38363e-05,1.47001e-05,7.41708e-06,0
-3.11394e-05,-1.04593e-05,-1.46549e-05,9.08848e-06,1.98836e-05,-1.35387e-05,1.3215e-05,7.88503e-06,0
-3.10334e-05,-2.33546e-05,-1.395e-05,7.0961e-06,1.87293e-05,-1.06436e-05,1.14837e-05,6.07804e-06,0
-3.30006e-05,-3.14857e-05,-1.28994e-05,1.67635e-06,1.74459e-05,-7.86758e-06,9.73396e-06,2.35137e-06,0
-3.61346e-05,-3.1314e-05,-1.1821e-05,-3.87712e-06,1.74804e-05,-7.31387e-06,8.50968e-06,-1.57394e-06,0
-3.73528e-05,-2.72378e-05,-9.98037e-06,-7.64142e-06,1.90187e-05,-8.29867e-06,8.62481e-06,-2.50635e-06,0
-3.56522e-05,-2.31947e-05,-6.80158e-06,-1.0539e-05,2.13401e-05,-1.02379e-05,1.07163e-05,-1.64276e-06,0
-3.41813e-05,-1.71e-05,-4.77598e-06,-1.10687e-05,2.47855e-05,-1.11462e-05,1.23454e-05,-1.56287e-06,0
-3.37292e-05,-3.62572e-06,-4.44936e-06,-8.79852e-06,2.72896e-05,-1.00275e-05,1.24876e-05,-3.48417e-06,0
-3.32943e-05,1.59135e-05,-3.49399e-06,-9.02333e-06,2.74651e-05,-8.51716e-06,1.20301e-05,-5.38637e-06,0
-3.2313e-05,3.27987e-05,-3.80891e-07,-1.34613e-05,2.47689e-05,-7.82126e-06,1.14084e-05,-6.38331e-06,0
-3.18602e-05,4.00916e-05,3.74309e-06,-1.61353e-05,2.07553e-05,-7.47322e-06,1.09317e-05,-6.73045e-06,0
-3.19211e-05,3.93617e-05,6.76616e-06,-1.51121e-05,1.8229e-05,-6.44432e-06,1.12532e-05,-6.02126e-06,0
-3.19696e-05,3.57431e-05,8.33713e-06,-1.38306e-05,1.77258e-05,-5.58392e-06,1.29485e-05,-5.09087e-06,0
-3.20673e-05,3.09611e-05,8.31013e-06,-1.06391e-05,1.63168e-05,-5.92024e-06,1.56842e-05,-5.91277e-06,0
-3.0515e-05,2.32449e-05,6.77688e-06,-2.03026e-06,1.36822e-05,-6.34052e-06,1.79819e-05,-6.84421e-06,0
-2.82838e-05,1.45736e-05,5.20645e-06,9.37911e-06,1.26612e-05,-7.30944e-06,1.86161e-05,-7.48248e-06,0
-2.86797e-05,6.5241e-06,4.48241e-06,1.67992e-05,1.48217e-05,-8.66859e-06,1.74155e-05,-7.81539e-06,0
-3.08942e-05,-1.93677e-06,3.64096e-06,1.66089e-05,1.69112e-05,-8.004e-06,1.48643e-05,-6.57268e-06,0
-3.11793e-05,-1.08693e-05,1.50296e-06,9.92408e-06,1.71314e-05,-5.7158e-06,1.26094e-05,-4.59109e-06,0
-3.05417e-05,-1.64274e-05,-2.37161e-06,1.66485e-07,1.6023e-05,-4.02315e-06,1.22681e-05,-3.76782e-06,0
-3.05511e-05,-1.62442e-05,-5.08158e-06,-1.10285e-05,1.39983e-05,-3.99901e-06,1.41211e-05,-4.85722e-06,0
-3.02963e-05,-1.32017e-05,-4.96825e-06,-2.54496e-05,1.21317e-05,-5.09327e-06,1.57547e-05,-5.51474e-06,0
-3.04111e-05,-8.32959e-06,-4.56314e-06,-4.01639e-05,1.07377e-05,-4.13455e-06,1.58666e-05,-5.03772e-06,0
-2.98081e-05,-2.79097e-06,-5.94497e-06,-4.88467e-05,9.52398e-06,-1.74942e-06,1.44459e-05,-3.98819e-06,0
-2.87529e-05,-5.06476e-07,-7.95367e-06,-5.35634e-05,7.24674e-06,-3.08419e-07,1.27853e-05,-1.73535e-06,0
-2.96298e-05,-2.11691e-06,-9.79639e-06,-5.0192e-05,6.44131e-06,-4.91995e-07,1.3148e-05,1.02569e-07,0
-3.00888e-05,-3.45799e-06,-1.29395e-05,-3.3718e-05,7.03543e-06,-2.55832e-06,1.34938e-05,-9.46368e-07,0
-2.9525e-05,-2.78292e-06,-1.89158e-05,-1.04986e-05,6.61542e-06,-3.60872e-06,1.27775e-05,-1.5609e-06,0
-2.98369e-05,-2.24843e-06,-2.72677e-05,8.93679e-06,5.08669e-06,-3.09979e-06,1.24461e-05,8.29984e-07,0
-3.09412e-05,-1.8455e-06,-3.255e-05,1.92789e-05,3.80071e-06,-3.21397e-06,1.27307e-05,3.28818e-06,0
-3.18702e-05,-2.46964e-08,-3.22448e-05,2.21265e-05,3.38507e-06,-3.37271e-06,1.3228e-05,2.94258e-06,0
-3.2784e-05,2.88803e-06,-2.87403e-05,1.97352e-05,2.71343e-06,-3.2482e-06,1.23008e-05,5.66365e-07,0
-3.35881e-05,5.16898e-06,-2.47846e-05,1.24202e-05,2.62095e-06,-3.44494e-06,1.05087e-05,-1.45236e-06,0
-3.42547e-05,5.82372e-06,-2.12685e-05,1.42465e-06,4.08791e-06,-3.24325e-06,8.33202e-06,-1.05957e-06,0
-3.48879e-05,5.26998e-06,-1.80337e-05,-7.62298e-06,5.62031e-06,-3.12991e-06,7.39864e-06,9.75636e-07,0
-3.57076e-05,4.47567e-06,-1.56839e-05,-1.19307e-05,5.45204e-06,-4.58436e-06,8.76875e-06,2.29491e-06,0
-3.56543e-05,3.81265e-06,-1.36983e-05,-1.31872e-05,4.27473e-06,-7.16553e-06,8.56125e-06,1.98829e-06,0
-3.36554e-05,2.88915e-06,-1.15735e-05,-1.4376e-05,3.32224e-06,-8.01337e-06,3.26815e-06,2.18053e-06,0
-3.26237e-05,2.49285e-06,-9.41133e-06,-1.38562e-05,2.84782e-06,-7.15112e-06,-3.74091e-06,3.70353e-06,0
-3.33212e-05,3.87551e-06,-9.25689e-06,-9.65621e-06,3.43204e-06,-6.27231e-06,-6.76385e-06,4.02762e-06,0
-3.3229e-05,5.88805e-06,-1.10044e-05,-4.014e-06,4.36741e-06,-6.34191e-06,-6.22772e-06,3.37795e-06,0
-3.19722e-05,7.59666e-06,-1.22247e-05,2.02487e-06,3.09976e-06,-7.32349e-06,-4.11155e-06,4.00647e-06,0
-3.08985e-05,9.04808e-06,-1.22361e-05,6.59993e-06,2.60989e-07,-8.40563e-06,-1.11623e-06,5.40465e-06,0
-3.03256e-05,8.11944e-06,-1.18522e-05,5.33244e-06,-6.94657e-07,-9.18899e-06,3.95565e-06,4.28564e-06,0
-2.9735e-05,6.72714e-06,-1.0817e-05,-3.02588e-06,1.06737e-06,-9.28634e-06,1.38056e-05,1.93485e-06,0
-2.86451e-05,8.19079e-06,-7.70697e-06,-1.73138e-05,3.64479e-06,-9.48644e-06,2.89332e-05,1.47193e-06,0
-2.85818e-05,1.15859e-05,-4.63895e-06,-3.34316e-05,5.81302e-06,-1.0041e-05,4.29491e-05,1.81877e-06,0
-2.97191e-05,1.60073e-05,-4.17639e-06,-5.035e-05,5.96251e-06,-1.04922e-05,5.07353e-05,3.04985e-06,0
-2.92035e-05,2.26666e-05,-3.47027e-06,-6.90678e-05,3.74708e-06,-1.03667e-05,5.56858e-05,4.68925e-06,0
-2.69762e-05,2.9901e-05,-4.24817e-06,-7.95445e-05,2.11589e-06,-9.43526e-06,5.5571e-05,5.87287e-06,0
-2.58268e-05,3.73558e-05,-6.34445e-06,-7.33756e-05,3.77959e-06,-9.64037e-06,4.87697e-05,6.79856e-06,0
-2.63563e-05,4.21751e-05,-6.46772e-06,-5.78131e-05,8.68788e-06,-1.11317e-05,3.68424e-05,6.18561e-06,0
-2.75118e-05,4.31193e-05,-4.6893e-06,-4.00705e-05,1.35635e-05,-1.09966e-05,1.99941e-05,4.42435e-06,0
-2.7688e-05,4.36042e-05,-1.74441e-06,-2.53328e-05,1.69902e-05,-9.65037e-06,2.49509e-06,2.87898e-06,0
-2.66163e-05,4.11637e-05,-1.33459e-06,-1.61631e-05,1.91717e-05,-8.56129e-06,-1.24247e-05,2.81176e-06,0
-2.55244e-05,3.66654e-05,-2.6109e-06,-1.04166e-05,2.11131e-05,-7.4541e-06,-1.91868e-05,3.86676e-06,0
-2.47414e-05,3.17363e-05,-4.09772e-06,-7.36216e-06,2.16924e-05,-6.79249e-06,-1.85362e-05,6.02636e-06,0
-2.50538e-05,2.78534e-05,-5.17522e-06,-4.76399e-06,2.06071e-05,-7.429e-06,-1.49836e-05,8.57067e-06,0
-2.64051e-05,2.83429e-05,-6.18428e-06,-2.99933e-06,2.03149e-05,-1.05416e-05,-1.05217e-05,1.0025e-05,0
-2.74359e-05,3.5514e-05,-6.27393e-06,-2.63773e-06,2.07524e-05,-1.41448e-05,-5.08068e-06,9.92629e-06,0
-2.86815e-05,4.64931e-05,-5.85979e-06,-2.67101e-06,2.04176e-05,-1.49933e-05,3.4971e-07,9.23069e-06,0
-3.04698e-05,5.56609e-05,-6.87092e-06,-2.41094e-06,1.79632e-05,-1.3736e-05,3.64813e-06,8.74756e-06,0
-3.1885e-05,5.7735e-05,-8.76355e-06,-2.5099e-06,1.45869e-05,-1.31353e-05,5.55666e-06,6.93448e-06,0
-3.18037e-05,4.76386e-05,-8.72432e-06,-1.91869e-06,1.35172e-05,-1.35751e-05,6.85165e-06,4.11775e-06,0
-3.11617e-05,2.62032e-05,-5.66747e-06,5.65232e-07,1.63925e-05,-1.32459e-05,8.62286e-06,1.82645e-06,0
-3.17563e-05,-7.55334e-08,-2.70968e-06,6.5028e-06,2.05634e-05,-1.25051e-05,1.07707e-05,1.01168e-06,0
-3.29469e-05,-2.31282e-05,-1.36809e-06,1.93661e-05,2.44595e-05,-1.32872e-05,1.24223e-05,5.42604e-07,0
-3.29839e-05,-3.52971e-05,-1.18109e-06,3.8212e-05,2.96271e-05,-1.5271e-05,1.27439e-05,-1.19854e-06,0
-3.19882e-05,-3.33392e-05,-1.84089e-06,5.14641e-05,3.36431e-05,-1.59728e-05,1.21941e-05,-2.5193e-06,0
-3.14466e-05,-2.19269e-05,-4.4007e-06,4.86508e-05,3.08918e-05,-1.59643e-05,9.99868e-06,-2.31174e-06,0
-3.13103e-05,-9.20506e-06,-5.67669e-06,3.52529e-05,2.33636e-05,-1.63443e-05,8.08879e-06,-2.0089e-06,0
-3.10172e-05,1.45337e-06,-4.77156e-06,2.34076e-05,1.75768e-05,-1.70906e-05,8.58461e-06,-1.55679e-06,0
-2.92949e-05,1.10972e-05,-4.19392e-06,1.74493e-05,1.51168e-05,-1.64049e-05,1.1961e-05,-1.46954e-06,0
-2.71888e-05,1.69612e-05,-4.19764e-06,1.0973e-05,1.56211e-05,-1.46516e-05,1.66241e-05,-1.41029e-06,0
-2.63655e-05,2.04425e-05,-3.80122e-06,3.65457e-07,1.67238e-05,-1.49537e-05,1.8436e-05,-1.28611e-06,0
-2.68698e-05,2.48278e-05,-3.36989e-06,-7.46222e-06,1.52544e-05,-1.61e-05,1.562e-05,-1.01006e-06,0
-2.71007e-05,2.62611e-05,-5.92269e-06,-1.23737e-05,1.44301e-05,-1.63387e-05,1.26822e-05,-1.22483e-06,0
-2.5913e-05,2.52118e-05,-1.21516e-05,-1.82012e-05,1.5087e-05,-1.58894e-05,1.22104e-05,-1.89678e-06,0
-2.50803e-05,2.7152e-05,-1.85662e-05,-2.48079e-05,1.48465e-05,-1.52015e-05,1.31695e-05,-1.53926e-06,0
-2.5148e-05,3.02467e-05,-2.13917e-05,-3.03221e-05,1.34776e-05,-1.48846e-05,1.51884e-05,-2.60555e-06,0
-2.56737e-05,3.26071e-05,-2.05619e-05,-2.9837e-05,1.23323e-05,-1.42686e-05,1.82579e-05,-4.40852e-06,0
-2.71307e-05,3.40692e-05,-1.79055e-05,-2.37102e-05,1.20135e-05,-1.2992e-05,2.15386e-05,-5.15764e-06,0
-2.87347e-05,3.58365e-05,-1.35862e-05,-1.37543e-05,1.27929e-05,-1.09613e-05,2.26716e-05,-4.46764e-06,0
-2.90416e-05,3.9808e-05,-9.08212e-06,-4.54235e-06,1.48971e-05,-8.07543e-06,2.10203e-05,-3.03624e-06,0
-2.81943e-05,4.44146e-05,-6.45432e-06,-3.4635e-07,1.52767e-05,-7.21929e-06,1.79328e-05,-2.35542e-06,0
-2.73151e-05,4.71862e-05,-5.56942e-06,-1.83454e-07,1.27849e-05,-7.86317e-06,1.65508e-05,-3.10007e-06,0
-2.72855e-05,4.56876e-05,-4.85836e-06,-4.27792e-07,9.99947e-06,-7.07826e-06,1.63108e-05,-4.11062e-06,0
-2.90263e-05,4.16143e-05,-4.16104e-06,4.97191e-07,1.02401e-05,-4.80087e-06,1.50528e-05,-2.9993e-06,0
-3.16826e-05,3.78406e-05,-3.94509e-06,4.99807e-07,1.26421e-05,-3.76561e-06,1.27792e-05,-2.28571e-07,0
-3.32425e-05,3.58189e-05,-4.60867e-06,-4.89993e-07,1.53469e-05,-4.90381e-06,1.07476e-05,1.86864e-06,0
-3.33352e-05,3.50779e-05,-6.32123e-06,-6.76759e-07,1.80381e-05,-6.22681e-06,9.09662e-06,1.8874e-06,0
-3.30104e-05,3.51714e-05,-7.67596e-06,6.16015e-07,2.03729e-05,-5.48909e-06,7.55268e-06,5.74672e-07,0
-3.28001e-05,3.5637e-05,-8.22744e-06,2.28456e-06,2.08588e-05,-2.96487e-06,6.55317e-06,-7.68857e-07,0
-3.19574e-05,3.62093e-05,-8.2192e-06,3.75395e-06,1.9532e-05,-1.8046e-06,6.89896e-06,-1.91106e-06,0
-2.98347e-05,3.5455e-05,-8.596e-06,5.05252e-06,1.91271e-05,-1.93043e-06,7.10552e-06,-3.26017e-06,0
-2.70154e-05,3.32543e-05,-1.01838e-05,6.50877e-06,2.02724e-05,-1.44706e-06,5.39312e-06,-3.7742e-06,0
-2.57705e-05,3.14927e-05,-1.12741e-05,7.78134e-06,2.04176e-05,-1.80673e-06,2.81951e-06,-2.46177e-06,0
-2.63899e-05,3.10936e-05,-9.92509e-06,8.00559e-06,1.84236e-05,-3.38845e-06,2.83794e-06,-3.31527e-07,0
-2.78296e-05,3.06349e-05,-8.28097e-06,8.06664e-06,1.53072e-05,-4.00771e-06,5.51857e-06,1.02068e-06,0
-2.95292e-05,2.75048e-05,-7.4358e-06,7.75252e-06,1.35972e-05,-4.78468e-06,8.09147e-06,7.00086e-07,0
-3.12208e-05,2.24005e-05,-5.70214e-06,2.20482e-06,1.30517e-05,-6.85357e-06,1.09553e-05,-2.10944e-06,0
-3.25761e-05,2.01674e-05,-3.39829e-06,-5.05077e-06,1.22927e-05,-8.81907e-06,1.38524e-05,-2.85084e-06,0
-3.25523e-05,2.12339e-05,-4.23292e-06,-5.4826e-06,1.17409e-05,-8.14791e-06,1.57528e-05,-1.23882e-06,0
-3.16876e-05,2.13166e-05,-8.12682e-06,-7.15805e-07,1.11374e-05,-6.28703e-06,1.4282e-05,-3.66694e-07,0
-3.07236e-05,2.0961e-05,-1.07317e-05,3.78574e-06,1.19001e-05,-5.3077e-06,1.21364e-05,1.20681e-06,0
-3.01698e-05,1.99959e-05,-1.11796e-05,6.04855e-06,1.34777e-05,-5.43022e-06,1.44345e-05,1.98741e-06,0
-3.00597e-05,1.88153e-05,-1.20059e-05,6.18054e-06,1.2608e-05,-6.74402e-06,1.80047e-05,1.56965e-06,0
-2.94066e-05,1.57112e-05,-1.39194e-05,4.3636e-06,1.12379e-05,-8.19341e-06,1.29313e-05,1.7747e-07,0
-2.99779e-05,1.11598e-05,-1.52313e-05,7.55841e-07,1.28169e-05,-7.98849e-06,-2.43286e-06,-4.67184e-07,0
-3.1167e-05,9.56522e-06,-1.33269e-05,-2.0728e-06,1.40674e-05,-6.94209e-06,-1.46188e-05,-4.74823e-07,0
-3.12728e-05,1.1289e-05,-9.03769e-06,-3.77705e-07,1.34814e-05,-6.05188e-06,-1.52684e-05,-1.84218e-08,0
-2.98498e-05,1.44654e-05,-5.17264e-06,-3.02508e-07,1.28154e-05,-5.16448e-06,-6.98103e-06,1.77549e-06,0
-2.73492e-05,1.63771e-05,-3.01082e-06,-7.90733e-06,1.29356e-05,-4.60145e-06,5.74525e-06,2.84995e-06,0
-2.53459e-05,1.8813e-05,-2.93195e-06,-1.62782e-05,1.19323e-05,-4.23214e-06,1.97356e-05,2.14194e-06,0
-2.52465e-05,2.6516e-05,-2.76115e-06,-1.81248e-05,1.00685e-05,-4.19525e-06,3.21206e-05,2.18905e-06,0
-2.77334e-05,3.90817e-05,-2.23342e-06,-1.68838e-05,8.95014e-06,-3.97036e-06,4.05535e-05,4.45429e-06,0
-3.01954e-05,4.90481e-05,-3.30987e-06,-1.70294e-05,8.67751e-06,-4.08132e-06,4.45301e-05,7.08992e-06,0
-3.13112e-05,5.11775e-05,-6.88049e-06,-1.6842e-05,9.44299e-06,-3.88151e-06,4.4658e-05,9.43589e-06,0
-3.10258e-05,4.3345e-05,-1.06942e-05,-1.40901e-05,1.06406e-05,-3.47705e-06,4.21204e-05,1.08212e-05,0
-3.05353e-05,2.6614e-05,-1.34009e-05,-7.98323e-06,1.24377e-05,-2.3112e-06,3.84422e-05,1.16516e-05,0
-3.09925e-05,6.21494e-06,-1.53948e-05,-2.08258e-06,1.33402e-05,-1.54834e-06,3.40117e-05,1.16924e-05,0
-3.16939e-05,-1.45664e-05,-1.60389e-05,1.04841e-06,1.21536e-05,-3.2802e-06,3.04997e-05,9.66619e-06,0
-3.1877e-05,-3.13102e-05,-1.38433e-05,6.43626e-06,1.01975e-05,-6.33444e-06,2.87421e-05,5.82768e-06,0
-3.26167e-05,-3.85299e-05,-9.37584e-06,1.78155e-05,9.06205e-06,-8.58004e-06,2.48613e-05,2.9206e-06,0
-3.39729e-05,-3.59417e-05,-3.81871e-06,3.20654e-05,8.7238e-06,-9.54111e-06,1.78082e-05,4.14801e-06,0
-3.41129e-05,-2.83797e-05,2.21304e-06,4.07434e-05,8.56934e-06,-9.84056e-06,7.85857e-06,6.36716e-06,0
-3.3448e-05,-2.20805e-05,7.82365e-06,3.54891e-05,8.40151e-06,-9.05769e-06,1.41598e-07,5.94696e-06,0
-3.25421e-05,-1.72106e-05,1.66424e-05,1.76272e-05,5.79043e-06,-9.042e-06,-6.94945e-07,4.98994e-06,0
-3.18849e-05,-1.16621e-05,3.25713e-05,2.20986e-07,3.15348e-06,-1.17479e-05,2.02001e-06,3.98628e-06,0
-3.20368e-05,-7.98351e-06,5.15788e-05,-1.09103e-05,2.14428e-06,-1.34392e-05,5.0842e-06,2.77656e-06,0
-3.25556e-05,-6.47767e-06,6.75311e-05,-1.95258e-05,1.91238e-06,-1.26035e-05,8.23788e-06,1.44348e-06,0
-3.16281e-05,-5.91267e-06,7.30849e-05,-2.6409e-05,4.00755e-06,-1.15694e-05,1.22475e-05,1.09862e-06,0
-3.01746e-05,-4.21976e-06,6.14872e-05,-3.21785e-05,5.26693e-06,-1.16041e-05,1.43555e-05,1.24254e-06,0
-3.11773e-05,-2.59889e-07,3.33907e-05,-3.22136e-05,3.98656e-06,-1.33184e-05,1.25344e-05,1.11579e-06,0
-3.26137e-05,3.97055e-06,-4.95612e-06,-2.66917e-05,1.07648e-06,-1.33782e-05,8.99055e-06,6.1857e-07,0
-3.36539e-05,6.54161e-06,-4.39e-05,-1.89467e-05,2.28068e-06,-1.19507e-05,7.54575e-06,-1.30005e-07,0
-3.43973e-05,6.11199e-06,-7.38168e-05,-1.1448e-05,6.14627e-06,-1.02407e-05,8.70414e-06,-1.19424e-06,0
-3.38598e-05,3.51626e-06,-8.71523e-05,-4.80513e-06,9.51904e-06,-8.10823e-06,9.42223e-06,-4.45936e-06,0
-3.26637e-05,-4.66217e-07,-8.33372e-05,5.76881e-07,1.3857e-05,-6.83227e-06,9.12535e-06,-6.54995e-06,0
-3.1508e-05,-4.40262e-06,-6.89489e-05,2.67114e-06,2.06833e-05,-6.04954e-06,9.68428e-06,-4.81056e-06,0
-3.13309e-05,-6.04263e-06,-5.46145e-05,3.51813e-06,2.87064e-05,-5.93688e-06,1.08263e-05,-1.10733e-06,0
-3.20525e-05,-5.64214e-06,-4.49416e-05,4.93654e-06,3.41099e-05,-5.92888e-06,1.10737e-05,8.11664e-07,0
-3.10214e-05,-4.70436e-06,-3.83444e-05,5.58284e-06,3.53418e-05,-5.38683e-06,1.10336e-05,-2.96617e-07,0
-2.80417e-05,-3.8687e-06,-3.23499e-05,1.72419e-06,3.01636e-05,-5.30924e-06,1.21191e-05,-2.63117e-06,0
-2.71389e-05,-4.6073e-06,-2.63609e-05,-3.91116e-06,2.20409e-05,-6.99941e-06,1.35472e-05,-2.59991e-06,0
-2.85614e-05,-8.00014e-06,-2.20536e-05,-7.70591e-06,1.55448e-05,-1.09423e-05,1.44617e-05,6.40175e-07,0
-3.01139e-05,-1.20882e-05,-1.97515e-05,-9.53706e-06,1.26662e-05,-1.51227e-05,1.40822e-05,4.28487e-06,0
-3.12705e-05,-1.37082e-05,-1.86601e-05,-1.09133e-05,1.10339e-05,-1.63348e-05,1.29563e-05,6.24275e-06,0
-3.2194e-05,-9.76277e-06,-1.60324e-05,-1.10898e-05,9.34735e-06,-1.48617e-05,1.5036e-05,5.57847e-06,0
-3.15588e-05,-2.76457e-06,-1.2957e-05,-1.02243e-05,8.5836e-06,-1.31443e-05,2.17464e-05,2.96608e-06,0
-2.96654e-05,1.17934e-06,-1.04528e-05,-9.42343e-06,1.05574e-05,-1.25063e-05,2.94413e-05,8.85063e-07,0
-2.8337e-05,1.87902e-06,-7.53289e-06,-8.38697e-06,1.29429e-05,-1.21648e-05,3.37186e-05,8.02766e-07,0
-2.8573e-05,2.56085e-06,-4.99877e-06,-8.12087e-06,1.3878e-05,-1.06191e-05,3.27331e-05,7.9693e-07,0
-2.91027e-05,4.27209e-06,-3.5758e-06,-8.59686e-06,1.4574e-05,-1.02342e-05,2.70721e-05,-1.6842e-07,0
-2.89888e-05,7.33582e-06,-1.83699e-06,-7.44824e-06,1.5033e-05,-1.1774e-05,1.89343e-05,-1.15401e-06,0
-3.06531e-05,8.95452e-06,-4.65991e-07,-3.86364e-06,1.71428e-05,-1.13768e-05,8.62546e-06,-1.45636e-06,0
-3.23136e-05,7.03618e-06,-2.58499e-06,-4.00214e-07,1.99389e-05,-1.01101e-05,-2.17671e-06,-2.17316e-06,0
-3.23634e-05,6.08027e-06,-7.1308e-06,-2.62167e-07,2.10264e-05,-9.50221e-06,-8.71315e-06,-2.79643e-06,0
-3.2651e-05,7.74598e-06,-9.24249e-06,-1.58488e-06,1.96355e-05,-1.07415e-05,-1.00043e-05,-2.61056e-06,0
-3.3416e-05,8.9861e-06,-8.08506e-06,-1.18226e-06,1.84237e-05,-1.27938e-05,-1.02661e-05,-1.49093e-06,0
-3.41277e-05,1.00927e-05,-7.37402e-06,-2.2675e-07,1.88941e-05,-1.20542e-05,-8.76389e-06,8.06109e-07,0
-3.372e-05,1.14783e-05,-5.79606e-06,-1.00368e-06,1.94348e-05,-1.02285e-05,-4.53436e-06,1.08075e-06,0
-3.27808e-05,1.15405e-05,-3.17648e-06,-2.66453e-06,2.07405e-05,-8.32375e-06,1.33778e-07,-1.19367e-06,0
-3.24744e-05,1.17545e-05,-2.54042e-06,-3.16203e-06,2.09876e-05,-8.27791e-06,4.63148e-06,-2.46839e-06,0
-3.21438e-05,1.4211e-05,-3.56439e-06,-3.1307e-06,1.9719e-05,-9.87494e-06,7.08928e-06,-2.08753e-06,0
-3.13744e-05,1.69618e-05,-3.81408e-06,-2.5853e-06,1.89887e-05,-1.18329e-05,7.00791e-06,-1.56393e-06,0
-3.09061e-05,1.82536e-05,-2.10877e-06,-2.73148e-06,1.81786e-05,-1.25309e-05,5.042e-06,-2.45523e-06,0
-3.0717e-05,1.92081e-05,-3.46477e-07,-3.83485e-06,1.63304e-05,-1.24601e-05,2.57817e-06,-3.98787e-06,0
-3.09079e-05,2.07384e-05,5.47278e-08,-4.4048e-06,1.42709e-05,-1.2759e-05,8.28963e-07,-4.38899e-06,0
-3.09137e-05,2.24466e-05,-9.67034e-07,-3.22717e-06,1.28307e-05,-1.23854e-05,1.34553e-06,-3.8038e-06,0
-2.96303e-05,2.34711e-05,-3.20579e-06,2.17703e-06,1.2415e-05,-1.15751e-05,3.55669e-06,-4.02897e-06,0
-2.7722e-05,2.41865e-05,-5.34039e-06,1.26586e-05,1.36135e-05,-1.13691e-05,5.14616e-06,-4.7513e-06,0
-2.66432e-05,2.50299e-05,-5.70459e-06,2.06966e-05,1.37202e-05,-1.18569e-05,5.25436e-06,-4.59667e-06,0
