ch1,ch2,ch3,ch4,ch5,ch6,ch7,ch8,class
-3.32748e-05,1.08023e-05,-7.68184e-06,-3.14816e-06,3.25198e-06,-1.43412e-05,1.46878e-05,9.26963e-06,0
-3.31788e-05,1.08491e-05,-6.75338e-06,3.23932e-08,3.28924e-06,-1.38697e-05,1.39086e-05,1.00127e-05,0
-3.15427e-05,1.05531e-05,-4.4332e-06,4.09153e-06,3.31213e-06,-1.44421e-05,1.31762e-05,8.63316e-06,0
-3.00442e-05,9.91888e-06,-1.70021e-06,6.87651e-06,3.52889e-06,-1.58485e-05,1.39496e-05,7.00133e-06,0
-3.03437e-05,9.14219e-06,-3.506e-07,8.20946e-06,3.99965e-06,-1.75416e-05,1.62254e-05,6.67153e-06,0
-3.20466e-05,8.2688e-06,-4.58044e-07,8.19561e-06,5.06424e-06,-1.79137e-05,1.7729e-05,7.40238e-06,0
-3.34195e-05,8.43511e-06,-6.59895e-07,7.80034e-06,6.66205e-06,-1.76913e-05,1.76369e-05,8.02557e-06,0
-3.32556e-05,1.06868e-05,4.05846e-07,6.61999e-06,8.56674e-06,-1.68302e-05,1.76388e-05,7.61488e-06,0
-3.1593e-05,1.34104e-05,2.99344e-07,6.00899e-06,1.14992e-05,-1.50643e-05,1.91182e-05,7.02267e-06,0
-2.98112e-05,1.302e-05,-1.65046e-06,6.16428e-06,1.33091e-05,-1.50102e-05,2.26578e-05,7.32061e-06,0
-3.03064e-05,1.21701e-05,-2.58385e-06,5.61282e-06,1.37168e-05,-1.51586e-05,2.7026e-05,8.12996e-06,0
-3.13357e-05,1.55951e-05,-1.87254e-06,5.17646e-06,1.42478e-05,-1.26858e-05,2.98562e-05,9.18983e-06,0
-3.08826e-05,2.17425e-05,-7.26617e-07,7.41527e-06,1.26437e-05,-9.03592e-06,2.88341e-05,8.17831e-06,0
-2.97952e-05,2.42539e-05,9.8537e-07,1.30023e-05,9.04489e-06,-8.21394e-06,2.35164e-05,5.41461e-06,0
-2.89143e-05,2.39011e-05,1.02104e-06,1.69939e-05,7.03691e-06,-8.92714e-06,1.69897e-05,3.19289e-06,0
-2.88525e-05,2.45876e-05,-2.60419e-07,1.6309e-05,7.00203e-06,-8.83733e-06,1.29989e-05,3.22194e-06,0
-2.90273e-05,2.32681e-05,-1.24473e-06,1.27738e-05,7.53432e-06,-9.17167e-06,1.30692e-05,4.27796e-06,0
-2.84427e-05,1.9576e-05,-2.02767e-06,9.14875e-06,8.21895e-06,-1.03493e-05,1.35428e-05,3.86617e-06,0
-2.80688e-05,1.64657e-05,-1.43466e-06,6.02365e-06,7.66467e-06,-1.18977e-05,1.22973e-05,2.71798e-06,0
-2.84261e-05,1.68935e-05,-1.60308e-08,5.07273e-07,6.91562e-06,-1.14417e-05,9.93589e-06,2.28814e-06,0
-2.97259e-05,1.91768e-05,-3.71756e-08,-6.58888e-06,6.93695e-06,-9.47435e-06,8.04031e-06,3.09192e-06,0
-3.11349e-05,2.18242e-05,-2.22699e-06,-1.3133e-05,5.93096e-06,-7.42689e-06,6.90066e-06,1.9638e-06,0
-3.25353e-05,2.64232e-05,-4.945e-06,-1.46435e-05,4.99582e-06,-6.15175e-06,6.87592e-06,-7.87958e-07,0
-3.34813e-05,3.49797e-05,-7.54378e-06,-9.76046e-06,5.21388e-06,-5.90238e-06,7.89873e-06,-1.54415e-06,0
-3.344e-05,4.83689e-05,-9.50481e-06,-2.37776e-06,6.13466e-06,-6.75954e-06,9.22991e-06,-1.73199e-06,0
-3.22108e-05,6.28917e-05,-9.4632e-06,6.39108e-06,8.80727e-06,-8.97612e-06,9.37817e-06,-4.63115e-06,0
-3.12765e-05,7.08381e-05,-8.14651e-06,1.55385e-05,1.31238e-05,-1.01589e-05,7.34571e-06,-6.67492e-06,0
-3.07328e-05,6.73109e-05,-7.48057e-06,2.03514e-05,1.59536e-05,-9.47253e-06,6.011e-06,-4.74414e-06,0
-2.87559e-05,5.25188e-05,-7.23931e-06,1.8138e-05,1.6373e-05,-8.61961e-06,7.4709e-06,-1.57639e-06,0
-2.73168e-05,3.02461e-05,-8.31934e-06,1.10534e-05,1.7026e-05,-8.46316e-06,1.10067e-05,-6.17428e-07,0
-2.83474e-05,5.75246e-06,-1.02907e-05,2.57507e-06,1.75978e-05,-7.40488e-06,1.37736e-05,-1.57725e-06,0
-3.121e-05,-1.51504e-05,-1.09664e-05,-3.36508e-06,1.69792e-05,-5.72952e-06,1.25215e-05,-2.26135e-06,0
-3.37586e-05,-2.83958e-05,-1.14331e-05,-5.53939e-06,1.60556e-05,-5.23058e-06,6.94067e-06,-2.16944e-06,0
-3.48636e-05,-3.17451e-05,-1.3788e-05,-5.35503e-06,1.49014e-05,-6.73539e-06,1.98149e-06,-2.01103e-06,0
-3.46673e-05,-2.61048e-05,-1.58238e-05,-4.79848e-06,1.34594e-05,-8.30161e-06,-1.631e-06,-3.01094e-06,0
-3.28908e-05,-1.67241e-05,-1.51823e-05,-6.07068e-06,1.28183e-05,-7.27282e-06,-6.19459e-06,-4.27749e-06,0
-3.00908e-05,-8.81944e-06,-1.16106e-05,-1.18813e-05,1.22429e-05,-4.6691e-06,-9.23598e-06,-3.61971e-06,0
-2.92752e-05,-4.25113e-06,-9.48116e-06,-2.01815e-05,1.08994e-05,-2.42466e-06,-1.07503e-05,-1.99873e-06,0
-2.99017e-05,-1.02165e-06,-1.08232e-05,-2.56383e-05,9.12977e-06,-2.43573e-06,-1.65358e-05,-3.21028e-06,0
-3.09722e-05,2.20633e-06,-1.18069e-05,-2.42476e-05,8.98256e-06,-5.20459e-06,-2.60128e-05,-3.77932e-06,0
-3.1652e-05,5.79767e-06,-1.14734e-05,-1.5302e-05,9.42722e-06,-5.81388e-06,-2.78067e-05,-1.74368e-06,0
-3.17476e-05,9.35931e-06,-1.03366e-05,-3.73756e-06,7.81731e-06,-4.55781e-06,-1.88413e-05,-1.64598e-06,0
-3.04985e-05,1.05725e-05,-1.07099e-05,4.89798e-06,7.0902e-06,-4.46124e-06,-3.74392e-06,-2.47014e-06,0
-2.83435e-05,9.91891e-06,-1.05405e-05,9.03955e-06,8.2442e-06,-3.72551e-06,1.26909e-05,-2.48299e-06,0
-2.83592e-05,8.82054e-06,-8.08413e-06,8.55775e-06,9.531e-06,-4.03973e-06,2.55885e-05,-2.76691e-06,0
-2.88159e-05,8.08149e-06,-7.07982e-06,6.96512e-06,9.08737e-06,-6.28007e-06,3.44226e-05,-2.75706e-06,0
-2.84188e-05,9.52618e-06,-8.53427e-06,7.35841e-06,7.74078e-06,-8.25291e-06,3.88729e-05,-2.05602e-06,0
-2.92648e-05,1.1859e-05,-1.08233e-05,8.92406e-06,6.42285e-06,-8.34242e-06,3.9893e-05,-1.44301e-06,0
-3.10302e-05,1.26986e-05,-1.38234e-05,8.59948e-06,5.3644e-06,-8.56756e-06,4.02934e-05,-1.1752e-06,0
-3.31148e-05,1.23854e-05,-1.53422e-05,6.06904e-06,5.82844e-06,-1.05087e-05,4.13595e-05,-9.00205e-07,0
-3.41325e-05,1.29152e-05,-1.47292e-05,3.98173e-06,7.45336e-06,-1.23285e-05,4.11372e-05,-6.04659e-07,0
-3.27142e-05,1.3679e-05,-1.41537e-05,2.32042e-06,8.48589e-06,-1.20972e-05,3.90669e-05,-8.58443e-07,0
-3.10795e-05,1.26238e-05,-1.39681e-05,8.76885e-07,8.75443e-06,-1.01493e-05,3.54675e-05,-2.0794e-06,0
-3.0516e-05,1.07878e-05,-1.33369e-05,-8.3372e-07,8.87882e-06,-8.66433e-06,3.11824e-05,-2.44722e-06,0
-3.03961e-05,1.07104e-05,-1.15661e-05,-3.36659e-06,8.43913e-06,-7.72888e-06,2.90234e-05,-1.51137e-06,0
-2.99261e-05,1.09886e-05,-1.02718e-05,-5.38073e-06,9.01736e-06,-6.93949e-06,2.92777e-05,-8.56466e-07,0
-2.97835e-05,8.95187e-06,-9.6945e-06,-5.97281e-06,1.17119e-05,-7.29003e-06,2.89009e-05,-9.2198e-07,0
-3.00751e-05,6.50659e-06,-1.03143e-05,-8.23354e-06,1.49348e-05,-8.92917e-06,2.6248e-05,-8.08654e-07,0
-3.08397e-05,6.71678e-06,-1.14953e-05,-1.35592e-05,1.50544e-05,-1.07016e-05,2.1694e-05,4.74717e-07,0
-3.13977e-05,8.22304e-06,-1.13306e-05,-1.98095e-05,1.21748e-05,-1.10561e-05,1.69883e-05,2.0608e-06,0
-3.14672e-05,8.64662e-06,-1.01994e-05,-2.5894e-05,1.12677e-05,-8.55131e-06,1.47076e-05,2.99403e-06,0
-3.08044e-05,9.09158e-06,-1.05419e-05,-3.56199e-05,1.31348e-05,-5.28647e-06,1.32115e-05,2.6241e-06,0
-2.90377e-05,1.06955e-05,-1.27576e-05,-5.16123e-05,1.51548e-05,-6.10103e-06,1.20044e-05,2.32869e-06,0
-2.74731e-05,1.26905e-05,-1.34587e-05,-6.44856e-05,1.80059e-05,-1.04177e-05,1.11369e-05,2.77008e-06,0
-2.78199e-05,1.24755e-05,-1.12092e-05,-6.46002e-05,2.01441e-05,-1.27468e-05,1.05344e-05,1.99842e-06,0
-2.92418e-05,9.84701e-06,-1.03665e-05,-5.59957e-05,2.08819e-05,-1.11287e-05,1.01595e-05,-2.12074e-07,0
-2.9067e-05,8.51879e-06,-1.06059e-05,-4.77103e-05,2.27041e-05,-8.52232e-06,7.26688e-06,-2.10083e-06,0
-2.81903e-05,1.0042e-05,-7.88005e-06,-4.18477e-05,2.50684e-05,-9.86028e-06,3.37582e-06,-4.35905e-06,0
-2.91086e-05,1.20225e-05,-4.94453e-06,-2.85783e-05,2.64995e-05,-1.34326e-05,2.61207e-06,-5.17109e-06,0
-2.9993e-05,1.16996e-05,-3.80177e-06,-8.4113e-06,2.69803e-05,-1.43178e-05,5.2028e-06,-3.90715e-06,0
-2.91937e-05,1.13908e-05,-4.39397e-06,1.22632e-05,2.7492e-05,-1.18631e-05,8.3224e-06,-4.50055e-06,0
-2.7562e-05,1.26002e-05,-5.35567e-06,3.26509e-05,2.79779e-05,-9.07694e-06,9.61629e-06,-4.86329e-06,0
-2.56488e-05,1.20911e-05,-5.10793e-06,4.57212e-05,2.86553e-05,-9.42196e-06,1.15354e-05,-3.1261e-06,0
-2.3525e-05,1.10617e-05,-4.51872e-06,5.05681e-05,3.15474e-05,-1.01994e-05,1.55222e-05,8.06629e-07,0
-2.33322e-05,1.20171e-05,-5.13719e-06,4.74972e-05,3.36435e-05,-1.00878e-05,2.08192e-05,4.43308e-06,0
-2.50583e-05,1.45414e-05,-6.50006e-06,3.93276e-05,3.04283e-05,-9.65074e-06,2.44264e-05,5.71475e-06,0
-2.60611e-05,1.67106e-05,-7.04967e-06,3.33237e-05,2.50722e-05,-9.17299e-06,2.43402e-05,6.59172e-06,0
-2.73071e-05,1.84792e-05,-6.32071e-06,3.17971e-05,2.12461e-05,-9.19495e-06,2.28722e-05,8.43324e-06,0
-2.816e-05,2.07649e-05,-5.67246e-06,2.83401e-05,1.98758e-05,-9.02996e-06,2.10404e-05,1.00036e-05,0
-2.86644e-05,2.09388e-05,-6.59549e-06,1.95875e-05,2.09681e-05,-8.4488e-06,1.87285e-05,9.77594e-06,0
-2.94832e-05,1.79437e-05,-8.3155e-06,1.43303e-05,2.29543e-05,-6.76902e-06,1.60425e-05,8.7525e-06,0
-3.07995e-05,1.31418e-05,-1.02671e-05,2.02298e-05,2.39833e-05,-6.0636e-06,1.4407e-05,6.66513e-06,0
-3.2408e-05,9.18313e-06,-1.19236e-05,3.36463e-05,2.41867e-05,-7.25038e-06,1.38069e-05,4.16428e-06,0
-3.38697e-05,8.13399e-06,-1.2128e-05,4.23872e-05,2.4314e-05,-8.31793e-06,1.36724e-05,3.18747e-06,0
-3.49945e-05,9.92629e-06,-1.01125e-05,3.85544e-05,2.36115e-05,-9.00659e-06,1.3506e-05,3.36124e-06,0
-3.55304e-05,1.30959e-05,-7.45466e-06,2.38145e-05,2.20721e-05,-1.03194e-05,1.2604e-05,2.25251e-06,0
-3.47658e-05,1.51262e-05,-5.64481e-06,7.87333e-06,2.08611e-05,-1.10731e-05,1.06169e-05,6.3044e-07,0
-3.30521e-05,1.4137e-05,-4.64374e-06,-4.1914e-06,2.03918e-05,-1.05958e-05,7.66772e-06,-1.20975e-06,0
-3.2486e-05,1.16667e-05,-3.35183e-06,-1.30686e-05,2.15343e-05,-9.12573e-06,5.1909e-06,-3.28379e-06,0
-3.29481e-05,9.98555e-06,-6.85133e-07,-1.85294e-05,2.37754e-05,-7.20523e-06,4.82095e-06,-5.03185e-06,0
-3.2811e-05,7.45044e-06,6.63374e-07,-1.79948e-05,2.46534e-05,-6.49573e-06,6.86584e-06,-4.572e-06,0
-3.23243e-05,3.24673e-06,2.87325e-06,-8.28285e-06,2.28463e-05,-7.09027e-06,1.00114e-05,-2.98096e-06,0
-3.20041e-05,-1.42641e-07,1.1766e-05,2.27372e-06,2.05725e-05,-7.76497e-06,1.07281e-05,-1.41472e-06,0
-3.11191e-05,-1.72189e-06,2.85129e-05,2.78154e-06,2.1082e-05,-8.09968e-06,9.48938e-06,6.79794e-07,0
-3.12588e-05,-2.99942e-06,4.95952e-05,-4.35362e-06,2.29537e-05,-7.92507e-06,7.09361e-06,8.07758e-07,0
-3.24931e-05,-5.82397e-06,6.94272e-05,-1.58281e-05,2.07344e-05,-6.95028e-06,2.1591e-06,2.49215e-06,0
-3.2093e-05,-9.67287e-06,7.56848e-05,-2.9427e-05,1.40859e-05,-6.75745e-06,-3.15529e-07,3.41746e-06,0
-3.09591e-05,-1.13923e-05,5.88022e-05,-3.84272e-05,8.79559e-06,-7.28893e-06,1.90289e-06,2.28486e-06,0
-3.14969e-05,-9.88885e-06,2.37729e-05,-4.17659e-05,7.461e-06,-8.07791e-06,6.21906e-06,1.24532e-06,0
-3.19715e-05,-4.93336e-06,-1.92628e-05,-4.40301e-05,7.75877e-06,-8.23073e-06,9.59453e-06,4.88752e-07,0
-3.12396e-05,1.30419e-06,-5.89705e-05,-4.93065e-05,6.64861e-06,-8.20908e-06,1.12261e-05,2.73556e-06,0
-3.07438e-05,5.78927e-06,-8.83083e-05,-5.4372e-05,4.34425e-06,-8.0548e-06,1.21276e-05,5.87684e-06,0
-3.13942e-05,8.38039e-06,-9.99478e-05,-5.0675e-05,2.37478e-06,-7.20714e-06,1.11952e-05,7.6698e-06,0
-3.11187e-05,9.93849e-06,-9.38205e-05,-3.36191e-05,2.88821e-06,-6.88561e-06,9.70015e-06,6.47598e-06,0
-3.01887e-05,1.2054e-05,-7.76833e-05,-8.66051e-06,4.31538e-06,-9.07418e-06,8.71514e-06,3.78001e-06,0
-3.04355e-05,1.55885e-05,-6.20164e-05,1.13039e-05,4.13487e-06,-1.28249e-05,8.17813e-06,2.35692e-06,0
-3.10948e-05,1.92258e-05,-5.09765e-05,1.81544e-05,4.26449e-06,-1.44114e-05,6.74355e-06,2.97324e-06,0
-3.10505e-05,2.08864e-05,-4.02977e-05,1.35573e-05,7.52141e-06,-1.30658e-05,4.5863e-06,4.19066e-06,0
-3.00928e-05,2.04795e-05,-2.87829e-05,3.206e-06,1.21147e-05,-1.06892e-05,3.47241e-06,4.24711e-06,0
-2.91182e-05,2.07628e-05,-1.84797e-05,-8.97099e-06,1.40279e-05,-1.02503e-05,4.41109e-06,3.20732e-06,0
-2.93726e-05,2.42827e-05,-1.11649e-05,-1.78483e-05,1.4973e-05,-1.08499e-05,6.64799e-06,2.24205e-06,0
-3.06313e-05,2.92478e-05,-5.39994e-06,-1.98361e-05,1.73839e-05,-1.10499e-05,7.13422e-06,2.18126e-06,0
-3.09248e-05,3.22404e-05,-2.39617e-06,-1.61133e-05,1.98022e-05,-1.11831e-05,5.80312e-06,2.73532e-06,0
-2.94074e-05,3.32776e-05,-1.63776e-06,-1.02973e-05,1.96449e-05,-1.12942e-05,4.84068e-06,3.64709e-06,0
-2.74047e-05,3.47011e-05,-1.97627e-06,-4.71561e-06,1.86195e-05,-1.09067e-05,6.23965e-06,3.51522e-06,0
-2.72481e-05,3.74264e-05,-1.15135e-06,3.8987e-07,1.91319e-05,-9.62695e-06,8.80869e-06,2.4198e-06,0
-2.77568e-05,3.99569e-05,7.20979e-07,4.13928e-06,1.98278e-05,-8.31756e-06,1.05889e-05,1.29581e-06,0
-2.73415e-05,3.99795e-05,1.19592e-06,7.75826e-06,2.00573e-05,-6.92233e-06,1.18612e-05,1.40048e-06,0
-2.62065e-05,3.87955e-05,5.71253e-07,1.20399e-05,2.10424e-05,-4.64626e-06,1.82916e-05,1.49685e-06,0
-2.69031e-05,3.81591e-05,8.91197e-07,1.4812e-05,2.19805e-05,-3.83265e-06,3.14101e-05,3.44924e-08,0
-2.79716e-05,3.77821e-05,2.19814e-06,1.13499e-05,2.19951e-05,-4.3024e-06,4.3123e-05,-1.15278e-06,0
-2.71197e-05,3.73582e-05,2.5989e-06,2.02153e-06,2.06662e-05,-3.61477e-06,4.79564e-05,-1.45602e-06,0
-2.69746e-05,3.54328e-05,1.94715e-06,-3.23152e-06,1.83148e-05,-3.4505e-06,4.65522e-05,-1.92157e-06,0
-2.70649e-05,3.19948e-05,-6.23064e-07,-1.2662e-06,1.54133e-05,-4.82088e-06,4.13244e-05,-2.65987e-06,0
-2.53599e-05,2.94872e-05,-2.77619e-06,3.1517e-06,1.22291e-05,-5.42476e-06,3.26378e-05,-3.49798e-06,0
-2.53598e-05,2.92187e-05,-5.07603e-07,9.30567e-06,1.20534e-05,-5.09754e-06,2.08362e-05,-3.3938e-06,0
-2.73539e-05,2.95418e-05,2.41712e-06,1.52157e-05,1.39483e-05,-4.2887e-06,6.18791e-06,-2.47853e-06,0
-2.73084e-05,2.73805e-05,2.49873e-06,1.55575e-05,1.48491e-05,-4.69808e-06,-1.00046e-05,-1.76015e-06,0
-2.69264e-05,2.31315e-05,1.12862e-07,9.39211e-06,1.44476e-05,-6.08901e-06,-2.32523e-05,-8.08712e-07,0
-2.65652e-05,2.05962e-05,-1.8353e-06,4.15676e-07,1.36066e-05,-6.5109e-06,-2.84413e-05,6.10806e-07,0
-2.65265e-05,2.04207e-05,-1.25861e-06,-8.92347e-06,1.24003e-05,-7.44344e-06,-2.52139e-05,8.62017e-07,0
-2.64465e-05,1.99136e-05,-2.7839e-07,-1.93077e-05,1.13749e-05,-1.00111e-05,-1.90292e-05,5.26457e-07,0
-2.61806e-05,1.83589e-05,-1.71577e-06,-2.8346e-05,1.16567e-05,-1.29546e-05,-1.25368e-05,2.40239e-06,0
-2.57601e-05,1.78221e-05,-5.94779e-06,-3.03188e-05,1.35491e-05,-1.36321e-05,-6.6454e-06,4.59019e-06,0
-2.55848e-05,1.77492e-05,-8.96979e-06,-2.53534e-05,1.66381e-05,-1.21549e-05,-1.60637e-06,5.08401e-06,0
-2.63309e-05,1.54242e-05,-9.31945e-06,-1.93776e-05,1.84974e-05,-9.98646e-06,2.89776e-06,5.05035e-06,0
-2.68098e-05,1.19284e-05,-8.43295e-06,-1.55971e-05,1.8973e-05,-8.49619e-06,6.16727e-06,4.95972e-06,0
-2.71018e-05,9.85176e-06,-7.64115e-06,-1.32584e-05,1.8763e-05,-7.53247e-06,8.76001e-06,3.92061e-06,0
-2.79013e-05,8.82725e-06,-6.62533e-06,-1.04693e-05,1.76971e-05,-8.14383e-06,1.23187e-05,3.30067e-06,0
-2.9515e-05,8.456e-06,-6.25847e-06,-6.07476e-06,1.54844e-05,-1.05277e-05,1.62512e-05,4.47642e-06,0
-3.06639e-05,9.24363e-06,-7.40859e-06,-7.32502e-07,1.31343e-05,-1.22357e-05,1.8249e-05,6.08339e-06,0
-3.10923e-05,1.17394e-05,-8.73721e-06,7.32785e-06,1.1689e-05,-1.19682e-05,1.95604e-05,5.88996e-06,0
-3.16858e-05,1.52164e-05,-8.13235e-06,2.13044e-05,1.17704e-05,-1.04884e-05,2.08643e-05,3.5822e-06,0
-3.23413e-05,1.65021e-05,-6.65072e-06,3.75118e-05,1.35562e-05,-8.81259e-06,2.31391e-05,7.86395e-07,0
-3.17662e-05,1.53888e-05,-4.40972e-06,4.49251e-05,1.55365e-05,-7.54434e-06,3.05242e-05,-1.49826e-06,0
-3.13749e-05,1.49125e-05,-1.79061e-06,3.57956e-05,1.52855e-05,-6.32593e-06,4.08081e-05,-2.68234e-06,0
-3.14016e-05,1.55536e-05,-8.45101e-07,1.61938e-05,1.19895e-05,-6.11016e-06,4.82359e-05,-1.79867e-06,0
-3.10998e-05,1.5931e-05,-2.19777e-06,-5.49994e-06,8.79096e-06,-6.97994e-06,4.86486e-05,-5.19179e-08,0
-3.03595e-05,1.42449e-05,-3.56636e-06,-2.33624e-05,9.1643e-06,-8.81191e-06,4.36818e-05,-3.47511e-07,0
-3.07547e-05,1.23218e-05,-1.30519e-06,-3.1592e-05,1.18751e-05,-1.15174e-05,3.48895e-05,1.79394e-08,0
-3.26888e-05,1.30292e-05,1.4517e-06,-2.76883e-05,1.35818e-05,-1.277e-05,1.83673e-05,2.71779e-06,0
-3.32649e-05,1.54383e-05,2.58855e-06,-1.73439e-05,1.42549e-05,-1.22416e-05,8.56181e-08,5.63389e-06,0
-3.40775e-05,1.80668e-05,2.69334e-06,-1.58031e-05,1.28993e-05,-1.14694e-05,-1.40229e-05,8.87414e-06,0
-3.51539e-05,2.07919e-05,2.76139e-06,-2.39259e-05,1.01825e-05,-1.15661e-05,-2.03204e-05,1.05088e-05,0
-3.43731e-05,2.40218e-05,2.40457e-06,-3.2557e-05,7.82079e-06,-1.25717e-05,-2.09483e-05,9.97843e-06,0
-3.30023e-05,2.4659e-05,-8.88764e-07,-3.39507e-05,5.92502e-06,-1.40521e-05,-2.0563e-05,9.36485e-06,0
-3.18997e-05,2.37184e-05,-5.08789e-06,-3.00295e-05,4.07639e-06,-1.46783e-05,-1.88711e-05,8.84218e-06,0
-3.16352e-05,2.23296e-05,-7.70817e-06,-2.49491e-05,2.44633e-06,-1.51471e-05,-1.407e-05,7.62207e-06,0
-3.26295e-05,1.86405e-05,-9.4508e-06,-1.69476e-05,2.02174e-06,-1.51802e-05,-5.29533e-06,5.03077e-06,0
-3.42586e-05,1.26122e-05,-1.22599e-05,-2.68252e-06,3.38598e-06,-1.45757e-05,3.78193e-06,2.0811e-06,0
-3.48711e-05,5.99174e-06,-1.56826e-05,1.90883e-05,5.44719e-06,-1.38676e-05,9.90794e-06,-6.49654e-07,0
-3.42467e-05,2.0807e-06,-1.81057e-05,3.62326e-05,5.72341e-06,-1.38168e-05,1.27706e-05,-1.93455e-06,0
-3.37633e-05,1.55416e-06,-1.90998e-05,3.65601e-05,4.90456e-06,-1.346e-05,1.34184e-05,-2.21996e-06,0
-3.36014e-05,3.62753e-06,-1.92753e-05,2.02883e-05,5.3987e-06,-1.20626e-05,9.33042e-06,-3.92781e-06,0
-3.33917e-05,8.70284e-06,-1.91276e-05,-3.31624e-07,7.91354e-06,-1.0772e-05,2.61928e-06,-6.98227e-06,0
-3.33913e-05,1.66709e-05,-1.80998e-05,-1.51945e-05,1.02412e-05,-1.04038e-05,-5.59594e-07,-9.07254e-06,0
-3.39182e-05,2.23125e-05,-1.66766e-05,-2.41611e-05,1.17646e-05,-1.12844e-05,3.40288e-06,-8.48723e-06,0
-3.38679e-05,2.28761e-05,-1.59104e-05,-3.24392e-05,1.28855e-05,-1.28179e-05,1.26243e-05,-6.25328e-06,0
-3.28576e-05,2.14785e-05,-1.48697e-05,-3.94024e-05,1.2476e-05,-1.3933e-05,2.31544e-05,-3.18404e-06,0
-3.15484e-05,2.18856e-05,-1.30782e-05,-4.45302e-05,1.11915e-05,-1.27945e-05,3.22162e-05,-8.9051e-07,0
-3.16736e-05,2.39319e-05,-1.10376e-05,-5.02896e-05,1.07781e-05,-1.17188e-05,3.93939e-05,7.56965e-08,0
-3.23019e-05,2.46315e-05,-8.64136e-06,-5.64986e-05,1.16284e-05,-1.29384e-05,4.59315e-05,1.62503e-07,0
-3.14262e-05,2.05954e-05,-9.51297e-06,-5.6169e-05,1.12684e-05,-1.47892e-05,5.05122e-05,-6.69867e-07,0
-3.16487e-05,1.05547e-05,-1.31919e-05,-4.54049e-05,9.44329e-06,-1.52049e-05,5.06986e-05,-1.71996e-06,0
-3.4408e-05,-4.81589e-06,-1.58299e-05,-2.95681e-05,9.49018e-06,-1.51684e-05,4.50398e-05,-2.76414e-06,0
-3.56764e-05,-2.1799e-05,-1.39406e-05,-1.2237e-05,9.90253e-06,-1.66698e-05,3.48451e-05,-4.11396e-06,0
-3.32025e-05,-3.35001e-05,-1.07835e-05,3.98434e-06,8.87019e-06,-1.73769e-05,2.75478e-05,-4.88547e-06,0
-3.0812e-05,-3.48144e-05,-9.62867e-06,1.6849e-05,8.05454e-06,-1.67051e-05,2.45556e-05,-4.9437e-06,0
-3.06706e-05,-2.76576e-05,-7.55076e-06,2.11507e-05,8.45174e-06,-1.54562e-05,2.17453e-05,-4.61872e-06,0
-3.20685e-05,-1.91336e-05,-5.06797e-06,1.89017e-05,9.14197e-06,-1.30996e-05,1.72568e-05,-3.93126e-06,0
-3.36328e-05,-1.34644e-05,-3.49249e-06,1.51621e-05,9.54808e-06,-1.10577e-05,1.37726e-05,-2.71786e-06,0
-3.38742e-05,-1.12152e-05,-2.91708e-06,1.33574e-05,8.54524e-06,-1.00251e-05,1.25571e-05,-6.49808e-07,0
-3.42115e-05,-9.34568e-06,-5.9539e-07,1.44329e-05,6.62791e-06,-9.35228e-06,1.06899e-05,4.98374e-07,0
-3.4428e-05,-5.68458e-06,1.7675e-06,1.28113e-05,4.95651e-06,-8.46604e-06,9.47347e-06,1.22116e-06,0
-3.33545e-05,-2.87846e-07,1.81563e-06,5.87933e-06,4.81956e-06,-8.07233e-06,8.82377e-06,2.3068e-06,0
-3.17214e-05,4.66049e-06,3.51751e-07,-3.34783e-06,6.19578e-06,-7.0623e-06,8.46094e-06,4.57083e-06,0
-3.05153e-05,7.06466e-06,-2.204e-07,-8.95684e-06,6.12446e-06,-5.66355e-06,7.23689e-06,7.39061e-06,0
-2.97469e-05,6.06064e-06,1.46731e-06,-9.24247e-06,5.09009e-06,-5.05335e-06,4.86997e-06,9.04436e-06,0
-2.96596e-05,4.58048e-06,3.45559e-06,-6.28009e-06,4.01112e-06,-4.7511e-06,1.24227e-06,1.02529e-05,0
-2.99476e-05,4.85886e-06,3.4594e-06,-2.36426e-06,2.83389e-06,-4.10031e-06,-6.22234e-07,1.11772e-05,0
-2.99136e-05,6.25205e-06,1.20576e-06,7.86256e-08,1.11167e-06,-3.51757e-06,5.75244e-07,1.02491e-05,0
-2.95452e-05,8.03252e-06,-1.92781e-06,-1.09198e-07,5.97016e-07,-4.14266e-06,2.64702e-06,7.45315e-06,0
-2.86793e-05,9.50658e-06,-4.78048e-06,1.38604e-07,1.50249e-06,-5.67503e-06,3.37251e-06,5.81339e-06,0
-2.75508e-05,1.07975e-05,-6.57489e-06,4.81699e-06,2.06008e-06,-6.34364e-06,3.14183e-06,5.97281e-06,0
-2.6657e-05,1.14344e-05,-7.09224e-06,1.19356e-05,2.77714e-06,-5.16665e-06,3.51979e-06,6.54028e-06,0
-2.66561e-05,1.12239e-05,-6.32831e-06,1.64484e-05,4.10063e-06,-3.50043e-06,4.35297e-06,6.61222e-06,0
-2.74838e-05,1.07182e-05,-6.20046e-06,1.67033e-05,4.33102e-06,-2.65355e-06,4.70799e-06,6.78846e-06,0
-2.96907e-05,1.17881e-05,-8.16919e-06,1.66999e-05,4.7003e-06,-3.67494e-06,4.67564e-06,6.40065e-06,0
-3.16054e-05,1.41474e-05,-1.24562e-05,2.02528e-05,6.9927e-06,-5.72994e-06,5.94569e-06,4.5542e-06,0
-3.25524e-05,1.57936e-05,-1.6956e-05,2.47648e-05,1.04549e-05,-8.08493e-06,8.37605e-06,1.36455e-06,0
-3.21281e-05,1.42836e-05,-1.84484e-05,2.41714e-05,1.43995e-05,-9.38261e-06,1.19825e-05,1.21989e-07,0
-2.99274e-05,1.20064e-05,-1.76325e-05,1.46533e-05,1.57508e-05,-8.59234e-06,1.49376e-05,1.05086e-06,0
-2.90036e-05,1.05287e-05,-1.76094e-05,1.57262e-06,1.445e-05,-6.6547e-06,1.58017e-05,1.89875e-06,0
-2.8332e-05,9.30876e-06,-1.78971e-05,-7.8823e-06,1.50487e-05,-5.34071e-06,1.36832e-05,2.35962e-06,0
-2.71346e-05,8.02594e-06,-1.77349e-05,-1.35703e-05,1.77408e-05,-5.18062e-06,1.25942e-05,1.5636e-06,0
-2.66925e-05,7.36177e-06,-1.50193e-05,-1.54028e-05,1.9591e-05,-5.21927e-06,1.26673e-05,8.31463e-07,0
-2.72393e-05,8.36761e-06,-1.24786e-05,-1.61529e-05,2.04839e-05,-4.52499e-06,1.2072e-05,6.61957e-08,0
-2.82647e-05,8.85883e-06,-1.28044e-05,-1.86673e-05,2.01198e-05,-3.90186e-06,1.17106e-05,-1.87754e-07,0
-2.85126e-05,9.00737e-06,-1.26721e-05,-2.21015e-05,1.86268e-05,-3.49655e-06,1.27596e-05,8.48417e-07,0
-2.87581e-05,8.09038e-06,-1.12594e-05,-2.64067e-05,1.78956e-05,-2.53793e-06,1.49098e-05,3.83254e-06,0
-2.84867e-05,7.32319e-06,-8.74456e-06,-3.05317e-05,1.80107e-05,-2.55389e-06,1.65829e-05,4.92413e-06,0
-2.81967e-05,8.54185e-06,-7.46431e-06,-3.24073e-05,1.72326e-05,-4.16438e-06,1.81527e-05,2.53315e-06,0
-2.82752e-05,1.1383e-05,-7.04658e-06,-3.08878e-05,1.66124e-05,-6.30783e-06,1.85871e-05,5.99063e-07,0
-2.85277e-05,1.46403e-05,-6.42376e-06,-2.39443e-05,1.81404e-05,-7.73942e-06,1.84371e-05,1.52864e-06,0
-2.86225e-05,1.67747e-05,-5.38589e-06,-1.30742e-05,2.15277e-05,-8.04373e-06,1.79617e-05,3.47531e-06,0
-2.9333e-05,1.78366e-05,-4.10984e-06,-1.47375e-06,2.44869e-05,-6.90509e-06,1.72852e-05,4.38145e-06,0
-3.06143e-05,1.95455e-05,-3.10807e-06,8.04096e-06,2.57002e-05,-6.02491e-06,1.44665e-05,4.80711e-06,0
-3.0916e-05,2.17161e-05,-3.38383e-06,1.22887e-05,2.53848e-05,-6.79004e-06,8.64296e-06,3.3161e-06,0
-3.02541e-05,2.21714e-05,-4.98129e-06,1.01527e-05,2.48977e-05,-8.29261e-06,2.52955e-06,4.15683e-07,0
-2.8599e-05,2.059e-05,-6.33115e-06,3.31973e-06,2.48431e-05,-9.24285e-06,-3.02877e-07,-1.78494e-06,0
-2.69993e-05,1.83497e-05,-6.60277e-06,-3.71203e-06,2.53939e-05,-1.00901e-05,3.59526e-07,-1.53258e-06,0
-2.62881e-05,1.7044e-05,-5.62474e-06,-8.42053e-06,2.65906e-05,-1.14885e-05,2.07057e-06,-5.31259e-07,0
-2.71804e-05,1.64615e-05,-5.30217e-06,-1.12697e-05,2.74451e-05,-1.20382e-05,3.34949e-06,-9.60817e-07,0
-2.76649e-05,1.65663e-05,-7.45032e-06,-1.31829e-05,2.67015e-05,-1.10366e-05,3.58004e-06,-2.02668e-06,0
-2.6438e-05,1.75159e-05,-1.05844e-05,-1.25941e-05,2.44792e-05,-1.00584e-05,2.6671e-06,-1.39859e-06,0
-2.5772e-05,1.9974e-05,-1.21795e-05,-6.98759e-06,2.20509e-05,-1.08376e-05,7.71813e-07,3.98764e-07,0
-2.70545e-05,2.28717e-05,-1.22327e-05,3.39997e-06,1.98312e-05,-1.19183e-05,7.43099e-07,1.13474e-06,0
-2.80468e-05,2.2654e-05,-1.10773e-05,1.25811e-05,1.84417e-05,-1.22174e-05,2.99539e-06,1.69435e-07,0
-2.81562e-05,1.9465e-05,-8.86255e-06,1.35328e-05,1.74978e-05,-1.09122e-05,7.0433e-06,-1.6443e-06,0
-2.88894e-05,1.61007e-05,-7.39615e-06,6.25994e-06,1.64973e-05,-8.72839e-06,9.83565e-06,-3.45237e-06,0
-2.91274e-05,1.25643e-05,-6.53035e-06,-1.36613e-06,1.47638e-05,-8.7447e-06,-3.99463e-07,-4.07656e-06,0
-2.77523e-05,1.12981e-05,-5.8017e-06,-7.74388e-06,1.24782e-05,-1.03349e-05,-2.35379e-05,-2.74714e-06,0
-2.65284e-05,1.42405e-05,-6.42765e-06,-1.15598e-05,1.02348e-05,-1.10948e-05,-4.20649e-05,-2.39225e-07,0
-2.66921e-05,1.65403e-05,-7.44323e-06,-1.17001e-05,9.53539e-06,-1.01316e-05,-4.09469e-05,9.08679e-07,0
-2.70011e-05,1.58606e-05,-7.77832e-06,-1.02239e-05,1.07977e-05,-9.65609e-06,-2.32413e-05,-7.65768e-07,0
-2.74114e-05,1.59013e-05,-6.64902e-06,-5.75278e-06,1.34217e-05,-9.70197e-06,-7.399e-07,-2.80835e-06,0
-2.81333e-05,1.7914e-05,-6.3811e-06,-1.40276e-06,1.55084e-05,-9.59586e-06,1.98311e-05,-3.969e-06,0
-2.83606e-05,1.88406e-05,-7.86789e-06,1.88594e-06,1.37157e-05,-1.08012e-05,3.49998e-05,-4.36599e-06,0
-2.84542e-05,1.66007e-05,-9.79574e-06,4.19231e-06,1.04273e-05,-1.27181e-05,4.51431e-05,-5.49931e-06,0
-2.87024e-05,1.3981e-05,-1.08415e-05,4.30425e-06,9.24792e-06,-1.46958e-05,5.017e-05,-6.73355e-06,0
-2.90183e-05,1.3898e-05,-9.83912e-06,3.20947e-06,8.76781e-06,-1.54499e-05,5.18415e-05,-5.59067e-06,0
-2.99206e-05,1.50727e-05,-7.00558e-06,3.13888e-06,6.95127e-06,-1.49266e-05,5.21997e-05,-2.1736e-06,0
-3.04609e-05,1.55898e-05,-4.44691e-06,3.45541e-06,5.24208e-06,-1.46373e-05,5.1145e-05,7.26005e-07,0
-2.93833e-05,1.45497e-05,-4.66059e-06,3.23738e-06,5.65136e-06,-1.5589e-05,4.78887e-05,4.54213e-07,0
-2.84863e-05,1.28859e-05,-7.61556e-06,3.20413e-06,5.58572e-06,-1.76789e-05,4.35872e-05,-2.82479e-06,0
-2.90866e-05,1.19756e-05,-1.10011e-05,2.36857e-06,3.08286e-06,-1.99441e-05,3.98899e-05,-5.81492e-06,0
-3.0067e-05,1.26143e-05,-1.32476e-05,-1.76754e-06,1.21142e-06,-2.05255e-05,3.73572e-05,-6.52231e-06,0
-2.98073e-05,1.5382e-05,-1.45904e-05,-8.01532e-06,9.79438e-07,-1.85358e-05,3.65618e-05,-5.57529e-06,0
-2.78041e-05,2.18051e-05,-1.45399e-05,-1.29572e-05,7.33754e-07,-1.53347e-05,3.55675e-05,-3.64614e-06,0
-2.71386e-05,3.2105e-05,-1.40224e-05,-1.66064e-05,1.33832e-06,-1.32818e-05,3.27567e-05,-2.29672e-06,0
-2.95552e-05,4.36586e-05,-1.29262e-05,-1.78622e-05,3.13456e-06,-1.33471e-05,2.91142e-05,-2.43454e-06,0
-3.24873e-05,5.12335e-05,-1.31925e-05,-1.66731e-05,5.09388e-06,-1.48499e-05,2.59124e-05,-2.54567e-06,0
-3.43625e-05,4.82432e-05,-1.61299e-05,-1.38459e-05,6.39468e-06,-1.57349e-05,2.30596e-05,-1.92957e-06,0
-3.5523e-05,3.25911e-05,-1.83912e-05,-9.39727e-06,7.63455e-06,-1.34332e-05,1.85137e-05,2.79738e-07,0
-3.54852e-05,1.13654e-05,-1.80772e-05,-5.21988e-06,1.03173e-05,-1.01402e-05,1.24571e-05,3.36259e-06,0
-3.45403e-05,-1.08036e-05,-1.64967e-05,-3.08295e-06,1.43425e-05,-9.02733e-06,8.20064e-06,5.02822e-06,0
-3.31197e-05,-2.83986e-05,-1.41365e-05,-3.8881e-06,1.61991e-05,-9.61883e-06,5.53147e-06,4.15413e-06,0
-3.07501e-05,-3.55792e-05,-1.22872e-05,-4.90956e-06,1.36963e-05,-9.29876e-06,3.51826e-06,2.37412e-06,0
-2.82785e-05,-3.56541e-05,-1.05891e-05,-4.90723e-06,1.15095e-05,-8.07505e-06,1.85731e-06,3.50839e-06,0
-2.8016e-05,-2.94257e-05,-7.66328e-06,-6.39794e-06,1.19182e-05,-7.16712e-06,-3.30991e-07,4.45655e-06,0
-2.94118e-05,-1.99126e-05,-5.60693e-06,-8.78495e-06,1.48365e-05,-5.46668e-06,-3.7415e-06,4.0377e-06,0
-3.03675e-05,-1.18123e-05,-5.50319e-06,-1.12962e-05,1.62579e-05,-3.90176e-06,-5.06777e-06,5.02102e-06,0
-3.02456e-05,-6.13137e-06,-5.96318e-06,-1.30813e-05,1.39472e-05,-5.54292e-06,-1.77367e-06,6.34626e-06,0
-3.03956e-05,-2.10721e-06,-5.92419e-06,-1.3042e-05,9.28572e-06,-1.01702e-05,3.92984e-06,5.73654e-06,0
-3.15071e-05,6.69115e-07,-5.7018e-06,-5.59981e-06,4.49179e-06,-1.30876e-05,7.4585e-06,3.78841e-06,0
-3.27486e-05,3.95848e-06,-5.51929e-06,1.18675e-05,2.59749e-06,-1.25274e-05,7.19681e-06,1.69561e-06,0
-3.43261e-05,6.03306e-06,-5.71587e-06,2.82046e-05,3.9601e-06,-1.14005e-05,4.23881e-06,4.08996e-07,0
-3.55496e-05,5.59499e-06,-5.41257e-06,2.9904e-05,6.35924e-06,-1.11763e-05,-5.49239e-07,1.72809e-07,0
-3.55683e-05,5.19333e-06,-4.51788e-06,1.67468e-05,7.87212e-06,-1.0723e-05,-2.94154e-06,3.78587e-07,0
-3.44965e-05,3.86431e-06,-3.50808e-06,2.59808e-06,9.97695e-06,-1.05087e-05,-2.2313e-06,7.97521e-07,0
-3.28705e-05,1.69155e-06,-2.28828e-06,-2.91974e-06,1.13693e-05,-1.14985e-05,7.97525e-07,8.21045e-07,0
-3.11609e-05,8.00433e-07,-1.08538e-06,-3.95388e-06,1.09452e-05,-1.30964e-05,4.75823e-06,-6.42437e-07,0
-3.04898e-05,2.3525e-06,-1.16508e-07,-7.31505e-06,1.05622e-05,-1.48852e-05,7.93459e-06,-2.96915e-06,0
-3.08899e-05,4.97734e-06,1.42557e-07,-1.00418e-05,1.23847e-05,-1.62993e-05,9.60458e-06,-3.36835e-06,0
-3.03938e-05,7.70281e-06,4.01201e-07,-7.72799e-06,1.42332e-05,-1.5895e-05,1.09454e-05,-3.04798e-06,0
-2.87283e-05,9.39727e-06,1.9606e-06,-5.79202e-06,1.38344e-05,-1.45376e-05,1.29754e-05,-3.40172e-06,0
-2.76113e-05,9.12777e-06,3.45739e-06,-1.06467e-05,1.18533e-05,-1.54939e-05,1.45784e-05,-3.08193e-06,0
-2.88184e-05,6.88528e-06,2.55984e-06,-2.23856e-05,9.69011e-06,-1.80455e-05,1.44794e-05,-1.52052e-06,0
-3.05371e-05,4.27726e-06,-3.08574e-07,-4.18939e-05,8.7233e-06,-1.87901e-05,1.29996e-05,-1.66932e-06,0
-3.13353e-05,4.03641e-06,-3.36348e-06,-7.00701e-05,8.01682e-06,-1.69017e-05,1.39332e-05,-3.78673e-06,0
-3.2448e-05,7.69608e-06,-5.9557e-06,-9.60434e-05,4.53746e-06,-1.41396e-05,1.63901e-05,-4.01778e-06,0
-3.17699e-05,1.19268e-05,-7.9015e-06,-0.000100226,1.82593e-06,-1.28702e-05,1.65048e-05,-2.9923e-06,0
-3.01464e-05,1.38761e-05,-8.31848e-06,-7.44043e-05,5.01101e-06,-1.02312e-05,1.56923e-05,-1.80871e-06,0
-2.8784e-05,1.33267e-05,-6.96655e-06,-3.1874e-05,1.11276e-05,-6.67223e-06,1.63692e-05,-4.89377e-07,0
-2.78781e-05,1.26745e-05,-6.31141e-06,5.02162e-06,1.53737e-05,-5.27578e-06,1.64937e-05,1.23133e-06,0
-2.87527e-05,1.45519e-05,-7.91369e-06,2.98865e-05,1.70745e-05,-5.16395e-06,1.60447e-05,3.12594e-06,0
-3.05327e-05,1.66867e-05,-9.37118e-06,5.27635e-05,1.77881e-05,-6.91123e-06,1.70899e-05,2.99517e-06,0
-3.32928e-05,1.69576e-05,-9.6664e-06,7.75806e-05,1.73225e-05,-8.01925e-06,1.98057e-05,3.15811e-06,0
-3.5374e-05,1.59597e-05,-1.02893e-05,9.43745e-05,1.51493e-05,-8.45545e-06,2.16251e-05,1.609e-06,0
-3.5121e-05,1.39703e-05,-1.16335e-05,9.57626e-05,1.34301e-05,-8.66845e-06,2.19795e-05,-2.98825e-06,0
-3.412e-05,1.01744e-05,-1.43382e-05,8.32871e-05,1.49558e-05,-8.63804e-06,2.23859e-05,-6.83607e-06,0
-3.31816e-05,4.91746e-06,-1.85454e-05,5.51589e-05,1.76792e-05,-9.00416e-06,2.12189e-05,-6.6428e-06,0
-3.30419e-05,1.38105e-07,-2.36538e-05,1.64975e-05,1.77714e-05,-1.02966e-05,1.78026e-05,-3.86296e-06,0
-3.36888e-05,-1.89271e-06,-2.82133e-05,-1.69636e-05,1.52831e-05,-1.04496e-05,1.48667e-05,-2.31262e-06,0
-3.3498e-05,-1.61661e-06,-2.93481e-05,-3.43291e-05,1.20803e-05,-8.33037e-06,1.35359e-05,-1.73689e-06,0
-3.25207e-05,1.24115e-07,-2.64909e-05,-3.5813e-05,9.23618e-06,-6.46616e-06,1.33931e-05,-1.20649e-06,0
-3.18553e-05,1.67329e-06,-2.20047e-05,-2.77592e-05,7.33682e-06,-6.93391e-06,1.33429e-05,-2.37519e-07,0
-3.25945e-05,2.98737e-06,-1.87601e-05,-1.8381e-05,5.71061e-06,-8.42749e-06,1.22582e-05,-2.12832e-07,0
-3.38602e-05,3.94251e-06,-1.75216e-05,-1.29931e-05,4.60196e-06,-7.62248e-06,1.10944e-05,-1.2351e-06,0
-3.44085e-05,4.60241e-06,-1.7297e-05,-1.09115e-05,4.97881e-06,-4.43059e-06,1.13605e-05,-1.75094e-06,0
-3.39391e-05,5.73443e-06,-1.7009e-05,-9.56577e-06,6.9754e-06,-3.55946e-07,1.27619e-05,-8.98673e-07,0
-3.30455e-05,6.73118e-06,-1.59554e-05,-8.71566e-06,9.33598e-06,2.0432e-06,1.28405e-05,-5.17701e-07,0
-3.16995e-05,7.82925e-06,-1.47917e-05,-8.31453e-06,1.05558e-05,2.02437e-06,1.02736e-05,-4.92897e-07,0
-3.04253e-05,9.87258e-06,-1.55043e-05,-6.32623e-06,1.10716e-05,9.18928e-08,6.11597e-06,-3.88939e-07,0
-3.03709e-05,1.15659e-05,-1.79404e-05,-3.01978e-06,1.24941e-05,-4.60307e-07,4.2054e-06,4.25038e-07,0
-3.04939e-05,1.19405e-05,-1.92143e-05,1.08323e-06,1.45848e-05,1.52545e-06,5.17727e-06,2.24175e-06,0
-2.99738e-05,1.32634e-05,-1.84178e-05,3.61595e-06,1.71731e-05,4.02991e-06,6.14779e-06,3.07317e-06,0
-2.87149e-05,1.55568e-05,-1.67951e-05,1.74914e-06,1.86489e-05,3.77126e-06,5.6443e-06,1.55187e-06,0
-2.85394e-05,1.75947e-05,-1.45436e-05,-7.69943e-07,1.89113e-05,2.13337e-06,3.52218e-06,7.21612e-07,0
-2.93761e-05,1.9587e-05,-1.03529e-05,7.44147e-07,2.09286e-05,6.93807e-07,1.55587e-06,1.48369e-06,0
-2.75343e-05,2.09078e-05,-3.45022e-06,2.44067e-06,2.32032e-05,-1.81931e-07,1.99611e-06,2.05648e-06,0
-2.56842e-05,2.09954e-05,3.96277e-06,3.42421e-07,2.38748e-05,-8.8699e-07,4.20859e-06,1.37462e-06,0
-2.65033e-05,2.12144e-05,1.08716e-05,-2.10044e-06,2.40475e-05,-3.03629e-06,6.97177e-06,-7.81132e-07,0
-2.69617e-05,2.20591e-05,2.19558e-05,-3.63928e-06,2.32768e-05,-4.82137e-06,8.41079e-06,-2.06902e-06,0
-2.80242e-05,2.19453e-05,4.05933e-05,-4.23483e-06,2.13491e-05,-5.93623e-06,8.19611e-06,-2.95879e-06,0
-2.97321e-05,2.04782e-05,6.14441e-05,-3.70786e-06,1.88179e-05,-8.47571e-06,8.35883e-06,-3.43522e-06,0
-3.03317e-05,1.99357e-05,7.57373e-05,-4.33583e-06,1.77502e-05,-1.13911e-05,9.62012e-06,-3.21793e-06,0
-3.01856e-05,2.2314e-05,7.59642e-05,-5.71838e-06,1.85475e-05,-1.10817e-05,1.079e-05,-1.744e-06,0
-2.93009e-05,2.6453e-05,5.83539e-05,-7.3995e-06,1.86818e-05,-9.35232e-06,1.11528e-05,4.33902e-07,0
-2.84929e-05,2.8999e-05,2.4862e-05,-1.05332e-05,1.82009e-05,-8.9637e-06,1.05789e-05,1.26812e-06,0
-2.91142e-05,2.87507e-05,-1.70534e-05,-1.41659e-05,1.87558e-05,-1.04109e-05,9.8516e-06,1.16307e-06,0
-2.98833e-05,2.55396e-05,-5.55697e-05,-1.61063e-05,1.92182e-05,-1.16393e-05,1.11575e-05,1.33447e-06,0
-2.93051e-05,2.16639e-05,-8.07839e-05,-1.46485e-05,1.7044e-05,-1.1492e-05,1.3693e-05,1.36471e-06,0
-2.86871e-05,1.95072e-05,-8.82558e-05,-1.02965e-05,1.50048e-05,-1.02675e-05,1.53969e-05,2.10225e-06,0
-2.8782e-05,1.87747e-05,-8.11742e-05,-5.70389e-06,1.67059e-05,-9.19635e-06,1.51263e-05,3.70553e-06,0
-2.86768e-05,1.69362e-05,-6.81601e-05,-2.34668e-06,2.1056e-05,-9.49685e-06,1.45352e-05,4.00039e-06,0
-2.91746e-05,1.31056e-05,-5.61698e-05,2.4459e-06,2.37059e-05,-1.10058e-05,1.52753e-05,3.13142e-06,0
-3.12798e-05,1.13346e-05,-4.53053e-05,1.07111e-05,2.36205e-05,-1.28687e-05,1.59325e-05,2.07299e-06,0
-3.33467e-05,1.23729e-05,-3.41249e-05,1.64749e-05,2.21385e-05,-1.45059e-05,1.4695e-05,1.5014e-06,0
-3.40751e-05,1.32616e-05,-2.36365e-05,1.3256e-05,2.06215e-05,-1.64019e-05,1.27695e-05,1.72958e-06,0
-3.395e-05,1.52936e-05,-1.57883e-05,3.77292e-06,2.07046e-05,-1.70832e-05,1.20048e-05,2.74811e-06,0
-3.35294e-05,1.91936e-05,-1.14099e-05,-6.20461e-06,2.36924e-05,-1.63594e-05,1.31866e-05,4.13927e-06,0
-3.37556e-05,2.13473e-05,-8.77611e-06,-1.43411e-05,2.78731e-05,-1.59883e-05,1.57234e-05,3.45262e-06,0
-3.46595e-05,2.19991e-05,-6.69728e-06,-1.97423e-05,2.90898e-05,-1.67728e-05,1.70055e-05,3.164e-07,0
-3.43839e-05,2.27213e-05,-4.66039e-06,-2.5068e-05,2.71237e-05,-1.73205e-05,1.59881e-05,-1.76329e-06,0
-3.26405e-05,2.4398e-05,-3.68209e-06,-3.12274e-05,2.45566e-05,-1.60798e-05,1.38244e-05,-1.17112e-06,0
-3.05586e-05,2.62618e-05,-4.11095e-06,-3.51358e-05,2.26602e-05,-1.52819e-05,1.25924e-05,2.5433e-06,0
-2.97085e-05,2.6691e-05,-4.00139e-06,-3.49805e-05,2.01167e-05,-1.60653e-05,1.10038e-05,7.38993e-06,0
-3.02416e-05,2.59126e-05,-2.24285e-06,-3.46707e-05,1.58176e-05,-1.6663e-05,8.28287e-06,7.74641e-06,0
-2.94704e-05,2.50845e-05,-1.55191e-06,-3.46308e-05,1.0564e-05,-1.59581e-05,6.79037e-06,5.91418e-06,0
-2.82592e-05,2.6184e-05,-3.54361e-06,-2.88655e-05,7.32689e-06,-1.44348e-05,7.20108e-06,6.30652e-06,0
-2.87119e-05,3.19716e-05,-4.79859e-06,-1.94304e-05,5.99641e-06,-1.3139e-05,8.68394e-06,7.39493e-06,0
-2.96252e-05,4.14336e-05,-3.2074e-06,-1.08453e-05,4.67936e-06,-1.23937e-05,9.31325e-06,6.91828e-06,0
-3.03192e-05,4.77231e-05,-8.97338e-07,-6.6756e-06,6.18367e-06,-1.17289e-05,1.00969e-05,4.2165e-06,0
-2.99681e-05,4.70713e-05,-5.24599e-07,-4.33301e-06,1.08508e-05,-1.13886e-05,1.27787e-05,1.38031e-06,0
-2.86874e-05,4.00181e-05,-1.8055e-06,-2.69557e-06,1.44935e-05,-1.14227e-05,1.77465e-05,1.01905e-07,0
-2.68714e-05,2.98488e-05,-2.02162e-06,-2.16134e-06,1.60393e-05,-1.15879e-05,2.57073e-05,-2.32735e-07,0
-2.60777e-05,2.11731e-05,-1.30802e-06,-9.54167e-07,1.64828e-05,-1.06151e-05,3.35814e-05,-6.9469e-07,0
-2.67412e-05,1.67708e-05,-1.96017e-06,-9.83492e-07,1.55789e-05,-8.92132e-06,3.78156e-05,-1.43233e-06,0
-2.77581e-05,1.50134e-05,-3.40184e-06,-3.5611e-06,1.38572e-05,-8.68623e-06,3.80463e-05,-2.40124e-06,0
-2.86456e-05,1.13077e-05,-3.66768e-06,-6.11359e-06,1.17595e-05,-8.59166e-06,3.34057e-05,-3.00998e-06,0
-2.92468e-05,4.34016e-06,-2.405e-06,-4.07212e-06,9.94593e-06,-7.6209e-06,2.58564e-05,-4.47339e-06,0
-2.99949e-05,-3.33695e-06,-1.7493e-06,1.32563e-06,9.32063e-06,-7.27524e-06,1.90647e-05,-6.02476e-06,0
-3.03463e-05,-7.56516e-06,-2.94764e-06,5.63673e-06,1.0327e-05,-7.78602e-06,1.19678e-05,-5.03649e-06,0
-2.97555e-05,-5.19954e-06,-5.28203e-06,5.63499e-06,1.2296e-05,-8.29322e-06,2.00932e-06,-2.80397e-06,0
-2.86586e-05,1.42136e-06,-6.27528e-06,2.14279e-06,1.39356e-05,-8.70634e-06,-9.3301e-06,-1.87527e-06,0
-2.82946e-05,8.45501e-06,-3.91659e-06,-3.33482e-06,1.54327e-05,-8.27688e-06,-1.81545e-05,-1.45966e-06,0
-2.81862e-05,1.42049e-05,-5.31912e-07,-8.9954e-06,1.60691e-05,-7.167e-06,-2.19631e-05,-2.05625e-06,0
-2.85745e-05,1.67914e-05,2.61245e-07,-1.18126e-05,1.45954e-05,-6.47149e-06,-2.00662e-05,-4.01076e-06,0
-2.86578e-05,1.62998e-05,-1.51408e-06,-1.09296e-05,1.2913e-05,-7.97435e-06,-1.37713e-05,-4.28356e-06,0
-2.85823e-05,1.29642e-05,-3.05937e-06,-9.04108e-06,1.27246e-05,-1.02885e-05,-4.92926e-06,-2.45206e-06,0
-2.86614e-05,9.13443e-06,-2.65538e-06,-6.70613e-06,1.22889e-05,-1.09551e-05,4.13004e-06,-2.96746e-07,0
-2.87338e-05,8.25832e-06,-2.10805e-06,-3.58216e-06,1.17747e-05,-1.07292e-05,1.08152e-05,1.27667e-06,0
-3.02045e-05,9.99925e-06,-3.88045e-06,9.41814e-06,1.15946e-05,-1.14314e-05,1.43317e-05,2.78677e-06,0
-3.13173e-05,9.64617e-06,-6.95097e-06,3.23514e-05,1.19634e-05,-1.3286e-05,1.69234e-05,1.99324e-06,0
-3.30493e-05,7.67015e-06,-1.07825e-05,4.43728e-05,1.22931e-05,-1.42732e-05,2.00193e-05,9.57019e-07,0
-3.51661e-05,6.1202e-06,-1.21589e-05,3.92405e-05,1.29367e-05,-1.37339e-05,2.28424e-05,2.1919e-06,0
-3.47179e-05,3.78608e-06,-1.00631e-05,2.47289e-05,1.4922e-05,-1.19219e-05,2.36684e-05,3.31039e-06,0
-3.23028e-05,3.99073e-06,-9.72743e-06,7.80059e-06,1.64332e-05,-9.60705e-06,2.20524e-05,3.21843e-06,0
-2.91879e-05,7.14438e-06,-1.02018e-05,-5.97911e-06,1.50141e-05,-9.12326e-06,1.96737e-05,2.63458e-06,0
-2.70885e-05,9.88157e-06,-9.07633e-06,-1.3598e-05,1.04529e-05,-9.99861e-06,1.74906e-05,3.44615e-06,0
-2.75538e-05,1.02712e-05,-8.41783e-06,-1.7431e-05,6.68018e-06,-1.02335e-05,1.53705e-05,4.78066e-06,0
-2.90204e-05,1.0797e-05,-9.43813e-06,-2.10086e-05,5.60037e-06,-8.40709e-06,1.42035e-05,4.65476e-06,0
-2.95049e-05,1.18018e-05,-1.08633e-05,-2.25447e-05,7.02353e-06,-6.17396e-06,1.49735e-05,3.64224e-06,0
-2.96621e-05,1.19939e-05,-1.14368e-05,-2.12987e-05,9.32351e-06,-5.34229e-06,1.76008e-05,3.11334e-06,0
-2.90652e-05,1.13866e-05,-1.0097e-05,-2.0933e-05,1.03962e-05,-4.91322e-06,1.99327e-05,2.48259e-06,0
-2.87548e-05,1.12411e-05,-8.30306e-06,-2.31276e-05,9.99311e-06,-5.18929e-06,1.93474e-05,1.71102e-06,0
-2.96249e-05,1.1963e-05,-8.46131e-06,-2.63961e-05,9.46569e-06,-6.02628e-06,1.66983e-05,2.03404e-06,0
-3.07518e-05,1.15537e-05,-9.80714e-06,-2.77084e-05,1.0293e-05,-7.1229e-06,1.51718e-05,3.3705e-06,0
-3.09565e-05,1.04502e-05,-9.04121e-06,-2.47879e-05,1.20653e-05,-7.86641e-06,1.56025e-05,5.05599e-06,0
-2.99486e-05,1.02622e-05,-5.12785e-06,-1.91891e-05,1.33902e-05,-8.62618e-06,1.52202e-05,6.46489e-06,0
-2.85852e-05,1.12126e-05,-2.26338e-06,-1.44982e-05,1.32487e-05,-9.5451e-06,9.85009e-06,6.33927e-06,0
-2.7436e-05,1.34057e-05,-3.92395e-06,-1.20866e-05,1.09325e-05,-1.17473e-05,-1.45905e-06,5.96535e-06,0
-2.72945e-05,1.66001e-05,-1.04009e-05,-1.13405e-05,7.22071e-06,-1.42545e-05,-1.09142e-05,7.47855e-06,0
-2.84552e-05,1.8364e-05,-1.83003e-05,-1.17121e-05,5.98712e-06,-1.5171e-05,-1.01958e-05,8.8315e-06,0
-3.04033e-05,1.86186e-05,-2.16035e-05,-1.25677e-05,6.92173e-06,-1.49113e-05,3.3418e-06,7.11428e-06,0
-3.12451e-05,1.89244e-05,-1.80899e-05,-1.26384e-05,6.43054e-06,-1.39651e-05,2.50282e-05,3.74308e-06,0
-3.05367e-05,1.95662e-05,-1.18156e-05,-1.02944e-05,4.75693e-06,-1.17182e-05,4.47089e-05,1.2868e-06,0
-3.02141e-05,1.87952e-05,-8.00955e-06,-5.63548e-06,3.59929e-06,-9.28981e-06,5.63769e-05,1.71995e-06,0
-2.99168e-05,1.686e-05,-8.23388e-06,-9.5117e-08,3.90931e-06,-9.03238e-06,5.95626e-05,4.32788e-06,0
-2.84537e-05,1.53338e-05,-9.48008e-06,3.99081e-06,5.90229e-06,-8.54518e-06,5.42486e-05,5.52183e-06,0
-2.77635e-05,1.45607e-05,-7.52945e-06,3.5775e-06,6.58798e-06,-7.87335e-06,4.38185e-05,5.94401e-06,0
-2.843e-05,1.27271e-05,-4.1881e-06,-1.01081e-06,5.57677e-06,-8.42578e-06,3.07133e-05,4.96766e-06,0
-2.89612e-05,9.5954e-06,-4.29318e-06,-6.44713e-06,7.99177e-06,-9.59134e-06,1.65966e-05,1.4977e-06,0
-2.77407e-05,5.91376e-06,-4.77582e-06,-9.35172e-06,1.18204e-05,-1.04715e-05,4.07797e-06,-3.84168e-07,0
-2.7264e-05,2.38424e-06,-3.15939e-06,-8.94414e-06,1.24414e-05,-1.16743e-05,-6.54488e-06,9.05673e-07,0
-2.82946e-05,4.69123e-07,-1.77096e-06,-6.12984e-06,9.50903e-06,-1.32577e-05,-1.23249e-05,2.69341e-06,0
-2.94359e-05,-2.51242e-07,-2.62757e-06,8.02403e-07,5.88684e-06,-1.3983e-05,-1.26375e-05,2.81289e-06,0
-3.02265e-05,-7.96162e-07,-5.20764e-06,1.23878e-05,5.15226e-06,-1.41251e-05,-9.47272e-06,1.20487e-06,0
-2.93491e-05,-1.41675e-06,-7.43034e-06,2.18902e-05,6.03793e-06,-1.37905e-05,-5.3246e-06,9.22647e-08,0
-2.73763e-05,-1.13173e-06,-7.74453e-06,2.19808e-05,7.59899e-06,-1.27565e-05,-2.41976e-06,2.94467e-07,0
-2.6484e-05,-4.44485e-07,-6.59238e-06,1.29625e-05,1.03775e-05,-1.12829e-05,-1.76533e-06,8.11509e-07,0
-2.70244e-05,8.53055e-07,-5.2411e-06,-4.76799e-07,1.39415e-05,-1.07092e-05,-1.7034e-06,1.49926e-06,0
-2.73305e-05,2.54286e-06,-4.02552e-06,-1.2875e-05,1.60772e-05,-9.47525e-06,-9.96925e-07,1.40649e-06,0
-2.71222e-05,4.04009e-06,-4.14948e-06,-1.84584e-05,1.56282e-05,-6.53717e-06,3.50216e-07,7.30729e-07,0
-2.70465e-05,4.96736e-06,-3.9499e-06,-1.22712e-05,1.46406e-05,-3.59424e-06,2.71966e-06,1.89748e-07,0
-2.83308e-05,5.096e-06,-2.43593e-06,2.03117e-06,1.535e-05,-2.90979e-06,5.74358e-06,-1.85894e-07,0
-3.00418e-05,5.94579e-06,-8.89698e-07,1.50037e-05,1.74712e-05,-2.82208e-06,8.40609e-06,4.58839e-07,0
-3.10277e-05,9.98178e-06,-7.30514e-07,2.26039e-05,1.89147e-05,-8.88421e-07,1.01504e-05,2.2042e-06,0
-3.09116e-05,1.62972e-05,-1.6491e-06,2.53237e-05,1.88893e-05,1.43914e-06,1.19229e-05,4.11863e-06,0
-3.03492e-05,2.18783e-05,-3.08476e-06,2.27943e-05,1.8152e-05,5.17217e-07,1.30224e-05,5.71514e-06,0
-3.01695e-05,2.51218e-05,-4.31986e-06,1.35902e-05,1.64284e-05,-3.3976e-06,1.22185e-05,7.3774e-06,0
-3.07635e-05,2.47989e-05,-4.59532e-06,-1.79394e-07,1.31001e-05,-5.52865e-06,9.7077e-06,9.07631e-06,0
-3.15787e-05,2.27301e-05,-4.71336e-06,-1.04407e-05,1.02927e-05,-5.90902e-06,8.53193e-06,1.055e-05,0
-3.18829e-05,2.28714e-05,-5.09195e-06,-1.4487e-05,9.45721e-06,-4.83953e-06,1.063e-05,1.1696e-05,0
-3.07562e-05,2.40568e-05,-4.49211e-06,-1.83976e-05,8.58393e-06,-3.02799e-06,1.47029e-05,1.29202e-05,0
-2.96362e-05,2.44076e-05,-3.81019e-06,-2.28408e-05,6.4563e-06,-2.71319e-06,1.72184e-05,1.3673e-05,0
-2.94922e-05,2.45825e-05,-3.21954e-06,-2.27436e-05,5.46469e-06,-4.60318e-06,1.54304e-05,1.29939e-05,0
-2.9019e-05,2.4975e-05,-1.41408e-06,-1.44861e-05,6.91334e-06,-6.00491e-06,3.22946e-06,1.04924e-05,0
-2.90602e-05,2.44238e-05,-7.96126e-07,-1.8478e-06,7.14838e-06,-4.6368e-06,-1.52036e-05,7.39747e-06,0
-2.90256e-05,2.13295e-05,-1.7481e-06,5.02797e-06,5.96611e-06,-3.0083e-06,-2.43525e-05,6.11628e-06,0
-2.95079e-05,1.71938e-05,-1.86669e-06,3.91885e-06,7.3036e-06,-3.10337e-06,-1.92948e-05,5.35538e-06,0
-3.06688e-05,1.20783e-05,-1.46673e-06,1.30063e-06,9.62731e-06,-4.3284e-06,-7.17925e-06,5.50189e-06,0
-3.20663e-05,8.52964e-06,-1.78568e-06,6.68406e-06,1.22111e-05,-4.4552e-06,5.79516e-06,6.63981e-06,0
-3.23308e-05,9.22565e-06,-2.43326e-06,2.17161e-05,1.54654e-05,-3.17157e-06,2.04766e-05,7.4799e-06,0
-3.07176e-05,1.43387e-05,-3.60046e-06,3.31718e-05,1.86059e-05,-2.5018e-06,3.29081e-05,7.46322e-06,0
-2.90229e-05,1.95368e-05,-3.21461e-06,2.98749e-05,2.08186e-05,-1.8614e-06,4.10269e-05,5.70261e-06,0
-2.8851e-05,1.93048e-05,-2.62313e-06,1.42871e-05,2.11059e-05,-1.94204e-06,4.41454e-05,3.45116e-06,0
-3.06393e-05,1.53058e-05,-3.88959e-06,5.44711e-10,2.06769e-05,-2.60812e-06,4.36162e-05,1.84951e-06,0
-3.23389e-05,1.22882e-05,-5.82704e-06,-5.11381e-06,1.99852e-05,-3.38267e-06,4.22314e-05,2.69185e-07,0
-3.28353e-05,1.1396e-05,-8.98814e-06,-4.13593e-06,1.91545e-05,-4.59579e-06,4.03505e-05,-2.4092e-06,0
-3.23979e-05,1.0334e-05,-1.32823e-05,-3.90575e-06,1.90643e-05,-5.81599e-06,3.78362e-05,-5.26377e-06,0
-3.1489e-05,8.81096e-06,-1.68565e-05,-9.48817e-06,2.05921e-05,-6.41013e-06,3.46417e-05,-6.18531e-06,0
-3.10203e-05,8.10481e-06,-1.90332e-05,-2.23746e-05,2.17433e-05,-6.34442e-06,3.16448e-05,-5.79316e-06,0
-3.19978e-05,8.83764e-06,-2.07659e-05,-3.94351e-05,2.13703e-05,-6.46304e-06,2.93143e-05,-6.86192e-06,0
-3.39583e-05,1.0346e-05,-2.08875e-05,-5.27357e-05,2.04214e-05,-6.45708e-06,2.78996e-05,-8.27762e-06,0
-3.65231e-05,1.35725e-05,-1.8689e-05,-5.69778e-05,1.95878e-05,-6.38964e-06,2.63523e-05,-7.77938e-06,0
-3.8634e-05,1.85356e-05,-1.46829e-05,-5.2511e-05,1.92398e-05,-6.21562e-06,2.56986e-05,-6.71908e-06,0
-3.89401e-05,2.43002e-05,-1.11638e-05,-4.34924e-05,1.89903e-05,-6.35711e-06,2.35877e-05,-6.17067e-06,0
-3.78998e-05,2.83952e-05,-1.07388e-05,-3.50895e-05,1.89007e-05,-6.47445e-06,1.71166e-05,-5.57575e-06,0
-3.59308e-05,2.79784e-05,-1.2319e-05,-3.12677e-05,1.85203e-05,-7.89453e-06,9.24223e-06,-5.87558e-06,0
-3.33899e-05,2.53207e-05,-1.38744e-05,-3.16284e-05,1.72209e-05,-9.58285e-06,6.09372e-06,-7.20285e-06,0
-3.08682e-05,2.18161e-05,-1.45577e-05,-3.27128e-05,1.50568e-05,-9.04329e-06,8.39212e-06,-7.72366e-06,0
-2.96994e-05,1.54221e-05,-1.40445e-05,-3.05188e-05,1.32068e-05,-8.1822e-06,1.18232e-05,-8.01901e-06,0
-3.02626e-05,6.83197e-06,-1.30199e-05,-2.50156e-05,1.09464e-05,-9.48559e-06,1.42134e-05,-9.33729e-06,0
-3.13977e-05,-1.07829e-06,-1.19264e-05,-2.08988e-05,8.7004e-06,-1.17811e-05,1.57946e-05,-8.53937e-06,0
-3.30315e-05,-4.13113e-06,-1.10172e-05,-2.00638e-05,9.27345e-06,-1.23685e-05,1.39922e-05,-7.37316e-06,0
-3.42934e-05,-1.29306e-06,-1.05205e-05,-1.63129e-05,1.24077e-05,-1.14235e-05,9.70828e-06,-7.21904e-06,0
-3.34623e-05,3.03329e-06,-8.85762e-06,-6.35186e-06,1.66778e-05,-1.03931e-05,8.02228e-06,-6.13189e-06,0
-3.29435e-05,4.52919e-06,-6.81117e-06,5.92661e-06,1.81413e-05,-9.2106e-06,8.93008e-06,-4.06082e-06,0
-3.35888e-05,4.01431e-06,-6.47173e-06,1.54479e-05,1.50188e-05,-9.70191e-06,9.18197e-06,-1.70407e-06,0
-3.3105e-05,2.56971e-06,-6.97602e-06,2.01605e-05,1.15897e-05,-1.09871e-05,7.76656e-06,-1.39221e-06,0
-3.28784e-05,3.68437e-07,-6.66034e-06,2.09072e-05,1.01453e-05,-1.10012e-05,6.81891e-06,-1.71412e-06,0
-3.33015e-05,-4.05851e-07,-6.51196e-06,1.73727e-05,1.01797e-05,-1.11195e-05,6.98162e-06,-1.21428e-06,0
-3.25123e-05,-1.79658e-07,-6.34958e-06,1.16251e-05,1.14541e-05,-1.0891e-05,8.37596e-06,-4.53937e-07,0
-3.06518e-05,6.02158e-07,-4.09025e-06,4.46127e-06,1.20554e-05,-9.19133e-06,1.00568e-05,4.64761e-08,0
-2.8541e-05,6.19263e-07,-1.23995e-06,-5.1531e-06,1.00231e-05,-7.30913e-06,1.13721e-05,6.78479e-07,0
-2.70143e-05,2.87559e-08,-8.51566e-08,-1.62338e-05,8.18193e-06,-7.25954e-06,1.25546e-05,2.61044e-07,0
-2.75089e-05,1.00259e-07,-2.56047e-06,-2.54245e-05,9.35202e-06,-7.6937e-06,1.42619e-05,-4.18917e-07,0
-2.99459e-05,9.6556e-07,-6.96312e-06,-2.73916e-05,1.28042e-05,-7.92409e-06,1.63676e-05,-4.61415e-08,0
-3.05643e-05,2.37633e-06,-9.81757e-06,-2.06067e-05,1.61866e-05,-8.85902e-06,1.79018e-05,-7.82317e-08,0
-2.73557e-05,3.76473e-06,-1.03423e-05,-1.12112e-05,1.7908e-05,-1.07718e-05,1.79667e-05,-1.26802e-06,0
-2.47852e-05,4.66133e-06,-1.04828e-05,-8.08983e-06,1.73673e-05,-1.25563e-05,1.65778e-05,-1.76291e-06,0
-2.60787e-05,5.52826e-06,-1.07657e-05,-1.01034e-05,1.52597e-05,-1.35031e-05,1.42932e-05,-7.25502e-07,0
-2.83197e-05,7.9788e-06,-9.92409e-06,-4.46753e-06,1.38748e-05,-1.30269e-05,1.0683e-05,1.22889e-06,0
-2.99003e-05,1.18235e-05,-8.72874e-06,1.74572e-05,1.45372e-05,-1.10475e-05,4.95066e-06,2.32985e-06,0
-3.12663e-05,1.45149e-05,-8.67047e-06,4.81211e-05,1.5103e-05,-9.3744e-06,-1.92966e-06,8.50432e-07,0
-3.11373e-05,1.4634e-05,-9.29835e-06,7.42411e-05,1.44448e-05,-9.54958e-06,-6.43592e-06,-1.59368e-06,0
-2.98503e-05,1.44682e-05,-9.34041e-06,8.85344e-05,1.34998e-05,-1.04052e-05,-7.30721e-06,-3.2886e-06,0
-2.97804e-05,1.64279e-05,-9.52594e-06,8.72679e-05,1.37296e-05,-1.05828e-05,-5.87011e-06,-4.04401e-06,0
-3.04009e-05,1.90036e-05,-1.04931e-05,6.97279e-05,1.46853e-05,-1.08663e-05,-3.19667e-06,-4.31368e-06,0
-2.95469e-05,2.04739e-05,-1.08009e-05,4.01596e-05,1.34506e-05,-1.25851e-05,-3.90658e-07,-3.42568e-06,0
-2.8443e-05,1.86745e-05,-9.74371e-06,1.58486e-05,1.25733e-05,-1.37225e-05,-1.03927e-06,-2.89882e-06,0
-2.80889e-05,1.39488e-05,-1.07598e-05,8.5148e-07,1.21244e-05,-1.22092e-05,-2.85058e-06,-1.19778e-06,0
-2.81299e-05,1.19448e-05,-1.16107e-05,-1.48282e-05,9.85273e-06,-1.04633e-05,-2.1568e-06,2.39168e-06,0
-2.74201e-05,1.28156e-05,-1.03306e-05,-2.54291e-05,8.44916e-06,-9.96383e-06,1.11309e-07,5.14829e-06,0
-2.71022e-05,1.28286e-05,-9.14531e-06,-2.57712e-05,9.24244e-06,-9.36984e-06,2.2773e-06,5.45911e-06,0
-2.87749e-05,1.01347e-05,-9.72138e-06,-2.1002e-05,1.00454e-05,-8.52786e-06,2.34166e-06,5.0866e-06,0
-3.08359e-05,8.72456e-06,-1.03665e-05,-1.61268e-05,1.04433e-05,-9.6596e-06,3.49299e-06,5.80421e-06,0
-3.26933e-05,9.01948e-06,-9.84391e-06,-1.04978e-05,1.27155e-05,-1.06715e-05,5.83952e-06,7.26962e-06,0
-3.25968e-05,7.89955e-06,-1.00707e-05,-7.09813e-06,1.68845e-05,-1.05295e-05,8.01426e-06,9.1704e-06,0
-3.0459e-05,6.86678e-06,-1.0551e-05,-6.76668e-06,2.01436e-05,-1.07545e-05,9.72704e-06,9.43799e-06,0
-2.76326e-05,6.6241e-06,-1.13579e-05,-7.01674e-06,2.09259e-05,-1.23933e-05,9.82234e-06,8.598e-06,0
-2.47203e-05,5.34444e-06,-1.23343e-05,-7.16575e-06,1.90219e-05,-1.45378e-05,9.92516e-06,7.78961e-06,0
-2.25923e-05,2.28373e-06,-1.28965e-05,-6.32257e-06,1.62978e-05,-1.64978e-05,1.20689e-05,8.08713e-06,0
-2.36193e-05,2.30662e-07,-1.24536e-05,-4.35404e-06,1.49051e-05,-1.82626e-05,1.41838e-05,9.66612e-06,0
-2.73735e-05,1.44698e-06,-1.17733e-05,-3.81379e-06,1.40131e-05,-1.91668e-05,1.50737e-05,1.17724e-05,0
-2.98696e-05,5.11033e-06,-1.02361e-05,-7.01438e-06,1.19695e-05,-1.89864e-05,1.66391e-05,1.2608e-05,0
-3.00992e-05,8.67009e-06,-8.73953e-06,-1.11834e-05,9.75962e-06,-1.66944e-05,1.81402e-05,1.25662e-05,0
-2.9506e-05,1.16513e-05,-8.75227e-06,-1.35727e-05,8.84548e-06,-1.42739e-05,1.8566e-05,1.18842e-05,0
-2.96935e-05,1.44189e-05,-9.23983e-06,-1.21756e-05,8.95437e-06,-1.40862e-05,1.86903e-05,9.55109e-06,0
-3.01186e-05,1.75777e-05,-8.83425e-06,-8.94314e-06,1.05999e-05,-1.53997e-05,1.87543e-05,7.6319e-06,0
-3.09458e-05,2.36981e-05,-8.10034e-06,-7.06533e-06,1.25547e-05,-1.55353e-05,1.70684e-05,7.03706e-06,0
-3.18739e-05,3.6318e-05,-7.76043e-06,-7.45361e-06,1.29622e-05,-1.48996e-05,1.5133e-05,6.84083e-06,0
-3.19698e-05,5.02663e-05,-8.4835e-06,-7.82089e-06,1.17614e-05,-1.43665e-05,1.46216e-05,6.8179e-06,0
-3.23243e-05,5.7917e-05,-1.02656e-05,-7.78816e-06,9.79388e-06,-1.35918e-05,1.49708e-05,8.22166e-06,0
-3.25989e-05,5.83975e-05,-9.08967e-06,-7.79262e-06,8.22812e-06,-1.26492e-05,1.57365e-05,8.29125e-06,0
-3.23841e-05,5.05395e-05,-6.06172e-06,-7.36837e-06,9.25711e-06,-1.224e-05,1.84863e-05,6.83469e-06,0
-3.17201e-05,3.49674e-05,-3.66825e-06,-7.25896e-06,1.14576e-05,-1.13083e-05,2.23606e-05,6.90736e-06,0
-2.91876e-05,1.86351e-05,-2.45427e-06,-6.79271e-06,1.24727e-05,-8.39205e-06,2.32974e-05,5.82082e-06,0
