ch1,ch2,ch3,ch4,ch5,ch6,ch7,ch8,class
-2.37382e-05,1.27648e-05,-9.76293e-06,-6.74622e-06,1.22163e-05,-1.0356e-05,-3.66406e-06,4.76697e-06,0
-2.49595e-05,1.31136e-05,-9.64289e-06,-1.03103e-05,1.44403e-05,-1.10562e-05,-4.20911e-06,5.05215e-06,0
-2.57696e-05,1.23704e-05,-1.03901e-05,-8.57392e-06,1.71663e-05,-8.83285e-06,-1.63248e-06,7.63154e-06,0
-2.6128e-05,1.12428e-05,-1.02598e-05,-4.83889e-06,1.79369e-05,-7.9602e-06,4.47186e-06,8.40415e-06,0
-2.98428e-05,1.15327e-05,-9.01218e-06,-5.29433e-06,1.78141e-05,-1.02835e-05,1.15847e-05,6.5468e-06,0
-3.65814e-05,1.24981e-05,-8.60583e-06,-8.00654e-06,1.83687e-05,-1.41122e-05,1.69124e-05,4.75164e-06,0
-4.14099e-05,1.34916e-05,-8.23766e-06,-8.28545e-06,2.06576e-05,-1.58206e-05,1.9723e-05,3.76442e-06,0
-4.03913e-05,1.40761e-05,-7.79878e-06,-7.51599e-06,2.33063e-05,-1.24306e-05,1.97205e-05,2.94574e-06,0
-3.60866e-05,1.59271e-05,-6.91917e-06,-9.399e-06,2.44084e-05,-6.25895e-06,1.80952e-05,2.15088e-06,0
-3.41281e-05,2.08461e-05,-6.40439e-06,-1.14932e-05,2.33259e-05,-3.04106e-06,1.65697e-05,1.32932e-06,0
-3.63271e-05,2.95418e-05,-7.43608e-06,-1.41161e-05,2.16332e-05,-3.09842e-06,1.59259e-05,1.34259e-06,0
-3.96255e-05,3.94289e-05,-8.15648e-06,-1.87677e-05,2.10727e-05,-3.84974e-06,1.61524e-05,2.50857e-06,0
-4.19772e-05,4.49093e-05,-7.18936e-06,-2.57185e-05,2.08028e-05,-3.62408e-06,1.66204e-05,2.50401e-06,0
-4.25006e-05,4.49116e-05,-6.38904e-06,-3.06755e-05,1.88649e-05,-2.68925e-06,1.71355e-05,1.2776e-06,0
-3.93504e-05,4.4799e-05,-6.40503e-06,-2.96962e-05,1.60529e-05,-1.75632e-06,1.7944e-05,1.24128e-06,0
-3.362e-05,4.68586e-05,-7.4173e-06,-2.31428e-05,1.43055e-05,-2.37119e-06,2.05358e-05,1.7629e-06,0
-2.73864e-05,4.76189e-05,-8.30714e-06,-1.32729e-05,1.37941e-05,-6.10501e-06,2.4516e-05,5.47725e-07,0
-2.35277e-05,4.36235e-05,-7.7625e-06,-5.966e-06,1.44649e-05,-1.24536e-05,2.55684e-05,-6.3949e-07,0
-2.40106e-05,3.54016e-05,-5.6395e-06,-1.01614e-05,1.66319e-05,-1.7315e-05,1.91094e-05,9.39702e-07,0
-2.7276e-05,2.95997e-05,-2.77405e-06,-2.40126e-05,1.78043e-05,-1.7278e-05,1.16897e-05,2.55716e-06,0
-3.09003e-05,2.75476e-05,-1.76565e-06,-3.71333e-05,1.52997e-05,-1.25948e-05,1.19769e-05,1.94188e-06,0
-3.2929e-05,2.49735e-05,-3.35523e-06,-3.78421e-05,1.24038e-05,-7.68415e-06,1.93951e-05,2.68831e-06,0
-3.32344e-05,1.98031e-05,-5.29131e-06,-2.50551e-05,1.13053e-05,-4.22879e-06,2.38905e-05,6.53618e-06,0
-3.32233e-05,9.73979e-06,-5.60209e-06,-7.69914e-06,1.07671e-05,-2.86614e-06,2.16657e-05,8.96301e-06,0
-3.27756e-05,-5.25124e-06,-4.09334e-06,7.61259e-06,1.21306e-05,-7.50266e-06,1.81965e-05,7.56918e-06,0
-3.29377e-05,-2.13507e-05,-1.80287e-06,1.83342e-05,1.40984e-05,-1.57288e-05,1.6435e-05,4.80587e-06,0
-3.50462e-05,-3.57634e-05,-9.93833e-07,2.42488e-05,1.39595e-05,-2.14614e-05,1.69734e-05,2.6272e-06,0
-3.90725e-05,-4.45295e-05,-1.76187e-06,2.35703e-05,1.39668e-05,-2.34812e-05,1.71242e-05,1.4763e-06,0
-4.39618e-05,-4.61038e-05,-3.08519e-06,1.87148e-05,1.41115e-05,-2.48399e-05,1.63195e-05,3.62609e-07,0
-4.58991e-05,-4.32387e-05,-4.28398e-06,1.16923e-05,1.34577e-05,-2.47274e-05,1.59442e-05,-1.09899e-06,0
-4.33496e-05,-3.77085e-05,-5.39213e-06,6.39643e-06,1.26222e-05,-2.19535e-05,1.68033e-05,-2.33385e-06,0
-3.91969e-05,-3.18574e-05,-7.77233e-06,4.19744e-06,1.32528e-05,-1.84685e-05,1.83195e-05,-1.44006e-06,0
-3.65739e-05,-2.61843e-05,-1.04258e-05,2.78257e-06,1.50158e-05,-1.64889e-05,1.99323e-05,2.14172e-07,0
-3.45542e-05,-2.09532e-05,-1.14684e-05,5.44405e-07,1.72414e-05,-1.6099e-05,2.18053e-05,-3.17101e-07,0
-3.23316e-05,-1.70607e-05,-1.14608e-05,-1.43925e-06,1.86446e-05,-1.63279e-05,2.27602e-05,-2.97053e-06,0
-3.11621e-05,-1.34735e-05,-1.11248e-05,-3.38763e-06,1.7333e-05,-1.6527e-05,2.28894e-05,-5.52055e-06,0
-3.01131e-05,-8.68623e-06,-1.10323e-05,-6.70807e-06,1.36517e-05,-1.63696e-05,2.18266e-05,-6.98541e-06,0
-2.8702e-05,-4.18393e-06,-1.12216e-05,-1.07118e-05,9.22534e-06,-1.5902e-05,2.00091e-05,-8.08343e-06,0
-2.81944e-05,-1.13628e-06,-1.09456e-05,-1.40838e-05,6.65383e-06,-1.54893e-05,1.96232e-05,-8.62933e-06,0
-2.92343e-05,2.41982e-06,-9.69934e-06,-1.45106e-05,6.9076e-06,-1.46372e-05,2.09017e-05,-7.9022e-06,0
-3.10896e-05,7.69685e-06,-8.32316e-06,-1.31385e-05,9.60382e-06,-1.17394e-05,2.19308e-05,-6.25872e-06,0
-3.17969e-05,1.31303e-05,-8.26734e-06,-1.2631e-05,1.25597e-05,-8.05082e-06,2.20617e-05,-5.51568e-06,0
-3.02841e-05,1.71999e-05,-9.11035e-06,-1.29232e-05,1.54652e-05,-6.05792e-06,2.22332e-05,-5.05787e-06,0
-2.87001e-05,2.03511e-05,-1.03346e-05,-1.10901e-05,1.85526e-05,-6.74583e-06,2.30482e-05,-4.09299e-06,0
-2.81514e-05,2.09695e-05,-1.14501e-05,-8.82131e-06,2.17889e-05,-8.18542e-06,2.38342e-05,-2.38456e-06,0
-2.89432e-05,1.8271e-05,-1.29279e-05,-7.19867e-06,2.50109e-05,-8.7531e-06,2.30208e-05,-9.47272e-07,0
-3.03073e-05,1.26559e-05,-1.32229e-05,-4.25623e-06,2.63546e-05,-9.15498e-06,2.0299e-05,8.80386e-07,0
-3.01666e-05,4.48756e-06,-9.68851e-06,-3.26635e-06,2.49642e-05,-1.1753e-05,1.84765e-05,3.32604e-06,0
-2.91589e-05,-1.46049e-06,-6.74752e-06,-6.09832e-06,2.2363e-05,-1.37065e-05,1.76659e-05,4.73831e-06,0
-2.89756e-05,-2.85464e-06,-6.74244e-06,-9.33091e-06,1.63189e-05,-1.23258e-05,1.79558e-05,4.67036e-06,0
-2.79955e-05,-2.69703e-06,-8.05463e-06,-1.15716e-05,9.70477e-06,-1.06583e-05,1.99631e-05,3.71648e-06,0
-2.52228e-05,-5.75235e-07,-8.85506e-06,-1.15142e-05,6.48432e-06,-8.48206e-06,2.02549e-05,3.01511e-06,0
-2.33673e-05,2.38428e-06,-7.29057e-06,-9.89944e-06,5.65837e-06,-6.85775e-06,1.84025e-05,2.59922e-06,0
-2.36119e-05,3.59553e-06,-4.25864e-06,-8.17024e-06,4.40053e-06,-6.75972e-06,1.76761e-05,3.36371e-06,0
-2.52058e-05,4.57938e-06,-1.74425e-06,-6.54804e-06,1.27338e-06,-7.71007e-06,1.91184e-05,5.98844e-06,0
-2.69534e-05,8.77042e-06,-1.55578e-06,-5.73785e-06,1.39961e-07,-8.87599e-06,1.90584e-05,8.49951e-06,0
-2.70183e-05,1.45695e-05,-3.2654e-06,-5.97897e-06,1.37295e-06,-9.03673e-06,1.7755e-05,8.32033e-06,0
-2.48891e-05,1.84463e-05,-4.91964e-06,-6.33858e-06,3.53456e-06,-8.20899e-06,1.6514e-05,6.54448e-06,0
-2.40666e-05,1.99401e-05,-5.37826e-06,-4.95351e-06,5.75019e-06,-7.19141e-06,1.59116e-05,5.06018e-06,0
-2.55117e-05,1.91725e-05,-4.52015e-06,-2.7082e-06,8.14098e-06,-5.99353e-06,1.62828e-05,3.28428e-06,0
-2.59615e-05,1.88975e-05,-3.33313e-06,-1.29297e-06,9.45175e-06,-3.71474e-06,1.67975e-05,8.20307e-07,0
-2.3866e-05,2.14992e-05,-3.39689e-06,-9.51285e-07,9.57907e-06,-2.29382e-06,1.70798e-05,-1.40507e-06,0
-2.24483e-05,2.63095e-05,-5.17883e-06,-1.13898e-06,9.37775e-06,-3.28023e-06,1.6933e-05,-2.27642e-06,0
-2.48202e-05,3.07524e-05,-7.71126e-06,-1.48301e-06,9.53178e-06,-5.35824e-06,1.75284e-05,-1.47342e-06,0
-2.9377e-05,3.29609e-05,-9.88257e-06,-1.57859e-06,1.10325e-05,-6.00753e-06,1.88848e-05,4.08941e-07,0
-3.29088e-05,3.13883e-05,-1.13021e-05,-3.60251e-06,1.2494e-05,-5.48777e-06,1.94531e-05,1.61031e-06,0
-3.44363e-05,2.65496e-05,-1.05939e-05,-8.15719e-06,1.12725e-05,-5.27896e-06,1.77439e-05,1.45984e-06,0
-3.37984e-05,2.04648e-05,-8.94283e-06,-1.22018e-05,8.38988e-06,-5.51164e-06,1.4651e-05,9.67806e-07,0
-3.09709e-05,1.54619e-05,-7.92655e-06,-1.48995e-05,8.46141e-06,-5.65496e-06,1.19353e-05,3.22976e-07,0
-2.90805e-05,1.30198e-05,-6.22689e-06,-1.72709e-05,1.22229e-05,-6.16655e-06,1.13578e-05,3.90882e-07,0
-2.84064e-05,1.16492e-05,-4.05946e-06,-1.91129e-05,1.60652e-05,-7.10191e-06,1.23231e-05,4.90985e-07,0
-2.78528e-05,1.21422e-05,-1.99574e-06,-1.9897e-05,1.78999e-05,-6.00908e-06,1.35013e-05,-1.98107e-07,0
-2.78579e-05,1.78618e-05,1.62251e-07,-1.93675e-05,1.9187e-05,-4.22862e-06,1.37272e-05,6.31926e-07,0
-2.77212e-05,2.43106e-05,7.75459e-07,-1.85038e-05,2.05825e-05,-4.31299e-06,1.2303e-05,2.94051e-06,0
-2.69881e-05,2.85216e-05,-2.41893e-06,-1.80217e-05,2.20695e-05,-5.23073e-06,1.09539e-05,5.30085e-06,0
-2.5568e-05,3.52425e-05,-7.32003e-06,-1.68565e-05,2.41007e-05,-6.39976e-06,1.11356e-05,7.31247e-06,0
-2.54714e-05,4.11532e-05,-1.0199e-05,-1.3944e-05,2.45904e-05,-8.14555e-06,1.08178e-05,8.17821e-06,0
-2.59464e-05,4.33803e-05,-1.23771e-05,-1.17408e-05,2.17471e-05,-9.10417e-06,1.01854e-05,7.0003e-06,0
-2.58709e-05,4.5091e-05,-1.36916e-05,-1.17506e-05,1.66343e-05,-8.40328e-06,1.15966e-05,4.15266e-06,0
-2.76637e-05,4.40063e-05,-1.29187e-05,-1.21738e-05,1.18653e-05,-8.19439e-06,1.18755e-05,3.07322e-06,0
-3.04188e-05,3.75524e-05,-1.34956e-05,-1.4936e-05,8.5969e-06,-8.04479e-06,9.52519e-06,3.41575e-06,0
-3.25113e-05,2.66416e-05,-1.51608e-05,-2.13773e-05,6.52247e-06,-8.64008e-06,7.6377e-06,2.77212e-06,0
-3.33762e-05,1.286e-05,-1.44344e-05,-2.71483e-05,7.46906e-06,-1.11948e-05,7.99255e-06,2.90723e-06,0
-3.22974e-05,-3.15398e-06,-1.16869e-05,-2.84093e-05,1.30851e-05,-1.41994e-05,9.35135e-06,3.86166e-06,0
-2.9845e-05,-2.00575e-05,-8.80737e-06,-2.51758e-05,2.0316e-05,-1.55235e-05,9.73336e-06,4.37594e-06,0
-2.95077e-05,-3.87812e-05,-8.01136e-06,-1.87938e-05,2.37108e-05,-1.37402e-05,8.42272e-06,3.79297e-06,0
-3.14739e-05,-5.92215e-05,-9.96259e-06,-1.45141e-05,2.09086e-05,-1.10593e-05,6.81781e-06,3.40073e-06,0
-3.2774e-05,-7.32839e-05,-1.24044e-05,-1.04853e-05,1.43744e-05,-9.33746e-06,6.95747e-06,4.91316e-06,0
-3.25953e-05,-7.52123e-05,-1.34638e-05,5.55928e-07,7.36002e-06,-9.14567e-06,8.02624e-06,6.69371e-06,0
-3.1447e-05,-6.55612e-05,-1.29658e-05,1.68893e-05,2.05861e-06,-9.34017e-06,8.55761e-06,5.92807e-06,0
-3.07287e-05,-5.17146e-05,-1.23874e-05,3.00673e-05,1.33785e-06,-9.78385e-06,9.12161e-06,3.44886e-06,0
-3.18771e-05,-4.03309e-05,-1.22945e-05,3.45786e-05,7.31948e-06,-1.0013e-05,1.09596e-05,2.14947e-06,0
-3.42142e-05,-3.20429e-05,-1.25534e-05,3.1956e-05,1.7109e-05,-9.35022e-06,1.34708e-05,1.39816e-06,0
-3.57393e-05,-2.25577e-05,-1.24867e-05,2.7788e-05,2.11872e-05,-6.9744e-06,1.52539e-05,5.60553e-07,0
-3.64192e-05,-1.00404e-05,-1.09915e-05,2.62959e-05,1.26672e-05,-4.82711e-07,1.50625e-05,3.4983e-07,0
-3.7714e-05,1.54498e-07,-9.11291e-06,2.56114e-05,-8.8296e-07,6.63716e-06,1.26604e-05,-1.24056e-07,0
-3.9881e-05,3.95609e-06,-8.23128e-06,2.3129e-05,-2.40827e-06,5.7366e-06,1.09747e-05,-1.41852e-06,0
-4.01838e-05,4.30215e-06,-7.96846e-06,1.80785e-05,1.25317e-05,-1.94785e-06,1.13119e-05,-3.03029e-06,0
-3.78879e-05,4.41122e-06,-8.67881e-06,1.13389e-05,2.45399e-05,-7.83234e-06,1.23752e-05,-3.39501e-06,0
-3.55118e-05,2.52644e-06,-1.07312e-05,2.67024e-06,1.88194e-05,-7.67344e-06,1.43854e-05,-1.13149e-06,0
-3.35511e-05,-2.99485e-06,-1.23916e-05,-8.33307e-06,7.88011e-06,-3.73095e-06,1.56732e-05,-3.01673e-07,0
-3.02521e-05,-8.65655e-06,-1.20403e-05,-2.20421e-05,3.7887e-06,-1.55149e-06,1.44677e-05,-1.75954e-06,0
-2.7331e-05,-9.62304e-06,-1.26032e-05,-3.47142e-05,5.74852e-06,-3.18681e-06,1.27883e-05,-1.25933e-06,0
-2.91637e-05,-8.48022e-06,-1.39069e-05,-4.13015e-05,7.01262e-06,-5.91656e-06,1.24901e-05,3.02995e-07,0
-3.39236e-05,-8.24475e-06,-1.3879e-05,-3.65203e-05,5.99284e-06,-6.99606e-06,1.41234e-05,-1.72238e-07,0
-3.51361e-05,-1.0231e-05,-1.35055e-05,-2.20621e-05,5.89407e-06,-6.93085e-06,1.47689e-05,-2.2896e-06,0
-3.45301e-05,-1.26541e-05,-1.22743e-05,-1.11002e-05,6.63551e-06,-6.62013e-06,1.23549e-05,-1.51509e-06,0
-3.43382e-05,-1.23543e-05,-1.08085e-05,-8.41937e-06,7.27518e-06,-7.73742e-06,1.07089e-05,2.04791e-06,0
-3.34828e-05,-7.85839e-06,-9.24374e-06,-1.18565e-05,7.23677e-06,-9.50769e-06,1.06483e-05,3.87185e-06,0
-3.24641e-05,-6.43898e-07,-8.69502e-06,-1.57833e-05,1.02477e-05,-1.12633e-05,1.03265e-05,3.71359e-06,0
-3.16562e-05,8.34181e-06,-9.6707e-06,-1.68744e-05,1.59015e-05,-1.21424e-05,1.0809e-05,3.59496e-06,0
-3.02817e-05,1.86887e-05,-9.7509e-06,-1.4356e-05,2.17344e-05,-1.15352e-05,1.10968e-05,3.55706e-06,0
-2.83254e-05,2.74572e-05,-7.06792e-06,-8.98896e-06,2.56361e-05,-1.03408e-05,1.08807e-05,2.01363e-06,0
-2.65779e-05,3.44012e-05,-3.42369e-06,-3.82128e-06,2.42269e-05,-1.03215e-05,1.1391e-05,-3.04123e-07,0
-2.44619e-05,3.98077e-05,-1.67003e-06,-1.76754e-06,1.89325e-05,-1.20224e-05,1.10454e-05,-2.73235e-06,0
-2.35127e-05,4.34343e-05,-2.60923e-06,-2.99362e-06,1.5917e-05,-1.33424e-05,9.35552e-06,-4.11502e-06,0
-2.36179e-05,4.62735e-05,-3.84012e-06,-4.42562e-06,1.71395e-05,-1.44832e-05,7.78216e-06,-3.06851e-06,0
-2.32044e-05,4.97473e-05,-3.31529e-06,-4.45922e-06,1.8582e-05,-1.7105e-05,1.93638e-06,-5.46457e-07,0
-2.20497e-05,5.30193e-05,-1.95708e-06,-2.33578e-06,1.71484e-05,-2.06795e-05,-1.68386e-05,1.95031e-06,0
-2.16434e-05,5.5749e-05,-1.16809e-06,5.41151e-08,1.34581e-05,-2.43267e-05,-4.45463e-05,3.38215e-06,0
-2.13391e-05,5.79752e-05,-1.10309e-06,9.09944e-07,1.02063e-05,-2.82741e-05,-6.10689e-05,3.24941e-06,0
-2.00603e-05,5.94788e-05,-1.17684e-06,-2.67359e-07,8.38906e-06,-2.47659e-05,-5.4392e-05,2.51173e-06,0
-1.87161e-05,5.87637e-05,-2.4912e-06,-8.54434e-07,7.22831e-06,-3.25131e-06,-3.24604e-05,2.61405e-06,0
-1.89634e-05,5.35226e-05,-4.09641e-06,3.41904e-06,6.31993e-06,2.65551e-05,-7.59415e-06,2.88514e-06,0
-2.14917e-05,4.44012e-05,-4.77417e-06,1.25205e-05,6.10882e-06,3.81649e-05,1.38281e-05,2.34454e-06,0
-2.47667e-05,3.70752e-05,-4.61745e-06,1.67181e-05,4.89813e-06,2.3643e-05,3.00932e-05,4.16364e-07,0
-2.55137e-05,3.62368e-05,-4.44621e-06,1.26827e-05,2.30475e-06,4.43755e-06,3.93661e-05,1.80973e-07,0
-2.31277e-05,3.92497e-05,-4.29878e-06,8.18572e-06,1.18287e-06,-1.99171e-06,4.29403e-05,1.35351e-06,0
-1.94435e-05,4.11353e-05,-3.02533e-06,6.82767e-06,1.71978e-06,-2.16051e-06,4.39818e-05,9.26801e-07,0
-1.80562e-05,3.74308e-05,-8.68073e-07,4.81909e-06,4.95277e-07,-2.73424e-06,4.47612e-05,-1.07575e-06,0
-2.14179e-05,3.08522e-05,4.58673e-07,-5.05018e-07,-2.59985e-06,-4.18155e-06,4.70234e-05,-3.79605e-06,0
-2.62382e-05,2.75001e-05,-1.35404e-08,-6.40139e-06,-9.63384e-07,-5.42758e-06,4.77017e-05,-4.3262e-06,0
-2.93147e-05,2.8006e-05,-3.40561e-07,-1.10068e-05,5.91991e-06,-5.74525e-06,4.61793e-05,-2.45967e-06,0
-2.91344e-05,3.3074e-05,2.54288e-07,-1.40461e-05,1.19869e-05,-5.71159e-06,4.37731e-05,-1.40757e-07,0
-2.64648e-05,3.90073e-05,9.70889e-07,-1.88168e-05,1.42179e-05,-3.86436e-06,4.28989e-05,1.23207e-06,0
-2.36477e-05,4.20142e-05,-1.88498e-08,-2.2448e-05,1.61051e-05,-2.19158e-06,4.22946e-05,6.00621e-07,0
-2.30174e-05,4.57618e-05,-3.48464e-06,-2.08578e-05,1.924e-05,-2.63433e-06,3.71706e-05,-1.15035e-06,0
-2.19876e-05,5.24908e-05,-6.94445e-06,-1.64727e-05,2.04688e-05,-4.70292e-06,3.08891e-05,-2.59735e-06,0
-1.96101e-05,5.92349e-05,-8.26052e-06,-1.11239e-05,2.0675e-05,-6.61606e-06,2.62725e-05,-3.99337e-06,0
-1.76463e-05,5.977e-05,-8.03368e-06,-7.71606e-06,1.98147e-05,-8.02382e-06,2.50024e-05,-4.55545e-06,0
-1.79888e-05,5.2097e-05,-8.13511e-06,-7.03916e-06,1.66818e-05,-1.07381e-05,2.649e-05,-3.12929e-06,0
-2.08917e-05,3.87813e-05,-9.08712e-06,-7.21204e-06,1.24509e-05,-1.43314e-05,2.87772e-05,-6.3248e-07,0
-2.5027e-05,2.0914e-05,-1.01264e-05,-7.5525e-06,1.05013e-05,-1.62481e-05,2.92411e-05,1.22059e-06,0
-2.99405e-05,9.73471e-07,-9.39593e-06,-8.21179e-06,1.03689e-05,-1.56441e-05,2.66293e-05,1.58887e-06,0
-3.3841e-05,-1.44312e-05,-6.57525e-06,-7.95342e-06,8.93493e-06,-1.42531e-05,2.24965e-05,4.33631e-07,0
-3.60776e-05,-1.71324e-05,-3.23116e-06,-6.04031e-06,6.0403e-06,-1.39164e-05,1.81654e-05,-1.24272e-06,0
-3.60207e-05,-5.94953e-06,-2.18157e-06,-3.73658e-06,4.87054e-06,-1.45529e-05,1.46028e-05,-1.67036e-06,0
-3.53735e-05,1.09407e-05,-4.23833e-06,-1.77313e-06,6.80129e-06,-1.57066e-05,1.19541e-05,-1.73641e-06,0
-3.56248e-05,2.47428e-05,-7.77419e-06,-6.84134e-08,9.85763e-06,-1.73898e-05,1.13361e-05,-2.79763e-06,0
-3.62726e-05,3.03245e-05,-1.21459e-05,7.71836e-07,1.3234e-05,-2.00478e-05,1.16196e-05,-4.18218e-06,0
-3.67791e-05,2.7472e-05,-1.71087e-05,-6.13158e-08,1.58479e-05,-2.18502e-05,1.21761e-05,-4.67776e-06,0
-3.55214e-05,1.89695e-05,-2.05553e-05,-3.40399e-06,1.60407e-05,-2.17842e-05,1.266e-05,-4.4649e-06,0
-3.19495e-05,5.36465e-06,-2.11477e-05,-6.12061e-06,1.40739e-05,-2.04707e-05,1.25065e-05,-4.72915e-06,0
-3.04462e-05,-1.08163e-05,-2.20957e-05,-3.97781e-06,1.55611e-05,-1.80987e-05,1.08182e-05,-2.94221e-06,0
-3.25647e-05,-2.20346e-05,-2.4586e-05,-1.52269e-06,2.27921e-05,-1.69497e-05,8.74252e-06,1.98289e-06,0
-3.54874e-05,-2.74063e-05,-2.68274e-05,-3.14054e-06,3.03931e-05,-1.69575e-05,7.32171e-06,5.41228e-06,0
-3.71538e-05,-2.8885e-05,-2.77063e-05,-5.14814e-06,3.32891e-05,-1.72102e-05,5.28814e-06,4.32514e-06,0
-3.70392e-05,-2.32182e-05,-2.51343e-05,-3.4202e-06,2.84386e-05,-1.96183e-05,2.97481e-06,1.40042e-06,0
-3.60141e-05,-1.21588e-05,-2.02986e-05,-9.87181e-07,2.01391e-05,-2.05197e-05,3.45614e-06,-9.2855e-07,0
-3.42698e-05,-3.45818e-06,-1.56769e-05,-2.28724e-06,1.44488e-05,-1.8702e-05,5.92392e-06,-1.92857e-06,0
-3.3163e-05,-1.33789e-06,-1.24808e-05,-8.27557e-06,9.72149e-06,-1.85047e-05,5.75842e-06,-1.8521e-06,0
-3.36374e-05,-2.8258e-06,-1.14946e-05,-1.65676e-05,2.41983e-06,-1.85494e-05,3.09707e-06,-1.46437e-06,0
-3.42455e-05,-4.20971e-06,-1.15028e-05,-2.10027e-05,-6.4044e-06,-1.90519e-05,1.08938e-06,-7.73613e-07,0
-3.52725e-05,-4.73105e-06,-1.2677e-05,-2.023e-05,-1.57503e-05,-2.0114e-05,1.23998e-06,-1.11097e-06,0
-3.64561e-05,-5.42039e-06,-1.42046e-05,-1.80591e-05,-2.1866e-05,-2.12136e-05,2.56805e-06,-7.80729e-07,0
-3.64663e-05,-6.1705e-06,-1.41075e-05,-1.54523e-05,-1.32063e-05,-2.14272e-05,2.57913e-06,7.19216e-07,0
-3.65148e-05,-5.79071e-06,-1.2232e-05,-1.15276e-05,5.2928e-06,-2.0695e-05,1.9176e-06,2.68424e-06,0
-3.73581e-05,-1.48782e-06,-1.14062e-05,-7.14807e-06,1.30966e-05,-2.0271e-05,1.77395e-06,4.07309e-06,0
-3.81099e-05,9.0519e-06,-1.25759e-05,-3.88487e-06,2.85762e-06,-2.00332e-05,1.68042e-06,4.88361e-06,0
-3.74381e-05,2.35626e-05,-1.51425e-05,-2.80155e-06,-1.47341e-05,-1.86969e-05,1.87118e-06,5.76229e-06,0
-3.53142e-05,3.74883e-05,-1.7266e-05,-3.39673e-06,-2.93459e-05,-1.58743e-05,3.69338e-06,6.65535e-06,0
-3.25923e-05,4.57374e-05,-1.6961e-05,-3.64373e-06,-3.78738e-05,-1.42e-05,6.67375e-06,6.49058e-06,0
-3.07365e-05,4.7505e-05,-1.51049e-05,-3.01414e-06,-3.20502e-05,-1.37016e-05,7.3729e-06,4.78581e-06,0
-2.96462e-05,4.50894e-05,-1.24007e-05,-2.62864e-06,1.86411e-06,-1.42261e-05,6.14415e-06,3.58057e-06,0
-2.87468e-05,4.11607e-05,-7.71672e-06,-2.64956e-06,5.73226e-05,-1.49176e-05,6.05823e-06,3.00729e-06,0
-2.85457e-05,3.61476e-05,-1.17426e-06,-2.13302e-06,9.77615e-05,-1.44881e-05,8.00863e-06,3.28564e-06,0
-2.98994e-05,2.87277e-05,4.08042e-06,-1.68459e-06,9.47953e-05,-1.28894e-05,9.32177e-06,4.18429e-06,0
-3.14384e-05,1.89693e-05,5.42923e-06,-2.66387e-06,4.69977e-05,-8.98285e-06,9.80828e-06,4.7004e-06,0
-3.03308e-05,8.37886e-06,3.95452e-06,-4.03535e-06,-1.68669e-05,-2.6964e-06,1.06135e-05,3.70338e-06,0
-2.81943e-05,9.47115e-08,3.87252e-06,-3.9876e-06,-4.41319e-05,2.40183e-06,1.13509e-05,3.85448e-06,0
-2.8348e-05,-5.63826e-06,4.76385e-06,-3.73708e-06,3.33535e-06,4.69824e-06,1.15753e-05,5.42639e-06,0
-3.04681e-05,-1.00835e-05,4.65095e-06,-5.5893e-06,8.83587e-05,3.81909e-06,1.29235e-05,5.77962e-06,0
-3.26924e-05,-9.99079e-06,4.16679e-06,-6.92823e-06,0.000125996,-2.69969e-07,1.48949e-05,4.14622e-06,0
-3.45135e-05,-2.11827e-06,3.29316e-06,-6.58051e-06,0.000107253,-5.50363e-06,1.57688e-05,2.97189e-06,0
-3.47361e-05,1.03289e-05,1.33436e-06,-7.03734e-06,8.25076e-05,-6.71609e-06,1.83235e-05,3.7225e-06,0
-3.26419e-05,2.20813e-05,-2.64001e-06,-8.76973e-06,6.3748e-05,-5.00054e-06,2.24256e-05,4.39792e-06,0
-3.15158e-05,3.17785e-05,-6.39173e-06,-1.05471e-05,3.49682e-05,-6.20408e-06,2.61386e-05,2.93473e-06,0
-3.22172e-05,3.9981e-05,-6.62711e-06,-1.09567e-05,1.9929e-06,-8.52628e-06,2.67524e-05,1.43301e-07,0
-3.12171e-05,4.63703e-05,-5.88859e-06,-9.49164e-06,-2.42344e-05,-9.44203e-06,2.46669e-05,-1.17583e-06,0
-2.78855e-05,5.1983e-05,-5.19197e-06,-5.45628e-06,-4.15843e-05,-8.21953e-06,2.28677e-05,-2.26163e-06,0
-2.562e-05,6.02233e-05,-4.54118e-06,-1.67201e-06,-4.77205e-05,-5.08236e-06,2.06188e-05,-2.82665e-06,0
-2.65988e-05,6.77957e-05,-4.81922e-06,-1.88327e-06,-3.81082e-05,-2.75005e-06,1.86724e-05,-2.09302e-06,0
-2.95376e-05,6.88358e-05,-7.21692e-06,-4.98071e-06,-1.63133e-05,-3.544e-06,1.73419e-05,-1.83362e-06,0
-3.38853e-05,6.63956e-05,-1.04279e-05,-7.74197e-06,4.2514e-06,-4.76159e-06,1.61965e-05,-3.50631e-06,0
-3.68951e-05,6.54952e-05,-1.24151e-05,-8.31853e-06,1.37853e-05,-5.05922e-06,1.59197e-05,-4.88401e-06,0
-3.61405e-05,6.62571e-05,-1.32752e-05,-7.63948e-06,1.2596e-05,-4.65865e-06,1.81142e-05,-4.56935e-06,0
-3.39342e-05,6.41208e-05,-1.3972e-05,-6.53211e-06,1.199e-05,-4.81802e-06,2.21836e-05,-3.69119e-06,0
-3.39024e-05,5.48398e-05,-1.59212e-05,-5.00025e-06,1.86146e-05,-6.25294e-06,2.47291e-05,-2.62516e-06,0
-3.62345e-05,3.86212e-05,-1.81777e-05,-2.47112e-06,2.64561e-05,-7.92884e-06,2.48322e-05,-2.41723e-06,0
-3.7925e-05,2.11712e-05,-1.96381e-05,1.44531e-06,2.48666e-05,-8.89422e-06,2.41294e-05,-3.3163e-06,0
-3.75781e-05,8.02349e-06,-1.89977e-05,4.91677e-06,1.65075e-05,-8.70928e-06,2.29861e-05,-4.55398e-06,0
-3.6803e-05,-1.69492e-06,-1.70626e-05,4.69965e-06,8.08392e-06,-8.2431e-06,1.98445e-05,-4.61657e-06,0
-3.70873e-05,-8.80222e-06,-1.53611e-05,2.21686e-07,2.27799e-06,-7.27461e-06,1.38568e-05,-3.37803e-06,0
-3.83033e-05,-1.06413e-05,-1.42468e-05,-5.28867e-06,-1.38034e-06,-3.88303e-06,4.86478e-06,-2.0297e-06,0
-4.11855e-05,-7.54984e-06,-1.2853e-05,-9.42888e-06,-1.27151e-06,1.15415e-06,-3.28072e-06,-2.47474e-06,0
-4.34429e-05,-3.03111e-06,-1.26339e-05,-1.22317e-05,1.78624e-06,3.10226e-06,-8.40017e-06,-4.79241e-06,0
-4.23101e-05,7.09371e-07,-1.25818e-05,-1.06463e-05,3.93236e-06,2.33228e-06,-1.25781e-05,-4.86817e-06,0
-3.86031e-05,5.29439e-06,-1.27743e-05,-2.80405e-06,3.48616e-06,1.05168e-06,-1.62717e-05,-1.29737e-06,0
-3.4432e-05,8.27818e-06,-1.33442e-05,6.06191e-06,1.01613e-06,-7.21382e-08,-2.40235e-05,1.46357e-06,0
-3.02277e-05,6.54303e-06,-1.14165e-05,1.43734e-05,2.06426e-06,-1.8848e-06,-3.32405e-05,4.57102e-07,0
-2.66633e-05,2.25757e-06,-8.30586e-06,1.67929e-05,5.7726e-06,-5.05292e-06,-2.79636e-05,-1.38071e-06,0
-2.60918e-05,-2.46073e-06,-5.76981e-06,1.25506e-05,8.58673e-06,-8.21227e-06,-9.12847e-06,-1.05007e-06,0
-2.79763e-05,-8.05077e-06,-4.87164e-06,8.67953e-06,9.35295e-06,-1.00038e-05,8.13815e-06,-4.74924e-07,0
-3.00007e-05,-9.8478e-06,-5.38204e-06,5.67635e-06,9.4753e-06,-1.50359e-05,1.32345e-05,-1.72674e-06,0
-3.01995e-05,-1.56313e-06,-5.01369e-06,5.73396e-06,1.0192e-05,-3.06998e-05,5.33972e-06,-3.52751e-06,0
-2.78516e-05,1.01663e-05,-3.96115e-06,6.36229e-06,1.01986e-05,-4.88183e-05,-2.7582e-06,-3.34924e-06,0
-2.42695e-05,1.52296e-05,-5.21779e-06,5.80058e-06,1.08639e-05,-4.37944e-05,-1.60672e-06,-7.91983e-07,0
-2.32952e-05,9.45235e-06,-9.05222e-06,6.51554e-06,1.14047e-05,-1.09921e-05,7.49102e-06,1.48499e-06,0
-2.62321e-05,-1.87763e-06,-1.25787e-05,7.82562e-06,1.04489e-05,1.65696e-05,1.8316e-05,2.29136e-06,0
-2.91414e-05,-1.22573e-05,-1.30001e-05,7.36454e-06,9.29644e-06,1.78759e-05,2.50466e-05,2.25779e-06,0
-2.8808e-05,-1.6502e-05,-1.0752e-05,4.55007e-06,9.03192e-06,5.24334e-06,2.53715e-05,1.20864e-06,0
-2.70682e-05,-1.56493e-05,-8.69232e-06,1.22635e-06,9.72221e-06,-3.54422e-06,2.33688e-05,-9.92539e-07,0
-2.7433e-05,-1.40942e-05,-7.85135e-06,-2.76252e-07,1.06278e-05,-4.24245e-06,2.28276e-05,-2.40857e-06,0
-3.05978e-05,-1.38743e-05,-7.8147e-06,3.72594e-07,1.16654e-05,-1.52316e-06,2.32271e-05,-2.12906e-06,0
-3.38207e-05,-1.71287e-05,-9.1824e-06,8.20781e-07,1.18992e-05,1.55131e-07,2.47136e-05,-1.10743e-06,0
-3.46381e-05,-2.30856e-05,-1.1044e-05,3.58357e-07,1.09894e-05,-2.14291e-07,2.67328e-05,8.67316e-08,0
-3.41703e-05,-2.76277e-05,-1.10154e-05,3.6038e-07,9.45628e-06,-1.71177e-06,2.59106e-05,1.31193e-06,0
-3.329e-05,-2.47667e-05,-9.38491e-06,8.70936e-07,7.97914e-06,-4.1903e-06,1.98713e-05,2.24284e-06,0
-3.22892e-05,-1.52835e-05,-8.52032e-06,3.76952e-07,6.53026e-06,-6.53689e-06,1.27022e-05,2.35416e-06,0
-3.14519e-05,-4.02618e-06,-8.51255e-06,3.98555e-08,6.32748e-06,-7.76735e-06,1.05685e-05,1.69476e-06,0
-3.0079e-05,4.85455e-06,-8.98699e-06,5.32344e-07,7.74722e-06,-8.88396e-06,1.4285e-05,7.36606e-07,0
-2.81936e-05,9.7013e-06,-9.15904e-06,3.06044e-07,1.22014e-05,-1.08314e-05,1.7715e-05,1.80859e-07,0
-2.81409e-05,9.62394e-06,-6.11695e-06,-1.66852e-06,1.72911e-05,-1.14016e-05,1.72862e-05,7.91946e-07,0
-2.99228e-05,6.33527e-06,-1.64932e-06,-3.84597e-06,1.91952e-05,-9.44283e-06,1.54964e-05,1.75934e-06,0
-3.05087e-05,3.71014e-06,-2.43371e-07,-3.17384e-06,1.90882e-05,-5.98769e-06,1.36541e-05,2.53296e-06,0
-2.9092e-05,4.56218e-06,-1.45068e-06,-1.70868e-06,1.90202e-05,-3.84186e-06,1.08714e-05,4.58826e-06,0
-2.73239e-05,1.08567e-05,-4.18143e-06,-3.31205e-06,1.99073e-05,-3.87182e-06,8.14366e-06,6.052e-06,0
-2.6953e-05,2.09235e-05,-7.31836e-06,-4.49752e-06,2.10842e-05,-3.98686e-06,6.63508e-06,6.95609e-06,0
-2.70854e-05,3.07995e-05,-1.00773e-05,-2.99442e-06,2.3729e-05,-5.19064e-06,6.89719e-06,7.88973e-06,0
-2.69767e-05,3.67459e-05,-1.07683e-05,-2.05048e-06,2.80109e-05,-6.68302e-06,6.65459e-06,8.693e-06,0
-2.76402e-05,3.73453e-05,-8.55676e-06,-3.93938e-06,3.19066e-05,-7.01e-06,5.76144e-06,1.02753e-05,0
-2.83678e-05,3.53131e-05,-5.62845e-06,-3.67678e-06,3.17429e-05,-6.72352e-06,6.09593e-06,1.10463e-05,0
-2.8649e-05,3.48585e-05,-2.73113e-06,-1.37907e-06,2.65527e-05,-6.4959e-06,7.06065e-06,1.01073e-05,0
-2.90146e-05,3.86595e-05,-9.49947e-07,-9.92471e-07,2.11992e-05,-6.99005e-06,9.0702e-06,6.91712e-06,0
-2.99006e-05,4.19677e-05,-1.64405e-06,-1.16223e-06,1.74688e-05,-7.32603e-06,1.07411e-05,4.93111e-06,0
-3.07892e-05,3.80291e-05,-3.90183e-06,-2.94303e-06,1.28918e-05,-8.65813e-06,1.16221e-05,4.85641e-06,0
-3.11267e-05,2.4501e-05,-5.04607e-06,-5.63447e-06,8.32744e-06,-9.91193e-06,1.18481e-05,4.98875e-06,0
-3.13159e-05,8.32058e-06,-5.04135e-06,-7.23006e-06,4.16384e-06,-9.59497e-06,1.14884e-05,5.58008e-06,0
-3.12251e-05,-3.03047e-06,-5.32272e-06,-7.31157e-06,5.93168e-07,-9.66913e-06,1.09504e-05,5.68685e-06,0
-3.1416e-05,-8.86544e-06,-6.1543e-06,-6.07152e-06,-1.73013e-07,-1.04407e-05,1.02131e-05,5.14469e-06,0
-3.31882e-05,-1.06309e-05,-6.80965e-06,-5.24162e-06,3.19516e-06,-1.08538e-05,1.03431e-05,4.12337e-06,0
-3.59111e-05,-1.06084e-05,-7.07469e-06,-7.75693e-06,8.73128e-06,-1.01464e-05,1.25315e-05,2.70986e-06,0
-3.62968e-05,-9.43703e-06,-6.91648e-06,-1.09928e-05,9.85124e-06,-1.02191e-05,1.50111e-05,4.54408e-07,0
-3.32504e-05,-7.43324e-06,-6.6973e-06,-1.09546e-05,1.87738e-06,-1.04254e-05,1.48881e-05,-1.0077e-06,0
-2.99132e-05,-3.4768e-06,-6.02974e-06,-8.90262e-06,-1.22288e-05,-9.46649e-06,1.30538e-05,-5.93833e-07,0
-2.95628e-05,1.05986e-06,-4.11706e-06,-7.39981e-06,-2.29118e-05,-9.92687e-06,1.13615e-05,4.2756e-07,0
-3.1856e-05,6.57758e-06,-1.15339e-06,-6.13192e-06,-2.37996e-05,-1.26593e-05,9.875e-06,8.22557e-07,0
-3.44594e-05,1.40047e-05,1.29079e-06,-5.28017e-06,-1.69712e-05,-1.49367e-05,9.236e-06,4.85565e-07,0
-3.52062e-05,2.19318e-05,1.20487e-06,-5.02723e-06,-5.9002e-06,-1.6819e-05,9.78094e-06,-1.23447e-06,0
-3.30327e-05,2.91339e-05,-1.11369e-06,-5.52798e-06,7.89201e-06,-2.00677e-05,1.18074e-05,-2.78948e-06,0
-3.01397e-05,3.2547e-05,-5.08472e-06,-6.59293e-06,1.78367e-05,-2.68797e-05,1.35563e-05,-1.39166e-06,0
-2.79342e-05,3.02753e-05,-8.12349e-06,-7.37517e-06,1.96778e-05,-3.49994e-05,1.29212e-05,2.22632e-06,0
-2.54253e-05,2.79131e-05,-8.75447e-06,-8.73429e-06,2.22759e-05,-3.53189e-05,1.15811e-05,4.39363e-06,0
-2.265e-05,2.82393e-05,-8.43377e-06,-1.09398e-05,3.39585e-05,-2.8405e-05,1.03271e-05,4.47875e-06,0
-2.18024e-05,2.60919e-05,-8.49056e-06,-1.17548e-05,4.69327e-05,-2.30054e-05,9.76719e-06,2.99297e-06,0
-2.34074e-05,1.87941e-05,-8.48336e-06,-9.91604e-06,5.16393e-05,-2.07798e-05,9.85934e-06,1.89875e-07,0
-2.41259e-05,9.85124e-06,-8.94041e-06,-7.97164e-06,4.81726e-05,-1.7683e-05,9.92113e-06,-1.60326e-06,0
-2.37939e-05,5.02605e-06,-9.71982e-06,-7.32613e-06,3.68535e-05,-1.3931e-05,1.0825e-05,-2.83232e-06,0
-2.4648e-05,6.61271e-06,-9.12229e-06,-8.56464e-06,2.14215e-05,-1.18229e-05,1.18266e-05,-1.81004e-06,0
-2.62739e-05,1.00041e-05,-8.11849e-06,-1.03332e-05,5.31447e-06,-1.04523e-05,1.27259e-05,-3.87911e-08,0
-2.6092e-05,1.13555e-05,-8.37377e-06,-1.0963e-05,-6.6065e-06,-7.24989e-06,1.37896e-05,-2.05865e-07,0
-2.48309e-05,1.20633e-05,-1.0161e-05,-9.72049e-06,-1.05871e-05,-5.26463e-06,1.31157e-05,-7.15111e-07,0
-2.5254e-05,1.37438e-05,-1.12949e-05,-8.72681e-06,-1.04283e-05,-6.47383e-06,1.20012e-05,6.53748e-08,0
-2.78745e-05,1.52474e-05,-1.10672e-05,-8.70153e-06,-1.03107e-05,-9.12903e-06,1.17582e-05,2.11583e-06,0
-3.01647e-05,1.5193e-05,-1.05556e-05,-8.66862e-06,-9.15042e-06,-1.24213e-05,1.15882e-05,2.78368e-06,0
-3.03023e-05,1.43126e-05,-1.08085e-05,-1.01584e-05,-4.75102e-06,-1.638e-05,1.09478e-05,9.01181e-07,0
-2.95549e-05,1.44735e-05,-1.05856e-05,-1.18986e-05,-7.68787e-08,-1.96965e-05,1.04182e-05,-1.47662e-06,0
-2.86891e-05,1.6342e-05,-9.11772e-06,-1.18502e-05,2.15192e-06,-1.98156e-05,1.05262e-05,-1.73956e-06,0
-2.78125e-05,1.78121e-05,-7.69787e-06,-1.01407e-05,1.72911e-06,-1.78672e-05,1.18382e-05,-4.676e-07,0
-2.67552e-05,1.77114e-05,-7.41622e-06,-7.62165e-06,1.1344e-06,-1.56263e-05,1.42623e-05,-5.20621e-08,0
-2.60664e-05,1.7388e-05,-8.03199e-06,-4.56834e-06,3.39843e-06,-1.37498e-05,1.56112e-05,-1.13723e-06,0
-2.56389e-05,1.79446e-05,-9.04793e-06,-3.14772e-06,9.23336e-06,-1.13468e-05,1.50652e-05,-1.30426e-06,0
-2.5522e-05,1.82425e-05,-1.11135e-05,-4.89283e-06,1.6235e-05,-8.50298e-06,1.38214e-05,4.56396e-07,0
-2.55777e-05,1.83047e-05,-1.17448e-05,-7.85732e-06,2.27075e-05,-6.97037e-06,1.36829e-05,8.25472e-07,0
-2.59709e-05,1.81994e-05,-8.64282e-06,-9.11146e-06,3.15079e-05,-7.43726e-06,1.20985e-05,-9.38625e-07,0
-2.69745e-05,1.84882e-05,-4.21627e-06,-8.75958e-06,4.69373e-05,-7.71674e-06,4.12764e-06,-9.3286e-07,0
-2.90427e-05,1.79576e-05,-2.39801e-06,-9.5217e-06,6.17177e-05,-6.95818e-06,-6.55293e-06,1.75394e-06,0
-3.08805e-05,1.70527e-05,-2.86857e-06,-1.142e-05,6.24698e-05,-6.38687e-06,-8.87223e-06,4.03582e-06,0
-3.01685e-05,1.76562e-05,-3.77065e-06,-1.03893e-05,5.02083e-05,-6.83003e-06,-1.88265e-06,5.66836e-06,0
-2.86066e-05,1.99791e-05,-5.86336e-06,-6.69144e-06,3.45095e-05,-6.93045e-06,8.16906e-06,7.2251e-06,0
-2.83359e-05,2.19456e-05,-6.76297e-06,-4.34684e-06,1.91663e-05,-6.83652e-06,1.85646e-05,6.12846e-06,0
-2.97102e-05,2.07061e-05,-5.19214e-06,-5.1286e-06,9.53239e-06,-6.00237e-06,2.57659e-05,3.29284e-06,0
-3.13876e-05,1.8537e-05,-5.21127e-06,-6.57493e-06,6.2939e-06,-4.11691e-06,2.93712e-05,5.9399e-07,0
-3.11006e-05,1.83646e-05,-7.42398e-06,-6.21454e-06,1.46444e-06,-3.54818e-06,3.05508e-05,-7.16425e-07,0
-3.08955e-05,1.8762e-05,-1.02438e-05,-5.7688e-06,-2.12265e-05,-5.6361e-06,2.91726e-05,-5.28222e-09,0
-3.22697e-05,1.88872e-05,-1.17034e-05,-5.57453e-06,-7.57807e-05,-1.03983e-05,2.72744e-05,1.43222e-06,0
-3.26852e-05,1.96416e-05,-1.09427e-05,-5.98303e-06,-0.000122814,-1.34318e-05,2.46592e-05,8.47531e-07,0
-3.1189e-05,2.14337e-05,-9.09959e-06,-6.23197e-06,-0.000114268,-1.2577e-05,2.19229e-05,-1.63382e-06,0
-3.00953e-05,2.34015e-05,-7.564e-06,-6.8777e-06,-7.06843e-05,-1.11624e-05,1.81156e-05,-3.59526e-06,0
-2.97388e-05,2.43573e-05,-6.76245e-06,-7.07495e-06,-2.45483e-05,-1.07692e-05,1.43886e-05,-5.62744e-06,0
-2.87865e-05,2.50519e-05,-6.87603e-06,-5.96615e-06,2.50125e-05,-1.00151e-05,1.18228e-05,-6.99459e-06,0
-2.90433e-05,2.51729e-05,-8.46599e-06,-4.56733e-06,7.11443e-05,-8.76349e-06,9.91562e-06,-6.34064e-06,0
-3.03125e-05,2.42548e-05,-1.06465e-05,-3.36827e-06,8.91259e-05,-7.71431e-06,9.01024e-06,-4.48642e-06,0
-3.11256e-05,2.24767e-05,-1.16855e-05,-1.4731e-06,6.64893e-05,-8.48712e-06,7.12805e-06,-3.92842e-06,0
-3.15478e-05,2.08165e-05,-1.15745e-05,1.2886e-06,2.39385e-05,-1.06903e-05,4.11231e-06,-3.84468e-06,0
-3.22794e-05,2.03506e-05,-1.19546e-05,2.5912e-06,-2.76544e-06,-1.22137e-05,1.88158e-06,-3.45449e-06,0
-3.23937e-05,2.17673e-05,-1.2542e-05,2.77171e-06,5.39184e-06,-1.15111e-05,2.59044e-06,-3.82483e-06,0
-3.13174e-05,2.35681e-05,-1.24772e-05,1.24329e-06,3.07344e-05,-1.01868e-05,3.4904e-06,-4.05153e-06,0
-3.05876e-05,2.38556e-05,-1.17632e-05,-3.05064e-06,3.94113e-05,-1.15633e-05,3.64235e-06,-2.63759e-06,0
-3.20617e-05,2.31921e-05,-1.11624e-05,-8.66417e-06,3.08075e-05,-1.51538e-05,4.70759e-06,-1.37527e-06,0
-3.50979e-05,2.22717e-05,-1.20879e-05,-1.23573e-05,3.37685e-05,-1.78746e-05,7.86739e-06,-2.1843e-06,0
-3.73689e-05,2.03919e-05,-1.45906e-05,-1.21064e-05,6.06386e-05,-1.86223e-05,1.0361e-05,-3.85035e-06,0
-3.81925e-05,1.79865e-05,-1.51262e-05,-8.70666e-06,8.75046e-05,-1.84391e-05,1.02652e-05,-4.31363e-06,0
-3.69699e-05,1.54555e-05,-1.20574e-05,-6.1494e-06,9.05631e-05,-1.71806e-05,9.18848e-06,-2.78867e-06,0
-3.44043e-05,1.32973e-05,-8.69158e-06,-7.03521e-06,7.73543e-05,-1.52661e-05,8.12574e-06,-7.28835e-07,0
-3.21766e-05,1.15352e-05,-8.2704e-06,-1.1102e-05,6.342e-05,-1.51026e-05,9.52433e-06,1.61777e-06,0
-3.10729e-05,1.13129e-05,-1.0128e-05,-1.40558e-05,5.31653e-05,-1.89788e-05,1.36205e-05,2.9214e-06,0
-3.04851e-05,1.64386e-05,-1.07635e-05,-1.16714e-05,4.35285e-05,-2.50867e-05,1.73596e-05,2.8047e-06,0
-2.84581e-05,2.324e-05,-8.32453e-06,-5.7379e-06,2.98579e-05,-2.93228e-05,1.82299e-05,2.0963e-06,0
-2.67582e-05,2.63962e-05,-4.46566e-06,-4.63708e-07,1.35801e-05,-3.26561e-05,1.84119e-05,6.77998e-07,0
-2.77009e-05,2.42987e-05,-2.41369e-06,-1.36403e-07,-6.55811e-08,-3.11797e-05,1.97354e-05,6.95169e-07,0
-2.93132e-05,1.73355e-05,-2.55096e-06,-4.35633e-06,-1.00449e-05,-1.23462e-05,2.07253e-05,2.09022e-06,0
-3.06729e-05,8.55909e-06,-3.25856e-06,-8.12698e-06,-2.00557e-05,1.67465e-05,1.90267e-05,3.38758e-06,0
-3.06863e-05,8.6772e-07,-4.98168e-06,-1.07569e-05,-2.88841e-05,3.0062e-05,1.59666e-05,3.19935e-06,0
-3.06891e-05,-3.66426e-06,-6.8108e-06,-1.34215e-05,-3.4245e-05,1.91305e-05,1.50901e-05,2.349e-06,0
-3.19372e-05,-7.04554e-06,-7.81161e-06,-1.57601e-05,-3.76584e-05,1.85638e-06,1.50138e-05,2.70476e-06,0
-3.18278e-05,-1.1157e-05,-7.77721e-06,-1.63106e-05,-4.23283e-05,-8.46776e-06,1.53901e-05,3.66384e-06,0
-3.0846e-05,-1.41e-05,-7.71613e-06,-1.43194e-05,-4.66656e-05,-1.18777e-05,1.5549e-05,4.06759e-06,0
-3.15129e-05,-1.5344e-05,-7.82031e-06,-1.16194e-05,-4.49883e-05,-1.06983e-05,1.4757e-05,2.76354e-06,0
-3.32123e-05,-1.60141e-05,-7.7112e-06,-8.61169e-06,-3.27687e-05,-8.99244e-06,1.45039e-05,9.27186e-07,0
-3.31575e-05,-1.51434e-05,-7.1611e-06,-5.82128e-06,-9.77766e-06,-8.76977e-06,1.49061e-05,9.13059e-07,0
-3.26135e-05,-1.1525e-05,-6.52078e-06,-4.2008e-06,1.754e-05,-9.95635e-06,1.43189e-05,3.87106e-06,0
-3.29338e-05,-6.38451e-06,-6.81781e-06,-3.41381e-06,3.76792e-05,-1.0259e-05,1.35032e-05,6.88502e-06,0
-3.25758e-05,-2.07408e-06,-7.10678e-06,-1.47e-06,4.40252e-05,-9.15661e-06,1.48044e-05,7.35775e-06,0
-3.09172e-05,-3.61132e-07,-6.65292e-06,3.87393e-06,4.45867e-05,-7.7567e-06,1.73028e-05,6.07892e-06,0
-2.90168e-05,4.88303e-07,-5.58082e-06,1.2426e-05,4.97869e-05,-6.96723e-06,1.94254e-05,4.57233e-06,0
-2.81671e-05,5.31079e-06,-5.83108e-06,1.97743e-05,5.75848e-05,-6.05954e-06,1.95646e-05,3.57101e-06,0
-2.82475e-05,1.37283e-05,-6.71864e-06,2.22906e-05,5.57914e-05,-4.06198e-06,1.78807e-05,3.27135e-06,0
-2.90893e-05,1.92344e-05,-6.41231e-06,2.02807e-05,4.37488e-05,-1.19651e-06,1.5721e-05,2.53207e-06,0
-2.98368e-05,1.9599e-05,-5.26565e-06,1.58001e-05,3.48312e-05,1.10028e-06,1.55233e-05,1.80929e-06,0
-2.96646e-05,1.65739e-05,-5.41381e-06,1.15364e-05,3.69272e-05,1.85035e-06,1.67102e-05,1.8768e-06,0
-2.8824e-05,1.10144e-05,-7.28457e-06,1.04999e-05,4.27761e-05,2.39689e-06,1.78941e-05,1.77619e-06,0
-2.62581e-05,3.2899e-06,-9.01488e-06,1.3349e-05,4.18248e-05,1.48314e-06,1.86738e-05,1.45727e-06,0
-2.34378e-05,-3.15999e-06,-9.10914e-06,1.49878e-05,3.41731e-05,-1.44727e-06,1.91939e-05,1.54971e-06,0
-2.2422e-05,-5.46411e-06,-8.88535e-06,1.00954e-05,2.75561e-05,-3.12322e-06,1.88424e-05,2.05272e-06,0
-2.23795e-05,-6.12324e-06,-7.33037e-06,1.4236e-06,2.38672e-05,-1.36554e-06,1.93856e-05,2.90868e-06,0
-2.40899e-05,-8.28345e-06,-3.80788e-06,-8.47913e-06,1.95006e-05,-4.0794e-07,2.42707e-05,3.74533e-06,0
-2.5669e-05,-1.02807e-05,-2.84214e-06,-2.00555e-05,1.54795e-05,-1.46935e-06,3.0669e-05,2.2858e-06,0
-2.58439e-05,-8.83688e-06,-4.80783e-06,-3.12054e-05,1.46246e-05,-1.83311e-06,3.41821e-05,9.89324e-07,0
-2.61889e-05,-2.47697e-06,-5.59759e-06,-3.61056e-05,1.61107e-05,-1.61132e-06,3.33092e-05,9.83226e-07,0
-2.47944e-05,6.80517e-06,-5.1384e-06,-3.10124e-05,1.52004e-05,-2.55264e-06,3.00456e-05,-4.98046e-07,0
-2.22047e-05,1.17242e-05,-5.36996e-06,-2.21771e-05,1.0593e-05,-4.7488e-06,2.44652e-05,-3.01689e-06,0
-2.1981e-05,1.15814e-05,-5.35068e-06,-1.54797e-05,5.98333e-06,-5.57333e-06,1.7962e-05,-3.32447e-06,0
-2.31806e-05,9.59735e-06,-4.63978e-06,-1.0233e-05,4.38318e-06,-4.87374e-06,1.10554e-05,-2.03563e-06,0
-2.46299e-05,8.31968e-06,-3.91088e-06,-4.24641e-06,6.57157e-06,-4.77241e-06,-2.55856e-06,-1.01906e-06,0
-2.74793e-05,8.92584e-06,-3.62251e-06,1.27868e-07,1.06307e-05,-6.21194e-06,-2.29923e-05,-6.16774e-07,0
-3.2848e-05,9.68731e-06,-3.5124e-06,-1.43902e-06,1.33196e-05,-8.65875e-06,-3.90199e-05,-1.41541e-06,0
-3.85658e-05,9.08485e-06,-3.961e-06,-7.76883e-06,1.19144e-05,-1.23203e-05,-4.28144e-05,-2.26187e-06,0
-4.0252e-05,7.15958e-06,-4.90479e-06,-1.39565e-05,7.02019e-06,-1.48871e-05,-3.61612e-05,-2.904e-06,0
-3.68196e-05,4.57525e-06,-5.53319e-06,-1.57046e-05,1.23234e-06,-1.35232e-05,-2.29939e-05,-3.0394e-06,0
-3.25675e-05,3.44203e-07,-5.26556e-06,-1.22395e-05,-2.51061e-06,-9.52243e-06,-6.4255e-06,-2.60917e-06,0
-3.14741e-05,-4.3414e-06,-4.99019e-06,-7.78777e-06,-1.3638e-06,-5.69579e-06,8.31844e-06,-2.53597e-06,0
-3.23215e-05,-8.84724e-06,-6.41342e-06,-6.22178e-06,3.77577e-06,-3.98324e-06,1.69774e-05,-3.9377e-06,0
-3.32771e-05,-1.1355e-05,-1.02043e-05,-7.46544e-06,9.00144e-06,-4.70002e-06,2.17128e-05,-5.03558e-06,0
-3.41009e-05,-8.54757e-06,-1.50625e-05,-9.77017e-06,1.11894e-05,-5.69963e-06,2.6816e-05,-4.99844e-06,0
-3.64783e-05,-1.59738e-06,-1.78846e-05,-1.25814e-05,1.07593e-05,-5.74337e-06,3.2777e-05,-4.82641e-06,0
-3.91131e-05,5.47088e-06,-1.60844e-05,-1.50125e-05,1.11251e-05,-5.92675e-06,3.58863e-05,-4.47609e-06,0
-3.71591e-05,1.10754e-05,-1.13215e-05,-1.40886e-05,1.29802e-05,-6.35559e-06,3.51062e-05,-4.13671e-06,0
-3.0646e-05,1.40356e-05,-8.37281e-06,-8.89244e-06,1.21185e-05,-6.70962e-06,3.40051e-05,-4.31718e-06,0
-2.47749e-05,1.44309e-05,-9.19338e-06,-5.12553e-06,6.55138e-06,-8.15877e-06,3.47322e-05,-3.3259e-06,0
-2.07166e-05,1.2064e-05,-1.16493e-05,-6.29755e-06,4.22818e-07,-1.11062e-05,3.66913e-05,9.36501e-07,0
-1.62926e-05,8.048e-06,-1.25406e-05,-7.57105e-06,4.75393e-07,-1.34411e-05,3.78002e-05,5.25447e-06,0
-1.20725e-05,6.27282e-06,-1.03559e-05,-6.22051e-06,5.64363e-06,-1.47721e-05,3.72143e-05,4.45391e-06,0
-1.01993e-05,6.97256e-06,-6.96915e-06,-4.14315e-06,9.81402e-06,-1.89482e-05,3.63883e-05,2.30972e-06,0
-1.26291e-05,7.58486e-06,-4.34199e-06,-2.80359e-06,1.02225e-05,-2.26588e-05,3.54828e-05,2.60451e-06,0
-2.08516e-05,7.72465e-06,-4.67696e-06,-1.74171e-06,9.00831e-06,-1.68606e-05,3.30733e-05,2.2086e-06,0
-3.46457e-05,7.74667e-06,-6.76668e-06,-1.91259e-06,1.13955e-05,-9.69783e-06,2.93196e-05,2.30833e-06,0
-4.85061e-05,5.12491e-06,-7.6384e-06,-4.19254e-06,1.74473e-05,-1.38691e-05,2.53737e-05,3.10946e-06,0
-5.55046e-05,7.17003e-07,-7.43417e-06,-7.57509e-06,2.1225e-05,-2.29094e-05,2.04851e-05,3.68843e-06,0
-5.32473e-05,-2.77393e-07,-6.47935e-06,-9.40003e-06,2.02839e-05,-2.44043e-05,1.56582e-05,4.91785e-06,0
-4.46534e-05,3.96074e-06,-6.59876e-06,-8.22882e-06,1.80788e-05,-1.8666e-05,1.20502e-05,7.08146e-06,0
-3.7641e-05,7.93e-06,-6.97944e-06,-3.48077e-06,1.77489e-05,-1.34328e-05,9.63285e-06,7.80537e-06,0
-3.6307e-05,8.80646e-06,-6.63476e-06,2.82445e-06,2.05739e-05,-1.23246e-05,9.40382e-06,7.29431e-06,0
-3.82638e-05,7.96329e-06,-5.9093e-06,3.90051e-06,2.02896e-05,-1.38344e-05,1.07331e-05,6.44789e-06,0
-3.95859e-05,7.41652e-06,-5.88531e-06,-7.67882e-09,1.23707e-05,-1.5373e-05,1.15421e-05,5.8429e-06,0
-3.91766e-05,7.92598e-06,-7.62927e-06,-2.95311e-06,2.20945e-06,-1.44087e-05,9.14411e-06,6.43834e-06,0
-3.83239e-05,8.81175e-06,-1.04561e-05,-3.33329e-06,-1.89296e-06,-1.13527e-05,1.99348e-06,7.26558e-06,0
-3.78832e-05,1.08055e-05,-1.14472e-05,-3.93508e-06,3.37811e-06,-9.61067e-06,-6.95741e-06,7.60993e-06,0
-3.64002e-05,1.33594e-05,-8.5197e-06,-4.68188e-06,1.39098e-05,-9.37654e-06,-1.00455e-05,6.99372e-06,0
-3.40021e-05,1.50485e-05,-4.16064e-06,-4.96659e-06,2.24052e-05,-8.53731e-06,-5.0391e-06,5.43527e-06,0
-3.33248e-05,1.54372e-05,-1.9547e-06,-8.04904e-06,2.49485e-05,-6.25997e-06,2.86932e-06,3.76734e-06,0
-3.33098e-05,1.66374e-05,-3.53568e-06,-1.49634e-05,2.35436e-05,-4.14269e-06,9.72737e-06,3.96114e-06,0
-3.31139e-05,1.82072e-05,-6.44352e-06,-2.05119e-05,2.08912e-05,-4.86917e-06,1.5365e-05,3.8905e-06,0
-3.1963e-05,1.65304e-05,-7.74393e-06,-2.00852e-05,1.9512e-05,-8.3539e-06,1.934e-05,1.17213e-06,0
-3.00358e-05,1.20781e-05,-7.88888e-06,-1.23362e-05,1.85731e-05,-1.05399e-05,2.03959e-05,-1.66263e-06,0
-2.8162e-05,7.92442e-06,-8.08176e-06,1.67271e-06,1.71448e-05,-8.85282e-06,1.75698e-05,-2.83712e-06,0
-2.69183e-05,5.28045e-06,-8.31583e-06,1.59126e-05,1.45371e-05,-6.01436e-06,1.2354e-05,-4.48105e-06,0
-2.59099e-05,7.66137e-06,-8.00754e-06,2.73097e-05,8.99493e-06,-6.05297e-06,1.09659e-05,-5.62504e-06,0
-2.49577e-05,1.33511e-05,-7.52106e-06,3.45483e-05,1.86519e-06,-8.39257e-06,1.14688e-05,-5.08067e-06,0
-2.56996e-05,1.48927e-05,-7.44501e-06,3.19222e-05,-2.41156e-06,-9.38706e-06,8.70395e-06,-3.39103e-06,0
-2.79716e-05,1.19758e-05,-6.96714e-06,1.87675e-05,-3.9049e-06,-8.33914e-06,4.90643e-06,-2.4434e-06,0
-3.01172e-05,9.22002e-06,-5.63168e-06,2.72848e-06,-4.68319e-06,-6.37258e-06,2.4675e-06,-2.95448e-06,0
-2.947e-05,9.93416e-06,-4.81517e-06,-9.38267e-06,-5.24269e-06,-4.53009e-06,1.8163e-06,-3.97235e-06,0
-2.83213e-05,1.12386e-05,-4.95149e-06,-1.52081e-05,-6.09571e-06,-5.1903e-06,2.20629e-06,-4.35232e-06,0
-2.85788e-05,1.12612e-05,-5.23438e-06,-1.83651e-05,-8.31116e-06,-7.00181e-06,3.98706e-06,-3.37497e-06,0
-2.85843e-05,1.10701e-05,-5.11956e-06,-2.19861e-05,-1.15519e-05,-7.39925e-06,4.7008e-06,-2.37284e-06,0
-2.89266e-05,1.17322e-05,-4.49445e-06,-2.70789e-05,-1.23035e-05,-5.41995e-06,3.27936e-06,-1.61123e-06,0
-2.87733e-05,1.31682e-05,-6.60061e-06,-3.50532e-05,-1.27975e-05,-4.01194e-06,2.40993e-06,5.08013e-07,0
-2.79775e-05,1.47602e-05,-1.02187e-05,-3.97901e-05,-1.39978e-05,-6.24216e-06,2.78105e-06,2.71145e-06,0
-2.81943e-05,1.76522e-05,-1.22426e-05,-3.56398e-05,-1.39407e-05,-1.02265e-05,1.99991e-06,3.39554e-06,0
-2.90126e-05,2.0194e-05,-1.21538e-05,-2.65384e-05,-1.20493e-05,-1.26391e-05,-7.50291e-07,2.9611e-06,0
-2.95071e-05,2.20372e-05,-1.14118e-05,-1.87592e-05,-9.00194e-06,-1.37965e-05,-2.02351e-06,1.8579e-06,0
-2.97149e-05,2.33673e-05,-1.12815e-05,-1.39777e-05,-4.57557e-06,-1.47549e-05,1.19184e-07,2.93578e-06,0
-2.93383e-05,2.42336e-05,-1.15735e-05,-1.07859e-05,1.25764e-06,-1.41758e-05,4.58229e-06,5.45791e-06,0
-2.88021e-05,2.4999e-05,-1.24746e-05,-9.32723e-06,6.05168e-06,-1.19768e-05,8.78929e-06,5.815e-06,0
-2.88748e-05,2.59364e-05,-1.2685e-05,-9.5114e-06,7.44736e-06,-9.59375e-06,1.2526e-05,3.76715e-06,0
-2.91111e-05,2.68072e-05,-1.19641e-05,-9.72102e-06,5.55592e-06,-9.42388e-06,1.55345e-05,2.92141e-06,0
-2.92927e-05,2.66373e-05,-1.07028e-05,-9.24278e-06,5.4162e-06,-1.09954e-05,1.75111e-05,4.37809e-06,0
-2.99761e-05,2.50134e-05,-9.89193e-06,-9.28291e-06,9.22615e-06,-1.31666e-05,1.89962e-05,6.70002e-06,0
-3.08734e-05,2.39842e-05,-9.61222e-06,-1.03898e-05,1.47833e-05,-1.32394e-05,1.96905e-05,7.74323e-06,0
-3.06701e-05,2.44918e-05,-1.00806e-05,-1.13788e-05,2.1243e-05,-1.09514e-05,1.94196e-05,7.35956e-06,0
-2.94637e-05,2.50724e-05,-1.12222e-05,-1.0545e-05,2.6318e-05,-9.00146e-06,1.70199e-05,7.66435e-06,0
-2.85553e-05,2.53611e-05,-1.214e-05,-7.83082e-06,2.62418e-05,-8.8252e-06,1.12838e-05,9.32373e-06,0
-2.77368e-05,2.48368e-05,-1.11738e-05,-5.82431e-06,2.03338e-05,-9.09818e-06,5.35739e-06,1.04278e-05,0
-2.75068e-05,2.63261e-05,-7.72561e-06,-4.42356e-06,1.22401e-05,-8.88768e-06,3.13971e-06,1.08322e-05,0
-2.71389e-05,2.99882e-05,-4.89916e-06,-1.82905e-06,9.40137e-06,-9.58561e-06,4.86232e-06,1.11137e-05,0
-2.65321e-05,3.17481e-05,-5.35995e-06,1.90682e-06,1.56265e-05,-1.02497e-05,7.06185e-06,1.0125e-05,0
-2.71647e-05,2.93822e-05,-6.17226e-06,6.40259e-06,2.67686e-05,-9.96126e-06,7.26707e-06,8.75896e-06,0
-2.75726e-05,2.49716e-05,-6.42881e-06,1.04479e-05,3.12446e-05,-9.39186e-06,7.66626e-06,7.64387e-06,0
-2.73608e-05,2.16461e-05,-5.79398e-06,1.57512e-05,2.24225e-05,-8.48174e-06,7.99038e-06,7.19461e-06,0
-2.84911e-05,1.95483e-05,-4.53222e-06,2.40417e-05,6.1884e-06,-8.60708e-06,6.14241e-06,7.36625e-06,0
-2.89614e-05,1.90852e-05,-4.83904e-06,3.21225e-05,-1.02394e-05,-9.75135e-06,3.082e-06,6.73813e-06,0
-2.7555e-05,2.31428e-05,-4.03308e-06,3.64378e-05,-2.25074e-05,-1.0575e-05,4.79583e-07,6.60912e-06,0
-2.67375e-05,3.32345e-05,-2.38047e-06,3.47397e-05,-2.34922e-05,-1.10612e-05,-1.83558e-06,7.83999e-06,0
-2.69496e-05,4.68452e-05,-2.58507e-06,2.75049e-05,-1.2377e-05,-1.10431e-05,-2.92966e-06,7.66337e-06,0
-2.78398e-05,5.83653e-05,-4.8686e-06,1.79679e-05,2.66578e-06,-1.00722e-05,-2.11036e-06,5.36729e-06,0
-2.87503e-05,6.12765e-05,-7.96001e-06,8.95106e-06,1.36365e-05,-7.69874e-06,4.29538e-07,3.57256e-06,0
-2.97005e-05,5.10195e-05,-1.06401e-05,-8.17703e-07,1.71716e-05,-6.01536e-06,6.66498e-06,4.14502e-06,0
-2.94652e-05,2.92049e-05,-1.30432e-05,-1.39282e-05,1.69459e-05,-5.10276e-06,1.55227e-05,5.08429e-06,0
-2.8461e-05,2.50165e-06,-1.53685e-05,-2.88481e-05,1.80367e-05,-4.02318e-06,2.32571e-05,4.95647e-06,0
-2.82762e-05,-2.26387e-05,-1.65872e-05,-4.15253e-05,2.19433e-05,-3.33228e-06,2.79308e-05,4.29261e-06,0
-2.89492e-05,-4.07483e-05,-1.55292e-05,-4.68146e-05,2.57828e-05,-3.54627e-06,2.90475e-05,3.9369e-06,0
-2.97326e-05,-4.89721e-05,-1.27976e-05,-4.00196e-05,2.80635e-05,-3.6655e-06,2.67336e-05,3.75113e-06,0
-3.07689e-05,-4.7929e-05,-1.1525e-05,-2.49821e-05,2.9032e-05,-4.05966e-06,2.28101e-05,3.07726e-06,0
-3.24683e-05,-3.99115e-05,-1.2861e-05,-1.16407e-05,2.91119e-05,-6.04945e-06,1.91594e-05,2.51212e-06,0
-3.28022e-05,-2.81671e-05,-1.52082e-05,-8.19961e-07,2.86907e-05,-8.31341e-06,1.52086e-05,2.23628e-06,0
-3.11281e-05,-1.74458e-05,-1.64938e-05,1.31488e-05,2.83159e-05,-9.38749e-06,1.08959e-05,9.44657e-07,0
-3.05198e-05,-9.08773e-06,-1.67404e-05,2.64873e-05,2.71439e-05,-1.00988e-05,6.68201e-06,-9.02687e-07,0
-3.17975e-05,-1.86303e-06,-1.76017e-05,3.10393e-05,2.53074e-05,-1.09887e-05,2.79417e-06,-2.16159e-06,0
-3.2067e-05,3.63811e-06,-1.83194e-05,2.3239e-05,2.58303e-05,-1.15772e-05,-6.378e-08,-3.67777e-06,0
-3.1495e-05,6.70763e-06,-1.84648e-05,8.65258e-06,2.69913e-05,-1.09809e-05,-7.73051e-07,-5.41889e-06,0
-3.21933e-05,7.31946e-06,-1.69776e-05,1.09445e-07,2.55682e-05,-8.91858e-06,5.97636e-07,-5.78841e-06,0
-3.22842e-05,7.27528e-06,-1.49624e-05,1.25127e-06,2.62515e-05,-6.79494e-06,3.76567e-06,-5.91274e-06,0
-3.28025e-05,8.65362e-06,-1.46506e-05,5.60707e-06,3.12536e-05,-5.16448e-06,6.7813e-06,-7.59494e-06,0
-3.49226e-05,1.05589e-05,-1.40762e-05,7.26355e-06,3.40268e-05,-5.8679e-06,9.314e-06,-8.05749e-06,0
-3.47191e-05,1.26203e-05,-1.32516e-05,7.98309e-06,3.385e-05,-7.37447e-06,1.17447e-05,-6.78472e-06,0
-3.34595e-05,1.40514e-05,-1.10819e-05,8.1019e-06,3.45412e-05,-6.26816e-06,1.38705e-05,-7.19617e-06,0
-3.1646e-05,1.46e-05,-8.97422e-06,6.09105e-06,3.69109e-05,-2.85592e-06,1.55959e-05,-8.36289e-06,0
-2.83816e-05,1.66252e-05,-9.97479e-06,2.49478e-06,3.85864e-05,-1.04219e-06,1.53996e-05,-7.47156e-06,0
-2.54116e-05,1.79989e-05,-1.2069e-05,-1.15672e-06,3.63622e-05,-2.6428e-06,1.48695e-05,-4.9556e-06,0
-2.4669e-05,1.53494e-05,-1.39702e-05,-3.15043e-06,3.07086e-05,-3.97491e-06,1.46668e-05,-2.4075e-06,0
-2.46905e-05,1.07261e-05,-1.38018e-05,-5.67027e-06,2.25322e-05,-4.26831e-06,1.55232e-05,-1.1134e-06,0
-2.49065e-05,7.79572e-06,-1.1213e-05,-1.04635e-05,1.48539e-05,-5.1603e-06,1.65854e-05,-1.35584e-06,0
-2.58694e-05,8.45165e-06,-9.21236e-06,-1.79241e-05,9.76402e-06,-5.89474e-06,1.7256e-05,-3.00492e-06,0
-2.75551e-05,1.23391e-05,-1.04278e-05,-2.5232e-05,6.79254e-06,-5.55724e-06,1.87963e-05,-4.4348e-06,0
-2.97528e-05,1.69092e-05,-1.38038e-05,-3.03875e-05,4.58398e-06,-5.56622e-06,2.04628e-05,-4.33853e-06,0
-3.18809e-05,1.93455e-05,-1.64349e-05,-3.23701e-05,2.38688e-06,-7.14556e-06,2.0941e-05,-3.3491e-06,0
-3.41016e-05,1.88637e-05,-1.71665e-05,-2.82317e-05,6.35041e-07,-9.80889e-06,2.09114e-05,-1.99226e-06,0
-3.48117e-05,1.60271e-05,-1.71319e-05,-1.59839e-05,-7.26619e-07,-1.18117e-05,2.14394e-05,-8.21958e-07,0
-3.36725e-05,1.34528e-05,-1.77258e-05,4.70815e-07,-1.13653e-06,-1.262e-05,2.20338e-05,-4.90272e-07,0
-3.16011e-05,1.29031e-05,-1.83828e-05,1.34441e-05,-1.25586e-06,-1.31919e-05,2.22156e-05,-5.77357e-07,0
-3.10629e-05,1.42936e-05,-1.80137e-05,2.0312e-05,-1.25837e-06,-1.37488e-05,2.16299e-05,2.73674e-07,0
-3.17407e-05,1.72867e-05,-1.72117e-05,2.32567e-05,-9.78547e-07,-1.41473e-05,2.10458e-05,1.41795e-06,0
-3.19174e-05,1.9653e-05,-1.80377e-05,2.36328e-05,4.72129e-07,-1.39723e-05,2.06544e-05,1.04219e-06,0
-3.10029e-05,2.12938e-05,-1.96475e-05,2.33018e-05,3.32774e-06,-1.38031e-05,1.93529e-05,-7.26347e-07,0
-2.92422e-05,2.37511e-05,-1.85562e-05,2.50821e-05,7.06995e-06,-1.41501e-05,1.71875e-05,-2.0129e-06,0
-2.81095e-05,2.61144e-05,-1.57824e-05,2.69082e-05,1.03589e-05,-1.35981e-05,1.56768e-05,-1.13971e-06,0
-2.87262e-05,2.42884e-05,-1.40455e-05,2.1111e-05,1.13488e-05,-1.24317e-05,1.4764e-05,1.02986e-06,0
-3.07717e-05,2.03485e-05,-1.35426e-05,7.91461e-06,8.94036e-06,-1.33021e-05,1.44727e-05,2.18598e-06,0
-3.34611e-05,1.98324e-05,-1.45929e-05,-7.41146e-06,6.47139e-06,-1.60154e-05,1.46837e-05,-5.52803e-07,0
-3.39647e-05,2.32502e-05,-1.50473e-05,-2.64822e-05,6.30682e-06,-1.75527e-05,1.47025e-05,-3.77928e-06,0
-3.29218e-05,2.74917e-05,-1.29473e-05,-4.81834e-05,8.32906e-06,-1.76306e-05,1.37777e-05,-2.69655e-06,0
-3.28178e-05,2.86645e-05,-9.50972e-06,-6.76036e-05,1.16005e-05,-1.6649e-05,1.27862e-05,-1.32467e-06,0
-3.22158e-05,2.78373e-05,-5.59363e-06,-8.2729e-05,1.3455e-05,-1.49687e-05,1.26645e-05,-2.46887e-06,0
-3.22515e-05,2.68999e-05,-3.40297e-06,-9.13235e-05,1.29029e-05,-1.45537e-05,1.31315e-05,-3.96824e-06,0
-3.22379e-05,2.57077e-05,-3.04581e-06,-8.39963e-05,1.10025e-05,-1.50676e-05,1.39177e-05,-3.96018e-06,0
-3.14828e-05,2.43818e-05,-1.96854e-06,-5.64006e-05,1.12814e-05,-1.45843e-05,1.41155e-05,-4.45361e-06,0
-3.05503e-05,2.41831e-05,-1.48073e-06,-1.55425e-05,1.6655e-05,-1.29546e-05,1.38797e-05,-5.33345e-06,0
-2.87997e-05,2.36421e-05,-1.63068e-06,2.61815e-05,2.63841e-05,-1.14988e-05,1.59668e-05,-5.13815e-06,0
-2.73981e-05,2.1537e-05,-1.57118e-06,6.12986e-05,3.57044e-05,-1.03656e-05,1.82633e-05,-3.84377e-06,0
-2.67059e-05,1.93389e-05,-1.20356e-06,8.78946e-05,4.01665e-05,-9.73553e-06,1.80685e-05,-2.46805e-06,0
-2.57316e-05,1.80372e-05,-2.06362e-07,0.000105382,3.78497e-05,-9.64573e-06,1.72965e-05,-1.76799e-06,0
-2.45941e-05,1.85972e-05,8.35247e-07,0.000112352,3.2405e-05,-9.87255e-06,1.66698e-05,-1.63749e-06,0
-2.51909e-05,1.97911e-05,9.59155e-07,0.000104849,2.78355e-05,-1.02046e-05,1.56018e-05,-2.29407e-06,0
-2.82809e-05,1.88925e-05,-3.1808e-07,8.44376e-05,2.26749e-05,-1.07591e-05,1.28757e-05,-2.24361e-06,0
-3.09811e-05,1.51115e-05,-2.01022e-06,5.82459e-05,1.60723e-05,-1.18337e-05,1.05418e-05,-2.56049e-06,0
-3.20337e-05,1.04318e-05,-3.50814e-06,3.33878e-05,1.16122e-05,-1.33675e-05,9.72578e-06,-3.45875e-06,0
-3.26641e-05,5.87602e-06,-4.63915e-06,1.42065e-05,1.11229e-05,-1.5117e-05,1.044e-05,-4.81254e-06,0
-3.26215e-05,2.0875e-06,-6.05435e-06,4.32354e-06,1.28817e-05,-1.57041e-05,1.17501e-05,-6.01031e-06,0
-3.21119e-05,1.812e-07,-7.6566e-06,-4.51239e-07,1.40807e-05,-1.47787e-05,1.29119e-05,-6.64679e-06,0
