ch1,ch2,ch3,ch4,ch5,ch6,ch7,ch8,class
-3.32931e-05,1.26539e-05,8.46328e-05,-5.18295e-06,1.39988e-05,-1.36167e-05,1.13582e-05,8.89462e-06,0
-3.37415e-05,1.09869e-05,6.68523e-05,-2.52691e-06,1.39216e-05,-1.42028e-05,1.21725e-05,8.17995e-06,0
-3.29993e-05,1.08442e-05,3.29488e-05,-3.693e-06,1.45309e-05,-1.43158e-05,1.14263e-05,6.76596e-06,0
-3.15777e-05,1.06932e-05,-1.43767e-05,-3.86688e-06,1.49383e-05,-1.30021e-05,1.06895e-05,4.46098e-06,0
-2.99285e-05,9.95054e-06,-5.78786e-05,-3.15299e-06,1.45409e-05,-1.16347e-05,1.02576e-05,2.92488e-06,0
-2.92046e-05,7.86587e-06,-8.60406e-05,-3.49169e-06,1.34858e-05,-1.10765e-05,9.31492e-06,2.59493e-06,0
-2.99808e-05,4.82901e-06,-9.77103e-05,-4.0121e-06,1.51056e-05,-9.48927e-06,9.22266e-06,2.35631e-06,0
-3.1212e-05,4.18278e-06,-9.29186e-05,-4.26998e-06,2.19123e-05,-7.41145e-06,9.24234e-06,1.08416e-06,0
-3.13091e-05,5.45972e-06,-8.07811e-05,-2.9145e-06,3.00724e-05,-6.44069e-06,9.66549e-06,-1.02847e-06,0
-2.98695e-05,6.70035e-06,-6.72356e-05,-1.70029e-06,3.29385e-05,-7.05701e-06,1.1249e-05,-1.63861e-06,0
-2.8943e-05,6.24203e-06,-5.58556e-05,-2.45462e-06,2.83466e-05,-7.63128e-06,1.2718e-05,-9.6273e-07,0
-2.84843e-05,5.63983e-06,-4.4365e-05,-4.81837e-06,2.0983e-05,-7.7072e-06,1.26147e-05,1.3793e-07,0
-2.91934e-05,5.19637e-06,-3.33073e-05,-8.23878e-06,1.5042e-05,-7.27654e-06,1.12035e-05,1.4179e-06,0
-3.10434e-05,5.42353e-06,-2.35431e-05,-1.06547e-05,1.3151e-05,-6.15376e-06,1.04634e-05,3.95862e-06,0
-3.22421e-05,7.24483e-06,-1.57789e-05,-1.03429e-05,1.42642e-05,-5.37369e-06,1.2218e-05,6.07036e-06,0
-3.16975e-05,8.29131e-06,-8.64442e-06,-8.62349e-06,1.60271e-05,-5.12605e-06,1.52489e-05,5.9129e-06,0
-2.98339e-05,7.53827e-06,-1.58447e-06,-7.23963e-06,1.61864e-05,-3.973e-06,1.6977e-05,4.80175e-06,0
-2.75953e-05,7.46874e-06,1.90223e-06,-6.4141e-06,1.39952e-05,-1.89108e-06,1.69724e-05,4.5145e-06,0
-2.69937e-05,1.12649e-05,1.44143e-06,-6.46348e-06,1.19555e-05,-2.06681e-06,1.62759e-05,4.60046e-06,0
-2.92205e-05,1.84196e-05,-8.49175e-07,-6.40147e-06,1.13912e-05,-5.12e-06,1.59574e-05,3.18729e-06,0
-3.24836e-05,2.79802e-05,-1.74405e-06,-4.42114e-06,1.17955e-05,-7.08421e-06,1.56319e-05,1.99903e-06,0
-3.37822e-05,3.80041e-05,-3.0683e-06,-1.22409e-06,1.19998e-05,-5.91036e-06,1.42805e-05,3.04684e-06,0
-3.21536e-05,4.36458e-05,-4.65631e-06,-1.02898e-07,1.23177e-05,-3.82116e-06,1.21521e-05,4.05318e-06,0
-2.93888e-05,4.33497e-05,-5.49023e-06,-1.69329e-06,1.27132e-05,-3.25443e-06,1.14651e-05,8.3195e-07,0
-2.75969e-05,3.95554e-05,-4.47034e-06,-5.10941e-06,1.33908e-05,-3.70479e-06,1.26004e-05,-5.10931e-06,0
-2.74509e-05,3.45018e-05,-3.71247e-06,-8.38761e-06,1.41451e-05,-4.01028e-06,1.4295e-05,-9.75641e-06,0
-2.83077e-05,2.93202e-05,-3.65774e-06,-8.64789e-06,1.39911e-05,-4.7835e-06,1.69163e-05,-1.16874e-05,0
-2.86243e-05,2.48938e-05,-3.61758e-06,-6.71419e-06,1.36677e-05,-5.12245e-06,1.89421e-05,-1.14494e-05,0
-2.89855e-05,2.13771e-05,-4.0342e-06,-3.65044e-06,1.46523e-05,-3.80196e-06,1.7715e-05,-1.12244e-05,0
-2.99755e-05,1.68072e-05,-3.72498e-06,4.4872e-07,1.53148e-05,-2.56145e-06,1.48679e-05,-1.31963e-05,0
-3.10569e-05,1.14758e-05,-2.27914e-06,2.11335e-06,1.44214e-05,-3.43814e-06,1.1383e-05,-1.45975e-05,0
-3.18779e-05,5.46101e-06,-2.09331e-06,4.87784e-07,1.32228e-05,-5.08106e-06,1.36887e-05,-1.35224e-05,0
-3.14992e-05,3.40536e-07,-3.40189e-06,-7.81532e-07,1.21424e-05,-6.0086e-06,2.8946e-05,-1.24943e-05,0
-3.08482e-05,-8.84407e-07,-3.80584e-06,-1.78592e-06,1.18244e-05,-6.7817e-06,4.89624e-05,-1.22753e-05,0
-3.08014e-05,-1.71399e-07,-2.56633e-06,-2.34904e-06,1.14058e-05,-7.82412e-06,6.31827e-05,-1.23923e-05,0
-3.13702e-05,5.77857e-07,-2.52738e-06,-2.1664e-06,9.38456e-06,-8.56739e-06,6.70124e-05,-1.12869e-05,0
-3.09458e-05,1.10224e-06,-3.21482e-06,-2.98839e-06,7.13605e-06,-8.28789e-06,6.01614e-05,-1.05223e-05,0
-2.93368e-05,2.58346e-06,-3.59405e-06,-1.05104e-06,4.97554e-06,-7.73338e-06,4.58459e-05,-1.09409e-05,0
-2.94345e-05,4.24786e-06,-5.60909e-06,4.78604e-06,3.0648e-06,-6.94484e-06,2.78512e-05,-1.10731e-05,0
-3.15977e-05,3.56469e-06,-7.19629e-06,1.16436e-05,1.04633e-06,-6.98908e-06,8.88351e-06,-1.01596e-05,0
-3.39631e-05,2.82578e-06,-7.67277e-06,1.73041e-05,-7.13716e-08,-7.58777e-06,-1.0064e-05,-9.17999e-06,0
-3.62494e-05,3.36887e-06,-8.00322e-06,1.97441e-05,4.64366e-07,-6.90524e-06,-2.69959e-05,-8.11197e-06,0
-3.72836e-05,3.69109e-06,-8.44979e-06,1.94194e-05,8.76959e-07,-4.72849e-06,-3.57366e-05,-7.24457e-06,0
-3.60269e-05,2.83725e-06,-7.2019e-06,2.05217e-05,1.67667e-06,-3.28163e-06,-3.4454e-05,-7.99499e-06,0
-3.38228e-05,1.51489e-06,-5.26659e-06,2.27568e-05,2.34169e-06,-4.25393e-06,-2.99948e-05,-8.74109e-06,0
-3.2763e-05,1.9442e-06,-4.19936e-06,2.00359e-05,2.53128e-06,-7.12881e-06,-3.08282e-05,-9.66566e-06,0
-3.34789e-05,4.63159e-06,-4.07775e-06,9.83235e-06,4.01039e-06,-9.9498e-06,-3.61919e-05,-1.05789e-05,0
-3.44701e-05,8.29876e-06,-3.58397e-06,-6.64845e-06,6.61459e-06,-1.08916e-05,-3.7414e-05,-9.80446e-06,0
-3.43024e-05,1.11336e-05,-3.07119e-06,-2.35223e-05,7.73336e-06,-1.07471e-05,-3.22434e-05,-8.636e-06,0
-3.24509e-05,1.16725e-05,-3.49088e-06,-3.06606e-05,7.23492e-06,-9.78411e-06,-2.34054e-05,-9.47723e-06,0
-3.03571e-05,1.06278e-05,-3.62743e-06,-2.49732e-05,6.25896e-06,-8.55355e-06,-1.19324e-05,-1.00998e-05,0
-3.09966e-05,1.04988e-05,-3.42406e-06,-1.53157e-05,4.94514e-06,-9.31135e-06,1.12148e-06,-8.31123e-06,0
-3.32171e-05,1.04133e-05,-4.63933e-06,-8.7244e-06,3.89454e-06,-1.16962e-05,1.34753e-05,-5.91098e-06,0
-3.30167e-05,1.00243e-05,-7.05504e-06,-4.62576e-06,3.99198e-06,-1.29791e-05,2.33127e-05,-5.51869e-06,0
-3.14162e-05,9.78719e-06,-7.66126e-06,4.34971e-07,5.16911e-06,-1.30198e-05,2.91519e-05,-6.67892e-06,0
-3.06397e-05,9.7024e-06,-6.02897e-06,3.94091e-06,6.5804e-06,-1.28921e-05,3.08171e-05,-6.60786e-06,0
-3.12192e-05,9.91127e-06,-5.14791e-06,1.72204e-06,8.16144e-06,-1.35407e-05,2.90057e-05,-4.71693e-06,0
-2.97463e-05,9.34958e-06,-5.79881e-06,-3.36367e-06,1.03506e-05,-1.29629e-05,2.43543e-05,-1.9139e-06,0
-2.62756e-05,8.47985e-06,-6.72161e-06,-3.73797e-06,1.26023e-05,-1.12699e-05,1.95651e-05,2.51945e-07,0
-2.59157e-05,7.71827e-06,-8.4959e-06,-1.25739e-06,1.38523e-05,-1.03559e-05,2.05898e-05,8.54642e-07,0
-2.70772e-05,6.39065e-06,-1.06459e-05,-7.61308e-07,1.29558e-05,-1.00804e-05,2.46616e-05,1.79625e-06,0
-2.74317e-05,4.29683e-06,-1.13066e-05,-2.64293e-07,1.16213e-05,-1.00854e-05,2.53355e-05,1.62606e-06,0
-2.78666e-05,2.7736e-06,-1.0057e-05,-9.61814e-07,1.18672e-05,-9.72185e-06,2.28508e-05,3.12159e-07,0
-2.86208e-05,2.31077e-06,-7.78224e-06,-8.86621e-07,1.36223e-05,-9.22005e-06,1.99043e-05,-2.0917e-07,0
-2.77573e-05,2.15621e-06,-7.15202e-06,-5.9764e-07,1.63963e-05,-7.93176e-06,1.71821e-05,-6.78859e-08,0
-2.64406e-05,2.00605e-06,-9.23914e-06,-2.59355e-07,1.97448e-05,-6.64046e-06,1.34635e-05,1.29234e-06,0
-2.59378e-05,1.73013e-06,-1.09885e-05,7.28079e-07,2.25429e-05,-5.58714e-06,9.20909e-06,3.41439e-06,0
-2.60821e-05,2.03126e-06,-1.04072e-05,1.46591e-06,2.39918e-05,-4.53656e-06,4.1692e-06,4.94901e-06,0
-2.65543e-05,3.25558e-06,-7.53502e-06,2.41327e-06,2.36739e-05,-4.48184e-06,-3.86109e-07,4.8362e-06,0
-2.65025e-05,4.65878e-06,-5.27766e-06,2.63263e-06,2.04539e-05,-5.04503e-06,-2.38427e-06,4.25544e-06,0
-2.6668e-05,3.3615e-06,-4.38749e-06,3.79157e-06,1.76025e-05,-6.06696e-06,-1.60813e-06,3.12938e-06,0
-2.77746e-05,-1.94087e-06,-4.06335e-06,5.92769e-06,1.7167e-05,-6.67308e-06,-6.3615e-08,2.154e-06,0
-2.87197e-05,-7.88046e-06,-3.45173e-06,6.12829e-06,1.77707e-05,-6.261e-06,1.73716e-06,1.86625e-06,0
-2.76285e-05,-1.10267e-05,-2.37492e-06,2.19171e-06,1.7984e-05,-5.00687e-06,2.61335e-06,1.65565e-06,0
-2.69157e-05,-1.05686e-05,-1.76566e-06,-3.58046e-06,1.8142e-05,-4.68459e-06,1.6665e-06,1.69641e-06,0
-2.84261e-05,-7.81483e-06,-2.3469e-06,-7.12629e-06,1.77565e-05,-5.86474e-06,4.67915e-07,2.1515e-06,0
-3.04231e-05,-4.66882e-06,-4.40126e-06,-4.96863e-06,1.59932e-05,-7.17266e-06,4.95437e-07,2.73638e-06,0
-3.15665e-05,-1.98482e-06,-6.67939e-06,2.24502e-06,1.2666e-05,-8.75131e-06,7.09947e-07,4.71616e-06,0
-3.14557e-05,1.41051e-06,-8.03401e-06,9.59889e-06,1.01627e-05,-1.0409e-05,5.57521e-07,6.99022e-06,0
-3.03491e-05,6.3198e-06,-8.78917e-06,1.10997e-05,1.05935e-05,-1.13018e-05,3.51674e-06,7.22034e-06,0
-2.9959e-05,1.1412e-05,-9.78721e-06,5.95786e-06,1.12038e-05,-1.14685e-05,9.58089e-06,7.06415e-06,0
-3.03156e-05,1.31377e-05,-1.04837e-05,-3.17923e-07,1.22574e-05,-1.22824e-05,1.39261e-05,8.1691e-06,0
-3.06331e-05,1.12107e-05,-1.05541e-05,-5.21652e-06,1.37806e-05,-1.34273e-05,1.28292e-05,8.22636e-06,0
-3.12323e-05,9.0347e-06,-1.11825e-05,-1.0556e-05,1.37556e-05,-1.50664e-05,1.00142e-05,5.39424e-06,0
-3.28718e-05,9.32882e-06,-1.28269e-05,-1.7268e-05,1.37422e-05,-1.68097e-05,1.06277e-05,4.88165e-06,0
-3.32308e-05,1.00222e-05,-1.36657e-05,-2.35201e-05,1.63165e-05,-1.73305e-05,1.32461e-05,6.51145e-06,0
-3.21697e-05,9.54536e-06,-1.39337e-05,-2.60286e-05,1.94659e-05,-1.7498e-05,1.5802e-05,6.65803e-06,0
-3.18046e-05,9.36189e-06,-1.46516e-05,-2.49177e-05,2.16042e-05,-1.57533e-05,1.79296e-05,6.25372e-06,0
-3.12263e-05,1.01011e-05,-1.45863e-05,-2.35711e-05,2.24293e-05,-1.17927e-05,1.77868e-05,5.83823e-06,0
-3.0902e-05,1.2532e-05,-1.41185e-05,-2.03906e-05,2.24655e-05,-1.01114e-05,1.72041e-05,7.14417e-06,0
-2.93028e-05,1.35752e-05,-1.52247e-05,-1.64132e-05,2.25154e-05,-1.10984e-05,1.94025e-05,8.3865e-06,0
-2.62493e-05,1.12036e-05,-1.65489e-05,-1.39945e-05,2.3382e-05,-1.14516e-05,2.27697e-05,7.59863e-06,0
-2.54149e-05,7.72616e-06,-1.78529e-05,-1.10673e-05,2.44026e-05,-1.00019e-05,2.51462e-05,5.94405e-06,0
-2.79379e-05,7.52359e-06,-1.85942e-05,-9.08304e-06,2.3988e-05,-9.48389e-06,2.62396e-05,5.4164e-06,0
-3.16069e-05,1.15869e-05,-1.85269e-05,-8.95983e-06,2.41131e-05,-9.93644e-06,2.56623e-05,5.77738e-06,0
-3.29333e-05,1.83091e-05,-1.65251e-05,-8.60952e-06,2.51638e-05,-1.07092e-05,2.37472e-05,5.81113e-06,0
-3.11662e-05,2.5113e-05,-1.19546e-05,-9.55183e-06,2.46417e-05,-1.17386e-05,2.24337e-05,5.86489e-06,0
-2.90001e-05,2.98802e-05,-8.67195e-06,-1.29563e-05,2.18139e-05,-1.18591e-05,2.2156e-05,4.9341e-06,0
-2.8453e-05,3.15971e-05,-8.69928e-06,-1.65102e-05,1.9285e-05,-1.06105e-05,2.16278e-05,4.83179e-06,0
-2.88629e-05,2.8787e-05,-1.02535e-05,-1.77375e-05,1.72373e-05,-9.1129e-06,2.06677e-05,6.36626e-06,0
-2.87635e-05,2.24211e-05,-1.2048e-05,-1.69508e-05,1.57374e-05,-8.85599e-06,2.05744e-05,7.19893e-06,0
-2.85479e-05,1.55542e-05,-1.39212e-05,-1.47074e-05,1.60684e-05,-8.92147e-06,2.09683e-05,6.35815e-06,0
-2.8295e-05,1.27708e-05,-1.43079e-05,-1.20926e-05,1.68371e-05,-9.91572e-06,2.04259e-05,7.19458e-06,0
-2.71192e-05,1.40789e-05,-1.26897e-05,-1.11514e-05,1.65449e-05,-1.18935e-05,1.9063e-05,9.64782e-06,0
-2.48655e-05,1.45925e-05,-9.80353e-06,-1.03792e-05,1.59362e-05,-1.38189e-05,1.66384e-05,9.78573e-06,0
-2.36578e-05,1.08638e-05,-7.46946e-06,-7.55445e-06,1.5057e-05,-1.3506e-05,1.39422e-05,8.17605e-06,0
-2.46433e-05,4.06523e-06,-6.07958e-06,-3.52733e-06,1.29765e-05,-1.07925e-05,1.32543e-05,7.4404e-06,0
-2.69942e-05,-1.41802e-06,-5.06598e-06,-3.17511e-06,8.89621e-06,-7.60832e-06,1.43627e-05,7.68034e-06,0
-2.88678e-05,-2.63894e-06,-3.19898e-06,-6.33981e-06,6.0317e-06,-5.96446e-06,1.4992e-05,7.52169e-06,0
-2.93189e-05,6.08597e-09,-1.21478e-06,-7.25881e-06,7.7672e-06,-5.08304e-06,1.50121e-05,5.36704e-06,0
-2.91183e-05,7.73195e-06,3.4436e-07,-5.98932e-06,1.03743e-05,-3.65699e-06,1.45841e-05,2.23776e-06,0
-2.88385e-05,2.26829e-05,-1.84917e-07,-4.14447e-06,1.00502e-05,-3.00748e-06,1.36352e-05,1.15136e-06,0
-2.90242e-05,3.94327e-05,-3.39234e-06,-3.4995e-06,8.82971e-06,-3.03171e-06,1.06642e-05,6.96367e-09,0
-2.91722e-05,5.05869e-05,-5.88633e-06,-2.96509e-06,9.60331e-06,-3.52026e-06,8.16848e-06,-2.45002e-06,0
-2.95821e-05,5.12482e-05,-7.88012e-06,-2.49473e-06,1.03973e-05,-4.14436e-06,9.71463e-06,-3.84909e-06,0
-2.99916e-05,4.154e-05,-1.07743e-05,-4.25597e-06,1.04986e-05,-3.72051e-06,1.19159e-05,-3.57438e-06,0
-3.07053e-05,2.67883e-05,-1.14321e-05,-4.52405e-06,1.18156e-05,-4.01949e-06,1.34138e-05,-2.61655e-06,0
-3.15721e-05,9.8641e-06,-9.2929e-06,-3.88444e-06,1.3754e-05,-5.65795e-06,1.42127e-05,-2.74075e-06,0
-3.25086e-05,-4.84991e-06,-7.61055e-06,-3.37257e-06,1.35549e-05,-7.96934e-06,1.407e-05,-3.60801e-06,0
-3.35524e-05,-1.50976e-05,-5.83473e-06,-3.27359e-06,1.36078e-05,-1.08464e-05,1.20501e-05,-2.88527e-06,0
-3.31477e-05,-1.96152e-05,-4.25159e-06,-1.45699e-06,1.42813e-05,-1.22174e-05,1.1015e-05,-1.65566e-06,0
-3.22928e-05,-1.89707e-05,-4.54839e-06,4.35112e-06,1.44674e-05,-1.23318e-05,1.14031e-05,-2.13863e-06,0
-3.24472e-05,-1.46103e-05,-7.43846e-06,1.20345e-05,1.43362e-05,-1.22521e-05,1.02301e-05,-3.2818e-06,0
-3.28568e-05,-7.91378e-06,-1.04256e-05,1.55398e-05,1.27303e-05,-1.28601e-05,7.40238e-06,-3.53182e-06,0
-3.22718e-05,-1.31533e-06,-1.12544e-05,1.19129e-05,1.08315e-05,-1.37386e-05,3.5902e-06,-4.0034e-06,0
-3.22269e-05,3.99753e-06,-1.07689e-05,4.99591e-06,1.0133e-05,-1.4125e-05,1.14115e-07,-4.70872e-06,0
-3.26506e-05,7.89047e-06,-9.33099e-06,-4.01425e-06,1.05883e-05,-1.49109e-05,-1.17281e-06,-3.47208e-06,0
-3.19664e-05,1.21969e-05,-7.70101e-06,-1.49844e-05,1.0172e-05,-1.63497e-05,7.13166e-07,-1.37062e-06,0
-3.03955e-05,1.56988e-05,-7.78134e-06,-2.37134e-05,8.70953e-06,-1.74136e-05,4.52583e-06,-1.10869e-06,0
-2.94736e-05,1.61883e-05,-8.71466e-06,-2.49551e-05,7.2091e-06,-1.65176e-05,9.88843e-06,-2.26651e-06,0
-2.9722e-05,1.46149e-05,-7.85941e-06,-2.0048e-05,8.26455e-06,-1.44002e-05,1.61052e-05,-3.51096e-06,0
-2.98811e-05,1.46893e-05,-5.11142e-06,-1.23879e-05,1.06581e-05,-1.3703e-05,2.19183e-05,-4.12041e-06,0
-2.98475e-05,1.61253e-05,-1.23791e-06,-5.47617e-06,1.14041e-05,-1.57275e-05,2.52711e-05,-4.91322e-06,0
-2.9724e-05,1.82265e-05,1.67078e-06,-1.43085e-06,1.03811e-05,-1.87544e-05,2.60739e-05,-5.82014e-06,0
-2.97006e-05,1.9496e-05,2.37711e-06,-1.31198e-06,8.47602e-06,-1.89633e-05,2.5422e-05,-5.40495e-06,0
-2.97589e-05,2.16561e-05,1.98716e-06,-5.22584e-06,6.51189e-06,-1.62895e-05,2.28342e-05,-3.96463e-06,0
-3.01577e-05,2.57139e-05,-2.81141e-06,-9.67254e-06,4.71937e-06,-1.377e-05,1.94681e-05,-1.69488e-06,0
-3.05526e-05,2.6709e-05,-1.25723e-05,-1.00982e-05,4.53224e-06,-1.31581e-05,1.78209e-05,-4.65117e-07,0
-3.0275e-05,2.40478e-05,-2.09867e-05,-7.82627e-06,7.97305e-06,-1.52527e-05,1.65219e-05,-1.08162e-06,0
-2.95024e-05,2.13832e-05,-2.36346e-05,-7.07669e-06,1.25894e-05,-1.65572e-05,1.57185e-05,-2.30242e-06,0
-2.99355e-05,2.16859e-05,-2.3584e-05,-8.21896e-06,1.39639e-05,-1.51954e-05,1.56939e-05,-3.02159e-06,0
-3.10994e-05,2.24096e-05,-2.58217e-05,-7.48489e-06,1.21464e-05,-1.33817e-05,1.69116e-05,-3.10734e-06,0
-3.22596e-05,2.10604e-05,-2.75626e-05,-3.92847e-06,1.05685e-05,-1.20828e-05,1.93022e-05,-3.69957e-06,0
-3.24358e-05,1.85466e-05,-2.6425e-05,-3.84852e-07,1.05595e-05,-1.24832e-05,2.06644e-05,-2.89218e-06,0
-3.01887e-05,1.60615e-05,-2.2625e-05,8.15887e-08,1.01316e-05,-1.37837e-05,1.98377e-05,-1.33945e-06,0
-2.82856e-05,1.51103e-05,-1.77065e-05,-2.01136e-06,9.76507e-06,-1.41171e-05,1.76728e-05,-1.03367e-06,0
-2.81411e-05,1.41689e-05,-1.33077e-05,-4.03408e-06,1.00428e-05,-1.3105e-05,1.59597e-05,-4.09978e-07,0
-2.9049e-05,1.33388e-05,-1.02068e-05,-5.40733e-06,1.01575e-05,-1.23789e-05,1.42225e-05,2.17433e-07,0
-2.95414e-05,1.40015e-05,-7.5784e-06,-5.23868e-06,1.03157e-05,-1.20092e-05,1.04645e-05,7.50522e-07,0
-3.01964e-05,1.50748e-05,-5.82217e-06,-3.58306e-06,1.08394e-05,-1.09919e-05,5.75204e-06,2.17961e-06,0
-3.08902e-05,1.45765e-05,-5.81645e-06,-1.75843e-06,1.1145e-05,-9.86694e-06,4.34166e-06,2.88584e-06,0
-3.0672e-05,1.25246e-05,-5.50088e-06,-1.58754e-06,1.21016e-05,-9.45909e-06,5.34856e-06,1.52635e-06,0
-3.012e-05,1.14914e-05,-4.26593e-06,-2.08035e-06,1.39567e-05,-1.01701e-05,5.44496e-06,-4.63418e-07,0
-2.99683e-05,1.17065e-05,-3.30188e-06,-2.64301e-06,1.51436e-05,-1.12116e-05,4.51657e-06,-1.00582e-06,0
-3.01192e-05,1.32262e-05,-3.24248e-06,-2.95374e-06,1.4788e-05,-1.11049e-05,4.10697e-06,9.90758e-07,0
-2.9774e-05,1.55431e-05,-2.02138e-06,-2.67081e-06,1.36732e-05,-9.82004e-06,4.00907e-06,3.85275e-06,0
-2.97035e-05,1.82642e-05,-8.0301e-08,-4.90503e-07,1.3333e-05,-8.6743e-06,4.88299e-06,4.45426e-06,0
-3.01465e-05,1.99235e-05,7.52833e-07,3.28489e-06,1.35842e-05,-7.52599e-06,7.06104e-06,2.52186e-06,0
-3.05315e-05,2.08853e-05,-5.03969e-07,5.81239e-06,1.31107e-05,-7.19498e-06,9.44042e-06,6.75014e-07,0
-2.98145e-05,2.18994e-05,-2.98634e-06,5.2089e-06,1.08612e-05,-7.55643e-06,8.58606e-06,4.41511e-08,0
-2.90594e-05,2.28923e-05,-4.83192e-06,2.74473e-06,7.73052e-06,-6.01408e-06,4.3588e-06,8.07767e-07,0
-2.92024e-05,2.33127e-05,-5.6886e-06,9.19135e-07,5.54711e-06,-2.61744e-06,1.55895e-06,2.54416e-06,0
-3.05542e-05,2.24344e-05,-5.22354e-06,-4.68692e-07,4.64226e-06,-8.07804e-07,4.37728e-06,3.58234e-06,0
-3.26216e-05,2.14907e-05,-3.56081e-06,-1.54024e-06,5.25645e-06,-7.68448e-07,1.06666e-05,3.25408e-06,0
-3.37131e-05,2.17748e-05,-2.2966e-06,-2.6827e-06,6.06104e-06,-1.48899e-06,1.49835e-05,2.24554e-06,0
-3.26651e-05,2.25658e-05,-1.00329e-06,-4.35337e-06,5.89123e-06,-5.10813e-06,1.72853e-05,1.58078e-06,0
-3.11252e-05,1.88855e-05,-1.22686e-06,-5.20651e-06,6.25591e-06,-8.42692e-06,1.799e-05,1.45743e-06,0
-3.07866e-05,1.33293e-05,-3.48956e-06,-5.42692e-06,6.45793e-06,-7.17577e-06,1.58933e-05,7.90052e-07,0
-3.11732e-05,1.17766e-05,-4.59197e-06,-6.33477e-06,7.65225e-06,-4.16694e-06,1.35164e-05,-6.19188e-07,0
-3.288e-05,1.44969e-05,-3.06795e-06,-5.44033e-06,1.01073e-05,-2.66195e-06,1.32708e-05,-2.93649e-07,0
-3.353e-05,1.72736e-05,-1.89309e-06,-1.76114e-06,1.15038e-05,-2.0998e-06,1.32557e-05,2.2343e-06,0
-3.15978e-05,1.77568e-05,-2.70091e-06,9.87127e-07,1.19967e-05,-1.9832e-06,1.15586e-05,4.11099e-06,0
-3.04978e-05,1.82435e-05,-3.60729e-06,1.73047e-07,1.12547e-05,-3.17229e-06,8.35543e-06,2.59699e-06,0
-3.17828e-05,1.78763e-05,-4.41368e-06,-3.57807e-06,1.06905e-05,-4.40406e-06,6.09764e-06,1.124e-07,0
-3.23294e-05,1.65154e-05,-4.19459e-06,-8.51393e-06,1.09518e-05,-5.25372e-06,5.88168e-06,5.2639e-07,0
-3.08885e-05,1.43519e-05,-5.18751e-06,-1.08189e-05,1.26298e-05,-6.41457e-06,6.95272e-06,1.92028e-06,0
-3.01078e-05,1.22608e-05,-7.11758e-06,-8.82169e-06,1.49719e-05,-7.72652e-06,7.69784e-06,1.99257e-06,0
-3.08495e-05,1.00366e-05,-8.37596e-06,-5.88953e-06,1.54571e-05,-7.77169e-06,8.52088e-06,2.00846e-06,0
-3.11681e-05,8.04928e-06,-9.06935e-06,-3.92302e-06,1.36943e-05,-7.06682e-06,9.98788e-06,1.96816e-06,0
-3.08942e-05,8.14189e-06,-1.00275e-05,-5.69623e-07,1.19904e-05,-6.89811e-06,1.29195e-05,1.74553e-06,0
-3.11206e-05,9.15262e-06,-1.08994e-05,5.38238e-06,1.32293e-05,-6.2565e-06,1.5906e-05,2.69643e-06,0
-3.13677e-05,9.74888e-06,-1.14108e-05,1.09818e-05,1.69457e-05,-4.50484e-06,1.56287e-05,4.43884e-06,0
-3.00329e-05,1.06463e-05,-1.14283e-05,1.24198e-05,2.12803e-05,-2.69726e-06,1.2525e-05,4.92933e-06,0
-2.7071e-05,1.1133e-05,-1.1086e-05,8.99975e-06,2.3036e-05,-2.55231e-06,9.46608e-06,3.95808e-06,0
-2.53667e-05,9.83692e-06,-1.21509e-05,4.86458e-06,2.21735e-05,-3.78259e-06,8.77181e-06,3.19694e-06,0
-2.62622e-05,6.90194e-06,-1.45438e-05,2.22824e-06,2.1436e-05,-5.27605e-06,9.37996e-06,3.13646e-06,0
-2.83076e-05,2.67439e-06,-1.71347e-05,1.13471e-06,2.18495e-05,-6.31018e-06,1.11598e-05,3.83077e-06,0
-2.97235e-05,-7.18067e-07,-1.7899e-05,2.56113e-06,2.20412e-05,-6.65757e-06,1.46458e-05,4.85064e-06,0
-3.01163e-05,-1.79827e-06,-1.72064e-05,3.93282e-06,2.05467e-05,-6.91421e-06,1.71449e-05,6.14629e-06,0
-3.06612e-05,-6.70385e-07,-1.4962e-05,3.16431e-06,1.91792e-05,-7.86627e-06,1.75397e-05,6.65547e-06,0
-3.10323e-05,3.35892e-07,-1.19581e-05,-1.31225e-06,1.93371e-05,-8.39652e-06,1.7277e-05,5.76002e-06,0
-3.04717e-05,1.37239e-06,-9.34734e-06,-8.67257e-06,1.66078e-05,-8.68391e-06,1.77413e-05,4.62114e-06,0
-2.9488e-05,2.3114e-06,-6.3788e-06,-1.64112e-05,1.10391e-05,-1.06805e-05,1.70382e-05,5.55257e-06,0
-3.05971e-05,2.50736e-06,-3.79463e-06,-2.2994e-05,8.35495e-06,-1.20506e-05,7.99582e-06,8.23803e-06,0
-3.28723e-05,1.7661e-06,-2.51488e-06,-2.52468e-05,7.44561e-06,-1.02709e-05,-6.02796e-06,8.47121e-06,0
-3.23523e-05,2.46812e-06,-1.45155e-06,-2.08035e-05,8.81021e-06,-9.25856e-06,-1.45847e-05,6.59349e-06,0
-3.02992e-05,5.74509e-06,-1.51384e-07,-1.16151e-05,1.10763e-05,-9.52465e-06,-1.39529e-05,4.95778e-06,0
-2.81364e-05,7.34371e-06,7.85884e-07,-5.97082e-06,1.32631e-05,-9.54548e-06,-7.05906e-06,3.65752e-06,0
-2.66876e-05,6.36818e-06,1.9876e-06,-7.07624e-06,1.57345e-05,-1.00168e-05,4.72666e-06,2.37117e-06,0
-2.69526e-05,5.17763e-06,2.61122e-06,-1.0666e-05,1.56019e-05,-1.04656e-05,2.43914e-05,1.55724e-06,0
-2.80959e-05,6.72434e-06,1.09937e-06,-1.14091e-05,1.42375e-05,-1.1352e-05,4.63561e-05,7.84664e-07,0
-2.82752e-05,9.81348e-06,-4.41789e-07,-7.51845e-06,1.17503e-05,-1.22443e-05,6.18658e-05,-2.91929e-07,0
-2.75656e-05,1.19772e-05,-1.42769e-06,4.26331e-07,1.04968e-05,-1.17164e-05,6.68382e-05,-3.75135e-07,0
-2.67974e-05,1.26729e-05,-3.19005e-06,1.0381e-05,1.03052e-05,-1.08072e-05,6.19068e-05,-5.18445e-07,0
-2.61774e-05,1.26774e-05,-4.81514e-06,1.63756e-05,1.17764e-05,-1.05955e-05,5.11273e-05,-5.16086e-07,0
-2.74548e-05,1.27359e-05,-5.37779e-06,1.40345e-05,1.45714e-05,-1.1049e-05,3.67452e-05,2.42724e-08,0
-3.10894e-05,1.3834e-05,-4.90378e-06,4.97913e-06,1.63269e-05,-1.15585e-05,2.03573e-05,8.61225e-08,0
-3.39088e-05,1.55929e-05,-4.53599e-06,-6.67999e-06,1.59709e-05,-1.09482e-05,5.23252e-06,-1.24175e-06,0
-3.30004e-05,1.57238e-05,-5.69637e-06,-1.67232e-05,1.38692e-05,-1.06002e-05,-4.51331e-06,-2.70995e-06,0
-2.97368e-05,1.46886e-05,-7.3653e-06,-2.08145e-05,1.13862e-05,-1.13694e-05,-7.34238e-06,-2.66285e-06,0
-2.69593e-05,1.46674e-05,-7.39013e-06,-1.92923e-05,8.95536e-06,-1.32061e-05,-5.21154e-06,-2.35582e-06,0
-2.66705e-05,1.52502e-05,-5.40984e-06,-1.58796e-05,1.02927e-05,-1.51767e-05,-9.94916e-07,-2.8966e-06,0
-2.83002e-05,1.56189e-05,-2.41571e-06,-1.41494e-05,1.38456e-05,-1.55895e-05,3.87615e-06,-3.89205e-06,0
-3.06031e-05,1.58104e-05,1.84762e-07,-1.34868e-05,1.66912e-05,-1.35593e-05,8.93872e-06,-4.37454e-06,0
-3.24335e-05,1.50105e-05,1.53446e-06,-1.22053e-05,1.63057e-05,-1.03864e-05,1.31431e-05,-4.84349e-06,0
-3.2339e-05,1.40711e-05,4.44026e-08,-1.28648e-05,1.32416e-05,-9.11697e-06,1.50079e-05,-3.57379e-06,0
-3.11195e-05,1.43793e-05,-4.11744e-06,-1.55925e-05,1.09497e-05,-9.25755e-06,1.3427e-05,-1.61429e-06,0
-3.06864e-05,1.50714e-05,-7.83691e-06,-1.76305e-05,1.02706e-05,-8.51688e-06,1.02995e-05,-2.12241e-06,0
-3.07408e-05,1.27594e-05,-1.03156e-05,-1.9703e-05,1.03597e-05,-7.39524e-06,7.50594e-06,-3.42657e-06,0
-3.05603e-05,1.08882e-05,-1.26958e-05,-2.33377e-05,1.04456e-05,-8.17649e-06,7.94329e-06,-2.78059e-06,0
-3.04073e-05,1.31996e-05,-1.57421e-05,-2.56795e-05,1.01126e-05,-1.08308e-05,1.1906e-05,-1.25875e-06,0
-3.18841e-05,1.54726e-05,-1.83619e-05,-2.18258e-05,9.6686e-06,-1.23385e-05,1.51001e-05,-1.78226e-06,0
-3.53284e-05,1.71966e-05,-1.98959e-05,-1.37444e-05,1.00112e-05,-1.36372e-05,1.50511e-05,-1.29424e-06,0
-3.68779e-05,2.24251e-05,-2.11507e-05,-7.33382e-06,9.87797e-06,-1.51986e-05,1.15696e-05,1.26166e-06,0
-3.60638e-05,3.07881e-05,-2.10879e-05,-4.96806e-06,8.7555e-06,-1.52364e-05,8.57199e-06,2.9261e-06,0
-3.4653e-05,3.36872e-05,-2.07369e-05,-6.00834e-06,7.51501e-06,-1.37739e-05,9.75324e-06,2.36303e-06,0
-3.43823e-05,2.86808e-05,-2.01464e-05,-7.7454e-06,5.741e-06,-1.34036e-05,1.4201e-05,1.19768e-06,0
-3.63988e-05,2.04811e-05,-1.90687e-05,-7.55503e-06,4.51489e-06,-1.38686e-05,1.809e-05,2.62423e-06,0
-3.76591e-05,1.09592e-05,-1.75358e-05,-5.07049e-06,3.99501e-06,-1.46936e-05,2.00827e-05,4.66142e-06,0
-3.63624e-05,1.46963e-06,-1.49897e-05,-1.98634e-06,4.64301e-06,-1.59832e-05,1.88411e-05,6.08907e-06,0
-3.4228e-05,-4.82916e-06,-1.30997e-05,-8.6928e-08,6.69479e-06,-1.68575e-05,1.26639e-05,6.5534e-06,0
-3.27256e-05,-4.23219e-06,-1.30346e-05,8.80185e-07,8.29852e-06,-1.84601e-05,3.14293e-06,7.44343e-06,0
-3.06854e-05,2.07608e-06,-1.36778e-05,2.342e-06,7.84329e-06,-1.8959e-05,-4.1348e-06,9.42918e-06,0
-2.80153e-05,9.1413e-06,-1.31589e-05,5.16806e-06,7.6952e-06,-1.72395e-05,-4.95599e-06,1.07937e-05,0
-2.57896e-05,1.17938e-05,-1.18159e-05,8.10112e-06,8.89063e-06,-1.46224e-05,2.99127e-07,1.09064e-05,0
-2.51958e-05,9.86782e-06,-1.08628e-05,8.77147e-06,8.99735e-06,-1.45352e-05,9.49341e-06,1.03632e-05,0
-2.67538e-05,8.32992e-06,-1.06429e-05,7.46374e-06,8.61167e-06,-1.58511e-05,1.97333e-05,1.02969e-05,0
-2.88931e-05,1.01919e-05,-9.83374e-06,5.69957e-06,8.96641e-06,-1.58988e-05,3.01279e-05,9.3037e-06,0
-3.04838e-05,1.58846e-05,-8.04697e-06,3.75066e-06,1.02412e-05,-1.50294e-05,3.91043e-05,7.60745e-06,0
-3.02885e-05,2.42575e-05,-6.59641e-06,1.24229e-06,1.04984e-05,-1.58653e-05,4.39578e-05,6.15584e-06,0
-2.78796e-05,3.04143e-05,-5.76275e-06,-2.08329e-06,1.0192e-05,-1.8257e-05,4.31757e-05,4.84734e-06,0
-2.46824e-05,3.12094e-05,-5.83116e-06,-6.42016e-06,1.06422e-05,-1.95818e-05,3.86319e-05,3.47092e-06,0
-2.31157e-05,2.70448e-05,-5.54974e-06,-1.01408e-05,1.14867e-05,-1.98113e-05,3.43418e-05,2.24017e-06,0
-2.39527e-05,2.13914e-05,-3.24439e-06,-9.77378e-06,1.12586e-05,-2.0477e-05,3.04146e-05,-3.8012e-08,0
-2.49366e-05,1.82973e-05,-2.84072e-06,-7.61575e-06,1.05119e-05,-2.08285e-05,2.53718e-05,-2.30767e-06,0
-2.44703e-05,1.59127e-05,-5.25163e-06,-8.53619e-06,1.10656e-05,-1.91615e-05,2.03973e-05,-2.68645e-06,0
-2.42345e-05,1.05806e-05,-8.08985e-06,-9.84799e-06,1.49437e-05,-1.66239e-05,1.442e-05,-2.27119e-06,0
-2.50752e-05,5.24299e-06,-8.50895e-06,-1.02036e-05,1.93037e-05,-1.52162e-05,1.00657e-05,-2.11423e-06,0
-2.59927e-05,1.18937e-06,-6.23047e-06,-9.50285e-06,2.0525e-05,-1.53537e-05,8.73721e-06,-2.23172e-06,0
-2.65035e-05,-5.39823e-06,-5.15157e-06,-7.98834e-06,1.84779e-05,-1.41227e-05,8.37573e-06,-2.39056e-06,0
-2.68512e-05,-9.41082e-06,-5.61692e-06,-6.16292e-06,1.49482e-05,-1.25877e-05,6.10157e-06,-3.15904e-06,0
-2.86421e-05,-6.95196e-06,-6.62565e-06,-4.35187e-06,1.35333e-05,-1.05392e-05,2.88685e-06,-2.61984e-06,0
-3.05987e-05,8.44333e-07,-7.11835e-06,-2.7697e-06,1.37651e-05,-8.59013e-06,2.08757e-06,5.09761e-07,0
-2.98309e-05,9.05153e-06,-6.51269e-06,6.79821e-07,1.62998e-05,-9.07312e-06,1.26141e-06,3.04356e-06,0
-2.83438e-05,1.39823e-05,-6.06554e-06,2.50788e-06,1.93317e-05,-9.90745e-06,-4.57087e-08,4.06577e-06,0
-2.77041e-05,1.65637e-05,-6.27217e-06,3.33654e-07,2.04862e-05,-9.693e-06,-7.46716e-07,4.96817e-06,0
-2.71378e-05,1.68961e-05,-5.82336e-06,-1.8479e-06,2.11848e-05,-8.43641e-06,2.59479e-07,5.00765e-06,0
-2.7048e-05,1.63343e-05,-5.06345e-06,-2.47043e-06,2.08444e-05,-6.55051e-06,1.47208e-06,4.38398e-06,0
-2.62517e-05,1.54326e-05,-3.60683e-06,-3.19043e-06,1.86669e-05,-5.00311e-06,2.73196e-06,3.24647e-06,0
-2.5349e-05,1.49254e-05,-2.23738e-06,-3.43244e-06,1.70553e-05,-4.15649e-06,3.5671e-06,2.37276e-06,0
-2.65304e-05,1.53095e-05,-2.44957e-06,-2.25296e-06,1.78748e-05,-3.26758e-06,3.31928e-06,1.86593e-06,0
-2.90164e-05,1.76893e-05,-3.60847e-06,-3.85384e-07,2.06985e-05,-2.0864e-06,2.57394e-06,8.61418e-07,0
-3.03759e-05,2.07127e-05,-4.54822e-06,-7.38249e-07,2.40713e-05,-1.95125e-06,2.79479e-06,2.17521e-07,0
-3.04324e-05,2.20374e-05,-5.53876e-06,-2.32392e-06,2.55475e-05,-3.4508e-06,3.63238e-06,8.88477e-07,0
-3.07675e-05,2.06857e-05,-6.61523e-06,-1.97275e-06,2.43742e-05,-5.35835e-06,4.09991e-06,1.93595e-06,0
-3.18975e-05,1.88574e-05,-6.87158e-06,-1.95303e-08,2.17983e-05,-6.70922e-06,5.15159e-06,1.72162e-06,0
-3.383e-05,1.85983e-05,-7.03486e-06,1.92163e-06,1.92051e-05,-7.5562e-06,6.04931e-06,9.566e-07,0
-3.47695e-05,1.99108e-05,-7.6269e-06,4.27189e-06,1.67456e-05,-8.54015e-06,5.62246e-06,-9.13538e-08,0
-3.37065e-05,2.1929e-05,-8.54101e-06,8.17777e-06,1.49848e-05,-9.28576e-06,4.11704e-06,-7.64766e-07,0
-3.11506e-05,2.23948e-05,-9.52529e-06,1.17337e-05,1.44444e-05,-7.92935e-06,4.83764e-06,7.49789e-08,0
-2.93916e-05,2.14444e-05,-1.02164e-05,1.24173e-05,1.37619e-05,-3.84444e-06,7.44828e-06,-5.95109e-08,0
-2.96751e-05,2.12513e-05,-9.84677e-06,1.08238e-05,1.34743e-05,5.22732e-07,8.85317e-06,-1.48273e-06,0
-2.98899e-05,2.19669e-05,-8.45711e-06,8.0003e-06,1.3838e-05,1.83966e-06,8.48175e-06,-1.39005e-06,0
-3.00004e-05,2.13219e-05,-5.44324e-06,2.68449e-06,1.48036e-05,-4.97355e-07,8.18581e-06,-7.52421e-07,0
-3.10048e-05,1.95634e-05,-3.78373e-06,-3.65956e-06,1.86313e-05,-3.22351e-06,8.64821e-06,-8.55718e-08,0
-3.34984e-05,2.06776e-05,-4.7226e-06,-7.52543e-06,2.3494e-05,-4.55323e-06,8.5229e-06,-1.08846e-06,0
-3.55436e-05,2.36238e-05,-5.76353e-06,-6.4821e-06,2.52489e-05,-5.09893e-06,9.89116e-06,-1.98622e-06,0
-3.5387e-05,2.61151e-05,-6.3679e-06,-2.46269e-06,2.21286e-05,-6.04422e-06,2.08929e-05,-2.39581e-06,0
-3.42072e-05,2.77471e-05,-7.78933e-06,1.23127e-06,1.73229e-05,-7.2563e-06,4.27932e-05,-3.96074e-06,0
-3.31074e-05,2.5951e-05,-9.19897e-06,4.00468e-06,1.37484e-05,-7.78826e-06,6.07136e-05,-4.67807e-06,0
-3.26076e-05,2.32712e-05,-8.00738e-06,7.09482e-06,1.19424e-05,-7.69506e-06,6.42879e-05,-5.02885e-06,0
-3.21648e-05,2.17614e-05,-7.05978e-06,1.10345e-05,1.12146e-05,-6.56268e-06,5.74528e-05,-3.25272e-06,0
-3.23412e-05,2.17856e-05,-7.62439e-06,1.2678e-05,1.08565e-05,-6.08846e-06,4.41973e-05,-1.00542e-06,0
-3.18048e-05,2.15531e-05,-8.42648e-06,1.12123e-05,1.10434e-05,-6.95767e-06,2.87639e-05,-4.24983e-07,0
-3.05119e-05,2.03221e-05,-8.31274e-06,1.02493e-05,1.07987e-05,-8.09359e-06,1.30763e-05,2.15601e-07,0
-3.00768e-05,1.90089e-05,-7.58846e-06,8.71673e-06,1.01438e-05,-9.30675e-06,-2.86576e-06,1.64628e-06,0
-3.05141e-05,1.88884e-05,-6.50196e-06,2.34479e-06,9.26246e-06,-8.79565e-06,-1.72432e-05,1.61512e-06,0
-3.13594e-05,1.90684e-05,-5.23796e-06,-9.18725e-06,8.92087e-06,-6.99744e-06,-2.72552e-05,1.3058e-06,0
-3.17246e-05,1.77606e-05,-5.06054e-06,-1.98765e-05,9.24104e-06,-6.47851e-06,-2.86569e-05,2.65672e-06,0
-3.22171e-05,1.55056e-05,-7.23062e-06,-2.28372e-05,9.99125e-06,-7.6616e-06,-2.21436e-05,3.80595e-06,0
-3.24964e-05,1.28142e-05,-1.06098e-05,-1.8574e-05,1.06994e-05,-8.90693e-06,-1.31789e-05,3.7101e-06,0
-3.21888e-05,1.10611e-05,-1.12825e-05,-1.26042e-05,1.21503e-05,-9.23744e-06,-5.99933e-06,2.8633e-06,0
-3.11972e-05,1.16309e-05,-9.09608e-06,-9.01548e-06,1.3219e-05,-9.0788e-06,-7.75342e-07,2.19299e-06,0
-3.00185e-05,1.43803e-05,-6.54268e-06,-9.50265e-06,1.17727e-05,-9.90599e-06,2.02859e-06,2.41453e-06,0
-3.00657e-05,1.4863e-05,-4.75587e-06,-1.22805e-05,9.37605e-06,-1.22314e-05,2.29911e-06,3.16888e-06,0
-3.07707e-05,1.29404e-05,-3.94684e-06,-1.37136e-05,9.01316e-06,-1.32614e-05,1.05316e-06,2.93019e-06,0
-3.10318e-05,1.0055e-05,-6.12121e-06,-1.28838e-05,9.87237e-06,-1.3129e-05,-2.20569e-07,2.32344e-06,0
-3.13927e-05,6.56649e-06,-9.42656e-06,-1.00468e-05,1.16155e-05,-1.45215e-05,1.16061e-06,1.50476e-06,0
-3.2893e-05,3.74501e-06,-1.02236e-05,-8.20158e-06,1.38222e-05,-1.61201e-05,5.5318e-06,8.93043e-07,0
-3.469e-05,3.49609e-06,-9.05885e-06,-7.79727e-06,1.32791e-05,-1.49223e-05,8.38866e-06,7.97757e-07,0
-3.42501e-05,4.6689e-06,-6.71504e-06,-8.61562e-06,1.33489e-05,-1.12034e-05,7.714e-06,2.78316e-06,0
-3.2609e-05,5.5174e-06,-5.58153e-06,-7.80397e-06,1.47153e-05,-8.39613e-06,5.84372e-06,4.04327e-06,0
-3.22893e-05,6.45192e-06,-6.46e-06,-2.51195e-06,1.56608e-05,-7.16348e-06,3.21708e-06,2.42731e-06,0
-3.23514e-05,8.50808e-06,-6.43892e-06,3.74454e-06,1.70568e-05,-6.14986e-06,6.44077e-07,2.58884e-06,0
-3.1688e-05,1.09097e-05,-6.69104e-06,9.12367e-06,1.74486e-05,-5.3447e-06,1.10855e-06,3.46051e-06,0
-3.16503e-05,1.05618e-05,-8.19152e-06,1.3193e-05,1.83247e-05,-3.15887e-06,4.58512e-06,4.14617e-06,0
-3.06963e-05,8.77428e-06,-8.81619e-06,1.87999e-05,2.13819e-05,-3.78562e-07,8.10696e-06,6.03787e-06,0
-2.85691e-05,6.24563e-06,-8.56356e-06,2.18121e-05,2.36453e-05,1.69466e-06,8.85235e-06,7.89392e-06,0
-2.77618e-05,4.70572e-06,-9.93886e-06,1.91094e-05,2.22204e-05,3.08174e-06,7.37943e-06,9.77459e-06,0
-2.81427e-05,4.13686e-06,-1.15558e-05,1.33081e-05,1.74041e-05,2.98569e-06,7.18909e-06,1.15408e-05,0
-2.93494e-05,3.35259e-06,-1.07529e-05,4.06439e-06,1.25661e-05,5.00202e-07,8.2457e-06,1.14098e-05,0
-2.99679e-05,3.48473e-06,-9.15521e-06,-6.92064e-06,9.95122e-06,-2.30479e-06,1.07175e-05,9.63162e-06,0
-2.87357e-05,4.18949e-06,-8.70126e-06,-1.69009e-05,7.88012e-06,-3.23083e-06,1.35841e-05,8.05734e-06,0
-2.74302e-05,6.02757e-06,-1.03977e-05,-2.2818e-05,7.1531e-06,-3.17355e-06,1.53393e-05,6.57388e-06,0
-2.81815e-05,8.81903e-06,-1.40731e-05,-2.67186e-05,7.90067e-06,-2.17761e-06,1.59607e-05,5.98722e-06,0
-2.94732e-05,1.24454e-05,-1.69137e-05,-3.28588e-05,7.25019e-06,-1.41252e-06,1.58673e-05,6.47344e-06,0
-2.99311e-05,1.6601e-05,-1.66989e-05,-4.2492e-05,4.75502e-06,-2.00409e-06,1.4968e-05,6.55222e-06,0
-2.91228e-05,1.96194e-05,-1.53656e-05,-5.22088e-05,2.38745e-06,-3.0496e-06,1.25504e-05,6.53874e-06,0
-2.7345e-05,1.99198e-05,-1.42221e-05,-5.95336e-05,7.93794e-07,-4.35565e-06,1.07984e-05,7.13115e-06,0
-2.61386e-05,1.89107e-05,-1.21102e-05,-6.27942e-05,-8.47487e-07,-7.07027e-06,1.18976e-05,6.56225e-06,0
-2.65701e-05,1.71533e-05,-1.00751e-05,-6.02127e-05,-1.72961e-06,-8.89137e-06,1.55468e-05,3.68785e-06,0
-2.76179e-05,1.50199e-05,-9.13576e-06,-5.31154e-05,1.9008e-07,-8.39278e-06,1.87023e-05,5.85904e-07,0
-2.75528e-05,1.23055e-05,-7.45148e-06,-4.51242e-05,5.15519e-06,-7.92243e-06,1.8684e-05,-1.5421e-06,0
-2.64329e-05,9.15132e-06,-5.87663e-06,-3.82964e-05,1.05495e-05,-8.31657e-06,1.76857e-05,-2.59046e-06,0
-2.60525e-05,7.59635e-06,-5.35122e-06,-2.8545e-05,1.57617e-05,-9.10497e-06,1.85144e-05,-3.28266e-06,0
-2.70216e-05,5.01017e-06,-6.40355e-06,-1.57826e-05,1.90737e-05,-9.08554e-06,1.9964e-05,-3.65136e-06,0
-2.85136e-05,1.34872e-07,-7.85431e-06,-5.4716e-06,1.96333e-05,-7.70928e-06,2.20642e-05,-4.61728e-06,0
-2.96757e-05,-6.34279e-06,-8.19052e-06,4.53201e-06,1.92312e-05,-6.19357e-06,2.14437e-05,-7.25191e-06,0
-2.92099e-05,-1.03886e-05,-9.43636e-06,1.57714e-05,1.85325e-05,-5.52962e-06,1.6925e-05,-1.0432e-05,0
-2.79128e-05,-9.70906e-06,-1.25768e-05,2.5016e-05,1.67853e-05,-6.446e-06,1.42882e-05,-1.12952e-05,0
-2.85887e-05,-5.47233e-06,-1.76827e-05,2.92691e-05,1.55536e-05,-7.33325e-06,1.4713e-05,-1.04128e-05,0
-3.15786e-05,9.1439e-07,-2.12343e-05,2.39398e-05,1.73518e-05,-8.16651e-06,1.57271e-05,-1.08149e-05,0
-3.34526e-05,5.49903e-06,-2.04885e-05,1.30815e-05,1.91134e-05,-9.81855e-06,1.46374e-05,-1.04777e-05,0
-3.41463e-05,6.65021e-06,-1.80554e-05,2.61938e-06,1.95826e-05,-1.09084e-05,1.26727e-05,-9.09792e-06,0
-3.41685e-05,6.26308e-06,-1.50782e-05,-5.87837e-06,2.12709e-05,-1.10921e-05,1.4e-05,-7.69545e-06,0
-3.35371e-05,6.05749e-06,-1.24752e-05,-1.31958e-05,2.45911e-05,-1.06607e-05,1.6902e-05,-6.78454e-06,0
-3.2253e-05,5.83138e-06,-1.04628e-05,-1.81106e-05,2.60876e-05,-1.15107e-05,1.7882e-05,-6.74048e-06,0
-2.94796e-05,5.90341e-06,-9.67972e-06,-1.76581e-05,2.47512e-05,-1.33319e-05,1.58847e-05,-5.84512e-06,0
-2.78663e-05,5.69631e-06,-1.0123e-05,-1.22957e-05,2.3012e-05,-1.36305e-05,1.2559e-05,-3.69416e-06,0
-2.7545e-05,4.85793e-06,-9.36134e-06,-6.18081e-06,2.26111e-05,-1.25997e-05,1.23941e-05,-1.97941e-06,0
-2.72122e-05,3.25348e-06,-6.86697e-06,-2.23928e-06,2.15941e-05,-1.31135e-05,1.54698e-05,-1.07063e-06,0
-2.71673e-05,1.4692e-06,-4.25691e-06,-1.61283e-07,1.84819e-05,-1.43714e-05,1.83885e-05,-5.3231e-07,0
-2.77632e-05,4.38865e-07,-3.77826e-06,1.56076e-06,1.56329e-05,-1.43705e-05,2.00961e-05,-1.02326e-06,0
-2.86783e-05,1.23529e-06,-4.38841e-06,4.00817e-06,1.34415e-05,-1.39517e-05,2.15118e-05,-2.37134e-06,0
-2.903e-05,3.18672e-06,-5.86884e-06,6.45499e-06,1.23859e-05,-1.38097e-05,2.26993e-05,-2.39901e-06,0
-2.94564e-05,4.07618e-06,-8.57562e-06,7.53481e-06,1.12326e-05,-1.33636e-05,2.20228e-05,2.41783e-07,0
-3.04682e-05,3.91367e-06,-9.92141e-06,5.49954e-06,8.94753e-06,-1.2222e-05,1.83793e-05,3.52594e-06,0
-3.05177e-05,4.52226e-06,-8.94131e-06,1.54858e-06,7.6648e-06,-1.07436e-05,1.43339e-05,4.35939e-06,0
-2.91044e-05,7.77585e-06,-8.67692e-06,-1.82166e-06,8.41458e-06,-9.11757e-06,1.30785e-05,2.59587e-06,0
-2.74515e-05,1.1804e-05,-9.58742e-06,-5.28481e-06,8.07383e-06,-6.84929e-06,1.43977e-05,-1.58565e-07,0
-2.61229e-05,1.31044e-05,-1.00308e-05,-1.0535e-05,4.4462e-06,-4.97899e-06,1.74434e-05,-1.64742e-06,0
-2.63722e-05,1.23001e-05,-9.96034e-06,-1.55634e-05,1.09547e-06,-5.49625e-06,1.92297e-05,-1.53e-06,0
-2.77514e-05,1.10604e-05,-1.00602e-05,-1.96452e-05,3.99854e-06,-6.48289e-06,1.76641e-05,-2.58425e-06,0
-3.0181e-05,9.89733e-06,-1.08262e-05,-1.98009e-05,8.68431e-06,-8.22957e-06,1.53516e-05,-9.95188e-07,0
-3.15286e-05,9.9034e-06,-9.47306e-06,-1.19563e-05,9.1828e-06,-1.01931e-05,1.32739e-05,2.35912e-06,0
-2.91722e-05,1.01707e-05,-6.76493e-06,7.92726e-07,7.55093e-06,-1.21209e-05,1.09659e-05,2.37899e-06,0
-2.66484e-05,1.05293e-05,-6.20188e-06,1.17936e-05,5.5996e-06,-1.42664e-05,9.34548e-06,-2.363e-07,0
-2.6772e-05,1.01059e-05,-6.36917e-06,1.78678e-05,5.82776e-06,-1.48076e-05,1.0688e-05,-2.32255e-06,0
-2.73835e-05,1.02748e-05,-5.89632e-06,2.02229e-05,6.59056e-06,-1.4748e-05,1.3342e-05,-3.65319e-06,0
-2.86309e-05,1.18329e-05,-6.66047e-06,2.30668e-05,6.72889e-06,-1.45442e-05,1.43422e-05,-5.61108e-06,0
-3.00203e-05,1.35579e-05,-7.80637e-06,2.26994e-05,7.11678e-06,-1.50655e-05,1.35723e-05,-6.69223e-06,0
-2.87131e-05,1.54073e-05,-5.99547e-06,1.66604e-05,8.47248e-06,-1.54053e-05,1.25928e-05,-6.20107e-06,0
-2.76035e-05,1.6719e-05,-3.18879e-06,1.02647e-05,9.87473e-06,-1.5324e-05,1.24566e-05,-4.43893e-06,0
-2.8645e-05,1.73509e-05,-2.4392e-06,4.6411e-06,1.12623e-05,-1.59294e-05,1.23909e-05,-3.24121e-06,0
-3.05534e-05,1.67258e-05,-2.88187e-06,-3.99616e-07,1.18605e-05,-1.61271e-05,1.24452e-05,-3.15159e-06,0
-3.09719e-05,1.58842e-05,-2.28939e-06,-3.15452e-06,1.22065e-05,-1.44569e-05,1.32925e-05,-4.1522e-06,0
-3.07791e-05,1.62641e-05,-1.18355e-06,-3.63123e-06,1.20348e-05,-1.22342e-05,1.50635e-05,-4.35961e-06,0
-3.12589e-05,2.01286e-05,-1.35827e-06,-4.82231e-06,1.00549e-05,-1.18365e-05,1.64874e-05,-4.20064e-06,0
-3.21487e-05,2.89889e-05,-2.83224e-06,-6.70453e-06,8.32089e-06,-1.2809e-05,1.70259e-05,-4.07251e-06,0
-3.28458e-05,4.19562e-05,-4.05553e-06,-8.56466e-06,7.47595e-06,-1.29215e-05,1.59096e-05,-3.79079e-06,0
-3.22787e-05,5.4213e-05,-3.16346e-06,-9.93897e-06,8.13011e-06,-1.14843e-05,1.45433e-05,-3.7161e-06,0
-3.11611e-05,5.93957e-05,-1.31031e-06,-1.11001e-05,1.05034e-05,-9.71107e-06,1.4347e-05,-3.91756e-06,0
-3.01934e-05,5.37756e-05,-1.88742e-07,-1.22259e-05,1.31164e-05,-8.77213e-06,1.43214e-05,-4.6021e-06,0
-2.97665e-05,4.01585e-05,-3.1272e-07,-1.21313e-05,1.39325e-05,-7.96612e-06,1.35203e-05,-4.6098e-06,0
-2.95543e-05,2.5169e-05,-1.14947e-06,-1.03668e-05,1.50886e-05,-5.63778e-06,1.31913e-05,-3.75382e-06,0
-2.94481e-05,1.04495e-05,-2.56881e-06,-9.56492e-06,1.73348e-05,-3.99918e-06,1.46066e-05,-2.86208e-06,0
-3.01316e-05,-3.21066e-06,-3.4942e-06,-9.51895e-06,1.96551e-05,-4.44496e-06,1.68732e-05,-2.85012e-06,0
-3.17288e-05,-1.14384e-05,-3.48347e-06,-8.399e-06,2.12093e-05,-5.57292e-06,1.84586e-05,-2.61001e-06,0
-3.22925e-05,-1.387e-05,-4.001e-06,-7.96666e-06,2.163e-05,-6.28855e-06,1.78862e-05,-8.43276e-07,0
-3.18296e-05,-1.28041e-05,-3.85324e-06,-7.0025e-06,2.06866e-05,-6.10933e-06,1.69941e-05,1.97758e-06,0
-3.32766e-05,-7.21305e-06,-5.05184e-06,-4.11247e-06,1.97105e-05,-5.54383e-06,1.76599e-05,2.64612e-06,0
-3.533e-05,-3.75449e-07,-1.11163e-05,-1.73322e-06,1.87678e-05,-6.21537e-06,1.85854e-05,2.41537e-06,0
-3.46699e-05,3.37236e-06,-1.80974e-05,-6.83449e-07,1.71978e-05,-6.64325e-06,1.65599e-05,4.04546e-06,0
-3.32472e-05,6.47935e-06,-2.11757e-05,7.87465e-08,1.5306e-05,-6.46156e-06,1.20124e-05,4.42756e-06,0
-3.04473e-05,9.49467e-06,-1.88382e-05,2.15649e-06,1.34466e-05,-7.58492e-06,8.90089e-06,1.71691e-06,0
-2.82882e-05,9.94224e-06,-1.64513e-05,3.91307e-06,1.1736e-05,-8.91803e-06,9.58264e-06,-4.96733e-07,0
-2.93051e-05,9.6441e-06,-1.6615e-05,4.41538e-06,9.66842e-06,-8.84164e-06,1.18238e-05,-1.75544e-07,0
-3.15823e-05,8.50879e-06,-1.64509e-05,3.82946e-06,6.75048e-06,-8.24646e-06,1.20277e-05,1.51075e-07,0
-3.2607e-05,7.35148e-06,-1.55727e-05,1.91235e-06,3.9185e-06,-8.78339e-06,1.08799e-05,-1.39627e-06,0
-3.18032e-05,7.47492e-06,-1.46269e-05,3.77803e-07,2.72522e-06,-9.84719e-06,9.77967e-06,-2.73919e-06,0
-3.06759e-05,7.51782e-06,-1.59517e-05,-3.60517e-08,2.20253e-06,-1.05499e-05,1.01285e-05,-2.54399e-06,0
-2.97171e-05,7.40901e-06,-1.71601e-05,6.54132e-07,2.39183e-06,-1.01143e-05,1.09554e-05,-1.48271e-06,0
-3.01546e-05,7.67391e-06,-1.67792e-05,1.06273e-06,2.49778e-06,-9.65182e-06,9.92866e-06,4.84951e-07,0
-3.04639e-05,8.4103e-06,-1.56838e-05,1.42636e-06,1.84819e-06,-1.09385e-05,8.09758e-06,2.38635e-06,0
-2.9456e-05,6.62414e-06,-1.40756e-05,5.27369e-06,1.21157e-06,-1.30054e-05,8.11387e-06,2.59489e-06,0
-2.76451e-05,2.32234e-06,-1.2699e-05,1.51479e-05,3.28204e-06,-1.25462e-05,9.28889e-06,2.15552e-06,0
-2.62595e-05,-6.92388e-07,-1.22342e-05,2.35545e-05,6.66944e-06,-9.99544e-06,1.04801e-05,2.33595e-06,0
-2.64564e-05,-7.52888e-07,-1.2049e-05,2.24457e-05,7.72893e-06,-8.5605e-06,1.1384e-05,2.74911e-06,0
-2.88274e-05,6.29457e-07,-1.13943e-05,1.33632e-05,6.84602e-06,-9.3742e-06,1.03134e-05,3.96686e-06,0
-3.13251e-05,2.73319e-06,-1.06228e-05,2.42034e-06,6.80948e-06,-1.01323e-05,8.57181e-06,5.42354e-06,0
-3.21253e-05,5.89743e-06,-9.26823e-06,-6.16343e-06,8.22871e-06,-8.94536e-06,8.75869e-06,6.09984e-06,0
-3.13575e-05,8.57646e-06,-7.41263e-06,-1.02049e-05,8.27324e-06,-6.81977e-06,1.0174e-05,5.85573e-06,0
-3.0812e-05,9.71677e-06,-6.37767e-06,-9.95438e-06,7.90374e-06,-4.41262e-06,1.13052e-05,5.6836e-06,0
-3.13856e-05,1.00731e-05,-7.17177e-06,-6.44948e-06,1.16917e-05,-2.50208e-06,1.24924e-05,6.36471e-06,0
-3.16423e-05,1.11382e-05,-8.27561e-06,-1.23963e-06,1.89719e-05,-2.22464e-06,1.35752e-05,6.69061e-06,0
-3.09634e-05,1.40515e-05,-7.03564e-06,3.25503e-06,2.38487e-05,-2.49645e-06,1.27123e-05,5.22531e-06,0
-2.91591e-05,1.83846e-05,-3.81768e-06,3.44769e-06,2.18674e-05,-2.82073e-06,1.02536e-05,3.03802e-06,0
-2.74522e-05,2.18072e-05,-1.50326e-06,-2.96484e-06,1.96788e-05,-4.66348e-06,9.17353e-06,1.0689e-06,0
-2.76913e-05,2.02262e-05,-1.21569e-07,-9.7775e-06,2.47166e-05,-6.67675e-06,8.57591e-06,1.20278e-06,0
-2.90555e-05,1.54802e-05,1.54767e-06,-1.64038e-05,2.95792e-05,-7.56904e-06,7.87842e-06,3.46375e-06,0
-3.01628e-05,1.51779e-05,2.26958e-06,-2.92142e-05,2.48982e-05,-8.02858e-06,6.75122e-06,4.43696e-06,0
-3.02275e-05,1.74855e-05,1.12046e-06,-4.42253e-05,1.48549e-05,-9.05418e-06,7.06262e-06,5.02685e-06,0
-2.92382e-05,1.62903e-05,5.22272e-07,-5.13691e-05,8.17704e-06,-9.85461e-06,8.95904e-06,5.04388e-06,0
-2.91331e-05,1.29304e-05,2.07728e-07,-4.90178e-05,5.89986e-06,-9.77925e-06,1.00078e-05,5.21729e-06,0
-2.93418e-05,1.07171e-05,-1.24707e-06,-4.28918e-05,6.63157e-06,-9.49924e-06,9.64099e-06,7.05716e-06,0
-2.81459e-05,1.06253e-05,-2.5267e-06,-3.71264e-05,7.07955e-06,-1.10284e-05,8.91589e-06,8.28179e-06,0
-2.7247e-05,1.15452e-05,-1.51546e-06,-3.12459e-05,7.51559e-06,-1.20389e-05,8.58447e-06,8.08857e-06,0
-2.79902e-05,1.11008e-05,1.69224e-07,-2.57913e-05,8.20919e-06,-1.27247e-05,8.95127e-06,6.76151e-06,0
-2.88603e-05,9.74648e-06,-1.36525e-06,-1.84553e-05,9.58407e-06,-1.42613e-05,1.11553e-05,5.75867e-06,0
-2.94098e-05,9.81224e-06,-5.57134e-06,-6.82316e-06,1.25083e-05,-1.43476e-05,1.25417e-05,6.68109e-06,0
-2.83663e-05,1.1855e-05,-8.86764e-06,3.12403e-06,1.62379e-05,-1.388e-05,1.34126e-05,7.68259e-06,0
-2.63488e-05,1.47952e-05,-8.12651e-06,7.30311e-06,2.01229e-05,-1.30671e-05,1.44779e-05,6.16831e-06,0
-2.56626e-05,1.66202e-05,-5.5439e-06,9.33214e-06,2.3232e-05,-1.27001e-05,1.52032e-05,4.37415e-06,0
-2.70848e-05,1.65963e-05,-4.48465e-06,1.20366e-05,2.40033e-05,-1.20631e-05,1.55474e-05,4.92225e-06,0
-2.92874e-05,1.56999e-05,-5.52077e-06,1.14471e-05,2.15059e-05,-1.1933e-05,1.68856e-05,6.79702e-06,0
-3.0885e-05,1.46638e-05,-7.91671e-06,5.14343e-06,1.94054e-05,-1.22227e-05,1.85086e-05,7.01945e-06,0
-3.10138e-05,1.3589e-05,-1.04175e-05,-4.20944e-06,1.94879e-05,-1.25429e-05,1.96106e-05,5.29786e-06,0
-3.00263e-05,1.3215e-05,-1.21918e-05,-1.04945e-05,1.99039e-05,-1.33013e-05,2.12758e-05,3.3589e-06,0
-2.91886e-05,1.273e-05,-1.25019e-05,-9.43978e-06,1.79975e-05,-1.40959e-05,2.26686e-05,1.01999e-06,0
-2.79274e-05,1.03558e-05,-1.07768e-05,-5.46141e-06,1.48831e-05,-1.56691e-05,2.30188e-05,-1.63099e-06,0
-2.6256e-05,8.06963e-06,-9.23139e-06,-5.11983e-06,1.34992e-05,-1.84016e-05,2.25152e-05,-2.95167e-06,0
-2.49562e-05,7.68399e-06,-9.94882e-06,-7.05913e-06,1.46177e-05,-2.02144e-05,1.88141e-05,-1.7556e-06,0
-2.63626e-05,8.65339e-06,-1.13622e-05,-7.73421e-06,1.3974e-05,-1.89579e-05,7.21034e-06,5.63876e-07,0
-2.9567e-05,9.55303e-06,-1.19027e-05,-8.29639e-06,1.10375e-05,-1.61699e-05,-6.46143e-06,2.91738e-06,0
-3.16145e-05,9.43236e-06,-1.16299e-05,-9.95583e-06,7.83108e-06,-1.54578e-05,-1.27519e-05,5.03879e-06,0
-3.23576e-05,8.68777e-06,-1.29106e-05,-1.11476e-05,4.56873e-06,-1.75148e-05,-9.77792e-06,5.3399e-06,0
-3.24257e-05,9.3814e-06,-1.5117e-05,-8.13226e-06,4.58945e-06,-1.97206e-05,-5.64781e-07,3.64423e-06,0
-3.19904e-05,1.30087e-05,-1.52068e-05,-3.37396e-06,8.36414e-06,-2.0484e-05,8.33218e-06,2.68866e-06,0
-2.99046e-05,1.71181e-05,-1.46687e-05,1.16929e-06,1.38602e-05,-1.99457e-05,1.8344e-05,3.57937e-06,0
-2.6962e-05,1.81723e-05,-1.39106e-05,6.00391e-06,1.84926e-05,-1.68606e-05,3.09519e-05,4.42582e-06,0
-2.71662e-05,1.62377e-05,-1.30422e-05,8.54335e-06,2.12886e-05,-1.32153e-05,4.0011e-05,3.18147e-06,0
-2.89391e-05,1.52086e-05,-1.3804e-05,1.00671e-05,2.42159e-05,-1.22069e-05,3.85363e-05,1.39897e-06,0
-2.89494e-05,1.47363e-05,-1.63676e-05,1.24758e-05,2.71346e-05,-1.14342e-05,2.2699e-05,1.52566e-06,0
-2.84839e-05,1.29174e-05,-1.93126e-05,1.40063e-05,2.72956e-05,-1.08734e-05,3.15558e-06,2.66162e-06,0
-2.85516e-05,1.16741e-05,-2.06907e-05,1.20288e-05,2.42249e-05,-1.14515e-05,-7.05413e-06,3.58116e-06,0
-2.83692e-05,1.34179e-05,-1.99598e-05,8.16428e-06,1.99976e-05,-1.34506e-05,-6.08146e-06,3.17874e-06,0
-2.78429e-05,1.71205e-05,-1.81001e-05,4.88499e-06,1.75146e-05,-1.46828e-05,-2.76479e-07,1.74784e-06,0
-2.71793e-05,1.96588e-05,-1.62448e-05,9.27089e-07,1.73676e-05,-1.32593e-05,5.6896e-06,7.9341e-07,0
-2.61543e-05,1.9542e-05,-1.38641e-05,-3.93737e-06,1.66185e-05,-1.0344e-05,1.18705e-05,5.61675e-07,0
-2.5961e-05,1.78813e-05,-1.22564e-05,-6.74485e-06,1.49182e-05,-9.12429e-06,1.81637e-05,5.48144e-07,0
-2.63239e-05,1.759e-05,-1.22113e-05,-7.68224e-06,1.39557e-05,-9.91311e-06,2.30269e-05,-6.34129e-07,0
-2.6374e-05,1.9211e-05,-1.23938e-05,-8.42736e-06,1.29641e-05,-1.13762e-05,2.55479e-05,-2.92077e-06,0
-2.6539e-05,2.08221e-05,-1.09681e-05,-8.77311e-06,1.19617e-05,-1.22815e-05,2.58036e-05,-4.6983e-06,0
-2.72207e-05,2.11143e-05,-8.77516e-06,-8.05676e-06,1.22446e-05,-1.19011e-05,2.44016e-05,-5.02854e-06,0
-2.77063e-05,2.07928e-05,-8.31953e-06,-5.84695e-06,1.35147e-05,-1.09983e-05,2.2599e-05,-3.90733e-06,0
-2.72527e-05,2.14657e-05,-9.63784e-06,-3.07471e-06,1.43656e-05,-1.03112e-05,2.04428e-05,-3.47867e-06,0
-2.66093e-05,2.38603e-05,-1.1669e-05,-1.56797e-06,1.36228e-05,-1.07553e-05,1.78159e-05,-4.57688e-06,0
-2.68181e-05,2.55933e-05,-1.24918e-05,-1.24774e-06,1.20616e-05,-1.06487e-05,1.60407e-05,-5.66232e-06,0
-2.70762e-05,2.45379e-05,-9.99123e-06,-1.116e-06,1.0407e-05,-9.28764e-06,1.63047e-05,-5.93674e-06,0
-2.72781e-05,2.19372e-05,-5.26222e-06,-1.19098e-06,7.87205e-06,-8.00087e-06,1.70841e-05,-3.72913e-06,0
-2.86604e-05,2.05152e-05,-1.72307e-06,-9.45077e-07,5.3136e-06,-9.00481e-06,1.71033e-05,-6.80336e-07,0
-3.08208e-05,1.89639e-05,-1.0385e-06,-2.09197e-06,5.55713e-06,-1.09002e-05,1.44581e-05,8.32989e-08,0
-3.41098e-05,1.67239e-05,-1.9679e-06,-4.19914e-06,7.76581e-06,-1.21772e-05,1.07764e-05,6.21097e-07,0
-3.74514e-05,1.58702e-05,-1.6581e-06,-4.89127e-06,8.38954e-06,-1.2448e-05,9.61665e-06,1.53452e-06,0
-3.89198e-05,1.66222e-05,1.62719e-06,-4.19974e-06,8.1179e-06,-1.20113e-05,7.79674e-06,-4.22587e-07,0
-3.86729e-05,1.63994e-05,6.09428e-06,-6.01516e-06,9.61679e-06,-1.0666e-05,2.42775e-06,-3.12153e-06,0
-3.66973e-05,1.36043e-05,7.74092e-06,-9.82431e-06,1.31692e-05,-1.04274e-05,-4.22447e-06,-2.87061e-06,0
-3.52686e-05,1.10286e-05,6.51959e-06,-1.04197e-05,1.50698e-05,-1.0586e-05,-6.75412e-06,-1.71861e-06,0
-3.52224e-05,9.89283e-06,5.09344e-06,-8.45066e-06,1.51118e-05,-8.46278e-06,-3.02284e-06,-1.94654e-06,0
-3.41166e-05,1.01751e-05,5.00024e-06,-6.10995e-06,1.5346e-05,-6.35574e-06,2.13129e-06,-2.22929e-06,0
-3.29195e-05,9.92853e-06,5.31775e-06,-4.17731e-06,1.61026e-05,-5.06347e-06,5.11503e-06,-1.94769e-06,0
-3.35904e-05,8.71253e-06,5.65157e-06,-4.29535e-06,1.76001e-05,-5.26337e-06,6.80739e-06,-1.59308e-06,0
-3.50448e-05,7.4185e-06,4.58657e-06,-7.89712e-06,1.88158e-05,-5.2025e-06,8.45873e-06,-1.64963e-06,0
-3.59253e-05,7.77557e-06,1.43871e-06,-9.79845e-06,1.795e-05,-4.19038e-06,9.88788e-06,-2.46652e-06,0
-3.60111e-05,9.50517e-06,-3.09875e-06,-6.7497e-06,1.43446e-05,-4.06829e-06,1.15708e-05,-2.14366e-06,0
-3.5633e-05,1.11047e-05,-8.81799e-06,-2.0614e-06,1.07517e-05,-6.03009e-06,1.32477e-05,-8.77378e-08,0
-3.51968e-05,1.23361e-05,-1.41412e-05,6.89358e-07,9.13303e-06,-8.79087e-06,1.44476e-05,2.11864e-06,0
-3.51301e-05,1.31758e-05,-1.67651e-05,3.95608e-07,9.22083e-06,-1.06187e-05,1.58579e-05,2.48029e-06,0
-3.51984e-05,1.45063e-05,-1.574e-05,-5.4854e-07,9.35609e-06,-1.10218e-05,1.71327e-05,1.66566e-06,0
-3.46769e-05,1.62217e-05,-1.28858e-05,-2.64989e-07,9.33361e-06,-1.04985e-05,1.78294e-05,1.37862e-06,0
-3.31839e-05,1.76342e-05,-1.02463e-05,3.12911e-07,8.42045e-06,-1.11884e-05,1.81602e-05,2.25629e-06,0
-3.07637e-05,1.86352e-05,-8.31138e-06,-3.53789e-07,6.80816e-06,-1.25856e-05,1.81832e-05,4.00715e-06,0
-2.82961e-05,1.98765e-05,-6.50361e-06,-1.09881e-06,6.48321e-06,-1.36258e-05,1.86651e-05,5.66603e-06,0
-2.72847e-05,2.12824e-05,-5.67833e-06,-9.65518e-07,7.72884e-06,-1.32072e-05,1.93225e-05,5.2013e-06,0
-2.78606e-05,2.44416e-05,-4.78857e-06,-6.4701e-07,9.42981e-06,-1.07798e-05,1.91622e-05,2.82915e-06,0
-2.79584e-05,2.87244e-05,-3.47056e-06,-1.72991e-06,1.09931e-05,-8.42445e-06,1.87382e-05,1.61451e-06,0
-2.63494e-05,3.149e-05,-2.53879e-06,-5.56541e-06,1.16117e-05,-6.67438e-06,2.0492e-05,2.28261e-06,0
-2.50894e-05,2.91568e-05,-1.96176e-06,-1.06861e-05,9.96831e-06,-5.86173e-06,2.99333e-05,4.28438e-06,0
-2.67275e-05,2.26841e-05,-2.94426e-06,-1.21433e-05,9.10135e-06,-6.47964e-06,4.41506e-05,4.87898e-06,0
-2.76765e-05,1.58239e-05,-3.65868e-06,-9.00282e-06,1.15195e-05,-7.96822e-06,5.51786e-05,3.19348e-06,0
-2.80646e-05,7.94699e-06,-3.15812e-06,-5.96669e-06,1.35559e-05,-8.42792e-06,5.6379e-05,2.87761e-06,0
-3.0601e-05,9.68396e-07,-3.97979e-06,-4.20732e-06,1.33149e-05,-8.1944e-06,4.73349e-05,3.01275e-06,0
-3.21934e-05,-1.99421e-06,-6.97473e-06,-2.26204e-06,1.28743e-05,-8.89401e-06,3.42788e-05,2.98059e-06,0
-3.27572e-05,-2.84031e-06,-9.49154e-06,-1.26409e-06,1.28358e-05,-8.85421e-06,1.853e-05,2.85161e-06,0
-3.41646e-05,-3.18308e-06,-9.56132e-06,-3.1256e-07,1.27452e-05,-6.80115e-06,2.64766e-06,-9.64797e-08,0
-3.61464e-05,-1.56635e-06,-9.69683e-06,4.14554e-07,1.31666e-05,-4.1515e-06,-1.08164e-05,-3.07205e-06,0
-3.75206e-05,2.42637e-06,-9.64062e-06,9.46871e-07,1.47253e-05,-2.63299e-06,-1.94161e-05,-3.19206e-06,0
-3.75777e-05,6.20199e-06,-9.34719e-06,3.58047e-06,1.52929e-05,-8.43265e-07,-2.29916e-05,-9.51012e-07,0
-3.60255e-05,8.03891e-06,-9.33982e-06,5.74459e-06,1.41594e-05,-1.07624e-06,-2.22257e-05,1.78619e-06,0
-3.3918e-05,1.06592e-05,-9.38115e-06,6.04097e-06,1.26066e-05,-2.60119e-06,-1.83596e-05,3.15368e-06,0
