ch1,ch2,ch3,ch4,ch5,ch6,ch7,ch8,class
-3.01465e-05,7.20285e-06,-2.0682e-05,-2.8738e-05,-7.1467e-06,-1.8202e-05,3.23262e-05,2.35035e-07,0
-2.9251e-05,8.39123e-06,-1.42665e-05,-1.19945e-05,-5.61727e-06,-1.71677e-05,4.29755e-05,8.02982e-07,0
-2.8846e-05,8.34488e-06,-9.03684e-06,1.89387e-06,-1.14859e-06,-1.67686e-05,4.76483e-05,-1.57685e-06,0
-2.89157e-05,7.52531e-06,-3.99214e-06,1.42295e-05,4.00407e-06,-1.68545e-05,4.78458e-05,-2.17014e-06,0
-2.7931e-05,9.83552e-06,-2.47061e-06,2.30051e-05,7.55327e-06,-1.59324e-05,4.48886e-05,-1.08381e-07,0
-2.69527e-05,1.77335e-05,-4.30827e-06,2.29575e-05,1.0343e-05,-1.30554e-05,3.65654e-05,2.82151e-06,0
-2.58861e-05,2.94593e-05,-7.08776e-06,1.18642e-05,1.26936e-05,-1.11756e-05,2.33464e-05,4.52581e-06,0
-2.49733e-05,4.07575e-05,-1.06583e-05,-5.01437e-06,1.50237e-05,-9.63538e-06,7.33394e-06,4.53657e-06,0
-2.5032e-05,4.76263e-05,-1.19077e-05,-1.89124e-05,1.50815e-05,-7.6284e-06,-7.22598e-06,5.45013e-06,0
-2.52518e-05,4.94026e-05,-1.01144e-05,-2.33593e-05,1.11261e-05,-6.88493e-06,-1.88296e-05,7.51322e-06,0
-2.4659e-05,4.40322e-05,-6.14453e-06,-1.86352e-05,6.57398e-06,-6.30612e-06,-2.57088e-05,7.79134e-06,0
-2.33857e-05,2.97347e-05,-2.01182e-06,-9.92498e-06,3.76162e-06,-5.46123e-06,-2.44324e-05,6.58355e-06,0
-2.3702e-05,1.14835e-05,-4.81608e-07,-3.94852e-06,3.09557e-06,-6.17107e-06,-2.00907e-05,5.60436e-06,0
-2.48441e-05,-5.22999e-06,-2.41532e-06,-1.85539e-06,4.11462e-06,-8.55053e-06,-1.52039e-05,3.82283e-06,0
-2.48747e-05,-1.60081e-05,-5.00942e-06,-1.48288e-06,4.16765e-06,-1.07279e-05,-1.01565e-05,3.11973e-06,0
-2.46508e-05,-1.93843e-05,-5.92235e-06,-2.40619e-06,3.21023e-06,-1.10472e-05,-5.94551e-06,4.39959e-06,0
-2.42272e-05,-1.62203e-05,-4.83829e-06,-5.25169e-06,2.85954e-06,-9.9808e-06,-3.91673e-06,5.25798e-06,0
-2.37197e-05,-9.53821e-06,-2.43419e-06,-8.03337e-06,3.79682e-06,-8.58779e-06,-2.86484e-06,5.16259e-06,0
-2.3999e-05,-1.7178e-06,-2.40932e-07,-8.75056e-06,6.85181e-06,-7.16157e-06,-9.04386e-08,5.55615e-06,0
-2.43498e-05,6.67253e-06,6.49593e-07,-9.25077e-06,9.7686e-06,-5.81836e-06,4.88994e-06,6.69928e-06,0
-2.4037e-05,1.54628e-05,6.98955e-07,-9.10079e-06,1.11969e-05,-6.29307e-06,9.90018e-06,7.37161e-06,0
-2.34993e-05,2.7517e-05,-2.13756e-07,-5.44779e-06,1.35921e-05,-8.25704e-06,1.13295e-05,6.23673e-06,0
-2.33265e-05,4.03241e-05,-2.88512e-06,3.09964e-06,1.689e-05,-9.54777e-06,9.99462e-06,4.74134e-06,0
-2.41142e-05,4.73723e-05,-6.63091e-06,1.01022e-05,1.83207e-05,-9.47252e-06,9.11019e-06,3.28364e-06,0
-2.55448e-05,4.61929e-05,-8.85136e-06,9.55802e-06,1.63874e-05,-8.30661e-06,1.10674e-05,1.5647e-06,0
-2.72802e-05,4.18171e-05,-8.3844e-06,4.37875e-06,1.31179e-05,-7.66931e-06,1.48161e-05,5.80255e-07,0
-2.82007e-05,3.71429e-05,-6.39726e-06,1.0473e-06,1.14528e-05,-7.79964e-06,1.85597e-05,1.10395e-06,0
-2.8385e-05,3.19675e-05,-4.2685e-06,-6.0578e-07,1.23166e-05,-7.8842e-06,2.08614e-05,1.96942e-06,0
-2.82293e-05,2.89406e-05,-3.45348e-06,-7.16485e-06,1.45999e-05,-8.12708e-06,2.11655e-05,2.22329e-06,0
-2.74284e-05,3.03619e-05,-3.84932e-06,-2.59266e-05,1.70042e-05,-8.25316e-06,2.07197e-05,2.23309e-06,0
-2.55665e-05,3.18948e-05,-4.28645e-06,-5.40278e-05,1.85419e-05,-7.58447e-06,2.13716e-05,2.75551e-06,0
-2.55298e-05,3.00835e-05,-4.67755e-06,-7.31734e-05,1.95349e-05,-5.70649e-06,2.2231e-05,3.51538e-06,0
-2.91818e-05,2.36694e-05,-4.02859e-06,-7.31223e-05,2.12062e-05,-3.8134e-06,2.21067e-05,2.81447e-06,0
-3.34021e-05,1.4416e-05,-2.83414e-06,-6.30902e-05,2.25979e-05,-5.22617e-06,2.02659e-05,1.3908e-06,0
-3.53771e-05,8.14894e-06,-3.41038e-06,-5.30834e-05,2.38042e-05,-8.94078e-06,1.83664e-05,1.00604e-06,0
-3.42632e-05,1.1718e-05,-4.8062e-06,-4.06914e-05,2.49495e-05,-1.06835e-05,1.78475e-05,3.14543e-06,0
-3.20304e-05,2.64359e-05,-5.91912e-06,-1.41068e-05,2.52778e-05,-1.09616e-05,1.81414e-05,6.28266e-06,0
-2.98098e-05,3.83429e-05,-6.19552e-06,2.45176e-05,2.62216e-05,-1.08034e-05,1.875e-05,7.35356e-06,0
-2.77214e-05,3.75673e-05,-6.43139e-06,6.17617e-05,2.86133e-05,-8.45176e-06,1.8898e-05,5.10324e-06,0
-2.88903e-05,2.70345e-05,-6.37125e-06,8.71265e-05,3.00088e-05,-7.56304e-06,1.92216e-05,1.61583e-06,0
-3.14301e-05,1.51334e-05,-4.2258e-06,8.76697e-05,2.9639e-05,-9.74986e-06,1.99435e-05,-5.23893e-07,0
-3.14394e-05,4.26406e-06,-3.92186e-07,6.39912e-05,3.00723e-05,-1.20991e-05,2.04838e-05,-3.04499e-07,0
-3.0329e-05,-6.30589e-06,2.66687e-06,2.9312e-05,3.05165e-05,-1.14187e-05,2.05278e-05,1.37744e-07,0
-2.90348e-05,-1.23338e-05,3.70628e-06,-5.92277e-07,3.02461e-05,-9.55692e-06,2.05055e-05,-1.23444e-06,0
-2.86751e-05,-1.25341e-05,4.13458e-06,-1.57986e-05,2.97107e-05,-8.93377e-06,1.99233e-05,-2.92112e-06,0
-3.03739e-05,-1.02533e-05,4.76682e-06,-1.62255e-05,2.90199e-05,-9.1745e-06,1.90024e-05,-1.73151e-06,0
-3.2414e-05,-8.28421e-06,6.12881e-06,-6.38534e-06,2.79621e-05,-9.92923e-06,1.91855e-05,1.18712e-06,0
-3.30845e-05,-7.6923e-06,6.78e-06,7.37168e-06,2.61543e-05,-1.07487e-05,2.16656e-05,2.33192e-06,0
-3.21893e-05,-5.78493e-06,4.7885e-06,1.90225e-05,2.46557e-05,-1.14225e-05,2.45809e-05,1.90021e-06,0
-3.0414e-05,3.30573e-06,6.40947e-07,2.40986e-05,2.32629e-05,-1.07508e-05,2.71551e-05,5.29509e-07,0
-2.9363e-05,2.12219e-05,-5.10251e-06,2.09985e-05,2.04577e-05,-1.05147e-05,2.89969e-05,-1.51443e-06,0
-2.95858e-05,4.36705e-05,-1.19102e-05,1.12269e-05,1.61281e-05,-1.10341e-05,2.89253e-05,-3.16167e-06,0
-2.98592e-05,6.40527e-05,-1.68105e-05,7.81526e-07,1.32666e-05,-1.25156e-05,2.66006e-05,-2.937e-06,0
-2.96983e-05,7.81412e-05,-1.54312e-05,-4.97726e-06,1.31124e-05,-1.52386e-05,2.38679e-05,-2.32151e-06,0
-2.98603e-05,8.52924e-05,-7.9296e-06,-6.62095e-06,1.41713e-05,-1.75822e-05,2.19852e-05,-2.36985e-06,0
-3.05193e-05,8.24587e-05,-2.18648e-06,-7.95474e-06,1.57856e-05,-1.88604e-05,2.04282e-05,-1.9731e-06,0
-3.16864e-05,6.33245e-05,-4.53085e-06,-9.59532e-06,1.8485e-05,-2.06498e-05,1.92566e-05,-5.91188e-07,0
-3.28116e-05,3.04059e-05,-1.19292e-05,-1.02863e-05,1.94523e-05,-2.12652e-05,1.8024e-05,-3.22575e-07,0
-3.31286e-05,9.29625e-07,-2.06745e-05,-8.27125e-06,1.7173e-05,-1.96976e-05,1.70822e-05,-8.47758e-07,0
-3.30087e-05,-1.48821e-05,-3.23052e-05,-3.79848e-06,1.49687e-05,-1.78591e-05,1.67781e-05,-9.55235e-07,0
-3.29601e-05,-2.42237e-05,-4.49944e-05,-4.73211e-07,1.35732e-05,-1.9212e-05,1.6048e-05,-6.04052e-07,0
-3.10766e-05,-2.9755e-05,-5.11992e-05,1.41848e-06,1.31743e-05,-2.21757e-05,1.35156e-05,6.72314e-07,0
-2.97656e-05,-3.18506e-05,-4.56698e-05,3.06837e-06,1.49066e-05,-2.27023e-05,1.27848e-05,2.41945e-06,0
-3.20211e-05,-3.36805e-05,-3.15333e-05,2.47757e-06,1.66362e-05,-1.98348e-05,1.45708e-05,2.07503e-06,0
-3.38956e-05,-3.94571e-05,-1.86867e-05,-2.11636e-06,1.71599e-05,-1.52569e-05,1.58124e-05,5.844e-07,0
-3.33542e-05,-4.74484e-05,-1.203e-05,-8.09845e-06,1.60542e-05,-1.41546e-05,1.52487e-05,1.49436e-06,0
-3.25353e-05,-4.94181e-05,-9.21038e-06,-1.11548e-05,1.2775e-05,-1.59393e-05,1.29396e-05,1.60272e-06,0
-3.2618e-05,-4.09132e-05,-9.23449e-06,-1.22143e-05,9.78896e-06,-1.74774e-05,1.07561e-05,-3.7017e-07,0
-3.36578e-05,-2.19552e-05,-1.006e-05,-1.18405e-05,8.20174e-06,-1.78883e-05,9.81717e-06,-2.98795e-06,0
-3.5092e-05,-1.53937e-06,-1.05921e-05,-9.20623e-06,6.92833e-06,-1.77817e-05,8.96787e-06,-4.03861e-06,0
-3.54963e-05,1.26029e-05,-1.12445e-05,-5.79464e-06,6.1317e-06,-1.79615e-05,8.1575e-06,-2.67499e-06,0
-3.48042e-05,1.75808e-05,-1.18132e-05,-4.48465e-06,7.38367e-06,-1.88564e-05,6.52254e-06,-1.32603e-06,0
-3.34104e-05,1.28411e-05,-1.34326e-05,-5.48336e-06,7.76387e-06,-1.83238e-05,4.96186e-06,-4.13405e-07,0
-3.17214e-05,5.45993e-07,-1.45968e-05,-7.47266e-06,5.34161e-06,-1.61276e-05,5.9897e-06,-7.98675e-08,0
-3.02253e-05,-1.35775e-05,-1.41132e-05,-9.30347e-06,2.32743e-06,-1.40086e-05,8.0216e-06,-5.91225e-07,0
-3.02076e-05,-2.11237e-05,-1.35679e-05,-9.01397e-06,6.38773e-07,-1.24038e-05,9.11327e-06,-9.65264e-07,0
-3.178e-05,-1.89453e-05,-1.3444e-05,-7.30678e-06,9.00545e-07,-1.13678e-05,7.56008e-06,-4.5337e-07,0
-3.25411e-05,-1.22523e-05,-1.15219e-05,-3.70266e-06,3.33114e-06,-1.03527e-05,3.94516e-06,-6.70228e-07,0
-3.15058e-05,-6.45727e-06,-7.42251e-06,2.56659e-06,8.5535e-06,-8.65871e-06,9.55488e-07,-2.77478e-06,0
-3.01428e-05,-5.80547e-07,-3.36426e-06,1.05941e-05,1.46836e-05,-6.33947e-06,9.0426e-07,-5.50014e-06,0
-2.93793e-05,5.34701e-06,-5.46485e-07,1.60574e-05,1.78899e-05,-4.03264e-06,2.95538e-06,-7.4747e-06,0
-2.92887e-05,1.0642e-05,1.75132e-07,1.40106e-05,1.55065e-05,-2.98043e-06,6.20514e-06,-7.83741e-06,0
-2.98604e-05,1.67686e-05,-1.11804e-06,4.3589e-06,8.81583e-06,-4.07695e-06,9.53995e-06,-7.86987e-06,0
-3.08321e-05,2.05284e-05,-1.94703e-06,-5.78571e-06,3.63703e-06,-6.75542e-06,1.19161e-05,-7.84345e-06,0
-3.19627e-05,1.86604e-05,-2.74009e-06,-1.07009e-05,3.52391e-06,-8.05938e-06,1.40167e-05,-5.45158e-06,0
-3.21227e-05,1.59258e-05,-2.58119e-06,-1.09917e-05,5.77938e-06,-6.06843e-06,1.57126e-05,-2.24378e-06,0
-3.1823e-05,1.63874e-05,-5.68472e-07,-9.81154e-06,1.01165e-05,-4.04042e-06,1.66074e-05,-8.47686e-07,0
-3.14981e-05,1.81391e-05,1.50643e-07,-8.48621e-06,1.2735e-05,-4.31489e-06,1.6625e-05,-2.16635e-06,0
-2.99347e-05,1.81478e-05,1.95349e-06,-8.56285e-06,1.24734e-05,-5.24759e-06,1.59272e-05,-4.16652e-06,0
-2.89996e-05,1.8338e-05,6.35648e-06,-1.07368e-05,1.32034e-05,-5.70203e-06,1.35529e-05,-3.30287e-06,0
-2.8713e-05,2.02283e-05,8.57213e-06,-1.31363e-05,1.37926e-05,-6.23313e-06,1.11747e-05,-2.32926e-06,0
-2.79438e-05,2.09153e-05,6.38218e-06,-1.85434e-05,1.37455e-05,-5.08462e-06,1.14623e-05,-2.77991e-06,0
-2.77519e-05,2.12048e-05,2.32779e-06,-2.31294e-05,1.50326e-05,-4.66351e-06,1.35183e-05,-2.62511e-06,0
-2.77891e-05,2.09187e-05,-8.63962e-07,-2.14936e-05,1.59356e-05,-6.57202e-06,1.41109e-05,-1.92361e-06,0
-2.85253e-05,1.9056e-05,-2.39786e-06,-1.40585e-05,1.16742e-05,-7.61994e-06,1.29704e-05,-1.10378e-06,0
-3.01445e-05,1.71927e-05,-3.11872e-06,-5.47911e-06,6.51763e-06,-7.19199e-06,1.16623e-05,1.00479e-07,0
-3.27859e-05,1.88877e-05,-5.09262e-06,7.20888e-07,5.76191e-06,-5.30324e-06,1.03266e-05,2.56953e-06,0
-3.41772e-05,2.83494e-05,-9.54307e-06,5.11282e-06,9.58493e-06,-3.00643e-06,1.05398e-05,5.42158e-06,0
-3.22692e-05,4.23103e-05,-1.38853e-05,6.8827e-06,1.44444e-05,-2.17584e-06,1.18151e-05,5.87765e-06,0
-2.95649e-05,5.20518e-05,-1.81613e-05,6.18675e-06,1.71164e-05,-1.5449e-06,1.18463e-05,5.15486e-06,0
-2.81969e-05,5.20576e-05,-2.24372e-05,3.85428e-06,1.65771e-05,-6.57149e-07,1.19243e-05,5.84624e-06,0
-2.88948e-05,4.1609e-05,-2.49601e-05,2.19122e-06,1.38326e-05,-1.09691e-06,1.41017e-05,7.1593e-06,0
-3.03385e-05,2.45723e-05,-2.50517e-05,-1.06936e-07,1.09331e-05,-1.67499e-06,1.61115e-05,8.51593e-06,0
-3.07116e-05,8.153e-06,-2.30424e-05,-5.77557e-06,8.68607e-06,-1.00702e-06,1.64597e-05,8.35799e-06,0
-2.9779e-05,-3.83038e-06,-2.09097e-05,-1.39218e-05,7.83753e-06,-1.86597e-07,1.64996e-05,5.76007e-06,0
-2.806e-05,-1.33767e-05,-1.89392e-05,-2.09422e-05,8.33175e-06,-5.63489e-07,1.68125e-05,2.48027e-06,0
-2.64618e-05,-2.20996e-05,-1.59529e-05,-2.45901e-05,9.70105e-06,-6.24959e-07,1.70732e-05,-1.91074e-07,0
-2.60405e-05,-2.62814e-05,-1.21537e-05,-2.67091e-05,1.00238e-05,-5.09968e-08,1.61246e-05,-2.36201e-06,0
-2.7375e-05,-2.39503e-05,-9.97167e-06,-2.7832e-05,8.74031e-06,5.36586e-09,1.38816e-05,-3.22964e-06,0
-2.93782e-05,-1.97599e-05,-9.19052e-06,-2.59191e-05,5.85078e-06,-3.09457e-08,1.08456e-05,-3.78346e-06,0
-2.98647e-05,-1.56173e-05,-8.5626e-06,-2.31679e-05,4.43572e-06,9.16809e-07,5.56365e-06,-4.83521e-06,0
-2.87279e-05,-8.2099e-06,-6.39612e-06,-2.20041e-05,6.20713e-06,2.77429e-06,-3.11463e-07,-4.73306e-06,0
-2.77607e-05,2.47996e-06,-3.09682e-06,-1.83592e-05,9.1796e-06,3.80703e-06,-9.84298e-07,-3.47213e-06,0
-2.81857e-05,1.26351e-05,-1.0574e-06,-1.16573e-05,1.29468e-05,3.12223e-06,2.04554e-06,-1.28546e-06,0
-2.94032e-05,1.8086e-05,-3.69025e-07,-7.631e-06,1.69343e-05,2.78688e-06,2.15084e-06,5.54983e-07,0
-2.95141e-05,1.90104e-05,-9.9339e-07,-7.90045e-06,2.05824e-05,1.81631e-06,5.09561e-07,1.72118e-06,0
-2.87382e-05,1.90664e-05,-2.76595e-06,-5.94389e-06,2.26165e-05,7.3812e-07,6.25681e-07,8.95171e-07,0
-2.89457e-05,1.93067e-05,-4.04838e-06,4.69911e-07,2.26385e-05,1.82747e-06,2.47812e-06,-7.72453e-07,0
-2.9578e-05,2.02631e-05,-4.95571e-06,5.79864e-06,2.14555e-05,2.08245e-06,6.80269e-06,-9.21614e-07,0
-3.03191e-05,2.37104e-05,-5.06091e-06,8.17391e-06,1.86968e-05,-2.27616e-08,1.1028e-05,-2.09897e-06,0
-3.16161e-05,2.72566e-05,-4.31605e-06,8.04902e-06,1.55737e-05,-3.52297e-06,1.22615e-05,-1.30223e-06,0
-3.31981e-05,2.93439e-05,-4.22143e-06,5.58836e-06,1.35956e-05,-7.1177e-06,1.35726e-05,2.42806e-06,0
-3.34014e-05,3.13812e-05,-5.0888e-06,2.26093e-06,1.26668e-05,-1.03852e-05,1.83856e-05,3.88929e-06,0
-3.14292e-05,3.2281e-05,-6.67859e-06,-9.2816e-07,1.12286e-05,-1.21468e-05,2.45322e-05,2.25763e-06,0
-2.96882e-05,3.20237e-05,-6.75717e-06,-3.34612e-06,1.03466e-05,-1.30491e-05,2.76979e-05,-1.84688e-07,0
-3.01496e-05,2.99832e-05,-4.71214e-06,1.97658e-06,1.0703e-05,-1.44083e-05,2.62561e-05,-1.79903e-06,0
-3.1749e-05,2.603e-05,-2.97588e-06,1.89781e-05,1.10622e-05,-1.52879e-05,2.22748e-05,-2.28163e-06,0
-3.23745e-05,2.2597e-05,-3.94574e-06,3.31384e-05,1.11764e-05,-1.48152e-05,1.81973e-05,-1.9428e-06,0
-3.20559e-05,2.11779e-05,-5.18716e-06,2.79956e-05,1.19278e-05,-1.39794e-05,1.42972e-05,-1.75724e-06,0
-3.19501e-05,2.07194e-05,-5.08058e-06,4.17837e-06,1.34593e-05,-1.28891e-05,9.14574e-06,-2.23355e-06,0
-3.33246e-05,1.92319e-05,-5.48042e-06,-2.30525e-05,1.3615e-05,-1.12291e-05,4.32609e-06,-3.56265e-06,0
-3.47459e-05,1.68311e-05,-7.97821e-06,-4.02058e-05,1.16346e-05,-1.0388e-05,3.82482e-06,-5.0333e-06,0
-3.46429e-05,1.69772e-05,-1.20805e-05,-4.38912e-05,9.21549e-06,-1.07255e-05,9.24701e-06,-6.00743e-06,0
-3.36699e-05,2.14549e-05,-1.53299e-05,-3.86387e-05,9.42312e-06,-1.12494e-05,1.78069e-05,-6.3546e-06,0
-3.24938e-05,2.67406e-05,-1.63767e-05,-3.11139e-05,1.24037e-05,-1.11601e-05,2.26559e-05,-3.81651e-06,0
-3.0686e-05,2.97486e-05,-1.48003e-05,-2.58828e-05,1.55984e-05,-1.08031e-05,2.29347e-05,9.42415e-07,0
-2.88876e-05,2.96746e-05,-1.19977e-05,-2.26877e-05,1.66047e-05,-1.0337e-05,2.22877e-05,3.81158e-06,0
-2.92559e-05,2.6733e-05,-9.82113e-06,-1.2898e-05,1.56056e-05,-1.08869e-05,2.11154e-05,3.99247e-06,0
-3.13653e-05,2.17881e-05,-8.81401e-06,7.51164e-06,1.28026e-05,-1.32186e-05,1.88339e-05,2.58773e-06,0
-3.25942e-05,1.72054e-05,-9.91068e-06,2.51784e-05,9.71793e-06,-1.61161e-05,1.52435e-05,1.66703e-06,0
-3.16107e-05,1.42891e-05,-1.1206e-05,2.72515e-05,8.58025e-06,-1.70268e-05,1.05494e-05,1.90451e-06,0
-2.94288e-05,1.23142e-05,-1.00884e-05,1.73214e-05,7.50269e-06,-1.67449e-05,4.63379e-06,2.69284e-06,0
-2.88858e-05,1.11014e-05,-7.83864e-06,4.31046e-06,5.49057e-06,-1.59956e-05,-3.45649e-06,4.62239e-06,0
-2.8766e-05,8.52827e-06,-5.21992e-06,-4.20275e-06,4.08259e-06,-1.45528e-05,-1.02314e-05,5.19704e-06,0
-2.73565e-05,3.47081e-06,-3.91992e-06,-9.67774e-06,3.11245e-06,-1.45116e-05,-1.37488e-05,3.00391e-06,0
-2.75177e-05,1.63268e-06,-4.73808e-06,-1.24208e-05,2.87874e-06,-1.41812e-05,-1.73549e-05,1.45839e-06,0
-2.86004e-05,7.34648e-06,-4.56135e-06,-8.72908e-06,3.32614e-06,-1.35705e-05,-2.09358e-05,1.49486e-06,0
-3.01372e-05,1.28241e-05,-3.13983e-06,-5.38519e-06,5.80411e-06,-1.38869e-05,-2.08512e-05,1.27693e-06,0
-3.06332e-05,1.35261e-05,-1.16125e-06,-8.93764e-06,9.47909e-06,-1.36954e-05,-1.61857e-05,8.3467e-07,0
-2.82281e-05,1.05733e-05,1.8535e-06,-1.84881e-05,1.19551e-05,-1.23722e-05,-1.20695e-05,9.5545e-07,0
-2.65309e-05,5.58063e-06,3.1823e-06,-2.55176e-05,1.35193e-05,-1.00238e-05,-9.19063e-06,1.5088e-06,0
-2.74966e-05,9.0117e-07,2.52042e-06,-2.75313e-05,1.38245e-05,-7.84063e-06,-1.86422e-06,1.94337e-06,0
-2.92634e-05,-1.90246e-06,1.81297e-06,-2.87656e-05,1.40312e-05,-7.17941e-06,9.09732e-06,2.20485e-06,0
-2.98958e-05,-1.79236e-06,1.69946e-06,-3.3601e-05,1.42694e-05,-8.89613e-06,1.93671e-05,2.49146e-06,0
-2.9697e-05,-1.76738e-06,7.46791e-07,-4.05359e-05,1.2598e-05,-1.14574e-05,2.54487e-05,3.173e-06,0
-2.99999e-05,-3.70501e-06,-1.16795e-06,-3.9863e-05,8.16197e-06,-1.39087e-05,2.72665e-05,3.94254e-06,0
-3.03037e-05,-7.7e-06,-3.92103e-06,-2.79321e-05,4.01657e-06,-1.47989e-05,2.67614e-05,5.04745e-06,0
-3.05279e-05,-1.13889e-05,-7.9269e-06,-1.19188e-05,2.75864e-06,-1.41358e-05,2.5404e-05,5.61281e-06,0
-3.17374e-05,-1.21291e-05,-1.26539e-05,-1.34854e-06,3.83371e-06,-1.3739e-05,2.41338e-05,5.01724e-06,0
-3.38646e-05,-7.91855e-06,-1.69641e-05,3.29302e-06,5.68042e-06,-1.23502e-05,2.36244e-05,4.23502e-06,0
-3.55957e-05,-1.55572e-07,-1.87178e-05,5.88524e-06,7.68324e-06,-1.01565e-05,2.40894e-05,3.07685e-06,0
-3.56343e-05,8.41034e-06,-1.79192e-05,8.27391e-06,9.4223e-06,-8.98579e-06,2.39881e-05,1.45189e-06,0
-3.42034e-05,1.9517e-05,-1.57967e-05,8.68381e-06,9.61299e-06,-8.50914e-06,2.29242e-05,5.07461e-08,0
-3.2326e-05,3.49269e-05,-1.26128e-05,7.71537e-06,9.47761e-06,-7.55319e-06,2.18494e-05,-8.07464e-07,0
-3.10083e-05,4.82218e-05,-5.99524e-06,7.20704e-06,1.12713e-05,-7.21081e-06,2.11785e-05,2.44457e-07,0
-2.98808e-05,5.2268e-05,4.0933e-06,6.97914e-06,1.42568e-05,-8.25182e-06,1.97394e-05,2.22229e-06,0
-2.96802e-05,4.57209e-05,1.43245e-05,4.68879e-06,1.63927e-05,-9.61614e-06,1.83612e-05,1.72886e-06,0
-3.08542e-05,3.34858e-05,2.24842e-05,-2.96921e-06,1.52771e-05,-1.07792e-05,1.77481e-05,-6.03886e-07,0
-3.15103e-05,2.34868e-05,2.62376e-05,-1.15642e-05,1.30276e-05,-1.11646e-05,1.73776e-05,-1.92046e-06,0
-3.1587e-05,1.65258e-05,2.10924e-05,-1.27921e-05,1.298e-05,-1.00538e-05,1.72204e-05,-2.88944e-07,0
-3.21941e-05,1.337e-05,7.35944e-06,-9.61449e-06,1.26525e-05,-7.54227e-06,1.69431e-05,1.94806e-06,0
-3.25191e-05,1.07369e-05,-1.28624e-05,-5.88204e-06,9.86039e-06,-5.62233e-06,1.55441e-05,1.78125e-06,0
-3.23036e-05,3.1668e-06,-3.53999e-05,-6.48936e-07,6.76797e-06,-5.69701e-06,1.27309e-05,4.97399e-07,0
-3.16433e-05,-5.52614e-06,-5.32434e-05,4.31193e-06,5.86386e-06,-6.40252e-06,7.68227e-06,2.10953e-07,0
-3.03956e-05,-5.89984e-06,-6.06157e-05,9.68939e-06,6.59621e-06,-7.14222e-06,3.51594e-06,8.3315e-07,0
-3.04492e-05,7.05876e-06,-5.73372e-05,1.45907e-05,9.48251e-06,-7.51486e-06,4.58116e-06,1.89494e-06,0
-3.16815e-05,2.65646e-05,-4.95425e-05,1.74628e-05,1.5823e-05,-8.27161e-06,9.58417e-06,2.40285e-06,0
-3.32505e-05,4.32451e-05,-4.04259e-05,1.54724e-05,2.34349e-05,-7.81863e-06,1.35837e-05,3.28519e-06,0
-3.34771e-05,5.13745e-05,-3.23659e-05,7.50154e-06,2.89629e-05,-5.57032e-06,1.36709e-05,5.02984e-06,0
-3.21596e-05,5.02234e-05,-2.53003e-05,-4.95629e-07,3.16959e-05,-5.11777e-06,1.17652e-05,6.22783e-06,0
-3.0648e-05,4.14501e-05,-1.85804e-05,-4.86901e-06,3.36312e-05,-7.70047e-06,1.05516e-05,7.21067e-06,0
-2.98695e-05,2.73432e-05,-1.11448e-05,-5.59321e-06,3.49928e-05,-1.03491e-05,1.23274e-05,8.94938e-06,0
-3.01639e-05,1.07726e-05,-4.32381e-06,-3.10985e-06,3.50175e-05,-1.16469e-05,1.62817e-05,1.0106e-05,0
-3.13288e-05,-5.40139e-06,-9.10029e-07,1.9254e-06,3.44388e-05,-1.18069e-05,1.82129e-05,9.83149e-06,0
-3.23386e-05,-1.48921e-05,-3.09951e-07,6.14872e-06,3.29947e-05,-1.03007e-05,1.64507e-05,9.19916e-06,0
-3.16672e-05,-1.52098e-05,-1.24326e-06,3.68658e-06,3.05908e-05,-8.74757e-06,1.38034e-05,7.71418e-06,0
-3.05883e-05,-8.57621e-06,-6.18841e-07,-6.69753e-06,2.89598e-05,-8.04153e-06,1.27947e-05,6.28762e-06,0
-3.06322e-05,2.40387e-08,1.8862e-06,-1.96684e-05,2.98329e-05,-7.68879e-06,1.29439e-05,5.83747e-06,0
-3.15658e-05,5.72428e-06,3.59517e-06,-2.81445e-05,3.10667e-05,-7.80664e-06,1.04583e-05,6.45024e-06,0
-3.16621e-05,6.83251e-06,3.66506e-06,-2.76386e-05,3.00356e-05,-9.5164e-06,2.19783e-06,6.48276e-06,0
-3.13834e-05,5.57821e-06,2.96522e-06,-1.89654e-05,2.79301e-05,-1.14946e-05,-9.52504e-06,5.81738e-06,0
-3.11168e-05,7.23425e-06,1.84661e-06,-7.49177e-06,2.65142e-05,-1.29051e-05,-1.67867e-05,5.34506e-06,0
-3.04296e-05,1.41231e-05,-1.79248e-07,4.32801e-06,2.41554e-05,-1.27063e-05,-1.34153e-05,4.16867e-06,0
-2.88967e-05,2.24245e-05,-2.57942e-06,1.45394e-05,2.0516e-05,-1.11699e-05,-1.43695e-06,3.84481e-06,0
-2.73991e-05,2.68509e-05,-4.39411e-06,1.757e-05,1.77076e-05,-1.09078e-05,1.18379e-05,4.70075e-06,0
-2.65843e-05,2.67229e-05,-7.46181e-06,1.09783e-05,1.60653e-05,-1.18062e-05,2.06389e-05,3.5152e-06,0
-2.7286e-05,2.41661e-05,-1.13823e-05,3.83758e-06,1.47566e-05,-1.31002e-05,2.553e-05,1.28587e-06,0
-2.94331e-05,2.08079e-05,-1.44096e-05,7.08843e-06,1.53996e-05,-1.27304e-05,2.79823e-05,-6.26756e-07,0
-3.0611e-05,1.81356e-05,-1.71078e-05,1.84927e-05,1.65426e-05,-1.18267e-05,2.06662e-05,-2.36981e-06,0
-2.97571e-05,1.63654e-05,-2.00118e-05,3.01158e-05,1.63316e-05,-1.28702e-05,3.49575e-06,-3.25962e-06,0
-2.78157e-05,1.58098e-05,-2.19932e-05,3.84529e-05,1.65352e-05,-1.28004e-05,-8.99161e-06,-4.55356e-06,0
-2.7064e-05,1.64985e-05,-2.04473e-05,3.88004e-05,1.51653e-05,-1.22632e-05,-7.76414e-06,-4.261e-06,0
-2.70523e-05,1.65929e-05,-1.47499e-05,2.71557e-05,1.2885e-05,-1.23109e-05,3.40807e-06,-3.08195e-06,0
-2.75079e-05,1.62276e-05,-4.09464e-06,9.44226e-06,1.1498e-05,-1.15954e-05,1.68681e-05,-3.29722e-06,0
-2.93737e-05,1.41651e-05,1.10148e-05,-4.37108e-06,1.06712e-05,-1.10343e-05,2.85809e-05,-3.2458e-06,0
-3.22763e-05,1.22618e-05,2.64106e-05,-1.38201e-05,8.46563e-06,-1.06316e-05,4.06857e-05,-3.1727e-06,0
-3.3976e-05,1.38666e-05,4.2097e-05,-2.07403e-05,6.26568e-06,-9.70732e-06,5.76721e-05,-4.5961e-06,0
-3.32235e-05,1.64648e-05,5.59313e-05,-2.56665e-05,5.02642e-06,-8.14454e-06,7.54082e-05,-5.98376e-06,0
-3.0655e-05,1.70523e-05,5.91309e-05,-3.06311e-05,2.31113e-06,-6.45993e-06,8.45963e-05,-5.88615e-06,0
-2.78946e-05,1.66452e-05,4.66302e-05,-3.52525e-05,-5.5912e-07,-5.10869e-06,8.17937e-05,-5.27189e-06,0
-2.7562e-05,1.7048e-05,2.00879e-05,-3.83939e-05,-7.17106e-07,-4.48385e-06,7.04374e-05,-4.40193e-06,0
-2.93018e-05,1.84593e-05,-1.40142e-05,-3.8536e-05,2.56133e-06,-5.32381e-06,5.51343e-05,-3.29981e-06,0
-3.05873e-05,1.93468e-05,-4.62803e-05,-3.56696e-05,6.39385e-06,-7.85156e-06,3.94098e-05,-2.64659e-06,0
-2.93454e-05,1.87025e-05,-6.65555e-05,-2.85557e-05,7.86847e-06,-9.62491e-06,2.41359e-05,-2.92241e-06,0
-2.77218e-05,1.76111e-05,-7.07537e-05,-1.71334e-05,6.62378e-06,-9.08066e-06,8.69299e-06,-3.19591e-06,0
-2.79199e-05,1.71655e-05,-6.12976e-05,-2.65281e-06,5.8045e-06,-7.57335e-06,-5.1584e-06,-3.42569e-06,0
-2.90514e-05,1.68765e-05,-4.50547e-05,1.10756e-05,7.52602e-06,-6.91561e-06,-1.56577e-05,-4.54011e-06,0
-3.06724e-05,1.6415e-05,-2.96702e-05,1.95917e-05,9.18737e-06,-5.74704e-06,-2.17322e-05,-5.98457e-06,0
-3.09671e-05,1.67167e-05,-1.93266e-05,1.98736e-05,8.62166e-06,-3.44928e-06,-2.29002e-05,-5.72155e-06,0
-2.91543e-05,1.62593e-05,-1.23763e-05,1.37963e-05,6.75801e-06,-2.17775e-06,-2.00996e-05,-4.79182e-06,0
-2.71324e-05,1.67689e-05,-6.47153e-06,6.05206e-06,3.92651e-06,-3.02332e-06,-1.43266e-05,-5.27798e-06,0
-2.68424e-05,1.82934e-05,-3.00213e-06,-2.76556e-06,8.24929e-07,-6.24949e-06,-7.5018e-06,-3.90628e-06,0
-2.77586e-05,1.96409e-05,-2.13695e-06,-9.64073e-06,-4.6528e-08,-8.57392e-06,-1.92598e-06,4.95852e-07,0
-2.86321e-05,2.18726e-05,-4.40384e-06,-1.11045e-05,1.96939e-06,-6.09245e-06,-1.033e-06,3.06028e-06,0
-2.83629e-05,2.02505e-05,-7.34532e-06,-4.43791e-06,4.33886e-06,-3.77763e-06,-1.72435e-06,3.38813e-06,0
-2.72014e-05,1.56817e-05,-7.75358e-06,8.24508e-06,5.77281e-06,-4.48887e-06,2.20697e-06,3.61189e-06,0
-2.72072e-05,1.22596e-05,-5.61363e-06,1.48741e-05,6.12645e-06,-5.7396e-06,8.73924e-06,2.73194e-06,0
-2.75623e-05,1.15165e-05,-1.21089e-06,9.26275e-06,6.5777e-06,-6.51194e-06,1.20661e-05,2.68289e-06,0
-2.66957e-05,1.29152e-05,2.71691e-06,-3.82433e-06,5.20279e-06,-6.36995e-06,1.07798e-05,4.7275e-06,0
-2.62907e-05,1.32618e-05,5.49764e-06,-1.70753e-05,2.09206e-06,-6.64252e-06,9.95196e-06,6.01347e-06,0
-2.71101e-05,1.40676e-05,6.50039e-06,-2.4968e-05,2.56142e-06,-7.49706e-06,1.07541e-05,4.54604e-06,0
-2.77539e-05,1.64202e-05,4.06704e-06,-2.63571e-05,8.20823e-06,-9.4187e-06,1.17707e-05,2.6404e-06,0
-2.75798e-05,1.7888e-05,-1.45227e-07,-2.28949e-05,1.50554e-05,-1.06205e-05,1.18264e-05,1.91714e-06,0
-2.75198e-05,1.68783e-05,-2.87456e-06,-1.97927e-05,1.76407e-05,-1.11811e-05,1.05116e-05,1.66647e-06,0
-2.81179e-05,1.50396e-05,-3.07287e-06,-1.96302e-05,1.57525e-05,-1.09316e-05,8.58134e-06,2.24322e-06,0
-2.87587e-05,1.46222e-05,-2.87873e-06,-2.01583e-05,1.19733e-05,-1.0085e-05,7.98714e-06,3.41063e-06,0
-2.88288e-05,1.61264e-05,-2.83459e-06,-2.00503e-05,9.29788e-06,-9.46859e-06,9.36173e-06,2.58503e-06,0
-2.87354e-05,1.72689e-05,-2.60337e-06,-2.00636e-05,7.65965e-06,-9.12017e-06,1.04294e-05,6.73285e-07,0
-2.92647e-05,1.80291e-05,-1.82611e-06,-1.88402e-05,6.59783e-06,-1.01505e-05,1.03055e-05,3.85166e-07,0
-2.96986e-05,1.98349e-05,-8.12356e-07,-1.50443e-05,7.39513e-06,-1.248e-05,9.29012e-06,5.87576e-08,0
-2.97176e-05,2.06641e-05,-1.10179e-06,-1.07361e-05,1.00424e-05,-1.43862e-05,8.46012e-06,-7.71031e-07,0
-2.98852e-05,1.87582e-05,-5.54912e-06,-9.05618e-06,1.2834e-05,-1.5217e-05,8.51817e-06,-1.17034e-06,0
-3.04974e-05,1.57119e-05,-1.34059e-05,-9.61908e-06,1.48269e-05,-1.61755e-05,9.26261e-06,-1.35903e-06,0
-3.11021e-05,1.37804e-05,-2.02729e-05,-9.93112e-06,1.53666e-05,-1.53544e-05,9.7986e-06,5.67478e-07,0
-3.13714e-05,1.16223e-05,-2.38134e-05,-1.04269e-05,1.48704e-05,-1.28239e-05,9.65492e-06,5.08259e-06,0
-3.14519e-05,9.03022e-06,-2.47851e-05,-1.18151e-05,1.44746e-05,-1.10722e-05,8.45309e-06,7.03149e-06,0
-3.17926e-05,7.73047e-06,-2.4167e-05,-1.15438e-05,1.42998e-05,-1.19235e-05,5.48109e-06,5.71819e-06,0
-3.27264e-05,6.46279e-06,-2.35112e-05,-8.16593e-06,1.3557e-05,-1.31049e-05,9.87346e-07,4.50855e-06,0
-3.37464e-05,5.25127e-06,-2.17923e-05,-4.6258e-06,1.17343e-05,-1.36599e-05,-1.58317e-06,3.82668e-06,0
-3.49226e-05,5.61277e-06,-1.73746e-05,-5.04455e-06,1.10117e-05,-1.32542e-05,-1.30545e-06,2.40036e-06,0
-3.46607e-05,6.32784e-06,-1.38718e-05,-1.0302e-05,1.14025e-05,-1.20032e-05,1.38601e-06,1.45763e-06,0
-3.22356e-05,6.5522e-06,-1.27214e-05,-1.03562e-05,1.08991e-05,-1.0665e-05,6.95725e-06,3.68502e-07,0
-3.08169e-05,5.52178e-06,-1.34396e-05,-4.1741e-06,1.22843e-05,-8.48117e-06,1.25906e-05,-1.75699e-06,0
-3.19382e-05,4.44002e-06,-1.379e-05,5.60329e-08,1.69214e-05,-7.76737e-06,1.62531e-05,-3.41467e-06,0
-3.45535e-05,3.80941e-06,-1.31346e-05,2.30482e-06,2.10398e-05,-8.34978e-06,1.8288e-05,-4.59294e-06,0
-3.65065e-05,2.31003e-06,-1.31081e-05,1.94606e-06,2.2604e-05,-7.6911e-06,2.04493e-05,-3.4452e-06,0
-3.61047e-05,1.35092e-06,-1.38442e-05,-9.6493e-07,2.25869e-05,-6.7866e-06,2.32157e-05,1.6023e-07,0
-3.40477e-05,7.79509e-07,-1.38243e-05,-3.96609e-06,2.31164e-05,-5.93503e-06,2.4459e-05,3.41474e-06,0
-3.38511e-05,4.51221e-07,-1.27653e-05,-7.50509e-06,2.26652e-05,-5.08954e-06,2.4859e-05,3.8043e-06,0
-3.50617e-05,1.45787e-06,-1.14206e-05,-1.34147e-05,1.94434e-05,-5.07176e-06,2.44928e-05,1.93965e-06,0
-3.51113e-05,4.36064e-06,-9.0549e-06,-1.78615e-05,1.57918e-05,-5.71107e-06,2.28162e-05,-1.72362e-07,0
-3.49372e-05,8.32507e-06,-5.25219e-06,-1.5206e-05,1.51065e-05,-7.21752e-06,2.14193e-05,-9.13889e-07,0
-3.51971e-05,1.12868e-05,-1.37212e-06,-5.03249e-06,1.57687e-05,-8.90308e-06,2.14173e-05,-5.48977e-07,0
-3.55276e-05,1.30966e-05,6.58928e-07,8.19471e-06,1.5083e-05,-1.00265e-05,2.16533e-05,-1.17245e-08,0
-3.44879e-05,1.3546e-05,5.3507e-07,1.96301e-05,1.31838e-05,-1.03908e-05,2.03527e-05,-2.43295e-07,0
-3.22771e-05,1.32863e-05,-3.15061e-06,2.66009e-05,1.1378e-05,-1.03605e-05,1.83396e-05,-1.04481e-06,0
-3.06993e-05,1.35754e-05,-1.04196e-05,2.71212e-05,1.01284e-05,-1.00093e-05,1.6214e-05,-1.62593e-06,0
-3.06235e-05,1.35209e-05,-1.79988e-05,1.89215e-05,9.14496e-06,-9.20188e-06,1.44886e-05,-1.3745e-06,0
-3.08419e-05,1.14138e-05,-2.34827e-05,6.65526e-06,7.79792e-06,-8.00195e-06,1.25902e-05,-3.92679e-07,0
-3.04001e-05,9.55872e-06,-2.63757e-05,-1.21281e-06,5.18654e-06,-7.0078e-06,1.01575e-05,-4.25948e-07,0
-2.92734e-05,1.01134e-05,-2.53909e-05,-4.60453e-06,3.44329e-06,-6.20002e-06,8.23738e-06,-2.04322e-06,0
-2.81912e-05,1.18994e-05,-2.03959e-05,-6.38854e-06,4.3741e-06,-6.22295e-06,8.09431e-06,-4.08466e-06,0
-2.75174e-05,1.4711e-05,-1.37628e-05,-7.15598e-06,8.81098e-06,-7.85465e-06,9.39305e-06,-4.0578e-06,0
-2.77285e-05,1.41089e-05,-9.60706e-06,-5.41561e-06,1.35008e-05,-8.94659e-06,1.13262e-05,-2.86305e-06,0
-2.90636e-05,1.08696e-05,-8.59237e-06,-1.79082e-06,1.44046e-05,-8.00202e-06,1.40067e-05,-3.08545e-06,0
-3.0055e-05,1.38265e-05,-7.27765e-06,1.3601e-06,1.22152e-05,-7.53525e-06,1.49629e-05,-3.9128e-06,0
-2.9593e-05,2.20678e-05,-4.78821e-06,3.71249e-06,1.07887e-05,-8.31371e-06,1.29894e-05,-4.11934e-06,0
-2.86547e-05,2.64706e-05,-3.63858e-06,3.7132e-06,1.35958e-05,-8.86496e-06,1.0785e-05,-2.8874e-06,0
-2.84706e-05,2.6271e-05,-3.86878e-06,6.05577e-07,1.58271e-05,-9.05408e-06,9.88507e-06,-3.85035e-07,0
-2.70372e-05,2.52639e-05,-3.21468e-06,-5.79496e-06,1.47903e-05,-9.06435e-06,1.08196e-05,5.74568e-08,0
-2.59158e-05,2.15928e-05,-2.19926e-06,-1.19665e-05,1.308e-05,-8.45728e-06,1.27867e-05,7.83276e-07,0
-2.55424e-05,1.74179e-05,-1.27586e-06,-1.06259e-05,1.26494e-05,-7.19798e-06,1.54895e-05,1.83278e-06,0
-2.48118e-05,1.52965e-05,1.39837e-06,-2.80847e-06,1.47611e-05,-6.26737e-06,1.62593e-05,1.53284e-06,0
-2.40501e-05,1.55501e-05,6.5986e-06,1.3309e-06,1.68109e-05,-5.6963e-06,1.37336e-05,1.76894e-06,0
-2.3579e-05,1.565e-05,1.1442e-05,-4.1747e-06,1.80324e-05,-5.11834e-06,1.1559e-05,1.83324e-06,0
-2.49863e-05,1.3212e-05,1.31917e-05,-1.20821e-05,1.82998e-05,-4.83836e-06,1.09568e-05,1.762e-06,0
-2.66325e-05,9.49948e-06,1.09396e-05,-1.51848e-05,1.73736e-05,-5.34574e-06,1.24923e-05,1.47753e-06,0
-2.71123e-05,5.52794e-06,4.38075e-06,-1.37936e-05,1.55384e-05,-7.35622e-06,1.49435e-05,1.4317e-06,0
-2.75012e-05,2.90453e-06,-5.06179e-06,-9.51172e-06,1.49848e-05,-9.52986e-06,1.6213e-05,2.64588e-06,0
-2.85038e-05,2.41142e-06,-1.50743e-05,-4.03902e-06,1.57057e-05,-9.80978e-06,1.61187e-05,4.34431e-06,0
-2.93817e-05,4.6406e-06,-2.1686e-05,1.63039e-06,1.62664e-05,-9.5895e-06,1.62356e-05,4.42337e-06,0
-3.00044e-05,7.40113e-06,-2.2105e-05,6.29151e-06,1.75301e-05,-9.75145e-06,1.67371e-05,3.491e-06,0
-2.9908e-05,8.89125e-06,-2.03016e-05,8.90773e-06,2.03878e-05,-9.88237e-06,1.71954e-05,2.85973e-06,0
-2.92913e-05,8.5698e-06,-2.02236e-05,1.03187e-05,2.4984e-05,-1.0042e-05,1.76571e-05,3.1792e-06,0
-2.91347e-05,7.37133e-06,-2.13555e-05,1.15079e-05,2.72634e-05,-1.15233e-05,1.71425e-05,4.12414e-06,0
-2.9399e-05,5.71931e-06,-2.216e-05,1.24524e-05,2.45718e-05,-1.38805e-05,1.40092e-05,5.06306e-06,0
-2.99938e-05,4.48756e-06,-2.23725e-05,1.2446e-05,1.92816e-05,-1.59625e-05,8.22085e-06,5.34995e-06,0
-3.16801e-05,3.81023e-06,-2.13888e-05,9.76122e-06,1.48043e-05,-1.72625e-05,3.65305e-06,4.4692e-06,0
-3.35527e-05,2.13019e-06,-1.97334e-05,5.47257e-06,1.27464e-05,-1.77235e-05,3.54252e-06,4.04148e-06,0
-3.4032e-05,4.77336e-07,-1.84911e-05,3.70799e-06,1.40972e-05,-1.79247e-05,6.03887e-06,3.69078e-06,0
-3.45757e-05,1.69658e-06,-1.53927e-05,4.49392e-06,1.61504e-05,-1.81062e-05,8.2883e-06,1.91817e-06,0
-3.53069e-05,5.09632e-06,-1.06141e-05,2.71116e-06,1.52624e-05,-1.76198e-05,9.75858e-06,2.86241e-07,0
-3.45588e-05,7.09758e-06,-7.04396e-06,-4.3548e-06,1.35678e-05,-1.57388e-05,9.74823e-06,1.31257e-06,0
-3.20578e-05,6.5747e-06,-5.56112e-06,-1.42123e-05,1.33138e-05,-1.5055e-05,1.0021e-05,3.74776e-06,0
-2.91322e-05,5.25987e-06,-4.15067e-06,-2.36459e-05,9.94372e-06,-1.66538e-05,1.10919e-05,4.23526e-06,0
-2.79986e-05,4.37005e-06,-3.36909e-06,-2.95459e-05,6.41838e-06,-1.82421e-05,1.14693e-05,1.7869e-06,0
-2.89728e-05,3.83886e-06,-4.79258e-06,-3.3409e-05,8.09155e-06,-1.6398e-05,1.15189e-05,-2.73874e-06,0
-2.94289e-05,4.50954e-06,-5.97982e-06,-3.54511e-05,1.29109e-05,-1.40015e-05,1.06217e-05,-5.89068e-06,0
-2.90791e-05,4.76105e-06,-5.0941e-06,-3.31715e-05,1.76366e-05,-1.6006e-05,8.23971e-06,-6.33105e-06,0
-3.01657e-05,2.86922e-06,-3.22307e-06,-2.8085e-05,1.96367e-05,-1.90254e-05,3.3651e-06,-4.81241e-06,0
-3.31907e-05,-1.99673e-07,-2.00045e-06,-2.22957e-05,1.92746e-05,-1.94332e-05,-8.74015e-07,-3.7414e-06,0
-3.49812e-05,1.56284e-07,-1.12142e-06,-1.82957e-05,1.8965e-05,-1.80515e-05,-1.44362e-06,-4.27666e-06,0
-3.43193e-05,8.02573e-06,-1.02999e-06,-1.1831e-05,2.22413e-05,-1.56588e-05,5.93766e-07,-4.2282e-06,0
-3.23637e-05,2.09067e-05,-1.45826e-06,-1.86162e-06,2.51088e-05,-1.33504e-05,4.34105e-06,-2.836e-06,0
-3.06868e-05,3.42127e-05,-1.6953e-06,7.45993e-06,2.55633e-05,-1.13655e-05,8.5082e-06,-9.06509e-07,0
-3.16653e-05,4.44301e-05,-8.5201e-07,1.34872e-05,2.39917e-05,-9.72085e-06,1.21789e-05,-8.38032e-07,0
-3.36273e-05,4.61737e-05,-5.25206e-07,1.56762e-05,2.05265e-05,-8.39718e-06,1.45106e-05,-2.2671e-06,0
-3.45367e-05,3.69504e-05,-1.24871e-06,1.50524e-05,1.63731e-05,-7.39415e-06,1.5313e-05,-2.41449e-06,0
-3.35958e-05,1.91619e-05,-1.14344e-06,9.8378e-06,1.20133e-05,-7.63158e-06,1.44429e-05,3.48512e-07,0
-3.22805e-05,-2.73142e-06,-1.03457e-06,7.96664e-07,9.30953e-06,-8.42604e-06,1.30474e-05,3.47869e-06,0
-3.23574e-05,-2.29302e-05,-1.42417e-06,-8.4319e-06,8.94955e-06,-8.79471e-06,1.18152e-05,4.27084e-06,0
-3.41617e-05,-3.26684e-05,-1.02983e-06,-1.38208e-05,9.78497e-06,-8.67009e-06,1.07662e-05,3.3676e-06,0
-3.59679e-05,-2.90494e-05,4.68798e-07,-1.60845e-05,9.41781e-06,-9.18654e-06,1.00977e-05,2.79206e-06,0
-3.54909e-05,-1.848e-05,6.71759e-07,-1.75873e-05,8.51584e-06,-9.80493e-06,9.49025e-06,3.50187e-06,0
-3.30252e-05,-8.41112e-06,-1.02502e-07,-1.87468e-05,6.52697e-06,-9.14284e-06,8.27948e-06,4.14079e-06,0
-3.17497e-05,-5.27817e-06,1.66895e-07,-2.02247e-05,2.9408e-06,-8.0741e-06,7.22848e-06,3.68215e-06,0
-3.2937e-05,-9.55115e-06,6.55177e-07,-2.26397e-05,-2.76538e-07,-7.34816e-06,8.60119e-06,4.60986e-06,0
-3.28621e-05,-1.64103e-05,-1.6216e-06,-2.30972e-05,-1.77459e-07,-6.54097e-06,1.23812e-05,6.64276e-06,0
-3.18141e-05,-2.16198e-05,-4.90962e-06,-2.12268e-05,2.43075e-06,-6.17773e-06,1.57041e-05,7.68293e-06,0
-3.18758e-05,-2.28952e-05,-7.58013e-06,-1.84293e-05,4.08917e-06,-5.80578e-06,1.56712e-05,7.23863e-06,0
-3.29458e-05,-1.84607e-05,-9.47704e-06,-7.77822e-06,3.5395e-06,-6.07031e-06,9.32032e-06,6.30406e-06,0
-3.37114e-05,-1.05325e-05,-1.15517e-05,1.28696e-05,2.25264e-06,-6.87228e-06,1.18961e-06,7.93625e-06,0
-3.42845e-05,-5.26941e-06,-1.51076e-05,2.63015e-05,2.9146e-06,-8.59936e-06,-4.08003e-07,8.46067e-06,0
-3.47385e-05,-4.21764e-06,-1.99287e-05,2.42309e-05,5.77545e-06,-1.08749e-05,4.10357e-06,6.26324e-06,0
-3.47253e-05,-4.22544e-06,-2.41058e-05,1.41123e-05,8.69686e-06,-1.0977e-05,1.14043e-05,4.39694e-06,0
-3.31303e-05,-9.15719e-07,-2.4847e-05,4.22488e-06,1.16764e-05,-1.00561e-05,1.76588e-05,4.0516e-06,0
-2.97007e-05,6.18831e-06,-2.26928e-05,1.51222e-06,1.528e-05,-9.76521e-06,2.1945e-05,5.28776e-06,0
-2.69774e-05,1.34007e-05,-1.73675e-05,5.29995e-07,1.92821e-05,-1.08273e-05,2.60296e-05,6.4076e-06,0
-2.60018e-05,1.87965e-05,-1.23551e-05,-3.05791e-06,2.27668e-05,-1.10913e-05,2.89266e-05,6.53449e-06,0
-2.68362e-05,2.3641e-05,-9.81192e-06,-9.98362e-06,2.13562e-05,-8.92248e-06,2.78118e-05,5.86091e-06,0
-2.75731e-05,3.08009e-05,-8.18042e-06,-1.92431e-05,1.59746e-05,-6.34912e-06,2.17943e-05,4.612e-06,0
-2.68189e-05,4.41896e-05,-6.86076e-06,-3.03022e-05,1.02555e-05,-5.54366e-06,1.28008e-05,3.29719e-06,0
-2.5019e-05,6.6432e-05,-6.25868e-06,-4.10461e-05,5.52664e-06,-5.29924e-06,4.92166e-06,2.53704e-06,0
-2.38409e-05,8.68895e-05,-6.10309e-06,-4.6341e-05,1.18394e-06,-5.09606e-06,1.65623e-06,1.5643e-06,0
-2.42437e-05,9.26278e-05,-5.047e-06,-4.11329e-05,-2.89434e-06,-6.07137e-06,1.72871e-06,2.75732e-07,0
-2.65616e-05,8.18679e-05,-4.36211e-06,-2.72989e-05,-5.08661e-06,-7.83171e-06,3.95372e-06,-9.18428e-08,0
-3.05427e-05,5.97693e-05,-5.65077e-06,-1.8866e-05,-5.72836e-06,-9.19989e-06,7.95745e-06,6.42587e-07,0
-3.33011e-05,3.04576e-05,-8.46499e-06,-2.57176e-05,-4.02354e-06,-9.70034e-06,1.3344e-05,8.05611e-07,0
-3.23733e-05,1.06642e-06,-1.04958e-05,-4.2141e-05,-7.40399e-07,-9.15989e-06,1.94597e-05,-5.67857e-08,0
-2.93668e-05,-1.63781e-05,-1.15843e-05,-5.38034e-05,2.11804e-06,-7.5438e-06,2.39465e-05,-1.06797e-06,0
-2.83161e-05,-1.6552e-05,-1.29983e-05,-5.58292e-05,5.04202e-06,-6.63136e-06,2.54901e-05,-1.29456e-06,0
-2.96127e-05,-6.65536e-06,-1.42047e-05,-5.15661e-05,1.10005e-05,-6.01662e-06,2.53936e-05,-2.13274e-07,0
-2.98442e-05,2.77452e-06,-1.2942e-05,-4.49438e-05,2.23643e-05,-4.4816e-06,2.32078e-05,1.33278e-06,0
-2.83203e-05,6.46585e-06,-9.83333e-06,-2.8418e-05,3.38156e-05,-3.4818e-06,1.77774e-05,2.48509e-06,0
-2.74572e-05,1.45825e-06,-6.75861e-06,7.11906e-06,3.7639e-05,-4.15392e-06,1.19433e-05,1.76717e-06,0
-2.78876e-05,-5.11208e-06,-5.4079e-06,5.61516e-05,3.60395e-05,-4.6995e-06,8.4711e-06,-1.61182e-07,0
-2.90919e-05,-7.67745e-06,-5.68014e-06,0.000106691,3.37751e-05,-4.60606e-06,6.62289e-06,-1.6827e-06,0
-2.94494e-05,-1.0728e-05,-6.02814e-06,0.000145904,3.10227e-05,-5.3658e-06,6.33309e-06,-3.31319e-06,0
-3.01314e-05,-2.01369e-05,-6.07508e-06,0.000161134,2.7192e-05,-8.2743e-06,6.98449e-06,-4.78903e-06,0
-3.03171e-05,-3.31332e-05,-7.04114e-06,0.000145844,2.5228e-05,-1.1199e-05,6.80836e-06,-4.93207e-06,0
-3.0223e-05,-4.08879e-05,-1.04186e-05,0.000106789,2.37127e-05,-1.07323e-05,8.06927e-06,-4.94212e-06,0
-3.08859e-05,-4.3219e-05,-1.02275e-05,6.16892e-05,1.88341e-05,-1.02178e-05,8.67307e-06,-4.97603e-06,0
-2.97596e-05,-4.1868e-05,-7.0101e-06,2.73163e-05,1.51854e-05,-1.04391e-05,8.44423e-06,-4.45157e-06,0
-2.96354e-05,-3.64122e-05,-3.97941e-06,6.97762e-06,1.41103e-05,-9.21733e-06,1.35583e-05,-3.3627e-06,0
-3.01764e-05,-2.25504e-05,1.74663e-06,-3.51852e-06,1.3396e-05,-8.13237e-06,2.5538e-05,-1.34258e-06,0
-2.96758e-05,3.19385e-06,1.16535e-05,-9.04309e-06,1.18047e-05,-8.66854e-06,3.83358e-05,-7.08168e-07,0
-2.96239e-05,3.38065e-05,2.35112e-05,-1.85186e-05,1.07318e-05,-1.11812e-05,4.68444e-05,-1.9617e-06,0
-3.06683e-05,5.88214e-05,3.28134e-05,-3.50737e-05,9.858e-06,-1.26544e-05,4.94708e-05,-2.99738e-06,0
-3.05288e-05,7.17228e-05,3.72182e-05,-5.38051e-05,8.23155e-06,-1.15335e-05,4.60446e-05,-2.14814e-06,0
-2.90386e-05,7.28532e-05,3.49905e-05,-6.7761e-05,5.83757e-06,-8.57391e-06,3.85596e-05,-2.38034e-07,0
-2.7591e-05,6.26188e-05,2.2947e-05,-7.37079e-05,3.48271e-06,-6.635e-06,2.78641e-05,1.11339e-06,0
-2.72799e-05,4.28947e-05,1.45919e-06,-7.60507e-05,2.98826e-06,-6.61454e-06,1.35568e-05,1.33655e-06,0
-2.79838e-05,1.97581e-05,-2.22529e-05,-7.60759e-05,5.04563e-06,-6.3218e-06,-5.69274e-06,3.13729e-07,0
-2.78338e-05,-2.83401e-06,-4.05462e-05,-6.96351e-05,9.57467e-06,-5.48595e-06,-2.44537e-05,-1.14093e-06,0
-2.68419e-05,-2.37318e-05,-4.8649e-05,-5.70773e-05,1.43606e-05,-5.4864e-06,-3.39871e-05,-1.91577e-06,0
-2.66459e-05,-3.90068e-05,-4.75954e-05,-4.42246e-05,1.69307e-05,-6.61285e-06,-3.21318e-05,-6.64345e-07,0
-2.81193e-05,-4.41017e-05,-4.13923e-05,-3.1763e-05,1.63582e-05,-7.10342e-06,-2.43535e-05,5.22136e-07,0
-2.85932e-05,-3.99242e-05,-3.31216e-05,-1.77863e-05,1.5766e-05,-5.81645e-06,-1.58689e-05,-5.44081e-07,0
-2.6938e-05,-3.00016e-05,-2.51365e-05,-6.56924e-06,1.67641e-05,-3.60315e-06,-7.98038e-06,-2.02413e-06,0
-2.46711e-05,-1.85746e-05,-2.08667e-05,-4.25984e-06,1.76341e-05,-2.51018e-06,-2.29046e-06,-1.89173e-06,0
-2.50515e-05,-5.89499e-06,-1.96817e-05,-9.03817e-06,1.61335e-05,-2.79599e-06,-2.2679e-07,-1.56237e-06,0
-2.80424e-05,5.56314e-06,-1.84082e-05,-1.18676e-05,1.40548e-05,-4.50639e-06,1.75345e-06,-2.32091e-06,0
-3.06479e-05,9.90027e-06,-1.59894e-05,-7.61179e-06,1.39838e-05,-7.40376e-06,7.81679e-06,-3.50719e-06,0
-3.11899e-05,7.38853e-06,-1.33249e-05,2.41079e-07,1.54591e-05,-1.00872e-05,1.4817e-05,-3.54443e-06,0
-3.04967e-05,4.24993e-06,-1.17182e-05,7.27025e-06,1.6032e-05,-1.14071e-05,1.83275e-05,-1.42672e-06,0
-3.05641e-05,7.55962e-06,-9.01035e-06,1.13973e-05,1.45088e-05,-1.17133e-05,1.73389e-05,-4.21915e-07,0
-3.12281e-05,1.47259e-05,-5.04226e-06,1.15994e-05,1.35479e-05,-1.04339e-05,1.42803e-05,-1.75453e-06,0
-3.12025e-05,2.09926e-05,-3.88461e-06,9.62711e-06,1.39075e-05,-1.06257e-05,1.18543e-05,-3.05229e-06,0
-2.97681e-05,2.49211e-05,-4.42417e-06,6.76347e-06,1.4053e-05,-1.14629e-05,1.18594e-05,-3.09443e-06,0
-2.7006e-05,2.62727e-05,-3.93171e-06,2.08972e-06,1.37633e-05,-1.07313e-05,1.35134e-05,-3.79388e-06,0
-2.61217e-05,2.89344e-05,-3.87397e-06,-2.9127e-06,1.2205e-05,-1.01304e-05,1.32006e-05,-4.34758e-06,0
-2.72315e-05,3.0908e-05,-4.06562e-06,-5.82676e-06,1.03807e-05,-1.01585e-05,1.24185e-05,-2.80202e-06,0
-2.8132e-05,3.00581e-05,-4.42615e-06,-5.59548e-06,1.09044e-05,-9.7885e-06,1.19746e-05,5.09318e-07,0
-2.80072e-05,2.71861e-05,-2.9e-06,-3.27396e-06,1.39015e-05,-8.3175e-06,1.23612e-05,5.09512e-06,0
-2.69047e-05,2.44554e-05,1.74879e-06,-3.52426e-06,1.66481e-05,-8.66297e-06,1.41327e-05,7.85943e-06,0
-2.72182e-05,2.28379e-05,6.70934e-06,-4.88249e-06,1.66647e-05,-1.02819e-05,1.56058e-05,7.53259e-06,0
-2.96807e-05,2.17572e-05,9.08063e-06,-3.75999e-06,1.56828e-05,-1.11172e-05,1.54457e-05,5.85087e-06,0
-3.19458e-05,2.14746e-05,8.70073e-06,-2.68594e-06,1.72684e-05,-1.06576e-05,1.27721e-05,5.74652e-06,0
-3.16166e-05,2.0048e-05,5.56442e-06,-3.97213e-06,1.96133e-05,-1.09156e-05,9.68684e-06,7.0144e-06,0
-2.91163e-05,1.85582e-05,-1.74133e-06,-6.77012e-06,1.78289e-05,-1.16949e-05,1.06477e-05,7.14167e-06,0
-2.68163e-05,1.88647e-05,-1.27479e-05,-8.60536e-06,1.28924e-05,-1.15541e-05,2.25982e-05,5.02161e-06,0
-2.67951e-05,2.06087e-05,-2.39063e-05,-7.44954e-06,9.22101e-06,-1.0507e-05,4.31784e-05,2.78808e-06,0
-2.79834e-05,2.23749e-05,-3.03722e-05,-3.94697e-06,9.63778e-06,-8.78354e-06,6.05465e-05,2.69789e-06,0
-2.92626e-05,2.36411e-05,-3.05375e-05,-1.15277e-06,1.14721e-05,-6.48536e-06,6.67587e-05,3.83447e-06,0
-3.02419e-05,2.46018e-05,-2.58328e-05,-1.49517e-06,1.10222e-05,-4.97093e-06,6.38817e-05,3.94742e-06,0
-3.02716e-05,2.65027e-05,-2.02362e-05,-3.47323e-06,8.17329e-06,-5.76175e-06,5.5637e-05,2.33909e-06,0
-3.01997e-05,2.87425e-05,-1.86034e-05,-2.89583e-06,4.76827e-06,-8.20101e-06,4.40187e-05,-1.53484e-07,0
-3.13097e-05,2.8125e-05,-2.01254e-05,3.189e-06,3.78477e-06,-1.04034e-05,3.05395e-05,-2.75062e-06,0
-3.20403e-05,2.55504e-05,-1.91264e-05,1.53527e-05,5.9584e-06,-1.16887e-05,1.5785e-05,-3.11048e-06,0
-3.02065e-05,2.55391e-05,-1.5477e-05,2.95408e-05,8.35368e-06,-1.35369e-05,1.52998e-06,-1.74999e-06,0
-2.77184e-05,2.90562e-05,-1.2724e-05,3.73274e-05,9.71176e-06,-1.4771e-05,-1.1926e-05,4.10471e-07,0
-2.72199e-05,3.17126e-05,-1.17348e-05,3.42545e-05,1.0504e-05,-1.53665e-05,-2.48802e-05,2.96195e-06,0
-2.75879e-05,3.20123e-05,-1.0666e-05,2.45131e-05,9.94351e-06,-1.49566e-05,-3.32539e-05,4.60335e-06,0
-2.76398e-05,3.15639e-05,-7.70089e-06,1.50114e-05,8.65262e-06,-1.42278e-05,-3.13279e-05,5.56751e-06,0
-2.73278e-05,3.03927e-05,-4.664e-06,5.29993e-06,8.64797e-06,-1.44405e-05,-2.16399e-05,5.27545e-06,0
-2.81137e-05,2.96601e-05,-1.73485e-06,-1.05895e-05,1.01233e-05,-1.44222e-05,-1.03081e-05,5.01591e-06,0
-2.78887e-05,3.06915e-05,9.75444e-07,-2.57794e-05,1.29393e-05,-1.2928e-05,-2.6935e-06,6.61053e-06,0
-2.81308e-05,3.17239e-05,5.7075e-07,-3.27206e-05,1.50796e-05,-9.80875e-06,3.49503e-07,8.14084e-06,0
-2.95878e-05,3.08986e-05,-2.83757e-06,-3.36781e-05,1.39342e-05,-8.66371e-06,3.12067e-06,7.87093e-06,0
-2.91816e-05,3.10199e-05,-6.08918e-06,-3.01292e-05,1.17228e-05,-1.01366e-05,6.38841e-06,5.84433e-06,0
-2.94767e-05,3.18624e-05,-6.41724e-06,-2.43479e-05,1.09727e-05,-1.2123e-05,7.72285e-06,4.59411e-06,0
-3.00671e-05,3.10109e-05,-4.41884e-06,-1.85411e-05,1.07329e-05,-1.31644e-05,6.30832e-06,4.65663e-06,0
-3.07519e-05,2.92415e-05,-3.24473e-06,-1.39922e-05,1.03803e-05,-1.27944e-05,4.45377e-06,5.37991e-06,0
-3.11329e-05,2.76841e-05,-4.34052e-06,-1.20966e-05,1.04146e-05,-1.17007e-05,3.06675e-06,6.23434e-06,0
-3.099e-05,2.67365e-05,-5.55326e-06,-1.69481e-05,9.87989e-06,-1.01235e-05,1.3119e-06,5.98895e-06,0
-3.02269e-05,2.59077e-05,-4.82315e-06,-2.73982e-05,7.02212e-06,-9.11094e-06,1.49381e-07,3.90927e-06,0
-3.04007e-05,2.61016e-05,-4.0805e-06,-3.65218e-05,3.51669e-06,-8.88256e-06,-1.82842e-07,8.09919e-07,0
-3.27026e-05,2.85117e-05,-4.21368e-06,-3.90552e-05,2.41915e-06,-9.21031e-06,-1.91851e-06,-1.02796e-06,0
-3.47908e-05,3.13102e-05,-2.67084e-06,-3.42134e-05,2.44819e-06,-9.19494e-06,-7.08848e-06,-1.64446e-06,0
-3.5229e-05,3.12098e-05,1.55528e-06,-2.45785e-05,3.23033e-06,-8.02738e-06,-1.1614e-05,-2.06284e-06,0
-3.37686e-05,2.90109e-05,6.88556e-06,-1.29644e-05,6.37704e-06,-6.73816e-06,-1.00535e-05,-2.93776e-06,0
-3.04984e-05,2.81067e-05,1.30405e-05,-7.11148e-07,1.03449e-05,-5.31673e-06,-2.49945e-06,-3.87786e-06,0
-2.75276e-05,2.88965e-05,2.02911e-05,1.05761e-05,1.14321e-05,-3.65671e-06,7.23328e-06,-4.80103e-06,0
-2.645e-05,2.86423e-05,2.88395e-05,1.82563e-05,1.11693e-05,-2.77167e-06,1.61501e-05,-5.27756e-06,0
-2.59068e-05,2.82103e-05,4.13897e-05,2.13014e-05,1.39289e-05,-4.72324e-06,2.25777e-05,-4.97211e-06,0
-2.6091e-05,3.00033e-05,5.71153e-05,2.08198e-05,1.83385e-05,-8.36442e-06,2.60322e-05,-4.16982e-06,0
-2.70304e-05,3.17695e-05,6.62586e-05,1.83965e-05,2.06799e-05,-9.43314e-06,2.65812e-05,-3.38778e-06,0
-2.81756e-05,2.95622e-05,5.89559e-05,1.54461e-05,1.92818e-05,-8.52724e-06,2.45214e-05,-1.54283e-06,0
-2.92604e-05,2.54948e-05,3.75804e-05,1.54266e-05,1.55959e-05,-9.48e-06,2.29985e-05,1.94322e-06,0
-2.9328e-05,2.42383e-05,5.01764e-06,1.63093e-05,1.28206e-05,-1.15972e-05,2.38104e-05,4.86301e-06,0
-2.68721e-05,2.49414e-05,-2.8446e-05,1.38868e-05,1.20136e-05,-1.22439e-05,2.4158e-05,4.78319e-06,0
-2.45195e-05,2.51705e-05,-5.21811e-05,9.83555e-06,1.21522e-05,-1.31479e-05,2.43853e-05,2.44929e-06,0
-2.57948e-05,2.17653e-05,-6.93716e-05,8.78933e-06,1.14337e-05,-1.35495e-05,2.53378e-05,8.76953e-07,0
-2.91412e-05,1.6125e-05,-7.78818e-05,9.25675e-06,1.04788e-05,-1.31138e-05,2.69149e-05,1.58307e-06,0
-3.24583e-05,1.23334e-05,-7.68794e-05,6.37513e-06,1.03138e-05,-1.3221e-05,2.97491e-05,3.94597e-06,0
-3.39717e-05,9.04041e-06,-6.76859e-05,-7.94807e-07,1.09722e-05,-1.40165e-05,3.05167e-05,5.98364e-06,0
-3.36052e-05,6.43477e-06,-5.54299e-05,-1.00815e-05,1.10883e-05,-1.51108e-05,2.98161e-05,6.5933e-06,0
-3.36003e-05,4.80372e-06,-4.40547e-05,-1.77265e-05,1.05571e-05,-1.66126e-05,2.85628e-05,5.73959e-06,0
-3.41167e-05,3.52163e-06,-3.34997e-05,-2.29758e-05,1.05305e-05,-1.78105e-05,2.76194e-05,3.9809e-06,0
-3.41621e-05,1.02035e-06,-2.4135e-05,-2.49189e-05,1.25284e-05,-1.76631e-05,2.80717e-05,2.53983e-06,0
-3.29155e-05,-3.42388e-06,-1.70438e-05,-2.22593e-05,1.55267e-05,-1.59302e-05,3.03248e-05,2.84736e-06,0
-3.14215e-05,-8.33334e-06,-1.28165e-05,-1.58419e-05,1.52426e-05,-1.37664e-05,3.42367e-05,3.22575e-06,0
-3.13928e-05,-1.12809e-05,-1.22901e-05,-4.71539e-06,1.35585e-05,-1.2863e-05,3.664e-05,1.71592e-06,0
-3.33485e-05,-1.19172e-05,-1.57958e-05,7.74864e-06,1.40795e-05,-1.22491e-05,3.48015e-05,-3.23139e-07,0
-3.57222e-05,-1.27564e-05,-2.10254e-05,1.43092e-05,1.64989e-05,-1.20064e-05,3.02542e-05,-8.69004e-07,0
-3.6267e-05,-1.38615e-05,-2.61243e-05,1.50396e-05,1.69441e-05,-1.12256e-05,2.59824e-05,6.33941e-07,0
-3.5886e-05,-1.49668e-05,-2.93129e-05,1.50964e-05,1.48037e-05,-1.01286e-05,2.20375e-05,3.06846e-06,0
-3.54287e-05,-1.56042e-05,-3.13577e-05,1.64805e-05,1.21027e-05,-9.35335e-06,1.8404e-05,4.31635e-06,0
-3.4142e-05,-1.46445e-05,-3.25806e-05,1.58771e-05,1.0355e-05,-8.68477e-06,1.54719e-05,4.12981e-06,0
-3.23325e-05,-1.12505e-05,-3.32957e-05,1.17868e-05,9.7532e-06,-8.19414e-06,1.33863e-05,3.87753e-06,0
-3.15758e-05,-7.97901e-06,-3.31239e-05,4.77095e-06,8.99566e-06,-1.00378e-05,9.50245e-06,3.72548e-06,0
-3.18643e-05,-6.03866e-06,-3.23914e-05,-3.72449e-06,7.74194e-06,-1.2698e-05,3.35595e-06,2.71773e-06,0
-3.25748e-05,-5.12566e-06,-2.88321e-05,-1.08196e-05,8.09451e-06,-1.29792e-05,-1.72672e-06,-3.97668e-07,0
-3.25328e-05,-4.74298e-06,-2.35154e-05,-1.63018e-05,1.10858e-05,-1.06524e-05,-2.87139e-06,-2.77164e-06,0
-3.23673e-05,-5.78442e-06,-1.66878e-05,-2.12727e-05,1.56427e-05,-7.71843e-06,6.12138e-07,-1.97521e-06,0
-3.36047e-05,-8.62798e-06,-9.69385e-06,-2.84986e-05,1.94702e-05,-5.48992e-06,5.93599e-06,4.89985e-07,0
-3.49427e-05,-9.6606e-06,-5.4407e-06,-3.77592e-05,1.85452e-05,-4.69782e-06,7.42374e-06,3.03046e-06,0
-3.5319e-05,-9.23038e-06,-1.68225e-06,-3.96876e-05,1.3451e-05,-6.71296e-06,3.76037e-06,2.00622e-06,0
-3.55706e-05,-9.62237e-06,2.63601e-06,-3.11634e-05,1.05774e-05,-7.36939e-06,3.0543e-07,-1.23216e-06,0
-3.50034e-05,-1.11277e-05,5.10965e-06,-1.86351e-05,1.25369e-05,-5.14041e-06,1.06125e-06,-3.62774e-06,0
-3.2161e-05,-1.4069e-05,3.35347e-06,-6.10773e-06,1.57121e-05,-3.40564e-06,4.04003e-06,-4.60783e-06,0
-3.03321e-05,-1.75989e-05,-1.59664e-07,2.71833e-06,1.77139e-05,-4.10074e-06,6.48385e-06,-3.98138e-06,0
-3.07057e-05,-1.85702e-05,-5.48498e-06,5.62522e-06,1.62194e-05,-4.20825e-06,7.218e-06,-3.45477e-06,0
-3.08985e-05,-1.47128e-05,-1.20051e-05,6.22404e-06,1.2061e-05,-3.32564e-06,5.96031e-06,-3.53528e-06,0
-3.00886e-05,-8.87828e-06,-1.77e-05,9.32274e-06,8.24452e-06,-3.24755e-06,5.11733e-06,-4.1331e-06,0
-2.9599e-05,-4.98623e-06,-1.8835e-05,1.23265e-05,7.37888e-06,-2.78242e-06,6.99525e-06,-3.88577e-06,0
-2.89563e-05,-2.28743e-06,-1.37492e-05,1.02737e-05,9.07187e-06,-2.43547e-06,5.63106e-06,-3.95119e-06,0
-2.75064e-05,-1.38893e-07,-6.61806e-06,3.36228e-06,1.07338e-05,-2.26607e-06,-5.85272e-06,-4.86621e-06,0
-2.68641e-05,7.89347e-07,-1.28668e-06,-4.59156e-06,1.21705e-05,-2.4815e-06,-2.00721e-05,-6.21254e-06,0
-2.714e-05,1.32511e-06,4.72931e-07,-9.9839e-06,1.48726e-05,-3.14418e-06,-2.38391e-05,-6.9966e-06,0
-2.79077e-05,2.03298e-06,9.19159e-07,-1.30253e-05,1.78849e-05,-3.63965e-06,-1.39966e-05,-5.34911e-06,0
-2.91331e-05,3.91054e-06,2.01975e-06,-1.4966e-05,1.94061e-05,-3.62583e-06,2.41586e-06,-1.80243e-06,0
-3.01554e-05,6.8567e-06,3.32616e-06,-1.60046e-05,2.07536e-05,-2.87126e-06,1.86163e-05,1.75181e-06,0
-3.03122e-05,9.62146e-06,3.50084e-06,-1.44775e-05,2.2862e-05,-2.01756e-06,3.1745e-05,4.79599e-06,0
-3.03305e-05,1.14259e-05,2.05752e-06,-1.12132e-05,2.41988e-05,-1.42868e-06,4.11776e-05,6.75646e-06,0
-3.07036e-05,1.15314e-05,1.14297e-06,-1.01012e-05,2.26279e-05,-1.27416e-06,4.57152e-05,5.27098e-06,0
-3.14953e-05,9.97657e-06,2.21004e-06,-1.17979e-05,1.89955e-05,-1.5016e-06,4.41269e-05,1.6747e-06,0
-3.21123e-05,9.2428e-06,3.23572e-06,-1.30948e-05,1.57717e-05,-1.66757e-06,3.86559e-05,8.37313e-09,0
-3.25112e-05,9.96779e-06,2.21475e-06,-1.35308e-05,1.38927e-05,-1.71676e-06,3.42538e-05,1.74782e-06,0
-3.22157e-05,1.03497e-05,1.45764e-06,-1.37606e-05,1.14336e-05,-2.96659e-06,3.21494e-05,3.7291e-06,0
-3.06574e-05,1.18321e-05,3.63501e-06,-1.22053e-05,1.01567e-05,-5.30954e-06,3.15708e-05,5.564e-06,0
-2.93971e-05,1.56085e-05,6.52497e-06,-1.0884e-05,1.05718e-05,-8.1366e-06,3.0734e-05,6.9377e-06,0
-2.96483e-05,1.90438e-05,6.71663e-06,-8.70095e-06,9.98483e-06,-9.64148e-06,2.80215e-05,7.28671e-06,0
-2.94892e-05,2.08572e-05,4.63506e-06,-4.42759e-06,9.28692e-06,-9.23786e-06,2.55178e-05,5.27465e-06,0
-2.95409e-05,2.22951e-05,3.09062e-06,-1.99125e-06,9.71673e-06,-9.74926e-06,2.44159e-05,1.64808e-07,0
-3.05927e-05,2.25701e-05,2.00212e-06,-3.94401e-08,1.33144e-05,-1.10176e-05,2.20342e-05,-2.12567e-06,0
-3.08639e-05,2.33012e-05,2.3687e-06,2.9543e-06,1.86029e-05,-1.23007e-05,1.56189e-05,-7.6358e-07,0
-2.93688e-05,2.27636e-05,3.57363e-06,5.16772e-06,2.0581e-05,-1.31409e-05,5.11791e-06,4.99299e-07,0
-2.75971e-05,2.0128e-05,2.28414e-06,5.92992e-06,1.82135e-05,-1.38131e-05,-5.97098e-06,-2.00433e-06,0
-2.75154e-05,1.94139e-05,1.79055e-06,6.442e-06,1.4655e-05,-1.38573e-05,-1.20218e-05,-7.85418e-06,0
