ch1,ch2,ch3,ch4,ch5,ch6,ch7,ch8,class
-2.95057e-05,-1.03527e-05,-1.90142e-05,-3.4166e-06,1.17409e-05,-8.63946e-06,1.58621e-05,1.60345e-06,0
-2.84419e-05,-6.99621e-06,-1.60239e-05,-6.67366e-07,9.28758e-06,-8.39164e-06,1.53289e-05,1.50547e-06,0
-2.7666e-05,-6.97652e-06,-1.35646e-05,-1.52944e-06,9.18082e-06,-7.94104e-06,1.40918e-05,7.54472e-07,0
-2.75136e-05,-7.98472e-06,-1.15487e-05,9.32173e-07,1.06211e-05,-7.98234e-06,1.2802e-05,2.95363e-06,0
-2.72195e-05,-7.37995e-06,-1.01906e-05,2.77769e-06,1.13453e-05,-9.59521e-06,1.19383e-05,5.74353e-06,0
-2.72811e-05,-6.17338e-06,-9.56025e-06,1.91688e-06,1.19076e-05,-1.31557e-05,1.14376e-05,7.0015e-06,0
-2.83636e-05,-4.25212e-06,-9.71329e-06,2.58855e-06,1.26931e-05,-1.69849e-05,1.12247e-05,7.12856e-06,0
-2.95235e-05,-5.14683e-08,-9.06594e-06,3.61189e-06,1.24658e-05,-1.88532e-05,1.08943e-05,6.21047e-06,0
-3.03331e-05,4.76519e-06,-6.73436e-06,2.36203e-06,1.26517e-05,-1.94263e-05,1.00272e-05,4.72841e-06,0
-3.05401e-05,9.36393e-06,-2.85711e-06,-1.29088e-06,1.42947e-05,-1.7577e-05,9.56197e-06,4.6613e-06,0
-3.08566e-05,1.32229e-05,1.30348e-06,-7.61197e-06,1.53985e-05,-1.42229e-05,9.65142e-06,6.39081e-06,0
-3.20692e-05,1.49816e-05,4.33009e-06,-1.54704e-05,1.54945e-05,-1.26698e-05,8.52066e-06,7.66733e-06,0
-3.39324e-05,1.53312e-05,3.74333e-06,-2.13078e-05,1.52547e-05,-1.34702e-05,5.94158e-06,8.17397e-06,0
-3.54237e-05,1.58732e-05,-1.06437e-06,-2.14447e-05,1.45626e-05,-1.43843e-05,4.56454e-06,7.67305e-06,0
-3.55647e-05,1.58438e-05,-8.23966e-06,-1.54821e-05,1.3766e-05,-1.40357e-05,5.78333e-06,4.99407e-06,0
-3.38114e-05,1.39764e-05,-1.47969e-05,-7.75758e-06,1.57005e-05,-1.37433e-05,8.36158e-06,1.67368e-06,0
-3.14562e-05,1.25621e-05,-1.82244e-05,-1.79845e-06,1.92983e-05,-1.37767e-05,1.02739e-05,2.95328e-08,0
-3.01592e-05,1.32032e-05,-1.7619e-05,1.08971e-06,2.11071e-05,-1.32714e-05,1.04724e-05,-9.35662e-07,0
-2.91584e-05,1.41211e-05,-1.35531e-05,-1.06908e-07,1.91987e-05,-1.17116e-05,9.92334e-06,-2.30672e-06,0
-2.78063e-05,1.43549e-05,-8.10036e-06,-4.24479e-06,1.57371e-05,-1.07064e-05,9.28956e-06,-2.92434e-06,0
-2.64738e-05,1.60629e-05,-4.57923e-06,-5.49323e-06,1.44451e-05,-1.08648e-05,9.13528e-06,-2.59583e-06,0
-2.63364e-05,1.92038e-05,-4.19908e-06,-2.42583e-06,1.47353e-05,-1.1261e-05,8.99339e-06,-1.57648e-06,0
-2.69623e-05,1.92918e-05,-4.42463e-06,-6.22768e-07,1.57326e-05,-1.10897e-05,9.08703e-06,-3.48316e-07,0
-2.65606e-05,1.68931e-05,-3.59741e-06,-3.19053e-06,1.69998e-05,-1.11702e-05,1.027e-05,-4.23096e-07,0
-2.57401e-05,1.74329e-05,-2.12572e-06,-7.80925e-06,1.84078e-05,-1.05652e-05,1.23023e-05,1.69722e-07,0
-2.61818e-05,2.21599e-05,-4.19679e-07,-1.15702e-05,2.05841e-05,-9.04659e-06,1.26795e-05,2.25166e-06,0
-2.80656e-05,2.56301e-05,8.22453e-07,-1.19309e-05,2.08705e-05,-1.00931e-05,1.15617e-05,3.77911e-06,0
-3.00567e-05,2.26899e-05,-6.98132e-07,-9.4223e-06,1.79387e-05,-1.26657e-05,1.22516e-05,4.26425e-06,0
-2.91553e-05,1.92328e-05,-3.60045e-06,-8.46464e-06,1.68912e-05,-1.3942e-05,1.27475e-05,3.79236e-06,0
-2.71962e-05,1.84167e-05,-4.8075e-06,-8.88154e-06,1.76665e-05,-1.46038e-05,1.22537e-05,2.71244e-06,0
-2.821e-05,1.79503e-05,-4.48751e-06,-8.21344e-06,1.74143e-05,-1.33399e-05,1.17211e-05,1.27375e-06,0
-2.98626e-05,1.66848e-05,-4.03396e-06,-4.71065e-06,1.8148e-05,-1.09142e-05,1.19797e-05,-7.39401e-07,0
-3.01165e-05,1.58276e-05,-2.82369e-06,1.0956e-06,2.02273e-05,-9.28455e-06,1.24318e-05,-9.91967e-07,0
-2.97274e-05,1.57214e-05,-1.13146e-06,9.71135e-06,2.32767e-05,-8.48921e-06,1.14998e-05,8.65762e-07,0
-2.91869e-05,1.6941e-05,-5.8416e-07,1.88354e-05,2.5392e-05,-8.40122e-06,9.97134e-06,3.52818e-06,0
-2.81396e-05,1.91065e-05,-1.54321e-06,2.44265e-05,2.56661e-05,-8.73895e-06,8.24089e-06,5.4723e-06,0
-2.82623e-05,1.99219e-05,-4.00561e-06,2.5293e-05,2.40487e-05,-9.07154e-06,6.72842e-06,5.41981e-06,0
-2.88186e-05,2.03308e-05,-6.70573e-06,1.89807e-05,2.16291e-05,-9.97493e-06,6.2578e-06,4.53762e-06,0
-2.82499e-05,2.15149e-05,-7.60131e-06,7.41511e-06,2.00935e-05,-1.09318e-05,6.84031e-06,4.04239e-06,0
-2.85254e-05,2.35739e-05,-7.35879e-06,-3.94556e-06,1.93764e-05,-1.00979e-05,7.925e-06,5.04139e-06,0
-3.02274e-05,2.55178e-05,-7.11283e-06,-1.15094e-05,1.93348e-05,-9.2115e-06,1.00028e-05,6.22913e-06,0
-3.16276e-05,2.74342e-05,-4.93043e-06,-1.58848e-05,1.90499e-05,-9.7011e-06,1.23471e-05,7.57e-06,0
-3.11983e-05,2.76138e-05,-6.08548e-07,-1.74976e-05,1.81857e-05,-1.03323e-05,1.38724e-05,9.39524e-06,0
-2.90381e-05,2.61429e-05,4.71484e-06,-1.8847e-05,1.66411e-05,-1.04053e-05,1.42279e-05,9.83352e-06,0
-2.73758e-05,2.39529e-05,1.34514e-05,-2.33681e-05,1.51004e-05,-1.05196e-05,1.38617e-05,8.56687e-06,0
-2.77795e-05,2.2414e-05,2.92046e-05,-2.7923e-05,1.26729e-05,-1.046e-05,1.28938e-05,8.14283e-06,0
-2.87055e-05,2.25271e-05,5.06988e-05,-2.49272e-05,9.80531e-06,-1.10768e-05,1.20851e-05,7.81081e-06,0
-2.94425e-05,2.32883e-05,7.01744e-05,-1.18917e-05,9.24023e-06,-1.07078e-05,1.30426e-05,6.49033e-06,0
-2.96166e-05,2.0907e-05,7.60697e-05,4.1339e-06,1.17259e-05,-8.71358e-06,1.32509e-05,6.2853e-06,0
-2.93807e-05,1.6571e-05,6.22786e-05,1.51702e-05,1.37318e-05,-7.31863e-06,1.16997e-05,7.61792e-06,0
-2.85475e-05,1.37798e-05,3.34897e-05,1.82799e-05,1.26045e-05,-7.47482e-06,1.05314e-05,9.42869e-06,0
-2.77723e-05,1.22553e-05,-2.44567e-06,1.78649e-05,1.09348e-05,-8.06419e-06,1.01639e-05,1.05681e-05,0
-2.73661e-05,1.17025e-05,-4.11175e-05,2.04859e-05,1.03382e-05,-9.00748e-06,1.00176e-05,1.0313e-05,0
-2.77417e-05,1.22765e-05,-7.02539e-05,2.2572e-05,9.90157e-06,-1.11218e-05,9.42545e-06,7.27761e-06,0
-2.90874e-05,1.4696e-05,-8.23315e-05,2.13576e-05,1.14282e-05,-1.24564e-05,1.09057e-05,3.5708e-06,0
-2.99727e-05,1.52583e-05,-8.0465e-05,1.7193e-05,1.47193e-05,-1.2609e-05,1.3383e-05,2.38603e-06,0
-3.00372e-05,1.1605e-05,-6.89268e-05,1.18575e-05,1.62142e-05,-1.25728e-05,1.48549e-05,1.32601e-06,0
-3.16027e-05,4.51367e-06,-5.8359e-05,9.18145e-06,1.4549e-05,-1.24895e-05,1.56166e-05,5.77025e-07,0
-3.34569e-05,-2.04937e-06,-5.03085e-05,4.29659e-06,1.18872e-05,-1.18657e-05,1.61798e-05,3.33884e-07,0
-3.30593e-05,-4.59469e-06,-4.277e-05,-3.62847e-06,9.40176e-06,-1.08285e-05,1.71509e-05,3.02247e-07,0
-3.19566e-05,-5.21831e-06,-3.42374e-05,-1.19736e-05,6.82389e-06,-1.00806e-05,1.56919e-05,1.64343e-06,0
-3.16881e-05,-6.59698e-06,-2.5877e-05,-2.03076e-05,5.30448e-06,-9.9069e-06,1.25074e-05,3.00891e-06,0
-3.31665e-05,-8.53409e-06,-2.19413e-05,-2.82051e-05,5.27645e-06,-9.04033e-06,9.03943e-06,3.64369e-06,0
-3.47153e-05,-9.26983e-06,-2.17784e-05,-3.39024e-05,6.31272e-06,-7.53643e-06,7.10036e-06,3.5859e-06,0
-3.46764e-05,-7.27877e-06,-2.17606e-05,-3.64567e-05,7.32167e-06,-7.19896e-06,8.80832e-06,3.69814e-06,0
-3.27345e-05,-4.31907e-06,-2.02283e-05,-3.69466e-05,8.32669e-06,-7.8265e-06,1.33213e-05,3.27422e-06,0
-3.09579e-05,-2.15453e-06,-1.9167e-05,-3.72964e-05,9.00688e-06,-8.09295e-06,1.72646e-05,2.02543e-06,0
-3.05862e-05,-1.16241e-07,-1.87561e-05,-4.01245e-05,9.17837e-06,-8.20198e-06,1.83668e-05,7.52899e-07,0
-3.15588e-05,3.101e-06,-1.86701e-05,-4.70828e-05,9.06597e-06,-9.41185e-06,1.73368e-05,-7.38169e-07,0
-3.23846e-05,7.93494e-06,-1.79843e-05,-5.45076e-05,8.75622e-06,-1.10387e-05,1.49432e-05,-2.82427e-06,0
-3.20791e-05,1.22105e-05,-1.72204e-05,-5.46461e-05,7.71465e-06,-1.15088e-05,1.09969e-05,-4.24132e-06,0
-3.08241e-05,1.42744e-05,-1.66457e-05,-4.7276e-05,6.60086e-06,-1.11761e-05,4.81721e-06,-4.78694e-06,0
-2.89836e-05,1.49577e-05,-1.64791e-05,-3.76103e-05,6.71594e-06,-1.08226e-05,-2.59807e-06,-6.18725e-06,0
-2.78312e-05,1.51626e-05,-1.72083e-05,-2.84961e-05,7.54647e-06,-1.0473e-05,-7.68887e-06,-9.12434e-06,0
-2.83077e-05,1.44165e-05,-1.89528e-05,-2.07925e-05,8.06048e-06,-1.06268e-05,-7.95955e-06,-1.06748e-05,0
-3.07479e-05,1.27546e-05,-1.95985e-05,-1.21912e-05,8.93581e-06,-1.13243e-05,-3.9009e-06,-9.122e-06,0
-3.38032e-05,1.04197e-05,-1.79371e-05,8.24803e-07,1.05748e-05,-1.19985e-05,2.43233e-06,-6.84014e-06,0
-3.45237e-05,9.67418e-06,-1.5265e-05,1.88166e-05,1.31618e-05,-1.07448e-05,8.53753e-06,-6.0002e-06,0
-3.3126e-05,1.24591e-05,-1.37803e-05,3.75757e-05,1.70628e-05,-8.05626e-06,1.4094e-05,-6.22528e-06,0
-3.16487e-05,1.61694e-05,-1.19778e-05,4.80148e-05,2.0919e-05,-6.92913e-06,2.00742e-05,-4.01262e-06,0
-2.90763e-05,1.78613e-05,-9.28658e-06,4.33709e-05,2.37414e-05,-6.32109e-06,2.49568e-05,-3.70554e-07,0
-2.79884e-05,1.95022e-05,-8.0902e-06,2.83051e-05,2.44977e-05,-5.88924e-06,2.80328e-05,8.06853e-07,0
-2.93311e-05,2.1784e-05,-7.08469e-06,1.37647e-05,2.19221e-05,-6.49782e-06,3.01989e-05,-7.78305e-07,0
-3.07579e-05,2.16368e-05,-6.24626e-06,4.10489e-06,1.54947e-05,-7.25795e-06,3.05896e-05,-3.64816e-06,0
-3.29887e-05,2.05134e-05,-5.77978e-06,1.49717e-06,1.04731e-05,-7.05948e-06,3.07547e-05,-6.06161e-06,0
-3.52841e-05,1.91604e-05,-4.22014e-06,7.67166e-07,1.11708e-05,-6.82796e-06,2.98503e-05,-7.76029e-06,0
-3.50218e-05,1.51732e-05,-1.46205e-06,-2.9875e-07,1.49978e-05,-6.92711e-06,2.62346e-05,-8.27117e-06,0
-3.33596e-05,1.17084e-05,8.86918e-07,-1.70022e-06,1.75288e-05,-6.45966e-06,2.03693e-05,-6.837e-06,0
-3.13349e-05,1.22303e-05,2.74389e-06,-3.6608e-06,1.72761e-05,-6.11651e-06,1.55274e-05,-4.3368e-06,0
-2.9724e-05,1.40877e-05,3.5304e-06,-4.21321e-06,1.67772e-05,-5.77939e-06,1.34166e-05,-2.45849e-06,0
-2.96298e-05,1.48485e-05,2.80345e-06,-4.66918e-06,1.76005e-05,-5.20731e-06,1.28852e-05,-2.41661e-06,0
-3.01863e-05,1.4943e-05,9.17304e-07,-6.26427e-06,1.96188e-05,-4.56058e-06,1.24347e-05,-4.54742e-06,0
-3.06789e-05,1.46521e-05,3.33795e-07,-9.44279e-06,2.25291e-05,-3.91566e-06,1.12112e-05,-7.4405e-06,0
-3.14215e-05,1.38826e-05,1.84918e-06,-1.27556e-05,2.6612e-05,-3.5299e-06,1.03652e-05,-7.94369e-06,0
-3.21816e-05,1.27907e-05,3.80982e-06,-1.4868e-05,3.1075e-05,-3.03467e-06,9.44582e-06,-5.53968e-06,0
-3.21554e-05,1.15075e-05,5.6239e-06,-1.25042e-05,3.38314e-05,-1.56749e-06,8.85637e-06,-2.83809e-06,0
-3.11663e-05,1.046e-05,7.10972e-06,-6.35823e-06,3.31142e-05,-8.81102e-07,9.33262e-06,-8.65134e-07,0
-2.92438e-05,1.02077e-05,7.89261e-06,1.38777e-06,2.92219e-05,-2.85267e-06,1.09832e-05,4.55539e-07,0
-2.76589e-05,1.13876e-05,7.84247e-06,8.23075e-06,2.4417e-05,-4.50313e-06,1.22486e-05,1.37197e-07,0
-2.70578e-05,1.44969e-05,7.56581e-06,1.34734e-05,2.01043e-05,-2.96785e-06,1.25921e-05,-1.13081e-06,0
-2.6852e-05,1.74386e-05,6.64149e-06,1.56419e-05,1.66405e-05,1.867e-08,1.23481e-05,-1.60153e-06,0
-2.71526e-05,1.83567e-05,4.93593e-06,1.55015e-05,1.46007e-05,1.48316e-06,1.22044e-05,-1.81429e-06,0
-2.78049e-05,1.72884e-05,2.57583e-06,1.3844e-05,1.54753e-05,-1.07555e-06,1.25767e-05,-3.08899e-06,0
-2.8255e-05,1.53808e-05,1.3329e-06,9.89889e-06,1.774e-05,-5.09102e-06,1.32685e-05,-4.57279e-06,0
-2.84523e-05,1.39988e-05,2.64708e-06,4.56008e-06,1.71109e-05,-6.4339e-06,1.35903e-05,-6.07887e-06,0
-2.83032e-05,1.25417e-05,3.76555e-06,6.21285e-07,1.53323e-05,-7.07716e-06,1.38916e-05,-6.76567e-06,0
-2.86838e-05,1.28642e-05,2.13279e-06,5.44899e-07,1.55018e-05,-8.42428e-06,1.39702e-05,-4.89504e-06,0
-2.97775e-05,1.4332e-05,-2.27959e-07,-4.12897e-07,1.68796e-05,-9.32789e-06,1.34995e-05,-4.11053e-06,0
-3.12148e-05,1.29488e-05,-2.79055e-06,-5.17116e-06,1.6375e-05,-9.80705e-06,1.32681e-05,-6.21189e-06,0
-3.07097e-05,9.8396e-06,-4.21052e-06,-9.81621e-06,1.38665e-05,-1.09144e-05,1.22879e-05,-7.27125e-06,0
-2.78904e-05,8.38908e-06,-5.02803e-06,-8.02614e-06,1.26488e-05,-1.18309e-05,1.01443e-05,-5.86413e-06,0
-2.61585e-05,1.00252e-05,-5.74616e-06,-7.75505e-07,1.16095e-05,-1.15558e-05,9.66286e-06,-2.55107e-06,0
-2.7139e-05,1.36754e-05,-4.32041e-06,3.97771e-06,1.01021e-05,-1.04338e-05,1.1102e-05,7.85316e-07,0
-2.85932e-05,1.71e-05,-2.63285e-06,4.74031e-06,8.295e-06,-9.91189e-06,1.29114e-05,2.25676e-06,0
-2.95234e-05,1.81022e-05,-1.45475e-06,3.65677e-06,6.41212e-06,-1.04397e-05,1.3987e-05,1.5372e-06,0
-3.03794e-05,1.72433e-05,-2.38781e-06,2.9285e-06,5.86572e-06,-9.26531e-06,1.34752e-05,8.73318e-07,0
-3.08756e-05,1.64699e-05,-3.9264e-06,4.66379e-06,7.01651e-06,-6.95407e-06,1.31332e-05,1.99417e-06,0
-3.06727e-05,1.59034e-05,-3.78583e-06,1.05629e-05,8.808e-06,-5.54711e-06,1.23979e-05,4.57736e-06,0
-2.91896e-05,1.65757e-05,-2.72509e-06,1.9761e-05,9.96157e-06,-4.73775e-06,1.17802e-05,6.62558e-06,0
-2.77088e-05,1.78484e-05,-1.97578e-06,2.32863e-05,1.03149e-05,-3.78261e-06,1.15034e-05,6.30805e-06,0
-2.69733e-05,1.82164e-05,-8.90776e-07,1.74434e-05,9.41017e-06,-3.1878e-06,1.16139e-05,4.69931e-06,0
-2.65988e-05,1.70073e-05,2.90048e-07,7.63809e-06,6.44364e-06,-3.8004e-06,1.25759e-05,2.79432e-06,0
-2.64475e-05,1.4904e-05,8.1634e-07,2.52609e-06,3.83997e-06,-5.0222e-06,1.40877e-05,1.36631e-06,0
-2.69895e-05,1.20545e-05,1.78916e-06,3.7914e-06,4.63903e-06,-5.26079e-06,1.50409e-05,1.47881e-07,0
-2.79986e-05,9.13277e-06,2.19664e-06,5.66117e-06,6.82982e-06,-4.57177e-06,1.52481e-05,-1.86277e-06,0
-2.91902e-05,8.71916e-06,7.79378e-07,2.44512e-06,7.01786e-06,-4.78411e-06,1.54618e-05,-4.04942e-06,0
-2.95981e-05,1.02225e-05,-2.69484e-06,-6.03664e-06,5.06128e-06,-6.01876e-06,1.62881e-05,-4.47185e-06,0
-2.87518e-05,1.17778e-05,-6.3229e-06,-1.77937e-05,3.54844e-06,-7.76865e-06,1.81948e-05,-3.17457e-06,0
-2.82189e-05,1.16759e-05,-8.28266e-06,-3.44406e-05,2.98877e-06,-9.51684e-06,1.98013e-05,-2.11484e-06,0
-2.87417e-05,1.06202e-05,-8.6805e-06,-5.18335e-05,3.18304e-06,-1.08945e-05,1.95994e-05,-3.00773e-06,0
-2.91132e-05,1.02961e-05,-8.85684e-06,-6.28986e-05,4.02727e-06,-1.15527e-05,1.81714e-05,-4.65529e-06,0
-2.88508e-05,9.70273e-06,-9.58773e-06,-6.36165e-05,4.31361e-06,-1.14609e-05,1.75458e-05,-4.68544e-06,0
-2.91841e-05,9.1592e-06,-1.02973e-05,-5.7217e-05,3.95386e-06,-1.15243e-05,1.64951e-05,-1.88943e-06,0
-3.08852e-05,1.03823e-05,-8.83121e-06,-5.05572e-05,1.603e-06,-1.12174e-05,1.46072e-05,3.2806e-08,0
-3.08e-05,1.30993e-05,-7.81056e-06,-4.65333e-05,-1.80398e-06,-1.18891e-05,1.49527e-05,-1.21557e-06,0
-2.93471e-05,1.91975e-05,-8.99128e-06,-4.14609e-05,-1.85741e-06,-1.31302e-05,1.84112e-05,-3.20555e-06,0
-2.94365e-05,2.54242e-05,-8.83837e-06,-3.18124e-05,4.18249e-06,-1.24017e-05,2.12581e-05,-3.03329e-06,0
-2.98181e-05,2.91553e-05,-6.78557e-06,-2.07341e-05,1.20634e-05,-1.08191e-05,2.00644e-05,-8.64935e-07,0
-3.04362e-05,3.02684e-05,-5.64134e-06,-1.06836e-05,1.57874e-05,-1.00781e-05,1.50279e-05,8.57283e-07,0
-3.00394e-05,2.50656e-05,-6.53982e-06,-4.32401e-06,1.70182e-05,-1.22675e-05,1.12426e-05,2.17181e-06,0
-2.72802e-05,1.61262e-05,-8.33824e-06,3.86433e-07,1.81349e-05,-1.52295e-05,1.06247e-05,1.52445e-06,0
-2.53214e-05,7.26823e-06,-9.71197e-06,3.14949e-06,1.75279e-05,-1.63406e-05,1.01522e-05,-4.77835e-08,0
-2.58771e-05,1.95713e-06,-1.01528e-05,1.61103e-06,1.33846e-05,-1.64299e-05,9.16797e-06,5.21531e-07,0
-2.79982e-05,5.05208e-07,-1.03415e-05,-2.29192e-06,9.84997e-06,-1.75031e-05,8.51787e-06,2.17092e-06,0
-3.1218e-05,1.46437e-06,-1.05571e-05,-4.12838e-06,1.01632e-05,-1.7764e-05,8.83255e-06,3.00963e-06,0
-3.4429e-05,2.86402e-06,-1.09097e-05,-2.00401e-06,1.19922e-05,-1.69152e-05,9.35547e-06,3.12366e-06,0
-3.58819e-05,4.00059e-06,-1.09936e-05,2.79256e-06,1.21604e-05,-1.74023e-05,9.66944e-06,2.02004e-06,0
-3.51911e-05,9.68863e-06,-1.09244e-05,1.12537e-05,9.96774e-06,-1.78667e-05,9.43944e-06,5.10775e-07,0
-3.42945e-05,2.0333e-05,-1.13838e-05,1.97176e-05,8.40958e-06,-1.69656e-05,8.92779e-06,2.08511e-07,0
-3.30849e-05,2.84786e-05,-1.25475e-05,2.29959e-05,9.83037e-06,-1.59014e-05,8.48444e-06,3.47168e-07,0
-3.09479e-05,2.85668e-05,-1.34963e-05,1.96731e-05,1.33551e-05,-1.65505e-05,8.31487e-06,-2.87054e-08,0
-2.90706e-05,2.06805e-05,-1.41064e-05,1.44242e-05,1.59974e-05,-1.71442e-05,7.60536e-06,-1.1223e-06,0
-2.9615e-05,7.27968e-06,-1.39627e-05,9.83073e-06,1.77461e-05,-1.79725e-05,6.49575e-06,-1.58161e-06,0
-3.12957e-05,-6.73861e-06,-1.27767e-05,4.97167e-06,1.97979e-05,-1.94153e-05,6.67749e-06,7.15362e-07,0
-3.14007e-05,-1.90066e-05,-1.16333e-05,-3.21104e-06,2.14531e-05,-2.01696e-05,8.65474e-06,3.62203e-06,0
-3.10828e-05,-3.06189e-05,-1.1024e-05,-1.44097e-05,2.05093e-05,-1.97802e-05,1.09353e-05,3.50498e-06,0
-3.14808e-05,-3.87814e-05,-1.13572e-05,-2.15249e-05,1.58865e-05,-1.97968e-05,1.10674e-05,2.36403e-06,0
-3.23141e-05,-3.87998e-05,-1.27516e-05,-1.82868e-05,1.12094e-05,-1.94359e-05,1.11671e-05,3.61124e-06,0
-3.26861e-05,-3.14266e-05,-1.29619e-05,-1.25591e-05,9.90174e-06,-1.73006e-05,1.18876e-05,6.41502e-06,0
-3.1579e-05,-2.15209e-05,-1.33355e-05,-1.21606e-05,1.02044e-05,-1.45953e-05,1.13483e-05,7.10223e-06,0
-3.01369e-05,-1.24113e-05,-1.5443e-05,-1.17785e-05,1.10843e-05,-1.29108e-05,9.38431e-06,5.07004e-06,0
-2.99734e-05,-7.46281e-06,-1.62745e-05,-1.07694e-05,1.17723e-05,-1.34577e-05,8.15114e-06,4.30347e-06,0
-3.07319e-05,-8.08339e-06,-1.57541e-05,-9.10008e-06,1.20925e-05,-1.26731e-05,8.43442e-06,4.43526e-06,0
-3.20421e-05,-6.35285e-06,-1.46952e-05,-6.71521e-06,1.33157e-05,-1.00698e-05,9.083e-06,5.15459e-06,0
-3.21598e-05,-1.08941e-06,-1.37705e-05,-4.58961e-06,1.43738e-05,-8.29237e-06,9.88357e-06,5.2536e-06,0
-3.131e-05,3.83665e-06,-1.46933e-05,-1.31696e-06,1.44157e-05,-7.92318e-06,8.4083e-06,3.21194e-06,0
-3.08374e-05,7.12609e-06,-1.53242e-05,4.5844e-07,1.46368e-05,-9.08667e-06,6.81477e-06,2.54981e-06,0
-3.00679e-05,8.71078e-06,-1.30516e-05,1.01655e-06,1.72569e-05,-1.12452e-05,8.01216e-06,3.04003e-06,0
-3.05596e-05,1.04707e-05,-1.05665e-05,3.26817e-06,2.05231e-05,-1.33318e-05,9.57331e-06,2.81395e-06,0
-3.07474e-05,1.33652e-05,-8.89137e-06,6.33634e-06,2.02167e-05,-1.30168e-05,9.97354e-06,1.27719e-06,0
-2.95273e-05,1.61866e-05,-8.00951e-06,8.39304e-06,1.72176e-05,-1.11556e-05,1.09456e-05,4.82641e-07,0
-2.81708e-05,1.55938e-05,-8.40431e-06,8.62189e-06,1.48919e-05,-1.0648e-05,1.23551e-05,1.66035e-06,0
-2.64014e-05,1.3224e-05,-9.10951e-06,7.88454e-06,1.33012e-05,-1.13839e-05,1.29026e-05,3.31371e-06,0
-2.5455e-05,1.23219e-05,-9.91103e-06,7.47778e-06,1.26004e-05,-1.18244e-05,1.29479e-05,3.29884e-06,0
-2.71217e-05,1.29284e-05,-1.09396e-05,8.29549e-06,1.21892e-05,-1.18416e-05,1.34927e-05,2.52311e-06,0
-3.05476e-05,1.0919e-05,-1.18273e-05,8.61895e-06,1.12413e-05,-1.16446e-05,1.50889e-05,3.06494e-06,0
-3.23071e-05,5.08384e-06,-1.22797e-05,7.99875e-06,9.59355e-06,-1.14644e-05,1.6557e-05,4.57963e-06,0
-3.22164e-05,-1.07306e-06,-1.23368e-05,6.72693e-06,7.37802e-06,-1.19856e-05,1.71872e-05,5.1294e-06,0
-3.10002e-05,-3.71592e-06,-1.19086e-05,3.56003e-06,6.46065e-06,-1.32037e-05,1.71553e-05,2.28502e-06,0
-3.01007e-05,-3.18535e-06,-1.16622e-05,-1.97448e-06,6.58151e-06,-1.37937e-05,1.78818e-05,-2.23883e-06,0
-3.1095e-05,-1.37582e-06,-1.2355e-05,-5.62974e-06,7.42239e-06,-1.21419e-05,1.9117e-05,-4.91566e-06,0
-3.18511e-05,1.14173e-06,-1.32797e-05,-6.67081e-06,9.32549e-06,-1.0188e-05,1.96821e-05,-4.82979e-06,0
-3.04883e-05,4.02749e-06,-1.3445e-05,-9.20035e-06,1.03978e-05,-9.43031e-06,1.86188e-05,-4.28144e-06,0
-2.83283e-05,7.80348e-06,-1.34583e-05,-1.29664e-05,9.62872e-06,-8.49287e-06,1.70181e-05,-4.74887e-06,0
-2.66877e-05,1.0609e-05,-1.24979e-05,-1.64076e-05,9.0579e-06,-7.08562e-06,1.49275e-05,-5.66021e-06,0
-2.69901e-05,1.13219e-05,-1.00365e-05,-1.76768e-05,1.08863e-05,-6.1644e-06,1.15606e-05,-5.97272e-06,0
-2.72083e-05,1.13293e-05,-7.71109e-06,-1.50605e-05,1.48057e-05,-5.05455e-06,9.35444e-06,-4.90857e-06,0
-2.60547e-05,1.26926e-05,-5.50958e-06,-1.14964e-05,2.00231e-05,-3.07858e-06,9.27148e-06,-4.66808e-06,0
-2.61165e-05,1.60326e-05,-3.11794e-06,-7.09795e-06,2.37806e-05,-2.01264e-06,1.01571e-05,-3.9722e-06,0
-2.63601e-05,1.83214e-05,-1.45592e-06,-1.12943e-07,2.40612e-05,-3.81692e-06,1.12905e-05,-1.19703e-06,0
-2.54835e-05,1.93153e-05,-1.04696e-07,5.80227e-06,2.24949e-05,-6.57492e-06,1.31704e-05,1.12631e-07,0
-2.28491e-05,2.0331e-05,-2.21096e-07,7.47372e-06,1.95939e-05,-7.48853e-06,1.48857e-05,3.76241e-07,0
-2.20973e-05,2.03794e-05,-2.63959e-06,4.68245e-06,1.71752e-05,-7.5302e-06,1.48914e-05,8.70586e-07,0
-2.36683e-05,1.9632e-05,-3.89278e-06,1.59833e-06,1.60392e-05,-7.57251e-06,1.27989e-05,1.7856e-06,0
-2.43518e-05,2.02837e-05,-3.56466e-06,1.42603e-06,1.56474e-05,-8.24609e-06,1.01738e-05,1.11497e-06,0
-2.55213e-05,2.23498e-05,-4.05237e-06,3.75162e-06,1.5722e-05,-9.10175e-06,9.45557e-06,-4.76705e-07,0
-2.65772e-05,2.28239e-05,-6.2893e-06,5.86275e-06,1.57707e-05,-8.73601e-06,9.89697e-06,2.02185e-08,0
-2.68698e-05,2.06326e-05,-9.55238e-06,4.37221e-06,1.50979e-05,-7.35751e-06,8.99999e-06,2.16944e-06,0
-2.68366e-05,1.81964e-05,-1.10677e-05,-1.60622e-06,1.35018e-05,-6.57593e-06,7.8044e-06,3.23693e-06,0
-2.70287e-05,1.60971e-05,-1.05619e-05,-1.09349e-05,1.2448e-05,-7.29778e-06,7.62024e-06,2.06569e-06,0
-2.67465e-05,1.24491e-05,-9.60285e-06,-2.0959e-05,1.28088e-05,-6.9908e-06,8.37328e-06,8.3532e-07,0
-2.64777e-05,7.41906e-06,-1.01755e-05,-2.77526e-05,1.46422e-05,-5.41619e-06,1.01176e-05,1.32576e-06,0
-2.65712e-05,2.70674e-06,-1.14445e-05,-2.85294e-05,1.59775e-05,-4.50631e-06,1.27107e-05,3.27016e-06,0
-2.61316e-05,1.19199e-06,-1.15381e-05,-2.42161e-05,1.4907e-05,-4.49679e-06,1.52288e-05,4.43042e-06,0
-2.61234e-05,3.76274e-06,-1.1418e-05,-1.89368e-05,1.39204e-05,-3.54798e-06,1.6144e-05,4.06369e-06,0
-2.73602e-05,8.81738e-06,-1.13139e-05,-1.54297e-05,1.5789e-05,-1.52738e-06,1.41409e-05,1.86005e-06,0
-2.89216e-05,1.27651e-05,-1.08312e-05,-1.19905e-05,1.76208e-05,-4.99484e-07,1.02392e-05,-5.69013e-08,0
-2.96387e-05,1.30006e-05,-9.54628e-06,-7.93925e-06,1.74802e-05,-7.92025e-07,8.41788e-06,1.11354e-07,0
-2.98292e-05,1.10113e-05,-7.97537e-06,-5.208e-06,1.78241e-05,-1.27365e-06,8.87418e-06,9.53405e-08,0
-3.03136e-05,9.43986e-06,-7.41834e-06,-2.50286e-06,1.86845e-05,-2.10638e-06,8.36868e-06,1.61517e-07,0
-3.24961e-05,7.87974e-06,-7.52994e-06,8.7509e-07,1.85203e-05,-2.95435e-06,6.53791e-06,3.5748e-06,0
-3.4926e-05,7.01265e-06,-8.92934e-06,4.79585e-06,1.57647e-05,-3.4152e-06,6.44554e-06,7.26096e-06,0
-3.54036e-05,7.85508e-06,-1.25444e-05,9.00627e-06,1.20264e-05,-6.52519e-06,8.48206e-06,8.07359e-06,0
-3.37905e-05,9.99441e-06,-1.45725e-05,1.0165e-05,1.10756e-05,-1.07415e-05,1.07096e-05,7.60069e-06,0
-3.1749e-05,1.31769e-05,-1.40772e-05,8.35167e-06,1.38207e-05,-1.46297e-05,1.27125e-05,8.33035e-06,0
-3.08761e-05,1.682e-05,-1.40824e-05,4.92841e-06,1.58397e-05,-1.9833e-05,1.36209e-05,9.66944e-06,0
-3.20497e-05,1.93116e-05,-1.40165e-05,8.77336e-07,1.41347e-05,-2.36278e-05,1.29211e-05,1.08833e-05,0
-3.36589e-05,1.95999e-05,-1.10564e-05,-8.215e-07,1.43571e-05,-2.33331e-05,1.1468e-05,1.09402e-05,0
-3.52164e-05,2.02092e-05,-7.63047e-06,-4.00941e-06,1.49772e-05,-2.0504e-05,1.13014e-05,8.96194e-06,0
-3.70266e-05,2.21488e-05,-6.77912e-06,-1.47539e-05,1.46208e-05,-1.59843e-05,1.2729e-05,7.412e-06,0
-3.72356e-05,2.34582e-05,-7.8049e-06,-3.14796e-05,1.45567e-05,-1.23336e-05,1.3009e-05,6.13263e-06,0
-3.63471e-05,2.3361e-05,-7.46679e-06,-4.47792e-05,1.36542e-05,-1.07918e-05,1.22793e-05,4.66482e-06,0
-3.61657e-05,2.15832e-05,-7.32608e-06,-4.665e-05,1.2293e-05,-1.01415e-05,1.13141e-05,3.5486e-06,0
-3.72102e-05,1.83815e-05,-9.87113e-06,-4.05156e-05,1.07639e-05,-1.2863e-05,1.03273e-05,3.682e-06,0
-3.80301e-05,1.59366e-05,-1.13287e-05,-2.90555e-05,1.04381e-05,-1.80721e-05,9.72804e-06,3.05751e-06,0
-3.80335e-05,1.60276e-05,-1.00469e-05,-1.42826e-05,1.03928e-05,-2.36972e-05,1.0284e-05,2.17707e-06,0
-3.65413e-05,1.62501e-05,-7.83162e-06,5.48175e-07,1.0408e-05,-2.87774e-05,1.2099e-05,1.02812e-06,0
-3.39523e-05,1.52613e-05,-7.43745e-06,1.15476e-05,1.03429e-05,-2.45999e-05,1.28051e-05,-1.30108e-06,0
-3.25541e-05,1.43787e-05,-8.1823e-06,1.64746e-05,9.57057e-06,-2.2772e-06,1.18996e-05,-3.28381e-06,0
-3.29406e-05,1.29367e-05,-8.06641e-06,1.58988e-05,8.31132e-06,2.49927e-05,1.19612e-05,-3.35788e-06,0
-3.32946e-05,1.05908e-05,-5.9464e-06,1.15606e-05,8.14839e-06,3.33381e-05,1.3923e-05,-1.13714e-06,0
-3.25724e-05,9.10763e-06,-3.49573e-06,5.56491e-06,9.41924e-06,2.09094e-05,1.54837e-05,1.92299e-06,0
-3.1255e-05,1.02044e-05,-1.78021e-06,-2.16532e-06,9.99874e-06,6.16117e-06,1.53978e-05,4.03902e-06,0
-3.0654e-05,1.26222e-05,-2.67127e-07,-7.49268e-06,8.71366e-06,-4.20287e-07,1.41112e-05,4.56282e-06,0
-3.10924e-05,1.52406e-05,-1.5312e-07,-7.0566e-06,6.76063e-06,-1.57317e-06,1.3419e-05,4.95253e-06,0
-3.12883e-05,1.66106e-05,-8.26027e-07,-4.25669e-06,5.29981e-06,-1.42907e-06,1.37286e-05,4.91444e-06,0
-3.09727e-05,1.57385e-05,3.24043e-07,-2.91852e-06,3.93383e-06,-1.45308e-06,1.3072e-05,3.99716e-06,0
-3.13045e-05,1.49603e-05,8.87317e-07,-3.40699e-06,1.53059e-06,-1.77232e-06,1.11144e-05,3.55822e-06,0
-3.35803e-05,1.59135e-05,-1.59934e-07,-6.26485e-06,-2.15334e-07,-3.35585e-06,1.00481e-05,4.54707e-06,0
-3.53558e-05,1.63294e-05,-1.53359e-06,-6.94771e-06,-1.09721e-06,-6.19088e-06,9.74977e-06,3.8398e-06,0
-3.45735e-05,1.68321e-05,-3.43283e-06,-4.74027e-06,-1.83713e-06,-7.27571e-06,9.27559e-06,7.44772e-07,0
-3.30451e-05,1.81493e-05,-4.69561e-06,-2.45305e-06,-1.85119e-06,-6.73953e-06,8.92399e-06,-1.90265e-06,0
-3.21234e-05,1.77493e-05,-5.79207e-06,1.3049e-08,-3.97406e-07,-8.301e-06,8.08254e-06,-1.19031e-06,0
-3.22893e-05,1.65011e-05,-6.41554e-06,2.1461e-06,4.04914e-06,-9.22501e-06,7.26594e-06,2.31551e-06,0
-3.29424e-05,1.59839e-05,-6.83977e-06,4.84658e-06,9.46755e-06,-8.69285e-06,6.73824e-06,4.88084e-06,0
-3.22764e-05,1.65132e-05,-5.83675e-06,6.92448e-06,1.50509e-05,-6.44061e-06,6.23692e-06,4.76494e-06,0
-2.98631e-05,1.72305e-05,-3.3208e-06,7.21375e-06,1.83238e-05,-3.46895e-06,6.23278e-06,4.32533e-06,0
-2.82569e-05,1.70194e-05,-1.22912e-06,5.93862e-06,1.63932e-05,-2.00244e-06,6.09197e-06,3.89891e-06,0
-2.91837e-05,1.7284e-05,-1.02881e-06,3.9494e-06,1.20676e-05,-1.61121e-06,5.83145e-06,1.98885e-06,0
-3.19799e-05,1.69803e-05,-3.06074e-06,4.40237e-06,1.02599e-05,-2.9097e-06,7.04505e-06,1.31738e-06,0
-3.44235e-05,1.62098e-05,-6.54746e-06,8.41095e-06,1.3267e-05,-3.52966e-06,1.02691e-05,2.83933e-06,0
-3.46274e-05,1.61252e-05,-1.01295e-05,1.3955e-05,1.71572e-05,-4.03574e-06,1.26658e-05,5.02825e-06,0
-3.38322e-05,1.81459e-05,-1.3281e-05,1.79716e-05,1.93847e-05,-5.37265e-06,1.25927e-05,6.94742e-06,0
-3.33956e-05,2.14813e-05,-1.65957e-05,1.80695e-05,1.93783e-05,-7.42117e-06,1.17703e-05,7.90385e-06,0
-3.29799e-05,2.33838e-05,-1.9183e-05,1.48679e-05,1.87541e-05,-9.39758e-06,1.21374e-05,7.23892e-06,0
-3.27362e-05,2.40876e-05,-2.08068e-05,1.15889e-05,2.02349e-05,-9.06638e-06,1.35807e-05,6.20928e-06,0
-3.43539e-05,2.52426e-05,-2.01452e-05,9.12406e-06,2.22395e-05,-7.20493e-06,1.55308e-05,5.86295e-06,0
-3.67262e-05,2.73207e-05,-1.63093e-05,4.68046e-06,2.1615e-05,-6.52405e-06,1.76745e-05,5.66162e-06,0
-3.72551e-05,2.79564e-05,-1.0718e-05,-2.61376e-06,1.85984e-05,-7.53285e-06,1.80037e-05,4.5205e-06,0
-3.58519e-05,2.74864e-05,-5.28592e-06,-1.0395e-05,1.6335e-05,-9.48068e-06,1.57588e-05,2.20272e-06,0
-3.39484e-05,2.60302e-05,1.41938e-06,-1.63146e-05,1.51422e-05,-1.148e-05,1.23508e-05,-2.52428e-07,0
-3.32016e-05,2.40445e-05,1.40413e-05,-2.0906e-05,1.48508e-05,-1.29419e-05,9.61418e-06,-1.54336e-06,0
-3.39466e-05,2.09165e-05,3.33599e-05,-2.49577e-05,1.55109e-05,-1.33561e-05,7.97694e-06,-2.20746e-06,0
-3.52107e-05,1.74142e-05,5.19392e-05,-2.80995e-05,1.54333e-05,-1.21775e-05,8.07053e-06,-4.01973e-06,0
-3.57384e-05,1.50722e-05,5.82575e-05,-2.97156e-05,1.29275e-05,-1.18157e-05,9.57865e-06,-6.30292e-06,0
-3.53828e-05,1.44466e-05,4.58937e-05,-2.72961e-05,1.0661e-05,-1.29009e-05,1.09403e-05,-6.94216e-06,0
-3.47382e-05,1.39658e-05,1.81434e-05,-1.81817e-05,1.05455e-05,-1.38107e-05,1.17774e-05,-7.03654e-06,0
-3.35615e-05,1.18201e-05,-1.67663e-05,-7.34082e-06,1.11919e-05,-1.50667e-05,1.14328e-05,-7.80677e-06,0
-3.19039e-05,9.06419e-06,-5.23131e-05,1.91231e-06,1.14284e-05,-1.46205e-05,8.77539e-06,-8.50034e-06,0
-3.11858e-05,9.11724e-06,-7.94401e-05,1.25646e-05,1.28476e-05,-1.13555e-05,7.42341e-06,-8.6103e-06,0
-3.21475e-05,1.20434e-05,-9.07711e-05,2.49593e-05,1.85862e-05,-9.40331e-06,1.02177e-05,-6.87417e-06,0
-3.12963e-05,1.58048e-05,-8.73294e-05,3.13275e-05,2.67918e-05,-1.0192e-05,1.48661e-05,-6.02014e-06,0
-2.90382e-05,1.888e-05,-7.61287e-05,2.80558e-05,3.2144e-05,-1.1428e-05,1.80074e-05,-7.07385e-06,0
-2.89456e-05,1.75894e-05,-6.56863e-05,2.05331e-05,3.22526e-05,-1.04509e-05,1.84646e-05,-5.63484e-06,0
-2.88421e-05,1.52302e-05,-5.60835e-05,1.1327e-05,2.62331e-05,-8.70175e-06,1.81408e-05,-1.91111e-06,0
-2.84575e-05,1.32503e-05,-4.5771e-05,1.89221e-06,1.81856e-05,-7.40374e-06,1.7422e-05,1.8902e-06,0
-2.93443e-05,1.25154e-05,-3.45264e-05,-8.06519e-06,1.43598e-05,-7.18813e-06,1.64173e-05,2.3318e-06,0
-3.00209e-05,1.27508e-05,-2.31698e-05,-1.86301e-05,1.36648e-05,-8.83474e-06,1.5914e-05,5.20603e-07,0
-2.92214e-05,1.43306e-05,-1.38468e-05,-2.76598e-05,1.35261e-05,-9.99812e-06,1.54507e-05,2.50425e-07,0
-2.83844e-05,1.76205e-05,-6.23251e-06,-3.44199e-05,1.23442e-05,-1.04104e-05,1.40912e-05,4.00387e-08,0
-2.68849e-05,1.76212e-05,-1.30131e-06,-4.16835e-05,1.02672e-05,-1.08747e-05,1.28076e-05,3.21194e-07,0
-2.48032e-05,1.31721e-05,-2.45603e-07,-4.81441e-05,8.76293e-06,-1.13905e-05,1.23963e-05,3.8977e-07,0
-2.41886e-05,7.87785e-06,-1.23899e-06,-4.90773e-05,7.82771e-06,-1.18395e-05,1.19199e-05,-3.34935e-07,0
-2.481e-05,4.97806e-06,-1.87257e-06,-4.31506e-05,6.16475e-06,-1.32116e-05,1.01156e-05,-6.824e-07,0
-2.52569e-05,2.72208e-06,-2.20851e-06,-3.32304e-05,5.87925e-06,-1.51295e-05,8.59592e-06,-8.31641e-07,0
-2.53644e-05,9.50284e-07,-2.31476e-06,-2.31766e-05,8.7417e-06,-1.59595e-05,9.04122e-06,-1.15312e-06,0
-2.53491e-05,7.78754e-07,-1.45213e-06,-1.40374e-05,1.27952e-05,-1.67739e-05,1.02426e-05,-7.85365e-07,0
-2.45505e-05,1.66308e-06,5.8848e-07,-5.5096e-06,1.62413e-05,-1.85931e-05,1.0746e-05,5.25799e-07,0
-2.3626e-05,2.27171e-06,1.62881e-06,8.45922e-07,1.84746e-05,-1.95281e-05,1.10975e-05,1.51778e-06,0
-2.38476e-05,4.23579e-06,1.00193e-06,2.53557e-06,1.91078e-05,-1.75653e-05,1.14214e-05,1.87004e-06,0
-2.50079e-05,8.1055e-06,3.93311e-07,9.23419e-07,1.67289e-05,-1.38158e-05,1.03904e-05,2.43655e-06,0
-2.47316e-05,1.10819e-05,8.2951e-07,-6.8798e-07,1.32298e-05,-1.20631e-05,8.75933e-06,1.68682e-06,0
-2.40887e-05,1.15137e-05,1.02092e-06,-2.82788e-08,1.13064e-05,-1.21735e-05,7.87167e-06,-1.11075e-06,0
-2.50578e-05,1.11422e-05,-2.8561e-07,2.9606e-06,9.35611e-06,-1.12751e-05,9.05512e-06,-3.11993e-06,0
-2.58705e-05,1.28146e-05,-1.12163e-06,7.39049e-06,7.19111e-06,-9.58398e-06,1.02683e-05,-3.69256e-06,0
-2.58323e-05,1.71413e-05,-7.85853e-07,1.81317e-05,8.03071e-06,-8.97705e-06,1.13102e-05,-3.28309e-06,0
-2.67817e-05,2.10792e-05,4.81747e-08,3.59255e-05,9.46845e-06,-1.17643e-05,1.46918e-05,-2.58728e-06,0
-2.74291e-05,2.20174e-05,3.86288e-07,4.56172e-05,8.55642e-06,-1.48499e-05,1.80151e-05,-1.59985e-06,0
-2.67945e-05,2.00141e-05,-1.68181e-06,3.77699e-05,7.35392e-06,-1.52428e-05,1.79827e-05,3.55903e-07,0
-2.63246e-05,1.64407e-05,-2.57363e-06,2.05344e-05,7.89229e-06,-1.4927e-05,1.53359e-05,1.68791e-06,0
-2.67047e-05,1.56121e-05,-1.5211e-06,8.09435e-06,9.589e-06,-1.36107e-05,1.2225e-05,1.1589e-06,0
-2.6485e-05,1.6501e-05,2.28586e-07,8.26087e-06,8.82909e-06,-1.26593e-05,1.0652e-05,-2.96439e-07,0
-2.38433e-05,1.80212e-05,1.46622e-06,1.64931e-05,8.29916e-06,-1.32524e-05,1.1564e-05,-9.06581e-07,0
-2.31394e-05,1.94725e-05,6.53147e-08,2.15904e-05,1.03263e-05,-1.38037e-05,1.25079e-05,3.66933e-07,0
-2.52556e-05,2.05197e-05,-2.05684e-06,1.98527e-05,1.21741e-05,-1.34828e-05,1.32097e-05,2.2378e-06,0
-2.71217e-05,2.09442e-05,-3.08207e-06,1.40967e-05,1.40798e-05,-1.22791e-05,1.41507e-05,3.47191e-06,0
-2.7664e-05,2.12474e-05,-2.24162e-06,3.31767e-06,1.6277e-05,-1.12515e-05,1.49172e-05,4.19102e-06,0
-2.57999e-05,2.21088e-05,-1.53339e-06,-1.46788e-05,1.64618e-05,-1.12085e-05,1.63577e-05,4.30621e-06,0
-2.40336e-05,2.213e-05,-2.62441e-06,-3.60019e-05,1.47928e-05,-1.20118e-05,1.83841e-05,3.67444e-06,0
-2.58833e-05,2.13134e-05,-5.89062e-06,-5.18476e-05,1.4224e-05,-1.19145e-05,1.94033e-05,3.59139e-06,0
-2.93802e-05,1.88709e-05,-9.31908e-06,-5.84356e-05,1.43778e-05,-1.02367e-05,1.95484e-05,5.07782e-06,0
-3.01794e-05,1.57966e-05,-1.0007e-05,-6.16001e-05,1.37652e-05,-9.14688e-06,1.98932e-05,7.3675e-06,0
-2.91099e-05,1.3144e-05,-7.76306e-06,-6.88777e-05,1.23288e-05,-9.9662e-06,1.93782e-05,8.94882e-06,0
-2.85339e-05,1.15463e-05,-6.66835e-06,-7.49524e-05,1.05694e-05,-1.09856e-05,1.80491e-05,8.93071e-06,0
-2.9211e-05,1.09137e-05,-8.24997e-06,-6.90724e-05,9.46612e-06,-1.10421e-05,1.66617e-05,7.52344e-06,0
-3.06332e-05,1.07911e-05,-9.96931e-06,-5.08775e-05,1.00409e-05,-1.13176e-05,1.48699e-05,5.1999e-06,0
-3.12574e-05,1.14875e-05,-1.08156e-05,-3.10964e-05,1.0366e-05,-1.16025e-05,1.32581e-05,3.08306e-06,0
-3.08e-05,1.34329e-05,-1.1665e-05,-1.85315e-05,9.41124e-06,-1.03356e-05,1.29634e-05,2.13304e-06,0
-3.06274e-05,1.51978e-05,-1.11497e-05,-1.20072e-05,6.62726e-06,-9.52992e-06,1.29658e-05,2.2596e-06,0
-3.07332e-05,1.59052e-05,-8.76703e-06,-7.42959e-06,4.02157e-06,-1.00255e-05,1.12929e-05,1.06944e-06,0
-3.17095e-05,1.66842e-05,-7.30946e-06,-5.25378e-06,5.10943e-06,-1.08518e-05,9.96367e-06,-2.60159e-06,0
-3.50094e-05,1.79006e-05,-7.29227e-06,-6.20357e-06,7.36713e-06,-1.06615e-05,1.19333e-05,-5.14612e-06,0
-3.60202e-05,2.00672e-05,-7.18585e-06,-7.34011e-06,7.97543e-06,-7.88406e-06,1.57964e-05,-4.42897e-06,0
-3.39589e-05,2.14546e-05,-6.41645e-06,-8.47491e-06,6.90105e-06,-6.22796e-06,1.79819e-05,-1.64216e-06,0
-3.36297e-05,1.91664e-05,-8.2664e-06,-8.75499e-06,5.71789e-06,-7.26059e-06,1.78916e-05,8.63928e-07,0
-3.35834e-05,1.83827e-05,-1.06768e-05,-8.66321e-06,4.63274e-06,-9.26611e-06,1.82458e-05,1.98237e-06,0
-3.23618e-05,2.00052e-05,-8.55097e-06,-9.97058e-06,5.78899e-06,-1.04584e-05,1.94751e-05,2.52665e-07,0
-3.15663e-05,2.00788e-05,-4.90436e-06,-1.00434e-05,1.11759e-05,-1.05435e-05,2.03387e-05,-2.43993e-06,0
-3.06236e-05,1.93208e-05,-3.11614e-06,-7.50588e-06,2.01329e-05,-1.07065e-05,1.8965e-05,-1.20032e-06,0
-3.00398e-05,1.84928e-05,-2.83925e-06,-3.76274e-06,2.91407e-05,-9.82273e-06,1.71731e-05,2.14125e-06,0
-2.98983e-05,2.00448e-05,-2.59679e-06,-2.45239e-06,3.06568e-05,-8.56837e-06,1.60362e-05,4.41005e-06,0
-3.03874e-05,2.28142e-05,-2.55592e-06,-3.85413e-06,2.45026e-05,-9.33405e-06,1.60059e-05,3.94003e-06,0
-3.19994e-05,2.24558e-05,-5.26164e-06,-2.74745e-06,1.78143e-05,-1.13353e-05,1.69684e-05,1.4966e-06,0
-3.28714e-05,1.9702e-05,-8.55541e-06,5.35864e-06,1.5838e-05,-1.10382e-05,1.68263e-05,-8.37017e-07,0
-3.23991e-05,1.8165e-05,-9.97487e-06,1.82611e-05,1.73664e-05,-8.11092e-06,1.58834e-05,-1.76331e-06,0
-3.05565e-05,1.77269e-05,-9.16013e-06,3.13695e-05,1.89649e-05,-5.37919e-06,1.40045e-05,-1.69029e-06,0
-2.90353e-05,1.71518e-05,-6.5195e-06,3.93066e-05,2.03379e-05,-3.94271e-06,1.1864e-05,-1.53321e-06,0
-2.90621e-05,1.69204e-05,-3.71569e-06,3.7664e-05,2.21921e-05,-3.77381e-06,1.10539e-05,-1.78956e-06,0
-3.04498e-05,1.80933e-05,-2.18607e-06,2.97368e-05,2.37748e-05,-4.72493e-06,1.25409e-05,-2.95687e-06,0
-3.25875e-05,2.01566e-05,-1.87208e-06,2.263e-05,2.47067e-05,-6.26864e-06,1.42743e-05,-4.61115e-06,0
-3.41914e-05,2.24379e-05,-2.14109e-06,1.91241e-05,2.39088e-05,-7.38951e-06,1.52408e-05,-5.89489e-06,0
-3.40229e-05,2.42171e-05,-3.32047e-06,1.55181e-05,1.90677e-05,-7.73551e-06,1.44128e-05,-5.76481e-06,0
-3.12678e-05,2.44921e-05,-4.55832e-06,1.08451e-05,1.16835e-05,-8.36368e-06,1.09901e-05,-4.61287e-06,0
-2.85586e-05,2.15851e-05,-4.99159e-06,7.78733e-06,6.59661e-06,-9.19005e-06,7.59611e-06,-2.96946e-06,0
-2.8781e-05,1.68239e-05,-4.67214e-06,6.6244e-06,6.21344e-06,-8.83702e-06,7.63608e-06,-1.63029e-06,0
-3.00479e-05,1.32635e-05,-4.5495e-06,4.67538e-06,8.46365e-06,-6.35764e-06,9.30641e-06,-1.49449e-06,0
-2.94468e-05,1.14272e-05,-5.61103e-06,1.68952e-06,9.98283e-06,-3.62415e-06,1.04807e-05,-2.16748e-06,0
-2.84267e-05,1.22452e-05,-6.87914e-06,3.81817e-07,9.11069e-06,-3.23127e-06,1.24439e-05,-2.08509e-06,0
-2.89103e-05,1.34555e-05,-7.03624e-06,1.78481e-06,9.46436e-06,-4.64771e-06,1.58264e-05,-6.1864e-07,0
-2.92798e-05,1.24522e-05,-7.46711e-06,3.84206e-06,1.30975e-05,-8.04835e-06,1.67865e-05,1.39122e-06,0
-2.90141e-05,1.05111e-05,-6.57273e-06,3.51787e-06,1.61011e-05,-1.08166e-05,1.30233e-05,1.87622e-06,0
-2.91891e-05,9.58896e-06,-4.70223e-06,3.04051e-07,1.50682e-05,-1.24212e-05,9.5484e-06,1.29886e-06,0
-2.86007e-05,9.83868e-06,-4.27287e-06,-2.90686e-06,1.36198e-05,-1.4148e-05,8.92181e-06,-5.71309e-07,0
-2.82699e-05,9.10668e-06,-4.17342e-06,-3.66641e-06,1.43849e-05,-1.35259e-05,9.98848e-06,-1.75491e-06,0
-2.9334e-05,8.48259e-06,-4.88042e-06,-1.97127e-06,1.64137e-05,-1.18489e-05,1.0496e-05,-7.64286e-07,0
-2.91284e-05,1.05663e-05,-6.34309e-06,-6.00877e-08,2.04732e-05,-9.86331e-06,1.1847e-05,3.43104e-07,0
-2.71651e-05,1.37581e-05,-7.95702e-06,-4.68155e-07,2.23792e-05,-7.73971e-06,1.53774e-05,4.33953e-07,0
-2.70688e-05,1.59898e-05,-8.71267e-06,-2.84213e-06,2.04638e-05,-6.03475e-06,1.84436e-05,-8.00885e-07,0
-2.98086e-05,1.57188e-05,-8.4182e-06,-6.45338e-06,1.67023e-05,-5.88792e-06,1.77612e-05,-1.13907e-06,0
-3.17845e-05,1.39201e-05,-7.89045e-06,-1.08444e-05,1.30904e-05,-6.77337e-06,1.33218e-05,-5.07585e-07,0
-3.15504e-05,1.35055e-05,-7.12396e-06,-1.35794e-05,1.38152e-05,-7.27863e-06,8.57678e-06,1.01958e-06,0
-2.99169e-05,1.4468e-05,-6.26589e-06,-1.32968e-05,1.76995e-05,-7.48727e-06,5.92549e-06,1.1607e-06,0
-2.81783e-05,1.57402e-05,-5.6308e-06,-9.23582e-06,2.04527e-05,-7.95071e-06,5.64e-06,-7.33338e-07,0
-2.80969e-05,1.6932e-05,-5.27969e-06,-2.96257e-06,2.26004e-05,-8.8393e-06,6.84419e-06,-2.79836e-06,0
-2.86753e-05,1.7569e-05,-4.51897e-06,2.74866e-06,2.65061e-05,-9.38086e-06,8.53833e-06,-4.04305e-06,0
-2.88328e-05,1.73415e-05,-4.21639e-06,5.5366e-06,3.01138e-05,-9.74682e-06,1.04046e-05,-3.67155e-06,0
-2.95653e-05,1.52547e-05,-5.25735e-06,3.60117e-06,3.05143e-05,-9.77441e-06,1.22606e-05,-2.27248e-06,0
-3.1383e-05,1.21813e-05,-6.47323e-06,-4.79664e-07,2.76035e-05,-9.90339e-06,1.34087e-05,-1.93196e-06,0
-3.31453e-05,1.21685e-05,-6.79987e-06,-2.97854e-06,2.25559e-05,-1.00237e-05,1.41936e-05,-3.06532e-06,0
-3.34613e-05,1.62122e-05,-6.3969e-06,-4.24417e-06,1.75312e-05,-1.07537e-05,1.55527e-05,-3.83194e-06,0
-3.22214e-05,2.07646e-05,-5.64783e-06,-6.07028e-06,1.46452e-05,-1.23476e-05,1.7505e-05,-3.88305e-06,0
-3.05682e-05,2.32961e-05,-5.13391e-06,-5.81732e-06,1.43732e-05,-1.34138e-05,1.77136e-05,-2.64767e-06,0
-2.91879e-05,2.30206e-05,-5.50013e-06,-3.21989e-06,1.5226e-05,-1.24767e-05,1.55729e-05,1.57566e-07,0
-2.81809e-05,2.20126e-05,-5.80035e-06,-3.77569e-06,1.57432e-05,-1.05652e-05,1.35653e-05,3.8254e-06,0
-2.88811e-05,2.3391e-05,-4.94537e-06,-1.29283e-05,1.67001e-05,-1.01955e-05,1.21638e-05,6.26262e-06,0
-2.97588e-05,2.41864e-05,-3.90949e-06,-2.88693e-05,1.84905e-05,-1.13131e-05,1.11272e-05,5.13454e-06,0
-2.77594e-05,2.16718e-05,-3.27482e-06,-4.31372e-05,1.7654e-05,-1.13623e-05,1.13112e-05,2.44169e-06,0
-2.57203e-05,1.89218e-05,-4.69934e-06,-4.95722e-05,1.38363e-05,-9.96509e-06,1.21539e-05,8.19427e-07,0
-2.72264e-05,2.07753e-05,-6.41738e-06,-4.72494e-05,1.04119e-05,-9.86146e-06,1.20498e-05,-6.85718e-07,0
-3.01127e-05,2.77179e-05,-5.90453e-06,-3.86496e-05,8.76695e-06,-1.10599e-05,1.13499e-05,-1.84771e-06,0
-3.05204e-05,3.48708e-05,-6.59495e-06,-3.07365e-05,7.9588e-06,-1.12731e-05,1.06525e-05,-2.05844e-06,0
-2.94867e-05,3.74686e-05,-7.64211e-06,-2.36626e-05,5.53799e-06,-1.17748e-05,1.0668e-05,-1.07127e-06,0
-2.93235e-05,3.47062e-05,-8.00115e-06,-1.12727e-05,1.75668e-06,-1.18666e-05,1.14338e-05,-8.21847e-07,0
-2.96617e-05,2.81665e-05,-8.174e-06,6.47715e-06,2.78176e-07,-1.11575e-05,1.12545e-05,-1.58947e-07,0
-3.10904e-05,1.90585e-05,-8.59916e-06,2.47325e-05,2.82787e-06,-1.0566e-05,1.07716e-05,2.27183e-06,0
-3.22969e-05,1.07879e-05,-8.67144e-06,3.80207e-05,6.67595e-06,-8.96806e-06,1.12975e-05,5.2254e-06,0
-3.2566e-05,5.19807e-06,-7.64085e-06,4.53183e-05,9.11495e-06,-8.49064e-06,1.17083e-05,7.13991e-06,0
-3.22282e-05,6.64476e-07,-7.96151e-06,4.86154e-05,9.43492e-06,-8.41266e-06,1.14508e-05,8.31762e-06,0
-3.17452e-05,-6.47393e-06,-9.96024e-06,4.5314e-05,7.50512e-06,-7.50864e-06,1.26725e-05,9.44866e-06,0
-3.14051e-05,-1.53955e-05,-1.16059e-05,3.58451e-05,5.60674e-06,-7.10834e-06,1.43438e-05,8.44853e-06,0
-3.16278e-05,-2.19849e-05,-1.27253e-05,2.54611e-05,6.05454e-06,-7.69478e-06,1.37457e-05,6.27296e-06,0
-3.25556e-05,-2.39861e-05,-1.41042e-05,1.22698e-05,7.63724e-06,-8.95107e-06,1.12777e-05,4.48981e-06,0
-3.35595e-05,-2.16781e-05,-1.42507e-05,-4.72895e-06,7.6262e-06,-1.12223e-05,1.01185e-05,3.35171e-06,0
-3.39986e-05,-1.67676e-05,-1.32508e-05,-1.78096e-05,6.20365e-06,-1.31812e-05,1.04523e-05,1.11319e-06,0
-3.35498e-05,-1.11653e-05,-1.29144e-05,-2.08528e-05,6.75789e-06,-1.23035e-05,9.99793e-06,-1.77606e-06,0
-3.31247e-05,-6.50934e-06,-1.27604e-05,-1.81617e-05,1.01867e-05,-9.78535e-06,9.12325e-06,-3.13619e-06,0
-3.3122e-05,-2.43383e-06,-1.16873e-05,-1.65432e-05,1.14593e-05,-7.78536e-06,8.67663e-06,-2.36812e-06,0
-3.3745e-05,1.75844e-06,-1.17375e-05,-1.55796e-05,9.10821e-06,-7.01643e-06,9.25245e-06,-6.01307e-07,0
-3.45962e-05,7.34041e-06,-1.30227e-05,-9.66437e-06,7.69287e-06,-7.56633e-06,1.06266e-05,1.12706e-07,0
-3.54394e-05,1.25318e-05,-1.37947e-05,-2.58331e-07,8.39521e-06,-8.31596e-06,1.245e-05,-9.25857e-07,0
-3.57671e-05,1.51097e-05,-1.22372e-05,6.18492e-06,1.0738e-05,-9.12337e-06,1.28389e-05,-1.95343e-06,0
-3.61222e-05,1.40716e-05,-8.70207e-06,6.24009e-06,1.4661e-05,-1.07231e-05,1.11456e-05,-2.50927e-06,0
-3.51731e-05,1.03945e-05,-6.20849e-06,1.8642e-06,1.78415e-05,-1.10605e-05,1.08663e-05,-2.38573e-06,0
-3.34722e-05,4.59069e-06,-5.77308e-06,-2.76562e-06,2.02481e-05,-8.87875e-06,1.26148e-05,-2.61166e-07,0
-3.40025e-05,-3.7061e-06,-7.26986e-06,-5.50773e-06,2.14842e-05,-7.24897e-06,1.20829e-05,2.34376e-06,0
-3.592e-05,-1.33685e-05,-1.01263e-05,-5.77453e-06,1.8892e-05,-1.02776e-05,9.36767e-06,4.73788e-06,0
-3.7959e-05,-2.19687e-05,-1.3796e-05,-5.41109e-06,1.5353e-05,-1.8773e-05,9.08846e-06,7.72038e-06,0
-3.78818e-05,-2.59517e-05,-1.71592e-05,-7.58587e-06,1.3484e-05,-2.77429e-05,1.22697e-05,8.80062e-06,0
-3.61075e-05,-2.27264e-05,-1.92237e-05,-1.07686e-05,1.25962e-05,-3.27997e-05,1.37159e-05,6.85371e-06,0
-3.52332e-05,-1.55612e-05,-1.82859e-05,-1.10958e-05,1.15365e-05,-3.4557e-05,1.15264e-05,4.38325e-06,0
-3.45448e-05,-7.88292e-06,-1.56489e-05,-1.02607e-05,1.24353e-05,-3.51197e-05,7.43419e-06,4.47029e-06,0
-3.28801e-05,-1.26002e-07,-1.50402e-05,-1.18972e-05,1.52441e-05,-3.85558e-05,3.19405e-06,6.29299e-06,0
-2.95887e-05,5.1731e-06,-1.58614e-05,-1.74447e-05,1.60192e-05,-3.94594e-05,1.29205e-06,7.52846e-06,0
-2.65202e-05,8.30667e-06,-1.55988e-05,-2.29219e-05,1.43638e-05,-2.45767e-05,1.67275e-06,6.78082e-06,0
-2.53981e-05,1.09727e-05,-1.44156e-05,-2.59953e-05,1.3224e-05,2.49609e-06,3.62773e-06,6.45608e-06,0
-2.62227e-05,1.2816e-05,-1.39456e-05,-2.73483e-05,1.26884e-05,1.98112e-05,6.13246e-06,8.36141e-06,0
-2.71453e-05,1.35324e-05,-1.32136e-05,-2.74618e-05,1.19542e-05,1.58422e-05,9.5914e-06,8.291e-06,0
-2.78312e-05,1.47212e-05,-1.14236e-05,-2.59685e-05,1.25071e-05,2.05888e-06,1.21395e-05,5.69629e-06,0
-2.84992e-05,1.65654e-05,-9.31474e-06,-2.16257e-05,1.31056e-05,-7.57759e-06,1.2479e-05,3.5372e-06,0
-2.8671e-05,1.73731e-05,-7.71744e-06,-1.47675e-05,1.35154e-05,-1.02132e-05,1.21503e-05,3.07147e-06,0
-2.904e-05,1.56887e-05,-7.91857e-06,-6.615e-06,1.40751e-05,-9.54309e-06,1.15164e-05,2.72519e-06,0
-3.02041e-05,1.23044e-05,-9.65401e-06,2.00709e-07,1.41975e-05,-8.6542e-06,1.01582e-05,2.08731e-06,0
-3.19764e-05,9.25797e-06,-1.00966e-05,1.56132e-06,1.27584e-05,-8.95752e-06,8.54896e-06,1.44982e-06,0
-3.23148e-05,8.88877e-06,-8.66373e-06,-3.2809e-06,1.10641e-05,-9.63411e-06,8.14959e-06,1.83176e-06,0
-3.12046e-05,1.06962e-05,-7.37359e-06,-9.71466e-06,1.00756e-05,-8.79752e-06,9.53189e-06,3.47149e-06,0
-2.95936e-05,1.15119e-05,-7e-06,-1.10175e-05,9.69122e-06,-7.3096e-06,1.04883e-05,4.5037e-06,0
-2.84236e-05,9.33335e-06,-7.64354e-06,-7.51018e-06,9.48459e-06,-5.88411e-06,9.35659e-06,4.17655e-06,0
-2.79512e-05,4.63329e-06,-7.7934e-06,-5.55073e-06,8.89158e-06,-5.34527e-06,7.38631e-06,5.93062e-06,0
-2.76087e-05,-1.49635e-06,-6.37481e-06,-4.66821e-06,1.09268e-05,-5.0384e-06,6.17323e-06,7.08767e-06,0
-2.71658e-05,-7.19105e-06,-5.48176e-06,-5.30675e-06,1.56633e-05,-4.29108e-06,6.53286e-06,5.07893e-06,0
-2.80287e-05,-1.04489e-05,-5.9931e-06,-5.1865e-06,2.00375e-05,-3.8661e-06,7.10962e-06,3.33369e-06,0
-2.92599e-05,-1.05779e-05,-5.42664e-06,-1.71275e-06,2.18781e-05,-2.90658e-06,6.77112e-06,3.59529e-06,0
-2.84072e-05,-6.19832e-06,-4.54756e-06,-2.46992e-07,2.12298e-05,-2.57573e-06,6.77842e-06,5.18933e-06,0
-2.51588e-05,-1.46315e-07,-4.81021e-06,-3.40531e-07,2.00281e-05,-2.38637e-06,8.31201e-06,6.01498e-06,0
-2.31475e-05,4.90566e-06,-5.34413e-06,1.10813e-06,1.81064e-05,-2.21074e-06,9.30632e-06,5.34304e-06,0
-2.46303e-05,8.03479e-06,-6.26362e-06,3.15623e-06,1.52914e-05,-1.97195e-06,9.6162e-06,3.68351e-06,0
-2.71878e-05,9.95618e-06,-7.4413e-06,4.83796e-06,1.20522e-05,-2.22194e-06,9.33003e-06,3.57784e-06,0
-2.87293e-05,1.02675e-05,-9.77374e-06,6.83201e-06,9.4627e-06,-2.21095e-06,9.21217e-06,4.62773e-06,0
-2.9603e-05,9.68287e-06,-1.24928e-05,9.38476e-06,8.49376e-06,-1.14363e-06,9.64549e-06,7.09984e-06,0
-2.99241e-05,9.73588e-06,-1.36248e-05,1.01587e-05,1.04211e-05,-1.80321e-06,1.17228e-05,8.50238e-06,0
-2.94761e-05,9.48899e-06,-1.26464e-05,1.02168e-05,1.4349e-05,-3.74071e-06,1.40873e-05,6.83955e-06,0
-2.94123e-05,9.30289e-06,-9.74471e-06,1.21467e-05,1.60612e-05,-6.53413e-06,1.40338e-05,4.24531e-06,0
-2.90413e-05,8.69316e-06,-6.06168e-06,1.36312e-05,1.34739e-05,-9.67214e-06,1.38066e-05,2.35918e-06,0
-2.88639e-05,9.58623e-06,-3.36735e-06,1.07192e-05,1.05501e-05,-1.24758e-05,1.40216e-05,1.23897e-06,0
-2.94149e-05,1.24405e-05,-3.15385e-06,4.24459e-06,1.10792e-05,-1.43636e-05,1.39786e-05,-3.93849e-07,0
-2.97283e-05,1.56627e-05,-4.8e-06,-2.17359e-06,1.32318e-05,-1.49189e-05,1.3233e-05,-2.07007e-06,0
-2.94183e-05,1.78264e-05,-7.8069e-06,-5.37561e-06,1.48275e-05,-1.4126e-05,1.27852e-05,-3.61029e-06,0
-2.94915e-05,2.00118e-05,-1.11488e-05,-4.29551e-06,1.51852e-05,-1.27913e-05,1.25261e-05,-4.69017e-06,0
-2.89752e-05,2.23673e-05,-1.28867e-05,-2.94726e-06,1.53332e-05,-1.18568e-05,1.31853e-05,-5.28706e-06,0
-2.77199e-05,2.3922e-05,-1.23913e-05,-6.95106e-06,1.54877e-05,-1.14175e-05,1.5469e-05,-5.40095e-06,0
-2.65119e-05,2.50262e-05,-1.01814e-05,-1.61198e-05,1.45513e-05,-1.0866e-05,1.95491e-05,-4.6652e-06,0
-2.54813e-05,2.48644e-05,-8.04713e-06,-2.31e-05,1.2525e-05,-9.94866e-06,2.2794e-05,-2.72334e-06,0
-2.61107e-05,2.2252e-05,-7.95627e-06,-2.31278e-05,1.2362e-05,-7.8188e-06,2.35887e-05,-2.99978e-07,0
-2.80422e-05,1.81731e-05,-8.06423e-06,-1.67589e-05,1.37097e-05,-5.59999e-06,2.27005e-05,1.47321e-06,0
-2.86577e-05,1.70348e-05,-6.17526e-06,-1.06688e-05,1.52364e-05,-5.63971e-06,2.11991e-05,2.93326e-07,0
-2.70571e-05,1.91744e-05,-3.69567e-06,-8.71684e-06,1.65993e-05,-7.05088e-06,1.99027e-05,-2.49519e-06,0
-2.50577e-05,2.11992e-05,-2.4926e-06,-7.69583e-06,1.73746e-05,-7.94612e-06,1.80918e-05,-3.73235e-06,0
-2.48064e-05,2.08618e-05,-3.3562e-06,-8.80429e-06,1.73877e-05,-7.84668e-06,1.63469e-05,-2.59272e-06,0
-2.70103e-05,1.99501e-05,-4.31968e-06,-1.2994e-05,1.65495e-05,-8.18158e-06,1.46131e-05,-1.59636e-06,0
-2.98375e-05,2.20357e-05,-3.9897e-06,-1.69622e-05,1.64e-05,-6.47991e-06,1.4475e-05,-2.80563e-06,0
-3.02268e-05,2.19973e-05,-2.33616e-06,-2.29603e-05,1.58796e-05,-3.00735e-06,1.59113e-05,-3.3199e-06,0
-2.74489e-05,1.96398e-05,-9.7554e-07,-3.10994e-05,1.32768e-05,-1.97491e-06,1.61589e-05,-4.53058e-06,0
-2.47514e-05,1.94844e-05,-1.87683e-06,-3.67615e-05,1.1195e-05,-2.42713e-06,1.42697e-05,-4.29026e-06,0
-2.43265e-05,2.01556e-05,-4.04959e-06,-3.5707e-05,9.68157e-06,-2.28847e-06,1.27351e-05,-2.9421e-06,0
-2.6413e-05,2.12986e-05,-6.18534e-06,-2.65657e-05,6.48291e-06,-1.45911e-06,1.35433e-05,-3.05178e-06,0
-2.85016e-05,2.06441e-05,-7.11998e-06,-1.4708e-05,3.3865e-06,-4.67169e-07,1.60056e-05,-2.58367e-06,0
-2.91291e-05,2.01345e-05,-6.83225e-06,-2.96141e-06,1.92024e-06,-8.07138e-07,1.7277e-05,-1.70847e-06,0
-2.88593e-05,2.05774e-05,-6.02226e-06,8.67529e-06,3.4405e-06,-2.50702e-06,1.65516e-05,-1.91861e-06,0
-2.95788e-05,2.20489e-05,-3.89893e-06,1.87834e-05,6.20811e-06,-3.54125e-06,1.5629e-05,-3.38553e-06,0
-3.14278e-05,2.37907e-05,5.76515e-07,2.27196e-05,9.52304e-06,-1.99716e-06,1.51812e-05,-4.77349e-06,0
-3.29204e-05,2.37776e-05,7.10451e-06,1.88854e-05,1.3201e-05,8.20576e-07,1.48382e-05,-5.85209e-06,0
-3.38932e-05,2.05022e-05,1.57793e-05,1.06573e-05,1.4962e-05,1.76215e-06,1.42325e-05,-5.38637e-06,0
-3.37381e-05,1.54323e-05,2.76972e-05,1.3434e-06,1.48348e-05,4.93157e-07,1.41302e-05,-4.27605e-06,0
-3.27375e-05,1.18226e-05,4.3168e-05,-7.82338e-06,1.45498e-05,-1.58422e-06,1.53495e-05,-5.01955e-06,0
-3.13849e-05,1.00234e-05,6.01084e-05,-1.8199e-05,1.63266e-05,-2.99948e-06,1.81854e-05,-6.65255e-06,0
-3.08095e-05,1.07123e-05,7.17955e-05,-2.85493e-05,1.98088e-05,-2.58293e-06,2.1262e-05,-5.74526e-06,0
-3.04383e-05,1.15173e-05,6.85796e-05,-3.41423e-05,2.14437e-05,-1.77716e-06,2.35467e-05,-3.28676e-06,0
-2.96186e-05,9.86731e-06,4.51518e-05,-3.52604e-05,1.86304e-05,-2.83515e-06,2.45048e-05,-1.63816e-06,0
-2.79611e-05,7.23672e-06,6.64203e-06,-3.75734e-05,1.25256e-05,-4.66351e-06,2.3696e-05,-1.91924e-06,0
-2.76665e-05,7.20919e-06,-3.6088e-05,-4.08768e-05,6.45149e-06,-6.06793e-06,2.15123e-05,-3.5475e-06,0
-3.01549e-05,9.08363e-06,-7.26744e-05,-4.05939e-05,3.56262e-06,-7.49616e-06,1.83186e-05,-4.5308e-06,0
-3.28606e-05,1.00443e-05,-9.26662e-05,-3.47732e-05,3.26394e-06,-8.38928e-06,1.38509e-05,-4.71175e-06,0
-3.31929e-05,7.59812e-06,-9.30075e-05,-2.48406e-05,4.13875e-06,-8.33403e-06,8.51791e-06,-4.94414e-06,0
-3.23696e-05,6.75721e-06,-8.07628e-05,-1.57398e-05,5.43575e-06,-9.47423e-06,5.00803e-06,-6.29821e-06,0
-3.21391e-05,1.15219e-05,-6.42911e-05,-8.98563e-06,6.44169e-06,-1.03569e-05,4.34118e-06,-8.24555e-06,0
-3.1735e-05,2.16569e-05,-5.15077e-05,-3.40697e-06,8.34184e-06,-1.0277e-05,5.56894e-06,-9.17366e-06,0
-3.09635e-05,3.45667e-05,-4.12232e-05,9.49532e-07,1.08556e-05,-1.01216e-05,8.08692e-06,-7.97848e-06,0
-3.07176e-05,4.31435e-05,-3.14212e-05,6.46415e-06,1.24718e-05,-9.28411e-06,1.09348e-05,-5.3961e-06,0
-3.04108e-05,4.65726e-05,-2.37655e-05,1.17074e-05,1.54954e-05,-8.67368e-06,1.22323e-05,-3.33379e-06,0
-2.9438e-05,4.37956e-05,-1.89188e-05,1.5804e-05,1.96254e-05,-7.96391e-06,1.16207e-05,-2.32277e-06,0
-2.96456e-05,3.31584e-05,-1.79646e-05,1.75738e-05,2.00938e-05,-8.54863e-06,1.25638e-05,-1.65326e-06,0
-2.96989e-05,1.83713e-05,-1.56965e-05,1.78153e-05,1.68611e-05,-9.36808e-06,1.44305e-05,-2.19632e-06,0
-2.99943e-05,2.34042e-06,-1.27473e-05,1.99838e-05,1.4157e-05,-8.58573e-06,1.41455e-05,-2.79198e-06,0
-3.07075e-05,-1.13337e-05,-1.16395e-05,2.14711e-05,1.49075e-05,-7.8298e-06,1.3915e-05,-8.59801e-07,0
-3.19026e-05,-1.94325e-05,-1.28809e-05,2.08622e-05,1.69545e-05,-8.35587e-06,1.54426e-05,1.83137e-06,0
-3.3195e-05,-2.15201e-05,-1.51288e-05,1.97088e-05,1.68967e-05,-8.16353e-06,1.68684e-05,3.79017e-06,0
-3.30707e-05,-1.77748e-05,-1.53332e-05,1.90119e-05,1.44865e-05,-8.4387e-06,1.69052e-05,3.8337e-06,0
-3.22496e-05,-9.75626e-06,-1.26843e-05,1.77693e-05,1.12764e-05,-1.12952e-05,1.65266e-05,2.18451e-06,0
-3.21553e-05,-2.1036e-06,-1.00697e-05,1.48086e-05,8.34872e-06,-1.33237e-05,1.73292e-05,8.87756e-07,0
-3.35644e-05,1.6932e-06,-9.72705e-06,1.04257e-05,5.44601e-06,-1.29291e-05,1.82488e-05,1.63924e-06,0
