ch1,ch2,ch3,ch4,ch5,ch6,ch7,ch8,class
-2.86943e-05,-1.66754e-06,-1.04924e-06,-2.61009e-05,9.43258e-06,-1.22567e-05,1.80155e-05,2.69776e-06,0
-3.20733e-05,-2.67746e-06,-4.26833e-06,1.48634e-05,6.93184e-06,-1.42671e-05,1.84978e-05,2.61488e-06,0
-3.65967e-05,-2.83944e-06,-9.56706e-06,6.98377e-05,8.24006e-06,-1.80988e-05,2.12028e-05,1.1399e-06,0
-3.98692e-05,-6.36712e-07,-1.46447e-05,0.00012427,1.06006e-05,-2.00983e-05,2.7513e-05,8.17696e-06,0
-3.9497e-05,2.23675e-06,-1.65452e-05,0.000150954,1.42978e-05,-1.86709e-05,3.30153e-05,2.75261e-05,0
-3.81407e-05,3.7909e-06,-1.27256e-05,0.000142332,1.98943e-05,-1.44457e-05,3.27606e-05,4.10209e-05,0
-3.92832e-05,6.02708e-06,-4.5259e-06,9.78231e-05,2.23386e-05,-1.16034e-05,2.80778e-05,3.83797e-05,0
-3.86456e-05,7.41063e-06,4.41636e-07,2.13306e-05,1.98587e-05,-1.13132e-05,2.0743e-05,2.67371e-05,0
-3.56461e-05,7.48954e-06,2.3025e-07,-5.11867e-05,1.68265e-05,-1.19078e-05,1.31799e-05,7.49725e-06,0
-3.45419e-05,1.00952e-05,-3.00845e-06,-7.73765e-05,1.35163e-05,-1.23822e-05,6.31315e-06,-1.47222e-05,0
-3.54297e-05,1.25219e-05,-5.77819e-06,-5.07228e-05,1.03165e-05,-1.26841e-05,-2.2486e-07,-3.25563e-05,0
-3.56365e-05,1.21019e-05,-6.19539e-06,-1.17098e-05,8.80804e-06,-1.35335e-05,-5.79751e-06,-3.93338e-05,0
-3.54049e-05,7.53929e-06,-4.64702e-06,4.6396e-06,9.64171e-06,-1.32367e-05,-1.06059e-05,-3.61422e-05,0
-3.35717e-05,2.90815e-06,-1.89355e-06,9.184e-06,1.07474e-05,-1.24767e-05,-1.30314e-05,-2.98233e-05,0
-3.10318e-05,3.45862e-06,3.27055e-06,1.4798e-05,1.14833e-05,-1.11768e-05,-1.27438e-05,-2.45132e-05,0
-3.02867e-05,7.82538e-06,1.18512e-05,2.37537e-05,1.21335e-05,-9.43767e-06,-1.04149e-05,-1.77586e-05,0
-3.15467e-05,1.23077e-05,2.38497e-05,2.66138e-05,1.3342e-05,-7.82818e-06,-7.06572e-06,-8.79601e-06,0
-3.27913e-05,1.49138e-05,3.8093e-05,1.11573e-05,1.55993e-05,-8.09437e-06,-3.88465e-06,-9.92986e-07,0
-3.27097e-05,1.65157e-05,5.08639e-05,-1.81995e-05,1.67485e-05,-8.9884e-06,-1.93914e-06,4.78989e-06,0
-3.1853e-05,1.76959e-05,5.59455e-05,-4.04472e-05,1.74694e-05,-8.71708e-06,-1.27325e-07,7.15219e-06,0
-3.12139e-05,1.95449e-05,4.63815e-05,-3.40574e-05,1.93381e-05,-9.14041e-06,3.34183e-06,7.60339e-06,0
-3.17931e-05,2.28805e-05,2.12011e-05,-3.4273e-06,2.44425e-05,-1.10463e-05,8.34754e-06,8.26893e-06,0
-3.25338e-05,2.80786e-05,-1.46482e-05,2.55068e-05,3.15912e-05,-1.25818e-05,1.20322e-05,1.0909e-05,0
-3.33791e-05,3.14715e-05,-4.86812e-05,3.40537e-05,3.74251e-05,-1.23465e-05,1.29346e-05,1.38745e-05,0
-3.44411e-05,3.1381e-05,-6.93657e-05,2.93372e-05,3.72188e-05,-1.12828e-05,1.25233e-05,1.4321e-05,0
-3.49525e-05,3.07374e-05,-7.51359e-05,2.22082e-05,3.04112e-05,-9.68929e-06,1.19803e-05,9.64904e-06,0
-3.39614e-05,3.21363e-05,-6.87395e-05,1.3572e-05,2.25404e-05,-8.50116e-06,1.23416e-05,3.86038e-06,0
-3.18178e-05,3.41037e-05,-5.43526e-05,-5.00903e-07,1.84048e-05,-6.41083e-06,1.3119e-05,1.33101e-06,0
-2.9259e-05,3.50744e-05,-4.22262e-05,-1.40179e-05,1.59018e-05,-5.28152e-06,1.3939e-05,1.27445e-06,0
-2.65789e-05,3.72728e-05,-3.77662e-05,-1.7351e-05,1.23627e-05,-7.20129e-06,1.46571e-05,2.17556e-06,0
-2.48327e-05,4.20156e-05,-3.62737e-05,-1.4113e-05,9.18661e-06,-8.28452e-06,1.61982e-05,4.26348e-06,0
-2.57985e-05,4.51653e-05,-3.32071e-05,-1.00606e-05,8.24884e-06,-7.21685e-06,1.73339e-05,3.66454e-06,0
-2.77775e-05,4.50379e-05,-2.99766e-05,1.08958e-06,1.0087e-05,-6.65475e-06,1.56757e-05,8.27772e-07,0
-2.95476e-05,4.08722e-05,-2.92235e-05,1.46203e-05,9.95733e-06,-8.92087e-06,1.37584e-05,1.2713e-06,0
-3.0863e-05,3.54945e-05,-2.94716e-05,1.02586e-05,4.82448e-06,-1.13381e-05,1.32218e-05,3.21858e-06,0
-3.21186e-05,3.49988e-05,-2.71157e-05,-8.72981e-06,-3.42986e-06,-1.1442e-05,1.35111e-05,4.6517e-06,0
-3.43722e-05,3.89595e-05,-2.16444e-05,-2.44646e-05,-6.54248e-06,-9.74249e-06,1.52008e-05,4.20013e-06,0
-3.49735e-05,3.64859e-05,-1.86693e-05,-3.13535e-05,-2.78042e-06,-8.25675e-06,1.7684e-05,1.96681e-06,0
-3.29193e-05,1.76202e-05,-1.99846e-05,-4.34139e-05,-3.32271e-07,-1.01589e-05,2.03812e-05,-8.59463e-07,0
-3.16955e-05,-1.03845e-05,-2.33031e-05,-8.24848e-05,-8.86383e-07,-1.18348e-05,2.06164e-05,-3.54322e-06,0
-3.23436e-05,-2.8604e-05,-2.6954e-05,-0.000143408,-3.40115e-06,-1.2034e-05,1.92116e-05,-6.06851e-06,0
-3.25363e-05,-2.32447e-05,-2.91883e-05,-0.000195605,-2.2648e-06,-1.19602e-05,1.83383e-05,-6.97939e-06,0
-3.15147e-05,-3.64119e-06,-2.82434e-05,-0.00021286,5.69094e-06,-1.09693e-05,1.53746e-05,-5.56894e-06,0
-2.93772e-05,1.16017e-05,-2.52882e-05,-0.000190806,1.42014e-05,-9.73356e-06,9.27211e-06,-3.64541e-06,0
-2.74879e-05,1.36426e-05,-2.40455e-05,-0.000138309,1.7598e-05,-9.81718e-06,2.10704e-06,-3.31598e-06,0
-2.74085e-05,8.55588e-06,-2.50006e-05,-6.4014e-05,1.70789e-05,-1.09109e-05,-1.93689e-06,-3.48077e-06,0
-2.99474e-05,5.6328e-06,-2.56004e-05,1.51285e-05,1.84492e-05,-1.03636e-05,-1.21803e-06,-2.60373e-06,0
-3.32879e-05,6.89074e-06,-2.39817e-05,8.30283e-05,2.29085e-05,-9.34366e-06,2.62448e-06,-1.2232e-06,0
-3.50955e-05,8.73529e-06,-2.06821e-05,0.000137797,2.7238e-05,-9.08592e-06,6.74776e-06,-2.58985e-07,0
-3.49509e-05,8.84215e-06,-1.81801e-05,0.000174058,2.84141e-05,-8.83354e-06,9.63677e-06,6.98201e-07,0
-3.3736e-05,7.3268e-06,-1.71733e-05,0.000179083,2.64155e-05,-7.13694e-06,1.07794e-05,2.66609e-06,0
-3.24879e-05,4.78541e-06,-1.54822e-05,0.00016062,2.27109e-05,-4.70983e-06,9.56349e-06,7.08152e-06,0
-3.23168e-05,2.77696e-06,-1.33746e-05,0.00014694,2.10616e-05,-3.25584e-06,7.36805e-06,1.5077e-05,0
-3.22824e-05,5.36058e-07,-1.1682e-05,0.000143258,2.19148e-05,-2.5134e-06,7.86294e-06,2.25388e-05,0
-3.109e-05,-8.58187e-07,-9.4797e-06,0.000121606,2.36125e-05,-1.23906e-06,1.01196e-05,2.23023e-05,0
-2.94594e-05,-7.69805e-07,-7.25708e-06,7.2131e-05,2.50314e-05,-3.23194e-07,1.023e-05,1.28946e-05,0
-2.83429e-05,8.60919e-08,-5.914e-06,2.21378e-05,2.53749e-05,9.41658e-07,9.21066e-06,1.02267e-06,0
-2.79372e-05,4.83536e-06,-5.39504e-06,-2.06134e-06,2.63625e-05,1.95852e-06,9.68996e-06,-6.47608e-06,0
-2.71217e-05,1.73448e-05,-3.98574e-06,-5.67764e-06,2.89717e-05,1.21285e-06,1.14398e-05,-8.84968e-06,0
-2.58902e-05,3.49155e-05,-6.94212e-07,-5.96204e-06,3.10112e-05,-7.02363e-07,1.18301e-05,-9.98831e-06,0
-2.70823e-05,5.27137e-05,4.43057e-06,-1.24495e-05,3.03964e-05,-4.12032e-06,1.18041e-05,-1.03883e-05,0
-2.98565e-05,6.49912e-05,9.65487e-06,-2.09748e-05,2.90284e-05,-6.25161e-06,1.02948e-05,-1.07314e-05,0
-3.01163e-05,7.20851e-05,1.28623e-05,-2.31097e-05,2.81449e-05,-6.57478e-06,6.10154e-06,-1.26534e-05,0
-2.83329e-05,8.10753e-05,1.28472e-05,-2.53102e-05,2.89227e-05,-6.41767e-06,3.16595e-06,-1.37162e-05,0
-2.45874e-05,8.81386e-05,1.05423e-05,-3.34648e-05,2.94943e-05,-6.47768e-06,2.78028e-06,-1.24543e-05,0
-2.24609e-05,8.39621e-05,9.59056e-06,-4.10688e-05,2.74531e-05,-5.55729e-06,5.22455e-06,-1.01923e-05,0
-2.46466e-05,6.07888e-05,1.00591e-05,-4.15117e-05,2.31664e-05,-4.83657e-06,4.97766e-06,-9.3765e-06,0
-2.89248e-05,1.09119e-05,1.15436e-05,-3.67817e-05,1.73357e-05,-6.87708e-06,-5.13698e-06,-9.58987e-06,0
-3.25406e-05,-5.15863e-05,1.20237e-05,-3.04e-05,1.20127e-05,-1.00635e-05,-2.05348e-05,-9.23297e-06,0
-3.39559e-05,-9.0057e-05,1.11368e-05,-2.86841e-05,8.14797e-06,-1.27039e-05,-2.89693e-05,-6.25729e-06,0
-3.3816e-05,-8.79446e-05,1.19717e-05,-3.62128e-05,5.55545e-06,-1.37994e-05,-2.59899e-05,-2.29832e-06,0
-3.33492e-05,-6.01594e-05,1.61131e-05,-4.89153e-05,3.58646e-06,-1.37622e-05,-2.31952e-05,2.19542e-08,0
-3.47716e-05,-3.34826e-05,2.23664e-05,-6.2155e-05,1.41833e-06,-1.22073e-05,-3.12044e-05,1.91848e-06,0
-3.63817e-05,-2.03545e-05,2.89075e-05,-7.46414e-05,-2.28496e-06,-9.78598e-06,-4.13327e-05,4.52366e-06,0
-3.48372e-05,-1.51335e-05,3.49593e-05,-8.06021e-05,-7.38681e-06,-7.59582e-06,-3.5846e-05,6.07278e-06,0
-3.08669e-05,-1.34207e-05,3.85871e-05,-7.42662e-05,-1.03857e-05,-6.52682e-06,-1.2205e-05,4.73241e-06,0
-2.86268e-05,-1.84526e-05,3.6379e-05,-6.18622e-05,-8.33839e-06,-7.54152e-06,1.69567e-05,3.54075e-06,0
-2.92496e-05,-2.71418e-05,2.53261e-05,-5.4573e-05,-3.38587e-06,-8.98532e-06,4.23248e-05,4.63204e-06,0
-3.05657e-05,-2.58748e-05,6.40577e-06,-5.66246e-05,7.81651e-07,-8.44379e-06,6.1113e-05,7.49979e-06,0
-3.12531e-05,-9.65899e-06,-1.65202e-05,-6.39649e-05,2.83818e-06,-7.78668e-06,7.09014e-05,8.99989e-06,0
-3.12977e-05,1.42006e-05,-3.89129e-05,-6.9749e-05,4.86538e-06,-9.87759e-06,7.36019e-05,8.34421e-06,0
-3.21064e-05,3.29037e-05,-5.71197e-05,-6.87716e-05,6.89703e-06,-1.30397e-05,7.33897e-05,6.91573e-06,0
-3.39809e-05,4.1998e-05,-6.47533e-05,-6.05755e-05,7.11248e-06,-1.36278e-05,7.07483e-05,5.65155e-06,0
-3.43951e-05,4.77042e-05,-6.03256e-05,-4.88139e-05,7.92099e-06,-1.20215e-05,6.75414e-05,4.7901e-06,0
-3.33714e-05,5.50919e-05,-5.11119e-05,-3.69383e-05,1.01029e-05,-9.90066e-06,6.38487e-05,2.25171e-06,0
-3.27197e-05,5.65452e-05,-3.98702e-05,-1.32e-05,1.40627e-05,-7.11449e-06,5.74948e-05,-1.89856e-06,0
-3.18109e-05,4.5109e-05,-2.54453e-05,3.68503e-05,1.7148e-05,-3.26886e-06,5.09825e-05,-2.71261e-06,0
-3.01362e-05,2.99099e-05,-1.02786e-05,8.87865e-05,1.743e-05,5.787e-07,4.71302e-05,-6.72649e-07,0
-2.91753e-05,1.88231e-05,1.00994e-06,0.000101518,1.47923e-05,3.04702e-06,4.37451e-05,-1.28932e-07,0
-2.90275e-05,3.93984e-06,5.65164e-06,7.75555e-05,9.03895e-06,3.32406e-06,3.95623e-05,6.21194e-07,0
-3.08202e-05,-7.69319e-06,3.42939e-06,4.26016e-05,4.36667e-06,3.86456e-07,3.54358e-05,2.23684e-06,0
-3.26005e-05,3.59375e-06,-3.68284e-06,3.99651e-06,1.55755e-06,-1.57789e-06,3.19031e-05,4.24671e-06,0
-3.13987e-05,2.67177e-05,-9.42498e-06,-3.02157e-05,-1.3874e-07,-1.71425e-06,2.91983e-05,5.43995e-06,0
-2.97225e-05,3.78054e-05,-9.31816e-06,-4.46697e-05,4.46971e-07,-4.91938e-08,2.32627e-05,6.56384e-06,0
-2.92533e-05,3.29716e-05,-3.59349e-06,-4.52395e-05,4.65351e-06,2.13438e-06,1.23933e-05,8.58237e-06,0
-3.03783e-05,1.99047e-05,1.70352e-06,-5.23062e-05,8.98321e-06,1.60685e-06,-1.46156e-06,9.40686e-06,0
-3.2421e-05,7.3804e-07,1.53907e-06,-6.19538e-05,9.56982e-06,-8.05497e-07,-1.50606e-05,8.41097e-06,0
-3.44751e-05,-2.69586e-05,-3.14745e-06,-6.14492e-05,6.91144e-06,-3.73694e-06,-2.36432e-05,6.24368e-06,0
-3.54127e-05,-6.16744e-05,-8.54625e-06,-4.88398e-05,3.13008e-06,-7.20154e-06,-2.24759e-05,3.51405e-06,0
-3.66436e-05,-8.60807e-05,-1.32725e-05,-2.45989e-05,-1.22749e-07,-1.035e-05,-9.95332e-06,1.99114e-06,0
-3.76074e-05,-8.19564e-05,-1.8443e-05,9.87672e-06,-1.0765e-06,-1.17142e-05,8.87542e-06,2.77278e-06,0
-3.70209e-05,-5.19728e-05,-2.34502e-05,5.32426e-05,2.39269e-06,-1.26701e-05,2.46167e-05,4.47804e-06,0
-3.57267e-05,-1.58024e-05,-2.78664e-05,9.29538e-05,7.55656e-06,-1.42097e-05,3.14253e-05,6.17291e-06,0
-3.45569e-05,1.05689e-05,-2.95902e-05,0.000105709,1.04021e-05,-1.54074e-05,3.20208e-05,7.02189e-06,0
-3.40634e-05,2.55362e-05,-2.87876e-05,8.22292e-05,9.35925e-06,-1.43962e-05,3.0984e-05,7.43778e-06,0
-3.44711e-05,2.97404e-05,-2.65361e-05,3.90867e-05,6.2719e-06,-1.17724e-05,2.86084e-05,8.26796e-06,0
-3.50841e-05,2.12918e-05,-2.08045e-05,-2.93525e-06,5.50648e-06,-8.3519e-06,2.38023e-05,7.83401e-06,0
-3.50732e-05,2.37097e-06,-7.5693e-06,-2.9281e-05,8.14571e-06,-6.27423e-06,1.76874e-05,6.44539e-06,0
-3.52522e-05,-1.9932e-05,1.38996e-05,-3.5347e-05,1.261e-05,-7.04203e-06,1.0756e-05,5.87148e-06,0
-3.62595e-05,-3.49019e-05,3.91021e-05,-2.34554e-05,1.66757e-05,-8.36957e-06,4.20268e-06,5.04013e-06,0
-3.68069e-05,-3.41967e-05,5.77083e-05,4.37146e-06,1.76269e-05,-7.25042e-06,-1.13196e-06,3.13972e-06,0
-3.58273e-05,-2.1767e-05,5.95926e-05,4.11781e-05,1.71686e-05,-5.84309e-06,-2.56641e-06,4.00489e-07,0
-3.40493e-05,-6.11989e-06,3.94635e-05,8.58064e-05,1.85917e-05,-5.763e-06,-1.49157e-06,-1.395e-06,0
-3.1911e-05,6.7505e-06,2.57194e-06,0.000127017,2.11025e-05,-4.74133e-06,-5.07816e-06,-3.43894e-06,0
-3.11344e-05,1.45173e-05,-4.08083e-05,0.000151756,2.07818e-05,-3.52053e-06,-9.05323e-06,-5.63829e-06,0
-3.15263e-05,1.64335e-05,-8.01551e-05,0.000163087,1.65199e-05,-4.40381e-06,-8.42402e-06,-4.94207e-06,0
-3.22677e-05,1.56254e-05,-0.000103741,0.000155267,1.06632e-05,-6.93614e-06,-7.93063e-06,-3.19087e-06,0
-3.21835e-05,1.63558e-05,-0.000106288,0.000126859,9.06535e-06,-6.99011e-06,-8.80594e-06,-1.93022e-06,0
-3.09511e-05,1.81392e-05,-9.06634e-05,8.5496e-05,1.14498e-05,-4.67401e-06,-1.04861e-05,-7.88442e-07,0
-3.0096e-05,1.99167e-05,-6.90051e-05,4.44034e-05,1.30786e-05,-3.0859e-06,-1.24755e-05,2.20515e-07,0
-3.01771e-05,2.24084e-05,-5.08651e-05,9.55521e-06,1.42469e-05,-3.05091e-06,-1.31282e-05,1.39806e-06,0
-2.91995e-05,2.66481e-05,-3.65065e-05,-2.73346e-05,1.42284e-05,-3.13025e-06,-1.03205e-05,2.23471e-06,0
-2.6835e-05,3.18413e-05,-2.35696e-05,-6.4742e-05,1.32273e-05,-2.37101e-06,-5.67024e-06,1.22616e-06,0
-2.58272e-05,3.68107e-05,-1.39466e-05,-8.5733e-05,1.18376e-05,-3.16376e-06,-3.36727e-06,-9.4526e-07,0
-2.6571e-05,3.74401e-05,-9.47774e-06,-8.3598e-05,9.0263e-06,-6.28297e-06,-5.98088e-06,-1.53273e-06,0
-2.717e-05,3.22661e-05,-8.12858e-06,-7.16729e-05,4.63376e-06,-9.25128e-06,-1.20434e-05,-1.82815e-07,0
-2.81329e-05,2.40516e-05,-6.78665e-06,-6.39827e-05,1.27381e-06,-1.00414e-05,-1.49907e-05,1.79713e-06,0
-2.9709e-05,1.88461e-05,-5.50359e-06,-5.92868e-05,-1.71377e-07,-9.50098e-06,-1.12222e-05,3.09259e-06,0
-3.03618e-05,1.80593e-05,-6.3624e-06,-4.32282e-05,-4.41639e-07,-8.91783e-06,-1.20194e-06,3.49712e-06,0
-2.99966e-05,1.56382e-05,-8.75423e-06,-1.22943e-05,-7.00121e-07,-8.56482e-06,1.20345e-05,3.29988e-06,0
-2.8553e-05,8.85502e-06,-9.13217e-06,1.35448e-05,-2.20743e-06,-8.6959e-06,2.4791e-05,2.6647e-06,0
-2.66409e-05,4.7198e-06,-5.57689e-06,8.99841e-06,-4.41411e-06,-9.47037e-06,3.26882e-05,2.71593e-06,0
-2.49908e-05,1.03642e-05,-1.04101e-06,-2.15766e-05,-5.25846e-06,-1.12089e-05,3.22701e-05,3.46189e-06,0
-2.45174e-05,2.00921e-05,1.8321e-06,-4.8192e-05,-5.09548e-06,-1.24612e-05,2.33983e-05,4.20418e-06,0
-2.45162e-05,2.63385e-05,2.55165e-06,-4.86417e-05,-4.05899e-06,-1.04578e-05,1.33834e-05,4.26128e-06,0
-2.34743e-05,3.01466e-05,2.5938e-06,-2.40811e-05,1.65863e-06,-6.23041e-06,1.03763e-05,3.85881e-06,0
-2.10729e-05,3.41622e-05,3.60985e-06,1.19635e-05,1.19665e-05,-5.7891e-06,1.47764e-05,4.26478e-06,0
-1.93125e-05,3.59755e-05,7.02708e-06,3.42856e-05,2.24054e-05,-9.47237e-06,2.25553e-05,5.01199e-06,0
-2.06282e-05,3.55789e-05,1.18372e-05,3.66125e-05,2.76424e-05,-1.15896e-05,3.01954e-05,4.31365e-06,0
-2.31781e-05,3.24203e-05,1.57367e-05,2.88897e-05,2.88386e-05,-1.07553e-05,2.36548e-05,2.73091e-06,0
-2.38521e-05,3.01458e-05,1.91769e-05,4.15733e-06,3.10326e-05,-9.77163e-06,-3.31848e-06,-1.82549e-08,0
-2.1649e-05,3.07065e-05,2.11509e-05,-3.44053e-05,3.10895e-05,-8.59566e-06,-2.33756e-05,-3.19202e-06,0
-1.88353e-05,3.2148e-05,2.21759e-05,-6.10883e-05,2.90043e-05,-6.09663e-06,-1.68552e-05,-4.345e-06,0
-1.75015e-05,3.53015e-05,2.48295e-05,-6.23954e-05,2.8914e-05,-4.91598e-06,1.01523e-05,-5.59165e-06,0
-1.7354e-05,3.53428e-05,2.94606e-05,-4.93714e-05,2.97552e-05,-6.82158e-06,3.63997e-05,-7.32025e-06,0
-1.9226e-05,3.0257e-05,3.23051e-05,-2.84751e-05,2.86064e-05,-1.14266e-05,4.6899e-05,-6.33643e-06,0
-2.27026e-05,2.58966e-05,2.78875e-05,-4.90119e-06,2.36346e-05,-1.73658e-05,4.43783e-05,-4.28065e-06,0
-2.73104e-05,2.55445e-05,1.57841e-05,1.36879e-05,1.74325e-05,-2.28105e-05,3.32867e-05,-2.33152e-06,0
-3.06831e-05,2.5398e-05,1.26313e-06,1.972e-05,1.1979e-05,-2.641e-05,2.13442e-05,-1.34131e-06,0
-3.10306e-05,2.33343e-05,-1.05526e-05,8.63005e-06,7.66559e-06,-2.711e-05,1.1626e-05,-1.66341e-06,0
-2.93912e-05,2.08056e-05,-2.04324e-05,-1.51221e-05,6.01208e-06,-2.55245e-05,4.78553e-06,-2.28994e-06,0
-2.81146e-05,1.92001e-05,-2.97825e-05,-4.29611e-05,7.59701e-06,-2.38745e-05,2.10903e-06,-2.75205e-06,0
-2.75377e-05,1.78299e-05,-3.68956e-05,-6.62146e-05,1.0425e-05,-2.29116e-05,2.43232e-06,-1.6256e-06,0
-2.70673e-05,1.70929e-05,-3.85707e-05,-8.23108e-05,1.34401e-05,-2.16076e-05,3.54673e-06,-3.64405e-07,0
-2.76373e-05,1.91606e-05,-3.39229e-05,-9.18622e-05,1.76139e-05,-2.06987e-05,6.63408e-06,-6.32485e-07,0
-2.8579e-05,2.49201e-05,-2.4103e-05,-9.12053e-05,2.27127e-05,-2.05402e-05,1.33277e-05,-2.80796e-06,0
-2.9071e-05,3.13647e-05,-1.42371e-05,-7.3884e-05,2.60227e-05,-1.94512e-05,1.96863e-05,-5.81671e-06,0
-2.83064e-05,3.40729e-05,-1.0796e-05,-3.80735e-05,2.58613e-05,-1.8535e-05,2.03253e-05,-8.76626e-06,0
-2.7011e-05,3.3694e-05,-1.29977e-05,8.46384e-06,2.41614e-05,-1.93855e-05,1.61232e-05,-9.76324e-06,0
-2.60335e-05,3.41193e-05,-1.39791e-05,4.65771e-05,2.27152e-05,-2.04218e-05,1.55349e-05,-8.22041e-06,0
-2.61242e-05,3.46305e-05,-1.11039e-05,5.97173e-05,2.03382e-05,-2.02488e-05,2.05385e-05,-6.7662e-06,0
-2.66755e-05,3.16289e-05,-7.22817e-06,4.88099e-05,1.60801e-05,-1.88982e-05,2.53985e-05,-6.84038e-06,0
-2.6951e-05,2.42013e-05,-4.78212e-06,2.72962e-05,1.23741e-05,-1.77216e-05,2.43269e-05,-6.9605e-06,0
-2.64242e-05,8.8084e-06,-4.18177e-06,2.66797e-06,9.43619e-06,-1.8081e-05,1.9963e-05,-7.1672e-06,0
-2.61167e-05,-1.44788e-05,-3.08546e-06,-2.23506e-05,6.61309e-06,-2.00937e-05,1.64651e-05,-7.55146e-06,0
-2.59426e-05,-3.27699e-05,-2.36892e-06,-2.92308e-05,4.70057e-06,-2.13784e-05,1.46446e-05,-7.25428e-06,0
-2.49523e-05,-2.85169e-05,-1.92859e-06,-8.49143e-06,2.62212e-06,-2.11329e-05,1.40197e-05,-6.37019e-06,0
-2.40955e-05,-5.14084e-06,-1.11823e-06,1.403e-05,2.85922e-07,-2.12906e-05,1.43894e-05,-6.08031e-06,0
-2.5222e-05,1.72159e-05,-6.99057e-07,2.28054e-05,-2.67402e-06,-2.05755e-05,1.76568e-05,-6.18766e-06,0
-2.78701e-05,3.24732e-05,-2.24857e-06,2.33903e-05,-5.23943e-06,-1.89534e-05,2.16254e-05,-4.96933e-06,0
-2.98701e-05,4.01234e-05,-3.56799e-06,1.15299e-05,-5.1948e-06,-1.78587e-05,2.35109e-05,-3.57916e-06,0
-3.1051e-05,3.33003e-05,-3.17096e-06,-1.44915e-05,-4.30985e-06,-1.61343e-05,2.46526e-05,-2.87782e-06,0
-3.04615e-05,1.22178e-05,-2.8362e-06,-4.41849e-05,-4.30849e-06,-1.45434e-05,2.31686e-05,-3.63407e-06,0
-2.89536e-05,-1.23402e-05,-2.21249e-06,-6.12505e-05,-3.17894e-06,-1.26789e-05,1.44176e-05,-4.80068e-06,0
-2.80383e-05,-3.00916e-05,-2.04379e-06,-5.74544e-05,1.66339e-06,-8.89456e-06,5.25901e-07,-4.25966e-06,0
-2.79579e-05,-3.52305e-05,5.74392e-07,-3.11921e-05,8.106e-06,-5.86487e-06,-1.56418e-05,-1.97478e-06,0
-2.79505e-05,-2.67291e-05,5.22866e-06,8.42692e-06,1.39457e-05,-5.19086e-06,-3.5765e-05,5.5528e-08,0
-2.81761e-05,-1.02627e-05,7.08635e-06,4.27703e-05,1.74741e-05,-7.02264e-06,-5.4634e-05,1.90141e-06,0
-2.87047e-05,3.27106e-06,4.70476e-06,5.56219e-05,1.79107e-05,-9.64838e-06,-6.06227e-05,3.73084e-06,0
-2.82882e-05,8.41112e-06,1.03518e-06,4.16911e-05,1.68864e-05,-1.06736e-05,-4.81972e-05,4.50771e-06,0
-2.71615e-05,1.00404e-05,-2.21411e-06,8.60865e-06,1.65316e-05,-9.64908e-06,-2.21774e-05,4.6877e-06,0
-2.70668e-05,1.12439e-05,-4.76752e-06,-3.16851e-05,1.78018e-05,-7.074e-06,6.40299e-06,5.0788e-06,0
-2.85314e-05,1.01767e-05,-5.94922e-06,-6.14973e-05,2.01036e-05,-3.76811e-06,2.79495e-05,5.71037e-06,0
-2.95717e-05,5.99043e-06,-6.43119e-06,-6.75535e-05,2.15279e-05,-1.66181e-06,3.8615e-05,6.265e-06,0
-2.91509e-05,1.61161e-06,-6.82144e-06,-4.81336e-05,2.0134e-05,-2.60705e-06,3.991e-05,6.94783e-06,0
-2.87245e-05,6.40836e-07,-6.20529e-06,-1.19349e-05,1.84102e-05,-5.0533e-06,3.62047e-05,7.37381e-06,0
-3.00249e-05,2.80252e-06,-2.48352e-06,2.79919e-05,1.84918e-05,-6.39483e-06,3.10031e-05,8.29704e-06,0
-3.19751e-05,5.34948e-06,5.5179e-06,5.96608e-05,1.92857e-05,-6.0306e-06,2.4498e-05,1.01697e-05,0
-3.28667e-05,7.09774e-06,1.83195e-05,7.66653e-05,2.09771e-05,-4.79902e-06,1.65664e-05,1.14538e-05,0
-3.30456e-05,8.57415e-06,3.35789e-05,7.65779e-05,2.41983e-05,-4.63254e-06,9.85037e-06,1.08946e-05,0
-3.39302e-05,8.70612e-06,4.89833e-05,6.3198e-05,2.65692e-05,-4.73924e-06,5.7062e-06,9.9845e-06,0
-3.58574e-05,5.74968e-06,6.06481e-05,3.55678e-05,2.68043e-05,-3.2056e-06,3.60659e-06,1.02694e-05,0
-3.76107e-05,2.3849e-06,5.9843e-05,-4.05851e-06,2.6894e-05,-4.0551e-06,4.3462e-06,1.20007e-05,0
-3.70701e-05,1.2003e-06,4.17438e-05,-3.53697e-05,2.90382e-05,-7.21653e-06,6.05361e-06,1.21837e-05,0
-3.46705e-05,2.20436e-06,1.02331e-05,-4.01567e-05,3.03043e-05,-8.34443e-06,7.12165e-06,1.1311e-05,0
-3.27602e-05,3.73398e-06,-2.54512e-05,-2.59815e-05,2.80849e-05,-8.74646e-06,4.60584e-06,1.08761e-05,0
-3.20115e-05,5.08036e-06,-5.35096e-05,-1.04079e-05,2.32665e-05,-9.1233e-06,-3.075e-07,9.673e-06,0
-3.30578e-05,8.04861e-06,-6.86787e-05,-6.79954e-06,1.81935e-05,-8.2822e-06,8.71316e-07,8.4184e-06,0
-3.50488e-05,1.00914e-05,-7.31097e-05,-1.93826e-05,1.46283e-05,-7.70185e-06,8.80984e-06,7.2758e-06,0
-3.58788e-05,1.09139e-05,-6.73636e-05,-3.31441e-05,1.26709e-05,-7.40986e-06,1.56752e-05,7.17263e-06,0
-3.52557e-05,1.25436e-05,-5.39227e-05,-3.43371e-05,1.13575e-05,-7.50997e-06,1.91567e-05,7.00317e-06,0
-3.53888e-05,1.60121e-05,-3.98472e-05,-1.75827e-05,9.65808e-06,-6.86842e-06,2.14207e-05,7.45574e-06,0
-3.53309e-05,2.03335e-05,-3.00388e-05,1.163e-06,9.63571e-06,-6.33038e-06,2.2414e-05,7.57072e-06,0
-3.46055e-05,2.20804e-05,-2.38397e-05,1.02223e-05,1.05956e-05,-5.21081e-06,2.33072e-05,6.21477e-06,0
-3.40214e-05,2.11011e-05,-1.83406e-05,8.89549e-06,1.0618e-05,-2.96881e-06,2.36554e-05,4.96025e-06,0
-3.32492e-05,1.94951e-05,-1.29665e-05,5.91874e-07,8.51575e-06,-1.98048e-06,2.41248e-05,5.13484e-06,0
-3.21966e-05,1.87681e-05,-9.12457e-06,-8.34879e-06,6.4597e-06,-2.73362e-06,2.55288e-05,5.94837e-06,0
-3.11081e-05,1.80018e-05,-8.2923e-06,-1.53631e-05,5.76199e-06,-3.50226e-06,2.66543e-05,5.77643e-06,0
-3.05071e-05,1.7071e-05,-1.09799e-05,-2.10562e-05,4.79371e-06,-2.11368e-06,2.31994e-05,4.41843e-06,0
-3.0262e-05,1.68472e-05,-1.41482e-05,-3.02589e-05,2.84176e-06,-1.14925e-06,1.25484e-05,2.65699e-06,0
-3.08414e-05,1.75998e-05,-1.44791e-05,-4.23706e-05,1.30585e-06,-1.60523e-06,1.50509e-06,2.7552e-06,0
-3.13464e-05,1.84747e-05,-1.28258e-05,-5.52467e-05,1.88113e-06,-2.27532e-06,-1.3062e-06,4.2154e-06,0
-3.18571e-05,1.87251e-05,-1.08473e-05,-6.45475e-05,3.09804e-06,-2.259e-06,4.42679e-06,5.34792e-06,0
-3.24304e-05,1.92845e-05,-8.36428e-06,-6.63809e-05,4.02724e-06,-2.05798e-06,1.33408e-05,5.28922e-06,0
-3.26653e-05,2.07796e-05,-6.01927e-06,-5.34816e-05,5.5541e-06,-1.29561e-06,2.21209e-05,3.72953e-06,0
-3.24874e-05,2.22798e-05,-4.27349e-06,-2.60024e-05,8.3552e-06,-9.81575e-07,2.91062e-05,1.47125e-06,0
-3.26948e-05,2.34707e-05,-2.09144e-06,4.15437e-06,1.15042e-05,-1.7085e-06,3.19075e-05,2.21964e-06,0
-3.30218e-05,2.53068e-05,4.37559e-07,2.63663e-05,1.55417e-05,-2.8382e-06,3.14435e-05,4.38222e-06,0
-3.2421e-05,2.70284e-05,3.12886e-06,4.28946e-05,2.01215e-05,-3.59467e-06,3.20063e-05,4.11863e-06,0
-3.14804e-05,2.85114e-05,4.73113e-06,5.67626e-05,2.03228e-05,-4.95163e-06,3.47826e-05,9.8438e-07,0
-3.34991e-05,2.96744e-05,3.17572e-06,7.07389e-05,1.62545e-05,-5.13849e-06,3.73942e-05,-1.79935e-06,0
-3.59799e-05,3.01351e-05,-1.88342e-06,7.47007e-05,1.46337e-05,-4.3845e-06,3.74694e-05,-1.09599e-06,0
-3.45476e-05,2.96215e-05,-1.07601e-05,5.40984e-05,1.40024e-05,-4.40818e-06,3.66304e-05,3.42274e-07,0
-3.24078e-05,2.72961e-05,-1.80884e-05,1.80146e-05,1.20473e-05,-3.56863e-06,3.62186e-05,1.02314e-06,0
-3.16268e-05,2.36962e-05,-1.89114e-05,-8.63606e-06,9.82329e-06,-4.02296e-06,3.66418e-05,5.22282e-07,0
-3.29279e-05,1.997e-05,-1.51388e-05,-1.10355e-05,8.5369e-06,-6.02493e-06,3.45631e-05,-2.08102e-06,0
-3.28493e-05,1.96821e-05,-1.00906e-05,-2.64944e-06,8.75329e-06,-8.66586e-06,2.87182e-05,-6.49253e-06,0
-3.09268e-05,2.34552e-05,-6.7109e-06,4.2634e-06,9.30084e-06,-8.73678e-06,2.27282e-05,-8.8737e-06,0
-3.08782e-05,2.68526e-05,-8.03904e-06,6.70499e-06,9.13226e-06,-6.95356e-06,1.8835e-05,-7.21348e-06,0
-3.28116e-05,2.6159e-05,-1.38069e-05,4.63658e-06,7.46322e-06,-5.84427e-06,1.8249e-05,-6.1807e-06,0
-3.50809e-05,2.21246e-05,-1.82224e-05,5.17254e-07,5.4969e-06,-5.93944e-06,1.90006e-05,-6.24257e-06,0
-3.58484e-05,1.70477e-05,-2.03097e-05,-3.169e-06,5.46497e-06,-5.86065e-06,1.9467e-05,-5.61022e-06,0
-3.50506e-05,9.23487e-06,-2.16726e-05,-9.73388e-06,7.81549e-06,-4.38774e-06,2.01675e-05,-5.28218e-06,0
-3.44032e-05,1.25511e-06,-2.16974e-05,-2.29106e-05,9.12232e-06,-4.27822e-06,2.08905e-05,-5.79954e-06,0
-3.46822e-05,-4.36552e-07,-1.9506e-05,-3.7033e-05,8.5682e-06,-6.19835e-06,2.11035e-05,-5.5701e-06,0
-3.50514e-05,4.59228e-06,-1.68009e-05,-4.35196e-05,7.91472e-06,-8.47841e-06,2.18037e-05,-2.85284e-06,0
-3.42175e-05,1.00383e-05,-1.47901e-05,-4.18023e-05,9.19395e-06,-9.57701e-06,2.16615e-05,5.24128e-06,0
-3.18948e-05,1.25121e-05,-1.28015e-05,-3.92076e-05,1.22414e-05,-9.76384e-06,1.79157e-05,2.01587e-05,0
-3.08295e-05,1.43493e-05,-9.97684e-06,-3.8935e-05,1.56681e-05,-9.66784e-06,1.06481e-05,3.26369e-05,0
-3.21905e-05,1.68484e-05,-5.78985e-06,-3.61533e-05,1.84519e-05,-9.75778e-06,1.89228e-06,3.44427e-05,0
-3.39103e-05,1.84007e-05,-6.19078e-07,-2.34313e-05,2.0582e-05,-1.03014e-05,-6.77938e-06,2.63851e-05,0
-3.47386e-05,1.89612e-05,6.12421e-06,2.32109e-07,2.3512e-05,-1.10265e-05,-1.5041e-05,9.75954e-06,0
-3.50206e-05,1.9885e-05,1.51784e-05,3.0121e-05,2.66796e-05,-1.17169e-05,-2.12448e-05,-1.30697e-05,0
-3.45269e-05,2.00249e-05,2.72211e-05,5.73841e-05,2.84942e-05,-1.27681e-05,-2.31206e-05,-3.3736e-05,0
-3.37329e-05,1.97734e-05,3.77236e-05,6.57275e-05,2.79162e-05,-1.27013e-05,-2.07866e-05,-4.47903e-05,0
-3.29476e-05,1.96784e-05,3.84681e-05,5.13399e-05,2.48651e-05,-1.21857e-05,-1.44881e-05,-4.59107e-05,0
-3.25583e-05,1.76771e-05,2.63608e-05,2.90088e-05,2.21295e-05,-1.23074e-05,-5.44477e-06,-4.14356e-05,0
-3.37983e-05,1.32848e-05,3.7407e-06,7.32708e-06,2.26981e-05,-1.26201e-05,4.28846e-06,-3.37076e-05,0
-3.4291e-05,9.56783e-06,-2.04448e-05,-1.17819e-05,2.55972e-05,-1.19427e-05,1.2795e-05,-2.49667e-05,0
-3.17547e-05,7.56822e-06,-3.87054e-05,-2.83341e-05,2.77688e-05,-1.10866e-05,1.88206e-05,-1.66676e-05,0
-2.85615e-05,8.54375e-06,-4.8747e-05,-4.28744e-05,2.76037e-05,-1.21178e-05,2.23202e-05,-8.05142e-06,0
-2.59306e-05,9.67265e-06,-4.72003e-05,-5.55539e-05,2.58457e-05,-1.13308e-05,2.43229e-05,-1.74653e-06,0
-2.62377e-05,3.93455e-06,-4.07764e-05,-6.30992e-05,2.27822e-05,-9.86835e-06,2.36085e-05,-5.60686e-07,0
-2.78242e-05,-3.46744e-06,-3.56312e-05,-6.03e-05,1.90886e-05,-1.00042e-05,2.24821e-05,-7.86902e-07,0
-2.80397e-05,-5.14475e-06,-3.26831e-05,-5.07678e-05,1.75524e-05,-1.06765e-05,2.40323e-05,3.3908e-06,0
-2.76088e-05,-2.16208e-06,-3.15857e-05,-3.84988e-05,1.87632e-05,-1.05495e-05,2.61359e-05,9.72986e-06,0
-2.63552e-05,2.61482e-06,-3.00834e-05,-2.19307e-05,2.07905e-05,-1.01791e-05,2.77394e-05,1.32736e-05,0
-2.58119e-05,1.09987e-05,-2.52896e-05,1.80525e-06,2.09985e-05,-1.04638e-05,2.79208e-05,1.21904e-05,0
-2.52218e-05,2.38614e-05,-1.71267e-05,3.36291e-05,1.84642e-05,-1.05367e-05,2.59181e-05,7.99357e-06,0
-2.50335e-05,3.68816e-05,-9.47657e-06,6.61561e-05,1.44968e-05,-9.84867e-06,2.24334e-05,4.07055e-06,0
-2.41484e-05,4.59449e-05,-4.21407e-06,8.26285e-05,1.13417e-05,-8.30039e-06,1.90509e-05,1.74105e-06,0
-2.23625e-05,4.92856e-05,-5.7977e-07,7.16631e-05,1.04632e-05,-8.3812e-06,1.52927e-05,4.2987e-07,0
-2.20123e-05,4.67891e-05,3.28168e-06,4.14922e-05,9.98973e-06,-1.05195e-05,1.15378e-05,-1.25625e-07,0
-2.43452e-05,3.86792e-05,7.02048e-06,1.32085e-05,1.00955e-05,-1.18794e-05,8.10074e-06,-2.62104e-07,0
-2.73256e-05,2.72643e-05,1.01142e-05,-3.3549e-06,1.15407e-05,-1.04641e-05,5.75229e-06,9.68136e-09,0
-2.81799e-05,1.31517e-05,1.06672e-05,-1.41849e-05,1.27017e-05,-9.26726e-06,5.14864e-06,5.75008e-07,0
-2.78356e-05,-2.45041e-06,9.12516e-06,-2.53801e-05,1.15707e-05,-9.71028e-06,6.98138e-06,5.45711e-07,0
-2.81605e-05,-1.31267e-05,8.0862e-06,-3.60858e-05,8.94713e-06,-9.58527e-06,9.42426e-06,-2.59879e-07,0
-2.91007e-05,-9.78881e-06,7.93422e-06,-4.46965e-05,7.69428e-06,-8.06067e-06,1.02414e-05,-3.34745e-07,0
-2.93786e-05,1.53994e-05,5.1999e-06,-4.82594e-05,7.87202e-06,-6.59194e-06,9.56648e-06,5.46206e-07,0
-2.86764e-05,6.07605e-05,-7.58628e-07,-4.24805e-05,5.16049e-06,-6.42443e-06,6.89529e-06,-6.67628e-07,0
-2.7431e-05,0.000104342,-7.08109e-06,-3.046e-05,-9.74934e-07,-6.90767e-06,4.7903e-06,-3.59707e-06,0
-2.72512e-05,0.000119318,-1.08592e-05,-1.13511e-05,-4.96812e-06,-6.32026e-06,4.92018e-06,-3.61887e-06,0
-2.6701e-05,0.000101081,-1.25865e-05,8.82992e-06,-4.05711e-06,-5.07796e-06,6.91314e-06,2.64671e-06,0
-2.54198e-05,6.36579e-05,-1.33079e-05,1.3168e-05,-1.89426e-06,-5.95749e-06,8.27996e-06,1.12306e-05,0
-2.63353e-05,3.53023e-05,-1.19027e-05,1.22141e-05,-1.543e-06,-8.12347e-06,4.23731e-06,1.35291e-05,0
-2.85676e-05,2.75564e-05,-9.87016e-06,2.24511e-05,-1.7514e-06,-9.16419e-06,-4.6833e-06,1.09719e-05,0
-3.02921e-05,2.26058e-05,-1.0195e-05,2.80865e-05,-2.38192e-06,-9.46672e-06,-8.74296e-06,1.04476e-05,0
-3.0852e-05,7.34283e-06,-1.147e-05,1.39709e-05,-3.48708e-06,-9.8446e-06,-3.11117e-06,1.2308e-05,0
-3.21721e-05,-3.00901e-05,-1.15242e-05,-1.35616e-05,-3.84954e-06,-1.0124e-05,5.7948e-06,1.28509e-05,0
-3.63212e-05,-8.34418e-05,-1.33273e-05,-3.87645e-05,-2.75246e-06,-1.09067e-05,1.20528e-05,9.46863e-06,0
-3.97285e-05,-0.000123312,-1.49384e-05,-4.83034e-05,-1.40418e-06,-1.25126e-05,1.47113e-05,3.59833e-06,0
-4.13348e-05,-0.00012546,-1.26254e-05,-4.54035e-05,6.63913e-07,-1.39205e-05,1.5389e-05,-1.83693e-06,0
-4.0078e-05,-9.71118e-05,-8.57366e-06,-4.44911e-05,2.49103e-06,-1.33424e-05,1.55312e-05,-6.40697e-06,0
-3.6419e-05,-7.21755e-05,-7.2792e-06,-4.96187e-05,2.48447e-06,-1.28794e-05,1.49254e-05,-1.22079e-05,0
-3.40763e-05,-6.34972e-05,-8.49509e-06,-5.15314e-05,1.20038e-06,-1.41286e-05,1.14814e-05,-1.75519e-05,0
-3.41811e-05,-5.51711e-05,-8.45854e-06,-4.60102e-05,6.16215e-07,-1.50668e-05,5.92845e-06,-1.84828e-05,0
-3.49056e-05,-3.73398e-05,-7.27949e-06,-4.16867e-05,1.80779e-06,-1.52925e-05,1.54446e-06,-1.35967e-05,0
-3.47906e-05,-1.88138e-05,-8.19749e-06,-4.30687e-05,3.60202e-06,-1.52612e-05,1.30336e-07,-4.53123e-06,0
-3.4211e-05,-8.54582e-06,-1.27068e-05,-4.17746e-05,6.49362e-06,-1.56475e-05,2.32313e-06,4.77284e-06,0
-3.32747e-05,-9.22736e-06,-1.92125e-05,-3.23893e-05,1.09684e-05,-1.59046e-05,6.19038e-06,1.04581e-05,0
-3.1721e-05,-2.14395e-05,-2.42686e-05,-1.94607e-05,1.53867e-05,-1.47503e-05,9.31377e-06,1.18585e-05,0
-2.99142e-05,-4.58395e-05,-2.58395e-05,-6.8097e-06,1.89087e-05,-1.31817e-05,1.09095e-05,1.12677e-05,0
-3.02235e-05,-7.39517e-05,-2.45113e-05,8.65347e-06,2.37697e-05,-1.3068e-05,1.2083e-05,1.00633e-05,0
-3.18603e-05,-8.58803e-05,-2.17355e-05,2.54084e-05,2.90189e-05,-1.37467e-05,1.30787e-05,1.03149e-05,0
-3.16477e-05,-6.77686e-05,-1.7695e-05,3.36748e-05,3.1922e-05,-1.28202e-05,1.40015e-05,1.1913e-05,0
-2.96537e-05,-3.26534e-05,-1.2811e-05,3.30101e-05,3.21201e-05,-1.1452e-05,1.5841e-05,1.30858e-05,0
-2.85594e-05,-7.79778e-06,-7.90754e-06,2.84799e-05,3.13522e-05,-1.25506e-05,1.94058e-05,1.35369e-05,0
-2.84757e-05,-2.02496e-06,-2.75292e-06,2.34383e-05,2.89235e-05,-1.49826e-05,2.53514e-05,1.29343e-05,0
-2.96186e-05,-3.60384e-06,-6.18717e-09,2.26599e-05,2.3556e-05,-1.7494e-05,3.16669e-05,1.06674e-05,0
-3.12739e-05,-4.35437e-06,-2.07255e-06,1.76219e-05,1.86748e-05,-1.93712e-05,3.41669e-05,7.22485e-06,0
-3.33922e-05,-2.05555e-06,-8.61706e-06,1.12727e-06,1.74457e-05,-1.88658e-05,2.96262e-05,7.28522e-06,0
-3.48052e-05,2.35329e-06,-1.44095e-05,-1.3913e-05,1.85508e-05,-1.713e-05,1.26952e-05,9.25394e-06,0
-3.22588e-05,8.03074e-06,-1.602e-05,-1.71253e-05,1.89199e-05,-1.61076e-05,-1.46023e-05,8.1532e-06,0
-2.84279e-05,1.57287e-05,-1.40628e-05,-1.29214e-05,1.94589e-05,-1.49214e-05,-3.15478e-05,7.16031e-06,0
-2.65979e-05,2.23385e-05,-9.41712e-06,-2.0689e-06,2.01811e-05,-1.35594e-05,-2.74543e-05,7.64073e-06,0
-2.72412e-05,2.71365e-05,-6.68011e-06,1.74218e-05,1.98641e-05,-1.41095e-05,-1.06309e-05,7.84757e-06,0
-2.74948e-05,3.03119e-05,-4.80729e-06,3.01442e-05,1.93731e-05,-1.64499e-05,7.75096e-06,6.91421e-06,0
-2.64547e-05,3.34672e-05,-1.56376e-06,2.92759e-05,1.97183e-05,-1.79847e-05,2.22577e-05,5.58902e-06,0
-2.56431e-05,3.47568e-05,2.18399e-06,3.61573e-05,1.99168e-05,-1.74187e-05,3.2934e-05,6.04402e-06,0
-2.4649e-05,3.39506e-05,4.95462e-06,6.66712e-05,1.96713e-05,-1.44445e-05,3.69722e-05,8.55189e-06,0
-2.36689e-05,3.47869e-05,5.55414e-06,0.000109565,2.07888e-05,-1.07569e-05,3.56797e-05,9.32736e-06,0
-2.29544e-05,3.7922e-05,3.38644e-06,0.000136939,2.33853e-05,-9.07373e-06,3.29723e-05,7.71413e-06,0
-2.37015e-05,4.06301e-05,9.584e-07,0.00012643,2.5109e-05,-9.79758e-06,3.09762e-05,6.10731e-06,0
-2.47812e-05,4.01209e-05,6.82893e-08,8.10019e-05,2.40957e-05,-1.12732e-05,2.89008e-05,5.37414e-06,0
-2.5431e-05,3.7115e-05,-7.37118e-07,2.38459e-05,2.12578e-05,-1.10104e-05,2.50946e-05,5.7599e-06,0
-2.60305e-05,3.58429e-05,-1.67494e-06,-2.92162e-05,1.59826e-05,-9.59539e-06,1.95362e-05,7.21054e-06,0
-2.63269e-05,3.70546e-05,-1.89684e-06,-7.48888e-05,8.50292e-06,-8.94309e-06,1.63315e-05,7.98771e-06,0
-2.62785e-05,3.84565e-05,-5.20028e-07,-0.000108085,3.24885e-06,-9.06086e-06,1.81347e-05,6.46804e-06,0
-2.62826e-05,4.11398e-05,1.23398e-06,-0.000114698,2.61284e-06,-9.29603e-06,2.17234e-05,5.37149e-06,0
-2.65547e-05,4.79644e-05,2.20395e-06,-8.90365e-05,4.00021e-06,-1.01591e-05,2.42854e-05,5.23544e-06,0
-2.51135e-05,5.78103e-05,1.11997e-06,-4.93788e-05,5.07538e-06,-1.147e-05,2.52568e-05,3.37999e-06,0
-2.35001e-05,6.53089e-05,-1.65617e-06,-1.87916e-05,6.2673e-06,-1.27757e-05,2.45104e-05,-1.90303e-07,0
-2.41362e-05,6.83832e-05,-5.51053e-06,-2.68913e-06,8.83971e-06,-1.39518e-05,1.8934e-05,-2.35492e-06,0
-2.55738e-05,6.87672e-05,-8.78505e-06,4.57386e-06,1.21129e-05,-1.37811e-05,7.57107e-06,-2.88937e-06,0
-2.57034e-05,6.67633e-05,-1.01124e-05,9.09289e-06,1.54339e-05,-1.29911e-05,-3.74519e-06,-3.11726e-06,0
-2.50058e-05,5.54905e-05,-1.00127e-05,9.32838e-06,1.86219e-05,-1.34236e-05,-7.09551e-06,-2.88511e-06,0
-2.44124e-05,3.26676e-05,-9.66436e-06,-5.40985e-06,2.19156e-05,-1.47751e-05,-3.44328e-06,-2.08521e-06,0
-2.37355e-05,5.89564e-06,-6.76359e-06,-3.42204e-05,2.66171e-05,-1.28808e-05,2.95037e-06,-3.73088e-06,0
-2.38711e-05,-1.1365e-05,-3.39095e-06,-6.56176e-05,3.04169e-05,-9.51837e-06,1.12679e-05,-6.14956e-06,0
-2.5363e-05,-1.70608e-05,-4.15075e-06,-9.08708e-05,3.28579e-05,-8.00298e-06,1.99037e-05,-5.1779e-06,0
-2.60553e-05,-1.51174e-05,-7.16635e-06,-0.000103626,3.26654e-05,-6.49145e-06,2.63156e-05,-3.13376e-06,0
-2.59518e-05,-3.32874e-06,-8.91997e-06,-9.34667e-05,2.81214e-05,-6.04946e-06,2.79321e-05,-1.51971e-06,0
-2.46171e-05,1.15655e-05,-8.00443e-06,-6.22154e-05,2.40272e-05,-5.60328e-06,2.57079e-05,-1.7839e-06,0
-2.13794e-05,2.34199e-05,-5.34248e-06,-2.63762e-05,2.18194e-05,-4.99912e-06,2.30156e-05,-2.74369e-06,0
-1.96094e-05,2.93854e-05,-2.19005e-06,-3.59906e-07,2.08658e-05,-3.85189e-06,1.94082e-05,-2.39067e-06,0
-2.10507e-05,2.96009e-05,1.65729e-06,1.43514e-05,1.87268e-05,-3.5746e-06,1.51239e-05,-1.7999e-06,0
-2.37301e-05,2.59327e-05,4.99184e-06,2.52629e-05,1.49226e-05,-3.866e-06,1.26948e-05,-8.39386e-07,0
-2.43228e-05,2.16814e-05,4.76579e-06,3.5904e-05,1.28261e-05,-3.08108e-06,1.18601e-05,1.14488e-07,0
-2.45508e-05,1.67844e-05,2.50403e-06,3.68992e-05,1.20726e-05,-2.34105e-06,9.57845e-06,2.08526e-08,0
-2.71107e-05,1.11752e-05,-2.69733e-06,2.27155e-05,1.00948e-05,-2.46278e-06,7.10993e-06,-8.95373e-07,0
-3.00505e-05,8.58999e-06,-1.13934e-05,1.26559e-05,6.83518e-06,-3.91127e-06,5.59955e-06,-7.7048e-07,0
-3.06047e-05,1.07095e-05,-2.01407e-05,1.96754e-05,4.92156e-06,-3.48308e-06,4.09235e-06,1.49563e-06,0
-2.89187e-05,1.50736e-05,-2.59808e-05,2.91005e-05,4.34561e-06,-7.29668e-07,3.12647e-06,4.44566e-06,0
-2.67827e-05,1.70523e-05,-2.95723e-05,2.08771e-05,4.48945e-06,1.90599e-06,2.80886e-06,5.04298e-06,0
-2.57774e-05,1.6063e-05,-3.00583e-05,1.0223e-06,5.02769e-06,1.35137e-06,2.89692e-06,3.3814e-06,0
-2.65487e-05,1.37327e-05,-2.61505e-05,-1.36744e-05,5.63912e-06,-1.47962e-06,2.63016e-06,3.13313e-06,0
-2.83772e-05,1.19918e-05,-2.05515e-05,-2.3329e-05,4.61105e-06,-4.69887e-06,2.18856e-06,5.42647e-06,0
-2.99141e-05,1.02467e-05,-1.66216e-05,-3.47835e-05,1.98556e-06,-6.84354e-06,1.94336e-06,6.64725e-06,0
-2.93665e-05,8.70646e-06,-1.49646e-05,-4.0533e-05,-5.18843e-08,-7.35892e-06,3.03507e-06,4.76124e-06,0
-2.75549e-05,7.26685e-06,-1.23151e-05,-3.29088e-05,-1.13128e-07,-7.4028e-06,6.16245e-06,2.34806e-06,0
-2.75257e-05,8.0116e-06,-9.04749e-06,-2.14448e-05,9.16346e-07,-6.34186e-06,1.23855e-05,4.41181e-07,0
-3.01071e-05,1.04102e-05,-8.36631e-06,-1.91023e-05,1.68301e-06,-5.20648e-06,2.13153e-05,-1.11986e-06,0
-3.31522e-05,1.23772e-05,-1.07667e-05,-1.40669e-05,1.37888e-06,-5.84989e-06,3.06784e-05,-1.8813e-06,0
-3.43452e-05,1.21678e-05,-1.35564e-05,7.61433e-06,1.30933e-06,-6.50269e-06,3.67245e-05,-2.4145e-06,0
-3.38908e-05,1.04834e-05,-1.33874e-05,3.46698e-05,1.25917e-06,-6.15972e-06,3.76629e-05,-3.82986e-06,0
-3.46995e-05,9.81934e-06,-1.23288e-05,5.43896e-05,-2.41734e-07,-7.40813e-06,3.59353e-05,-4.58383e-06,0
-3.61928e-05,8.67823e-06,-1.21355e-05,7.0836e-05,-6.24077e-07,-9.07857e-06,3.64154e-05,-2.95447e-06,0
-3.74642e-05,7.65608e-06,-1.17856e-05,8.99756e-05,2.95534e-07,-9.59257e-06,3.59967e-05,-1.34206e-06,0
-3.72847e-05,7.32553e-06,-1.31779e-05,0.000103986,3.02824e-06,-1.14368e-05,2.7644e-05,-1.18564e-06,0
-3.60913e-05,7.18467e-06,-1.5923e-05,0.000103185,6.52186e-06,-1.29203e-05,1.35094e-05,-1.66626e-07,0
-3.6179e-05,7.23832e-06,-2.05565e-05,8.23577e-05,5.67818e-06,-1.41188e-05,-1.43946e-06,2.16495e-06,0
-3.57372e-05,7.40928e-06,-2.42961e-05,6.00439e-05,2.30216e-06,-1.38032e-05,-1.5454e-05,2.4098e-06,0
-3.51812e-05,8.34577e-06,-2.27432e-05,4.51387e-05,3.70268e-06,-1.08758e-05,-2.57178e-05,-3.16552e-08,0
-3.40948e-05,9.67953e-06,-1.56117e-05,2.51101e-05,8.80557e-06,-9.10343e-06,-2.97637e-05,-2.21633e-06,0
-3.21208e-05,1.2478e-05,-8.17358e-06,-1.00496e-05,1.462e-05,-8.95065e-06,-2.98676e-05,-2.96893e-06,0
-3.13925e-05,1.8602e-05,-2.66009e-06,-5.33098e-05,1.86556e-05,-9.28124e-06,-2.72365e-05,-3.23351e-06,0
-3.19327e-05,2.69236e-05,5.01629e-06,-8.66679e-05,1.86479e-05,-9.41391e-06,-2.19459e-05,-4.62715e-06,0
-3.26792e-05,3.43252e-05,1.59671e-05,-0.000104325,1.61711e-05,-9.77572e-06,-1.51912e-05,-5.97982e-06,0
-3.27963e-05,3.73706e-05,3.18007e-05,-0.000110231,1.48149e-05,-8.5827e-06,-9.01516e-06,-5.91241e-06,0
-3.20516e-05,3.60221e-05,5.19968e-05,-0.000109956,1.45382e-05,-6.19022e-06,-4.89573e-06,-5.12136e-06,0
-3.15199e-05,3.25097e-05,7.13623e-05,-0.000101222,1.3165e-05,-4.75595e-06,-1.4699e-06,-4.72992e-06,0
-3.19926e-05,2.96273e-05,8.22471e-05,-8.23152e-05,1.21064e-05,-5.05872e-06,4.08901e-06,-3.46187e-06,0
-3.26061e-05,2.76805e-05,8.16851e-05,-5.56235e-05,1.35202e-05,-5.3278e-06,1.16516e-05,9.30926e-07,0
-3.2447e-05,2.7532e-05,6.83359e-05,-2.78846e-05,1.97536e-05,-4.69449e-06,1.8226e-05,7.16611e-06,0
-3.26718e-05,2.81758e-05,4.14228e-05,-4.22962e-06,2.97149e-05,-3.82487e-06,2.14805e-05,1.19217e-05,0
-3.40017e-05,2.40951e-05,5.95108e-06,1.304e-06,3.63347e-05,-3.61514e-06,2.27791e-05,1.56584e-05,0
-3.51962e-05,1.29013e-05,-3.05441e-05,-2.35676e-05,3.31445e-05,-4.358e-06,2.39674e-05,2.06961e-05,0
-3.60127e-05,3.12512e-06,-6.43596e-05,-6.07272e-05,2.45665e-05,-6.43078e-06,2.27103e-05,2.4019e-05,0
-3.62024e-05,4.07082e-06,-9.11691e-05,-7.81152e-05,1.86286e-05,-7.73762e-06,1.80948e-05,2.15693e-05,0
-3.51837e-05,1.18933e-05,-0.000104237,-6.80492e-05,1.67038e-05,-5.9005e-06,1.29892e-05,1.23725e-05,0
-3.45486e-05,1.90997e-05,-0.000102475,-4.11192e-05,1.56599e-05,-4.21341e-06,5.72867e-06,2.01308e-06,0
-3.50101e-05,1.95284e-05,-8.75454e-05,-3.48078e-06,1.69285e-05,-4.3131e-06,-1.86985e-06,-4.01337e-06,0
-3.52681e-05,1.194e-05,-6.52782e-05,3.23764e-05,2.03476e-05,-5.20015e-06,-1.29376e-06,-6.35956e-06,0
-3.52277e-05,2.43966e-06,-4.82381e-05,5.86658e-05,2.32057e-05,-5.59286e-06,5.62886e-06,-8.89424e-06,0
-3.5749e-05,-3.86541e-06,-4.26889e-05,7.09469e-05,2.39561e-05,-5.97635e-06,1.05133e-05,-1.19509e-05,0
-3.72653e-05,-4.58592e-06,-4.34306e-05,6.0273e-05,2.39483e-05,-6.89867e-06,1.01898e-05,-1.40035e-05,0
-3.91213e-05,-8.62873e-07,-4.21154e-05,3.83584e-05,2.44115e-05,-7.05737e-06,7.09144e-06,-1.56509e-05,0
-4.02036e-05,4.78012e-06,-3.4438e-05,2.11685e-05,2.2762e-05,-7.88526e-06,7.38514e-06,-1.48808e-05,0
-4.07684e-05,9.80219e-06,-2.1132e-05,1.27371e-05,1.98567e-05,-9.22051e-06,1.06866e-05,-1.26193e-05,0
-4.04975e-05,1.28297e-05,-6.0201e-06,4.0052e-06,1.74504e-05,-1.03097e-05,1.1959e-05,-1.04495e-05,0
-3.93257e-05,1.4756e-05,5.05412e-06,-9.35269e-06,1.56029e-05,-1.17315e-05,1.13401e-05,-8.21816e-06,0
-3.83415e-05,1.48231e-05,8.378e-06,-2.0421e-05,1.38347e-05,-1.29165e-05,1.07219e-05,-5.47004e-06,0
-3.84805e-05,1.38596e-05,4.40511e-06,-2.57481e-05,1.36886e-05,-1.42981e-05,1.00948e-05,-2.98439e-06,0
-3.95183e-05,1.37874e-05,-3.51465e-06,-2.88336e-05,1.40206e-05,-1.50653e-05,9.7002e-06,-1.90947e-06,0
-3.87936e-05,1.55669e-05,-1.13333e-05,-3.42964e-05,1.33621e-05,-1.40888e-05,1.02015e-05,-1.76895e-06,0
-3.56652e-05,1.76878e-05,-1.4358e-05,-3.7885e-05,1.18221e-05,-1.13246e-05,1.13452e-05,-1.73169e-06,0
-3.26453e-05,1.85502e-05,-1.14245e-05,-3.39443e-05,9.81041e-06,-9.43138e-06,1.38894e-05,-1.19963e-07,0
-3.1772e-05,1.8658e-05,-5.43974e-06,-2.11404e-05,7.67665e-06,-8.93719e-06,1.77909e-05,1.60792e-06,0
-3.17394e-05,1.94215e-05,1.87833e-07,-4.43743e-06,5.69754e-06,-8.44897e-06,2.17013e-05,1.89171e-06,0
-3.11436e-05,2.04961e-05,4.02009e-06,1.32512e-05,5.19263e-06,-8.26939e-06,2.35298e-05,1.24815e-06,0
-3.01505e-05,2.0258e-05,5.73898e-06,2.79996e-05,7.23199e-06,-1.00749e-05,2.34218e-05,3.63231e-07,0
-2.92977e-05,1.99026e-05,5.11415e-06,3.27064e-05,1.08026e-05,-1.15096e-05,2.2892e-05,-6.15688e-08,0
-2.97077e-05,2.00822e-05,2.75997e-06,2.07489e-05,1.24541e-05,-8.16799e-06,2.36148e-05,5.7589e-07,0
-3.14857e-05,1.91004e-05,-2.69823e-07,-5.37308e-06,1.11881e-05,-3.867e-06,2.57865e-05,2.09062e-07,0
-3.23303e-05,1.69572e-05,-2.1598e-06,-3.37807e-05,9.63585e-06,-3.02384e-06,2.71905e-05,-6.28663e-07,0
-3.14642e-05,1.55683e-05,-1.39666e-06,-4.63424e-05,9.84057e-06,-4.09869e-06,2.65774e-05,9.25627e-07,0
-3.11605e-05,1.46703e-05,1.73498e-06,-3.2769e-05,1.15285e-05,-3.67353e-06,2.36823e-05,1.27502e-06,0
-3.11183e-05,1.39543e-05,5.36119e-06,3.33006e-06,1.41569e-05,-1.62744e-06,1.91834e-05,-3.92489e-07,0
-2.99067e-05,1.52775e-05,7.21801e-06,5.75052e-05,1.69834e-05,-3.81022e-08,1.54545e-05,-1.69055e-06,0
-2.73125e-05,1.98257e-05,6.29643e-06,0.000100252,1.95076e-05,7.16865e-07,1.48609e-05,-2.75737e-06,0
-2.65939e-05,2.28917e-05,4.23682e-06,0.000105032,1.95769e-05,-3.82671e-07,1.451e-05,-1.75978e-06,0
-2.87619e-05,1.8661e-05,2.74487e-06,8.52372e-05,1.64473e-05,-2.39674e-06,1.33915e-05,-1.35882e-06,0
-3.0359e-05,1.09377e-05,1.55067e-06,5.31736e-05,1.08015e-05,-4.83253e-06,1.37297e-05,-3.06038e-06,0
-3.18902e-05,5.61712e-06,3.96622e-06,2.73329e-05,5.50905e-06,-7.28303e-06,1.51093e-05,-3.9114e-06,0
-3.24987e-05,6.66165e-06,1.59887e-05,1.56805e-05,3.97921e-06,-8.25652e-06,1.75116e-05,-3.84064e-06,0
-3.10937e-05,1.54084e-05,3.33729e-05,1.31458e-05,6.71444e-06,-8.3996e-06,1.83993e-05,-3.52771e-06,0
-2.99423e-05,2.52442e-05,4.5459e-05,1.34533e-05,1.15241e-05,-8.66773e-06,1.67488e-05,-2.90644e-06,0
-2.95325e-05,3.18527e-05,4.61626e-05,9.59035e-06,1.29247e-05,-9.30257e-06,1.57531e-05,-1.23548e-06,0
-2.91022e-05,3.53534e-05,3.43892e-05,-1.23108e-06,1.18445e-05,-1.00703e-05,1.57808e-05,5.03624e-07,0
-2.82973e-05,3.69055e-05,1.32422e-05,-1.90351e-05,1.12631e-05,-1.14245e-05,1.55468e-05,2.31276e-06,0
-2.70809e-05,3.58557e-05,-1.11379e-05,-3.47762e-05,9.85856e-06,-1.25434e-05,1.56265e-05,2.90847e-06,0
-2.67786e-05,2.94231e-05,-3.29483e-05,-4.30818e-05,6.90133e-06,-1.34343e-05,1.45844e-05,2.45406e-06,0
-2.81379e-05,1.69595e-05,-4.63853e-05,-4.17957e-05,4.45425e-06,-1.45327e-05,7.83266e-06,1.25176e-06,0
-2.94535e-05,-5.91518e-07,-4.99441e-05,-3.32673e-05,4.34807e-06,-1.54514e-05,-4.09601e-06,1.7033e-09,0
-2.93991e-05,-1.76817e-05,-4.69282e-05,-1.66191e-05,6.53871e-06,-1.60418e-05,-1.92074e-05,-1.20694e-06,0
-2.90351e-05,-2.42693e-05,-4.0385e-05,4.12016e-06,9.27796e-06,-1.68907e-05,-3.4862e-05,-2.09176e-06,0
-3.05346e-05,-1.66934e-05,-3.36114e-05,2.20704e-05,1.14536e-05,-1.77697e-05,-4.10719e-05,-1.07223e-06,0
-3.3453e-05,-1.19366e-06,-2.90887e-05,2.82063e-05,1.28929e-05,-1.82745e-05,-2.86166e-05,8.2547e-07,0
-3.50408e-05,1.71171e-05,-2.65162e-05,2.10723e-05,1.27356e-05,-1.87397e-05,-2.13812e-06,1.10157e-06,0
-3.36161e-05,3.36114e-05,-2.38266e-05,8.4535e-06,1.19387e-05,-2.03967e-05,2.27619e-05,3.05925e-08,0
-3.10821e-05,4.40858e-05,-2.0995e-05,1.50023e-06,1.17792e-05,-2.20535e-05,3.703e-05,5.52635e-07,0
-2.9528e-05,4.86544e-05,-1.8647e-05,1.92546e-06,1.31723e-05,-2.23781e-05,4.31696e-05,1.667e-06,0
-2.95719e-05,5.04827e-05,-1.54047e-05,3.1914e-06,1.51003e-05,-2.19318e-05,4.26121e-05,2.0057e-06,0
-2.97778e-05,5.19299e-05,-1.21833e-05,1.86574e-06,1.666e-05,-2.02781e-05,3.65975e-05,1.9274e-06,0
-2.90618e-05,4.98923e-05,-9.47579e-06,2.09834e-06,1.88179e-05,-1.92856e-05,3.344e-05,2.82247e-06,0
-2.99711e-05,3.68807e-05,-4.90933e-06,1.24377e-05,2.10284e-05,-1.95894e-05,3.51731e-05,1.79327e-06,0
-3.30421e-05,1.1018e-05,-8.93793e-07,2.53242e-05,1.96706e-05,-1.94148e-05,3.50895e-05,-5.66006e-07,0
-3.51344e-05,-1.87282e-05,4.75439e-08,2.87135e-05,1.42217e-05,-1.90989e-05,3.24679e-05,-8.16019e-08,0
-3.43727e-05,-4.37163e-05,-6.78671e-07,2.43761e-05,7.7673e-06,-2.0389e-05,3.13174e-05,1.42615e-06,0
-3.32582e-05,-5.63206e-05,-2.04475e-06,1.93974e-05,2.27112e-06,-2.16694e-05,3.18169e-05,9.96734e-07,0
-3.28404e-05,-5.08474e-05,-2.42416e-06,1.91235e-05,-1.92002e-09,-1.93456e-05,3.27973e-05,1.83567e-08,0
-3.04682e-05,-3.03769e-05,-3.56343e-07,1.71004e-05,9.72737e-07,-1.47441e-05,3.36321e-05,-4.98133e-07,0
-2.64404e-05,-8.68383e-06,1.42264e-06,1.69562e-07,2.59031e-06,-1.17156e-05,3.2926e-05,-7.89158e-07,0
-2.51203e-05,3.22562e-06,2.2211e-06,-3.45808e-05,4.9679e-06,-1.0194e-05,2.79651e-05,-1.71149e-06,0
-2.59779e-05,7.57957e-06,2.38315e-06,-7.88803e-05,7.60185e-06,-9.25255e-06,2.0191e-05,-2.04812e-06,0
-2.57167e-05,1.02934e-05,2.12682e-06,-0.000116956,9.5881e-06,-8.97436e-06,1.34135e-05,-1.43849e-06,0
-2.44484e-05,1.54757e-05,1.09534e-06,-0.000130698,1.32215e-05,-9.07136e-06,9.20749e-06,-1.54377e-06,0
-2.31893e-05,2.41773e-05,-2.05842e-06,-0.000111787,1.89304e-05,-8.30167e-06,7.15108e-06,-2.26426e-06,0
-2.28196e-05,3.88393e-05,-5.84506e-06,-7.88026e-05,2.31162e-05,-7.38486e-06,5.20047e-06,-3.03478e-06,0
-2.31065e-05,6.19757e-05,-8.80993e-06,-5.2298e-05,2.39983e-05,-7.18863e-06,2.84917e-06,-2.75182e-06,0
-2.35228e-05,8.99852e-05,-9.64754e-06,-3.56338e-05,2.41256e-05,-6.9544e-06,6.60884e-07,-1.76081e-06,0
-2.38077e-05,0.000118382,-9.1467e-06,-2.45273e-05,2.42147e-05,-7.36738e-06,-1.19971e-06,-2.75163e-07,0
-2.34519e-05,0.000149315,-7.26253e-06,-2.06493e-05,2.4331e-05,-8.12187e-06,-4.62958e-06,1.35545e-06,0
-2.23749e-05,0.000181579,-4.62017e-06,-2.28168e-05,2.5384e-05,-8.35552e-06,-9.69882e-06,3.53349e-06,0
-2.17353e-05,0.000200729,-3.78611e-06,-2.54184e-05,2.61414e-05,-8.31163e-06,-1.29715e-05,5.46036e-06,0
-2.11985e-05,0.000189852,-5.68882e-06,-2.40347e-05,2.39084e-05,-8.87993e-06,-1.14066e-05,5.62036e-06,0
-2.01578e-05,0.000143797,-8.50925e-06,-1.80403e-05,1.94043e-05,-1.02226e-05,-5.37158e-06,3.98088e-06,0
-2.06795e-05,7.29689e-05,-1.07224e-05,-1.13048e-05,1.46096e-05,-1.07688e-05,1.66369e-06,2.24955e-06,0
-2.38448e-05,-4.24661e-06,-1.1763e-05,-9.31083e-06,8.73568e-06,-1.00566e-05,7.34136e-06,-1.18204e-07,0
-2.7716e-05,-7.77669e-05,-1.30565e-05,-1.61152e-05,3.13733e-06,-1.11478e-05,1.15831e-05,-2.98576e-06,0
-3.10064e-05,-0.000139062,-1.63343e-05,-2.42524e-05,3.79926e-07,-1.2076e-05,1.45397e-05,-6.22721e-06,0
-3.24371e-05,-0.000174768,-1.83329e-05,-2.81511e-05,-5.92173e-07,-9.56444e-06,1.70345e-05,-7.84976e-06,0
-3.07215e-05,-0.000180535,-1.69043e-05,-2.49984e-05,-8.74003e-07,-7.18269e-06,1.83167e-05,-7.20791e-06,0
-3.07656e-05,-0.000164474,-1.51977e-05,-1.39766e-05,-1.33661e-06,-7.86603e-06,1.66982e-05,-5.11791e-06,0
-3.4332e-05,-0.000139076,-1.57222e-05,-3.4573e-06,-1.3727e-06,-9.47717e-06,1.37449e-05,-6.2013e-07,0
-3.60898e-05,-0.000107347,-1.67907e-05,-2.15416e-06,-3.14374e-07,-8.33486e-06,1.33303e-05,2.7717e-06,0
-3.54201e-05,-6.85054e-05,-1.66263e-05,-1.28977e-05,-4.0008e-08,-6.77687e-06,1.52862e-05,2.65861e-06,0
-3.40956e-05,-2.75882e-05,-1.4263e-05,-2.49156e-05,-1.07917e-07,-6.11604e-06,1.62998e-05,7.53292e-07,0
-3.1775e-05,5.25815e-06,-9.4269e-06,-3.04812e-05,-8.18667e-07,-5.9066e-06,1.60213e-05,5.7501e-06,0
-2.78047e-05,2.53606e-05,-3.65393e-06,-2.63502e-05,-1.04133e-06,-6.72389e-06,1.56292e-05,2.12879e-05,0
-2.5362e-05,3.41132e-05,-1.14579e-06,-1.14638e-05,-2.80182e-07,-6.37934e-06,1.56356e-05,3.61787e-05,0
-2.54397e-05,3.28672e-05,-2.74813e-06,5.36781e-06,-3.8607e-07,-4.99545e-06,1.63207e-05,4.06834e-05,0
-2.60794e-05,2.15423e-05,-4.73577e-06,1.16417e-05,-7.64012e-07,-3.66385e-06,1.75305e-05,3.55523e-05,0
-2.64892e-05,-3.66438e-06,-5.24077e-06,6.83959e-06,-5.97029e-07,-2.75576e-06,1.82653e-05,2.23035e-05,0
-2.53976e-05,-3.79609e-05,-2.87109e-06,1.38755e-05,1.26712e-06,-2.07093e-06,1.94088e-05,7.02063e-07,0
-2.33811e-05,-6.48061e-05,9.73651e-07,5.88451e-05,5.02394e-06,-9.39213e-07,2.14349e-05,-2.41096e-05,0
-2.26454e-05,-7.17356e-05,2.26161e-06,0.000138192,8.10298e-06,-4.47608e-07,2.49392e-05,-3.97392e-05,0
-2.5142e-05,-6.13921e-05,-4.45684e-07,0.000204252,8.4536e-06,-1.72213e-06,2.95166e-05,-4.12042e-05,0
-2.90823e-05,-4.4296e-05,-4.47886e-06,0.000213678,7.61902e-06,-4.00881e-06,3.25298e-05,-3.52409e-05,0
-3.21401e-05,-2.9211e-05,-6.28479e-06,0.000168592,9.7305e-06,-5.69491e-06,3.311e-05,-2.88252e-05,0
-3.24002e-05,-1.92579e-05,-5.03841e-06,0.00010317,1.58536e-05,-5.93238e-06,3.27537e-05,-2.28648e-05,0
-2.98687e-05,-1.19287e-05,-2.92617e-06,4.50751e-05,2.17876e-05,-5.04052e-06,3.11565e-05,-1.45858e-05,0
-2.69104e-05,-4.16239e-06,-2.55141e-06,2.5404e-06,2.41116e-05,-4.04024e-06,2.71792e-05,-5.85726e-06,0
-2.56416e-05,3.111e-06,-6.18357e-06,-2.93886e-05,2.30446e-05,-3.54461e-06,2.28618e-05,-5.00819e-07,0
-2.53643e-05,8.04863e-06,-1.45953e-05,-5.05001e-05,2.01116e-05,-4.07724e-06,1.90039e-05,9.31722e-07,0
-2.42155e-05,1.00303e-05,-2.1747e-05,-5.63847e-05,1.73928e-05,-5.07909e-06,1.44703e-05,1.5295e-06,0
-2.23215e-05,1.14213e-05,-2.0621e-05,-6.14907e-05,1.68714e-05,-4.53939e-06,9.11652e-06,4.62086e-06,0
-2.04817e-05,1.77459e-05,-1.17708e-05,-8.33788e-05,1.83669e-05,-3.3236e-06,4.60961e-06,8.45635e-06,0
-2.04708e-05,2.69244e-05,-3.36995e-06,-0.000109877,2.00316e-05,-3.67766e-06,1.1891e-06,1.04323e-05,0
-2.35156e-05,3.16038e-05,-5.21036e-07,-0.000116477,1.88649e-05,-5.91831e-06,-3.54123e-06,1.06896e-05,0
-2.67655e-05,3.07652e-05,-1.54078e-06,-9.92022e-05,1.51158e-05,-9.21203e-06,-8.93508e-06,8.90446e-06,0
-2.75019e-05,2.92396e-05,-1.91633e-06,-6.56798e-05,1.26827e-05,-1.21759e-05,-1.16544e-05,6.83706e-06,0
-2.61742e-05,2.84061e-05,-8.95846e-07,-2.9551e-05,1.32215e-05,-1.35667e-05,-1.04986e-05,7.18893e-06,0
-2.37428e-05,2.7286e-05,-1.92775e-06,-6.37812e-06,1.749e-05,-1.49538e-05,-7.08762e-06,8.89635e-06,0
-2.39536e-05,2.68924e-05,-5.03436e-06,-4.06863e-06,2.33776e-05,-1.50343e-05,-2.25512e-06,9.7062e-06,0
-2.65111e-05,2.76918e-05,-1.02696e-05,-2.0718e-05,2.62797e-05,-1.34548e-05,3.46729e-06,9.0828e-06,0
-2.72133e-05,2.9942e-05,-1.46512e-05,-4.35087e-05,2.59408e-05,-1.32299e-05,7.98625e-06,8.44276e-06,0
-2.6766e-05,3.04642e-05,-1.63553e-05,-5.82007e-05,2.44116e-05,-1.35341e-05,1.06729e-05,8.83708e-06,0
-2.74505e-05,2.73201e-05,-1.63817e-05,-5.93932e-05,2.26991e-05,-1.37957e-05,1.03149e-05,8.94744e-06,0
