ch1,ch2,ch3,ch4,ch5,ch6,ch7,ch8,class
-2.77621e-05,1.65903e-05,-6.21169e-06,3.25168e-06,1.31981e-05,-2.48308e-06,1.56762e-05,2.64738e-06,0
-2.90265e-05,1.71779e-05,-9.10004e-06,4.3482e-06,1.31883e-05,-1.44924e-06,1.54236e-05,3.22548e-06,0
-3.00252e-05,1.9171e-05,-1.21721e-05,5.12829e-06,1.48859e-05,1.37483e-06,1.57598e-05,2.05703e-06,0
-3.081e-05,2.06024e-05,-1.29166e-05,4.97053e-06,1.54335e-05,3.70643e-06,1.78774e-05,1.52849e-06,0
-3.16235e-05,2.06801e-05,-1.29293e-05,1.22771e-06,1.32352e-05,3.43866e-06,1.96969e-05,1.79524e-06,0
-3.16762e-05,2.06184e-05,-1.34485e-05,-3.23074e-06,1.13562e-05,1.41169e-06,1.84471e-05,1.19601e-06,0
-3.00706e-05,2.16781e-05,-1.16623e-05,-6.15761e-06,9.69945e-06,-9.7086e-07,1.47279e-05,1.04244e-06,0
-2.76126e-05,2.12893e-05,-7.95797e-06,-1.03627e-05,8.0335e-06,-3.80795e-06,1.25354e-05,1.12007e-06,0
-2.61443e-05,1.89332e-05,-7.41762e-06,-1.45193e-05,8.38065e-06,-4.85411e-06,1.15325e-05,1.89116e-06,0
-2.76202e-05,1.80901e-05,-9.87371e-06,-1.85056e-05,9.83626e-06,-3.68627e-06,9.15656e-06,3.83476e-06,0
-2.97043e-05,1.74209e-05,-1.32445e-05,-2.23778e-05,9.6711e-06,-3.52752e-06,7.18136e-06,5.93009e-06,0
-3.11302e-05,1.54395e-05,-1.43634e-05,-2.4816e-05,7.96911e-06,-6.50342e-06,7.23363e-06,6.91089e-06,0
-3.21943e-05,1.17246e-05,-1.50469e-05,-2.60295e-05,8.07525e-06,-1.00636e-05,7.28812e-06,6.73671e-06,0
-3.2e-05,8.21356e-06,-1.7477e-05,-2.72839e-05,7.77478e-06,-1.18042e-05,7.02209e-06,4.90725e-06,0
-3.10297e-05,6.45408e-06,-1.93029e-05,-2.78144e-05,4.91051e-06,-1.28033e-05,5.33623e-06,1.4262e-06,0
-3.07608e-05,5.67532e-06,-2.01875e-05,-2.81343e-05,1.59401e-06,-1.37397e-05,2.48226e-06,-4.15757e-07,0
-3.22312e-05,5.41356e-06,-1.94357e-05,-2.99015e-05,6.30632e-07,-1.41377e-05,1.20755e-06,-5.11677e-07,0
-3.36732e-05,6.03231e-06,-1.8496e-05,-3.03846e-05,2.51162e-06,-1.3769e-05,2.84699e-06,-9.17648e-07,0
-3.36102e-05,7.07703e-06,-1.90264e-05,-2.77398e-05,6.70449e-06,-1.30918e-05,6.42809e-06,-1.94845e-07,0
-3.25701e-05,6.47635e-06,-1.95977e-05,-2.40137e-05,1.14969e-05,-1.22669e-05,8.15599e-06,2.49384e-06,0
-3.16713e-05,6.0086e-06,-1.82351e-05,-2.0843e-05,1.45221e-05,-1.22409e-05,7.4498e-06,3.35252e-06,0
-3.10018e-05,7.39991e-06,-1.65923e-05,-1.6632e-05,1.62697e-05,-1.23143e-05,6.96098e-06,2.17767e-06,0
-3.02185e-05,9.51461e-06,-1.64222e-05,-1.19593e-05,1.73873e-05,-1.21731e-05,9.68061e-06,1.6786e-06,0
-2.97861e-05,9.87804e-06,-1.67732e-05,-7.09527e-06,1.84975e-05,-1.10943e-05,1.50737e-05,2.06175e-06,0
-3.01142e-05,9.46874e-06,-1.59307e-05,-1.40275e-06,1.93877e-05,-8.94479e-06,1.97601e-05,1.66071e-06,0
-3.12172e-05,1.00061e-05,-1.39186e-05,5.76852e-06,1.95914e-05,-7.36638e-06,2.18504e-05,5.2366e-07,0
-3.17929e-05,1.06149e-05,-1.1316e-05,1.25364e-05,1.78689e-05,-7.79705e-06,2.23148e-05,-3.989e-07,0
-3.20446e-05,1.12126e-05,-8.79891e-06,1.50685e-05,1.56754e-05,-9.78288e-06,2.20914e-05,-3.81411e-07,0
-3.23008e-05,1.1394e-05,-8.74325e-06,1.30535e-05,1.43445e-05,-1.04931e-05,2.02692e-05,-8.21674e-08,0
-3.14103e-05,1.24998e-05,-1.0934e-05,8.50482e-06,1.36882e-05,-9.03078e-06,1.70206e-05,-1.12047e-06,0
-2.94321e-05,1.45953e-05,-1.19446e-05,4.1301e-06,1.50075e-05,-7.89095e-06,1.36157e-05,-2.70854e-06,0
-2.80672e-05,1.54616e-05,-1.13451e-05,3.22469e-06,1.60377e-05,-9.93808e-06,9.69742e-06,-2.28767e-06,0
-2.83945e-05,1.50307e-05,-1.09067e-05,5.96962e-06,1.58731e-05,-1.27542e-05,7.53694e-06,3.0961e-07,0
-2.81229e-05,1.42514e-05,-1.09206e-05,7.64512e-06,1.53682e-05,-1.33562e-05,7.87978e-06,1.24658e-06,0
-2.67333e-05,1.2944e-05,-1.09066e-05,3.77332e-06,1.36264e-05,-1.38062e-05,8.23831e-06,1.32366e-06,0
-2.52119e-05,1.17718e-05,-1.18397e-05,-2.72146e-06,1.03679e-05,-1.44493e-05,6.82805e-06,2.0875e-06,0
-2.47395e-05,1.19077e-05,-1.23917e-05,-7.67633e-06,6.46684e-06,-1.37309e-05,5.20535e-06,1.71799e-06,0
-2.71761e-05,1.26687e-05,-1.10783e-05,-1.05443e-05,3.33174e-06,-1.23912e-05,6.19404e-06,6.13176e-07,0
-2.86321e-05,1.30455e-05,-8.91805e-06,-1.41211e-05,1.29911e-06,-1.13794e-05,6.54693e-06,-1.51134e-06,0
-2.81431e-05,1.35693e-05,-5.92471e-06,-1.92892e-05,1.92495e-07,-1.01706e-05,4.99432e-06,-3.02551e-06,0
-2.79798e-05,1.4339e-05,-4.55558e-06,-2.20092e-05,-1.2411e-06,-1.03574e-05,1.92814e-06,-1.84861e-06,0
-2.80116e-05,1.42522e-05,-4.65492e-06,-1.97426e-05,-1.57513e-06,-1.16634e-05,-6.5905e-08,-4.59167e-07,0
-2.84557e-05,1.3351e-05,-3.62115e-06,-1.17178e-05,-7.73856e-07,-1.26335e-05,1.30759e-06,-1.53843e-08,0
-2.90882e-05,1.19188e-05,-1.44885e-06,-4.66142e-06,1.28617e-06,-1.36602e-05,5.70434e-06,6.3329e-07,0
-2.95988e-05,1.02012e-05,-1.6923e-07,-1.08775e-05,3.15858e-06,-1.40209e-05,8.87882e-06,3.89813e-07,0
-2.9923e-05,9.51569e-06,-1.74609e-06,-3.35497e-05,3.61792e-06,-1.28148e-05,8.32081e-06,-1.23687e-06,0
-3.01821e-05,9.74645e-06,-5.06857e-06,-6.01529e-05,4.32064e-06,-1.12125e-05,7.22558e-06,-2.41076e-06,0
-3.06869e-05,9.05353e-06,-6.19884e-06,-7.82987e-05,5.56589e-06,-1.11183e-05,6.99193e-06,-2.84025e-06,0
-3.15654e-05,7.68282e-06,-4.47252e-06,-8.39105e-05,7.42287e-06,-1.09965e-05,7.10275e-06,-2.76346e-06,0
-3.17632e-05,7.38231e-06,-3.02088e-06,-7.4979e-05,8.71152e-06,-1.0046e-05,7.32088e-06,-2.52895e-06,0
-3.11467e-05,8.1255e-06,-2.23044e-06,-4.69113e-05,9.45597e-06,-9.00864e-06,8.70544e-06,-2.50893e-06,0
-3.0762e-05,8.23441e-06,-1.33425e-06,1.6579e-06,1.06569e-05,-9.0962e-06,1.07133e-05,-2.80786e-06,0
-3.02069e-05,7.82758e-06,-2.86168e-06,5.34238e-05,1.26982e-05,-9.72953e-06,1.24984e-05,-3.93528e-06,0
-2.99416e-05,7.88926e-06,-9.92021e-06,8.01212e-05,1.44123e-05,-1.02037e-05,1.26624e-05,-4.98951e-06,0
-3.00283e-05,8.62782e-06,-1.68029e-05,7.64607e-05,1.63604e-05,-9.7584e-06,1.26505e-05,-4.8671e-06,0
-2.80887e-05,1.02369e-05,-1.55541e-05,5.82124e-05,1.79713e-05,-8.52848e-06,1.35975e-05,-4.51293e-06,0
-2.61164e-05,1.14252e-05,-8.77045e-06,3.61069e-05,1.9333e-05,-7.97238e-06,1.45456e-05,-4.11722e-06,0
-2.59404e-05,1.08101e-05,-4.80804e-06,1.89066e-05,1.94372e-05,-7.97363e-06,1.49478e-05,-2.47049e-06,0
-2.83959e-05,9.29718e-06,-7.63888e-06,7.72555e-06,1.97377e-05,-7.70977e-06,1.53408e-05,-3.90775e-08,0
-3.17555e-05,9.82973e-06,-1.22562e-05,9.99694e-07,2.18761e-05,-6.11654e-06,1.59185e-05,2.31247e-06,0
-3.16807e-05,1.23908e-05,-1.36227e-05,3.00791e-06,2.34401e-05,-4.59724e-06,1.54435e-05,3.26949e-06,0
-2.95036e-05,1.33823e-05,-1.13322e-05,1.04008e-05,2.33755e-05,-2.83376e-06,1.43374e-05,1.63659e-06,0
-2.75208e-05,1.31336e-05,-6.33453e-06,1.73473e-05,2.2233e-05,-1.71291e-06,1.3221e-05,-2.90527e-08,0
-2.73678e-05,1.29056e-05,-2.30113e-06,2.12524e-05,2.06262e-05,-3.42017e-06,1.27478e-05,4.23123e-07,0
-2.82546e-05,1.3639e-05,-2.01346e-06,2.00206e-05,1.76948e-05,-6.69606e-06,1.31107e-05,2.22804e-06,0
-2.85192e-05,1.55638e-05,-3.25115e-06,8.59048e-06,1.57775e-05,-8.34165e-06,1.47909e-05,4.23614e-06,0
-2.88508e-05,1.66543e-05,-2.92968e-06,-9.97823e-06,1.5281e-05,-7.63319e-06,1.71713e-05,5.49699e-06,0
-2.82079e-05,1.81131e-05,-1.55417e-06,-2.21938e-05,1.53386e-05,-6.31379e-06,1.78698e-05,3.86435e-06,0
-2.65432e-05,1.93149e-05,-2.20855e-06,-2.18706e-05,1.63483e-05,-5.04317e-06,1.40793e-05,1.69283e-07,0
-2.55739e-05,2.06389e-05,-4.88019e-06,-1.41385e-05,1.8326e-05,-4.72567e-06,2.07078e-07,-1.92763e-06,0
-2.67521e-05,2.19485e-05,-6.21097e-06,-4.81704e-06,2.05258e-05,-4.60853e-06,-1.91489e-05,-1.20219e-06,0
-2.82465e-05,2.19841e-05,-5.4211e-06,4.12493e-06,2.18611e-05,-3.90066e-06,-2.94569e-05,5.77171e-07,0
-2.87172e-05,2.03613e-05,-4.79721e-06,1.02006e-05,2.23275e-05,-2.77738e-06,-2.39425e-05,1.77769e-06,0
-2.97718e-05,1.87659e-05,-5.55029e-06,1.06974e-05,2.11823e-05,-3.01151e-06,-6.93197e-06,2.26829e-06,0
-3.18596e-05,1.82881e-05,-5.7418e-06,5.52191e-06,2.0234e-05,-5.02994e-06,1.17088e-05,1.87674e-06,0
-3.38798e-05,1.68132e-05,-4.64992e-06,-1.67977e-06,2.06881e-05,-6.94236e-06,2.53593e-05,2.27635e-06,0
-3.37765e-05,1.37306e-05,-3.94367e-06,-9.79154e-06,2.06387e-05,-7.02452e-06,3.35798e-05,3.42149e-06,0
-3.19083e-05,1.05241e-05,-4.25764e-06,-1.94845e-05,1.91992e-05,-5.86167e-06,3.91372e-05,3.47641e-06,0
-3.08322e-05,1.03711e-05,-4.55554e-06,-2.78869e-05,1.69319e-05,-5.79998e-06,4.15094e-05,1.60357e-06,0
-3.15241e-05,1.216e-05,-4.26609e-06,-3.01478e-05,1.42519e-05,-6.70231e-06,3.95608e-05,-1.28336e-06,0
-3.23714e-05,1.26462e-05,-2.24083e-06,-2.7937e-05,1.20172e-05,-6.5818e-06,3.54426e-05,-2.97155e-06,0
-3.26262e-05,1.03337e-05,3.18267e-07,-2.59513e-05,1.00708e-05,-5.88644e-06,3.16957e-05,-2.95811e-06,0
-3.17885e-05,7.92241e-06,2.10521e-06,-2.58015e-05,7.39336e-06,-6.2178e-06,2.90023e-05,-3.37137e-06,0
-3.11596e-05,6.66236e-06,3.62556e-06,-2.4588e-05,6.29012e-06,-6.55623e-06,2.4007e-05,-4.53809e-06,0
-3.26055e-05,7.04539e-06,5.53238e-06,-1.93782e-05,6.29757e-06,-7.13273e-06,1.37242e-05,-4.08346e-06,0
-3.39514e-05,7.63145e-06,9.97291e-06,-1.11992e-05,5.59719e-06,-9.20045e-06,4.39618e-06,-2.86493e-06,0
-3.33482e-05,8.1478e-06,1.84323e-05,-4.19772e-06,5.75172e-06,-1.06494e-05,3.42595e-06,-3.62802e-06,0
-3.32876e-05,1.00761e-05,2.99763e-05,-1.32889e-06,7.86176e-06,-9.09264e-06,8.76175e-06,-3.25579e-06,0
-3.33647e-05,1.25917e-05,4.12401e-05,-2.75441e-06,9.72525e-06,-7.34839e-06,1.64565e-05,-1.73473e-07,0
-3.26791e-05,1.53451e-05,4.72045e-05,-7.12406e-06,1.08172e-05,-6.99962e-06,2.50195e-05,3.24125e-06,0
-3.33489e-05,1.64837e-05,4.25108e-05,-1.0208e-05,1.17211e-05,-7.19435e-06,3.42106e-05,6.42663e-06,0
-3.53204e-05,1.46867e-05,2.56129e-05,-1.39561e-05,1.15826e-05,-8.06315e-06,4.56737e-05,7.0905e-06,0
-3.65956e-05,1.21717e-05,9.86828e-07,-1.73248e-05,1.14058e-05,-8.85879e-06,5.55741e-05,4.96514e-06,0
-3.59484e-05,1.25789e-05,-2.26384e-05,-9.02393e-06,1.18864e-05,-7.50376e-06,5.93657e-05,2.78685e-06,0
-3.37429e-05,1.47783e-05,-3.96091e-05,8.83893e-06,1.3315e-05,-5.90944e-06,5.77415e-05,1.72876e-06,0
-3.02425e-05,1.71987e-05,-4.51886e-05,1.72303e-05,1.45429e-05,-6.61243e-06,5.06626e-05,1.39859e-06,0
-2.81716e-05,1.75116e-05,-4.01569e-05,7.56109e-06,1.55231e-05,-8.13085e-06,3.86543e-05,1.53467e-06,0
-2.95692e-05,1.47506e-05,-3.16089e-05,-1.0039e-05,1.65653e-05,-8.81879e-06,2.35989e-05,1.11681e-06,0
-3.20824e-05,1.17735e-05,-2.50304e-05,-2.02277e-05,1.84739e-05,-8.73599e-06,9.44173e-06,9.61043e-07,0
-3.31254e-05,1.10931e-05,-2.12103e-05,-1.75979e-05,2.12509e-05,-8.25615e-06,-8.41633e-07,1.99152e-06,0
-3.29312e-05,1.20734e-05,-1.72452e-05,-6.50719e-06,2.29267e-05,-7.65562e-06,-7.87611e-06,3.53066e-06,0
-3.1981e-05,1.20343e-05,-1.11343e-05,6.55918e-06,2.24464e-05,-7.12142e-06,-1.35254e-05,5.06753e-06,0
-3.11422e-05,1.20606e-05,-3.43053e-06,1.74323e-05,2.02213e-05,-5.60488e-06,-1.62457e-05,6.44519e-06,0
-3.16791e-05,1.42456e-05,3.43015e-06,2.13275e-05,1.7769e-05,-4.12273e-06,-1.44498e-05,7.35146e-06,0
-3.36909e-05,1.69056e-05,7.26782e-06,1.39194e-05,1.60861e-05,-4.51634e-06,-1.03182e-05,7.44055e-06,0
-3.61244e-05,1.93583e-05,4.32565e-06,-9.62236e-07,1.439e-05,-6.48717e-06,-7.5485e-06,6.44413e-06,0
-3.6772e-05,2.14929e-05,-4.67261e-06,-1.37837e-05,1.25865e-05,-7.48911e-06,-7.70516e-06,4.89156e-06,0
-3.4945e-05,2.03427e-05,-1.49154e-05,-1.82836e-05,1.25402e-05,-7.20769e-06,-8.05045e-06,4.55146e-06,0
-3.31112e-05,1.71672e-05,-2.60693e-05,-1.81627e-05,1.2902e-05,-6.66763e-06,-6.66394e-06,4.72895e-06,0
-3.37773e-05,1.54865e-05,-4.05021e-05,-1.82868e-05,1.11442e-05,-5.20363e-06,-3.81723e-06,3.92127e-06,0
-3.62662e-05,1.55374e-05,-5.51292e-05,-1.85963e-05,7.88824e-06,-4.12609e-06,-2.82048e-07,2.8405e-06,0
-3.77453e-05,1.53736e-05,-6.69291e-05,-1.83585e-05,6.98074e-06,-4.24786e-06,2.90713e-06,2.2661e-06,0
-3.79181e-05,1.24588e-05,-7.10164e-05,-1.71545e-05,5.33586e-06,-4.02397e-06,5.05469e-06,1.56981e-06,0
-3.78164e-05,9.3801e-06,-5.98588e-05,-1.34982e-05,4.48692e-06,-3.63053e-06,6.37881e-06,1.98683e-06,0
-3.58327e-05,8.06284e-06,-3.9931e-05,-9.15325e-06,8.20822e-06,-4.4778e-06,6.6294e-06,3.58108e-06,0
-3.25358e-05,5.74433e-06,-2.34528e-05,-1.0328e-05,1.23167e-05,-5.19455e-06,6.48262e-06,4.93365e-06,0
-3.13882e-05,3.8708e-06,-1.39672e-05,-1.90236e-05,1.50493e-05,-3.62178e-06,8.92124e-06,5.15741e-06,0
-3.3022e-05,1.9414e-06,-1.01512e-05,-2.89771e-05,1.64475e-05,-2.54122e-06,1.15388e-05,4.96243e-06,0
-3.35613e-05,-5.05224e-07,-1.03887e-05,-3.48293e-05,1.60115e-05,-2.25576e-06,1.27059e-05,5.19876e-06,0
-3.2278e-05,-7.94986e-08,-1.47951e-05,-3.59612e-05,1.29365e-05,-1.64161e-06,1.27984e-05,4.869e-06,0
-3.14363e-05,3.96916e-06,-2.22882e-05,-3.44021e-05,1.09163e-05,-1.23314e-06,1.09277e-05,4.78642e-06,0
-2.98128e-05,9.1265e-06,-3.06494e-05,-3.18236e-05,1.08575e-05,-2.07693e-06,9.991e-06,4.70353e-06,0
-2.78777e-05,1.30088e-05,-3.48042e-05,-2.53566e-05,1.15268e-05,-3.44995e-06,1.00507e-05,3.12654e-06,0
-2.66962e-05,1.56288e-05,-3.02927e-05,-1.46036e-05,1.1595e-05,-2.84265e-06,1.17305e-05,9.93842e-07,0
-2.61876e-05,1.73588e-05,-1.98354e-05,-2.16238e-06,1.01006e-05,-1.18171e-06,1.56213e-05,-4.31128e-07,0
-2.63164e-05,1.88775e-05,-1.1435e-05,9.52158e-06,8.23523e-06,-6.66674e-07,2.03042e-05,-1.74573e-06,0
-2.67265e-05,2.02697e-05,-9.59393e-06,1.8264e-05,8.2859e-06,-1.38565e-06,2.31744e-05,-1.84465e-06,0
-2.66368e-05,2.17817e-05,-1.17103e-05,2.25933e-05,9.22809e-06,-2.07776e-06,2.36044e-05,-8.9032e-07,0
-2.61296e-05,2.24074e-05,-1.45441e-05,2.35973e-05,8.3349e-06,-4.05794e-06,2.25139e-05,-1.46708e-06,0
-2.64326e-05,2.13853e-05,-1.51811e-05,2.44902e-05,5.88235e-06,-7.18904e-06,2.07214e-05,-3.13889e-06,0
-2.75376e-05,1.99448e-05,-1.2468e-05,2.56071e-05,3.71777e-06,-9.20261e-06,1.87875e-05,-3.92337e-06,0
-2.83716e-05,2.02063e-05,-8.00042e-06,2.32136e-05,2.80701e-06,-9.01396e-06,1.67777e-05,-3.56534e-06,0
-2.83615e-05,2.10648e-05,-4.3979e-06,1.49001e-05,1.49141e-06,-8.71503e-06,1.58766e-05,-3.30107e-06,0
-2.83711e-05,1.97717e-05,-1.1898e-06,4.31759e-06,8.10338e-07,-1.04135e-05,1.53052e-05,-4.05229e-06,0
-2.8464e-05,1.67742e-05,3.3014e-06,-3.92514e-06,6.05157e-07,-1.25256e-05,1.46375e-05,-3.95915e-06,0
-2.90384e-05,1.5442e-05,9.97417e-06,-9.0102e-06,-5.81902e-07,-1.25852e-05,1.44192e-05,-1.76047e-06,0
-2.97135e-05,1.54674e-05,1.9944e-05,-1.23976e-05,-1.10105e-07,-1.20412e-05,1.5947e-05,3.14138e-07,0
-2.99758e-05,1.56579e-05,3.36826e-05,-1.31102e-05,4.54084e-06,-1.14344e-05,1.92692e-05,2.44139e-07,0
-2.95052e-05,1.6912e-05,4.83993e-05,-1.15875e-05,1.0788e-05,-1.03492e-05,2.083e-05,-1.38031e-06,0
-2.83114e-05,1.7266e-05,6.19523e-05,-1.0591e-05,1.53351e-05,-9.06125e-06,1.94088e-05,-1.07309e-06,0
-2.90285e-05,1.70367e-05,6.54064e-05,-1.17437e-05,1.70193e-05,-8.36355e-06,1.27616e-05,4.03382e-07,0
-3.11245e-05,1.57659e-05,5.23102e-05,-1.74932e-05,1.77778e-05,-9.32274e-06,-7.04442e-06,-9.83351e-07,0
-3.19425e-05,1.41927e-05,2.56766e-05,-2.74196e-05,1.85324e-05,-1.10113e-05,-3.45974e-05,-3.24251e-06,0
-3.16096e-05,1.42416e-05,-8.58078e-06,-2.96771e-05,2.14301e-05,-1.1654e-05,-5.37957e-05,-2.60467e-06,0
-3.1647e-05,1.50674e-05,-3.8203e-05,-1.3264e-05,2.84008e-05,-9.93904e-06,-5.52495e-05,-1.70122e-06,0
-3.24137e-05,1.45494e-05,-5.86319e-05,1.16513e-05,3.36565e-05,-8.88207e-06,-4.29102e-05,-3.13546e-06,0
-3.34545e-05,1.20675e-05,-7.03735e-05,2.45649e-05,3.33202e-05,-1.01919e-05,-2.15911e-05,-5.37935e-06,0
-3.35968e-05,8.97521e-06,-7.17658e-05,2.28501e-05,2.95608e-05,-1.17439e-05,8.57248e-06,-6.66298e-06,0
-3.14901e-05,7.45993e-06,-5.94698e-05,1.85353e-05,2.62974e-05,-1.18109e-05,4.21925e-05,-5.67602e-06,0
-2.98448e-05,7.86852e-06,-3.97087e-05,1.6902e-05,2.67281e-05,-1.11167e-05,6.95333e-05,-3.25974e-06,0
-2.97805e-05,7.71571e-06,-2.2346e-05,1.73105e-05,2.89039e-05,-9.95251e-06,8.31671e-05,-2.23738e-06,0
-3.06651e-05,4.94743e-06,-1.06591e-05,1.70054e-05,2.85433e-05,-8.40837e-06,8.33934e-05,-3.45094e-06,0
-3.05975e-05,1.1108e-06,-3.82418e-06,1.72761e-05,2.56537e-05,-8.47434e-06,7.37247e-05,-5.36562e-06,0
-2.93107e-05,9.46949e-07,-1.01838e-07,1.9657e-05,2.29332e-05,-1.0193e-05,5.75775e-05,-6.53581e-06,0
-2.87984e-05,4.20833e-06,1.24747e-06,1.96309e-05,2.12726e-05,-1.20074e-05,3.76582e-05,-5.94878e-06,0
-2.91061e-05,7.70623e-06,2.09628e-06,1.29304e-05,1.94823e-05,-1.26012e-05,1.73893e-05,-4.69763e-06,0
-2.97084e-05,9.89767e-06,1.90101e-06,2.58374e-06,1.82223e-05,-1.30799e-05,-9.23409e-07,-4.23761e-06,0
-2.9979e-05,1.10674e-05,7.9248e-07,-3.94933e-06,1.78676e-05,-1.40884e-05,-1.49419e-05,-4.31425e-06,0
-3.08506e-05,1.13128e-05,1.10745e-06,-6.16081e-06,1.78515e-05,-1.34981e-05,-2.09377e-05,-4.25423e-06,0
-3.1429e-05,1.05022e-05,4.24915e-06,-6.52045e-06,1.86196e-05,-1.18317e-05,-1.66332e-05,-4.26293e-06,0
-3.0757e-05,1.01929e-05,7.68154e-06,-5.1964e-06,1.93822e-05,-1.15595e-05,-6.67046e-06,-3.96598e-06,0
-2.91033e-05,1.21681e-05,8.76057e-06,-4.06313e-06,1.81763e-05,-1.17973e-05,1.04444e-06,-3.56044e-06,0
-2.83568e-05,1.36653e-05,6.27601e-06,-3.71496e-06,1.55172e-05,-1.09677e-05,3.12767e-06,-4.36541e-06,0
-2.8573e-05,1.34178e-05,2.09283e-06,-4.23006e-06,1.40155e-05,-1.05722e-05,3.19325e-06,-4.66511e-06,0
-2.74462e-05,1.23153e-05,-2.78258e-06,-6.51022e-06,1.33379e-05,-1.09763e-05,5.79243e-06,-4.41785e-06,0
-2.55009e-05,9.52361e-06,-6.6476e-06,-9.11147e-06,1.24558e-05,-1.21991e-05,9.96355e-06,-4.46969e-06,0
-2.49458e-05,7.89993e-06,-6.51944e-06,-1.19516e-05,1.27984e-05,-1.38275e-05,1.36346e-05,-3.73898e-06,0
-2.51918e-05,9.98666e-06,-3.60118e-06,-1.24997e-05,1.40817e-05,-1.46763e-05,1.31185e-05,-1.93736e-06,0
-2.49076e-05,1.27166e-05,-1.56689e-06,-1.12954e-05,1.41115e-05,-1.54465e-05,9.43232e-06,1.36085e-07,0
-2.49341e-05,1.38995e-05,-1.54793e-06,-1.0184e-05,1.23581e-05,-1.53174e-05,5.56902e-06,9.79565e-07,0
-2.56335e-05,1.37073e-05,-4.4161e-06,-8.26436e-06,1.07318e-05,-1.49924e-05,2.78906e-06,1.81042e-07,0
-2.6679e-05,1.01658e-05,-7.88616e-06,-6.18073e-06,1.03697e-05,-1.5975e-05,4.80844e-06,-1.29608e-06,0
-2.75101e-05,5.89785e-06,-8.3354e-06,-4.65759e-06,1.01136e-05,-1.72725e-05,1.13367e-05,-1.48341e-06,0
-2.76981e-05,3.18911e-06,-7.60359e-06,-5.21192e-06,1.06592e-05,-1.81775e-05,1.81446e-05,-1.71983e-06,0
-2.80758e-05,2.28923e-06,-8.22246e-06,-7.09341e-06,1.19434e-05,-1.84594e-05,2.12734e-05,-1.87646e-06,0
-2.7949e-05,3.11669e-06,-1.05634e-05,-1.07948e-05,1.17598e-05,-1.85737e-05,2.20985e-05,-1.62669e-06,0
-2.75516e-05,5.61409e-06,-1.27787e-05,-1.38836e-05,1.14905e-05,-1.86955e-05,2.21623e-05,-7.65725e-07,0
-2.85566e-05,7.93508e-06,-1.38305e-05,-1.27128e-05,1.25719e-05,-1.97214e-05,2.10029e-05,3.15006e-07,0
-2.92801e-05,8.81811e-06,-1.26393e-05,-6.91413e-06,1.44349e-05,-2.1016e-05,1.83639e-05,2.93157e-07,0
-2.88646e-05,9.41728e-06,-1.09004e-05,-6.03028e-07,1.62979e-05,-2.21367e-05,1.61757e-05,6.45882e-07,0
-2.87622e-05,9.12857e-06,-8.98741e-06,2.34948e-06,1.76189e-05,-2.24353e-05,1.70935e-05,2.69465e-06,0
-2.97708e-05,9.59636e-06,-7.11191e-06,2.50505e-06,1.69503e-05,-2.1109e-05,2.06293e-05,6.1272e-06,0
-3.0475e-05,1.23155e-05,-6.67618e-06,-1.32817e-07,1.39633e-05,-1.94256e-05,2.34112e-05,7.38439e-06,0
-2.99968e-05,1.51889e-05,-8.01897e-06,-4.86359e-06,1.08245e-05,-1.82697e-05,2.29604e-05,5.85092e-06,0
-2.91059e-05,1.59275e-05,-9.36697e-06,-9.69064e-06,8.74313e-06,-1.74654e-05,2.06921e-05,3.57015e-06,0
-2.93449e-05,1.57575e-05,-8.93415e-06,-1.36568e-05,7.82827e-06,-1.63128e-05,1.74553e-05,2.79707e-06,0
-3.06426e-05,1.47791e-05,-7.37224e-06,-1.82222e-05,7.81783e-06,-1.57731e-05,1.31241e-05,3.65886e-06,0
-3.12194e-05,1.31176e-05,-6.61244e-06,-2.33816e-05,8.19053e-06,-1.64381e-05,7.97592e-06,4.39847e-06,0
-3.01255e-05,1.18898e-05,-7.06392e-06,-2.77925e-05,8.98418e-06,-1.76977e-05,3.91485e-06,3.18297e-06,0
-2.71494e-05,1.25404e-05,-6.31952e-06,-2.89392e-05,8.56829e-06,-1.84477e-05,2.10175e-06,1.74838e-06,0
-2.53311e-05,1.54016e-05,-4.97655e-06,-2.66418e-05,4.48529e-06,-1.76756e-05,2.16269e-06,1.21262e-06,0
-2.7012e-05,1.72859e-05,-4.85775e-06,-2.42451e-05,-4.61074e-07,-1.61976e-05,4.34257e-06,1.88131e-06,0
-2.88293e-05,1.67015e-05,-6.0686e-06,-2.20246e-05,-2.03453e-06,-1.6192e-05,8.54888e-06,3.7601e-06,0
-2.87657e-05,1.81824e-05,-5.77725e-06,-1.86258e-05,-6.34135e-08,-1.52617e-05,9.59746e-06,4.21646e-06,0
-2.83891e-05,2.00486e-05,-3.37628e-06,-1.67061e-05,2.73188e-06,-1.37581e-05,6.99522e-06,3.91611e-06,0
-2.89918e-05,2.0879e-05,-2.06528e-06,-1.55993e-05,6.47458e-06,-1.22886e-05,4.77886e-06,3.8288e-06,0
-2.89524e-05,2.15656e-05,-1.68294e-06,-1.38929e-05,8.98687e-06,-1.07412e-05,4.95627e-06,3.27737e-06,0
-2.84423e-05,2.06609e-05,-2.63985e-07,-1.23791e-05,9.90071e-06,-1.14254e-05,8.01453e-06,2.79371e-06,0
-3.02986e-05,1.81576e-05,4.92834e-07,-9.22909e-06,9.58724e-06,-1.2041e-05,1.25617e-05,4.25787e-06,0
-3.1201e-05,1.27916e-05,1.32472e-07,-3.46541e-06,5.98836e-06,-1.18639e-05,1.5959e-05,7.33135e-06,0
-2.93118e-05,7.39141e-06,1.04553e-07,3.71097e-06,4.96421e-06,-1.0806e-05,1.75229e-05,9.84604e-06,0
-2.84886e-05,2.37426e-06,-9.78045e-07,7.83668e-06,1.00656e-05,-8.83552e-06,1.87871e-05,1.11604e-05,0
-2.98651e-05,-1.57912e-06,-4.68574e-06,5.04477e-06,1.55011e-05,-7.62556e-06,2.06834e-05,1.2004e-05,0
-3.16008e-05,-5.24283e-06,-8.19247e-06,-2.05966e-06,1.56339e-05,-9.24466e-06,2.16515e-05,1.18769e-05,0
-3.24962e-05,-6.44488e-06,-9.12756e-06,-7.20902e-06,1.35676e-05,-1.06125e-05,1.91253e-05,1.07077e-05,0
-3.2781e-05,-3.67833e-06,-8.77575e-06,-5.9238e-06,1.38563e-05,-9.16618e-06,1.5145e-05,7.79456e-06,0
-3.26442e-05,-3.96835e-07,-7.88483e-06,2.44478e-06,1.55618e-05,-6.88806e-06,1.24123e-05,5.2908e-06,0
-3.18113e-05,4.97631e-07,-6.71302e-06,1.31086e-05,1.66402e-05,-6.30842e-06,1.20379e-05,5.10626e-06,0
-3.10212e-05,4.06867e-07,-6.31615e-06,2.15789e-05,1.73112e-05,-7.96217e-06,1.3114e-05,5.11828e-06,0
-3.03694e-05,2.48826e-06,-7.65866e-06,2.60162e-05,1.79268e-05,-1.02459e-05,1.43875e-05,3.96017e-06,0
-3.01797e-05,4.84933e-06,-8.50851e-06,2.58301e-05,1.79373e-05,-1.23961e-05,1.41232e-05,3.55679e-06,0
-3.01076e-05,5.11312e-06,-7.11857e-06,2.15459e-05,1.85081e-05,-1.34192e-05,1.30216e-05,4.80304e-06,0
-2.95557e-05,1.65923e-06,-6.27669e-06,1.39728e-05,2.1017e-05,-1.33175e-05,1.25454e-05,5.93798e-06,0
-2.93048e-05,-1.70162e-06,-7.65538e-06,7.7554e-07,2.35682e-05,-1.32383e-05,1.39796e-05,6.96789e-06,0
-2.99595e-05,-1.45907e-06,-8.88401e-06,-1.71226e-05,2.40399e-05,-1.40228e-05,1.74231e-05,7.43789e-06,0
-3.04374e-05,-3.87504e-08,-9.3687e-06,-3.02251e-05,2.25893e-05,-1.35841e-05,1.95079e-05,6.62192e-06,0
-3.03101e-05,-7.86926e-08,-8.99732e-06,-3.15487e-05,2.12039e-05,-1.11663e-05,1.86942e-05,3.65879e-06,0
-3.13221e-05,1.56242e-06,-8.31671e-06,-2.45003e-05,2.22115e-05,-8.28745e-06,1.59203e-05,4.89824e-07,0
-3.19321e-05,5.04624e-06,-8.33535e-06,-1.68006e-05,2.35749e-05,-6.86718e-06,1.358e-05,-1.2063e-06,0
-3.02236e-05,7.71197e-06,-8.73583e-06,-1.03601e-05,2.25511e-05,-6.00335e-06,1.2558e-05,-1.59877e-06,0
-2.79614e-05,9.26573e-06,-9.56565e-06,-2.94348e-06,2.11834e-05,-6.99756e-06,1.16347e-05,-2.14082e-07,0
-2.77778e-05,1.04246e-05,-1.08923e-05,5.3122e-06,2.12521e-05,-9.93507e-06,1.11356e-05,5.70597e-07,0
-2.75563e-05,1.11632e-05,-1.32315e-05,1.2376e-05,2.28815e-05,-1.21522e-05,1.04252e-05,-1.21453e-06,0
-2.77212e-05,1.0287e-05,-1.4213e-05,1.64744e-05,2.488e-05,-1.47097e-05,9.77883e-06,-3.71281e-06,0
-2.98358e-05,7.88552e-06,-1.51601e-05,1.65116e-05,2.57992e-05,-1.6716e-05,9.29533e-06,-5.24207e-06,0
-3.13666e-05,7.0671e-06,-1.6672e-05,1.5074e-05,2.59538e-05,-1.55044e-05,7.74705e-06,-7.25053e-06,0
-3.17643e-05,9.25538e-06,-1.46965e-05,1.34753e-05,2.44176e-05,-1.26427e-05,7.13363e-06,-9.19984e-06,0
-3.12871e-05,1.20824e-05,-1.00512e-05,1.48685e-05,2.32357e-05,-1.17147e-05,9.20308e-06,-9.93955e-06,0
-3.14187e-05,1.51969e-05,-5.871e-06,2.66564e-05,2.41963e-05,-1.11824e-05,1.181e-05,-9.91796e-06,0
-3.2592e-05,2.18232e-05,-2.83166e-06,4.38519e-05,2.49589e-05,-1.13376e-05,1.22102e-05,-9.12469e-06,0
-3.3166e-05,3.14524e-05,4.32641e-09,5.07352e-05,2.43944e-05,-1.28408e-05,1.18188e-05,-8.83935e-06,0
-3.24823e-05,3.9366e-05,3.3291e-06,4.01701e-05,2.20322e-05,-1.39253e-05,1.24823e-05,-8.22277e-06,0
-3.10535e-05,4.52116e-05,6.44223e-06,1.77987e-05,1.82148e-05,-1.32739e-05,1.41879e-05,-7.10806e-06,0
-2.94807e-05,4.81778e-05,7.01701e-06,-2.81345e-06,1.44755e-05,-1.03983e-05,1.5333e-05,-7.16963e-06,0
-2.80558e-05,4.50475e-05,4.27738e-06,-1.46268e-05,1.21208e-05,-6.6384e-06,1.45954e-05,-8.18305e-06,0
-2.68143e-05,3.42852e-05,-1.45784e-07,-2.14364e-05,1.15747e-05,-4.19136e-06,1.15454e-05,-8.02609e-06,0
-2.618e-05,1.92775e-05,-5.82736e-06,-2.83824e-05,1.05878e-05,-3.04345e-06,7.86526e-06,-6.97574e-06,0
-2.56775e-05,3.26702e-06,-1.33011e-05,-3.65223e-05,7.68861e-06,-1.7164e-06,7.32365e-06,-5.93208e-06,0
-2.51005e-05,-1.1655e-05,-2.03871e-05,-4.37082e-05,5.48011e-06,-1.45952e-06,1.02017e-05,-5.34843e-06,0
-2.4573e-05,-2.15091e-05,-2.29222e-05,-5.02207e-05,6.14986e-06,-2.99635e-06,1.26386e-05,-4.32306e-06,0
-2.36136e-05,-2.42299e-05,-1.90077e-05,-5.70082e-05,7.44372e-06,-3.61015e-06,1.34963e-05,-2.36899e-06,0
-2.3447e-05,-2.18387e-05,-1.0343e-05,-5.96401e-05,6.88715e-06,-2.95232e-06,1.5079e-05,-1.89469e-06,0
-2.57649e-05,-1.66624e-05,-2.98939e-07,-5.09252e-05,4.94877e-06,-3.62118e-06,1.62783e-05,-3.23543e-06,0
-2.89902e-05,-1.17126e-05,8.25482e-06,-3.11943e-05,3.12094e-06,-5.5258e-06,1.36765e-05,-3.98886e-06,0
-3.04895e-05,-8.12378e-06,1.57212e-05,-9.32832e-06,2.00723e-06,-7.05396e-06,9.83002e-06,-1.62835e-06,0
-3.15756e-05,-3.73109e-06,2.12814e-05,6.5063e-06,9.24923e-07,-6.13631e-06,9.78573e-06,1.5832e-06,0
-3.2437e-05,1.99943e-06,2.03173e-05,1.43447e-05,6.19393e-07,-4.02738e-06,1.17837e-05,2.65147e-06,0
-3.19546e-05,7.74867e-06,8.02956e-06,1.26351e-05,1.124e-06,-4.00117e-06,1.27115e-05,1.32343e-06,0
-3.06526e-05,1.03215e-05,-1.31942e-05,7.78182e-06,9.52109e-07,-4.74368e-06,1.39749e-05,1.83789e-06,0
-3.03479e-05,9.51078e-06,-3.76071e-05,5.7131e-06,7.62508e-07,-5.03216e-06,1.52075e-05,4.70393e-06,0
-3.15411e-05,8.97173e-06,-6.01699e-05,4.02877e-06,2.11264e-06,-5.90371e-06,1.56198e-05,5.98807e-06,0
-3.2215e-05,9.96896e-06,-7.27226e-05,3.48985e-06,4.40794e-06,-7.11841e-06,1.66626e-05,5.41775e-06,0
-3.26558e-05,1.14002e-05,-7.18017e-05,5.02415e-06,6.17125e-06,-8.11762e-06,1.69047e-05,4.48019e-06,0
-3.27376e-05,1.3723e-05,-6.45713e-05,5.96237e-06,6.25561e-06,-7.13562e-06,1.67187e-05,3.30726e-06,0
-3.30208e-05,1.52296e-05,-5.85461e-05,4.04959e-06,5.97979e-06,-4.40693e-06,1.69388e-05,2.57627e-06,0
-3.47261e-05,1.56853e-05,-5.48569e-05,2.05817e-06,5.61294e-06,-1.15678e-06,1.65376e-05,4.29122e-06,0
-3.54666e-05,1.66453e-05,-5.09594e-05,9.67275e-07,3.66314e-06,8.05197e-07,1.50865e-05,6.38048e-06,0
-3.36252e-05,1.78041e-05,-4.23804e-05,-3.06601e-06,2.13743e-06,7.0332e-07,1.22206e-05,6.67751e-06,0
-3.28658e-05,1.89056e-05,-3.08671e-05,-1.25893e-05,2.50531e-06,-2.12678e-07,9.00155e-06,6.47571e-06,0
-3.39652e-05,1.98929e-05,-2.00824e-05,-2.25917e-05,3.42502e-06,-2.08977e-06,6.84139e-06,6.45013e-06,0
-3.41923e-05,2.23583e-05,-1.17834e-05,-2.59677e-05,3.05004e-06,-4.20104e-06,7.06684e-06,6.68459e-06,0
-3.36464e-05,2.67234e-05,-6.84114e-06,-2.19394e-05,1.5457e-06,-4.95179e-06,9.24975e-06,6.95245e-06,0
-3.37368e-05,3.05049e-05,-5.16234e-06,-1.51152e-05,-5.0571e-07,-4.53617e-06,1.15344e-05,6.06433e-06,0
-3.45108e-05,3.09625e-05,-5.52504e-06,-9.92091e-06,-2.04114e-06,-5.4209e-06,1.36171e-05,4.03459e-06,0
-3.41772e-05,2.92764e-05,-5.35109e-06,-7.05905e-06,-1.12434e-07,-7.99587e-06,1.62947e-05,3.18992e-06,0
-3.22034e-05,2.78946e-05,-3.45214e-06,-5.13228e-06,5.33327e-06,-1.05256e-05,1.84332e-05,3.6365e-06,0
-2.99179e-05,2.70455e-05,-4.94708e-07,-2.54828e-06,1.06245e-05,-1.12218e-05,1.82861e-05,2.97662e-06,0
-2.99673e-05,2.55245e-05,1.90868e-06,9.76908e-07,1.28342e-05,-9.99416e-06,1.77813e-05,1.36567e-06,0
-3.16845e-05,2.33247e-05,3.26285e-06,3.65842e-06,1.26699e-05,-8.18605e-06,1.7948e-05,9.88623e-07,0
-3.14044e-05,2.30623e-05,3.23346e-06,3.1211e-06,1.30241e-05,-7.11961e-06,1.73935e-05,1.09994e-06,0
-2.84974e-05,2.41161e-05,3.06808e-06,-9.66221e-08,1.50427e-05,-7.73275e-06,1.51478e-05,5.80693e-07,0
-2.61412e-05,2.27602e-05,3.58141e-06,-2.00431e-06,1.75864e-05,-9.50191e-06,1.26817e-05,4.55927e-07,0
-2.60997e-05,1.79378e-05,3.23757e-06,8.70066e-07,1.92288e-05,-1.13374e-05,1.13736e-05,-6.31375e-07,0
-2.86281e-05,1.12711e-05,1.95819e-06,4.9956e-06,1.96592e-05,-1.37028e-05,1.05536e-05,-1.20049e-07,0
-3.10101e-05,5.63562e-06,-2.12536e-08,4.14523e-06,1.68901e-05,-1.59004e-05,1.195e-05,1.49736e-06,0
-3.10872e-05,4.85609e-06,-1.77129e-06,5.64769e-07,1.1845e-05,-1.64094e-05,1.28977e-05,1.51951e-06,0
-3.10234e-05,1.01583e-05,-1.35008e-06,-9.1084e-07,7.90638e-06,-1.61822e-05,1.23696e-05,2.64445e-06,0
-3.10752e-05,1.87764e-05,1.35669e-07,-5.12124e-07,7.0837e-06,-1.59852e-05,1.15144e-05,5.03228e-06,0
-3.10341e-05,2.4209e-05,2.12433e-06,-9.67177e-07,1.05113e-05,-1.4166e-05,1.08779e-05,6.37301e-06,0
-3.29589e-05,2.37696e-05,3.60089e-06,-2.9416e-06,1.38403e-05,-1.22196e-05,1.13431e-05,6.98049e-06,0
-3.46739e-05,2.17566e-05,4.48952e-06,-5.08654e-06,1.34875e-05,-1.14014e-05,9.97783e-06,8.2438e-06,0
-3.40158e-05,2.16943e-05,6.47044e-06,-7.10112e-06,1.04579e-05,-1.10183e-05,8.3178e-06,8.6825e-06,0
-3.40539e-05,2.48765e-05,9.30074e-06,-8.80958e-06,7.98594e-06,-9.38051e-06,7.7778e-06,8.31616e-06,0
-3.5162e-05,2.77182e-05,1.0939e-05,-1.08142e-05,7.56252e-06,-6.79979e-06,8.64648e-06,7.78986e-06,0
-3.59681e-05,2.91187e-05,1.05948e-05,-1.20459e-05,9.46916e-06,-5.04956e-06,9.44242e-06,6.73924e-06,0
-3.54851e-05,2.94392e-05,9.85382e-06,-9.96309e-06,1.38044e-05,-4.28408e-06,8.72557e-06,6.0489e-06,0
-3.39455e-05,2.77644e-05,8.23551e-06,-5.6193e-06,2.00694e-05,-5.5067e-06,8.51032e-06,5.57038e-06,0
-3.19303e-05,2.58374e-05,5.62375e-06,-2.16988e-06,2.6196e-05,-6.92222e-06,9.70548e-06,4.91633e-06,0
-3.16471e-05,2.50432e-05,3.2914e-06,-6.61745e-07,2.86812e-05,-6.78986e-06,1.01589e-05,4.4143e-06,0
-3.28358e-05,2.56888e-05,3.09381e-06,-1.52944e-06,2.61762e-05,-4.59936e-06,9.42628e-06,4.43299e-06,0
-3.33887e-05,2.6837e-05,5.67073e-06,-3.31916e-06,2.17776e-05,-2.75404e-06,9.66317e-06,5.18405e-06,0
-3.34708e-05,2.8002e-05,8.72457e-06,-4.36291e-06,1.97935e-05,-2.7795e-06,1.20912e-05,5.5846e-06,0
-3.34469e-05,2.85459e-05,9.16635e-06,-4.52425e-06,1.98598e-05,-3.7826e-06,1.51026e-05,4.25381e-06,0
-3.31692e-05,2.84442e-05,7.32004e-06,-4.50286e-06,1.97154e-05,-3.97045e-06,1.5713e-05,1.40681e-06,0
-3.23693e-05,2.83759e-05,5.23123e-06,-4.82276e-06,1.87087e-05,-4.09405e-06,1.48802e-05,-6.24802e-07,0
-3.10151e-05,2.84425e-05,4.30794e-06,-4.12285e-06,1.67441e-05,-4.72947e-06,1.42626e-05,-1.04218e-06,0
-2.9636e-05,2.66443e-05,3.54014e-06,-3.31795e-06,1.36196e-05,-4.79542e-06,1.43742e-05,-1.77134e-06,0
-2.84836e-05,2.24742e-05,1.30178e-06,-3.69051e-06,1.09523e-05,-4.63472e-06,1.49101e-05,-3.15032e-06,0
-2.75978e-05,1.86784e-05,-2.53948e-06,-3.37974e-06,1.127e-05,-4.76893e-06,1.54004e-05,-3.54546e-06,0
-2.73985e-05,1.7172e-05,-7.59254e-06,-1.85085e-06,1.20861e-05,-4.95881e-06,1.49911e-05,-3.54708e-06,0
-2.64395e-05,1.48563e-05,-1.00707e-05,-5.00767e-07,1.10475e-05,-4.94318e-06,1.45972e-05,-4.10428e-06,0
-2.62759e-05,1.20409e-05,-1.03424e-05,1.02584e-06,1.21826e-05,-4.42499e-06,1.54283e-05,-4.40509e-06,0
-2.79983e-05,1.27409e-05,-1.25657e-05,1.03401e-06,1.53885e-05,-4.01597e-06,1.72017e-05,-4.59729e-06,0
-2.92153e-05,1.47191e-05,-1.8982e-05,-2.08923e-06,1.6632e-05,-4.71372e-06,1.84824e-05,-4.38634e-06,0
-2.92677e-05,1.60802e-05,-2.70938e-05,-6.23308e-06,1.49463e-05,-4.17493e-06,1.69621e-05,-2.87107e-06,0
-3.00117e-05,1.80861e-05,-3.25874e-05,-8.52988e-06,1.358e-05,-2.81086e-06,8.54636e-06,-2.06278e-06,0
-3.22671e-05,1.87574e-05,-3.27003e-05,-9.69765e-06,1.32169e-05,-2.12362e-06,-5.32795e-06,-1.71908e-06,0
-3.39771e-05,1.6612e-05,-2.68015e-05,-1.18583e-05,1.31706e-05,-2.77922e-06,-1.39325e-05,-1.8574e-06,0
-3.1958e-05,1.43599e-05,-1.93557e-05,-1.31899e-05,1.34889e-05,-4.96722e-06,-1.14244e-05,-3.10612e-06,0
-2.94106e-05,1.38472e-05,-1.45712e-05,-1.32888e-05,1.50447e-05,-7.33966e-06,-3.44336e-06,-3.03677e-06,0
-2.86434e-05,1.31352e-05,-1.27976e-05,-1.33931e-05,1.75045e-05,-7.67327e-06,-2.75419e-06,-7.36333e-07,0
-2.84047e-05,1.05345e-05,-1.18658e-05,-1.31301e-05,1.91534e-05,-7.03508e-06,-1.21462e-05,1.80272e-06,0
-2.78404e-05,7.90145e-06,-1.14288e-05,-1.3439e-05,1.88639e-05,-6.3761e-06,-1.77083e-05,1.83404e-06,0
-2.59967e-05,7.02164e-06,-1.16979e-05,-1.39898e-05,1.72152e-05,-6.27234e-06,-9.93242e-06,9.55559e-07,0
-2.40158e-05,8.07945e-06,-1.26018e-05,-1.39068e-05,1.56558e-05,-6.61705e-06,6.21181e-06,5.95956e-07,0
-2.31654e-05,9.32805e-06,-1.34248e-05,-1.22666e-05,1.42092e-05,-7.17002e-06,2.18225e-05,9.01095e-07,0
-2.40588e-05,9.71201e-06,-1.44466e-05,-8.75403e-06,1.38483e-05,-8.6569e-06,3.47597e-05,1.66848e-06,0
-2.53304e-05,9.20207e-06,-1.52525e-05,-5.01188e-06,1.32413e-05,-1.03935e-05,4.46559e-05,1.95775e-06,0
-2.66398e-05,6.85251e-06,-1.47736e-05,-3.24286e-06,1.26553e-05,-1.07929e-05,4.88723e-05,2.16148e-06,0
-2.80118e-05,3.47925e-06,-1.31904e-05,-3.48499e-06,1.2353e-05,-9.82157e-06,4.71846e-05,2.96148e-06,0
-2.90474e-05,8.58455e-07,-8.81877e-06,-3.42143e-06,1.19274e-05,-1.00349e-05,4.18029e-05,3.69954e-06,0
-2.84944e-05,-1.7713e-06,-1.16812e-06,-2.28782e-06,1.15759e-05,-1.17633e-05,3.55724e-05,3.9137e-06,0
-2.75203e-05,-3.39625e-06,9.78326e-06,-2.1596e-06,1.17001e-05,-1.4014e-05,3.0535e-05,3.22511e-06,0
-2.76509e-05,-2.56903e-06,2.23305e-05,-4.40389e-06,1.1271e-05,-1.48564e-05,2.82339e-05,2.66801e-06,0
-2.73002e-05,-2.38143e-06,3.41463e-05,-6.17798e-06,1.03905e-05,-1.48725e-05,2.80395e-05,3.89617e-06,0
-2.66556e-05,-2.91659e-06,4.5836e-05,-3.89269e-06,1.06282e-05,-1.60908e-05,2.81515e-05,5.21567e-06,0
-2.70676e-05,-2.47765e-06,5.09162e-05,-1.30415e-07,1.25057e-05,-1.72608e-05,2.62074e-05,6.12285e-06,0
-2.77415e-05,-2.24535e-06,4.07072e-05,-1.96529e-06,1.44524e-05,-1.58284e-05,2.15508e-05,6.28275e-06,0
-2.83621e-05,-2.00162e-06,1.28909e-05,-9.80228e-06,1.67663e-05,-1.29666e-05,1.64193e-05,4.7849e-06,0
-2.83798e-05,-2.41135e-06,-2.45838e-05,-2.29805e-05,1.7281e-05,-1.09765e-05,1.14851e-05,2.75054e-06,0
-2.78402e-05,-3.09828e-06,-5.66089e-05,-4.03504e-05,1.46687e-05,-9.89423e-06,5.90523e-06,1.89517e-06,0
-2.61795e-05,-3.93548e-06,-7.40135e-05,-5.08826e-05,1.14677e-05,-7.59385e-06,1.91179e-06,1.00728e-06,0
-2.43286e-05,-5.81437e-06,-7.18625e-05,-4.03636e-05,9.79837e-06,-4.08104e-06,1.04913e-07,1.81071e-07,0
-2.51059e-05,-7.50871e-06,-5.94769e-05,-1.4689e-05,1.09688e-05,-1.54837e-06,-4.00469e-06,6.74247e-07,0
-2.66782e-05,-7.71195e-06,-4.92587e-05,2.79152e-06,1.10198e-05,-2.5774e-06,-1.02372e-05,8.51512e-07,0
-2.74209e-05,-6.27959e-06,-4.34141e-05,4.75778e-06,1.09877e-05,-5.24008e-06,-1.45638e-05,-1.19755e-06,0
-2.92728e-05,-4.69597e-06,-3.55533e-05,2.0936e-06,1.23666e-05,-6.63026e-06,-1.42144e-05,-3.38651e-06,0
-3.12208e-05,-3.27088e-06,-2.25587e-05,1.61947e-06,1.4149e-05,-6.17247e-06,-8.90284e-06,-2.7835e-06,0
-3.13359e-05,-1.00887e-06,-1.10305e-05,7.48185e-06,1.40089e-05,-5.80508e-06,-2.40329e-06,-9.83136e-07,0
-3.05078e-05,1.75331e-06,-3.42537e-06,1.99365e-05,1.19072e-05,-6.78443e-06,2.68437e-06,8.70457e-07,0
-2.99162e-05,4.10026e-06,1.14686e-06,2.94329e-05,1.029e-05,-6.84995e-06,6.60182e-06,1.34342e-06,0
-3.01468e-05,6.13046e-06,2.71367e-06,2.8617e-05,1.01615e-05,-6.74431e-06,1.10853e-05,4.6853e-07,0
-3.09099e-05,7.67995e-06,2.37366e-07,2.25681e-05,1.13838e-05,-6.89372e-06,1.54326e-05,-4.74971e-07,0
-3.28844e-05,7.50747e-06,-2.77347e-06,2.03034e-05,1.21522e-05,-7.1527e-06,1.79375e-05,-5.18716e-08,0
-3.47912e-05,4.99245e-06,-3.35315e-06,2.15925e-05,1.10168e-05,-7.06456e-06,1.94219e-05,4.37251e-07,0
-3.54311e-05,1.8838e-06,-2.4427e-06,2.18725e-05,9.27324e-06,-6.679e-06,2.328e-05,-1.43945e-06,0
-3.45515e-05,1.02621e-06,-1.04828e-06,1.96831e-05,8.93743e-06,-6.055e-06,3.16116e-05,-4.27265e-06,0
-3.39866e-05,3.7539e-06,4.59053e-07,1.73358e-05,9.2733e-06,-6.59677e-06,4.09478e-05,-5.0125e-06,0
-3.45848e-05,7.39683e-06,2.34614e-07,1.57126e-05,7.87888e-06,-8.37905e-06,4.60308e-05,-4.01534e-06,0
-3.41467e-05,8.18118e-06,-2.53015e-06,1.43903e-05,4.75735e-06,-8.9956e-06,4.53805e-05,-3.61881e-06,0
-3.24657e-05,5.93416e-06,-7.70138e-06,1.22294e-05,3.34019e-06,-7.38805e-06,4.06137e-05,-2.38571e-06,0
-3.16073e-05,4.11267e-06,-1.25346e-05,6.4834e-06,2.87515e-06,-5.69036e-06,3.30845e-05,-7.43657e-07,0
-3.01976e-05,5.26684e-06,-1.29544e-05,-6.0738e-06,1.8313e-06,-5.81184e-06,2.35818e-05,-3.48485e-07,0
-2.84096e-05,8.43798e-06,-9.97235e-06,-2.12423e-05,1.34249e-06,-8.0024e-06,1.27875e-05,-9.77192e-07,0
-2.8926e-05,9.41249e-06,-7.60428e-06,-3.1676e-05,7.46745e-07,-9.30508e-06,1.99457e-06,-1.47793e-06,0
-3.13159e-05,8.53984e-06,-7.92193e-06,-3.39347e-05,-1.87105e-06,-9.71496e-06,-9.92852e-06,-3.37654e-08,0
-3.20488e-05,8.44312e-06,-9.74355e-06,-2.93324e-05,-4.80957e-06,-1.00569e-05,-1.86286e-05,1.15664e-06,0
-3.07111e-05,8.23375e-06,-9.75498e-06,-2.38969e-05,-5.78193e-06,-9.0205e-06,-1.95544e-05,2.38844e-06,0
-3.19973e-05,1.04135e-05,-8.31616e-06,-2.13408e-05,-3.55463e-06,-8.74649e-06,-1.60634e-05,3.97759e-06,0
-3.39387e-05,1.62398e-05,-8.97182e-06,-2.17744e-05,-7.31556e-07,-1.00139e-05,-1.09562e-05,3.57612e-06,0
-3.45931e-05,2.12549e-05,-1.16383e-05,-2.62739e-05,3.31172e-07,-1.11969e-05,-5.47518e-06,4.23523e-06,0
-3.23128e-05,2.26009e-05,-1.35329e-05,-3.72688e-05,8.44985e-07,-1.03184e-05,-1.37471e-06,4.68585e-06,0
-2.95894e-05,2.36435e-05,-1.31714e-05,-5.18417e-05,2.33633e-06,-9.25049e-06,3.34725e-07,4.67836e-06,0
-3.02698e-05,2.57164e-05,-1.28545e-05,-6.41429e-05,4.76252e-06,-8.49066e-06,1.35629e-06,5.09997e-06,0
-3.18141e-05,2.66192e-05,-1.20826e-05,-6.87359e-05,4.99611e-06,-7.56334e-06,4.17416e-06,5.93801e-06,0
-3.24248e-05,2.65157e-05,-1.01075e-05,-6.40854e-05,3.78803e-06,-6.08406e-06,8.3101e-06,4.68232e-06,0
-3.21239e-05,2.50487e-05,-6.96352e-06,-5.14077e-05,5.7218e-06,-4.76074e-06,1.04175e-05,2.10457e-06,0
-3.14553e-05,2.22724e-05,-4.52331e-06,-3.18643e-05,1.02509e-05,-5.22322e-06,9.95754e-06,1.1031e-06,0
-3.09365e-05,2.01684e-05,-3.12461e-06,-6.94128e-06,1.19826e-05,-7.10753e-06,7.53926e-06,4.76812e-07,0
-3.11315e-05,1.91401e-05,-2.62548e-06,2.05547e-05,1.01781e-05,-8.45735e-06,4.32337e-06,-4.72496e-07,0
-3.0962e-05,1.79233e-05,-3.60675e-06,4.42096e-05,8.23694e-06,-9.10039e-06,3.72553e-06,-2.43864e-06,0
-3.10306e-05,1.57287e-05,-4.98391e-06,5.18244e-05,8.77582e-06,-1.00787e-05,6.60174e-06,-3.42027e-06,0
-3.22512e-05,1.3198e-05,-5.70504e-06,3.90162e-05,1.09513e-05,-9.76175e-06,1.02042e-05,-3.35513e-06,0
-3.34765e-05,1.2416e-05,-5.9748e-06,1.69328e-05,1.21634e-05,-8.27814e-06,1.19672e-05,-3.11377e-06,0
-3.32428e-05,1.56711e-05,-6.24573e-06,-3.36112e-06,1.14976e-05,-7.7342e-06,1.27772e-05,-2.4103e-06,0
-3.12297e-05,2.13122e-05,-4.9417e-06,-1.81395e-05,1.03144e-05,-9.67078e-06,1.35883e-05,-4.25955e-08,0
-2.84956e-05,2.557e-05,-3.49821e-06,-2.62591e-05,1.0841e-05,-1.23864e-05,1.33871e-05,2.37071e-06,0
-2.74971e-05,2.82543e-05,-3.10135e-06,-2.64114e-05,1.33179e-05,-1.39642e-05,1.15067e-05,4.46342e-06,0
-2.8337e-05,3.26318e-05,-4.49163e-06,-1.41483e-05,1.66357e-05,-1.54373e-05,9.47045e-06,6.39299e-06,0
-2.89262e-05,4.03542e-05,-5.88392e-06,1.37146e-05,2.05844e-05,-1.67982e-05,8.36794e-06,7.16148e-06,0
-2.80158e-05,4.62762e-05,-6.09921e-06,4.54597e-05,2.34203e-05,-1.74462e-05,8.60055e-06,7.1452e-06,0
-2.72898e-05,4.6823e-05,-5.10632e-06,6.61186e-05,2.47494e-05,-1.82086e-05,1.31371e-05,7.56181e-06,0
-2.78264e-05,4.22947e-05,-3.03816e-06,7.01885e-05,2.39649e-05,-1.79567e-05,1.83989e-05,7.96927e-06,0
-2.73655e-05,3.65793e-05,-1.38549e-06,6.58117e-05,2.26343e-05,-1.5686e-05,2.09288e-05,7.982e-06,0
-2.72044e-05,3.18286e-05,-1.19545e-06,5.71843e-05,2.20836e-05,-1.40229e-05,2.55757e-05,7.70837e-06,0
-2.91689e-05,2.47609e-05,-2.29589e-06,3.89917e-05,2.0215e-05,-1.44392e-05,3.42379e-05,7.60669e-06,0
-3.0471e-05,1.61749e-05,-1.98863e-06,1.92254e-05,1.7949e-05,-1.48963e-05,4.47918e-05,6.49627e-06,0
-2.99309e-05,6.5336e-06,-4.37142e-07,8.22092e-06,1.61278e-05,-1.49215e-05,5.35194e-05,4.43766e-06,0
-2.96849e-05,-9.07964e-07,4.39901e-08,2.29256e-06,1.54484e-05,-1.51667e-05,5.86501e-05,3.80833e-06,0
-2.98296e-05,-3.37389e-06,-5.40557e-07,-4.35017e-06,1.47446e-05,-1.58926e-05,5.93183e-05,3.78806e-06,0
-3.05463e-05,-1.17912e-06,-2.5959e-06,-8.40368e-06,1.42033e-05,-1.56636e-05,5.45503e-05,3.19139e-06,0
-3.13862e-05,3.05437e-06,-5.08305e-06,-1.06774e-05,1.37545e-05,-1.40019e-05,4.53679e-05,1.81322e-06,0
-3.16146e-05,5.56751e-06,-5.07668e-06,-1.20188e-05,1.235e-05,-1.37865e-05,3.28062e-05,2.05204e-07,0
-3.23136e-05,7.70171e-06,-4.5048e-06,-1.10368e-05,1.14843e-05,-1.49332e-05,1.71006e-05,-2.07383e-07,0
-3.26697e-05,1.12095e-05,-5.70822e-06,-9.42948e-06,1.23454e-05,-1.5916e-05,-8.66482e-07,-2.48134e-07,0
-3.20401e-05,1.5587e-05,-6.86526e-06,-8.09482e-06,1.36875e-05,-1.59976e-05,-1.74156e-05,-2.1529e-06,0
-3.16327e-05,1.92812e-05,-6.50239e-06,-7.60131e-06,1.43154e-05,-1.52231e-05,-2.90569e-05,-4.44698e-06,0
-3.16481e-05,2.0977e-05,-6.068e-06,-8.24015e-06,1.52389e-05,-1.54716e-05,-3.42203e-05,-5.31783e-06,0
-3.16863e-05,2.0981e-05,-6.46195e-06,-1.03076e-05,1.79685e-05,-1.74062e-05,-3.2294e-05,-4.65053e-06,0
-3.17569e-05,2.18446e-05,-6.92259e-06,-1.24917e-05,2.1556e-05,-1.83307e-05,-2.38776e-05,-4.27564e-06,0
-3.13308e-05,2.41542e-05,-7.74886e-06,-1.37588e-05,2.29288e-05,-1.65905e-05,-1.25304e-05,-4.28506e-06,0
-3.026e-05,2.55716e-05,-8.82147e-06,-1.26162e-05,2.13927e-05,-1.34824e-05,-2.93091e-06,-4.39652e-06,0
-2.93992e-05,2.52475e-05,-8.81521e-06,-1.05078e-05,1.85874e-05,-1.2189e-05,2.10751e-06,-4.81611e-06,0
-2.96501e-05,2.53598e-05,-8.1816e-06,-9.82052e-06,1.59992e-05,-1.2868e-05,4.19194e-06,-4.99469e-06,0
-3.00522e-05,2.56822e-05,-7.7843e-06,-1.02867e-05,1.30813e-05,-1.2698e-05,7.32318e-06,-4.22328e-06,0
-2.96265e-05,2.56179e-05,-7.05601e-06,-1.00217e-05,1.0659e-05,-1.20503e-05,1.16862e-05,-2.45632e-06,0
-2.90965e-05,2.51128e-05,-6.38314e-06,-3.30113e-06,1.12805e-05,-1.12728e-05,1.43434e-05,-9.89684e-07,0
-2.86847e-05,2.35683e-05,-6.28012e-06,1.20835e-05,1.40203e-05,-9.36638e-06,1.54689e-05,2.9739e-07,0
-2.87111e-05,1.98744e-05,-7.04784e-06,2.27077e-05,1.46167e-05,-7.0406e-06,1.60195e-05,1.55234e-06,0
-2.92471e-05,1.72016e-05,-9.26686e-06,1.67823e-05,1.4017e-05,-5.92907e-06,1.8077e-05,1.49097e-06,0
-2.86796e-05,1.60374e-05,-1.08625e-05,-8.09194e-07,1.69258e-05,-5.83464e-06,2.38071e-05,2.69677e-06,0
-2.7148e-05,1.20452e-05,-1.05222e-05,-1.96199e-05,2.22336e-05,-5.77616e-06,2.94616e-05,3.87214e-06,0
-2.62823e-05,8.84952e-06,-6.82555e-06,-3.35624e-05,2.42355e-05,-4.57489e-06,3.16675e-05,2.07986e-06,0
-2.60416e-05,7.9936e-06,1.00881e-06,-4.23986e-05,2.34291e-05,-4.28676e-06,2.98856e-05,-7.74752e-07,0
-2.65957e-05,7.87349e-06,6.78836e-06,-4.48443e-05,2.20331e-05,-5.79401e-06,2.60115e-05,-1.55842e-06,0
-2.73216e-05,7.37425e-06,6.42422e-06,-4.33932e-05,1.88857e-05,-6.77013e-06,2.1887e-05,-4.50178e-07,0
-2.89747e-05,5.55271e-06,1.80496e-06,-4.45912e-05,1.616e-05,-7.08917e-06,1.88001e-05,2.02141e-07,0
-3.07587e-05,2.40784e-06,-3.53507e-06,-5.26701e-05,1.55039e-05,-5.96195e-06,1.57035e-05,2.11487e-06,0
-3.07519e-05,-1.93488e-06,-8.53967e-06,-6.37382e-05,1.58405e-05,-3.58455e-06,1.19498e-05,3.62765e-06,0
-2.87172e-05,-6.2562e-06,-1.37133e-05,-6.29803e-05,1.49641e-05,-2.38552e-06,8.56419e-06,2.10952e-06,0
-2.74637e-05,-8.59602e-06,-1.91344e-05,-4.11342e-05,1.4898e-05,-3.85413e-06,7.15469e-06,-1.5025e-06,0
-2.83608e-05,-8.56403e-06,-2.73946e-05,-9.24952e-06,1.73191e-05,-6.27175e-06,9.33748e-06,-4.13437e-06,0
-2.9269e-05,-8.81302e-06,-3.69039e-05,1.36378e-05,1.98326e-05,-7.54754e-06,1.15357e-05,-5.29384e-06,0
-2.98147e-05,-9.00774e-06,-3.98891e-05,2.11321e-05,2.11949e-05,-7.036e-06,1.06388e-05,-4.67654e-06,0
-3.03238e-05,-6.94904e-06,-3.42898e-05,1.89081e-05,2.20508e-05,-5.62452e-06,9.0242e-06,-1.54385e-06,0
-3.15933e-05,-3.83949e-06,-2.76934e-05,1.31096e-05,2.24222e-05,-5.13653e-06,1.01119e-05,1.32778e-06,0
-3.25529e-05,-2.22529e-06,-2.44046e-05,7.01823e-06,2.27471e-05,-6.94465e-06,1.35755e-05,2.33259e-06,0
-3.29693e-05,-2.23841e-06,-2.19781e-05,1.83025e-06,2.41178e-05,-8.94808e-06,1.74959e-05,2.97458e-06,0
-3.27621e-05,-2.35797e-06,-1.74757e-05,-2.11872e-06,2.61725e-05,-8.51847e-06,2.0571e-05,3.87861e-06,0
-3.25611e-05,-2.11691e-06,-1.21568e-05,-3.86626e-06,2.79995e-05,-7.12161e-06,2.06708e-05,3.89915e-06,0
-3.19682e-05,-3.22149e-06,-9.15738e-06,-2.8101e-06,2.8014e-05,-6.93032e-06,1.74601e-05,2.45429e-06,0
-3.10126e-05,-5.96464e-06,-8.04532e-06,-8.33426e-07,2.49278e-05,-7.28539e-06,1.53208e-05,6.09979e-07,0
-3.04818e-05,-8.41277e-06,-6.76697e-06,-2.5272e-07,2.02921e-05,-5.85137e-06,1.54209e-05,-3.90377e-07,0
-2.97786e-05,-7.97941e-06,-4.63408e-06,-1.0041e-06,1.60428e-05,-3.86771e-06,1.68175e-05,-9.71925e-08,0
-2.96322e-05,-5.79164e-06,-2.1789e-06,-3.59512e-06,1.20088e-05,-2.97189e-06,1.90041e-05,2.2392e-07,0
-3.14017e-05,-5.48459e-06,-5.40664e-07,-7.49677e-06,9.74764e-06,-3.50469e-06,2.02811e-05,-2.55094e-08,0
-3.30782e-05,-8.45672e-06,7.53632e-08,-1.18952e-05,6.97117e-06,-4.79752e-06,1.89699e-05,-3.90964e-07,0
-3.30574e-05,-1.17828e-05,-1.55164e-07,-1.60024e-05,5.40645e-06,-4.13868e-06,1.57251e-05,-1.90791e-06,0
-3.18072e-05,-1.06678e-05,-1.97658e-06,-1.70439e-05,5.93853e-06,-2.91245e-06,1.17447e-05,-3.98819e-06,0
-3.03258e-05,-4.90432e-06,-4.93685e-06,-1.47777e-05,6.64863e-06,-3.00062e-06,8.00745e-06,-5.59861e-06,0
-3.04786e-05,3.80598e-06,-9.44493e-06,-1.06082e-05,7.70667e-06,-3.71901e-06,5.98878e-06,-5.58391e-06,0
-3.00044e-05,1.04012e-05,-1.41708e-05,-4.99536e-06,9.30987e-06,-3.90467e-06,6.56378e-06,-4.15971e-06,0
-2.8027e-05,1.39636e-05,-1.7727e-05,1.01657e-07,1.35982e-05,-4.54511e-06,9.98101e-06,-3.30594e-06,0
-2.63694e-05,1.85115e-05,-1.93318e-05,2.12019e-06,1.80942e-05,-6.60712e-06,1.25988e-05,-3.71066e-06,0
-2.64123e-05,2.80024e-05,-1.83514e-05,2.60724e-06,2.10254e-05,-7.00988e-06,1.23092e-05,-3.39607e-06,0
-2.69007e-05,4.06119e-05,-1.62151e-05,3.72378e-06,2.13557e-05,-6.50322e-06,1.08576e-05,-2.12525e-06,0
-2.79537e-05,5.06859e-05,-1.36678e-05,4.72494e-06,2.17389e-05,-6.20604e-06,1.04234e-05,-1.61782e-06,0
-3.03913e-05,5.62085e-05,-1.11874e-05,5.03981e-06,2.38323e-05,-6.20395e-06,1.13727e-05,-3.54882e-07,0
-3.17251e-05,5.41775e-05,-9.58144e-06,5.41155e-06,2.56366e-05,-5.99751e-06,1.37333e-05,1.4611e-06,0
-3.00129e-05,4.44214e-05,-8.81873e-06,6.72784e-06,2.61101e-05,-5.615e-06,1.38499e-05,7.53539e-07,0
-2.7365e-05,3.04934e-05,-7.2419e-06,7.0733e-06,2.62849e-05,-5.3682e-06,7.68151e-06,-2.04388e-06,0
-2.74408e-05,1.60323e-05,-3.51529e-06,4.67153e-06,2.59396e-05,-6.65969e-06,-1.91228e-06,-3.21059e-06,0
-3.03278e-05,3.95622e-06,3.65783e-06,1.58433e-06,2.39275e-05,-9.97348e-06,-7.60312e-06,-2.1665e-06,0
-3.35667e-05,-2.45895e-06,1.41299e-05,-6.06535e-07,2.19071e-05,-1.09297e-05,-6.0428e-06,-7.06904e-07,0
-3.39324e-05,-1.74122e-06,2.65759e-05,-2.8917e-06,2.16174e-05,-9.5695e-06,-9.08235e-07,-4.06107e-08,0
-3.15374e-05,5.45261e-06,3.76603e-05,-6.99098e-06,2.24542e-05,-8.20676e-06,2.95557e-06,-1.08173e-06,0
-3.01899e-05,1.32936e-05,4.15958e-05,-1.13692e-05,2.1689e-05,-8.4426e-06,4.3177e-06,-3.25908e-06,0
-3.0916e-05,1.56253e-05,3.4746e-05,-1.12042e-05,1.98901e-05,-1.00587e-05,5.39401e-06,-4.05976e-06,0
-3.10532e-05,1.3718e-05,1.68661e-05,-6.72781e-06,1.8081e-05,-1.19886e-05,7.76197e-06,-2.64904e-06,0
-2.93165e-05,1.13406e-05,-8.32526e-06,-3.27866e-06,1.69946e-05,-1.35314e-05,1.2471e-05,-2.178e-06,0
-2.80266e-05,1.09356e-05,-3.41916e-05,-3.12686e-06,1.67953e-05,-1.35306e-05,1.772e-05,-2.94414e-06,0
-2.99949e-05,1.48333e-05,-5.39224e-05,-6.48147e-06,1.56171e-05,-1.23636e-05,2.12111e-05,-2.54e-06,0
-3.38149e-05,2.06906e-05,-5.97026e-05,-1.30025e-05,1.23275e-05,-1.15708e-05,2.28932e-05,-1.306e-06,0
-3.58104e-05,2.46644e-05,-5.20581e-05,-2.29894e-05,9.12571e-06,-1.14497e-05,2.38975e-05,-2.43764e-06,0
-3.49234e-05,2.476e-05,-4.17315e-05,-3.30527e-05,6.20988e-06,-1.11255e-05,2.50088e-05,-4.76224e-06,0
-3.37444e-05,2.27643e-05,-3.30923e-05,-3.73345e-05,3.01525e-06,-1.06689e-05,2.55225e-05,-3.87483e-06,0
-3.31579e-05,2.30527e-05,-2.76926e-05,-3.54054e-05,1.86311e-06,-1.02958e-05,2.58475e-05,-2.97988e-07,0
-3.25752e-05,2.42545e-05,-2.53463e-05,-2.9798e-05,1.44022e-06,-1.16236e-05,2.63268e-05,3.77684e-06,0
-3.1687e-05,2.43338e-05,-2.17017e-05,-2.6082e-05,1.71726e-07,-1.29101e-05,2.57715e-05,5.41764e-06,0
-3.04747e-05,2.19588e-05,-1.58957e-05,-2.38286e-05,-6.23839e-07,-1.16469e-05,2.44982e-05,4.09512e-06,0
-2.91908e-05,1.86192e-05,-1.04335e-05,-1.85804e-05,7.5849e-07,-1.0618e-05,2.19155e-05,2.2375e-06,0
-2.95135e-05,1.58312e-05,-7.31339e-06,-1.22807e-05,4.14139e-06,-1.03154e-05,1.87511e-05,1.65184e-06,0
-3.15193e-05,1.41673e-05,-4.39158e-06,-9.72815e-06,5.58847e-06,-9.95008e-06,1.7787e-05,1.70596e-06,0
-3.26366e-05,1.31609e-05,-2.61505e-06,-7.29099e-06,4.11725e-06,-1.03341e-05,1.89315e-05,1.221e-06,0
-3.27637e-05,1.30511e-05,-3.28252e-06,3.62687e-06,2.17989e-06,-1.27201e-05,2.08882e-05,3.48342e-08,0
-3.21572e-05,1.51404e-05,-4.40491e-06,2.39155e-05,1.35425e-06,-1.56185e-05,2.27504e-05,-1.32474e-06,0
-3.11761e-05,1.77164e-05,-4.44171e-06,4.52482e-05,-2.32325e-07,-1.61241e-05,2.29592e-05,-1.25379e-06,0
-3.02509e-05,1.73423e-05,-3.35005e-06,5.77881e-05,-3.33908e-06,-1.47223e-05,2.17443e-05,2.46547e-07,0
-3.02309e-05,1.27762e-05,-1.50302e-06,5.75672e-05,-4.7238e-06,-1.42503e-05,2.08911e-05,1.19185e-06,0
-3.014e-05,6.27617e-06,6.89769e-07,4.67209e-05,-4.12091e-06,-1.58929e-05,1.93517e-05,5.48063e-07,0
-2.95456e-05,5.9845e-07,1.9907e-06,3.25455e-05,-4.70812e-06,-1.75887e-05,1.63441e-05,3.08204e-07,0
-2.9998e-05,-2.39001e-06,2.02591e-06,1.93374e-05,-6.54843e-06,-1.77173e-05,1.21184e-05,3.31085e-07,0
-3.14153e-05,-2.24008e-06,-9.18172e-08,6.26016e-06,-6.28036e-06,-1.75175e-05,7.94803e-06,-5.2073e-07,0
-3.24461e-05,1.38891e-06,-3.40551e-06,-6.14397e-06,-3.89692e-06,-1.83968e-05,4.29992e-06,-1.08247e-06,0
-3.1784e-05,6.02933e-06,-5.70963e-06,-1.38278e-05,-1.64529e-06,-1.8779e-05,5.18035e-07,-1.00688e-06,0
-3.03952e-05,8.42884e-06,-5.40846e-06,-1.55278e-05,-2.1699e-07,-1.7234e-05,-3.411e-06,-3.09261e-07,0
-3.03363e-05,7.7966e-06,-4.01031e-06,-1.53466e-05,1.2978e-06,-1.52678e-05,-5.0084e-06,1.56816e-06,0
-3.12489e-05,6.39353e-06,-4.12237e-06,-1.74775e-05,3.12543e-06,-1.36233e-05,-2.6505e-06,3.22808e-06,0
-3.14021e-05,6.69242e-06,-4.85472e-06,-1.93912e-05,5.85976e-06,-1.15735e-05,1.82308e-06,3.34282e-06,0
-3.00437e-05,9.11025e-06,-4.58314e-06,-2.05688e-05,8.12867e-06,-9.49765e-06,5.14924e-06,3.66634e-06,0
-2.7685e-05,1.19612e-05,-3.53087e-06,-2.34725e-05,8.57552e-06,-7.24575e-06,4.70868e-06,5.10313e-06,0
-2.60527e-05,1.37993e-05,-2.56294e-06,-2.82037e-05,9.73335e-06,-6.09617e-06,4.6462e-06,5.4237e-06,0
-2.67852e-05,1.34772e-05,-2.25342e-06,-3.28103e-05,1.11702e-05,-5.66096e-06,5.03702e-06,4.93651e-06,0
-2.78803e-05,1.41012e-05,-1.54765e-06,-3.00377e-05,1.19551e-05,-6.81047e-06,4.24511e-06,4.61215e-06,0
-2.74513e-05,1.75381e-05,4.81648e-07,-2.07642e-05,1.41214e-05,-8.80954e-06,4.92763e-06,6.36138e-06,0
-2.67801e-05,1.98662e-05,2.69331e-06,-1.33481e-05,1.5933e-05,-1.02503e-05,5.27873e-06,1.041e-05,0
-2.71224e-05,1.91617e-05,2.80209e-06,-7.88646e-06,1.73431e-05,-1.131e-05,5.99325e-06,1.19369e-05,0
-2.7714e-05,1.56755e-05,1.82289e-06,1.21136e-06,1.99126e-05,-1.07245e-05,6.99682e-06,9.70514e-06,0
-2.86164e-05,1.2509e-05,1.81166e-06,1.58516e-05,2.10624e-05,-9.17311e-06,7.06418e-06,6.70087e-06,0
-2.9382e-05,1.10245e-05,2.11484e-06,2.8406e-05,1.98282e-05,-6.72567e-06,8.8343e-06,5.23827e-06,0
