ch1,ch2,ch3,ch4,ch5,ch6,ch7,ch8,class
-3.65799e-05,3.08905e-05,-1.48122e-05,-0.000221857,-7.6188e-05,-3.26622e-05,7.95882e-06,1.44195e-06,0
-3.18217e-05,3.75956e-05,-1.63785e-05,-0.000223192,-4.84205e-05,-2.7573e-05,9.03515e-06,2.59578e-06,0
-2.77616e-05,4.04255e-05,-1.63732e-05,-0.000191203,-1.6498e-06,-1.81001e-05,6.19061e-06,3.47733e-06,0
-2.25568e-05,3.74472e-05,-1.42315e-05,-5.7558e-05,3.99875e-05,1.14754e-06,2.81524e-06,3.25692e-06,0
-1.36722e-05,3.09853e-05,-1.13308e-05,0.000176119,8.92972e-05,4.47063e-05,2.77336e-06,4.95739e-06,0
-8.3745e-06,2.83782e-05,-1.39354e-05,0.000315321,0.000145735,8.8489e-05,6.098e-06,4.9471e-06,0
-1.60493e-05,3.13174e-05,-2.2737e-05,0.00031007,0.000178768,7.57002e-05,9.35183e-06,9.2009e-07,0
-3.30499e-05,3.0665e-05,-3.1819e-05,0.000289248,0.000162101,2.70125e-05,1.03769e-05,-1.41723e-06,0
-4.76401e-05,2.17769e-05,-3.60731e-05,0.000242453,9.53031e-05,-4.1615e-06,1.05014e-05,-5.20319e-07,0
-5.10342e-05,9.75952e-06,-3.23252e-05,0.000119516,2.74731e-05,-4.98183e-06,1.12821e-05,-7.70356e-08,0
-4.68794e-05,-2.22521e-06,-2.30399e-05,-1.8695e-05,-9.81874e-06,9.65873e-06,1.26121e-05,9.79269e-07,0
-4.06669e-05,-1.08803e-05,-1.10318e-05,-0.000133924,-1.59001e-05,1.92592e-05,9.42536e-06,3.11593e-06,0
-3.645e-05,-1.29458e-05,3.99484e-06,-0.000243376,-5.96238e-06,1.83199e-05,3.23451e-06,3.88973e-06,0
-3.64902e-05,-7.2422e-06,2.20589e-05,-0.000325125,-4.25631e-06,6.0367e-06,5.20825e-07,2.50916e-06,0
-4.01946e-05,4.88709e-06,3.44685e-05,-0.000367805,-2.14295e-05,-1.49469e-05,2.38516e-06,1.36438e-06,0
-4.5419e-05,2.05634e-05,3.4682e-05,-0.000372481,-4.45954e-05,-3.30688e-05,7.33682e-06,8.89098e-07,0
-4.90834e-05,3.3599e-05,2.84174e-05,-0.000301895,-5.69172e-05,-3.77396e-05,1.45762e-05,-8.10986e-08,0
-4.75507e-05,3.41157e-05,2.29682e-05,-0.000153164,-5.66299e-05,-3.24838e-05,2.64464e-05,-9.13052e-07,0
-3.87525e-05,1.78328e-05,2.02678e-05,-9.16617e-06,-4.64273e-05,-2.58635e-05,4.32339e-05,1.96366e-06,0
-2.70857e-05,-7.76693e-06,1.6817e-05,4.7853e-05,-3.47272e-05,-2.18759e-05,5.8593e-05,1.05181e-05,0
-1.99288e-05,-2.71095e-05,1.10289e-05,2.96648e-05,-1.93002e-05,-2.0286e-05,6.47983e-05,1.91444e-05,0
-2.33598e-05,-3.29122e-05,5.71182e-06,-8.41077e-06,-2.53872e-06,-2.15202e-05,6.15452e-05,2.20465e-05,0
-3.4186e-05,-2.92613e-05,3.28714e-06,-3.33872e-05,5.14707e-06,-2.51197e-05,5.27518e-05,1.94513e-05,0
-4.51836e-05,-2.42877e-05,4.46381e-07,-5.00328e-05,1.16621e-06,-3.25569e-05,4.19165e-05,1.42151e-05,0
-5.33167e-05,-2.21243e-05,-3.6341e-06,-5.7072e-05,3.51944e-07,-4.09516e-05,3.15744e-05,7.66094e-06,0
-5.70279e-05,-2.23155e-05,-6.19886e-06,-3.58939e-05,9.60256e-06,-3.68421e-05,2.34363e-05,4.39041e-07,0
-5.48445e-05,-2.29684e-05,-7.01854e-06,1.81797e-05,2.66363e-05,-1.47081e-05,1.59538e-05,-3.89098e-06,0
-4.84716e-05,-2.09581e-05,-8.46365e-06,7.08475e-05,4.52259e-05,3.15159e-06,7.88069e-06,-4.83268e-06,0
-4.01897e-05,-1.19217e-05,-1.07243e-05,8.96774e-05,5.22774e-05,1.26101e-07,2.81305e-06,-3.85628e-06,0
-3.29364e-05,4.61179e-06,-1.32473e-05,8.76354e-05,3.76183e-05,-1.73679e-05,1.46222e-06,-3.53602e-06,0
-3.07718e-05,1.74537e-05,-1.72971e-05,9.10134e-05,1.32055e-05,-3.95653e-05,1.28117e-06,-8.06018e-06,0
-2.91283e-05,2.23907e-05,-1.90933e-05,7.27439e-05,-4.6654e-06,-3.90185e-05,4.75194e-07,-1.35688e-05,0
-1.70135e-05,2.45275e-05,-1.63669e-05,1.27796e-05,-1.44118e-05,-1.30575e-05,-4.50319e-07,-1.45989e-05,0
-1.18946e-06,2.5567e-05,-1.4434e-05,-3.92628e-05,-1.77871e-05,9.79287e-06,-1.78011e-06,-1.06539e-05,0
1.74954e-06,2.39422e-05,-1.28834e-05,-4.79059e-05,-1.78619e-05,1.354e-05,-4.29421e-06,-5.86394e-06,0
-4.00188e-06,1.66278e-05,-1.00375e-05,-1.29444e-05,-1.2665e-05,1.77141e-06,-6.96915e-06,-2.34139e-06,0
-6.7841e-06,6.91867e-06,-8.70088e-06,5.39883e-05,-4.65412e-06,-9.42231e-06,-8.89353e-06,-7.24787e-07,0
-9.59973e-06,7.36912e-07,-7.30493e-06,6.23883e-05,-7.9865e-07,-1.18898e-05,-1.01095e-05,-1.31745e-06,0
-1.9498e-05,3.3133e-06,-2.01018e-06,-2.97082e-05,-4.55393e-06,2.08703e-06,-8.58535e-06,-2.05269e-06,0
-3.60686e-05,8.63847e-06,8.03484e-06,-0.000145603,-6.54897e-06,2.42053e-05,-4.85228e-06,-1.58099e-06,0
-5.39043e-05,7.43903e-06,1.95384e-05,-0.000214623,-3.89946e-06,3.01018e-05,-3.27099e-06,-3.21844e-07,0
-6.56022e-05,9.16525e-07,2.95392e-05,-0.000181797,1.53378e-06,1.72648e-05,-3.59633e-06,2.41712e-07,0
-7.23964e-05,-4.23916e-06,3.17709e-05,-6.66543e-05,7.27404e-06,3.75448e-06,-2.49701e-06,6.13349e-07,0
-8.21882e-05,-6.14413e-06,2.08319e-05,5.72011e-05,1.51194e-05,-8.33638e-07,3.87292e-07,2.65435e-06,0
-9.26821e-05,-6.69622e-06,-3.52359e-07,0.000105854,3.00287e-05,-2.82769e-07,3.62593e-06,5.03325e-06,0
-9.622e-05,-6.17105e-06,-2.39468e-05,6.9471e-05,4.56065e-05,6.54737e-07,7.07103e-06,4.7468e-06,0
-9.31811e-05,-5.17692e-06,-4.28699e-05,3.32476e-05,5.2522e-05,-3.54091e-06,1.0062e-05,3.58035e-06,0
-8.85594e-05,-3.62739e-06,-5.22489e-05,6.89149e-05,4.88634e-05,-1.45524e-05,1.22972e-05,3.36886e-06,0
-8.49641e-05,-2.14264e-06,-5.29927e-05,0.000125287,3.79874e-05,-2.6001e-05,1.37352e-05,4.2181e-06,0
-7.83585e-05,1.86708e-08,-5.18253e-05,7.77557e-05,2.77677e-05,-2.78888e-05,1.43782e-05,5.82153e-06,0
-5.55592e-05,3.01031e-06,-5.15046e-05,-6.38954e-05,2.76182e-05,-1.9388e-05,1.43625e-05,7.47151e-06,0
-5.49844e-06,7.71504e-06,-5.12269e-05,-0.000123617,2.46782e-05,-3.84583e-06,1.46381e-05,8.40962e-06,0
5.72165e-05,1.33614e-05,-4.99577e-05,-2.00906e-05,-2.72608e-06,1.502e-05,1.53054e-05,8.47009e-06,0
9.51605e-05,1.97425e-05,-4.60217e-05,7.40332e-05,-4.52781e-05,3.30978e-05,1.55511e-05,6.75868e-06,0
8.60805e-05,2.41756e-05,-3.93708e-05,6.36826e-06,-6.06759e-05,4.63583e-05,1.4018e-05,4.09456e-06,0
5.22901e-05,2.41744e-05,-3.13036e-05,-0.000105043,-1.98002e-05,5.55507e-05,1.23687e-05,2.48326e-06,0
3.33642e-05,2.42736e-05,-1.87042e-05,-7.71362e-05,5.85955e-05,5.71031e-05,1.28676e-05,1.2867e-06,0
2.84798e-05,2.5611e-05,-5.80618e-06,6.05244e-05,0.000106193,2.93558e-05,1.27121e-05,-7.58784e-07,0
1.26699e-05,2.3422e-05,-2.30372e-06,0.000184625,7.72637e-05,-2.38417e-05,1.18652e-05,-5.35702e-07,0
-1.47331e-05,1.69199e-05,-6.92459e-06,0.000250754,7.71867e-06,-6.47849e-05,1.14777e-05,4.9535e-06,0
-3.6623e-05,1.25536e-05,-1.36755e-05,0.000226965,-5.2751e-05,-7.17897e-05,1.22112e-05,1.52129e-05,0
-4.6754e-05,1.42811e-05,-2.07953e-05,6.69122e-05,-6.36202e-05,-5.58391e-05,1.37236e-05,2.38622e-05,0
-5.3118e-05,1.71979e-05,-3.10527e-05,-0.000143752,-2.37496e-05,-4.22448e-05,1.58257e-05,2.6999e-05,0
-5.92603e-05,1.56477e-05,-3.97963e-05,-0.000241779,-3.53339e-06,-4.29953e-05,1.55467e-05,3.37149e-05,0
-6.29332e-05,1.41439e-05,-3.7826e-05,-0.000177654,-3.79648e-05,-4.62743e-05,8.57413e-06,4.0776e-05,0
-6.26875e-05,2.15494e-05,-2.38942e-05,-1.39753e-05,-7.86084e-05,-3.96909e-05,-4.58841e-06,3.56391e-05,0
-5.90251e-05,3.3708e-05,-2.806e-06,0.000166421,-7.08269e-05,-2.6602e-05,-2.17858e-05,1.63749e-05,0
-5.39861e-05,3.89318e-05,1.92034e-05,0.000252664,-1.98863e-05,-1.37609e-05,-3.59653e-05,-5.58335e-06,0
-5.10418e-05,3.26854e-05,3.42133e-05,0.000177608,2.68149e-05,-8.90214e-06,-4.30066e-05,-2.17763e-05,0
-5.1837e-05,2.23482e-05,3.55169e-05,1.92884e-05,4.4405e-05,-1.3152e-05,-4.30214e-05,-3.28881e-05,0
-5.32003e-05,1.71856e-05,2.55361e-05,-7.75101e-05,7.36914e-05,-1.87902e-05,-3.62171e-05,-3.92828e-05,0
-5.05369e-05,1.78647e-05,1.41028e-05,-3.87371e-05,0.000142896,-1.94745e-05,-2.21979e-05,-4.17411e-05,0
-4.29262e-05,2.12036e-05,7.83362e-06,7.93122e-05,0.000193181,-1.45824e-05,-2.27025e-06,-4.11198e-05,0
-3.36635e-05,2.46431e-05,7.70254e-06,0.000150124,0.000171929,-5.30832e-06,1.90891e-05,-3.71979e-05,0
-2.60997e-05,2.66365e-05,1.06033e-05,9.87712e-05,0.000102193,6.51332e-06,3.73061e-05,-2.94284e-05,0
-2.29434e-05,2.45324e-05,9.64903e-06,-1.70556e-05,2.52315e-05,1.38736e-05,4.99565e-05,-2.00713e-05,0
-2.45778e-05,1.88355e-05,2.40816e-06,-8.91216e-05,-5.11268e-05,1.45199e-05,5.89083e-05,-1.00273e-05,0
-2.77081e-05,1.30882e-05,-5.35153e-06,-0.000100122,-0.0001226,1.87017e-05,6.46332e-05,-9.17549e-07,0
-2.92303e-05,1.09469e-05,-7.93444e-06,-0.000132056,-0.000159192,2.5307e-05,6.74891e-05,5.30263e-06,0
-3.06365e-05,1.3119e-05,-6.21234e-06,-0.000173548,-0.000134085,1.44976e-05,6.86332e-05,6.55111e-06,0
-3.00828e-05,1.85299e-05,-3.18017e-06,-0.000126568,-3.78228e-05,-1.36118e-05,6.86233e-05,6.07748e-06,0
-2.64061e-05,2.6157e-05,-1.91642e-06,-1.83874e-06,9.68315e-05,-4.09845e-05,6.80813e-05,6.22448e-06,0
-2.33199e-05,3.33657e-05,-3.42825e-06,9.95354e-05,0.00016529,-5.20177e-05,6.64153e-05,4.86162e-06,0
-2.1239e-05,3.57144e-05,-4.45148e-06,0.000115217,0.000108718,-4.38208e-05,6.26228e-05,4.70306e-06,0
-2.00132e-05,3.35031e-05,-4.56091e-06,7.11565e-05,-1.60781e-05,-3.36673e-05,5.73461e-05,6.57956e-06,0
-1.90664e-05,3.20509e-05,-4.41389e-06,1.77366e-05,-0.000109495,-2.99854e-05,5.272e-05,6.29218e-06,0
-1.94234e-05,3.39552e-05,-2.36527e-06,-6.77951e-06,-0.000133824,-2.48722e-05,4.92614e-05,3.91556e-06,0
-2.04454e-05,3.53878e-05,-4.93033e-08,-1.62984e-05,-0.000117249,-1.73481e-05,4.49139e-05,1.71681e-06,0
-2.20986e-05,3.35324e-05,-2.18727e-06,-3.38953e-05,-6.96114e-05,-1.15724e-05,3.87646e-05,-6.35892e-07,0
-2.39763e-05,2.96041e-05,-1.06056e-05,-3.87615e-05,1.24822e-06,-1.18501e-05,3.26865e-05,-1.21694e-06,0
-2.30797e-05,2.75947e-05,-1.94294e-05,-5.14502e-05,8.34319e-05,-1.20553e-05,2.7686e-05,-9.32146e-07,0
-1.95435e-05,2.93967e-05,-2.33564e-05,-7.15925e-05,0.000135475,-7.14142e-06,2.30693e-05,-1.81826e-06,0
-1.3448e-05,2.97515e-05,-2.42452e-05,-5.44391e-05,0.000109391,-3.12307e-06,1.99557e-05,-3.67466e-06,0
-7.34194e-06,2.62265e-05,-2.57607e-05,3.13312e-06,3.03899e-05,-4.77892e-06,1.76591e-05,-4.82207e-06,0
-6.86699e-06,2.19442e-05,-2.62227e-05,6.14443e-05,-3.23487e-05,-7.5756e-06,1.39665e-05,-3.96451e-06,0
-1.34629e-05,2.21021e-05,-2.23763e-05,7.94543e-05,-3.53367e-05,-6.12076e-06,9.49674e-06,-1.8591e-06,0
-2.15579e-05,2.62523e-05,-1.42523e-05,5.99542e-05,9.65828e-06,-2.30017e-06,5.80759e-06,-1.30733e-06,0
-2.72831e-05,2.82665e-05,-4.97992e-06,2.85734e-05,5.82365e-05,2.64634e-07,2.71382e-06,-2.23456e-06,0
-3.16962e-05,2.42566e-05,1.31224e-06,-2.44373e-05,6.61894e-05,-2.42098e-06,4.5241e-07,-1.32229e-06,0
-3.61628e-05,1.85126e-05,2.39866e-06,-0.000123334,3.20124e-05,-6.92142e-06,-2.65167e-07,1.23497e-06,0
-3.94708e-05,1.5543e-05,-5.63024e-07,-0.000247522,-1.02536e-05,-7.59262e-06,-2.42296e-07,2.88278e-06,0
-4.19572e-05,1.34037e-05,-5.35205e-06,-0.000313296,-3.29187e-05,-4.56777e-06,-1.30513e-06,2.41741e-06,0
-4.41449e-05,8.49546e-06,-1.19785e-05,-0.000237205,-3.46334e-05,-4.58991e-06,-4.71425e-06,1.63828e-06,0
-4.41687e-05,2.83001e-06,-1.62684e-05,-4.77361e-05,-2.683e-05,-1.09228e-05,-8.10571e-06,1.88489e-06,0
-4.17943e-05,1.14179e-06,-9.63095e-06,0.000146267,-1.69792e-05,-2.45148e-05,-9.06086e-06,2.08137e-06,0
-3.93731e-05,2.37898e-06,8.20924e-06,0.000239581,-5.68261e-06,-3.75751e-05,-6.78709e-06,4.98705e-07,0
-4.01949e-05,2.37978e-06,2.50511e-05,0.000180899,1.5653e-05,-3.25669e-05,-3.31183e-06,-2.70215e-06,0
-4.48828e-05,-1.76091e-06,3.15522e-05,6.5714e-05,4.97482e-05,-1.10025e-05,-2.42961e-06,-6.30656e-06,0
-4.94867e-05,-5.11135e-06,2.67828e-05,1.36727e-05,8.74767e-05,2.9388e-06,-3.88049e-06,-8.69441e-06,0
-4.89534e-05,-5.25857e-07,1.58806e-05,-7.59775e-06,9.73611e-05,-7.66672e-07,-4.7406e-06,-8.01571e-06,0
-4.13211e-05,1.00786e-05,1.27725e-06,-5.97906e-05,6.39324e-05,-8.17783e-06,-2.48475e-06,-4.6165e-06,0
-3.20383e-05,1.58735e-05,-1.45755e-05,-0.000124718,1.73347e-05,-8.88025e-06,1.39322e-06,-2.0126e-06,0
-2.57755e-05,1.3815e-05,-2.80493e-05,-0.000147864,-2.21811e-05,-6.77783e-06,3.08287e-06,-7.85781e-07,0
-2.2073e-05,9.48067e-06,-3.63517e-05,-8.77613e-05,-4.74635e-05,-4.08148e-06,3.66359e-06,-2.5441e-07,0
-2.29173e-05,3.51844e-06,-3.63666e-05,5.68538e-05,-5.24663e-05,-2.60649e-06,5.34026e-06,2.02861e-06,0
-2.78236e-05,-2.77746e-06,-2.9487e-05,0.000218264,-4.34764e-05,-5.10012e-06,7.90381e-06,1.68498e-05,0
-3.1567e-05,-4.02625e-06,-1.8876e-05,0.000280756,-2.94722e-05,-7.01433e-06,1.04619e-05,3.95663e-05,0
-3.01316e-05,5.0197e-08,-9.81604e-06,0.000210749,-6.63126e-06,-6.80103e-06,1.15271e-05,5.10239e-05,0
-2.73809e-05,3.31387e-06,-5.91074e-06,0.000102829,2.37393e-05,-5.9934e-06,1.07705e-05,4.62046e-05,0
-2.59603e-05,3.29729e-06,-6.9891e-06,2.30335e-05,3.22169e-05,-7.8501e-06,9.56694e-06,2.90814e-05,0
-2.61807e-05,2.11121e-06,-8.95529e-06,-1.80266e-05,1.56105e-06,-1.14532e-05,9.73522e-06,4.08525e-06,0
-2.72243e-05,2.51516e-06,-1.26543e-05,-3.63142e-05,-4.35114e-05,-1.51678e-05,1.07762e-05,-2.23575e-05,0
-2.73539e-05,3.50404e-06,-2.03383e-05,-7.86213e-05,-5.69518e-05,-1.5916e-05,1.06741e-05,-4.16702e-05,0
-2.60715e-05,4.55137e-06,-2.61831e-05,-0.000141979,-2.63861e-05,-1.018e-05,9.47524e-06,-4.8432e-05,0
-2.48591e-05,6.39673e-06,-2.32551e-05,-0.000173913,1.25435e-05,5.51997e-08,6.56287e-06,-4.45795e-05,0
-2.6455e-05,8.4491e-06,-1.32309e-05,-0.000173703,2.24768e-05,4.78814e-06,-1.24792e-06,-3.5205e-05,0
-3.04034e-05,1.07697e-05,-5.0925e-06,-0.000242787,5.69691e-06,-5.23523e-06,-1.59821e-05,-2.40771e-05,0
-3.48921e-05,1.33825e-05,-3.88939e-06,-0.000434047,-8.91013e-06,-2.22915e-05,-3.21597e-05,-1.31517e-05,0
-3.57506e-05,1.63425e-05,-5.87354e-06,-0.00061507,4.25258e-06,-3.169e-05,-4.11093e-05,-5.11629e-06,0
-3.17792e-05,1.86378e-05,-7.61551e-06,-0.000584124,4.11671e-05,-3.16309e-05,-3.77612e-05,-7.58795e-07,0
-2.75804e-05,1.95853e-05,-1.17816e-05,-0.000286485,5.57519e-05,-3.29723e-05,-2.30979e-05,1.73243e-06,0
-2.75395e-05,2.05482e-05,-1.91998e-05,0.00012619,2.05937e-05,-4.03233e-05,-3.63333e-06,4.93388e-06,0
-2.83328e-05,2.26009e-05,-2.42588e-05,0.00045198,-1.38975e-05,-4.62735e-05,1.6288e-05,1.01957e-05,0
-2.70685e-05,2.40767e-05,-1.89344e-05,0.000594054,-6.16822e-06,-3.15541e-05,3.4719e-05,1.64749e-05,0
-2.61568e-05,2.5473e-05,-6.14073e-06,0.000552333,2.17206e-05,4.87736e-06,4.54082e-05,2.08765e-05,0
-2.72874e-05,2.7799e-05,7.67013e-06,0.000439174,5.98657e-05,2.84623e-05,4.28392e-05,2.20196e-05,0
-2.75731e-05,2.92562e-05,1.95481e-05,0.000324262,9.81716e-05,3.58965e-05,3.45702e-05,2.226e-05,0
-2.52757e-05,2.75328e-05,2.91592e-05,0.000170669,0.000127726,6.16854e-05,2.93989e-05,1.92323e-05,0
-2.42672e-05,2.65162e-05,3.35573e-05,6.02485e-05,0.000146614,7.60303e-05,2.58559e-05,1.2717e-05,0
-2.59368e-05,2.68464e-05,2.76076e-05,3.50015e-05,0.000134367,4.88016e-05,2.34199e-05,9.22716e-06,0
-3.23713e-05,2.30387e-05,1.21464e-05,4.80473e-06,7.0412e-05,1.82367e-05,2.37256e-05,8.12647e-06,0
-4.47034e-05,1.66039e-05,-7.4981e-06,-3.76272e-05,-2.72508e-05,2.86266e-07,2.64581e-05,7.80424e-06,0
-5.89752e-05,1.28226e-05,-1.80485e-05,-4.3457e-05,-8.79667e-05,-7.97138e-06,3.11579e-05,8.51635e-06,0
-6.82204e-05,1.23916e-05,-1.40269e-05,-1.89743e-05,-7.78714e-05,-1.35807e-05,3.36472e-05,8.95537e-06,0
-6.63133e-05,1.19026e-05,-4.26634e-06,1.01882e-05,-2.64707e-05,-1.65142e-05,3.17742e-05,8.57315e-06,0
-5.63796e-05,1.17303e-05,3.49081e-06,6.1326e-05,3.02841e-05,-1.25788e-05,2.83259e-05,8.73593e-06,0
-4.21885e-05,1.25153e-05,7.20283e-06,0.000114147,7.15633e-05,-1.11288e-05,2.42811e-05,9.15104e-06,0
-2.59489e-05,1.20615e-05,4.11627e-06,9.67381e-05,9.84528e-05,-1.47969e-05,2.02779e-05,6.82714e-06,0
-1.08498e-05,1.11254e-05,-3.56808e-06,1.8962e-05,0.000118328,-2.1405e-05,1.52496e-05,3.38615e-06,0
4.45119e-06,1.33065e-05,-1.30882e-05,-1.75997e-05,0.000121816,-2.87213e-05,9.83643e-06,1.73749e-06,0
1.92557e-05,1.81948e-05,-2.23179e-05,1.58682e-05,0.00010132,-3.53699e-05,6.26332e-06,2.27916e-06,0
2.13353e-05,2.0084e-05,-2.88403e-05,3.37827e-05,6.97942e-05,-4.02475e-05,3.74152e-06,2.7095e-06,0
4.61303e-06,1.46477e-05,-3.48189e-05,-1.02979e-05,4.30647e-05,-4.39388e-05,1.06051e-06,1.37695e-06,0
-1.44414e-05,5.66891e-06,-4.16356e-05,-8.87765e-05,2.66341e-05,-4.12141e-05,-1.07976e-06,-1.11551e-06,0
-2.42378e-05,-2.84218e-07,-4.61783e-05,-0.000182967,1.85493e-05,-3.11822e-05,-1.41392e-06,-2.01086e-06,0
-3.31869e-05,-2.68983e-06,-4.2638e-05,-0.000288978,1.30977e-05,-2.19868e-05,-1.17508e-06,-4.10912e-07,0
-4.31777e-05,-4.40041e-06,-3.26164e-05,-0.000339764,7.96844e-06,-8.07622e-06,-2.28683e-06,2.63529e-06,0
-4.35195e-05,-4.95475e-06,-2.04217e-05,-0.000239642,1.45973e-05,2.22828e-05,-4.59066e-06,6.63444e-06,0
-3.4347e-05,-2.10048e-06,-7.7903e-06,-2.64216e-05,3.45969e-05,4.05515e-05,-6.33662e-06,1.19371e-05,0
-2.57813e-05,3.47948e-06,6.6579e-06,0.000136318,4.68267e-05,2.30419e-05,-5.88583e-06,2.10616e-05,0
-2.02599e-05,9.80523e-06,2.2477e-05,0.000100662,4.02279e-05,2.03293e-06,-2.92938e-06,2.96168e-05,0
-1.37787e-05,1.49182e-05,3.74849e-05,-0.000121966,2.26306e-05,1.4268e-06,-8.11227e-08,2.91374e-05,0
-9.39176e-06,2.04075e-05,5.16665e-05,-0.000278972,-3.8418e-07,8.14004e-06,1.20959e-06,2.12584e-05,0
-1.089e-05,2.57531e-05,6.39526e-05,-0.000205294,-1.97095e-05,9.49408e-06,2.04526e-06,1.27132e-05,0
-1.60632e-05,2.65132e-05,6.90565e-05,2.07085e-05,-1.49039e-05,6.29386e-06,3.38073e-06,5.80582e-06,0
-2.16794e-05,2.39782e-05,5.9848e-05,0.000185669,7.7567e-06,2.24046e-06,3.90913e-06,1.29665e-06,0
-2.74772e-05,2.74018e-05,3.04391e-05,0.000176467,1.0901e-05,-5.32155e-06,3.42618e-06,-3.16879e-06,0
-3.2232e-05,4.80309e-05,-1.51512e-05,5.71538e-05,-9.92464e-06,-1.91472e-05,3.70549e-06,-9.38698e-06,0
-3.34658e-05,7.34937e-05,-5.98637e-05,-0.000103834,-3.69206e-05,-2.92072e-05,5.32341e-06,-1.33312e-05,0
-3.17518e-05,7.72014e-05,-8.8059e-05,-0.000195993,-6.19917e-05,-2.91786e-05,6.69376e-06,-1.40569e-05,0
-3.01675e-05,5.21373e-05,-9.89606e-05,-0.000193683,-6.72852e-05,-2.28208e-05,7.80495e-06,-1.42109e-05,0
-3.16289e-05,1.03075e-05,-9.66989e-05,-0.000104549,-4.33328e-05,-1.44789e-05,9.23987e-06,-1.39703e-05,0
-3.43194e-05,-2.97812e-05,-7.8326e-05,3.87028e-05,-2.10099e-06,-6.86998e-06,9.72556e-06,-1.13242e-05,0
-3.58131e-05,-5.26646e-05,-4.86053e-05,0.000173861,3.63287e-05,-8.2141e-07,1.10365e-05,-6.65255e-06,0
-3.84225e-05,-5.52733e-05,-2.26818e-05,0.00023389,6.56584e-05,-1.21734e-06,1.26533e-05,-2.67762e-06,0
-4.33041e-05,-5.04873e-05,-1.14307e-05,0.000178234,8.9292e-05,-1.01469e-05,1.39012e-05,3.38573e-07,0
-4.72882e-05,-4.95982e-05,-1.18023e-05,5.57113e-05,0.000104767,-2.239e-05,1.48561e-05,1.98031e-06,0
-4.84076e-05,-4.95637e-05,-1.22229e-05,-3.58623e-05,0.000117947,-2.86427e-05,1.59353e-05,2.42086e-06,0
-4.68798e-05,-4.26925e-05,-7.76492e-06,-3.98153e-05,0.000107902,-2.39712e-05,1.76406e-05,2.38645e-06,0
-4.31635e-05,-2.99381e-05,-1.95035e-06,-1.63988e-05,3.74965e-05,-1.41127e-05,1.8437e-05,2.18785e-06,0
-3.83104e-05,-1.75191e-05,1.7788e-06,-2.70265e-05,-7.12718e-05,-7.76928e-06,1.86517e-05,1.84515e-06,0
-3.53504e-05,-7.08367e-06,3.13909e-06,-6.85519e-05,-0.000150844,-7.97332e-06,1.87228e-05,6.17827e-07,0
-3.35338e-05,2.60858e-06,3.64345e-06,-7.68797e-05,-0.000166175,-1.08154e-05,1.82793e-05,-7.53762e-07,0
-3.02702e-05,1.19071e-05,5.64233e-06,-3.66516e-05,-0.000142306,-1.23874e-05,1.8654e-05,-3.84725e-07,0
-2.59926e-05,1.87365e-05,9.03318e-06,9.51001e-06,-0.000120524,-1.2445e-05,2.10996e-05,1.7092e-06,0
-1.60326e-05,2.03749e-05,8.78069e-06,2.49056e-05,-0.00010458,-1.1433e-05,2.28684e-05,3.77673e-06,0
8.87192e-06,1.90037e-05,3.58507e-06,2.4709e-05,-6.45788e-05,-7.15124e-06,2.35589e-05,4.69026e-06,0
5.20029e-05,1.95363e-05,-3.01585e-06,3.50449e-05,-1.39837e-05,-4.06943e-06,2.3353e-05,3.84371e-06,0
9.72071e-05,2.36893e-05,-8.365e-06,6.28346e-05,6.79616e-06,-6.77316e-06,1.86919e-05,2.43267e-06,0
0.000110196,2.76369e-05,-1.17362e-05,9.24561e-05,9.00709e-06,-5.40704e-06,8.43781e-06,9.21536e-07,0
8.11812e-05,2.7451e-05,-1.29567e-05,0.000116599,2.78377e-05,7.7507e-06,-2.23547e-06,-8.63686e-07,0
2.26208e-05,2.4934e-05,-1.23542e-05,0.000145505,7.57871e-05,2.4981e-05,-6.80651e-06,-2.35575e-06,0
-4.05614e-05,2.34095e-05,-9.53742e-06,0.000139426,0.000114329,3.43744e-05,-4.30793e-06,-3.43506e-06,0
-8.73182e-05,2.28108e-05,-4.71047e-06,4.7572e-05,0.000101806,3.04651e-05,2.54332e-06,-3.56388e-06,0
-0.000116813,2.14945e-05,-3.0545e-06,-7.44537e-05,5.16423e-05,1.00719e-05,1.08257e-05,-2.64019e-06,0
-0.000128088,1.70783e-05,-6.86353e-06,-0.000151922,1.00833e-08,-2.69827e-05,1.97281e-05,-1.31744e-06,0
-0.000124867,8.17347e-06,-1.27004e-05,-0.000140171,-1.25341e-05,-6.37516e-05,2.71393e-05,2.74466e-07,0
-0.000109217,-1.47876e-06,-1.65019e-05,-7.85228e-06,8.2866e-06,-9.08024e-05,2.94808e-05,1.16371e-06,0
-9.13038e-05,-7.07354e-06,-1.6384e-05,0.000164077,2.23436e-05,-9.89819e-05,2.66935e-05,1.42006e-06,0
-7.78549e-05,-8.40206e-06,-1.28896e-05,0.000256205,1.09746e-05,-6.24607e-05,2.56985e-05,2.51921e-06,0
-7.17173e-05,-7.21696e-06,-7.10202e-06,0.000209998,-5.05007e-06,-8.39078e-06,2.94525e-05,2.7655e-06,0
-7.27868e-05,-6.02279e-06,-2.52378e-06,6.64674e-05,-6.62401e-07,4.33633e-06,3.16889e-05,1.27412e-06,0
-7.62432e-05,-7.90791e-06,-2.16674e-06,-0.000152859,1.80284e-05,-2.13923e-05,2.96545e-05,-3.40222e-07,0
-7.7447e-05,-1.10776e-05,-6.53939e-06,-0.000434154,3.75166e-05,-4.4966e-05,2.53932e-05,-1.44923e-06,0
-7.1382e-05,-1.20725e-05,-1.47496e-05,-0.000629001,4.8729e-05,-4.36115e-05,2.05546e-05,-2.66977e-06,0
-5.92823e-05,-8.18572e-06,-2.29997e-05,-0.000570757,4.88697e-05,-2.3736e-05,1.6412e-05,-2.89606e-06,0
-4.78282e-05,1.47759e-06,-2.49924e-05,-0.000316036,3.7535e-05,-4.75203e-06,1.35727e-05,-2.38838e-06,0
-4.76251e-05,1.55699e-05,-1.71447e-05,-6.99542e-05,2.30217e-05,-3.0202e-07,1.06871e-05,-3.15195e-06,0
-5.53058e-05,2.54617e-05,-6.0409e-06,8.42858e-05,1.38468e-05,-6.43901e-06,5.32281e-06,-4.09587e-06,0
-5.95786e-05,2.54316e-05,1.40598e-07,0.00020541,1.45148e-05,-9.81635e-06,-3.59426e-06,-3.76402e-06,0
-5.40124e-05,2.61555e-05,3.19952e-06,0.000300646,2.11138e-05,-6.95337e-06,-1.12404e-05,-3.05593e-06,0
-4.43297e-05,3.71281e-05,7.57999e-06,0.000278932,2.79064e-05,-3.30536e-06,-1.33764e-05,-3.89578e-06,0
-3.75719e-05,4.47545e-05,7.54325e-06,0.000137954,3.47927e-05,-3.31607e-06,-1.22408e-05,-5.50086e-06,0
-3.55616e-05,3.10538e-05,-2.99964e-06,4.23753e-06,4.22242e-05,-4.59705e-06,-1.09016e-05,-5.09759e-06,0
-3.67386e-05,-4.6293e-07,-1.90926e-05,-4.32984e-05,3.71522e-05,-5.91112e-06,-9.9637e-06,-2.52258e-06,0
-3.70214e-05,-2.943e-05,-3.13973e-05,-1.70742e-05,1.71225e-05,-4.24606e-06,-7.62415e-06,-9.04794e-07,0
-3.17866e-05,-3.83137e-05,-3.76726e-05,1.72598e-06,-1.20937e-06,-1.55333e-06,-1.70334e-06,-2.28085e-06,0
-2.31647e-05,-3.21333e-05,-4.15653e-05,-1.93351e-05,-1.19055e-05,-3.70208e-06,6.09608e-06,-4.04698e-06,0
-1.61881e-05,-2.33554e-05,-4.03481e-05,-7.09485e-05,-2.51634e-05,-1.32265e-05,1.51681e-05,-2.65259e-06,0
-1.39482e-05,-2.02442e-05,-3.12916e-05,-0.0001173,-4.45202e-05,-2.53239e-05,2.32315e-05,-6.54297e-07,0
-1.51674e-05,-2.12135e-05,-1.64931e-05,-3.34298e-07,-5.03106e-05,-3.21949e-05,2.82698e-05,-7.23189e-08,0
-1.64857e-05,-1.85277e-05,-2.09927e-06,0.000189878,-2.94297e-05,-2.78067e-05,3.33373e-05,-3.40607e-07,0
-1.81932e-05,-9.45999e-06,6.45413e-06,0.000293285,3.98811e-05,-1.74308e-05,3.71517e-05,-5.80854e-07,0
-2.01308e-05,3.33591e-06,9.94045e-06,0.000378516,0.00016335,-1.22178e-05,3.77075e-05,-4.41255e-07,0
-2.58775e-05,1.3342e-05,7.43073e-06,0.000461476,0.000247259,-1.26626e-05,3.62448e-05,8.51906e-08,0
-3.42127e-05,1.93699e-05,-5.2932e-06,0.00047316,0.000218746,-1.90867e-05,3.32863e-05,1.5268e-06,0
-4.17322e-05,2.19779e-05,-2.33774e-05,0.000416574,0.000110057,-2.96171e-05,2.84332e-05,3.46528e-06,0
-4.59018e-05,2.2977e-05,-3.28827e-05,0.000327581,-1.51944e-05,-3.12536e-05,2.47843e-05,5.01066e-06,0
-4.31882e-05,2.98934e-05,-2.69641e-05,0.000115479,-0.000103945,-1.58608e-05,2.37484e-05,4.80087e-06,0
-3.1935e-05,4.35583e-05,-1.21451e-05,-0.00023584,-0.000146074,8.78433e-06,2.40754e-05,6.3352e-06,0
-1.65344e-05,5.57021e-05,1.19852e-06,-0.00052898,-0.000138385,3.7404e-05,2.46595e-05,1.04625e-05,0
-4.75954e-06,5.92539e-05,8.94807e-06,-0.000580067,-0.000112691,5.96817e-05,2.43494e-05,1.53287e-05,0
-8.96772e-07,5.67545e-05,1.38452e-05,-0.000418537,-0.000107789,6.2958e-05,2.20306e-05,1.98119e-05,0
-2.22487e-06,5.62774e-05,1.91655e-05,-0.000232595,-0.000109877,4.56341e-05,1.88382e-05,2.16843e-05,0
-2.28646e-06,5.92257e-05,2.21235e-05,-0.000160439,-8.96719e-05,1.50959e-05,1.71718e-05,2.05049e-05,0
8.76674e-07,5.9666e-05,2.21715e-05,-0.000202545,-5.37965e-05,-1.24861e-05,1.66623e-05,1.70263e-05,0
3.5245e-06,5.37187e-05,2.33676e-05,-0.000284899,-3.00664e-05,-1.6107e-05,1.6218e-05,1.09691e-05,0
2.07825e-06,4.45517e-05,2.35407e-05,-0.000316799,-2.33914e-05,2.92405e-06,1.53584e-05,2.75575e-06,0
-2.44279e-06,3.73953e-05,1.73084e-05,-0.000248822,-2.43552e-05,1.78003e-05,1.48118e-05,-3.41141e-06,0
-7.60402e-06,3.4583e-05,7.69401e-06,-0.000111709,-8.5139e-06,1.73726e-05,1.41073e-05,-4.6077e-06,0
-1.15793e-05,3.35874e-05,6.30362e-08,2.11581e-05,3.30021e-05,9.31887e-06,1.30552e-05,-4.58377e-06,0
-1.4654e-05,3.37389e-05,-5.12366e-06,9.69323e-05,6.16766e-05,-4.55448e-06,1.24052e-05,-8.53302e-06,0
-1.74134e-05,3.22994e-05,-7.58503e-06,9.98792e-05,4.54337e-05,-2.74462e-05,1.29763e-05,-1.43211e-05,0
-2.00964e-05,2.63219e-05,-8.24439e-06,2.23448e-05,1.14722e-05,-4.76314e-05,1.20449e-05,-1.68497e-05,0
-2.21158e-05,1.98098e-05,-9.54445e-06,-5.90967e-05,2.93515e-06,-4.64184e-05,8.83814e-06,-1.48068e-05,0
-2.4656e-05,1.69781e-05,-8.52672e-06,-6.5495e-05,3.37391e-05,-3.0384e-05,6.82859e-06,-1.07147e-05,0
-2.91404e-05,1.64047e-05,-5.04668e-06,-6.56771e-05,5.39327e-05,-2.05289e-05,5.96616e-06,-8.28032e-06,0
-3.40627e-05,1.59551e-05,-5.67916e-06,-0.000105419,4.45789e-05,-1.69038e-05,4.69012e-06,-9.51074e-06,0
-3.90167e-05,1.58391e-05,-1.13855e-05,-0.000115541,3.48611e-05,-1.27532e-05,4.94479e-06,-1.05884e-05,0
-4.16904e-05,1.95913e-05,-1.90122e-05,-1.82891e-05,2.79385e-05,-7.83701e-06,8.15777e-06,-8.85592e-06,0
-4.05934e-05,2.7564e-05,-2.00499e-05,0.000147429,2.63339e-05,-3.47951e-06,1.11517e-05,-6.72932e-06,0
-3.38309e-05,3.32631e-05,-1.52847e-05,0.000253732,2.68612e-05,-3.91582e-06,1.25363e-05,-5.41237e-06,0
-2.14883e-05,3.56685e-05,-1.57593e-05,0.00026175,3.36827e-05,-1.4952e-05,1.10348e-05,-4.28703e-06,0
-8.68913e-06,3.68595e-05,-1.98391e-05,0.000233838,7.72796e-05,-2.98211e-05,8.18265e-06,-3.42938e-06,0
-1.41902e-06,3.81234e-05,-1.82631e-05,0.000223894,0.000157575,-3.89183e-05,7.59408e-06,-3.37881e-06,0
-2.33424e-07,3.78415e-05,-7.59061e-06,0.000214367,0.000214174,-4.29984e-05,8.50453e-06,-4.38802e-06,0
-2.73662e-06,3.461e-05,9.33297e-07,0.000157043,0.000184748,-4.36321e-05,9.24685e-06,-5.48946e-06,0
-8.86228e-06,2.88585e-05,-1.20897e-06,2.63365e-05,6.63088e-05,-4.37215e-05,9.53831e-06,-5.37423e-06,0
-1.55743e-05,2.10383e-05,-8.72802e-06,-0.000130531,-4.51935e-05,-4.04556e-05,9.53346e-06,-4.27965e-06,0
-2.05028e-05,1.19145e-05,-1.35642e-05,-0.000221316,-5.47439e-05,-3.23866e-05,8.50614e-06,-2.07381e-06,0
-2.29518e-05,4.30462e-06,-1.04519e-05,-0.000194455,2.82621e-05,-2.32935e-05,5.91238e-06,-9.77564e-08,0
-2.30191e-05,2.24671e-06,-6.56867e-08,-6.35051e-05,0.000126647,-2.03098e-05,2.69602e-06,5.26013e-07,0
-2.03214e-05,4.99684e-06,9.59337e-06,0.000103008,0.000173372,-2.23623e-05,1.23221e-06,2.33635e-07,0
-1.66686e-05,6.47448e-06,1.05082e-05,0.000219926,0.000146577,-9.56847e-06,-1.60525e-06,-4.99673e-07,0
-1.60421e-05,1.93867e-06,4.691e-06,0.00023648,7.12896e-05,3.24435e-05,-1.21604e-05,-1.24327e-06,0
-2.08289e-05,-5.51045e-06,-3.47604e-06,0.000178707,-1.56452e-05,8.59029e-05,-2.77281e-05,-1.06955e-06,0
-3.16373e-05,-1.03804e-05,-1.20949e-05,0.000112684,-0.000106579,0.000109316,-3.90935e-05,1.87322e-06,0
-5.1474e-05,-1.19176e-05,-1.97743e-05,4.25336e-05,-0.000188096,7.78482e-05,-4.11351e-05,1.17146e-05,0
-7.85393e-05,-1.29171e-05,-2.38045e-05,-5.14951e-05,-0.000216147,2.26488e-05,-3.37469e-05,3.09681e-05,0
-9.84912e-05,-1.11055e-05,-2.27752e-05,-0.000121393,-0.000163853,-5.1777e-06,-1.9024e-05,4.67493e-05,0
-0.000104603,-2.92017e-06,-1.5529e-05,-0.000143113,-7.54925e-05,2.11785e-07,1.92378e-06,4.68197e-05,0
-0.000102758,7.63779e-06,-5.23443e-06,-0.000153209,-1.16477e-05,1.46049e-05,2.62411e-05,3.49175e-05,0
-9.66054e-05,1.3547e-05,3.08843e-07,-0.00013715,1.99537e-05,2.34272e-05,5.47425e-05,1.08187e-05,0
-8.79772e-05,1.28848e-05,-1.31069e-07,-0.000104125,3.98565e-05,2.13054e-05,8.05355e-05,-1.79878e-05,0
-7.45964e-05,1.17221e-05,-5.07982e-07,-8.30781e-05,5.31922e-05,5.65085e-06,9.23522e-05,-3.90982e-05,0
-4.5015e-05,1.29514e-05,1.77196e-06,-5.72701e-05,5.89886e-05,-1.31658e-05,9.32395e-05,-4.56778e-05,0
3.21478e-06,1.3438e-05,1.10094e-06,-4.46372e-05,4.20742e-05,-2.12685e-05,8.41342e-05,-3.80059e-05,0
3.85529e-05,1.10748e-05,-1.07495e-06,-2.02288e-05,-7.68668e-06,-8.53993e-06,7.03477e-05,-2.87892e-05,0
3.01514e-05,3.74853e-06,-3.7198e-06,2.78973e-05,-5.68628e-05,1.16665e-05,5.83761e-05,-2.43549e-05,0
-5.73925e-06,-3.00272e-06,-8.45795e-06,8.60501e-05,-7.62728e-05,-1.49127e-06,4.82529e-05,-2.09618e-05,0
-3.09588e-05,-4.12375e-06,-1.06259e-05,0.000132789,-5.95753e-05,-4.36368e-05,3.68276e-05,-1.52819e-05,0
-3.15538e-05,-5.35327e-07,-7.59272e-06,0.000118212,-1.90718e-05,-6.48325e-05,2.59624e-05,-1.10123e-05,0
-2.23619e-05,5.35724e-06,-3.65882e-06,3.40213e-05,2.47604e-05,-5.86777e-05,1.96186e-05,-8.83676e-06,0
-1.94721e-05,9.8014e-06,-2.59479e-06,-6.24607e-05,5.98838e-05,-5.05689e-05,1.66504e-05,-7.07632e-06,0
-2.40821e-05,1.00543e-05,-2.45734e-07,-9.25173e-05,8.00882e-05,-5.03719e-05,1.51499e-05,-4.57976e-06,0
-2.7221e-05,7.11599e-06,3.35156e-06,-6.06048e-05,7.80478e-05,-5.00388e-05,1.29351e-05,-2.15822e-06,0
-2.34556e-05,5.53341e-06,3.77534e-06,-2.16163e-05,4.23967e-05,-3.89545e-05,9.16523e-06,1.24938e-06,0
-1.61439e-05,6.76939e-06,1.15103e-06,-3.55595e-06,-2.19387e-05,-2.23599e-05,4.0003e-06,6.47306e-06,0
-1.30808e-05,8.52807e-06,4.3853e-07,3.62493e-06,-8.9606e-05,-1.29727e-05,7.5403e-07,9.57576e-06,0
-1.68349e-05,7.87667e-06,2.81971e-06,-2.15084e-06,-0.00013597,-1.55221e-05,-1.17148e-07,9.57468e-06,0
-2.05363e-05,6.24557e-06,4.29093e-06,-1.98901e-05,-0.000147782,-2.21857e-05,-1.30513e-06,8.25537e-06,0
-1.41803e-05,6.68701e-06,1.77963e-06,-3.30417e-05,-0.000110159,-2.54822e-05,-5.60206e-06,7.79043e-06,0
5.13249e-06,1.09395e-05,-3.1874e-06,-4.0409e-05,-2.93802e-05,-2.38816e-05,-1.47429e-05,9.0729e-06,0
3.17503e-05,1.88601e-05,-8.39365e-06,-5.24837e-05,4.21807e-05,-2.02298e-05,-3.12914e-05,1.11501e-05,0
5.52415e-05,2.94908e-05,-1.30993e-05,-4.99518e-05,5.58792e-05,-1.5232e-05,-5.12416e-05,1.10954e-05,0
6.08508e-05,3.78321e-05,-1.5464e-05,-3.12986e-05,2.12977e-05,-5.87212e-06,-6.40641e-05,9.61773e-06,0
4.37109e-05,4.11426e-05,-1.55763e-05,-3.81005e-05,-1.21997e-05,1.06112e-05,-6.21566e-05,7.75715e-06,0
9.79043e-06,3.98761e-05,-1.40065e-05,-6.32397e-05,-1.62418e-05,2.46273e-05,-4.8955e-05,6.21415e-06,0
-3.57585e-05,3.15218e-05,-1.26767e-05,-6.52195e-05,2.24349e-07,1.96896e-05,-3.36991e-05,5.0153e-06,0
-8.12108e-05,1.68598e-05,-1.29296e-05,-2.26435e-05,2.37632e-05,-9.46871e-07,-1.70934e-05,2.42511e-06,0
-0.000105154,1.1324e-05,-1.49304e-05,3.25103e-05,4.37153e-05,-1.30733e-05,1.6208e-06,5.00836e-07,0
-0.000106656,3.21508e-05,-1.68668e-05,4.01898e-05,6.52844e-05,-4.07449e-06,2.3165e-05,-2.04546e-07,0
-0.000103067,6.1422e-05,-2.09534e-05,-8.62348e-05,8.53351e-05,7.15115e-06,4.4499e-05,-1.39061e-06,0
-9.96231e-05,6.92378e-05,-2.83245e-05,-0.00026739,8.79253e-05,3.49509e-06,5.86504e-05,-8.08633e-07,0
-9.69839e-05,5.07648e-05,-3.49226e-05,-0.00022158,8.97273e-05,-5.62461e-06,6.61006e-05,2.72083e-07,0
-9.03719e-05,1.60515e-05,-3.99047e-05,9.24561e-05,9.62276e-05,-9.96745e-06,6.55412e-05,6.02958e-07,0
-7.68452e-05,-2.09264e-05,-4.32362e-05,0.000433661,9.53302e-05,-1.18121e-05,5.73791e-05,3.94311e-07,0
-5.32824e-05,-4.83649e-05,-4.44954e-05,0.000576462,7.88253e-05,-1.30361e-05,4.55706e-05,1.06932e-06,0
-2.15482e-05,-6.10531e-05,-4.05066e-05,0.000506799,4.64785e-05,-1.51061e-05,3.51832e-05,2.71237e-06,0
7.24516e-06,-6.1337e-05,-2.94609e-05,0.000323007,1.59106e-05,-1.84955e-05,3.0651e-05,5.02101e-06,0
2.07619e-05,-5.49646e-05,-1.59063e-05,8.11561e-05,2.18276e-06,-2.59561e-05,3.05981e-05,1.12347e-05,0
1.75554e-05,-4.48492e-05,-9.05082e-06,-0.00016854,1.60187e-06,-3.57752e-05,3.0958e-05,1.78881e-05,0
7.78832e-06,-3.23299e-05,-1.10415e-05,-0.000282276,1.27231e-05,-3.21582e-05,2.90143e-05,2.43357e-05,0
-2.85102e-06,-2.05839e-05,-1.26721e-05,-0.000183409,3.60217e-05,-7.66321e-06,2.44164e-05,3.67642e-05,0
-7.34855e-06,-1.21407e-05,-7.95068e-06,1.22658e-05,5.72853e-05,1.82124e-05,1.713e-05,5.09254e-05,0
-3.72895e-06,-4.68227e-06,-4.92024e-07,0.000159852,6.91881e-05,2.37757e-05,9.60536e-06,5.0192e-05,0
8.08772e-08,5.12765e-06,5.49267e-06,0.000178434,7.59863e-05,1.08804e-05,3.67263e-06,3.05634e-05,0
-7.63451e-06,1.51216e-05,1.19001e-05,7.05503e-05,7.09586e-05,-8.20028e-06,9.03941e-07,6.7653e-06,0
-2.58555e-05,1.99743e-05,2.0442e-05,-0.000123772,4.77714e-05,-2.92522e-05,2.06976e-06,-8.16051e-06,0
-4.37438e-05,2.09155e-05,2.67368e-05,-0.000301254,2.30436e-05,-4.47607e-05,5.24543e-06,-1.44462e-05,0
-5.10922e-05,2.35468e-05,2.10894e-05,-0.000341691,1.57757e-05,-3.1625e-05,6.04038e-06,-1.84738e-05,0
-5.43261e-05,2.71091e-05,1.92776e-06,-0.000227256,3.09344e-05,1.92105e-05,4.72396e-06,-2.30275e-05,0
-6.25172e-05,2.50268e-05,-1.88561e-05,-6.24847e-05,5.59336e-05,6.05168e-05,2.32736e-06,-2.52889e-05,0
-7.16489e-05,1.64789e-05,-2.9779e-05,6.98565e-05,5.79776e-05,4.11268e-05,4.54749e-07,-2.26376e-05,0
-7.58367e-05,8.57747e-06,-2.92951e-05,0.000116346,2.88768e-05,-1.26744e-05,3.88253e-06,-1.75498e-05,0
-7.33626e-05,2.58346e-06,-2.40665e-05,8.59168e-05,9.53962e-06,-4.65959e-05,1.38174e-05,-1.06772e-05,0
-6.60134e-05,-3.93702e-06,-1.93524e-05,3.02864e-05,-5.87449e-06,-5.65142e-05,2.39415e-05,4.47719e-07,0
-5.85762e-05,-7.91275e-06,-1.4442e-05,-3.68304e-05,-4.64047e-05,-6.17491e-05,2.72373e-05,9.82102e-06,0
-5.12984e-05,-5.93362e-06,-9.44549e-06,-0.000148155,-7.61887e-05,-5.44306e-05,2.51721e-05,1.365e-05,0
-3.74047e-05,4.26399e-07,-6.19249e-06,-0.000254233,-6.73347e-05,-2.61675e-05,2.09272e-05,1.57043e-05,0
-2.24397e-05,5.15216e-06,-1.06203e-06,-0.000229965,-4.7608e-05,4.29517e-06,1.35101e-05,1.43317e-05,0
-9.22989e-06,8.03137e-06,8.06264e-06,-0.000100756,-3.03036e-05,2.21746e-05,5.10486e-06,1.10062e-05,0
3.27221e-06,1.3751e-05,2.31806e-05,3.81516e-05,1.18205e-06,2.85659e-05,-1.35043e-06,7.62786e-06,0
6.18528e-06,1.97217e-05,4.511e-05,0.000107144,4.37138e-05,1.98455e-05,-6.54484e-06,4.76652e-06,0
-5.36853e-06,2.07442e-05,6.25368e-05,8.29995e-05,6.86077e-05,-2.28683e-06,-1.06341e-05,4.51701e-06,0
-2.19941e-05,1.75125e-05,6.22563e-05,1.43515e-05,5.58009e-05,-2.70035e-05,-1.21018e-05,6.27003e-06,0
-3.18094e-05,1.11027e-05,4.13026e-05,-4.23556e-05,2.31488e-05,-4.21145e-05,-9.5708e-06,9.68844e-06,0
-3.13795e-05,5.49476e-06,6.17005e-06,-7.65519e-05,-6.29846e-06,-4.14292e-05,-5.51993e-06,1.56951e-05,0
-2.59016e-05,4.57288e-06,-3.34297e-05,-9.91363e-05,-2.30964e-05,-3.42525e-05,-1.32339e-06,2.2064e-05,0
-2.49158e-05,7.33806e-06,-6.696e-05,-0.000118655,-2.6329e-05,-3.01926e-05,1.23732e-06,2.32204e-05,0
-3.29379e-05,1.06818e-05,-8.61532e-05,-0.000136727,-1.75999e-05,-2.43453e-05,2.77421e-06,1.91482e-05,0
-4.53419e-05,1.20571e-05,-8.78197e-05,-0.000156623,5.22471e-07,-1.45305e-05,5.35177e-06,1.30221e-05,0
-5.39887e-05,1.32747e-05,-7.41623e-05,-0.000163014,2.3792e-05,-1.0696e-05,8.08664e-06,5.53012e-06,0
-5.55543e-05,1.65182e-05,-5.36176e-05,-0.000124452,4.14727e-05,-1.36985e-05,9.73196e-06,-3.42406e-06,0
-5.37258e-05,2.08638e-05,-3.87964e-05,-4.2158e-05,3.90504e-05,-1.7202e-05,1.10172e-05,-1.26047e-05,0
-5.28486e-05,2.15027e-05,-3.38529e-05,3.7521e-05,1.95388e-05,-1.99275e-05,1.23753e-05,-1.807e-05,0
-5.20771e-05,1.74076e-05,-3.07286e-05,9.30393e-05,-1.14313e-06,-2.26117e-05,1.29244e-05,-1.80491e-05,0
-4.73444e-05,1.06077e-05,-2.4006e-05,0.000140534,-9.43474e-06,-2.04315e-05,1.37902e-05,-1.73247e-05,0
-3.68504e-05,3.62568e-06,-1.66898e-05,0.000170605,5.73411e-06,-1.64495e-05,1.37592e-05,-1.89862e-05,0
-2.50775e-05,1.14643e-06,-1.14331e-05,0.000173499,4.40936e-05,-1.20043e-05,1.0819e-05,-1.92707e-05,0
-1.73129e-05,4.10795e-06,-7.53124e-06,0.000141252,7.17715e-05,1.19463e-05,6.34817e-06,-1.55655e-05,0
-1.66911e-05,8.74336e-06,-5.84946e-06,5.86357e-05,6.21858e-05,4.13111e-05,3.89918e-07,-1.03518e-05,0
-2.37002e-05,1.11079e-05,-5.59616e-06,-4.11045e-05,3.31116e-05,3.60177e-05,-6.2734e-06,-7.31187e-06,0
-2.98384e-05,9.55719e-06,-5.49424e-06,-6.5051e-05,7.07557e-06,3.61946e-06,-1.09234e-05,-7.13799e-06,0
-3.16594e-05,7.38564e-06,-8.46857e-06,-2.29444e-05,-1.50851e-05,-2.20295e-05,-1.08524e-05,-6.23069e-06,0
-3.49213e-05,5.00711e-06,-1.80609e-05,1.29658e-05,-4.45731e-05,-3.32725e-05,-5.90365e-06,-3.36043e-06,0
-3.78357e-05,-7.50433e-08,-3.07814e-05,4.58191e-05,-7.22399e-05,-3.77719e-05,6.63413e-07,-5.99805e-07,0
-3.8763e-05,-2.78245e-06,-3.71045e-05,4.05711e-05,-7.79465e-05,-3.48777e-05,9.14786e-06,4.0028e-07,0
-3.92312e-05,-6.91593e-07,-3.53232e-05,-5.68876e-05,-6.81319e-05,-2.85008e-05,1.78412e-05,-8.74455e-07,0
-3.73202e-05,1.80016e-06,-2.94452e-05,-0.000203353,-5.39272e-05,-2.17601e-05,2.47858e-05,-1.41664e-06,0
-3.4157e-05,4.19294e-06,-2.06927e-05,-0.000248408,-2.6944e-05,-1.33996e-05,3.02441e-05,2.36407e-06,0
-3.0972e-05,7.83189e-06,-8.22573e-06,-0.000120171,2.58919e-05,-1.18967e-06,3.25498e-05,1.1657e-05,0
-2.77063e-05,1.33238e-05,6.49355e-06,5.33865e-05,8.96693e-05,1.30018e-05,3.24257e-05,1.9344e-05,0
-2.38943e-05,1.94601e-05,1.63067e-05,0.000147539,0.000132522,2.20513e-05,3.03233e-05,1.81471e-05,0
-2.03676e-05,2.42767e-05,1.91317e-05,0.000171987,0.000132937,2.25845e-05,2.60363e-05,1.14573e-05,0
-1.81607e-05,2.83882e-05,2.013e-05,0.000220663,0.000100661,1.83471e-05,2.18035e-05,5.39634e-06,0
-1.75875e-05,3.17194e-05,2.26512e-05,0.000298932,6.70287e-05,1.45288e-05,1.9693e-05,7.50259e-07,0
-1.92278e-05,3.37905e-05,2.48792e-05,0.000335094,5.05217e-05,1.2264e-05,1.97038e-05,-3.45771e-06,0
-2.03963e-05,3.49993e-05,2.53197e-05,0.00030071,4.64751e-05,1.17551e-05,2.03398e-05,-6.15961e-06,0
-1.98267e-05,3.62601e-05,2.3817e-05,0.000217868,3.82439e-05,1.0971e-05,1.8326e-05,-8.46966e-06,0
-1.86606e-05,3.57574e-05,1.9647e-05,0.000110677,2.80082e-05,9.69602e-06,1.01901e-05,-1.11577e-05,0
-1.80229e-05,3.28702e-05,1.42515e-05,-1.6359e-05,3.18557e-05,6.78152e-06,-2.19723e-06,-1.2043e-05,0
-1.83558e-05,3.07576e-05,9.25603e-06,-0.00013476,4.51691e-05,4.11078e-06,-1.22909e-05,-9.67249e-06,0
-2.02503e-05,3.06789e-05,3.03104e-06,-0.000194178,4.6754e-05,1.1618e-06,-1.60446e-05,-5.82693e-06,0
-2.26321e-05,3.03859e-05,-5.24498e-06,-0.000175933,3.7019e-05,-2.64736e-06,-1.49973e-05,-2.79745e-06,0
-2.45428e-05,2.90735e-05,-1.15555e-05,-0.000138337,2.82429e-05,-6.83311e-06,-1.12364e-05,-1.49382e-08,0
-2.68427e-05,3.09144e-05,-1.32918e-05,-0.000131707,1.84444e-05,-1.20148e-05,-3.32151e-06,4.15324e-06,0
-2.78289e-05,4.1002e-05,-1.07443e-05,-0.000135875,4.21474e-07,-1.6718e-05,7.70493e-06,7.0774e-06,0
-2.50385e-05,5.4702e-05,-5.52657e-06,-9.02556e-05,-2.32654e-05,-1.7466e-05,1.86651e-05,6.77085e-06,0
-2.34789e-05,6.04229e-05,-1.36644e-06,1.33564e-05,-4.42651e-05,-1.52062e-05,2.91896e-05,7.26032e-06,0
-2.72369e-05,4.79694e-05,-2.9304e-06,8.53997e-05,-5.51844e-05,-1.25442e-05,3.71932e-05,1.14747e-05,0
-3.08632e-05,2.35839e-05,-8.21318e-06,3.63481e-05,-5.90169e-05,-1.17465e-05,4.25698e-05,1.42905e-05,0
-3.03373e-05,1.1112e-06,-1.53267e-05,-8.62519e-05,-6.7871e-05,-1.46033e-05,4.66067e-05,1.29062e-05,0
-2.82971e-05,-1.63623e-05,-2.66545e-05,-0.000195729,-8.34914e-05,-1.87203e-05,4.8548e-05,1.09953e-05,0
-2.56641e-05,-2.5754e-05,-3.95156e-05,-0.000272954,-9.5857e-05,-2.2233e-05,4.94807e-05,8.59735e-06,0
-2.3059e-05,-2.88718e-05,-4.89303e-05,-0.000230242,-8.63092e-05,-2.31111e-05,4.83868e-05,4.14674e-06,0
-2.12992e-05,-2.8654e-05,-4.82382e-05,2.37648e-05,-4.63302e-05,-2.26977e-05,4.40625e-05,-2.26904e-06,0
-2.00181e-05,-2.74926e-05,-3.49906e-05,0.000413371,4.22271e-06,-2.3706e-05,3.86157e-05,-9.05847e-06,0
-2.11002e-05,-2.59499e-05,-1.17818e-05,0.00069929,4.77134e-05,-2.40391e-05,3.40233e-05,-1.5646e-05,0
-2.3976e-05,-2.31687e-05,1.445e-05,0.000622888,8.38664e-05,-2.05527e-05,3.13107e-05,-2.08316e-05,0
-2.50696e-05,-1.62757e-05,3.47189e-05,0.000259833,0.000123846,-1.1213e-05,2.99426e-05,-1.97629e-05,0
-1.86768e-05,-4.68893e-06,4.65132e-05,-7.66103e-05,0.000194355,-4.92908e-07,2.81314e-05,-3.02534e-06,0
-8.81719e-07,5.00628e-06,4.73011e-05,-0.000253349,0.000284773,2.85485e-06,2.47201e-05,2.48783e-05,0
2.31624e-05,9.07551e-06,3.7205e-05,-0.000326154,0.000327377,4.4597e-07,1.91853e-05,4.32661e-05,0
3.99004e-05,8.14165e-06,2.30105e-05,-0.000370704,0.000284089,-2.89999e-06,1.28166e-05,4.3079e-05,0
4.23794e-05,7.06976e-06,1.02151e-05,-0.000404648,0.000179618,-3.98578e-06,8.05174e-06,2.72811e-05,0
3.27946e-05,8.70805e-06,-3.30464e-07,-0.00040003,4.85392e-05,-2.72667e-06,5.75235e-06,1.71816e-06,0
1.47399e-05,1.13703e-05,-8.61493e-06,-0.000271352,-8.5425e-05,-4.76147e-06,4.89734e-06,-2.55735e-05,0
-8.18892e-06,1.20508e-05,-1.36298e-05,-1.81922e-05,-0.000189242,-1.60356e-05,4.00479e-06,-4.50179e-05,0
-3.09084e-05,1.21317e-05,-1.26087e-05,0.000206981,-0.000229816,-3.04711e-05,1.55862e-06,-5.16844e-05,0
-4.93374e-05,1.4293e-05,-3.33084e-06,0.00027639,-0.000209112,-3.82229e-05,-2.04944e-06,-4.75321e-05,0
-6.17444e-05,1.77045e-05,7.02502e-06,0.000201499,-0.000152812,-3.71743e-05,-2.78517e-06,-3.87586e-05,0
-6.78393e-05,1.79702e-05,1.04937e-05,5.35436e-05,-8.48127e-05,-3.25072e-05,1.3991e-06,-2.92909e-05,0
-7.23426e-05,1.62641e-05,1.0312e-05,-9.5127e-05,-3.68824e-05,-3.14953e-05,6.42255e-06,-1.83267e-05,0
-7.84846e-05,1.38115e-05,1.26516e-05,-0.000170574,-1.7474e-05,-3.396e-05,8.3511e-06,-6.36039e-06,0
-8.49971e-05,9.91413e-06,1.61385e-05,-0.000161825,-1.10946e-05,-3.40067e-05,9.0964e-06,2.83109e-06,0
-9.02487e-05,6.31578e-06,1.50684e-05,-0.000133673,-1.49085e-05,-1.97043e-05,9.93305e-06,4.82438e-06,0
-9.21898e-05,4.65349e-07,6.84482e-06,-0.000116957,-3.21872e-05,6.57357e-06,1.07044e-05,1.29589e-06,0
-8.93497e-05,-5.85136e-06,-2.0856e-06,-3.35442e-05,-7.12379e-05,3.11304e-05,1.19902e-05,-2.95576e-06,0
-8.62778e-05,-7.51349e-06,-7.73515e-06,0.000100921,-0.000135269,3.96602e-05,1.23798e-05,-1.2882e-06,0
-8.10399e-05,-5.64354e-06,-1.56885e-05,0.000140641,-0.00022223,1.64876e-05,1.35149e-05,6.91372e-06,0
-6.83596e-05,-2.52521e-06,-2.34763e-05,6.99609e-05,-0.000259786,-1.62576e-05,1.42229e-05,1.23679e-05,0
-5.49701e-05,9.87578e-07,-2.53169e-05,-1.57446e-05,-0.000165917,-3.12093e-05,1.25251e-05,1.0855e-05,0
-4.51349e-05,4.26676e-06,-2.05573e-05,-6.71565e-05,1.21121e-05,-2.79178e-05,1.07674e-05,4.97001e-06,0
-3.89794e-05,6.65431e-06,-1.65225e-05,-0.000103113,0.000160865,-1.36135e-05,9.77525e-06,1.83587e-07,0
-3.59147e-05,7.66414e-06,-1.83983e-05,-0.000130178,0.000205303,-9.52099e-07,9.57367e-06,-1.03143e-06,0
-3.53268e-05,9.04773e-06,-1.88689e-05,-9.64472e-05,0.000164349,3.22392e-06,1.01079e-05,-2.49211e-07,0
-3.4416e-05,1.14487e-05,-1.52478e-05,-6.85802e-06,0.000115417,-4.51503e-07,1.13058e-05,-7.48154e-08,0
-3.15303e-05,1.69118e-05,-1.37992e-05,4.82644e-05,0.000101582,-2.51318e-06,1.15126e-05,-1.01915e-06,0
-2.77711e-05,2.30377e-05,-1.57844e-05,4.99069e-05,0.000105371,-4.99337e-07,1.09158e-05,-3.0245e-06,0
-2.41703e-05,2.68737e-05,-1.54534e-05,6.89745e-05,0.000110353,3.32694e-06,1.06077e-05,-6.35545e-06,0
-2.27304e-05,2.87741e-05,-1.11063e-05,0.000123145,0.000116775,8.56023e-06,1.00769e-05,-8.48781e-06,0
-2.3204e-05,2.92689e-05,-6.16081e-06,0.000163475,0.000121251,1.37357e-05,9.3448e-06,-7.776e-06,0
-2.44419e-05,2.93121e-05,-3.17711e-06,0.000160846,0.000120165,1.63234e-05,9.0716e-06,-5.40378e-06,0
-2.39036e-05,3.03292e-05,-4.03822e-06,0.000132649,0.000100413,1.69541e-05,9.21506e-06,-3.64436e-06,0
-2.20477e-05,3.30301e-05,-1.13023e-05,6.54519e-05,3.99765e-05,1.68154e-05,8.68109e-06,-3.22474e-06,0
-2.15359e-05,3.3476e-05,-2.26745e-05,-8.52843e-05,-4.74495e-05,1.42197e-05,7.59221e-06,-3.50488e-06,0
-2.34463e-05,2.95787e-05,-3.32785e-05,-0.000277852,-0.000110653,1.05014e-05,6.35637e-06,-3.39122e-06,0
-2.60597e-05,2.37019e-05,-4.05887e-05,-0.000395111,-0.000127328,7.85945e-06,4.83595e-06,-3.20376e-06,0
-2.90033e-05,1.87885e-05,-4.4185e-05,-0.000365661,-0.000113395,3.22641e-06,2.68753e-06,-1.54349e-06,0
-3.18955e-05,1.55162e-05,-4.45932e-05,-0.000157647,-8.95062e-05,-1.28428e-05,2.3372e-07,1.36192e-06,0
-3.2513e-05,1.39004e-05,-4.04029e-05,0.000186925,-6.1616e-05,-3.87593e-05,-2.18933e-06,2.32995e-06,0
-2.93318e-05,1.51355e-05,-2.97702e-05,0.000505324,-2.17767e-05,-5.13842e-05,-8.91041e-06,1.3246e-06,0
-2.43302e-05,1.88079e-05,-1.35639e-05,0.000652941,2.2892e-05,-3.97598e-05,-2.12543e-05,1.64563e-06,0
-1.97504e-05,2.22751e-05,2.58249e-06,0.000545036,5.082e-05,-2.40048e-05,-3.04907e-05,4.33405e-06,0
-1.55138e-05,2.55947e-05,1.14853e-05,0.000236991,6.28632e-05,-1.3563e-05,-3.06822e-05,5.7805e-06,0
-1.26159e-05,2.67478e-05,9.26622e-06,-8.55378e-05,6.61957e-05,-1.08429e-05,-2.50499e-05,5.74469e-06,0
-1.16645e-05,2.65856e-05,-1.62913e-06,-0.00033366,6.17069e-05,-1.36867e-05,-1.54294e-05,6.4438e-06,0
-1.21768e-05,2.5144e-05,-1.05395e-05,-0.000440053,5.37831e-05,-8.78435e-06,-8.15724e-07,6.33172e-06,0
-1.39354e-05,2.25872e-05,-1.13258e-05,-0.000332258,4.85025e-05,5.12564e-06,1.65767e-05,5.48484e-06,0
-1.53832e-05,2.33741e-05,-5.51169e-06,-6.95896e-05,6.15894e-05,1.04846e-05,2.97799e-05,6.23317e-06,0
-1.19235e-05,2.55221e-05,-3.35392e-07,0.000134625,0.000112225,6.49829e-07,3.42563e-05,7.93458e-06,0
-3.65217e-06,2.60299e-05,-2.2929e-06,0.000117364,0.000155924,-1.17204e-05,3.47057e-05,9.44363e-06,0
1.85127e-06,2.46002e-05,-9.29985e-06,-4.06994e-05,0.000140109,-1.72457e-05,3.49599e-05,1.0506e-05,0
-1.2711e-06,2.32198e-05,-1.5149e-05,-0.000147575,7.71636e-05,-1.61069e-05,3.62703e-05,1.01896e-05,0
-1.26162e-05,2.16731e-05,-1.74868e-05,-9.94545e-05,-9.99105e-06,-1.57949e-05,3.87971e-05,1.00663e-05,0
-2.76374e-05,1.92597e-05,-1.89363e-05,4.5724e-05,-9.28606e-05,-1.97113e-05,4.29808e-05,1.07109e-05,0
-3.98453e-05,1.65088e-05,-1.8911e-05,0.000172521,-0.000141748,-2.42962e-05,4.94153e-05,1.09371e-05,0
-4.54994e-05,1.52135e-05,-1.49639e-05,0.000212696,-0.000136993,-2.32105e-05,5.42091e-05,9.82589e-06,0
-4.50813e-05,1.57081e-05,-8.03862e-06,0.000184637,-8.79189e-05,-1.84845e-05,5.49481e-05,8.01888e-06,0
-4.25112e-05,1.50592e-05,-2.00861e-06,0.000137211,-2.78156e-05,-1.6994e-05,5.17274e-05,7.05378e-06,0
-3.81995e-05,1.33922e-05,3.71783e-06,8.41779e-05,1.42959e-05,-2.07144e-05,4.55207e-05,6.47929e-06,0
-2.82618e-05,1.47437e-05,1.09945e-05,-1.5613e-05,3.65076e-05,-2.226e-05,3.75152e-05,5.82491e-06,0
-1.56227e-05,2.06927e-05,1.72874e-05,-0.00017608,4.6421e-05,-1.77162e-05,2.96857e-05,6.45675e-06,0
-8.33686e-06,2.80724e-05,1.70532e-05,-0.000307745,4.9818e-05,-1.0296e-05,2.20771e-05,9.6829e-06,0
-5.77208e-06,3.40698e-05,8.13201e-06,-0.000309808,5.44527e-05,-2.82822e-06,1.0459e-05,1.24358e-05,0
-4.15316e-06,3.68781e-05,-2.79772e-06,-0.000193605,4.52592e-05,8.84181e-07,-8.56141e-06,1.30006e-05,0
-4.97466e-06,3.80956e-05,-5.04547e-06,-4.78555e-05,1.61488e-05,-4.10271e-06,-3.05308e-05,1.14858e-05,0
-8.02106e-06,4.10828e-05,-3.63313e-07,2.44577e-05,-3.38131e-06,-1.3326e-05,-4.49643e-05,1.01653e-05,0
-1.31103e-05,4.32036e-05,8.9163e-07,-1.65808e-05,5.11587e-06,-1.64565e-05,-4.73847e-05,9.65601e-06,0
-2.08234e-05,3.96702e-05,-5.74086e-06,-0.000110254,1.88562e-05,-1.04988e-05,-4.17845e-05,9.19945e-06,0
-3.02553e-05,3.11112e-05,-1.69605e-05,-0.000192553,1.57475e-05,1.99351e-05,-3.14058e-05,8.16217e-06,0
-3.9925e-05,2.06316e-05,-2.45948e-05,-0.000198259,2.01781e-06,4.90311e-05,-1.6183e-05,8.19915e-06,0
-3.87058e-05,1.22535e-05,-2.67886e-05,-0.000111787,-6.8822e-06,3.17511e-05,1.63399e-06,8.31218e-06,0
-1.95752e-05,1.48498e-05,-2.56133e-05,2.02373e-05,-1.35794e-05,2.54638e-06,1.95922e-05,6.63869e-06,0
1.6949e-06,2.73676e-05,-1.87007e-05,0.00017433,-1.41247e-05,-4.29157e-06,3.42575e-05,7.06871e-06,0
9.75255e-06,3.53901e-05,-6.58911e-06,0.000283523,7.80693e-06,1.60487e-07,4.20681e-05,8.14565e-06,0
6.60534e-06,3.4304e-05,3.80505e-06,0.000255801,3.85677e-05,3.8191e-06,4.42986e-05,8.5255e-06,0
-1.09848e-05,2.09836e-05,6.73192e-06,0.000145588,4.60433e-05,2.37076e-06,4.24205e-05,7.22605e-06,0
-4.26269e-05,-9.51232e-06,1.58397e-06,5.12237e-05,2.77768e-05,-2.72342e-06,3.73813e-05,6.07223e-06,0
-7.23598e-05,-4.96569e-05,-8.51437e-06,1.83105e-05,7.91217e-06,-1.25024e-05,3.2107e-05,7.01954e-06,0
-9.35384e-05,-8.00598e-05,-1.63961e-05,5.18794e-05,-3.44047e-06,-2.9199e-05,2.92145e-05,8.59829e-06,0
-0.000109864,-8.66936e-05,-1.61536e-05,0.000102426,-1.16841e-05,-4.49768e-05,2.84604e-05,9.26257e-06,0
-0.000123827,-7.56219e-05,-9.24714e-06,0.000105699,-2.33785e-05,-4.85761e-05,2.813e-05,8.43634e-06,0
-0.000131538,-5.96735e-05,-1.41434e-06,3.11853e-05,-4.08746e-05,-4.42256e-05,2.58154e-05,6.03317e-06,0
-0.000131072,-4.46888e-05,4.35372e-06,-7.02284e-05,-6.49426e-05,-4.39707e-05,2.04171e-05,3.07487e-06,0
-0.000122335,-3.15483e-05,1.05969e-05,-0.000125937,-9.23212e-05,-5.76303e-05,1.42121e-05,9.25326e-07,0
-0.000106113,-2.24711e-05,1.95175e-05,-0.00010352,-9.91051e-05,-8.87919e-05,9.19736e-06,-1.84358e-06,0
-8.31558e-05,-1.68111e-05,3.39672e-05,-1.82322e-05,-5.63075e-05,-0.000111881,7.28685e-06,-4.87394e-06,0
-5.52872e-05,-1.25679e-05,5.35645e-05,6.61965e-05,2.67075e-05,-7.66562e-05,9.00962e-06,-7.48147e-06,0
-2.84715e-05,-9.96725e-06,6.87359e-05,8.78361e-05,0.000107845,8.59611e-06,1.0674e-05,-8.21826e-06,0
-8.16203e-06,-9.1136e-06,6.66902e-05,4.79311e-05,0.000159857,6.77622e-05,8.80645e-06,-7.3491e-06,0
1.81023e-06,-8.79088e-06,4.20465e-05,-2.34704e-05,0.000169516,8.03942e-05,5.70023e-06,-7.08119e-06,0
-5.06867e-07,-8.69994e-06,7.82978e-07,-0.000101717,0.000137062,8.2716e-05,3.25815e-06,-6.72097e-06,0
-7.0989e-06,-8.71781e-06,-4.59016e-05,-0.000148575,9.91055e-05,7.43696e-05,3.6063e-07,-3.90548e-06,0
-7.08962e-06,-7.09151e-06,-8.54965e-05,-9.31737e-05,8.04459e-05,5.32122e-05,-2.36164e-06,2.73238e-07,0
-1.8685e-06,-3.54304e-06,-0.00010418,5.15216e-05,6.07549e-05,3.56343e-05,-3.27779e-06,2.61744e-06,0
3.5422e-06,1.85474e-06,-9.96896e-05,0.000151393,2.20363e-05,2.68662e-05,-1.33746e-06,3.48906e-06,0
4.67175e-06,9.33723e-06,-7.95001e-05,0.000138138,-2.85484e-05,1.6658e-05,2.40364e-06,2.34303e-06,0
1.25596e-06,1.4256e-05,-6.07679e-05,2.85021e-05,-4.66556e-05,-4.61404e-06,4.26717e-06,-3.27619e-06,0
-7.53952e-06,1.35464e-05,-5.38443e-05,-8.89762e-05,-2.29467e-05,-3.53297e-05,3.58984e-06,-7.38776e-06,0
-1.92129e-05,1.11664e-05,-5.45143e-05,-0.000126229,1.13433e-05,-6.55871e-05,3.15019e-06,-7.60035e-06,0
-2.77576e-05,1.03994e-05,-5.92245e-05,-0.000102347,4.75302e-05,-7.97861e-05,1.23394e-06,-7.31024e-06,0
-3.18309e-05,1.31559e-05,-5.73645e-05,-6.53816e-05,4.81914e-05,-7.48407e-05,-2.72719e-06,-7.62872e-06,0
-2.98316e-05,1.8532e-05,-4.3979e-05,-7.77331e-05,9.42141e-06,-5.86553e-05,-4.4519e-06,-8.19488e-06,0
-2.08676e-05,2.45784e-05,-2.05852e-05,-0.000128506,-2.85144e-05,-4.0445e-05,3.26113e-07,-7.35972e-06,0
-1.07784e-05,2.96346e-05,3.00112e-07,-0.000170216,-4.72306e-05,-2.56637e-05,8.4642e-06,-4.15396e-06,0
-6.01629e-06,3.23019e-05,5.64932e-06,-0.000182293,-5.86549e-05,-1.47006e-05,1.43396e-05,-4.23585e-07,0
-4.69231e-06,3.27006e-05,-4.7783e-07,-0.000130166,-6.95279e-05,-1.49452e-06,1.73859e-05,-1.60764e-07,0
-4.41415e-06,3.24185e-05,-3.56603e-06,-2.42998e-05,-6.78575e-05,1.37326e-05,1.83675e-05,-9.94651e-07,0
