ch1,ch2,ch3,ch4,ch5,ch6,ch7,ch8,class
-2.80072e-05,2.13797e-05,-1.26136e-05,-1.85681e-06,1.5776e-05,-1.0238e-05,5.01862e-05,6.39539e-06,0
-2.92954e-05,1.95377e-05,-1.2177e-05,-4.89384e-07,1.70971e-05,-1.02389e-05,5.21241e-05,4.367e-06,0
-3.18713e-05,1.8269e-05,-1.0091e-05,-4.52344e-06,1.57623e-05,-1.02599e-05,4.30407e-05,3.61996e-06,0
-3.37017e-05,1.75705e-05,-9.00765e-06,-1.33328e-05,1.16211e-05,-1.05187e-05,3.00956e-05,4.19905e-06,0
-3.40412e-05,1.54309e-05,-1.0062e-05,-1.9396e-05,6.94892e-06,-1.00737e-05,2.01035e-05,3.78419e-06,0
-3.423e-05,1.35574e-05,-1.17006e-05,-1.94428e-05,5.16817e-06,-8.58178e-06,1.16586e-05,2.69801e-06,0
-3.3739e-05,1.34858e-05,-1.08882e-05,-1.59946e-05,5.53076e-06,-5.89002e-06,2.90994e-06,2.41559e-06,0
-3.2511e-05,1.45427e-05,-8.07157e-06,-1.04833e-05,6.98277e-06,-1.60709e-06,-5.34471e-06,1.74769e-06,0
-3.20297e-05,1.5042e-05,-6.97523e-06,-4.06446e-06,9.0653e-06,8.67459e-07,-9.70052e-06,-2.46251e-07,0
-3.19949e-05,1.51217e-05,-7.58056e-06,4.42227e-07,9.96304e-06,2.60641e-07,-1.04399e-05,-9.47093e-07,0
-3.06717e-05,1.50851e-05,-7.94451e-06,2.05718e-06,9.97942e-06,-6.90322e-07,-8.16647e-06,-7.76064e-07,0
-2.89333e-05,1.35094e-05,-8.05581e-06,1.42877e-06,8.951e-06,-2.06723e-07,-3.57163e-06,-8.6877e-07,0
-2.92071e-05,1.06955e-05,-9.03371e-06,1.97963e-07,8.92197e-06,1.27062e-06,-1.08968e-06,2.2382e-07,0
-3.08816e-05,1.10212e-05,-9.43013e-06,2.68472e-07,1.02946e-05,1.88645e-06,-1.30303e-06,1.74758e-06,0
-3.13758e-05,1.38042e-05,-8.65921e-06,3.14396e-06,1.24679e-05,5.07666e-07,-7.02537e-07,1.79027e-06,0
-3.12962e-05,1.62546e-05,-8.89872e-06,6.07242e-06,1.48811e-05,-1.41159e-06,2.80579e-06,2.10601e-06,0
-3.18513e-05,1.70873e-05,-1.01637e-05,5.33793e-06,1.52337e-05,-2.28106e-06,5.98303e-06,3.27964e-06,0
-3.31663e-05,1.6828e-05,-1.14938e-05,1.8452e-06,1.21963e-05,-2.25178e-06,6.54769e-06,4.32675e-06,0
-3.48198e-05,1.70449e-05,-1.26126e-05,-1.39664e-06,7.8503e-06,-2.80462e-06,4.60534e-06,3.95551e-06,0
-3.6272e-05,1.80003e-05,-1.24191e-05,-2.8186e-06,5.86232e-06,-4.23396e-06,2.52696e-06,2.55047e-06,0
-3.76194e-05,2.04113e-05,-1.00955e-05,-2.88372e-06,5.78305e-06,-5.47698e-06,1.14049e-06,2.00178e-06,0
-3.82033e-05,2.26852e-05,-7.79101e-06,-2.87807e-06,6.61221e-06,-5.18906e-06,1.0452e-06,2.48255e-06,0
-3.72877e-05,2.37505e-05,-6.08712e-06,-2.44059e-06,8.62973e-06,-4.41364e-06,1.49746e-06,2.56943e-06,0
-3.54002e-05,2.28059e-05,-4.64206e-06,-6.67875e-07,1.13063e-05,-5.27715e-06,2.90329e-06,2.20805e-06,0
-3.36703e-05,2.2318e-05,-4.03626e-06,6.87942e-07,1.25349e-05,-7.22747e-06,5.76958e-06,3.14533e-06,0
-3.22335e-05,2.32196e-05,-3.8674e-06,1.34653e-06,1.24209e-05,-9.0344e-06,9.75453e-06,4.35262e-06,0
-3.09583e-05,2.34136e-05,-2.27423e-06,2.31456e-06,1.23499e-05,-9.2783e-06,1.38329e-05,4.07895e-06,0
-2.98945e-05,2.16311e-05,-5.47452e-07,5.80194e-06,1.28021e-05,-7.48426e-06,1.6044e-05,2.69672e-06,0
-2.93787e-05,2.22447e-05,-2.75771e-07,1.63262e-05,1.24898e-05,-6.12907e-06,1.71626e-05,3.16922e-06,0
-2.93896e-05,2.61678e-05,-1.25888e-08,3.37435e-05,1.04046e-05,-5.86012e-06,1.74045e-05,4.80718e-06,0
-2.96588e-05,2.94788e-05,9.02744e-07,4.6432e-05,8.76544e-06,-6.33045e-06,1.75003e-05,5.66204e-06,0
-3.04331e-05,3.04465e-05,9.56084e-07,4.15629e-05,8.28477e-06,-6.98867e-06,1.93552e-05,4.23999e-06,0
-2.97202e-05,3.08514e-05,-1.22906e-06,2.35113e-05,7.38996e-06,-6.80299e-06,2.11903e-05,3.98561e-07,0
-2.71161e-05,3.18232e-05,-5.86941e-06,4.11476e-06,6.35327e-06,-7.94894e-06,2.19844e-05,-1.99717e-06,0
-2.58071e-05,3.07911e-05,-1.02314e-05,-9.46395e-06,7.38643e-06,-1.03e-05,2.28452e-05,-1.33396e-06,0
-2.68568e-05,2.6726e-05,-1.18315e-05,-1.55825e-05,9.96658e-06,-1.17958e-05,2.32526e-05,1.57156e-06,0
-2.90726e-05,2.02953e-05,-1.17811e-05,-1.88546e-05,1.04532e-05,-1.24355e-05,2.11217e-05,5.09952e-06,0
-2.99021e-05,1.52145e-05,-1.0666e-05,-2.32801e-05,8.95531e-06,-1.43368e-05,1.79653e-05,6.37096e-06,0
-2.92101e-05,1.37546e-05,-8.97263e-06,-2.71815e-05,8.5509e-06,-1.64355e-05,1.91525e-05,5.60124e-06,0
-3.01078e-05,1.47762e-05,-7.75832e-06,-3.04129e-05,1.00306e-05,-1.78178e-05,2.34485e-05,4.41583e-06,0
-3.17135e-05,1.65779e-05,-8.40011e-06,-3.58916e-05,1.17101e-05,-1.81635e-05,2.7559e-05,3.35177e-06,0
-3.08936e-05,1.77577e-05,-1.03939e-05,-4.16341e-05,1.21589e-05,-1.77267e-05,2.85532e-05,3.54802e-06,0
-2.92869e-05,1.77765e-05,-1.37157e-05,-4.2896e-05,1.18467e-05,-1.75093e-05,2.60346e-05,4.28798e-06,0
-2.83303e-05,1.7257e-05,-1.78047e-05,-3.60802e-05,1.16455e-05,-1.76207e-05,2.27805e-05,4.14671e-06,0
-2.80646e-05,1.64211e-05,-2.05123e-05,-2.408e-05,1.26813e-05,-1.87361e-05,2.12456e-05,4.19238e-06,0
-2.9425e-05,1.53037e-05,-2.113e-05,-1.27269e-05,1.52115e-05,-1.90247e-05,2.14827e-05,4.98129e-06,0
-3.14649e-05,1.35073e-05,-2.07548e-05,-5.5385e-06,1.73584e-05,-1.8288e-05,2.21432e-05,4.48242e-06,0
-3.22972e-05,1.18051e-05,-2.07063e-05,-3.0233e-06,1.66529e-05,-1.74827e-05,2.24985e-05,3.03382e-06,0
-3.20124e-05,1.09333e-05,-2.01419e-05,-3.82781e-06,1.41195e-05,-1.68161e-05,2.21296e-05,2.39453e-06,0
-3.18543e-05,1.078e-05,-1.80946e-05,-5.68282e-06,1.20652e-05,-1.64076e-05,2.08062e-05,1.67332e-06,0
-3.15662e-05,1.14625e-05,-1.62214e-05,-6.54294e-06,1.06231e-05,-1.63482e-05,1.86616e-05,-2.79181e-07,0
-3.08236e-05,1.24772e-05,-1.66715e-05,-6.92221e-06,1.07308e-05,-1.47141e-05,1.6595e-05,-1.9351e-06,0
-2.97977e-05,1.2857e-05,-1.88515e-05,-6.48574e-06,1.2716e-05,-1.22088e-05,1.52266e-05,-1.26738e-06,0
-2.9764e-05,1.26292e-05,-2.1377e-05,-5.34286e-06,1.25139e-05,-1.0582e-05,1.44126e-05,4.73024e-07,0
-3.0583e-05,1.24773e-05,-2.18179e-05,-6.60354e-06,9.05891e-06,-1.00984e-05,1.21013e-05,3.3193e-07,0
-3.10606e-05,1.19393e-05,-1.87994e-05,-1.12693e-05,6.34074e-06,-1.14818e-05,8.94946e-06,1.56088e-07,0
-3.01809e-05,1.0871e-05,-1.58514e-05,-1.35792e-05,6.34867e-06,-1.26982e-05,9.75795e-06,1.42719e-06,0
-2.87456e-05,9.44776e-06,-1.36341e-05,-7.96417e-06,7.74416e-06,-1.01317e-05,1.40408e-05,1.72913e-06,0
-2.8117e-05,9.06238e-06,-8.86394e-06,5.33414e-06,9.37139e-06,-6.10485e-06,1.62596e-05,1.49995e-06,0
-2.69122e-05,1.06766e-05,-4.28375e-06,1.79048e-05,1.18318e-05,-4.37116e-06,1.60353e-05,9.93381e-07,0
-2.55414e-05,1.25629e-05,1.1639e-07,2.23512e-05,1.32518e-05,-4.75056e-06,1.66464e-05,9.93284e-07,0
-2.52878e-05,1.40322e-05,8.45873e-06,1.97287e-05,1.19824e-05,-6.05032e-06,1.91873e-05,1.41543e-06,0
-2.65528e-05,1.50154e-05,2.05583e-05,1.28449e-05,1.03924e-05,-6.33156e-06,2.17404e-05,-1.02095e-08,0
-2.83833e-05,1.66633e-05,3.33779e-05,3.572e-06,9.92462e-06,-5.38398e-06,2.23106e-05,-1.30182e-06,0
-2.83911e-05,1.85983e-05,4.11399e-05,-8.76467e-06,8.85069e-06,-4.20427e-06,2.13234e-05,-1.49198e-06,0
-2.78272e-05,1.87503e-05,3.86964e-05,-2.15526e-05,7.58846e-06,-3.96155e-06,1.98452e-05,-1.22394e-06,0
-2.88919e-05,1.83151e-05,2.22843e-05,-3.08503e-05,7.71925e-06,-4.50462e-06,1.74083e-05,1.93388e-07,0
-2.96671e-05,1.78664e-05,-3.89689e-06,-3.49694e-05,7.15526e-06,-6.4741e-06,1.60234e-05,7.04734e-07,0
-2.88248e-05,1.52598e-05,-3.00988e-05,-3.30268e-05,4.68712e-06,-7.42864e-06,1.63414e-05,-9.3989e-07,0
-2.7849e-05,1.10788e-05,-4.89407e-05,-2.73275e-05,1.84539e-06,-6.35367e-06,1.61038e-05,-2.50703e-06,0
-2.77781e-05,7.08165e-06,-5.61799e-05,-2.15175e-05,-1.56769e-08,-5.79533e-06,1.39519e-05,-3.25357e-06,0
-2.76489e-05,4.0756e-06,-5.37479e-05,-1.83333e-05,-1.11472e-06,-6.93341e-06,1.0345e-05,-3.95012e-06,0
-2.8087e-05,3.11982e-06,-4.60369e-05,-1.79385e-05,-1.25221e-06,-8.22905e-06,7.75253e-06,-4.71385e-06,0
-2.99492e-05,3.09631e-06,-3.69124e-05,-1.87605e-05,-1.27208e-06,-8.21786e-06,6.99066e-06,-4.97868e-06,0
-3.08423e-05,2.7758e-06,-2.9393e-05,-1.98328e-05,-3.13744e-06,-7.84291e-06,7.43754e-06,-4.92348e-06,0
-2.94341e-05,1.99458e-06,-2.36637e-05,-2.04649e-05,-5.75311e-06,-6.84635e-06,8.06133e-06,-4.87757e-06,0
-2.80048e-05,1.90323e-06,-1.7085e-05,-1.82473e-05,-5.75735e-06,-6.22288e-06,8.36e-06,-4.74822e-06,0
-2.83053e-05,3.29889e-06,-1.02059e-05,-1.43282e-05,-1.92057e-06,-6.68497e-06,7.46916e-06,-5.0465e-06,0
-2.99765e-05,5.45049e-06,-6.92462e-06,-1.2987e-05,2.7943e-06,-8.34329e-06,6.13608e-06,-4.81461e-06,0
-3.17732e-05,6.41062e-06,-7.91896e-06,-1.32875e-05,5.47872e-06,-9.26355e-06,6.62662e-06,-4.46696e-06,0
-3.19748e-05,4.29373e-06,-8.92632e-06,-1.14533e-05,7.17375e-06,-8.07809e-06,8.07032e-06,-5.76496e-06,0
-2.9972e-05,3.62429e-07,-7.14009e-06,-7.57007e-06,1.0166e-05,-8.18064e-06,9.32971e-06,-6.96752e-06,0
-2.88701e-05,1.46329e-08,-5.76165e-06,-4.45598e-06,1.4045e-05,-1.13069e-05,1.15089e-05,-5.45599e-06,0
-2.93211e-05,1.88463e-06,-6.4161e-06,-2.61438e-06,1.75413e-05,-1.27594e-05,1.56262e-05,-1.92853e-06,0
-2.91224e-05,2.4131e-06,-6.35456e-06,-8.06759e-07,1.97811e-05,-1.08198e-05,1.97721e-05,1.64593e-07,0
-2.85785e-05,1.5064e-06,-5.82128e-06,1.63126e-06,1.86227e-05,-9.8282e-06,1.96006e-05,4.44672e-07,0
-2.76824e-05,-1.39444e-07,-5.78415e-06,4.81497e-06,1.44475e-05,-9.43616e-06,1.68188e-05,1.07599e-06,0
-2.77151e-05,8.62484e-07,-4.64143e-06,6.80062e-06,1.11285e-05,-8.33528e-06,1.41105e-05,1.23158e-06,0
-2.68436e-05,2.79292e-06,-1.92862e-06,5.77067e-06,1.09915e-05,-8.69104e-06,1.22919e-05,3.52851e-08,0
-2.48622e-05,3.74589e-06,1.63858e-06,4.02919e-06,1.54893e-05,-1.00381e-05,1.24369e-05,-2.21281e-06,0
-2.42489e-05,3.9731e-06,4.24747e-06,4.35345e-06,2.3344e-05,-1.12582e-05,1.44156e-05,-3.55822e-06,0
-2.56714e-05,4.67263e-06,4.50751e-06,4.0342e-06,2.92563e-05,-1.23741e-05,1.6856e-05,-3.11618e-06,0
-2.76846e-05,5.21338e-06,2.78303e-06,2.174e-06,2.86243e-05,-1.33086e-05,1.73596e-05,-1.61147e-06,0
-2.82911e-05,3.60892e-06,1.08447e-06,9.0313e-07,2.53415e-05,-1.4e-05,1.68889e-05,6.10253e-07,0
-2.64542e-05,4.28678e-07,7.57202e-07,1.12579e-06,2.27886e-05,-1.42816e-05,1.65965e-05,1.73004e-06,0
-2.42026e-05,-1.33787e-06,2.92907e-06,2.24171e-06,2.25219e-05,-1.52924e-05,1.51685e-05,1.65675e-06,0
-2.44617e-05,2.54946e-07,5.90801e-06,3.73504e-06,2.44094e-05,-1.76286e-05,1.26317e-05,2.00254e-06,0
-2.6126e-05,3.50826e-06,7.55054e-06,6.18168e-06,2.54304e-05,-2.00295e-05,1.17618e-05,3.28404e-06,0
-2.75365e-05,6.82555e-06,9.24364e-06,8.91494e-06,2.61666e-05,-2.21637e-05,1.0483e-05,4.54684e-06,0
-2.84524e-05,9.30514e-06,1.14449e-05,1.07426e-05,2.71488e-05,-2.3908e-05,2.09566e-06,5.68652e-06,0
-3.01703e-05,1.05625e-05,1.21805e-05,1.00009e-05,2.79328e-05,-2.49948e-05,-1.70367e-05,7.46818e-06,0
-3.0804e-05,1.00844e-05,8.43739e-06,6.98417e-06,2.68529e-05,-2.50213e-05,-3.88897e-05,8.73338e-06,0
-2.97732e-05,9.17919e-06,9.66779e-07,4.17181e-06,2.48516e-05,-2.41227e-05,-4.94794e-05,8.16395e-06,0
-2.77502e-05,1.02172e-05,-6.9857e-06,2.76292e-06,2.36554e-05,-2.37967e-05,-4.25349e-05,6.54822e-06,0
-2.63707e-05,1.36235e-05,-1.3955e-05,1.91376e-06,2.3511e-05,-2.46104e-05,-2.31998e-05,4.13537e-06,0
-2.69859e-05,1.61296e-05,-1.88923e-05,6.44045e-07,2.26625e-05,-2.52129e-05,-1.43213e-06,6.87265e-07,0
-2.84508e-05,1.56799e-05,-1.85433e-05,-1.93514e-06,2.0796e-05,-2.45495e-05,1.67919e-05,-9.5465e-07,0
-2.89336e-05,1.38752e-05,-1.32443e-05,-3.21076e-06,1.84065e-05,-2.35559e-05,3.30344e-05,9.27711e-09,0
-2.97181e-05,1.27768e-05,-6.63066e-06,-1.28138e-06,1.68293e-05,-2.24817e-05,4.96124e-05,-1.33174e-07,0
-3.14247e-05,1.36427e-05,-2.54358e-06,2.21883e-06,1.69348e-05,-2.16329e-05,6.28218e-05,-2.20197e-06,0
-3.25236e-05,1.46044e-05,-1.91355e-06,2.85351e-06,1.86532e-05,-2.09459e-05,7.09245e-05,-4.43995e-06,0
-3.37875e-05,1.41588e-05,-2.39063e-06,-2.3556e-06,2.08567e-05,-1.95201e-05,7.34573e-05,-6.09605e-06,0
-3.45465e-05,1.32274e-05,-2.34334e-06,-1.01448e-05,2.03968e-05,-1.74879e-05,7.14904e-05,-5.75689e-06,0
-3.48663e-05,1.24613e-05,1.10093e-06,-1.42952e-05,1.86246e-05,-1.71266e-05,6.97222e-05,-3.91733e-06,0
-3.53159e-05,1.35465e-05,4.19982e-06,-1.63184e-05,1.72506e-05,-1.83032e-05,6.76347e-05,-3.32413e-06,0
-3.52181e-05,1.6442e-05,6.13656e-06,-2.15261e-05,1.73157e-05,-1.8144e-05,5.95935e-05,-4.50196e-06,0
-3.40755e-05,1.82446e-05,9.52704e-06,-2.7657e-05,1.82554e-05,-1.70515e-05,4.25559e-05,-5.92585e-06,0
-3.27715e-05,1.76682e-05,1.22211e-05,-2.75095e-05,1.80178e-05,-1.59631e-05,2.02351e-05,-6.02215e-06,0
-3.17004e-05,1.60252e-05,1.53868e-05,-1.6862e-05,1.62626e-05,-1.51163e-05,3.57685e-07,-4.96617e-06,0
-3.10533e-05,1.48763e-05,1.8094e-05,-1.60268e-07,1.40712e-05,-1.52456e-05,-1.33228e-05,-4.68158e-06,0
-3.17435e-05,1.51712e-05,1.73797e-05,1.68891e-05,1.40125e-05,-1.53757e-05,-2.04031e-05,-5.02442e-06,0
-3.33848e-05,1.54878e-05,9.84009e-06,2.78462e-05,1.4199e-05,-1.4513e-05,-2.05641e-05,-5.45468e-06,0
-3.39906e-05,1.39222e-05,-3.43254e-06,3.15935e-05,1.41471e-05,-1.27885e-05,-1.62208e-05,-6.36081e-06,0
-3.37347e-05,1.20947e-05,-1.79384e-05,2.88356e-05,1.43142e-05,-1.03366e-05,-1.31936e-05,-6.77731e-06,0
-3.34987e-05,1.13301e-05,-3.01319e-05,2.04576e-05,1.3156e-05,-8.43239e-06,-1.21912e-05,-6.74068e-06,0
-3.33959e-05,1.11814e-05,-3.7958e-05,1.20887e-05,1.13273e-05,-8.60167e-06,-1.04191e-05,-7.11032e-06,0
-3.3672e-05,1.0417e-05,-4.08537e-05,7.83446e-06,1.07053e-05,-1.00705e-05,-7.20445e-06,-7.73645e-06,0
-3.4414e-05,9.01808e-06,-3.80412e-05,7.96813e-06,1.21676e-05,-1.07754e-05,-4.7323e-06,-7.52546e-06,0
-3.52873e-05,8.56595e-06,-3.05213e-05,8.85952e-06,1.43805e-05,-9.93022e-06,-2.73798e-06,-7.19046e-06,0
-3.56292e-05,9.58011e-06,-2.09164e-05,7.39862e-06,1.57272e-05,-8.33655e-06,7.00776e-07,-6.83447e-06,0
-3.55471e-05,9.99168e-06,-1.37476e-05,4.42081e-06,1.4598e-05,-7.64112e-06,3.47429e-06,-6.28973e-06,0
-3.56529e-05,7.84833e-06,-1.15069e-05,2.70699e-06,1.23015e-05,-8.10896e-06,3.67491e-06,-5.27045e-06,0
-3.55403e-05,5.00822e-06,-1.2336e-05,5.32421e-07,1.07375e-05,-8.93411e-06,2.73842e-06,-3.38957e-06,0
-3.48977e-05,4.78386e-06,-1.20356e-05,-3.23303e-06,1.06563e-05,-9.55633e-06,3.12974e-06,-2.28615e-06,0
-3.42105e-05,5.54436e-06,-1.01767e-05,-7.59423e-06,1.11827e-05,-1.00917e-05,4.66779e-06,-1.67497e-06,0
-3.43138e-05,3.92985e-06,-1.03018e-05,-1.24831e-05,1.20573e-05,-9.85918e-06,6.67702e-06,-3.63617e-07,0
-3.57226e-05,2.13136e-06,-1.25633e-05,-1.55826e-05,1.26853e-05,-8.49899e-06,8.43703e-06,1.7651e-06,0
-3.65885e-05,1.50786e-06,-1.38364e-05,-1.71419e-05,1.34397e-05,-7.02441e-06,9.26987e-06,3.19273e-06,0
-3.51059e-05,1.75703e-07,-1.37048e-05,-1.88902e-05,1.37231e-05,-6.32339e-06,9.05483e-06,3.78438e-06,0
-3.30924e-05,-4.18334e-07,-1.31046e-05,-1.99937e-05,1.15803e-05,-7.10058e-06,7.83729e-06,3.78325e-06,0
-3.29057e-05,1.57468e-06,-1.21534e-05,-2.11741e-05,6.89767e-06,-8.10613e-06,6.93579e-06,2.70139e-06,0
-3.27799e-05,5.06306e-06,-1.10196e-05,-1.94995e-05,1.87545e-06,-7.51966e-06,8.16237e-06,1.90432e-06,0
-3.17241e-05,6.44358e-06,-1.04001e-05,-1.57429e-05,1.13949e-07,-6.20391e-06,9.09691e-06,1.97138e-06,0
-2.99921e-05,4.85566e-06,-9.95997e-06,-1.11596e-05,1.66806e-06,-6.03428e-06,8.53985e-06,4.35775e-06,0
-2.93302e-05,3.03791e-06,-8.78261e-06,-6.20545e-06,5.66962e-06,-5.83365e-06,7.2386e-06,7.91902e-06,0
-2.93388e-05,2.22572e-06,-6.60668e-06,-5.1891e-06,9.53265e-06,-4.91601e-06,6.51059e-06,8.87612e-06,0
-2.8423e-05,3.3319e-06,-5.58846e-06,-4.71502e-06,1.16507e-05,-3.27271e-06,5.27934e-06,8.36438e-06,0
-2.79241e-05,4.78946e-06,-6.26788e-06,-2.65665e-06,1.24991e-05,-2.22963e-06,3.81902e-06,8.51056e-06,0
-2.77682e-05,4.64499e-06,-6.99263e-06,-1.88756e-06,1.25638e-05,-2.70034e-06,3.86251e-06,8.58876e-06,0
-2.7695e-05,3.9107e-06,-7.32708e-06,-2.95105e-06,1.27789e-05,-3.00059e-06,4.24874e-06,7.21545e-06,0
-2.8259e-05,4.34773e-06,-8.57801e-06,-1.94888e-06,1.35683e-05,-3.1207e-06,5.22697e-06,6.29188e-06,0
-2.88895e-05,5.42771e-06,-1.14011e-05,2.76626e-07,1.48924e-05,-3.85862e-06,7.06581e-06,6.59968e-06,0
-2.89251e-05,6.00662e-06,-1.35422e-05,3.72202e-07,1.60249e-05,-5.63278e-06,9.71643e-06,7.03458e-06,0
-2.98377e-05,6.74133e-06,-1.38996e-05,-1.54265e-06,1.72027e-05,-6.51819e-06,1.19199e-05,6.87247e-06,0
-3.06305e-05,8.00201e-06,-1.2897e-05,-3.43831e-06,1.76739e-05,-4.99848e-06,1.38168e-05,6.53496e-06,0
-2.94055e-05,9.54575e-06,-1.20662e-05,-3.87467e-06,1.63498e-05,-3.14911e-06,1.53152e-05,7.285e-06,0
-2.80544e-05,1.16859e-05,-1.12316e-05,-3.4402e-06,1.51892e-05,-4.03055e-06,1.59599e-05,8.70357e-06,0
-2.85287e-05,1.37022e-05,-1.03379e-05,-3.60251e-06,1.63009e-05,-6.44621e-06,1.57542e-05,8.74088e-06,0
-2.89961e-05,1.37231e-05,-9.56304e-06,-4.42724e-06,1.86047e-05,-7.43578e-06,1.50051e-05,7.02461e-06,0
-2.84793e-05,1.2621e-05,-8.47449e-06,-3.92306e-06,1.93674e-05,-7.37585e-06,1.43964e-05,5.1298e-06,0
-2.86692e-05,1.19351e-05,-7.55383e-06,-2.67927e-06,1.81475e-05,-8.79945e-06,1.65325e-05,3.69841e-06,0
-2.95879e-05,1.18061e-05,-7.244e-06,-2.0697e-06,1.64705e-05,-1.1365e-05,2.1003e-05,2.12708e-06,0
-2.93541e-05,1.2063e-05,-5.55516e-06,-2.71525e-06,1.38994e-05,-1.15131e-05,2.07002e-05,-7.4049e-07,0
-2.83889e-05,1.11722e-05,-3.60127e-06,-4.49159e-06,9.39599e-06,-9.56781e-06,9.31622e-06,-3.77993e-06,0
-2.81205e-05,9.8757e-06,-3.78221e-06,-6.67144e-06,7.25113e-06,-8.09545e-06,-6.00569e-06,-4.81831e-06,0
-2.91487e-05,9.32727e-06,-6.0014e-06,-8.09208e-06,9.56912e-06,-6.9863e-06,-1.16176e-05,-2.23362e-06,0
-3.03752e-05,8.88383e-06,-8.3233e-06,-1.05154e-05,1.26364e-05,-5.70034e-06,-5.10425e-06,1.12811e-07,0
-3.03868e-05,1.0745e-05,-9.10766e-06,-1.47831e-05,1.24952e-05,-5.41311e-06,4.641e-06,-3.18455e-07,0
-3.01211e-05,1.43477e-05,-9.80549e-06,-1.78299e-05,9.64238e-06,-5.38121e-06,1.3815e-05,-1.38147e-06,0
-2.78235e-05,1.7088e-05,-9.32704e-06,-1.82972e-05,7.88588e-06,-4.84982e-06,2.3534e-05,-3.12685e-06,0
-2.41518e-05,1.79933e-05,-6.96465e-06,-1.76892e-05,7.94447e-06,-5.49152e-06,2.9375e-05,-4.59823e-06,0
-2.2541e-05,1.81088e-05,-4.24143e-06,-1.59492e-05,9.45448e-06,-6.32296e-06,3.08297e-05,-3.86555e-06,0
-2.33977e-05,2.00812e-05,-3.22531e-06,-1.18318e-05,1.15618e-05,-6.56349e-06,3.12478e-05,-1.11679e-06,0
-2.46235e-05,2.29397e-05,-3.43693e-06,-5.4513e-06,1.4774e-05,-6.33826e-06,3.29803e-05,1.38912e-06,0
-2.47101e-05,2.42722e-05,-3.60537e-06,2.75483e-07,1.8274e-05,-5.41631e-06,3.27237e-05,2.08772e-06,0
-2.50539e-05,2.3113e-05,-3.80477e-06,1.59877e-06,1.93286e-05,-3.46151e-06,3.01294e-05,2.1239e-06,0
-2.58783e-05,2.18448e-05,-3.16195e-06,-1.48364e-06,1.7705e-05,-2.3654e-06,2.69561e-05,-8.69993e-08,0
-2.68464e-05,2.23317e-05,-2.33048e-06,-5.37178e-06,1.61063e-05,-3.06824e-06,2.51844e-05,-3.2181e-06,0
-2.69142e-05,2.27578e-05,-2.65175e-06,-5.7516e-06,1.64612e-05,-3.78717e-06,2.7983e-05,-4.6458e-06,0
-2.66249e-05,2.19356e-05,-3.88812e-06,-1.37337e-06,1.99144e-05,-3.87717e-06,3.26409e-05,-4.55634e-06,0
-2.83409e-05,2.10881e-05,-5.64366e-06,4.29532e-06,2.56553e-05,-3.14181e-06,3.29282e-05,-3.53319e-06,0
-3.16332e-05,1.98891e-05,-7.81743e-06,6.6674e-06,2.93792e-05,-2.93873e-06,2.72774e-05,-3.16108e-06,0
-3.45634e-05,1.75135e-05,-9.83045e-06,4.75732e-06,2.85739e-05,-3.05324e-06,2.09894e-05,-3.77427e-06,0
-3.54206e-05,1.74885e-05,-1.02814e-05,1.26045e-06,2.47045e-05,-3.29835e-06,1.77741e-05,-5.012e-06,0
-3.42375e-05,2.12499e-05,-9.1187e-06,-1.13022e-06,2.07954e-05,-3.50113e-06,1.7319e-05,-6.33587e-06,0
-3.26968e-05,2.51163e-05,-7.93825e-06,-1.55847e-06,1.82544e-05,-3.78327e-06,1.73428e-05,-7.4569e-06,0
-3.29931e-05,2.6639e-05,-8.9876e-06,-1.67463e-06,1.62251e-05,-4.61338e-06,1.7263e-05,-7.18827e-06,0
-3.46212e-05,2.52274e-05,-1.26816e-05,-3.81171e-06,1.24049e-05,-5.45204e-06,1.51157e-05,-6.45562e-06,0
-3.59748e-05,2.18743e-05,-1.56118e-05,-7.40881e-06,8.07106e-06,-6.03491e-06,9.69497e-06,-4.26406e-06,0
-3.61386e-05,1.97722e-05,-1.63822e-05,-1.00194e-05,4.67797e-06,-7.03927e-06,2.54308e-06,-1.16961e-06,0
-3.56641e-05,2.00975e-05,-1.72634e-05,-1.11865e-05,3.56586e-06,-6.98331e-06,-1.97791e-06,-4.82376e-07,0
-3.51292e-05,2.25157e-05,-1.97551e-05,-1.36497e-05,4.86368e-06,-6.17632e-06,-1.72002e-06,-1.35792e-06,0
-3.40012e-05,2.5162e-05,-2.17881e-05,-1.65426e-05,6.80821e-06,-6.23908e-06,7.36525e-07,-2.96487e-07,0
-3.31419e-05,2.71322e-05,-2.08938e-05,-1.98462e-05,9.02048e-06,-6.32347e-06,4.91808e-06,3.24728e-06,0
-3.26135e-05,2.92541e-05,-1.87326e-05,-2.33183e-05,1.01923e-05,-6.29055e-06,9.98236e-06,5.23347e-06,0
-3.19044e-05,2.93131e-05,-1.69357e-05,-2.24318e-05,8.34226e-06,-4.50831e-06,1.13807e-05,5.38385e-06,0
-3.14e-05,2.61841e-05,-1.4794e-05,-1.55164e-05,6.55691e-06,-1.00789e-06,8.6552e-06,6.72381e-06,0
-3.07118e-05,2.34438e-05,-1.17745e-05,-6.0829e-06,1.02698e-05,2.76119e-06,5.55005e-06,8.43539e-06,0
-2.92656e-05,2.33127e-05,-8.9242e-06,4.53052e-07,1.74133e-05,3.98881e-06,4.97831e-06,9.65529e-06,0
-2.64836e-05,2.50439e-05,-7.40904e-06,1.95749e-06,2.38082e-05,2.45356e-06,7.87691e-06,9.39616e-06,0
-2.36312e-05,2.60803e-05,-6.41153e-06,1.75533e-06,2.5356e-05,7.85613e-07,1.1051e-05,9.88421e-06,0
-2.34166e-05,2.36177e-05,-5.42698e-06,2.30406e-06,2.1857e-05,-1.04987e-06,1.16434e-05,1.14198e-05,0
-2.32262e-05,1.85771e-05,-4.19582e-06,1.76488e-06,1.76065e-05,-2.44569e-06,1.07341e-05,1.12131e-05,0
-2.12258e-05,1.32433e-05,-2.4512e-06,2.82766e-07,1.57792e-05,-1.72915e-06,9.88837e-06,9.99783e-06,0
-2.03484e-05,9.09346e-06,-1.08717e-06,-1.49241e-06,1.69836e-05,-5.70256e-08,8.98382e-06,9.23337e-06,0
-2.23703e-05,6.51714e-06,-1.6616e-06,-3.28982e-06,1.80909e-05,-1.97849e-07,6.57276e-06,1.03121e-05,0
-2.49187e-05,6.35251e-06,-3.63043e-06,-4.75407e-06,1.78113e-05,-1.70511e-06,2.51503e-06,1.11055e-05,0
-2.68767e-05,8.24893e-06,-4.28699e-06,-5.72814e-06,1.6934e-05,-2.27664e-06,-7.78464e-09,1.1274e-05,0
-2.88714e-05,1.06416e-05,-3.42815e-06,-6.58418e-06,1.70997e-05,-1.29373e-06,8.93905e-08,1.11076e-05,0
-3.01825e-05,1.23285e-05,-2.90816e-06,-7.16699e-06,1.76403e-05,-7.88425e-07,5.68691e-07,1.0763e-05,0
-2.96344e-05,1.32128e-05,-3.5192e-06,-5.12102e-06,1.62293e-05,-1.65291e-06,4.46022e-07,1.02699e-05,0
-2.78853e-05,1.38842e-05,-5.05873e-06,-1.29061e-06,1.31654e-05,-2.20538e-06,2.05542e-06,9.73323e-06,0
-2.66455e-05,1.40487e-05,-6.37217e-06,-8.80248e-08,1.01337e-05,-1.49841e-06,7.1307e-06,9.11577e-06,0
-2.68047e-05,1.41757e-05,-6.35816e-06,-1.11239e-06,8.04615e-06,-1.20831e-06,1.38603e-05,8.57513e-06,0
-2.84219e-05,1.39763e-05,-5.92184e-06,-1.34896e-06,6.83445e-06,-2.31641e-06,2.06935e-05,8.52328e-06,0
-2.90891e-05,1.29322e-05,-7.52387e-06,-2.28482e-06,6.35136e-06,-3.46659e-06,2.74512e-05,8.18352e-06,0
-2.86909e-05,1.16701e-05,-1.09767e-05,-5.70356e-06,5.92035e-06,-4.80557e-06,3.40756e-05,6.69439e-06,0
-2.89536e-05,1.13121e-05,-1.34413e-05,-9.64587e-06,4.84733e-06,-7.45815e-06,3.91125e-05,3.91249e-06,0
-2.96628e-05,1.24293e-05,-1.36984e-05,-1.04973e-05,3.00373e-06,-1.00503e-05,3.96524e-05,1.58927e-06,0
-2.88577e-05,1.27209e-05,-1.3219e-05,-9.14337e-06,5.03302e-07,-9.50075e-06,3.64487e-05,5.48431e-07,0
-2.78892e-05,1.08408e-05,-1.31515e-05,-9.68036e-06,-5.12207e-07,-8.60369e-06,2.96267e-05,1.5643e-06,0
-2.79769e-05,8.78238e-06,-1.30502e-05,-9.03022e-06,6.50836e-08,-9.61622e-06,1.82107e-05,3.38406e-06,0
-2.75577e-05,7.9464e-06,-9.703e-06,-5.83098e-06,7.01448e-07,-9.16371e-06,2.53827e-06,3.83679e-06,0
-2.62829e-05,7.65024e-06,7.62275e-07,-4.98566e-06,1.2915e-06,-7.64859e-06,-1.21787e-05,3.72753e-06,0
-2.5711e-05,4.83355e-06,1.52553e-05,-6.51334e-06,-3.22193e-07,-7.10572e-06,-1.96451e-05,2.05883e-06,0
-2.61565e-05,3.37819e-07,3.07624e-05,-7.62689e-06,-2.08546e-06,-7.38833e-06,-1.70031e-05,-5.62122e-07,0
-2.72319e-05,-6.42889e-07,4.5752e-05,-7.14877e-06,-1.80308e-06,-7.37998e-06,-6.27583e-06,-1.31252e-06,0
-2.8182e-05,1.5236e-06,5.2856e-05,-6.44061e-06,7.8109e-07,-6.65668e-06,6.20293e-06,-7.23914e-07,0
-2.92051e-05,3.83396e-06,4.52593e-05,-4.66427e-06,4.27229e-06,-6.94413e-06,1.57621e-05,1.02841e-07,0
-3.01584e-05,4.57608e-06,2.28602e-05,-8.41194e-07,7.40751e-06,-8.26607e-06,1.94108e-05,4.18454e-07,0
-3.0233e-05,4.39116e-06,-1.04666e-05,3.30807e-06,9.06252e-06,-1.02805e-05,1.79157e-05,3.43061e-07,0
-3.04355e-05,5.55309e-06,-4.41337e-05,6.79394e-06,9.01387e-06,-1.26961e-05,1.32537e-05,3.95259e-07,0
-3.04922e-05,7.67367e-06,-6.8697e-05,8.38979e-06,7.88004e-06,-1.42757e-05,8.98242e-06,5.35143e-07,0
-3.1382e-05,9.9222e-06,-8.1338e-05,7.33629e-06,4.94424e-06,-1.50244e-05,6.4148e-06,-4.52004e-07,0
-3.25864e-05,1.00645e-05,-8.00686e-05,5.76484e-06,2.60534e-06,-1.48975e-05,5.41393e-06,-1.74933e-06,0
-3.31728e-05,7.06256e-06,-6.72438e-05,5.95537e-06,2.8768e-06,-1.41361e-05,4.66742e-06,-1.57498e-06,0
-3.27447e-05,3.62474e-06,-5.06508e-05,6.73226e-06,4.97976e-06,-1.26287e-05,3.78804e-06,4.28444e-08,0
-3.1992e-05,2.80616e-06,-3.77723e-05,5.33621e-06,6.16475e-06,-1.11101e-05,4.58549e-06,1.46174e-06,0
-3.17672e-05,5.24461e-06,-2.78866e-05,-2.96525e-07,6.26465e-06,-1.04728e-05,6.65372e-06,1.92986e-06,0
-3.22396e-05,9.43754e-06,-1.83701e-05,-7.91598e-06,5.54146e-06,-1.02291e-05,8.05475e-06,1.76177e-06,0
-3.35726e-05,1.29844e-05,-1.10291e-05,-1.37096e-05,5.41063e-06,-1.02759e-05,8.52958e-06,3.74942e-07,0
-3.45768e-05,1.35963e-05,-8.26433e-06,-1.74674e-05,6.72145e-06,-1.10117e-05,8.98192e-06,-8.88897e-07,0
-3.39384e-05,1.3107e-05,-6.80792e-06,-2.23744e-05,9.08775e-06,-1.10297e-05,9.88768e-06,-1.40436e-06,0
-3.23208e-05,1.45168e-05,-4.11294e-06,-2.71731e-05,1.28332e-05,-9.31353e-06,1.10436e-05,-2.78162e-06,0
-3.09303e-05,1.76611e-05,-1.97476e-06,-2.47006e-05,1.80518e-05,-7.37313e-06,1.18165e-05,-3.8526e-06,0
-3.01387e-05,2.15668e-05,-1.28928e-06,-1.61845e-05,2.16001e-05,-7.15063e-06,1.23509e-05,-3.51475e-06,0
-3.10146e-05,2.54516e-05,3.97122e-07,-9.63541e-06,1.97665e-05,-8.16515e-06,1.0842e-05,-2.9381e-06,0
-3.26121e-05,2.82146e-05,3.51524e-06,-8.08564e-06,1.53758e-05,-8.82037e-06,8.71621e-06,-7.34534e-07,0
-3.36196e-05,2.84952e-05,3.71008e-06,-9.91215e-06,1.11634e-05,-1.01401e-05,7.25197e-06,1.43083e-06,0
-3.50582e-05,2.62344e-05,1.98661e-06,-9.92498e-06,7.85643e-06,-1.14523e-05,6.93993e-06,1.25965e-06,0
-3.58262e-05,2.17925e-05,1.44704e-06,-6.65713e-06,6.87304e-06,-1.16004e-05,8.47476e-06,1.12657e-06,0
-3.40263e-05,1.88756e-05,2.62358e-06,-3.90362e-06,8.57437e-06,-1.13333e-05,9.14737e-06,2.14894e-06,0
-3.22414e-05,1.96187e-05,2.45557e-06,-1.61513e-06,1.11962e-05,-1.2116e-05,7.52801e-06,4.17259e-06,0
-3.16729e-05,1.98036e-05,3.54857e-07,1.12918e-06,1.20079e-05,-1.46342e-05,6.54618e-06,4.89327e-06,0
-3.26494e-05,1.70471e-05,-1.79237e-06,2.8096e-06,1.10342e-05,-1.67447e-05,6.82295e-06,4.07493e-06,0
-3.48776e-05,1.38854e-05,-2.31892e-06,3.19221e-06,1.13188e-05,-1.67182e-05,7.42042e-06,2.7475e-06,0
-3.55874e-05,1.30443e-05,-4.4207e-07,1.73016e-06,1.32782e-05,-1.60448e-05,9.42652e-06,-3.7932e-07,0
-3.46994e-05,1.22027e-05,3.23053e-07,-2.84519e-07,1.50645e-05,-1.55435e-05,1.26786e-05,-2.40439e-06,0
-3.34158e-05,9.62303e-06,-8.159e-08,-3.91708e-07,1.65249e-05,-1.53093e-05,1.66154e-05,-2.25866e-06,0
-3.19602e-05,5.62392e-06,1.99177e-07,3.58962e-07,1.75233e-05,-1.59471e-05,2.09855e-05,-2.23565e-06,0
-3.10614e-05,3.0152e-06,6.1874e-07,4.28152e-07,1.72188e-05,-1.65442e-05,2.42586e-05,-3.02854e-06,0
-3.15686e-05,3.18263e-06,-4.34612e-07,-2.2837e-07,1.588e-05,-1.66923e-05,2.37856e-05,-3.00172e-06,0
-3.23715e-05,4.26293e-06,-2.56209e-06,-2.19859e-07,1.45296e-05,-1.60594e-05,2.17935e-05,-1.72361e-06,0
-3.22466e-05,5.40782e-06,-4.90014e-06,-6.15322e-07,1.33494e-05,-1.52213e-05,2.17017e-05,-7.01554e-07,0
-3.19521e-05,7.94746e-06,-6.39581e-06,-2.76931e-06,1.2005e-05,-1.39414e-05,2.36091e-05,-5.86986e-07,0
-3.23587e-05,1.04975e-05,-6.31307e-06,-5.70214e-06,1.04708e-05,-1.21905e-05,2.43534e-05,-1.58212e-06,0
-3.34465e-05,1.03903e-05,-6.84965e-06,-7.41543e-06,9.23105e-06,-1.05472e-05,2.20356e-05,-2.96854e-06,0
-3.40104e-05,9.32787e-06,-8.48239e-06,-7.21878e-06,9.97383e-06,-8.97546e-06,1.91635e-05,-3.51588e-06,0
-3.2478e-05,8.13563e-06,-8.44069e-06,-6.98171e-06,1.25642e-05,-8.17848e-06,1.76975e-05,-3.05667e-06,0
-3.02286e-05,7.15673e-06,-6.00922e-06,-7.49171e-06,1.36232e-05,-7.8348e-06,1.54227e-05,-3.51162e-06,0
-2.97305e-05,6.32953e-06,-5.35536e-06,-7.32325e-06,1.24777e-05,-7.63594e-06,8.3099e-06,-4.26939e-06,0
-3.11094e-05,4.4447e-06,-8.58593e-06,-5.26504e-06,1.21779e-05,-9.09709e-06,-1.11636e-07,-3.47048e-06,0
-3.23932e-05,2.36452e-06,-1.31096e-05,-3.06568e-06,1.4868e-05,-1.22218e-05,-2.22188e-06,-1.83883e-06,0
-3.24002e-05,1.29459e-06,-1.66582e-05,-3.86942e-06,1.84247e-05,-1.37737e-05,2.16823e-06,-1.25392e-06,0
-3.19767e-05,-1.50588e-07,-1.95159e-05,-6.37434e-06,2.04434e-05,-1.37573e-05,8.45769e-06,-2.63981e-06,0
-3.09058e-05,-8.80622e-07,-2.25391e-05,-7.73784e-06,2.02765e-05,-1.33723e-05,1.17954e-05,-3.81883e-06,0
-3.04764e-05,3.50768e-07,-2.12224e-05,-7.58172e-06,1.79923e-05,-1.34433e-05,1.27962e-05,-5.50069e-06,0
-3.07425e-05,3.12648e-06,-1.44333e-05,-6.90189e-06,1.60325e-05,-1.4298e-05,1.33646e-05,-7.41094e-06,0
-2.99775e-05,5.61399e-06,-7.04207e-06,-7.61566e-06,1.585e-05,-1.59705e-05,1.50246e-05,-6.69144e-06,0
-2.85287e-05,7.5175e-06,-2.80422e-06,-7.96471e-06,1.70193e-05,-1.83709e-05,1.7843e-05,-4.51241e-06,0
-2.70867e-05,9.45325e-06,-2.56724e-06,-6.5502e-06,1.79404e-05,-1.99794e-05,1.82426e-05,-2.36155e-06,0
-2.66624e-05,1.08122e-05,1.79433e-06,-3.95508e-06,1.76382e-05,-2.13497e-05,1.67043e-05,-2.94409e-06,0
-2.7766e-05,1.29469e-05,1.29189e-05,-1.00848e-06,1.62513e-05,-2.2342e-05,1.38008e-05,-5.65328e-06,0
-2.97035e-05,1.50842e-05,2.67523e-05,1.13713e-06,1.51373e-05,-2.25723e-05,1.30078e-05,-6.0193e-06,0
-3.07375e-05,1.64858e-05,3.78163e-05,2.03854e-06,1.44039e-05,-2.23163e-05,1.38295e-05,-3.99043e-06,0
-3.04739e-05,1.61547e-05,4.04923e-05,1.36229e-06,1.42646e-05,-2.11729e-05,1.41536e-05,-3.76127e-06,0
-2.92804e-05,1.58475e-05,3.18042e-05,-2.16434e-06,1.39802e-05,-1.86886e-05,1.4822e-05,-5.00483e-06,0
-2.81563e-05,1.79206e-05,1.20097e-05,-7.70549e-06,1.24349e-05,-1.66706e-05,1.69814e-05,-5.37832e-06,0
-2.84591e-05,1.9712e-05,-1.31677e-05,-1.13752e-05,9.66071e-06,-1.68174e-05,1.9635e-05,-4.96547e-06,0
-3.03044e-05,1.95278e-05,-3.72833e-05,-1.32443e-05,6.84069e-06,-1.77624e-05,2.04655e-05,-4.88699e-06,0
-3.21057e-05,1.84267e-05,-5.40387e-05,-1.60472e-05,5.49686e-06,-1.77585e-05,2.00449e-05,-5.56881e-06,0
-3.20268e-05,1.73182e-05,-5.88833e-05,-1.84435e-05,5.25692e-06,-1.66379e-05,1.88838e-05,-4.95763e-06,0
-3.05591e-05,1.51271e-05,-5.35984e-05,-1.75224e-05,5.79059e-06,-1.59562e-05,1.7513e-05,-2.61087e-06,0
-2.89812e-05,1.26692e-05,-4.53542e-05,-1.48228e-05,6.89981e-06,-1.63707e-05,1.54432e-05,-3.75537e-07,0
-2.8765e-05,1.09257e-05,-3.79656e-05,-1.27921e-05,9.49422e-06,-1.66704e-05,1.3537e-05,3.5812e-07,0
-3.0596e-05,8.47048e-06,-3.22821e-05,-1.06637e-05,1.24617e-05,-1.54999e-05,1.30481e-05,7.41473e-07,0
-3.25925e-05,5.34175e-06,-2.77679e-05,-7.82217e-06,1.38006e-05,-1.42835e-05,1.57549e-05,1.9532e-06,0
-3.32549e-05,3.77702e-06,-2.28586e-05,-4.00343e-06,1.29126e-05,-1.44506e-05,2.02761e-05,3.61707e-06,0
-3.22497e-05,4.29229e-06,-1.80329e-05,-1.2593e-06,1.17967e-05,-1.70079e-05,2.32861e-05,5.02531e-06,0
-2.93285e-05,6.0696e-06,-1.70169e-05,-2.21138e-06,1.01479e-05,-2.00366e-05,2.37255e-05,6.29344e-06,0
-2.76119e-05,7.66637e-06,-1.98848e-05,-4.84794e-06,7.62357e-06,-1.87462e-05,2.22799e-05,6.59812e-06,0
-2.88516e-05,8.44884e-06,-2.03735e-05,-6.02803e-06,5.41791e-06,-1.57458e-05,1.95723e-05,6.7761e-06,0
-3.01125e-05,9.43903e-06,-1.57158e-05,-6.02668e-06,4.23874e-06,-1.45761e-05,1.77627e-05,7.23061e-06,0
-3.05017e-05,1.00146e-05,-1.06899e-05,-8.10331e-06,3.94641e-06,-1.48735e-05,1.75793e-05,6.81557e-06,0
-3.10499e-05,8.74247e-06,-8.43284e-06,-1.07132e-05,4.54452e-06,-1.63332e-05,1.59534e-05,6.30441e-06,0
-2.99998e-05,8.24664e-06,-6.13426e-06,-1.25312e-05,7.34405e-06,-1.72672e-05,1.19686e-05,5.72433e-06,0
-2.75871e-05,1.09834e-05,-3.35276e-06,-1.20051e-05,1.13367e-05,-1.67007e-05,9.68608e-06,5.48885e-06,0
-2.73124e-05,1.49311e-05,-3.07719e-06,-9.39896e-06,1.53473e-05,-1.51033e-05,1.01967e-05,5.79039e-06,0
-2.93162e-05,1.8589e-05,-4.03185e-06,-6.79898e-06,1.74623e-05,-1.47643e-05,1.06129e-05,5.76951e-06,0
-3.16522e-05,2.02522e-05,-4.3807e-06,-5.2666e-06,1.66998e-05,-1.50947e-05,9.78231e-06,5.79391e-06,0
-3.1681e-05,2.0748e-05,-3.16171e-06,-5.21017e-06,1.65179e-05,-1.40598e-05,8.26437e-06,5.89194e-06,0
-2.91766e-05,2.15089e-05,-1.17115e-06,-4.43507e-06,1.8678e-05,-1.20264e-05,4.78769e-06,5.51565e-06,0
-2.67698e-05,2.29838e-05,3.10302e-07,-3.82503e-06,2.00543e-05,-9.89712e-06,-1.91642e-06,4.63255e-06,0
-2.71514e-05,2.32449e-05,1.63259e-06,-3.94533e-06,1.71826e-05,-8.37508e-06,-7.94038e-06,4.395e-06,0
-2.92519e-05,2.1123e-05,3.18638e-06,-4.48429e-06,1.06199e-05,-7.84974e-06,-9.96394e-06,5.58627e-06,0
-2.95911e-05,1.79839e-05,4.54983e-06,-3.82835e-06,5.83283e-06,-8.32857e-06,-7.98798e-06,6.91387e-06,0
-2.80378e-05,1.50163e-05,4.62118e-06,-2.02151e-06,4.70405e-06,-8.64253e-06,-4.42462e-06,7.06424e-06,0
-2.68183e-05,1.32677e-05,4.05902e-06,-3.16506e-08,5.68833e-06,-8.03142e-06,-1.16372e-06,5.8189e-06,0
-2.72962e-05,1.24244e-05,3.69033e-06,5.49984e-07,7.42275e-06,-6.58723e-06,4.07049e-06,4.68558e-06,0
-2.79021e-05,1.30128e-05,2.78641e-06,1.00469e-06,8.53004e-06,-5.91283e-06,1.4947e-05,3.9945e-06,0
-2.77515e-05,1.49247e-05,1.12656e-08,3.05981e-06,9.23759e-06,-6.91631e-06,2.827e-05,3.51833e-06,0
-2.77911e-05,1.62228e-05,-2.42889e-06,5.08551e-06,1.16228e-05,-9.1587e-06,3.94987e-05,4.45878e-06,0
-2.8579e-05,1.50165e-05,-3.78259e-06,5.15133e-06,1.4091e-05,-1.12988e-05,4.80432e-05,7.15713e-06,0
-2.96112e-05,1.44338e-05,-3.62021e-06,3.17825e-06,1.35339e-05,-1.33787e-05,5.17607e-05,8.92217e-06,0
-2.97922e-05,1.59071e-05,-1.8421e-06,5.29953e-07,1.13424e-05,-1.464e-05,4.9996e-05,8.26082e-06,0
-2.86741e-05,1.66789e-05,-1.61577e-07,-1.72412e-06,9.55484e-06,-1.44691e-05,4.55068e-05,7.62566e-06,0
-2.86539e-05,1.58047e-05,5.85711e-07,-2.76822e-06,1.10963e-05,-1.36321e-05,4.03145e-05,8.2293e-06,0
-2.99352e-05,1.57517e-05,4.39201e-07,-3.51766e-06,1.52366e-05,-1.34162e-05,3.31064e-05,7.92812e-06,0
-2.98585e-05,1.59622e-05,-1.6562e-06,-7.99003e-07,2.0016e-05,-1.37339e-05,1.83775e-05,6.3265e-06,0
-2.88031e-05,1.39241e-05,-3.49062e-06,4.15485e-06,2.4042e-05,-1.0598e-05,1.125e-07,5.19238e-06,0
-2.95393e-05,1.23937e-05,-4.00259e-06,8.25531e-06,2.69821e-05,-6.68904e-06,-1.47455e-05,3.81632e-06,0
-3.18874e-05,1.19984e-05,-5.76028e-06,1.02402e-05,3.01981e-05,-5.36926e-06,-2.28443e-05,4.37014e-06,0
-3.29907e-05,1.1886e-05,-7.04969e-06,7.44034e-06,3.2445e-05,-5.41015e-06,-2.13097e-05,7.09832e-06,0
-3.24752e-05,1.26127e-05,-6.98408e-06,1.96219e-06,3.3208e-05,-5.0387e-06,-1.57587e-05,8.58622e-06,0
-3.05838e-05,1.34134e-05,-6.43424e-06,-2.57546e-06,3.02049e-05,-3.9433e-06,-1.14052e-05,6.58932e-06,0
-2.89562e-05,1.39014e-05,-6.78729e-06,-5.2711e-06,2.49976e-05,-3.81197e-06,-1.02666e-05,2.67977e-06,0
-2.89421e-05,1.41265e-05,-7.97482e-06,-8.6187e-06,2.09373e-05,-3.66601e-06,-7.96008e-06,1.12311e-06,0
-2.8112e-05,1.47186e-05,-7.93282e-06,-1.2647e-05,1.91092e-05,-2.77911e-06,-1.42401e-06,1.90983e-06,0
-2.67005e-05,1.55873e-05,-7.17734e-06,-1.27607e-05,1.72017e-05,-2.49149e-06,6.09501e-06,3.02294e-06,0
-2.70136e-05,1.51041e-05,-7.21675e-06,-7.89031e-06,1.44391e-05,-3.54172e-06,1.07935e-05,2.64799e-06,0
-2.83956e-05,1.23079e-05,-8.3851e-06,-3.32699e-06,1.41051e-05,-4.56578e-06,1.27836e-05,2.06357e-06,0
-2.89013e-05,8.39348e-06,-1.06103e-05,-1.33553e-06,1.52076e-05,-4.82678e-06,1.5103e-05,1.46503e-06,0
-2.86983e-05,6.96682e-06,-1.28702e-05,2.22365e-07,1.57845e-05,-3.75095e-06,1.67529e-05,1.43144e-06,0
-2.94373e-05,8.60592e-06,-1.33192e-05,1.64302e-06,1.51825e-05,-1.94732e-06,1.67332e-05,1.84734e-06,0
-3.06338e-05,1.09918e-05,-1.22626e-05,6.52808e-07,1.49745e-05,-1.20944e-06,1.65169e-05,1.89062e-06,0
-3.10402e-05,1.14775e-05,-1.18883e-05,-1.12939e-06,1.52216e-05,-2.7236e-06,1.83361e-05,1.77172e-06,0
-3.20363e-05,8.77943e-06,-1.08288e-05,6.33036e-07,1.52231e-05,-5.54906e-06,2.08642e-05,1.07311e-06,0
-3.3667e-05,4.43113e-06,-8.24525e-06,5.3918e-06,1.4935e-05,-7.67314e-06,2.31176e-05,1.13337e-06,0
-3.36541e-05,1.7958e-06,-6.19101e-06,8.64849e-06,1.51494e-05,-8.6895e-06,2.51097e-05,2.72696e-06,0
-3.29641e-05,1.46763e-06,-4.48972e-06,8.33009e-06,1.58522e-05,-8.15841e-06,2.61881e-05,4.18105e-06,0
-3.22769e-05,1.24795e-06,-2.20398e-06,4.59874e-06,1.56869e-05,-7.08782e-06,2.70751e-05,3.08379e-06,0
-3.11353e-05,1.6132e-06,1.38746e-06,-1.96791e-06,1.38016e-05,-6.25206e-06,2.79434e-05,-1.85611e-07,0
-2.96543e-05,2.93064e-06,6.44755e-06,-6.72477e-06,1.23355e-05,-5.80351e-06,2.74943e-05,-3.37236e-06,0
-2.78405e-05,4.98355e-06,1.24428e-05,-6.64421e-06,1.27304e-05,-6.81116e-06,2.4734e-05,-4.93823e-06,0
-2.68337e-05,5.67868e-06,1.6436e-05,-1.5632e-06,1.18839e-05,-8.4325e-06,2.17938e-05,-5.70815e-06,0
-2.81009e-05,4.47238e-06,1.66081e-05,3.3036e-06,1.1209e-05,-1.00273e-05,1.9345e-05,-4.61592e-06,0
-3.0161e-05,4.27406e-06,1.34542e-05,3.43822e-06,1.1962e-05,-1.05427e-05,1.76179e-05,-3.50107e-06,0
-3.11165e-05,4.56411e-06,5.47518e-06,7.28247e-07,1.28886e-05,-1.01656e-05,1.74137e-05,-3.70123e-06,0
-3.01494e-05,3.88659e-06,-3.73929e-06,-2.73942e-06,1.38098e-05,-9.57782e-06,1.62529e-05,-3.79537e-06,0
-2.95224e-05,3.27945e-06,-1.16971e-05,-4.91035e-06,1.47368e-05,-8.60411e-06,1.44371e-05,-3.42821e-06,0
-3.17482e-05,1.1854e-06,-1.59862e-05,-5.64581e-06,1.57991e-05,-8.39234e-06,1.12701e-05,-3.09691e-06,0
-3.34435e-05,-7.31644e-07,-1.65621e-05,-8.05417e-06,1.39906e-05,-7.84208e-06,7.1469e-06,-3.89784e-06,0
-3.31064e-05,-5.09597e-07,-1.76819e-05,-1.21796e-05,1.0307e-05,-8.43251e-06,3.35144e-06,-5.23056e-06,0
-3.21126e-05,9.76461e-08,-1.90235e-05,-1.7814e-05,7.73288e-06,-9.16911e-06,6.0533e-07,-7.30471e-06,0
-3.18849e-05,2.0527e-06,-1.73071e-05,-2.43692e-05,7.04107e-06,-8.53823e-06,6.94217e-07,-8.64392e-06,0
-3.2779e-05,5.44621e-06,-1.16536e-05,-2.90352e-05,6.28333e-06,-8.32288e-06,-5.49387e-07,-8.27281e-06,0
-3.37327e-05,9.67742e-06,-6.57444e-06,-3.00652e-05,4.92568e-06,-8.23435e-06,-9.22468e-06,-7.95385e-06,0
-3.34718e-05,1.23309e-05,-4.75205e-06,-2.12933e-05,3.70466e-06,-7.05555e-06,-2.24343e-05,-9.90565e-06,0
-3.17322e-05,1.39647e-05,-4.88747e-06,-1.72228e-06,3.75215e-06,-5.81961e-06,-2.86969e-05,-1.2834e-05,0
-3.00197e-05,1.60535e-05,-4.58884e-06,1.6947e-05,5.42276e-06,-4.76962e-06,-2.36078e-05,-1.28927e-05,0
-2.93082e-05,1.85029e-05,-4.95317e-06,2.15919e-05,6.14614e-06,-2.70263e-06,-1.05586e-05,-9.16808e-06,0
-2.94392e-05,1.97469e-05,-8.34114e-06,1.31101e-05,6.71517e-06,-6.29671e-07,4.09811e-06,-4.94079e-06,0
-3.05939e-05,1.96341e-05,-1.5453e-05,2.53848e-06,7.9398e-06,9.42274e-07,1.58839e-05,-3.61457e-06,0
-3.24561e-05,2.05062e-05,-2.40289e-05,-3.79207e-06,9.3192e-06,1.86863e-06,2.42948e-05,-4.18526e-06,0
-3.26699e-05,2.17831e-05,-3.0749e-05,-8.20477e-06,9.34278e-06,2.6094e-06,2.91047e-05,-4.72228e-06,0
-3.13057e-05,2.31796e-05,-3.272e-05,-1.42936e-05,8.78259e-06,2.82355e-06,2.99311e-05,-6.27131e-06,0
-3.11518e-05,2.32347e-05,-3.01909e-05,-2.10332e-05,8.32421e-06,2.16135e-06,2.91108e-05,-8.99897e-06,0
-3.20131e-05,2.215e-05,-2.60674e-05,-2.5229e-05,7.55301e-06,1.50394e-06,2.85672e-05,-9.58165e-06,0
-3.18953e-05,2.17575e-05,-2.13767e-05,-2.72645e-05,6.3924e-06,1.51469e-06,2.83763e-05,-7.05821e-06,0
-3.05472e-05,2.1424e-05,-1.61992e-05,-3.30179e-05,5.12859e-06,1.5395e-06,2.86546e-05,-3.7303e-06,0
-3.0059e-05,2.17075e-05,-1.08255e-05,-4.14441e-05,2.6892e-06,1.72473e-06,2.85283e-05,-1.32391e-06,0
-3.18177e-05,2.41442e-05,-6.79916e-06,-4.4178e-05,8.80026e-07,9.03491e-07,2.97294e-05,-9.05332e-07,0
-3.33505e-05,2.65707e-05,-5.51662e-06,-3.61578e-05,4.03909e-07,-6.09353e-07,3.45305e-05,-1.2242e-06,0
-3.27838e-05,2.48136e-05,-5.82344e-06,-2.16022e-05,4.04881e-07,-1.38043e-06,4.09623e-05,4.41275e-07,0
-3.07738e-05,2.03281e-05,-7.29267e-06,-1.17559e-05,1.84856e-06,-1.33061e-06,4.37425e-05,2.85846e-06,0
-2.92491e-05,1.90478e-05,-9.63256e-06,-9.56576e-06,6.32968e-06,-1.19835e-06,4.22622e-05,3.16229e-06,0
-3.00652e-05,2.05406e-05,-1.07477e-05,-8.03867e-06,1.3241e-05,-3.18248e-06,3.8375e-05,1.76334e-06,0
-3.28281e-05,1.99513e-05,-1.05846e-05,-3.79784e-06,1.79184e-05,-5.71074e-06,3.23053e-05,5.81153e-07,0
-3.38887e-05,1.68602e-05,-1.00372e-05,-8.45674e-07,1.74812e-05,-6.77078e-06,2.83559e-05,1.06703e-06,0
-3.1794e-05,1.53734e-05,-9.70251e-06,1.46808e-06,1.36443e-05,-5.95272e-06,2.71473e-05,2.11352e-06,0
-2.95672e-05,1.72501e-05,-1.03156e-05,3.83756e-06,1.16288e-05,-4.6157e-06,1.84028e-05,2.90489e-06,0
-2.83935e-05,1.85703e-05,-1.09915e-05,4.5836e-06,1.12363e-05,-4.02191e-06,-2.25049e-07,4.42357e-06,0
-2.73284e-05,1.75927e-05,-9.47349e-06,4.91685e-06,1.12497e-05,-4.35695e-06,-1.58499e-05,5.22547e-06,0
-2.69888e-05,1.70797e-05,-7.3901e-06,5.0023e-06,1.1814e-05,-6.0424e-06,-1.78299e-05,4.77815e-06,0
-2.79926e-05,1.60181e-05,-5.33276e-06,5.14257e-06,1.24299e-05,-7.21559e-06,-7.97639e-06,3.38493e-06,0
-2.91093e-05,1.33874e-05,-2.79191e-06,5.74194e-06,1.30578e-05,-7.36208e-06,4.07859e-06,1.03918e-06,0
-2.98419e-05,1.0241e-05,-2.10308e-06,6.5544e-06,1.52228e-05,-7.74301e-06,1.10736e-05,-5.95161e-07,0
-2.9735e-05,9.79043e-06,-4.44637e-06,5.81125e-06,1.69297e-05,-8.17331e-06,1.03015e-05,-3.79819e-07,0
-2.87386e-05,1.38485e-05,-7.53716e-06,3.9979e-06,1.56858e-05,-8.66172e-06,3.19639e-06,3.09291e-07,0
-2.80482e-05,1.8678e-05,-9.06108e-06,2.35965e-06,1.49641e-05,-9.40083e-06,-5.1407e-06,-5.60044e-07,0
-2.887e-05,2.05321e-05,-9.35836e-06,1.92201e-06,1.83626e-05,-1.02072e-05,-9.76415e-06,-1.88252e-06,0
-3.02087e-05,1.99524e-05,-9.59292e-06,2.47509e-06,2.28704e-05,-1.14488e-05,-9.48884e-06,-1.72693e-06,0
-3.16785e-05,1.92987e-05,-1.04869e-05,1.0125e-06,2.41355e-05,-1.30724e-05,-6.971e-06,-9.77665e-07,0
-3.20854e-05,1.87901e-05,-1.27338e-05,-3.51016e-06,2.28799e-05,-1.43079e-05,-2.64134e-06,-7.27945e-07,0
-3.01105e-05,1.78898e-05,-1.50035e-05,-7.3478e-06,2.02118e-05,-1.51936e-05,4.3089e-06,1.4353e-07,0
-2.84309e-05,1.58521e-05,-1.55194e-05,-7.53814e-06,1.79659e-05,-1.48052e-05,1.07535e-05,2.33766e-06,0
-2.81235e-05,1.46897e-05,-1.53264e-05,-5.07281e-06,1.7229e-05,-1.45329e-05,1.38457e-05,4.24804e-06,0
-2.79372e-05,1.40819e-05,-1.48253e-05,-4.03353e-06,1.6534e-05,-1.56257e-05,1.4376e-05,4.02674e-06,0
-2.76568e-05,1.21789e-05,-1.35346e-05,-3.73563e-06,1.5931e-05,-1.61997e-05,1.31424e-05,4.17079e-06,0
-2.85425e-05,9.51845e-06,-1.1406e-05,-6.19876e-07,1.6369e-05,-1.4974e-05,1.00154e-05,4.65678e-06,0
-2.93601e-05,8.73821e-06,-9.00289e-06,8.51426e-07,1.82232e-05,-1.37873e-05,6.57573e-06,4.43363e-06,0
-3.01179e-05,1.02969e-05,-6.79294e-06,-1.39454e-06,2.09044e-05,-1.40584e-05,3.75778e-06,5.74598e-06,0
-3.12472e-05,1.11648e-05,-7.33442e-06,-3.73402e-06,2.27902e-05,-1.5546e-05,2.22819e-06,7.87497e-06,0
-3.06933e-05,1.13514e-05,-7.56205e-06,-4.41958e-06,2.43067e-05,-1.72935e-05,8.50997e-07,9.12886e-06,0
-2.96083e-05,1.24433e-05,-5.89658e-06,-2.85554e-06,2.40816e-05,-1.63816e-05,-6.75745e-06,7.9724e-06,0
-2.95813e-05,1.34573e-05,-4.60377e-06,3.05439e-07,2.19235e-05,-1.51318e-05,-1.97353e-05,5.65251e-06,0
-2.89285e-05,1.20449e-05,-2.68307e-06,3.07856e-06,2.05726e-05,-1.41294e-05,-2.83045e-05,4.59126e-06,0
-2.74916e-05,1.01753e-05,-1.31816e-06,4.18351e-06,2.14671e-05,-1.35346e-05,-2.56662e-05,5.91115e-06,0
-2.68555e-05,1.01384e-05,-3.44562e-07,4.26387e-06,2.26034e-05,-1.2896e-05,-1.40395e-05,7.52406e-06,0
-2.6323e-05,1.04877e-05,1.20749e-06,3.51525e-06,2.17374e-05,-1.18514e-05,1.67834e-06,7.07412e-06,0
-2.60131e-05,1.02581e-05,2.07936e-06,2.5655e-06,2.0337e-05,-1.12728e-05,1.78207e-05,6.61779e-06,0
-2.70852e-05,8.82705e-06,-1.88077e-07,1.69914e-06,1.88617e-05,-1.10514e-05,3.03536e-05,7.64658e-06,0
-2.90679e-05,6.00233e-06,-3.10211e-06,-1.66939e-06,1.71194e-05,-1.04674e-05,3.6454e-05,8.1346e-06,0
-3.01676e-05,3.24131e-06,-3.66563e-06,-7.63826e-06,1.53065e-05,-9.75578e-06,3.63628e-05,7.17017e-06,0
-3.04978e-05,2.3094e-06,-3.19997e-06,-1.21327e-05,1.34388e-05,-1.05557e-05,3.37919e-05,6.19683e-06,0
-3.06555e-05,3.05932e-06,-4.34329e-06,-1.10743e-05,1.22118e-05,-1.14723e-05,3.06491e-05,5.3965e-06,0
-3.06086e-05,5.1358e-06,-6.49098e-06,-6.00227e-06,1.33029e-05,-1.11732e-05,2.79377e-05,5.09068e-06,0
-3.0929e-05,8.04483e-06,-7.76849e-06,-1.08814e-06,1.59175e-05,-9.83066e-06,2.734e-05,5.55374e-06,0
-3.13814e-05,9.84598e-06,-7.20289e-06,1.15636e-06,1.79907e-05,-9.45853e-06,2.78698e-05,6.61936e-06,0
-3.08578e-05,9.45623e-06,-5.86337e-06,1.33923e-06,1.81498e-05,-8.91848e-06,2.69942e-05,6.66492e-06,0
-2.95256e-05,6.92427e-06,-5.22929e-06,1.10743e-06,1.61098e-05,-8.43427e-06,2.48256e-05,3.99719e-06,0
-2.85196e-05,3.07028e-06,-4.78302e-06,8.28637e-07,1.49007e-05,-9.27844e-06,2.10863e-05,2.20871e-07,0
-2.86177e-05,1.02996e-06,-4.7832e-06,6.57757e-07,1.49266e-05,-1.13544e-05,1.57233e-05,-1.30354e-06,0
-2.89705e-05,1.72942e-06,-6.00972e-06,1.67177e-06,1.47495e-05,-1.23578e-05,1.03541e-05,-8.66742e-07,0
-2.78336e-05,4.14547e-06,-8.51471e-06,3.33248e-06,1.57741e-05,-1.15917e-05,7.20306e-06,-1.98013e-06,0
-2.72831e-05,7.0696e-06,-1.03898e-05,2.78427e-06,1.68297e-05,-1.00877e-05,7.07702e-06,-3.38653e-06,0
-2.82417e-05,8.29966e-06,-1.16755e-05,-6.99341e-07,1.60673e-05,-8.92978e-06,8.82995e-06,-3.33707e-06,0
-2.87293e-05,1.01725e-05,-1.2736e-05,-3.27227e-06,1.41354e-05,-8.87242e-06,1.17565e-05,-4.55324e-06,0
-2.94299e-05,1.38595e-05,-1.39128e-05,-3.47259e-06,1.27875e-05,-9.16374e-06,1.32909e-05,-5.19455e-06,0
-3.00992e-05,1.73312e-05,-1.48989e-05,-4.88967e-06,1.28002e-05,-1.04812e-05,1.31695e-05,-4.41e-06,0
-3.05532e-05,2.07807e-05,-1.5622e-05,-8.00036e-06,1.22618e-05,-1.30442e-05,1.44878e-05,-4.5148e-06,0
-3.20211e-05,2.37541e-05,-1.61455e-05,-1.07702e-05,1.22583e-05,-1.41528e-05,1.61774e-05,-4.30135e-06,0
-3.15782e-05,2.53135e-05,-1.45913e-05,-1.13658e-05,1.36639e-05,-1.26102e-05,1.65494e-05,-5.23343e-06,0
-2.90947e-05,2.61393e-05,-1.15724e-05,-9.87005e-06,1.49491e-05,-9.91921e-06,1.34782e-05,-6.73071e-06,0
-2.79572e-05,2.64352e-05,-9.95916e-06,-7.34139e-06,1.50909e-05,-8.29778e-06,8.22285e-06,-6.81406e-06,0
-2.8445e-05,2.62754e-05,-8.64578e-06,-4.67836e-06,1.3452e-05,-8.58508e-06,6.98827e-06,-7.00366e-06,0
-2.87832e-05,2.46779e-05,-6.87899e-06,-3.56975e-06,1.16644e-05,-8.24958e-06,1.12481e-05,-7.65495e-06,0
-2.92744e-05,2.21821e-05,-5.5679e-06,-5.26554e-06,1.22423e-05,-6.1219e-06,1.68888e-05,-7.09894e-06,0
-3.07918e-05,1.95779e-05,-5.23397e-06,-7.88459e-06,1.45634e-05,-3.83809e-06,1.96616e-05,-4.26261e-06,0
-3.25326e-05,1.84971e-05,-6.41828e-06,-7.28041e-06,1.68078e-05,-4.97656e-06,1.93814e-05,-1.49492e-06,0
-3.37737e-05,1.89437e-05,-8.55409e-06,-3.28667e-06,1.74615e-05,-7.34767e-06,1.725e-05,1.50647e-07,0
-3.51942e-05,1.9411e-05,-1.12519e-05,-7.16356e-07,1.61196e-05,-8.35671e-06,1.53038e-05,1.625e-06,0
-3.70156e-05,2.014e-05,-1.38361e-05,-1.80608e-06,1.40118e-05,-9.04753e-06,1.48715e-05,2.38469e-06,0
-3.81392e-05,2.02958e-05,-1.58659e-05,-4.70505e-06,1.2216e-05,-1.08103e-05,1.56596e-05,1.86418e-06,0
-3.78176e-05,1.96704e-05,-1.59558e-05,-6.04969e-06,1.18522e-05,-1.32015e-05,1.61697e-05,5.01727e-07,0
-3.66284e-05,1.83538e-05,-1.33276e-05,-5.25636e-06,1.32615e-05,-1.49409e-05,1.59448e-05,-1.25426e-06,0
-3.5626e-05,1.74406e-05,-9.03839e-06,-6.00339e-06,1.33763e-05,-1.57207e-05,1.60462e-05,-2.16436e-06,0
-3.36073e-05,1.77051e-05,-5.73172e-06,-1.0347e-05,1.02749e-05,-1.5578e-05,1.67842e-05,-7.8992e-07,0
-3.17311e-05,1.88543e-05,-4.22868e-06,-1.49628e-05,9.07502e-06,-1.49901e-05,1.55217e-05,1.15049e-06,0
-3.06581e-05,2.02489e-05,-4.24322e-06,-1.76769e-05,1.15369e-05,-1.33671e-05,1.11427e-05,1.71953e-06,0
-3.0301e-05,2.1355e-05,-6.00523e-06,-2.1527e-05,1.33721e-05,-1.23025e-05,5.38609e-06,1.80584e-06,0
-3.04619e-05,2.1439e-05,-8.1305e-06,-2.38314e-05,1.17545e-05,-1.31971e-05,2.18564e-06,1.83884e-06,0
-3.06172e-05,1.94357e-05,-6.96937e-06,-2.05693e-05,9.05838e-06,-1.42117e-05,3.21629e-06,1.25679e-06,0
-2.99715e-05,1.39512e-05,-3.19753e-06,-1.2796e-05,7.9433e-06,-1.47163e-05,4.84257e-06,1.38207e-06,0
-2.97683e-05,9.53667e-06,-1.12821e-06,-4.59288e-06,6.66127e-06,-1.36353e-05,5.84333e-06,2.40263e-06,0
-3.02448e-05,6.85931e-06,-1.86083e-06,-2.17771e-07,2.91617e-06,-1.23785e-05,8.53386e-06,3.0814e-06,0
-2.91691e-05,3.11375e-06,-4.29852e-06,-4.90894e-07,-8.20351e-07,-1.28792e-05,1.3107e-05,2.73933e-06,0
-3.0076e-05,1.6944e-06,-7.00939e-06,-4.64202e-06,-2.44685e-06,-1.24429e-05,1.67883e-05,1.48458e-06,0
-3.28357e-05,2.76274e-06,-8.32115e-06,-1.17295e-05,-4.29051e-06,-1.27524e-05,1.67947e-05,-6.62248e-07,0
-3.493e-05,3.68392e-06,-8.11657e-06,-2.24137e-05,-6.88108e-06,-1.35321e-05,1.33891e-05,-1.59021e-06,0
-3.55523e-05,3.65019e-06,-7.57327e-06,-3.39595e-05,-9.04232e-06,-1.21193e-05,1.20903e-05,1.34159e-06,0
-3.52668e-05,2.35862e-06,-7.72786e-06,-4.32214e-05,-9.18164e-06,-9.99331e-06,1.38521e-05,5.02009e-06,0
-3.45422e-05,4.15885e-07,-9.96232e-06,-4.83156e-05,-8.49299e-06,-9.38953e-06,1.6868e-05,5.9757e-06,0
-3.28147e-05,-4.17464e-07,-1.31811e-05,-4.75868e-05,-8.2352e-06,-1.06331e-05,1.76329e-05,3.92494e-06,0
-3.1149e-05,1.36164e-07,-1.61258e-05,-3.91241e-05,-6.8343e-06,-1.27383e-05,1.49683e-05,1.67523e-06,0
-3.01508e-05,2.22906e-06,-1.56139e-05,-2.1524e-05,-1.12497e-07,-1.37937e-05,1.09222e-05,1.00202e-06,0
-2.93058e-05,4.41102e-06,-9.48305e-06,2.81567e-06,1.64067e-05,-1.18131e-05,7.87587e-06,1.58402e-06,0
-2.90851e-05,4.80675e-06,-3.63148e-08,3.0102e-05,4.16763e-05,-7.28853e-06,6.28682e-06,2.18959e-06,0
-2.93947e-05,5.19508e-06,9.5964e-06,5.15822e-05,6.3815e-05,-3.39808e-06,6.19923e-06,1.74578e-06,0
-2.83509e-05,8.65135e-06,1.91464e-05,5.56772e-05,6.76175e-05,-2.50258e-06,8.11124e-06,6.18718e-07,0
-2.67899e-05,1.31179e-05,2.93393e-05,4.00639e-05,5.31261e-05,-2.78939e-06,1.09204e-05,-1.17444e-07,0
-2.60935e-05,1.49853e-05,3.87e-05,1.79467e-05,3.49139e-05,-2.66187e-06,1.42469e-05,6.93821e-07,0
-2.72899e-05,1.48925e-05,4.26923e-05,3.4255e-06,2.49697e-05,-2.83609e-06,1.60273e-05,2.09795e-06,0
-2.86335e-05,1.40285e-05,3.57869e-05,-1.50255e-06,2.22078e-05,-4.20927e-06,1.65596e-05,2.77934e-06,0
-2.83665e-05,1.28132e-05,1.84983e-05,-1.87278e-06,1.9806e-05,-5.9775e-06,1.62389e-05,1.62967e-06,0
-2.74793e-05,1.26355e-05,-5.251e-06,-6.59464e-07,1.52756e-05,-6.41822e-06,1.60977e-05,8.69908e-07,0
-2.76324e-05,1.31416e-05,-2.94403e-05,1.92761e-06,1.09049e-05,-6.21962e-06,1.676e-05,9.6658e-07,0
-2.91308e-05,1.26484e-05,-4.71495e-05,4.99946e-06,8.62488e-06,-6.53939e-06,1.73989e-05,7.81576e-07,0
-2.99819e-05,1.19018e-05,-5.32199e-05,8.24795e-06,8.29752e-06,-6.61723e-06,1.54336e-05,-1.29503e-07,0
-2.9203e-05,1.16286e-05,-4.91911e-05,1.17807e-05,9.65641e-06,-5.44959e-06,1.21651e-05,-1.53631e-06,0
-2.7948e-05,1.20937e-05,-4.35783e-05,1.30212e-05,1.11933e-05,-4.4612e-06,1.06242e-05,5.49358e-07,0
-2.96366e-05,1.34294e-05,-3.96268e-05,9.68384e-06,1.14237e-05,-5.89947e-06,1.10586e-05,2.96241e-06,0
-3.22319e-05,1.49511e-05,-3.59246e-05,3.10165e-06,1.12699e-05,-8.17528e-06,1.33982e-05,2.86551e-06,0
-3.23742e-05,1.46771e-05,-3.12244e-05,-2.05633e-06,1.20924e-05,-9.66626e-06,1.54975e-05,1.03585e-06,0
-3.20539e-05,1.35912e-05,-2.34953e-05,-3.44084e-06,1.53456e-05,-1.00671e-05,1.51072e-05,-7.64663e-07,0
-3.06185e-05,1.34634e-05,-1.52239e-05,-1.71703e-06,1.84196e-05,-8.59816e-06,1.27507e-05,4.67383e-08,0
-2.83194e-05,1.31715e-05,-9.65708e-06,-4.10517e-07,1.79903e-05,-5.8101e-06,9.64827e-06,1.10355e-06,0
-2.71476e-05,1.40253e-05,-5.95876e-06,-3.07937e-06,1.55373e-05,-4.16065e-06,7.60868e-06,2.38239e-06,0
-2.79097e-05,1.55355e-05,-5.18569e-06,-5.91867e-06,1.35542e-05,-3.40028e-06,8.21148e-06,3.5688e-06,0
-2.93305e-05,1.68724e-05,-5.9944e-06,-5.34759e-06,1.19277e-05,-3.14199e-06,1.11373e-05,4.13708e-06,0
