ch1,ch2,ch3,ch4,ch5,ch6,ch7,ch8,class
-1.89367e-05,2.00934e-05,-3.17333e-06,2.87082e-06,3.17648e-05,-5.71293e-06,1.66457e-05,-1.27073e-06,0
-2.3085e-05,1.86826e-05,1.18179e-06,1.59086e-05,2.22645e-05,-8.48075e-06,1.82197e-05,-7.88684e-07,0
-2.85861e-05,1.50156e-05,-7.82867e-07,1.73548e-05,1.47515e-05,-1.38752e-05,1.95693e-05,-8.12938e-07,0
-3.15961e-05,1.49841e-05,-7.26803e-06,1.15318e-05,1.22124e-05,-1.79211e-05,2.00282e-05,-1.12025e-06,0
-3.04633e-05,2.5432e-05,-1.22221e-05,9.87987e-06,1.24983e-05,-1.86939e-05,1.92546e-05,-2.46732e-06,0
-2.83652e-05,4.88382e-05,-1.45354e-05,1.5767e-05,1.13591e-05,-1.71233e-05,1.88245e-05,-3.59771e-06,0
-2.69443e-05,8.27863e-05,-1.57758e-05,1.93382e-05,8.19869e-06,-1.66293e-05,1.90551e-05,-3.55042e-06,0
-2.66234e-05,0.000116964,-1.63435e-05,1.2182e-05,3.949e-06,-1.90753e-05,1.94471e-05,-1.45373e-06,0
-2.63639e-05,0.000136431,-1.62952e-05,-2.34578e-06,-1.29406e-06,-2.08212e-05,2.06862e-05,9.51681e-07,0
-2.45374e-05,0.000141741,-1.51038e-05,-1.63018e-05,-5.66833e-06,-1.9185e-05,2.10036e-05,2.8928e-06,0
-1.96397e-05,0.000150026,-1.14733e-05,-2.58164e-05,-7.173e-06,-1.67242e-05,1.82484e-05,4.44053e-06,0
-1.50925e-05,0.000164856,-7.24164e-06,-3.04227e-05,-3.73796e-06,-1.74649e-05,1.42321e-05,5.0173e-06,0
-1.46099e-05,0.000153821,-6.82111e-06,-3.1542e-05,3.4075e-06,-1.95382e-05,1.21979e-05,4.06209e-06,0
-1.37626e-05,8.65965e-05,-1.26778e-05,-3.27949e-05,9.06033e-06,-1.81289e-05,1.33104e-05,2.28195e-06,0
-1.32797e-05,-2.36667e-05,-1.9454e-05,-3.69036e-05,1.80044e-05,-1.41443e-05,1.55557e-05,-3.20023e-07,0
-1.96419e-05,-0.000128744,-2.0025e-05,-4.34819e-05,3.24312e-05,-1.31507e-05,1.63385e-05,-3.33935e-06,0
-3.36413e-05,-0.000197426,-1.85862e-05,-4.88415e-05,3.97045e-05,-1.75088e-05,1.51984e-05,-4.26917e-06,0
-4.69573e-05,-0.000228342,-2.13988e-05,-5.57414e-05,4.06593e-05,-2.30263e-05,1.33637e-05,-3.32117e-06,0
-4.59249e-05,-0.000180299,-2.44355e-05,-6.33553e-05,3.39173e-05,-2.33215e-05,1.2121e-05,-2.9477e-06,0
-2.90187e-05,-8.31963e-05,-2.21994e-05,-6.2794e-05,5.66698e-06,-1.94511e-05,1.0287e-05,-2.70882e-06,0
-8.28727e-07,-4.09309e-05,-1.77255e-05,-5.49946e-05,-3.52318e-05,-1.44083e-05,7.55215e-06,-1.30748e-06,0
2.70767e-05,-6.33699e-05,-1.22395e-05,-4.48555e-05,-5.73823e-05,-1.18739e-05,5.39719e-06,-9.30992e-07,0
3.97337e-05,-0.000108038,-5.91295e-06,-3.55419e-05,-4.06012e-05,-1.30956e-05,5.67787e-06,-3.18316e-06,0
3.7934e-05,-0.000109865,-2.70647e-06,-2.32563e-05,2.72885e-05,-1.49355e-05,7.53689e-06,-4.9571e-06,0
2.5542e-05,-4.86905e-05,-1.49269e-06,1.82536e-06,0.000126364,-1.69241e-05,8.69955e-06,-3.70463e-06,0
5.96917e-06,2.30013e-05,6.18475e-07,4.30171e-05,0.000178788,-1.76715e-05,9.84833e-06,-2.69439e-06,0
-2.35598e-05,6.00128e-05,3.2035e-06,8.5394e-05,0.00014234,-1.79513e-05,1.25737e-05,-2.43654e-06,0
-6.55423e-05,6.43902e-05,4.23791e-06,0.000108661,6.54359e-05,-2.09305e-05,1.42551e-05,-1.47074e-06,0
-0.000111605,4.21005e-05,3.25829e-06,0.000104148,1.56298e-05,-2.47111e-05,1.24317e-05,6.46925e-07,0
-0.000139593,-5.93341e-07,2.22348e-06,7.29976e-05,1.19441e-06,-2.22671e-05,9.66236e-06,2.03567e-06,0
-0.000133584,-2.70945e-05,2.55039e-06,3.07473e-05,-1.16601e-05,-1.3208e-05,7.77536e-06,9.31878e-07,0
-0.000101228,-1.86602e-05,3.63521e-06,-2.22082e-06,-4.00915e-05,-4.35772e-06,6.15218e-06,-2.57495e-07,0
-6.47614e-05,9.27601e-06,2.7213e-06,-2.04481e-05,-7.42375e-05,3.64953e-07,5.57565e-06,7.33266e-07,0
-4.36607e-05,3.52485e-05,-1.06433e-06,-3.2645e-05,-0.000100865,9.55702e-07,8.17365e-06,2.81867e-06,0
-4.00299e-05,6.35275e-05,-5.12884e-06,-4.22701e-05,-0.000111111,-1.04916e-06,1.34023e-05,4.42431e-06,0
-4.33492e-05,9.68283e-05,-5.85606e-06,-4.55484e-05,-0.000100094,-4.63645e-06,1.6975e-05,5.52368e-06,0
-4.36183e-05,0.000121155,-3.00325e-06,-4.05653e-05,-8.12398e-05,-9.37653e-06,1.71171e-05,6.81512e-06,0
-4.00148e-05,0.000112427,1.42885e-06,-3.2367e-05,-7.52428e-05,-1.32426e-05,1.64973e-05,8.79879e-06,0
-3.18941e-05,5.66474e-05,4.4522e-06,-2.7443e-05,-7.44874e-05,-1.41369e-05,1.67439e-05,9.9235e-06,0
-2.18019e-05,-3.37461e-05,5.33094e-06,-2.33894e-05,-4.92512e-05,-1.1943e-05,1.81717e-05,9.05423e-06,0
-1.69735e-05,-0.000131978,4.61927e-06,-1.4846e-05,1.70061e-06,-9.49614e-06,1.83261e-05,8.61646e-06,0
-2.21484e-05,-0.00020056,-1.18399e-06,-1.68872e-06,5.27197e-05,-1.03408e-05,1.52882e-05,1.01149e-05,0
-3.35028e-05,-0.000185675,-1.04275e-05,1.06671e-05,7.9279e-05,-1.25188e-05,1.14175e-05,1.16017e-05,0
-4.36182e-05,-9.97843e-05,-1.72563e-05,1.9312e-05,7.20967e-05,-1.32415e-05,9.31797e-06,1.20131e-05,0
-4.58388e-05,-1.3814e-05,-1.84757e-05,2.88653e-05,4.54165e-05,-1.32754e-05,8.06852e-06,1.04799e-05,0
-4.07262e-05,3.02947e-05,-1.3935e-05,3.61355e-05,1.70162e-05,-1.32479e-05,5.9024e-06,8.8546e-06,0
-3.80943e-05,4.51925e-05,-7.2537e-06,3.41885e-05,-1.19909e-05,-1.13713e-05,3.94036e-06,8.30597e-06,0
-4.11804e-05,5.70207e-05,-2.57176e-06,1.94748e-05,-3.32512e-05,-9.08802e-06,2.29086e-06,8.92096e-06,0
-3.99875e-05,7.16091e-05,3.53927e-06,-1.36288e-06,-2.82186e-05,-1.01012e-05,1.92682e-06,1.00717e-05,0
-2.95715e-05,8.82086e-05,1.50044e-05,-1.32625e-05,-3.10831e-06,-1.18292e-05,3.66877e-06,9.55701e-06,0
-1.50737e-05,8.39817e-05,2.86158e-05,-1.47062e-05,2.5932e-05,-1.22813e-05,6.38397e-06,8.19912e-06,0
5.53991e-07,7.19165e-05,3.85167e-05,-1.03506e-05,5.59284e-05,-9.50287e-06,9.77221e-06,6.45256e-06,0
1.72879e-05,7.32711e-05,3.84273e-05,-1.39605e-06,8.45564e-05,-4.65943e-06,1.09739e-05,4.08651e-06,0
2.80828e-05,9.18282e-05,2.3718e-05,1.29898e-05,9.4203e-05,-2.46291e-06,1.05787e-05,2.31284e-06,0
2.5161e-05,0.000106412,-3.75881e-06,2.90371e-05,7.58133e-05,-2.52019e-06,1.08707e-05,1.51396e-06,0
7.4695e-06,0.000104503,-3.51653e-05,4.12337e-05,4.50676e-05,-1.49895e-06,1.07479e-05,1.06812e-06,0
-2.34549e-05,9.51173e-05,-6.224e-05,4.62407e-05,2.08565e-05,8.87462e-07,9.71101e-06,1.93515e-06,0
-5.54788e-05,8.64627e-05,-7.83336e-05,4.7294e-05,9.86836e-06,8.88934e-07,8.77004e-06,3.36371e-06,0
-7.34235e-05,9.10644e-05,-7.76398e-05,4.55533e-05,9.16512e-06,-1.33613e-06,8.94077e-06,3.59731e-06,0
-7.41835e-05,8.95403e-05,-6.33178e-05,3.74501e-05,1.56258e-05,-3.60267e-06,1.03469e-05,2.59897e-06,0
-6.75516e-05,4.71437e-05,-4.6754e-05,2.33754e-05,2.79911e-05,-4.32959e-06,1.17873e-05,9.45364e-07,0
-5.61744e-05,-2.90475e-05,-3.60799e-05,8.08229e-06,4.35241e-05,-4.07218e-06,1.17241e-05,-4.85035e-07,0
-3.66191e-05,-8.29015e-05,-3.09433e-05,-4.10095e-06,5.22098e-05,-5.49032e-06,9.92579e-06,-8.73383e-07,0
-1.46151e-05,-8.57864e-05,-2.63503e-05,-1.2725e-05,4.42358e-05,-8.2654e-06,7.5449e-06,-3.7603e-07,0
-1.03242e-06,-4.4374e-05,-2.06582e-05,-1.94536e-05,2.42579e-05,-9.07213e-06,6.70346e-06,4.20464e-07,0
-1.86801e-06,-3.48847e-07,-1.49778e-05,-2.75848e-05,8.60601e-06,-6.68702e-06,7.47095e-06,1.46416e-06,0
-1.12171e-05,3.10445e-06,-1.07236e-05,-3.90073e-05,3.82173e-06,-3.25747e-06,9.35415e-06,1.71761e-06,0
-1.69437e-05,-2.92428e-05,-8.82334e-06,-5.3628e-05,5.40189e-06,-2.95616e-06,1.15554e-05,6.38201e-07,0
-1.83065e-05,-5.10229e-05,-1.19749e-05,-6.35141e-05,8.8223e-06,-6.30016e-06,1.10896e-05,-5.5463e-07,0
-2.41342e-05,-2.76392e-05,-1.91005e-05,-6.44635e-05,1.14227e-05,-8.00516e-06,9.2486e-06,-1.88445e-06,0
-4.07151e-05,8.82247e-06,-2.35007e-05,-6.1913e-05,1.34964e-05,-8.09774e-06,9.6574e-06,-4.49852e-06,0
-5.65739e-05,1.94746e-05,-2.05183e-05,-6.17815e-05,1.71179e-05,-8.32089e-06,1.08988e-05,-6.1198e-06,0
-5.05436e-05,2.65035e-05,-1.32796e-05,-6.27246e-05,1.63243e-05,-8.15448e-06,1.26621e-05,-4.27497e-06,0
-3.63106e-05,4.76087e-05,-6.79323e-06,-5.35433e-05,6.08652e-06,-7.51339e-06,1.33293e-05,-3.85617e-06,0
-3.86855e-05,6.25644e-05,4.20906e-07,-2.61696e-05,-4.61828e-06,-4.75513e-06,1.2445e-05,-5.17289e-06,0
-5.14354e-05,5.54957e-05,6.08739e-06,9.68366e-06,-9.05104e-06,-1.10736e-06,1.18654e-05,-4.88903e-06,0
-5.54537e-05,4.03877e-05,6.01948e-06,4.01339e-05,-4.64336e-06,1.57311e-06,1.26153e-05,-5.56194e-06,0
-4.49321e-05,5.25009e-05,3.65355e-06,5.80704e-05,5.13712e-06,1.18764e-06,1.35522e-05,-8.71091e-06,0
-3.15398e-05,9.87743e-05,5.57064e-06,5.68391e-05,1.2034e-05,-2.61889e-06,1.29118e-05,-1.212e-05,0
-2.67607e-05,0.000139212,8.1268e-06,3.11513e-05,1.40333e-05,-6.72561e-06,1.22028e-05,-1.19325e-05,0
-2.81258e-05,0.000139561,5.72516e-06,-4.82163e-06,1.33105e-05,-9.94482e-06,1.27046e-05,-1.05384e-05,0
-2.60524e-05,0.000105681,1.5331e-06,-2.27639e-05,1.29381e-05,-1.12046e-05,1.49718e-05,-9.66054e-06,0
-2.17949e-05,5.15986e-05,4.93102e-08,-1.54854e-05,1.1301e-05,-8.69638e-06,1.67775e-05,-7.89083e-06,0
-2.18346e-05,-2.30086e-05,-9.54324e-09,-2.48885e-06,5.80147e-06,-4.65129e-06,1.66843e-05,-5.11293e-06,0
-3.0405e-05,-0.000107554,-3.51284e-06,1.02401e-07,-2.16179e-06,-4.30262e-06,1.53789e-05,-3.12748e-06,0
-4.38144e-05,-0.000140418,-9.08091e-06,-5.72243e-06,-7.84443e-06,-8.57449e-06,1.43515e-05,-2.74571e-06,0
-4.77904e-05,-7.42984e-05,-9.139e-06,-1.36774e-05,-6.67488e-06,-1.29981e-05,1.32128e-05,-1.83472e-06,0
-3.49939e-05,4.99879e-05,-2.12337e-06,-1.92471e-05,2.66997e-06,-1.35501e-05,1.10893e-05,-1.42419e-07,0
-1.17075e-05,0.000150814,2.93721e-06,-2.23292e-05,1.80366e-05,-1.17328e-05,8.91116e-06,1.15452e-06,0
1.087e-05,0.000189425,5.95589e-07,-2.42031e-05,3.34668e-05,-1.06742e-05,8.0816e-06,1.23621e-06,0
2.36378e-05,0.000166145,-4.71137e-06,-2.50634e-05,4.38692e-05,-1.09989e-05,8.58558e-06,1.60175e-06,0
1.98616e-05,9.20735e-05,-5.77187e-06,-2.42539e-05,4.7637e-05,-1.13977e-05,8.83852e-06,2.71862e-06,0
2.22268e-06,6.64764e-06,-1.7021e-06,-2.15478e-05,4.2952e-05,-1.16383e-05,8.46446e-06,3.55165e-06,0
-1.81298e-05,-4.91106e-05,4.43568e-06,-1.54657e-05,3.01523e-05,-1.34618e-05,7.81339e-06,2.18998e-06,0
-3.26822e-05,-4.1093e-05,1.0584e-05,-7.18238e-06,1.58884e-05,-1.92899e-05,7.09502e-06,-9.1685e-07,0
-4.4277e-05,2.51311e-05,1.44689e-05,-9.33213e-07,5.09279e-06,-2.47321e-05,6.92477e-06,-2.50245e-06,0
-5.57447e-05,6.40395e-05,1.49849e-05,5.515e-06,3.01544e-06,-2.27183e-05,7.79693e-06,-2.2015e-06,0
-6.24325e-05,5.68727e-05,1.4303e-05,1.16727e-05,1.78957e-05,-1.53121e-05,1.01908e-05,-1.86629e-06,0
-6.08476e-05,3.17216e-05,1.39669e-05,1.15839e-05,4.34877e-05,-8.67131e-06,1.26608e-05,-1.14891e-06,0
-5.50384e-05,-2.45817e-05,1.44274e-05,7.14527e-06,4.19693e-05,-9.57167e-06,1.20464e-05,2.92922e-07,0
-5.12488e-05,-0.000126988,1.00381e-05,-1.00843e-06,1.14316e-05,-1.47903e-05,1.04083e-05,1.1227e-06,0
-4.51922e-05,-0.000180679,-2.4339e-07,-1.09601e-05,-3.6982e-06,-1.62147e-05,1.09403e-05,2.14226e-06,0
-3.17545e-05,-6.19041e-05,-8.58095e-06,-1.50228e-05,8.11383e-06,-1.5304e-05,1.23124e-05,4.53084e-06,0
-1.67107e-05,0.000137871,-1.40808e-05,-1.49212e-05,2.77981e-05,-1.55176e-05,1.4286e-05,6.46852e-06,0
-4.90124e-06,0.000254798,-1.60249e-05,-1.41508e-05,3.53291e-05,-1.55631e-05,1.73214e-05,5.62849e-06,0
6.32479e-06,0.000219516,-1.56475e-05,-1.08272e-05,3.21835e-05,-1.22047e-05,1.92936e-05,3.18538e-06,0
3.09192e-05,7.23009e-05,-1.49557e-05,-6.55425e-06,2.4744e-05,-7.04641e-06,1.97315e-05,4.89733e-07,0
6.73523e-05,-0.000121019,-1.42108e-05,-2.61516e-06,1.7394e-05,-3.36376e-06,1.90705e-05,-2.05871e-06,0
8.56334e-05,-0.00027469,-1.52111e-05,8.19861e-07,1.02969e-05,-5.4659e-06,1.74874e-05,-3.01015e-06,0
7.64878e-05,-0.0002835,-1.94408e-05,2.32428e-06,4.698e-07,-9.65835e-06,1.5042e-05,-3.12012e-06,0
5.9754e-05,-0.000152977,-2.41013e-05,-3.49201e-08,-8.33311e-06,-9.00605e-06,1.31229e-05,-2.86687e-06,0
4.65818e-05,-3.07643e-06,-2.55136e-05,-2.93517e-06,-1.16172e-05,-4.6864e-06,1.20377e-05,-3.03293e-06,0
2.32322e-05,9.16417e-05,-2.131e-05,2.49537e-06,-9.47193e-06,-1.50934e-06,1.151e-05,-4.58088e-06,0
-2.64708e-05,0.000130565,-1.1851e-05,1.42905e-05,-7.63805e-06,-4.36743e-06,1.2751e-05,-7.1067e-06,0
-9.77969e-05,8.77491e-05,-3.33894e-06,2.29216e-05,-3.98059e-06,-1.17209e-05,1.47501e-05,-9.0884e-06,0
-0.00016419,-3.08648e-05,-1.54242e-06,2.41047e-05,6.76892e-06,-1.79525e-05,1.60254e-05,-9.1492e-06,0
-0.000196769,-0.000152096,-3.92406e-06,2.3615e-05,2.42642e-05,-1.97468e-05,1.66428e-05,-7.95888e-06,0
-0.000188822,-0.000221255,-4.17088e-06,2.63925e-05,3.91659e-05,-1.83352e-05,1.76077e-05,-6.57338e-06,0
-0.000161582,-0.000267063,-2.96671e-06,2.78944e-05,4.66346e-05,-1.38681e-05,1.74077e-05,-5.14918e-06,0
-0.000140595,-0.000296703,-3.00185e-06,2.16526e-05,5.24743e-05,-7.44989e-06,1.48938e-05,-2.84835e-06,0
-0.000133554,-0.000248015,-3.59213e-06,1.2302e-05,5.90306e-05,-8.80546e-07,1.25206e-05,-3.57117e-07,0
-0.00013517,-0.000124816,-4.58719e-07,4.18144e-06,4.99884e-05,2.98064e-06,1.14749e-05,1.6983e-06,0
-0.000131809,-5.03475e-06,5.04456e-06,-5.28859e-06,2.17749e-05,2.18702e-06,1.03177e-05,2.86852e-06,0
-0.000106199,7.83376e-05,7.74683e-06,-1.60329e-05,-8.3322e-07,-1.39261e-06,9.68496e-06,3.68755e-06,0
-5.94904e-05,0.000129817,6.96056e-06,-2.43898e-05,-3.72462e-06,-4.14504e-06,1.14093e-05,4.74057e-06,0
-5.92674e-06,0.000178517,4.19352e-06,-2.56216e-05,7.52718e-06,-3.28306e-06,1.3115e-05,4.42212e-06,0
2.72065e-05,0.000214842,2.01198e-06,-2.328e-05,1.41474e-05,-2.15251e-06,1.24207e-05,4.01839e-06,0
2.56751e-05,0.000173551,1.65869e-06,-2.12062e-05,-2.62737e-06,-2.48678e-06,1.20181e-05,5.59745e-06,0
1.15843e-05,4.18707e-05,1.34321e-06,-2.06579e-05,-4.45432e-05,-3.00748e-06,1.34902e-05,6.9548e-06,0
5.82775e-08,-0.000113194,-4.02791e-06,-2.38451e-05,-9.05364e-05,-3.60658e-06,1.53611e-05,7.04085e-06,0
-8.94645e-06,-0.000193077,-1.4895e-05,-2.6669e-05,-0.000108946,-4.13857e-06,1.5401e-05,7.03498e-06,0
-1.50441e-05,-0.000153235,-2.3502e-05,-2.52425e-05,-9.1069e-05,-5.58624e-06,1.41404e-05,7.71726e-06,0
-1.12685e-05,-6.88347e-05,-2.90468e-05,-2.22761e-05,-5.48959e-05,-7.1212e-06,1.43639e-05,7.68833e-06,0
1.53644e-06,-1.46077e-05,-3.17704e-05,-1.86573e-05,-3.50332e-05,-8.41837e-06,1.60879e-05,6.07737e-06,0
1.71702e-05,2.64063e-05,-2.91037e-05,-1.31671e-05,-5.13785e-05,-9.50707e-06,1.81947e-05,4.40089e-06,0
2.93327e-05,7.3291e-05,-2.60083e-05,-8.1206e-06,-8.08933e-05,-9.43847e-06,1.89118e-05,3.70318e-06,0
3.55604e-05,0.000106723,-2.57516e-05,-3.47126e-06,-8.27049e-05,-9.08861e-06,1.66498e-05,2.93312e-06,0
3.14506e-05,0.000100011,-2.56016e-05,2.09638e-06,-4.57652e-05,-8.87628e-06,1.38203e-05,2.05337e-06,0
1.36657e-05,6.49917e-05,-2.24016e-05,7.79368e-06,-3.78916e-07,-6.64349e-06,1.31534e-05,1.67131e-06,0
-5.69294e-06,2.40348e-05,-1.76578e-05,1.58119e-05,1.48048e-05,-1.08038e-06,1.43958e-05,3.06487e-06,0
-1.67504e-05,-1.24036e-05,-1.40802e-05,2.50773e-05,-1.02739e-05,2.74893e-06,1.62629e-05,5.47919e-06,0
-2.89018e-05,-4.24429e-05,-1.24686e-05,3.22574e-05,-4.60005e-05,1.21106e-06,1.66226e-05,5.74349e-06,0
-5.15754e-05,-4.18015e-05,-1.22814e-05,3.5863e-05,-6.34265e-05,-3.22002e-06,1.49783e-05,4.75015e-06,0
-7.25772e-05,9.57601e-06,-1.09058e-05,3.76411e-05,-6.10736e-05,-5.72795e-06,1.23971e-05,5.38271e-06,0
-7.99707e-05,8.93484e-05,-5.98801e-06,3.72781e-05,-4.89115e-05,-5.16095e-06,1.13243e-05,7.55179e-06,0
-7.63558e-05,0.000162629,1.08809e-06,3.11235e-05,-3.4861e-05,-3.48272e-06,1.19183e-05,8.45138e-06,0
-7.24588e-05,0.000208899,6.47207e-06,1.974e-05,-3.25772e-05,-2.51305e-06,1.26946e-05,7.09445e-06,0
-7.63431e-05,0.000201558,6.88867e-06,5.42488e-06,-4.53285e-05,-4.31553e-06,1.37728e-05,5.43566e-06,0
-8.55356e-05,0.000109422,1.16343e-06,-9.68862e-06,-5.93161e-05,-9.36109e-06,1.50219e-05,6.59514e-06,0
-8.08684e-05,-4.7308e-05,-6.90552e-06,-2.0672e-05,-5.71919e-05,-1.45362e-05,1.56121e-05,8.23272e-06,0
-5.48222e-05,-0.000157704,-1.20619e-05,-2.68588e-05,-3.49504e-05,-1.70784e-05,1.51352e-05,6.55923e-06,0
-2.12421e-05,-0.000137537,-1.35981e-05,-3.60859e-05,-6.84901e-06,-1.65657e-05,1.49314e-05,4.59435e-06,0
6.56756e-06,-5.44193e-05,-1.40072e-05,-5.58675e-05,7.3831e-06,-1.34569e-05,1.57667e-05,4.6371e-06,0
1.89271e-05,-8.81466e-06,-1.48278e-05,-7.43537e-05,5.02901e-06,-1.22707e-05,1.67444e-05,4.45998e-06,0
1.79826e-05,7.91529e-06,-1.61399e-05,-7.77069e-05,2.62874e-07,-1.34493e-05,1.71713e-05,5.4615e-06,0
1.97434e-05,3.15347e-05,-1.84053e-05,-7.92539e-05,-1.25433e-05,-1.58181e-05,1.74621e-05,6.68228e-06,0
2.47165e-05,4.3353e-05,-1.80983e-05,-8.55944e-05,-4.2266e-05,-1.86679e-05,1.63914e-05,7.36634e-06,0
2.03862e-05,4.33072e-05,-1.60491e-05,-8.5729e-05,-6.44725e-05,-1.79258e-05,1.34654e-05,7.39458e-06,0
3.40014e-06,3.74648e-05,-1.53303e-05,-6.89137e-05,-5.88198e-05,-1.51943e-05,1.15937e-05,6.91376e-06,0
-1.72798e-05,3.20108e-05,-1.5018e-05,-3.6743e-05,-3.80124e-05,-1.31788e-05,1.32032e-05,7.95077e-06,0
-3.10296e-05,2.88853e-05,-1.55762e-05,-9.12674e-07,-1.47404e-05,-1.23462e-05,1.74749e-05,8.32275e-06,0
-3.56184e-05,3.54375e-05,-1.42754e-05,2.69922e-05,5.7406e-06,-1.23719e-05,2.02518e-05,6.72519e-06,0
-3.51147e-05,4.40763e-05,-1.20888e-05,4.13051e-05,2.50779e-05,-1.23149e-05,1.79849e-05,4.36316e-06,0
-3.41735e-05,4.08567e-05,-1.03464e-05,4.17548e-05,4.33688e-05,-1.20253e-05,1.35298e-05,1.63701e-06,0
-3.10426e-05,3.25569e-05,-7.48923e-06,3.20273e-05,5.7188e-05,-1.14244e-05,1.09401e-05,-7.2114e-07,0
-2.64477e-05,3.17322e-05,-1.9493e-06,2.04176e-05,7.03455e-05,-9.89208e-06,1.14868e-05,-2.11465e-06,0
-2.37994e-05,3.93434e-05,4.2065e-06,1.56816e-05,8.71382e-05,-7.3221e-06,1.37326e-05,-2.63905e-06,0
-2.58729e-05,4.14844e-05,6.40565e-06,1.85437e-05,9.58184e-05,-5.18642e-06,1.54583e-05,-1.29926e-06,0
-3.08639e-05,3.84914e-05,2.68212e-06,1.95144e-05,7.97208e-05,-3.513e-06,1.58646e-05,-4.52456e-07,0
-3.43617e-05,4.00403e-05,-3.49643e-06,1.48326e-05,5.16526e-05,-3.77011e-06,1.50905e-05,-2.53348e-06,0
-3.24296e-05,5.5729e-05,-5.53871e-06,8.94517e-06,4.12146e-05,-7.34257e-06,1.39594e-05,-6.60342e-06,0
-2.65136e-05,7.19281e-05,-4.53335e-06,6.96348e-06,6.06137e-05,-1.11417e-05,1.34799e-05,-8.7394e-06,0
-2.05499e-05,6.83879e-05,-4.43663e-06,7.61173e-06,0.000102186,-1.12464e-05,1.34698e-05,-8.2862e-06,0
-1.74266e-05,3.72268e-05,-5.38376e-06,9.93827e-06,0.000143778,-9.36032e-06,1.3457e-05,-7.5811e-06,0
-1.75275e-05,-2.96098e-06,-5.18774e-06,1.44823e-05,0.0001507,-9.07012e-06,1.47421e-05,-7.42636e-06,0
-1.76167e-05,-2.467e-05,-4.03791e-06,1.93463e-05,0.000109104,-1.19619e-05,1.60458e-05,-6.88736e-06,0
-1.74768e-05,-1.42742e-05,-1.63773e-06,2.15677e-05,4.62109e-05,-1.56832e-05,1.51224e-05,-5.96208e-06,0
-2.18529e-05,1.04862e-05,9.37365e-07,1.58653e-05,-1.37991e-06,-1.66461e-05,1.13602e-05,-4.96227e-06,0
-2.80686e-05,3.49242e-05,-5.62696e-07,2.75029e-06,-1.73344e-05,-1.48101e-05,8.46268e-06,-3.89635e-06,0
-2.7791e-05,6.35327e-05,-5.33217e-06,-9.50721e-06,-7.37512e-06,-1.34526e-05,8.74654e-06,-2.87488e-06,0
-2.00374e-05,8.9714e-05,-6.96677e-06,-1.74804e-05,-3.6127e-07,-1.38354e-05,9.5404e-06,-1.87612e-06,0
-1.13254e-05,9.78804e-05,-8.13392e-06,-2.86796e-05,-3.4144e-06,-1.45945e-05,1.00746e-05,-1.85049e-06,0
-7.40467e-06,8.38039e-05,-1.28573e-05,-4.56326e-05,3.13002e-06,-1.45107e-05,9.95264e-06,-9.95265e-07,0
-3.64469e-06,6.0818e-05,-1.64199e-05,-5.45473e-05,1.74297e-05,-1.04997e-05,1.02046e-05,2.76329e-07,0
2.68215e-06,3.81248e-05,-1.72318e-05,-4.58453e-05,2.69162e-05,-5.57018e-06,1.12962e-05,2.91383e-07,0
1.96747e-06,5.82102e-06,-1.44708e-05,-2.10751e-05,2.62955e-05,-2.21875e-06,1.13665e-05,-6.13358e-07,0
-1.34726e-05,-1.49775e-05,-8.52457e-06,9.5503e-06,2.17042e-05,-1.96076e-06,1.09331e-05,-9.64549e-07,0
-3.62652e-05,-3.45451e-07,-6.85323e-07,3.34329e-05,1.83429e-05,-5.2704e-06,8.78368e-06,8.27293e-08,0
-5.76297e-05,2.32499e-05,4.70746e-06,4.51661e-05,1.62167e-05,-9.87583e-06,5.52409e-06,1.97863e-06,0
-6.81955e-05,3.15182e-05,7.73508e-06,4.60223e-05,1.34566e-05,-1.20377e-05,2.19186e-06,4.11562e-06,0
-6.48499e-05,2.30489e-05,1.54157e-05,3.52438e-05,9.2154e-06,-1.02612e-05,-1.59733e-06,5.28267e-06,0
-5.52564e-05,1.3985e-05,3.10651e-05,1.31297e-05,1.38898e-05,-8.6467e-06,-4.51214e-06,5.23693e-06,0
-4.76435e-05,1.4106e-05,4.83453e-05,-8.42864e-06,4.73121e-05,-9.31222e-06,-4.85429e-06,4.86835e-06,0
-4.30867e-05,2.22419e-05,5.64093e-05,-1.83382e-05,0.000104839,-1.02558e-05,-2.86771e-06,4.99572e-06,0
-3.67064e-05,2.83338e-05,4.99718e-05,-1.85063e-05,0.000136899,-7.33168e-06,-1.38492e-07,5.13986e-06,0
-2.8086e-05,3.17901e-05,2.9694e-05,-1.66021e-05,0.00010423,-2.90444e-06,3.39501e-06,4.98605e-06,0
-2.44386e-05,3.37588e-05,-9.69551e-07,-1.53835e-05,3.48796e-05,-1.60784e-06,7.27133e-06,4.92346e-06,0
-3.06685e-05,3.21477e-05,-3.83273e-05,-1.61331e-05,-1.04542e-05,-4.453e-06,1.14568e-05,5.15555e-06,0
-4.11514e-05,2.81856e-05,-7.16196e-05,-1.7977e-05,-1.45855e-05,-6.45444e-06,1.48898e-05,5.43581e-06,0
-4.84777e-05,2.78865e-05,-8.96566e-05,-1.99275e-05,-3.10199e-06,-5.84581e-06,1.73203e-05,4.82392e-06,0
-5.0871e-05,3.63812e-05,-8.97465e-05,-2.05359e-05,1.50698e-06,-5.12587e-06,1.98754e-05,2.71543e-06,0
-5.28493e-05,5.27022e-05,-7.76244e-05,-1.71639e-05,-6.63175e-06,-4.57946e-06,2.42812e-05,-4.81696e-07,0
-5.3721e-05,7.38624e-05,-6.22693e-05,-1.07858e-05,-1.78179e-05,-2.60989e-06,2.85491e-05,-2.67459e-06,0
-5.09609e-05,8.91916e-05,-5.21579e-05,-4.22513e-06,-9.49933e-06,-2.00493e-07,2.92909e-05,-1.22522e-06,0
-4.46116e-05,9.0472e-05,-4.58981e-05,2.08473e-06,2.40265e-05,-4.24217e-07,2.75189e-05,2.03874e-06,0
-3.6028e-05,8.53781e-05,-3.71236e-05,3.77353e-06,5.23686e-05,-2.20487e-06,2.63358e-05,3.3435e-06,0
-1.90123e-05,8.81657e-05,-2.6777e-05,-2.4228e-06,5.49251e-05,-5.63477e-06,2.49982e-05,2.68325e-06,0
1.11793e-05,9.73864e-05,-1.86131e-05,-1.16383e-05,3.97768e-05,-8.745e-06,2.3231e-05,9.39307e-07,0
3.78436e-05,9.37228e-05,-1.52627e-05,-1.52335e-05,1.97938e-05,-9.83971e-06,2.2779e-05,-7.44786e-07,0
4.88278e-05,6.47182e-05,-1.35528e-05,-1.23191e-05,3.24166e-06,-7.58887e-06,2.30921e-05,-7.28753e-07,0
4.27519e-05,1.54435e-05,-9.54723e-06,-6.11418e-06,-6.33431e-06,-4.14761e-06,2.20453e-05,6.65896e-07,0
1.30407e-05,-3.01647e-05,-5.87233e-06,7.51845e-07,-2.16485e-06,-4.82511e-06,1.85873e-05,2.06728e-06,0
-3.24176e-05,-4.27722e-05,-4.99943e-06,5.46714e-06,1.35295e-05,-1.08459e-05,1.62378e-05,1.96048e-06,0
-7.41826e-05,-2.64532e-05,-3.32302e-06,9.79885e-06,3.36042e-05,-1.76778e-05,1.49517e-05,-1.15287e-06,0
-0.000102026,-3.76119e-06,7.72565e-07,1.51043e-05,4.90849e-05,-2.08273e-05,1.29341e-05,-3.81017e-06,0
-0.00011512,3.24619e-06,3.90764e-06,1.87437e-05,5.54339e-05,-2.28125e-05,1.10082e-05,-3.31213e-06,0
-0.000110118,-2.21116e-05,2.16559e-06,1.83416e-05,5.64417e-05,-2.42128e-05,1.00823e-05,-1.80389e-06,0
-8.49405e-05,-7.87474e-05,-2.83876e-06,1.6849e-05,5.69712e-05,-2.36975e-05,7.91732e-06,-3.46628e-07,0
-5.18607e-05,-0.000122206,-5.25318e-06,1.49135e-05,6.01271e-05,-2.02155e-05,6.33023e-06,9.616e-07,0
-2.56745e-05,-0.000113152,-1.51755e-06,1.26592e-05,6.42211e-05,-1.42438e-05,7.14767e-06,1.58501e-06,0
-1.41658e-05,-7.43027e-05,4.35295e-06,9.44743e-06,6.57512e-05,-6.87002e-06,7.37659e-06,1.34087e-06,0
-1.61121e-05,-5.02363e-05,4.90397e-06,4.77891e-06,6.28501e-05,-1.31858e-06,6.24574e-06,3.8463e-07,0
-2.70101e-05,-4.36036e-05,-1.26466e-06,-2.0062e-06,6.09499e-05,-2.00929e-06,4.63222e-06,-1.15095e-06,0
-3.75598e-05,-2.73348e-05,-8.05749e-06,-1.03961e-05,6.12323e-05,-5.72612e-06,3.52231e-06,-2.93885e-06,0
-3.83753e-05,8.54646e-06,-8.25525e-06,-1.80547e-05,5.74726e-05,-6.43395e-06,3.30839e-06,-4.3008e-06,0
-3.2487e-05,4.88742e-05,-1.71744e-06,-2.40941e-05,4.77702e-05,-5.13814e-06,3.8632e-06,-5.09235e-06,0
-2.91295e-05,6.59554e-05,5.36946e-06,-2.70502e-05,4.24786e-05,-6.28743e-06,4.00013e-06,-6.20832e-06,0
-2.92684e-05,5.43191e-05,8.7531e-06,-2.47957e-05,4.57896e-05,-8.80392e-06,5.04349e-06,-5.78849e-06,0
-2.87009e-05,3.7738e-05,9.52637e-06,-2.05736e-05,4.63234e-05,-8.59517e-06,8.05223e-06,-2.92123e-06,0
-2.70408e-05,1.32765e-05,8.49719e-06,-2.09087e-05,3.61882e-05,-6.03437e-06,1.19226e-05,1.69632e-07,0
-2.96105e-05,-5.31371e-05,2.96422e-06,-2.68204e-05,1.93086e-05,-7.67894e-06,1.4282e-05,2.03133e-06,0
-3.59393e-05,-0.000112017,-4.87033e-06,-3.27765e-05,4.20283e-06,-1.38694e-05,1.53695e-05,2.81204e-06,0
-3.80066e-05,-0.000104456,-8.31281e-06,-3.33023e-05,-4.33471e-06,-1.77187e-05,1.59505e-05,1.40033e-06,0
-3.25427e-05,-4.5981e-05,-8.0407e-06,-2.74107e-05,-6.67447e-06,-1.7581e-05,1.59398e-05,1.15826e-08,0
-2.34923e-05,2.57428e-05,-7.11622e-06,-1.83972e-05,-2.3498e-06,-1.55115e-05,1.59526e-05,1.07451e-06,0
-2.00986e-05,6.56547e-05,-8.66343e-06,-1.3303e-05,4.95866e-06,-1.27182e-05,1.69504e-05,2.36728e-06,0
-1.89746e-05,5.16488e-05,-1.11138e-05,-1.32598e-05,1.28716e-05,-8.43901e-06,1.77057e-05,3.1855e-06,0
-1.07606e-05,5.54369e-06,-1.12968e-05,-1.65613e-05,1.93073e-05,-4.23346e-06,1.57776e-05,4.77832e-06,0
7.94764e-06,-1.97792e-05,-1.10091e-05,-2.25717e-05,2.79438e-05,-4.2647e-06,1.30411e-05,5.90341e-06,0
2.82046e-05,-1.7813e-05,-1.35476e-05,-3.01683e-05,4.19816e-05,-7.71272e-06,1.10794e-05,4.58032e-06,0
3.83623e-05,4.05494e-06,-2.05979e-05,-3.46483e-05,4.7427e-05,-1.23834e-05,1.15482e-05,3.89566e-06,0
3.6078e-05,4.60965e-05,-2.53841e-05,-3.39958e-05,3.91296e-05,-1.60685e-05,1.37345e-05,3.00486e-06,0
2.84801e-05,0.000108737,-2.28138e-05,-3.0552e-05,2.81511e-05,-1.82376e-05,1.5708e-05,1.2677e-06,0
2.09254e-05,0.000159777,-1.4566e-05,-2.44455e-05,2.42857e-05,-1.83203e-05,1.72836e-05,-9.67345e-07,0
4.56824e-07,0.000147349,-5.0503e-06,-1.49753e-05,2.61011e-05,-1.6093e-05,1.72074e-05,-2.57635e-06,0
-3.71784e-05,8.71782e-05,2.69136e-06,-3.3436e-06,2.1615e-05,-1.29574e-05,1.66894e-05,-2.0335e-06,0
-7.56923e-05,-3.61587e-06,8.10319e-06,6.95533e-06,7.40303e-06,-9.04138e-06,1.71436e-05,-9.5177e-07,0
-0.000100506,-0.000119516,9.80666e-06,1.43679e-05,-3.94232e-07,-5.96376e-06,1.77407e-05,1.40663e-07,0
-0.000114794,-0.000229229,6.67312e-06,1.79487e-05,7.94642e-06,-6.05809e-06,1.77834e-05,1.46555e-06,0
-0.00011897,-0.000270694,1.25186e-07,1.75629e-05,2.67876e-05,-9.45703e-06,1.71908e-05,2.65253e-06,0
-0.000103778,-0.000218063,-4.89708e-06,1.55633e-05,4.99945e-05,-1.22407e-05,1.63958e-05,3.0157e-06,0
-7.28243e-05,-0.000109816,-7.51389e-06,1.56414e-05,7.03417e-05,-1.22966e-05,1.49374e-05,3.24578e-06,0
-4.44646e-05,-1.46352e-05,-1.06427e-05,1.81462e-05,7.12992e-05,-1.14094e-05,1.19958e-05,2.43376e-06,0
-2.91468e-05,2.36295e-05,-1.21788e-05,2.26181e-05,4.69922e-05,-1.20592e-05,9.31096e-06,1.98374e-06,0
-2.45844e-05,9.74369e-06,-8.9017e-06,2.95171e-05,1.29388e-05,-1.33579e-05,9.25909e-06,2.39322e-06,0
-2.74712e-05,-2.74266e-05,-3.61542e-06,3.61155e-05,-9.39586e-06,-1.25856e-05,1.05457e-05,1.84063e-06,0
-3.21601e-05,-5.9149e-05,-5.09528e-07,3.7763e-05,-1.43621e-05,-9.68962e-06,1.1262e-05,-6.71368e-07,0
-3.2975e-05,-7.86012e-05,-2.64432e-06,2.89496e-05,-1.35977e-05,-8.17407e-06,1.22215e-05,-2.9775e-06,0
-2.61128e-05,-7.56982e-05,-9.33424e-06,1.07872e-05,-1.07753e-05,-8.26659e-06,1.2508e-05,-3.4206e-06,0
-1.98143e-05,-4.56596e-05,-1.5719e-05,-6.60669e-06,-1.79021e-06,-8.19021e-06,1.13131e-05,-2.12047e-06,0
-2.81228e-05,-5.76546e-06,-1.97395e-05,-1.98841e-05,8.05554e-06,-8.66237e-06,1.22787e-05,1.51466e-07,0
-4.67283e-05,1.08674e-05,-1.99047e-05,-2.88848e-05,6.50694e-06,-1.10183e-05,1.44214e-05,4.84624e-07,0
-5.31576e-05,5.87325e-06,-1.52588e-05,-3.32258e-05,-7.85266e-06,-1.29406e-05,1.53063e-05,-5.41152e-07,0
-3.3962e-05,9.86926e-06,-1.12681e-05,-3.42653e-05,-1.66952e-05,-1.25769e-05,1.56133e-05,-1.07033e-06,0
-4.128e-06,3.21877e-05,-1.18938e-05,-2.90166e-05,2.10524e-07,-1.23939e-05,1.48892e-05,-1.43311e-06,0
1.50007e-05,7.85102e-05,-1.39136e-05,-1.77662e-05,3.66127e-05,-9.08e-06,1.32968e-05,-6.36703e-07,0
2.30989e-05,0.000145859,-1.68431e-05,-2.83141e-06,5.47975e-05,-1.65317e-06,1.21275e-05,1.02836e-06,0
2.10659e-05,0.000218955,-1.93438e-05,1.1913e-05,2.9828e-05,4.76443e-06,1.173e-05,6.17381e-07,0
3.78987e-06,0.00028097,-2.02465e-05,2.23061e-05,-1.37694e-05,6.32276e-06,1.07796e-05,-8.75131e-07,0
-2.06469e-05,0.000302792,-2.04309e-05,2.90285e-05,-3.10932e-05,4.59234e-06,8.9216e-06,-1.42099e-06,0
-3.90754e-05,0.000267694,-1.73372e-05,3.60382e-05,-1.16428e-05,4.53531e-06,6.62974e-06,-1.35105e-06,0
-3.97813e-05,0.000197408,-9.96803e-06,4.46306e-05,1.5662e-05,7.54257e-06,5.60249e-06,-2.72018e-08,0
-2.07986e-05,0.000131681,-2.42147e-06,4.90347e-05,3.36065e-05,9.73184e-06,7.62094e-06,1.95684e-06,0
1.03463e-05,7.23183e-05,8.01902e-07,4.3316e-05,5.07223e-05,8.54196e-06,1.05992e-05,2.55076e-06,0
4.36284e-05,-5.28602e-06,-3.09087e-07,2.82775e-05,7.836e-05,5.25661e-06,1.01288e-05,2.07721e-06,0
6.29737e-05,-9.31498e-05,-3.41655e-06,1.01253e-05,0.000104422,1.62053e-06,6.94915e-06,1.34388e-06,0
5.91445e-05,-0.00015195,-4.71742e-06,-4.91807e-06,0.000103312,-4.05269e-07,5.23273e-06,2.35023e-07,0
3.08801e-05,-0.000164391,-1.26393e-06,-1.38315e-05,7.10006e-05,-4.81003e-07,5.79046e-06,1.4862e-07,0
-1.70479e-05,-0.00015185,3.66235e-06,-2.0939e-05,3.33757e-05,-2.07085e-06,7.07532e-06,2.5967e-06,0
-6.86134e-05,-0.000124029,3.77956e-06,-3.66697e-05,1.48222e-05,-7.23141e-06,8.90914e-06,5.519e-06,0
-0.000113211,-9.11854e-05,-5.68298e-07,-6.17027e-05,1.29086e-05,-1.2858e-05,1.07961e-05,5.73442e-06,0
-0.000151273,-8.07146e-05,-4.33952e-06,-7.91272e-05,1.46745e-05,-1.57926e-05,1.18342e-05,3.35385e-06,0
-0.000168521,-8.63418e-05,-5.25882e-06,-7.88035e-05,1.31927e-05,-1.65832e-05,1.20609e-05,1.57723e-06,0
-0.000147688,-8.22044e-05,-6.59297e-06,-6.92734e-05,7.95836e-06,-1.72851e-05,1.23855e-05,1.57832e-06,0
-0.000100652,-5.83751e-05,-1.07381e-05,-6.13537e-05,3.39608e-06,-1.80614e-05,1.31382e-05,2.27105e-06,0
-5.63475e-05,-2.60748e-05,-1.42148e-05,-5.60113e-05,2.46779e-06,-1.78171e-05,1.33719e-05,1.07533e-06,0
-3.20892e-05,1.76697e-06,-1.32771e-05,-4.06345e-05,1.36671e-06,-1.68819e-05,1.15379e-05,-6.9062e-07,0
-3.03079e-05,2.1364e-05,-8.94785e-06,-4.73965e-06,-2.53336e-06,-1.42646e-05,7.84435e-06,1.93654e-06,0
-3.81773e-05,2.51541e-05,-3.86834e-06,3.30698e-05,-9.24118e-06,-9.91544e-06,6.25711e-06,4.69708e-06,0
-3.89086e-05,2.87382e-05,2.08698e-07,5.38164e-05,-1.40786e-05,-8.78103e-06,6.86088e-06,2.85565e-06,0
-3.42049e-05,3.15062e-05,1.77763e-06,5.62881e-05,-1.27609e-05,-1.05885e-05,7.25489e-06,2.88863e-07,0
-3.08808e-05,-4.98101e-06,2.72795e-06,4.03761e-05,-3.15706e-06,-1.24086e-05,6.71121e-06,-2.56184e-07,0
-2.96969e-05,-6.69301e-05,4.69191e-06,1.78236e-05,8.86693e-06,-1.26716e-05,6.05855e-06,1.23525e-06,0
-2.93055e-05,-8.66389e-05,6.10494e-06,2.39517e-06,1.49882e-05,-1.37275e-05,5.21935e-06,3.4605e-06,0
-3.38738e-05,-4.93406e-05,7.00213e-06,1.93559e-06,1.6158e-05,-1.58078e-05,3.17983e-06,4.87587e-06,0
-4.43052e-05,-1.60614e-05,7.13144e-06,1.11588e-05,1.87509e-05,-1.77032e-05,3.44428e-07,5.30855e-06,0
-5.474e-05,-1.56339e-05,6.66045e-06,2.31453e-05,2.57525e-05,-2.07391e-05,-1.48465e-09,5.36886e-06,0
-5.99287e-05,-1.25492e-05,7.41333e-06,3.64811e-05,2.75606e-05,-2.35006e-05,3.54578e-06,5.54855e-06,0
-5.54116e-05,1.59164e-05,9.48501e-06,4.96492e-05,1.73582e-05,-2.20869e-05,6.14228e-06,6.27465e-06,0
-4.31949e-05,3.90851e-05,1.05806e-05,5.74025e-05,1.63171e-06,-1.63618e-05,5.5359e-06,7.05089e-06,0
-3.24269e-05,2.56746e-05,7.94025e-06,5.63497e-05,-7.34315e-06,-1.21707e-05,3.82388e-06,7.34414e-06,0
-2.84802e-05,-1.06531e-05,-8.22802e-08,5.02834e-05,-9.62925e-06,-1.3522e-05,3.46826e-06,8.2205e-06,0
-2.47318e-05,-3.3995e-05,-9.69225e-06,4.16047e-05,-1.88246e-05,-1.72411e-05,5.57988e-06,9.18211e-06,0
-1.49778e-05,-2.16583e-05,-1.4823e-05,3.34202e-05,-3.38928e-05,-1.63673e-05,9.03574e-06,9.27376e-06,0
-6.4323e-06,1.96936e-05,-1.46981e-05,2.41661e-05,-3.39199e-05,-1.2863e-05,1.19167e-05,8.58925e-06,0
-8.48964e-06,7.23236e-05,-1.1799e-05,1.00809e-05,-1.33555e-05,-1.2034e-05,1.34639e-05,6.59653e-06,0
-1.65294e-05,0.00012488,-9.90116e-06,-1.14209e-05,1.75074e-05,-1.38056e-05,1.43286e-05,4.24929e-06,0
-2.29413e-05,0.000168879,-1.13309e-05,-3.68873e-05,4.85713e-05,-1.39162e-05,1.42028e-05,3.5243e-06,0
-2.423e-05,0.000176977,-1.48844e-05,-5.94465e-05,6.07525e-05,-1.05326e-05,1.28839e-05,3.46589e-06,0
-2.12098e-05,0.00012576,-1.59412e-05,-7.06368e-05,3.98046e-05,-6.65393e-06,1.24625e-05,3.32491e-06,0
-1.88095e-05,3.66204e-05,-1.29628e-05,-7.04885e-05,3.54577e-07,-6.15522e-06,1.37698e-05,3.93333e-06,0
-1.66757e-05,-2.72121e-05,-7.28524e-06,-6.98887e-05,-2.61021e-05,-6.49429e-06,1.62709e-05,5.2056e-06,0
-1.19654e-05,-1.18594e-05,-1.4887e-06,-7.76869e-05,-2.8412e-05,-5.61964e-06,1.72e-05,4.94104e-06,0
-7.70074e-06,5.79185e-05,4.24353e-07,-8.96766e-05,-1.92442e-05,-5.03458e-06,1.48264e-05,3.31767e-06,0
-9.20227e-06,9.17875e-05,-2.74333e-06,-9.88161e-05,-2.49018e-05,-7.07762e-06,1.20718e-05,2.12893e-06,0
-2.17498e-05,6.75835e-05,-7.40078e-06,-9.8678e-05,-4.70909e-05,-1.21532e-05,1.31044e-05,1.6582e-06,0
-3.1738e-05,4.16487e-05,-8.37553e-06,-8.27858e-05,-4.18237e-05,-1.43556e-05,1.51956e-05,2.339e-06,0
-1.77803e-05,4.79032e-05,-7.10424e-06,-5.92813e-05,7.30596e-07,-1.07071e-05,1.40035e-05,2.72196e-06,0
8.24348e-06,7.35038e-05,-6.26931e-06,-4.07296e-05,4.28192e-05,-6.59719e-06,1.25181e-05,1.94026e-06,0
2.13502e-05,7.16938e-05,-7.2077e-06,-3.05596e-05,5.59731e-05,-6.28449e-06,1.3797e-05,1.72622e-06,0
1.29773e-05,2.83453e-05,-1.02216e-05,-2.49407e-05,3.74211e-05,-8.32828e-06,1.65171e-05,2.33653e-06,0
-3.2031e-06,-1.45379e-05,-1.35631e-05,-1.94061e-05,3.14871e-06,-1.05875e-05,1.75271e-05,2.01116e-06,0
-1.89342e-05,-1.74478e-05,-1.75931e-05,-1.38869e-05,-3.57194e-05,-1.26024e-05,1.78037e-05,2.10663e-06,0
-3.86405e-05,3.17358e-06,-2.25017e-05,-1.17717e-05,-6.7226e-05,-1.5985e-05,1.83559e-05,2.87406e-06,0
-5.73349e-05,6.68354e-06,-2.68585e-05,-1.14355e-05,-7.45934e-05,-2.08717e-05,1.91435e-05,2.54644e-06,0
-5.92479e-05,2.11465e-06,-2.74678e-05,-8.61458e-06,-4.28067e-05,-2.46523e-05,1.86988e-05,1.70772e-06,0
-3.64492e-05,2.31686e-05,-2.34593e-05,-2.43132e-06,1.61535e-05,-2.38713e-05,1.68122e-05,3.96481e-07,0
-7.38661e-06,6.87843e-05,-1.67831e-05,4.22138e-06,6.66726e-05,-1.91876e-05,1.58443e-05,-4.92217e-07,0
-5.09729e-07,8.67679e-05,-1.25137e-05,8.63861e-06,8.7185e-05,-1.30277e-05,1.54505e-05,-6.42503e-07,0
-2.52688e-05,4.44996e-05,-1.39198e-05,1.22443e-05,7.59297e-05,-1.00368e-05,1.57286e-05,-1.67718e-06,0
-5.8798e-05,9.42191e-07,-1.7302e-05,1.81297e-05,4.66103e-05,-1.1507e-05,1.69405e-05,-3.88976e-06,0
-7.31468e-05,2.70089e-05,-1.71531e-05,2.54169e-05,2.31994e-05,-1.26793e-05,1.7843e-05,-5.28727e-06,0
-6.18788e-05,0.000100317,-1.20664e-05,3.0784e-05,1.99416e-05,-1.12982e-05,1.65038e-05,-4.58397e-06,0
-3.89377e-05,0.000136247,-6.4785e-06,3.05305e-05,2.75937e-05,-1.00853e-05,1.37414e-05,-3.27683e-06,0
-2.23536e-05,8.74394e-05,-6.59882e-06,2.17516e-05,3.35684e-05,-1.12194e-05,1.21135e-05,-2.27925e-06,0
-2.04445e-05,-2.04366e-05,-1.18323e-05,7.74954e-06,3.28878e-05,-1.272e-05,1.25352e-05,-1.50686e-06,0
-2.79198e-05,-0.000119857,-1.59599e-05,-4.137e-06,2.31386e-05,-1.12797e-05,1.25517e-05,-7.98267e-07,0
-3.8313e-05,-0.000179588,-1.61299e-05,-1.10656e-05,7.51976e-06,-8.43986e-06,1.0073e-05,-7.38662e-07,0
-5.24525e-05,-0.000211372,-1.42e-05,-1.72077e-05,2.44964e-06,-1.03678e-05,7.83354e-06,-9.01724e-07,0
-7.00577e-05,-0.000209724,-1.43411e-05,-2.95368e-05,1.7338e-05,-1.56923e-05,9.39731e-06,-7.39625e-07,0
-8.59173e-05,-0.000151271,-1.48152e-05,-4.50612e-05,6.84337e-05,-1.82458e-05,1.28343e-05,-2.10088e-06,0
-9.42509e-05,-4.10902e-05,-1.3363e-05,-4.95618e-05,0.00018274,-1.77826e-05,1.45312e-05,-2.96451e-06,0
-9.2873e-05,4.98899e-05,-1.02488e-05,-3.53859e-05,0.000264863,-1.60563e-05,1.28186e-05,-1.57864e-06,0
-8.48096e-05,7.72201e-05,-6.14822e-06,-1.43843e-05,0.00021136,-1.52346e-05,1.08749e-05,-9.56088e-07,0
-6.90092e-05,6.34103e-05,6.38042e-07,8.29141e-06,7.90952e-05,-1.47399e-05,1.23648e-05,-2.16342e-06,0
-3.70396e-05,5.0745e-05,1.31783e-05,3.73887e-05,-3.43935e-05,-1.25339e-05,1.4158e-05,-3.10438e-06,0
3.4616e-06,4.65581e-05,3.1454e-05,6.34206e-05,-7.83187e-05,-1.00095e-05,1.35684e-05,-3.15884e-06,0
2.55999e-05,7.32333e-06,4.98637e-05,7.21733e-05,-8.75442e-05,-7.60918e-06,1.16625e-05,-2.68147e-06,0
2.15582e-05,-2.75961e-05,6.19643e-05,5.70079e-05,-9.40683e-05,-7.11664e-06,1.20758e-05,-2.37093e-06,0
9.78426e-06,1.79454e-07,6.49231e-05,2.66245e-05,-9.42728e-05,-7.37445e-06,1.3246e-05,-2.01165e-06,0
4.82356e-06,6.94746e-05,5.303e-05,-1.06724e-06,-7.63432e-05,-4.50149e-06,1.45733e-05,-1.04497e-06,0
6.38765e-06,0.000126305,2.59497e-05,-1.53978e-05,-4.6969e-05,-2.45603e-07,1.63153e-05,-1.40323e-06,0
8.23906e-06,0.000136466,-7.94283e-06,-2.10591e-05,-2.64476e-05,2.14466e-07,1.6419e-05,-2.40853e-06,0
1.06322e-05,0.00010088,-3.77611e-05,-2.32211e-05,-1.77167e-05,-4.01659e-06,1.56747e-05,-3.56361e-06,0
1.38756e-05,3.29468e-05,-5.82769e-05,-2.25828e-05,-1.35235e-05,-1.04106e-05,1.51701e-05,-4.83444e-06,0
1.61231e-05,-3.19227e-05,-6.93995e-05,-1.96941e-05,-3.77895e-06,-1.60487e-05,1.54693e-05,-5.74619e-06,0
9.59737e-06,-4.71343e-05,-6.97349e-05,-1.35584e-05,2.67939e-07,-1.64835e-05,1.58936e-05,-5.53643e-06,0
-1.30759e-05,-7.03601e-06,-5.93213e-05,-1.12241e-06,-5.74951e-06,-1.01483e-05,1.67711e-05,-4.43065e-06,0
-4.49249e-05,3.92424e-05,-4.42941e-05,1.52793e-05,-1.53133e-05,-2.39165e-06,1.86455e-05,-2.42653e-06,0
-7.40961e-05,5.04601e-05,-3.40508e-05,2.55467e-05,-1.79035e-05,3.89022e-07,1.96347e-05,9.30723e-07,0
-9.61212e-05,2.41466e-05,-3.13456e-05,2.47075e-05,-1.98136e-05,-2.39709e-06,1.84281e-05,2.95652e-06,0
-0.000106953,5.55233e-06,-3.05712e-05,1.76998e-05,-1.90658e-05,-6.50021e-06,1.71727e-05,2.28486e-06,0
-9.77077e-05,2.98057e-05,-2.59709e-05,1.22864e-05,-7.81226e-06,-8.76936e-06,1.55213e-05,9.9401e-07,0
-6.42267e-05,6.80927e-05,-1.65095e-05,1.30659e-05,7.28912e-06,-1.02587e-05,1.2756e-05,1.51633e-06,0
-1.97229e-05,8.24878e-05,-5.17157e-06,1.84075e-05,1.62266e-05,-1.21922e-05,1.04021e-05,3.18357e-06,0
1.31192e-05,6.97579e-05,1.30821e-06,2.08918e-05,2.55016e-05,-1.39904e-05,1.0432e-05,4.31091e-06,0
2.58368e-05,5.06548e-05,8.76354e-07,1.76707e-05,3.52791e-05,-1.32523e-05,1.20741e-05,4.2098e-06,0
2.31973e-05,4.05369e-05,-1.87513e-06,1.31133e-05,4.17501e-05,-1.07319e-05,1.2098e-05,3.59109e-06,0
1.00055e-05,9.49936e-06,-1.88017e-06,1.19404e-05,4.4286e-05,-7.98215e-06,1.06822e-05,3.74336e-06,0
-1.53714e-06,-3.42969e-05,-6.94158e-07,1.04614e-05,4.26764e-05,-5.10896e-06,9.43014e-06,4.61264e-06,0
-2.85111e-06,-4.31127e-05,-3.62638e-06,8.17071e-06,4.16358e-05,-1.21885e-06,9.12602e-06,6.00594e-06,0
4.90688e-07,-1.96365e-05,-6.77457e-06,4.54842e-06,3.94092e-05,3.72216e-06,9.1885e-06,7.15953e-06,0
1.02651e-05,3.28356e-06,-6.32239e-06,7.98259e-07,3.11429e-05,3.51923e-06,7.94253e-06,6.71158e-06,0
2.00575e-05,8.55609e-06,-1.82242e-06,6.92083e-08,1.37099e-05,-1.23371e-06,5.8944e-06,5.61505e-06,0
2.07492e-05,4.17844e-06,4.96593e-06,-5.80814e-07,-8.9134e-06,-5.43833e-06,5.83021e-06,3.84872e-06,0
1.04664e-05,-9.2131e-07,1.14877e-05,-2.0567e-06,-2.95869e-05,-6.43572e-06,8.57366e-06,1.67807e-06,0
-7.51182e-06,1.00492e-05,1.66787e-05,-4.2437e-06,-3.87758e-05,-4.95204e-06,1.10706e-05,5.80949e-07,0
-2.44075e-05,4.22017e-05,2.01393e-05,-3.83679e-06,-3.81205e-05,-4.46065e-06,1.32236e-05,1.16971e-06,0
-3.96075e-05,8.2555e-05,2.27079e-05,-1.84686e-06,-2.86538e-05,-6.26546e-06,1.52017e-05,2.0514e-06,0
-5.88028e-05,0.000112852,1.99796e-05,-2.86186e-06,-1.01455e-05,-1.04641e-05,1.55969e-05,2.25665e-06,0
-8.34508e-05,0.000131245,8.01883e-06,-9.55838e-06,1.29868e-05,-1.53183e-05,1.43831e-05,2.19613e-06,0
-0.000101384,0.000122085,-9.24318e-06,-1.86046e-05,3.85952e-05,-1.73708e-05,1.21022e-05,1.88118e-06,0
-0.000101688,5.27585e-05,-2.18059e-05,-2.51509e-05,6.66912e-05,-1.39616e-05,1.04341e-05,2.13075e-06,0
-8.79554e-05,-5.86272e-05,-2.60718e-05,-2.87783e-05,8.30408e-05,-7.61697e-06,1.08204e-05,3.74515e-06,0
-7.47258e-05,-0.000151865,-2.81305e-05,-3.19417e-05,7.84848e-05,-3.8167e-06,1.24871e-05,5.12604e-06,0
-6.75915e-05,-0.000170472,-3.22597e-05,-3.36312e-05,6.12829e-05,-5.01186e-06,1.24777e-05,4.45074e-06,0
-6.00719e-05,-0.000106027,-3.41427e-05,-2.77103e-05,4.41983e-05,-8.32799e-06,1.10739e-05,3.5407e-06,0
-4.96084e-05,-1.89037e-05,-3.19119e-05,-1.33913e-05,3.05722e-05,-1.03891e-05,1.03407e-05,4.77294e-06,0
-3.9044e-05,3.03132e-05,-3.17319e-05,4.19532e-06,1.89058e-05,-1.0792e-05,9.70011e-06,5.78296e-06,0
-3.10976e-05,4.37039e-05,-3.32254e-05,2.3239e-05,9.35177e-06,-1.03406e-05,8.23781e-06,3.19588e-06,0
-2.82441e-05,4.21932e-05,-2.9593e-05,4.24043e-05,-4.67168e-07,-8.77648e-06,7.39937e-06,1.64112e-07,0
-2.57454e-05,3.92876e-05,-2.00606e-05,5.14194e-05,-1.11195e-05,-6.94966e-06,8.10864e-06,-8.95873e-07,0
-1.70983e-05,5.8481e-05,-1.07019e-05,4.25655e-05,-1.95953e-05,-4.5479e-06,1.07923e-05,-1.33903e-06,0
-7.83547e-06,0.000123538,-5.88916e-06,2.35004e-05,-2.55829e-05,-4.31857e-06,1.29231e-05,-1.82336e-06,0
-2.69895e-06,0.000209453,-6.45339e-06,7.07865e-06,-2.69813e-05,-8.12305e-06,1.36674e-05,-8.41166e-08,0
-2.28847e-08,0.000252186,-1.36412e-05,-7.83313e-06,-1.439e-05,-1.09651e-05,1.49375e-05,2.99655e-06,0
-5.94241e-07,0.000211599,-2.04233e-05,-1.67573e-05,5.15331e-06,-9.98526e-06,1.66869e-05,2.42585e-06,0
-5.85311e-06,0.000109001,-1.91383e-05,-1.60932e-05,1.76478e-05,-7.51731e-06,1.93805e-05,-4.23991e-07,0
-1.26697e-05,-3.03614e-05,-1.26258e-05,-1.61305e-05,2.36464e-05,-5.92885e-06,2.18054e-05,-3.51894e-06,0
-1.38964e-05,-0.000182046,-7.56769e-06,-1.83566e-05,2.63238e-05,-3.78498e-06,2.25541e-05,-3.95307e-06,0
-8.19908e-06,-0.00026763,-9.80735e-06,-1.92187e-05,2.64504e-05,-2.82663e-06,2.21081e-05,-1.41434e-07,0
-3.77112e-06,-0.00023584,-1.64973e-05,-1.95559e-05,2.31581e-05,-4.42681e-06,2.01549e-05,2.73919e-06,0
-5.28442e-06,-0.000137734,-2.30987e-05,-2.32707e-05,1.70896e-05,-7.9406e-06,1.77479e-05,3.4899e-06,0
-1.27049e-05,-6.67127e-05,-2.64838e-05,-2.55631e-05,1.38857e-05,-1.18735e-05,1.54776e-05,2.82641e-06,0
-2.62982e-05,-4.36642e-05,-2.37752e-05,-2.27404e-05,1.50667e-05,-1.27468e-05,1.40581e-05,2.77475e-06,0
-4.29178e-05,-5.72057e-05,-1.60762e-05,-1.41081e-05,1.83052e-05,-9.95306e-06,1.4168e-05,3.06609e-06,0
-5.75249e-05,-9.30242e-05,-7.01358e-06,4.49202e-07,1.87968e-05,-7.34194e-06,1.36576e-05,3.78409e-06,0
-7.17642e-05,-0.000127756,1.80733e-07,1.3879e-05,1.43934e-05,-7.59812e-06,1.19717e-05,5.37532e-06,0
-8.35177e-05,-0.000135997,4.59689e-06,1.89123e-05,6.74065e-06,-8.79392e-06,1.02769e-05,6.19489e-06,0
-8.41121e-05,-9.82334e-05,8.22024e-06,1.60923e-05,1.27905e-06,-9.27338e-06,1.11683e-05,7.25212e-06,0
-7.11305e-05,-2.65559e-05,1.16887e-05,9.59029e-06,3.91677e-07,-8.40255e-06,1.42806e-05,8.50525e-06,0
-5.33725e-05,4.35382e-05,1.17818e-05,-1.79866e-06,2.71011e-06,-7.11041e-06,1.72235e-05,8.54193e-06,0
-4.20936e-05,8.27682e-05,7.21791e-06,-1.7178e-05,5.654e-06,-7.55252e-06,1.88903e-05,6.4207e-06,0
-4.09627e-05,8.41557e-05,1.79746e-06,-3.00416e-05,6.8957e-06,-1.04079e-05,1.8971e-05,4.36955e-06,0
-4.39284e-05,5.34499e-05,-8.65761e-07,-3.34418e-05,5.57465e-06,-1.28773e-05,1.66815e-05,2.7509e-06,0
-4.18479e-05,2.07715e-05,-5.99021e-07,-2.8019e-05,3.59338e-06,-1.13541e-05,1.4019e-05,6.71545e-07,0
-3.39195e-05,1.07007e-05,2.77304e-06,-1.75299e-05,2.18747e-06,-6.89063e-06,1.432e-05,-2.07914e-06,0
-2.57616e-05,2.88833e-05,6.09577e-06,-5.53637e-06,-1.54602e-07,-4.82889e-06,1.72367e-05,-4.19405e-06,0
-1.80933e-05,6.21504e-05,4.42865e-06,3.37689e-06,-1.9271e-06,-8.53563e-06,1.89323e-05,-4.90679e-06,0
-6.73977e-08,8.87252e-05,-1.67109e-06,3.79324e-06,-7.86976e-07,-1.48281e-05,1.70446e-05,-5.35907e-06,0
2.64801e-05,8.85287e-05,-6.60958e-06,-7.23963e-06,5.57718e-06,-1.7636e-05,1.38019e-05,-7.21278e-06,0
4.32936e-05,6.62001e-05,-8.58928e-06,-2.3451e-05,1.41559e-05,-1.52364e-05,1.16418e-05,-9.31463e-06,0
3.61947e-05,4.87947e-05,-8.01821e-06,-3.22875e-05,2.15895e-05,-1.15274e-05,1.15303e-05,-9.60445e-06,0
7.82316e-06,4.73845e-05,-7.09173e-06,-2.59046e-05,2.02785e-05,-1.10154e-05,1.21514e-05,-9.80207e-06,0
-2.27208e-05,4.59527e-05,-6.94948e-06,-9.1197e-06,8.56175e-06,-1.34559e-05,1.25612e-05,-1.04761e-05,0
-5.15431e-05,3.19659e-05,-6.93623e-06,3.43518e-06,-3.10182e-06,-1.59405e-05,1.2589e-05,-9.87828e-06,0
-9.03152e-05,3.0903e-06,-9.0051e-06,2.73359e-06,-1.22274e-05,-1.87937e-05,1.35171e-05,-8.96134e-06,0
-0.000127173,-3.45702e-05,-1.12478e-05,-4.77222e-06,-2.28892e-05,-2.09636e-05,1.44035e-05,-8.38404e-06,0
-0.000127027,-5.38487e-05,-1.09495e-05,-1.00095e-05,-3.6693e-05,-2.05524e-05,1.39439e-05,-7.63096e-06,0
-8.42405e-05,-3.89007e-05,-7.21795e-06,-9.28873e-06,-4.25121e-05,-1.84487e-05,1.34612e-05,-6.58472e-06,0
-3.63799e-05,-4.37011e-06,-3.6477e-06,-4.94123e-06,-3.17295e-05,-1.54259e-05,1.28444e-05,-4.58666e-06,0
-1.16662e-05,2.53098e-05,-1.96066e-06,-4.23967e-06,-1.2886e-05,-1.11899e-05,1.14847e-05,-4.13252e-06,0
-7.98143e-06,4.21546e-05,-2.84488e-06,-6.43897e-06,4.27106e-06,-4.64022e-06,9.30513e-06,-4.6487e-06,0
-1.47215e-05,4.78784e-05,-7.54695e-06,-7.82831e-06,1.49976e-05,3.19635e-07,7.32252e-06,-4.52932e-06,0
-2.5141e-05,4.02526e-05,-1.4012e-05,-1.14053e-05,2.52212e-05,-6.08288e-07,5.53108e-06,-3.59796e-06,0
-3.88528e-05,1.81138e-05,-1.8097e-05,-1.82958e-05,5.07974e-05,-3.94757e-06,4.67895e-06,-2.83972e-06,0
-5.2517e-05,-4.60527e-06,-1.62649e-05,-2.62973e-05,9.42929e-05,-4.61859e-06,5.65051e-06,-3.78968e-06,0
-5.69866e-05,-1.22873e-05,-1.12628e-05,-3.63078e-05,0.000145145,-2.52011e-06,7.68637e-06,-6.58715e-06,0
-4.85346e-05,-5.21652e-06,-7.27226e-06,-4.8687e-05,0.000181564,-1.30815e-06,9.68578e-06,-9.98218e-06,0
-3.22201e-05,8.80278e-06,-6.1341e-06,-5.67183e-05,0.000174911,-1.27593e-06,1.04518e-05,-1.11357e-05,0
-1.79823e-05,2.48431e-05,-6.91403e-06,-5.59024e-05,0.000119552,-9.50368e-07,9.21298e-06,-8.74557e-06,0
-1.22899e-05,3.76427e-05,-8.57451e-06,-4.93494e-05,4.45266e-05,-1.2273e-06,6.74656e-06,-4.89803e-06,0
-1.31067e-05,4.28043e-05,-1.00886e-05,-3.88325e-05,-1.16177e-05,-2.26994e-06,5.31906e-06,-3.54235e-06,0
-1.70636e-05,4.84766e-05,-1.08247e-05,-2.43347e-05,-3.53552e-05,-2.65197e-06,5.52862e-06,-3.86837e-06,0
-2.19851e-05,6.97868e-05,-9.05088e-06,-1.08286e-05,-3.84106e-05,-1.6674e-06,6.14865e-06,-3.57818e-06,0
-2.37437e-05,0.000100013,-6.0561e-06,7.22959e-07,-3.10032e-05,9.65407e-08,7.42991e-06,-1.79844e-06,0
-2.14428e-05,0.00011504,-3.93141e-06,1.17468e-05,-1.55435e-05,5.70973e-07,8.35154e-06,1.64629e-06,0
-1.43411e-05,9.13197e-05,-3.77517e-06,1.65488e-05,-3.78189e-06,-2.22165e-06,7.26251e-06,4.63545e-06,0
-3.54394e-07,2.84414e-05,-5.71568e-06,1.25127e-05,-3.45279e-06,-5.28499e-06,5.98531e-06,4.75557e-06,0
1.94084e-05,-3.5669e-05,-6.55188e-06,4.16103e-06,-7.76643e-06,-4.21835e-06,5.24248e-06,3.3993e-06,0
3.30735e-05,-3.53223e-05,-5.751e-06,2.93627e-06,-1.01426e-05,-1.06745e-06,6.74691e-06,4.63339e-06,0
3.02143e-05,4.36113e-05,-5.91333e-06,1.13956e-05,-1.15367e-05,-3.45734e-07,9.16878e-06,6.8189e-06,0
1.04937e-05,0.000146745,-8.09619e-06,1.78837e-05,-1.69345e-05,-3.91696e-06,1.00347e-05,7.20923e-06,0
-1.53571e-05,0.000208264,-9.84525e-06,1.84604e-05,-2.84726e-05,-8.35093e-06,9.61003e-06,7.3226e-06,0
-3.59077e-05,0.000184408,-8.85686e-06,6.92302e-06,-2.45543e-05,-1.04394e-05,9.41376e-06,6.40841e-06,0
-5.53001e-05,9.37607e-05,-4.84505e-06,-1.30649e-05,4.03481e-06,-1.15128e-05,1.06375e-05,4.34274e-06,0
-7.17532e-05,-2.8132e-05,-3.89353e-06,-2.56031e-05,3.59476e-05,-1.24651e-05,1.15899e-05,2.53274e-06,0
-7.8058e-05,-0.000112292,-7.72794e-06,-2.66009e-05,5.25917e-05,-1.31826e-05,1.20747e-05,2.15579e-06,0
-6.3432e-05,-9.79395e-05,-9.82155e-06,-2.14814e-05,4.39762e-05,-1.44123e-05,1.13066e-05,2.78845e-06,0
-2.78901e-05,-9.63605e-06,-8.12357e-06,-1.58397e-05,2.03122e-05,-1.6405e-05,9.70538e-06,2.71618e-06,0
1.37221e-05,7.55059e-05,-7.0065e-06,-1.03662e-05,-1.7066e-06,-1.60363e-05,7.70529e-06,2.63387e-06,0
4.98708e-05,0.000106505,-9.01553e-06,-4.27751e-06,-9.01129e-06,-1.07535e-05,7.0328e-06,2.19624e-06,0
7.40233e-05,8.71926e-05,-1.05973e-05,6.64038e-06,-3.29727e-06,-1.53851e-06,7.16086e-06,1.99435e-06,0
7.96608e-05,2.90605e-05,-8.43346e-06,2.18937e-05,2.11555e-06,5.68049e-06,7.22553e-06,2.70608e-06,0
6.32138e-05,-5.10434e-05,-5.49936e-06,3.57191e-05,-1.4642e-06,6.61756e-06,8.11567e-06,3.97328e-06,0
3.07627e-05,-0.000111582,-7.04169e-06,4.16552e-05,-8.06448e-06,6.03296e-07,9.37547e-06,4.96634e-06,0
-1.52315e-05,-0.000127365,-1.15823e-05,3.64671e-05,-6.1901e-06,-9.54106e-06,1.05061e-05,4.88838e-06,0
-7.33e-05,-0.000135947,-1.23929e-05,2.02077e-05,5.35243e-06,-1.85809e-05,1.14179e-05,4.31802e-06,0
-0.000128526,-0.000162346,-6.1306e-06,-1.48329e-06,2.001e-05,-2.2588e-05,1.27819e-05,4.81192e-06,0
-0.0001588,-0.000176131,3.2836e-06,-1.79767e-05,2.87011e-05,-2.19956e-05,1.34032e-05,6.77763e-06,0
-0.00016157,-0.000144793,1.1297e-05,-2.2073e-05,2.65136e-05,-1.95921e-05,1.29749e-05,8.21686e-06,0
-0.000148409,-7.84314e-05,1.98135e-05,-1.5449e-05,1.46685e-05,-1.64511e-05,1.29392e-05,8.37805e-06,0
-0.000129463,1.61525e-06,3.14056e-05,-5.60389e-06,-1.05255e-06,-1.45695e-05,1.5431e-05,7.24499e-06,0
-0.000111852,6.62506e-05,4.17225e-05,4.97835e-07,-1.47792e-05,-1.5676e-05,1.88184e-05,6.13742e-06,0
-9.32062e-05,8.65021e-05,4.49354e-05,-2.33038e-07,-2.22799e-05,-1.92792e-05,2.02681e-05,5.35652e-06,0
-7.12069e-05,6.85646e-05,3.67008e-05,1.65411e-06,-2.40086e-05,-1.99303e-05,1.94517e-05,5.38014e-06,0
-4.70932e-05,3.50465e-05,1.23203e-05,1.74167e-05,-1.97368e-05,-1.62619e-05,1.86339e-05,5.38952e-06,0
-2.80032e-05,-8.40743e-06,-2.03471e-05,3.95379e-05,-1.46592e-05,-1.19651e-05,1.99464e-05,4.79663e-06,0
-2.23611e-05,-7.00497e-05,-5.09951e-05,5.59862e-05,-1.01987e-05,-8.47146e-06,2.18027e-05,4.92878e-06,0
-2.59179e-05,-0.000127313,-7.69197e-05,6.01992e-05,-2.94852e-06,-8.40744e-06,2.15346e-05,3.73412e-06,0
-3.18597e-05,-0.000133804,-8.97503e-05,4.73595e-05,6.20808e-06,-1.16178e-05,1.95808e-05,2.51327e-06,0
-3.45683e-05,-7.41798e-05,-8.64724e-05,2.24291e-05,1.75684e-05,-1.51186e-05,1.83776e-05,1.7036e-06,0
-3.43506e-05,1.01308e-05,-7.3474e-05,-3.43698e-06,3.27883e-05,-1.79895e-05,1.98329e-05,4.88885e-07,0
-3.22159e-05,6.28408e-05,-6.21972e-05,-1.75228e-05,5.43421e-05,-1.80342e-05,2.10923e-05,6.93362e-08,0
-2.86754e-05,7.05755e-05,-5.53259e-05,-2.1265e-05,9.07658e-05,-1.44661e-05,1.84654e-05,3.69561e-07,0
-2.26701e-05,5.47027e-05,-4.66414e-05,-2.11408e-05,0.000151332,-9.50841e-06,1.30939e-05,9.91761e-07,0
-1.36223e-05,3.62939e-05,-3.45115e-05,-2.09075e-05,0.000198169,-6.0541e-06,7.87885e-06,1.67252e-06,0
-1.90195e-06,2.89395e-05,-2.28257e-05,-2.05219e-05,0.000173385,-3.61606e-06,3.98507e-06,3.0314e-06,0
1.45257e-05,4.22784e-05,-1.31672e-05,-1.79182e-05,8.26577e-05,-3.18446e-06,1.84542e-06,4.15597e-06,0
2.86203e-05,7.81669e-05,-3.7895e-06,-1.49571e-05,-9.99541e-06,-5.46952e-06,1.89189e-06,4.53776e-06,0
2.68952e-05,0.000103876,3.34248e-06,-1.24897e-05,-6.31112e-05,-8.43556e-06,2.44867e-06,5.05582e-06,0
5.06129e-06,7.39455e-05,6.78927e-06,-1.35537e-05,-9.17684e-05,-1.1631e-05,3.13003e-06,5.71948e-06,0
-2.19208e-05,-1.27401e-06,6.52268e-06,-1.67967e-05,-0.000116601,-1.44548e-05,4.24671e-06,5.36017e-06,0
-3.90987e-05,-6.29175e-05,4.6679e-06,-1.73617e-05,-0.000129147,-1.49527e-05,5.84312e-06,4.40599e-06,0
-4.13176e-05,-7.10437e-05,3.55747e-06,-1.33824e-05,-0.000116247,-1.2175e-05,8.40526e-06,2.41058e-06,0
-3.00053e-05,-3.65503e-05,6.19781e-06,-9.90898e-06,-8.863e-05,-8.89951e-06,1.24991e-05,-8.68667e-07,0
-7.95906e-06,9.72359e-06,1.12806e-05,-1.22414e-05,-6.1479e-05,-8.69442e-06,1.69731e-05,-3.27234e-06,0
1.5598e-05,4.97457e-05,1.32414e-05,-2.01758e-05,-3.9281e-05,-1.23996e-05,2.10054e-05,-4.88699e-06,0
3.97454e-05,8.09151e-05,9.41664e-06,-2.40255e-05,-1.42448e-05,-1.39278e-05,2.40333e-05,-5.14854e-06,0
6.85273e-05,0.000108193,3.59164e-06,-1.33921e-05,2.42953e-05,-8.25221e-06,2.54382e-05,-3.93901e-06,0
