ch1,ch2,ch3,ch4,ch5,ch6,ch7,ch8,class
-3.04765e-05,-0.000178099,-2.16513e-05,-1.11658e-05,9.29724e-06,-7.81964e-06,1.15658e-05,6.29765e-06,0
-2.67894e-05,-0.000155821,-2.06527e-05,-1.44108e-05,1.04115e-05,-1.12269e-05,1.27599e-05,6.89945e-06,0
-2.89681e-05,-0.000114957,-1.71084e-05,-1.49622e-05,9.55564e-06,-1.37977e-05,1.42713e-05,5.27471e-06,0
-3.03427e-05,-7.4108e-05,-1.15526e-05,-1.43963e-05,6.28894e-06,-1.50457e-05,1.62515e-05,3.73776e-06,0
-2.96966e-05,-3.73927e-05,-6.92401e-06,-1.46452e-05,3.02764e-06,-1.60876e-05,1.82475e-05,3.46101e-06,0
-3.08111e-05,-9.09437e-06,-2.94132e-06,-1.74356e-05,1.99498e-06,-1.72706e-05,1.90336e-05,3.23307e-06,0
-3.15673e-05,2.07789e-05,8.65669e-07,-1.97907e-05,2.10144e-06,-1.66167e-05,1.82732e-05,3.46349e-06,0
-2.66155e-05,6.07181e-05,3.59836e-06,-1.7882e-05,2.80995e-06,-1.35572e-05,1.71923e-05,3.5507e-06,0
-1.98008e-05,9.20959e-05,3.17641e-06,-1.33972e-05,3.83859e-06,-1.09682e-05,1.75554e-05,2.6661e-06,0
-1.8554e-05,9.67672e-05,9.36412e-07,-1.30215e-05,4.31575e-06,-1.17124e-05,1.98217e-05,1.12978e-06,0
-2.35182e-05,7.88546e-05,4.28805e-07,-1.75604e-05,2.25333e-06,-1.51673e-05,2.11824e-05,-9.52056e-07,0
-2.98538e-05,5.75249e-05,2.29207e-07,-2.06073e-05,-2.29083e-06,-1.87257e-05,2.09488e-05,-1.9274e-06,0
-3.47853e-05,5.01608e-05,-4.52917e-07,-1.78925e-05,-6.64015e-06,-1.95082e-05,2.068e-05,-2.16931e-06,0
-3.8291e-05,5.23879e-05,-5.40761e-07,-1.21138e-05,-7.98508e-06,-1.76582e-05,2.26071e-05,-3.19626e-06,0
-3.96052e-05,5.73776e-05,1.36161e-06,-7.88855e-06,-5.50881e-06,-1.58053e-05,2.6706e-05,-4.52142e-06,0
-3.6222e-05,6.11677e-05,4.78486e-06,-6.79899e-06,1.73125e-07,-1.31575e-05,3.05591e-05,-4.71145e-06,0
-2.68203e-05,6.06827e-05,6.53244e-06,-6.90928e-06,8.59587e-06,-9.16713e-06,3.21039e-05,-3.5893e-06,0
-1.30993e-05,6.05234e-05,2.8852e-06,-7.59592e-06,1.49746e-05,-6.50513e-06,3.36453e-05,-2.3677e-06,0
-3.62878e-06,5.91914e-05,-5.52266e-06,-1.28005e-05,1.21887e-05,-6.75996e-06,3.67417e-05,-1.82316e-06,0
-8.15039e-06,3.92069e-05,-1.33832e-05,-2.36434e-05,3.71339e-06,-8.26024e-06,3.84267e-05,-2.5527e-07,0
-2.09637e-05,-4.8502e-06,-1.38574e-05,-3.48887e-05,-1.29581e-06,-9.12183e-06,3.73882e-05,2.09138e-06,0
-2.83019e-05,-5.92262e-05,-7.07296e-06,-4.15106e-05,-8.96984e-07,-8.52256e-06,3.28278e-05,5.37475e-06,0
-2.95088e-05,-9.63514e-05,6.67535e-07,-4.47071e-05,5.33768e-07,-7.0203e-06,2.22911e-05,7.35667e-06,0
-3.5509e-05,-0.000105911,5.01124e-06,-4.95093e-05,-2.33719e-06,-6.47093e-06,8.62917e-06,5.02737e-06,0
-4.89685e-05,-9.27656e-05,6.99678e-06,-5.4839e-05,-6.14635e-06,-7.56258e-06,-4.5652e-07,1.13165e-06,0
-5.59904e-05,-6.56268e-05,9.7657e-06,-5.34228e-05,-8.00874e-06,-1.08763e-05,-3.42529e-06,-1.11509e-06,0
-4.72778e-05,-3.993e-05,1.17725e-05,-4.50995e-05,-7.57642e-06,-1.46623e-05,-3.76995e-06,-2.32564e-06,0
-2.78505e-05,-2.64866e-05,1.09436e-05,-3.72286e-05,-6.75778e-06,-1.56983e-05,-3.17526e-06,-1.37806e-06,0
-1.40416e-05,-1.87202e-05,9.02502e-06,-3.14613e-05,-6.5509e-06,-1.47147e-05,1.01376e-06,1.27585e-06,0
-1.79333e-05,1.88108e-06,9.59745e-06,-2.5948e-05,-4.36961e-06,-1.16856e-05,8.17792e-06,3.6922e-06,0
-2.24733e-05,3.29699e-05,1.27803e-05,-2.30324e-05,-5.20937e-07,-8.8633e-06,1.46843e-05,5.77834e-06,0
-8.02661e-06,5.84915e-05,1.52663e-05,-2.45406e-05,4.49752e-06,-7.42068e-06,1.78235e-05,4.77418e-06,0
2.02412e-05,6.92393e-05,1.59713e-05,-2.69849e-05,8.8075e-06,-4.48227e-06,1.68013e-05,9.39056e-07,0
4.54713e-05,7.4238e-05,1.61125e-05,-2.62129e-05,1.24369e-05,-1.72586e-06,1.56045e-05,-2.32821e-06,0
5.652e-05,8.019e-05,1.4752e-05,-2.29558e-05,1.30166e-05,-2.06439e-06,1.6439e-05,-2.47818e-06,0
4.88726e-05,9.23338e-05,1.15561e-05,-1.96462e-05,1.00784e-05,-3.62333e-06,1.66339e-05,-1.0985e-06,0
2.52057e-05,0.000113338,9.3106e-06,-1.69909e-05,5.1634e-06,-4.48457e-06,1.58706e-05,-1.3213e-06,0
-6.45231e-06,0.000130007,7.56279e-06,-1.43261e-05,-2.97354e-07,-5.87486e-06,1.53403e-05,-2.93955e-06,0
-3.79674e-05,0.000126651,5.18299e-06,-1.10561e-05,-4.95256e-06,-8.09598e-06,1.39471e-05,-2.73304e-06,0
-6.70386e-05,0.00010095,3.39349e-06,-4.7904e-06,-9.78764e-06,-1.0823e-05,1.20623e-05,-8.88203e-07,0
-9.44532e-05,5.68939e-05,3.15845e-06,5.17423e-06,-1.24272e-05,-1.40346e-05,1.10101e-05,7.74517e-08,0
-0.000113495,-4.19355e-06,3.02355e-06,1.32659e-05,-6.8281e-06,-1.58151e-05,1.0113e-05,-6.22138e-07,0
-0.000112997,-7.62459e-05,8.03133e-07,1.57059e-05,7.90109e-06,-1.47076e-05,8.87212e-06,-1.54379e-06,0
-9.12096e-05,-0.000139277,-3.40796e-06,1.67278e-05,2.07713e-05,-1.43971e-05,9.09705e-06,-1.38875e-06,0
-6.47235e-05,-0.000170694,-8.69222e-06,2.03088e-05,2.351e-05,-1.73049e-05,1.07307e-05,-1.19406e-08,0
-4.87946e-05,-0.000167067,-1.44448e-05,2.58151e-05,2.11785e-05,-1.97549e-05,1.01748e-05,2.73698e-06,0
-4.24974e-05,-0.00014152,-2.0619e-05,3.01344e-05,1.81308e-05,-1.88547e-05,5.71093e-06,5.48665e-06,0
-4.09149e-05,-0.000110638,-2.51254e-05,3.14167e-05,1.44663e-05,-1.64112e-05,1.40443e-06,6.48829e-06,0
-4.48275e-05,-7.96609e-05,-2.56206e-05,2.7652e-05,1.25969e-05,-1.54012e-05,2.12459e-06,5.57291e-06,0
-5.39283e-05,-4.67131e-05,-2.33119e-05,2.35951e-05,1.3921e-05,-1.5782e-05,6.92315e-06,3.57233e-06,0
-6.51717e-05,-1.70787e-05,-2.17012e-05,3.18844e-05,1.95883e-05,-1.57787e-05,1.02903e-05,2.14117e-06,0
-7.26819e-05,6.80685e-06,-2.0383e-05,5.88715e-05,2.6507e-05,-1.52261e-05,1.04994e-05,1.39116e-06,0
-6.86777e-05,2.36842e-05,-1.87645e-05,8.2364e-05,2.93114e-05,-1.39622e-05,9.41325e-06,-9.67569e-07,0
-5.25866e-05,3.15081e-05,-1.78174e-05,7.65526e-05,2.66601e-05,-1.42807e-05,9.12624e-06,-2.19115e-06,0
-2.90377e-05,3.6061e-05,-1.97317e-05,4.68307e-05,2.30437e-05,-1.60175e-05,9.80296e-06,-1.38127e-06,0
-5.99014e-06,4.20195e-05,-2.32534e-05,1.25203e-05,1.87887e-05,-1.70077e-05,8.97889e-06,-7.73348e-07,0
2.47845e-06,5.52153e-05,-2.39572e-05,-3.43162e-06,6.952e-06,-1.77005e-05,6.8625e-06,-1.02844e-07,0
-5.28564e-06,7.168e-05,-2.32538e-05,4.01609e-06,-1.09551e-05,-1.66057e-05,5.90237e-06,1.60966e-06,0
-1.27375e-05,7.28183e-05,-2.38676e-05,1.94602e-05,-1.98195e-05,-1.35935e-05,7.64669e-06,3.68356e-06,0
-7.88362e-06,5.23995e-05,-2.77198e-05,2.6099e-05,-1.40079e-05,-9.6222e-06,1.02113e-05,4.48881e-06,0
9.71347e-07,2.54399e-05,-3.09395e-05,2.27164e-05,-2.42285e-06,-6.68019e-06,1.14534e-05,2.69835e-06,0
9.96831e-07,-2.8013e-08,-3.01316e-05,1.35817e-05,7.132e-06,-6.06164e-06,1.1162e-05,4.54322e-07,0
-9.43269e-06,-1.85216e-05,-2.72138e-05,-1.80639e-06,1.08122e-05,-6.77443e-06,9.07814e-06,2.08698e-06,0
-1.95772e-05,-2.28956e-05,-2.41363e-05,-2.11547e-05,8.28884e-06,-8.08524e-06,6.40361e-06,5.79545e-06,0
-1.52287e-05,-1.01964e-05,-2.0936e-05,-3.24397e-05,2.36429e-06,-9.73517e-06,4.61895e-06,6.94028e-06,0
1.38897e-06,1.68237e-05,-1.73938e-05,-2.54769e-05,-4.57978e-07,-1.10257e-05,5.01762e-06,5.90155e-06,0
1.38409e-05,4.69044e-05,-1.35822e-05,-8.18642e-06,1.8523e-07,-1.0889e-05,7.57677e-06,5.84777e-06,0
1.6697e-05,7.0616e-05,-7.79444e-06,6.27173e-06,-1.37106e-06,-1.06022e-05,9.67387e-06,5.45591e-06,0
2.31659e-05,8.79278e-05,3.74262e-06,1.10192e-05,-7.21493e-06,-1.12744e-05,1.0249e-05,4.67391e-06,0
3.78846e-05,0.000107299,2.19183e-05,7.96108e-06,-1.28393e-05,-1.0389e-05,1.10679e-05,5.18131e-06,0
4.60827e-05,0.000126424,4.0237e-05,1.49325e-06,-1.54816e-05,-6.46722e-06,1.24015e-05,5.86483e-06,0
3.37627e-05,0.000138123,4.92481e-05,-2.96388e-06,-1.73611e-05,-3.60215e-06,1.1979e-05,4.9792e-06,0
4.76944e-06,0.000142268,4.08597e-05,-4.04595e-06,-2.34982e-05,-4.75519e-06,1.01626e-05,4.08984e-06,0
-2.74411e-05,0.000147879,1.46292e-05,-1.64787e-06,-3.54366e-05,-7.76479e-06,8.74233e-06,4.62729e-06,0
-5.55136e-05,0.000158376,-2.17137e-05,3.1742e-07,-4.60981e-05,-7.65011e-06,8.95182e-06,5.33226e-06,0
-7.89001e-05,0.000159272,-5.71454e-05,-5.18513e-07,-4.28197e-05,-1.69312e-06,1.05372e-05,5.589e-06,0
-9.41907e-05,0.000134774,-8.48325e-05,2.80117e-07,-1.83349e-05,4.16428e-06,1.13738e-05,4.38591e-06,0
-9.92273e-05,8.51757e-05,-9.93589e-05,2.61076e-06,1.20148e-05,3.93651e-06,1.12944e-05,3.74563e-06,0
-0.000100962,1.69773e-05,-9.64634e-05,1.52886e-06,3.5132e-05,-9.03863e-07,1.16198e-05,4.36038e-06,0
-0.000100522,-3.82485e-05,-7.95263e-05,8.79648e-07,5.2951e-05,-4.37078e-06,1.2771e-05,4.37062e-06,0
-9.20812e-05,-7.81018e-05,-5.68461e-05,5.34102e-06,6.67169e-05,-4.3003e-06,1.46543e-05,1.69799e-06,0
-7.77247e-05,-0.00011748,-3.73889e-05,1.27773e-05,8.06587e-05,-3.16357e-06,1.68846e-05,-3.23098e-06,0
-6.18223e-05,-0.000129145,-2.40292e-05,1.72698e-05,9.3606e-05,-3.68494e-06,1.64484e-05,-5.59278e-06,0
-4.77697e-05,-0.000113693,-1.61704e-05,1.45727e-05,9.68189e-05,-6.85527e-06,1.37308e-05,-5.62683e-06,0
-3.68457e-05,-9.62687e-05,-1.12055e-05,8.53964e-06,7.9656e-05,-1.06007e-05,1.16615e-05,-5.53587e-06,0
-3.04944e-05,-0.000100032,-4.14175e-06,2.24322e-06,5.02005e-05,-1.36035e-05,1.09115e-05,-5.53571e-06,0
-2.79634e-05,-0.000105281,3.92102e-06,-2.84022e-06,2.0698e-05,-1.45618e-05,1.01829e-05,-4.58542e-06,0
-2.68437e-05,-8.13476e-05,9.49447e-06,-6.11176e-06,-3.50185e-06,-1.53096e-05,8.7392e-06,-3.12832e-06,0
-2.40565e-05,-2.68391e-05,1.06615e-05,-7.79066e-06,-1.54604e-05,-1.57606e-05,8.33614e-06,-2.97683e-06,0
-1.91443e-05,3.78021e-05,8.41466e-06,-1.11457e-05,-1.28701e-05,-1.4235e-05,9.10843e-06,-3.90244e-06,0
-1.79955e-05,8.37642e-05,5.32841e-06,-1.79389e-05,-1.04869e-06,-1.24388e-05,1.12193e-05,-5.26384e-06,0
-2.26381e-05,9.63697e-05,2.50316e-06,-3.15086e-05,3.74897e-06,-1.18386e-05,1.47973e-05,-5.42488e-06,0
-2.94275e-05,9.0687e-05,-9.16435e-07,-5.17027e-05,-7.09287e-07,-1.28576e-05,1.96784e-05,-4.63628e-06,0
-3.28739e-05,9.99102e-05,-4.08612e-06,-6.81465e-05,-2.66489e-06,-1.37788e-05,2.3945e-05,-4.18704e-06,0
-3.34597e-05,0.00012127,-5.2839e-06,-6.84429e-05,6.83033e-06,-1.29591e-05,2.60859e-05,-3.81258e-06,0
-3.40648e-05,0.00011861,-7.57896e-06,-5.35898e-05,2.26514e-05,-1.14932e-05,2.58754e-05,-2.72197e-06,0
-3.6552e-05,6.55751e-05,-1.52357e-05,-3.76312e-05,3.37766e-05,-1.37233e-05,2.28458e-05,-2.23653e-06,0
-3.83463e-05,-7.99979e-06,-2.64505e-05,-2.74122e-05,3.58667e-05,-1.82804e-05,1.84353e-05,-3.47484e-06,0
-3.41681e-05,-4.88723e-05,-3.26318e-05,-1.92705e-05,3.68218e-05,-1.95973e-05,1.51324e-05,-4.95856e-06,0
-2.06395e-05,-3.60007e-05,-2.78673e-05,-6.08719e-06,4.49954e-05,-1.67142e-05,1.3983e-05,-5.03086e-06,0
9.59499e-07,1.89113e-05,-1.62175e-05,1.87701e-05,5.2283e-05,-1.38692e-05,1.38067e-05,-2.28231e-06,0
3.0342e-05,8.74475e-05,-6.68212e-06,5.12263e-05,5.02937e-05,-1.40468e-05,1.24006e-05,2.92842e-06,0
6.73278e-05,0.000121306,-6.60495e-06,7.87004e-05,4.29327e-05,-1.54671e-05,1.01867e-05,6.01454e-06,0
9.99796e-05,0.000100949,-1.58831e-05,9.21811e-05,3.30738e-05,-1.58092e-05,8.68806e-06,4.58352e-06,0
0.000111778,4.1857e-05,-2.4662e-05,8.26387e-05,2.31971e-05,-1.4712e-05,7.86235e-06,1.06606e-06,0
8.78211e-05,-4.43758e-05,-3.10796e-05,4.19189e-05,1.73988e-05,-1.49223e-05,7.63409e-06,-1.4259e-06,0
2.97352e-05,-0.000104842,-3.33061e-05,-5.66068e-06,2.09566e-05,-1.53867e-05,7.49193e-06,-3.29016e-06,0
-3.79106e-05,-8.29502e-05,-2.44684e-05,-2.82293e-05,3.09621e-05,-1.44203e-05,8.10365e-06,-5.07377e-06,0
-9.14844e-05,8.43855e-08,-5.99488e-06,-2.66179e-05,3.51626e-05,-1.34863e-05,9.49284e-06,-5.20151e-06,0
-0.000120894,6.45461e-05,1.66221e-05,-1.03194e-05,3.38026e-05,-1.40064e-05,1.00425e-05,-3.91946e-06,0
-0.000136683,5.89829e-05,3.73283e-05,1.10129e-05,3.39798e-05,-1.67183e-05,9.57717e-06,-1.2886e-06,0
-0.000146208,1.60185e-05,5.16092e-05,2.90582e-05,3.57703e-05,-2.0325e-05,1.19492e-05,6.75413e-07,0
-0.000144242,-2.58036e-05,5.55145e-05,3.16924e-05,3.27726e-05,-2.3449e-05,1.50285e-05,1.10042e-06,0
-0.000129073,-5.18999e-05,4.43806e-05,2.14119e-05,2.49602e-05,-2.48528e-05,1.65965e-05,1.07848e-06,0
-0.000100533,-6.76651e-05,2.00399e-05,6.81263e-06,1.57866e-05,-2.29082e-05,1.78601e-05,1.19554e-06,0
-6.32292e-05,-9.08707e-05,-6.80007e-06,-6.15257e-06,8.93268e-06,-1.68674e-05,1.81522e-05,1.51067e-06,0
-3.01772e-05,-0.00014243,-2.69173e-05,-1.53869e-05,5.80402e-06,-9.77801e-06,1.81054e-05,1.4567e-06,0
-1.72112e-05,-0.000221128,-3.8963e-05,-2.45884e-05,4.26475e-06,-4.59655e-06,1.88846e-05,-2.97185e-07,0
-2.60817e-05,-0.000270415,-4.3474e-05,-3.1781e-05,2.44671e-06,-2.61772e-06,2.17598e-05,-2.34146e-06,0
-4.50615e-05,-0.000241854,-4.34396e-05,-3.48091e-05,1.05731e-06,-3.51163e-06,2.4068e-05,-3.52838e-06,0
-5.94066e-05,-0.000151423,-4.08675e-05,-3.23414e-05,1.20237e-06,-6.47902e-06,2.43088e-05,-4.29205e-06,0
-6.37357e-05,-5.1925e-05,-3.35503e-05,-2.9405e-05,3.03239e-06,-1.00916e-05,1.9931e-05,-3.31658e-06,0
-6.08108e-05,3.55925e-05,-2.00714e-05,-2.84641e-05,6.50443e-06,-1.14533e-05,8.17653e-06,-8.79204e-07,0
-5.67044e-05,0.00011123,-4.09963e-06,-2.98272e-05,9.48629e-06,-1.00555e-05,-6.94827e-06,1.59721e-06,0
-5.41817e-05,0.000181544,6.69101e-06,-3.06093e-05,1.1054e-05,-9.33013e-06,-1.6006e-05,3.98851e-06,0
-5.07956e-05,0.00024306,1.10188e-05,-2.91723e-05,1.29479e-05,-1.13106e-05,-1.39444e-05,7.16277e-06,0
-4.33959e-05,0.000275515,1.17761e-05,-2.5555e-05,1.53938e-05,-1.31319e-05,-2.84197e-06,1.01867e-05,0
-3.28259e-05,0.00025971,1.10117e-05,-2.1638e-05,1.78397e-05,-1.22179e-05,1.27691e-05,1.11722e-05,0
-2.34818e-05,0.000200481,9.03237e-06,-1.94118e-05,2.20814e-05,-8.91566e-06,2.69943e-05,9.83693e-06,0
-1.71728e-05,0.000130991,7.13389e-06,-1.98899e-05,2.63124e-05,-8.13774e-06,3.88147e-05,6.31828e-06,0
-1.49073e-05,8.55586e-05,5.21879e-06,-2.0492e-05,2.68847e-05,-1.31488e-05,4.96481e-05,7.98865e-07,0
-1.48073e-05,7.08506e-05,2.21249e-06,-2.00053e-05,2.31115e-05,-1.88697e-05,5.5995e-05,-2.72111e-06,0
-1.35188e-05,6.69708e-05,-2.95933e-06,-1.91424e-05,1.69395e-05,-1.92205e-05,4.93086e-05,-2.95688e-06,0
-1.40988e-05,5.86319e-05,-8.22983e-06,-1.73655e-05,1.12722e-05,-1.5994e-05,3.0401e-05,-1.98556e-06,0
-1.4833e-05,5.08918e-05,-1.21139e-05,-1.58642e-05,6.55398e-06,-1.28549e-05,1.54251e-05,-3.73833e-07,0
-1.03679e-05,4.92999e-05,-1.42353e-05,-1.5261e-05,4.52909e-06,-1.16776e-05,1.18124e-05,8.88433e-07,0
-4.45867e-06,8.43037e-05,-1.22925e-05,-1.55649e-05,7.10558e-06,-1.18356e-05,1.66646e-05,7.66863e-07,0
-2.05843e-06,0.000150461,-6.49485e-06,-1.50312e-05,1.42088e-05,-1.10367e-05,2.39981e-05,-3.65859e-07,0
-4.30382e-06,0.000185985,1.28395e-06,-1.58934e-05,2.13515e-05,-1.03502e-05,2.82476e-05,-1.46664e-06,0
-3.25258e-06,0.000157313,5.6309e-06,-1.87053e-05,2.13816e-05,-1.19976e-05,2.80878e-05,-1.77484e-06,0
3.24163e-06,6.46715e-05,7.98317e-06,-2.10391e-05,1.57048e-05,-1.41867e-05,2.15829e-05,7.16651e-08,0
8.28195e-06,-6.94551e-05,1.39409e-05,-2.21219e-05,1.01697e-05,-1.39434e-05,1.1413e-05,4.58758e-06,0
5.3282e-06,-0.000236849,2.44531e-05,-2.13839e-05,1.4001e-05,-1.01865e-05,3.1419e-06,8.77392e-06,0
-7.66573e-06,-0.000394056,3.3702e-05,-1.98511e-05,2.66002e-05,-6.16277e-06,1.49552e-06,1.04997e-05,0
-2.79819e-05,-0.000456199,3.56642e-05,-1.81255e-05,3.19313e-05,-6.58224e-06,4.81181e-06,9.66706e-06,0
-5.00581e-05,-0.000385989,2.98921e-05,-1.38897e-05,2.09688e-05,-1.05755e-05,8.52704e-06,7.62588e-06,0
-6.73786e-05,-0.000241256,1.79321e-05,-8.50265e-06,3.22247e-06,-1.46581e-05,9.04534e-06,6.68583e-06,0
-7.6104e-05,-0.000113581,1.69635e-06,-6.59645e-06,-9.08014e-06,-1.69179e-05,6.79677e-06,6.98866e-06,0
-7.7046e-05,-5.15092e-05,-1.81142e-05,-1.17725e-05,-1.42146e-05,-1.63058e-05,3.59956e-06,6.60565e-06,0
-7.38308e-05,-4.48831e-05,-3.71073e-05,-2.16376e-05,-1.61535e-05,-1.2666e-05,-7.01461e-07,5.81482e-06,0
-6.53692e-05,-5.4257e-05,-4.90404e-05,-2.95954e-05,-1.71917e-05,-9.89053e-06,-3.64598e-06,9.13592e-06,0
-5.00573e-05,-5.00434e-05,-5.17664e-05,-3.05254e-05,-1.42466e-05,-9.68887e-06,-2.69641e-06,2.11646e-05,0
-3.15056e-05,-2.20816e-05,-4.75045e-05,-2.42297e-05,-3.9509e-06,-1.032e-05,-1.35753e-07,3.94878e-05,0
-1.66334e-05,2.3634e-05,-4.29938e-05,-1.20629e-05,1.27524e-05,-1.08044e-05,9.69199e-07,5.08309e-05,0
-6.22019e-06,7.3098e-05,-4.43084e-05,1.01509e-06,2.50635e-05,-1.0833e-05,1.26512e-06,4.99083e-05,0
7.95315e-06,0.000117707,-4.88418e-05,7.24218e-06,2.32922e-05,-8.66304e-06,1.57704e-06,4.14912e-05,0
3.10712e-05,0.000152504,-5.18538e-05,4.865e-06,1.57451e-05,-5.43327e-06,2.86031e-06,2.62292e-05,0
4.70509e-05,0.000154447,-4.96704e-05,-2.01085e-06,1.53115e-05,-4.06715e-06,5.48919e-06,5.34029e-06,0
4.26752e-05,0.000113484,-4.04566e-05,-7.8357e-06,2.34321e-05,-3.84907e-06,8.11574e-06,-1.42971e-05,0
2.47289e-05,2.89773e-05,-2.61413e-05,-9.91082e-06,3.60585e-05,-3.59518e-06,7.36011e-06,-2.72585e-05,0
2.36363e-06,-8.05368e-05,-1.46257e-05,-8.84129e-06,4.95949e-05,-1.8905e-06,3.24451e-06,-3.06672e-05,0
-2.21526e-05,-0.000155998,-8.10309e-06,-8.76713e-06,6.02877e-05,-1.31831e-08,-1.76092e-07,-2.76755e-05,0
-4.51565e-05,-0.000154565,-2.26216e-06,-9.86543e-06,6.01541e-05,-7.79001e-07,2.11984e-06,-2.36233e-05,0
-5.78591e-05,-8.45696e-05,3.9671e-06,-7.63931e-06,4.64754e-05,-3.90766e-06,1.27268e-05,-1.96657e-05,0
-6.29102e-05,1.02673e-05,9.26417e-06,-2.64325e-06,2.94607e-05,-5.32016e-06,2.69029e-05,-1.42283e-05,0
-6.50287e-05,8.48383e-05,1.04492e-05,1.38211e-06,2.05328e-05,-1.01427e-06,3.62069e-05,-7.75664e-06,0
-6.29532e-05,0.000118893,1.00826e-05,9.82889e-07,1.71771e-05,5.07895e-06,3.74515e-05,-4.57514e-06,0
-5.11739e-05,0.00012207,9.87743e-06,-2.98219e-06,1.11151e-05,7.41726e-06,3.32114e-05,-3.01046e-06,0
-3.07603e-05,0.000102204,1.03861e-05,-5.31653e-06,4.37701e-06,6.24182e-06,2.70097e-05,-2.98678e-06,0
-1.08777e-05,6.40201e-05,1.092e-05,-3.61128e-06,2.31655e-06,2.99107e-06,1.9888e-05,-3.45164e-06,0
1.61347e-06,1.64706e-05,1.12462e-05,-3.17792e-07,3.72452e-06,-1.23559e-06,1.20033e-05,-3.85452e-06,0
6.35473e-06,-2.48263e-05,1.09579e-05,1.53427e-06,3.89923e-06,-5.05939e-06,4.83394e-06,-3.28453e-06,0
5.98652e-06,-3.49806e-05,1.04051e-05,2.53073e-06,3.70438e-06,-5.87818e-06,1.36663e-06,-9.08851e-07,0
1.94892e-06,-1.31488e-05,1.02783e-05,4.60357e-06,9.53215e-06,-2.99455e-06,1.27734e-06,2.97666e-06,0
-2.00863e-07,1.49594e-05,9.34439e-06,9.43157e-06,2.59458e-05,-4.42321e-07,3.21359e-06,6.94132e-06,0
5.65486e-06,4.65719e-05,7.18744e-06,1.60545e-05,4.57302e-05,-6.89131e-07,6.49074e-06,8.18457e-06,0
1.59925e-05,0.000111475,4.41513e-06,2.16138e-05,5.38905e-05,-2.59998e-06,1.0429e-05,7.09628e-06,0
1.882e-05,0.000210612,1.33392e-06,2.50954e-05,4.38738e-05,-5.0518e-06,1.43144e-05,4.64697e-06,0
1.01661e-05,0.000324125,-2.16731e-06,2.86332e-05,2.31318e-05,-7.20639e-06,1.62763e-05,3.03983e-06,0
-5.32542e-06,0.000434591,-3.43336e-06,3.33945e-05,3.66431e-06,-8.26997e-06,1.64168e-05,2.44214e-06,0
-2.4103e-05,0.000487629,-5.76611e-07,3.72901e-05,-6.29846e-06,-7.16764e-06,1.54844e-05,2.64218e-06,0
-4.64623e-05,0.000417104,4.80698e-06,3.78448e-05,-4.97576e-06,-4.36163e-06,1.539e-05,2.66313e-06,0
-6.67767e-05,0.000232555,9.02974e-06,3.87021e-05,1.5058e-06,-2.03206e-06,1.62224e-05,2.17309e-06,0
-7.66265e-05,8.3955e-06,1.06669e-05,4.90712e-05,2.47647e-06,-9.2727e-07,1.64724e-05,7.81936e-07,0
-7.79344e-05,-0.00017577,1.02615e-05,6.92596e-05,-5.3358e-06,1.28676e-07,1.47291e-05,-3.0182e-07,0
-7.48631e-05,-0.000265848,9.17327e-06,8.06014e-05,-1.65807e-05,1.83518e-06,1.24168e-05,2.35518e-07,0
-7.27019e-05,-0.000253616,5.67775e-06,6.46687e-05,-2.35512e-05,1.20492e-06,1.17086e-05,2.34831e-06,0
-7.53519e-05,-0.000176441,7.30154e-07,2.72102e-05,-2.10058e-05,-1.55995e-06,1.05979e-05,3.58827e-06,0
-7.37514e-05,-8.89348e-05,-2.79075e-06,-1.41157e-05,-2.09638e-05,-4.25948e-06,6.4646e-06,4.86059e-06,0
-6.07724e-05,-7.77166e-06,-2.07526e-06,-4.73138e-05,-3.05655e-05,-3.9164e-06,1.61348e-06,8.05219e-06,0
-3.69326e-05,9.71823e-05,1.79629e-06,-6.80674e-05,-3.71941e-05,-1.40272e-06,-1.06472e-06,9.7391e-06,0
-7.70827e-06,0.000245427,3.61166e-06,-7.87037e-05,-3.32803e-05,-1.27046e-06,-7.72979e-07,7.62092e-06,0
1.87423e-05,0.000418696,2.02237e-06,-8.12207e-05,-1.90197e-05,-9.033e-07,3.62843e-06,5.14125e-06,0
3.62e-05,0.000565027,-7.78149e-08,-7.64557e-05,-1.60305e-06,7.76695e-07,8.17181e-06,3.92659e-06,0
4.23282e-05,0.000588117,-2.81457e-07,-6.71087e-05,1.24489e-05,3.34352e-06,6.88113e-06,3.92914e-06,0
4.34408e-05,0.000393096,2.93011e-07,-5.69248e-05,2.4783e-05,4.76188e-06,4.20986e-06,4.74988e-06,0
4.65681e-05,1.34385e-06,-2.32336e-06,-4.96354e-05,3.87753e-05,4.34475e-06,5.9275e-06,4.96227e-06,0
4.42769e-05,-0.000421431,-9.96893e-06,-4.56009e-05,4.82711e-05,1.07319e-06,6.06161e-06,5.44021e-06,0
2.75033e-05,-0.00068786,-1.82792e-05,-4.22916e-05,4.3475e-05,-4.91854e-06,-4.92347e-06,5.17736e-06,0
-2.37811e-06,-0.000705492,-2.29015e-05,-3.87994e-05,2.91919e-05,-1.08121e-05,-2.30787e-05,4.70236e-06,0
-4.14498e-05,-0.000512286,-2.21949e-05,-3.37752e-05,1.5158e-05,-1.41411e-05,-3.21115e-05,4.2663e-06,0
-8.09349e-05,-0.000248919,-1.69875e-05,-2.40862e-05,5.37717e-06,-1.48763e-05,-2.32963e-05,3.85985e-06,0
-0.000110115,-5.88064e-05,-8.68855e-06,-1.14968e-05,-3.18267e-06,-1.50024e-05,-2.35632e-06,3.15103e-06,0
-0.000125587,9.88881e-06,-1.1501e-06,-2.78733e-06,-1.09188e-05,-1.59895e-05,2.02481e-05,2.90967e-06,0
-0.000134923,-9.99971e-07,3.59186e-06,-1.59743e-06,-1.44978e-05,-1.98285e-05,3.9874e-05,2.67375e-06,0
-0.000142238,-3.38532e-05,7.32983e-06,-4.28158e-06,-1.35965e-05,-2.35052e-05,5.57156e-05,2.49816e-06,0
-0.00014133,-6.02069e-05,1.39201e-05,-5.40484e-06,-1.19318e-05,-2.3893e-05,6.58964e-05,2.50264e-06,0
-0.000128485,-7.83216e-05,2.47193e-05,-4.57008e-06,-1.10798e-05,-2.27406e-05,6.8286e-05,2.31533e-06,0
-0.000109916,-8.50776e-05,3.55226e-05,-3.94141e-06,-1.0794e-05,-2.31398e-05,6.46246e-05,2.05651e-06,0
-8.91279e-05,-6.63057e-05,3.96449e-05,-3.95144e-07,-1.05455e-05,-2.33107e-05,5.95547e-05,9.09846e-07,0
-6.98769e-05,-5.92506e-06,3.13305e-05,7.02833e-06,-5.01958e-06,-2.27192e-05,5.43994e-05,-1.67762e-06,0
-5.32933e-05,9.99647e-05,1.04574e-05,1.55646e-05,9.90493e-06,-1.98444e-05,4.72769e-05,-3.29782e-06,0
-3.80717e-05,0.000167724,-1.78107e-05,2.44431e-05,2.97334e-05,-1.54487e-05,3.6647e-05,1.7998e-06,0
-3.95265e-05,8.21685e-05,-4.96346e-05,4.02866e-05,4.02792e-05,-1.12764e-05,2.67482e-05,1.3263e-05,0
-6.87876e-05,-0.000100756,-7.50071e-05,6.1663e-05,4.0593e-05,-8.33915e-06,2.32148e-05,2.09524e-05,0
-0.000102828,-0.000225829,-8.4903e-05,7.19573e-05,4.54001e-05,-7.84001e-06,1.78843e-05,2.1116e-05,0
-0.000114878,-0.000239183,-7.71214e-05,6.17061e-05,5.95037e-05,-7.30282e-06,-1.28533e-06,1.61557e-05,0
-9.75464e-05,-0.000187632,-5.86427e-05,3.67178e-05,6.67807e-05,-7.54843e-06,-2.9431e-05,7.84204e-06,0
-6.16176e-05,-0.000145936,-4.75291e-05,1.04816e-05,5.90805e-05,-8.6808e-06,-4.61465e-05,-3.43816e-08,0
-3.14062e-05,-0.000108234,-4.73366e-05,-1.06443e-05,4.69011e-05,-1.00792e-05,-3.83507e-05,-6.79063e-06,0
-1.33758e-05,-1.46357e-05,-4.77576e-05,-2.25326e-05,3.98148e-05,-1.02388e-05,-1.44344e-05,-1.03944e-05,0
-1.89684e-06,0.000128234,-4.17295e-05,-2.5803e-05,4.03352e-05,-8.07384e-06,8.71046e-06,-1.11003e-05,0
1.27914e-05,0.00025933,-3.58593e-05,-2.76317e-05,4.20786e-05,-6.17178e-06,2.51797e-05,-9.85073e-06,0
4.02773e-05,0.000325637,-3.461e-05,-3.3298e-05,4.03759e-05,-6.1485e-06,3.46274e-05,-8.78242e-06,0
7.61689e-05,0.000318914,-3.57179e-05,-4.1006e-05,3.35029e-05,-7.36907e-06,3.66715e-05,-7.99987e-06,0
0.000103385,0.000277972,-3.44177e-05,-4.74273e-05,2.32811e-05,-8.53854e-06,3.40381e-05,-7.21115e-06,0
0.000111616,0.000233947,-2.76592e-05,-4.95752e-05,1.38715e-05,-8.46493e-06,2.75882e-05,-6.36127e-06,0
0.000105679,0.000177933,-1.84751e-05,-4.81324e-05,8.914e-06,-7.11531e-06,1.6936e-05,-5.63526e-06,0
9.56316e-05,0.000103467,-1.10252e-05,-4.91539e-05,1.05978e-05,-6.0332e-06,5.46129e-06,-6.45266e-06,0
9.37831e-05,5.5117e-05,-7.66664e-06,-5.4077e-05,1.65278e-05,-6.88964e-06,-1.53371e-06,-7.12778e-06,0
9.7315e-05,8.19464e-05,-6.42199e-06,-5.87736e-05,2.25067e-05,-8.87887e-06,-2.95147e-06,-6.58387e-06,0
8.40197e-05,0.0001457,-6.29973e-06,-5.68753e-05,2.4721e-05,-1.02728e-05,-1.14941e-06,-5.07346e-06,0
4.12536e-05,0.000164522,-5.3958e-06,-4.54727e-05,2.43846e-05,-1.0273e-05,3.61448e-07,-3.75408e-06,0
-2.18176e-05,8.60425e-05,-1.65549e-06,-2.60438e-05,2.6824e-05,-9.18803e-06,1.1292e-06,-2.72133e-06,0
-8.51033e-05,-0.000104619,3.01943e-06,-4.95455e-06,3.03887e-05,-9.27638e-06,1.09013e-06,-2.42066e-06,0
-0.000127447,-0.000343285,2.67969e-06,1.29874e-05,2.57036e-05,-1.32372e-05,1.94753e-07,-2.11683e-06,0
-0.000139639,-0.000474422,-8.65959e-07,2.58744e-05,1.12219e-05,-1.99148e-05,-2.05768e-06,-1.46389e-06,0
-0.000129834,-0.000403668,-2.15854e-06,3.30095e-05,-5.29828e-06,-2.5172e-05,-5.52273e-06,-1.89e-06,0
-0.000120141,-0.000216016,-1.24392e-06,3.24363e-05,-1.93297e-05,-2.81813e-05,-7.21178e-06,-3.54259e-06,0
-0.000118716,-4.79645e-05,-6.67649e-07,2.50611e-05,-3.04692e-05,-2.92611e-05,-6.62929e-06,-4.1178e-06,0
-0.000113028,5.6656e-05,-3.41199e-06,1.53674e-05,-3.86947e-05,-2.91632e-05,-4.28911e-06,-2.19751e-06,0
-9.22404e-05,9.46969e-05,-9.38577e-06,1.41994e-05,-4.01763e-05,-2.69998e-05,4.27199e-07,9.60698e-07,0
-6.15043e-05,0.000101683,-1.38715e-05,2.15039e-05,-3.09407e-05,-2.13867e-05,6.78662e-06,2.5282e-06,0
-3.76204e-05,0.000104698,-1.1659e-05,2.23136e-05,-1.45707e-05,-1.45334e-05,1.18484e-05,2.97201e-06,0
-2.72566e-05,8.89447e-05,-2.63723e-06,3.30435e-06,-1.01772e-05,-8.72319e-06,1.32792e-05,2.19812e-06,0
-3.23854e-05,7.49044e-05,9.18409e-06,-2.56895e-05,-3.01791e-05,-8.39076e-06,1.31925e-05,6.3061e-07,0
-4.89724e-05,6.9073e-05,2.18435e-05,-3.94371e-05,-4.31223e-05,-1.34792e-05,1.31889e-05,-2.6666e-06,0
-6.16411e-05,5.66125e-05,3.4001e-05,-3.71322e-05,-2.19112e-05,-1.83083e-05,1.44855e-05,-5.37243e-06,0
-5.7692e-05,2.99109e-05,4.39042e-05,-3.05454e-05,1.54571e-05,-1.89144e-05,1.60731e-05,-5.0195e-06,0
-3.83642e-05,-2.56424e-05,4.86841e-05,-2.73013e-05,4.65774e-05,-1.69109e-05,1.72218e-05,-3.63805e-06,0
-2.00028e-05,-0.00010496,4.15378e-05,-2.34952e-05,6.6683e-05,-1.57764e-05,1.83169e-05,-3.45081e-06,0
-1.35366e-05,-0.00013327,1.94168e-05,-1.3802e-05,6.91144e-05,-1.46225e-05,1.75049e-05,-5.44627e-06,0
-1.53686e-05,-4.54788e-05,-1.02052e-05,8.88802e-06,4.73355e-05,-1.10061e-05,1.61929e-05,-6.62859e-06,0
-2.17974e-05,0.0001023,-3.74825e-05,4.45529e-05,1.4293e-05,-5.12564e-06,1.51582e-05,-6.16403e-06,0
-3.29661e-05,0.000213361,-5.64513e-05,8.145e-05,1.13299e-06,2.23439e-07,1.50966e-05,-3.887e-06,0
-4.69725e-05,0.000271177,-6.42929e-05,0.000101215,1.31211e-05,3.06176e-06,1.61475e-05,-2.39715e-06,0
-5.77678e-05,0.000288016,-5.79746e-05,9.22295e-05,1.53463e-05,2.97135e-06,1.68427e-05,-2.98594e-06,0
-6.37261e-05,0.000237615,-3.89782e-05,6.12633e-05,-6.88265e-06,2.58544e-06,1.59766e-05,-4.0818e-06,0
-6.65343e-05,0.000118182,-1.93462e-05,2.37161e-05,-2.50748e-05,4.41849e-06,1.39158e-05,-3.12223e-06,0
-6.38904e-05,-1.16505e-05,-9.16605e-06,-2.59436e-06,-1.80512e-05,6.25285e-06,1.18011e-05,-4.15411e-07,0
-5.30266e-05,-9.22762e-05,-7.24437e-06,-1.27494e-05,-8.18226e-09,6.04601e-06,1.0495e-05,2.00892e-06,0
-3.8152e-05,-0.000117318,-9.06658e-06,-1.41946e-05,1.09639e-05,4.53924e-06,9.86137e-06,2.36231e-06,0
-2.84618e-05,-0.000132104,-1.70973e-05,-1.5892e-05,1.40434e-05,2.07942e-06,9.50998e-06,3.39824e-06,0
-2.65959e-05,-0.000184875,-2.93067e-05,-1.74356e-05,1.56025e-05,4.98567e-07,9.07426e-06,6.14029e-06,0
-2.91042e-05,-0.000242733,-3.34885e-05,-1.10609e-05,1.37025e-05,7.61918e-07,8.66865e-06,6.98026e-06,0
-3.28263e-05,-0.000214909,-2.31189e-05,8.3487e-06,7.8469e-06,7.65138e-08,8.22932e-06,6.16877e-06,0
-3.50512e-05,-6.17531e-05,-7.08903e-06,2.67942e-05,3.89121e-06,-2.88446e-06,8.95827e-06,5.78821e-06,0
-3.44206e-05,0.000170065,2.6804e-06,3.29699e-05,6.55622e-06,-5.08321e-06,1.05451e-05,6.08297e-06,0
-3.13342e-05,0.000308815,2.25398e-06,3.07755e-05,1.46023e-05,-4.76704e-06,1.17852e-05,5.6144e-06,0
-2.42748e-05,0.000299935,1.20678e-07,2.33703e-05,2.41638e-05,-3.8699e-06,1.16345e-05,6.13033e-06,0
-1.07752e-05,0.000238502,1.16633e-06,1.35206e-05,3.05001e-05,-4.89944e-07,1.00311e-05,6.99981e-06,0
6.05289e-06,0.000154161,-7.3842e-07,3.5931e-06,3.28843e-05,8.12854e-06,1.11008e-05,6.90363e-06,0
2.05206e-05,6.61562e-05,-4.66239e-06,-1.87528e-07,3.38635e-05,1.78127e-05,1.34027e-05,5.99376e-06,0
3.08342e-05,-3.50813e-05,-3.5811e-06,7.74022e-06,3.26739e-05,2.27661e-05,1.57837e-05,4.04283e-06,0
2.67002e-05,-0.000113729,1.30465e-06,2.20353e-05,3.11653e-05,1.93687e-05,1.6844e-05,1.356e-06,0
6.10716e-06,-0.000114077,3.64884e-06,3.14041e-05,3.03101e-05,1.13408e-05,1.45727e-05,-3.04113e-06,0
-1.56332e-05,-6.3452e-05,2.48714e-06,3.04498e-05,3.0033e-05,4.524e-06,1.10779e-05,-8.28809e-06,0
-2.97169e-05,-5.51281e-05,7.2198e-07,2.13828e-05,3.10827e-05,1.0758e-06,8.99139e-06,-1.03802e-05,0
-4.14683e-05,-0.000120757,2.34722e-06,1.0683e-05,3.1785e-05,5.94032e-07,9.55943e-06,-8.47586e-06,0
-5.97469e-05,-0.000176758,5.64335e-06,3.48865e-06,2.85303e-05,1.06285e-06,1.16356e-05,-5.4365e-06,0
-7.75955e-05,-0.000146404,6.17339e-06,-6.36098e-07,2.08918e-05,2.12383e-07,1.33582e-05,-3.06107e-06,0
-8.33537e-05,-8.00456e-05,1.42289e-06,-5.88284e-06,1.04239e-05,-2.89183e-06,1.36457e-05,-1.13489e-06,0
-6.9275e-05,-7.93596e-05,-6.53447e-06,-1.26698e-05,-9.13886e-07,-6.08714e-06,1.36633e-05,8.61063e-07,0
-3.0759e-05,-0.000143174,-1.27152e-05,-1.59627e-05,-1.02969e-05,-6.14331e-06,1.51968e-05,1.47477e-06,0
2.22448e-05,-0.000192532,-1.33322e-05,-1.49564e-05,-1.36104e-05,-2.86958e-06,1.68972e-05,5.64049e-07,0
6.54331e-05,-0.000171051,-1.00474e-05,-1.33367e-05,-1.14146e-05,-1.7934e-06,1.54123e-05,-6.43641e-07,0
8.24377e-05,-0.000104987,-6.81566e-06,-1.3063e-05,-8.17703e-06,-5.36567e-06,1.22702e-05,-1.15322e-06,0
7.09883e-05,-3.40536e-05,-4.61369e-06,-1.63248e-05,-3.68385e-06,-1.10847e-05,1.05402e-05,-4.57164e-07,0
3.73475e-05,3.78177e-05,-3.27472e-06,-2.33031e-05,1.04812e-05,-1.57981e-05,1.03944e-05,-2.46228e-07,0
-4.23025e-06,0.000129485,-2.15072e-06,-2.91164e-05,3.45288e-05,-1.78575e-05,1.13103e-05,-1.31497e-06,0
-4.34357e-05,0.000216783,-9.64289e-07,-2.93452e-05,4.7635e-05,-1.56949e-05,1.32294e-05,-2.28474e-06,0
-7.38171e-05,0.000243383,-7.946e-07,-2.66123e-05,3.839e-05,-1.2385e-05,1.45156e-05,-2.76069e-06,0
-9.50001e-05,0.000173617,-4.60148e-06,-2.7618e-05,2.03941e-05,-1.30068e-05,1.40735e-05,-3.07111e-06,0
-0.000112006,3.54865e-05,-1.14832e-05,-3.34156e-05,1.0527e-05,-1.65838e-05,1.41155e-05,-2.83595e-06,0
-0.000122602,-0.000119996,-1.75206e-05,-3.66573e-05,1.04317e-05,-1.95786e-05,1.53434e-05,-9.49424e-07,0
-0.000114702,-0.00023543,-2.13439e-05,-3.41709e-05,9.1225e-06,-2.22232e-05,1.592e-05,9.00346e-07,0
-7.94105e-05,-0.000266694,-2.4465e-05,-2.62375e-05,2.35287e-06,-2.39225e-05,1.56921e-05,1.0067e-06,0
-3.05963e-05,-0.000200175,-2.57027e-05,-1.4742e-05,-1.02515e-05,-2.39675e-05,1.48428e-05,1.87846e-06,0
7.35783e-06,-8.4342e-05,-2.38436e-05,-4.12257e-06,-2.36693e-05,-2.49624e-05,1.33535e-05,3.32729e-06,0
1.87383e-05,-1.41517e-07,-2.19836e-05,3.02248e-06,-2.90386e-05,-2.59005e-05,1.10464e-05,4.7818e-06,0
3.99993e-06,4.08669e-05,-1.90023e-05,6.98544e-06,-2.89232e-05,-2.62027e-05,9.76011e-06,5.04235e-06,0
-2.6701e-05,4.96113e-05,-1.33967e-05,1.1439e-05,-2.98962e-05,-2.65977e-05,1.03312e-05,4.60772e-06,0
-6.50108e-05,5.0088e-05,-1.01389e-05,1.70948e-05,-3.16503e-05,-2.58131e-05,9.9795e-06,3.58794e-06,0
-9.62717e-05,4.8661e-05,-1.02423e-05,2.07181e-05,-2.8881e-05,-2.48329e-05,4.51914e-06,3.12586e-06,0
-0.000112543,4.9899e-05,-9.6326e-06,1.85029e-05,-2.18287e-05,-2.48851e-05,-8.83957e-06,4.04701e-06,0
-0.000116087,5.34372e-05,-6.56216e-06,1.11531e-05,-1.22442e-05,-2.41759e-05,-2.28155e-05,4.15642e-06,0
-0.000113636,5.69465e-05,-2.01018e-06,1.46166e-06,-2.33168e-06,-2.20392e-05,-2.75621e-05,3.22039e-06,0
-0.00010836,6.15031e-05,2.83206e-06,-9.63515e-06,3.87528e-06,-2.00508e-05,-2.16579e-05,2.09339e-06,0
-9.87923e-05,6.97407e-05,5.21115e-06,-2.22375e-05,6.23895e-06,-1.91534e-05,-1.02279e-05,2.35386e-06,0
-8.13541e-05,8.19735e-05,3.11783e-06,-3.50891e-05,1.22206e-05,-1.88254e-05,3.98702e-06,3.80036e-06,0
-4.83445e-05,8.8981e-05,-1.37688e-06,-4.62642e-05,2.50116e-05,-2.01624e-05,2.02006e-05,5.62358e-06,0
4.24051e-06,9.66116e-05,-3.44638e-06,-5.15638e-05,3.43053e-05,-2.29012e-05,3.5754e-05,5.78498e-06,0
6.20388e-05,0.000121169,-9.00819e-07,-4.76875e-05,3.18078e-05,-2.39968e-05,4.74614e-05,4.78523e-06,0
9.66959e-05,0.0001705,3.10183e-06,-3.92402e-05,2.55305e-05,-2.12374e-05,5.33214e-05,4.57083e-06,0
9.65429e-05,0.000218301,3.99787e-06,-3.19582e-05,2.41549e-05,-1.61129e-05,5.49712e-05,6.0345e-06,0
7.52651e-05,0.00023933,1.17882e-06,-2.79538e-05,1.91384e-05,-1.1117e-05,5.50209e-05,6.91462e-06,0
5.24396e-05,0.00023865,-1.67689e-06,-2.65724e-05,7.83054e-06,-7.18201e-06,5.30218e-05,5.46634e-06,0
3.07155e-05,0.000231789,-3.49396e-06,-2.53996e-05,5.91559e-06,-4.70256e-06,4.81699e-05,2.85517e-06,0
6.70089e-06,0.000200839,-3.27858e-06,-2.04267e-05,1.97818e-05,-4.75671e-06,4.20294e-05,1.1424e-06,0
-2.34044e-05,0.000101677,-2.22786e-06,-5.56022e-06,3.52762e-05,-8.63064e-06,3.54838e-05,2.33641e-07,0
-5.69771e-05,-5.53385e-05,-2.73844e-06,2.23354e-05,4.81995e-05,-1.6697e-05,2.96951e-05,-4.85107e-07,0
-7.54803e-05,-0.000134436,-3.76768e-06,4.93174e-05,5.7319e-05,-2.46868e-05,2.40255e-05,-3.11197e-06,0
-6.3001e-05,-4.08059e-05,-3.14474e-06,5.06159e-05,4.5523e-05,-2.80802e-05,1.38252e-05,-5.87072e-06,0
-3.24117e-05,0.000155425,-8.87327e-07,3.04731e-05,2.43876e-05,-2.89824e-05,9.30359e-07,-4.15894e-06,0
-6.89437e-06,0.000355873,6.0863e-07,1.33183e-05,2.81839e-05,-2.72163e-05,-7.62607e-06,1.2653e-06,0
5.88937e-06,0.000506013,4.09262e-07,5.5024e-06,6.1771e-05,-2.20434e-05,-1.01672e-05,8.64284e-06,0
1.13671e-05,0.000583735,-1.26077e-06,1.73222e-06,9.49719e-05,-1.48728e-05,-7.90326e-06,1.3179e-05,0
1.51625e-05,0.000582279,-3.12066e-06,-4.96882e-06,0.000102712,-8.15445e-06,-2.73746e-06,1.24554e-05,0
1.54145e-05,0.000482929,-4.55457e-06,-1.16847e-05,9.25616e-05,-5.84645e-06,4.57951e-06,7.63448e-06,0
1.13154e-05,0.000259055,-4.9839e-06,-1.12117e-05,8.03391e-05,-7.71024e-06,1.18803e-05,1.98358e-06,0
2.44471e-06,-4.46403e-05,-4.27614e-06,-4.17717e-06,7.0215e-05,-1.00607e-05,1.69092e-05,-2.92875e-06,0
-6.67378e-06,-0.000272594,-4.37503e-06,3.98376e-06,5.69481e-05,-1.02385e-05,1.90372e-05,-6.4063e-06,0
-9.33189e-06,-0.00031743,-6.59395e-06,6.20682e-06,3.93176e-05,-8.47158e-06,1.85388e-05,-8.61442e-06,0
-4.25907e-06,-0.000265231,-8.94903e-06,-3.08857e-06,2.25264e-05,-7.99449e-06,1.7424e-05,-9.67467e-06,0
8.90235e-07,-0.00027485,-9.12549e-06,-2.06241e-05,1.17359e-05,-1.07843e-05,1.57348e-05,-9.13625e-06,0
9.22597e-07,-0.000365271,-9.37385e-06,-3.58148e-05,5.34151e-06,-1.48498e-05,1.35557e-05,-7.84889e-06,0
-3.52256e-06,-0.000422708,-1.15996e-05,-4.22796e-05,-4.54769e-07,-1.69261e-05,1.25814e-05,-7.23785e-06,0
-1.2779e-05,-0.000382824,-1.43187e-05,-3.94642e-05,-3.67258e-06,-1.60818e-05,1.27646e-05,-7.52773e-06,0
-2.63787e-05,-0.000307976,-1.60803e-05,-3.25952e-05,-2.94307e-06,-1.36775e-05,1.32601e-05,-5.28131e-06,0
-3.97363e-05,-0.000276948,-1.59463e-05,-2.914e-05,-3.72589e-06,-1.18266e-05,1.34334e-05,-4.91969e-07,0
-4.99525e-05,-0.000262345,-1.3185e-05,-3.14637e-05,-9.96228e-06,-1.13741e-05,1.2441e-05,2.69733e-06,0
-5.97166e-05,-0.000218029,-8.85659e-06,-3.29884e-05,-1.77681e-05,-1.1365e-05,1.177e-05,2.25463e-06,0
-6.98365e-05,-0.000171773,-4.89121e-06,-2.98973e-05,-2.32596e-05,-1.17204e-05,1.22052e-05,1.05264e-06,0
-7.81055e-05,-0.000139739,-2.73994e-06,-2.5504e-05,-2.56114e-05,-1.17432e-05,1.17246e-05,1.48827e-06,0
-8.03771e-05,-0.000110109,-2.22339e-06,-2.29776e-05,-2.55471e-05,-1.02739e-05,1.05773e-05,2.2629e-06,0
-7.6598e-05,-9.33434e-05,-4.19561e-06,-2.12666e-05,-2.13967e-05,-6.97868e-06,1.06214e-05,1.49592e-06,0
-6.77536e-05,-8.76314e-05,-8.39958e-06,-1.67278e-05,-1.32021e-05,-3.73552e-06,1.29239e-05,2.97831e-07,0
-5.74155e-05,-7.56963e-05,-1.12278e-05,-8.04347e-06,-5.98942e-06,-1.86658e-06,2.02158e-05,3.64524e-07,0
-4.93126e-05,-5.34935e-05,-1.16972e-05,1.83176e-07,-2.43852e-06,1.20336e-06,3.0952e-05,2.52355e-06,0
-4.31279e-05,-3.31917e-05,-9.91466e-06,1.88938e-06,-1.71459e-06,4.82622e-06,3.55838e-05,3.38671e-06,0
-3.59449e-05,-1.20868e-05,-7.33238e-06,-8.30498e-07,-1.07315e-06,7.40384e-06,3.06134e-05,1.75221e-06,0
-1.9757e-05,2.48318e-05,-5.26202e-06,-3.70066e-06,3.56562e-06,7.83808e-06,2.23718e-05,1.0738e-06,0
1.15422e-06,6.864e-05,-4.0686e-06,-7.84141e-06,7.40929e-06,7.59933e-06,1.33029e-05,1.59105e-06,0
1.27e-05,9.92244e-05,-3.28741e-06,-1.09045e-05,6.04827e-06,7.61779e-06,4.14322e-06,7.02614e-07,0
1.09907e-05,0.000102307,-1.57611e-06,-1.11935e-05,3.00016e-06,5.54375e-06,-2.70546e-06,-1.81671e-06,0
-3.8631e-08,8.27818e-05,8.89887e-07,-6.595e-06,1.81609e-06,4.21843e-06,-6.50435e-06,-3.74964e-06,0
-1.37194e-05,6.15471e-05,1.2571e-06,1.7351e-06,2.30063e-06,5.57606e-06,-7.99911e-06,-4.63696e-06,0
-2.22369e-05,5.8109e-05,-1.00383e-06,8.06039e-06,1.85622e-06,7.39356e-06,-7.58023e-06,-4.09322e-06,0
-2.24202e-05,8.8765e-05,-2.18937e-06,1.05123e-05,2.78261e-06,6.10381e-06,-7.94979e-06,-4.05604e-06,0
-2.00083e-05,0.000147679,-7.19059e-07,1.07396e-05,8.49321e-06,4.19104e-06,-1.20618e-05,-4.52041e-06,0
-2.38333e-05,0.000184628,-1.63296e-06,1.16813e-05,1.46417e-05,3.24358e-06,-1.9305e-05,-4.56188e-06,0
-3.4967e-05,0.000159695,-1.19494e-05,1.29745e-05,1.49546e-05,2.81861e-06,-3.23945e-05,-3.78358e-06,0
-4.56215e-05,9.3529e-05,-2.81837e-05,1.27411e-05,1.09222e-05,3.29068e-06,-5.14268e-05,-1.73262e-06,0
-5.02391e-05,3.67721e-05,-4.10449e-05,8.70342e-06,7.70331e-06,5.00339e-06,-6.49803e-05,1.3673e-06,0
-5.29614e-05,5.09301e-06,-4.53604e-05,3.88802e-06,8.08418e-06,7.6081e-06,-6.26981e-05,3.07765e-06,0
-5.80895e-05,-2.3974e-05,-4.31864e-05,-1.17372e-06,9.99342e-06,7.21514e-06,-4.72715e-05,2.25497e-06,0
-6.06478e-05,-4.04127e-05,-3.87627e-05,-9.15337e-06,9.89512e-06,3.17659e-06,-2.74597e-05,3.25968e-07,0
-5.66775e-05,1.20225e-05,-3.23909e-05,-2.12287e-05,6.7543e-06,-1.28984e-06,-9.15319e-06,-1.56516e-06,0
-5.11848e-05,0.000138629,-2.19524e-05,-3.57785e-05,1.92925e-06,-4.19161e-06,7.88625e-06,-1.55984e-06,0
-4.83746e-05,0.0002608,-6.93554e-06,-5.03492e-05,-2.25909e-06,-6.58714e-06,2.54642e-05,2.56416e-06,0
-4.45044e-05,0.000313057,1.34506e-05,-5.93701e-05,-4.51333e-06,-5.46406e-06,4.22961e-05,1.59549e-05,0
-3.98514e-05,0.000285395,3.60293e-05,-5.83273e-05,-2.45174e-06,7.68669e-08,5.55395e-05,3.26593e-05,0
-4.11505e-05,0.000193895,5.01643e-05,-4.8793e-05,5.54018e-06,4.45085e-06,6.46813e-05,3.8761e-05,0
-4.99371e-05,5.63064e-05,4.99711e-05,-3.44238e-05,1.73617e-05,4.69787e-06,7.02255e-05,3.41863e-05,0
-5.76999e-05,-8.04842e-05,3.41343e-05,-2.17155e-05,3.1685e-05,3.80197e-06,7.17598e-05,2.59411e-05,0
-5.07091e-05,-0.000172346,1.74062e-06,-1.15797e-05,4.43309e-05,3.61058e-06,6.98261e-05,1.11346e-05,0
-2.78649e-05,-0.00021092,-3.46377e-05,3.13185e-06,3.80856e-05,1.51365e-06,6.61906e-05,-1.22427e-05,0
4.51602e-06,-0.000180692,-6.39092e-05,3.30377e-05,1.37024e-05,-5.40773e-06,6.21558e-05,-3.58275e-05,0
3.7796e-05,-0.000108499,-7.81613e-05,7.43026e-05,-3.54278e-07,-1.04293e-05,5.76336e-05,-4.87307e-05,0
5.72382e-05,-5.27915e-05,-6.92749e-05,0.000103552,6.81976e-06,-9.45305e-06,5.28665e-05,-4.6857e-05,0
5.29764e-05,-3.46572e-05,-5.03293e-05,0.000106809,2.42188e-05,-7.63521e-06,4.79036e-05,-3.87715e-05,0
2.28862e-05,-3.64123e-05,-3.22095e-05,8.91576e-05,4.66905e-05,-9.83961e-06,4.28567e-05,-3.14364e-05,0
-2.18034e-05,-2.64646e-05,-2.07273e-05,6.17282e-05,7.99773e-05,-1.49984e-05,3.78935e-05,-2.39909e-05,0
-6.42298e-05,-1.31796e-05,-1.72521e-05,4.15584e-05,0.000108554,-1.89611e-05,3.19651e-05,-1.53906e-05,0
-9.59525e-05,-2.96124e-05,-1.72993e-05,3.6788e-05,0.000104015,-2.17977e-05,2.52847e-05,-8.2373e-06,0
-0.000113958,-6.63065e-05,-1.57918e-05,4.04286e-05,6.30644e-05,-2.25513e-05,1.92725e-05,-4.7239e-06,0
-0.000114186,-8.17353e-05,-9.72372e-06,4.2656e-05,1.65218e-05,-2.12873e-05,1.56923e-05,-3.34922e-06,0
-9.58426e-05,-4.67469e-05,-7.13199e-07,3.6191e-05,-8.85646e-06,-1.91033e-05,1.4915e-05,-2.25938e-06,0
-6.73748e-05,3.01497e-05,8.36716e-06,2.07816e-05,-1.65166e-05,-1.79357e-05,1.51196e-05,-3.60289e-07,0
-3.97946e-05,0.000118941,1.27217e-05,1.85213e-08,-1.80114e-05,-1.76198e-05,1.33805e-05,2.63876e-06,0
-2.18163e-05,0.000184823,1.28718e-05,-2.17713e-05,-1.78623e-05,-1.76209e-05,9.65054e-06,7.59699e-06,0
-1.60318e-05,0.000200519,1.21617e-05,-3.86644e-05,-1.42338e-05,-1.62972e-05,7.68396e-06,1.60898e-05,0
-1.93874e-05,0.000168406,1.32499e-05,-4.34465e-05,-7.33583e-06,-1.25669e-05,9.02632e-06,2.66699e-05,0
-2.68934e-05,0.000119563,1.42966e-05,-3.65473e-05,2.99742e-06,-9.57912e-06,1.17254e-05,3.21045e-05,0
-3.46751e-05,0.000102568,1.44348e-05,-2.61965e-05,1.33823e-05,-9.08501e-06,1.41042e-05,2.80693e-05,0
-3.80775e-05,0.00014024,1.47548e-05,-1.88893e-05,1.85823e-05,-8.59422e-06,1.45315e-05,1.83207e-05,0
-2.9411e-05,0.000190589,1.55822e-05,-1.61306e-05,1.71198e-05,-6.9445e-06,1.20523e-05,9.14595e-06,0
-8.21112e-06,0.000176008,1.4315e-05,-1.70483e-05,1.4266e-05,-5.89693e-06,8.49399e-06,2.98783e-06,0
1.20195e-05,6.62801e-05,9.76307e-06,-2.17351e-05,1.17524e-05,-5.34107e-06,5.30028e-06,2.43996e-07,0
2.15153e-05,-6.04986e-05,4.63357e-06,-2.83434e-05,6.63631e-06,-2.95904e-06,4.45106e-06,-6.04312e-07,0
2.06135e-05,-0.000108877,1.8079e-06,-2.98576e-05,-2.06413e-06,3.7579e-07,6.09733e-06,-1.33209e-06,0
1.48571e-05,-9.33613e-05,-2.28048e-06,-2.24538e-05,-9.74805e-06,1.20517e-06,1.1652e-05,-3.13564e-06,0
4.10749e-06,-4.19181e-05,-1.14137e-05,-1.3019e-05,-8.98818e-06,5.59999e-08,2.26362e-05,-4.92795e-06,0
-2.0143e-05,3.10787e-05,-2.27408e-05,-1.16334e-05,-9.1312e-07,-2.05634e-06,3.0893e-05,-5.6161e-06,0
-5.16882e-05,9.26146e-05,-3.30486e-05,-1.57806e-05,3.82717e-06,-3.52201e-06,2.84893e-05,-5.78371e-06,0
-8.36262e-05,0.00015756,-3.64351e-05,-1.74949e-05,-5.82592e-07,-6.40209e-06,1.77517e-05,-4.40717e-06,0
-0.000103002,0.00023279,-3.21178e-05,-1.87847e-05,-4.40392e-06,-9.16666e-06,5.54775e-06,-3.81133e-06,0
-9.66727e-05,0.000254977,-2.81597e-05,-2.05676e-05,-1.7501e-06,-8.07285e-06,-3.51116e-06,-4.01811e-06,0
-7.54073e-05,0.000162578,-2.67029e-05,-2.24055e-05,2.1666e-06,-7.89315e-06,-1.07709e-05,-4.87162e-06,0
-5.64703e-05,-1.86254e-05,-2.79018e-05,-2.09494e-05,5.0926e-06,-1.00674e-05,-1.72281e-05,-3.84421e-06,0
-4.9755e-05,-0.000195142,-3.6962e-05,-1.7352e-05,5.15232e-06,-1.20217e-05,-2.36708e-05,4.27026e-07,0
-4.25181e-05,-0.00028428,-5.11445e-05,-1.91814e-05,1.85855e-06,-1.22414e-05,-2.81173e-05,5.25842e-06,0
-1.89366e-05,-0.000273326,-5.96657e-05,-2.46267e-05,-1.95129e-06,-1.21341e-05,-2.80018e-05,7.75679e-06,0
8.83121e-06,-0.000198873,-5.8927e-05,-2.79773e-05,-4.3873e-06,-1.38441e-05,-2.55165e-05,8.37452e-06,0
2.35053e-05,-0.000100378,-5.15566e-05,-2.70642e-05,-5.62406e-06,-1.61839e-05,-2.11721e-05,1.00561e-05,0
2.55581e-05,-1.7969e-05,-3.86023e-05,-2.21806e-05,-4.55143e-06,-1.63006e-05,-1.69253e-05,1.1086e-05,0
1.78076e-05,2.82432e-05,-2.44746e-05,-1.39784e-05,4.12883e-06,-1.29248e-05,-1.51386e-05,1.08986e-05,0
2.2947e-07,6.15513e-05,-1.51728e-05,-5.28026e-06,2.16723e-05,-1.03867e-05,-1.54234e-05,1.0046e-05,0
-2.39722e-05,9.99257e-05,-1.16892e-05,1.64992e-06,3.81547e-05,-1.32181e-05,-1.41815e-05,9.81324e-06,0
-4.48283e-05,0.000125669,-8.63615e-06,7.19508e-06,3.99729e-05,-1.77298e-05,-9.8289e-06,9.62858e-06,0
-5.22582e-05,0.000133156,-3.10048e-06,1.09607e-05,2.8994e-05,-1.85964e-05,-3.91358e-06,8.0801e-06,0
-4.89891e-05,0.000129323,1.01823e-06,1.25532e-05,1.57129e-05,-1.89324e-05,1.02455e-06,4.71515e-06,0
-4.71366e-05,0.000125802,-2.47362e-07,2.04235e-05,6.63847e-06,-2.18438e-05,3.64131e-06,2.59674e-06,0
-4.88533e-05,0.000150267,-2.94739e-06,3.78308e-05,2.86006e-06,-2.34727e-05,4.15024e-06,4.13502e-06,0
-4.62832e-05,0.000201303,-2.36817e-06,5.03007e-05,4.59248e-06,-2.12352e-05,2.14518e-06,6.48863e-06,0
-4.0359e-05,0.00027272,3.20256e-06,4.77042e-05,1.172e-05,-1.62229e-05,-1.58151e-06,7.12185e-06,0
-3.7212e-05,0.000311026,1.26065e-05,3.59866e-05,2.11469e-05,-1.07743e-05,-4.76687e-06,7.16311e-06,0
-3.72684e-05,0.000181369,2.14406e-05,2.63934e-05,2.77075e-05,-8.12596e-06,-7.12511e-06,7.26845e-06,0
-3.29498e-05,-0.000118137,2.89764e-05,2.71865e-05,2.88854e-05,-6.66533e-06,-7.59815e-06,5.24214e-06,0
-2.12084e-05,-0.000475666,3.60404e-05,2.51534e-05,2.71947e-05,-2.4584e-06,-3.38799e-06,2.38344e-06,0
-1.27455e-05,-0.000672122,3.91813e-05,5.25009e-06,2.52994e-05,-3.75011e-08,5.37994e-06,1.22432e-06,0
-1.45357e-05,-0.000570326,3.3276e-05,-2.30584e-05,2.09345e-05,-4.25054e-06,1.45738e-05,2.18837e-06,0
-1.9093e-05,-0.000348937,2.03987e-05,-4.6946e-05,1.53877e-05,-9.90418e-06,1.89418e-05,3.28664e-06,0
-1.88598e-05,-0.000177076,3.19859e-06,-5.44568e-05,1.554e-05,-1.2508e-05,1.31045e-05,2.16402e-06,0
-1.38283e-05,-9.7396e-05,-1.70748e-05,-4.80007e-05,2.20577e-05,-1.16297e-05,-2.72875e-06,-1.41748e-07,0
-4.64372e-06,-7.06412e-05,-3.58212e-05,-4.00815e-05,2.97557e-05,-1.00642e-05,-1.74471e-05,-2.31647e-06,0
1.44438e-06,-6.79881e-05,-4.80084e-05,-3.57282e-05,3.25546e-05,-1.20149e-05,-2.38258e-05,-3.41649e-06,0
-2.45778e-06,-5.54893e-05,-5.03475e-05,-3.10837e-05,2.71564e-05,-1.7539e-05,-2.07477e-05,-2.71137e-06,0
-1.02231e-05,-1.97516e-05,-4.36899e-05,-2.27619e-05,1.33947e-05,-2.49107e-05,-1.09359e-05,-9.67803e-07,0
-1.99177e-05,1.67072e-05,-3.23216e-05,-1.59419e-05,-5.24456e-06,-3.01965e-05,2.95587e-06,9.2043e-07,0
-3.44561e-05,5.33392e-05,-2.09579e-05,-1.45201e-05,-2.09215e-05,-3.14926e-05,1.97129e-05,1.99705e-06,0
-5.54071e-05,9.4954e-05,-1.00157e-05,-1.85594e-05,-2.50081e-05,-3.02836e-05,3.68315e-05,2.59086e-06,0
-8.36206e-05,0.000142025,-1.63084e-06,-2.62623e-05,-1.61892e-05,-2.86651e-05,5.14534e-05,3.33979e-06,0
-0.000112367,0.000155964,-9.34317e-07,-3.53676e-05,-6.49686e-06,-2.53517e-05,6.02568e-05,4.15247e-06,0
-0.000126349,0.000124184,-4.80743e-06,-3.93534e-05,-1.41471e-05,-1.91637e-05,6.19882e-05,4.12147e-06,0
-0.00011588,7.49767e-05,-4.55262e-06,-3.38478e-05,-3.51123e-05,-1.36569e-05,5.88927e-05,3.88215e-06,0
-8.35715e-05,4.34018e-05,3.06371e-06,-2.28118e-05,-4.19677e-05,-1.10737e-05,5.42223e-05,4.76235e-06,0
-3.11663e-05,9.67669e-06,1.23507e-05,-1.39928e-05,-2.04341e-05,-9.37326e-06,4.80495e-05,6.20814e-06,0
3.43067e-05,-3.17957e-05,1.72747e-05,-8.49114e-06,1.72063e-05,-7.51636e-06,4.13219e-05,6.55959e-06,0
8.26144e-05,-5.49644e-05,1.58198e-05,-4.99697e-06,5.51375e-05,-7.16721e-06,3.64838e-05,6.24084e-06,0
8.96993e-05,-4.0092e-05,9.84865e-06,-4.62483e-06,8.23781e-05,-7.94598e-06,3.42469e-05,5.92074e-06,0
6.27007e-05,7.80725e-06,3.04573e-06,-7.10939e-06,9.00648e-05,-9.35682e-06,3.20796e-05,5.66311e-06,0
1.86189e-05,6.41551e-05,-5.43538e-06,-1.10563e-05,8.28695e-05,-1.06832e-05,2.88944e-05,5.72172e-06,0
-2.79998e-05,9.78207e-05,-1.56647e-05,-1.3453e-05,7.08674e-05,-1.01726e-05,2.59271e-05,5.33703e-06,0
-6.81835e-05,0.000122702,-1.92166e-05,-1.29935e-05,5.49483e-05,-1.02228e-05,2.55721e-05,3.46101e-06,0
-9.51489e-05,0.000183784,-1.20806e-05,-1.13762e-05,3.57509e-05,-1.15932e-05,2.71078e-05,-1.46415e-09,0
-0.000112462,0.000319592,-4.36439e-06,-1.48327e-05,2.00904e-05,-1.28093e-05,2.57586e-05,-1.99114e-07,0
-0.000121546,0.000480097,-3.09141e-06,-1.70564e-05,1.29183e-05,-1.35741e-05,2.18546e-05,2.8311e-06,0
-0.000113106,0.000550367,-3.30295e-06,-7.22528e-06,1.04914e-05,-1.26779e-05,1.84986e-05,4.25524e-06,0
-8.69851e-05,0.000461849,-1.88038e-06,5.06573e-06,1.0631e-05,-1.14713e-05,1.68014e-05,4.72917e-06,0
-5.45362e-05,0.000270889,3.37337e-06,1.09221e-05,1.43523e-05,-8.26482e-06,1.47505e-05,4.92406e-06,0
-3.64687e-05,8.77949e-05,8.30533e-06,1.47976e-05,1.77971e-05,-4.70043e-06,1.14448e-05,5.49113e-06,0
-4.32237e-05,-0.000110061,3.52823e-06,1.854e-05,1.28711e-05,-5.29852e-06,1.00566e-05,6.95287e-06,0
-6.26656e-05,-0.000311383,-8.22638e-06,1.58316e-05,3.47705e-07,-9.65274e-06,9.83177e-06,6.79725e-06,0
-7.14815e-05,-0.000433747,-1.90178e-05,6.51393e-06,-8.48627e-06,-1.30185e-05,9.11839e-06,6.20171e-06,0
-5.56258e-05,-0.000386476,-2.12256e-05,-4.18685e-06,-1.2185e-05,-1.32588e-05,8.80595e-06,6.17551e-06,0
-2.16639e-05,-0.000221304,-1.38561e-05,-1.24385e-05,-1.2667e-05,-1.2167e-05,9.76757e-06,5.13163e-06,0
6.90892e-06,-0.000103515,-4.76928e-06,-1.93512e-05,-1.13411e-05,-1.14351e-05,1.1018e-05,3.06531e-06,0
1.05695e-05,-0.000106569,-1.02873e-06,-2.60871e-05,-8.12019e-06,-1.194e-05,1.177e-05,-1.23767e-06,0
-3.15239e-06,-0.000210933,-2.33075e-06,-2.8911e-05,-3.53414e-06,-1.13557e-05,1.1779e-05,-6.45003e-06,0
-9.69629e-06,-0.00033798,-5.88864e-06,-2.81254e-05,9.20819e-07,-8.06677e-06,1.04815e-05,-8.20814e-06,0
6.79815e-06,-0.000378799,-8.89534e-06,-2.79648e-05,4.18715e-06,-3.46347e-06,1.03972e-05,-6.91975e-06,0
4.00823e-05,-0.000270977,-8.87381e-06,-3.01937e-05,4.076e-06,-2.27876e-06,1.24705e-05,-6.41445e-06,0
7.63737e-05,-8.48105e-05,-5.54263e-06,-3.04024e-05,2.29574e-06,-5.125e-06,1.43374e-05,-6.45906e-06,0
0.000108013,5.18283e-05,-4.10515e-07,-2.53633e-05,2.34986e-06,-7.9185e-06,1.48825e-05,-4.72587e-06,0
0.000122836,8.29088e-05,4.89092e-06,-1.2916e-05,5.68151e-06,-6.57432e-06,1.55689e-05,-1.70393e-06,0
0.000106047,5.8731e-05,8.66092e-06,6.29366e-06,7.80947e-06,-2.6008e-06,1.56539e-05,5.15569e-07,0
5.59147e-05,3.40725e-05,8.1179e-06,2.84464e-05,5.82438e-06,-9.08265e-07,1.47956e-05,1.09508e-06,0
-1.5451e-05,2.32286e-05,5.44707e-06,4.82311e-05,1.11026e-06,-3.82915e-06,1.40631e-05,1.51138e-06,0
-8.27018e-05,2.32385e-05,5.10452e-06,5.87884e-05,-2.98e-06,-9.17508e-06,1.4281e-05,2.71337e-06,0
-0.000123948,4.20413e-05,6.16493e-06,5.77864e-05,-5.35107e-06,-1.4281e-05,1.52235e-05,2.73941e-06,0
-0.000142629,8.98869e-05,6.74319e-06,4.85044e-05,-5.73239e-06,-1.7612e-05,1.5276e-05,5.08005e-07,0
-0.000151215,0.000169267,7.28655e-06,3.22801e-05,-4.05165e-06,-1.91238e-05,1.46766e-05,-1.4428e-06,0
-0.000146011,0.000224487,7.57908e-06,1.05006e-05,1.49084e-06,-1.95835e-05,1.42706e-05,-7.46736e-07,0
-0.000118374,0.000185612,7.69486e-06,-3.77698e-06,1.01797e-05,-1.55651e-05,1.479e-05,-1.09816e-06,0
-8.38525e-05,6.66759e-05,6.69726e-06,-6.47422e-06,1.93894e-05,-1.04654e-05,1.41478e-05,-2.81272e-06,0
-6.30319e-05,-9.80125e-05,5.51454e-06,-9.44391e-06,3.03776e-05,-7.72254e-06,1.51231e-05,-2.06794e-06,0
-5.48578e-05,-0.000254652,2.66787e-06,-1.36747e-05,3.82742e-05,-6.01494e-06,1.98508e-05,-4.89276e-07,0
-5.09407e-05,-0.000311072,-1.06095e-06,-1.30743e-05,4.09518e-05,-7.70499e-06,2.28348e-05,1.13793e-07,0
-4.42362e-05,-0.000220112,-3.47843e-06,-4.52104e-06,4.56566e-05,-1.14224e-05,2.34553e-05,-1.46197e-06,0
-3.64489e-05,-4.50659e-05,-4.70674e-06,8.21391e-06,5.73729e-05,-1.36075e-05,2.13565e-05,-2.39324e-06,0
-3.61268e-05,9.84538e-05,-5.97332e-06,1.99313e-05,6.25523e-05,-1.419e-05,1.69919e-05,-4.36945e-07,0
-4.24624e-05,0.000157829,-8.30039e-06,2.72304e-05,5.31158e-05,-1.54758e-05,1.35468e-05,2.28862e-06,0
-4.65486e-05,0.000160459,-9.80719e-06,2.833e-05,4.2774e-05,-1.71047e-05,1.30973e-05,3.56722e-06,0
-4.22171e-05,0.000141739,-1.08635e-05,2.37752e-05,3.91462e-05,-1.74584e-05,1.3475e-05,3.42059e-06,0
-3.2817e-05,0.000116214,-1.04569e-05,1.50187e-05,3.58801e-05,-1.70533e-05,1.27598e-05,3.66822e-06,0
-2.55541e-05,9.48046e-05,-7.46415e-06,5.84558e-06,2.61257e-05,-1.72198e-05,1.18696e-05,4.10018e-06,0
-2.18963e-05,8.98742e-05,-3.39164e-06,-2.97347e-07,1.36674e-05,-1.82953e-05,1.06267e-05,4.05753e-06,0
-1.89807e-05,0.000103205,-2.27194e-06,-2.93678e-06,2.25443e-06,-1.97299e-05,9.79784e-06,3.45222e-06,0
-1.55281e-05,0.000127922,-5.26421e-06,-4.25836e-06,-6.94298e-06,-2.00934e-05,9.84779e-06,1.65614e-06,0
