ch1,ch2,ch3,ch4,ch5,ch6,ch7,ch8,class
-2.91434e-05,9.07208e-06,-5.32125e-06,4.36632e-06,3.06259e-05,-1.22647e-05,9.60195e-06,2.95604e-06,0
-2.96227e-05,4.87115e-06,-4.45229e-06,-1.97364e-06,3.14739e-05,-9.85872e-06,1.04045e-05,4.49629e-06,0
-3.09651e-05,2.42302e-06,-3.24171e-06,-6.08295e-06,3.04396e-05,-7.51053e-06,8.3234e-06,7.20378e-06,0
-3.12345e-05,6.62685e-06,-1.72923e-06,-4.51483e-06,2.86869e-05,-7.4665e-06,7.31993e-06,7.105e-06,0
-3.01751e-05,1.59814e-05,-8.10929e-08,-6.59287e-07,2.87665e-05,-8.39096e-06,8.28161e-06,4.76788e-06,0
-2.89038e-05,2.33091e-05,-6.14894e-07,1.56846e-06,2.92155e-05,-8.83233e-06,8.8423e-06,3.34208e-06,0
-2.81518e-05,2.79077e-05,-3.63813e-06,2.69347e-08,2.64782e-05,-8.99436e-06,8.70542e-06,3.09618e-06,0
-2.75211e-05,3.27962e-05,-5.33692e-06,-1.11918e-06,2.31298e-05,-1.03501e-05,8.81488e-06,3.03969e-06,0
-2.70003e-05,3.62073e-05,-4.76681e-06,6.43821e-07,2.14198e-05,-1.2138e-05,1.01295e-05,2.82437e-06,0
-2.68823e-05,3.66311e-05,-3.45525e-06,4.18638e-06,2.06509e-05,-1.18613e-05,1.21008e-05,3.63745e-06,0
-2.68298e-05,3.49918e-05,-1.86173e-06,7.79088e-06,2.09082e-05,-1.04761e-05,1.28642e-05,4.93628e-06,0
-2.70108e-05,3.27579e-05,-1.50165e-06,1.02226e-05,2.16665e-05,-9.02928e-06,1.2017e-05,4.69055e-06,0
-2.69213e-05,2.54773e-05,-3.09547e-06,1.08387e-05,2.15643e-05,-7.78041e-06,1.09147e-05,2.43299e-06,0
-2.60647e-05,1.11544e-05,-5.15118e-06,9.86876e-06,2.14672e-05,-6.06283e-06,1.09675e-05,1.00914e-06,0
-2.45439e-05,-4.09215e-06,-5.76568e-06,8.2923e-06,2.26874e-05,-3.91724e-06,1.17387e-05,2.5337e-06,0
-2.34428e-05,-1.40974e-05,-5.6115e-06,5.36221e-06,2.26846e-05,-2.36117e-06,1.17297e-05,5.68581e-06,0
-2.37615e-05,-1.93883e-05,-6.28047e-06,-1.35814e-06,2.03564e-05,-2.03497e-06,1.09866e-05,7.46613e-06,0
-2.52646e-05,-2.05764e-05,-8.67034e-06,-1.07395e-05,1.73732e-05,-2.72353e-06,1.08055e-05,7.11862e-06,0
-2.70859e-05,-1.66186e-05,-1.11944e-05,-1.79848e-05,1.58785e-05,-4.0914e-06,1.16498e-05,6.22614e-06,0
-2.76678e-05,-9.71037e-06,-1.15557e-05,-2.10732e-05,1.57686e-05,-5.41406e-06,1.26685e-05,7.43437e-06,0
-2.77582e-05,-2.93169e-06,-1.01314e-05,-1.88085e-05,1.48909e-05,-5.6775e-06,1.32371e-05,1.0158e-05,0
-2.79976e-05,1.26679e-06,-9.18354e-06,-1.51137e-05,1.08612e-05,-5.64819e-06,1.37506e-05,1.09153e-05,0
-2.84172e-05,3.1955e-06,-8.9401e-06,-1.46664e-05,5.26362e-06,-4.77298e-06,1.51471e-05,8.94932e-06,0
-2.90729e-05,4.37433e-06,-8.56286e-06,-9.36124e-06,1.12814e-06,-1.81852e-06,1.71601e-05,5.27864e-06,0
-3.02662e-05,7.39339e-06,-7.73734e-06,3.5119e-06,-1.31122e-06,-1.80035e-06,1.73979e-05,2.07487e-06,0
-3.1793e-05,9.60127e-06,-6.74895e-06,1.2548e-05,-4.30001e-06,-3.80897e-06,1.52222e-05,1.53018e-06,0
-3.24605e-05,9.10645e-06,-7.34573e-06,1.22612e-05,-6.84901e-06,-3.84073e-06,1.43784e-05,2.68742e-06,0
-3.18385e-05,7.35769e-06,-8.26863e-06,4.11754e-06,-7.17376e-06,-4.36168e-06,1.62438e-05,2.41819e-06,0
-3.16972e-05,5.30031e-06,-8.98056e-06,-6.01559e-06,-4.32276e-06,-5.29412e-06,1.71723e-05,9.00201e-07,0
-3.19745e-05,5.9465e-06,-1.02023e-05,-1.22572e-05,1.74816e-06,-5.14246e-06,1.63833e-05,-1.79587e-06,0
-3.14212e-05,8.61667e-06,-1.10527e-05,-1.55293e-05,6.10057e-06,-4.77207e-06,1.60626e-05,-4.36368e-06,0
-3.05796e-05,1.12014e-05,-1.17608e-05,-1.68634e-05,9.52641e-06,-5.34486e-06,1.69786e-05,-3.82198e-06,0
-2.99995e-05,1.2331e-05,-1.20333e-05,-1.82466e-05,1.35805e-05,-5.52836e-06,1.68113e-05,-1.28075e-06,0
-2.83149e-05,1.25876e-05,-1.07824e-05,-2.34647e-05,1.57183e-05,-5.5422e-06,1.63019e-05,3.65063e-07,0
-2.64229e-05,1.29451e-05,-9.42844e-06,-3.05496e-05,1.69459e-05,-5.54199e-06,1.65876e-05,-3.19387e-07,0
-2.63702e-05,1.40663e-05,-9.56434e-06,-3.45229e-05,1.9973e-05,-5.69316e-06,1.68317e-05,-6.88118e-07,0
-2.69865e-05,1.59598e-05,-9.9193e-06,-3.24059e-05,2.37384e-05,-6.346e-06,1.71416e-05,6.05161e-08,0
-2.77814e-05,1.85743e-05,-9.73706e-06,-2.48902e-05,2.73295e-05,-6.86464e-06,1.73945e-05,-7.97443e-08,0
-2.93502e-05,2.28753e-05,-1.01921e-05,-1.55337e-05,3.03322e-05,-6.44059e-06,1.74564e-05,-8.71244e-07,0
-3.04565e-05,2.73071e-05,-1.08862e-05,-8.8049e-06,3.17868e-05,-5.53321e-06,1.71667e-05,-1.27838e-06,0
-2.94138e-05,2.97155e-05,-1.06506e-05,-6.01936e-06,3.13268e-05,-5.49665e-06,1.79639e-05,-2.18319e-06,0
-2.78994e-05,3.03216e-05,-9.7946e-06,-3.70814e-06,3.06043e-05,-6.3398e-06,2.01074e-05,-3.37053e-06,0
-2.77057e-05,3.07956e-05,-8.51037e-06,9.58489e-07,3.15897e-05,-7.01203e-06,2.31807e-05,-3.40579e-06,0
-2.88606e-05,3.17437e-05,-6.36551e-06,7.38276e-06,3.36388e-05,-6.61308e-06,2.5791e-05,-2.84425e-06,0
-2.93364e-05,3.25222e-05,-4.28586e-06,1.16286e-05,3.49046e-05,-6.74169e-06,2.58154e-05,-2.01938e-06,0
-2.79394e-05,3.25327e-05,-3.94352e-06,1.22647e-05,3.28189e-05,-7.73581e-06,2.28233e-05,-1.23607e-06,0
-2.67952e-05,3.17617e-05,-4.01985e-06,1.13257e-05,2.83557e-05,-8.28329e-06,1.87589e-05,-1.19962e-06,0
-2.83551e-05,2.9255e-05,-3.53501e-06,1.00307e-05,2.40958e-05,-8.71334e-06,1.27854e-05,-1.65826e-06,0
-3.1367e-05,2.73038e-05,-3.60499e-06,7.888e-06,1.99774e-05,-1.04153e-05,8.02147e-07,-1.69474e-06,0
-3.37816e-05,2.50367e-05,-4.51504e-06,5.01148e-06,1.60624e-05,-1.40418e-05,-1.3246e-05,-1.79713e-06,0
-3.47528e-05,2.18516e-05,-6.33039e-06,1.47584e-06,1.31707e-05,-1.77266e-05,-2.11982e-05,-3.51954e-06,0
-3.52841e-05,1.84852e-05,-7.1328e-06,-2.92027e-06,1.1084e-05,-1.8424e-05,-2.16002e-05,-5.22673e-06,0
-3.44697e-05,1.66174e-05,-5.79794e-06,-5.42412e-06,1.07708e-05,-1.77971e-05,-1.59313e-05,-4.13674e-06,0
-3.25414e-05,1.73346e-05,-4.75402e-06,-6.31018e-06,1.21586e-05,-1.89444e-05,-7.64638e-06,-3.05077e-06,0
-3.17864e-05,1.91684e-05,-6.2945e-06,-8.36251e-06,1.36173e-05,-2.04513e-05,1.50771e-06,-2.93936e-06,0
-2.94898e-05,2.21757e-05,-8.39528e-06,-9.06716e-06,1.44818e-05,-2.04239e-05,1.0397e-05,-2.21964e-06,0
-2.70338e-05,2.22275e-05,-7.72558e-06,-9.20673e-06,1.36025e-05,-1.8706e-05,1.76891e-05,-1.97289e-06,0
-2.72538e-05,2.00958e-05,-6.02191e-06,-1.1642e-05,1.18946e-05,-1.84317e-05,2.25853e-05,-2.57702e-06,0
-2.92044e-05,1.67787e-05,-4.30445e-06,-1.4109e-05,1.00795e-05,-2.06863e-05,2.39072e-05,-3.29783e-06,0
-3.08921e-05,1.34709e-05,-3.41573e-06,-1.63446e-05,8.14969e-06,-2.11063e-05,2.27299e-05,-4.11102e-06,0
-3.13899e-05,1.15849e-05,-5.43083e-06,-1.72722e-05,7.47083e-06,-1.91263e-05,2.19228e-05,-4.75815e-06,0
-3.12175e-05,1.18175e-05,-7.71855e-06,-1.55034e-05,7.11707e-06,-1.72946e-05,2.18761e-05,-4.75926e-06,0
-3.05532e-05,1.36388e-05,-7.7323e-06,-1.31081e-05,7.19792e-06,-1.73788e-05,2.14286e-05,-5.03694e-06,0
-2.98177e-05,1.53154e-05,-6.36104e-06,-1.13879e-05,8.32982e-06,-1.71891e-05,2.18212e-05,-5.06571e-06,0
-2.92541e-05,1.64706e-05,-5.39836e-06,-1.08705e-05,9.71213e-06,-1.60112e-05,2.22825e-05,-3.78033e-06,0
-2.94106e-05,1.71612e-05,-6.19463e-06,-1.16849e-05,1.06716e-05,-1.50111e-05,2.09775e-05,-2.01587e-06,0
-3.05901e-05,1.85586e-05,-8.74709e-06,-1.22911e-05,1.11188e-05,-1.41438e-05,1.83109e-05,-1.42967e-06,0
-3.17211e-05,1.90304e-05,-1.11893e-05,-1.11005e-05,1.07016e-05,-1.3839e-05,1.74044e-05,-1.64472e-06,0
-3.2799e-05,1.87061e-05,-1.25255e-05,-7.63147e-06,8.82878e-06,-1.32889e-05,1.78091e-05,-8.39395e-07,0
-3.38104e-05,1.84336e-05,-1.33156e-05,-2.88498e-06,6.39901e-06,-1.21561e-05,1.81739e-05,4.32501e-07,0
-3.30605e-05,1.76463e-05,-1.38419e-05,3.08739e-07,4.16359e-06,-1.0578e-05,1.77706e-05,4.81354e-07,0
-3.07607e-05,1.5171e-05,-1.46912e-05,8.3164e-07,2.23702e-06,-9.72501e-06,1.67803e-05,-2.05277e-07,0
-3.01137e-05,1.20014e-05,-1.52172e-05,2.67492e-06,2.35604e-06,-9.95653e-06,1.57128e-05,-1.39021e-06,0
-3.17469e-05,9.63028e-06,-1.42329e-05,7.79813e-06,5.97808e-06,-1.16132e-05,1.43933e-05,-1.80248e-06,0
-3.27118e-05,9.0948e-06,-1.31415e-05,1.34972e-05,9.28354e-06,-1.24065e-05,1.42702e-05,-7.38318e-07,0
-3.25623e-05,8.51936e-06,-1.3335e-05,1.78917e-05,1.03828e-05,-1.12102e-05,1.48079e-05,3.49334e-07,0
-3.08441e-05,6.64696e-06,-1.44206e-05,1.96369e-05,1.11251e-05,-8.7842e-06,1.25335e-05,1.78769e-06,0
-2.82295e-05,5.27629e-06,-1.44514e-05,1.85971e-05,1.22348e-05,-6.15044e-06,9.34204e-06,2.9411e-06,0
-2.77328e-05,6.50663e-06,-1.34385e-05,9.85945e-06,1.61207e-05,-5.53785e-06,8.04878e-06,3.21886e-06,0
-2.86244e-05,7.97507e-06,-1.40728e-05,-9.14681e-06,1.85046e-05,-6.59929e-06,8.68235e-06,4.48573e-06,0
-2.89896e-05,6.26677e-06,-1.56618e-05,-3.07073e-05,1.58014e-05,-8.57106e-06,1.10949e-05,5.61307e-06,0
-2.83212e-05,4.00384e-06,-1.66554e-05,-4.81618e-05,1.25125e-05,-1.08401e-05,1.24767e-05,3.49648e-06,0
-2.76786e-05,2.70087e-06,-1.50546e-05,-5.96933e-05,9.4352e-06,-1.03099e-05,1.28276e-05,1.34206e-06,0
-2.80863e-05,3.62846e-06,-1.29996e-05,-6.18302e-05,6.58867e-06,-7.1379e-06,1.17051e-05,6.79926e-07,0
-2.80964e-05,4.77185e-06,-1.31539e-05,-5.53827e-05,4.17825e-06,-6.01728e-06,1.07208e-05,1.29913e-06,0
-2.75034e-05,4.89956e-06,-1.28333e-05,-4.15582e-05,3.16506e-06,-6.08698e-06,1.142e-05,2.49985e-06,0
-2.74503e-05,5.48401e-06,-1.12146e-05,-2.02286e-05,4.10153e-06,-6.11393e-06,1.22549e-05,1.75436e-06,0
-2.84665e-05,6.87679e-06,-8.68956e-06,2.7324e-06,5.84358e-06,-6.59426e-06,1.1594e-05,-6.70514e-07,0
-2.94914e-05,1.03018e-05,-5.97114e-06,2.26035e-05,6.91213e-06,-7.15642e-06,9.9923e-06,-3.57913e-06,0
-2.9712e-05,1.40068e-05,-3.19122e-06,3.32172e-05,8.26072e-06,-6.81372e-06,8.91613e-06,-4.19659e-06,0
-2.87107e-05,1.65224e-05,-1.61366e-06,3.36358e-05,1.04302e-05,-5.97479e-06,8.38784e-06,-1.79296e-06,0
-2.74021e-05,1.96119e-05,-2.05925e-06,2.60888e-05,1.05497e-05,-5.56844e-06,8.52869e-06,1.77563e-06,0
-2.78322e-05,2.41036e-05,-3.71353e-06,1.51607e-05,7.32572e-06,-5.76846e-06,9.262e-06,4.28801e-06,0
-2.94554e-05,2.7208e-05,-4.97494e-06,5.33431e-06,2.92154e-06,-6.59402e-06,1.03306e-05,5.62754e-06,0
-3.03907e-05,2.77166e-05,-4.47505e-06,-1.15214e-06,7.59558e-07,-7.10255e-06,1.17542e-05,6.11846e-06,0
-2.99656e-05,2.79835e-05,-2.98493e-06,-1.62498e-06,2.06955e-06,-6.96004e-06,1.33955e-05,6.43923e-06,0
-2.88576e-05,2.93789e-05,-3.2709e-06,3.39877e-06,5.57944e-06,-6.43161e-06,1.36249e-05,5.39228e-06,0
-2.78264e-05,3.09493e-05,-6.26178e-06,9.72867e-06,8.26822e-06,-6.29715e-06,1.25516e-05,1.94005e-06,0
-2.68051e-05,2.9199e-05,-9.18837e-06,1.36927e-05,8.73816e-06,-6.1833e-06,1.15479e-05,-1.01621e-06,0
-2.51361e-05,2.36167e-05,-9.29028e-06,1.61543e-05,5.99842e-06,-5.42156e-06,1.07631e-05,-2.14096e-06,0
-2.49599e-05,1.79337e-05,-5.97355e-06,1.57986e-05,2.43799e-06,-3.27628e-06,8.4016e-06,-1.80586e-06,0
-2.64153e-05,1.46208e-05,-3.14963e-06,1.19523e-05,7.42316e-07,-1.20481e-06,5.49213e-06,4.7291e-07,0
-2.77296e-05,1.4807e-05,-2.35051e-06,4.9789e-06,-3.11333e-07,-2.00437e-06,4.07641e-06,2.79003e-06,0
-2.91951e-05,1.82238e-05,-1.78201e-06,-4.28158e-06,8.2858e-08,-3.97476e-06,3.50588e-06,2.90439e-06,0
-3.11514e-05,1.98517e-05,-2.33732e-06,-1.45682e-05,2.02217e-06,-3.33681e-06,3.23954e-06,2.81313e-06,0
-3.32183e-05,1.86538e-05,-4.57737e-06,-2.21912e-05,5.86756e-06,-3.60746e-06,1.37446e-06,2.61139e-06,0
-3.3419e-05,1.8078e-05,-4.83708e-06,-2.15926e-05,9.71807e-06,-5.65011e-06,-2.10404e-07,7.33275e-07,0
-3.2461e-05,1.71389e-05,-2.53228e-06,-1.44384e-05,1.23457e-05,-6.48267e-06,1.93066e-06,-1.57753e-07,0
-3.20349e-05,1.56535e-05,-6.26755e-10,-8.80119e-06,1.40514e-05,-7.52619e-06,4.37458e-06,6.33584e-07,0
-3.137e-05,1.46965e-05,1.70617e-06,-7.38135e-06,1.29487e-05,-7.79276e-06,4.72228e-06,1.33257e-06,0
-3.06359e-05,1.35028e-05,1.79696e-06,-8.23489e-06,1.18608e-05,-6.08377e-06,5.01584e-06,2.02403e-06,0
-2.99092e-05,1.19273e-05,1.5567e-06,-1.01023e-05,1.01541e-05,-3.97108e-06,6.21758e-06,1.63593e-06,0
-2.96907e-05,1.09789e-05,6.85198e-07,-1.24523e-05,8.87104e-06,-2.37883e-06,7.89547e-06,2.01618e-06,0
-3.17489e-05,8.50044e-06,-1.52536e-06,-1.32202e-05,8.58984e-06,-1.8181e-06,8.62062e-06,3.66289e-06,0
-3.43899e-05,4.99265e-06,-5.52539e-06,-1.35781e-05,9.06296e-06,-1.58468e-06,8.60566e-06,5.12786e-06,0
-3.46931e-05,3.51525e-06,-9.88298e-06,-1.46216e-05,1.181e-05,-2.44229e-06,8.85363e-06,5.72057e-06,0
-3.47414e-05,5.95229e-06,-1.31585e-05,-1.63406e-05,1.47507e-05,-4.15315e-06,8.87299e-06,6.83736e-06,0
-3.58501e-05,1.01515e-05,-1.50652e-05,-1.98665e-05,1.4064e-05,-4.59901e-06,9.89692e-06,7.77904e-06,0
-3.66724e-05,1.1292e-05,-1.53967e-05,-2.06482e-05,9.1834e-06,-4.89928e-06,1.19927e-05,6.38e-06,0
-3.6681e-05,9.32534e-06,-1.45851e-05,-1.18192e-05,5.00103e-06,-5.02652e-06,1.37631e-05,4.54203e-06,0
-3.64838e-05,6.75777e-06,-1.42785e-05,7.43578e-06,5.00618e-06,-4.38037e-06,1.45927e-05,3.09431e-06,0
-3.53669e-05,5.62302e-06,-1.52558e-05,2.55822e-05,8.27083e-06,-4.35724e-06,1.47759e-05,1.5655e-06,0
-3.31414e-05,3.99363e-06,-1.62592e-05,3.27894e-05,1.08581e-05,-5.09037e-06,1.56355e-05,1.29526e-06,0
-3.15997e-05,9.80742e-07,-1.75866e-05,2.98254e-05,1.14819e-05,-5.75268e-06,1.68134e-05,3.74957e-06,0
-3.17679e-05,-1.21609e-06,-1.85718e-05,2.27096e-05,1.05886e-05,-7.08743e-06,1.67949e-05,6.35765e-06,0
-3.38744e-05,-1.02235e-06,-1.69597e-05,1.61384e-05,1.2525e-05,-8.57173e-06,1.63682e-05,6.13298e-06,0
-3.69775e-05,1.07251e-06,-1.26409e-05,1.08433e-05,1.88609e-05,-8.07349e-06,1.65168e-05,3.51813e-06,0
-3.91862e-05,3.20038e-06,-9.88091e-06,4.59953e-06,2.51087e-05,-6.11465e-06,1.71849e-05,1.05114e-06,0
-3.81781e-05,3.09478e-06,-1.10175e-05,-2.4948e-06,2.68777e-05,-5.29665e-06,1.74212e-05,-7.32114e-07,0
-3.56202e-05,2.47259e-06,-1.35132e-05,-8.80486e-06,2.52077e-05,-5.37166e-06,1.53517e-05,-1.05173e-06,0
-3.27136e-05,2.44666e-06,-1.16447e-05,-1.35211e-05,2.20387e-05,-6.13887e-06,1.33359e-05,-2.00709e-06,0
-3.1543e-05,9.3303e-07,-4.82735e-06,-1.66344e-05,1.92578e-05,-6.27619e-06,1.3052e-05,-3.81394e-06,0
-3.32307e-05,-1.8586e-06,3.31302e-06,-1.69377e-05,1.94462e-05,-4.92032e-06,1.32582e-05,-4.17256e-06,0
-3.43346e-05,-3.6311e-06,1.38573e-05,-1.83363e-05,2.03164e-05,-4.1353e-06,1.45811e-05,-3.42484e-06,0
-3.45554e-05,-4.06539e-06,3.22927e-05,-2.29646e-05,1.75011e-05,-5.26585e-06,1.84497e-05,-2.27925e-06,0
-3.26414e-05,-3.90049e-06,5.54689e-05,-2.28959e-05,1.3016e-05,-5.67006e-06,2.11313e-05,-2.17392e-06,0
-2.89056e-05,-2.30184e-06,7.26788e-05,-2.06353e-05,1.07202e-05,-4.84451e-06,2.05468e-05,-1.14415e-06,0
-2.76679e-05,-8.57713e-07,7.3414e-05,-2.12134e-05,1.1595e-05,-4.60057e-06,1.98207e-05,-6.55402e-08,0
-2.916e-05,-4.08046e-08,5.21001e-05,-2.64525e-05,1.42751e-05,-5.67174e-06,1.94025e-05,6.74905e-07,0
-3.06823e-05,1.91096e-06,1.6542e-05,-3.23113e-05,1.47237e-05,-7.85899e-06,1.97003e-05,3.03644e-06,0
-3.10503e-05,5.77506e-06,-2.35102e-05,-3.37957e-05,1.4393e-05,-9.23753e-06,1.98296e-05,6.11767e-06,0
-3.03228e-05,8.20547e-06,-5.84085e-05,-3.22884e-05,1.38151e-05,-1.11577e-05,1.92199e-05,8.3988e-06,0
-2.87154e-05,7.91036e-06,-8.08879e-05,-3.03381e-05,1.32158e-05,-1.33359e-05,1.94133e-05,8.51606e-06,0
-2.80937e-05,6.6664e-06,-8.7694e-05,-3.14761e-05,1.17435e-05,-1.38736e-05,1.94916e-05,7.25787e-06,0
-2.79289e-05,4.93492e-06,-8.17268e-05,-3.41205e-05,8.20327e-06,-1.28025e-05,1.88911e-05,4.59324e-06,0
-2.61395e-05,4.16668e-06,-6.89836e-05,-3.41512e-05,5.92295e-06,-1.21674e-05,1.79342e-05,1.63185e-06,0
-2.44871e-05,4.50312e-06,-5.53315e-05,-2.90686e-05,7.47688e-06,-1.3033e-05,1.65704e-05,3.27358e-07,0
-2.43625e-05,4.98304e-06,-4.52784e-05,-1.98881e-05,1.07939e-05,-1.4709e-05,1.63826e-05,5.86983e-07,0
-2.44751e-05,6.30817e-06,-3.84094e-05,-1.07437e-05,1.23396e-05,-1.56557e-05,1.70137e-05,1.36535e-06,0
-2.4781e-05,7.9816e-06,-3.14003e-05,-6.05278e-06,1.22886e-05,-1.52688e-05,1.62928e-05,3.21104e-06,0
-2.60846e-05,9.0192e-06,-2.19405e-05,-3.07811e-06,1.11861e-05,-1.37075e-05,1.43008e-05,5.47381e-06,0
-2.74495e-05,1.08114e-05,-1.29337e-05,3.28975e-06,9.89725e-06,-1.22174e-05,1.3033e-05,5.05269e-06,0
-2.89037e-05,1.45896e-05,-6.38857e-06,1.22786e-05,9.6421e-06,-1.18051e-05,1.27341e-05,2.81992e-06,0
-2.98936e-05,1.8105e-05,-1.55998e-06,2.10853e-05,1.0501e-05,-1.17092e-05,1.25932e-05,2.63842e-06,0
-3.05068e-05,1.7583e-05,1.17923e-06,2.53715e-05,1.30134e-05,-1.23137e-05,1.2384e-05,4.90341e-06,0
-3.10212e-05,1.577e-05,1.17558e-06,2.25451e-05,1.71911e-05,-1.11321e-05,1.10887e-05,6.73902e-06,0
-3.05363e-05,1.68401e-05,1.20003e-06,1.61516e-05,2.06066e-05,-8.65181e-06,8.7785e-06,5.95852e-06,0
-2.99138e-05,2.06251e-05,1.4298e-06,1.13802e-05,2.22276e-05,-8.84778e-06,8.15591e-06,3.61823e-06,0
-2.95532e-05,2.34998e-05,9.73986e-07,1.02335e-05,2.24036e-05,-9.83715e-06,7.53941e-06,3.14569e-06,0
-2.81615e-05,2.15924e-05,-1.44869e-06,7.65441e-06,2.30793e-05,-9.12879e-06,-8.27801e-07,3.50223e-06,0
-2.61804e-05,1.56546e-05,-3.75195e-06,5.04962e-07,2.30055e-05,-8.45457e-06,-1.55489e-05,5.11335e-07,0
-2.64514e-05,9.95247e-06,-5.2632e-06,-7.02598e-06,1.88688e-05,-9.5319e-06,-2.4942e-05,-2.7646e-06,0
-2.8292e-05,8.54903e-06,-7.75211e-06,-1.03434e-05,1.48949e-05,-9.94575e-06,-2.45225e-05,-2.27085e-06,0
-2.95051e-05,1.07458e-05,-9.25945e-06,-8.17236e-06,1.59165e-05,-9.72435e-06,-1.84968e-05,-2.05081e-06,0
-2.99538e-05,1.29164e-05,-1.09554e-05,-6.83355e-06,1.9669e-05,-1.05564e-05,-1.03731e-05,-3.36254e-06,0
-2.96271e-05,1.34526e-05,-1.22461e-05,-1.01158e-05,1.96698e-05,-1.18218e-05,8.03386e-07,-3.96385e-06,0
-2.87151e-05,1.48411e-05,-1.18744e-05,-1.22776e-05,1.68423e-05,-1.28185e-05,1.46663e-05,-1.74779e-06,0
-2.8147e-05,1.77406e-05,-1.12695e-05,-1.29913e-05,1.49738e-05,-1.28021e-05,2.70306e-05,1.70349e-08,0
-2.82222e-05,1.96692e-05,-1.08924e-05,-1.46483e-05,1.52114e-05,-1.27536e-05,3.65545e-05,-7.23151e-07,0
-2.81957e-05,1.84047e-05,-8.75036e-06,-1.55708e-05,1.72438e-05,-1.39767e-05,4.15979e-05,-2.54964e-06,0
-2.80256e-05,1.60745e-05,-5.09862e-06,-1.69698e-05,1.93329e-05,-1.53032e-05,4.12423e-05,-3.91159e-06,0
-2.84104e-05,1.53129e-05,-2.61142e-06,-1.79474e-05,2.01384e-05,-1.52793e-05,3.70897e-05,-4.59625e-06,0
-2.90865e-05,1.55212e-05,-1.17565e-06,-1.54164e-05,1.89003e-05,-1.4396e-05,3.15262e-05,-4.9767e-06,0
-2.90988e-05,1.66289e-05,-5.17115e-07,-1.02785e-05,1.76046e-05,-1.3393e-05,2.60648e-05,-3.03829e-06,0
-2.82448e-05,1.77423e-05,-8.61722e-07,-6.98491e-06,1.57951e-05,-1.3291e-05,2.19158e-05,-6.26146e-08,0
-2.71611e-05,1.81081e-05,-1.58508e-06,-5.40962e-06,1.32678e-05,-1.41764e-05,1.96387e-05,1.31152e-06,0
-2.72085e-05,1.83936e-05,-1.81398e-06,-5.01028e-06,1.18156e-05,-1.58819e-05,1.75366e-05,-4.71451e-07,0
-2.86143e-05,1.93487e-05,-1.26024e-06,-7.27521e-06,1.15977e-05,-1.65261e-05,1.43986e-05,-3.17625e-06,0
-2.94622e-05,1.90544e-05,6.81889e-07,-1.04738e-05,1.18568e-05,-1.44433e-05,1.10311e-05,-4.2221e-06,0
-2.85104e-05,1.77661e-05,4.42766e-06,-1.17749e-05,1.31879e-05,-1.1596e-05,9.65967e-06,-2.46623e-06,0
-2.77819e-05,1.70704e-05,7.65938e-06,-1.07615e-05,1.55964e-05,-1.11497e-05,1.09251e-05,-1.00282e-06,0
-2.94568e-05,1.87053e-05,8.06371e-06,-8.26279e-06,1.78144e-05,-1.27345e-05,1.23386e-05,-1.30239e-06,0
-3.19329e-05,2.41018e-05,5.57265e-06,-6.87923e-06,1.81078e-05,-1.43717e-05,1.25618e-05,-7.42365e-07,0
-3.38783e-05,2.8474e-05,2.42222e-06,-9.3487e-06,1.7073e-05,-1.49735e-05,1.29145e-05,1.32606e-06,0
-3.47753e-05,2.7675e-05,4.82047e-07,-1.11853e-05,1.76192e-05,-1.49893e-05,1.26499e-05,2.94484e-06,0
-3.36854e-05,2.54675e-05,-9.69495e-07,-7.72963e-06,1.97117e-05,-1.60911e-05,1.09013e-05,3.52394e-06,0
-3.25117e-05,2.38821e-05,-3.25264e-06,-2.67362e-06,1.89572e-05,-1.73891e-05,8.13056e-06,4.35266e-06,0
-3.09928e-05,2.15175e-05,-5.32471e-06,-2.4815e-06,1.57008e-05,-1.65927e-05,5.58124e-06,5.85241e-06,0
-3.04215e-05,1.77826e-05,-5.00486e-06,-6.67532e-06,1.52106e-05,-1.58198e-05,4.4984e-06,6.78203e-06,0
-3.0303e-05,1.24615e-05,-3.66844e-06,-7.43098e-06,1.68016e-05,-1.57046e-05,4.84121e-06,6.64963e-06,0
-3.04734e-05,8.5667e-06,-3.30038e-06,1.04759e-06,1.74518e-05,-1.50588e-05,4.86254e-06,5.5769e-06,0
-3.12007e-05,5.82772e-06,-4.04542e-06,1.76352e-05,1.49401e-05,-1.42953e-05,4.08173e-06,4.20106e-06,0
-3.09083e-05,1.88991e-06,-5.51983e-06,3.67021e-05,1.18128e-05,-1.29549e-05,3.07484e-06,2.56355e-06,0
-3.19685e-05,-4.11163e-06,-6.178e-06,5.07255e-05,1.04508e-05,-1.31091e-05,5.07503e-06,1.20116e-06,0
-3.31728e-05,-1.2209e-05,-7.84353e-06,5.4361e-05,8.98168e-06,-1.42272e-05,1.02522e-05,-5.66523e-07,0
-3.37877e-05,-1.84373e-05,-1.13808e-05,4.40007e-05,7.05139e-06,-1.55512e-05,1.50584e-05,-2.85758e-06,0
-3.43981e-05,-1.92174e-05,-1.59059e-05,2.73667e-05,6.80975e-06,-1.55156e-05,1.70444e-05,-3.35198e-06,0
-3.52854e-05,-1.50467e-05,-1.99988e-05,1.63345e-05,9.83863e-06,-1.41806e-05,1.47706e-05,-3.27157e-06,0
-3.3427e-05,-9.1023e-06,-2.17766e-05,1.22745e-05,1.61158e-05,-1.29737e-05,1.1231e-05,-3.55617e-06,0
-2.99162e-05,-3.71794e-06,-2.10955e-05,1.22545e-05,2.34152e-05,-1.3057e-05,8.98672e-06,-6.12539e-06,0
-2.89357e-05,-1.39691e-06,-1.88188e-05,1.41618e-05,2.85964e-05,-1.37172e-05,7.99063e-06,-7.63858e-06,0
-3.07242e-05,-8.62209e-07,-1.79597e-05,1.57961e-05,2.88357e-05,-1.30897e-05,8.45502e-06,-5.86047e-06,0
-3.30263e-05,2.63288e-06,-1.9128e-05,1.45883e-05,2.5024e-05,-1.25495e-05,1.09319e-05,-3.47808e-06,0
-3.2599e-05,9.08664e-06,-1.87999e-05,1.22956e-05,2.22133e-05,-1.31276e-05,1.34616e-05,-2.52138e-06,0
-2.90254e-05,1.55037e-05,-1.49955e-05,1.11645e-05,2.2742e-05,-1.38197e-05,1.53266e-05,-2.47908e-06,0
-2.49137e-05,1.99434e-05,-1.03588e-05,8.80095e-06,2.40546e-05,-1.31585e-05,1.65891e-05,-2.50937e-06,0
-2.33043e-05,2.22398e-05,-7.59876e-06,3.51008e-06,2.28465e-05,-1.20623e-05,1.65415e-05,-3.46987e-06,0
-2.42468e-05,2.39121e-05,-7.48577e-06,2.39115e-06,1.9726e-05,-1.09667e-05,1.53626e-05,-4.7129e-06,0
-2.64146e-05,2.52086e-05,-8.07317e-06,1.22348e-05,1.49644e-05,-1.12188e-05,1.42594e-05,-2.57172e-06,0
-2.75365e-05,2.45395e-05,-7.43233e-06,2.85518e-05,1.02433e-05,-1.31678e-05,1.31575e-05,2.16453e-06,0
-2.80334e-05,2.3877e-05,-5.61149e-06,3.96725e-05,7.04042e-06,-1.44115e-05,1.24081e-05,4.92834e-06,0
-2.83406e-05,2.44089e-05,-4.40135e-06,4.00773e-05,5.72071e-06,-1.23463e-05,1.26267e-05,5.03364e-06,0
-2.83855e-05,2.63649e-05,-4.48487e-06,3.22571e-05,6.43621e-06,-8.59925e-06,1.31542e-05,3.54622e-06,0
-2.80804e-05,2.88627e-05,-4.43073e-06,2.16104e-05,8.27839e-06,-6.83168e-06,1.3618e-05,2.13404e-06,0
-2.8383e-05,2.82581e-05,-4.57697e-06,1.11757e-05,9.83606e-06,-7.17932e-06,1.25267e-05,9.6553e-07,0
-3.11703e-05,2.4681e-05,-4.90823e-06,-1.69227e-06,9.40773e-06,-6.73631e-06,1.03099e-05,1.69193e-06,0
-3.453e-05,2.27632e-05,-5.31452e-06,-1.58993e-05,8.16272e-06,-7.04424e-06,7.80411e-06,3.25769e-06,0
-3.43645e-05,2.2259e-05,-5.98782e-06,-2.63281e-05,8.16946e-06,-7.91947e-06,6.57524e-06,4.17598e-06,0
-3.29258e-05,2.09789e-05,-6.91227e-06,-3.17569e-05,9.04933e-06,-7.12261e-06,6.84082e-06,2.81748e-06,0
-3.18329e-05,1.93459e-05,-7.82872e-06,-3.76089e-05,9.65605e-06,-6.87175e-06,6.75083e-06,9.63353e-07,0
-2.91372e-05,1.78949e-05,-7.93985e-06,-4.43715e-05,1.03529e-05,-7.29534e-06,7.02092e-06,-9.30281e-08,0
-2.7861e-05,1.81406e-05,-8.38365e-06,-4.71644e-05,1.00098e-05,-7.49123e-06,7.73085e-06,-5.86143e-07,0
-2.81865e-05,1.8937e-05,-8.65846e-06,-4.52747e-05,8.77348e-06,-7.80711e-06,9.07171e-06,-7.02046e-07,0
-2.73996e-05,2.0004e-05,-8.45877e-06,-4.14758e-05,9.26228e-06,-8.4521e-06,1.02233e-05,-1.09249e-06,0
-2.62472e-05,2.12401e-05,-7.58468e-06,-3.82161e-05,1.10903e-05,-7.55728e-06,9.72127e-06,-1.24732e-07,0
-2.57285e-05,2.24176e-05,-6.08828e-06,-3.5975e-05,1.13043e-05,-6.08577e-06,9.3053e-06,4.7985e-07,0
-2.53347e-05,2.36712e-05,-5.45182e-06,-3.34709e-05,1.00079e-05,-5.75758e-06,9.83816e-06,-9.755e-07,0
-2.60743e-05,2.4115e-05,-6.64926e-06,-3.02626e-05,8.59211e-06,-6.09384e-06,1.02427e-05,-2.31809e-06,0
-2.78129e-05,2.33239e-05,-8.75342e-06,-2.88587e-05,7.09084e-06,-6.2219e-06,1.01741e-05,-4.60856e-07,0
-2.93398e-05,2.1402e-05,-9.41072e-06,-2.79955e-05,6.35347e-06,-6.47619e-06,1.05821e-05,1.9392e-06,0
-2.99233e-05,1.92385e-05,-8.62576e-06,-2.33127e-05,6.85629e-06,-7.37559e-06,1.23079e-05,2.75013e-06,0
-2.9061e-05,1.81302e-05,-7.63057e-06,-1.35699e-05,7.73078e-06,-8.71931e-06,1.43972e-05,1.8428e-06,0
-2.71504e-05,1.77314e-05,-7.16866e-06,-2.51283e-06,7.90557e-06,-1.02958e-05,1.46789e-05,6.81577e-07,0
-2.6575e-05,1.69997e-05,-6.54953e-06,6.23542e-06,8.40704e-06,-1.0829e-05,1.29453e-05,5.15894e-07,0
-2.79158e-05,1.58996e-05,-6.77957e-06,1.2926e-05,1.09575e-05,-1.02264e-05,1.09939e-05,7.3002e-07,0
-2.95065e-05,1.50438e-05,-6.66013e-06,1.75464e-05,1.47551e-05,-9.13126e-06,1.02797e-05,8.49309e-07,0
-3.10229e-05,1.56419e-05,-4.80939e-06,1.79691e-05,1.63042e-05,-8.0362e-06,1.13183e-05,1.9123e-07,0
-3.14783e-05,1.64639e-05,-2.84109e-06,1.20185e-05,1.41373e-05,-8.43317e-06,1.3228e-05,-5.30745e-07,0
-2.93991e-05,1.57365e-05,-1.38544e-06,-1.81313e-06,1.2286e-05,-1.0243e-05,1.43645e-05,5.0056e-07,0
-2.81524e-05,1.44691e-05,-1.17014e-07,-2.03626e-05,1.32644e-05,-1.08358e-05,1.43412e-05,1.55893e-06,0
-2.86691e-05,1.50854e-05,9.55517e-08,-3.60664e-05,1.50673e-05,-9.71325e-06,1.39368e-05,1.46934e-06,0
-2.84352e-05,1.66148e-05,-9.98126e-07,-3.79725e-05,1.64896e-05,-8.65785e-06,1.18182e-05,2.5983e-06,0
-2.93624e-05,1.72433e-05,-3.29877e-06,-2.78794e-05,1.6676e-05,-9.53249e-06,1.03838e-05,3.26035e-06,0
-3.10807e-05,1.70487e-05,-6.9091e-06,-2.21487e-05,1.55934e-05,-1.13143e-05,1.44099e-05,2.50435e-06,0
-3.17047e-05,1.57452e-05,-9.34822e-06,-2.56928e-05,1.26086e-05,-1.06859e-05,1.88257e-05,1.84739e-06,0
-3.03366e-05,1.35863e-05,-9.97563e-06,-2.98615e-05,9.28931e-06,-9.51656e-06,1.94735e-05,7.54638e-07,0
-2.86315e-05,1.17554e-05,-8.91555e-06,-2.81325e-05,9.484e-06,-9.14033e-06,1.8809e-05,-9.28185e-07,0
-2.75626e-05,1.08031e-05,-6.55981e-06,-2.17963e-05,1.43591e-05,-8.2043e-06,1.74133e-05,-2.17751e-06,0
-2.83153e-05,1.01748e-05,-4.3157e-06,-1.34452e-05,2.13118e-05,-6.92937e-06,1.53484e-05,-2.15194e-06,0
-2.98681e-05,7.78903e-06,-3.00633e-06,-9.37337e-06,2.41033e-05,-5.76359e-06,1.47661e-05,-1.43101e-06,0
-3.05982e-05,4.36206e-06,-3.92219e-06,-1.1721e-05,2.10833e-05,-6.09052e-06,1.53186e-05,-1.87983e-06,0
-3.08579e-05,3.04817e-06,-7.00117e-06,-1.83801e-05,1.56344e-05,-6.87254e-06,1.46192e-05,-2.53673e-06,0
-3.06634e-05,2.77262e-06,-1.08536e-05,-2.56168e-05,1.0994e-05,-7.06744e-06,1.28339e-05,-2.50537e-06,0
-3.11185e-05,2.1081e-06,-1.33826e-05,-2.784e-05,8.83654e-06,-6.67337e-06,1.24771e-05,-2.80828e-06,0
-3.23587e-05,1.6433e-06,-1.38577e-05,-2.30294e-05,9.57261e-06,-5.25661e-06,1.45713e-05,-2.78295e-06,0
-3.40325e-05,2.6848e-06,-1.28181e-05,-1.45875e-05,1.1172e-05,-2.5706e-06,1.79918e-05,-1.9717e-06,0
-3.47209e-05,4.45557e-06,-1.15901e-05,-7.78928e-06,1.15285e-05,-6.50746e-07,2.09034e-05,-1.67666e-06,0
-3.56303e-05,4.60546e-06,-1.03524e-05,-4.31338e-06,1.04034e-05,-6.89912e-07,2.13591e-05,-2.24196e-06,0
-3.74122e-05,2.9445e-06,-8.56526e-06,-2.27294e-06,8.70714e-06,-1.05105e-06,2.06109e-05,-2.59535e-06,0
-3.91935e-05,1.84568e-06,-7.55855e-06,5.9713e-07,8.08856e-06,-7.33093e-07,2.0165e-05,-1.73636e-06,0
-3.9505e-05,2.16743e-06,-8.08252e-06,2.60073e-06,7.95993e-06,-1.77349e-07,1.98344e-05,-7.06637e-07,0
-3.85608e-05,3.65945e-06,-9.35662e-06,3.80819e-06,8.32075e-06,-2.84137e-07,1.9664e-05,-1.33079e-06,0
-3.81895e-05,6.02259e-06,-1.04242e-05,6.10287e-06,1.07196e-05,-1.12065e-06,2.00146e-05,-2.61227e-06,0
-3.73439e-05,7.56282e-06,-1.20087e-05,9.01942e-06,1.31815e-05,-3.24213e-06,2.0197e-05,-2.60407e-06,0
-3.51276e-05,6.34243e-06,-1.38845e-05,9.078e-06,1.36144e-05,-5.46394e-06,1.96472e-05,-1.53089e-06,0
-3.37928e-05,4.11931e-06,-1.50975e-05,7.26373e-06,1.31921e-05,-6.20286e-06,1.85382e-05,-5.23121e-07,0
-3.37004e-05,4.39727e-06,-1.57096e-05,5.98889e-06,1.21201e-05,-5.91729e-06,1.82501e-05,1.092e-07,0
-3.48533e-05,3.00379e-06,-1.70626e-05,3.4579e-06,1.03909e-05,-5.02149e-06,1.86086e-05,7.75427e-08,0
-3.52698e-05,-1.03127e-06,-2.06286e-05,3.04455e-07,8.66435e-06,-5.27002e-06,1.78569e-05,1.78207e-06,0
-3.36598e-05,-3.01742e-06,-2.51385e-05,-1.786e-06,6.60021e-06,-7.75264e-06,1.60862e-05,2.71494e-06,0
-3.19831e-05,4.40846e-07,-2.6578e-05,-2.82009e-06,5.08075e-06,-9.38308e-06,1.50525e-05,7.3226e-07,0
-3.05986e-05,5.67697e-06,-2.46533e-05,-6.03384e-07,4.9625e-06,-9.79923e-06,1.37787e-05,1.90415e-06,0
-3.05998e-05,7.23707e-06,-2.26237e-05,2.96856e-06,6.95991e-06,-9.04822e-06,1.21961e-05,5.84725e-06,0
-3.11741e-05,6.76057e-06,-2.10528e-05,4.77871e-06,8.96406e-06,-7.7764e-06,1.17262e-05,8.08307e-06,0
-3.10067e-05,6.58388e-06,-1.90708e-05,5.05185e-06,8.85152e-06,-7.89658e-06,1.19447e-05,6.91968e-06,0
-3.14266e-05,8.92219e-06,-1.60165e-05,6.05301e-06,9.81193e-06,-7.86616e-06,1.17493e-05,4.98606e-06,0
-3.28985e-05,1.07647e-05,-1.22038e-05,8.48651e-06,1.1925e-05,-7.70134e-06,9.95675e-06,3.62049e-06,0
-3.35426e-05,1.11434e-05,-8.98284e-06,9.44766e-06,1.33806e-05,-7.99593e-06,8.88778e-06,3.84704e-06,0
-3.23071e-05,1.07789e-05,-6.86787e-06,9.27583e-06,1.35252e-05,-8.22309e-06,9.53726e-06,6.22326e-06,0
-2.88428e-05,1.01357e-05,-5.76083e-06,7.80203e-06,1.34747e-05,-8.15105e-06,1.16379e-05,9.53299e-06,0
-2.54412e-05,1.0092e-05,-4.77907e-06,1.25134e-06,1.3564e-05,-8.62079e-06,1.3299e-05,1.19704e-05,0
-2.37544e-05,8.93475e-06,-4.39847e-06,-1.4125e-05,1.26624e-05,-9.25411e-06,1.30643e-05,1.16523e-05,0
-2.46516e-05,5.90711e-06,-5.23529e-06,-3.07671e-05,1.11845e-05,-8.29509e-06,1.19908e-05,9.99438e-06,0
-2.65803e-05,3.20254e-06,-7.04967e-06,-3.57151e-05,9.03927e-06,-6.83333e-06,1.11277e-05,8.83068e-06,0
-2.76953e-05,2.66526e-06,-9.31617e-06,-2.51119e-05,5.85444e-06,-7.01741e-06,1.01704e-05,9.61372e-06,0
-2.87405e-05,3.01733e-06,-1.04918e-05,-8.89813e-06,2.28221e-06,-8.23943e-06,9.4309e-06,1.09367e-05,0
-3.03023e-05,3.92906e-06,-1.04938e-05,-1.42733e-06,2.89557e-07,-8.51771e-06,1.06816e-05,1.0495e-05,0
-3.0591e-05,4.72187e-06,-1.04481e-05,-3.32537e-06,1.58745e-06,-8.08044e-06,1.26245e-05,6.73618e-06,0
-2.79723e-05,5.22289e-06,-9.8636e-06,-9.09225e-07,4.26004e-06,-7.34839e-06,1.37385e-05,2.56584e-06,0
-2.63743e-05,5.18795e-06,-7.50561e-06,1.31142e-05,5.39275e-06,-5.97868e-06,1.5603e-05,3.06635e-07,0
-2.74859e-05,5.33585e-06,-4.82541e-06,3.03419e-05,6.54996e-06,-5.16411e-06,1.65547e-05,1.75434e-07,0
-2.84582e-05,6.12724e-06,-2.88261e-06,3.90322e-05,7.83538e-06,-6.822e-06,1.48752e-05,1.0389e-06,0
-2.77054e-05,6.8642e-06,-4.78662e-07,3.66894e-05,7.78984e-06,-9.64687e-06,1.29213e-05,2.83026e-07,0
-2.60515e-05,6.45447e-06,2.31134e-06,2.78779e-05,5.88422e-06,-1.10022e-05,9.95147e-06,-9.66239e-07,0
-2.55459e-05,7.67818e-06,4.73701e-06,8.78226e-06,3.89458e-06,-1.27766e-05,6.52058e-06,-9.06756e-07,0
-2.72371e-05,1.12595e-05,5.93051e-06,-1.85681e-05,3.96161e-06,-1.40056e-05,4.91061e-06,-1.17689e-06,0
-2.85795e-05,1.44112e-05,4.16063e-06,-4.40712e-05,2.68634e-06,-1.32107e-05,4.49698e-06,-2.72476e-06,0
-2.79868e-05,1.57396e-05,2.37715e-06,-6.12062e-05,-7.60529e-07,-1.30554e-05,5.63671e-06,-2.77105e-06,0
-2.80379e-05,1.55996e-05,3.12563e-06,-6.31521e-05,-1.70977e-06,-1.35899e-05,8.43872e-06,1.87831e-07,0
-2.94189e-05,1.65333e-05,4.5355e-06,-5.14172e-05,1.65379e-06,-1.36912e-05,8.26877e-06,3.10122e-06,0
-2.93844e-05,1.72564e-05,4.46916e-06,-3.67859e-05,5.94916e-06,-1.28092e-05,6.45622e-06,2.85653e-06,0
-2.70409e-05,1.60277e-05,1.79183e-06,-2.84953e-05,9.54363e-06,-1.04402e-05,6.38735e-06,-2.9085e-07,0
-2.45381e-05,1.38376e-05,-1.47417e-06,-2.27787e-05,1.47152e-05,-6.96654e-06,7.02073e-06,-2.11808e-06,0
-2.44162e-05,1.19683e-05,-3.80419e-06,-1.35178e-05,2.15883e-05,-4.92158e-06,8.16534e-06,-1.24765e-06,0
-2.52733e-05,1.05291e-05,-5.62794e-06,2.95513e-06,2.79789e-05,-5.93042e-06,9.7672e-06,-1.23721e-06,0
-2.6598e-05,1.05403e-05,-6.19643e-06,2.37311e-05,3.10096e-05,-7.74917e-06,1.17626e-05,-6.7967e-07,0
-2.75264e-05,1.27879e-05,-5.90923e-06,3.97098e-05,2.96704e-05,-7.60042e-06,1.39575e-05,1.92283e-06,0
-2.77437e-05,1.54381e-05,-5.12035e-06,4.61912e-05,2.62554e-05,-6.32232e-06,1.6093e-05,4.16034e-06,0
-2.83492e-05,1.6013e-05,-4.72768e-06,4.31029e-05,2.41624e-05,-5.55386e-06,1.6926e-05,4.11281e-06,0
-2.94046e-05,1.42443e-05,-5.69936e-06,3.48875e-05,2.46675e-05,-6.00732e-06,1.67911e-05,3.87457e-06,0
-3.08935e-05,1.25283e-05,-7.08919e-06,2.40042e-05,2.3558e-05,-7.742e-06,1.60632e-05,4.46234e-06,0
-3.287e-05,1.27853e-05,-7.59181e-06,1.29015e-05,1.78639e-05,-9.75945e-06,1.46183e-05,5.04894e-06,0
-3.45529e-05,1.38215e-05,-6.95251e-06,4.53006e-06,1.10342e-05,-1.0243e-05,1.27105e-05,5.59329e-06,0
-3.37126e-05,1.27067e-05,-6.03909e-06,-5.10567e-07,7.3959e-06,-8.61391e-06,1.25985e-05,6.42067e-06,0
-3.1669e-05,9.9268e-06,-5.44217e-06,-3.80738e-06,8.18129e-06,-6.14506e-06,1.56094e-05,6.3686e-06,0
-3.05024e-05,9.37813e-06,-6.36437e-06,-4.34963e-06,1.1932e-05,-4.52791e-06,1.82082e-05,5.218e-06,0
-2.96713e-05,1.13197e-05,-7.67271e-06,-1.7711e-06,1.44564e-05,-5.2803e-06,1.82235e-05,5.044e-06,0
-2.8507e-05,1.2903e-05,-8.01086e-06,1.20394e-06,1.36872e-05,-7.34459e-06,1.82536e-05,5.2152e-06,0
-2.81769e-05,1.30218e-05,-8.48046e-06,-1.77776e-07,1.0952e-05,-8.83039e-06,1.86557e-05,5.21936e-06,0
-2.89811e-05,1.0727e-05,-9.01873e-06,-2.40425e-06,8.04338e-06,-9.95984e-06,1.85685e-05,3.9751e-06,0
-2.90847e-05,6.87806e-06,-8.05959e-06,-3.19457e-06,7.16636e-06,-1.12004e-05,1.8088e-05,1.98219e-06,0
-2.82947e-05,4.63471e-06,-6.10954e-06,-6.38472e-06,7.8055e-06,-1.26539e-05,1.59422e-05,-4.2816e-08,0
-2.89406e-05,3.52968e-06,-6.34589e-06,-9.48321e-06,9.53512e-06,-1.47153e-05,1.33703e-05,-3.06861e-06,0
-2.93551e-05,3.89193e-06,-9.50373e-06,-9.99505e-06,1.06308e-05,-1.69503e-05,1.23244e-05,-5.80353e-06,0
-3.00831e-05,6.68694e-06,-1.16254e-05,-9.90977e-06,9.51216e-06,-1.88855e-05,1.25018e-05,-6.5822e-06,0
-3.15655e-05,8.17953e-06,-1.20599e-05,-1.12524e-05,9.49888e-06,-1.82301e-05,1.2736e-05,-6.60034e-06,0
-3.22589e-05,7.361e-06,-1.35348e-05,-1.20527e-05,1.17466e-05,-1.55122e-05,1.19712e-05,-6.99876e-06,0
-3.11439e-05,8.39362e-06,-1.61488e-05,-1.24118e-05,1.33787e-05,-1.36136e-05,1.12699e-05,-6.07774e-06,0
-2.91926e-05,1.12479e-05,-1.74235e-05,-1.14699e-05,1.31489e-05,-1.38684e-05,1.19068e-05,-5.4341e-06,0
-2.95099e-05,1.46926e-05,-1.75092e-05,-1.02784e-05,1.17575e-05,-1.44341e-05,1.08315e-05,-6.00919e-06,0
-3.00786e-05,1.81769e-05,-1.57396e-05,-8.79723e-06,1.10072e-05,-1.41068e-05,7.49803e-06,-5.99333e-06,0
-2.95058e-05,2.03062e-05,-1.15487e-05,-6.79457e-06,1.28677e-05,-1.32738e-05,5.84025e-06,-6.0618e-06,0
-2.93513e-05,2.17082e-05,-8.08403e-06,-4.65541e-06,1.42926e-05,-1.23641e-05,6.71154e-06,-6.36929e-06,0
-3.03356e-05,2.24077e-05,-6.78082e-06,-3.32924e-06,1.40145e-05,-1.2908e-05,7.70539e-06,-6.62824e-06,0
-3.13906e-05,2.44323e-05,-6.24106e-06,-3.37714e-06,1.49213e-05,-1.44072e-05,7.88967e-06,-6.78107e-06,0
-3.22246e-05,2.74902e-05,-5.40107e-06,-3.47339e-06,1.86958e-05,-1.57492e-05,7.8221e-06,-6.74995e-06,0
-3.25847e-05,2.92082e-05,-5.15603e-06,-3.57509e-06,2.39309e-05,-1.56906e-05,7.90855e-06,-6.19183e-06,0
-3.2428e-05,2.78711e-05,-5.58778e-06,-2.92042e-06,2.74825e-05,-1.47499e-05,8.31261e-06,-4.17427e-06,0
-3.25196e-05,2.44093e-05,-7.19029e-06,-1.16357e-06,2.76898e-05,-1.33515e-05,8.36069e-06,-6.18936e-07,0
-3.27522e-05,2.14405e-05,-8.42209e-06,1.05373e-06,2.4459e-05,-1.27357e-05,7.74604e-06,1.64684e-06,0
-3.19958e-05,1.93572e-05,-8.0441e-06,1.575e-06,2.09624e-05,-1.35759e-05,7.55917e-06,1.66333e-06,0
-3.06345e-05,1.73956e-05,-7.46842e-06,7.02839e-07,1.92975e-05,-1.54353e-05,8.57105e-06,1.85974e-06,0
-3.06646e-05,1.67481e-05,-8.4558e-06,-5.22259e-07,1.86441e-05,-1.63414e-05,9.27093e-06,3.39044e-06,0
-3.24859e-05,1.73124e-05,-1.02756e-05,-1.68081e-06,1.70597e-05,-1.44821e-05,9.07528e-06,5.5162e-06,0
-3.40197e-05,1.68791e-05,-1.10106e-05,-3.47652e-06,1.4243e-05,-1.28927e-05,8.35622e-06,7.87441e-06,0
-3.41092e-05,1.54792e-05,-9.53614e-06,-5.20915e-06,1.1431e-05,-1.30655e-05,7.16471e-06,9.65319e-06,0
-3.24819e-05,1.45522e-05,-6.67459e-06,-3.27848e-06,1.02487e-05,-1.39974e-05,7.35434e-06,8.08414e-06,0
-2.99393e-05,1.55311e-05,-6.58599e-06,9.96563e-06,1.14179e-05,-1.35833e-05,8.75368e-06,5.34709e-06,0
-3.04815e-05,1.66376e-05,-9.57641e-06,3.1861e-05,1.29478e-05,-1.21908e-05,1.10587e-05,4.12904e-06,0
-3.44934e-05,1.65009e-05,-1.14864e-05,4.15208e-05,1.16256e-05,-1.14994e-05,1.31481e-05,3.15885e-06,0
-3.74301e-05,1.63868e-05,-1.08359e-05,3.41507e-05,1.07189e-05,-1.03351e-05,1.37909e-05,2.81957e-06,0
-3.65002e-05,1.84649e-05,-8.86151e-06,2.17798e-05,1.32969e-05,-1.00968e-05,1.15632e-05,3.13611e-06,0
-3.2868e-05,2.09891e-05,-7.43709e-06,9.41083e-06,1.46746e-05,-1.10161e-05,8.64195e-06,4.12652e-06,0
-3.09096e-05,2.22248e-05,-6.32344e-06,-4.40499e-07,1.37393e-05,-1.10745e-05,8.16434e-06,5.77333e-06,0
-3.03546e-05,2.28275e-05,-4.27153e-06,-7.21383e-06,1.30331e-05,-9.34171e-06,7.13695e-06,6.04432e-06,0
-2.87269e-05,2.49537e-05,-2.32712e-06,-5.16817e-06,1.52082e-05,-8.86111e-06,4.65455e-06,5.30511e-06,0
-2.72197e-05,2.68274e-05,-1.14921e-06,9.43307e-06,1.79271e-05,-1.00222e-05,-4.85377e-07,5.51513e-06,0
-2.55591e-05,2.64909e-05,-1.97512e-07,2.47797e-05,1.95453e-05,-1.10169e-05,-5.19204e-06,6.64529e-06,0
-2.42837e-05,2.63782e-05,1.40832e-06,2.48282e-05,2.06067e-05,-1.12113e-05,-6.55185e-06,6.97819e-06,0
-2.49101e-05,2.71655e-05,2.28909e-06,7.62364e-06,2.13808e-05,-9.78932e-06,-1.82717e-06,5.14726e-06,0
-2.66198e-05,2.78773e-05,6.45712e-07,-1.5824e-05,1.98617e-05,-7.9288e-06,8.74571e-06,2.5962e-06,0
-2.7164e-05,2.73603e-05,-2.29508e-06,-3.28487e-05,1.54595e-05,-7.12715e-06,1.89101e-05,1.80414e-06,0
-2.61809e-05,2.59806e-05,-4.50015e-06,-3.90387e-05,1.1241e-05,-8.10682e-06,2.44567e-05,1.96939e-06,0
-2.56644e-05,2.46321e-05,-5.75493e-06,-4.1215e-05,8.28878e-06,-9.32438e-06,2.56251e-05,9.7402e-07,0
-2.66422e-05,2.39437e-05,-5.87557e-06,-4.49692e-05,7.50667e-06,-9.84787e-06,2.56214e-05,-7.81542e-07,0
-2.7757e-05,2.32315e-05,-5.05012e-06,-5.14502e-05,7.7974e-06,-8.76943e-06,2.52137e-05,-1.61567e-06,0
-2.80884e-05,2.16143e-05,-4.53436e-06,-6.11389e-05,7.41918e-06,-8.13889e-06,2.44201e-05,-1.05695e-06,0
-2.83788e-05,1.86263e-05,-4.77135e-06,-7.35414e-05,5.88064e-06,-9.01382e-06,2.1862e-05,-6.63748e-07,0
-2.91956e-05,1.5632e-05,-5.45601e-06,-8.20331e-05,5.70881e-06,-1.04526e-05,1.82817e-05,-1.25868e-06,0
-3.00813e-05,1.28307e-05,-5.87809e-06,-8.02107e-05,6.72509e-06,-1.17821e-05,1.49534e-05,-1.55444e-06,0
-3.05365e-05,8.74137e-06,-6.80523e-06,-6.75036e-05,8.16904e-06,-1.30296e-05,1.2854e-05,1.27305e-08,0
-3.05187e-05,5.77385e-06,-7.07579e-06,-4.85936e-05,1.06028e-05,-1.33608e-05,1.33293e-05,3.26367e-06,0
-3.02645e-05,1.13823e-05,-6.89903e-06,-3.05432e-05,1.41495e-05,-1.23894e-05,1.55342e-05,6.11033e-06,0
-3.02868e-05,2.28215e-05,-8.61605e-06,-1.61813e-05,1.95309e-05,-1.11983e-05,1.64226e-05,7.01667e-06,0
-2.98589e-05,2.73292e-05,-9.5729e-06,-4.87798e-06,2.70204e-05,-1.08285e-05,1.60187e-05,6.33263e-06,0
-2.93185e-05,2.51478e-05,-1.03754e-05,2.54849e-06,3.27844e-05,-1.07048e-05,1.37058e-05,4.74458e-06,0
-2.98082e-05,2.25171e-05,-1.44258e-05,8.69367e-06,3.03973e-05,-9.94265e-06,1.02656e-05,3.83524e-06,0
-3.04251e-05,1.83966e-05,-1.95731e-05,1.6125e-05,2.40118e-05,-1.14139e-05,9.10285e-06,2.76346e-06,0
-2.99866e-05,1.36638e-05,-2.20026e-05,2.21136e-05,1.98841e-05,-1.53314e-05,1.06699e-05,2.13328e-06,0
-2.80714e-05,8.91443e-06,-2.21197e-05,2.17366e-05,1.78895e-05,-1.86634e-05,1.21695e-05,3.56258e-06,0
-2.81826e-05,3.67409e-06,-2.17183e-05,1.69801e-05,1.84247e-05,-1.9709e-05,1.21744e-05,3.444e-06,0
-2.99702e-05,-2.61978e-06,-2.05887e-05,1.21497e-05,1.88743e-05,-1.95801e-05,1.33761e-05,2.2478e-06,0
-3.00384e-05,-1.00353e-05,-1.81382e-05,8.74547e-06,1.8343e-05,-1.99621e-05,1.36067e-05,7.13265e-07,0
-2.99727e-05,-1.55734e-05,-1.39465e-05,7.89779e-06,1.65811e-05,-2.03731e-05,1.09416e-05,-1.08696e-08,0
-3.00539e-05,-1.79707e-05,-7.46831e-06,8.87484e-06,1.4591e-05,-1.9077e-05,8.47229e-06,9.95066e-07,0
-2.98659e-05,-1.7962e-05,5.15032e-07,8.87822e-06,1.3882e-05,-1.67915e-05,8.08626e-06,1.99599e-06,0
-2.92206e-05,-1.54726e-05,1.08695e-05,4.12386e-06,1.46081e-05,-1.49363e-05,8.8639e-06,4.18983e-06,0
-2.89193e-05,-1.21192e-05,2.64939e-05,-2.77551e-06,1.63643e-05,-1.39638e-05,1.06507e-05,6.10172e-06,0
-2.94259e-05,-8.38831e-06,4.64278e-05,-7.54707e-06,1.76953e-05,-1.36684e-05,1.28983e-05,6.17089e-06,0
-2.96988e-05,-4.7682e-06,6.26787e-05,-7.81021e-06,1.93933e-05,-1.40861e-05,1.43106e-05,5.61019e-06,0
-3.05672e-05,-4.04966e-06,6.54291e-05,-3.87306e-06,2.02165e-05,-1.44082e-05,1.42719e-05,4.1907e-06,0
-3.28019e-05,-4.39086e-06,5.02812e-05,3.66976e-06,1.92797e-05,-1.39592e-05,1.44871e-05,1.99204e-06,0
-3.4781e-05,-3.11786e-06,1.88569e-05,1.33612e-05,1.67596e-05,-1.38032e-05,1.55312e-05,1.00224e-06,0
-3.536e-05,-1.05762e-06,-2.1663e-05,2.05308e-05,1.43857e-05,-1.40371e-05,1.3348e-05,7.82081e-07,0
-3.49853e-05,-6.59236e-08,-6.07722e-05,1.77699e-05,1.3566e-05,-1.33628e-05,4.76472e-06,2.28956e-07,0
-3.36633e-05,7.77163e-07,-8.87898e-05,4.97547e-06,1.43197e-05,-1.21524e-05,-5.66296e-06,2.23882e-07,0
-3.18254e-05,1.90514e-06,-0.000100203,-1.04612e-05,1.34818e-05,-1.13115e-05,-1.05152e-05,7.5299e-07,0
-3.14962e-05,3.29397e-06,-9.4233e-05,-2.71812e-05,1.14079e-05,-9.63217e-06,-7.62517e-06,1.3047e-06,0
-3.24763e-05,5.86113e-06,-7.84725e-05,-4.63665e-05,1.11839e-05,-6.95124e-06,-1.46645e-06,2.2616e-06,0
-3.14503e-05,8.60681e-06,-6.19234e-05,-5.83956e-05,1.06057e-05,-4.34929e-06,-5.68307e-07,2.4928e-06,0
-2.92799e-05,8.66007e-06,-4.81971e-05,-5.42456e-05,8.71509e-06,-2.33868e-06,-3.40941e-06,1.55614e-06,0
-2.85483e-05,8.17393e-06,-3.90486e-05,-4.07808e-05,8.72487e-06,-1.75727e-06,-3.9213e-06,7.29227e-07,0
-2.82507e-05,9.77554e-06,-3.12424e-05,-2.17959e-05,1.0407e-05,-1.91639e-06,1.65895e-06,-1.96053e-07,0
-2.82877e-05,1.1485e-05,-2.16266e-05,7.26682e-07,1.24143e-05,-1.52973e-06,1.11745e-05,-1.36808e-06,0
-2.91829e-05,1.36393e-05,-1.30218e-05,1.7529e-05,1.48559e-05,-9.97767e-07,1.92469e-05,-1.58428e-06,0
-2.99392e-05,1.57775e-05,-6.69639e-06,2.34146e-05,1.78514e-05,2.06698e-07,2.75047e-05,4.9302e-07,0
-2.93585e-05,1.66115e-05,-2.58364e-06,2.20837e-05,2.0989e-05,1.06467e-06,3.26969e-05,3.28862e-06,0
-2.91509e-05,1.88438e-05,-7.73504e-08,2.08039e-05,2.3301e-05,1.6077e-06,3.43991e-05,5.04516e-06,0
-2.91692e-05,2.2247e-05,1.55809e-07,1.73643e-05,2.3712e-05,1.06705e-06,3.63087e-05,5.41173e-06,0
-2.73286e-05,2.42481e-05,-1.09751e-06,1.12075e-05,2.07454e-05,-7.67358e-07,3.65898e-05,3.29393e-06,0
-2.57936e-05,2.457e-05,-1.39672e-06,7.23012e-06,1.87886e-05,-1.52672e-06,3.36498e-05,2.29995e-07,0
-2.60629e-05,2.4872e-05,-8.98674e-07,5.89245e-06,1.8154e-05,-1.51779e-06,3.03976e-05,-1.97358e-06,0
-2.77737e-05,2.45968e-05,-8.02441e-07,6.16336e-06,1.49512e-05,-1.40188e-06,2.85981e-05,-2.02181e-06,0
-2.89605e-05,2.33904e-05,-1.39247e-06,7.10415e-06,9.78011e-06,-1.93762e-06,2.67783e-05,3.33841e-07,0
-2.91187e-05,2.26953e-05,-7.86593e-07,7.06802e-06,5.02968e-06,-2.57469e-06,2.45353e-05,2.99592e-06,0
-2.96192e-05,2.26172e-05,7.47104e-07,4.90506e-06,2.16436e-06,-3.13602e-06,2.23899e-05,3.92232e-06,0
-3.03473e-05,2.21794e-05,2.24504e-06,2.85792e-06,2.23182e-06,-2.33662e-06,1.99499e-05,3.12908e-06,0
-3.01711e-05,2.10601e-05,2.64562e-06,1.66508e-06,5.36851e-06,4.53722e-07,1.73809e-05,1.81488e-06,0
-2.99247e-05,2.03539e-05,2.22048e-06,-2.53145e-07,8.34644e-06,2.13811e-06,1.60465e-05,1.10991e-07,0
-3.0661e-05,1.88385e-05,2.29846e-06,-4.29567e-06,8.03426e-06,1.50546e-06,1.50893e-05,-6.80797e-09,0
-3.10225e-05,1.6841e-05,3.4908e-06,-1.01351e-05,5.11157e-06,7.14775e-07,1.37039e-05,2.57263e-06,0
-2.97742e-05,1.64535e-05,4.37573e-06,-1.66967e-05,2.64535e-06,1.58831e-06,1.14624e-05,5.26581e-06,0
-2.7996e-05,1.87063e-05,4.75719e-06,-1.98497e-05,3.26443e-06,3.14299e-06,9.32655e-06,5.58076e-06,0
-2.84823e-05,2.11467e-05,4.56686e-06,-1.48223e-05,6.71545e-06,3.77017e-06,7.9322e-06,4.40107e-06,0
-3.09426e-05,2.2735e-05,3.61537e-06,-4.17854e-06,9.06311e-06,4.5963e-06,7.7047e-06,3.56164e-06,0
-3.19038e-05,2.36877e-05,3.72123e-06,1.58416e-06,8.69424e-06,5.92542e-06,7.80104e-06,2.28202e-06,0
-3.0099e-05,2.41402e-05,4.53523e-06,6.23843e-08,9.65112e-06,5.53444e-06,7.07679e-06,9.31296e-07,0
-2.84478e-05,2.27072e-05,5.29377e-06,-8.92373e-07,1.2186e-05,4.21883e-06,6.304e-06,6.96783e-07,0
-2.83019e-05,1.90434e-05,7.21436e-06,3.91066e-07,1.51364e-05,2.98734e-06,6.87747e-06,1.84559e-06,0
-2.95097e-05,1.67982e-05,7.55317e-06,1.41925e-06,1.87195e-05,2.74413e-06,1.07432e-05,2.98918e-06,0
-3.10561e-05,1.68998e-05,5.24123e-06,1.44792e-06,2.04901e-05,2.6778e-06,1.48445e-05,1.96867e-06,0
-3.16755e-05,1.72481e-05,3.04456e-06,1.14391e-06,2.04499e-05,1.39117e-06,1.58246e-05,1.89685e-06,0
-3.07549e-05,1.72908e-05,8.28735e-07,7.19096e-07,1.84065e-05,-8.47258e-07,1.64582e-05,2.71638e-06,0
-3.01108e-05,1.68266e-05,-1.27118e-08,-5.19114e-07,1.71029e-05,-3.60768e-06,1.60981e-05,1.92856e-06,0
-3.08737e-05,1.43147e-05,-1.07534e-06,-1.79935e-06,1.7792e-05,-4.05928e-06,1.36317e-05,1.16127e-06,0
-3.08329e-05,1.19707e-05,-4.28101e-06,-2.02311e-06,1.79406e-05,-3.12095e-06,1.19756e-05,1.0204e-06,0
-3.0086e-05,1.10202e-05,-6.93323e-06,-3.7016e-07,1.70645e-05,-2.96331e-06,1.22856e-05,-7.36051e-07,0
-3.04376e-05,9.7161e-06,-7.23607e-06,2.53515e-06,1.63436e-05,-3.11841e-06,1.32029e-05,-2.7657e-06,0
-3.19669e-05,9.13299e-06,-7.78491e-06,3.20554e-06,1.64385e-05,-5.02152e-06,1.48839e-05,-4.33195e-06,0
-3.31529e-05,9.33247e-06,-8.77498e-06,1.47258e-06,1.57865e-05,-8.63928e-06,1.68916e-05,-5.56206e-06,0
-3.41754e-05,9.96613e-06,-1.02711e-05,1.58235e-06,1.58707e-05,-1.06618e-05,1.71076e-05,-5.22839e-06,0
-3.46451e-05,1.08879e-05,-1.18426e-05,4.05361e-06,1.58241e-05,-1.06002e-05,1.55711e-05,-4.99611e-06,0
-3.4319e-05,1.08888e-05,-1.19939e-05,6.63275e-06,1.38527e-05,-1.0814e-05,1.34688e-05,-5.48601e-06,0
-3.29681e-05,1.0746e-05,-1.1734e-05,7.66093e-06,1.09797e-05,-1.16201e-05,1.25259e-05,-6.49748e-06,0
-3.08385e-05,1.21276e-05,-1.15393e-05,6.26952e-06,9.23166e-06,-1.13473e-05,1.30361e-05,-7.45454e-06,0
-2.91163e-05,1.42528e-05,-1.20097e-05,3.61606e-06,9.13042e-06,-1.10408e-05,1.48053e-05,-8.63569e-06,0
-2.886e-05,1.64253e-05,-1.33225e-05,2.20629e-06,1.02284e-05,-1.26463e-05,1.71055e-05,-8.81128e-06,0
-2.94643e-05,1.87548e-05,-1.54724e-05,1.57296e-06,1.17694e-05,-1.5138e-05,1.86038e-05,-8.51842e-06,0
-3.00859e-05,1.94497e-05,-1.71276e-05,-7.18716e-07,1.12749e-05,-1.67836e-05,1.82503e-05,-8.24379e-06,0
-3.15164e-05,1.90209e-05,-1.71418e-05,-4.57055e-06,9.00109e-06,-1.59366e-05,1.65103e-05,-7.72895e-06,0
-3.25404e-05,1.74815e-05,-1.50145e-05,-8.87123e-06,7.07983e-06,-1.27875e-05,1.39486e-05,-7.50867e-06,0
-3.22805e-05,1.45208e-05,-1.37199e-05,-1.2196e-05,7.22411e-06,-1.05503e-05,1.15656e-05,-7.36001e-06,0
-3.07983e-05,1.22411e-05,-1.55616e-05,-1.71227e-05,8.33394e-06,-1.02988e-05,1.03228e-05,-7.05582e-06,0
-3.07391e-05,1.14342e-05,-1.94776e-05,-2.45785e-05,9.20118e-06,-1.06809e-05,9.57285e-06,-6.92356e-06,0
-3.31005e-05,9.73835e-06,-2.22126e-05,-2.81575e-05,1.00396e-05,-1.23458e-05,8.68686e-06,-7.32879e-06,0
-3.454e-05,7.93958e-06,-2.18183e-05,-2.40722e-05,8.31981e-06,-1.47172e-05,9.19855e-06,-7.57467e-06,0
-3.4056e-05,6.88973e-06,-1.93336e-05,-1.658e-05,6.17222e-06,-1.621e-05,1.0521e-05,-6.31177e-06,0
-3.26048e-05,5.91643e-06,-1.60392e-05,-1.15813e-05,8.34541e-06,-1.58143e-05,1.08794e-05,-5.1637e-06,0
-3.27826e-05,6.12183e-06,-1.36152e-05,-9.86743e-06,9.49308e-06,-1.547e-05,1.10509e-05,-5.89971e-06,0
-3.49477e-05,6.13799e-06,-1.21738e-05,-8.97203e-06,5.60145e-06,-1.55989e-05,1.21794e-05,-5.9739e-06,0
-3.54179e-05,5.16829e-06,-1.12765e-05,-9.59679e-06,1.97117e-06,-1.54552e-05,1.41491e-05,-4.41791e-06,0
-3.43598e-05,5.46705e-06,-1.13749e-05,-1.03453e-05,2.08527e-06,-1.6149e-05,1.55647e-05,-1.70249e-06,0
-3.39487e-05,8.03465e-06,-1.22926e-05,-1.025e-05,4.34792e-06,-1.72288e-05,1.58989e-05,5.77122e-07,0
-3.3809e-05,1.08129e-05,-1.24041e-05,-1.06784e-05,7.63229e-06,-1.86129e-05,1.58211e-05,-6.90403e-10,0
-3.33367e-05,1.1139e-05,-1.10633e-05,-1.30337e-05,1.02794e-05,-1.98258e-05,1.67683e-05,-1.7641e-06,0
-3.26831e-05,7.55398e-06,-8.70959e-06,-1.9068e-05,9.4245e-06,-2.07305e-05,1.68613e-05,-1.85614e-06,0
-3.2727e-05,3.6192e-06,-7.16361e-06,-2.66831e-05,4.95846e-06,-2.0179e-05,1.55322e-05,-7.50143e-07,0
-3.29315e-05,3.91273e-06,-7.54847e-06,-3.63807e-05,1.68419e-06,-1.8651e-05,1.42083e-05,1.35665e-06,0
-3.26296e-05,6.4694e-06,-8.0747e-06,-4.84099e-05,4.44945e-06,-1.67866e-05,1.37269e-05,2.51131e-06,0
-3.26518e-05,7.11784e-06,-7.1094e-06,-5.51021e-05,1.23906e-05,-1.60509e-05,1.39486e-05,1.66702e-06,0
-3.23872e-05,5.51166e-06,-6.32683e-06,-5.01628e-05,2.19456e-05,-1.73136e-05,1.31284e-05,-1.89371e-07,0
-3.19214e-05,3.91347e-06,-7.34789e-06,-3.58178e-05,2.72443e-05,-1.88057e-05,1.16739e-05,-1.99803e-06,0
-3.15905e-05,4.70453e-06,-8.40884e-06,-1.81836e-05,2.59461e-05,-1.90077e-05,1.15603e-05,-2.8472e-06,0
-3.05023e-05,7.11189e-06,-7.36374e-06,-4.59856e-06,2.16171e-05,-1.80039e-05,1.24274e-05,-2.19658e-06,0
-2.87538e-05,9.16819e-06,-4.8481e-06,2.42333e-06,1.79867e-05,-1.76189e-05,1.18228e-05,-2.02262e-06,0
-2.78073e-05,1.09345e-05,-3.73956e-06,9.40477e-06,1.66265e-05,-1.84941e-05,1.02022e-05,-3.69045e-06,0
-2.82267e-05,1.28957e-05,-5.07507e-06,2.26525e-05,1.64626e-05,-1.97326e-05,9.26928e-06,-4.3716e-06,0
-2.94022e-05,1.56759e-05,-6.1653e-06,3.9249e-05,1.5784e-05,-2.01922e-05,8.83622e-06,-2.77321e-06,0
-3.08661e-05,1.91895e-05,-4.69111e-06,5.32015e-05,1.45821e-05,-2.05212e-05,7.44203e-06,1.573e-07,0
-3.23087e-05,2.05739e-05,-2.99186e-06,5.89645e-05,1.42964e-05,-1.97931e-05,7.21393e-06,2.56595e-06,0
-3.27595e-05,1.92019e-05,-2.81054e-06,5.63623e-05,1.64829e-05,-1.77396e-05,9.86784e-06,3.88818e-06,0
-3.23555e-05,1.71083e-05,-3.58955e-06,4.76386e-05,1.80337e-05,-1.63011e-05,1.21995e-05,3.70455e-06,0
-3.1831e-05,1.53403e-05,-4.81454e-06,3.45783e-05,1.67134e-05,-1.64108e-05,1.36338e-05,3.83013e-06,0
-3.0544e-05,1.43963e-05,-3.82241e-06,2.16193e-05,1.65335e-05,-1.70305e-05,1.45552e-05,5.54942e-06,0
-2.77483e-05,1.33786e-05,-1.17667e-06,1.5049e-05,1.8137e-05,-1.92948e-05,1.43754e-05,5.44451e-06,0
-2.4458e-05,1.05384e-05,7.24326e-07,1.45234e-05,1.97914e-05,-1.99952e-05,1.1665e-05,3.25353e-06,0
-2.42296e-05,7.65493e-06,1.29977e-07,1.21853e-05,1.90463e-05,-1.75447e-05,9.57604e-06,2.2194e-06,0
-2.60713e-05,7.76319e-06,-2.54105e-06,7.64744e-06,1.57617e-05,-1.56537e-05,1.08678e-05,2.10594e-06,0
-2.80334e-05,6.36958e-06,-5.07632e-06,2.96548e-06,1.15386e-05,-1.42991e-05,1.17546e-05,2.08029e-06,0
-2.91591e-05,2.74133e-06,-6.87265e-06,-1.89305e-07,8.84815e-06,-1.33715e-05,1.25586e-05,4.03556e-06,0
-2.94391e-05,-1.2182e-06,-7.81193e-06,-2.39654e-06,8.02954e-06,-1.22244e-05,1.40133e-05,7.64452e-06,0
-3.07549e-05,-2.86302e-06,-9.25434e-06,-4.32147e-06,6.58554e-06,-1.09572e-05,1.50276e-05,1.05168e-05,0
-3.13182e-05,-1.79184e-06,-1.01208e-05,-7.8036e-06,4.02356e-06,-9.1614e-06,1.58269e-05,1.09936e-05,0
-3.02467e-05,3.65579e-07,-9.7021e-06,-1.21242e-05,1.38144e-06,-7.76973e-06,1.70844e-05,9.13735e-06,0
-2.90281e-05,5.84358e-06,-9.8756e-06,-1.45424e-05,4.52166e-07,-6.56622e-06,1.69212e-05,7.14067e-06,0
-2.88578e-05,1.04055e-05,-1.14995e-05,-1.57911e-05,3.87665e-07,-6.38189e-06,1.49928e-05,6.14517e-06,0
-2.93227e-05,1.15204e-05,-1.20184e-05,-1.74259e-05,6.61759e-07,-8.21061e-06,1.36812e-05,5.24099e-06,0
-2.9433e-05,1.06462e-05,-1.07342e-05,-1.94867e-05,8.91077e-07,-1.07279e-05,1.30426e-05,4.24789e-06,0
-2.85836e-05,1.10954e-05,-9.31976e-06,-1.85945e-05,1.98275e-06,-1.33213e-05,1.27246e-05,4.32587e-06,0
-2.78264e-05,1.33415e-05,-7.92956e-06,-1.42299e-05,5.76486e-06,-1.50175e-05,1.27942e-05,4.62029e-06,0
