ch1,ch2,ch3,ch4,ch5,ch6,ch7,ch8,class
-2.95413e-05,6.97045e-06,-7.61772e-07,1.29627e-06,1.70831e-05,-7.4957e-06,1.52487e-05,-2.081e-06,0
-3.0103e-05,8.28666e-06,-1.24865e-06,2.44435e-06,1.73132e-05,-8.73303e-06,1.33701e-05,-1.62255e-06,0
-3.00454e-05,1.07474e-05,-4.35555e-06,2.77721e-06,1.72622e-05,-9.08304e-06,1.13385e-05,-1.06519e-06,0
-2.81815e-05,1.09163e-05,-8.01834e-06,6.65159e-07,1.70418e-05,-8.76706e-06,9.44111e-06,-7.87832e-07,0
-2.68036e-05,9.79252e-06,-9.7256e-06,-3.54902e-06,1.53632e-05,-9.85659e-06,7.92955e-06,-1.41019e-06,0
-2.83383e-05,9.36341e-06,-1.06895e-05,-6.60617e-06,1.41533e-05,-1.16987e-05,6.95754e-06,-6.02666e-07,0
-3.04412e-05,9.14813e-06,-1.16586e-05,-7.72855e-06,1.68653e-05,-1.2003e-05,6.56822e-06,2.49306e-06,0
-3.00258e-05,7.81667e-06,-1.29392e-05,-7.9368e-06,2.26602e-05,-1.07717e-05,6.86854e-06,5.27652e-06,0
-2.85029e-05,7.13135e-06,-1.36966e-05,-7.87957e-06,2.6938e-05,-8.30025e-06,7.87392e-06,5.09538e-06,0
-2.77455e-05,7.0231e-06,-1.44331e-05,-7.36442e-06,2.59888e-05,-6.11187e-06,9.22753e-06,3.28724e-06,0
-2.79238e-05,5.51408e-06,-1.57703e-05,-7.79909e-06,2.01762e-05,-5.8787e-06,1.1617e-05,2.33312e-06,0
-2.89442e-05,2.6802e-06,-1.71201e-05,-9.86052e-06,1.42522e-05,-8.0735e-06,1.3865e-05,2.46262e-06,0
-2.9559e-05,1.71944e-06,-1.73863e-05,-1.17466e-05,1.05612e-05,-1.05682e-05,1.44073e-05,2.52228e-06,0
-2.9054e-05,3.57796e-06,-1.61646e-05,-1.12161e-05,8.491e-06,-1.09869e-05,1.40091e-05,2.27709e-06,0
-2.82546e-05,6.59205e-06,-1.3276e-05,-8.81614e-06,9.04714e-06,-9.49815e-06,1.56193e-05,2.36753e-06,0
-2.79513e-05,9.20153e-06,-9.35181e-06,-7.4032e-06,1.27812e-05,-8.54618e-06,1.7452e-05,2.74933e-06,0
-2.87027e-05,1.02192e-05,-5.15122e-06,-7.79047e-06,1.55107e-05,-8.59313e-06,1.7063e-05,2.86264e-06,0
-2.88027e-05,9.43395e-06,-1.10397e-06,-8.29337e-06,1.49921e-05,-8.746e-06,1.50456e-05,2.48604e-06,0
-2.73592e-05,7.20863e-06,8.89735e-07,-9.16275e-06,1.2446e-05,-9.04718e-06,1.42806e-05,3.48871e-06,0
-2.7721e-05,4.9968e-06,1.35961e-06,-9.653e-06,1.06987e-05,-9.09513e-06,1.51238e-05,4.7664e-06,0
-3.06552e-05,4.01267e-06,2.66525e-06,-1.02397e-05,1.27049e-05,-7.26217e-06,1.64323e-05,4.50151e-06,0
-3.41034e-05,2.38282e-06,3.55606e-06,-1.02702e-05,1.54565e-05,-6.73023e-06,1.67669e-05,3.57243e-06,0
-3.51851e-05,4.29706e-07,1.65481e-06,-9.77941e-06,1.52075e-05,-7.80219e-06,1.5708e-05,4.00948e-06,0
-3.50985e-05,-2.1166e-07,-2.15783e-06,-1.03853e-05,1.31041e-05,-9.17979e-06,1.4807e-05,4.95678e-06,0
-3.54758e-05,-7.27657e-07,-6.1602e-06,-1.07558e-05,1.3727e-05,-1.03697e-05,1.46358e-05,4.18601e-06,0
-3.53538e-05,-1.00957e-06,-8.58028e-06,-1.09739e-05,1.51169e-05,-1.06904e-05,1.47411e-05,1.51813e-06,0
-3.52385e-05,1.37334e-06,-1.06685e-05,-1.08654e-05,1.44235e-05,-1.15712e-05,1.32963e-05,-9.91554e-07,0
-3.45959e-05,4.26563e-06,-1.42593e-05,-1.07264e-05,1.35445e-05,-1.33337e-05,1.23375e-05,-4.66136e-07,0
-3.39948e-05,5.55937e-06,-1.66688e-05,-1.03316e-05,1.37035e-05,-1.50689e-05,1.25005e-05,1.7242e-06,0
-3.38062e-05,6.11629e-06,-1.51888e-05,-1.01457e-05,1.56582e-05,-1.48992e-05,1.22833e-05,2.45976e-06,0
-3.4202e-05,7.27186e-06,-1.03119e-05,-1.08884e-05,1.60936e-05,-1.45341e-05,1.23485e-05,1.21649e-06,0
-3.47613e-05,9.70967e-06,-6.69131e-06,-1.24918e-05,1.47884e-05,-1.42272e-05,1.33017e-05,-4.81023e-07,0
-3.58126e-05,1.12918e-05,-6.29082e-06,-1.32726e-05,1.33625e-05,-1.39656e-05,1.32188e-05,-1.58677e-06,0
-3.59313e-05,1.20116e-05,-6.41723e-06,-1.27105e-05,1.25045e-05,-1.40354e-05,8.82016e-06,-2.54921e-06,0
-3.39233e-05,1.35691e-05,-5.32601e-06,-1.13985e-05,1.24231e-05,-1.48875e-05,5.1688e-07,-3.0469e-06,0
-3.20539e-05,1.67448e-05,-4.12775e-06,-9.01961e-06,1.22897e-05,-1.52781e-05,-7.97179e-06,-1.40982e-06,0
-3.15473e-05,1.86691e-05,-3.32293e-06,-6.67514e-06,1.18495e-05,-1.47128e-05,-1.23384e-05,1.47958e-06,0
-3.2227e-05,1.84151e-05,-2.44688e-06,-6.26528e-06,1.18772e-05,-1.33976e-05,-9.7638e-06,2.0189e-06,0
-3.30994e-05,1.77342e-05,-2.11128e-06,-7.0934e-06,1.28288e-05,-1.27659e-05,-3.49626e-06,-3.50623e-07,0
-3.38656e-05,1.73638e-05,-3.02976e-06,-7.04488e-06,1.33369e-05,-1.43139e-05,1.75845e-06,-2.3754e-06,0
-3.40492e-05,1.69687e-05,-3.89917e-06,-5.07371e-06,1.33132e-05,-1.60723e-05,5.96768e-06,-2.27e-06,0
-3.34749e-05,1.8162e-05,-3.17429e-06,-1.52378e-06,1.30728e-05,-1.52653e-05,1.11269e-05,-6.91173e-07,0
-3.26876e-05,2.01337e-05,-2.63884e-06,6.82306e-07,1.27541e-05,-1.30968e-05,1.69929e-05,6.31629e-07,0
-3.2517e-05,1.99001e-05,-3.83806e-06,1.76713e-06,1.29542e-05,-1.36878e-05,2.09602e-05,1.39654e-06,0
-3.29078e-05,1.85561e-05,-7.14643e-06,5.19697e-06,1.39032e-05,-1.57682e-05,2.26664e-05,2.33792e-06,0
-3.25402e-05,1.77095e-05,-1.14124e-05,1.02927e-05,1.39883e-05,-1.6171e-05,2.24668e-05,3.85351e-06,0
-3.06563e-05,1.90211e-05,-1.70181e-05,1.26394e-05,1.41924e-05,-1.37371e-05,2.07574e-05,5.74607e-06,0
-2.74819e-05,2.23476e-05,-2.22776e-05,1.032e-05,1.43306e-05,-1.1246e-05,1.98072e-05,6.27942e-06,0
-2.4611e-05,2.42864e-05,-2.28301e-05,7.08525e-06,1.39404e-05,-1.05325e-05,1.93969e-05,4.24034e-06,0
-2.54647e-05,2.30576e-05,-1.9462e-05,6.48186e-06,1.41896e-05,-1.08696e-05,1.89629e-05,1.71508e-06,0
-2.90256e-05,2.30421e-05,-1.54003e-05,6.33239e-06,1.55801e-05,-1.08066e-05,2.15131e-05,2.18618e-06,0
-3.06997e-05,2.60994e-05,-1.30734e-05,4.57917e-06,1.63616e-05,-9.60739e-06,2.68578e-05,3.56359e-06,0
-2.94644e-05,2.82234e-05,-1.23954e-05,-4.98919e-07,1.52495e-05,-8.40038e-06,3.19606e-05,2.61955e-06,0
-2.90433e-05,2.88894e-05,-1.11921e-05,-6.50829e-06,1.41044e-05,-8.22566e-06,3.2268e-05,7.16322e-07,0
-3.04813e-05,2.95831e-05,-1.08848e-05,-1.01542e-05,1.38123e-05,-1.01423e-05,2.70956e-05,-8.62589e-07,0
-3.22132e-05,3.10529e-05,-1.16523e-05,-9.72957e-06,1.48989e-05,-1.30809e-05,2.18503e-05,-2.10452e-06,0
-3.30773e-05,3.1012e-05,-1.3369e-05,-5.17109e-06,1.69364e-05,-1.41297e-05,1.76944e-05,-2.54996e-06,0
-3.22766e-05,2.98197e-05,-1.44528e-05,1.21456e-06,1.84063e-05,-1.38141e-05,1.53044e-05,-3.1296e-06,0
-3.12076e-05,3.02747e-05,-1.34101e-05,7.26345e-06,1.89401e-05,-1.29744e-05,1.42582e-05,-5.04719e-06,0
-3.07695e-05,3.15359e-05,-1.18032e-05,9.5999e-06,1.92613e-05,-1.20895e-05,1.40666e-05,-5.73875e-06,0
-3.04536e-05,3.10987e-05,-1.04818e-05,5.57632e-06,1.88801e-05,-1.17412e-05,1.5061e-05,-4.34472e-06,0
-2.95037e-05,2.85001e-05,-9.26436e-06,-1.66432e-06,1.83619e-05,-1.14752e-05,1.54853e-05,-3.44464e-06,0
-2.94556e-05,2.67571e-05,-7.18692e-06,-6.8984e-06,1.77006e-05,-9.95974e-06,1.32773e-05,-3.11396e-06,0
-3.08543e-05,2.69892e-05,-5.57629e-06,-1.06778e-05,1.7112e-05,-7.74656e-06,9.41941e-06,-3.16366e-06,0
-3.26171e-05,2.76027e-05,-4.68299e-06,-1.45091e-05,1.6026e-05,-6.43654e-06,7.29662e-06,-4.71361e-06,0
-3.3192e-05,2.6852e-05,-4.75692e-06,-1.65083e-05,1.39715e-05,-6.46874e-06,7.50231e-06,-6.08088e-06,0
-3.3203e-05,2.52406e-05,-6.02842e-06,-1.21632e-05,1.25865e-05,-8.58273e-06,8.24296e-06,-5.48121e-06,0
-3.34952e-05,2.34865e-05,-7.92372e-06,-3.73605e-06,1.22707e-05,-1.15723e-05,7.44913e-06,-3.03653e-06,0
-3.34764e-05,2.27656e-05,-8.75707e-06,9.11542e-07,1.19891e-05,-1.21082e-05,5.02119e-06,-5.79322e-07,0
-3.34343e-05,2.30869e-05,-8.25299e-06,-1.70298e-06,1.17944e-05,-9.64519e-06,1.31494e-06,-2.08922e-07,0
-3.30529e-05,2.36861e-05,-7.24281e-06,-7.52518e-06,1.16212e-05,-8.24433e-06,2.25546e-07,-1.66349e-06,0
-3.23512e-05,2.31868e-05,-6.87761e-06,-1.13109e-05,1.12943e-05,-8.10671e-06,2.40755e-06,-2.30678e-06,0
-3.18647e-05,2.21981e-05,-6.9746e-06,-1.14214e-05,1.20645e-05,-7.33088e-06,3.43821e-06,-1.81868e-06,0
-3.10818e-05,2.09298e-05,-6.29013e-06,-8.87924e-06,1.40522e-05,-5.45747e-06,5.36494e-06,-9.57634e-07,0
-3.01291e-05,1.92284e-05,-5.55475e-06,-3.85017e-06,1.56306e-05,-3.66089e-06,1.26698e-05,1.0353e-06,0
-3.08019e-05,1.64626e-05,-7.43425e-06,1.99574e-06,1.39583e-05,-9.56324e-07,2.35273e-05,3.62081e-06,0
-3.28262e-05,1.50056e-05,-1.00998e-05,5.43529e-06,1.18534e-05,2.75609e-06,3.13905e-05,4.47695e-06,0
-3.31933e-05,1.52531e-05,-9.00057e-06,6.19518e-06,1.08477e-05,4.66995e-06,3.27115e-05,2.46196e-06,0
-3.10154e-05,1.3387e-05,-5.17131e-06,4.601e-06,1.16564e-05,5.14685e-06,3.09475e-05,1.84378e-06,0
-2.86574e-05,1.19953e-05,-2.95982e-06,2.76704e-06,1.45227e-05,4.86259e-06,2.76553e-05,2.3668e-06,0
-2.89219e-05,1.11513e-05,-4.51923e-06,2.08344e-06,1.43856e-05,3.19584e-06,2.0631e-05,7.43853e-07,0
-3.10141e-05,1.1095e-05,-5.9647e-06,-1.8363e-08,1.0907e-05,8.83885e-07,4.36477e-06,-2.51756e-06,0
-3.23819e-05,1.17893e-05,-5.47593e-06,-2.29686e-06,6.96176e-06,-1.30954e-06,-2.34747e-05,-4.83022e-06,0
-3.37179e-05,1.17307e-05,-4.98571e-06,-2.24493e-06,4.48343e-06,-2.47235e-06,-4.96201e-05,-6.0565e-06,0
-3.48337e-05,9.98541e-06,-5.34432e-06,-1.87219e-07,3.37995e-06,-3.00589e-06,-5.87183e-05,-5.95222e-06,0
-3.40295e-05,8.59411e-06,-5.19007e-06,2.3967e-06,2.50618e-06,-4.63759e-06,-4.88644e-05,-4.60879e-06,0
-3.25414e-05,7.84608e-06,-2.82565e-06,3.57077e-06,1.73464e-06,-6.66502e-06,-2.95936e-05,-3.64384e-06,0
-3.17746e-05,7.41448e-06,8.05555e-07,4.04432e-06,3.43847e-06,-8.75519e-06,-8.05439e-06,-3.39302e-06,0
-3.04504e-05,7.8866e-06,1.93298e-06,4.3826e-06,6.38658e-06,-1.04976e-05,1.24658e-05,-3.56698e-06,0
-2.90479e-05,8.42906e-06,-6.41747e-07,4.12247e-06,7.06747e-06,-1.16986e-05,2.76892e-05,-3.21968e-06,0
-2.88634e-05,8.75368e-06,-5.42974e-06,2.48717e-06,6.0072e-06,-1.19893e-05,3.53405e-05,-2.4242e-06,0
-2.93712e-05,7.70443e-06,-1.08401e-05,7.23404e-07,5.03121e-06,-1.24527e-05,3.72957e-05,-1.2313e-06,0
-2.93828e-05,6.14427e-06,-1.63009e-05,-8.55895e-07,4.78229e-06,-1.35298e-05,3.72396e-05,-1.59053e-07,0
-2.82357e-05,4.99227e-06,-2.13787e-05,-2.14636e-06,4.82882e-06,-1.42273e-05,3.66078e-05,1.50805e-06,0
-2.65308e-05,4.12047e-06,-2.38337e-05,-3.17002e-06,4.73883e-06,-1.38189e-05,3.58699e-05,2.51461e-06,0
-2.62988e-05,2.63215e-06,-2.12187e-05,-7.17392e-06,4.29765e-06,-1.15426e-05,3.45797e-05,1.8759e-06,0
-2.85137e-05,2.66656e-06,-1.4806e-05,-1.535e-05,4.35251e-06,-7.84608e-06,3.22435e-05,4.22224e-07,0
-2.96563e-05,3.73703e-06,-8.83094e-06,-2.16328e-05,3.72892e-06,-4.45244e-06,3.04327e-05,4.18289e-07,0
-2.71271e-05,3.50322e-06,-5.50099e-06,-2.24614e-05,2.17131e-06,-2.65907e-06,3.05393e-05,2.28659e-06,0
-2.53885e-05,2.36402e-06,-3.66721e-06,-1.88e-05,1.11506e-06,-8.19795e-07,3.20949e-05,3.60382e-06,0
-2.74879e-05,4.56098e-07,-2.33735e-06,-1.55007e-05,1.88124e-07,3.46454e-07,3.45279e-05,4.36306e-06,0
-3.00935e-05,-2.08682e-07,-2.50304e-06,-1.68785e-05,5.93516e-07,-1.15426e-07,3.71518e-05,6.14708e-06,0
-3.0725e-05,1.11579e-06,-1.30573e-06,-1.96444e-05,2.9475e-06,-1.58102e-06,3.7106e-05,6.57015e-06,0
-2.93887e-05,3.11881e-07,2.52774e-06,-2.18134e-05,6.01966e-06,-2.318e-06,3.33278e-05,5.03684e-06,0
-2.78111e-05,-8.9718e-08,5.0814e-06,-2.18096e-05,8.36102e-06,-2.4481e-06,2.82145e-05,4.02906e-06,0
-2.69627e-05,6.10028e-07,3.09797e-06,-1.96012e-05,9.91698e-06,-4.16572e-06,2.44732e-05,4.03979e-06,0
-2.51899e-05,1.31139e-06,-6.22851e-07,-1.66629e-05,1.23349e-05,-5.3328e-06,2.21003e-05,4.86762e-06,0
-2.44337e-05,2.07715e-06,-2.99022e-06,-1.07927e-05,1.43759e-05,-5.21398e-06,1.7084e-05,4.71389e-06,0
-2.49198e-05,2.94359e-06,-2.95431e-06,1.60321e-06,1.4375e-05,-5.31276e-06,1.05565e-05,3.6278e-06,0
-2.47641e-05,5.76237e-06,-2.18222e-06,1.75723e-05,1.30996e-05,-6.2071e-06,5.33957e-06,2.82772e-06,0
-2.54605e-05,7.08062e-06,-2.84572e-06,3.10946e-05,1.33458e-05,-7.0518e-06,7.7375e-07,2.31471e-06,0
-2.67947e-05,7.34819e-06,-2.98794e-06,3.6422e-05,1.53652e-05,-8.30893e-06,-3.76478e-06,2.06219e-06,0
-2.69449e-05,6.82218e-06,-2.94219e-06,3.03384e-05,1.71867e-05,-9.81425e-06,-6.64544e-06,2.90839e-06,0
-2.69699e-05,6.97351e-06,-3.6711e-06,1.65584e-05,1.64059e-05,-1.03841e-05,-5.81882e-06,3.85528e-06,0
-2.81009e-05,8.74811e-06,-4.98654e-06,3.13508e-06,1.44584e-05,-1.06593e-05,-1.52978e-06,3.514e-06,0
-2.85994e-05,1.15387e-05,-5.76788e-06,-4.21313e-06,1.43708e-05,-1.07427e-05,3.10003e-06,1.9792e-06,0
-2.9548e-05,1.34001e-05,-5.6167e-06,-7.01377e-06,1.55756e-05,-1.08023e-05,5.38276e-06,1.15252e-06,0
-3.15771e-05,1.44659e-05,-5.09555e-06,-9.07148e-06,1.70172e-05,-1.18259e-05,6.06192e-06,1.75135e-06,0
-3.25124e-05,1.55178e-05,-4.5885e-06,-1.21528e-05,1.78811e-05,-1.36622e-05,5.63375e-06,3.20868e-06,0
-3.14839e-05,1.54765e-05,-4.17359e-06,-1.75006e-05,1.71179e-05,-1.5026e-05,3.52647e-06,5.17865e-06,0
-2.96852e-05,1.40221e-05,-4.98873e-06,-2.48403e-05,1.43376e-05,-1.65035e-05,-1.01688e-06,6.49297e-06,0
-2.8173e-05,1.21883e-05,-6.90586e-06,-2.82433e-05,1.21068e-05,-1.74365e-05,-4.63137e-06,6.39006e-06,0
-2.7474e-05,1.3061e-05,-7.28707e-06,-2.33367e-05,1.13237e-05,-1.59987e-05,-3.3714e-06,5.52703e-06,0
-2.78118e-05,1.47525e-05,-6.12173e-06,-1.32124e-05,1.16644e-05,-1.25532e-05,1.35165e-06,4.56224e-06,0
-2.89428e-05,1.49596e-05,-6.15646e-06,-4.9923e-06,1.22602e-05,-9.62196e-06,5.70019e-06,3.44155e-06,0
-3.08055e-05,1.28343e-05,-8.51988e-06,-4.30886e-06,1.27436e-05,-8.94975e-06,9.44232e-06,2.52739e-06,0
-3.30049e-05,1.01681e-05,-1.22399e-05,-8.0481e-06,1.37859e-05,-1.08258e-05,1.33314e-05,2.08547e-06,0
-3.41767e-05,9.02615e-06,-1.34113e-05,-9.05903e-06,1.43769e-05,-1.29031e-05,1.74163e-05,2.64863e-06,0
-3.38426e-05,8.64972e-06,-1.19499e-05,-7.72222e-06,1.44817e-05,-1.38351e-05,2.04769e-05,3.75728e-06,0
-3.3111e-05,6.30054e-06,-1.16122e-05,-6.87527e-06,1.57871e-05,-1.27798e-05,2.07802e-05,3.94496e-06,0
-3.21042e-05,3.95483e-06,-1.1036e-05,-8.72324e-06,1.66067e-05,-9.63368e-06,2.05404e-05,1.29231e-06,0
-3.07561e-05,4.10634e-06,-1.04489e-05,-1.04443e-05,1.55829e-05,-7.75595e-06,2.16105e-05,-8.48312e-07,0
-3.05956e-05,5.82727e-06,-8.83434e-06,-8.71198e-06,1.31873e-05,-8.24359e-06,2.10583e-05,9.72403e-07,0
-3.06827e-05,8.32325e-06,-7.5067e-06,-5.74322e-06,1.23959e-05,-1.13787e-05,1.68308e-05,2.85591e-06,0
-3.04633e-05,8.32502e-06,-9.91361e-06,-2.76342e-06,1.386e-05,-1.43657e-05,1.086e-05,2.53865e-06,0
-3.02984e-05,5.70133e-06,-1.19488e-05,-2.67549e-06,1.44985e-05,-1.49395e-05,7.6135e-06,8.09977e-07,0
-2.81315e-05,2.47031e-06,-1.03815e-05,-4.96332e-06,1.51208e-05,-1.41272e-05,8.31706e-06,-5.18903e-07,0
-2.61373e-05,7.48648e-07,-7.64047e-06,-6.2084e-06,1.70221e-05,-1.25531e-05,9.02704e-06,-6.48712e-08,0
-2.64356e-05,1.20857e-06,-5.61064e-06,-6.55006e-06,1.905e-05,-1.08932e-05,8.49884e-06,1.65481e-06,0
-2.71391e-05,1.22337e-06,-4.03248e-06,-6.47604e-06,1.90126e-05,-9.4193e-06,6.82818e-06,2.03639e-06,0
-2.74174e-05,6.08084e-07,-4.35238e-06,-5.85931e-06,1.8371e-05,-8.33481e-06,3.48078e-06,1.04963e-06,0
-2.83959e-05,-4.49955e-07,-5.97316e-06,-5.54983e-06,1.90616e-05,-7.62946e-06,-6.70475e-08,-2.04601e-07,0
-2.96205e-05,-6.05781e-07,-6.94258e-06,-5.24887e-06,2.0252e-05,-8.19828e-06,-9.25839e-07,-1.72577e-06,0
-3.02729e-05,1.07479e-06,-7.12533e-06,-4.87926e-06,2.03151e-05,-8.38619e-06,1.11757e-06,-2.15186e-06,0
-3.07489e-05,3.86551e-06,-7.2021e-06,-5.34547e-06,1.87939e-05,-6.71115e-06,4.40687e-06,-2.08204e-06,0
-3.16784e-05,7.61582e-06,-7.56722e-06,-6.83366e-06,1.67094e-05,-5.45878e-06,6.9113e-06,-1.73361e-06,0
-3.27888e-05,1.12475e-05,-8.61482e-06,-8.61924e-06,1.57161e-05,-4.89396e-06,8.28626e-06,-1.7267e-06,0
-3.35698e-05,1.35006e-05,-1.00619e-05,-9.64465e-06,1.51574e-05,-2.81751e-06,1.21079e-05,-1.76898e-06,0
-3.30061e-05,1.27399e-05,-1.04811e-05,-9.13247e-06,1.44362e-05,-6.03903e-07,2.11917e-05,-6.50563e-07,0
-3.09209e-05,9.69283e-06,-8.50639e-06,-7.43728e-06,1.40296e-05,-1.64238e-06,3.26174e-05,4.21313e-07,0
-2.87666e-05,8.42082e-06,-5.94257e-06,-6.41895e-06,1.4487e-05,-4.72252e-06,3.96222e-05,1.25221e-07,0
-2.83086e-05,9.9072e-06,-5.69453e-06,-6.5676e-06,1.64162e-05,-6.19601e-06,3.65767e-05,-9.65789e-08,0
-3.05755e-05,1.13184e-05,-6.07324e-06,-6.86554e-06,1.67649e-05,-5.84749e-06,2.5909e-05,1.1456e-06,0
-3.3749e-05,1.04609e-05,-6.26965e-06,-6.95426e-06,1.53214e-05,-5.57265e-06,1.69951e-05,2.4835e-06,0
-3.53873e-05,6.94606e-06,-7.01302e-06,-7.48604e-06,1.48817e-05,-5.51351e-06,1.28188e-05,2.55249e-06,0
-3.48468e-05,6.21987e-06,-6.18955e-06,-8.20119e-06,1.43914e-05,-5.5574e-06,1.15119e-05,2.48339e-06,0
-3.46597e-05,1.07708e-05,-4.53168e-06,-9.20304e-06,1.36186e-05,-5.8002e-06,1.16322e-05,2.96091e-06,0
-3.40251e-05,1.54849e-05,-5.44669e-06,-1.23178e-05,1.51576e-05,-7.77392e-06,1.00996e-05,4.32439e-07,0
-3.10133e-05,1.71667e-05,-5.24573e-06,-1.63229e-05,1.79215e-05,-8.62944e-06,5.32891e-06,-1.83362e-06,0
-2.91452e-05,1.58286e-05,-3.40885e-06,-1.77717e-05,1.85267e-05,-7.58522e-06,-5.54566e-07,-6.21449e-07,0
-3.02605e-05,1.34237e-05,-3.89395e-06,-1.4343e-05,1.7925e-05,-6.44968e-06,-3.57635e-06,1.69273e-06,0
-3.20642e-05,1.26387e-05,-5.62847e-06,-8.93396e-06,1.78975e-05,-4.77586e-06,-2.81649e-06,5.22253e-06,0
-3.16674e-05,1.38901e-05,-5.03336e-06,-4.44599e-06,1.72323e-05,-5.20835e-06,-9.55453e-07,7.28025e-06,0
-2.90716e-05,1.53348e-05,-2.35088e-06,2.65339e-06,1.60803e-05,-6.91008e-06,2.09549e-07,7.64603e-06,0
-2.80599e-05,1.42345e-05,-1.90124e-06,1.12309e-05,1.61723e-05,-9.05293e-06,1.69312e-06,6.36734e-06,0
-2.85366e-05,1.18839e-05,-4.40336e-06,1.58486e-05,1.65704e-05,-1.08695e-05,4.67366e-06,5.18919e-06,0
-2.90122e-05,1.05626e-05,-8.73643e-06,1.48561e-05,1.74565e-05,-1.15905e-05,9.75456e-06,4.82049e-06,0
-2.95806e-05,1.07051e-05,-1.36983e-05,9.80215e-06,1.91665e-05,-1.15854e-05,1.40406e-05,4.15903e-06,0
-2.96024e-05,1.14302e-05,-1.77175e-05,1.53762e-06,1.95671e-05,-1.16439e-05,1.60957e-05,3.20988e-06,0
-2.94944e-05,1.19788e-05,-1.86672e-05,-7.19416e-06,1.78112e-05,-1.22662e-05,1.76928e-05,2.03719e-06,0
-2.94897e-05,1.2666e-05,-1.84383e-05,-1.19711e-05,1.54394e-05,-1.26211e-05,1.83177e-05,1.71154e-06,0
-3.00758e-05,1.25614e-05,-1.87446e-05,-1.27301e-05,1.43734e-05,-1.13393e-05,1.75365e-05,1.64952e-06,0
-3.09027e-05,1.33394e-05,-1.83401e-05,-1.25638e-05,1.38361e-05,-9.66751e-06,1.68347e-05,1.14744e-06,0
-3.11795e-05,1.6527e-05,-1.62704e-05,-1.14978e-05,1.34954e-05,-1.05561e-05,1.74129e-05,-2.4353e-07,0
-3.06289e-05,2.04361e-05,-1.38027e-05,-8.28466e-06,1.32371e-05,-1.27129e-05,1.40467e-05,-1.72115e-06,0
-3.03291e-05,2.3489e-05,-1.29582e-05,-5.9305e-06,1.30434e-05,-1.36469e-05,-2.43085e-06,-3.79091e-06,0
-3.09626e-05,2.56419e-05,-1.22823e-05,-5.75563e-06,1.27354e-05,-1.39772e-05,-3.01635e-05,-4.98456e-06,0
-3.18935e-05,2.56812e-05,-1.06789e-05,-5.49192e-06,1.22388e-05,-1.54164e-05,-4.94313e-05,-4.8334e-06,0
-3.15948e-05,2.40022e-05,-8.85601e-06,-4.45096e-06,1.32513e-05,-1.51875e-05,-4.58685e-05,-3.83658e-06,0
-2.99901e-05,2.36355e-05,-8.08879e-06,-1.85069e-06,1.44214e-05,-1.28079e-05,-2.43476e-05,-3.61973e-06,0
-2.88135e-05,2.4691e-05,-9.2269e-06,2.25e-06,1.31512e-05,-1.13768e-05,1.88934e-06,-3.08869e-06,0
-2.88587e-05,2.65722e-05,-1.15108e-05,5.95542e-06,1.14585e-05,-1.09575e-05,2.04262e-05,-2.60293e-06,0
-3.02186e-05,2.96045e-05,-1.31283e-05,7.90324e-06,1.09334e-05,-1.05751e-05,2.65101e-05,-2.15876e-06,0
-3.06495e-05,3.13356e-05,-1.17268e-05,5.69667e-06,1.14352e-05,-1.08453e-05,2.6937e-05,-7.80387e-07,0
-3.05993e-05,3.03704e-05,-8.49392e-06,8.54908e-07,9.59536e-06,-1.26752e-05,3.05164e-05,-1.40471e-06,0
-3.2068e-05,2.85754e-05,-7.22498e-06,-4.50141e-06,4.00615e-06,-1.44831e-05,3.92642e-05,-1.70573e-06,0
-3.30225e-05,2.60032e-05,-7.60943e-06,-9.2379e-06,5.88504e-07,-1.43524e-05,5.16278e-05,-1.51635e-06,0
-3.25624e-05,2.31294e-05,-8.24497e-06,-1.10589e-05,1.3091e-06,-1.36468e-05,6.29908e-05,-1.64644e-06,0
-3.11332e-05,2.17448e-05,-8.61602e-06,-1.10029e-05,3.58711e-06,-1.30477e-05,7.03132e-05,-2.67695e-06,0
-2.79731e-05,2.10211e-05,-8.98502e-06,-1.32345e-05,3.51731e-06,-1.29101e-05,7.44558e-05,-3.75258e-06,0
-2.47816e-05,2.22216e-05,-8.1307e-06,-1.83309e-05,1.86549e-06,-1.30441e-05,7.52014e-05,-3.19191e-06,0
-2.37074e-05,2.29226e-05,-6.71652e-06,-2.14993e-05,2.41226e-06,-1.15424e-05,7.18904e-05,-2.26263e-06,0
-2.44119e-05,2.14432e-05,-5.36953e-06,-1.95e-05,5.0914e-06,-8.46708e-06,6.43448e-05,-1.35161e-06,0
-2.60792e-05,2.05048e-05,-2.94353e-06,-1.27325e-05,7.1281e-06,-5.20067e-06,5.43827e-05,-5.9087e-08,0
-2.80174e-05,2.05917e-05,-6.92302e-08,-4.83393e-06,7.20154e-06,-2.91104e-06,4.45288e-05,2.66443e-06,0
-2.89704e-05,1.99667e-05,7.06672e-07,1.77116e-06,6.44093e-06,-3.27234e-06,3.64754e-05,4.77461e-06,0
-2.87235e-05,1.76675e-05,-8.86582e-07,5.98734e-06,5.86178e-06,-4.9316e-06,2.91256e-05,3.81994e-06,0
-2.85402e-05,1.6575e-05,-3.63951e-06,6.47722e-06,6.67413e-06,-5.7491e-06,2.08467e-05,2.09434e-06,0
-2.84707e-05,1.66859e-05,-6.13732e-06,3.56078e-06,9.04674e-06,-6.56528e-06,1.37488e-05,1.93736e-06,0
-2.79279e-05,1.68146e-05,-7.04114e-06,1.24233e-07,1.256e-05,-8.18467e-06,1.05974e-05,1.97376e-06,0
-2.72889e-05,1.63019e-05,-6.354e-06,-2.36154e-06,1.57552e-05,-9.44921e-06,1.0154e-05,1.07515e-06,0
-2.8147e-05,1.55591e-05,-4.46406e-06,-3.26818e-06,1.6702e-05,-9.28059e-06,8.59601e-06,-3.31694e-07,0
-2.9476e-05,1.40872e-05,-3.11536e-06,-8.9706e-07,1.5923e-05,-8.48742e-06,5.78126e-06,-1.3014e-06,0
-2.87288e-05,1.24523e-05,-2.85359e-06,3.0889e-06,1.52354e-05,-8.15592e-06,2.43118e-06,-2.2676e-07,0
-2.71304e-05,1.16846e-05,-4.53389e-06,4.66907e-06,1.37512e-05,-9.35573e-06,-1.15624e-08,2.68703e-06,0
-2.70369e-05,1.20685e-05,-7.0289e-06,2.12482e-06,1.17897e-05,-1.06724e-05,2.82003e-07,4.81382e-06,0
-2.79264e-05,1.33677e-05,-9.28713e-06,-1.4145e-06,1.07401e-05,-1.14204e-05,2.67514e-06,4.70988e-06,0
-2.95665e-05,1.37134e-05,-1.18384e-05,-3.35598e-06,1.10013e-05,-1.10813e-05,4.37789e-06,3.18372e-06,0
-3.10436e-05,1.13874e-05,-1.42333e-05,-3.27706e-06,1.20348e-05,-1.10301e-05,3.59479e-06,1.02587e-06,0
-3.07655e-05,7.55274e-06,-1.54899e-05,-2.08004e-06,1.36142e-05,-1.26033e-05,1.53253e-06,-1.24496e-06,0
-3.05358e-05,5.85581e-06,-1.78898e-05,-9.98967e-07,1.65051e-05,-1.38402e-05,9.14628e-07,-3.36262e-06,0
-3.09574e-05,6.93821e-06,-1.91511e-05,-7.163e-07,1.84642e-05,-1.34762e-05,2.39761e-06,-4.18523e-06,0
-3.21181e-05,7.3962e-06,-1.70246e-05,-1.81649e-06,1.76814e-05,-1.33679e-05,3.23465e-06,-3.92557e-06,0
-3.17939e-05,7.07404e-06,-1.26932e-05,-2.70215e-06,1.65917e-05,-1.49626e-05,2.99767e-06,-2.86283e-06,0
-2.90762e-05,8.02843e-06,-9.68027e-06,-2.527e-06,1.77492e-05,-1.58136e-05,3.51971e-06,-1.10613e-06,0
-2.73466e-05,1.02435e-05,-1.0961e-05,-2.1772e-06,1.85544e-05,-1.50564e-05,4.85174e-06,6.32384e-07,0
-2.72221e-05,1.39365e-05,-1.21954e-05,-4.12208e-06,1.81678e-05,-1.5342e-05,5.79486e-06,2.65517e-06,0
-2.8003e-05,1.66245e-05,-1.17242e-05,-7.43856e-06,1.7543e-05,-1.71375e-05,5.43068e-06,3.23922e-06,0
-3.01322e-05,1.83804e-05,-1.0671e-05,-8.40607e-06,1.80182e-05,-1.76938e-05,4.12752e-06,1.29973e-06,0
-3.16919e-05,1.93687e-05,-1.19045e-05,-6.90649e-06,2.01019e-05,-1.68074e-05,1.19113e-06,-4.54298e-07,0
-3.0181e-05,1.96263e-05,-1.2209e-05,-5.21414e-06,2.18453e-05,-1.381e-05,-1.80477e-06,-5.58838e-07,0
-2.87759e-05,1.94126e-05,-9.2125e-06,-5.28524e-06,2.17946e-05,-1.04824e-05,-1.85915e-06,-4.22013e-07,0
-2.93207e-05,1.9943e-05,-5.7886e-06,-6.93554e-06,1.95684e-05,-1.02224e-05,1.13601e-06,-2.73103e-07,0
-3.04586e-05,2.10791e-05,-3.80647e-06,-7.66215e-06,1.67202e-05,-1.29714e-05,4.87812e-06,-2.15407e-07,0
-3.15797e-05,2.06626e-05,-4.06012e-06,-5.97495e-06,1.42872e-05,-1.48013e-05,6.60185e-06,-4.93682e-07,0
-3.27831e-05,1.97217e-05,-5.3766e-06,-4.57537e-06,1.30505e-05,-1.41217e-05,5.13469e-06,-8.77844e-07,0
-3.33929e-05,1.93453e-05,-6.35233e-06,-5.05437e-06,1.3089e-05,-1.3536e-05,1.23447e-06,-2.46579e-06,0
-3.24896e-05,1.95805e-05,-7.00762e-06,-6.1533e-06,1.50855e-05,-1.40503e-05,-1.81213e-06,-5.53595e-06,0
-3.07895e-05,1.91504e-05,-8.79689e-06,-6.12334e-06,1.78359e-05,-1.48173e-05,-2.0187e-06,-8.22144e-06,0
-3.00073e-05,1.88481e-05,-1.06952e-05,-5.58004e-06,1.85843e-05,-1.55588e-05,1.14718e-07,-8.36088e-06,0
-3.11259e-05,1.84787e-05,-1.17715e-05,-5.28875e-06,1.71363e-05,-1.6863e-05,2.41673e-06,-6.55323e-06,0
-3.28205e-05,1.74326e-05,-1.27839e-05,-5.12994e-06,1.57255e-05,-1.74099e-05,3.02026e-06,-4.71506e-06,0
-3.42923e-05,1.63891e-05,-1.48827e-05,-4.70248e-06,1.45343e-05,-1.70934e-05,3.21998e-06,-3.25063e-06,0
-3.46087e-05,1.62958e-05,-1.58495e-05,-5.5669e-06,1.35184e-05,-1.56751e-05,4.42848e-06,-2.20854e-06,0
-3.42224e-05,1.7166e-05,-1.48177e-05,-7.88804e-06,1.50304e-05,-1.37635e-05,6.32376e-06,-1.81419e-06,0
-3.56021e-05,1.79966e-05,-1.39176e-05,-7.54996e-06,1.88078e-05,-1.33692e-05,8.64877e-06,-3.0143e-06,0
-3.73648e-05,1.79335e-05,-1.33445e-05,-4.87148e-06,2.23764e-05,-1.24351e-05,9.6942e-06,-4.07554e-06,0
-3.72097e-05,1.80917e-05,-1.1828e-05,-1.93783e-06,2.34331e-05,-1.04427e-05,8.66793e-06,-3.30882e-06,0
-3.5424e-05,1.71375e-05,-1.19078e-05,-6.76027e-07,2.27269e-05,-8.92075e-06,7.52174e-06,-1.38047e-06,0
-3.28527e-05,1.50049e-05,-1.30101e-05,-1.21216e-06,2.16128e-05,-8.3488e-06,7.85059e-06,4.76748e-07,0
-3.10081e-05,1.71801e-05,-1.28122e-05,-2.49056e-06,2.11827e-05,-9.80898e-06,9.85097e-06,-2.62661e-07,0
-2.99669e-05,2.19928e-05,-1.30068e-05,-1.69947e-06,2.22317e-05,-1.00153e-05,1.17784e-05,-1.55305e-06,0
-2.94277e-05,2.48337e-05,-1.309e-05,1.61415e-06,2.28712e-05,-9.93434e-06,1.07366e-05,-1.29832e-06,0
-3.04532e-05,2.39617e-05,-1.24745e-05,3.02961e-06,2.29954e-05,-1.09068e-05,8.64094e-06,-8.48273e-07,0
-3.26832e-05,2.16976e-05,-9.85374e-06,1.95116e-06,2.30027e-05,-1.10461e-05,6.19704e-06,-9.44635e-07,0
-3.39262e-05,2.08568e-05,-6.9933e-06,-4.6596e-07,2.34634e-05,-9.55264e-06,4.69316e-06,-1.22867e-06,0
-3.3681e-05,2.0471e-05,-5.09448e-06,-3.39158e-06,2.23437e-05,-7.16573e-06,6.433e-06,-4.9752e-07,0
-3.33982e-05,1.82009e-05,-4.68189e-06,-7.52287e-06,1.85879e-05,-6.56933e-06,9.1446e-06,3.60102e-07,0
-3.33243e-05,1.57503e-05,-5.71459e-06,-1.37027e-05,1.54975e-05,-6.71606e-06,1.04325e-05,-2.18072e-07,0
-3.247e-05,1.49731e-05,-6.37566e-06,-1.91773e-05,1.44526e-05,-5.18711e-06,1.05433e-05,-2.33427e-06,0
-3.06382e-05,1.4546e-05,-5.52785e-06,-2.03279e-05,1.41643e-05,-1.95153e-06,1.02542e-05,-3.39896e-06,0
-2.88692e-05,1.27019e-05,-4.98202e-06,-1.87705e-05,1.20736e-05,1.02875e-06,8.98707e-06,-1.45605e-06,0
-2.80456e-05,7.71603e-06,-6.17903e-06,-1.7899e-05,9.45805e-06,2.39329e-06,8.32362e-06,1.82766e-06,0
-2.84635e-05,9.31267e-07,-7.17315e-06,-1.87943e-05,8.03538e-06,1.5264e-06,1.00212e-05,2.95373e-06,0
-2.92167e-05,-4.74271e-06,-7.56878e-06,-2.00964e-05,8.3244e-06,-3.48349e-07,1.34522e-05,1.88814e-06,0
-2.84666e-05,-7.90709e-06,-7.53699e-06,-2.04202e-05,9.0191e-06,-2.29857e-06,1.62067e-05,2.48104e-06,0
-2.62422e-05,-9.58647e-06,-7.44758e-06,-2.03769e-05,9.51895e-06,-3.79793e-06,1.84275e-05,4.59795e-06,0
-2.47261e-05,-1.03208e-05,-6.75979e-06,-2.05439e-05,8.93236e-06,-3.97073e-06,2.0938e-05,4.43392e-06,0
-2.58882e-05,-1.04657e-05,-5.66635e-06,-2.08452e-05,7.12922e-06,-1.98837e-06,2.25613e-05,3.17144e-06,0
-2.79435e-05,-8.18212e-06,-5.91644e-06,-1.98627e-05,6.50239e-06,-1.41462e-06,2.07092e-05,3.3537e-06,0
-2.79832e-05,-3.96254e-06,-8.63772e-06,-1.65481e-05,7.92989e-06,-3.87746e-06,1.73309e-05,4.08346e-06,0
-2.716e-05,2.89159e-07,-1.03193e-05,-1.17406e-05,1.0131e-05,-6.53399e-06,1.57277e-05,4.40015e-06,0
-2.75766e-05,3.85632e-06,-8.07281e-06,-7.57981e-06,1.04409e-05,-6.22428e-06,1.50086e-05,3.95519e-06,0
-2.83834e-05,7.14132e-06,-6.39633e-06,-5.14244e-06,9.78404e-06,-3.51681e-06,1.44394e-05,4.97071e-06,0
-2.90409e-05,8.84204e-06,-9.12014e-06,-5.63026e-06,9.69486e-06,-1.7184e-06,1.56563e-05,6.21472e-06,0
-3.03857e-05,9.16668e-06,-1.23017e-05,-7.91422e-06,9.24155e-06,-1.87594e-06,1.77613e-05,7.25794e-06,0
-3.07633e-05,9.17682e-06,-1.27064e-05,-8.13556e-06,6.92203e-06,-4.16596e-06,1.893e-05,8.88081e-06,0
-3.05402e-05,7.01526e-06,-1.0555e-05,-6.50345e-06,5.28656e-06,-5.3935e-06,2.07948e-05,9.95235e-06,0
-2.99954e-05,5.9517e-06,-8.73887e-06,-5.6888e-06,5.72869e-06,-5.30393e-06,2.66169e-05,1.03381e-05,0
-2.9266e-05,7.47771e-06,-9.50481e-06,-6.41214e-06,6.23045e-06,-4.06671e-06,3.44184e-05,1.03857e-05,0
-2.81869e-05,9.76784e-06,-1.04016e-05,-8.81447e-06,5.9773e-06,-3.60197e-06,3.971e-05,1.2041e-05,0
-2.68618e-05,1.0552e-05,-1.00618e-05,-1.07657e-05,5.33677e-06,-4.70683e-06,4.05761e-05,1.43761e-05,0
-2.67585e-05,1.05412e-05,-9.39825e-06,-1.06632e-05,5.60555e-06,-5.28537e-06,3.223e-05,1.51536e-05,0
-2.65465e-05,1.02442e-05,-9.2456e-06,-7.8295e-06,6.26246e-06,-4.9581e-06,1.80065e-05,1.32316e-05,0
-2.68055e-05,8.98389e-06,-8.10174e-06,-1.52238e-06,6.54953e-06,-3.58766e-06,5.85366e-06,9.78529e-06,0
-2.76698e-05,7.34356e-06,-5.46607e-06,7.0616e-06,7.19485e-06,-2.7302e-06,-1.01184e-06,5.90279e-06,0
-2.86813e-05,7.10121e-06,-3.17038e-06,1.59178e-05,8.20506e-06,-3.60978e-06,-4.23961e-06,2.16518e-06,0
-2.89671e-05,8.86717e-06,-2.28332e-06,2.39371e-05,8.76827e-06,-5.7182e-06,-6.40627e-06,-9.22405e-08,0
-2.87326e-05,9.98857e-06,-1.78502e-06,2.90681e-05,8.99125e-06,-6.03017e-06,-7.77482e-06,5.30897e-07,0
-2.82511e-05,1.06928e-05,-1.20219e-06,2.78103e-05,8.18145e-06,-5.56599e-06,-6.48503e-06,2.50077e-06,0
-2.75356e-05,1.14596e-05,-1.04015e-06,2.06584e-05,6.16133e-06,-5.13594e-06,-1.12303e-06,2.62932e-06,0
-2.72163e-05,1.12278e-05,-7.74496e-07,1.09345e-05,4.24852e-06,-4.01962e-06,5.15218e-06,1.19506e-06,0
-2.73481e-05,9.44507e-06,-7.67561e-07,9.86032e-07,3.86953e-06,-3.65558e-06,1.03214e-05,4.47907e-07,0
-2.80413e-05,7.47705e-06,-1.36214e-06,-9.26725e-06,5.30195e-06,-5.72716e-06,1.58177e-05,1.82554e-06,0
-2.89639e-05,5.77949e-06,-1.11753e-06,-1.68725e-05,6.37983e-06,-8.77432e-06,2.14715e-05,4.27938e-06,0
-3.02347e-05,4.44377e-06,-5.02176e-07,-1.77006e-05,7.03919e-06,-1.13771e-05,2.47264e-05,5.7523e-06,0
-3.09123e-05,3.00871e-06,-4.27572e-07,-1.37779e-05,8.21646e-06,-1.33808e-05,2.55221e-05,6.40934e-06,0
-3.09314e-05,4.01201e-06,-4.3241e-08,-9.73849e-06,8.79828e-06,-1.42666e-05,2.45219e-05,6.33092e-06,0
-3.04156e-05,7.37704e-06,1.05808e-07,-7.48371e-06,9.27438e-06,-1.50454e-05,2.25677e-05,4.05137e-06,0
-3.09502e-05,9.9486e-06,-8.546e-07,-5.95417e-06,1.04404e-05,-1.47539e-05,2.26001e-05,2.90364e-06,0
-3.29165e-05,1.13596e-05,-2.91249e-06,-4.32344e-06,1.06811e-05,-1.3444e-05,2.50875e-05,4.75051e-06,0
-3.45601e-05,1.11651e-05,-5.59844e-06,-2.9968e-06,9.67177e-06,-1.35221e-05,2.48739e-05,6.49334e-06,0
-3.47561e-05,1.3931e-05,-8.46708e-06,-3.13626e-06,9.08545e-06,-1.48757e-05,1.98668e-05,6.46096e-06,0
-3.34347e-05,1.90792e-05,-9.76265e-06,-3.88985e-06,8.43411e-06,-1.53318e-05,1.41443e-05,6.06174e-06,0
-3.25551e-05,2.17512e-05,-9.29123e-06,-4.41559e-06,7.38793e-06,-1.45156e-05,1.29627e-05,5.68962e-06,0
-3.19002e-05,2.08042e-05,-1.03986e-05,-4.01134e-06,6.95786e-06,-1.22912e-05,1.65247e-05,4.30737e-06,0
-3.32317e-05,1.83673e-05,-1.47537e-05,2.18143e-08,8.31793e-06,-1.09797e-05,2.03203e-05,2.85829e-06,0
-3.53862e-05,1.51879e-05,-2.01946e-05,5.837e-06,1.09618e-05,-1.17015e-05,2.16547e-05,2.69939e-06,0
-3.6184e-05,1.27139e-05,-2.2056e-05,9.44166e-06,1.37208e-05,-1.36699e-05,1.79352e-05,2.70277e-06,0
-3.61235e-05,1.27964e-05,-1.99638e-05,9.4558e-06,1.6248e-05,-1.45976e-05,9.52098e-06,1.68536e-06,0
-3.4723e-05,1.31727e-05,-1.46304e-05,8.39219e-06,1.73932e-05,-1.4276e-05,1.82577e-06,6.48352e-08,0
-3.42021e-05,1.2761e-05,-7.85001e-06,8.22919e-06,1.82577e-05,-1.38731e-05,-9.68146e-07,-1.07335e-06,0
-3.46074e-05,1.22129e-05,-3.57082e-06,7.27065e-06,1.97669e-05,-1.34694e-05,-6.17015e-09,-1.54148e-06,0
-3.50515e-05,1.28914e-05,-2.07128e-06,3.42119e-06,2.10002e-05,-1.29362e-05,2.22478e-06,-2.27966e-06,0
-3.34569e-05,1.48484e-05,-1.96912e-06,-1.1952e-06,1.97023e-05,-1.23585e-05,3.90427e-06,-1.71336e-06,0
-3.11655e-05,1.88343e-05,-1.69869e-06,-3.59912e-06,1.76595e-05,-1.22861e-05,3.99597e-06,5.41002e-07,0
-3.00497e-05,2.30542e-05,-1.58933e-06,-3.79013e-06,1.76115e-05,-1.05949e-05,4.13087e-06,2.52672e-06,0
-2.97017e-05,2.513e-05,-1.60531e-06,-4.15345e-06,1.89025e-05,-7.39699e-06,5.0373e-06,2.00441e-06,0
-2.97252e-05,2.57924e-05,-1.02357e-06,-5.93522e-06,2.03121e-05,-4.64397e-06,5.2446e-06,3.68911e-07,0
-2.97785e-05,2.53272e-05,4.85762e-07,-7.45396e-06,2.10378e-05,-4.7837e-06,4.54274e-06,-1.77411e-07,0
-3.02889e-05,2.42704e-05,1.48303e-06,-9.66325e-06,2.09313e-05,-6.49559e-06,4.53154e-06,-3.26762e-07,0
-3.09922e-05,2.36111e-05,5.58204e-07,-1.33275e-05,2.0317e-05,-6.95744e-06,5.30158e-06,-9.20686e-07,0
-3.11351e-05,2.34103e-05,-2.26629e-06,-1.62605e-05,1.99821e-05,-6.5813e-06,5.78213e-06,-1.40598e-06,0
-3.03144e-05,2.27252e-05,-7.27458e-06,-1.62915e-05,1.98794e-05,-5.93299e-06,5.65365e-06,-1.09623e-06,0
-2.98486e-05,2.21054e-05,-1.36614e-05,-1.43326e-05,1.84045e-05,-6.93135e-06,5.842e-06,-1.14644e-06,0
-3.04215e-05,2.3115e-05,-2.05309e-05,-1.24053e-05,1.62294e-05,-9.97923e-06,6.0197e-06,-1.57736e-06,0
-3.22612e-05,2.27913e-05,-2.7194e-05,-1.04112e-05,1.57596e-05,-1.24773e-05,2.02452e-06,-2.18304e-06,0
-3.32475e-05,2.10588e-05,-2.94453e-05,-5.94011e-06,1.44594e-05,-1.47531e-05,-1.09444e-05,-3.66646e-06,0
-3.22681e-05,1.84613e-05,-2.39577e-05,4.24034e-07,1.21913e-05,-1.51001e-05,-3.11887e-05,-4.431e-06,0
-3.21546e-05,1.65033e-05,-1.72218e-05,3.0886e-06,1.11781e-05,-1.29569e-05,-4.22981e-05,-2.72922e-06,0
-3.40905e-05,1.7005e-05,-1.31921e-05,-9.24835e-07,1.43512e-05,-1.06159e-05,-3.38038e-05,-9.82214e-07,0
-3.58596e-05,1.42216e-05,-9.07869e-06,-5.53833e-06,1.81592e-05,-9.97637e-06,-1.45324e-05,-4.65563e-07,0
-3.6249e-05,1.00929e-05,-5.19558e-06,-8.29018e-06,1.5845e-05,-1.1453e-05,8.35574e-06,-8.73563e-07,0
-3.55451e-05,7.35009e-06,-3.2114e-06,-9.9181e-06,7.29727e-06,-1.24591e-05,2.94614e-05,-2.17894e-06,0
-3.37252e-05,5.53857e-06,-2.96613e-06,-8.3262e-06,-2.13658e-06,-1.19396e-05,4.37926e-05,-2.65741e-06,0
-3.04073e-05,5.02674e-06,-2.81131e-06,-3.35969e-06,-6.3875e-06,-1.11041e-05,4.93398e-05,-3.27305e-06,0
-2.94187e-05,3.7678e-06,-4.22177e-06,3.08459e-06,-4.62273e-06,-1.01615e-05,4.8361e-05,-5.21862e-06,0
-3.15365e-05,1.14074e-06,-7.13592e-06,7.77078e-06,-1.02059e-06,-8.93401e-06,4.69478e-05,-6.44806e-06,0
-3.37919e-05,1.86568e-07,-1.01386e-05,8.46517e-06,4.43298e-08,-8.67866e-06,4.51748e-05,-5.05714e-06,0
-3.38756e-05,1.9819e-06,-1.25342e-05,6.22426e-06,2.36381e-08,-1.0002e-05,4.07738e-05,-2.26096e-06,0
-3.25607e-05,3.05864e-06,-1.43073e-05,2.41064e-06,7.43035e-07,-1.38176e-05,3.36658e-05,-1.30407e-06,0
-3.18218e-05,4.06631e-06,-1.51194e-05,-1.38974e-06,2.18413e-06,-1.74324e-05,2.67505e-05,-2.68523e-06,0
-3.19454e-05,7.00402e-06,-1.31383e-05,-4.47989e-06,3.75858e-06,-1.77143e-05,2.23303e-05,-3.52053e-06,0
-3.33177e-05,1.06679e-05,-1.00435e-05,-9.87527e-06,6.12493e-06,-1.57921e-05,2.05415e-05,-2.7458e-06,0
-3.33098e-05,1.22429e-05,-8.68205e-06,-1.68881e-05,8.28262e-06,-1.46081e-05,2.04226e-05,-2.46925e-06,0
-3.10715e-05,1.24084e-05,-1.06538e-05,-2.06292e-05,9.15188e-06,-1.41401e-05,2.07253e-05,-3.47752e-06,0
-2.84189e-05,1.25902e-05,-1.32997e-05,-1.94373e-05,8.92154e-06,-1.33154e-05,2.06622e-05,-4.72849e-06,0
-2.73511e-05,1.22295e-05,-1.25087e-05,-1.72717e-05,9.01222e-06,-1.21669e-05,1.89595e-05,-5.06141e-06,0
-2.7004e-05,1.24709e-05,-7.40874e-06,-1.50114e-05,1.17492e-05,-1.21835e-05,1.55411e-05,-4.83757e-06,0
-2.63206e-05,1.47378e-05,-1.41597e-06,-1.13207e-05,1.63522e-05,-1.37153e-05,1.2822e-05,-4.41732e-06,0
-2.57363e-05,1.66288e-05,9.32978e-07,-7.50217e-06,2.01964e-05,-1.47644e-05,1.24033e-05,-4.86472e-06,0
-2.59675e-05,1.59513e-05,-1.6932e-06,-5.85407e-06,2.2674e-05,-1.50115e-05,1.15357e-05,-5.97418e-06,0
-2.60296e-05,1.47012e-05,-5.71521e-06,-5.18286e-06,2.42194e-05,-1.395e-05,8.82266e-06,-6.55887e-06,0
-2.57333e-05,1.21328e-05,-7.63197e-06,-2.94906e-06,2.39666e-05,-9.68429e-06,6.59282e-06,-6.39016e-06,0
-2.62376e-05,8.76753e-06,-8.68843e-06,7.9379e-07,2.37312e-05,-2.17371e-06,5.9117e-06,-6.36891e-06,0
-2.75344e-05,8.66064e-06,-1.20621e-05,2.99204e-06,2.59635e-05,5.61531e-06,5.162e-06,-7.22791e-06,0
-2.73017e-05,1.19833e-05,-1.53876e-05,3.69923e-06,2.85104e-05,7.65082e-06,2.95939e-06,-6.95493e-06,0
-2.45462e-05,1.4456e-05,-1.56764e-05,3.20343e-06,2.87711e-05,2.29202e-06,1.24355e-06,-5.56142e-06,0
-2.25719e-05,1.42159e-05,-1.32512e-05,4.58692e-07,2.81613e-05,-4.75745e-06,2.54974e-06,-3.83237e-06,0
-2.13749e-05,1.20754e-05,-1.11718e-05,-2.6686e-06,2.79992e-05,-1.02193e-05,4.71463e-06,-3.68493e-06,0
-2.07533e-05,8.55509e-06,-1.37559e-05,-4.16666e-06,2.71649e-05,-9.36694e-06,6.61067e-06,-3.29203e-06,0
-2.08867e-05,5.39514e-06,-1.62485e-05,-3.46318e-06,2.41081e-05,-3.38801e-06,8.82683e-06,-1.29893e-06,0
-2.02549e-05,3.53562e-06,-1.27994e-05,-2.37569e-06,2.01136e-05,1.27644e-06,1.12646e-05,5.95753e-08,0
-2.13993e-05,3.58642e-06,-5.55956e-06,-5.20193e-07,1.75548e-05,2.09668e-06,1.25526e-05,1.13863e-06,0
-2.3456e-05,3.89299e-06,-8.29038e-07,6.63094e-07,1.63192e-05,-8.76865e-07,1.29765e-05,1.14883e-06,0
-2.37707e-05,4.77355e-06,1.10361e-06,2.94797e-07,1.48735e-05,-5.43737e-06,1.41132e-05,6.41685e-07,0
-2.35449e-05,7.48644e-06,2.62148e-06,-6.52481e-07,1.36827e-05,-9.15696e-06,1.50566e-05,9.9913e-07,0
-2.35225e-05,1.0045e-05,2.5783e-06,-1.95248e-06,1.29583e-05,-1.05603e-05,1.64032e-05,1.5171e-06,0
-2.44292e-05,1.11017e-05,-6.41552e-07,-3.54429e-06,1.19453e-05,-1.05914e-05,1.75508e-05,1.08038e-06,0
-2.63916e-05,1.11883e-05,-5.9169e-06,-4.46457e-06,1.05779e-05,-1.12142e-05,1.75695e-05,-6.7335e-09,0
-2.90434e-05,1.12418e-05,-1.02951e-05,-3.82057e-06,9.31749e-06,-1.29589e-05,1.6615e-05,-1.06235e-06,0
-3.0131e-05,1.13102e-05,-1.29916e-05,-2.4636e-06,8.71207e-06,-1.4655e-05,1.51759e-05,-1.11344e-06,0
-2.91536e-05,1.23215e-05,-1.45641e-05,-9.21815e-07,9.85547e-06,-1.56436e-05,1.27981e-05,5.63513e-08,0
-2.74172e-05,1.24939e-05,-1.56903e-05,8.93632e-07,1.28651e-05,-1.56437e-05,1.0254e-05,1.36011e-06,0
-2.66608e-05,1.02668e-05,-1.59899e-05,3.39783e-06,1.55918e-05,-1.53914e-05,8.78274e-06,2.02872e-06,0
-2.76566e-05,6.93095e-06,-1.48544e-05,7.73011e-06,1.74279e-05,-1.55157e-05,7.65708e-06,2.18714e-06,0
-2.89515e-05,3.70145e-06,-1.55611e-05,1.2433e-05,1.77741e-05,-1.53542e-05,7.29954e-06,1.99744e-06,0
-3.0094e-05,1.65731e-06,-2.22706e-05,1.29065e-05,1.64708e-05,-1.4545e-05,8.56238e-06,1.11012e-06,0
-3.04107e-05,1.41138e-06,-2.85942e-05,9.95267e-06,1.49556e-05,-1.39774e-05,1.05165e-05,5.71083e-08,0
-2.99247e-05,2.96009e-06,-2.70288e-05,7.8664e-06,1.41663e-05,-1.39574e-05,1.12043e-05,1.17782e-07,0
-3.03781e-05,5.19351e-06,-1.94021e-05,7.21296e-06,1.4548e-05,-1.45283e-05,1.07425e-05,1.59374e-06,0
-3.15811e-05,6.85729e-06,-1.17644e-05,6.18099e-06,1.52454e-05,-1.4666e-05,1.16289e-05,1.74893e-06,0
-3.14221e-05,7.60758e-06,-8.49804e-06,4.97182e-06,1.48862e-05,-1.44133e-05,1.4199e-05,1.5985e-06,0
-3.01443e-05,9.62415e-06,-7.91549e-06,4.7858e-06,1.32322e-05,-1.4059e-05,1.63378e-05,3.08873e-06,0
-2.94926e-05,1.29004e-05,-8.38857e-06,5.68927e-06,1.17306e-05,-1.47326e-05,1.89119e-05,4.62443e-06,0
-2.9579e-05,1.3101e-05,-9.13784e-06,4.00982e-06,1.21669e-05,-1.62906e-05,2.34778e-05,5.33965e-06,0
-2.93019e-05,1.01279e-05,-8.06768e-06,3.09402e-08,1.45115e-05,-1.74819e-05,2.83218e-05,4.50882e-06,0
-2.8935e-05,8.00918e-06,-6.27499e-06,-3.17981e-06,1.54691e-05,-1.90074e-05,2.96473e-05,4.2428e-06,0
-2.97459e-05,8.30723e-06,-5.3241e-06,-5.77628e-06,1.21459e-05,-1.9515e-05,2.78296e-05,5.05582e-06,0
-3.0279e-05,7.86364e-06,-4.48621e-06,-6.89568e-06,9.42969e-06,-1.77321e-05,2.47038e-05,5.31216e-06,0
-3.10385e-05,6.53876e-06,-3.78894e-06,-7.1583e-06,9.54052e-06,-8.55283e-06,1.89414e-05,3.99865e-06,0
-3.2092e-05,5.48605e-06,-2.96686e-06,-7.11038e-06,9.05888e-06,6.15078e-06,1.20602e-05,3.22424e-06,0
-3.25264e-05,6.81477e-06,-1.7105e-06,-6.37933e-06,7.85754e-06,1.70695e-05,4.34679e-06,3.40376e-06,0
-3.39928e-05,1.02875e-05,-1.32257e-06,-4.51674e-06,7.3579e-06,1.87556e-05,-1.03074e-05,3.24207e-06,0
-3.51607e-05,1.25627e-05,-2.52423e-06,-3.07305e-06,7.42057e-06,1.15879e-05,-3.08871e-05,1.99686e-06,0
-3.41052e-05,1.31733e-05,-2.6712e-06,-3.23231e-06,7.41779e-06,2.37538e-06,-4.50515e-05,-8.91997e-09,0
-3.32662e-05,1.32714e-05,-7.46499e-07,-5.34494e-06,7.78669e-06,-2.77502e-06,-4.32923e-05,-7.1403e-07,0
-3.42779e-05,1.48006e-05,-1.93415e-07,-6.63616e-06,7.52496e-06,-3.77104e-06,-2.80015e-05,-6.69343e-07,0
-3.47506e-05,1.60651e-05,-2.08424e-06,-4.83764e-06,6.69208e-06,-4.77898e-06,-7.68292e-06,-5.68991e-07,0
-3.46397e-05,1.5949e-05,-3.91529e-06,-3.74793e-06,6.2707e-06,-6.33213e-06,1.16606e-05,-2.54977e-07,0
-3.41594e-05,1.62743e-05,-4.30475e-06,-6.20735e-06,6.35634e-06,-7.28686e-06,2.81523e-05,1.61631e-06,0
-3.33765e-05,1.91182e-05,-4.89777e-06,-8.89036e-06,6.19694e-06,-7.71063e-06,4.11928e-05,2.96372e-06,0
-3.34051e-05,2.22761e-05,-6.13196e-06,-7.20618e-06,5.2021e-06,-8.45103e-06,4.76597e-05,2.41459e-06,0
-3.45592e-05,2.30468e-05,-6.18059e-06,1.81907e-06,3.62275e-06,-9.36149e-06,4.58778e-05,1.5844e-06,0
-3.45962e-05,2.19462e-05,-4.82454e-06,1.55142e-05,2.88534e-06,-8.96113e-06,3.89879e-05,1.64299e-06,0
-3.36837e-05,2.1507e-05,-4.01689e-06,2.14912e-05,4.97148e-06,-8.34435e-06,3.0616e-05,9.68826e-07,0
-3.33963e-05,2.2461e-05,-4.73383e-06,1.70266e-05,8.09941e-06,-8.28963e-06,2.20537e-05,3.78768e-07,0
-3.28889e-05,2.26393e-05,-5.19231e-06,8.14107e-06,9.21959e-06,-7.00358e-06,1.52452e-05,2.34249e-07,0
-3.40911e-05,2.01546e-05,-3.87578e-06,-2.14641e-06,8.64437e-06,-5.58719e-06,1.21566e-05,-7.794e-07,0
-3.58944e-05,1.80115e-05,-3.95108e-06,-1.15492e-05,9.3138e-06,-5.09303e-06,1.22988e-05,6.15162e-07,0
-3.39695e-05,1.8979e-05,-5.31576e-06,-1.79926e-05,1.08211e-05,-6.43417e-06,1.26516e-05,2.24137e-06,0
-3.03796e-05,1.9504e-05,-4.36161e-06,-2.01875e-05,1.27096e-05,-7.42702e-06,1.18997e-05,2.0981e-06,0
-2.93645e-05,1.86681e-05,-2.52262e-06,-2.12565e-05,1.61964e-05,-6.78696e-06,1.1811e-05,1.51223e-06,0
-2.99017e-05,1.97082e-05,-1.52749e-06,-2.39176e-05,1.87931e-05,-7.10273e-06,1.29148e-05,2.09976e-07,0
-3.05081e-05,2.23988e-05,-1.8747e-06,-2.72911e-05,1.8917e-05,-7.32697e-06,1.28964e-05,1.10472e-06,0
-3.12915e-05,2.43335e-05,-3.3364e-06,-3.23796e-05,1.76818e-05,-7.41827e-06,9.48934e-06,3.22435e-06,0
-3.1686e-05,2.42626e-05,-5.33266e-06,-3.76496e-05,1.72593e-05,-7.54873e-06,3.58617e-06,3.47906e-06,0
-3.11331e-05,2.39518e-05,-7.75341e-06,-3.92427e-05,1.80881e-05,-9.32085e-06,-2.50512e-06,2.56112e-06,0
-2.98578e-05,2.35082e-05,-8.13946e-06,-3.60451e-05,1.9214e-05,-1.10325e-05,-4.8146e-06,3.07362e-06,0
-2.90064e-05,2.14431e-05,-6.43667e-06,-3.00523e-05,1.91383e-05,-1.06199e-05,-1.83888e-06,5.1517e-06,0
-2.89644e-05,1.93398e-05,-5.71656e-06,-2.48784e-05,1.81016e-05,-9.14909e-06,1.84097e-06,6.51853e-06,0
-2.9333e-05,1.8655e-05,-6.16976e-06,-2.18765e-05,1.74223e-05,-9.2281e-06,3.41734e-06,6.30226e-06,0
-3.04957e-05,2.0277e-05,-6.41179e-06,-1.97201e-05,1.69543e-05,-1.04515e-05,3.83715e-06,5.15765e-06,0
-3.28444e-05,2.28409e-05,-5.55141e-06,-1.71329e-05,1.70084e-05,-1.07366e-05,4.74361e-06,5.58914e-06,0
-3.52775e-05,2.45838e-05,-3.78337e-06,-1.58025e-05,1.73746e-05,-1.07485e-05,7.1746e-06,7.64875e-06,0
-3.54833e-05,2.46471e-05,-2.73168e-06,-1.55943e-05,1.75303e-05,-1.10133e-05,1.08511e-05,9.32618e-06,0
-3.42745e-05,2.3722e-05,-3.97483e-06,-1.55621e-05,1.6987e-05,-1.17011e-05,1.43555e-05,9.16012e-06,0
-3.38336e-05,2.30679e-05,-5.86466e-06,-1.66745e-05,1.67059e-05,-1.23046e-05,1.58807e-05,7.6713e-06,0
-3.33354e-05,2.31874e-05,-6.66181e-06,-1.84286e-05,1.78406e-05,-1.25493e-05,1.58184e-05,5.65779e-06,0
-3.25717e-05,2.12041e-05,-7.36613e-06,-1.84429e-05,1.8697e-05,-1.19475e-05,1.73601e-05,4.48842e-06,0
-3.20455e-05,1.68252e-05,-8.92542e-06,-1.63795e-05,1.72125e-05,-1.27045e-05,2.13606e-05,4.20883e-06,0
-3.15272e-05,1.31187e-05,-1.04551e-05,-1.38617e-05,1.6551e-05,-1.46761e-05,2.45479e-05,4.05749e-06,0
-3.13868e-05,1.18088e-05,-1.05642e-05,-1.26624e-05,1.76468e-05,-1.6032e-05,2.48277e-05,3.53361e-06,0
-3.12162e-05,1.23629e-05,-1.07952e-05,-1.13494e-05,1.71823e-05,-1.61251e-05,2.26566e-05,3.72714e-06,0
-3.11144e-05,1.24999e-05,-1.13609e-05,-7.59952e-06,1.47212e-05,-1.69473e-05,2.01376e-05,4.31877e-06,0
-3.17507e-05,1.08749e-05,-1.19027e-05,-1.11102e-06,1.19734e-05,-1.81532e-05,1.92468e-05,4.69541e-06,0
-3.159e-05,9.64804e-06,-1.2636e-05,7.55612e-06,1.21157e-05,-1.81101e-05,1.87982e-05,5.27608e-06,0
-3.16268e-05,1.01984e-05,-1.15056e-05,1.07855e-05,1.50315e-05,-1.90603e-05,1.87644e-05,4.09733e-06,0
-3.24553e-05,1.2027e-05,-9.43424e-06,7.54133e-06,1.57932e-05,-2.02152e-05,1.93637e-05,3.20826e-06,0
-3.18362e-05,1.4929e-05,-8.32432e-06,2.00445e-06,1.32628e-05,-2.03127e-05,2.0696e-05,4.31902e-06,0
-3.08788e-05,1.68286e-05,-9.85915e-06,-5.23904e-06,1.0284e-05,-2.03065e-05,2.22809e-05,6.69923e-06,0
-3.11365e-05,1.60452e-05,-1.23693e-05,-1.31948e-05,8.76351e-06,-2.19839e-05,2.12251e-05,8.10379e-06,0
-3.20116e-05,1.2057e-05,-1.29383e-05,-2.00774e-05,8.47503e-06,-2.44229e-05,1.91482e-05,6.89191e-06,0
-3.14979e-05,8.78521e-06,-1.1701e-05,-2.5043e-05,9.67947e-06,-2.40969e-05,1.71676e-05,4.99307e-06,0
-3.09064e-05,7.09551e-06,-8.77055e-06,-3.03476e-05,1.17894e-05,-2.19585e-05,1.65873e-05,4.6181e-06,0
-2.94515e-05,6.48983e-06,-6.39404e-06,-3.24805e-05,1.19372e-05,-1.98441e-05,1.70213e-05,5.37646e-06,0
-2.79117e-05,7.45802e-06,-6.3082e-06,-2.57768e-05,1.26008e-05,-1.80607e-05,1.70947e-05,5.43808e-06,0
-2.85053e-05,8.05774e-06,-7.72218e-06,-7.08435e-06,1.70613e-05,-1.61526e-05,1.64094e-05,5.19924e-06,0
-3.01384e-05,6.22529e-06,-8.55821e-06,1.90815e-05,2.18957e-05,-1.4299e-05,1.56549e-05,5.20615e-06,0
-3.12268e-05,3.05044e-06,-8.20815e-06,4.35635e-05,2.32423e-05,-1.29138e-05,1.55871e-05,4.49279e-06,0
-3.07147e-05,1.62012e-06,-7.53218e-06,5.91716e-05,2.29095e-05,-1.13882e-05,1.53969e-05,3.15219e-06,0
-3.04057e-05,2.60736e-06,-7.70795e-06,6.50075e-05,2.13534e-05,-1.0184e-05,1.60927e-05,2.15838e-06,0
-3.00327e-05,4.57984e-06,-8.56292e-06,6.5283e-05,1.87333e-05,-9.13634e-06,1.76308e-05,1.21057e-06,0
-3.01538e-05,5.41562e-06,-8.0545e-06,6.07111e-05,1.83248e-05,-8.79096e-06,1.91147e-05,6.25645e-07,0
-3.02658e-05,5.91653e-06,-5.58511e-06,4.95074e-05,2.09583e-05,-8.94006e-06,1.89402e-05,8.02036e-07,0
-3.0207e-05,6.38752e-06,-2.88994e-06,3.36906e-05,2.20985e-05,-7.81733e-06,1.79477e-05,8.68712e-07,0
-3.04765e-05,7.16593e-06,-1.7543e-06,1.86164e-05,2.00719e-05,-5.23596e-06,1.85674e-05,7.81122e-07,0
-3.00853e-05,8.81495e-06,-1.52863e-06,6.87969e-06,1.91236e-05,-3.71602e-06,2.03501e-05,7.95979e-07,0
-2.77744e-05,1.05405e-05,-1.32484e-06,-6.76298e-07,2.00812e-05,-4.83397e-06,1.98847e-05,1.1695e-06,0
-2.62646e-05,1.09484e-05,-1.33406e-06,-6.39561e-06,2.13726e-05,-5.98848e-06,1.76554e-05,1.71993e-06,0
-2.64168e-05,8.84505e-06,-1.13097e-06,-1.09023e-05,2.23533e-05,-4.1558e-06,1.50893e-05,2.04677e-06,0
-2.76173e-05,7.74111e-06,-6.06914e-07,-1.13005e-05,2.20999e-05,-1.06041e-06,1.4065e-05,2.74014e-06,0
-2.91036e-05,8.44996e-06,-7.21551e-07,-7.92912e-06,2.1302e-05,2.29313e-07,1.45783e-05,2.64985e-06,0
-2.83052e-05,9.0366e-06,-1.61274e-06,-9.43148e-06,2.09173e-05,-9.68552e-07,1.48921e-05,1.58997e-06,0
-2.63985e-05,9.37991e-06,-1.86816e-06,-2.35207e-05,1.90213e-05,-3.32076e-06,1.43219e-05,-1.31647e-06,0
-2.62999e-05,8.36465e-06,-2.19811e-06,-3.99313e-05,1.67505e-05,-4.2741e-06,1.45814e-05,-4.0891e-06,0
-2.76708e-05,7.93054e-06,-4.74629e-06,-4.62842e-05,1.81891e-05,-2.89007e-06,1.75928e-05,-3.15865e-06,0
-2.69183e-05,8.13662e-06,-8.96504e-06,-4.41154e-05,2.22219e-05,-7.64944e-07,2.03566e-05,-2.04932e-06,0
-2.71943e-05,8.6803e-06,-1.26401e-05,-3.75876e-05,2.3201e-05,7.1791e-08,2.01984e-05,-2.50549e-06,0
-2.92466e-05,9.16972e-06,-1.41404e-05,-3.3045e-05,1.9562e-05,-8.22628e-07,1.76315e-05,-4.21637e-06,0
-3.00218e-05,1.03121e-05,-1.40248e-05,-2.73975e-05,1.38738e-05,-6.0242e-07,1.45995e-05,-5.36137e-06,0
-2.88549e-05,1.2862e-05,-1.35522e-05,-1.24064e-05,1.05259e-05,1.85434e-06,1.29018e-05,-5.11896e-06,0
-2.66931e-05,1.49521e-05,-1.28634e-05,1.00851e-05,9.76435e-06,4.36396e-06,1.47608e-05,-3.59282e-06,0
-2.48598e-05,1.57517e-05,-1.2153e-05,3.1711e-05,9.34482e-06,4.87873e-06,1.69343e-05,-2.42402e-06,0
-2.53078e-05,1.50695e-05,-1.21433e-05,4.41268e-05,9.75155e-06,4.65477e-06,1.67257e-05,-3.72777e-06,0
-2.74538e-05,1.52422e-05,-1.22979e-05,4.64572e-05,1.12096e-05,5.21154e-06,1.49355e-05,-5.89896e-06,0
-2.89468e-05,1.69111e-05,-1.10641e-05,4.39972e-05,1.35699e-05,5.57463e-06,1.38544e-05,-8.09501e-06,0
-2.96697e-05,1.94742e-05,-9.65911e-06,3.98845e-05,1.55228e-05,5.27526e-06,1.30557e-05,-9.71369e-06,0
-2.98727e-05,2.24633e-05,-1.03919e-05,3.03469e-05,1.58037e-05,3.07856e-06,1.09702e-05,-1.15484e-05,0
-2.97699e-05,2.47164e-05,-1.31825e-05,1.54297e-05,1.40915e-05,-2.97431e-07,8.98315e-06,-1.30498e-05,0
-2.98064e-05,2.44445e-05,-1.51359e-05,2.22492e-06,1.10329e-05,-2.53082e-06,7.43846e-06,-1.22106e-05,0
-3.04578e-05,2.24002e-05,-1.5232e-05,-2.82235e-06,7.12487e-06,-3.04468e-06,4.29544e-06,-1.00561e-05,0
-3.08924e-05,2.03114e-05,-1.49171e-05,-2.52447e-06,4.34598e-06,-3.67871e-06,-1.18009e-06,-9.39087e-06,0
-3.04565e-05,1.9342e-05,-1.38305e-05,-2.5667e-06,4.03289e-06,-5.59501e-06,-5.37223e-06,-9.7084e-06,0
-2.91281e-05,1.92702e-05,-1.19222e-05,-4.48208e-06,5.19397e-06,-7.73124e-06,-4.8838e-06,-9.06477e-06,0
-2.90646e-05,1.85125e-05,-1.11983e-05,-7.02919e-06,7.24292e-06,-7.72089e-06,8.35964e-07,-7.4783e-06,0
-2.9667e-05,1.78227e-05,-1.30771e-05,-9.87718e-06,9.44503e-06,-7.04262e-06,6.62908e-06,-5.57308e-06,0
-2.95359e-05,1.72447e-05,-1.48338e-05,-1.29105e-05,9.90043e-06,-8.28747e-06,9.31157e-06,-3.99766e-06,0
-2.91529e-05,1.6911e-05,-1.45488e-05,-1.38176e-05,8.87243e-06,-1.07041e-05,8.76288e-06,-1.79019e-06,0
-2.99862e-05,1.75756e-05,-1.41946e-05,-1.31284e-05,7.42544e-06,-1.18244e-05,5.2785e-06,1.83071e-06,0
-3.25828e-05,1.75337e-05,-1.30935e-05,-1.29214e-05,5.68351e-06,-1.04587e-05,2.20852e-06,4.52358e-06,0
-3.43362e-05,1.64667e-05,-1.05163e-05,-1.3721e-05,4.63197e-06,-8.48352e-06,-2.46011e-07,3.51925e-06,0
-3.391e-05,1.45362e-05,-9.08826e-06,-1.48176e-05,2.96993e-06,-6.19003e-06,-1.42276e-06,2.88013e-07,0
-3.26733e-05,1.31736e-05,-7.87407e-06,-1.4483e-05,1.69534e-06,-5.38323e-06,5.90231e-07,-1.16378e-06,0
-3.25543e-05,1.40712e-05,-6.50544e-06,-1.55592e-05,1.86925e-06,-6.9578e-06,4.16507e-06,-1.8291e-07,0
-3.3932e-05,1.59758e-05,-3.94766e-06,-1.79045e-05,2.14278e-06,-7.57615e-06,6.78149e-06,1.49699e-06,0
-3.44901e-05,1.65228e-05,-5.66193e-07,-1.99447e-05,2.73662e-06,-7.2871e-06,7.41812e-06,3.56473e-06,0
-3.4746e-05,1.46436e-05,-5.50936e-07,-2.38506e-05,3.85635e-06,-7.64387e-06,5.65807e-06,5.9195e-06,0
-3.55629e-05,1.3989e-05,-5.13376e-06,-2.70701e-05,5.59774e-06,-8.58327e-06,-8.01096e-08,7.51153e-06,0
-3.54344e-05,1.58911e-05,-1.12334e-05,-2.83544e-05,7.13189e-06,-9.56461e-06,-5.96377e-06,8.1075e-06,0
-3.44896e-05,1.75987e-05,-1.4478e-05,-2.62646e-05,8.19244e-06,-1.02405e-05,-6.43866e-06,6.29282e-06,0
-3.30409e-05,1.6649e-05,-1.51358e-05,-2.11813e-05,8.21778e-06,-1.08418e-05,2.37088e-07,3.67918e-06,0
-3.16544e-05,1.34293e-05,-1.43116e-05,-1.62013e-05,7.97642e-06,-1.09881e-05,1.07773e-05,1.63351e-06,0
-3.00663e-05,9.84492e-06,-1.28986e-05,-1.34598e-05,8.18549e-06,-1.04264e-05,1.987e-05,-9.87498e-08,0
-2.94265e-05,7.65073e-06,-1.16684e-05,-1.30096e-05,9.05869e-06,-9.871e-06,2.53577e-05,-6.09519e-08,0
-3.01674e-05,7.9419e-06,-1.11246e-05,-1.46355e-05,1.0023e-05,-1.06046e-05,2.77622e-05,1.33309e-06,0
-3.12441e-05,1.0051e-05,-1.05924e-05,-1.72239e-05,1.01655e-05,-1.22615e-05,2.82861e-05,1.94945e-06,0
-3.16186e-05,1.20466e-05,-9.02464e-06,-1.84758e-05,1.00996e-05,-1.40447e-05,2.76132e-05,1.49352e-06,0
-3.13168e-05,1.23334e-05,-6.13467e-06,-1.94594e-05,1.00881e-05,-1.47454e-05,2.65114e-05,1.9106e-06,0
-3.10643e-05,1.15213e-05,-3.63725e-06,-2.28536e-05,9.92951e-06,-1.41628e-05,2.53911e-05,1.93361e-06,0
