ch1,ch2,ch3,ch4,ch5,ch6,ch7,ch8,class
-3.02705e-05,1.40163e-05,-4.7408e-06,-3.5791e-06,1.61248e-05,-5.72004e-06,1.52601e-05,8.86026e-07,0
-2.80837e-05,1.11225e-05,-3.67575e-06,-2.6064e-06,1.54456e-05,-8.05309e-06,1.65447e-05,2.06675e-06,0
-2.68983e-05,7.64279e-06,-3.84078e-06,-5.93765e-06,1.32625e-05,-9.31905e-06,1.72034e-05,3.32314e-06,0
-2.79927e-05,5.50942e-06,-3.61422e-06,-1.04533e-05,1.31453e-05,-9.26576e-06,1.80905e-05,2.88276e-06,0
-2.85599e-05,2.65416e-06,-2.75223e-06,-1.39607e-05,1.40774e-05,-9.12005e-06,1.96022e-05,4.7519e-07,0
-2.7047e-05,1.00171e-06,-9.22831e-07,-1.49936e-05,1.43017e-05,-9.24926e-06,2.05538e-05,-1.85327e-06,0
-2.69782e-05,2.67431e-06,1.03755e-06,-1.22765e-05,1.34676e-05,-9.48707e-06,1.86182e-05,-3.90604e-06,0
-2.75893e-05,4.55392e-06,1.13318e-06,-7.32288e-06,1.1192e-05,-7.61756e-06,1.56784e-05,-4.29206e-06,0
-2.80761e-05,4.23291e-06,-1.27773e-06,-2.47807e-06,1.01062e-05,-5.77666e-06,1.39179e-05,-3.14054e-06,0
-2.95795e-05,2.84345e-06,-4.86137e-06,-7.34256e-07,1.12013e-05,-6.05464e-06,1.28775e-05,-2.35535e-06,0
-3.04366e-05,7.89103e-07,-6.92686e-06,-1.09475e-06,1.24859e-05,-9.06114e-06,1.34383e-05,-2.75305e-06,0
-2.91311e-05,-1.02436e-06,-8.03325e-06,-1.48478e-06,1.42463e-05,-1.28361e-05,1.42908e-05,-3.02185e-06,0
-2.81701e-05,-1.78582e-06,-1.12423e-05,-2.68855e-06,1.64436e-05,-1.53067e-05,1.41163e-05,-2.60995e-06,0
-2.91452e-05,-3.45275e-06,-1.48078e-05,-4.7472e-06,1.8302e-05,-1.63339e-05,1.3438e-05,-2.94204e-06,0
-3.01038e-05,-6.23409e-06,-1.59331e-05,-6.05258e-06,1.92186e-05,-1.63002e-05,1.30448e-05,-5.26996e-06,0
-3.08116e-05,-8.62646e-06,-1.49217e-05,-5.31273e-06,1.8495e-05,-1.59046e-05,1.2706e-05,-6.79653e-06,0
-3.19858e-05,-8.83488e-06,-1.34579e-05,-4.42566e-06,1.67505e-05,-1.49321e-05,1.2938e-05,-5.40187e-06,0
-3.22312e-05,-6.78679e-06,-1.18551e-05,-4.86825e-06,1.49977e-05,-1.56142e-05,1.37994e-05,-4.69707e-06,0
-3.13514e-05,-2.95197e-06,-1.07333e-05,-5.68163e-06,1.28963e-05,-1.71494e-05,1.43459e-05,-7.20626e-06,0
-3.09098e-05,5.12272e-07,-9.98746e-06,-5.95162e-06,1.02368e-05,-1.76666e-05,1.47875e-05,-1.02927e-05,0
-3.14101e-05,4.20878e-06,-9.04405e-06,-4.57237e-06,9.2093e-06,-1.61645e-05,1.52994e-05,-1.06686e-05,0
-3.13874e-05,6.52222e-06,-8.26861e-06,-2.27189e-06,1.0581e-05,-1.39443e-05,1.52754e-05,-8.54411e-06,0
-2.96508e-05,6.05293e-06,-8.1869e-06,-1.30391e-06,1.33828e-05,-1.29938e-05,1.36542e-05,-6.17911e-06,0
-2.69584e-05,4.72964e-06,-8.40849e-06,-3.08355e-06,1.60167e-05,-1.27145e-05,1.13719e-05,-5.46453e-06,0
-2.53551e-05,4.65699e-06,-9.50525e-06,-5.34716e-06,1.85433e-05,-1.09949e-05,9.48419e-06,-5.01562e-06,0
-2.60765e-05,7.01998e-06,-1.24443e-05,-5.46676e-06,2.16148e-05,-8.88924e-06,1.01001e-05,-4.39105e-06,0
-2.69965e-05,1.039e-05,-1.32812e-05,-3.24225e-06,2.19989e-05,-7.49778e-06,1.43576e-05,-4.11619e-06,0
-2.63029e-05,1.36993e-05,-1.04172e-05,-2.39303e-06,2.16771e-05,-9.07058e-06,1.88263e-05,-3.21725e-06,0
-2.6224e-05,1.54909e-05,-8.55721e-06,-3.98551e-06,2.53716e-05,-1.28405e-05,1.9247e-05,-1.7721e-06,0
-2.77716e-05,1.57017e-05,-9.2225e-06,-4.36458e-06,2.69013e-05,-1.47425e-05,1.5192e-05,-8.10156e-07,0
-2.8684e-05,1.47823e-05,-1.07743e-05,-4.57155e-06,2.23052e-05,-1.54099e-05,1.10791e-05,7.92112e-07,0
-2.76978e-05,1.5499e-05,-9.62257e-06,-5.77757e-06,1.63796e-05,-1.50663e-05,1.06926e-05,2.68668e-06,0
-2.75829e-05,1.93029e-05,-6.69097e-06,-6.08545e-06,1.211e-05,-1.51248e-05,1.24446e-05,3.43533e-06,0
-2.92376e-05,2.39853e-05,-6.65677e-06,-6.25058e-06,7.97667e-06,-1.4898e-05,1.35729e-05,4.19364e-06,0
-2.9328e-05,2.73577e-05,-8.22046e-06,-5.33971e-06,4.25654e-06,-1.3642e-05,1.2807e-05,3.76573e-06,0
-2.74328e-05,2.85507e-05,-1.06106e-05,-4.36724e-06,2.10015e-06,-1.18262e-05,1.03183e-05,3.02715e-06,0
-2.63372e-05,2.86006e-05,-1.30258e-05,-4.43249e-06,3.05314e-07,-9.051e-06,1.01901e-05,4.65596e-06,0
-2.67744e-05,2.71622e-05,-1.37839e-05,-4.68695e-06,-5.56124e-07,-7.7426e-06,2.09958e-05,6.84582e-06,0
-2.71791e-05,2.55847e-05,-1.14968e-05,-5.51241e-06,9.06547e-07,-9.56993e-06,4.10198e-05,7.77061e-06,0
-2.8268e-05,2.6689e-05,-8.19202e-06,-7.7317e-06,3.68836e-06,-1.2754e-05,5.66901e-05,7.67589e-06,0
-2.95226e-05,2.8942e-05,-6.15355e-06,-1.08423e-05,7.01981e-06,-1.42725e-05,6.06855e-05,8.82261e-06,0
-2.9865e-05,2.99725e-05,-6.02571e-06,-1.14242e-05,1.12279e-05,-1.3834e-05,5.28098e-05,1.05362e-05,0
-3.03499e-05,2.98191e-05,-8.33344e-06,-9.35418e-06,1.53102e-05,-1.31508e-05,3.70887e-05,1.20465e-05,0
-3.07075e-05,2.9946e-05,-1.06131e-05,-6.71575e-06,1.79588e-05,-1.29107e-05,1.88875e-05,1.31432e-05,0
-2.96676e-05,3.14779e-05,-1.22405e-05,-4.11094e-06,1.88401e-05,-1.266e-05,1.32063e-06,1.33646e-05,0
-2.76923e-05,3.44929e-05,-1.35505e-05,-1.53654e-06,1.92313e-05,-1.186e-05,-1.59279e-05,1.39976e-05,0
-2.60439e-05,3.65203e-05,-1.45032e-05,-1.34581e-06,1.88886e-05,-1.14588e-05,-3.12198e-05,1.51243e-05,0
-2.60133e-05,3.61823e-05,-1.43627e-05,-2.8583e-06,1.78162e-05,-1.22459e-05,-3.891e-05,1.52194e-05,0
-2.76621e-05,3.66146e-05,-1.24225e-05,-3.65551e-06,1.61384e-05,-1.369e-05,-3.66334e-05,1.25775e-05,0
-2.91855e-05,3.90508e-05,-8.89251e-06,-4.86263e-06,1.34268e-05,-1.42674e-05,-2.79655e-05,1.01813e-05,0
-2.97426e-05,4.12208e-05,-5.47139e-06,-7.31866e-06,9.2571e-06,-1.32974e-05,-1.88163e-05,1.0428e-05,0
-2.9644e-05,4.41003e-05,-2.37544e-06,-8.92208e-06,2.67336e-06,-1.10764e-05,-1.12297e-05,1.19122e-05,0
-2.94217e-05,4.89617e-05,-1.12281e-06,-8.31145e-06,-3.65278e-06,-1.00997e-05,-4.23842e-06,1.19236e-05,0
-2.91424e-05,5.16152e-05,-3.57291e-06,-4.86679e-06,-2.88407e-06,-1.00185e-05,1.52565e-06,1.05103e-05,0
-2.8657e-05,5.0722e-05,-8.40438e-06,-3.65768e-06,4.76972e-06,-9.51563e-06,5.52543e-06,1.01693e-05,0
-2.84404e-05,4.84491e-05,-1.23256e-05,-8.01341e-06,1.47982e-05,-1.06976e-05,8.75523e-06,1.19375e-05,0
-3.03146e-05,4.63705e-05,-1.05314e-05,-1.2689e-05,2.35828e-05,-1.26643e-05,1.1417e-05,1.3293e-05,0
-3.14711e-05,4.45422e-05,-7.71443e-06,-1.4812e-05,3.2027e-05,-1.39429e-05,1.50843e-05,1.33296e-05,0
-2.9691e-05,4.32443e-05,-8.32335e-06,-1.55291e-05,4.27387e-05,-1.47502e-05,1.88791e-05,1.28802e-05,0
-2.78924e-05,4.24598e-05,-8.52459e-06,-1.62296e-05,4.63977e-05,-1.35973e-05,2.08459e-05,1.24551e-05,0
-2.84793e-05,4.05696e-05,-7.30948e-06,-1.55878e-05,3.91126e-05,-1.22395e-05,2.17532e-05,1.22401e-05,0
-3.00604e-05,3.77174e-05,-6.81372e-06,-1.25431e-05,2.95502e-05,-1.33331e-05,2.20022e-05,9.45474e-06,0
-2.99409e-05,3.41002e-05,-9.06178e-06,-6.8824e-06,2.40154e-05,-1.37885e-05,2.24007e-05,6.61883e-06,0
-2.96928e-05,3.12672e-05,-1.31794e-05,-2.38914e-06,2.25098e-05,-1.26762e-05,2.18139e-05,5.69456e-06,0
-3.0089e-05,2.93583e-05,-1.68491e-05,-1.00443e-06,2.29763e-05,-1.07652e-05,2.07082e-05,3.50003e-06,0
-3.07357e-05,2.74445e-05,-1.9039e-05,-6.39953e-07,2.30006e-05,-9.77784e-06,1.98106e-05,-6.65493e-07,0
-3.1144e-05,2.59511e-05,-1.90642e-05,-4.40286e-07,1.98741e-05,-1.01755e-05,1.81249e-05,-3.14279e-06,0
-3.14392e-05,2.4721e-05,-1.7314e-05,-1.30242e-06,1.2811e-05,-1.08531e-05,1.62027e-05,-3.09352e-06,0
-3.25827e-05,2.33094e-05,-1.5104e-05,-3.31643e-06,5.21888e-06,-1.0919e-05,1.51196e-05,-3.31145e-06,0
-3.40992e-05,2.16709e-05,-1.28273e-05,-5.05044e-06,1.30635e-06,-1.00608e-05,1.50214e-05,-3.75207e-06,0
-3.41429e-05,2.03194e-05,-8.64755e-06,-6.25641e-06,2.38122e-06,-9.8479e-06,1.52078e-05,-3.79588e-06,0
-3.26771e-05,1.92527e-05,-6.1395e-07,-5.77347e-06,6.18888e-06,-1.02917e-05,1.62271e-05,-4.54107e-06,0
-3.17955e-05,1.86709e-05,1.10206e-05,-4.76737e-06,9.10515e-06,-1.08103e-05,1.87332e-05,-6.3253e-06,0
-3.19074e-05,1.84339e-05,2.59445e-05,-5.21067e-06,1.16424e-05,-1.11307e-05,2.1882e-05,-6.56569e-06,0
-3.20721e-05,1.67476e-05,4.54329e-05,-5.68081e-06,1.54058e-05,-1.05398e-05,2.34612e-05,-4.48697e-06,0
-3.17644e-05,1.41651e-05,6.7405e-05,-4.73514e-06,1.84944e-05,-8.29859e-06,2.18424e-05,-2.74814e-06,0
-3.07682e-05,1.36319e-05,8.38969e-05,-5.20976e-06,1.88856e-05,-6.70246e-06,1.74961e-05,-3.5923e-06,0
-3.01787e-05,1.51469e-05,8.30693e-05,-7.85253e-06,1.73682e-05,-7.11876e-06,1.36643e-05,-5.22791e-06,0
-3.04467e-05,1.58822e-05,6.01408e-05,-1.05134e-05,1.50097e-05,-8.2452e-06,1.23334e-05,-5.09514e-06,0
-3.06829e-05,1.48639e-05,2.0565e-05,-1.09685e-05,1.36748e-05,-8.76537e-06,1.09053e-05,-3.29172e-06,0
-3.1e-05,1.59985e-05,-2.6531e-05,-9.50228e-06,1.30993e-05,-7.84477e-06,8.08581e-06,-9.87416e-07,0
-3.03529e-05,1.74064e-05,-6.69565e-05,-7.8289e-06,1.33807e-05,-4.65125e-06,7.12814e-06,6.17392e-07,0
-2.90039e-05,1.45975e-05,-9.25913e-05,-5.69528e-06,1.48587e-05,-1.77607e-06,9.34298e-06,-9.95346e-08,0
-2.81068e-05,1.06727e-05,-9.98278e-05,-7.77669e-06,1.47445e-05,-9.42155e-07,1.10988e-05,-1.58224e-06,0
-2.87564e-05,8.25551e-06,-9.01263e-05,-1.51542e-05,1.19671e-05,2.25891e-07,8.49016e-06,-1.1989e-06,0
-2.88277e-05,8.13317e-06,-7.32325e-05,-2.15779e-05,9.09423e-06,1.96367e-06,6.12732e-06,-5.44367e-08,0
-2.82393e-05,7.84181e-06,-5.72389e-05,-2.17053e-05,9.4008e-06,1.6442e-06,6.04313e-06,-1.28363e-07,0
-2.93792e-05,5.72714e-06,-4.37496e-05,-1.57473e-05,1.11991e-05,-1.70103e-06,5.32e-06,-3.18928e-07,0
-3.016e-05,3.78921e-06,-3.07133e-05,-9.0711e-06,1.14987e-05,-5.17016e-06,5.12307e-06,6.66505e-07,0
-2.95948e-05,1.17376e-06,-1.84652e-05,-2.61011e-06,1.00471e-05,-7.11833e-06,5.71435e-06,1.93504e-06,0
-2.89423e-05,-1.07484e-06,-9.47896e-06,4.32843e-06,9.24899e-06,-7.36854e-06,6.87943e-06,3.36624e-06,0
-2.9287e-05,-3.14177e-06,-4.48014e-06,9.99975e-06,1.00012e-05,-7.73981e-06,7.74789e-06,3.77634e-06,0
-2.89993e-05,-5.31092e-06,1.06238e-07,1.51863e-05,1.0243e-05,-8.79853e-06,8.09597e-06,2.38777e-06,0
-2.94278e-05,-7.16011e-06,3.75849e-06,2.05327e-05,1.00445e-05,-9.2929e-06,6.88301e-06,3.16425e-07,0
-3.13827e-05,-8.73055e-06,5.05348e-06,2.36504e-05,1.07078e-05,-9.18917e-06,5.56347e-06,-7.95405e-07,0
-3.27697e-05,-1.0109e-05,4.38167e-06,2.187e-05,1.12426e-05,-8.24543e-06,5.21638e-06,-1.74696e-06,0
-3.23393e-05,-1.1886e-05,3.95067e-06,1.6003e-05,1.14403e-05,-6.82017e-06,5.11945e-06,-1.97591e-06,0
-3.06616e-05,-1.23079e-05,5.15072e-06,8.28737e-06,1.22912e-05,-6.07292e-06,5.85088e-06,-4.88311e-07,0
-2.91179e-05,-1.15274e-05,6.23646e-06,4.89917e-07,1.32594e-05,-6.06591e-06,8.835e-06,1.01898e-06,0
-2.82452e-05,-9.48314e-06,4.97545e-06,-5.39953e-06,1.35713e-05,-4.85128e-06,1.32198e-05,1.41523e-06,0
-2.82544e-05,-5.54129e-06,2.17083e-06,-8.27476e-06,1.3933e-05,-3.07162e-06,1.52684e-05,1.27904e-06,0
-2.86153e-05,-5.4102e-07,9.61548e-07,-8.9115e-06,1.45498e-05,-3.31497e-06,1.44954e-05,1.59935e-06,0
-2.88459e-05,2.80031e-06,1.31947e-06,-8.347e-06,1.42106e-05,-5.14525e-06,1.36049e-05,1.8527e-06,0
-2.94916e-05,4.66047e-06,1.83785e-06,-6.86784e-06,1.32672e-05,-6.35976e-06,1.38613e-05,1.33701e-06,0
-3.2227e-05,6.58816e-06,3.91435e-07,-4.86617e-06,1.28593e-05,-6.98302e-06,1.43312e-05,8.49589e-07,0
-3.46509e-05,8.0112e-06,-1.62031e-06,-3.46809e-06,1.37126e-05,-7.06853e-06,1.49521e-05,9.791e-07,0
-3.39741e-05,9.20673e-06,-1.8858e-06,-3.17562e-06,1.52525e-05,-5.6195e-06,1.43792e-05,8.06995e-07,0
-3.19809e-05,1.05389e-05,-3.27063e-07,-3.891e-06,1.67172e-05,-4.458e-06,1.36816e-05,1.64314e-07,0
-3.16655e-05,1.13539e-05,1.14894e-06,-5.02875e-06,1.7289e-05,-5.33063e-06,1.33807e-05,-1.0215e-06,0
-3.20472e-05,1.30969e-05,3.80857e-07,-6.82373e-06,1.61929e-05,-5.97941e-06,1.37125e-05,-2.5283e-06,0
-3.27235e-05,1.5672e-05,-7.96154e-07,-9.50009e-06,1.40393e-05,-6.58348e-06,1.5682e-05,-4.12875e-06,0
-3.31377e-05,1.59457e-05,-9.63063e-07,-9.71681e-06,1.27313e-05,-7.07897e-06,1.83675e-05,-3.98577e-06,0
-3.28742e-05,1.4444e-05,-3.01186e-07,-8.47879e-06,1.29278e-05,-6.00389e-06,1.89789e-05,-1.68674e-06,0
-3.35185e-05,1.29547e-05,1.31338e-08,-8.17576e-06,1.23498e-05,-6.33605e-06,1.65366e-05,-1.38579e-06,0
-3.41249e-05,1.32986e-05,-1.62013e-06,-7.80958e-06,1.04123e-05,-7.29502e-06,1.31792e-05,-4.4014e-06,0
-3.39245e-05,1.38101e-05,-5.35312e-06,-5.35387e-06,8.36615e-06,-7.99218e-06,1.10161e-05,-6.70276e-06,0
-3.28881e-05,1.26595e-05,-1.13852e-05,-2.98308e-06,6.21016e-06,-7.86804e-06,1.20408e-05,-5.58314e-06,0
-3.19585e-05,1.16836e-05,-1.70409e-05,-1.90493e-06,7.23702e-06,-6.69583e-06,1.3386e-05,-4.01311e-06,0
-3.24588e-05,9.92362e-06,-2.06945e-05,-1.32399e-06,1.02934e-05,-6.40193e-06,1.38681e-05,-4.45884e-06,0
-3.28538e-05,6.42614e-06,-2.2194e-05,-1.94872e-06,1.09405e-05,-7.23335e-06,1.34087e-05,-5.74419e-06,0
-3.15434e-05,3.32544e-06,-2.4016e-05,-2.45013e-06,9.94402e-06,-8.41506e-06,1.26619e-05,-6.31561e-06,0
-2.98754e-05,3.06377e-06,-2.66509e-05,-3.73831e-06,9.50085e-06,-8.72111e-06,1.21266e-05,-5.35928e-06,0
-2.88886e-05,4.89664e-06,-2.63701e-05,-5.30314e-06,1.00736e-05,-9.00785e-06,1.18817e-05,-3.66698e-06,0
-2.97624e-05,6.96299e-06,-2.30444e-05,-7.20257e-06,9.68594e-06,-9.79659e-06,1.22881e-05,-2.89357e-06,0
-3.22896e-05,6.76714e-06,-1.93738e-05,-9.03238e-06,8.34209e-06,-1.09825e-05,1.36017e-05,-4.01698e-06,0
-3.42531e-05,5.0007e-06,-1.75284e-05,-9.57562e-06,6.56903e-06,-1.26093e-05,1.52442e-05,-5.58298e-06,0
-3.45468e-05,5.41924e-06,-1.62247e-05,-9.50936e-06,5.08199e-06,-1.32502e-05,1.46853e-05,-5.96369e-06,0
-3.37451e-05,7.49767e-06,-1.36539e-05,-9.81089e-06,5.05613e-06,-1.21214e-05,1.26464e-05,-6.00184e-06,0
-3.26002e-05,8.80861e-06,-1.0897e-05,-8.5059e-06,7.30227e-06,-1.1206e-05,1.00278e-05,-5.99335e-06,0
-3.20455e-05,9.42105e-06,-9.31102e-06,-4.72256e-06,1.06337e-05,-1.14171e-05,7.68783e-06,-5.74747e-06,0
-3.23658e-05,1.10604e-05,-7.61352e-06,-1.69646e-06,1.33697e-05,-1.1588e-05,6.40221e-06,-5.76067e-06,0
-3.195e-05,1.23207e-05,-5.72055e-06,-1.19147e-06,1.52568e-05,-1.06117e-05,7.20217e-06,-5.32129e-06,0
-3.13035e-05,1.13873e-05,-3.83012e-06,-2.63256e-06,1.6102e-05,-9.25759e-06,8.99164e-06,-4.16761e-06,0
-3.10686e-05,1.05159e-05,-2.66651e-06,-4.71604e-06,1.58452e-05,-8.52146e-06,1.0639e-05,-1.22065e-06,0
-3.04329e-05,1.08388e-05,-3.19686e-06,-6.7885e-06,1.47198e-05,-8.07293e-06,1.13225e-05,2.74979e-06,0
-3.04827e-05,9.63046e-06,-3.77917e-06,-8.1461e-06,1.36204e-05,-7.30187e-06,1.16312e-05,3.39267e-06,0
-3.10155e-05,8.93738e-06,-3.22004e-06,-8.29157e-06,1.32956e-05,-7.5563e-06,1.2254e-05,1.65866e-06,0
-3.10781e-05,7.19185e-06,-3.55155e-06,-7.7736e-06,1.21854e-05,-8.90809e-06,1.37012e-05,1.78534e-06,0
-3.0149e-05,3.71843e-06,-5.69238e-06,-8.58468e-06,8.70816e-06,-9.01273e-06,1.65003e-05,9.12663e-07,0
-2.76768e-05,3.65641e-06,-7.8933e-06,-1.11226e-05,5.83077e-06,-8.20929e-06,1.6383e-05,-2.30713e-06,0
-2.56507e-05,4.90648e-06,-8.74463e-06,-1.43877e-05,6.48347e-06,-8.37274e-06,1.45408e-05,-3.88309e-06,0
-2.57859e-05,6.35421e-06,-8.57685e-06,-1.65822e-05,8.90733e-06,-9.08439e-06,1.29534e-05,-3.57466e-06,0
-2.74648e-05,7.32125e-06,-6.64473e-06,-1.71604e-05,1.18895e-05,-9.43914e-06,1.18518e-05,-1.58589e-06,0
-3.06334e-05,5.8064e-06,-4.72595e-06,-1.72122e-05,1.40763e-05,-1.09132e-05,1.28441e-05,6.4977e-08,0
-3.31805e-05,2.74119e-06,-5.38328e-06,-1.54597e-05,1.47824e-05,-1.18606e-05,1.39339e-05,8.87586e-07,0
-3.30562e-05,7.93916e-07,-6.71381e-06,-1.18645e-05,1.46069e-05,-1.02979e-05,1.43916e-05,2.94903e-06,0
-3.11772e-05,2.26688e-06,-5.69091e-06,-8.37955e-06,1.38675e-05,-9.20087e-06,1.37187e-05,5.21475e-06,0
-2.97359e-05,5.77336e-06,-3.20983e-06,-3.92786e-06,1.31397e-05,-1.0068e-05,1.35722e-05,6.10647e-06,0
-3.06627e-05,8.11196e-06,-3.46363e-06,3.60825e-06,1.14876e-05,-1.19715e-05,1.48714e-05,6.15529e-06,0
-3.17649e-05,8.76584e-06,-5.72355e-06,1.15618e-05,9.70196e-06,-1.3548e-05,1.64801e-05,5.45652e-06,0
-3.10552e-05,9.98345e-06,-7.08671e-06,1.54197e-05,8.36032e-06,-1.28672e-05,1.67827e-05,4.73207e-06,0
-2.89008e-05,1.22697e-05,-6.5288e-06,1.51422e-05,8.68654e-06,-1.01072e-05,1.30386e-05,4.30912e-06,0
-2.71288e-05,1.38272e-05,-6.12139e-06,1.38612e-05,1.35476e-05,-7.89394e-06,4.06753e-06,4.25089e-06,0
-2.67794e-05,1.23458e-05,-6.39559e-06,1.38821e-05,2.24107e-05,-8.33687e-06,-6.64984e-06,5.74238e-06,0
-2.74804e-05,8.15314e-06,-5.90325e-06,1.28237e-05,2.96499e-05,-9.93927e-06,-1.26773e-05,7.52571e-06,0
-2.84397e-05,5.26736e-06,-4.76321e-06,6.06544e-06,3.08305e-05,-1.02488e-05,-1.23919e-05,7.56085e-06,0
-2.99116e-05,5.71497e-06,-4.27372e-06,-3.37124e-06,2.60638e-05,-9.49871e-06,-7.96165e-06,6.18412e-06,0
-3.1317e-05,8.33813e-06,-4.61901e-06,-7.59395e-06,1.93126e-05,-8.86922e-06,-1.57204e-06,5.7242e-06,0
-3.10172e-05,1.19772e-05,-5.25319e-06,-6.43411e-06,1.59003e-05,-7.9054e-06,6.99508e-06,5.63671e-06,0
-2.9528e-05,1.56355e-05,-5.95891e-06,-4.74944e-06,1.55003e-05,-7.30578e-06,1.76568e-05,4.31806e-06,0
-2.79475e-05,1.74938e-05,-6.92268e-06,-5.51883e-06,1.43012e-05,-7.98312e-06,2.79843e-05,2.35901e-06,0
-2.64651e-05,1.87006e-05,-8.46463e-06,-7.60354e-06,1.14922e-05,-8.38567e-06,3.50626e-05,1.21421e-06,0
-2.50705e-05,1.94718e-05,-9.52823e-06,-8.26312e-06,7.63117e-06,-7.80349e-06,3.8083e-05,5.48889e-07,0
-2.46845e-05,1.99976e-05,-8.50972e-06,-7.78479e-06,-6.38551e-07,-6.69663e-06,3.83972e-05,-6.28738e-07,0
-2.51939e-05,2.02834e-05,-7.86179e-06,-8.06348e-06,-8.50651e-06,-6.68978e-06,3.68832e-05,-2.05792e-06,0
-2.72109e-05,2.07685e-05,-9.98909e-06,-9.34779e-06,-6.19558e-06,-7.65269e-06,3.37328e-05,-2.49114e-06,0
-2.88868e-05,2.35797e-05,-1.16666e-05,-1.00111e-05,1.41494e-06,-8.81357e-06,3.12323e-05,-2.38819e-06,0
-2.86629e-05,2.47721e-05,-1.21843e-05,-1.08787e-05,6.70604e-06,-9.62771e-06,2.70967e-05,-5.96239e-07,0
-2.88389e-05,2.21324e-05,-1.22612e-05,-1.17019e-05,7.83765e-06,-8.70005e-06,2.0483e-05,1.52974e-06,0
-2.8573e-05,1.79397e-05,-1.20318e-05,-1.19112e-05,7.74474e-06,-9.30696e-06,1.55111e-05,1.5815e-06,0
-2.71744e-05,1.4711e-05,-1.18001e-05,-1.08309e-05,7.95792e-06,-1.10701e-05,1.3369e-05,3.11822e-07,0
-2.7738e-05,1.15351e-05,-1.06911e-05,-7.99296e-06,8.32317e-06,-1.0403e-05,1.23424e-05,-1.89006e-06,0
-2.98199e-05,1.1101e-05,-8.17488e-06,-7.22955e-06,8.98183e-06,-8.85517e-06,1.20453e-05,-3.96557e-06,0
-3.1061e-05,1.25273e-05,-5.80149e-06,-8.63095e-06,1.04036e-05,-9.17419e-06,1.17123e-05,-5.37387e-06,0
-3.2378e-05,1.41775e-05,-5.02002e-06,-9.25186e-06,1.32968e-05,-9.61767e-06,8.80916e-06,-3.06519e-06,0
-3.41704e-05,1.62809e-05,-5.96964e-06,-7.37029e-06,1.57332e-05,-8.58127e-06,5.41776e-06,1.12505e-06,0
-3.47225e-05,1.78287e-05,-7.87343e-06,-4.40267e-06,1.68967e-05,-7.85442e-06,4.22653e-06,2.42694e-06,0
-3.38586e-05,1.90104e-05,-9.85816e-06,-2.89206e-06,1.64533e-05,-7.88867e-06,4.67041e-06,1.26128e-06,0
-3.35531e-05,1.92303e-05,-1.06566e-05,-3.18043e-06,1.54155e-05,-8.96641e-06,5.09658e-06,6.13475e-07,0
-3.414e-05,1.85872e-05,-9.991e-06,-3.80282e-06,1.47607e-05,-1.09329e-05,5.74801e-06,1.28503e-06,0
-3.39747e-05,1.52766e-05,-9.7731e-06,-3.14256e-06,1.48351e-05,-1.25929e-05,5.93638e-06,2.46664e-06,0
-3.24732e-05,1.25953e-05,-1.07564e-05,-1.73039e-06,1.35159e-05,-1.28312e-05,4.66472e-06,3.57176e-06,0
-3.08441e-05,1.19625e-05,-1.09762e-05,-8.54392e-07,1.06025e-05,-1.32513e-05,2.23076e-06,3.94012e-06,0
-3.00235e-05,1.17148e-05,-8.6416e-06,-5.02655e-07,7.83464e-06,-1.40168e-05,8.06721e-07,2.94352e-06,0
-3.03285e-05,1.06447e-05,-5.71324e-06,-1.13972e-07,7.03145e-06,-1.29408e-05,1.28485e-06,5.36975e-07,0
-3.06722e-05,1.07662e-05,-3.42209e-06,-1.37924e-07,8.18546e-06,-1.17237e-05,2.37954e-06,-1.44614e-06,0
-3.10537e-05,1.22816e-05,-1.86862e-06,-7.42538e-07,1.0179e-05,-1.18916e-05,4.18592e-06,-1.20219e-06,0
-3.18098e-05,1.37217e-05,-2.6018e-06,-2.24527e-06,1.08611e-05,-1.16673e-05,7.70988e-06,1.81115e-07,0
-3.14134e-05,1.45134e-05,-5.3349e-06,-4.15836e-06,1.15711e-05,-1.20425e-05,1.06091e-05,5.55598e-07,0
-3.01736e-05,1.76371e-05,-7.04373e-06,-6.60689e-06,1.39758e-05,-1.31676e-05,1.18889e-05,-2.82048e-07,0
-2.99427e-05,2.10166e-05,-8.28769e-06,-7.51733e-06,1.66643e-05,-1.36034e-05,1.37447e-05,-9.49709e-07,0
-3.06508e-05,1.9375e-05,-1.00912e-05,-7.40989e-06,1.97183e-05,-1.3595e-05,1.54003e-05,-8.90177e-07,0
-2.94826e-05,1.73209e-05,-1.09352e-05,-7.91432e-06,1.98322e-05,-1.30851e-05,1.73607e-05,-1.971e-06,0
-2.73444e-05,1.62412e-05,-1.10042e-05,-6.6317e-06,1.74344e-05,-1.15136e-05,2.05314e-05,-3.73347e-06,0
-2.82665e-05,1.39784e-05,-1.03941e-05,-4.19166e-06,1.4139e-05,-8.94654e-06,2.34227e-05,-3.40553e-06,0
-3.17563e-05,1.11794e-05,-8.86923e-06,-2.49247e-06,1.128e-05,-6.06221e-06,2.41898e-05,-3.93131e-07,0
-3.41435e-05,1.04165e-05,-7.12618e-06,-2.49425e-06,8.80427e-06,-3.57309e-06,2.23152e-05,9.32744e-08,0
-3.48617e-05,1.12671e-05,-7.61664e-06,-3.13571e-06,8.04174e-06,-2.38966e-06,2.09423e-05,-1.31682e-06,0
-3.4837e-05,1.08124e-05,-1.02562e-05,-3.26498e-06,9.60397e-06,-2.95239e-06,2.0899e-05,-2.0015e-06,0
-3.33343e-05,8.8917e-06,-1.23856e-05,-2.6327e-06,1.00268e-05,-5.59857e-06,1.93648e-05,-2.71308e-06,0
-3.17539e-05,7.00068e-06,-1.1374e-05,-2.40858e-06,9.74166e-06,-8.50286e-06,1.73303e-05,-2.27951e-06,0
-3.24379e-05,5.94305e-06,-8.36512e-06,-2.8045e-06,1.02803e-05,-9.40521e-06,1.4789e-05,-9.80129e-07,0
-3.40671e-05,4.27987e-06,-6.98579e-06,-2.2949e-06,1.17909e-05,-8.76928e-06,1.27082e-05,-1.058e-07,0
-3.35449e-05,3.7724e-07,-7.30628e-06,-1.48611e-06,1.32075e-05,-8.3031e-06,1.19658e-05,-1.50593e-06,0
-3.16354e-05,-3.8282e-06,-7.27725e-06,-1.36263e-06,1.47507e-05,-8.97337e-06,1.12022e-05,-2.76335e-06,0
-2.99239e-05,-6.68393e-06,-5.83115e-06,-1.49027e-06,1.5261e-05,-1.03027e-05,9.9158e-06,-2.45799e-06,0
-2.88357e-05,-6.73034e-06,-4.31699e-06,-9.22173e-07,1.38942e-05,-1.04419e-05,9.45763e-06,-2.25644e-06,0
-2.81848e-05,-3.4185e-06,-3.4286e-06,-5.06128e-07,1.27262e-05,-8.53421e-06,1.12502e-05,-2.124e-06,0
-2.78067e-05,-4.57383e-08,-2.68607e-06,-6.57703e-07,1.29606e-05,-6.57397e-06,1.32294e-05,-8.87753e-07,0
-2.84383e-05,4.55363e-07,-2.47382e-06,1.18348e-07,1.29193e-05,-6.20909e-06,1.37843e-05,3.36978e-07,0
-3.0382e-05,-2.37076e-07,-4.18303e-06,1.78463e-06,1.09723e-05,-5.67354e-06,1.31272e-05,1.06467e-06,0
-3.2862e-05,1.31045e-07,-6.36269e-06,2.04604e-06,7.45886e-06,-4.44707e-06,1.23784e-05,1.2606e-06,0
-3.35664e-05,1.97529e-06,-8.03337e-06,1.05006e-06,5.77696e-06,-3.83233e-06,1.16796e-05,-3.40069e-08,0
-3.23929e-05,3.91747e-06,-1.15804e-05,8.45544e-07,9.17897e-06,-4.53358e-06,9.88812e-06,-1.92948e-06,0
-3.2342e-05,5.22461e-06,-1.69939e-05,1.04961e-06,1.38e-05,-6.54558e-06,5.20999e-06,-1.51722e-06,0
-3.32786e-05,6.52104e-06,-1.96005e-05,1.80905e-07,1.54615e-05,-7.40026e-06,-4.16336e-06,7.93096e-07,0
-3.21608e-05,7.90498e-06,-1.81806e-05,-2.94542e-07,1.37916e-05,-6.33249e-06,-1.27328e-05,7.32363e-07,0
-2.94889e-05,9.13812e-06,-1.58679e-05,-1.57202e-06,1.3275e-05,-5.56317e-06,-1.33939e-05,1.8577e-07,0
-2.85815e-05,9.0422e-06,-1.35603e-05,-4.73225e-06,1.63463e-05,-5.25777e-06,-7.84108e-06,5.81929e-07,0
-3.04608e-05,8.03463e-06,-1.18377e-05,-7.0766e-06,1.89281e-05,-4.66422e-06,1.50028e-07,1.45452e-06,0
-3.04595e-05,9.29941e-06,-1.02841e-05,-9.68621e-06,2.03844e-05,-3.74738e-06,7.72556e-06,4.11818e-06,0
-2.77104e-05,1.27294e-05,-8.03462e-06,-1.01657e-05,2.28109e-05,-1.70855e-06,1.39421e-05,6.49475e-06,0
-2.57972e-05,1.57567e-05,-5.11659e-06,-7.95266e-06,2.62422e-05,7.61855e-08,1.83953e-05,7.03063e-06,0
-2.57167e-05,1.83499e-05,-3.18945e-06,-5.8487e-06,2.97641e-05,-7.59111e-07,2.36516e-05,6.06043e-06,0
-2.66122e-05,2.05299e-05,-3.88876e-06,-7.04435e-06,3.31529e-05,-3.16824e-06,2.84265e-05,5.87174e-06,0
-2.7034e-05,2.02349e-05,-7.69669e-06,-1.22179e-05,3.45981e-05,-4.76783e-06,3.10465e-05,6.87298e-06,0
-2.68503e-05,1.71441e-05,-1.21045e-05,-1.62493e-05,3.34311e-05,-4.28191e-06,3.2647e-05,6.93903e-06,0
-2.51915e-05,1.55882e-05,-1.26367e-05,-1.69716e-05,3.11414e-05,-3.3987e-06,3.30788e-05,5.74271e-06,0
-2.364e-05,1.54689e-05,-1.01713e-05,-1.51847e-05,2.98532e-05,-3.69471e-06,3.33977e-05,5.01089e-06,0
-2.38116e-05,1.44911e-05,-8.78122e-06,-1.31782e-05,2.87487e-05,-4.34119e-06,3.24881e-05,5.36632e-06,0
-2.47405e-05,1.29085e-05,-9.84338e-06,-1.14685e-05,2.48782e-05,-4.54207e-06,3.04956e-05,4.474e-06,0
-2.60126e-05,1.0864e-05,-1.06958e-05,-1.02337e-05,2.04308e-05,-4.38848e-06,2.76507e-05,1.14123e-06,0
-2.77626e-05,7.84246e-06,-9.88289e-06,-1.05036e-05,2.04721e-05,-4.27807e-06,2.54677e-05,-2.05182e-06,0
-3.0115e-05,5.29372e-06,-8.49106e-06,-1.15232e-05,2.38512e-05,-4.44908e-06,2.41351e-05,-2.6827e-06,0
-3.21503e-05,5.88897e-06,-7.4311e-06,-1.0822e-05,2.32847e-05,-4.96008e-06,2.29685e-05,-2.12772e-06,0
-3.19611e-05,7.30498e-06,-7.24148e-06,-8.74613e-06,1.76856e-05,-5.47951e-06,2.08683e-05,-1.3529e-06,0
-2.92857e-05,6.39074e-06,-8.10606e-06,-8.7959e-06,1.21591e-05,-5.50775e-06,1.87279e-05,-4.25045e-07,0
-2.75079e-05,5.18219e-06,-9.81292e-06,-1.20341e-05,9.38991e-06,-5.58156e-06,1.68201e-05,1.26294e-06,0
-2.85585e-05,5.46224e-06,-1.08624e-05,-1.44278e-05,6.46852e-06,-7.51326e-06,1.37537e-05,2.77862e-06,0
-3.0219e-05,6.68877e-06,-9.41637e-06,-1.36746e-05,1.60644e-06,-1.08036e-05,9.84834e-06,2.78837e-06,0
-2.97884e-05,8.35752e-06,-6.86744e-06,-1.24142e-05,-2.35533e-06,-1.37139e-05,7.99954e-06,2.04868e-06,0
-2.81126e-05,7.93039e-06,-5.88368e-06,-1.17198e-05,-2.85362e-06,-1.48435e-05,9.44305e-06,1.76309e-06,0
-2.74257e-05,6.28226e-06,-6.87754e-06,-1.09805e-05,-1.44881e-06,-1.39427e-05,9.88736e-06,1.29376e-06,0
-2.8496e-05,5.85469e-06,-8.22811e-06,-8.62425e-06,8.22417e-07,-1.18376e-05,8.57616e-06,1.07887e-06,0
-2.92793e-05,6.43641e-06,-7.40736e-06,-3.80377e-06,4.60231e-06,-1.2331e-05,7.28709e-06,3.02797e-06,0
-2.95427e-05,6.63504e-06,-6.53382e-06,7.01163e-08,6.30563e-06,-1.5201e-05,5.31834e-06,5.06913e-06,0
-2.93159e-05,6.85517e-06,-5.95039e-06,2.9777e-07,5.58929e-06,-1.51648e-05,1.0502e-06,4.23443e-06,0
-2.78972e-05,1.04466e-05,-4.7211e-06,-1.14143e-06,6.75658e-06,-1.29671e-05,-8.07488e-07,2.44229e-06,0
-2.79057e-05,1.45578e-05,-5.67287e-06,-1.03871e-06,1.02023e-05,-1.12143e-05,3.60161e-06,2.27272e-06,0
-2.96476e-05,1.44227e-05,-9.5129e-06,4.97887e-07,1.30492e-05,-1.11043e-05,8.74957e-06,3.50091e-06,0
-3.11703e-05,1.10171e-05,-1.20244e-05,8.44122e-07,1.32936e-05,-1.23654e-05,1.01861e-05,4.03797e-06,0
-3.19585e-05,6.42757e-06,-1.14369e-05,-1.83566e-07,1.27312e-05,-1.31017e-05,9.49731e-06,2.74589e-06,0
-3.33424e-05,2.43968e-06,-1.04133e-05,-2.17851e-06,1.33778e-05,-1.27591e-05,8.73027e-06,1.86675e-06,0
-3.40178e-05,1.39489e-06,-1.03889e-05,-2.97629e-06,1.37949e-05,-1.24109e-05,9.02371e-06,2.1333e-06,0
-3.37949e-05,3.47594e-06,-1.20222e-05,-1.68559e-06,1.18329e-05,-1.2673e-05,9.42731e-06,3.49273e-06,0
-3.3664e-05,5.85645e-06,-1.39726e-05,-5.80778e-07,8.07581e-06,-1.35199e-05,8.97098e-06,5.28244e-06,0
-3.40236e-05,7.26997e-06,-1.58136e-05,-8.8116e-07,4.73033e-06,-1.37792e-05,9.48107e-06,6.05753e-06,0
-3.45029e-05,7.01108e-06,-1.59702e-05,-1.91836e-06,3.99113e-06,-1.34485e-05,1.18401e-05,5.24208e-06,0
-3.40232e-05,5.73148e-06,-1.36113e-05,-3.11717e-06,5.38203e-06,-1.33395e-05,1.44265e-05,4.04522e-06,0
-3.30526e-05,4.72536e-06,-1.07253e-05,-3.98276e-06,6.54985e-06,-1.38331e-05,1.61682e-05,3.41821e-06,0
-3.23647e-05,3.01069e-06,-9.99545e-06,-4.17889e-06,7.25851e-06,-1.49138e-05,1.64393e-05,3.01949e-06,0
-3.18098e-05,1.57974e-06,-1.12691e-05,-4.41676e-06,7.1349e-06,-1.53737e-05,1.45132e-05,1.75327e-06,0
-3.14771e-05,3.12811e-06,-1.25666e-05,-5.26366e-06,6.32355e-06,-1.52385e-05,1.17709e-05,-1.33427e-06,0
-3.27639e-05,6.76066e-06,-1.36236e-05,-6.39128e-06,6.01744e-06,-1.58976e-05,1.03737e-05,-3.77639e-06,0
-3.3781e-05,9.1862e-06,-1.37995e-05,-6.15631e-06,7.51704e-06,-1.68694e-05,1.02479e-05,-2.59906e-06,0
-3.3317e-05,9.81141e-06,-1.33838e-05,-5.56694e-06,9.0193e-06,-1.69557e-05,9.86647e-06,-3.28706e-08,0
-3.26516e-05,1.06155e-05,-1.35037e-05,-6.11793e-06,9.6194e-06,-1.62289e-05,8.37993e-06,3.97009e-07,0
-3.28465e-05,1.16767e-05,-1.38548e-05,-8.52811e-06,1.04624e-05,-1.43712e-05,7.57714e-06,-4.76065e-07,0
-3.30403e-05,1.01983e-05,-1.49444e-05,-1.10032e-05,1.11704e-05,-1.36261e-05,7.65704e-06,-9.33762e-07,0
-3.23564e-05,7.09547e-06,-1.62404e-05,-1.1073e-05,1.13658e-05,-1.45843e-05,7.41096e-06,-2.50999e-07,0
-3.07864e-05,5.66798e-06,-1.51275e-05,-1.00352e-05,1.20457e-05,-1.58085e-05,8.6986e-06,4.95587e-07,0
-3.02213e-05,6.8274e-06,-1.23218e-05,-8.43382e-06,1.32359e-05,-1.63309e-05,1.15215e-05,1.4672e-06,0
-3.05051e-05,8.67937e-06,-8.30713e-06,-8.57939e-06,1.38115e-05,-1.59782e-05,1.30183e-05,3.55777e-06,0
-3.05395e-05,1.00131e-05,-4.48587e-06,-9.37843e-06,1.38713e-05,-1.64378e-05,1.25703e-05,6.30421e-06,0
-3.08264e-05,1.00814e-05,1.21391e-06,-8.97249e-06,1.33317e-05,-1.61038e-05,1.31013e-05,7.85168e-06,0
-2.94731e-05,9.7962e-06,1.48461e-05,-9.03194e-06,1.23192e-05,-1.33993e-05,1.36755e-05,7.93039e-06,0
-2.80342e-05,1.06556e-05,3.60592e-05,-8.8206e-06,1.09081e-05,-1.01734e-05,1.297e-05,9.57444e-06,0
-2.74633e-05,1.27399e-05,5.81723e-05,-7.8828e-06,1.11811e-05,-8.24163e-06,1.27218e-05,1.13361e-05,0
-2.77471e-05,1.43602e-05,7.43736e-05,-5.85007e-06,1.14865e-05,-8.70551e-06,1.51259e-05,1.13406e-05,0
-2.88623e-05,1.4139e-05,7.69975e-05,-4.41556e-06,8.73036e-06,-9.31362e-06,1.89288e-05,1.02748e-05,0
-2.89301e-05,1.44296e-05,5.98674e-05,-3.64033e-06,3.3797e-06,-9.52931e-06,2.15347e-05,9.14367e-06,0
-2.84136e-05,1.49304e-05,2.38225e-05,-4.55973e-06,-2.06311e-06,-1.13582e-05,2.20161e-05,6.23437e-06,0
-2.87877e-05,1.47274e-05,-2.23057e-05,-6.24971e-06,-4.1084e-06,-1.36476e-05,2.03838e-05,1.46763e-06,0
-2.88304e-05,1.28651e-05,-6.5965e-05,-6.53365e-06,-1.30104e-06,-1.53253e-05,1.83177e-05,-1.56117e-06,0
-2.7791e-05,1.15584e-05,-9.60762e-05,-5.83221e-06,5.63483e-06,-1.55754e-05,1.62736e-05,-2.19377e-06,0
-2.79063e-05,1.19488e-05,-0.000106622,-5.03577e-06,1.32337e-05,-1.45363e-05,1.42669e-05,-1.47007e-06,0
-3.02792e-05,1.19885e-05,-9.95916e-05,-5.2164e-06,1.88734e-05,-1.32515e-05,1.27859e-05,-1.73835e-06,0
-3.25144e-05,1.17986e-05,-8.16181e-05,-5.85523e-06,2.17568e-05,-1.32199e-05,1.27346e-05,-2.8985e-06,0
-3.23536e-05,1.29238e-05,-6.22221e-05,-6.30978e-06,2.26991e-05,-1.50383e-05,1.42058e-05,-3.53294e-06,0
-3.10223e-05,1.61228e-05,-4.74437e-05,-5.89664e-06,2.24014e-05,-1.69519e-05,1.61556e-05,-3.34071e-06,0
-3.05781e-05,1.94104e-05,-3.71404e-05,-5.26221e-06,2.17419e-05,-1.77353e-05,1.63223e-05,-2.21181e-06,0
-3.11453e-05,2.09924e-05,-2.71457e-05,-4.4149e-06,2.08613e-05,-1.81969e-05,1.40697e-05,2.81881e-07,0
-3.21757e-05,2.25007e-05,-1.51375e-05,-5.16419e-06,1.99355e-05,-1.83095e-05,1.137e-05,2.2039e-06,0
-3.32013e-05,2.58976e-05,-4.55309e-06,-7.10938e-06,1.96087e-05,-1.69506e-05,9.7081e-06,1.41305e-06,0
-3.23797e-05,2.81504e-05,2.57619e-06,-7.17513e-06,1.92447e-05,-1.55156e-05,7.89235e-06,-1.66233e-06,0
-3.09382e-05,2.92103e-05,6.03619e-06,-3.83062e-06,1.8827e-05,-1.47691e-05,6.68233e-06,-4.54258e-06,0
-3.06863e-05,2.92181e-05,4.97687e-06,-2.92308e-07,1.97539e-05,-1.36095e-05,7.54246e-06,-5.57996e-06,0
-3.0739e-05,2.72613e-05,2.68688e-06,3.81914e-07,2.07465e-05,-1.2388e-05,1.00899e-05,-5.36148e-06,0
-3.12472e-05,2.42336e-05,1.56684e-06,1.39145e-06,2.00215e-05,-1.22854e-05,1.299e-05,-3.43855e-06,0
-3.2024e-05,2.25943e-05,6.69434e-07,3.09185e-06,1.91416e-05,-1.35763e-05,1.42634e-05,-8.80038e-07,0
-3.13083e-05,2.54067e-05,4.13356e-07,8.12464e-07,1.86154e-05,-1.39982e-05,1.34804e-05,9.64297e-07,0
-2.94586e-05,3.00786e-05,1.66164e-06,-4.7944e-06,1.74472e-05,-1.24032e-05,1.31509e-05,1.59003e-06,0
-2.83418e-05,3.33944e-05,1.78961e-06,-8.36186e-06,1.48857e-05,-1.08216e-05,1.21872e-05,8.75628e-07,0
-2.83134e-05,3.418e-05,-6.48313e-07,-7.24101e-06,1.25942e-05,-9.89754e-06,9.55864e-06,3.81743e-07,0
-2.84889e-05,3.41999e-05,-2.60371e-06,-4.01897e-06,1.05373e-05,-8.64308e-06,8.21514e-06,8.06373e-07,0
-2.8429e-05,3.5008e-05,-2.11906e-06,-2.44981e-06,8.40848e-06,-8.17617e-06,8.15342e-06,1.40833e-06,0
-2.83631e-05,3.47485e-05,6.13609e-07,-1.41184e-06,7.67037e-06,-8.65368e-06,8.4521e-06,2.21835e-06,0
-2.8001e-05,3.22841e-05,3.37982e-06,1.77722e-06,8.86512e-06,-9.61814e-06,8.25827e-06,1.86429e-06,0
-2.70723e-05,2.84518e-05,4.47071e-06,6.05051e-06,1.03649e-05,-8.92175e-06,7.04252e-06,1.57795e-06,0
-2.6908e-05,2.57062e-05,3.62669e-06,9.51323e-06,1.01958e-05,-5.65606e-06,4.5089e-06,1.78869e-06,0
-2.78414e-05,2.31422e-05,1.68905e-06,1.28023e-05,7.08811e-06,-3.29542e-06,4.41655e-06,1.74012e-06,0
-2.86282e-05,1.95493e-05,-1.30586e-07,1.59948e-05,3.8235e-06,-2.13024e-06,7.85539e-06,2.06537e-06,0
-2.93115e-05,1.59212e-05,-1.71449e-06,1.78061e-05,3.40717e-06,-1.11969e-06,1.18321e-05,3.52656e-06,0
-3.01704e-05,1.39625e-05,-2.70158e-06,1.53478e-05,4.55794e-06,4.2563e-07,1.40863e-05,5.48308e-06,0
-3.14677e-05,1.38534e-05,-2.0541e-06,8.55691e-06,4.83023e-06,2.13325e-06,1.44345e-05,5.52663e-06,0
-3.18985e-05,1.36354e-05,-6.96846e-07,8.59678e-07,3.09963e-06,3.3058e-06,1.4288e-05,3.81241e-06,0
-3.03271e-05,1.31383e-05,2.22446e-07,-4.14302e-06,2.09789e-06,2.33841e-06,1.3818e-05,1.70839e-06,0
-2.84523e-05,1.29003e-05,9.13744e-07,-5.87706e-06,4.1984e-06,-5.09126e-07,1.36526e-05,8.75992e-07,0
-2.84714e-05,1.3378e-05,2.81139e-06,-7.4308e-06,7.79982e-06,-3.321e-06,1.42438e-05,5.18078e-07,0
-2.92133e-05,1.40311e-05,6.20753e-06,-1.0459e-05,8.76279e-06,-4.70619e-06,1.46487e-05,4.64946e-07,0
-2.94229e-05,1.42874e-05,8.90636e-06,-1.34631e-05,7.22084e-06,-5.0211e-06,1.48682e-05,1.14892e-06,0
-2.96702e-05,1.61177e-05,8.88887e-06,-1.49855e-05,6.18361e-06,-6.74147e-06,1.66419e-05,1.53185e-06,0
-2.97696e-05,1.97602e-05,6.51245e-06,-1.55653e-05,7.32948e-06,-8.14214e-06,1.84715e-05,1.47869e-06,0
-2.99326e-05,2.2368e-05,3.6586e-06,-1.57164e-05,1.01036e-05,-9.70412e-06,1.82023e-05,1.34991e-06,0
-2.95369e-05,2.31875e-05,1.6287e-06,-1.46397e-05,1.30274e-05,-1.22902e-05,1.86585e-05,8.91738e-07,0
-2.91097e-05,2.12322e-05,1.84365e-07,-1.35839e-05,1.49549e-05,-1.29464e-05,2.01683e-05,6.58363e-07,0
-3.03297e-05,1.63967e-05,-2.78783e-07,-1.37379e-05,1.62781e-05,-1.26348e-05,1.94695e-05,4.20257e-07,0
-3.0808e-05,1.13709e-05,4.30169e-07,-1.28918e-05,1.59089e-05,-1.24456e-05,1.76743e-05,6.58431e-07,0
-3.05054e-05,8.96399e-06,-2.11104e-07,-1.18255e-05,1.48221e-05,-1.27697e-05,1.49456e-05,3.01281e-06,0
-3.11859e-05,8.39128e-06,-1.56245e-06,-1.16603e-05,1.52865e-05,-1.27674e-05,1.35814e-05,6.02066e-06,0
-3.17595e-05,6.71787e-06,-2.6556e-06,-9.43109e-06,1.54697e-05,-1.23783e-05,1.40426e-05,7.61084e-06,0
-3.10566e-05,5.58019e-06,-5.65273e-06,-5.58884e-06,1.42505e-05,-1.25945e-05,1.42641e-05,6.30184e-06,0
-2.94228e-05,6.52507e-06,-1.18398e-05,-2.94817e-06,1.34767e-05,-1.23437e-05,1.40939e-05,3.86405e-06,0
-2.80856e-05,7.37514e-06,-1.62359e-05,-9.70931e-07,1.41681e-05,-1.21701e-05,1.32874e-05,2.81508e-06,0
-2.82024e-05,8.27602e-06,-1.48405e-05,2.51788e-07,1.59578e-05,-1.18844e-05,1.32198e-05,2.29931e-06,0
-2.9648e-05,9.81295e-06,-1.16558e-05,-1.16317e-07,1.87006e-05,-1.12342e-05,1.26383e-05,1.33119e-06,0
-3.0181e-05,1.00856e-05,-9.56017e-06,-1.2051e-07,1.98631e-05,-1.07989e-05,1.1339e-05,-5.10801e-07,0
-3.00049e-05,8.49583e-06,-8.4444e-06,6.05725e-07,1.97597e-05,-1.18395e-05,1.05718e-05,-2.11829e-06,0
-2.96996e-05,5.52089e-06,-7.03781e-06,1.14981e-06,1.91139e-05,-1.39061e-05,1.05015e-05,-3.41361e-06,0
-3.01048e-05,2.31429e-06,-5.96235e-06,2.03959e-06,1.83055e-05,-1.51859e-05,1.04806e-05,-3.99558e-06,0
-3.10016e-05,1.64496e-06,-7.05449e-06,1.92111e-06,1.82429e-05,-1.42228e-05,1.02557e-05,-3.39844e-06,0
-3.1478e-05,4.32042e-06,-9.13934e-06,7.71321e-07,1.95625e-05,-1.17643e-05,9.17053e-06,-3.10445e-06,0
-3.13191e-05,7.79345e-06,-9.12055e-06,1.72433e-07,2.11506e-05,-1.00355e-05,7.93731e-06,-3.66602e-06,0
-3.08129e-05,9.25926e-06,-6.26671e-06,1.47105e-06,2.15412e-05,-1.04905e-05,8.49008e-06,-3.47989e-06,0
-2.9682e-05,8.58185e-06,-3.21169e-06,3.16544e-06,2.12017e-05,-1.19307e-05,1.04956e-05,-8.87355e-07,0
-2.76344e-05,8.63215e-06,-2.99082e-06,2.20051e-06,2.00941e-05,-1.18512e-05,1.20369e-05,2.12942e-06,0
-2.67897e-05,1.02617e-05,-5.37761e-06,7.80634e-08,1.78527e-05,-1.01795e-05,1.2417e-05,4.0226e-06,0
-2.72706e-05,1.06237e-05,-7.12196e-06,-8.07423e-07,1.62633e-05,-9.09714e-06,1.20341e-05,5.04117e-06,0
-2.73894e-05,1.00124e-05,-7.18898e-06,-9.41348e-07,1.79011e-05,-1.02562e-05,1.19644e-05,4.65161e-06,0
-2.82096e-05,9.97017e-06,-7.72502e-06,-1.61943e-06,1.91645e-05,-1.17971e-05,1.31892e-05,3.19545e-06,0
-3.04741e-05,9.96628e-06,-1.06982e-05,-3.71138e-06,1.47408e-05,-1.29644e-05,1.48476e-05,2.3534e-06,0
-3.22479e-05,9.55587e-06,-1.37636e-05,-5.77288e-06,5.25682e-06,-1.33424e-05,1.48654e-05,3.53452e-06,0
-3.29234e-05,7.22858e-06,-1.42052e-05,-6.22807e-06,-4.58866e-06,-1.29239e-05,1.37145e-05,5.48633e-06,0
-3.27484e-05,3.70316e-06,-1.1514e-05,-5.40926e-06,-8.80387e-06,-1.21312e-05,1.26096e-05,6.77217e-06,0
-3.24673e-05,1.30094e-07,-9.15082e-06,-4.06067e-06,-5.39752e-06,-1.0648e-05,1.12735e-05,8.22268e-06,0
-3.15133e-05,-2.69077e-06,-1.00948e-05,-6.59239e-06,3.39834e-06,-8.49549e-06,1.06758e-05,8.0751e-06,0
-3.1344e-05,-3.29245e-06,-1.2844e-05,-1.04113e-05,1.36953e-05,-6.5196e-06,9.25019e-06,7.08849e-06,0
-3.11195e-05,-1.3288e-06,-1.38931e-05,-1.06324e-05,2.07534e-05,-6.75634e-06,7.25752e-06,6.20159e-06,0
-2.87422e-05,2.43515e-06,-1.12734e-05,-9.51572e-06,2.97488e-05,-8.52026e-06,6.31439e-06,5.36521e-06,0
-2.72733e-05,6.06886e-06,-9.93018e-06,-7.3613e-06,4.20911e-05,-9.82385e-06,6.44794e-06,6.23775e-06,0
-2.78095e-05,8.05457e-06,-1.07459e-05,-6.00025e-06,4.71853e-05,-1.01583e-05,2.59066e-06,8.5022e-06,0
-2.89645e-05,8.20563e-06,-1.01522e-05,-6.72951e-06,3.96427e-05,-1.08848e-05,-6.58531e-06,9.27774e-06,0
-2.9202e-05,7.42994e-06,-8.73642e-06,-8.11154e-06,2.86223e-05,-1.15438e-05,-1.55327e-05,7.25966e-06,0
-2.90264e-05,7.85676e-06,-9.05916e-06,-7.51122e-06,2.20454e-05,-1.05742e-05,-1.95418e-05,3.92651e-06,0
-2.87455e-05,1.01973e-05,-9.14064e-06,-4.81934e-06,1.87029e-05,-9.27102e-06,-1.63226e-05,4.30008e-07,0
-2.84976e-05,1.35959e-05,-8.16111e-06,-2.06799e-06,1.65641e-05,-9.45115e-06,-8.70088e-06,-1.56332e-06,0
-2.94307e-05,1.69708e-05,-8.0475e-06,-4.62233e-07,1.48166e-05,-1.06306e-05,-8.37217e-07,-1.8704e-06,0
-3.09853e-05,1.96817e-05,-8.18919e-06,-5.59479e-07,1.34567e-05,-1.19505e-05,7.18258e-06,-6.83391e-07,0
-3.15484e-05,2.23003e-05,-7.701e-06,-1.94588e-06,1.22445e-05,-1.33184e-05,1.7088e-05,1.169e-06,0
-3.02334e-05,2.36378e-05,-6.2955e-06,-4.58599e-06,1.16502e-05,-1.29642e-05,2.64454e-05,2.87593e-06,0
-2.83131e-05,2.33991e-05,-5.5597e-06,-7.4671e-06,1.08486e-05,-1.10269e-05,3.27384e-05,2.79868e-06,0
-2.7165e-05,2.3681e-05,-5.68253e-06,-9.72969e-06,1.07795e-05,-9.36802e-06,3.51626e-05,-1.89475e-08,0
-2.67625e-05,2.44111e-05,-6.06174e-06,-1.04463e-05,1.11606e-05,-8.32799e-06,3.53548e-05,-3.65567e-06,0
-2.765e-05,2.22485e-05,-5.66939e-06,-9.98701e-06,1.07194e-05,-7.21884e-06,3.74685e-05,-5.16181e-06,0
-2.98323e-05,1.85702e-05,-5.1188e-06,-9.11914e-06,1.0535e-05,-6.77001e-06,4.88996e-05,-4.71019e-06,0
-3.15772e-05,1.70437e-05,-5.57102e-06,-8.11354e-06,1.11249e-05,-7.4349e-06,6.69058e-05,-3.72304e-06,0
-3.26257e-05,1.7233e-05,-6.24402e-06,-6.58155e-06,1.12683e-05,-9.336e-06,7.7698e-05,-2.89041e-06,0
-3.37862e-05,1.76118e-05,-5.71137e-06,-5.33468e-06,1.18416e-05,-1.15082e-05,7.48914e-05,-3.14425e-06,0
-3.44459e-05,1.71893e-05,-5.40074e-06,-5.99293e-06,1.19854e-05,-1.22384e-05,6.11363e-05,-3.3738e-06,0
-3.39738e-05,1.61067e-05,-7.4244e-06,-6.6553e-06,1.2403e-05,-9.94066e-06,3.85998e-05,-2.66109e-06,0
-3.29252e-05,1.52918e-05,-1.17783e-05,-6.20142e-06,1.36639e-05,-6.33595e-06,1.51655e-05,-1.74415e-06,0
-3.11028e-05,1.60405e-05,-1.73621e-05,-6.22238e-06,1.41772e-05,-5.41546e-06,-4.25848e-06,-2.03503e-06,0
-2.88484e-05,1.76187e-05,-2.05771e-05,-6.6946e-06,1.35771e-05,-5.14797e-06,-2.29176e-05,-2.02054e-06,0
-2.73089e-05,1.75822e-05,-1.90307e-05,-7.18288e-06,1.22993e-05,-5.79145e-06,-3.74514e-05,-1.74482e-06,0
-2.65415e-05,1.71549e-05,-1.57085e-05,-6.64886e-06,1.21964e-05,-8.1599e-06,-4.35092e-05,-6.995e-07,0
-2.65395e-05,1.95151e-05,-1.4152e-05,-5.77426e-06,1.29053e-05,-1.06947e-05,-3.99626e-05,2.76883e-06,0
-2.71341e-05,2.31501e-05,-1.47288e-05,-5.54202e-06,1.46396e-05,-1.1605e-05,-3.18428e-05,4.4666e-06,0
-2.83347e-05,2.46019e-05,-1.66338e-05,-4.56722e-06,1.68744e-05,-1.03429e-05,-2.30416e-05,2.43199e-06,0
-2.94706e-05,2.30696e-05,-1.7831e-05,-2.51731e-06,1.78413e-05,-9.64503e-06,-1.57962e-05,-1.0135e-06,0
-2.93422e-05,2.19427e-05,-1.79825e-05,-5.21215e-07,1.73241e-05,-9.30411e-06,-1.00921e-05,-3.43134e-06,0
-2.91146e-05,2.15427e-05,-1.72699e-05,9.88871e-07,1.70406e-05,-8.08147e-06,-5.68147e-06,-4.03024e-06,0
-3.00514e-05,1.91873e-05,-1.68047e-05,1.47103e-06,1.58282e-05,-6.12376e-06,-2.91114e-06,-3.78856e-06,0
-3.13228e-05,1.65925e-05,-1.6625e-05,5.15704e-07,1.21414e-05,-5.32623e-06,-1.27954e-06,-4.03883e-06,0
-3.17319e-05,1.60214e-05,-1.60734e-05,-1.34896e-06,8.30463e-06,-5.49703e-06,1.57868e-07,-4.26911e-06,0
-3.20763e-05,1.65115e-05,-1.44812e-05,-3.90215e-06,7.45293e-06,-5.16417e-06,4.20208e-06,-3.63132e-06,0
-3.30408e-05,1.62746e-05,-1.2287e-05,-6.13754e-06,8.92375e-06,-5.19189e-06,1.04943e-05,-3.42725e-06,0
-3.4008e-05,1.48576e-05,-1.07388e-05,-8.01826e-06,9.18905e-06,-5.31915e-06,1.6001e-05,-3.3066e-06,0
-3.4576e-05,1.21322e-05,-9.63925e-06,-9.79904e-06,8.1502e-06,-5.01588e-06,1.71757e-05,-1.46103e-06,0
-3.41812e-05,9.31474e-06,-7.96665e-06,-1.13833e-05,7.70669e-06,-5.21172e-06,1.54695e-05,1.09088e-06,0
-3.37336e-05,7.80417e-06,-5.08483e-06,-1.13004e-05,8.30014e-06,-5.14402e-06,1.39508e-05,1.51652e-06,0
-3.34957e-05,7.32537e-06,-2.78994e-06,-1.1085e-05,1.05251e-05,-3.15387e-06,1.31122e-05,-1.71484e-07,0
-3.24699e-05,7.06602e-06,-2.93448e-06,-1.26128e-05,1.26443e-05,-7.73843e-07,1.33802e-05,-2.03283e-06,0
-3.19319e-05,7.55409e-06,-6.90639e-06,-1.52014e-05,1.28066e-05,-9.693e-07,1.60855e-05,-6.1733e-07,0
-3.28314e-05,6.54105e-06,-1.08186e-05,-1.71519e-05,1.1247e-05,-2.54792e-06,1.89962e-05,1.90555e-06,0
-3.43675e-05,4.55262e-06,-1.03736e-05,-1.74533e-05,9.54035e-06,-3.18919e-06,2.01004e-05,2.38434e-06,0
-3.48925e-05,4.65912e-06,-8.04425e-06,-1.61193e-05,9.4323e-06,-4.22759e-06,1.91412e-05,2.02342e-06,0
-3.32644e-05,6.51391e-06,-6.12167e-06,-1.3322e-05,9.24462e-06,-5.84499e-06,1.67684e-05,1.57457e-06,0
-3.21118e-05,8.75077e-06,-4.75734e-06,-1.05312e-05,8.68678e-06,-6.59218e-06,1.58062e-05,2.41072e-06,0
-3.18044e-05,9.70758e-06,-5.07103e-06,-9.31215e-06,6.46675e-06,-6.24389e-06,1.73293e-05,1.82343e-06,0
-3.22869e-05,8.27664e-06,-6.2494e-06,-9.8729e-06,5.10286e-06,-5.71536e-06,1.98164e-05,-6.18009e-07,0
-3.39749e-05,6.54396e-06,-7.33084e-06,-1.01166e-05,6.64011e-06,-6.0603e-06,2.24291e-05,-3.41719e-06,0
-3.52661e-05,8.45967e-06,-7.36752e-06,-8.15998e-06,9.1126e-06,-6.83601e-06,2.2428e-05,-3.94035e-06,0
-3.4457e-05,1.12908e-05,-5.24035e-06,-4.94942e-06,1.03931e-05,-6.94353e-06,2.05328e-05,-2.99411e-06,0
-3.19465e-05,1.40678e-05,-3.21717e-06,-3.18682e-06,9.47678e-06,-7.89665e-06,2.01785e-05,-3.25182e-06,0
-3.12115e-05,1.63793e-05,-3.95409e-06,-1.46712e-06,9.47688e-06,-9.51525e-06,1.93584e-05,-3.19748e-06,0
-3.21606e-05,1.69308e-05,-5.85918e-06,-1.17189e-06,1.08262e-05,-1.02694e-05,1.69999e-05,-3.51956e-06,0
-3.26593e-05,1.47269e-05,-6.64398e-06,-1.83599e-06,1.33854e-05,-9.53695e-06,1.37473e-05,-3.91307e-06,0
-3.24677e-05,1.23956e-05,-6.78037e-06,-1.79677e-06,1.59056e-05,-8.21496e-06,9.44017e-06,-4.97554e-06,0
-3.13387e-05,1.432e-05,-6.9025e-06,-1.95947e-06,1.70021e-05,-7.8749e-06,4.87195e-06,-5.07408e-06,0
-2.90501e-05,1.81693e-05,-6.50667e-06,-2.26954e-06,1.57672e-05,-8.83892e-06,2.12499e-06,-4.17489e-06,0
-2.78522e-05,2.10913e-05,-6.07177e-06,-2.43583e-06,1.44809e-05,-1.07313e-05,2.27804e-06,-3.38496e-06,0
-2.86122e-05,2.18122e-05,-6.3824e-06,-1.53511e-06,1.52514e-05,-1.25418e-05,4.9564e-06,-2.78702e-06,0
-3.01662e-05,2.11527e-05,-7.47667e-06,6.21453e-07,1.76663e-05,-1.25118e-05,9.53779e-06,-3.20519e-06,0
-3.11346e-05,1.9759e-05,-7.68598e-06,3.69951e-06,1.97101e-05,-1.01868e-05,1.50934e-05,-4.60527e-06,0
-3.05868e-05,1.91072e-05,-6.24513e-06,5.01972e-06,2.07153e-05,-8.50559e-06,1.89415e-05,-5.94778e-06,0
-2.87906e-05,1.90489e-05,-5.52834e-06,4.49361e-06,2.17505e-05,-8.76238e-06,2.06594e-05,-6.11425e-06,0
-2.65879e-05,1.8844e-05,-5.36621e-06,3.20943e-06,2.07919e-05,-9.00599e-06,2.08289e-05,-6.13331e-06,0
-2.47712e-05,1.73673e-05,-4.4188e-06,2.01035e-06,1.83286e-05,-8.56464e-06,2.02056e-05,-6.74097e-06,0
-2.52658e-05,1.6429e-05,-2.68779e-06,1.88921e-06,1.70173e-05,-7.06317e-06,2.00143e-05,-6.59315e-06,0
-2.81817e-05,1.69283e-05,-1.62022e-06,2.33369e-06,1.60699e-05,-2.89931e-06,1.96806e-05,-3.86804e-06,0
-3.09055e-05,1.64071e-05,-1.26878e-06,3.88641e-06,1.51134e-05,1.75886e-09,1.91379e-05,2.99412e-07,0
-3.1979e-05,1.41016e-05,-1.35175e-06,7.53058e-06,1.58645e-05,-7.72995e-07,1.93444e-05,3.31172e-06,0
-3.03394e-05,1.08163e-05,-7.41228e-07,9.8221e-06,1.5865e-05,-2.97422e-06,2.01671e-05,5.47934e-06,0
-2.73456e-05,9.28285e-06,-1.13749e-06,9.41343e-06,1.39287e-05,-4.5974e-06,2.00098e-05,7.55252e-06,0
-2.70296e-05,8.13931e-06,-3.9074e-06,7.51623e-06,1.14893e-05,-5.17303e-06,1.92551e-05,5.72228e-06,0
-2.87447e-05,7.48281e-06,-5.60677e-06,5.1425e-06,7.83945e-06,-5.21413e-06,1.88433e-05,3.34492e-06,0
-2.75334e-05,7.38972e-06,-6.80793e-06,3.6874e-06,3.16053e-06,-6.16182e-06,1.85214e-05,2.72997e-06,0
-2.55286e-05,7.35233e-06,-8.17249e-06,3.27897e-06,1.60063e-06,-7.17635e-06,1.8939e-05,2.06802e-06,0
-2.58388e-05,7.88252e-06,-9.42114e-06,3.0658e-06,3.91041e-06,-7.37449e-06,1.76182e-05,3.04905e-06,0
-2.71219e-05,9.54083e-06,-1.07387e-05,2.68648e-06,8.25777e-06,-8.27223e-06,1.64555e-05,4.58436e-06,0
-2.87799e-05,1.28293e-05,-1.17176e-05,3.61696e-06,1.09167e-05,-8.5723e-06,1.7677e-05,5.77866e-06,0
-3.01108e-05,1.55083e-05,-1.24924e-05,5.34463e-06,1.0699e-05,-9.12648e-06,1.88886e-05,7.11823e-06,0
-2.9814e-05,1.79842e-05,-1.26935e-05,5.507e-06,9.86015e-06,-1.09937e-05,1.82547e-05,7.31084e-06,0
-2.85695e-05,2.0889e-05,-1.1432e-05,4.30865e-06,1.00583e-05,-1.35945e-05,1.54507e-05,5.60797e-06,0
-2.77749e-05,2.304e-05,-9.57989e-06,2.95377e-06,1.13587e-05,-1.61087e-05,1.14322e-05,4.20469e-06,0
-2.82221e-05,2.24003e-05,-8.48552e-06,2.09947e-06,1.19761e-05,-1.7897e-05,8.04354e-06,3.70073e-06,0
-2.90228e-05,2.15293e-05,-8.09816e-06,1.87321e-06,1.15979e-05,-1.94119e-05,7.51285e-06,4.0992e-06,0
-2.9122e-05,2.25505e-05,-7.15475e-06,1.29016e-06,1.15138e-05,-2.04535e-05,7.64224e-06,5.63329e-06,0
-2.90613e-05,2.37264e-05,-6.21841e-06,2.10228e-08,1.32813e-05,-2.00139e-05,7.90882e-06,6.36782e-06,0
-2.9015e-05,2.38847e-05,-5.59715e-06,-1.51066e-06,1.58921e-05,-1.85521e-05,8.65975e-06,5.16651e-06,0
-2.9262e-05,2.32213e-05,-3.74273e-06,-2.99395e-06,1.82543e-05,-1.68506e-05,1.15387e-05,4.00021e-06,0
-3.02402e-05,2.21013e-05,-2.0467e-06,-4.54631e-06,1.95838e-05,-1.53375e-05,1.53894e-05,3.65182e-06,0
-3.19829e-05,2.00493e-05,-2.11517e-06,-5.82466e-06,1.99463e-05,-1.42021e-05,1.66111e-05,3.64456e-06,0
-3.2464e-05,1.92399e-05,-3.43877e-06,-8.63518e-06,1.89453e-05,-1.30362e-05,1.43015e-05,3.00731e-06,0
-3.1235e-05,2.09329e-05,-5.12107e-06,-1.28402e-05,1.70373e-05,-1.16689e-05,1.23252e-05,1.83742e-06,0
-2.9821e-05,2.34442e-05,-7.81933e-06,-1.63816e-05,1.51588e-05,-9.87728e-06,1.44612e-05,1.37779e-06,0
-2.93272e-05,2.38838e-05,-1.08294e-05,-1.82929e-05,1.4721e-05,-7.92913e-06,1.91154e-05,4.77876e-07,0
-3.0832e-05,2.25653e-05,-1.21214e-05,-1.90034e-05,1.58299e-05,-6.94795e-06,2.26204e-05,-1.74456e-06,0
-3.2178e-05,2.0031e-05,-1.21919e-05,-1.94786e-05,1.61853e-05,-7.52977e-06,2.33333e-05,-3.53003e-06,0
-3.22679e-05,1.66496e-05,-1.20024e-05,-1.85733e-05,1.3979e-05,-8.76374e-06,2.16983e-05,-4.26815e-06,0
-3.19422e-05,1.27055e-05,-1.21252e-05,-1.50697e-05,1.19178e-05,-9.54965e-06,1.77295e-05,-4.57544e-06,0
-3.19531e-05,9.51818e-06,-1.20878e-05,-1.2512e-05,1.19163e-05,-9.58239e-06,1.48269e-05,-4.63208e-06,0
-3.27944e-05,7.21267e-06,-1.10404e-05,-1.28073e-05,1.14124e-05,-9.80796e-06,1.24942e-05,-2.97222e-06,0
-3.07158e-05,4.67613e-06,-1.0385e-05,-1.32238e-05,1.1283e-05,-1.09269e-05,9.34489e-06,-3.28097e-07,0
-2.88539e-05,2.45475e-06,-8.80629e-06,-1.19733e-05,1.09162e-05,-1.27516e-05,6.59891e-06,-7.98528e-07,0
-3.03474e-05,3.67074e-07,-7.5995e-06,-1.00094e-05,9.09101e-06,-1.28177e-05,3.93262e-06,-7.57457e-07,0
-3.23456e-05,-8.69725e-07,-7.6429e-06,-1.07176e-05,6.79618e-06,-9.60071e-06,3.29126e-06,-2.51643e-07,0
-3.20388e-05,-1.29838e-06,-7.07381e-06,-1.20731e-05,7.35027e-06,-6.82374e-06,3.64e-06,-1.4799e-06,0
-3.06655e-05,-2.20331e-06,-6.51634e-06,-1.09356e-05,1.12366e-05,-6.3288e-06,2.66419e-06,-1.70179e-06,0
-3.04532e-05,-3.93223e-06,-7.07182e-06,-9.19285e-06,1.29456e-05,-5.91389e-06,3.09697e-06,-1.2516e-06,0
-2.99734e-05,-4.36771e-06,-1.05716e-05,-7.69079e-06,1.3001e-05,-4.912e-06,4.86785e-06,2.44984e-07,0
-2.99085e-05,-2.62295e-06,-1.46731e-05,-7.16926e-06,1.39086e-05,-4.59705e-06,6.35299e-06,2.15976e-06,0
-3.07757e-05,-5.56226e-07,-1.59251e-05,-7.89369e-06,1.55489e-05,-4.7289e-06,7.90409e-06,2.82192e-06,0
-3.25987e-05,3.05387e-07,-1.3925e-05,-7.34717e-06,1.68604e-05,-4.1692e-06,8.73948e-06,1.21147e-06,0
-3.42206e-05,1.15794e-06,-1.13327e-05,-4.93919e-06,1.76517e-05,-3.97035e-06,8.38093e-06,1.55376e-07,0
-3.48394e-05,2.75375e-06,-9.60584e-06,-2.29316e-06,1.66164e-05,-5.49154e-06,8.47771e-06,2.36784e-06,0
-3.33772e-05,4.27141e-06,-8.59068e-06,-1.97454e-06,1.28472e-05,-8.62409e-06,9.63824e-06,5.63635e-06,0
-3.04931e-05,5.47105e-06,-8.02536e-06,-4.40647e-06,8.93099e-06,-1.11895e-05,1.08427e-05,6.50039e-06,0
-2.85279e-05,6.54043e-06,-7.49825e-06,-6.91524e-06,7.82748e-06,-1.11888e-05,1.1413e-05,5.0529e-06,0
-2.86966e-05,8.13095e-06,-6.97278e-06,-6.66607e-06,9.98744e-06,-9.38213e-06,1.01685e-05,3.58778e-06,0
-2.88703e-05,1.02034e-05,-6.22534e-06,-3.79215e-06,1.18995e-05,-8.40345e-06,6.32241e-06,3.95749e-06,0
-2.80912e-05,1.0867e-05,-6.26681e-06,-1.22646e-06,1.2114e-05,-9.07107e-06,1.87309e-06,6.5641e-06,0
-2.81114e-05,1.01246e-05,-8.31441e-06,-9.08332e-07,1.11433e-05,-9.37586e-06,-4.67812e-07,7.56175e-06,0
-2.89616e-05,9.43104e-06,-1.02722e-05,-1.68432e-06,9.97597e-06,-8.18121e-06,9.1399e-07,4.51802e-06,0
-3.01057e-05,8.74043e-06,-1.00301e-05,-2.32263e-06,8.72453e-06,-6.49372e-06,5.17868e-06,1.0011e-06,0
-3.03292e-05,7.40615e-06,-9.83336e-06,-3.83848e-06,8.80978e-06,-4.91508e-06,8.82503e-06,-5.50746e-07,0
-2.86395e-05,6.17605e-06,-1.04024e-05,-5.07197e-06,1.00061e-05,-3.04194e-06,9.70241e-06,-9.1705e-07,0
-2.80058e-05,5.27441e-06,-9.45802e-06,-5.14851e-06,9.98931e-06,-2.15393e-06,1.01462e-05,-9.56397e-08,0
-2.86175e-05,3.27259e-06,-7.33569e-06,-4.8464e-06,8.77965e-06,-2.73033e-06,1.16622e-05,1.65894e-06,0
-2.80777e-05,1.7443e-06,-5.63596e-06,-4.35446e-06,8.68714e-06,-3.9406e-06,1.11467e-05,3.23494e-06,0
-2.7298e-05,2.27155e-07,-4.79255e-06,-4.75248e-06,1.0494e-05,-4.78906e-06,9.19466e-06,3.60587e-06,0
-2.70345e-05,-7.74832e-07,-5.28245e-06,-3.74869e-06,1.23076e-05,-4.62582e-06,9.06558e-06,3.71928e-06,0
-2.88459e-05,-6.756e-07,-7.40205e-06,-1.75499e-06,1.28446e-05,-3.83616e-06,1.14526e-05,3.56683e-06,0
-3.10583e-05,-2.78341e-07,-9.67067e-06,-2.20242e-06,1.20521e-05,-3.03541e-06,1.37661e-05,3.30224e-06,0
-3.21786e-05,3.83228e-07,-1.03553e-05,-4.09123e-06,1.16221e-05,-3.05478e-06,1.51931e-05,2.77402e-06,0
-3.12486e-05,1.62355e-06,-9.15404e-06,-4.16646e-06,1.23645e-05,-4.55929e-06,1.65187e-05,1.51554e-06,0
-2.89938e-05,3.83001e-06,-7.29953e-06,-2.7649e-06,1.2886e-05,-7.45713e-06,1.72441e-05,3.38714e-07,0
-2.80341e-05,4.51014e-06,-6.82276e-06,-2.48725e-06,1.29713e-05,-1.01539e-05,1.63319e-05,7.71276e-07,0
-2.87532e-05,3.63903e-06,-8.08673e-06,-1.51171e-06,1.43543e-05,-1.15039e-05,1.36137e-05,2.28606e-06,0
-2.97966e-05,2.68182e-06,-1.13323e-05,-4.26835e-07,1.6278e-05,-1.14436e-05,1.01525e-05,2.39158e-06,0
