ch1,ch2,ch3,ch4,ch5,ch6,ch7,ch8,class
-3.09354e-05,1.5635e-05,-2.40866e-06,-4.15451e-05,9.61341e-06,-1.67243e-05,1.34119e-05,6.07002e-06,0
-3.22947e-05,1.66481e-05,-4.00151e-06,-4.04822e-05,1.23519e-05,-1.55931e-05,1.19537e-05,4.58651e-06,0
-3.37605e-05,1.72777e-05,-5.37848e-06,-2.89622e-05,1.4443e-05,-1.4995e-05,9.28926e-06,3.83289e-06,0
-3.33476e-05,1.57805e-05,-9.66449e-06,-1.43496e-05,1.42021e-05,-1.63048e-05,7.10634e-06,3.33138e-06,0
-3.23628e-05,1.21363e-05,-1.36098e-05,-6.69443e-06,1.09646e-05,-1.7227e-05,6.58535e-06,2.07867e-06,0
-3.1757e-05,8.05068e-06,-1.42902e-05,-7.32265e-06,7.54354e-06,-1.70164e-05,7.24669e-06,1.68601e-07,0
-3.16047e-05,6.706e-06,-1.32886e-05,-1.1347e-05,6.68379e-06,-1.6881e-05,8.21993e-06,4.28269e-09,0
-3.24072e-05,7.32048e-06,-1.0711e-05,-1.44551e-05,9.4128e-06,-1.67117e-05,9.56573e-06,2.08186e-06,0
-3.37832e-05,6.61354e-06,-7.28453e-06,-1.32188e-05,1.12548e-05,-1.59963e-05,9.73825e-06,4.06907e-06,0
-3.34768e-05,5.27374e-06,-6.16966e-06,-9.09832e-06,8.96681e-06,-1.59021e-05,7.85035e-06,3.37925e-06,0
-3.05356e-05,6.95341e-06,-7.94472e-06,-5.36455e-06,5.66336e-06,-1.68687e-05,6.12224e-06,2.39764e-06,0
-2.8255e-05,1.16345e-05,-1.02712e-05,-5.78928e-06,3.94219e-06,-1.71128e-05,5.79789e-06,1.91772e-06,0
-2.79353e-05,1.50619e-05,-1.16975e-05,-9.03575e-06,6.24526e-06,-1.52179e-05,4.07266e-06,1.06882e-06,0
-2.81656e-05,1.53065e-05,-1.40235e-05,-1.19069e-05,9.73915e-06,-1.37796e-05,4.2731e-07,8.529e-07,0
-2.80071e-05,1.42876e-05,-1.82712e-05,-2.0822e-05,1.06298e-05,-1.44854e-05,3.73107e-07,-9.16258e-07,0
-2.61802e-05,1.45163e-05,-2.02447e-05,-3.35026e-05,8.81218e-06,-1.51057e-05,3.92234e-06,-2.47134e-06,0
-2.58479e-05,1.57823e-05,-1.92985e-05,-4.02174e-05,6.70881e-06,-1.42032e-05,8.26897e-06,-3.15846e-06,0
-2.71941e-05,1.61141e-05,-1.60144e-05,-3.82295e-05,6.43301e-06,-1.2635e-05,1.19276e-05,-4.09039e-06,0
-2.79984e-05,1.61735e-05,-1.2792e-05,-3.21332e-05,7.38844e-06,-1.06926e-05,1.28466e-05,-5.95599e-06,0
-2.9227e-05,1.65715e-05,-1.23403e-05,-2.75608e-05,8.68362e-06,-8.306e-06,1.1339e-05,-7.14671e-06,0
-3.0785e-05,1.62037e-05,-1.32953e-05,-2.37796e-05,9.41584e-06,-7.43623e-06,1.12156e-05,-6.60146e-06,0
-3.12441e-05,1.60195e-05,-1.25017e-05,-1.39572e-05,1.06999e-05,-8.80061e-06,1.38492e-05,-4.88932e-06,0
-2.96961e-05,1.67101e-05,-1.01049e-05,6.59279e-06,1.31009e-05,-9.99038e-06,1.65831e-05,-2.95346e-06,0
-2.85363e-05,1.72727e-05,-9.09151e-06,3.08594e-05,1.60573e-05,-9.37119e-06,1.77674e-05,-1.24628e-06,0
-2.94312e-05,1.70286e-05,-9.25896e-06,4.64651e-05,1.76553e-05,-7.32431e-06,1.7372e-05,-4.48607e-07,0
-3.13799e-05,1.73987e-05,-8.97017e-06,4.85044e-05,1.78996e-05,-4.30241e-06,1.80767e-05,-2.14098e-06,0
-3.23777e-05,1.76771e-05,-6.50823e-06,4.21524e-05,1.79705e-05,-2.20963e-06,2.05722e-05,-3.83687e-06,0
-3.21639e-05,1.64377e-05,-3.53533e-06,3.03226e-05,1.76732e-05,-1.84396e-06,2.16969e-05,-2.8841e-06,0
-3.11132e-05,1.53813e-05,-1.80746e-06,1.69026e-05,1.76249e-05,-1.20477e-06,2.05958e-05,-6.88365e-07,0
-2.94142e-05,1.62404e-05,-1.99228e-06,7.74368e-06,1.71604e-05,3.81623e-08,1.93259e-05,-3.89465e-07,0
-2.75142e-05,1.87648e-05,-1.43889e-06,3.3209e-06,1.40024e-05,-7.68576e-07,1.627e-05,-8.37832e-07,0
-2.63028e-05,2.16047e-05,-2.28155e-07,1.71067e-06,1.02034e-05,-2.46041e-06,1.28427e-05,-9.4752e-07,0
-2.58173e-05,2.44992e-05,-3.1684e-07,1.63533e-06,1.05644e-05,-1.60372e-06,1.34908e-05,-6.02112e-07,0
-2.49536e-05,2.66294e-05,-2.15391e-06,1.58031e-06,1.3389e-05,-4.91337e-08,1.66225e-05,-7.63969e-07,0
-2.49002e-05,2.61491e-05,-3.85013e-06,1.75078e-06,1.59965e-05,-1.0749e-07,1.90019e-05,-1.34691e-06,0
-2.64631e-05,2.39878e-05,-3.32286e-06,2.06091e-06,1.78739e-05,-1.9945e-06,2.02003e-05,-1.75003e-06,0
-2.73962e-05,2.15751e-05,-2.81911e-06,1.05531e-06,1.92188e-05,-4.08053e-06,2.10547e-05,-3.10754e-06,0
-2.83195e-05,2.0678e-05,-3.14368e-06,-4.99893e-08,2.04982e-05,-4.35434e-06,2.10693e-05,-3.3759e-06,0
-2.96364e-05,2.06774e-05,-5.02682e-06,-2.13492e-06,2.1656e-05,-5.20431e-06,2.01931e-05,-2.81126e-06,0
-2.96644e-05,2.15431e-05,-7.01887e-06,-4.99425e-06,2.2567e-05,-7.08048e-06,1.89777e-05,-3.85028e-06,0
-3.02945e-05,2.41597e-05,-7.4999e-06,-6.92742e-06,2.3089e-05,-9.41651e-06,1.75468e-05,-5.28527e-06,0
-3.17758e-05,2.61975e-05,-7.68922e-06,-8.74253e-06,2.31818e-05,-1.14738e-05,1.56727e-05,-5.23259e-06,0
-3.31878e-05,2.73271e-05,-8.3035e-06,-8.96158e-06,2.19163e-05,-1.23096e-05,1.3816e-05,-2.53884e-06,0
-3.47386e-05,2.74389e-05,-1.05517e-05,-7.98898e-06,1.991e-05,-1.32179e-05,1.32417e-05,1.35002e-07,0
-3.58461e-05,2.55978e-05,-1.21845e-05,-8.28299e-06,1.72661e-05,-1.37873e-05,1.50068e-05,-8.34825e-09,0
-3.55356e-05,2.27127e-05,-1.12773e-05,-9.36799e-06,1.5356e-05,-1.30759e-05,1.67262e-05,-1.30357e-06,0
-3.51712e-05,2.1305e-05,-8.50001e-06,-9.32708e-06,1.4734e-05,-1.13175e-05,1.56631e-05,-8.85868e-07,0
-3.44784e-05,2.15489e-05,-6.54779e-06,-9.33579e-06,1.46212e-05,-9.50464e-06,1.46997e-05,8.13366e-07,0
-3.31565e-05,2.16092e-05,-6.81286e-06,-9.99267e-06,1.51161e-05,-7.74916e-06,1.4617e-05,1.0544e-06,0
-3.20357e-05,2.17133e-05,-7.36545e-06,-7.22043e-06,1.49776e-05,-6.50539e-06,1.30623e-05,1.47863e-07,0
-3.13759e-05,2.19354e-05,-6.79634e-06,9.55838e-07,1.4282e-05,-6.25228e-06,1.03873e-05,-6.33709e-07,0
-3.14589e-05,2.04823e-05,-5.306e-06,1.08793e-05,1.33757e-05,-7.16354e-06,9.55197e-06,-1.20939e-06,0
-3.1378e-05,1.79087e-05,-3.89066e-06,1.68184e-05,1.35608e-05,-7.98737e-06,1.10149e-05,-2.6298e-06,0
-3.07894e-05,1.58119e-05,-3.16883e-06,1.52773e-05,1.50657e-05,-7.97497e-06,1.36014e-05,-4.0054e-06,0
-2.96323e-05,1.51324e-05,-4.55471e-06,7.62188e-06,1.60681e-05,-7.46879e-06,1.61656e-05,-3.43977e-06,0
-2.8633e-05,1.49878e-05,-6.99336e-06,5.09466e-08,1.65774e-05,-7.42121e-06,1.7254e-05,-1.39405e-06,0
-2.80068e-05,1.38242e-05,-9.5787e-06,-4.65569e-06,1.82e-05,-7.86724e-06,1.75624e-05,-1.81047e-08,0
-2.79528e-05,1.23255e-05,-1.12663e-05,-9.00026e-06,1.9653e-05,-7.83338e-06,1.85554e-05,-4.581e-07,0
-2.84551e-05,1.02628e-05,-1.19003e-05,-1.53788e-05,1.86863e-05,-8.28047e-06,1.93636e-05,-1.94865e-06,0
-2.96149e-05,6.33068e-06,-1.19163e-05,-2.42186e-05,1.70109e-05,-8.24488e-06,1.90726e-05,-2.42468e-06,0
-3.00467e-05,3.1696e-06,-1.17418e-05,-3.53544e-05,1.70552e-05,-7.44455e-06,1.7462e-05,-2.56617e-06,0
-2.92983e-05,4.98209e-06,-1.14589e-05,-4.59103e-05,1.525e-05,-7.48426e-06,1.47697e-05,-2.33729e-06,0
-2.8722e-05,1.07668e-05,-1.13757e-05,-5.19438e-05,1.09634e-05,-1.03436e-05,1.35046e-05,-1.09962e-06,0
-2.88162e-05,1.1808e-05,-1.07876e-05,-5.00461e-05,9.21121e-06,-1.38626e-05,1.3241e-05,-1.32731e-06,0
-2.86555e-05,7.26081e-06,-9.04154e-06,-4.20132e-05,8.91144e-06,-1.48141e-05,1.2262e-05,-1.76455e-06,0
-2.91899e-05,4.60761e-06,-8.73279e-06,-3.10868e-05,9.11118e-06,-1.36333e-05,9.80358e-06,-3.85866e-07,0
-3.1691e-05,5.64209e-06,-8.88977e-06,-1.92428e-05,1.03627e-05,-1.22879e-05,8.59192e-06,1.52628e-06,0
-3.34357e-05,7.97817e-06,-6.28922e-06,-9.81683e-06,1.23656e-05,-1.23347e-05,9.75322e-06,1.88599e-06,0
-3.23528e-05,8.0497e-06,-2.63361e-06,-3.63384e-06,1.32618e-05,-1.26266e-05,1.1272e-05,6.21497e-07,0
-2.92704e-05,7.25169e-06,-4.02022e-09,-1.40337e-06,1.06185e-05,-1.30009e-05,1.18081e-05,2.84745e-08,0
-2.67814e-05,6.46921e-06,1.10982e-06,-3.69012e-06,7.19035e-06,-1.23024e-05,1.10242e-05,6.97563e-07,0
-2.6813e-05,4.91219e-06,-3.29591e-07,-1.02212e-05,4.42859e-06,-1.20691e-05,6.27962e-06,1.93864e-06,0
-2.82882e-05,3.97423e-06,-3.63765e-06,-1.5957e-05,5.39313e-06,-1.29926e-05,-6.37856e-06,3.57776e-06,0
-2.93366e-05,5.04694e-06,-7.37523e-06,-1.7801e-05,1.05832e-05,-1.35755e-05,-2.13596e-05,5.20434e-06,0
-3.04326e-05,6.18137e-06,-9.69083e-06,-1.74766e-05,1.67151e-05,-1.27141e-05,-2.79359e-05,5.8018e-06,0
-3.0826e-05,5.89382e-06,-9.81418e-06,-1.67779e-05,2.06734e-05,-1.01291e-05,-2.16753e-05,5.77149e-06,0
-3.02983e-05,4.61771e-06,-8.91298e-06,-1.60839e-05,2.05458e-05,-7.4465e-06,-7.32626e-06,6.40728e-06,0
-3.00084e-05,4.44936e-06,-7.98012e-06,-1.62745e-05,1.78579e-05,-6.63175e-06,8.726e-06,7.54112e-06,0
-3.0244e-05,5.83586e-06,-6.97124e-06,-1.52827e-05,1.38678e-05,-8.17978e-06,2.27997e-05,7.55552e-06,0
-3.00926e-05,6.06316e-06,-6.34319e-06,-7.19938e-06,1.18677e-05,-9.23899e-06,3.33406e-05,6.36006e-06,0
-2.93291e-05,5.20467e-06,-6.0253e-06,7.94215e-06,1.21248e-05,-8.92642e-06,3.94992e-05,7.60898e-06,0
-2.92301e-05,6.09609e-06,-5.7536e-06,2.09173e-05,1.31447e-05,-7.01817e-06,4.27895e-05,1.16038e-05,0
-2.98453e-05,9.24307e-06,-6.56999e-06,2.42571e-05,1.37942e-05,-4.72617e-06,4.42975e-05,1.35463e-05,0
-2.98425e-05,9.39538e-06,-8.74322e-06,2.0253e-05,1.39228e-05,-3.35979e-06,4.33003e-05,1.18405e-05,0
-2.8919e-05,6.14298e-06,-1.13197e-05,1.77591e-05,1.48519e-05,-2.71621e-06,3.98867e-05,9.5465e-06,0
-2.9421e-05,3.8949e-06,-1.41344e-05,2.64318e-05,1.5698e-05,-3.31277e-06,3.45638e-05,7.63454e-06,0
-3.13044e-05,3.56657e-06,-1.71631e-05,4.00246e-05,1.47525e-05,-5.55643e-06,2.94556e-05,5.90015e-06,0
-3.32738e-05,2.59562e-06,-1.91858e-05,4.3678e-05,1.47226e-05,-7.77293e-06,2.63699e-05,6.05676e-06,0
-3.49915e-05,8.1809e-07,-2.04386e-05,3.42415e-05,1.42261e-05,-9.02087e-06,2.4253e-05,6.92781e-06,0
-3.48839e-05,-1.22583e-06,-2.12172e-05,1.62046e-05,1.13666e-05,-8.55793e-06,2.27066e-05,6.30265e-06,0
-3.43665e-05,-2.79041e-06,-2.04431e-05,-9.24148e-07,1.01911e-05,-9.96539e-06,2.18309e-05,5.73693e-06,0
-3.50896e-05,-2.35315e-06,-1.89608e-05,-1.28756e-05,1.13139e-05,-1.40218e-05,2.02822e-05,4.81896e-06,0
-3.39771e-05,-2.33348e-06,-1.89822e-05,-2.33861e-05,1.35267e-05,-1.575e-05,1.85109e-05,2.4409e-06,0
-3.16329e-05,-2.62965e-06,-1.97091e-05,-2.97755e-05,1.57907e-05,-1.52562e-05,1.61611e-05,6.1798e-07,0
-3.1758e-05,-2.0955e-06,-1.84316e-05,-2.83301e-05,1.61407e-05,-1.43875e-05,1.34748e-05,2.10728e-06,0
-3.17271e-05,-4.43245e-07,-1.57492e-05,-1.83263e-05,1.43575e-05,-1.49276e-05,1.15012e-05,4.75387e-06,0
-2.98434e-05,1.71753e-06,-1.16992e-05,-9.25558e-06,1.30996e-05,-1.48284e-05,1.0132e-05,5.25151e-06,0
-2.79361e-05,-1.73614e-07,-8.37182e-06,-6.59376e-06,1.31419e-05,-1.37563e-05,8.65892e-06,5.11027e-06,0
-2.74064e-05,-5.20579e-06,-7.93639e-06,-7.70208e-06,1.22602e-05,-1.32761e-05,6.53683e-06,4.38815e-06,0
-2.86202e-05,-7.71406e-06,-9.4477e-06,-7.66213e-06,1.01337e-05,-1.23678e-05,4.56324e-06,3.13457e-06,0
-3.08242e-05,-5.55288e-06,-1.03695e-05,-2.13365e-06,8.50033e-06,-1.19864e-05,2.45574e-06,2.35236e-06,0
-3.20569e-05,-1.99016e-06,-9.28244e-06,3.61515e-06,8.1718e-06,-1.33268e-05,7.79286e-07,2.0272e-06,0
-3.04661e-05,8.05235e-07,-7.1336e-06,4.08506e-06,8.93241e-06,-1.47368e-05,1.19785e-06,2.84202e-06,0
-2.94111e-05,3.75768e-06,-5.13539e-06,-9.79916e-07,9.44125e-06,-1.44167e-05,3.56568e-06,5.0836e-06,0
-3.03728e-05,7.56459e-06,-5.29566e-06,-7.39543e-06,9.58252e-06,-1.28948e-05,6.58326e-06,6.70205e-06,0
-3.12563e-05,1.11296e-05,-7.10816e-06,-1.5548e-05,1.01688e-05,-1.14114e-05,8.87907e-06,6.77223e-06,0
-3.09402e-05,1.3649e-05,-8.70153e-06,-2.56196e-05,1.13295e-05,-1.07975e-05,9.48281e-06,6.05114e-06,0
-3.06774e-05,1.61389e-05,-8.63124e-06,-3.45889e-05,1.06195e-05,-1.05144e-05,8.8567e-06,5.58848e-06,0
-3.12696e-05,1.90226e-05,-7.19768e-06,-3.76421e-05,7.51106e-06,-1.06022e-05,8.94763e-06,6.05749e-06,0
-3.22354e-05,2.08974e-05,-5.4674e-06,-3.44937e-05,4.31983e-06,-1.19384e-05,1.05326e-05,7.34397e-06,0
-3.30897e-05,1.99684e-05,-4.87444e-06,-2.86434e-05,2.75212e-06,-1.28811e-05,1.24635e-05,8.43679e-06,0
-3.27246e-05,1.87239e-05,-4.78883e-06,-2.5468e-05,3.05984e-06,-1.10248e-05,1.37195e-05,8.47598e-06,0
-3.21914e-05,1.995e-05,-4.26374e-06,-2.58804e-05,4.72431e-06,-7.33784e-06,1.32904e-05,7.1816e-06,0
-3.29457e-05,2.41276e-05,-3.08218e-06,-2.67795e-05,7.46428e-06,-5.52139e-06,1.19417e-05,5.0687e-06,0
-3.33562e-05,2.97508e-05,-2.19267e-06,-2.65857e-05,9.46523e-06,-5.75679e-06,1.04498e-05,2.72569e-06,0
-3.16495e-05,3.41557e-05,-2.17613e-06,-2.20068e-05,9.35518e-06,-6.41402e-06,9.47783e-06,8.63532e-07,0
-2.98123e-05,4.1451e-05,-2.18391e-06,-1.55656e-05,6.67029e-06,-6.92279e-06,1.26386e-05,2.66979e-07,0
-3.01496e-05,4.96686e-05,-2.97321e-06,-1.06171e-05,5.31751e-06,-7.51128e-06,2.03452e-05,1.01574e-06,0
-3.11755e-05,4.97225e-05,-3.82799e-06,-7.14905e-06,7.25111e-06,-8.23301e-06,3.11239e-05,2.9459e-06,0
-3.14389e-05,4.3866e-05,-4.08634e-06,-4.6208e-06,9.11696e-06,-7.82398e-06,4.00415e-05,2.53137e-06,0
-3.21921e-05,3.71238e-05,-3.77561e-06,-7.32633e-07,9.93083e-06,-8.50121e-06,4.26284e-05,8.39378e-07,0
-3.37745e-05,3.17714e-05,-3.42942e-06,4.0869e-06,1.0735e-05,-9.93753e-06,3.98503e-05,1.48799e-06,0
-3.40146e-05,2.59014e-05,-3.59195e-06,6.98281e-06,1.30971e-05,-1.12947e-05,3.27878e-05,2.89648e-06,0
-3.21903e-05,1.97271e-05,-2.87406e-06,8.42133e-06,1.54441e-05,-1.24557e-05,2.32035e-05,3.07474e-06,0
-3.12634e-05,1.24595e-05,-2.96018e-06,7.26292e-06,1.75885e-05,-1.2332e-05,1.15175e-05,3.30076e-06,0
-3.08571e-05,3.14132e-06,-4.07584e-06,4.56362e-06,1.8085e-05,-1.24684e-05,-2.54918e-07,3.7477e-06,0
-3.05322e-05,-6.33094e-06,-3.90215e-06,4.17978e-06,1.64883e-05,-1.21465e-05,-8.37555e-06,3.48942e-06,0
-3.04724e-05,-1.22299e-05,-2.30372e-06,1.02132e-05,1.56499e-05,-1.16551e-05,-9.24006e-06,3.20045e-06,0
-3.06086e-05,-1.20224e-05,-5.33374e-07,1.95534e-05,1.57217e-05,-1.21228e-05,-1.98724e-06,2.642e-06,0
-3.05964e-05,-6.32007e-06,5.62128e-07,2.60388e-05,1.59845e-05,-1.28182e-05,9.10842e-06,4.73628e-07,0
-2.99645e-05,2.51548e-06,1.38897e-06,2.90776e-05,1.56466e-05,-1.28011e-05,1.83484e-05,-3.29906e-06,0
-2.92404e-05,1.09482e-05,8.61056e-07,2.9097e-05,1.4412e-05,-1.19802e-05,2.1826e-05,-6.15384e-06,0
-2.88423e-05,1.8039e-05,-9.54952e-07,2.58128e-05,1.16389e-05,-1.01963e-05,1.98059e-05,-6.1391e-06,0
-2.89484e-05,2.17993e-05,-2.38913e-06,1.93111e-05,8.7564e-06,-8.31647e-06,1.49915e-05,-4.31248e-06,0
-2.85453e-05,2.32677e-05,-2.89959e-06,1.30245e-05,7.23414e-06,-7.7506e-06,7.55104e-06,-3.88358e-06,0
-2.73961e-05,2.30666e-05,-4.25279e-06,8.48898e-06,7.12121e-06,-8.32205e-06,-4.19293e-06,-4.64975e-06,0
-2.70879e-05,2.28613e-05,-8.72663e-06,3.16551e-06,6.89003e-06,-8.78583e-06,-1.78557e-05,-3.88438e-06,0
-2.85299e-05,2.3244e-05,-1.48501e-05,-5.71795e-06,6.66262e-06,-8.17099e-06,-2.76099e-05,-1.23948e-06,0
-2.95241e-05,2.24806e-05,-1.65471e-05,-1.62917e-05,6.8117e-06,-6.85773e-06,-2.99077e-05,1.00407e-06,0
-2.90257e-05,2.03826e-05,-1.43215e-05,-2.29458e-05,8.14075e-06,-5.7938e-06,-2.57347e-05,1.76515e-06,0
-2.77906e-05,1.97514e-05,-1.31861e-05,-2.01547e-05,1.06679e-05,-5.07262e-06,-1.93519e-05,1.07162e-06,0
-2.79542e-05,2.12658e-05,-1.40356e-05,-1.25447e-05,1.33089e-05,-4.42587e-06,-1.45473e-05,-9.12722e-07,0
-2.85431e-05,2.37353e-05,-1.54937e-05,-7.69507e-06,1.60567e-05,-4.90886e-06,-1.12166e-05,-3.31516e-06,0
-2.82513e-05,2.60017e-05,-1.69322e-05,-5.63087e-06,1.8377e-05,-6.91472e-06,-7.79135e-06,-4.2444e-06,0
-2.75014e-05,2.77729e-05,-1.89845e-05,-4.93833e-06,1.9888e-05,-8.24947e-06,-3.63856e-06,-2.57622e-06,0
-2.65137e-05,2.71655e-05,-2.15024e-05,-5.97393e-06,2.02499e-05,-7.15997e-06,2.37998e-06,-1.05637e-06,0
-2.5813e-05,2.44555e-05,-2.29125e-05,-1.06001e-05,2.04522e-05,-5.78045e-06,9.23402e-06,-3.17988e-07,0
-2.47141e-05,2.39339e-05,-2.13227e-05,-1.5162e-05,2.00166e-05,-5.84481e-06,1.27661e-05,9.5174e-07,0
-2.3568e-05,2.45006e-05,-1.75501e-05,-1.53225e-05,1.97336e-05,-7.34821e-06,1.35953e-05,4.12389e-07,0
-2.26824e-05,2.51179e-05,-1.02138e-05,-1.19418e-05,2.01838e-05,-8.62762e-06,1.28527e-05,-1.71869e-06,0
-2.30722e-05,2.65926e-05,4.49668e-06,-7.33799e-06,2.07057e-05,-1.01025e-05,1.22041e-05,-2.39693e-06,0
-2.46582e-05,2.87112e-05,2.57333e-05,-4.34459e-06,2.09332e-05,-1.33524e-05,1.31256e-05,-8.54927e-07,0
-2.50702e-05,2.802e-05,4.9805e-05,-4.41994e-06,2.02219e-05,-1.63076e-05,1.30166e-05,1.2415e-06,0
-2.50077e-05,2.32925e-05,7.06138e-05,-5.1013e-06,1.96294e-05,-1.74773e-05,1.23335e-05,3.07076e-06,0
-2.61529e-05,1.65199e-05,7.77559e-05,-4.24456e-06,2.03588e-05,-1.7618e-05,1.38395e-05,5.34691e-06,0
-2.8436e-05,9.73397e-06,6.43594e-05,-1.13203e-06,2.22502e-05,-1.7099e-05,1.91947e-05,6.7375e-06,0
-2.99927e-05,4.98837e-06,3.20146e-05,4.71492e-06,2.35312e-05,-1.56638e-05,2.48025e-05,5.13358e-06,0
-3.02996e-05,2.58086e-06,-1.069e-05,8.65257e-06,2.3046e-05,-1.42348e-05,2.64746e-05,1.83468e-06,0
-2.96292e-05,2.21864e-06,-5.20842e-05,8.65125e-06,2.08405e-05,-1.3841e-05,2.43539e-05,-5.68612e-07,0
-2.81256e-05,3.42511e-06,-8.15619e-05,8.49403e-06,1.88024e-05,-1.44627e-05,2.22259e-05,-8.20086e-07,0
-2.73846e-05,4.94295e-06,-9.36233e-05,1.06621e-05,1.81319e-05,-1.48272e-05,2.0369e-05,1.78765e-07,0
-2.78535e-05,5.69674e-06,-8.86597e-05,1.16499e-05,1.80576e-05,-1.43582e-05,1.65591e-05,7.81261e-07,0
-2.89775e-05,5.42988e-06,-7.37815e-05,9.31437e-06,1.8784e-05,-1.3567e-05,1.20767e-05,1.16342e-06,0
-3.06453e-05,4.34668e-06,-5.98957e-05,6.78737e-06,1.95503e-05,-1.28561e-05,1.0687e-05,1.21663e-06,0
-3.2509e-05,3.08971e-06,-5.03886e-05,5.51097e-06,1.87462e-05,-1.14266e-05,1.34579e-05,1.17181e-06,0
-3.3396e-05,2.27446e-06,-4.22222e-05,4.39627e-06,1.57695e-05,-1.02601e-05,1.78827e-05,3.06797e-07,0
-3.36604e-05,1.28982e-06,-3.32362e-05,1.64985e-06,1.24783e-05,-9.75147e-06,2.19543e-05,-1.42643e-06,0
-3.29437e-05,-8.13058e-07,-2.33386e-05,-1.90727e-06,1.04836e-05,-9.00985e-06,2.35148e-05,-2.22581e-06,0
-3.08601e-05,-3.44262e-06,-1.47922e-05,-5.80594e-06,9.39835e-06,-9.7006e-06,2.3931e-05,-2.218e-06,0
-2.86662e-05,-5.08408e-06,-9.67929e-06,-1.01016e-05,9.09648e-06,-9.62225e-06,2.37626e-05,-3.19453e-06,0
-2.93805e-05,-5.0238e-06,-7.52814e-06,-1.34157e-05,9.86336e-06,-7.71688e-06,2.41364e-05,-4.99244e-06,0
-3.08966e-05,-3.4302e-06,-8.06437e-06,-1.37439e-05,1.10207e-05,-6.10431e-06,2.42354e-05,-4.05551e-06,0
-3.09597e-05,-1.78647e-06,-9.62479e-06,-9.80577e-06,8.94435e-06,-4.73983e-06,2.38322e-05,-1.28821e-07,0
-3.08684e-05,-4.43941e-07,-1.00996e-05,-2.99854e-06,4.93448e-06,-6.16231e-06,2.26739e-05,3.61564e-07,0
-2.99366e-05,1.65753e-06,-9.35446e-06,4.83715e-06,4.7452e-06,-8.71352e-06,1.98073e-05,-3.15028e-06,0
-2.94469e-05,3.31183e-06,-6.5084e-06,1.20219e-05,7.08917e-06,-8.02965e-06,1.84959e-05,-5.97737e-06,0
-2.95925e-05,3.17008e-06,-3.13104e-06,1.24581e-05,7.77471e-06,-7.12329e-06,1.88056e-05,-5.94206e-06,0
-2.9928e-05,2.19463e-06,-5.84722e-07,5.31544e-06,5.74978e-06,-7.60991e-06,2.0642e-05,-5.22931e-06,0
-2.98645e-05,1.61623e-06,9.93524e-07,-4.54204e-06,2.45338e-06,-8.47265e-06,2.03984e-05,-4.88626e-06,0
-2.9771e-05,2.81203e-06,1.70563e-06,-1.21908e-05,3.04117e-08,-9.30758e-06,1.53145e-05,-2.62091e-06,0
-2.94789e-05,4.43362e-06,2.54676e-06,-1.74432e-05,-1.80053e-07,-9.20975e-06,4.51968e-06,8.40303e-08,0
-2.86665e-05,5.66808e-06,3.52792e-06,-2.64379e-05,2.25371e-06,-8.00039e-06,-8.5713e-06,1.43635e-06,0
-2.84712e-05,6.71821e-06,3.10779e-06,-3.7655e-05,4.1933e-06,-6.87709e-06,-1.60484e-05,6.0663e-07,0
-2.95041e-05,7.22871e-06,1.74337e-06,-4.17195e-05,3.99572e-06,-7.36703e-06,-1.43059e-05,-6.63277e-07,0
-3.2122e-05,7.97309e-06,1.72969e-06,-3.49442e-05,3.87894e-06,-8.32635e-06,-4.36334e-06,4.18272e-08,0
-3.43734e-05,9.72733e-06,2.69915e-06,-2.40596e-05,5.16963e-06,-8.45502e-06,1.0068e-05,7.16038e-07,0
-3.45929e-05,1.51746e-05,3.38655e-06,-1.56884e-05,7.83571e-06,-8.05748e-06,2.49694e-05,-7.65288e-07,0
-3.31811e-05,2.54043e-05,3.94346e-06,-1.14243e-05,1.04055e-05,-7.4413e-06,3.57416e-05,-3.25893e-06,0
-3.21859e-05,3.74063e-05,4.81941e-06,-9.61575e-06,1.14796e-05,-6.80344e-06,4.10761e-05,-5.18619e-06,0
-3.28294e-05,4.72072e-05,4.89542e-06,-8.5047e-06,1.19065e-05,-6.83217e-06,4.25287e-05,-4.95334e-06,0
-3.46276e-05,5.13899e-05,3.83171e-06,-7.67885e-06,1.24392e-05,-7.10022e-06,4.30144e-05,-2.61261e-06,0
-3.59432e-05,4.57299e-05,2.32605e-06,-8.6291e-06,1.33708e-05,-7.78635e-06,4.18245e-05,-8.26821e-07,0
-3.56563e-05,3.13219e-05,1.17982e-06,-1.33736e-05,1.62434e-05,-8.68474e-06,3.81723e-05,-5.52523e-07,0
-3.52998e-05,1.39705e-05,4.62886e-07,-2.15701e-05,1.95558e-05,-8.47576e-06,3.30373e-05,-5.962e-07,0
-3.49164e-05,-1.48842e-06,1.644e-07,-2.73231e-05,2.07959e-05,-7.79615e-06,2.87121e-05,7.90426e-07,0
-3.37064e-05,-1.31894e-05,-3.20964e-07,-2.71085e-05,1.89362e-05,-8.87641e-06,2.66174e-05,2.99825e-06,0
-3.19703e-05,-1.91482e-05,-7.991e-07,-2.51667e-05,1.60036e-05,-1.09988e-05,2.36174e-05,2.60176e-06,0
-3.13931e-05,-2.01128e-05,-1.41378e-06,-2.54294e-05,1.69642e-05,-1.18315e-05,1.74675e-05,2.00929e-06,0
-3.20733e-05,-1.60843e-05,-2.51417e-06,-2.6407e-05,2.16624e-05,-1.36913e-05,1.09322e-05,2.58211e-06,0
-3.20388e-05,-6.49537e-06,-3.66208e-06,-2.08477e-05,2.25594e-05,-1.4732e-05,8.1374e-06,2.96402e-06,0
-3.13372e-05,1.22764e-06,-4.78909e-06,-5.04514e-06,1.90486e-05,-1.26394e-05,8.83484e-06,3.80107e-06,0
-3.05946e-05,3.69023e-06,-6.84658e-06,1.4618e-05,1.68329e-05,-8.77303e-06,9.98178e-06,4.77341e-06,0
-3.17987e-05,4.25341e-06,-1.03169e-05,2.94258e-05,1.64099e-05,-6.12362e-06,8.68922e-06,5.67744e-06,0
-3.40341e-05,6.43159e-06,-1.38185e-05,3.49908e-05,1.53116e-05,-6.40115e-06,7.80648e-06,5.22423e-06,0
-3.4589e-05,8.9498e-06,-1.58775e-05,3.19111e-05,1.36314e-05,-6.42078e-06,8.80312e-06,4.61516e-06,0
-3.32062e-05,1.12012e-05,-1.60688e-05,2.5231e-05,1.24353e-05,-6.95718e-06,8.4622e-06,5.01863e-06,0
-3.16867e-05,1.2912e-05,-1.70394e-05,1.7034e-05,1.00984e-05,-7.34945e-06,6.27455e-06,4.4162e-06,0
-3.14969e-05,1.38945e-05,-1.88936e-05,1.0237e-05,9.29356e-06,-6.30189e-06,4.03234e-06,1.26128e-06,0
-3.22003e-05,1.55714e-05,-1.97068e-05,8.39566e-06,1.06777e-05,-4.89731e-06,2.78257e-06,-2.80463e-07,0
-3.30603e-05,1.67157e-05,-1.89806e-05,9.49387e-06,1.04214e-05,-4.62491e-06,2.71959e-06,1.47667e-06,0
-3.36607e-05,1.69372e-05,-1.71048e-05,1.01108e-05,7.31445e-06,-6.50316e-06,4.33024e-06,3.43488e-06,0
-3.40887e-05,1.62734e-05,-1.49162e-05,9.76111e-06,5.02551e-06,-8.69321e-06,6.16653e-06,3.56712e-06,0
-3.38163e-05,1.62319e-05,-1.21564e-05,9.40435e-06,5.78304e-06,-9.22032e-06,6.96742e-06,2.51637e-06,0
-3.27712e-05,1.76127e-05,-9.19682e-06,9.34326e-06,7.17409e-06,-8.47102e-06,8.02033e-06,2.03092e-06,0
-3.06468e-05,1.97337e-05,-6.89727e-06,1.06717e-05,8.43292e-06,-8.12221e-06,8.97219e-06,2.61006e-06,0
-2.85837e-05,2.169e-05,-5.83969e-06,1.21364e-05,1.01759e-05,-7.63699e-06,6.3538e-06,3.51712e-06,0
-2.83633e-05,2.35009e-05,-5.91544e-06,1.06794e-05,1.18095e-05,-6.77744e-06,-1.31248e-06,3.91072e-06,0
-3.00521e-05,2.56207e-05,-6.60815e-06,7.12665e-06,1.19751e-05,-6.22176e-06,-1.0392e-05,3.47338e-06,0
-3.07285e-05,2.77023e-05,-7.24733e-06,4.1996e-06,1.09185e-05,-6.26138e-06,-1.4057e-05,2.54755e-06,0
-2.96419e-05,2.98226e-05,-7.3668e-06,8.00222e-07,1.04359e-05,-6.61845e-06,-9.7786e-06,3.01593e-06,0
-2.87593e-05,3.16028e-05,-7.4206e-06,-3.22375e-06,1.16671e-05,-7.27844e-06,-3.46444e-06,4.08006e-06,0
-2.87763e-05,3.15745e-05,-7.35172e-06,-6.31288e-06,1.22949e-05,-8.10678e-06,1.91305e-07,5.31297e-06,0
-2.98844e-05,3.04737e-05,-5.85618e-06,-1.03104e-05,1.0847e-05,-8.02879e-06,2.47251e-06,4.32347e-06,0
-3.01733e-05,2.86753e-05,-3.3549e-06,-1.5103e-05,1.0802e-05,-8.0765e-06,4.79005e-06,1.70677e-06,0
-2.92619e-05,2.53826e-05,-8.63713e-07,-1.42201e-05,1.36197e-05,-7.51954e-06,8.64936e-06,8.07827e-07,0
-2.92879e-05,2.26047e-05,1.35959e-06,-8.3541e-06,1.68193e-05,-6.06071e-06,1.36477e-05,-3.2397e-07,0
-2.99459e-05,2.20667e-05,1.31418e-06,-3.58595e-06,1.80452e-05,-5.68097e-06,1.61033e-05,-2.91404e-06,0
-2.98297e-05,2.26055e-05,-7.42204e-07,-1.39199e-06,1.61491e-05,-5.59441e-06,1.63985e-05,-4.37442e-06,0
-2.82559e-05,2.21827e-05,-2.70505e-06,-2.11479e-06,1.49616e-05,-4.71858e-06,1.70536e-05,-4.52392e-06,0
-2.70912e-05,2.14846e-05,-2.03784e-06,-4.53823e-06,1.49114e-05,-2.78747e-06,1.82449e-05,-5.3235e-06,0
-2.71986e-05,2.09859e-05,2.39179e-07,-7.32506e-06,1.48983e-05,-2.00083e-06,2.01846e-05,-6.21866e-06,0
-2.72514e-05,1.95704e-05,1.26661e-06,-7.20827e-06,1.57068e-05,-2.65822e-06,2.16102e-05,-6.46791e-06,0
-2.70164e-05,1.60039e-05,-3.08689e-07,-1.66738e-06,1.68849e-05,-4.31317e-06,2.17776e-05,-5.40425e-06,0
-2.58956e-05,1.13031e-05,-2.92195e-06,5.94539e-06,1.89998e-05,-5.7289e-06,2.32178e-05,-2.69919e-06,0
-2.56856e-05,9.34255e-06,-4.09517e-06,1.03622e-05,1.98996e-05,-6.19573e-06,2.52714e-05,-1.38053e-06,0
-2.66875e-05,1.20513e-05,-4.96621e-06,8.46793e-06,1.90622e-05,-5.58844e-06,2.41374e-05,-2.85566e-06,0
-2.7887e-05,1.48535e-05,-5.523e-06,1.23465e-06,1.79868e-05,-4.21006e-06,1.9618e-05,-5.39973e-06,0
-2.82579e-05,1.37448e-05,-5.55514e-06,-7.22639e-06,1.74828e-05,-3.92871e-06,1.56439e-05,-7.32396e-06,0
-2.73374e-05,1.14403e-05,-6.379e-06,-1.50762e-05,1.74267e-05,-5.02818e-06,1.46755e-05,-6.93829e-06,0
-2.66145e-05,1.07487e-05,-8.83517e-06,-2.21822e-05,1.6939e-05,-6.52505e-06,1.56607e-05,-4.83527e-06,0
-2.72092e-05,1.12879e-05,-1.13819e-05,-2.70294e-05,1.51399e-05,-7.72888e-06,1.62176e-05,-3.30779e-06,0
-2.83139e-05,1.19808e-05,-1.24748e-05,-2.88798e-05,1.35286e-05,-9.97355e-06,1.52598e-05,-3.49755e-06,0
-2.81356e-05,1.30549e-05,-1.14649e-05,-2.77675e-05,1.37565e-05,-1.20325e-05,1.34692e-05,-4.03757e-06,0
-2.73199e-05,1.41246e-05,-8.90299e-06,-2.47841e-05,1.54159e-05,-1.28686e-05,1.16321e-05,-3.09091e-06,0
-2.69116e-05,1.26219e-05,-7.00857e-06,-2.31083e-05,1.70824e-05,-1.27192e-05,1.02971e-05,9.68922e-08,0
-2.66668e-05,7.59669e-06,-6.75028e-06,-2.28442e-05,1.74125e-05,-1.17738e-05,9.50334e-06,2.58161e-06,0
-2.70235e-05,2.57135e-06,-6.70953e-06,-2.11405e-05,1.624e-05,-1.17582e-05,9.09871e-06,1.77511e-06,0
-2.77744e-05,6.56911e-07,-5.97216e-06,-1.56034e-05,1.63269e-05,-1.37521e-05,8.85291e-06,-7.19531e-07,0
-2.84299e-05,-3.27473e-07,-5.70543e-06,-8.65131e-06,1.84839e-05,-1.47273e-05,7.43291e-06,-1.49301e-06,0
-2.99256e-05,-2.13974e-06,-7.86794e-06,-5.04522e-06,1.85096e-05,-1.29777e-05,3.97202e-06,-4.51341e-07,0
-3.10372e-05,-1.62992e-06,-1.02994e-05,-4.43153e-06,1.70815e-05,-9.01623e-06,1.82693e-06,1.53931e-06,0
-2.99704e-05,6.66626e-07,-1.06276e-05,-5.69891e-06,1.5759e-05,-5.72407e-06,3.36348e-06,4.69054e-06,0
-2.8975e-05,3.08406e-06,-8.82409e-06,-7.33913e-06,1.4697e-05,-5.3962e-06,7.24777e-06,5.97138e-06,0
-2.86018e-05,5.42541e-06,-7.99715e-06,-8.92355e-06,1.38072e-05,-6.02494e-06,1.07822e-05,4.63113e-06,0
-2.62898e-05,6.86997e-06,-9.87432e-06,-4.86742e-06,1.32547e-05,-5.90831e-06,1.25906e-05,3.16242e-06,0
-2.43155e-05,8.37543e-06,-1.07811e-05,5.81075e-06,1.22539e-05,-5.97277e-06,1.13766e-05,3.00751e-06,0
-2.47805e-05,8.23779e-06,-1.09117e-05,1.46498e-05,1.10103e-05,-6.75135e-06,7.60699e-06,4.61663e-06,0
-2.64449e-05,7.33509e-06,-1.09131e-05,1.81139e-05,1.15101e-05,-7.84019e-06,4.72243e-06,5.73679e-06,0
-2.76966e-05,6.05556e-06,-1.09037e-05,1.61325e-05,1.28762e-05,-9.80268e-06,2.65095e-06,5.32841e-06,0
-2.86136e-05,3.11385e-06,-1.07271e-05,1.18482e-05,1.42717e-05,-1.16126e-05,9.10134e-07,5.49967e-06,0
-2.89059e-05,8.96317e-07,-1.00911e-05,5.47242e-06,1.43998e-05,-1.16263e-05,3.0185e-07,5.92539e-06,0
-2.81306e-05,-3.7802e-07,-9.12707e-06,-2.71599e-06,1.42638e-05,-1.13804e-05,2.26673e-06,5.75404e-06,0
-2.75535e-05,-1.49239e-06,-8.04608e-06,-9.65209e-06,1.43581e-05,-1.31657e-05,6.91592e-06,7.42485e-06,0
-2.80966e-05,-2.4954e-06,-7.56533e-06,-1.32479e-05,1.44983e-05,-1.48444e-05,1.29813e-05,1.09378e-05,0
-3.02606e-05,-2.85038e-06,-7.46969e-06,-1.56237e-05,1.54701e-05,-1.43826e-05,1.79297e-05,1.247e-05,0
-3.23047e-05,-2.8522e-06,-7.46601e-06,-2.00418e-05,1.61777e-05,-1.36615e-05,1.98674e-05,1.05765e-05,0
-3.30759e-05,-3.10098e-06,-7.95987e-06,-2.63504e-05,1.43426e-05,-1.46759e-05,1.96686e-05,7.89476e-06,0
-3.28932e-05,-2.71323e-06,-9.09127e-06,-2.86968e-05,1.18798e-05,-1.68505e-05,1.84994e-05,7.40014e-06,0
-3.27426e-05,1.9735e-07,-9.86573e-06,-2.28179e-05,1.24021e-05,-1.82815e-05,1.58785e-05,8.40259e-06,0
-3.30598e-05,4.67339e-06,-1.00716e-05,-1.49894e-05,1.44688e-05,-1.75302e-05,1.20528e-05,8.3281e-06,0
-3.33022e-05,7.75559e-06,-1.06665e-05,-1.28444e-05,1.47363e-05,-1.50415e-05,9.19934e-06,6.48084e-06,0
-3.3368e-05,9.23541e-06,-1.1508e-05,-1.6345e-05,1.29316e-05,-1.25484e-05,8.64343e-06,4.2491e-06,0
-3.34262e-05,1.06314e-05,-1.06512e-05,-1.94602e-05,1.09432e-05,-1.06738e-05,1.0082e-05,2.68387e-06,0
-3.34367e-05,1.17452e-05,-8.96316e-06,-2.09752e-05,9.05747e-06,-8.8198e-06,1.11958e-05,1.2043e-06,0
-3.35835e-05,1.1855e-05,-9.57168e-06,-2.33789e-05,9.11019e-06,-8.72621e-06,1.06709e-05,4.24825e-08,0
-3.28677e-05,1.26976e-05,-1.25125e-05,-2.5983e-05,1.13875e-05,-1.02582e-05,9.96014e-06,2.9251e-07,0
-3.23476e-05,1.48995e-05,-1.60893e-05,-2.69572e-05,1.10446e-05,-9.63948e-06,1.10701e-05,-1.11543e-06,0
-3.30295e-05,1.6315e-05,-1.89674e-05,-2.48487e-05,7.52738e-06,-7.7232e-06,1.30259e-05,-4.8017e-06,0
-3.29595e-05,1.74883e-05,-1.92736e-05,-1.49096e-05,5.73284e-06,-7.43583e-06,1.22139e-05,-7.16428e-06,0
-3.14019e-05,1.9478e-05,-1.73106e-05,-1.14303e-06,6.08349e-06,-6.03915e-06,9.41138e-06,-6.7397e-06,0
-2.98269e-05,1.99613e-05,-1.52284e-05,8.67399e-06,7.80892e-06,-4.47946e-06,8.78615e-06,-5.65154e-06,0
-2.95881e-05,1.88588e-05,-1.48494e-05,1.19942e-05,1.01154e-05,-3.03999e-06,9.09574e-06,-6.01098e-06,0
-2.99918e-05,1.6108e-05,-1.38479e-05,1.0753e-05,1.11491e-05,-6.66166e-07,1.14845e-05,-6.29335e-06,0
-3.06216e-05,1.37266e-05,-1.21436e-05,1.13916e-05,1.16746e-05,1.22245e-06,1.55012e-05,-5.48073e-06,0
-3.02809e-05,1.30467e-05,-1.05949e-05,1.23678e-05,1.32604e-05,1.9808e-06,1.78003e-05,-4.84068e-06,0
-3.0099e-05,1.23881e-05,-7.9111e-06,1.09492e-05,1.51461e-05,1.19966e-07,1.71199e-05,-5.00526e-06,0
-3.07462e-05,1.06195e-05,-6.74791e-06,6.68766e-06,1.64823e-05,-3.23127e-06,1.43863e-05,-5.42101e-06,0
-3.14131e-05,7.99797e-06,-6.44867e-06,2.99328e-06,1.70812e-05,-5.09134e-06,1.32447e-05,-5.72269e-06,0
-3.08944e-05,6.70014e-06,-5.33592e-06,1.63541e-06,1.7525e-05,-4.08167e-06,1.42991e-05,-5.53727e-06,0
-2.90045e-05,6.46082e-06,-3.84448e-06,1.91446e-06,1.7679e-05,-3.46293e-06,1.62962e-05,-4.61928e-06,0
-2.85151e-05,5.85104e-06,-4.651e-06,2.70784e-06,1.54239e-05,-4.04515e-06,1.80311e-05,-3.87005e-06,0
-3.00062e-05,4.84303e-06,-8.9101e-06,1.64584e-06,1.30087e-05,-5.48129e-06,1.91253e-05,-4.48109e-06,0
-3.15767e-05,4.18236e-06,-1.40122e-05,1.17219e-06,1.34235e-05,-7.31986e-06,1.94826e-05,-5.43929e-06,0
-3.15842e-05,3.31258e-06,-1.63781e-05,1.19675e-06,1.51598e-05,-8.94219e-06,2.02326e-05,-3.95059e-06,0
-3.15301e-05,1.572e-06,-1.53429e-05,3.61923e-07,1.61553e-05,-1.04587e-05,2.03813e-05,1.01132e-07,0
-3.27584e-05,-5.45859e-07,-1.24554e-05,-7.1526e-07,1.65943e-05,-1.18536e-05,1.90149e-05,3.36841e-06,0
-3.40225e-05,-1.14811e-06,-8.61272e-06,-2.3015e-07,1.59985e-05,-1.18557e-05,1.79036e-05,3.49194e-06,0
-3.41876e-05,1.22187e-06,-4.76826e-06,5.86633e-07,1.38995e-05,-1.07579e-05,1.73644e-05,2.15354e-06,0
-3.31243e-05,5.46304e-06,-2.60017e-06,5.12886e-07,1.22877e-05,-1.04699e-05,1.56345e-05,2.11657e-06,0
-3.09005e-05,8.0864e-06,-3.47061e-06,5.34998e-07,1.30031e-05,-1.08265e-05,1.39159e-05,3.21812e-06,0
-2.92358e-05,8.86992e-06,-4.52688e-06,1.53543e-06,1.46427e-05,-1.0386e-05,1.41424e-05,3.93291e-06,0
-2.89545e-05,8.71712e-06,-3.92284e-06,2.54255e-06,1.457e-05,-9.0838e-06,1.50859e-05,3.39659e-06,0
-2.8665e-05,8.9527e-06,-3.25573e-06,2.75453e-06,1.23025e-05,-9.2578e-06,1.53196e-05,2.9401e-06,0
-2.89373e-05,1.37674e-05,-4.10523e-06,2.27699e-06,1.00795e-05,-1.1153e-05,1.56043e-05,2.37591e-06,0
-2.97111e-05,1.83963e-05,-4.86699e-06,1.506e-06,1.0357e-05,-1.26625e-05,1.65123e-05,9.87836e-07,0
-3.03963e-05,1.70193e-05,-5.14091e-06,1.51643e-06,1.23871e-05,-1.19907e-05,1.83378e-05,5.83003e-07,0
-3.106e-05,1.65545e-05,-5.25403e-06,1.24104e-06,1.43335e-05,-1.13235e-05,2.5977e-05,7.40432e-07,0
-3.02753e-05,1.87754e-05,-4.15032e-06,1.64201e-06,1.63884e-05,-1.0963e-05,3.73422e-05,-1.02583e-06,0
-2.89554e-05,1.82518e-05,-3.24064e-06,9.86666e-07,1.69467e-05,-1.08841e-05,4.29888e-05,-3.68661e-06,0
-2.72544e-05,1.68987e-05,-3.91725e-06,-2.29256e-06,1.58403e-05,-1.08225e-05,4.30774e-05,-4.07752e-06,0
-2.70804e-05,1.67032e-05,-5.16627e-06,-4.04384e-06,1.57065e-05,-1.01388e-05,4.04848e-05,-1.95684e-06,0
-2.83703e-05,1.87281e-05,-5.59065e-06,-4.55635e-06,1.50614e-05,-1.05118e-05,3.51762e-05,-1.84682e-07,0
-2.88535e-05,2.03155e-05,-4.48869e-06,-6.18651e-06,1.47967e-05,-1.24182e-05,2.56931e-05,5.60131e-07,0
-3.05614e-05,1.95045e-05,-4.36022e-06,-7.30833e-06,1.60886e-05,-1.34383e-05,1.3113e-05,2.23852e-06,0
-3.25123e-05,1.95433e-05,-7.16688e-06,-7.91924e-06,1.64213e-05,-1.32741e-05,2.43203e-06,4.35675e-06,0
-3.36188e-05,2.09177e-05,-1.07645e-05,-7.81712e-06,1.60181e-05,-1.39965e-05,-4.93094e-06,4.53351e-06,0
-3.30706e-05,2.39887e-05,-1.28673e-05,-6.37643e-06,1.65015e-05,-1.50806e-05,-1.02608e-05,2.8402e-06,0
-3.0715e-05,2.69386e-05,-1.28594e-05,-4.99313e-06,1.76111e-05,-1.55573e-05,-1.38804e-05,2.08592e-06,0
-2.85748e-05,2.78794e-05,-1.16572e-05,-4.17663e-06,1.76674e-05,-1.45712e-05,-1.40566e-05,4.11171e-06,0
-2.93345e-05,2.77109e-05,-9.92697e-06,-2.71559e-06,1.67067e-05,-1.32073e-05,-1.15248e-05,7.95004e-06,0
-3.11514e-05,2.84073e-05,-7.46843e-06,-1.36086e-07,1.50822e-05,-1.35257e-05,-7.706e-06,9.09411e-06,0
-3.16591e-05,2.99855e-05,-3.10109e-06,2.61573e-06,1.33049e-05,-1.5209e-05,-4.313e-06,6.4804e-06,0
-3.11233e-05,3.08131e-05,2.38441e-06,4.64774e-06,1.19424e-05,-1.5645e-05,-3.01463e-06,4.33674e-06,0
-3.01126e-05,3.07644e-05,9.3419e-06,5.11465e-06,1.08834e-05,-1.43605e-05,-2.99504e-06,4.07617e-06,0
-3.03202e-05,2.97647e-05,2.17534e-05,3.38331e-06,1.00748e-05,-1.26749e-05,-1.78224e-06,4.61889e-06,0
-3.15172e-05,2.79618e-05,4.12695e-05,7.31297e-07,9.33177e-06,-1.28628e-05,3.06939e-07,5.3098e-06,0
-3.2399e-05,2.51493e-05,6.31843e-05,-4.52508e-07,8.91709e-06,-1.50045e-05,2.33538e-06,5.75116e-06,0
-3.25351e-05,2.20831e-05,7.91548e-05,-3.00014e-07,9.12969e-06,-1.62751e-05,5.33265e-06,6.18885e-06,0
-3.26246e-05,2.04141e-05,8.09987e-05,-9.72637e-07,1.0546e-05,-1.60857e-05,7.79649e-06,5.92774e-06,0
-3.38645e-05,1.93207e-05,6.2857e-05,-2.7289e-06,1.20378e-05,-1.45359e-05,8.28149e-06,3.83334e-06,0
-3.44966e-05,1.69141e-05,2.43175e-05,-3.69535e-06,1.33953e-05,-1.15297e-05,9.55542e-06,1.65101e-06,0
-3.15148e-05,1.38533e-05,-2.559e-05,-5.1779e-06,1.40512e-05,-8.63517e-06,1.18177e-05,6.5064e-07,0
-2.79451e-05,1.33839e-05,-7.36962e-05,-8.01148e-06,1.26115e-05,-8.88233e-06,1.1316e-05,-2.9097e-07,0
-2.72294e-05,1.53462e-05,-0.000102794,-1.26146e-05,1.02872e-05,-1.06911e-05,9.43931e-06,8.04719e-07,0
-2.92457e-05,1.3724e-05,-0.000106662,-2.07591e-05,9.18584e-06,-1.27626e-05,1.01431e-05,2.18214e-06,0
-3.11271e-05,8.83828e-06,-9.5116e-05,-2.91498e-05,1.02811e-05,-1.53333e-05,1.42229e-05,2.83536e-06,0
-3.11799e-05,6.39053e-06,-7.84344e-05,-3.05159e-05,1.20682e-05,-1.63073e-05,1.77006e-05,3.94423e-06,0
-3.10001e-05,5.36968e-06,-6.64893e-05,-2.42395e-05,1.28155e-05,-1.64793e-05,2.0115e-05,3.97666e-06,0
-3.04533e-05,4.097e-06,-5.7523e-05,-1.84439e-05,1.17317e-05,-1.64147e-05,2.21393e-05,2.25828e-06,0
-2.99427e-05,2.957e-06,-4.80834e-05,-1.63436e-05,1.1583e-05,-1.65849e-05,2.27528e-05,-7.81777e-07,0
-3.18514e-05,2.36713e-06,-3.89695e-05,-1.63412e-05,1.37516e-05,-1.63078e-05,2.27661e-05,-1.29408e-06,0
-3.46211e-05,2.47727e-06,-3.0567e-05,-1.47949e-05,1.46365e-05,-1.59239e-05,2.13336e-05,-8.72732e-07,0
-3.6201e-05,2.83891e-06,-2.23953e-05,-1.21233e-05,1.31684e-05,-1.53416e-05,1.9069e-05,-1.22018e-06,0
-3.61983e-05,5.16761e-06,-1.68322e-05,-1.10149e-05,1.16793e-05,-1.54057e-05,1.68663e-05,-2.05691e-06,0
-3.48157e-05,1.02782e-05,-1.50819e-05,-1.12731e-05,1.08481e-05,-1.69631e-05,1.54854e-05,-3.10438e-06,0
-3.31944e-05,1.49788e-05,-1.43114e-05,-1.09844e-05,1.02139e-05,-1.82425e-05,1.42407e-05,-3.62954e-06,0
-3.2387e-05,1.5318e-05,-1.32168e-05,-9.25565e-06,9.16523e-06,-1.70395e-05,1.26065e-05,-3.36551e-06,0
-3.19793e-05,1.25809e-05,-1.19434e-05,-7.95322e-06,7.62988e-06,-1.47158e-05,1.10172e-05,-2.27849e-06,0
-3.08635e-05,1.06233e-05,-1.06751e-05,-6.66459e-06,6.88101e-06,-1.42846e-05,9.86887e-06,-2.42709e-06,0
-3.01789e-05,1.07339e-05,-8.53419e-06,-5.00698e-06,7.74837e-06,-1.4245e-05,9.57801e-06,-3.92613e-06,0
-3.0559e-05,1.10598e-05,-6.11325e-06,-4.25939e-06,9.15487e-06,-1.41094e-05,9.26377e-06,-5.36893e-06,0
-3.13206e-05,1.09495e-05,-3.37016e-06,-3.92413e-06,9.79766e-06,-1.34591e-05,9.37063e-06,-6.24311e-06,0
-3.15545e-05,1.19386e-05,-2.31384e-06,-2.16028e-06,9.87479e-06,-1.30362e-05,9.82524e-06,-7.08293e-06,0
-3.10805e-05,1.27969e-05,-1.95406e-06,-1.69018e-06,1.03768e-05,-1.3161e-05,9.94073e-06,-5.49775e-06,0
-3.05302e-05,1.28043e-05,-7.75455e-07,-2.91218e-06,1.25864e-05,-1.2661e-05,1.0765e-05,-2.38125e-06,0
-2.97387e-05,1.34384e-05,1.24993e-07,-4.96099e-06,1.58014e-05,-9.64634e-06,1.28615e-05,-1.39767e-06,0
-2.869e-05,1.50321e-05,-1.96715e-06,-7.29705e-06,1.92551e-05,-6.25669e-06,1.47244e-05,-1.91407e-06,0
-2.83772e-05,1.6588e-05,-4.33237e-06,-9.94687e-06,2.04064e-05,-5.94033e-06,1.46251e-05,-1.65253e-06,0
-2.80643e-05,1.7094e-05,-3.79638e-06,-1.44896e-05,1.80022e-05,-7.16469e-06,1.39874e-05,2.35885e-07,0
-2.79994e-05,1.78195e-05,-7.37508e-07,-2.02456e-05,1.59545e-05,-7.53845e-06,1.95134e-05,2.90666e-06,0
-2.72705e-05,1.95255e-05,1.20823e-06,-2.14084e-05,1.54073e-05,-6.37552e-06,3.20857e-05,4.07452e-06,0
-2.61004e-05,2.10986e-05,3.05941e-07,-1.4052e-05,1.43116e-05,-4.69841e-06,4.34069e-05,2.82451e-06,0
-2.5902e-05,2.21163e-05,3.21993e-08,-3.92255e-07,1.29155e-05,-4.49901e-06,4.87406e-05,1.65049e-06,0
-2.5475e-05,2.42381e-05,1.13697e-06,1.44512e-05,1.06348e-05,-4.8004e-06,4.35834e-05,1.16011e-06,0
-2.55376e-05,2.5128e-05,3.44141e-06,2.28291e-05,9.81484e-06,-4.52948e-06,2.17923e-05,7.35072e-07,0
-2.57335e-05,2.28373e-05,3.63524e-06,2.56625e-05,1.12032e-05,-3.48233e-06,-8.85676e-06,4.68305e-07,0
-2.58432e-05,2.07144e-05,3.18817e-06,2.89924e-05,1.04418e-05,-2.83576e-06,-3.444e-05,1.21531e-06,0
-2.68363e-05,1.97065e-05,3.22566e-06,3.96698e-05,9.35214e-06,-2.91737e-06,-4.72237e-05,3.11692e-06,0
-2.83005e-05,1.96762e-05,4.53203e-06,5.38969e-05,1.1285e-05,-2.97894e-06,-4.81595e-05,5.33049e-06,0
-2.91604e-05,2.0733e-05,6.07341e-06,5.49545e-05,1.55197e-05,-3.93954e-06,-4.14269e-05,8.18122e-06,0
-2.95901e-05,2.26963e-05,5.09039e-06,4.05123e-05,1.87273e-05,-5.647e-06,-2.8763e-05,8.8524e-06,0
-3.00673e-05,2.37817e-05,2.22706e-06,2.16687e-05,1.88691e-05,-7.99195e-06,-1.24444e-05,6.80825e-06,0
-2.9608e-05,2.3965e-05,-1.56174e-07,6.36151e-06,1.69756e-05,-8.91161e-06,3.75386e-06,4.47832e-06,0
-2.91856e-05,2.27564e-05,6.59978e-07,-6.67371e-06,1.45778e-05,-8.00704e-06,1.51942e-05,3.32058e-06,0
-2.93569e-05,2.08696e-05,2.30028e-06,-2.08823e-05,1.18194e-05,-6.87256e-06,2.2491e-05,4.12492e-06,0
-2.91046e-05,2.02232e-05,1.60324e-06,-3.44209e-05,9.7562e-06,-7.22726e-06,2.69641e-05,5.59183e-06,0
-2.85724e-05,2.05819e-05,-1.54035e-06,-4.22405e-05,1.00189e-05,-8.75499e-06,2.93859e-05,7.13473e-06,0
-2.84538e-05,2.05231e-05,-4.21344e-06,-4.35383e-05,1.15047e-05,-9.59261e-06,2.98319e-05,9.2252e-06,0
-2.82488e-05,2.00496e-05,-4.46535e-06,-4.4175e-05,1.18979e-05,-9.75225e-06,2.94527e-05,1.16959e-05,0
-2.76087e-05,2.09283e-05,-2.71538e-06,-4.92694e-05,1.00082e-05,-1.07346e-05,3.06504e-05,1.30118e-05,0
-2.71359e-05,2.36498e-05,-2.21786e-06,-5.59268e-05,7.5814e-06,-1.21236e-05,3.36327e-05,1.26738e-05,0
-2.67647e-05,2.64243e-05,-4.70495e-06,-5.71449e-05,7.03122e-06,-1.20506e-05,3.55199e-05,1.10364e-05,0
-2.71239e-05,2.58403e-05,-7.97976e-06,-5.14025e-05,7.1531e-06,-1.02698e-05,3.26918e-05,8.96807e-06,0
-2.82475e-05,2.40835e-05,-9.65344e-06,-3.75525e-05,6.68349e-06,-9.12472e-06,2.74138e-05,8.077e-06,0
-2.84665e-05,2.3974e-05,-8.89943e-06,-1.81434e-05,7.1588e-06,-9.40293e-06,2.36711e-05,8.50381e-06,0
-2.63555e-05,2.46233e-05,-6.9618e-06,-1.69938e-06,8.75153e-06,-8.50387e-06,2.03912e-05,8.60792e-06,0
-2.31466e-05,2.28e-05,-6.80478e-06,3.20261e-06,1.14762e-05,-7.45945e-06,1.81297e-05,7.70062e-06,0
-2.34915e-05,1.7865e-05,-8.00793e-06,-2.68903e-06,1.332e-05,-8.01418e-06,1.85219e-05,6.90999e-06,0
-2.70224e-05,1.25316e-05,-9.47741e-06,-9.11296e-06,9.62911e-06,-6.43725e-06,1.99651e-05,6.75402e-06,0
-2.84125e-05,7.58137e-06,-9.72197e-06,-1.32608e-05,4.27282e-06,-3.38862e-06,2.2408e-05,6.33291e-06,0
-2.93302e-05,6.49583e-06,-1.03841e-05,-1.7035e-05,3.3102e-06,-2.75913e-06,2.34056e-05,4.99993e-06,0
-3.11835e-05,8.36535e-06,-1.11415e-05,-1.9676e-05,6.1176e-06,-4.25969e-06,2.12202e-05,3.06901e-06,0
-3.18908e-05,8.58135e-06,-1.05115e-05,-2.38094e-05,1.05123e-05,-5.63024e-06,1.89604e-05,2.43897e-06,0
-3.09496e-05,7.7641e-06,-1.01892e-05,-2.61895e-05,1.49087e-05,-5.44232e-06,1.83671e-05,3.39329e-06,0
-2.95365e-05,5.78387e-06,-8.34202e-06,-1.80235e-05,1.78234e-05,-5.08996e-06,1.42428e-05,5.2361e-06,0
-2.93077e-05,3.80924e-06,-7.00356e-06,6.83551e-07,1.97327e-05,-5.12909e-06,2.79793e-06,7.21733e-06,0
-3.01609e-05,2.48787e-06,-6.69084e-06,2.06465e-05,2.10605e-05,-5.03791e-06,-1.02686e-05,8.22018e-06,0
-3.08988e-05,1.58919e-06,-6.49743e-06,3.1282e-05,2.25738e-05,-5.33816e-06,-1.58617e-05,8.83026e-06,0
-3.01259e-05,9.60101e-07,-3.90056e-06,2.98379e-05,2.5052e-05,-6.05192e-06,-1.08421e-05,8.29061e-06,0
-2.9124e-05,-1.26488e-07,-7.0609e-07,2.22108e-05,2.54324e-05,-6.2626e-06,-1.42884e-07,6.4744e-06,0
-2.97781e-05,-1.65682e-06,-1.43444e-06,1.24434e-05,2.38334e-05,-6.25776e-06,1.13787e-05,4.16826e-06,0
-3.11859e-05,-2.89328e-06,-4.46372e-06,3.09645e-06,2.2728e-05,-6.28757e-06,2.25671e-05,1.65697e-06,0
-3.24652e-05,-3.36114e-06,-4.96561e-06,-2.11961e-07,2.31988e-05,-6.90669e-06,3.27899e-05,-2.2649e-07,0
-3.34722e-05,-3.153e-06,-3.07519e-06,2.57916e-06,2.3965e-05,-7.43095e-06,4.00926e-05,-4.87135e-07,0
-3.37401e-05,-2.63428e-06,-3.69444e-06,5.56592e-06,2.38002e-05,-6.72363e-06,4.31685e-05,2.19718e-07,0
-3.34949e-05,-2.18438e-06,-6.70074e-06,4.89936e-06,2.28862e-05,-3.91738e-06,4.28504e-05,-5.72752e-07,0
-3.23909e-05,-1.38023e-06,-9.54976e-06,2.28367e-06,2.19644e-05,-1.22463e-06,3.98652e-05,-3.37801e-06,0
-3.06054e-05,2.98539e-07,-1.19708e-05,3.94951e-07,2.20379e-05,-1.88768e-06,3.4563e-05,-5.16639e-06,0
-2.93642e-05,2.37375e-06,-1.41825e-05,-3.5376e-07,2.16676e-05,-4.43472e-06,2.81441e-05,-5.13621e-06,0
-2.92895e-05,3.8821e-06,-1.50012e-05,-7.61986e-07,1.89864e-05,-6.31434e-06,2.18452e-05,-5.4965e-06,0
-3.09222e-05,6.5214e-06,-1.35485e-05,-4.49747e-07,1.45702e-05,-7.56807e-06,1.69887e-05,-5.80488e-06,0
-3.26868e-05,9.04263e-06,-1.01206e-05,-4.81687e-07,1.11975e-05,-9.17442e-06,1.4039e-05,-4.8897e-06,0
-3.2472e-05,9.23218e-06,-8.23529e-06,2.18304e-07,1.0527e-05,-1.04697e-05,1.25032e-05,-3.21061e-06,0
-3.17826e-05,8.52399e-06,-1.08128e-05,1.27779e-06,1.18486e-05,-1.14795e-05,1.13971e-05,-4.09904e-06,0
-3.08897e-05,8.4504e-06,-1.64996e-05,-4.82028e-07,1.35852e-05,-1.11371e-05,1.03356e-05,-6.19185e-06,0
-2.98515e-05,8.73986e-06,-1.92328e-05,-3.71441e-06,1.41063e-05,-9.48913e-06,9.94268e-06,-6.67884e-06,0
-2.9671e-05,9.70424e-06,-1.72666e-05,-5.11064e-06,1.53998e-05,-8.05102e-06,9.41157e-06,-5.64948e-06,0
-3.15997e-05,9.26359e-06,-1.3598e-05,-3.04627e-06,1.66503e-05,-7.50827e-06,8.22835e-06,-2.42993e-06,0
-3.46462e-05,7.1815e-06,-9.24643e-06,3.84988e-07,1.42663e-05,-7.49794e-06,6.70015e-06,1.19864e-07,0
-3.54831e-05,4.55874e-06,-6.81033e-06,2.23326e-06,1.04076e-05,-6.58715e-06,5.48522e-06,1.15442e-06,0
-3.28322e-05,2.3398e-06,-7.22944e-06,2.37088e-06,8.80511e-06,-5.45169e-06,5.40042e-06,7.29357e-07,0
-2.96554e-05,3.61364e-06,-7.27354e-06,4.79336e-06,8.62222e-06,-4.23768e-06,6.14078e-06,1.72826e-06,0
-2.94682e-05,7.3544e-06,-6.28266e-06,7.89672e-06,7.38086e-06,-2.64121e-06,6.57717e-06,3.19318e-06,0
-3.09974e-05,1.06835e-05,-4.65985e-06,8.08885e-06,6.91375e-06,-2.33672e-06,6.43591e-06,2.05339e-06,0
-3.16215e-05,1.21658e-05,-2.59514e-06,6.00408e-06,6.78469e-06,-4.18924e-06,6.06831e-06,-1.69918e-08,0
-3.00982e-05,1.21988e-05,-1.29475e-06,3.50519e-06,6.63905e-06,-6.61037e-06,6.06838e-06,-1.38604e-06,0
-2.87785e-05,1.191e-05,-1.48805e-06,2.81004e-06,6.12979e-06,-8.37491e-06,7.40824e-06,-9.62688e-07,0
-2.88897e-05,1.20563e-05,-2.5786e-06,3.77175e-06,5.40323e-06,-8.73451e-06,8.92481e-06,-3.95204e-07,0
-2.96091e-05,1.22377e-05,-3.52509e-06,3.93766e-06,5.2228e-06,-7.81654e-06,9.20075e-06,-7.09832e-07,0
-2.94225e-05,1.2322e-05,-4.74138e-06,1.90034e-06,5.2913e-06,-6.9152e-06,8.38005e-06,-1.67656e-06,0
-2.92176e-05,1.2452e-05,-6.66018e-06,-8.66998e-07,5.44694e-06,-6.54124e-06,7.83336e-06,-1.94059e-06,0
-3.01491e-05,1.25029e-05,-8.97851e-06,-3.05259e-06,4.66421e-06,-6.37016e-06,7.14594e-06,-2.14734e-06,0
-3.14315e-05,1.19504e-05,-1.00233e-05,-3.96749e-06,3.4189e-06,-5.87724e-06,4.47007e-06,-2.3533e-06,0
-3.2032e-05,1.03706e-05,-1.01371e-05,-4.08456e-06,4.079e-06,-5.61706e-06,5.40696e-07,-8.98759e-07,0
-3.16263e-05,7.56325e-06,-1.08834e-05,-2.75411e-06,7.04089e-06,-5.2664e-06,-4.82908e-07,1.08498e-06,0
-3.11575e-05,4.51789e-06,-1.16807e-05,1.13253e-07,8.68496e-06,-4.74084e-06,1.85332e-06,7.52139e-07,0
-3.03498e-05,1.67877e-06,-1.30313e-05,1.99096e-06,8.06363e-06,-5.60963e-06,3.02036e-06,-9.9117e-07,0
-2.97769e-05,4.3682e-07,-1.5325e-05,2.77043e-08,8.08163e-06,-7.66079e-06,1.97422e-06,-1.40197e-06,0
-2.98899e-05,9.46049e-07,-1.45489e-05,-5.32736e-06,1.1357e-05,-1.00717e-05,1.20452e-06,-4.27443e-07,0
-3.10585e-05,1.94859e-06,-9.2819e-06,-1.06275e-05,1.48931e-05,-1.21596e-05,2.3399e-06,9.35393e-07,0
-3.17603e-05,3.8685e-06,-5.65795e-06,-1.2809e-05,1.51424e-05,-1.28791e-05,4.85035e-06,1.90321e-06,0
-3.22213e-05,5.08417e-06,-5.7373e-06,-1.15327e-05,1.60933e-05,-1.2694e-05,5.74729e-06,4.98048e-07,0
-3.35205e-05,6.26386e-06,-5.56537e-06,-1.0183e-05,1.89941e-05,-1.27742e-05,4.4813e-06,-6.81098e-07,0
-3.35733e-05,7.89362e-06,-4.79162e-06,-1.0431e-05,1.9244e-05,-1.31357e-05,5.92542e-06,-1.20083e-06,0
-3.1904e-05,1.02825e-05,-4.6768e-06,-1.16822e-05,1.80077e-05,-1.22318e-05,9.141e-06,-2.13937e-06,0
-3.05997e-05,1.35286e-05,-5.1825e-06,-1.41921e-05,1.77699e-05,-1.09382e-05,1.11325e-05,-1.33518e-06,0
-2.97499e-05,1.49741e-05,-4.85297e-06,-1.77327e-05,1.76139e-05,-1.15979e-05,1.10036e-05,-3.23564e-07,0
-2.95981e-05,1.29416e-05,-4.77556e-06,-1.86055e-05,1.77959e-05,-1.32113e-05,1.04474e-05,7.50073e-07,0
-3.07377e-05,9.66149e-06,-6.0645e-06,-1.34425e-05,2.00571e-05,-1.17445e-05,1.18313e-05,1.98257e-06,0
-3.09454e-05,9.10404e-06,-7.39195e-06,-5.96568e-06,2.04785e-05,-9.07323e-06,1.35182e-05,1.82719e-06,0
-3.03509e-05,1.01249e-05,-6.94751e-06,-2.18187e-06,1.93516e-05,-9.29962e-06,1.37995e-05,-7.98477e-07,0
-3.02101e-05,1.09716e-05,-5.51268e-06,-3.72644e-06,1.89734e-05,-1.04109e-05,1.30365e-05,-3.68197e-06,0
-3.03033e-05,1.12035e-05,-5.65864e-06,-8.03559e-06,1.69568e-05,-9.51563e-06,1.3724e-05,-5.02546e-06,0
-2.98633e-05,1.04715e-05,-7.50358e-06,-1.01255e-05,1.43262e-05,-7.08064e-06,1.50718e-05,-4.77574e-06,0
-2.91137e-05,9.39854e-06,-1.02208e-05,-7.29812e-06,1.32494e-05,-4.66223e-06,1.56499e-05,-3.15559e-06,0
-2.85968e-05,7.36153e-06,-1.33718e-05,-2.65438e-06,1.34985e-05,-2.84154e-06,1.48456e-05,-1.14359e-06,0
-2.81409e-05,3.47587e-06,-1.63504e-05,-1.9045e-07,1.34179e-05,-2.2634e-06,1.38114e-05,-3.83519e-07,0
-2.75807e-05,-1.16334e-06,-1.84793e-05,4.70881e-07,1.4e-05,-2.62209e-06,1.42859e-05,-2.00699e-07,0
-2.74185e-05,-2.45336e-06,-2.01524e-05,2.57245e-07,1.4838e-05,-4.32394e-06,1.58377e-05,8.08942e-07,0
-2.8375e-05,1.63854e-06,-2.0668e-05,-3.69668e-07,1.60516e-05,-7.32965e-06,1.69795e-05,2.11591e-06,0
-2.99313e-05,6.77295e-06,-2.01262e-05,1.49594e-07,1.78057e-05,-9.03024e-06,1.76955e-05,3.11999e-06,0
-3.13016e-05,9.689e-06,-1.90772e-05,1.61436e-06,1.90035e-05,-7.8625e-06,1.8229e-05,3.09059e-06,0
-3.19718e-05,1.0284e-05,-1.78533e-05,2.05327e-06,1.84703e-05,-5.68144e-06,1.80751e-05,2.10014e-06,0
-3.16129e-05,8.34754e-06,-1.40405e-05,1.83604e-06,1.68808e-05,-4.34424e-06,1.83922e-05,2.74652e-07,0
-3.01942e-05,7.24424e-06,-8.26378e-06,1.99935e-06,1.51272e-05,-5.22197e-06,1.85271e-05,-1.75381e-06,0
-2.846e-05,8.21947e-06,-4.23006e-06,1.86261e-06,1.24344e-05,-7.13512e-06,1.70565e-05,-2.29026e-06,0
-2.73973e-05,9.56838e-06,-2.6743e-06,1.68269e-06,9.72763e-06,-8.47235e-06,1.52272e-05,-9.04749e-07,0
-2.86943e-05,1.16475e-05,-1.59861e-06,-6.47029e-07,9.70472e-06,-9.04571e-06,1.47373e-05,1.69924e-06,0
-2.98398e-05,1.37126e-05,8.33176e-07,-5.54606e-06,1.3489e-05,-8.41654e-06,1.57165e-05,2.53478e-06,0
-2.95849e-05,1.59346e-05,2.37459e-06,-1.12467e-05,1.75111e-05,-8.2325e-06,1.65946e-05,1.80969e-06,0
-3.01666e-05,1.84978e-05,2.28928e-06,-1.59433e-05,1.7575e-05,-8.98746e-06,1.64653e-05,6.94815e-07,0
-3.00867e-05,2.01202e-05,1.56191e-07,-1.53098e-05,1.75897e-05,-9.29287e-06,1.51728e-05,6.33154e-07,0
-2.9137e-05,2.10966e-05,-3.7033e-06,-1.12067e-05,1.86084e-05,-9.76157e-06,1.38618e-05,2.34217e-06,0
-2.86076e-05,2.15572e-05,-6.73684e-06,-6.95568e-06,1.75695e-05,-1.04647e-05,1.52138e-05,1.57837e-06,0
-3.0286e-05,2.14493e-05,-9.23986e-06,-4.14014e-06,1.65854e-05,-1.0064e-05,1.69713e-05,-1.09733e-06,0
-3.23927e-05,2.17813e-05,-1.17951e-05,-3.9323e-06,1.76948e-05,-9.09478e-06,1.70699e-05,-3.65676e-06,0
-3.31503e-05,2.17509e-05,-1.22466e-05,-6.12319e-06,2.02212e-05,-9.46844e-06,1.6667e-05,-3.9768e-06,0
-3.28239e-05,2.15956e-05,-9.6179e-06,-1.04243e-05,2.05234e-05,-1.01027e-05,1.60237e-05,-2.6528e-06,0
-3.19461e-05,2.23731e-05,-6.7001e-06,-1.59464e-05,1.80152e-05,-1.05405e-05,1.46833e-05,-5.02885e-07,0
-3.14334e-05,2.27809e-05,-6.55335e-06,-2.31567e-05,1.34059e-05,-1.15518e-05,1.48398e-05,8.26185e-07,0
-3.0837e-05,2.25145e-05,-9.24523e-06,-2.99948e-05,8.65326e-06,-1.25029e-05,1.78669e-05,8.57203e-07,0
-3.10099e-05,2.1372e-05,-1.32515e-05,-3.26079e-05,4.93367e-06,-1.23575e-05,2.07413e-05,1.54519e-06,0
-3.25493e-05,2.02893e-05,-1.64202e-05,-2.98493e-05,2.35096e-06,-1.10011e-05,2.00813e-05,3.20062e-06,0
-3.41704e-05,1.92883e-05,-1.74607e-05,-2.56554e-05,8.65199e-07,-1.05527e-05,1.61591e-05,3.22427e-06,0
-3.44095e-05,1.80249e-05,-1.7554e-05,-2.42019e-05,-9.26621e-07,-1.09547e-05,1.19633e-05,1.09424e-06,0
-3.3189e-05,1.66754e-05,-1.82752e-05,-2.48317e-05,-2.90719e-06,-1.07991e-05,9.95997e-06,-1.28248e-07,0
-3.11659e-05,1.57131e-05,-2.04066e-05,-2.41246e-05,-3.0978e-06,-1.05143e-05,9.92968e-06,-8.85356e-08,0
-3.0361e-05,1.601e-05,-2.33937e-05,-2.01193e-05,-1.10348e-06,-1.12815e-05,9.23577e-06,-8.96532e-08,0
-3.1745e-05,1.62766e-05,-2.43559e-05,-1.0606e-05,9.77766e-07,-1.13122e-05,7.64597e-06,-1.94282e-06,0
-3.40502e-05,1.56236e-05,-2.22407e-05,3.37466e-06,2.00659e-06,-1.10938e-05,6.26078e-06,-4.0868e-06,0
-3.40135e-05,1.51079e-05,-1.84704e-05,1.66758e-05,3.43757e-06,-1.16082e-05,4.64488e-06,-4.05682e-06,0
-3.09345e-05,1.62097e-05,-1.46075e-05,2.61891e-05,5.12183e-06,-1.19135e-05,3.36791e-06,-1.21133e-06,0
-2.67121e-05,1.61145e-05,-1.32038e-05,2.89216e-05,5.70519e-06,-1.23014e-05,2.24737e-06,8.46646e-07,0
-2.47204e-05,1.492e-05,-1.52369e-05,2.42199e-05,5.4104e-06,-1.3257e-05,-2.18009e-06,6.84583e-07,0
-2.63025e-05,1.60409e-05,-1.78224e-05,1.33263e-05,4.77067e-06,-1.3975e-05,-7.50019e-06,-3.17902e-07,0
-2.76199e-05,1.68739e-05,-1.68898e-05,-8.0206e-07,6.25184e-06,-1.3109e-05,-8.99055e-06,-4.91315e-07,0
-2.79644e-05,1.69472e-05,-1.34926e-05,-1.15555e-05,7.23687e-06,-1.33174e-05,-7.77602e-06,-4.97344e-07,0
-2.80608e-05,1.80843e-05,-1.10231e-05,-1.36617e-05,8.11804e-06,-1.4255e-05,-4.55087e-06,1.6681e-06,0
-2.94034e-05,1.88049e-05,-8.26015e-06,-8.64166e-06,1.08679e-05,-1.24608e-05,9.2409e-07,5.67007e-06,0
-3.09319e-05,1.87733e-05,-4.03178e-06,-2.53277e-06,1.27123e-05,-9.65059e-06,6.76579e-06,7.65848e-06,0
