ch1,ch2,ch3,ch4,ch5,ch6,ch7,ch8,class
-3.02665e-05,2.14733e-05,-1.83983e-05,-1.49508e-05,1.65834e-05,-1.10352e-05,2.25802e-05,2.43544e-06,0
-2.92752e-05,2.0947e-05,-1.87302e-05,-1.5107e-05,2.68722e-05,-8.88412e-06,2.31156e-05,9.29393e-07,0
-2.84712e-05,1.81628e-05,-1.5714e-05,-1.91033e-05,3.69704e-05,-8.19209e-06,2.13952e-05,3.42979e-06,0
-2.84407e-05,1.72646e-05,-1.13109e-05,-3.05518e-05,4.18911e-05,-7.77882e-06,2.04761e-05,6.70249e-06,0
-2.86919e-05,2.00247e-05,-7.96853e-06,-4.08421e-05,4.18953e-05,-6.42365e-06,2.07477e-05,7.11155e-06,0
-2.96e-05,2.36679e-05,-6.03508e-06,-4.28544e-05,3.81451e-05,-6.04206e-06,2.02715e-05,5.9589e-06,0
-3.06437e-05,2.67285e-05,-6.56636e-06,-3.72365e-05,3.2624e-05,-7.0228e-06,1.81237e-05,4.57387e-06,0
-2.8636e-05,2.48968e-05,-7.65807e-06,-2.8923e-05,2.95288e-05,-5.36832e-06,1.59473e-05,3.01452e-06,0
-2.67885e-05,2.03596e-05,-7.07228e-06,-2.14591e-05,2.8178e-05,-4.03347e-06,1.53315e-05,2.26782e-06,0
-2.78137e-05,1.82484e-05,-6.69511e-06,-1.60343e-05,2.8962e-05,-4.86214e-06,1.68479e-05,2.89569e-06,0
-2.93865e-05,1.83234e-05,-8.00447e-06,-5.80185e-06,2.87481e-05,-5.2666e-06,1.94462e-05,4.93841e-06,0
-3.04207e-05,1.9493e-05,-1.15393e-05,7.98684e-06,2.59237e-05,-6.6575e-06,1.92582e-05,6.68587e-06,0
-3.05523e-05,1.68787e-05,-1.39081e-05,1.66409e-05,2.30031e-05,-8.79439e-06,1.55573e-05,7.59275e-06,0
-2.9918e-05,1.22026e-05,-1.4037e-05,2.11288e-05,2.05983e-05,-1.02998e-05,7.12019e-06,8.35153e-06,0
-3.12457e-05,9.1713e-06,-1.33433e-05,2.26579e-05,1.98136e-05,-9.46466e-06,-5.46139e-06,8.3605e-06,0
-3.2718e-05,1.04478e-05,-1.31664e-05,1.9638e-05,2.0402e-05,-8.68979e-06,-1.41231e-05,8.30831e-06,0
-3.19414e-05,1.30118e-05,-1.3721e-05,1.07907e-05,2.19483e-05,-9.78012e-06,-1.37585e-05,9.26157e-06,0
-3.09482e-05,1.58862e-05,-1.4248e-05,-1.66937e-07,2.17851e-05,-1.19195e-05,-7.82801e-06,9.86614e-06,0
-3.01039e-05,1.87558e-05,-1.49153e-05,-1.0564e-05,2.00419e-05,-1.29311e-05,-3.14527e-07,8.54317e-06,0
-2.99134e-05,1.94738e-05,-1.57683e-05,-1.89109e-05,1.69759e-05,-1.20599e-05,7.33879e-06,6.77641e-06,0
-2.97855e-05,1.8271e-05,-1.68286e-05,-2.47512e-05,1.44384e-05,-9.63876e-06,1.34395e-05,6.46129e-06,0
-2.93052e-05,1.60578e-05,-1.78108e-05,-2.8515e-05,1.38627e-05,-8.31959e-06,1.92091e-05,7.22942e-06,0
-2.90108e-05,1.4072e-05,-1.74318e-05,-2.99176e-05,1.46552e-05,-1.04135e-05,2.53618e-05,5.70143e-06,0
-3.03368e-05,1.30198e-05,-1.46034e-05,-3.02576e-05,1.53492e-05,-1.22562e-05,3.00121e-05,2.66868e-06,0
-3.16935e-05,1.47173e-05,-1.13777e-05,-3.07969e-05,1.45913e-05,-1.17075e-05,3.09719e-05,2.52531e-06,0
-3.16632e-05,1.64362e-05,-9.2643e-06,-2.97367e-05,1.37207e-05,-1.00996e-05,2.84143e-05,5.68526e-06,0
-3.11206e-05,1.62643e-05,-8.43763e-06,-2.31204e-05,1.24454e-05,-8.98312e-06,2.60846e-05,8.563e-06,0
-2.96143e-05,1.50686e-05,-7.69619e-06,-1.3007e-05,1.02872e-05,-8.82286e-06,2.5061e-05,9.00245e-06,0
-2.68151e-05,1.51771e-05,-6.47831e-06,-7.25058e-06,8.38344e-06,-8.85491e-06,2.37111e-05,7.52837e-06,0
-2.42137e-05,1.42009e-05,-5.50948e-06,-1.07006e-05,7.12398e-06,-8.21914e-06,2.25924e-05,5.57428e-06,0
-2.42021e-05,1.18649e-05,-5.79716e-06,-1.62276e-05,5.32418e-06,-7.93548e-06,2.12786e-05,4.57568e-06,0
-2.49089e-05,9.89136e-06,-5.04361e-06,-1.74925e-05,4.87771e-06,-8.22377e-06,1.97889e-05,4.82317e-06,0
-2.47937e-05,8.86402e-06,-3.08895e-06,-1.44556e-05,6.04909e-06,-9.11704e-06,1.95238e-05,5.20484e-06,0
-2.47369e-05,1.00143e-05,-2.68946e-06,-1.13212e-05,7.02513e-06,-1.06931e-05,2.01321e-05,3.83274e-06,0
-2.50252e-05,1.17347e-05,-2.81719e-06,-1.03932e-05,6.54342e-06,-1.26613e-05,1.79216e-05,5.17636e-07,0
-2.60323e-05,1.25117e-05,-1.86103e-06,-7.11636e-06,5.76394e-06,-1.31927e-05,1.37145e-05,-2.69637e-06,0
-2.70922e-05,1.3085e-05,1.26025e-07,-6.80887e-08,5.10185e-06,-1.28761e-05,1.01071e-05,-3.47078e-06,0
-2.83681e-05,1.28637e-05,8.24276e-07,8.03864e-06,4.07426e-06,-1.34476e-05,6.73833e-06,-1.97171e-06,0
-2.85597e-05,1.22426e-05,1.87327e-08,1.50423e-05,3.61177e-06,-1.27258e-05,4.83553e-06,-4.0301e-07,0
-2.69913e-05,1.29594e-05,-1.14552e-06,1.9994e-05,3.51744e-06,-1.21206e-05,3.86806e-06,6.81072e-07,0
-2.60842e-05,1.39903e-05,-2.36012e-06,2.28396e-05,5.75709e-06,-1.37722e-05,3.59573e-06,1.96313e-06,0
-2.72922e-05,1.30473e-05,-2.90164e-06,2.34411e-05,1.09044e-05,-1.4961e-05,3.6096e-06,2.57221e-06,0
-2.88391e-05,9.83824e-06,-2.18219e-06,2.20872e-05,1.59375e-05,-1.36155e-05,4.52708e-06,1.56825e-06,0
-2.91665e-05,7.09537e-06,-1.57023e-06,1.87228e-05,1.7948e-05,-1.12315e-05,6.19798e-06,-7.46776e-07,0
-2.94817e-05,4.52582e-06,-2.8235e-06,1.37384e-05,1.55479e-05,-9.01995e-06,6.65059e-06,-3.03401e-06,0
-2.98405e-05,3.03867e-06,-5.27543e-06,1.05059e-05,1.18762e-05,-6.786e-06,6.04749e-06,-3.62689e-06,0
-3.09123e-05,6.11636e-06,-7.03598e-06,1.1539e-05,9.82836e-06,-5.6477e-06,6.01989e-06,-3.42802e-06,0
-3.38638e-05,1.54721e-05,-8.23456e-06,1.53976e-05,8.10865e-06,-5.86536e-06,6.9982e-06,-3.39445e-06,0
-3.78887e-05,2.52987e-05,-9.10621e-06,1.49606e-05,4.20867e-06,-6.71928e-06,9.0218e-06,-3.31518e-06,0
-4.00647e-05,2.75457e-05,-8.95945e-06,8.26123e-06,-1.28478e-06,-7.2051e-06,1.13719e-05,-3.95609e-06,0
-3.94478e-05,2.21362e-05,-8.786e-06,1.5568e-06,-4.89358e-06,-6.71133e-06,1.36016e-05,-5.31727e-06,0
-3.69243e-05,1.52868e-05,-9.73336e-06,2.61692e-07,-5.41916e-06,-5.8649e-06,1.54309e-05,-6.94545e-06,0
-3.43664e-05,9.87357e-06,-1.01839e-05,4.11396e-06,-4.06514e-06,-5.02968e-06,1.6419e-05,-7.61855e-06,0
-3.43806e-05,6.27324e-06,-8.81699e-06,9.45762e-06,-1.89022e-06,-5.32383e-06,1.6309e-05,-5.12806e-06,0
-3.57974e-05,5.59665e-06,-7.8807e-06,1.19217e-05,1.00638e-06,-6.30321e-06,1.48526e-05,-1.18084e-07,0
-3.488e-05,5.59384e-06,-7.99549e-06,9.29773e-06,4.72742e-06,-6.65696e-06,1.41738e-05,3.43203e-06,0
-3.24582e-05,9.02468e-07,-8.53474e-06,6.81696e-06,1.01812e-05,-5.58378e-06,1.62255e-05,4.04159e-06,0
-3.17058e-05,-7.89995e-06,-9.26097e-06,6.71946e-06,1.81592e-05,-3.31482e-06,1.84187e-05,3.5511e-06,0
-3.32393e-05,-1.69773e-05,-1.11465e-05,6.15092e-06,2.56032e-05,-2.37815e-06,1.68556e-05,3.76722e-06,0
-3.50248e-05,-2.37968e-05,-1.46002e-05,4.76067e-06,2.72494e-05,-3.37222e-06,1.31516e-05,5.27417e-06,0
-3.47158e-05,-2.33667e-05,-1.72656e-05,2.98923e-06,2.43819e-05,-5.28549e-06,1.14818e-05,7.52516e-06,0
-3.27551e-05,-1.87338e-05,-1.89235e-05,-2.91795e-07,1.96177e-05,-7.58733e-06,1.20523e-05,8.54181e-06,0
-3.2438e-05,-1.17148e-05,-1.91197e-05,-6.74545e-06,1.37752e-05,-8.55124e-06,1.29844e-05,7.27588e-06,0
-3.30587e-05,-3.04352e-06,-1.75195e-05,-1.32218e-05,9.098e-06,-8.64219e-06,1.21744e-05,4.1412e-06,0
-3.26425e-05,3.97817e-06,-1.56059e-05,-1.59844e-05,7.08789e-06,-8.07746e-06,9.55379e-06,1.47934e-06,0
-3.25931e-05,8.16267e-06,-1.31063e-05,-1.68159e-05,8.0245e-06,-7.58655e-06,8.357e-06,2.30967e-06,0
-3.1565e-05,1.05148e-05,-1.12399e-05,-1.75211e-05,9.74722e-06,-8.1412e-06,5.0367e-06,4.38922e-06,0
-3.0277e-05,1.11614e-05,-1.05322e-05,-1.64931e-05,9.35469e-06,-8.3915e-06,-4.46196e-06,3.73977e-06,0
-3.04225e-05,1.16541e-05,-9.60158e-06,-1.49947e-05,6.97854e-06,-8.88995e-06,-1.49513e-05,2.04686e-06,0
-3.20603e-05,1.39627e-05,-8.31441e-06,-1.59137e-05,5.09275e-06,-9.70257e-06,-1.77315e-05,2.25416e-06,0
-3.26463e-05,1.55824e-05,-6.63875e-06,-1.92435e-05,5.21274e-06,-1.06177e-05,-1.2339e-05,3.57649e-06,0
-3.21375e-05,1.64303e-05,-6.19435e-06,-2.61688e-05,7.53227e-06,-1.12329e-05,-3.67429e-06,4.61198e-06,0
-3.106e-05,1.6781e-05,-7.32074e-06,-3.78872e-05,1.03095e-05,-1.16581e-05,4.70887e-06,4.12278e-06,0
-2.9687e-05,1.76044e-05,-8.06819e-06,-4.83389e-05,1.19961e-05,-1.21834e-05,1.1846e-05,1.75136e-06,0
-2.84291e-05,1.81968e-05,-8.56732e-06,-5.07722e-05,1.23235e-05,-1.3255e-05,1.8648e-05,-2.36926e-07,0
-2.71078e-05,1.86277e-05,-1.01123e-05,-4.69725e-05,1.18746e-05,-1.49478e-05,2.52419e-05,-2.48489e-07,0
-2.68384e-05,1.87549e-05,-1.06826e-05,-4.31213e-05,1.24088e-05,-1.72478e-05,3.03498e-05,5.69965e-07,0
-2.76269e-05,1.91842e-05,-9.147e-06,-4.29498e-05,1.45315e-05,-1.90332e-05,3.2922e-05,7.10789e-07,0
-2.98491e-05,1.9929e-05,-8.01617e-06,-3.82006e-05,1.71541e-05,-1.92425e-05,3.57041e-05,7.55557e-07,0
-3.18795e-05,2.05589e-05,-8.32933e-06,-2.00013e-05,1.9199e-05,-1.98305e-05,4.18977e-05,2.21348e-06,0
-3.21793e-05,2.14895e-05,-8.95725e-06,7.43282e-06,2.06224e-05,-1.96323e-05,5.08598e-05,3.92258e-06,0
-3.07951e-05,2.15599e-05,-9.08349e-06,3.63613e-05,2.22815e-05,-1.65663e-05,5.86882e-05,4.59283e-06,0
-2.9096e-05,2.03996e-05,-8.27816e-06,6.20429e-05,2.47896e-05,-1.30645e-05,6.13764e-05,4.85436e-06,0
-2.75592e-05,1.97278e-05,-5.97186e-06,7.82292e-05,2.83392e-05,-1.19166e-05,5.52453e-05,5.04643e-06,0
-2.69698e-05,1.97677e-05,-3.67977e-06,8.1648e-05,3.09625e-05,-1.27272e-05,4.28825e-05,5.10267e-06,0
-2.6654e-05,1.86876e-05,-3.45937e-06,7.30865e-05,2.94219e-05,-1.28573e-05,2.79347e-05,5.81728e-06,0
-2.71557e-05,1.76944e-05,-4.47042e-06,5.83465e-05,2.48632e-05,-1.16357e-05,1.27405e-05,6.81508e-06,0
-2.88903e-05,1.55148e-05,-3.62685e-06,4.24737e-05,2.02265e-05,-1.22165e-05,-2.25585e-06,6.66262e-06,0
-2.86308e-05,1.21498e-05,5.45244e-07,2.75502e-05,1.81485e-05,-1.41679e-05,-1.23963e-05,5.92701e-06,0
-2.6536e-05,9.26658e-06,8.26473e-06,1.60218e-05,1.80451e-05,-1.57122e-05,-1.5472e-05,4.84273e-06,0
-2.52073e-05,6.82056e-06,2.05565e-05,5.72424e-06,1.71766e-05,-1.52978e-05,-1.63554e-05,1.95392e-06,0
-2.59138e-05,5.80906e-06,3.86243e-05,-5.09829e-06,1.52517e-05,-1.35947e-05,-1.40973e-05,5.65427e-07,0
-2.75055e-05,5.83854e-06,5.88369e-05,-1.67707e-05,1.26466e-05,-1.19004e-05,-9.23687e-06,1.94205e-06,0
-2.8837e-05,6.61356e-06,7.39698e-05,-2.19075e-05,1.05432e-05,-1.20466e-05,-5.23184e-06,4.39312e-06,0
-3.04781e-05,8.05524e-06,7.41313e-05,-1.97008e-05,1.02394e-05,-1.51151e-05,-4.86277e-06,7.17162e-06,0
-3.22453e-05,1.0117e-05,5.2992e-05,-1.7057e-05,1.22046e-05,-1.7477e-05,-6.32834e-06,7.39016e-06,0
-3.23989e-05,1.173e-05,1.58645e-05,-1.74192e-05,1.46027e-05,-1.84474e-05,-5.89572e-06,5.28421e-06,0
-3.11183e-05,1.0474e-05,-2.73966e-05,-2.03134e-05,1.55542e-05,-1.8344e-05,-2.62059e-06,2.39869e-06,0
-3.09925e-05,8.24176e-06,-6.57976e-05,-2.49533e-05,1.45294e-05,-1.80659e-05,1.15075e-06,3.55924e-07,0
-3.12878e-05,7.13282e-06,-9.12632e-05,-3.40185e-05,1.21409e-05,-1.74048e-05,4.92554e-06,-1.57274e-06,0
-3.10286e-05,7.05189e-06,-9.9356e-05,-4.2802e-05,1.04917e-05,-1.73034e-05,7.36586e-06,-2.71585e-06,0
-3.04425e-05,7.51331e-06,-9.16777e-05,-4.2649e-05,1.13421e-05,-1.70031e-05,7.27573e-06,-1.92102e-06,0
-3.03714e-05,8.73477e-06,-7.6477e-05,-3.28908e-05,1.20178e-05,-1.50312e-05,6.9753e-06,-1.23491e-06,0
-3.0838e-05,9.32482e-06,-6.25377e-05,-2.0315e-05,1.05365e-05,-1.38131e-05,5.73182e-06,-2.22896e-06,0
-3.12215e-05,8.22633e-06,-5.22458e-05,-5.04996e-06,9.87698e-06,-1.40279e-05,1.79461e-06,-4.3045e-06,0
-3.19894e-05,7.29238e-06,-4.27917e-05,1.58265e-05,1.1814e-05,-1.37976e-05,-2.30955e-06,-5.39212e-06,0
-3.28584e-05,7.54682e-06,-3.15806e-05,3.47216e-05,1.40695e-05,-1.26808e-05,-3.03068e-06,-4.62868e-06,0
-3.35982e-05,7.87032e-06,-1.90076e-05,3.889e-05,1.49607e-05,-1.21552e-05,-2.5296e-06,-2.37054e-06,0
-3.36018e-05,6.70668e-06,-1.03221e-05,2.55786e-05,1.5638e-05,-1.14868e-05,-2.89273e-06,-1.10981e-06,0
-3.32569e-05,5.75769e-06,-7.24784e-06,2.50496e-06,1.53138e-05,-1.01759e-05,-2.34392e-06,-1.36687e-06,0
-3.36212e-05,6.56761e-06,-6.75926e-06,-1.47074e-05,1.396e-05,-9.79187e-06,1.48199e-06,-9.43646e-07,0
-3.41082e-05,9.54879e-06,-5.94339e-06,-1.85177e-05,1.33515e-05,-1.10302e-05,7.16128e-06,4.54401e-07,0
-3.35626e-05,1.37008e-05,-3.79869e-06,-1.39399e-05,1.4139e-05,-1.31089e-05,1.16882e-05,1.24561e-06,0
-3.32735e-05,1.54667e-05,-3.30138e-06,-7.06418e-06,1.46666e-05,-1.5167e-05,1.32969e-05,2.30976e-06,0
-3.25238e-05,1.61008e-05,-4.52339e-06,-5.57494e-06,1.37348e-05,-1.41355e-05,1.73305e-05,2.68452e-06,0
-3.16285e-05,1.61666e-05,-3.75283e-06,-1.24339e-05,1.26916e-05,-1.12252e-05,3.35432e-05,2.25529e-06,0
-3.07724e-05,1.47681e-05,-1.35086e-06,-2.26819e-05,1.24177e-05,-9.36903e-06,5.57527e-05,1.54097e-06,0
-2.91024e-05,1.35944e-05,-7.49091e-07,-3.2329e-05,1.29198e-05,-9.56045e-06,7.04376e-05,2.4549e-07,0
-2.81211e-05,1.15119e-05,-2.58569e-06,-3.69964e-05,1.23433e-05,-1.14812e-05,7.29587e-05,2.05827e-07,0
-2.93876e-05,9.43094e-06,-4.08766e-06,-3.29278e-05,1.2194e-05,-1.309e-05,6.46944e-05,8.16041e-07,0
-3.01021e-05,7.24277e-06,-4.39094e-06,-2.73959e-05,1.44781e-05,-1.36913e-05,4.97453e-05,9.48537e-07,0
-2.90246e-05,4.51358e-06,-3.31455e-06,-2.4726e-05,1.62424e-05,-1.21074e-05,3.09351e-05,-3.44261e-08,0
-2.86464e-05,2.78957e-06,-2.5274e-06,-2.43512e-05,1.55768e-05,-1.02854e-05,1.04201e-05,-3.34088e-07,0
-2.84045e-05,2.06471e-06,-2.45598e-06,-2.08838e-05,1.21915e-05,-9.5568e-06,-1.08309e-05,1.32133e-07,0
-2.85606e-05,2.52763e-06,-2.67414e-06,-9.26671e-06,9.6568e-06,-9.036e-06,-2.89547e-05,2.53743e-07,0
-2.8534e-05,4.19687e-06,-3.93672e-06,3.86529e-06,9.49147e-06,-7.35326e-06,-3.71663e-05,-5.72419e-07,0
-2.78331e-05,5.96405e-06,-5.63704e-06,8.0239e-06,9.73553e-06,-5.15121e-06,-3.30167e-05,-5.98012e-08,0
-2.74082e-05,7.87007e-06,-6.18115e-06,4.2603e-06,8.80913e-06,-4.96189e-06,-2.2701e-05,2.01021e-06,0
-2.84712e-05,1.06582e-05,-5.53152e-06,1.00077e-06,6.46834e-06,-5.46776e-06,-1.28511e-05,2.67356e-06,0
-3.02215e-05,1.41844e-05,-4.52751e-06,1.04253e-06,3.40345e-06,-4.88631e-06,-4.8387e-06,2.32835e-06,0
-3.12453e-05,1.76051e-05,-3.09796e-06,1.29382e-06,1.61184e-06,-3.80462e-06,1.66819e-06,1.26621e-06,0
-3.10028e-05,2.04624e-05,-1.98438e-06,-2.90955e-06,3.6741e-06,-3.3841e-06,7.85191e-06,-8.14781e-08,0
-3.01091e-05,2.26199e-05,-9.81256e-07,-1.14346e-05,7.05863e-06,-4.32822e-06,1.25701e-05,-1.02199e-06,0
-3.01572e-05,2.42283e-05,1.83445e-07,-2.17333e-05,8.00899e-06,-5.3532e-06,1.40655e-05,-1.1164e-06,0
-3.04122e-05,2.65725e-05,1.51042e-06,-3.12451e-05,8.28608e-06,-4.30987e-06,1.35963e-05,-1.54694e-06,0
-2.93445e-05,2.87469e-05,3.12723e-06,-4.06063e-05,1.03285e-05,-1.89671e-06,1.5399e-05,-1.66024e-06,0
-2.85551e-05,2.85679e-05,5.0633e-06,-5.04651e-05,1.16586e-05,-7.9065e-07,1.99216e-05,-5.98783e-07,0
-2.95143e-05,2.63114e-05,5.21716e-06,-5.99479e-05,1.2189e-05,-1.1022e-06,2.23524e-05,1.51156e-06,0
-2.93761e-05,2.53582e-05,4.33952e-06,-6.69243e-05,1.23358e-05,-1.48042e-06,1.96386e-05,3.4299e-06,0
-2.76884e-05,2.76318e-05,3.92838e-06,-6.31243e-05,1.26786e-05,-2.10906e-06,1.42339e-05,6.29871e-06,0
-2.76916e-05,2.98392e-05,3.95478e-06,-4.53855e-05,1.51974e-05,-1.65154e-06,9.66899e-06,9.7254e-06,0
-2.8549e-05,2.7859e-05,3.95038e-06,-2.23161e-05,1.73078e-05,5.21592e-07,7.67124e-06,1.11424e-05,0
-2.93127e-05,2.30112e-05,2.21047e-06,-2.9235e-06,1.62251e-05,2.40509e-06,7.20144e-06,9.48493e-06,0
-3.04459e-05,1.84089e-05,3.61371e-07,1.10496e-05,1.5513e-05,2.30204e-06,6.98191e-06,6.48915e-06,0
-2.89817e-05,1.418e-05,-7.17312e-07,1.72383e-05,1.81436e-05,1.25275e-06,6.59141e-06,5.32309e-06,0
-2.67133e-05,1.29977e-05,-2.38898e-06,1.27671e-05,2.18186e-05,5.95851e-07,7.70183e-06,4.94295e-06,0
-2.64669e-05,1.38018e-05,-4.74117e-06,4.86014e-06,2.34681e-05,6.07506e-07,1.19696e-05,5.54402e-06,0
-2.749e-05,1.33287e-05,-7.17346e-06,-5.71761e-06,2.08754e-05,4.85651e-07,1.83757e-05,5.83271e-06,0
-2.85365e-05,1.29021e-05,-8.96472e-06,-1.95291e-05,1.59668e-05,-8.29716e-07,2.2752e-05,6.06322e-06,0
-2.86671e-05,1.26149e-05,-1.09638e-05,-3.4435e-05,1.38944e-05,-2.25261e-06,2.41047e-05,5.96418e-06,0
-2.83619e-05,1.3083e-05,-1.32746e-05,-4.25776e-05,1.42672e-05,-2.69524e-06,2.49501e-05,4.8193e-06,0
-2.7905e-05,1.18718e-05,-1.54061e-05,-3.76583e-05,1.45905e-05,-3.4476e-06,2.52234e-05,2.47996e-06,0
-2.88567e-05,7.91405e-06,-1.64104e-05,-2.42104e-05,1.46185e-05,-5.05737e-06,2.53012e-05,-7.93959e-07,0
-3.08774e-05,4.44005e-06,-1.58653e-05,-8.37863e-06,1.54964e-05,-6.61292e-06,2.52221e-05,-2.00857e-06,0
-3.25419e-05,4.5059e-06,-1.51167e-05,6.44905e-06,1.67771e-05,-8.13909e-06,2.47307e-05,-1.64247e-06,0
-3.33674e-05,6.3919e-06,-1.44585e-05,2.02896e-05,1.65384e-05,-9.12839e-06,2.28505e-05,-2.2041e-06,0
-3.36175e-05,6.75924e-06,-1.39197e-05,2.98742e-05,1.5744e-05,-1.00615e-05,2.08249e-05,-3.94606e-06,0
-3.39125e-05,5.9542e-06,-1.27287e-05,3.58192e-05,1.53206e-05,-1.09665e-05,1.93756e-05,-4.98778e-06,0
-3.43084e-05,5.08741e-06,-1.16922e-05,3.96514e-05,1.54915e-05,-1.11718e-05,1.78045e-05,-4.82227e-06,0
-3.39942e-05,4.00421e-06,-1.20564e-05,4.2776e-05,1.51916e-05,-1.05466e-05,1.58129e-05,-3.94246e-06,0
-3.22238e-05,3.32495e-06,-1.33606e-05,4.35346e-05,1.37719e-05,-9.25897e-06,1.47426e-05,-3.24715e-06,0
-3.13294e-05,4.44355e-06,-1.41896e-05,4.04271e-05,1.21417e-05,-7.67556e-06,1.52643e-05,-3.14314e-06,0
-3.2507e-05,5.19764e-06,-1.35495e-05,3.39469e-05,1.18356e-05,-6.61862e-06,1.57199e-05,-3.28507e-06,0
-3.38732e-05,5.10871e-06,-1.27213e-05,2.5935e-05,1.34089e-05,-6.76922e-06,1.38168e-05,-3.68959e-06,0
-3.47392e-05,4.56788e-06,-1.33952e-05,1.64994e-05,1.40229e-05,-8.52811e-06,9.85738e-06,-5.38159e-06,0
-3.43869e-05,4.21175e-06,-1.38762e-05,3.22312e-06,1.24086e-05,-1.10048e-05,9.05401e-06,-8.95049e-06,0
-3.24656e-05,4.55332e-06,-1.18073e-05,-1.02977e-05,1.25079e-05,-1.24595e-05,1.2709e-05,-1.23886e-05,0
-3.08457e-05,5.40951e-06,-9.31865e-06,-1.57483e-05,1.57827e-05,-1.16546e-05,1.6381e-05,-1.24597e-05,0
-3.04773e-05,8.37592e-06,-7.3774e-06,-1.08659e-05,1.96831e-05,-8.75706e-06,1.8035e-05,-1.01683e-05,0
-2.95497e-05,1.11555e-05,-5.2152e-06,-2.92552e-06,2.12702e-05,-7.70687e-06,1.83375e-05,-8.77297e-06,0
-2.80984e-05,1.12393e-05,-4.06815e-06,1.96552e-06,2.16787e-05,-8.04671e-06,1.68615e-05,-8.7283e-06,0
-2.79323e-05,1.10011e-05,-4.51872e-06,7.78704e-06,2.23885e-05,-8.98662e-06,1.41908e-05,-8.61325e-06,0
-2.81841e-05,1.25115e-05,-4.09384e-06,1.48423e-05,2.28463e-05,-1.26308e-05,1.24958e-05,-9.22852e-06,0
-2.86519e-05,1.52888e-05,-1.60993e-06,2.22836e-05,2.37131e-05,-1.56889e-05,1.15875e-05,-1.05876e-05,0
-2.89048e-05,1.45068e-05,-1.39056e-06,3.01386e-05,2.51105e-05,-1.62069e-05,1.00924e-05,-1.09207e-05,0
-2.94648e-05,1.03335e-05,-3.39776e-06,3.4076e-05,2.70891e-05,-1.48484e-05,8.70397e-06,-1.03987e-05,0
-3.0514e-05,7.56902e-06,-5.49492e-06,3.24359e-05,2.9078e-05,-1.33506e-05,8.56847e-06,-1.01166e-05,0
-3.1536e-05,7.88325e-06,-6.26008e-06,2.56702e-05,2.902e-05,-1.24616e-05,1.00536e-05,-1.0015e-05,0
-3.22554e-05,8.87423e-06,-6.32968e-06,1.69411e-05,2.49959e-05,-1.27543e-05,1.22279e-05,-8.90321e-06,0
-3.31207e-05,9.26716e-06,-7.41791e-06,8.56969e-06,1.90089e-05,-1.4038e-05,1.37914e-05,-7.58291e-06,0
-3.36174e-05,1.04475e-05,-8.33857e-06,9.74843e-07,1.37008e-05,-1.61076e-05,1.52202e-05,-6.86141e-06,0
-3.30863e-05,1.116e-05,-8.60045e-06,-6.56935e-06,1.12625e-05,-1.81799e-05,1.71225e-05,-6.82365e-06,0
-3.25069e-05,9.90324e-06,-8.19145e-06,-1.2178e-05,1.22844e-05,-1.7932e-05,1.65286e-05,-6.24936e-06,0
-3.24644e-05,7.88409e-06,-7.47623e-06,-1.41451e-05,1.3573e-05,-1.67883e-05,1.41995e-05,-4.65568e-06,0
-3.33764e-05,7.961e-06,-7.08303e-06,-1.48388e-05,1.1723e-05,-1.5905e-05,1.36925e-05,-2.53921e-06,0
-3.32258e-05,1.0235e-05,-7.23619e-06,-1.92164e-05,7.96719e-06,-1.51574e-05,1.45409e-05,-1.00531e-06,0
-3.18954e-05,1.31337e-05,-6.52723e-06,-2.54314e-05,5.45289e-06,-1.48024e-05,1.42953e-05,-4.86216e-08,0
-3.14019e-05,1.47588e-05,-6.33891e-06,-2.99504e-05,4.32136e-06,-1.54011e-05,1.32275e-05,5.08948e-07,0
-3.27257e-05,1.38619e-05,-7.1338e-06,-3.23312e-05,3.51651e-06,-1.50881e-05,1.30601e-05,4.25094e-07,0
-3.35984e-05,1.0006e-05,-8.48153e-06,-3.256e-05,2.92708e-06,-1.32614e-05,1.35905e-05,-2.36558e-09,0
-3.21848e-05,5.79237e-06,-1.02283e-05,-3.12315e-05,2.06311e-06,-1.09888e-05,1.39261e-05,-9.1294e-07,0
-2.97856e-05,4.39942e-06,-1.09022e-05,-2.95288e-05,2.35027e-06,-1.04358e-05,1.35834e-05,-9.39134e-07,0
-2.8807e-05,5.32058e-06,-9.64888e-06,-2.75176e-05,4.86238e-06,-1.22857e-05,1.22772e-05,-5.7525e-08,0
-2.84811e-05,7.19763e-06,-8.19806e-06,-2.7647e-05,5.8321e-06,-1.35014e-05,1.02088e-05,-9.69246e-07,0
-2.6639e-05,1.0506e-05,-7.35235e-06,-2.75981e-05,4.12129e-06,-1.20387e-05,7.87853e-06,-2.5332e-06,0
-2.43472e-05,1.52045e-05,-6.28881e-06,-2.09898e-05,4.19789e-06,-1.02822e-05,5.51604e-06,-2.23433e-06,0
-2.3629e-05,1.84713e-05,-4.83085e-06,-1.11289e-05,9.79685e-06,-8.88982e-06,5.77725e-06,2.31398e-07,0
-2.52362e-05,1.91719e-05,-2.83532e-06,-2.53165e-06,1.56244e-05,-7.34358e-06,9.64937e-06,2.98412e-06,0
-2.68596e-05,1.80121e-05,-1.43609e-06,1.23392e-06,1.73919e-05,-6.48403e-06,1.29276e-05,4.52777e-06,0
-2.66647e-05,1.66431e-05,-1.22991e-06,5.11999e-07,1.67298e-05,-5.6378e-06,1.35896e-05,4.99671e-06,0
-2.64724e-05,1.78164e-05,-1.51797e-06,-8.07772e-07,1.44516e-05,-5.10864e-06,1.34872e-05,2.63252e-06,0
-2.68817e-05,1.90271e-05,-1.0521e-06,-7.94896e-07,1.12215e-05,-4.69523e-06,1.20107e-05,7.64286e-07,0
-2.71247e-05,1.92887e-05,-7.11322e-07,3.87192e-07,7.16693e-06,-5.54427e-06,9.91223e-06,1.04581e-06,0
-2.76869e-05,1.93278e-05,-1.07716e-07,2.59569e-06,4.73592e-06,-5.81563e-06,8.51342e-06,3.68361e-06,0
-2.79664e-05,1.80851e-05,1.58279e-06,5.07776e-06,6.21458e-06,-4.54998e-06,9.1382e-06,7.17844e-06,0
-2.67213e-05,1.44965e-05,2.37647e-06,5.51655e-06,1.11929e-05,-2.22744e-06,1.09205e-05,9.06978e-06,0
-2.56407e-05,1.05228e-05,4.51337e-07,3.89402e-06,1.47353e-05,1.41142e-07,1.16503e-05,9.04305e-06,0
-2.6777e-05,8.58408e-06,-2.65672e-06,1.2115e-06,1.21941e-05,-1.02902e-06,1.07676e-05,7.80295e-06,0
-2.8004e-05,6.98952e-06,-4.60433e-06,-1.53821e-06,5.97654e-06,-5.27893e-06,8.15119e-06,7.97889e-06,0
-2.80553e-05,5.28531e-06,-5.99637e-06,-4.46564e-06,1.72632e-06,-8.45825e-06,5.25776e-06,9.08967e-06,0
-2.86163e-05,4.90643e-06,-8.80429e-06,-7.35395e-06,6.27227e-07,-8.54216e-06,4.21385e-06,9.49213e-06,0
-3.06683e-05,9.8267e-06,-1.27398e-05,-9.06166e-06,9.37216e-07,-7.30315e-06,6.62507e-06,8.98001e-06,0
-3.33756e-05,2.18495e-05,-1.56493e-05,-7.96643e-06,3.31157e-06,-5.557e-06,1.12042e-05,8.1639e-06,0
-3.51864e-05,3.64504e-05,-1.69127e-05,-1.41209e-06,8.75161e-06,-4.06809e-06,1.44072e-05,7.59491e-06,0
-3.48541e-05,4.49268e-05,-1.63886e-05,8.68658e-06,1.57445e-05,-3.16755e-06,1.45178e-05,9.45148e-06,0
-3.31305e-05,4.38996e-05,-1.50305e-05,1.57015e-05,2.01589e-05,-1.96046e-06,1.25683e-05,1.20088e-05,0
-3.15216e-05,3.47462e-05,-1.3879e-05,1.57383e-05,2.02202e-05,-1.34227e-06,8.83518e-06,1.24376e-05,0
-3.10136e-05,1.97518e-05,-1.30056e-05,1.05594e-05,1.80476e-05,-2.33175e-06,5.72898e-06,1.00843e-05,0
-3.17798e-05,2.96188e-06,-1.23482e-05,4.3054e-06,1.56991e-05,-3.88069e-06,5.58844e-06,7.40908e-06,0
-3.30737e-05,-1.3078e-05,-1.12159e-05,1.49303e-06,1.37809e-05,-5.04722e-06,7.10909e-06,7.68172e-06,0
-3.4219e-05,-2.60233e-05,-9.79041e-06,1.2447e-06,1.54517e-05,-5.84522e-06,7.20822e-06,9.29021e-06,0
-3.53006e-05,-3.22976e-05,-8.50091e-06,1.56566e-06,2.00566e-05,-6.49184e-06,5.732e-06,1.12725e-05,0
-3.5511e-05,-3.15394e-05,-6.52583e-06,2.31536e-06,2.58767e-05,-7.54935e-06,5.38714e-06,1.38772e-05,0
-3.32341e-05,-2.56709e-05,-5.43361e-06,3.30017e-06,3.15481e-05,-9.30372e-06,6.18141e-06,1.38882e-05,0
-2.91354e-05,-1.65008e-05,-5.76792e-06,4.16693e-06,3.21567e-05,-1.09808e-05,5.20448e-06,1.07203e-05,0
-2.70933e-05,-6.77967e-06,-5.04661e-06,2.9591e-06,2.87695e-05,-1.15767e-05,5.41785e-06,8.47179e-06,0
-2.73464e-05,1.43757e-06,-5.04029e-06,-4.48685e-07,2.56027e-05,-1.22508e-05,8.6945e-06,8.34074e-06,0
-2.81032e-05,9.08218e-06,-7.07375e-06,-3.33113e-06,2.42746e-05,-1.34875e-05,1.15095e-05,7.4112e-06,0
-2.87675e-05,1.31817e-05,-1.0171e-05,-3.86123e-06,2.30181e-05,-1.4308e-05,1.40612e-05,5.34885e-06,0
-2.85188e-05,1.24542e-05,-1.17848e-05,-4.66533e-06,2.00664e-05,-1.4852e-05,1.58625e-05,4.65845e-06,0
-2.95432e-05,1.10356e-05,-1.07895e-05,-4.90987e-06,1.69353e-05,-1.47363e-05,1.69499e-05,6.36558e-06,0
-3.14515e-05,1.2361e-05,-8.48995e-06,-3.24036e-06,1.5473e-05,-1.44057e-05,1.7607e-05,8.40104e-06,0
-3.24264e-05,1.5985e-05,-7.13209e-06,-1.92254e-06,1.41491e-05,-1.45303e-05,1.68989e-05,8.33714e-06,0
-3.10831e-05,1.86401e-05,-7.28582e-06,-1.64919e-06,1.27298e-05,-1.42068e-05,1.51391e-05,8.21999e-06,0
-2.89207e-05,1.99415e-05,-7.01273e-06,-2.7031e-06,1.19761e-05,-1.29775e-05,1.36085e-05,9.17126e-06,0
-2.8626e-05,1.96449e-05,-6.63766e-06,-3.96101e-06,1.19811e-05,-1.19709e-05,1.26314e-05,9.75833e-06,0
-3.05123e-05,1.92128e-05,-5.92778e-06,-4.56539e-06,1.25331e-05,-1.11334e-05,1.19638e-05,9.11562e-06,0
-3.26068e-05,1.94313e-05,-5.26214e-06,-4.97458e-06,1.13842e-05,-9.99514e-06,1.25841e-05,8.10823e-06,0
-3.29525e-05,2.06061e-05,-4.54748e-06,-4.8678e-06,9.06367e-06,-9.10087e-06,1.37577e-05,7.79261e-06,0
-3.29548e-05,2.14057e-05,-4.10175e-06,-3.64118e-06,8.12836e-06,-8.87149e-06,1.52502e-05,7.56818e-06,0
-3.33399e-05,2.20002e-05,-4.10939e-06,-2.62717e-06,8.65804e-06,-9.11917e-06,1.67532e-05,5.78509e-06,0
-3.36166e-05,2.33205e-05,-4.73594e-06,-3.60292e-06,7.72522e-06,-8.36927e-06,1.71105e-05,4.25566e-06,0
-3.41131e-05,2.49056e-05,-5.16334e-06,-4.54138e-06,6.4249e-06,-6.50678e-06,1.65148e-05,4.80987e-06,0
-3.43963e-05,2.63856e-05,-4.99323e-06,-4.16549e-06,6.01325e-06,-5.73975e-06,1.54633e-05,5.09419e-06,0
-3.25895e-05,2.74271e-05,-5.56569e-06,-2.8966e-06,5.74804e-06,-6.86692e-06,1.38195e-05,4.88797e-06,0
-3.04983e-05,2.6751e-05,-6.32553e-06,9.09018e-07,7.1953e-06,-7.68626e-06,1.22338e-05,4.42197e-06,0
-3.04375e-05,2.52819e-05,-7.44825e-06,6.57783e-06,1.08345e-05,-8.44413e-06,1.36328e-05,3.7299e-06,0
-3.1915e-05,2.48077e-05,-9.42839e-06,8.15927e-06,1.43642e-05,-8.98401e-06,1.58749e-05,2.71388e-06,0
-3.26242e-05,2.50121e-05,-1.08753e-05,3.07231e-06,1.45e-05,-9.12512e-06,1.58574e-05,2.84128e-07,0
-3.21031e-05,2.48992e-05,-1.02531e-05,-4.66346e-06,1.13469e-05,-9.86119e-06,1.32514e-05,-2.69407e-06,0
-3.17606e-05,2.37072e-05,-8.7429e-06,-9.79036e-06,9.76899e-06,-1.04668e-05,1.26259e-05,-3.67495e-06,0
-3.27181e-05,2.493e-05,-8.59171e-06,-1.25489e-05,9.78983e-06,-1.05066e-05,1.4456e-05,-1.11612e-06,0
-3.34896e-05,2.73834e-05,-1.01633e-05,-1.99002e-05,8.0845e-06,-9.49258e-06,1.38499e-05,1.23291e-06,0
-3.12033e-05,2.98312e-05,-1.16324e-05,-2.8076e-05,7.15758e-06,-9.03041e-06,1.32856e-05,4.60982e-07,0
-2.88226e-05,3.02897e-05,-1.1729e-05,-2.92183e-05,9.40681e-06,-8.56098e-06,1.22723e-05,-5.89394e-07,0
-2.79437e-05,2.91383e-05,-1.06735e-05,-2.74191e-05,1.31964e-05,-7.0444e-06,1.18311e-05,-7.28068e-07,0
-2.70354e-05,2.86309e-05,-1.00838e-05,-2.72647e-05,1.48352e-05,-6.31142e-06,1.18988e-05,-1.38996e-06,0
-2.64743e-05,2.73999e-05,-1.15447e-05,-2.75536e-05,1.42331e-05,-6.59984e-06,1.14689e-05,-2.1839e-06,0
-2.64437e-05,2.63283e-05,-1.37831e-05,-2.69703e-05,1.21712e-05,-6.63776e-06,1.22969e-05,-3.80846e-06,0
-2.644e-05,2.4666e-05,-1.4944e-05,-2.35566e-05,1.076e-05,-5.39123e-06,1.40407e-05,-5.98261e-06,0
-2.6506e-05,2.29419e-05,-1.57782e-05,-1.30949e-05,1.09423e-05,-4.19179e-06,1.60617e-05,-7.42979e-06,0
-2.69256e-05,2.11403e-05,-1.61299e-05,4.50112e-06,1.03002e-05,-4.47309e-06,1.7907e-05,-8.77428e-06,0
-2.77524e-05,1.91491e-05,-1.56608e-05,2.02277e-05,8.41686e-06,-5.55199e-06,1.92369e-05,-1.03176e-05,0
-2.93769e-05,1.74351e-05,-1.52844e-05,2.63381e-05,7.59947e-06,-6.30331e-06,1.84855e-05,-1.12858e-05,0
-3.13437e-05,1.7194e-05,-1.5143e-05,2.11339e-05,8.82269e-06,-7.30453e-06,1.67528e-05,-1.02942e-05,0
-3.22483e-05,1.84386e-05,-1.40696e-05,8.05521e-06,1.00676e-05,-8.5135e-06,1.57253e-05,-8.41458e-06,0
-3.11894e-05,1.99135e-05,-1.21645e-05,-3.56183e-06,1.05926e-05,-9.05902e-06,1.65308e-05,-8.15052e-06,0
-2.9317e-05,2.1422e-05,-1.20773e-05,-1.05336e-05,1.05575e-05,-9.31572e-06,1.79473e-05,-1.07607e-05,0
-2.8105e-05,2.26739e-05,-1.37693e-05,-1.62518e-05,1.03467e-05,-8.74692e-06,1.79067e-05,-1.28953e-05,0
-2.83236e-05,2.40126e-05,-1.47956e-05,-2.06683e-05,9.39375e-06,-7.13661e-06,1.64261e-05,-1.2629e-05,0
-2.97753e-05,2.44086e-05,-1.5051e-05,-1.97006e-05,8.66141e-06,-6.82967e-06,1.57737e-05,-1.13933e-05,0
-3.05716e-05,2.38436e-05,-1.56953e-05,-1.66141e-05,9.64363e-06,-7.78596e-06,1.57562e-05,-1.03587e-05,0
-2.97538e-05,2.3448e-05,-1.65248e-05,-1.94696e-05,1.10783e-05,-7.45548e-06,1.40668e-05,-9.06407e-06,0
-2.80711e-05,2.3235e-05,-1.63949e-05,-2.72527e-05,1.04411e-05,-6.19555e-06,9.19028e-06,-6.42849e-06,0
-2.81267e-05,2.36232e-05,-1.49751e-05,-3.07532e-05,8.91987e-06,-6.18552e-06,5.06433e-06,-4.3697e-06,0
-3.00421e-05,2.84593e-05,-1.31215e-05,-2.53377e-05,7.98388e-06,-7.86738e-06,6.64234e-06,-4.8013e-06,0
-3.21303e-05,3.61193e-05,-1.05785e-05,-1.65637e-05,8.63099e-06,-9.98827e-06,1.06585e-05,-6.17846e-06,0
-3.28678e-05,3.80713e-05,-9.70298e-06,-1.23766e-05,8.8452e-06,-1.08331e-05,1.29953e-05,-6.89829e-06,0
-3.13489e-05,3.31816e-05,-1.18429e-05,-1.27869e-05,7.20936e-06,-1.05296e-05,1.28469e-05,-7.13627e-06,0
-2.99579e-05,2.70796e-05,-1.29021e-05,-1.39592e-05,6.66049e-06,-1.12237e-05,1.2341e-05,-6.6215e-06,0
-3.00117e-05,2.33268e-05,-1.17013e-05,-1.36673e-05,5.58484e-06,-1.20629e-05,1.34043e-05,-7.00007e-06,0
-3.04053e-05,2.20325e-05,-1.12406e-05,-1.06346e-05,5.08743e-06,-1.21656e-05,1.52185e-05,-7.52208e-06,0
-2.95942e-05,2.04219e-05,-1.21539e-05,-6.93677e-06,5.83131e-06,-1.23767e-05,1.4986e-05,-5.17426e-06,0
-2.80306e-05,1.68568e-05,-1.16111e-05,-3.84853e-06,7.34195e-06,-1.26409e-05,1.26892e-05,-1.19277e-06,0
-2.65311e-05,1.10813e-05,-9.44993e-06,-9.53571e-07,1.01058e-05,-1.20743e-05,1.08942e-05,5.25653e-07,0
-2.47132e-05,1.98205e-06,-7.05878e-06,4.44234e-06,1.00938e-05,-1.14528e-05,1.22449e-05,-5.49022e-07,0
-2.40386e-05,-7.21866e-06,-6.33938e-06,1.81634e-05,6.97861e-06,-1.1253e-05,1.43792e-05,-1.98782e-06,0
-2.7074e-05,-1.19029e-05,-7.41917e-06,3.74259e-05,5.26897e-06,-1.1071e-05,1.27881e-05,-1.93648e-06,0
-3.0726e-05,-1.26297e-05,-8.55833e-06,4.7922e-05,6.37202e-06,-1.04676e-05,9.19277e-06,-1.33287e-07,0
-3.10846e-05,-1.11143e-05,-8.33589e-06,4.37453e-05,9.2439e-06,-1.0028e-05,7.34388e-06,2.3467e-06,0
-2.96349e-05,-8.15362e-06,-6.33376e-06,3.17099e-05,1.25941e-05,-1.07788e-05,7.71563e-06,3.5207e-06,0
-2.8973e-05,-6.18212e-06,-5.66328e-06,1.94995e-05,1.41155e-05,-1.18988e-05,8.85758e-06,3.15781e-06,0
-2.9491e-05,-7.24391e-06,-6.47611e-06,8.51835e-06,1.35226e-05,-1.24261e-05,7.47989e-06,1.89457e-06,0
-3.0096e-05,-9.25463e-06,-5.99941e-06,-1.98472e-06,1.25251e-05,-1.21554e-05,1.87128e-06,-2.99098e-07,0
-3.00847e-05,-1.00094e-05,-2.206e-06,-1.06793e-05,1.17402e-05,-1.25464e-05,-4.17047e-06,-2.44437e-06,0
-2.87467e-05,-9.3745e-06,3.62891e-06,-1.59513e-05,9.90684e-06,-1.3482e-05,-6.24556e-06,-3.1582e-06,0
-2.68048e-05,-7.88787e-06,7.3628e-06,-2.02592e-05,7.23037e-06,-1.4014e-05,-3.1517e-06,-2.9817e-06,0
-2.55227e-05,-5.82963e-06,7.11095e-06,-2.85111e-05,4.63453e-06,-1.41642e-05,3.85073e-06,-3.47011e-06,0
-2.625e-05,-4.67698e-06,5.80834e-06,-4.17643e-05,2.4216e-06,-1.39767e-05,1.32814e-05,-3.36614e-06,0
-2.83354e-05,-6.52926e-06,5.16026e-06,-5.32033e-05,1.27435e-06,-1.35674e-05,2.25432e-05,-2.21257e-06,0
-2.94694e-05,-8.58839e-06,4.10946e-06,-5.49557e-05,1.1503e-06,-1.25221e-05,3.12468e-05,-1.35051e-06,0
-2.76317e-05,-9.469e-06,1.11151e-06,-4.98719e-05,4.00096e-07,-1.12071e-05,3.84473e-05,-1.31503e-06,0
-2.56499e-05,-9.64646e-06,-2.36049e-06,-4.10493e-05,-1.64448e-07,-1.05257e-05,4.0831e-05,-1.06867e-06,0
-2.54294e-05,-7.45519e-06,-6.20097e-06,-3.1813e-05,2.17551e-06,-9.22455e-06,3.91096e-05,-4.09523e-07,0
-2.65975e-05,-4.48636e-06,-1.0319e-05,-2.6228e-05,5.69479e-06,-8.79577e-06,3.45581e-05,3.80342e-07,0
-2.80578e-05,-2.03949e-06,-1.053e-05,-2.18895e-05,8.00326e-06,-1.05063e-05,2.85771e-05,-5.91216e-08,0
-2.81887e-05,-2.98643e-06,-9.09486e-06,-1.88992e-05,9.59952e-06,-1.15681e-05,2.33723e-05,-1.95416e-06,0
-2.72964e-05,-8.83541e-06,-8.74418e-06,-1.65683e-05,1.17517e-05,-1.12937e-05,1.99547e-05,-2.33147e-06,0
-2.70168e-05,-1.46206e-05,-9.31537e-06,-1.21772e-05,1.32372e-05,-1.04689e-05,1.77727e-05,-3.05925e-07,0
-2.87205e-05,-2.01444e-05,-1.11953e-05,-7.33572e-06,1.41608e-05,-9.86899e-06,1.76346e-05,2.47008e-06,0
-2.81741e-05,-2.37462e-05,-1.44853e-05,-3.06307e-06,1.51885e-05,-9.8554e-06,1.88041e-05,3.44337e-06,0
-2.69594e-05,-2.2637e-05,-1.58629e-05,-5.46636e-07,1.7178e-05,-8.44294e-06,1.74478e-05,3.19356e-06,0
-2.72606e-05,-1.70998e-05,-1.42593e-05,-1.43382e-06,1.93248e-05,-7.10289e-06,1.52842e-05,3.77814e-06,0
-2.96904e-05,-1.06394e-05,-1.15724e-05,-8.24623e-06,2.04548e-05,-7.79345e-06,1.46805e-05,4.28949e-06,0
-3.22896e-05,-8.47913e-06,-1.04567e-05,-1.61524e-05,2.06336e-05,-9.68792e-06,1.44679e-05,4.76498e-06,0
-3.3303e-05,-9.11393e-06,-1.1374e-05,-1.56079e-05,2.01604e-05,-1.11042e-05,1.32319e-05,5.52307e-06,0
-3.3522e-05,-8.0678e-06,-1.19255e-05,1.02797e-06,2.11337e-05,-1.11378e-05,1.1361e-05,5.29396e-06,0
-3.3207e-05,-4.65388e-06,-1.11116e-05,2.72081e-05,2.17057e-05,-1.07837e-05,8.36028e-06,4.62726e-06,0
-3.34889e-05,-9.27692e-07,-9.91132e-06,4.07308e-05,1.99416e-05,-9.86558e-06,4.59853e-06,4.8509e-06,0
-3.32093e-05,2.33481e-06,-9.06844e-06,3.31854e-05,1.69225e-05,-8.99751e-06,1.55217e-06,5.65782e-06,0
-3.39149e-05,4.72474e-06,-7.72182e-06,1.58172e-05,1.56255e-05,-8.04416e-06,-6.85061e-07,6.67304e-06,0
-3.54891e-05,6.97126e-06,-6.0145e-06,1.6375e-06,1.65485e-05,-6.82817e-06,-2.99236e-06,7.01137e-06,0
-3.59546e-05,9.78426e-06,-3.95657e-06,-6.22563e-06,1.79637e-05,-4.80196e-06,-5.18498e-06,6.0986e-06,0
-3.43307e-05,1.27719e-05,-3.39956e-06,-9.1514e-06,1.8994e-05,-2.19865e-06,-5.02012e-06,4.79725e-06,0
-3.23451e-05,1.51946e-05,-5.41382e-06,-7.83212e-06,1.86385e-05,-1.24375e-06,-2.05221e-06,3.82154e-06,0
-3.10209e-05,1.60067e-05,-7.83742e-06,2.6859e-06,1.6529e-05,-2.00748e-06,3.01507e-06,4.70275e-06,0
-2.98523e-05,1.56723e-05,-7.59518e-06,2.24306e-05,1.49807e-05,-2.23407e-06,7.02425e-06,5.69221e-06,0
-2.85892e-05,1.52522e-05,-4.05921e-06,3.97353e-05,1.60544e-05,-2.57803e-06,9.15231e-06,3.17567e-06,0
-2.97265e-05,1.40572e-05,-2.72418e-07,4.25422e-05,1.91705e-05,-3.79704e-06,1.05324e-05,-1.04031e-06,0
-3.22398e-05,1.38235e-05,2.24849e-07,3.09431e-05,2.06124e-05,-5.09773e-06,1.06142e-05,-2.33288e-06,0
-3.33353e-05,1.32033e-05,-1.254e-06,1.37337e-05,1.98205e-05,-5.84157e-06,9.44448e-06,1.21692e-06,0
-3.26715e-05,1.04605e-05,-4.47051e-06,-3.50355e-06,1.88738e-05,-6.42224e-06,9.06563e-06,5.64304e-06,0
-3.22059e-05,8.72433e-06,-8.02855e-06,-2.00361e-05,1.6835e-05,-7.51212e-06,9.35764e-06,6.84752e-06,0
-3.20609e-05,8.53577e-06,-9.6938e-06,-3.03241e-05,1.49608e-05,-7.19091e-06,9.01845e-06,5.87378e-06,0
-3.01325e-05,1.1144e-05,-8.42e-06,-2.97485e-05,1.60323e-05,-5.80094e-06,9.69039e-06,4.02342e-06,0
-2.88794e-05,1.74978e-05,-5.1336e-06,-2.15404e-05,1.90698e-05,-6.29663e-06,9.40439e-06,1.74512e-06,0
-2.80522e-05,2.44769e-05,-3.02993e-06,-1.08252e-05,1.86835e-05,-7.79698e-06,7.12921e-06,2.40554e-07,0
-2.75487e-05,3.13678e-05,-3.27892e-06,-3.62887e-06,1.64632e-05,-8.53572e-06,4.48614e-06,8.32223e-07,0
-2.70539e-05,3.55117e-05,-6.48719e-06,3.67351e-07,1.66546e-05,-8.8542e-06,9.33022e-07,2.47127e-06,0
-2.65648e-05,3.41422e-05,-1.08902e-05,2.10039e-06,1.78061e-05,-9.42385e-06,-5.71556e-06,2.85666e-06,0
-2.7042e-05,2.89136e-05,-1.26694e-05,2.51344e-06,1.78574e-05,-9.78601e-06,-1.52979e-05,3.21366e-07,0
-2.85309e-05,2.26779e-05,-1.06274e-05,3.1773e-06,1.70489e-05,-9.75813e-06,-2.27489e-05,-2.80547e-06,0
-2.90782e-05,1.97341e-05,-8.1032e-06,4.46722e-06,1.51555e-05,-1.04967e-05,-2.23665e-05,-2.91723e-06,0
-2.83357e-05,1.86079e-05,-5.58556e-06,5.63859e-06,1.24582e-05,-1.15149e-05,-1.38631e-05,-1.44916e-06,0
-2.80191e-05,1.6213e-05,-2.72604e-06,6.7091e-06,1.02904e-05,-1.31488e-05,-3.07914e-06,-1.21976e-06,0
-2.88339e-05,1.22493e-05,-3.28217e-07,7.00333e-06,8.38712e-06,-1.49533e-05,6.83154e-06,-2.078e-06,0
-3.07869e-05,9.88675e-06,9.27559e-07,4.70409e-06,7.41244e-06,-1.67933e-05,1.65423e-05,-2.05586e-06,0
-3.27117e-05,9.97348e-06,1.83786e-06,1.45808e-06,8.89475e-06,-1.81222e-05,2.49049e-05,-3.44836e-07,0
-3.37295e-05,1.10724e-05,2.73016e-06,3.81583e-07,1.1407e-05,-1.83436e-05,3.01614e-05,1.95381e-06,0
-3.37427e-05,1.37426e-05,2.70649e-06,1.30272e-06,1.33817e-05,-1.77165e-05,3.30976e-05,2.51916e-06,0
-3.39831e-05,1.8443e-05,1.36659e-06,-1.21244e-07,1.52664e-05,-1.76501e-05,3.38384e-05,2.03222e-06,0
-3.48275e-05,2.26718e-05,-5.0521e-07,-5.77023e-06,1.51832e-05,-1.81166e-05,3.18586e-05,2.77917e-06,0
-3.47255e-05,2.36887e-05,-2.06251e-06,-1.26106e-05,1.1827e-05,-1.78588e-05,2.81557e-05,4.49169e-06,0
-3.22981e-05,2.36941e-05,-4.0499e-06,-1.57755e-05,7.10148e-06,-1.74146e-05,2.52649e-05,5.19485e-06,0
-3.0364e-05,2.39174e-05,-7.00286e-06,-1.60042e-05,4.46371e-06,-1.74466e-05,2.5647e-05,4.67544e-06,0
-3.01833e-05,2.35992e-05,-1.10343e-05,-1.66489e-05,3.34555e-06,-1.71066e-05,2.77924e-05,2.71832e-06,0
-3.14251e-05,2.32669e-05,-1.4542e-05,-1.85292e-05,3.06344e-06,-1.62349e-05,2.8968e-05,4.21326e-07,0
-3.27804e-05,2.44764e-05,-1.57806e-05,-1.75118e-05,6.5681e-06,-1.46745e-05,3.03201e-05,9.45537e-07,0
-3.32232e-05,2.5227e-05,-1.4851e-05,-8.61319e-06,1.24774e-05,-1.21042e-05,2.91564e-05,2.67788e-06,0
-3.3767e-05,2.42356e-05,-1.41975e-05,3.76306e-06,1.6962e-05,-1.07035e-05,2.49463e-05,4.7042e-06,0
-3.3577e-05,2.32918e-05,-1.57991e-05,1.1986e-05,1.80794e-05,-1.21118e-05,2.09922e-05,6.28251e-06,0
-3.1827e-05,2.32686e-05,-1.73847e-05,1.63887e-05,1.77149e-05,-1.44497e-05,1.68471e-05,5.51494e-06,0
-2.88048e-05,2.32449e-05,-1.81736e-05,1.93665e-05,2.07674e-05,-1.34988e-05,1.35747e-05,4.89884e-06,0
-2.84802e-05,2.19597e-05,-1.9289e-05,1.77756e-05,2.68355e-05,-1.25961e-05,1.10378e-05,6.39423e-06,0
-2.97174e-05,1.99915e-05,-2.10771e-05,1.07903e-05,3.09128e-05,-1.22443e-05,1.09754e-05,7.96672e-06,0
-3.0192e-05,1.7821e-05,-2.27911e-05,2.23354e-06,2.88092e-05,-1.07746e-05,1.19972e-05,7.50667e-06,0
-3.02582e-05,1.45968e-05,-2.16631e-05,-5.46205e-06,2.31758e-05,-8.49366e-06,1.26617e-05,7.11221e-06,0
-3.0066e-05,1.21619e-05,-1.84297e-05,-1.07538e-05,1.93135e-05,-6.36038e-06,1.83301e-05,7.85336e-06,0
-3.07577e-05,1.1769e-05,-1.5442e-05,-1.0714e-05,1.93898e-05,-5.40848e-06,3.36336e-05,8.87705e-06,0
-3.14121e-05,1.34949e-05,-1.41145e-05,-7.94279e-06,2.23163e-05,-5.46251e-06,5.28139e-05,8.73455e-06,0
-3.11862e-05,1.75112e-05,-1.37922e-05,-8.75585e-06,2.3179e-05,-6.91547e-06,6.36462e-05,6.73764e-06,0
-3.0177e-05,2.0769e-05,-1.33325e-05,-1.33377e-05,1.95156e-05,-8.34354e-06,6.06109e-05,4.59285e-06,0
-3.04987e-05,2.15536e-05,-1.20926e-05,-1.71417e-05,1.27257e-05,-8.72943e-06,4.76265e-05,2.97835e-06,0
-3.23203e-05,2.18688e-05,-9.30803e-06,-1.7306e-05,7.10908e-06,-7.72872e-06,3.15825e-05,1.56948e-06,0
-3.42057e-05,2.30158e-05,-5.77868e-06,-1.62356e-05,5.3456e-06,-5.8183e-06,1.42932e-05,5.8209e-07,0
-3.46739e-05,2.33326e-05,-3.77431e-06,-1.69142e-05,6.3355e-06,-4.38529e-06,-2.84972e-06,7.28934e-07,0
-3.43327e-05,2.35009e-05,-4.25438e-06,-1.78226e-05,7.30704e-06,-4.58109e-06,-1.77948e-05,1.2932e-06,0
-3.41733e-05,2.499e-05,-4.96298e-06,-1.65788e-05,7.33069e-06,-4.71353e-06,-2.88867e-05,2.32592e-06,0
-3.43486e-05,2.63943e-05,-5.15282e-06,-1.43399e-05,7.36753e-06,-5.1106e-06,-3.35822e-05,3.08194e-06,0
-3.42588e-05,2.55301e-05,-5.31721e-06,-1.22298e-05,6.59981e-06,-6.36634e-06,-3.29714e-05,1.96291e-06,0
-3.29857e-05,2.35802e-05,-5.597e-06,-1.0274e-05,3.92821e-06,-8.0306e-06,-3.12922e-05,6.69856e-07,0
-3.1566e-05,2.4308e-05,-5.81244e-06,-9.28952e-06,5.5798e-08,-7.70445e-06,-2.72984e-05,1.48716e-06,0
-3.18182e-05,2.66156e-05,-7.39808e-06,-9.68809e-06,-3.21801e-06,-5.61335e-06,-1.95809e-05,3.16281e-06,0
-3.35895e-05,2.79397e-05,-1.07992e-05,-1.03715e-05,-2.58652e-06,-3.99182e-06,-1.13327e-05,4.40252e-06,0
-3.39944e-05,2.76937e-05,-1.37722e-05,-1.26201e-05,1.42551e-06,-4.16101e-06,-6.13217e-06,4.36287e-06,0
-3.26507e-05,2.56847e-05,-1.51436e-05,-1.53136e-05,4.15867e-06,-5.58199e-06,-4.08793e-06,2.09004e-06,0
-3.04723e-05,2.4264e-05,-1.50514e-05,-1.35665e-05,5.07329e-06,-7.40288e-06,-2.61135e-06,8.05345e-07,0
-2.79299e-05,2.18726e-05,-1.47738e-05,-9.18865e-06,6.21564e-06,-9.57699e-06,-9.14528e-07,-4.58939e-08,0
-2.6031e-05,1.6427e-05,-1.41847e-05,-6.10383e-06,8.17971e-06,-1.09948e-05,3.23149e-07,-1.41763e-06,0
-2.60896e-05,1.28407e-05,-1.30887e-05,-5.0294e-06,1.06298e-05,-1.14147e-05,2.06124e-06,-4.43687e-07,0
-2.78222e-05,1.2485e-05,-1.23713e-05,-5.50074e-06,1.29354e-05,-1.06152e-05,4.54491e-06,2.10731e-06,0
-2.9336e-05,1.21924e-05,-1.24816e-05,-6.76033e-06,1.37486e-05,-1.01131e-05,6.13288e-06,4.56437e-06,0
-2.9902e-05,1.01388e-05,-1.1619e-05,-6.66782e-06,1.19065e-05,-9.96652e-06,7.07654e-06,5.21115e-06,0
-3.02424e-05,6.32206e-06,-1.07482e-05,-3.8579e-06,9.71075e-06,-1.01891e-05,6.82618e-06,3.91204e-06,0
-3.11573e-05,3.85429e-06,-1.0786e-05,7.48428e-07,1.01453e-05,-9.88726e-06,5.67484e-06,1.66938e-06,0
-3.24113e-05,3.64463e-06,-1.0713e-05,5.03041e-06,1.29385e-05,-8.82e-06,4.59832e-06,-7.18348e-08,0
-3.29638e-05,2.98405e-06,-9.6224e-06,7.71553e-06,1.63674e-05,-7.52796e-06,5.35699e-06,-9.88759e-07,0
-3.31426e-05,1.91511e-06,-7.43363e-06,8.66265e-06,1.7481e-05,-6.94235e-06,8.1085e-06,-1.54231e-06,0
-3.36917e-05,2.42881e-06,-6.53583e-06,7.63563e-06,1.65529e-05,-7.25925e-06,1.17647e-05,-2.11487e-06,0
-3.48044e-05,5.13802e-06,-6.80884e-06,5.36124e-06,1.4965e-05,-7.76873e-06,1.53734e-05,-2.19442e-06,0
-3.52904e-05,8.19244e-06,-6.44456e-06,2.89803e-06,1.3862e-05,-8.0041e-06,1.79854e-05,-1.83497e-06,0
-3.46948e-05,9.9475e-06,-5.13853e-06,3.0517e-07,1.34381e-05,-7.47995e-06,1.93356e-05,-1.96365e-06,0
-3.43907e-05,1.065e-05,-4.47642e-06,-2.48495e-06,1.13099e-05,-7.26391e-06,1.96531e-05,-2.1423e-06,0
-3.42996e-05,1.07336e-05,-4.27342e-06,-5.267e-06,7.56753e-06,-7.65292e-06,2.03786e-05,-2.25977e-06,0
-3.36235e-05,1.03466e-05,-4.9298e-06,-9.78047e-06,5.92712e-06,-8.29644e-06,2.12145e-05,-2.58489e-06,0
-3.24209e-05,1.05422e-05,-6.70456e-06,-1.45974e-05,7.38913e-06,-7.72074e-06,2.12532e-05,-3.54057e-06,0
-3.17794e-05,1.17413e-05,-8.70568e-06,-1.50776e-05,8.31995e-06,-7.05816e-06,2.14393e-05,-3.28956e-06,0
-3.14757e-05,1.29805e-05,-1.094e-05,-1.14501e-05,7.40119e-06,-8.39922e-06,2.27606e-05,-2.14e-06,0
-3.13514e-05,1.33131e-05,-1.31393e-05,-5.54071e-06,4.71225e-06,-1.07897e-05,2.42982e-05,-1.23975e-06,0
-3.1682e-05,1.27673e-05,-1.32941e-05,9.74239e-07,2.54695e-06,-1.21041e-05,2.55267e-05,2.89107e-07,0
-3.11664e-05,1.09621e-05,-1.21838e-05,3.87894e-06,4.71548e-06,-1.02919e-05,2.65469e-05,8.26051e-07,0
-2.95889e-05,8.76438e-06,-1.26946e-05,2.75293e-06,9.70132e-06,-8.22112e-06,2.67993e-05,-1.36385e-06,0
-2.95997e-05,1.06645e-05,-1.27066e-05,2.59245e-06,1.35632e-05,-9.80509e-06,2.47605e-05,-1.27613e-06,0
-3.13396e-05,1.517e-05,-1.13351e-05,4.56516e-06,1.81487e-05,-1.20322e-05,2.25623e-05,1.37705e-06,0
-3.08868e-05,1.80442e-05,-9.54555e-06,4.36176e-06,2.3959e-05,-1.1314e-05,2.11877e-05,1.37742e-06,0
-2.92163e-05,1.7715e-05,-7.36726e-06,-2.43734e-06,2.75683e-05,-8.40404e-06,1.96298e-05,-5.65717e-07,0
-2.93992e-05,1.64463e-05,-6.48926e-06,-1.48083e-05,2.78379e-05,-5.80211e-06,1.9706e-05,-1.2059e-06,0
-3.04366e-05,1.72906e-05,-4.98935e-06,-2.32654e-05,2.35591e-05,-6.00069e-06,2.00653e-05,-9.9056e-07,0
-3.05242e-05,2.01904e-05,-3.54086e-06,-2.29831e-05,1.78187e-05,-8.91564e-06,1.9499e-05,-1.88527e-06,0
-3.07307e-05,2.24146e-05,-3.89622e-06,-1.81809e-05,1.36332e-05,-1.17031e-05,1.8159e-05,-2.48069e-07,0
-3.05706e-05,2.27487e-05,-5.5648e-06,-1.34451e-05,1.23481e-05,-1.23392e-05,1.82779e-05,2.9809e-06,0
-2.94374e-05,2.37647e-05,-6.80151e-06,-9.72051e-06,1.43986e-05,-1.12741e-05,2.73691e-05,4.00187e-06,0
-2.90847e-05,2.41525e-05,-7.21797e-06,-5.98015e-06,1.733e-05,-1.0726e-05,4.34413e-05,2.90253e-06,0
-2.86983e-05,2.2416e-05,-7.49134e-06,-2.10655e-06,1.87603e-05,-1.10749e-05,5.50943e-05,1.50269e-06,0
-2.83929e-05,1.88482e-05,-5.70986e-06,1.77328e-06,1.79613e-05,-1.1732e-05,5.62462e-05,1.34885e-06,0
-2.86109e-05,1.75742e-05,-3.79045e-06,5.25934e-06,1.60476e-05,-1.3138e-05,4.7773e-05,3.61762e-07,0
-2.90334e-05,2.02222e-05,-3.43643e-06,6.72689e-06,1.29632e-05,-1.45929e-05,3.24373e-05,-2.21951e-06,0
-2.88787e-05,2.25837e-05,-4.43298e-06,5.69783e-06,1.02378e-05,-1.53243e-05,1.34115e-05,-4.0632e-06,0
-2.89031e-05,2.2223e-05,-5.33737e-06,3.41678e-06,9.20988e-06,-1.54899e-05,-4.93492e-06,-3.59912e-06,0
-2.94919e-05,2.0248e-05,-5.61305e-06,-1.33999e-07,9.47483e-06,-1.56467e-05,-2.16786e-05,-1.61367e-06,0
-2.91431e-05,1.82705e-05,-4.65355e-06,-3.79665e-06,1.04446e-05,-1.55708e-05,-3.53256e-05,4.83653e-07,0
-2.85522e-05,1.83879e-05,-3.62741e-06,-7.65949e-06,1.20954e-05,-1.48019e-05,-4.20085e-05,1.33524e-06,0
-2.88157e-05,2.05545e-05,-3.21016e-06,-1.30377e-05,1.36419e-05,-1.42135e-05,-3.86197e-05,1.62048e-06,0
-2.89566e-05,2.10152e-05,-3.14178e-06,-1.91072e-05,1.59363e-05,-1.53446e-05,-2.67092e-05,2.9365e-06,0
-2.70561e-05,2.05397e-05,-3.0649e-06,-2.46966e-05,1.92574e-05,-1.68928e-05,-1.3793e-05,4.47898e-06,0
-2.46611e-05,2.00677e-05,-2.96613e-06,-2.89414e-05,2.09294e-05,-1.70177e-05,-3.40982e-06,4.78553e-06,0
-2.51972e-05,1.98173e-05,-2.87439e-06,-2.80629e-05,1.95095e-05,-1.7126e-05,6.19727e-06,5.09302e-06,0
-2.62173e-05,2.08361e-05,-2.23701e-06,-1.78891e-05,1.94264e-05,-1.81589e-05,1.42799e-05,5.29424e-06,0
-2.58793e-05,2.17847e-05,-3.91783e-06,-2.27645e-06,2.35261e-05,-1.81325e-05,2.06635e-05,4.30969e-06,0
-2.42499e-05,2.17155e-05,-8.00689e-06,9.9694e-06,2.70212e-05,-1.70334e-05,2.47388e-05,2.52582e-06,0
-2.34451e-05,2.13573e-05,-1.08847e-05,1.53843e-05,2.54836e-05,-1.48966e-05,2.56026e-05,2.23285e-06,0
-2.49484e-05,2.10635e-05,-1.18203e-05,1.33817e-05,1.93658e-05,-1.21412e-05,2.60558e-05,3.20358e-06,0
-2.54329e-05,2.14199e-05,-1.13457e-05,7.09869e-06,1.36013e-05,-9.95596e-06,2.74e-05,2.87855e-06,0
-2.6192e-05,2.15153e-05,-1.05354e-05,4.1478e-06,1.06735e-05,-7.46919e-06,2.89879e-05,1.76013e-06,0
-2.75604e-05,1.9523e-05,-1.10673e-05,4.36437e-06,1.02497e-05,-6.40289e-06,2.803e-05,6.57655e-08,0
-2.82756e-05,1.62734e-05,-1.19733e-05,5.52975e-06,1.00356e-05,-6.21388e-06,2.26424e-05,-6.42552e-07,0
-2.80702e-05,1.40467e-05,-1.19782e-05,8.25076e-06,1.0356e-05,-5.13915e-06,1.47782e-05,-2.79096e-07,0
-2.72924e-05,1.36207e-05,-1.10726e-05,1.06445e-05,1.0722e-05,-2.4714e-06,1.03932e-05,-2.3687e-07,0
-2.60676e-05,1.32372e-05,-1.0908e-05,1.04782e-05,1.04213e-05,4.50738e-07,1.24141e-05,-1.8475e-06,0
-2.54752e-05,1.32378e-05,-1.1268e-05,7.65053e-06,1.05399e-05,1.42979e-06,1.63413e-05,-2.47238e-06,0
-2.60175e-05,1.4224e-05,-1.04729e-05,1.82675e-06,1.11405e-05,-1.83197e-07,1.82205e-05,-1.06137e-06,0
-2.64656e-05,1.44233e-05,-8.79522e-06,-7.66682e-06,1.28724e-05,-3.5638e-06,1.68666e-05,2.74527e-08,0
-2.68407e-05,1.32712e-05,-7.54191e-06,-1.70359e-05,1.50343e-05,-6.26703e-06,1.42641e-05,-7.09152e-07,0
-2.67542e-05,1.19361e-05,-7.21193e-06,-2.44303e-05,1.73253e-05,-6.78097e-06,1.37641e-05,-3.14076e-06,0
-2.59546e-05,1.01828e-05,-7.1128e-06,-3.42716e-05,1.86882e-05,-6.20747e-06,1.59798e-05,-4.77284e-06,0
-2.57451e-05,8.16978e-06,-6.99267e-06,-4.73146e-05,1.84862e-05,-6.52044e-06,1.88984e-05,-4.44524e-06,0
-2.82393e-05,7.62839e-06,-7.50884e-06,-5.40775e-05,1.68739e-05,-7.60237e-06,1.99485e-05,-2.94713e-06,0
-3.12724e-05,6.67103e-06,-8.12421e-06,-4.65672e-05,1.49384e-05,-8.6692e-06,1.78719e-05,-2.11239e-06,0
-3.17551e-05,3.13914e-06,-7.3259e-06,-2.83501e-05,1.29996e-05,-7.90922e-06,1.5554e-05,-1.71352e-06,0
-3.01121e-05,-4.21366e-07,-6.0601e-06,-9.26506e-06,1.21477e-05,-6.04918e-06,1.53265e-05,-1.89154e-06,0
-2.83137e-05,-1.88512e-06,-6.82278e-06,1.7395e-06,1.31726e-05,-4.69997e-06,1.60948e-05,-2.05576e-06,0
-2.80194e-05,-3.34302e-06,-9.36795e-06,4.56521e-06,1.35223e-05,-4.52139e-06,1.57917e-05,-1.28976e-06,0
-2.85922e-05,-5.72172e-06,-1.2207e-05,5.00989e-06,1.24533e-05,-6.90914e-06,1.34107e-05,1.1033e-06,0
-2.78022e-05,-6.71376e-06,-1.42145e-05,3.80476e-06,1.16965e-05,-1.1044e-05,1.0905e-05,3.37603e-06,0
-2.67131e-05,-5.82224e-06,-1.5203e-05,1.21705e-06,1.26832e-05,-1.3647e-05,9.86914e-06,3.19792e-06,0
-2.6395e-05,-4.79187e-06,-1.53329e-05,-1.48549e-06,1.39347e-05,-1.35831e-05,8.28556e-06,2.74468e-06,0
-2.68441e-05,-5.28543e-06,-1.39107e-05,-3.05734e-06,1.55141e-05,-1.22535e-05,3.89211e-06,1.75162e-06,0
-2.66365e-05,-6.21448e-06,-1.21399e-05,-2.32118e-06,2.07669e-05,-1.11088e-05,1.90226e-06,-6.14499e-08,0
-2.52049e-05,-3.73464e-06,-1.11292e-05,-9.11643e-07,2.88513e-05,-9.50416e-06,3.40657e-06,2.15386e-06,0
-2.47615e-05,1.21558e-06,-1.04984e-05,1.49707e-06,3.38139e-05,-8.32704e-06,5.13553e-06,5.82181e-06,0
-2.55489e-05,5.00271e-06,-9.51202e-06,3.79306e-06,3.10174e-05,-8.26654e-06,7.54033e-06,6.60695e-06,0
-2.60334e-05,6.07216e-06,-7.35977e-06,4.10003e-06,2.38653e-05,-9.14686e-06,1.12925e-05,5.44113e-06,0
-2.5747e-05,5.27094e-06,-6.03561e-06,4.19032e-06,1.8209e-05,-1.09886e-05,1.56286e-05,2.74472e-06,0
-2.72655e-05,6.19328e-06,-5.7276e-06,7.22234e-06,1.56685e-05,-1.12992e-05,1.87234e-05,5.20165e-07,0
-2.85441e-05,9.89849e-06,-4.57319e-06,1.05896e-05,1.50118e-05,-1.1502e-05,2.11794e-05,-4.39676e-07,0
-2.80527e-05,1.29417e-05,-3.58443e-06,1.10293e-05,1.51013e-05,-1.30931e-05,2.12959e-05,-2.42414e-06,0
-2.77865e-05,1.35035e-05,-3.43725e-06,8.63898e-06,1.43234e-05,-1.46756e-05,1.93919e-05,-4.1583e-06,0
-2.87747e-05,1.3194e-05,-3.60522e-06,5.11835e-06,1.14683e-05,-1.51311e-05,1.7147e-05,-3.79124e-06,0
-3.00134e-05,1.3436e-05,-3.54602e-06,2.86324e-06,8.72744e-06,-1.45774e-05,1.52226e-05,-3.36734e-06,0
-3.04823e-05,1.52475e-05,-3.36648e-06,1.36762e-06,7.5765e-06,-1.32592e-05,1.35157e-05,-3.48745e-06,0
-3.07372e-05,1.79335e-05,-3.28707e-06,-4.41021e-07,7.34456e-06,-1.123e-05,1.20828e-05,-3.80117e-06,0
-3.13642e-05,1.86312e-05,-3.48237e-06,-3.32221e-06,6.87269e-06,-9.27405e-06,1.17068e-05,-4.58757e-06,0
-3.32573e-05,1.58719e-05,-3.92312e-06,-5.44855e-06,5.76297e-06,-7.70401e-06,1.12715e-05,-5.2648e-06,0
-3.44113e-05,1.10696e-05,-3.55184e-06,-6.19327e-06,4.86164e-06,-6.99932e-06,1.00533e-05,-4.67814e-06,0
-3.37418e-05,6.68213e-06,-2.24828e-06,-5.94416e-06,5.82183e-06,-6.81749e-06,7.23865e-06,-4.37255e-06,0
-3.32107e-05,5.05937e-06,-1.35274e-06,-4.80148e-06,7.172e-06,-6.49071e-06,2.63866e-06,-4.61425e-06,0
-3.32496e-05,6.27012e-06,-2.02667e-06,-3.45699e-06,7.22406e-06,-6.17037e-06,-1.19636e-06,-5.0073e-06,0
-3.22323e-05,7.60179e-06,-4.30447e-06,-2.7835e-06,7.16581e-06,-6.12323e-06,-1.42074e-06,-6.0753e-06,0
-3.06462e-05,7.973e-06,-5.97916e-06,-2.99033e-06,7.75154e-06,-7.52549e-06,2.07413e-06,-7.79803e-06,0
-2.91472e-05,9.08992e-06,-5.10021e-06,-2.31763e-06,7.40494e-06,-1.00746e-05,6.51566e-06,-9.51932e-06,0
-2.88622e-05,1.24932e-05,-3.23876e-06,-1.45697e-06,4.83992e-06,-1.08821e-05,8.65545e-06,-9.00233e-06,0
-2.99212e-05,2.15906e-05,-2.54883e-06,-1.54701e-06,3.68821e-06,-9.29501e-06,9.67491e-06,-6.87601e-06,0
-3.15094e-05,3.43769e-05,-2.08636e-06,-1.48874e-06,4.95129e-06,-8.60383e-06,9.51727e-06,-6.98954e-06,0
-3.20292e-05,4.30094e-05,-1.68944e-06,-1.38905e-06,5.50379e-06,-7.90468e-06,3.90331e-06,-7.27053e-06,0
-3.11426e-05,4.78234e-05,-2.06431e-06,-4.86284e-06,5.92356e-06,-6.93914e-06,-6.68558e-06,-6.12108e-06,0
-3.10387e-05,4.88823e-05,-4.30203e-06,-1.30729e-05,6.59189e-06,-7.65246e-06,-1.38881e-05,-5.68461e-06,0
-3.12976e-05,4.05506e-05,-7.05914e-06,-1.89686e-05,7.54936e-06,-8.2948e-06,-1.34448e-05,-4.31768e-06,0
-3.20775e-05,2.45153e-05,-9.36537e-06,-1.87002e-05,9.21794e-06,-8.63985e-06,-7.02387e-06,-2.17582e-06,0
-3.20418e-05,5.46426e-06,-1.15086e-05,-1.40249e-05,1.08734e-05,-7.87098e-06,3.17688e-06,-1.72866e-06,0
-3.08062e-05,-1.29487e-05,-1.18836e-05,-8.06056e-06,1.33044e-05,-6.69702e-06,1.57689e-05,-1.82291e-06,0
