ch1,ch2,ch3,ch4,ch5,ch6,ch7,ch8,class
-3.15463e-05,7.96043e-06,-9.59544e-06,-2.16414e-05,9.86723e-06,-5.99568e-06,9.10584e-06,-1.43562e-06,0
-3.295e-05,1.07164e-05,-1.08159e-05,-3.09683e-05,8.08318e-06,-7.54045e-06,9.10035e-06,-1.06051e-06,0
-3.17719e-05,1.51598e-05,-1.27144e-05,-4.11328e-05,7.72984e-06,-9.33894e-06,9.55994e-06,7.52987e-09,0
-3.20706e-05,1.74435e-05,-1.4566e-05,-4.76065e-05,7.80534e-06,-1.09906e-05,9.56195e-06,1.99397e-06,0
-3.33646e-05,1.74318e-05,-1.43723e-05,-4.80805e-05,8.45778e-06,-1.24496e-05,8.90572e-06,3.5706e-06,0
-3.2761e-05,1.63884e-05,-1.31135e-05,-4.382e-05,9.51441e-06,-1.34426e-05,8.73707e-06,2.86721e-06,0
-3.14634e-05,1.61149e-05,-1.23546e-05,-3.62383e-05,1.02537e-05,-1.4353e-05,1.02716e-05,1.3609e-06,0
-3.09069e-05,1.61331e-05,-1.16153e-05,-2.52801e-05,1.01639e-05,-1.46999e-05,1.22467e-05,6.54264e-07,0
-3.02864e-05,1.52294e-05,-1.05935e-05,-1.1453e-05,1.06261e-05,-1.40254e-05,1.19431e-05,1.60873e-06,0
-2.9593e-05,1.31796e-05,-9.64414e-06,-1.27066e-07,1.20731e-05,-1.22382e-05,1.05008e-05,3.33798e-06,0
-2.96126e-05,1.0178e-05,-9.24427e-06,4.26295e-06,1.37129e-05,-1.01843e-05,1.03889e-05,4.26139e-06,0
-3.05793e-05,6.76518e-06,-8.49763e-06,4.68084e-06,1.60823e-05,-9.75194e-06,1.25266e-05,4.51988e-06,0
-3.16598e-05,3.58336e-06,-6.50803e-06,5.0694e-06,1.85612e-05,-1.04899e-05,1.50584e-05,3.9417e-06,0
-3.14105e-05,2.00717e-06,-4.99884e-06,5.10768e-06,1.89231e-05,-1.05738e-05,1.64168e-05,1.22537e-06,0
-3.06019e-05,2.1781e-06,-5.79228e-06,2.75928e-06,1.68383e-05,-9.15652e-06,1.60323e-05,-1.27434e-06,0
-3.08377e-05,2.52426e-06,-7.56298e-06,-8.77598e-07,1.42077e-05,-7.20763e-06,1.4667e-05,-1.76976e-06,0
-3.05352e-05,2.36202e-06,-7.12892e-06,-3.76895e-06,1.34779e-05,-5.46253e-06,1.47399e-05,-1.48702e-06,0
-2.96914e-05,2.69109e-06,-5.47945e-06,-4.25224e-06,1.48274e-05,-5.47806e-06,1.71341e-05,-1.0818e-06,0
-2.9742e-05,3.6517e-06,-5.16035e-06,-3.36023e-06,1.6969e-05,-7.42635e-06,1.79912e-05,-3.76913e-07,0
-2.98616e-05,4.65281e-06,-5.69153e-06,-5.48542e-06,1.86598e-05,-8.31112e-06,1.60644e-05,1.23442e-06,0
-3.00019e-05,5.86047e-06,-6.85987e-06,-1.33714e-05,1.96038e-05,-6.83779e-06,1.51655e-05,3.53574e-06,0
-2.94865e-05,8.56415e-06,-7.80016e-06,-2.13833e-05,1.86282e-05,-5.5693e-06,1.63974e-05,5.01104e-06,0
-2.98275e-05,1.2584e-05,-1.12342e-05,-2.2728e-05,1.54339e-05,-6.33522e-06,1.8162e-05,6.56049e-06,0
-3.04828e-05,1.41551e-05,-1.32592e-05,-1.66393e-05,1.28649e-05,-8.29285e-06,1.82712e-05,8.71616e-06,0
-2.99099e-05,1.36048e-05,-9.58729e-06,-8.12067e-06,1.32197e-05,-9.2111e-06,1.68817e-05,9.22572e-06,0
-3.02478e-05,1.54691e-05,-7.16981e-06,-6.72989e-06,1.47913e-05,-7.73987e-06,1.5419e-05,7.0207e-06,0
-3.0902e-05,1.76165e-05,-7.10894e-06,-1.06046e-05,1.44515e-05,-4.92618e-06,1.4441e-05,3.91867e-06,0
-3.22959e-05,1.80949e-05,-6.35937e-06,-1.39527e-05,1.33194e-05,-2.26628e-06,1.3468e-05,3.31331e-06,0
-3.411e-05,1.83218e-05,-3.82498e-06,-1.78824e-05,1.07337e-05,-1.61075e-06,1.35402e-05,3.61318e-06,0
-3.52916e-05,1.89189e-05,-1.31162e-06,-2.00911e-05,7.74253e-06,-2.15813e-06,1.44606e-05,2.1565e-06,0
-3.56283e-05,1.96099e-05,-9.43476e-07,-1.90786e-05,6.49621e-06,-2.31562e-06,1.26294e-05,-1.13133e-07,0
-3.33416e-05,2.0845e-05,-3.23159e-06,-1.71588e-05,5.9013e-06,-4.12159e-06,9.47218e-06,-1.14794e-07,0
-3.00908e-05,2.20155e-05,-7.01784e-06,-1.4867e-05,5.46038e-06,-6.9917e-06,7.36071e-06,1.59889e-06,0
-2.853e-05,2.30727e-05,-1.00747e-05,-1.23397e-05,5.82772e-06,-8.80962e-06,5.04464e-06,3.56379e-06,0
-2.81413e-05,2.31411e-05,-1.1006e-05,-1.05491e-05,7.18919e-06,-8.93751e-06,2.38559e-06,5.19592e-06,0
-2.74369e-05,2.26268e-05,-1.03331e-05,-9.7558e-06,7.86273e-06,-8.12028e-06,1.85216e-06,5.59946e-06,0
-2.6933e-05,2.37516e-05,-1.01251e-05,-9.18269e-06,7.90875e-06,-7.71494e-06,4.25219e-06,6.1012e-06,0
-2.7497e-05,2.68762e-05,-1.2059e-05,-7.66461e-06,8.23919e-06,-8.33597e-06,7.30246e-06,6.69479e-06,0
-2.81034e-05,3.13675e-05,-1.44262e-05,-4.17493e-06,8.97905e-06,-9.5528e-06,9.83405e-06,6.28124e-06,0
-2.72063e-05,3.57102e-05,-1.41435e-05,3.35406e-06,9.29201e-06,-9.79109e-06,1.09924e-05,5.22681e-06,0
-2.57243e-05,3.87806e-05,-1.15006e-05,1.52205e-05,9.69736e-06,-8.28858e-06,1.13314e-05,4.19162e-06,0
-2.50592e-05,3.75803e-05,-8.36441e-06,2.64296e-05,1.04259e-05,-6.38985e-06,1.15621e-05,2.75309e-06,0
-2.46785e-05,3.18033e-05,-6.35092e-06,3.05603e-05,9.46995e-06,-6.93382e-06,1.15256e-05,1.50041e-06,0
-2.46125e-05,2.27363e-05,-6.3979e-06,2.47853e-05,5.9395e-06,-8.71903e-06,1.12077e-05,1.08945e-07,0
-2.53158e-05,1.33962e-05,-7.64407e-06,1.31749e-05,2.95255e-06,-8.66472e-06,1.11303e-05,-1.78477e-06,0
-2.67914e-05,7.97846e-06,-6.63735e-06,2.70719e-06,3.19846e-06,-7.23756e-06,1.22561e-05,-2.07556e-06,0
-2.9578e-05,7.471e-06,-3.24184e-06,-7.46467e-06,6.159e-06,-5.73746e-06,1.35936e-05,-9.26532e-07,0
-3.19977e-05,1.03213e-05,-1.2767e-07,-1.95178e-05,8.59208e-06,-4.15374e-06,1.27781e-05,-2.48188e-07,0
-3.22604e-05,1.3753e-05,1.14804e-06,-2.6758e-05,8.83701e-06,-4.22113e-06,1.1838e-05,4.84489e-07,0
-3.1515e-05,1.35375e-05,3.75777e-07,-2.57156e-05,9.62208e-06,-6.39521e-06,1.3074e-05,-7.01827e-07,0
-3.07614e-05,1.26361e-05,-3.91743e-07,-2.24073e-05,1.10155e-05,-9.46763e-06,1.341e-05,-1.52309e-06,0
-3.07014e-05,1.31277e-05,-2.42049e-08,-2.0641e-05,1.22571e-05,-1.05208e-05,1.18766e-05,-5.49807e-07,0
-2.96382e-05,1.2795e-05,-1.20651e-07,-1.99631e-05,1.16217e-05,-1.00342e-05,9.27776e-06,-6.50099e-07,0
-2.90228e-05,1.18318e-05,-5.42477e-07,-1.61524e-05,8.15879e-06,-9.43767e-06,8.31901e-06,-1.60107e-06,0
-3.11323e-05,1.03842e-05,8.41659e-08,-4.76177e-06,4.54959e-06,-8.6914e-06,1.00823e-05,-1.92576e-06,0
-3.31815e-05,1.03818e-05,7.24258e-07,7.98488e-06,3.71817e-06,-1.01952e-05,1.20993e-05,-1.43927e-06,0
-3.23606e-05,1.14297e-05,-2.08111e-07,1.30462e-05,4.34699e-06,-1.30355e-05,1.28583e-05,-2.61036e-06,0
-3.05399e-05,1.22522e-05,-3.49829e-06,9.66742e-06,4.89032e-06,-1.42948e-05,1.13179e-05,-5.63554e-06,0
-3.05597e-05,1.20467e-05,-9.203e-06,2.61257e-06,4.44005e-06,-1.29075e-05,1.12819e-05,-8.73746e-06,0
-3.11149e-05,1.07836e-05,-1.57097e-05,-2.13576e-06,2.64434e-06,-1.25088e-05,1.34595e-05,-7.893e-06,0
-3.17553e-05,1.05219e-05,-2.13369e-05,-3.84951e-06,2.20274e-06,-1.28774e-05,1.62264e-05,-5.02349e-06,0
-3.21032e-05,1.23445e-05,-2.357e-05,-5.58125e-06,3.71669e-06,-1.1886e-05,1.79189e-05,-3.56155e-06,0
-3.23977e-05,1.45659e-05,-2.3375e-05,-8.61097e-06,7.19863e-06,-1.05185e-05,1.64954e-05,-3.54319e-06,0
-3.29296e-05,1.61937e-05,-2.28247e-05,-9.70871e-06,1.20788e-05,-9.81614e-06,1.40297e-05,-3.94978e-06,0
-3.32017e-05,1.49796e-05,-2.21675e-05,-5.59369e-06,1.72796e-05,-9.76095e-06,1.3254e-05,-4.11988e-06,0
-3.1327e-05,1.05201e-05,-2.13204e-05,2.69672e-06,2.25492e-05,-9.43219e-06,1.49842e-05,-4.21499e-06,0
-2.88511e-05,5.94822e-06,-2.01259e-05,1.22836e-05,2.81956e-05,-8.45452e-06,1.77239e-05,-3.7648e-06,0
-2.92693e-05,3.41848e-06,-1.91066e-05,1.87206e-05,3.1091e-05,-7.08416e-06,1.95664e-05,-3.36284e-06,0
-3.09578e-05,4.09018e-06,-1.79373e-05,1.87774e-05,2.83883e-05,-6.71938e-06,1.89783e-05,-2.84294e-06,0
-3.0166e-05,7.6649e-06,-1.63835e-05,1.50712e-05,2.26474e-05,-7.14883e-06,1.71307e-05,-2.60769e-06,0
-2.83641e-05,1.11239e-05,-1.41654e-05,1.44325e-05,1.81491e-05,-7.3346e-06,1.56461e-05,-1.93068e-06,0
-2.92375e-05,1.36922e-05,-1.3265e-05,2.12659e-05,1.64787e-05,-7.52132e-06,1.51648e-05,1.67286e-07,0
-3.08863e-05,1.64998e-05,-1.46979e-05,3.48903e-05,1.64582e-05,-7.73013e-06,1.5906e-05,1.94592e-06,0
-3.10645e-05,1.75335e-05,-1.50603e-05,4.30978e-05,1.7814e-05,-6.40091e-06,1.71777e-05,2.55895e-06,0
-2.98035e-05,1.76426e-05,-1.10329e-05,3.9334e-05,1.84835e-05,-4.6511e-06,1.78776e-05,2.58965e-06,0
-2.96296e-05,1.89472e-05,-5.14581e-06,2.68713e-05,1.56257e-05,-4.43712e-06,1.83166e-05,1.8682e-06,0
-3.16897e-05,2.09284e-05,-1.17058e-06,8.07435e-06,1.01764e-05,-4.05859e-06,1.67839e-05,2.36991e-06,0
-3.31415e-05,2.13247e-05,-2.09567e-07,-6.79087e-06,6.4457e-06,-1.86377e-06,1.28829e-05,5.27345e-06,0
-3.22187e-05,2.1139e-05,-4.24819e-07,-1.56911e-05,5.63255e-06,-9.27645e-07,7.73035e-06,5.59647e-06,0
-3.02942e-05,2.30198e-05,-1.7499e-06,-2.42261e-05,7.46128e-06,-2.93237e-06,3.25833e-06,2.22976e-06,0
-2.72962e-05,2.58634e-05,-3.632e-06,-3.09251e-05,1.08643e-05,-4.42018e-06,9.89172e-07,1.70336e-06,0
-2.61289e-05,2.95497e-05,-5.7422e-06,-3.48693e-05,1.2122e-05,-4.7028e-06,1.85212e-06,3.39915e-06,0
-2.72557e-05,3.26242e-05,-8.96721e-06,-4.01017e-05,1.18022e-05,-4.71924e-06,7.10096e-06,5.28924e-06,0
-2.91261e-05,3.38381e-05,-1.07884e-05,-4.73387e-05,1.07499e-05,-4.46341e-06,1.3961e-05,5.95462e-06,0
-3.07643e-05,3.46721e-05,-1.06728e-05,-5.09494e-05,9.58808e-06,-4.38517e-06,1.93593e-05,5.31717e-06,0
-3.03475e-05,3.48358e-05,-9.20083e-06,-5.04049e-05,9.61049e-06,-4.79093e-06,2.14657e-05,4.61068e-06,0
-2.96312e-05,3.41102e-05,-6.35718e-06,-4.46537e-05,1.06853e-05,-5.69632e-06,2.09661e-05,4.47408e-06,0
-2.96722e-05,3.28492e-05,-3.60146e-06,-3.20532e-05,1.16939e-05,-5.28002e-06,1.93697e-05,5.59295e-06,0
-3.08344e-05,3.04289e-05,-1.99695e-06,-1.75675e-05,1.28018e-05,-4.54285e-06,1.90208e-05,6.0083e-06,0
-3.16286e-05,2.78607e-05,-1.25821e-07,-7.25343e-06,1.59396e-05,-4.16624e-06,2.02464e-05,4.64453e-06,0
-3.08548e-05,2.69716e-05,1.85849e-06,-4.21275e-06,2.01339e-05,-3.77881e-06,2.12935e-05,1.60049e-06,0
-2.94928e-05,2.78683e-05,1.56356e-06,-8.05655e-06,2.21397e-05,-4.6902e-06,2.07948e-05,-9.24093e-07,0
-2.92624e-05,3.02411e-05,-2.51707e-07,-1.57941e-05,2.11735e-05,-7.1963e-06,1.91135e-05,-2.51306e-06,0
-2.95744e-05,3.69222e-05,-5.60874e-08,-2.38242e-05,2.18771e-05,-9.30423e-06,1.75083e-05,-3.24503e-06,0
-2.91474e-05,5.03788e-05,1.1358e-06,-3.05903e-05,2.62505e-05,-8.79093e-06,1.65548e-05,-4.13098e-06,0
-2.79188e-05,6.40352e-05,-1.87857e-07,-3.49876e-05,3.09867e-05,-6.68905e-06,1.50114e-05,-6.2249e-06,0
-2.66354e-05,6.79915e-05,-3.58864e-06,-3.47191e-05,3.15941e-05,-5.86197e-06,1.23172e-05,-8.8016e-06,0
-2.75132e-05,6.02258e-05,-6.70596e-06,-2.53536e-05,2.74822e-05,-6.8711e-06,1.05901e-05,-1.01393e-05,0
-3.09257e-05,4.31533e-05,-8.34877e-06,-8.59673e-06,2.19403e-05,-7.06556e-06,1.03133e-05,-9.91289e-06,0
-3.36541e-05,2.02008e-05,-7.56685e-06,7.26602e-06,1.70995e-05,-7.27833e-06,1.08904e-05,-8.4744e-06,0
-3.31866e-05,-2.69024e-06,-6.28056e-06,1.65797e-05,1.31809e-05,-8.87864e-06,1.12933e-05,-6.5756e-06,0
-3.03137e-05,-2.05286e-05,-6.5857e-06,2.0437e-05,1.06506e-05,-1.00565e-05,1.1715e-05,-3.86626e-06,0
-2.75923e-05,-2.89641e-05,-8.30104e-06,2.17046e-05,9.91715e-06,-1.08289e-05,1.23715e-05,-1.01516e-06,0
-2.69037e-05,-2.77611e-05,-1.02729e-05,1.61491e-05,1.07109e-05,-1.27731e-05,1.28724e-05,-2.20348e-06,0
-2.76389e-05,-2.2395e-05,-1.18313e-05,6.33302e-06,1.23863e-05,-1.47675e-05,1.23066e-05,-5.30395e-06,0
-2.88631e-05,-1.47973e-05,-1.38721e-05,1.60531e-06,1.31976e-05,-1.69336e-05,1.00425e-05,-4.11547e-06,0
-2.97258e-05,-6.76828e-06,-1.52765e-05,-5.74121e-07,1.30179e-05,-1.86406e-05,9.24552e-06,-2.75385e-07,0
-2.90701e-05,-2.1709e-06,-1.63784e-05,-4.19575e-06,1.12568e-05,-2.03149e-05,1.02393e-05,1.38178e-06,0
-2.88209e-05,1.12396e-07,-1.62449e-05,-7.42643e-06,8.58926e-06,-2.11765e-05,9.95102e-06,-1.97122e-07,0
-2.79628e-05,2.01334e-06,-1.44231e-05,-8.63525e-06,7.49631e-06,-2.04203e-05,9.57615e-06,-1.83931e-06,0
-2.65918e-05,4.51544e-06,-1.22135e-05,-7.17233e-06,8.92621e-06,-1.96397e-05,1.1016e-05,-1.83158e-06,0
-2.75762e-05,5.71838e-06,-9.75233e-06,-3.10433e-06,1.14827e-05,-1.93375e-05,1.44405e-05,-1.13116e-06,0
-2.94094e-05,5.47433e-06,-9.7264e-06,8.87088e-07,1.11658e-05,-1.98963e-05,1.77804e-05,-3.11821e-08,0
-3.06845e-05,6.42522e-06,-1.13063e-05,2.17276e-06,7.29755e-06,-2.03736e-05,1.93234e-05,-1.17875e-06,0
-3.05517e-05,9.04196e-06,-1.22658e-05,2.35203e-06,4.01175e-06,-1.99522e-05,1.8676e-05,-3.1023e-06,0
-2.92874e-05,1.06031e-05,-1.14952e-05,3.50213e-06,4.79454e-06,-1.70374e-05,1.73624e-05,-3.09838e-06,0
-2.86455e-05,1.03994e-05,-9.35752e-06,6.61577e-06,9.04631e-06,-1.30791e-05,1.77837e-05,-8.43037e-07,0
-2.99545e-05,1.06079e-05,-7.1824e-06,1.12157e-05,1.3639e-05,-1.06621e-05,1.91203e-05,2.23106e-06,0
-3.21241e-05,1.16851e-05,-6.43664e-06,1.57512e-05,1.70627e-05,-1.09082e-05,1.98492e-05,4.62108e-06,0
-3.38668e-05,1.2578e-05,-7.65768e-06,1.88888e-05,1.99371e-05,-1.21294e-05,1.9099e-05,5.04419e-06,0
-3.42553e-05,1.07082e-05,-9.61798e-06,1.9664e-05,2.19136e-05,-1.22042e-05,1.74192e-05,4.3467e-06,0
-3.33723e-05,7.07227e-06,-1.10924e-05,1.66761e-05,2.16115e-05,-1.1789e-05,1.56076e-05,5.72292e-06,0
-3.25371e-05,4.22549e-06,-1.19326e-05,1.04472e-05,1.87321e-05,-1.23411e-05,1.4122e-05,8.492e-06,0
-3.23947e-05,1.86464e-06,-1.35158e-05,4.39376e-06,1.49573e-05,-1.29648e-05,1.26964e-05,9.05291e-06,0
-3.25192e-05,-4.19067e-06,-1.45461e-05,1.29083e-06,1.32776e-05,-1.32209e-05,1.14576e-05,6.67762e-06,0
-3.29358e-05,-1.31022e-05,-1.32683e-05,9.79686e-07,1.32664e-05,-1.37072e-05,1.13069e-05,4.31405e-06,0
-3.26368e-05,-1.77203e-05,-1.15178e-05,2.9699e-07,1.23119e-05,-1.26598e-05,1.17635e-05,2.28874e-06,0
-3.11614e-05,-1.61269e-05,-1.11763e-05,-2.74701e-06,1.05572e-05,-9.33465e-06,1.10241e-05,-5.9595e-07,0
-3.0766e-05,-1.31967e-05,-1.13029e-05,-7.84368e-06,1.01402e-05,-6.53768e-06,8.82736e-06,-1.6428e-06,0
-3.23127e-05,-9.44168e-06,-1.13486e-05,-1.19549e-05,1.04652e-05,-6.69774e-06,6.86054e-06,8.25115e-07,0
-3.42693e-05,-4.62656e-06,-1.04872e-05,-1.28817e-05,1.13195e-05,-6.07025e-06,5.91125e-06,4.05342e-06,0
-3.62321e-05,-9.55717e-07,-1.04656e-05,-1.21618e-05,1.29717e-05,-3.97363e-06,5.31905e-06,5.7995e-06,0
-3.74326e-05,3.90441e-06,-1.12953e-05,-9.74146e-06,1.50393e-05,-4.83978e-06,4.62878e-06,6.00852e-06,0
-3.51835e-05,1.00292e-05,-1.1563e-05,-7.67367e-06,1.83055e-05,-6.13378e-06,4.38098e-06,5.32647e-06,0
-3.24874e-05,1.52757e-05,-1.05367e-05,-7.82803e-06,2.0188e-05,-5.6911e-06,4.83504e-06,4.10094e-06,0
-3.29478e-05,1.80151e-05,-8.46529e-06,-7.35575e-06,1.90336e-05,-5.96475e-06,5.87674e-06,5.28203e-06,0
-3.52224e-05,1.86507e-05,-6.87206e-06,-5.98131e-06,1.70489e-05,-7.98073e-06,6.26476e-06,9.12684e-06,0
-3.57876e-05,1.94655e-05,-4.79093e-06,-4.72087e-06,1.86514e-05,-9.55149e-06,6.36927e-06,1.17526e-05,0
-3.33699e-05,1.98118e-05,-2.31961e-06,-3.24125e-06,2.24932e-05,-9.57121e-06,7.56285e-06,1.14608e-05,0
-3.03459e-05,1.91718e-05,-1.10852e-06,-3.23666e-06,2.48491e-05,-9.43068e-06,9.44999e-06,9.39945e-06,0
-2.93294e-05,1.68587e-05,-2.32941e-06,-4.06391e-06,2.40928e-05,-8.92625e-06,1.10577e-05,7.56762e-06,0
-3.13017e-05,1.40187e-05,-4.28856e-06,-4.20335e-06,2.05256e-05,-8.34551e-06,1.16556e-05,8.43458e-06,0
-3.32813e-05,1.22986e-05,-4.95596e-06,-4.01982e-06,1.64479e-05,-7.56025e-06,1.21353e-05,1.01645e-05,0
-3.3166e-05,1.175e-05,-3.87503e-06,-5.24102e-06,1.3334e-05,-7.01986e-06,1.27272e-05,9.24567e-06,0
-3.1629e-05,1.17503e-05,-1.69487e-06,-6.77458e-06,1.26252e-05,-7.17347e-06,1.23959e-05,7.18442e-06,0
-3.00425e-05,1.11387e-05,-5.42989e-08,-5.29563e-06,1.23201e-05,-9.19137e-06,9.24869e-06,5.9569e-06,0
-2.91689e-05,9.19319e-06,4.88049e-07,-2.02403e-06,1.17913e-05,-1.17009e-05,1.40591e-06,5.23895e-06,0
-2.87689e-05,7.652e-06,3.16562e-07,-1.01004e-06,1.10052e-05,-1.1288e-05,-8.27313e-06,3.84502e-06,0
-2.86207e-05,8.805e-06,-5.96663e-07,-2.82725e-06,1.03793e-05,-8.20493e-06,-1.33512e-05,2.21846e-06,0
-2.77446e-05,1.05227e-05,-1.90363e-06,-4.95663e-06,1.17597e-05,-5.83687e-06,-1.19638e-05,1.60562e-06,0
-2.66249e-05,1.07097e-05,-2.36882e-06,-6.51868e-06,1.55324e-05,-6.28713e-06,-6.71323e-06,9.41108e-07,0
-2.6613e-05,9.5708e-06,-1.79953e-06,-3.65655e-06,1.8965e-05,-8.298e-06,3.83404e-07,-7.35651e-07,0
-2.69269e-05,9.06569e-06,-2.206e-06,3.60425e-06,1.99046e-05,-9.43282e-06,8.25435e-06,-2.05675e-06,0
-2.77487e-05,8.3606e-06,-3.78248e-06,9.39062e-06,1.91847e-05,-8.77532e-06,1.63137e-05,-2.17829e-06,0
-2.85531e-05,8.14548e-06,-4.62975e-06,9.60395e-06,1.79546e-05,-8.36081e-06,2.35527e-05,-1.30792e-06,0
-2.80276e-05,8.57701e-06,-5.17661e-06,5.514e-06,1.7701e-05,-9.73347e-06,2.73604e-05,-5.38465e-07,0
-2.75818e-05,8.25101e-06,-6.71176e-06,2.86379e-06,1.63725e-05,-1.1085e-05,2.79604e-05,2.63457e-07,0
-2.76249e-05,1.0935e-05,-7.84213e-06,3.39048e-06,1.50667e-05,-1.14828e-05,2.75352e-05,1.08356e-06,0
-2.82723e-05,1.60473e-05,-7.1347e-06,4.55499e-06,1.46355e-05,-1.08701e-05,2.44615e-05,7.15961e-07,0
-2.90564e-05,1.86697e-05,-6.33966e-06,6.0382e-06,1.22557e-05,-8.35284e-06,1.95307e-05,-1.45032e-08,0
-2.90157e-05,1.87863e-05,-7.41161e-06,4.70689e-06,8.39478e-06,-6.24976e-06,1.63494e-05,5.24839e-07,0
-2.71669e-05,1.84336e-05,-8.29423e-06,-1.19553e-06,4.13232e-06,-6.031e-06,1.56754e-05,8.41286e-07,0
-2.60044e-05,1.86152e-05,-7.36615e-06,-6.32644e-06,3.16147e-06,-6.52238e-06,1.6727e-05,-9.76981e-07,0
-2.64401e-05,1.87285e-05,-6.66853e-06,-9.5903e-06,5.49776e-06,-6.29842e-06,1.8062e-05,-4.38218e-06,0
-2.63717e-05,1.94173e-05,-7.4882e-06,-1.28302e-05,9.62613e-06,-5.80095e-06,1.84745e-05,-6.37657e-06,0
-2.638e-05,2.15039e-05,-7.34048e-06,-1.88303e-05,1.29486e-05,-5.12384e-06,1.86611e-05,-4.2722e-06,0
-2.61483e-05,2.25611e-05,-5.3448e-06,-2.66583e-05,1.30035e-05,-5.39699e-06,1.8071e-05,2.03763e-07,0
-2.65371e-05,1.98467e-05,-4.16397e-06,-3.06129e-05,9.21242e-06,-7.82633e-06,1.63828e-05,2.40619e-06,0
-2.80179e-05,1.60918e-05,-4.21459e-06,-2.92714e-05,3.88671e-06,-1.09025e-05,1.29859e-05,2.15332e-06,0
-2.88937e-05,1.47823e-05,-4.0372e-06,-2.46424e-05,2.18201e-06,-1.19611e-05,8.70031e-06,1.19335e-06,0
-2.799e-05,1.50497e-05,-3.92985e-06,-1.99785e-05,4.20554e-06,-1.07159e-05,6.02381e-06,-3.3223e-07,0
-2.73076e-05,1.55658e-05,-5.08681e-06,-1.80485e-05,7.28691e-06,-8.02985e-06,5.96652e-06,-9.97838e-07,0
-2.82702e-05,1.62643e-05,-7.73041e-06,-2.08232e-05,8.43989e-06,-5.17412e-06,8.16467e-06,-7.66138e-07,0
-2.95593e-05,1.7515e-05,-9.41447e-06,-2.56646e-05,7.33935e-06,-5.30621e-06,1.0045e-05,-8.48368e-08,0
-2.99431e-05,1.85399e-05,-8.51282e-06,-2.61871e-05,5.92429e-06,-8.19105e-06,1.07613e-05,4.37052e-07,0
-2.95467e-05,1.82537e-05,-7.83355e-06,-2.0171e-05,6.53491e-06,-1.10714e-05,1.11545e-05,-1.43628e-07,0
-2.91545e-05,1.67694e-05,-8.91059e-06,-1.18265e-05,8.20464e-06,-1.12856e-05,1.13499e-05,-1.43077e-06,0
-2.96326e-05,1.65519e-05,-9.49001e-06,-6.09846e-06,9.99779e-06,-8.8148e-06,1.0229e-05,-1.90355e-06,0
-3.08147e-05,1.8758e-05,-9.06155e-06,-4.6517e-06,1.12062e-05,-6.33053e-06,8.42031e-06,-2.0355e-06,0
-3.13411e-05,2.09845e-05,-9.80744e-06,-6.39759e-06,1.10138e-05,-6.26331e-06,6.85885e-06,-1.53304e-06,0
-3.26523e-05,2.1009e-05,-1.10117e-05,-8.48424e-06,7.49983e-06,-7.39594e-06,5.62696e-06,-1.00747e-06,0
-3.50832e-05,1.97483e-05,-1.21039e-05,-9.32944e-06,3.33631e-06,-9.01512e-06,6.1721e-06,-1.26116e-06,0
-3.53998e-05,1.60706e-05,-1.20765e-05,-9.83448e-06,2.64395e-06,-1.06474e-05,8.34324e-06,-2.02428e-06,0
-3.33412e-05,1.24084e-05,-1.00079e-05,-1.08508e-05,5.24229e-06,-8.73998e-06,9.78072e-06,-2.16147e-06,0
-3.06608e-05,1.13089e-05,-7.32789e-06,-1.09606e-05,7.99718e-06,-6.99178e-06,9.4479e-06,-6.66389e-07,0
-2.9231e-05,1.06666e-05,-7.48391e-06,-1.32367e-05,7.7107e-06,-7.12758e-06,8.27752e-06,1.2079e-06,0
-2.96084e-05,9.13504e-06,-1.09633e-05,-1.89335e-05,6.68644e-06,-6.20218e-06,7.95464e-06,2.18566e-06,0
-3.06037e-05,7.44178e-06,-1.3758e-05,-2.43809e-05,6.86977e-06,-6.73775e-06,7.87174e-06,1.89026e-06,0
-3.06312e-05,9.4142e-06,-1.57747e-05,-2.52314e-05,5.85879e-06,-7.52041e-06,9.28858e-06,1.14563e-06,0
-3.15923e-05,1.46324e-05,-1.81795e-05,-1.92343e-05,3.16809e-06,-8.52501e-06,1.07793e-05,1.88266e-07,0
-3.43648e-05,2.12121e-05,-1.84666e-05,-1.36557e-05,1.63083e-06,-1.03742e-05,1.10383e-05,4.21848e-07,0
-3.5076e-05,2.64426e-05,-1.60607e-05,-9.79264e-06,2.12123e-06,-1.22651e-05,1.08363e-05,2.22951e-07,0
-3.51707e-05,2.65245e-05,-1.41005e-05,-4.51209e-06,6.94641e-06,-1.309e-05,5.46734e-06,-1.61581e-06,0
-3.49974e-05,2.32179e-05,-1.2658e-05,-1.09567e-06,1.38843e-05,-1.33989e-05,-3.40027e-06,-2.18746e-06,0
-3.45274e-05,1.89109e-05,-1.26617e-05,5.45322e-07,1.91011e-05,-1.40159e-05,-7.58223e-06,-5.93279e-07,0
-3.49301e-05,1.50281e-05,-1.4207e-05,1.51565e-06,2.17523e-05,-1.39563e-05,-2.93474e-06,1.41908e-06,0
-3.56216e-05,1.15943e-05,-1.47011e-05,1.68784e-06,2.31567e-05,-1.46672e-05,7.28909e-06,2.12332e-06,0
-3.55199e-05,7.35945e-06,-1.30885e-05,2.79403e-06,2.57226e-05,-1.58926e-05,1.74168e-05,1.70798e-06,0
-3.457e-05,1.08352e-06,-9.77766e-06,6.85396e-06,2.94107e-05,-1.65116e-05,2.37975e-05,1.7705e-06,0
-3.38659e-05,-7.33225e-06,-6.46513e-06,1.11977e-05,3.02354e-05,-1.62676e-05,2.64813e-05,2.29354e-06,0
-3.36172e-05,-1.42671e-05,-4.64787e-06,1.14307e-05,2.58083e-05,-1.67932e-05,2.79954e-05,2.73313e-06,0
-3.41496e-05,-1.53325e-05,-4.38039e-06,8.16905e-06,2.05876e-05,-1.83169e-05,2.95534e-05,2.86107e-06,0
-3.4225e-05,-9.18109e-06,-4.54987e-06,4.88791e-06,1.76301e-05,-2.01573e-05,2.97661e-05,2.262e-06,0
-3.35476e-05,-4.49606e-07,-4.11348e-06,6.82773e-07,1.65373e-05,-2.10124e-05,2.82062e-05,2.60512e-06,0
-3.28095e-05,5.41355e-06,-3.0433e-06,-9.64698e-06,1.6421e-05,-1.98774e-05,2.63992e-05,4.28227e-06,0
-3.28467e-05,7.81338e-06,-3.06504e-06,-2.48722e-05,1.58137e-05,-1.75726e-05,2.45743e-05,5.08753e-06,0
-3.29399e-05,6.70715e-06,-4.42725e-06,-3.49963e-05,1.46635e-05,-1.6445e-05,2.18317e-05,4.55018e-06,0
-3.27442e-05,2.90058e-06,-6.65695e-06,-3.62763e-05,1.46129e-05,-1.65574e-05,1.92505e-05,4.22401e-06,0
-3.19173e-05,1.07043e-06,-9.04551e-06,-3.33076e-05,1.51405e-05,-1.71194e-05,1.78323e-05,4.61611e-06,0
-3.04658e-05,2.78506e-06,-1.07437e-05,-2.83172e-05,1.56785e-05,-1.69623e-05,1.71885e-05,5.76752e-06,0
-3.01605e-05,4.84434e-06,-1.04508e-05,-2.28846e-05,1.55606e-05,-1.66411e-05,1.7811e-05,6.85319e-06,0
-3.14864e-05,3.66561e-06,-1.00679e-05,-1.03948e-05,1.61674e-05,-1.77192e-05,1.73952e-05,6.08789e-06,0
-3.21755e-05,6.00993e-07,-1.22161e-05,1.52318e-05,1.83835e-05,-1.77214e-05,1.62459e-05,4.78067e-06,0
-3.11989e-05,-9.43636e-07,-1.43235e-05,4.4777e-05,2.0021e-05,-1.67917e-05,1.58273e-05,4.29739e-06,0
-3.02736e-05,-1.10231e-06,-1.31001e-05,6.4104e-05,1.95643e-05,-1.53365e-05,1.53717e-05,3.42382e-06,0
-2.858e-05,-1.08936e-06,-1.01396e-05,6.76423e-05,1.72961e-05,-1.45697e-05,1.57394e-05,2.41162e-06,0
-2.72118e-05,2.49787e-07,-8.18172e-06,6.05277e-05,1.72661e-05,-1.35632e-05,1.64391e-05,1.70004e-06,0
-2.58895e-05,2.79031e-06,-6.57405e-06,4.49733e-05,1.79771e-05,-1.14474e-05,1.8142e-05,2.64981e-06,0
-2.5011e-05,5.40347e-06,-6.30522e-06,2.77313e-05,1.70589e-05,-1.07115e-05,1.81878e-05,4.42932e-06,0
-2.60762e-05,8.01938e-06,-6.88314e-06,1.89987e-05,1.61282e-05,-1.09418e-05,1.42907e-05,5.02872e-06,0
-2.63071e-05,9.9304e-06,-7.77874e-06,1.91823e-05,1.51016e-05,-1.2015e-05,1.0213e-05,5.05924e-06,0
-2.54166e-05,1.02567e-05,-8.94736e-06,2.39013e-05,1.40753e-05,-1.27866e-05,8.87758e-06,4.22681e-06,0
-2.51228e-05,9.13169e-06,-1.02144e-05,2.69299e-05,1.40631e-05,-1.25821e-05,9.32414e-06,3.68898e-06,0
-2.70811e-05,8.03103e-06,-1.18466e-05,2.61623e-05,1.59977e-05,-1.26449e-05,9.64356e-06,3.47162e-06,0
-2.95359e-05,8.17247e-06,-1.2686e-05,2.19597e-05,1.85239e-05,-1.31468e-05,9.16275e-06,2.25906e-06,0
-3.09618e-05,9.98299e-06,-1.16e-05,1.47736e-05,2.07861e-05,-1.23569e-05,8.94411e-06,1.50448e-06,0
-3.12122e-05,1.10543e-05,-9.71128e-06,5.2599e-06,2.2268e-05,-1.03407e-05,1.03455e-05,3.15074e-06,0
-3.07232e-05,1.05407e-05,-8.27146e-06,-2.84403e-06,2.18699e-05,-8.87643e-06,1.17306e-05,5.26473e-06,0
-3.04073e-05,1.04957e-05,-7.25185e-06,-5.54519e-06,2.03431e-05,-7.4756e-06,1.15683e-05,5.61804e-06,0
-3.00794e-05,1.13115e-05,-7.10118e-06,-5.41288e-06,1.90721e-05,-5.64754e-06,1.03369e-05,4.59196e-06,0
-2.91528e-05,1.14986e-05,-6.27675e-06,-7.88154e-06,1.85683e-05,-3.63711e-06,9.69462e-06,3.03423e-06,0
-2.77756e-05,1.18768e-05,-4.00712e-06,-1.44536e-05,1.83178e-05,-1.1147e-06,9.55273e-06,2.48289e-06,0
-2.68621e-05,1.43728e-05,-2.21642e-06,-2.32819e-05,1.75012e-05,1.82609e-06,8.50382e-06,3.43624e-06,0
-2.70186e-05,1.73771e-05,-1.58899e-06,-3.25505e-05,1.6882e-05,2.80446e-06,7.4973e-06,3.91987e-06,0
-2.77646e-05,1.86445e-05,-1.46843e-06,-3.75739e-05,1.76231e-05,2.06214e-06,9.05202e-06,3.42314e-06,0
-2.70762e-05,1.93209e-05,-1.81013e-06,-3.57574e-05,1.68658e-05,8.95971e-07,1.10342e-05,2.04259e-06,0
-2.64002e-05,1.98337e-05,-2.73245e-06,-2.85464e-05,1.27933e-05,-2.67834e-07,1.28824e-05,7.51064e-07,0
-2.69101e-05,1.88893e-05,-3.98917e-06,-1.83916e-05,9.43674e-06,-2.02621e-06,1.60885e-05,7.54072e-07,0
-2.72506e-05,1.62446e-05,-3.65635e-06,-9.69866e-06,8.52448e-06,-3.70056e-06,1.85152e-05,-7.53434e-07,0
-2.76735e-05,1.49074e-05,-2.36081e-06,-7.36683e-06,9.76717e-06,-4.74526e-06,1.89918e-05,-9.55583e-07,0
-2.76063e-05,1.47521e-05,-3.10471e-06,-9.27167e-06,1.08978e-05,-6.35138e-06,1.86789e-05,1.82622e-06,0
-2.64766e-05,1.47476e-05,-5.94308e-06,-1.22154e-05,1.01275e-05,-7.2082e-06,1.88629e-05,2.4256e-06,0
-2.7052e-05,1.51722e-05,-7.63962e-06,-1.47992e-05,8.78767e-06,-7.54387e-06,1.80793e-05,-2.00894e-07,0
-2.86927e-05,1.46966e-05,-8.10831e-06,-1.47359e-05,8.62827e-06,-8.43563e-06,1.69033e-05,-3.19893e-06,0
-3.04413e-05,1.5042e-05,-7.20042e-06,-1.33014e-05,9.01806e-06,-9.86093e-06,1.73674e-05,-3.81803e-06,0
-3.19554e-05,1.56197e-05,-4.96747e-06,-8.62327e-06,7.99156e-06,-1.01568e-05,1.72486e-05,-1.99057e-06,0
-3.23971e-05,1.58697e-05,-3.60421e-06,1.60422e-06,8.50262e-06,-1.0132e-05,1.63043e-05,-3.44321e-07,0
-3.1307e-05,1.54133e-05,-3.33016e-06,1.21057e-05,9.87477e-06,-1.06478e-05,1.61396e-05,-6.40747e-07,0
-2.97787e-05,1.47155e-05,-3.82961e-06,1.59e-05,1.0371e-05,-1.15812e-05,1.61074e-05,-2.34702e-06,0
-2.89339e-05,1.45545e-05,-4.48979e-06,1.33185e-05,9.80536e-06,-1.20637e-05,1.52961e-05,-2.79352e-06,0
-2.77073e-05,1.35716e-05,-5.44661e-06,6.59855e-06,7.02115e-06,-1.10896e-05,1.45825e-05,-1.41406e-06,0
-2.66399e-05,1.28235e-05,-6.20658e-06,-1.76202e-06,4.76455e-06,-1.00955e-05,1.47635e-05,-1.14012e-06,0
-2.56663e-05,1.36584e-05,-7.37731e-06,-9.63543e-06,6.08273e-06,-9.27824e-06,1.50489e-05,-3.05311e-06,0
-2.50314e-05,1.50745e-05,-9.626e-06,-1.65898e-05,8.48357e-06,-8.69002e-06,1.4981e-05,-4.52254e-06,0
-2.50545e-05,1.59072e-05,-1.39893e-05,-2.18226e-05,8.18138e-06,-7.77501e-06,1.35665e-05,-4.25667e-06,0
-2.65544e-05,1.61808e-05,-2.02499e-05,-2.54214e-05,7.42963e-06,-6.84837e-06,1.18134e-05,-3.43206e-06,0
-2.83487e-05,1.69125e-05,-2.52723e-05,-2.77414e-05,7.70406e-06,-6.69603e-06,1.18171e-05,-2.16253e-06,0
-2.86824e-05,1.80381e-05,-2.53592e-05,-2.98979e-05,7.01538e-06,-7.19067e-06,1.28167e-05,-3.59018e-07,0
-2.82791e-05,1.81718e-05,-2.08183e-05,-3.25247e-05,5.2144e-06,-7.1013e-06,1.32596e-05,1.19578e-06,0
-2.80122e-05,1.71086e-05,-1.59168e-05,-3.48373e-05,3.58016e-06,-6.6796e-06,1.36717e-05,1.48722e-06,0
-2.76022e-05,1.62623e-05,-1.53897e-05,-3.50597e-05,3.48831e-06,-7.13988e-06,1.21907e-05,1.38158e-06,0
-2.71557e-05,1.6396e-05,-1.77133e-05,-3.16485e-05,5.39119e-06,-8.26656e-06,6.43302e-06,1.3575e-06,0
-2.74521e-05,1.71647e-05,-1.79286e-05,-2.29167e-05,6.42126e-06,-9.10268e-06,-1.50707e-06,3.92318e-07,0
-2.80671e-05,1.87686e-05,-1.7093e-05,-1.47778e-05,5.87927e-06,-8.60969e-06,-5.61523e-06,-2.29859e-06,0
-2.83071e-05,1.8832e-05,-1.74373e-05,-1.1182e-05,5.86903e-06,-7.03625e-06,-2.65921e-06,-4.1864e-06,0
-2.99099e-05,1.55992e-05,-1.9001e-05,-8.50435e-06,7.1114e-06,-7.29816e-06,4.10697e-06,-4.75136e-06,0
-3.19105e-05,1.06315e-05,-2.04315e-05,-7.20964e-06,8.52336e-06,-9.0774e-06,9.6941e-06,-4.96024e-06,0
-3.21077e-05,6.4679e-06,-2.05049e-05,-8.01715e-06,8.80644e-06,-1.03059e-05,1.20009e-05,-3.78317e-06,0
-3.00806e-05,4.96349e-06,-1.84833e-05,-9.77819e-06,9.05812e-06,-1.04495e-05,1.30373e-05,-2.19846e-06,0
-2.74685e-05,6.64537e-06,-1.52293e-05,-9.22057e-06,9.75595e-06,-9.17726e-06,1.34449e-05,-1.39993e-06,0
-2.67861e-05,1.12865e-05,-1.24823e-05,-4.71952e-06,1.11705e-05,-8.41748e-06,1.28342e-05,-2.14722e-06,0
-2.64595e-05,1.56711e-05,-1.09275e-05,-1.55252e-06,1.18568e-05,-9.04652e-06,1.17998e-05,-4.09066e-06,0
-2.63381e-05,1.77472e-05,-8.81059e-06,-1.55815e-06,1.18848e-05,-1.09002e-05,1.08565e-05,-5.88477e-06,0
-2.67501e-05,1.7769e-05,-6.24604e-06,-1.66603e-06,1.27195e-05,-1.16195e-05,9.88806e-06,-5.52556e-06,0
-2.68625e-05,1.79317e-05,-4.52205e-06,-3.95934e-07,1.32942e-05,-1.08171e-05,9.53542e-06,-4.1425e-06,0
-2.62316e-05,1.96889e-05,-4.78473e-06,7.38545e-07,1.35849e-05,-8.67328e-06,9.09308e-06,-4.14831e-06,0
-2.61689e-05,2.0688e-05,-5.27402e-06,-8.2416e-07,1.41176e-05,-6.097e-06,6.78813e-06,-5.01842e-06,0
-2.63068e-05,2.02453e-05,-3.59369e-06,-4.87675e-06,1.37294e-05,-4.83619e-06,5.2092e-06,-5.85548e-06,0
-2.59325e-05,1.84435e-05,-1.7348e-06,-8.35973e-06,1.31601e-05,-4.43466e-06,6.05182e-06,-6.41372e-06,0
-2.68494e-05,1.75715e-05,-1.96568e-06,-8.35944e-06,1.41875e-05,-4.06052e-06,7.91499e-06,-5.72784e-06,0
-2.94462e-05,1.86653e-05,-4.33652e-06,-6.69144e-06,1.60883e-05,-3.64494e-06,9.34818e-06,-3.34817e-06,0
-3.15561e-05,2.0244e-05,-6.26667e-06,-5.19509e-06,1.72936e-05,-4.1834e-06,1.02191e-05,-2.107e-06,0
-3.13048e-05,2.05877e-05,-7.29495e-06,-3.15875e-06,1.76917e-05,-5.28259e-06,1.13842e-05,-2.81526e-06,0
-2.98214e-05,1.9705e-05,-7.18957e-06,1.58084e-07,1.79699e-05,-6.09002e-06,1.27364e-05,-2.76319e-06,0
-2.88085e-05,1.95094e-05,-6.22653e-06,6.42159e-06,1.79089e-05,-5.3274e-06,1.33522e-05,-1.4815e-06,0
-2.98808e-05,1.91872e-05,-5.86282e-06,1.72493e-05,1.84546e-05,-3.72536e-06,1.33284e-05,1.82503e-07,0
-3.25037e-05,1.79561e-05,-6.09103e-06,2.82024e-05,2.08875e-05,-2.0276e-06,1.40726e-05,1.97586e-06,0
-3.3894e-05,1.52855e-05,-6.38381e-06,3.2023e-05,2.2707e-05,-1.95742e-06,1.44889e-05,2.51881e-06,0
-3.31526e-05,1.24787e-05,-7.64873e-06,2.71748e-05,2.08986e-05,-4.53998e-06,1.35507e-05,2.11959e-06,0
-3.25895e-05,1.1964e-05,-9.38587e-06,1.74013e-05,1.82807e-05,-6.38939e-06,1.25767e-05,1.79493e-06,0
-3.33044e-05,1.43176e-05,-9.31899e-06,8.12681e-06,1.64077e-05,-5.86441e-06,1.31937e-05,2.06986e-06,0
-3.33339e-05,1.82476e-05,-7.97528e-06,2.02755e-06,1.55802e-05,-5.13656e-06,1.50985e-05,2.56936e-06,0
-3.24696e-05,2.30479e-05,-7.26591e-06,-2.72736e-06,1.31756e-05,-7.16495e-06,1.67861e-05,2.47885e-06,0
-3.20719e-05,2.92903e-05,-7.1847e-06,-5.67316e-06,7.38039e-06,-9.97494e-06,1.76107e-05,2.01915e-06,0
-3.25666e-05,3.40137e-05,-6.22498e-06,-6.69499e-06,4.06804e-06,-1.02254e-05,1.78676e-05,1.86322e-06,0
-3.32993e-05,3.44644e-05,-4.12024e-06,-8.66185e-06,4.25278e-06,-7.89661e-06,1.75191e-05,3.57418e-06,0
-3.27131e-05,2.95635e-05,-3.57969e-06,-1.15239e-05,5.33153e-06,-7.21612e-06,1.57854e-05,4.76116e-06,0
-3.17301e-05,2.12489e-05,-4.56936e-06,-1.4628e-05,8.81613e-06,-9.99884e-06,1.50415e-05,4.7144e-06,0
-3.23116e-05,1.21847e-05,-5.41841e-06,-1.83321e-05,1.31042e-05,-1.14578e-05,1.62552e-05,5.46687e-06,0
-3.37208e-05,4.17988e-06,-6.26541e-06,-1.79848e-05,1.37122e-05,-1.14304e-05,1.7548e-05,6.34472e-06,0
-3.38877e-05,1.38385e-06,-6.64877e-06,-1.43723e-05,1.39247e-05,-1.07718e-05,1.78964e-05,6.44518e-06,0
-3.22371e-05,2.12074e-06,-6.35669e-06,-1.38883e-05,1.58438e-05,-8.78782e-06,1.73004e-05,5.36647e-06,0
-2.98853e-05,3.74235e-06,-5.75049e-06,-1.21817e-05,1.70967e-05,-7.34954e-06,1.62627e-05,3.61531e-06,0
-2.85122e-05,4.8833e-06,-5.71724e-06,-6.90918e-06,1.79973e-05,-7.21486e-06,1.44431e-05,2.52532e-06,0
-2.92932e-05,4.80384e-06,-5.25694e-06,-3.81837e-06,1.71328e-05,-7.23634e-06,1.21934e-05,2.63785e-06,0
-3.0654e-05,5.02468e-06,-2.98275e-06,-6.46181e-06,1.40189e-05,-6.97584e-06,1.07698e-05,4.03334e-06,0
-3.06576e-05,6.3563e-06,-4.1392e-07,-1.08293e-05,1.04422e-05,-6.49161e-06,1.12338e-05,5.9798e-06,0
-2.95843e-05,7.5938e-06,-3.30487e-07,-1.3853e-05,7.37568e-06,-6.19947e-06,1.23333e-05,7.05288e-06,0
-2.91757e-05,8.05972e-06,-2.72522e-06,-1.64436e-05,4.41713e-06,-7.05451e-06,1.20529e-05,6.26677e-06,0
-3.04617e-05,7.14575e-06,-7.71364e-06,-1.87102e-05,3.36916e-06,-8.07428e-06,1.00662e-05,4.56541e-06,0
-3.16014e-05,4.58116e-06,-1.52052e-05,-2.0953e-05,6.23666e-06,-9.07929e-06,7.56407e-06,3.27016e-06,0
-3.13176e-05,1.62204e-06,-2.09152e-05,-2.57148e-05,1.02432e-05,-1.07715e-05,6.63461e-06,1.54227e-06,0
-3.0992e-05,-1.7325e-06,-2.14295e-05,-3.46393e-05,1.2351e-05,-1.16204e-05,8.29235e-06,-2.96146e-08,0
-3.1276e-05,-3.0078e-06,-1.96676e-05,-4.21058e-05,1.19979e-05,-9.93022e-06,1.11714e-05,5.56355e-07,0
-3.10295e-05,-1.59754e-06,-1.76828e-05,-3.92988e-05,1.20654e-05,-6.14841e-06,1.48422e-05,1.92662e-06,0
-3.01178e-05,2.22113e-07,-1.48438e-05,-2.21684e-05,1.61867e-05,-3.35287e-06,1.82627e-05,2.14429e-06,0
-2.81811e-05,-1.04347e-08,-1.22063e-05,3.67036e-06,2.59843e-05,-2.87232e-06,1.8506e-05,1.36877e-06,0
-2.64216e-05,-1.21831e-06,-9.87082e-06,2.93497e-05,3.6095e-05,-2.94295e-06,1.71582e-05,9.48976e-07,0
-2.7185e-05,-1.14946e-06,-8.2861e-06,4.95343e-05,3.70084e-05,-4.26748e-06,1.66415e-05,2.23841e-06,0
-2.94175e-05,-3.65981e-07,-8.0357e-06,6.34721e-05,2.9116e-05,-6.66052e-06,1.6052e-05,3.67789e-06,0
-3.1519e-05,1.12865e-07,-6.628e-06,6.55475e-05,2.216e-05,-8.50647e-06,1.5596e-05,3.0779e-06,0
-3.15672e-05,1.68703e-06,-4.17089e-06,5.02261e-05,2.14664e-05,-8.71446e-06,1.66455e-05,5.26944e-07,0
-2.93205e-05,3.78844e-06,-2.80833e-06,2.50094e-05,2.32677e-05,-7.47697e-06,1.71009e-05,-8.0103e-07,0
-2.61758e-05,1.90981e-06,-2.08498e-06,7.51462e-08,2.29449e-05,-6.45692e-06,1.66042e-05,-1.61299e-06,0
-2.54987e-05,-2.71553e-06,-2.24988e-06,-1.65865e-05,2.0527e-05,-6.38325e-06,1.57807e-05,-2.1461e-06,0
-2.74198e-05,-7.1017e-06,-3.32924e-06,-2.2358e-05,1.81144e-05,-9.0582e-06,1.46951e-05,-2.77648e-06,0
-2.83481e-05,-7.59103e-06,-5.87456e-06,-1.75617e-05,1.81992e-05,-1.31733e-05,1.44642e-05,-2.59962e-06,0
-2.83612e-05,-4.59145e-06,-8.81552e-06,-1.76571e-06,2.04875e-05,-1.50627e-05,1.30515e-05,-1.28225e-08,0
-2.86245e-05,-6.7706e-07,-1.0212e-05,1.63743e-05,2.05801e-05,-1.43374e-05,1.17357e-05,2.55867e-06,0
-3.0122e-05,2.24098e-06,-1.01431e-05,2.44249e-05,1.7681e-05,-1.26068e-05,1.1526e-05,3.9489e-06,0
-3.17139e-05,3.52925e-06,-9.56717e-06,2.02275e-05,1.32885e-05,-1.1655e-05,1.13947e-05,3.64607e-06,0
-3.14106e-05,5.02627e-06,-8.78034e-06,1.23381e-05,9.96913e-06,-1.12857e-05,1.14971e-05,2.40653e-06,0
-2.92944e-05,7.301e-06,-7.15476e-06,8.92224e-06,9.28182e-06,-1.0338e-05,1.25029e-05,2.97617e-07,0
-2.91664e-05,9.67373e-06,-5.2192e-06,7.69581e-06,1.09407e-05,-1.01128e-05,1.30742e-05,-2.72548e-07,0
-3.18978e-05,9.50048e-06,-3.81462e-06,2.6166e-06,1.27684e-05,-1.20766e-05,1.14287e-05,1.04955e-06,0
-3.41899e-05,8.29969e-06,-2.58039e-06,-6.02962e-06,1.16234e-05,-1.44049e-05,9.9708e-06,1.88697e-06,0
-3.4807e-05,7.95059e-06,-2.29897e-06,-1.43753e-05,8.77917e-06,-1.49767e-05,1.02501e-05,6.95576e-07,0
-3.45976e-05,9.45241e-06,-3.9508e-06,-2.14846e-05,6.62953e-06,-1.50889e-05,1.10291e-05,-1.05442e-06,0
-3.39157e-05,1.16284e-05,-5.67805e-06,-2.82279e-05,6.88438e-06,-1.54649e-05,1.0531e-05,-1.01424e-06,0
-3.18128e-05,1.33064e-05,-5.23883e-06,-3.48693e-05,8.41513e-06,-1.49921e-05,1.05475e-05,1.06727e-06,0
-3.06432e-05,1.40697e-05,-3.56221e-06,-3.98787e-05,9.99691e-06,-1.41782e-05,1.23854e-05,3.53906e-06,0
-3.22031e-05,1.45093e-05,-3.32343e-06,-4.04205e-05,1.23535e-05,-1.36182e-05,1.33143e-05,4.79044e-06,0
-3.41003e-05,1.47643e-05,-4.31389e-06,-3.74197e-05,1.44553e-05,-1.3431e-05,1.20059e-05,3.84881e-06,0
-3.51009e-05,1.52964e-05,-4.8276e-06,-3.21562e-05,1.40744e-05,-1.37072e-05,9.50917e-06,9.38108e-07,0
-3.45049e-05,1.71406e-05,-4.2606e-06,-2.46618e-05,1.24713e-05,-1.47483e-05,7.21733e-06,-8.64019e-07,0
-3.29885e-05,1.77041e-05,-3.84498e-06,-1.70774e-05,1.29729e-05,-1.50899e-05,6.01906e-06,6.54025e-08,0
-3.31002e-05,1.48299e-05,-4.01035e-06,-1.11532e-05,1.48528e-05,-1.37279e-05,5.2186e-06,2.05849e-06,0
-3.30765e-05,1.24976e-05,-5.2267e-06,-8.13929e-06,1.46202e-05,-1.30897e-05,6.89398e-06,-8.73395e-08,0
-3.13797e-05,1.41098e-05,-5.98736e-06,-7.81937e-06,1.21475e-05,-1.34958e-05,1.08696e-05,-3.35352e-06,0
-2.97048e-05,1.73615e-05,-6.73525e-06,-8.04176e-06,9.51951e-06,-1.36358e-05,1.39083e-05,-1.89703e-06,0
-2.91785e-05,1.97792e-05,-7.91634e-06,-6.90724e-06,7.68515e-06,-1.28692e-05,1.40852e-05,2.24801e-06,0
-3.02502e-05,1.88948e-05,-7.55659e-06,-4.17883e-06,8.01086e-06,-1.23959e-05,1.19306e-05,4.94297e-06,0
-3.07116e-05,1.6468e-05,-8.02496e-06,-4.43007e-06,8.53226e-06,-1.3749e-05,1.05203e-05,5.11883e-06,0
-3.01501e-05,1.55978e-05,-8.45222e-06,-6.92527e-06,7.2563e-06,-1.53513e-05,1.09397e-05,3.83967e-06,0
-3.0858e-05,1.72336e-05,-8.45342e-06,-9.1697e-06,7.10076e-06,-1.57803e-05,1.15908e-05,2.29534e-06,0
-3.12387e-05,1.79709e-05,-8.76844e-06,-1.11702e-05,7.95779e-06,-1.53173e-05,1.07972e-05,2.44993e-06,0
-2.94645e-05,1.57838e-05,-9.84306e-06,-1.01781e-05,8.5858e-06,-1.42258e-05,9.88732e-06,1.27717e-06,0
-2.66904e-05,1.24804e-05,-1.10243e-05,-6.07268e-06,8.15174e-06,-1.35781e-05,9.88105e-06,-1.09608e-06,0
-2.51922e-05,1.23111e-05,-1.06967e-05,-2.43133e-06,8.22895e-06,-1.39153e-05,1.07091e-05,-2.25044e-06,0
-2.63572e-05,1.34695e-05,-9.37152e-06,-1.27705e-06,8.50339e-06,-1.41116e-05,1.13788e-05,-1.79323e-06,0
-2.9144e-05,1.10018e-05,-8.14459e-06,-1.37259e-06,6.61458e-06,-1.36195e-05,1.10561e-05,-1.01057e-06,0
-3.08143e-05,6.0223e-06,-7.23672e-06,-2.15046e-06,3.53039e-06,-1.32799e-05,9.84885e-06,-1.312e-06,0
-3.08342e-05,3.20929e-06,-5.48081e-06,-3.20595e-06,1.32216e-06,-1.29046e-05,9.35339e-06,-2.03202e-06,0
-3.02607e-05,4.96532e-06,-2.96825e-06,-3.28685e-06,2.17748e-06,-1.08906e-05,1.01587e-05,-2.97604e-06,0
-2.98341e-05,7.97866e-06,-1.75742e-06,-2.02243e-06,4.47443e-06,-8.69142e-06,1.06567e-05,-4.47368e-06,0
-2.93169e-05,9.15943e-06,-2.4656e-06,-4.00364e-07,6.84811e-06,-8.39307e-06,9.91434e-06,-5.81907e-06,0
-2.79515e-05,8.075e-06,-2.52437e-06,6.51842e-07,8.23236e-06,-9.96144e-06,9.00765e-06,-5.26204e-06,0
-2.70784e-05,6.75245e-06,-2.54539e-06,-6.87311e-07,8.57941e-06,-1.09024e-05,8.66007e-06,-4.35523e-06,0
-2.73236e-05,3.80357e-06,-3.96415e-06,-2.51644e-06,8.29196e-06,-9.85457e-06,8.31117e-06,-4.26712e-06,0
-2.7351e-05,-1.19497e-06,-7.21903e-06,-3.36531e-06,7.06048e-06,-8.83399e-06,8.63279e-06,-4.48535e-06,0
-2.71019e-05,-5.29025e-06,-1.0242e-05,-5.89755e-06,6.35701e-06,-8.15573e-06,9.62917e-06,-3.72843e-06,0
-2.7634e-05,-7.90517e-06,-1.15505e-05,-1.01429e-05,6.03154e-06,-8.10077e-06,9.75186e-06,-4.61579e-06,0
-2.84867e-05,-1.01125e-05,-1.26483e-05,-1.21149e-05,5.16104e-06,-7.87703e-06,8.67868e-06,-5.37312e-06,0
-2.95327e-05,-1.0893e-05,-1.22983e-05,-1.1922e-05,6.86648e-06,-6.36767e-06,8.60166e-06,-3.97174e-06,0
-2.98477e-05,-8.28675e-06,-8.49306e-06,-1.03366e-05,9.87827e-06,-5.02828e-06,9.6179e-06,-1.9295e-06,0
-2.78323e-05,-2.28664e-06,-4.85577e-06,-6.46412e-06,1.1676e-05,-4.78954e-06,1.0934e-05,1.32515e-07,0
-2.59313e-05,7.52414e-06,-5.71486e-06,-2.24657e-06,1.15115e-05,-5.89887e-06,1.11405e-05,2.44489e-07,0
-2.5201e-05,2.16311e-05,-7.35819e-06,1.58352e-06,1.06337e-05,-8.17932e-06,1.07674e-05,-2.25651e-07,0
-2.49517e-05,3.5268e-05,-5.73218e-06,5.70995e-06,1.08525e-05,-9.96602e-06,1.06829e-05,4.29687e-07,0
-2.5482e-05,4.45525e-05,-2.96491e-06,8.67864e-06,9.50947e-06,-1.00058e-05,9.54292e-06,1.80182e-06,0
-2.6503e-05,4.53643e-05,-1.73482e-06,1.06179e-05,6.8639e-06,-9.98983e-06,8.82349e-06,2.70174e-06,0
-2.78668e-05,3.74928e-05,-2.08146e-06,1.14595e-05,5.70908e-06,-1.06753e-05,8.72439e-06,4.31041e-06,0
-2.91053e-05,2.39304e-05,-2.75257e-06,6.92017e-06,6.12196e-06,-1.17392e-05,9.56146e-06,6.74146e-06,0
-2.975e-05,5.38269e-06,-2.22553e-06,-5.18325e-07,7.82323e-06,-1.29721e-05,1.07068e-05,8.09651e-06,0
-3.00044e-05,-1.48039e-05,-1.26099e-06,-5.63392e-06,1.12624e-05,-1.39246e-05,1.12384e-05,8.20805e-06,0
-3.09391e-05,-2.7935e-05,-1.6004e-06,-6.36444e-06,1.38507e-05,-1.36695e-05,1.187e-05,8.53821e-06,0
-3.27448e-05,-2.77868e-05,-3.22149e-06,-4.54104e-06,1.51849e-05,-1.20624e-05,1.31323e-05,8.96235e-06,0
-3.53025e-05,-1.94454e-05,-4.84283e-06,-2.57005e-06,1.69706e-05,-9.89314e-06,1.36812e-05,8.86555e-06,0
-3.73999e-05,-9.78796e-06,-6.8719e-06,-6.02189e-07,1.88303e-05,-7.89453e-06,1.33193e-05,7.90797e-06,0
-3.82748e-05,-2.6238e-06,-9.43476e-06,3.4164e-06,1.84814e-05,-7.67229e-06,1.39301e-05,6.82269e-06,0
-3.74016e-05,2.49878e-06,-1.13734e-05,1.22687e-05,1.68456e-05,-8.89035e-06,1.47565e-05,6.52776e-06,0
-3.59498e-05,6.30013e-06,-1.21405e-05,2.33289e-05,1.69025e-05,-9.4716e-06,1.42389e-05,5.42984e-06,0
-3.47972e-05,8.58538e-06,-1.1998e-05,2.96536e-05,1.75165e-05,-8.48243e-06,1.26882e-05,3.48406e-06,0
-3.33827e-05,1.0285e-05,-1.24653e-05,2.87166e-05,1.62847e-05,-8.4162e-06,1.18144e-05,2.22175e-06,0
-3.24652e-05,1.35534e-05,-1.43589e-05,2.03873e-05,1.55886e-05,-9.69015e-06,1.18172e-05,2.72209e-06,0
-3.23854e-05,1.74372e-05,-1.6298e-05,4.93654e-06,1.64899e-05,-1.04105e-05,1.23133e-05,4.18375e-06,0
-3.28205e-05,1.84508e-05,-1.62817e-05,-1.19164e-05,1.62222e-05,-9.61099e-06,1.18445e-05,3.82924e-06,0
-3.33783e-05,1.61446e-05,-1.54066e-05,-2.35513e-05,1.49493e-05,-6.58594e-06,1.05175e-05,2.29489e-06,0
-3.41767e-05,1.52764e-05,-1.61359e-05,-2.41847e-05,1.39562e-05,-4.57386e-06,8.82377e-06,1.01924e-06,0
-3.39962e-05,1.7067e-05,-1.6996e-05,-1.68556e-05,1.33172e-05,-5.53832e-06,7.30879e-06,9.91306e-07,0
-3.26022e-05,1.78702e-05,-1.69187e-05,-1.11157e-05,1.32122e-05,-5.98145e-06,5.50446e-06,1.73103e-06,0
-3.0255e-05,1.81329e-05,-1.59258e-05,-9.28729e-06,1.29048e-05,-5.52555e-06,4.17164e-06,1.24529e-06,0
-2.96641e-05,1.83977e-05,-1.40167e-05,-7.8216e-06,1.16437e-05,-5.56115e-06,6.90716e-06,2.46808e-07,0
-3.07751e-05,1.84684e-05,-1.21106e-05,-5.49524e-06,1.02329e-05,-6.13e-06,1.11548e-05,-1.56554e-06,0
-3.19133e-05,1.85957e-05,-9.07384e-06,-2.33901e-06,9.80464e-06,-7.76392e-06,1.2771e-05,-2.27479e-06,0
-3.3446e-05,1.85077e-05,-6.46799e-06,6.78006e-07,1.25408e-05,-8.21573e-06,1.1563e-05,-1.18999e-06,0
-3.33086e-05,1.90032e-05,-5.19482e-06,2.14974e-06,1.54223e-05,-7.32182e-06,9.69391e-06,-1.33614e-06,0
-3.18991e-05,1.90443e-05,-5.22591e-06,2.43782e-06,1.54855e-05,-8.36744e-06,9.12322e-06,-3.48712e-06,0
-3.12501e-05,1.85486e-05,-6.48721e-06,2.52901e-06,1.43118e-05,-1.12891e-05,9.8326e-06,-4.83502e-06,0
-3.19875e-05,1.77559e-05,-7.69452e-06,2.51847e-06,1.26051e-05,-1.21048e-05,1.19272e-05,-4.24941e-06,0
-3.19685e-05,1.75767e-05,-9.29819e-06,2.16364e-06,1.20848e-05,-1.04625e-05,1.47832e-05,-4.13709e-06,0
-3.07956e-05,1.84362e-05,-1.13887e-05,8.74483e-07,1.25927e-05,-9.42116e-06,1.67987e-05,-4.60548e-06,0
-2.96012e-05,1.82898e-05,-1.32916e-05,-1.49232e-06,1.28411e-05,-9.67209e-06,1.80422e-05,-5.25449e-06,0
-2.88799e-05,1.66368e-05,-1.44383e-05,-3.20167e-06,1.25536e-05,-1.1028e-05,1.96741e-05,-5.27694e-06,0
-2.96455e-05,1.42705e-05,-1.53367e-05,-3.94736e-06,1.25111e-05,-1.20584e-05,2.07655e-05,-3.79492e-06,0
-3.24293e-05,1.39784e-05,-1.59181e-05,-5.32883e-06,1.26105e-05,-1.16799e-05,1.99441e-05,-2.21167e-06,0
-3.53915e-05,1.60539e-05,-1.58573e-05,-7.5117e-06,1.21789e-05,-1.11069e-05,1.69069e-05,-1.66069e-06,0
-3.56019e-05,1.88859e-05,-1.5456e-05,-8.97645e-06,1.28725e-05,-1.22221e-05,1.39451e-05,-1.18109e-06,0
-3.32963e-05,2.09013e-05,-1.51843e-05,-9.33857e-06,1.51046e-05,-1.46821e-05,1.45562e-05,-1.08923e-06,0
-3.06929e-05,2.28144e-05,-1.54791e-05,-9.06274e-06,1.773e-05,-1.59133e-05,1.95636e-05,-2.54928e-06,0
-3.04164e-05,2.47836e-05,-1.59403e-05,-9.34886e-06,1.91108e-05,-1.45977e-05,2.58303e-05,-4.43657e-06,0
-3.22054e-05,2.59928e-05,-1.45125e-05,-1.03633e-05,1.73309e-05,-1.26029e-05,2.81881e-05,-5.5917e-06,0
-3.33502e-05,2.70868e-05,-1.17581e-05,-1.10632e-05,1.45367e-05,-1.18794e-05,2.5482e-05,-5.42313e-06,0
-3.1651e-05,2.99477e-05,-1.14073e-05,-1.17023e-05,1.45465e-05,-1.09357e-05,1.98203e-05,-4.13254e-06,0
-2.97661e-05,3.30063e-05,-1.36088e-05,-1.35981e-05,1.716e-05,-9.88414e-06,1.21907e-05,-2.9244e-06,0
-3.02396e-05,3.29698e-05,-1.45658e-05,-1.52985e-05,1.95715e-05,-1.09743e-05,1.13093e-06,-2.42695e-06,0
-2.99018e-05,3.28417e-05,-1.31427e-05,-1.34732e-05,1.98469e-05,-1.29515e-05,-8.94101e-06,-1.69414e-06,0
-2.846e-05,3.36481e-05,-1.0016e-05,-7.29749e-06,1.93588e-05,-1.41619e-05,-1.24033e-05,2.73133e-07,0
-2.82909e-05,3.39132e-05,-8.81155e-06,5.16254e-07,1.68931e-05,-1.31683e-05,-9.53741e-06,2.27244e-06,0
-2.85532e-05,3.26523e-05,-9.40596e-06,5.46876e-06,1.39998e-05,-9.95212e-06,-3.15668e-06,2.7649e-06,0
-2.81439e-05,2.84663e-05,-8.35989e-06,5.90798e-06,1.43632e-05,-7.86074e-06,3.88769e-06,2.00696e-06,0
-2.75283e-05,2.45749e-05,-7.74975e-06,3.85568e-06,1.68004e-05,-7.27801e-06,1.13854e-05,2.61922e-06,0
-2.71003e-05,2.40743e-05,-7.28216e-06,2.2215e-07,1.81756e-05,-8.32883e-06,1.87679e-05,5.17988e-06,0
-2.62783e-05,2.64873e-05,-7.10885e-06,-2.91491e-06,1.53461e-05,-1.0534e-05,2.45281e-05,8.73141e-06,0
-2.56627e-05,2.74528e-05,-6.94941e-06,-6.1697e-06,1.14844e-05,-1.13016e-05,2.78389e-05,1.07708e-05,0
-2.69851e-05,2.65952e-05,-6.47454e-06,-1.10016e-05,1.03793e-05,-1.03376e-05,2.80922e-05,8.88599e-06,0
-2.93898e-05,2.47552e-05,-6.29699e-06,-1.59419e-05,1.25409e-05,-9.41887e-06,2.5222e-05,4.82213e-06,0
-3.10224e-05,2.19861e-05,-6.97945e-06,-1.87344e-05,1.51402e-05,-9.93605e-06,2.16417e-05,1.37018e-06,0
-3.13781e-05,2.11059e-05,-6.70296e-06,-1.90963e-05,1.55917e-05,-1.13233e-05,1.91906e-05,1.57455e-06,0
-3.10124e-05,2.15783e-05,-4.3531e-06,-1.73368e-05,1.51401e-05,-1.16347e-05,1.92479e-05,4.46362e-06,0
-3.02652e-05,2.22423e-05,-2.19899e-06,-1.39592e-05,1.5489e-05,-1.06486e-05,2.01923e-05,5.869e-06,0
-2.99466e-05,2.23157e-05,-5.53944e-07,-1.30466e-05,1.63451e-05,-1.00196e-05,2.03907e-05,4.57617e-06,0
-2.96768e-05,2.19004e-05,1.51181e-07,-1.49053e-05,1.62654e-05,-9.89589e-06,2.06447e-05,3.17035e-06,0
-2.82959e-05,2.08057e-05,-1.10295e-06,-1.6166e-05,1.69672e-05,-1.00753e-05,2.11393e-05,2.77425e-06,0
-2.6675e-05,1.97882e-05,-4.2151e-06,-1.42839e-05,2.07254e-05,-1.06314e-05,2.11165e-05,2.92081e-06,0
-2.68448e-05,1.91505e-05,-5.64168e-06,-1.0312e-05,2.64056e-05,-1.13073e-05,2.00707e-05,2.25313e-06,0
-2.87081e-05,1.81288e-05,-3.9084e-06,-4.97076e-06,2.93773e-05,-1.1501e-05,1.8919e-05,1.51397e-06,0
-3.02424e-05,1.63363e-05,-1.86312e-06,-3.11278e-07,2.63802e-05,-1.13801e-05,1.78681e-05,2.56837e-06,0
-3.07912e-05,1.47369e-05,-2.61171e-06,2.3301e-06,2.08321e-05,-1.17689e-05,1.62693e-05,3.43473e-06,0
-3.10786e-05,1.3243e-05,-5.34352e-06,2.44465e-06,1.83176e-05,-1.21016e-05,1.42358e-05,3.44243e-06,0
-3.1513e-05,1.22889e-05,-7.8631e-06,1.10899e-06,1.84616e-05,-1.13117e-05,1.3579e-05,2.45012e-06,0
-3.12773e-05,1.12664e-05,-9.67799e-06,1.04983e-06,1.97331e-05,-1.07985e-05,1.31985e-05,1.45172e-06,0
-2.98138e-05,9.73745e-06,-9.58748e-06,-8.53975e-07,2.10568e-05,-1.16888e-05,1.23552e-05,1.43712e-06,0
-2.79874e-05,8.39618e-06,-6.87714e-06,-6.93153e-06,2.0479e-05,-1.2692e-05,1.18769e-05,1.86946e-06,0
-2.76236e-05,5.89615e-06,-4.08512e-06,-1.34175e-05,1.82607e-05,-1.25363e-05,1.01672e-05,1.4397e-06,0
-2.8017e-05,2.22883e-06,-1.44847e-06,-1.55297e-05,1.5875e-05,-1.11438e-05,5.31687e-06,5.08518e-08,0
-2.7523e-05,-1.53838e-06,1.35186e-07,-1.45627e-05,1.49751e-05,-1.05242e-05,6.64706e-07,6.22679e-07,0
-2.73998e-05,-3.87134e-06,-1.71657e-06,-1.52498e-05,1.52012e-05,-1.10022e-05,-1.04675e-06,1.81303e-06,0
-2.86561e-05,-3.07763e-06,-2.69518e-06,-2.08979e-05,1.64604e-05,-1.17845e-05,-3.02072e-06,2.03767e-06,0
-3.01288e-05,-6.40292e-07,-2.13566e-06,-2.69318e-05,1.77697e-05,-1.22877e-05,-8.13959e-06,2.11596e-06,0
-2.95439e-05,1.00951e-06,-2.58948e-06,-2.56699e-05,1.6656e-05,-1.07109e-05,-1.22452e-05,3.04572e-06,0
-2.79942e-05,2.49361e-06,-3.37186e-06,-1.56647e-05,1.39934e-05,-8.75444e-06,-1.37746e-05,4.22992e-06,0
-2.81326e-05,3.53879e-06,-3.84396e-06,3.69528e-06,1.26485e-05,-7.84576e-06,-1.35982e-05,4.89553e-06,0
-2.82746e-05,4.60277e-06,-3.1784e-06,2.51638e-05,1.28176e-05,-8.24237e-06,-9.49432e-06,5.44079e-06,0
-2.84439e-05,5.8449e-06,-2.42492e-06,3.6807e-05,1.16989e-05,-9.49406e-06,-2.73246e-06,5.24627e-06,0
-3.00276e-05,6.78279e-06,-1.27594e-06,3.37904e-05,9.07152e-06,-9.46066e-06,4.20271e-06,4.64784e-06,0
-3.18473e-05,8.21498e-06,-1.01053e-06,2.09705e-05,7.24847e-06,-9.15695e-06,8.74138e-06,3.71469e-06,0
-3.24008e-05,1.10223e-05,-2.20419e-06,8.15749e-06,7.02028e-06,-9.29056e-06,1.10558e-05,3.20965e-06,0
-3.27779e-05,1.4075e-05,-3.5976e-06,-1.82276e-07,7.15308e-06,-8.74723e-06,1.22864e-05,3.83045e-06,0
-3.35145e-05,1.53631e-05,-5.65106e-06,-6.48609e-06,6.5646e-06,-7.33531e-06,1.30409e-05,4.8388e-06,0
-3.35051e-05,1.46272e-05,-7.52687e-06,-1.25665e-05,6.03641e-06,-6.44239e-06,1.26973e-05,4.33724e-06,0
-3.25554e-05,1.23305e-05,-8.86564e-06,-1.66199e-05,7.11834e-06,-5.61603e-06,1.16674e-05,3.04562e-06,0
-3.0564e-05,9.49624e-06,-8.98279e-06,-1.78161e-05,9.02915e-06,-3.67002e-06,1.18781e-05,2.60452e-06,0
-2.85155e-05,8.20773e-06,-8.18975e-06,-1.66564e-05,9.57688e-06,-1.64904e-06,1.34435e-05,2.86945e-06,0
-2.81918e-05,9.07422e-06,-7.2537e-06,-1.4612e-05,8.07084e-06,-8.06429e-07,1.56093e-05,2.9235e-06,0
-2.95766e-05,9.62327e-06,-7.21738e-06,-1.32117e-05,7.09689e-06,-1.65068e-06,1.79127e-05,2.92223e-06,0
-2.95127e-05,8.60458e-06,-7.31665e-06,-1.1686e-05,9.68039e-06,-4.06599e-06,1.96288e-05,4.55639e-06,0
-2.77383e-05,6.7441e-06,-6.8155e-06,-8.54184e-06,1.24924e-05,-5.12637e-06,1.95546e-05,6.20861e-06,0
-2.66756e-05,6.11151e-06,-6.03011e-06,-5.86716e-06,1.25769e-05,-3.79964e-06,1.78773e-05,5.19523e-06,0
-2.65729e-05,6.61873e-06,-6.50937e-06,-6.06372e-06,1.16772e-05,-3.42919e-06,1.71461e-05,3.27866e-06,0
-2.69254e-05,4.86075e-06,-8.66232e-06,-8.7012e-06,1.16533e-05,-3.30433e-06,1.78505e-05,4.15901e-06,0
-2.79212e-05,3.71517e-06,-9.3569e-06,-1.16628e-05,1.26458e-05,-2.55054e-06,1.99557e-05,6.0546e-06,0
-2.83845e-05,4.90009e-06,-8.34501e-06,-1.35954e-05,1.27151e-05,-1.4369e-06,2.28361e-05,4.85923e-06,0
-2.75793e-05,5.22749e-06,-7.78052e-06,-1.41917e-05,1.30001e-05,-3.83136e-07,2.4965e-05,3.17611e-06,0
-2.76227e-05,5.65887e-06,-8.32151e-06,-1.50356e-05,1.41457e-05,-2.33161e-07,2.5129e-05,3.3782e-06,0
-2.84621e-05,6.90347e-06,-9.35361e-06,-1.63911e-05,1.39101e-05,-1.06988e-06,2.45509e-05,3.8135e-06,0
-2.86119e-05,7.05342e-06,-8.92948e-06,-1.88936e-05,1.38264e-05,-2.99815e-06,2.50153e-05,2.85405e-06,0
-2.78866e-05,6.80431e-06,-9.29425e-06,-1.90235e-05,1.52644e-05,-4.01203e-06,2.36745e-05,2.53483e-06,0
-2.57212e-05,8.7658e-06,-9.89533e-06,-1.5723e-05,1.56415e-05,-4.08936e-06,2.21773e-05,3.81032e-06,0
-2.55403e-05,1.23501e-05,-9.0093e-06,-1.07266e-05,1.54471e-05,-3.35541e-06,2.15507e-05,5.12451e-06,0
-2.68611e-05,1.539e-05,-8.81245e-06,-6.05745e-06,1.67061e-05,-3.24476e-06,2.0361e-05,5.61898e-06,0
-2.7036e-05,1.69016e-05,-8.39111e-06,-3.65923e-06,1.65811e-05,-4.20857e-06,1.77223e-05,3.72004e-06,0
-2.71588e-05,1.70494e-05,-8.52551e-06,-6.12331e-07,1.41359e-05,-3.67395e-06,1.40854e-05,9.89396e-07,0
-2.77563e-05,1.69279e-05,-8.22817e-06,1.87941e-06,1.16302e-05,-2.71968e-06,1.24978e-05,-1.1689e-06,0
-2.87816e-05,1.81184e-05,-6.90817e-06,2.0512e-06,1.20436e-05,-3.35165e-06,1.39431e-05,-1.65605e-06,0
-2.97302e-05,2.0689e-05,-5.30664e-06,-9.53311e-08,1.44943e-05,-5.96854e-06,1.57252e-05,-1.02815e-06,0
-3.1104e-05,2.28499e-05,-5.45329e-06,-1.62835e-06,1.61425e-05,-9.48047e-06,1.54643e-05,5.61319e-07,0
-3.11651e-05,2.29065e-05,-7.1811e-06,-2.54577e-06,1.65265e-05,-1.21806e-05,1.45386e-05,1.77686e-06,0
-3.03845e-05,2.153e-05,-9.54086e-06,-4.24009e-06,1.68822e-05,-1.27322e-05,1.45982e-05,1.54277e-06,0
-3.03197e-05,1.93735e-05,-1.28549e-05,-6.20662e-06,1.9138e-05,-1.22393e-05,1.59356e-05,2.0968e-07,0
