ch1,ch2,ch3,ch4,ch5,ch6,ch7,ch8,class
-1.58838e-05,3.03936e-05,-6.23363e-06,1.77126e-05,-6.3074e-06,-1.59314e-05,-2.88148e-05,-8.04896e-06,0
-1.74596e-05,2.91445e-05,-1.78219e-06,-8.24992e-05,-3.30948e-05,-2.34747e-05,-3.12826e-05,-8.1097e-06,0
-2.36993e-05,2.77755e-05,1.78318e-07,-0.000127773,-5.13875e-05,-2.98745e-05,-3.24649e-05,-1.02041e-05,0
-2.74101e-05,2.43036e-05,-3.23301e-06,-0.000111552,-5.07937e-05,-2.93402e-05,-3.0815e-05,-1.0065e-05,0
-2.43458e-05,2.17902e-05,-1.06715e-05,-2.02871e-05,-3.5481e-05,-2.33696e-05,-2.8911e-05,-7.14211e-06,0
-1.70966e-05,2.3634e-05,-1.59616e-05,0.000153876,-9.28475e-06,-1.57629e-05,-2.84622e-05,-4.14697e-06,0
-1.09404e-05,2.67073e-05,-1.44215e-05,0.000363372,2.65034e-05,-7.09144e-06,-2.94709e-05,4.42548e-07,0
-8.98342e-06,2.5989e-05,-9.05862e-06,0.000489886,6.1041e-05,2.69535e-06,-2.87052e-05,1.44951e-05,0
-1.23028e-05,2.10591e-05,-6.36572e-06,0.000357652,7.44312e-05,1.06318e-05,-2.47108e-05,3.9784e-05,0
-1.76544e-05,1.85366e-05,-6.6499e-06,1.08698e-05,6.08926e-05,1.24379e-05,-1.89331e-05,6.0552e-05,0
-2.01317e-05,2.14422e-05,-6.66467e-06,-0.000251594,3.44934e-05,9.29362e-06,-1.5525e-05,6.35379e-05,0
-2.07855e-05,2.42813e-05,-5.314e-06,-0.000262699,4.90085e-06,5.93494e-06,-1.49575e-05,5.34336e-05,0
-2.30785e-05,2.3445e-05,-6.08973e-06,-0.00013277,-2.38035e-05,4.50982e-06,-1.59114e-05,4.37293e-05,0
-2.75396e-05,2.07221e-05,-1.0527e-05,-3.29971e-06,-4.66829e-05,3.87853e-06,-1.92567e-05,3.56645e-05,0
-3.18401e-05,1.98306e-05,-1.18234e-05,7.0541e-05,-5.83144e-05,-7.55688e-07,-2.4251e-05,1.6477e-05,0
-3.19745e-05,2.5009e-05,-4.39166e-06,1.57532e-05,-6.20543e-05,-2.16939e-05,-2.3661e-05,-1.63372e-05,0
-2.88809e-05,3.43253e-05,2.25449e-06,-0.000120138,-7.00533e-05,-5.52478e-05,-1.56103e-05,-4.98249e-05,0
-2.46672e-05,4.16951e-05,1.77057e-06,-0.000169879,-6.40972e-05,-7.20192e-05,-7.69111e-06,-7.18795e-05,0
-2.04514e-05,4.31603e-05,-2.11589e-07,-0.00012447,-2.35098e-05,-6.23493e-05,-3.14213e-06,-7.6491e-05,0
-1.96844e-05,3.71668e-05,-9.10852e-07,-4.8565e-05,3.81353e-05,-4.75126e-05,-5.52577e-07,-6.57015e-05,0
-2.28206e-05,2.84031e-05,-1.43429e-06,-1.39426e-05,8.5314e-05,-4.18845e-05,4.43906e-07,-5.09903e-05,0
-2.52867e-05,2.09181e-05,-1.9822e-06,-1.67933e-05,0.000100637,-3.69932e-05,-8.2391e-07,-3.83486e-05,0
-2.26883e-05,1.73614e-05,1.08417e-06,-1.76986e-05,0.000106105,-2.3031e-05,-3.02901e-06,-2.79242e-05,0
-1.72925e-05,1.78232e-05,4.81233e-06,-4.91653e-06,0.000117365,-6.51721e-06,-4.12731e-06,-1.59346e-05,0
-1.40096e-05,1.88297e-05,4.0147e-06,1.6662e-05,0.000121138,1.54751e-06,-3.05392e-06,-1.9768e-06,0
-1.4477e-05,1.79721e-05,-1.01133e-06,2.85194e-05,0.000104896,5.51371e-07,6.88024e-07,1.19912e-05,0
-1.82434e-05,1.44926e-05,-6.086e-06,3.75071e-05,7.42191e-05,-3.98789e-06,6.31128e-06,2.22271e-05,0
-2.28456e-05,1.08455e-05,-7.54341e-06,4.45287e-05,4.00798e-05,-8.02652e-06,1.01977e-05,2.36297e-05,0
-2.51164e-05,9.59355e-06,-6.54711e-06,3.99376e-05,1.00566e-05,-9.91199e-06,1.05141e-05,1.85602e-05,0
-2.51773e-05,1.25269e-05,-5.65648e-06,-2.63552e-06,-7.01646e-06,-9.61195e-06,7.85923e-06,1.31569e-05,0
-2.4948e-05,1.60002e-05,-6.72899e-06,-4.72207e-05,-7.42008e-06,-8.69209e-06,5.47994e-06,1.04612e-05,0
-2.51237e-05,1.6529e-05,-8.13424e-06,-5.02121e-05,-2.23939e-06,-1.04929e-05,5.28186e-06,9.64538e-06,0
-2.45089e-05,1.6072e-05,-7.99527e-06,-4.28765e-05,-1.0654e-05,-1.43951e-05,7.02769e-06,1.03303e-05,0
-2.39323e-05,1.69057e-05,-7.81249e-06,-0.000101099,-3.3541e-05,-1.581e-05,9.83656e-06,9.41941e-06,0
-2.62136e-05,1.73025e-05,-1.05286e-05,-0.000219271,-4.86698e-05,-1.30818e-05,1.32935e-05,5.08587e-06,0
-3.13814e-05,1.69702e-05,-1.48678e-05,-0.000306665,-4.13626e-05,-1.14048e-05,2.07645e-05,-1.2952e-06,0
-3.65668e-05,1.73023e-05,-1.62724e-05,-0.000284006,-2.28147e-05,-1.52289e-05,4.83192e-05,-6.98018e-06,0
-3.91822e-05,1.8869e-05,-1.33983e-05,-0.000183072,-1.14337e-05,-2.29277e-05,0.000113422,-1.13754e-05,0
-3.88971e-05,2.94011e-05,-1.03396e-05,-6.58416e-05,-7.1135e-06,-2.81891e-05,0.000184283,-1.15931e-05,0
-3.89599e-05,5.01864e-05,-9.64584e-06,5.00396e-05,-6.26062e-06,-2.74805e-05,0.000202852,-5.59243e-06,0
-3.87307e-05,6.16035e-05,-9.09766e-06,0.000128886,-1.36355e-05,-2.35418e-05,0.000156369,8.70315e-07,0
-3.59743e-05,5.10541e-05,-3.83807e-06,0.000138979,-1.59926e-05,-1.89892e-05,7.28912e-05,3.66121e-06,0
-3.36328e-05,2.75466e-05,1.0651e-05,0.00012517,2.15953e-06,-1.13484e-05,-2.20676e-05,5.24149e-06,0
-3.57503e-05,5.78251e-06,2.11578e-05,0.000100741,1.97275e-05,-3.15706e-06,-9.57019e-05,6.40755e-06,0
-3.66091e-05,-5.63687e-06,1.76136e-05,3.21627e-05,2.49223e-05,5.45359e-07,-0.000129882,7.23714e-06,0
-2.96249e-05,-8.66072e-06,8.11875e-06,-1.2643e-05,3.41057e-05,2.81453e-07,-0.00013618,7.08902e-06,0
-1.79796e-05,-6.72322e-06,-6.48501e-07,1.67289e-06,4.0965e-05,-3.07337e-06,-0.000119961,5.59782e-06,0
-1.58158e-05,-6.23147e-06,-4.21072e-06,2.70285e-05,3.22613e-05,-7.79909e-06,-9.8777e-05,5.80798e-06,0
-3.02986e-05,-8.07982e-06,-6.52617e-06,3.402e-05,1.51885e-05,-1.19295e-05,-7.87877e-05,6.97735e-06,0
-5.06417e-05,-1.13076e-05,-8.54029e-06,1.78543e-05,-2.57007e-06,-1.42747e-05,-5.90983e-05,8.21302e-06,0
-7.10795e-05,-1.47771e-05,-1.32808e-05,-3.62189e-05,-1.80223e-05,-1.63606e-05,-3.71343e-05,1.35225e-05,0
-8.37397e-05,-1.39309e-05,-2.26646e-05,-0.00010738,-2.49171e-05,-1.9247e-05,-1.47492e-05,2.27525e-05,0
-8.73705e-05,-6.80541e-06,-3.14185e-05,-0.000126184,-2.14432e-05,-2.31562e-05,4.10349e-06,2.83556e-05,0
-8.60202e-05,3.52523e-06,-3.54606e-05,-4.98902e-05,-1.11956e-05,-2.68178e-05,1.91185e-05,2.58432e-05,0
-7.85726e-05,1.1607e-05,-3.25061e-05,6.57548e-05,8.6802e-07,-3.04637e-05,2.84175e-05,1.78583e-05,0
-6.04212e-05,1.73123e-05,-2.22683e-05,0.000152196,1.31083e-05,-3.18558e-05,3.41928e-05,9.23705e-06,0
-3.09631e-05,2.27425e-05,-6.60823e-06,0.000213722,3.42947e-05,-2.20124e-05,3.57997e-05,2.07913e-06,0
-6.32471e-08,2.78026e-05,5.31472e-06,0.000210837,6.52313e-05,1.90671e-06,3.47831e-05,-3.66996e-06,0
1.76941e-05,3.00604e-05,9.46227e-06,7.54264e-05,9.22436e-05,2.38166e-05,2.58428e-05,-8.06834e-06,0
1.54114e-05,2.9125e-05,6.09524e-06,-0.000149817,0.000125657,3.00468e-05,5.04734e-06,-9.85497e-06,0
3.4729e-06,2.6727e-05,-1.51129e-06,-0.000333445,0.000181042,2.77606e-05,-2.58687e-05,-9.19744e-06,0
-5.73385e-06,2.72841e-05,-8.80215e-06,-0.000384699,0.000217763,2.43949e-05,-4.64698e-05,-7.37641e-06,0
-9.17316e-06,3.1064e-05,-1.36609e-05,-0.000310108,0.000200008,1.87014e-05,-4.15057e-05,-5.7334e-06,0
-1.12284e-05,3.53021e-05,-1.71837e-05,-0.000153625,0.000137708,1.13911e-05,-1.32194e-05,-6.07875e-06,0
-1.29357e-05,4.07092e-05,-1.80408e-05,2.97832e-05,5.44057e-05,6.02748e-06,2.31533e-05,-8.30488e-06,0
-1.33047e-05,4.74077e-05,-1.51371e-05,0.000139345,-2.80291e-05,1.55018e-06,5.39064e-05,-8.11224e-06,0
-1.26435e-05,5.06591e-05,-9.24707e-06,0.000159381,-0.000103523,-1.81025e-06,7.24533e-05,-5.4893e-06,0
-1.32806e-05,4.90388e-05,-5.61923e-06,0.000176824,-0.000150427,-4.01773e-06,7.92669e-05,-2.96617e-06,0
-1.50377e-05,4.30418e-05,-7.26787e-06,0.000216337,-0.000154306,-5.97207e-06,7.65495e-05,-8.23982e-07,0
-1.7371e-05,3.37388e-05,-8.86962e-06,0.000230901,-0.000131803,-7.61128e-06,6.57032e-05,9.54364e-07,0
-2.41535e-05,2.50775e-05,-6.95206e-06,0.000185417,-0.000103352,-9.15623e-06,5.36909e-05,2.9324e-06,0
-4.15334e-05,1.78825e-05,-3.72558e-06,0.000109732,-7.99546e-05,-1.08991e-05,4.26857e-05,4.08136e-06,0
-6.10753e-05,1.493e-05,-4.01241e-06,1.45175e-05,-6.87999e-05,-1.34781e-05,3.35148e-05,3.73018e-06,0
-6.7354e-05,1.72136e-05,-9.42206e-06,-8.23296e-05,-8.83154e-05,-1.43821e-05,2.87188e-05,3.20043e-06,0
-6.05949e-05,1.92428e-05,-1.84411e-05,-0.000132342,-0.000128936,-1.58404e-05,2.76811e-05,3.89623e-06,0
-4.99342e-05,1.64503e-05,-2.69675e-05,-0.000124409,-0.000147219,-2.23771e-05,3.02596e-05,3.616e-06,0
-4.09008e-05,8.46837e-06,-3.58015e-05,-7.96568e-05,-0.00012203,-3.25859e-05,3.46715e-05,1.34774e-06,0
-3.00745e-05,9.83269e-08,-4.62554e-05,3.22608e-05,-5.05969e-05,-3.38607e-05,3.45483e-05,-3.62379e-08,0
-1.41325e-05,-3.43074e-06,-5.36227e-05,0.00021189,4.21432e-05,-1.93787e-05,2.0352e-05,9.66398e-07,0
-1.01097e-06,-5.25173e-07,-5.09383e-05,0.000373207,0.00012826,-4.63318e-06,-1.68063e-05,2.40565e-06,0
1.31247e-06,6.97746e-06,-3.32172e-05,0.000471015,0.000209601,6.47599e-07,-6.41244e-05,2.76496e-06,0
-1.20452e-06,1.65073e-05,-2.35395e-06,0.000447642,0.000260278,2.10293e-06,-9.57614e-05,2.15716e-06,0
-3.53111e-06,2.36102e-05,2.55148e-05,0.000285975,0.000234556,2.61013e-06,-9.87329e-05,1.0838e-06,0
-5.94378e-06,2.48814e-05,3.72348e-05,4.9497e-05,0.000134667,3.20892e-08,-8.23206e-05,3.17542e-07,0
-8.35134e-06,2.23279e-05,3.51906e-05,-0.000174567,3.08562e-05,-3.24904e-06,-5.686e-05,3.08081e-07,0
-1.04811e-05,1.94542e-05,2.87841e-05,-0.000333783,-2.94519e-05,-4.66634e-06,-2.62089e-05,1.35955e-06,0
-1.38719e-05,1.80494e-05,2.40158e-05,-0.00042256,-6.13959e-05,-6.71909e-06,8.91491e-06,2.76992e-06,0
-1.88603e-05,1.65251e-05,1.90711e-05,-0.000439313,-7.77657e-05,-1.01354e-05,4.67365e-05,3.59467e-06,0
-2.3543e-05,1.3993e-05,1.16856e-05,-0.000366425,-6.01404e-05,-1.11046e-05,8.22183e-05,4.09729e-06,0
-2.66952e-05,1.17425e-05,6.18833e-06,-0.000223501,-1.08467e-05,-8.10857e-06,0.000105467,4.92596e-06,0
-2.9434e-05,1.1455e-05,3.58386e-06,-0.000105658,2.22634e-05,-5.39288e-06,0.000111802,5.54089e-06,0
-3.25994e-05,1.17033e-05,-2.75149e-06,-5.81721e-05,1.21494e-05,-6.86534e-06,0.00010377,5.28455e-06,0
-3.52323e-05,1.14356e-05,-1.35952e-05,-6.92174e-05,-1.49273e-05,-1.10879e-05,8.67883e-05,3.8466e-06,0
-3.77847e-05,1.00221e-05,-2.28878e-05,-8.99858e-05,-1.65259e-05,-1.30493e-05,7.10995e-05,1.99221e-06,0
-4.01709e-05,7.80112e-06,-2.3894e-05,-3.23397e-05,1.451e-05,-1.06061e-05,6.21647e-05,9.53049e-07,0
-3.97867e-05,7.65354e-06,-1.59004e-05,7.17248e-05,3.95175e-05,-7.41101e-06,5.4617e-05,8.99248e-07,0
-3.63003e-05,9.98598e-06,-4.81601e-06,0.000137154,3.93666e-05,-6.6531e-06,4.52959e-05,8.74327e-06,0
-2.60037e-05,8.86959e-06,-1.2383e-06,0.000145545,3.4712e-05,-6.23313e-06,4.14535e-05,2.52959e-05,0
-7.81955e-06,1.32202e-05,-2.57483e-06,0.000114536,3.84813e-05,-2.62843e-06,4.09337e-05,3.63413e-05,0
3.52966e-06,3.43011e-05,-1.6736e-06,7.2354e-05,4.18197e-05,3.50599e-06,3.78868e-05,3.44386e-05,0
-9.69052e-08,5.28176e-05,-1.4849e-06,5.4632e-06,3.26302e-05,7.10569e-06,3.28773e-05,2.2667e-05,0
-1.64567e-05,4.99436e-05,-4.87688e-06,-6.45405e-05,1.07003e-05,4.62942e-06,2.65813e-05,6.02858e-06,0
-3.50353e-05,2.99636e-05,-1.18468e-05,-0.000125454,-1.95353e-05,-2.91054e-06,1.94697e-05,-1.11746e-05,0
-4.57228e-05,9.31167e-06,-1.95887e-05,-0.000168294,-4.22713e-05,-1.15289e-05,1.06626e-05,-2.64361e-05,0
-4.90689e-05,-1.06023e-06,-2.71978e-05,-0.000164631,-4.73157e-05,-1.75326e-05,8.09056e-07,-3.86843e-05,0
-4.85297e-05,-2.64015e-06,-3.30072e-05,-0.000117453,-3.52821e-05,-1.91669e-05,-5.85696e-06,-4.64736e-05,0
-4.81267e-05,-1.1094e-06,-3.71307e-05,-3.56517e-05,-1.90761e-05,-1.72845e-05,-6.61746e-06,-4.76656e-05,0
-4.81359e-05,9.81196e-07,-4.05962e-05,4.91756e-05,-1.25948e-05,-1.51671e-05,-4.25128e-06,-4.20437e-05,0
-4.85152e-05,1.5964e-06,-4.18618e-05,0.000100406,-1.59176e-05,-1.59881e-05,-1.83613e-06,-3.24395e-05,0
-4.85234e-05,-1.51765e-06,-3.67407e-05,0.000103897,-2.07711e-05,-1.88855e-05,1.67669e-06,-2.30854e-05,0
-4.85442e-05,-7.51289e-06,-2.5492e-05,7.39134e-05,-2.13897e-05,-2.09515e-05,6.32334e-06,-1.47408e-05,0
-5.01086e-05,-1.45851e-05,-1.34252e-05,3.17135e-05,-1.83188e-05,-2.13622e-05,1.18159e-05,-3.77064e-06,0
-5.24079e-05,-2.1022e-05,-4.94857e-06,-1.75828e-06,-1.19716e-05,-1.9102e-05,1.66502e-05,1.00261e-05,0
-5.13401e-05,-2.57308e-05,-1.40839e-06,-8.01692e-06,-9.1636e-06,-1.09841e-05,1.45009e-05,2.04065e-05,0
-4.60263e-05,-2.69361e-05,2.47783e-06,1.42228e-05,-1.21616e-05,3.08718e-06,-6.7146e-07,2.48814e-05,0
-4.06233e-05,-2.41507e-05,1.18226e-05,5.58983e-05,-9.33576e-06,1.59408e-05,-2.12148e-05,3.16315e-05,0
-3.83755e-05,-2.10222e-05,2.13858e-05,0.000108277,9.95966e-06,1.78875e-05,-3.51707e-05,4.81336e-05,0
-3.99834e-05,-1.81729e-05,2.24773e-05,0.000127314,3.54523e-05,1.27097e-05,-4.3455e-05,6.14242e-05,0
-4.20188e-05,-9.64398e-06,1.66542e-05,8.31279e-05,5.06906e-05,1.33888e-05,-4.93809e-05,5.54415e-05,0
-4.1754e-05,3.29862e-06,1.30968e-05,2.80685e-05,5.90099e-05,1.94864e-05,-4.68477e-05,3.64619e-05,0
-3.96615e-05,1.12201e-05,1.42178e-05,8.24452e-06,7.69231e-05,1.7831e-05,-2.96916e-05,1.69557e-05,0
-3.87368e-05,1.07969e-05,1.2685e-05,9.62761e-06,0.000104642,-1.89404e-07,-1.27424e-06,9.80808e-06,0
-3.80565e-05,8.15861e-06,7.1439e-06,1.05743e-05,0.00013745,-1.95631e-05,2.63595e-05,2.18685e-05,0
-3.01606e-05,9.75034e-06,-1.47164e-06,-5.05576e-06,0.000172859,-1.45608e-05,4.72664e-05,3.1735e-05,0
-2.06831e-05,1.98418e-05,-1.04771e-05,-3.72214e-05,0.000151105,3.32023e-06,5.8095e-05,1.09925e-05,0
-2.00932e-05,3.97324e-05,-1.36512e-05,-5.45518e-05,6.16009e-05,4.67644e-06,5.28153e-05,-3.3161e-05,0
-2.30628e-05,5.83699e-05,-1.00156e-05,-3.11203e-05,3.72876e-06,-7.14192e-06,2.79802e-05,-6.49788e-05,0
-2.1936e-05,6.3418e-05,-6.87059e-06,3.6377e-05,-9.41829e-06,-2.15173e-05,-1.41677e-05,-3.43144e-05,0
-1.31546e-05,5.24564e-05,-6.96943e-06,0.00011221,-2.46079e-05,-4.20101e-05,-5.70682e-05,4.41659e-05,0
3.39685e-06,2.92992e-05,-6.91075e-06,0.000127306,-5.14295e-05,-5.78984e-05,-8.56524e-05,9.64166e-05,0
1.76939e-05,3.32379e-06,-6.69724e-06,2.66649e-05,-7.08016e-05,-3.95976e-05,-9.10787e-05,0.000111144,0
1.5169e-05,-1.70649e-05,-7.75769e-06,-0.000101873,-5.88868e-05,-3.03767e-06,-7.26578e-05,9.23324e-05,0
-2.73373e-06,-3.00641e-05,-1.02357e-05,-0.000101933,-2.45894e-05,8.6247e-06,-3.62828e-05,3.05554e-05,0
-2.23938e-05,-3.64385e-05,-1.13158e-05,-1.52027e-05,9.48126e-07,-2.04866e-06,9.97483e-06,-5.52422e-05,0
-3.29337e-05,-3.68605e-05,-1.36976e-05,2.84428e-05,-1.66238e-06,-9.14549e-06,5.82368e-05,-0.000127475,0
-2.76908e-05,-3.437e-05,-1.85137e-05,-2.09623e-06,-1.87119e-05,-8.87952e-06,0.000100513,-0.000168503,0
-2.37696e-06,-3.03349e-05,-2.24186e-05,-5.77186e-05,-3.7033e-05,-1.91002e-05,0.000125197,-0.000181667,0
2.94328e-05,-2.29988e-05,-2.34704e-05,-0.000116156,-5.92005e-05,-2.6664e-05,0.000123817,-0.000172118,0
4.08687e-05,-1.28198e-05,-2.23351e-05,-0.000187581,-8.85407e-05,-9.51818e-06,0.000100153,-0.00014258,0
2.2472e-05,-2.76439e-06,-2.23787e-05,-0.000249376,-0.000106215,2.71165e-06,7.21748e-05,-9.97661e-05,0
-1.25486e-05,4.93694e-06,-2.52948e-05,-0.00026743,-8.27181e-05,-1.55885e-05,5.40555e-05,-5.91321e-05,0
-4.50005e-05,8.79784e-06,-2.98972e-05,-0.000223156,-8.14784e-06,-2.73005e-05,4.62959e-05,-3.00393e-05,0
-6.87002e-05,7.85307e-06,-3.38904e-05,-0.000133244,8.81866e-05,-5.28148e-06,4.19807e-05,-1.43825e-05,0
-8.72783e-05,5.1196e-06,-3.61484e-05,-5.13062e-05,0.000153926,2.12776e-05,4.05693e-05,-3.68921e-06,0
-0.00010185,4.54729e-06,-3.2793e-05,-3.09968e-05,0.000156006,2.96653e-05,4.61787e-05,8.72057e-06,0
-0.000107715,4.73271e-06,-2.24666e-05,-1.08231e-05,0.000111461,2.47074e-05,5.79817e-05,2.20552e-05,0
-0.000103482,1.6538e-06,-1.30389e-05,9.42772e-05,4.96532e-05,9.98355e-06,7.02025e-05,2.95793e-05,0
-9.67666e-05,-3.99847e-06,-6.12417e-06,0.000234009,-8.97442e-06,-6.96749e-06,7.63486e-05,3.01678e-05,0
-9.26793e-05,-7.78975e-06,4.3458e-06,0.000343231,-3.15938e-05,-1.09891e-05,7.43664e-05,2.73201e-05,0
-9.14353e-05,-8.27086e-06,1.92815e-05,0.000420718,-9.39766e-06,-4.29552e-06,6.74925e-05,2.49947e-05,0
-9.12572e-05,-8.73132e-06,3.08263e-05,0.00032711,1.7707e-05,-1.25925e-06,5.74771e-05,2.25389e-05,0
-8.89191e-05,-8.24022e-06,2.3952e-05,1.99378e-05,5.38218e-06,-6.44724e-06,4.61403e-05,1.93402e-05,0
-8.14969e-05,-1.06482e-06,4.77024e-06,-0.000194703,-2.26276e-05,-1.13859e-05,3.29874e-05,1.72712e-05,0
-6.23637e-05,1.61852e-05,-2.67059e-06,-0.000192306,-1.59659e-05,-6.27464e-06,1.83502e-05,1.63501e-05,0
-3.96957e-05,3.66593e-05,1.92627e-06,-0.000129182,1.41135e-05,2.93098e-06,3.19127e-06,1.63071e-05,0
-2.80534e-05,4.74266e-05,6.43189e-06,-8.78076e-05,4.03273e-05,6.10753e-06,-1.09265e-05,1.82579e-05,0
-2.68058e-05,4.63066e-05,6.81595e-06,-1.98881e-05,5.936e-05,6.20929e-06,-2.77576e-05,2.11881e-05,0
-2.80051e-05,4.13795e-05,5.33133e-06,9.18153e-05,6.82773e-05,5.54274e-06,-8.23245e-05,2.21798e-05,0
-2.83416e-05,3.97345e-05,3.92393e-06,0.000138531,5.7972e-05,3.48485e-06,-0.000174263,2.28592e-05,0
-2.84002e-05,3.95488e-05,2.17713e-06,0.000106007,3.35133e-05,9.30315e-07,-0.000249599,2.38694e-05,0
-2.81551e-05,3.84457e-05,-8.80813e-07,8.70601e-05,6.91605e-06,-3.42525e-06,-0.000273313,2.57108e-05,0
-2.62831e-05,3.80197e-05,-6.64059e-06,7.73534e-05,-1.58545e-05,-9.53451e-06,-0.000240756,2.64986e-05,0
-1.80298e-05,3.75037e-05,-1.11219e-05,3.39569e-05,-2.29918e-05,-1.15038e-05,-0.000161733,2.60027e-05,0
-3.27413e-06,3.35542e-05,-1.12267e-05,-2.05157e-05,-5.42606e-06,-6.03598e-06,-5.06845e-05,2.49834e-05,0
9.10985e-06,2.62901e-05,-7.75512e-06,-5.93893e-05,3.01317e-05,-1.57995e-06,6.73783e-05,2.26743e-05,0
1.04633e-05,1.98739e-05,-5.92483e-06,-9.34098e-05,5.72654e-05,-6.85735e-06,0.000163477,1.67605e-05,0
3.87198e-06,1.75554e-05,-9.83553e-06,-0.000120251,6.0503e-05,-1.92269e-05,0.000221063,8.12819e-06,0
-2.07666e-06,2.01311e-05,-1.53653e-05,-0.000114248,5.33381e-05,-2.90492e-05,0.000240185,-1.18723e-07,0
-4.0422e-06,2.44957e-05,-1.77267e-05,-0.000103182,5.14699e-05,-3.25505e-05,0.000227996,-4.62864e-06,0
-6.43538e-06,2.58723e-05,-2.06749e-05,-0.000132954,4.33577e-05,-3.27166e-05,0.000194881,-3.29701e-06,0
-1.12265e-05,2.23521e-05,-2.76634e-05,-0.000146026,2.34901e-05,-3.12563e-05,0.000154796,1.78228e-06,0
-1.6107e-05,1.73432e-05,-3.48319e-05,-6.00428e-05,8.12006e-06,-2.83476e-05,0.000117783,5.99935e-06,0
-1.9672e-05,1.54044e-05,-3.79064e-05,6.99336e-05,6.89736e-06,-2.48385e-05,8.83206e-05,7.51272e-06,0
-2.45584e-05,1.47389e-05,-3.84652e-05,0.00016398,9.77612e-06,-2.27629e-05,6.77949e-05,8.68049e-06,0
-3.43548e-05,1.21093e-05,-3.92389e-05,0.00018533,4.42776e-07,-2.78779e-05,5.45864e-05,1.06758e-05,0
-4.24494e-05,1.13329e-05,-3.61451e-05,6.18233e-05,-1.51815e-05,-4.28e-05,4.14242e-05,1.48432e-05,0
-3.83405e-05,1.80204e-05,-2.65124e-05,-0.000144799,-1.8379e-05,-5.4459e-05,2.43494e-05,1.78528e-05,0
-2.88452e-05,2.94843e-05,-1.76799e-05,-0.000233651,-1.34587e-05,-5.18009e-05,7.31956e-06,1.73422e-05,0
-2.79372e-05,3.57608e-05,-1.53834e-05,-0.000124422,-1.20461e-05,-4.4038e-05,-4.40664e-06,1.61832e-05,0
-3.1275e-05,3.50053e-05,-1.05853e-05,6.78599e-05,-1.73887e-06,-3.66236e-05,-1.35166e-05,1.56866e-05,0
-2.98697e-05,3.03402e-05,5.74113e-07,0.000193049,2.82746e-05,-2.66527e-05,-2.28127e-05,1.48802e-05,0
-2.61284e-05,2.46365e-05,6.74074e-06,0.000229885,6.06343e-05,-1.84184e-05,-2.74515e-05,1.22591e-05,0
-2.43408e-05,2.00005e-05,4.12573e-06,0.00023037,6.68004e-05,-1.18947e-05,-2.73541e-05,9.54748e-06,0
-2.32522e-05,1.66889e-05,1.55791e-06,0.000229289,4.43643e-05,-3.23844e-06,-2.66107e-05,7.64872e-06,0
-1.96911e-05,1.67463e-05,4.17669e-06,0.00022187,1.8333e-05,4.45819e-06,-2.88952e-05,7.28958e-06,0
-1.58408e-05,2.06499e-05,1.19604e-05,0.00016547,1.12235e-05,1.55784e-05,-3.18264e-05,7.62438e-06,0
-1.50529e-05,2.58479e-05,2.15381e-05,4.60801e-05,2.34658e-05,4.61464e-05,-2.95186e-05,7.59789e-06,0
-1.74495e-05,2.90024e-05,2.56262e-05,-7.64298e-05,3.92726e-05,7.85479e-05,-2.15923e-05,9.56231e-06,0
-2.07605e-05,2.87026e-05,2.20142e-05,-0.000152843,4.12164e-05,7.31333e-05,-1.44871e-05,1.56059e-05,0
-2.22009e-05,2.44781e-05,1.52688e-05,-0.000191109,1.21704e-05,3.36929e-05,-1.17453e-05,2.0652e-05,0
-2.17864e-05,2.01459e-05,9.84884e-06,-0.000190764,-3.57406e-05,-7.48937e-06,-1.10612e-05,1.72914e-05,0
-2.13662e-05,1.80146e-05,8.75718e-06,-0.000143061,-4.52886e-05,-3.09214e-05,-1.05622e-05,8.1987e-06,0
-2.31861e-05,1.69967e-05,9.83129e-06,-8.22292e-05,1.1609e-05,-4.12791e-05,-9.82299e-06,-3.73736e-07,0
-2.47344e-05,1.6254e-05,9.62833e-06,-7.85528e-05,8.87553e-05,-4.73267e-05,-1.00949e-05,-5.47666e-06,0
-2.25823e-05,1.64405e-05,9.42095e-06,-0.000133953,0.000121808,-4.70175e-05,-1.15296e-05,-7.44517e-06,0
-1.91102e-05,1.94662e-05,8.14584e-06,-0.000164073,0.0001103,-3.49147e-05,-1.33433e-05,-8.14655e-06,0
-1.8503e-05,2.45479e-05,3.72965e-06,-0.000111724,9.5879e-05,-1.43286e-05,-1.28601e-05,-9.956e-06,0
-1.82122e-05,2.71649e-05,-2.65734e-06,-3.22235e-05,6.70015e-05,-1.33758e-06,-1.27746e-05,-1.31203e-05,0
-1.43737e-05,2.5756e-05,-9.41212e-06,-1.8547e-05,-8.9456e-06,-6.01436e-06,-1.8951e-05,-1.47952e-05,0
-8.63023e-06,2.69217e-05,-1.61066e-05,-7.64248e-05,-9.83664e-05,-2.11478e-05,-3.10816e-05,-1.24593e-05,0
-7.10843e-06,3.21673e-05,-2.16491e-05,-0.000124469,-0.000146167,-3.32479e-05,-4.14722e-05,-9.81933e-06,0
-1.17102e-05,3.05065e-05,-2.39425e-05,-0.000102453,-0.000136236,-3.66007e-05,-4.38357e-05,-9.4339e-06,0
-1.86226e-05,1.92974e-05,-2.45393e-05,-3.51589e-05,-7.55189e-05,-3.35195e-05,-4.06335e-05,-8.75243e-06,0
-2.78761e-05,3.95426e-06,-2.89396e-05,1.2668e-05,8.5317e-06,-2.94343e-05,-3.73214e-05,-6.62944e-06,0
-3.89927e-05,-1.77172e-05,-3.74372e-05,-3.25611e-06,7.81736e-05,-2.92642e-05,-3.30872e-05,-4.52917e-06,0
-4.23407e-05,-3.6488e-05,-3.97681e-05,-4.38446e-05,9.9566e-05,-2.79558e-05,-2.71001e-05,-3.05219e-06,0
-2.71298e-05,-3.71543e-05,-3.05959e-05,-5.70784e-05,9.2193e-05,-1.67705e-05,-2.24255e-05,-3.75532e-06,0
1.18287e-06,-2.36417e-05,-1.87696e-05,-9.53486e-05,9.50707e-05,-2.60467e-06,-1.78532e-05,-7.00602e-06,0
2.14855e-05,-9.18715e-06,-1.28414e-05,-0.000151496,8.6163e-05,6.55844e-06,-1.20352e-05,-9.30481e-06,0
1.76968e-05,3.07589e-06,-1.22407e-05,-0.000118804,4.7116e-05,8.09161e-06,-3.35098e-06,-8.4526e-06,0
-3.20507e-06,1.15653e-05,-8.07676e-06,3.37392e-05,-6.02854e-06,5.27157e-06,6.83413e-06,-4.73889e-06,0
-2.53785e-05,1.52972e-05,3.35278e-06,0.000227098,-4.44539e-05,3.10473e-06,1.444e-05,-1.07754e-06,0
-4.28879e-05,1.68678e-05,1.66934e-05,0.000357573,-6.41077e-05,1.69501e-06,2.05062e-05,1.32256e-06,0
-5.57146e-05,1.62576e-05,2.2785e-05,0.00036475,-6.88875e-05,-6.60874e-07,2.95558e-05,6.64924e-07,0
-6.37665e-05,1.23185e-05,1.73528e-05,0.000210231,-6.07374e-05,-4.97457e-06,4.06311e-05,-2.84943e-06,0
-6.72202e-05,6.01225e-06,4.29748e-06,-4.63504e-05,-4.38752e-05,-8.78566e-06,4.91876e-05,-6.02566e-06,0
-6.73729e-05,3.73611e-07,-9.53012e-06,-0.00025214,-2.94573e-05,-1.17853e-05,5.368e-05,-6.77434e-06,0
-6.57859e-05,-4.33451e-06,-2.05138e-05,-0.000292113,-3.45852e-05,-1.54798e-05,5.27521e-05,-4.78393e-06,0
-6.37884e-05,-7.2825e-06,-2.79529e-05,-0.00020024,-4.19727e-05,-1.76447e-05,4.74586e-05,-1.58443e-06,0
-6.21124e-05,-8.79099e-06,-3.05258e-05,-0.000109242,-2.7059e-05,-1.60858e-05,4.07539e-05,7.03324e-07,0
-6.13817e-05,-9.44753e-06,-2.97358e-05,-0.000123007,-9.82356e-07,-1.52741e-05,3.56896e-05,1.52106e-06,0
-6.07143e-05,-1.03237e-05,-2.86046e-05,-0.000213852,3.48946e-06,-1.72746e-05,3.16627e-05,2.67835e-06,0
-5.80232e-05,-1.14925e-05,-2.65024e-05,-0.000219926,-5.14158e-06,-1.76504e-05,2.61282e-05,4.23732e-06,0
-5.28281e-05,-1.29736e-05,-2.24947e-05,-4.85308e-06,1.30917e-06,-1.27167e-05,1.84026e-05,5.74216e-06,0
-4.79056e-05,-1.74657e-05,-2.27972e-05,0.000374226,2.28605e-05,-6.3657e-06,3.61361e-06,8.91146e-06,0
-4.56871e-05,-2.31705e-05,-2.6568e-05,0.000638082,3.55474e-05,-2.70672e-06,-2.38604e-05,1.67681e-05,0
-4.45603e-05,-2.23126e-05,-2.40491e-05,0.000551779,3.26703e-05,-5.21303e-07,-5.15704e-05,3.60565e-05,0
-4.25011e-05,-1.31915e-05,-1.32094e-05,0.000182977,2.17427e-05,4.74599e-06,-5.98391e-05,5.84091e-05,0
-3.93296e-05,-7.33006e-07,-1.71499e-07,-0.000197721,6.74607e-06,1.20639e-05,-5.06147e-05,6.30159e-05,0
-3.27092e-05,1.20585e-05,1.13506e-05,-0.000354321,-1.45436e-05,1.82427e-05,-3.27342e-05,4.97511e-05,0
-2.3206e-05,2.13598e-05,1.55168e-05,-0.000255911,-3.45249e-05,2.23677e-05,-9.32702e-06,2.78801e-05,0
-2.03763e-05,2.19535e-05,1.12528e-05,-4.33667e-05,-3.79624e-05,1.82263e-05,1.90379e-05,-1.58024e-06,0
-2.41887e-05,1.72552e-05,6.08207e-06,5.93469e-05,-2.86944e-05,3.07005e-06,4.94477e-05,-3.23257e-05,0
-2.54341e-05,1.55518e-05,4.01502e-06,-2.75461e-05,-2.0718e-05,-1.8837e-05,7.53226e-05,-5.29416e-05,0
-2.17002e-05,1.65517e-05,6.41378e-06,-0.0001087,-2.06322e-05,-4.44389e-05,8.96889e-05,-6.09361e-05,0
-1.38629e-05,1.87315e-05,1.39426e-05,-8.35962e-05,-1.9973e-05,-5.83901e-05,9.25547e-05,-5.5128e-05,0
-8.81951e-06,2.04283e-05,2.02053e-05,6.5512e-06,-2.76878e-06,-4.90352e-05,9.0486e-05,-3.32258e-05,0
-1.37779e-05,2.14768e-05,1.57623e-05,9.05423e-05,2.49822e-05,-3.33281e-05,8.3367e-05,-2.96729e-06,0
-2.59243e-05,2.09713e-05,4.26887e-06,0.000146287,3.9964e-05,-2.57056e-05,7.48935e-05,1.83486e-05,0
-3.44032e-05,1.65064e-05,-3.35937e-06,0.000161987,4.87355e-05,-2.15937e-05,6.55011e-05,2.47648e-05,0
-3.21478e-05,8.72572e-06,-3.3843e-06,0.000135279,5.69929e-05,-1.24314e-05,5.39341e-05,2.05597e-05,0
-2.52457e-05,-1.1777e-06,-1.7663e-07,0.000127152,5.69905e-05,-3.56215e-06,4.40059e-05,1.0929e-05,0
-2.18716e-05,-1.04643e-05,-3.73843e-07,0.000183499,4.70222e-05,-2.20756e-06,3.65438e-05,-1.08183e-07,0
-2.38912e-05,-1.56864e-05,-5.31823e-06,0.000270358,3.42339e-05,-8.4642e-06,3.14104e-05,-1.01217e-05,0
-3.0593e-05,-1.71475e-05,-1.16065e-05,0.000283809,2.50631e-05,-1.81462e-05,2.12264e-05,-1.59273e-05,0
-4.05847e-05,-1.83897e-05,-1.4776e-05,0.000204447,2.12023e-05,-2.37184e-05,7.30514e-06,-1.87263e-05,0
-4.72899e-05,-1.94315e-05,-1.2689e-05,7.57652e-05,2.3045e-05,-1.3324e-05,1.94707e-05,-2.04524e-05,0
-4.47849e-05,-1.64992e-05,-7.46191e-06,-6.72945e-05,2.80308e-05,1.43615e-05,7.51961e-05,-2.11467e-05,0
-3.63755e-05,-8.81596e-06,-3.59732e-06,-0.000205558,3.00233e-05,3.69761e-05,0.000131565,-1.87479e-05,0
-2.86429e-05,-5.36963e-07,-6.33904e-06,-0.000270531,2.49153e-05,3.57797e-05,0.000134353,-1.47746e-05,0
-2.27607e-05,6.09387e-06,-1.63528e-05,-0.000252853,1.68435e-05,1.84214e-05,7.82579e-05,-9.33575e-06,0
-1.67375e-05,1.07805e-05,-2.7145e-05,-0.000249393,1.06358e-05,4.80373e-06,-2.03004e-06,-1.55917e-06,0
-1.09925e-05,1.39633e-05,-3.11133e-05,-0.000304538,6.59571e-06,6.02965e-07,-6.89474e-05,6.75869e-06,0
-8.18009e-06,2.10832e-05,-2.92309e-05,-0.000324593,-1.22891e-06,1.06773e-06,-0.000102854,1.41344e-05,0
-1.04084e-05,3.45717e-05,-2.72465e-05,-0.000206427,-1.82064e-05,2.99658e-07,-0.0001042,1.87059e-05,0
-1.47754e-05,4.11391e-05,-2.52898e-05,4.32778e-05,-3.79193e-05,-4.31935e-06,-8.5646e-05,1.95757e-05,0
-1.81598e-05,3.16517e-05,-2.11444e-05,0.000274424,-4.31243e-05,-1.04469e-05,-6.14839e-05,2.91013e-05,0
-2.03405e-05,1.53764e-05,-1.37029e-05,0.000329116,-2.93165e-05,-1.12921e-05,-4.54079e-05,4.92648e-05,0
-2.5511e-05,3.03051e-06,-4.31982e-06,0.000158703,-1.16686e-05,-9.50662e-06,-3.66234e-05,5.57661e-05,0
-3.58792e-05,1.49431e-06,-3.26617e-06,-6.74224e-05,-2.24204e-06,-1.72492e-05,-2.66271e-05,3.69492e-05,0
-4.70201e-05,5.38544e-06,-1.03194e-05,-0.000129338,7.87746e-06,-3.98234e-05,-1.7268e-05,5.76922e-06,0
-5.60768e-05,4.14136e-06,-1.62964e-05,-9.44408e-05,5.75218e-05,-5.21922e-05,-1.29881e-05,-2.16308e-05,0
-6.02256e-05,1.39531e-06,-1.87933e-05,-9.14462e-05,0.000157261,-3.15801e-05,-1.13065e-05,-3.69902e-05,0
-6.08553e-05,2.13019e-06,-1.9779e-05,-0.000138182,0.000213863,-5.35445e-06,-6.91268e-06,-3.71621e-05,0
-6.27706e-05,2.20415e-06,-1.98475e-05,-0.000183221,0.000183424,-6.06062e-07,6.00531e-07,-2.97624e-05,0
-6.52782e-05,-2.58202e-06,-2.06144e-05,-0.000200927,0.000111719,-4.59634e-06,6.9125e-06,-2.02641e-05,0
-6.19269e-05,-9.50943e-06,-2.68406e-05,-0.000163595,2.40947e-05,-1.66645e-06,9.98436e-06,-7.36894e-06,0
-4.45267e-05,-1.27861e-05,-3.51468e-05,-0.000112798,-5.78046e-05,4.11413e-07,1.03827e-05,6.97794e-06,0
-1.54361e-05,-6.77306e-06,-4.24738e-05,-0.000134664,-0.000129069,-1.47893e-06,9.71071e-06,1.63589e-05,0
7.19301e-06,6.69489e-06,-4.4298e-05,-0.000188495,-0.00016991,-1.54299e-06,9.14154e-06,1.53185e-05,0
1.07161e-05,1.97868e-05,-3.78321e-05,-0.000171674,-0.000168217,5.98504e-07,9.97278e-06,7.48596e-06,0
2.91434e-06,2.61138e-05,-2.49581e-05,-7.80609e-05,-0.000132448,2.44375e-06,1.21495e-05,-1.20272e-06,0
-2.59239e-06,2.6046e-05,-9.77818e-06,5.19341e-05,-8.043e-05,7.32669e-06,1.34226e-05,-8.09925e-06,0
-4.3987e-06,2.25012e-05,4.03374e-06,0.000224896,-4.01398e-05,1.37051e-05,1.20934e-05,-1.44638e-05,0
-8.55047e-06,1.76173e-05,1.33844e-05,0.000401255,-2.96281e-05,1.13235e-05,8.59183e-06,-2.03103e-05,0
-1.58483e-05,1.42926e-05,1.48257e-05,0.000509757,-3.75421e-05,-6.54915e-07,5.19308e-06,-2.13648e-05,0
-2.37042e-05,1.30119e-05,9.58951e-06,0.00049588,-3.36249e-05,-1.34815e-05,4.17653e-06,-1.65921e-05,0
-3.01119e-05,1.281e-05,-1.42358e-07,0.000362868,-6.36464e-06,-2.169e-05,6.82389e-06,-1.01082e-05,0
-3.36171e-05,1.31178e-05,-1.28001e-05,0.000136718,3.22255e-05,-2.74084e-05,1.0847e-05,-4.77448e-06,0
-3.31986e-05,1.69673e-05,-2.13283e-05,-0.000127957,5.14469e-05,-3.17289e-05,1.15059e-05,1.18233e-07,0
-2.98176e-05,2.26087e-05,-1.86029e-05,-0.000287573,4.63826e-05,-2.93189e-05,1.36659e-06,4.54182e-06,0
-2.53969e-05,2.66111e-05,-9.73926e-06,-0.000219688,4.23611e-05,-1.53679e-05,-2.44684e-05,7.84991e-06,0
-2.22377e-05,2.93142e-05,-2.63994e-06,-2.29604e-05,6.53755e-05,2.48819e-06,-5.64294e-05,9.88281e-06,0
-2.36195e-05,3.22916e-05,1.2542e-06,0.000136979,0.00011357,1.14398e-05,-7.79822e-05,1.01954e-05,0
-2.8025e-05,3.57538e-05,1.09246e-05,0.000217811,0.000173305,6.65261e-06,-7.90441e-05,9.67237e-06,0
-3.00167e-05,3.63588e-05,2.6779e-05,0.000187718,0.000243713,-2.19654e-06,-5.45176e-05,7.71198e-06,0
-3.03255e-05,3.11342e-05,3.16199e-05,6.04623e-05,0.000297565,-9.43653e-06,-1.51927e-05,6.06517e-06,0
-3.20635e-05,2.38214e-05,2.37648e-05,-4.93787e-05,0.000261592,-1.74086e-05,2.57369e-05,5.94804e-06,0
-3.57129e-05,1.93477e-05,1.71545e-05,-8.37489e-05,0.000161793,-2.3326e-05,6.51644e-05,6.6784e-06,0
-3.72114e-05,1.74489e-05,1.31303e-05,-6.40345e-05,8.37087e-05,-2.41965e-05,9.56796e-05,8.96324e-06,0
-3.54771e-05,1.75234e-05,7.28113e-06,-1.86219e-05,3.05738e-05,-1.96109e-05,0.000110992,1.12465e-05,0
-3.19896e-05,1.90522e-05,8.52804e-07,7.7464e-06,-2.31168e-05,-1.10577e-05,0.000110098,1.07477e-05,0
-2.78577e-05,1.88964e-05,-1.64316e-06,-7.10402e-05,-7.51914e-05,-3.50796e-06,9.90305e-05,7.0421e-06,0
-2.68814e-05,1.75802e-05,-2.08473e-06,-0.0002286,-0.000102066,1.10769e-06,8.26566e-05,7.36461e-06,0
-2.7408e-05,1.66177e-05,-6.24195e-06,-0.000322207,-9.97355e-05,2.00786e-05,6.27898e-05,1.88034e-05,0
-2.56354e-05,1.4131e-05,-1.5373e-05,-0.000316829,-8.19623e-05,4.81546e-05,4.34706e-05,3.5841e-05,0
-1.81414e-05,1.07932e-05,-2.0771e-05,-0.000264234,-6.26697e-05,5.07108e-05,2.79739e-05,4.33117e-05,0
-5.13716e-06,5.97751e-06,-1.81925e-05,-0.000213129,-4.57751e-05,2.75091e-05,1.78892e-05,3.68809e-05,0
1.21178e-05,-1.54673e-07,-1.56619e-05,-0.000142039,-3.44911e-05,6.60781e-06,1.12859e-05,2.2852e-05,0
2.78867e-05,-4.72132e-06,-1.67582e-05,-4.48631e-05,-2.33203e-05,2.63706e-06,7.23157e-06,5.60015e-06,0
2.98243e-05,-5.47809e-06,-1.77315e-05,5.17537e-05,-6.65937e-06,6.39903e-06,7.42876e-06,-1.27557e-05,0
1.36184e-05,-3.77054e-06,-1.56343e-05,0.000137703,3.4069e-06,5.59107e-06,9.54517e-06,-2.90833e-05,0
-1.08681e-05,-2.95308e-06,-1.33295e-05,0.000189527,-1.56922e-05,-1.20741e-06,7.55603e-06,-3.89942e-05,0
-3.10157e-05,-3.59549e-06,-1.24466e-05,0.000157284,-5.9718e-05,-8.74698e-06,3.35166e-06,-3.98821e-05,0
-4.45255e-05,-3.60119e-06,-1.42332e-05,6.87926e-05,-8.4447e-05,-1.20558e-05,4.7769e-06,-3.36351e-05,0
-5.38433e-05,-2.04288e-06,-2.01161e-05,2.92545e-05,-5.71894e-05,-9.57386e-06,1.3238e-05,-2.60195e-05,0
-6.0641e-05,-1.46386e-06,-3.18075e-05,2.85326e-05,-7.36399e-06,-5.13573e-06,2.32758e-05,-1.99083e-05,0
-7.33175e-05,-4.43847e-06,-4.51276e-05,-1.77714e-05,1.66483e-05,-1.55234e-05,3.14556e-05,-1.57313e-05,0
-9.70249e-05,-9.14029e-06,-5.3433e-05,-5.51842e-05,3.96746e-05,-5.40609e-05,3.90525e-05,-1.09956e-05,0
-0.000117786,-1.61936e-05,-5.36061e-05,1.16208e-05,7.97621e-05,-9.41465e-05,4.52813e-05,-4.13263e-06,0
-0.000119492,-2.46948e-05,-4.99194e-05,1.48327e-05,8.08776e-05,-9.68283e-05,4.22753e-05,2.97977e-06,0
-0.000103298,-2.54329e-05,-4.54812e-05,-0.000214655,2.56635e-05,-7.24283e-05,2.92072e-05,7.237e-06,0
-8.02275e-05,-1.41138e-05,-3.75837e-05,-0.000575716,-4.08654e-05,-4.47296e-05,1.77224e-05,8.19252e-06,0
-6.09532e-05,2.92434e-06,-2.80272e-05,-0.000736702,-4.45039e-05,-1.75872e-05,1.42269e-05,8.37919e-06,0
-5.03544e-05,1.80543e-05,-1.71117e-05,-0.000525825,3.07427e-05,8.50202e-06,1.29988e-05,6.24848e-06,0
-4.47322e-05,2.38978e-05,-3.9711e-06,-8.60899e-06,0.000110309,2.55372e-05,7.8505e-06,2.99138e-06,0
-3.90654e-05,1.91493e-05,1.24251e-05,0.000575071,0.000108698,2.48428e-05,2.87191e-06,1.30005e-06,0
-3.32238e-05,1.49457e-05,2.79223e-05,0.000780203,1.68391e-05,1.24942e-05,4.39014e-06,1.38789e-06,0
-3.06147e-05,1.37644e-05,3.39288e-05,0.000575822,-8.97992e-05,-6.14873e-06,1.16314e-05,3.19103e-06,0
-2.98079e-05,1.43616e-05,3.53744e-05,0.000271918,-0.000145756,-2.3433e-05,1.25323e-05,4.10578e-06,0
-2.9698e-05,1.68057e-05,3.80098e-05,6.99014e-05,-0.00010251,-2.97215e-05,1.80763e-06,4.48529e-06,0
-2.99177e-05,1.88983e-05,3.69169e-05,-4.83475e-05,9.27751e-06,-2.88144e-05,-1.02382e-05,5.62463e-06,0
-3.00205e-05,1.94367e-05,2.90888e-05,-5.35887e-05,0.000104757,-2.91853e-05,-1.72747e-05,9.62213e-06,0
-3.08897e-05,1.74452e-05,2.00843e-05,8.33999e-05,0.000127614,-2.79697e-05,-2.99713e-05,1.77929e-05,0
-3.13988e-05,1.38278e-05,1.95535e-05,0.000250839,9.44748e-05,-1.96677e-05,-6.10072e-05,2.54243e-05,0
-2.98084e-05,1.01065e-05,2.79124e-05,0.000310146,6.53137e-05,-8.55691e-06,-9.86263e-05,2.55809e-05,0
-2.69099e-05,8.72318e-06,3.70124e-05,0.000229923,6.91442e-05,-4.73257e-06,-0.000113745,1.93984e-05,0
-2.4226e-05,9.95773e-06,3.90249e-05,0.000108353,9.1479e-05,-1.48839e-05,-9.02977e-05,1.17336e-05,0
-2.1018e-05,1.31656e-05,3.23049e-05,3.1084e-06,0.000102319,-3.07726e-05,-3.72059e-05,4.30675e-06,0
-1.77171e-05,1.68833e-05,2.09223e-05,-4.2217e-05,9.56678e-05,-3.01545e-05,2.73062e-05,-2.10406e-06,0
-1.64182e-05,1.9309e-05,9.65467e-06,-4.33306e-05,7.42118e-05,-4.90957e-06,8.69302e-05,-6.48018e-06,0
-1.88038e-05,1.95319e-05,-1.03736e-06,-3.42236e-05,4.73689e-05,2.16386e-05,0.000130025,-7.51534e-06,0
-2.13449e-05,2.01011e-05,-9.3059e-06,-5.4708e-05,1.89285e-05,3.13965e-05,0.000148623,-6.89213e-06,0
-2.06073e-05,2.23919e-05,-1.12369e-05,-7.27448e-05,-8.52662e-06,2.7088e-05,0.000142454,-6.81262e-06,0
-1.79335e-05,2.53352e-05,-9.4096e-06,-4.56626e-05,-2.99978e-05,1.50979e-05,0.000122358,-8.42488e-06,0
-1.67323e-05,2.64956e-05,-1.07986e-05,2.25653e-05,-3.92015e-05,-7.45219e-07,0.000101289,-1.05269e-05,0
-1.23519e-05,2.49538e-05,-1.83549e-05,4.09716e-05,-4.44542e-05,-1.4877e-05,8.26398e-05,-1.14012e-05,0
-3.66966e-06,2.2175e-05,-2.71666e-05,-5.9444e-05,-4.1474e-05,-2.06777e-05,6.39025e-05,-9.55119e-06,0
-7.05025e-07,2.04918e-05,-3.3333e-05,-0.000240938,-1.28714e-05,-1.82444e-05,4.68335e-05,-4.9632e-06,0
-7.67043e-06,1.95122e-05,-3.75048e-05,-0.000355683,2.74805e-05,-8.65638e-06,3.38436e-05,8.20996e-08,0
-1.77778e-05,2.00537e-05,-4.00908e-05,-0.000231348,4.18616e-05,4.73371e-06,2.57803e-05,2.95144e-06,0
-2.90527e-05,2.14058e-05,-4.34199e-05,2.73788e-05,2.80118e-05,1.14274e-05,1.93506e-05,5.30643e-06,0
-4.0291e-05,2.07049e-05,-3.98471e-05,0.000161782,1.04127e-05,1.15129e-05,1.15343e-05,5.52719e-06,0
-4.35134e-05,2.71827e-05,-2.1897e-05,0.000201224,2.66545e-06,1.33934e-05,4.57613e-06,1.36189e-06,0
-4.29532e-05,4.60024e-05,-2.10433e-06,0.000273603,5.76138e-06,1.72e-05,2.50977e-06,-5.20797e-06,0
-4.2631e-05,6.78663e-05,4.14634e-06,0.000288176,8.74591e-06,1.70794e-05,5.23953e-06,-1.12059e-05,0
-4.22966e-05,7.92064e-05,-3.53108e-06,0.000176715,4.64954e-06,9.32397e-06,3.63853e-06,-1.19997e-05,0
-4.24456e-05,7.26676e-05,-1.20678e-05,-2.3563e-05,-1.66054e-05,-1.96294e-06,-7.81543e-06,-8.416e-06,0
-3.7689e-05,5.12663e-05,-1.08899e-05,-0.00028571,-3.75739e-05,-8.37127e-06,-2.45355e-05,-3.47254e-06,0
-2.44157e-05,2.47028e-05,-5.64387e-06,-0.000491393,-3.54787e-05,-8.31802e-06,-3.79959e-05,-1.77995e-07,0
-1.10286e-05,1.76416e-06,-9.81638e-06,-0.000457299,-1.72524e-05,-1.75933e-05,-4.5872e-05,1.43019e-06,0
-7.38262e-06,-1.22455e-05,-1.78751e-05,-0.00018659,-6.4361e-07,-4.68269e-05,-5.03093e-05,2.15947e-06,0
-1.33153e-05,-1.69588e-05,-1.55409e-05,0.000108165,9.90528e-06,-7.94395e-05,-5.25842e-05,2.4275e-06,0
-2.24759e-05,-1.71863e-05,-4.34309e-06,0.000239783,2.51746e-05,-8.56977e-05,-5.17964e-05,1.52393e-06,0
-2.72413e-05,-1.69952e-05,5.7277e-06,0.000223201,4.90172e-05,-6.00671e-05,-4.47077e-05,-5.54292e-08,0
-2.62323e-05,-1.53492e-05,1.26347e-05,0.000138416,6.00813e-05,-2.83622e-05,-2.97587e-05,1.07156e-06,0
-2.40744e-05,-9.42491e-06,1.84148e-05,4.93051e-05,3.55879e-05,-1.38003e-05,-1.09189e-05,7.28385e-06,0
-2.64368e-05,-2.91713e-06,1.9803e-05,-1.8598e-05,-7.37582e-06,-1.47431e-05,4.98354e-06,1.77168e-05,0
-3.25794e-05,-1.31094e-06,1.20029e-05,-5.58669e-05,-3.63792e-05,-1.70358e-05,1.70054e-05,2.9731e-05,0
-3.66922e-05,-2.23127e-06,-3.1952e-06,-8.91921e-05,-4.17776e-05,-1.73345e-05,2.49727e-05,4.68506e-05,0
-3.60055e-05,-1.04779e-07,-1.77206e-05,-0.000124376,-3.34703e-05,-1.76058e-05,2.56234e-05,6.56548e-05,0
-3.28245e-05,4.53086e-06,-2.56655e-05,-0.000113892,-2.39598e-05,-1.75423e-05,1.72277e-05,6.88588e-05,0
-2.90362e-05,7.45577e-06,-2.48955e-05,-2.8199e-05,-1.02159e-05,-1.6308e-05,5.76404e-06,5.13915e-05,0
-2.60501e-05,9.2841e-06,-1.67479e-05,0.00012702,2.76874e-05,-1.11921e-05,-1.10765e-06,2.43396e-05,0
-2.37e-05,1.26042e-05,-6.38094e-06,0.000298678,7.84208e-05,-4.34906e-06,-2.60428e-06,-5.02546e-06,0
-2.16978e-05,1.52693e-05,-4.25798e-06,0.000379322,9.59243e-05,-1.97603e-06,-3.67958e-07,-3.2045e-05,0
-2.29804e-05,1.43471e-05,-1.21873e-05,0.000336758,6.61744e-05,-5.4639e-06,3.5976e-06,-5.23338e-05,0
-2.79563e-05,9.39374e-06,-1.68907e-05,0.000212169,2.93713e-05,-1.10158e-05,-1.27464e-07,-6.14535e-05,0
-3.18056e-05,6.56008e-06,-1.51869e-05,-1.76535e-05,1.80741e-05,-1.18518e-05,-7.11115e-06,-6.0385e-05,0
-3.00932e-05,9.84221e-06,-1.2313e-05,-0.000289237,2.78371e-05,-8.92752e-06,-2.54033e-06,-5.24863e-05,0
-2.6291e-05,1.71075e-05,-1.16722e-05,-0.000438685,3.82986e-05,-1.29247e-05,1.36123e-05,-4.05403e-05,0
-2.47328e-05,2.42946e-05,-1.81457e-05,-0.000415302,2.56374e-05,-2.60242e-05,3.4339e-05,-3.10055e-05,0
-2.51681e-05,2.80882e-05,-2.49623e-05,-0.000291527,-3.28775e-06,-3.60732e-05,5.28571e-05,-2.6851e-05,0
-2.59544e-05,2.75161e-05,-2.59262e-05,-0.000159548,-2.40262e-05,-3.93293e-05,6.5472e-05,-2.10374e-05,0
-2.43869e-05,2.30347e-05,-2.46608e-05,-6.71554e-05,-2.99083e-05,-4.01013e-05,6.96323e-05,-8.90879e-06,0
-1.58762e-05,1.79806e-05,-2.39928e-05,-3.43865e-05,-3.18017e-05,-3.9632e-05,6.72725e-05,1.58167e-06,0
-5.53724e-06,1.58277e-05,-2.25238e-05,-8.9509e-05,-3.35615e-05,-3.6938e-05,6.19309e-05,7.2675e-06,0
-3.96302e-06,1.96253e-05,-2.13529e-05,-0.000245183,-3.26467e-05,-3.31912e-05,5.33165e-05,1.09641e-05,0
-1.20502e-05,2.62754e-05,-2.24305e-05,-0.000420258,-3.1351e-05,-2.96275e-05,4.06748e-05,1.18742e-05,0
-2.30784e-05,3.32409e-05,-2.54578e-05,-0.0004631,-3.72281e-05,-2.56581e-05,2.72891e-05,8.87413e-06,0
-2.98163e-05,3.98731e-05,-2.87538e-05,-0.000346583,-5.44279e-05,-1.43376e-05,1.7459e-05,5.85841e-06,0
-2.52759e-05,4.6181e-05,-2.63652e-05,-0.000133108,-6.81167e-05,2.19784e-05,1.35039e-05,3.75249e-06,0
-9.30874e-06,5.21579e-05,-1.57564e-05,0.00013764,-6.29137e-05,7.10735e-05,1.23042e-05,1.13784e-06,0
2.66697e-06,5.47218e-05,-2.28219e-06,0.000387035,-3.59908e-05,8.64393e-05,6.08318e-06,-8.49016e-07,0
-3.02626e-06,5.06424e-05,7.18961e-06,0.00044342,3.49242e-06,5.5436e-05,-5.43898e-06,-1.00927e-06,0
-2.19586e-05,3.96326e-05,1.07855e-05,0.000262999,4.89225e-05,1.73566e-05,-1.43162e-05,-1.70201e-08,0
-4.00792e-05,2.52746e-05,7.56262e-06,2.5848e-05,9.10015e-05,-1.58852e-08,-1.42058e-05,1.13763e-06,0
-4.90029e-05,1.22275e-05,-2.94081e-06,-9.79234e-05,0.000112634,-2.82362e-06,-7.07765e-06,2.49937e-06,0
-5.11089e-05,3.25385e-06,-1.80831e-05,-8.68619e-05,9.62628e-05,-7.47909e-06,-2.98103e-07,3.80795e-06,0
-5.32295e-05,-3.81273e-06,-3.00728e-05,-8.05977e-06,4.13815e-05,-2.27998e-05,1.28945e-06,4.10142e-06,0
-5.7469e-05,-9.75088e-06,-3.53863e-05,3.48023e-05,-2.49149e-05,-4.65859e-05,-8.43366e-07,4.7438e-06,0
-6.14264e-05,-1.19366e-05,-3.41326e-05,3.08782e-05,-5.45991e-05,-5.76797e-05,-7.26259e-07,1.04077e-05,0
-6.24928e-05,-1.04155e-05,-2.46488e-05,6.71473e-05,-1.78279e-05,-3.87662e-05,3.09533e-06,1.57875e-05,0
-5.95228e-05,-9.13561e-06,-9.53555e-06,0.00010415,5.66331e-05,-6.74306e-06,6.74361e-06,1.799e-05,0
-5.44853e-05,-8.87791e-06,4.5004e-06,6.75617e-05,0.000101374,1.01226e-05,7.82142e-06,2.13015e-05,0
-5.17946e-05,-8.91222e-06,1.08649e-05,4.90153e-05,9.662e-05,5.6405e-06,7.11424e-06,2.35046e-05,0
-5.13745e-05,-7.91613e-06,7.18606e-06,9.25724e-05,7.39329e-05,-6.7254e-06,3.51797e-06,2.00171e-05,0
-5.11297e-05,-4.14506e-06,-1.40014e-06,9.89679e-05,4.53347e-05,-1.8337e-05,-1.30161e-05,2.29652e-05,0
-5.04431e-05,8.31436e-07,-1.07249e-05,-3.96484e-05,3.36513e-05,-2.40778e-05,-3.81369e-05,6.26674e-05,0
-4.61944e-05,4.58643e-06,-1.64339e-05,-0.000215244,4.76049e-05,-2.19678e-05,-5.09548e-05,0.000118831,0
-3.73942e-05,7.64812e-06,-1.68639e-05,-0.000164906,8.04329e-05,-1.07166e-05,-4.10566e-05,0.000138232,0
-2.96612e-05,1.03684e-05,-1.44418e-05,0.000101971,0.000153509,-2.69372e-06,-1.1278e-05,0.000121506,0
-2.6493e-05,1.20981e-05,-1.06977e-05,0.000328226,0.000244994,-3.39943e-06,2.74482e-05,9.11864e-05,0
-2.6528e-05,1.24316e-05,-9.03906e-06,0.000310255,0.000272067,-1.25443e-07,6.35932e-05,5.34809e-05,0
-2.83564e-05,1.2064e-05,-6.29238e-06,0.000151089,0.000219699,8.34017e-06,8.8753e-05,5.32199e-06,0
-2.91757e-05,1.43701e-05,1.88506e-06,5.013e-05,0.000133544,1.25242e-05,9.60823e-05,-4.96152e-05,0
-2.649e-05,2.19411e-05,1.24744e-05,7.95335e-05,4.13811e-05,7.891e-06,7.83243e-05,-9.92207e-05,0
-2.27219e-05,3.15508e-05,1.42025e-05,0.000150274,-4.46529e-05,-3.35962e-07,4.06336e-05,-0.000133144,0
-2.06332e-05,3.74894e-05,8.74724e-06,0.000130295,-0.000114301,-4.6846e-06,4.38316e-06,-0.000145551,0
-1.9943e-05,3.87916e-05,7.44331e-06,-4.8106e-06,-0.000153087,-5.37867e-06,-1.56636e-05,-0.000138349,0
-2.13792e-05,3.79327e-05,1.16332e-05,-0.000143222,-0.000161697,-1.2308e-05,-2.05912e-05,-0.000118179,0
-2.31514e-05,3.94512e-05,1.58968e-05,-0.000148049,-0.000144616,-2.26202e-05,-2.25702e-05,-9.45499e-05,0
-2.1294e-05,4.76529e-05,1.78134e-05,-6.78495e-05,-0.000103767,-2.19898e-05,-4.79295e-05,-7.29399e-05,0
-1.40934e-05,5.96392e-05,1.47515e-05,-4.56834e-05,-5.57209e-05,-9.80725e-06,-0.000111585,-5.40557e-05,0
1.99016e-06,6.45526e-05,6.06959e-06,-0.000103732,-2.99811e-05,-2.42234e-06,-0.000169804,-3.50527e-05,0
2.57274e-05,5.74428e-05,-1.74707e-06,-0.000117481,-2.98154e-05,-6.21456e-06,-0.000166041,-1.45347e-05,0
4.12341e-05,4.44988e-05,-6.56805e-06,-2.59811e-05,-3.75021e-05,-1.06902e-05,-0.000101511,5.13652e-06,0
4.30356e-05,3.20622e-05,-9.608e-06,9.61437e-05,-3.61072e-05,-9.88145e-06,-1.65146e-05,1.87939e-05,0
3.75306e-05,2.2325e-05,-1.27025e-05,0.000143245,-2.6649e-05,-1.32569e-05,6.00262e-05,2.36064e-05,0
2.69246e-05,1.3673e-05,-1.20666e-05,0.00012869,-1.39269e-05,-2.16207e-05,0.000123973,2.17866e-05,0
9.09434e-06,1.88459e-06,-5.04449e-06,7.99035e-05,-1.10999e-07,-2.57598e-05,0.000166407,1.82054e-05,0
-1.56318e-05,-9.04138e-06,4.75365e-07,5.16683e-06,3.15376e-05,-5.65891e-06,0.000162978,1.72332e-05,0
-4.26684e-05,-1.78927e-05,-4.73052e-07,-3.16634e-05,8.50581e-05,2.24377e-05,0.000123262,1.6598e-05,0
-6.34857e-05,-2.52161e-05,-3.94656e-06,-1.30539e-05,0.000120615,6.3557e-06,8.31487e-05,1.19728e-05,0
-6.78341e-05,-2.93264e-05,-6.55392e-06,4.5592e-06,0.000141659,-3.72118e-05,5.21901e-05,7.51559e-06,0
-6.40923e-05,-3.21934e-05,-1.04269e-05,-4.63913e-05,0.000138305,-6.06675e-05,3.17401e-05,7.57564e-06,0
-6.25212e-05,-3.19952e-05,-2.03727e-05,-0.000174356,7.03623e-05,-4.68932e-05,2.02054e-05,9.02372e-06,0
-6.42105e-05,-3.16576e-05,-3.09615e-05,-0.000255842,-3.21237e-05,-1.52318e-05,1.9681e-05,9.73259e-06,0
-7.0526e-05,-3.57469e-05,-3.3721e-05,-0.00018103,-0.000113101,1.81952e-05,2.8264e-05,1.0181e-05,0
-8.3545e-05,-4.28668e-05,-2.85092e-05,1.80075e-05,-0.000150793,4.80221e-05,3.82232e-05,1.19135e-05,0
-9.74484e-05,-4.56645e-05,-2.1154e-05,0.000220925,-0.000142918,5.16582e-05,4.38228e-05,1.36571e-05,0
-0.000102761,-3.99262e-05,-1.28726e-05,0.000309361,-9.5339e-05,2.94536e-05,4.21364e-05,1.39367e-05,0
-9.86455e-05,-3.04587e-05,-3.53936e-06,0.000261733,-3.81944e-05,4.01224e-06,3.63817e-05,1.27632e-05,0
-9.29683e-05,-2.30928e-05,3.41064e-06,0.000150806,-3.10396e-06,-1.40713e-05,2.79899e-05,1.13868e-05,0
-9.13353e-05,-1.77901e-05,4.98629e-06,5.54182e-05,1.33493e-06,-2.74491e-05,1.98409e-05,1.13252e-05,0
-8.9708e-05,-1.16266e-05,1.00621e-06,-2.54434e-05,-1.22709e-05,-3.50889e-05,1.28792e-05,1.19937e-05,0
-8.20067e-05,-4.96997e-06,-3.45704e-06,-0.000124307,-2.11617e-05,-3.5143e-05,7.66143e-06,1.41742e-05,0
-6.1283e-05,-1.9953e-07,-6.45808e-06,-0.000251475,-1.52577e-05,-2.91467e-05,1.41869e-06,2.31179e-05,0
-2.4828e-05,2.84981e-06,-9.45735e-06,-0.000383578,1.65797e-07,-2.09316e-05,-6.18148e-06,3.92281e-05,0
1.28547e-05,7.54244e-06,-1.21267e-05,-0.000447726,1.80334e-05,-1.51238e-05,-1.2688e-05,4.98207e-05,0
2.61422e-05,1.32126e-05,-1.02708e-05,-0.000322647,4.664e-05,-1.34664e-05,-1.40362e-05,4.67447e-05,0
1.34143e-05,1.57502e-05,-5.372e-06,-3.48581e-05,8.51532e-05,-1.18079e-05,-1.02508e-05,3.79165e-05,0
-4.30214e-06,1.47588e-05,-2.95191e-06,0.000195277,0.000108135,-6.6423e-06,-4.7453e-06,2.96182e-05,0
-1.20125e-05,1.28304e-05,-5.36968e-06,0.000244282,9.59683e-05,5.10762e-07,-1.8153e-06,1.54709e-05,0
-1.23666e-05,1.1034e-05,-9.4633e-06,0.000210008,6.44144e-05,5.70183e-06,-6.57748e-07,-6.10661e-06,0
-1.30057e-05,1.05701e-05,-1.17788e-05,0.00017572,3.73502e-05,7.80814e-06,1.89824e-06,-2.58966e-05,0
-1.61338e-05,1.16201e-05,-1.33684e-05,9.56923e-05,2.59656e-05,9.1477e-06,5.51937e-06,-3.7164e-05,0
-5.40767e-05,6.70486e-06,-6.45739e-06,-0.000164311,-1.91654e-06,3.40816e-06,-2.04443e-05,-7.91067e-06,0
-5.2838e-05,1.00011e-05,-7.49703e-06,-0.000107505,1.40454e-05,-2.16492e-05,-3.08251e-05,-1.22994e-05,0
-4.95687e-05,1.03212e-05,-1.00459e-05,-4.84373e-05,3.87242e-05,-5.4323e-05,-4.21648e-05,-1.74683e-05,0
-4.54922e-05,8.95748e-06,-1.22166e-05,3.65937e-07,5.01453e-05,-7.01688e-05,-4.90885e-05,-1.9075e-05,0
-4.00069e-05,1.0056e-05,-1.31613e-05,2.79905e-05,4.99091e-05,-6.73595e-05,-5.13281e-05,-1.61243e-05,0
-3.26854e-05,1.35856e-05,-1.25495e-05,2.03672e-05,5.06135e-05,-5.77804e-05,-4.88175e-05,-1.53042e-05,0
-2.63085e-05,1.37372e-05,-1.27506e-05,-2.91941e-05,4.39366e-05,-4.73855e-05,-3.88971e-05,-2.05956e-05,0
-1.84505e-05,1.35338e-05,-1.25568e-05,-9.09425e-05,2.59385e-05,-3.15794e-05,-2.41604e-05,-2.82066e-05,0
-1.16416e-05,1.48508e-05,-1.06352e-05,-0.000116111,8.1593e-06,-8.58729e-06,-1.18814e-05,-3.18442e-05,0
-1.45282e-05,1.33986e-05,-9.68574e-06,-9.49057e-05,1.79228e-06,6.64465e-06,-6.22568e-06,-2.7212e-05,0
-2.69906e-05,9.25447e-06,-1.20222e-05,-4.20947e-05,-3.78174e-06,7.13931e-06,-1.44207e-05,-1.80911e-05,0
-3.83501e-05,4.87335e-06,-1.62664e-05,2.22328e-05,-8.98241e-06,-1.32773e-06,-3.38584e-05,-1.03132e-05,0
-3.85467e-05,2.70159e-06,-1.87828e-05,5.65485e-05,-9.16036e-06,-7.92287e-06,-4.85879e-05,-4.39322e-06,0
-3.11701e-05,3.64827e-06,-1.72773e-05,3.18559e-05,-1.58948e-07,-8.56627e-06,-5.10705e-05,1.41832e-06,0
-2.6587e-05,6.22788e-06,-1.44439e-05,-4.57583e-05,2.12902e-05,-4.82447e-06,-4.49466e-05,7.99601e-06,0
-3.06384e-05,7.54257e-06,-1.53078e-05,-0.000128845,4.85446e-05,5.19972e-07,-3.31475e-05,1.31348e-05,0
-3.94697e-05,6.44926e-06,-1.8886e-05,-0.000144175,6.04058e-05,2.94629e-06,-1.6181e-05,2.13064e-05,0
-4.33673e-05,5.38238e-06,-1.93742e-05,-5.32785e-05,5.133e-05,1.65099e-06,3.44686e-06,3.9009e-05,0
-3.88325e-05,6.58252e-06,-1.4781e-05,8.78624e-05,4.0303e-05,7.29119e-07,2.00259e-05,5.56901e-05,0
-3.31752e-05,8.41873e-06,-9.54356e-06,0.000150045,4.36266e-05,1.58742e-06,2.82334e-05,5.29517e-05,0
-3.28452e-05,9.14321e-06,-7.35449e-06,9.55185e-05,5.62167e-05,7.43443e-07,2.71096e-05,2.99693e-05,0
-3.42166e-05,1.04436e-05,-8.7678e-06,4.21498e-05,6.43097e-05,-2.26275e-06,1.34585e-05,-5.02918e-07,0
-3.2752e-05,1.39443e-05,-1.3221e-05,5.94606e-05,5.99868e-05,-6.95171e-06,-1.2037e-05,-2.45281e-05,0
-2.93906e-05,1.79945e-05,-1.71591e-05,7.00123e-05,4.40588e-05,-1.26138e-05,-3.44226e-05,-3.64615e-05,0
-2.73936e-05,2.05439e-05,-1.58565e-05,-1.12603e-05,2.35859e-05,-1.895e-05,-4.40179e-05,-3.8715e-05,0
-2.70198e-05,2.10191e-05,-1.16753e-05,-0.000141871,1.09558e-05,-2.28972e-05,-4.19205e-05,-3.31954e-05,0
-2.70277e-05,2.06524e-05,-7.04066e-06,-0.000213598,1.75507e-05,-1.96645e-05,-2.88952e-05,-2.34279e-05,0
-2.75668e-05,2.00929e-05,-5.59591e-06,-0.000180456,4.6101e-05,-1.37511e-05,-6.41187e-07,-1.04993e-05,0
-2.81925e-05,1.88265e-05,-7.01956e-06,-6.21913e-05,6.50333e-05,-1.15526e-05,4.05591e-05,3.71051e-06,0
-2.81874e-05,1.92816e-05,-5.13602e-06,7.05132e-05,6.32487e-05,-8.49429e-06,7.83169e-05,1.30707e-05,0
-2.73547e-05,2.22792e-05,-3.42111e-07,0.000149112,9.49267e-05,-3.89916e-06,0.000103569,1.55612e-05,0
-2.54937e-05,2.34376e-05,5.15677e-06,0.000162627,0.000159019,-6.2542e-06,0.000114458,1.27134e-05,0
-2.44651e-05,2.11932e-05,1.03929e-05,0.000140121,0.000185653,-1.84655e-05,0.000110899,9.92197e-06,0
-2.4575e-05,1.89826e-05,1.44968e-05,0.000106051,0.000122899,-3.43251e-05,9.82204e-05,9.86236e-06,0
-2.55872e-05,1.72359e-05,1.48868e-05,7.15423e-05,2.85263e-05,-3.39468e-05,8.37061e-05,9.86428e-06,0
-2.88763e-05,1.56621e-05,1.06518e-05,2.77562e-05,-3.31389e-05,-1.46369e-05,7.06208e-05,9.9314e-06,0
-3.40527e-05,1.44829e-05,4.30951e-06,-1.27049e-05,-7.00305e-05,3.88834e-07,5.99811e-05,1.01573e-05,0
-3.73011e-05,1.2656e-05,-2.4751e-06,-2.02005e-05,-9.48295e-05,-2.57384e-06,4.83385e-05,1.0867e-05,0
-3.57665e-05,1.1105e-05,-9.20206e-06,4.18875e-06,-0.000110961,-1.61169e-05,3.52448e-05,1.14097e-05,0
-2.96321e-05,9.70839e-06,-1.33672e-05,3.6663e-05,-0.000109345,-2.75939e-05,2.41725e-05,1.09727e-05,0
-2.14146e-05,8.68909e-06,-1.142e-05,5.56433e-05,-8.29256e-05,-3.24237e-05,1.44832e-05,9.04e-06,0
-1.7171e-05,8.52986e-06,-4.81696e-06,6.15515e-05,-3.42846e-05,-3.1058e-05,4.96894e-06,7.21234e-06,0
-1.92742e-05,8.04238e-06,1.1476e-06,5.53164e-05,8.94086e-06,-2.95599e-05,-4.06013e-06,6.75547e-06,0
-2.43506e-05,4.96491e-06,3.77791e-06,3.24914e-05,2.45696e-05,-2.97574e-05,-9.39141e-06,6.2811e-06,0
-2.74788e-05,-7.08956e-07,2.50734e-06,-2.40877e-06,1.74114e-05,-2.67707e-05,-1.03472e-05,5.43664e-06,0
-2.7855e-05,-5.71747e-06,-2.47052e-07,-2.45145e-05,3.89861e-06,-1.88288e-05,-8.48377e-06,4.13974e-06,0
-2.84386e-05,-8.22224e-06,-7.41295e-07,-2.13355e-05,-1.47021e-05,-1.20796e-05,-7.31539e-06,2.25112e-06,0
-3.01428e-05,-7.95898e-06,4.41698e-07,-4.87783e-06,-3.40673e-05,-9.66048e-06,-7.48275e-06,1.61609e-07,0
-3.05937e-05,-4.99166e-06,1.21238e-06,4.78467e-06,-3.78582e-05,-8.31781e-06,-6.25938e-06,-2.63461e-06,0
-2.8435e-05,-8.09023e-07,1.46533e-06,-2.5856e-06,-2.32676e-05,-5.78467e-06,-4.0583e-06,-4.75368e-06,0
-2.59843e-05,2.13697e-06,1.09774e-06,-2.02564e-05,-1.22085e-05,-3.74291e-06,-5.50471e-06,-4.11076e-06,0
-2.51144e-05,3.21848e-06,-1.15926e-06,-3.85917e-05,-1.98714e-05,-3.57145e-06,-9.95673e-06,-2.68893e-06,0
-2.54766e-05,3.46576e-06,-5.56408e-06,-4.75816e-05,-3.15363e-05,-4.32839e-06,-1.17804e-05,-1.414e-06,0
