ch1,ch2,ch3,ch4,ch5,ch6,ch7,ch8,class
-3.61911e-05,-1.29377e-05,-6.9616e-06,-1.04347e-05,1.13362e-05,-1.84432e-05,2.31967e-05,5.22113e-06,0
-3.71614e-05,-1.35155e-05,-1.17901e-05,-1.56744e-05,1.22942e-05,-1.87502e-05,2.20666e-05,6.11899e-06,0
-3.65128e-05,-1.26684e-05,-1.73151e-05,-2.38691e-05,1.19983e-05,-1.72616e-05,2.10657e-05,9.90959e-06,0
-3.63773e-05,-1.39732e-05,-1.87465e-05,-3.69637e-05,9.67634e-06,-1.45778e-05,2.55658e-05,1.10537e-05,0
-3.64583e-05,-1.51332e-05,-1.98612e-05,-5.29616e-05,7.11362e-06,-1.37119e-05,3.18263e-05,9.05254e-06,0
-3.48841e-05,-1.5151e-05,-2.23654e-05,-7.32104e-05,5.22121e-06,-1.42781e-05,3.25384e-05,7.02967e-06,0
-3.34866e-05,-1.41025e-05,-2.48928e-05,-9.41497e-05,3.82477e-06,-1.52682e-05,2.53232e-05,5.89095e-06,0
-3.47604e-05,-1.11186e-05,-2.79464e-05,-0.000106253,9.21522e-07,-1.60726e-05,1.57583e-05,5.18415e-06,0
-3.53006e-05,-7.92319e-06,-3.16096e-05,-0.000104799,-1.75102e-06,-1.72319e-05,9.35321e-06,4.49174e-06,0
-3.31624e-05,-6.137e-06,-3.2818e-05,-8.57908e-05,-2.41296e-06,-1.84159e-05,7.42845e-06,4.87221e-06,0
-3.0894e-05,-4.89242e-06,-2.86134e-05,-4.89466e-05,-2.27763e-06,-1.97369e-05,8.20697e-06,4.67588e-06,0
-3.01297e-05,-3.01015e-06,-2.20917e-05,1.84416e-06,-1.88533e-06,-2.06804e-05,7.47461e-06,1.99379e-06,0
-3.00407e-05,-3.17041e-07,-1.67297e-05,5.44157e-05,-2.52752e-07,-1.98353e-05,5.24751e-06,-7.94763e-07,0
-2.96664e-05,3.157e-06,-1.25909e-05,9.28464e-05,4.45376e-06,-1.67978e-05,3.13997e-06,-1.10054e-06,0
-2.9491e-05,6.19912e-06,-7.58954e-06,0.000113049,9.41106e-06,-1.37506e-05,2.45201e-06,-5.51852e-07,0
-2.97319e-05,8.94238e-06,-2.11224e-06,0.000116101,1.26829e-05,-1.22253e-05,3.01457e-06,5.31744e-07,0
-2.87759e-05,1.1724e-05,3.95267e-07,0.000103641,1.59031e-05,-1.10884e-05,4.3384e-06,1.66348e-06,0
-2.64144e-05,1.48622e-05,-6.20936e-07,8.01611e-05,2.05176e-05,-9.74269e-06,5.94045e-06,6.81525e-07,0
-2.4444e-05,1.63581e-05,-4.34437e-06,5.56272e-05,2.64e-05,-8.38668e-06,8.38174e-06,-1.79925e-06,0
-2.49766e-05,1.43556e-05,-1.02489e-05,3.89077e-05,3.12709e-05,-8.09233e-06,1.06391e-05,-3.35995e-06,0
-2.73456e-05,1.06771e-05,-1.70808e-05,3.62099e-05,3.22365e-05,-8.16619e-06,1.12094e-05,-2.98879e-06,0
-2.84898e-05,7.96224e-06,-2.27719e-05,5.01425e-05,2.9744e-05,-7.18058e-06,1.1792e-05,-2.1931e-06,0
-2.7045e-05,6.49188e-06,-2.45335e-05,6.90367e-05,2.66359e-05,-5.98503e-06,1.87294e-05,-2.79803e-06,0
-2.47864e-05,6.55672e-06,-2.0249e-05,7.13371e-05,2.47385e-05,-5.09577e-06,4.00389e-05,-3.73734e-06,0
-2.5582e-05,7.17054e-06,-1.25535e-05,4.93977e-05,2.3289e-05,-3.39546e-06,6.85484e-05,-3.23302e-06,0
-2.903e-05,6.83906e-06,-5.75295e-06,1.39271e-05,2.10426e-05,-1.60742e-06,8.21379e-05,-1.68511e-06,0
-3.10461e-05,5.90731e-06,1.86924e-06,-1.36643e-05,1.87818e-05,7.92694e-07,7.15458e-05,-1.40784e-06,0
-3.09095e-05,4.65388e-06,1.43393e-05,-2.044e-05,1.67269e-05,1.92973e-06,4.55515e-05,-2.18949e-06,0
-3.15458e-05,3.75259e-06,3.06353e-05,-1.44178e-05,1.29684e-05,3.62199e-10,1.24986e-05,-1.90415e-06,0
-3.23933e-05,2.72037e-06,4.61836e-05,-1.35811e-05,7.08117e-06,-2.05031e-06,-1.60147e-05,-8.77299e-07,0
-3.24995e-05,1.13543e-06,5.65411e-05,-1.86328e-05,3.3567e-06,-3.49218e-06,-3.36447e-05,-1.18335e-06,0
-3.15062e-05,9.63598e-07,5.24652e-05,-2.17542e-05,1.86728e-06,-4.99844e-06,-4.23854e-05,-5.10901e-06,0
-2.86448e-05,3.17139e-06,2.76919e-05,-2.15923e-05,7.12199e-07,-6.85949e-06,-4.17776e-05,-8.912e-06,0
-2.83654e-05,6.24776e-06,-1.20392e-05,-1.22922e-05,6.87665e-07,-8.42427e-06,-3.73501e-05,-9.6028e-06,0
-3.06855e-05,9.29652e-06,-5.31923e-05,1.64488e-06,3.14581e-06,-7.86115e-06,-2.81224e-05,-9.64639e-06,0
-3.20091e-05,1.2054e-05,-8.18312e-05,1.53149e-05,6.17594e-06,-5.99506e-06,-1.67505e-05,-1.04767e-05,0
-3.24444e-05,1.45412e-05,-9.41677e-05,2.65177e-05,8.42222e-06,-3.48123e-06,-8.11686e-06,-1.05741e-05,0
-3.12656e-05,1.55706e-05,-9.16469e-05,3.08167e-05,1.06709e-05,-1.46396e-06,-3.24555e-06,-8.9822e-06,0
-2.91259e-05,1.50699e-05,-7.93204e-05,2.14808e-05,1.39265e-05,-8.28714e-07,-9.10012e-07,-7.42933e-06,0
-2.83381e-05,1.4921e-05,-6.51166e-05,-3.88612e-06,1.84704e-05,-6.07834e-07,2.69584e-06,-6.38591e-06,0
-2.94785e-05,1.77153e-05,-5.37813e-05,-3.61611e-05,2.22534e-05,3.6405e-07,6.58206e-06,-5.26224e-06,0
-2.98767e-05,2.27645e-05,-4.44469e-05,-5.97932e-05,2.47809e-05,5.96446e-07,1.05661e-05,-3.40145e-06,0
-2.86971e-05,2.56948e-05,-3.5617e-05,-6.72388e-05,2.55696e-05,-1.12989e-06,1.32961e-05,-1.28375e-06,0
-2.74586e-05,2.54631e-05,-2.83284e-05,-6.80425e-05,2.24106e-05,-3.00693e-06,1.60627e-05,7.8374e-08,0
-2.62662e-05,2.46848e-05,-2.13888e-05,-7.32547e-05,1.54952e-05,-3.58358e-06,1.84936e-05,6.92809e-07,0
-2.50909e-05,2.46136e-05,-1.3107e-05,-8.20683e-05,1.01449e-05,-3.87386e-06,1.98796e-05,5.50039e-07,0
-2.45401e-05,2.43881e-05,-4.81469e-06,-8.78084e-05,7.99027e-06,-5.61058e-06,1.91133e-05,8.29282e-07,0
-2.55121e-05,2.42268e-05,-7.30279e-07,-8.89644e-05,5.86479e-06,-8.01613e-06,1.69795e-05,2.26412e-06,0
-2.7277e-05,2.5141e-05,-5.06017e-07,-8.33003e-05,2.62363e-06,-9.54187e-06,1.40515e-05,3.95398e-06,0
-2.77271e-05,2.68512e-05,-4.97479e-07,-7.07806e-05,4.6207e-07,-8.50573e-06,1.16449e-05,4.83415e-06,0
-2.7398e-05,2.79432e-05,1.57543e-06,-6.04964e-05,7.66774e-07,-6.23032e-06,9.86725e-06,5.07642e-06,0
-2.79508e-05,2.69489e-05,4.97332e-06,-5.70257e-05,3.94662e-06,-4.73313e-06,4.63304e-06,7.22548e-06,0
-2.89288e-05,2.45237e-05,5.81556e-06,-5.01185e-05,7.67779e-06,-3.92911e-06,-6.61815e-06,1.08549e-05,0
-3.06183e-05,2.15574e-05,2.20984e-06,-3.0727e-05,1.09861e-05,-3.02396e-06,-1.85368e-05,1.20257e-05,0
-3.21386e-05,1.91897e-05,-5.36082e-07,-3.28313e-06,1.32446e-05,-2.86378e-06,-2.33371e-05,1.16824e-05,0
-3.25706e-05,1.74441e-05,1.025e-06,2.21161e-05,1.3821e-05,-2.57843e-06,-2.10149e-05,1.13904e-05,0
-3.24267e-05,1.75263e-05,3.04541e-06,3.65559e-05,1.46763e-05,-2.8571e-06,-1.55619e-05,1.08708e-05,0
-3.11081e-05,1.92771e-05,3.99988e-06,3.69282e-05,1.67168e-05,-4.15264e-06,-7.89617e-06,9.93571e-06,0
-2.88268e-05,1.97279e-05,5.97752e-06,2.96315e-05,1.93817e-05,-4.43099e-06,3.27038e-06,8.6488e-06,0
-2.73188e-05,1.98468e-05,7.21369e-06,2.25283e-05,2.02269e-05,-3.26864e-06,1.80474e-05,8.82208e-06,0
-2.79888e-05,1.79814e-05,5.78635e-06,2.21131e-05,1.78472e-05,-3.62627e-06,3.44908e-05,9.36221e-06,0
-3.03915e-05,1.69294e-05,3.61518e-06,3.01072e-05,1.38683e-05,-6.11107e-06,4.6768e-05,1.02367e-05,0
-3.12009e-05,1.86812e-05,4.28914e-07,4.24165e-05,1.06748e-05,-7.11386e-06,5.3438e-05,9.62242e-06,0
-3.11642e-05,2.03764e-05,-3.67126e-06,4.56029e-05,7.80447e-06,-6.25395e-06,5.53028e-05,7.00449e-06,0
-3.20175e-05,1.91056e-05,-6.91845e-06,3.37164e-05,5.22404e-06,-5.45699e-06,5.41757e-05,5.76615e-06,0
-3.14191e-05,1.62679e-05,-9.11896e-06,1.48356e-05,3.25863e-06,-5.60163e-06,5.14325e-05,4.76125e-06,0
-2.90693e-05,1.65596e-05,-1.06659e-05,-1.86628e-06,3.36599e-06,-5.33136e-06,4.79434e-05,2.44375e-06,0
-2.6517e-05,1.9277e-05,-1.09355e-05,-1.34814e-05,4.24702e-06,-5.3822e-06,4.45378e-05,7.67239e-07,0
-2.52207e-05,2.12566e-05,-1.02967e-05,-2.39425e-05,5.60173e-06,-6.58593e-06,4.13149e-05,1.3679e-06,0
-2.55252e-05,2.04924e-05,-9.77419e-06,-3.3938e-05,8.06856e-06,-8.36171e-06,3.79399e-05,2.74028e-06,0
-2.66316e-05,1.85322e-05,-9.20912e-06,-3.9641e-05,1.14564e-05,-8.41779e-06,3.53102e-05,2.23959e-06,0
-2.72931e-05,1.65276e-05,-8.36979e-06,-3.50085e-05,1.65757e-05,-7.08828e-06,3.34234e-05,3.02961e-07,0
-2.75686e-05,1.5355e-05,-6.62998e-06,-2.26743e-05,2.32084e-05,-5.73998e-06,3.03054e-05,-2.54866e-07,0
-2.77845e-05,1.45358e-05,-2.80859e-06,-1.20346e-05,2.96672e-05,-4.61805e-06,2.72305e-05,3.92354e-08,0
-2.77633e-05,1.48368e-05,8.04337e-07,-9.51e-06,3.24412e-05,-3.59794e-06,2.54953e-05,1.21922e-07,0
-2.67069e-05,1.69455e-05,2.12313e-06,-8.86717e-06,3.11545e-05,-2.64962e-06,2.16976e-05,8.84712e-08,0
-2.50296e-05,1.91978e-05,2.28942e-06,4.51726e-07,2.75009e-05,-2.77547e-06,1.45847e-05,-1.45322e-08,0
-2.45227e-05,2.02368e-05,2.64682e-06,2.15315e-05,2.47207e-05,-3.03784e-06,8.52553e-06,-1.62514e-06,0
-2.48263e-05,2.18216e-05,3.52834e-06,4.2538e-05,2.24889e-05,-3.56803e-06,5.14871e-06,-4.60462e-06,0
-2.5053e-05,2.37507e-05,2.15929e-06,5.09414e-05,1.93924e-05,-3.96321e-06,3.32116e-06,-5.89337e-06,0
-2.67275e-05,2.52283e-05,-2.00525e-07,4.82529e-05,1.71722e-05,-3.95098e-06,1.81309e-06,-5.64385e-06,0
-2.78578e-05,2.66342e-05,-1.33671e-06,4.25853e-05,1.45526e-05,-4.23095e-06,1.27264e-06,-4.86308e-06,0
-2.68855e-05,2.60467e-05,2.66545e-07,3.62992e-05,1.20955e-05,-4.31426e-06,2.62707e-06,-3.0667e-06,0
-2.74841e-05,2.50345e-05,2.60723e-06,2.57549e-05,1.25975e-05,-4.78961e-06,2.77369e-06,-1.79082e-07,0
-2.93572e-05,2.43826e-05,2.14632e-06,1.01043e-05,1.32447e-05,-5.55361e-06,1.18767e-06,3.54083e-06,0
-2.89906e-05,2.188e-05,3.19043e-06,-6.24129e-06,1.44464e-05,-7.33961e-06,2.39179e-07,5.17364e-06,0
-2.63251e-05,1.7396e-05,3.1964e-06,-1.12053e-05,1.60835e-05,-1.01931e-05,1.20376e-06,4.06823e-06,0
-2.5572e-05,1.33744e-05,1.10469e-06,7.80446e-06,1.57987e-05,-1.13732e-05,3.64333e-06,3.05587e-06,0
-2.57748e-05,1.16859e-05,3.6028e-08,4.41615e-05,1.45182e-05,-1.10422e-05,4.64633e-06,3.26795e-06,0
-2.47912e-05,1.27371e-05,6.1469e-07,7.31899e-05,1.40319e-05,-9.49062e-06,4.98903e-06,3.58436e-06,0
-2.47069e-05,1.52588e-05,1.6743e-06,7.76603e-05,1.54248e-05,-7.36517e-06,5.52122e-06,3.95863e-06,0
-2.63265e-05,1.58681e-05,2.05532e-06,5.05568e-05,1.69498e-05,-8.17985e-06,6.99537e-06,5.62617e-06,0
-2.86238e-05,1.33071e-05,3.54345e-06,8.64386e-06,1.75785e-05,-1.07913e-05,8.29732e-06,6.74078e-06,0
-3.0123e-05,9.67181e-06,4.76653e-06,-2.30326e-05,1.70199e-05,-1.21392e-05,7.87005e-06,7.11421e-06,0
-3.00249e-05,7.03534e-06,4.74905e-06,-3.87877e-05,1.77651e-05,-1.27522e-05,7.39411e-06,7.32511e-06,0
-2.87268e-05,5.98888e-06,4.27667e-06,-4.38268e-05,2.08326e-05,-1.32797e-05,8.2336e-06,6.28374e-06,0
-2.88109e-05,5.85862e-06,4.34404e-06,-4.26886e-05,2.34437e-05,-1.29545e-05,1.01626e-05,3.95362e-06,0
-3.1467e-05,4.91921e-06,3.96359e-06,-4.04602e-05,2.184e-05,-1.25518e-05,1.27257e-05,1.12771e-06,0
-3.42282e-05,2.71653e-06,1.64724e-06,-4.54547e-05,1.5433e-05,-1.41223e-05,1.53225e-05,-9.82541e-07,0
-3.48241e-05,1.01921e-06,-3.10972e-06,-5.26084e-05,8.61189e-06,-1.50182e-05,1.58578e-05,-1.03707e-06,0
-3.40688e-05,-4.41601e-07,-8.18497e-06,-4.35553e-05,5.96477e-06,-1.35592e-05,1.46298e-05,6.36937e-07,0
-3.3338e-05,-1.48397e-06,-1.04625e-05,-1.51421e-05,8.11907e-06,-1.16842e-05,1.33343e-05,2.25803e-06,0
-3.29749e-05,-1.17921e-06,-1.0197e-05,1.08083e-05,9.94968e-06,-1.11967e-05,1.28751e-05,2.93601e-06,0
-3.23277e-05,2.0285e-07,-8.22659e-06,2.1365e-05,7.98412e-06,-1.18249e-05,1.24828e-05,2.7827e-06,0
-3.11636e-05,1.53557e-06,-3.89565e-06,2.15688e-05,5.14817e-06,-1.22801e-05,1.17261e-05,1.17939e-06,0
-3.08765e-05,3.27089e-06,2.71365e-07,2.18024e-05,5.509e-06,-1.20491e-05,1.00938e-05,-5.62075e-07,0
-3.15785e-05,3.89777e-06,1.4114e-06,3.19864e-05,8.35729e-06,-1.29276e-05,7.70719e-06,-9.14744e-07,0
-3.19254e-05,2.14361e-06,-2.43541e-06,4.70482e-05,1.07057e-05,-1.30447e-05,5.44637e-06,-8.26987e-07,0
-3.09714e-05,1.19931e-07,-7.51222e-06,5.17653e-05,1.43394e-05,-1.03001e-05,5.6013e-06,-1.44591e-06,0
-2.997e-05,-1.07537e-06,-9.12356e-06,3.73509e-05,2.1572e-05,-8.92284e-06,6.6405e-06,-1.99445e-06,0
-2.99654e-05,-4.11325e-08,-9.31562e-06,1.10641e-05,2.99433e-05,-1.05902e-05,6.60571e-06,-1.86955e-06,0
-2.9189e-05,2.83335e-06,-9.42195e-06,-1.89201e-05,3.34065e-05,-1.12565e-05,7.67552e-06,-3.50369e-06,0
-2.8361e-05,6.98341e-06,-9.41064e-06,-5.28386e-05,3.12866e-05,-8.71335e-06,8.95152e-06,-5.3609e-06,0
-2.78199e-05,1.14085e-05,-7.9686e-06,-7.98393e-05,2.77544e-05,-8.11189e-06,9.77053e-06,-5.65502e-06,0
-2.78826e-05,1.4398e-05,-6.56598e-06,-8.61135e-05,2.43101e-05,-8.66149e-06,9.69391e-06,-4.36873e-06,0
-2.91589e-05,1.62313e-05,-5.11486e-06,-7.25372e-05,2.14032e-05,-8.04125e-06,9.31021e-06,-3.11055e-06,0
-2.95731e-05,2.21387e-05,-2.90694e-06,-5.05834e-05,1.94315e-05,-7.8978e-06,9.24593e-06,-2.77576e-06,0
-2.81543e-05,3.2223e-05,-4.09486e-07,-2.83629e-05,1.94743e-05,-8.953e-06,9.60179e-06,-2.64797e-06,0
-2.64824e-05,4.0628e-05,2.12601e-06,-6.04396e-06,1.89965e-05,-1.03575e-05,1.1773e-05,-2.99601e-06,0
-2.62747e-05,4.31451e-05,2.86461e-06,1.72583e-05,1.79817e-05,-1.10752e-05,1.47221e-05,-4.37711e-06,0
-2.75955e-05,3.79757e-05,1.52002e-06,3.84953e-05,1.81393e-05,-1.01349e-05,1.51402e-05,-6.42559e-06,0
-2.87799e-05,2.73083e-05,-5.71003e-07,4.86994e-05,1.83076e-05,-8.38602e-06,1.2798e-05,-6.721e-06,0
-2.91604e-05,1.51613e-05,-2.89567e-06,4.79521e-05,1.87653e-05,-8.92703e-06,1.04612e-05,-5.96114e-06,0
-2.95212e-05,5.52902e-06,-5.46946e-06,4.08688e-05,2.13317e-05,-1.08282e-05,9.43416e-06,-5.38677e-06,0
-2.9624e-05,-1.83342e-06,-8.00464e-06,2.326e-05,2.32424e-05,-1.22995e-05,9.72825e-06,-4.92412e-06,0
-2.99045e-05,-7.65662e-06,-1.00938e-05,-6.18929e-06,2.07415e-05,-1.3206e-05,1.05148e-05,-3.87533e-06,0
-3.12323e-05,-1.19855e-05,-1.16909e-05,-3.83427e-05,1.62561e-05,-1.4532e-05,1.04221e-05,-2.81475e-06,0
-3.36108e-05,-1.51828e-05,-1.32378e-05,-6.11495e-05,1.30813e-05,-1.62832e-05,1.02679e-05,-2.07953e-06,0
-3.52367e-05,-1.70744e-05,-1.4369e-05,-7.44972e-05,1.24971e-05,-1.77155e-05,1.14694e-05,-8.96421e-07,0
-3.49063e-05,-1.47255e-05,-1.48248e-05,-8.23163e-05,1.29557e-05,-1.82178e-05,1.23771e-05,5.18675e-08,0
-3.38141e-05,-7.73475e-06,-1.42775e-05,-7.52741e-05,1.20655e-05,-1.847e-05,1.16482e-05,6.29006e-07,0
-3.39227e-05,4.79337e-07,-1.31702e-05,-4.09125e-05,1.01677e-05,-1.79183e-05,1.04134e-05,3.04942e-06,0
-3.45181e-05,6.50268e-06,-1.22203e-05,1.35835e-05,9.51263e-06,-1.6763e-05,9.09985e-06,5.94313e-06,0
-3.52718e-05,9.43502e-06,-1.24751e-05,5.6336e-05,1.09326e-05,-1.50751e-05,7.19719e-06,6.37644e-06,0
-3.53388e-05,1.05853e-05,-1.28042e-05,6.5446e-05,1.27533e-05,-1.23917e-05,6.49344e-06,4.18798e-06,0
-3.45795e-05,1.02697e-05,-1.22735e-05,5.26672e-05,1.29148e-05,-1.06518e-05,7.03547e-06,1.36396e-06,0
-3.33437e-05,9.52862e-06,-1.11405e-05,4.22965e-05,1.53853e-05,-1.07834e-05,9.38527e-06,1.57029e-06,0
-3.20561e-05,7.5873e-06,-9.67571e-06,4.50066e-05,2.03486e-05,-1.2066e-05,1.25534e-05,3.11722e-06,0
-3.20932e-05,4.72016e-06,-1.06632e-05,4.60179e-05,2.32025e-05,-1.27334e-05,1.47216e-05,3.7104e-06,0
-3.26451e-05,1.56764e-06,-1.28829e-05,3.66229e-05,2.4165e-05,-1.12822e-05,1.77117e-05,4.04694e-06,0
-3.38179e-05,7.37232e-07,-1.40218e-05,2.56042e-05,2.34494e-05,-1.04132e-05,2.05395e-05,2.72186e-06,0
-3.50053e-05,3.9805e-06,-1.45404e-05,1.61431e-05,1.93814e-05,-1.15042e-05,2.26022e-05,1.34447e-06,0
-3.49612e-05,7.759e-06,-1.53361e-05,4.19811e-06,1.33167e-05,-1.23749e-05,2.2804e-05,1.54508e-06,0
-3.31466e-05,1.02127e-05,-1.68853e-05,-1.02492e-05,1.02132e-05,-1.15193e-05,2.19989e-05,7.61321e-07,0
-3.23397e-05,1.05718e-05,-1.84493e-05,-1.8855e-05,1.1817e-05,-9.23068e-06,2.10659e-05,-7.8374e-07,0
-3.29941e-05,8.43699e-06,-2.01024e-05,-2.04631e-05,1.34626e-05,-9.14538e-06,2.00459e-05,-9.89408e-07,0
-3.44228e-05,5.35154e-06,-2.16954e-05,-1.97534e-05,1.31894e-05,-1.14794e-05,1.91353e-05,-2.90444e-07,0
-3.5159e-05,3.10022e-06,-2.34046e-05,-1.78734e-05,1.37699e-05,-1.46211e-05,1.81012e-05,-4.19018e-07,0
-3.39206e-05,2.96237e-06,-2.41963e-05,-1.1193e-05,1.55037e-05,-1.63987e-05,1.75014e-05,-6.84869e-07,0
-3.32609e-05,4.184e-06,-2.22208e-05,6.08399e-07,1.64877e-05,-1.70839e-05,1.71879e-05,-6.49776e-07,0
-3.40116e-05,5.12245e-06,-1.82886e-05,1.19852e-05,1.58802e-05,-1.61876e-05,1.68881e-05,-9.60466e-07,0
-3.53216e-05,6.37882e-06,-1.53356e-05,1.5703e-05,1.40285e-05,-1.39937e-05,1.64981e-05,-1.23832e-06,0
-3.56192e-05,8.25683e-06,-1.5286e-05,1.02864e-05,1.06314e-05,-1.32253e-05,1.69008e-05,-1.66678e-06,0
-3.51445e-05,9.53238e-06,-1.76223e-05,1.57246e-06,7.99826e-06,-1.28282e-05,1.7055e-05,-2.76514e-06,0
-3.39012e-05,1.06354e-05,-1.94071e-05,-4.09144e-06,7.50866e-06,-1.14653e-05,1.63021e-05,-3.8902e-06,0
-3.24291e-05,1.21636e-05,-1.9056e-05,-6.48091e-06,6.93988e-06,-1.10822e-05,1.60418e-05,-4.0603e-06,0
-3.24229e-05,1.34559e-05,-1.87896e-05,-9.1644e-06,4.64967e-06,-1.33748e-05,1.61851e-05,-3.31384e-06,0
-3.40104e-05,1.4573e-05,-1.8417e-05,-1.10768e-05,2.88278e-06,-1.57369e-05,1.40213e-05,-2.19302e-06,0
-3.45234e-05,1.58438e-05,-1.7357e-05,-1.2625e-05,3.00734e-06,-1.62811e-05,1.0352e-05,-1.03699e-06,0
-3.35775e-05,1.77144e-05,-1.56698e-05,-1.64223e-05,4.00194e-06,-1.48543e-05,9.05221e-06,-8.49236e-07,0
-3.218e-05,2.01742e-05,-1.31818e-05,-2.7711e-05,4.94811e-06,-1.30802e-05,1.07913e-05,-2.3389e-06,0
-3.12047e-05,2.38006e-05,-1.18174e-05,-4.5632e-05,5.92644e-06,-1.15099e-05,1.18919e-05,-4.35414e-06,0
-3.15297e-05,2.80366e-05,-1.03621e-05,-5.80784e-05,8.66267e-06,-1.07392e-05,1.11893e-05,-4.37979e-06,0
-3.18507e-05,3.16437e-05,-9.01513e-06,-5.54355e-05,1.38973e-05,-1.06084e-05,1.00356e-05,-2.40823e-06,0
-3.06071e-05,3.4495e-05,-8.70644e-06,-4.00777e-05,1.80652e-05,-1.05469e-05,9.92407e-06,-6.83857e-07,0
-2.97074e-05,3.43483e-05,-6.56624e-06,-2.51554e-05,1.78463e-05,-9.07838e-06,1.08175e-05,5.93749e-07,0
-2.94232e-05,3.15889e-05,-3.85957e-06,-2.55123e-05,1.62748e-05,-5.37757e-06,9.2218e-06,1.18007e-06,0
-2.72016e-05,2.86932e-05,-1.38605e-06,-3.76403e-05,1.52875e-05,-3.59344e-06,6.89279e-06,1.95168e-06,0
-2.72748e-05,2.56834e-05,-9.35e-07,-4.48421e-05,1.47449e-05,-4.50652e-06,6.11062e-06,4.49786e-06,0
-2.96655e-05,2.23569e-05,-3.88256e-06,-4.21078e-05,1.34162e-05,-4.59509e-06,6.98402e-06,7.33157e-06,0
-3.13311e-05,2.07052e-05,-6.16721e-06,-3.25835e-05,1.15152e-05,-3.78241e-06,9.51809e-06,8.0083e-06,0
-3.16516e-05,2.11875e-05,-5.85562e-06,-2.02278e-05,1.11874e-05,-4.30216e-06,1.00585e-05,7.33718e-06,0
-3.11546e-05,2.21327e-05,-4.39675e-06,-9.44741e-06,1.17185e-05,-6.56743e-06,9.75523e-06,6.80547e-06,0
-3.04661e-05,2.21646e-05,-3.78115e-06,-1.26972e-06,1.21725e-05,-8.81631e-06,1.01447e-05,5.02969e-06,0
-3.02497e-05,2.17863e-05,-3.84932e-06,3.71149e-06,1.33238e-05,-9.39528e-06,9.05313e-06,2.94389e-06,0
-3.08188e-05,2.1622e-05,-3.80464e-06,2.07348e-06,1.51948e-05,-9.84326e-06,6.53849e-06,9.55072e-07,0
-3.07309e-05,2.0867e-05,-2.81777e-06,-5.34838e-06,1.69763e-05,-1.10665e-05,4.84866e-06,-9.1365e-07,0
-3.09491e-05,2.04734e-05,-1.33427e-06,-1.17688e-05,1.76896e-05,-1.16749e-05,5.34419e-06,-7.93432e-07,0
-3.21392e-05,2.13399e-05,-1.13549e-06,-1.347e-05,1.73108e-05,-1.17134e-05,5.81832e-06,1.39207e-06,0
-3.28537e-05,2.39486e-05,-3.20914e-06,-1.22272e-05,1.8272e-05,-1.22313e-05,5.31398e-06,3.21882e-06,0
-3.20145e-05,2.75414e-05,-5.95353e-06,-1.11441e-05,2.05805e-05,-1.27381e-05,5.45749e-06,2.81034e-06,0
-3.15707e-05,2.99659e-05,-7.14084e-06,-8.80316e-06,2.11783e-05,-1.1707e-05,7.78999e-06,1.52834e-06,0
-3.29191e-05,2.96264e-05,-7.61665e-06,-3.07939e-06,1.89915e-05,-9.00057e-06,9.99482e-06,1.51387e-06,0
-3.42517e-05,2.75818e-05,-9.53892e-06,2.97433e-06,1.57591e-05,-6.60598e-06,1.05017e-05,2.97477e-06,0
-3.41451e-05,2.5214e-05,-1.19558e-05,4.88378e-06,1.37261e-05,-6.19695e-06,1.0336e-05,3.80446e-06,0
-3.35409e-05,2.37119e-05,-1.31979e-05,3.07718e-06,1.26506e-05,-6.56866e-06,1.07083e-05,3.60595e-06,0
-3.19424e-05,2.34288e-05,-1.332e-05,2.60398e-06,1.11359e-05,-6.56937e-06,1.18887e-05,2.70296e-06,0
-2.97692e-05,2.21377e-05,-1.08757e-05,5.62635e-06,9.77769e-06,-7.0309e-06,1.26605e-05,1.15397e-06,0
-2.84234e-05,2.07545e-05,-6.929e-06,6.80908e-06,1.00936e-05,-8.86774e-06,1.33695e-05,5.05511e-07,0
-2.83157e-05,2.0408e-05,-2.67289e-06,1.88196e-06,1.13919e-05,-1.24919e-05,1.4366e-05,1.69005e-06,0
-2.75916e-05,2.09204e-05,2.58793e-06,-6.64379e-06,1.26699e-05,-1.46421e-05,1.35375e-05,3.34276e-06,0
-2.65123e-05,2.29037e-05,8.41027e-06,-1.661e-05,1.28562e-05,-1.43095e-05,1.23775e-05,4.1941e-06,0
-2.71898e-05,2.3434e-05,1.44826e-05,-2.82986e-05,1.23992e-05,-1.32315e-05,1.38767e-05,3.16656e-06,0
-2.64626e-05,2.21359e-05,2.18795e-05,-4.21637e-05,1.27245e-05,-1.18064e-05,1.56619e-05,1.35912e-06,0
-2.3829e-05,2.19718e-05,3.36504e-05,-4.70303e-05,1.23818e-05,-1.17773e-05,1.65722e-05,5.8108e-07,0
-2.32649e-05,2.2804e-05,4.98641e-05,-3.2671e-05,1.45729e-05,-1.14265e-05,1.75007e-05,7.33124e-07,0
-2.41575e-05,2.13032e-05,6.31443e-05,-5.01666e-06,1.77899e-05,-8.71873e-06,1.9543e-05,-1.95715e-07,0
-2.38953e-05,1.90836e-05,6.36243e-05,2.51222e-05,2.00478e-05,-5.77229e-06,2.0637e-05,-1.09086e-06,0
-2.38463e-05,1.79301e-05,4.53678e-05,4.92917e-05,1.9794e-05,-3.96044e-06,1.872e-05,5.44488e-07,0
-2.53968e-05,1.64378e-05,1.1057e-05,6.33221e-05,1.45537e-05,-3.59015e-06,1.66631e-05,2.09748e-06,0
-2.73655e-05,1.41829e-05,-2.92863e-05,6.69434e-05,8.76691e-06,-4.85434e-06,1.55823e-05,2.86753e-06,0
-2.88259e-05,1.16537e-05,-6.60456e-05,6.10418e-05,6.11873e-06,-6.12446e-06,1.48628e-05,3.20223e-06,0
-3.01942e-05,1.22855e-05,-9.12699e-05,4.86407e-05,7.3452e-06,-5.78489e-06,1.451e-05,2.11566e-06,0
-3.06281e-05,1.40467e-05,-9.99141e-05,3.51297e-05,9.07317e-06,-4.02223e-06,1.39606e-05,-1.44241e-07,0
-3.02307e-05,1.41928e-05,-9.36063e-05,2.44305e-05,1.07175e-05,-1.7503e-06,1.2791e-05,-7.02109e-07,0
-2.96046e-05,1.30528e-05,-7.83858e-05,1.66594e-05,1.30065e-05,6.07204e-07,1.28519e-05,1.16727e-06,0
-2.9478e-05,1.22394e-05,-6.1104e-05,9.28392e-06,1.45352e-05,2.38937e-06,1.43264e-05,2.9426e-06,0
-2.97034e-05,1.16032e-05,-4.57879e-05,1.3381e-06,1.26218e-05,3.2473e-06,1.54479e-05,4.11532e-06,0
-2.98007e-05,1.18113e-05,-3.30198e-05,-7.21225e-06,9.19102e-06,2.86856e-06,1.58861e-05,4.11589e-06,0
-2.98217e-05,1.29823e-05,-2.20045e-05,-1.71483e-05,6.86197e-06,2.9804e-06,1.55149e-05,1.34852e-06,0
-2.87246e-05,1.27403e-05,-1.38519e-05,-2.89942e-05,6.11144e-06,4.84649e-06,1.45494e-05,-2.40738e-06,0
-2.64173e-05,1.16089e-05,-9.25622e-06,-4.3506e-05,5.81174e-06,6.05054e-06,1.39846e-05,-4.00785e-06,0
-2.51913e-05,1.07159e-05,-4.74011e-06,-5.97967e-05,4.03289e-06,6.00852e-06,1.38577e-05,-3.22776e-06,0
-2.70626e-05,1.11107e-05,-2.14466e-06,-7.33478e-05,1.51878e-06,4.81008e-06,1.15781e-05,-1.58392e-06,0
-2.95706e-05,1.21742e-05,-4.51523e-06,-7.89306e-05,4.51562e-07,2.95849e-06,7.69017e-06,2.62251e-08,0
-2.96943e-05,1.22222e-05,-7.92199e-06,-7.51875e-05,1.23686e-06,1.08667e-06,5.80301e-06,1.82682e-06,0
-2.77821e-05,1.07829e-05,-7.871e-06,-6.49187e-05,2.16921e-06,-8.43154e-07,6.67318e-06,3.94873e-06,0
-2.66411e-05,8.63502e-06,-4.02267e-06,-4.06808e-05,3.44977e-06,-3.32835e-06,6.63783e-06,5.07821e-06,0
-2.68527e-05,7.92924e-06,-1.80319e-06,-2.97495e-06,5.43138e-06,-5.4305e-06,3.93721e-06,5.39906e-06,0
-2.72368e-05,1.03241e-05,-3.587e-06,2.77713e-05,8.16484e-06,-5.18506e-06,3.03914e-06,4.86965e-06,0
-2.8145e-05,1.03206e-05,-5.43861e-06,3.88263e-05,8.68894e-06,-3.97541e-06,6.49422e-06,2.39721e-06,0
-2.79731e-05,6.02467e-06,-4.80827e-06,2.99869e-05,7.40423e-06,-3.73362e-06,1.14151e-05,6.09305e-08,0
-2.83471e-05,2.63777e-06,-3.53638e-06,1.09043e-05,7.43576e-06,-5.8253e-06,1.50267e-05,-1.4974e-06,0
-2.98179e-05,1.87517e-06,-4.13798e-06,-2.97494e-06,9.20293e-06,-7.86673e-06,1.71298e-05,-1.88852e-06,0
-2.99742e-05,2.3853e-06,-5.7068e-06,-2.49254e-06,1.06003e-05,-8.58434e-06,1.77583e-05,-1.60375e-06,0
-3.0096e-05,2.50293e-06,-7.49957e-06,1.23923e-05,9.74226e-06,-9.93597e-06,1.79654e-05,-1.80946e-07,0
-3.04667e-05,3.25117e-06,-8.36099e-06,3.75945e-05,8.08367e-06,-1.169e-05,1.82531e-05,1.15602e-06,0
-2.99881e-05,4.34379e-06,-7.3279e-06,6.4384e-05,9.54082e-06,-1.25597e-05,1.82731e-05,8.21967e-07,0
-2.81522e-05,4.91724e-06,-5.54593e-06,7.64563e-05,1.30478e-05,-1.18888e-05,1.79903e-05,1.2997e-06,0
-2.74615e-05,4.6264e-06,-3.8572e-06,6.41672e-05,1.50217e-05,-1.15094e-05,1.76008e-05,2.87747e-06,0
-2.80143e-05,2.34601e-06,-2.15307e-06,3.61086e-05,1.72017e-05,-1.16406e-05,1.74996e-05,4.29026e-06,0
-2.92094e-05,1.25537e-06,-1.31603e-06,7.90499e-06,2.10719e-05,-1.18186e-05,1.65571e-05,4.15247e-06,0
-3.06476e-05,6.41769e-06,-2.22575e-06,-1.47948e-05,2.35852e-05,-1.22793e-05,1.53089e-05,3.27038e-06,0
-3.20997e-05,1.63932e-05,-3.84891e-06,-3.36724e-05,2.14069e-05,-1.31074e-05,1.52529e-05,1.84717e-06,0
-3.32696e-05,2.34542e-05,-4.49574e-06,-4.47299e-05,1.72808e-05,-1.36502e-05,1.62131e-05,1.26614e-06,0
-3.36865e-05,2.49779e-05,-4.11512e-06,-4.33513e-05,1.49978e-05,-1.39285e-05,1.73329e-05,2.3424e-06,0
-3.33016e-05,2.36503e-05,-4.23267e-06,-3.46667e-05,1.52637e-05,-1.43217e-05,1.87374e-05,3.70542e-06,0
-3.1355e-05,1.97718e-05,-4.21836e-06,-2.97869e-05,1.76844e-05,-1.40452e-05,2.01672e-05,3.80652e-06,0
-2.94482e-05,1.16617e-05,-2.53091e-06,-3.14259e-05,2.00824e-05,-1.37586e-05,2.12879e-05,3.7478e-06,0
-2.90359e-05,1.98732e-06,5.85504e-07,-3.07814e-05,1.94744e-05,-1.43037e-05,2.24571e-05,4.44343e-06,0
-2.94848e-05,-4.92914e-06,2.8829e-06,-2.31308e-05,1.76915e-05,-1.41335e-05,2.35752e-05,4.11964e-06,0
-2.90405e-05,-1.16081e-05,3.86697e-06,-1.1461e-05,1.83788e-05,-1.23623e-05,2.40705e-05,4.31512e-06,0
-2.83157e-05,-1.98395e-05,6.00869e-06,5.17109e-07,2.13069e-05,-1.14606e-05,2.55028e-05,6.18571e-06,0
-2.69163e-05,-2.78378e-05,8.31063e-06,5.5919e-06,2.16378e-05,-1.24166e-05,2.80568e-05,7.57786e-06,0
-2.54125e-05,-3.3492e-05,5.72695e-06,1.25538e-06,1.65485e-05,-1.32753e-05,2.77711e-05,7.8081e-06,0
-2.66046e-05,-3.25002e-05,-2.5607e-07,-5.52772e-06,1.17375e-05,-1.29851e-05,2.48283e-05,7.95159e-06,0
-2.79315e-05,-2.6021e-05,-4.55947e-06,-4.7633e-06,1.05462e-05,-1.23811e-05,2.0646e-05,6.45016e-06,0
-2.71441e-05,-1.8537e-05,-6.99009e-06,3.13859e-06,1.00103e-05,-1.12281e-05,1.59373e-05,5.23983e-06,0
-2.52661e-05,-1.10466e-05,-6.88602e-06,1.17487e-05,8.93423e-06,-1.05687e-05,1.16442e-05,5.26628e-06,0
-2.41615e-05,-4.51223e-06,-4.61216e-06,1.41676e-05,8.24069e-06,-1.15182e-05,8.45866e-06,5.59895e-06,0
-2.53473e-05,1.49893e-06,-3.85568e-06,5.76037e-06,9.43394e-06,-1.17802e-05,6.9063e-06,5.86493e-06,0
-2.52649e-05,8.15783e-06,-4.83493e-06,-7.42498e-06,1.23105e-05,-1.01813e-05,6.51403e-06,4.4061e-06,0
-2.58271e-05,1.23036e-05,-5.39523e-06,-1.75596e-05,1.67956e-05,-8.55976e-06,7.34104e-06,2.09284e-06,0
-2.80136e-05,1.21413e-05,-6.64538e-06,-2.18855e-05,1.89623e-05,-8.86642e-06,8.8466e-06,-4.41235e-07,0
-2.99668e-05,1.10276e-05,-8.74035e-06,-2.25363e-05,1.53786e-05,-1.08349e-05,1.00242e-05,-1.28692e-06,0
-3.21707e-05,1.1576e-05,-9.00495e-06,-1.87664e-05,9.15882e-06,-1.20915e-05,1.0245e-05,6.55308e-07,0
-3.4127e-05,1.31764e-05,-6.61583e-06,-1.17579e-05,4.40743e-06,-1.27018e-05,1.02186e-05,2.81142e-06,0
-3.5118e-05,1.49584e-05,-4.21027e-06,-5.57553e-06,4.37107e-06,-1.38338e-05,1.07636e-05,3.14544e-06,0
-3.50439e-05,1.5356e-05,-4.19198e-06,-3.49823e-06,7.1234e-06,-1.45809e-05,1.05766e-05,3.11793e-06,0
-3.47506e-05,1.39786e-05,-5.39598e-06,-5.07012e-06,9.50416e-06,-1.48043e-05,9.13222e-06,3.44952e-06,0
-3.31883e-05,1.30662e-05,-5.44765e-06,-9.04068e-06,9.45959e-06,-1.56835e-05,8.56603e-06,2.64903e-06,0
-3.10119e-05,1.2955e-05,-4.48136e-06,-1.84431e-05,7.60075e-06,-1.72959e-05,1.0036e-05,1.32296e-06,0
-2.99328e-05,1.26e-05,-4.26691e-06,-2.93104e-05,5.50094e-06,-1.84452e-05,1.241e-05,1.70583e-06,0
-3.08538e-05,1.09691e-05,-4.48261e-06,-2.72686e-05,4.32916e-06,-1.87417e-05,1.40292e-05,2.77057e-06,0
-3.20478e-05,9.32684e-06,-4.06743e-06,-1.40392e-05,4.89114e-06,-1.77583e-05,1.45685e-05,1.93963e-06,0
-3.22452e-05,8.26024e-06,-2.86348e-06,-8.34754e-06,7.39638e-06,-1.56331e-05,1.30086e-05,3.36827e-07,0
-3.1476e-05,7.92559e-06,-2.45443e-06,-1.19733e-05,1.21278e-05,-1.34402e-05,8.89871e-06,-7.2714e-07,0
-3.12938e-05,8.07643e-06,-4.13251e-06,-1.19583e-05,1.51575e-05,-1.2494e-05,4.73768e-06,-6.19979e-07,0
-3.12281e-05,6.07183e-06,-5.463e-06,2.34995e-06,1.23944e-05,-1.30206e-05,1.59515e-06,3.23577e-07,0
-3.04874e-05,2.60972e-06,-4.81608e-06,2.78302e-05,8.33766e-06,-1.32254e-05,-1.21499e-07,-3.61275e-07,0
-3.10402e-05,2.05728e-07,-4.45603e-06,5.25059e-05,7.09323e-06,-1.20961e-05,-3.53843e-07,-1.80981e-06,0
-3.23191e-05,1.6133e-06,-4.72923e-06,6.5114e-05,9.1976e-06,-9.45043e-06,-5.95337e-07,-2.15143e-06,0
-3.21962e-05,7.10662e-06,-4.67737e-06,5.57142e-05,1.34578e-05,-7.96345e-06,-1.12597e-06,1.64609e-07,0
-3.22122e-05,9.33128e-06,-4.33653e-06,3.1048e-05,1.39095e-05,-9.04975e-06,-1.19781e-06,3.03681e-06,0
-3.28819e-05,7.83504e-06,-2.17891e-06,4.22411e-06,1.0939e-05,-1.09983e-05,5.97132e-08,2.17908e-06,0
-3.2043e-05,7.74584e-06,-6.85304e-07,-1.58023e-05,1.10915e-05,-1.23679e-05,1.139e-06,-9.62011e-07,0
-3.17491e-05,7.72876e-06,-2.33915e-06,-2.40056e-05,1.37227e-05,-1.20162e-05,1.77894e-06,-2.95093e-06,0
-3.21865e-05,6.62793e-06,-4.94912e-06,-2.54266e-05,1.29767e-05,-1.19196e-05,4.1216e-06,-2.16574e-06,0
-3.22894e-05,8.39225e-06,-5.48304e-06,-2.01045e-05,9.88028e-06,-1.2533e-05,6.06129e-06,-1.93218e-06,0
-3.19528e-05,1.25753e-05,-3.45464e-06,-1.04599e-05,8.5486e-06,-1.33548e-05,6.25485e-06,-1.86038e-06,0
-2.93913e-05,1.4371e-05,-3.22421e-06,-4.28906e-06,8.90421e-06,-1.46973e-05,9.03229e-06,-1.16093e-06,0
-2.6741e-05,1.39335e-05,-6.34299e-06,-4.14015e-06,8.67371e-06,-1.56676e-05,2.14316e-05,-1.21457e-06,0
-2.66163e-05,1.36999e-05,-1.02351e-05,-7.63275e-06,8.57994e-06,-1.39577e-05,3.79797e-05,-2.1377e-06,0
-2.7103e-05,1.56782e-05,-1.33666e-05,-1.46018e-05,7.79739e-06,-1.16166e-05,4.51352e-05,-4.11381e-06,0
-2.654e-05,1.82522e-05,-1.74348e-05,-2.48614e-05,6.58957e-06,-1.22171e-05,3.89079e-05,-5.77681e-06,0
-2.65096e-05,2.04181e-05,-2.28307e-05,-3.24907e-05,7.68236e-06,-1.49126e-05,2.2691e-05,-5.4605e-06,0
-2.85159e-05,2.19819e-05,-2.74664e-05,-3.4251e-05,1.0633e-05,-1.66198e-05,2.15846e-06,-2.80855e-06,0
-3.13142e-05,2.28688e-05,-2.96735e-05,-3.07965e-05,1.20523e-05,-1.58288e-05,-1.79831e-05,2.4713e-07,0
-3.38656e-05,2.41243e-05,-2.89762e-05,-2.53086e-05,1.15896e-05,-1.40929e-05,-3.25049e-05,1.35333e-06,0
-3.52567e-05,2.64966e-05,-2.61906e-05,-2.16357e-05,1.19912e-05,-1.31204e-05,-3.81005e-05,-3.34023e-07,0
-3.49479e-05,2.83659e-05,-2.16531e-05,-2.32817e-05,1.31772e-05,-1.30324e-05,-3.40713e-05,-1.64021e-06,0
-3.31733e-05,2.83729e-05,-1.58076e-05,-2.76774e-05,1.41005e-05,-1.31983e-05,-2.24635e-05,-5.91389e-07,0
-3.15773e-05,2.79512e-05,-1.04851e-05,-2.6704e-05,1.44508e-05,-1.38454e-05,-6.5031e-06,1.27071e-06,0
-3.13129e-05,2.87803e-05,-7.35547e-06,-1.6255e-05,1.44813e-05,-1.32751e-05,8.44529e-06,1.89246e-06,0
-3.0992e-05,3.03965e-05,-6.58322e-06,2.92899e-06,1.50481e-05,-1.0835e-05,1.57944e-05,1.54671e-06,0
-3.01027e-05,3.07707e-05,-6.53392e-06,3.07023e-05,1.72121e-05,-6.97005e-06,1.6685e-05,8.34442e-07,0
-2.97383e-05,2.87459e-05,-5.23837e-06,5.77285e-05,1.84098e-05,-4.11583e-06,2.00847e-05,-6.36451e-07,0
-3.04305e-05,2.73188e-05,-3.97803e-06,7.13508e-05,1.80568e-05,-5.14573e-06,3.6406e-05,-2.0385e-06,0
-3.10535e-05,2.93269e-05,-2.40403e-06,6.66377e-05,1.84324e-05,-7.49081e-06,5.74042e-05,-1.32123e-06,0
-3.05257e-05,2.91967e-05,-4.19524e-07,4.83457e-05,2.19436e-05,-7.48015e-06,6.41023e-05,-1.83753e-06,0
-3.00351e-05,2.7741e-05,2.2351e-06,3.47803e-05,2.80283e-05,-7.05486e-06,5.68039e-05,-5.33898e-06,0
-2.95908e-05,2.81107e-05,4.71143e-06,3.14707e-05,3.02766e-05,-7.92687e-06,4.15062e-05,-6.9273e-06,0
-2.88091e-05,2.99588e-05,4.24169e-06,2.56228e-05,2.55876e-05,-1.01905e-05,2.22594e-05,-5.94823e-06,0
-2.9825e-05,3.20697e-05,8.32264e-07,1.17077e-05,1.9816e-05,-1.13246e-05,3.12992e-06,-5.5627e-06,0
-3.15848e-05,3.29906e-05,-3.75453e-06,-2.70238e-06,1.49372e-05,-9.84289e-06,-1.2048e-05,-4.17883e-06,0
-3.2679e-05,3.39111e-05,-5.74221e-06,-1.35011e-05,1.15934e-05,-7.76787e-06,-1.95358e-05,-1.44746e-06,0
-3.35041e-05,3.4808e-05,-6.09905e-06,-2.4584e-05,1.15438e-05,-5.52031e-06,-2.01657e-05,-9.69909e-08,0
-3.35474e-05,3.47742e-05,-7.81922e-06,-3.53377e-05,1.30119e-05,-4.7708e-06,-1.55793e-05,3.72234e-07,0
-3.28791e-05,3.29319e-05,-9.10573e-06,-4.1811e-05,1.43533e-05,-4.54438e-06,-1.05096e-05,1.18175e-06,0
-3.18896e-05,3.18397e-05,-7.67113e-06,-4.23308e-05,1.39095e-05,-3.75973e-06,-5.35726e-06,2.13523e-06,0
-3.09335e-05,3.19221e-05,-4.65417e-06,-3.77543e-05,1.14573e-05,-3.36889e-06,1.21102e-06,2.09001e-06,0
-3.03095e-05,3.26764e-05,-2.67978e-06,-3.10697e-05,7.23158e-06,-3.70364e-06,7.85631e-06,1.73156e-06,0
-3.08053e-05,3.36653e-05,-2.5774e-06,-2.7933e-05,3.80763e-06,-4.78233e-06,1.3253e-05,1.62385e-06,0
-3.17483e-05,3.50687e-05,-4.8021e-06,-3.00913e-05,2.51524e-06,-6.10227e-06,1.68422e-05,1.60941e-06,0
-3.16357e-05,3.58657e-05,-1.00823e-05,-3.17993e-05,2.96158e-06,-6.52731e-06,1.88191e-05,6.39781e-07,0
-3.11773e-05,3.47304e-05,-1.66886e-05,-2.8346e-05,4.25452e-06,-5.84197e-06,1.96005e-05,-6.42746e-07,0
-3.18472e-05,3.25643e-05,-2.08185e-05,-2.16701e-05,5.23327e-06,-5.82126e-06,2.07549e-05,-9.55311e-07,0
-3.31723e-05,2.9922e-05,-2.06986e-05,-1.53051e-05,4.65732e-06,-6.73795e-06,2.20628e-05,-2.32364e-07,0
-3.32927e-05,2.6643e-05,-1.77689e-05,-1.04051e-05,3.53906e-06,-6.96059e-06,2.18794e-05,3.63585e-07,0
-3.24408e-05,2.27334e-05,-1.39805e-05,-7.7206e-06,4.86668e-06,-6.76468e-06,2.03069e-05,6.11888e-07,0
-3.17907e-05,1.87909e-05,-1.13468e-05,-7.46762e-06,8.42888e-06,-7.76562e-06,1.89513e-05,1.21471e-06,0
-3.17523e-05,1.45439e-05,-1.11166e-05,-8.0367e-06,1.11464e-05,-9.96882e-06,1.841e-05,1.80993e-06,0
-3.23427e-05,1.17097e-05,-1.20452e-05,-8.53997e-06,1.07437e-05,-1.16205e-05,1.90554e-05,1.75763e-06,0
-3.23995e-05,9.74376e-06,-1.24384e-05,-9.65083e-06,9.8201e-06,-1.02773e-05,1.97245e-05,6.53596e-07,0
-3.17931e-05,9.12684e-06,-1.25557e-05,-7.72878e-06,1.18932e-05,-7.37587e-06,2.04647e-05,8.80415e-08,0
-3.22161e-05,1.02714e-05,-1.19317e-05,-3.65981e-06,1.47363e-05,-6.53662e-06,2.06513e-05,1.32015e-06,0
-3.2272e-05,1.14378e-05,-1.01566e-05,-2.98159e-06,1.50969e-05,-7.87505e-06,1.99485e-05,2.45834e-06,0
-3.17801e-05,1.19073e-05,-9.51166e-06,-6.26875e-06,1.35529e-05,-1.07154e-05,1.98792e-05,2.0195e-06,0
-3.162e-05,1.04436e-05,-9.75808e-06,-9.70618e-06,1.31404e-05,-1.34025e-05,2.08611e-05,1.51699e-06,0
-3.04522e-05,8.99277e-06,-9.23411e-06,-1.08991e-05,1.51072e-05,-1.33572e-05,2.19731e-05,1.53761e-06,0
-3.09605e-05,9.29491e-06,-9.35807e-06,-1.14338e-05,1.60546e-05,-1.08403e-05,2.0133e-05,1.71675e-06,0
-3.19507e-05,9.07821e-06,-9.32463e-06,-1.11825e-05,1.37093e-05,-9.00805e-06,1.70961e-05,1.88357e-06,0
-3.21946e-05,8.7537e-06,-8.25815e-06,-5.98119e-06,1.12044e-05,-8.33854e-06,1.58315e-05,2.22739e-06,0
-3.31482e-05,8.5629e-06,-6.9288e-06,8.3628e-06,1.04919e-05,-8.21014e-06,1.55208e-05,3.63013e-06,0
-3.30137e-05,7.98544e-06,-6.03744e-06,2.70099e-05,1.03838e-05,-8.06221e-06,1.43244e-05,5.23925e-06,0
-3.16768e-05,7.81949e-06,-5.40769e-06,3.86098e-05,1.01695e-05,-7.50894e-06,1.22618e-05,5.7963e-06,0
-3.11008e-05,7.87942e-06,-4.06353e-06,3.78378e-05,9.22406e-06,-7.39758e-06,8.62971e-06,5.78349e-06,0
-3.16452e-05,6.68537e-06,-3.63218e-06,2.83462e-05,8.64495e-06,-6.92929e-06,1.95971e-06,6.48186e-06,0
-3.15127e-05,4.62435e-06,-4.45547e-06,1.53969e-05,8.8612e-06,-5.73362e-06,-5.77882e-06,6.65635e-06,0
-3.10826e-05,3.29344e-06,-6.17904e-06,4.19696e-06,8.54163e-06,-4.76436e-06,-1.06608e-05,4.76515e-06,0
-3.09053e-05,1.45588e-06,-7.68703e-06,-1.06212e-06,6.71802e-06,-4.8776e-06,-1.03708e-05,2.84263e-06,0
-3.05823e-05,-6.46771e-07,-8.90525e-06,-2.10556e-06,4.16904e-06,-6.52091e-06,-6.06814e-06,2.542e-06,0
-3.02117e-05,-1.67447e-06,-9.67153e-06,-4.38346e-06,2.6689e-06,-8.32603e-06,-7.23104e-08,2.60942e-06,0
-3.03489e-05,-7.99991e-07,-9.12588e-06,-1.0608e-05,3.42834e-06,-7.89827e-06,7.75494e-06,1.31141e-06,0
-3.10863e-05,1.40739e-06,-7.64444e-06,-2.13752e-05,5.48569e-06,-6.52777e-06,1.77139e-05,4.17276e-07,0
-3.27364e-05,3.86029e-06,-6.44132e-06,-3.66484e-05,6.83518e-06,-6.37028e-06,2.59994e-05,1.69041e-06,0
-3.45506e-05,5.02671e-06,-7.02764e-06,-5.07796e-05,6.86075e-06,-6.11625e-06,3.05192e-05,3.10287e-06,0
-3.50419e-05,3.99584e-06,-9.33328e-06,-5.68135e-05,6.34759e-06,-5.2496e-06,3.21338e-05,2.71157e-06,0
-3.44096e-05,1.48068e-06,-1.07609e-05,-5.65953e-05,5.02336e-06,-6.19384e-06,3.28156e-05,1.70676e-06,0
-3.30045e-05,1.09376e-06,-9.20579e-06,-5.90934e-05,2.30193e-06,-7.45595e-06,3.28205e-05,2.24292e-06,0
-3.18554e-05,3.09623e-06,-7.16054e-06,-6.76135e-05,-6.53512e-07,-6.96956e-06,3.27619e-05,4.76277e-06,0
-3.14677e-05,5.20027e-06,-7.84972e-06,-7.14222e-05,-3.99228e-07,-6.21741e-06,3.22634e-05,7.19177e-06,0
-3.10562e-05,8.40292e-06,-1.07083e-05,-6.02807e-05,3.05109e-06,-5.79121e-06,2.99831e-05,7.94776e-06,0
-2.97262e-05,1.1497e-05,-1.16064e-05,-3.80491e-05,4.52988e-06,-6.03798e-06,2.71184e-05,6.53106e-06,0
-2.97924e-05,1.40315e-05,-1.21645e-05,-1.65748e-05,4.74136e-06,-7.59025e-06,2.46816e-05,4.23784e-06,0
-3.05983e-05,1.5432e-05,-1.35412e-05,5.95404e-06,5.67465e-06,-8.37687e-06,2.30168e-05,3.00355e-06,0
-2.91567e-05,1.53865e-05,-1.36761e-05,3.61191e-05,8.48559e-06,-7.99601e-06,2.10451e-05,2.83876e-06,0
-2.77287e-05,1.42362e-05,-1.20003e-05,5.96779e-05,1.25669e-05,-6.32156e-06,1.92258e-05,3.2034e-06,0
-2.61294e-05,1.37625e-05,-8.30402e-06,6.45405e-05,1.5391e-05,-4.06271e-06,1.86571e-05,2.42742e-06,0
-2.40131e-05,1.3222e-05,-5.07988e-06,5.45754e-05,1.90346e-05,-2.82575e-06,1.8444e-05,-5.10061e-07,0
-2.27894e-05,9.5405e-06,-3.40048e-06,4.08105e-05,2.45761e-05,-1.88522e-06,1.72056e-05,-2.94084e-06,0
-2.37052e-05,3.14762e-06,-2.90232e-06,3.13412e-05,2.97405e-05,-2.52623e-06,1.50153e-05,-2.77101e-06,0
-2.45421e-05,-2.68297e-06,-3.74445e-06,2.44159e-05,3.14973e-05,-4.43059e-06,1.12228e-05,-1.89693e-06,0
-2.47189e-05,-5.13741e-06,-4.45633e-06,1.72129e-05,2.84418e-05,-5.97185e-06,6.60621e-06,-3.05978e-06,0
-2.51178e-05,-6.82992e-06,-4.14151e-06,1.22173e-05,2.29451e-05,-5.99104e-06,4.85505e-06,-5.93381e-06,0
-2.52911e-05,-8.00438e-06,-3.98859e-06,9.59853e-06,1.9529e-05,-5.75439e-06,6.18105e-06,-7.88035e-06,0
-2.58632e-05,-6.78711e-06,-5.394e-06,5.20372e-06,1.84378e-05,-7.15493e-06,8.06132e-06,-7.87993e-06,0
-2.69191e-05,-3.95489e-06,-7.91741e-06,-2.88703e-06,1.70972e-05,-1.04079e-05,8.69914e-06,-6.70684e-06,0
-2.80051e-05,-3.28166e-06,-9.95298e-06,-1.10384e-05,1.47168e-05,-1.32682e-05,8.19829e-06,-6.28389e-06,0
-2.86062e-05,-5.01852e-06,-1.0592e-05,-1.35066e-05,1.3971e-05,-1.30554e-05,7.4293e-06,-6.71668e-06,0
-3.00696e-05,-5.72205e-06,-8.88231e-06,-9.26055e-06,1.72896e-05,-1.13804e-05,6.99211e-06,-6.63634e-06,0
-3.09429e-05,-3.68897e-06,-5.22586e-06,-5.45005e-06,2.29085e-05,-1.03449e-05,7.85671e-06,-5.64503e-06,0
-2.97366e-05,-5.42494e-07,-2.19779e-06,-9.89027e-06,2.58971e-05,-9.53949e-06,9.62668e-06,-4.79153e-06,0
-2.65496e-05,3.66928e-06,-1.78058e-06,-1.75468e-05,2.38025e-05,-9.16999e-06,1.1436e-05,-4.95883e-06,0
-2.4515e-05,1.30812e-05,-2.71717e-06,-1.62366e-05,2.03793e-05,-9.80015e-06,1.23845e-05,-5.73584e-06,0
-2.44932e-05,2.55085e-05,-4.35602e-06,-4.42943e-06,1.96337e-05,-1.05601e-05,1.1917e-05,-6.18891e-06,0
-2.57151e-05,3.41629e-05,-6.73917e-06,5.37822e-06,2.01804e-05,-1.0925e-05,1.03607e-05,-6.07335e-06,0
-2.79884e-05,3.34134e-05,-7.94861e-06,5.75785e-06,2.04772e-05,-1.1296e-05,7.85444e-06,-4.6407e-06,0
-3.04478e-05,2.11925e-05,-8.1408e-06,3.07186e-07,1.94375e-05,-1.44781e-05,5.96997e-06,-2.50579e-06,0
-3.10712e-05,-2.60482e-07,-8.8358e-06,-5.36909e-06,1.54573e-05,-1.76592e-05,4.43403e-06,-3.1116e-07,0
-2.95507e-05,-1.54694e-05,-1.00008e-05,-8.12104e-06,1.46778e-05,-1.62888e-05,3.21336e-06,1.69773e-06,0
-2.85253e-05,-1.97541e-05,-9.23798e-06,-8.86246e-06,1.89607e-05,-1.52176e-05,2.95274e-06,2.02762e-06,0
-2.87996e-05,-2.39365e-05,-7.1008e-06,-8.54821e-06,2.44182e-05,-1.63447e-05,2.55674e-06,2.35355e-06,0
-2.93861e-05,-2.60126e-05,-7.36245e-06,-2.71248e-06,2.75446e-05,-1.70345e-05,3.45225e-06,3.64333e-06,0
-2.9764e-05,-2.68034e-05,-9.40116e-06,7.94325e-06,2.96022e-05,-1.62293e-05,5.32968e-06,4.44961e-06,0
-3.02488e-05,-2.66735e-05,-1.16837e-05,1.40836e-05,3.14346e-05,-1.42765e-05,7.219e-06,4.40217e-06,0
-2.97493e-05,-2.17694e-05,-1.30919e-05,7.13344e-06,3.01377e-05,-1.27199e-05,9.50411e-06,5.07632e-06,0
-2.9924e-05,-1.27621e-05,-1.45084e-05,-1.10325e-05,2.76651e-05,-1.22197e-05,1.01975e-05,5.03429e-06,0
-3.12568e-05,-4.91178e-06,-1.61602e-05,-2.508e-05,2.66346e-05,-1.3465e-05,9.17995e-06,3.69543e-06,0
-3.22613e-05,-1.04207e-06,-1.74847e-05,-2.38221e-05,2.70783e-05,-1.50959e-05,8.66167e-06,3.39442e-06,0
-3.22249e-05,-3.50247e-07,-1.76618e-05,-1.1254e-05,2.72562e-05,-1.42191e-05,9.03072e-06,3.83273e-06,0
-3.17507e-05,-1.66549e-06,-1.59575e-05,1.96585e-06,2.71334e-05,-1.07565e-05,9.89107e-06,3.75963e-06,0
-3.06893e-05,-2.38377e-06,-1.34134e-05,1.06987e-05,2.71499e-05,-7.56078e-06,9.94595e-06,3.60279e-06,0
-2.95837e-05,-7.01186e-07,-1.12457e-05,1.54593e-05,2.69733e-05,-7.37182e-06,8.78795e-06,5.24042e-06,0
-2.95024e-05,3.60299e-06,-9.44778e-06,1.64708e-05,2.62497e-05,-1.04077e-05,7.47838e-06,7.19322e-06,0
-2.98541e-05,7.0869e-06,-7.25288e-06,1.39807e-05,2.64569e-05,-1.39343e-05,7.74219e-06,7.22275e-06,0
-3.05638e-05,8.56701e-06,-5.74979e-06,8.97271e-06,2.67423e-05,-1.50744e-05,9.60357e-06,5.37046e-06,0
-3.15885e-05,8.50987e-06,-5.13219e-06,4.49343e-06,2.38071e-05,-1.35137e-05,1.20247e-05,3.57718e-06,0
-3.19765e-05,8.12388e-06,-5.11146e-06,2.99535e-06,1.70702e-05,-1.24473e-05,1.45265e-05,2.62607e-06,0
-3.07656e-05,7.62872e-06,-5.58403e-06,7.54445e-07,1.02144e-05,-1.37914e-05,1.64532e-05,2.34903e-06,0
-3.05329e-05,9.44201e-06,-7.78278e-06,-2.26078e-06,6.96761e-06,-1.41614e-05,1.76456e-05,2.9793e-06,0
-3.24372e-05,1.40438e-05,-1.14865e-05,-3.36931e-06,6.39094e-06,-1.29662e-05,1.77752e-05,2.97346e-06,0
-3.3729e-05,1.71688e-05,-1.46144e-05,-4.48008e-06,6.44824e-06,-1.29672e-05,1.65943e-05,1.36736e-06,0
-3.27665e-05,1.72901e-05,-1.39168e-05,-5.1564e-06,8.04034e-06,-1.34173e-05,1.38765e-05,-1.10899e-06,0
-3.10503e-05,1.77114e-05,-1.05431e-05,-3.23565e-06,9.26736e-06,-1.23127e-05,1.0637e-05,-2.56573e-06,0
-2.95612e-05,1.94985e-05,-8.21025e-06,-2.84645e-06,8.60642e-06,-9.52847e-06,9.02818e-06,4.06508e-08,0
-2.92248e-05,2.11159e-05,-7.93175e-06,-1.12475e-05,7.42985e-06,-8.44021e-06,1.03202e-05,4.04773e-06,0
-2.94887e-05,2.38494e-05,-8.55173e-06,-2.31847e-05,5.99473e-06,-1.0765e-05,1.23599e-05,3.13787e-06,0
-2.87813e-05,2.74022e-05,-8.29713e-06,-3.13473e-05,4.93893e-06,-1.34293e-05,1.33315e-05,7.29025e-07,0
-2.86806e-05,2.912e-05,-8.31132e-06,-3.8095e-05,2.77423e-06,-1.51902e-05,1.42959e-05,8.46288e-07,0
-2.91917e-05,2.8214e-05,-9.71998e-06,-4.35259e-05,6.99379e-07,-1.5739e-05,1.56495e-05,2.01147e-06,0
-3.05287e-05,2.72213e-05,-1.083e-05,-4.24981e-05,5.36841e-07,-1.40665e-05,1.55452e-05,1.64687e-06,0
-3.20213e-05,2.82926e-05,-1.0217e-05,-3.00203e-05,6.10305e-07,-1.235e-05,1.29452e-05,-1.53889e-06,0
-3.1384e-05,3.03073e-05,-8.75556e-06,-8.18741e-06,3.55978e-07,-1.21096e-05,1.07562e-05,-4.64579e-06,0
-3.02309e-05,3.03003e-05,-6.52923e-06,1.54719e-05,4.55227e-07,-1.28528e-05,1.01747e-05,-4.80025e-06,0
-3.06319e-05,2.86464e-05,-4.56618e-06,3.12391e-05,4.12217e-08,-1.32071e-05,1.02044e-05,-2.55694e-06,0
-3.13224e-05,2.64469e-05,-3.3327e-06,3.50381e-05,-1.9279e-07,-1.26209e-05,1.12435e-05,-5.31426e-07,0
-3.13102e-05,2.48324e-05,-2.99645e-06,2.85499e-05,6.00461e-07,-1.14583e-05,1.11689e-05,2.57163e-07,0
-3.0522e-05,2.44994e-05,-3.58959e-06,1.56238e-05,1.61731e-06,-1.02346e-05,9.8024e-06,-3.50743e-07,0
-3.00829e-05,2.42395e-05,-4.36544e-06,-1.32789e-07,2.54897e-06,-1.06407e-05,9.05535e-06,-1.59875e-06,0
-3.15679e-05,2.22409e-05,-4.74073e-06,-1.0502e-05,3.19787e-06,-1.25244e-05,1.05861e-05,-1.77686e-06,0
-3.38084e-05,1.94377e-05,-4.23306e-06,-3.90636e-06,3.59091e-06,-1.51065e-05,1.36109e-05,-1.08716e-06,0
-3.46529e-05,1.90787e-05,-4.22032e-06,1.65349e-05,4.51729e-06,-1.71479e-05,1.5e-05,-9.3464e-07,0
-3.40533e-05,2.11322e-05,-6.16999e-06,3.15093e-05,6.70147e-06,-1.77674e-05,1.39755e-05,-1.67778e-06,0
-3.30818e-05,2.29083e-05,-8.99795e-06,2.87567e-05,8.05905e-06,-1.76609e-05,1.20086e-05,-2.66103e-06,0
-3.20708e-05,2.44622e-05,-1.03233e-05,1.61165e-05,7.337e-06,-1.74199e-05,1.15128e-05,-2.22033e-06,0
-3.07435e-05,2.87024e-05,-1.05423e-05,3.11552e-06,5.77248e-06,-1.59607e-05,1.30795e-05,-4.02551e-07,0
-2.88704e-05,3.60262e-05,-1.05401e-05,-8.48262e-06,5.30275e-06,-1.4048e-05,1.54715e-05,1.57085e-06,0
-2.7583e-05,4.13576e-05,-9.87551e-06,-1.77503e-05,8.08583e-06,-1.31471e-05,1.75177e-05,2.77362e-06,0
-2.73767e-05,4.16776e-05,-7.49293e-06,-2.01423e-05,1.50655e-05,-1.23293e-05,1.83193e-05,2.31796e-06,0
-2.78725e-05,4.00906e-05,-3.49973e-06,-1.42507e-05,2.2918e-05,-1.09696e-05,1.77498e-05,1.5201e-06,0
-2.82425e-05,3.80343e-05,-9.96283e-07,-9.01151e-06,2.64813e-05,-1.01344e-05,1.73363e-05,9.49361e-07,0
-2.72717e-05,3.45774e-05,2.75665e-08,-1.47376e-05,2.47699e-05,-1.07663e-05,1.69566e-05,-2.90397e-07,0
-2.60086e-05,3.03916e-05,5.53451e-07,-2.82703e-05,2.11221e-05,-1.15703e-05,1.68075e-05,-1.76467e-06,0
-2.73323e-05,2.76539e-05,-9.82034e-07,-4.15599e-05,1.62179e-05,-1.15942e-05,1.71673e-05,-7.32722e-07,0
-2.97023e-05,2.57066e-05,-5.10965e-06,-5.05167e-05,1.15597e-05,-1.05558e-05,1.78671e-05,1.82867e-06,0
-3.09956e-05,2.26464e-05,-9.48388e-06,-5.30293e-05,1.24451e-05,-9.11467e-06,1.87215e-05,4.34724e-06,0
-3.11588e-05,1.68917e-05,-1.16707e-05,-4.33398e-05,1.39801e-05,-7.93063e-06,2.00938e-05,4.69199e-06,0
-3.09884e-05,1.11987e-05,-1.25897e-05,-1.94516e-05,1.42134e-05,-7.11849e-06,2.07953e-05,1.47761e-06,0
-3.14234e-05,9.91954e-06,-1.22407e-05,9.263e-06,1.37279e-05,-6.97272e-06,1.98037e-05,-1.43411e-07,0
-3.17532e-05,1.12675e-05,-1.12312e-05,3.29146e-05,1.24523e-05,-7.05597e-06,1.7517e-05,8.14075e-07,0
-3.17241e-05,1.1487e-05,-1.07202e-05,4.66486e-05,1.45026e-05,-7.44517e-06,1.6125e-05,1.97427e-06,0
-3.08817e-05,1.01762e-05,-9.27804e-06,4.73319e-05,1.7724e-05,-6.82148e-06,1.75709e-05,1.97936e-06,0
-3.00202e-05,8.02523e-06,-6.52095e-06,3.55198e-05,2.05333e-05,-5.63852e-06,1.88238e-05,2.18538e-06,0
-2.97059e-05,3.06602e-06,-4.68231e-06,1.61956e-05,2.05593e-05,-5.3901e-06,1.73424e-05,3.19479e-06,0
-2.92552e-05,-2.12849e-06,-4.75945e-06,-3.37911e-06,1.72123e-05,-6.20104e-06,1.43551e-05,3.2394e-06,0
-2.86317e-05,-2.02316e-06,-4.97691e-06,-1.59756e-05,1.27777e-05,-7.28442e-06,1.28117e-05,1.54511e-06,0
-2.91253e-05,2.89754e-06,-3.9953e-06,-1.95545e-05,1.07762e-05,-6.73749e-06,1.23064e-05,5.66655e-07,0
-3.0558e-05,7.1985e-06,-2.45635e-06,-1.88415e-05,9.62941e-06,-5.61199e-06,1.20089e-05,1.94191e-06,0
-3.18039e-05,1.09976e-05,-2.6457e-06,-2.00986e-05,6.16971e-06,-5.92225e-06,1.19435e-05,3.51276e-06,0
-3.20263e-05,1.99956e-05,-5.18262e-06,-2.24403e-05,1.02465e-06,-6.76596e-06,1.13842e-05,3.39691e-06,0
-3.07557e-05,3.23465e-05,-7.09094e-06,-2.48381e-05,-3.67272e-06,-6.26036e-06,1.02318e-05,1.0452e-06,0
-2.89665e-05,3.9452e-05,-6.81526e-06,-3.10264e-05,-5.35897e-06,-5.30948e-06,9.30049e-06,-1.18593e-06,0
-2.78371e-05,3.9724e-05,-6.66002e-06,-4.19049e-05,-4.95937e-06,-4.75711e-06,8.58954e-06,-3.24138e-07,0
-2.74349e-05,3.72748e-05,-7.6808e-06,-4.83982e-05,-4.0378e-06,-4.02102e-06,9.19543e-06,2.76761e-06,0
-2.71546e-05,3.27645e-05,-8.37515e-06,-4.52783e-05,-3.00608e-06,-2.10707e-06,1.11626e-05,4.82463e-06,0
-2.75646e-05,2.64678e-05,-9.07913e-06,-3.84997e-05,8.75464e-08,-3.17097e-07,1.17141e-05,5.4653e-06,0
-2.8684e-05,2.03792e-05,-1.13316e-05,-3.2225e-05,5.84619e-06,2.18238e-07,1.09736e-05,5.99376e-06,0
-2.93007e-05,1.47031e-05,-1.32103e-05,-2.25669e-05,1.50417e-05,-4.6585e-07,1.0897e-05,8.07937e-06,0
-2.88335e-05,6.33367e-06,-1.35967e-05,-1.00543e-05,2.64851e-05,-2.32158e-06,1.15183e-05,1.02812e-05,0
-2.80536e-05,-4.45314e-06,-1.38704e-05,-1.80923e-06,3.44131e-05,-2.94954e-06,1.20412e-05,9.41332e-06,0
-2.94556e-05,-1.51032e-05,-1.62156e-05,4.84158e-07,3.43598e-05,-1.33034e-06,1.30434e-05,8.12906e-06,0
-3.20488e-05,-2.86912e-05,-1.92898e-05,1.97067e-06,2.86344e-05,-5.40943e-08,1.59202e-05,1.00953e-05,0
-3.27323e-05,-3.99324e-05,-2.0928e-05,9.00255e-06,2.29286e-05,-3.93614e-07,1.88763e-05,1.11601e-05,0
-3.08305e-05,-3.87007e-05,-2.0743e-05,2.22844e-05,2.15816e-05,-1.11975e-06,1.95857e-05,8.97325e-06,0
-2.81378e-05,-2.81412e-05,-1.80002e-05,3.8577e-05,2.27657e-05,-2.4003e-06,1.85163e-05,6.26381e-06,0
-2.6962e-05,-1.47249e-05,-1.56078e-05,4.93489e-05,2.09693e-05,-3.79234e-06,1.67601e-05,5.761e-06,0
-2.80731e-05,-1.01488e-06,-1.53929e-05,5.0508e-05,1.57076e-05,-4.32703e-06,1.56533e-05,7.27478e-06,0
-3.0647e-05,1.06392e-05,-1.7402e-05,4.5518e-05,1.17059e-05,-3.48615e-06,1.39821e-05,8.19568e-06,0
-3.10103e-05,1.72135e-05,-1.86292e-05,3.61708e-05,1.10134e-05,-2.42333e-06,1.16457e-05,7.95009e-06,0
-2.87819e-05,1.78852e-05,-1.77115e-05,2.53362e-05,1.22234e-05,-2.55191e-06,1.0805e-05,6.4771e-06,0
-2.70697e-05,1.36188e-05,-1.53437e-05,1.64494e-05,1.31064e-05,-2.85111e-06,1.14312e-05,4.39019e-06,0
-2.74994e-05,8.12001e-06,-1.18693e-05,1.23894e-05,1.27843e-05,-2.39892e-06,1.09056e-05,2.10674e-06,0
-2.78125e-05,4.3807e-06,-8.31866e-06,1.32457e-05,1.21357e-05,-1.77559e-06,9.05436e-06,2.86729e-07,0
-2.73318e-05,3.17735e-06,-3.8781e-06,1.58752e-05,1.19587e-05,-2.00712e-06,8.24433e-06,-1.42137e-06,0
-2.75285e-05,2.23729e-06,1.4314e-06,1.45382e-05,1.17437e-05,-3.10668e-06,9.10608e-06,-2.91977e-06,0
-2.84047e-05,-7.58394e-07,6.43665e-06,5.68076e-06,1.15362e-05,-4.25896e-06,9.68016e-06,-2.16527e-06,0
-2.93605e-05,-4.59398e-06,1.02824e-05,-8.11995e-06,1.31076e-05,-4.86102e-06,8.35082e-06,5.27967e-07,0
-3.12728e-05,-7.61228e-06,1.59068e-05,-2.09533e-05,1.57491e-05,-5.45436e-06,5.60133e-06,1.69848e-06,0
-3.35908e-05,-7.46021e-06,2.74022e-05,-2.92395e-05,1.84963e-05,-5.36617e-06,3.63407e-06,-1.58349e-07,0
-3.40796e-05,-4.09974e-06,4.38e-05,-3.45455e-05,1.92387e-05,-3.81817e-06,4.45353e-06,-2.64676e-06,0
-3.28748e-05,2.48731e-07,5.9186e-05,-3.69293e-05,1.66924e-05,-1.05793e-06,5.93485e-06,-2.05283e-06,0
-3.09585e-05,2.97756e-06,6.48062e-05,-3.61083e-05,1.32672e-05,3.93474e-07,5.95849e-06,1.54597e-06,0
-3.01366e-05,4.46673e-06,5.18104e-05,-3.32394e-05,1.18129e-05,-7.62753e-07,5.82618e-06,3.09138e-06,0
-3.12723e-05,6.05918e-06,2.10654e-05,-2.88271e-05,1.12087e-05,-1.14379e-06,6.05976e-06,1.44556e-06,0
-3.30697e-05,7.75802e-06,-1.89013e-05,-2.53473e-05,1.12509e-05,-1.77967e-06,5.85465e-06,-6.53116e-07,0
-3.36654e-05,8.29162e-06,-5.66154e-05,-2.712e-05,1.30268e-05,-3.54163e-06,5.5911e-06,-1.58174e-06,0
-3.2423e-05,7.89933e-06,-8.55535e-05,-3.14351e-05,1.45437e-05,-6.68262e-06,7.13944e-06,-1.596e-06,0
-3.04596e-05,8.66811e-06,-9.86158e-05,-3.11722e-05,1.41239e-05,-8.96382e-06,1.16974e-05,-1.60626e-06,0
-3.07458e-05,9.80211e-06,-9.40054e-05,-2.78551e-05,1.38028e-05,-9.29226e-06,1.63738e-05,-4.35674e-07,0
-3.1578e-05,9.91217e-06,-8.00991e-05,-2.65972e-05,1.33025e-05,-1.02167e-05,1.95601e-05,6.85869e-07,0
-3.19701e-05,9.54483e-06,-6.33724e-05,-2.49208e-05,1.27371e-05,-1.01939e-05,2.15639e-05,-3.18598e-07,0
-3.187e-05,8.57934e-06,-4.95933e-05,-1.94589e-05,1.40679e-05,-9.929e-06,1.96047e-05,-1.00394e-06,0
-3.0063e-05,7.51449e-06,-3.73545e-05,-1.22917e-05,1.62709e-05,-1.01095e-05,1.34641e-05,9.82841e-07,0
-2.77644e-05,7.80932e-06,-2.81152e-05,-5.99693e-06,2.0505e-05,-1.20024e-05,7.15445e-06,2.36578e-06,0
-2.6784e-05,9.06613e-06,-2.03559e-05,-2.05694e-06,2.34678e-05,-1.43797e-05,1.11518e-06,2.2677e-06,0
-2.6901e-05,9.30774e-06,-1.26821e-05,-9.05277e-07,2.15649e-05,-1.58396e-05,-4.15081e-06,1.30723e-06,0
-2.7347e-05,8.42856e-06,-5.09694e-06,-2.40678e-07,1.69563e-05,-1.63166e-05,-6.94245e-06,-5.40168e-07,0
-2.78986e-05,7.07858e-06,5.12037e-07,2.15114e-06,1.51944e-05,-1.64046e-05,-6.58997e-06,-2.3618e-06,0
-2.80717e-05,6.11057e-06,2.08468e-06,5.56564e-06,1.81377e-05,-1.68133e-05,-3.82893e-06,-5.17612e-06,0
