ch1,ch2,ch3,ch4,ch5,ch6,ch7,ch8,class
-1.81271e-05,0.00012019,-2.49688e-05,-0.000133997,-0.000120121,-6.23251e-07,-2.01103e-05,9.42437e-06,0
-2.29963e-05,9.37441e-05,-2.7351e-05,-7.78832e-05,-8.29824e-05,2.64139e-05,-9.7732e-06,9.68533e-06,0
-2.4172e-05,5.26395e-05,-1.93953e-05,-2.67732e-05,-2.33963e-05,4.11065e-05,4.17181e-06,8.55033e-06,0
-2.16546e-05,1.81305e-05,-5.02847e-06,7.37715e-05,3.06205e-05,3.35586e-05,1.97178e-05,5.90478e-06,0
-2.1225e-05,-8.00208e-06,7.43651e-06,0.00016161,6.3089e-05,1.99036e-05,3.79151e-05,3.17305e-06,0
-2.54687e-05,-2.84044e-05,1.07251e-05,0.000104545,6.17727e-05,6.63044e-06,5.49065e-05,2.84989e-06,0
-3.40558e-05,-4.30643e-05,2.82073e-06,5.68149e-05,4.04844e-05,-8.04267e-06,6.34183e-05,4.86504e-06,0
-3.92094e-05,-4.34733e-05,-1.39324e-06,9.31399e-05,2.20978e-05,-2.13152e-05,6.29802e-05,7.29553e-06,0
-3.62956e-05,-3.16271e-05,6.1464e-06,0.000152832,9.8233e-06,-3.07975e-05,5.90949e-05,6.55432e-06,0
-2.99529e-05,-1.67868e-05,1.26815e-05,0.000152641,-1.16721e-06,-3.79994e-05,5.5444e-05,4.63867e-06,0
-2.70513e-05,-6.70854e-06,1.02478e-05,0.000104391,-1.99305e-05,-4.29607e-05,5.20469e-05,4.10687e-06,0
-3.10736e-05,-1.73926e-06,-5.16939e-07,6.62947e-05,-4.44397e-05,-4.69874e-05,4.77029e-05,4.82508e-06,0
-3.90713e-05,-5.29935e-07,-1.29602e-05,5.11707e-05,-6.29767e-05,-5.36659e-05,4.13462e-05,4.72392e-06,0
-4.46412e-05,-7.55967e-07,-2.17178e-05,1.40967e-05,-6.58961e-05,-6.12967e-05,3.37468e-05,4.62536e-06,0
-4.42652e-05,-2.86687e-07,-2.50128e-05,-6.08586e-05,-5.30723e-05,-6.28359e-05,2.68507e-05,5.01829e-06,0
-3.99309e-05,7.96958e-08,-2.2564e-05,-0.000103935,-2.10812e-05,-5.49743e-05,2.18625e-05,4.21938e-06,0
-3.51373e-05,1.88475e-06,-1.59934e-05,-9.46646e-05,2.04233e-05,-4.32472e-05,1.89824e-05,2.96484e-06,0
-3.2166e-05,4.46283e-06,-1.23996e-05,-8.15392e-05,5.04628e-05,-3.40562e-05,1.68516e-05,1.64503e-06,0
-3.15496e-05,6.65299e-06,-1.91863e-05,-0.000110857,7.75555e-05,-2.93625e-05,1.38552e-05,1.44419e-06,0
-3.14156e-05,8.61871e-06,-2.94198e-05,-0.000174876,0.000116972,-2.55614e-05,1.17702e-05,2.2675e-06,0
-2.96441e-05,1.23407e-05,-3.33636e-05,-0.000249177,0.000137641,-2.09612e-05,1.21266e-05,3.35751e-06,0
-2.932e-05,1.4516e-05,-3.30291e-05,-0.000240329,0.000118913,-1.55975e-05,1.19367e-05,4.58675e-06,0
-3.17689e-05,1.45862e-05,-3.10205e-05,-9.51676e-05,8.2915e-05,-9.12341e-06,8.75772e-06,7.14976e-06,0
-3.21274e-05,1.51629e-05,-2.47665e-05,5.18939e-05,3.9528e-05,-2.57775e-06,4.28101e-06,9.59381e-06,0
-2.76123e-05,1.70341e-05,-1.88887e-05,5.09003e-05,-1.28444e-05,2.43608e-06,2.65316e-06,9.6625e-06,0
-2.17466e-05,1.83951e-05,-1.893e-05,2.10699e-05,-6.41034e-05,4.56612e-06,4.11128e-06,9.33045e-06,0
-1.79963e-05,2.22888e-05,-2.06796e-05,6.19537e-05,-0.000101401,2.09164e-06,5.27778e-06,9.36145e-06,0
-1.74769e-05,3.18858e-05,-1.64637e-05,4.07369e-05,-0.000126437,-1.78181e-06,6.33581e-06,8.09318e-06,0
-1.91084e-05,4.27647e-05,-8.49604e-06,-8.38089e-05,-0.000129494,-5.20737e-06,8.62709e-06,7.72121e-06,0
-2.03813e-05,4.6495e-05,-7.80403e-07,-0.000115498,-9.14016e-05,-9.1357e-06,1.0299e-05,7.76102e-06,0
-2.22844e-05,4.17604e-05,5.11709e-06,-2.71322e-05,-3.14311e-05,-1.23072e-05,1.22097e-05,6.89453e-06,0
-2.57621e-05,3.2372e-05,6.56674e-06,-2.80013e-05,5.76818e-06,-1.46302e-05,1.36297e-05,7.40232e-06,0
-2.85908e-05,1.99489e-05,7.97042e-06,-9.27381e-05,1.29349e-05,-1.33405e-05,1.08046e-05,8.18716e-06,0
-3.00839e-05,1.26097e-05,1.369e-05,-5.14872e-05,1.88811e-05,-9.20847e-06,9.10297e-06,7.87373e-06,0
-3.21088e-05,1.1735e-05,1.69133e-05,0.00013503,2.05483e-05,-6.62682e-06,1.49532e-05,5.43519e-06,0
-3.44552e-05,2.03708e-05,1.33897e-05,0.00035485,1.04318e-06,-5.43022e-06,2.56438e-05,2.37695e-06,0
-3.39204e-05,3.76209e-05,1.09542e-05,0.00044332,-3.08724e-05,-1.11046e-06,3.3499e-05,8.08331e-07,0
-3.20536e-05,4.70513e-05,1.06556e-05,0.000304055,-5.66634e-05,4.30205e-06,3.47703e-05,4.43411e-08,0
-3.30446e-05,3.88059e-05,4.10611e-06,-2.4758e-05,-7.64385e-05,3.09874e-06,3.05709e-05,-1.13436e-06,0
-3.73064e-05,1.93763e-05,-9.33215e-06,-0.000330504,-9.25632e-05,-4.50425e-06,2.35946e-05,-1.5455e-06,0
-4.18182e-05,2.49019e-06,-2.25674e-05,-0.000369318,-8.78666e-05,-1.2666e-05,1.62332e-05,-2.34472e-07,0
-4.36404e-05,-6.18651e-06,-3.11857e-05,-0.000129243,-5.48107e-05,-1.76937e-05,7.95037e-06,1.38155e-06,0
-4.32408e-05,-9.55159e-06,-3.48921e-05,0.000187117,-1.39582e-07,-1.69189e-05,1.89742e-07,2.45159e-06,0
-4.46102e-05,-1.08815e-05,-3.44179e-05,0.00038837,5.56627e-05,-1.19505e-05,-4.41758e-06,2.95232e-06,0
-5.0448e-05,-1.14379e-05,-3.09714e-05,0.000374319,8.41812e-05,-8.31939e-06,-5.40544e-06,3.41886e-06,0
-5.63087e-05,-1.38904e-05,-2.98514e-05,0.000129577,7.10244e-05,-7.83203e-06,-3.35027e-06,3.97302e-06,0
-5.51457e-05,-1.76137e-05,-3.18095e-05,-0.000130857,3.82397e-05,-5.84321e-06,7.9157e-07,4.77525e-06,0
-4.6208e-05,-1.66902e-05,-2.63519e-05,-0.000153272,1.7507e-05,2.17616e-06,5.86981e-06,5.84281e-06,0
-3.53237e-05,-9.70472e-06,-1.26196e-05,-1.74344e-05,1.01927e-05,1.157e-05,1.15109e-05,5.88256e-06,0
-2.64182e-05,-3.32114e-06,-4.57374e-06,3.02633e-05,-7.17731e-06,1.26629e-05,1.51599e-05,4.28643e-06,0
-1.9909e-05,-3.88103e-07,-4.76504e-06,-2.13902e-05,-3.41291e-05,5.88041e-06,1.34538e-05,3.0061e-06,0
-1.49132e-05,1.89939e-06,-4.79908e-06,-3.78892e-05,-4.18987e-05,1.26227e-06,8.9842e-06,1.69446e-06,0
-1.09907e-05,5.43433e-06,-2.05496e-06,-5.58256e-05,-1.02666e-05,2.96574e-06,7.76956e-06,-6.49097e-07,0
-9.92814e-06,9.52659e-06,-5.23759e-06,-0.000101936,5.04054e-05,5.62187e-06,1.1417e-05,-2.68565e-06,0
-1.22628e-05,1.2288e-05,-1.66482e-05,-0.000111234,0.000105976,6.669e-06,1.44026e-05,-2.69246e-06,0
-1.44947e-05,1.88388e-05,-2.21431e-05,-9.60752e-05,0.000147546,9.50715e-06,1.4054e-05,-2.3776e-06,0
-1.63996e-05,2.66795e-05,-1.56761e-05,-1.06733e-05,0.00017099,1.41757e-05,1.14622e-05,-3.41719e-06,0
-1.80279e-05,2.90348e-05,1.678e-06,0.000155629,0.000169315,2.06773e-05,8.04911e-06,-4.2111e-06,0
-1.67755e-05,2.884e-05,2.27608e-05,0.000188246,0.00014077,2.38683e-05,7.51623e-06,-4.42194e-06,0
-1.79493e-05,2.71375e-05,3.21706e-05,-5.89458e-06,8.82831e-05,1.38277e-05,9.73225e-06,-4.78803e-06,0
-2.49538e-05,2.62292e-05,2.53961e-05,-0.000241354,3.23172e-05,-4.95692e-06,1.28921e-05,-6.80035e-06,0
-3.14832e-05,3.30721e-05,1.2738e-05,-0.000295956,-1.63835e-05,-1.81875e-05,1.56115e-05,-8.65959e-06,0
-3.32475e-05,4.42122e-05,3.29357e-06,-0.000188567,-4.29603e-05,-2.02547e-05,1.73167e-05,-7.93992e-06,0
-3.25852e-05,4.77981e-05,-2.94852e-06,-7.49643e-05,-4.62199e-05,-1.5602e-05,1.7853e-05,-6.73071e-06,0
-3.18845e-05,4.27798e-05,-6.79851e-06,1.26314e-05,-3.16058e-05,-1.11334e-05,1.42624e-05,-7.49847e-06,0
-3.07266e-05,3.5251e-05,-6.68119e-06,4.98363e-05,6.70102e-07,-7.46844e-06,6.25501e-06,-9.20748e-06,0
-3.04642e-05,2.85695e-05,-3.04987e-06,-3.15191e-05,4.32971e-05,-2.94608e-06,-1.36534e-06,-1.00832e-05,0
-3.01165e-05,2.36592e-05,4.98127e-07,-0.000211953,8.52238e-05,1.86142e-06,-4.78658e-06,-9.84013e-06,0
-2.83687e-05,2.09462e-05,-1.58644e-06,-0.000336558,0.00010147,4.11978e-06,-4.84093e-06,-9.42163e-06,0
-2.73309e-05,1.80895e-05,-1.2065e-05,-0.000283667,8.2192e-05,5.64338e-07,-2.69386e-06,-8.71809e-06,0
-2.85472e-05,1.12536e-05,-2.49341e-05,-5.51207e-05,4.96368e-05,-6.33208e-06,8.08366e-07,-7.29925e-06,0
-3.0563e-05,1.0735e-06,-2.96607e-05,0.000237335,3.15985e-05,-1.1035e-05,5.89628e-06,-5.92764e-06,0
-3.11057e-05,-7.84409e-06,-2.16853e-05,0.000455745,2.41611e-05,-1.04145e-05,1.20729e-05,-4.80242e-06,0
-2.97621e-05,-1.26405e-05,-6.67432e-06,0.000533063,1.06951e-05,-7.30831e-06,1.73084e-05,-3.57868e-06,0
-2.65577e-05,-1.26411e-05,6.47244e-06,0.000440036,-7.94546e-06,-6.67806e-06,2.06381e-05,-2.79097e-06,0
-2.31186e-05,-6.81524e-06,1.36326e-05,0.000184735,-1.75646e-05,-9.80294e-06,2.37748e-05,-3.76831e-06,0
-2.11292e-05,3.13549e-06,1.61372e-05,-0.000120593,-1.35798e-05,-1.219e-05,2.77084e-05,-5.3685e-06,0
-1.99742e-05,1.66634e-05,1.44576e-05,-0.000286474,-1.17532e-06,-1.09714e-05,2.86859e-05,-6.81544e-06,0
-1.84356e-05,3.13562e-05,4.04358e-06,-0.000247845,8.83876e-06,-9.30039e-06,2.24032e-05,-8.79409e-06,0
-1.84392e-05,3.78926e-05,-1.55647e-05,-0.000107613,1.50103e-05,-7.4715e-06,2.15827e-06,-9.88601e-06,0
-2.11411e-05,3.37086e-05,-3.35128e-05,9.43839e-05,2.7567e-05,-2.31715e-06,-2.62778e-05,-9.1769e-06,0
-2.59221e-05,2.57081e-05,-4.00521e-05,0.000333645,5.14651e-05,1.22134e-06,-3.98919e-05,-7.48568e-06,0
-3.65697e-05,1.51251e-05,-3.61822e-05,0.000465778,8.11053e-05,-2.14265e-06,-2.87614e-05,-3.72483e-06,0
-5.21342e-05,3.84932e-06,-2.40037e-05,0.000371183,8.3858e-05,-8.68574e-06,-9.1557e-06,-1.30775e-06,0
-6.67077e-05,-2.197e-06,-6.47986e-06,0.000118381,4.32185e-05,-1.14294e-05,-9.79427e-06,-2.06841e-06,0
-7.80838e-05,-6.14736e-06,6.93968e-06,-0.000108434,7.98191e-06,-7.25692e-06,-2.5615e-05,-2.70144e-06,0
-8.54993e-05,-1.01573e-05,1.22491e-05,-0.000233679,7.48814e-06,-3.04644e-06,-2.92281e-05,-2.89841e-06,0
-9.12061e-05,-1.05356e-05,9.26132e-06,-0.000290697,1.43496e-05,-6.36138e-06,-1.64439e-05,-1.48522e-06,0
-8.84912e-05,-6.93029e-06,-3.31659e-06,-0.000353673,4.69601e-06,-1.41028e-05,7.05997e-06,8.0224e-07,0
-7.193e-05,-2.29569e-06,-2.19822e-05,-0.000416137,-1.52957e-05,-2.05001e-05,3.29723e-05,5.49805e-07,0
-4.70793e-05,7.60607e-07,-4.05141e-05,-0.000464359,-2.99531e-05,-2.26342e-05,5.80771e-05,-6.9437e-07,0
-1.93909e-05,2.28818e-06,-5.47075e-05,-0.000496905,-1.41396e-05,-2.69338e-05,8.12657e-05,1.44834e-07,0
4.61036e-06,1.45886e-06,-6.1977e-05,-0.000479664,3.38162e-05,-4.24696e-05,9.73397e-05,2.91611e-06,0
1.5102e-05,-2.12845e-08,-6.11475e-05,-0.000363472,5.1338e-05,-6.16908e-05,0.000101295,1.4104e-05,0
9.83219e-06,1.79973e-06,-4.93638e-05,-9.80865e-05,2.34827e-05,-7.36093e-05,9.74419e-05,3.25912e-05,0
-2.05466e-07,7.76335e-06,-2.38985e-05,0.000240653,-1.52707e-05,-7.77044e-05,9.20426e-05,4.50865e-05,0
-6.69676e-06,1.35098e-05,6.66356e-06,0.000469161,-4.38311e-05,-8.07834e-05,8.45482e-05,4.69655e-05,0
-9.11995e-06,1.45391e-05,2.85078e-05,0.000427406,-5.80124e-05,-7.4605e-05,7.47024e-05,3.94513e-05,0
-1.25512e-05,1.03949e-05,3.46177e-05,0.000155659,-6.83219e-05,-4.32211e-05,6.3143e-05,2.24865e-05,0
-1.99512e-05,2.92267e-06,2.60736e-05,-0.000109751,-8.77887e-05,-5.60279e-09,5.06806e-05,-2.12324e-06,0
-2.82515e-05,-4.32848e-06,9.03549e-06,-0.000164297,-0.000114686,3.35427e-05,3.71013e-05,-2.5263e-05,0
-3.15326e-05,-8.99232e-06,-6.62222e-06,5.6944e-06,-0.000127614,5.89603e-05,2.66163e-05,-3.83151e-05,0
-2.44873e-05,-1.05665e-05,-1.25031e-05,0.000283481,-0.000101507,6.94951e-05,2.19481e-05,-4.2264e-05,0
7.42606e-07,-9.2935e-06,-5.19426e-06,0.000464156,-2.86595e-05,5.622e-05,1.99825e-05,-4.27927e-05,0
4.01966e-05,-5.1288e-06,1.08237e-05,0.000420533,5.96498e-05,4.03207e-05,1.67338e-05,-4.06213e-05,0
6.5449e-05,2.59938e-06,2.7224e-05,0.000225815,0.000121965,3.55991e-05,9.96885e-06,-3.39625e-05,0
6.00014e-05,1.0784e-05,3.449e-05,5.10458e-05,0.000131822,2.82981e-05,-2.47016e-07,-2.49199e-05,0
3.50274e-05,1.6882e-05,3.09529e-05,-1.82973e-05,0.000114943,3.61513e-06,-7.56527e-06,-1.61498e-05,0
4.56326e-06,2.34107e-05,2.63464e-05,-9.02459e-06,0.000112405,-2.74278e-05,-8.44642e-06,-7.74005e-06,0
-2.41983e-05,2.36724e-05,2.35689e-05,5.21357e-05,0.000108951,-3.18913e-05,-8.87202e-06,1.469e-06,0
-4.7848e-05,1.81033e-05,1.78694e-05,0.000126573,8.16738e-05,-5.60464e-06,-1.31959e-05,8.62147e-06,0
-6.97204e-05,1.44816e-05,5.23517e-06,0.000167953,4.69253e-05,1.3769e-05,-1.87906e-05,1.22725e-05,0
-8.74163e-05,1.10721e-05,-4.59584e-06,0.000114762,3.2059e-05,1.23694e-05,-2.11559e-05,1.55973e-05,0
-9.11669e-05,8.11422e-06,-1.39468e-06,-7.41379e-05,4.00028e-05,1.05525e-05,-2.04284e-05,1.99667e-05,0
-8.58842e-05,2.59062e-06,2.0095e-06,-0.000421632,4.53261e-05,1.65837e-05,-1.94304e-05,2.65525e-05,0
-7.94597e-05,-8.38961e-06,-8.61696e-06,-0.00077394,2.51576e-05,2.19651e-05,-1.75817e-05,3.29164e-05,0
-7.68402e-05,-1.92842e-05,-2.44209e-05,-0.000785788,-7.63671e-06,1.94968e-05,-1.54552e-05,3.36642e-05,0
-7.79898e-05,-2.63379e-05,-2.91938e-05,-0.000366387,-3.06928e-05,1.14029e-05,-1.44407e-05,2.80859e-05,0
-7.624e-05,-2.80705e-05,-1.8262e-05,0.00019233,-3.86434e-05,1.00409e-05,-1.78327e-05,2.0779e-05,0
-6.51078e-05,-2.64034e-05,4.68852e-06,0.00052894,-3.75227e-05,2.24321e-05,-2.71536e-05,1.27987e-05,0
-5.06334e-05,-2.43897e-05,3.12562e-05,0.000573061,-3.90571e-05,2.69307e-05,-3.66584e-05,3.36636e-06,0
-4.56262e-05,-2.22232e-05,5.29468e-05,0.000469436,-3.01092e-05,-4.79019e-07,-3.91083e-05,-4.1768e-06,0
-4.98313e-05,-1.94611e-05,6.14224e-05,0.000294977,6.62318e-07,-4.46234e-05,-3.78266e-05,-7.37562e-06,0
-5.52024e-05,-1.40079e-05,5.09919e-05,9.57809e-05,3.2355e-05,-6.77917e-05,-3.95712e-05,-6.74477e-06,0
-5.18982e-05,-2.35349e-06,2.53306e-05,4.33358e-06,6.00129e-05,-6.30658e-05,-3.85944e-05,-5.11931e-06,0
-4.24749e-05,1.29969e-05,-6.3342e-06,7.36756e-05,8.86526e-05,-5.55937e-05,-2.86791e-05,-3.29955e-06,0
-3.50032e-05,1.89435e-05,-3.4782e-05,0.000158951,8.1125e-05,-5.96474e-05,-1.16903e-05,-2.83317e-08,0
-3.12979e-05,1.07927e-05,-5.50459e-05,0.000117855,1.40725e-05,-6.29619e-05,7.154e-06,5.46161e-06,0
-2.74034e-05,-2.43222e-06,-6.64107e-05,-6.67176e-05,-7.08818e-05,-4.07288e-05,2.76089e-05,1.16754e-05,0
-2.64177e-05,-1.16725e-05,-6.89487e-05,-0.000304807,-0.000124529,8.20301e-06,4.67867e-05,1.71167e-05,0
-3.51672e-05,-1.44621e-05,-6.61376e-05,-0.000438199,-0.00012911,3.91267e-05,5.95801e-05,2.06816e-05,0
-4.69708e-05,-1.1622e-05,-6.09191e-05,-0.000414133,-9.49857e-05,1.76619e-05,6.58341e-05,2.04767e-05,0
-4.9681e-05,-7.14057e-06,-5.36615e-05,-0.000334897,-4.6161e-05,-3.14621e-05,6.7659e-05,1.46033e-05,0
-4.19239e-05,-4.78798e-06,-4.69673e-05,-0.000256786,2.76178e-06,-6.25264e-05,6.53763e-05,6.53772e-06,0
-2.94879e-05,-4.99299e-06,-3.88759e-05,-0.000197421,3.93733e-05,-5.98524e-05,5.90264e-05,1.81105e-06,0
-2.00111e-05,-2.10265e-06,-2.82543e-05,-0.000135446,4.55444e-05,-4.11917e-05,5.00391e-05,2.15798e-06,0
-1.76776e-05,6.12195e-06,-2.00474e-05,-5.99742e-06,2.68972e-05,-2.73195e-05,4.20297e-05,5.81449e-06,0
-2.11603e-05,1.04025e-05,-1.58434e-05,0.00018092,1.52996e-05,-2.43212e-05,3.59976e-05,7.31919e-06,0
-2.58011e-05,1.25957e-05,-1.15971e-05,0.000299817,2.09215e-05,-2.59657e-05,2.59705e-05,6.72323e-06,0
-2.73217e-05,1.72459e-05,-5.85861e-06,0.00028227,2.59606e-05,-3.19732e-05,1.39066e-05,6.25199e-06,0
-2.89659e-05,2.02141e-05,-3.59357e-06,0.00019993,1.79088e-05,-4.22013e-05,4.27695e-06,4.44093e-06,0
-3.24875e-05,1.88718e-05,-7.20539e-06,0.000110532,-2.73291e-06,-4.96619e-05,-3.12789e-06,1.70314e-06,0
-3.42976e-05,1.72913e-05,-1.08625e-05,4.72688e-05,-1.52468e-05,-5.12163e-05,-7.49486e-06,9.16037e-07,0
-3.34794e-05,1.93545e-05,-1.07058e-05,1.98252e-05,-1.04975e-05,-4.84543e-05,-9.0623e-06,2.00908e-06,0
-3.40607e-05,2.10461e-05,-1.21459e-05,2.382e-06,-2.39439e-07,-4.71719e-05,-8.22426e-06,1.08231e-06,0
-3.58781e-05,2.01036e-05,-1.77712e-05,-2.71519e-05,5.10104e-07,-4.93252e-05,-6.3291e-06,-1.93995e-06,0
-3.72479e-05,1.76149e-05,-2.6215e-05,-0.000109262,-1.28134e-05,-5.07571e-05,-4.79898e-06,-4.00436e-06,0
-3.62668e-05,1.57662e-05,-3.73989e-05,-0.000231977,-3.0477e-05,-4.70588e-05,-5.35678e-06,-3.62633e-06,0
-3.27891e-05,1.95377e-05,-5.05309e-05,-0.000302482,-4.1695e-05,-3.91039e-05,-6.91782e-06,-3.28905e-06,0
-2.66601e-05,3.79845e-05,-5.92899e-05,-0.000225978,-4.22003e-05,-2.5713e-05,-8.39837e-06,-4.37792e-06,0
-1.8575e-05,7.29701e-05,-5.57895e-05,5.25995e-06,-3.29464e-05,5.15942e-06,-7.24509e-06,-4.21104e-06,0
-1.21618e-05,0.000106155,-3.9496e-05,0.000258978,-8.21646e-06,4.95988e-05,4.58533e-07,-1.70607e-06,0
-1.01504e-05,0.00011202,-1.72981e-05,0.000350588,4.38395e-05,7.43277e-05,1.11457e-05,1.15619e-06,0
-9.15779e-06,8.37885e-05,4.38629e-06,0.000188785,0.000127227,6.78562e-05,1.82917e-05,1.71143e-06,0
-5.81292e-06,3.60749e-05,1.97266e-05,-9.76135e-05,0.000196521,5.37647e-05,1.94195e-05,1.20641e-06,0
-5.42442e-06,-1.02965e-05,2.21378e-05,-0.000282019,0.000187016,4.27089e-05,1.73091e-05,1.82653e-06,0
-1.19696e-05,-3.87193e-05,1.40264e-05,-0.000262733,0.000103903,2.57656e-05,1.33457e-05,2.97357e-06,0
-2.16426e-05,-4.41967e-05,3.92192e-06,-0.000107072,2.78322e-05,5.02699e-06,6.93632e-06,1.79541e-06,0
-3.02985e-05,-3.62868e-05,-2.85877e-06,5.90708e-05,3.62272e-05,-8.61261e-06,-5.84997e-07,-2.26864e-06,0
-3.66518e-05,-2.84895e-05,-8.91101e-06,0.000112874,0.000114958,-1.1408e-05,-3.92383e-06,-5.50124e-06,0
-3.84479e-05,-2.3622e-05,-1.66412e-05,6.25531e-05,0.00014694,-8.1917e-06,4.2139e-06,-5.74573e-06,0
-3.52602e-05,-1.90582e-05,-1.85204e-05,8.85893e-05,0.000100801,-4.95451e-06,2.35056e-05,-4.22007e-06,0
-2.95729e-05,-1.24908e-05,-1.08291e-05,0.000212637,4.86881e-05,-1.96733e-06,3.81436e-05,-1.2031e-06,0
-2.94239e-05,-3.88184e-06,-1.0609e-06,0.000246813,-5.02928e-06,-3.63098e-06,3.95554e-05,2.19313e-06,0
-3.35667e-05,7.03603e-07,4.76304e-06,0.000143936,-6.16294e-05,-8.89702e-06,3.37551e-05,3.56394e-06,0
-3.03762e-05,3.08767e-06,8.2778e-06,-1.68222e-05,-9.95459e-05,-5.57975e-06,2.70721e-05,4.35042e-06,0
-2.16353e-05,1.03285e-05,1.31716e-05,-0.00018993,-0.000117639,3.38579e-06,2.0681e-05,1.10802e-05,0
-1.64362e-05,1.69586e-05,1.6099e-05,-0.000215633,-0.000116116,3.39394e-06,1.43378e-05,2.12955e-05,0
-1.80082e-05,1.74289e-05,1.07269e-05,-2.96003e-05,-9.8418e-05,-4.94164e-06,9.02139e-06,2.42725e-05,0
-2.24274e-05,1.5831e-05,1.87285e-06,0.000142852,-7.50545e-05,-8.57115e-06,2.94023e-06,1.79912e-05,0
-2.26989e-05,1.70768e-05,-3.87333e-07,0.000139892,-5.87548e-05,-4.76661e-06,-2.04584e-06,7.79104e-06,0
-1.91508e-05,1.94398e-05,6.109e-07,3.29498e-05,-5.53087e-05,-2.53702e-06,-5.71117e-06,-3.04119e-07,0
-1.6262e-05,2.09368e-05,-3.99293e-07,-3.73011e-05,-3.68095e-05,-3.2404e-06,-1.04438e-05,7.031e-07,0
-1.62339e-05,2.43101e-05,-1.73054e-06,-5.16615e-05,1.47741e-05,-3.40906e-06,-1.5102e-05,1.13226e-05,0
-1.85044e-05,2.92652e-05,-1.02375e-06,-6.65608e-05,6.28714e-05,-5.62892e-06,-1.53476e-05,2.04845e-05,0
-2.09402e-05,3.19825e-05,-5.9646e-07,-0.000106945,7.43601e-05,-1.04015e-05,-8.1525e-06,2.03459e-05,0
-2.12904e-05,3.23339e-05,-2.48495e-06,-0.00016182,5.86697e-05,-1.1902e-05,3.45742e-06,1.24966e-05,0
-2.10188e-05,3.27259e-05,-7.01625e-06,-0.000211085,4.98538e-05,-9.37367e-06,1.25031e-05,2.08392e-06,0
-2.25806e-05,3.1281e-05,-1.46297e-05,-0.000261109,5.76345e-05,-7.91211e-06,1.62907e-05,-8.51074e-06,0
-2.51589e-05,2.8396e-05,-2.10186e-05,-0.000332841,6.60581e-05,-8.91797e-06,1.73729e-05,-1.77132e-05,0
-2.58765e-05,2.81743e-05,-2.26674e-05,-0.000406958,6.28238e-05,-9.8058e-06,1.73254e-05,-2.37225e-05,0
-2.48566e-05,3.06619e-05,-2.1469e-05,-0.000401801,5.13774e-05,-1.16677e-05,1.63118e-05,-2.5894e-05,0
-2.48547e-05,3.31632e-05,-2.20657e-05,-0.000263762,4.0626e-05,-1.71706e-05,1.54869e-05,-2.54449e-05,0
-2.70697e-05,3.71574e-05,-2.3514e-05,1.25208e-05,3.32283e-05,-2.42093e-05,1.64136e-05,-2.43957e-05,0
-3.14847e-05,4.38612e-05,-2.37032e-05,0.000342014,2.69812e-05,-2.91432e-05,1.86264e-05,-2.29327e-05,0
-3.64044e-05,4.71678e-05,-2.33747e-05,0.000511446,1.35616e-05,-2.20547e-05,1.88185e-05,-1.88073e-05,0
-3.92825e-05,4.22139e-05,-1.99066e-05,0.000435898,-1.97491e-05,4.52241e-06,1.3209e-05,-1.15617e-05,0
-4.03229e-05,3.33832e-05,-8.69583e-06,0.000255064,-5.58583e-05,1.99563e-05,2.55025e-06,-3.31892e-06,0
-4.10201e-05,2.59525e-05,7.477e-06,0.000130957,-5.90777e-05,-2.29966e-06,-6.43953e-06,3.62473e-06,0
-3.89778e-05,2.26235e-05,2.13376e-05,0.000118085,-3.7633e-05,-3.13621e-05,-8.58273e-06,6.8859e-06,0
-3.39267e-05,2.81521e-05,2.51824e-05,0.000112466,-6.50539e-06,-3.69339e-05,-5.50824e-06,7.58998e-06,0
-2.72871e-05,5.43059e-05,1.61412e-05,9.37378e-05,3.05601e-05,-2.39344e-05,-1.89008e-06,7.26377e-06,0
-2.25535e-05,9.63373e-05,3.32366e-07,2.8498e-05,5.9384e-05,-1.0959e-05,3.12358e-07,7.18906e-06,0
-2.35581e-05,0.000110019,-1.32053e-05,-0.000184973,6.52063e-05,-4.86958e-06,3.35071e-06,7.72943e-06,0
-2.98206e-05,7.08503e-05,-1.99908e-05,-0.000340719,5.44315e-05,-1.30223e-06,8.79622e-06,8.40575e-06,0
-3.75255e-05,7.15771e-06,-1.57964e-05,-0.00021496,5.31556e-05,2.8696e-06,1.37983e-05,8.25582e-06,0
-3.98984e-05,-4.04061e-05,-1.62127e-06,9.75497e-05,6.49478e-05,7.65555e-06,1.65177e-05,7.45496e-06,0
-3.51189e-05,-5.55178e-05,1.18256e-05,0.000349989,7.14459e-05,1.00724e-05,1.94131e-05,6.40296e-06,0
-3.09795e-05,-4.72523e-05,1.77103e-05,0.000382216,4.15079e-05,1.05944e-05,2.67413e-05,4.44701e-06,0
-3.20943e-05,-3.36599e-05,1.30217e-05,0.000242448,-3.08444e-05,8.00513e-06,4.06623e-05,2.92625e-06,0
-3.52919e-05,-2.57607e-05,-2.35202e-06,6.30676e-05,-9.99723e-05,1.24233e-06,5.35741e-05,2.77749e-06,0
-3.58748e-05,-2.0445e-05,-1.84924e-05,-5.31079e-05,-0.000110303,-8.37853e-06,5.72759e-05,3.11474e-06,0
-3.3143e-05,-1.67627e-05,-2.23912e-05,-8.45893e-05,-3.99e-05,-2.31216e-05,5.3322e-05,2.72533e-06,0
-2.76637e-05,-1.27194e-05,-1.36723e-05,-6.49529e-05,7.23956e-05,-4.00313e-05,4.56089e-05,1.48043e-06,0
-1.90043e-05,-4.68977e-06,-3.82348e-06,-1.82691e-05,0.000164198,-4.52166e-05,3.59493e-05,-1.40822e-07,0
-1.12489e-05,5.1876e-06,-5.54865e-07,3.86997e-05,0.000207909,-3.44457e-05,2.72405e-05,-2.2385e-06,0
-1.15164e-05,1.12717e-05,-3.41395e-07,8.14784e-05,0.000211297,-1.8707e-05,2.00271e-05,-4.94407e-06,0
-2.14721e-05,1.21581e-05,3.40848e-07,7.32968e-05,0.000178611,-9.69239e-07,7.82787e-06,-6.91489e-06,0
-3.41398e-05,9.63745e-06,7.48731e-08,1.46322e-05,0.000105909,2.86206e-05,-2.16156e-05,-7.54408e-06,0
-4.35671e-05,6.23469e-06,-1.76092e-06,-5.35176e-05,1.53765e-05,5.87796e-05,-6.87556e-05,-7.43958e-06,0
-4.78341e-05,5.94078e-06,-5.06776e-06,-8.65737e-05,-6.24288e-05,4.95673e-05,-0.000104594,-6.69685e-06,0
-4.69607e-05,9.53252e-06,-9.42724e-06,-8.34477e-05,-0.000122314,-6.03765e-06,-0.000103117,-4.93162e-06,0
-4.11143e-05,1.54161e-05,-1.01708e-05,-8.57323e-05,-0.000157252,-5.01333e-05,-7.25088e-05,-3.14279e-06,0
-3.50475e-05,1.98744e-05,-7.33592e-06,-0.000183976,-0.000150406,-3.86359e-05,-3.31134e-05,-4.029e-06,0
-3.25981e-05,2.12273e-05,-8.21347e-06,-0.000385423,-0.000102773,-3.19087e-06,5.99807e-06,-7.19219e-06,0
-3.32409e-05,2.01069e-05,-1.56649e-05,-0.000410649,-4.59521e-05,6.65953e-06,4.41508e-05,-9.81421e-06,0
-3.66522e-05,1.92716e-05,-2.49681e-05,-5.24346e-05,-1.27032e-05,-7.54161e-06,7.68185e-05,-1.13145e-05,0
-4.51072e-05,1.71391e-05,-3.14755e-05,0.00046024,2.9563e-06,-2.30389e-05,9.72194e-05,-1.10859e-05,0
-5.49738e-05,1.01478e-05,-3.64456e-05,0.000576789,-1.31747e-06,-3.14744e-05,0.000100774,-8.26795e-06,0
-5.64319e-05,4.49875e-06,-4.18912e-05,0.000193849,-3.11668e-05,-2.94411e-05,9.3578e-05,-2.46379e-06,0
-5.14916e-05,4.60877e-06,-4.5325e-05,-0.00021915,-6.60826e-05,-2.40315e-05,8.27454e-05,-8.60826e-07,0
-4.55999e-05,7.78167e-06,-4.46038e-05,-0.000368787,-8.67662e-05,-2.00999e-05,6.70591e-05,1.74025e-06,0
-4.07317e-05,1.44298e-05,-3.98549e-05,-0.000173369,-6.54997e-05,-1.43509e-05,5.08261e-05,2.03441e-05,0
-3.32182e-05,2.43607e-05,-2.73423e-05,0.000172834,6.34122e-06,4.9485e-07,3.79962e-05,4.14716e-05,0
-2.19015e-05,3.14406e-05,-4.20729e-06,0.000397011,0.000110722,2.2618e-05,3.22869e-05,4.50807e-05,0
-1.61716e-05,3.05277e-05,2.09095e-05,0.000328431,0.000197574,3.65646e-05,3.22995e-05,2.95048e-05,0
-1.93863e-05,2.38799e-05,3.9577e-05,5.69531e-06,0.000210673,3.51185e-05,3.35763e-05,5.60126e-06,0
-2.44535e-05,1.71971e-05,5.12099e-05,-0.000355053,0.000156806,2.37708e-05,3.2194e-05,-1.73539e-05,0
-2.56775e-05,1.45464e-05,5.68013e-05,-0.000503044,0.000102162,1.37749e-05,2.68745e-05,-3.24154e-05,0
-2.39672e-05,1.43194e-05,6.01613e-05,-0.000376013,8.46256e-05,8.18568e-06,1.94535e-05,-3.89094e-05,0
-2.07155e-05,1.47368e-05,6.8299e-05,-0.000154854,8.49033e-05,3.22535e-06,1.19319e-05,-4.10501e-05,0
-1.7164e-05,1.42968e-05,7.99128e-05,3.31209e-05,8.34211e-05,-1.67548e-06,6.43016e-06,-3.94559e-05,0
-1.62766e-05,1.26078e-05,8.18953e-05,0.000147506,8.08191e-05,-7.56093e-06,3.84745e-06,-3.38312e-05,0
-2.01714e-05,1.2426e-05,6.65462e-05,0.000205163,8.47532e-05,-1.96231e-05,3.65656e-06,-2.48589e-05,0
-2.70448e-05,1.48716e-05,3.59233e-05,0.000165368,8.15017e-05,-3.65031e-05,2.08698e-06,-1.55854e-05,0
-3.3568e-05,1.61432e-05,-5.45002e-06,6.5099e-05,6.57221e-05,-4.81932e-05,-1.69134e-06,-9.28505e-06,0
-3.7339e-05,1.31701e-05,-5.11704e-05,1.55441e-05,6.04817e-05,-5.05197e-05,-6.72156e-06,-5.72757e-06,0
-3.73865e-05,1.00865e-05,-8.66051e-05,7.31533e-05,6.15253e-05,-4.56542e-05,-1.08216e-05,4.51239e-06,0
-3.41457e-05,9.74873e-06,-9.71375e-05,0.000123973,3.3013e-05,-3.52822e-05,-1.178e-05,2.21213e-05,0
-3.05565e-05,9.62565e-06,-8.87651e-05,9.83009e-05,-2.43249e-05,-2.67091e-05,-7.78249e-06,3.35833e-05,0
-3.01712e-05,7.2854e-06,-7.85289e-05,2.4352e-05,-8.21659e-05,-2.50382e-05,-8.33042e-07,3.50325e-05,0
-3.0915e-05,5.96212e-06,-6.78674e-05,-9.36372e-05,-0.000117102,-2.08874e-05,4.61952e-06,2.76225e-05,0
-2.96779e-05,6.93716e-06,-5.96255e-05,-0.000292436,-0.000128007,-7.08774e-06,7.61277e-06,6.57763e-06,0
-2.80892e-05,9.81604e-06,-6.40003e-05,-0.000414679,-0.000124291,1.96081e-06,8.69934e-06,-2.06278e-05,0
-2.86668e-05,1.11264e-05,-7.4665e-05,-0.000301581,-0.000119295,1.04907e-05,6.82041e-06,-4.25874e-05,0
-3.14014e-05,9.95076e-06,-7.33472e-05,-0.000184922,-0.000122192,4.38932e-05,5.12906e-06,-5.0193e-05,0
-3.58455e-05,1.40721e-05,-5.60863e-05,-0.00013887,-0.000121333,6.70656e-05,2.49414e-06,-4.61272e-05,0
-3.95662e-05,2.52489e-05,-3.68319e-05,-7.01929e-06,-0.000102177,4.49853e-05,-7.60637e-06,-3.86951e-05,0
-3.91457e-05,3.13307e-05,-2.12082e-05,0.000199272,-7.78586e-05,8.0082e-06,-1.97534e-05,-2.75968e-05,0
-3.89482e-05,2.10985e-05,-5.98375e-06,0.000239067,-7.74492e-05,-1.98955e-05,-2.38027e-05,-1.49307e-05,0
-4.11739e-05,3.08536e-06,6.32476e-06,-3.41407e-05,-8.99809e-05,-4.51074e-05,-1.89539e-05,-3.40218e-06,0
-4.03665e-05,-7.67868e-06,1.05123e-05,-0.000307856,-9.25625e-05,-7.70584e-05,-1.30115e-05,1.80623e-06,0
-3.5551e-05,-7.00507e-06,9.07028e-06,-0.00028377,-5.25214e-05,-9.65913e-05,-1.15184e-05,3.23019e-06,0
-2.95017e-05,8.40882e-07,8.04349e-06,-6.39734e-05,4.92124e-05,-7.443e-05,-6.75259e-06,6.05466e-06,0
-2.45506e-05,1.11552e-05,1.10658e-05,0.000131733,0.000167828,-2.3178e-05,4.78626e-06,1.02085e-05,0
-2.28302e-05,2.30648e-05,2.16213e-05,0.000279146,0.00024482,1.94289e-05,1.38508e-05,1.39267e-05,0
-2.84856e-05,3.43457e-05,3.63661e-05,0.00041418,0.00026608,3.40042e-05,1.42431e-05,1.69695e-05,0
-4.11839e-05,3.87913e-05,4.60744e-05,0.000470715,0.000247519,2.58301e-05,1.0096e-05,1.82212e-05,0
-5.35052e-05,3.3746e-05,4.37192e-05,0.000405074,0.000203016,1.14183e-05,9.80459e-06,1.75545e-05,0
-5.7083e-05,2.3313e-05,3.19146e-05,0.000256753,0.000142318,1.30521e-06,1.67764e-05,1.75265e-05,0
-5.09388e-05,1.27559e-05,2.02987e-05,0.000106003,7.95548e-05,-4.79617e-06,2.89523e-05,1.76083e-05,0
-3.94158e-05,4.48313e-06,1.20063e-05,-4.34247e-05,5.51868e-05,-7.76847e-06,4.11271e-05,1.76386e-05,0
-2.54934e-05,-1.63657e-06,3.12095e-06,-0.000172948,0.0001041,-6.55939e-06,5.05307e-05,1.7976e-05,0
-8.14784e-06,-5.75056e-06,-5.2278e-06,-0.000241016,0.000167072,-1.28344e-06,5.61922e-05,1.91207e-05,0
1.45956e-05,-5.57785e-06,-7.14204e-06,-0.000199613,0.000151475,6.8756e-06,5.75797e-05,2.03843e-05,0
3.33641e-05,-1.50321e-06,-4.79516e-06,-6.91593e-05,5.97121e-05,1.34378e-05,5.55925e-05,2.16798e-05,0
3.37575e-05,2.05489e-06,-2.86778e-06,6.37861e-05,-5.10068e-05,1.47881e-05,5.30434e-05,2.06564e-05,0
1.5594e-05,4.56929e-06,-2.1123e-06,0.000112199,-0.000138862,8.75998e-06,4.89494e-05,1.49989e-05,0
-5.03739e-06,8.90476e-06,-1.53976e-06,7.31224e-05,-0.000195557,-4.2924e-06,4.34093e-05,7.13303e-06,0
-1.67045e-05,1.57415e-05,6.73214e-07,1.54469e-05,-0.000225554,-2.07334e-05,3.53166e-05,-7.95242e-07,0
-2.02861e-05,2.32639e-05,4.9914e-06,-1.42587e-05,-0.000217666,-3.37127e-05,2.38637e-05,-6.2515e-06,0
-1.78745e-05,3.03376e-05,7.34587e-06,-5.38444e-06,-0.000183246,-4.37322e-05,1.30791e-05,-4.87215e-06,0
-1.5488e-06,3.45245e-05,4.22509e-06,2.53362e-05,-0.00014292,-5.19352e-05,6.93798e-06,1.60759e-06,0
2.28055e-05,3.44113e-05,-4.24668e-06,2.03758e-05,-9.09176e-05,-5.23563e-05,6.93627e-06,6.55381e-06,0
2.88474e-05,3.18303e-05,-1.63036e-05,-1.74161e-05,-4.52088e-05,-5.01183e-05,7.51654e-06,8.37664e-06,0
1.2533e-05,2.7754e-05,-2.5537e-05,-3.27879e-05,-2.82828e-05,-5.12149e-05,6.44919e-06,9.03065e-06,0
-1.29266e-05,2.29014e-05,-3.0489e-05,1.42006e-06,-2.83804e-05,-5.72461e-05,5.96402e-06,1.04039e-05,0
-3.62347e-05,1.87997e-05,-3.40459e-05,0.000112066,-3.81582e-05,-5.17364e-05,6.29317e-06,1.16517e-05,0
-5.23818e-05,1.79501e-05,-3.53759e-05,0.000230338,-5.82276e-05,-1.7562e-05,7.00243e-06,1.08947e-05,0
-6.34681e-05,1.67482e-05,-3.45004e-05,0.000270419,-8.06885e-05,2.16675e-05,6.45386e-06,9.1841e-06,0
-6.91276e-05,1.30611e-05,-3.09517e-05,0.000167327,-8.9093e-05,3.06516e-05,3.97701e-06,6.99711e-06,0
-6.8501e-05,1.12271e-05,-2.30321e-05,-6.42097e-05,-8.13064e-05,1.15129e-05,-4.70345e-07,4.66958e-06,0
-6.44588e-05,1.24714e-05,-1.4512e-05,-0.000270943,-6.9218e-05,-1.06942e-05,-5.31124e-06,4.5271e-06,0
-6.06665e-05,1.47774e-05,-8.72019e-06,-0.000357871,-5.39078e-05,-2.08296e-05,-5.69146e-06,4.90721e-06,0
-5.77711e-05,1.65619e-05,-1.70699e-06,-0.000331691,-2.83347e-05,-2.0397e-05,-1.37596e-06,3.95535e-06,0
-5.75223e-05,1.68653e-05,6.76021e-06,-0.00023071,-1.21999e-06,-2.01506e-05,2.85526e-06,3.21579e-06,0
-6.22776e-05,1.42208e-05,9.20209e-06,-0.000174847,8.14969e-06,-2.80466e-05,4.74417e-06,3.40716e-06,0
-7.01103e-05,1.01699e-05,2.26544e-06,-0.00022792,-2.86365e-06,-4.18299e-05,5.20603e-06,4.30377e-06,0
-7.63812e-05,8.02456e-06,-8.92527e-06,-0.000259942,-1.17019e-05,-5.31229e-05,4.38969e-06,5.44084e-06,0
-7.65828e-05,9.26768e-06,-1.82522e-05,-0.00015024,2.96674e-06,-5.58403e-05,2.9619e-06,6.43122e-06,0
-6.7328e-05,1.30079e-05,-2.23397e-05,2.4453e-06,3.4273e-05,-4.34875e-05,4.80798e-06,7.3571e-06,0
-5.16139e-05,1.725e-05,-2.00192e-05,9.26408e-05,7.09241e-05,-1.96915e-05,1.06812e-05,8.72363e-06,0
-3.82186e-05,2.13905e-05,-1.48598e-05,0.000143106,0.000105837,1.99832e-06,1.62664e-05,9.41471e-06,0
-3.30976e-05,2.47654e-05,-1.17568e-05,0.00015258,0.000134648,1.12156e-05,1.93844e-05,8.27927e-06,0
-3.19589e-05,2.44721e-05,-6.36205e-06,8.93644e-05,0.000153702,1.12682e-05,1.96553e-05,7.13648e-06,0
-2.78918e-05,2.1547e-05,5.62518e-06,-2.26455e-05,0.000138872,9.73422e-06,1.80609e-05,6.94119e-06,0
-2.26186e-05,2.07859e-05,1.89006e-05,-9.26739e-05,9.37185e-05,6.25199e-06,1.68582e-05,6.75441e-06,0
-2.05936e-05,2.45495e-05,2.60452e-05,-6.0261e-05,6.16288e-05,5.1649e-07,1.56845e-05,7.71861e-06,0
-2.10965e-05,3.4023e-05,2.89015e-05,-1.96577e-05,6.70266e-05,-1.92872e-06,1.34753e-05,8.44107e-06,0
-2.17185e-05,3.99531e-05,2.84278e-05,-8.34889e-05,9.20282e-05,-6.43001e-08,1.33442e-05,8.087e-06,0
-2.25098e-05,3.63385e-05,2.03515e-05,-0.000148606,9.5327e-05,5.71082e-07,1.01183e-05,8.42708e-06,0
-2.2355e-05,3.14976e-05,1.2792e-05,-5.97378e-05,7.50313e-05,-1.90773e-06,-7.21265e-06,9.11317e-06,0
-1.98403e-05,2.93758e-05,7.55123e-06,6.80524e-05,5.24962e-05,-3.40493e-06,-3.33259e-05,8.20924e-06,0
-1.87322e-05,2.88263e-05,3.98188e-07,3.82879e-05,3.41814e-05,-4.13291e-06,-5.15239e-05,6.32328e-06,0
-2.17017e-05,2.66141e-05,-5.28138e-06,-4.55195e-05,8.23053e-06,-7.43921e-06,-5.20363e-05,4.57642e-06,0
-2.63944e-05,2.29247e-05,-6.30085e-06,-4.22284e-06,-2.18276e-05,-1.32507e-05,-3.83459e-05,2.31164e-06,0
-3.04931e-05,2.25899e-05,-6.318e-06,0.00010785,-3.52903e-05,-1.84564e-05,-2.06603e-05,6.97375e-07,0
-2.9186e-05,3.438e-05,-1.08689e-05,0.000185309,-2.23009e-05,-1.44951e-05,-3.8402e-06,-5.002e-07,0
-2.5456e-05,5.58008e-05,-1.74211e-05,0.000190425,1.19993e-05,-2.83251e-06,1.2393e-05,-1.11557e-06,0
-2.86327e-05,7.3003e-05,-2.11086e-05,0.000145483,4.62202e-05,-1.53722e-07,1.93001e-05,-4.30862e-07,0
-3.59934e-05,7.10069e-05,-2.28315e-05,8.87538e-05,6.1871e-05,-1.41721e-05,6.63216e-06,1.88788e-07,0
-3.70128e-05,4.48321e-05,-2.77677e-05,5.02894e-05,5.97406e-05,-3.36192e-05,-1.46397e-05,-1.48831e-06,0
-3.04687e-05,7.11357e-06,-3.58308e-05,1.71751e-05,5.72591e-05,-4.37624e-05,-2.26486e-05,-3.74821e-06,0
-2.44036e-05,-2.62544e-05,-4.30942e-05,-6.54871e-05,5.0813e-05,-3.62913e-05,-1.02506e-05,-3.30114e-06,0
-2.31937e-05,-4.48129e-05,-4.46958e-05,-0.000172542,2.19161e-05,-1.29724e-05,1.63675e-05,-7.02155e-07,0
-2.49324e-05,-4.76926e-05,-3.74107e-05,-0.00022572,-1.822e-05,1.1767e-05,4.58985e-05,1.72525e-06,0
-2.69381e-05,-4.18716e-05,-2.43739e-05,-0.000161037,-1.09406e-05,1.98968e-05,7.00465e-05,2.48196e-06,0
-2.8824e-05,-3.50644e-05,-1.67541e-05,4.41665e-06,5.96041e-05,9.94463e-06,8.80116e-05,1.95096e-06,0
-3.03092e-05,-2.85998e-05,-2.17528e-05,0.000151296,0.000107295,-3.46911e-06,0.000102076,1.37386e-07,0
-2.95346e-05,-2.4559e-05,-3.47052e-05,0.000143961,8.25431e-05,-8.56161e-06,0.000112955,-2.61649e-06,0
-2.64866e-05,-2.19868e-05,-4.63684e-05,-4.06562e-05,3.51066e-05,-6.73911e-06,0.000117877,-4.10129e-06,0
-2.52363e-05,-1.88419e-05,-5.25033e-05,-0.000383578,-4.61246e-06,-5.77639e-06,0.000113979,-3.66894e-06,0
-2.54932e-05,-1.47384e-05,-5.58883e-05,-0.000730892,-3.59991e-05,-7.48093e-06,0.000103488,-2.8148e-06,0
-2.59194e-05,-1.2922e-05,-6.55974e-05,-0.000854678,-6.00308e-05,-8.20791e-06,9.06054e-05,-1.98301e-06,0
-2.71341e-05,-1.29341e-05,-7.7149e-05,-0.000644749,-7.18347e-05,-7.78614e-06,7.47173e-05,-2.18418e-06,0
-2.71061e-05,-1.09727e-05,-7.28315e-05,-0.000118831,-5.75923e-05,-7.26395e-06,5.54864e-05,-3.02719e-06,0
-2.73486e-05,-9.76832e-06,-5.66992e-05,0.000377195,-4.1204e-05,-9.54351e-06,3.57495e-05,-4.20524e-06,0
-2.99323e-05,-1.06279e-05,-3.88038e-05,0.000601354,-4.94674e-05,-1.44855e-05,1.7221e-05,-4.60704e-06,0
-3.19136e-05,-1.03249e-05,-1.72185e-05,0.000655979,-4.98691e-05,-1.77278e-05,-1.64895e-06,-5.52685e-06,0
-3.17836e-05,-6.18284e-06,2.88925e-06,0.000579148,-2.59003e-05,-1.95852e-05,-1.8043e-05,-8.28914e-06,0
-3.18295e-05,-1.65241e-06,1.24304e-05,0.000427863,-4.77163e-06,-1.95956e-05,-2.84861e-05,-8.3962e-06,0
-3.17035e-05,6.5331e-06,1.85502e-05,0.000246233,9.25678e-06,-1.68534e-05,-3.45815e-05,-6.99294e-06,0
-2.95823e-05,2.25535e-05,2.44493e-05,0.000144782,2.3881e-05,-1.19792e-05,-3.68045e-05,-6.00287e-06,0
-2.55203e-05,3.40415e-05,2.77307e-05,0.000255376,4.73171e-05,-4.12008e-06,-3.59134e-05,-6.07543e-06,0
-2.06321e-05,3.09922e-05,3.29267e-05,0.00042947,7.96086e-05,8.17302e-06,-3.12693e-05,-6.51069e-06,0
-1.52682e-05,1.83531e-05,4.19172e-05,0.000474024,0.000102443,2.02372e-05,-2.34381e-05,-8.15838e-06,0
-1.14664e-05,5.68388e-06,5.12226e-05,0.000319097,9.20838e-05,2.53633e-05,-1.64831e-05,-1.03155e-05,0
-1.1879e-05,8.31724e-07,5.54913e-05,5.35879e-05,5.35434e-05,2.46041e-05,-1.20537e-05,-9.77499e-06,0
-1.6403e-05,4.62514e-06,5.13945e-05,-0.000163116,1.74398e-05,2.22073e-05,-9.26329e-06,-7.56377e-06,0
-2.33479e-05,1.18839e-05,3.85391e-05,-0.000233253,2.06041e-05,1.96159e-05,-6.7183e-06,-4.62901e-06,0
-2.93857e-05,1.67692e-05,2.37494e-05,-0.000180874,5.61241e-05,1.77631e-05,-3.95822e-06,-2.02764e-06,0
-3.06005e-05,1.92754e-05,1.40211e-05,-0.000109138,8.38602e-05,1.95019e-05,-1.61707e-06,-3.54886e-07,0
-2.28644e-05,2.13851e-05,1.18736e-05,-8.21828e-05,0.000101322,2.63126e-05,5.23642e-07,9.09171e-07,0
-4.11768e-06,2.38208e-05,1.48883e-05,-8.48544e-05,0.000110413,3.14522e-05,3.17832e-06,2.07008e-06,0
1.65144e-05,2.76129e-05,1.80318e-05,-9.10204e-05,7.74267e-05,2.35463e-05,5.02021e-06,1.44377e-06,0
1.95427e-05,3.06372e-05,1.6079e-05,-0.000108756,-1.42335e-05,-1.7791e-06,5.05742e-06,1.76905e-08,0
-3.681e-07,3.09695e-05,7.45326e-06,-0.000138837,-0.000131482,-3.44399e-05,4.30062e-06,-3.70062e-07,0
-2.60065e-05,3.17507e-05,-3.29904e-06,-0.000172618,-0.000209687,-5.60289e-05,3.54309e-06,2.24449e-07,0
-4.15146e-05,3.28837e-05,-8.58247e-06,-0.000188117,-0.00019443,-6.14115e-05,2.01323e-06,-7.88816e-07,0
-4.75526e-05,3.21942e-05,-6.97699e-06,-0.000165828,-0.000102846,-5.53698e-05,-2.48572e-06,-2.2893e-06,0
-4.93915e-05,3.48384e-05,-2.90746e-06,-9.7495e-05,8.16556e-06,-3.91567e-05,-6.88249e-06,-1.73982e-06,0
-4.84234e-05,4.49411e-05,3.20406e-08,6.18795e-06,9.69209e-05,-2.44316e-05,-5.25905e-06,8.96538e-07,0
-4.64695e-05,5.41449e-05,-1.36584e-06,6.97765e-05,0.000128151,-1.97639e-05,2.72232e-06,3.06942e-06,0
-4.83135e-05,4.73801e-05,-8.54324e-06,2.00874e-05,7.62447e-05,-1.9933e-05,9.51095e-06,2.06487e-06,0
-5.31438e-05,2.82326e-05,-1.89323e-05,-6.00782e-05,-4.14742e-06,-1.78839e-05,1.14022e-05,-1.87424e-07,0
-5.43625e-05,1.10582e-05,-2.91791e-05,-7.49142e-05,-5.08187e-05,-1.08585e-05,1.15163e-05,-2.29063e-08,0
-5.25462e-05,1.05783e-06,-3.70124e-05,1.61299e-05,-7.18074e-05,-3.78538e-07,9.70227e-06,2.07058e-06,0
-4.99357e-05,-2.60541e-06,-4.22826e-05,0.000148823,-7.38972e-05,1.07954e-05,8.13015e-06,1.98113e-06,0
-4.52095e-05,-7.09105e-06,-4.38687e-05,0.000144961,-6.32978e-05,1.85773e-05,8.85307e-06,2.13823e-06,0
-3.99911e-05,-1.34382e-05,-3.77701e-05,1.57173e-06,-5.08995e-05,2.51194e-05,1.23507e-05,4.14e-06,0
-3.68279e-05,-1.55588e-05,-2.63324e-05,-0.000106046,-3.76599e-05,3.25462e-05,1.50613e-05,8.48985e-06,0
-3.34188e-05,-8.92854e-06,-1.40599e-05,-0.000139964,-4.32437e-06,4.17312e-05,1.62759e-05,1.33986e-05,0
-2.76364e-05,2.0225e-06,-4.50346e-06,-0.0001699,6.45725e-05,4.97858e-05,1.75805e-05,1.6487e-05,0
-2.33776e-05,1.10019e-05,-8.52276e-07,-0.000135971,0.000142965,4.48764e-05,1.65927e-05,1.78456e-05,0
-2.3507e-05,1.73474e-05,-3.72441e-06,-1.98032e-06,0.00018815,9.54215e-06,1.24194e-05,1.71537e-05,0
-2.57878e-05,2.17307e-05,-9.80983e-06,0.000144223,0.000175805,-4.87559e-05,6.09999e-06,1.37705e-05,0
-2.70788e-05,2.56372e-05,-1.46777e-05,0.000204345,0.00012302,-8.68841e-05,2.45488e-06,7.44851e-06,0
-2.6176e-05,2.78599e-05,-1.49047e-05,0.000166271,7.23373e-05,-7.98317e-05,4.62913e-06,1.28057e-06,0
-2.68719e-05,2.5018e-05,-1.32001e-05,5.63339e-05,4.37353e-05,-5.83665e-05,1.07317e-05,-2.5516e-06,0
-3.36409e-05,1.71537e-05,-1.36165e-05,-0.000103464,1.57806e-05,-5.91885e-05,1.55398e-05,-3.52368e-06,0
-4.5112e-05,1.03711e-05,-1.65912e-05,-0.000279986,-3.40437e-05,-7.0167e-05,1.73829e-05,-3.97896e-06,0
-5.35454e-05,1.03486e-05,-2.35277e-05,-0.00039604,-7.85204e-05,-6.27355e-05,1.63549e-05,-5.64917e-06,0
-5.19422e-05,1.42283e-05,-3.65758e-05,-0.000359383,-7.46803e-05,-4.03323e-05,1.26539e-05,-7.12599e-06,0
-4.46303e-05,1.16584e-05,-5.16705e-05,-0.000190548,-3.26089e-05,-2.81042e-05,8.71269e-06,-5.34251e-06,0
-3.89948e-05,3.84071e-06,-5.50809e-05,-9.18267e-06,7.14942e-06,-2.80106e-05,6.85187e-06,-6.1454e-07,0
-3.26855e-05,1.87052e-06,-3.58713e-05,0.000113768,2.84172e-05,-2.33755e-05,6.3224e-06,3.05887e-06,0
-2.49007e-05,1.00248e-05,1.67449e-06,0.000215924,3.16877e-05,-1.07903e-05,6.77443e-06,3.56978e-06,0
-2.19576e-05,1.91869e-05,3.50671e-05,0.000267353,2.65793e-05,-4.98848e-07,6.99718e-06,1.58753e-06,0
-2.54288e-05,2.11947e-05,4.36572e-05,0.000180847,1.93169e-05,2.19129e-06,5.15155e-06,7.00946e-07,0
-3.14135e-05,1.75349e-05,3.00944e-05,-3.07565e-05,-6.888e-06,-1.81252e-06,3.68665e-06,8.18863e-06,0
-3.52091e-05,1.41109e-05,1.76798e-05,-0.000154299,-2.98983e-05,-4.14192e-06,4.61198e-06,2.0058e-05,0
-3.58465e-05,1.51629e-05,2.23292e-05,-8.21715e-05,-2.12842e-05,-1.438e-06,6.80731e-06,2.41954e-05,0
-3.4356e-05,1.49939e-05,3.56182e-05,6.61263e-05,-1.01347e-05,-1.34843e-08,8.34249e-06,1.86389e-05,0
-3.03456e-05,1.1445e-05,4.64953e-05,0.00018561,-8.9556e-06,-5.17654e-07,9.52539e-06,8.51561e-06,0
-2.79422e-05,7.64615e-06,5.27146e-05,0.000161244,5.63387e-06,3.90808e-07,1.134e-05,5.77027e-07,0
-3.05411e-05,3.26792e-06,5.35071e-05,1.73456e-05,3.36859e-05,2.491e-06,1.30818e-05,-4.34523e-06,0
-3.67681e-05,2.0926e-06,4.46066e-05,-0.000181512,4.68403e-05,1.57286e-06,1.30276e-05,-7.34964e-06,0
-4.20168e-05,1.0388e-05,2.11046e-05,-0.000328374,4.66965e-05,-3.98376e-07,1.11546e-05,-1.05045e-05,0
-4.22774e-05,2.55754e-05,-1.0864e-05,-0.000295408,5.1706e-05,7.58251e-08,1.1369e-05,-9.48279e-06,0
-3.84681e-05,3.26209e-05,-4.16831e-05,-0.000143797,5.77412e-05,3.16463e-06,1.01397e-05,4.07423e-06,0
-3.42976e-05,2.24577e-05,-6.44117e-05,-2.96956e-05,4.77446e-05,5.46285e-06,-4.8063e-06,2.39707e-05,0
-3.13886e-05,2.26265e-06,-7.64893e-05,-6.94357e-06,2.41322e-05,5.49417e-06,-3.03193e-05,3.52048e-05,0
-2.79882e-05,-1.52074e-05,-7.75227e-05,4.95131e-05,7.2621e-06,3.19012e-06,-4.76061e-05,3.22972e-05,0
-2.52166e-05,-2.18142e-05,-6.80932e-05,0.000180225,1.65612e-06,1.36657e-07,-4.60112e-05,1.848e-05,0
-2.63863e-05,-1.91955e-05,-5.46436e-05,0.000284373,4.95873e-07,-2.61469e-06,-3.1262e-05,-2.03214e-06,0
-3.36301e-05,-1.27233e-05,-4.48851e-05,0.000279892,1.99051e-05,-1.10813e-05,-1.22927e-05,-2.37944e-05,0
-4.38975e-05,-5.19564e-06,-3.94785e-05,0.00018806,9.09423e-05,-2.82985e-05,8.39636e-06,-3.97295e-05,0
-5.08715e-05,2.95634e-06,-3.1313e-05,7.42173e-05,0.000186694,-4.5568e-05,3.14701e-05,-4.47459e-05,0
-5.04288e-05,1.07254e-05,-1.71445e-05,9.58124e-06,0.000237747,-5.31367e-05,5.38704e-05,-4.10445e-05,0
-4.4422e-05,1.79164e-05,-5.1114e-06,1.46192e-05,0.000208661,-5.44788e-05,6.99431e-05,-3.43771e-05,0
-3.87864e-05,1.9656e-05,-5.38145e-06,3.72045e-05,9.92541e-05,-5.45069e-05,7.63269e-05,-2.75169e-05,0
-3.62487e-05,1.29641e-05,-1.58742e-05,3.41247e-05,-4.58299e-05,-5.16861e-05,7.04151e-05,-1.94282e-05,0
-3.30019e-05,3.93808e-06,-2.51015e-05,1.53978e-05,-0.000160428,-4.61932e-05,5.36692e-05,-1.07075e-05,0
-2.26544e-05,-6.25013e-07,-2.5017e-05,9.49888e-06,-0.00022241,-3.99862e-05,3.65473e-05,-3.28987e-06,0
-7.26519e-06,1.70428e-06,-1.99045e-05,2.36609e-05,-0.000228356,-3.03579e-05,2.59987e-05,7.84264e-07,0
3.72794e-06,7.6207e-06,-1.73383e-05,4.92256e-05,-0.000188444,-1.7279e-05,2.36235e-05,3.26363e-06,0
1.59542e-06,1.19945e-05,-1.95901e-05,9.16152e-05,-0.000110963,7.40985e-06,3.14088e-05,5.6532e-06,0
-1.50094e-05,1.16715e-05,-1.9635e-05,0.000141085,-1.98821e-05,6.31829e-05,4.16918e-05,8.6813e-06,0
-3.23293e-05,1.19576e-05,-1.25589e-05,0.000158467,3.86316e-05,0.000114446,4.66224e-05,1.15798e-05,0
-3.95909e-05,1.60232e-05,-6.79046e-06,0.000130456,4.84802e-05,9.91355e-05,4.63094e-05,1.1627e-05,0
-3.6564e-05,1.98619e-05,-1.0554e-05,5.74328e-05,2.99798e-05,4.44641e-05,4.16262e-05,8.27334e-06,0
-2.89981e-05,2.6819e-05,-2.29309e-05,5.88294e-06,1.96763e-05,1.17876e-05,2.8152e-05,4.5887e-06,0
-2.26967e-05,3.4687e-05,-3.54027e-05,3.36146e-05,1.93885e-05,6.93797e-06,1.78809e-06,3.00523e-06,0
-1.76102e-05,3.69585e-05,-3.43352e-05,7.05941e-05,1.94881e-05,8.71199e-06,-2.31265e-05,2.52595e-06,0
-1.49287e-05,3.18456e-05,-1.96185e-05,-1.13053e-05,1.71861e-05,4.49727e-06,-2.98784e-05,4.97683e-06,0
-1.21926e-05,2.46509e-05,-2.00345e-06,-0.000185415,1.05796e-05,-4.26941e-06,-1.86304e-05,8.77619e-06,0
-1.06026e-05,1.96176e-05,1.06243e-05,-0.000309976,2.68534e-06,-7.05465e-06,9.7157e-07,1.00974e-05,0
-1.33616e-05,1.299e-05,1.13726e-05,-0.000331751,-5.20884e-07,6.0018e-06,1.9775e-05,7.83377e-06,0
-1.8302e-05,6.56459e-06,5.0101e-06,-0.000322537,4.57284e-06,2.48035e-05,3.43229e-05,4.78811e-06,0
-2.09701e-05,4.16703e-06,2.32317e-06,-0.000325417,1.30769e-05,3.12856e-05,4.3241e-05,3.40342e-06,0
-2.18892e-05,5.45793e-06,6.37748e-06,-0.000290185,1.70938e-05,2.22881e-05,4.68691e-05,3.83079e-06,0
-2.24658e-05,6.5922e-06,1.12028e-05,-0.000175055,1.31491e-05,1.07434e-05,4.56722e-05,5.44972e-06,0
-2.33967e-05,7.71088e-06,1.19771e-05,-6.30033e-06,2.29684e-06,4.87205e-06,3.84265e-05,6.05778e-06,0
-2.55979e-05,8.87483e-06,8.74932e-06,0.000130027,-1.58535e-05,1.62462e-06,2.56279e-05,4.64914e-06,0
-2.68755e-05,7.81255e-06,4.42407e-06,0.000154641,-3.8289e-05,-3.06101e-06,1.22324e-05,2.84222e-06,0
-2.62535e-05,4.31496e-06,9.48739e-07,4.58433e-05,-5.56766e-05,-1.03354e-05,2.67479e-06,1.63812e-06,0
-2.53078e-05,1.26035e-06,-2.848e-06,-0.000130875,-5.44286e-05,-1.74661e-05,-4.66422e-06,-1.1171e-06,0
-2.54111e-05,1.29801e-06,-8.24153e-06,-0.000256453,-3.64068e-05,-2.03588e-05,-1.64141e-05,-5.76305e-06,0
-2.57909e-05,4.19511e-06,-1.37859e-05,-0.000227825,-1.6467e-05,-1.8647e-05,-3.3707e-05,-8.63049e-06,0
-2.81165e-05,7.81954e-06,-1.74642e-05,-6.49664e-05,9.46088e-06,-1.51226e-05,-4.74366e-05,-7.20619e-06,0
-3.29558e-05,9.64429e-06,-2.09414e-05,0.000109095,5.38947e-05,-1.48593e-05,-4.81733e-05,-2.76846e-06,0
-3.77567e-05,1.06258e-05,-2.19723e-05,0.000202475,9.3648e-05,-2.29604e-05,-3.54928e-05,2.78353e-06,0
-3.95703e-05,1.32075e-05,-1.81374e-05,0.000183241,0.000102985,-2.93102e-05,-1.74646e-05,5.30688e-06,0
-3.8551e-05,1.52814e-05,-9.54801e-06,6.6103e-05,8.68481e-05,-2.7375e-05,2.37558e-07,3.75566e-06,0
-3.47576e-05,1.81617e-05,-1.64455e-06,4.29393e-06,6.50344e-05,-2.39414e-05,1.64753e-05,1.49467e-06,0
-2.91166e-05,2.93479e-05,-1.41194e-06,6.86559e-05,5.40823e-05,-2.22892e-05,3.26698e-05,-7.46314e-09,0
-2.4567e-05,4.91934e-05,-1.6324e-06,0.000149488,4.72757e-05,-2.19986e-05,4.6936e-05,-6.87178e-07,0
-2.39315e-05,6.45014e-05,4.8058e-06,0.000194304,4.01978e-05,-2.49317e-05,5.50953e-05,-1.93289e-06,0
-2.67681e-05,6.16234e-05,1.40083e-05,0.000195695,3.21517e-05,-3.25681e-05,5.68747e-05,-3.91361e-06,0
-3.02934e-05,4.39064e-05,1.54688e-05,0.000145686,5.46909e-06,-4.34146e-05,5.50841e-05,-6.96638e-06,0
-3.21078e-05,2.3539e-05,8.66836e-06,8.41018e-05,-2.60783e-05,-5.156e-05,5.31334e-05,-9.84242e-06,0
-3.17854e-05,1.22154e-05,4.35441e-06,3.50536e-05,-2.74734e-05,-3.97153e-05,4.93767e-05,-9.02414e-06,0
-3.07311e-05,1.09469e-05,8.22031e-06,-4.58255e-05,-3.40316e-06,3.66822e-07,4.51698e-05,-5.75946e-06,0
-2.94037e-05,1.33456e-05,1.56961e-05,-9.41917e-05,2.65723e-05,3.26029e-05,4.20725e-05,-4.15587e-06,0
-2.7887e-05,1.3424e-05,1.83794e-05,-3.05017e-05,4.97554e-05,2.74295e-05,3.99157e-05,-4.87472e-06,0
-2.50273e-05,9.89296e-06,1.62852e-05,8.52566e-05,6.81594e-05,5.95742e-06,3.81599e-05,-5.98893e-06,0
-2.08385e-05,5.73959e-06,1.39199e-05,0.000138778,9.17582e-05,-3.74128e-06,3.34139e-05,-7.04605e-06,0
-1.83238e-05,1.64484e-06,1.32935e-05,0.000105149,0.000114468,1.47066e-06,2.45e-05,-7.77131e-06,0
-1.91254e-05,-2.59783e-06,1.43228e-05,4.35034e-05,0.00012017,7.74774e-06,1.52198e-05,-7.89665e-06,0
-2.19086e-05,-6.23829e-06,1.65297e-05,-2.03556e-05,0.000100535,7.09173e-06,9.77136e-06,-7.82804e-06,0
-2.5651e-05,-6.61712e-06,1.62467e-05,-9.78003e-05,6.05789e-05,3.03604e-07,7.28403e-06,-7.2769e-06,0
-2.87033e-05,-4.28485e-06,1.29619e-05,-0.000174412,1.32306e-05,-7.56289e-06,6.65592e-06,-5.38477e-06,0
-3.03434e-05,-3.29403e-06,9.98068e-06,-0.000199212,-2.34158e-05,-1.50189e-05,7.79021e-06,-2.34379e-06,0
-3.17871e-05,-4.83389e-06,8.92645e-06,-0.00016763,-4.04556e-05,-2.16664e-05,8.65593e-06,2.16058e-07,0
-3.39179e-05,-5.22468e-06,7.52617e-06,-0.000119268,-4.09021e-05,-2.52447e-05,4.14877e-06,1.50699e-06,0
-3.56547e-05,-4.12078e-06,3.88546e-06,-9.10258e-05,-1.76526e-05,-2.30741e-05,-1.06996e-05,1.96115e-06,0
-3.67757e-05,-3.35435e-06,-4.04491e-06,-8.89345e-05,3.43197e-05,-1.6956e-05,-3.41219e-05,2.52654e-06,0
-3.86666e-05,-3.90638e-06,-1.32622e-05,-0.000112538,7.33671e-05,-1.32013e-05,-5.10344e-05,3.4214e-06,0
-4.16041e-05,-4.40015e-06,-1.87119e-05,-0.000119007,9.08702e-05,-1.38964e-05,-5.36518e-05,4.50517e-06,0
-4.34394e-05,-1.80894e-06,-2.17019e-05,-6.41068e-05,0.000119929,-1.39721e-05,-4.7361e-05,6.18939e-06,0
-4.10406e-05,3.26884e-06,-2.01455e-05,3.86162e-05,0.000119344,-8.64917e-06,-3.31939e-05,6.67011e-06,0
-3.78755e-05,8.54935e-06,-1.34374e-05,0.000110756,6.01543e-05,-3.72168e-06,-1.38403e-05,5.12979e-06,0
-3.89064e-05,1.0471e-05,-9.92832e-06,9.62633e-05,-7.0216e-06,-6.8957e-06,7.75147e-06,3.83279e-06,0
-3.99573e-05,7.23573e-06,-1.25196e-05,5.49868e-05,-5.10541e-05,-1.47641e-05,2.71843e-05,2.57093e-06,0
-3.90475e-05,1.18797e-06,-1.60288e-05,4.5529e-05,-7.01894e-05,-1.77894e-05,3.87273e-05,2.15433e-06,0
-3.47199e-05,-3.32832e-06,-2.21823e-05,1.91395e-05,-5.50976e-05,-1.85159e-05,4.30726e-05,2.81114e-06,0
-1.90574e-05,-2.73582e-06,-2.944e-05,-9.4007e-05,-2.67419e-05,-2.04215e-05,4.11503e-05,2.27093e-06,0
4.32509e-06,2.4043e-06,-3.30399e-05,-0.000178195,-1.75676e-05,-1.90658e-05,3.71086e-05,1.17528e-06,0
1.75885e-05,8.39239e-06,-3.45946e-05,-0.00011796,-2.96974e-05,-1.44147e-05,3.27024e-05,1.19493e-06,0
1.09689e-05,1.05717e-05,-3.82539e-05,2.29853e-05,-4.68323e-05,-1.05864e-05,2.78e-05,1.94485e-06,0
-9.66638e-06,9.55318e-06,-4.06575e-05,0.000152318,-5.91032e-05,-8.61223e-06,2.20342e-05,2.49197e-07,0
-3.28013e-05,9.40827e-06,-3.53366e-05,0.000204566,-7.92036e-05,-8.66965e-06,1.80652e-05,-2.77814e-06,0
-5.10312e-05,1.39928e-05,-2.33011e-05,0.000162624,-0.000106894,-1.13572e-05,2.04924e-05,-4.02743e-06,0
-6.20597e-05,2.25201e-05,-1.15617e-05,6.41953e-05,-0.00011717,-1.33255e-05,2.4751e-05,-2.81971e-06,0
-6.55113e-05,2.79166e-05,-3.54678e-06,-3.01763e-05,-9.52114e-05,-1.00648e-05,2.50837e-05,-6.24434e-07,0
-6.23014e-05,2.78621e-05,2.09177e-06,-7.58727e-05,-5.61929e-05,-6.59757e-07,1.94674e-05,3.36847e-07,0
-5.45009e-05,2.45535e-05,4.07202e-06,-2.89877e-05,-1.55796e-05,7.68367e-06,1.22343e-05,2.22232e-07,0
-4.71299e-05,2.39073e-05,2.6156e-06,9.78751e-05,3.55918e-05,4.73632e-06,7.68888e-06,4.23203e-07,0
-4.53291e-05,3.00416e-05,-1.46907e-06,0.000186784,9.2379e-05,-7.94388e-06,5.92364e-06,1.2002e-06,0
-4.92356e-05,3.68626e-05,-9.99301e-06,0.000118102,0.000114345,-1.71893e-05,3.14961e-06,1.02139e-06,0
-5.2972e-05,3.55032e-05,-2.29997e-05,-4.02614e-05,8.28465e-05,-2.03643e-05,-1.53725e-06,-3.80438e-07,0
-5.41163e-05,2.55818e-05,-3.29749e-05,-0.000122487,2.18895e-05,-3.08369e-05,-5.33674e-06,-2.606e-06,0
-5.50773e-05,1.27044e-05,-3.45068e-05,-0.000130713,-3.45888e-05,-5.38425e-05,-5.80789e-06,-4.22432e-06,0
-5.46105e-05,1.15588e-06,-3.1711e-05,-0.000142755,-5.98226e-05,-7.00987e-05,-5.44226e-06,-3.18262e-06,0
-4.91973e-05,-5.2954e-06,-2.5802e-05,-0.000161774,-4.52962e-05,-6.1858e-05,-7.74576e-06,1.45381e-07,0
-4.16205e-05,-1.76929e-07,-1.35137e-05,-0.000131728,8.91322e-06,-4.18697e-05,-9.50242e-06,2.89851e-06,0
-3.7297e-05,9.54569e-06,2.30058e-06,-4.24184e-05,9.08645e-05,-2.74025e-05,-8.8803e-06,4.16044e-06,0
-3.51541e-05,8.45155e-06,1.79855e-05,2.69965e-05,0.000165131,-1.64847e-05,-6.27792e-06,3.40949e-06,0
-3.1034e-05,-4.48583e-06,1.84424e-05,-7.9863e-05,0.000183395,-9.03552e-06,-3.44976e-06,1.1664e-06,0
-2.95989e-05,-2.182e-05,-5.23711e-06,-0.000310651,0.000141705,-1.03126e-05,-1.8046e-06,-1.61335e-06,0
-3.38081e-05,-3.14309e-05,-3.49916e-05,-0.000407266,8.04791e-05,-1.68587e-05,6.60962e-07,-3.2709e-06,0
-3.61569e-05,-2.74563e-05,-5.07365e-05,-0.00029479,3.94699e-05,-2.0918e-05,3.79557e-06,-3.06518e-06,0
-3.15954e-05,-1.39915e-05,-4.75943e-05,-5.94443e-05,2.77281e-05,-1.65526e-05,5.54357e-06,-1.36325e-06,0
-2.001e-05,3.7619e-06,-3.30829e-05,0.000149926,2.7219e-05,-5.21244e-06,5.79408e-06,1.52953e-06,0
-7.859e-06,1.7522e-05,-1.19746e-05,0.000311159,3.03208e-05,3.36526e-06,7.18826e-06,2.08488e-06,0
-2.83099e-06,2.18331e-05,1.14896e-05,0.000429768,1.94495e-05,-2.40094e-07,1.08172e-05,1.39491e-06,0
-8.22135e-06,1.59932e-05,2.83053e-05,0.000426253,-1.44005e-05,-1.31908e-05,1.45766e-05,1.74475e-06,0
-1.887e-05,4.62314e-06,3.02901e-05,0.000330826,-4.55365e-05,-2.43513e-05,1.72386e-05,4.00473e-06,0
-2.8145e-05,-2.3347e-06,2.27048e-05,0.000213161,-3.99509e-05,-2.69149e-05,1.89008e-05,7.56757e-06,0
-3.4689e-05,-1.43415e-06,1.55623e-05,0.000101869,-1.14236e-06,-2.30509e-05,2.33607e-05,1.05223e-05,0
