ch1,ch2,ch3,ch4,ch5,ch6,ch7,ch8,class
-2.70048e-05,4.97186e-06,-1.02119e-05,-5.43575e-06,1.2922e-05,-4.22902e-07,1.61781e-05,3.96802e-06,0
-2.62452e-05,4.66945e-06,-1.37152e-05,-8.22642e-06,1.04234e-05,4.37374e-07,1.50772e-05,4.18707e-06,0
-2.70223e-05,5.12919e-06,-1.60427e-05,-8.38673e-06,8.29718e-06,-8.36104e-07,1.53936e-05,3.7622e-06,0
-2.97115e-05,5.61713e-06,-1.64756e-05,-4.72918e-06,6.66251e-06,-3.56985e-06,1.50242e-05,3.03203e-06,0
-3.23056e-05,5.86803e-06,-1.77158e-05,-2.25294e-07,6.2647e-06,-5.15985e-06,1.51346e-05,3.41044e-06,0
-3.20255e-05,7.0701e-06,-1.86031e-05,5.83278e-06,7.95165e-06,-6.86822e-06,1.68717e-05,2.57099e-06,0
-3.00023e-05,7.74838e-06,-1.83767e-05,1.13633e-05,1.09063e-05,-9.25586e-06,1.67516e-05,-2.83546e-07,0
-2.85573e-05,7.30341e-06,-1.82352e-05,1.2716e-05,1.15179e-05,-1.11235e-05,1.38713e-05,-2.96183e-06,0
-2.74122e-05,7.16803e-06,-1.70725e-05,1.25892e-05,9.76763e-06,-1.2815e-05,1.08736e-05,-3.02541e-06,0
-2.58598e-05,8.59144e-06,-1.32241e-05,1.08039e-05,1.02504e-05,-1.44275e-05,1.03985e-05,-4.34658e-07,0
-2.56728e-05,1.20362e-05,-9.6143e-06,1.70679e-06,1.13122e-05,-1.41481e-05,1.12563e-05,3.0514e-06,0
-2.74806e-05,1.60222e-05,-7.47993e-06,-1.77491e-05,1.19259e-05,-1.36168e-05,1.34428e-05,6.66765e-06,0
-2.94239e-05,1.90765e-05,-5.59439e-06,-4.01489e-05,1.28954e-05,-1.2592e-05,1.551e-05,8.13187e-06,0
-2.90527e-05,2.10786e-05,-4.69321e-06,-4.62829e-05,1.36736e-05,-1.04161e-05,1.59209e-05,7.29558e-06,0
-2.87593e-05,2.18794e-05,-5.29505e-06,-3.85382e-05,1.48551e-05,-9.46811e-06,1.53945e-05,7.50933e-06,0
-2.91971e-05,2.22484e-05,-6.4068e-06,-3.72517e-05,1.54517e-05,-9.45378e-06,1.44075e-05,7.68362e-06,0
-2.99392e-05,2.26954e-05,-6.42368e-06,-4.73883e-05,1.48495e-05,-9.88813e-06,1.4217e-05,7.07037e-06,0
-3.12665e-05,2.38625e-05,-6.22588e-06,-5.83464e-05,1.31632e-05,-9.84912e-06,1.37578e-05,4.93385e-06,0
-3.20713e-05,2.58108e-05,-5.968e-06,-5.45585e-05,1.17289e-05,-1.04051e-05,1.37997e-05,2.7076e-06,0
-3.21582e-05,2.58069e-05,-6.00383e-06,-3.20086e-05,1.23517e-05,-1.07295e-05,1.50636e-05,7.42582e-07,0
-3.18199e-05,2.3538e-05,-6.88354e-06,-1.40489e-06,1.55709e-05,-1.11382e-05,1.67278e-05,-3.37525e-07,0
-3.25686e-05,2.16876e-05,-7.76775e-06,2.26527e-05,1.80897e-05,-1.26426e-05,1.86435e-05,-1.39786e-07,0
-3.34984e-05,2.11754e-05,-7.22576e-06,3.40868e-05,1.82598e-05,-1.40156e-05,2.08297e-05,-9.61153e-08,0
-3.38889e-05,1.92406e-05,-5.05967e-06,3.43545e-05,1.77141e-05,-1.36611e-05,2.25545e-05,-6.28487e-07,0
-3.31742e-05,1.56973e-05,-3.09845e-06,2.72192e-05,1.66779e-05,-1.2593e-05,2.21548e-05,-9.78103e-07,0
-3.15616e-05,1.2525e-05,-4.40465e-06,1.53212e-05,1.38516e-05,-1.17378e-05,2.00424e-05,-4.86967e-07,0
-3.03679e-05,9.18052e-06,-8.4721e-06,3.17629e-06,1.01025e-05,-1.17534e-05,1.8445e-05,-9.90228e-07,0
-3.05689e-05,4.37324e-06,-1.07818e-05,-4.45559e-06,7.53835e-06,-1.12672e-05,1.86285e-05,-1.76022e-06,0
-3.13263e-05,1.08325e-06,-1.05246e-05,-6.44848e-06,6.69711e-06,-9.25104e-06,1.97642e-05,-1.69718e-06,0
-3.17668e-05,7.78736e-07,-1.14667e-05,-4.86132e-06,7.57738e-06,-8.59668e-06,1.90058e-05,-1.66871e-06,0
-3.16806e-05,2.23174e-06,-1.24457e-05,-3.05553e-06,7.50775e-06,-1.11992e-05,1.66198e-05,-4.00682e-06,0
-3.15242e-05,5.66152e-06,-1.05165e-05,-2.51332e-06,5.83502e-06,-1.36384e-05,1.44879e-05,-6.08597e-06,0
-3.05465e-05,7.69142e-06,-7.78488e-06,-2.37646e-06,4.85637e-06,-1.20797e-05,1.27511e-05,-4.52908e-06,0
-2.91461e-05,6.78516e-06,-6.81902e-06,-8.21004e-07,6.24368e-06,-8.74907e-06,9.1796e-06,-2.01112e-06,0
-2.79048e-05,5.30562e-06,-6.79929e-06,9.30137e-09,8.89349e-06,-7.97405e-06,-3.60535e-07,-2.67137e-07,0
-2.7569e-05,4.91061e-06,-8.04598e-06,-4.3623e-06,9.66135e-06,-9.9459e-06,-1.23628e-05,1.41359e-06,0
-2.73148e-05,5.47109e-06,-9.0762e-06,-1.193e-05,7.88825e-06,-1.2277e-05,-1.85673e-05,3.22701e-06,0
-2.5465e-05,6.49596e-06,-7.09446e-06,-1.84699e-05,5.70718e-06,-1.26769e-05,-1.60794e-05,4.89229e-06,0
-2.49385e-05,5.52414e-06,-5.99327e-06,-2.45992e-05,5.11705e-06,-9.90679e-06,-8.54369e-06,4.56721e-06,0
-2.44273e-05,3.39779e-06,-5.91121e-06,-2.99417e-05,6.01541e-06,-8.42546e-06,9.05087e-08,3.01765e-06,0
-2.27719e-05,1.64573e-06,-6.0397e-06,-3.03769e-05,7.12214e-06,-9.06846e-06,9.67966e-06,3.70083e-06,0
-2.16498e-05,-1.02443e-06,-5.88381e-06,-2.46263e-05,7.88517e-06,-9.99731e-06,1.7991e-05,6.12174e-06,0
-2.22093e-05,-3.77651e-06,-5.08931e-06,-1.58798e-05,6.40992e-06,-1.05216e-05,2.40307e-05,6.33496e-06,0
-2.44457e-05,-4.9341e-06,-5.25815e-06,-5.46677e-06,4.15197e-06,-1.16027e-05,2.78335e-05,3.31778e-06,0
-2.68287e-05,-2.93773e-06,-5.7589e-06,1.28779e-05,4.86764e-06,-1.33646e-05,2.85309e-05,1.45938e-07,0
-2.81978e-05,1.33025e-06,-5.53843e-06,4.23396e-05,7.72614e-06,-1.54547e-05,2.82698e-05,-1.51075e-06,0
-2.72973e-05,5.8514e-06,-4.34874e-06,6.70257e-05,1.01382e-05,-1.76923e-05,2.79509e-05,-3.48658e-06,0
-2.52878e-05,7.98654e-06,-2.80283e-06,6.8094e-05,1.08936e-05,-1.79894e-05,2.61105e-05,-4.74522e-06,0
-2.50201e-05,7.4496e-06,-1.19439e-06,4.69861e-05,1.04363e-05,-1.61098e-05,2.37629e-05,-4.09409e-06,0
-2.68251e-05,5.39346e-06,-1.88449e-06,1.88525e-05,1.05559e-05,-1.33605e-05,2.20319e-05,-3.7557e-06,0
-2.89373e-05,2.585e-06,-5.14914e-06,-5.55441e-06,1.41153e-05,-1.15301e-05,1.99482e-05,-4.45501e-06,0
-3.07398e-05,-1.26338e-06,-8.49031e-06,-2.13854e-05,1.93513e-05,-1.08711e-05,1.88287e-05,-4.72661e-06,0
-3.21362e-05,-3.67898e-06,-9.29924e-06,-2.77721e-05,2.2208e-05,-1.11743e-05,2.15942e-05,-3.25836e-06,0
-3.25548e-05,-1.71533e-06,-7.40088e-06,-2.8814e-05,2.23915e-05,-1.10831e-05,2.71578e-05,-1.95387e-06,0
-3.27215e-05,1.84532e-06,-4.41094e-06,-2.98392e-05,2.09501e-05,-1.09541e-05,2.99301e-05,-1.84127e-06,0
-3.35811e-05,3.70521e-06,-1.20576e-06,-3.11684e-05,1.84817e-05,-1.10456e-05,2.71107e-05,-7.71293e-07,0
-3.51195e-05,3.31361e-06,1.27885e-06,-3.17072e-05,1.62431e-05,-1.00116e-05,2.0927e-05,1.47134e-07,0
-3.54237e-05,3.19814e-06,2.88553e-06,-3.50143e-05,1.51436e-05,-8.37686e-06,1.51015e-05,-4.53581e-07,0
-3.45507e-05,4.23302e-06,3.23113e-06,-4.15962e-05,1.61551e-05,-8.48975e-06,8.97209e-06,9.28174e-07,0
-3.53369e-05,4.02736e-06,2.4163e-06,-4.59877e-05,1.84677e-05,-9.81065e-06,7.87813e-07,2.41711e-06,0
-3.57818e-05,3.99713e-06,1.06013e-06,-4.57485e-05,1.86293e-05,-8.88336e-06,-8.86309e-06,2.57178e-06,0
-3.41136e-05,6.46157e-06,6.68268e-07,-4.14642e-05,1.75398e-05,-8.04091e-06,-1.46919e-05,3.82633e-06,0
-3.21487e-05,1.09188e-05,3.3445e-07,-2.96125e-05,1.76785e-05,-8.50318e-06,-1.36927e-05,3.6391e-06,0
-3.00897e-05,1.72089e-05,-1.77428e-06,-1.18796e-05,1.88303e-05,-7.20838e-06,-8.17253e-06,2.57139e-06,0
-2.90352e-05,2.27664e-05,-4.14652e-06,2.87989e-06,1.86501e-05,-6.54168e-06,-6.26193e-07,3.72887e-06,0
-2.98688e-05,2.64358e-05,-6.26522e-06,1.03553e-05,1.56861e-05,-6.38489e-06,3.83958e-06,5.32979e-06,0
-3.04014e-05,3.01473e-05,-7.38962e-06,1.15984e-05,1.1855e-05,-5.59294e-06,4.63482e-06,5.41414e-06,0
-2.94002e-05,3.59132e-05,-8.25797e-06,1.09482e-05,1.02291e-05,-4.67473e-06,4.0876e-06,4.94393e-06,0
-2.90366e-05,4.42829e-05,-8.40981e-06,8.42897e-06,1.12896e-05,-3.4348e-06,4.42079e-06,5.85119e-06,0
-2.91406e-05,5.01748e-05,-7.15996e-06,2.70129e-06,1.22082e-05,-3.03653e-06,6.02977e-06,5.88578e-06,0
-3.01392e-05,4.86076e-05,-6.11188e-06,-3.302e-06,1.26799e-05,-2.91964e-06,6.98441e-06,2.94751e-06,0
-3.28185e-05,4.13926e-05,-5.69503e-06,-5.0177e-06,1.47221e-05,-3.35048e-06,6.96512e-06,1.19276e-08,0
-3.44862e-05,3.22603e-05,-5.63516e-06,-1.9361e-06,2.08984e-05,-5.30419e-06,8.09235e-06,-5.60131e-07,0
-3.30136e-05,2.42759e-05,-5.61032e-06,2.1792e-06,3.00402e-05,-7.54802e-06,1.02836e-05,5.02273e-07,0
-3.06725e-05,1.77387e-05,-5.30694e-06,3.90841e-06,3.59434e-05,-7.74939e-06,1.12191e-05,1.68396e-06,0
-3.05472e-05,1.33876e-05,-4.60909e-06,1.69271e-06,3.42679e-05,-7.15076e-06,1.12692e-05,1.95099e-06,0
-3.16545e-05,1.09944e-05,-4.57284e-06,-1.75856e-06,2.73576e-05,-7.12281e-06,1.13932e-05,-1.98583e-07,0
-3.23533e-05,7.30557e-06,-5.77262e-06,-3.37281e-06,2.1389e-05,-7.34209e-06,1.18926e-05,-3.58642e-06,0
-3.23646e-05,1.51091e-06,-7.78096e-06,-2.26003e-06,1.93851e-05,-8.17078e-06,1.2685e-05,-5.77001e-06,0
-3.32609e-05,-3.79901e-06,-9.5539e-06,-9.14625e-07,1.93374e-05,-9.27796e-06,1.43112e-05,-6.07313e-06,0
-3.56496e-05,-5.81141e-06,-1.15919e-05,-1.34517e-06,1.81188e-05,-9.49875e-06,1.56456e-05,-5.07978e-06,0
-3.8793e-05,-3.02457e-06,-1.33143e-05,-3.76204e-06,1.58573e-05,-9.47292e-06,1.4775e-05,-3.33261e-06,0
-4.03585e-05,2.65805e-06,-1.54207e-05,-6.24415e-06,1.32438e-05,-1.04327e-05,1.3086e-05,-2.85142e-06,0
-3.83436e-05,7.56405e-06,-1.76076e-05,-7.86901e-06,1.16189e-05,-1.17162e-05,1.247e-05,-3.48831e-06,0
-3.46933e-05,1.10135e-05,-1.73217e-05,-7.78992e-06,1.17255e-05,-1.28295e-05,1.16281e-05,-1.88307e-06,0
-3.18469e-05,1.34448e-05,-1.58561e-05,-5.17026e-06,1.19056e-05,-1.35348e-05,1.05707e-05,1.70686e-06,0
-2.95428e-05,1.56499e-05,-1.55633e-05,-2.54237e-06,1.16273e-05,-1.24602e-05,9.9826e-06,3.7498e-06,0
-2.90945e-05,1.68442e-05,-1.56493e-05,-9.63626e-07,1.15462e-05,-1.01666e-05,9.5649e-06,2.42269e-06,0
-2.96943e-05,1.78235e-05,-1.47874e-05,5.76509e-07,1.26611e-05,-8.64383e-06,1.0096e-05,9.24468e-09,0
-2.8814e-05,1.90519e-05,-1.34809e-05,4.53296e-06,1.35939e-05,-8.155e-06,1.10876e-05,-6.43298e-07,0
-2.79138e-05,1.9156e-05,-1.20847e-05,1.15894e-05,1.28209e-05,-7.29321e-06,1.06933e-05,8.28711e-07,0
-2.84719e-05,1.8861e-05,-1.1183e-05,1.86487e-05,1.22783e-05,-6.37551e-06,5.37923e-06,3.48854e-06,0
-2.96609e-05,1.83728e-05,-1.11991e-05,2.4064e-05,1.15027e-05,-6.31759e-06,-5.13914e-06,6.70819e-06,0
-2.90395e-05,1.61249e-05,-1.01939e-05,2.73223e-05,1.04214e-05,-6.17804e-06,-1.28532e-05,8.40269e-06,0
-2.72914e-05,1.3345e-05,-7.00052e-06,2.75413e-05,1.09822e-05,-5.81087e-06,-1.33061e-05,7.60991e-06,0
-2.74599e-05,1.23551e-05,-4.5343e-06,2.51074e-05,1.29041e-05,-4.64552e-06,-8.92622e-06,5.24088e-06,0
-2.78097e-05,1.48489e-05,-5.3342e-06,2.09904e-05,1.35612e-05,-2.95744e-06,-7.77649e-07,4.49815e-06,0
-2.70487e-05,1.74983e-05,-7.4789e-06,1.66522e-05,1.17075e-05,-3.47052e-06,9.65866e-06,5.46584e-06,0
-2.73427e-05,1.59647e-05,-7.8198e-06,1.22861e-05,9.60772e-06,-5.80527e-06,1.91282e-05,5.74878e-06,0
-2.92649e-05,1.17155e-05,-5.69254e-06,6.84438e-06,7.47324e-06,-7.25964e-06,2.46093e-05,4.90986e-06,0
-3.06259e-05,8.64856e-06,-3.08154e-06,-1.89898e-06,5.79685e-06,-7.0761e-06,2.60654e-05,3.25996e-06,0
-3.05066e-05,8.71546e-06,-2.10218e-06,-1.41587e-05,5.73735e-06,-6.70367e-06,2.46445e-05,2.23173e-06,0
-3.00577e-05,1.11518e-05,-3.25147e-06,-2.45005e-05,6.86541e-06,-8.05057e-06,2.26785e-05,1.54318e-06,0
-2.96461e-05,1.36489e-05,-6.00242e-06,-2.71735e-05,7.55886e-06,-9.88446e-06,2.17669e-05,1.42014e-06,0
-2.9407e-05,1.33515e-05,-7.32553e-06,-2.29614e-05,6.83529e-06,-1.08452e-05,2.13453e-05,1.6389e-06,0
-2.87338e-05,1.12943e-05,-6.17956e-06,-1.68592e-05,4.44961e-06,-1.11481e-05,2.22081e-05,2.2271e-06,0
-2.76563e-05,9.18023e-06,-5.99225e-06,-1.13396e-05,1.27562e-06,-1.15261e-05,2.50849e-05,2.84703e-06,0
-2.69746e-05,8.45915e-06,-8.1562e-06,-4.18504e-06,-1.38481e-06,-1.18828e-05,2.71093e-05,2.82876e-06,0
-2.84137e-05,7.82518e-06,-1.0432e-05,4.49944e-06,-3.46294e-06,-1.18825e-05,2.61479e-05,2.0411e-06,0
-3.14376e-05,5.6653e-06,-1.13506e-05,1.01979e-05,-3.21288e-06,-1.14488e-05,2.43802e-05,1.91934e-06,0
-3.18186e-05,3.89732e-06,-1.09657e-05,1.05721e-05,1.21559e-06,-1.0438e-05,2.29971e-05,3.53202e-06,0
-2.93673e-05,3.82873e-06,-1.08012e-05,6.6518e-06,7.99223e-06,-8.66101e-06,2.20061e-05,5.08314e-06,0
-2.76764e-05,3.94898e-06,-1.03194e-05,1.47989e-06,1.06944e-05,-7.64603e-06,2.02821e-05,4.76896e-06,0
-2.75613e-05,4.68115e-06,-9.27844e-06,-1.45407e-06,9.88553e-06,-8.96982e-06,1.80947e-05,3.59766e-06,0
-2.87523e-05,8.02563e-06,-9.05778e-06,5.54626e-06,1.05957e-05,-1.05331e-05,1.45671e-05,2.64858e-06,0
-2.92359e-05,1.29359e-05,-1.06473e-05,2.85606e-05,1.2312e-05,-9.82309e-06,9.21514e-06,2.27872e-06,0
-2.95424e-05,1.60988e-05,-1.1476e-05,5.13509e-05,1.37525e-05,-7.62386e-06,5.94296e-06,3.2994e-06,0
-3.00547e-05,1.63986e-05,-1.03258e-05,5.24131e-05,1.48322e-05,-6.09336e-06,4.46976e-06,5.07766e-06,0
-2.84834e-05,1.56273e-05,-8.87378e-06,3.40916e-05,1.53096e-05,-6.77401e-06,4.11728e-06,5.45568e-06,0
-2.6909e-05,1.53004e-05,-6.78381e-06,4.93264e-06,1.545e-05,-8.71532e-06,4.9325e-06,4.3851e-06,0
-2.71437e-05,1.48626e-05,-7.12091e-06,-2.66189e-05,1.5564e-05,-9.80933e-06,5.23258e-06,3.3728e-06,0
-2.86066e-05,1.3425e-05,-1.0084e-05,-4.84401e-05,1.38705e-05,-1.01987e-05,4.7794e-06,1.52335e-06,0
-3.0236e-05,1.24073e-05,-1.36632e-05,-5.52487e-05,1.20336e-05,-1.06129e-05,2.96237e-06,2.83162e-08,0
-3.02619e-05,1.27275e-05,-1.49033e-05,-4.89987e-05,9.9756e-06,-1.18626e-05,1.28573e-06,-8.03392e-07,0
-2.92357e-05,1.48337e-05,-1.2471e-05,-3.6836e-05,7.04074e-06,-1.24477e-05,1.56872e-06,-1.44337e-06,0
-2.83048e-05,1.84563e-05,-8.73899e-06,-2.651e-05,6.16269e-06,-1.10054e-05,1.52395e-06,-1.44944e-06,0
-2.81441e-05,2.08644e-05,-6.80299e-06,-2.25159e-05,7.03241e-06,-8.43838e-06,7.64913e-07,-9.23451e-07,0
-2.86982e-05,2.06001e-05,-6.99678e-06,-2.35954e-05,7.62787e-06,-6.53026e-06,7.31119e-07,-1.11869e-06,0
-2.92407e-05,1.87478e-05,-8.16828e-06,-2.78084e-05,6.81702e-06,-5.85155e-06,1.90656e-06,-1.90994e-06,0
-3.00556e-05,1.76209e-05,-9.17387e-06,-3.17235e-05,6.05242e-06,-5.30398e-06,4.71661e-06,-3.33137e-06,0
-3.03095e-05,1.86872e-05,-8.72719e-06,-2.90835e-05,5.76613e-06,-5.5533e-06,8.05054e-06,-4.81839e-06,0
-3.05374e-05,2.01269e-05,-8.41799e-06,-2.07868e-05,6.46571e-06,-7.88159e-06,1.03791e-05,-4.44653e-06,0
-3.12323e-05,2.00542e-05,-9.08633e-06,-1.49932e-05,8.10142e-06,-1.02563e-05,1.09829e-05,-3.56491e-06,0
-3.14722e-05,1.80164e-05,-9.3024e-06,-1.55109e-05,8.97751e-06,-9.37686e-06,1.03766e-05,-3.84044e-06,0
-3.11381e-05,1.61056e-05,-7.83121e-06,-1.77878e-05,9.29872e-06,-6.8468e-06,1.00147e-05,-4.11162e-06,0
-3.15216e-05,1.62345e-05,-5.90091e-06,-1.76793e-05,1.19009e-05,-5.65382e-06,1.07433e-05,-3.36044e-06,0
-3.23245e-05,1.6313e-05,-4.29381e-06,-1.62143e-05,1.64083e-05,-5.99674e-06,1.17572e-05,-2.6676e-06,0
-3.23681e-05,1.42351e-05,-3.47991e-06,-1.42696e-05,1.82271e-05,-7.0741e-06,1.23705e-05,-2.58926e-06,0
-3.17749e-05,1.20796e-05,-2.71129e-06,-1.01774e-05,1.64407e-05,-6.99738e-06,1.19142e-05,-1.87539e-06,0
-3.16173e-05,1.24228e-05,-2.25717e-06,-4.99536e-06,1.49584e-05,-6.7344e-06,9.75114e-06,-9.43708e-07,0
-3.09185e-05,1.4951e-05,-3.01812e-06,-1.92815e-06,1.56683e-05,-8.18599e-06,7.33768e-06,-1.64669e-06,0
-2.86385e-05,1.81324e-05,-5.50953e-06,-1.23039e-06,1.51818e-05,-1.01998e-05,7.66091e-06,-2.25924e-06,0
-2.77544e-05,2.01772e-05,-8.80435e-06,-1.52824e-06,1.47459e-05,-1.20204e-05,1.1235e-05,-1.75592e-06,0
-2.94825e-05,2.0605e-05,-1.18548e-05,-2.15611e-06,1.60997e-05,-1.26268e-05,1.58569e-05,-7.22411e-07,0
-3.01729e-05,1.87069e-05,-1.34959e-05,-1.44284e-06,1.75512e-05,-1.2291e-05,1.77418e-05,-5.57304e-07,0
-2.99226e-05,1.62629e-05,-1.28486e-05,1.03031e-06,1.80964e-05,-1.23745e-05,1.64197e-05,-4.92018e-07,0
-3.11445e-05,1.57535e-05,-1.25276e-05,3.83589e-06,1.65237e-05,-1.23232e-05,1.60609e-05,-1.27901e-06,0
-3.21427e-05,1.67354e-05,-1.24236e-05,4.50087e-06,1.44583e-05,-1.19077e-05,1.86238e-05,-1.47748e-06,0
-3.32221e-05,1.81238e-05,-1.21925e-05,2.96984e-06,1.25798e-05,-1.10248e-05,2.11e-05,-1.23628e-06,0
-3.39047e-05,1.84261e-05,-1.22976e-05,3.36391e-06,1.12723e-05,-9.45589e-06,2.14299e-05,-2.61201e-06,0
-3.30381e-05,1.86818e-05,-1.24042e-05,6.15937e-06,1.09213e-05,-8.9575e-06,2.11435e-05,-4.25114e-06,0
-3.1515e-05,1.75748e-05,-1.31371e-05,6.95511e-06,1.14967e-05,-9.80031e-06,2.09605e-05,-5.13414e-06,0
-3.07708e-05,1.5274e-05,-1.3925e-05,5.70714e-06,1.189e-05,-9.73896e-06,2.01879e-05,-4.61671e-06,0
-3.02223e-05,1.33415e-05,-1.34315e-05,3.35821e-06,9.78766e-06,-9.53222e-06,1.93452e-05,-4.74651e-06,0
-2.90757e-05,1.25592e-05,-1.10095e-05,-1.05578e-06,6.69772e-06,-1.00477e-05,1.88555e-05,-5.10635e-06,0
-2.95067e-05,1.27562e-05,-8.56671e-06,-4.83656e-06,5.921e-06,-9.44344e-06,1.61886e-05,-5.626e-06,0
-3.09016e-05,1.26941e-05,-7.49063e-06,-4.38186e-06,7.67789e-06,-7.67152e-06,1.26178e-05,-6.848e-06,0
-3.14632e-05,1.22095e-05,-6.78179e-06,-1.97534e-06,8.58276e-06,-6.11754e-06,1.11472e-05,-9.33601e-06,0
-3.15852e-05,1.13583e-05,-6.04427e-06,-1.37936e-06,8.78482e-06,-5.20512e-06,1.20371e-05,-1.02934e-05,0
-3.13626e-05,1.10655e-05,-5.0011e-06,-1.28053e-06,1.16415e-05,-5.23079e-06,1.3704e-05,-9.37522e-06,0
-3.0238e-05,1.14883e-05,-3.18393e-06,-8.60206e-07,1.65196e-05,-6.08115e-06,1.5173e-05,-8.89086e-06,0
-2.92348e-05,1.22577e-05,-1.49478e-06,-1.57026e-06,1.85272e-05,-6.96676e-06,1.60147e-05,-8.7924e-06,0
-2.8677e-05,1.04749e-05,-1.2246e-06,-4.22493e-06,1.6738e-05,-7.65349e-06,1.67528e-05,-7.09681e-06,0
-2.82761e-05,5.57494e-06,-1.68418e-06,-8.63208e-06,1.4393e-05,-8.11748e-06,1.7335e-05,-3.66923e-06,0
-2.87606e-05,1.66877e-07,-2.91312e-06,-1.33766e-05,1.25561e-05,-8.17743e-06,1.71281e-05,-2.01935e-06,0
-2.97136e-05,-1.65378e-06,-4.52456e-06,-1.44098e-05,1.09145e-05,-9.60547e-06,1.61771e-05,-1.63132e-06,0
-3.06575e-05,8.88185e-07,-5.73608e-06,-1.09509e-05,1.00114e-05,-1.29355e-05,1.34118e-05,3.20309e-07,0
-3.10619e-05,4.8265e-06,-7.32226e-06,-5.0678e-06,1.04162e-05,-1.33781e-05,1.0753e-05,3.1858e-06,0
-3.21382e-05,7.69646e-06,-8.01175e-06,2.35415e-06,1.20629e-05,-1.05378e-05,9.3367e-06,3.22244e-06,0
-3.36522e-05,7.91105e-06,-7.66226e-06,8.07219e-06,1.26752e-05,-7.6293e-06,1.01997e-05,2.33447e-06,0
-3.31287e-05,7.19911e-06,-8.65489e-06,8.76276e-06,1.22503e-05,-5.73057e-06,1.31023e-05,1.62433e-06,0
-3.14358e-05,6.65511e-06,-1.04669e-05,5.96492e-06,1.38611e-05,-6.47833e-06,1.46254e-05,4.6584e-07,0
-2.93185e-05,5.90712e-06,-1.02252e-05,2.98398e-06,1.69815e-05,-8.22242e-06,1.47574e-05,1.3835e-06,0
-2.85493e-05,5.57789e-06,-7.07255e-06,-1.19957e-06,1.89585e-05,-7.92009e-06,1.93483e-05,4.22844e-06,0
-2.94612e-05,5.41508e-06,-2.6922e-06,-1.06631e-05,1.82377e-05,-6.16683e-06,3.09542e-05,6.8567e-06,0
-2.98931e-05,5.99377e-06,3.58403e-06,-2.36973e-05,1.66936e-05,-5.47675e-06,4.26671e-05,8.00695e-06,0
-3.01737e-05,5.16766e-06,1.49443e-05,-3.41088e-05,1.66739e-05,-6.54928e-06,4.96144e-05,8.0313e-06,0
-3.03817e-05,3.42842e-06,3.16961e-05,-3.67315e-05,1.65284e-05,-8.53933e-06,5.06885e-05,8.788e-06,0
-3.15139e-05,2.72572e-06,4.79269e-05,-3.27529e-05,1.50222e-05,-1.13391e-05,4.45681e-05,1.10119e-05,0
-3.35645e-05,2.95149e-06,5.78515e-05,-2.70249e-05,1.38541e-05,-1.39415e-05,3.12839e-05,1.20291e-05,0
-3.45152e-05,5.02806e-06,5.54965e-05,-2.09626e-05,1.30572e-05,-1.49294e-05,1.44934e-05,1.05864e-05,0
-3.36813e-05,7.86639e-06,3.67297e-05,-1.56856e-05,1.17906e-05,-1.49463e-05,-9.18087e-07,8.54392e-06,0
-3.2772e-05,9.84372e-06,2.86454e-06,-1.1627e-05,1.11831e-05,-1.48007e-05,-1.2017e-05,8.47431e-06,0
-3.20241e-05,1.10607e-05,-3.88244e-05,-9.14576e-06,1.18613e-05,-1.4434e-05,-1.641e-05,1.0332e-05,0
-3.02627e-05,1.37503e-05,-7.64428e-05,-8.00013e-06,1.20195e-05,-1.39401e-05,-1.55844e-05,1.12438e-05,0
-2.83209e-05,1.67586e-05,-0.000100871,-7.5855e-06,1.16178e-05,-1.34114e-05,-1.34755e-05,1.16019e-05,0
-2.76036e-05,1.90059e-05,-0.000108039,-7.34701e-06,1.22256e-05,-1.2906e-05,-1.11289e-05,1.22102e-05,0
-2.81763e-05,2.07175e-05,-9.89288e-05,-6.58404e-06,1.25788e-05,-1.27869e-05,-6.83013e-06,1.17715e-05,0
-2.90961e-05,1.98284e-05,-7.93873e-05,-4.91971e-06,1.212e-05,-1.30601e-05,-1.61034e-06,1.10619e-05,0
-2.89316e-05,1.54241e-05,-5.99438e-05,-2.70045e-06,1.20915e-05,-1.36554e-05,2.60474e-06,1.17473e-05,0
-2.6989e-05,1.13968e-05,-4.57834e-05,-7.91388e-07,1.35204e-05,-1.43437e-05,5.42772e-06,1.26118e-05,0
-2.50296e-05,1.05387e-05,-3.55781e-05,6.86268e-07,1.63286e-05,-1.47138e-05,7.58452e-06,1.14042e-05,0
-2.50793e-05,1.10596e-05,-2.4556e-05,1.1951e-06,1.72075e-05,-1.3586e-05,1.0639e-05,9.19163e-06,0
-2.73789e-05,9.29932e-06,-1.27599e-05,1.83053e-06,1.56569e-05,-1.10425e-05,1.42331e-05,7.8617e-06,0
-2.91398e-05,5.59532e-06,-4.24409e-06,4.68086e-06,1.34903e-05,-9.60851e-06,1.6684e-05,7.61346e-06,0
-2.9121e-05,3.66301e-06,2.51869e-06,6.96979e-06,1.32071e-05,-8.98901e-06,1.75518e-05,8.89356e-06,0
-2.83155e-05,4.76049e-06,5.83878e-06,6.18696e-06,1.51857e-05,-8.82004e-06,1.72857e-05,8.94494e-06,0
-2.81327e-05,8.37882e-06,4.16282e-06,5.67438e-06,1.64608e-05,-9.84269e-06,1.53645e-05,7.16985e-06,0
-2.98327e-05,1.33677e-05,1.65031e-06,5.29578e-06,1.66574e-05,-1.0776e-05,1.06223e-05,5.45205e-06,0
-3.10444e-05,1.57795e-05,1.06992e-06,3.3679e-06,1.58863e-05,-1.09267e-05,5.95185e-06,4.66783e-06,0
-3.09661e-05,1.45165e-05,1.479e-06,2.2171e-06,1.48673e-05,-9.783e-06,5.62612e-06,5.44291e-06,0
-3.14326e-05,1.14968e-05,8.41294e-07,1.99233e-06,1.60624e-05,-8.45976e-06,8.51184e-06,5.62882e-06,0
-3.10458e-05,8.61776e-06,-9.68178e-07,2.04069e-06,1.96805e-05,-8.65823e-06,1.25551e-05,4.89656e-06,0
-3.03711e-05,7.71372e-06,-2.52174e-06,6.40599e-07,2.32766e-05,-9.68754e-06,1.52679e-05,3.72778e-06,0
-2.96014e-05,6.61083e-06,-1.92092e-06,-2.97807e-06,2.47614e-05,-1.1925e-05,1.73275e-05,2.96712e-06,0
-2.84515e-05,4.2883e-06,8.16304e-08,-7.55122e-06,2.5298e-05,-1.50607e-05,1.87089e-05,2.26967e-06,0
-2.85507e-05,2.96904e-06,2.07844e-06,-1.12281e-05,2.5446e-05,-1.66366e-05,1.85965e-05,5.82413e-07,0
-2.97793e-05,3.68254e-06,2.50941e-06,-1.45889e-05,2.24042e-05,-1.60742e-05,1.80281e-05,-4.226e-07,0
-3.15139e-05,3.24948e-06,9.76545e-07,-1.67103e-05,1.8359e-05,-1.56596e-05,1.70921e-05,7.22814e-07,0
-3.29852e-05,4.12676e-07,-7.8373e-07,-1.56353e-05,1.68258e-05,-1.51482e-05,1.68267e-05,3.14196e-06,0
-3.32558e-05,-3.08292e-06,-2.20662e-06,-1.27004e-05,1.8293e-05,-1.35003e-05,1.76486e-05,5.32987e-06,0
-3.14392e-05,-4.94365e-06,-2.42882e-06,-7.99758e-06,1.9569e-05,-1.28164e-05,1.79759e-05,6.89865e-06,0
-2.93327e-05,-5.31262e-06,-1.51332e-06,-2.78036e-07,1.89742e-05,-1.33229e-05,1.61035e-05,7.94725e-06,0
-2.93116e-05,-5.51624e-06,-1.22877e-06,1.0323e-05,1.77604e-05,-1.37896e-05,1.32947e-05,7.98348e-06,0
-3.11528e-05,-5.55303e-06,-2.49664e-06,1.88817e-05,1.76368e-05,-1.43694e-05,1.0934e-05,6.0729e-06,0
-3.27489e-05,-5.21342e-06,-2.95891e-06,2.14349e-05,1.89448e-05,-1.51061e-05,1.02545e-05,3.84557e-06,0
-3.2656e-05,-3.72336e-06,-1.42691e-06,1.80129e-05,1.8914e-05,-1.5369e-05,1.13382e-05,3.75618e-06,0
-3.17012e-05,-1.26961e-06,-6.66645e-08,1.09834e-05,1.69381e-05,-1.38426e-05,1.37186e-05,5.74524e-06,0
-3.13214e-05,1.38527e-06,-2.57915e-07,3.43486e-06,1.51634e-05,-1.15799e-05,1.49184e-05,7.11184e-06,0
-3.07697e-05,4.56111e-06,-1.94298e-07,-3.13903e-07,1.43369e-05,-1.0796e-05,1.34545e-05,4.33761e-06,0
-3.041e-05,7.93653e-06,4.2205e-07,-2.31977e-06,1.34682e-05,-9.54961e-06,1.30965e-05,3.40572e-07,0
-3.11048e-05,8.60268e-06,1.75461e-06,-4.17022e-06,1.19096e-05,-8.38128e-06,1.72523e-05,-2.20362e-06,0
-3.17196e-05,7.68323e-06,2.36002e-06,-3.66973e-06,1.02276e-05,-9.08616e-06,3.15139e-05,-3.31469e-06,0
-3.06778e-05,9.98038e-06,1.77886e-06,-2.22592e-06,9.45127e-06,-9.47836e-06,5.12193e-05,-2.3047e-06,0
-2.81637e-05,1.2725e-05,1.40138e-06,-5.04396e-07,8.72079e-06,-8.44806e-06,6.43338e-05,-1.98688e-06,0
-2.61803e-05,1.18185e-05,7.72286e-08,6.93726e-07,1.03397e-05,-7.03387e-06,6.74202e-05,-2.17562e-06,0
-2.60149e-05,9.0441e-06,-1.15674e-06,3.84298e-07,1.34668e-05,-6.74247e-06,6.00431e-05,-2.62938e-06,0
-2.86114e-05,5.47017e-06,-2.48141e-06,7.56917e-07,1.5413e-05,-7.40952e-06,4.64718e-05,-3.38464e-06,0
-3.005e-05,3.01318e-06,-3.44636e-06,5.18688e-08,1.50604e-05,-6.91392e-06,2.89359e-05,-4.14962e-06,0
-2.85954e-05,3.53456e-06,-3.19276e-06,-5.9683e-06,1.3473e-05,-4.74607e-06,7.68337e-06,-5.73318e-06,0
-2.80415e-05,6.79897e-06,-1.64999e-06,-1.30333e-05,1.20549e-05,-3.10186e-06,-1.66672e-05,-7.86495e-06,0
-2.83036e-05,1.09737e-05,4.97522e-08,-1.62609e-05,1.12439e-05,-3.9855e-06,-3.56092e-05,-8.71408e-06,0
-2.81154e-05,1.30669e-05,7.53015e-07,-1.5715e-05,1.16507e-05,-5.69302e-06,-4.16546e-05,-7.7008e-06,0
-2.7026e-05,1.22599e-05,4.48586e-07,-1.62221e-05,1.18827e-05,-6.45207e-06,-3.73984e-05,-7.74101e-06,0
-2.64192e-05,1.0939e-05,-1.16639e-06,-2.19965e-05,1.20234e-05,-7.16663e-06,-2.70271e-05,-8.97041e-06,0
-2.74559e-05,1.10006e-05,-4.05085e-06,-3.00633e-05,1.22719e-05,-8.44071e-06,-1.48322e-05,-1.03357e-05,0
-2.99732e-05,1.20951e-05,-6.84977e-06,-3.28414e-05,1.20777e-05,-9.43045e-06,-5.0359e-06,-1.0437e-05,0
-3.23849e-05,1.31456e-05,-7.67947e-06,-2.85526e-05,1.12066e-05,-9.59681e-06,2.03137e-08,-8.49435e-06,0
-3.26672e-05,1.36445e-05,-7.53981e-06,-2.25632e-05,1.14541e-05,-9.03948e-06,2.78824e-06,-4.86942e-06,0
-3.1607e-05,1.42678e-05,-7.26267e-06,-1.81208e-05,1.24106e-05,-7.85089e-06,3.78605e-06,-1.51419e-06,0
-3.05462e-05,1.59769e-05,-6.09589e-06,-1.22294e-05,1.28719e-05,-6.57683e-06,3.35973e-06,-3.31828e-07,0
-3.02493e-05,1.81474e-05,-4.71421e-06,-7.24166e-07,1.25749e-05,-5.62924e-06,2.86808e-06,-2.12902e-07,0
-3.06574e-05,1.96932e-05,-4.06856e-06,1.66634e-05,1.2254e-05,-6.11333e-06,4.65143e-06,5.44059e-07,0
-3.06715e-05,2.04661e-05,-3.31106e-06,3.46527e-05,1.3451e-05,-7.95843e-06,7.97243e-06,2.26889e-06,0
-2.93674e-05,2.12038e-05,-3.0728e-06,4.56469e-05,1.55407e-05,-9.47615e-06,1.15389e-05,3.70034e-06,0
-2.86004e-05,2.2008e-05,-4.38321e-06,4.58375e-05,1.75308e-05,-1.06295e-05,1.42835e-05,4.82902e-06,0
-2.88138e-05,2.14247e-05,-7.06701e-06,3.72024e-05,1.87838e-05,-1.01855e-05,1.38764e-05,5.57917e-06,0
-2.74836e-05,2.07745e-05,-8.58417e-06,2.38387e-05,1.97872e-05,-7.03252e-06,1.03692e-05,4.45293e-06,0
-2.45815e-05,2.09918e-05,-8.53967e-06,7.8821e-06,2.0563e-05,-4.5191e-06,7.14367e-06,2.50043e-06,0
-2.39999e-05,2.12481e-05,-8.03135e-06,-9.21927e-06,1.72764e-05,-5.88385e-06,5.03977e-06,1.41137e-06,0
-2.54943e-05,2.28171e-05,-7.77425e-06,-1.75721e-05,1.3447e-05,-8.34644e-06,1.95502e-06,6.26245e-07,0
-2.67863e-05,2.45145e-05,-1.01305e-05,-1.53801e-05,1.17153e-05,-8.8756e-06,-2.42573e-06,4.38494e-07,0
-2.78474e-05,2.37201e-05,-1.34557e-05,-1.24823e-05,9.31571e-06,-8.9084e-06,-5.30667e-06,9.16521e-07,0
-2.8532e-05,2.28175e-05,-1.50643e-05,-9.87435e-06,8.81396e-06,-7.70525e-06,-4.81061e-06,2.07628e-06,0
-2.8965e-05,2.39078e-05,-1.47149e-05,-8.91693e-06,1.06336e-05,-6.97417e-06,-5.38991e-07,3.53766e-06,0
-2.94593e-05,2.39858e-05,-1.40451e-05,-9.12676e-06,1.26402e-05,-7.44636e-06,6.0126e-06,2.81687e-06,0
-3.0168e-05,2.21394e-05,-1.45569e-05,-1.08824e-05,1.24843e-05,-8.24873e-06,1.22933e-05,3.16473e-07,0
-3.1534e-05,2.06819e-05,-1.57571e-05,-1.29097e-05,1.17303e-05,-8.41755e-06,1.74285e-05,-1.78978e-06,0
-3.22215e-05,2.08505e-05,-1.66735e-05,-1.49645e-05,1.03366e-05,-7.79136e-06,2.03588e-05,-3.47551e-06,0
-3.06786e-05,2.29951e-05,-1.74732e-05,-1.48394e-05,8.08526e-06,-7.93785e-06,2.29214e-05,-4.56465e-06,0
-2.94e-05,2.53607e-05,-1.87909e-05,-1.06807e-05,7.58036e-06,-7.63228e-06,2.52567e-05,-4.05772e-06,0
-2.94778e-05,2.67048e-05,-1.94923e-05,-5.61162e-06,8.70179e-06,-6.07783e-06,2.61153e-05,-2.40769e-06,0
-3.00518e-05,2.67994e-05,-1.85191e-05,3.03034e-07,9.75291e-06,-4.8458e-06,2.6717e-05,-6.05787e-07,0
-2.99153e-05,2.60316e-05,-1.68234e-05,6.33559e-06,9.0005e-06,-6.40385e-06,2.83407e-05,1.64483e-06,0
-2.98304e-05,2.6242e-05,-1.56158e-05,1.02562e-05,7.45426e-06,-1.01284e-05,2.93431e-05,3.14053e-06,0
-3.00393e-05,2.65152e-05,-1.4496e-05,8.9884e-06,7.11291e-06,-1.28707e-05,2.85078e-05,3.39537e-06,0
-3.00438e-05,2.56534e-05,-1.26861e-05,4.10958e-06,8.33245e-06,-1.20561e-05,2.61435e-05,4.39623e-06,0
-2.97327e-05,2.3934e-05,-1.20453e-05,-2.50625e-06,8.47943e-06,-9.60082e-06,2.34986e-05,6.46255e-06,0
-2.89875e-05,2.2668e-05,-1.28151e-05,-8.22454e-06,6.41764e-06,-8.54771e-06,1.9929e-05,7.14246e-06,0
-2.93908e-05,2.31222e-05,-1.23313e-05,-1.1717e-05,3.52483e-06,-9.59193e-06,1.64032e-05,5.45668e-06,0
-3.12095e-05,2.37871e-05,-1.03093e-05,-1.42998e-05,2.62798e-06,-1.03905e-05,1.48086e-05,3.45803e-06,0
-3.27429e-05,2.25808e-05,-8.87078e-06,-1.92174e-05,4.96758e-06,-1.08605e-05,1.37727e-05,3.66353e-06,0
-3.31387e-05,1.95216e-05,-8.64114e-06,-2.50431e-05,9.12582e-06,-1.12456e-05,1.23305e-05,3.85838e-06,0
-3.27607e-05,1.88281e-05,-9.14689e-06,-2.79299e-05,1.11803e-05,-1.08627e-05,1.07635e-05,2.31554e-06,0
-3.3382e-05,2.53249e-05,-1.08034e-05,-2.69103e-05,9.0535e-06,-1.03076e-05,1.09592e-05,-1.62496e-07,0
-3.44661e-05,3.53552e-05,-1.24872e-05,-2.29318e-05,7.56933e-06,-9.88538e-06,1.22134e-05,-3.45026e-06,0
-3.25893e-05,4.16306e-05,-1.22608e-05,-1.69279e-05,8.9126e-06,-8.95998e-06,1.02397e-05,-3.89479e-06,0
-3.1276e-05,4.34161e-05,-1.08926e-05,-1.15344e-05,1.19814e-05,-7.62242e-06,4.85324e-06,-2.3422e-06,0
-3.1759e-05,4.73872e-05,-9.02298e-06,-6.56687e-06,1.44377e-05,-7.28362e-06,7.90271e-07,-2.23712e-06,0
-3.11885e-05,5.4549e-05,-7.98711e-06,-3.39378e-06,1.69254e-05,-7.43563e-06,7.21717e-07,-3.51819e-06,0
-2.96151e-05,5.80565e-05,-8.51046e-06,-4.10272e-06,1.99732e-05,-8.18863e-06,1.7469e-06,-3.85659e-06,0
-2.84284e-05,5.48121e-05,-1.00939e-05,-6.29084e-06,2.07405e-05,-8.77186e-06,1.13539e-06,-2.8053e-06,0
-2.81133e-05,4.38687e-05,-1.13381e-05,-9.56809e-06,1.75975e-05,-1.01755e-05,2.59278e-06,-1.4384e-06,0
-2.84898e-05,2.74878e-05,-1.09104e-05,-1.04434e-05,1.3523e-05,-1.04526e-05,7.69171e-06,-5.25353e-07,0
-3.07049e-05,8.43717e-06,-1.14604e-05,-8.0469e-06,1.28206e-05,-7.60648e-06,1.24005e-05,-2.79732e-07,0
-3.15845e-05,-9.37228e-06,-1.16614e-05,-4.87261e-06,1.42083e-05,-6.34909e-06,1.57118e-05,4.36368e-07,0
-2.98689e-05,-2.22826e-05,-1.00082e-05,-5.14583e-06,1.55924e-05,-7.19673e-06,1.901e-05,-2.1508e-07,0
-2.76252e-05,-2.7911e-05,-6.81943e-06,-8.97333e-06,1.61693e-05,-8.0356e-06,2.09923e-05,-2.24892e-06,0
-2.65931e-05,-2.78934e-05,-4.01827e-06,-1.33892e-05,1.6391e-05,-8.94097e-06,2.08543e-05,-4.59343e-06,0
-2.67555e-05,-2.59389e-05,-2.32361e-06,-1.54249e-05,1.7052e-05,-9.34103e-06,2.01716e-05,-6.58598e-06,0
-2.75846e-05,-2.24796e-05,-2.98495e-07,-1.31749e-05,1.86982e-05,-8.09578e-06,1.86597e-05,-6.86856e-06,0
-2.92574e-05,-1.80722e-05,1.46282e-06,-1.16586e-05,1.88979e-05,-6.10547e-06,1.34183e-05,-4.91094e-06,0
-3.05304e-05,-1.38822e-05,1.10479e-06,-1.76282e-05,1.71456e-05,-5.71673e-06,4.48116e-06,-2.45269e-06,0
-3.09244e-05,-1.09952e-05,-6.76526e-07,-3.03886e-05,1.57676e-05,-7.18513e-06,-2.84867e-06,-1.13273e-06,0
-3.11858e-05,-8.36309e-06,-1.53354e-06,-4.21639e-05,1.41965e-05,-9.10886e-06,-3.49638e-06,-6.71261e-07,0
-3.16036e-05,-4.795e-06,-2.36838e-06,-4.60224e-05,1.03235e-05,-1.11423e-05,-3.21268e-07,-6.44529e-07,0
-3.17446e-05,3.75914e-07,-4.00707e-06,-4.39996e-05,5.90856e-06,-1.31213e-05,2.74973e-07,-1.80213e-06,0
-3.08993e-05,5.23917e-06,-5.30002e-06,-4.19805e-05,4.18128e-06,-1.41445e-05,-1.00873e-06,-4.24275e-06,0
-2.93694e-05,8.02597e-06,-4.1666e-06,-3.95472e-05,5.61981e-06,-1.39174e-05,2.22403e-06,-4.99526e-06,0
-2.9779e-05,9.74942e-06,-3.04635e-06,-3.00805e-05,9.40036e-06,-1.31932e-05,1.14845e-05,-2.96086e-06,0
-3.01769e-05,1.43426e-05,-3.12319e-06,-6.7794e-06,1.22621e-05,-1.26666e-05,2.18566e-05,-8.95918e-07,0
-2.91127e-05,2.00432e-05,-4.3103e-06,2.47813e-05,1.3571e-05,-1.2589e-05,3.1657e-05,1.41355e-06,0
-2.83845e-05,2.2016e-05,-6.34559e-06,5.10057e-05,1.48052e-05,-1.34789e-05,4.04274e-05,4.4182e-06,0
-2.95783e-05,2.03282e-05,-6.2964e-06,6.4528e-05,1.5595e-05,-1.36933e-05,4.6063e-05,5.45368e-06,0
-3.20937e-05,1.70564e-05,-4.00075e-06,6.17956e-05,1.5621e-05,-1.3779e-05,4.77599e-05,4.80841e-06,0
-3.30508e-05,1.46144e-05,-1.87954e-06,4.95894e-05,1.34507e-05,-1.45478e-05,4.74341e-05,4.2317e-06,0
-3.30321e-05,1.36729e-05,-1.98702e-06,3.44732e-05,6.33527e-06,-1.45996e-05,4.67082e-05,4.95403e-06,0
-3.37893e-05,1.40732e-05,-5.56709e-06,1.82108e-05,-2.00395e-06,-1.42546e-05,4.41805e-05,5.85796e-06,0
-3.48249e-05,1.44355e-05,-9.00997e-06,7.99934e-06,-6.82552e-06,-1.42732e-05,3.95244e-05,7.19608e-06,0
-3.4781e-05,1.42993e-05,-1.02911e-05,3.75223e-06,-7.26088e-06,-1.4819e-05,3.36902e-05,7.50495e-06,0
-3.402e-05,1.56935e-05,-1.04213e-05,2.72178e-06,-4.91803e-06,-1.4321e-05,2.95949e-05,7.51382e-06,0
-3.38192e-05,1.86806e-05,-1.02701e-05,-4.01875e-07,-3.12986e-06,-1.32961e-05,2.65647e-05,9.06439e-06,0
-3.42011e-05,2.11241e-05,-1.07432e-05,-5.20249e-06,-4.69517e-07,-1.23768e-05,2.3962e-05,1.05637e-05,0
-3.38922e-05,2.21915e-05,-1.01884e-05,-4.37428e-06,5.06969e-06,-1.09309e-05,2.07663e-05,1.01694e-05,0
-3.30557e-05,2.21465e-05,-8.9143e-06,9.0442e-06,1.21379e-05,-9.32963e-06,1.51043e-05,8.09327e-06,0
-3.22051e-05,2.16917e-05,-7.29831e-06,3.0692e-05,1.70166e-05,-8.39606e-06,9.01645e-06,6.86855e-06,0
-3.10575e-05,1.99655e-05,-5.93973e-06,4.71759e-05,1.85145e-05,-8.02324e-06,5.00013e-06,6.28976e-06,0
-3.07875e-05,1.65245e-05,-5.00768e-06,5.32326e-05,2.12152e-05,-7.71693e-06,3.38031e-06,6.417e-06,0
-3.19629e-05,1.29063e-05,-3.87072e-06,4.8638e-05,2.97961e-05,-7.48179e-06,2.14619e-06,7.00349e-06,0
-3.21377e-05,1.05191e-05,-2.96973e-06,3.72548e-05,4.14394e-05,-6.12497e-06,1.88825e-06,7.36236e-06,0
-2.92314e-05,9.99442e-06,-2.04313e-06,2.34673e-05,4.75792e-05,-3.25656e-06,2.38148e-06,7.19903e-06,0
-2.56929e-05,1.09903e-05,-4.61083e-07,9.44541e-06,4.33906e-05,-6.52103e-07,1.74613e-06,6.86716e-06,0
-2.39104e-05,1.08867e-05,1.18225e-06,-5.69508e-06,3.29342e-05,-4.32429e-07,-6.10144e-07,5.35749e-06,0
-2.26009e-05,7.98027e-06,1.78526e-06,-2.116e-05,2.44496e-05,-1.44242e-06,-2.98538e-06,3.03916e-06,0
-2.27713e-05,4.73999e-06,-9.16932e-07,-3.27655e-05,2.11069e-05,-1.56627e-06,-5.59198e-06,7.91772e-07,0
-2.53644e-05,3.89843e-06,-4.78483e-06,-3.59893e-05,2.04332e-05,-1.84588e-06,-8.49637e-06,-1.65235e-06,0
-2.71748e-05,4.66129e-06,-5.38647e-06,-3.57907e-05,1.88647e-05,-4.07495e-06,-1.04578e-05,-3.77797e-06,0
-2.73116e-05,5.90143e-06,-3.88531e-06,-3.64569e-05,1.55149e-05,-6.51184e-06,-1.12255e-05,-4.22496e-06,0
-2.8292e-05,7.87542e-06,-3.65103e-06,-3.55738e-05,1.25476e-05,-6.20708e-06,-8.82922e-06,-3.66622e-06,0
-3.00646e-05,1.02856e-05,-5.36033e-06,-3.08372e-05,1.36512e-05,-5.16628e-06,-4.7754e-06,-1.19013e-06,0
-3.21105e-05,1.39486e-05,-5.68789e-06,-2.05189e-05,1.70561e-05,-6.04974e-06,-9.08178e-07,1.25061e-06,0
-3.20955e-05,1.83814e-05,-4.36417e-06,-1.07886e-05,1.69523e-05,-8.05342e-06,2.61343e-06,-7.24276e-07,0
-3.04429e-05,2.23097e-05,-4.11161e-06,-5.97009e-06,1.47277e-05,-8.4559e-06,4.21166e-06,-4.23808e-06,0
-2.95689e-05,2.2645e-05,-5.4765e-06,-2.63583e-06,1.3506e-05,-7.8144e-06,5.74362e-06,-6.92427e-06,0
-2.87049e-05,1.75526e-05,-7.64233e-06,9.44169e-07,1.2612e-05,-8.44231e-06,8.92789e-06,-7.36648e-06,0
-3.00966e-05,1.13273e-05,-9.0154e-06,4.05112e-06,1.11618e-05,-9.90305e-06,1.24972e-05,-6.56445e-06,0
-3.14959e-05,6.77164e-06,-9.64923e-06,3.47136e-06,1.02322e-05,-1.13718e-05,1.42674e-05,-5.31938e-06,0
-3.08656e-05,2.79645e-06,-1.0159e-05,5.59543e-07,1.13234e-05,-1.05303e-05,1.54304e-05,-4.26817e-06,0
-3.04414e-05,-2.85146e-06,-1.07016e-05,-1.44413e-07,1.35096e-05,-8.85524e-06,1.59152e-05,-3.68661e-06,0
-3.19413e-05,-9.1988e-06,-1.13123e-05,6.64564e-07,1.44144e-05,-9.13177e-06,1.59027e-05,-2.36117e-06,0
-3.41821e-05,-1.44927e-05,-1.18203e-05,-5.30407e-07,1.29897e-05,-1.05591e-05,1.59968e-05,-2.12644e-06,0
-3.50579e-05,-1.8549e-05,-1.3664e-05,-4.13373e-06,1.15997e-05,-1.15643e-05,1.61329e-05,-2.91798e-06,0
-3.49541e-05,-2.03787e-05,-1.83859e-05,-8.76296e-06,1.06942e-05,-1.27683e-05,1.67406e-05,-3.00125e-06,0
-3.5285e-05,-1.89994e-05,-2.50019e-05,-1.44294e-05,1.07994e-05,-1.34671e-05,1.61126e-05,-1.7841e-06,0
-3.60969e-05,-1.5011e-05,-2.87793e-05,-1.90103e-05,1.26307e-05,-1.21253e-05,1.3278e-05,-1.01399e-06,0
-3.5471e-05,-1.08608e-05,-2.84626e-05,-2.14536e-05,1.50483e-05,-1.00737e-05,9.43678e-06,-8.86717e-07,0
-3.38675e-05,-8.26245e-06,-2.70106e-05,-2.30707e-05,1.66491e-05,-9.74739e-06,8.82846e-06,-7.88051e-07,0
-3.23423e-05,-6.80825e-06,-2.64063e-05,-2.70254e-05,1.59309e-05,-1.13733e-05,1.16148e-05,-8.90439e-07,0
-3.1657e-05,-5.35184e-06,-2.6757e-05,-3.22255e-05,1.36517e-05,-1.23329e-05,1.52252e-05,-1.64346e-08,0
-3.13531e-05,-3.85894e-06,-2.57682e-05,-3.50803e-05,1.18259e-05,-1.17885e-05,1.7259e-05,1.96101e-06,0
-3.10512e-05,-2.46628e-06,-2.24393e-05,-3.42577e-05,1.0456e-05,-1.07604e-05,1.73635e-05,3.23792e-06,0
-3.02462e-05,-1.99133e-06,-1.9984e-05,-3.29695e-05,9.5649e-06,-1.01911e-05,1.58862e-05,4.25964e-06,0
-2.92717e-05,-2.57175e-06,-1.8996e-05,-3.36716e-05,1.13013e-05,-9.91189e-06,1.4331e-05,6.89639e-06,0
-2.92149e-05,-2.48868e-06,-1.66688e-05,-3.64856e-05,1.37062e-05,-1.1627e-05,1.3926e-05,9.32757e-06,0
-2.95582e-05,-1.49863e-06,-1.47788e-05,-3.94742e-05,1.36989e-05,-1.31548e-05,1.42367e-05,1.00282e-05,0
-2.84514e-05,-5.90761e-07,-1.30124e-05,-3.66642e-05,1.25651e-05,-1.32898e-05,1.4154e-05,9.27982e-06,0
-2.62105e-05,1.49658e-06,-1.00247e-05,-2.62622e-05,1.23039e-05,-1.4575e-05,1.41973e-05,8.44713e-06,0
-2.50412e-05,6.22877e-06,-6.90268e-06,-1.35812e-05,1.03049e-05,-1.45194e-05,1.47398e-05,6.70891e-06,0
-2.68242e-05,9.77473e-06,-4.15553e-06,-6.48336e-06,7.46971e-06,-1.31455e-05,1.46582e-05,4.13884e-06,0
-2.9728e-05,9.14399e-06,-3.97073e-06,-2.75093e-06,6.35533e-06,-1.32138e-05,1.35586e-05,1.70162e-06,0
-3.01074e-05,7.30612e-06,-6.419e-06,9.94579e-07,6.16513e-06,-1.26827e-05,1.20196e-05,-7.50055e-07,0
-2.78965e-05,8.39785e-06,-8.52333e-06,4.13128e-06,6.48134e-06,-1.10179e-05,1.11202e-05,-1.49556e-06,0
-2.62126e-05,1.17745e-05,-1.09322e-05,7.51361e-06,7.21592e-06,-1.03807e-05,9.74657e-06,-1.91652e-06,0
-2.7263e-05,1.34923e-05,-1.52345e-05,7.19832e-06,8.91594e-06,-1.07718e-05,7.85402e-06,-3.76178e-06,0
-2.85302e-05,1.34707e-05,-1.79787e-05,5.05963e-06,1.06605e-05,-1.06128e-05,6.43517e-06,-4.02603e-06,0
-2.88995e-05,1.22482e-05,-1.77486e-05,3.60777e-06,1.12871e-05,-8.92244e-06,6.60863e-06,-1.94213e-06,0
-2.81069e-05,1.10897e-05,-1.63535e-05,2.93153e-06,1.13956e-05,-7.07306e-06,8.28893e-06,-1.71692e-06,0
-2.76845e-05,1.11641e-05,-1.41877e-05,4.22096e-06,1.17049e-05,-7.24592e-06,1.04789e-05,-2.67642e-06,0
-2.85241e-05,1.3475e-05,-1.12742e-05,6.15707e-06,1.11592e-05,-8.89163e-06,1.16037e-05,-1.11008e-06,0
-2.99764e-05,1.65284e-05,-8.33233e-06,7.41755e-06,9.66495e-06,-9.82288e-06,1.11134e-05,2.42685e-06,0
-3.10154e-05,1.7777e-05,-7.3215e-06,7.22673e-06,8.48948e-06,-8.96613e-06,1.00129e-05,4.52928e-06,0
-3.16211e-05,1.67522e-05,-8.25776e-06,6.79648e-06,8.85087e-06,-7.76536e-06,8.85256e-06,4.53517e-06,0
-3.25009e-05,1.51607e-05,-8.65165e-06,6.51443e-06,9.66542e-06,-7.98374e-06,8.53612e-06,4.52809e-06,0
-3.34483e-05,1.55078e-05,-7.63729e-06,7.07374e-06,9.46162e-06,-9.73448e-06,9.75289e-06,4.0909e-06,0
-3.41921e-05,1.62649e-05,-5.89299e-06,8.61865e-06,8.32309e-06,-1.1906e-05,1.13666e-05,3.04839e-06,0
-3.40503e-05,1.49135e-05,-4.35912e-06,1.02266e-05,7.51246e-06,-1.16846e-05,1.18539e-05,2.46437e-06,0
-3.28316e-05,1.09082e-05,-3.66989e-06,1.09704e-05,7.35582e-06,-9.61883e-06,1.11779e-05,2.52898e-06,0
-3.08546e-05,6.40206e-06,-3.41823e-06,1.35713e-05,7.15006e-06,-8.26957e-06,9.7648e-06,3.02187e-06,0
-2.98042e-05,4.20367e-06,-3.10203e-06,1.80334e-05,6.91432e-06,-8.67523e-06,8.39367e-06,3.04438e-06,0
-2.98811e-05,4.73671e-06,-3.18033e-06,1.83913e-05,6.955e-06,-1.08911e-05,7.70169e-06,1.55023e-06,0
-3.0275e-05,5.93376e-06,-3.28744e-06,1.42604e-05,7.53438e-06,-1.24795e-05,8.21601e-06,5.92702e-07,0
-2.95243e-05,7.91478e-06,-1.50876e-06,1.61903e-05,7.95082e-06,-1.15598e-05,1.15648e-05,1.33911e-06,0
-2.81577e-05,1.09718e-05,1.4428e-06,3.25059e-05,8.52175e-06,-1.00554e-05,1.56323e-05,9.46888e-07,0
-2.79297e-05,1.35442e-05,3.95011e-06,5.02192e-05,9.4835e-06,-9.93157e-06,1.61972e-05,-4.3689e-07,0
-2.87924e-05,1.48795e-05,3.43754e-06,5.36407e-05,1.15505e-05,-1.11355e-05,1.39719e-05,2.44575e-06,0
-2.98578e-05,1.4881e-05,-5.98987e-07,4.35058e-05,1.33935e-05,-1.08135e-05,1.21418e-05,5.89158e-06,0
-3.04015e-05,1.54268e-05,-1.87034e-06,2.65484e-05,1.46726e-05,-9.39167e-06,1.07974e-05,5.77204e-06,0
-3.05884e-05,1.77009e-05,-3.9314e-07,9.81484e-06,1.64169e-05,-9.93157e-06,8.66532e-06,5.70327e-06,0
-3.05426e-05,1.85537e-05,-8.50083e-07,-6.99624e-06,1.73217e-05,-1.03723e-05,7.03592e-06,3.71021e-06,0
-3.03083e-05,1.8626e-05,-1.73374e-06,-2.69908e-05,1.78196e-05,-8.13248e-06,6.92041e-06,2.045e-06,0
-2.97913e-05,1.83135e-05,-5.40166e-07,-4.70551e-05,1.66889e-05,-5.54263e-06,7.81742e-06,2.86708e-06,0
-2.82585e-05,1.79886e-05,1.10454e-06,-5.66618e-05,1.50971e-05,-5.24861e-06,1.03336e-05,4.92845e-06,0
-2.77566e-05,1.78845e-05,-5.25249e-07,-5.41362e-05,1.56609e-05,-5.981e-06,1.27689e-05,7.1519e-06,0
-2.86386e-05,1.87667e-05,-5.09217e-06,-4.80165e-05,1.86257e-05,-6.38501e-06,1.41583e-05,7.15622e-06,0
-2.91227e-05,1.98185e-05,-7.89015e-06,-4.58551e-05,2.09176e-05,-6.81852e-06,1.43797e-05,4.69905e-06,0
-2.83942e-05,1.9572e-05,-6.56833e-06,-4.91881e-05,1.98043e-05,-6.65053e-06,1.34841e-05,1.82393e-06,0
-2.72093e-05,1.95254e-05,-4.01844e-06,-5.16617e-05,1.59546e-05,-5.28055e-06,1.34861e-05,6.1982e-07,0
-2.67198e-05,1.99919e-05,-4.09262e-06,-4.99285e-05,1.14431e-05,-3.43398e-06,1.47062e-05,5.50045e-07,0
-2.74444e-05,2.11636e-05,-6.6856e-06,-4.22709e-05,8.63778e-06,-2.55193e-06,1.52283e-05,8.89968e-07,0
-2.90499e-05,2.24048e-05,-9.3692e-06,-3.14794e-05,6.8096e-06,-3.81043e-06,1.44313e-05,1.14284e-06,0
-2.9237e-05,2.46749e-05,-1.09128e-05,-2.24442e-05,5.96119e-06,-5.67311e-06,1.38329e-05,8.69074e-07,0
-2.77496e-05,2.73911e-05,-1.10638e-05,-1.95201e-05,7.43513e-06,-5.59368e-06,1.29359e-05,-7.17451e-07,0
-2.61761e-05,2.90394e-05,-1.0298e-05,-2.10116e-05,1.06613e-05,-3.94711e-06,1.2362e-05,-2.45935e-06,0
-2.68393e-05,2.72171e-05,-8.21852e-06,-2.20109e-05,1.3309e-05,-3.44592e-06,1.33073e-05,-1.48334e-06,0
-2.90585e-05,2.47685e-05,-5.62289e-06,-1.9781e-05,1.44485e-05,-3.4175e-06,1.57683e-05,1.01007e-06,0
-3.11763e-05,2.51382e-05,-4.21706e-06,-1.52105e-05,1.38902e-05,-1.6663e-06,2.12541e-05,1.12341e-06,0
-3.25445e-05,2.67393e-05,-3.95948e-06,-1.11392e-05,1.31909e-05,2.40474e-07,3.30492e-05,-1.16795e-06,0
-3.38974e-05,2.72423e-05,-4.65675e-06,-7.27558e-06,1.27758e-05,1.66561e-07,4.6263e-05,-4.47764e-06,0
-3.59589e-05,2.6498e-05,-4.98298e-06,-3.71239e-06,1.23852e-05,-5.23477e-07,5.32727e-05,-6.43123e-06,0
-3.70305e-05,2.36049e-05,-4.24053e-06,-2.85286e-06,1.2172e-05,-1.0228e-06,5.13848e-05,-7.21003e-06,0
-3.58088e-05,2.1017e-05,-3.26772e-06,-4.50085e-06,1.24601e-05,-2.03836e-06,4.16654e-05,-8.71559e-06,0
-3.32138e-05,2.01363e-05,-4.76429e-06,-8.13239e-06,1.29665e-05,-1.74968e-06,2.7715e-05,-9.58582e-06,0
-3.041e-05,1.82607e-05,-8.7134e-06,-1.25031e-05,1.3549e-05,-5.32813e-07,1.14938e-05,-7.31908e-06,0
-2.90926e-05,1.76686e-05,-1.17826e-05,-1.19697e-05,1.27646e-05,-7.63531e-07,-4.00551e-06,-5.1919e-06,0
-3.00413e-05,1.81402e-05,-1.24081e-05,-7.19523e-06,1.07434e-05,-1.00323e-06,-1.51302e-05,-5.80458e-06,0
-3.06198e-05,1.8438e-05,-9.33908e-06,-2.28323e-07,1.06133e-05,-1.56836e-06,-2.01009e-05,-6.56177e-06,0
-3.01376e-05,1.98175e-05,-7.91566e-06,9.47979e-06,1.06649e-05,-3.06476e-06,-2.08669e-05,-6.53913e-06,0
-3.06948e-05,1.98752e-05,-9.31993e-06,1.88671e-05,1.15073e-05,-4.85927e-06,-1.7033e-05,-4.80329e-06,0
-3.20341e-05,1.82106e-05,-9.98418e-06,2.3721e-05,1.52382e-05,-6.35466e-06,-1.04133e-05,-3.83669e-06,0
-3.25958e-05,1.74375e-05,-1.08109e-05,2.22665e-05,2.02398e-05,-7.0849e-06,-4.3503e-06,-3.71508e-06,0
-3.13574e-05,1.67165e-05,-1.03065e-05,1.58955e-05,2.0574e-05,-8.43325e-06,7.91551e-07,-4.12154e-06,0
-2.8762e-05,1.5751e-05,-9.03974e-06,8.75637e-06,1.8124e-05,-9.8662e-06,4.45048e-06,-5.10875e-06,0
-2.75044e-05,1.36368e-05,-8.68137e-06,4.25693e-06,1.84949e-05,-1.07362e-05,5.43237e-06,-5.67172e-06,0
-2.83144e-05,1.02979e-05,-1.05456e-05,2.58453e-06,2.08176e-05,-1.11572e-05,4.3626e-06,-6.21217e-06,0
-2.84676e-05,7.98055e-06,-1.25058e-05,1.78789e-06,2.18646e-05,-1.16699e-05,4.32479e-06,-6.30167e-06,0
-2.7579e-05,7.3229e-06,-1.27448e-05,1.9193e-06,2.00126e-05,-1.28327e-05,6.79817e-06,-5.55281e-06,0
-2.7357e-05,8.30978e-06,-1.1631e-05,3.88183e-06,1.70447e-05,-1.44673e-05,1.12099e-05,-3.90949e-06,0
-2.76377e-05,1.15767e-05,-1.03164e-05,7.87334e-06,1.4279e-05,-1.62243e-05,1.36996e-05,-2.32305e-06,0
-2.85132e-05,1.47801e-05,-1.03309e-05,9.99398e-06,1.37848e-05,-1.75634e-05,1.356e-05,-1.90213e-06,0
-2.94233e-05,1.53338e-05,-1.09822e-05,5.88793e-06,1.46658e-05,-1.8393e-05,1.3031e-05,-2.21742e-06,0
-2.94765e-05,1.48522e-05,-1.19616e-05,-1.62585e-07,1.51681e-05,-1.87536e-05,1.3218e-05,-1.32384e-06,0
-2.87099e-05,1.64797e-05,-1.39512e-05,-1.79669e-06,1.5316e-05,-1.8898e-05,1.29443e-05,-3.5935e-07,0
-2.83972e-05,1.93545e-05,-1.59774e-05,1.1782e-06,1.59616e-05,-1.99478e-05,1.15307e-05,-1.1986e-08,0
-2.86375e-05,2.06511e-05,-1.52852e-05,6.68734e-06,1.74641e-05,-2.11534e-05,1.09134e-05,1.29108e-06,0
-2.8299e-05,2.08043e-05,-1.48977e-05,1.15694e-05,1.76184e-05,-2.04967e-05,1.29592e-05,2.24688e-06,0
-2.75134e-05,2.18669e-05,-1.5516e-05,1.34802e-05,1.41373e-05,-1.83248e-05,1.6939e-05,1.1553e-06,0
-2.7866e-05,2.26064e-05,-1.29917e-05,1.31561e-05,9.9173e-06,-1.63693e-05,2.17515e-05,-4.34858e-07,0
-2.83109e-05,2.12135e-05,-7.50476e-06,1.19961e-05,7.95326e-06,-1.56137e-05,2.63529e-05,-1.59891e-06,0
-2.82488e-05,1.81973e-05,-1.1874e-06,9.12116e-06,7.69454e-06,-1.56066e-05,2.84621e-05,-1.19973e-06,0
-2.79295e-05,1.56236e-05,5.97083e-06,3.37328e-06,7.48419e-06,-1.45602e-05,2.76727e-05,-3.23663e-07,0
-2.80449e-05,1.39869e-05,1.77649e-05,-4.15375e-06,8.70614e-06,-1.39551e-05,2.81638e-05,7.68991e-07,0
-2.85651e-05,1.17197e-05,3.47921e-05,-1.40031e-05,1.12206e-05,-1.43449e-05,3.18247e-05,2.84638e-06,0
-2.8454e-05,1.10018e-05,5.45905e-05,-1.78885e-05,1.11505e-05,-1.38432e-05,3.39049e-05,3.4804e-06,0
-3.03947e-05,1.16116e-05,7.23812e-05,-1.18764e-05,1.14825e-05,-1.32096e-05,3.21434e-05,3.28556e-06,0
-3.13798e-05,1.22676e-05,7.6311e-05,-4.50343e-06,1.42067e-05,-1.31753e-05,2.80054e-05,3.28257e-06,0
-3.12052e-05,1.38775e-05,6.12259e-05,-9.29912e-07,1.68137e-05,-1.37134e-05,2.43485e-05,4.28745e-06,0
-3.20565e-05,1.68813e-05,2.92722e-05,-2.40969e-06,1.78654e-05,-1.30554e-05,2.07504e-05,4.9493e-06,0
-3.25645e-05,1.92406e-05,-1.13375e-05,-6.98509e-06,1.77569e-05,-1.27302e-05,1.82973e-05,4.98383e-06,0
-3.15405e-05,1.73381e-05,-4.9438e-05,-1.14197e-05,1.73686e-05,-1.3322e-05,1.6786e-05,5.95631e-06,0
-3.04798e-05,1.26205e-05,-7.73428e-05,-1.45349e-05,1.77552e-05,-1.3644e-05,1.45803e-05,7.33982e-06,0
-3.08376e-05,9.80909e-06,-8.96748e-05,-1.64733e-05,1.90201e-05,-1.40263e-05,1.23022e-05,8.56086e-06,0
-3.09988e-05,1.09482e-05,-8.51342e-05,-1.61737e-05,1.96931e-05,-1.37379e-05,1.05495e-05,8.02363e-06,0
-3.11639e-05,1.275e-05,-6.98545e-05,-1.40444e-05,1.96828e-05,-1.24147e-05,9.09326e-06,6.19724e-06,0
-3.09949e-05,1.25599e-05,-5.39238e-05,-8.52388e-06,1.83817e-05,-1.16742e-05,8.15853e-06,3.65376e-06,0
-3.07143e-05,1.20193e-05,-4.19319e-05,-1.85993e-07,1.52186e-05,-1.32118e-05,1.02357e-05,2.44694e-07,0
-3.11215e-05,1.43759e-05,-3.28057e-05,6.78455e-06,1.20798e-05,-1.51526e-05,1.33818e-05,-2.46541e-06,0
-3.27827e-05,1.89708e-05,-2.37076e-05,9.1231e-06,1.14539e-05,-1.57759e-05,1.46465e-05,-4.32019e-06,0
-3.34507e-05,2.04699e-05,-1.56302e-05,6.95464e-06,1.30215e-05,-1.52734e-05,1.44061e-05,-6.47112e-06,0
-3.24169e-05,1.68239e-05,-1.00226e-05,4.26113e-06,1.33234e-05,-1.51239e-05,1.36267e-05,-7.82781e-06,0
-3.14853e-05,1.14882e-05,-5.34977e-06,3.11956e-06,1.07631e-05,-1.52421e-05,1.24144e-05,-7.60544e-06,0
-3.17532e-05,8.48798e-06,-9.33944e-07,3.15651e-06,8.89908e-06,-1.51516e-05,1.33098e-05,-7.02345e-06,0
-3.22519e-05,8.25042e-06,1.07486e-06,5.29166e-06,1.04375e-05,-1.53597e-05,1.49426e-05,-7.55197e-06,0
-3.16301e-05,7.90423e-06,8.85443e-07,1.31409e-05,1.17075e-05,-1.62327e-05,1.39066e-05,-9.53987e-06,0
-3.22492e-05,6.59402e-06,4.3107e-07,2.47807e-05,1.06803e-05,-1.70236e-05,1.02894e-05,-1.00817e-05,0
-3.42929e-05,5.91137e-06,1.59519e-06,2.99877e-05,1.01882e-05,-1.80871e-05,6.31872e-06,-8.27712e-06,0
-3.58784e-05,6.25504e-06,3.69192e-06,2.23855e-05,1.12377e-05,-1.84631e-05,5.5447e-06,-6.37338e-06,0
-3.57203e-05,7.92405e-06,2.80952e-06,9.18914e-06,1.32645e-05,-1.69794e-05,8.3365e-06,-6.08072e-06,0
-3.24247e-05,1.10573e-05,-1.09474e-07,1.24086e-06,1.45435e-05,-1.44022e-05,1.04951e-05,-5.17223e-06,0
-2.89881e-05,1.24107e-05,-1.83529e-06,-2.63016e-06,1.40917e-05,-1.214e-05,9.66889e-06,-3.46548e-06,0
-2.70808e-05,1.12629e-05,-3.66517e-06,-7.91793e-06,1.1431e-05,-1.19328e-05,8.84294e-06,-2.47567e-06,0
-2.72761e-05,1.14266e-05,-5.89529e-06,-1.20502e-05,7.98668e-06,-1.22472e-05,8.6251e-06,-1.96334e-06,0
-2.80672e-05,1.2473e-05,-7.05696e-06,-1.50196e-05,5.68856e-06,-1.32037e-05,8.11178e-06,-2.52446e-06,0
-2.73167e-05,1.15659e-05,-6.70153e-06,-1.82002e-05,4.52867e-06,-1.44708e-05,7.45439e-06,-1.13952e-06,0
-2.71448e-05,1.01041e-05,-6.22981e-06,-2.15967e-05,4.03344e-06,-1.43858e-05,7.10094e-06,9.20815e-07,0
-2.78159e-05,1.17244e-05,-7.52575e-06,-2.60136e-05,3.51448e-06,-1.36883e-05,6.87692e-06,1.40984e-06,0
-2.8508e-05,1.40823e-05,-1.16219e-05,-3.21756e-05,4.02405e-06,-1.36219e-05,6.26235e-06,-5.53763e-07,0
-2.87389e-05,1.4792e-05,-1.77072e-05,-3.63388e-05,4.48968e-06,-1.39089e-05,5.30466e-06,-3.08332e-06,0
-2.99832e-05,1.32199e-05,-2.30981e-05,-3.52593e-05,5.1886e-06,-1.54132e-05,5.52158e-06,-3.64821e-06,0
-3.1596e-05,1.0104e-05,-2.612e-05,-3.11973e-05,5.89584e-06,-1.70021e-05,7.83163e-06,-3.58179e-06,0
-3.19995e-05,7.43421e-06,-2.54806e-05,-2.55389e-05,7.20639e-06,-1.58248e-05,1.08416e-05,-4.13005e-06,0
-3.11144e-05,6.02059e-06,-2.23633e-05,-1.89481e-05,9.69726e-06,-1.22487e-05,1.40897e-05,-5.93822e-06,0
-3.0939e-05,5.12976e-06,-1.87025e-05,-1.10907e-05,1.21344e-05,-9.17329e-06,1.70915e-05,-6.91337e-06,0
-3.21757e-05,5.39745e-06,-1.59957e-05,-3.76805e-06,1.28874e-05,-8.25306e-06,1.90503e-05,-6.34408e-06,0
-3.34286e-05,7.66619e-06,-1.51984e-05,9.30805e-07,1.15093e-05,-8.37957e-06,1.93615e-05,-5.06263e-06,0
-3.3568e-05,9.72278e-06,-1.59605e-05,2.4276e-06,1.07377e-05,-8.91185e-06,1.88179e-05,-3.5958e-06,0
-3.23379e-05,1.17995e-05,-1.60606e-05,2.65074e-06,1.25385e-05,-8.99626e-06,1.82032e-05,-1.89738e-06,0
-3.01158e-05,1.32607e-05,-1.48646e-05,3.6419e-06,1.60709e-05,-8.48733e-06,1.74061e-05,-8.19428e-07,0
-2.92457e-05,1.36117e-05,-1.31404e-05,4.81202e-06,1.73226e-05,-7.4596e-06,1.6083e-05,-7.04785e-07,0
-3.10425e-05,1.36608e-05,-1.14764e-05,3.19894e-06,1.49625e-05,-7.89543e-06,1.37572e-05,-3.89028e-07,0
-3.21985e-05,1.43881e-05,-9.96411e-06,-2.94757e-06,1.20454e-05,-9.49407e-06,1.02514e-05,2.2941e-06,0
-3.09424e-05,1.62762e-05,-8.91066e-06,-9.11762e-06,1.23231e-05,-9.56972e-06,8.85388e-06,4.01107e-06,0
-2.96411e-05,1.79298e-05,-8.73614e-06,-9.6398e-06,1.51788e-05,-8.66916e-06,1.13078e-05,2.69752e-06,0
-2.92136e-05,1.96268e-05,-7.7639e-06,-4.00363e-06,1.81397e-05,-7.2447e-06,9.75834e-06,-8.28863e-08,0
-2.81127e-05,2.19593e-05,-6.33314e-06,3.41574e-06,1.8955e-05,-5.1803e-06,-1.62852e-06,-2.42456e-06,0
-2.82477e-05,2.2116e-05,-5.39778e-06,7.36216e-06,1.94518e-05,-4.44373e-06,-1.3784e-05,-3.53202e-06,0
-2.94156e-05,2.03119e-05,-3.42374e-06,4.13952e-06,1.8773e-05,-3.40931e-06,-1.88112e-05,-4.3887e-06,0
-2.88603e-05,1.85989e-05,-7.87406e-07,-4.22725e-06,1.71253e-05,-8.50922e-07,-1.85308e-05,-2.89665e-06,0
-2.71732e-05,1.97114e-05,4.92237e-07,-8.1124e-06,1.63421e-05,-6.15876e-07,-1.35888e-05,-3.08147e-07,0
-2.58029e-05,2.31452e-05,9.8358e-07,-7.72531e-06,1.54947e-05,-2.42105e-06,-5.4659e-06,1.69279e-06,0
-2.47523e-05,2.46459e-05,1.11372e-06,-6.98538e-06,1.63162e-05,-3.68883e-06,5.18272e-06,3.22423e-06,0
