ch1,ch2,ch3,ch4,ch5,ch6,ch7,ch8,class
-3.89845e-05,-2.224e-05,-9.87785e-06,8.74752e-06,-1.30819e-06,-1.48539e-05,1.82051e-05,1.43086e-06,0
-3.42306e-05,-1.95614e-05,-1.07405e-05,1.44246e-05,-4.01947e-06,-3.77692e-05,1.90908e-05,3.49803e-06,0
-3.24492e-05,-1.63463e-05,-1.02552e-05,8.8076e-06,-3.72074e-06,-4.6821e-05,2.04691e-05,6.44106e-06,0
-3.15959e-05,-1.1053e-05,-8.1624e-06,6.90153e-07,-3.39898e-06,-3.71662e-05,2.31226e-05,6.87679e-06,0
-3.114e-05,-2.76805e-06,-5.76059e-06,-5.43e-06,-4.07205e-06,-2.48051e-05,2.58137e-05,6.08514e-06,0
-3.12046e-05,5.97654e-06,-4.74471e-06,-8.79648e-06,-2.5813e-06,-2.31641e-05,2.86549e-05,7.21393e-06,0
-3.12419e-05,1.26769e-05,-4.93072e-06,-6.48999e-06,1.59418e-06,-2.82463e-05,3.56842e-05,8.74786e-06,0
-3.04057e-05,1.73972e-05,-6.07583e-06,1.58517e-06,6.13904e-06,-2.88722e-05,4.9139e-05,7.89547e-06,0
-2.88551e-05,2.1358e-05,-6.96207e-06,1.25147e-05,8.53968e-06,-2.46728e-05,6.27043e-05,5.07104e-06,0
-2.80654e-05,2.52475e-05,-6.84901e-06,1.94274e-05,8.12247e-06,-2.34902e-05,6.94236e-05,2.90943e-06,0
-2.85626e-05,2.69656e-05,-5.47709e-06,1.99148e-05,9.36194e-06,-2.61938e-05,6.6453e-05,1.83276e-06,0
-2.91573e-05,2.84778e-05,-3.9805e-06,1.06977e-05,1.68882e-05,-2.60112e-05,5.6246e-05,8.02081e-07,0
-2.88082e-05,3.1006e-05,-3.49147e-06,-7.41086e-06,2.7353e-05,-2.28199e-05,4.24837e-05,3.83949e-07,0
-2.81797e-05,3.23621e-05,-3.47841e-06,-2.8471e-05,3.2265e-05,-2.05739e-05,2.68923e-05,2.24868e-06,0
-2.85118e-05,3.10496e-05,-2.75023e-06,-4.21555e-05,2.9751e-05,-2.01318e-05,9.56872e-06,5.80585e-06,0
-2.96639e-05,3.03135e-05,-9.60476e-07,-4.2727e-05,2.48681e-05,-1.92635e-05,-1.24931e-05,7.68274e-06,0
-2.9793e-05,3.21631e-05,-7.31193e-07,-2.83628e-05,2.19118e-05,-1.91769e-05,-4.27981e-05,6.61685e-06,0
-2.88098e-05,3.46756e-05,-1.74976e-06,2.85176e-07,2.04743e-05,-1.92586e-05,-7.0319e-05,5.63506e-06,0
-2.71113e-05,3.60155e-05,-3.66073e-07,2.77711e-05,2.07001e-05,-1.92106e-05,-7.95423e-05,5.3803e-06,0
-2.54626e-05,3.56957e-05,2.23095e-06,3.44146e-05,2.1651e-05,-1.96736e-05,-7.03649e-05,6.2534e-06,0
-2.52504e-05,3.41317e-05,4.65322e-06,2.00613e-05,2.12657e-05,-1.96119e-05,-4.66286e-05,7.87187e-06,0
-2.67362e-05,3.33244e-05,5.57642e-06,1.46928e-06,1.83944e-05,-1.99211e-05,-1.53703e-05,6.32916e-06,0
-2.87131e-05,3.24722e-05,4.2118e-06,-8.42158e-06,1.60639e-05,-1.94996e-05,1.09563e-05,2.66905e-06,0
-2.9759e-05,2.93967e-05,2.00766e-06,-1.36117e-05,1.66893e-05,-1.83434e-05,2.33233e-05,3.14498e-07,0
-2.88336e-05,2.79288e-05,7.79468e-07,-1.86196e-05,1.83552e-05,-1.8664e-05,1.76955e-05,-7.34695e-07,0
-2.78784e-05,2.84883e-05,4.89734e-07,-2.24756e-05,1.74214e-05,-1.93103e-05,5.59121e-06,-1.07402e-06,0
-2.71958e-05,2.78719e-05,5.88547e-07,-2.57726e-05,1.40483e-05,-1.87053e-05,1.28043e-06,-1.08779e-07,0
-2.65432e-05,2.75463e-05,1.13408e-06,-3.04278e-05,1.10962e-05,-1.69329e-05,4.9792e-06,4.03287e-07,0
-2.70848e-05,2.92356e-05,9.29885e-07,-3.44545e-05,9.41287e-06,-1.48394e-05,7.67004e-06,-7.80056e-07,0
-2.64107e-05,3.14266e-05,6.8107e-07,-3.46233e-05,7.33643e-06,-1.5569e-05,7.54082e-06,-2.6464e-06,0
-2.54004e-05,3.3416e-05,6.46023e-07,-3.31313e-05,5.33154e-06,-1.80647e-05,1.03795e-05,-3.91482e-06,0
-2.53353e-05,3.29208e-05,-2.30785e-08,-3.07144e-05,4.93106e-06,-1.96355e-05,1.57245e-05,-3.76959e-06,0
-2.59066e-05,2.9958e-05,-2.33857e-06,-2.66343e-05,5.19133e-06,-1.99034e-05,2.33487e-05,-3.74559e-06,0
-2.61248e-05,2.62504e-05,-4.54478e-06,-2.22078e-05,6.46366e-06,-1.95865e-05,3.05153e-05,-5.03661e-06,0
-2.60015e-05,2.24503e-05,-5.73029e-06,-1.97375e-05,7.32526e-06,-1.8659e-05,3.47745e-05,-6.19687e-06,0
-2.60969e-05,1.91427e-05,-7.2574e-06,-1.82879e-05,7.00994e-06,-1.71656e-05,3.63281e-05,-6.03881e-06,0
-2.61559e-05,1.78692e-05,-1.00472e-05,-1.74727e-05,6.77106e-06,-1.58085e-05,3.73346e-05,-5.38324e-06,0
-2.64665e-05,1.85568e-05,-1.16984e-05,-1.70686e-05,9.01475e-06,-1.47704e-05,3.73256e-05,-4.58882e-06,0
-2.72168e-05,1.77329e-05,-1.14497e-05,-1.84492e-05,1.23358e-05,-1.46639e-05,3.49435e-05,-3.92064e-06,0
-2.83895e-05,1.45547e-05,-1.14007e-05,-1.9436e-05,1.38735e-05,-1.51801e-05,3.05244e-05,-2.73924e-06,0
-2.96962e-05,1.15887e-05,-1.261e-05,-1.82073e-05,1.36399e-05,-1.5719e-05,2.4031e-05,-9.57182e-07,0
-3.10393e-05,9.38771e-06,-1.48513e-05,-1.41429e-05,1.47213e-05,-1.51048e-05,1.60804e-05,9.55191e-08,0
-3.1877e-05,6.21531e-06,-1.66607e-05,-8.26619e-06,1.63195e-05,-1.35248e-05,7.71921e-06,1.21221e-06,0
-3.24454e-05,3.47568e-06,-1.76967e-05,-2.67432e-06,1.57817e-05,-1.25234e-05,3.07721e-06,2.42219e-06,0
-3.28001e-05,3.12708e-06,-1.72315e-05,1.60075e-06,1.49093e-05,-1.17064e-05,5.99475e-06,2.05365e-06,0
-3.39942e-05,3.59113e-06,-1.58052e-05,2.60325e-06,1.44197e-05,-1.18394e-05,1.33905e-05,1.26795e-06,0
-3.53316e-05,4.0674e-06,-1.57489e-05,-3.68127e-07,1.53391e-05,-1.27257e-05,1.86787e-05,6.41117e-08,0
-3.54827e-05,5.11885e-06,-1.74695e-05,-3.68637e-06,1.93765e-05,-1.18251e-05,1.87976e-05,-6.28728e-07,0
-3.48392e-05,5.27324e-06,-1.82775e-05,-6.49649e-06,2.17748e-05,-9.67598e-06,1.72699e-05,-5.36548e-07,0
-3.29184e-05,3.88078e-06,-1.87905e-05,-1.28233e-05,1.71932e-05,-8.3691e-06,1.73457e-05,-1.52894e-06,0
-2.91138e-05,3.24174e-06,-1.85743e-05,-1.97535e-05,1.09871e-05,-7.22326e-06,1.70017e-05,-1.00086e-06,0
-2.65215e-05,4.27839e-06,-1.74484e-05,-2.17071e-05,9.22479e-06,-5.3579e-06,1.64816e-05,1.23194e-06,0
-2.72126e-05,6.79636e-06,-1.71928e-05,-1.74956e-05,1.14523e-05,-1.31553e-06,1.55546e-05,3.52836e-06,0
-2.86538e-05,1.13337e-05,-1.75219e-05,-1.27646e-05,1.48458e-05,1.55706e-06,1.39531e-05,4.51806e-06,0
-2.83472e-05,1.35102e-05,-1.75536e-05,-1.14639e-05,1.86904e-05,5.80608e-07,1.0924e-05,3.55794e-06,0
-2.73881e-05,1.22381e-05,-1.6922e-05,-1.20786e-05,2.06815e-05,5.88547e-06,9.03368e-06,3.07387e-06,0
-2.78687e-05,1.13036e-05,-1.69975e-05,-1.32993e-05,1.84307e-05,1.66419e-05,1.02594e-05,5.41734e-06,0
-2.87225e-05,1.15076e-05,-1.73739e-05,-1.30574e-05,1.45765e-05,1.97329e-05,1.16059e-05,8.28247e-06,0
-2.98567e-05,1.20071e-05,-1.82819e-05,-1.289e-05,1.23726e-05,1.20219e-05,1.20874e-05,8.29053e-06,0
-3.08811e-05,1.23953e-05,-1.89826e-05,-1.34514e-05,1.25858e-05,2.1391e-06,1.32344e-05,7.11146e-06,0
-3.05489e-05,1.20336e-05,-1.76035e-05,-1.20652e-05,1.21313e-05,-1.67647e-06,1.55058e-05,6.3948e-06,0
-2.93027e-05,1.09209e-05,-1.49798e-05,-9.50066e-06,9.52389e-06,3.77947e-07,1.73099e-05,6.21914e-06,0
-2.84514e-05,1.03643e-05,-1.38999e-05,-1.01123e-05,6.40668e-06,4.82596e-06,1.7604e-05,5.65951e-06,0
-2.90069e-05,1.22332e-05,-1.5298e-05,-1.4123e-05,5.25342e-06,7.76817e-06,1.68706e-05,4.42254e-06,0
-2.99448e-05,2.15079e-05,-1.79691e-05,-1.54319e-05,5.93717e-06,7.33082e-06,1.64078e-05,3.64752e-06,0
-2.96081e-05,3.8556e-05,-2.06634e-05,-1.26607e-05,6.05144e-06,5.39653e-06,1.59466e-05,3.52801e-06,0
-2.87505e-05,5.25812e-05,-2.1864e-05,-8.32708e-06,4.74622e-06,4.45851e-06,1.55911e-05,3.60578e-06,0
-2.87677e-05,5.31117e-05,-2.15417e-05,-3.90664e-06,3.62339e-06,4.97113e-06,1.49357e-05,3.79358e-06,0
-2.93417e-05,4.23271e-05,-2.07505e-05,-4.66957e-08,3.9656e-06,7.23933e-06,1.38044e-05,3.76744e-06,0
-2.99134e-05,3.06184e-05,-2.02926e-05,4.03263e-06,5.85583e-06,1.04303e-05,1.25601e-05,3.95616e-06,0
-2.98569e-05,2.97565e-05,-1.97456e-05,1.03432e-05,8.51392e-06,1.42065e-05,9.98777e-06,4.87008e-06,0
-3.0142e-05,3.79212e-05,-1.79639e-05,1.56203e-05,9.24686e-06,1.48519e-05,7.0269e-06,5.38902e-06,0
-3.27667e-05,3.82455e-05,-1.52804e-05,1.72994e-05,9.30772e-06,1.06753e-05,6.38889e-06,4.39947e-06,0
-3.94037e-05,2.51887e-05,-1.43669e-05,1.72847e-05,1.05143e-05,6.01858e-06,7.71003e-06,3.73514e-06,0
-4.9763e-05,3.79263e-06,-1.54478e-05,1.7286e-05,1.1195e-05,7.8318e-07,8.44321e-06,4.77796e-06,0
-5.5302e-05,-1.43542e-05,-1.67917e-05,1.67697e-05,9.41187e-06,-3.2269e-06,6.51088e-06,4.28594e-06,0
-5.226e-05,-2.19338e-05,-1.74154e-05,1.60076e-05,5.9403e-06,-2.87066e-06,3.34754e-06,1.6986e-06,0
-4.60759e-05,-2.22245e-05,-1.73292e-05,1.63135e-05,3.68567e-06,6.0571e-07,1.9589e-06,-6.14627e-07,0
-4.06263e-05,-1.40931e-05,-1.66939e-05,3.09351e-05,5.78078e-06,1.56468e-06,2.5646e-06,-3.87945e-08,0
-3.92552e-05,-5.25814e-06,-1.62628e-05,7.28053e-05,8.67601e-06,6.92451e-07,4.27417e-06,1.94368e-06,0
-3.88497e-05,-3.36361e-06,-1.69647e-05,0.000110462,8.36212e-06,4.83657e-06,6.88932e-06,2.3404e-06,0
-3.35126e-05,-7.7771e-06,-1.81373e-05,0.000105943,8.51858e-06,1.54048e-05,1.02555e-05,2.65951e-06,0
-2.71314e-05,-1.48811e-05,-1.86839e-05,6.50396e-05,1.0923e-05,3.07728e-05,1.22784e-05,3.84339e-06,0
-2.60693e-05,-2.27364e-05,-1.84996e-05,1.73726e-05,1.20519e-05,3.98313e-05,1.2181e-05,4.22695e-06,0
-3.09944e-05,-3.30505e-05,-1.8057e-05,-1.42037e-05,1.01375e-05,3.31141e-05,1.17523e-05,3.1036e-06,0
-3.72831e-05,-4.26656e-05,-1.60483e-05,-2.7526e-05,6.42358e-06,1.05502e-05,1.10836e-05,2.8574e-06,0
-3.56756e-05,-4.44441e-05,-1.28267e-05,-3.27569e-05,3.47487e-06,-2.05474e-05,1.00377e-05,3.56893e-06,0
-2.48282e-05,-3.60358e-05,-1.02127e-05,-3.92304e-05,3.21407e-06,-4.46628e-05,9.05066e-06,3.88296e-06,0
-1.74854e-05,-2.51334e-05,-9.37044e-06,-4.91285e-05,3.02708e-06,-5.3105e-05,8.62951e-06,3.37546e-06,0
-2.08575e-05,-1.64836e-05,-1.01022e-05,-6.31394e-05,-3.72819e-07,-5.33891e-05,8.66188e-06,2.07033e-06,0
-2.73798e-05,-9.67515e-06,-1.16976e-05,-8.18798e-05,-6.59816e-06,-5.87046e-05,8.34717e-06,6.9516e-07,0
-3.13951e-05,-5.55124e-06,-1.36929e-05,-9.82024e-05,-1.24124e-05,-7.06349e-05,7.71299e-06,7.46109e-07,0
-3.53102e-05,-6.48393e-06,-1.55487e-05,-0.000101554,-1.62544e-05,-8.15398e-05,7.73735e-06,1.27357e-06,0
-3.74869e-05,-8.61377e-06,-1.60258e-05,-8.851e-05,-1.73259e-05,-8.22133e-05,9.68148e-06,4.96251e-07,0
-3.45279e-05,-7.88835e-06,-1.36748e-05,-6.23333e-05,-1.42381e-05,-6.27321e-05,1.28073e-05,-1.24217e-07,0
-3.04319e-05,-4.38858e-06,-9.79066e-06,-3.09835e-05,-6.62478e-06,-2.33198e-05,1.56474e-05,3.59802e-07,0
-2.95482e-05,1.39893e-06,-5.93343e-06,-7.92383e-06,2.77913e-06,1.16028e-05,1.69936e-05,9.32143e-08,0
-3.18786e-05,1.11761e-05,-4.22993e-06,-1.67706e-06,1.08036e-05,1.58687e-05,1.72118e-05,-2.01554e-06,0
-3.95875e-05,2.3649e-05,-5.81122e-06,-6.0965e-06,1.65816e-05,-8.50401e-06,1.81636e-05,-3.80939e-06,0
-5.46452e-05,3.0841e-05,-6.18636e-06,-6.75185e-06,2.0907e-05,-3.09465e-05,1.95416e-05,-5.50144e-06,0
-7.08896e-05,2.97423e-05,-3.2491e-06,1.81661e-08,2.64038e-05,-3.48977e-05,1.83783e-05,-6.46732e-06,0
-8.00753e-05,2.45374e-05,1.97303e-07,1.34158e-05,3.45167e-05,-3.20132e-05,1.48953e-05,-6.03689e-06,0
-7.86961e-05,2.09377e-05,1.80562e-06,2.48002e-05,4.12804e-05,-3.25166e-05,1.33071e-05,-5.91123e-06,0
-6.9345e-05,2.05314e-05,2.84266e-06,3.11661e-05,4.39143e-05,-4.322e-05,1.22637e-05,-4.96999e-06,0
-5.39334e-05,2.77832e-05,4.33911e-06,3.78172e-05,4.53896e-05,-6.30465e-05,1.10054e-05,-3.95786e-06,0
-3.42166e-05,4.33832e-05,5.47514e-06,3.80865e-05,4.5515e-05,-8.13697e-05,1.21086e-05,-2.94447e-06,0
-1.52498e-05,5.40497e-05,6.66206e-06,3.45748e-05,4.16264e-05,-7.21448e-05,1.39526e-05,-1.70351e-06,0
9.92677e-07,5.26832e-05,7.51882e-06,2.78243e-05,3.59888e-05,-2.69895e-05,1.54434e-05,-2.81315e-06,0
1.7129e-05,4.40232e-05,9.37478e-06,1.47952e-05,3.15398e-05,2.14323e-05,1.67244e-05,-4.56642e-06,0
3.33745e-05,3.68411e-05,1.05304e-05,-1.87052e-06,2.91654e-05,6.55115e-05,1.72363e-05,-4.25645e-06,0
3.76347e-05,3.71406e-05,9.59596e-06,-2.09385e-05,2.64301e-05,0.000108616,1.74621e-05,-2.63188e-06,0
2.1774e-05,3.71472e-05,7.17042e-06,-4.00724e-05,2.24655e-05,0.000113757,1.69562e-05,-2.33843e-06,0
-2.67992e-06,2.82147e-05,3.34866e-06,-5.24278e-05,1.83924e-05,6.98436e-05,1.47741e-05,-2.97866e-06,0
-2.14611e-05,1.29276e-05,-3.3004e-07,-5.19608e-05,1.32148e-05,1.6671e-05,1.21968e-05,-2.30669e-06,0
-3.29757e-05,-1.96057e-06,-2.48118e-06,-3.90307e-05,8.07076e-06,-9.60935e-06,9.63368e-06,-1.10826e-06,0
-4.13139e-05,-1.39263e-05,-2.83308e-06,-1.85594e-05,4.69055e-06,-8.80834e-06,7.596e-06,1.5979e-07,0
-4.60588e-05,-2.52299e-05,-2.6267e-06,3.51564e-06,4.60683e-06,5.05081e-07,8.31535e-06,1.00956e-06,0
-4.47348e-05,-3.44403e-05,-1.91625e-06,2.71219e-05,7.12543e-06,6.7725e-06,1.21773e-05,-2.82256e-07,0
-3.99498e-05,-3.59637e-05,-1.22066e-06,5.43854e-05,1.09851e-05,8.96442e-06,1.66857e-05,-3.20686e-06,0
-3.68681e-05,-2.885e-05,-1.0298e-06,7.84788e-05,1.40686e-05,1.06556e-05,1.93936e-05,-4.39076e-06,0
-3.57476e-05,-1.84922e-05,-1.29008e-06,8.49439e-05,1.47283e-05,1.13222e-05,1.9838e-05,-2.92584e-06,0
-3.26123e-05,-1.19809e-05,-5.21686e-07,7.18768e-05,1.41389e-05,1.26756e-05,1.88433e-05,-1.29397e-06,0
-2.64481e-05,-1.12018e-05,1.18505e-06,5.04041e-05,1.48425e-05,1.53245e-05,1.67311e-05,-2.12087e-07,0
-2.07389e-05,-1.10745e-05,1.70936e-06,2.90965e-05,1.67758e-05,1.64675e-05,1.44217e-05,6.26448e-07,0
-1.88067e-05,-7.25249e-06,1.05481e-06,8.82428e-06,1.79841e-05,1.31451e-05,1.25204e-05,-3.15339e-07,0
-1.89045e-05,8.34543e-07,1.54654e-06,-6.81934e-06,1.55647e-05,6.43966e-06,9.68579e-06,-2.67651e-06,0
-1.39023e-05,9.97853e-06,2.41807e-06,-2.02363e-05,9.79827e-06,-1.26342e-06,7.56525e-06,-3.47143e-06,0
-4.56096e-06,1.70068e-05,5.15301e-07,-4.38924e-05,5.50512e-06,-6.33727e-06,8.87767e-06,-3.41658e-06,0
-1.89412e-06,2.76886e-05,-3.12021e-06,-8.97103e-05,3.86665e-06,-3.98194e-06,1.21126e-05,-4.29108e-06,0
-7.58153e-06,4.53333e-05,-6.21857e-06,-0.000131904,4.77438e-06,3.89135e-06,1.43821e-05,-5.34876e-06,0
-1.45661e-05,6.36532e-05,-8.47386e-06,-0.000124949,5.20365e-06,8.70081e-06,1.54596e-05,-6.78325e-06,0
-1.95021e-05,7.69498e-05,-1.03969e-05,-7.14499e-05,6.50006e-07,6.62876e-06,1.56581e-05,-7.27967e-06,0
-2.00012e-05,8.30763e-05,-1.16362e-05,-2.42494e-07,-4.18351e-06,3.1287e-06,1.46399e-05,-5.28348e-06,0
-1.51005e-05,7.67303e-05,-1.34154e-05,5.39733e-05,-2.05228e-06,2.03777e-06,1.40535e-05,-3.4343e-06,0
-7.04663e-06,5.61759e-05,-1.56339e-05,6.29993e-05,2.54492e-06,3.52621e-06,1.48021e-05,-3.33732e-06,0
-1.22261e-06,3.27683e-05,-1.51066e-05,3.33912e-05,3.92095e-06,4.53462e-06,1.59424e-05,-2.33045e-06,0
-2.42948e-06,1.38732e-05,-1.19972e-05,5.32167e-06,2.85419e-06,-1.54985e-06,1.56437e-05,1.51779e-07,0
-1.03263e-05,-1.51608e-06,-1.03262e-05,-2.24714e-06,2.85923e-06,-2.13039e-05,1.39094e-05,1.683e-06,0
-2.11862e-05,-1.37606e-05,-1.01947e-05,-1.92302e-06,6.19901e-06,-5.69466e-05,1.19071e-05,1.30261e-06,0
-3.24745e-05,-1.84327e-05,-8.49346e-06,-4.01569e-06,1.29856e-05,-8.23515e-05,7.8234e-06,1.1533e-06,0
-4.15356e-05,-1.56595e-05,-5.05134e-06,-2.36485e-06,2.16477e-05,-6.52185e-05,4.48715e-06,2.51904e-06,0
-4.53929e-05,-1.1226e-05,-7.29951e-07,1.12669e-05,2.94182e-05,-2.25253e-05,5.9324e-06,3.74272e-06,0
-4.47972e-05,-9.87046e-06,4.75512e-06,2.64683e-05,3.61913e-05,4.06124e-06,1.17422e-05,3.22325e-06,0
-4.2757e-05,-1.13805e-05,1.06039e-05,2.87852e-05,4.12178e-05,4.53589e-06,1.81955e-05,3.96359e-06,0
-4.21332e-05,-1.06494e-05,1.34504e-05,1.88864e-05,4.12122e-05,-5.63772e-06,2.12409e-05,1.3035e-05,0
-4.27434e-05,-5.29918e-06,1.17268e-05,1.39497e-05,3.32767e-05,-1.85252e-05,2.09281e-05,2.88645e-05,0
-4.31566e-05,2.60184e-06,8.02281e-06,1.88768e-05,2.23946e-05,-3.79676e-05,1.91587e-05,3.94579e-05,0
-4.32261e-05,8.79157e-06,4.8451e-06,2.36847e-05,1.68232e-05,-6.43215e-05,1.69222e-05,4.02153e-05,0
-4.69515e-05,1.12462e-05,2.89705e-06,1.7067e-05,1.82559e-05,-8.28349e-05,1.48448e-05,3.19903e-05,0
-5.66748e-05,1.0468e-05,1.91669e-06,-2.75721e-06,2.14097e-05,-8.20896e-05,1.34562e-05,1.41436e-05,0
-6.69602e-05,9.51617e-06,-4.7414e-08,-2.83745e-05,2.16224e-05,-7.1523e-05,1.22179e-05,-8.83277e-06,0
-6.91377e-05,9.14242e-06,-4.47178e-06,-4.87283e-05,1.66348e-05,-6.34924e-05,1.14887e-05,-3.12063e-05,0
-6.07741e-05,1.07942e-05,-1.02047e-05,-6.36927e-05,8.69612e-06,-5.45e-05,1.07806e-05,-4.52722e-05,0
-5.13452e-05,1.5687e-05,-1.47866e-05,-7.87998e-05,5.24356e-06,-4.47151e-05,1.15915e-05,-4.71884e-05,0
-4.89719e-05,2.09198e-05,-1.75925e-05,-7.60364e-05,5.91695e-06,-4.01097e-05,1.52969e-05,-4.04556e-05,0
-5.15315e-05,2.24623e-05,-1.98694e-05,-4.06386e-05,7.37202e-06,-3.03859e-05,1.95827e-05,-3.15186e-05,0
-4.95042e-05,2.35273e-05,-2.18059e-05,2.46637e-06,9.28011e-06,-5.69718e-06,2.0685e-05,-2.6255e-05,0
-4.04968e-05,2.76114e-05,-2.24518e-05,4.94624e-05,8.45785e-06,1.61983e-05,1.3842e-05,-2.0252e-05,0
-3.29897e-05,2.87786e-05,-2.1633e-05,9.50259e-05,4.15877e-06,1.96555e-05,-4.67292e-06,-1.10647e-05,0
-3.17149e-05,2.59937e-05,-1.97994e-05,0.000102884,2.33643e-06,6.8071e-06,-2.59773e-05,-2.95345e-06,0
-3.65108e-05,2.50096e-05,-1.83026e-05,7.76169e-05,5.04746e-06,-1.91479e-05,-3.43636e-05,3.40298e-06,0
-4.03121e-05,2.66938e-05,-1.74024e-05,4.21624e-05,1.1537e-05,-4.81115e-05,-2.52894e-05,4.80609e-06,0
-3.90344e-05,2.82256e-05,-1.67713e-05,8.41755e-06,2.1172e-05,-6.63851e-05,-6.88461e-06,3.15692e-06,0
-3.87133e-05,2.86449e-05,-1.68172e-05,-1.97408e-05,2.85137e-05,-6.36e-05,1.09802e-05,2.33979e-06,0
-3.98383e-05,2.78583e-05,-1.69606e-05,-3.80171e-05,2.70138e-05,-4.58296e-05,2.67971e-05,1.95985e-06,0
-3.67969e-05,2.66561e-05,-1.6433e-05,-4.57508e-05,1.63423e-05,-3.56088e-05,3.86099e-05,2.39233e-06,0
-2.95662e-05,2.59958e-05,-1.5111e-05,-4.77962e-05,5.19783e-06,-4.79926e-05,4.40248e-05,4.22198e-06,0
-2.25998e-05,2.84605e-05,-1.38115e-05,-5.74849e-05,2.44143e-06,-7.59459e-05,4.43998e-05,6.89719e-06,0
-1.70398e-05,3.36462e-05,-1.33992e-05,-8.22762e-05,1.02384e-05,-9.38435e-05,4.35752e-05,7.39969e-06,0
-1.21482e-05,3.76262e-05,-1.37263e-05,-0.000103612,2.52407e-05,-7.5584e-05,4.13238e-05,5.91761e-06,0
-6.98929e-06,4.48059e-05,-1.3863e-05,-9.8263e-05,4.0003e-05,-1.09066e-05,3.64392e-05,4.88726e-06,0
-1.7542e-06,6.36649e-05,-1.39436e-05,-6.82284e-05,4.50203e-05,8.25642e-05,3.01769e-05,4.90458e-06,0
-1.10964e-06,8.6366e-05,-1.45352e-05,-3.18424e-05,3.52636e-05,0.000149374,2.46838e-05,4.94257e-06,0
-9.01179e-06,9.30394e-05,-1.5332e-05,-4.64763e-06,1.55174e-05,0.000137235,2.13212e-05,4.53138e-06,0
-1.92957e-05,7.63688e-05,-1.55319e-05,3.04846e-07,-3.7679e-06,6.69436e-05,2.11107e-05,3.9854e-06,0
-2.05246e-05,4.55766e-05,-1.5336e-05,-1.57349e-05,-1.70112e-05,9.72472e-06,2.43216e-05,3.37317e-06,0
-1.25282e-05,1.13541e-05,-1.53745e-05,-4.205e-05,-2.34355e-05,-4.67552e-06,2.68454e-05,2.48216e-06,0
-8.16694e-06,-1.78029e-05,-1.50943e-05,-6.77637e-05,-2.65805e-05,-5.97155e-06,2.4056e-05,3.16485e-06,0
-1.40266e-05,-3.39795e-05,-1.33875e-05,-7.94971e-05,-3.11598e-05,-2.45912e-05,1.45605e-05,5.40709e-06,0
-2.37175e-05,-3.62599e-05,-9.43088e-06,-6.91733e-05,-3.23886e-05,-4.90638e-05,7.01185e-06,6.59407e-06,0
-3.20008e-05,-2.88405e-05,-4.82682e-06,-5.21943e-05,-2.14025e-05,-4.51324e-05,7.68179e-06,6.28859e-06,0
-3.7182e-05,-1.96412e-05,-3.54421e-06,-4.1606e-05,-9.83049e-07,-1.62606e-05,1.20751e-05,5.39967e-06,0
-3.91391e-05,-1.70515e-05,-5.45333e-06,-2.12674e-05,2.27421e-05,2.98469e-06,2.31866e-06,4.78113e-06,0
-4.00416e-05,-1.57666e-05,-7.09416e-06,1.84572e-05,4.44477e-05,2.94449e-06,-2.00948e-05,5.7154e-06,0
-4.19215e-05,-7.06989e-06,-6.50524e-06,5.07993e-05,5.69756e-05,-3.34152e-06,-2.92888e-05,6.35702e-06,0
-4.46687e-05,4.25022e-06,-5.3171e-06,5.95672e-05,5.89186e-05,-4.44733e-06,-1.87993e-05,5.49817e-06,0
-4.67666e-05,1.68999e-05,-5.68718e-06,5.67822e-05,5.25441e-05,-7.21251e-07,-3.46486e-10,4.75647e-06,0
-4.66817e-05,3.2725e-05,-5.48232e-06,5.17824e-05,4.44886e-05,3.23622e-06,1.43966e-05,5.49596e-06,0
-4.19259e-05,4.46304e-05,-4.46525e-06,4.93112e-05,3.73036e-05,4.30734e-06,2.47607e-05,5.54909e-06,0
-3.56003e-05,4.81673e-05,-4.19922e-06,5.27056e-05,3.24107e-05,4.1963e-06,3.19035e-05,5.06591e-06,0
-3.15458e-05,4.4687e-05,-4.00315e-06,5.95297e-05,3.07055e-05,5.33068e-06,3.51838e-05,5.31754e-06,0
-3.00472e-05,3.44434e-05,-3.66072e-06,6.12702e-05,2.92888e-05,6.22598e-06,3.68421e-05,4.56369e-06,0
-3.24082e-05,1.66475e-05,-4.73201e-06,5.65851e-05,2.61271e-05,5.38448e-06,3.7878e-05,4.06052e-06,0
-4.26056e-05,-2.87788e-06,-7.22534e-06,5.25852e-05,2.29268e-05,2.31685e-06,4.01744e-05,3.49987e-06,0
-6.09469e-05,-1.60786e-05,-7.94719e-06,5.42479e-05,2.04231e-05,-6.02981e-07,4.27009e-05,2.82832e-06,0
-7.82711e-05,-2.14144e-05,-5.23672e-06,5.97388e-05,2.07503e-05,-2.96465e-06,4.4988e-05,2.40796e-06,0
-8.48894e-05,-2.21476e-05,-1.2568e-06,6.24053e-05,2.50088e-05,-3.94975e-06,4.45295e-05,2.65334e-06,0
-7.54574e-05,-2.05956e-05,8.05775e-07,5.56326e-05,2.68708e-05,-3.92726e-06,3.83689e-05,2.66453e-06,0
-5.10294e-05,-1.73744e-05,8.65658e-07,4.01621e-05,2.1116e-05,-4.6368e-06,2.4956e-05,2.42499e-06,0
-2.24026e-05,-1.42326e-05,4.64507e-07,2.30753e-05,1.14972e-05,-5.52767e-06,8.3605e-06,2.80192e-06,0
-3.5473e-06,-1.21858e-05,-1.2953e-06,9.08967e-06,7.89454e-06,-5.21474e-06,-6.02837e-06,3.79236e-06,0
3.26919e-06,-8.6655e-06,-5.31597e-06,-9.55317e-07,1.12649e-05,-4.87661e-06,-1.67298e-05,4.69984e-06,0
8.43894e-06,-2.19061e-06,-1.046e-05,-8.09602e-07,1.45132e-05,-4.25474e-06,-2.37029e-05,4.73963e-06,0
1.90869e-05,2.70207e-06,-1.53375e-05,1.4875e-05,1.21607e-05,-2.13453e-06,-2.53194e-05,4.37802e-06,0
2.55357e-05,4.05469e-06,-1.99997e-05,3.36385e-05,8.91661e-06,1.05005e-06,-2.29368e-05,4.84053e-06,0
1.36946e-05,3.00354e-06,-2.26782e-05,4.01645e-05,9.96618e-06,-1.1361e-06,-2.10675e-05,5.64398e-06,0
-6.63975e-06,2.1265e-06,-2.1894e-05,3.75067e-05,1.52725e-05,-1.56938e-05,-1.87441e-05,6.1129e-06,0
-1.35297e-05,4.03574e-06,-2.07556e-05,3.40706e-05,2.10896e-05,-3.11343e-05,-1.51996e-05,6.37427e-06,0
-8.28232e-06,5.82065e-06,-1.9819e-05,2.72296e-05,2.4774e-05,-3.59356e-05,-1.35302e-05,5.33931e-06,0
-4.23704e-06,5.77879e-06,-1.81252e-05,1.11075e-05,2.31565e-05,-3.46723e-05,-1.18741e-05,4.54638e-06,0
-6.25862e-06,6.83698e-06,-1.50633e-05,-7.89225e-06,1.68225e-05,-3.30188e-05,-6.57014e-06,3.46722e-06,0
-1.4125e-05,8.98097e-06,-9.7576e-06,-2.53513e-05,1.24427e-05,-3.24694e-05,-5.37022e-07,3.01594e-06,0
-2.3176e-05,1.01442e-05,-3.69945e-06,-4.97223e-05,1.1178e-05,-3.23792e-05,1.97869e-06,3.4456e-06,0
-2.75465e-05,1.19945e-05,-1.03863e-07,-8.2435e-05,9.81213e-06,-2.82088e-05,1.53381e-06,3.15729e-06,0
-3.07833e-05,1.53148e-05,-3.19851e-08,-0.000110188,7.6981e-06,-2.13038e-05,2.22572e-06,3.34312e-06,0
-3.56796e-05,1.83484e-05,-1.04131e-06,-0.000118457,5.28581e-06,-1.36638e-05,3.85189e-06,3.34534e-06,0
-4.22472e-05,1.86792e-05,-2.59846e-06,-0.000103935,2.56959e-06,1.2939e-05,6.65186e-06,2.44733e-06,0
-5.3225e-05,1.6658e-05,-4.58716e-06,-7.83015e-05,9.00299e-07,4.70627e-05,9.18511e-06,7.97781e-07,0
-6.25708e-05,1.56509e-05,-6.246e-06,-6.02919e-05,7.69884e-08,5.29005e-05,1.02485e-05,5.27584e-08,0
-6.40044e-05,1.83127e-05,-6.19524e-06,-5.52561e-05,2.32319e-07,3.60465e-05,1.02771e-05,6.23218e-07,0
-6.44745e-05,2.17942e-05,-5.35217e-06,-6.11117e-05,-1.73707e-06,1.67665e-05,6.8476e-06,1.42281e-06,0
-6.90969e-05,1.96658e-05,-6.04466e-06,-7.6882e-05,-7.66464e-06,2.77282e-06,4.01599e-07,1.91718e-06,0
-6.75844e-05,1.16633e-05,-9.17772e-06,-9.61183e-05,-1.50188e-05,-5.61663e-06,-5.00332e-06,2.44944e-06,0
-5.56648e-05,2.56784e-06,-1.32684e-05,-0.000105009,-1.74714e-05,-8.40781e-06,-6.81521e-06,3.12842e-06,0
-4.14953e-05,-2.99462e-06,-1.59854e-05,-9.36124e-05,-1.24122e-05,-7.3925e-06,-5.37917e-06,3.49324e-06,0
-3.27804e-05,-3.79894e-06,-1.67255e-05,-6.49914e-05,-2.81827e-06,-4.95205e-06,-1.43298e-06,3.44435e-06,0
-3.07237e-05,-2.67734e-06,-1.59047e-05,-2.74315e-05,6.07899e-06,-2.22135e-06,4.36701e-06,2.87287e-06,0
-3.2096e-05,-2.38396e-06,-1.57656e-05,1.2083e-05,1.04751e-05,-4.56312e-07,1.16393e-05,2.4854e-06,0
-3.30378e-05,-2.1804e-06,-1.61297e-05,4.734e-05,1.40832e-05,-3.22115e-07,1.89208e-05,3.21904e-06,0
-3.26857e-05,3.14746e-07,-1.52101e-05,7.24138e-05,2.12556e-05,-1.70307e-06,2.44752e-05,4.49261e-06,0
-3.18441e-05,4.38992e-06,-1.26642e-05,8.36379e-05,2.66153e-05,-3.09278e-06,2.75832e-05,4.79834e-06,0
-3.12595e-05,7.24337e-06,-1.1149e-05,7.88791e-05,2.22373e-05,-4.45284e-06,2.94661e-05,4.13307e-06,0
-3.28348e-05,8.6144e-06,-1.23841e-05,6.25078e-05,1.33095e-05,-4.94626e-06,3.08622e-05,3.5712e-06,0
-3.73469e-05,9.16689e-06,-1.34084e-05,4.40818e-05,8.36691e-06,-5.50293e-06,3.23277e-05,3.49338e-06,0
-4.25422e-05,9.41056e-06,-1.02224e-05,2.86928e-05,6.60711e-06,-1.09125e-05,3.21757e-05,3.53351e-06,0
-4.61359e-05,1.10302e-05,-3.84275e-06,1.46954e-05,5.00517e-06,-2.31273e-05,3.03292e-05,3.36559e-06,0
-4.55518e-05,1.58144e-05,7.43863e-08,1.30278e-06,2.16085e-06,-3.46638e-05,2.72451e-05,2.78434e-06,0
-3.46635e-05,1.97315e-05,-1.33448e-06,-2.10144e-06,-1.07723e-06,-3.85334e-05,2.41401e-05,2.76484e-06,0
-1.98927e-05,1.95317e-05,-3.44821e-06,7.39872e-06,-1.8307e-06,-3.70245e-05,2.322e-05,-1.60113e-08,0
-1.12865e-05,1.80783e-05,-4.92706e-06,1.66777e-05,-4.8159e-07,-3.4572e-05,2.35071e-05,-4.65516e-06,0
-8.7076e-06,1.83052e-05,-7.31484e-06,2.11702e-05,1.45926e-06,-3.23143e-05,2.30608e-05,-6.42463e-06,0
-9.07968e-06,2.05544e-05,-8.51869e-06,2.5125e-05,1.89471e-06,-3.05945e-05,1.92419e-05,-4.50178e-06,0
-8.17263e-06,2.27119e-05,-9.82333e-06,3.0837e-05,1.48208e-06,-2.48627e-05,1.45526e-05,-2.11614e-06,0
-7.42148e-06,2.3085e-05,-1.10991e-05,3.71166e-05,2.86624e-06,-1.56623e-05,1.122e-05,-1.43206e-06,0
-1.01592e-05,2.4096e-05,-1.16143e-05,3.97211e-05,6.31396e-06,-1.69667e-06,1.04757e-05,-4.22061e-07,0
-1.51484e-05,2.73587e-05,-1.04737e-05,3.22959e-05,8.71212e-06,3.0448e-05,1.17146e-05,1.76237e-07,0
-2.11759e-05,2.90452e-05,-7.59991e-06,1.4923e-05,9.37293e-06,6.0745e-05,1.2955e-05,9.57913e-08,0
-2.74974e-05,2.70214e-05,-4.06865e-06,-3.75844e-06,9.44442e-06,5.46558e-05,1.31141e-05,-3.56652e-07,0
-3.11911e-05,2.24946e-05,-1.38489e-06,-1.7222e-05,8.58439e-06,2.12484e-05,1.30441e-05,-6.39842e-07,0
-3.11447e-05,1.8588e-05,-6.81222e-07,-2.47945e-05,7.49889e-06,-4.79231e-06,1.3795e-05,-7.78801e-07,0
-3.09311e-05,1.53232e-05,-1.45749e-06,-2.75968e-05,6.99365e-06,-7.38677e-06,1.49046e-05,-6.02426e-07,0
-3.24004e-05,1.1736e-05,-3.12132e-06,-2.24089e-05,6.4979e-06,2.33464e-06,1.59831e-05,-3.24299e-07,0
-3.3705e-05,8.24035e-06,-5.13649e-06,-1.02381e-05,4.88048e-06,9.89063e-06,1.59586e-05,-4.65579e-07,0
-3.19441e-05,6.4004e-06,-8.23477e-06,-1.61509e-06,4.38526e-06,1.2281e-05,1.5475e-05,-1.50857e-06,0
-2.65414e-05,6.4399e-06,-1.10325e-05,-3.54999e-06,5.81198e-06,1.28453e-05,1.46657e-05,-2.38789e-06,0
-2.22437e-05,7.37389e-06,-1.12785e-05,-1.09408e-05,7.79665e-06,1.10477e-05,1.2774e-05,-2.53797e-06,0
-2.25677e-05,8.24208e-06,-9.05922e-06,-1.70638e-05,8.30847e-06,7.15261e-06,1.02414e-05,-1.6058e-06,0
-2.55779e-05,9.40313e-06,-8.07798e-06,-2.00721e-05,7.26404e-06,3.40669e-06,9.52168e-06,-1.81747e-07,0
-2.84987e-05,1.14829e-05,-9.04089e-06,-2.20242e-05,7.16192e-06,9.57704e-08,1.05916e-05,-5.2291e-07,0
-2.87087e-05,1.35508e-05,-1.14974e-05,-2.3196e-05,8.85149e-06,-3.17692e-06,1.2018e-05,-6.22454e-07,0
-2.74052e-05,1.73215e-05,-1.3019e-05,-2.36029e-05,9.15506e-06,-7.32245e-06,1.27648e-05,-3.65044e-07,0
-2.74032e-05,2.16883e-05,-1.21834e-05,-2.3485e-05,6.61017e-06,-1.28725e-05,1.25703e-05,-1.95931e-07,0
-2.85158e-05,2.3422e-05,-1.15563e-05,-2.23159e-05,3.51324e-06,-1.78936e-05,1.21609e-05,-5.92982e-07,0
-2.88517e-05,2.38087e-05,-9.80397e-06,-1.99801e-05,2.92887e-06,-2.32632e-05,1.3409e-05,-2.25915e-06,0
-2.60845e-05,2.3099e-05,-7.7899e-06,-1.58076e-05,5.23597e-06,-2.85476e-05,1.42839e-05,-3.48561e-06,0
-2.39029e-05,2.11007e-05,-8.32864e-06,-9.01611e-06,6.71522e-06,-3.17821e-05,1.34606e-05,-2.53498e-06,0
-2.42645e-05,2.07505e-05,-1.02906e-05,-1.33993e-06,7.52047e-06,-3.32465e-05,1.35465e-05,5.76829e-07,0
-2.66735e-05,1.99142e-05,-1.09603e-05,3.67758e-06,9.5406e-06,-3.20909e-05,1.53851e-05,2.2516e-06,0
-3.11367e-05,1.79905e-05,-1.10887e-05,5.63826e-06,1.1874e-05,-2.90813e-05,1.69785e-05,1.29745e-06,0
-3.36169e-05,1.68503e-05,-1.19301e-05,5.42617e-06,1.32116e-05,-2.48355e-05,1.8027e-05,-8.6146e-07,0
-3.28513e-05,1.77372e-05,-1.28131e-05,5.67675e-06,1.45514e-05,-2.20568e-05,1.92724e-05,-2.47907e-06,0
-3.10808e-05,1.82766e-05,-1.23198e-05,6.40959e-06,1.73831e-05,-2.08092e-05,1.88558e-05,-3.92157e-06,0
-3.183e-05,1.58574e-05,-1.13312e-05,6.41895e-06,2.14708e-05,-2.03568e-05,1.72434e-05,-5.50419e-06,0
-3.54842e-05,1.10166e-05,-1.05696e-05,6.74314e-06,2.44279e-05,-1.9733e-05,1.60688e-05,-5.86863e-06,0
-3.87825e-05,7.30988e-06,-9.3996e-06,7.7807e-06,2.49348e-05,-1.7701e-05,1.57947e-05,-3.75099e-06,0
-3.87167e-05,7.52688e-06,-8.41923e-06,8.42411e-06,2.3747e-05,-1.58411e-05,1.56081e-05,-7.30704e-07,0
-3.63611e-05,9.20626e-06,-9.12776e-06,8.28662e-06,2.28205e-05,-1.58918e-05,1.47514e-05,4.55925e-07,0
-3.44914e-05,1.03418e-05,-1.09283e-05,8.59061e-06,2.22447e-05,-1.67224e-05,1.35039e-05,2.24041e-08,0
-3.37294e-05,9.7009e-06,-1.11694e-05,8.64439e-06,2.07362e-05,-1.55831e-05,1.35919e-05,-4.83108e-07,0
-3.34693e-05,7.93783e-06,-1.01596e-05,5.35754e-06,1.96802e-05,-1.31494e-05,1.5376e-05,9.18591e-07,0
-3.2575e-05,6.55396e-06,-1.03931e-05,-2.67181e-06,2.02602e-05,-1.22551e-05,1.77109e-05,2.42422e-06,0
-3.16818e-05,7.19465e-06,-1.26208e-05,-5.09494e-06,2.24903e-05,-1.42089e-05,1.83228e-05,2.0025e-06,0
-3.13302e-05,8.08716e-06,-1.43428e-05,8.82146e-06,2.42631e-05,-1.54976e-05,1.73317e-05,-9.07024e-09,0
-3.10012e-05,8.42308e-06,-1.42276e-05,2.3987e-05,2.35988e-05,-1.35282e-05,1.63445e-05,-1.47007e-06,0
-2.98338e-05,1.01318e-05,-1.26177e-05,1.60969e-05,2.32438e-05,-9.88379e-06,1.48799e-05,-1.53916e-06,0
-2.85293e-05,1.2105e-05,-1.00695e-05,-9.60042e-06,2.53812e-05,-8.20618e-06,1.22636e-05,-4.73974e-07,0
-2.86509e-05,1.32294e-05,-8.27236e-06,-2.62232e-05,2.8226e-05,-8.46588e-06,9.95089e-06,1.15726e-06,0
-2.92959e-05,1.55199e-05,-8.67044e-06,-2.00447e-05,2.97354e-05,-9.00149e-06,9.26672e-06,2.20812e-06,0
-2.84278e-05,1.84985e-05,-1.02542e-05,-1.25417e-07,2.93253e-05,-1.08324e-05,9.7365e-06,1.3838e-06,0
-2.71223e-05,2.11133e-05,-1.15664e-05,1.83035e-05,2.85102e-05,-1.33582e-05,1.07802e-05,1.00231e-06,0
-2.58533e-05,2.31312e-05,-9.68857e-06,2.55308e-05,2.74398e-05,-1.59735e-05,1.18318e-05,7.68754e-07,0
-2.554e-05,2.24293e-05,-4.64741e-06,1.54673e-05,2.58373e-05,-1.65295e-05,1.19898e-05,-1.28751e-06,0
-2.70595e-05,1.90388e-05,1.38006e-06,-4.99044e-06,2.38116e-05,-1.68453e-05,1.21096e-05,-3.51777e-06,0
-2.77211e-05,1.66646e-05,6.37266e-06,-2.81343e-05,2.0954e-05,-1.92629e-05,1.25875e-05,-4.8582e-06,0
-2.58926e-05,1.55271e-05,6.91319e-06,-4.83628e-05,1.48638e-05,-1.93445e-05,1.20876e-05,-2.57813e-06,0
-2.47485e-05,1.43151e-05,3.34832e-06,-5.80324e-05,9.29428e-06,-1.75825e-05,1.03191e-05,1.03283e-06,0
-2.55057e-05,1.36683e-05,-1.31597e-06,-5.7102e-05,6.52789e-06,-1.55805e-05,9.07658e-06,2.01727e-06,0
-2.47317e-05,1.35989e-05,-5.24357e-06,-4.46401e-05,4.62394e-06,-1.49562e-05,1.02724e-05,1.54982e-06,0
-2.40057e-05,1.41821e-05,-7.42035e-06,-2.74499e-05,5.80041e-06,-1.66345e-05,1.03779e-05,3.48089e-06,0
-2.55095e-05,1.80967e-05,-7.23239e-06,-1.47694e-05,7.58178e-06,-1.9314e-05,9.17576e-06,6.27973e-06,0
-2.71762e-05,2.58506e-05,-4.88048e-06,-7.95571e-06,8.41383e-06,-2.10712e-05,9.70411e-06,7.1936e-06,0
-2.7589e-05,3.15488e-05,-1.98589e-06,-3.58773e-06,9.85388e-06,-1.93204e-05,1.14042e-05,6.59266e-06,0
-2.6644e-05,3.03446e-05,-1.01519e-06,7.64057e-07,1.31757e-05,-1.59181e-05,1.24145e-05,5.22912e-06,0
-2.47042e-05,2.22611e-05,-1.93508e-06,5.75917e-06,1.60621e-05,-1.48283e-05,1.19408e-05,3.71263e-06,0
-2.44386e-05,1.23064e-05,-3.86913e-06,1.10201e-05,1.78017e-05,-1.58648e-05,1.05153e-05,2.18735e-06,0
-2.55483e-05,4.82432e-06,-5.40135e-06,1.30243e-05,2.08517e-05,-1.58449e-05,1.01236e-05,1.39478e-06,0
-2.54618e-05,1.66909e-06,-5.77393e-06,1.44934e-05,2.61381e-05,-1.45485e-05,1.18512e-05,9.66928e-07,0
-2.44259e-05,3.45824e-06,-5.34682e-06,2.19552e-05,3.19848e-05,-1.29006e-05,1.37736e-05,1.4464e-06,0
-2.45338e-05,9.62895e-06,-4.62499e-06,3.04927e-05,3.4104e-05,-1.19179e-05,1.44012e-05,2.55816e-06,0
-2.57026e-05,1.52168e-05,-3.83188e-06,2.47379e-05,2.91664e-05,-1.16836e-05,1.41069e-05,3.88954e-06,0
-2.69753e-05,1.51821e-05,-3.7213e-06,-9.0257e-08,1.89351e-05,-1.1368e-05,1.37599e-05,4.8382e-06,0
-2.79605e-05,1.11548e-05,-4.65995e-06,-2.76906e-05,9.24581e-06,-1.00713e-05,1.41538e-05,5.10273e-06,0
-2.75875e-05,5.67862e-06,-5.92044e-06,-3.53687e-05,4.81407e-06,-7.78881e-06,1.50246e-05,5.89505e-06,0
-2.68184e-05,-2.78813e-06,-7.46069e-06,-2.46541e-05,5.70388e-06,-5.11816e-06,1.5581e-05,5.8556e-06,0
-2.70416e-05,-1.43215e-05,-8.27032e-06,-1.63998e-05,6.38953e-06,-3.77595e-06,1.59543e-05,3.76282e-06,0
-2.84348e-05,-2.48691e-05,-8.08106e-06,-1.70983e-05,5.20556e-06,-3.31893e-06,1.584e-05,3.24447e-06,0
-2.90636e-05,-2.96146e-05,-6.69632e-06,-2.13156e-05,4.00575e-06,-3.23358e-06,1.45384e-05,4.49122e-06,0
-2.65563e-05,-2.568e-05,-2.71237e-06,-3.04441e-05,2.38057e-06,-3.04459e-06,1.29596e-05,5.65903e-06,0
-2.47969e-05,-1.65064e-05,1.80454e-06,-3.97391e-05,2.94001e-06,-2.04549e-06,1.34161e-05,6.70433e-06,0
-2.71048e-05,-7.90444e-06,2.74563e-06,-4.13795e-05,6.30604e-06,-1.50798e-06,1.54925e-05,5.55628e-06,0
-2.97598e-05,-1.19903e-06,2.20287e-08,-3.59075e-05,7.81816e-06,-1.38678e-06,1.80766e-05,4.4197e-06,0
-3.04384e-05,4.70443e-06,-2.40003e-06,-3.06251e-05,8.06826e-06,-2.28266e-06,2.0651e-05,5.45999e-06,0
-2.98487e-05,9.33406e-06,-2.00192e-06,-3.34766e-05,9.85895e-06,-3.34662e-06,2.08967e-05,5.09457e-06,0
-3.00503e-05,9.85515e-06,-2.00706e-06,-3.87688e-05,1.2952e-05,-5.02361e-06,1.72207e-05,4.11795e-06,0
-3.0832e-05,9.66809e-06,-4.61924e-06,-3.57837e-05,1.61705e-05,-7.33905e-06,1.234e-05,5.0328e-06,0
-3.17594e-05,1.04055e-05,-6.06363e-06,-2.23324e-05,1.8717e-05,-8.28477e-06,9.58669e-06,5.15949e-06,0
-3.16883e-05,9.9546e-06,-5.35189e-06,-4.38016e-06,1.84147e-05,-8.54883e-06,9.16854e-06,3.93143e-06,0
-3.11096e-05,9.08314e-06,-4.16661e-06,1.08067e-05,1.60434e-05,-9.28884e-06,1.06118e-05,2.18977e-06,0
-3.08891e-05,7.7705e-06,-3.9144e-06,1.66162e-05,1.54706e-05,-9.79788e-06,1.26213e-05,1.34477e-06,0
-3.13324e-05,7.011e-06,-4.53077e-06,1.17427e-05,1.62144e-05,-1.10653e-05,1.34712e-05,1.48766e-06,0
-3.20438e-05,7.97828e-06,-5.26228e-06,2.23754e-06,1.73627e-05,-1.23979e-05,1.41924e-05,1.75815e-06,0
-3.31313e-05,1.09513e-05,-6.2871e-06,-5.54609e-06,1.81739e-05,-1.21817e-05,1.53576e-05,1.50746e-06,0
-3.55703e-05,1.37924e-05,-6.90036e-06,-1.07208e-05,1.74529e-05,-1.16824e-05,1.69082e-05,9.74343e-07,0
-3.79651e-05,1.51015e-05,-7.02507e-06,-1.57905e-05,1.48618e-05,-1.19837e-05,1.81572e-05,-2.33644e-07,0
-3.85461e-05,1.43457e-05,-6.86318e-06,-1.76135e-05,1.20651e-05,-1.25873e-05,1.83023e-05,-3.09375e-06,0
-3.68122e-05,1.3236e-05,-6.8976e-06,-8.69826e-06,1.06519e-05,-1.28605e-05,1.79315e-05,-5.31698e-06,0
-3.59515e-05,1.34231e-05,-7.39557e-06,8.53809e-06,9.96208e-06,-1.35243e-05,1.68042e-05,-4.44965e-06,0
-3.66492e-05,1.55388e-05,-9.62815e-06,2.15445e-05,1.039e-05,-1.33687e-05,1.59609e-05,-1.36182e-06,0
-3.80138e-05,1.78184e-05,-1.28112e-05,2.51794e-05,1.26898e-05,-1.21603e-05,1.58679e-05,-3.50104e-07,0
-3.83829e-05,1.80209e-05,-1.47645e-05,2.42819e-05,1.49603e-05,-1.14104e-05,1.53867e-05,-2.59062e-06,0
-3.65413e-05,1.76614e-05,-1.45788e-05,2.25303e-05,1.47725e-05,-1.21942e-05,1.34793e-05,-4.12958e-06,0
-3.47171e-05,1.8233e-05,-1.42727e-05,2.26973e-05,1.26799e-05,-1.4038e-05,9.8753e-06,-2.95629e-06,0
-3.48216e-05,1.83324e-05,-1.40287e-05,2.67297e-05,1.12077e-05,-1.50945e-05,5.56251e-06,-1.42457e-06,0
-3.55839e-05,1.79621e-05,-1.2813e-05,3.44022e-05,1.23143e-05,-1.33337e-05,2.6839e-06,-1.87131e-06,0
-3.58784e-05,1.687e-05,-1.28439e-05,4.27916e-05,1.49948e-05,-1.02734e-05,2.38221e-06,-4.33826e-06,0
-3.46085e-05,1.56202e-05,-1.23337e-05,4.58699e-05,1.56328e-05,-9.64069e-06,4.99475e-06,-5.74985e-06,0
-3.32737e-05,1.55131e-05,-1.07767e-05,3.65887e-05,1.41457e-05,-1.15966e-05,6.11926e-06,-6.42422e-06,0
-3.16726e-05,1.74624e-05,-1.02783e-05,1.0715e-05,1.41094e-05,-1.44907e-05,2.25717e-06,-5.38829e-06,0
-3.04663e-05,2.26068e-05,-1.21074e-05,-1.85146e-05,1.36606e-05,-1.87652e-05,-1.86068e-06,-4.27872e-06,0
-3.24472e-05,2.47389e-05,-1.59684e-05,-3.24164e-05,1.03022e-05,-2.62978e-05,-2.89417e-06,-5.51001e-06,0
-3.49886e-05,2.15231e-05,-1.77084e-05,-3.1563e-05,7.56133e-06,-3.34886e-05,-2.15475e-06,-6.10376e-06,0
-3.42791e-05,1.65227e-05,-1.44708e-05,-2.69483e-05,8.08966e-06,-2.52028e-05,-1.20984e-06,-6.32406e-06,0
-3.19974e-05,1.05882e-05,-1.052e-05,-2.34329e-05,1.12175e-05,3.1426e-06,1.50645e-06,-4.93606e-06,0
-3.18786e-05,5.04619e-06,-9.81036e-06,-2.09715e-05,1.47946e-05,2.64675e-05,5.36543e-06,-1.45816e-06,0
-3.34474e-05,4.80027e-06,-1.02201e-05,-1.78994e-05,1.70745e-05,2.57412e-05,2.92768e-06,1.85934e-06,0
-3.51799e-05,1.37843e-05,-1.08468e-05,-1.23551e-05,1.73425e-05,1.22545e-05,-1.02661e-05,4.18401e-06,0
-3.55968e-05,2.98418e-05,-1.06915e-05,-7.36583e-06,1.49122e-05,3.5323e-06,-2.44703e-05,4.68087e-06,0
-3.4915e-05,4.49183e-05,-9.17194e-06,-4.13017e-06,1.14552e-05,1.3728e-06,-2.64618e-05,2.95885e-06,0
-3.40681e-05,5.23674e-05,-7.17127e-06,-1.16053e-06,9.76084e-06,1.16771e-06,-1.57802e-05,1.61049e-06,0
-3.34823e-05,5.0686e-05,-6.74973e-06,3.41606e-07,1.04872e-05,7.02024e-07,1.09071e-06,1.94999e-06,0
-3.2993e-05,4.1944e-05,-7.95683e-06,-1.23221e-06,1.11e-05,-5.8024e-07,1.85925e-05,1.84443e-06,0
-3.25625e-05,2.80498e-05,-8.6488e-06,-6.44989e-06,1.10032e-05,-1.31441e-06,3.23411e-05,1.02757e-07,0
-3.20895e-05,9.13864e-06,-9.07384e-06,-1.33097e-05,1.10825e-05,-2.13852e-07,3.97764e-05,-8.39816e-07,0
-3.12055e-05,-9.88805e-06,-9.71835e-06,-1.71181e-05,1.1302e-05,2.08854e-06,4.19373e-05,3.45387e-07,0
-2.99853e-05,-2.05164e-05,-1.00968e-05,-1.66155e-05,1.11804e-05,2.06077e-06,4.0157e-05,2.05003e-06,0
-2.93786e-05,-2.0222e-05,-8.94161e-06,-1.67697e-05,1.08806e-05,-3.51088e-07,3.5205e-05,2.97056e-06,0
-3.03823e-05,-1.22639e-05,-7.85609e-06,-1.89457e-05,1.25207e-05,-2.05759e-06,3.03044e-05,2.21789e-06,0
-3.1862e-05,-3.9121e-06,-9.34369e-06,-1.95459e-05,1.48073e-05,-1.86446e-06,2.72298e-05,4.3412e-07,0
-3.16545e-05,-6.80879e-07,-1.22447e-05,-1.64361e-05,1.3444e-05,-1.17407e-06,2.58115e-05,-6.98185e-07,0
-3.05545e-05,1.5093e-06,-1.43877e-05,-1.3009e-05,1.02409e-05,-1.04759e-06,2.51028e-05,9.65879e-07,0
-2.86144e-05,4.05147e-06,-1.61129e-05,-1.61174e-05,9.03829e-06,-1.42419e-06,2.30064e-05,4.31728e-06,0
-2.72028e-05,6.77323e-06,-1.69638e-05,-2.52791e-05,1.01553e-05,-1.30397e-06,1.86881e-05,3.89316e-06,0
-2.574e-05,1.23112e-05,-1.62869e-05,-3.06388e-05,1.11638e-05,-1.07526e-06,1.46522e-05,-7.23876e-07,0
-2.28144e-05,1.82326e-05,-1.41066e-05,-3.29063e-05,1.12169e-05,-2.64158e-06,1.15621e-05,-3.97976e-06,0
-2.19095e-05,2.00399e-05,-1.30053e-05,-4.14603e-05,1.39914e-05,-5.01833e-06,9.90892e-06,-3.21093e-06,0
-2.28989e-05,2.1345e-05,-1.33301e-05,-5.35666e-05,1.64146e-05,-7.54028e-06,8.95135e-06,-1.30878e-06,0
-2.53243e-05,2.43745e-05,-1.20712e-05,-5.50386e-05,1.80231e-05,-9.60981e-06,7.8431e-06,-1.32018e-06,0
-2.797e-05,2.60714e-05,-1.10652e-05,-3.50812e-05,1.82422e-05,-1.08462e-05,8.32065e-06,-1.91026e-06,0
-2.82144e-05,2.78158e-05,-1.15438e-05,1.39183e-06,1.8029e-05,-1.212e-05,9.47043e-06,-1.76902e-06,0
-2.90619e-05,2.79106e-05,-1.19556e-05,4.11674e-05,2.01685e-05,-1.43519e-05,1.13259e-05,-1.99273e-06,0
-3.40974e-05,2.5359e-05,-1.17088e-05,6.9118e-05,2.33465e-05,-1.70102e-05,1.26498e-05,-2.81459e-06,0
-4.08808e-05,2.13534e-05,-1.19297e-05,8.51809e-05,2.5484e-05,-1.81241e-05,1.28581e-05,-4.70303e-06,0
-4.31887e-05,1.77836e-05,-1.22705e-05,9.52617e-05,2.51015e-05,-1.74979e-05,1.09398e-05,-5.07964e-06,0
-3.96879e-05,1.73636e-05,-1.13253e-05,9.33076e-05,2.46645e-05,-1.5527e-05,8.37317e-06,-3.33336e-06,0
-3.50449e-05,2.00219e-05,-9.68742e-06,7.56651e-05,2.40949e-05,-1.38576e-05,7.5476e-06,-2.508e-06,0
-3.33953e-05,2.19813e-05,-8.43505e-06,5.23348e-05,2.24078e-05,-1.2671e-05,9.2086e-06,-3.45977e-06,0
-3.40716e-05,2.22292e-05,-6.96307e-06,3.59935e-05,1.84638e-05,-1.20228e-05,1.49751e-05,-5.63373e-06,0
-3.41776e-05,2.31443e-05,-4.70067e-06,2.68179e-05,1.29267e-05,-1.35434e-05,2.51334e-05,-7.65166e-06,0
-3.36801e-05,2.44574e-05,-2.64098e-06,1.91034e-05,6.60829e-06,-1.64641e-05,3.59671e-05,-7.48855e-06,0
-3.32479e-05,2.46494e-05,-1.9234e-06,8.55472e-06,2.0815e-06,-1.7974e-05,4.0467e-05,-4.82219e-06,0
-3.23442e-05,2.20897e-05,-2.16914e-06,-2.64759e-06,8.20165e-07,-1.72277e-05,3.48618e-05,-2.13325e-06,0
-3.04488e-05,1.87583e-05,-1.6962e-06,-9.9362e-06,3.15376e-06,-1.50502e-05,2.22155e-05,-8.92917e-08,0
-3.08185e-05,1.71221e-05,-5.70005e-08,-1.15819e-05,8.03576e-06,-1.18039e-05,1.27794e-05,1.38806e-06,0
-3.56778e-05,1.67452e-05,9.60896e-08,-9.00983e-06,1.15584e-05,-1.03935e-05,9.48037e-06,2.8909e-06,0
-3.95396e-05,1.57787e-05,-1.2836e-06,-3.09429e-07,1.22378e-05,-1.06517e-05,6.68791e-06,3.70822e-06,0
-3.70338e-05,1.56276e-05,-2.56703e-07,1.63254e-05,1.20575e-05,-8.75381e-06,1.51592e-06,2.98421e-06,0
-3.03242e-05,1.71739e-05,1.39804e-06,2.9358e-05,1.30821e-05,-5.78948e-06,-6.11786e-07,2.56157e-06,0
-2.51989e-05,1.78315e-05,7.05999e-07,2.57057e-05,1.38429e-05,-3.85425e-06,4.19113e-06,4.26555e-06,0
-2.3755e-05,1.69385e-05,-1.1598e-06,6.14676e-06,1.26162e-05,-3.97007e-06,1.30925e-05,5.844e-06,0
-2.43929e-05,1.48206e-05,-2.67826e-06,-1.50647e-05,1.06754e-05,-5.4305e-06,2.20214e-05,4.7128e-06,0
-2.68779e-05,1.12993e-05,-4.07528e-06,-2.79669e-05,6.98198e-06,-4.82045e-06,2.8431e-05,2.37161e-06,0
-2.9261e-05,7.96683e-06,-4.48823e-06,-3.45261e-05,4.87231e-06,-2.55041e-06,3.01681e-05,7.99506e-07,0
-2.98029e-05,6.45044e-06,-2.28495e-06,-3.64518e-05,7.02157e-06,-1.74403e-06,2.73107e-05,1.25174e-06,0
-2.9422e-05,6.63607e-06,-6.38992e-07,-4.11533e-05,9.0637e-06,-4.06511e-06,2.1558e-05,4.40299e-06,0
-2.9385e-05,8.4426e-06,-4.68513e-07,-5.19119e-05,8.48867e-06,-8.74233e-06,1.51199e-05,6.17779e-06,0
-2.83631e-05,1.05656e-05,4.37525e-07,-6.50984e-05,3.64658e-06,-1.12315e-05,1.03921e-05,4.46657e-06,0
-2.74832e-05,1.19499e-05,7.01849e-10,-7.16773e-05,1.78028e-07,-9.46008e-06,5.76691e-06,2.88228e-06,0
-2.88023e-05,1.09972e-05,-2.9586e-06,-6.41765e-05,2.55235e-06,-7.08512e-06,4.70004e-07,2.51554e-06,0
-3.00575e-05,8.3193e-06,-6.74712e-06,-4.63218e-05,8.98004e-06,-5.90275e-06,-5.5009e-06,2.00665e-06,0
-2.98337e-05,7.49128e-06,-9.25535e-06,-2.73346e-05,1.54089e-05,-6.22591e-06,-9.66249e-06,6.68645e-07,0
-2.88669e-05,8.23876e-06,-9.88161e-06,-1.3606e-05,1.92328e-05,-7.30367e-06,-1.09721e-05,2.93754e-07,0
-2.86353e-05,8.97348e-06,-9.21322e-06,-3.90339e-06,1.8235e-05,-8.07334e-06,-1.05972e-05,9.02128e-07,0
-2.86084e-05,9.12858e-06,-8.22961e-06,-9.54168e-08,1.36755e-05,-6.72917e-06,-8.71779e-06,6.86576e-07,0
-2.85013e-05,9.89054e-06,-8.34008e-06,-3.41768e-07,9.57939e-06,-4.60666e-06,-6.65521e-06,-3.79245e-09,0
-2.86286e-05,1.0633e-05,-8.27633e-06,2.75239e-06,7.74266e-06,-4.36709e-06,-6.39678e-06,-2.1215e-07,0
-2.89234e-05,8.6861e-06,-7.61356e-06,1.03923e-05,8.88015e-06,-4.7201e-06,-7.08912e-06,4.2681e-07,0
-2.76698e-05,4.27533e-06,-7.30542e-06,1.14461e-05,1.09402e-05,-3.94259e-06,-5.73919e-06,1.71552e-06,0
-2.54576e-05,-5.68101e-07,-7.60947e-06,-2.89527e-07,1.15803e-05,-2.85657e-06,-1.35166e-06,2.70011e-06,0
-2.51956e-05,-4.30174e-06,-7.70515e-06,-1.55056e-05,1.1703e-05,-3.42237e-06,3.73485e-06,3.26642e-06,0
-2.71873e-05,-6.50596e-06,-7.07526e-06,-2.11114e-05,1.43378e-05,-5.69253e-06,3.74889e-06,3.00652e-06,0
-2.75456e-05,-6.43015e-06,-6.55754e-06,-1.82036e-05,1.91634e-05,-7.95025e-06,-8.48625e-06,1.94868e-06,0
-2.56029e-05,-5.48923e-06,-5.91837e-06,-1.45226e-05,2.38001e-05,-8.22679e-06,-3.17694e-05,1.66101e-06,0
-2.41607e-05,-4.02942e-06,-5.18326e-06,-1.21942e-05,2.4868e-05,-6.47861e-06,-4.76222e-05,1.23467e-06,0
-2.42861e-05,-8.15839e-08,-5.04887e-06,-1.17614e-05,2.36243e-05,-5.09763e-06,-4.15462e-05,1.38222e-06,0
-2.58683e-05,3.65321e-06,-4.8811e-06,-1.47057e-05,2.20603e-05,-5.72689e-06,-1.97881e-05,2.94986e-06,0
-2.6275e-05,5.39129e-06,-4.03138e-06,-1.98383e-05,2.14925e-05,-5.291e-06,6.21418e-06,4.72578e-06,0
-2.67695e-05,4.87168e-06,-4.65043e-06,-2.25279e-05,2.38823e-05,-4.0698e-06,2.79047e-05,5.14487e-06,0
-2.79547e-05,4.04266e-06,-8.20323e-06,-2.25608e-05,2.53695e-05,-2.99243e-06,4.34912e-05,3.77764e-06,0
-2.82654e-05,3.61088e-06,-1.03951e-05,-2.09839e-05,2.36731e-05,-3.53297e-06,5.27319e-05,3.33086e-06,0
-2.86393e-05,3.202e-06,-9.8299e-06,-2.01832e-05,2.14793e-05,-4.25547e-06,5.42025e-05,2.91311e-06,0
-3.0045e-05,4.5015e-06,-9.50989e-06,-1.89774e-05,1.83382e-05,-3.75882e-06,5.27156e-05,1.72527e-06,0
-3.0668e-05,6.4671e-06,-1.08824e-05,-9.46127e-06,1.31306e-05,-5.01235e-06,4.99851e-05,8.4401e-07,0
-2.83105e-05,9.09622e-06,-1.31238e-05,7.86476e-06,9.90552e-06,-7.94255e-06,4.6551e-05,9.91818e-07,0
-2.70033e-05,8.84621e-06,-1.45513e-05,2.40045e-05,1.0522e-05,-8.11926e-06,4.19524e-05,1.66832e-06,0
-2.85542e-05,7.96511e-06,-1.40483e-05,3.04345e-05,1.26546e-05,-4.64358e-06,3.72266e-05,3.32479e-06,0
-3.03469e-05,1.01937e-05,-1.21454e-05,2.30495e-05,1.54584e-05,-1.57926e-06,3.31719e-05,5.4558e-06,0
-3.11377e-05,1.40714e-05,-1.12613e-05,6.68014e-06,1.67446e-05,3.22672e-07,2.83468e-05,7.11147e-06,0
-3.1454e-05,1.53771e-05,-1.14601e-05,-1.17861e-05,1.429e-05,-2.14805e-07,2.47221e-05,7.2231e-06,0
-3.10043e-05,1.3422e-05,-1.16901e-05,-2.66705e-05,1.08534e-05,-2.4167e-06,2.41754e-05,4.80407e-06,0
-3.00788e-05,1.21325e-05,-1.17068e-05,-2.96752e-05,1.02934e-05,-4.31195e-06,2.53847e-05,1.95408e-06,0
-3.03167e-05,1.39855e-05,-1.14267e-05,-1.64786e-05,1.17927e-05,-4.42499e-06,2.46872e-05,9.11959e-07,0
-3.07702e-05,1.91897e-05,-1.00737e-05,2.73079e-06,1.24716e-05,-5.02291e-06,2.1945e-05,1.1001e-06,0
-3.02129e-05,2.39199e-05,-9.38605e-06,1.45513e-05,1.19716e-05,-8.27488e-06,1.81294e-05,3.12921e-07,0
-2.94303e-05,2.6448e-05,-1.02869e-05,1.65698e-05,1.09246e-05,-1.38139e-05,1.44063e-05,-6.22489e-07,0
-2.9491e-05,2.84874e-05,-1.01779e-05,1.33353e-05,1.00494e-05,-2.03089e-05,1.24852e-05,-4.7268e-07,0
-3.0339e-05,3.40087e-05,-9.00056e-06,6.45119e-06,1.02974e-05,-2.74445e-05,1.19425e-05,-6.61071e-08,0
-3.143e-05,4.37884e-05,-8.44922e-06,-5.36534e-06,1.09415e-05,-3.62391e-05,1.05882e-05,-1.65784e-06,0
-3.15517e-05,5.36482e-05,-8.16209e-06,-2.16315e-05,1.11859e-05,-4.16459e-05,1.00665e-05,-4.16285e-06,0
-3.07737e-05,5.71739e-05,-9.12571e-06,-4.00341e-05,1.1868e-05,-3.87828e-05,1.12158e-05,-5.02603e-06,0
-2.99375e-05,5.19689e-05,-1.01963e-05,-6.02145e-05,1.21286e-05,-3.20641e-05,1.20883e-05,-4.80774e-06,0
-2.91853e-05,3.79256e-05,-9.33234e-06,-7.62712e-05,1.05995e-05,-2.78295e-05,1.22023e-05,-5.54692e-06,0
-2.87766e-05,2.06355e-05,-9.00134e-06,-8.0056e-05,7.5754e-06,-2.4903e-05,1.16928e-05,-5.84194e-06,0
-2.96202e-05,4.50461e-06,-1.03432e-05,-7.29074e-05,5.83498e-06,-2.09134e-05,1.06777e-05,-4.65947e-06,0
-3.12375e-05,-1.00637e-05,-1.20767e-05,-5.40959e-05,7.22035e-06,-1.99877e-05,9.82733e-06,-1.90285e-06,0
-3.45186e-05,-2.31181e-05,-1.15756e-05,-2.31174e-05,8.01371e-06,-2.2221e-05,8.81143e-06,2.33683e-07,0
-3.70312e-05,-3.15485e-05,-1.00836e-05,8.27063e-06,6.42995e-06,-2.14584e-05,7.22487e-06,1.04625e-06,0
-3.66408e-05,-2.88859e-05,-8.97109e-06,2.89916e-05,5.34917e-06,-1.85517e-05,5.97942e-06,1.68345e-06,0
-3.54851e-05,-1.59251e-05,-7.31719e-06,3.63453e-05,4.7648e-06,-1.6868e-05,4.65315e-06,1.42088e-06,0
-3.32963e-05,3.36371e-06,-7.68463e-06,3.22617e-05,3.82923e-06,-1.62037e-05,4.42896e-06,1.1136e-06,0
-3.05439e-05,2.58679e-05,-9.17574e-06,2.5152e-05,4.21031e-06,-1.46734e-05,4.59759e-06,2.0199e-06,0
-2.88854e-05,4.66528e-05,-9.44158e-06,1.86611e-05,6.2326e-06,-1.30798e-05,3.59802e-06,2.97149e-06,0
-2.87323e-05,5.67185e-05,-8.77742e-06,1.01708e-05,7.6379e-06,-1.41377e-05,3.37765e-06,2.06274e-06,0
-2.96417e-05,5.44592e-05,-8.34079e-06,1.7104e-06,7.69706e-06,-1.80408e-05,5.51988e-06,1.04692e-07,0
-3.09898e-05,4.58805e-05,-9.50145e-06,-7.31973e-07,8.04696e-06,-2.18128e-05,8.99909e-06,-2.23771e-07,0
-3.21442e-05,3.42131e-05,-1.10008e-05,2.12808e-06,1.00085e-05,-2.42423e-05,1.17063e-05,1.92149e-06,0
-3.31265e-05,2.02246e-05,-1.21831e-05,4.58691e-06,1.21718e-05,-2.49248e-05,1.40101e-05,3.5492e-06,0
-3.31881e-05,7.86593e-06,-1.28731e-05,5.61572e-06,1.2157e-05,-2.38843e-05,1.49329e-05,3.80182e-06,0
-3.22541e-05,-2.59161e-06,-1.29107e-05,7.26425e-06,9.7693e-06,-2.31873e-05,1.26353e-05,4.11909e-06,0
-3.01014e-05,-1.50582e-05,-1.21094e-05,1.24373e-05,5.89139e-06,-2.15272e-05,6.6246e-06,4.87662e-06,0
-2.80338e-05,-2.80954e-05,-1.07771e-05,2.14939e-05,3.07498e-06,-1.67335e-05,-1.43533e-06,5.47187e-06,0
-2.79065e-05,-3.54306e-05,-1.01175e-05,2.81431e-05,2.57904e-06,-1.20486e-05,-7.20218e-06,6.17803e-06,0
-2.88363e-05,-3.54425e-05,-1.08593e-05,2.67701e-05,3.21557e-06,-8.85368e-06,-8.45131e-06,5.54829e-06,0
-2.998e-05,-3.23787e-05,-1.21279e-05,1.99113e-05,4.8746e-06,-2.94953e-07,-6.52346e-06,2.90973e-06,0
-3.27548e-05,-2.79369e-05,-1.23453e-05,1.24738e-05,7.42992e-06,1.03673e-05,-4.10929e-06,3.6266e-07,0
-3.57802e-05,-2.17645e-05,-1.12212e-05,4.79491e-06,9.02004e-06,7.81079e-06,-8.07693e-07,7.33829e-07,0
-3.57939e-05,-1.44978e-05,-1.00714e-05,-4.15735e-06,1.04558e-05,-6.01861e-06,5.31166e-06,3.03457e-06,0
-3.2828e-05,-5.96804e-06,-9.93977e-06,-1.38427e-05,1.15768e-05,-1.40959e-05,1.42566e-05,4.62201e-06,0
-2.97558e-05,5.18541e-06,-1.0204e-05,-2.25587e-05,1.09379e-05,-1.25557e-05,2.0475e-05,4.69518e-06,0
-2.81814e-05,1.46231e-05,-1.05644e-05,-2.6039e-05,1.04374e-05,-7.99291e-06,2.28698e-05,3.65789e-06,0
-2.8183e-05,1.9628e-05,-8.67028e-06,-2.36714e-05,1.32553e-05,-2.95934e-06,2.73571e-05,3.01068e-06,0
-3.02224e-05,2.05171e-05,-4.97226e-06,-1.9997e-05,1.86795e-05,2.74404e-06,3.19987e-05,2.10415e-06,0
-3.31384e-05,1.89947e-05,-2.53747e-06,-1.39012e-05,2.10105e-05,5.20826e-06,3.33145e-05,1.43479e-06,0
-3.56839e-05,1.46177e-05,-2.55636e-06,5.85944e-08,2.22112e-05,3.74093e-06,3.21838e-05,2.80262e-06,0
-3.77894e-05,8.19389e-06,-4.87647e-06,1.59351e-05,2.67014e-05,3.01715e-06,3.15398e-05,5.06998e-06,0
-4.12809e-05,3.82729e-06,-6.79695e-06,2.57328e-05,3.4041e-05,2.4049e-06,3.23108e-05,5.73086e-06,0
-4.31118e-05,3.12831e-06,-7.24494e-06,2.82924e-05,3.98155e-05,-2.04606e-06,3.12846e-05,5.00122e-06,0
-4.09842e-05,5.956e-06,-7.60454e-06,2.51097e-05,4.07355e-05,-1.10385e-05,2.94063e-05,5.30058e-06,0
-3.82326e-05,7.93207e-06,-7.84433e-06,1.89228e-05,3.82831e-05,-2.68605e-05,2.79863e-05,4.80066e-06,0
-3.58506e-05,1.04445e-05,-7.49498e-06,1.24329e-05,3.42459e-05,-4.97205e-05,2.63105e-05,2.45467e-06,0
-3.26238e-05,1.44919e-05,-6.88518e-06,5.38712e-06,3.03664e-05,-5.88543e-05,2.3834e-05,7.20702e-07,0
-2.73361e-05,1.87035e-05,-5.77988e-06,-3.06021e-06,2.65321e-05,-3.60374e-05,2.11543e-05,-9.8986e-11,0
-1.97725e-05,2.14935e-05,-4.75059e-06,-8.62638e-06,2.22978e-05,1.3872e-06,2.00397e-05,-7.05566e-07,0
-1.47483e-05,2.30425e-05,-4.62532e-06,-8.94433e-06,1.77994e-05,2.20238e-05,1.99419e-05,-1.33318e-06,0
-1.96173e-05,2.40378e-05,-5.8384e-06,-5.39837e-06,1.34119e-05,1.64107e-05,1.81192e-05,-1.55246e-06,0
-3.16338e-05,2.43735e-05,-7.71703e-06,-3.02019e-06,9.09341e-06,-2.54577e-07,1.52095e-05,-2.12482e-06,0
-3.79354e-05,2.43624e-05,-9.37391e-06,-3.26414e-06,6.39331e-06,-1.18453e-05,1.37506e-05,-3.45612e-06,0
-3.26213e-05,2.43539e-05,-9.84069e-06,-4.75697e-06,6.05546e-06,-1.3754e-05,1.30568e-05,-5.12897e-06,0
-2.3733e-05,2.52975e-05,-9.64306e-06,-7.68154e-06,6.24579e-06,-1.05754e-05,1.14155e-05,-5.43485e-06,0
-1.91579e-05,2.62463e-05,-9.85379e-06,-1.26011e-05,5.07233e-06,-6.29615e-06,9.34374e-06,-4.13819e-06,0
-1.93516e-05,2.75026e-05,-9.43522e-06,-1.73446e-05,3.06065e-06,-2.20252e-06,8.34181e-06,-2.97741e-06,0
