ch1,ch2,ch3,ch4,ch5,ch6,ch7,ch8,class
-0.00011608,0.000134146,7.90925e-06,-8.7161e-06,-1.03049e-05,-4.43461e-07,7.38018e-06,-1.39889e-05,0
-9.74615e-05,0.000103415,5.06191e-06,6.15586e-06,5.89026e-06,-2.13942e-07,-8.21567e-06,-1.03651e-05,0
-8.30736e-05,3.05061e-05,-2.56916e-06,1.83211e-05,6.29659e-06,-4.64496e-06,-2.3761e-05,-7.73879e-06,0
-7.94698e-05,-6.53826e-05,-1.11498e-05,2.66613e-05,5.20308e-06,-1.03864e-05,-2.1987e-05,-5.81705e-06,0
-7.69615e-05,-0.000131369,-1.84797e-05,3.30788e-05,9.93051e-06,-1.4938e-05,-8.10932e-07,-6.30345e-06,0
-6.44409e-05,-0.000128372,-2.42668e-05,3.69642e-05,1.50153e-05,-1.86643e-05,2.15735e-05,-6.30137e-06,0
-4.36939e-05,-8.20781e-05,-2.81592e-05,4.29524e-05,1.35665e-05,-2.26647e-05,2.67381e-05,-2.63362e-06,0
-2.99585e-05,-3.87494e-05,-3.05299e-05,5.39932e-05,7.2726e-06,-2.62612e-05,1.65974e-05,5.41366e-07,0
-3.30634e-05,-1.0104e-05,-2.95143e-05,5.78619e-05,4.39464e-06,-2.73588e-05,1.03995e-05,1.15793e-06,0
-4.47033e-05,7.42807e-06,-2.53875e-05,4.9905e-05,7.79663e-07,-3.12154e-05,2.39288e-05,2.07884e-06,0
-5.32859e-05,2.07047e-05,-1.84153e-05,3.60955e-05,-8.715e-06,-3.34257e-05,5.28013e-05,4.72911e-06,0
-6.67331e-05,3.16222e-05,-6.91265e-06,1.88042e-05,-1.30649e-05,-3.60343e-05,8.62295e-05,6.23713e-06,0
-9.31855e-05,2.46321e-05,7.12811e-06,5.57656e-06,-1.53554e-05,-4.98847e-05,0.000103275,5.23414e-06,0
-0.000110198,-3.81949e-06,2.4869e-05,-2.71663e-06,-2.28908e-05,-5.70311e-05,7.3102e-05,6.68415e-06,0
-9.58554e-05,-3.3581e-05,4.26393e-05,-1.15619e-05,-2.07427e-05,-3.96211e-05,8.68712e-06,8.3683e-06,0
-6.15705e-05,-4.89933e-05,4.97059e-05,-1.52641e-05,2.5286e-06,-3.15702e-07,-4.68759e-05,7.61841e-06,0
-3.89557e-05,-4.59278e-05,3.98181e-05,-9.22637e-06,3.34975e-05,4.65061e-05,-7.40093e-05,7.36276e-06,0
-3.92834e-05,-2.60372e-05,1.51598e-05,-3.78906e-06,4.49235e-05,6.45011e-05,-7.25184e-05,7.82442e-06,0
-3.52129e-05,8.92831e-06,-1.6642e-05,-2.92466e-06,4.74079e-05,4.16663e-05,-5.35902e-05,7.86597e-06,0
-7.23451e-06,4.77978e-05,-4.54291e-05,-7.83894e-06,6.28579e-05,1.30177e-05,-2.82027e-05,6.71177e-06,0
2.55966e-05,7.67688e-05,-6.47491e-05,-2.26608e-05,7.21355e-05,-8.88287e-06,-3.36229e-06,4.68447e-06,0
3.32445e-05,8.62123e-05,-7.26538e-05,-4.28508e-05,5.8964e-05,-2.61887e-05,1.43028e-05,4.9952e-06,0
2.37153e-05,7.0949e-05,-6.96058e-05,-5.43889e-05,3.33559e-05,-3.62529e-05,2.26065e-05,8.07216e-06,0
2.29481e-05,4.67796e-05,-5.89603e-05,-4.59467e-05,1.84272e-05,-3.41361e-05,2.40589e-05,9.77494e-06,0
3.09138e-05,2.82602e-05,-4.55098e-05,-2.14811e-05,1.46547e-05,-2.29465e-05,2.33349e-05,8.43138e-06,0
3.34911e-05,1.36257e-05,-3.26849e-05,5.46129e-06,4.94614e-07,-1.30131e-05,2.59521e-05,7.10901e-06,0
2.64923e-05,-1.87502e-06,-2.15758e-05,2.33429e-05,-2.5837e-05,-1.17726e-05,3.5166e-05,7.44202e-06,0
1.47096e-05,-2.51489e-06,-1.24313e-05,3.13578e-05,-4.03101e-05,-1.46819e-05,4.54495e-05,7.44338e-06,0
-6.6217e-07,2.69293e-05,-2.35737e-06,3.04603e-05,-2.92123e-05,-2.03416e-06,4.74481e-05,6.02977e-06,0
-1.76156e-05,6.05779e-05,1.05553e-05,1.73234e-05,-3.06249e-06,2.74428e-05,3.74144e-05,3.94433e-06,0
-2.87726e-05,5.52967e-05,2.37043e-05,-6.15696e-06,2.09359e-05,4.65349e-05,2.51185e-05,3.09038e-06,0
-2.41613e-05,9.67931e-06,3.3387e-05,-2.57147e-05,3.15083e-05,3.94852e-05,2.21953e-05,3.58974e-06,0
-5.29441e-06,-4.88077e-05,3.73605e-05,-2.99613e-05,3.05747e-05,2.51683e-05,2.48251e-05,4.00029e-06,0
1.2414e-05,-8.30096e-05,3.26299e-05,-2.30282e-05,2.41447e-05,1.78275e-05,1.75038e-05,4.04438e-06,0
1.38651e-05,-4.9506e-05,1.8943e-05,-1.14148e-05,2.03337e-05,1.39733e-05,-1.56379e-05,4.02241e-06,0
-2.7841e-06,2.52356e-05,-1.69708e-06,5.04824e-06,2.60919e-05,5.68296e-06,-6.84377e-05,4.15789e-06,0
-2.26028e-05,9.03481e-05,-2.38897e-05,2.02551e-05,3.46189e-05,-1.90137e-06,-0.000110336,5.85736e-06,0
-3.32108e-05,0.000127536,-4.24908e-05,2.69585e-05,3.60061e-05,-2.29244e-06,-0.000120735,7.15762e-06,0
-3.82718e-05,0.000112926,-5.12739e-05,3.17271e-05,3.25183e-05,3.10264e-06,-9.18441e-05,8.31058e-06,0
-3.90123e-05,6.76483e-05,-4.57777e-05,4.24389e-05,2.96332e-05,8.6242e-06,-4.12669e-05,8.71937e-06,0
-3.78423e-05,2.15332e-05,-3.2269e-05,5.3744e-05,2.93419e-05,1.0224e-05,8.48563e-06,6.97009e-06,0
-3.86374e-05,-1.8698e-05,-2.12106e-05,5.55419e-05,3.12687e-05,6.44992e-06,5.60868e-05,4.56784e-06,0
-3.85604e-05,-3.50321e-05,-1.46768e-05,4.80302e-05,3.5633e-05,-8.77126e-06,9.81638e-05,3.57023e-06,0
-3.51915e-05,-2.37555e-05,-7.18001e-06,3.62181e-05,3.78884e-05,-3.6126e-05,0.000119524,3.50285e-06,0
-3.2179e-05,9.83231e-06,5.00986e-08,2.54591e-05,3.46438e-05,-4.16774e-05,0.000134732,2.03828e-06,0
-3.32744e-05,4.49742e-05,4.90002e-06,1.99676e-05,2.90705e-05,-1.17759e-05,0.000175844,4.54463e-07,0
-3.61923e-05,5.86009e-05,6.17057e-06,1.67729e-05,2.36212e-05,1.17753e-05,0.000230622,-1.06211e-06,0
-4.0451e-05,4.84503e-05,3.38867e-06,1.12995e-05,1.83147e-05,9.49207e-06,0.000253484,-1.31899e-06,0
-4.29273e-05,3.06097e-05,-1.30597e-06,1.21969e-06,1.14719e-05,-5.75223e-06,0.000205902,-4.46492e-07,0
-4.00543e-05,1.87531e-05,-5.48602e-06,-1.16298e-05,2.32591e-06,-1.63775e-05,9.70557e-05,-1.07587e-07,0
-3.43443e-05,9.02014e-06,-8.27929e-06,-2.78742e-05,-7.76197e-06,-2.0735e-05,-4.35008e-05,-1.38066e-06,0
-2.92243e-05,-1.28994e-05,-1.08191e-05,-5.48531e-05,-1.50656e-05,-2.21761e-05,-0.000170282,-1.61523e-06,0
-1.72405e-05,-4.25813e-05,-1.4131e-05,-9.36189e-05,-1.70749e-05,-2.2406e-05,-0.000238649,-1.25023e-07,0
6.89915e-06,-5.81874e-05,-1.70423e-05,-0.000131299,-1.50001e-05,-2.20365e-05,-0.000258489,1.02845e-07,0
2.25226e-05,-5.1765e-05,-1.7044e-05,-0.000144186,-1.18588e-05,-1.99434e-05,-0.000266447,-2.07147e-06,0
2.49372e-06,-2.91479e-05,-1.42845e-05,-0.000118597,-7.66179e-06,-1.44914e-05,-0.000244664,-5.67326e-06,0
-4.83967e-05,6.17912e-07,-1.04567e-05,-6.43441e-05,-3.9426e-07,-4.99381e-06,-0.000159673,-8.32939e-06,0
-9.52892e-05,2.555e-05,-8.10758e-06,-6.92524e-06,5.84936e-06,5.16571e-06,-3.62912e-05,-8.82195e-06,0
-0.000110118,2.87787e-05,-9.5464e-06,3.26467e-05,4.0032e-06,1.25934e-05,7.44509e-05,-9.04322e-06,0
-9.0272e-05,-2.0991e-06,-1.4343e-05,5.40503e-05,-3.62221e-06,1.10514e-05,0.000136348,-1.08601e-05,0
-4.5965e-05,-5.047e-05,-1.95761e-05,7.80628e-05,-8.93507e-06,-3.84965e-06,0.000152207,-1.18879e-05,0
1.53143e-05,-6.7235e-05,-2.04994e-05,0.000127308,-5.70341e-06,-2.4478e-05,0.000141106,-1.2417e-05,0
8.01572e-05,-1.47381e-05,-1.58558e-05,0.000186809,5.55771e-06,-4.49397e-05,0.000120177,-1.23322e-05,0
0.000122718,9.45668e-05,-9.59941e-06,0.000214521,1.3002e-05,-6.75297e-05,9.76647e-05,-1.10028e-05,0
0.00012885,0.000178603,-2.04912e-06,0.000192512,2.87314e-05,-7.11135e-05,7.44657e-05,-9.87289e-06,0
9.36068e-05,0.000160952,2.43122e-06,0.000140559,6.92594e-05,-4.70992e-05,5.75238e-05,-1.05514e-05,0
3.36718e-05,8.80186e-05,6.81661e-07,7.67191e-05,0.000107305,-1.42377e-05,4.84929e-05,-1.12739e-05,0
-2.85225e-05,1.78177e-05,-2.98875e-06,-1.82797e-06,0.000116057,2.83378e-05,4.13252e-05,-9.34115e-06,0
-7.78361e-05,-4.76664e-05,-5.28363e-06,-7.68188e-05,8.99309e-05,4.87346e-05,3.70649e-05,-3.64279e-06,0
-9.16782e-05,-8.65484e-05,-4.61078e-06,-0.000121965,3.62346e-05,2.3352e-05,3.25725e-05,1.42503e-05,0
-8.10536e-05,-9.44526e-05,-1.02384e-06,-0.000140957,-2.5398e-05,-6.93226e-06,2.45657e-05,3.60056e-05,0
-7.50097e-05,-8.48372e-05,3.18678e-06,-0.000148384,-6.36518e-05,-2.06201e-05,1.31733e-05,4.5829e-05,0
-7.87022e-05,-7.47846e-05,4.08383e-06,-0.000142995,-6.72459e-05,-1.70833e-05,2.71383e-06,4.35929e-05,0
-6.80927e-05,-4.41879e-05,2.72876e-06,-0.000125409,-4.96392e-05,-1.18669e-05,-2.56408e-06,2.93913e-05,0
-4.707e-05,1.31564e-05,8.61628e-07,-0.000106823,-3.9014e-06,-1.36305e-05,-4.95974e-06,6.53265e-06,0
-4.55876e-05,6.54445e-05,-9.14654e-07,-9.03656e-05,6.73252e-05,-1.95775e-05,-7.23074e-06,-1.76424e-05,0
-6.985e-05,9.08562e-05,-1.76822e-06,-7.3701e-05,0.000114459,-2.46239e-05,-7.43182e-06,-3.45643e-05,0
-9.90383e-05,8.47209e-05,-2.00405e-07,-5.38382e-05,0.00010343,-2.61134e-05,-3.01651e-06,-4.12763e-05,0
-0.000114796,5.0048e-05,3.79267e-06,-3.16476e-05,5.70879e-05,-2.543e-05,2.47151e-06,-3.91932e-05,0
-0.000121694,-1.13185e-05,8.29481e-06,-1.77424e-05,1.21773e-05,-2.01004e-05,7.80747e-06,-3.29017e-05,0
-0.000131959,-8.08058e-05,1.25189e-05,-3.92697e-05,-2.05847e-05,-1.32776e-05,1.29458e-05,-2.57213e-05,0
-0.00015735,-0.000137655,1.83688e-05,-0.000104509,-4.63016e-05,-5.68447e-06,1.83502e-05,-1.57492e-05,0
-0.000188958,-0.000153594,2.99934e-05,-0.000163759,-6.28395e-05,2.43078e-06,2.29146e-05,-4.67182e-06,0
-0.000201244,-0.000114403,4.81357e-05,-0.000163221,-6.51258e-05,1.34887e-05,2.67339e-05,2.07751e-06,0
-0.000175587,-3.50032e-05,6.69346e-05,-0.000107226,-4.88887e-05,2.25583e-05,2.87291e-05,3.69374e-06,0
-0.000114912,3.80605e-05,7.75641e-05,-3.30092e-05,-2.04913e-05,2.56362e-05,2.76266e-05,4.83928e-06,0
-3.46015e-05,7.38026e-05,7.18731e-05,2.57963e-05,9.6629e-06,1.89316e-05,2.3995e-05,7.83567e-06,0
2.95375e-05,6.9888e-05,4.62149e-05,5.50788e-05,3.48516e-05,-2.71636e-06,2.18447e-05,1.22474e-05,0
5.37816e-05,4.02397e-05,5.81352e-06,6.28627e-05,4.71068e-05,-3.93615e-05,2.18444e-05,1.522e-05,0
6.00075e-05,7.91768e-06,-4.1238e-05,6.19809e-05,2.50889e-05,-6.24525e-05,2.0636e-05,1.59027e-05,0
7.08667e-05,-2.66233e-06,-8.07344e-05,5.4473e-05,-2.27509e-05,-5.14545e-05,1.73814e-05,1.53814e-05,0
7.4089e-05,2.56093e-05,-0.000100143,4.26159e-05,-4.43633e-05,-2.34904e-05,1.29116e-05,1.39611e-05,0
5.61023e-05,7.2244e-05,-9.62144e-05,3.316e-05,-2.41192e-05,-3.16175e-06,1.1373e-05,1.25495e-05,0
3.06761e-05,0.000109157,-8.04916e-05,1.86017e-05,5.52586e-06,7.22381e-06,1.65776e-05,1.19875e-05,0
1.49426e-05,0.000146397,-6.78493e-05,-5.08148e-06,2.08925e-05,1.61334e-05,2.72377e-05,1.18971e-05,0
1.02744e-05,0.000163754,-5.95086e-05,-2.28692e-05,2.25922e-05,1.9305e-05,4.22083e-05,1.1002e-05,0
7.4639e-06,0.000124756,-5.14504e-05,-2.60874e-05,1.99662e-05,1.31499e-05,5.70903e-05,9.98413e-06,0
5.29696e-06,5.22787e-05,-3.73605e-05,-1.70047e-05,2.29414e-05,-3.73808e-07,6.2436e-05,1.12318e-05,0
9.14214e-06,-2.4129e-05,-2.11061e-05,5.82239e-07,2.91286e-05,-1.17914e-05,5.82357e-05,1.2232e-05,0
2.00295e-05,-9.51902e-05,-9.56952e-06,1.71301e-05,2.96107e-05,-1.96423e-05,5.11385e-05,1.20861e-05,0
2.52321e-05,-0.000139731,-3.43374e-06,2.44833e-05,2.23708e-05,-2.21109e-05,4.53647e-05,1.17698e-05,0
1.42269e-05,-0.000131515,-1.30121e-06,2.3918e-05,1.52257e-05,-1.57348e-05,3.72231e-05,1.05749e-05,0
-4.85841e-06,-6.77673e-05,-4.09512e-06,2.24459e-05,1.27391e-05,-5.2326e-06,2.0059e-05,9.67265e-06,0
-1.87914e-05,2.43712e-05,-1.04928e-05,3.17176e-05,1.28413e-05,1.39214e-06,-4.80111e-06,9.91477e-06,0
-2.28732e-05,9.63204e-05,-1.51846e-05,5.34691e-05,1.10105e-05,2.50045e-06,-3.99259e-05,9.87779e-06,0
-1.96637e-05,0.000124134,-1.57398e-05,6.78204e-05,7.91581e-06,1.03337e-06,-9.23466e-05,7.85756e-06,0
-1.2546e-05,0.000112788,-1.22779e-05,5.58704e-05,8.68472e-06,-1.11382e-06,-0.000143205,5.7135e-06,0
-9.9684e-06,7.44029e-05,-6.53125e-06,2.3966e-05,1.25814e-05,-2.94215e-06,-0.000151919,4.88486e-06,0
-2.19997e-05,1.71352e-05,6.99273e-08,1.01034e-06,1.33567e-05,-4.78104e-06,-0.000107883,5.46354e-06,0
-4.48752e-05,-3.25328e-05,5.74982e-06,5.9066e-06,8.95199e-06,-8.03174e-06,-4.38983e-05,5.86806e-06,0
-6.68143e-05,-4.4202e-05,1.00145e-05,2.83668e-05,5.98047e-06,-1.34833e-05,9.93044e-06,4.77481e-06,0
-8.35475e-05,-2.30526e-05,9.15495e-06,4.36277e-05,3.67963e-06,-1.70915e-05,4.49448e-05,3.43271e-06,0
-9.19264e-05,2.88021e-06,3.25629e-06,4.42775e-05,-2.4433e-06,-1.41954e-05,6.02383e-05,2.51173e-06,0
-8.04949e-05,2.36817e-05,-4.97469e-07,3.94626e-05,-5.90721e-06,-3.72672e-06,5.99644e-05,9.21859e-07,0
-5.24468e-05,4.19354e-05,1.04726e-06,3.48584e-05,1.12333e-06,5.35817e-06,5.07641e-05,-4.69984e-08,0
-4.66694e-05,4.64097e-05,3.64944e-06,3.12817e-05,2.05271e-05,-5.13538e-06,3.75499e-05,2.14123e-07,0
-5.7188e-05,3.34417e-05,4.62728e-06,2.9547e-05,4.23163e-05,-3.0201e-05,2.61279e-05,2.76841e-07,0
-3.38371e-05,1.32264e-05,4.31347e-06,2.67142e-05,5.51385e-05,-4.75565e-05,1.83215e-05,2.32174e-07,0
1.66719e-05,-2.5272e-06,9.56892e-07,1.23413e-05,7.77245e-05,-5.7634e-05,1.6651e-05,-8.37762e-07,0
4.65986e-05,-3.43368e-06,-6.74016e-06,-8.24478e-06,0.000111133,-5.85621e-05,2.24924e-05,-1.93551e-06,0
4.04125e-05,3.04508e-06,-1.53932e-05,-2.47909e-05,0.000119727,-1.97375e-05,2.90171e-05,-2.41902e-06,0
1.74834e-05,2.91964e-06,-2.12741e-05,-3.94708e-05,8.66455e-05,4.07069e-05,2.69877e-05,-1.83255e-06,0
-7.20305e-06,5.81934e-06,-2.41931e-05,-4.99023e-05,3.25489e-05,4.80068e-05,1.12828e-05,3.83288e-07,0
-2.60067e-05,1.57716e-05,-2.44925e-05,-5.42305e-05,-1.568e-05,8.86015e-06,-8.77209e-06,2.14296e-06,0
-4.3681e-05,2.39217e-05,-2.31087e-05,-6.16009e-05,-3.84091e-05,-2.41994e-05,-2.11575e-05,2.54301e-06,0
-4.96609e-05,1.98698e-05,-1.997e-05,-7.00669e-05,-2.1063e-05,-4.0011e-05,-2.12007e-05,1.68778e-06,0
-3.91826e-05,3.52332e-06,-1.62686e-05,-6.04088e-05,1.00997e-05,-4.19754e-05,-1.29726e-05,9.15218e-07,0
-2.3689e-05,-1.1176e-05,-1.2984e-05,-3.03867e-05,1.12484e-05,-2.42528e-05,-4.11627e-06,6.92188e-07,0
-1.58555e-05,-1.77687e-05,-9.16753e-06,5.74044e-06,-1.95255e-05,6.90475e-06,-3.60763e-07,-1.36909e-07,0
-1.64312e-05,-1.34544e-05,-5.48081e-06,3.14299e-05,-4.54348e-05,2.14674e-05,-9.03879e-06,-1.07839e-06,0
-1.72598e-05,-3.60895e-06,-2.8451e-06,3.90674e-05,-4.34307e-05,2.6066e-05,-3.03884e-05,-1.51735e-06,0
-2.2732e-05,-1.46872e-06,-1.28228e-06,3.08469e-05,-2.21904e-05,3.69113e-05,-4.98875e-05,-1.22506e-06,0
-3.51218e-05,-7.56418e-06,7.93843e-07,1.19022e-05,-1.98392e-06,4.09732e-05,-4.99926e-05,-9.77726e-07,0
-4.97156e-05,-1.4726e-05,3.39814e-06,-1.26144e-05,4.50458e-06,2.7456e-05,-2.94738e-05,-2.07436e-06,0
-5.69127e-05,-1.56683e-05,4.29617e-06,-3.7945e-05,-3.29909e-07,4.7323e-06,-2.28789e-06,-4.21909e-06,0
-5.6527e-05,-4.33576e-06,3.75582e-06,-5.2371e-05,-5.05001e-06,-1.26269e-05,1.94911e-05,-5.521e-06,0
-4.7405e-05,1.78805e-05,2.89136e-06,-5.2369e-05,-2.58554e-06,-1.90713e-05,3.59651e-05,-5.41558e-06,0
-3.39591e-05,3.76345e-05,5.58036e-07,-4.89176e-05,4.72777e-06,-1.98815e-05,5.17122e-05,-5.18514e-06,0
-2.29439e-05,4.57668e-05,-4.07006e-06,-5.10103e-05,1.55885e-05,-1.93005e-05,6.58537e-05,-5.7545e-06,0
-1.58969e-05,4.31003e-05,-7.48972e-06,-4.90228e-05,3.30806e-05,-1.65732e-05,7.15365e-05,-7.10832e-06,0
3.25168e-06,4.10562e-05,-7.08637e-06,-3.01312e-05,5.41539e-05,-1.229e-05,6.43171e-05,-8.3342e-06,0
5.12321e-05,5.57261e-05,-5.06982e-06,2.35994e-06,6.90954e-05,-6.72597e-06,5.10141e-05,-7.83033e-06,0
0.000102012,8.53325e-05,-3.16175e-06,3.42048e-05,7.19995e-05,-2.48062e-06,4.47477e-05,-5.83515e-06,0
0.000104799,0.000118148,-8.9835e-07,5.40405e-05,6.15544e-05,-5.29596e-07,4.88041e-05,-4.18675e-06,0
5.19711e-05,0.000130031,1.29603e-06,5.51465e-05,4.24092e-05,-3.29031e-07,5.26165e-05,-3.75463e-06,0
-2.81388e-05,0.000100541,1.68215e-06,3.90869e-05,7.65873e-06,-2.0852e-07,5.11133e-05,-5.5808e-06,0
-9.68218e-05,4.21766e-05,-3.33852e-07,2.17278e-05,-4.5438e-05,-2.63196e-06,4.84094e-05,-5.98383e-06,0
-0.000151901,-4.3514e-05,-6.14442e-07,1.03018e-05,-9.81021e-05,-8.63179e-06,4.28543e-05,-2.95953e-06,0
-0.00020192,-0.000122075,-9.85852e-07,-5.8789e-07,-0.000119327,-1.42882e-05,3.09729e-05,-1.61144e-07,0
-0.000221185,-0.000140352,-4.94284e-06,-9.29849e-06,-8.68167e-05,-1.69073e-05,1.42866e-05,1.25643e-06,0
-0.000193412,-0.0001072,-8.82916e-06,-4.21759e-06,-1.17747e-05,-1.56031e-05,-2.94807e-07,6.5184e-07,0
-0.000127604,-4.28117e-05,-9.84328e-06,2.31369e-05,7.43657e-05,-1.1399e-05,-6.3665e-06,-7.17183e-07,0
-6.73782e-05,7.98703e-06,-7.50366e-06,5.32339e-05,0.000129063,1.75439e-06,-4.33362e-06,-9.86024e-07,0
-3.04799e-05,2.10472e-05,-4.93732e-06,6.01082e-05,0.000126215,2.96437e-05,-1.68638e-06,-9.23885e-07,0
-9.81069e-06,2.17201e-05,-4.08373e-06,4.10931e-05,7.99999e-05,6.33387e-05,-7.30711e-06,-1.91804e-06,0
-2.79072e-07,2.76443e-05,-5.25579e-06,1.03775e-05,3.38736e-05,8.62857e-05,-2.28629e-05,-3.96771e-06,0
-4.16379e-06,3.87196e-05,-8.35264e-06,-1.83583e-05,1.26434e-05,8.40018e-05,-3.7244e-05,-4.86035e-06,0
-1.42608e-05,4.73797e-05,-1.31755e-05,-3.97774e-05,8.94818e-06,4.65514e-05,-3.38316e-05,-3.95659e-06,0
-2.37355e-05,5.50227e-05,-1.88276e-05,-5.13831e-05,8.5111e-06,-3.1815e-05,-1.49262e-05,-2.07966e-06,0
-3.21306e-05,6.12614e-05,-2.28424e-05,-5.2352e-05,4.59705e-06,-0.000134424,5.05034e-06,-1.08295e-06,0
-3.68011e-05,6.34563e-05,-2.28342e-05,-4.37949e-05,6.37976e-07,-0.000203335,1.93813e-05,-1.6539e-06,0
-3.78059e-05,5.85618e-05,-2.07206e-05,-3.10553e-05,1.84917e-06,-0.00019112,3.0978e-05,-2.35714e-06,0
-3.06121e-05,4.57983e-05,-2.03727e-05,-1.88643e-05,1.05132e-05,-0.000115951,4.191e-05,-2.44671e-06,0
-2.07316e-05,2.16234e-05,-2.24643e-05,-1.3296e-05,1.86459e-05,-2.71157e-05,5.07453e-05,-3.48563e-06,0
-2.11424e-05,-1.4366e-05,-2.65954e-05,-1.673e-05,1.95672e-05,3.58758e-05,5.78385e-05,-5.50219e-06,0
-3.43082e-05,-4.61739e-05,-2.96104e-05,-2.35036e-05,1.24547e-05,3.82578e-05,5.7698e-05,-5.86864e-06,0
-3.01239e-05,-5.18471e-05,-2.81729e-05,-2.59368e-05,-2.45654e-06,-1.05245e-05,3.4413e-05,-5.18841e-06,0
1.73302e-05,-3.43359e-05,-2.40553e-05,-2.06191e-05,-1.98716e-05,-4.66122e-05,-1.4248e-05,-3.70649e-06,0
8.71051e-05,-1.86602e-05,-2.06386e-05,-1.10654e-05,-2.6418e-05,-4.19262e-05,-6.41854e-05,-2.42602e-06,0
0.000133049,-2.00812e-05,-1.87138e-05,-1.03304e-05,-2.15233e-05,-2.07361e-05,-8.24038e-05,-2.8677e-06,0
0.000147278,-2.24705e-05,-1.83917e-05,-2.11145e-05,-1.54499e-05,-6.3322e-06,-5.50881e-05,-2.45816e-06,0
0.000138551,-1.24336e-06,-1.62918e-05,-2.83528e-05,-7.38846e-06,-1.47843e-06,-7.90483e-06,-1.21749e-06,0
8.77143e-05,3.83408e-05,-1.09935e-05,-2.67504e-05,1.04674e-05,2.93438e-07,2.65827e-05,-1.68779e-06,0
-1.45589e-06,4.45611e-05,-7.16692e-06,-2.57585e-05,2.68927e-05,-2.64912e-06,4.09591e-05,-4.20984e-06,0
-8.71349e-05,-1.42188e-05,-8.04595e-06,-2.78865e-05,3.28694e-05,-8.64655e-06,5.21912e-05,-5.11617e-06,0
-0.000139319,-9.5464e-05,-9.33458e-06,-2.71936e-05,3.74318e-05,-1.13244e-05,6.6205e-05,-2.95981e-06,0
-0.000144332,-0.000140723,-8.15066e-06,-1.94682e-05,4.50177e-05,-1.14531e-05,7.10261e-05,-8.52551e-08,0
-0.000125228,-0.000109501,-6.75367e-06,-4.99765e-06,5.03934e-05,-1.28525e-05,6.60407e-05,1.52815e-06,0
-0.000118938,-1.1725e-05,-3.11327e-06,9.361e-06,4.72308e-05,-1.46434e-05,6.25768e-05,1.10691e-07,0
-0.000125085,6.8567e-05,1.99114e-06,1.87642e-05,3.75585e-05,-1.19487e-05,6.32853e-05,-1.27627e-06,0
-0.000126102,6.79048e-05,5.2317e-06,2.3166e-05,2.04054e-05,-3.94261e-06,5.66727e-05,-1.20766e-06,0
-0.000114225,2.72902e-05,7.79326e-06,2.31194e-05,-7.7241e-06,8.12298e-06,4.00204e-05,-7.34329e-08,0
-9.20814e-05,-6.97334e-06,1.44057e-05,1.97072e-05,-4.45892e-05,2.28205e-05,1.34962e-05,2.14139e-08,0
-6.95842e-05,-2.06164e-05,2.53861e-05,1.94041e-05,-7.2593e-05,3.58998e-05,-1.94247e-05,-4.86094e-07,0
-6.55235e-05,-2.14119e-05,3.54628e-05,2.55268e-05,-8.0013e-05,4.14697e-05,-4.26278e-05,4.08981e-07,0
-8.02522e-05,-1.36789e-05,3.77473e-05,3.06783e-05,-6.69422e-05,3.81923e-05,-4.29179e-05,6.23016e-07,0
-9.31687e-05,2.21659e-05,2.65228e-05,2.36516e-05,-4.04025e-05,2.84414e-05,-2.44705e-05,-5.25386e-07,0
-8.62272e-05,7.47669e-05,3.54913e-06,5.34185e-06,-1.22164e-05,5.89255e-06,-1.13914e-06,-1.77718e-06,0
-6.76873e-05,9.81498e-05,-2.29349e-05,-9.39265e-06,1.49947e-05,-3.22965e-05,1.76418e-05,-1.91152e-06,0
-4.96261e-05,7.28545e-05,-4.45298e-05,-8.35383e-06,4.76894e-05,-5.97082e-05,2.98438e-05,-8.77291e-07,0
-2.62891e-05,3.66285e-05,-5.94001e-05,5.46884e-06,8.17074e-05,-5.27588e-05,3.63415e-05,1.12134e-06,0
1.17566e-06,2.09258e-05,-6.80183e-05,1.88604e-05,9.80527e-05,-3.03431e-05,3.61033e-05,2.18949e-06,0
1.18493e-05,2.62841e-05,-6.82591e-05,2.17284e-05,9.26098e-05,-1.74256e-05,2.87489e-05,2.25639e-06,0
1.60603e-06,3.57228e-05,-6.03691e-05,1.36549e-05,7.79695e-05,-1.3313e-05,1.74108e-05,1.46103e-06,0
-1.3778e-05,3.5934e-05,-5.04854e-05,2.02066e-06,6.14178e-05,-9.43193e-06,8.06891e-06,-4.77078e-07,0
-2.97243e-05,2.06054e-05,-4.28261e-05,-5.54508e-06,4.6253e-05,-5.52227e-06,5.74415e-06,-1.78232e-06,0
-4.44524e-05,1.86057e-06,-3.55534e-05,-7.76497e-06,4.80559e-05,-4.09338e-06,1.18872e-05,-1.07484e-06,0
-4.99412e-05,5.22024e-07,-2.78538e-05,-7.45523e-06,6.81614e-05,-9.89668e-07,1.8878e-05,7.92706e-07,0
-3.99687e-05,1.87856e-05,-2.07081e-05,-4.35685e-06,8.6354e-05,4.35448e-06,1.90525e-05,3.55349e-06,0
-2.25271e-05,3.55395e-05,-1.39201e-05,1.73358e-06,8.26005e-05,7.18954e-06,1.54246e-05,5.75345e-06,0
-1.21842e-05,3.24852e-05,-8.77442e-06,4.46341e-06,5.1531e-05,2.37913e-06,1.49775e-05,5.96864e-06,0
8.43552e-07,2.04053e-05,-4.93183e-06,-2.52327e-06,1.31322e-05,-1.35372e-05,2.3859e-05,4.03292e-06,0
3.17379e-05,1.68451e-05,-1.31111e-07,-1.33635e-05,-1.0735e-05,-3.13054e-05,4.06589e-05,2.79822e-06,0
7.6653e-05,2.42297e-05,8.68334e-06,-2.0603e-05,-2.07794e-05,-4.18242e-05,5.93104e-05,3.55402e-06,0
0.0001153,3.42281e-05,2.39425e-05,-2.20637e-05,-2.63077e-05,-4.71058e-05,8.14126e-05,3.34811e-06,0
0.000121405,4.22513e-05,4.11006e-05,-2.04839e-05,-2.32129e-05,-4.46597e-05,9.71436e-05,2.62145e-06,0
9.56676e-05,5.79964e-05,5.34386e-05,-2.01734e-05,-3.81623e-06,-2.95011e-05,8.59218e-05,2.41791e-06,0
4.6655e-05,8.23998e-05,5.93722e-05,-2.47556e-05,1.9553e-05,-3.54135e-06,4.78323e-05,2.74549e-06,0
-9.93726e-06,9.9873e-05,5.66258e-05,-3.31344e-05,2.8018e-05,2.97118e-05,2.32231e-07,2.4797e-06,0
-5.63444e-05,9.00208e-05,4.06478e-05,-3.86103e-05,2.20766e-05,4.57822e-05,-3.97896e-05,1.99019e-06,0
-8.23472e-05,5.15689e-05,1.31995e-05,-4.10619e-05,7.04647e-06,2.66219e-05,-6.02413e-05,1.53111e-06,0
-8.51832e-05,1.74263e-05,-1.96792e-05,-4.42115e-05,-1.67537e-05,-3.6987e-06,-6.19049e-05,7.02657e-07,0
-7.70754e-05,1.8191e-08,-4.82489e-05,-4.74522e-05,-4.14955e-05,-2.203e-05,-5.53251e-05,3.23348e-07,0
-8.22979e-05,-2.0592e-05,-6.3194e-05,-4.44192e-05,-5.2864e-05,-2.30884e-05,-4.79432e-05,1.07895e-06,0
-0.000110598,-5.42702e-05,-5.99996e-05,-3.25061e-05,-4.17014e-05,-1.46171e-05,-4.32011e-05,2.66013e-06,0
-0.000136204,-7.66858e-05,-4.06746e-05,-1.4281e-05,-1.90145e-05,-4.07629e-06,-4.15436e-05,4.14403e-06,0
-0.000129886,-6.7034e-05,-9.73049e-06,3.02332e-06,-3.14537e-06,4.72372e-06,-3.99148e-05,4.96153e-06,0
-8.88348e-05,-3.82313e-05,2.75253e-05,1.51557e-05,8.32671e-06,1.11389e-05,-3.43611e-05,5.18813e-06,0
-2.92502e-05,-1.48262e-05,6.07092e-05,2.43062e-05,2.13581e-05,1.73969e-05,-2.39544e-05,5.05417e-06,0
4.0463e-05,-6.2528e-07,8.02056e-05,3.15814e-05,2.27932e-05,2.30199e-05,-1.15507e-05,4.26062e-06,0
0.00010404,1.46609e-05,8.05743e-05,3.38195e-05,9.09434e-06,2.3437e-05,-2.99257e-06,2.76819e-06,0
0.000122294,3.1284e-05,6.06345e-05,2.38092e-05,-4.2332e-06,7.90173e-06,-1.14262e-06,7.11042e-07,0
7.30883e-05,4.10971e-05,2.28449e-05,1.03494e-06,-7.90642e-06,-2.62893e-05,-4.00791e-06,-1.5004e-06,0
-3.46302e-06,3.63206e-05,-2.37432e-05,-2.43474e-05,1.65481e-05,-5.98835e-05,-5.23443e-06,-1.09105e-06,0
-5.95822e-05,2.37364e-05,-6.46858e-05,-3.99983e-05,9.84657e-05,-6.34908e-05,1.94477e-06,1.49521e-06,0
-8.82721e-05,1.12185e-05,-8.98058e-05,-3.77206e-05,0.000184567,-4.3158e-05,1.54808e-05,3.16819e-06,0
-0.000101722,-1.23672e-05,-9.73201e-05,-1.6083e-05,0.000167676,-3.36712e-05,2.71641e-05,3.913e-06,0
-0.000104326,-3.4604e-05,-8.78626e-05,3.04041e-06,8.01498e-05,-5.44675e-05,4.05752e-05,3.03659e-06,0
-9.37301e-05,-3.70892e-05,-6.94975e-05,4.65228e-06,2.25961e-05,-8.14217e-05,6.90623e-05,1.47016e-06,0
-7.35812e-05,-2.39036e-05,-5.44226e-05,-5.01144e-06,4.66991e-06,-6.678e-05,0.000115779,-1.36239e-06,0
-5.77933e-05,-3.17234e-06,-4.53638e-05,-2.36012e-05,-7.49532e-06,-1.97715e-05,0.000170808,-5.0389e-06,0
-5.65802e-05,1.61109e-05,-3.88298e-05,-4.34192e-05,-4.20998e-05,9.78541e-06,0.000208957,-7.78462e-06,0
-5.53155e-05,3.83191e-05,-3.02044e-05,-6.16241e-05,-9.57775e-05,1.24918e-05,0.000205327,-9.65201e-06,0
-4.42428e-05,6.15402e-05,-1.94036e-05,-7.48674e-05,-0.000135756,4.31828e-06,0.00015229,-1.00746e-05,0
-3.21351e-05,7.89379e-05,-9.81599e-06,-7.07734e-05,-0.000138862,-2.20811e-06,6.11981e-05,-7.47271e-06,0
-2.5857e-05,8.39037e-05,-3.31078e-06,-3.74418e-05,-0.000107754,-4.61292e-06,-4.43374e-05,-1.85302e-06,0
-2.07086e-05,8.01077e-05,1.14479e-06,2.07723e-05,-6.30995e-05,-3.84256e-06,-0.000135769,1.93732e-06,0
-1.67516e-05,7.45267e-05,3.6998e-06,8.24259e-05,-2.42261e-05,-1.80265e-06,-0.000179605,3.4991e-06,0
-1.52723e-05,5.15791e-05,5.57459e-06,0.000125212,2.47032e-06,-6.11279e-08,-0.000167303,5.27981e-06,0
-9.5508e-06,-3.12662e-06,7.0524e-06,0.00013723,1.63527e-05,3.05669e-06,-0.000125182,7.37959e-06,0
3.46682e-06,-6.49934e-05,6.12969e-06,0.000123634,2.19833e-05,8.80523e-06,-8.56269e-05,9.34198e-06,0
1.37839e-05,-9.82217e-05,3.05408e-06,9.77104e-05,2.00767e-05,1.44548e-05,-5.93867e-05,1.11984e-05,0
1.40815e-05,-9.6646e-05,-8.72995e-07,7.01126e-05,7.83109e-06,1.38276e-05,-3.86873e-05,1.20567e-05,0
1.0478e-05,-6.70987e-05,-2.27009e-06,4.36997e-05,-6.01578e-06,8.13437e-06,-2.00387e-05,1.08293e-05,0
6.03619e-06,-2.02665e-05,6.50234e-07,2.46224e-05,-7.99711e-06,1.1493e-06,-9.15896e-06,8.67019e-06,0
-2.67905e-06,2.20443e-05,5.1721e-06,1.90148e-05,-2.66578e-06,-3.47641e-06,-1.47177e-05,6.50658e-06,0
-1.66293e-05,3.90972e-05,7.40374e-06,2.44132e-05,-1.09433e-05,-5.74091e-06,-5.32826e-05,4.06784e-06,0
-2.6159e-05,3.55116e-05,8.12131e-06,3.06474e-05,-4.20599e-05,-5.97489e-06,-0.000131444,2.56268e-07,0
-2.43973e-05,3.64803e-05,9.29956e-06,3.12913e-05,-7.52477e-05,-5.16412e-06,-0.000185326,-3.28255e-06,0
-2.20599e-05,4.8208e-05,1.11792e-05,2.92801e-05,-7.62269e-05,-6.01829e-06,-0.000148317,-3.04617e-06,0
-3.24818e-05,5.52765e-05,9.72142e-06,2.7457e-05,-4.34457e-05,-9.23019e-06,-4.58758e-05,-3.62732e-07,0
-4.69322e-05,5.23491e-05,3.86873e-06,2.17261e-05,-4.08399e-06,-1.34079e-05,5.22248e-05,1.7831e-06,0
-4.91749e-05,3.89968e-05,-9.22311e-07,6.84824e-06,2.1553e-05,-1.79124e-05,0.000104502,3.09136e-06,0
-3.94985e-05,2.53007e-05,-1.93137e-06,-1.3694e-05,3.97733e-05,-2.01168e-05,0.000120395,4.4967e-06,0
-3.09255e-05,1.92598e-05,6.82349e-08,-2.62892e-05,8.14912e-05,-1.94977e-05,0.000120423,4.9955e-06,0
-2.97065e-05,5.68156e-06,4.30597e-06,-3.27719e-05,0.000133524,-1.85516e-05,0.000113605,4.76077e-06,0
-3.08637e-05,-1.79717e-05,7.04337e-06,-7.08962e-05,0.00015908,-1.71082e-05,9.98278e-05,4.94937e-06,0
-3.21458e-05,-3.67884e-05,4.80821e-06,-0.000140337,0.000175057,-1.24776e-05,8.23781e-05,5.04052e-06,0
-2.45265e-05,-4.97882e-05,2.84769e-08,-0.000178436,0.000181242,-4.79771e-06,6.69966e-05,6.39141e-06,0
-4.86329e-07,-4.94817e-05,-2.82937e-06,-0.000152112,0.000148449,1.55026e-06,5.12589e-05,7.18838e-06,0
2.36365e-05,-1.84362e-05,-1.28995e-06,-8.16621e-05,8.28331e-05,2.99795e-06,3.38178e-05,6.3521e-06,0
2.48049e-05,3.60299e-05,2.55723e-06,9.18803e-07,2.25468e-05,-2.33053e-07,1.53073e-05,6.51391e-06,0
2.75277e-06,8.02242e-05,6.94726e-06,7.03101e-05,-9.78351e-06,-3.77128e-06,-6.83383e-06,7.76629e-06,0
-2.65441e-05,9.51149e-05,9.48699e-06,0.000107805,-1.82038e-05,-4.35846e-06,-3.04672e-05,7.86993e-06,0
-5.40701e-05,8.6428e-05,9.05973e-06,0.000113492,-1.46436e-05,-4.63089e-06,-3.48571e-05,7.69938e-06,0
-7.51752e-05,5.97383e-05,7.24314e-06,9.63916e-05,-9.65655e-06,-7.1162e-06,-7.21652e-06,7.9119e-06,0
-8.48871e-05,2.55426e-05,5.68225e-06,6.19845e-05,-7.66225e-06,-8.35025e-06,3.58278e-05,7.58203e-06,0
-8.29736e-05,-1.49808e-06,6.00658e-06,1.795e-05,-9.14789e-06,-7.97918e-06,6.65919e-05,7.90698e-06,0
-7.23961e-05,-8.68512e-06,8.61478e-06,-2.57743e-05,-1.12581e-05,-1.03437e-05,7.61305e-05,1.12543e-05,0
-5.7041e-05,6.68457e-06,1.3652e-05,-6.10411e-05,-1.42696e-05,-1.57722e-05,7.03221e-05,1.79841e-05,0
-4.4426e-05,2.9734e-05,1.95705e-05,-8.1572e-05,-1.46086e-05,-1.8986e-05,5.59689e-05,2.32027e-05,0
-4.08066e-05,3.80382e-05,2.09783e-05,-8.01488e-05,-7.0047e-06,-1.83128e-05,4.23674e-05,2.20145e-05,0
-4.36624e-05,2.92492e-05,1.54611e-05,-5.98489e-05,7.76851e-06,-1.68035e-05,3.79001e-05,1.5491e-05,0
-4.49526e-05,1.61665e-05,6.37865e-06,-3.5561e-05,2.35473e-05,-1.61152e-05,4.20888e-05,8.30783e-06,0
-4.19822e-05,2.10976e-06,-4.37247e-06,-2.39093e-05,3.96227e-05,-1.49739e-05,4.82739e-05,2.20767e-06,0
-3.70086e-05,-1.2797e-05,-1.61797e-05,-2.52451e-05,5.30567e-05,-1.31773e-05,4.9076e-05,-1.35476e-06,0
-3.00362e-05,-2.02301e-05,-2.80743e-05,-3.35084e-05,5.53698e-05,-1.16953e-05,4.64486e-05,-2.15198e-06,0
-2.22159e-05,-1.37801e-05,-3.93311e-05,-4.76142e-05,4.36562e-05,-1.17928e-05,4.77192e-05,-2.05993e-06,0
-1.4877e-05,-2.11849e-06,-4.76569e-05,-6.07538e-05,2.92107e-05,-1.17546e-05,4.97214e-05,-2.17322e-06,0
-8.57184e-06,-2.3327e-06,-4.93365e-05,-5.85813e-05,1.77284e-05,-1.01046e-05,4.8917e-05,-2.78447e-06,0
-7.91157e-06,-2.21132e-05,-4.83446e-05,-3.50801e-05,-1.67049e-06,-5.36938e-06,4.54736e-05,-4.54956e-06,0
-1.81199e-05,-5.59336e-05,-4.88955e-05,6.24076e-07,-2.27471e-05,-3.06967e-06,4.01173e-05,-6.9644e-06,0
-3.3781e-05,-9.18286e-05,-4.46242e-05,3.25334e-05,-2.54336e-05,-9.61047e-06,3.3871e-05,-8.09784e-06,0
-4.36947e-05,-0.000102824,-3.3048e-05,4.14908e-05,-1.27913e-05,-1.5968e-05,2.52481e-05,-8.61508e-06,0
-4.26863e-05,-6.84168e-05,-2.01284e-05,2.02024e-05,-5.11684e-06,-1.95394e-05,1.03788e-05,-8.06729e-06,0
-3.66229e-05,3.66003e-07,-1.13498e-05,-1.41925e-05,-7.44633e-06,-2.1945e-05,-4.81404e-06,-6.14236e-06,0
-3.4114e-05,6.9752e-05,-7.27962e-06,-3.43223e-05,-1.21445e-05,-1.80376e-05,-1.08532e-05,-3.85862e-06,0
-3.1716e-05,0.000108851,-7.14311e-06,-2.95895e-05,-1.17333e-05,-8.35781e-06,-7.34968e-06,-1.99106e-06,0
-1.76573e-05,0.000116127,-1.07109e-05,-1.10348e-05,3.11557e-07,8.7544e-07,-1.36092e-06,-6.43611e-07,0
1.00134e-05,0.000109941,-1.56699e-05,1.85794e-06,2.12639e-05,9.00037e-06,-3.154e-06,7.09203e-07,0
3.25362e-05,9.60555e-05,-1.93798e-05,-5.21828e-06,4.37925e-05,1.01176e-05,-1.38589e-05,1.5967e-06,0
3.16414e-05,6.4557e-05,-2.15127e-05,-2.491e-05,5.83985e-05,1.66115e-06,-2.36403e-05,2.76665e-06,0
4.85582e-06,2.9541e-05,-2.06117e-05,-4.42794e-05,6.29034e-05,-3.83868e-06,-2.40532e-05,3.52999e-06,0
-3.99617e-05,1.13943e-05,-1.74037e-05,-5.95298e-05,6.14809e-05,-1.56471e-06,-1.91138e-05,1.9585e-06,0
-8.80615e-05,2.4746e-06,-1.55283e-05,-6.8144e-05,5.31558e-05,4.77744e-06,-3.21216e-05,-1.56056e-06,0
-0.000118073,-1.1122e-05,-1.57083e-05,-6.35239e-05,3.70478e-05,9.38212e-06,-8.97139e-05,-4.1852e-06,0
-0.000119998,-2.53681e-05,-1.52316e-05,-4.12572e-05,1.66052e-05,1.01571e-05,-0.000166819,-4.63716e-06,0
-0.000102731,-3.22678e-05,-1.37083e-05,-4.53282e-06,2.71598e-06,8.07122e-06,-0.000190282,-3.98634e-06,0
-8.0058e-05,-2.57545e-05,-1.29885e-05,3.95555e-05,-1.76423e-06,2.61894e-06,-0.000128482,-3.32485e-06,0
-6.10588e-05,6.34732e-06,-1.19062e-05,7.74107e-05,-5.66663e-06,-8.43203e-06,-2.72643e-05,-2.9907e-06,0
-4.18806e-05,4.89178e-05,-9.45014e-06,9.31498e-05,-1.27686e-05,-2.31635e-05,5.66148e-05,-2.55882e-06,0
-1.78349e-05,7.43891e-05,-7.11321e-06,7.46256e-05,-1.19299e-05,-3.39613e-05,0.000111398,-3.38836e-06,0
2.71386e-07,7.0526e-05,-6.00244e-06,3.22047e-05,-1.10896e-06,-3.85797e-05,0.000147813,-5.47538e-06,0
5.23124e-07,2.48595e-05,-3.38993e-06,-9.9275e-06,1.08576e-05,-3.50422e-05,0.000172554,-5.32449e-06,0
-7.4871e-06,-2.94004e-05,2.95804e-07,-4.44686e-05,2.19628e-05,-2.17672e-05,0.000182483,-2.33399e-06,0
-9.76207e-06,-3.25563e-05,4.17671e-06,-7.32146e-05,3.47258e-05,-8.16216e-06,0.000172797,-4.87039e-07,0
-3.31708e-06,-3.92857e-06,7.94189e-06,-8.36549e-05,4.49204e-05,-5.86569e-06,0.000149998,-2.16946e-07,0
2.00484e-05,5.30932e-05,1.09142e-05,-7.00638e-05,4.75835e-05,-1.13133e-05,0.000122001,5.53104e-07,0
6.16553e-05,0.000128996,1.49337e-05,-4.34532e-05,4.55986e-05,-1.58056e-05,9.76284e-05,1.68929e-06,0
9.8935e-05,0.000157009,2.30814e-05,-1.06303e-05,4.24687e-05,-2.10795e-05,8.05619e-05,2.94121e-06,0
0.000104193,0.000121866,3.38865e-05,1.97437e-05,3.65679e-05,-2.51721e-05,7.02361e-05,5.11318e-06,0
7.10624e-05,3.53084e-05,4.08394e-05,4.21374e-05,2.70872e-05,-2.47605e-05,6.14288e-05,1.46382e-05,0
2.00952e-05,-6.14438e-05,4.07218e-05,5.97194e-05,1.81913e-05,-2.2871e-05,3.94845e-05,2.91841e-05,0
-1.7926e-05,-0.000121533,3.20206e-05,7.06421e-05,1.20077e-05,-1.99027e-05,5.73654e-06,3.70062e-05,0
-2.4765e-05,-0.000126501,1.43427e-05,7.21074e-05,1.32549e-05,-1.75217e-05,-2.59716e-05,3.59311e-05,0
-2.36466e-05,-8.07384e-05,-1.14889e-05,6.21721e-05,2.03385e-05,-1.80364e-05,-4.26221e-05,2.52948e-05,0
-4.30228e-05,-4.7705e-06,-4.05506e-05,4.26683e-05,2.71137e-05,-1.86795e-05,-4.32522e-05,4.58941e-06,0
-7.74558e-05,5.04576e-05,-6.46984e-05,2.0766e-05,2.98923e-05,-1.87547e-05,-3.77541e-05,-2.05344e-05,0
-0.000104455,5.67514e-05,-7.53981e-05,1.85339e-06,2.14643e-05,-1.91034e-05,-3.44929e-05,-3.98124e-05,0
-0.000116293,4.50914e-05,-7.01904e-05,-1.45331e-05,1.3001e-07,-1.73404e-05,-3.75156e-05,-4.85632e-05,0
-0.00012805,3.84798e-05,-5.55971e-05,-2.93704e-05,-2.04503e-05,-1.17032e-05,-4.5885e-05,-4.8541e-05,0
-0.000153403,2.41854e-05,-4.09649e-05,-3.88444e-05,-2.41516e-05,-4.21176e-06,-5.42921e-05,-4.35516e-05,0
-0.000175941,-1.20446e-05,-3.32374e-05,-3.92016e-05,-1.19299e-05,2.12292e-07,-5.45856e-05,-3.51771e-05,0
-0.000159116,-4.35046e-05,-3.08196e-05,-3.08127e-05,-1.2403e-06,4.88957e-07,-4.51405e-05,-2.44829e-05,0
-0.000103488,-4.00938e-05,-2.80779e-05,-1.81714e-05,-1.40271e-06,-3.10488e-06,-2.90649e-05,-1.41616e-05,0
-4.72676e-05,-5.24371e-06,-2.24635e-05,-6.00424e-06,-6.30624e-06,-1.51337e-05,-1.16091e-05,-6.02057e-06,0
-1.44848e-05,2.62474e-05,-1.64191e-05,3.99368e-06,-8.30391e-06,-4.10031e-05,1.85991e-06,-1.55371e-06,0
3.33019e-06,3.13912e-05,-1.22515e-05,1.26592e-05,-3.62749e-06,-6.07768e-05,9.63318e-06,5.83019e-07,0
1.0729e-05,1.06447e-05,-9.52166e-06,1.37965e-05,6.77992e-06,-4.06766e-05,1.27105e-05,2.68435e-06,0
-3.08449e-07,-1.73719e-05,-6.26199e-06,3.28568e-06,1.64627e-05,-2.27862e-06,1.20578e-05,6.25494e-06,0
-2.41318e-05,-3.1305e-05,-2.63262e-06,-1.26052e-05,2.50949e-05,8.92142e-06,1.08489e-05,9.29525e-06,0
-3.84954e-05,-2.31291e-05,-1.39557e-06,-2.72257e-05,3.96789e-05,-3.77272e-06,1.01356e-05,1.09819e-05,0
-4.0698e-05,6.54601e-07,-9.0017e-07,-3.83488e-05,5.2395e-05,-2.13543e-05,7.90019e-06,9.78872e-06,0
-5.05168e-05,1.82951e-05,3.98875e-07,-4.59703e-05,4.733e-05,-3.28097e-05,2.95532e-07,5.67218e-06,0
-7.00069e-05,1.55372e-05,1.6847e-06,-4.8445e-05,2.76076e-05,-3.52316e-05,-2.39222e-05,3.0466e-06,0
-7.13962e-05,1.49538e-05,1.44656e-06,-4.70448e-05,2.18061e-05,-2.5371e-05,-4.95798e-05,3.52511e-06,0
-4.02621e-05,2.47714e-05,9.87316e-07,-4.77472e-05,5.17736e-05,2.56806e-06,-5.13868e-05,3.93109e-06,0
-8.29124e-06,2.84026e-05,1.19484e-06,-4.99747e-05,9.22406e-05,3.29844e-05,-3.46425e-05,3.30526e-06,0
-5.02467e-06,2.40294e-05,-1.09258e-06,-4.69471e-05,0.000100038,4.18511e-05,-9.53204e-06,2.70399e-06,0
-1.24543e-05,1.69754e-05,-5.6091e-06,-3.33807e-05,7.12179e-05,2.46849e-05,1.41555e-05,1.57516e-06,0
-8.22708e-06,1.605e-05,-9.64114e-06,-1.12331e-05,3.05715e-05,-2.18241e-06,3.44205e-05,1.31253e-06,0
4.29658e-07,1.78587e-05,-1.08049e-05,1.80994e-05,-3.49018e-06,-1.85966e-05,4.80303e-05,1.59296e-06,0
5.19074e-06,1.8698e-05,-1.08954e-05,4.88317e-05,-2.41383e-05,-1.83567e-05,5.17587e-05,7.76248e-07,0
3.15775e-06,1.81203e-05,-1.02971e-05,6.46215e-05,-3.16826e-05,-1.15256e-05,4.93276e-05,-8.63891e-07,0
-3.60259e-06,1.89238e-05,-7.16464e-06,5.65278e-05,-3.1314e-05,-7.26561e-06,4.31707e-05,-1.73829e-06,0
-1.02517e-05,2.02607e-05,-2.46761e-06,3.38624e-05,-2.53113e-05,-7.37956e-06,3.62147e-05,-5.68864e-07,0
-1.2681e-05,1.79455e-05,-1.17927e-07,9.01345e-06,4.23179e-06,-1.18056e-05,3.07662e-05,8.59132e-07,0
-1.40648e-05,1.01406e-05,-1.00747e-06,-9.90087e-06,6.30081e-05,-2.45291e-05,2.81412e-05,2.35992e-06,0
-1.9117e-05,-2.80624e-06,-1.40045e-06,-1.49115e-05,0.000104063,-3.61323e-05,2.59085e-05,4.43091e-06,0
-2.43244e-05,-1.57758e-05,-6.06378e-08,-6.74448e-06,8.39719e-05,-2.81231e-05,2.49343e-05,6.00485e-06,0
-2.59927e-05,-1.98082e-05,1.93158e-06,3.77951e-06,2.32052e-05,-9.9506e-06,2.42642e-05,6.18726e-06,0
-2.86681e-05,-1.21416e-05,2.85618e-06,5.30529e-06,-2.70979e-05,-4.4634e-06,2.19986e-05,5.96102e-06,0
-3.74254e-05,4.75223e-06,2.82338e-06,-3.21132e-07,-5.57459e-05,-6.6874e-06,1.61527e-05,6.77177e-06,0
-4.84898e-05,3.18033e-05,2.13918e-06,-3.70858e-06,-8.27478e-05,5.78427e-06,6.91847e-06,7.67455e-06,0
-5.34539e-05,6.38506e-05,2.19792e-06,-4.75393e-07,-0.000112043,4.10914e-05,-3.47513e-06,8.2393e-06,0
-4.25431e-05,7.95369e-05,3.63507e-06,1.99438e-06,-0.00013817,8.55998e-05,-9.48695e-06,8.57129e-06,0
-1.85524e-05,7.02192e-05,4.81984e-06,2.79221e-06,-0.000154923,9.38678e-05,-7.79972e-06,8.91362e-06,0
8.78609e-07,5.27091e-05,3.79805e-06,1.08469e-05,-0.000148689,5.13755e-05,6.56424e-07,6.8918e-06,0
3.59875e-06,3.95512e-05,1.80506e-06,3.2305e-05,-0.00011499,1.06117e-05,1.07768e-05,3.88993e-06,0
6.07453e-06,4.45439e-05,1.54873e-07,6.47157e-05,-7.35989e-05,-3.58987e-06,1.99568e-05,4.44301e-06,0
2.31311e-05,6.79651e-05,-4.25389e-07,8.39968e-05,-4.43324e-05,-9.84587e-07,3.26567e-05,6.69454e-06,0
3.7532e-05,8.24211e-05,1.24054e-06,7.33931e-05,-2.04104e-05,7.64159e-06,5.36891e-05,7.16579e-06,0
2.93477e-05,6.7545e-05,1.72638e-06,4.74468e-05,1.07848e-06,8.85463e-06,7.78332e-05,6.04037e-06,0
-3.19403e-06,2.99798e-05,-2.2007e-06,2.27173e-05,1.16429e-05,2.04997e-06,0.000102698,5.77927e-06,0
-4.16681e-05,-1.22537e-05,-7.40948e-06,1.61743e-06,1.19186e-05,-1.0717e-05,0.000127741,6.44048e-06,0
-6.38522e-05,-4.54437e-05,-9.89145e-06,-1.71241e-05,7.58669e-06,-3.36184e-05,0.000125926,7.02113e-06,0
-6.64992e-05,-5.65834e-05,-1.0919e-05,-3.41311e-05,6.19257e-06,-3.61171e-05,8.56472e-05,5.49629e-06,0
-5.07203e-05,-4.99807e-05,-1.21712e-05,-5.31949e-05,8.28972e-06,-1.63018e-05,2.89989e-05,1.59415e-06,0
-1.38536e-05,-5.58229e-05,-1.38479e-05,-6.83177e-05,1.2436e-05,-1.26481e-05,-1.77436e-05,-4.67987e-07,0
2.5133e-05,-8.39608e-05,-1.53623e-05,-6.22788e-05,1.98033e-05,-1.71723e-05,-4.1211e-05,1.28956e-07,0
3.98e-05,-0.000107709,-1.5682e-05,-3.49808e-05,3.24218e-05,-1.66175e-05,-4.33953e-05,1.73263e-06,0
2.52241e-05,-0.000103916,-1.6119e-05,-5.31085e-06,4.51421e-05,-6.23273e-06,-4.07695e-05,1.92467e-06,0
-5.72251e-06,-6.82938e-05,-1.72999e-05,1.19276e-05,5.11709e-05,4.55262e-06,-4.57923e-05,1.47996e-06,0
-3.88245e-05,-4.60162e-06,-1.71871e-05,1.41803e-05,5.01407e-05,8.27761e-06,-5.23019e-05,2.45068e-06,0
-6.6694e-05,6.06543e-05,-1.58707e-05,7.98886e-06,4.92087e-05,5.01941e-06,-4.98853e-05,3.78109e-06,0
-8.85202e-05,8.74677e-05,-1.63224e-05,2.69272e-06,5.19703e-05,-1.97013e-06,-3.80534e-05,3.95286e-06,0
-9.90032e-05,6.8185e-05,-1.80219e-05,3.3429e-06,5.52516e-05,-6.38964e-06,-2.42475e-05,2.30592e-06,0
-9.13456e-05,2.45165e-05,-1.69947e-05,7.56518e-06,5.74062e-05,-6.8551e-06,-1.47945e-05,-3.68509e-07,0
-7.37269e-05,-1.13411e-05,-1.23134e-05,5.29183e-06,5.95429e-05,-5.6808e-06,-1.20633e-05,-2.16282e-06,0
-6.09615e-05,-1.10734e-05,-4.96041e-06,-6.31662e-06,6.08674e-05,-7.93454e-06,-1.3958e-05,-2.86916e-06,0
-6.07017e-05,2.60334e-05,4.88131e-06,-1.75599e-05,5.84203e-05,-1.02803e-05,-1.87908e-05,-3.47068e-06,0
-6.92257e-05,7.60438e-05,1.82696e-05,-2.09671e-05,5.65501e-05,-1.0872e-05,-2.54811e-05,-4.14739e-06,0
-7.54407e-05,0.000115354,3.55648e-05,-1.71851e-05,5.83956e-05,-9.97186e-06,-3.19047e-05,-4.38313e-06,0
-6.77991e-05,0.000131458,5.4575e-05,-1.16089e-05,6.17856e-05,-1.05238e-05,-3.29772e-05,-3.36206e-06,0
-5.1828e-05,0.000117488,7.07138e-05,-1.55786e-05,6.06013e-05,-1.03629e-05,-2.59385e-05,-2.96969e-06,0
-4.39622e-05,8.10063e-05,7.66896e-05,-3.32166e-05,5.10737e-05,-9.78385e-06,-1.55504e-05,-3.51649e-06,0
-4.78941e-05,4.32074e-05,6.32972e-05,-5.19549e-05,3.69899e-05,-9.39877e-06,-8.26992e-06,-1.8421e-06,0
-5.53999e-05,2.70689e-05,2.88591e-05,-5.95819e-05,2.64256e-05,-7.61541e-06,-2.23265e-06,5.38202e-07,0
-6.04239e-05,4.47882e-05,-2.20815e-05,-5.33053e-05,1.79739e-05,-7.99662e-06,6.59221e-06,-3.33784e-07,0
-6.15612e-05,6.17719e-05,-7.01054e-05,-3.38676e-05,9.15512e-06,-1.26844e-05,1.50731e-05,-1.70287e-06,0
-5.33343e-05,4.89968e-05,-9.7895e-05,-6.59282e-06,4.58506e-06,-1.38226e-05,1.9902e-05,-1.01801e-06,0
-4.04163e-05,2.19956e-05,-0.000106416,1.69867e-05,-9.39613e-07,-1.0702e-05,2.08894e-05,1.08962e-06,0
-4.22818e-05,-7.53509e-06,-9.85017e-05,2.70757e-05,-1.05928e-05,-9.09902e-06,2.22102e-05,2.31997e-06,0
-5.83425e-05,-2.85079e-05,-8.32506e-05,2.15257e-05,-8.66191e-06,-1.21463e-05,2.73267e-05,3.18692e-06,0
-5.95229e-05,-4.51077e-05,-6.6498e-05,4.76259e-06,8.68077e-06,-1.703e-05,3.39775e-05,4.6845e-06,0
-2.42259e-05,-6.51568e-05,-5.50404e-05,-8.91266e-06,2.9012e-05,-1.84316e-05,4.20343e-05,5.24295e-06,0
2.71315e-05,-7.55333e-05,-4.77121e-05,-7.11545e-06,3.60877e-05,-1.68029e-05,4.82089e-05,4.21925e-06,0
5.89639e-05,-6.58886e-05,-3.87857e-05,3.77727e-06,1.24891e-05,-1.54034e-05,5.09606e-05,2.17487e-06,0
6.25304e-05,-4.96009e-05,-2.95395e-05,1.19932e-05,-1.88135e-05,-1.45738e-05,4.75222e-05,1.2051e-07,0
4.71471e-05,-3.71279e-05,-2.24525e-05,1.06931e-05,-2.7333e-05,-1.08221e-05,3.05199e-05,-1.2038e-06,0
2.16868e-05,-2.3944e-05,-1.75706e-05,4.0636e-06,-1.12878e-05,-5.09905e-06,4.82789e-06,-1.17825e-06,0
-3.15189e-06,4.27115e-07,-1.1752e-05,4.2999e-06,2.57421e-05,-1.43758e-06,-6.67091e-06,2.67248e-07,0
-1.69984e-05,3.64285e-05,-4.88304e-06,1.62507e-05,5.87843e-05,-3.11469e-06,1.54406e-05,2.10217e-06,0
-3.25352e-05,6.28859e-05,3.00573e-07,3.60647e-05,5.56156e-05,-7.71657e-06,6.80528e-05,8.67544e-07,0
-7.02798e-05,6.06345e-05,9.04488e-07,5.36346e-05,1.52711e-05,-1.07379e-05,0.000134012,-3.45209e-06,0
-0.00012311,3.39363e-05,-1.89822e-07,5.82015e-05,-2.78643e-05,-7.29469e-06,0.000192227,-6.9889e-06,0
-0.000157204,1.47028e-05,-3.86127e-07,5.08292e-05,-4.6375e-05,1.47144e-06,0.000221074,-7.18173e-06,0
-0.000145641,3.39583e-05,1.64967e-06,3.97775e-05,-4.29039e-05,7.9785e-06,0.000198708,-6.32449e-06,0
-8.76581e-05,7.95007e-05,5.45348e-06,2.78949e-05,-2.72799e-05,8.44333e-06,0.000120247,-7.13578e-06,0
-2.16613e-06,9.81796e-05,9.55427e-06,1.8839e-05,-2.16216e-06,6.07072e-06,9.48171e-06,-8.92561e-06,0
8.2046e-05,7.75249e-05,1.19337e-05,1.5594e-05,2.19531e-05,2.40615e-06,-9.5092e-05,-1.02373e-05,0
0.000133358,4.63033e-05,1.33131e-05,9.3674e-06,3.86469e-05,-2.8995e-06,-0.000158867,-1.08453e-05,0
0.000131983,2.70796e-05,1.5299e-05,-6.1664e-06,5.89289e-05,-1.39228e-05,-0.000165047,-1.03319e-05,0
8.78495e-05,2.43251e-05,1.93794e-05,-2.15743e-05,6.9981e-05,-3.08611e-05,-0.000133201,-8.86004e-06,0
2.95758e-05,1.48532e-05,1.95697e-05,-2.90359e-05,5.51516e-05,-4.37417e-05,-9.39617e-05,-7.88194e-06,0
-2.70181e-05,-1.29161e-05,1.21924e-05,-3.71655e-05,2.44042e-05,-5.10993e-05,-5.56052e-05,-6.2478e-06,0
-6.85314e-05,-3.7007e-05,3.6435e-06,-4.80465e-05,-2.70555e-06,-5.90532e-05,-2.56183e-05,-4.66217e-06,0
-8.47842e-05,-6.15506e-05,-3.13708e-06,-5.3265e-05,-2.25949e-05,-6.39674e-05,-6.87917e-06,-5.39311e-06,0
-7.89725e-05,-8.37446e-05,-6.01075e-06,-5.17092e-05,-3.61905e-05,-6.15724e-05,3.69743e-06,-5.85054e-06,0
-6.18173e-05,-7.78076e-05,-4.29515e-06,-4.61651e-05,-3.22951e-05,-5.1137e-05,7.90445e-06,-5.38013e-06,0
-4.99307e-05,-5.03452e-05,-2.06777e-06,-4.16755e-05,-7.14044e-06,-3.44693e-05,1.27619e-05,-4.27995e-06,0
-4.00458e-05,-2.24745e-05,-1.813e-06,-3.66714e-05,2.18625e-05,-1.92384e-05,1.50965e-05,-1.63291e-06,0
-2.77704e-05,-1.71849e-05,-3.5543e-06,-3.02823e-05,3.76904e-05,-5.71818e-06,1.35046e-05,1.07316e-06,0
-1.46203e-05,-3.41043e-05,-8.44753e-06,-2.54855e-05,5.11018e-05,2.12208e-06,-1.20279e-06,2.55087e-06,0
-4.66411e-06,-5.21122e-05,-1.52608e-05,-2.54736e-05,6.97368e-05,-1.10212e-06,-3.73408e-05,2.58846e-06,0
8.67954e-07,-5.41634e-05,-2.0344e-05,-2.74668e-05,7.77425e-05,-8.65186e-06,-7.40957e-05,2.14424e-06,0
1.63925e-05,-4.05676e-05,-2.00645e-05,-2.65944e-05,6.06779e-05,-1.26397e-05,-8.03637e-05,3.41453e-06,0
4.6572e-05,-1.62821e-05,-1.64092e-05,-2.57622e-05,3.06598e-05,-1.16011e-05,-5.38944e-05,5.10838e-06,0
7.0685e-05,2.4118e-05,-1.25181e-05,-2.46912e-05,8.40194e-06,-9.37981e-06,-1.57928e-05,5.29587e-06,0
6.88268e-05,8.24052e-05,-9.35577e-06,-2.16739e-05,-3.94261e-07,-8.00898e-06,1.59294e-05,5.79737e-06,0
3.87158e-05,0.000127499,-6.16627e-06,-1.66178e-05,-3.74117e-06,-7.21246e-06,3.34669e-05,7.77063e-06,0
-1.18752e-05,0.000114424,-3.71673e-06,-1.21431e-05,-6.62245e-06,-6.73075e-06,3.71489e-05,1.02097e-05,0
-7.0339e-05,4.24707e-05,-3.76876e-06,-9.92732e-06,-1.55329e-06,-7.75226e-06,3.03767e-05,1.15507e-05,0
-0.000127897,-5.79906e-05,-5.96228e-06,-9.04028e-06,9.23873e-06,-1.2996e-05,2.23345e-05,1.18539e-05,0
-0.000174765,-0.000146558,-8.61129e-06,-6.96342e-06,8.43515e-06,-1.97027e-05,1.83236e-05,1.20988e-05,0
-0.000191437,-0.000162389,-9.14263e-06,-4.85261e-06,-6.02112e-06,-1.96285e-05,1.92177e-05,1.29575e-05,0
-0.000160279,-8.94507e-05,-6.19917e-06,-5.57123e-06,-8.14728e-06,-8.31065e-06,2.03948e-05,1.31982e-05,0
-9.79277e-05,1.47594e-06,-3.26651e-06,-7.43526e-06,1.25617e-05,1.16824e-05,1.67178e-05,1.27586e-05,0
-4.50173e-05,4.58201e-05,-2.53154e-06,-7.42885e-06,3.83351e-05,3.28027e-05,4.57081e-06,1.13359e-05,0
-2.4865e-05,1.99694e-05,-1.79526e-06,-6.84393e-06,5.27156e-05,4.65137e-05,-1.86071e-05,8.45421e-06,0
-3.09729e-05,-3.45286e-05,4.2119e-07,-6.69234e-06,4.20999e-05,5.12199e-05,-6.01842e-05,5.59676e-06,0
-4.63156e-05,-4.07463e-05,4.73827e-06,-5.68315e-06,2.54239e-05,4.86542e-05,-0.000130936,3.84825e-06,0
-6.35621e-05,1.60793e-05,9.54552e-06,-4.60842e-06,3.28912e-05,3.58657e-05,-0.000214025,1.52218e-06,0
-8.62318e-05,7.34986e-05,1.08852e-05,-5.25397e-06,5.44306e-05,-6.00319e-06,-0.000223579,-2.39893e-06,0
-0.000114578,8.15439e-05,6.77308e-06,-1.02907e-05,6.299e-05,-7.48257e-05,-0.000132228,-5.00944e-06,0
-0.000135157,6.01192e-05,-1.01823e-07,-2.11609e-05,2.65221e-05,-0.000110414,9.69477e-08,-3.50654e-06,0
-0.000126537,3.21088e-05,-6.81439e-06,-2.73717e-05,-3.94901e-05,-9.34597e-05,0.000118759,-1.18414e-06,0
-8.57603e-05,1.68768e-05,-8.88446e-06,-1.79041e-05,-9.10908e-05,-6.42642e-05,0.000180954,-8.58924e-07,0
-3.51929e-05,2.29617e-05,-2.92563e-06,4.22245e-06,-0.000106721,-4.21441e-05,0.000187294,-3.96373e-07,0
-1.59492e-06,4.38246e-05,1.01249e-05,3.26731e-05,-7.53142e-05,-3.19484e-05,0.000163673,-3.24604e-08,0
1.66498e-05,6.11858e-05,2.45828e-05,5.41891e-05,-1.02084e-05,-3.27312e-05,0.000145946,-8.79969e-07,0
3.69693e-05,6.92618e-05,3.55295e-05,5.89035e-05,6.8075e-05,-3.2995e-05,0.000141766,-2.12287e-06,0
5.36803e-05,6.40452e-05,4.04069e-05,5.16816e-05,0.00014742,-1.30692e-05,0.000140779,-2.33113e-06,0
4.91823e-05,4.39193e-05,3.8336e-05,4.28436e-05,0.000197146,1.98988e-05,0.000134949,-1.69955e-06,0
1.89364e-05,2.63392e-05,3.08902e-05,3.78449e-05,0.000177743,3.78414e-05,0.000124896,-5.52135e-07,0
-2.06508e-05,2.18605e-05,2.22838e-05,3.59789e-05,0.000103776,3.29111e-05,0.000115219,1.07829e-06,0
-5.1526e-05,2.81464e-05,1.35151e-05,3.09333e-05,3.55154e-05,2.0147e-05,0.000106959,3.18677e-06,0
-6.8705e-05,3.28737e-05,1.58426e-06,1.78413e-05,5.14283e-06,1.32637e-05,9.84594e-05,4.61743e-06,0
-7.4787e-05,3.45997e-05,-1.44798e-05,-8.13843e-07,-9.49166e-06,7.8285e-06,8.08121e-05,4.43814e-06,0
-7.1053e-05,3.29237e-05,-3.55224e-05,-1.88457e-05,-3.27553e-05,-1.05141e-05,5.39209e-05,3.2764e-06,0
-6.15138e-05,2.81214e-05,-6.01503e-05,-3.28272e-05,-5.23455e-05,-4.03291e-05,2.73242e-05,2.62388e-06,0
-4.79279e-05,1.7358e-05,-8.26336e-05,-4.16668e-05,-4.78702e-05,-4.3446e-05,1.51697e-05,3.0608e-06,0
-2.52262e-05,6.71573e-06,-9.44795e-05,-4.18031e-05,-3.33201e-05,-6.7357e-06,1.69655e-05,4.01288e-06,0
4.56226e-06,3.55833e-06,-9.27336e-05,-3.19389e-05,-3.25611e-05,2.45514e-05,2.67409e-05,4.5453e-06,0
1.98629e-05,7.63353e-06,-7.99212e-05,-1.74477e-05,-3.62773e-05,2.52366e-05,3.76561e-05,3.05734e-06,0
1.60119e-05,1.08599e-05,-6.14938e-05,-8.41644e-06,-1.95786e-05,1.72656e-05,4.41829e-05,-1.93716e-07,0
1.5891e-05,9.29169e-06,-4.36818e-05,-1.05275e-05,1.2566e-05,1.19331e-05,4.31626e-05,-3.54819e-06,0
2.15214e-05,-6.0889e-06,-3.27886e-05,-2.34619e-05,3.1982e-05,4.88648e-07,3.56443e-05,-5.33794e-06,0
1.7611e-05,-3.12275e-05,-3.02865e-05,-3.96357e-05,3.1261e-05,-1.72162e-05,2.58525e-05,-5.10516e-06,0
1.27747e-06,-3.55393e-05,-2.69007e-05,-5.18929e-05,2.72092e-05,-2.89839e-05,1.50196e-05,-4.2915e-06,0
-1.36036e-05,-1.92282e-05,-2.04448e-05,-5.45846e-05,2.56316e-05,-3.26451e-05,-3.71822e-06,-3.07099e-06,0
-1.71505e-05,-5.26178e-06,-1.81129e-05,-4.51034e-05,1.32167e-05,-2.90427e-05,-3.01247e-05,-1.71128e-06,0
-1.41414e-05,-4.19074e-06,-1.91984e-05,-2.98627e-05,-3.80577e-06,-2.09346e-05,-5.20644e-05,-8.43059e-07,0
-1.13479e-05,-2.21767e-05,-1.97946e-05,-1.48617e-05,-1.1014e-05,-1.34237e-05,-6.1139e-05,-7.39014e-07,0
-9.44909e-06,-4.64117e-05,-1.8638e-05,-2.30296e-06,-1.5134e-05,-9.40718e-06,-5.49929e-05,-1.78775e-06,0
-7.81127e-06,-5.56041e-05,-1.65487e-05,7.64536e-06,-2.73168e-05,-9.73241e-06,-3.60122e-05,-2.0389e-06,0
-9.61881e-06,-4.80983e-05,-1.13124e-05,1.52245e-05,-4.27881e-05,-1.139e-05,-1.61748e-05,-6.55076e-07,0
-1.62883e-05,-2.35107e-05,-5.89995e-06,2.16551e-05,-4.66578e-05,-1.20113e-05,-1.4107e-05,3.44763e-07,0
-2.81065e-05,6.82185e-06,-4.78169e-06,2.27802e-05,-3.74006e-05,-7.05555e-06,-3.10018e-05,2.08875e-07,0
-4.2125e-05,3.21523e-05,-6.81502e-06,1.54909e-05,-2.74661e-05,2.7602e-06,-4.44304e-05,8.56512e-08,0
-5.37309e-05,5.157e-05,-9.81248e-06,6.02343e-06,-2.82727e-05,1.27702e-05,-3.98846e-05,3.32688e-07,0
-5.78867e-05,6.55516e-05,-9.77954e-06,7.0715e-07,-4.00856e-05,1.77849e-05,-2.27115e-05,6.58902e-07,0
-4.25902e-05,6.87096e-05,-7.62591e-06,-2.7607e-06,-4.82803e-05,1.55329e-05,-3.35056e-06,9.77219e-07,0
-1.07476e-06,6.38559e-05,-6.45164e-06,-1.56636e-05,-4.32517e-05,1.34513e-07,1.38268e-05,1.70138e-06,0
4.95728e-05,6.13633e-05,-6.39686e-06,-3.58767e-05,-3.08652e-05,-3.03771e-05,2.95574e-05,2.48388e-06,0
8.03392e-05,6.0269e-05,-3.58558e-06,-4.3632e-05,-1.57574e-05,-5.64645e-05,4.03169e-05,2.5469e-06,0
8.06051e-05,4.99783e-05,1.81771e-06,-3.2995e-05,5.57183e-06,-5.40648e-05,4.31782e-05,2.18934e-06,0
6.17941e-05,2.40874e-05,6.18334e-06,-2.22414e-05,3.89007e-05,-2.96658e-05,3.72728e-05,1.41135e-06,0
3.58823e-05,-3.63194e-06,7.33995e-06,-2.06672e-05,9.965e-05,-7.8934e-06,2.57823e-05,1.38862e-06,0
3.93404e-06,-1.34227e-05,4.75004e-06,-1.6725e-05,0.000187991,1.57684e-06,1.22072e-05,3.60082e-06,0
-3.60172e-05,-6.85759e-06,-1.50329e-06,-6.57838e-06,0.000244594,-6.64979e-09,2.12294e-06,6.18855e-06,0
-7.67876e-05,-4.38957e-07,-8.84901e-06,1.23408e-06,0.000218585,-1.31267e-05,-1.29583e-06,7.53889e-06,0
-0.000102104,8.61489e-06,-1.33794e-05,3.03572e-06,0.000139526,-3.27185e-05,-1.5599e-06,8.02194e-06,0
-0.000105591,3.35542e-05,-1.10695e-05,-2.87451e-06,6.4041e-05,-4.80502e-05,-2.53148e-06,8.74943e-06,0
-9.42421e-05,6.59566e-05,-1.8562e-06,-1.60723e-05,9.35547e-06,-5.8116e-05,-2.00608e-06,8.95277e-06,0
-8.37901e-05,7.61877e-05,8.74663e-06,-2.89769e-05,-3.48496e-05,-7.02557e-05,8.17895e-07,7.95901e-06,0
-8.65328e-05,4.67793e-05,1.64156e-05,-3.82901e-05,-7.69556e-05,-8.91086e-05,3.23058e-06,4.82238e-06,0
-9.12515e-05,7.17507e-06,1.52776e-05,-4.08207e-05,-0.000116363,-9.0222e-05,4.39135e-06,1.06663e-06,0
-8.15746e-05,-3.21019e-06,4.20029e-06,-2.32847e-05,-0.00013249,-2.87149e-05,4.0848e-06,-2.44599e-07,0
-5.87447e-05,9.0642e-06,-8.01682e-06,1.51123e-05,-0.000110461,5.792e-05,-1.36008e-06,-2.30282e-06,0
