ch1,ch2,ch3,ch4,ch5,ch6,ch7,ch8,class
-3.17516e-05,4.69202e-06,-1.12712e-05,-3.31903e-05,1.18787e-05,-1.35925e-05,2.07622e-05,3.87341e-06,0
-3.09529e-05,1.41587e-06,-1.07743e-05,-3.23974e-05,1.16523e-05,-1.44948e-05,2.10071e-05,3.84765e-06,0
-3.08315e-05,2.10168e-06,-9.21738e-06,-2.4873e-05,1.0703e-05,-1.38673e-05,1.86118e-05,2.77981e-06,0
-3.01337e-05,4.65555e-06,-6.13423e-06,-2.1882e-05,8.8937e-06,-1.29878e-05,1.54046e-05,9.90281e-07,0
-3.0725e-05,6.12892e-06,-3.45677e-06,-2.36761e-05,7.0987e-06,-1.43251e-05,1.20326e-05,-9.93937e-07,0
-3.17535e-05,5.46325e-06,-2.50028e-06,-2.48433e-05,9.50313e-06,-1.49673e-05,1.00766e-05,-1.02223e-06,0
-3.03259e-05,4.05567e-06,-2.5877e-06,-2.36394e-05,1.62642e-05,-1.35913e-05,1.0862e-05,1.77352e-06,0
-2.93568e-05,3.51187e-06,-2.12796e-06,-1.72035e-05,2.15326e-05,-1.17437e-05,1.15785e-05,3.85428e-06,0
-2.8131e-05,4.52019e-06,-1.48238e-06,-8.31331e-06,2.32653e-05,-1.07507e-05,1.04635e-05,4.24015e-06,0
-2.61062e-05,5.22071e-06,-1.41762e-06,-3.97641e-06,2.15825e-05,-1.01819e-05,9.00839e-06,1.69353e-06,0
-2.51876e-05,3.80006e-06,-1.75555e-06,-6.40207e-06,1.89497e-05,-9.65314e-06,8.16182e-06,-8.57645e-07,0
-2.55876e-05,8.68531e-07,-1.07503e-06,-1.16799e-05,1.97237e-05,-1.01478e-05,7.40845e-06,-1.23017e-06,0
-2.53187e-05,-9.19669e-07,5.31104e-07,-1.29458e-05,2.37858e-05,-1.16998e-05,6.4376e-06,-1.41888e-06,0
-2.47475e-05,9.05436e-07,2.54329e-06,-9.55892e-06,2.88111e-05,-1.32146e-05,5.68906e-06,-2.77494e-06,0
-2.44541e-05,3.9273e-06,3.87404e-06,-6.62384e-06,3.05773e-05,-1.34114e-05,6.00977e-06,-2.92747e-06,0
-2.41628e-05,3.70855e-06,5.38708e-06,-5.57533e-06,2.84991e-05,-1.22947e-05,5.68304e-06,-1.16795e-06,0
-2.43752e-05,7.42031e-07,6.98621e-06,-5.42425e-06,2.42175e-05,-1.01941e-05,3.05543e-06,3.73157e-07,0
-2.50173e-05,-9.44771e-08,7.52078e-06,-7.06987e-06,1.91536e-05,-9.03893e-06,1.03734e-06,1.5313e-07,0
-2.56084e-05,1.75742e-06,7.59165e-06,-1.07898e-05,1.49304e-05,-8.65243e-06,2.65282e-06,-1.53431e-06,0
-2.61393e-05,3.25918e-06,8.13577e-06,-1.31355e-05,1.25695e-05,-8.06962e-06,6.50553e-06,-2.46141e-06,0
-2.80288e-05,3.39557e-06,7.1181e-06,-1.0987e-05,1.31198e-05,-7.74138e-06,9.88929e-06,-2.77055e-06,0
-3.0457e-05,3.17193e-06,2.57887e-06,-4.90865e-06,1.6487e-05,-8.57106e-06,1.01987e-05,-2.69296e-06,0
-3.23909e-05,3.67215e-06,-3.26877e-06,3.11735e-06,2.0565e-05,-1.00213e-05,8.15122e-06,-3.12416e-06,0
-3.28484e-05,4.6041e-06,-7.76448e-06,1.20415e-05,2.31887e-05,-1.07014e-05,6.49191e-06,-2.9954e-06,0
-3.31572e-05,5.27236e-06,-9.0963e-06,1.88738e-05,2.40136e-05,-1.0041e-05,6.93255e-06,-1.8331e-06,0
-3.33161e-05,5.69383e-06,-8.01519e-06,1.98944e-05,2.379e-05,-1.00314e-05,8.71421e-06,-1.05729e-06,0
-3.3315e-05,5.02458e-06,-5.56718e-06,1.21948e-05,2.22729e-05,-1.1676e-05,1.00247e-05,-1.39646e-06,0
-3.32855e-05,4.61245e-06,-2.93487e-06,-3.17049e-06,1.91851e-05,-1.13282e-05,9.87244e-06,-2.48614e-06,0
-3.27475e-05,7.14683e-06,-1.29452e-06,-2.12455e-05,1.5666e-05,-8.79972e-06,6.6587e-06,-4.03292e-06,0
-3.24419e-05,1.28014e-05,2.33612e-06,-3.85116e-05,1.37299e-05,-7.5427e-06,4.47508e-06,-5.42211e-06,0
-3.09109e-05,1.88392e-05,1.21258e-05,-4.98368e-05,1.52335e-05,-8.48535e-06,6.42318e-06,-5.63239e-06,0
-2.96923e-05,2.14154e-05,2.59936e-05,-5.20503e-05,1.6861e-05,-1.06487e-05,1.07036e-05,-4.07466e-06,0
-3.02666e-05,2.09506e-05,3.76516e-05,-4.63001e-05,1.70492e-05,-1.1862e-05,1.51063e-05,-2.18194e-06,0
-3.15677e-05,2.13313e-05,4.18898e-05,-3.68438e-05,1.75089e-05,-1.0006e-05,1.69546e-05,-1.89711e-06,0
-3.26478e-05,2.28118e-05,3.64152e-05,-2.70184e-05,1.69751e-05,-7.66869e-06,1.59725e-05,-1.74646e-06,0
-3.13009e-05,2.29399e-05,1.8242e-05,-1.66837e-05,1.407e-05,-7.96274e-06,1.4789e-05,-9.93181e-07,0
-2.84924e-05,2.24197e-05,-1.18796e-05,3.9923e-07,1.08282e-05,-1.00014e-05,1.38283e-05,-1.66652e-06,0
-2.69848e-05,2.1048e-05,-4.62683e-05,2.77564e-05,1.21964e-05,-1.12806e-05,1.1514e-05,-3.02692e-06,0
-2.78925e-05,2.03564e-05,-7.67906e-05,5.16207e-05,1.81526e-05,-1.1105e-05,1.01687e-05,-4.25597e-06,0
-2.9441e-05,2.04263e-05,-9.52657e-05,5.78262e-05,2.36649e-05,-1.06566e-05,1.13076e-05,-4.57651e-06,0
-2.97076e-05,2.07695e-05,-9.90207e-05,4.54726e-05,2.52179e-05,-9.82799e-06,1.28584e-05,-2.35304e-06,0
-2.83966e-05,2.1042e-05,-9.0457e-05,2.5705e-05,2.30509e-05,-8.53836e-06,1.32481e-05,1.75644e-07,0
-2.66798e-05,2.05562e-05,-7.29442e-05,8.38115e-06,1.98215e-05,-8.01556e-06,1.32668e-05,5.90479e-07,0
-2.65085e-05,2.03583e-05,-5.10908e-05,-5.50471e-06,1.74572e-05,-8.89692e-06,1.32579e-05,3.01882e-09,0
-2.80435e-05,2.12369e-05,-2.92166e-05,-1.58755e-05,1.63238e-05,-9.48165e-06,1.46556e-05,1.19924e-07,0
-2.99468e-05,2.41605e-05,-7.27023e-06,-1.90091e-05,1.61922e-05,-8.09245e-06,1.87074e-05,9.91941e-07,0
-2.99311e-05,2.71603e-05,1.67888e-05,-1.42217e-05,1.69733e-05,-5.5621e-06,2.25835e-05,3.01961e-06,0
-2.84872e-05,2.87351e-05,4.00737e-05,-7.18217e-06,1.69713e-05,-3.8188e-06,2.3205e-05,5.14936e-06,0
-2.82468e-05,2.85443e-05,5.6104e-05,-1.41072e-06,1.56415e-05,-3.23784e-06,2.11946e-05,5.93565e-06,0
-3.0024e-05,2.71838e-05,5.93164e-05,3.57265e-06,1.45531e-05,-3.25496e-06,1.86603e-05,4.7145e-06,0
-3.17968e-05,2.55897e-05,4.70806e-05,6.53497e-06,1.4154e-05,-3.64523e-06,1.729e-05,2.44968e-06,0
-3.25539e-05,2.63457e-05,2.04529e-05,4.71919e-06,1.24763e-05,-3.58328e-06,1.75912e-05,2.20317e-06,0
-3.16274e-05,2.97096e-05,-1.49873e-05,1.53428e-07,9.88037e-06,-3.7863e-06,1.87298e-05,4.44968e-06,0
-2.97726e-05,3.45181e-05,-4.91108e-05,-5.65176e-06,8.85747e-06,-4.83772e-06,1.57554e-05,3.82879e-06,0
-2.87081e-05,4.04615e-05,-7.1936e-05,-1.07264e-05,7.86885e-06,-5.80186e-06,1.4687e-06,-3.91182e-07,0
-2.8397e-05,4.46252e-05,-8.1183e-05,-1.34414e-05,5.96411e-06,-5.63706e-06,-1.82928e-05,-2.24244e-06,0
-2.75246e-05,4.22407e-05,-7.66749e-05,-1.60469e-05,4.82086e-06,-3.546e-06,-2.94272e-05,1.14711e-06,0
-2.64349e-05,3.71459e-05,-6.06244e-05,-1.8216e-05,4.89826e-06,-2.37765e-06,-2.62602e-05,5.8268e-06,0
-2.65767e-05,3.40815e-05,-4.42121e-05,-1.6782e-05,3.96465e-06,-2.64848e-06,-1.44318e-05,5.86203e-06,0
-2.77231e-05,3.10442e-05,-3.14234e-05,-1.38331e-05,1.24533e-06,-2.17854e-06,-1.54552e-06,3.62241e-06,0
-2.88309e-05,2.67274e-05,-1.9643e-05,-8.47903e-06,-8.99772e-07,-1.51287e-06,1.04073e-05,2.52034e-06,0
-2.97244e-05,2.17249e-05,-1.06818e-05,1.82043e-06,-1.57943e-07,-3.94366e-07,2.14116e-05,3.11092e-06,0
-3.05438e-05,1.942e-05,-3.92549e-06,1.40625e-05,2.27114e-06,2.6793e-07,3.00706e-05,4.07018e-06,0
-2.96961e-05,1.84194e-05,7.02658e-07,2.56059e-05,3.89972e-06,5.32585e-07,3.49224e-05,3.33968e-06,0
-2.83629e-05,1.67676e-05,3.62976e-06,3.30944e-05,3.99343e-06,1.08801e-07,3.51618e-05,1.8459e-06,0
-2.85121e-05,1.4029e-05,5.31084e-06,3.35787e-05,4.29915e-06,-1.20826e-06,3.17452e-05,2.22027e-06,0
-3.00014e-05,1.23842e-05,6.47575e-06,2.69887e-05,4.75202e-06,-2.9013e-06,2.859e-05,3.98922e-06,0
-3.17427e-05,1.22543e-05,6.68691e-06,1.66297e-05,5.38174e-06,-3.64525e-06,2.79534e-05,3.91483e-06,0
-3.18504e-05,1.19599e-05,6.46086e-06,8.68966e-06,7.94068e-06,-3.63776e-06,2.88779e-05,2.54211e-06,0
-3.03064e-05,1.08569e-05,8.48982e-06,7.36354e-06,1.14847e-05,-4.04179e-06,2.99237e-05,4.35837e-07,0
-2.87969e-05,1.05977e-05,1.15382e-05,6.70101e-06,1.40875e-05,-4.54874e-06,3.03404e-05,-7.7617e-07,0
-2.87257e-05,1.15088e-05,1.27864e-05,-3.74588e-06,1.34953e-05,-6.12884e-06,3.03584e-05,-1.74627e-07,0
-2.97329e-05,1.1418e-05,1.08976e-05,-2.7762e-05,1.0813e-05,-8.3368e-06,2.92938e-05,4.35221e-07,0
-3.06146e-05,1.04939e-05,8.19737e-06,-5.30113e-05,8.93001e-06,-9.88622e-06,2.72794e-05,1.5687e-07,0
-3.04845e-05,1.0428e-05,6.75885e-06,-6.18947e-05,9.18396e-06,-9.82537e-06,2.51831e-05,-1.81314e-07,0
-2.9071e-05,1.19034e-05,7.0605e-06,-5.1418e-05,9.89031e-06,-9.54093e-06,2.2226e-05,7.94893e-08,0
-2.79716e-05,1.13242e-05,6.54887e-06,-3.34579e-05,9.79794e-06,-9.68672e-06,1.90988e-05,-4.11155e-07,0
-2.89129e-05,9.39995e-06,4.74871e-06,-1.73338e-05,1.04382e-05,-1.10303e-05,1.72488e-05,-2.42676e-06,0
-3.07689e-05,8.99017e-06,3.22056e-06,2.42693e-07,1.20589e-05,-1.31703e-05,1.68426e-05,-4.47045e-06,0
-3.16795e-05,8.35283e-06,8.1608e-07,2.39491e-05,1.23316e-05,-1.45764e-05,1.55204e-05,-4.54993e-06,0
-3.18198e-05,5.32135e-06,-3.9036e-06,4.68525e-05,1.05934e-05,-1.5177e-05,1.07682e-05,-2.08683e-06,0
-3.22266e-05,3.18211e-06,-9.47185e-06,5.696e-05,1.0782e-05,-1.72437e-05,6.64903e-06,-3.55723e-07,0
-3.19328e-05,2.30253e-06,-1.3075e-05,5.04782e-05,1.39827e-05,-2.01604e-05,5.86761e-06,-1.80667e-06,0
-3.10125e-05,8.52851e-07,-1.32773e-05,3.19536e-05,1.58749e-05,-2.07059e-05,7.92904e-06,-3.96064e-06,0
-3.06828e-05,-1.7093e-06,-1.17567e-05,1.55251e-05,1.54668e-05,-2.05962e-05,1.36334e-05,-4.90984e-06,0
-3.04665e-05,-4.99133e-06,-1.18769e-05,5.12073e-06,1.43955e-05,-2.15705e-05,2.07249e-05,-2.28329e-06,0
-3.07271e-05,-8.16188e-06,-1.35488e-05,-1.94533e-06,1.27684e-05,-2.22998e-05,2.5258e-05,1.6617e-06,0
-3.04663e-05,-8.18814e-06,-1.49714e-05,-5.02919e-06,9.51089e-06,-2.14746e-05,2.50895e-05,3.52725e-06,0
-3.10196e-05,-4.79305e-06,-1.53183e-05,-6.32034e-06,6.76613e-06,-1.98335e-05,2.16141e-05,4.35378e-06,0
-3.14009e-05,-2.29315e-06,-1.48175e-05,-6.18528e-06,6.73401e-06,-1.9002e-05,1.72999e-05,3.80744e-06,0
-3.07014e-05,-1.50449e-06,-1.54854e-05,-7.89336e-06,7.91934e-06,-1.96176e-05,1.37863e-05,2.24304e-06,0
-3.06972e-05,-2.24818e-06,-1.5944e-05,-1.04515e-05,7.57204e-06,-1.95235e-05,9.79788e-06,8.82477e-07,0
-3.06804e-05,-2.4062e-06,-1.42155e-05,-1.23637e-05,5.03272e-06,-1.8248e-05,5.35935e-06,7.48318e-07,0
-3.10911e-05,-1.40497e-06,-1.15431e-05,-1.29521e-05,2.38094e-06,-1.65879e-05,2.62989e-06,2.35462e-06,0
-3.28371e-05,9.92926e-07,-9.0898e-06,-1.32084e-05,9.6137e-07,-1.54817e-05,1.98998e-06,3.77342e-06,0
-3.45299e-05,3.44607e-06,-8.66144e-06,-1.39558e-05,9.53677e-07,-1.57027e-05,2.35453e-06,4.194e-06,0
-3.36244e-05,4.22835e-06,-7.87735e-06,-1.37835e-05,1.54274e-06,-1.59229e-05,2.50033e-06,2.85596e-06,0
-3.32317e-05,2.97237e-06,-5.93245e-06,-1.28054e-05,3.21312e-06,-1.60924e-05,1.54554e-06,8.40507e-07,0
-3.50527e-05,1.04791e-06,-4.63403e-06,-1.16994e-05,5.20378e-06,-1.66288e-05,-7.39415e-07,1.58389e-06,0
-3.60816e-05,9.83451e-07,-4.26348e-06,-1.05221e-05,7.40653e-06,-1.73728e-05,-1.6987e-06,3.97939e-06,0
-3.49707e-05,3.07478e-06,-4.90812e-06,-8.29712e-06,8.52018e-06,-1.73805e-05,7.60033e-08,5.40811e-06,0
-3.35597e-05,5.39754e-06,-6.92154e-06,-7.70567e-06,6.78621e-06,-1.64614e-05,3.02602e-06,5.64885e-06,0
-3.28837e-05,7.14787e-06,-9.30297e-06,-8.87372e-06,5.12181e-06,-1.52282e-05,3.70698e-06,4.88384e-06,0
-3.24365e-05,8.70694e-06,-9.85319e-06,-1.05947e-05,5.87767e-06,-1.39198e-05,-9.18036e-07,3.53091e-06,0
-3.17156e-05,9.49252e-06,-8.87106e-06,-1.21092e-05,6.08462e-06,-1.22074e-05,-7.43413e-06,3.46219e-06,0
-3.2516e-05,1.02943e-05,-8.09054e-06,-1.20147e-05,4.90215e-06,-1.06336e-05,-7.91617e-06,4.6555e-06,0
-3.48859e-05,1.10671e-05,-7.31618e-06,-9.49585e-06,5.90239e-06,-1.1345e-05,-2.15948e-06,4.45979e-06,0
-3.65377e-05,1.26845e-05,-5.97201e-06,-4.90253e-06,8.54664e-06,-1.34374e-05,4.79253e-06,2.6124e-06,0
-3.65955e-05,1.56724e-05,-5.73351e-06,2.42002e-07,9.85331e-06,-1.37602e-05,1.0273e-05,2.08264e-06,0
-3.58418e-05,1.89908e-05,-7.02387e-06,2.51026e-06,1.03809e-05,-1.19781e-05,1.37935e-05,3.60096e-06,0
-3.63858e-05,2.10593e-05,-7.64846e-06,2.51893e-06,9.75352e-06,-1.15657e-05,1.58492e-05,5.70553e-06,0
-3.64606e-05,2.06946e-05,-6.02979e-06,2.91671e-06,1.05944e-05,-1.18939e-05,1.73414e-05,6.80583e-06,0
-3.66398e-05,2.08362e-05,-3.61603e-06,4.72632e-06,1.40722e-05,-1.03736e-05,1.88001e-05,7.53494e-06,0
-3.45275e-05,2.35323e-05,-2.1797e-06,8.71188e-06,1.84158e-05,-9.58025e-06,1.86424e-05,7.4481e-06,0
-3.05882e-05,2.49398e-05,-3.52177e-06,1.52943e-05,2.40245e-05,-1.14789e-05,1.70915e-05,6.27154e-06,0
-2.97313e-05,2.22665e-05,-5.97756e-06,2.06846e-05,2.60217e-05,-1.30334e-05,1.5618e-05,5.02787e-06,0
-3.10006e-05,1.85658e-05,-7.63831e-06,1.99334e-05,2.28061e-05,-1.24633e-05,1.56652e-05,4.62407e-06,0
-3.22626e-05,1.72917e-05,-8.32441e-06,1.45289e-05,1.7448e-05,-1.30688e-05,1.82529e-05,5.99735e-06,0
-3.26247e-05,1.83706e-05,-8.43789e-06,6.43338e-06,1.2114e-05,-1.45484e-05,2.07634e-05,7.33185e-06,0
-3.28716e-05,2.04958e-05,-8.35172e-06,-2.65504e-06,8.66046e-06,-1.50147e-05,2.05477e-05,7.11745e-06,0
-3.18219e-05,2.05494e-05,-7.9746e-06,-1.11989e-05,1.01612e-05,-1.39072e-05,1.96061e-05,6.03261e-06,0
-2.9905e-05,1.80531e-05,-8.45348e-06,-1.81565e-05,1.59853e-05,-1.18952e-05,1.84993e-05,6.00249e-06,0
-2.79327e-05,1.90956e-05,-8.06741e-06,-2.49359e-05,2.12704e-05,-1.04783e-05,1.68345e-05,5.48672e-06,0
-2.65247e-05,2.75076e-05,-8.27983e-06,-3.22779e-05,2.26357e-05,-9.5962e-06,1.52629e-05,4.45094e-06,0
-2.61375e-05,3.653e-05,-1.10494e-05,-3.86553e-05,2.15713e-05,-8.86621e-06,1.30796e-05,4.59944e-06,0
-2.68986e-05,3.95189e-05,-1.4677e-05,-4.29551e-05,1.94075e-05,-8.34535e-06,1.01089e-05,4.97022e-06,0
-2.78099e-05,3.64294e-05,-1.61802e-05,-4.48463e-05,1.65459e-05,-8.21442e-06,7.16818e-06,2.54868e-06,0
-2.77514e-05,2.93872e-05,-1.56923e-05,-4.37751e-05,1.54379e-05,-7.05655e-06,6.11324e-06,-7.12193e-07,0
-2.72714e-05,2.09474e-05,-1.4574e-05,-4.07787e-05,1.69797e-05,-5.90797e-06,7.60397e-06,-1.6556e-06,0
-2.72831e-05,1.16716e-05,-1.19783e-05,-3.63844e-05,2.05076e-05,-6.32342e-06,9.09066e-06,-2.30123e-06,0
-2.77595e-05,2.00978e-06,-8.2199e-06,-2.96673e-05,2.40175e-05,-7.04809e-06,8.64809e-06,-3.29923e-06,0
-2.72223e-05,-6.36629e-06,-5.37967e-06,-2.16599e-05,2.51935e-05,-6.59793e-06,8.16256e-06,-3.28614e-06,0
-2.65315e-05,-1.17552e-05,-4.32722e-06,-1.35658e-05,2.43346e-05,-4.60442e-06,8.9493e-06,-1.85003e-06,0
-2.70986e-05,-1.40875e-05,-3.27155e-06,-5.90189e-06,2.14616e-05,-3.29908e-06,1.17249e-05,-1.00934e-06,0
-2.87376e-05,-1.50665e-05,-1.36444e-06,8.52861e-07,1.68781e-05,-4.42976e-06,1.52232e-05,-1.04669e-06,0
-2.89075e-05,-1.47752e-05,1.22992e-07,3.46669e-06,1.54608e-05,-5.01544e-06,1.59632e-05,-1.4036e-06,0
-2.77971e-05,-9.86094e-06,8.00062e-07,1.4897e-06,1.55822e-05,-4.00395e-06,1.41466e-05,-9.97784e-07,0
-2.67929e-05,-1.03872e-06,2.80653e-06,-3.11262e-07,1.46469e-05,-2.93e-06,1.36187e-05,1.06103e-06,0
-2.63399e-05,4.64992e-06,3.86028e-06,3.93487e-08,1.45658e-05,-3.70745e-06,1.41436e-05,2.23083e-06,0
-2.56149e-05,5.38297e-06,1.41948e-06,1.13796e-06,1.4507e-05,-4.37308e-06,1.30407e-05,1.35314e-06,0
-2.49607e-05,3.90162e-06,-2.23879e-06,4.50383e-07,1.34177e-05,-2.22033e-06,1.27469e-05,3.75514e-07,0
-2.54313e-05,1.84328e-06,-3.32191e-06,-2.30802e-06,1.26291e-05,4.61031e-07,1.25814e-05,-7.02386e-07,0
-2.71797e-05,2.30322e-06,-1.40817e-06,-5.04867e-06,1.42985e-05,1.32989e-06,1.13123e-05,-1.30408e-06,0
-2.93106e-05,3.62038e-06,2.24051e-06,-7.18245e-06,1.74209e-05,-8.58407e-07,1.15236e-05,-2.49e-07,0
-2.9569e-05,4.47157e-06,4.69663e-06,-6.63948e-06,1.98811e-05,-3.09432e-06,1.29029e-05,6.3752e-07,0
-2.92649e-05,4.90148e-06,5.55588e-06,-4.19265e-06,2.08926e-05,-3.21706e-06,1.42501e-05,-5.64961e-08,0
-2.84657e-05,7.04898e-06,5.12258e-06,-2.71465e-06,2.04092e-05,-2.4467e-06,1.49635e-05,-2.49455e-07,0
-2.7402e-05,1.10977e-05,2.00998e-06,-1.72918e-06,1.8578e-05,-2.87427e-06,1.56394e-05,6.39808e-07,0
-2.67747e-05,1.45542e-05,-1.87475e-06,-3.51814e-07,1.70765e-05,-4.85512e-06,1.64394e-05,1.65767e-06,0
-2.69051e-05,1.64561e-05,-5.72823e-06,8.20026e-07,1.66796e-05,-7.27676e-06,1.82429e-05,2.04884e-06,0
-2.77042e-05,1.71776e-05,-9.7647e-06,5.97686e-07,1.57664e-05,-8.63414e-06,1.98852e-05,1.12087e-06,0
-2.86611e-05,1.77425e-05,-1.3124e-05,-8.00005e-07,1.53267e-05,-8.45836e-06,1.92387e-05,1.37549e-07,0
-2.95844e-05,1.67023e-05,-1.43612e-05,-1.64559e-06,1.57059e-05,-8.80983e-06,1.73351e-05,-4.52629e-07,0
-3.02145e-05,1.49881e-05,-1.46128e-05,-9.31177e-07,1.57818e-05,-1.04749e-05,1.57033e-05,-1.77508e-06,0
-3.02694e-05,1.5493e-05,-1.44946e-05,2.14177e-07,1.59761e-05,-1.14879e-05,1.51766e-05,-2.84306e-06,0
-2.98263e-05,1.80378e-05,-1.38367e-05,1.13848e-06,1.73076e-05,-1.09859e-05,1.35706e-05,-1.23082e-06,0
-2.95665e-05,1.78552e-05,-1.25331e-05,2.22626e-06,1.77533e-05,-9.97981e-06,9.93433e-06,1.91475e-06,0
-2.88663e-05,1.46888e-05,-1.19576e-05,2.89723e-06,1.55597e-05,-8.99434e-06,6.92678e-06,3.46506e-06,0
-2.79163e-05,1.11876e-05,-1.20941e-05,1.92389e-06,1.30786e-05,-9.26971e-06,6.8179e-06,2.84989e-06,0
-2.7131e-05,1.01028e-05,-1.13092e-05,1.15338e-06,1.13118e-05,-1.07383e-05,8.31355e-06,1.7577e-06,0
-2.74543e-05,1.12458e-05,-9.93747e-06,4.04468e-06,9.27479e-06,-1.23868e-05,8.89716e-06,3.64358e-06,0
-2.88101e-05,1.24724e-05,-8.23442e-06,9.80217e-06,7.8797e-06,-1.33307e-05,8.82395e-06,7.17498e-06,0
-2.96946e-05,1.21685e-05,-6.63431e-06,1.42698e-05,9.19156e-06,-1.41726e-05,1.28172e-05,7.79125e-06,0
-2.97223e-05,1.32002e-05,-7.95595e-06,1.39791e-05,1.2243e-05,-1.68693e-05,2.16516e-05,6.61785e-06,0
-3.10645e-05,1.56924e-05,-1.14775e-05,6.18318e-06,1.53281e-05,-1.84465e-05,3.05796e-05,3.73541e-06,0
-3.29633e-05,1.75589e-05,-1.23651e-05,-5.40198e-06,1.63639e-05,-1.69941e-05,3.46733e-05,2.64788e-06,0
-3.22052e-05,1.93391e-05,-1.12598e-05,-1.43564e-05,1.556e-05,-1.60343e-05,3.40515e-05,4.5604e-06,0
-3.01443e-05,2.08067e-05,-1.01657e-05,-1.76029e-05,1.41911e-05,-1.52107e-05,3.27513e-05,6.17886e-06,0
-2.77369e-05,2.52434e-05,-7.37806e-06,-1.4771e-05,1.25602e-05,-1.34304e-05,2.94853e-05,5.49588e-06,0
-2.60644e-05,3.04082e-05,-3.30683e-06,-8.94412e-06,1.16655e-05,-1.237e-05,2.30424e-05,2.3823e-06,0
-2.54624e-05,3.14323e-05,-5.55982e-07,-8.60595e-07,1.03067e-05,-1.20648e-05,1.39242e-05,6.77344e-07,0
-2.45938e-05,2.90774e-05,-1.72215e-07,6.0257e-06,9.94448e-06,-1.08652e-05,2.83869e-06,1.43483e-06,0
-2.44389e-05,2.64196e-05,-4.05682e-06,8.23019e-06,1.19822e-05,-9.00725e-06,-8.63786e-06,3.26654e-06,0
-2.46065e-05,2.45449e-05,-1.16055e-05,4.71838e-06,1.35119e-05,-8.8273e-06,-1.77289e-05,4.39915e-06,0
-2.4668e-05,2.36582e-05,-1.87771e-05,-2.15062e-06,1.13379e-05,-1.02403e-05,-2.20825e-05,3.7009e-06,0
-2.4602e-05,2.26722e-05,-2.20972e-05,-7.82245e-06,6.44827e-06,-1.05782e-05,-2.35624e-05,9.79514e-07,0
-2.47201e-05,2.12148e-05,-2.14089e-05,-1.12024e-05,2.96326e-06,-9.77573e-06,-2.44097e-05,-7.16621e-07,0
-2.59453e-05,2.03253e-05,-1.85276e-05,-1.24242e-05,1.97641e-06,-9.24223e-06,-2.22594e-05,-3.72548e-07,0
-2.76108e-05,2.08176e-05,-1.44719e-05,-1.21923e-05,2.97408e-06,-9.61257e-06,-1.19319e-05,1.26766e-06,0
-2.84971e-05,2.08499e-05,-1.03326e-05,-1.15047e-05,4.39065e-06,-1.08373e-05,8.2479e-06,2.01327e-06,0
-2.90138e-05,1.80558e-05,-7.78591e-06,-1.26556e-05,4.54651e-06,-1.19145e-05,3.31644e-05,2.29917e-07,0
-3.03888e-05,1.39286e-05,-7.50876e-06,-1.44915e-05,4.20633e-06,-1.16729e-05,5.55418e-05,-2.04002e-06,0
-3.25736e-05,1.03222e-05,-8.42782e-06,-1.48185e-05,5.58775e-06,-9.90117e-06,7.01784e-05,-2.4786e-06,0
-3.45795e-05,7.30917e-06,-1.07316e-05,-1.29956e-05,8.15312e-06,-7.80213e-06,7.49152e-05,-1.29915e-06,0
-3.53521e-05,4.65223e-06,-1.4336e-05,-1.02323e-05,9.7471e-06,-6.62797e-06,7.09076e-05,-7.89256e-07,0
-3.52585e-05,3.24342e-06,-1.69953e-05,-8.06224e-06,1.09294e-05,-5.85587e-06,5.98341e-05,-7.55352e-07,0
-3.48892e-05,3.01723e-06,-1.75853e-05,-6.20656e-06,1.33747e-05,-4.9216e-06,4.31316e-05,-9.81063e-07,0
-3.41226e-05,1.92403e-06,-1.67002e-05,-2.667e-06,1.72218e-05,-4.59618e-06,2.25603e-05,-1.10991e-06,0
-3.43678e-05,-2.14147e-06,-1.71203e-05,2.87034e-06,1.96084e-05,-5.43123e-06,1.8645e-06,-5.10971e-07,0
-3.60099e-05,-5.80632e-06,-1.94246e-05,1.34329e-05,1.82269e-05,-6.89164e-06,-1.50388e-05,1.70784e-07,0
-3.64538e-05,-6.38127e-06,-1.95171e-05,3.21964e-05,1.52142e-05,-7.32891e-06,-2.67996e-05,-1.17315e-06,0
-3.59841e-05,-4.86915e-06,-1.58485e-05,4.71307e-05,1.25313e-05,-7.42265e-06,-3.06077e-05,-2.87103e-06,0
-3.52147e-05,-3.21286e-06,-1.19198e-05,4.15711e-05,8.07876e-06,-8.54871e-06,-2.52018e-05,-2.84667e-06,0
-3.43659e-05,-2.9579e-06,-1.15644e-05,1.96151e-05,2.91607e-06,-1.08809e-05,-1.87144e-05,-3.61109e-06,0
-3.33561e-05,-3.77466e-06,-1.32263e-05,-3.81094e-06,-1.20513e-06,-1.23514e-05,-1.65751e-05,-6.17965e-06,0
-3.24933e-05,-5.65748e-06,-1.25226e-05,-2.01981e-05,-5.39188e-06,-1.12242e-05,-1.60004e-05,-8.50585e-06,0
-3.34183e-05,-6.65073e-06,-9.90145e-06,-2.63758e-05,-7.5673e-06,-9.91505e-06,-1.32738e-05,-8.47697e-06,0
-3.39113e-05,-5.62692e-06,-8.85764e-06,-2.94423e-05,-7.65287e-06,-1.21259e-05,-6.89539e-06,-7.92631e-06,0
-3.22232e-05,-2.78987e-06,-8.0331e-06,-3.03244e-05,-4.71759e-06,-1.48661e-05,-1.31058e-06,-7.53153e-06,0
-3.01596e-05,-4.34912e-07,-5.82804e-06,-2.86418e-05,1.6728e-06,-1.38627e-05,8.87129e-07,-6.26961e-06,0
-2.82429e-05,9.90763e-07,-3.45022e-06,-2.75248e-05,8.21993e-06,-1.02775e-05,8.94335e-07,-5.06049e-06,0
-2.69651e-05,1.20877e-06,-2.051e-06,-2.84235e-05,1.23362e-05,-8.14963e-06,-3.65438e-08,-5.35431e-06,0
-2.73614e-05,6.17023e-07,-2.744e-06,-2.95857e-05,1.21555e-05,-9.71742e-06,-1.89821e-06,-6.76711e-06,0
-2.86322e-05,1.46595e-06,-4.63169e-06,-2.46204e-05,1.16198e-05,-1.37819e-05,-3.67318e-06,-6.41906e-06,0
-2.95946e-05,4.10031e-06,-6.0332e-06,-1.28693e-05,1.62148e-05,-1.62513e-05,-2.46984e-06,-5.28245e-06,0
-3.03236e-05,7.49423e-06,-6.89332e-06,-1.4702e-06,2.4633e-05,-1.46847e-05,3.04802e-06,-4.59409e-06,0
-3.10357e-05,9.89126e-06,-6.86114e-06,1.30416e-06,2.86595e-05,-1.26048e-05,1.19714e-05,-4.15612e-06,0
-3.06204e-05,1.14528e-05,-6.01407e-06,-2.00968e-06,2.55084e-05,-1.23089e-05,2.23029e-05,-3.96612e-06,0
-2.9562e-05,1.13909e-05,-4.84545e-06,-5.0103e-06,2.03809e-05,-1.30311e-05,3.11421e-05,-4.02176e-06,0
-2.90345e-05,1.00856e-05,-3.13703e-06,-5.24222e-06,1.72461e-05,-1.31429e-05,3.40962e-05,-4.64837e-06,0
-2.89588e-05,1.00197e-05,-2.86908e-06,-6.84637e-06,1.5728e-05,-1.24037e-05,3.11442e-05,-5.71858e-06,0
-2.866e-05,1.29503e-05,-4.6577e-06,-1.03024e-05,1.42831e-05,-1.04583e-05,2.79201e-05,-6.51461e-06,0
-2.86184e-05,1.56282e-05,-6.64356e-06,-1.01542e-05,1.21671e-05,-9.28827e-06,2.64896e-05,-6.14286e-06,0
-2.95533e-05,1.57614e-05,-6.39585e-06,-7.24806e-06,1.05568e-05,-9.43267e-06,2.27069e-05,-4.03933e-06,0
-2.97121e-05,1.36294e-05,-4.33231e-06,-7.19984e-06,1.04222e-05,-8.62043e-06,1.72633e-05,-1.66032e-06,0
-2.86215e-05,1.04685e-05,-3.26108e-06,-1.09271e-05,1.04086e-05,-5.82784e-06,1.39595e-05,-1.70376e-06,0
-2.74807e-05,1.01304e-05,-4.63958e-06,-1.54683e-05,1.06314e-05,-3.32057e-06,1.26356e-05,-3.20722e-06,0
-2.66711e-05,1.34471e-05,-6.53542e-06,-1.91579e-05,1.15715e-05,-3.67859e-06,1.21047e-05,-3.48025e-06,0
-2.65582e-05,1.651e-05,-6.42654e-06,-1.93071e-05,1.2985e-05,-3.73217e-06,1.19311e-05,-2.30077e-06,0
-2.5707e-05,1.72316e-05,-6.85822e-06,-1.7387e-05,1.37071e-05,-1.78331e-06,1.2829e-05,-2.08615e-06,0
-2.60204e-05,1.79414e-05,-8.45028e-06,-1.6752e-05,1.37831e-05,-6.0034e-07,1.46499e-05,-2.76422e-06,0
-2.77756e-05,2.05248e-05,-9.55292e-06,-1.32899e-05,1.72731e-05,-5.03324e-07,1.67405e-05,-2.27018e-06,0
-2.84002e-05,2.34641e-05,-8.14641e-06,-4.38785e-06,2.29067e-05,-1.66399e-06,1.70005e-05,-1.31839e-06,0
-2.96827e-05,2.36013e-05,-5.11173e-06,5.31407e-06,2.5223e-05,-4.58213e-06,1.29638e-05,-6.24267e-07,0
-3.04368e-05,2.17457e-05,-2.93303e-06,9.81446e-06,2.44548e-05,-7.81763e-06,9.94365e-06,6.96909e-07,0
-3.00998e-05,2.13922e-05,-1.6549e-06,7.18488e-06,2.08583e-05,-9.93877e-06,1.14952e-05,1.53372e-06,0
-3.0275e-05,2.26164e-05,-1.75442e-06,-1.43108e-07,1.66561e-05,-1.01068e-05,1.30743e-05,1.37546e-06,0
-3.02806e-05,2.22346e-05,-1.28056e-06,-7.13638e-06,1.43035e-05,-9.52329e-06,1.30364e-05,7.08005e-07,0
-3.05539e-05,2.04161e-05,-1.1558e-06,-8.72107e-06,1.49809e-05,-1.01645e-05,1.35416e-05,1.38911e-07,0
-3.16358e-05,1.81415e-05,-2.52524e-06,-6.22284e-06,1.79409e-05,-1.15394e-05,1.54178e-05,-3.11218e-07,0
-3.20895e-05,1.64816e-05,-4.04435e-06,-3.30403e-06,2.15655e-05,-1.1127e-05,1.79353e-05,-6.15363e-07,0
-3.1162e-05,1.73804e-05,-4.07668e-06,-5.84724e-07,2.38717e-05,-9.69362e-06,1.95838e-05,-6.23501e-08,0
-3.04542e-05,2.06887e-05,-2.07447e-06,1.68133e-06,2.39739e-05,-9.68623e-06,1.99645e-05,1.26828e-06,0
-3.08443e-05,2.26592e-05,5.07016e-07,2.74212e-06,2.24647e-05,-1.14635e-05,2.01068e-05,2.79199e-06,0
-3.17508e-05,2.11517e-05,1.70196e-06,3.40442e-06,1.95865e-05,-1.18518e-05,2.10091e-05,3.29601e-06,0
-3.30854e-05,1.76679e-05,-7.89232e-08,3.52844e-06,1.78269e-05,-9.30722e-06,2.27604e-05,3.09955e-06,0
-3.46856e-05,1.34095e-05,-2.93252e-06,1.61875e-06,1.81239e-05,-6.12676e-06,2.27971e-05,2.77463e-06,0
-3.58061e-05,9.6912e-06,-2.62856e-06,-3.22095e-06,1.82559e-05,-5.12998e-06,1.93026e-05,2.85551e-06,0
-3.61507e-05,6.36531e-06,7.23465e-06,-9.37641e-06,1.59082e-05,-6.20837e-06,1.41704e-05,4.30074e-06,0
-3.62751e-05,3.52231e-06,3.03055e-05,-1.57928e-05,1.51149e-05,-7.04385e-06,1.1083e-05,6.56345e-06,0
-3.56458e-05,2.65819e-06,6.31647e-05,-2.21436e-05,1.77896e-05,-6.61544e-06,1.06525e-05,7.67767e-06,0
-3.43766e-05,4.24628e-06,9.51427e-05,-2.90239e-05,1.9806e-05,-6.27487e-06,1.13843e-05,7.91987e-06,0
-3.33905e-05,9.47954e-06,0.000110879,-3.41745e-05,1.9641e-05,-7.24794e-06,1.28232e-05,6.55328e-06,0
-3.26458e-05,1.90481e-05,9.86908e-05,-3.21417e-05,1.81901e-05,-8.5558e-06,1.3822e-05,3.35926e-06,0
-3.26446e-05,2.99396e-05,6.02754e-05,-2.15727e-05,1.71825e-05,-1.03517e-05,1.43148e-05,1.85563e-06,0
-3.36188e-05,4.26083e-05,-1.05986e-06,-4.75147e-06,1.66829e-05,-1.26675e-05,1.49386e-05,3.4811e-06,0
-3.4361e-05,5.57784e-05,-6.87593e-05,1.10528e-05,1.45605e-05,-1.44473e-05,1.48113e-05,4.55613e-06,0
-3.44229e-05,6.30419e-05,-0.000116225,2.32191e-05,1.2961e-05,-1.49215e-05,1.48665e-05,3.44118e-06,0
-3.41557e-05,6.19698e-05,-0.000135879,3.052e-05,1.28341e-05,-1.45622e-05,1.54737e-05,3.59493e-06,0
-3.43928e-05,5.35917e-05,-0.000129006,2.86357e-05,1.40153e-05,-1.39239e-05,1.65738e-05,4.67623e-06,0
-3.54303e-05,4.31444e-05,-0.000107979,1.87913e-05,1.63433e-05,-1.25064e-05,1.86225e-05,6.11926e-06,0
-3.37763e-05,4.09792e-05,-8.3314e-05,6.84645e-06,1.77752e-05,-1.07217e-05,2.03733e-05,5.98548e-06,0
-2.97605e-05,4.27818e-05,-6.21721e-05,-4.84157e-07,1.67212e-05,-9.00035e-06,2.03327e-05,3.57162e-06,0
-2.67773e-05,3.7548e-05,-4.60496e-05,-4.34716e-06,1.6021e-05,-7.16077e-06,1.94181e-05,1.49032e-06,0
-2.57742e-05,2.64683e-05,-3.20044e-05,-7.91849e-06,1.64898e-05,-7.63093e-06,1.93361e-05,6.17967e-07,0
-2.64365e-05,1.1706e-05,-2.10869e-05,-1.05608e-05,1.5411e-05,-9.5074e-06,1.92087e-05,7.86187e-07,0
-2.60869e-05,-2.83821e-06,-1.36633e-05,-1.04586e-05,1.35799e-05,-1.02909e-05,1.85537e-05,1.39968e-06,0
-2.49851e-05,-1.35393e-05,-1.13385e-05,-8.82433e-06,1.15315e-05,-1.06622e-05,1.78946e-05,1.4161e-06,0
-2.51935e-05,-1.71812e-05,-1.07387e-05,-8.11965e-06,1.11129e-05,-1.10989e-05,1.67784e-05,1.07502e-07,0
-2.76301e-05,-1.57103e-05,-9.13745e-06,-6.93991e-06,1.36088e-05,-1.07704e-05,1.43145e-05,-8.65139e-07,0
-2.97896e-05,-1.29881e-05,-5.82538e-06,-4.04152e-06,1.75079e-05,-9.1573e-06,1.23177e-05,-1.15842e-06,0
-2.97254e-05,-3.63748e-06,-2.49171e-06,-8.23123e-07,1.88287e-05,-7.92657e-06,1.29783e-05,-1.19426e-06,0
-2.83742e-05,1.92492e-05,-7.29675e-07,1.79501e-07,1.76925e-05,-7.75095e-06,1.46321e-05,-4.96994e-07,0
-2.61072e-05,4.39309e-05,-2.22033e-06,7.04487e-07,1.66989e-05,-7.91243e-06,1.44766e-05,9.44056e-07,0
-2.2619e-05,4.73546e-05,-4.76709e-06,2.76995e-06,1.65466e-05,-7.24436e-06,1.29949e-05,1.20183e-06,0
-1.54528e-05,2.92636e-05,-5.657e-06,5.01943e-06,1.66406e-05,-6.82249e-06,1.22406e-05,-1.54632e-07,0
-5.81264e-06,9.23363e-06,-4.10722e-06,4.62792e-06,1.61143e-05,-6.74739e-06,1.21403e-05,-2.27484e-06,0
-4.23429e-07,1.11506e-06,-1.7067e-06,2.01032e-06,1.46274e-05,-5.92399e-06,1.14231e-05,-5.00862e-06,0
-1.89797e-06,9.30411e-06,-3.70396e-07,6.51507e-07,1.21194e-05,-5.9093e-06,1.0221e-05,-7.04109e-06,0
-9.11913e-06,3.38815e-05,-8.25781e-07,1.75405e-06,9.07376e-06,-7.58575e-06,1.01428e-05,-5.61974e-06,0
-2.07697e-05,5.70328e-05,-2.69575e-06,4.30392e-06,6.55964e-06,-8.87492e-06,1.06234e-05,-2.62909e-06,0
-3.21858e-05,5.37437e-05,-2.67952e-06,7.3909e-06,4.15695e-06,-8.32024e-06,1.05397e-05,-1.68212e-06,0
-4.14588e-05,2.23938e-05,-2.25598e-06,8.67236e-06,2.24983e-06,-7.18816e-06,9.50401e-06,-1.40166e-06,0
-4.57415e-05,-1.3871e-05,-4.52406e-06,5.83952e-06,1.47224e-06,-7.86215e-06,8.09835e-06,6.77823e-07,0
-4.75344e-05,-4.73629e-05,-7.25205e-06,6.39008e-07,5.07554e-07,-1.04921e-05,7.67728e-06,3.12669e-06,0
-5.0937e-05,-8.08011e-05,-8.58083e-06,-5.45357e-06,-1.06309e-06,-1.12999e-05,7.01417e-06,3.99413e-06,0
-5.21125e-05,-0.000101473,-1.05171e-05,-1.28982e-05,-2.6001e-06,-1.09281e-05,6.48999e-06,4.72772e-06,0
-5.12761e-05,-0.000102985,-1.33237e-05,-2.03005e-05,-1.9705e-06,-1.19505e-05,6.92832e-06,5.33235e-06,0
-5.01382e-05,-8.87495e-05,-1.50804e-05,-2.53632e-05,-5.36942e-07,-1.28372e-05,1.04753e-05,5.04545e-06,0
-4.91249e-05,-6.96534e-05,-1.50087e-05,-2.61885e-05,-3.6707e-07,-1.13707e-05,1.52141e-05,4.10703e-06,0
-4.89137e-05,-5.30366e-05,-1.39072e-05,-2.13021e-05,4.34019e-07,-9.2158e-06,1.54697e-05,3.86963e-06,0
-4.94185e-05,-3.33277e-05,-1.22546e-05,-1.46724e-05,3.64594e-06,-8.57574e-06,1.19507e-05,4.58973e-06,0
-4.81165e-05,-8.99292e-06,-1.12624e-05,-9.72559e-06,8.7209e-06,-8.97642e-06,9.11411e-06,6.10584e-06,0
-4.49087e-05,1.00194e-05,-1.04583e-05,-6.17434e-06,1.39335e-05,-8.8659e-06,8.931e-06,6.5753e-06,0
-4.06201e-05,1.89719e-05,-9.11715e-06,-3.98274e-06,1.70382e-05,-6.66578e-06,8.899e-06,4.89059e-06,0
-3.55562e-05,2.44663e-05,-5.51985e-06,-1.70266e-06,1.82445e-05,-3.76299e-06,7.73306e-06,2.60615e-06,0
-3.04678e-05,3.99338e-05,-2.04176e-07,1.50318e-06,1.92176e-05,-1.46727e-06,6.4211e-06,1.63364e-06,0
-2.56344e-05,6.66687e-05,4.87127e-06,6.42442e-06,2.18682e-05,-1.27976e-07,6.69586e-06,2.21444e-06,0
-2.24769e-05,8.77279e-05,8.17443e-06,1.21922e-05,2.58632e-05,5.05019e-07,8.28639e-06,2.69758e-06,0
-2.15154e-05,9.04955e-05,9.64989e-06,1.59113e-05,2.7445e-05,4.60457e-07,1.04291e-05,2.3723e-06,0
-2.30617e-05,7.47885e-05,9.46689e-06,1.56941e-05,2.51413e-05,-8.37407e-07,1.20451e-05,1.79281e-06,0
-2.59973e-05,4.30892e-05,7.09206e-06,1.22082e-05,2.08123e-05,-2.3457e-06,1.24181e-05,1.73984e-06,0
-2.92482e-05,-5.44824e-06,3.7794e-06,5.34154e-06,1.64529e-05,-2.07583e-06,1.22696e-05,1.91983e-06,0
-3.17076e-05,-5.68883e-05,-1.80657e-07,-3.24967e-06,1.38407e-05,-1.42941e-06,1.33108e-05,2.32717e-06,0
-3.10191e-05,-8.28026e-05,-2.91441e-06,-7.7925e-06,1.31618e-05,-2.46096e-06,1.46107e-05,2.49485e-06,0
-2.82494e-05,-7.13892e-05,-1.47392e-06,-6.99057e-06,1.31626e-05,-3.19149e-06,1.43535e-05,3.04996e-06,0
-2.71993e-05,-3.31767e-05,1.68922e-06,-3.38021e-06,1.28639e-05,-2.83752e-06,1.25341e-05,3.13984e-06,0
-2.73243e-05,1.74216e-05,1.78097e-06,1.29994e-06,1.12409e-05,-2.5322e-06,8.87674e-06,2.91729e-06,0
-2.70856e-05,5.92813e-05,-9.30281e-07,3.92035e-06,8.56667e-06,-2.21154e-06,3.84352e-06,2.95303e-06,0
-2.62952e-05,7.78149e-05,-4.54497e-06,3.54439e-06,5.49084e-06,-1.33481e-06,1.02519e-06,3.05082e-06,0
-2.58277e-05,7.83282e-05,-6.84044e-06,3.63477e-06,3.25793e-06,-3.92239e-07,4.04939e-06,2.76829e-06,0
-2.57547e-05,7.26879e-05,-7.01112e-06,4.3714e-06,3.03882e-06,-8.22025e-07,8.77171e-06,2.09579e-06,0
-2.51456e-05,6.01198e-05,-6.30675e-06,6.17317e-06,6.69569e-06,-7.46141e-07,1.0088e-05,2.75139e-06,0
-2.50924e-05,3.67611e-05,-7.36718e-06,7.72873e-06,1.29897e-05,-1.29756e-07,7.86558e-06,2.40708e-06,0
-2.64433e-05,7.03326e-06,-1.00691e-05,6.39595e-06,1.75903e-05,-2.02815e-06,6.18793e-06,8.64863e-07,0
-2.76854e-05,-2.34327e-05,-1.07125e-05,3.42991e-06,1.91576e-05,-4.83248e-06,8.21653e-06,-1.01798e-06,0
-2.80243e-05,-4.49887e-05,-8.04965e-06,7.98482e-07,1.95759e-05,-5.47978e-06,1.44862e-05,-1.87695e-06,0
-2.80589e-05,-5.52045e-05,-5.04349e-06,2.51099e-07,2.06304e-05,-3.18898e-06,2.18047e-05,-2.33799e-07,0
-2.69869e-05,-5.56895e-05,-2.08906e-06,1.55719e-06,2.14471e-05,-1.20268e-06,2.6265e-05,2.36598e-06,0
-2.57348e-05,-4.89927e-05,8.15649e-07,2.81216e-06,2.12209e-05,-2.25482e-06,2.56453e-05,4.09393e-06,0
-2.50817e-05,-3.71461e-05,1.97635e-06,2.37252e-06,2.03898e-05,-4.1278e-06,2.13933e-05,5.56363e-06,0
-2.44077e-05,-2.07203e-05,2.28843e-06,2.83249e-07,2.04318e-05,-4.46109e-06,1.82101e-05,7.59702e-06,0
-2.28161e-05,2.95377e-06,2.255e-06,-8.86232e-07,2.14057e-05,-4.20291e-06,1.67938e-05,7.67179e-06,0
-2.16717e-05,4.21409e-05,1.28147e-06,-3.17964e-07,2.10553e-05,-4.98206e-06,1.42146e-05,5.68191e-06,0
-2.19441e-05,9.1965e-05,-2.31184e-06,-9.74586e-07,1.73991e-05,-7.984e-06,1.0024e-05,3.65912e-06,0
-2.36362e-05,0.000129096,-8.6408e-06,-5.81256e-06,1.15454e-05,-1.22152e-05,6.98049e-06,3.06708e-06,0
-2.80933e-05,0.000141559,-1.60374e-05,-1.79454e-05,6.9801e-06,-1.49592e-05,5.76549e-06,3.85747e-06,0
-3.41578e-05,0.000134307,-2.24803e-05,-3.64535e-05,5.14537e-06,-1.57224e-05,5.7962e-06,4.14095e-06,0
-3.74912e-05,0.00010683,-2.69424e-05,-5.2551e-05,4.86573e-06,-1.49509e-05,6.33104e-06,2.3511e-06,0
-3.74337e-05,5.71579e-05,-2.83353e-05,-5.71172e-05,5.40023e-06,-1.31104e-05,5.04414e-06,-4.53081e-08,0
-3.59613e-05,-2.89851e-06,-2.54865e-05,-5.00292e-05,7.46938e-06,-1.07431e-05,-1.70119e-06,-1.69185e-07,0
-3.35082e-05,-4.52386e-05,-2.07784e-05,-4.01349e-05,9.30296e-06,-8.71023e-06,-8.82375e-06,1.92806e-06,0
-3.12675e-05,-5.08201e-05,-1.71744e-05,-3.33597e-05,9.57893e-06,-7.28609e-06,-7.46198e-06,2.77931e-06,0
-3.00835e-05,-3.13454e-05,-1.63149e-05,-2.17811e-05,8.92972e-06,-6.68773e-06,2.07711e-06,2.67703e-06,0
-3.04431e-05,-1.16714e-05,-1.823e-05,-8.76671e-07,7.77415e-06,-8.36621e-06,1.33045e-05,2.01617e-06,0
-3.21207e-05,1.32007e-06,-2.0144e-05,2.11169e-05,9.45524e-06,-1.18441e-05,1.92071e-05,9.64585e-07,0
-3.3569e-05,1.2502e-05,-2.12566e-05,3.52023e-05,1.47763e-05,-1.59956e-05,1.80187e-05,1.72232e-06,0
-3.26552e-05,2.50088e-05,-2.17678e-05,3.55855e-05,1.78182e-05,-1.77396e-05,1.3224e-05,3.79069e-06,0
-3.15913e-05,4.63729e-05,-2.1964e-05,2.89251e-05,1.6555e-05,-1.49588e-05,9.05771e-06,3.5477e-06,0
-3.12264e-05,6.98203e-05,-2.12733e-05,1.87599e-05,1.37333e-05,-1.16483e-05,9.04322e-06,1.72058e-06,0
-3.00347e-05,8.16637e-05,-2.05025e-05,8.31606e-06,9.97493e-06,-1.06187e-05,1.08785e-05,2.36117e-06,0
-2.83089e-05,8.53397e-05,-1.99774e-05,5.89545e-06,7.54935e-06,-1.08353e-05,1.1046e-05,2.75728e-06,0
-2.75702e-05,7.64092e-05,-1.83494e-05,7.00486e-06,6.28149e-06,-1.21851e-05,1.10782e-05,2.32415e-06,0
-2.94127e-05,4.26644e-05,-1.52184e-05,6.11135e-06,5.39264e-06,-1.34785e-05,1.21125e-05,1.05265e-06,0
-3.22035e-05,-8.39154e-06,-1.02927e-05,-5.67311e-07,5.6147e-06,-1.36197e-05,1.37856e-05,2.43204e-07,0
-3.31137e-05,-5.55444e-05,-7.58491e-06,-8.85479e-06,5.97145e-06,-1.54634e-05,1.67608e-05,1.26449e-07,0
-3.11866e-05,-8.51113e-05,-8.37404e-06,-1.18781e-05,6.91145e-06,-1.86638e-05,1.86486e-05,2.01256e-07,0
-2.92978e-05,-9.40656e-05,-9.74549e-06,-7.56731e-06,9.61263e-06,-2.06604e-05,1.6937e-05,4.08628e-07,0
-2.92322e-05,-8.53947e-05,-8.54807e-06,-3.96995e-07,1.374e-05,-1.9989e-05,1.46832e-05,2.75185e-08,0
-3.10074e-05,-6.46098e-05,-3.66636e-06,3.81255e-06,1.7529e-05,-1.77334e-05,1.42705e-05,1.97632e-07,0
-3.35914e-05,-4.19921e-05,2.91448e-06,4.01332e-06,1.90319e-05,-1.63185e-05,1.5167e-05,3.49608e-07,0
-3.58668e-05,-2.61156e-05,7.89787e-06,4.42888e-07,1.78013e-05,-1.71559e-05,1.56928e-05,-1.2531e-07,0
-3.72944e-05,-1.67699e-05,1.00755e-05,-5.40987e-06,1.55741e-05,-1.97428e-05,1.53009e-05,-2.02964e-06,0
-3.6989e-05,-8.96985e-06,1.12946e-05,-1.22279e-05,1.35816e-05,-2.2677e-05,1.49882e-05,-3.70228e-06,0
-3.48301e-05,1.12416e-06,1.386e-05,-1.76063e-05,1.22174e-05,-2.56308e-05,1.65887e-05,-4.64536e-06,0
-3.31243e-05,9.56819e-06,1.8404e-05,-2.1661e-05,1.09152e-05,-2.78641e-05,2.01431e-05,-5.73831e-06,0
-3.31e-05,1.11779e-05,2.49565e-05,-2.38524e-05,9.9869e-06,-2.85807e-05,2.46352e-05,-7.29459e-06,0
-3.26806e-05,7.89428e-06,3.29275e-05,-2.48752e-05,9.5382e-06,-2.73598e-05,2.82306e-05,-7.78569e-06,0
-3.18749e-05,7.31747e-06,4.07559e-05,-2.66253e-05,9.446e-06,-2.55984e-05,2.82672e-05,-6.45611e-06,0
-3.0664e-05,9.67713e-06,4.76949e-05,-2.98228e-05,1.07024e-05,-2.35066e-05,2.52291e-05,-5.02902e-06,0
-2.90259e-05,9.96754e-06,4.90148e-05,-3.21833e-05,1.28594e-05,-2.07577e-05,2.38075e-05,-5.43782e-06,0
-2.77736e-05,8.71152e-06,3.86458e-05,-3.04455e-05,1.2739e-05,-1.91964e-05,2.48795e-05,-6.35662e-06,0
-2.71868e-05,9.92576e-06,1.66752e-05,-2.2447e-05,9.34475e-06,-1.96813e-05,2.42236e-05,-7.72917e-06,0
-2.81495e-05,1.36353e-05,-1.06949e-05,-9.1916e-06,7.16778e-06,-2.14095e-05,2.2183e-05,-9.68739e-06,0
-2.81474e-05,1.64453e-05,-3.38328e-05,1.12696e-06,9.2274e-06,-2.23747e-05,2.18321e-05,-8.59187e-06,0
-2.6643e-05,1.75547e-05,-4.83136e-05,4.63321e-06,1.14459e-05,-2.15021e-05,2.66663e-05,-6.46568e-06,0
-2.6879e-05,1.84977e-05,-5.01688e-05,6.73197e-06,1.13141e-05,-2.08741e-05,3.60952e-05,-6.39375e-06,0
-2.61581e-05,1.88871e-05,-3.97692e-05,6.77511e-06,9.82946e-06,-2.02399e-05,4.28542e-05,-8.26194e-06,0
-2.4601e-05,1.91968e-05,-2.86508e-05,3.7433e-06,8.93785e-06,-1.76545e-05,4.50494e-05,-9.172e-06,0
-2.41599e-05,1.96531e-05,-1.87963e-05,-3.44921e-06,1.0146e-05,-1.37432e-05,4.50276e-05,-6.39915e-06,0
-2.5064e-05,1.98109e-05,-7.3084e-06,-1.27303e-05,1.22142e-05,-1.21747e-05,4.17994e-05,-2.89866e-06,0
-2.63875e-05,1.94257e-05,7.95864e-06,-1.78394e-05,1.34035e-05,-1.37055e-05,3.53041e-05,-1.81783e-06,0
-2.66188e-05,1.89994e-05,2.53844e-05,-1.85485e-05,1.2064e-05,-1.46355e-05,2.99949e-05,-2.77885e-06,0
-2.74442e-05,1.88301e-05,4.06398e-05,-1.71075e-05,1.14119e-05,-1.30298e-05,2.4456e-05,-3.57153e-06,0
-2.88922e-05,1.89134e-05,4.71649e-05,-1.56567e-05,1.20917e-05,-1.03904e-05,9.37725e-06,-2.75999e-06,0
-3.03862e-05,2.08667e-05,3.78831e-05,-1.38297e-05,1.08255e-05,-8.4866e-06,-1.2276e-05,-1.64259e-06,0
-3.05566e-05,2.41093e-05,1.4011e-05,-1.1428e-05,6.06001e-06,-6.54977e-06,-2.92035e-05,-1.87756e-06,0
-3.07173e-05,2.67694e-05,-1.75483e-05,-8.93707e-06,7.4873e-07,-4.71262e-06,-3.42839e-05,-2.83545e-06,0
-3.16893e-05,2.72992e-05,-4.83431e-05,-7.59879e-06,-2.31818e-06,-3.98629e-06,-2.93482e-05,-2.14336e-06,0
-3.235e-05,2.65295e-05,-7.30854e-05,-7.96329e-06,-2.31391e-06,-3.73302e-06,-2.16784e-05,-8.39406e-07,0
-3.12199e-05,2.60979e-05,-8.72751e-05,-1.03403e-05,1.31309e-06,-2.48092e-06,-1.627e-05,-9.90732e-07,0
-2.87027e-05,2.61651e-05,-8.99685e-05,-1.19971e-05,5.79827e-06,-1.3211e-06,-1.44264e-05,-1.70801e-06,0
-2.75954e-05,2.50071e-05,-8.31686e-05,-1.10135e-05,8.8377e-06,-9.66426e-07,-1.50427e-05,-1.09143e-06,0
-2.83395e-05,2.19899e-05,-7.15888e-05,-1.01419e-05,1.14461e-05,-2.35143e-07,-1.73085e-05,7.39949e-07,0
-2.92892e-05,1.82197e-05,-6.01513e-05,-1.26442e-05,1.45304e-05,4.20421e-07,-2.0416e-05,2.13954e-06,0
-2.90144e-05,1.60808e-05,-4.97401e-05,-1.52306e-05,1.54651e-05,1.49378e-07,-2.40314e-05,2.21584e-06,0
-2.85585e-05,1.73197e-05,-3.65618e-05,-1.20516e-05,1.2956e-05,-3.21148e-07,-2.39621e-05,1.22308e-06,0
-2.84959e-05,2.08853e-05,-2.28094e-05,-4.62762e-06,9.98079e-06,-4.37727e-07,-1.80971e-05,8.96825e-07,0
-2.82917e-05,2.49015e-05,-1.3712e-05,9.7218e-07,9.89316e-06,-1.34724e-06,-1.20137e-05,3.13126e-06,0
-2.66371e-05,2.89668e-05,-8.87207e-06,3.41791e-06,1.27406e-05,-3.72116e-06,-1.01942e-05,5.92332e-06,0
-2.39388e-05,3.28494e-05,-7.21871e-06,2.79985e-06,1.62686e-05,-4.96067e-06,-7.12958e-06,6.27777e-06,0
-2.26553e-05,3.35404e-05,-8.52698e-06,3.86387e-06,1.67365e-05,-4.005e-06,-3.83988e-07,5.62867e-06,0
-2.42182e-05,2.93267e-05,-1.06537e-05,8.28559e-06,1.65068e-05,-3.01976e-06,4.39116e-06,5.23941e-06,0
-2.65929e-05,2.55133e-05,-8.7806e-06,1.12581e-05,1.67119e-05,-3.1597e-06,5.70296e-06,4.71134e-06,0
-2.7114e-05,2.53256e-05,-5.41408e-06,1.29267e-05,1.58379e-05,-4.9703e-06,5.29421e-06,3.41586e-06,0
-2.60606e-05,2.4806e-05,-5.41764e-06,1.11667e-05,1.55783e-05,-5.90256e-06,4.08302e-06,3.14594e-06,0
-2.48768e-05,2.20581e-05,-6.96335e-06,6.71575e-06,1.73316e-05,-4.72734e-06,3.07292e-06,3.57123e-06,0
-2.41629e-05,1.84168e-05,-9.13219e-06,4.73123e-06,1.90902e-05,-3.73382e-06,4.90237e-06,3.65526e-06,0
-2.39049e-05,1.5084e-05,-1.14376e-05,7.99203e-06,1.82547e-05,-4.20056e-06,8.30844e-06,5.47463e-06,0
-2.38289e-05,1.26071e-05,-1.26279e-05,1.08629e-05,1.64236e-05,-5.75937e-06,1.17068e-05,7.53442e-06,0
-2.40954e-05,1.05063e-05,-1.26032e-05,8.40967e-06,1.50303e-05,-6.65571e-06,1.46437e-05,8.05259e-06,0
-2.45935e-05,8.65255e-06,-1.14032e-05,2.89551e-06,1.50469e-05,-6.53888e-06,1.63301e-05,8.0449e-06,0
-2.52163e-05,7.49487e-06,-9.37383e-06,-2.78352e-06,1.57137e-05,-5.77565e-06,1.75153e-05,7.77509e-06,0
-2.58286e-05,7.98851e-06,-7.30639e-06,-7.97134e-06,1.6928e-05,-4.11169e-06,1.83131e-05,6.57844e-06,0
-2.65335e-05,1.01722e-05,-6.83825e-06,-1.18674e-05,1.73113e-05,-2.22146e-06,1.90446e-05,6.31407e-06,0
-2.77598e-05,1.23379e-05,-7.90564e-06,-1.37522e-05,1.54438e-05,-1.13508e-06,2.17838e-05,7.89943e-06,0
-2.86784e-05,1.299e-05,-1.00255e-05,-1.30983e-05,1.24634e-05,-1.32819e-06,2.78295e-05,9.58342e-06,0
-2.92346e-05,1.25036e-05,-1.18626e-05,-6.04839e-06,1.03217e-05,-1.97649e-06,3.27416e-05,1.06861e-05,0
-2.97635e-05,1.27362e-05,-1.22235e-05,7.52187e-06,9.45503e-06,-2.27168e-06,3.28797e-05,1.14147e-05,0
-3.00502e-05,1.33177e-05,-1.09734e-05,1.58289e-05,9.1182e-06,-3.3351e-06,3.11749e-05,1.10406e-05,0
-3.03955e-05,1.36581e-05,-8.49167e-06,6.25862e-06,9.84707e-06,-5.49231e-06,3.14544e-05,8.77532e-06,0
-3.18028e-05,1.37827e-05,-5.83373e-06,-1.65037e-05,1.26365e-05,-7.19103e-06,3.28641e-05,6.06051e-06,0
-3.30997e-05,1.30539e-05,-4.39742e-06,-3.5652e-05,1.57667e-05,-7.53493e-06,3.39127e-05,4.54157e-06,0
-3.32949e-05,1.10121e-05,-4.84924e-06,-3.92731e-05,1.57257e-05,-7.31563e-06,3.42831e-05,4.27111e-06,0
-3.28722e-05,8.1465e-06,-5.89991e-06,-3.00973e-05,1.28877e-05,-7.81222e-06,3.33436e-05,4.8404e-06,0
-3.29896e-05,7.23376e-06,-4.91646e-06,-1.73424e-05,9.43743e-06,-8.30251e-06,3.13638e-05,5.47057e-06,0
-3.40182e-05,9.73201e-06,-2.4392e-06,-4.27501e-06,7.5767e-06,-8.75816e-06,3.00584e-05,4.99823e-06,0
-3.33025e-05,1.21255e-05,-1.43287e-06,7.99415e-06,7.80446e-06,-1.02355e-05,2.94883e-05,4.62664e-06,0
-3.02415e-05,1.47218e-05,-1.96082e-06,1.04582e-05,7.95912e-06,-1.22572e-05,2.69122e-05,6.07239e-06,0
-2.81415e-05,1.61155e-05,-2.67895e-06,5.46671e-06,7.70507e-06,-1.4039e-05,2.38631e-05,8.46243e-06,0
-2.85443e-05,1.60069e-05,-2.07425e-06,4.48648e-06,1.05402e-05,-1.43312e-05,2.15879e-05,1.05176e-05,0
-2.96927e-05,1.70397e-05,1.17842e-06,8.10837e-06,1.89771e-05,-1.42134e-05,1.86798e-05,9.84184e-06,0
-3.17961e-05,1.71841e-05,4.8826e-06,1.03232e-05,3.11268e-05,-1.4089e-05,1.64808e-05,7.65305e-06,0
-3.36798e-05,1.64805e-05,6.83939e-06,1.4e-06,3.82926e-05,-1.29094e-05,1.6102e-05,6.91207e-06,0
-3.35491e-05,1.58236e-05,7.235e-06,-1.45069e-05,3.4563e-05,-1.20566e-05,1.77623e-05,5.86096e-06,0
-3.3488e-05,1.54515e-05,6.61903e-06,-2.70572e-05,2.37754e-05,-1.17406e-05,1.9791e-05,4.35469e-06,0
-3.39686e-05,1.38365e-05,4.63553e-06,-3.13214e-05,1.3347e-05,-1.15539e-05,2.05754e-05,2.7464e-06,0
-3.34497e-05,1.3343e-05,1.80154e-06,-2.84943e-05,1.01275e-05,-1.22899e-05,1.95326e-05,1.11322e-06,0
-3.27197e-05,1.43592e-05,1.85388e-07,-2.55327e-05,1.27375e-05,-1.23773e-05,1.75097e-05,-3.98606e-07,0
-3.20432e-05,1.54626e-05,4.97378e-07,-2.62599e-05,1.50944e-05,-1.058e-05,1.78595e-05,-1.95425e-06,0
-3.09505e-05,1.68304e-05,1.85658e-06,-2.81288e-05,1.5281e-05,-9.18356e-06,2.19714e-05,-2.97582e-06,0
-3.15878e-05,1.86839e-05,2.09383e-06,-2.72519e-05,1.68392e-05,-8.98053e-06,2.73367e-05,-2.61342e-06,0
-3.45223e-05,2.02339e-05,2.23801e-07,-2.4167e-05,2.03156e-05,-8.97572e-06,2.95601e-05,-8.48301e-07,0
-3.70483e-05,1.9595e-05,-3.03221e-06,-1.74208e-05,2.17725e-05,-8.42929e-06,2.74599e-05,1.32226e-06,0
-3.72468e-05,1.68097e-05,-4.72199e-06,-7.62308e-06,2.00241e-05,-6.41618e-06,2.23605e-05,3.61793e-06,0
-3.54736e-05,1.35772e-05,-3.20339e-06,-7.56618e-07,1.78293e-05,-3.92919e-06,1.5051e-05,5.31702e-06,0
-3.33463e-05,1.17133e-05,5.44038e-07,-9.61546e-07,1.82604e-05,-2.95373e-06,6.30815e-06,4.85079e-06,0
-3.33389e-05,1.19583e-05,3.85778e-06,-6.20431e-06,2.01275e-05,-3.78241e-06,-9.18968e-07,2.972e-06,0
-3.61449e-05,1.46345e-05,5.14671e-06,-1.33891e-05,1.9194e-05,-6.55381e-06,-3.94327e-06,1.52946e-06,0
-3.9153e-05,1.54617e-05,4.72386e-06,-1.81888e-05,1.51598e-05,-9.55886e-06,-2.90639e-06,-4.83261e-07,0
-3.89122e-05,1.27238e-05,2.23105e-06,-1.85789e-05,1.35629e-05,-1.06418e-05,-1.57683e-08,-2.35505e-06,0
-3.79298e-05,1.08549e-05,-3.18282e-06,-1.62878e-05,1.60153e-05,-1.09434e-05,2.90982e-06,-2.18931e-06,0
-3.86905e-05,1.5294e-05,-9.49083e-06,-1.3237e-05,1.88297e-05,-1.04846e-05,4.42897e-06,-6.91169e-07,0
-3.85443e-05,2.24229e-05,-1.35082e-05,-9.70517e-06,1.90812e-05,-9.15394e-06,3.42286e-06,6.88746e-07,0
-3.56168e-05,2.59171e-05,-1.38355e-05,-6.11542e-06,1.77797e-05,-7.89494e-06,-5.509e-07,1.50393e-06,0
-3.26784e-05,2.58376e-05,-1.26142e-05,-4.49536e-06,1.7501e-05,-6.13669e-06,-3.51948e-06,1.25735e-06,0
-3.30599e-05,2.32867e-05,-1.3108e-05,-4.81943e-06,1.80985e-05,-4.33597e-06,-2.6903e-06,6.1073e-07,0
-3.47902e-05,1.78856e-05,-1.56443e-05,-7.22416e-06,1.82415e-05,-3.79764e-06,-1.37754e-07,4.70217e-07,0
-3.59702e-05,9.10452e-06,-1.9652e-05,-1.1836e-05,1.83146e-05,-5.08903e-06,2.94219e-06,5.26038e-07,0
-3.7516e-05,-5.15523e-07,-2.28403e-05,-1.78484e-05,1.87321e-05,-4.99089e-06,4.25493e-06,2.67391e-07,0
-3.8571e-05,-5.15751e-06,-2.35605e-05,-2.34203e-05,2.01949e-05,-3.70907e-06,4.13435e-06,-3.8667e-07,0
-3.70935e-05,-3.46919e-06,-2.05961e-05,-2.32452e-05,2.22274e-05,-2.98827e-06,2.78746e-06,-1.41992e-06,0
-3.52316e-05,1.31303e-06,-1.60775e-05,-1.2919e-05,2.36242e-05,-1.15173e-06,1.15247e-06,-1.89229e-06,0
-3.36242e-05,8.16721e-06,-1.23712e-05,2.05082e-06,2.23781e-05,-7.69643e-07,1.03112e-06,-1.98878e-06,0
-3.3045e-05,1.379e-05,-9.63265e-06,1.61945e-05,1.9302e-05,-3.20617e-06,3.35881e-06,-2.40046e-06,0
-3.4555e-05,1.46302e-05,-8.07667e-06,2.83282e-05,1.7584e-05,-5.89703e-06,6.64129e-06,-1.7595e-06,0
-3.65427e-05,1.5246e-05,-7.38234e-06,3.70509e-05,1.64771e-05,-6.32157e-06,9.26645e-06,-1.77093e-07,0
-3.66154e-05,2.28301e-05,-6.66863e-06,3.97666e-05,1.53821e-05,-5.95012e-06,1.08141e-05,1.41223e-06,0
-3.57755e-05,3.66623e-05,-5.0847e-06,3.39595e-05,1.49555e-05,-6.76518e-06,9.66264e-06,2.29312e-06,0
-3.56742e-05,5.0453e-05,-3.06077e-06,2.30739e-05,1.56357e-05,-8.8117e-06,6.82265e-06,2.52638e-06,0
-3.54892e-05,5.82884e-05,-5.52776e-07,1.39973e-05,1.51343e-05,-1.02417e-05,5.01913e-06,2.90098e-06,0
-3.45473e-05,5.84455e-05,1.70115e-06,7.72165e-06,1.1801e-05,-9.8689e-06,4.4888e-06,3.89198e-06,0
-3.25771e-05,5.217e-05,2.2295e-06,1.89077e-06,8.67443e-06,-1.01925e-05,4.33142e-06,4.57072e-06,0
-3.0998e-05,4.27211e-05,1.20361e-06,-1.59962e-06,9.43577e-06,-1.16083e-05,6.45572e-06,4.65152e-06,0
-3.04888e-05,3.00468e-05,5.94498e-07,-2.60446e-06,1.32411e-05,-1.24632e-05,1.03429e-05,4.12854e-06,0
-3.11062e-05,1.25848e-05,4.86844e-07,-5.95564e-06,1.67968e-05,-1.06448e-05,1.34196e-05,1.93956e-06,0
-3.14524e-05,-5.97517e-06,-1.49987e-06,-1.22651e-05,1.69749e-05,-6.31682e-06,1.49239e-05,-1.78611e-06,0
-3.09347e-05,-1.88104e-05,-6.73233e-06,-1.47262e-05,1.41609e-05,-3.04017e-06,1.63355e-05,-4.29929e-06,0
-2.95191e-05,-2.17869e-05,-1.1234e-05,-8.20311e-06,1.12833e-05,-3.00977e-06,1.77066e-05,-3.54576e-06,0
-2.91707e-05,-1.94565e-05,-1.15535e-05,4.37252e-06,9.3141e-06,-6.12854e-06,1.79438e-05,-2.94293e-06,0
-3.02767e-05,-1.42713e-05,-9.22145e-06,1.70388e-05,6.63895e-06,-1.07505e-05,1.69329e-05,-5.75702e-06,0
-3.12846e-05,-2.77565e-06,-7.13007e-06,2.66844e-05,2.03867e-06,-1.34184e-05,1.67996e-05,-8.76482e-06,0
-3.01553e-05,1.22228e-05,-6.58823e-06,3.08087e-05,-9.95038e-08,-1.38377e-05,1.73399e-05,-9.00236e-06,0
-2.78959e-05,3.05362e-05,-4.88684e-06,2.95892e-05,6.3648e-07,-1.57529e-05,1.64765e-05,-6.78675e-06,0
-2.67041e-05,5.66951e-05,-1.06714e-06,2.48626e-05,5.35413e-07,-1.79974e-05,1.6805e-05,-3.63575e-06,0
-2.49422e-05,8.47487e-05,3.5883e-06,1.97948e-05,-2.08731e-07,-1.72641e-05,1.92596e-05,-1.01267e-06,0
-2.5199e-05,0.00010947,8.27565e-06,1.3093e-05,-2.47904e-06,-1.49545e-05,2.14689e-05,1.26108e-06,0
-2.68127e-05,0.00012258,1.15552e-05,2.05115e-06,-3.9714e-06,-1.37462e-05,2.13986e-05,2.87695e-06,0
-2.70625e-05,0.000113776,1.30963e-05,-9.09558e-06,-2.10225e-06,-1.34221e-05,1.98575e-05,4.52207e-06,0
-2.7036e-05,8.94745e-05,1.38232e-05,-1.8018e-05,1.53601e-07,-1.29263e-05,1.90908e-05,4.89514e-06,0
-2.65584e-05,6.67175e-05,1.3758e-05,-2.7886e-05,-5.74713e-08,-1.36791e-05,1.86044e-05,3.34388e-06,0
-2.59888e-05,5.90798e-05,1.20965e-05,-3.95518e-05,3.08702e-08,-1.45739e-05,1.76638e-05,1.8283e-06,0
-2.49676e-05,5.54625e-05,9.49965e-06,-4.9036e-05,6.1341e-06,-1.25429e-05,1.6388e-05,1.46645e-06,0
-2.27577e-05,3.76337e-05,6.53036e-06,-5.01186e-05,1.70051e-05,-8.70995e-06,1.5895e-05,1.7264e-06,0
-1.9991e-05,1.54713e-06,3.85175e-06,-3.7967e-05,2.71798e-05,-6.37728e-06,1.6651e-05,9.2214e-07,0
-1.75585e-05,-4.92844e-05,2.64205e-06,-1.73919e-05,3.35665e-05,-5.73809e-06,1.70331e-05,2.62846e-07,0
-1.74821e-05,-0.000104148,2.50225e-06,4.79251e-06,3.59273e-05,-5.24736e-06,1.72172e-05,3.72026e-07,0
-2.08741e-05,-0.000148953,1.41765e-06,2.33096e-05,3.42392e-05,-5.33404e-06,1.86403e-05,2.90869e-07,0
-2.66612e-05,-0.000171729,-3.1139e-06,3.36977e-05,2.90688e-05,-7.75162e-06,2.10428e-05,-2.40107e-07,0
-3.18845e-05,-0.000167638,-1.02093e-05,3.67033e-05,2.13455e-05,-1.20525e-05,2.14273e-05,-2.82556e-07,0
-3.44162e-05,-0.000138531,-1.49897e-05,3.74651e-05,1.13646e-05,-1.63308e-05,1.94158e-05,4.84644e-07,0
-3.4778e-05,-9.76887e-05,-1.44685e-05,3.73996e-05,1.43727e-06,-1.85844e-05,1.80225e-05,1.10708e-06,0
-3.48685e-05,-6.26165e-05,-1.01856e-05,3.45421e-05,-3.72434e-06,-1.71999e-05,1.91921e-05,9.01507e-07,0
-3.53621e-05,-3.90425e-05,-5.03768e-06,2.94777e-05,-2.59661e-06,-1.41439e-05,2.05257e-05,-5.70443e-08,0
-3.43528e-05,-1.96529e-05,-2.76154e-06,2.33232e-05,2.33857e-06,-1.31512e-05,1.96432e-05,-1.71359e-06,0
-3.15182e-05,-9.71998e-07,-4.65048e-06,1.70992e-05,7.31074e-06,-1.50364e-05,1.78393e-05,-3.50225e-06,0
-3.0802e-05,1.07617e-05,-8.69269e-06,1.2513e-05,8.54959e-06,-1.71987e-05,1.75533e-05,-4.45034e-06,0
-3.09534e-05,2.38271e-05,-1.23382e-05,8.47801e-06,6.6344e-06,-1.7662e-05,1.91669e-05,-6.23191e-06,0
-2.76613e-05,5.12744e-05,-1.47058e-05,3.59433e-08,4.80337e-06,-1.55416e-05,1.88703e-05,-7.7542e-06,0
-2.35183e-05,7.78082e-05,-1.64409e-05,-1.21515e-05,7.64367e-06,-1.29179e-05,1.68573e-05,-6.51437e-06,0
-2.29844e-05,8.13106e-05,-1.89777e-05,-2.7301e-05,1.15548e-05,-1.39706e-05,1.59923e-05,-4.75274e-06,0
-2.55209e-05,5.13957e-05,-2.39532e-05,-4.52564e-05,9.74177e-06,-1.72416e-05,1.71699e-05,-3.26356e-06,0
-2.70614e-05,2.20132e-06,-2.78859e-05,-5.94738e-05,7.05632e-06,-1.81466e-05,1.83878e-05,-1.31067e-06,0
-2.81732e-05,-3.38076e-05,-2.76733e-05,-6.3664e-05,7.96085e-06,-1.58125e-05,1.66217e-05,3.59066e-07,0
-2.78737e-05,-4.68007e-05,-2.31194e-05,-5.78397e-05,9.78446e-06,-1.23377e-05,1.44213e-05,1.66144e-06,0
-2.1631e-05,-4.21016e-05,-1.81981e-05,-4.81512e-05,1.03241e-05,-8.79421e-06,1.42454e-05,1.73736e-06,0
-9.41714e-06,-2.54671e-05,-1.6594e-05,-3.75614e-05,1.39981e-05,-6.58658e-06,1.39782e-05,2.8037e-06,0
1.60815e-06,-2.98273e-06,-1.62321e-05,-2.42527e-05,2.04441e-05,-6.3261e-06,1.29883e-05,1.32212e-05,0
4.80377e-06,1.20614e-05,-1.68308e-05,-5.198e-06,2.3375e-05,-7.84225e-06,1.24258e-05,3.08717e-05,0
1.62497e-08,9.86477e-06,-1.77797e-05,1.82283e-05,1.83676e-05,-1.02609e-05,1.19954e-05,4.13045e-05,0
