ch1,ch2,ch3,ch4,ch5,ch6,ch7,ch8,class
-2.59371e-05,2.43055e-05,5.24241e-06,-5.31975e-06,1.21726e-05,-5.79419e-06,-1.77939e-05,2.17406e-06,0
-2.47741e-05,2.38972e-05,3.53407e-06,-9.34407e-06,9.28181e-06,-6.58074e-06,-2.44268e-05,2.45202e-06,0
-2.41948e-05,2.36487e-05,8.93036e-07,-1.30514e-05,1.00341e-05,-7.42282e-06,-1.93899e-05,2.10809e-06,0
-2.55033e-05,2.17058e-05,-4.76997e-07,-1.59839e-05,1.40049e-05,-8.1733e-06,-4.69339e-06,1.32785e-06,0
-2.7187e-05,2.10203e-05,1.83588e-07,-1.74339e-05,1.85807e-05,-8.54726e-06,1.23122e-05,2.0136e-06,0
-2.79203e-05,2.28384e-05,8.00762e-07,-1.77354e-05,2.00311e-05,-7.44933e-06,2.25653e-05,2.47792e-06,0
-2.73754e-05,2.40153e-05,1.1073e-06,-1.52093e-05,1.72761e-05,-6.86419e-06,2.61072e-05,5.7091e-07,0
-2.6488e-05,2.38301e-05,7.52856e-07,-1.07283e-05,1.28285e-05,-7.15719e-06,2.80381e-05,-1.26935e-06,0
-2.55336e-05,2.4078e-05,-1.23882e-06,-5.13303e-06,1.10531e-05,-7.13819e-06,2.84633e-05,-4.05473e-07,0
-2.52099e-05,2.2882e-05,-3.9206e-06,7.212e-06,1.21871e-05,-7.11025e-06,2.68028e-05,4.28886e-07,0
-2.61121e-05,2.06315e-05,-4.00559e-06,2.79941e-05,1.54943e-05,-8.30189e-06,2.53589e-05,-6.68574e-07,0
-2.67395e-05,1.93976e-05,-1.25504e-06,4.4287e-05,2.14317e-05,-1.00751e-05,2.7236e-05,-2.75584e-06,0
-2.6134e-05,1.96015e-05,8.75424e-07,4.21223e-05,2.6237e-05,-1.06474e-05,3.22378e-05,-4.75591e-06,0
-2.48551e-05,1.77317e-05,1.62672e-06,2.43164e-05,2.6161e-05,-1.02273e-05,3.58949e-05,-6.18615e-06,0
-2.49294e-05,1.40269e-05,1.3618e-06,4.09991e-06,2.22007e-05,-9.98967e-06,3.54376e-05,-7.20573e-06,0
-2.62483e-05,1.37086e-05,1.35623e-06,-8.367e-06,1.8039e-05,-9.8495e-06,3.39706e-05,-7.50684e-06,0
-2.82908e-05,1.71089e-05,2.67642e-06,-1.26924e-05,1.5049e-05,-9.76279e-06,3.37222e-05,-5.94349e-06,0
-3.0544e-05,1.6591e-05,5.1048e-06,-1.43936e-05,1.38977e-05,-1.04468e-05,3.24429e-05,-4.62634e-06,0
-3.19566e-05,9.42128e-06,6.88935e-06,-1.70696e-05,1.36283e-05,-1.09132e-05,3.07149e-05,-5.8052e-06,0
-3.16488e-05,1.89087e-06,5.88329e-06,-1.86509e-05,1.38699e-05,-1.07572e-05,2.99919e-05,-7.96146e-06,0
-3.16453e-05,-9.26293e-07,2.89417e-06,-2.02641e-05,1.48193e-05,-1.00278e-05,2.87688e-05,-1.00808e-05,0
-3.17734e-05,1.0648e-06,3.16776e-06,-2.35331e-05,1.68624e-05,-9.89501e-06,2.62228e-05,-1.05974e-05,0
-3.14762e-05,2.98327e-06,4.92997e-06,-2.63055e-05,1.73026e-05,-1.08376e-05,2.15642e-05,-9.49659e-06,0
-3.08756e-05,1.27205e-06,3.18643e-06,-2.71405e-05,1.45978e-05,-1.0972e-05,1.54594e-05,-7.68387e-06,0
-3.03149e-05,-2.789e-06,-6.95822e-07,-2.51774e-05,1.19486e-05,-9.76503e-06,1.27359e-05,-5.78312e-06,0
-3.13533e-05,-8.64592e-06,-3.13899e-06,-1.94082e-05,1.29054e-05,-9.4109e-06,1.63285e-05,-6.03337e-06,0
-3.33216e-05,-1.58096e-05,-3.6672e-06,-1.3239e-05,1.51742e-05,-9.94127e-06,2.2697e-05,-6.84576e-06,0
-3.41544e-05,-1.92949e-05,-5.41833e-06,-9.97753e-06,1.49853e-05,-1.05835e-05,2.73918e-05,-5.88629e-06,0
-3.46737e-05,-1.70553e-05,-9.05344e-06,-9.17321e-06,1.28334e-05,-1.23345e-05,3.11861e-05,-4.82954e-06,0
-3.63671e-05,-1.18148e-05,-1.48885e-05,-9.83874e-06,9.85298e-06,-1.39482e-05,3.24537e-05,-4.6012e-06,0
-3.61369e-05,-6.60711e-06,-1.98818e-05,-1.03345e-05,7.29635e-06,-1.56797e-05,2.84523e-05,-3.55613e-06,0
-3.40377e-05,-2.02478e-06,-2.17118e-05,-6.73237e-06,6.92817e-06,-1.60641e-05,2.03332e-05,-1.60259e-06,0
-3.25956e-05,5.71254e-07,-2.10383e-05,-4.67058e-07,1.05467e-05,-1.40364e-05,1.14416e-05,1.72756e-07,0
-3.2422e-05,6.8556e-08,-1.99402e-05,3.17842e-06,1.45049e-05,-1.25076e-05,2.77677e-06,2.49409e-07,0
-3.30698e-05,-1.92898e-06,-1.97784e-05,3.88358e-06,1.7221e-05,-1.29512e-05,-6.36248e-06,-1.10812e-06,0
-3.48263e-05,-2.13878e-06,-2.02364e-05,4.54746e-06,1.65848e-05,-1.31412e-05,-1.42328e-05,-1.56454e-06,0
-3.63079e-05,-3.94691e-07,-2.21742e-05,5.82269e-06,1.26957e-05,-1.18646e-05,-1.79575e-05,-2.4389e-07,0
-3.66036e-05,1.70072e-06,-2.33899e-05,6.21031e-06,8.334e-06,-1.11824e-05,-1.69933e-05,2.99076e-06,0
-3.55246e-05,3.65123e-06,-2.21768e-05,6.0488e-06,5.166e-06,-1.19389e-05,-1.33622e-05,5.67296e-06,0
-3.32562e-05,4.21084e-06,-1.90273e-05,4.12246e-06,3.58008e-06,-1.39834e-05,-7.8784e-06,6.0108e-06,0
-3.14536e-05,3.79037e-06,-1.59246e-05,1.6671e-06,2.25281e-06,-1.6091e-05,-2.26993e-06,4.64073e-06,0
-3.10127e-05,3.1965e-06,-1.42149e-05,-1.04818e-07,5.94952e-07,-1.72668e-05,9.86197e-07,3.66254e-06,0
-3.18527e-05,3.00105e-06,-1.41806e-05,-1.37194e-06,-1.05123e-06,-1.70804e-05,1.05934e-06,3.24889e-06,0
-3.21426e-05,2.5321e-06,-1.47258e-05,-2.24541e-06,-1.16254e-07,-1.65342e-05,4.39128e-07,2.5099e-06,0
-3.16272e-05,2.8156e-06,-1.36542e-05,-1.80002e-06,3.13422e-06,-1.66747e-05,2.21189e-06,2.58082e-06,0
-3.20938e-05,5.06853e-06,-1.07751e-05,1.17292e-06,7.54259e-06,-1.74416e-05,4.93765e-06,4.59047e-06,0
-3.29722e-05,7.9543e-06,-8.52922e-06,4.61187e-06,1.00739e-05,-1.88762e-05,5.60931e-06,7.33364e-06,0
-3.22311e-05,9.51338e-06,-7.18052e-06,6.12601e-06,8.14973e-06,-1.97875e-05,5.39946e-06,8.36856e-06,0
-3.04072e-05,9.67095e-06,-5.42059e-06,7.15719e-06,4.47641e-06,-2.03819e-05,6.23144e-06,7.79599e-06,0
-2.8419e-05,1.01366e-05,-3.45194e-06,7.92493e-06,4.8076e-06,-2.24771e-05,8.46931e-06,6.5121e-06,0
-2.71285e-05,1.07652e-05,-2.8295e-06,8.3005e-06,8.19668e-06,-2.3708e-05,1.02808e-05,5.53059e-06,0
-2.5576e-05,1.15484e-05,-4.1275e-06,8.06198e-06,9.1236e-06,-2.06222e-05,1.11843e-05,6.76925e-06,0
-2.51565e-05,1.15105e-05,-4.78432e-06,5.64063e-06,8.32601e-06,-1.41961e-05,1.2356e-05,6.75351e-06,0
-2.7395e-05,1.15669e-05,-5.03047e-06,1.40997e-06,8.32689e-06,-9.20013e-06,1.44903e-05,3.69706e-06,0
-2.89055e-05,1.3716e-05,-4.42649e-06,-1.58463e-06,8.65305e-06,-5.96513e-06,1.58636e-05,2.52599e-06,0
-2.90176e-05,1.52306e-05,-3.16601e-06,-2.96547e-06,9.70179e-06,-2.62665e-06,1.58963e-05,4.44747e-06,0
-2.79381e-05,1.57906e-05,-1.69051e-06,-5.05991e-06,1.11578e-05,-1.60194e-06,1.59892e-05,6.97506e-06,0
-2.62493e-05,1.52209e-05,-3.18955e-07,-8.11397e-06,1.31462e-05,-4.2105e-06,1.55892e-05,8.01689e-06,0
-2.57513e-05,1.54886e-05,-1.11867e-06,-1.02451e-05,1.39356e-05,-9.40597e-06,1.5133e-05,6.82327e-06,0
-2.65389e-05,1.6067e-05,-3.68395e-06,-8.2507e-06,1.30049e-05,-1.63953e-05,1.45251e-05,4.27833e-06,0
-2.76307e-05,1.51104e-05,-6.76116e-06,-5.8179e-06,1.28642e-05,-2.37125e-05,1.3711e-05,2.07052e-06,0
-2.72348e-05,1.41287e-05,-9.66629e-06,-3.97821e-06,1.50931e-05,-2.11642e-05,1.23687e-05,6.7735e-07,0
-2.74812e-05,1.27204e-05,-1.17419e-05,-1.37198e-06,1.84056e-05,-2.09355e-06,1.09972e-05,1.67131e-06,0
-2.90142e-05,1.09658e-05,-1.25126e-05,3.84725e-06,1.99388e-05,2.0831e-05,1.08604e-05,3.92895e-06,0
-2.96741e-05,9.0644e-06,-1.15761e-05,1.33615e-05,1.85971e-05,2.82016e-05,1.25483e-05,5.11505e-06,0
-2.92809e-05,8.73071e-06,-9.69813e-06,2.57648e-05,1.47738e-05,1.71841e-05,1.44625e-05,4.40376e-06,0
-2.82919e-05,9.63645e-06,-8.59595e-06,3.6483e-05,1.17958e-05,2.68152e-06,1.49257e-05,2.63893e-06,0
-2.78882e-05,1.00954e-05,-8.75019e-06,4.11873e-05,1.15542e-05,-4.66144e-06,1.47326e-05,1.24882e-06,0
-2.77405e-05,9.74251e-06,-9.53176e-06,3.91561e-05,1.29395e-05,-4.90777e-06,1.46019e-05,8.98172e-07,0
-2.72465e-05,1.01369e-05,-1.03597e-05,3.17298e-05,1.4211e-05,-2.61143e-06,1.41133e-05,1.33126e-06,0
-2.67332e-05,1.15076e-05,-1.12357e-05,2.20706e-05,1.45668e-05,-2.04019e-06,1.44102e-05,1.57975e-06,0
-2.80627e-05,1.28476e-05,-1.23827e-05,1.06781e-05,1.30256e-05,-3.92227e-06,1.56226e-05,1.64732e-06,0
-3.0704e-05,1.38624e-05,-1.40756e-05,-1.98546e-06,1.15275e-05,-5.63825e-06,1.69439e-05,1.7571e-06,0
-3.36698e-05,1.59564e-05,-1.70053e-05,-1.44564e-05,1.10334e-05,-5.30965e-06,1.79286e-05,1.59067e-06,0
-3.61431e-05,1.78033e-05,-1.89927e-05,-2.66525e-05,1.14982e-05,-3.82188e-06,1.82533e-05,-1.84892e-07,0
-3.69315e-05,1.77155e-05,-1.8424e-05,-4.50304e-05,1.17672e-05,-3.14985e-06,1.77166e-05,-8.6622e-07,0
-3.48124e-05,1.57396e-05,-1.80216e-05,-7.04712e-05,1.12478e-05,-3.62312e-06,1.64994e-05,7.50579e-09,0
-3.09655e-05,1.38627e-05,-1.79186e-05,-8.78519e-05,1.09479e-05,-2.85824e-06,1.68486e-05,7.406e-07,0
-3.07814e-05,1.23417e-05,-1.82572e-05,-8.44482e-05,1.2108e-05,-2.13396e-06,1.75895e-05,1.19054e-06,0
-3.33794e-05,1.00047e-05,-1.78093e-05,-6.51026e-05,1.45149e-05,-2.74805e-06,1.71203e-05,1.16452e-06,0
-3.51906e-05,9.6301e-06,-1.77453e-05,-3.94892e-05,1.47658e-05,-3.16565e-06,1.64692e-05,2.06716e-06,0
-3.47497e-05,1.14971e-05,-1.90845e-05,-1.75927e-05,1.327e-05,-4.15722e-06,1.70701e-05,3.34218e-06,0
-3.30802e-05,1.5578e-05,-1.97931e-05,-5.59896e-06,1.23639e-05,-5.03155e-06,1.77277e-05,3.54374e-06,0
-3.21384e-05,1.772e-05,-1.93559e-05,-7.11291e-07,1.27078e-05,-5.30484e-06,1.73195e-05,2.72923e-06,0
-3.24845e-05,1.68317e-05,-1.63932e-05,2.88634e-06,1.46756e-05,-6.90323e-06,1.63446e-05,2.15571e-06,0
-3.37161e-05,1.47018e-05,-1.22895e-05,7.46315e-06,1.75927e-05,-9.26021e-06,1.50689e-05,2.64116e-06,0
-3.36786e-05,1.31626e-05,-8.98079e-06,8.47577e-06,1.99434e-05,-1.03296e-05,1.2845e-05,2.27922e-06,0
-3.20977e-05,1.2805e-05,-7.30048e-06,2.66041e-06,2.0781e-05,-9.81142e-06,4.52486e-06,1.42582e-06,0
-2.9958e-05,1.20883e-05,-6.27397e-06,-7.35451e-06,1.92184e-05,-9.9264e-06,-1.35903e-05,1.19689e-06,0
-2.91928e-05,1.1547e-05,-5.11544e-06,-1.53364e-05,1.5986e-05,-1.00915e-05,-3.18626e-05,1.317e-06,0
-2.90076e-05,1.24173e-05,-3.92786e-06,-2.14955e-05,1.27673e-05,-9.57511e-06,-3.44857e-05,1.68452e-06,0
-2.82371e-05,1.63781e-05,-3.54096e-06,-2.94508e-05,1.13571e-05,-9.11666e-06,-1.96837e-05,9.06387e-07,0
-2.86076e-05,2.09878e-05,-5.20239e-06,-3.69426e-05,1.08444e-05,-9.13476e-06,1.58004e-06,-4.8969e-07,0
-3.02521e-05,2.35045e-05,-7.41105e-06,-3.93597e-05,8.92991e-06,-1.00621e-05,1.9849e-05,-1.10842e-06,0
-3.18266e-05,2.34357e-05,-7.39814e-06,-3.50253e-05,5.93949e-06,-1.15173e-05,3.23247e-05,-1.79624e-06,0
-3.28203e-05,2.17612e-05,-5.01574e-06,-2.57906e-05,5.18213e-06,-1.37387e-05,3.94525e-05,-2.91427e-06,0
-3.33005e-05,1.85257e-05,-2.7704e-06,-1.66711e-05,8.4731e-06,-1.59555e-05,4.16514e-05,-4.32994e-06,0
-3.30887e-05,1.49286e-05,-2.08066e-06,-1.07122e-05,1.35563e-05,-1.70636e-05,3.76217e-05,-6.23419e-06,0
-3.18926e-05,1.26614e-05,-3.25979e-06,-5.24033e-06,1.6661e-05,-1.73766e-05,2.79527e-05,-7.66615e-06,0
-2.96738e-05,1.26796e-05,-6.15483e-06,4.74754e-06,1.65231e-05,-1.83916e-05,1.75003e-05,-8.18899e-06,0
-2.73365e-05,1.39735e-05,-8.57651e-06,2.0668e-05,1.55507e-05,-2.04961e-05,1.09443e-05,-9.18833e-06,0
-2.60137e-05,1.32131e-05,-8.8057e-06,3.74949e-05,1.49052e-05,-2.21406e-05,1.07208e-05,-1.01077e-05,0
-2.69174e-05,1.07716e-05,-9.45251e-06,4.76329e-05,1.44127e-05,-2.08831e-05,1.40919e-05,-8.83053e-06,0
-2.79585e-05,8.05021e-06,-1.0817e-05,4.44596e-05,1.52009e-05,-1.77909e-05,1.54166e-05,-6.48615e-06,0
-2.88283e-05,5.23353e-06,-9.79891e-06,3.31657e-05,1.71208e-05,-1.51104e-05,1.61992e-05,-4.35808e-06,0
-2.94793e-05,5.00344e-06,-8.01018e-06,2.52851e-05,1.79716e-05,-1.37002e-05,1.95218e-05,-2.42093e-06,0
-2.86337e-05,5.76497e-06,-8.05726e-06,2.48786e-05,1.72924e-05,-1.31226e-05,2.24421e-05,-9.41815e-07,0
-2.75956e-05,5.25869e-06,-7.32982e-06,2.64556e-05,1.5875e-05,-1.21938e-05,2.13493e-05,-5.46131e-07,0
-2.73811e-05,4.59069e-06,-5.17027e-06,2.45058e-05,1.48988e-05,-1.10597e-05,1.74789e-05,4.71785e-07,0
-2.76204e-05,4.1562e-06,-4.1363e-06,1.61607e-05,1.54587e-05,-9.61107e-06,1.37074e-05,2.15623e-06,0
-2.7126e-05,6.59117e-06,-3.46297e-06,-2.95825e-06,1.59967e-05,-9.23862e-06,1.34476e-05,2.44778e-06,0
-2.66003e-05,1.08523e-05,-2.60852e-06,-2.66175e-05,1.40704e-05,-1.11077e-05,1.99e-05,9.24474e-07,0
-2.50943e-05,1.25885e-05,-2.21061e-06,-4.2251e-05,1.10073e-05,-1.2104e-05,2.86307e-05,2.38573e-07,0
-2.3662e-05,1.0965e-05,-3.07853e-06,-4.24708e-05,9.44954e-06,-1.04997e-05,3.21218e-05,1.97625e-06,0
-2.33657e-05,8.37826e-06,-3.09689e-06,-3.23372e-05,9.88802e-06,-8.56592e-06,2.9275e-05,4.42025e-06,0
-2.24375e-05,7.17008e-06,-1.33002e-06,-1.99203e-05,1.11267e-05,-8.95345e-06,2.35882e-05,6.65853e-06,0
-2.15611e-05,7.73863e-06,3.19361e-07,-1.40325e-05,1.22422e-05,-9.90867e-06,1.59903e-05,7.52139e-06,0
-2.29271e-05,7.45316e-06,7.10479e-07,-2.01653e-05,1.21587e-05,-1.06749e-05,7.14461e-06,7.81784e-06,0
-2.553e-05,5.1362e-06,-5.16265e-07,-3.10972e-05,1.02714e-05,-1.14168e-05,-2.44951e-06,8.08989e-06,0
-2.73159e-05,2.96217e-06,-3.23493e-06,-3.45413e-05,8.70139e-06,-1.07536e-05,-1.21824e-05,8.45612e-06,0
-2.83518e-05,2.86458e-06,-6.11161e-06,-2.74603e-05,8.71311e-06,-9.53658e-06,-2.14657e-05,7.83496e-06,0
-2.81558e-05,3.39389e-06,-7.29117e-06,-1.95468e-05,9.79392e-06,-9.32776e-06,-3.02837e-05,5.9445e-06,0
-2.7921e-05,2.56109e-06,-7.82467e-06,-1.30622e-05,1.11324e-05,-1.00283e-05,-4.12008e-05,4.27795e-06,0
-2.86703e-05,9.83951e-07,-8.82371e-06,-2.07838e-06,1.01547e-05,-1.08951e-05,-5.60959e-05,3.5414e-06,0
-2.96987e-05,7.28903e-07,-1.00793e-05,1.30831e-05,6.36187e-06,-1.20085e-05,-6.60398e-05,3.5967e-06,0
-3.00119e-05,1.20029e-06,-9.67648e-06,2.18501e-05,3.72966e-06,-1.16054e-05,-6.24185e-05,3.2676e-06,0
-3.03978e-05,-5.80134e-07,-8.31654e-06,1.83473e-05,3.72511e-06,-1.02504e-05,-4.74446e-05,1.01071e-06,0
-3.08634e-05,-3.21868e-06,-7.63489e-06,7.78363e-06,4.92932e-06,-9.6355e-06,-2.68044e-05,-1.22443e-06,0
-3.06929e-05,-4.73422e-06,-7.9639e-06,-2.1163e-06,6.07165e-06,-1.01401e-05,-4.34705e-06,-9.36317e-07,0
-3.03827e-05,-4.02433e-06,-8.97276e-06,-9.67461e-06,6.64972e-06,-9.87685e-06,1.69471e-05,-9.12935e-07,0
-3.01291e-05,-2.4834e-06,-9.21127e-06,-1.7627e-05,6.70156e-06,-8.57983e-06,3.17986e-05,-2.31993e-06,0
-3.08715e-05,-2.38755e-06,-8.0582e-06,-2.40368e-05,7.76265e-06,-7.05695e-06,3.6753e-05,-2.52895e-06,0
-3.31093e-05,-1.64522e-06,-6.93072e-06,-2.13141e-05,1.10239e-05,-5.3713e-06,3.54008e-05,-1.11451e-06,0
-3.48235e-05,9.74798e-07,-6.97495e-06,-1.22586e-05,1.37048e-05,-4.28107e-06,3.23208e-05,-1.27699e-07,0
-3.39176e-05,5.36522e-06,-8.11405e-06,-3.38006e-06,1.40213e-05,-2.89531e-06,3.07768e-05,-1.83538e-06,0
-3.12026e-05,8.74214e-06,-9.61303e-06,2.03995e-06,1.26464e-05,-2.22098e-06,3.12372e-05,-3.7255e-06,0
-2.9655e-05,1.14999e-05,-1.02023e-05,2.44841e-06,1.01405e-05,-2.34685e-06,3.24852e-05,-5.22714e-07,0
-2.97072e-05,1.41453e-05,-1.06665e-05,1.897e-06,8.77797e-06,-1.63967e-06,3.37865e-05,4.00954e-06,0
-3.0108e-05,1.41465e-05,-1.11927e-05,3.20182e-06,1.07198e-05,-8.79923e-07,3.38797e-05,7.02592e-06,0
-3.0955e-05,1.51207e-05,-1.04093e-05,7.8956e-06,1.39409e-05,-1.44761e-06,3.45051e-05,8.30509e-06,0
-3.17029e-05,1.80141e-05,-9.93325e-06,8.98821e-06,1.60465e-05,-3.57649e-06,3.68335e-05,8.03893e-06,0
-3.20951e-05,2.03591e-05,-1.09539e-05,1.48237e-06,1.62717e-05,-4.10148e-06,3.91675e-05,7.55677e-06,0
-3.22081e-05,2.24655e-05,-1.08983e-05,-1.35342e-05,1.44408e-05,-3.99009e-06,4.01587e-05,5.61303e-06,0
-3.33877e-05,2.54106e-05,-8.42214e-06,-3.21988e-05,1.1679e-05,-4.41394e-06,3.84645e-05,2.71118e-06,0
-3.48033e-05,2.80384e-05,-4.70188e-06,-4.98871e-05,1.00006e-05,-3.56895e-06,3.47659e-05,7.73097e-07,0
-3.51625e-05,2.85346e-05,-2.4637e-06,-6.0642e-05,9.95632e-06,-2.21544e-06,3.0141e-05,7.09702e-07,0
-3.48355e-05,2.63708e-05,-3.0577e-06,-6.09974e-05,9.3039e-06,-1.56974e-06,2.48378e-05,1.2121e-06,0
-3.40429e-05,2.335e-05,-4.77448e-06,-5.49645e-05,6.98747e-06,-1.55803e-06,1.95922e-05,9.39279e-07,0
-3.27752e-05,2.1888e-05,-6.05726e-06,-4.50747e-05,7.0807e-06,-1.68796e-06,1.47709e-05,-5.87126e-07,0
-3.07932e-05,2.17099e-05,-6.24451e-06,-2.92377e-05,1.26113e-05,-2.59583e-06,9.49416e-06,-2.89521e-06,0
-2.87439e-05,2.1122e-05,-4.91475e-06,-8.29499e-06,1.84026e-05,-4.1599e-06,3.32609e-06,-5.41864e-06,0
-2.7068e-05,1.83674e-05,-2.59482e-06,1.30618e-05,2.01749e-05,-6.53501e-06,-6.35219e-07,-6.99275e-06,0
-2.66099e-05,1.45672e-05,-2.63542e-07,3.33179e-05,1.98958e-05,-8.02941e-06,8.59234e-07,-6.59324e-06,0
-2.74929e-05,1.34325e-05,1.57766e-06,5.07061e-05,2.02785e-05,-8.32071e-06,6.17841e-06,-5.49343e-06,0
-2.81275e-05,1.42574e-05,2.08248e-06,6.29955e-05,2.21148e-05,-8.67175e-06,1.08189e-05,-5.17461e-06,0
-2.8471e-05,1.27617e-05,1.87433e-06,6.58393e-05,2.37756e-05,-9.47931e-06,1.35568e-05,-4.77338e-06,0
-2.97929e-05,9.26571e-06,2.40517e-06,6.01281e-05,2.3051e-05,-8.51689e-06,1.48404e-05,-3.91147e-06,0
-3.04768e-05,6.5869e-06,1.88005e-06,4.91951e-05,2.1215e-05,-6.97618e-06,1.41541e-05,-3.20275e-06,0
-2.92648e-05,4.57806e-06,1.78051e-07,3.51553e-05,2.06457e-05,-7.99623e-06,1.27123e-05,-3.17325e-06,0
-2.81738e-05,2.41304e-06,-2.73819e-06,2.1656e-05,1.90073e-05,-9.91158e-06,1.24905e-05,-2.38655e-06,0
-2.88725e-05,1.73437e-06,-7.50108e-06,1.31739e-05,1.49071e-05,-1.0859e-05,1.35861e-05,-1.09302e-06,0
-3.02828e-05,2.19754e-06,-1.16594e-05,9.85791e-06,1.36582e-05,-1.092e-05,1.38663e-05,-1.48864e-06,0
-3.11343e-05,1.66461e-06,-1.53539e-05,9.95708e-06,1.61145e-05,-1.13893e-05,1.23439e-05,-2.38687e-06,0
-3.11032e-05,1.57173e-06,-2.07724e-05,1.99876e-05,1.77805e-05,-1.18932e-05,9.44975e-06,-2.53423e-06,0
-3.04746e-05,1.63226e-06,-2.62531e-05,3.4739e-05,1.7846e-05,-1.12227e-05,8.22522e-06,-1.38793e-06,0
-2.95229e-05,3.78273e-07,-2.88269e-05,3.94608e-05,1.58444e-05,-1.06278e-05,1.01478e-05,-1.78139e-07,0
-2.98761e-05,-1.04552e-06,-2.80686e-05,3.09709e-05,1.25673e-05,-1.14171e-05,1.35057e-05,7.74702e-07,0
-3.25073e-05,-2.12014e-06,-2.62029e-05,1.76601e-05,9.30872e-06,-1.13955e-05,1.61761e-05,2.12101e-06,0
-3.37204e-05,-1.99323e-06,-2.53183e-05,5.06812e-06,5.70081e-06,-9.18023e-06,1.59933e-05,1.22541e-06,0
-3.20279e-05,9.50854e-07,-2.45708e-05,-5.94455e-06,2.39423e-06,-7.41205e-06,1.5709e-05,-1.1184e-06,0
-3.01521e-05,6.42676e-06,-2.19535e-05,-1.36853e-05,1.49443e-06,-6.74439e-06,1.57009e-05,-1.4425e-06,0
-2.85267e-05,1.07424e-05,-1.69617e-05,-1.91366e-05,3.91413e-06,-6.1246e-06,1.51392e-05,6.23401e-07,0
-2.74596e-05,1.19077e-05,-1.14242e-05,-2.40907e-05,8.98121e-06,-6.67614e-06,1.4341e-05,2.75331e-06,0
-2.84809e-05,1.2843e-05,-7.51059e-06,-2.99237e-05,1.359e-05,-8.53455e-06,1.38467e-05,4.29124e-06,0
-3.05616e-05,1.54838e-05,-5.45939e-06,-3.48976e-05,1.39723e-05,-1.02504e-05,1.38521e-05,5.20821e-06,0
-3.13006e-05,1.82093e-05,-4.3506e-06,-3.66674e-05,1.07932e-05,-1.13321e-05,1.41737e-05,3.41549e-06,0
-3.10458e-05,1.89958e-05,-4.9791e-06,-3.4236e-05,8.42491e-06,-1.25099e-05,1.4765e-05,1.20945e-07,0
-3.08774e-05,1.84502e-05,-7.83112e-06,-2.82727e-05,8.96041e-06,-1.26894e-05,1.47704e-05,-1.43632e-06,0
-3.00986e-05,1.89607e-05,-1.10519e-05,-1.89555e-05,1.09159e-05,-1.06461e-05,1.49779e-05,-5.89605e-07,0
-2.90156e-05,2.03302e-05,-1.21797e-05,-1.0068e-05,1.27457e-05,-7.55823e-06,1.57775e-05,7.31184e-07,0
-2.85148e-05,2.03794e-05,-1.16213e-05,-7.1389e-06,1.36321e-05,-4.88613e-06,1.67974e-05,1.94073e-06,0
-2.87782e-05,1.77987e-05,-1.08574e-05,-6.74438e-06,1.41634e-05,-3.1455e-06,1.71963e-05,2.88868e-06,0
-2.99668e-05,1.32683e-05,-9.954e-06,-3.68332e-06,1.48141e-05,-2.63247e-06,1.76852e-05,3.22617e-06,0
-3.10744e-05,1.00554e-05,-8.44845e-06,-7.42377e-07,1.66042e-05,-3.16407e-06,1.8602e-05,2.50467e-06,0
-3.09773e-05,1.01294e-05,-4.36794e-06,-3.23711e-06,1.75553e-05,-4.17729e-06,1.91856e-05,9.06133e-07,0
-3.02141e-05,1.09228e-05,-1.79487e-07,-9.85456e-06,1.54468e-05,-4.81168e-06,1.8056e-05,-2.58189e-07,0
-2.9641e-05,1.21316e-05,8.32817e-07,-1.63542e-05,1.33284e-05,-6.41212e-06,1.47107e-05,8.31548e-07,0
-2.81775e-05,1.54141e-05,1.1043e-06,-2.57225e-05,1.4519e-05,-8.14387e-06,1.10142e-05,1.71218e-06,0
-2.59995e-05,1.96642e-05,2.23487e-06,-3.8842e-05,1.58469e-05,-8.36101e-06,9.34178e-06,4.5709e-07,0
-2.57272e-05,2.44419e-05,2.88629e-06,-4.80413e-05,1.53008e-05,-9.01264e-06,9.97e-06,6.80264e-07,0
-2.66077e-05,2.71051e-05,1.63143e-06,-4.90825e-05,1.58847e-05,-9.54819e-06,7.08365e-06,2.08321e-06,0
-2.84825e-05,2.52903e-05,1.27177e-06,-4.68632e-05,1.74048e-05,-8.19886e-06,-3.80423e-06,2.39127e-06,0
-2.98753e-05,2.1788e-05,1.00511e-06,-4.64509e-05,1.88066e-05,-6.76519e-06,-1.64202e-05,2.29734e-06,0
-2.99083e-05,2.01318e-05,-3.11855e-06,-4.42485e-05,1.84384e-05,-7.60128e-06,-2.66423e-05,3.52092e-06,0
-2.93082e-05,2.10763e-05,-9.26355e-06,-3.48111e-05,1.86411e-05,-9.25849e-06,-3.52597e-05,5.11845e-06,0
-2.95503e-05,2.25154e-05,-1.53631e-05,-1.6377e-05,1.98066e-05,-9.65522e-06,-3.76709e-05,5.93008e-06,0
-3.13268e-05,2.3683e-05,-2.02942e-05,4.63663e-06,1.9803e-05,-9.44879e-06,-2.81543e-05,4.4665e-06,0
-3.28681e-05,2.41287e-05,-2.34909e-05,1.93309e-05,2.01103e-05,-1.07313e-05,-7.9632e-06,2.73013e-06,0
-3.28283e-05,2.36522e-05,-2.4224e-05,2.60405e-05,2.0271e-05,-1.28375e-05,1.59604e-05,2.46669e-06,0
-3.11029e-05,2.42283e-05,-2.23868e-05,2.94514e-05,1.94863e-05,-1.44901e-05,3.59747e-05,2.47718e-06,0
-2.97399e-05,2.52091e-05,-2.05534e-05,2.88699e-05,1.7646e-05,-1.53994e-05,4.82425e-05,2.42536e-06,0
-2.93315e-05,2.48812e-05,-1.95548e-05,2.33268e-05,1.67047e-05,-1.5666e-05,5.51694e-05,2.51802e-06,0
-2.93e-05,2.43709e-05,-1.59433e-05,1.67266e-05,1.65958e-05,-1.59444e-05,5.86292e-05,3.40082e-06,0
-2.94268e-05,2.46246e-05,-8.36021e-06,1.18882e-05,1.52553e-05,-1.63564e-05,5.72815e-05,3.4297e-06,0
-3.05845e-05,2.3405e-05,5.34681e-08,8.86068e-06,1.19487e-05,-1.68926e-05,5.1059e-05,2.39563e-06,0
-3.137e-05,2.10433e-05,6.84064e-06,6.56643e-06,8.8499e-06,-1.72628e-05,4.44103e-05,2.14027e-06,0
-3.12957e-05,1.94739e-05,1.40023e-05,4.10125e-06,7.75228e-06,-1.61902e-05,4.1317e-05,3.9262e-06,0
-3.10757e-05,1.78221e-05,2.58323e-05,1.51772e-06,8.2073e-06,-1.43485e-05,4.06015e-05,5.27152e-06,0
-3.16469e-05,1.63566e-05,4.28621e-05,2.08251e-06,1.15502e-05,-1.33815e-05,3.80587e-05,3.95691e-06,0
-3.21621e-05,1.54163e-05,6.16996e-05,5.65631e-06,1.98578e-05,-1.18119e-05,3.36078e-05,8.22226e-07,0
-3.23747e-05,1.44753e-05,7.71805e-05,1.19816e-05,3.30325e-05,-9.59084e-06,2.9912e-05,2.95037e-07,0
-3.32673e-05,1.2792e-05,8.03243e-05,2.04117e-05,4.5882e-05,-8.06823e-06,2.59494e-05,2.55913e-06,0
-3.44004e-05,1.1682e-05,6.36539e-05,2.41283e-05,5.05762e-05,-8.7858e-06,2.10002e-05,3.08857e-06,0
-3.51279e-05,1.30291e-05,2.46776e-05,1.82773e-05,4.44394e-05,-1.13368e-05,1.5272e-05,1.46259e-06,0
-3.45189e-05,1.38444e-05,-2.26589e-05,1.16168e-05,3.54185e-05,-1.23069e-05,9.85362e-06,-6.33723e-07,0
-3.44693e-05,1.15281e-05,-6.11922e-05,8.4672e-06,3.34092e-05,-1.19328e-05,5.3805e-06,-1.18769e-06,0
-3.41663e-05,1.02599e-05,-8.50317e-05,6.07771e-06,3.8059e-05,-1.11987e-05,1.16021e-06,7.69803e-08,0
-3.26066e-05,1.15045e-05,-8.96573e-05,2.27068e-06,4.20936e-05,-1.16068e-05,-9.19754e-07,1.24109e-06,0
-3.13861e-05,1.04216e-05,-8.31232e-05,-7.05516e-06,4.09637e-05,-1.32934e-05,4.03037e-07,2.42048e-06,0
-3.05756e-05,7.8458e-06,-7.17113e-05,-2.22055e-05,3.46605e-05,-1.26145e-05,3.06104e-06,4.14644e-06,0
-2.96602e-05,5.78898e-06,-5.90899e-05,-3.69359e-05,2.84608e-05,-1.12754e-05,4.72933e-06,4.51899e-06,0
-2.83757e-05,4.46157e-06,-4.97165e-05,-4.41649e-05,2.50021e-05,-1.06354e-05,5.1385e-06,3.37957e-06,0
-2.76582e-05,1.49705e-06,-4.35785e-05,-4.31369e-05,2.07275e-05,-1.00001e-05,5.64618e-06,2.24315e-06,0
-2.86544e-05,-4.92644e-06,-3.63385e-05,-3.37743e-05,1.58428e-05,-9.74877e-06,6.78504e-06,2.74752e-06,0
-3.113e-05,-9.87372e-06,-2.66433e-05,-2.09554e-05,1.45606e-05,-9.96237e-06,6.88091e-06,4.15902e-06,0
-3.23416e-05,-9.91449e-06,-1.73071e-05,-1.01414e-05,1.64586e-05,-1.03381e-05,6.84391e-06,5.52238e-06,0
-3.10595e-05,-5.63629e-06,-8.87811e-06,-2.16045e-06,1.68961e-05,-1.05975e-05,7.86638e-06,5.52182e-06,0
-2.90223e-05,-9.06917e-07,-3.4263e-06,4.68847e-06,1.49281e-05,-1.05291e-05,9.15623e-06,5.09839e-06,0
-2.76928e-05,1.59105e-06,-1.06441e-06,1.12811e-05,1.31761e-05,-1.0159e-05,1.03923e-05,4.96874e-06,0
-2.75367e-05,1.3733e-06,-1.83278e-06,1.65565e-05,1.21245e-05,-1.14293e-05,1.14122e-05,4.20693e-06,0
-2.81824e-05,1.0397e-06,-2.63257e-06,1.84948e-05,1.0355e-05,-1.32585e-05,1.1023e-05,3.98001e-06,0
-2.93594e-05,3.94447e-06,-3.19882e-06,1.46538e-05,9.08729e-06,-1.31578e-05,7.97368e-06,5.10065e-06,0
-3.02747e-05,9.26132e-06,-4.09697e-06,6.92613e-06,7.32472e-06,-1.16748e-05,4.62471e-06,6.22343e-06,0
-3.01043e-05,1.28088e-05,-5.9027e-06,2.32806e-07,2.79818e-06,-1.10986e-05,3.20026e-06,6.08992e-06,0
-2.94622e-05,1.16971e-05,-7.89108e-06,-3.41339e-06,-1.52812e-06,-1.15768e-05,2.99874e-06,5.43694e-06,0
-2.95978e-05,9.52409e-06,-8.14591e-06,-5.84521e-06,-2.48268e-06,-1.34697e-05,2.27505e-06,3.88628e-06,0
-2.92626e-05,1.09355e-05,-5.75124e-06,-8.37803e-06,5.2566e-08,-1.67419e-05,2.20336e-06,2.92217e-06,0
-2.77439e-05,1.55076e-05,-3.12347e-06,-1.16595e-05,4.06125e-06,-1.77927e-05,4.32124e-06,2.39332e-06,0
-2.64379e-05,1.97185e-05,-1.93336e-06,-1.50063e-05,6.4581e-06,-1.64294e-05,8.27572e-06,1.7672e-06,0
-2.46486e-05,2.21193e-05,-7.30205e-07,-1.65302e-05,6.32094e-06,-1.66044e-05,1.4887e-05,2.64745e-06,0
-2.42273e-05,2.34394e-05,3.30683e-07,-1.22906e-05,5.84744e-06,-1.78895e-05,2.53782e-05,3.84002e-06,0
-2.66974e-05,2.30275e-05,2.355e-06,-4.25714e-06,5.10653e-06,-1.88049e-05,3.43232e-05,2.82564e-06,0
-2.83411e-05,2.18004e-05,4.51542e-06,1.67261e-06,4.9674e-06,-1.84289e-05,3.88077e-05,1.81299e-06,0
-2.84511e-05,2.1137e-05,3.29254e-06,5.0907e-06,5.84933e-06,-1.66122e-05,3.99203e-05,2.89172e-06,0
-2.76258e-05,2.16253e-05,-6.38584e-07,7.71357e-06,6.17792e-06,-1.5633e-05,3.61181e-05,4.44708e-06,0
-2.78425e-05,2.39146e-05,-2.96365e-06,1.03282e-05,7.23665e-06,-1.46345e-05,2.89401e-05,5.40369e-06,0
-2.88674e-05,2.60684e-05,-3.17718e-06,1.4271e-05,8.77062e-06,-1.35472e-05,1.84126e-05,4.9961e-06,0
-2.87856e-05,2.5934e-05,-1.93828e-06,2.34092e-05,1.1515e-05,-1.39605e-05,5.50282e-06,4.13809e-06,0
-2.91079e-05,2.2911e-05,-1.98359e-06,3.30974e-05,1.31906e-05,-1.45125e-05,-8.22532e-06,4.33442e-06,0
-2.96618e-05,1.98465e-05,-3.40766e-06,3.29938e-05,1.07952e-05,-1.39219e-05,-1.92022e-05,5.56559e-06,0
-2.87676e-05,1.88743e-05,-4.9028e-06,2.15551e-05,5.88847e-06,-1.33471e-05,-2.41854e-05,6.23254e-06,0
-2.75519e-05,1.84909e-05,-6.86172e-06,5.25466e-06,1.64667e-06,-1.30769e-05,-2.41193e-05,5.94936e-06,0
-2.86348e-05,1.65765e-05,-8.83752e-06,-9.29717e-06,-9.40466e-07,-1.33268e-05,-2.13052e-05,6.09472e-06,0
-3.06956e-05,1.3246e-05,-9.21833e-06,-2.09854e-05,-4.14909e-06,-1.36668e-05,-1.59834e-05,7.10602e-06,0
-3.143e-05,9.77051e-06,-9.12189e-06,-3.19321e-05,-7.39431e-06,-1.3691e-05,-8.2765e-06,7.68174e-06,0
-3.06294e-05,7.73899e-06,-9.95972e-06,-4.51244e-05,-8.89996e-06,-1.33672e-05,-1.18995e-06,6.85982e-06,0
-3.11388e-05,8.32706e-06,-9.72434e-06,-5.89819e-05,-8.78218e-06,-1.25437e-05,2.90771e-06,6.13542e-06,0
-3.32439e-05,1.15152e-05,-7.64788e-06,-7.00023e-05,-8.47666e-06,-1.16519e-05,4.44368e-06,6.58295e-06,0
-3.46017e-05,1.50396e-05,-5.61698e-06,-7.63524e-05,-7.27564e-06,-1.0956e-05,7.04838e-06,6.18441e-06,0
-3.43194e-05,1.56043e-05,-5.88284e-06,-7.41563e-05,-3.57715e-06,-1.02081e-05,1.11969e-05,3.96644e-06,0
-3.35913e-05,1.37978e-05,-7.0479e-06,-6.03348e-05,1.81489e-06,-9.88046e-06,1.43086e-05,2.69699e-06,0
-3.30185e-05,1.12184e-05,-6.75495e-06,-3.43307e-05,6.99724e-06,-1.05178e-05,1.45596e-05,3.48419e-06,0
-3.23567e-05,8.49879e-06,-5.46722e-06,1.46561e-06,1.23854e-05,-1.019e-05,1.29357e-05,4.34367e-06,0
-3.21737e-05,6.95126e-06,-4.55679e-06,3.59521e-05,1.71489e-05,-7.83576e-06,1.27646e-05,3.54321e-06,0
-3.258e-05,7.03468e-06,-2.98967e-06,5.54153e-05,2.06319e-05,-5.83358e-06,1.64503e-05,1.07547e-06,0
-3.25323e-05,7.42342e-06,-8.13667e-07,6.18849e-05,2.35952e-05,-4.23403e-06,2.10335e-05,-1.97389e-06,0
-3.21367e-05,6.17069e-06,3.37275e-07,5.85684e-05,2.38791e-05,-2.22982e-06,2.27343e-05,-2.20495e-06,0
-3.28429e-05,4.54244e-06,-3.46886e-07,4.2403e-05,1.89883e-05,-3.22815e-06,2.20597e-05,3.49644e-07,0
-3.30788e-05,6.10055e-06,-3.78953e-06,2.43162e-05,1.28296e-05,-6.79713e-06,2.13972e-05,3.72555e-07,0
-3.19076e-05,9.23524e-06,-9.15402e-06,1.20036e-05,1.02261e-05,-8.34343e-06,2.07775e-05,-2.01492e-06,0
-3.04163e-05,9.54084e-06,-1.2231e-05,2.56419e-06,1.12776e-05,-6.37828e-06,1.86379e-05,-3.9347e-06,0
-2.98408e-05,8.69171e-06,-1.28304e-05,-3.28444e-06,1.52293e-05,-4.78507e-06,1.62046e-05,-3.99683e-06,0
-2.92386e-05,9.60506e-06,-1.21736e-05,-6.97113e-06,1.7722e-05,-4.3119e-06,1.4964e-05,-3.23709e-06,0
-2.90993e-05,9.72132e-06,-1.15166e-05,-8.8686e-06,1.64089e-05,-4.36814e-06,1.41132e-05,-3.75115e-06,0
-3.06771e-05,9.71468e-06,-1.06565e-05,-1.18564e-05,1.21253e-05,-4.09135e-06,1.41241e-05,-5.70623e-06,0
-3.29996e-05,1.18959e-05,-8.77099e-06,-2.08007e-05,9.37528e-06,-2.71653e-06,1.48834e-05,-5.75985e-06,0
-3.34964e-05,1.50077e-05,-8.26993e-06,-3.17982e-05,1.05275e-05,-1.8344e-06,1.59213e-05,-3.34437e-06,0
-3.2305e-05,1.57133e-05,-8.36756e-06,-3.59308e-05,1.30582e-05,-2.24292e-06,1.79583e-05,-8.1282e-07,0
-3.17508e-05,1.50461e-05,-8.42226e-06,-3.10986e-05,1.57952e-05,-3.17503e-06,1.98146e-05,7.40218e-07,0
-3.08633e-05,1.67504e-05,-7.83025e-06,-2.226e-05,1.76338e-05,-2.83134e-06,1.94773e-05,-2.76481e-07,0
-2.94746e-05,1.95833e-05,-6.75024e-06,-1.37734e-05,1.80296e-05,-2.77042e-06,1.64682e-05,-2.03878e-06,0
-2.88599e-05,2.07254e-05,-5.50445e-06,-7.31043e-06,1.67626e-05,-3.57851e-06,1.23889e-05,-2.80089e-06,0
-2.93666e-05,1.99556e-05,-5.10633e-06,-3.31823e-06,1.42247e-05,-5.12628e-06,9.91088e-06,-2.86515e-06,0
-3.07649e-05,1.92198e-05,-5.41359e-06,-2.07893e-06,1.13323e-05,-6.94416e-06,1.04638e-05,-3.50227e-06,0
-3.19685e-05,1.95678e-05,-4.8201e-06,-3.32364e-06,9.52768e-06,-8.67862e-06,1.28193e-05,-4.16804e-06,0
-3.17518e-05,2.20454e-05,-3.97757e-06,-8.91031e-06,8.80274e-06,-8.90049e-06,1.43501e-05,-4.35183e-06,0
-3.13573e-05,2.60509e-05,-4.27591e-06,-1.6483e-05,9.13113e-06,-7.67317e-06,1.3804e-05,-4.69171e-06,0
-3.15953e-05,2.94084e-05,-5.21483e-06,-1.96257e-05,9.38528e-06,-7.08449e-06,1.41132e-05,-4.46287e-06,0
-3.10426e-05,3.06607e-05,-4.59047e-06,-1.81555e-05,9.46719e-06,-8.30123e-06,1.64179e-05,-2.43395e-06,0
-2.91348e-05,2.98196e-05,-2.83368e-06,-1.66194e-05,9.52081e-06,-9.45143e-06,1.79527e-05,3.36193e-07,0
-2.84101e-05,2.84438e-05,-1.79487e-06,-1.61996e-05,8.58763e-06,-7.75582e-06,1.61187e-05,6.06262e-07,0
-2.92679e-05,2.7384e-05,-2.63544e-06,-1.56403e-05,7.38685e-06,-4.85218e-06,1.25291e-05,-2.08354e-06,0
-2.9079e-05,2.65131e-05,-4.98457e-06,-1.4845e-05,7.1246e-06,-2.27268e-06,8.95975e-06,-4.43864e-06,0
-2.79621e-05,2.77087e-05,-6.57234e-06,-1.32238e-05,7.88299e-06,-3.23439e-07,4.9703e-06,-4.60478e-06,0
-2.73723e-05,3.58087e-05,-8.03089e-06,-8.0402e-06,7.62676e-06,1.464e-06,2.40257e-06,-3.38324e-06,0
-2.7744e-05,4.48736e-05,-9.5994e-06,5.52756e-07,7.75152e-06,4.00516e-07,2.82967e-06,-2.37238e-06,0
-2.78127e-05,4.75968e-05,-8.62213e-06,9.64207e-06,8.75049e-06,-3.83998e-06,3.53342e-06,-2.23637e-06,0
-2.68865e-05,4.50939e-05,-6.70517e-06,1.27002e-05,9.17912e-06,-6.72224e-06,2.38639e-06,-2.63684e-06,0
-2.73345e-05,3.41794e-05,-6.87699e-06,8.46593e-06,8.6584e-06,-8.94323e-06,1.06812e-06,-3.41776e-06,0
-2.92862e-05,1.80244e-05,-1.02808e-05,2.06727e-06,7.07445e-06,-1.07341e-05,2.60543e-06,-3.73849e-06,0
-3.06964e-05,1.8968e-06,-1.38335e-05,-4.42875e-06,4.33536e-06,-1.16049e-05,8.23744e-06,-3.57453e-06,0
-3.11823e-05,-1.16567e-05,-1.58494e-05,-1.22012e-05,3.20731e-06,-1.25951e-05,1.3433e-05,-3.29783e-06,0
-3.15916e-05,-2.05671e-05,-1.65874e-05,-2.35577e-05,5.42068e-06,-1.25436e-05,1.50655e-05,-2.34015e-06,0
-3.23908e-05,-2.31659e-05,-1.69647e-05,-3.26226e-05,7.11735e-06,-1.17639e-05,1.62005e-05,-1.75824e-06,0
-3.21256e-05,-2.13475e-05,-1.646e-05,-3.57305e-05,7.05109e-06,-1.13197e-05,1.70083e-05,-4.00983e-06,0
-3.10425e-05,-1.77257e-05,-1.46576e-05,-3.36864e-05,6.02914e-06,-1.14934e-05,1.64202e-05,-7.00851e-06,0
-3.07842e-05,-1.29061e-05,-1.33277e-05,-2.96326e-05,5.01289e-06,-1.19778e-05,1.63516e-05,-7.89503e-06,0
-3.13295e-05,-8.902e-06,-1.28148e-05,-2.46171e-05,4.86183e-06,-1.22549e-05,1.69743e-05,-5.91579e-06,0
-3.23126e-05,-6.12266e-06,-1.26001e-05,-1.70526e-05,7.48947e-06,-1.18554e-05,1.75667e-05,-2.86779e-06,0
-3.37463e-05,-3.77869e-06,-1.13756e-05,-7.75243e-06,1.33929e-05,-1.06667e-05,1.79904e-05,-4.15468e-07,0
-3.39381e-05,-4.64139e-07,-9.46009e-06,2.4906e-07,2.0356e-05,-9.38279e-06,1.83703e-05,-8.73373e-07,0
-3.14205e-05,1.72796e-06,-8.51432e-06,3.91324e-06,2.48114e-05,-8.99918e-06,1.86477e-05,-3.13846e-06,0
-2.87258e-05,2.16217e-06,-9.54681e-06,3.72032e-06,2.49315e-05,-9.71032e-06,1.85712e-05,-3.95676e-06,0
-2.90258e-05,7.82876e-07,-1.00282e-05,3.10717e-06,2.19011e-05,-1.11614e-05,1.87304e-05,-4.06588e-06,0
-3.17137e-05,-1.06176e-06,-8.46568e-06,5.04106e-06,1.9412e-05,-1.17291e-05,1.92588e-05,-4.35921e-06,0
-3.37014e-05,-1.8813e-06,-7.47445e-06,7.24653e-06,2.12877e-05,-1.08087e-05,1.89781e-05,-4.19735e-06,0
-3.30737e-05,3.35535e-07,-9.71245e-06,9.62061e-06,2.54898e-05,-9.84843e-06,1.81668e-05,-3.64788e-06,0
-3.12118e-05,5.15227e-06,-1.21747e-05,1.13208e-05,2.76722e-05,-9.2972e-06,1.7824e-05,-4.59473e-06,0
-3.00967e-05,8.17722e-06,-1.25152e-05,1.20937e-05,2.72398e-05,-9.35552e-06,1.80343e-05,-5.69422e-06,0
-3.00231e-05,8.43692e-06,-1.13094e-05,1.17201e-05,2.57617e-05,-9.53861e-06,1.6135e-05,-5.18517e-06,0
-3.03604e-05,6.569e-06,-9.70113e-06,1.08756e-05,2.35323e-05,-8.84743e-06,1.28126e-05,-4.02234e-06,0
-2.93043e-05,4.01521e-06,-8.50609e-06,9.56856e-06,2.12522e-05,-8.76744e-06,1.15867e-05,-5.25926e-06,0
-2.72456e-05,2.67388e-06,-6.84962e-06,6.8595e-06,1.81344e-05,-1.00518e-05,1.4341e-05,-6.9515e-06,0
-2.72958e-05,2.44982e-06,-5.74103e-06,1.45115e-06,1.44223e-05,-1.11001e-05,1.82469e-05,-5.93342e-06,0
-2.88917e-05,4.26339e-06,-5.85589e-06,-6.87392e-06,1.18186e-05,-1.10464e-05,1.79619e-05,-4.36404e-06,0
-2.89253e-05,7.54828e-06,-5.87817e-06,-1.16665e-05,9.82771e-06,-1.08388e-05,1.60599e-05,-3.9698e-06,0
-2.84866e-05,9.10481e-06,-7.53579e-06,-1.06727e-05,8.52112e-06,-1.24128e-05,1.49915e-05,-4.49676e-06,0
-2.89193e-05,9.08308e-06,-1.03248e-05,-8.63388e-06,9.39121e-06,-1.35592e-05,1.44224e-05,-5.1854e-06,0
-3.02412e-05,9.98702e-06,-1.06872e-05,-1.08075e-05,1.07998e-05,-1.29086e-05,1.47644e-05,-4.64834e-06,0
-3.27208e-05,1.18214e-05,-9.68301e-06,-1.50334e-05,1.15425e-05,-1.23956e-05,1.6218e-05,-5.39809e-06,0
-3.37746e-05,1.26995e-05,-8.29915e-06,-1.63083e-05,1.15014e-05,-1.20562e-05,1.82837e-05,-7.24163e-06,0
-3.18107e-05,1.3357e-05,-7.68218e-06,-1.08782e-05,1.2062e-05,-1.114e-05,2.01161e-05,-7.76361e-06,0
-2.96609e-05,1.52506e-05,-8.49409e-06,-1.66127e-06,1.43009e-05,-9.56345e-06,2.09075e-05,-7.02587e-06,0
-3.07705e-05,1.72474e-05,-8.9772e-06,4.51175e-06,1.53507e-05,-8.95777e-06,2.08162e-05,-5.6277e-06,0
-3.25212e-05,1.79377e-05,-7.97965e-06,7.33218e-06,1.40007e-05,-1.04367e-05,1.96682e-05,-4.1576e-06,0
-3.24712e-05,1.84431e-05,-5.62194e-06,1.03454e-05,1.26923e-05,-1.26405e-05,1.5874e-05,-1.98762e-06,0
-3.19562e-05,1.9691e-05,-3.53957e-06,1.24055e-05,1.38568e-05,-1.32283e-05,9.55669e-06,-4.89697e-07,0
-3.12148e-05,2.17429e-05,-2.46794e-06,8.09512e-06,1.48818e-05,-1.21253e-05,3.79321e-06,3.59214e-07,0
-2.98932e-05,2.44487e-05,-1.52783e-06,4.63593e-07,1.40095e-05,-1.07695e-05,1.59523e-06,1.89975e-06,0
-2.89708e-05,2.67446e-05,-9.6309e-07,-2.85562e-06,1.30422e-05,-9.66301e-06,1.86638e-06,5.05543e-06,0
-2.95398e-05,2.68553e-05,-8.88499e-07,5.25129e-07,1.23302e-05,-8.49988e-06,2.56984e-06,8.17915e-06,0
-3.07142e-05,2.55765e-05,-6.68606e-07,9.20912e-06,9.80242e-06,-7.16819e-06,3.48524e-06,9.23872e-06,0
-3.12599e-05,2.45649e-05,2.183e-07,2.28688e-05,6.39076e-06,-7.2585e-06,6.64341e-06,7.1339e-06,0
-3.1238e-05,2.36604e-05,-5.70154e-07,3.67956e-05,4.7659e-06,-8.58997e-06,1.24705e-05,3.86601e-06,0
-3.16005e-05,2.13985e-05,-4.04085e-06,4.14485e-05,5.81586e-06,-8.63462e-06,1.92533e-05,2.65867e-06,0
-3.20349e-05,1.96814e-05,-5.56547e-06,3.2965e-05,8.20764e-06,-8.23741e-06,2.33942e-05,3.48469e-06,0
-3.24382e-05,2.00381e-05,-3.47612e-06,1.7551e-05,9.96434e-06,-8.80403e-06,2.07579e-05,3.33649e-06,0
-3.31072e-05,1.97786e-05,-7.29399e-07,2.0243e-06,1.04567e-05,-8.52395e-06,1.53349e-05,2.17684e-06,0
-3.37434e-05,1.67936e-05,-4.59306e-08,-9.88325e-06,9.40922e-06,-7.87696e-06,1.24293e-05,2.32057e-06,0
-3.33426e-05,1.27108e-05,-6.60146e-07,-1.578e-05,9.74791e-06,-8.9499e-06,9.61161e-06,2.63886e-06,0
-3.35411e-05,1.01311e-05,-5.37503e-07,-1.74972e-05,1.16877e-05,-1.08013e-05,3.42483e-06,3.59466e-06,0
-3.39826e-05,9.72417e-06,-3.64862e-07,-2.06646e-05,1.2459e-05,-1.20171e-05,-2.61103e-06,5.20436e-06,0
-3.31266e-05,1.0723e-05,-2.16472e-07,-3.18318e-05,1.34283e-05,-1.17306e-05,-4.12473e-06,6.43819e-06,0
-3.08577e-05,1.09183e-05,-3.73821e-07,-4.92788e-05,1.67616e-05,-1.006e-05,-2.14534e-06,6.65325e-06,0
-2.805e-05,1.06863e-05,-1.39845e-06,-6.49461e-05,1.98017e-05,-8.86789e-06,1.80799e-06,6.70365e-06,0
-2.65425e-05,1.0968e-05,-4.13644e-06,-7.20262e-05,2.02501e-05,-9.34744e-06,6.79093e-06,8.16441e-06,0
-2.6713e-05,1.09069e-05,-7.35517e-06,-6.89672e-05,2.03463e-05,-1.10583e-05,1.45019e-05,8.68044e-06,0
-2.78416e-05,9.96444e-06,-9.57662e-06,-5.83995e-05,1.9381e-05,-1.16788e-05,2.16958e-05,6.48762e-06,0
-2.71978e-05,1.0003e-05,-1.12573e-05,-4.06167e-05,1.85716e-05,-1.10381e-05,2.25971e-05,3.59775e-06,0
-2.62759e-05,1.16447e-05,-1.19618e-05,-1.64438e-05,1.9335e-05,-1.00083e-05,1.73092e-05,1.763e-06,0
-2.57925e-05,1.27038e-05,-1.2128e-05,8.44314e-06,2.11542e-05,-9.45554e-06,1.04332e-05,1.40286e-06,0
-2.53593e-05,1.19277e-05,-1.14757e-05,2.81524e-05,2.32613e-05,-9.72781e-06,8.22198e-06,1.7489e-06,0
-2.62521e-05,1.14465e-05,-9.74557e-06,4.0128e-05,2.45482e-05,-9.68462e-06,1.17931e-05,2.37213e-06,0
-2.92286e-05,1.1316e-05,-7.46676e-06,4.61619e-05,2.61837e-05,-9.73459e-06,1.65676e-05,3.64135e-06,0
-3.21041e-05,1.01179e-05,-7.26031e-06,4.77912e-05,2.79574e-05,-1.00691e-05,1.2632e-05,4.1774e-06,0
-3.22822e-05,9.15779e-06,-9.29138e-06,4.26203e-05,2.96347e-05,-9.15894e-06,-5.57109e-06,2.88212e-06,0
-3.06297e-05,9.45412e-06,-1.08478e-05,3.19774e-05,2.98993e-05,-7.14765e-06,-2.84914e-05,8.57451e-07,0
-2.85658e-05,1.07764e-05,-1.06424e-05,2.11843e-05,2.80365e-05,-7.3138e-06,-4.07419e-05,2.37804e-08,0
-2.75577e-05,1.30433e-05,-9.31513e-06,1.39388e-05,2.50965e-05,-9.89381e-06,-4.15887e-05,1.18113e-06,0
-2.70829e-05,1.55829e-05,-8.52047e-06,1.30345e-05,2.31106e-05,-1.06539e-05,-3.87058e-05,2.60579e-06,0
-2.69794e-05,1.60729e-05,-1.0699e-05,1.75394e-05,2.17206e-05,-8.24339e-06,-2.97775e-05,3.29554e-06,0
-2.6995e-05,1.44324e-05,-1.62077e-05,2.14323e-05,2.02694e-05,-6.92158e-06,-9.83748e-06,4.22757e-06,0
-2.65365e-05,1.20575e-05,-1.96774e-05,1.86801e-05,1.9118e-05,-8.47344e-06,1.59384e-05,5.18649e-06,0
-2.62135e-05,1.23952e-05,-1.79037e-05,8.27818e-06,1.67206e-05,-1.01801e-05,3.77418e-05,5.65059e-06,0
-2.64617e-05,1.64601e-05,-1.53121e-05,-4.64222e-06,1.48932e-05,-1.02898e-05,5.15237e-05,5.30703e-06,0
-2.58813e-05,1.91299e-05,-1.60607e-05,-1.42516e-05,1.46945e-05,-9.78479e-06,6.14145e-05,4.43563e-06,0
-2.48656e-05,1.65075e-05,-1.80399e-05,-1.75999e-05,1.53269e-05,-9.56653e-06,6.69544e-05,2.85904e-06,0
-2.45947e-05,1.13933e-05,-1.6908e-05,-1.80557e-05,1.60435e-05,-1.05834e-05,6.68689e-05,1.29932e-06,0
-2.43433e-05,9.32015e-06,-1.30149e-05,-1.89191e-05,1.58555e-05,-1.32632e-05,6.23975e-05,1.65593e-06,0
-2.34152e-05,1.07059e-05,-9.51353e-06,-2.27816e-05,1.60036e-05,-1.50666e-05,5.48818e-05,1.92816e-06,0
-2.24159e-05,1.272e-05,-7.22936e-06,-3.28625e-05,1.70281e-05,-1.55831e-05,4.78304e-05,1.09171e-07,0
-2.37463e-05,1.2477e-05,-7.43006e-06,-4.30106e-05,2.05427e-05,-1.62623e-05,4.24834e-05,-1.15455e-06,0
-2.73773e-05,1.09538e-05,-7.47708e-06,-4.50236e-05,2.62568e-05,-1.57487e-05,3.98765e-05,8.37376e-07,0
-3.06464e-05,1.15721e-05,-7.32207e-06,-3.66484e-05,3.04696e-05,-1.53826e-05,3.43684e-05,3.39681e-06,0
-3.09205e-05,1.37686e-05,-8.73995e-06,-2.46903e-05,2.86255e-05,-1.57869e-05,2.67596e-05,2.55733e-06,0
-2.98971e-05,1.54212e-05,-1.02514e-05,-1.61402e-05,2.30731e-05,-1.49412e-05,2.07563e-05,-1.60215e-06,0
-3.04592e-05,1.45469e-05,-1.1601e-05,-1.24764e-05,1.8937e-05,-1.33874e-05,1.55464e-05,-3.59186e-06,0
-3.20673e-05,1.12635e-05,-1.1928e-05,-1.16318e-05,1.69475e-05,-1.18576e-05,1.00182e-05,-1.82974e-06,0
-3.28377e-05,7.8519e-06,-1.08239e-05,-9.32135e-06,1.54379e-05,-1.07721e-05,5.21911e-06,-1.53625e-06,0
-3.27204e-05,5.79549e-06,-1.04598e-05,-5.46047e-06,1.30575e-05,-1.00699e-05,1.13578e-06,-4.17224e-06,0
-3.2256e-05,4.536e-06,-1.32373e-05,-4.72195e-06,1.09105e-05,-1.02498e-05,-3.43555e-06,-6.52713e-06,0
-3.11478e-05,3.19878e-06,-1.79812e-05,-8.39299e-06,8.92894e-06,-1.06184e-05,-6.47004e-06,-6.2793e-06,0
-3.11166e-05,1.94413e-06,-2.27233e-05,-1.19429e-05,8.35038e-06,-1.11955e-05,-7.60196e-06,-4.56131e-06,0
-3.27257e-05,2.58308e-06,-2.56232e-05,-1.19862e-05,8.06396e-06,-1.25296e-05,-6.48624e-06,-3.19094e-06,0
-3.40509e-05,5.36075e-06,-2.65376e-05,-7.62903e-06,5.98594e-06,-1.36043e-05,-4.53624e-06,-2.54826e-06,0
-3.38799e-05,7.19681e-06,-2.54729e-05,-3.85368e-07,1.60187e-06,-1.33896e-05,-3.4876e-06,-4.37329e-07,0
-3.33319e-05,6.12922e-06,-2.2134e-05,6.81861e-06,-3.71417e-06,-1.18104e-05,-2.52961e-06,3.42212e-06,0
-3.40468e-05,4.22703e-06,-1.8733e-05,9.429e-06,-8.74337e-06,-1.05203e-05,1.55062e-06,6.10595e-06,0
-3.49552e-05,5.64285e-06,-1.73615e-05,7.19956e-06,-1.13351e-05,-1.0974e-05,6.14259e-06,7.01872e-06,0
-3.39359e-05,8.83287e-06,-1.74692e-05,2.543e-06,-1.21302e-05,-1.21687e-05,8.2907e-06,7.3712e-06,0
-3.26961e-05,1.05817e-05,-1.8036e-05,-2.33951e-06,-1.36529e-05,-1.23612e-05,9.18824e-06,8.62356e-06,0
-3.33527e-05,1.17601e-05,-1.58267e-05,-5.34517e-06,-1.45957e-05,-1.08346e-05,1.04526e-05,1.07458e-05,0
-3.3876e-05,1.34108e-05,-1.03194e-05,-5.69579e-06,-1.33823e-05,-8.72169e-06,1.12264e-05,1.02272e-05,0
-3.27133e-05,1.743e-05,-7.81615e-06,-4.49331e-06,-9.82986e-06,-6.85282e-06,9.67587e-06,7.53538e-06,0
-3.08309e-05,2.17273e-05,-9.27559e-06,-1.89643e-06,-5.35069e-06,-5.6124e-06,7.18564e-06,5.7941e-06,0
-2.90943e-05,2.16192e-05,-1.08993e-05,6.57808e-06,-2.27064e-06,-5.79588e-06,8.98453e-06,4.72746e-06,0
-2.88445e-05,2.11598e-05,-9.70553e-06,1.83201e-05,-1.10163e-06,-6.60072e-06,1.42753e-05,3.90302e-06,0
-3.05714e-05,2.35622e-05,-5.70286e-06,2.29949e-05,-9.98432e-07,-5.84504e-06,1.62876e-05,5.76252e-06,0
-3.29531e-05,2.58461e-05,-2.99742e-06,1.92132e-05,-1.36004e-06,-4.36207e-06,1.36118e-05,9.53195e-06,0
-3.35996e-05,2.45374e-05,-2.62086e-06,1.41955e-05,-8.02628e-08,-5.59186e-06,1.04185e-05,9.79868e-06,0
-3.29571e-05,2.04405e-05,-3.09374e-06,1.05778e-05,2.58868e-06,-6.45866e-06,9.38391e-06,7.67325e-06,0
-3.17323e-05,1.81001e-05,-3.08674e-06,6.85565e-06,6.58828e-06,-4.85052e-06,9.93175e-06,6.86667e-06,0
-3.01325e-05,1.8763e-05,-2.66984e-06,2.02971e-06,1.08243e-05,-3.22336e-06,1.10815e-05,8.19888e-06,0
-3.00355e-05,1.95875e-05,-1.21465e-06,-4.39571e-06,1.3484e-05,-2.36968e-06,1.11296e-05,9.4294e-06,0
-3.06363e-05,1.78489e-05,1.17645e-06,-1.16761e-05,1.46843e-05,-1.38394e-06,1.1393e-05,8.78099e-06,0
-3.02083e-05,1.40545e-05,2.41127e-06,-1.7172e-05,1.50638e-05,-5.52655e-07,1.16824e-05,7.13384e-06,0
-3.02249e-05,1.11186e-05,2.32275e-06,-1.95779e-05,1.5283e-05,-5.14661e-07,1.09126e-05,6.10734e-06,0
-3.1521e-05,1.0809e-05,1.90519e-06,-2.32096e-05,1.43571e-05,-1.87566e-06,1.02044e-05,6.69425e-06,0
-3.21309e-05,1.10057e-05,1.06728e-06,-3.09767e-05,1.14064e-05,-4.19682e-06,1.14969e-05,7.11432e-06,0
-3.14415e-05,9.4576e-06,-3.30848e-07,-3.72011e-05,7.87102e-06,-5.58575e-06,1.42756e-05,6.12383e-06,0
-3.0695e-05,5.91292e-06,-1.11878e-06,-3.69279e-05,6.2321e-06,-5.43006e-06,1.59292e-05,5.46704e-06,0
-3.06851e-05,2.52327e-06,-1.30387e-06,-3.02259e-05,6.2336e-06,-4.9349e-06,1.5921e-05,6.22386e-06,0
-2.94693e-05,4.55442e-07,-1.58335e-06,-1.49832e-05,6.12921e-06,-5.54236e-06,1.56354e-05,6.71431e-06,0
-2.80479e-05,-4.18273e-07,-2.29272e-06,8.20439e-06,5.23017e-06,-6.7561e-06,1.51456e-05,7.37235e-06,0
-2.86841e-05,-7.94308e-07,-2.63679e-06,2.97611e-05,4.78681e-06,-6.93078e-06,1.47469e-05,8.48164e-06,0
-3.03377e-05,-1.70296e-06,-2.10257e-06,3.74111e-05,5.66832e-06,-5.37602e-06,1.4171e-05,8.36134e-06,0
-3.09397e-05,-1.45837e-06,-2.56179e-06,2.79572e-05,6.98839e-06,-3.60173e-06,1.455e-05,6.3357e-06,0
-2.9831e-05,5.21055e-07,-5.55166e-06,1.26057e-05,6.61835e-06,-3.66471e-06,1.63198e-05,3.34324e-06,0
-2.85694e-05,3.61892e-06,-9.70806e-06,2.71799e-06,4.10838e-06,-6.54002e-06,1.61101e-05,1.27637e-06,0
-2.86398e-05,7.77366e-06,-1.33915e-05,-2.35533e-06,1.19582e-06,-9.62347e-06,1.55383e-05,4.08525e-07,0
-2.99396e-05,1.04322e-05,-1.33769e-05,-9.96252e-06,3.08306e-08,-9.85979e-06,1.57989e-05,1.46479e-07,0
-3.11331e-05,1.03515e-05,-9.71004e-06,-1.99884e-05,7.99679e-07,-7.07614e-06,1.63887e-05,-5.69996e-07,0
-3.01283e-05,7.98528e-06,-5.15554e-06,-3.11128e-05,2.41181e-06,-5.35909e-06,1.73441e-05,-1.22159e-06,0
-2.90685e-05,4.9555e-06,-2.06853e-06,-4.37651e-05,6.16944e-06,-6.39728e-06,1.73419e-05,4.07284e-07,0
-3.03381e-05,3.29907e-06,-2.13063e-06,-5.14194e-05,9.68568e-06,-9.24407e-06,1.63755e-05,1.73117e-06,0
-3.19398e-05,2.98938e-06,-3.80475e-06,-5.12311e-05,1.10888e-05,-1.25578e-05,1.60631e-05,6.13991e-07,0
-3.26342e-05,4.48376e-06,-5.22733e-06,-4.36684e-05,1.00221e-05,-1.57107e-05,1.80972e-05,-2.81858e-06,0
-3.3297e-05,6.42616e-06,-6.60501e-06,-3.0856e-05,9.48755e-06,-1.7866e-05,2.35713e-05,-6.19062e-06,0
-3.36156e-05,9.07953e-06,-8.09534e-06,-1.92656e-05,1.30528e-05,-1.75157e-05,3.2711e-05,-6.00333e-06,0
-3.24814e-05,1.23955e-05,-6.15019e-06,-1.37279e-05,1.99185e-05,-1.54835e-05,4.13168e-05,-4.39328e-06,0
-3.17281e-05,1.41758e-05,-1.30576e-06,-1.37325e-05,2.60975e-05,-1.25725e-05,4.58278e-05,-4.41256e-06,0
-3.20995e-05,1.39144e-05,1.50303e-07,-1.46508e-05,2.71282e-05,-1.05631e-05,4.57704e-05,-5.9863e-06,0
-3.29906e-05,1.26801e-05,-2.24824e-06,-9.4441e-06,2.45377e-05,-1.088e-05,4.09266e-05,-7.08002e-06,0
-3.34252e-05,1.18809e-05,-4.15505e-06,2.53731e-06,2.17015e-05,-1.28276e-05,3.15978e-05,-6.9275e-06,0
-3.30096e-05,1.21516e-05,-4.23935e-06,1.2713e-05,2.09995e-05,-1.35623e-05,1.96627e-05,-5.63343e-06,0
-3.21834e-05,1.3013e-05,-4.37571e-06,1.26297e-05,2.0303e-05,-1.31805e-05,6.36036e-06,-5.01061e-06,0
-3.10316e-05,1.27043e-05,-5.07864e-06,1.08707e-06,1.77535e-05,-1.30697e-05,-7.57392e-06,-6.29e-06,0
-2.94969e-05,1.12551e-05,-5.30326e-06,-1.38047e-05,1.37015e-05,-1.29887e-05,-1.89949e-05,-6.92835e-06,0
-2.77855e-05,1.06708e-05,-3.83136e-06,-2.18515e-05,1.08327e-05,-1.14091e-05,-2.44455e-05,-5.03735e-06,0
-2.74921e-05,1.18136e-05,1.3134e-06,-2.03169e-05,1.18848e-05,-9.27725e-06,-2.35363e-05,-3.00635e-06,0
-2.9586e-05,1.33782e-05,9.65898e-06,-1.49825e-05,1.57618e-05,-9.04951e-06,-1.86289e-05,-2.28906e-06,0
-3.16357e-05,1.51474e-05,2.04972e-05,-1.16362e-05,1.8096e-05,-9.95915e-06,-1.39721e-05,-2.59731e-06,0
-3.16526e-05,1.63534e-05,3.63864e-05,-1.05125e-05,1.69366e-05,-9.8758e-06,-1.14354e-05,-4.63091e-06,0
-3.06073e-05,1.61645e-05,5.60927e-05,-4.81976e-06,1.46219e-05,-8.92467e-06,-8.39715e-06,-6.75079e-06,0
-3.00748e-05,1.7021e-05,7.12439e-05,1.07521e-05,1.5252e-05,-8.54381e-06,-5.74744e-06,-5.91847e-06,0
-3.06173e-05,1.76501e-05,7.32281e-05,2.96774e-05,2.03573e-05,-8.27374e-06,-3.44522e-06,-3.6026e-06,0
-3.02488e-05,1.47102e-05,5.3059e-05,4.05626e-05,2.59944e-05,-9.5538e-06,1.12355e-06,-2.08956e-06,0
-2.94891e-05,1.20624e-05,1.44175e-05,4.23297e-05,2.87872e-05,-1.16274e-05,5.44648e-06,-8.67741e-07,0
-2.90907e-05,1.21416e-05,-3.06375e-05,4.23486e-05,2.82216e-05,-9.76247e-06,4.65048e-06,-4.64506e-07,0
-2.85056e-05,1.17078e-05,-7.19239e-05,3.91459e-05,2.72067e-05,-4.20025e-06,1.62214e-06,-4.00121e-07,0
-2.90515e-05,9.76079e-06,-9.84022e-05,3.21735e-05,2.83869e-05,-7.09314e-07,1.45448e-06,-1.256e-06,0
-2.95742e-05,7.56176e-06,-0.00010773,2.72817e-05,3.01516e-05,-1.84362e-06,5.36638e-06,-2.13532e-06,0
-2.96112e-05,6.02626e-06,-0.000100892,2.41378e-05,2.93711e-05,-3.41066e-06,1.03782e-05,-1.29588e-06,0
-2.96319e-05,6.81564e-06,-8.49607e-05,2.43751e-05,2.94999e-05,-3.55599e-06,1.41655e-05,-4.3578e-08,0
-2.97199e-05,8.63843e-06,-7.06603e-05,2.64139e-05,3.25913e-05,-3.93115e-06,1.64391e-05,9.05299e-07,0
-2.89803e-05,9.21464e-06,-5.92494e-05,2.44172e-05,3.46969e-05,-5.66682e-06,1.75551e-05,2.22732e-06,0
-2.68459e-05,1.01084e-05,-4.74796e-05,1.5831e-05,3.30662e-05,-8.09338e-06,1.88074e-05,2.50943e-06,0
-2.51701e-05,1.14225e-05,-3.32463e-05,2.47699e-06,2.80843e-05,-9.77384e-06,1.93487e-05,1.68324e-06,0
-2.53714e-05,1.22168e-05,-1.93383e-05,-9.53261e-06,2.25193e-05,-1.1444e-05,1.88955e-05,9.42074e-07,0
-2.65214e-05,1.25181e-05,-9.28288e-06,-1.77711e-05,1.87092e-05,-1.31044e-05,1.83136e-05,1.08357e-07,0
-2.75598e-05,1.13078e-05,-3.72332e-06,-2.26918e-05,1.58027e-05,-1.46903e-05,2.08815e-05,-7.88288e-07,0
-2.8383e-05,9.20503e-06,-2.07275e-06,-2.39586e-05,1.38483e-05,-1.59412e-05,2.72267e-05,-2.85936e-07,0
-2.9235e-05,8.60813e-06,-2.79147e-06,-2.15476e-05,1.45843e-05,-1.6716e-05,3.3765e-05,8.31537e-07,0
-3.08265e-05,9.28771e-06,-4.14184e-06,-1.72256e-05,1.73338e-05,-1.65445e-05,3.55416e-05,5.3407e-07,0
-3.18204e-05,9.87659e-06,-4.5934e-06,-1.38614e-05,1.90976e-05,-1.51463e-05,3.2622e-05,2.66996e-07,0
-3.07571e-05,1.01667e-05,-4.1308e-06,-1.47053e-05,1.77759e-05,-1.32759e-05,2.78327e-05,2.06486e-06,0
-2.80519e-05,1.11614e-05,-3.76686e-06,-1.91301e-05,1.56004e-05,-1.18485e-05,2.08869e-05,5.72183e-06,0
-2.60417e-05,1.26262e-05,-3.03654e-06,-2.21203e-05,1.50157e-05,-1.11348e-05,1.26536e-05,7.36595e-06,0
-2.56985e-05,1.32043e-05,-1.2486e-06,-2.03129e-05,1.53704e-05,-1.05616e-05,6.93608e-06,6.38747e-06,0
-2.60014e-05,1.26658e-05,6.81554e-07,-1.7941e-05,1.4017e-05,-1.0086e-05,4.12644e-06,4.70817e-06,0
-2.5969e-05,1.08811e-05,2.5551e-06,-1.73405e-05,1.06942e-05,-1.00549e-05,5.77351e-07,3.68027e-06,0
-2.55145e-05,1.20146e-05,3.73474e-06,-1.28022e-05,8.14904e-06,-1.00065e-05,-2.22316e-06,3.17531e-06,0
-2.64022e-05,1.66103e-05,3.956e-06,-4.37303e-06,7.98091e-06,-8.92792e-06,-8.24566e-07,2.3069e-06,0
-2.80075e-05,1.91514e-05,2.97128e-06,4.67939e-06,1.01685e-05,-8.29783e-06,5.231e-06,1.12504e-06,0
-2.81879e-05,1.87591e-05,1.96119e-06,1.28479e-05,1.19515e-05,-9.12062e-06,1.30406e-05,1.3059e-06,0
-2.7562e-05,1.77604e-05,1.54479e-06,1.58592e-05,1.2354e-05,-1.01823e-05,1.66601e-05,2.03581e-06,0
-2.70224e-05,1.79751e-05,5.28367e-07,1.24509e-05,1.2233e-05,-1.09809e-05,1.45257e-05,1.35495e-06,0
-2.70528e-05,1.74773e-05,-1.59588e-06,6.49185e-06,1.01198e-05,-1.07399e-05,1.06703e-05,-9.75382e-07,0
-2.72323e-05,1.65537e-05,-4.54495e-06,1.09071e-06,8.78598e-06,-1.08437e-05,9.69828e-06,-2.87973e-06,0
-2.76031e-05,1.67909e-05,-6.45885e-06,-3.10177e-06,9.00026e-06,-1.27723e-05,1.16175e-05,-3.03387e-06,0
-2.81101e-05,1.66815e-05,-5.76117e-06,-3.46507e-06,1.00679e-05,-1.49157e-05,1.37395e-05,-2.66072e-06,0
-2.93524e-05,1.44592e-05,-4.0742e-06,-6.92724e-09,1.17069e-05,-1.5656e-05,1.40853e-05,-1.48946e-06,0
-3.03009e-05,1.20739e-05,-2.60188e-06,2.68119e-06,1.23517e-05,-1.48418e-05,1.39828e-05,-1.20479e-06,0
-3.10162e-05,1.11704e-05,-2.06136e-06,1.52934e-06,1.20688e-05,-1.39061e-05,1.42363e-05,-3.02545e-07,0
-3.22093e-05,1.1458e-05,-2.87247e-06,-1.03924e-06,1.06111e-05,-1.40757e-05,1.40578e-05,1.03317e-06,0
-3.24308e-05,1.27938e-05,-3.80523e-06,-2.21003e-06,8.00297e-06,-1.58366e-05,1.42783e-05,8.72242e-07,0
-3.2441e-05,1.42181e-05,-4.2924e-06,-2.54789e-06,6.11803e-06,-1.76987e-05,1.54107e-05,-7.90492e-07,0
-3.23578e-05,1.52959e-05,-4.53451e-06,-3.41202e-06,5.89242e-06,-1.79692e-05,1.67648e-05,-2.45273e-06,0
-3.23022e-05,1.59709e-05,-4.69831e-06,-5.74378e-06,6.51005e-06,-1.74132e-05,1.67467e-05,-2.76482e-06,0
-3.18279e-05,1.67487e-05,-4.09198e-06,-8.15688e-06,7.02473e-06,-1.75588e-05,1.67674e-05,-2.3854e-06,0
