ch1,ch2,ch3,ch4,ch5,ch6,ch7,ch8,class
-3.06171e-05,1.97283e-05,-5.38529e-06,-1.70487e-05,1.78181e-05,-1.61583e-05,2.09067e-05,5.38616e-06,0
-3.3396e-05,1.50211e-05,-5.97579e-06,-1.80599e-05,1.78039e-05,-1.49646e-05,2.5975e-05,3.48613e-06,0
-3.45558e-05,1.32156e-05,-6.98222e-06,-1.77038e-05,1.53933e-05,-1.39313e-05,3.05753e-05,6.3357e-07,0
-3.26482e-05,1.34875e-05,-7.82014e-06,-1.89909e-05,1.18419e-05,-1.53133e-05,3.28982e-05,-6.82706e-07,0
-3.03954e-05,1.50361e-05,-1.01556e-05,-1.97811e-05,8.77789e-06,-1.67299e-05,3.24765e-05,-3.66053e-07,0
-3.0658e-05,1.53838e-05,-1.41243e-05,-1.75404e-05,6.92942e-06,-1.55158e-05,2.82021e-05,9.37918e-07,0
-3.21961e-05,1.43597e-05,-1.84391e-05,-1.38546e-05,5.91498e-06,-1.27437e-05,1.98399e-05,7.84937e-07,0
-3.27872e-05,1.31188e-05,-2.06039e-05,-9.13815e-06,6.53289e-06,-1.12967e-05,1.07996e-05,-8.74002e-07,0
-3.25649e-05,1.28496e-05,-1.88176e-05,-3.44354e-06,7.96611e-06,-1.04903e-05,3.06324e-06,-9.38026e-07,0
-3.19384e-05,1.35596e-05,-1.5162e-05,-6.25023e-07,8.89511e-06,-9.55379e-06,-3.89803e-06,9.79849e-07,0
-3.12775e-05,1.41291e-05,-1.09898e-05,-2.3798e-06,9.1965e-06,-8.90549e-06,-9.56457e-06,1.37775e-06,0
-3.19361e-05,1.5616e-05,-7.58098e-06,-7.59401e-06,7.66316e-06,-8.5543e-06,-1.21809e-05,1.44878e-06,0
-3.40891e-05,1.59088e-05,-7.07283e-06,-1.45315e-05,6.56562e-06,-8.27065e-06,-1.20156e-05,1.41232e-06,0
-3.5055e-05,1.31921e-05,-8.15715e-06,-2.2157e-05,9.6994e-06,-9.55073e-06,-1.06068e-05,4.44098e-07,0
-3.50944e-05,7.82859e-06,-7.22393e-06,-2.70954e-05,1.25177e-05,-1.1109e-05,-6.03568e-06,1.85851e-06,0
-3.4317e-05,4.66671e-06,-5.26817e-06,-2.84281e-05,1.45871e-05,-1.00003e-05,2.53043e-07,3.65368e-06,0
-3.27305e-05,9.02795e-06,-3.03347e-06,-2.45682e-05,1.98766e-05,-8.76781e-06,4.74772e-06,3.656e-06,0
-3.20818e-05,1.4604e-05,1.09019e-07,-1.55661e-05,2.3279e-05,-7.94156e-06,7.25578e-06,1.83202e-06,0
-3.39769e-05,1.73927e-05,6.34283e-07,-8.72524e-06,2.205e-05,-7.55431e-06,9.86927e-06,-1.54491e-08,0
-3.69534e-05,1.5779e-05,-1.1995e-06,-4.06266e-06,1.93528e-05,-7.79566e-06,1.78764e-05,2.16186e-07,0
-3.71836e-05,1.1099e-05,-3.60358e-06,-2.17524e-07,1.74616e-05,-7.78912e-06,2.99408e-05,9.53442e-07,0
-3.58137e-05,7.10588e-06,-8.98779e-06,4.77286e-06,1.75094e-05,-8.57501e-06,3.97722e-05,1.18262e-06,0
-3.40482e-05,7.14588e-06,-1.78926e-05,8.9565e-06,1.8935e-05,-9.67976e-06,4.371e-05,6.21133e-07,0
-3.16238e-05,1.34145e-05,-2.80415e-05,1.00323e-05,2.04279e-05,-8.83203e-06,4.31702e-05,-8.09743e-07,0
-3.03608e-05,2.60989e-05,-3.59858e-05,7.66927e-06,2.04435e-05,-7.21871e-06,4.03229e-05,-1.45821e-06,0
-3.13097e-05,4.59004e-05,-3.8818e-05,2.06773e-06,1.79349e-05,-6.77558e-06,3.64258e-05,-3.92539e-07,0
-3.22372e-05,6.524e-05,-3.63725e-05,-2.77303e-06,1.55407e-05,-7.54211e-06,3.07085e-05,9.12646e-07,0
-3.18827e-05,7.5745e-05,-3.11361e-05,-4.67408e-06,1.63838e-05,-7.82089e-06,2.09435e-05,1.24721e-06,0
-3.14868e-05,7.3708e-05,-2.49231e-05,-4.49821e-06,2.04217e-05,-6.5805e-06,7.24852e-06,-5.26242e-08,0
-3.05679e-05,6.04685e-05,-1.89106e-05,-4.00619e-06,2.55597e-05,-4.96934e-06,-8.16144e-06,-1.88188e-06,0
-2.79682e-05,3.94707e-05,-1.39774e-05,-2.04864e-06,3.01004e-05,-3.65278e-06,-2.03156e-05,-2.38417e-06,0
-2.59051e-05,1.58474e-05,-1.08925e-05,-9.06474e-07,3.14508e-05,-2.24443e-06,-2.62028e-05,-1.71409e-06,0
-2.69541e-05,-6.3975e-06,-9.93362e-06,-3.74785e-06,2.72074e-05,-2.7882e-07,-2.80008e-05,-9.4912e-07,0
-2.88544e-05,-2.20281e-05,-1.14663e-05,-7.56893e-06,1.87899e-05,1.71948e-06,-2.78052e-05,-9.74127e-07,0
-2.83752e-05,-2.98625e-05,-1.43629e-05,-6.88694e-06,1.0131e-05,1.91732e-06,-2.23625e-05,-8.76374e-07,0
-2.70991e-05,-3.49593e-05,-1.58758e-05,-4.15268e-06,5.17124e-06,6.24745e-07,-1.19627e-05,4.64973e-07,0
-2.70034e-05,-3.5832e-05,-1.52848e-05,-3.21733e-06,3.86565e-06,-7.255e-07,-1.12015e-07,3.50221e-07,0
-2.73615e-05,-2.4415e-05,-1.23649e-05,-5.45605e-06,3.71177e-06,-1.45792e-06,1.40576e-05,-1.98506e-06,0
-2.74711e-05,-4.33836e-06,-7.59539e-06,-8.92648e-06,3.78031e-06,-1.81118e-06,2.74994e-05,-2.4587e-06,0
-2.89061e-05,1.17342e-05,-2.00203e-06,-1.00694e-05,3.18138e-06,-3.20958e-06,3.35374e-05,2.62522e-07,0
-3.17711e-05,1.78539e-05,5.4706e-06,-8.57002e-06,2.48259e-06,-6.07869e-06,3.21166e-05,1.95908e-06,0
-3.32126e-05,1.84037e-05,1.75104e-05,-9.26359e-06,4.12329e-06,-8.49389e-06,2.79566e-05,-8.73773e-07,0
-3.25784e-05,2.11827e-05,3.70565e-05,-1.4145e-05,4.02803e-06,-9.81735e-06,2.56699e-05,-4.43177e-06,0
-3.13348e-05,2.39266e-05,6.1048e-05,-1.81336e-05,5.26378e-07,-1.10486e-05,2.40419e-05,-6.06822e-06,0
-3.05085e-05,2.41577e-05,8.03327e-05,-2.08158e-05,-1.60821e-06,-1.16079e-05,2.19069e-05,-7.04192e-06,0
-2.94826e-05,2.2594e-05,8.41848e-05,-2.11633e-05,-1.28509e-06,-1.18027e-05,2.11989e-05,-7.01557e-06,0
-2.87175e-05,2.01664e-05,6.7572e-05,-1.97186e-05,2.52938e-07,-9.89056e-06,2.24602e-05,-4.81453e-06,0
-2.91628e-05,1.81888e-05,3.38346e-05,-1.76619e-05,1.69719e-06,-9.74378e-06,2.23619e-05,-2.38149e-06,0
-3.01463e-05,1.73081e-05,-8.15056e-06,-1.41746e-05,3.49265e-06,-1.2917e-05,1.75404e-05,-2.26787e-06,0
-3.12301e-05,1.70295e-05,-4.56507e-05,-7.28627e-06,4.41291e-06,-1.47361e-05,1.09072e-05,-2.70958e-06,0
-3.12902e-05,1.62548e-05,-7.0392e-05,2.40015e-06,4.16443e-06,-1.40884e-05,7.81183e-06,-1.9928e-06,0
-3.07146e-05,1.41296e-05,-7.9761e-05,8.40972e-06,3.14153e-06,-1.31173e-05,5.90018e-06,-1.66935e-07,0
-3.11484e-05,1.07424e-05,-7.3645e-05,6.97743e-06,1.10045e-06,-1.32234e-05,-1.07292e-06,5.39144e-07,0
-3.28962e-05,7.7298e-06,-5.77122e-05,1.31105e-06,-2.3579e-06,-1.2997e-05,-1.20066e-05,-3.35589e-07,0
-3.43307e-05,6.28618e-06,-4.41198e-05,-2.17722e-06,-5.96651e-06,-1.12944e-05,-2.13946e-05,-1.44402e-06,0
-3.42419e-05,7.34918e-06,-3.59132e-05,-1.13161e-06,-5.06272e-06,-7.85388e-06,-2.43976e-05,-2.90505e-06,0
-3.26915e-05,1.19636e-05,-2.90659e-05,1.87223e-06,8.06988e-07,-5.94315e-06,-1.89904e-05,-4.12382e-06,0
-3.08034e-05,1.78423e-05,-2.4022e-05,3.17262e-06,6.58138e-06,-6.17372e-06,-6.78819e-06,-3.65102e-06,0
-3.01113e-05,2.14094e-05,-2.36184e-05,1.43572e-06,8.44999e-06,-7.15657e-06,5.3391e-06,-1.8899e-06,0
-3.03422e-05,2.14779e-05,-2.61013e-05,-2.29325e-06,7.87146e-06,-7.42189e-06,1.41528e-05,-7.59331e-07,0
-3.08906e-05,1.84333e-05,-2.75767e-05,-4.50812e-06,7.2387e-06,-6.92064e-06,2.03746e-05,2.57738e-07,0
-3.08446e-05,1.49655e-05,-2.59259e-05,-3.58937e-06,7.02325e-06,-6.13727e-06,2.36101e-05,2.90998e-06,0
-2.98792e-05,1.45927e-05,-1.93723e-05,-1.1307e-06,7.26953e-06,-5.6206e-06,2.48852e-05,6.17305e-06,0
-2.90573e-05,1.69294e-05,-1.18111e-05,-2.71503e-07,8.21673e-06,-5.95453e-06,2.75903e-05,7.32961e-06,0
-2.92284e-05,2.01595e-05,-8.09762e-06,-1.86239e-06,8.40698e-06,-6.90377e-06,3.16078e-05,7.96859e-06,0
-2.96641e-05,2.29708e-05,-7.5304e-06,-3.60292e-06,7.10736e-06,-6.8322e-06,3.22864e-05,9.89266e-06,0
-2.98934e-05,2.39157e-05,-7.122e-06,-4.65758e-06,6.40831e-06,-6.16805e-06,2.4156e-05,1.09589e-05,0
-3.09596e-05,2.25625e-05,-5.49048e-06,-4.59949e-06,9.51794e-06,-5.97322e-06,6.01081e-06,1.08742e-05,0
-3.27414e-05,1.98645e-05,-3.12889e-06,-5.52897e-06,1.23655e-05,-7.24219e-06,-1.06746e-05,9.8824e-06,0
-3.36021e-05,1.96627e-05,-2.71679e-06,-6.35566e-06,1.16186e-05,-9.93434e-06,-1.43472e-05,8.10363e-06,0
-3.30505e-05,2.14989e-05,-4.42017e-06,-5.10212e-06,9.98816e-06,-1.10338e-05,-5.74127e-06,6.85956e-06,0
-3.14275e-05,2.05017e-05,-5.12305e-06,-3.77268e-06,1.01291e-05,-1.22318e-05,9.69673e-06,5.98385e-06,0
-3.02079e-05,1.55175e-05,-4.38614e-06,-4.03022e-06,1.28984e-05,-1.49113e-05,2.53334e-05,6.87849e-06,0
-2.8878e-05,1.04964e-05,-4.19363e-06,-8.85582e-06,1.356e-05,-1.67938e-05,3.73466e-05,8.26771e-06,0
-2.8077e-05,5.69321e-06,-4.60685e-06,-1.53816e-05,1.23195e-05,-1.58572e-05,4.36621e-05,8.43076e-06,0
-2.86627e-05,1.54839e-06,-3.07347e-06,-1.85136e-05,1.30915e-05,-1.4553e-05,4.44837e-05,8.69838e-06,0
-2.86743e-05,5.15587e-07,3.22479e-07,-1.60303e-05,1.60198e-05,-1.41792e-05,4.41247e-05,9.7223e-06,0
-2.83469e-05,2.75811e-06,1.32793e-06,-7.21083e-06,1.87298e-05,-1.45307e-05,4.36363e-05,1.03765e-05,0
-2.83754e-05,6.88314e-06,9.6351e-08,6.08967e-06,1.96319e-05,-1.45457e-05,4.08454e-05,9.21626e-06,0
-2.83662e-05,1.08111e-05,-9.90712e-07,1.78134e-05,1.91883e-05,-1.44658e-05,3.56573e-05,8.01298e-06,0
-2.86439e-05,1.61107e-05,-1.32669e-06,2.1342e-05,1.86267e-05,-1.57931e-05,3.00238e-05,7.493e-06,0
-2.94351e-05,2.6577e-05,-1.29216e-06,1.87073e-05,1.96864e-05,-1.72591e-05,2.58647e-05,7.10579e-06,0
-2.971e-05,4.18909e-05,-3.16392e-07,1.65524e-05,2.12495e-05,-1.72414e-05,2.50801e-05,6.38695e-06,0
-2.8766e-05,5.46994e-05,1.9179e-06,1.78501e-05,2.05936e-05,-1.62307e-05,2.66047e-05,5.15106e-06,0
-2.76652e-05,5.7767e-05,3.94482e-06,2.08707e-05,1.88853e-05,-1.55578e-05,2.79976e-05,3.86105e-06,0
-2.7842e-05,5.06351e-05,4.36543e-06,2.39639e-05,1.92109e-05,-1.49608e-05,2.69653e-05,2.71324e-06,0
-2.88591e-05,3.81677e-05,3.3363e-06,2.42986e-05,2.10456e-05,-1.49223e-05,2.27398e-05,1.73318e-06,0
-2.93037e-05,2.27483e-05,2.16804e-06,1.89447e-05,2.0669e-05,-1.48084e-05,1.7033e-05,1.70344e-06,0
-2.75726e-05,7.38745e-06,1.56232e-06,7.90755e-06,1.86262e-05,-1.42043e-05,1.31179e-05,1.92803e-06,0
-2.53445e-05,-2.2603e-06,2.04112e-06,-5.032e-06,1.82372e-05,-1.35718e-05,1.14872e-05,1.10653e-06,0
-2.53904e-05,2.70809e-06,2.18594e-06,-1.58799e-05,1.88794e-05,-1.31992e-05,1.04477e-05,-1.54145e-06,0
-2.68359e-05,2.07629e-05,1.09427e-06,-2.49462e-05,1.88679e-05,-1.25577e-05,8.85355e-06,-4.49598e-06,0
-2.76496e-05,3.49951e-05,-1.57775e-06,-3.36314e-05,1.72529e-05,-1.15881e-05,6.67457e-06,-5.60881e-06,0
-2.77304e-05,3.27994e-05,-4.44395e-06,-4.14296e-05,1.567e-05,-1.21676e-05,5.25289e-06,-5.18878e-06,0
-2.71223e-05,1.60491e-05,-6.4076e-06,-4.54282e-05,1.48795e-05,-1.41251e-05,6.25286e-06,-6.41789e-06,0
-2.69423e-05,-4.62962e-06,-7.45052e-06,-4.09336e-05,1.31029e-05,-1.57023e-05,7.70504e-06,-9.61749e-06,0
-2.75962e-05,-2.25283e-05,-9.11494e-06,-3.02881e-05,1.19205e-05,-1.56958e-05,7.69216e-06,-1.07912e-05,0
-2.7968e-05,-3.16661e-05,-1.02711e-05,-2.12007e-05,1.42803e-05,-1.34603e-05,9.20041e-06,-1.01949e-05,0
-2.64154e-05,-2.64869e-05,-9.20951e-06,-1.4866e-05,1.82163e-05,-1.18307e-05,1.2389e-05,-1.00214e-05,0
-2.43229e-05,-8.37333e-06,-8.05907e-06,-1.10377e-05,1.87269e-05,-1.15841e-05,1.58945e-05,-1.21343e-05,0
-2.47913e-05,7.32734e-06,-6.07176e-06,-1.1031e-05,1.72557e-05,-1.22112e-05,1.77652e-05,-1.3823e-05,0
-2.58412e-05,1.27789e-05,-2.8306e-06,-1.51679e-05,1.79095e-05,-1.21696e-05,1.68858e-05,-1.29413e-05,0
-2.66795e-05,1.0617e-05,1.48859e-06,-1.96471e-05,2.03536e-05,-1.19134e-05,1.55502e-05,-9.6817e-06,0
-2.71491e-05,-2.72438e-06,7.51248e-06,-1.98806e-05,2.15744e-05,-1.36528e-05,1.32733e-05,-7.35504e-06,0
-2.76842e-05,-1.99068e-05,1.63914e-05,-1.45949e-05,1.95948e-05,-1.50241e-05,9.65261e-06,-8.79303e-06,0
-2.91354e-05,-3.09615e-05,2.87864e-05,-6.69497e-06,1.62456e-05,-1.55501e-05,7.47874e-06,-1.03749e-05,0
-2.98793e-05,-3.71378e-05,4.15326e-05,-2.26332e-06,1.3178e-05,-1.5897e-05,7.87783e-06,-9.555e-06,0
-3.01478e-05,-4.4854e-05,4.77573e-05,-1.14297e-06,1.12183e-05,-1.63625e-05,8.83002e-06,-7.25434e-06,0
-3.1349e-05,-5.11881e-05,4.06346e-05,4.94601e-07,1.01281e-05,-1.58512e-05,8.13774e-06,-6.7744e-06,0
-3.24377e-05,-4.95646e-05,1.82461e-05,3.25978e-06,1.05531e-05,-1.44905e-05,6.64228e-06,-8.03829e-06,0
-3.25703e-05,-4.24502e-05,-1.59819e-05,5.49198e-06,1.23718e-05,-1.38964e-05,5.18791e-06,-8.38776e-06,0
-3.30132e-05,-3.52806e-05,-5.34037e-05,6.70786e-06,1.35431e-05,-1.42697e-05,4.38711e-06,-6.6032e-06,0
-3.44384e-05,-2.93427e-05,-8.13983e-05,6.89323e-06,1.27162e-05,-1.35844e-05,4.3025e-06,-5.17769e-06,0
-3.60257e-05,-2.24001e-05,-8.95191e-05,5.28168e-06,1.08819e-05,-1.17703e-05,4.13787e-06,-5.07543e-06,0
-3.72315e-05,-1.38332e-05,-8.0065e-05,1.69007e-06,1.06263e-05,-1.09575e-05,3.59076e-06,-5.07946e-06,0
-3.80939e-05,-5.41081e-06,-6.5876e-05,-2.51542e-06,1.18182e-05,-1.09271e-05,2.45453e-06,-4.88885e-06,0
-3.82065e-05,2.25068e-06,-5.39109e-05,-3.37004e-06,1.37852e-05,-1.0331e-05,1.7828e-06,-5.39047e-06,0
-3.75344e-05,1.37957e-05,-4.3095e-05,2.3314e-06,1.6765e-05,-9.17174e-06,3.60974e-06,-6.26118e-06,0
-3.53609e-05,3.66184e-05,-3.25107e-05,1.24682e-05,2.03067e-05,-8.22213e-06,8.31829e-06,-5.72641e-06,0
-3.18454e-05,6.91339e-05,-2.43203e-05,1.97659e-05,2.31019e-05,-7.29466e-06,1.18657e-05,-5.98944e-06,0
-2.86443e-05,9.42596e-05,-2.04642e-05,1.97063e-05,2.5448e-05,-7.15579e-06,1.21154e-05,-6.08718e-06,0
-2.73224e-05,0.000103819,-1.92286e-05,1.35099e-05,2.66891e-05,-6.99254e-06,1.19176e-05,-5.43657e-06,0
-2.8703e-05,0.000100982,-1.6953e-05,7.11223e-06,2.48459e-05,-8.11123e-06,1.1265e-05,-6.13928e-06,0
-3.03857e-05,8.92598e-05,-1.27277e-05,5.03756e-06,2.07272e-05,-1.0373e-05,9.94135e-06,-5.74591e-06,0
-2.95984e-05,7.11623e-05,-7.95026e-06,4.61699e-06,1.82271e-05,-9.50432e-06,7.84917e-06,-4.32109e-06,0
-2.69425e-05,4.16933e-05,-3.20121e-06,2.63187e-06,1.8199e-05,-7.70508e-06,4.88862e-06,-2.91754e-06,0
-2.6017e-05,-7.0335e-06,3.45761e-07,-2.39336e-06,1.75439e-05,-6.376e-06,2.41184e-06,-1.85489e-06,0
-2.79105e-05,-5.94017e-05,2.53286e-06,-9.86019e-06,1.58286e-05,-5.32034e-06,1.97509e-06,-2.33232e-06,0
-2.93959e-05,-8.93276e-05,5.70446e-06,-1.48557e-05,1.46235e-05,-5.56092e-06,2.8035e-06,-3.35101e-06,0
-3.08556e-05,-9.64879e-05,1.27849e-05,-1.48475e-05,1.35687e-05,-5.59908e-06,7.51404e-07,-3.23308e-06,0
-3.256e-05,-8.67719e-05,2.52332e-05,-1.44158e-05,1.18662e-05,-5.53969e-06,-2.33619e-06,-2.60908e-06,0
-3.2344e-05,-6.29242e-05,4.10708e-05,-1.63713e-05,9.65977e-06,-5.45285e-06,-2.50337e-06,-2.55619e-06,0
-3.12301e-05,-3.33508e-05,5.45499e-05,-1.84841e-05,7.80481e-06,-6.09543e-06,6.50993e-11,-2.4865e-06,0
-3.11652e-05,-9.70815e-06,5.74877e-05,-1.84285e-05,6.4466e-06,-8.80273e-06,2.57775e-06,-1.78295e-06,0
-3.23654e-05,4.26473e-06,4.5062e-05,-1.65835e-05,5.84166e-06,-1.19826e-05,3.78112e-06,-4.66868e-07,0
-3.38071e-05,1.17024e-05,1.87684e-05,-1.35367e-05,7.22969e-06,-1.29217e-05,4.10493e-06,1.11335e-07,0
-3.44182e-05,1.69932e-05,-1.41617e-05,-9.83271e-06,9.5327e-06,-1.19014e-05,5.56356e-06,5.21887e-07,0
-3.3457e-05,2.16631e-05,-4.32617e-05,-5.77703e-06,1.05849e-05,-1.04995e-05,7.61617e-06,1.2119e-06,0
-3.20192e-05,2.48677e-05,-6.17653e-05,-1.07784e-06,1.12737e-05,-9.50245e-06,8.32367e-06,2.42077e-06,0
-3.07942e-05,2.83575e-05,-6.81721e-05,3.42162e-06,1.30605e-05,-9.77078e-06,7.32686e-06,3.47629e-06,0
-2.99535e-05,3.26366e-05,-6.28569e-05,6.21361e-06,1.38062e-05,-1.12221e-05,5.52526e-06,3.27651e-06,0
-3.03568e-05,3.616e-05,-4.92247e-05,6.22411e-06,1.29357e-05,-1.16127e-05,5.73995e-06,1.93202e-06,0
-3.17116e-05,3.64368e-05,-3.3912e-05,4.31127e-06,1.13577e-05,-1.09327e-05,8.72405e-06,-1.69353e-07,0
-3.22269e-05,3.28477e-05,-2.20585e-05,1.34653e-06,9.35086e-06,-1.17092e-05,1.1464e-05,-1.6175e-06,0
-3.12313e-05,2.70779e-05,-1.43869e-05,1.50832e-06,7.19797e-06,-1.3113e-05,1.27849e-05,-7.07761e-07,0
-3.12605e-05,2.39651e-05,-1.00269e-05,6.62196e-06,4.45246e-06,-1.29659e-05,1.33591e-05,1.86725e-06,0
-3.17684e-05,2.57578e-05,-8.85864e-06,1.52864e-05,2.58079e-06,-1.19407e-05,1.31631e-05,4.13389e-06,0
-3.12442e-05,2.86077e-05,-8.77845e-06,2.24315e-05,4.39831e-06,-1.15985e-05,1.30355e-05,4.25481e-06,0
-3.02395e-05,2.93304e-05,-7.4569e-06,1.95765e-05,9.61616e-06,-1.04763e-05,1.18846e-05,3.29965e-06,0
-2.77878e-05,2.80871e-05,-5.71047e-06,6.81064e-06,1.2059e-05,-8.2048e-06,1.05811e-05,4.05826e-06,0
-2.63492e-05,2.61837e-05,-4.95324e-06,-4.87741e-06,9.3416e-06,-5.44257e-06,9.81562e-06,5.03875e-06,0
-2.7037e-05,2.63587e-05,-5.5792e-06,-8.45785e-06,7.24962e-06,-4.14117e-06,1.16563e-05,6.23106e-06,0
-2.78054e-05,3.09125e-05,-7.39513e-06,-9.63739e-06,7.07406e-06,-3.49485e-06,1.4491e-05,7.70235e-06,0
-2.97596e-05,3.93926e-05,-8.77431e-06,-1.41037e-05,8.36577e-06,-2.15208e-06,1.59316e-05,8.00695e-06,0
-3.16774e-05,4.71382e-05,-8.54737e-06,-2.28459e-05,1.16995e-05,-1.33319e-06,1.77572e-05,8.46637e-06,0
-3.15314e-05,5.12712e-05,-7.64727e-06,-2.61037e-05,1.65048e-05,9.71851e-08,1.78185e-05,9.52029e-06,0
-3.04131e-05,4.82682e-05,-7.00072e-06,-1.89097e-05,2.3106e-05,4.99635e-07,1.63222e-05,8.35419e-06,0
-2.90221e-05,3.78689e-05,-6.04704e-06,-9.42614e-06,2.69248e-05,-2.35177e-07,1.63987e-05,6.10472e-06,0
-2.79912e-05,2.55473e-05,-5.16945e-06,-3.92924e-06,2.51173e-05,-1.47091e-06,1.88348e-05,5.89129e-06,0
-2.80282e-05,1.56152e-05,-4.87448e-06,-3.94979e-06,2.14289e-05,-2.43905e-06,2.07349e-05,7.54541e-06,0
-2.78347e-05,9.68185e-06,-4.70661e-06,-5.94965e-06,1.93909e-05,-2.98759e-06,2.25853e-05,8.49533e-06,0
-2.60602e-05,7.66849e-06,-3.83393e-06,-5.6234e-06,1.95026e-05,-3.49919e-06,2.64703e-05,8.09539e-06,0
-2.42048e-05,9.75648e-06,-2.20448e-06,-2.96003e-06,2.02178e-05,-3.55675e-06,3.05595e-05,8.53414e-06,0
-2.41509e-05,1.41462e-05,-9.66943e-07,-2.40078e-06,2.06435e-05,-2.52006e-06,3.33283e-05,1.03299e-05,0
-2.56838e-05,1.82415e-05,-6.09338e-07,-5.41087e-06,2.03707e-05,-8.57941e-07,3.49627e-05,1.091e-05,0
-2.78847e-05,2.0703e-05,-1.13173e-06,-9.80752e-06,1.95393e-05,-4.12505e-07,3.44787e-05,8.90801e-06,0
-3.00625e-05,2.22535e-05,-2.52151e-06,-1.26479e-05,1.94709e-05,-1.30415e-06,2.96996e-05,6.53394e-06,0
-3.18737e-05,2.29256e-05,-4.61933e-06,-1.32172e-05,2.17949e-05,-2.9771e-06,2.13691e-05,4.88379e-06,0
-3.38034e-05,2.29818e-05,-5.57824e-06,-1.18762e-05,2.46064e-05,-4.21262e-06,1.39961e-05,4.62561e-06,0
-3.55721e-05,2.2617e-05,-5.53886e-06,-1.07259e-05,2.48459e-05,-6.61078e-06,1.16705e-05,5.29473e-06,0
-3.63812e-05,2.22905e-05,-5.76195e-06,-1.2093e-05,2.36774e-05,-9.9113e-06,1.39915e-05,5.97857e-06,0
-3.57597e-05,2.09676e-05,-6.16104e-06,-1.45076e-05,2.30934e-05,-1.23319e-05,1.76917e-05,6.73305e-06,0
-3.4443e-05,1.96435e-05,-7.31172e-06,-1.61858e-05,2.27512e-05,-1.38864e-05,1.85249e-05,6.35273e-06,0
-3.42119e-05,2.04799e-05,-8.26227e-06,-1.65537e-05,2.27106e-05,-1.33958e-05,1.70608e-05,4.61124e-06,0
-3.41199e-05,2.16686e-05,-8.79049e-06,-1.50345e-05,2.24734e-05,-1.16622e-05,1.74573e-05,3.27537e-06,0
-3.23924e-05,2.26031e-05,-8.70666e-06,-1.18208e-05,2.09765e-05,-1.26064e-05,1.8308e-05,3.25633e-06,0
-2.96904e-05,2.37893e-05,-6.33972e-06,-7.80013e-06,1.83096e-05,-1.54189e-05,1.28884e-05,4.75251e-06,0
-2.75653e-05,2.25792e-05,-4.58456e-06,-6.39116e-06,1.60986e-05,-1.83662e-05,-7.10207e-06,5.32949e-06,0
-2.63279e-05,1.93789e-05,-4.95095e-06,-6.96279e-06,1.47352e-05,-2.00674e-05,-3.29116e-05,5.33394e-06,0
-2.64053e-05,1.95896e-05,-4.00208e-06,-6.89924e-06,1.26877e-05,-1.99591e-05,-4.42504e-05,5.31414e-06,0
-2.75721e-05,2.29676e-05,-2.58301e-06,-6.13868e-06,1.17421e-05,-1.87823e-05,-3.24056e-05,4.33471e-06,0
-2.76911e-05,2.46466e-05,-2.69426e-06,-5.44827e-06,1.20106e-05,-1.69885e-05,-4.50227e-06,3.59269e-06,0
-2.65408e-05,2.52306e-05,-3.68262e-06,-5.86519e-06,1.37073e-05,-1.56302e-05,2.11949e-05,3.19655e-06,0
-2.62855e-05,2.55587e-05,-4.8392e-06,-3.28706e-06,1.59796e-05,-1.34756e-05,3.63216e-05,3.52778e-06,0
-2.67304e-05,2.34797e-05,-4.84005e-06,5.43896e-07,1.72413e-05,-1.21902e-05,4.29779e-05,3.2123e-06,0
-2.8234e-05,1.89474e-05,-3.38446e-06,2.9017e-06,1.74903e-05,-1.20995e-05,4.35373e-05,2.67727e-06,0
-3.12177e-05,1.49516e-05,-2.5638e-06,3.87225e-06,1.68389e-05,-1.21641e-05,3.91748e-05,2.02087e-06,0
-3.30575e-05,1.37233e-05,-2.72588e-06,3.41352e-06,1.59472e-05,-1.09586e-05,3.57745e-05,2.11764e-06,0
-3.22319e-05,1.55202e-05,-1.08727e-06,5.65537e-07,1.49632e-05,-9.05401e-06,4.24123e-05,3.34689e-06,0
-3.09248e-05,1.67589e-05,1.91234e-06,-3.21646e-06,1.45032e-05,-9.14795e-06,5.98518e-05,4.47957e-06,0
-3.06649e-05,1.35412e-05,3.59546e-06,-4.20159e-06,1.4127e-05,-1.16213e-05,7.97479e-05,4.5136e-06,0
-3.0933e-05,7.63199e-06,2.67564e-06,-2.75151e-06,1.46272e-05,-1.50739e-05,9.26945e-05,2.44108e-06,0
-3.21789e-05,4.72394e-06,2.24936e-07,-1.286e-06,1.65831e-05,-1.66853e-05,9.45228e-05,2.13008e-07,0
-3.34283e-05,8.59167e-06,-1.62096e-06,-1.8154e-06,1.8816e-05,-1.57401e-05,8.54129e-05,3.66504e-07,0
-3.34438e-05,1.4368e-05,-1.91129e-06,-5.02318e-06,1.96681e-05,-1.33385e-05,7.03968e-05,2.33683e-06,0
-3.23442e-05,1.64672e-05,-7.76848e-07,-9.02354e-06,1.88906e-05,-1.07161e-05,5.33421e-05,3.45616e-06,0
-3.17471e-05,1.56577e-05,1.80006e-07,-9.56487e-06,1.8135e-05,-8.36904e-06,3.21869e-05,4.62569e-06,0
-3.18266e-05,1.56979e-05,-9.75695e-07,-5.9754e-06,1.85771e-05,-6.90019e-06,3.85444e-06,5.59547e-06,0
-3.16092e-05,1.6397e-05,-3.25733e-06,4.74831e-07,1.69582e-05,-6.26458e-06,-2.84319e-05,5.11329e-06,0
-3.14215e-05,1.66669e-05,-4.63247e-06,7.75035e-06,1.29829e-05,-5.58497e-06,-5.68294e-05,3.71786e-06,0
-3.05799e-05,1.70585e-05,-5.15814e-06,1.37239e-05,9.05601e-06,-4.6385e-06,-7.57378e-05,2.56537e-06,0
-2.82914e-05,2.13283e-05,-4.34786e-06,1.61936e-05,7.122e-06,-3.40381e-06,-8.21093e-05,2.18156e-06,0
-2.69976e-05,3.11599e-05,-2.70587e-06,1.26556e-05,7.5644e-06,-2.20165e-06,-7.60208e-05,2.86466e-06,0
-2.80987e-05,4.31271e-05,-4.0788e-06,5.50557e-06,7.81173e-06,-2.55388e-06,-6.40512e-05,3.93741e-06,0
-2.95429e-05,5.17986e-05,-7.64359e-06,2.39358e-06,9.19944e-06,-4.17137e-06,-5.1687e-05,3.68549e-06,0
-3.03561e-05,5.15694e-05,-9.85473e-06,-2.20249e-07,8.89375e-06,-5.28764e-06,-3.99498e-05,2.70456e-06,0
-3.11892e-05,4.42912e-05,-1.18617e-05,-4.26081e-06,6.60577e-06,-4.53948e-06,-2.97503e-05,2.47638e-06,0
-3.16517e-05,3.45138e-05,-1.32009e-05,-6.3127e-06,6.31977e-06,-3.63979e-06,-2.17823e-05,1.88385e-06,0
-3.22475e-05,2.44695e-05,-1.46114e-05,-7.85638e-06,6.50405e-06,-4.19848e-06,-1.73135e-05,-9.27077e-08,0
-3.16223e-05,1.53172e-05,-1.6096e-05,-8.93135e-06,6.74257e-06,-5.2818e-06,-1.6345e-05,-2.94831e-06,0
-2.93752e-05,6.21633e-06,-1.64447e-05,-1.0246e-05,6.52558e-06,-6.23351e-06,-1.48385e-05,-5.58782e-06,0
-2.73604e-05,-2.63074e-06,-1.58966e-05,-1.17494e-05,4.7858e-06,-6.18268e-06,-1.06252e-05,-6.83311e-06,0
-2.62644e-05,-1.17745e-05,-1.54168e-05,-1.36869e-05,2.26916e-06,-5.16514e-06,-7.61079e-06,-7.07494e-06,0
-2.77128e-05,-2.08797e-05,-1.55368e-05,-1.41168e-05,8.33857e-08,-4.34846e-06,-1.03379e-05,-6.28669e-06,0
-2.94058e-05,-2.67874e-05,-1.59857e-05,-1.0622e-05,-2.27851e-06,-5.0473e-06,-1.53196e-05,-5.4067e-06,0
-2.96705e-05,-2.74122e-05,-1.50319e-05,-4.01244e-06,-4.95417e-06,-7.65694e-06,-1.44118e-05,-4.11438e-06,0
-2.89852e-05,-2.23792e-05,-1.07681e-05,1.01637e-06,-5.52444e-06,-1.01353e-05,-4.70733e-06,-1.69225e-06,0
-2.83201e-05,-1.297e-05,-4.72816e-06,1.42519e-06,-3.86726e-06,-9.97665e-06,1.06851e-05,7.78948e-07,0
-2.88656e-05,-3.06138e-06,-6.6258e-07,-1.39048e-06,-1.98272e-06,-9.3959e-06,2.59706e-05,2.1629e-06,0
-3.04639e-05,2.42567e-06,-2.70602e-06,-3.27187e-06,-5.49117e-07,-1.07346e-05,3.55955e-05,2.50592e-06,0
-3.09939e-05,2.37503e-06,-1.00901e-05,-3.29778e-06,8.61331e-07,-1.19914e-05,3.46355e-05,2.02822e-06,0
-2.95279e-05,-3.63338e-07,-1.96506e-05,-5.16859e-06,2.17816e-06,-1.07361e-05,2.40691e-05,2.30713e-07,0
-2.83282e-05,-1.68434e-06,-2.78881e-05,-9.53635e-06,2.1601e-06,-7.96457e-06,1.18465e-05,-1.54029e-06,0
-2.93216e-05,-1.88794e-06,-3.14846e-05,-1.39412e-05,1.48306e-06,-6.37091e-06,4.91369e-06,-1.40029e-06,0
-3.13397e-05,-3.02746e-06,-2.88875e-05,-1.82244e-05,1.55407e-06,-7.89383e-06,4.22503e-06,-4.33802e-07,0
-3.10654e-05,-4.88524e-06,-2.35433e-05,-2.13976e-05,1.6678e-06,-1.11271e-05,9.22176e-06,-4.69769e-07,0
-2.96011e-05,-6.11427e-06,-1.95112e-05,-2.27247e-05,1.64632e-06,-1.2373e-05,1.73826e-05,3.62062e-07,0
-2.82822e-05,-5.92715e-06,-1.8592e-05,-2.4398e-05,-1.25886e-07,-1.00382e-05,2.31923e-05,2.68007e-06,0
-2.8428e-05,-5.08891e-06,-1.98547e-05,-2.38535e-05,-2.29557e-06,-8.14776e-06,2.68702e-05,3.59184e-06,0
-3.11028e-05,-2.25672e-06,-2.04805e-05,-2.08933e-05,-7.5357e-07,-9.92494e-06,3.15738e-05,3.47066e-06,0
-3.05717e-05,3.12434e-06,-1.94234e-05,-2.00463e-05,1.44533e-06,-1.1413e-05,3.53529e-05,2.77792e-06,0
-2.61257e-05,7.80103e-06,-1.7307e-05,-2.03655e-05,2.89427e-06,-9.98211e-06,3.63124e-05,1.08269e-06,0
-2.38464e-05,1.00359e-05,-1.4154e-05,-1.84303e-05,5.77202e-06,-8.63873e-06,3.4115e-05,1.24814e-06,0
-2.4868e-05,9.52806e-06,-7.82671e-06,-1.23177e-05,7.35834e-06,-9.42161e-06,3.25543e-05,4.21135e-06,0
-2.76004e-05,7.7966e-06,1.07274e-06,-4.77562e-06,7.75341e-06,-1.10411e-05,3.28051e-05,4.89992e-06,0
-2.92313e-05,4.68381e-06,1.32483e-05,-8.46937e-07,8.7931e-06,-1.30589e-05,3.35977e-05,1.75779e-06,0
-2.8903e-05,1.41137e-06,3.22126e-05,-5.10505e-08,1.00929e-05,-1.39531e-05,3.53336e-05,-4.13863e-07,0
-2.90933e-05,2.20057e-07,5.65035e-05,1.80679e-06,1.2066e-05,-1.31988e-05,3.49383e-05,3.02653e-07,0
-2.95878e-05,1.15146e-06,7.77319e-05,6.93161e-06,1.58153e-05,-1.2471e-05,3.19111e-05,2.38833e-06,0
-2.90054e-05,3.15232e-06,8.58814e-05,9.56283e-06,1.87722e-05,-1.25024e-05,2.79377e-05,3.33611e-06,0
-2.80241e-05,3.08759e-06,7.47753e-05,5.76154e-06,1.77792e-05,-1.2856e-05,2.55483e-05,4.28536e-06,0
-2.74697e-05,6.18982e-07,4.36716e-05,-2.11333e-06,1.40947e-05,-1.30654e-05,2.43535e-05,5.02862e-06,0
-2.66968e-05,-3.36535e-06,-2.1112e-06,-8.52938e-06,9.91046e-06,-1.39047e-05,2.3721e-05,5.11207e-06,0
-2.70138e-05,-6.7379e-06,-5.12174e-05,-9.74732e-06,6.62412e-06,-1.51436e-05,2.32822e-05,5.39559e-06,0
-3.02266e-05,-8.09096e-06,-8.92538e-05,-8.15978e-06,3.72426e-06,-1.62561e-05,2.33251e-05,5.27048e-06,0
-3.38905e-05,-7.35873e-06,-0.000105455,-6.96948e-06,2.11825e-06,-1.73013e-05,2.43423e-05,3.75419e-06,0
-3.41977e-05,-5.3566e-06,-9.9694e-05,-6.14777e-06,1.87801e-06,-1.74381e-05,2.60727e-05,1.58008e-06,0
-3.10205e-05,-3.42422e-06,-8.21014e-05,-4.21419e-06,2.47081e-06,-1.62353e-05,2.68103e-05,-2.3921e-08,0
-2.86895e-05,-5.07916e-06,-6.53599e-05,-1.806e-06,4.09767e-06,-1.51641e-05,2.4519e-05,-9.88659e-07,0
-2.96093e-05,-1.08639e-05,-5.50028e-05,-9.37815e-07,6.13402e-06,-1.60675e-05,2.11993e-05,-6.55098e-07,0
-3.12532e-05,-1.32637e-05,-4.69683e-05,-1.59705e-06,7.92477e-06,-1.84206e-05,1.97588e-05,6.04799e-08,0
-3.18672e-05,-7.88915e-06,-3.58774e-05,-1.01956e-06,1.05876e-05,-1.95788e-05,2.05895e-05,6.18488e-07,0
-3.25712e-05,2.34526e-07,-2.3805e-05,9.71457e-07,1.51433e-05,-1.73816e-05,2.1598e-05,-4.63958e-07,0
-3.2613e-05,6.51144e-06,-1.27013e-05,1.42541e-06,2.01651e-05,-1.31679e-05,2.19604e-05,-1.5128e-06,0
-3.29859e-05,1.10403e-05,-2.84788e-06,-2.49929e-06,2.41429e-05,-1.13997e-05,2.12279e-05,-1.80803e-07,0
-3.32814e-05,1.51299e-05,2.8231e-06,-8.05512e-06,2.44965e-05,-1.24665e-05,1.90047e-05,1.33669e-06,0
-3.07134e-05,1.98246e-05,2.38574e-06,-1.21079e-05,2.22764e-05,-1.3782e-05,1.50523e-05,1.48819e-06,0
-2.93165e-05,2.70177e-05,-2.26158e-06,-1.12302e-05,2.17853e-05,-1.44451e-05,1.25275e-05,6.03147e-07,0
-2.95859e-05,4.66176e-05,-6.84067e-06,-5.30711e-06,1.97186e-05,-1.37789e-05,1.22875e-05,-1.85498e-06,0
-2.92491e-05,7.49143e-05,-9.88235e-06,1.09219e-06,1.6866e-05,-1.13206e-05,1.06588e-05,-4.13715e-06,0
-2.87428e-05,9.91088e-05,-9.10068e-06,6.65046e-06,1.62087e-05,-8.21505e-06,5.53199e-06,-5.07019e-06,0
-2.76857e-05,0.000114866,-6.91081e-06,9.43855e-06,1.58351e-05,-6.23239e-06,-2.59127e-08,-3.88187e-06,0
-2.56109e-05,0.000115306,-6.8921e-06,1.03316e-05,1.63485e-05,-5.09671e-06,-1.66502e-06,-2.78457e-06,0
-2.39053e-05,9.62625e-05,-7.89003e-06,1.1231e-05,1.7742e-05,-4.65862e-06,4.0967e-07,-4.60252e-06,0
-2.53631e-05,6.15777e-05,-6.32391e-06,1.09308e-05,2.01242e-05,-4.33037e-06,5.77868e-06,-6.56477e-06,0
-2.76198e-05,2.49714e-05,-2.03075e-06,8.6925e-06,2.14476e-05,-3.99812e-06,1.45204e-05,-7.4337e-06,0
-2.81842e-05,-2.00666e-06,1.65689e-06,3.54201e-06,2.17472e-05,-3.43639e-06,2.28844e-05,-7.36672e-06,0
-2.81144e-05,-8.77423e-06,4.2303e-06,-6.53461e-06,2.13249e-05,-3.07083e-06,2.5048e-05,-7.30144e-06,0
-2.81195e-05,2.53695e-06,5.92985e-06,-2.00073e-05,2.09648e-05,-4.35918e-06,2.09366e-05,-7.76474e-06,0
-2.81785e-05,1.57344e-05,6.48625e-06,-3.20952e-05,2.15709e-05,-6.31662e-06,1.51842e-05,-8.01222e-06,0
-2.92096e-05,1.99018e-05,4.74517e-06,-3.89452e-05,2.20824e-05,-7.02964e-06,1.1172e-05,-6.67568e-06,0
-3.1905e-05,1.48846e-05,2.36932e-06,-3.82007e-05,2.05423e-05,-6.89817e-06,9.62265e-06,-4.54747e-06,0
-3.50768e-05,8.81506e-06,2.96358e-07,-2.75237e-05,1.74294e-05,-7.75571e-06,1.00701e-05,-3.477e-06,0
-3.64337e-05,4.9518e-06,-1.89079e-06,-9.61994e-06,1.60864e-05,-8.62432e-06,9.93177e-06,-2.59839e-06,0
-3.56482e-05,-1.13768e-06,-4.04102e-06,7.84759e-06,1.70601e-05,-8.32423e-06,7.82993e-06,-3.58146e-07,0
-3.53919e-05,-2.01089e-05,-4.87298e-06,2.11342e-05,1.7842e-05,-8.06207e-06,6.28898e-06,1.62683e-06,0
-3.68818e-05,-5.49685e-05,-5.21375e-06,3.06218e-05,1.45712e-05,-7.98328e-06,7.73394e-06,2.01946e-06,0
-3.91449e-05,-9.47223e-05,-6.87627e-06,3.61738e-05,8.88983e-06,-8.11842e-06,1.03984e-05,1.41212e-06,0
-4.0244e-05,-0.000118087,-9.10448e-06,3.668e-05,5.43518e-06,-9.53786e-06,1.04899e-05,4.72375e-07,0
-3.98823e-05,-0.000112497,-9.55338e-06,3.27885e-05,5.5863e-06,-1.02451e-05,9.11648e-06,-3.53447e-08,0
-3.901e-05,-8.46975e-05,-8.44064e-06,2.90666e-05,5.13077e-06,-9.8722e-06,8.96402e-06,-3.63863e-07,0
-3.7076e-05,-5.15417e-05,-6.78034e-06,2.6573e-05,3.36901e-06,-8.04479e-06,9.95887e-06,3.14253e-07,0
-3.33836e-05,-2.57058e-05,-4.12637e-06,2.06759e-05,4.67573e-06,-5.22965e-06,1.06067e-05,6.55061e-07,0
-2.99129e-05,-8.89248e-06,-1.46021e-06,9.947e-06,7.78941e-06,-2.41793e-06,1.02781e-05,-2.48492e-06,0
-2.87511e-05,1.8138e-06,1.08485e-07,-3.0816e-06,1.01124e-05,-5.06625e-07,1.15205e-05,-6.34998e-06,0
-2.8829e-05,1.01956e-05,4.15838e-08,-1.39194e-05,1.16991e-05,-8.03639e-07,1.26814e-05,-7.50622e-06,0
-2.99815e-05,1.90332e-05,-3.87199e-07,-1.86107e-05,1.29529e-05,-2.1859e-06,1.2226e-05,-5.95033e-06,0
-3.19342e-05,2.80634e-05,-1.23853e-06,-1.72642e-05,1.31274e-05,-5.2051e-06,1.28879e-05,-4.33207e-06,0
-3.29157e-05,3.41994e-05,-2.14031e-06,-1.03082e-05,1.21443e-05,-7.45728e-06,1.38077e-05,-3.58595e-06,0
-3.15773e-05,3.48485e-05,-2.47002e-06,-2.06199e-06,1.18094e-05,-7.89213e-06,1.48875e-05,-2.21095e-06,0
-2.95299e-05,3.10274e-05,-1.30572e-06,3.58696e-07,1.18431e-05,-6.67756e-06,1.50292e-05,-1.03029e-06,0
-2.94533e-05,2.63269e-05,2.014e-07,-1.44954e-06,1.26029e-05,-5.54944e-06,1.38225e-05,9.13401e-07,0
-2.9722e-05,2.297e-05,6.36372e-07,-4.43692e-06,1.33273e-05,-6.44977e-06,1.17051e-05,2.73608e-06,0
-2.93519e-05,2.02252e-05,1.66269e-06,-6.33453e-06,1.43422e-05,-7.46386e-06,8.49471e-06,2.57664e-06,0
-2.91969e-05,2.26525e-05,3.40504e-06,-7.214e-06,1.72917e-05,-7.92312e-06,6.06747e-06,5.25592e-07,0
-2.89205e-05,3.54797e-05,6.07326e-06,-7.93861e-06,2.08131e-05,-8.92588e-06,5.10725e-06,-1.0139e-06,0
-2.83693e-05,5.22364e-05,1.05689e-05,-8.73744e-06,2.28117e-05,-1.20289e-05,4.83915e-06,-7.26292e-07,0
-2.86214e-05,6.38772e-05,1.84087e-05,-8.38038e-06,2.25893e-05,-1.49664e-05,4.72272e-06,7.82932e-07,0
-2.90337e-05,6.61031e-05,2.91208e-05,-6.24351e-06,2.15354e-05,-1.63815e-05,4.72328e-06,2.86853e-06,0
-2.89809e-05,5.90538e-05,3.8543e-05,-4.19966e-06,2.04461e-05,-1.71833e-05,4.01374e-06,3.71415e-06,0
-2.87321e-05,4.98344e-05,4.03565e-05,-3.45554e-06,1.94299e-05,-1.72232e-05,3.82651e-06,3.82564e-06,0
-2.83822e-05,4.78477e-05,2.99598e-05,-4.35477e-06,1.77318e-05,-1.65655e-05,4.88299e-06,4.45365e-06,0
-2.86003e-05,5.21057e-05,8.55337e-06,-4.74953e-06,1.60077e-05,-1.63917e-05,6.01695e-06,4.77831e-06,0
-2.93965e-05,5.64659e-05,-1.70397e-05,-4.10055e-06,1.46248e-05,-1.69309e-05,6.03929e-06,3.48107e-06,0
-2.99283e-05,5.74392e-05,-3.91125e-05,-2.41957e-06,1.31219e-05,-1.77453e-05,5.57171e-06,1.40279e-06,0
-2.99823e-05,5.23244e-05,-5.19215e-05,-2.846e-06,1.27245e-05,-1.87994e-05,7.04861e-06,-4.02806e-07,0
-2.97269e-05,3.81915e-05,-5.26822e-05,-6.00364e-06,1.36296e-05,-2.00611e-05,9.74829e-06,1.49414e-07,0
-2.82483e-05,1.85217e-05,-4.5838e-05,-9.36511e-06,1.34235e-05,-2.04658e-05,1.21589e-05,1.84155e-06,0
-2.66717e-05,1.1645e-06,-3.82872e-05,-1.30491e-05,1.07162e-05,-1.83106e-05,1.39977e-05,2.20594e-06,0
-2.53588e-05,-9.57056e-06,-3.22888e-05,-1.64102e-05,9.11496e-06,-1.57473e-05,1.5672e-05,8.2593e-07,0
-2.47596e-05,-1.78859e-05,-2.62114e-05,-1.93835e-05,1.24643e-05,-1.3582e-05,1.73892e-05,-4.36389e-07,0
-2.55623e-05,-2.40459e-05,-1.90279e-05,-2.29057e-05,1.74162e-05,-1.19528e-05,1.71242e-05,-6.55861e-07,0
-2.75208e-05,-2.19838e-05,-1.25678e-05,-2.27919e-05,2.04985e-05,-1.15509e-05,1.68265e-05,-9.60227e-07,0
-2.94792e-05,-1.28075e-05,-9.30856e-06,-1.99537e-05,2.13909e-05,-1.14697e-05,1.79091e-05,-1.44631e-07,0
-3.07647e-05,-9.99371e-07,-7.46194e-06,-1.91627e-05,1.95936e-05,-1.19933e-05,1.44454e-05,-1.98151e-07,0
-3.31386e-05,6.27616e-06,-5.59807e-06,-1.84916e-05,1.758e-05,-1.3097e-05,-6.11699e-07,-2.07681e-06,0
-3.42508e-05,1.06692e-05,-4.02098e-06,-1.60033e-05,1.78343e-05,-1.29657e-05,-1.92644e-05,-1.94367e-06,0
-3.30415e-05,1.55737e-05,-2.42309e-06,-1.2756e-05,2.06324e-05,-1.10397e-05,-2.46434e-05,4.76702e-07,0
-3.24493e-05,1.81416e-05,-2.69732e-06,-1.04421e-05,2.30952e-05,-1.09764e-05,-1.46228e-05,2.4012e-06,0
-3.31455e-05,1.93661e-05,-4.51996e-06,-9.97817e-06,2.30885e-05,-1.26671e-05,2.132e-06,4.28791e-06,0
-3.36705e-05,2.18214e-05,-7.64432e-06,-1.07999e-05,2.2217e-05,-1.40413e-05,1.7064e-05,4.68286e-06,0
-3.40497e-05,2.52609e-05,-1.24754e-05,-1.24493e-05,2.20516e-05,-1.48613e-05,2.76601e-05,3.54394e-06,0
-3.50383e-05,2.7625e-05,-1.91766e-05,-1.44124e-05,2.2491e-05,-1.57124e-05,3.40583e-05,2.06699e-06,0
-3.54485e-05,2.84472e-05,-2.68514e-05,-1.34464e-05,2.2082e-05,-1.61644e-05,3.54115e-05,1.27557e-06,0
-3.41872e-05,2.91143e-05,-3.15946e-05,-8.88189e-06,2.0354e-05,-1.46058e-05,3.21501e-05,9.81488e-07,0
-3.19731e-05,3.06267e-05,-3.00106e-05,-4.3403e-06,1.82951e-05,-1.16652e-05,2.77167e-05,9.1762e-07,0
-2.98802e-05,3.19049e-05,-2.32193e-05,-3.57691e-06,1.6862e-05,-9.02067e-06,2.37583e-05,1.93385e-06,0
-2.82252e-05,3.20418e-05,-1.6634e-05,-4.77757e-06,1.54916e-05,-7.506e-06,1.79614e-05,3.51357e-06,0
-2.80059e-05,3.07909e-05,-1.36602e-05,-3.37282e-06,1.3416e-05,-7.44728e-06,9.84086e-06,4.47632e-06,0
-2.88697e-05,2.91276e-05,-1.35423e-05,1.08503e-06,1.04639e-05,-8.9357e-06,5.42537e-06,4.21617e-06,0
-2.90304e-05,2.73755e-05,-1.31436e-05,5.357e-06,8.29265e-06,-9.93327e-06,9.80392e-06,3.46277e-06,0
-2.80566e-05,2.2563e-05,-1.06841e-05,7.41183e-06,8.44205e-06,-1.01175e-05,1.83222e-05,2.76704e-06,0
-2.69446e-05,1.05092e-05,-7.0796e-06,6.56396e-06,9.6373e-06,-9.69332e-06,2.40983e-05,3.97991e-06,0
-2.62658e-05,-2.49825e-06,-5.42482e-06,1.92896e-06,9.65805e-06,-9.88086e-06,2.5693e-05,4.53638e-06,0
-2.7524e-05,-5.6465e-06,-7.15587e-06,-4.32743e-06,7.29344e-06,-1.06576e-05,2.37047e-05,3.23317e-06,0
-3.02077e-05,1.63286e-06,-9.366e-06,-9.15877e-06,4.68652e-06,-1.14287e-05,1.72222e-05,3.12879e-06,0
-3.11176e-05,1.45287e-05,-1.06196e-05,-1.50927e-05,2.62328e-06,-1.15551e-05,9.28499e-06,5.02038e-06,0
-3.01803e-05,3.04871e-05,-8.92704e-06,-2.40141e-05,2.13139e-06,-1.06191e-05,6.0616e-06,5.76708e-06,0
-2.94089e-05,4.44535e-05,-4.94047e-06,-3.05489e-05,3.17836e-06,-1.07987e-05,8.69332e-06,6.04847e-06,0
-2.8104e-05,4.80952e-05,-4.08307e-06,-3.17488e-05,3.048e-06,-1.14957e-05,1.13305e-05,7.08519e-06,0
-2.71268e-05,4.10827e-05,-5.41043e-06,-2.75194e-05,4.34098e-06,-1.2694e-05,1.08812e-05,7.49023e-06,0
-2.74101e-05,2.8746e-05,-6.00753e-06,-1.92733e-05,6.25761e-06,-1.33624e-05,8.34603e-06,7.33751e-06,0
-2.81918e-05,1.67111e-05,-6.02716e-06,-1.08916e-05,7.86624e-06,-1.18205e-05,6.01937e-06,5.83106e-06,0
-2.86449e-05,7.32049e-06,-5.7304e-06,-5.97098e-06,1.05568e-05,-9.87363e-06,6.90403e-06,4.75249e-06,0
-2.77228e-05,9.14126e-07,-4.08459e-06,-6.18262e-06,1.21856e-05,-8.95912e-06,9.61607e-06,4.8629e-06,0
-2.78595e-05,-4.79639e-06,-2.20161e-06,-5.70979e-06,1.11685e-05,-9.40716e-06,1.14836e-05,5.31645e-06,0
-2.84906e-05,-1.3238e-05,-2.70534e-06,-2.35245e-06,9.83909e-06,-9.66673e-06,1.26688e-05,5.67534e-06,0
-2.94868e-05,-2.19849e-05,-4.08712e-06,3.06227e-06,1.25839e-05,-9.9694e-06,1.42237e-05,4.54806e-06,0
-3.09678e-05,-2.39027e-05,-5.01147e-06,9.60753e-06,1.6207e-05,-1.07771e-05,1.59621e-05,3.59142e-06,0
-3.27119e-05,-1.80853e-05,-6.46352e-06,1.26378e-05,1.63801e-05,-1.12758e-05,1.67606e-05,3.77398e-06,0
-3.43299e-05,-9.11122e-06,-7.40607e-06,1.05047e-05,1.44842e-05,-1.13943e-05,1.63873e-05,3.50843e-06,0
-3.50337e-05,-2.06463e-06,-8.01357e-06,5.07551e-06,1.41205e-05,-1.06036e-05,1.471e-05,2.49914e-06,0
-3.4764e-05,3.39453e-07,-1.12431e-05,2.80617e-07,1.43046e-05,-9.57765e-06,1.26869e-05,1.28473e-06,0
-3.38408e-05,7.18505e-07,-1.55501e-05,-1.41066e-06,1.23382e-05,-8.90242e-06,1.15645e-05,6.87359e-07,0
-3.3652e-05,2.15217e-06,-1.64517e-05,-5.68726e-07,1.06298e-05,-9.49628e-06,1.14362e-05,1.87849e-06,0
-3.40333e-05,6.25902e-06,-1.28158e-05,-5.04254e-07,1.21099e-05,-1.09753e-05,1.15982e-05,3.87549e-06,0
-3.39379e-05,1.13803e-05,-7.07252e-06,-2.79025e-06,1.56707e-05,-1.13824e-05,1.17673e-05,4.06975e-06,0
-3.24201e-05,1.63179e-05,-2.62093e-06,-5.09073e-06,1.89342e-05,-1.04876e-05,1.24706e-05,3.62695e-06,0
-3.09129e-05,1.87282e-05,-6.13321e-07,-3.61891e-06,2.10896e-05,-1.01041e-05,1.31004e-05,3.9218e-06,0
-3.04658e-05,1.76313e-05,2.37416e-07,-7.13061e-07,2.18338e-05,-1.05577e-05,1.39784e-05,4.50641e-06,0
-3.129e-05,1.78379e-05,3.48151e-06,-1.52796e-06,2.13427e-05,-9.46129e-06,1.50178e-05,4.45163e-06,0
-3.22186e-05,2.05291e-05,1.22654e-05,-4.01293e-06,2.04898e-05,-7.53545e-06,1.58454e-05,3.65309e-06,0
-3.15972e-05,2.25206e-05,2.51899e-05,-3.48711e-06,2.0547e-05,-7.13428e-06,1.57811e-05,2.28877e-06,0
-2.9143e-05,2.36587e-05,4.21506e-05,2.48033e-08,2.16154e-05,-7.58551e-06,1.25063e-05,1.49863e-06,0
-2.67316e-05,2.43656e-05,5.92875e-05,4.43746e-06,2.30759e-05,-8.77792e-06,5.97536e-06,2.06728e-06,0
-2.60912e-05,2.42142e-05,6.3002e-05,8.24745e-06,2.44223e-05,-8.4738e-06,5.02142e-07,3.32615e-06,0
-2.66443e-05,2.15852e-05,4.88223e-05,1.03609e-05,2.74736e-05,-7.15653e-06,-7.24531e-07,4.39623e-06,0
-2.71804e-05,1.66958e-05,2.06834e-05,9.0387e-06,2.91348e-05,-5.7175e-06,-2.13669e-07,5.53852e-06,0
-2.71879e-05,1.21443e-05,-1.42974e-05,4.73265e-06,2.72395e-05,-3.82665e-06,-1.467e-06,6.92904e-06,0
-2.76194e-05,1.16795e-05,-4.19684e-05,-5.16617e-07,2.52504e-05,-2.41353e-06,-3.40727e-06,7.4763e-06,0
-2.83772e-05,1.55644e-05,-5.83983e-05,-6.30544e-06,2.18171e-05,-1.27509e-06,-2.82661e-06,6.38415e-06,0
-2.75904e-05,2.05557e-05,-6.36754e-05,-1.1678e-05,1.71212e-05,-1.03414e-06,2.21923e-06,4.76015e-06,0
-2.74462e-05,2.38142e-05,-5.95366e-05,-1.59745e-05,1.43769e-05,-7.75472e-07,9.22566e-06,4.48239e-06,0
-2.76693e-05,2.43017e-05,-5.0073e-05,-1.78808e-05,1.33062e-05,-1.42885e-06,1.35695e-05,5.16373e-06,0
-2.74579e-05,2.3306e-05,-3.91874e-05,-1.71605e-05,1.38413e-05,-2.37466e-06,1.59983e-05,6.00998e-06,0
-2.91306e-05,2.19741e-05,-2.94334e-05,-1.44689e-05,1.60532e-05,-4.5617e-06,1.7893e-05,5.5445e-06,0
-3.21393e-05,2.09587e-05,-1.95149e-05,-1.02887e-05,1.72705e-05,-8.01916e-06,1.94505e-05,4.02526e-06,0
-3.47114e-05,1.95306e-05,-1.17579e-05,-6.15017e-06,1.6167e-05,-1.0075e-05,2.17671e-05,2.74671e-06,0
-3.53082e-05,1.69019e-05,-8.40667e-06,-3.49913e-06,1.31811e-05,-1.01117e-05,2.47022e-05,2.14821e-06,0
-3.42078e-05,1.34894e-05,-8.86131e-06,-2.31252e-06,1.04892e-05,-9.31184e-06,2.78632e-05,1.01606e-06,0
-3.26209e-05,1.15572e-05,-1.00376e-05,-2.27904e-06,9.90035e-06,-9.43647e-06,3.16808e-05,-1.55024e-06,0
-3.17924e-05,1.15485e-05,-1.13233e-05,-2.81776e-06,1.04715e-05,-1.04475e-05,3.66837e-05,-4.05007e-06,0
-3.2121e-05,1.13992e-05,-1.35212e-05,-3.55544e-06,1.00987e-05,-9.97079e-06,4.13053e-05,-4.71987e-06,0
-3.34058e-05,9.61395e-06,-1.58703e-05,-4.08858e-06,9.15557e-06,-6.54835e-06,4.36367e-05,-4.33753e-06,0
-3.37366e-05,7.11957e-06,-1.63102e-05,-5.06616e-06,9.31913e-06,-2.99281e-06,4.30819e-05,-4.81858e-06,0
-3.34064e-05,5.20243e-06,-1.53822e-05,-6.98512e-06,9.66567e-06,-1.40039e-07,4.12093e-05,-5.68389e-06,0
-3.25305e-05,5.23256e-06,-1.33455e-05,-8.51714e-06,8.75527e-06,1.93996e-06,4.08581e-05,-6.49105e-06,0
-3.08412e-05,7.67603e-06,-1.19379e-05,-1.03491e-05,7.8267e-06,3.12819e-06,4.14903e-05,-6.61502e-06,0
-3.01722e-05,1.21278e-05,-1.03921e-05,-1.18425e-05,7.52512e-06,4.4913e-06,3.94689e-05,-5.60596e-06,0
-2.92237e-05,1.55439e-05,-8.28289e-06,-1.12192e-05,6.66617e-06,5.58149e-06,3.28669e-05,-4.80203e-06,0
-2.77018e-05,1.68522e-05,-8.62259e-06,-9.17843e-06,6.74618e-06,4.76483e-06,2.3087e-05,-4.02682e-06,0
-3.04151e-05,1.55343e-05,-9.90752e-06,-4.84532e-06,8.35738e-06,3.79942e-06,1.4814e-05,-4.27424e-06,0
-3.49908e-05,1.18664e-05,-1.12545e-05,-1.18488e-07,8.46061e-06,4.169e-06,1.14543e-05,-6.18283e-06,0
-3.63579e-05,1.08037e-05,-1.47845e-05,5.09322e-06,7.29094e-06,2.9445e-06,7.89819e-06,-5.96755e-06,0
-3.40962e-05,1.45537e-05,-2.00184e-05,1.06085e-05,9.04921e-06,1.44522e-06,9.21188e-07,-3.8421e-06,0
-3.07964e-05,2.20478e-05,-2.16574e-05,1.23341e-05,1.12938e-05,1.03894e-06,-5.20234e-06,-2.18025e-06,0
-2.96251e-05,2.81007e-05,-1.85393e-05,1.01616e-05,1.05409e-05,5.3244e-07,-9.77084e-06,9.81285e-08,0
-3.01795e-05,2.7535e-05,-1.52221e-05,3.89155e-06,7.73798e-06,2.1868e-07,-1.35339e-05,2.59155e-06,0
-3.1859e-05,2.23212e-05,-1.42424e-05,-1.62896e-06,4.64211e-06,-1.61e-07,-1.46873e-05,3.09684e-06,0
-3.27876e-05,1.94993e-05,-1.29032e-05,-4.57503e-06,2.98523e-06,7.28655e-07,-1.37687e-05,2.51584e-06,0
-3.17195e-05,2.33057e-05,-1.12998e-05,-7.36673e-06,2.76134e-06,2.76636e-06,-1.26951e-05,2.25769e-06,0
-2.89845e-05,3.0939e-05,-9.69493e-06,-8.84763e-06,3.31904e-06,4.2481e-06,-1.21462e-05,2.44711e-06,0
-2.7693e-05,3.4795e-05,-7.56249e-06,-9.37097e-06,3.02382e-06,3.30715e-06,-1.55768e-05,2.52056e-06,0
-2.86927e-05,3.19738e-05,-4.31776e-06,-1.10519e-05,2.28589e-06,1.30054e-06,-2.92575e-05,2.96395e-06,0
-3.05687e-05,2.50447e-05,-1.00647e-06,-1.20707e-05,3.01184e-06,6.72719e-07,-5.67943e-05,3.3262e-06,0
-3.21519e-05,1.67652e-05,4.21105e-07,-9.21197e-06,5.31448e-06,4.13559e-07,-8.97055e-05,2.55138e-06,0
-3.241e-05,9.28825e-06,1.13219e-06,-3.87351e-06,7.94796e-06,-7.81769e-07,-0.000106408,1.52156e-06,0
-3.16104e-05,3.66715e-06,2.38136e-06,8.95216e-07,1.20376e-05,-1.88249e-06,-9.20769e-05,5.06928e-07,0
-3.23162e-05,-1.09935e-06,3.56729e-06,4.74217e-06,1.77306e-05,-1.20362e-06,-5.23889e-05,-5.22495e-07,0
-3.43021e-05,-9.17339e-06,2.8032e-06,7.36615e-06,2.03903e-05,3.75286e-07,-5.71303e-06,-1.19672e-06,0
-3.50782e-05,-2.22314e-05,6.59771e-07,6.90243e-06,1.71831e-05,1.74241e-06,3.32738e-05,-4.08503e-07,0
-3.53789e-05,-3.51699e-05,-1.56415e-06,4.24616e-06,1.08161e-05,1.97172e-06,5.96383e-05,3.84912e-07,0
-3.56187e-05,-4.07155e-05,-2.18474e-06,1.40398e-06,6.05261e-06,8.488e-07,7.45909e-05,7.50517e-07,0
-3.52104e-05,-3.67704e-05,-1.21429e-06,2.32051e-07,5.06768e-06,-1.06949e-06,8.00944e-05,1.81514e-06,0
-3.34506e-05,-2.67912e-05,2.43356e-07,5.06117e-07,6.46332e-06,-1.82347e-06,7.87007e-05,1.63825e-06,0
-3.22881e-05,-1.71466e-05,1.71133e-06,2.15389e-06,7.07475e-06,-2.00173e-06,7.38525e-05,1.90575e-07,0
-3.13537e-05,-1.12953e-05,3.34472e-06,4.12823e-06,5.34208e-06,-1.86907e-06,6.71416e-05,8.04553e-07,0
-3.05175e-05,-7.77745e-06,5.45377e-06,5.14491e-06,3.15314e-06,-1.67894e-06,6.14659e-05,1.6183e-06,0
-3.04342e-05,-4.63326e-06,7.13946e-06,3.61157e-06,2.09462e-06,-3.34048e-06,5.90195e-05,1.69889e-06,0
-3.0209e-05,-2.27178e-06,5.70426e-06,-1.09751e-06,2.34426e-06,-5.78638e-06,5.83058e-05,2.3565e-06,0
-2.93331e-05,-1.66705e-06,-1.70638e-06,-8.34035e-06,2.51047e-06,-7.71125e-06,5.61917e-05,3.0901e-06,0
-2.84048e-05,-2.1737e-06,-1.26055e-05,-1.63987e-05,9.00999e-07,-9.25484e-06,5.01469e-05,2.88446e-06,0
-2.91021e-05,-1.50662e-06,-2.31354e-05,-2.20621e-05,-2.87762e-06,-1.14216e-05,4.14431e-05,6.94333e-07,0
-3.0786e-05,6.45004e-06,-2.89881e-05,-2.41175e-05,-7.45641e-06,-1.35666e-05,3.10375e-05,-1.25785e-06,0
-3.19226e-05,2.61843e-05,-2.63012e-05,-2.16222e-05,-9.40303e-06,-1.40699e-05,1.92312e-05,-2.15328e-06,0
-3.06111e-05,5.49798e-05,-1.97415e-05,-1.74651e-05,-8.21719e-06,-1.25286e-05,7.83577e-06,-2.34552e-06,0
-2.88127e-05,8.04648e-05,-1.45123e-05,-1.4501e-05,-5.05075e-06,-1.09231e-05,-2.05464e-06,-2.36553e-06,0
-2.82214e-05,9.21071e-05,-1.06784e-05,-1.45534e-05,-2.25562e-06,-9.46551e-06,-8.62496e-06,-2.69265e-06,0
-2.83308e-05,8.76301e-05,-7.85696e-06,-1.7701e-05,-5.44241e-07,-8.00656e-06,-1.19898e-05,-3.24191e-06,0
-2.89167e-05,6.99232e-05,-7.54852e-06,-2.07096e-05,7.47104e-07,-6.88734e-06,-1.27948e-05,-2.02823e-06,0
-2.90017e-05,4.15236e-05,-8.14765e-06,-2.1913e-05,2.11231e-06,-7.51625e-06,-9.73463e-06,3.97932e-07,0
-2.85686e-05,8.76933e-06,-7.28065e-06,-2.16905e-05,2.72756e-06,-1.02413e-05,-4.15826e-06,1.81736e-06,0
-2.75302e-05,-1.7655e-05,-5.96646e-06,-2.25876e-05,2.89554e-06,-1.36297e-05,-9.69318e-08,1.15954e-06,0
-2.72853e-05,-3.44665e-05,-6.38763e-06,-2.68387e-05,4.12796e-06,-1.70755e-05,1.8936e-06,-4.82105e-07,0
-2.80492e-05,-4.08785e-05,-8.36265e-06,-3.30011e-05,5.47344e-06,-1.931e-05,4.23737e-06,-1.28735e-06,0
-2.87353e-05,-3.61335e-05,-9.60005e-06,-3.71954e-05,5.91423e-06,-1.97184e-05,6.53418e-06,-1.59888e-06,0
-2.87242e-05,-2.56477e-05,-9.1976e-06,-3.64132e-05,5.2562e-06,-1.83493e-05,6.90955e-06,-2.05887e-06,0
-2.92765e-05,-1.84993e-05,-7.21055e-06,-2.88732e-05,4.71742e-06,-1.62505e-05,7.03084e-06,-2.23629e-06,0
-3.00892e-05,-1.48395e-05,-4.55995e-06,-1.43999e-05,2.83882e-06,-1.47417e-05,8.27348e-06,-8.99466e-07,0
-2.9142e-05,-1.39539e-05,-2.3857e-06,2.92894e-06,5.1525e-07,-1.59306e-05,9.02698e-06,5.50918e-07,0
-2.80449e-05,-1.86884e-05,-2.2477e-06,1.85352e-05,2.5027e-06,-1.82573e-05,9.73813e-06,1.25951e-06,0
-2.7954e-05,-2.47203e-05,-2.75912e-06,3.28643e-05,8.98804e-06,-1.91434e-05,1.1428e-05,8.46864e-07,0
-2.75675e-05,-2.4117e-05,-2.59067e-06,4.69906e-05,1.65525e-05,-1.89996e-05,1.39541e-05,5.3105e-07,0
-2.70259e-05,-1.92574e-05,-2.2253e-06,5.65806e-05,2.30946e-05,-1.91464e-05,1.69281e-05,2.1516e-06,0
-2.70243e-05,-1.66501e-05,-1.2544e-06,5.50938e-05,2.87352e-05,-1.7942e-05,2.02518e-05,4.14597e-06,0
-2.74312e-05,-1.69935e-05,-4.04059e-07,4.51701e-05,3.45307e-05,-1.38135e-05,2.46513e-05,4.65234e-06,0
-2.81322e-05,-1.6176e-05,-2.15371e-06,3.34088e-05,3.69771e-05,-1.20272e-05,2.78396e-05,4.60055e-06,0
-2.93661e-05,-1.29731e-05,-4.01077e-06,2.14484e-05,3.39075e-05,-1.28421e-05,2.77034e-05,4.48973e-06,0
-2.95092e-05,-7.85042e-06,-4.21615e-06,1.21696e-05,2.9517e-05,-1.27847e-05,2.48699e-05,5.40843e-06,0
-2.84398e-05,-3.41469e-06,-4.18705e-06,8.38136e-06,2.80548e-05,-1.27713e-05,2.10175e-05,5.82499e-06,0
-2.95366e-05,-3.57875e-06,-3.97389e-06,7.55432e-06,2.88923e-05,-1.13934e-05,1.74368e-05,5.27285e-06,0
-3.01534e-05,-4.54781e-06,-3.41292e-06,5.74533e-06,2.84959e-05,-1.03883e-05,1.45769e-05,4.39287e-06,0
-2.98521e-05,-1.55536e-06,-3.35228e-06,2.69371e-06,2.70087e-05,-1.12924e-05,1.25032e-05,1.59998e-06,0
-2.88856e-05,6.8949e-06,-3.19826e-06,1.12826e-06,2.66053e-05,-1.23596e-05,9.14444e-06,-1.50621e-06,0
-2.68822e-05,1.55241e-05,-2.4962e-06,4.20021e-07,2.63455e-05,-1.168e-05,7.08092e-06,-3.2976e-06,0
-2.62305e-05,2.30268e-05,-1.7976e-06,-7.68074e-07,2.49376e-05,-9.7994e-06,8.66963e-06,-4.79642e-06,0
-2.70399e-05,3.02145e-05,-1.10503e-06,-1.29799e-06,2.26963e-05,-9.16186e-06,1.16401e-05,-6.42702e-06,0
-2.8763e-05,3.50879e-05,-9.2482e-07,-1.92257e-06,2.09837e-05,-1.00592e-05,1.27374e-05,-5.32623e-06,0
-2.94372e-05,3.63593e-05,7.40269e-07,-2.75339e-06,2.11653e-05,-1.13653e-05,1.03153e-05,-2.55966e-06,0
-2.95957e-05,3.61318e-05,2.15709e-06,-2.70022e-06,2.25758e-05,-1.25314e-05,6.68091e-06,-6.54799e-07,0
-2.95455e-05,3.91803e-05,3.07633e-07,-3.27473e-07,2.39957e-05,-1.40826e-05,5.35347e-06,8.11964e-08,0
-2.89763e-05,4.8962e-05,-4.71757e-06,2.52802e-06,2.35029e-05,-1.49957e-05,7.0541e-06,-1.40721e-07,0
-2.92391e-05,6.74504e-05,-1.01356e-05,2.42215e-06,2.04763e-05,-1.56091e-05,9.0529e-06,-1.94939e-07,0
-3.07647e-05,9.01374e-05,-1.45389e-05,-8.53833e-07,1.60607e-05,-1.62373e-05,8.85299e-06,5.26292e-07,0
-3.12385e-05,0.000109527,-1.83035e-05,-3.46377e-06,1.28147e-05,-1.6227e-05,5.67227e-06,3.45493e-07,0
-2.93485e-05,0.000118262,-2.17925e-05,-3.71347e-06,1.16844e-05,-1.48669e-05,2.31558e-06,-1.50016e-06,0
-2.75189e-05,0.00010753,-2.46198e-05,-4.64152e-06,1.0417e-05,-1.31418e-05,1.00187e-06,-2.71187e-06,0
-2.82394e-05,7.09935e-05,-2.35659e-05,-7.18675e-06,7.33162e-06,-1.26891e-05,1.65577e-06,-2.04816e-06,0
-2.90605e-05,1.77429e-05,-1.80141e-05,-8.79389e-06,4.17689e-06,-1.45791e-05,3.18923e-06,-7.39966e-07,0
-2.84054e-05,-2.84083e-05,-1.18131e-05,-9.24017e-06,2.66016e-06,-1.60127e-05,4.18831e-06,-3.40667e-07,0
-2.85424e-05,-5.0921e-05,-7.25097e-06,-1.15658e-05,3.08204e-06,-1.40055e-05,4.53346e-06,-7.33506e-07,0
-2.73428e-05,-5.20351e-05,-3.30921e-06,-1.42805e-05,4.16985e-06,-1.11912e-05,4.82841e-06,-3.35094e-08,0
-2.51272e-05,-4.12318e-05,-1.40009e-06,-1.45623e-05,4.76512e-06,-1.01575e-05,3.80624e-06,1.56137e-06,0
-2.47808e-05,-3.08398e-05,-2.37785e-06,-1.19631e-05,5.21196e-06,-1.02736e-05,3.56313e-06,1.24615e-06,0
-2.65427e-05,-1.92126e-05,-3.87018e-06,-1.10843e-05,4.8069e-06,-1.16298e-05,7.37198e-06,-2.97078e-07,0
-2.91925e-05,2.20037e-06,-6.63263e-06,-1.59231e-05,3.43343e-06,-1.3992e-05,1.02964e-05,1.01663e-06,0
-3.04152e-05,2.32848e-05,-1.06771e-05,-2.31023e-05,3.22657e-06,-1.64184e-05,1.1122e-05,3.95034e-06,0
-3.1311e-05,3.41686e-05,-1.55275e-05,-2.64097e-05,7.0254e-06,-1.71612e-05,1.23038e-05,6.81145e-06,0
-3.22652e-05,3.61648e-05,-1.88072e-05,-2.20918e-05,1.27034e-05,-1.57723e-05,1.43058e-05,9.41146e-06,0
-3.23536e-05,3.1565e-05,-1.7701e-05,-1.26536e-05,1.88487e-05,-1.37072e-05,1.62682e-05,9.86389e-06,0
-3.20407e-05,1.9073e-05,-1.66007e-05,-4.0261e-06,2.2159e-05,-1.25566e-05,1.65609e-05,8.77228e-06,0
-3.18513e-05,1.33902e-06,-1.86791e-05,-3.56463e-06,1.87949e-05,-1.3104e-05,1.81119e-05,7.77947e-06,0
-3.211e-05,-1.47879e-05,-2.12658e-05,-9.53431e-06,1.30779e-05,-1.40272e-05,2.08439e-05,8.30767e-06,0
-3.17012e-05,-2.23852e-05,-2.09022e-05,-1.49644e-05,1.17276e-05,-1.42188e-05,2.23219e-05,8.2076e-06,0
-3.10959e-05,-2.0999e-05,-1.94256e-05,-1.76246e-05,1.69786e-05,-1.26084e-05,2.17412e-05,6.675e-06,0
-3.02174e-05,-1.49413e-05,-1.8399e-05,-1.63155e-05,2.4953e-05,-9.33548e-06,1.97368e-05,3.79825e-06,0
-2.90246e-05,-5.35633e-06,-1.64576e-05,-1.086e-05,3.15547e-05,-6.11513e-06,1.84074e-05,1.33577e-06,0
-2.85337e-05,7.24503e-06,-1.51479e-05,-5.02657e-06,3.25841e-05,-5.20208e-06,1.89622e-05,7.77749e-07,0
-2.91971e-05,1.9321e-05,-1.74045e-05,-5.18911e-06,2.75413e-05,-6.31767e-06,1.99622e-05,8.34683e-07,0
-2.99367e-05,2.55824e-05,-2.1205e-05,-1.14671e-05,2.03311e-05,-7.6685e-06,1.96768e-05,-2.70402e-07,0
-3.03138e-05,2.48866e-05,-2.29715e-05,-1.86213e-05,1.47773e-05,-7.6741e-06,1.85716e-05,-2.46222e-06,0
-3.05204e-05,2.09805e-05,-2.32597e-05,-2.18807e-05,1.15725e-05,-7.73776e-06,1.68351e-05,-3.80032e-06,0
-3.09909e-05,1.90887e-05,-2.37896e-05,-2.00597e-05,9.67387e-06,-9.13005e-06,1.48483e-05,-3.99551e-06,0
-3.23862e-05,1.95591e-05,-2.26344e-05,-1.54568e-05,8.83583e-06,-1.06864e-05,1.33346e-05,-3.3896e-06,0
-3.24919e-05,2.01156e-05,-1.70233e-05,-1.28022e-05,9.72998e-06,-1.16301e-05,1.30737e-05,-2.73952e-06,0
-3.00773e-05,1.92597e-05,-7.99509e-06,-1.25234e-05,1.1945e-05,-1.19873e-05,1.23495e-05,-1.60408e-06,0
-2.76295e-05,1.7694e-05,1.99732e-06,-9.87241e-06,1.31548e-05,-1.05743e-05,1.06451e-05,-1.43543e-06,0
-2.78634e-05,1.71654e-05,1.59816e-05,-4.77768e-06,1.30355e-05,-9.09988e-06,9.84389e-06,-1.40849e-06,0
-2.95037e-05,1.60466e-05,3.6483e-05,4.34117e-07,1.28356e-05,-1.00761e-05,9.20677e-06,7.895e-07,0
-3.05558e-05,1.29669e-05,5.92117e-05,3.37716e-06,1.354e-05,-1.14642e-05,7.99234e-06,3.26127e-06,0
