ch1,ch2,ch3,ch4,ch5,ch6,ch7,ch8,class
-1.8482e-05,8.86438e-06,5.9416e-06,-2.95359e-05,4.15564e-06,-1.13904e-05,2.24197e-05,-1.73536e-06,0
-2.02288e-05,3.79629e-06,2.51381e-06,-6.13806e-05,-5.08521e-06,2.845e-05,1.9932e-05,3.09679e-06,0
-2.20858e-05,1.40376e-09,-1.95607e-06,-9.95775e-05,-1.14809e-05,1.93772e-05,1.56666e-05,1.9916e-05,0
-2.31084e-05,1.03496e-06,-7.72638e-06,-0.000134948,-1.49968e-05,-7.06328e-06,1.24839e-05,4.03861e-05,0
-2.46953e-05,6.9434e-06,-1.17559e-05,-0.000132397,-1.43074e-05,-1.76724e-05,1.04318e-05,4.97835e-05,0
-2.90843e-05,1.20375e-05,-1.24555e-05,-7.82022e-05,-8.0278e-06,-1.34888e-05,7.3507e-06,4.63557e-05,0
-3.5086e-05,1.20369e-05,-1.1212e-05,-1.36311e-07,2.81836e-06,-8.44391e-06,9.77216e-07,3.5315e-05,0
-3.77529e-05,1.39396e-05,-6.92415e-06,5.98629e-05,1.25742e-05,-5.28824e-06,-4.12014e-06,1.81307e-05,0
-3.33978e-05,2.01189e-05,-3.21692e-06,7.45187e-05,1.62845e-05,2.27962e-06,-3.70142e-06,-3.49911e-06,0
-3.0972e-05,2.5082e-05,-4.39683e-06,4.56889e-05,1.6938e-05,1.65676e-05,-1.22341e-06,-1.99354e-05,0
-3.7803e-05,2.68495e-05,-7.79822e-06,2.27543e-05,1.89756e-05,3.31348e-05,-9.06001e-07,-2.42156e-05,0
-4.40089e-05,2.43858e-05,-9.91494e-06,2.49499e-05,2.17881e-05,3.36755e-05,-1.63599e-06,-1.83436e-05,0
-4.35837e-05,2.13836e-05,-9.80886e-06,2.72339e-05,2.1622e-05,1.17879e-05,2.32879e-07,-1.04904e-05,0
-3.76848e-05,1.94658e-05,-9.24808e-06,2.54392e-05,1.61181e-05,-9.90688e-06,2.79602e-06,-9.85538e-06,0
-2.99459e-05,1.8033e-05,-9.70923e-06,2.96278e-05,5.92744e-06,-1.44546e-05,4.64527e-06,-1.17591e-05,0
-2.5579e-05,1.63121e-05,-1.11288e-05,2.95453e-05,-6.81715e-06,-1.36818e-05,5.22309e-06,-8.41375e-06,0
-2.63024e-05,1.48373e-05,-1.24305e-05,9.80272e-06,-1.99595e-05,-1.72184e-05,5.58014e-06,-1.00994e-06,0
-2.94318e-05,1.59661e-05,-1.26048e-05,-3.92662e-05,-3.23112e-05,-2.13996e-05,7.52933e-06,3.16557e-06,0
-3.20219e-05,2.25296e-05,-1.28398e-05,-0.000110144,-4.07871e-05,-2.33946e-05,1.02502e-05,3.58107e-06,0
-3.40475e-05,3.57559e-05,-1.46745e-05,-0.000164362,-4.02629e-05,-2.22621e-05,1.25556e-05,4.69759e-06,0
-3.40815e-05,5.04818e-05,-1.70867e-05,-0.000171233,-2.85704e-05,-1.8307e-05,1.43613e-05,6.00477e-06,0
-3.14566e-05,5.7633e-05,-1.75799e-05,-0.000132664,-1.09868e-05,-1.5878e-05,1.56621e-05,5.18481e-06,0
-2.91662e-05,5.41078e-05,-1.50074e-05,-7.51101e-05,4.67372e-06,-2.16586e-05,1.51096e-05,3.71339e-06,0
-2.88828e-05,4.48973e-05,-1.06587e-05,-1.33278e-05,1.61611e-05,-3.50603e-05,1.29234e-05,5.0648e-06,0
-2.93786e-05,3.35208e-05,-6.94586e-06,4.60484e-05,2.77934e-05,-4.36104e-05,1.01494e-05,9.01442e-06,0
-3.0674e-05,2.03331e-05,-4.04615e-06,0.000100122,4.32524e-05,-2.48687e-05,8.35878e-06,1.34703e-05,0
-3.27893e-05,4.81095e-06,-2.22243e-06,0.000137036,5.74252e-05,2.31997e-05,7.85079e-06,1.60259e-05,0
-3.43741e-05,-1.0933e-05,-1.9527e-06,0.000140965,6.17604e-05,6.11045e-05,8.7877e-06,1.64444e-05,0
-3.12334e-05,-2.67299e-05,-2.96741e-06,0.000110049,5.49017e-05,5.65227e-05,1.05295e-05,1.34713e-05,0
-2.1387e-05,-3.49346e-05,-4.31488e-06,5.87497e-05,4.23142e-05,3.27521e-05,1.16928e-05,7.80909e-06,0
-9.21919e-06,-2.30507e-05,-3.96369e-06,1.15827e-06,3.27636e-05,2.25193e-05,1.1212e-05,2.19204e-06,0
-2.06832e-06,6.84509e-06,-1.99375e-06,-4.25782e-05,2.91177e-05,2.29097e-05,9.48175e-06,-9.63397e-07,0
-6.46617e-06,4.14597e-05,-1.44861e-06,-5.29959e-05,2.53935e-05,1.77187e-05,6.5747e-06,-1.45812e-06,0
-1.52789e-05,6.46368e-05,-4.06528e-06,-3.54944e-05,2.0316e-05,9.27345e-06,5.91267e-06,-7.57915e-07,0
-1.39829e-05,7.47983e-05,-8.88299e-06,-1.13607e-05,1.70057e-05,7.35389e-06,7.20875e-06,-1.48149e-06,0
-2.64043e-06,7.63074e-05,-1.30976e-05,1.85858e-06,1.65228e-05,8.73855e-06,6.66843e-06,9.59102e-07,0
6.9267e-06,6.92003e-05,-1.50657e-05,2.20606e-06,2.11181e-05,-1.24312e-06,5.93559e-06,1.71067e-05,0
7.94177e-06,5.7225e-05,-1.45866e-05,-6.6467e-06,3.40321e-05,-2.46363e-05,5.31581e-06,3.51573e-05,0
1.0543e-06,3.73422e-05,-1.25918e-05,-2.52552e-05,4.7883e-05,-3.87366e-05,7.96433e-06,3.681e-05,0
-1.13506e-05,7.98748e-06,-9.91344e-06,-4.73826e-05,4.89947e-05,-3.12161e-05,1.21245e-05,2.13767e-05,0
-2.89129e-05,-2.3102e-05,-8.31976e-06,-5.49533e-05,3.78808e-05,-1.7661e-05,1.35189e-05,1.79095e-06,0
-4.76679e-05,-4.65862e-05,-7.91557e-06,-4.61038e-05,2.94253e-05,-1.67153e-05,1.49937e-05,-1.284e-05,0
-5.98838e-05,-6.4313e-05,-7.23957e-06,-3.27744e-05,3.28893e-05,-2.54779e-05,1.73714e-05,-2.25988e-05,0
-6.11427e-05,-7.7383e-05,-7.5543e-06,-2.69553e-05,4.16236e-05,-3.45966e-05,1.91432e-05,-2.78634e-05,0
-5.70603e-05,-8.19502e-05,-7.91315e-06,-2.9247e-05,4.35431e-05,-4.4969e-05,2.02424e-05,-3.12289e-05,0
-5.59743e-05,-7.76629e-05,-6.43162e-06,-3.249e-05,3.44137e-05,-6.1264e-05,2.07673e-05,-3.2121e-05,0
-6.18227e-05,-6.99049e-05,-5.67471e-06,-3.05066e-05,1.98682e-05,-8.23127e-05,1.97669e-05,-2.94615e-05,0
-7.0897e-05,-6.30529e-05,-8.58094e-06,-2.90127e-05,7.53624e-06,-9.91694e-05,1.84174e-05,-2.46193e-05,0
-7.45916e-05,-5.55345e-05,-1.22874e-05,-3.34661e-05,2.52895e-06,-0.000100909,1.75752e-05,-1.9363e-05,0
-7.49112e-05,-4.6563e-05,-1.27606e-05,-3.74272e-05,5.56524e-06,-8.76372e-05,1.45568e-05,-1.32061e-05,0
-8.108e-05,-3.65507e-05,-1.00146e-05,-3.29252e-05,1.188e-05,-6.9199e-05,7.15746e-06,-6.8445e-06,0
-9.15697e-05,-2.64321e-05,-8.46644e-06,-1.97314e-05,1.54314e-05,-5.19089e-05,-2.76512e-07,-1.79591e-06,0
-9.21846e-05,-1.41043e-05,-9.35658e-06,-2.63097e-06,1.43907e-05,-3.86664e-05,-1.57611e-06,2.47542e-06,0
-7.79882e-05,2.26221e-06,-1.01197e-05,1.39442e-05,1.02246e-05,-2.38901e-05,3.27264e-06,5.98419e-06,0
-5.76232e-05,2.49709e-05,-9.53599e-06,2.34028e-05,6.86493e-06,1.11587e-05,1.14042e-05,7.44978e-06,0
-4.21974e-05,5.07859e-05,-7.83092e-06,2.16952e-05,8.16742e-06,4.8359e-05,2.01758e-05,6.07943e-06,0
-3.18052e-05,7.78386e-05,-6.2981e-06,1.42665e-05,1.34624e-05,5.11307e-05,2.73519e-05,4.47422e-06,0
-1.79608e-05,9.78686e-05,-7.53508e-06,8.20147e-06,1.83374e-05,5.54466e-05,3.19182e-05,3.67189e-06,0
1.11819e-06,9.73016e-05,-1.20362e-05,-8.4355e-07,1.85744e-05,7.72698e-05,3.32204e-05,3.8593e-06,0
2.45447e-05,7.55416e-05,-1.4948e-05,-1.43239e-05,1.53374e-05,6.85577e-05,3.17171e-05,4.84023e-06,0
3.8041e-05,4.39702e-05,-1.46719e-05,-2.5248e-05,9.87983e-06,3.56004e-05,3.02358e-05,3.97701e-06,0
2.61498e-05,1.47312e-05,-1.51884e-05,-2.96384e-05,4.53034e-06,1.47509e-05,2.91924e-05,3.12095e-06,0
2.25112e-06,-7.37477e-06,-1.583e-05,-2.60965e-05,3.19883e-06,1.05733e-05,2.7767e-05,3.76987e-06,0
-1.49503e-05,-1.91257e-05,-1.52333e-05,-1.48747e-05,2.90885e-06,9.85217e-06,2.60581e-05,5.72078e-06,0
-1.95869e-05,-2.12177e-05,-1.58816e-05,-3.25056e-06,1.79898e-06,4.25227e-06,2.29436e-05,8.93077e-06,0
-1.98886e-05,-1.89303e-05,-1.78751e-05,2.55983e-06,-2.0643e-07,-1.06056e-06,1.92359e-05,9.05803e-06,0
-2.11827e-05,-1.60033e-05,-1.97358e-05,4.10287e-06,-2.17168e-06,-1.68691e-06,1.70498e-05,6.29113e-06,0
-2.19304e-05,-1.42941e-05,-1.86099e-05,4.61185e-06,-2.45644e-06,2.59137e-06,1.60966e-05,3.48894e-06,0
-1.83664e-05,-1.19181e-05,-1.54752e-05,4.20327e-06,-2.01495e-06,1.24457e-05,1.65261e-05,1.19595e-06,0
-1.25746e-05,-6.246e-06,-1.39422e-05,6.36754e-06,-6.74731e-08,1.86928e-05,1.60978e-05,-9.99236e-07,0
-1.42632e-05,1.70985e-07,-1.27582e-05,1.32043e-05,3.9502e-06,6.0188e-06,1.38555e-05,-1.87279e-06,0
-2.26463e-05,4.37669e-06,-1.06225e-05,2.10237e-05,8.60032e-06,-1.32013e-05,1.18071e-05,-3.64752e-07,0
-2.90404e-05,7.75698e-06,-8.3617e-06,2.22579e-05,9.27369e-06,-1.40449e-05,1.12237e-05,2.43021e-06,0
-2.64055e-05,1.2907e-05,-7.19654e-06,8.90448e-06,5.56304e-06,-3.59474e-06,1.12756e-05,5.36497e-06,0
-1.94039e-05,1.99342e-05,-7.07408e-06,-1.51674e-05,2.80785e-06,-7.3088e-06,1.13937e-05,7.15392e-06,0
-1.63208e-05,2.49119e-05,-8.1889e-06,-3.10847e-05,4.6254e-06,-2.69269e-05,1.22687e-05,6.3271e-06,0
-1.90606e-05,2.55068e-05,-1.04159e-05,-2.74901e-05,8.21367e-06,-3.71931e-05,1.27583e-05,3.29238e-06,0
-2.23077e-05,2.43613e-05,-1.23222e-05,-1.25115e-05,1.00815e-05,-2.71409e-05,1.13113e-05,1.67825e-07,0
-2.27406e-05,2.45759e-05,-1.32731e-05,5.56171e-06,1.02102e-05,-2.04525e-05,8.85112e-06,-1.2619e-06,0
-2.10004e-05,2.65198e-05,-1.24544e-05,2.55932e-05,8.98406e-06,-3.2516e-05,7.79335e-06,-9.29045e-07,0
-1.88069e-05,2.60924e-05,-1.1353e-05,4.10825e-05,7.70446e-06,-4.61386e-05,6.94145e-06,-1.06058e-07,0
-1.74247e-05,2.21955e-05,-1.16502e-05,4.06605e-05,8.96268e-06,-4.67923e-05,5.72951e-06,1.91116e-06,0
-1.97072e-05,1.71849e-05,-1.17674e-05,2.00484e-05,1.13798e-05,-4.01318e-05,5.7355e-06,3.80286e-06,0
-2.34683e-05,1.33194e-05,-1.24635e-05,-8.9179e-06,1.03005e-05,-3.7948e-05,7.42067e-06,3.91017e-06,0
-2.51843e-05,1.12765e-05,-1.47244e-05,-2.62946e-05,7.20084e-06,-4.16334e-05,1.01787e-05,3.83865e-06,0
-2.48858e-05,1.01791e-05,-1.52606e-05,-2.8356e-05,6.1808e-06,-4.22319e-05,1.31163e-05,4.17736e-06,0
-2.46352e-05,8.47989e-06,-1.26612e-05,-1.96861e-05,7.07633e-06,-3.57093e-05,1.39326e-05,5.03071e-06,0
-2.56673e-05,7.75665e-06,-1.00811e-05,-1.13795e-05,7.03796e-06,-2.79097e-05,1.33952e-05,5.3419e-06,0
-2.49025e-05,8.76341e-06,-8.83095e-06,-1.28225e-05,8.6941e-06,-2.3303e-05,1.24264e-05,4.3355e-06,0
-2.33489e-05,8.68996e-06,-7.71524e-06,-1.83948e-05,1.27922e-05,-2.02727e-05,1.02335e-05,3.66809e-06,0
-2.24295e-05,9.42178e-06,-6.13199e-06,-2.17221e-05,1.68337e-05,-1.72496e-05,-6.7421e-07,3.72017e-06,0
-2.24477e-05,1.14292e-05,-4.69527e-06,-2.2362e-05,2.09879e-05,-1.46009e-05,-1.85984e-05,4.47592e-06,0
-2.39859e-05,1.26875e-05,-4.15101e-06,-2.28504e-05,2.64924e-05,-1.38543e-05,-2.76007e-05,4.20002e-06,0
-2.5921e-05,1.29539e-05,-2.46849e-06,-2.16886e-05,3.2464e-05,-1.36879e-05,-2.49054e-05,2.55334e-06,0
-2.67986e-05,1.24006e-05,-1.20856e-06,-1.53783e-05,3.6836e-05,-1.2678e-05,-1.66091e-05,6.68987e-08,0
-2.69814e-05,1.22756e-05,-2.96289e-06,-6.13799e-06,3.78011e-05,-1.16142e-05,-5.13169e-06,-2.20169e-06,0
-2.66271e-05,1.26716e-05,-6.1701e-06,-2.85098e-07,3.44908e-05,-1.02638e-05,9.75941e-06,-3.68421e-06,0
-2.78605e-05,1.23054e-05,-7.89329e-06,7.08092e-07,2.86136e-05,-8.42327e-06,2.50088e-05,-5.48867e-06,0
-2.93503e-05,1.03962e-05,-7.30034e-06,-1.00743e-06,2.25964e-05,-7.19948e-06,3.75503e-05,-6.5789e-06,0
-2.94118e-05,9.95356e-06,-6.08837e-06,-3.30822e-06,1.87878e-05,-7.36753e-06,4.5143e-05,-6.54829e-06,0
-2.9526e-05,1.319e-05,-6.24664e-06,-6.01921e-06,1.7281e-05,-7.02207e-06,4.61635e-05,-5.70958e-06,0
-3.08217e-05,1.81096e-05,-7.73543e-06,-8.09219e-06,1.71108e-05,-6.6674e-06,4.24256e-05,-5.89179e-06,0
-3.28264e-05,2.07276e-05,-9.35672e-06,-9.34237e-06,1.51316e-05,-8.04333e-06,3.71468e-05,-7.3571e-06,0
-3.44994e-05,2.04693e-05,-9.19841e-06,-1.2771e-05,1.07173e-05,-9.30727e-06,3.16593e-05,-7.42151e-06,0
-3.48174e-05,2.00005e-05,-6.8077e-06,-1.90977e-05,7.71524e-06,-8.85227e-06,2.74133e-05,-4.51896e-06,0
-3.3822e-05,1.9906e-05,-4.60867e-06,-2.48061e-05,8.40929e-06,-8.31049e-06,2.50499e-05,-7.95117e-07,0
-3.34179e-05,1.98128e-05,-3.22061e-06,-2.52215e-05,1.06169e-05,-7.2826e-06,2.32256e-05,1.22742e-06,0
-3.34774e-05,1.90701e-05,-3.05672e-06,-1.85438e-05,1.18805e-05,-2.97723e-06,2.08984e-05,1.85802e-06,0
-3.37377e-05,1.62152e-05,-5.36465e-06,-3.12666e-06,1.11589e-05,2.04479e-06,1.74721e-05,2.1929e-06,0
-3.31209e-05,1.14701e-05,-8.54466e-06,2.26616e-05,9.88617e-06,4.746e-06,1.31368e-05,8.75299e-08,0
-3.25615e-05,8.19686e-06,-9.30115e-06,4.66265e-05,1.02763e-05,5.31653e-06,8.89218e-06,-3.57768e-06,0
-3.4362e-05,8.55792e-06,-7.11502e-06,5.25259e-05,1.05924e-05,5.35542e-06,5.98203e-06,-3.22867e-06,0
-3.80242e-05,1.0947e-05,-4.01745e-06,3.94545e-05,9.52269e-06,4.63907e-06,4.00199e-06,4.18418e-07,0
-3.95896e-05,1.3377e-05,-3.3155e-06,1.41584e-05,7.79151e-06,1.41647e-06,2.51362e-06,1.58834e-06,0
-3.70955e-05,1.60407e-05,-4.97688e-06,-5.85268e-06,4.73496e-06,-2.61943e-06,2.22082e-06,2.29104e-07,0
-3.46413e-05,1.7153e-05,-7.2508e-06,-1.78567e-05,2.3621e-06,-4.75397e-06,3.08148e-06,-6.05052e-07,0
-3.41392e-05,1.81639e-05,-7.89053e-06,-2.97236e-05,3.52246e-06,-5.08772e-06,3.09859e-06,-9.45619e-07,0
-3.52216e-05,1.75368e-05,-6.90987e-06,-3.80816e-05,6.90696e-06,-5.71615e-06,2.39047e-06,-6.53635e-08,0
-3.90482e-05,1.56966e-05,-6.23759e-06,-4.04228e-05,1.0343e-05,-7.24904e-06,1.91951e-06,2.11145e-06,0
-4.47603e-05,1.53036e-05,-7.08915e-06,-3.70681e-05,1.09308e-05,-9.72571e-06,2.80042e-06,4.60012e-06,0
-4.80017e-05,1.53248e-05,-8.45134e-06,-3.06946e-05,1.04401e-05,-1.12838e-05,5.70323e-06,4.61541e-06,0
-4.58286e-05,1.50352e-05,-8.51541e-06,-1.94966e-05,1.14451e-05,-9.63194e-06,8.62387e-06,4.20189e-06,0
-4.10993e-05,1.29352e-05,-8.10644e-06,-1.11175e-05,1.39152e-05,-5.62671e-06,1.01404e-05,5.27444e-06,0
-3.74745e-05,1.20952e-05,-9.52483e-06,-9.21538e-06,1.64338e-05,-2.50372e-06,1.05869e-05,5.67888e-06,0
-3.74838e-05,1.20184e-05,-1.23628e-05,-8.93546e-06,1.28414e-05,-3.54338e-06,1.04076e-05,5.23414e-06,0
-4.05308e-05,1.04416e-05,-1.40378e-05,-8.46683e-06,2.95199e-06,-8.40153e-06,9.32259e-06,4.07691e-06,0
-4.34849e-05,7.35426e-06,-1.41112e-05,-9.9291e-06,-6.12048e-06,-1.14235e-05,6.39047e-06,1.09437e-06,0
-4.51463e-05,4.89916e-06,-1.36429e-05,-1.4019e-05,-8.76276e-06,-9.35031e-06,3.37519e-06,-4.31626e-06,0
-4.61044e-05,5.09568e-06,-1.39591e-05,-1.4867e-05,-6.4549e-06,-5.27802e-06,4.09745e-06,-1.03998e-05,0
-4.57083e-05,6.79906e-06,-1.36798e-05,-8.39585e-06,-4.05177e-06,-2.87791e-06,8.83276e-06,-1.50358e-05,0
-4.45745e-05,7.27621e-06,-1.18877e-05,5.55322e-06,-3.02619e-06,-3.58993e-06,1.40948e-05,-1.58448e-05,0
-4.50887e-05,5.09035e-06,-9.06937e-06,2.36774e-05,-3.15491e-07,-6.95216e-06,1.67362e-05,-1.37103e-05,0
-4.81627e-05,2.46389e-06,-6.36661e-06,4.24842e-05,1.08122e-05,-9.79224e-06,1.68868e-05,-9.24316e-06,0
-5.24759e-05,1.41481e-06,-5.15952e-06,5.21149e-05,3.12349e-05,-7.97841e-06,1.54332e-05,-3.01216e-06,0
-5.4251e-05,5.71025e-07,-5.74201e-06,4.51067e-05,5.1281e-05,-2.69851e-06,1.41044e-05,2.65162e-06,0
-5.15804e-05,-1.01691e-06,-6.1783e-06,2.57058e-05,6.12236e-05,3.62036e-06,1.33122e-05,5.08989e-06,0
-4.44051e-05,-3.20974e-06,-5.96388e-06,-2.17312e-06,6.08712e-05,9.24382e-06,9.78525e-06,4.60544e-06,0
-3.35452e-05,-5.69638e-06,-5.09096e-06,-3.38853e-05,5.4085e-05,8.02184e-06,5.02896e-06,4.38727e-06,0
-2.20866e-05,-6.82616e-06,-3.11792e-06,-5.26808e-05,4.48178e-05,-3.40067e-06,5.10406e-06,5.13991e-06,0
-1.41475e-05,-7.22076e-06,-2.64472e-06,-5.39353e-05,3.48257e-05,-1.77943e-05,1.03444e-05,5.5541e-06,0
-1.09633e-05,-3.93942e-06,-2.74011e-06,-3.81761e-05,2.49337e-05,-1.16038e-05,1.33069e-05,6.34594e-06,0
-1.27066e-05,1.88935e-06,-2.21843e-06,-6.17762e-06,1.11421e-05,3.54464e-05,2.66396e-06,6.83853e-06,0
-1.95673e-05,1.04693e-06,-2.82746e-06,2.74232e-05,-1.01552e-05,7.9432e-05,-1.8999e-05,6.23083e-06,0
-2.68218e-05,-6.19463e-06,-2.36655e-06,4.70107e-05,-2.85459e-05,6.81189e-05,-3.54659e-05,8.65653e-06,0
-2.94196e-05,-1.16311e-05,-2.67548e-06,3.87925e-05,-3.84193e-05,2.32955e-05,-3.60071e-05,2.12249e-05,0
-2.76865e-05,-1.24474e-05,-4.96937e-06,2.03681e-06,-4.42599e-05,-1.03854e-05,-2.34274e-05,3.88643e-05,0
-2.19822e-05,-1.17357e-05,-6.1167e-06,-5.2439e-05,-4.67833e-05,-2.72659e-05,-7.147e-06,4.7585e-05,0
-1.64618e-05,-1.17027e-05,-5.57931e-06,-0.000101418,-4.24842e-05,-4.51212e-05,8.39223e-06,4.59568e-05,0
-1.53061e-05,-9.8242e-06,-3.99476e-06,-0.000120246,-2.74468e-05,-5.6109e-05,2.13882e-05,3.55909e-05,0
-1.74746e-05,-4.21559e-06,-1.77519e-06,-0.000108757,-4.98973e-06,-4.81968e-05,3.27521e-05,1.64853e-05,0
-2.13005e-05,3.43794e-06,5.99868e-07,-6.84359e-05,1.93873e-05,-3.0365e-05,4.1151e-05,-7.48878e-06,0
-2.40096e-05,1.19407e-05,2.81081e-06,1.30826e-05,4.35968e-05,-1.27634e-05,4.504e-05,-2.608e-05,0
-2.24699e-05,1.99954e-05,5.81338e-06,0.000124425,6.434e-05,1.06962e-05,4.61691e-05,-3.32842e-05,0
-2.05841e-05,2.52561e-05,8.98755e-06,0.000216984,7.90332e-05,3.78544e-05,4.50252e-05,-3.04105e-05,0
-2.57065e-05,2.66111e-05,1.01828e-05,0.000256982,8.93568e-05,4.96372e-05,4.12618e-05,-2.0277e-05,0
-3.40147e-05,2.58152e-05,8.00742e-06,0.000252014,9.60575e-05,3.9407e-05,3.62483e-05,-6.11281e-06,0
-3.62871e-05,2.48884e-05,3.34706e-06,0.000216638,9.3975e-05,2.09392e-05,3.18498e-05,6.43103e-06,0
-2.98891e-05,2.39279e-05,-1.92941e-06,0.000160733,7.86727e-05,1.02972e-05,2.81236e-05,1.25639e-05,0
-2.09456e-05,2.34201e-05,-5.05579e-06,9.86957e-05,5.36959e-05,9.95514e-06,2.53544e-05,1.38884e-05,0
-1.55763e-05,2.30874e-05,-5.07084e-06,3.6592e-05,2.66219e-05,1.36082e-05,2.36962e-05,1.50112e-05,0
-1.48636e-05,2.23323e-05,-2.7912e-06,-2.64843e-05,-1.57898e-07,1.00068e-05,2.29746e-05,1.85429e-05,0
-1.75744e-05,2.29169e-05,5.79962e-08,-7.98292e-05,-2.83585e-05,-4.51871e-06,2.45166e-05,2.14434e-05,0
-2.1349e-05,2.44092e-05,1.16081e-06,-0.000117738,-5.80463e-05,-2.31614e-05,3.04524e-05,2.13689e-05,0
-2.42049e-05,2.3828e-05,-1.3174e-06,-0.000147556,-8.33043e-05,-3.66179e-05,3.97803e-05,1.82196e-05,0
-2.73009e-05,2.2052e-05,-7.22418e-06,-0.000172578,-9.57247e-05,-4.25951e-05,4.69074e-05,1.2918e-05,0
-3.27674e-05,2.19098e-05,-1.39883e-05,-0.000169707,-9.53296e-05,-4.46557e-05,4.73487e-05,3.58916e-06,0
-3.68834e-05,2.36878e-05,-1.83721e-05,-0.000122067,-8.68598e-05,-4.25662e-05,4.25539e-05,-1.05354e-05,0
-3.57425e-05,2.86253e-05,-1.95203e-05,-5.7506e-05,-7.29758e-05,-3.39643e-05,3.43566e-05,-2.23789e-05,0
-3.59353e-05,3.28733e-05,-1.82516e-05,-2.15969e-05,-5.31674e-05,-2.38379e-05,2.4071e-05,-2.37708e-05,0
-4.03242e-05,3.48625e-05,-1.66369e-05,-4.7311e-06,-2.64606e-05,-2.03063e-05,1.18833e-05,-2.0173e-05,0
-4.215e-05,3.62903e-05,-1.45895e-05,2.55034e-05,8.55734e-06,-2.7039e-05,-1.56159e-06,-1.98487e-05,0
-3.99126e-05,3.57966e-05,-1.07674e-05,4.37598e-05,4.92309e-05,-3.46788e-05,-1.56115e-05,-2.25253e-05,0
-3.90132e-05,3.46641e-05,-7.18166e-06,3.60196e-05,7.98619e-05,-3.6248e-05,-2.69068e-05,-2.2964e-05,0
-4.33895e-05,3.28567e-05,-5.86111e-06,1.60307e-05,9.73066e-05,-3.96784e-05,-2.92541e-05,-1.96042e-05,0
-4.8035e-05,2.93399e-05,-5.14761e-06,1.94558e-06,0.000117598,-3.31606e-05,-2.45016e-05,-1.41197e-05,0
-4.68504e-05,2.8039e-05,-1.11596e-06,-6.76754e-06,0.000142006,-1.12752e-05,-1.81925e-05,-7.5107e-06,0
-4.4328e-05,3.70665e-05,4.80958e-06,-1.77289e-05,0.000148893,-3.50471e-07,-1.08096e-05,-2.68394e-06,0
-5.05308e-05,4.83701e-05,9.03035e-06,-3.35351e-05,0.000129566,-1.40925e-05,-4.26488e-06,1.19542e-07,0
-6.62759e-05,5.08716e-05,9.74646e-06,-5.38515e-05,9.51254e-05,-4.13898e-05,-3.99113e-06,9.69277e-07,0
-7.77147e-05,4.63078e-05,8.23318e-06,-6.81605e-05,5.58786e-05,-5.72128e-05,-9.4057e-06,1.96e-06,0
-7.15566e-05,4.27699e-05,6.21133e-06,-6.67905e-05,2.63088e-05,-4.57442e-05,-1.52581e-05,2.97939e-06,0
-5.26938e-05,4.58642e-05,5.04522e-06,-4.75238e-05,1.89681e-05,-2.18022e-05,-1.68971e-05,2.66827e-06,0
-3.51625e-05,5.37555e-05,4.72649e-06,-2.28393e-05,3.07687e-05,-8.58303e-07,-1.36925e-05,1.21079e-06,0
-2.45344e-05,5.97676e-05,2.33601e-06,-8.77966e-06,4.16032e-05,2.81479e-05,-8.70119e-06,3.71316e-08,0
-1.36492e-05,5.50778e-05,-3.17574e-06,-1.69842e-05,3.53492e-05,6.29089e-05,-4.33577e-06,3.27393e-07,0
6.7609e-06,3.79693e-05,-8.98385e-06,-3.6371e-05,1.67532e-05,6.65959e-05,-3.51384e-07,1.66702e-06,0
3.25972e-05,1.33318e-05,-1.29529e-05,-5.19886e-05,-8.36449e-07,3.46654e-05,3.48392e-06,4.01917e-06,0
4.65232e-05,-1.00939e-05,-1.5043e-05,-5.53682e-05,-1.09015e-05,5.36301e-06,7.92879e-06,7.25432e-06,0
4.12248e-05,-2.78713e-05,-1.56955e-05,-3.48677e-05,-1.23257e-05,-8.17077e-07,1.34603e-05,9.28729e-06,0
2.61763e-05,-4.18531e-05,-1.6286e-05,4.36548e-06,-8.75884e-06,5.34642e-06,1.93927e-05,9.30539e-06,0
1.00553e-05,-5.27665e-05,-1.68156e-05,2.39131e-05,-6.79755e-06,9.13752e-06,2.41087e-05,8.11033e-06,0
-1.27867e-07,-5.38809e-05,-1.82368e-05,2.23057e-05,-7.23441e-06,9.2361e-06,2.65009e-05,6.73881e-06,0
-9.04855e-07,-4.27008e-05,-2.00995e-05,2.15126e-05,-5.59309e-06,6.70433e-06,2.66752e-05,6.79563e-06,0
4.42478e-06,-2.8264e-05,-2.09232e-05,1.28332e-05,-4.14245e-06,-4.29379e-07,2.43188e-05,6.20901e-06,0
7.70031e-07,-2.32816e-05,-2.10263e-05,-1.95866e-05,-9.32227e-06,-1.27609e-05,2.34705e-05,2.49026e-06,0
-2.07097e-05,-3.0159e-05,-2.10787e-05,-5.73392e-05,-1.83468e-05,-2.87795e-05,2.54036e-05,-1.56319e-06,0
-4.37597e-05,-3.80846e-05,-2.15762e-05,-6.39447e-05,-2.40051e-05,-3.82525e-05,2.73498e-05,-4.98517e-06,0
-5.51986e-05,-3.85365e-05,-2.13157e-05,-3.38553e-05,-2.24927e-05,-3.01553e-05,2.79463e-05,-1.04141e-05,0
-5.37588e-05,-3.23385e-05,-1.83906e-05,9.67048e-06,-1.52348e-05,-1.71717e-05,2.87119e-05,-1.33038e-05,0
-4.68431e-05,-2.45698e-05,-1.28516e-05,3.09021e-05,-4.8877e-06,-1.17933e-05,3.12935e-05,-1.12998e-05,0
-4.22388e-05,-1.69935e-05,-7.70228e-06,3.03082e-05,4.05586e-06,-1.00725e-05,3.26906e-05,-8.31052e-06,0
-4.04193e-05,-1.03694e-05,-2.23558e-06,3.3381e-05,8.96778e-06,-1.0151e-05,3.156e-05,-7.52156e-06,0
-3.9946e-05,-5.20117e-06,4.11919e-06,5.02801e-05,9.25912e-06,-1.1381e-05,2.79116e-05,-6.43569e-06,0
-3.99206e-05,-2.14157e-06,5.71969e-06,6.72628e-05,3.59134e-06,-1.45448e-05,2.33137e-05,-3.66898e-06,0
-3.94791e-05,-2.75258e-06,-7.95867e-08,6.45062e-05,-4.92618e-06,-1.8162e-05,1.92e-05,-9.71031e-07,0
-3.77234e-05,-4.22085e-06,-8.71604e-06,3.88352e-05,-1.05926e-05,-1.94268e-05,1.56032e-05,3.27555e-07,0
-3.57332e-05,-2.07715e-06,-1.47513e-05,2.41594e-06,-9.94282e-06,-1.66663e-05,1.31841e-05,6.36228e-07,0
-3.35989e-05,4.35727e-06,-1.75182e-05,-3.59134e-05,-3.57299e-06,-1.22399e-05,1.12464e-05,2.95298e-06,0
-3.36595e-05,1.12649e-05,-1.9205e-05,-6.53307e-05,2.83473e-06,-1.04087e-05,9.55124e-06,5.27995e-06,0
-3.58165e-05,1.52571e-05,-2.16273e-05,-7.5049e-05,3.10785e-06,-1.30094e-05,9.18546e-06,5.43718e-06,0
-3.42667e-05,1.68315e-05,-2.33269e-05,-6.93324e-05,-2.27012e-06,-1.78699e-05,9.6623e-06,4.65588e-06,0
-2.15632e-05,1.76638e-05,-2.2772e-05,-4.75795e-05,-7.67462e-06,-2.03615e-05,9.08233e-06,4.7356e-06,0
2.54562e-06,2.00328e-05,-2.15138e-05,4.02103e-06,-7.63519e-06,-1.90218e-05,8.52363e-06,4.30859e-06,0
2.64548e-05,2.66839e-05,-2.05876e-05,8.15787e-05,-1.64956e-06,-1.64594e-05,1.08547e-05,3.39313e-06,0
3.59241e-05,3.92975e-05,-1.80951e-05,0.000150235,7.35446e-06,-1.48e-05,1.51316e-05,2.96152e-06,0
2.8078e-05,5.50659e-05,-1.23182e-05,0.000175205,1.69278e-05,-1.24012e-05,1.74784e-05,2.93958e-06,0
8.07254e-06,6.91512e-05,-6.66097e-06,0.000143568,2.43376e-05,-7.13268e-06,1.71667e-05,2.12438e-06,0
-1.72618e-05,7.63875e-05,-4.69452e-06,7.82534e-05,2.53049e-05,9.28847e-07,1.57999e-05,3.74787e-07,0
-4.0333e-05,7.77155e-05,-5.41764e-06,2.16931e-05,2.03399e-05,9.2343e-06,1.50668e-05,-2.07403e-06,0
-5.7446e-05,7.85016e-05,-5.99668e-06,-1.4725e-05,1.50132e-05,1.66877e-05,1.45023e-05,-4.68003e-06,0
-6.54445e-05,8.0829e-05,-4.59582e-06,-4.2105e-05,1.04096e-05,2.38687e-05,1.215e-05,-3.97932e-06,0
-6.57855e-05,8.11537e-05,-3.21567e-06,-5.59708e-05,4.30028e-06,3.01034e-05,8.55966e-06,-1.68441e-06,0
-6.19446e-05,7.43563e-05,-3.17068e-06,-4.76281e-05,-1.83553e-06,3.09137e-05,5.31842e-06,2.09258e-07,0
-5.70456e-05,6.09466e-05,-4.33993e-06,-3.70754e-05,-6.64752e-06,2.58251e-05,3.87193e-06,1.93152e-06,0
-5.52367e-05,4.38715e-05,-5.97323e-06,-4.36367e-05,-9.85156e-06,1.34892e-05,7.32021e-06,2.50517e-06,0
-5.61124e-05,2.19417e-05,-7.16731e-06,-4.39334e-05,-9.33262e-06,-1.05635e-05,1.67277e-05,2.72346e-06,0
-5.68091e-05,-1.1655e-05,-8.55601e-06,-2.25617e-05,-6.28516e-06,-3.59179e-05,2.50287e-05,2.5742e-06,0
-5.24015e-05,-4.47512e-05,-8.28854e-06,4.00472e-06,-3.31576e-06,-4.81141e-05,2.70625e-05,2.47645e-06,0
-4.4814e-05,-5.82482e-05,-6.47166e-06,1.63586e-05,-1.04062e-06,-6.08886e-05,2.62636e-05,2.47206e-06,0
-3.844e-05,-4.74602e-05,-4.88329e-06,1.24437e-05,1.65417e-06,-8.44903e-05,2.36872e-05,1.89208e-06,0
-3.42527e-05,-1.9723e-05,-3.60922e-06,7.64003e-06,4.85352e-06,-9.9127e-05,1.92865e-05,2.35537e-06,0
-3.58801e-05,5.88155e-06,-1.96087e-06,7.01044e-06,5.83205e-06,-9.06732e-05,1.4534e-05,2.94071e-06,0
-4.36893e-05,1.70751e-05,-5.71395e-07,-3.77338e-08,4.08667e-06,-5.80878e-05,1.06707e-05,2.87234e-06,0
-5.60354e-05,1.17265e-05,-1.09346e-06,-1.82235e-05,2.5016e-06,-2.55906e-05,7.75993e-06,2.0566e-06,0
-6.93521e-05,-5.78929e-06,-3.86983e-06,-4.77931e-05,1.9879e-06,-2.36038e-05,5.37297e-06,1.50591e-06,0
-7.68982e-05,-2.59971e-05,-6.56937e-06,-8.29809e-05,3.61515e-06,-4.14686e-05,3.21936e-06,1.78507e-06,0
-7.25013e-05,-3.56602e-05,-7.34472e-06,-0.000106938,7.44486e-06,-4.85923e-05,1.85441e-06,1.66346e-06,0
-5.95757e-05,-3.11336e-05,-7.4246e-06,-0.000109338,1.15143e-05,-3.99969e-05,2.40141e-06,6.44248e-07,0
-4.73616e-05,-1.93988e-05,-6.79292e-06,-9.39115e-05,1.49314e-05,-3.05352e-05,4.24864e-06,-3.36716e-07,0
-4.02345e-05,-7.86454e-06,-5.72959e-06,-6.96943e-05,1.74028e-05,-2.84021e-05,6.84706e-06,-1.04969e-06,0
-3.64205e-05,1.06831e-06,-5.81954e-06,-4.41828e-05,1.81424e-05,-3.25061e-05,8.48581e-06,-1.71562e-06,0
-3.34886e-05,7.36693e-06,-7.50883e-06,-2.65729e-05,1.62948e-05,-3.69875e-05,7.36137e-06,-2.05116e-06,0
-3.16021e-05,1.02334e-05,-1.055e-05,-1.94454e-05,1.41801e-05,-3.41033e-05,5.1337e-06,-2.10934e-06,0
-3.08249e-05,1.10172e-05,-1.35145e-05,-1.7514e-05,1.32663e-05,-1.33959e-05,5.23218e-06,-1.93775e-06,0
-3.09685e-05,1.03517e-05,-1.47469e-05,-1.27279e-05,1.28672e-05,1.5412e-05,6.05234e-06,-2.15477e-06,0
-3.10838e-05,9.7389e-06,-1.41236e-05,-3.84889e-06,1.12542e-05,2.47851e-05,1.42117e-06,-2.65584e-06,0
-3.07428e-05,1.05091e-05,-1.3709e-05,1.32008e-06,8.65839e-06,1.27799e-05,-7.05695e-06,-3.78046e-06,0
-3.09865e-05,1.28622e-05,-1.3062e-05,-3.38687e-06,6.98774e-06,4.56471e-08,-9.7542e-06,-3.78226e-06,0
-3.11108e-05,1.34154e-05,-1.1426e-05,-1.28313e-05,1.00786e-05,-5.4941e-06,-5.03702e-06,-2.38533e-06,0
-3.10003e-05,1.18203e-05,-9.94478e-06,-1.7246e-05,1.63098e-05,-7.75626e-06,1.99793e-06,-7.08072e-07,0
-3.00848e-05,1.01844e-05,-9.34436e-06,-1.58381e-05,1.97919e-05,-8.05534e-06,7.60016e-06,1.25137e-06,0
-2.78041e-05,1.00428e-05,-1.20383e-05,-1.15825e-05,2.11996e-05,-7.5536e-06,1.4005e-05,1.85508e-06,0
-2.66771e-05,1.14053e-05,-1.54448e-05,-6.08551e-06,2.20105e-05,-6.16579e-06,2.00956e-05,-3.15862e-07,0
-2.64055e-05,1.21412e-05,-1.60891e-05,-8.30445e-07,2.53119e-05,-4.01943e-06,2.21249e-05,-1.84761e-06,0
-2.61275e-05,1.32063e-05,-1.38304e-05,2.67947e-06,2.82798e-05,-2.19631e-06,2.1245e-05,-1.85027e-06,0
-2.46858e-05,1.641e-05,-1.07811e-05,-3.79083e-06,2.31289e-05,-3.54951e-06,2.01209e-05,-1.48139e-06,0
-2.2268e-05,2.28423e-05,-9.46894e-06,-1.60051e-05,1.05104e-05,-7.80279e-06,1.96473e-05,3.90515e-06,0
-2.06507e-05,2.93744e-05,-1.09031e-05,-9.39878e-06,-2.96286e-06,-1.1615e-05,2.01314e-05,1.73026e-05,0
-2.02069e-05,3.3783e-05,-1.25775e-05,1.0985e-05,-1.37304e-05,-1.38795e-05,2.2486e-05,3.49329e-05,0
-1.96814e-05,4.45347e-05,-1.42755e-05,2.75795e-05,-2.03497e-05,-1.09758e-05,2.35544e-05,5.19281e-05,0
-1.6431e-05,6.45411e-05,-1.81101e-05,4.24004e-05,-1.96293e-05,-4.08998e-06,2.21529e-05,6.04846e-05,0
-1.09684e-05,8.3542e-05,-2.23331e-05,6.09045e-05,-8.89995e-06,-1.94675e-06,1.89762e-05,5.41624e-05,0
-7.86891e-06,9.42033e-05,-2.42315e-05,7.83311e-05,1.11286e-05,-1.07591e-05,1.58147e-05,3.62352e-05,0
-1.01659e-05,9.72917e-05,-2.43478e-05,7.89825e-05,3.19558e-05,-2.14227e-05,1.36086e-05,9.51656e-06,0
-1.57837e-05,9.03406e-05,-2.52155e-05,5.64892e-05,4.31366e-05,-7.9484e-06,1.32543e-05,-2.17592e-05,0
-2.23368e-05,6.67941e-05,-2.45951e-05,2.7094e-05,4.26584e-05,4.06469e-05,1.33852e-05,-4.69258e-05,0
-2.8132e-05,2.99165e-05,-2.07102e-05,1.04425e-05,3.52239e-05,8.85154e-05,1.20194e-05,-5.90653e-05,0
-2.96093e-05,-5.60956e-06,-1.42671e-05,-6.33948e-06,2.30043e-05,9.54786e-05,1.13956e-05,-6.1675e-05,0
-2.71445e-05,-2.86668e-05,-8.08741e-06,-3.68009e-05,7.91776e-06,6.77557e-05,1.33805e-05,-5.26994e-05,0
-2.65988e-05,-4.20624e-05,-6.92717e-06,-6.25926e-05,-4.33641e-06,3.2758e-05,1.61645e-05,-2.69104e-05,0
-2.85366e-05,-5.29433e-05,-1.0157e-05,-7.21824e-05,-9.12785e-06,-2.70007e-06,1.8253e-05,1.23794e-06,0
-2.95342e-05,-5.93979e-05,-1.18938e-05,-8.38279e-05,-4.88856e-06,-5.28987e-05,2.04899e-05,1.22597e-05,0
-3.06854e-05,-5.58112e-05,-1.24178e-05,-0.000113026,7.33814e-06,-9.93251e-05,2.12895e-05,7.23837e-06,0
-3.204e-05,-4.58575e-05,-1.40281e-05,-0.000147604,1.92299e-05,-7.68292e-05,2.01055e-05,-6.64158e-06,0
-2.89573e-05,-3.78826e-05,-1.69769e-05,-0.000171826,2.28069e-05,-9.207e-06,1.98606e-05,-2.18432e-05,0
-1.57015e-05,-3.15928e-05,-2.08309e-05,-0.00016771,1.9812e-05,5.96142e-06,1.96606e-05,-2.93969e-05,0
-3.21724e-07,-2.25174e-05,-2.15647e-05,-0.000132361,2.21806e-05,-2.62071e-05,1.87885e-05,-3.1015e-05,0
5.14392e-06,-1.34287e-05,-1.74223e-05,-8.89597e-05,2.98377e-05,-4.62641e-05,1.8959e-05,-3.00221e-05,0
2.97819e-06,-7.9821e-06,-1.34883e-05,-3.89597e-05,3.12771e-05,-4.13932e-05,1.94476e-05,-2.61538e-05,0
-4.29986e-06,-2.56733e-06,-1.02801e-05,2.5904e-05,3.04056e-05,-3.42527e-05,1.9367e-05,-2.04173e-05,0
-1.51262e-05,6.22661e-06,-5.93824e-06,9.14085e-05,3.04416e-05,-3.45489e-05,1.75783e-05,-1.4895e-05,0
-2.6455e-05,1.48345e-05,-2.39426e-06,0.000127448,2.87523e-05,-3.30197e-05,1.56759e-05,-8.95534e-06,0
-3.65099e-05,1.98576e-05,-1.54857e-06,0.000122669,2.64763e-05,-3.02321e-05,1.49569e-05,-3.37253e-06,0
-4.50388e-05,1.98223e-05,-1.84986e-06,8.78918e-05,2.90396e-05,-2.13111e-05,1.56348e-05,1.49212e-06,0
-5.21708e-05,1.91479e-05,-8.71511e-07,4.18005e-05,3.77491e-05,9.77593e-06,1.625e-05,6.14555e-06,0
-5.72334e-05,1.90418e-05,1.64038e-06,8.1139e-06,4.50075e-05,3.17592e-05,1.49569e-05,1.06802e-05,0
-5.85232e-05,1.52152e-05,5.31682e-06,5.10502e-06,4.14993e-05,1.43489e-05,1.21121e-05,1.48061e-05,0
-5.59944e-05,6.81514e-06,8.55015e-06,3.28067e-05,3.06703e-05,-5.36094e-06,1.0004e-05,1.70276e-05,0
-5.09559e-05,-1.58776e-06,9.98998e-06,5.6876e-05,2.13064e-05,-1.90487e-06,9.87123e-06,1.76726e-05,0
-4.58563e-05,-4.65085e-06,6.45386e-06,4.50635e-05,1.46538e-05,8.65683e-06,9.68493e-06,1.69196e-05,0
-4.24503e-05,-5.10136e-06,-1.87561e-06,7.36923e-06,9.58664e-06,6.94424e-06,5.18859e-06,1.49361e-05,0
-3.98865e-05,-5.91972e-06,-1.15252e-05,-2.15384e-05,6.91744e-06,-1.7142e-06,-6.29683e-06,1.15735e-05,0
-3.73966e-05,-4.27897e-06,-1.93406e-05,-2.54418e-05,1.03625e-05,-7.30324e-06,-1.8692e-05,8.39498e-06,0
-3.04276e-05,3.50722e-06,-2.36374e-05,-7.08561e-06,2.10505e-05,-6.23223e-06,-2.29165e-05,7.01393e-06,0
-1.46828e-05,1.46819e-05,-2.30783e-05,2.43553e-05,3.60255e-05,1.13209e-06,-1.69293e-05,8.61288e-06,0
6.08237e-06,2.57653e-05,-1.99044e-05,5.6428e-05,4.76761e-05,1.24489e-05,-5.65501e-06,1.62625e-05,0
2.39848e-05,3.14739e-05,-1.57785e-05,7.99883e-05,5.30556e-05,2.151e-05,7.19428e-06,3.11288e-05,0
2.96863e-05,2.91026e-05,-1.12021e-05,8.18693e-05,5.48977e-05,2.36665e-05,2.12786e-05,4.38765e-05,0
7.81836e-06,2.08849e-05,-9.47236e-06,5.09364e-05,5.28047e-05,2.10995e-05,3.40877e-05,4.37441e-05,0
-3.82682e-05,1.29174e-05,-9.33428e-06,9.75304e-06,4.53857e-05,2.20723e-05,4.16851e-05,3.30942e-05,0
-7.94801e-05,1.19355e-05,-6.29548e-06,-4.37555e-06,3.79169e-05,2.83477e-05,4.24712e-05,2.05428e-05,0
-0.000103661,1.74116e-05,-7.72598e-07,1.00622e-05,3.62954e-05,2.40894e-05,3.96329e-05,9.68764e-06,0
-0.000112583,2.58367e-05,4.14108e-06,2.43081e-05,3.64103e-05,6.21e-06,3.84634e-05,1.64175e-06,0
-0.000102999,3.01434e-05,5.90711e-06,1.33948e-05,3.03141e-05,-8.69694e-06,3.63186e-05,-1.44813e-06,0
-8.75089e-05,2.74842e-05,4.91019e-06,-1.46243e-05,2.02864e-05,-1.17305e-05,3.10868e-05,-4.91654e-06,0
-6.83957e-05,2.01103e-05,3.16201e-06,-2.60239e-05,1.17053e-05,-9.10439e-06,2.47701e-05,-1.05934e-05,0
-3.5667e-05,1.49145e-05,2.5213e-06,-3.96156e-06,1.03652e-05,-4.50859e-06,1.77837e-05,-1.47107e-05,0
-6.7072e-06,1.43565e-05,2.59397e-06,4.03113e-05,1.57379e-05,-6.60999e-06,1.26581e-05,-1.72179e-05,0
-4.86279e-06,1.21606e-05,1.04974e-06,8.67296e-05,1.88386e-05,-1.88293e-05,9.9128e-06,-1.77467e-05,0
-2.40982e-05,1.00105e-05,-9.51989e-07,0.000120402,1.70469e-05,-3.21083e-05,8.6385e-06,-1.6148e-05,0
-3.805e-05,1.02594e-05,-2.72638e-06,0.000132308,1.31892e-05,-3.62757e-05,8.23193e-06,-1.34416e-05,0
-3.40791e-05,1.38923e-05,-3.2666e-06,0.000116156,1.26326e-05,-3.38077e-05,6.72755e-06,-1.13642e-05,0
-1.80375e-05,2.10031e-05,-2.85035e-06,8.11229e-05,1.75567e-05,-3.52708e-05,4.12163e-06,-9.53307e-06,0
2.20528e-06,2.98786e-05,-2.89223e-06,4.16397e-05,2.39579e-05,-4.23225e-05,9.30412e-07,-6.47714e-06,0
2.06465e-05,3.66352e-05,-3.3972e-06,5.5576e-06,2.55025e-05,-4.43766e-05,-1.82409e-06,-3.15432e-06,0
2.6757e-05,3.85735e-05,-3.11095e-06,-6.77961e-06,2.15252e-05,-3.52205e-05,-4.94132e-06,-1.1651e-06,0
1.55719e-05,3.75745e-05,-3.21406e-06,2.63758e-05,1.55853e-05,-1.69696e-05,-8.0835e-06,1.84725e-07,0
1.55916e-06,3.68218e-05,-3.34582e-06,7.8492e-05,1.06217e-05,1.04167e-05,-8.83789e-06,2.72886e-06,0
2.61083e-06,3.95834e-05,-2.30283e-06,9.1441e-05,4.94668e-06,2.88532e-05,-8.29182e-06,5.34503e-06,0
1.63013e-05,4.34412e-05,-1.00346e-06,4.37736e-05,-3.05255e-06,1.6476e-05,-8.26581e-06,6.21651e-06,0
2.43896e-05,4.58259e-05,-1.66878e-06,-3.18165e-05,-1.07168e-05,-1.27423e-05,-6.54199e-06,6.07096e-06,0
1.7147e-05,4.74807e-05,-3.82874e-06,-9.32721e-05,-1.59311e-05,-2.62086e-05,1.82014e-06,5.46116e-06,0
2.51485e-06,5.07145e-05,-4.04032e-06,-0.000126788,-2.10781e-05,-1.48285e-05,1.4132e-05,4.605e-06,0
-1.14339e-05,5.64951e-05,-3.18862e-06,-0.000132382,-2.84463e-05,3.73294e-06,2.27856e-05,4.89613e-06,0
-2.37825e-05,6.66753e-05,-2.58303e-06,-0.00011587,-3.38879e-05,8.4521e-06,2.61945e-05,6.92288e-06,0
-3.40865e-05,7.8863e-05,-7.13118e-07,-0.000100282,-3.33983e-05,2.61236e-06,2.55251e-05,8.54332e-06,0
-4.51669e-05,8.66461e-05,4.24381e-06,-0.000102939,-2.90988e-05,1.95861e-06,2.06165e-05,8.79843e-06,0
-6.17027e-05,8.65055e-05,7.70239e-06,-0.000116264,-2.0047e-05,9.31414e-06,1.21831e-05,9.2296e-06,0
-7.43701e-05,7.70187e-05,5.6633e-06,-0.000133358,-4.86531e-06,1.44141e-05,1.28068e-06,8.6435e-06,0
-6.48576e-05,5.38359e-05,-2.28391e-07,-0.000144103,9.23648e-06,1.28063e-05,-1.03051e-05,6.41525e-06,0
-3.80818e-05,2.54496e-05,-5.44583e-06,-0.000132258,1.3193e-05,6.85396e-06,-1.69442e-05,5.77958e-06,0
-1.90935e-05,4.94939e-06,-7.31664e-06,-0.0001187,9.92712e-06,-1.4293e-06,-1.7206e-05,4.4453e-06,0
-2.29564e-05,-7.98748e-06,-6.64097e-06,-0.000104017,8.15894e-06,-1.11451e-05,-1.58641e-05,3.05516e-06,0
-3.96195e-05,-1.20804e-05,-5.09011e-06,-4.88548e-05,8.86933e-06,-2.66109e-05,-1.31816e-05,2.66361e-06,0
-5.14887e-05,-7.90365e-06,-4.5399e-06,4.5802e-05,1.12846e-05,-4.78214e-05,-1.13673e-05,1.39802e-06,0
-5.53246e-05,-1.55719e-06,-6.027e-06,0.000133281,1.10038e-05,-5.74987e-05,-1.08732e-05,2.39296e-06,0
-5.79111e-05,-3.97146e-07,-9.89977e-06,0.000151006,1.04653e-05,-4.00196e-05,-1.13212e-05,5.13455e-06,0
-6.46771e-05,-1.52331e-07,-1.2488e-05,8.64944e-05,1.20281e-05,-1.33174e-05,-1.14488e-05,8.64039e-06,0
-6.99338e-05,1.71794e-06,-1.00681e-05,-1.49315e-05,1.08417e-05,-8.34973e-08,-9.88576e-06,1.01353e-05,0
-6.42045e-05,3.28045e-06,-3.41512e-06,-0.000102759,3.50902e-06,3.9036e-06,-5.79626e-06,1.01956e-05,0
-4.31562e-05,2.36993e-06,2.25978e-06,-0.000147886,-5.57777e-06,1.22822e-05,1.36261e-06,1.1017e-05,0
-1.63623e-05,-1.61997e-06,4.50515e-06,-0.000144793,-9.51483e-06,2.23196e-05,9.44997e-06,1.2019e-05,0
-4.18681e-06,-7.59021e-06,3.94245e-06,-0.000108841,-9.41434e-06,2.43817e-05,1.58013e-05,1.19662e-05,0
-1.64134e-05,-1.3644e-05,2.45208e-06,-4.81763e-05,-1.18368e-05,1.45857e-05,1.84995e-05,1.06895e-05,0
-4.28099e-05,-1.24546e-05,2.49184e-06,3.55734e-05,-1.59164e-05,-2.13344e-06,2.15271e-05,9.48273e-06,0
-6.32675e-05,-2.51953e-06,3.14537e-06,0.000106245,-6.15513e-06,-1.59927e-05,2.60415e-05,7.88116e-06,0
-6.7004e-05,1.01326e-05,1.75365e-06,0.000114007,2.24026e-05,-2.28136e-05,3.02652e-05,5.74868e-06,0
-5.71911e-05,1.7522e-05,-1.05134e-06,6.17966e-05,5.07329e-05,-2.41567e-05,3.20261e-05,2.38512e-06,0
-4.2335e-05,1.79536e-05,-2.13319e-06,1.14374e-05,5.97409e-05,-2.18218e-05,3.31145e-05,-1.83515e-06,0
-2.65875e-05,1.20675e-05,-2.9036e-06,9.4836e-06,5.20034e-05,-1.8791e-05,3.53995e-05,-6.10709e-06,0
-1.22546e-05,4.64104e-06,-4.87887e-06,5.44226e-05,4.32886e-05,-1.79095e-05,3.82952e-05,-8.94964e-06,0
-3.32302e-06,-2.64537e-06,-7.83771e-06,0.000114969,4.82872e-05,-1.79635e-05,3.96832e-05,-9.47395e-06,0
-2.31508e-06,-1.22313e-05,-1.16134e-05,0.00014592,6.4521e-05,-2.20895e-05,3.74051e-05,-8.0639e-06,0
-6.67229e-06,-2.54932e-05,-1.48418e-05,0.000120239,6.9586e-05,-2.98261e-05,3.18282e-05,-6.15511e-06,0
-1.23757e-05,-3.48699e-05,-1.56115e-05,5.88387e-05,4.88314e-05,-3.64341e-05,2.56889e-05,-3.51192e-06,0
-1.78253e-05,-3.19879e-05,-1.51584e-05,1.95196e-07,1.87126e-05,-3.92573e-05,2.22455e-05,-1.58668e-06,0
-2.23676e-05,-1.90948e-05,-1.64349e-05,-3.77357e-05,-2.67943e-06,-3.56045e-05,2.05682e-05,-6.34114e-07,0
-2.47751e-05,-3.59423e-06,-1.66652e-05,-6.98076e-05,-7.67315e-06,-3.14244e-05,1.82723e-05,-6.56957e-07,0
-2.79912e-05,9.29529e-06,-1.44847e-05,-0.000106261,-3.78601e-06,-3.50121e-05,1.72747e-05,-2.49472e-06,0
-3.69724e-05,1.81559e-05,-1.39816e-05,-0.000152585,-4.29482e-06,-4.69437e-05,1.72382e-05,-4.57141e-06,0
-4.374e-05,2.30483e-05,-1.37098e-05,-0.000224084,-9.27559e-06,-5.27965e-05,1.71518e-05,-5.05519e-06,0
-3.76864e-05,2.57648e-05,-1.35393e-05,-0.000293538,-1.60663e-05,-2.20878e-05,1.78261e-05,-2.51442e-06,0
-2.11628e-05,2.40141e-05,-1.67366e-05,-0.000303296,-2.02777e-05,4.41019e-05,1.80454e-05,5.94349e-07,0
-9.10467e-06,2.03969e-05,-2.31193e-05,-0.000231957,-2.31704e-05,8.20135e-05,1.75541e-05,1.58547e-06,0
-8.56121e-06,1.78052e-05,-2.62905e-05,-9.39277e-05,-2.33494e-05,5.44196e-05,1.63548e-05,6.81464e-07,0
-1.10902e-05,1.68235e-05,-2.54674e-05,5.26558e-05,-2.0386e-05,1.07128e-05,1.57795e-05,-1.492e-06,0
-5.12261e-06,1.61138e-05,-2.44887e-05,0.000137898,-1.26789e-05,-4.66271e-06,1.57563e-05,-4.32661e-06,0
1.22826e-05,1.44284e-05,-2.26817e-05,0.000148855,9.10293e-07,5.54141e-06,1.48397e-05,-6.58623e-06,0
2.11577e-05,1.10773e-05,-1.95057e-05,0.000114276,1.71251e-05,1.36001e-05,1.15731e-05,-7.29485e-06,0
4.13552e-06,6.52305e-06,-1.51085e-05,6.08258e-05,2.84494e-05,4.47889e-06,8.27169e-06,-5.49167e-06,0
-2.72643e-05,3.12078e-06,-1.20825e-05,4.68166e-06,3.15514e-05,-1.01829e-05,7.21598e-06,-2.78383e-06,0
-5.10507e-05,2.10852e-06,-9.78157e-06,-2.20601e-05,3.37312e-05,-1.58546e-05,8.23707e-06,-1.29127e-06,0
-6.03288e-05,4.25108e-06,-7.74589e-06,-3.46703e-06,3.90608e-05,-1.12523e-05,9.26255e-06,-2.22484e-06,0
-6.12394e-05,7.5341e-06,-5.75515e-06,3.51166e-05,4.36986e-05,-3.82109e-06,9.50766e-06,-3.54487e-06,0
-5.9119e-05,1.10712e-05,-3.58466e-06,5.47056e-05,4.32571e-05,5.07754e-06,9.57757e-06,-3.38299e-06,0
-5.42794e-05,1.54251e-05,-7.11642e-07,4.44727e-05,4.19721e-05,1.35804e-05,7.37763e-06,-2.36003e-06,0
-4.60082e-05,2.44423e-05,1.7318e-07,2.42839e-05,4.31126e-05,1.84716e-05,-1.69228e-06,-5.31577e-07,0
-3.28342e-05,4.12348e-05,-2.32481e-06,1.93479e-05,4.3995e-05,1.75536e-05,-1.75262e-05,3.94481e-06,0
-1.04902e-05,6.16197e-05,-4.76175e-06,2.86944e-05,4.35865e-05,1.61164e-05,-2.99838e-05,1.02622e-05,0
1.2222e-05,7.82681e-05,-5.45628e-06,2.77978e-05,4.74409e-05,1.93856e-05,-3.004e-05,1.50995e-05,0
1.72827e-05,8.61371e-05,-6.36163e-06,9.16938e-06,5.1804e-05,2.58124e-05,-1.85566e-05,1.98413e-05,0
3.78474e-06,8.2194e-05,-7.36101e-06,-1.6083e-05,4.77052e-05,3.04879e-05,-2.35629e-06,2.34033e-05,0
-1.32348e-05,6.87278e-05,-5.76755e-06,-3.09246e-05,3.61703e-05,3.44601e-05,1.28749e-05,2.25415e-05,0
-2.36436e-05,4.67013e-05,-4.26051e-06,-3.29905e-05,2.23875e-05,3.63607e-05,2.76877e-05,1.73363e-05,0
-2.77886e-05,1.93685e-05,-5.46023e-06,-3.88921e-05,8.39801e-06,3.1849e-05,4.00774e-05,9.98434e-06,0
-2.98715e-05,-2.84003e-06,-8.29544e-06,-4.96791e-05,-4.71179e-06,2.15179e-05,4.65214e-05,4.63184e-06,0
-3.08508e-05,-1.59535e-05,-9.72211e-06,-4.78967e-05,-1.27609e-05,8.93482e-06,4.80724e-05,3.7738e-06,0
-2.034e-05,-2.28786e-05,-1.03822e-05,-2.05733e-05,-1.55006e-05,-9.94668e-06,4.5061e-05,3.25203e-06,0
-5.4377e-07,-2.41556e-05,-1.197e-05,2.18213e-05,-1.3555e-05,-3.00714e-05,4.05957e-05,-1.1052e-06,0
9.57177e-06,-1.8727e-05,-1.29261e-05,7.02497e-05,4.26652e-06,-3.66502e-05,3.72534e-05,-7.78306e-06,0
5.67727e-06,-1.20857e-05,-1.16407e-05,0.000131372,6.08379e-05,-3.37456e-05,3.4875e-05,-1.31619e-05,0
-5.94937e-06,-1.01709e-05,-7.94853e-06,0.000192407,0.000134558,-3.44722e-05,3.13606e-05,-1.59167e-05,0
-2.45499e-05,-1.10588e-05,-3.50421e-06,0.00022559,0.000160615,-3.8786e-05,2.84309e-05,-1.5548e-05,0
-5.12193e-05,-6.96801e-06,-2.60598e-06,0.000209979,0.000116076,-4.213e-05,2.63122e-05,-1.17543e-05,0
-7.76437e-05,1.43446e-06,-5.11425e-06,0.00015286,3.90051e-05,-4.70047e-05,2.35887e-05,-6.74245e-06,0
-9.20227e-05,6.54088e-06,-7.48306e-06,7.58412e-05,-6.5345e-06,-6.5284e-05,2.15318e-05,-3.26595e-06,0
-9.19122e-05,6.4149e-06,-7.60061e-06,2.15249e-06,6.83797e-06,-0.000115561,2.05521e-05,-1.13197e-06,0
-8.57439e-05,3.79216e-06,-5.72837e-06,-4.7101e-05,4.50623e-05,-0.000171342,1.79544e-05,1.30186e-06,0
-8.09304e-05,-5.08555e-07,-3.7146e-06,-6.57965e-05,5.2117e-05,-0.000157035,1.36013e-05,2.20374e-06,0
-7.54465e-05,-7.68921e-06,-2.2378e-06,-7.9481e-05,2.2401e-05,-5.95639e-05,1.16828e-05,3.33162e-06,0
-6.5352e-05,-1.70257e-05,-7.56578e-07,-0.000112944,8.7528e-09,2.54703e-05,1.37347e-05,1.3022e-05,0
-5.65381e-05,-2.88716e-05,1.27916e-07,-0.000145141,5.96328e-06,2.89907e-05,1.75584e-05,3.03551e-05,0
-5.72527e-05,-4.18711e-05,-2.57351e-06,-0.000134799,1.72072e-05,-1.21164e-05,1.92911e-05,4.21252e-05,0
-6.24552e-05,-4.79023e-05,-6.7091e-06,-7.7823e-05,7.65896e-06,-2.60545e-05,1.78163e-05,4.24536e-05,0
-6.25832e-05,-3.95938e-05,-6.68443e-06,-9.82601e-06,-1.70811e-05,4.58783e-06,1.32793e-05,3.16464e-05,0
-5.97378e-05,-1.85517e-05,-2.00397e-06,3.79686e-05,-4.18715e-05,2.83957e-05,8.14215e-06,1.00519e-05,0
-6.04482e-05,9.54008e-06,3.28032e-06,3.63552e-05,-6.6767e-05,1.65448e-05,3.42567e-06,-1.54596e-05,0
-6.28922e-05,3.6583e-05,4.88655e-06,-1.96654e-05,-9.20229e-05,1.92597e-06,-3.39786e-07,-3.60641e-05,0
-6.53464e-05,5.49174e-05,1.92837e-06,-7.64553e-05,-0.000103357,3.62965e-06,-4.57006e-06,-4.4368e-05,0
-7.01634e-05,6.32334e-05,-2.39504e-06,-7.18464e-05,-9.51116e-05,1.04413e-05,-1.19499e-05,-4.11526e-05,0
-7.71139e-05,6.25562e-05,-5.40639e-06,7.06443e-06,-6.91782e-05,6.93608e-06,-2.05417e-05,-3.34639e-05,0
-8.38951e-05,5.38107e-05,-8.15268e-06,6.90821e-05,-4.24978e-05,-1.5162e-06,-2.48415e-05,-2.51246e-05,0
-8.59743e-05,3.9616e-05,-1.37486e-05,4.23161e-05,-3.01748e-05,3.29999e-06,-2.19735e-05,-1.60709e-05,0
-7.32667e-05,1.85881e-05,-1.84854e-05,-1.4516e-05,-2.7116e-05,1.60393e-05,-1.24637e-05,-6.36418e-06,0
-4.83696e-05,-9.8659e-06,-2.02416e-05,-2.63822e-05,-1.69985e-05,2.45414e-05,4.87296e-07,-6.9435e-07,0
-2.35237e-05,-3.84935e-05,-2.09739e-05,5.01573e-05,7.69581e-06,1.7457e-05,1.56935e-05,1.3111e-06,0
-5.46839e-06,-5.48757e-05,-2.0819e-05,0.000169571,2.54744e-05,-1.8493e-05,3.21813e-05,2.92551e-06,0
3.60286e-07,-4.93442e-05,-2.06425e-05,0.000262003,2.5972e-05,-6.02128e-05,4.36377e-05,3.57611e-06,0
5.64077e-06,-2.56669e-05,-2.05289e-05,0.000291448,2.07194e-05,-5.99252e-05,4.74676e-05,4.56468e-06,0
2.80504e-05,3.92788e-06,-2.12339e-05,0.000250243,1.7873e-05,-2.74969e-05,4.49485e-05,7.36984e-06,0
6.01496e-05,3.07709e-05,-2.166e-05,0.000154342,1.24189e-05,-8.48509e-06,3.78594e-05,1.04423e-05,0
7.89374e-05,4.95448e-05,-2.21302e-05,3.46169e-05,1.02384e-07,-1.4797e-05,2.77594e-05,1.15784e-05,0
7.76075e-05,5.63552e-05,-2.28326e-05,-5.90863e-05,-1.40468e-05,-2.85883e-05,1.79958e-05,9.6085e-06,0
6.68137e-05,5.53091e-05,-2.16316e-05,-0.000103466,-1.91923e-05,-3.28413e-05,1.15907e-05,4.66767e-06,0
5.86785e-05,5.40949e-05,-1.68994e-05,-0.000114151,-1.08579e-05,-2.54843e-05,8.72252e-06,4.51367e-07,0
5.01096e-05,5.53125e-05,-9.53759e-06,-0.00013118,2.29052e-06,-1.5907e-05,7.90988e-06,-6.60399e-07,0
3.01439e-05,5.61245e-05,-5.59834e-06,-0.000160949,1.10964e-05,-1.45433e-05,7.81322e-06,-5.21797e-07,0
4.12771e-06,5.55456e-05,-1.03358e-05,-0.000189081,1.38473e-05,-2.73935e-05,7.74812e-06,-1.25105e-06,0
-1.54769e-05,5.38348e-05,-1.84556e-05,-0.000204015,1.19533e-05,-5.31994e-05,8.24374e-06,-2.75041e-06,0
-3.03483e-05,4.96511e-05,-2.07901e-05,-0.000194464,2.02089e-06,-6.80314e-05,1.02138e-05,-3.74381e-06,0
-5.1312e-05,4.21775e-05,-1.78687e-05,-0.000150758,-1.71363e-05,-4.8256e-05,1.20319e-05,-3.15385e-06,0
-7.77882e-05,3.18192e-05,-1.65699e-05,-0.000104901,-3.66023e-05,-1.94293e-05,1.14084e-05,-2.43853e-06,0
-9.9197e-05,2.12557e-05,-1.92013e-05,-9.01877e-05,-4.36933e-05,-2.28485e-05,8.66382e-06,-2.84579e-06,0
-0.000107831,1.43292e-05,-2.21093e-05,-0.000100669,-3.54838e-05,-4.59765e-05,5.33122e-06,-2.26577e-06,0
-0.000105667,1.32883e-05,-2.23055e-05,-0.000120372,-2.14477e-05,-5.3841e-05,3.42668e-06,-1.64569e-06,0
-0.000108802,1.51877e-05,-2.1718e-05,-0.000122327,-1.27611e-05,-4.83631e-05,3.04012e-06,-1.89909e-06,0
-0.000134769,1.66876e-05,-2.17491e-05,-9.08678e-05,-9.1757e-06,-3.80499e-05,3.60199e-06,-2.40165e-06,0
-0.000166403,1.12585e-05,-2.02143e-05,-3.62766e-05,1.44888e-06,1.37034e-06,5.56444e-06,-1.10535e-06,0
-0.000163302,-4.8647e-06,-1.72746e-05,1.6419e-05,2.58418e-05,3.4158e-05,4.90928e-06,1.38267e-06,0
-0.000122944,-2.35129e-05,-1.25902e-05,5.11404e-05,5.48268e-05,8.60752e-06,3.50661e-06,7.84003e-07,0
-7.34324e-05,-4.0351e-05,-6.28741e-06,5.66005e-05,8.13721e-05,-3.84527e-05,4.82981e-06,-2.04197e-08,0
-3.43254e-05,-5.74557e-05,-2.1384e-06,3.30227e-05,0.000101979,-6.48134e-05,6.13247e-06,8.91796e-07,0
-1.07042e-05,-6.95867e-05,-1.93524e-06,-4.40229e-06,0.000104902,-3.16541e-05,9.49733e-07,1.11441e-06,0
1.0852e-05,-6.95719e-05,-4.92099e-06,-4.11458e-05,8.89277e-05,4.09163e-05,-1.02355e-05,-8.49775e-07,0
2.67946e-05,-6.16056e-05,-9.55551e-06,-6.10523e-05,6.6687e-05,8.09443e-05,-1.70923e-05,-4.65637e-06,0
2.39283e-05,-5.17231e-05,-1.20392e-05,-6.92152e-05,4.66477e-05,6.54815e-05,-1.51962e-05,-8.64584e-06,0
1.20811e-05,-4.06413e-05,-1.08287e-05,-7.2293e-05,3.16195e-05,3.42774e-05,-5.3514e-06,-1.11625e-05,0
1.02379e-05,-2.84917e-05,-8.46911e-06,-6.659e-05,1.83201e-05,3.37027e-05,7.38007e-06,-1.0518e-05,0
1.84427e-05,-1.64889e-05,-8.11329e-06,-6.33096e-05,4.34508e-06,4.98724e-05,2.07081e-05,-6.12424e-06,0
2.24262e-05,-6.15152e-06,-9.66573e-06,-7.37166e-05,-6.70306e-06,4.8482e-05,3.44731e-05,-4.25752e-07,0
1.71625e-05,7.12502e-07,-1.13548e-05,-8.59101e-05,-9.28836e-06,2.99468e-05,4.63437e-05,1.85856e-06,0
7.5801e-06,2.88528e-06,-1.15367e-05,-6.7261e-05,-2.80154e-06,1.8106e-05,5.33649e-05,1.15597e-06,0
2.07481e-06,4.19728e-06,-8.43895e-06,-8.75112e-06,9.43807e-06,1.80159e-05,5.496e-05,3.7509e-07,0
5.15076e-06,8.08072e-06,-2.81732e-06,5.82772e-05,2.40506e-05,2.18631e-05,5.36527e-05,1.40867e-06,0
1.57182e-05,1.4137e-05,3.18006e-06,8.55169e-05,3.4157e-05,2.47571e-05,5.2416e-05,6.70376e-06,0
2.53576e-05,2.03723e-05,7.26786e-06,6.72403e-05,3.58909e-05,2.83639e-05,5.18787e-05,1.69261e-05,0
2.87523e-05,2.55293e-05,8.95933e-06,2.87293e-05,2.82695e-05,3.01764e-05,4.97857e-05,2.69345e-05,0
2.49157e-05,3.0596e-05,8.86333e-06,-1.70656e-05,8.68539e-06,2.75053e-05,4.4323e-05,2.90421e-05,0
1.5313e-05,3.84995e-05,7.39599e-06,-5.40775e-05,-1.98879e-05,1.9946e-05,3.44531e-05,2.64753e-05,0
7.76678e-07,4.79631e-05,5.54376e-06,-5.64181e-05,-3.82236e-05,1.01577e-05,2.39502e-05,3.40937e-05,0
-1.42809e-05,5.77825e-05,4.36799e-06,-1.55716e-05,-3.08009e-05,3.05979e-06,1.64036e-05,4.68543e-05,0
-2.28341e-05,7.05968e-05,4.3688e-06,4.69163e-05,-4.60342e-06,1.34313e-07,1.21645e-05,4.10885e-05,0
-1.54065e-05,8.1682e-05,4.4215e-06,9.60527e-05,1.68294e-05,-2.5811e-06,9.13053e-06,1.58736e-05,0
8.66755e-06,8.62783e-05,3.13397e-06,0.000126693,2.15532e-05,-9.1837e-06,5.43681e-06,-8.62487e-06,0
3.213e-05,8.60262e-05,2.92185e-06,0.000155448,2.7004e-05,-1.61016e-05,1.56624e-06,-2.45635e-05,0
3.466e-05,8.17534e-05,4.02954e-06,0.000148325,5.01528e-05,-1.17862e-05,-1.91771e-07,-3.59993e-05,0
2.23616e-05,7.33085e-05,4.28065e-06,8.97755e-05,7.63773e-05,-1.79709e-06,-3.57288e-07,-4.5599e-05,0
1.61983e-05,5.95674e-05,2.80006e-06,4.4047e-05,7.75298e-05,-2.30212e-06,-1.04749e-07,-5.15492e-05,0
8.4322e-06,4.32953e-05,-2.83419e-08,5.11775e-05,5.48399e-05,-7.67273e-06,2.05178e-06,-4.96182e-05,0
-1.45637e-05,2.43574e-05,-3.9127e-06,7.96533e-05,3.38709e-05,-1.2911e-05,1.83166e-06,-4.31572e-05,0
-4.41767e-05,3.6529e-06,-7.57386e-06,8.46769e-05,2.69231e-05,-1.77387e-05,-2.16163e-06,-3.33319e-05,0
-7.04846e-05,-8.52525e-06,-9.21977e-06,6.79685e-05,2.70825e-05,-2.02169e-05,-5.77562e-06,-2.11123e-05,0
-9.1693e-05,-5.6243e-06,-8.05398e-06,6.27612e-05,2.72364e-05,-1.75867e-05,-6.37943e-06,-8.16551e-06,0
-9.7527e-05,9.12956e-06,-4.53927e-06,7.13879e-05,2.64672e-05,-7.16576e-06,-4.67164e-06,3.15092e-06,0
-7.99687e-05,2.27185e-05,-1.19065e-06,7.0996e-05,2.45131e-05,9.23986e-06,-6.53815e-06,1.08306e-05,0
-5.54868e-05,2.47671e-05,3.93694e-07,5.89725e-05,2.11886e-05,1.30955e-05,-1.25867e-05,1.58066e-05,0
-4.49901e-05,1.03516e-05,-5.41839e-07,4.43789e-05,1.43935e-05,-3.11993e-06,-1.57311e-05,1.97262e-05,0
-5.20336e-05,-1.63075e-05,-2.04865e-06,2.74258e-05,5.07215e-06,-2.68783e-05,-1.1736e-05,2.21308e-05,0
-7.51252e-05,-4.72258e-05,-2.72508e-06,1.49108e-05,-2.29785e-06,-5.00207e-05,-3.42529e-06,1.95796e-05,0
-0.000105295,-7.66524e-05,-2.1647e-06,1.53648e-05,-8.68273e-06,-6.48555e-05,4.59335e-06,1.37621e-05,0
-0.00012641,-9.95687e-05,-1.5328e-06,2.3012e-05,-1.51226e-05,-5.9299e-05,1.11469e-05,8.0377e-06,0
-0.000129833,-0.000110718,-1.29526e-06,1.6855e-05,-1.86035e-05,-2.719e-05,1.68239e-05,3.56141e-06,0
-0.000121516,-0.000109095,-6.58288e-07,-1.24062e-05,-1.94741e-05,1.91106e-05,2.13882e-05,-1.62559e-06,0
-0.000107994,-9.87666e-05,-9.60949e-07,-4.75113e-05,-2.29882e-05,5.62034e-05,2.45388e-05,-6.52977e-06,0
-8.82572e-05,-7.85298e-05,-5.12597e-06,-6.90207e-05,-2.87503e-05,7.20398e-05,2.66526e-05,-9.57934e-06,0
-6.3391e-05,-4.87105e-05,-1.2027e-05,-7.92801e-05,-3.21573e-05,5.63517e-05,2.67706e-05,-9.91676e-06,0
-3.44323e-05,-1.96005e-05,-1.638e-05,-8.91853e-05,-3.0166e-05,5.14915e-06,2.38687e-05,-7.62739e-06,0
-6.90666e-06,-2.04998e-06,-1.60944e-05,-0.000111185,-2.26448e-05,-5.95634e-05,1.83469e-05,-2.99169e-06,0
1.22472e-05,7.93876e-06,-1.31369e-05,-0.000133924,-1.18649e-05,-0.000122333,1.17106e-05,1.28959e-06,0
2.09205e-05,1.95959e-05,-1.05687e-05,-0.00010225,-3.35545e-06,-0.000147957,4.34585e-06,2.77178e-06,0
1.7342e-05,3.13098e-05,-8.19227e-06,1.21474e-05,4.38748e-06,-0.000113327,-4.71128e-06,2.77211e-06,0
1.03805e-05,3.7597e-05,-5.18761e-06,0.000146753,1.84873e-05,-6.76453e-05,-1.19802e-05,8.38274e-07,0
7.95328e-06,3.56015e-05,-4.08016e-06,0.000192718,2.83617e-05,-4.5314e-05,-1.4488e-05,-8.16318e-07,0
1.81942e-06,3.12034e-05,-4.81977e-06,0.000156101,2.76684e-05,-2.2947e-05,-1.20866e-05,-5.49712e-08,0
-1.64582e-05,3.86005e-05,-3.40133e-06,0.000112718,1.16482e-05,9.0846e-06,-2.07044e-06,1.37181e-06,0
-4.15484e-05,5.2802e-05,-1.00377e-06,7.91824e-05,-6.85507e-06,5.58566e-05,1.41895e-05,3.8501e-06,0
-6.44726e-05,5.56342e-05,-4.44389e-07,4.92632e-05,1.23931e-05,9.67418e-05,3.08483e-05,7.61619e-06,0
-7.96246e-05,4.10511e-05,-1.61358e-06,1.30724e-05,6.66779e-05,8.41185e-05,4.27714e-05,8.66987e-06,0
-8.06221e-05,2.51717e-05,-2.87757e-06,-3.58673e-05,0.000143836,3.82302e-05,4.66408e-05,6.83199e-06,0
-6.55911e-05,1.89767e-05,-3.75961e-06,-0.000120465,0.000218586,8.34244e-06,4.11447e-05,9.17776e-06,0
