ch1,ch2,ch3,ch4,ch5,ch6,ch7,ch8,class
-2.62915e-05,2.07159e-06,-1.233e-06,4.84362e-05,6.81405e-05,1.05293e-05,-5.24262e-05,3.94524e-06,0
-1.29543e-05,2.06041e-05,3.99877e-08,6.67458e-05,8.48729e-05,8.62386e-06,0.000222093,3.7254e-06,0
-2.26361e-06,4.15709e-05,1.46436e-06,6.78051e-05,6.65699e-05,7.90823e-06,0.000383804,3.57459e-06,0
8.56716e-06,5.90912e-05,3.28231e-06,4.53532e-05,4.57315e-05,8.13205e-06,0.000452383,3.49384e-06,0
2.13142e-05,7.28934e-05,4.78494e-06,6.83627e-06,3.66328e-05,9.80577e-06,0.000443267,4.57454e-06,0
2.93565e-05,8.0799e-05,4.66629e-06,-2.25722e-05,2.80423e-05,1.29316e-05,0.000377427,5.73324e-06,0
2.19327e-05,7.84345e-05,1.70673e-06,-1.95442e-05,1.89151e-05,1.3102e-05,0.0003097,5.34327e-06,0
5.32983e-06,6.45067e-05,-5.78286e-06,-3.58602e-06,1.43696e-05,7.29233e-06,0.000305878,4.79847e-06,0
-8.95132e-06,4.0137e-05,-1.55601e-05,-4.11258e-06,1.29317e-05,-2.70588e-06,0.000407215,6.14602e-06,0
-1.89404e-05,1.84601e-05,-1.59816e-05,-8.38441e-06,1.54098e-05,-7.14825e-06,0.000545996,7.75571e-06,0
-2.42258e-05,1.21486e-05,-4.80324e-06,6.40201e-06,2.22631e-05,-3.92298e-06,0.000628333,5.91207e-06,0
-2.85697e-05,1.1102e-05,3.76929e-06,1.78624e-05,2.7274e-05,-2.28427e-06,0.000633771,2.40758e-06,0
-3.24888e-05,5.11428e-07,3.07378e-06,8.68132e-06,2.82368e-05,-1.66894e-06,0.000537282,2.10298e-06,0
-3.75917e-05,-1.7273e-05,-1.47483e-06,-8.36988e-06,2.25948e-05,-1.29497e-06,0.000318158,3.14988e-06,0
-4.22619e-05,-2.83374e-05,-5.91838e-06,-2.34027e-05,8.03743e-06,-5.70888e-06,1.06516e-05,3.22769e-06,0
-4.29028e-05,-2.75092e-05,-8.57355e-06,-2.82075e-05,-5.66884e-06,-1.37893e-05,-0.000267558,2.69344e-06,0
-3.92156e-05,-1.9926e-05,-8.84581e-06,-2.13085e-05,-1.0014e-05,-1.97577e-05,-0.000449539,2.95892e-06,0
-3.27793e-05,-1.09392e-05,-9.63359e-06,-8.59548e-06,-9.30801e-06,-1.98921e-05,-0.000535369,4.18227e-06,0
-2.51575e-05,-3.1182e-06,-1.18589e-05,8.37706e-06,-1.27556e-05,-1.39636e-05,-0.000536716,4.65521e-06,0
-1.61958e-05,1.86199e-06,-1.27693e-05,3.18734e-05,-2.04418e-05,-6.55993e-06,-0.000485247,5.31724e-06,0
-9.98916e-06,5.16823e-06,-9.91414e-06,5.25748e-05,-2.63783e-05,-8.11808e-06,-0.000415116,5.76171e-06,0
-1.27331e-05,1.06525e-05,-3.61516e-06,7.28292e-05,-2.48631e-05,-1.63165e-05,-0.000346866,4.75382e-06,0
-2.30063e-05,1.909e-05,1.13306e-06,9.71189e-05,-1.46814e-05,-2.34688e-05,-0.000271731,3.61193e-06,0
-2.95563e-05,2.98325e-05,-5.17951e-07,0.000118345,-2.70827e-06,-2.79044e-05,-0.000218297,5.11165e-06,0
-2.78819e-05,4.05151e-05,-6.29056e-06,0.00013438,7.00491e-07,-3.17304e-05,-0.00023536,7.28233e-06,0
-2.15355e-05,4.65921e-05,-8.89163e-06,0.000138822,-8.96885e-06,-3.3281e-05,-0.000288408,8.28944e-06,0
-1.70412e-05,4.58416e-05,-5.71394e-06,0.000120063,-2.22094e-05,-3.04185e-05,-0.000245316,8.12082e-06,0
-1.73084e-05,4.01632e-05,-3.17134e-07,8.34413e-05,-2.67179e-05,-2.29715e-05,-6.72019e-05,6.58219e-06,0
-2.0341e-05,3.10952e-05,9.73393e-07,3.50149e-05,-2.32359e-05,-1.479e-05,0.000142011,5.41117e-06,0
-2.26224e-05,2.26436e-05,-5.0014e-06,-3.4169e-05,-1.8485e-05,-9.67541e-06,0.00026872,6.05168e-06,0
-2.28047e-05,1.81114e-05,-1.03641e-05,-0.000119282,-1.00094e-05,-6.84498e-06,0.000298413,7.52443e-06,0
-2.1587e-05,1.59443e-05,-5.99638e-06,-0.000188689,3.67492e-06,-4.22521e-06,0.000274004,7.58367e-06,0
-2.11706e-05,1.24731e-05,2.7226e-06,-0.000220526,1.77786e-05,-1.74259e-06,0.000225428,5.39143e-06,0
-2.37734e-05,1.01426e-05,8.36774e-06,-0.000218358,2.66322e-05,-1.64528e-07,0.000186326,3.3426e-06,0
-2.83484e-05,1.32857e-05,8.72649e-06,-0.000181648,3.32817e-05,1.02772e-06,0.000203256,3.36713e-06,0
-3.32592e-05,1.77279e-05,5.79919e-06,-0.000110628,3.82719e-05,-6.52534e-06,0.000273967,8.90702e-07,0
-3.64881e-05,1.42065e-05,3.35504e-06,-4.53381e-05,3.77795e-05,-1.87956e-05,0.000343405,2.17679e-08,0
-4.10493e-05,4.73822e-06,1.07288e-06,-3.27612e-05,3.20033e-05,-2.40551e-05,0.000377033,4.41943e-06,0
-4.93247e-05,-1.4795e-06,-8.15976e-07,-5.17549e-05,2.4292e-05,-2.23826e-05,0.00032173,6.47165e-06,0
-5.73203e-05,-1.44421e-06,-3.30069e-07,-6.29934e-05,2.16811e-05,-1.56106e-05,0.000171403,4.59009e-06,0
-6.1284e-05,1.56559e-06,1.37125e-06,-5.15615e-05,2.60297e-05,-1.16929e-05,-2.3845e-06,2.33749e-06,0
-6.13926e-05,7.84027e-07,2.50425e-06,-3.96648e-05,3.3255e-05,-1.30633e-05,-0.000136154,6.42959e-07,0
-6.07529e-05,-4.10722e-06,2.83183e-06,-4.88325e-05,3.55968e-05,-1.59474e-05,-0.000184797,-1.41899e-06,0
-5.81797e-05,-1.13383e-05,-1.93087e-07,-7.79129e-05,2.9384e-05,-1.89916e-05,-0.000156484,-3.01376e-06,0
-5.14675e-05,-1.85416e-05,-4.98224e-06,-0.000103894,1.8077e-05,-2.44514e-05,-9.4904e-05,-3.99074e-06,0
-4.2323e-05,-2.24529e-05,-8.49674e-06,-0.000100622,8.59436e-06,-3.41656e-05,-3.78758e-05,-4.91056e-06,0
-3.30398e-05,-1.93093e-05,-8.76672e-06,-7.1149e-05,3.23549e-06,-3.49663e-05,7.18974e-08,-5.12353e-06,0
-2.3542e-05,-1.01302e-05,-6.03129e-06,-2.80513e-05,-1.74225e-06,-8.0299e-06,1.02947e-05,-4.4158e-06,0
-1.54831e-05,6.85116e-07,-2.40526e-06,8.69517e-06,-7.23658e-06,2.6774e-05,-1.53822e-05,-3.42612e-06,0
-1.27491e-05,1.04669e-05,-1.00189e-06,1.86871e-05,-1.11515e-05,2.01164e-05,-6.18634e-05,-1.62723e-06,0
-1.58002e-05,1.72384e-05,-3.54869e-06,-7.64061e-06,-1.37364e-05,-2.5073e-05,-0.000100812,3.41201e-07,0
-2.161e-05,1.89662e-05,-7.30847e-06,-4.25588e-05,-1.56096e-05,-5.30836e-05,-0.000116299,4.07308e-08,0
-2.6361e-05,1.59893e-05,-1.0176e-05,-4.81885e-05,-1.69922e-05,-2.54347e-05,-0.000121796,-1.01316e-06,0
-3.03211e-05,1.3005e-05,-1.23819e-05,-1.20865e-05,-2.12913e-05,3.36192e-05,-0.00012976,-8.37751e-07,0
-3.46677e-05,1.19238e-05,-1.50042e-05,3.82104e-05,-3.34781e-05,6.34757e-05,-0.000148026,9.05219e-08,0
-3.91974e-05,1.23397e-05,-1.74915e-05,6.62295e-05,-4.984e-05,4.10856e-05,-0.000172243,-1.23423e-07,0
-4.2387e-05,1.40358e-05,-1.87421e-05,6.37639e-05,-5.93694e-05,4.24439e-06,-0.000185273,-1.638e-06,0
-4.28189e-05,1.53826e-05,-1.76517e-05,4.82263e-05,-5.96083e-05,-1.13863e-05,-0.000168113,-2.69631e-06,0
-4.04546e-05,1.41716e-05,-1.49915e-05,3.39943e-05,-5.61155e-05,-9.51341e-06,-0.000128336,-2.18978e-06,0
-3.83182e-05,1.19029e-05,-1.32217e-05,2.44888e-05,-5.03564e-05,-5.62449e-06,-9.06874e-05,-1.13192e-06,0
-3.79523e-05,1.00875e-05,-1.2577e-05,1.15253e-05,-4.07867e-05,-5.85845e-06,-7.01385e-05,-3.82407e-07,0
-3.83633e-05,1.00513e-05,-1.126e-05,6.84896e-07,-2.9753e-05,-7.07212e-06,-6.0649e-05,4.45977e-07,0
-3.90466e-05,1.28488e-05,-8.60543e-06,9.14144e-06,-1.82847e-05,-7.31942e-06,-5.30218e-05,2.1913e-06,0
-3.78402e-05,1.78026e-05,-5.42105e-06,2.90686e-05,-7.85593e-06,-8.60857e-06,-4.44617e-05,4.09383e-06,0
-3.47632e-05,2.39101e-05,-1.04026e-06,4.25775e-05,5.10318e-06,-1.08563e-05,-2.61755e-05,4.98174e-06,0
-3.19829e-05,2.95585e-05,3.37625e-06,4.22331e-05,3.36786e-05,-1.24694e-05,4.42564e-06,5.05904e-06,0
-3.08797e-05,3.50962e-05,3.07409e-06,4.76232e-05,7.69032e-05,-1.39969e-05,3.29382e-05,4.40916e-06,0
-3.41823e-05,3.81568e-05,-1.05703e-06,7.07667e-05,0.000103441,-1.6424e-05,4.76376e-05,4.7265e-06,0
-3.9104e-05,3.51424e-05,-5.95086e-06,9.50348e-05,8.23106e-05,-2.07652e-05,5.15082e-05,3.40957e-06,0
-4.03998e-05,2.70321e-05,-1.05785e-05,0.000103585,2.7155e-05,-2.50559e-05,5.34056e-05,-1.33314e-06,0
-3.7833e-05,1.77496e-05,-1.39252e-05,9.13429e-05,-1.83974e-05,-2.60307e-05,5.5102e-05,-5.75072e-06,0
-3.2451e-05,1.34773e-05,-1.6707e-05,5.82046e-05,-1.78789e-05,-2.37678e-05,2.95157e-05,-6.797e-06,0
-2.61666e-05,1.38606e-05,-2.12203e-05,7.13122e-06,3.05821e-05,-1.96948e-05,-4.03891e-05,-5.2993e-06,0
-1.99084e-05,1.33497e-05,-2.64436e-05,-4.87307e-05,9.69652e-05,-1.28209e-05,-9.53464e-05,-3.8533e-06,0
-1.71553e-05,1.14957e-05,-2.83219e-05,-8.77623e-05,0.000133878,-4.84687e-06,-5.7426e-05,-2.7641e-06,0
-2.24468e-05,1.20556e-05,-2.40323e-05,-0.000102815,0.000110222,-1.56639e-06,6.04395e-05,-1.00438e-06,0
-3.37664e-05,1.57088e-05,-1.62191e-05,-9.97597e-05,3.94677e-05,-4.32435e-06,0.000178748,-1.70486e-07,0
-4.34007e-05,1.96803e-05,-1.15558e-05,-8.70687e-05,-3.85773e-05,-7.73974e-06,0.000241043,-1.43817e-06,0
-4.64332e-05,2.29037e-05,-1.19607e-05,-7.47249e-05,-7.99148e-05,-1.01298e-05,0.00025148,-2.11833e-06,0
-4.30729e-05,2.43625e-05,-1.50652e-05,-7.73362e-05,-6.39982e-05,-1.49807e-05,0.000233106,1.31818e-08,0
-3.76807e-05,2.47447e-05,-1.66471e-05,-8.56148e-05,-3.68356e-06,-2.6376e-05,0.000204027,2.58123e-06,0
-3.44147e-05,2.59628e-05,-1.41251e-05,-6.24779e-05,7.1567e-05,-4.42137e-05,0.000175775,3.16315e-06,0
-3.33256e-05,2.79015e-05,-8.67378e-06,6.53569e-06,0.000136058,-5.48836e-05,0.000148,3.64377e-06,0
-3.45779e-05,2.65647e-05,-4.11046e-06,0.000104728,0.000165287,-4.75436e-05,0.000113414,4.47809e-06,0
-3.81495e-05,1.86394e-05,-4.42562e-06,0.000181336,0.000145016,-3.56317e-05,8.33805e-05,5.1422e-06,0
-3.7582e-05,4.70944e-06,-1.10732e-05,0.000183086,8.66351e-05,-3.08335e-05,6.84193e-05,5.08948e-06,0
-2.49562e-05,-6.97658e-06,-1.78754e-05,0.000136213,2.25096e-05,-2.80663e-05,6.05672e-05,3.97594e-06,0
-1.05116e-05,-4.83671e-06,-1.66041e-05,0.000102061,-1.40961e-05,-2.1867e-05,5.09516e-05,3.40549e-06,0
-1.13213e-05,7.9242e-06,-7.39707e-06,9.05147e-05,-5.11747e-06,-9.56813e-06,-6.60924e-06,2.87506e-06,0
-1.01672e-05,2.41206e-05,4.59149e-06,6.3967e-05,4.24156e-05,4.66504e-06,-0.000122432,7.59269e-07,0
1.0616e-05,4.38609e-05,1.04575e-05,7.16676e-06,7.80664e-05,5.28159e-06,-0.000174239,-1.02166e-06,0
2.27089e-05,6.41531e-05,5.91363e-06,-6.20171e-05,7.03611e-05,-1.21344e-05,-0.000116296,-2.22705e-07,0
1.15738e-05,7.80395e-05,-4.8852e-07,-0.000115036,4.57113e-05,-3.19006e-05,-1.25523e-05,2.56592e-06,0
-2.20857e-06,8.20184e-05,-4.37019e-06,-0.000119136,3.32369e-05,-2.37544e-05,8.55348e-05,3.1308e-06,0
-8.64762e-06,7.37793e-05,-8.93126e-06,-9.48688e-05,3.06851e-05,1.31793e-05,0.000137676,8.96353e-07,0
-7.7694e-06,5.67566e-05,-1.49393e-05,-7.51061e-05,2.30227e-05,3.09821e-05,0.000151822,-9.88184e-07,0
-9.95295e-07,3.84871e-05,-1.75877e-05,-4.57946e-05,2.06336e-05,1.73223e-05,0.000135926,-1.36102e-06,0
4.22433e-06,1.87637e-05,-1.36275e-05,1.41548e-05,2.68482e-05,-1.538e-06,0.000110152,-6.30742e-07,0
-7.14559e-07,-3.23147e-06,-5.23609e-06,8.84432e-05,2.77844e-05,-7.55728e-06,8.67729e-05,-8.90333e-07,0
-1.5602e-05,-2.82884e-05,2.65286e-06,0.000146434,1.52907e-05,-2.95634e-06,7.6263e-05,-3.69762e-06,0
-3.35386e-05,-5.28408e-05,3.90042e-06,0.000159578,-4.73468e-06,9.71238e-07,9.24325e-05,-7.90612e-06,0
-4.70581e-05,-7.03253e-05,-1.91906e-07,0.000121182,-2.31182e-05,-2.2763e-08,0.00012908,-1.01168e-05,0
-5.13384e-05,-7.21616e-05,-2.9442e-06,5.66278e-05,-3.39742e-05,-5.42171e-06,0.000170949,-8.92862e-06,0
-4.80912e-05,-5.58273e-05,-1.67417e-06,4.45233e-06,-3.60882e-05,-1.54496e-05,0.000222851,-4.94577e-06,0
-4.37563e-05,-3.22484e-05,-6.9392e-07,-1.50014e-05,-3.7831e-05,-2.8745e-05,0.000298187,-7.18919e-07,0
-4.66664e-05,-1.31951e-05,-4.15346e-06,-1.44537e-05,-4.01854e-05,-3.54009e-05,0.000371113,1.78965e-06,0
-6.11836e-05,-2.81141e-06,-9.28231e-06,-1.37425e-05,-3.48045e-05,-3.09969e-05,0.000392684,2.71962e-06,0
-8.32401e-05,-1.54654e-06,-1.10582e-05,-2.75958e-05,-1.69302e-05,-2.15241e-05,0.000334417,3.6003e-06,0
-0.00010125,-8.04201e-06,-1.21069e-05,-5.99602e-05,2.3736e-06,-1.39525e-05,0.000227053,5.02505e-06,0
-0.000107755,-1.52486e-05,-1.55717e-05,-9.15928e-05,1.55601e-05,-9.91456e-06,0.000122966,5.28735e-06,0
-0.000104849,-2.14187e-05,-1.90552e-05,-8.92059e-05,1.59455e-05,-1.20554e-05,6.55111e-05,3.04992e-06,0
-9.50663e-05,-2.92913e-05,-2.14929e-05,-6.21321e-05,2.54045e-06,-1.89811e-05,6.37934e-05,7.92032e-07,0
-7.7422e-05,-3.28245e-05,-2.20188e-05,-5.41619e-05,-5.92658e-06,-2.28232e-05,8.40567e-05,4.14397e-07,0
-5.44706e-05,-1.97305e-05,-1.99319e-05,-7.93595e-05,2.58712e-06,-1.98622e-05,0.000103058,5.95832e-07,0
-3.26225e-05,9.89302e-06,-1.73784e-05,-0.000104979,9.33015e-06,-1.88932e-05,9.25334e-05,7.81078e-07,0
-1.7881e-05,4.09383e-05,-1.51352e-05,-0.000103124,3.79498e-06,-2.23072e-05,-3.90638e-06,1.33094e-06,0
-6.90717e-06,5.94751e-05,-1.20407e-05,-8.76567e-05,-3.56105e-07,-1.3215e-05,-0.000225645,2.19742e-06,0
4.90162e-06,6.12254e-05,-9.77167e-06,-6.33347e-05,6.28185e-06,1.35701e-05,-0.000534817,5.96692e-07,0
1.11901e-05,4.6732e-05,-1.03947e-05,-1.48466e-05,1.44678e-05,2.58876e-05,-0.000803262,-9.93452e-07,0
7.42983e-06,2.17288e-05,-1.23694e-05,4.30635e-05,6.87482e-06,6.24457e-06,-0.000929752,4.03905e-08,0
-1.07248e-08,-3.83084e-06,-1.28681e-05,8.90729e-05,-1.3228e-05,-1.5275e-05,-0.000865453,3.08605e-07,0
-3.45762e-06,-2.22683e-05,-1.04239e-05,0.000106974,-2.62112e-05,-1.49061e-05,-0.000664869,-6.97746e-07,0
-5.24043e-06,-3.36133e-05,-7.39753e-06,0.000100618,-2.53332e-05,-2.51965e-06,-0.000425529,-1.78765e-06,0
-9.0047e-06,-3.82639e-05,-4.95751e-06,8.47173e-05,-2.5701e-05,1.1562e-06,-0.000209836,-3.65528e-06,0
-1.56774e-05,-3.98471e-05,-4.61016e-06,5.87286e-05,-3.90429e-05,-7.54646e-06,-3.96245e-05,-5.79042e-06,0
-2.33665e-05,-4.0838e-05,-7.60248e-06,2.30627e-05,-5.46467e-05,-2.37684e-05,7.59109e-05,-6.83584e-06,0
-3.11374e-05,-3.72521e-05,-1.17064e-05,-2.98714e-05,-5.17424e-05,-4.48779e-05,0.000136484,-6.62695e-06,0
-3.71027e-05,-2.67722e-05,-1.31648e-05,-0.000106935,-2.91662e-05,-6.88986e-05,0.000172836,-6.18261e-06,0
-4.10889e-05,-1.24867e-05,-1.15378e-05,-0.000191704,-4.00104e-06,-8.11625e-05,0.000169227,-6.53569e-06,0
-4.41669e-05,7.44354e-07,-1.08164e-05,-0.000242765,8.15346e-06,-6.75814e-05,9.71184e-05,-6.93659e-06,0
-4.58128e-05,1.14631e-05,-1.35543e-05,-0.000249248,4.13149e-07,-3.10852e-05,3.45164e-06,-5.61215e-06,0
-4.55643e-05,1.80913e-05,-1.94392e-05,-0.000234838,-1.14488e-05,1.79184e-05,-3.38021e-05,-2.34859e-06,0
-3.71854e-05,2.29594e-05,-2.30711e-05,-0.000216003,3.86058e-07,6.52732e-05,-4.68185e-05,-9.54869e-08,0
-1.58152e-05,2.84598e-05,-2.14579e-05,-0.000193694,3.21482e-05,9.27102e-05,-7.72907e-05,5.92308e-07,0
7.52481e-06,3.41043e-05,-1.70451e-05,-0.000163347,5.17787e-05,9.26955e-05,-9.63297e-05,7.40179e-07,0
1.47663e-05,3.70068e-05,-1.18653e-05,-0.000108591,5.38927e-05,7.82892e-05,-6.6513e-05,6.54045e-07,0
7.71888e-06,3.81158e-05,-3.62275e-06,-1.48277e-05,6.07897e-05,6.00199e-05,-2.19115e-05,1.11947e-06,0
4.29956e-07,3.83629e-05,7.30134e-06,9.51218e-05,7.40365e-05,3.84737e-05,-4.01161e-05,2.05584e-06,0
4.14913e-07,3.76692e-05,1.69462e-05,0.000172409,7.93336e-05,1.58955e-05,-0.000142081,2.86723e-06,0
4.72148e-06,3.53119e-05,2.06865e-05,0.000185528,6.92248e-05,8.69549e-09,-0.000190843,1.94401e-06,0
4.55912e-06,2.91844e-05,1.71433e-05,0.000149671,4.90313e-05,-4.55632e-06,-5.46482e-05,4.06343e-07,0
-6.02444e-06,2.25579e-05,1.02581e-05,0.000116429,3.72455e-05,-4.68489e-07,0.000163498,-1.30691e-07,0
-2.40938e-05,1.97401e-05,4.84496e-06,0.000109927,4.32024e-05,4.55035e-06,0.000288796,5.50385e-07,0
-4.05755e-05,2.06583e-05,3.7331e-06,0.000105048,4.30599e-05,1.37527e-05,0.000294403,2.83765e-06,0
-4.73962e-05,2.28089e-05,4.74918e-06,8.73035e-05,2.00439e-05,2.75596e-05,0.000261125,4.6288e-06,0
-5.51365e-05,2.42241e-05,4.93023e-06,6.17054e-05,-6.45859e-06,3.23414e-05,0.000216978,5.99358e-06,0
-7.19196e-05,2.59449e-05,3.35642e-06,4.03416e-05,-1.10706e-05,2.44824e-05,0.000162155,5.56878e-06,0
-9.00313e-05,2.7189e-05,1.13035e-07,6.91033e-06,1.31715e-06,1.08837e-05,0.000133625,4.77919e-06,0
-0.000104015,2.7449e-05,-3.07225e-06,-5.3043e-05,9.30023e-06,-7.95181e-06,0.000152783,5.99451e-06,0
-0.000100531,2.87393e-05,-5.42753e-06,-0.000106029,1.58094e-05,-2.32097e-05,0.000186045,6.08814e-06,0
-6.66902e-05,3.10866e-05,-6.32498e-06,-0.000121387,2.93717e-05,-2.36613e-05,0.0001855,5.00795e-06,0
-2.23666e-05,3.39902e-05,-5.5428e-06,-9.0178e-05,4.52852e-05,-2.29891e-05,0.000121284,3.62443e-06,0
-5.9254e-06,3.54068e-05,-6.13422e-06,-2.25455e-05,4.99782e-05,-3.64286e-05,3.41311e-05,1.97988e-06,0
-2.11267e-05,3.36589e-05,-7.96309e-06,4.80185e-05,3.70234e-05,-5.93594e-05,-7.23318e-06,2.94122e-06,0
-4.65324e-05,3.24802e-05,-9.15013e-06,8.26025e-05,1.34272e-05,-7.444e-05,-1.78415e-05,1.29995e-05,0
-6.26665e-05,3.48057e-05,-9.24755e-06,7.48158e-05,-8.334e-06,-7.68925e-05,-5.32623e-05,3.01235e-05,0
-6.88127e-05,3.70564e-05,-1.05502e-05,5.04529e-05,-2.17013e-05,-8.18195e-05,-0.000102021,4.1739e-05,0
-7.01028e-05,3.6125e-05,-1.36004e-05,2.96222e-05,-2.98889e-05,-9.58138e-05,-0.000105487,4.26512e-05,0
-6.36898e-05,3.24628e-05,-1.54263e-05,1.74213e-05,-3.5647e-05,-0.000105684,-5.11019e-05,3.61099e-05,0
-5.02748e-05,2.94611e-05,-1.65078e-05,1.79912e-05,-3.76501e-05,-0.000102709,2.12337e-05,2.17233e-05,0
-3.68875e-05,2.74553e-05,-1.95681e-05,6.66788e-06,-3.33806e-05,-9.03529e-05,6.21599e-05,3.57659e-07,0
-2.68398e-05,2.66594e-05,-2.43163e-05,-6.14089e-05,-2.14823e-05,-7.06463e-05,2.82775e-05,-2.07921e-05,0
-1.19824e-05,3.00733e-05,-2.63811e-05,-0.000160407,-4.58755e-06,-4.19592e-05,-5.52105e-05,-3.37683e-05,0
1.31488e-05,3.9451e-05,-2.36205e-05,-0.000199302,8.45088e-06,1.06832e-07,-7.7937e-05,-3.62726e-05,0
3.99931e-05,5.10848e-05,-1.92529e-05,-0.000151095,1.29339e-05,4.97486e-05,1.90665e-07,-3.24665e-05,0
4.2626e-05,5.92014e-05,-1.87841e-05,-6.42927e-05,7.32128e-06,7.21018e-05,0.000102228,-2.6322e-05,0
1.15582e-05,5.74303e-05,-2.44256e-05,4.38933e-05,-2.46232e-06,3.72193e-05,0.000180263,-2.02526e-05,0
-2.90721e-05,4.38721e-05,-2.99434e-05,0.000160595,-2.7152e-07,-2.87288e-05,0.0002379,-1.3655e-05,0
-5.56802e-05,2.53857e-05,-2.57779e-05,0.000236442,1.71404e-05,-7.05488e-05,0.00026058,-6.50503e-06,0
-7.03869e-05,9.64226e-06,-1.21987e-05,0.000260772,3.84316e-05,-6.39928e-05,0.000235058,-2.68492e-06,0
-7.63961e-05,-3.68712e-06,-2.15445e-06,0.000246505,5.71185e-05,-3.30006e-05,0.000171457,-3.07272e-06,0
-6.06623e-05,-1.51087e-05,-2.24894e-06,0.0001887,6.00987e-05,-1.71075e-05,0.000107493,-4.3661e-06,0
-2.98258e-05,-2.03726e-05,-2.50201e-06,0.00010353,4.22085e-05,-1.40593e-05,8.35775e-05,-2.43922e-06,0
-7.85505e-06,-2.11211e-05,1.11871e-06,2.24982e-05,2.30064e-05,-1.02674e-05,0.000103064,2.9504e-06,0
1.04805e-05,-1.78497e-05,1.89743e-06,-3.73136e-05,1.26191e-05,-1.3355e-06,0.000151603,9.69848e-06,0
2.89713e-05,-1.49235e-05,-1.5939e-06,-7.11049e-05,1.06313e-05,2.47094e-05,0.000208983,1.38873e-05,0
3.86697e-05,-1.62021e-05,-5.42969e-06,-7.60588e-05,7.69108e-06,5.28487e-05,0.0002662,1.26748e-05,0
3.9366e-05,-1.8659e-05,-6.30961e-06,-5.75808e-05,-1.5745e-06,6.304e-05,0.000314696,7.83236e-06,0
3.15883e-05,-1.78139e-05,-4.62924e-06,-2.34193e-05,-8.4309e-06,4.43945e-05,0.000340263,2.41889e-06,0
1.5836e-05,-1.24853e-05,-3.06658e-06,5.65881e-06,-7.43308e-06,-8.86028e-06,0.000315336,-1.85487e-06,0
-7.6691e-06,-6.57846e-06,-2.89405e-06,8.15376e-06,4.71497e-06,-6.89293e-05,0.000219185,-4.2033e-06,0
-2.79199e-05,-9.20147e-07,-1.21047e-06,-2.62426e-06,3.00296e-05,-9.01329e-05,6.4459e-05,-4.09845e-06,0
-3.95865e-05,2.75728e-06,1.44674e-06,-9.8647e-06,5.7647e-05,-7.69405e-05,-0.000101952,-3.54082e-06,0
-4.87552e-05,3.99843e-06,1.56692e-06,-1.49049e-05,6.53081e-05,-6.472e-05,-0.000219891,-3.86264e-06,0
-6.50653e-05,4.4651e-06,-3.97048e-07,-2.54201e-05,4.60457e-05,-5.04225e-05,-0.000277369,-4.89613e-06,0
-8.26635e-05,6.66268e-06,-1.98585e-06,-3.91903e-05,1.80072e-05,-1.93859e-05,-0.000289303,-5.91108e-06,0
-8.82628e-05,1.24165e-05,-2.8135e-06,-5.00949e-05,2.59824e-06,2.40265e-05,-0.000274498,-6.16361e-06,0
-8.55433e-05,1.83964e-05,-4.2694e-06,-4.87656e-05,5.86182e-06,7.16329e-05,-0.000243243,-5.37926e-06,0
-8.63546e-05,1.94358e-05,-7.21695e-06,-1.43655e-05,2.31628e-05,0.000103585,-0.00021801,-4.58228e-06,0
-9.20721e-05,1.51548e-05,-1.11561e-05,4.49576e-05,4.05178e-05,9.50842e-05,-0.000232241,-4.69408e-06,0
-9.2813e-05,8.3152e-06,-1.21998e-05,6.80707e-05,4.27323e-05,5.95526e-05,-0.000268285,-5.08152e-06,0
-8.16595e-05,2.35008e-06,-9.09809e-06,3.03042e-05,3.74441e-05,3.12367e-05,-0.000234076,-3.68043e-06,0
-6.16225e-05,3.70939e-07,-6.24726e-06,-2.27634e-05,4.23014e-05,2.29111e-05,-9.69284e-05,-4.8681e-07,0
-4.45639e-05,6.24425e-07,-8.0569e-06,-7.46435e-05,4.97989e-05,2.18092e-05,5.8328e-05,1.32977e-06,0
-3.04478e-05,-2.07026e-06,-1.3994e-05,-0.000144623,4.28163e-05,1.39901e-05,0.000145294,2.18324e-07,0
-1.2127e-05,-8.77929e-06,-1.84807e-05,-0.000192887,2.43559e-05,3.59888e-06,0.000141268,-1.44763e-06,0
9.7176e-06,-1.57033e-05,-1.81629e-05,-0.00014762,7.60241e-06,-2.36004e-06,2.78846e-05,-1.8578e-06,0
2.77716e-05,-2.20992e-05,-1.75188e-05,-2.86958e-05,-2.28516e-06,-5.27198e-06,-0.000162587,-2.11291e-06,0
3.6813e-05,-2.70698e-05,-1.83689e-05,6.56388e-05,-2.66711e-06,-2.85903e-06,-0.000274606,-1.83986e-06,0
4.49736e-05,-2.74994e-05,-1.6356e-05,9.55972e-05,2.91447e-06,5.78589e-06,-0.000321824,-1.69812e-06,0
5.71902e-05,-2.2453e-05,-1.13369e-05,7.43099e-05,7.34765e-06,1.39579e-05,-0.000411493,-2.06823e-06,0
5.74933e-05,-1.59584e-05,-6.79548e-06,9.28413e-06,1.18303e-05,1.7193e-05,-0.00045717,-9.1256e-07,0
3.82709e-05,-1.05872e-05,-2.27143e-06,-5.40924e-05,2.1297e-05,1.4905e-05,-0.000373952,5.68223e-08,0
1.18043e-05,-5.43508e-06,8.0798e-07,-9.64059e-05,2.9424e-05,9.71218e-06,-0.000211208,-2.96475e-07,0
-9.85872e-06,-1.19975e-07,4.82257e-07,-0.000124332,2.60616e-05,1.05727e-06,-6.53462e-05,-1.12205e-07,0
-2.8152e-05,3.7304e-06,-1.67639e-06,-0.000138395,1.55177e-05,-1.20256e-05,5.93075e-06,2.14688e-07,0
-4.53179e-05,4.81305e-06,-5.05977e-06,-0.000140943,3.46663e-06,-2.64014e-05,1.62731e-05,-4.09487e-07,0
-5.68702e-05,6.4681e-06,-7.71727e-06,-0.000132421,-4.58095e-06,-3.41311e-05,2.21379e-05,-7.73021e-07,0
-5.74137e-05,1.38501e-05,-9.77847e-06,-0.0001167,-5.69556e-06,-3.07183e-05,4.67307e-05,2.44618e-07,0
-4.66015e-05,2.50828e-05,-1.05742e-05,-7.30775e-05,2.53791e-06,-2.49697e-05,7.25049e-05,1.93265e-06,0
-3.28286e-05,3.42829e-05,-6.48421e-06,2.00967e-05,1.74834e-05,-3.15271e-05,8.38033e-05,3.85301e-06,0
-2.3289e-05,3.64814e-05,9.41044e-07,0.000143889,3.04788e-05,-4.70425e-05,8.31584e-05,6.67826e-06,0
-2.03096e-05,3.11064e-05,5.44685e-06,0.000236148,3.57455e-05,-5.58618e-05,8.30333e-05,9.79437e-06,0
-2.30463e-05,2.38325e-05,3.72589e-06,0.000254998,3.19626e-05,-5.4009e-05,8.6573e-05,1.0878e-05,0
-3.10502e-05,2.01104e-05,-1.87667e-06,0.000215155,2.01722e-05,-4.68827e-05,8.93488e-05,9.71133e-06,0
-4.17039e-05,2.09036e-05,-6.82669e-06,0.000162937,2.6395e-06,-4.35148e-05,8.18817e-05,8.00911e-06,0
-5.47098e-05,2.23541e-05,-7.6683e-06,0.000121223,-1.33324e-05,-4.75302e-05,5.07748e-05,7.32662e-06,0
-6.94978e-05,2.02536e-05,-4.59253e-06,8.39514e-05,-1.97051e-05,-5.11466e-05,-9.47662e-06,7.42987e-06,0
-8.28295e-05,1.17941e-05,-1.31953e-06,3.69093e-05,-1.41436e-05,-4.53761e-05,-5.71479e-05,6.92865e-06,0
-9.19494e-05,2.43693e-06,-1.34157e-06,-3.10464e-05,-7.35465e-06,-3.13441e-05,-3.82366e-05,4.9884e-06,0
-9.43571e-05,-1.26544e-06,-5.12622e-06,-0.000107035,-1.0358e-05,-1.86302e-05,4.26897e-05,2.76148e-06,0
-8.0427e-05,1.91418e-06,-8.93518e-06,-0.000149888,-2.11679e-05,-1.10472e-05,0.000111907,1.84913e-06,0
-4.41071e-05,1.36207e-05,-8.50813e-06,-0.000135346,-2.79296e-05,1.62168e-05,0.000118006,2.24243e-06,0
-1.34007e-05,2.86402e-05,-3.53875e-06,-8.25187e-05,-2.20279e-05,7.50299e-05,9.4277e-05,3.47753e-06,0
-1.48473e-05,3.70358e-05,2.6196e-06,-2.22702e-05,-1.76569e-06,0.000111551,8.79636e-05,5.50173e-06,0
-2.54249e-05,3.56382e-05,4.57023e-06,1.46846e-05,2.14357e-05,7.63738e-05,0.000106898,5.7453e-06,0
-1.94429e-05,3.14799e-05,7.43845e-07,1.21224e-05,3.51226e-05,5.34682e-06,0.000133066,4.74471e-06,0
-6.80368e-06,3.11273e-05,-4.46093e-06,-1.37857e-05,3.60098e-05,-4.97218e-05,0.000150226,4.96787e-06,0
-5.23277e-06,2.50933e-05,-8.60779e-06,-2.06085e-05,2.98198e-05,-4.87976e-05,0.000152796,5.40251e-06,0
-9.87638e-06,1.06167e-05,-1.20913e-05,-2.23288e-06,2.6318e-05,8.55507e-06,0.000141484,5.79727e-06,0
-1.24736e-05,-7.29731e-07,-1.46303e-05,-1.48315e-05,1.85608e-05,4.60876e-05,0.000115841,6.08905e-06,0
-1.77922e-05,-1.84133e-06,-1.65321e-05,-6.46399e-05,4.08714e-06,3.21083e-05,8.98953e-05,5.82809e-06,0
-2.63391e-05,1.8053e-06,-1.89139e-05,-9.51002e-05,-8.24279e-06,-1.71149e-06,7.48186e-05,5.09646e-06,0
-3.30466e-05,5.18385e-07,-2.13199e-05,-7.87006e-05,-1.21661e-05,-1.91834e-05,5.61727e-05,5.05948e-06,0
-3.20118e-05,-7.33251e-06,-2.30406e-05,-3.95467e-05,-1.48696e-05,-1.15446e-05,3.84853e-05,5.21102e-06,0
-2.7839e-05,-1.64742e-05,-2.20632e-05,-7.98145e-06,-3.09996e-05,2.83575e-06,4.14959e-05,4.70881e-06,0
-2.93211e-05,-2.03673e-05,-1.77467e-05,2.25011e-05,-6.59213e-05,1.24389e-06,5.76638e-05,3.88932e-06,0
-3.87834e-05,-1.92851e-05,-1.31138e-05,6.84923e-05,-0.000105548,-1.94855e-05,6.67778e-05,2.67327e-06,0
-5.0407e-05,-1.82439e-05,-1.02921e-05,0.000135439,-0.000117468,-3.10585e-05,7.63003e-05,1.34206e-06,0
-5.59492e-05,-1.92527e-05,-1.00723e-05,0.000195605,-6.97926e-05,-1.17529e-05,7.82765e-05,1.59845e-06,0
-5.15995e-05,-1.78388e-05,-1.00102e-05,0.000204753,3.03617e-05,1.7133e-05,2.60569e-05,2.58446e-06,0
-4.06923e-05,-1.27216e-05,-8.06386e-06,0.000163377,0.000127655,1.61577e-05,-5.71825e-05,2.20635e-06,0
-3.37611e-05,-6.49367e-06,-8.31369e-06,0.000120982,0.000168064,-1.5334e-05,-6.66227e-05,1.61118e-06,0
-4.32541e-05,5.69801e-06,-1.43213e-05,9.7606e-05,0.000143319,-4.19558e-05,1.92591e-05,2.24538e-06,0
-7.04114e-05,3.19804e-05,-2.11074e-05,7.10767e-05,9.46561e-05,-4.19896e-05,0.000116861,3.01945e-06,0
-9.57795e-05,6.79874e-05,-2.24871e-05,3.81242e-05,6.72573e-05,-3.52927e-05,0.00017225,3.65007e-06,0
-9.85173e-05,0.000102136,-1.68827e-05,-5.12094e-08,6.80697e-05,-3.82834e-05,0.000182836,4.71579e-06,0
-7.9581e-05,0.000122988,-5.44898e-06,-6.717e-05,6.41218e-05,-3.98773e-05,0.0001571,5.08853e-06,0
-5.9313e-05,0.000122283,4.70675e-06,-0.000158867,3.91062e-05,-2.20314e-05,9.5404e-05,4.38301e-06,0
-5.15146e-05,9.57247e-05,8.07447e-06,-0.000214224,1.41669e-05,9.90097e-06,-8.22665e-06,3.24347e-06,0
-5.02034e-05,4.97316e-05,5.81077e-06,-0.000198052,9.5237e-06,3.55797e-05,-0.000148909,2.8455e-06,0
-4.67254e-05,-2.12331e-06,-1.01449e-06,-0.000159433,1.79656e-05,5.45116e-05,-0.00022631,2.04104e-06,0
-3.25447e-05,-3.74623e-05,-8.18654e-06,-0.00012304,7.47298e-06,7.58461e-05,-0.000144905,1.03157e-06,0
3.93899e-06,-4.84319e-05,-1.51926e-05,-7.25873e-05,-2.6254e-05,8.48781e-05,7.69235e-06,2.57138e-07,0
4.22511e-05,-4.70952e-05,-2.02535e-05,-2.71082e-05,-5.31449e-05,6.52207e-05,0.00012527,-7.37593e-07,0
3.99776e-05,-4.26161e-05,-2.06865e-05,8.5283e-06,-5.32364e-05,2.59122e-05,0.000183714,-1.8167e-08,0
1.40617e-06,-4.47429e-05,-1.86323e-05,2.95989e-05,-3.31627e-05,-1.80671e-05,0.000189725,7.85256e-07,0
-2.82339e-05,-4.39878e-05,-1.59884e-05,1.99027e-05,-1.03721e-05,-5.36454e-05,0.000163927,-2.73693e-07,0
-2.63146e-05,-3.46621e-05,-1.59816e-05,-2.76189e-05,3.88427e-06,-6.83785e-05,0.000121574,-1.73311e-06,0
-6.38418e-06,-1.86929e-05,-1.6506e-05,-9.39652e-05,1.82417e-06,-6.94343e-05,8.07098e-05,-1.43186e-06,0
1.22056e-05,-2.58573e-06,-1.55998e-05,-0.000133501,-8.08961e-06,-7.62416e-05,4.0726e-05,6.40686e-08,0
2.16477e-05,6.7222e-06,-1.25693e-05,-0.000130628,-8.17316e-06,-8.4173e-05,1.18149e-05,3.1804e-07,0
2.22729e-05,5.19401e-06,-7.26226e-06,-0.000102218,9.01314e-06,-8.41106e-05,7.36873e-06,-4.95147e-07,0
1.70565e-05,-5.54182e-06,-2.16852e-06,-6.91574e-05,3.35015e-05,-7.76029e-05,1.81778e-05,-1.24082e-06,0
9.22535e-06,-1.54452e-05,-1.02322e-06,-3.18617e-05,5.27642e-05,-6.54524e-05,2.68515e-05,-2.07347e-06,0
1.42504e-06,-1.85188e-05,-4.06814e-06,1.96802e-05,6.11897e-05,-4.5482e-05,2.33073e-05,-1.91855e-06,0
-7.55298e-06,-1.29976e-05,-7.00322e-06,7.12417e-05,5.47759e-05,-2.79906e-05,6.97315e-06,3.96718e-07,0
-1.96077e-05,-5.2823e-06,-5.47002e-06,9.24115e-05,3.6957e-05,-1.19381e-05,-1.76221e-05,3.36947e-06,0
-3.17421e-05,1.48937e-06,-5.06549e-07,6.79263e-05,1.90343e-05,2.06868e-05,-3.07238e-05,8.201e-06,0
-4.0336e-05,6.621e-06,2.72791e-06,1.5669e-05,1.26255e-05,5.5454e-05,-1.79894e-05,1.58591e-05,0
-4.77805e-05,1.06149e-05,1.5034e-06,-3.43487e-05,1.54757e-05,5.39317e-05,1.38742e-05,2.15496e-05,0
-5.70437e-05,1.32842e-05,-4.5632e-06,-5.83445e-05,1.82697e-05,1.29688e-05,4.73376e-05,2.01158e-05,0
-6.69374e-05,1.60787e-05,-1.17043e-05,-4.4146e-05,1.32818e-05,-2.8905e-05,7.68452e-05,1.35179e-05,0
-7.56897e-05,1.81582e-05,-1.4321e-05,-1.1948e-05,3.84878e-06,-4.62864e-05,9.63906e-05,7.19033e-06,0
-8.13346e-05,2.05375e-05,-1.33977e-05,2.60674e-06,-5.82645e-07,-4.99037e-05,8.86437e-05,2.60183e-06,0
-8.23535e-05,2.41255e-05,-1.10807e-05,-1.22736e-05,1.72253e-06,-5.74951e-05,4.80698e-05,-5.24735e-07,0
-7.52754e-05,3.17588e-05,-6.86476e-06,-4.39689e-05,9.99691e-06,-6.85939e-05,-5.61379e-06,-2.74122e-06,0
-6.08328e-05,4.28915e-05,-3.90346e-06,-7.63634e-05,2.14584e-05,-6.78471e-05,-6.21207e-05,-4.13498e-06,0
-4.59396e-05,5.26316e-05,-1.88835e-06,-9.60611e-05,3.03053e-05,-3.80105e-05,-0.000116209,-5.34109e-06,0
-3.47557e-05,5.56073e-05,-1.24023e-06,-0.000133148,3.29623e-05,-1.18597e-06,-0.000148489,-6.74846e-06,0
-2.08536e-05,5.05468e-05,-2.32699e-06,-0.000227618,2.84491e-05,1.38415e-05,-0.000183419,-7.32347e-06,0
-1.95335e-06,4.30312e-05,-4.40424e-06,-0.000317888,1.98157e-05,1.01355e-05,-0.000197554,-7.51656e-06,0
4.20648e-06,3.4922e-05,-8.64454e-06,-0.000329822,1.18243e-05,-3.67781e-06,-0.000104112,-7.56735e-06,0
-1.05315e-05,2.56234e-05,-1.45429e-05,-0.000245867,8.01984e-06,-1.86222e-05,6.73197e-05,-7.31645e-06,0
-3.28474e-05,1.46299e-05,-1.92301e-05,-7.72271e-05,3.63683e-06,-3.10239e-05,0.000231988,-7.20206e-06,0
-4.58947e-05,8.41678e-06,-1.98254e-05,0.000121973,-1.12392e-06,-3.52958e-05,0.000348359,-7.1259e-06,0
-4.43327e-05,1.02072e-05,-1.75732e-05,0.000273154,2.70867e-06,-2.95604e-05,0.00040017,-5.88028e-06,0
-2.87523e-05,1.69662e-05,-1.4994e-05,0.000321279,1.39506e-05,-1.47081e-05,0.000361078,-3.85186e-06,0
-9.2702e-06,2.21994e-05,-1.38386e-05,0.000283231,2.2438e-05,4.51535e-06,0.000265933,-2.75969e-06,0
-2.48423e-06,2.4349e-05,-1.19671e-05,0.000214541,2.49417e-05,1.78367e-05,0.000179725,-2.83079e-06,0
-9.48714e-06,2.49073e-05,-6.70972e-06,0.000165614,2.63201e-05,1.80836e-05,8.07841e-05,-3.13034e-06,0
-2.12513e-05,2.4875e-05,-7.02191e-07,0.000158182,2.68045e-05,5.41868e-06,-7.03179e-05,-2.1585e-06,0
-2.89329e-05,2.44782e-05,9.00673e-07,0.00016486,2.44785e-05,-9.34795e-06,-0.000249393,-3.82215e-07,0
-2.68344e-05,2.5087e-05,-2.24948e-06,0.000146298,1.96348e-05,-1.60986e-05,-0.000393128,6.5688e-07,0
-1.50874e-05,2.82107e-05,-5.41362e-06,0.000105261,1.35595e-05,-1.34507e-05,-0.000476751,6.29497e-07,0
-3.83727e-06,3.35094e-05,-5.44305e-06,6.9844e-05,6.6382e-06,-7.85815e-06,-0.000502246,1.95133e-07,0
-2.98389e-06,3.89558e-05,-5.54885e-06,4.84387e-05,2.8188e-06,-4.66444e-06,-0.000468129,-6.63469e-07,0
-1.22156e-05,4.06833e-05,-7.87923e-06,4.06406e-05,4.55865e-06,-5.21148e-06,-0.000368839,-1.21575e-06,0
-2.36729e-05,3.91658e-05,-8.95511e-06,5.69378e-05,7.68938e-06,-6.7364e-06,-0.000234825,-7.09405e-07,0
-3.22169e-05,3.68392e-05,-6.54893e-06,7.69834e-05,6.75394e-06,-7.94964e-06,-0.000126605,1.36377e-07,0
-3.68204e-05,3.39691e-05,-3.7307e-06,5.29125e-05,1.90037e-06,-8.69103e-06,-7.01497e-05,1.16099e-06,0
-3.85686e-05,2.87019e-05,-5.02611e-06,-1.27709e-05,-3.85952e-06,-1.02853e-05,-1.46281e-05,2.53095e-06,0
-3.84984e-05,2.38055e-05,-8.5559e-06,-6.11963e-05,-8.16421e-06,-1.55917e-05,5.3208e-05,3.68309e-06,0
-3.55422e-05,2.46511e-05,-9.89443e-06,-5.18588e-05,-1.05375e-05,-1.50338e-05,0.000135463,4.18595e-06,0
-3.02568e-05,3.15431e-05,-9.01718e-06,-1.23628e-05,-8.08967e-06,1.12983e-05,0.000284814,4.50296e-06,0
-2.57058e-05,3.97805e-05,-6.06411e-06,7.76013e-06,-1.18741e-07,4.81169e-05,0.000461362,5.51168e-06,0
-2.493e-05,4.30047e-05,-3.81657e-07,6.15071e-06,5.95102e-06,5.49304e-05,0.000521986,5.99482e-06,0
-2.62571e-05,4.00381e-05,4.7947e-06,7.41478e-06,9.05984e-06,3.17556e-05,0.000388576,4.00367e-06,0
-2.53843e-05,3.66502e-05,6.49743e-06,1.84787e-05,1.77972e-05,7.29293e-06,0.000121315,1.60837e-06,0
-2.46113e-05,3.38679e-05,4.03353e-06,2.86146e-05,2.72786e-05,7.33006e-07,-0.000152063,1.55138e-06,0
-2.81227e-05,3.22148e-05,-2.51155e-06,2.18371e-05,2.73674e-05,7.66453e-06,-0.00029874,2.42688e-06,0
-3.27092e-05,3.35888e-05,-8.18441e-06,8.47653e-06,2.21222e-05,1.36871e-05,-0.00031032,2.15458e-06,0
-3.27447e-05,3.77033e-05,-9.49062e-06,3.25314e-06,1.64487e-05,1.37753e-05,-0.000246443,1.70252e-06,0
-2.96926e-05,4.11487e-05,-1.1983e-05,-5.06724e-06,9.77817e-06,7.91715e-06,-0.000152937,2.45309e-06,0
-2.81591e-05,4.29417e-05,-1.82517e-05,-2.44845e-05,5.05743e-07,2.88936e-07,-6.05211e-05,4.0101e-06,0
-2.92338e-05,4.32845e-05,-2.19531e-05,-5.168e-05,-2.19763e-06,-5.03502e-06,-3.34177e-06,3.82934e-06,0
-3.17441e-05,4.06083e-05,-1.84222e-05,-7.35588e-05,7.72407e-06,-5.25392e-06,-2.433e-06,3.0782e-06,0
-3.41048e-05,3.58769e-05,-1.34465e-05,-8.80271e-05,1.87223e-05,-2.82209e-06,-2.99964e-05,3.73215e-06,0
-3.6788e-05,2.95866e-05,-1.46377e-05,-9.26555e-05,1.87109e-05,-2.36762e-06,-5.70199e-05,5.07156e-06,0
-3.97942e-05,2.11809e-05,-2.26644e-05,-8.04918e-05,8.18351e-06,-5.68391e-06,-7.76922e-05,6.6103e-06,0
-4.24979e-05,1.11442e-05,-3.27419e-05,-5.33139e-05,-7.7624e-06,-1.29825e-05,-9.64918e-05,7.35814e-06,0
-4.38108e-05,4.24424e-06,-3.78156e-05,-2.01859e-05,-1.97864e-05,-1.98105e-05,-9.88327e-05,6.35376e-06,0
-4.33541e-05,3.56446e-06,-3.38626e-05,7.83548e-06,-1.70123e-05,-2.12726e-05,-7.62951e-05,5.91467e-06,0
-4.18106e-05,7.14643e-06,-2.3061e-05,1.69177e-05,-3.3023e-06,-1.79409e-05,-2.53619e-05,8.70093e-06,0
-4.12729e-05,8.79512e-06,-1.08204e-05,-7.19923e-06,9.33746e-06,-1.44442e-05,2.7955e-05,1.12579e-05,0
-4.03793e-05,5.1067e-06,-2.63849e-06,-3.55978e-05,1.89162e-05,-1.00548e-05,3.05802e-05,1.0704e-05,0
-3.69092e-05,-2.58992e-06,-1.97492e-06,-2.10098e-05,2.77865e-05,-4.66433e-06,-3.1143e-05,9.60178e-06,0
-3.18525e-05,-1.02661e-05,-4.60529e-06,3.68237e-05,3.66461e-05,5.76002e-07,-8.84396e-05,9.27025e-06,0
-2.97585e-05,-1.52537e-05,-3.8064e-06,9.22573e-05,4.58647e-05,5.132e-06,-7.33887e-05,8.80712e-06,0
-3.32959e-05,-1.74157e-05,-7.72337e-07,8.85191e-05,4.84006e-05,6.25093e-06,2.73031e-06,8.298e-06,0
-3.71218e-05,-1.61929e-05,-1.31274e-06,1.50282e-05,4.27262e-05,4.83838e-06,7.27509e-05,6.5202e-06,0
-3.634e-05,-1.30728e-05,-3.163e-06,-7.33069e-05,3.58474e-05,3.39669e-06,0.000103836,4.91882e-06,0
-3.21669e-05,-1.04478e-05,-2.7997e-06,-0.000151072,2.65644e-05,1.57377e-07,0.000124922,2.91539e-06,0
-2.8468e-05,-9.80983e-06,-3.12169e-06,-0.000215332,1.02468e-05,-5.60661e-06,0.000111614,-1.35617e-06,0
-2.54108e-05,-1.11243e-05,-5.16289e-06,-0.000243709,-6.88099e-06,-1.28911e-05,1.51915e-05,-5.5414e-06,0
-2.13362e-05,-1.16623e-05,-6.90108e-06,-0.000234767,-1.50949e-05,-1.78516e-05,-6.81638e-05,-7.29356e-06,0
-1.8354e-05,-1.21942e-05,-9.14691e-06,-0.000214158,-1.30252e-05,-2.00078e-05,-3.56449e-05,-5.11929e-06,0
-2.0877e-05,-1.40947e-05,-1.16789e-05,-0.000180468,-5.87976e-06,-2.18398e-05,6.91238e-05,-2.14064e-06,0
-2.99176e-05,-1.33684e-05,-1.16466e-05,-0.000102199,3.77022e-06,-2.37317e-05,0.000177066,-1.17288e-06,0
-4.12819e-05,-1.13938e-05,-1.05397e-05,8.66911e-06,1.41714e-05,-2.92255e-05,0.00023966,-1.79793e-06,0
-5.07965e-05,-1.17171e-05,-1.15023e-05,0.00011009,1.93839e-05,-3.85351e-05,0.000248496,-2.7326e-06,0
-5.58807e-05,-1.37509e-05,-1.35229e-05,0.000182196,1.48729e-05,-4.79297e-05,0.00021026,-2.26337e-06,0
-5.39877e-05,-1.39718e-05,-1.202e-05,0.000210137,7.09355e-06,-5.07499e-05,0.000147089,-1.23416e-06,0
-4.7727e-05,-1.03173e-05,-6.15927e-06,0.000194263,1.10759e-05,-4.42354e-05,9.0482e-05,-8.99021e-07,0
-4.19561e-05,-6.43336e-06,-1.72148e-06,0.000168458,2.48523e-05,-3.45864e-05,6.08693e-05,-2.24893e-06,0
-3.90821e-05,-5.50589e-06,-1.79985e-06,0.0001571,3.08067e-05,-2.83731e-05,5.61956e-05,-4.01997e-06,0
-3.73325e-05,-7.07597e-06,-3.414e-06,0.000166148,2.86897e-05,-2.34807e-05,6.06811e-05,-4.55e-06,0
-3.5504e-05,-7.6616e-06,-5.14188e-06,0.000163629,3.34229e-05,-1.78383e-05,6.03193e-05,-4.21032e-06,0
-3.42918e-05,-5.77569e-06,-7.36741e-06,0.000118133,4.33151e-05,-1.54042e-05,4.94979e-05,-3.5171e-06,0
-3.4085e-05,-3.49113e-06,-9.66082e-06,6.77554e-05,4.60058e-05,-1.84296e-05,3.9789e-05,-2.66166e-06,0
-3.49701e-05,-2.70459e-06,-1.09169e-05,7.61833e-05,4.03489e-05,-2.41064e-05,3.23821e-05,-2.10391e-06,0
-3.53361e-05,-1.97555e-06,-1.09339e-05,0.000122669,3.37418e-05,-2.7406e-05,2.12356e-05,-2.53069e-06,0
-3.2448e-05,2.3042e-06,-9.74348e-06,0.000117343,3.34839e-05,-2.33902e-05,6.13951e-07,-3.16763e-06,0
-2.6906e-05,1.01334e-05,-6.58448e-06,6.67824e-06,3.81122e-05,-1.40564e-05,-2.16935e-05,-3.14495e-06,0
-2.32346e-05,1.73974e-05,-3.06032e-06,-0.000165007,3.95522e-05,-1.12941e-05,-3.16952e-05,-2.16382e-06,0
-2.31099e-05,1.95717e-05,-3.26371e-06,-0.000266539,3.50241e-05,-1.76208e-05,-1.90395e-05,-2.66842e-06,0
-2.41057e-05,1.69659e-05,-8.88754e-06,-0.000244227,2.43501e-05,-2.23608e-05,8.09046e-06,-6.82491e-06,0
-2.20912e-05,1.85178e-05,-1.6371e-05,-0.000167106,9.01892e-06,-2.14362e-05,2.80182e-05,-9.33812e-06,0
-1.99608e-05,2.78034e-05,-2.17383e-05,-7.93021e-05,-2.84516e-06,-1.80956e-05,3.15079e-05,-6.32743e-06,0
-1.93005e-05,3.84848e-05,-2.41295e-05,2.37146e-05,-7.08841e-06,-1.42403e-05,2.70348e-05,-3.72729e-06,0
-2.09775e-05,4.45934e-05,-2.22353e-05,8.6249e-05,-1.0213e-05,-1.34148e-05,-1.40894e-05,-5.64139e-06,0
-2.31091e-05,4.45676e-05,-1.51989e-05,6.37114e-05,-1.51335e-05,-1.47671e-05,-0.000100569,-6.8233e-06,0
-2.08749e-05,4.12594e-05,-3.91101e-06,8.50622e-06,-1.22223e-05,-1.99592e-05,-0.000134136,-4.00237e-06,0
-2.39792e-05,3.62028e-05,4.904e-06,-5.61056e-05,-2.46306e-06,-3.17519e-05,-5.57732e-05,-2.36053e-06,0
-4.02419e-05,2.91025e-05,5.57132e-06,-0.000117282,8.60943e-07,-3.58214e-05,5.95687e-05,-3.78e-06,0
-5.97422e-05,1.81123e-05,-1.46463e-07,-0.000128871,-5.74782e-06,-1.70606e-05,0.000130245,-6.18239e-06,0
-6.85427e-05,6.51518e-06,-8.15057e-06,-9.30266e-05,-1.99303e-05,3.00753e-05,0.000147469,-6.23211e-06,0
-6.55933e-05,-1.35138e-06,-1.31872e-05,-6.33988e-05,-3.65232e-05,7.27384e-05,0.000119694,-4.13349e-06,0
-5.86928e-05,-4.01525e-06,-1.7478e-05,-8.5551e-05,-4.83299e-05,6.22817e-05,4.61311e-05,-1.80974e-06,0
-5.48937e-05,-4.87596e-06,-2.23756e-05,-0.000139729,-4.14888e-05,5.22449e-06,-1.36672e-05,-1.48511e-07,0
-5.08169e-05,-4.27584e-06,-2.27945e-05,-0.000162761,-7.61167e-06,-5.55695e-05,2.93852e-05,2.91637e-08,0
-3.93342e-05,-1.13e-06,-1.85215e-05,-0.000119038,3.36214e-05,-8.52374e-05,0.000149261,-7.87338e-07,0
-2.09627e-05,2.64643e-06,-1.47739e-05,-3.10495e-05,5.37593e-05,-7.83911e-05,0.000232306,-3.02081e-06,0
-1.23052e-06,7.02012e-06,-1.17033e-05,5.13787e-05,4.98991e-05,-3.96546e-05,0.000218494,-4.92815e-06,0
1.26729e-05,1.19365e-05,-5.00483e-06,0.000108365,4.23868e-05,1.79034e-05,0.000128919,-5.73032e-06,0
1.27022e-05,1.46917e-05,3.15179e-06,0.000137463,4.35285e-05,6.61314e-05,1.70338e-05,-5.91275e-06,0
-2.86984e-06,1.16607e-05,5.87167e-06,0.000113267,4.65465e-05,7.81516e-05,-7.95614e-05,-6.65945e-06,0
-2.13705e-05,8.63401e-06,3.65654e-06,2.98102e-05,4.08753e-05,5.99654e-05,-0.000150021,-6.93496e-06,0
-2.85785e-05,1.21558e-05,2.40682e-06,-6.1695e-05,2.7602e-05,4.56545e-05,-0.000174112,-5.73297e-06,0
-2.39019e-05,1.95219e-05,6.03233e-07,-0.000113318,1.17038e-05,4.10365e-05,-0.000136812,-4.72632e-06,0
-1.56905e-05,2.27129e-05,-6.75637e-06,-0.000129612,-5.7491e-06,2.38019e-05,-9.25696e-05,-4.54863e-06,0
-5.45676e-06,2.0443e-05,-1.61273e-05,-0.000103215,-1.882e-05,-7.59824e-06,-9.8441e-05,-3.24276e-06,0
6.85154e-06,1.72803e-05,-1.86967e-05,4.44261e-06,-1.71889e-05,-3.25369e-05,-9.99945e-05,-1.994e-06,0
1.41845e-05,2.08398e-05,-1.32873e-05,0.000179942,1.01556e-06,-4.05876e-05,-3.84611e-05,-1.10104e-06,0
6.66529e-06,3.01944e-05,-6.00094e-06,0.000319966,2.13407e-05,-2.77506e-05,2.03602e-05,1.56015e-07,0
-1.45534e-05,3.88752e-05,-3.67194e-06,0.000338965,2.82e-05,-2.31491e-06,-1.2432e-05,1.78004e-07,0
-3.28587e-05,4.41785e-05,-5.51455e-06,0.000231847,2.66599e-05,-5.55901e-06,-6.61444e-05,2.95821e-07,0
-3.12078e-05,4.5771e-05,-4.81038e-06,8.04467e-05,3.02282e-05,-5.23996e-05,-3.88585e-06,1.42093e-06,0
-2.69319e-05,4.0761e-05,-7.43868e-09,-2.24181e-05,3.98507e-05,-7.67157e-05,0.00015031,4.49276e-06,0
-4.31509e-05,2.68516e-05,3.49748e-06,-8.02019e-05,4.54769e-05,-3.61906e-05,0.000270306,7.4608e-06,0
-6.36367e-05,1.38526e-05,3.2593e-06,-0.000125198,3.71882e-05,2.16265e-05,0.000300294,7.70791e-06,0
-6.69491e-05,6.7886e-06,1.50363e-06,-0.000180547,1.64046e-05,1.82405e-05,0.000271695,5.80665e-06,0
-4.99244e-05,-1.07428e-06,-5.68738e-07,-0.000225343,-1.57349e-06,-3.68914e-05,0.000244388,4.13431e-06,0
-3.61592e-05,-1.29855e-05,-2.74147e-06,-0.000238757,-8.99836e-06,-6.37386e-05,0.000225612,4.70433e-06,0
-3.9421e-05,-2.7175e-05,-6.88556e-06,-0.000228943,-1.17225e-05,-4.34113e-05,0.000178222,5.26326e-06,0
-4.37227e-05,-3.82835e-05,-1.17034e-05,-0.000181065,-8.44654e-06,-1.89351e-05,0.000103224,3.69603e-06,0
-3.64476e-05,-3.9644e-05,-1.37951e-05,-8.37785e-05,7.40939e-06,-1.81931e-05,3.07741e-05,1.42583e-06,0
-2.21592e-05,-3.21531e-05,-1.4245e-05,3.85492e-05,2.68271e-05,-2.58649e-05,-2.89666e-05,1.46846e-06,0
-8.69944e-06,-2.24288e-05,-1.61353e-05,0.000148677,3.28963e-05,-2.81724e-05,-8.90929e-05,3.76459e-06,0
7.73149e-06,-1.49797e-05,-1.83774e-05,0.000226858,2.46956e-05,-2.34526e-05,-0.000148013,5.32105e-06,0
2.41648e-05,-8.78015e-06,-1.63956e-05,0.000269819,1.59761e-05,-1.71666e-05,-0.000193029,5.1609e-06,0
2.49863e-05,-2.44301e-06,-8.7003e-06,0.000277067,1.8526e-05,-1.79532e-05,-0.000214163,4.36074e-06,0
5.57668e-06,3.13871e-06,6.80502e-07,0.000242573,2.81871e-05,-2.65926e-05,-0.000213645,4.20425e-06,0
-1.9721e-05,4.54269e-06,6.84239e-06,0.000177135,3.40383e-05,-3.26198e-05,-0.000206029,4.65217e-06,0
-3.68094e-05,2.02802e-06,8.60384e-06,0.000107765,3.17534e-05,-3.10293e-05,-0.000204668,5.07497e-06,0
-4.43623e-05,1.11387e-06,7.00717e-06,5.62228e-05,2.1396e-05,-2.95003e-05,-0.000202599,5.43987e-06,0
-4.90691e-05,4.37977e-06,3.21582e-06,3.43437e-05,6.50118e-06,-3.42607e-05,-0.000181636,6.80038e-06,0
-5.1918e-05,8.78755e-06,-5.99249e-07,4.45304e-05,-1.65492e-06,-3.90229e-05,-0.000137734,9.72902e-06,0
-4.92683e-05,1.28908e-05,-1.86121e-06,6.21889e-05,3.98559e-06,-2.17468e-05,-7.28555e-05,1.25843e-05,0
-4.23769e-05,1.67527e-05,7.48268e-08,6.78992e-05,1.27597e-05,2.61088e-05,8.33343e-06,1.35192e-05,0
-3.77675e-05,1.9799e-05,4.2148e-06,5.75988e-05,1.31914e-05,6.01541e-05,8.62781e-05,1.31173e-05,0
-3.66481e-05,2.22736e-05,9.56671e-06,2.67778e-05,1.56155e-05,4.39877e-05,0.000142569,1.38059e-05,0
-3.60978e-05,2.42999e-05,1.19653e-05,3.60641e-06,2.45547e-05,1.15822e-05,0.000165948,1.35871e-05,0
-3.37559e-05,2.91841e-05,8.03083e-06,1.52026e-05,2.63963e-05,-1.17464e-06,0.000115454,1.01344e-05,0
-2.91322e-05,3.52071e-05,3.83239e-06,-1.43258e-05,1.76491e-05,7.66876e-06,2.02193e-05,6.77385e-06,0
-2.46773e-05,3.82703e-05,1.39549e-06,-0.000129506,4.55859e-06,1.97835e-05,-1.70158e-06,3.7844e-06,0
-2.21689e-05,3.97968e-05,-4.3928e-06,-0.000253334,-1.09925e-05,1.99751e-05,8.00494e-05,2.45231e-06,0
-2.12225e-05,3.97198e-05,-1.18494e-05,-0.00033086,-2.456e-05,1.32072e-05,0.00017879,1.48133e-06,0
-1.98869e-05,3.98982e-05,-1.4902e-05,-0.00037405,-2.47167e-05,1.06025e-05,0.000170489,-1.8784e-06,0
-1.96421e-05,4.47791e-05,-1.31865e-05,-0.000379066,-1.68515e-05,1.22726e-05,6.99194e-05,-4.66641e-06,0
-2.24811e-05,5.43674e-05,-1.23335e-05,-0.000275477,-1.45093e-05,8.3363e-06,-2.9415e-06,-6.25361e-06,0
-2.73039e-05,6.42514e-05,-1.13564e-05,-6.4557e-05,-1.20304e-05,-1.47888e-06,-3.80197e-05,-6.24084e-06,0
-2.79788e-05,7.41957e-05,-5.66454e-06,0.000128452,4.49408e-06,-1.43489e-05,-7.97647e-05,-6.116e-06,0
-2.52727e-05,8.16273e-05,2.09865e-06,0.000192186,3.08743e-05,-2.64633e-05,-0.000155665,-6.40828e-06,0
-2.36959e-05,7.71215e-05,6.92502e-06,0.000140657,5.17321e-05,-3.25431e-05,-0.000242133,-6.69102e-06,0
-2.3236e-05,5.61652e-05,5.88869e-06,6.43834e-05,6.15767e-05,-3.12529e-05,-0.000296916,-7.51188e-06,0
-2.13334e-05,2.63216e-05,1.05674e-06,3.00147e-05,6.38834e-05,-1.83981e-05,-0.000291177,-8.48589e-06,0
-1.79233e-05,2.55662e-07,-3.53422e-06,5.0482e-05,6.14048e-05,9.92891e-06,-0.00020412,-8.25283e-06,0
-1.81659e-05,-1.71149e-05,-5.40159e-06,8.66584e-05,5.2801e-05,4.33511e-05,-9.31562e-05,-6.51452e-06,0
-2.44144e-05,-2.64289e-05,-5.22381e-06,8.09639e-05,3.92353e-05,6.12012e-05,-6.34444e-05,-4.47937e-06,0
-3.22064e-05,-2.85301e-05,-5.84912e-06,2.60926e-05,2.62652e-05,5.71671e-05,-0.00010677,-2.41552e-06,0
-3.4364e-05,-2.35045e-05,-8.3037e-06,-2.9933e-05,1.63882e-05,4.39291e-05,-9.77649e-05,-1.31574e-06,0
-3.05622e-05,-1.46801e-05,-1.2121e-05,-5.75091e-05,1.0162e-05,3.36903e-05,9.42268e-06,-1.28125e-06,0
-2.21989e-05,-7.15649e-06,-1.65075e-05,-8.23698e-05,6.48433e-06,2.76991e-05,0.000132417,-5.63644e-07,0
-1.24983e-05,-3.54491e-06,-2.0947e-05,-0.000139654,-1.2225e-06,1.96752e-05,0.000183447,1.15956e-06,0
-8.15569e-06,-7.63095e-07,-2.26687e-05,-0.000205593,-1.31266e-05,5.00334e-06,0.000168436,2.40101e-06,0
-1.07959e-05,2.49722e-06,-2.20327e-05,-0.000226607,-2.35035e-05,-3.61893e-06,0.000150562,3.26696e-06,0
-1.7187e-05,4.06218e-06,-2.09488e-05,-0.000159343,-2.94399e-05,7.17146e-06,0.000168974,5.26491e-06,0
-2.87913e-05,4.83954e-06,-1.76795e-05,2.48505e-06,-3.08833e-05,1.1725e-05,0.000207204,1.62512e-05,0
-4.62205e-05,5.78201e-06,-1.39952e-05,0.00018751,-2.90994e-05,-2.3613e-05,0.000209289,3.21168e-05,0
-6.25947e-05,4.85863e-06,-1.15273e-05,0.000322239,-1.71805e-05,-7.37129e-05,0.000143466,3.87989e-05,0
-6.97862e-05,1.24216e-06,-9.83478e-06,0.000372921,5.81205e-06,-8.81962e-05,8.45135e-05,3.49669e-05,0
-6.99442e-05,-2.55742e-06,-1.00877e-05,0.000326913,2.73061e-05,-8.32211e-05,0.000106726,2.21989e-05,0
-7.19698e-05,-6.08838e-06,-1.154e-05,0.000201808,3.7596e-05,-8.35273e-05,0.000167727,2.99937e-06,0
-7.8779e-05,-6.64767e-06,-1.20342e-05,5.23641e-05,3.44894e-05,-7.97939e-05,0.000187473,-1.97509e-05,0
-8.3014e-05,-3.62477e-06,-1.00462e-05,-5.4709e-05,2.42627e-05,-7.27932e-05,0.000142647,-3.88665e-05,0
-7.19489e-05,-2.67498e-06,-7.36409e-06,-0.000103906,1.79981e-05,-5.99432e-05,9.05865e-05,-4.7691e-05,0
-4.71938e-05,-2.55905e-06,-5.06406e-06,-0.000109527,2.17262e-05,-5.11591e-05,7.51152e-05,-4.59361e-05,0
-2.17569e-05,4.50659e-07,-2.07865e-06,-0.000107201,2.7241e-05,-3.25396e-05,8.69936e-05,-3.91389e-05,0
-6.97099e-06,6.30186e-06,9.72833e-07,-0.000116359,2.85694e-05,1.03618e-05,8.38567e-05,-3.16924e-05,0
-7.49848e-06,1.44045e-05,4.96507e-07,-0.000137948,2.65731e-05,6.00089e-05,3.61556e-05,-2.29758e-05,0
-2.20601e-05,2.25158e-05,-2.58369e-06,-0.000142404,2.03601e-05,8.65933e-05,-2.19804e-05,-1.37246e-05,0
-4.00136e-05,2.8459e-05,-1.37829e-06,-8.96068e-05,6.64515e-06,6.88222e-05,-5.1617e-05,-4.4425e-06,0
-4.85295e-05,3.19651e-05,3.66673e-06,-4.18552e-06,-9.53384e-06,2.31756e-05,-7.94597e-05,1.04824e-06,0
-4.93534e-05,3.5498e-05,4.91045e-06,6.43072e-05,-1.18764e-05,-1.63577e-05,-0.000135268,1.68925e-06,0
-5.28763e-05,3.87217e-05,-2.54039e-06,8.92925e-05,2.58461e-07,-3.34054e-05,-0.00018684,1.08991e-06,0
-6.0769e-05,3.81304e-05,-1.48726e-05,6.96239e-05,9.7281e-06,-4.36082e-05,-0.000195167,2.31068e-06,0
-6.46926e-05,3.31075e-05,-2.45657e-05,1.09511e-05,5.78438e-06,-5.37568e-05,-0.000165193,5.10087e-06,0
-6.07107e-05,2.74473e-05,-2.77439e-05,-5.17124e-05,-4.31815e-06,-5.62372e-05,-0.000120929,8.72311e-06,0
-5.27981e-05,2.28573e-05,-2.51862e-05,-8.57543e-05,-9.99598e-06,-4.53646e-05,-7.70814e-05,1.12059e-05,0
-4.83347e-05,1.80926e-05,-2.00146e-05,-9.2902e-05,-7.0985e-06,-2.45372e-05,-5.05002e-05,1.01638e-05,0
-4.94222e-05,1.29169e-05,-1.62346e-05,-9.40809e-05,1.51232e-06,5.32774e-06,-7.02852e-05,7.39832e-06,0
-5.16735e-05,8.43525e-06,-1.52385e-05,-9.15727e-05,7.89378e-06,3.64507e-05,-0.000160457,5.42041e-06,0
-4.6024e-05,8.56719e-06,-1.23914e-05,-6.74028e-05,9.35138e-06,5.49947e-05,-0.000240069,5.53097e-06,0
-1.7643e-05,1.33023e-05,-5.00933e-06,-1.54425e-05,1.11576e-05,6.33056e-05,-0.000196994,6.78226e-06,0
2.77408e-05,1.58958e-05,1.53973e-06,3.1983e-05,1.22916e-05,7.01789e-05,-5.329e-05,6.33401e-06,0
5.57734e-05,1.6278e-05,3.28446e-06,4.24772e-05,1.05803e-05,6.88584e-05,9.81058e-05,3.87322e-06,0
4.43676e-05,2.00027e-05,3.83824e-07,2.42596e-05,1.09523e-05,6.79091e-05,0.000201075,3.52598e-06,0
2.65239e-06,2.44518e-05,-3.90417e-06,2.47797e-07,1.14769e-05,7.69588e-05,0.000243671,5.16946e-06,0
-3.61701e-05,2.53868e-05,-9.01082e-06,-1.29843e-05,6.89325e-06,6.82249e-05,0.000241373,5.95657e-06,0
-4.80979e-05,2.28423e-05,-1.58948e-05,-2.25601e-05,-4.20222e-06,3.51754e-05,0.00020773,5.47378e-06,0
-3.28229e-05,2.09766e-05,-1.997e-05,-3.49063e-05,-2.10198e-05,3.35437e-06,0.000153833,3.55094e-06,0
-8.8654e-06,2.44633e-05,-2.00255e-05,-3.76527e-05,-3.07427e-05,-1.30446e-05,0.000104294,3.14783e-06,0
2.93408e-06,2.87953e-05,-1.8029e-05,-3.2238e-05,-2.83304e-05,-1.9111e-05,7.07206e-05,3.5603e-06,0
2.04475e-06,2.71621e-05,-1.72035e-05,-2.84706e-05,-2.45057e-05,-2.24062e-05,6.76672e-05,2.962e-06,0
-5.26315e-06,1.95732e-05,-1.98609e-05,-4.51507e-06,-2.4769e-05,-2.23825e-05,7.94837e-05,1.99872e-06,0
-6.05875e-06,1.16054e-05,-2.47236e-05,4.13808e-05,-3.04322e-05,-1.5612e-05,7.5459e-05,1.55864e-06,0
4.51174e-06,8.32315e-06,-2.91737e-05,6.39479e-05,-3.65107e-05,-1.37442e-05,4.30457e-05,1.37069e-06,0
9.48368e-06,7.77419e-06,-3.04336e-05,4.15984e-05,-3.39729e-05,-3.74208e-05,-1.89648e-05,1.61296e-06,0
-5.8426e-06,4.14782e-06,-2.58049e-05,-1.06317e-05,-1.51541e-05,-8.24142e-05,-9.80665e-05,2.09234e-06,0
-2.7822e-05,-2.88096e-06,-1.78349e-05,-6.15258e-05,1.4586e-05,-0.000113144,-0.000134812,1.71809e-06,0
-3.61191e-05,-7.33528e-06,-1.21578e-05,-6.40906e-05,4.75541e-05,-0.000103563,-5.72812e-05,6.78582e-07,0
-2.94027e-05,-3.78274e-06,-9.57172e-06,-1.65521e-05,7.89612e-05,-6.26299e-05,0.00010716,-2.20061e-06,0
-1.79082e-05,6.9122e-06,-6.51419e-06,3.09078e-05,0.000102391,-2.15624e-05,0.000258411,-4.92663e-06,0
-6.37032e-06,2.01974e-05,-1.38164e-06,2.6092e-05,0.000114564,3.8238e-06,0.000323778,-6.1614e-06,0
4.17148e-06,3.11516e-05,8.27647e-07,-6.33201e-05,0.000111588,1.69e-05,0.000305339,-5.30812e-06,0
8.27577e-06,3.55253e-05,-3.25546e-06,-0.000208187,9.00443e-05,2.08925e-05,0.000233562,-3.25254e-06,0
5.23255e-06,3.4806e-05,-9.48206e-06,-0.000292696,5.79381e-05,1.68638e-05,0.000138792,-1.15099e-07,0
3.2188e-07,3.31689e-05,-1.38232e-05,-0.000222836,3.00282e-05,1.12856e-05,4.83097e-05,2.30366e-06,0
-3.87743e-06,3.24454e-05,-1.63171e-05,-4.63083e-05,1.14279e-05,1.46208e-05,-1.17743e-05,1.58816e-06,0
-1.23173e-05,3.33092e-05,-1.69107e-05,0.000116515,1.49234e-06,2.88e-05,-5.11265e-05,-8.02567e-07,0
-2.47539e-05,3.97716e-05,-1.5532e-05,0.00020027,-3.26701e-06,3.52398e-05,-7.15501e-05,-2.31109e-06,0
-3.74026e-05,5.52389e-05,-1.20068e-05,0.000216589,-5.36518e-06,1.12254e-06,7.47407e-06,-2.06039e-06,0
-4.81925e-05,7.34086e-05,-4.10385e-06,0.000218518,1.30574e-06,-6.94136e-05,0.000220128,9.9482e-08,0
-5.57163e-05,8.72727e-05,1.09924e-05,0.000233026,2.74846e-05,-0.000114708,0.000454749,4.11144e-06,0
-5.84902e-05,8.83575e-05,2.39624e-05,0.000209619,5.51987e-05,-8.66222e-05,0.000521147,6.71148e-06,0
-6.57773e-05,6.98553e-05,2.44038e-05,0.000104155,5.99774e-05,-5.02557e-05,0.000377065,7.44367e-06,0
-8.78086e-05,3.85974e-05,1.38201e-05,-2.84534e-05,4.20337e-05,-6.59547e-05,0.000104654,5.15814e-06,0
-0.000106394,1.01476e-05,1.07445e-06,-9.55225e-05,1.09133e-05,-8.47303e-05,-0.00022282,1.35502e-06,0
-9.53939e-05,-3.92211e-06,-5.64665e-06,-8.07077e-05,-1.79901e-05,-7.55951e-05,-0.000467542,1.29401e-06,0
