ch1,ch2,ch3,ch4,ch5,ch6,ch7,ch8,class
-2.9042e-05,-4.31413e-06,-2.04933e-05,-0.000130238,2.68988e-05,-1.482e-05,-9.06493e-06,2.68741e-08,0
-3.12559e-05,-4.22163e-06,-2.02198e-05,-0.000142493,1.01663e-05,-1.36213e-05,-3.25062e-05,2.32183e-05,0
-3.21666e-05,-3.27056e-06,-1.6637e-05,-9.76099e-05,-2.19971e-06,-1.32062e-05,-7.16431e-05,4.26853e-05,0
-2.9898e-05,-1.44668e-06,-1.12297e-05,5.49227e-06,-4.16063e-06,-1.30979e-05,-9.9513e-05,5.02468e-05,0
-2.67694e-05,1.92407e-06,-4.85098e-06,0.000125833,6.02622e-08,-1.23577e-05,-9.41547e-05,4.34671e-05,0
-2.64144e-05,4.76937e-06,1.37886e-06,0.000188358,4.29469e-07,-1.31296e-05,-6.19699e-05,2.63694e-05,0
-2.89622e-05,4.29149e-06,5.66078e-06,0.00015568,5.27512e-07,-1.71534e-05,-2.07366e-05,5.86331e-06,0
-3.09098e-05,1.41114e-06,6.08529e-06,7.215e-05,9.30108e-06,-2.3063e-05,2.70913e-05,-1.15735e-05,0
-3.02005e-05,1.5338e-07,1.99035e-06,-2.69295e-05,1.81393e-05,-2.67473e-05,9.40465e-05,-2.227e-05,0
-2.69266e-05,1.29643e-06,-4.15139e-06,-0.000107255,2.45012e-05,-2.24805e-05,0.000180889,-2.61288e-05,0
-2.22636e-05,3.48954e-06,-8.94015e-06,-0.000110567,3.64525e-05,-1.17902e-05,0.000239591,-2.62794e-05,0
-1.81034e-05,5.10464e-06,-1.09647e-05,-1.61876e-05,5.40468e-05,-4.60258e-06,0.000223795,-2.5319e-05,0
-1.85959e-05,4.54396e-06,-9.58074e-06,0.000121566,6.89398e-05,2.36878e-06,0.000139371,-2.39155e-05,0
-2.29807e-05,2.7325e-06,-4.4907e-06,0.000197473,7.26261e-05,1.79617e-05,2.3725e-05,-2.09409e-05,0
-2.66272e-05,2.89316e-06,1.43006e-06,0.000192086,6.30983e-05,2.70761e-05,-7.48432e-05,-1.47786e-05,0
-2.90474e-05,5.52778e-06,5.25026e-06,0.000179677,4.36068e-05,1.73009e-05,-0.000123789,-5.61342e-06,0
-2.96423e-05,7.58034e-06,7.41634e-06,0.000152783,2.26397e-05,3.76878e-06,-0.000137018,4.1786e-06,0
-2.83813e-05,9.80696e-06,6.02845e-06,8.37805e-05,8.3495e-07,-2.86956e-06,-0.000131211,9.42175e-06,0
-2.70775e-05,1.34104e-05,-9.11253e-07,2.3849e-05,-2.52592e-05,-4.49163e-06,-0.000101688,9.26868e-06,0
-2.93172e-05,1.37741e-05,-8.17057e-06,3.01094e-05,-5.01478e-05,-4.91856e-06,-6.59981e-05,9.35327e-06,0
-3.32893e-05,9.92961e-06,-1.44729e-05,0.000105562,-6.65115e-05,-9.34045e-06,-3.39001e-05,1.10309e-05,0
-3.53896e-05,7.2296e-06,-2.06326e-05,0.000186722,-7.12047e-05,-1.64398e-05,-1.2903e-05,1.35665e-05,0
-3.66183e-05,6.13721e-06,-2.7053e-05,0.000208909,-5.85255e-05,-2.16052e-05,-5.56757e-07,1.60531e-05,0
-3.81465e-05,6.21571e-06,-3.0435e-05,0.00015264,-2.73403e-05,-2.34414e-05,5.77523e-06,2.00841e-05,0
-3.82739e-05,9.35155e-06,-2.78521e-05,4.1191e-05,1.74394e-05,-2.16964e-05,8.09264e-06,2.54284e-05,0
-3.65842e-05,1.47557e-05,-2.12557e-05,-0.000105089,6.91668e-05,-1.75456e-05,7.80922e-06,2.68672e-05,0
-3.42178e-05,1.9463e-05,-1.23909e-05,-0.00026313,0.000113634,-9.83461e-06,7.65332e-06,2.22129e-05,0
-3.12911e-05,2.19877e-05,-4.91695e-06,-0.000369852,0.000132135,-1.82615e-06,1.07925e-05,1.43699e-05,0
-2.90426e-05,2.2047e-05,-2.04628e-06,-0.000363659,0.00011819,1.27821e-06,1.0587e-05,8.14097e-06,0
-2.88185e-05,2.04743e-05,-3.37003e-06,-0.000253117,8.35058e-05,1.94242e-08,5.57763e-06,3.67674e-06,0
-3.05822e-05,1.76067e-05,-5.77418e-06,-0.000107332,4.82641e-05,-2.17041e-06,-2.1596e-06,8.4083e-07,0
-3.29827e-05,1.43361e-05,-6.69343e-06,9.9363e-07,2.67871e-05,-2.66065e-06,-4.68346e-06,1.49394e-06,0
-3.40626e-05,1.41001e-05,-4.24511e-06,4.32963e-05,1.81509e-05,-1.83607e-06,-1.18734e-06,4.27488e-06,0
-3.15526e-05,1.65925e-05,4.66996e-07,2.91659e-05,1.43051e-05,-2.03387e-06,5.45941e-06,4.8764e-06,0
-2.78137e-05,1.76938e-05,4.46499e-06,-2.45885e-05,9.47298e-06,-3.94209e-06,7.75793e-06,8.89555e-07,0
-2.6289e-05,1.59171e-05,5.77538e-06,-8.771e-05,3.06626e-06,-4.5966e-06,7.04341e-06,-6.90142e-06,0
-2.74381e-05,1.2473e-05,3.74274e-06,-0.000123145,-3.95239e-07,-2.3581e-06,8.35135e-06,-8.44888e-06,0
-2.88902e-05,7.98064e-06,-7.77752e-07,-0.000126989,2.6617e-06,-2.42144e-07,1.34684e-05,8.61183e-06,0
-2.81481e-05,5.64543e-06,-4.7503e-06,-0.000113798,7.50277e-06,-3.77984e-06,1.80258e-05,2.9988e-05,0
-2.46479e-05,6.36278e-06,-7.99959e-06,-9.26282e-05,6.57071e-06,-1.37035e-05,1.92204e-05,3.68137e-05,0
-2.15557e-05,6.39561e-06,-1.36131e-05,-7.83258e-05,-7.15773e-06,-1.77202e-05,1.83442e-05,2.95768e-05,0
-2.29271e-05,4.4244e-06,-2.1379e-05,-8.7853e-05,-2.53042e-05,-1.75171e-06,1.78211e-05,8.62441e-06,0
-2.76048e-05,4.53539e-06,-2.71319e-05,-0.000140839,-1.80441e-05,1.66894e-05,1.84524e-05,-1.92889e-05,0
-3.28444e-05,6.62871e-06,-2.75634e-05,-0.000199321,7.37736e-06,1.21909e-05,2.07421e-05,-4.26851e-05,0
-3.52795e-05,8.39787e-06,-2.43856e-05,-0.000196717,1.57833e-05,-1.01106e-05,2.28234e-05,-5.32815e-05,0
-3.32489e-05,1.00037e-05,-2.20706e-05,-0.000116221,1.01455e-05,-3.55694e-05,2.31597e-05,-5.18905e-05,0
-2.83635e-05,1.10155e-05,-1.98358e-05,4.42428e-05,8.18246e-06,-4.70141e-05,2.21039e-05,-4.68995e-05,0
-2.4368e-05,1.00248e-05,-1.81181e-05,0.000174362,9.03223e-06,-3.44284e-05,2.01865e-05,-3.8234e-05,0
-2.33941e-05,6.0842e-06,-1.7447e-05,0.000159611,6.19983e-06,-1.52506e-05,1.97043e-05,-2.45071e-05,0
-2.62134e-05,1.93452e-06,-1.62387e-05,8.81888e-05,1.47523e-06,-9.98331e-06,1.87598e-05,-9.28989e-06,0
-3.33504e-05,-8.7381e-07,-1.4543e-05,7.02679e-05,-9.55323e-06,-1.82762e-05,1.81819e-05,3.14968e-07,0
-4.0506e-05,-1.0616e-07,-1.07121e-05,0.000105028,-3.95815e-05,-2.96138e-05,1.49258e-05,3.01923e-06,0
-4.34342e-05,3.66146e-06,-6.27659e-06,0.000130602,-8.37689e-05,-3.54383e-05,1.04498e-05,4.17761e-06,0
-4.16858e-05,7.88923e-06,-3.82044e-06,0.000116214,-0.000106253,-3.46495e-05,8.64955e-06,6.35093e-06,0
-3.89387e-05,1.10448e-05,-6.00615e-06,4.8667e-05,-8.21485e-05,-3.06091e-05,1.09526e-05,8.92447e-06,0
-3.79875e-05,1.42512e-05,-1.11991e-05,-4.49122e-05,-2.57151e-05,-2.54494e-05,1.49117e-05,1.15907e-05,0
-3.78041e-05,1.83524e-05,-1.47746e-05,-7.3268e-05,3.27799e-05,-1.86971e-05,1.90186e-05,1.26822e-05,0
-3.6845e-05,2.14301e-05,-1.33706e-05,-1.52531e-05,6.27032e-05,-1.0222e-05,2.16187e-05,1.15503e-05,0
-3.58084e-05,2.26721e-05,-9.81176e-06,5.13902e-05,5.33105e-05,-2.39258e-06,2.11201e-05,1.10408e-05,0
-3.46435e-05,2.24622e-05,-7.81642e-06,7.25658e-05,2.65493e-05,3.3168e-06,1.90536e-05,1.17159e-05,0
-3.19587e-05,2.17713e-05,-4.32617e-06,6.53296e-05,1.60955e-05,8.78055e-06,1.75928e-05,1.25179e-05,0
-2.86977e-05,2.05391e-05,3.04831e-06,6.07767e-05,3.31967e-05,1.61797e-05,1.42157e-05,1.21829e-05,0
-2.60976e-05,1.90537e-05,8.46725e-06,7.58849e-05,6.07248e-05,2.26025e-05,2.6133e-06,9.82255e-06,0
-2.48254e-05,1.71145e-05,5.58691e-06,8.30714e-05,7.14988e-05,2.24555e-05,-1.43033e-05,6.0273e-06,0
-2.58049e-05,1.51763e-05,3.53551e-07,7.75231e-05,6.06743e-05,1.06964e-05,-2.1378e-05,2.7879e-06,0
-2.88863e-05,1.32653e-05,2.28008e-06,7.63902e-05,4.35803e-05,-1.12028e-05,-1.49479e-05,1.15755e-06,0
-3.13945e-05,1.15923e-05,1.01232e-05,4.04637e-05,2.89575e-05,-3.33865e-05,-6.70733e-06,1.19947e-06,0
-3.24267e-05,9.93442e-06,1.48154e-05,-3.61576e-05,1.70229e-05,-4.15125e-05,4.40346e-07,1.45325e-06,0
-2.90953e-05,8.75414e-06,1.20331e-05,-0.000109396,1.35662e-05,-2.7559e-05,1.0239e-05,-1.06286e-06,0
-2.33032e-05,8.31182e-06,3.24665e-06,-0.000170696,2.01833e-05,-5.6843e-06,2.50325e-05,-6.74514e-06,0
-1.82995e-05,8.80616e-06,-3.62362e-06,-0.000205748,2.34867e-05,8.4238e-06,4.10577e-05,-1.16907e-05,0
-1.17681e-05,8.11416e-06,-4.38516e-06,-0.000172567,2.35502e-05,2.10011e-05,5.07723e-05,-1.28689e-05,0
-5.00801e-06,6.5757e-06,-5.71586e-07,-7.16728e-05,2.70751e-05,2.7632e-05,5.02887e-05,-6.3681e-06,0
-2.92614e-06,8.55285e-06,6.24633e-06,4.78635e-05,2.79987e-05,1.53463e-05,4.61984e-05,9.72945e-06,0
-1.00151e-05,1.16928e-05,1.26693e-05,0.000137939,2.26151e-05,-9.78933e-06,4.27387e-05,2.25173e-05,0
-2.29962e-05,1.33721e-05,1.49961e-05,0.000174332,1.28771e-05,-3.3044e-05,3.68898e-05,2.51634e-05,0
-3.23878e-05,1.26089e-05,1.20212e-05,0.000170755,1.60023e-06,-4.55146e-05,2.38638e-05,2.35358e-05,0
-3.21783e-05,1.16624e-05,6.7387e-06,0.000135397,-8.59039e-06,-4.67418e-05,5.39446e-06,2.01991e-05,0
-2.85016e-05,1.34407e-05,1.68132e-06,7.89067e-05,-1.62452e-05,-4.27409e-05,-6.17446e-06,1.38395e-05,0
-3.16339e-05,1.63611e-05,-2.80904e-06,2.63274e-05,-2.20426e-05,-4.07341e-05,-5.95357e-06,3.39884e-06,0
-4.05497e-05,1.733e-05,-5.68695e-06,-6.20573e-06,-2.37926e-05,-3.59621e-05,3.19283e-06,-7.58187e-06,0
-4.57161e-05,1.75059e-05,-5.20234e-06,-2.15749e-05,-1.88736e-05,-2.36001e-05,1.72547e-05,-1.52353e-05,0
-4.31881e-05,1.98736e-05,-3.50266e-06,-3.43895e-05,-1.18613e-05,-6.93302e-06,3.31579e-05,-1.92321e-05,0
-3.81303e-05,2.24051e-05,-4.30854e-06,-4.96207e-05,-5.22477e-06,1.99628e-05,4.74473e-05,-2.33327e-05,0
-3.58848e-05,2.156e-05,-8.9576e-06,-7.93746e-05,9.06937e-06,5.46621e-05,5.54107e-05,-2.71911e-05,0
-3.50412e-05,1.84844e-05,-1.57204e-05,-0.000141043,2.07917e-05,6.53879e-05,5.58133e-05,-2.69004e-05,0
-3.03695e-05,1.71764e-05,-2.2734e-05,-0.000222421,4.94566e-06,4.10084e-05,4.98257e-05,-2.28208e-05,0
-2.13345e-05,1.68717e-05,-2.78451e-05,-0.000256786,-3.96039e-06,1.42134e-05,3.67386e-05,-1.77679e-05,0
-1.39543e-05,1.69221e-05,-2.87875e-05,-0.000201568,3.51214e-05,8.43419e-06,1.33157e-05,-1.16922e-05,0
-1.64545e-05,1.86466e-05,-2.67225e-05,-7.74892e-05,7.16493e-05,1.30732e-05,-2.41566e-05,-4.55486e-06,0
-3.17519e-05,1.93001e-05,-2.41061e-05,5.11772e-05,5.34642e-05,2.50595e-06,-7.5711e-05,-2.09747e-07,0
-5.05625e-05,1.5426e-05,-2.16697e-05,0.000120399,1.76721e-06,-3.54385e-05,-0.000122575,2.29575e-07,0
-5.69243e-05,1.20615e-05,-1.89705e-05,0.000124904,-4.34689e-05,-7.05706e-05,-0.000140762,5.15284e-07,0
-4.63982e-05,1.3284e-05,-1.65966e-05,0.000118645,-5.99518e-05,-6.91307e-05,-0.00012587,2.68948e-06,0
-3.07567e-05,1.48877e-05,-1.57332e-05,0.000135053,-4.1032e-05,-4.54716e-05,-8.83613e-05,3.43066e-06,0
-2.03275e-05,1.71655e-05,-1.44462e-05,0.000129625,-1.57296e-07,-2.57752e-05,-3.63046e-05,2.73254e-06,0
-1.80282e-05,2.22029e-05,-1.02704e-05,8.68127e-05,1.98382e-05,-1.79125e-05,2.14438e-05,2.67376e-06,0
-2.23506e-05,2.62227e-05,-6.12713e-06,5.0733e-05,6.77852e-06,-1.83891e-05,7.41845e-05,2.04016e-06,0
-2.91011e-05,2.64288e-05,-4.63286e-06,2.23228e-05,-1.20142e-05,-2.02172e-05,0.000114079,5.56269e-07,0
-3.49249e-05,2.35999e-05,-4.44178e-06,4.70004e-06,-3.12848e-05,-1.98302e-05,0.000137178,-2.53684e-06,0
-3.80262e-05,2.10832e-05,-3.66179e-06,2.62757e-06,-4.76365e-05,-1.81948e-05,0.000156419,-3.87643e-06,0
-3.79178e-05,1.93842e-05,-3.18661e-06,-1.61361e-05,-4.69836e-05,-1.84288e-05,0.00017104,-2.67906e-06,0
-3.53581e-05,1.54355e-05,-5.15372e-06,-7.37417e-05,-2.40558e-05,-1.79507e-05,0.000166325,-2.26488e-06,0
-3.32112e-05,1.08081e-05,-1.02915e-05,-0.000140458,6.79366e-06,-1.57144e-05,0.000140897,-1.49702e-06,0
-3.13386e-05,9.08208e-06,-1.73167e-05,-0.000166722,2.25747e-05,-1.36448e-05,0.000105772,-3.7613e-08,0
-3.0252e-05,1.09266e-05,-2.28389e-05,-0.000134374,2.134e-05,-1.28877e-05,7.34707e-05,8.53552e-07,0
-3.04784e-05,1.30242e-05,-2.5165e-05,-6.51189e-05,2.30905e-05,-1.15048e-05,4.81735e-05,1.49913e-06,0
-3.12417e-05,1.30488e-05,-2.39399e-05,-1.18157e-06,4.14564e-05,-8.00559e-06,2.88299e-05,1.71422e-06,0
-3.246e-05,1.22228e-05,-1.76399e-05,5.81883e-05,6.37802e-05,-5.58236e-06,-6.77632e-06,1.0603e-06,0
-3.38116e-05,1.28297e-05,-7.16088e-06,0.000111074,7.06831e-05,-5.45114e-06,-9.40737e-05,3.4632e-07,0
-3.50835e-05,1.55545e-05,2.47627e-06,0.000134305,5.35812e-05,-6.76689e-06,-0.000212148,-1.48595e-07,0
-3.60699e-05,1.89762e-05,6.28313e-06,0.000132638,2.01744e-05,-7.87949e-06,-0.00028238,-1.79493e-08,0
-3.64706e-05,2.19408e-05,4.92534e-06,0.000133751,-6.9088e-06,-7.29829e-06,-0.000262881,1.38802e-06,0
-3.59075e-05,2.31346e-05,1.40201e-06,0.000134393,-1.89669e-05,-4.59525e-06,-0.000175105,6.33927e-06,0
-3.51023e-05,2.10832e-05,-3.22169e-06,0.000112486,-2.51172e-05,-3.8809e-06,-5.7729e-05,1.6517e-05,0
-3.29308e-05,1.76612e-05,-7.35537e-06,6.50897e-05,-2.4412e-05,-4.89405e-06,6.27473e-05,2.89938e-05,0
-2.86303e-05,1.78377e-05,-8.42923e-06,8.87398e-06,-8.5122e-06,-3.11065e-06,0.000162088,3.85277e-05,0
-2.54452e-05,2.12649e-05,-7.07468e-06,-3.32325e-05,2.00963e-05,4.15368e-07,0.000216431,4.23778e-05,0
-2.66e-05,2.29547e-05,-5.78879e-06,-4.8181e-05,5.32618e-05,3.22969e-06,0.000220609,3.62232e-05,0
-2.90309e-05,2.22173e-05,-4.0897e-06,-4.4205e-05,8.79526e-05,4.55799e-06,0.000187402,2.11094e-05,0
-3.05724e-05,2.04992e-05,-1.65553e-06,-3.44508e-05,0.000102737,-9.87864e-07,0.000119208,5.32548e-06,0
-3.05381e-05,1.74828e-05,6.89013e-07,-8.32444e-06,7.33003e-05,-1.93356e-05,2.90983e-05,-3.41567e-06,0
-2.76554e-05,1.55964e-05,2.60519e-06,3.95668e-05,2.40417e-05,-4.50316e-05,-4.22119e-05,-4.3284e-06,0
-2.37947e-05,1.50936e-05,3.04802e-06,5.71105e-05,-2.80596e-06,-5.33562e-05,-5.76583e-05,-4.35393e-06,0
-2.46122e-05,1.2942e-05,1.06051e-06,1.10051e-05,-1.41334e-06,-1.50616e-05,-2.37876e-05,-6.93749e-06,0
-3.14965e-05,9.877e-06,-8.27131e-07,-6.41192e-05,1.08618e-05,4.02079e-05,2.29802e-05,-7.58648e-06,0
-3.63264e-05,9.06292e-06,-1.70962e-06,-0.00013043,2.468e-05,5.31985e-05,6.67594e-05,-4.74886e-06,0
-3.55388e-05,1.19256e-05,-3.42557e-06,-0.000150717,3.27608e-05,2.10317e-05,9.42223e-05,-4.13435e-06,0
-3.22221e-05,1.48133e-05,-8.41469e-06,-0.000130101,2.99568e-05,-2.14533e-05,9.43331e-05,-7.78417e-06,0
-2.86747e-05,1.41165e-05,-1.57764e-05,-0.000101343,1.39207e-05,-4.69062e-05,6.99975e-05,-1.45104e-05,0
-2.40923e-05,1.21707e-05,-2.30859e-05,-7.8203e-05,-9.8214e-06,-5.49743e-05,3.95523e-05,-2.02392e-05,0
-1.69576e-05,1.2508e-05,-2.61244e-05,-2.43681e-05,-3.28881e-05,-4.65803e-05,1.6543e-05,-2.14703e-05,0
-1.17436e-05,1.49474e-05,-2.12086e-05,5.47537e-05,-4.84902e-05,-1.90263e-05,4.7622e-06,-1.83423e-05,0
-1.28727e-05,1.81874e-05,-1.18512e-05,6.06425e-05,-5.4198e-05,1.24257e-05,-7.23162e-06,-1.24607e-05,0
-1.89618e-05,2.1662e-05,-2.50976e-06,-5.17642e-05,-4.45806e-05,2.5141e-05,-5.53995e-05,-5.22863e-06,0
-2.59176e-05,2.43622e-05,2.17605e-06,-0.000202637,-1.70848e-05,2.03698e-05,-0.000148981,6.73165e-06,0
-3.22663e-05,2.46152e-05,-1.39231e-06,-0.000291698,1.40436e-05,1.71043e-05,-0.000235593,2.6452e-05,0
-3.88169e-05,2.25157e-05,-1.17086e-05,-0.000287393,4.09293e-05,1.43086e-05,-0.000258651,4.52947e-05,0
-4.3962e-05,2.06555e-05,-2.12125e-05,-0.000204448,6.62279e-05,4.01185e-06,-0.00021341,5.16705e-05,0
-4.50901e-05,2.02783e-05,-2.46631e-05,-8.04012e-05,8.61991e-05,-8.30521e-06,-0.000130525,4.40261e-05,0
-4.32095e-05,1.94072e-05,-2.21722e-05,5.33777e-05,8.90918e-05,-1.29178e-05,-4.08661e-05,2.99645e-05,0
-4.29484e-05,1.66069e-05,-1.69798e-05,0.000151412,7.5329e-05,-1.16739e-05,4.47498e-05,2.29244e-05,0
-4.44566e-05,1.18907e-05,-1.3717e-05,0.000170226,5.10907e-05,-1.12629e-05,0.000118461,2.48972e-05,0
-4.38656e-05,6.74262e-06,-1.32165e-05,0.000139811,2.67031e-05,-1.2983e-05,0.000164643,1.93803e-05,0
-3.90153e-05,6.00098e-06,-1.05927e-05,0.000134402,1.63752e-05,-1.22968e-05,0.000172797,-2.4354e-06,0
-2.86639e-05,9.92343e-06,-4.60581e-06,0.000162701,1.90831e-05,-1.02541e-05,0.000159535,-3.00191e-05,0
-1.39548e-05,1.32372e-05,-7.77823e-07,0.000161678,1.7773e-05,-9.70983e-06,0.00014796,-5.122e-05,0
-3.54244e-06,1.46316e-05,-8.16269e-07,9.3255e-05,9.19894e-06,-1.0635e-05,0.000142804,-6.28356e-05,0
-4.82751e-06,1.62189e-05,-2.05353e-06,1.49864e-05,4.77745e-06,-1.03939e-05,0.000135878,-6.64735e-05,0
-1.65223e-05,1.56772e-05,-4.33215e-06,-4.83847e-05,1.61512e-05,-8.57786e-06,0.000119547,-6.07239e-05,0
-2.86368e-05,9.9541e-06,-7.76157e-06,-0.000100828,3.4157e-05,-8.67794e-06,9.26104e-05,-4.71893e-05,0
-3.66508e-05,3.46586e-06,-1.20107e-05,-0.000100949,4.05382e-05,-1.09132e-05,5.9661e-05,-3.06102e-05,0
-4.25503e-05,-1.18003e-06,-1.42867e-05,-6.11007e-05,3.45811e-05,-1.25155e-05,2.12901e-05,-1.26933e-05,0
-4.54961e-05,-5.73132e-06,-1.3761e-05,-8.54425e-06,2.42193e-05,-1.16778e-05,-1.69152e-05,1.92252e-06,0
-4.60675e-05,-8.01046e-06,-1.4165e-05,3.04107e-05,1.65399e-05,-1.27314e-05,-4.24906e-05,1.07805e-05,0
-4.42102e-05,-6.24015e-06,-1.55421e-05,2.2541e-05,1.06931e-05,-1.50869e-05,-5.48391e-05,1.49937e-05,0
-4.33861e-05,-3.21082e-06,-1.68268e-05,-3.10338e-05,4.37576e-06,-1.54303e-05,-5.86276e-05,2.20759e-05,0
-4.50896e-05,-2.32116e-06,-1.74728e-05,-8.47658e-05,-5.29387e-06,-1.59673e-05,-5.46633e-05,3.92986e-05,0
-4.72244e-05,-4.58024e-06,-1.84054e-05,-0.000108558,-1.53921e-05,-2.26966e-05,-3.85638e-05,5.5278e-05,0
-4.82911e-05,-9.22893e-06,-1.99849e-05,-0.000101865,-2.14179e-05,-3.11413e-05,-1.38194e-05,5.75513e-05,0
-4.7357e-05,-1.31213e-05,-2.17902e-05,-5.84364e-05,-2.02919e-05,-3.24416e-05,8.94336e-06,5.07533e-05,0
-4.39494e-05,-1.30302e-05,-2.00066e-05,1.77145e-05,-1.21049e-05,-2.56538e-05,2.13076e-05,3.75457e-05,0
-3.85228e-05,-9.68422e-06,-1.34167e-05,0.000112632,4.05502e-06,-1.75647e-05,2.31492e-05,1.51584e-05,0
-3.31875e-05,-5.57811e-06,-3.54581e-06,0.000191699,2.90329e-05,-1.72339e-05,1.87366e-05,-1.02252e-05,0
-2.97816e-05,-1.97115e-06,6.1043e-06,0.00020316,5.51746e-05,-3.06367e-05,1.33838e-05,-2.99534e-05,0
-2.7654e-05,1.58785e-06,1.05237e-05,0.000150445,7.1715e-05,-5.25549e-05,1.08409e-05,-4.20875e-05,0
-2.55671e-05,4.94419e-06,7.12349e-06,9.77183e-05,7.39579e-05,-6.24861e-05,1.07553e-05,-4.76377e-05,0
-2.47634e-05,6.26289e-06,-3.3016e-06,6.43662e-05,6.17072e-05,-5.01004e-05,1.17719e-05,-4.5861e-05,0
-2.65002e-05,4.46005e-06,-1.56378e-05,1.58842e-05,3.82274e-05,-2.07962e-05,1.43391e-05,-3.71616e-05,0
-3.06195e-05,9.30462e-07,-2.53976e-05,-4.39574e-05,1.18185e-05,1.91116e-05,1.81845e-05,-2.51882e-05,0
-3.53669e-05,-2.15983e-06,-3.08261e-05,-6.13601e-05,-1.03231e-05,4.49589e-05,1.8643e-05,-1.60757e-05,0
-3.81179e-05,-2.61072e-06,-3.11202e-05,-2.46254e-05,-2.16226e-05,3.10434e-05,1.40384e-05,-1.2448e-05,0
-3.55172e-05,1.27921e-06,-2.45662e-05,1.76398e-05,-1.94764e-05,1.72192e-06,7.25757e-06,-1.0696e-05,0
-2.81058e-05,7.18123e-06,-1.37076e-05,5.0314e-05,-6.89482e-06,-9.80829e-06,1.57902e-06,-4.62361e-06,0
-2.06212e-05,1.17353e-05,-3.22353e-06,0.000111248,1.19967e-05,-2.78754e-06,1.18625e-07,3.7258e-06,0
-1.69249e-05,1.41499e-05,2.66829e-06,0.000180704,3.24373e-05,7.99382e-06,1.10569e-06,1.02303e-05,0
-1.68101e-05,1.51839e-05,4.8043e-06,0.000136615,5.06248e-05,1.47904e-05,1.22735e-06,1.5829e-05,0
-1.82486e-05,1.42926e-05,3.47873e-06,-1.62886e-05,5.7197e-05,1.9387e-05,-1.79277e-07,1.54662e-05,0
-1.84584e-05,1.17963e-05,-7.01029e-07,-0.00012227,4.5208e-05,2.18877e-05,-9.81704e-06,1.11059e-05,0
-1.67174e-05,9.94839e-06,-1.82503e-06,-0.000133242,2.41911e-05,2.37001e-05,-2.94711e-05,2.75763e-05,0
-1.40581e-05,9.00329e-06,1.99099e-06,-8.54253e-05,1.41626e-05,2.48827e-05,-4.45088e-05,8.01742e-05,0
-1.2169e-05,8.45635e-06,4.25431e-06,-3.6985e-05,2.87552e-05,2.35655e-05,-4.67162e-05,0.00012771,0
-1.27032e-05,7.95543e-06,-1.26967e-07,-3.18808e-05,4.69553e-05,1.88945e-05,-4.24999e-05,0.000132642,0
-1.47676e-05,8.40792e-06,-5.65063e-06,-6.39371e-05,4.62348e-05,1.38647e-05,-3.40042e-05,0.000104923,0
-1.69572e-05,9.83497e-06,-5.77773e-06,-9.98136e-05,4.0329e-05,1.01267e-05,-1.73451e-05,5.48697e-05,0
-1.80787e-05,1.11679e-05,-2.39456e-06,-0.000110234,4.17865e-05,3.54656e-06,7.15152e-06,-7.16843e-06,0
-1.92668e-05,1.15895e-05,1.63084e-06,-9.21416e-05,2.92519e-05,-1.50807e-05,3.29229e-05,-6.48157e-05,0
-2.11265e-05,1.27028e-05,5.52784e-06,-5.48793e-05,-9.02571e-06,-3.80408e-05,5.15847e-05,-0.000100978,0
-2.24875e-05,1.59503e-05,7.9264e-06,-2.20475e-05,-5.11426e-05,-4.19678e-05,5.95735e-05,-0.00010854,0
-2.27978e-05,1.95338e-05,6.0726e-06,-2.21639e-05,-7.3252e-05,-2.73716e-05,5.84289e-05,-9.19147e-05,0
-2.6279e-05,2.10527e-05,5.27419e-07,-6.31426e-05,-6.58543e-05,-1.68866e-05,4.92907e-05,-6.36576e-05,0
-3.61708e-05,1.87177e-05,-3.55693e-06,-0.000102241,-3.98268e-05,-2.04734e-05,3.09886e-05,-3.70309e-05,0
-4.78096e-05,1.40141e-05,-3.25025e-06,-9.34925e-05,-1.01006e-05,-2.81993e-05,4.07907e-06,-1.85919e-05,0
-5.2742e-05,1.12739e-05,8.6464e-07,-3.0907e-05,2.16553e-05,-2.94753e-05,-2.4529e-05,-1.24539e-05,0
-4.71515e-05,1.2352e-05,4.11241e-06,5.01453e-05,5.01076e-05,-2.30269e-05,-4.49198e-05,-1.8724e-05,0
-3.76278e-05,1.35087e-05,2.82143e-06,9.21352e-05,5.90149e-05,-1.54408e-05,-5.51569e-05,-3.16977e-05,0
-3.27685e-05,1.24935e-05,-1.54832e-06,6.43918e-05,4.99058e-05,-1.13143e-05,-5.40116e-05,-3.98482e-05,0
-3.17396e-05,1.23696e-05,-5.18753e-06,1.0261e-05,3.73531e-05,-9.6874e-06,-2.31195e-05,-3.66094e-05,0
-2.96004e-05,1.56368e-05,-6.90833e-06,-2.07205e-05,2.52697e-05,-6.92508e-06,5.50018e-05,-2.51133e-05,0
-2.60346e-05,2.11883e-05,-8.69317e-06,-2.93387e-05,7.21225e-06,-3.51058e-06,0.000148475,-1.55924e-05,0
-2.44896e-05,2.49969e-05,-1.22745e-05,-3.44423e-05,-1.69102e-05,-5.12063e-06,0.000192918,-1.49593e-05,0
-2.68159e-05,2.5369e-05,-1.67239e-05,-3.34018e-05,-3.78313e-05,-1.08071e-05,0.000172031,-1.76255e-05,0
-2.89821e-05,2.57647e-05,-2.12997e-05,-1.71699e-05,-4.14975e-05,-1.30928e-05,0.000117817,-1.46621e-05,0
-3.01758e-05,2.52409e-05,-2.30422e-05,7.85975e-06,-2.16901e-05,-9.92115e-06,5.35829e-05,-8.16778e-06,0
-3.08085e-05,2.35018e-05,-2.33438e-05,4.81723e-05,-3.003e-06,-4.89935e-06,1.04957e-06,-1.37141e-06,0
-3.06328e-05,2.0728e-05,-2.28533e-05,9.46458e-05,-7.20574e-06,-1.28898e-06,-2.83765e-05,4.26053e-06,0
-3.11439e-05,1.69395e-05,-2.21492e-05,0.000125352,-1.65686e-05,-4.78516e-07,-3.68738e-05,7.35266e-06,0
-3.20455e-05,1.45262e-05,-2.22501e-05,0.0001246,-9.19561e-06,-3.5874e-06,-2.84352e-05,9.27119e-06,0
-3.29436e-05,1.22401e-05,-2.08279e-05,9.38582e-05,9.76979e-06,-9.26354e-06,-2.20252e-05,1.28575e-05,0
-3.34742e-05,1.08425e-05,-1.72786e-05,5.32864e-05,2.19197e-05,-1.29397e-05,-2.021e-05,1.72167e-05,0
-3.48068e-05,1.00751e-05,-1.20445e-05,1.67151e-05,1.80061e-05,-1.36957e-05,-2.26101e-05,2.2199e-05,0
-3.7214e-05,7.07995e-06,-1.02717e-05,-7.48437e-06,4.62176e-06,-1.17348e-05,-2.69109e-05,2.72051e-05,0
-3.86191e-05,2.83924e-06,-1.15476e-05,-2.64061e-05,-6.89988e-06,-7.44759e-06,-2.79026e-05,2.76863e-05,0
-3.70865e-05,2.27836e-06,-1.31552e-05,-5.7108e-05,-8.70992e-06,-2.96496e-06,-2.25178e-05,2.28319e-05,0
-3.49056e-05,5.93648e-06,-1.39994e-05,-7.43387e-05,-2.55487e-06,2.47209e-07,-1.51251e-05,1.9405e-05,0
-3.37083e-05,8.87397e-06,-1.39023e-05,-4.90417e-05,6.42197e-06,1.96622e-06,-1.01502e-05,3.23025e-05,0
-3.31439e-05,8.02554e-06,-1.12906e-05,-2.95864e-05,1.32542e-05,8.19624e-07,-5.0466e-06,5.68478e-05,0
-3.30896e-05,6.93598e-06,-7.60531e-06,-8.14584e-05,1.10682e-05,-3.70077e-06,-1.77107e-06,6.71284e-05,0
-3.26172e-05,9.36469e-06,-8.09124e-06,-0.00017317,1.06889e-06,-9.18359e-06,4.04709e-07,5.32183e-05,0
-3.04552e-05,1.39063e-05,-1.31669e-05,-0.000225717,-7.68979e-06,-1.24046e-05,9.97327e-07,2.81299e-05,0
-2.42355e-05,1.90296e-05,-1.57979e-05,-0.00021664,-8.7204e-06,-1.15628e-05,2.11049e-06,5.54081e-06,0
-1.40299e-05,2.54071e-05,-1.06741e-05,-0.000154289,5.40011e-06,-1.16475e-05,1.54734e-06,-1.10399e-05,0
-5.98698e-06,3.30083e-05,-1.83822e-06,-4.96589e-05,4.08801e-05,-1.60511e-05,1.68508e-06,-2.25108e-05,0
-9.3009e-06,3.93207e-05,6.39755e-06,5.27154e-05,7.85335e-05,-2.19045e-05,2.54757e-06,-2.91001e-05,0
-2.66637e-05,4.07863e-05,1.17639e-05,0.000110947,8.67959e-05,-2.68751e-05,3.59971e-06,-3.05725e-05,0
-4.97343e-05,3.54143e-05,1.16633e-05,0.000109299,6.57858e-05,-3.04253e-05,4.41195e-06,-2.78126e-05,0
-6.68035e-05,2.76444e-05,6.83189e-06,7.36371e-05,4.27801e-05,-3.17746e-05,3.8722e-06,-2.55212e-05,0
-7.3763e-05,2.41981e-05,4.79208e-06,6.68019e-05,3.16941e-05,-3.28511e-05,-2.54335e-06,-2.36353e-05,0
-7.26832e-05,2.68087e-05,5.876e-06,7.28754e-05,2.35167e-05,-3.77284e-05,-1.0015e-05,-1.83651e-05,0
-6.80513e-05,2.795e-05,6.1763e-06,5.80833e-05,1.18593e-05,-4.25778e-05,-1.14547e-05,-1.45027e-05,0
-6.1687e-05,2.21397e-05,6.78047e-06,4.19947e-05,-4.39913e-07,-4.81766e-05,-2.78169e-06,-1.65856e-05,0
-5.58389e-05,1.64351e-05,7.75631e-06,3.19107e-05,-6.49297e-06,-4.55067e-05,1.54644e-05,-1.89694e-05,0
-4.68378e-05,1.24605e-05,7.95626e-06,1.92435e-05,-3.89083e-06,-8.41048e-06,3.49769e-05,-1.47513e-05,0
-2.12651e-05,9.49287e-06,5.89424e-06,4.0256e-06,2.48435e-06,3.18583e-05,5.06244e-05,-5.94566e-06,0
1.53808e-05,1.09054e-05,2.3805e-06,-3.31209e-06,9.17441e-06,2.98205e-05,5.47139e-05,-1.56692e-07,0
3.44141e-05,1.28973e-05,-8.75799e-07,-2.61203e-06,1.6795e-05,4.90363e-06,5.15155e-05,6.0649e-06,0
2.77739e-05,1.46259e-05,-2.01112e-06,-1.00378e-06,3.81039e-05,-1.37507e-05,4.5893e-05,1.92345e-05,0
1.20388e-05,1.59211e-05,-1.92135e-06,-5.19277e-06,5.5241e-05,-1.72147e-05,3.98022e-05,3.41597e-05,0
-1.49671e-06,1.44947e-05,-4.31735e-06,-1.39092e-05,5.46967e-05,-1.46642e-05,3.31754e-05,3.92158e-05,0
-9.839e-06,1.22819e-05,-7.34715e-06,-1.72941e-05,6.47022e-05,-1.61194e-05,2.59047e-05,3.45887e-05,0
-1.53084e-05,1.17084e-05,-8.24432e-06,-6.83483e-06,7.30528e-05,-2.13941e-05,1.94353e-05,2.82366e-05,0
-1.92381e-05,1.36104e-05,-7.37234e-06,6.24763e-06,4.16322e-05,-2.69741e-05,1.584e-05,2.23731e-05,0
-2.22629e-05,1.53864e-05,-6.73216e-06,6.3661e-06,-2.57681e-05,-3.09232e-05,1.512e-05,1.91463e-05,0
-2.2823e-05,1.53801e-05,-6.69463e-06,-1.37122e-06,-7.85508e-05,-2.6783e-05,1.50982e-05,1.67226e-05,0
-2.22331e-05,1.38351e-05,-6.99504e-06,-5.15057e-06,-7.90389e-05,-7.5078e-06,1.53752e-05,9.78476e-06,0
-2.39011e-05,1.26743e-05,-7.7186e-06,-5.51738e-06,-4.14086e-05,1.28862e-05,1.40555e-05,-1.55962e-06,0
-2.93008e-05,1.26791e-05,-9.88255e-06,-9.44953e-06,-1.26057e-05,1.57102e-05,7.04121e-06,-1.18867e-05,0
-3.70939e-05,1.24585e-05,-1.39794e-05,-1.51154e-05,-1.82389e-05,1.12837e-06,-3.03253e-06,-2.1479e-05,0
-4.28756e-05,1.23763e-05,-1.78491e-05,-1.74972e-05,-3.66232e-05,-1.47961e-05,-7.81922e-06,-3.16298e-05,0
-4.39155e-05,1.32822e-05,-2.04844e-05,-1.63297e-05,-3.92289e-05,-2.27353e-05,-7.38505e-06,-3.77392e-05,0
-4.14577e-05,1.44926e-05,-2.21269e-05,-1.6225e-05,-2.38683e-05,-2.3766e-05,-3.56086e-06,-3.36155e-05,0
-3.94316e-05,1.51901e-05,-2.17302e-05,-2.21635e-05,-4.63452e-06,-2.31356e-05,3.71027e-06,-2.02982e-05,0
-3.86033e-05,1.42477e-05,-1.87186e-05,-4.9667e-05,1.19832e-05,-2.27123e-05,2.93928e-06,-4.29016e-06,0
-3.71798e-05,1.0988e-05,-1.58431e-05,-0.000102187,3.09659e-05,-2.03187e-05,-1.2154e-05,9.71465e-06,0
-3.17617e-05,7.90224e-06,-1.48079e-05,-0.000127704,5.70224e-05,-1.30716e-05,-2.25796e-05,1.92589e-05,0
-2.47479e-05,6.23864e-06,-1.68914e-05,-6.832e-05,7.38199e-05,5.1224e-07,-1.58593e-05,3.36253e-05,0
-2.22135e-05,8.85818e-06,-2.11742e-05,6.088e-05,7.04924e-05,1.2586e-05,6.76319e-07,5.88494e-05,0
-2.62401e-05,1.58747e-05,-2.58644e-05,0.000190928,6.20857e-05,1.5048e-05,2.01356e-05,7.61399e-05,0
-3.12041e-05,2.23528e-05,-2.79311e-05,0.000235302,5.88393e-05,1.0987e-05,3.44772e-05,6.47904e-05,0
-3.24411e-05,2.47124e-05,-2.5858e-05,0.000184902,5.44307e-05,6.64711e-06,3.10749e-05,2.99549e-05,0
-3.17289e-05,2.19886e-05,-2.21993e-05,9.77234e-05,4.37538e-05,5.12372e-06,5.51927e-06,-7.26327e-06,0
-2.76421e-05,1.88758e-05,-1.75591e-05,-5.69857e-06,3.34136e-05,7.29538e-06,-2.95066e-05,-3.43041e-05,0
-2.3208e-05,1.7359e-05,-1.37625e-05,-0.000113004,2.94824e-05,9.9419e-06,-5.0422e-05,-4.88457e-05,0
-2.4659e-05,1.57e-05,-1.32892e-05,-0.000186525,2.49102e-05,8.26811e-06,-4.7609e-05,-5.37659e-05,0
-3.31764e-05,1.18989e-05,-1.61232e-05,-0.000188321,1.53306e-05,1.33156e-06,-2.5993e-05,-4.72219e-05,0
-4.3694e-05,8.47943e-06,-1.8182e-05,-0.000142875,2.42601e-06,-9.48547e-06,6.94687e-06,-3.05353e-05,0
-4.92566e-05,8.36247e-06,-1.6373e-05,-9.49818e-05,-1.67359e-05,-2.26203e-05,4.46803e-05,-9.40861e-06,0
-4.95963e-05,7.12818e-06,-1.22208e-05,-6.50229e-05,-3.87296e-05,-3.33424e-05,7.79761e-05,9.57774e-06,0
-4.79706e-05,5.44039e-06,-8.91974e-06,-4.14682e-05,-5.35269e-05,-3.59795e-05,9.87881e-05,2.07232e-05,0
-4.66721e-05,6.64663e-06,-8.41713e-06,-1.26636e-05,-5.79441e-05,-3.27183e-05,0.00010704,2.41969e-05,0
-4.43946e-05,9.39246e-06,-7.89864e-06,2.07521e-05,-5.20487e-05,-2.87258e-05,0.000103811,2.24058e-05,0
-3.83616e-05,1.02446e-05,-5.96041e-06,5.87439e-05,-3.12084e-05,-2.11586e-05,9.01439e-05,2.3919e-05,0
-2.61123e-05,9.02167e-06,-4.79688e-06,8.75977e-05,1.06918e-06,-8.13524e-06,7.10009e-05,3.41088e-05,0
-1.21232e-05,7.06495e-06,-7.32303e-06,8.84052e-05,2.85501e-05,2.13807e-06,5.45722e-05,4.56004e-05,0
-5.79304e-06,5.02894e-06,-1.0751e-05,6.40232e-05,4.81523e-05,1.89991e-06,4.48478e-05,4.56576e-05,0
-1.14936e-05,2.8623e-06,-1.03055e-05,4.23539e-05,6.83673e-05,-5.04537e-06,4.43995e-05,3.39882e-05,0
-2.37404e-05,6.95127e-08,-8.16825e-06,1.80401e-05,7.95419e-05,-1.12343e-05,5.59565e-05,1.63721e-05,0
-3.16199e-05,-1.6342e-06,-7.69519e-06,-2.5251e-05,6.87693e-05,-1.5212e-05,7.50551e-05,-3.51987e-06,0
-3.24457e-05,-2.0137e-06,-8.40446e-06,-7.45772e-05,4.82439e-05,-1.62579e-05,8.35416e-05,-2.2193e-05,0
-3.23326e-05,-1.56825e-06,-8.80094e-06,-0.000100989,3.59451e-05,-8.35811e-06,7.25096e-05,-3.35926e-05,0
-3.5132e-05,-8.70868e-07,-9.29843e-06,-9.17761e-05,3.47217e-05,6.94157e-06,4.9083e-05,-3.59398e-05,0
-3.71673e-05,9.71163e-07,-1.00196e-05,-5.87461e-05,4.1531e-05,1.20651e-05,2.19127e-05,-3.25087e-05,0
-3.62811e-05,3.93605e-06,-9.18877e-06,-1.96565e-05,6.49398e-05,-1.92992e-06,3.30044e-06,-2.60845e-05,0
-3.62235e-05,3.81881e-06,-8.80778e-06,3.99219e-05,8.81235e-05,-1.80634e-05,-3.57979e-07,-1.89631e-05,0
-3.78172e-05,-8.16724e-07,-1.11802e-05,8.14627e-05,7.08731e-05,-2.54624e-05,2.61148e-06,-1.30995e-05,0
-3.89478e-05,-7.85401e-06,-9.3688e-06,6.97498e-05,5.11889e-05,-2.49844e-05,2.52328e-06,-7.18535e-06,0
-4.0209e-05,-1.2508e-05,-1.68872e-06,5.39539e-05,5.24522e-05,-2.1847e-05,-5.02507e-06,-2.09174e-07,0
-4.00619e-05,-1.32068e-05,5.05925e-06,4.24911e-05,3.33807e-05,-2.04742e-05,-2.57365e-05,4.85174e-06,0
-3.77675e-05,-1.16368e-05,6.67134e-06,2.92825e-05,-9.57868e-06,-1.9064e-05,-5.15826e-05,7.16883e-06,0
-3.58311e-05,-9.11352e-06,4.0589e-06,2.11308e-05,-4.9064e-05,-1.82476e-05,-6.50546e-05,8.69769e-06,0
-3.29455e-05,-7.05246e-06,9.1898e-07,2.21398e-05,-5.89122e-05,-1.71209e-05,-6.58434e-05,1.02108e-05,0
-2.82522e-05,-5.14552e-06,-3.61977e-06,3.26502e-05,-3.9941e-05,-1.46599e-05,-6.15322e-05,1.09719e-05,0
-2.59334e-05,-4.81564e-06,-1.06968e-05,4.06751e-05,-1.37788e-05,-1.06272e-05,-5.41008e-05,1.14905e-05,0
-2.6272e-05,-4.68706e-06,-1.62011e-05,3.60023e-05,-3.77804e-06,-1.0132e-05,-4.21328e-05,1.07337e-05,0
-2.68604e-05,-3.39045e-06,-1.79877e-05,1.13116e-05,-4.07937e-06,-7.04034e-06,-2.74253e-05,7.54392e-06,0
-2.80067e-05,-2.97958e-07,-1.75382e-05,-2.95595e-05,-2.98841e-06,4.21251e-06,-1.7987e-05,4.45678e-06,0
-2.99624e-05,3.78591e-06,-1.65863e-05,-6.89735e-05,-4.25035e-07,1.23045e-05,-3.10898e-05,3.76618e-06,0
-3.08343e-05,7.20896e-06,-1.51732e-05,-7.87026e-05,-9.78018e-07,8.41746e-06,-7.16507e-05,3.19996e-06,0
-3.02273e-05,9.49367e-06,-1.26628e-05,-4.35286e-05,-5.65664e-06,-1.32128e-06,-0.000110433,3.02028e-06,0
-2.9969e-05,1.13921e-05,-9.58175e-06,2.29606e-05,-8.42938e-06,-5.364e-06,-0.000114712,3.28026e-06,0
-3.04504e-05,1.43676e-05,-8.01692e-06,9.20437e-05,-7.79192e-06,-2.4236e-06,-7.92575e-05,3.58585e-06,0
-3.0838e-05,1.73153e-05,-8.60303e-06,0.000125434,-5.47177e-06,3.61031e-06,-2.37324e-05,3.53565e-06,0
-3.11036e-05,1.98515e-05,-9.04675e-06,9.43617e-05,-6.25031e-06,9.709e-06,3.29869e-05,2.98938e-06,0
-3.1397e-05,2.25794e-05,-7.50336e-06,1.22446e-05,-7.80202e-06,1.39063e-05,8.15835e-05,2.15379e-06,0
-3.13082e-05,2.40691e-05,-6.12476e-06,-8.00996e-05,-8.53694e-06,1.4265e-05,0.000112092,1.24303e-06,0
-3.05467e-05,2.28138e-05,-8.40127e-06,-0.000145911,-7.00747e-06,1.34335e-05,0.000114246,2.86703e-06,0
-2.76504e-05,2.17585e-05,-1.11208e-05,-0.00014701,-3.99552e-06,1.39423e-05,9.09077e-05,1.49165e-05,0
-2.3513e-05,2.34675e-05,-9.3398e-06,-8.17464e-05,-1.01919e-06,1.45756e-05,5.12806e-05,3.67034e-05,0
-2.11411e-05,2.4872e-05,-4.69899e-06,-1.24529e-05,-1.97875e-06,1.29184e-05,-8.94103e-07,4.92197e-05,0
-2.17997e-05,2.23924e-05,-2.29374e-06,5.17544e-06,-3.50839e-06,7.09372e-06,-4.38711e-05,4.46563e-05,0
-2.43685e-05,1.85373e-05,-3.13398e-06,-1.36868e-05,-4.07474e-07,-3.26086e-06,-5.02751e-05,2.92945e-05,0
-2.62878e-05,1.4934e-05,-4.49237e-06,-2.95325e-05,2.14568e-06,-2.40113e-05,-2.36018e-05,2.13625e-06,0
-2.71951e-05,1.2486e-05,-4.69822e-06,-3.21175e-05,-3.36772e-06,-5.40851e-05,1.42389e-05,-2.76134e-05,0
-2.82125e-05,1.11449e-05,-4.56574e-06,-2.33938e-05,-8.17106e-06,-6.80688e-05,5.22332e-05,-4.50265e-05,0
-2.75684e-05,1.25146e-05,-3.54793e-06,-1.02742e-05,-1.34599e-06,-5.6118e-05,8.71384e-05,-4.81164e-05,0
-2.53876e-05,1.72121e-05,-1.18363e-06,1.29283e-06,1.27201e-05,-3.61541e-05,0.000108974,-4.38597e-05,0
-2.6194e-05,2.08229e-05,-1.911e-06,9.82086e-06,1.82407e-05,-2.11318e-05,0.000115454,-3.94459e-05,0
-3.03703e-05,2.20569e-05,-6.36239e-06,7.56481e-06,1.21301e-05,-1.4178e-05,0.00011116,-2.99498e-05,0
-3.39725e-05,2.07075e-05,-9.63849e-06,-8.33672e-06,5.31285e-06,-1.13644e-05,9.99803e-05,-1.55971e-05,0
-3.50544e-05,1.87244e-05,-9.95773e-06,-2.70171e-05,-9.82759e-09,-9.15414e-06,7.7068e-05,-2.96502e-06,0
-3.50358e-05,1.85008e-05,-8.66792e-06,-3.45521e-05,-4.96567e-06,-7.79992e-06,4.54969e-05,4.06499e-06,0
-3.59038e-05,1.96802e-05,-8.07177e-06,-2.80139e-05,-9.75387e-06,-7.66189e-06,1.98806e-05,8.49137e-06,0
-3.64178e-05,2.15541e-05,-8.03831e-06,-1.32513e-05,-1.0428e-05,-7.78867e-06,4.66012e-06,1.13189e-05,0
-3.49027e-05,2.26712e-05,-7.01238e-06,2.68457e-06,-6.06491e-06,-8.28046e-06,-4.33305e-06,1.16893e-05,0
-3.22243e-05,2.16581e-05,-4.69872e-06,1.57479e-05,4.47897e-06,-8.50747e-06,-1.18687e-05,1.16578e-05,0
-3.13225e-05,1.94252e-05,-4.77673e-06,2.64549e-05,1.57555e-05,-7.51296e-06,-1.60936e-05,1.09808e-05,0
-3.24378e-05,1.75001e-05,-8.28501e-06,3.04653e-05,2.06652e-05,-6.23237e-06,-1.34069e-05,8.76341e-06,0
-3.41689e-05,1.69792e-05,-1.12926e-05,2.28885e-05,1.82949e-05,-5.80577e-06,-1.60372e-06,4.60738e-06,0
-3.51875e-05,1.81583e-05,-1.10233e-05,7.48854e-06,1.41671e-05,-5.87957e-06,1.41707e-05,1.99345e-06,0
-3.48202e-05,2.0439e-05,-8.42517e-06,-8.46397e-06,1.35841e-05,-6.43392e-06,2.39085e-05,2.17746e-06,0
-3.3576e-05,2.32111e-05,-6.46993e-06,-2.90887e-05,1.72167e-05,-7.54911e-06,9.99487e-07,3.34096e-06,0
-3.11929e-05,2.51219e-05,-6.25353e-06,-6.64647e-05,2.16842e-05,-8.65825e-06,-8.40282e-05,2.50496e-06,0
-2.86476e-05,2.45262e-05,-6.68606e-06,-0.000114562,2.38903e-05,-8.66212e-06,-0.000198544,4.59226e-07,0
-2.82719e-05,2.13275e-05,-5.87322e-06,-0.000136654,2.30899e-05,-7.32306e-06,-0.000253491,-2.10835e-06,0
-3.03644e-05,1.89402e-05,-6.21241e-06,-0.000104814,1.62301e-05,-7.16682e-06,-0.000211506,-3.84987e-06,0
-3.18909e-05,1.99901e-05,-8.32304e-06,-3.04448e-05,2.74655e-06,-8.643e-06,-0.000112937,-3.1818e-06,0
-3.24398e-05,2.193e-05,-8.57124e-06,5.27359e-05,-8.62369e-06,-9.51312e-06,-5.665e-06,-1.00313e-06,0
-3.35496e-05,2.35201e-05,-5.87182e-06,0.000119535,-8.82999e-06,-8.71759e-06,8.9562e-05,3.60827e-06,0
-3.41624e-05,2.43371e-05,-3.90178e-06,0.000145945,-1.86615e-06,-6.38401e-06,0.000166982,3.9816e-05,0
-3.28199e-05,2.55194e-05,-5.27528e-06,9.27082e-05,4.29612e-06,-3.9256e-06,0.000208013,0.000102535,0
-3.02574e-05,2.84651e-05,-6.61594e-06,-8.3957e-06,9.16238e-06,-1.43744e-06,0.000209498,0.000133494,0
-2.79012e-05,3.04783e-05,-3.7635e-06,-0.000100171,1.58113e-05,8.86898e-07,0.000185016,0.000121657,0
-2.73446e-05,2.8399e-05,-1.93921e-06,-0.000189393,1.61923e-05,9.59193e-07,0.000147782,8.09084e-05,0
-2.97387e-05,2.50108e-05,-6.54108e-06,-0.000248377,8.43437e-06,7.86155e-07,0.000114798,1.93093e-05,0
-3.29599e-05,2.4559e-05,-1.32331e-05,-0.000195777,4.01186e-06,2.16228e-06,8.59389e-05,-4.61192e-05,0
-3.38474e-05,2.32784e-05,-1.62568e-05,-4.14425e-05,7.90161e-06,3.26445e-06,6.70079e-05,-9.2373e-05,0
-3.31306e-05,2.00425e-05,-1.41552e-05,0.000119927,1.92785e-05,2.44447e-06,5.50962e-05,-0.000111231,0
-3.15078e-05,1.8488e-05,-9.43777e-06,0.000241413,3.22922e-05,1.4368e-06,4.35528e-05,-0.00010934,0
-2.93019e-05,1.88402e-05,-4.90421e-06,0.000310002,4.13129e-05,1.70781e-06,2.73229e-05,-9.71626e-05,0
-2.71123e-05,1.88047e-05,7.54507e-07,0.000328125,4.75963e-05,2.83587e-06,8.04266e-06,-8.00845e-05,0
-2.54124e-05,1.87611e-05,8.24025e-06,0.00029871,5.02696e-05,3.84713e-06,-3.1357e-06,-5.90214e-05,0
-2.38877e-05,2.00624e-05,1.39573e-05,0.000226305,4.56574e-05,4.24787e-06,-7.37532e-06,-3.90701e-05,0
-2.26587e-05,2.16788e-05,1.45032e-05,0.000130478,3.37192e-05,5.36911e-06,-9.44112e-06,-2.36191e-05,0
-2.2373e-05,2.14784e-05,9.72665e-06,4.35375e-05,2.09286e-05,7.1655e-06,-1.16747e-05,-1.49048e-05,0
-2.32175e-05,1.87198e-05,3.61802e-06,-9.18728e-06,1.15598e-05,7.14294e-06,-8.60722e-06,-8.85427e-06,0
-2.47187e-05,1.49649e-05,-1.60049e-07,-4.18889e-05,3.89916e-06,4.30919e-06,-2.67507e-06,-2.00564e-06,0
-2.54582e-05,1.15514e-05,-1.97536e-06,-7.84024e-05,-2.38379e-06,4.19881e-07,2.16479e-06,4.57403e-06,0
-2.61185e-05,9.11726e-06,-5.12127e-06,-0.000106248,-2.47125e-06,-2.61869e-06,1.05658e-06,7.45823e-06,0
-2.70712e-05,8.24175e-06,-8.94168e-06,-9.82494e-05,4.67033e-06,-3.91358e-06,-3.91965e-06,8.57751e-06,0
-2.76165e-05,8.60309e-06,-1.01172e-05,-7.45396e-05,1.16257e-05,-4.60069e-06,-8.73718e-06,8.85215e-06,0
-2.72871e-05,9.43839e-06,-9.14478e-06,-6.8663e-05,1.30765e-05,-6.34733e-06,-8.30794e-06,8.57706e-06,0
-2.76323e-05,9.6707e-06,-8.37566e-06,-6.82565e-05,9.01339e-06,-1.07048e-05,5.48253e-06,8.51399e-06,0
-2.92124e-05,9.79045e-06,-8.99301e-06,-4.0649e-05,5.40805e-06,-1.33843e-05,4.86486e-05,8.2058e-06,0
-3.25607e-05,1.26484e-05,-1.14181e-05,-5.39777e-06,6.35814e-06,-1.09378e-05,0.000103716,7.64865e-06,0
-3.8523e-05,1.55332e-05,-1.35046e-05,-1.49095e-05,4.03256e-06,-9.68295e-06,0.000118625,7.76475e-06,0
-4.30272e-05,1.37596e-05,-1.53079e-05,-7.23916e-05,-1.75794e-05,-1.41782e-05,7.31438e-05,9.63726e-06,0
-4.02051e-05,9.70215e-06,-1.63798e-05,-0.000119422,-4.58016e-05,-1.9367e-05,1.02673e-06,1.06346e-05,0
-3.22167e-05,9.50175e-06,-1.45358e-05,-0.000132996,-4.97362e-05,-1.88478e-05,-5.63346e-05,9.50099e-06,0
-2.64914e-05,1.30925e-05,-8.68156e-06,-0.000126978,-2.6973e-05,-1.23734e-05,-9.23092e-05,8.85917e-06,0
-2.58101e-05,1.36985e-05,-2.50857e-06,-0.000112629,5.14242e-06,-5.90353e-06,-0.000107272,9.55369e-06,0
-2.86974e-05,1.08947e-05,-3.04038e-06,-9.16519e-05,2.32862e-05,-4.91877e-06,-0.000105119,1.06409e-05,0
-3.14965e-05,1.03054e-05,-6.01278e-06,-3.83558e-05,2.55953e-05,-8.32021e-06,-9.21399e-05,1.23599e-05,0
-3.16347e-05,1.14932e-05,-4.98545e-06,3.86826e-05,2.38061e-05,-1.11497e-05,-8.3972e-05,1.33715e-05,0
-3.07778e-05,1.30659e-05,-6.93813e-07,8.55606e-05,2.02854e-05,-1.01617e-05,-8.25591e-05,1.57261e-05,0
-2.98164e-05,1.53133e-05,1.08104e-06,6.69172e-05,1.17871e-05,-8.89133e-06,-7.5863e-05,2.21919e-05,0
-2.91712e-05,1.62853e-05,-2.95244e-06,1.97381e-05,5.39875e-06,-9.37113e-06,-5.9229e-05,2.91449e-05,0
-2.94641e-05,1.48213e-05,-1.02834e-05,-6.5464e-06,1.24407e-05,-1.04613e-05,-3.59728e-05,3.00045e-05,0
-2.90301e-05,1.32242e-05,-1.53651e-05,-4.85994e-06,2.3551e-05,-1.17132e-05,-1.13229e-05,2.39977e-05,0
-2.56371e-05,1.38511e-05,-1.53087e-05,1.26235e-05,2.93289e-05,-1.21112e-05,9.57782e-06,1.50818e-05,0
-2.15848e-05,1.35191e-05,-1.21534e-05,3.22031e-05,3.52941e-05,-1.06652e-05,1.7986e-05,6.4784e-06,0
-2.15336e-05,1.03045e-05,-9.52104e-06,3.9004e-05,4.95887e-05,-8.75202e-06,1.64119e-05,-1.56142e-07,0
-2.43116e-05,6.43173e-06,-9.84881e-06,2.64299e-05,6.54478e-05,-8.54809e-06,1.12536e-05,-3.31255e-06,0
-2.59126e-05,5.07983e-06,-1.23517e-05,4.53681e-06,7.61436e-05,-8.57518e-06,4.47085e-06,-5.08178e-06,0
-2.60675e-05,6.34912e-06,-1.60104e-05,-1.55515e-05,8.88951e-05,-7.19221e-06,-3.92853e-06,-7.39968e-06,0
-2.75544e-05,6.92464e-06,-1.97972e-05,-2.68668e-05,0.00011264,-5.14304e-06,-9.26928e-06,-8.95021e-06,0
-3.0067e-05,5.5457e-06,-2.2325e-05,-2.58222e-05,0.000136169,-5.39957e-06,-7.8365e-06,-8.42652e-06,0
-3.18789e-05,4.09892e-06,-2.27749e-05,-1.05184e-05,0.000126341,-8.03838e-06,6.10763e-07,-8.18706e-06,0
-3.15035e-05,4.56895e-06,-2.3011e-05,1.52189e-05,6.51808e-05,-9.80324e-06,1.59414e-05,-9.73319e-06,0
-2.93145e-05,6.24148e-06,-2.23386e-05,4.02338e-05,-1.94847e-05,-9.64957e-06,3.47323e-05,-9.77602e-06,0
-2.75295e-05,9.11556e-06,-1.89449e-05,3.94743e-05,-7.72567e-05,-9.62241e-06,5.23945e-05,-7.74496e-06,0
-2.7779e-05,1.25114e-05,-1.45198e-05,-1.31551e-05,-8.59906e-05,-1.07837e-05,6.69598e-05,-5.80898e-06,0
-2.92695e-05,1.40026e-05,-1.2273e-05,-9.48969e-05,-6.39973e-05,-1.13105e-05,7.35755e-05,-3.24873e-06,0
-2.93236e-05,1.29378e-05,-1.18266e-05,-0.000157316,-3.96117e-05,-9.96523e-06,6.93706e-05,7.4667e-07,0
-2.85835e-05,1.21881e-05,-9.1872e-06,-0.000193094,-3.20403e-05,-1.00759e-05,6.13243e-05,2.44011e-06,0
-2.9152e-05,1.55087e-05,-4.88481e-06,-0.000200716,-2.30136e-05,-1.10245e-05,5.51371e-05,1.48048e-06,0
-3.03399e-05,1.72421e-05,-1.89212e-06,-0.000144759,3.84552e-06,-8.60152e-06,5.28272e-05,3.4863e-06,0
-3.02396e-05,1.47103e-05,-3.31337e-06,-2.10308e-05,2.97511e-05,-5.42998e-06,5.2415e-05,1.62661e-05,0
-2.86259e-05,1.15528e-05,-9.65727e-06,0.000117965,4.60165e-05,-2.13392e-06,4.64321e-05,3.7026e-05,0
-2.66459e-05,9.33272e-06,-1.33641e-05,0.000219604,5.33968e-05,1.88312e-06,1.80886e-05,5.34714e-05,0
-2.49401e-05,9.42377e-06,-9.5895e-06,0.000250582,5.42427e-05,5.34012e-06,-3.9016e-05,6.70904e-05,0
-2.46696e-05,1.06319e-05,-2.02433e-06,0.000212301,4.28837e-05,7.04171e-06,-9.81011e-05,7.79175e-05,0
-2.63591e-05,1.14821e-05,3.44112e-06,0.00012685,2.22055e-05,4.8852e-06,-0.000128707,6.97511e-05,0
-2.79073e-05,1.20662e-05,4.7817e-06,2.98867e-05,4.85882e-07,2.40537e-07,-0.000125,3.53285e-05,0
-2.80418e-05,1.28819e-05,2.98388e-06,-3.33388e-05,-1.25372e-05,-3.44019e-06,-9.7413e-05,-1.05949e-05,0
-2.77649e-05,1.26813e-05,-1.20173e-06,-4.58376e-05,-1.32056e-05,-5.68536e-06,-5.21134e-05,-4.7863e-05,0
-2.82905e-05,1.19208e-05,-5.15497e-06,-3.3122e-05,-7.30311e-06,-8.58471e-06,7.00703e-06,-6.76979e-05,0
-2.91873e-05,1.25279e-05,-5.96057e-06,-2.29569e-05,-7.05059e-07,-1.31637e-05,6.86819e-05,-7.50681e-05,0
-3.01219e-05,1.61998e-05,-4.39466e-06,-1.83396e-05,1.67358e-06,-2.29991e-05,0.000119733,-7.71064e-05,0
-3.20222e-05,2.02785e-05,-3.34971e-06,-1.32758e-05,1.45395e-06,-4.25319e-05,0.000150547,-7.43018e-05,0
-3.58784e-05,2.05586e-05,-5.28656e-06,-5.06344e-06,1.1279e-06,-6.19956e-05,0.000154417,-6.55045e-05,0
-3.97546e-05,1.7085e-05,-1.08393e-05,1.39748e-06,3.02342e-06,-6.26985e-05,0.00012698,-4.95738e-05,0
-3.96801e-05,1.38447e-05,-1.51454e-05,4.52373e-06,5.52181e-06,-4.71195e-05,7.92575e-05,-2.49009e-05,0
-3.63468e-05,1.30748e-05,-1.42781e-05,3.64155e-06,8.01586e-06,-3.3066e-05,3.72386e-05,5.19729e-06,0
-3.36693e-05,1.31017e-05,-1.10025e-05,-1.60459e-06,1.02767e-05,-1.75437e-05,1.91923e-05,3.02164e-05,0
-3.2954e-05,1.29122e-05,-9.89072e-06,-1.43318e-05,1.42956e-05,4.09734e-06,2.28405e-05,4.23278e-05,0
-3.39493e-05,1.19592e-05,-9.67142e-06,-3.05318e-05,1.81186e-05,1.52133e-05,3.71416e-05,3.96299e-05,0
-3.46732e-05,1.1249e-05,-9.13389e-06,-4.07262e-05,1.89616e-05,7.97591e-06,5.28437e-05,2.5351e-05,0
-3.46562e-05,1.27014e-05,-9.12708e-06,-3.96508e-05,1.47631e-05,-5.29174e-06,6.54833e-05,5.93591e-06,0
-3.4813e-05,1.40024e-05,-1.06522e-05,-3.34572e-05,9.39614e-06,-1.21689e-05,7.35107e-05,-1.1334e-05,0
-3.41476e-05,1.26434e-05,-1.29158e-05,-2.09553e-05,5.65622e-06,-1.22079e-05,7.38857e-05,-2.47027e-05,0
-3.16402e-05,1.34277e-05,-1.13639e-05,-4.45709e-06,1.41287e-06,-1.03769e-05,6.16091e-05,-3.33925e-05,0
-2.98106e-05,1.68064e-05,-7.82595e-06,-5.86539e-06,-3.76202e-06,-1.11901e-05,3.7029e-05,-3.53468e-05,0
-3.10981e-05,1.74386e-05,-7.24879e-06,-2.04891e-05,-1.0201e-05,-1.49653e-05,1.1198e-05,-3.31822e-05,0
-3.17002e-05,1.79778e-05,-8.91415e-06,-1.98689e-05,-1.81235e-05,-1.88073e-05,-3.63776e-06,-2.67452e-05,0
-3.03457e-05,1.97966e-05,-8.58567e-06,1.54259e-06,-3.2092e-05,-1.95534e-05,-8.1032e-06,-1.67849e-05,0
-2.8622e-05,1.85194e-05,-9.59647e-06,4.5193e-05,-5.06132e-05,-1.75617e-05,-1.10289e-05,-7.64314e-06,0
-2.84807e-05,1.28011e-05,-1.60129e-05,0.000104536,-6.27739e-05,-1.62132e-05,-1.29438e-05,1.48718e-07,0
-2.95322e-05,5.9016e-06,-2.51173e-05,0.00015613,-5.59097e-05,-1.65165e-05,-1.08097e-05,8.51718e-06,0
-3.06905e-05,2.92903e-06,-3.11167e-05,0.000173,-2.93686e-05,-1.61017e-05,-3.4256e-06,1.53831e-05,0
-3.27314e-05,3.212e-06,-3.0079e-05,0.000150486,5.07833e-06,-1.37848e-05,6.15444e-06,2.09579e-05,0
-3.52302e-05,4.20771e-06,-2.49083e-05,0.000109664,4.02109e-05,-1.08287e-05,1.2084e-05,2.85392e-05,0
-3.43198e-05,4.98473e-06,-1.80358e-05,2.48689e-05,8.70645e-05,-5.79574e-06,1.27602e-05,3.72589e-05,0
-2.84387e-05,6.10128e-06,-9.61728e-06,-0.000113015,0.000141975,4.66041e-07,1.11125e-05,4.68506e-05,0
-2.346e-05,6.61382e-06,-1.97595e-06,-0.000221012,0.000174727,4.81315e-06,9.33253e-06,6.16034e-05,0
-2.14134e-05,4.46337e-06,-8.13458e-07,-0.000216259,0.000184259,5.38757e-06,6.96437e-06,7.52164e-05,0
-1.59939e-05,1.07216e-06,-4.96372e-06,-0.000132863,0.000180665,6.13706e-06,4.70459e-06,7.25816e-05,0
-4.2554e-06,2.90237e-06,-5.2351e-06,-7.16412e-05,0.000148136,1.12429e-05,3.56165e-06,5.02973e-05,0
4.66448e-06,1.25517e-05,1.29793e-06,-8.20787e-05,8.21559e-05,1.72141e-05,3.90282e-06,1.68198e-05,0
1.93942e-06,2.20662e-05,8.1632e-06,-0.000131094,9.8891e-06,1.8641e-05,5.76048e-06,-1.61895e-05,0
-1.08158e-05,2.46672e-05,1.08693e-05,-0.000156832,-4.37121e-05,1.55723e-05,9.09047e-06,-3.22455e-05,0
-2.1562e-05,2.17678e-05,8.83971e-06,-0.000134598,-6.37566e-05,1.0645e-05,1.33868e-05,-2.20544e-05,0
-2.1496e-05,1.67334e-05,1.94718e-06,-0.000101409,-4.40458e-05,5.48124e-06,1.77147e-05,-6.40976e-06,0
-1.47775e-05,1.08021e-05,-7.6975e-06,-0.000126675,-1.65658e-05,9.5251e-08,2.0217e-05,-4.66437e-06,0
-1.2097e-05,6.32895e-06,-1.72376e-05,-0.000228823,-1.70661e-05,-5.39354e-06,1.8874e-05,-7.27797e-06,0
-1.89732e-05,4.48937e-06,-2.3382e-05,-0.00037567,-3.22128e-05,-8.77201e-06,1.50243e-05,-1.05751e-05,0
-3.14825e-05,3.52364e-06,-2.40523e-05,-0.000490598,-2.82684e-05,-1.31614e-05,1.05489e-05,-2.33734e-05,0
-4.68869e-05,6.26672e-07,-2.25629e-05,-0.000442753,-4.68091e-06,-2.38382e-05,6.81501e-06,-4.18285e-05,0
-5.89342e-05,-2.56994e-06,-2.57262e-05,-0.000192136,-6.34077e-07,-3.36692e-05,4.48562e-06,-5.16875e-05,0
-6.1457e-05,-3.10071e-06,-2.86933e-05,0.000172447,-1.7163e-05,-3.58188e-05,2.27811e-06,-5.34053e-05,0
-5.92301e-05,-7.57368e-07,-2.40351e-05,0.000432946,-1.33048e-05,-3.30919e-05,3.34465e-07,-5.24134e-05,0
-5.83777e-05,8.56662e-07,-1.68298e-05,0.000410264,6.613e-06,-2.88668e-05,-5.32864e-07,-4.27136e-05,0
-5.9175e-05,-9.61295e-07,-1.18883e-05,0.000242246,1.49316e-05,-2.69348e-05,-5.72742e-07,-2.60992e-05,0
-5.72894e-05,-3.71377e-06,-7.76282e-06,0.000135706,1.9523e-05,-2.38168e-05,1.5826e-07,-1.05766e-05,0
-5.20814e-05,-4.9237e-06,8.33296e-07,0.000122709,4.32053e-05,-1.67734e-05,1.55295e-07,-1.496e-06,0
-4.72346e-05,-2.9611e-06,1.21564e-05,0.000114437,6.35438e-05,-9.4415e-06,-2.3698e-06,2.0164e-06,0
-4.47098e-05,-3.90294e-07,1.78223e-05,7.81892e-05,5.6326e-05,-6.41443e-06,-4.06806e-06,1.95341e-06,0
-4.17841e-05,1.18595e-06,1.67345e-05,5.71564e-05,3.76772e-05,-6.36153e-06,-2.56808e-06,2.15499e-06,0
-3.63906e-05,2.37618e-06,1.68082e-05,8.5096e-05,3.13494e-05,-3.48879e-06,-1.33863e-06,6.82755e-06,0
-2.86112e-05,3.05539e-06,2.01755e-05,0.000160898,3.89254e-05,3.61877e-06,-2.18242e-06,1.45699e-05,0
-2.11128e-05,5.15293e-06,2.17731e-05,0.000209456,4.26804e-05,1.01149e-05,-2.75916e-06,1.84123e-05,0
-1.81011e-05,9.71654e-06,1.78641e-05,0.000177791,3.26843e-05,8.85445e-06,-1.1494e-06,1.52506e-05,0
-2.0958e-05,1.43996e-05,9.08802e-06,0.000102283,1.59628e-05,-1.88662e-06,3.19143e-06,1.02861e-05,0
-2.7249e-05,1.6554e-05,1.44012e-06,4.799e-05,7.37277e-06,-1.47099e-05,1.08175e-05,7.11294e-06,0
-3.22325e-05,1.67719e-05,-1.68168e-06,2.94725e-05,8.55665e-06,-2.0343e-05,1.01967e-05,6.38054e-06,0
-3.64381e-05,1.6614e-05,-2.37495e-06,3.63752e-05,1.21181e-05,-2.03927e-05,-1.89994e-05,6.6457e-06,0
-4.39661e-05,1.5345e-05,-4.18272e-06,5.28786e-05,1.33431e-05,-2.10496e-05,-7.05906e-05,7.56248e-06,0
-5.29161e-05,1.15952e-05,-6.80242e-06,6.22629e-05,1.35824e-05,-2.38586e-05,-0.000107793,8.56688e-06,0
-5.5701e-05,5.83501e-06,-9.07169e-06,4.77373e-05,1.178e-05,-2.60952e-05,-0.000104808,9.33552e-06,0
-5.06292e-05,2.94154e-06,-1.11165e-05,7.79802e-06,8.30127e-06,-2.98553e-05,-6.78981e-05,9.49746e-06,0
-3.96025e-05,5.8812e-06,-1.40675e-05,-4.07049e-05,4.47291e-06,-4.16055e-05,-2.00144e-05,9.47836e-06,0
-2.79928e-05,8.32569e-06,-1.89448e-05,-7.57366e-05,3.00348e-06,-5.07151e-05,2.62157e-05,8.16619e-06,0
-2.42572e-05,4.25098e-06,-2.49915e-05,-6.3611e-05,8.12137e-08,-3.37757e-05,6.60929e-05,4.7981e-06,0
-2.73737e-05,-2.99897e-06,-2.93603e-05,1.28344e-06,-9.00106e-06,1.0687e-05,8.84335e-05,1.34542e-06,0
-2.90578e-05,-2.4602e-06,-2.86154e-05,7.40102e-05,-1.8453e-05,3.74617e-05,8.8794e-05,-4.77237e-07,0
-2.16442e-05,6.72099e-06,-2.16531e-05,7.8095e-05,-1.81451e-05,1.46627e-05,7.81282e-05,1.1579e-06,0
-8.26303e-06,1.61532e-05,-1.42257e-05,8.09907e-06,-4.32373e-06,-1.08653e-05,7.0252e-05,5.07504e-06,0
-3.57323e-06,2.08014e-05,-1.03021e-05,-4.24148e-05,1.17068e-05,-7.86128e-06,5.65649e-05,7.6066e-06,0
-8.91892e-06,2.17876e-05,-9.05259e-06,-2.75009e-05,2.02852e-05,4.49164e-06,2.95989e-05,2.16776e-05,0
-1.60886e-05,2.29454e-05,-7.56857e-06,3.20422e-06,1.90539e-05,1.13929e-05,7.82016e-06,4.76161e-05,0
-1.95765e-05,2.3286e-05,-3.50003e-06,-2.38163e-06,6.39057e-06,1.00736e-05,7.56979e-06,5.88965e-05,0
-2.10115e-05,2.28018e-05,-2.1591e-07,-2.03153e-05,-2.4875e-05,8.16183e-06,2.75633e-05,4.32423e-05,0
-2.35263e-05,2.19006e-05,-1.04666e-06,-2.11157e-05,-6.52367e-05,7.21339e-06,5.38597e-05,1.50416e-05,0
-2.54267e-05,1.99707e-05,-4.41238e-06,-2.33535e-05,-9.08914e-05,6.96535e-06,7.16438e-05,-7.19005e-06,0
-2.64056e-05,1.73811e-05,-7.79356e-06,-4.74474e-05,-0.000101958,4.29783e-06,7.77055e-05,-2.04814e-05,0
-2.77917e-05,1.42836e-05,-1.29506e-05,-8.19369e-05,-9.98357e-05,-4.44055e-06,7.717e-05,-2.59032e-05,0
-2.84938e-05,1.24225e-05,-2.04437e-05,-8.6126e-05,-6.74339e-05,-1.80978e-05,7.2872e-05,-2.46877e-05,0
-2.6577e-05,1.26202e-05,-2.69824e-05,-2.97662e-05,-4.11459e-06,-3.09178e-05,6.43895e-05,-1.86241e-05,0
-2.50562e-05,1.30043e-05,-3.18311e-05,5.77563e-05,5.91623e-05,-3.77081e-05,5.05804e-05,-1.27734e-05,0
-2.54733e-05,1.30697e-05,-3.70397e-05,0.000103451,9.0278e-05,-3.89247e-05,3.18983e-05,-1.12465e-05,0
-2.77005e-05,1.36169e-05,-3.91644e-05,8.69025e-05,9.29936e-05,-3.33421e-05,1.31288e-05,-1.25622e-05,0
-2.88868e-05,1.62265e-05,-3.3303e-05,5.20994e-05,9.14625e-05,-1.79405e-05,1.62439e-06,-9.67787e-06,0
-2.63734e-05,2.30898e-05,-2.01143e-05,4.29649e-05,9.77697e-05,2.41177e-06,-1.3446e-06,-1.51717e-06,0
-1.94401e-05,3.28043e-05,-4.17355e-06,3.99932e-05,0.000102276,1.87759e-05,-1.28166e-06,3.6484e-06,0
-1.55709e-05,3.93191e-05,1.12802e-05,1.88474e-06,8.74199e-05,2.81294e-05,-3.54531e-06,7.21843e-07,0
-2.43337e-05,3.92344e-05,2.20474e-05,-6.87682e-05,5.04055e-05,2.50203e-05,-9.53421e-06,-5.49961e-06,0
-3.97988e-05,3.40143e-05,2.62129e-05,-0.000124864,5.83553e-06,7.95153e-06,-1.83568e-05,-7.02331e-06,0
-4.35132e-05,2.86554e-05,2.82578e-05,-0.000137709,-2.29106e-05,-1.006e-05,-2.47466e-05,-4.20351e-06,0
-3.22468e-05,2.78092e-05,2.83681e-05,-0.000128452,-2.79602e-05,-1.75798e-05,-1.54891e-05,5.88975e-07,0
-2.09517e-05,2.8146e-05,2.30401e-05,-0.000125275,-2.0655e-05,-1.88257e-05,1.55591e-05,1.61693e-05,0
-2.03763e-05,2.705e-05,1.71321e-05,-0.000128172,-9.46782e-06,-2.19005e-05,4.49193e-05,6.62249e-05,0
