ch1,ch2,ch3,ch4,ch5,ch6,ch7,ch8,class
-3.19067e-05,1.09203e-05,-3.14763e-06,-5.79196e-07,1.99123e-05,-1.04791e-05,1.549e-06,-4.12081e-07,0
-3.12172e-05,1.29002e-05,1.03275e-06,-2.54542e-06,2.03129e-05,-9.98545e-06,-7.63979e-06,-2.31526e-06,0
-2.92368e-05,1.57294e-05,1.54056e-06,-1.98427e-06,1.95758e-05,-1.04781e-05,-1.57533e-05,-3.21136e-06,0
-2.7585e-05,1.62051e-05,-1.23678e-06,-5.4866e-08,1.78758e-05,-1.22194e-05,-2.16914e-05,-2.3879e-06,0
-2.9003e-05,1.60405e-05,-4.55915e-06,2.49983e-06,1.67399e-05,-1.48501e-05,-2.4673e-05,-1.0755e-06,0
-3.22518e-05,1.56366e-05,-6.76624e-06,6.26374e-06,1.67152e-05,-1.6529e-05,-2.37275e-05,-8.62819e-07,0
-3.39053e-05,1.5398e-05,-6.04169e-06,1.00721e-05,1.65162e-05,-1.63354e-05,-2.04177e-05,-1.01931e-06,0
-3.32018e-05,1.59703e-05,-2.89629e-06,1.30056e-05,1.50919e-05,-1.57609e-05,-2.05658e-05,-2.01562e-06,0
-3.05078e-05,1.72644e-05,-1.32152e-06,1.47415e-05,1.36839e-05,-1.52473e-05,-3.03793e-05,-3.5961e-06,0
-2.82504e-05,1.64471e-05,-2.0997e-06,1.4289e-05,1.38444e-05,-1.34136e-05,-4.29352e-05,-4.40495e-06,0
-2.73017e-05,1.4777e-05,-2.24771e-06,1.0431e-05,1.39578e-05,-1.09426e-05,-4.51152e-05,-2.65182e-06,0
-2.85094e-05,1.4945e-05,-2.23707e-06,6.02533e-06,1.48167e-05,-1.00046e-05,-3.2184e-05,6.5565e-07,0
-3.12913e-05,1.67373e-05,-3.29216e-06,2.69378e-06,1.75295e-05,-1.06926e-05,-1.06743e-05,2.20731e-06,0
-3.29587e-05,2.04057e-05,-4.45409e-06,-1.19976e-06,2.20168e-05,-1.01895e-05,1.1132e-05,1.8683e-06,0
-3.26046e-05,2.53939e-05,-5.41374e-06,-6.84208e-06,2.46787e-05,-7.49079e-06,3.24679e-05,5.93316e-07,0
-2.94659e-05,2.91269e-05,-5.24563e-06,-1.19476e-05,2.18751e-05,-5.54404e-06,4.76365e-05,-7.85872e-07,0
-2.71255e-05,3.04849e-05,-2.86202e-06,-1.70517e-05,1.794e-05,-4.92393e-06,5.19698e-05,1.63695e-07,0
-2.73177e-05,3.11499e-05,1.75404e-07,-2.49383e-05,1.51211e-05,-5.58368e-06,5.0358e-05,2.63037e-06,0
-2.71263e-05,3.13533e-05,1.71998e-06,-3.14843e-05,1.30774e-05,-8.09676e-06,4.62541e-05,4.61649e-06,0
-2.7433e-05,2.9931e-05,1.13631e-06,-3.63553e-05,1.06036e-05,-1.14311e-05,4.33848e-05,5.66741e-06,0
-2.77845e-05,2.94586e-05,-9.19704e-07,-3.88598e-05,6.68461e-06,-1.42759e-05,4.1261e-05,6.41149e-06,0
-2.72183e-05,2.98509e-05,-3.81838e-06,-3.63858e-05,4.20344e-06,-1.51813e-05,3.88099e-05,6.67857e-06,0
-2.64617e-05,2.74692e-05,-5.4233e-06,-3.06963e-05,3.92066e-06,-1.39931e-05,3.49812e-05,6.86216e-06,0
-2.60465e-05,2.22971e-05,-4.77377e-06,-2.36658e-05,3.27424e-06,-1.26613e-05,3.23433e-05,7.94726e-06,0
-2.70974e-05,1.72085e-05,-3.81585e-06,-1.61975e-05,1.46208e-06,-1.20874e-05,3.2688e-05,8.70551e-06,0
-2.90002e-05,1.64894e-05,-5.41068e-06,-8.95282e-06,-4.14691e-08,-1.19009e-05,3.18598e-05,9.2689e-06,0
-3.02373e-05,1.9377e-05,-8.46836e-06,-3.49393e-06,1.0694e-06,-1.24638e-05,2.87785e-05,9.74933e-06,0
-2.99153e-05,2.23043e-05,-9.73165e-06,-2.10396e-06,1.94342e-06,-1.38581e-05,2.36927e-05,9.90736e-06,0
-2.96212e-05,2.19728e-05,-8.94143e-06,-2.81555e-06,2.70088e-07,-1.47976e-05,1.70919e-05,8.40768e-06,0
-2.93343e-05,1.99467e-05,-7.29376e-06,-9.41437e-07,-5.18301e-07,-1.44977e-05,9.69953e-06,5.97163e-06,0
-2.87437e-05,1.73618e-05,-6.04123e-06,5.35053e-06,1.34148e-06,-1.42657e-05,4.48051e-06,4.24862e-06,0
-2.88241e-05,1.59797e-05,-6.03292e-06,1.29983e-05,3.61337e-06,-1.4117e-05,2.20788e-06,4.85689e-06,0
-2.90582e-05,1.61987e-05,-7.53423e-06,1.73665e-05,4.24642e-06,-1.33829e-05,8.02347e-07,6.85417e-06,0
-2.86718e-05,1.74129e-05,-8.48908e-06,1.79974e-05,4.36117e-06,-1.18158e-05,-2.39749e-06,7.69966e-06,0
-2.82799e-05,1.99289e-05,-7.8861e-06,1.71483e-05,5.55555e-06,-1.00096e-05,-6.9247e-06,6.54332e-06,0
-2.79583e-05,2.40423e-05,-7.41204e-06,1.25343e-05,7.31587e-06,-9.28228e-06,-1.05248e-05,4.9555e-06,0
-2.73418e-05,2.84085e-05,-7.48219e-06,1.4096e-06,6.79837e-06,-9.56175e-06,-1.16518e-05,3.46343e-06,0
-2.70808e-05,3.02967e-05,-6.12473e-06,-1.2333e-05,5.27451e-06,-9.78177e-06,-1.01546e-05,1.40367e-06,0
-2.73897e-05,2.99514e-05,-3.95948e-06,-2.6815e-05,5.09902e-06,-1.00948e-05,-6.57107e-06,1.57251e-06,0
-2.83074e-05,2.82521e-05,-3.1701e-06,-4.2186e-05,4.68024e-06,-1.09502e-05,-2.8942e-06,4.15502e-06,0
-2.90095e-05,2.78592e-05,-3.35183e-06,-5.37348e-05,2.63128e-06,-1.26647e-05,3.04202e-07,5.43076e-06,0
-2.87887e-05,2.87064e-05,-3.90978e-06,-5.56182e-05,3.45149e-07,-1.3134e-05,3.56813e-06,5.04862e-06,0
-2.82376e-05,2.92358e-05,-5.43722e-06,-5.06635e-05,-6.32669e-07,-1.1706e-05,6.19882e-06,5.81516e-06,0
-2.9071e-05,2.89429e-05,-5.7383e-06,-4.22057e-05,-1.30655e-06,-1.05136e-05,7.9965e-06,7.07274e-06,0
-3.01376e-05,2.56546e-05,-4.90561e-06,-2.8001e-05,-2.7037e-06,-1.03642e-05,8.03994e-06,6.27891e-06,0
-2.98345e-05,2.25712e-05,-4.55909e-06,-1.24998e-05,-3.23051e-06,-1.13977e-05,8.27371e-06,4.53235e-06,0
-2.90119e-05,2.23077e-05,-5.39832e-06,-3.20176e-06,-3.46361e-06,-1.20363e-05,8.57531e-06,4.50471e-06,0
-2.84277e-05,2.12387e-05,-7.62823e-06,-3.28382e-06,-3.46599e-06,-1.19763e-05,9.55997e-06,5.50861e-06,0
-2.83876e-05,1.93278e-05,-8.73965e-06,-4.80148e-06,-1.43342e-07,-1.09794e-05,1.19489e-05,5.30335e-06,0
-2.91227e-05,2.01213e-05,-8.52357e-06,-2.04024e-06,6.2227e-06,-1.03476e-05,1.29428e-05,4.58543e-06,0
-3.03292e-05,2.27671e-05,-6.80263e-06,2.31238e-06,1.26258e-05,-1.06234e-05,1.47618e-05,4.40094e-06,0
-3.02714e-05,2.27574e-05,-5.14951e-06,4.80477e-06,1.62854e-05,-1.02217e-05,1.87785e-05,3.28709e-06,0
-2.9458e-05,2.10117e-05,-4.45553e-06,3.1988e-06,1.59184e-05,-8.5719e-06,2.51826e-05,1.37524e-06,0
-2.86631e-05,1.88148e-05,-3.96901e-06,-2.45922e-06,1.20428e-05,-7.08066e-06,3.32208e-05,1.49833e-07,0
-2.71981e-05,1.59804e-05,-3.12096e-06,-8.60567e-06,8.33519e-06,-6.70911e-06,3.83712e-05,3.16326e-07,0
-2.5559e-05,1.26507e-05,-2.83286e-06,-1.02475e-05,7.12194e-06,-7.37879e-06,3.69202e-05,9.62356e-07,0
-2.4993e-05,9.65128e-06,-4.14393e-06,-8.22404e-06,7.44861e-06,-8.34401e-06,2.94225e-05,1.82578e-06,0
-2.56949e-05,7.06093e-06,-5.90017e-06,-4.69503e-06,8.32143e-06,-8.09919e-06,1.58803e-05,1.977e-06,0
-2.74128e-05,5.02724e-06,-7.04177e-06,-1.11335e-06,1.01863e-05,-7.30136e-06,-8.0581e-06,1.16849e-06,0
-2.88791e-05,3.85549e-06,-7.20707e-06,2.30866e-06,1.34321e-05,-7.41853e-06,-4.25043e-05,-9.67013e-08,0
-2.92458e-05,1.80649e-06,-7.28028e-06,3.69064e-06,1.67019e-05,-8.2109e-06,-7.20103e-05,-1.92078e-06,0
-2.90706e-05,-1.09338e-06,-9.21485e-06,2.6435e-06,1.88677e-05,-8.23482e-06,-7.52588e-05,-3.54896e-06,0
-2.87403e-05,-2.16927e-06,-1.45749e-05,1.56151e-06,1.97845e-05,-8.33837e-06,-5.1309e-05,-4.22948e-06,0
-2.81998e-05,-1.17577e-06,-2.06889e-05,2.94518e-06,1.85149e-05,-9.2828e-06,-1.60068e-05,-3.98941e-06,0
-2.69091e-05,-7.2997e-07,-2.48806e-05,3.996e-06,1.64412e-05,-1.19423e-05,1.52305e-05,-2.82822e-06,0
-2.73651e-05,-2.07635e-06,-2.77416e-05,2.16806e-06,1.68314e-05,-1.46853e-05,3.6401e-05,-1.36214e-07,0
-2.95271e-05,-2.36702e-06,-2.96448e-05,1.00207e-06,1.9089e-05,-1.53779e-05,4.72631e-05,1.44573e-06,0
-2.98568e-05,-1.28964e-06,-2.94686e-05,1.60191e-06,2.36358e-05,-1.62335e-05,4.78564e-05,6.71005e-07,0
-2.79524e-05,3.95425e-07,-2.84726e-05,3.38553e-06,2.85924e-05,-1.7578e-05,4.11769e-05,-4.51996e-07,0
-2.74863e-05,3.55772e-06,-2.60482e-05,4.06486e-06,2.81783e-05,-1.66119e-05,3.52179e-05,5.07025e-07,0
-2.93799e-05,4.88995e-06,-2.20206e-05,4.20695e-06,2.30463e-05,-1.31526e-05,3.02623e-05,1.56237e-06,0
-3.06798e-05,4.57119e-06,-1.71722e-05,6.18764e-06,1.9126e-05,-1.16311e-05,2.3495e-05,1.90991e-06,0
-3.01032e-05,6.61031e-06,-1.01932e-05,8.25874e-06,1.78987e-05,-1.37741e-05,2.04306e-05,2.08816e-06,0
-2.88999e-05,1.245e-05,-2.87377e-06,1.12753e-05,1.76673e-05,-1.69189e-05,2.32144e-05,1.48717e-06,0
-2.86163e-05,1.63531e-05,3.69931e-06,1.37156e-05,1.73236e-05,-1.88877e-05,2.92631e-05,1.58021e-06,0
-2.9523e-05,1.59848e-05,9.58786e-06,1.36477e-05,1.57337e-05,-1.75674e-05,3.28423e-05,1.7701e-06,0
-3.19648e-05,1.42288e-05,1.19179e-05,1.04313e-05,1.44898e-05,-1.43739e-05,3.0256e-05,2.35723e-06,0
-3.22119e-05,1.30175e-05,8.35658e-06,4.79867e-06,1.47262e-05,-1.25764e-05,2.45418e-05,2.42109e-06,0
-3.00707e-05,1.12987e-05,1.33563e-06,-1.99648e-06,1.54043e-05,-1.27949e-05,2.07158e-05,8.72851e-07,0
-2.97994e-05,8.37507e-06,-5.66564e-06,-9.8527e-06,1.53404e-05,-1.30149e-05,1.94751e-05,-1.68483e-06,0
-3.13733e-05,6.05841e-06,-1.14421e-05,-1.54728e-05,1.60379e-05,-1.2682e-05,1.7548e-05,-2.48041e-06,0
-3.24077e-05,5.31121e-06,-1.65926e-05,-1.76602e-05,1.64627e-05,-1.27956e-05,1.29734e-05,-1.43045e-06,0
-3.23833e-05,6.49125e-06,-2.08672e-05,-1.82541e-05,1.4531e-05,-1.33561e-05,8.37131e-06,-5.794e-07,0
-3.22228e-05,7.98166e-06,-2.167e-05,-2.06177e-05,1.25479e-05,-1.43538e-05,7.3262e-06,-7.27314e-07,0
-3.15118e-05,7.95223e-06,-1.82488e-05,-2.31585e-05,1.31396e-05,-1.56157e-05,1.00479e-05,-1.72476e-06,0
-3.04623e-05,6.59916e-06,-1.43659e-05,-2.18595e-05,1.65876e-05,-1.52123e-05,1.30806e-05,-1.44143e-06,0
-2.95947e-05,6.65104e-06,-1.44509e-05,-1.29912e-05,2.08766e-05,-1.2585e-05,1.42165e-05,-1.91225e-07,0
-2.95078e-05,1.01021e-05,-1.77116e-05,2.74773e-06,2.29108e-05,-1.05813e-05,1.52322e-05,-7.10512e-07,0
-3.06897e-05,1.68466e-05,-2.16663e-05,1.69855e-05,2.07121e-05,-1.05896e-05,1.7529e-05,-2.34016e-06,0
-3.23184e-05,2.23584e-05,-2.79529e-05,1.99122e-05,1.626e-05,-1.16776e-05,1.94646e-05,-2.74479e-06,0
-3.25569e-05,2.35788e-05,-3.32727e-05,1.20256e-05,1.3555e-05,-1.3409e-05,1.9751e-05,-2.84098e-06,0
-3.19626e-05,1.99955e-05,-3.0898e-05,3.85557e-06,1.49965e-05,-1.52772e-05,2.02977e-05,-3.28947e-06,0
-3.12855e-05,9.63994e-06,-2.33666e-05,3.69768e-06,1.74665e-05,-1.62046e-05,2.08589e-05,-4.83118e-06,0
-3.06814e-05,-5.99613e-06,-1.9147e-05,9.65249e-06,1.90083e-05,-1.58464e-05,1.98926e-05,-4.59976e-06,0
-3.04456e-05,-2.04065e-05,-1.94169e-05,1.35341e-05,1.93881e-05,-1.32006e-05,1.8248e-05,-2.38713e-06,0
-2.951e-05,-3.07178e-05,-1.61025e-05,1.17403e-05,1.86864e-05,-1.13237e-05,1.84384e-05,-1.06387e-06,0
-2.97891e-05,-3.23694e-05,-5.52707e-06,7.94832e-06,1.70081e-05,-1.27723e-05,1.905e-05,-8.245e-07,0
-3.11106e-05,-2.53805e-05,7.98833e-06,5.60001e-06,1.33399e-05,-1.43252e-05,1.73712e-05,-1.11505e-06,0
-3.04964e-05,-1.62872e-05,2.11636e-05,5.6622e-06,8.63425e-06,-1.28277e-05,1.59123e-05,-1.07233e-06,0
-2.99768e-05,-7.84442e-06,3.20091e-05,6.37029e-06,5.37439e-06,-1.05333e-05,1.53317e-05,-1.09475e-06,0
-3.13496e-05,-1.64381e-06,3.52658e-05,3.61372e-06,5.07269e-06,-8.89076e-06,1.51374e-05,-1.09757e-06,0
-3.16694e-05,4.8362e-06,2.50319e-05,-2.47633e-06,5.78075e-06,-8.31055e-06,1.63061e-05,4.10199e-07,0
-2.9453e-05,1.10725e-05,3.31442e-06,-8.96816e-06,7.18009e-06,-8.6504e-06,1.73483e-05,1.11281e-06,0
-2.78804e-05,1.4861e-05,-2.09602e-05,-1.22281e-05,1.04871e-05,-8.23219e-06,1.73388e-05,-4.49924e-07,0
-2.83808e-05,1.55148e-05,-4.07548e-05,-1.47767e-05,1.51248e-05,-6.94226e-06,1.68237e-05,-2.35189e-06,0
-2.97362e-05,1.55823e-05,-5.07991e-05,-1.85257e-05,1.87472e-05,-5.57684e-06,1.59242e-05,-4.13292e-06,0
-3.18014e-05,1.65659e-05,-4.95799e-05,-2.11648e-05,1.92472e-05,-3.40843e-06,1.44389e-05,-4.42372e-06,0
-3.2765e-05,1.74665e-05,-4.17912e-05,-1.89185e-05,1.65472e-05,-4.28311e-07,1.35895e-05,-4.66921e-06,0
-3.15444e-05,1.7993e-05,-3.24321e-05,-1.0426e-05,1.30019e-05,1.83305e-06,1.30373e-05,-5.90063e-06,0
-3.12587e-05,1.77979e-05,-2.30392e-05,-1.02027e-06,1.06813e-05,2.75323e-06,1.13387e-05,-6.14455e-06,0
-3.32797e-05,1.80242e-05,-1.48977e-05,3.31678e-06,9.44444e-06,2.00752e-06,9.83526e-06,-3.82086e-06,0
-3.43906e-05,1.9231e-05,-9.47226e-06,5.61002e-06,9.02834e-06,8.60071e-07,1.009e-05,-1.36388e-06,0
-3.3602e-05,2.10585e-05,-5.84762e-06,1.16312e-05,1.0007e-05,-5.78237e-08,1.14959e-05,-1.01561e-06,0
-3.32352e-05,2.24163e-05,-3.26291e-06,1.86971e-05,1.26451e-05,3.26625e-08,1.25073e-05,-1.62333e-06,0
-3.36981e-05,2.31294e-05,-2.378e-06,2.17431e-05,1.5427e-05,4.78273e-07,1.35256e-05,-1.91918e-06,0
-3.35933e-05,2.20424e-05,-1.38642e-06,1.97208e-05,1.68951e-05,4.62019e-07,1.43207e-05,-1.89264e-06,0
-3.29853e-05,1.91658e-05,-4.70752e-07,1.34671e-05,1.70301e-05,-9.02595e-07,1.3449e-05,-2.40819e-06,0
-3.3002e-05,1.72825e-05,-7.46085e-07,4.57842e-06,1.73935e-05,-3.1144e-06,1.18769e-05,-2.42506e-06,0
-3.29554e-05,1.80669e-05,2.61214e-07,-3.14486e-06,1.94006e-05,-3.98819e-06,1.13993e-05,-1.38496e-06,0
-3.17607e-05,1.99334e-05,3.05396e-06,-9.45087e-06,2.19269e-05,-2.04529e-06,1.22892e-05,-8.59019e-07,0
-3.06869e-05,2.11648e-05,8.1828e-06,-1.37962e-05,2.32291e-05,3.84402e-07,1.43289e-05,1.60859e-07,0
-3.16294e-05,2.0251e-05,1.21487e-05,-1.74623e-05,2.2669e-05,1.19106e-06,1.5865e-05,1.22427e-06,0
-3.31933e-05,1.8383e-05,1.08323e-05,-2.27335e-05,2.18033e-05,-7.45197e-07,1.57351e-05,1.68182e-06,0
-3.2745e-05,2.0462e-05,2.83036e-06,-2.73663e-05,2.23581e-05,-3.10393e-06,1.35388e-05,1.84551e-06,0
-3.12988e-05,2.36181e-05,-9.31012e-06,-2.83525e-05,2.27034e-05,-4.9556e-06,1.19367e-05,1.17498e-06,0
-3.19386e-05,2.23632e-05,-2.00844e-05,-2.53786e-05,2.22471e-05,-8.02036e-06,1.24726e-05,1.44855e-06,0
-3.45882e-05,1.84549e-05,-2.68836e-05,-1.80401e-05,2.22551e-05,-1.02973e-05,1.3774e-05,2.22878e-06,0
-3.60356e-05,1.49058e-05,-2.84589e-05,-8.50278e-06,2.26879e-05,-1.10539e-05,1.39695e-05,2.59528e-06,0
-3.50739e-05,1.26435e-05,-2.64778e-05,-9.67354e-07,2.23169e-05,-1.01648e-05,1.34248e-05,2.03912e-06,0
-3.38816e-05,1.14173e-05,-2.08915e-05,2.52078e-06,2.23138e-05,-1.03101e-05,1.45333e-05,1.22223e-06,0
-3.39783e-05,1.20388e-05,-1.30088e-05,7.23943e-07,2.4013e-05,-1.15846e-05,1.51234e-05,8.95303e-07,0
-3.32397e-05,1.42869e-05,-5.0819e-06,-3.77512e-06,2.5327e-05,-1.34749e-05,1.51043e-05,1.76597e-06,0
-3.17353e-05,1.75607e-05,3.88496e-06,-7.45158e-06,2.62029e-05,-1.50974e-05,1.37225e-05,2.64474e-06,0
-3.12242e-05,2.03315e-05,1.61694e-05,-6.01334e-06,2.76828e-05,-1.49377e-05,1.19617e-05,2.90909e-06,0
-3.09218e-05,2.09867e-05,3.11128e-05,-1.73205e-06,2.79484e-05,-1.38208e-05,1.00115e-05,2.97595e-06,0
-2.99704e-05,2.02491e-05,4.63361e-05,-2.00838e-07,2.46141e-05,-1.31742e-05,4.71296e-06,1.90063e-06,0
-2.98275e-05,2.01467e-05,5.76646e-05,-5.12747e-06,1.91445e-05,-1.33093e-05,-2.62833e-06,1.37526e-07,0
-3.13195e-05,2.08457e-05,5.83698e-05,-1.76466e-05,1.35113e-05,-1.39268e-05,-8.08821e-06,-1.16008e-06,0
-3.31624e-05,1.99987e-05,4.4023e-05,-3.0947e-05,8.8246e-06,-1.42632e-05,-9.16693e-06,-1.51767e-06,0
-3.40753e-05,1.89181e-05,1.48888e-05,-3.7185e-05,7.55237e-06,-1.2888e-05,-6.11763e-06,-1.04938e-06,0
-3.29579e-05,1.97368e-05,-2.18938e-05,-3.56224e-05,1.02824e-05,-1.10123e-05,-7.67833e-07,-2.33804e-07,0
-3.03435e-05,2.12593e-05,-5.40177e-05,-3.02412e-05,1.41313e-05,-1.04804e-05,4.73943e-06,-4.29468e-07,0
-2.81274e-05,2.09394e-05,-7.05818e-05,-2.29986e-05,1.49505e-05,-1.14024e-05,1.01209e-05,-8.87843e-07,0
-2.71205e-05,1.89466e-05,-6.98761e-05,-1.49352e-05,1.28647e-05,-1.31515e-05,1.48783e-05,-1.58576e-06,0
-2.71486e-05,1.65377e-05,-5.75772e-05,-6.39906e-06,1.05218e-05,-1.39155e-05,1.81063e-05,-3.37546e-06,0
-2.84227e-05,1.58673e-05,-4.3132e-05,5.86704e-07,9.86968e-06,-1.29486e-05,1.97233e-05,-4.13235e-06,0
-2.96146e-05,1.71637e-05,-3.26345e-05,4.61369e-06,1.16538e-05,-1.19734e-05,2.14221e-05,-2.75462e-06,0
-2.9763e-05,1.89336e-05,-2.57376e-05,7.71194e-06,1.41763e-05,-1.21141e-05,2.38201e-05,-2.30107e-06,0
-2.9372e-05,2.10808e-05,-1.96731e-05,1.01163e-05,1.47878e-05,-1.14677e-05,2.56345e-05,-4.17602e-06,0
-3.11469e-05,2.23261e-05,-1.37535e-05,1.03409e-05,1.58287e-05,-7.77027e-06,2.62723e-05,-5.76925e-06,0
-3.34662e-05,2.15358e-05,-9.96253e-06,7.78588e-06,1.76864e-05,-7.45674e-06,2.74623e-05,-6.06115e-06,0
-3.34542e-05,1.91507e-05,-6.60259e-06,2.0659e-06,1.60229e-05,-1.05033e-05,2.85994e-05,-6.30107e-06,0
-3.20352e-05,1.59831e-05,-4.34391e-06,-4.29979e-06,1.23727e-05,-1.17407e-05,2.91919e-05,-5.29975e-06,0
-3.05601e-05,1.41384e-05,-4.14208e-06,-1.27038e-05,9.02375e-06,-1.07896e-05,2.85191e-05,-2.84403e-06,0
-3.06268e-05,1.51873e-05,-2.74121e-06,-2.50982e-05,9.31168e-06,-7.47808e-06,2.56062e-05,-1.32507e-07,0
-3.00934e-05,1.857e-05,-4.67595e-08,-3.45523e-05,1.20292e-05,-3.97065e-06,2.37956e-05,1.41933e-06,0
-2.91127e-05,2.00804e-05,2.05998e-06,-3.47371e-05,1.29683e-05,-2.92981e-06,2.38195e-05,2.48788e-06,0
-2.91804e-05,1.79984e-05,1.63984e-06,-2.61816e-05,1.15556e-05,-4.94492e-06,2.36377e-05,3.28759e-06,0
-2.93794e-05,1.4483e-05,-6.63953e-08,-1.44253e-05,1.00084e-05,-6.5461e-06,2.14583e-05,4.32633e-06,0
-2.98875e-05,1.01996e-05,-8.47117e-07,-3.84363e-06,1.02298e-05,-5.58385e-06,1.7222e-05,4.946e-06,0
-3.1458e-05,8.00066e-06,-8.3878e-07,3.48037e-06,1.05378e-05,-3.09408e-06,1.21946e-05,3.8077e-06,0
-3.26498e-05,7.69155e-06,3.05053e-07,1.08206e-05,9.3946e-06,-1.39829e-06,9.17284e-06,3.6031e-06,0
-3.21543e-05,8.17445e-06,2.44785e-06,2.03318e-05,7.64462e-06,-1.11926e-06,1.06494e-05,4.14986e-06,0
-3.11493e-05,8.62523e-06,3.25582e-06,2.72844e-05,8.92897e-06,-1.23751e-06,1.53056e-05,3.71313e-06,0
-3.01038e-05,7.92715e-06,2.26145e-06,2.71358e-05,1.19781e-05,-7.47767e-07,1.90964e-05,2.60451e-06,0
-2.87713e-05,5.97611e-06,4.50315e-07,2.08209e-05,1.37162e-05,-5.97308e-07,1.97094e-05,2.1019e-06,0
-2.81761e-05,4.54354e-06,-1.41254e-06,1.22396e-05,1.39614e-05,-1.14554e-06,1.82979e-05,2.03904e-06,0
-2.88276e-05,4.61938e-06,-1.62305e-06,4.30682e-06,1.38742e-05,-2.09632e-06,1.63383e-05,2.93943e-06,0
-2.96834e-05,4.92124e-06,-2.91367e-07,-1.2455e-06,1.26769e-05,-3.1967e-06,1.41204e-05,4.42391e-06,0
-2.98812e-05,5.34304e-06,-1.25944e-07,-5.04539e-06,1.05377e-05,-4.16075e-06,1.23587e-05,5.64124e-06,0
-2.98162e-05,5.62351e-06,-9.15509e-07,-8.50568e-06,9.80274e-06,-5.66268e-06,1.09098e-05,6.20884e-06,0
-3.03416e-05,4.60885e-06,4.34547e-07,-1.33801e-05,1.14399e-05,-6.85113e-06,8.42821e-06,6.40805e-06,0
-3.03786e-05,2.20731e-06,3.02279e-06,-1.84049e-05,1.4365e-05,-7.21938e-06,4.35155e-06,6.4238e-06,0
-2.91176e-05,1.90995e-06,4.88593e-06,-2.37272e-05,1.61535e-05,-8.13045e-06,2.38992e-08,5.72824e-06,0
-2.91574e-05,4.22763e-06,5.81602e-06,-3.04037e-05,1.52163e-05,-9.25287e-06,-1.67033e-06,4.58806e-06,0
-2.98415e-05,8.04703e-06,6.36706e-06,-3.49971e-05,1.36695e-05,-9.51345e-06,-9.4147e-07,4.18308e-06,0
-2.89269e-05,1.58045e-05,6.25354e-06,-3.74992e-05,1.19022e-05,-9.6095e-06,3.37678e-07,2.84499e-06,0
-2.90795e-05,2.95899e-05,5.64656e-06,-3.77195e-05,8.81881e-06,-8.74615e-06,8.98852e-07,1.06717e-06,0
-3.17061e-05,4.21808e-05,2.69602e-06,-3.4049e-05,4.75235e-06,-8.44579e-06,4.02766e-07,1.14033e-06,0
-3.41649e-05,4.72925e-05,-3.91212e-06,-2.96038e-05,1.77262e-06,-8.89536e-06,1.40812e-06,7.048e-07,0
-3.41632e-05,4.70633e-05,-1.3021e-05,-2.63801e-05,1.55478e-06,-8.62801e-06,3.89744e-06,4.16174e-07,0
-3.3371e-05,4.29264e-05,-2.3789e-05,-2.35545e-05,2.0361e-06,-9.66733e-06,5.31586e-06,2.01921e-06,0
-3.1954e-05,3.48145e-05,-3.22132e-05,-2.01575e-05,2.01748e-06,-1.10281e-05,6.81221e-06,3.14196e-06,0
-3.02786e-05,2.3771e-05,-3.45553e-05,-1.71984e-05,5.4972e-07,-9.38038e-06,8.30951e-06,3.52277e-06,0
-2.83448e-05,1.29675e-05,-2.98689e-05,-1.35414e-05,2.674e-07,-6.53061e-06,6.77917e-06,4.91841e-06,0
-2.65192e-05,1.35093e-06,-2.11122e-05,-8.65043e-06,1.46507e-06,-6.2568e-06,4.87644e-06,5.36776e-06,0
-2.65768e-05,-1.23781e-05,-1.47491e-05,-4.96346e-06,2.4548e-06,-9.17713e-06,5.96521e-06,4.14654e-06,0
-2.83044e-05,-2.77437e-05,-1.24465e-05,-2.74728e-06,3.34378e-06,-1.29302e-05,8.53329e-06,3.16108e-06,0
-3.06708e-05,-3.95184e-05,-1.19727e-05,-3.32162e-06,5.01505e-06,-1.52795e-05,1.04564e-05,3.43384e-06,0
-3.17539e-05,-4.11355e-05,-1.16053e-05,-6.13134e-06,7.85084e-06,-1.61907e-05,1.18397e-05,3.11803e-06,0
-3.15286e-05,-3.38883e-05,-9.13608e-06,-5.36253e-06,1.12579e-05,-1.59466e-05,1.35753e-05,2.03865e-06,0
-3.0701e-05,-2.27489e-05,-4.78533e-06,4.32132e-06,1.3729e-05,-1.51627e-05,1.48113e-05,1.82422e-06,0
-3.08438e-05,-1.18653e-05,-1.81975e-06,2.00995e-05,1.52287e-05,-1.43922e-05,1.60571e-05,3.19716e-06,0
-3.18975e-05,-3.27349e-06,-3.68883e-06,3.11737e-05,1.67102e-05,-1.37512e-05,1.90244e-05,5.90396e-06,0
-3.23454e-05,2.19016e-06,-9.81039e-06,2.88825e-05,1.65401e-05,-1.35579e-05,2.22158e-05,8.37352e-06,0
-3.19023e-05,5.33419e-06,-1.53403e-05,1.76487e-05,1.49749e-05,-1.40902e-05,2.00363e-05,8.81653e-06,0
-3.24521e-05,7.33592e-06,-1.64301e-05,7.25033e-06,1.4665e-05,-1.3685e-05,1.29331e-05,7.30614e-06,0
-3.34544e-05,9.24828e-06,-1.49033e-05,2.22639e-06,1.62345e-05,-1.26969e-05,8.9438e-06,6.34159e-06,0
-3.2622e-05,1.03801e-05,-1.32437e-05,2.02294e-06,1.79221e-05,-1.44831e-05,1.11187e-05,6.20589e-06,0
-3.18432e-05,9.97737e-06,-1.37621e-05,3.76027e-06,1.8707e-05,-1.74423e-05,1.70495e-05,6.06974e-06,0
-3.30635e-05,9.14214e-06,-1.69823e-05,7.76432e-06,1.78615e-05,-1.75153e-05,2.36177e-05,6.30063e-06,0
-3.4585e-05,8.59555e-06,-1.85929e-05,1.19202e-05,1.72688e-05,-1.4872e-05,2.68081e-05,7.40146e-06,0
-3.42731e-05,7.34782e-06,-1.80641e-05,1.29653e-05,1.73052e-05,-1.17096e-05,2.6893e-05,7.97079e-06,0
-3.25525e-05,7.37776e-06,-1.62385e-05,1.61716e-05,1.68642e-05,-9.8075e-06,2.38211e-05,6.18742e-06,0
-2.89706e-05,8.4899e-06,-1.33393e-05,2.2051e-05,1.55381e-05,-8.4917e-06,1.52655e-05,4.83043e-06,0
-2.60956e-05,9.46161e-06,-1.06773e-05,2.39626e-05,1.27118e-05,-7.05429e-06,6.31837e-06,5.56655e-06,0
-2.68267e-05,9.02209e-06,-7.89424e-06,1.80989e-05,8.41501e-06,-7.93177e-06,1.84338e-06,4.78748e-06,0
-2.77852e-05,7.15456e-06,-5.84297e-06,6.61351e-06,3.22953e-06,-9.76179e-06,3.64595e-07,3.12442e-06,0
-2.87345e-05,5.79105e-06,-6.09298e-06,4.41975e-09,-4.57224e-07,-9.29572e-06,1.04509e-06,2.29702e-06,0
-2.92177e-05,3.13042e-06,-7.41371e-06,-2.12079e-06,-1.41036e-07,-7.08896e-06,4.51026e-06,1.36755e-07,0
-2.91474e-05,7.61179e-07,-8.13874e-06,-4.66289e-06,2.68008e-06,-5.68972e-06,8.80688e-06,-1.20127e-06,0
-2.99362e-05,6.26219e-07,-8.0189e-06,-6.31981e-06,4.52366e-06,-6.35663e-06,1.05109e-05,8.54007e-07,0
-3.03841e-05,2.35678e-06,-6.69497e-06,-6.57982e-06,4.30663e-06,-6.54826e-06,1.04348e-05,2.99561e-06,0
-2.97853e-05,3.03098e-06,-4.0877e-06,-4.84271e-06,3.05634e-06,-5.38537e-06,1.09563e-05,2.73429e-06,0
-2.84336e-05,2.34065e-06,-1.9317e-06,-3.44873e-06,2.90547e-06,-5.59318e-06,9.95392e-06,6.93567e-07,0
-2.71854e-05,1.8619e-06,-7.98829e-07,-3.02941e-06,4.22739e-06,-8.84333e-06,1.44894e-06,-1.14219e-06,0
-2.6567e-05,2.10987e-06,-6.83328e-07,-1.30193e-06,6.4435e-06,-1.31287e-05,-1.678e-05,-1.59729e-06,0
-2.68405e-05,4.44059e-06,-1.69856e-06,2.11639e-06,1.01307e-05,-1.58334e-05,-3.49266e-05,-1.78375e-06,0
-2.72394e-05,9.98067e-06,-2.12139e-06,4.87745e-06,1.4066e-05,-1.69581e-05,-3.84218e-05,-2.64366e-06,0
-2.75266e-05,1.86766e-05,-6.8514e-07,6.11801e-06,1.62689e-05,-1.68321e-05,-2.39743e-05,-3.99592e-06,0
-2.68636e-05,3.08393e-05,2.31164e-06,5.42554e-06,1.57428e-05,-1.55151e-05,-2.40932e-06,-4.58098e-06,0
-2.55204e-05,4.4856e-05,6.15636e-06,3.59547e-06,1.33114e-05,-1.39449e-05,1.53251e-05,-3.04191e-06,0
-2.37073e-05,5.54476e-05,1.0657e-05,2.25513e-06,1.07121e-05,-1.31511e-05,2.50639e-05,-8.29676e-07,0
-2.22721e-05,5.87965e-05,1.53917e-05,7.86941e-07,8.55529e-06,-1.39815e-05,2.66822e-05,-7.43261e-08,0
-2.19794e-05,5.3696e-05,1.71206e-05,-1.83716e-06,8.09e-06,-1.60134e-05,2.21156e-05,9.26601e-07,0
-2.30895e-05,4.10886e-05,1.38501e-05,-3.86209e-06,9.46673e-06,-1.71848e-05,1.60714e-05,2.87425e-06,0
-2.61762e-05,2.01685e-05,7.96751e-06,-3.9503e-06,1.16734e-05,-1.7348e-05,1.29859e-05,3.84327e-06,0
-2.89308e-05,-4.36045e-06,-4.03708e-07,-2.03514e-06,1.39307e-05,-1.58301e-05,1.44679e-05,3.69182e-06,0
-2.912e-05,-2.32346e-05,-9.84378e-06,2.08421e-06,1.57633e-05,-1.31029e-05,1.90325e-05,2.03423e-06,0
-2.88183e-05,-3.2817e-05,-1.65161e-05,3.46321e-06,1.75755e-05,-1.08455e-05,2.33941e-05,2.05806e-07,0
-2.8505e-05,-2.85214e-05,-2.11368e-05,6.50752e-07,1.72846e-05,-8.4462e-06,2.5962e-05,4.07396e-07,0
-2.78583e-05,-1.54265e-05,-2.37737e-05,-2.02972e-06,1.52407e-05,-7.51554e-06,2.55417e-05,2.03089e-06,0
-2.82653e-05,-4.92697e-06,-2.16619e-05,-4.1498e-06,1.48073e-05,-8.62228e-06,2.36875e-05,3.16875e-06,0
-2.90178e-05,3.37898e-06,-1.79632e-05,-9.05774e-06,1.41638e-05,-9.74455e-06,2.1132e-05,2.42049e-06,0
-2.91488e-05,6.75588e-06,-1.5642e-05,-1.78748e-05,1.35994e-05,-1.01561e-05,1.75824e-05,1.63036e-06,0
-2.89743e-05,5.59479e-06,-1.51023e-05,-2.63068e-05,1.43134e-05,-1.11439e-05,1.54084e-05,9.59718e-07,0
-2.92994e-05,4.77383e-06,-1.64463e-05,-3.34915e-05,1.54982e-05,-1.17958e-05,1.52396e-05,8.02996e-07,0
-3.03747e-05,5.69696e-06,-1.75977e-05,-3.89871e-05,1.60136e-05,-1.10682e-05,1.57782e-05,1.8068e-06,0
-3.25082e-05,8.15479e-06,-1.85708e-05,-4.02747e-05,1.49278e-05,-1.10264e-05,1.70263e-05,2.08638e-06,0
-3.38016e-05,1.09722e-05,-1.85343e-05,-3.88134e-05,1.20432e-05,-1.08192e-05,1.86711e-05,9.12386e-07,0
-3.43247e-05,1.44432e-05,-1.59282e-05,-3.0728e-05,8.39538e-06,-8.71814e-06,1.91537e-05,-8.42673e-07,0
-3.50041e-05,1.64155e-05,-1.27301e-05,-1.36832e-05,7.13585e-06,-6.0454e-06,1.73914e-05,-2.14468e-06,0
-3.495e-05,1.69741e-05,-1.12987e-05,5.46142e-06,7.6104e-06,-4.41131e-06,1.48636e-05,-3.10692e-06,0
-3.37133e-05,1.87132e-05,-1.06117e-05,1.92596e-05,8.3878e-06,-3.08094e-06,1.23396e-05,-3.12818e-06,0
-3.22753e-05,2.36e-05,-1.01245e-05,2.44067e-05,1.01658e-05,-1.44423e-06,9.2081e-06,-2.40807e-06,0
-3.10973e-05,2.79672e-05,-1.0386e-05,2.36795e-05,1.29544e-05,-7.64509e-07,6.88357e-06,-2.42792e-06,0
-2.99027e-05,2.7728e-05,-1.13621e-05,2.10101e-05,1.49852e-05,-1.07916e-06,6.61412e-06,-4.82095e-06,0
-2.93397e-05,2.40808e-05,-1.18713e-05,1.71705e-05,1.47037e-05,-7.95711e-07,7.16284e-06,-7.59042e-06,0
-2.95826e-05,2.04762e-05,-1.19531e-05,1.01959e-05,1.26263e-05,-3.6786e-07,7.79075e-06,-8.04295e-06,0
-2.98949e-05,1.72256e-05,-1.12842e-05,1.19172e-06,1.03718e-05,-1.46295e-06,1.1187e-05,-6.73652e-06,0
-2.96845e-05,1.37377e-05,-9.20856e-06,-6.53088e-06,9.35607e-06,-3.95833e-06,1.71805e-05,-5.04854e-06,0
-2.92559e-05,1.06942e-05,-7.09819e-06,-1.20086e-05,9.36566e-06,-6.18116e-06,2.12002e-05,-3.29189e-06,0
-2.96828e-05,5.17131e-06,-5.82041e-06,-1.52347e-05,8.14634e-06,-7.76337e-06,2.12113e-05,-1.65123e-06,0
-3.06476e-05,-2.98836e-06,-5.29066e-06,-1.67432e-05,6.83819e-06,-8.32382e-06,2.00204e-05,-1.66758e-06,0
-3.12387e-05,-7.0959e-06,-5.42343e-06,-1.8098e-05,5.96642e-06,-8.20892e-06,1.94175e-05,-2.58188e-06,0
-3.24419e-05,-2.80337e-06,-5.2315e-06,-1.66021e-05,4.44295e-06,-8.89346e-06,1.76455e-05,-3.31976e-06,0
-3.26647e-05,4.56362e-06,-3.84068e-06,-1.18614e-05,2.80921e-06,-9.4993e-06,1.50734e-05,-2.49427e-06,0
-3.23411e-05,1.31041e-05,-2.88878e-06,-9.70179e-06,4.06752e-06,-1.07105e-05,1.34565e-05,3.86272e-07,0
-3.28346e-05,2.15139e-05,-2.0357e-06,-1.01301e-05,6.77378e-06,-1.13384e-05,1.73205e-05,1.30292e-06,0
-3.28035e-05,2.54783e-05,-1.22485e-06,-1.33671e-05,6.48605e-06,-1.01451e-05,2.64335e-05,-1.22764e-06,0
-3.11071e-05,2.65331e-05,-1.54702e-06,-2.09926e-05,6.22042e-06,-9.07923e-06,3.44317e-05,-2.84748e-06,0
-2.76608e-05,2.58849e-05,-4.75681e-06,-3.22778e-05,4.92978e-06,-7.92597e-06,3.96906e-05,-1.00909e-06,0
-2.58036e-05,2.42913e-05,-1.03305e-05,-4.06745e-05,3.74324e-06,-7.0071e-06,3.76909e-05,1.7367e-06,0
-2.70383e-05,2.22704e-05,-1.53126e-05,-4.15092e-05,4.19127e-06,-7.75084e-06,3.02157e-05,2.5115e-06,0
-2.93024e-05,2.00671e-05,-1.81715e-05,-3.49237e-05,7.09565e-06,-9.12262e-06,2.26845e-05,8.47275e-07,0
-3.11616e-05,1.8755e-05,-1.72335e-05,-2.26721e-05,1.31163e-05,-8.42527e-06,1.36758e-05,-6.62518e-07,0
-3.11902e-05,1.94851e-05,-1.4557e-05,-9.39903e-06,2.13748e-05,-5.98829e-06,3.14566e-07,-1.25757e-06,0
-2.98047e-05,2.05288e-05,-1.31346e-05,-2.79334e-07,3.0592e-05,-4.41765e-06,-1.54856e-05,-2.32656e-06,0
-2.92004e-05,1.94084e-05,-1.33535e-05,2.24222e-06,3.69416e-05,-3.05376e-06,-2.86545e-05,-2.9416e-06,0
-2.9754e-05,1.76538e-05,-1.31408e-05,6.00342e-07,3.72871e-05,-1.91267e-06,-3.4047e-05,-2.32327e-06,0
-3.11368e-05,1.8198e-05,-1.28638e-05,-1.77275e-06,3.15039e-05,-2.92929e-06,-3.0523e-05,-1.10641e-06,0
-3.38113e-05,1.90694e-05,-1.47777e-05,-1.61899e-06,2.73226e-05,-5.10712e-06,-2.18892e-05,-2.94992e-08,0
-3.68759e-05,1.70892e-05,-1.90215e-05,-1.23365e-07,2.88439e-05,-6.42855e-06,-1.14121e-05,6.25775e-07,0
-3.84006e-05,1.33414e-05,-2.35473e-05,3.82227e-07,3.19666e-05,-6.54951e-06,-1.75812e-06,1.27013e-06,0
-3.78623e-05,1.02482e-05,-2.52177e-05,-6.19657e-07,3.08243e-05,-6.69421e-06,6.25836e-06,2.68531e-06,0
-3.58827e-05,1.0092e-05,-2.34704e-05,-2.24529e-06,2.73478e-05,-6.56701e-06,1.11114e-05,3.5473e-06,0
-3.40076e-05,1.15679e-05,-2.01601e-05,-3.56607e-06,2.55511e-05,-5.23355e-06,1.39489e-05,1.79779e-06,0
-3.32036e-05,1.1835e-05,-1.72821e-05,-4.29927e-06,2.46896e-05,-4.88992e-06,1.69375e-05,-1.48899e-06,0
-3.25114e-05,1.07289e-05,-1.41845e-05,-5.25062e-06,2.22128e-05,-7.928e-06,2.03986e-05,-3.07704e-06,0
-3.16604e-05,1.11506e-05,-1.23774e-05,-6.13021e-06,1.88887e-05,-1.13994e-05,2.10593e-05,-1.39698e-06,0
-3.14323e-05,1.32634e-05,-1.30472e-05,-5.24908e-06,1.70868e-05,-1.24915e-05,1.87732e-05,1.15577e-06,0
-3.25232e-05,1.47945e-05,-1.33724e-05,-1.62115e-06,1.74877e-05,-1.2834e-05,1.57778e-05,1.82589e-06,0
-3.44529e-05,1.41396e-05,-1.10898e-05,1.57519e-06,1.91846e-05,-1.28201e-05,1.41691e-05,1.75383e-06,0
-3.46819e-05,1.198e-05,-7.78861e-06,2.35237e-06,1.99879e-05,-1.24103e-05,1.34535e-05,2.36737e-06,0
-3.27124e-05,9.92466e-06,-4.89877e-06,3.03787e-06,1.81934e-05,-1.18789e-05,1.33774e-05,4.68322e-06,0
-3.0038e-05,9.44911e-06,-2.66204e-06,1.7241e-06,1.47005e-05,-1.12549e-05,1.45586e-05,5.19208e-06,0
-2.87783e-05,1.28322e-05,-3.22745e-06,-4.46941e-07,1.1013e-05,-9.47978e-06,1.71367e-05,3.22137e-06,0
-2.87184e-05,1.61464e-05,-3.57369e-06,1.5016e-06,7.7225e-06,-8.60678e-06,2.18917e-05,1.89892e-06,0
-2.83366e-05,1.51253e-05,-9.87797e-07,7.80359e-06,7.14194e-06,-1.05123e-05,2.32877e-05,1.36872e-06,0
-2.80536e-05,1.44463e-05,1.91602e-06,1.79051e-05,7.38959e-06,-1.08389e-05,1.93339e-05,2.28572e-06,0
-2.79331e-05,1.70711e-05,3.52825e-06,2.73476e-05,5.54484e-06,-1.07882e-05,1.28067e-05,2.31547e-06,0
-2.81511e-05,1.99821e-05,4.67873e-06,3.22728e-05,4.34639e-06,-1.16919e-05,7.89107e-06,3.1881e-07,0
-2.86946e-05,2.1997e-05,6.04988e-06,3.1924e-05,5.6365e-06,-1.1608e-05,7.0795e-06,-2.04418e-06,0
-2.89595e-05,2.49936e-05,4.54837e-06,2.688e-05,5.64093e-06,-1.12127e-05,9.54452e-06,-2.48953e-06,0
-2.8955e-05,2.85042e-05,-2.10818e-06,2.02967e-05,5.00492e-06,-1.14322e-05,1.19296e-05,-2.50997e-06,0
-2.92728e-05,3.06166e-05,-1.2177e-05,1.27094e-05,5.93896e-06,-1.15095e-05,1.14275e-05,-2.8753e-06,0
-3.00206e-05,3.04017e-05,-2.13505e-05,3.51875e-06,8.11871e-06,-1.08623e-05,1.00083e-05,-2.91866e-06,0
-3.03802e-05,2.75847e-05,-2.55258e-05,-6.4595e-06,1.01832e-05,-9.69757e-06,1.07932e-05,-2.31619e-06,0
-3.06401e-05,2.3599e-05,-2.36991e-05,-1.36145e-05,1.14773e-05,-8.553e-06,1.17709e-05,-1.36444e-06,0
-3.10424e-05,2.06618e-05,-1.71486e-05,-1.77962e-05,1.22983e-05,-8.39953e-06,9.72554e-06,-1.56411e-06,0
-3.11687e-05,2.06426e-05,-8.80949e-06,-2.27186e-05,1.32572e-05,-9.10487e-06,6.65773e-06,-2.45443e-06,0
-3.1673e-05,2.209e-05,-2.07715e-06,-2.92355e-05,1.41441e-05,-9.7052e-06,5.3126e-06,-2.88951e-06,0
-3.23456e-05,2.24732e-05,1.0733e-06,-3.37616e-05,1.44393e-05,-9.32983e-06,6.78833e-06,-1.87462e-06,0
-3.2518e-05,2.13235e-05,8.12659e-07,-3.43457e-05,1.49414e-05,-8.67942e-06,1.14486e-05,-9.34606e-07,0
-3.25954e-05,1.90227e-05,-1.39304e-06,-3.22997e-05,1.50834e-05,-8.13694e-06,1.72881e-05,-9.11023e-07,0
-3.24805e-05,1.57251e-05,-4.80316e-06,-3.05437e-05,1.48273e-05,-7.5713e-06,2.14501e-05,-9.05419e-07,0
-3.23267e-05,1.32879e-05,-8.01668e-06,-2.77492e-05,1.4533e-05,-5.85993e-06,2.37566e-05,-8.37142e-07,0
-3.22047e-05,1.18523e-05,-1.03887e-05,-2.17967e-05,1.56385e-05,-4.74782e-06,2.29665e-05,-9.71466e-07,0
-3.03882e-05,1.03797e-05,-1.24351e-05,-1.51446e-05,1.77008e-05,-6.24422e-06,1.90018e-05,3.6233e-07,0
-2.79635e-05,8.95204e-06,-1.46345e-05,-1.0976e-05,1.947e-05,-9.03488e-06,1.748e-05,1.54014e-06,0
-2.65919e-05,7.65757e-06,-1.5773e-05,-9.81178e-06,2.03649e-05,-1.02872e-05,2.08575e-05,1.33818e-06,0
-2.76893e-05,6.51323e-06,-1.27558e-05,-9.2651e-06,1.89055e-05,-1.04726e-05,2.53829e-05,2.30272e-06,0
-3.02803e-05,5.34751e-06,-6.70706e-06,-7.88692e-06,1.52467e-05,-1.06563e-05,2.6219e-05,3.87429e-06,0
-3.15596e-05,6.14305e-06,1.43016e-06,-5.57765e-06,1.23397e-05,-1.07632e-05,2.3664e-05,3.71986e-06,0
-3.07968e-05,8.95559e-06,1.24175e-05,-4.5843e-06,1.26633e-05,-1.1244e-05,2.03184e-05,3.64711e-06,0
-2.92651e-05,1.06629e-05,2.71088e-05,-3.63435e-06,1.37476e-05,-1.13309e-05,1.58007e-05,4.4592e-06,0
-2.92698e-05,1.09103e-05,4.09712e-05,-1.46864e-06,1.42607e-05,-1.20081e-05,1.22499e-05,3.60463e-06,0
-2.91875e-05,1.13376e-05,4.54035e-05,8.76826e-08,1.51252e-05,-1.42139e-05,1.05695e-05,2.46057e-06,0
-2.79755e-05,1.22349e-05,3.58648e-05,2.38905e-07,1.69904e-05,-1.60644e-05,1.03397e-05,1.77598e-06,0
-2.68177e-05,1.26178e-05,1.37983e-05,-5.41936e-07,1.84804e-05,-1.54373e-05,1.00275e-05,1.27594e-06,0
-2.6522e-05,1.21991e-05,-1.28452e-05,-1.97062e-07,1.78284e-05,-1.36468e-05,9.33617e-06,7.369e-07,0
-2.63511e-05,1.10534e-05,-3.64926e-05,8.081e-07,1.72094e-05,-1.08013e-05,8.46209e-06,2.04403e-07,0
-2.65744e-05,9.30725e-06,-5.29193e-05,3.52042e-07,1.8813e-05,-8.21875e-06,8.26405e-06,9.27024e-07,0
-2.79605e-05,8.02164e-06,-5.9426e-05,-2.18326e-06,2.09969e-05,-8.14282e-06,8.83807e-06,2.0546e-06,0
-2.95825e-05,7.68671e-06,-5.5603e-05,-5.32564e-06,1.94446e-05,-1.07708e-05,9.01118e-06,1.95345e-06,0
-3.10439e-05,7.75937e-06,-4.59695e-05,-7.44636e-06,1.58384e-05,-1.42211e-05,9.05164e-06,1.32274e-06,0
-3.28621e-05,6.83208e-06,-3.44152e-05,-7.46755e-06,1.39529e-05,-1.65125e-05,9.45535e-06,1.72881e-06,0
-3.40846e-05,4.99373e-06,-2.09182e-05,-4.0316e-06,1.43523e-05,-1.68779e-05,1.18939e-05,2.18051e-06,0
-3.30919e-05,3.57786e-06,-5.08781e-06,2.22644e-06,1.51332e-05,-1.57822e-05,1.49195e-05,1.82659e-06,0
-3.14552e-05,2.64175e-06,1.38646e-05,8.63522e-06,1.48951e-05,-1.45233e-05,1.6108e-05,7.18663e-07,0
-3.06339e-05,1.36712e-06,3.56512e-05,1.15584e-05,1.51213e-05,-1.38535e-05,1.53789e-05,-3.4041e-07,0
-3.08787e-05,1.69992e-06,5.49152e-05,1.18563e-05,1.72693e-05,-1.4236e-05,1.512e-05,-4.10487e-07,0
-3.20279e-05,4.27024e-06,6.35168e-05,1.19648e-05,1.98771e-05,-1.59336e-05,1.51276e-05,2.32648e-07,0
-3.37653e-05,8.05748e-06,5.57831e-05,1.20839e-05,2.01432e-05,-1.78588e-05,1.54375e-05,1.6802e-06,0
-3.49127e-05,1.29755e-05,3.1229e-05,1.30791e-05,1.86935e-05,-1.75679e-05,1.67436e-05,3.58487e-06,0
-3.3831e-05,1.55182e-05,-6.06328e-06,1.26915e-05,1.787e-05,-1.64922e-05,1.95951e-05,5.21295e-06,0
-3.12257e-05,1.47947e-05,-4.27349e-05,8.29822e-06,1.73744e-05,-1.58909e-05,2.02434e-05,6.41564e-06,0
-2.94231e-05,1.50439e-05,-6.496e-05,-2.69861e-06,1.66215e-05,-1.50924e-05,1.91617e-05,6.35452e-06,0
-2.94675e-05,1.76442e-05,-7.20315e-05,-2.05998e-05,1.55204e-05,-1.33159e-05,1.43553e-05,2.81501e-06,0
-3.01293e-05,1.82163e-05,-6.77837e-05,-3.35347e-05,1.34984e-05,-1.26444e-05,-8.83735e-06,-6.94521e-07,0
-3.02541e-05,1.67434e-05,-5.60374e-05,-3.53265e-05,1.26328e-05,-1.3367e-05,-4.34017e-05,-2.19585e-07,0
-2.95742e-05,1.70953e-05,-4.2781e-05,-3.12295e-05,1.13894e-05,-1.22121e-05,-6.13645e-05,1.94338e-06,0
-2.87208e-05,1.8305e-05,-3.18725e-05,-2.46166e-05,8.84634e-06,-1.05166e-05,-5.23723e-05,3.16249e-06,0
-2.8397e-05,1.80254e-05,-2.18719e-05,-1.82328e-05,8.89689e-06,-1.00094e-05,-2.71922e-05,2.89838e-06,0
-2.83715e-05,1.71727e-05,-1.35034e-05,-1.36154e-05,1.09674e-05,-9.03327e-06,1.15327e-06,3.29452e-06,0
-2.82624e-05,1.64729e-05,-8.03013e-06,-1.19513e-05,1.21069e-05,-6.2443e-06,2.39651e-05,3.16625e-06,0
-2.91512e-05,1.52558e-05,-4.42287e-06,-1.1365e-05,1.17802e-05,-4.5202e-06,3.98169e-05,1.80561e-06,0
-3.04235e-05,1.42385e-05,-2.0419e-06,-1.17803e-05,9.34509e-06,-5.17756e-06,4.91509e-05,7.24709e-08,0
-3.01616e-05,1.43945e-05,-1.3101e-06,-1.14536e-05,6.61442e-06,-5.07678e-06,5.28536e-05,-1.68754e-06,0
-2.97124e-05,1.69711e-05,-2.19849e-06,-8.52953e-06,6.18782e-06,-3.48077e-06,5.20125e-05,-2.08273e-06,0
-3.00123e-05,1.86279e-05,-2.98913e-06,-4.91359e-06,8.18227e-06,-1.55479e-06,4.9622e-05,-1.7112e-06,0
-3.06629e-05,1.67796e-05,-2.35372e-06,-2.10418e-06,9.52266e-06,-1.05642e-06,5.07958e-05,-1.56461e-06,0
-3.14424e-05,1.27611e-05,6.55412e-07,-9.68663e-07,8.18169e-06,-2.19739e-06,5.48681e-05,-1.62644e-06,0
-3.25219e-05,9.53473e-06,4.45259e-06,-1.66454e-07,5.94497e-06,-4.55672e-06,5.76228e-05,-1.56317e-06,0
-3.32623e-05,8.40056e-06,6.63822e-06,8.32531e-07,4.65341e-06,-6.0475e-06,5.7849e-05,-1.67937e-06,0
-3.30033e-05,8.48056e-06,7.19199e-06,2.38561e-06,4.28196e-06,-4.39646e-06,5.57704e-05,-2.13349e-06,0
-3.27674e-05,7.9051e-06,7.05538e-06,3.57551e-06,3.60328e-06,-1.97072e-06,4.96283e-05,-3.4599e-06,0
-3.26886e-05,5.52182e-06,6.41889e-06,4.37314e-06,3.9188e-06,-9.60327e-07,4.03567e-05,-4.75222e-06,0
-3.17502e-05,4.10948e-06,5.61982e-06,4.40338e-06,7.04415e-06,-7.21401e-07,2.98971e-05,-5.39904e-06,0
-3.02377e-05,4.52264e-06,3.91425e-06,3.91411e-06,1.16299e-05,-2.7232e-07,1.78478e-05,-4.95901e-06,0
-2.98245e-05,4.34375e-06,9.4331e-10,4.52854e-06,1.3965e-05,-6.86586e-07,4.36043e-06,-3.31338e-06,0
-3.06596e-05,2.48554e-06,-5.71538e-06,9.10065e-06,1.26611e-05,-2.27081e-06,-5.21139e-06,-2.05716e-06,0
-3.09653e-05,2.32124e-06,-1.30038e-05,1.73842e-05,1.00916e-05,-4.18527e-06,-6.26707e-06,-9.61129e-07,0
-2.98093e-05,4.67309e-06,-2.11786e-05,2.33823e-05,9.80958e-06,-5.6206e-06,-2.77719e-06,-4.42029e-07,0
-2.85869e-05,6.81151e-06,-2.57647e-05,2.36048e-05,1.08722e-05,-6.07581e-06,-5.21322e-07,-6.98948e-07,0
-2.83531e-05,6.39556e-06,-2.45507e-05,1.90075e-05,1.12154e-05,-5.87931e-06,-1.30537e-06,8.50158e-07,0
-2.78525e-05,5.0061e-06,-1.87335e-05,1.53586e-05,1.12694e-05,-4.94892e-06,-3.12589e-06,1.43855e-06,0
-2.78457e-05,6.83185e-06,-1.05174e-05,1.30276e-05,9.96274e-06,-3.91206e-06,-4.73939e-06,-1.73612e-07,0
-2.85177e-05,1.13323e-05,-3.29539e-06,7.25017e-06,6.70008e-06,-4.60486e-06,-5.03079e-06,-9.67421e-07,0
-2.86125e-05,1.50468e-05,1.90249e-06,2.14625e-07,6.54787e-06,-5.90371e-06,-2.89297e-06,-8.04548e-08,0
-2.87452e-05,1.90154e-05,4.65804e-06,-8.42709e-06,1.01144e-05,-6.59085e-06,2.23703e-07,2.50102e-06,0
-2.84606e-05,2.41726e-05,6.72999e-06,-1.90023e-05,1.14734e-05,-6.08725e-06,3.66368e-06,3.04753e-06,0
-2.78528e-05,3.00851e-05,8.60923e-06,-2.99639e-05,1.19563e-05,-6.63168e-06,6.44146e-06,1.65042e-06,0
-2.79679e-05,3.51241e-05,7.7943e-06,-3.67714e-05,1.31903e-05,-9.77258e-06,7.33689e-06,2.97022e-07,0
-2.89798e-05,3.6426e-05,5.69403e-06,-3.38871e-05,1.29569e-05,-1.31222e-05,5.82572e-06,-2.22035e-08,0
-2.9625e-05,3.35485e-05,3.48962e-06,-2.24474e-05,1.09875e-05,-1.5202e-05,1.85379e-06,8.17719e-07,0
-3.02919e-05,2.80495e-05,-2.25686e-06,-9.67484e-06,9.88534e-06,-1.48436e-05,-3.95756e-06,1.89637e-06,0
-3.04998e-05,2.32427e-05,-1.226e-05,-3.50924e-06,9.84614e-06,-1.31963e-05,-1.13202e-05,1.48514e-06,0
-2.94883e-05,2.10999e-05,-2.15654e-05,-2.93959e-06,1.05664e-05,-1.18677e-05,-1.73076e-05,-1.27619e-06,0
-2.85738e-05,2.04966e-05,-2.62926e-05,-4.53675e-06,1.27299e-05,-1.23768e-05,-1.72139e-05,-2.66697e-06,0
-2.87991e-05,1.87067e-05,-2.55355e-05,-6.0343e-06,1.46963e-05,-1.41525e-05,-1.16759e-05,-1.79138e-06,0
-2.98253e-05,1.50718e-05,-2.06197e-05,-6.47433e-06,1.53854e-05,-1.51397e-05,-8.59381e-06,-1.30578e-06,0
-3.07417e-05,1.12264e-05,-1.56801e-05,-4.00776e-06,1.45685e-05,-1.42691e-05,-1.1657e-05,-1.17643e-06,0
-3.09605e-05,9.9387e-06,-1.27514e-05,1.06464e-07,1.32855e-05,-1.21526e-05,-1.29168e-05,-5.64572e-08,0
-3.02633e-05,1.25643e-05,-1.12421e-05,2.01355e-06,1.23495e-05,-1.05557e-05,-3.35307e-06,-3.26794e-07,0
-2.94077e-05,1.71835e-05,-1.04446e-05,7.24756e-10,1.18991e-05,-1.06393e-05,1.38215e-05,-2.10848e-06,0
-2.91676e-05,2.01468e-05,-9.65899e-06,-4.07907e-06,9.92814e-06,-1.23795e-05,2.99468e-05,-2.20622e-06,0
-3.02023e-05,1.90155e-05,-9.10147e-06,-8.04365e-06,6.91205e-06,-1.38345e-05,4.41308e-05,-5.39209e-07,0
-3.16092e-05,1.3802e-05,-9.03384e-06,-1.10682e-05,5.19415e-06,-1.37801e-05,5.8817e-05,-4.98209e-07,0
-3.29628e-05,8.77876e-06,-8.98093e-06,-1.32202e-05,4.27478e-06,-1.42962e-05,7.05453e-05,-1.93524e-06,0
-3.30714e-05,7.67636e-06,-7.87384e-06,-1.51168e-05,4.63323e-06,-1.49123e-05,7.48083e-05,-3.24305e-06,0
-3.18689e-05,1.07277e-05,-5.36769e-06,-1.48038e-05,7.28221e-06,-1.34712e-05,7.3119e-05,-4.49005e-06,0
-3.10614e-05,1.48088e-05,-4.7689e-06,-1.25311e-05,1.06686e-05,-1.17224e-05,6.27617e-05,-3.74871e-06,0
-3.15681e-05,1.60046e-05,-7.74503e-06,-1.28155e-05,1.17675e-05,-1.09419e-05,4.73494e-05,-2.42216e-06,0
-3.19527e-05,1.56172e-05,-9.51169e-06,-1.6869e-05,1.22082e-05,-1.06547e-05,3.4672e-05,-1.95442e-06,0
-3.08572e-05,1.48961e-05,-9.75477e-06,-2.14383e-05,1.38795e-05,-1.10225e-05,2.37559e-05,5.10938e-07,0
-2.91683e-05,1.21543e-05,-1.02191e-05,-2.31504e-05,1.42596e-05,-1.16977e-05,1.43751e-05,3.40631e-06,0
-2.89309e-05,7.77393e-06,-1.12083e-05,-2.08014e-05,1.29951e-05,-1.20563e-05,6.3686e-06,4.53006e-06,0
-2.97581e-05,6.57628e-06,-1.23303e-05,-1.75141e-05,1.29612e-05,-1.40139e-05,1.35519e-06,4.0988e-06,0
-2.97275e-05,1.08165e-05,-1.06304e-05,-1.105e-05,1.67953e-05,-1.59062e-05,-6.22644e-07,2.3545e-06,0
-2.95415e-05,1.56215e-05,-7.3247e-06,-2.87634e-06,2.34777e-05,-1.44094e-05,-1.5841e-06,2.53132e-06,0
-2.92504e-05,1.77083e-05,-4.8837e-06,2.16458e-06,2.72325e-05,-1.16056e-05,-2.34303e-06,4.81045e-06,0
-2.87898e-05,1.85514e-05,-4.87981e-06,4.02263e-06,2.46996e-05,-1.1086e-05,-1.37208e-06,7.73804e-06,0
-2.90685e-05,1.90026e-05,-6.79525e-06,3.33911e-06,1.93916e-05,-1.21004e-05,1.83085e-07,9.49909e-06,0
-2.97585e-05,1.96161e-05,-8.73604e-06,1.7775e-06,1.60987e-05,-1.19652e-05,5.82572e-07,9.42647e-06,0
-2.83907e-05,2.3626e-05,-9.15061e-06,2.5358e-07,1.48517e-05,-1.05535e-05,9.0469e-08,8.28286e-06,0
-2.61688e-05,3.03145e-05,-7.37904e-06,-2.08027e-07,1.28277e-05,-9.50484e-06,-3.06407e-07,6.91549e-06,0
-2.56397e-05,3.51348e-05,-4.88364e-06,5.48511e-07,1.00531e-05,-9.82813e-06,5.10317e-08,6.25236e-06,0
-2.65983e-05,3.47842e-05,-3.53622e-06,1.33679e-06,8.27169e-06,-1.14171e-05,-3.90272e-07,5.61384e-06,0
-2.61626e-05,2.80622e-05,-4.02294e-06,9.93486e-07,6.191e-06,-1.40795e-05,-2.68785e-06,4.04468e-06,0
-2.47248e-05,1.62299e-05,-5.28693e-06,1.90799e-07,3.42552e-06,-1.58495e-05,-6.02465e-06,2.44965e-06,0
-2.49617e-05,1.93738e-06,-6.23022e-06,1.99952e-07,2.14849e-06,-1.45989e-05,-6.46804e-06,2.27094e-06,0
-2.65619e-05,-1.25522e-05,-7.53614e-06,1.23691e-06,3.14195e-06,-1.19285e-05,-1.9964e-06,2.55164e-06,0
-2.92435e-05,-2.56998e-05,-9.753e-06,2.59602e-06,4.96113e-06,-1.03549e-05,3.5326e-06,2.54718e-06,0
-3.09956e-05,-3.47892e-05,-1.19997e-05,4.33839e-06,5.86062e-06,-1.03994e-05,4.86216e-06,8.58005e-07,0
-2.92951e-05,-3.60729e-05,-1.36912e-05,6.20937e-06,6.09362e-06,-1.19835e-05,4.7772e-06,-2.1415e-06,0
-2.61472e-05,-2.60849e-05,-1.38106e-05,8.3019e-06,6.46173e-06,-1.34198e-05,6.53099e-06,-3.89885e-06,0
-2.54527e-05,-7.28621e-06,-1.35071e-05,9.79227e-06,7.84753e-06,-1.30738e-05,9.19097e-06,-3.0015e-06,0
-2.76408e-05,1.07409e-05,-1.27754e-05,8.95016e-06,1.00092e-05,-1.2213e-05,9.57448e-06,-5.65729e-08,0
-2.94378e-05,2.28841e-05,-1.17542e-05,6.77365e-06,1.1243e-05,-1.21416e-05,8.57111e-06,1.88e-06,0
-2.88002e-05,2.85796e-05,-1.2666e-05,3.99246e-06,1.07245e-05,-1.05995e-05,8.29138e-06,-5.44188e-07,0
-2.85163e-05,2.28261e-05,-1.46073e-05,6.03475e-07,1.09826e-05,-8.61811e-06,8.68646e-06,-2.83992e-06,0
-2.74724e-05,4.01547e-06,-1.56663e-05,-2.05217e-06,1.25014e-05,-6.77073e-06,1.02318e-05,-2.50099e-06,0
-2.60114e-05,-2.14089e-05,-1.44948e-05,-4.36097e-06,1.48933e-05,-4.83305e-06,1.1363e-05,-2.56408e-06,0
-2.8563e-05,-3.93005e-05,-1.26372e-05,-6.99116e-06,1.8381e-05,-3.97857e-06,9.16189e-06,-2.26248e-06,0
-3.17868e-05,-4.28838e-05,-1.10784e-05,-8.34827e-06,2.06798e-05,-3.61759e-06,5.84319e-06,-1.53613e-06,0
-3.0314e-05,-3.707e-05,-8.45503e-06,-7.63615e-06,2.21912e-05,-3.7502e-06,5.77823e-06,-7.06473e-07,0
-2.69439e-05,-2.78902e-05,-7.00647e-06,-6.67753e-06,2.3467e-05,-3.07345e-06,7.48915e-06,-4.10072e-07,0
-2.57442e-05,-1.78499e-05,-7.66058e-06,-7.13239e-06,2.34872e-05,-1.75368e-06,9.31302e-06,-9.68975e-07,0
-2.75065e-05,-8.22238e-06,-8.23246e-06,-7.73358e-06,2.16487e-05,-1.5674e-06,9.78413e-06,-6.91107e-07,0
-3.03194e-05,1.85992e-06,-7.81704e-06,-8.37522e-06,1.85889e-05,-3.45303e-06,9.27856e-06,2.17751e-06,0
-3.10771e-05,1.51472e-05,-8.36072e-06,-1.01247e-05,1.55323e-05,-5.22633e-06,8.53627e-06,5.26735e-06,0
-3.03582e-05,2.90977e-05,-1.10666e-05,-1.35544e-05,1.42744e-05,-5.73124e-06,9.13308e-06,6.81757e-06,0
-2.98972e-05,3.87982e-05,-1.27781e-05,-1.59726e-05,1.45314e-05,-4.8939e-06,1.02897e-05,7.42457e-06,0
-2.9248e-05,4.13227e-05,-1.15093e-05,-1.45121e-05,1.51576e-05,-3.70219e-06,1.09416e-05,6.53991e-06,0
-2.84494e-05,3.83661e-05,-8.83761e-06,-1.16562e-05,1.53883e-05,-3.91825e-06,1.13298e-05,3.3986e-06,0
-2.92645e-05,3.29522e-05,-6.32468e-06,-9.26148e-06,1.41053e-05,-5.29743e-06,1.23911e-05,2.79746e-07,0
-3.1374e-05,2.79614e-05,-4.70667e-06,-7.14182e-06,1.19254e-05,-6.03619e-06,1.47918e-05,-2.017e-07,0
-3.27161e-05,2.32293e-05,-4.8247e-06,-5.64994e-06,1.0985e-05,-5.65956e-06,1.69621e-05,1.62545e-06,0
-3.26716e-05,1.80741e-05,-6.03212e-06,-5.12256e-06,1.15519e-05,-5.88776e-06,1.77325e-05,3.74e-06,0
-3.2145e-05,1.21169e-05,-6.85428e-06,-5.09161e-06,1.2172e-05,-6.34196e-06,1.75597e-05,5.20767e-06,0
-3.08569e-05,4.67856e-06,-6.13814e-06,-5.67782e-06,1.28334e-05,-7.00504e-06,1.68614e-05,6.19083e-06,0
-2.98145e-05,-2.19536e-06,-4.76624e-06,-5.25257e-06,1.24201e-05,-8.09831e-06,1.49457e-05,5.93461e-06,0
-3.03903e-05,-3.22313e-06,-3.47627e-06,-1.72294e-06,1.06828e-05,-7.94112e-06,1.21299e-05,6.10004e-06,0
-3.17458e-05,2.12124e-06,-1.60135e-06,3.50064e-06,9.4219e-06,-5.67933e-06,9.94738e-06,5.74609e-06,0
-3.3643e-05,9.23328e-06,5.2894e-08,8.61326e-06,9.67669e-06,-3.34194e-06,1.07544e-05,4.33227e-06,0
-3.41157e-05,1.53708e-05,2.61065e-07,1.06608e-05,9.78514e-06,-4.15622e-06,1.17256e-05,1.35508e-06,0
-3.25569e-05,2.08774e-05,-3.01067e-07,1.05056e-05,8.77177e-06,-6.93922e-06,1.16314e-05,-2.20805e-06,0
-3.06684e-05,2.53648e-05,-4.7331e-07,1.0628e-05,8.94224e-06,-7.34651e-06,1.23133e-05,-3.9129e-06,0
-2.89201e-05,2.56095e-05,-2.45777e-06,7.86166e-06,1.03813e-05,-5.89756e-06,1.23638e-05,-5.0273e-06,0
-2.82179e-05,2.22534e-05,-5.3439e-06,2.77425e-06,1.14052e-05,-4.6216e-06,1.01814e-05,-5.58708e-06,0
-2.83224e-05,1.75562e-05,-6.58032e-06,6.11161e-07,1.16227e-05,-4.99479e-06,8.65132e-06,-6.0603e-06,0
-2.95585e-05,1.63888e-05,-6.72335e-06,1.34339e-06,9.72363e-06,-5.27752e-06,1.14921e-05,-6.56086e-06,0
-3.07221e-05,2.2191e-05,-6.28036e-06,8.82304e-07,8.57121e-06,-5.22025e-06,1.87606e-05,-6.31876e-06,0
-3.12422e-05,3.28671e-05,-6.42626e-06,-6.25654e-07,9.79902e-06,-5.66165e-06,2.64274e-05,-4.74593e-06,0
-3.09601e-05,4.59053e-05,-5.82147e-06,-7.18622e-07,1.17847e-05,-5.44735e-06,3.24327e-05,-3.05668e-06,0
-2.99708e-05,5.4972e-05,-3.59539e-06,-2.19626e-07,1.24809e-05,-5.34609e-06,3.55342e-05,-2.5283e-06,0
-2.96524e-05,5.419e-05,-1.83393e-06,-1.72452e-06,1.01469e-05,-4.73721e-06,3.49789e-05,-2.75066e-06,0
-3.02889e-05,4.09947e-05,-2.42543e-06,-6.64876e-06,6.26505e-06,-4.93875e-06,3.18816e-05,-3.11269e-06,0
-3.14337e-05,1.90254e-05,-4.23664e-06,-1.33898e-05,2.14222e-06,-6.06846e-06,2.69335e-05,-3.53097e-06,0
-3.2515e-05,-4.13196e-06,-4.78213e-06,-1.77544e-05,-1.35492e-06,-8.0157e-06,2.28434e-05,-4.15946e-06,0
-3.43475e-05,-2.12908e-05,-3.82216e-06,-1.83449e-05,-3.15001e-06,-1.02618e-05,2.12271e-05,-4.90441e-06,0
-3.59595e-05,-2.81288e-05,-2.62883e-06,-1.73643e-05,-2.00276e-06,-1.15828e-05,2.0347e-05,-5.71094e-06,0
-3.63545e-05,-2.36917e-05,-9.98633e-07,-1.56396e-05,1.38208e-07,-1.17942e-05,1.71071e-05,-4.84156e-06,0
-3.52907e-05,-1.20043e-05,1.77109e-06,-1.36407e-05,1.44517e-06,-1.1478e-05,1.18298e-05,-2.98849e-06,0
-3.3968e-05,-1.07675e-06,3.56495e-06,-1.44688e-05,2.3547e-06,-1.10547e-05,6.93804e-06,-3.03841e-06,0
-3.38831e-05,5.74705e-06,1.57764e-06,-1.95822e-05,3.29829e-06,-1.13641e-05,5.78175e-06,-4.62846e-06,0
-3.48177e-05,8.81209e-06,-6.45742e-06,-2.52449e-05,4.00574e-06,-1.29194e-05,6.74872e-06,-4.39996e-06,0
-3.52834e-05,1.04793e-05,-2.00448e-05,-2.767e-05,4.9594e-06,-1.30937e-05,5.67261e-06,-2.95245e-06,0
-3.46067e-05,1.20237e-05,-3.52438e-05,-2.60549e-05,5.98947e-06,-1.11322e-05,3.23816e-06,-3.22819e-06,0
-3.27428e-05,1.46895e-05,-4.55077e-05,-2.28726e-05,6.24402e-06,-9.38082e-06,2.23906e-06,-4.18722e-06,0
-3.07328e-05,1.9209e-05,-4.50696e-05,-2.20933e-05,6.26795e-06,-1.03906e-05,2.92057e-06,-4.96532e-06,0
-2.8919e-05,2.63744e-05,-3.50897e-05,-2.1318e-05,7.35187e-06,-1.13201e-05,5.18044e-06,-6.87563e-06,0
-2.86607e-05,3.26407e-05,-2.15767e-05,-1.7433e-05,9.0852e-06,-9.13676e-06,1.04764e-05,-8.31044e-06,0
-3.04866e-05,3.45898e-05,-1.20108e-05,-1.22199e-05,1.10584e-05,-6.95315e-06,1.84421e-05,-6.58223e-06,0
-3.10874e-05,3.55318e-05,-9.93444e-06,-5.52916e-06,1.46586e-05,-5.62103e-06,2.6879e-05,-4.46162e-06,0
-3.00283e-05,3.62438e-05,-1.07107e-05,-4.91256e-07,1.73544e-05,-5.96985e-06,3.37804e-05,-4.13316e-06,0
-2.83193e-05,3.61912e-05,-1.09547e-05,2.21261e-07,1.64432e-05,-8.71173e-06,3.67916e-05,-2.84579e-06,0
-2.76553e-05,3.7434e-05,-1.09921e-05,-9.90046e-07,1.34486e-05,-1.04974e-05,3.48143e-05,2.76933e-07,0
-2.78623e-05,3.80183e-05,-1.15347e-05,-1.72593e-06,9.79946e-06,-1.20405e-05,3.05149e-05,3.41627e-06,0
-2.9348e-05,3.73688e-05,-1.16801e-05,-1.20299e-06,6.07933e-06,-1.38666e-05,2.46261e-05,5.29044e-06,0
-3.1714e-05,3.48711e-05,-1.14436e-05,-1.88229e-06,3.52654e-06,-1.56459e-05,1.51422e-05,5.49158e-06,0
-3.12666e-05,3.03227e-05,-1.11704e-05,-3.22725e-06,2.75646e-06,-1.63894e-05,1.85936e-06,5.38382e-06,0
-2.96385e-05,2.41878e-05,-1.06052e-05,-4.19339e-06,3.54912e-06,-1.75615e-05,-1.27505e-05,5.52471e-06,0
-3.06712e-05,1.69275e-05,-1.03532e-05,-4.90179e-06,6.09932e-06,-1.94203e-05,-2.33369e-05,6.95061e-06,0
-3.31036e-05,1.17791e-05,-1.0592e-05,-5.38668e-06,8.74681e-06,-2.08726e-05,-2.55668e-05,7.85e-06,0
-3.36118e-05,1.00723e-05,-1.05334e-05,-6.03943e-06,1.03535e-05,-2.17744e-05,-2.02394e-05,6.89002e-06,0
-3.35063e-05,1.12315e-05,-9.40594e-06,-6.45261e-06,1.24964e-05,-2.2095e-05,-1.2591e-05,6.28609e-06,0
-3.45563e-05,1.21559e-05,-9.7642e-06,-7.67008e-06,1.53876e-05,-2.28136e-05,-6.93665e-06,6.30643e-06,0
-3.59145e-05,1.25647e-05,-1.24828e-05,-9.98871e-06,1.76405e-05,-2.23376e-05,-2.96451e-06,6.17032e-06,0
-3.64453e-05,1.46508e-05,-1.566e-05,-1.16932e-05,1.86384e-05,-2.0422e-05,3.26551e-07,6.74551e-06,0
-3.63094e-05,1.77336e-05,-1.64045e-05,-9.71238e-06,1.95262e-05,-1.78132e-05,2.22588e-06,8.57231e-06,0
-3.61351e-05,1.82968e-05,-1.45201e-05,-4.74322e-06,2.03864e-05,-1.62178e-05,4.36112e-06,9.4288e-06,0
-3.59041e-05,1.78436e-05,-1.22142e-05,-4.15529e-07,1.98984e-05,-1.57294e-05,8.5276e-06,8.79806e-06,0
-3.52149e-05,1.80744e-05,-1.03667e-05,3.02452e-06,1.87754e-05,-1.61101e-05,1.30159e-05,8.28099e-06,0
-3.36639e-05,1.625e-05,-9.27392e-06,6.65356e-06,1.80005e-05,-1.54235e-05,1.66896e-05,8.05396e-06,0
-3.27259e-05,1.02905e-05,-8.53699e-06,8.95545e-06,1.76107e-05,-1.3607e-05,1.83435e-05,6.3062e-06,0
-3.33893e-05,3.4812e-06,-7.28247e-06,9.07976e-06,1.89909e-05,-1.2505e-05,1.80744e-05,3.65545e-06,0
-3.50229e-05,-7.20036e-07,-3.78549e-06,9.76227e-06,2.10941e-05,-1.28755e-05,1.80123e-05,3.04657e-06,0
-3.60236e-05,-2.43216e-06,4.41448e-06,1.1204e-05,2.10455e-05,-1.38609e-05,1.99986e-05,4.48707e-06,0
