ch1,ch2,ch3,ch4,ch5,ch6,ch7,ch8,class
-2.85262e-05,1.48715e-05,-7.80865e-06,-1.73912e-05,3.87232e-07,-5.5683e-06,3.2357e-05,1.87441e-06,0
-3.0866e-05,1.24326e-05,-1.23717e-05,-2.4081e-05,-7.72277e-07,-6.21865e-06,2.32631e-05,1.58963e-07,0
-3.36476e-05,1.07194e-05,-1.88615e-05,-2.87235e-05,1.08872e-07,-7.48699e-06,1.85806e-05,-1.3077e-06,0
-3.4464e-05,1.30402e-05,-2.24475e-05,-2.91118e-05,9.84914e-07,-8.29229e-06,1.89814e-05,-1.39425e-06,0
-3.35492e-05,1.66713e-05,-2.18175e-05,-2.58127e-05,1.42536e-06,-7.41274e-06,1.98503e-05,-1.28223e-06,0
-3.25219e-05,1.81483e-05,-2.07011e-05,-2.37649e-05,1.2985e-06,-5.43915e-06,1.94539e-05,-2.07481e-06,0
-3.24981e-05,2.06099e-05,-2.18198e-05,-2.51349e-05,-8.91367e-07,-5.15685e-06,2.06594e-05,-2.668e-06,0
-3.40517e-05,2.82498e-05,-2.38286e-05,-2.70175e-05,-3.57731e-06,-7.23352e-06,2.36286e-05,-1.2765e-06,0
-3.55162e-05,3.90121e-05,-2.39839e-05,-2.54988e-05,-3.36927e-06,-9.64356e-06,2.41257e-05,1.01083e-06,0
-3.4518e-05,4.61108e-05,-2.24988e-05,-2.03638e-05,-5.33373e-07,-9.82685e-06,2.19663e-05,6.30103e-07,0
-3.12581e-05,4.2799e-05,-2.19287e-05,-1.79346e-05,1.00487e-06,-8.10401e-06,1.87058e-05,-1.16819e-06,0
-2.84386e-05,2.88773e-05,-2.16997e-05,-2.18967e-05,-1.34665e-07,-6.31179e-06,1.61227e-05,-2.01545e-06,0
-2.72468e-05,9.3711e-06,-1.98588e-05,-2.73309e-05,-3.42763e-06,-5.59086e-06,1.41887e-05,-1.39465e-06,0
-2.75567e-05,-1.37075e-05,-1.74738e-05,-2.94412e-05,-4.87866e-06,-5.84443e-06,1.13915e-05,-7.64541e-08,0
-2.93492e-05,-3.45843e-05,-1.83072e-05,-2.71576e-05,-5.72333e-07,-7.03422e-06,8.42212e-06,2.53484e-07,0
-3.15539e-05,-3.94812e-05,-2.337e-05,-2.19788e-05,6.50532e-06,-7.15784e-06,7.19768e-06,4.30878e-07,0
-3.17141e-05,-2.81064e-05,-2.79347e-05,-1.7521e-05,1.12087e-05,-6.22144e-06,6.04503e-06,8.57168e-07,0
-3.14274e-05,-1.11592e-05,-2.90925e-05,-1.47688e-05,1.29494e-05,-6.74325e-06,3.5473e-06,5.55635e-07,0
-3.23155e-05,6.13435e-06,-2.74194e-05,-1.02269e-05,1.46523e-05,-7.52347e-06,-1.21485e-07,5.89035e-07,0
-3.36958e-05,2.29894e-05,-2.24736e-05,-5.62074e-06,1.66222e-05,-8.56283e-06,-2.62322e-06,6.08344e-07,0
-3.40078e-05,4.00764e-05,-1.44917e-05,-7.80305e-06,1.81632e-05,-8.70152e-06,-2.14712e-06,-2.99546e-07,0
-3.12358e-05,5.26371e-05,-7.47207e-06,-1.59122e-05,1.95884e-05,-7.50435e-06,7.2523e-07,-8.9283e-08,0
-2.93987e-05,5.15891e-05,-4.84946e-06,-2.15991e-05,2.03955e-05,-7.98769e-06,3.37983e-06,1.27475e-06,0
-2.88439e-05,3.41263e-05,-6.03884e-06,-1.9276e-05,2.04541e-05,-9.22448e-06,4.2722e-06,3.00635e-06,0
-2.79252e-05,1.12594e-05,-8.56177e-06,-9.9979e-06,2.25184e-05,-9.40201e-06,5.20079e-06,6.1255e-06,0
-2.7918e-05,-9.32416e-06,-9.52528e-06,1.63996e-06,2.62438e-05,-6.56924e-06,7.5727e-06,1.04078e-05,0
-2.82964e-05,-2.75513e-05,-9.0962e-06,1.15805e-05,2.82792e-05,-3.26383e-06,1.00469e-05,1.27203e-05,0
-2.8129e-05,-3.78297e-05,-8.27975e-06,1.65824e-05,2.84518e-05,-2.97741e-06,5.86002e-06,1.21854e-05,0
-2.76557e-05,-3.09607e-05,-7.07092e-06,1.61371e-05,2.67234e-05,-5.24562e-06,-7.00659e-06,1.15011e-05,0
-2.83308e-05,-1.23608e-05,-4.98232e-06,1.06475e-05,2.3178e-05,-7.29771e-06,-2.09457e-05,1.13402e-05,0
-2.93025e-05,3.40857e-07,-2.82347e-06,7.68693e-07,1.96976e-05,-8.25596e-06,-2.62668e-05,1.06014e-05,0
-2.98455e-05,1.80333e-06,-2.12437e-06,-9.87696e-06,1.70899e-05,-1.01948e-05,-2.08635e-05,9.43471e-06,0
-3.00365e-05,-2.53103e-06,-3.45875e-06,-1.72945e-05,1.50108e-05,-1.25648e-05,-8.8408e-06,9.13115e-06,0
-3.06056e-05,-9.92774e-06,-5.52072e-06,-1.95801e-05,1.43247e-05,-1.42596e-05,4.63413e-06,9.60827e-06,0
-3.22477e-05,-2.11703e-05,-5.56871e-06,-1.80555e-05,1.56983e-05,-1.52984e-05,1.69215e-05,8.47069e-06,0
-3.34503e-05,-3.01101e-05,-2.44834e-06,-1.42769e-05,2.01125e-05,-1.60073e-05,2.6455e-05,4.89001e-06,0
-3.25675e-05,-2.96903e-05,1.82912e-06,-8.26809e-06,2.82108e-05,-1.48546e-05,3.11856e-05,1.81074e-06,0
-3.07978e-05,-2.14029e-05,3.68109e-06,3.57885e-07,3.55903e-05,-1.25767e-05,3.14924e-05,5.85854e-07,0
-2.95796e-05,-1.45227e-05,2.92677e-06,7.58418e-06,3.64387e-05,-1.1881e-05,2.97722e-05,1.36237e-07,0
-2.93134e-05,-1.44179e-05,1.9773e-06,9.38322e-06,3.07174e-05,-1.29617e-05,2.72134e-05,-4.02753e-07,0
-3.01849e-05,-1.72549e-05,1.76569e-06,7.07867e-06,2.45049e-05,-1.46787e-05,2.47552e-05,-1.90097e-06,0
-3.06889e-05,-1.66647e-05,3.48771e-06,5.15508e-06,2.47843e-05,-1.64143e-05,2.44366e-05,-3.92979e-06,0
-3.03987e-05,-1.19738e-05,7.58218e-06,7.2156e-06,3.05125e-05,-1.60218e-05,2.58603e-05,-5.90962e-06,0
-2.99188e-05,-7.84398e-06,1.02224e-05,1.12444e-05,3.59494e-05,-1.37975e-05,2.68873e-05,-7.34483e-06,0
-2.8067e-05,-4.58269e-06,1.05288e-05,1.29512e-05,3.74876e-05,-1.16568e-05,2.77898e-05,-8.25882e-06,0
-2.55553e-05,-1.38743e-06,1.10025e-05,8.82131e-06,3.40608e-05,-1.16125e-05,3.07209e-05,-7.41829e-06,0
-2.60168e-05,7.05358e-07,1.12504e-05,3.26519e-07,2.84525e-05,-1.25202e-05,3.56851e-05,-6.57671e-06,0
-2.78868e-05,4.37907e-06,1.12273e-05,-5.50693e-06,2.32829e-05,-1.17037e-05,4.30431e-05,-5.8499e-06,0
-2.83625e-05,1.57538e-05,9.5167e-06,-6.85209e-06,1.90715e-05,-1.14512e-05,5.0484e-05,-3.99629e-06,0
-2.79011e-05,3.27173e-05,2.89564e-06,-3.27516e-06,1.63762e-05,-1.13046e-05,5.37229e-05,-2.33253e-06,0
-2.70135e-05,4.45748e-05,-7.51826e-06,1.14699e-05,1.59579e-05,-1.18597e-05,5.31268e-05,-1.01354e-06,0
-2.64463e-05,4.62336e-05,-1.77744e-05,3.50098e-05,1.75656e-05,-1.29611e-05,4.97181e-05,-4.55961e-07,0
-2.78998e-05,4.01071e-05,-2.24487e-05,5.08378e-05,2.0326e-05,-1.26607e-05,4.15231e-05,1.02526e-06,0
-3.04409e-05,3.07601e-05,-1.92341e-05,4.99316e-05,2.01555e-05,-1.14965e-05,2.92761e-05,3.84656e-06,0
-3.03439e-05,2.24015e-05,-1.26099e-05,3.54902e-05,1.63565e-05,-1.08768e-05,1.50736e-05,5.93616e-06,0
-2.78742e-05,1.46939e-05,-7.70478e-06,1.52497e-05,1.21974e-05,-1.04541e-05,-8.83442e-07,7.43232e-06,0
-2.61184e-05,6.91633e-06,-5.84082e-06,-2.32759e-06,9.23764e-06,-9.409e-06,-1.68105e-05,8.65015e-06,0
-2.64186e-05,3.05466e-06,-5.29623e-06,-1.38273e-05,6.50332e-06,-9.28112e-06,-2.91509e-05,8.65957e-06,0
-2.83584e-05,4.24737e-06,-6.19069e-06,-1.83447e-05,4.27516e-06,-9.63376e-06,-3.73234e-05,8.81248e-06,0
-3.0942e-05,7.42341e-06,-8.81684e-06,-1.79628e-05,4.42277e-06,-9.41897e-06,-4.13381e-05,1.00227e-05,0
-3.25886e-05,1.16097e-05,-1.10042e-05,-1.67545e-05,5.79923e-06,-8.77671e-06,-3.95557e-05,1.1325e-05,0
-3.29548e-05,1.67941e-05,-1.13008e-05,-1.80257e-05,7.57924e-06,-8.17113e-06,-3.25455e-05,1.12898e-05,0
-3.29888e-05,2.05776e-05,-1.08158e-05,-2.25024e-05,9.59429e-06,-7.68961e-06,-2.33077e-05,1.05341e-05,0
-3.35626e-05,2.19138e-05,-9.99667e-06,-2.87234e-05,1.14602e-05,-7.27957e-06,-1.55092e-05,1.00624e-05,0
-3.38069e-05,2.26744e-05,-7.71809e-06,-3.18459e-05,1.28778e-05,-7.66533e-06,-1.01524e-05,9.49306e-06,0
-3.32358e-05,2.2378e-05,-5.99818e-06,-3.1274e-05,1.36738e-05,-9.76543e-06,-5.18799e-06,8.45536e-06,0
-3.29064e-05,2.15216e-05,-7.70482e-06,-3.19221e-05,1.21708e-05,-1.15417e-05,-2.23489e-07,6.18771e-06,0
-3.19885e-05,2.20732e-05,-1.04867e-05,-3.47565e-05,9.13224e-06,-1.0795e-05,8.17843e-07,3.37993e-06,0
-3.05639e-05,2.15477e-05,-1.07273e-05,-4.07712e-05,9.17695e-06,-8.61081e-06,-6.79125e-07,2.18767e-06,0
-3.0954e-05,1.79617e-05,-8.39216e-06,-4.59076e-05,1.23274e-05,-7.05899e-06,5.78224e-08,2.03726e-06,0
-3.26195e-05,1.25921e-05,-5.41023e-06,-4.22068e-05,1.4145e-05,-6.15029e-06,3.67849e-06,2.1398e-06,0
-3.22761e-05,9.46381e-06,-3.93868e-06,-2.78367e-05,1.35367e-05,-5.27044e-06,7.34542e-06,1.94698e-06,0
-3.00417e-05,1.04303e-05,-5.24872e-06,-7.1112e-06,1.19963e-05,-5.54555e-06,8.51433e-06,9.72622e-07,0
-2.95279e-05,1.21826e-05,-6.1278e-06,9.02194e-06,1.20156e-05,-6.95433e-06,7.79904e-06,3.9173e-07,0
-3.15528e-05,1.36071e-05,-4.69876e-06,1.858e-05,1.0927e-05,-7.80754e-06,4.75951e-06,-1.01189e-06,0
-3.19787e-05,1.55198e-05,-4.29846e-06,2.76335e-05,8.18342e-06,-6.94754e-06,6.3164e-07,-2.63569e-06,0
-3.05653e-05,2.05189e-05,-3.28636e-06,3.77028e-05,6.58161e-06,-6.53425e-06,-1.16805e-06,-2.28172e-06,0
-2.92478e-05,2.56586e-05,-2.41944e-06,4.23705e-05,6.25585e-06,-7.03498e-06,-5.56281e-07,-3.52612e-07,0
-2.81931e-05,2.9711e-05,-3.93387e-06,3.63058e-05,7.45846e-06,-6.08346e-06,-2.14302e-07,6.3219e-07,0
-2.86452e-05,3.86455e-05,-5.82674e-06,2.58125e-05,8.19749e-06,-4.52069e-06,-8.70121e-07,-7.4468e-07,0
-2.94269e-05,5.31653e-05,-5.93599e-06,1.55802e-05,6.92859e-06,-4.46532e-06,2.82311e-07,-2.45622e-06,0
-2.97116e-05,6.66771e-05,-4.96993e-06,7.46555e-06,5.19517e-06,-5.44262e-06,4.88152e-06,-4.07715e-06,0
-2.98734e-05,7.34221e-05,-5.5298e-06,1.8011e-06,5.5442e-06,-5.27748e-06,9.83198e-06,-4.81525e-06,0
-2.95881e-05,7.13086e-05,-8.13559e-06,-3.66004e-06,8.41914e-06,-4.26083e-06,1.29536e-05,-4.06136e-06,0
-2.82638e-05,5.84489e-05,-1.10069e-05,-9.88997e-06,1.31886e-05,-2.7521e-06,1.47258e-05,-3.03242e-06,0
-2.74021e-05,3.5443e-05,-1.33938e-05,-1.51196e-05,1.73942e-05,-1.48997e-06,1.47686e-05,-2.43272e-06,0
-2.82821e-05,7.48552e-06,-1.70024e-05,-1.77522e-05,1.87414e-05,-1.6717e-06,1.45337e-05,-2.6768e-06,0
-3.03278e-05,-1.62535e-05,-2.09882e-05,-1.70992e-05,1.74169e-05,-2.23062e-06,1.57889e-05,-3.35899e-06,0
-3.29962e-05,-2.89954e-05,-2.2487e-05,-1.36526e-05,1.67084e-05,-2.03907e-06,1.82292e-05,-4.37889e-06,0
-3.45941e-05,-2.707e-05,-2.01281e-05,-8.87576e-06,1.78259e-05,-2.76556e-06,2.05552e-05,-5.87963e-06,0
-3.39183e-05,-1.50373e-05,-1.6713e-05,-3.66766e-06,1.94719e-05,-5.36596e-06,2.23948e-05,-7.02479e-06,0
-3.19869e-05,-5.35202e-06,-1.36241e-05,2.25369e-07,2.02436e-05,-7.97831e-06,2.29879e-05,-6.27614e-06,0
-3.11607e-05,-2.82967e-06,-1.02219e-05,7.46934e-07,2.09548e-05,-9.10538e-06,2.21027e-05,-5.08614e-06,0
-3.17074e-05,-1.14385e-06,-7.00665e-06,-2.81189e-06,2.17236e-05,-8.31466e-06,2.16321e-05,-5.36113e-06,0
-3.20329e-05,1.591e-06,-4.46743e-06,-9.01305e-06,2.1743e-05,-7.42854e-06,2.27078e-05,-5.20896e-06,0
-3.16961e-05,3.57652e-06,-1.40508e-06,-1.50764e-05,2.16293e-05,-7.1906e-06,2.64122e-05,-2.93534e-06,0
-3.11359e-05,5.61494e-06,1.56035e-06,-1.66635e-05,2.06817e-05,-7.22664e-06,3.02383e-05,-1.2306e-06,0
-3.1133e-05,7.41658e-06,4.59844e-06,-1.22707e-05,1.97203e-05,-7.06425e-06,2.94623e-05,-1.13353e-06,0
-3.12891e-05,6.84758e-06,6.89096e-06,-6.6489e-06,1.79339e-05,-7.17123e-06,2.67828e-05,-1.06738e-06,0
-3.12981e-05,6.69714e-06,4.50911e-06,-9.8863e-07,1.52689e-05,-6.99464e-06,2.63451e-05,8.78977e-07,0
-3.14504e-05,1.19934e-05,1.04483e-06,5.88263e-06,1.54028e-05,-7.18086e-06,2.57403e-05,1.50643e-06,0
-3.06133e-05,2.29372e-05,-4.92689e-07,1.17271e-05,1.78375e-05,-6.17685e-06,2.3811e-05,1.9409e-07,0
-2.91356e-05,3.51852e-05,-4.90624e-06,1.51032e-05,1.85082e-05,-3.13734e-06,2.27207e-05,-9.78272e-08,0
-2.8493e-05,4.55119e-05,-1.23746e-05,1.55179e-05,1.68413e-05,-2.34411e-06,2.38186e-05,1.44788e-06,0
-2.89107e-05,6.08288e-05,-1.78968e-05,1.33879e-05,1.52183e-05,-2.39032e-06,2.67901e-05,4.33068e-06,0
-2.87329e-05,8.49047e-05,-1.8896e-05,7.69497e-06,1.61809e-05,-2.61682e-06,2.88201e-05,3.58534e-06,0
-2.80166e-05,0.000106186,-1.4005e-05,8.95961e-07,1.94653e-05,-4.55259e-06,2.60773e-05,7.46026e-07,0
-2.73242e-05,0.000107156,-2.25497e-06,-3.87373e-06,2.1997e-05,-7.16126e-06,1.99791e-05,-2.03732e-06,0
-2.69977e-05,8.55763e-05,1.40158e-05,-6.90021e-06,2.18524e-05,-9.02871e-06,1.46107e-05,-2.96889e-06,0
-2.83453e-05,5.06357e-05,2.77531e-05,-9.11419e-06,2.12292e-05,-9.66493e-06,1.22315e-05,-1.67343e-06,0
-3.09323e-05,1.30833e-05,3.33223e-05,-1.13294e-05,2.03225e-05,-9.03027e-06,1.25459e-05,8.41435e-07,0
-3.26795e-05,-1.85551e-05,2.94295e-05,-1.33452e-05,1.82276e-05,-8.392e-06,1.37358e-05,3.11774e-06,0
-3.30536e-05,-4.0602e-05,1.6221e-05,-1.43684e-05,1.67622e-05,-9.11976e-06,1.39808e-05,4.07043e-06,0
-3.25946e-05,-5.30566e-05,-5.57874e-06,-1.38463e-05,1.73105e-05,-1.07947e-05,1.30388e-05,4.44706e-06,0
-3.09236e-05,-5.54027e-05,-3.01764e-05,-1.31327e-05,1.94794e-05,-1.10657e-05,1.24855e-05,3.16915e-06,0
-2.86456e-05,-4.64756e-05,-4.91679e-05,-1.29571e-05,2.2179e-05,-8.37154e-06,1.15531e-05,3.89196e-07,0
-2.69399e-05,-3.37407e-05,-5.85682e-05,-1.28508e-05,2.46195e-05,-5.71406e-06,9.8147e-06,-2.23883e-06,0
-2.70823e-05,-2.51568e-05,-5.98039e-05,-1.26296e-05,2.48489e-05,-6.5175e-06,9.45738e-06,-2.13339e-06,0
-2.97675e-05,-2.01142e-05,-5.77194e-05,-1.14788e-05,2.30815e-05,-1.01112e-05,1.13937e-05,4.84261e-07,0
-3.4389e-05,-1.4892e-05,-5.42184e-05,-9.001e-06,2.16044e-05,-1.34191e-05,1.39734e-05,1.92598e-06,0
-3.75899e-05,-9.49949e-06,-4.89871e-05,-6.70181e-06,1.95807e-05,-1.50186e-05,1.61043e-05,1.10178e-06,0
-3.70286e-05,-4.42877e-06,-4.30214e-05,-4.11481e-06,1.58432e-05,-1.46049e-05,1.75356e-05,2.55384e-06,0
-3.31108e-05,1.81712e-07,-3.49661e-05,-2.54131e-06,1.35335e-05,-1.17392e-05,1.81071e-05,5.66934e-06,0
-2.98609e-05,3.02498e-06,-2.6383e-05,-4.61612e-06,1.25333e-05,-8.89185e-06,1.88164e-05,6.8044e-06,0
-3.07744e-05,2.28391e-06,-1.99147e-05,-1.04231e-05,9.95151e-06,-7.70321e-06,1.96788e-05,4.56889e-06,0
-3.27814e-05,5.63666e-07,-1.38887e-05,-1.91511e-05,7.61916e-06,-7.98357e-06,1.74265e-05,2.79539e-06,0
-3.36504e-05,-5.96254e-07,-9.46316e-06,-2.46266e-05,7.23269e-06,-9.99056e-06,1.39346e-05,3.03553e-06,0
-3.37781e-05,-1.87236e-06,-8.00717e-06,-2.53556e-05,6.20888e-06,-9.99356e-06,9.65138e-06,3.38017e-06,0
-3.27334e-05,-2.40693e-06,-7.88111e-06,-2.23032e-05,4.24431e-06,-7.49369e-06,5.3801e-06,2.87766e-06,0
-3.05245e-05,-1.50361e-06,-6.84605e-06,-1.32109e-05,3.7743e-06,-5.89347e-06,6.8335e-06,1.98999e-06,0
-2.82775e-05,1.84131e-06,-4.33311e-06,-2.61608e-06,4.26106e-06,-5.83296e-06,1.02473e-05,2.21558e-06,0
-2.81571e-05,5.25364e-06,-1.69382e-06,5.11787e-06,5.52755e-06,-6.94764e-06,1.05989e-05,1.81007e-06,0
-2.87529e-05,5.67168e-06,-1.37142e-07,7.88875e-06,9.1831e-06,-9.28276e-06,8.61862e-06,1.57701e-06,0
-2.82376e-05,4.89559e-06,-7.07018e-07,6.83488e-06,1.36943e-05,-1.13849e-05,7.35321e-06,1.50545e-06,0
-2.75101e-05,6.30513e-06,-1.95987e-06,1.5225e-06,1.63367e-05,-1.1827e-05,8.89728e-06,8.71722e-07,0
-2.70562e-05,8.97666e-06,-1.72842e-06,-6.99799e-06,1.71267e-05,-1.08699e-05,1.09202e-05,-5.62108e-07,0
-2.77178e-05,1.2632e-05,-1.90196e-07,-1.25683e-05,1.71297e-05,-9.89213e-06,1.09807e-05,-2.1716e-06,0
-2.79585e-05,1.72476e-05,1.38755e-06,-1.31963e-05,1.5887e-05,-9.583e-06,1.10371e-05,-3.02198e-06,0
-2.67777e-05,2.13665e-05,2.35593e-06,-9.7461e-06,1.37507e-05,-9.26554e-06,1.22175e-05,-2.74439e-06,0
-2.48187e-05,2.38421e-05,2.98508e-06,-4.23944e-06,1.27472e-05,-8.92429e-06,1.37306e-05,-1.88553e-06,0
-2.36809e-05,2.48946e-05,2.57443e-06,3.09301e-07,1.3013e-05,-9.77921e-06,1.7118e-05,-1.63786e-06,0
-2.39944e-05,2.57865e-05,1.07712e-06,2.17165e-06,1.23857e-05,-1.21818e-05,2.40954e-05,-2.60329e-06,0
-2.4928e-05,2.68255e-05,-1.04319e-06,1.84251e-06,9.63003e-06,-1.42649e-05,3.28059e-05,-3.22691e-06,0
-2.5527e-05,2.71906e-05,-4.14384e-06,6.66604e-07,6.44261e-06,-1.52519e-05,4.05753e-05,-2.40719e-06,0
-2.51038e-05,2.62402e-05,-6.2007e-06,6.3503e-07,4.98966e-06,-1.53725e-05,4.48679e-05,-1.13363e-06,0
-2.50364e-05,2.40742e-05,-4.81781e-06,-3.69443e-07,7.26836e-06,-1.55677e-05,4.27884e-05,-4.60799e-07,0
-2.65099e-05,2.10467e-05,-1.85458e-06,-4.96073e-06,1.13619e-05,-1.55828e-05,3.5569e-05,-6.00214e-07,0
-2.82646e-05,1.92701e-05,-2.87781e-07,-1.39613e-05,1.29359e-05,-1.49817e-05,2.70672e-05,-6.96443e-07,0
-2.90229e-05,1.90125e-05,-1.3936e-06,-2.36119e-05,1.11875e-05,-1.32569e-05,1.86602e-05,-4.51553e-07,0
-2.94036e-05,1.89564e-05,-2.58948e-06,-2.4049e-05,8.592e-06,-1.1313e-05,9.52674e-06,-1.9864e-07,0
-2.966e-05,1.77792e-05,-2.66703e-06,-1.50004e-05,7.29029e-06,-1.11854e-05,-5.41639e-07,7.3653e-08,0
-2.97482e-05,1.60128e-05,-3.44315e-06,-5.78479e-06,7.16088e-06,-1.3228e-05,-1.09115e-05,9.83047e-07,0
-3.02264e-05,1.58863e-05,-4.41317e-06,-1.56273e-06,7.26031e-06,-1.36156e-05,-1.94285e-05,1.17012e-06,0
-3.18177e-05,1.66556e-05,-5.01979e-06,-2.77748e-06,6.52843e-06,-1.07449e-05,-2.2822e-05,-5.38958e-07,0
-3.35878e-05,1.64745e-05,-5.15984e-06,-3.9698e-06,6.15881e-06,-8.96377e-06,-2.16017e-05,-5.97675e-06,0
-3.42655e-05,1.59256e-05,-6.07257e-06,-2.26499e-06,7.72323e-06,-9.76309e-06,-1.53601e-05,-9.71212e-06,0
-3.40738e-05,1.68065e-05,-7.7786e-06,-2.54634e-06,8.40436e-06,-1.25404e-05,-5.25132e-06,-9.2958e-06,0
-3.55392e-05,1.95463e-05,-8.0876e-06,-1.25815e-05,6.74925e-06,-1.38527e-05,2.35644e-06,-8.38612e-06,0
-3.63297e-05,2.36395e-05,-5.56296e-06,-2.94499e-05,5.07719e-06,-1.397e-05,9.42498e-06,-6.56944e-06,0
-3.43098e-05,2.69829e-05,-1.03352e-06,-3.99624e-05,4.4679e-06,-1.50841e-05,1.72363e-05,-4.90598e-06,0
-3.23025e-05,2.96305e-05,5.04717e-06,-4.49423e-05,5.92287e-06,-1.58317e-05,2.16066e-05,-3.52789e-06,0
-3.04943e-05,3.0809e-05,1.1754e-05,-5.15576e-05,7.69851e-06,-1.53987e-05,2.03655e-05,-3.38662e-06,0
-2.86537e-05,2.9176e-05,1.57985e-05,-5.82542e-05,8.28733e-06,-1.60144e-05,1.65369e-05,-3.96257e-06,0
-2.80683e-05,2.59937e-05,1.41091e-05,-5.32903e-05,8.98595e-06,-1.87507e-05,1.10343e-05,-3.40014e-06,0
-2.91746e-05,2.57015e-05,6.09181e-06,-2.68551e-05,9.40592e-06,-1.89109e-05,2.25699e-06,-1.26392e-06,0
-2.9643e-05,3.05206e-05,-5.69308e-06,1.57186e-05,8.81831e-06,-1.46235e-05,-9.67751e-06,6.30458e-07,0
-2.88676e-05,3.49633e-05,-1.80785e-05,5.5955e-05,9.01336e-06,-9.90911e-06,-2.14179e-05,2.41125e-06,0
-2.7747e-05,3.5573e-05,-2.74719e-05,7.62187e-05,1.15278e-05,-8.30614e-06,-2.46437e-05,4.67857e-06,0
-2.72578e-05,3.16666e-05,-3.14697e-05,7.21657e-05,1.46123e-05,-8.37009e-06,-1.78651e-05,6.47713e-06,0
-2.79029e-05,2.55537e-05,-2.92946e-05,5.31061e-05,1.5944e-05,-8.20695e-06,-7.0958e-06,6.92636e-06,0
-2.90987e-05,1.97213e-05,-2.27886e-05,3.13099e-05,1.49086e-05,-7.61401e-06,7.92406e-08,5.66457e-06,0
-2.90132e-05,1.47068e-05,-1.67587e-05,1.08628e-05,1.29186e-05,-7.02612e-06,2.52613e-06,4.15793e-06,0
-2.79504e-05,1.07465e-05,-1.51556e-05,-5.62248e-06,1.02269e-05,-6.44419e-06,3.09043e-06,3.812e-06,0
-2.74663e-05,8.66154e-06,-1.6203e-05,-1.12001e-05,7.88679e-06,-6.65675e-06,5.15308e-06,3.12006e-06,0
-2.7029e-05,6.27548e-06,-1.58634e-05,-3.20753e-06,7.56978e-06,-8.16639e-06,9.35537e-06,4.97091e-07,0
-2.67111e-05,1.2478e-06,-1.30937e-05,9.84434e-06,9.04317e-06,-8.75793e-06,1.36206e-05,-1.16105e-06,0
-2.56907e-05,-1.82829e-06,-1.0257e-05,1.85219e-05,1.25778e-05,-7.39181e-06,1.81785e-05,-2.25077e-06,0
-2.4103e-05,2.28862e-06,-9.39201e-06,2.1706e-05,1.70066e-05,-5.67067e-06,2.22803e-05,-3.14303e-06,0
-2.36211e-05,1.10473e-05,-1.05941e-05,1.84974e-05,2.24234e-05,-5.43478e-06,2.49008e-05,-2.33556e-06,0
-2.56178e-05,1.71293e-05,-1.28008e-05,1.11862e-05,2.64896e-05,-5.89273e-06,2.58018e-05,-2.60301e-06,0
-2.79142e-05,1.81186e-05,-1.17139e-05,5.07147e-06,2.45799e-05,-4.81187e-06,2.67796e-05,-3.317e-06,0
-2.80569e-05,1.62954e-05,-8.27104e-06,-1.58132e-06,2.09666e-05,-2.58112e-06,2.88451e-05,-2.44591e-06,0
-2.67897e-05,1.6297e-05,-5.47206e-06,-8.95745e-06,2.01024e-05,-1.18506e-06,2.72526e-05,-1.47772e-06,0
-2.45615e-05,2.19212e-05,-5.15983e-06,-1.52107e-05,1.93904e-05,-6.40073e-07,1.36206e-05,-7.18282e-07,0
-2.54492e-05,2.57053e-05,-7.07858e-06,-1.99908e-05,1.76924e-05,-9.16592e-07,-9.05515e-06,-3.05593e-08,0
-2.79256e-05,2.06897e-05,-7.14597e-06,-2.4809e-05,1.66245e-05,-2.74313e-06,-2.17256e-05,2.24265e-06,0
-2.84833e-05,1.28193e-05,-6.40833e-06,-2.87855e-05,1.69442e-05,-4.45075e-06,-1.65182e-05,3.43378e-06,0
-2.93652e-05,5.61485e-06,-7.57279e-06,-2.89273e-05,1.81331e-05,-5.04877e-06,-2.64549e-06,1.51503e-06,0
-2.93313e-05,7.94371e-07,-9.57179e-06,-2.54703e-05,1.74434e-05,-4.31995e-06,7.30886e-06,-9.04904e-07,0
-2.83307e-05,-1.90121e-06,-9.53969e-06,-2.08009e-05,1.56912e-05,-2.83712e-06,1.2056e-05,-3.52585e-06,0
-2.80859e-05,-4.51303e-06,-8.13709e-06,-1.65881e-05,1.45519e-05,-2.30534e-06,1.73492e-05,-5.72133e-06,0
-2.92334e-05,-8.33568e-06,-7.31798e-06,-1.4619e-05,1.42175e-05,-1.54564e-06,2.58302e-05,-5.99447e-06,0
-3.04651e-05,-1.26256e-05,-8.26874e-06,-1.59653e-05,1.34055e-05,-5.75909e-07,3.63622e-05,-5.25147e-06,0
-3.0775e-05,-1.55939e-05,-1.00465e-05,-1.64439e-05,1.04695e-05,-5.56623e-07,4.56893e-05,-5.01668e-06,0
-2.98079e-05,-1.54084e-05,-9.59582e-06,-1.39109e-05,8.25583e-06,-1.7591e-06,5.28744e-05,-5.11408e-06,0
-2.83958e-05,-9.53658e-06,-7.10489e-06,-1.08732e-05,8.8202e-06,-2.81406e-06,5.72777e-05,-4.34653e-06,0
-2.85879e-05,1.11727e-06,-3.42453e-06,-1.0261e-05,1.15216e-05,-2.88282e-06,5.78034e-05,-2.32134e-06,0
-3.11146e-05,1.28654e-05,3.36996e-06,-1.04581e-05,1.45066e-05,-3.06044e-06,5.23412e-05,-9.05463e-07,0
-3.34451e-05,2.07418e-05,1.39416e-05,-8.42026e-06,1.7109e-05,-3.92722e-06,4.49361e-05,-7.82064e-07,0
-3.36664e-05,2.13177e-05,2.62319e-05,-5.39715e-06,1.88619e-05,-4.73806e-06,4.0051e-05,-9.23098e-07,0
-3.37414e-05,1.38824e-05,3.91678e-05,-4.02673e-06,1.88046e-05,-4.73129e-06,3.78019e-05,-1.40599e-06,0
-3.51159e-05,2.31223e-06,4.96955e-05,-3.82693e-06,1.65695e-05,-5.49937e-06,3.59736e-05,-3.84644e-06,0
-3.69295e-05,-6.7349e-06,5.13778e-05,-6.93658e-06,1.37478e-05,-8.09045e-06,3.28043e-05,-7.03149e-06,0
-3.83126e-05,-7.90825e-06,3.99992e-05,-1.26861e-05,1.00103e-05,-1.0308e-05,2.7873e-05,-7.93741e-06,0
-3.93007e-05,-2.43029e-06,1.71155e-05,-1.46872e-05,7.80016e-06,-1.05374e-05,2.34144e-05,-7.10756e-06,0
-3.91138e-05,6.79933e-06,-1.2686e-05,-1.08224e-05,9.89076e-06,-9.11844e-06,1.96948e-05,-7.44554e-06,0
-3.86891e-05,1.77912e-05,-4.39986e-05,-4.13763e-06,1.46193e-05,-7.34715e-06,1.66555e-05,-7.78038e-06,0
-3.78862e-05,3.07029e-05,-6.52467e-05,1.71118e-06,1.65901e-05,-7.37802e-06,1.51047e-05,-5.95981e-06,0
-3.66812e-05,5.03128e-05,-7.17045e-05,6.86539e-06,1.42336e-05,-8.43758e-06,1.15627e-05,-3.89268e-06,0
-3.59566e-05,6.9718e-05,-6.8805e-05,1.00985e-05,1.21483e-05,-8.83273e-06,6.22234e-06,-3.05263e-06,0
-3.48895e-05,7.40078e-05,-5.78294e-05,9.01184e-06,1.13963e-05,-8.4403e-06,1.70047e-06,-1.86127e-06,0
-3.30291e-05,6.24628e-05,-4.44095e-05,5.04647e-06,1.2717e-05,-7.26333e-06,-3.13911e-07,3.63388e-07,0
-3.19834e-05,3.8292e-05,-3.34901e-05,1.67927e-06,1.30275e-05,-7.66688e-06,2.07767e-07,3.02877e-06,0
-3.17093e-05,5.25719e-06,-2.56188e-05,-1.25424e-06,1.3471e-05,-1.05053e-05,6.16125e-09,3.84628e-06,0
-3.36479e-05,-2.47439e-05,-1.93355e-05,-2.46221e-06,1.48253e-05,-1.34798e-05,-1.44713e-06,3.70282e-06,0
-3.59846e-05,-3.74273e-05,-1.38738e-05,-1.43691e-06,1.4138e-05,-1.60378e-05,-5.60637e-06,4.30615e-06,0
-3.58139e-05,-3.14853e-05,-8.85842e-06,-5.14668e-07,1.18531e-05,-1.75906e-05,-1.61528e-05,5.69454e-06,0
-3.4982e-05,-1.88157e-05,-4.08858e-06,-1.75298e-06,1.01961e-05,-1.66554e-05,-3.19703e-05,8.02796e-06,0
-3.35181e-05,-7.9851e-06,-1.27522e-06,-6.17585e-06,9.86979e-06,-1.33488e-05,-4.07846e-05,8.86764e-06,0
-3.14728e-05,-1.05122e-06,-2.01931e-06,-9.53554e-06,8.91486e-06,-1.07427e-05,-3.26904e-05,7.98269e-06,0
-3.02039e-05,2.66376e-06,-5.77443e-06,-9.3791e-06,6.56793e-06,-1.0034e-05,-1.33244e-05,7.01117e-06,0
-3.16649e-05,4.38643e-06,-7.93985e-06,-7.39468e-06,2.51359e-06,-9.451e-06,6.78341e-06,7.75232e-06,0
-3.37162e-05,7.27665e-06,-6.6044e-06,-5.21883e-06,-1.45087e-06,-8.57628e-06,2.203e-05,9.85662e-06,0
-3.45261e-05,1.17878e-05,-3.3603e-06,-2.88623e-06,-2.95998e-06,-8.33223e-06,3.29616e-05,1.31697e-05,0
-3.44246e-05,1.56966e-05,-1.77469e-06,-5.13705e-07,-2.1546e-06,-9.48116e-06,3.86037e-05,1.56848e-05,0
-3.41889e-05,1.7202e-05,-2.55099e-06,7.77839e-07,-1.54569e-06,-1.06492e-05,3.88726e-05,1.52421e-05,0
-3.29178e-05,1.72417e-05,-4.00882e-06,7.06248e-07,-1.19983e-06,-1.08875e-05,3.52347e-05,1.29647e-05,0
-2.97079e-05,1.77191e-05,-3.84187e-06,9.74257e-07,1.95172e-07,-1.07449e-05,3.17277e-05,1.08819e-05,0
-2.65948e-05,1.91002e-05,-3.99616e-06,3.32668e-06,2.9692e-06,-1.01301e-05,3.00079e-05,9.4239e-06,0
-2.51833e-05,1.90138e-05,-5.54906e-06,9.30522e-06,5.72424e-06,-1.07379e-05,2.87978e-05,7.96405e-06,0
-2.58174e-05,1.82174e-05,-6.58859e-06,1.63123e-05,6.63796e-06,-1.22737e-05,3.09831e-05,7.49341e-06,0
-2.7406e-05,2.08559e-05,-7.49602e-06,1.85046e-05,6.49869e-06,-1.30643e-05,3.96428e-05,7.46248e-06,0
-2.94147e-05,2.76294e-05,-8.34117e-06,1.54581e-05,6.87461e-06,-1.38582e-05,4.94413e-05,7.62573e-06,0
-3.04858e-05,3.95154e-05,-7.89113e-06,7.68628e-06,6.21257e-06,-1.28989e-05,5.46149e-05,7.38251e-06,0
-3.04382e-05,5.00462e-05,-7.97633e-06,-1.7388e-06,2.87163e-06,-9.9709e-06,5.43202e-05,6.43359e-06,0
-3.06196e-05,5.12975e-05,-8.65883e-06,-1.10072e-05,5.8223e-09,-9.35155e-06,4.77412e-05,5.72383e-06,0
-3.01395e-05,4.62904e-05,-6.51568e-06,-2.42891e-05,3.37008e-07,-1.11968e-05,3.42769e-05,5.94595e-06,0
-2.91969e-05,3.82704e-05,-2.15977e-06,-3.69179e-05,1.04219e-06,-1.23713e-05,1.58121e-05,7.03787e-06,0
-2.86805e-05,3.50414e-05,7.07277e-07,-3.8115e-05,2.06244e-06,-1.21684e-05,-3.27372e-06,7.00274e-06,0
-2.85243e-05,4.46067e-05,-3.91313e-08,-2.59991e-05,3.49846e-06,-1.20543e-05,-2.04194e-05,5.45422e-06,0
-2.7821e-05,5.99339e-05,-2.77934e-06,-8.73852e-06,6.68294e-06,-1.40548e-05,-3.13908e-05,4.68467e-06,0
-2.73969e-05,6.69853e-05,-8.03412e-06,3.9282e-06,1.22344e-05,-1.58014e-05,-3.49175e-05,5.15082e-06,0
-2.69345e-05,6.17186e-05,-1.45826e-05,7.08138e-06,1.54841e-05,-1.43366e-05,-3.36722e-05,4.61458e-06,0
-2.51633e-05,4.67771e-05,-2.06633e-05,4.54879e-06,1.70045e-05,-1.23281e-05,-3.0072e-05,4.17872e-06,0
-2.3596e-05,2.31613e-05,-2.54186e-05,9.86551e-07,1.8682e-05,-1.28406e-05,-2.62067e-05,4.8699e-06,0
-2.48903e-05,-6.32983e-06,-2.72967e-05,-3.26108e-06,2.01345e-05,-1.47533e-05,-2.14382e-05,5.37239e-06,0
-2.88889e-05,-3.68939e-05,-2.44847e-05,-6.39834e-06,1.98225e-05,-1.6649e-05,-1.54189e-05,4.51817e-06,0
-3.25649e-05,-6.1679e-05,-1.86022e-05,-5.79513e-06,1.755e-05,-1.76136e-05,-1.03978e-05,3.64763e-06,0
-3.4987e-05,-7.83442e-05,-1.43345e-05,-1.28403e-06,1.47347e-05,-1.75078e-05,-6.23898e-06,4.35239e-06,0
-3.51082e-05,-8.67304e-05,-1.37198e-05,5.34403e-06,1.39318e-05,-1.75785e-05,-1.98244e-06,5.14283e-06,0
-3.30102e-05,-8.33924e-05,-1.39749e-05,1.15738e-05,1.51622e-05,-1.77696e-05,2.06094e-06,5.05566e-06,0
-2.98874e-05,-6.67429e-05,-1.10691e-05,1.18975e-05,1.65281e-05,-1.60459e-05,5.7417e-06,4.52511e-06,0
-2.78124e-05,-4.37169e-05,-6.79808e-06,3.08118e-06,1.60457e-05,-1.23822e-05,8.36925e-06,5.34958e-06,0
-2.77083e-05,-2.40646e-05,-4.64614e-06,-1.13241e-05,1.37448e-05,-1.02333e-05,1.04894e-05,8.15697e-06,0
-2.8281e-05,-1.21254e-05,-5.04358e-06,-2.22163e-05,1.21951e-05,-1.02731e-05,1.29113e-05,1.01556e-05,0
-2.84594e-05,-5.31799e-06,-6.31579e-06,-2.40153e-05,1.17998e-05,-1.11002e-05,1.4499e-05,7.84896e-06,0
-2.85026e-05,-4.18736e-07,-7.64907e-06,-2.02453e-05,1.20827e-05,-1.12141e-05,1.5279e-05,3.16481e-06,0
-2.89998e-05,2.92556e-06,-8.88162e-06,-1.77127e-05,1.36509e-05,-1.11636e-05,1.57421e-05,5.49025e-07,0
-2.99814e-05,5.653e-06,-8.64455e-06,-1.80027e-05,1.63847e-05,-1.16581e-05,1.56695e-05,1.1509e-06,0
-2.99562e-05,6.94353e-06,-7.00474e-06,-1.40681e-05,1.93291e-05,-1.21219e-05,1.58624e-05,2.24454e-06,0
-2.91223e-05,7.79549e-06,-5.13929e-06,-4.52207e-06,2.18041e-05,-1.26252e-05,1.69663e-05,2.83757e-06,0
-2.8451e-05,1.02325e-05,-4.65327e-06,2.8138e-06,2.10821e-05,-1.20407e-05,1.68527e-05,2.08463e-06,0
-2.85686e-05,1.10198e-05,-6.5504e-06,8.64539e-06,1.80709e-05,-9.55763e-06,1.51807e-05,7.99029e-07,0
-2.80623e-05,8.96925e-06,-7.49591e-06,1.23922e-05,1.74789e-05,-6.52851e-06,1.41362e-05,2.95353e-07,0
-2.66923e-05,8.56072e-06,-7.05242e-06,9.19826e-06,1.86766e-05,-6.42006e-06,1.31804e-05,-8.15454e-07,0
-2.75567e-05,1.10863e-05,-6.6278e-06,1.28456e-06,1.96687e-05,-9.19843e-06,1.13054e-05,-2.48733e-06,0
-2.9516e-05,1.43809e-05,-6.00262e-06,-7.66514e-06,2.00379e-05,-1.1272e-05,9.88843e-06,-3.22356e-06,0
-2.91812e-05,1.79024e-05,-4.95302e-06,-1.36006e-05,1.99217e-05,-1.07363e-05,1.07022e-05,-3.4258e-06,0
-2.81881e-05,2.00983e-05,-3.52493e-06,-1.55585e-05,1.96313e-05,-1.0174e-05,9.95406e-06,-2.52844e-06,0
-2.95047e-05,2.17276e-05,-2.17555e-06,-1.4833e-05,1.87815e-05,-1.0389e-05,5.72614e-06,-5.96576e-08,0
-3.06123e-05,2.44727e-05,-7.1156e-07,-1.36443e-05,1.80512e-05,-1.08764e-05,1.47316e-06,-4.97684e-07,0
-3.04413e-05,2.5374e-05,6.76135e-07,-1.2115e-05,1.80779e-05,-1.17231e-05,-3.61202e-07,-3.40975e-06,0
-2.92179e-05,2.33702e-05,4.95428e-07,-1.05176e-05,1.86645e-05,-1.11859e-05,2.77266e-07,-5.37232e-06,0
-2.92849e-05,2.2105e-05,-1.05464e-06,-9.0809e-06,1.86119e-05,-1.00915e-05,2.57426e-06,-5.17828e-06,0
-3.06854e-05,2.26186e-05,-2.0464e-06,-6.04315e-06,1.98894e-05,-9.80818e-06,7.13931e-06,-3.65546e-06,0
-3.14431e-05,2.2395e-05,-1.72492e-06,-1.12404e-06,2.25323e-05,-1.04823e-05,1.43205e-05,-2.01935e-06,0
-3.04508e-05,2.15936e-05,-7.50084e-07,3.84719e-06,2.32559e-05,-1.03303e-05,2.18818e-05,-2.56984e-06,0
-2.8769e-05,2.11869e-05,-1.11199e-06,6.19205e-06,2.12455e-05,-8.21798e-06,2.58986e-05,-3.93008e-06,0
-2.81645e-05,2.10266e-05,-3.43754e-06,5.65204e-06,1.93635e-05,-4.9599e-06,2.50664e-05,-2.88405e-06,0
-2.8744e-05,2.03364e-05,-6.96663e-06,2.88676e-06,1.83777e-05,-2.84627e-06,2.15946e-05,-6.89577e-07,0
-3.02213e-05,1.87824e-05,-9.72108e-06,1.78219e-07,1.58686e-05,-2.27688e-06,1.86839e-05,3.48696e-07,0
-3.04968e-05,1.95082e-05,-1.08835e-05,-5.01033e-07,1.27535e-05,-1.32618e-06,1.67306e-05,2.29548e-07,0
-2.94855e-05,2.40857e-05,-1.11599e-05,-3.6114e-07,1.17906e-05,-7.88717e-08,1.47833e-05,-2.98055e-07,0
-2.9171e-05,2.68611e-05,-1.25193e-05,-1.41109e-06,1.34147e-05,-9.56787e-07,1.54368e-05,-1.75007e-06,0
-2.97512e-05,2.49479e-05,-1.51861e-05,-2.09114e-06,1.58806e-05,-3.51089e-06,1.88557e-05,-4.25474e-06,0
-3.00046e-05,2.0724e-05,-1.92868e-05,-2.10794e-06,1.77484e-05,-5.46671e-06,2.06974e-05,-6.51141e-06,0
-3.0376e-05,1.80374e-05,-2.28993e-05,-2.24031e-06,1.84223e-05,-6.64324e-06,1.98613e-05,-7.17118e-06,0
-3.01118e-05,1.6261e-05,-2.21225e-05,-4.59749e-06,1.7951e-05,-7.99901e-06,1.80962e-05,-6.70715e-06,0
-2.9201e-05,1.46368e-05,-1.85468e-05,-8.57987e-06,1.72699e-05,-9.98653e-06,1.71869e-05,-6.41922e-06,0
-2.88182e-05,1.41178e-05,-1.48482e-05,-1.0924e-05,1.63069e-05,-1.16335e-05,1.62162e-05,-3.85896e-06,0
-2.89209e-05,1.39543e-05,-1.23646e-05,-1.28273e-05,1.4665e-05,-1.178e-05,1.50822e-05,7.10813e-07,0
-2.82514e-05,1.50085e-05,-1.12369e-05,-1.27842e-05,1.2197e-05,-1.19268e-05,1.41202e-05,1.75592e-06,0
-2.80833e-05,1.57659e-05,-1.14032e-05,-1.06013e-05,1.02899e-05,-1.36367e-05,1.33147e-05,4.79532e-08,0
-2.89017e-05,1.67071e-05,-1.1636e-05,-8.1911e-06,1.01548e-05,-1.5309e-05,1.32004e-05,-2.31842e-06,0
-2.95295e-05,1.76035e-05,-1.11311e-05,-6.49479e-06,9.38673e-06,-1.67533e-05,1.19312e-05,-2.05129e-06,0
-3.09786e-05,1.71919e-05,-1.14831e-05,-6.29974e-06,1.003e-05,-1.66423e-05,9.91601e-06,-4.40661e-07,0
-3.16163e-05,1.61182e-05,-1.24244e-05,-8.51797e-06,1.11828e-05,-1.60477e-05,9.29341e-06,-1.12682e-06,0
-2.9496e-05,1.50692e-05,-1.20613e-05,-1.18711e-05,1.13819e-05,-1.61524e-05,1.03919e-05,-3.44197e-06,0
-2.81755e-05,1.37898e-05,-1.00071e-05,-1.32937e-05,1.14376e-05,-1.64183e-05,1.11615e-05,-4.24153e-06,0
-2.92248e-05,1.22196e-05,-6.72661e-06,-6.61064e-06,1.3293e-05,-1.75578e-05,1.0939e-05,-2.9749e-06,0
-3.08987e-05,1.12899e-05,-4.18343e-06,1.0719e-05,1.68305e-05,-1.95953e-05,1.04388e-05,-2.20916e-06,0
-3.25531e-05,1.11313e-05,-3.30105e-06,2.84584e-05,1.82877e-05,-2.14415e-05,1.00364e-05,-1.96033e-06,0
-3.38863e-05,1.18e-05,-1.25174e-06,3.49438e-05,1.72006e-05,-2.19425e-05,1.1031e-05,-8.63329e-07,0
-3.50841e-05,1.36399e-05,3.108e-06,2.87617e-05,1.48363e-05,-2.10319e-05,1.61709e-05,6.16452e-07,0
-3.61567e-05,1.64326e-05,9.25007e-06,1.59323e-05,1.32744e-05,-1.92919e-05,2.41875e-05,4.09969e-07,0
-3.6129e-05,1.8972e-05,1.71497e-05,4.54868e-06,1.27563e-05,-1.79677e-05,2.97409e-05,-4.407e-07,0
-3.42011e-05,2.04413e-05,2.65071e-05,4.58755e-07,1.25157e-05,-1.62924e-05,3.15805e-05,-7.10685e-07,0
-3.18185e-05,2.08772e-05,3.648e-05,1.09702e-07,1.17265e-05,-1.36427e-05,3.10394e-05,-1.3268e-07,0
-3.03043e-05,2.00371e-05,4.39607e-05,-2.69723e-06,1.10792e-05,-1.16457e-05,2.88158e-05,1.27094e-06,0
-3.04386e-05,1.6659e-05,4.25586e-05,-9.08183e-06,1.11159e-05,-1.15031e-05,2.50418e-05,3.54898e-06,0
-3.11714e-05,1.26323e-05,2.93793e-05,-1.37733e-05,1.45667e-05,-1.1377e-05,2.03396e-05,4.31214e-06,0
-3.11531e-05,1.10595e-05,7.36759e-06,-1.37576e-05,2.0438e-05,-1.06671e-05,1.72564e-05,3.06202e-06,0
-3.01378e-05,1.2122e-05,-1.71987e-05,-1.07363e-05,2.49466e-05,-1.08101e-05,1.59519e-05,2.48174e-06,0
-2.92248e-05,1.36982e-05,-3.79478e-05,-7.01756e-06,2.47774e-05,-1.09896e-05,1.41526e-05,4.0276e-06,0
-2.95999e-05,1.42293e-05,-4.98693e-05,-2.23087e-06,2.04316e-05,-9.61899e-06,1.53935e-05,4.06835e-06,0
-2.94021e-05,1.19262e-05,-4.98346e-05,-4.07881e-07,1.63142e-05,-7.77305e-06,1.98067e-05,3.68627e-06,0
-3.02079e-05,8.9173e-06,-4.29994e-05,-1.8311e-06,1.49932e-05,-5.92659e-06,2.27139e-05,4.51103e-06,0
-3.10078e-05,1.08144e-05,-3.43955e-05,-2.84839e-06,1.92521e-05,-3.06555e-06,2.41598e-05,5.71209e-06,0
-2.88646e-05,1.72488e-05,-2.53948e-05,-7.56918e-06,2.56979e-05,-1.19471e-06,2.436e-05,6.42675e-06,0
-2.74053e-05,2.22629e-05,-1.88232e-05,-1.6103e-05,2.88847e-05,-1.60531e-06,2.35343e-05,5.92927e-06,0
-2.75079e-05,1.99485e-05,-1.34063e-05,-2.84477e-05,2.87295e-05,-3.16615e-06,2.00045e-05,5.73208e-06,0
-2.92646e-05,1.33301e-05,-6.95679e-06,-3.81091e-05,2.60702e-05,-4.98355e-06,1.29256e-05,3.71985e-06,0
-3.11859e-05,7.17698e-06,-2.41762e-06,-4.14325e-05,2.25749e-05,-5.08041e-06,5.39728e-06,2.02286e-06,0
-3.18124e-05,3.64754e-06,-1.61758e-06,-4.15393e-05,1.92825e-05,-4.72674e-06,-1.10092e-06,4.08124e-07,0
-3.00011e-05,2.78361e-06,-2.22356e-06,-4.20117e-05,1.62207e-05,-5.61617e-06,-6.8978e-06,-1.87133e-06,0
-2.76228e-05,3.32272e-06,-1.6052e-06,-4.33045e-05,1.52088e-05,-5.87032e-06,-1.17335e-05,-3.98781e-06,0
-2.70913e-05,3.36523e-06,-8.27932e-07,-4.30283e-05,1.52631e-05,-5.24247e-06,-1.39368e-05,-5.37701e-06,0
-2.7671e-05,2.5782e-06,-1.27632e-06,-4.03455e-05,1.54213e-05,-5.70926e-06,-1.24451e-05,-5.03375e-06,0
-2.93281e-05,4.65932e-06,-2.41409e-06,-3.21888e-05,1.59344e-05,-6.99692e-06,-8.79853e-06,-3.65629e-06,0
-3.02077e-05,1.01528e-05,-3.64613e-06,-1.79234e-05,1.53962e-05,-6.61659e-06,-5.79933e-06,-2.91787e-06,0
-3.09861e-05,1.41607e-05,-4.3986e-06,-1.72341e-06,1.22751e-05,-5.31686e-06,-5.52009e-06,-4.06756e-06,0
-3.24429e-05,1.19628e-05,-4.95356e-06,9.36571e-06,8.6814e-06,-4.84742e-06,-6.99951e-06,-5.94568e-06,0
-3.40967e-05,6.55997e-06,-5.19432e-06,1.51986e-05,7.64577e-06,-5.31106e-06,-7.12406e-06,-7.10603e-06,0
-3.50693e-05,1.72688e-06,-5.04933e-06,1.67037e-05,9.47802e-06,-5.93732e-06,-6.66827e-06,-6.67959e-06,0
-3.53873e-05,-1.94757e-06,-4.58338e-06,1.32003e-05,1.1487e-05,-6.63561e-06,-1.03778e-05,-5.61084e-06,0
-3.46293e-05,-4.27308e-06,-4.94595e-06,5.73994e-06,1.11745e-05,-6.62683e-06,-1.85903e-05,-4.16482e-06,0
-3.26822e-05,-3.34054e-06,-7.08035e-06,-1.45899e-06,9.33956e-06,-5.61194e-06,-2.35499e-05,-2.73781e-06,0
-3.17517e-05,1.17985e-06,-8.74587e-06,-6.49183e-06,6.09121e-06,-3.91486e-06,-1.95154e-05,-2.28756e-06,0
-3.39343e-05,7.69555e-06,-8.11254e-06,-9.14504e-06,2.78852e-06,-2.51154e-06,-9.58927e-06,-2.23802e-06,0
-3.68805e-05,1.81481e-05,-8.63131e-06,-8.8078e-06,2.68825e-06,-2.39535e-06,6.25771e-08,-2.2095e-06,0
-3.78547e-05,3.4202e-05,-1.29715e-05,-6.28795e-06,4.17707e-06,-2.76274e-06,7.2619e-06,-3.20014e-06,0
-3.60659e-05,4.69058e-05,-1.79251e-05,-4.31051e-06,4.76206e-06,-3.19672e-06,1.46825e-05,-4.16898e-06,0
-3.23307e-05,4.58819e-05,-2.05714e-05,-3.48345e-06,5.86955e-06,-2.92367e-06,2.1487e-05,-2.24282e-06,0
-2.94939e-05,4.30487e-05,-1.90165e-05,-2.36706e-06,5.89015e-06,-2.80578e-06,2.47405e-05,4.50492e-07,0
-2.90244e-05,4.31668e-05,-1.35324e-05,-2.02627e-06,6.06763e-06,-2.28683e-06,2.56662e-05,1.5358e-06,0
-2.91947e-05,3.36558e-05,-1.00187e-05,-4.84228e-07,9.34788e-06,-1.53711e-06,2.59944e-05,2.30697e-06,0
-2.98481e-05,1.74698e-05,-1.00452e-05,4.60413e-07,1.24494e-05,-2.6755e-06,2.70344e-05,2.43287e-06,0
-3.10741e-05,-1.99544e-06,-1.02692e-05,-1.25994e-06,1.11007e-05,-5.20867e-06,2.93278e-05,3.28799e-06,0
-3.13754e-05,-2.52041e-05,-1.06223e-05,-1.51672e-06,7.61759e-06,-8.07173e-06,3.22741e-05,5.28895e-06,0
-3.19808e-05,-4.42895e-05,-1.09657e-05,2.81227e-06,7.31086e-06,-9.80527e-06,3.2805e-05,5.91018e-06,0
-3.24266e-05,-4.88768e-05,-1.05062e-05,1.04668e-05,9.78373e-06,-9.87771e-06,2.9205e-05,5.6333e-06,0
-3.16876e-05,-4.51133e-05,-9.89598e-06,2.08413e-05,1.2345e-05,-9.88565e-06,2.27706e-05,7.14735e-06,0
-3.1352e-05,-4.45356e-05,-1.00402e-05,2.74612e-05,1.32616e-05,-1.1731e-05,1.79955e-05,8.64925e-06,0
-3.19062e-05,-4.82505e-05,-1.05919e-05,2.31179e-05,1.28768e-05,-1.41853e-05,1.94128e-05,9.35e-06,0
-3.21751e-05,-5.31523e-05,-9.92993e-06,1.1355e-05,1.26387e-05,-1.58299e-05,2.45034e-05,9.33644e-06,0
-3.29384e-05,-5.22927e-05,-7.89669e-06,1.95731e-07,1.32394e-05,-1.67437e-05,2.70835e-05,8.57786e-06,0
-3.45418e-05,-3.83091e-05,-6.53364e-06,-6.15717e-06,1.27861e-05,-1.68264e-05,2.57989e-05,8.24096e-06,0
-3.58145e-05,-1.01967e-05,-8.33754e-06,-8.51132e-06,1.01221e-05,-1.6189e-05,2.38602e-05,7.98774e-06,0
-3.4785e-05,1.81073e-05,-1.1123e-05,-9.46829e-06,8.06602e-06,-1.50221e-05,2.26294e-05,8.3746e-06,0
-3.30548e-05,3.46802e-05,-1.17886e-05,-1.12082e-05,8.32115e-06,-1.41056e-05,2.12223e-05,8.37615e-06,0
-3.26118e-05,3.90745e-05,-1.09226e-05,-1.27418e-05,8.75581e-06,-1.28587e-05,1.84869e-05,7.26527e-06,0
-3.17429e-05,3.49002e-05,-8.78617e-06,-1.22344e-05,7.91e-06,-1.02679e-05,1.50815e-05,5.92388e-06,0
-2.90249e-05,2.18004e-05,-6.6285e-06,-1.13112e-05,6.86309e-06,-8.75229e-06,1.28873e-05,5.92565e-06,0
-2.73331e-05,1.4683e-06,-7.40164e-06,-1.19854e-05,7.68586e-06,-9.82101e-06,1.40928e-05,6.32969e-06,0
-2.75691e-05,-1.849e-05,-1.15784e-05,-1.26178e-05,9.99168e-06,-1.0988e-05,1.70969e-05,6.12792e-06,0
-2.77155e-05,-2.85043e-05,-1.48041e-05,-1.30389e-05,1.1403e-05,-1.08666e-05,1.77845e-05,5.24984e-06,0
-2.8218e-05,-2.34002e-05,-1.33236e-05,-1.15647e-05,1.11759e-05,-9.62566e-06,1.48198e-05,4.58392e-06,0
-2.72947e-05,-1.12056e-05,-8.44121e-06,-8.75652e-06,9.81284e-06,-8.32613e-06,1.17432e-05,5.08717e-06,0
-2.6944e-05,-1.35351e-06,-3.61658e-06,-6.76318e-06,9.52934e-06,-7.87119e-06,1.06319e-05,6.93467e-06,0
-2.80431e-05,5.69959e-06,-1.92268e-06,-4.52752e-06,9.6038e-06,-8.8218e-06,9.21042e-06,7.18369e-06,0
-2.92639e-05,1.55867e-05,-2.25351e-06,1.29832e-06,1.00393e-05,-1.08622e-05,6.55618e-06,4.75548e-06,0
-3.11489e-05,2.82488e-05,-2.36116e-06,1.00232e-05,1.15686e-05,-1.21225e-05,5.95657e-06,3.37967e-06,0
-2.98948e-05,3.77255e-05,-3.06485e-06,1.2983e-05,1.29415e-05,-1.10858e-05,7.5597e-06,2.93425e-06,0
-2.68457e-05,4.22566e-05,-5.42655e-06,9.58676e-06,1.27662e-05,-9.29478e-06,8.35546e-06,1.9446e-06,0
-2.45599e-05,4.38055e-05,-1.02215e-05,2.25097e-06,1.1339e-05,-9.7323e-06,9.23767e-06,8.79082e-07,0
-2.34197e-05,4.58416e-05,-1.57573e-05,-5.78414e-06,1.01886e-05,-1.21722e-05,1.02207e-05,1.79831e-06,0
-2.33938e-05,4.67221e-05,-1.99e-05,-1.07048e-05,8.32622e-06,-1.39378e-05,1.09836e-05,3.29822e-06,0
-2.28215e-05,4.62465e-05,-2.04342e-05,-1.46597e-05,4.94828e-06,-1.26896e-05,1.1991e-05,4.30287e-06,0
-2.34528e-05,4.58387e-05,-1.846e-05,-1.70087e-05,2.31044e-06,-1.00388e-05,1.2796e-05,5.79417e-06,0
-2.63131e-05,4.57866e-05,-1.54021e-05,-1.60012e-05,4.08481e-06,-9.05983e-06,1.22604e-05,7.18492e-06,0
-2.82444e-05,4.55698e-05,-1.12736e-05,-1.08946e-05,9.28325e-06,-9.46219e-06,1.11188e-05,7.60853e-06,0
-2.67331e-05,4.53751e-05,-7.25884e-06,-2.92747e-06,1.6072e-05,-9.59184e-06,1.00149e-05,6.13889e-06,0
-2.51937e-05,4.6207e-05,-5.03062e-06,3.46376e-06,2.37262e-05,-8.74722e-06,5.94954e-06,4.14718e-06,0
-2.59015e-05,4.66457e-05,-4.57121e-06,2.80657e-06,2.86888e-05,-6.84657e-06,-2.17701e-06,3.13515e-06,0
-2.70579e-05,4.62279e-05,-4.37989e-06,-4.97028e-06,2.61353e-05,-4.9319e-06,-8.28952e-06,3.18567e-06,0
-2.68491e-05,4.50576e-05,-4.15197e-06,-1.28192e-05,1.79554e-05,-4.59926e-06,-8.1877e-06,3.30261e-06,0
-2.63506e-05,4.58724e-05,-3.82914e-06,-1.29261e-05,1.19614e-05,-6.09474e-06,-7.44479e-06,3.04512e-06,0
-2.72259e-05,4.72981e-05,-4.05217e-06,-6.37326e-06,1.18057e-05,-7.78151e-06,-1.40105e-05,3.35847e-06,0
-2.82039e-05,4.87347e-05,-4.34042e-06,-6.07563e-07,1.55394e-05,-7.55117e-06,-2.17351e-05,3.61861e-06,0
-2.73884e-05,5.24069e-05,-4.05783e-06,1.25948e-06,1.94641e-05,-5.76162e-06,-1.51546e-05,3.21686e-06,0
-2.55797e-05,5.80698e-05,-3.53442e-06,1.46148e-06,2.18256e-05,-4.47378e-06,7.54766e-06,2.96027e-06,0
-2.50563e-05,5.96701e-05,-4.11294e-06,3.34713e-06,2.21574e-05,-3.6461e-06,3.41222e-05,1.77416e-06,0
-2.69574e-05,5.44993e-05,-5.9547e-06,3.89619e-06,2.21334e-05,-1.87505e-06,5.15925e-05,-3.31308e-07,0
-2.91293e-05,4.98071e-05,-8.14556e-06,1.48779e-06,2.17729e-05,-1.06275e-06,5.81327e-05,-1.80577e-06,0
-2.97117e-05,5.16546e-05,-8.59394e-06,7.7418e-07,1.84404e-05,-3.34163e-06,5.84877e-05,-2.92315e-06,0
-2.91643e-05,5.87974e-05,-8.25307e-06,1.73642e-06,1.41489e-05,-5.61882e-06,5.58637e-05,-4.32985e-06,0
-2.80124e-05,6.9335e-05,-8.99826e-06,3.08714e-06,1.25373e-05,-6.82992e-06,5.16237e-05,-4.8261e-06,0
-2.75346e-05,7.90233e-05,-1.08927e-05,6.83597e-06,1.26643e-05,-8.31657e-06,4.43446e-05,-2.69673e-06,0
-2.66929e-05,7.88728e-05,-1.09055e-05,9.54705e-06,1.25376e-05,-9.13205e-06,3.6316e-05,-6.13905e-07,0
-2.58623e-05,6.52153e-05,-8.97951e-06,1.22516e-05,1.28523e-05,-9.47141e-06,3.07566e-05,-1.8283e-06,0
-2.91351e-05,4.10036e-05,-8.29943e-06,1.82617e-05,1.29433e-05,-9.2608e-06,2.65409e-05,-4.41996e-06,0
-3.36495e-05,9.98998e-06,-7.79625e-06,2.4593e-05,1.14117e-05,-8.57406e-06,2.28145e-05,-5.39335e-06,0
-3.47428e-05,-2.47808e-05,-6.70028e-06,2.59026e-05,1.01247e-05,-8.59436e-06,2.05157e-05,-6.14862e-06,0
-3.35906e-05,-5.47774e-05,-5.77182e-06,1.93598e-05,1.0817e-05,-8.65497e-06,1.95839e-05,-7.95753e-06,0
-3.07197e-05,-7.03743e-05,-5.09624e-06,7.76927e-06,1.1259e-05,-8.35047e-06,1.87269e-05,-8.68443e-06,0
-2.91472e-05,-7.41009e-05,-5.60203e-06,-3.4262e-06,1.03637e-05,-8.83679e-06,1.58709e-05,-6.43739e-06,0
-3.19261e-05,-7.12125e-05,-7.19479e-06,-1.19627e-05,8.58174e-06,-9.82527e-06,1.13863e-05,-3.67872e-06,0
-3.67485e-05,-6.05887e-05,-7.59766e-06,-2.02405e-05,6.76819e-06,-1.06903e-05,9.86051e-06,-3.61318e-06,0
-3.82431e-05,-4.39383e-05,-7.02129e-06,-2.64118e-05,5.05313e-06,-1.32323e-05,1.05594e-05,-5.8159e-06,0
-3.54189e-05,-2.65354e-05,-4.22874e-06,-2.9098e-05,3.32686e-06,-1.62167e-05,9.00683e-06,-7.43876e-06,0
-3.2021e-05,-1.14624e-05,-2.06628e-07,-3.00533e-05,2.6228e-06,-1.59038e-05,5.66583e-06,-7.49577e-06,0
-3.07269e-05,-1.26804e-07,6.6479e-07,-3.00229e-05,2.35949e-06,-1.36663e-05,3.21293e-06,-6.55637e-06,0
-3.12225e-05,4.59969e-06,-3.05744e-06,-2.76133e-05,1.62714e-06,-1.27031e-05,1.07074e-06,-4.58013e-06,0
-3.14327e-05,3.35367e-06,-7.03941e-06,-2.49065e-05,6.47752e-07,-1.40208e-05,-1.22082e-06,-3.92356e-06,0
-3.03219e-05,-3.02782e-08,-7.73288e-06,-2.60068e-05,3.07273e-07,-1.49935e-05,-1.85521e-06,-5.05134e-06,0
-2.85883e-05,-9.67171e-07,-6.57838e-06,-2.95492e-05,5.68572e-07,-1.2902e-05,-8.18424e-07,-5.22898e-06,0
-2.79894e-05,1.89906e-06,-6.45878e-06,-2.91673e-05,1.50341e-06,-1.05836e-05,-1.32782e-08,-3.68659e-06,0
-2.92465e-05,7.10901e-06,-8.10455e-06,-2.15226e-05,2.74654e-06,-1.11865e-05,3.51102e-07,-2.26464e-06,0
-3.07621e-05,1.27418e-05,-1.02993e-05,-9.89514e-06,2.69663e-06,-1.34092e-05,2.50567e-07,-2.01289e-06,0
-3.12652e-05,1.53149e-05,-1.21297e-05,1.81823e-06,2.39168e-06,-1.38551e-05,-6.74094e-08,-1.46624e-06,0
-3.06928e-05,1.49803e-05,-1.23703e-05,1.24062e-05,5.69986e-06,-1.17036e-05,1.46081e-06,-8.80856e-07,0
-2.82054e-05,1.35631e-05,-1.24603e-05,1.99004e-05,1.0196e-05,-9.69142e-06,3.93779e-06,-2.29165e-06,0
-2.69016e-05,1.12474e-05,-1.36435e-05,1.90034e-05,1.14195e-05,-9.46983e-06,6.31508e-06,-3.52318e-06,0
-2.81734e-05,1.10637e-05,-1.42605e-05,1.08862e-05,9.53791e-06,-1.01685e-05,7.52526e-06,-3.26155e-06,0
-2.94867e-05,1.36712e-05,-1.37441e-05,2.74781e-06,7.02336e-06,-1.07813e-05,8.2968e-06,-2.63883e-06,0
-2.89385e-05,1.64614e-05,-1.28008e-05,-2.53989e-06,4.42568e-06,-1.15679e-05,9.18439e-06,-2.71052e-06,0
-2.70616e-05,1.86923e-05,-1.17098e-05,-4.34716e-06,3.10818e-06,-1.14581e-05,9.66363e-06,-3.63071e-06,0
-2.66527e-05,2.21126e-05,-1.23537e-05,-1.91908e-06,3.63913e-06,-1.07013e-05,9.88276e-06,-3.89754e-06,0
-2.69335e-05,2.48567e-05,-1.52265e-05,2.14865e-06,4.30256e-06,-1.03838e-05,1.25227e-05,-3.72559e-06,0
-2.67148e-05,2.57975e-05,-1.61955e-05,6.30369e-06,4.57577e-06,-1.03983e-05,1.608e-05,-2.89175e-06,0
-2.64972e-05,2.76295e-05,-1.35203e-05,6.12178e-06,5.93384e-06,-1.16867e-05,1.39634e-05,-1.10722e-06,0
-2.68072e-05,3.00287e-05,-1.01723e-05,-3.0449e-06,8.75985e-06,-1.31087e-05,1.30526e-05,-1.20348e-07,0
-2.6606e-05,3.1896e-05,-8.34539e-06,-1.79521e-05,1.09143e-05,-1.22229e-05,1.8741e-05,7.04111e-08,0
-2.65549e-05,3.11516e-05,-8.70323e-06,-3.18942e-05,1.20656e-05,-8.57443e-06,2.74558e-05,9.96003e-07,0
-2.79745e-05,2.8046e-05,-9.9613e-06,-4.14052e-05,1.15058e-05,-4.6825e-06,3.50055e-05,2.23096e-06,0
-2.91481e-05,2.50742e-05,-9.90427e-06,-4.90859e-05,1.11563e-05,-3.00239e-06,3.85957e-05,1.62193e-06,0
-2.91334e-05,2.47415e-05,-8.85296e-06,-5.38523e-05,1.21087e-05,-3.63522e-06,3.5504e-05,-5.25957e-07,0
-2.86998e-05,2.68247e-05,-7.99551e-06,-5.13139e-05,1.32331e-05,-4.65512e-06,2.42621e-05,-8.68771e-07,0
-2.85921e-05,2.90874e-05,-7.95398e-06,-4.12282e-05,1.26209e-05,-5.12346e-06,9.22613e-06,1.51879e-06,0
-2.83831e-05,2.99799e-05,-8.00452e-06,-2.79955e-05,1.07083e-05,-5.01673e-06,-2.60512e-06,3.57336e-06,0
-2.87618e-05,2.96697e-05,-5.09378e-06,-1.55541e-05,9.57842e-06,-4.84865e-06,-6.98145e-06,2.89066e-06,0
-3.00209e-05,2.84381e-05,1.70344e-07,-4.43572e-06,1.07457e-05,-4.88589e-06,-5.87531e-06,1.82153e-06,0
-3.077e-05,2.61541e-05,3.77453e-06,9.26004e-06,1.3449e-05,-4.77953e-06,-3.05286e-06,2.40324e-06,0
-3.03785e-05,2.42628e-05,5.39533e-06,2.88279e-05,1.60985e-05,-4.67228e-06,6.51983e-08,3.47317e-06,0
-3.02355e-05,2.27809e-05,6.48508e-06,5.07167e-05,1.77588e-05,-4.8874e-06,5.89671e-06,3.61365e-06,0
-3.1435e-05,2.08279e-05,5.81874e-06,6.72794e-05,1.71153e-05,-4.7598e-06,1.34942e-05,2.75807e-06,0
-3.28851e-05,2.06452e-05,3.63606e-06,6.94361e-05,1.70828e-05,-4.10785e-06,1.98896e-05,1.53241e-06,0
-3.23384e-05,2.23007e-05,1.52586e-08,5.41484e-05,1.97033e-05,-3.63412e-06,2.38291e-05,4.99171e-07,0
-3.06467e-05,2.38312e-05,-6.71319e-06,3.04129e-05,2.3171e-05,-3.29144e-06,2.50361e-05,1.54305e-06,0
-3.06054e-05,2.1955e-05,-1.30162e-05,8.60937e-06,2.47171e-05,-5.18127e-06,2.2394e-05,3.18328e-06,0
-3.10682e-05,1.65959e-05,-1.50774e-05,-1.9571e-06,2.30652e-05,-7.67306e-06,1.75426e-05,3.72371e-06,0
-3.1535e-05,1.56119e-05,-1.31719e-05,-2.06402e-06,2.03788e-05,-8.98778e-06,1.28571e-05,5.84014e-06,0
-3.09725e-05,1.57295e-05,-4.77236e-06,-5.53531e-07,1.89963e-05,-9.81676e-06,9.46775e-06,7.84441e-06,0
-2.94114e-05,1.24249e-05,9.69642e-06,1.16196e-06,2.00479e-05,-9.89868e-06,9.39498e-06,8.6253e-06,0
-3.07878e-05,9.65697e-06,2.51177e-05,1.17998e-06,2.28595e-05,-9.90675e-06,1.00832e-05,8.54432e-06,0
-3.31308e-05,8.781e-06,4.00125e-05,1.30439e-06,2.48274e-05,-1.12821e-05,1.00238e-05,8.30664e-06,0
-3.34385e-05,1.03981e-05,4.82001e-05,1.54583e-06,2.42779e-05,-1.25528e-05,8.56853e-06,8.2791e-06,0
-3.29155e-05,1.09473e-05,4.16772e-05,2.94012e-06,2.22927e-05,-1.03781e-05,6.73065e-06,6.98739e-06,0
-3.14488e-05,7.37005e-06,2.13231e-05,2.96848e-06,2.09435e-05,-6.41399e-06,8.05808e-06,5.29839e-06,0
-2.93568e-05,2.42006e-06,-7.68527e-06,-1.07673e-06,1.99922e-05,-4.54727e-06,1.15633e-05,2.2044e-06,0
-2.8866e-05,6.95502e-08,-3.94422e-05,-6.69298e-06,2.05612e-05,-6.77817e-06,1.35998e-05,-4.1449e-07,0
-3.0201e-05,7.64236e-08,-6.48122e-05,-1.18121e-05,2.18549e-05,-9.21641e-06,1.347e-05,-1.71385e-06,0
-3.18015e-05,8.14232e-07,-7.70637e-05,-1.57713e-05,2.19838e-05,-8.27675e-06,1.33567e-05,-2.90921e-06,0
-3.16094e-05,3.75179e-06,-7.66809e-05,-2.20282e-05,2.12835e-05,-5.94022e-06,1.36465e-05,-3.42015e-06,0
-2.98754e-05,9.986e-06,-6.76664e-05,-3.28792e-05,2.07534e-05,-5.10435e-06,1.21447e-05,-2.80482e-06,0
-2.90068e-05,1.67159e-05,-5.54695e-05,-4.61605e-05,1.93775e-05,-5.57766e-06,8.92897e-06,-3.24012e-06,0
-2.93164e-05,1.98901e-05,-4.46336e-05,-5.3789e-05,1.65702e-05,-5.76099e-06,6.49524e-06,-5.51448e-06,0
-3.02615e-05,1.82506e-05,-3.6677e-05,-5.33885e-05,1.36615e-05,-5.86354e-06,7.55513e-06,-6.9341e-06,0
-3.1972e-05,1.2553e-05,-2.92148e-05,-4.90743e-05,1.23019e-05,-5.80101e-06,1.23088e-05,-6.44153e-06,0
-3.34558e-05,7.35815e-06,-2.08241e-05,-4.66805e-05,1.29786e-05,-5.8474e-06,1.80649e-05,-5.65164e-06,0
-3.35061e-05,1.07691e-05,-1.34719e-05,-4.4415e-05,1.44013e-05,-6.75741e-06,2.30897e-05,-6.59457e-06,0
-3.2835e-05,2.24003e-05,-8.59329e-06,-3.51789e-05,1.53069e-05,-6.97954e-06,2.76062e-05,-8.5835e-06,0
-3.32225e-05,3.15507e-05,-6.85359e-06,-1.29114e-05,1.50613e-05,-5.61143e-06,3.17554e-05,-1.01154e-05,0
-3.36981e-05,3.27794e-05,-8.04e-06,1.94887e-05,1.51312e-05,-3.36685e-06,3.19752e-05,-9.33702e-06,0
-3.20197e-05,2.7178e-05,-9.6249e-06,4.93547e-05,1.65098e-05,-1.78471e-06,2.57817e-05,-7.32955e-06,0
-3.10353e-05,1.49865e-05,-9.82211e-06,6.29642e-05,1.92311e-05,-3.52285e-06,2.05183e-05,-5.63989e-06,0
-3.16182e-05,-2.06305e-06,-6.93543e-06,5.22977e-05,2.19934e-05,-6.46113e-06,2.22138e-05,-4.22345e-06,0
-3.10121e-05,-9.79356e-06,-2.37564e-06,2.58802e-05,2.36361e-05,-7.70331e-06,2.49972e-05,-3.08663e-06,0
-2.90057e-05,-2.73025e-06,3.1387e-07,4.78974e-06,2.36522e-05,-7.8312e-06,2.3837e-05,-2.36615e-06,0
-2.75021e-05,6.43879e-06,-8.04908e-07,-3.73079e-06,2.35467e-05,-8.88834e-06,1.8204e-05,-2.71024e-06,0
-2.73502e-05,8.64579e-06,-3.23098e-06,-8.18244e-06,2.23252e-05,-1.0763e-05,1.10703e-05,-3.98432e-06,0
-3.01706e-05,2.77283e-06,-2.80653e-06,-1.58255e-05,2.18743e-05,-1.11115e-05,6.10542e-06,-3.31508e-06,0
-3.27311e-05,-3.74172e-06,-1.71768e-06,-2.48411e-05,2.22199e-05,-1.17736e-05,5.02044e-06,-1.44289e-06,0
-3.15458e-05,-6.56326e-06,-3.9645e-07,-2.56001e-05,2.08252e-05,-1.37127e-05,6.95586e-06,-6.02752e-07,0
-3.01755e-05,-6.57914e-06,1.20349e-06,-1.67124e-05,2.03256e-05,-1.38668e-05,8.1235e-06,1.23075e-06,0
-3.01514e-05,-6.79278e-06,1.95547e-06,-6.30711e-06,2.08437e-05,-1.32908e-05,8.49868e-06,4.11318e-06,0
-3.10054e-05,-1.03165e-05,2.01383e-06,7.56458e-07,2.10197e-05,-1.33664e-05,8.04304e-06,5.20734e-06,0
-3.26167e-05,-1.80897e-05,2.25001e-06,4.88637e-06,2.00273e-05,-1.4558e-05,6.71459e-06,5.02716e-06,0
-3.46732e-05,-2.61683e-05,1.62554e-06,5.74588e-06,1.88087e-05,-1.61073e-05,5.57621e-06,5.26477e-06,0
-3.54485e-05,-2.73718e-05,-1.35951e-06,3.8589e-06,1.76633e-05,-1.5728e-05,5.6194e-06,5.18676e-06,0
-3.48441e-05,-2.12942e-05,-5.49866e-06,1.3967e-06,1.74979e-05,-1.32168e-05,7.65655e-06,4.18131e-06,0
-3.46445e-05,-1.17869e-05,-9.03209e-06,-2.68063e-07,1.75936e-05,-1.03382e-05,1.15721e-05,3.50369e-06,0
-3.51182e-05,-2.88072e-06,-1.00201e-05,-1.33729e-06,1.80942e-05,-9.32219e-06,1.48372e-05,2.93723e-06,0
-3.50016e-05,3.74673e-06,-8.02037e-06,-1.50332e-06,2.01132e-05,-9.41135e-06,1.35084e-05,1.38909e-06,0
-3.44559e-05,7.58622e-06,-4.61361e-06,-1.22678e-06,2.14943e-05,-9.72646e-06,7.96784e-06,8.01385e-07,0
-3.45332e-05,9.15314e-06,-2.0368e-06,-1.69903e-06,2.04004e-05,-1.07441e-05,3.88634e-06,1.73513e-06,0
-3.50519e-05,9.7665e-06,-1.77629e-08,-3.42601e-06,1.75671e-05,-1.34772e-05,6.90503e-06,2.89206e-06,0
-3.4923e-05,1.10287e-05,1.15019e-06,-1.3541e-06,1.50636e-05,-1.57187e-05,1.65808e-05,3.14985e-06,0
-3.39871e-05,1.36155e-05,1.39816e-06,1.23909e-05,1.21622e-05,-1.53083e-05,2.49109e-05,2.69426e-06,0
-3.28306e-05,1.53989e-05,2.82045e-06,3.1881e-05,8.58255e-06,-1.43097e-05,2.59148e-05,9.80381e-07,0
