ch1,ch2,ch3,ch4,ch5,ch6,ch7,ch8,class
-2.95625e-05,2.49038e-05,2.44328e-05,-3.49999e-05,1.44248e-05,-8.1715e-06,1.45304e-06,1.07264e-06,0
-3.29934e-05,2.14894e-05,3.24452e-05,-4.62985e-05,1.39713e-05,-9.25392e-06,-7.93935e-07,1.52797e-06,0
-3.3948e-05,1.59612e-05,4.12481e-05,-4.54621e-05,1.57296e-05,-1.22951e-05,-1.64478e-06,-5.91758e-07,0
-3.23846e-05,1.22017e-05,4.3287e-05,-3.68604e-05,1.96902e-05,-1.25301e-05,3.73958e-07,-4.01571e-06,0
-3.22335e-05,6.33569e-06,3.09358e-05,-3.60044e-05,2.42187e-05,-9.43441e-06,5.85886e-06,-6.69291e-06,0
-3.38416e-05,4.16425e-07,6.90421e-06,-4.10464e-05,2.5669e-05,-6.00044e-06,1.17073e-05,-5.72168e-06,0
-3.49576e-05,-1.43924e-06,-1.73487e-05,-3.15056e-05,2.38684e-05,-4.53763e-06,1.34139e-05,-2.57045e-06,0
-3.44992e-05,8.32848e-07,-3.46226e-05,-4.72284e-06,2.08934e-05,-5.32672e-06,1.10139e-05,-1.60149e-06,0
-3.2613e-05,6.08605e-06,-4.33828e-05,1.99859e-05,1.93468e-05,-6.30097e-06,8.13169e-06,-2.67776e-06,0
-3.14875e-05,1.13217e-05,-4.20416e-05,3.58824e-05,2.04812e-05,-6.81541e-06,6.00684e-06,-4.46425e-06,0
-3.2705e-05,1.3706e-05,-3.2325e-05,4.76638e-05,2.39645e-05,-6.23959e-06,5.70815e-06,-5.52767e-06,0
-3.44307e-05,1.2639e-05,-2.19638e-05,5.54132e-05,2.63522e-05,-5.59764e-06,6.64733e-06,-4.71228e-06,0
-3.42414e-05,1.07972e-05,-1.54661e-05,5.90183e-05,2.507e-05,-5.38671e-06,7.74158e-06,-2.54643e-06,0
-3.2948e-05,9.8441e-06,-1.13075e-05,6.23326e-05,2.18415e-05,-4.06081e-06,9.18296e-06,-1.31693e-06,0
-3.30811e-05,1.01891e-05,-7.71001e-06,6.15729e-05,1.94413e-05,-2.98098e-06,1.00977e-05,-3.67104e-07,0
-3.46628e-05,1.09811e-05,-5.16544e-06,5.16356e-05,1.90172e-05,-3.03375e-06,1.03953e-05,-2.44774e-07,0
-3.51269e-05,1.11962e-05,-5.32053e-06,4.48453e-05,1.84705e-05,-3.18062e-06,1.11867e-05,-1.73281e-06,0
-3.36565e-05,1.04772e-05,-7.88954e-06,5.07168e-05,1.72835e-05,-3.69041e-06,1.15631e-05,-3.80665e-06,0
-3.25522e-05,1.01839e-05,-1.29039e-05,5.82373e-05,1.60134e-05,-4.87324e-06,1.14157e-05,-4.70903e-06,0
-3.35499e-05,1.04223e-05,-1.89256e-05,5.18775e-05,1.55056e-05,-6.11266e-06,1.26188e-05,-4.68358e-06,0
-3.5911e-05,9.83096e-06,-2.34643e-05,2.90394e-05,1.48863e-05,-6.85533e-06,1.36008e-05,-4.55373e-06,0
-3.76822e-05,8.42603e-06,-2.62035e-05,-1.79257e-07,1.36968e-05,-6.80187e-06,1.30257e-05,-3.69108e-06,0
-3.76993e-05,7.3364e-06,-2.80024e-05,-2.60646e-05,1.24149e-05,-6.18565e-06,1.28688e-05,-2.26219e-06,0
-3.71212e-05,7.35436e-06,-2.89872e-05,-5.24409e-05,1.15205e-05,-5.29927e-06,1.40715e-05,-1.26201e-06,0
-3.67476e-05,7.38254e-06,-2.8581e-05,-8.72927e-05,1.01845e-05,-5.23231e-06,1.52614e-05,-9.4837e-07,0
-3.6318e-05,7.1611e-06,-2.67702e-05,-0.000122644,7.46591e-06,-5.80908e-06,1.57954e-05,1.43389e-06,0
-3.58847e-05,9.65348e-06,-2.60258e-05,-0.000148407,5.02546e-06,-6.17296e-06,1.62546e-05,4.67899e-06,0
-3.52596e-05,1.27822e-05,-2.61728e-05,-0.000164445,4.60542e-06,-6.46636e-06,1.60201e-05,4.68601e-06,0
-3.51059e-05,1.38036e-05,-2.2328e-05,-0.000169506,7.46118e-06,-6.8095e-06,1.51085e-05,1.25279e-06,0
-3.53115e-05,1.6296e-05,-1.4517e-05,-0.000152943,1.14863e-05,-7.08144e-06,1.40255e-05,3.79132e-07,0
-3.46044e-05,2.00002e-05,-6.61362e-06,-0.000108807,1.37535e-05,-6.87971e-06,1.38584e-05,3.27869e-06,0
-3.37087e-05,2.27468e-05,5.06534e-08,-3.68954e-05,1.3247e-05,-7.42535e-06,1.52387e-05,5.09766e-06,0
-3.29659e-05,2.42483e-05,1.43663e-06,3.55033e-05,1.26758e-05,-8.97608e-06,1.58424e-05,5.01928e-06,0
-3.20789e-05,2.38569e-05,-2.00212e-06,7.80883e-05,1.5387e-05,-9.87838e-06,1.59913e-05,4.13239e-06,0
-3.18409e-05,2.36837e-05,-3.41188e-06,8.76631e-05,1.78894e-05,-9.75767e-06,1.68943e-05,2.66213e-06,0
-3.09768e-05,2.45183e-05,-1.51925e-06,7.16148e-05,1.73038e-05,-9.61389e-06,1.80251e-05,1.07608e-06,0
-3.00888e-05,2.42329e-05,2.25588e-06,5.86475e-05,1.67151e-05,-8.4462e-06,1.75471e-05,1.05803e-06,0
-2.91247e-05,2.28757e-05,5.64084e-06,6.2994e-05,1.92213e-05,-6.68177e-06,1.68997e-05,1.96066e-06,0
-2.80062e-05,2.20485e-05,8.65189e-06,8.53047e-05,2.46146e-05,-5.59465e-06,1.80321e-05,3.10439e-06,0
-2.73242e-05,2.24073e-05,1.05145e-05,0.000108053,3.07505e-05,-4.56861e-06,2.05195e-05,3.47393e-06,0
-2.66096e-05,2.23955e-05,1.08768e-05,0.000105872,3.2518e-05,-4.46577e-06,2.21967e-05,2.21228e-06,0
-2.61126e-05,2.13531e-05,1.06858e-05,7.71003e-05,2.96289e-05,-4.63462e-06,2.13229e-05,3.67961e-07,0
-2.54132e-05,2.09564e-05,8.74135e-06,4.80619e-05,2.62983e-05,-4.51266e-06,1.85242e-05,-1.10102e-06,0
-2.53294e-05,2.45209e-05,5.91027e-06,3.93583e-05,2.39097e-05,-4.39352e-06,1.59556e-05,-1.43657e-06,0
-2.65158e-05,3.31063e-05,4.09865e-06,4.24657e-05,2.14258e-05,-3.83321e-06,1.57475e-05,-4.82689e-07,0
-2.79484e-05,4.26433e-05,3.02171e-06,4.5763e-05,1.83786e-05,-2.58225e-06,1.6357e-05,1.48774e-06,0
-2.78725e-05,4.78848e-05,2.3132e-06,4.36102e-05,1.55718e-05,-1.56442e-06,1.66583e-05,3.6274e-06,0
-2.66347e-05,4.84392e-05,2.88965e-06,3.53977e-05,1.38334e-05,-2.46029e-06,1.65816e-05,4.4633e-06,0
-2.59037e-05,4.94712e-05,3.69761e-06,1.74558e-05,1.36126e-05,-4.06071e-06,1.62922e-05,3.15441e-06,0
-2.68396e-05,5.27355e-05,3.70722e-06,-7.13407e-06,1.23578e-05,-4.82636e-06,1.55828e-05,1.61069e-06,0
-2.86307e-05,5.35718e-05,3.09302e-06,-2.93282e-05,1.04104e-05,-5.70219e-06,1.49008e-05,1.31738e-06,0
-3.00747e-05,5.00422e-05,2.56725e-06,-3.76562e-05,9.15429e-06,-7.53601e-06,1.08196e-05,1.59113e-06,0
-3.08571e-05,4.28278e-05,1.9098e-06,-3.62238e-05,7.61002e-06,-8.67107e-06,2.57647e-06,9.13561e-07,0
-3.04627e-05,2.87113e-05,1.17921e-06,-3.89271e-05,3.71876e-06,-7.83754e-06,-3.76633e-06,2.2908e-07,0
-3.00839e-05,5.9043e-06,6.74849e-07,-5.13595e-05,-1.16994e-06,-7.70212e-06,-5.81622e-06,-8.79138e-07,0
-3.08459e-05,-1.92854e-05,-5.77955e-07,-6.91129e-05,-3.24128e-06,-9.50422e-06,-5.31101e-06,-3.06866e-06,0
-3.11597e-05,-3.62986e-05,-3.21039e-06,-8.60446e-05,-3.03752e-06,-1.1107e-05,5.70674e-07,-4.77466e-06,0
-3.02214e-05,-3.7153e-05,-5.4147e-06,-9.20243e-05,-3.59787e-06,-1.23962e-05,1.13356e-05,-6.13094e-06,0
-2.85413e-05,-2.59491e-05,-6.86823e-06,-8.13516e-05,-3.77534e-06,-1.49293e-05,2.24549e-05,-5.73219e-06,0
-2.72992e-05,-1.78421e-05,-7.06513e-06,-6.74403e-05,-4.80549e-06,-1.80533e-05,3.12217e-05,-3.93357e-06,0
-2.81644e-05,-1.57258e-05,-7.75453e-06,-7.07204e-05,-8.7607e-06,-1.88036e-05,3.74961e-05,-1.41656e-06,0
-2.8849e-05,-1.37646e-05,-9.47069e-06,-9.01643e-05,-1.23239e-05,-1.76333e-05,4.12434e-05,-7.05033e-07,0
-2.7993e-05,-1.00726e-05,-9.50675e-06,-9.74605e-05,-1.26944e-05,-1.61576e-05,3.949e-05,-9.93898e-07,0
-2.79822e-05,-6.46951e-06,-1.07199e-05,-6.92068e-05,-1.21612e-05,-1.58918e-05,3.4678e-05,3.08958e-07,0
-2.87933e-05,-3.44568e-06,-1.2327e-05,-1.80176e-05,-1.23569e-05,-1.78433e-05,2.94769e-05,1.73241e-06,0
-2.98761e-05,-7.27925e-07,-1.21551e-05,2.15262e-05,-1.06534e-05,-2.00125e-05,2.56919e-05,2.89447e-06,0
-3.09094e-05,-6.12671e-07,-1.14017e-05,3.6822e-05,-6.46716e-06,-2.11981e-05,2.27721e-05,2.75236e-06,0
-3.14176e-05,-1.05696e-08,-1.12587e-05,2.99992e-05,-8.99852e-07,-1.91623e-05,2.07717e-05,3.55298e-06,0
-3.08587e-05,3.3939e-06,-1.01261e-05,-2.0494e-06,3.03544e-06,-1.54712e-05,1.92712e-05,5.16121e-06,0
-3.06794e-05,7.98042e-06,-6.97745e-06,-4.34083e-05,5.76022e-06,-1.21995e-05,1.87531e-05,6.55871e-06,0
-3.1013e-05,1.07529e-05,-2.66799e-06,-4.62179e-05,9.97611e-06,-1.01764e-05,1.87148e-05,6.89162e-06,0
-2.9644e-05,1.31357e-05,1.64116e-06,1.08551e-05,1.77027e-05,-1.03135e-05,1.63988e-05,6.5712e-06,0
-2.77047e-05,1.65563e-05,4.45958e-06,8.30257e-05,2.6099e-05,-1.19085e-05,1.24604e-05,6.32446e-06,0
-2.69863e-05,1.85725e-05,5.55117e-06,0.000115561,2.87837e-05,-1.35319e-05,9.41623e-06,6.3787e-06,0
-2.67797e-05,1.89083e-05,4.96949e-06,0.000114221,2.57906e-05,-1.39819e-05,8.06068e-06,6.54826e-06,0
-2.66005e-05,1.99284e-05,2.79211e-06,0.00010769,2.30542e-05,-1.31805e-05,6.5075e-06,5.77009e-06,0
-2.80284e-05,2.22168e-05,-1.25301e-06,8.89596e-05,2.31479e-05,-1.15777e-05,5.32762e-06,4.33417e-06,0
-2.91752e-05,2.41681e-05,-6.03928e-06,4.51165e-05,2.18794e-05,-1.04952e-05,4.51282e-06,3.2258e-06,0
-2.79898e-05,2.51743e-05,-1.00129e-05,-4.65224e-06,1.68301e-05,-1.01398e-05,3.93757e-06,3.46619e-06,0
-2.77984e-05,2.49656e-05,-1.2033e-05,-3.54187e-05,9.91947e-06,-1.12146e-05,2.09419e-06,2.57106e-06,0
-3.0503e-05,2.40836e-05,-1.28657e-05,-4.29476e-05,2.91094e-06,-1.23568e-05,-9.87395e-08,-1.33332e-07,0
-3.16874e-05,2.41075e-05,-1.23856e-05,-3.69487e-05,-1.84649e-06,-1.24732e-05,-4.38734e-07,-1.30747e-06,0
-3.00112e-05,2.78135e-05,-8.10351e-06,-2.49543e-05,-1.14799e-06,-1.2425e-05,3.20412e-07,1.43659e-06,0
-2.87069e-05,3.28337e-05,-2.15694e-06,-1.09849e-05,4.0039e-06,-1.28202e-05,-3.18941e-07,3.78908e-06,0
-2.89903e-05,3.50448e-05,-1.73294e-06,-5.46225e-06,1.00133e-05,-1.2117e-05,-1.2479e-06,4.50938e-06,0
-3.01757e-05,3.45628e-05,-9.10427e-06,-1.49327e-05,1.3215e-05,-1.06617e-05,2.48087e-07,4.55625e-06,0
-3.05387e-05,3.32334e-05,-1.7992e-05,-2.87785e-05,1.11935e-05,-9.71517e-06,2.28953e-06,4.37448e-06,0
-2.87448e-05,3.3486e-05,-2.10866e-05,-3.52103e-05,8.27756e-06,-9.48456e-06,3.00787e-06,4.24172e-06,0
-2.72283e-05,3.1217e-05,-2.03069e-05,-3.33773e-05,9.88046e-06,-1.01195e-05,2.02382e-06,2.46466e-06,0
-2.85281e-05,2.5325e-05,-2.12868e-05,-2.61449e-05,1.29543e-05,-1.17752e-05,1.89834e-06,-7.1258e-07,0
-3.06459e-05,2.20303e-05,-2.12193e-05,-2.19576e-05,1.27778e-05,-1.3843e-05,2.77784e-06,-1.44761e-06,0
-2.999e-05,2.20957e-05,-1.78574e-05,-2.30982e-05,8.67884e-06,-1.4806e-05,3.11652e-06,-2.67186e-07,0
-2.9237e-05,2.25007e-05,-1.64952e-05,-2.43037e-05,5.80573e-06,-1.4653e-05,3.63433e-06,-3.51017e-07,0
-3.1702e-05,2.00055e-05,-1.88371e-05,-2.80653e-05,6.24227e-06,-1.34091e-05,3.6626e-06,-4.93276e-07,0
-3.43295e-05,1.70853e-05,-2.22266e-05,-3.93059e-05,6.49985e-06,-1.30124e-05,4.98301e-06,-5.98687e-08,0
-3.47402e-05,1.52414e-05,-2.59628e-05,-5.74362e-05,4.94337e-06,-1.45699e-05,7.41803e-06,1.32606e-06,0
-3.34103e-05,1.42423e-05,-3.03545e-05,-8.15968e-05,1.47639e-06,-1.63226e-05,8.54968e-06,3.00122e-06,0
-3.10304e-05,1.30547e-05,-3.45769e-05,-0.000107253,5.21675e-07,-1.57579e-05,9.03229e-06,5.16801e-06,0
-2.90811e-05,1.06722e-05,-3.62397e-05,-0.000116724,5.11346e-06,-1.40012e-05,9.97198e-06,7.05402e-06,0
-2.91149e-05,8.48232e-06,-3.24018e-05,-9.07404e-05,1.24697e-05,-1.25511e-05,1.07841e-05,7.29545e-06,0
-2.99713e-05,7.90135e-06,-2.36331e-05,-3.44965e-05,1.72995e-05,-1.20378e-05,1.15357e-05,6.22328e-06,0
-3.04979e-05,9.09392e-06,-1.39347e-05,1.85223e-05,1.89161e-05,-1.24707e-05,1.24551e-05,5.15366e-06,0
-3.01819e-05,8.94277e-06,-6.31535e-06,4.15778e-05,1.85108e-05,-1.38004e-05,1.18349e-05,5.6477e-06,0
-2.99757e-05,7.19479e-06,-2.05405e-06,4.05174e-05,1.64788e-05,-1.64759e-05,9.63383e-06,7.10288e-06,0
-3.08601e-05,5.56314e-06,-8.64974e-07,3.08009e-05,1.28797e-05,-1.85585e-05,7.59776e-06,7.69441e-06,0
-3.2652e-05,5.00864e-06,-1.72994e-06,1.83551e-05,7.07968e-06,-1.89945e-05,6.35355e-06,7.37346e-06,0
-3.44649e-05,4.42404e-06,-2.64989e-06,5.6243e-06,1.26553e-06,-1.84033e-05,4.8065e-06,7.51211e-06,0
-3.47847e-05,3.0547e-06,-2.22293e-06,-1.51414e-06,-8.07581e-08,-1.76439e-05,2.71586e-06,7.72962e-06,0
-3.33312e-05,1.4115e-06,-1.45962e-06,2.43112e-06,4.27632e-06,-1.67961e-05,1.48422e-06,6.49851e-06,0
-3.19561e-05,2.14539e-06,-1.34216e-06,1.72865e-05,8.64802e-06,-1.69145e-05,2.83425e-06,5.0232e-06,0
-3.13788e-05,4.2408e-06,-8.81459e-07,3.47962e-05,9.03889e-06,-1.67354e-05,6.17157e-06,3.86053e-06,0
-3.13888e-05,4.61146e-06,-8.01177e-07,4.69479e-05,7.88721e-06,-1.53369e-05,1.13031e-05,2.36781e-06,0
-3.153e-05,4.47083e-06,-3.60697e-06,5.89415e-05,9.25444e-06,-1.43956e-05,1.77467e-05,1.2154e-06,0
-3.2886e-05,5.36648e-06,-7.95359e-06,6.37614e-05,1.15312e-05,-1.39085e-05,2.44326e-05,2.19085e-06,0
-3.43433e-05,5.392e-06,-1.0754e-05,5.41258e-05,9.69459e-06,-1.52189e-05,3.01363e-05,3.99929e-06,0
-3.34023e-05,6.77497e-06,-1.26373e-05,5.03197e-05,6.0374e-06,-1.60515e-05,3.24605e-05,4.23152e-06,0
-3.16655e-05,1.07123e-05,-1.34482e-05,5.50101e-05,7.36081e-06,-1.44235e-05,3.20213e-05,5.44941e-06,0
-2.9459e-05,1.25868e-05,-1.34938e-05,5.14879e-05,1.29855e-05,-1.20516e-05,3.17654e-05,7.80487e-06,0
-2.70697e-05,1.24145e-05,-1.27791e-05,3.15098e-05,1.93128e-05,-1.11946e-05,3.16225e-05,8.54576e-06,0
-2.59844e-05,1.26176e-05,-1.16353e-05,2.25408e-06,2.13317e-05,-1.16516e-05,3.05187e-05,8.02546e-06,0
-2.72175e-05,1.56121e-05,-1.03777e-05,-2.49584e-05,1.80912e-05,-1.03336e-05,2.79731e-05,7.21433e-06,0
-2.9115e-05,2.16043e-05,-9.19795e-06,-4.90017e-05,1.69343e-05,-8.62493e-06,2.59441e-05,6.31014e-06,0
-3.00385e-05,2.93233e-05,-7.98931e-06,-6.47891e-05,2.30648e-05,-8.02847e-06,2.49563e-05,5.4299e-06,0
-3e-05,3.62113e-05,-4.61829e-06,-6.21672e-05,3.33946e-05,-8.25147e-06,2.34585e-05,5.26539e-06,0
-2.83024e-05,4.2047e-05,-8.98576e-07,-4.4055e-05,4.02121e-05,-7.68023e-06,2.2696e-05,6.46925e-06,0
-2.55931e-05,4.69893e-05,6.13286e-07,-2.44774e-05,4.14752e-05,-7.54727e-06,2.23446e-05,7.96169e-06,0
-2.37989e-05,4.82108e-05,-6.25238e-07,-1.1341e-05,4.18467e-05,-8.80802e-06,2.04441e-05,8.49916e-06,0
-2.41259e-05,4.10529e-05,-2.57347e-06,-7.43709e-06,4.49792e-05,-9.88175e-06,1.62081e-05,7.90512e-06,0
-2.5265e-05,2.52554e-05,-2.8364e-06,-1.15156e-05,4.77375e-05,-1.00887e-05,1.19929e-05,6.9351e-06,0
-2.61766e-05,5.42317e-06,-1.48467e-06,-1.87325e-05,4.58936e-05,-9.58913e-06,1.02964e-05,6.32395e-06,0
-2.76595e-05,-1.45907e-05,6.51577e-07,-1.98308e-05,3.9561e-05,-8.80732e-06,1.26744e-05,5.75097e-06,0
-2.95116e-05,-2.7726e-05,3.78305e-06,-8.69421e-06,3.38229e-05,-7.2839e-06,1.71658e-05,5.32677e-06,0
-2.99852e-05,-2.80883e-05,6.35209e-06,1.13409e-05,3.11563e-05,-6.63151e-06,1.98584e-05,5.62569e-06,0
-2.94947e-05,-1.69198e-05,6.39209e-06,2.86446e-05,2.68938e-05,-9.20159e-06,1.90716e-05,5.07697e-06,0
-3.01218e-05,2.25507e-06,3.74867e-06,3.60767e-05,1.96223e-05,-1.35045e-05,1.45941e-05,2.27642e-06,0
-3.11102e-05,2.51852e-05,1.02587e-06,3.66523e-05,1.32429e-05,-1.39895e-05,7.58662e-06,-1.7892e-06,0
-3.21397e-05,4.15746e-05,-6.56075e-07,3.06092e-05,9.66649e-06,-1.04716e-05,7.19885e-07,-4.21378e-06,0
-3.37525e-05,4.61709e-05,-1.14195e-06,1.88669e-05,8.96247e-06,-8.51614e-06,-4.4584e-06,-4.8036e-06,0
-3.47724e-05,4.22827e-05,-9.0103e-07,1.0818e-05,1.03361e-05,-8.89317e-06,-8.76815e-06,-4.91849e-06,0
-3.40428e-05,3.73853e-05,-2.72827e-06,1.39316e-05,1.28119e-05,-8.48989e-06,-1.02839e-05,-4.8282e-06,0
-3.43183e-05,3.49133e-05,-6.28737e-06,2.36375e-05,1.26647e-05,-6.73347e-06,-8.46168e-06,-5.42365e-06,0
-3.61529e-05,2.88068e-05,-7.46853e-06,3.08172e-05,9.67492e-06,-4.65009e-06,-6.31937e-06,-6.11528e-06,0
-3.55343e-05,1.96544e-05,-3.8412e-06,2.52746e-05,1.00659e-05,-3.91287e-06,-3.02691e-06,-7.20844e-06,0
-3.17221e-05,7.87207e-06,-9.00693e-07,7.31587e-06,1.3978e-05,-5.04126e-06,-1.52405e-07,-8.03245e-06,0
-2.92647e-05,-7.09914e-06,-1.42312e-06,-4.16978e-06,1.70218e-05,-5.91121e-06,1.13265e-06,-5.44307e-06,0
-3.01926e-05,-2.37436e-05,-4.91229e-06,9.6264e-07,1.70111e-05,-4.30342e-06,1.92378e-06,-1.77578e-06,0
-3.21883e-05,-3.81157e-05,-1.01698e-05,1.70084e-05,1.53072e-05,-3.30714e-06,1.46649e-06,-2.12432e-07,0
-3.29745e-05,-4.56153e-05,-1.24931e-05,2.79577e-05,1.33984e-05,-4.79068e-06,5.82009e-07,-5.57603e-07,0
-3.07255e-05,-4.79937e-05,-1.03353e-05,2.21605e-05,1.08884e-05,-6.47907e-06,1.31187e-06,-1.81852e-06,0
-2.75064e-05,-4.66909e-05,-6.56703e-06,7.12334e-06,7.43634e-06,-6.72682e-06,3.84089e-06,-1.80545e-06,0
-2.66393e-05,-4.66597e-05,-3.88228e-06,-5.3433e-06,4.43677e-06,-5.12569e-06,5.82437e-06,-7.02974e-07,0
-2.78451e-05,-5.10053e-05,-2.3816e-06,-9.89942e-06,3.44225e-06,-2.1918e-06,8.1926e-06,2.5994e-07,0
-2.77844e-05,-5.66908e-05,-1.57493e-06,-1.27114e-05,3.65941e-06,8.30932e-07,1.06583e-05,-2.35388e-07,0
-2.67819e-05,-5.53189e-05,-1.04201e-06,-1.99619e-05,4.12516e-06,1.8187e-06,1.22059e-05,-9.95374e-07,0
-2.66005e-05,-4.59131e-05,-1.27261e-06,-2.89242e-05,4.39324e-06,2.39742e-07,1.31453e-05,-1.01039e-06,0
-2.75449e-05,-3.52658e-05,-3.1898e-06,-3.45448e-05,4.00012e-06,-2.82932e-06,1.39202e-05,-8.43274e-07,0
-2.88061e-05,-2.58344e-05,-6.52508e-06,-3.79873e-05,3.38446e-06,-5.09093e-06,1.43112e-05,-5.2049e-07,0
-2.89811e-05,-1.60121e-05,-8.63553e-06,-4.15314e-05,2.67832e-06,-5.45076e-06,1.3343e-05,-4.94422e-07,0
-2.85529e-05,-6.18674e-06,-7.68986e-06,-4.59491e-05,1.76101e-06,-4.83145e-06,1.1466e-05,-1.01646e-07,0
-2.89464e-05,9.55374e-07,-5.32721e-06,-4.87421e-05,2.49707e-06,-4.34003e-06,1.02491e-05,1.48844e-06,0
-2.9468e-05,5.15334e-06,-3.78764e-06,-3.70557e-05,6.36286e-06,-4.38028e-06,1.16963e-05,3.35426e-06,0
-2.84878e-05,6.97987e-06,-3.42815e-06,2.47186e-07,1.0597e-05,-4.50706e-06,1.37414e-05,3.87871e-06,0
-2.82648e-05,1.00515e-05,-4.53722e-06,4.13202e-05,1.22742e-05,-5.37017e-06,1.37289e-05,3.92901e-06,0
-2.93869e-05,1.52235e-05,-6.33836e-06,4.9855e-05,1.25585e-05,-6.1625e-06,1.3361e-05,4.41817e-06,0
-2.91635e-05,1.97461e-05,-8.48005e-06,2.01249e-05,1.26334e-05,-4.62574e-06,1.38469e-05,4.25397e-06,0
-2.83397e-05,2.13476e-05,-1.3534e-05,-2.1753e-05,1.2851e-05,-3.25532e-06,1.45877e-05,3.25621e-06,0
-2.86605e-05,1.8153e-05,-2.01886e-05,-4.35735e-05,1.29825e-05,-2.32351e-06,1.42137e-05,1.22023e-06,0
-2.90002e-05,1.32109e-05,-2.53978e-05,-3.6576e-05,1.24849e-05,-2.71904e-06,1.33419e-05,-1.43798e-06,0
-2.91813e-05,1.19248e-05,-2.79703e-05,-1.43078e-05,1.37775e-05,-2.35181e-06,1.42436e-05,-1.15336e-06,0
-2.81214e-05,1.3434e-05,-2.70096e-05,8.6977e-06,1.85344e-05,-6.94663e-08,1.64865e-05,-2.80023e-07,0
-2.56555e-05,1.80637e-05,-2.22366e-05,2.27481e-05,2.34796e-05,2.63624e-08,1.73107e-05,-2.06642e-06,0
-2.51059e-05,2.34122e-05,-1.58851e-05,5.72951e-06,2.37559e-05,-6.70409e-07,1.63249e-05,-3.28323e-06,0
-2.56859e-05,2.46605e-05,-1.16262e-05,-3.78167e-05,1.98506e-05,-2.04334e-06,1.54668e-05,-2.55327e-06,0
-2.61144e-05,2.32065e-05,-9.89715e-06,-6.6608e-05,1.73044e-05,-3.58667e-06,1.48566e-05,-1.93548e-06,0
-2.71049e-05,2.23349e-05,-1.05198e-05,-6.0046e-05,1.85502e-05,-3.96017e-06,1.45762e-05,-5.1721e-07,0
-2.64157e-05,2.33676e-05,-1.2887e-05,-2.85839e-05,2.19139e-05,-3.179e-06,1.58033e-05,5.45013e-07,0
-2.49478e-05,2.48072e-05,-1.50796e-05,7.40869e-06,2.42626e-05,-3.2027e-06,1.76325e-05,-8.92667e-07,0
-2.53994e-05,2.48643e-05,-1.62904e-05,2.99599e-05,2.3506e-05,-3.3847e-06,1.74638e-05,-2.46519e-06,0
-2.67606e-05,2.46994e-05,-1.72169e-05,3.1453e-05,2.07997e-05,-3.31151e-06,1.60084e-05,-3.68175e-06,0
-2.56777e-05,2.66803e-05,-1.81075e-05,1.92141e-05,1.75551e-05,-4.12193e-06,1.40669e-05,-4.17186e-06,0
-2.36672e-05,2.99638e-05,-1.75651e-05,3.74125e-06,1.47208e-05,-5.87429e-06,1.23942e-05,-3.42176e-06,0
-2.39314e-05,3.22657e-05,-1.55874e-05,-1.13022e-05,1.24429e-05,-8.50161e-06,1.35572e-05,-1.49573e-06,0
-2.51702e-05,3.20128e-05,-1.39854e-05,-2.4258e-05,1.02991e-05,-1.04343e-05,1.69511e-05,2.13575e-08,0
-2.59066e-05,3.00946e-05,-1.37837e-05,-2.93794e-05,8.79875e-06,-1.0652e-05,1.94774e-05,3.91647e-07,0
-2.62875e-05,2.88236e-05,-1.30186e-05,-2.67568e-05,8.69567e-06,-9.45296e-06,1.99736e-05,2.02423e-07,0
-2.69756e-05,2.85417e-05,-1.12081e-05,-2.4637e-05,9.69675e-06,-9.05364e-06,1.9306e-05,-2.69596e-08,0
-2.884e-05,2.71104e-05,-1.07806e-05,-2.54843e-05,1.04629e-05,-9.79492e-06,1.839e-05,-4.85513e-07,0
-3.06919e-05,2.62736e-05,-1.19991e-05,-2.40714e-05,1.08745e-05,-1.08232e-05,1.70531e-05,-1.09379e-06,0
-3.10538e-05,2.85894e-05,-1.39665e-05,-2.07508e-05,1.18569e-05,-1.09298e-05,1.53402e-05,-1.97391e-06,0
-3.0565e-05,3.16134e-05,-1.70902e-05,-1.775e-05,1.40294e-05,-1.04794e-05,1.38548e-05,-2.96582e-06,0
-2.84636e-05,3.34605e-05,-2.05291e-05,-1.48072e-05,1.64932e-05,-9.94379e-06,1.26563e-05,-3.54613e-06,0
-2.71226e-05,3.36722e-05,-2.20145e-05,-1.36533e-05,1.72893e-05,-9.17051e-06,1.20392e-05,-5.07358e-06,0
-2.81396e-05,3.17056e-05,-2.04843e-05,-1.56274e-05,1.65428e-05,-8.08674e-06,1.16731e-05,-7.54059e-06,0
-2.90907e-05,2.63484e-05,-1.78163e-05,-1.75757e-05,1.70572e-05,-7.73266e-06,1.1374e-05,-7.75553e-06,0
-2.9003e-05,1.93156e-05,-1.57564e-05,-1.87116e-05,1.85253e-05,-8.53556e-06,1.28894e-05,-4.33305e-06,0
-2.98169e-05,1.53721e-05,-1.40057e-05,-2.06454e-05,1.96835e-05,-9.95438e-06,1.48851e-05,1.97598e-07,0
-3.07697e-05,1.44859e-05,-1.22307e-05,-2.15868e-05,2.0105e-05,-1.11127e-05,1.55134e-05,2.67421e-06,0
-3.06451e-05,1.54937e-05,-9.37564e-06,-1.89583e-05,1.87112e-05,-1.06387e-05,1.47015e-05,1.03266e-06,0
-3.10834e-05,1.83171e-05,-6.92027e-06,-1.49694e-05,1.71984e-05,-1.10297e-05,1.27796e-05,-1.40137e-06,0
-3.14713e-05,2.07534e-05,-5.91885e-06,-1.37536e-05,1.66287e-05,-1.25837e-05,1.30465e-05,-3.25752e-06,0
-3.03174e-05,2.05219e-05,-6.39017e-06,-1.47971e-05,1.62329e-05,-1.33496e-05,1.51592e-05,-3.62747e-06,0
-2.92578e-05,1.83369e-05,-7.16881e-06,-1.55495e-05,1.55097e-05,-1.18552e-05,1.55921e-05,-1.64168e-06,0
-2.92468e-05,1.59592e-05,-7.61523e-06,-1.16979e-05,1.43627e-05,-1.04627e-05,1.52163e-05,5.82166e-07,0
-3.00469e-05,1.39439e-05,-8.82039e-06,-3.83571e-06,1.38855e-05,-1.20105e-05,1.60931e-05,5.70021e-07,0
-3.14155e-05,1.25185e-05,-1.0268e-05,4.10336e-06,1.6099e-05,-1.54113e-05,1.66275e-05,-6.11106e-07,0
-3.21838e-05,1.20576e-05,-1.20424e-05,8.77823e-06,1.88878e-05,-1.85345e-05,1.62129e-05,-6.84327e-07,0
-3.22788e-05,1.22628e-05,-1.37517e-05,1.18556e-05,1.91045e-05,-2.0651e-05,1.57401e-05,3.56593e-07,0
-3.16457e-05,1.18507e-05,-1.58485e-05,1.70971e-05,1.55077e-05,-2.12715e-05,1.45207e-05,1.99599e-06,0
-3.04857e-05,1.13978e-05,-1.87047e-05,2.36537e-05,1.00516e-05,-2.02895e-05,1.25434e-05,3.3465e-06,0
-2.90676e-05,1.17113e-05,-2.32002e-05,2.75258e-05,6.685e-06,-2.00064e-05,1.19831e-05,3.63699e-06,0
-2.86457e-05,1.22422e-05,-2.85834e-05,2.77357e-05,5.34789e-06,-2.05138e-05,1.34039e-05,2.45419e-06,0
-2.95431e-05,1.27364e-05,-3.07827e-05,3.03183e-05,4.88522e-06,-1.98733e-05,1.36991e-05,9.83891e-07,0
-3.0581e-05,1.38851e-05,-2.57826e-05,4.60598e-05,6.20616e-06,-1.77175e-05,1.09437e-05,1.00943e-07,0
-3.01728e-05,1.6158e-05,-1.62694e-05,7.26912e-05,9.53693e-06,-1.63389e-05,7.25262e-06,4.77925e-07,0
-2.87436e-05,1.82954e-05,-9.38966e-06,7.75518e-05,1.29101e-05,-1.55151e-05,5.76287e-06,3.4183e-07,0
-2.69905e-05,1.98779e-05,-8.31377e-06,3.98986e-05,1.49413e-05,-1.41769e-05,8.23779e-06,-3.32216e-07,0
-2.57697e-05,2.05758e-05,-1.09395e-05,-1.45863e-05,1.51928e-05,-1.36163e-05,1.25388e-05,8.44986e-08,0
-2.61693e-05,1.94118e-05,-1.28996e-05,-5.28645e-05,1.4647e-05,-1.41605e-05,1.45532e-05,1.83955e-06,0
-2.69006e-05,1.75112e-05,-1.37101e-05,-7.14469e-05,1.39834e-05,-1.36961e-05,1.4416e-05,3.26296e-06,0
-2.60818e-05,1.34009e-05,-1.36588e-05,-8.07984e-05,1.2401e-05,-1.29161e-05,1.34089e-05,3.57741e-06,0
-2.36111e-05,7.44988e-06,-1.10846e-05,-8.40942e-05,9.2399e-06,-1.40262e-05,1.20457e-05,3.07847e-06,0
-2.19208e-05,3.26783e-06,-9.37758e-06,-8.2902e-05,7.29656e-06,-1.55106e-05,9.97195e-06,2.44246e-06,0
-2.24257e-05,1.39694e-06,-1.27846e-05,-8.09932e-05,6.71277e-06,-1.64053e-05,5.78496e-06,2.17992e-06,0
-2.40018e-05,-6.99685e-07,-1.56624e-05,-7.68906e-05,7.30879e-06,-1.64648e-05,-1.35684e-06,1.58137e-06,0
-2.52392e-05,-3.21474e-06,-1.26513e-05,-7.16454e-05,8.38919e-06,-1.53636e-05,-8.20087e-06,-3.78476e-07,0
-2.61185e-05,-3.73382e-06,-4.79937e-06,-6.48947e-05,9.3022e-06,-1.4061e-05,-1.01831e-05,-1.3987e-06,0
-2.69179e-05,-2.17132e-06,2.41654e-06,-5.50704e-05,1.13789e-05,-1.32947e-05,-7.2883e-06,1.00032e-06,0
-2.77336e-05,-8.91354e-07,4.18371e-06,-4.03406e-05,1.25234e-05,-1.26882e-05,-1.58963e-06,4.37654e-06,0
-2.88239e-05,-1.69068e-06,4.68477e-07,5.58681e-06,1.18256e-05,-1.21729e-05,4.41807e-06,5.81191e-06,0
-2.96038e-05,-3.00903e-06,-6.5964e-06,9.44027e-05,1.00476e-05,-1.12108e-05,1.04997e-05,4.18294e-06,0
-2.9513e-05,-4.51265e-06,-1.22009e-05,0.000185985,1.01262e-05,-8.8462e-06,1.75124e-05,8.92963e-07,0
-2.98687e-05,-6.26464e-06,-1.10669e-05,0.00022893,1.00122e-05,-8.28984e-06,2.59531e-05,-1.04602e-06,0
-3.13744e-05,-6.71645e-06,-1.19184e-07,0.000209352,7.9267e-06,-9.60601e-06,3.39525e-05,-9.89821e-07,0
-3.28406e-05,-4.88029e-06,2.14259e-05,0.000146513,6.38637e-06,-1.05868e-05,3.81548e-05,-9.37809e-07,0
-3.25757e-05,-2.49177e-06,4.47153e-05,6.70585e-05,7.35631e-06,-1.08103e-05,3.78766e-05,-1.17957e-06,0
-3.1231e-05,2.56173e-07,5.31028e-05,-1.70997e-06,8.78381e-06,-1.0669e-05,3.55452e-05,-1.63967e-06,0
-3.02758e-05,2.17791e-06,3.90211e-05,-4.31892e-05,8.32836e-06,-1.10387e-05,3.34736e-05,-2.27452e-06,0
-2.96434e-05,1.26343e-06,8.73334e-06,-6.32335e-05,6.50784e-06,-1.20191e-05,3.21564e-05,-3.6412e-06,0
-2.95035e-05,-8.64925e-07,-2.6912e-05,-8.14148e-05,3.24237e-06,-1.42098e-05,3.09147e-05,-4.85569e-06,0
-3.00056e-05,-1.50399e-06,-5.84402e-05,-0.000109237,-1.44177e-06,-1.50692e-05,2.80547e-05,-5.02746e-06,0
-3.059e-05,-1.95299e-07,-7.81922e-05,-0.00014691,-6.12055e-06,-1.38608e-05,2.38454e-05,-4.64585e-06,0
-3.0661e-05,7.44355e-07,-8.39457e-05,-0.000190208,-8.67174e-06,-1.28154e-05,2.03519e-05,-4.08618e-06,0
-2.94454e-05,5.73927e-07,-7.88409e-05,-0.000223669,-9.73567e-06,-1.2087e-05,1.81972e-05,-4.45232e-06,0
-2.71001e-05,5.64009e-07,-6.69689e-05,-0.000207764,-8.97752e-06,-9.86941e-06,1.66598e-05,-4.78981e-06,0
-2.59392e-05,1.60758e-06,-5.24254e-05,-0.000125308,-7.13225e-06,-8.73998e-06,1.60153e-05,-2.63871e-06,0
-2.69103e-05,3.27203e-06,-3.91878e-05,-2.94241e-05,-4.56311e-06,-1.10378e-05,1.36299e-05,-5.92875e-07,0
-2.78615e-05,3.43169e-06,-2.80133e-05,2.93695e-05,9.99853e-07,-1.34994e-05,7.90816e-06,-1.03075e-06,0
-2.77277e-05,1.08328e-06,-1.70613e-05,5.47932e-05,1.01796e-05,-1.36766e-05,4.47336e-06,-1.01335e-06,0
-2.74056e-05,-1.73e-06,-8.30372e-06,5.10202e-05,1.63188e-05,-1.35285e-05,6.02131e-06,-4.42487e-07,0
-2.72082e-05,-2.43096e-06,-5.9685e-06,2.96673e-05,1.81845e-05,-1.35247e-05,9.38615e-06,4.55834e-07,0
-2.45174e-05,-4.1144e-07,-5.08435e-06,9.98013e-06,1.78647e-05,-1.27546e-05,1.14403e-05,1.28162e-06,0
-2.13436e-05,2.66276e-06,-7.8388e-07,-7.81145e-06,1.46556e-05,-1.16164e-05,1.0373e-05,9.49572e-07,0
-2.11602e-05,4.52455e-06,3.38148e-06,-2.50835e-05,1.11549e-05,-9.80843e-06,8.76199e-06,1.17413e-06,0
-2.08007e-05,4.08235e-06,4.85941e-06,-2.2228e-05,9.32995e-06,-9.03057e-06,8.05859e-06,1.16045e-06,0
-1.97099e-05,5.08936e-06,7.4708e-06,1.63858e-05,1.08629e-05,-9.02405e-06,7.6551e-06,9.68787e-07,0
-1.86861e-05,7.52178e-06,1.14153e-05,7.12948e-05,1.29658e-05,-7.87788e-06,7.17767e-06,1.02855e-06,0
-1.90159e-05,1.01615e-05,1.45874e-05,0.000115801,1.42732e-05,-6.90198e-06,6.56321e-06,8.14904e-07,0
-2.01169e-05,1.22521e-05,1.74273e-05,0.000147995,1.65711e-05,-6.55874e-06,6.82909e-06,-5.4301e-07,0
-2.1116e-05,1.34799e-05,1.97424e-05,0.000189344,2.24523e-05,-4.65367e-06,8.27161e-06,-2.21182e-06,0
-2.25984e-05,1.38964e-05,1.99726e-05,0.000227042,2.6549e-05,-2.0712e-06,9.96067e-06,-3.34847e-06,0
-2.45525e-05,1.45674e-05,1.6318e-05,0.000222838,2.29535e-05,-1.47027e-06,1.06925e-05,-4.49336e-06,0
-2.60569e-05,1.72497e-05,1.23079e-05,0.000160986,1.48965e-05,-1.70106e-06,1.1255e-05,-4.78635e-06,0
-2.62654e-05,2.00201e-05,9.82832e-06,6.90207e-05,8.87683e-06,-1.34451e-06,1.25058e-05,-3.68186e-06,0
-2.63838e-05,2.19106e-05,7.47764e-06,-8.05469e-06,7.88978e-06,-6.2597e-07,1.45455e-05,-1.32926e-06,0
-2.70886e-05,2.3231e-05,4.38245e-06,-4.55171e-05,9.21735e-06,6.76639e-07,1.60944e-05,-1.16391e-08,0
-2.85627e-05,2.43351e-05,2.53699e-06,-4.91135e-05,1.04582e-05,2.11862e-06,1.68917e-05,2.8325e-07,0
-3.00784e-05,2.47738e-05,2.51559e-06,-3.88759e-05,1.14623e-05,2.41844e-06,1.77524e-05,1.73314e-06,0
-3.15651e-05,2.57276e-05,3.77948e-06,-2.52224e-05,1.2855e-05,1.66841e-06,1.84135e-05,4.28385e-06,0
-3.22699e-05,2.71067e-05,6.31882e-06,-1.24148e-05,1.30339e-05,1.86564e-06,1.77496e-05,4.99581e-06,0
-3.31342e-05,2.75767e-05,8.15114e-06,-2.49704e-06,1.23748e-05,2.52311e-06,1.5156e-05,3.72212e-06,0
-3.43503e-05,2.6557e-05,7.87592e-06,3.63876e-06,1.28198e-05,2.55709e-06,1.35513e-05,1.06756e-06,0
-3.4352e-05,2.72613e-05,7.32263e-06,8.994e-06,1.9149e-05,2.77527e-06,1.5812e-05,-1.63125e-06,0
-3.3247e-05,3.00437e-05,8.05703e-06,9.83016e-06,2.99431e-05,2.56818e-06,1.81297e-05,-1.64902e-06,0
-3.14365e-05,3.19838e-05,1.01347e-05,4.74913e-06,3.71445e-05,1.87986e-06,1.69371e-05,1.42029e-06,0
-3.10453e-05,3.06232e-05,1.1453e-05,-6.96031e-06,3.68494e-05,1.13636e-06,1.36305e-05,3.28847e-06,0
-3.35949e-05,2.73785e-05,1.05881e-05,-1.69624e-05,3.23914e-05,1.03505e-06,1.24307e-05,2.58146e-06,0
-3.68873e-05,2.64769e-05,8.40397e-06,-1.79553e-05,2.9337e-05,5.19452e-07,1.32468e-05,2.36518e-06,0
-3.82276e-05,2.62233e-05,5.22583e-06,-1.7406e-05,2.94727e-05,-1.25029e-06,1.35881e-05,2.71336e-06,0
-3.7284e-05,2.59116e-05,3.64659e-06,-2.23035e-05,2.94822e-05,-3.17341e-06,1.33805e-05,3.26044e-06,0
-3.80577e-05,2.55364e-05,3.68096e-06,-3.1869e-05,2.69385e-05,-5.2842e-06,1.19622e-05,2.13607e-06,0
-4.07111e-05,2.43083e-05,3.78268e-06,-3.87687e-05,2.28863e-05,-6.03933e-06,1.09077e-05,7.09852e-07,0
-4.17756e-05,2.48134e-05,4.58982e-06,-3.75154e-05,1.94657e-05,-5.01093e-06,1.05347e-05,7.573e-07,0
-4.16932e-05,2.6592e-05,5.76982e-06,-3.00245e-05,1.97059e-05,-2.05173e-06,1.05987e-05,-2.34515e-07,0
-4.12382e-05,2.83797e-05,6.39939e-06,-2.45519e-05,2.26513e-05,-3.07821e-07,1.12011e-05,-3.18551e-06,0
-4.19125e-05,2.90111e-05,6.55663e-06,-2.22762e-05,2.61427e-05,-4.03609e-07,1.13633e-05,-5.63205e-06,0
-4.3958e-05,2.75805e-05,6.21125e-06,-1.9371e-05,2.87672e-05,-9.37668e-07,9.407e-06,-5.70341e-06,0
-4.64678e-05,2.57925e-05,5.57348e-06,-1.82762e-05,2.90547e-05,-2.63563e-06,7.11656e-06,-4.21569e-06,0
-4.85424e-05,2.46694e-05,4.84455e-06,-3.0415e-05,2.68893e-05,-4.65593e-06,6.22857e-06,-1.67899e-06,0
-5.04177e-05,2.38783e-05,3.65535e-06,-5.69045e-05,2.45899e-05,-5.57176e-06,6.44963e-06,1.25653e-06,0
-5.24328e-05,2.24186e-05,2.00302e-06,-8.28614e-05,2.16546e-05,-5.03273e-06,7.62192e-06,3.15501e-06,0
-5.30684e-05,2.24052e-05,2.01419e-07,-9.7827e-05,1.70001e-05,-5.20538e-06,9.02785e-06,3.82876e-06,0
-5.1231e-05,2.41089e-05,-2.16946e-06,-0.000102952,1.2342e-05,-5.96724e-06,9.1092e-06,4.85505e-06,0
-4.8453e-05,2.5154e-05,-4.54748e-06,-9.59258e-05,9.37523e-06,-7.38796e-06,7.4932e-06,6.42587e-06,0
-4.7521e-05,2.47641e-05,-6.75573e-06,-7.37049e-05,7.70159e-06,-8.5886e-06,5.64233e-06,6.70222e-06,0
-4.81814e-05,2.37339e-05,-8.88884e-06,-4.3558e-05,5.70033e-06,-8.87332e-06,3.08695e-06,5.19114e-06,0
-4.8527e-05,2.23641e-05,-9.49985e-06,-8.27003e-06,2.63844e-06,-8.82745e-06,7.32459e-07,4.31511e-06,0
-4.85181e-05,2.20912e-05,-9.08108e-06,3.30016e-05,8.09747e-07,-9.29323e-06,2.49493e-07,5.24178e-06,0
-4.84862e-05,2.33592e-05,-1.00325e-05,7.80079e-05,8.63219e-07,-1.02039e-05,1.14835e-06,5.64219e-06,0
-4.7317e-05,2.71584e-05,-1.21802e-05,0.000128096,1.24547e-06,-1.13224e-05,1.53418e-06,4.34078e-06,0
-4.6495e-05,3.62475e-05,-1.35012e-05,0.000174145,5.29034e-06,-1.07603e-05,1.71798e-06,2.92654e-06,0
-4.75331e-05,4.64042e-05,-1.29298e-05,0.000183055,1.21433e-05,-8.93611e-06,2.68941e-06,2.04832e-06,0
-4.70986e-05,5.03861e-05,-1.08389e-05,0.000126706,1.63993e-05,-8.04016e-06,3.25806e-06,1.6915e-06,0
-4.39813e-05,4.75625e-05,-8.7838e-06,3.38918e-05,1.86336e-05,-7.24474e-06,2.61026e-06,3.14488e-06,0
-4.21746e-05,4.40985e-05,-8.19831e-06,-3.74257e-05,2.19346e-05,-8.10083e-06,2.46441e-06,4.62212e-06,0
-4.2675e-05,4.34209e-05,-7.9071e-06,-6.38036e-05,2.49141e-05,-8.78769e-06,3.89973e-06,4.70132e-06,0
-4.07377e-05,4.22306e-05,-7.04488e-06,-5.24027e-05,2.38883e-05,-8.64226e-06,5.5784e-06,5.37583e-06,0
-3.61121e-05,3.80917e-05,-6.09291e-06,-1.56385e-05,2.03373e-05,-8.23992e-06,5.8976e-06,6.28726e-06,0
-3.20147e-05,3.1294e-05,-2.53105e-06,2.66448e-05,1.75829e-05,-6.0623e-06,5.63846e-06,5.04185e-06,0
-2.97491e-05,1.95589e-05,4.20889e-06,4.33144e-05,1.72025e-05,-5.30265e-06,6.14548e-06,4.47334e-06,0
-3.15278e-05,1.04071e-06,9.71525e-06,2.6901e-05,1.65908e-05,-7.85475e-06,7.37317e-06,5.17142e-06,0
-3.52266e-05,-1.69493e-05,1.10688e-05,-5.14462e-06,1.10458e-05,-1.07845e-05,8.64539e-06,4.88712e-06,0
-3.71181e-05,-2.57335e-05,9.85885e-06,-3.5909e-05,4.29859e-06,-1.14954e-05,9.16801e-06,3.48553e-06,0
-3.87328e-05,-2.29241e-05,7.89098e-06,-5.60302e-05,1.56665e-06,-1.15524e-05,7.99619e-06,2.88641e-06,0
-3.99907e-05,-1.26289e-05,6.72701e-06,-6.17575e-05,2.75643e-06,-1.26995e-05,6.70757e-06,2.86076e-06,0
-3.80638e-05,-1.92242e-06,6.90465e-06,-5.68979e-05,4.37807e-06,-1.3011e-05,6.7803e-06,1.52062e-06,0
-3.48872e-05,4.27482e-06,6.11899e-06,-4.80832e-05,5.18594e-06,-1.16276e-05,6.82522e-06,8.3537e-07,0
-3.36587e-05,6.96345e-06,2.77323e-06,-3.75876e-05,5.57811e-06,-1.05869e-05,7.19122e-06,2.06854e-06,0
-3.42556e-05,1.10172e-05,-7.06873e-07,-3.22373e-05,4.94054e-06,-1.02309e-05,9.13078e-06,4.27409e-06,0
-3.47488e-05,1.67284e-05,-3.2527e-06,-3.92909e-05,4.44051e-06,-9.8776e-06,1.11267e-05,5.31391e-06,0
-3.48293e-05,1.8429e-05,-6.07576e-06,-5.49873e-05,5.44422e-06,-1.05817e-05,1.10074e-05,6.62108e-06,0
-3.54688e-05,1.14873e-05,-8.35146e-06,-6.62751e-05,6.10407e-06,-1.18229e-05,1.10449e-05,9.01479e-06,0
-3.68367e-05,-1.79565e-06,-9.92138e-06,-7.17527e-05,4.82073e-06,-1.2945e-05,1.26735e-05,9.89129e-06,0
-3.75957e-05,-1.73853e-05,-1.15891e-05,-7.68674e-05,5.09106e-06,-1.29969e-05,1.38409e-05,8.89426e-06,0
-3.66585e-05,-2.88962e-05,-1.24212e-05,-7.01139e-05,8.83485e-06,-1.21597e-05,1.42018e-05,7.35584e-06,0
-3.53389e-05,-3.24082e-05,-1.22119e-05,-4.0182e-05,1.41138e-05,-1.32188e-05,1.48982e-05,4.89922e-06,0
-3.4035e-05,-2.87804e-05,-1.21612e-05,-2.35464e-06,1.58719e-05,-1.47391e-05,1.42784e-05,3.83966e-06,0
-3.24929e-05,-2.04262e-05,-1.40009e-05,2.13081e-05,1.30672e-05,-1.6094e-05,1.36946e-05,4.94851e-06,0
-3.14213e-05,-1.11218e-05,-1.80496e-05,2.46497e-05,1.05679e-05,-1.71772e-05,1.45623e-05,4.95202e-06,0
-3.08134e-05,-4.46782e-06,-2.09873e-05,1.32277e-05,8.50443e-06,-1.69411e-05,1.54583e-05,4.09978e-06,0
-2.95867e-05,-3.01498e-06,-2.25939e-05,-3.98797e-06,7.46922e-06,-1.53794e-05,1.62554e-05,5.0477e-06,0
-2.82378e-05,-3.86218e-06,-2.38415e-05,-1.9433e-05,6.88626e-06,-1.31451e-05,1.67882e-05,5.18073e-06,0
-2.72343e-05,-1.87277e-06,-2.4045e-05,-3.30972e-05,7.6855e-06,-1.27641e-05,1.75171e-05,3.5813e-06,0
-2.78955e-05,7.25754e-07,-2.30385e-05,-3.70698e-05,1.13108e-05,-1.40577e-05,1.57792e-05,2.50723e-06,0
-3.03287e-05,2.08082e-06,-2.36645e-05,-2.5561e-05,1.37377e-05,-1.55407e-05,1.17585e-05,3.33513e-06,0
-3.11443e-05,2.09307e-06,-2.55261e-05,-1.22842e-05,1.45535e-05,-1.60839e-05,6.5955e-06,5.08025e-06,0
-3.02694e-05,1.22753e-06,-2.61874e-05,-5.53526e-06,1.44558e-05,-1.66214e-05,9.62646e-07,5.73282e-06,0
-2.97665e-05,3.56589e-06,-2.61272e-05,-3.90116e-06,1.37e-05,-1.69917e-05,-1.78102e-06,4.7567e-06,0
-2.97124e-05,1.10812e-05,-2.52138e-05,-4.13295e-06,1.03514e-05,-1.81167e-05,-1.99751e-06,1.17435e-06,0
-2.94487e-05,2.16542e-05,-2.54852e-05,-3.96743e-06,6.5732e-06,-1.94816e-05,-9.59209e-07,-2.96917e-06,0
-2.83854e-05,2.92574e-05,-2.64119e-05,-1.52338e-06,4.47758e-06,-1.95095e-05,5.68693e-07,-5.89447e-06,0
-2.63753e-05,3.22113e-05,-2.73343e-05,3.53851e-06,3.82188e-06,-1.9346e-05,3.64532e-06,-6.10288e-06,0
-2.45225e-05,3.1566e-05,-2.64262e-05,1.04161e-05,4.9685e-06,-1.89078e-05,7.90961e-06,-4.37116e-06,0
-2.32478e-05,2.8067e-05,-2.33137e-05,1.51992e-05,7.94333e-06,-1.83794e-05,1.13757e-05,-3.85385e-06,0
-2.21752e-05,2.34586e-05,-2.03138e-05,1.75605e-05,1.01843e-05,-1.85793e-05,1.46852e-05,-5.0635e-06,0
-2.24782e-05,2.23468e-05,-1.83202e-05,1.89553e-05,8.39385e-06,-2.0286e-05,1.839e-05,-5.22033e-06,0
-2.40984e-05,2.74736e-05,-1.8066e-05,1.18586e-05,5.56624e-06,-2.23851e-05,2.13064e-05,-4.71978e-06,0
-2.4737e-05,3.5852e-05,-1.96226e-05,-8.81714e-06,4.42234e-06,-2.35161e-05,2.18502e-05,-5.38625e-06,0
-2.33491e-05,4.28716e-05,-2.21549e-05,-3.58335e-05,5.31269e-06,-2.34155e-05,2.05429e-05,-6.27742e-06,0
-2.07555e-05,4.43511e-05,-2.39837e-05,-5.97406e-05,7.77174e-06,-2.4136e-05,1.96821e-05,-5.16322e-06,0
-1.93702e-05,3.86511e-05,-2.59085e-05,-7.33313e-05,1.10315e-05,-2.49723e-05,2.0083e-05,-2.39252e-06,0
-2.11022e-05,2.76567e-05,-2.85743e-05,-6.94562e-05,1.23481e-05,-2.42503e-05,2.06835e-05,-6.84786e-07,0
-2.31744e-05,1.42507e-05,-3.09268e-05,-4.59499e-05,1.16045e-05,-2.3792e-05,2.1283e-05,-5.09444e-07,0
-2.16835e-05,2.52108e-06,-3.00331e-05,-9.91177e-06,1.2553e-05,-2.37236e-05,2.1468e-05,-7.39562e-07,0
-1.84351e-05,-2.53135e-06,-2.53213e-05,2.47554e-05,1.57647e-05,-2.08649e-05,2.25862e-05,-1.39883e-06,0
-1.68388e-05,-3.84957e-06,-1.9398e-05,4.64142e-05,1.68453e-05,-1.65933e-05,2.4954e-05,-1.75263e-06,0
-1.71531e-05,-5.40051e-06,-1.54466e-05,4.33383e-05,1.52263e-05,-1.54825e-05,2.57677e-05,-9.34131e-07,0
-1.68683e-05,-5.65289e-06,-1.44737e-05,1.5826e-05,1.30042e-05,-1.6368e-05,2.52184e-05,-1.02729e-06,0
-1.83431e-05,-1.77739e-06,-1.35508e-05,-1.83796e-05,1.30071e-05,-1.58546e-05,2.50335e-05,-2.54409e-06,0
-2.16414e-05,5.93234e-06,-1.11683e-05,-4.5589e-05,1.42841e-05,-1.42578e-05,2.50052e-05,-3.95399e-06,0
-2.22025e-05,1.33645e-05,-7.83089e-06,-5.93797e-05,1.54701e-05,-1.54846e-05,2.37297e-05,-4.70753e-06,0
-2.20222e-05,1.7317e-05,-6.21448e-06,-5.59294e-05,1.81147e-05,-1.9468e-05,2.03101e-05,-4.23169e-06,0
-2.10233e-05,1.90226e-05,-6.32552e-06,-3.97315e-05,1.95212e-05,-2.13311e-05,1.79668e-05,-1.93944e-06,0
-1.9166e-05,2.07708e-05,-6.4283e-06,-1.54418e-05,1.89829e-05,-2.02056e-05,1.76813e-05,2.62841e-08,0
-1.78303e-05,2.08517e-05,-7.09416e-06,1.77542e-05,1.76401e-05,-1.90155e-05,1.64242e-05,-3.63748e-07,0
-1.76371e-05,1.88688e-05,-7.90844e-06,5.97728e-05,1.65328e-05,-1.89074e-05,1.42709e-05,-1.90146e-06,0
-1.84915e-05,1.63654e-05,-8.5436e-06,9.85049e-05,1.70689e-05,-1.90508e-05,1.2533e-05,-3.03259e-06,0
-1.9241e-05,1.49278e-05,-7.61766e-06,0.000113495,1.87963e-05,-1.84069e-05,1.15901e-05,-3.2264e-06,0
-1.83004e-05,1.38574e-05,-7.265e-06,0.000100846,2.02578e-05,-1.74581e-05,1.21509e-05,-2.9791e-06,0
-1.6845e-05,1.17752e-05,-8.93515e-06,7.82217e-05,2.13177e-05,-1.75761e-05,1.4398e-05,-4.05638e-06,0
-1.67828e-05,1.00884e-05,-1.19685e-05,6.21375e-05,2.31482e-05,-1.76257e-05,1.6571e-05,-5.30125e-06,0
-1.79275e-05,9.94857e-06,-1.49611e-05,5.30078e-05,2.62339e-05,-1.65937e-05,1.82159e-05,-5.19089e-06,0
-1.89844e-05,1.07979e-05,-1.56144e-05,4.08904e-05,2.91127e-05,-1.55428e-05,2.04807e-05,-4.28121e-06,0
-1.90452e-05,1.1774e-05,-1.37195e-05,1.84736e-05,2.99173e-05,-1.54526e-05,2.43675e-05,-3.25199e-06,0
-1.95811e-05,1.25105e-05,-1.10857e-05,-1.39942e-05,2.76303e-05,-1.61096e-05,2.85701e-05,-1.76586e-06,0
-2.05895e-05,1.27732e-05,-9.6e-06,-5.00937e-05,2.42773e-05,-1.65388e-05,3.06296e-05,-6.83795e-07,0
-2.2223e-05,1.24329e-05,-8.73861e-06,-7.68387e-05,2.19629e-05,-1.60009e-05,3.00721e-05,-1.85477e-06,0
-2.40129e-05,1.01363e-05,-6.86749e-06,-8.65517e-05,1.97584e-05,-1.3958e-05,2.72618e-05,-4.20301e-06,0
-2.5139e-05,6.44916e-06,-4.02608e-06,-7.92178e-05,1.60273e-05,-1.22536e-05,2.17299e-05,-6.39575e-06,0
-2.54952e-05,2.12615e-06,-4.17017e-06,-5.65728e-05,1.19111e-05,-1.19959e-05,1.31685e-05,-7.72085e-06,0
-2.51981e-05,-3.46909e-06,-7.47901e-06,-2.26926e-05,1.13212e-05,-1.25616e-05,3.96842e-06,-7.8269e-06,0
-2.50381e-05,-7.33761e-06,-1.09608e-05,6.75012e-06,1.31601e-05,-1.32192e-05,-1.0779e-06,-7.19222e-06,0
-2.55793e-05,-8.17301e-06,-1.25181e-05,1.12319e-05,1.29006e-05,-1.31462e-05,8.13272e-08,-5.45495e-06,0
-2.42403e-05,-8.8092e-06,-1.40088e-05,-1.04328e-05,1.34551e-05,-1.08608e-05,3.43792e-06,-2.67318e-06,0
-2.30114e-05,-1.05488e-05,-1.55307e-05,-2.81539e-05,1.62515e-05,-7.28073e-06,3.90213e-06,-6.45583e-07,0
-2.20147e-05,-1.28942e-05,-1.46113e-05,-2.11637e-05,1.74384e-05,-6.81098e-06,2.51121e-06,-7.04215e-07,0
-2.09677e-05,-1.4603e-05,-1.14188e-05,-5.08615e-06,1.60764e-05,-8.56718e-06,1.46696e-06,-1.8993e-06,0
-2.29316e-05,-1.32725e-05,-6.92257e-06,9.22616e-06,1.4737e-05,-9.0741e-06,1.53672e-06,-1.55967e-06,0
-2.51965e-05,-8.66202e-06,-1.99223e-06,2.19363e-05,1.56446e-05,-7.25009e-06,2.88316e-06,5.39987e-07,0
-2.49637e-05,-3.49096e-06,1.65657e-06,2.77619e-05,1.71699e-05,-5.10762e-06,3.40807e-06,2.43077e-06,0
-2.26712e-05,-8.41047e-07,1.73648e-06,2.27003e-05,1.90761e-05,-5.54608e-06,1.7165e-06,2.78099e-06,0
-2.20501e-05,-1.74018e-06,-4.68436e-07,1.66087e-05,2.04759e-05,-6.5819e-06,-1.13023e-06,1.2886e-06,0
-2.48716e-05,-2.72716e-06,-2.20197e-06,1.53579e-05,1.94053e-05,-7.23864e-06,-1.54328e-06,8.20202e-07,0
-2.81473e-05,-3.10883e-06,-1.73912e-06,1.35051e-05,1.74756e-05,-8.10368e-06,9.19736e-07,1.75915e-06,0
-2.9534e-05,-3.44859e-06,2.57165e-07,4.24457e-06,1.6606e-05,-9.68987e-06,5.34979e-06,2.47417e-06,0
-2.89605e-05,-2.98978e-06,9.60296e-07,-1.28073e-05,1.63182e-05,-1.1401e-05,9.9628e-06,2.1305e-06,0
-2.74517e-05,-9.34643e-07,-6.29926e-07,-2.80648e-05,1.4812e-05,-1.20318e-05,1.33859e-05,6.49455e-07,0
-2.65837e-05,1.1008e-06,-2.6746e-06,-3.41471e-05,1.21701e-05,-1.24021e-05,1.43161e-05,1.15389e-06,0
-2.66404e-05,8.8005e-07,-3.6444e-06,-3.28969e-05,9.72642e-06,-1.25066e-05,1.34288e-05,3.60669e-06,0
-2.75635e-05,-8.02778e-07,-3.73635e-06,-3.02463e-05,8.25688e-06,-1.22206e-05,1.31057e-05,4.97176e-06,0
-2.85257e-05,-3.58684e-06,-3.55386e-06,-2.59334e-05,8.59856e-06,-1.18164e-05,1.27201e-05,4.67722e-06,0
-2.88492e-05,-6.39584e-06,-3.59065e-06,-1.99116e-05,1.10926e-05,-1.2165e-05,1.16006e-05,5.21715e-06,0
-2.82608e-05,-6.20726e-06,-3.9382e-06,-1.37399e-05,1.49134e-05,-1.23455e-05,1.05594e-05,6.64245e-06,0
-2.73522e-05,-2.88151e-06,-3.99206e-06,-9.73354e-06,1.83468e-05,-1.04059e-05,1.15531e-05,7.89838e-06,0
-2.59924e-05,-4.6552e-08,-2.88536e-06,-8.39467e-06,1.82856e-05,-8.19931e-06,1.45008e-05,8.90083e-06,0
-2.49174e-05,1.80707e-06,1.69964e-08,-9.81193e-06,1.53604e-05,-8.51225e-06,1.70082e-05,8.78127e-06,0
-2.47427e-05,5.95537e-07,2.8605e-06,-1.4989e-05,1.35247e-05,-9.8063e-06,1.68827e-05,6.23955e-06,0
-2.58344e-05,-2.63673e-06,3.97249e-06,-2.09898e-05,1.13883e-05,-9.88777e-06,1.55821e-05,3.41251e-06,0
-2.83569e-05,-5.38411e-06,2.53857e-06,-1.9418e-05,9.5465e-06,-8.95775e-06,1.41856e-05,2.94957e-06,0
-3.0911e-05,-4.1836e-06,2.6297e-07,-1.0268e-05,9.13732e-06,-8.39564e-06,1.32841e-05,2.33502e-06,0
-3.24217e-05,9.61928e-07,9.06992e-07,-8.8201e-07,9.55164e-06,-8.2559e-06,1.32408e-05,1.51227e-06,0
-3.26431e-05,3.37053e-06,2.44506e-06,4.79536e-06,1.10655e-05,-8.19709e-06,1.43277e-05,2.56081e-06,0
-3.25286e-05,5.20738e-06,1.51553e-06,1.06571e-05,1.15917e-05,-8.75467e-06,1.55341e-05,3.92527e-06,0
-3.25631e-05,1.04486e-05,-5.79283e-07,3.2209e-05,1.0697e-05,-1.01735e-05,1.58422e-05,4.14915e-06,0
-3.34009e-05,1.75323e-05,-2.39356e-06,5.92926e-05,8.79087e-06,-1.09466e-05,1.68048e-05,3.98022e-06,0
-3.29248e-05,2.18796e-05,-3.84255e-06,6.01359e-05,6.9735e-06,-1.00536e-05,1.76495e-05,3.37134e-06,0
-3.06407e-05,2.39443e-05,-6.46879e-06,2.73806e-05,6.2978e-06,-9.16123e-06,1.6614e-05,3.05574e-06,0
-2.9596e-05,2.75532e-05,-1.14926e-05,-1.70593e-05,6.51641e-06,-8.46381e-06,1.45e-05,2.32485e-06,0
-3.1232e-05,3.35053e-05,-1.62847e-05,-4.8328e-05,6.55197e-06,-7.81793e-06,1.11316e-05,2.14583e-06,0
-3.38479e-05,3.86592e-05,-1.90283e-05,-6.34631e-05,6.24638e-06,-7.17451e-06,4.02626e-06,3.89466e-06,0
-3.48632e-05,3.97298e-05,-2.20636e-05,-6.62775e-05,6.06342e-06,-4.8007e-06,-3.89626e-06,5.22041e-06,0
-3.47859e-05,3.80007e-05,-2.64465e-05,-5.80042e-05,5.84802e-06,-1.7155e-06,-7.64879e-06,5.22506e-06,0
-3.51779e-05,3.48594e-05,-2.99103e-05,-4.19295e-05,6.19714e-06,-1.5394e-06,-5.84875e-06,3.63737e-06,0
-3.53146e-05,3.25278e-05,-3.05397e-05,-2.22308e-05,7.66798e-06,-3.34761e-06,-9.23549e-07,1.12962e-06,0
-3.61956e-05,3.1458e-05,-2.76929e-05,-6.66973e-06,1.01267e-05,-4.51977e-06,4.68738e-06,-5.1364e-08,0
-3.83109e-05,3.10645e-05,-2.37481e-05,-2.63828e-06,1.17934e-05,-3.94074e-06,1.22013e-05,6.03813e-07,0
-4.01496e-05,3.0936e-05,-2.09519e-05,-5.88798e-06,1.24731e-05,-2.78554e-06,2.20879e-05,1.78721e-06,0
-4.02608e-05,2.98205e-05,-1.99681e-05,-8.66287e-06,1.34032e-05,-2.19944e-06,3.18232e-05,3.5869e-06,0
-3.8614e-05,2.69639e-05,-1.93916e-05,-1.26297e-05,1.42901e-05,-1.48936e-06,3.81936e-05,5.23603e-06,0
-3.7926e-05,2.41931e-05,-1.72131e-05,-1.17807e-05,1.35343e-05,-1.83572e-06,4.07293e-05,5.31846e-06,0
-3.93893e-05,2.33419e-05,-1.4348e-05,1.98911e-06,1.20594e-05,-4.57814e-06,3.98024e-05,4.60188e-06,0
-4.08692e-05,2.31666e-05,-1.1835e-05,2.13875e-05,1.13614e-05,-7.57569e-06,3.56828e-05,4.68704e-06,0
-4.11691e-05,2.22698e-05,-9.98202e-06,3.22338e-05,1.14016e-05,-7.52953e-06,2.89742e-05,5.69817e-06,0
-4.19985e-05,2.01672e-05,-9.68278e-06,2.82534e-05,1.20669e-05,-4.7373e-06,2.32187e-05,6.29784e-06,0
-4.35973e-05,1.76937e-05,-1.11558e-05,1.18005e-05,1.30341e-05,-2.50819e-06,2.43278e-05,6.90702e-06,0
-4.41855e-05,1.59536e-05,-1.34221e-05,-1.86505e-05,1.4202e-05,-1.91534e-06,2.82471e-05,8.07144e-06,0
-4.26276e-05,1.50456e-05,-1.49289e-05,-5.7827e-05,1.40262e-05,-1.93947e-06,2.89154e-05,7.90219e-06,0
-4.12353e-05,1.19822e-05,-1.41278e-05,-8.51626e-05,1.22116e-05,-1.80003e-06,2.77363e-05,6.34626e-06,0
-4.13025e-05,6.61547e-06,-1.19306e-05,-8.76845e-05,1.08953e-05,-1.05692e-06,2.6969e-05,5.57276e-06,0
-4.15636e-05,3.19982e-06,-8.60335e-06,-7.54372e-05,1.12046e-05,1.51168e-07,2.50544e-05,6.80268e-06,0
-4.01702e-05,2.18845e-06,-6.00519e-06,-6.32353e-05,1.25988e-05,4.28035e-07,2.10539e-05,8.39749e-06,0
-3.80109e-05,1.38425e-06,-5.82014e-06,-4.58757e-05,1.5256e-05,-2.28403e-07,1.85108e-05,8.54881e-06,0
-3.67609e-05,9.06415e-07,-5.45087e-06,-2.40148e-05,1.49786e-05,1.03195e-06,1.6648e-05,8.23035e-06,0
-3.77662e-05,2.08904e-07,-4.48842e-06,-1.23561e-05,1.08087e-05,2.02488e-06,1.45219e-05,7.90877e-06,0
-3.97956e-05,-6.53534e-07,-3.77794e-06,-1.79098e-05,5.93627e-06,1.84709e-06,1.21631e-05,7.09362e-06,0
-4.12244e-05,-9.14456e-07,-3.49345e-06,-2.67724e-05,2.57475e-06,1.29737e-06,9.98909e-06,5.49616e-06,0
-4.17751e-05,-3.92607e-07,-4.09581e-06,-2.03154e-05,2.1729e-06,5.96703e-07,9.04006e-06,5.02826e-06,0
-4.10418e-05,1.43242e-06,-4.37904e-06,-2.50957e-07,3.78941e-06,-7.46125e-08,7.93471e-06,5.41194e-06,0
-4.00855e-05,2.69441e-06,-4.57768e-06,1.93876e-05,7.72123e-06,-7.10308e-07,4.99989e-06,5.83657e-06,0
-3.90969e-05,2.99656e-06,-4.75985e-06,3.04602e-05,1.27421e-05,-6.49884e-07,1.67213e-06,6.39679e-06,0
-3.86669e-05,4.26035e-06,-2.57275e-06,3.6455e-05,1.79055e-05,1.69913e-07,8.99306e-08,6.51524e-06,0
-3.86106e-05,6.78703e-06,1.08407e-06,5.16738e-05,1.99678e-05,1.6473e-06,9.70657e-08,6.04724e-06,0
-3.85213e-05,9.98181e-06,3.40183e-06,9.42935e-05,1.66454e-05,1.58133e-06,1.38279e-06,5.15195e-06,0
-3.71958e-05,1.37491e-05,4.30872e-06,0.000147894,1.11854e-05,-5.02157e-07,2.96316e-06,5.08932e-06,0
-3.55174e-05,1.70671e-05,5.48669e-06,0.000158736,6.72363e-06,-2.87135e-06,5.06969e-06,4.79205e-06,0
-3.42802e-05,1.91378e-05,6.13784e-06,0.000105142,3.41803e-06,-3.36474e-06,7.17991e-06,3.31045e-06,0
-3.31328e-05,2.08233e-05,5.77249e-06,3.68421e-05,2.43329e-06,-1.44791e-06,8.73558e-06,1.00749e-06,0
-3.08729e-05,2.34913e-05,6.44974e-06,4.55244e-06,4.29049e-06,2.02452e-06,1.01809e-05,-1.19422e-06,0
-2.85281e-05,2.79651e-05,7.90473e-06,4.69995e-06,6.75363e-06,5.12114e-06,1.22321e-05,-2.32157e-06,0
-2.83233e-05,3.25839e-05,7.89395e-06,1.50512e-05,8.81952e-06,7.19359e-06,1.51436e-05,-1.58282e-06,0
-3.01263e-05,3.45627e-05,4.87622e-06,2.34851e-05,1.08568e-05,7.74837e-06,1.80531e-05,-2.36655e-08,0
-3.26681e-05,3.34054e-05,6.35347e-07,1.74542e-05,1.21842e-05,6.54242e-06,1.88941e-05,1.65638e-06,0
-3.38674e-05,3.12705e-05,-4.66328e-08,-2.65602e-06,1.16992e-05,4.83535e-06,1.78242e-05,3.33298e-06,0
-3.39374e-05,2.95399e-05,6.40011e-07,-2.92328e-05,1.16352e-05,4.43767e-06,1.61319e-05,2.6368e-06,0
-3.1556e-05,2.84196e-05,-1.24462e-06,-6.28249e-05,1.17039e-05,5.70322e-06,1.4424e-05,-4.7542e-07,0
-2.90706e-05,2.80596e-05,-3.70036e-06,-8.44453e-05,1.22754e-05,6.0105e-06,1.25659e-05,-2.31931e-06,0
-2.95834e-05,2.80205e-05,-5.84457e-06,-8.20316e-05,1.29251e-05,4.75776e-06,1.13117e-05,-2.69957e-06,0
-3.07413e-05,2.75525e-05,-6.10338e-06,-6.96873e-05,1.23745e-05,4.92956e-06,1.01752e-05,-2.57403e-06,0
-3.11464e-05,2.66973e-05,-4.33201e-06,-5.3015e-05,1.2135e-05,6.28366e-06,8.26699e-06,-2.5782e-06,0
-3.12089e-05,2.51622e-05,-5.11094e-06,-3.85805e-05,1.18282e-05,6.33668e-06,6.51698e-06,-4.44195e-06,0
-3.1459e-05,2.29689e-05,-8.24382e-06,-2.91086e-05,1.11248e-05,5.53434e-06,4.77369e-06,-5.22661e-06,0
-3.09379e-05,2.26851e-05,-9.19092e-06,-2.22276e-05,9.63296e-06,5.56204e-06,4.46295e-06,-4.53509e-06,0
-3.05061e-05,2.50948e-05,-7.94522e-06,-2.29788e-05,9.71738e-06,5.47253e-06,5.51053e-06,-5.14879e-06,0
-3.04808e-05,2.74493e-05,-5.44448e-06,-2.77981e-05,1.08534e-05,3.5665e-06,7.73343e-06,-7.23506e-06,0
-3.01064e-05,2.76623e-05,-2.99377e-06,-2.28317e-05,1.37306e-05,2.15706e-06,9.29478e-06,-9.37128e-06,0
-2.93847e-05,2.75997e-05,-2.20494e-06,-5.64439e-06,2.03694e-05,2.65472e-06,9.4563e-06,-1.10806e-05,0
-2.88673e-05,2.77239e-05,-2.0119e-06,1.23909e-05,2.6435e-05,3.54369e-06,9.04525e-06,-1.19054e-05,0
-2.90099e-05,2.61674e-05,-1.29368e-06,2.43184e-05,2.7109e-05,3.23212e-06,8.11196e-06,-1.24299e-05,0
-2.93373e-05,2.32067e-05,-3.77509e-07,2.74762e-05,2.40417e-05,3.3238e-06,7.19065e-06,-1.27962e-05,0
-2.94111e-05,2.07357e-05,-4.12321e-07,2.21716e-05,2.15203e-05,4.23943e-06,6.9077e-06,-1.20431e-05,0
-3.01161e-05,1.92915e-05,-1.20463e-06,1.00948e-05,2.05733e-05,3.91722e-06,7.85221e-06,-1.06359e-05,0
-3.23002e-05,1.7927e-05,-2.02497e-06,-2.99582e-06,2.04598e-05,1.86626e-06,8.33719e-06,-9.23584e-06,0
-3.36514e-05,1.61699e-05,-1.52281e-06,-1.39739e-05,1.87049e-05,-1.01088e-07,7.76513e-06,-7.99357e-06,0
-3.27386e-05,1.43055e-05,3.72022e-07,-1.9845e-05,1.55189e-05,-1.99942e-06,6.93671e-06,-6.42591e-06,0
-3.04879e-05,1.3063e-05,7.75166e-07,-1.64256e-05,1.37365e-05,-4.91684e-06,5.50354e-06,-5.02566e-06,0
-2.91026e-05,1.25451e-05,-1.4445e-06,-5.70421e-06,1.55184e-05,-7.37013e-06,2.96867e-06,-3.99512e-06,0
-2.89849e-05,1.22728e-05,-4.86431e-06,3.8682e-06,1.79574e-05,-8.83777e-06,1.75197e-06,-3.33241e-06,0
-2.90396e-05,1.147e-05,-9.44314e-06,4.8913e-06,1.85522e-05,-9.89114e-06,3.47609e-06,-2.05589e-06,0
-2.86854e-05,1.20684e-05,-1.43682e-05,-3.44954e-06,1.7716e-05,-1.06056e-05,6.96569e-06,1.10125e-07,0
-2.8494e-05,1.41143e-05,-1.76424e-05,-1.67085e-05,1.45202e-05,-1.10848e-05,8.82738e-06,1.60211e-06,0
-2.96076e-05,1.43928e-05,-1.866e-05,-2.78816e-05,1.0788e-05,-1.21159e-05,8.80101e-06,1.59136e-06,0
-3.21392e-05,1.25258e-05,-1.99745e-05,-3.38857e-05,1.08066e-05,-1.24997e-05,1.03341e-05,2.26622e-06,0
-3.26067e-05,1.0718e-05,-2.17619e-05,-3.17565e-05,1.39314e-05,-1.30173e-05,1.31413e-05,2.4543e-06,0
-3.14627e-05,9.25262e-06,-2.27033e-05,-2.02802e-05,1.63597e-05,-1.41802e-05,1.43528e-05,2.48786e-06,0
-3.10374e-05,7.64188e-06,-2.22871e-05,-6.64043e-06,1.67914e-05,-1.57266e-05,1.25778e-05,5.27453e-06,0
-3.00015e-05,6.40923e-06,-2.00713e-05,4.05489e-06,1.5243e-05,-1.69648e-05,1.0757e-05,7.78319e-06,0
-2.9201e-05,4.50144e-06,-2.00426e-05,1.26039e-05,1.16304e-05,-1.73007e-05,9.59704e-06,8.39178e-06,0
-2.88166e-05,2.57119e-06,-2.12629e-05,1.67592e-05,7.20848e-06,-1.81739e-05,9.36048e-06,6.7518e-06,0
-2.84822e-05,1.46912e-06,-2.15596e-05,1.61985e-05,6.55042e-06,-1.7045e-05,1.15864e-05,4.62381e-06,0
-2.81666e-05,2.68888e-06,-2.06124e-05,1.44014e-05,9.82657e-06,-1.54023e-05,1.35491e-05,4.00971e-06,0
-2.78385e-05,5.20009e-06,-1.89834e-05,1.04515e-05,1.09041e-05,-1.57895e-05,1.31716e-05,4.78195e-06,0
