ch1,ch2,ch3,ch4,ch5,ch6,ch7,ch8,class
-2.57634e-05,4.23977e-06,-1.84645e-05,-2.06518e-05,7.6916e-06,-6.33003e-06,-2.21646e-06,-1.92313e-06,0
-2.53383e-05,5.53353e-06,-1.8874e-05,-2.65018e-05,7.57868e-06,-8.08375e-06,-3.99477e-06,-2.66019e-06,0
-2.57479e-05,7.32573e-06,-1.93033e-05,-3.16552e-05,8.22854e-06,-9.65795e-06,-3.92205e-06,-8.30456e-07,0
-2.79334e-05,9.28725e-06,-1.80268e-05,-3.88691e-05,7.19364e-06,-1.00354e-05,-5.21153e-06,3.2457e-07,0
-2.99156e-05,1.14154e-05,-1.65724e-05,-4.7327e-05,5.99893e-06,-8.83042e-06,-5.8436e-06,-9.34975e-07,0
-2.89379e-05,1.27121e-05,-1.56621e-05,-5.15292e-05,6.81628e-06,-8.25201e-06,-1.82962e-06,-1.59887e-06,0
-2.75386e-05,1.29905e-05,-1.49159e-05,-4.77628e-05,6.89755e-06,-7.25382e-06,2.72889e-06,1.37752e-07,0
-2.76909e-05,1.08167e-05,-1.37361e-05,-3.69508e-05,4.1576e-06,-5.49154e-06,5.77285e-06,1.40332e-06,0
-2.95345e-05,9.79914e-06,-1.25218e-05,-2.16429e-05,1.76594e-06,-5.34145e-06,7.76023e-06,2.9649e-08,0
-3.14224e-05,1.02714e-05,-1.32916e-05,-3.48137e-06,1.36606e-06,-6.33737e-06,7.43797e-06,-1.79751e-06,0
-3.22603e-05,1.14637e-05,-1.37426e-05,1.36011e-05,1.70934e-06,-7.92834e-06,4.82818e-06,-2.62901e-06,0
-3.28247e-05,1.45889e-05,-1.29245e-05,2.49253e-05,2.1914e-06,-8.67643e-06,1.45136e-06,-2.69208e-06,0
-3.34964e-05,1.79274e-05,-1.04052e-05,2.84765e-05,3.50446e-06,-8.53004e-06,-7.86229e-08,-2.90963e-06,0
-3.32761e-05,1.90395e-05,-7.82006e-06,2.51512e-05,5.60974e-06,-9.03815e-06,1.64785e-06,-4.28461e-06,0
-3.24496e-05,1.90106e-05,-6.78372e-06,1.73751e-05,7.43793e-06,-1.0402e-05,4.07977e-06,-6.14273e-06,0
-3.19349e-05,2.05941e-05,-7.73012e-06,9.36622e-06,8.48173e-06,-1.15024e-05,1.52779e-06,-7.19866e-06,0
-3.16635e-05,2.23812e-05,-8.65836e-06,3.7264e-06,9.49185e-06,-1.0825e-05,-4.1307e-06,-6.99426e-06,0
-3.20079e-05,2.32524e-05,-7.56479e-06,-3.15007e-07,1.13014e-05,-9.72364e-06,-5.7119e-06,-6.21734e-06,0
-3.2977e-05,2.23238e-05,-5.9093e-06,-3.02799e-06,1.28515e-05,-9.74397e-06,-1.00442e-06,-5.58722e-06,0
-3.32497e-05,2.07336e-05,-4.35483e-06,-4.04513e-06,1.24377e-05,-1.02162e-05,6.98809e-06,-5.22385e-06,0
-3.25939e-05,1.98748e-05,-2.85191e-06,-4.73026e-06,1.05257e-05,-1.04214e-05,1.54869e-05,-4.39951e-06,0
-3.20614e-05,1.99375e-05,-2.12367e-06,-6.36428e-06,8.7039e-06,-1.09397e-05,2.42535e-05,-3.59259e-06,0
-3.21508e-05,2.00024e-05,-4.11606e-06,-7.31436e-06,7.39989e-06,-1.15791e-05,3.26888e-05,-3.98089e-06,0
-3.33708e-05,1.93202e-05,-6.53455e-06,-7.09276e-06,6.33382e-06,-1.22748e-05,3.85654e-05,-4.58202e-06,0
-3.42446e-05,1.59481e-05,-8.26037e-06,-5.98403e-06,5.80007e-06,-1.32951e-05,4.21642e-05,-4.39805e-06,0
-3.40331e-05,1.28323e-05,-9.54475e-06,-4.66187e-06,7.08635e-06,-1.50083e-05,4.43653e-05,-3.80952e-06,0
-3.34871e-05,1.37584e-05,-1.01377e-05,-3.3953e-06,7.21783e-06,-1.80738e-05,4.44895e-05,-3.52386e-06,0
-3.14036e-05,1.58523e-05,-9.2764e-06,-3.91585e-06,3.49713e-06,-1.98184e-05,4.32841e-05,-4.56739e-06,0
-2.96752e-05,1.65765e-05,-7.66437e-06,-5.92383e-06,3.71003e-08,-1.6926e-05,4.09656e-05,-7.01638e-06,0
-2.84176e-05,1.7431e-05,-7.19824e-06,-7.06248e-06,5.89689e-07,-1.26082e-05,3.91606e-05,-8.17689e-06,0
-2.57617e-05,1.88894e-05,-7.11927e-06,-6.79059e-06,3.57234e-06,-1.05873e-05,3.97483e-05,-7.58741e-06,0
-2.49571e-05,1.93359e-05,-5.79182e-06,-3.24442e-06,7.46125e-06,-1.01144e-05,3.82311e-05,-5.95476e-06,0
-2.6723e-05,1.88002e-05,-4.75146e-06,2.90644e-07,1.17314e-05,-1.2191e-05,3.3802e-05,-2.37406e-06,0
-2.96374e-05,1.85856e-05,-5.53435e-06,1.50825e-06,1.40364e-05,-1.44664e-05,2.9995e-05,2.5941e-06,0
-3.12341e-05,1.93128e-05,-6.35953e-06,6.5523e-07,1.42532e-05,-1.49425e-05,2.70793e-05,5.72619e-06,0
-2.96034e-05,1.82546e-05,-6.54856e-06,-1.39249e-06,1.38339e-05,-1.44365e-05,2.42927e-05,6.48128e-06,0
-2.77375e-05,1.42386e-05,-5.77478e-06,4.21254e-07,1.55336e-05,-1.37489e-05,2.04142e-05,6.56166e-06,0
-2.87601e-05,9.0257e-06,-5.32104e-06,3.9015e-06,1.81725e-05,-1.41717e-05,1.73571e-05,5.79896e-06,0
-3.1326e-05,4.46333e-06,-5.94405e-06,4.075e-06,1.98299e-05,-1.51289e-05,1.56497e-05,4.05472e-06,0
-3.35417e-05,2.0939e-06,-6.34526e-06,2.28097e-07,1.90434e-05,-1.62802e-05,1.42837e-05,2.74155e-06,0
-3.4373e-05,1.3706e-06,-7.02279e-06,-4.63208e-06,1.53549e-05,-1.7252e-05,1.33472e-05,2.39206e-06,0
-3.29193e-05,3.07769e-07,-7.40017e-06,-5.49557e-06,1.20367e-05,-1.79158e-05,1.34684e-05,1.66233e-06,0
-3.06478e-05,-1.5843e-06,-6.83161e-06,-1.20436e-06,1.08745e-05,-1.8146e-05,1.40975e-05,1.3053e-06,0
-2.90772e-05,-2.84697e-06,-5.98929e-06,4.0386e-06,1.08239e-05,-1.83505e-05,1.445e-05,1.93521e-06,0
-2.85036e-05,-2.46499e-06,-5.48564e-06,5.81855e-06,1.0665e-05,-1.86826e-05,1.3644e-05,2.30358e-06,0
-2.79497e-05,-1.58719e-06,-5.53342e-06,3.57714e-06,1.10655e-05,-1.75719e-05,1.16013e-05,1.4678e-06,0
-2.71616e-05,-1.42713e-06,-5.69462e-06,-1.19647e-06,1.22433e-05,-1.55224e-05,9.91581e-06,4.27855e-07,0
-2.72263e-05,-2.32841e-06,-5.40685e-06,-6.39767e-06,1.53682e-05,-1.49113e-05,9.46235e-06,-9.25527e-08,0
-2.77199e-05,-3.02868e-06,-5.22436e-06,-1.07657e-05,1.91224e-05,-1.47475e-05,9.29277e-06,2.68183e-07,0
-2.76478e-05,-3.01376e-06,-5.60822e-06,-1.43826e-05,2.15319e-05,-1.40144e-05,8.55397e-06,2.45053e-06,0
-2.75056e-05,-2.13698e-06,-6.13362e-06,-1.91004e-05,2.08531e-05,-1.4016e-05,8.24097e-06,4.16886e-06,0
-2.73553e-05,-1.09178e-06,-8.01984e-06,-2.25294e-05,1.77966e-05,-1.47253e-05,7.52914e-06,1.98045e-06,0
-2.83973e-05,-6.121e-08,-1.05558e-05,-2.10732e-05,1.59566e-05,-1.39376e-05,7.64434e-06,-1.61746e-06,0
-3.06179e-05,2.05986e-06,-1.11332e-05,-1.56032e-05,1.69219e-05,-1.3016e-05,9.75052e-06,-1.37247e-06,0
-3.22835e-05,4.3657e-06,-9.9926e-06,-1.02427e-05,1.9956e-05,-1.13687e-05,1.15179e-05,1.65723e-06,0
-3.19413e-05,5.48825e-06,-7.64148e-06,-9.48782e-06,2.16892e-05,-8.49652e-06,1.17699e-05,3.10314e-06,0
-3.04945e-05,5.57841e-06,-4.51216e-06,-1.26984e-05,2.01779e-05,-8.03665e-06,1.29176e-05,3.64339e-06,0
-3.08437e-05,5.13007e-06,-1.26113e-06,-1.34559e-05,1.80551e-05,-8.85197e-06,1.46175e-05,2.58506e-06,0
-3.31137e-05,4.14338e-06,2.01319e-06,-1.13605e-05,1.73628e-05,-9.63876e-06,1.43013e-05,2.44684e-06,0
-3.46429e-05,4.11451e-06,5.63049e-06,-1.21111e-05,1.79823e-05,-9.28184e-06,1.27275e-05,4.6227e-06,0
-3.44598e-05,4.15135e-06,1.36933e-05,-1.47625e-05,1.80651e-05,-7.30931e-06,1.15876e-05,6.94117e-06,0
-3.35754e-05,3.1958e-06,2.9953e-05,-1.72203e-05,1.47978e-05,-5.65721e-06,1.25933e-05,7.80665e-06,0
-3.27551e-05,2.95406e-06,5.29722e-05,-1.78421e-05,1.09939e-05,-5.49105e-06,1.4202e-05,5.04005e-06,0
-3.3751e-05,3.30698e-06,7.27097e-05,-1.60889e-05,9.30805e-06,-5.9283e-06,1.41965e-05,2.65201e-06,0
-3.40889e-05,5.74967e-06,7.79995e-05,-1.57869e-05,9.13428e-06,-6.77808e-06,1.40066e-05,2.1628e-06,0
-3.29835e-05,8.7833e-06,6.28323e-05,-1.88557e-05,1.0907e-05,-8.02175e-06,1.38596e-05,2.91385e-06,0
-3.24179e-05,8.25391e-06,2.96758e-05,-2.24113e-05,1.31011e-05,-8.97744e-06,1.21119e-05,3.66336e-06,0
-3.25237e-05,5.39784e-06,-1.31404e-05,-2.24594e-05,1.4302e-05,-9.01384e-06,9.6452e-06,4.66087e-06,0
-3.26113e-05,3.38542e-06,-5.46634e-05,-1.78486e-05,1.45666e-05,-8.50031e-06,8.50134e-06,5.77709e-06,0
-3.2115e-05,3.33891e-06,-8.4657e-05,-1.08726e-05,1.3872e-05,-7.91989e-06,9.10898e-06,7.03795e-06,0
-3.16339e-05,5.78293e-06,-9.81762e-05,-3.48509e-06,1.32844e-05,-7.1989e-06,1.01374e-05,8.13985e-06,0
-3.14839e-05,8.50087e-06,-9.50438e-05,1.88659e-06,1.36302e-05,-6.79616e-06,1.02801e-05,8.74088e-06,0
-3.16189e-05,8.76751e-06,-8.06786e-05,1.17228e-06,1.50504e-05,-6.23499e-06,1.05635e-05,9.14169e-06,0
-3.12289e-05,7.50895e-06,-6.32672e-05,-4.64247e-06,1.72921e-05,-5.33625e-06,1.07385e-05,8.808e-06,0
-3.09499e-05,6.50078e-06,-4.91021e-05,-1.07998e-05,1.94603e-05,-4.70985e-06,1.05924e-05,8.34736e-06,0
-3.13867e-05,6.57731e-06,-3.80956e-05,-1.38502e-05,2.00387e-05,-5.41585e-06,1.08175e-05,7.39684e-06,0
-3.10892e-05,7.23551e-06,-2.91784e-05,-1.25603e-05,2.00433e-05,-6.83484e-06,1.09195e-05,6.72767e-06,0
-2.97863e-05,8.35474e-06,-1.99419e-05,-9.08712e-06,2.04601e-05,-8.14408e-06,1.03344e-05,7.06333e-06,0
-2.89627e-05,1.09329e-05,-1.18409e-05,-5.3753e-06,1.96497e-05,-6.77643e-06,9.5362e-06,7.19845e-06,0
-2.90203e-05,1.42069e-05,-7.598e-06,-3.33799e-06,1.85149e-05,-3.29874e-06,1.11632e-05,7.07463e-06,0
-2.9689e-05,1.53236e-05,-5.61527e-06,-3.66904e-06,1.86975e-05,-1.91602e-06,1.38551e-05,7.12558e-06,0
-3.00282e-05,1.62724e-05,-4.88023e-06,-1.63834e-06,2.03661e-05,-2.6859e-06,1.48899e-05,6.24741e-06,0
-2.9781e-05,1.71429e-05,-5.40401e-06,7.26629e-06,2.1279e-05,-2.71249e-06,1.4976e-05,5.90198e-06,0
-2.88667e-05,1.68364e-05,-6.70023e-06,2.21349e-05,2.11808e-05,-5.23433e-07,1.3858e-05,5.59512e-06,0
-2.87288e-05,1.73918e-05,-6.47285e-06,3.47894e-05,2.21727e-05,1.93516e-06,1.11548e-05,4.48798e-06,0
-2.88523e-05,1.79877e-05,-5.0792e-06,3.9083e-05,2.21362e-05,2.00954e-06,8.14386e-06,3.3379e-06,0
-2.77847e-05,1.86059e-05,-4.72422e-06,3.64711e-05,2.06197e-05,5.61495e-07,7.64012e-06,3.63739e-06,0
-2.84941e-05,1.86555e-05,-4.15206e-06,3.02245e-05,1.90319e-05,1.19454e-07,8.93011e-06,3.50361e-06,0
-3.05788e-05,1.56963e-05,-1.33155e-06,2.18894e-05,1.80476e-05,-5.5747e-07,1.01871e-05,1.45964e-06,0
-3.04488e-05,1.30433e-05,1.53275e-06,1.69791e-05,1.71694e-05,-4.84456e-07,1.14608e-05,-7.20263e-07,0
-2.89926e-05,1.22529e-05,1.5763e-06,1.66039e-05,1.58632e-05,8.82201e-07,1.10551e-05,-1.20687e-06,0
-2.84666e-05,1.19494e-05,1.32214e-06,1.38858e-05,1.59774e-05,2.15664e-06,9.8907e-06,7.19233e-07,0
-2.73105e-05,1.24702e-05,1.81566e-06,5.78872e-06,1.88329e-05,1.95375e-06,8.9654e-06,2.72573e-06,0
-2.53473e-05,1.37236e-05,6.07264e-07,-6.74937e-06,2.11164e-05,1.28715e-07,7.89056e-06,4.36443e-06,0
-2.46427e-05,1.61576e-05,-3.42668e-06,-1.7982e-05,1.8844e-05,-1.03299e-06,7.0694e-06,5.12375e-06,0
-2.56445e-05,1.89901e-05,-8.25051e-06,-2.35226e-05,1.44227e-05,-1.44201e-06,7.01604e-06,3.97807e-06,0
-2.72306e-05,2.04142e-05,-9.9293e-06,-2.29221e-05,1.10116e-05,-2.07861e-06,8.40763e-06,2.5422e-06,0
-2.85734e-05,2.00661e-05,-7.75201e-06,-1.68731e-05,7.61948e-06,-3.48804e-06,1.20998e-05,2.67891e-06,0
-2.86556e-05,2.02228e-05,-4.49338e-06,-8.19915e-06,4.68025e-06,-4.22171e-06,1.65964e-05,3.07637e-06,0
-2.81662e-05,2.21201e-05,-2.5597e-06,-3.7937e-06,4.8064e-06,-3.91607e-06,1.80935e-05,3.38319e-06,0
-2.88841e-05,2.47415e-05,-1.51772e-06,-6.23384e-06,7.57394e-06,-3.70885e-06,1.51363e-05,3.46212e-06,0
-2.97069e-05,2.58842e-05,-1.36431e-06,-1.19159e-05,1.05738e-05,-4.30342e-06,1.08707e-05,1.87507e-06,0
-2.96432e-05,2.48509e-05,-2.48922e-06,-1.81767e-05,1.13703e-05,-4.64464e-06,8.90866e-06,-5.31699e-07,0
-2.95826e-05,2.27396e-05,-3.67604e-06,-2.34408e-05,9.56271e-06,-3.69262e-06,8.61317e-06,-8.15097e-07,0
-3.00975e-05,2.1166e-05,-3.78411e-06,-2.60413e-05,6.84507e-06,-2.58811e-06,8.30084e-06,-9.11459e-08,0
-2.94798e-05,2.16751e-05,-4.13952e-06,-2.48969e-05,4.6006e-06,-3.50278e-06,8.44645e-06,-4.74015e-07,0
-2.83404e-05,2.52994e-05,-4.48104e-06,-2.17757e-05,3.6697e-06,-6.22682e-06,1.03636e-05,2.73318e-07,0
-2.85858e-05,2.82222e-05,-5.06472e-06,-1.7729e-05,3.83093e-06,-8.71894e-06,1.13455e-05,1.92289e-06,0
-2.92455e-05,2.8925e-05,-5.61296e-06,-1.57476e-05,5.37133e-06,-9.63669e-06,1.08701e-05,3.87321e-06,0
-2.94687e-05,2.98116e-05,-6.02797e-06,-2.10136e-05,6.5194e-06,-9.51212e-06,1.05288e-05,4.31574e-06,0
-2.95698e-05,3.04575e-05,-7.40667e-06,-2.56752e-05,6.93106e-06,-1.02684e-05,1.01813e-05,2.35801e-06,0
-2.95454e-05,3.05964e-05,-7.24666e-06,-2.11242e-05,1.09494e-05,-1.08684e-05,1.05384e-05,7.05607e-07,0
-2.87866e-05,2.96613e-05,-5.34644e-06,-1.21312e-05,1.47908e-05,-1.13922e-05,1.32579e-05,-1.1521e-06,0
-2.89278e-05,2.88047e-05,-4.02603e-06,-5.40686e-06,1.38926e-05,-1.22423e-05,1.82726e-05,-2.18983e-06,0
-2.95349e-05,2.84951e-05,-4.98467e-06,-4.07931e-06,1.04925e-05,-1.14398e-05,2.09083e-05,-1.34314e-06,0
-3.05656e-05,2.74752e-05,-5.78579e-06,-5.88581e-06,8.68892e-06,-8.84926e-06,2.06609e-05,-5.09685e-07,0
-3.13604e-05,2.72591e-05,-5.91113e-06,-7.02697e-06,1.22896e-05,-7.27275e-06,1.87395e-05,-1.26765e-06,0
-3.13167e-05,2.82854e-05,-6.89573e-06,-5.92866e-06,2.00991e-05,-6.70043e-06,1.71871e-05,-9.50893e-07,0
-3.15414e-05,2.6782e-05,-7.73245e-06,-6.15927e-06,2.55261e-05,-6.22614e-06,1.74708e-05,1.50637e-06,0
-3.22826e-05,2.26413e-05,-8.54067e-06,-9.48117e-06,2.59366e-05,-6.42274e-06,1.78551e-05,2.87561e-06,0
-3.36299e-05,2.03772e-05,-8.62044e-06,-1.40379e-05,2.34204e-05,-6.9301e-06,1.69337e-05,2.03673e-06,0
-3.35698e-05,2.09289e-05,-8.04107e-06,-1.74219e-05,1.85164e-05,-8.01699e-06,1.50434e-05,9.97505e-07,0
-3.23236e-05,2.15029e-05,-5.89458e-06,-1.65612e-05,1.29852e-05,-1.02013e-05,1.38814e-05,1.78792e-06,0
-3.14124e-05,2.06696e-05,-3.10817e-06,-1.16455e-05,9.03774e-06,-1.28106e-05,1.26493e-05,3.2948e-06,0
-3.19528e-05,1.89419e-05,-2.11307e-06,-5.85119e-06,8.39383e-06,-1.32757e-05,1.13131e-05,3.52789e-06,0
-3.24984e-05,1.73931e-05,-2.68993e-06,-2.98718e-06,8.94697e-06,-1.18549e-05,1.05855e-05,2.74866e-06,0
-3.2816e-05,1.67369e-05,-3.10163e-06,-5.78404e-06,8.13503e-06,-1.03284e-05,1.12767e-05,2.78522e-06,0
-3.29731e-05,1.63061e-05,-3.22297e-06,-1.56768e-05,7.51582e-06,-9.21358e-06,1.23874e-05,3.24512e-06,0
-3.28731e-05,1.5159e-05,-4.58206e-06,-2.70017e-05,1.01181e-05,-7.9956e-06,1.31123e-05,3.09536e-06,0
-3.32853e-05,1.31812e-05,-6.18422e-06,-3.0465e-05,1.49046e-05,-7.09494e-06,1.37067e-05,2.80374e-06,0
-3.36051e-05,9.79349e-06,-6.53479e-06,-2.541e-05,1.85475e-05,-7.94503e-06,1.28642e-05,3.96738e-06,0
-3.29033e-05,6.7967e-06,-6.05352e-06,-1.95382e-05,1.89684e-05,-9.54926e-06,7.39016e-06,4.91166e-06,0
-3.13958e-05,6.53683e-06,-5.15154e-06,-1.92588e-05,1.62975e-05,-1.0174e-05,-3.58841e-06,3.64217e-06,0
-3.04488e-05,7.17638e-06,-3.59519e-06,-2.07118e-05,1.29282e-05,-9.53808e-06,-1.64777e-05,2.67688e-06,0
-3.06302e-05,8.41324e-06,-1.73363e-06,-1.19211e-05,1.00674e-05,-8.57723e-06,-2.39653e-05,4.71849e-06,0
-3.07906e-05,9.72206e-06,-1.03409e-06,1.01336e-05,6.94732e-06,-9.28524e-06,-2.16637e-05,7.37566e-06,0
-3.03801e-05,9.33755e-06,-2.24064e-06,3.622e-05,4.0345e-06,-1.21164e-05,-1.2095e-05,9.33394e-06,0
-3.14363e-05,7.56627e-06,-2.31142e-06,5.30756e-05,3.45643e-06,-1.30631e-05,-1.36442e-06,8.8366e-06,0
-3.26613e-05,6.00004e-06,-1.06815e-06,6.00628e-05,4.73001e-06,-1.2922e-05,7.50375e-06,5.54923e-06,0
-3.19889e-05,5.01787e-06,-1.36427e-06,5.74664e-05,8.08664e-06,-1.40638e-05,1.68486e-05,3.04196e-06,0
-2.98704e-05,3.5303e-06,-4.86008e-06,4.21659e-05,1.16172e-05,-1.46552e-05,2.45677e-05,2.84165e-06,0
-2.85989e-05,2.01665e-06,-8.9198e-06,2.65397e-05,1.41955e-05,-1.48974e-05,2.91217e-05,5.03394e-06,0
-2.84925e-05,5.66878e-07,-1.04103e-05,1.67851e-05,1.69043e-05,-1.49447e-05,3.07615e-05,6.32575e-06,0
-2.79046e-05,3.37746e-07,-1.20811e-05,1.26345e-05,1.77592e-05,-1.54363e-05,3.05473e-05,5.72312e-06,0
-2.92302e-05,7.48489e-07,-1.8255e-05,1.17476e-05,1.63259e-05,-1.62243e-05,2.95939e-05,3.59792e-06,0
-3.17075e-05,-5.57284e-07,-2.73243e-05,1.0636e-05,1.38995e-05,-1.61587e-05,2.83571e-05,1.97457e-06,0
-3.27872e-05,-2.86245e-06,-3.23609e-05,8.57869e-06,1.23897e-05,-1.61141e-05,2.65539e-05,1.80698e-06,0
-3.2622e-05,-4.51812e-06,-3.12428e-05,5.725e-06,1.15906e-05,-1.59669e-05,2.47362e-05,1.08417e-06,0
-3.17855e-05,-4.9035e-06,-2.73064e-05,1.4411e-06,1.0776e-05,-1.4989e-05,2.48656e-05,2.70735e-07,0
-3.19444e-05,-2.693e-06,-2.3509e-05,-3.09975e-06,1.06115e-05,-1.38497e-05,2.66674e-05,3.67052e-07,0
-3.28201e-05,2.35413e-06,-2.14778e-05,-4.46265e-06,1.348e-05,-1.28728e-05,2.84664e-05,7.45513e-07,0
-3.32023e-05,7.46529e-06,-2.05977e-05,-2.00863e-06,1.99623e-05,-1.17836e-05,2.89558e-05,-2.46195e-08,0
-3.24403e-05,1.078e-05,-1.86943e-05,1.62094e-06,2.54877e-05,-1.07252e-05,2.76194e-05,-1.91098e-06,0
-3.19921e-05,1.34823e-05,-1.59103e-05,3.00887e-06,2.62752e-05,-1.00876e-05,2.47316e-05,-2.98114e-06,0
-3.21019e-05,1.51644e-05,-1.38295e-05,3.23735e-06,2.30852e-05,-9.90372e-06,2.09171e-05,-2.58084e-06,0
-3.24855e-05,1.51394e-05,-1.29617e-05,2.7804e-06,1.86139e-05,-1.01745e-05,1.67392e-05,-2.08331e-06,0
-3.22396e-05,1.63719e-05,-1.15958e-05,1.28173e-06,1.51796e-05,-1.02559e-05,1.4951e-05,-3.07146e-06,0
-3.06605e-05,2.00989e-05,-9.24203e-06,-1.36585e-06,1.4513e-05,-1.0076e-05,1.73798e-05,-6.09412e-06,0
-2.97218e-05,2.3454e-05,-7.8758e-06,-3.92767e-06,1.59648e-05,-1.01887e-05,2.14768e-05,-9.04648e-06,0
-2.97362e-05,2.17029e-05,-6.17175e-06,-6.91562e-06,1.88945e-05,-9.94597e-06,2.33348e-05,-9.86538e-06,0
-3.015e-05,1.73395e-05,-3.5415e-06,-1.09204e-05,2.06654e-05,-9.80619e-06,2.19837e-05,-7.28014e-06,0
-3.14043e-05,1.63998e-05,-2.225e-06,-1.28324e-05,1.94557e-05,-9.35158e-06,1.83425e-05,-4.86649e-06,0
-3.24246e-05,1.76819e-05,-1.55538e-06,-9.73145e-06,1.79886e-05,-8.98605e-06,1.46734e-05,-5.16305e-06,0
-3.12779e-05,1.91106e-05,-1.47015e-06,-6.76967e-06,1.56099e-05,-1.14484e-05,1.23083e-05,-5.78577e-06,0
-2.94234e-05,1.95885e-05,-1.28381e-06,-7.46452e-06,1.11542e-05,-1.38732e-05,1.14071e-05,-6.20614e-06,0
-2.8717e-05,1.68416e-05,-7.17241e-07,-1.00341e-05,7.22847e-06,-1.31505e-05,1.06588e-05,-5.69949e-06,0
-2.82413e-05,1.27353e-05,-7.94777e-07,-1.17799e-05,5.81372e-06,-1.23259e-05,8.1136e-06,-4.84836e-06,0
-2.67723e-05,1.07887e-05,-7.38133e-07,-1.11768e-05,7.38331e-06,-1.36683e-05,3.50483e-06,-2.23015e-06,0
-2.54795e-05,1.23784e-05,-1.9928e-07,-1.08487e-05,7.78877e-06,-1.55625e-05,1.13114e-07,9.38296e-07,0
-2.5363e-05,1.50717e-05,-7.04668e-07,-1.3079e-05,7.84252e-06,-1.61657e-05,-1.05362e-06,1.69645e-06,0
-2.54567e-05,1.42758e-05,-1.59856e-06,-1.73234e-05,9.5024e-06,-1.52818e-05,-6.70827e-07,-1.36739e-07,0
-2.53981e-05,1.11669e-05,-2.00057e-06,-2.11e-05,1.00519e-05,-1.37262e-05,2.13071e-07,-4.43825e-06,0
-2.57343e-05,9.32157e-06,-3.79681e-06,-2.31281e-05,9.90688e-06,-1.34517e-05,1.20788e-06,-6.35966e-06,0
-2.68677e-05,8.37077e-06,-7.74173e-06,-2.3206e-05,1.05666e-05,-1.39536e-05,2.61561e-06,-5.98636e-06,0
-2.97814e-05,6.73553e-06,-1.23765e-05,-2.24445e-05,1.20462e-05,-1.41842e-05,3.63585e-06,-4.84426e-06,0
-3.24183e-05,4.6149e-06,-1.39365e-05,-2.17165e-05,1.2174e-05,-1.34998e-05,4.93121e-06,-2.28988e-06,0
-3.37181e-05,3.60251e-06,-1.27608e-05,-2.0114e-05,1.13502e-05,-1.28841e-05,5.58982e-06,-1.94328e-07,0
-3.44747e-05,4.80456e-06,-1.14683e-05,-1.53597e-05,1.06701e-05,-1.38942e-05,6.768e-06,-3.55318e-07,0
-3.40843e-05,7.57336e-06,-1.12311e-05,-9.9213e-06,1.10052e-05,-1.54676e-05,1.03892e-05,-1.3744e-06,0
-3.30695e-05,9.62351e-06,-1.09311e-05,-7.81664e-06,1.19835e-05,-1.59051e-05,1.44981e-05,2.49997e-07,0
-3.26975e-05,9.72862e-06,-9.30469e-06,-9.12721e-06,1.19725e-05,-1.43916e-05,1.51195e-05,3.69834e-06,0
-3.32332e-05,8.61384e-06,-6.6838e-06,-9.23821e-06,1.04829e-05,-1.22547e-05,1.23924e-05,5.10317e-06,0
-3.37799e-05,6.63405e-06,-5.31578e-06,-5.95477e-06,9.80407e-06,-1.09745e-05,8.77092e-06,3.60506e-06,0
-3.39352e-05,4.93898e-06,-6.8231e-06,-2.6024e-06,1.03823e-05,-1.10798e-05,6.12208e-06,2.71072e-06,0
-3.29791e-05,3.88446e-06,-9.58264e-06,-3.92055e-06,1.08706e-05,-1.11046e-05,5.02459e-06,4.22337e-06,0
-3.07376e-05,3.75292e-06,-1.11972e-05,-9.55062e-06,1.10671e-05,-1.03906e-05,5.34389e-06,6.71785e-06,0
-2.93335e-05,6.56939e-06,-1.15857e-05,-1.22975e-05,1.08726e-05,-9.5678e-06,7.10464e-06,7.28552e-06,0
-3.04419e-05,1.17573e-05,-1.22923e-05,-9.05744e-06,1.18029e-05,-8.23478e-06,9.51029e-06,7.84791e-06,0
-3.25462e-05,1.56739e-05,-1.14037e-05,-5.16116e-06,1.3702e-05,-6.38754e-06,1.05522e-05,9.91341e-06,0
-3.34731e-05,1.67608e-05,-8.58965e-06,-6.41717e-06,1.38197e-05,-6.51081e-06,1.05859e-05,1.18349e-05,0
-3.17094e-05,1.59805e-05,-8.20597e-06,-1.02605e-05,1.09575e-05,-8.24576e-06,1.11189e-05,1.05066e-05,0
-3.00728e-05,1.29875e-05,-1.17332e-05,-1.10948e-05,9.07999e-06,-7.85177e-06,1.3183e-05,6.26792e-06,0
-3.10844e-05,9.8062e-06,-1.40631e-05,-1.04963e-05,9.48393e-06,-6.84141e-06,1.49874e-05,3.5417e-06,0
-3.18967e-05,9.41609e-06,-1.37923e-05,-1.13883e-05,1.19079e-05,-7.07809e-06,1.4116e-05,1.97377e-06,0
-3.10202e-05,1.03663e-05,-1.30525e-05,-1.24446e-05,1.62274e-05,-6.55072e-06,1.30503e-05,1.6254e-06,0
-3.04184e-05,1.14888e-05,-1.26895e-05,-1.56157e-05,1.89317e-05,-5.77324e-06,1.1381e-05,2.1505e-06,0
-3.04137e-05,1.23309e-05,-1.0982e-05,-2.24691e-05,1.88625e-05,-5.51206e-06,7.91982e-06,3.56933e-06,0
-3.03529e-05,1.23879e-05,-8.06438e-06,-2.60511e-05,1.81673e-05,-6.76734e-06,6.28044e-06,3.57528e-06,0
-3.05961e-05,1.23456e-05,-6.33886e-06,-2.17455e-05,1.88478e-05,-7.48261e-06,6.57694e-06,2.50366e-06,0
-2.99854e-05,1.0958e-05,-5.47721e-06,-1.3688e-05,1.87842e-05,-6.37112e-06,6.76365e-06,1.68301e-06,0
-2.80354e-05,7.93269e-06,-4.86366e-06,-2.47952e-06,1.82301e-05,-6.43598e-06,7.09658e-06,1.00331e-06,0
-2.61809e-05,5.93963e-06,-4.10339e-06,8.1767e-06,1.95656e-05,-7.27445e-06,6.70384e-06,2.61687e-06,0
-2.53654e-05,6.39978e-06,-3.62716e-06,1.1166e-05,2.17855e-05,-8.0469e-06,6.60134e-06,5.23668e-06,0
-2.50316e-05,7.49884e-06,-4.01003e-06,7.15339e-06,2.41455e-05,-8.30377e-06,8.10122e-06,6.21788e-06,0
-2.53099e-05,8.53724e-06,-5.35363e-06,1.45349e-06,2.66865e-05,-7.715e-06,8.75843e-06,5.89051e-06,0
-2.62239e-05,1.08734e-05,-6.76544e-06,-1.86072e-06,2.79163e-05,-6.78014e-06,5.61558e-06,5.72396e-06,0
-2.66377e-05,1.41481e-05,-7.87561e-06,-1.20566e-06,2.64765e-05,-6.70764e-06,9.93773e-07,3.69372e-06,0
-2.64733e-05,1.59246e-05,-8.67217e-06,1.12235e-06,2.42467e-05,-7.13201e-06,-1.2052e-06,-1.58318e-09,0
-2.65419e-05,1.41035e-05,-9.61173e-06,1.29601e-06,2.19231e-05,-7.424e-06,4.61746e-07,-3.39605e-06,0
-2.66439e-05,9.70596e-06,-1.08877e-05,1.38911e-07,1.85389e-05,-7.62925e-06,5.22396e-06,-4.23962e-06,0
-2.55591e-05,5.81728e-06,-1.06909e-05,-2.27821e-07,1.36616e-05,-7.96818e-06,1.15101e-05,-2.81737e-06,0
-2.42807e-05,4.87346e-06,-9.23111e-06,1.08718e-06,9.17911e-06,-8.45756e-06,1.75093e-05,-8.19426e-07,0
-2.41862e-05,5.57188e-06,-8.50066e-06,5.20545e-06,7.73864e-06,-8.75782e-06,2.26612e-05,6.78736e-07,0
-2.50239e-05,4.67875e-06,-6.38276e-06,1.15662e-05,9.08602e-06,-8.17766e-06,2.62244e-05,3.02525e-07,0
-2.63454e-05,3.97294e-06,-3.86711e-06,1.81907e-05,1.14863e-05,-6.97079e-06,2.75748e-05,-9.24641e-07,0
-2.70037e-05,7.48933e-06,-4.53998e-06,2.10805e-05,1.17682e-05,-6.74978e-06,2.73401e-05,-9.86882e-07,0
-2.73334e-05,1.23801e-05,-7.65247e-06,1.58571e-05,8.90839e-06,-6.09267e-06,2.52907e-05,3.20758e-07,0
-2.76583e-05,1.511e-05,-9.06703e-06,3.39427e-06,5.95176e-06,-5.01934e-06,2.17753e-05,2.01385e-06,0
-2.74572e-05,1.61984e-05,-6.39279e-06,-8.51004e-06,6.03945e-06,-6.2275e-06,1.88435e-05,3.90086e-06,0
-2.62858e-05,1.80819e-05,-2.27594e-06,-1.86333e-05,7.75783e-06,-8.01643e-06,1.67824e-05,3.72346e-06,0
-2.60154e-05,2.08438e-05,-2.44448e-07,-3.26987e-05,6.9218e-06,-7.9028e-06,1.70284e-05,7.01624e-07,0
-2.70025e-05,2.22203e-05,-2.2272e-06,-4.17361e-05,4.5205e-06,-6.58558e-06,1.91085e-05,-2.18271e-06,0
-2.89773e-05,2.22016e-05,-5.80723e-06,-4.27178e-05,3.06283e-06,-5.3474e-06,1.66672e-05,-4.41572e-06,0
-3.0851e-05,2.11687e-05,-7.03554e-06,-4.04936e-05,2.64755e-06,-4.89588e-06,1.29191e-05,-5.24745e-06,0
-3.07591e-05,1.98704e-05,-4.74053e-06,-3.27675e-05,2.4964e-06,-6.49869e-06,1.12885e-05,-3.81052e-06,0
-3.0761e-05,1.8084e-05,-2.82518e-06,-1.70547e-05,4.0643e-06,-8.86692e-06,1.10468e-05,-2.47012e-06,0
-2.97773e-05,1.6779e-05,-2.93325e-06,3.39686e-06,7.25219e-06,-9.26899e-06,1.24087e-05,-3.55725e-06,0
-2.86457e-05,1.72384e-05,-3.85882e-06,2.23854e-05,8.14469e-06,-9.40797e-06,1.42194e-05,-5.39362e-06,0
-2.87177e-05,1.79819e-05,-5.87884e-06,3.46402e-05,6.3018e-06,-9.8339e-06,1.48262e-05,-5.10166e-06,0
-2.91705e-05,1.65812e-05,-7.20946e-06,3.60927e-05,6.54317e-06,-9.28368e-06,1.43113e-05,-4.45714e-06,0
-2.98205e-05,1.40924e-05,-7.15682e-06,2.79405e-05,1.06024e-05,-8.14497e-06,1.13313e-05,-5.36674e-06,0
-3.06746e-05,1.27497e-05,-7.76414e-06,1.38887e-05,1.41136e-05,-7.29257e-06,2.79737e-06,-5.7452e-06,0
-3.1294e-05,1.19255e-05,-9.95362e-06,-1.80419e-06,1.48304e-05,-6.53258e-06,-5.66685e-06,-4.65392e-06,0
-3.14781e-05,1.05812e-05,-1.28358e-05,-1.63938e-05,1.37175e-05,-5.89851e-06,-8.01984e-06,-5.36345e-06,0
-3.19806e-05,9.3806e-06,-1.49101e-05,-2.64311e-05,1.2059e-05,-6.00768e-06,-4.96928e-06,-6.92727e-06,0
-3.22769e-05,9.673e-06,-1.52059e-05,-2.89513e-05,1.04079e-05,-6.58942e-06,-3.02625e-07,-6.46567e-06,0
-3.17141e-05,1.07957e-05,-1.53808e-05,-2.35448e-05,1.01112e-05,-7.33172e-06,5.48229e-06,-4.15581e-06,0
-3.14193e-05,1.05082e-05,-1.59665e-05,-1.44065e-05,1.17442e-05,-8.01025e-06,1.28783e-05,-3.12911e-06,0
-3.24392e-05,8.26195e-06,-1.58978e-05,-6.03183e-06,1.4474e-05,-8.66351e-06,2.20279e-05,-5.06098e-06,0
-3.29787e-05,6.32151e-06,-1.45646e-05,-3.14665e-06,1.64873e-05,-9.39467e-06,3.14191e-05,-6.99324e-06,0
-3.25128e-05,6.77655e-06,-1.14874e-05,-4.38765e-06,1.74571e-05,-9.71979e-06,3.76514e-05,-7.18488e-06,0
-3.1545e-05,7.9925e-06,-8.49046e-06,-3.96071e-06,1.89804e-05,-9.60069e-06,4.02981e-05,-6.47504e-06,0
-3.06218e-05,8.41118e-06,-8.7111e-06,-2.70414e-07,2.12466e-05,-9.7371e-06,3.88647e-05,-5.20203e-06,0
-3.03419e-05,8.37595e-06,-1.02344e-05,5.72683e-06,2.31653e-05,-1.03285e-05,3.42369e-05,-2.8193e-06,0
-3.10929e-05,7.29129e-06,-9.56382e-06,1.00455e-05,2.51015e-05,-1.14274e-05,2.92277e-05,-1.18289e-06,0
-3.06662e-05,7.41198e-06,-8.0793e-06,9.47874e-06,2.29123e-05,-1.4205e-05,2.56535e-05,-1.42786e-06,0
-3.00558e-05,9.18084e-06,-7.03451e-06,7.8856e-06,1.63101e-05,-1.65009e-05,2.36918e-05,-2.20096e-06,0
-2.98616e-05,1.03304e-05,-5.85767e-06,1.33209e-05,1.20092e-05,-1.59723e-05,2.12538e-05,-1.67626e-06,0
-2.84333e-05,9.22122e-06,-4.96807e-06,2.89526e-05,1.16623e-05,-1.39632e-05,1.86963e-05,4.39641e-07,0
-2.94229e-05,8.45822e-06,-6.32825e-06,4.81879e-05,1.48536e-05,-1.15099e-05,1.6153e-05,1.12447e-06,0
-3.11704e-05,9.3156e-06,-8.18924e-06,5.67059e-05,1.65519e-05,-1.14891e-05,1.30651e-05,-4.65507e-08,0
-3.0618e-05,1.01528e-05,-8.12193e-06,4.89249e-05,1.57059e-05,-1.2247e-05,1.12934e-05,-1.5493e-06,0
-2.97849e-05,1.06572e-05,-7.48915e-06,3.29881e-05,1.52772e-05,-1.27469e-05,1.07061e-05,-2.06942e-06,0
-3.04689e-05,1.04174e-05,-8.01604e-06,1.60563e-05,1.33526e-05,-1.37414e-05,1.04801e-05,-1.31108e-06,0
-3.20307e-05,1.1226e-05,-1.04353e-05,-4.53963e-08,8.96366e-06,-1.46401e-05,1.10876e-05,-1.12307e-06,0
-3.34808e-05,1.41081e-05,-1.24284e-05,-1.26948e-05,5.60968e-06,-1.66625e-05,1.13866e-05,-1.8576e-07,0
-3.37028e-05,1.82468e-05,-1.2917e-05,-1.97597e-05,5.17297e-06,-1.90496e-05,1.04867e-05,2.52324e-06,0
-3.27262e-05,2.06315e-05,-1.28605e-05,-2.09231e-05,7.17498e-06,-2.09506e-05,9.96189e-06,4.8752e-06,0
-3.16915e-05,2.08319e-05,-1.2752e-05,-2.04678e-05,1.01317e-05,-2.0511e-05,8.99172e-06,4.91438e-06,0
-3.11729e-05,1.97191e-05,-1.18498e-05,-2.51045e-05,1.0689e-05,-1.89926e-05,7.40038e-06,2.39604e-06,0
-3.20459e-05,1.87292e-05,-9.10349e-06,-3.69229e-05,8.8558e-06,-1.77387e-05,6.22261e-06,-1.83613e-06,0
-3.43214e-05,1.90145e-05,-6.09842e-06,-4.91814e-05,8.09514e-06,-1.60852e-05,5.58232e-06,-4.4372e-06,0
-3.7175e-05,1.91561e-05,-4.54171e-06,-5.32024e-05,8.96136e-06,-1.46275e-05,4.74279e-06,-4.60812e-06,0
-3.83653e-05,1.73023e-05,-3.89656e-06,-4.71878e-05,8.59015e-06,-1.46664e-05,4.43801e-06,-4.51384e-06,0
-3.69692e-05,1.41276e-05,-3.46147e-06,-3.55226e-05,7.93001e-06,-1.54503e-05,5.82936e-06,-5.0818e-06,0
-3.51613e-05,1.15404e-05,-3.81427e-06,-2.54012e-05,1.00113e-05,-1.48298e-05,8.65507e-06,-5.95326e-06,0
-3.51399e-05,1.07995e-05,-4.71206e-06,-1.97987e-05,1.33252e-05,-1.29224e-05,1.04707e-05,-5.02055e-06,0
-3.58304e-05,1.32577e-05,-5.17287e-06,-1.68202e-05,1.30984e-05,-1.11071e-05,9.94683e-06,-2.88701e-06,0
-3.55926e-05,1.6751e-05,-5.05125e-06,-1.47357e-05,1.01426e-05,-1.15582e-05,9.62242e-06,-2.0069e-06,0
-3.4722e-05,1.6425e-05,-4.90849e-06,-1.38589e-05,8.12102e-06,-1.48129e-05,1.03675e-05,-3.40166e-06,0
-3.3569e-05,1.28882e-05,-5.42999e-06,-1.36862e-05,7.55596e-06,-1.89184e-05,1.14826e-05,-5.55799e-06,0
-3.19035e-05,9.88506e-06,-4.94348e-06,-1.36661e-05,6.73227e-06,-2.15227e-05,1.27537e-05,-5.96771e-06,0
-3.18387e-05,8.78721e-06,-4.76939e-06,-1.18604e-05,6.65929e-06,-2.07092e-05,1.33256e-05,-5.00811e-06,0
-3.26041e-05,1.07739e-05,-4.85124e-06,-8.57726e-06,8.56441e-06,-1.92771e-05,1.20578e-05,-4.28698e-06,0
-3.14015e-05,1.26736e-05,-4.32242e-06,-1.02127e-05,9.38305e-06,-1.93939e-05,1.05175e-05,-3.19843e-06,0
-2.9771e-05,1.31712e-05,-5.85044e-06,-1.32166e-05,8.65745e-06,-1.94672e-05,9.94819e-06,-1.32924e-06,0
-2.90785e-05,1.21723e-05,-8.71913e-06,-1.23024e-05,5.76735e-06,-1.79381e-05,9.69194e-06,1.53573e-07,0
-2.77886e-05,1.07749e-05,-1.25001e-05,-9.30942e-06,2.75821e-06,-1.44315e-05,9.637e-06,-7.38454e-07,0
-2.55402e-05,1.06335e-05,-1.40892e-05,-6.44048e-06,3.24275e-06,-1.27741e-05,1.02806e-05,-2.29166e-06,0
-2.57948e-05,1.02404e-05,-1.48949e-05,-6.10447e-06,5.56525e-06,-1.32738e-05,1.07909e-05,-9.09756e-07,0
-2.88021e-05,8.71328e-06,-1.71011e-05,-6.12726e-06,7.16171e-06,-1.4549e-05,1.10874e-05,2.25719e-06,0
-3.17384e-05,5.04559e-06,-1.86457e-05,-4.29055e-06,6.83391e-06,-1.47638e-05,1.16953e-05,4.09862e-06,0
-3.28973e-05,1.59426e-06,-1.82646e-05,-6.18407e-07,5.97019e-06,-1.45813e-05,1.20887e-05,4.1601e-06,0
-3.23025e-05,-1.91257e-07,-1.60373e-05,3.59682e-06,5.83994e-06,-1.47103e-05,1.17058e-05,5.43161e-06,0
-3.04755e-05,-1.55486e-06,-1.30686e-05,8.97961e-06,8.545e-06,-1.39527e-05,9.82545e-06,7.01521e-06,0
-2.87579e-05,-3.14779e-06,-1.04754e-05,1.52873e-05,1.54412e-05,-1.16745e-05,7.14536e-06,6.68955e-06,0
-2.84181e-05,-4.30202e-06,-9.13239e-06,1.8325e-05,2.35572e-05,-9.46292e-06,5.8816e-06,5.36688e-06,0
-2.94781e-05,-4.47545e-06,-7.94958e-06,1.64778e-05,2.74987e-05,-1.0073e-05,5.53788e-06,3.99401e-06,0
-3.07306e-05,-4.02009e-06,-7.1232e-06,1.14057e-05,2.48999e-05,-1.18657e-05,4.61345e-06,2.98122e-06,0
-3.11464e-05,-2.47783e-06,-5.99476e-06,5.09029e-06,1.90481e-05,-1.26095e-05,4.067e-06,2.49869e-06,0
-3.10904e-05,1.90998e-07,-4.95908e-06,-5.5454e-07,1.4101e-05,-1.20918e-05,5.18854e-06,2.97007e-06,0
-3.12313e-05,3.21781e-06,-4.61603e-06,-4.21153e-06,1.07478e-05,-1.1033e-05,8.20228e-06,3.00562e-06,0
-3.21094e-05,6.60521e-06,-3.71473e-06,-6.7031e-06,5.94878e-06,-9.37524e-06,1.17691e-05,1.21579e-06,0
-3.26871e-05,9.19822e-06,-1.52805e-06,-9.61527e-06,6.69976e-07,-8.07907e-06,1.36113e-05,-4.28751e-07,0
-3.25186e-05,9.31301e-06,-6.28685e-07,-1.20909e-05,-1.9429e-06,-6.44605e-06,1.25756e-05,-2.10263e-06,0
-3.18765e-05,7.26946e-06,-1.71728e-06,-1.46022e-05,-1.2926e-06,-4.77369e-06,1.27214e-05,-3.21417e-06,0
-3.11077e-05,4.69623e-06,-3.57577e-06,-1.56443e-05,1.66803e-06,-3.79633e-06,1.53326e-05,-1.68092e-06,0
-3.07091e-05,4.39457e-06,-4.83452e-06,-1.29093e-05,5.56548e-06,-2.86479e-06,1.65803e-05,-1.76067e-07,0
-2.99016e-05,7.92528e-06,-5.43767e-06,-8.22158e-06,9.70225e-06,-1.7271e-06,1.58214e-05,2.18128e-06,0
-2.88987e-05,1.13034e-05,-5.88689e-06,-3.3401e-06,1.24797e-05,-1.76358e-06,1.42619e-05,3.32488e-06,0
-2.97596e-05,1.06498e-05,-4.8382e-06,2.44161e-06,1.351e-05,-1.78686e-06,1.28774e-05,2.92316e-06,0
-3.09205e-05,1.03965e-05,-3.17223e-06,1.44554e-05,1.55517e-05,-1.47674e-06,1.22316e-05,3.48015e-06,0
-3.15116e-05,1.37333e-05,-2.7774e-06,3.19461e-05,1.91276e-05,-1.56054e-06,1.38117e-05,2.80506e-06,0
-3.20191e-05,1.89344e-05,-3.80793e-06,4.4941e-05,2.05675e-05,-1.35584e-06,1.62941e-05,1.7684e-06,0
-3.09673e-05,2.29462e-05,-5.96077e-06,4.54904e-05,1.91981e-05,-2.00351e-06,1.8823e-05,2.12286e-06,0
-2.88616e-05,2.43735e-05,-1.02732e-05,3.62933e-05,1.86619e-05,-3.61872e-06,2.04798e-05,4.63947e-06,0
-2.70025e-05,2.45883e-05,-1.57349e-05,2.14425e-05,1.994e-05,-3.77616e-06,1.95051e-05,7.64049e-06,0
-2.62309e-05,2.54137e-05,-1.95375e-05,5.35853e-06,2.07496e-05,-1.14921e-06,1.81353e-05,7.58447e-06,0
-2.73195e-05,2.60659e-05,-1.99618e-05,-7.38861e-06,2.16813e-05,1.83134e-06,1.67396e-05,4.88359e-06,0
-2.99478e-05,2.46761e-05,-1.781e-05,-1.62887e-05,2.28419e-05,3.55837e-06,1.52749e-05,3.61745e-06,0
-3.19424e-05,2.24268e-05,-1.43697e-05,-2.26846e-05,2.43752e-05,3.83621e-06,1.49069e-05,4.52187e-06,0
-3.17541e-05,2.1446e-05,-9.61564e-06,-2.89533e-05,2.80405e-05,4.30189e-06,1.52732e-05,5.18796e-06,0
-3.00486e-05,2.25173e-05,-3.11092e-06,-3.67989e-05,3.14613e-05,5.10906e-06,1.42902e-05,4.25153e-06,0
-2.78895e-05,2.32239e-05,4.61211e-06,-4.64469e-05,3.09025e-05,5.35498e-06,1.27538e-05,3.84203e-06,0
-2.65187e-05,2.14336e-05,1.19583e-05,-5.24757e-05,2.69375e-05,4.11291e-06,1.33827e-05,4.38177e-06,0
-2.71324e-05,1.95608e-05,1.97666e-05,-4.89981e-05,2.09505e-05,1.08526e-06,1.5166e-05,4.04457e-06,0
-2.84493e-05,2.03427e-05,3.27248e-05,-3.51408e-05,1.39221e-05,-1.87243e-06,1.46541e-05,2.58196e-06,0
-2.82701e-05,2.19627e-05,5.27093e-05,-1.81919e-05,9.39547e-06,-1.99179e-06,1.06141e-05,1.36837e-06,0
-2.60683e-05,2.31123e-05,7.31697e-05,-7.53329e-06,8.42764e-06,3.81632e-07,5.29975e-06,7.43068e-07,0
-2.37301e-05,2.32934e-05,8.2976e-05,-5.47065e-06,9.20096e-06,2.44861e-06,3.43076e-06,2.24624e-07,0
-2.22589e-05,2.29676e-05,7.36184e-05,-6.95618e-06,9.32521e-06,2.74663e-06,6.98117e-06,2.98282e-07,0
-2.20441e-05,2.36524e-05,4.37591e-05,-8.18267e-06,7.65838e-06,1.92817e-06,1.05266e-05,5.453e-07,0
-2.43289e-05,2.48341e-05,3.76957e-08,-7.28705e-06,5.78055e-06,2.95032e-06,1.09709e-05,1.97082e-06,0
-2.71113e-05,2.81352e-05,-4.55228e-05,-5.62536e-06,6.54031e-06,4.88721e-06,1.13097e-05,5.40125e-06,0
-2.71107e-05,3.33161e-05,-8.06835e-05,-5.7706e-06,8.49154e-06,4.41427e-06,1.32831e-05,7.29809e-06,0
-2.54256e-05,3.35379e-05,-9.99841e-05,-9.64427e-06,9.57568e-06,1.14861e-06,1.46639e-05,5.51294e-06,0
-2.60637e-05,2.79481e-05,-0.000102567,-1.69432e-05,1.05183e-05,-3.67907e-07,1.42972e-05,3.37545e-06,0
-2.66783e-05,2.39712e-05,-9.19442e-05,-2.15401e-05,1.05935e-05,1.53766e-08,1.3489e-05,4.88214e-06,0
-2.62588e-05,2.36611e-05,-7.7079e-05,-2.18144e-05,1.03122e-05,1.82271e-07,1.25498e-05,8.56624e-06,0
-2.74917e-05,2.34448e-05,-6.43567e-05,-2.03933e-05,9.17262e-06,6.73651e-07,1.14695e-05,9.71498e-06,0
-2.92789e-05,2.09444e-05,-5.4106e-05,-1.71005e-05,7.2533e-06,-5.06741e-07,1.01895e-05,9.34137e-06,0
-2.87109e-05,1.66747e-05,-4.37123e-05,-1.11252e-05,6.01281e-06,-2.57935e-06,9.87816e-06,8.38735e-06,0
-2.59102e-05,1.32114e-05,-3.35838e-05,-5.37594e-06,5.68028e-06,-5.70063e-06,1.09443e-05,7.17502e-06,0
-2.55843e-05,1.1717e-05,-2.72798e-05,-3.79678e-06,5.633e-06,-7.8552e-06,1.24236e-05,7.86553e-06,0
-2.73523e-05,1.29769e-05,-2.49421e-05,-6.8685e-06,4.78356e-06,-8.27435e-06,1.30344e-05,8.9904e-06,0
-2.95178e-05,1.54704e-05,-2.15438e-05,-9.32261e-06,4.25344e-06,-9.20246e-06,1.04074e-05,7.31376e-06,0
-3.0748e-05,1.67718e-05,-1.56243e-05,-9.43897e-06,5.28051e-06,-1.11295e-05,1.9512e-06,4.33161e-06,0
-3.07006e-05,1.78817e-05,-9.66593e-06,-1.09522e-05,6.82225e-06,-1.29751e-05,-8.14772e-06,2.75972e-06,0
-3.05797e-05,1.99379e-05,-4.35028e-06,-1.49279e-05,8.18802e-06,-1.44293e-05,-1.21995e-05,5.32276e-07,0
-3.15711e-05,2.10503e-05,1.11311e-07,-2.0945e-05,1.01673e-05,-1.49415e-05,-8.49487e-06,-3.13073e-06,0
-3.40465e-05,1.92024e-05,2.71498e-06,-2.88076e-05,1.28315e-05,-1.30107e-05,-1.36298e-07,-5.98042e-06,0
-3.55268e-05,1.60904e-05,2.86994e-06,-3.54267e-05,1.52199e-05,-1.06905e-05,8.01967e-06,-7.14946e-06,0
-3.55318e-05,1.51386e-05,1.71218e-06,-3.60038e-05,1.71669e-05,-9.44279e-06,1.42967e-05,-7.4843e-06,0
-3.49546e-05,1.61266e-05,1.23362e-07,-3.06893e-05,1.89184e-05,-9.27424e-06,2.09651e-05,-6.20987e-06,0
-3.42116e-05,1.49788e-05,-1.84183e-06,-2.33818e-05,2.05855e-05,-8.9527e-06,2.86543e-05,-3.68052e-06,0
-3.36362e-05,1.20913e-05,-4.55079e-06,-1.66707e-05,2.35197e-05,-8.27041e-06,3.39995e-05,-2.94945e-06,0
-3.358e-05,1.01664e-05,-6.97068e-06,-9.28523e-06,2.7512e-05,-8.28461e-06,3.61355e-05,-3.52077e-06,0
-3.38032e-05,1.03235e-05,-8.00518e-06,3.5943e-06,2.82323e-05,-1.02468e-05,3.62183e-05,-2.71343e-06,0
-3.31415e-05,1.22859e-05,-9.08306e-06,2.47953e-05,2.51936e-05,-1.07586e-05,3.43826e-05,-1.36995e-06,0
-3.18972e-05,1.41177e-05,-1.10039e-05,4.65675e-05,2.22682e-05,-8.69674e-06,3.27346e-05,-1.72538e-06,0
-3.19934e-05,1.38929e-05,-1.13391e-05,5.6944e-05,2.22066e-05,-7.8786e-06,3.18659e-05,-2.43934e-06,0
-3.15242e-05,1.32131e-05,-9.68493e-06,5.31644e-05,2.43496e-05,-1.05696e-05,3.05754e-05,-7.98579e-07,0
-3.04511e-05,1.19292e-05,-8.64755e-06,3.74618e-05,2.57325e-05,-1.47698e-05,3.17457e-05,1.37818e-06,0
-3.0988e-05,9.3321e-06,-8.2315e-06,1.99084e-05,2.50148e-05,-1.59039e-05,3.23205e-05,1.22034e-06,0
-3.30133e-05,7.79515e-06,-7.2136e-06,1.20806e-05,2.23004e-05,-1.4264e-05,2.80483e-05,1.36451e-06,0
-3.40486e-05,7.47447e-06,-4.0474e-06,1.39073e-05,2.07831e-05,-1.41593e-05,2.24437e-05,4.78995e-06,0
-3.31993e-05,7.26079e-06,-6.86804e-07,2.25944e-05,2.11369e-05,-1.5185e-05,1.78862e-05,7.52186e-06,0
-3.28339e-05,5.06828e-06,1.64095e-06,3.17143e-05,2.22467e-05,-1.50012e-05,1.22266e-05,6.74805e-06,0
-3.19872e-05,2.94829e-06,2.49234e-06,3.26154e-05,2.0839e-05,-1.51611e-05,5.3703e-06,5.34552e-06,0
-3.00314e-05,2.64521e-06,2.13478e-06,2.41377e-05,1.79184e-05,-1.58999e-05,1.51896e-07,4.73537e-06,0
-2.89672e-05,3.63331e-06,3.60676e-06,1.34695e-05,1.69002e-05,-1.65207e-05,-2.12626e-06,3.92561e-06,0
-2.96964e-05,5.64562e-06,5.13597e-06,7.42205e-06,1.51534e-05,-1.67809e-05,-1.82904e-06,2.03518e-06,0
-3.13033e-05,7.49683e-06,5.09976e-06,5.76187e-06,1.23749e-05,-1.75796e-05,-1.70219e-06,-5.57416e-09,0
-3.19638e-05,9.40789e-06,2.98714e-06,6.04589e-06,8.3824e-06,-1.85456e-05,-2.65034e-06,-4.17258e-07,0
-3.24383e-05,1.19932e-05,-1.52572e-07,6.07306e-06,4.23987e-06,-1.87374e-05,-3.62465e-06,2.90726e-07,0
-3.29788e-05,1.45755e-05,-1.50972e-06,4.36035e-06,2.62953e-06,-1.76883e-05,-3.3947e-06,5.25105e-08,0
-3.23257e-05,1.43052e-05,-9.09369e-07,7.81254e-07,5.56207e-06,-1.55143e-05,-2.37838e-06,-1.89369e-06,0
-3.01317e-05,1.09699e-05,-7.81263e-07,-4.55046e-06,9.09309e-06,-1.27901e-05,-7.08518e-07,-3.94161e-06,0
-2.75321e-05,6.71786e-06,-2.33532e-06,-9.5263e-06,9.44862e-06,-1.05747e-05,1.13683e-06,-5.15448e-06,0
-2.62904e-05,4.47945e-06,-3.19447e-06,-8.96778e-06,7.67044e-06,-9.85172e-06,3.15034e-06,-4.95071e-06,0
-2.59104e-05,5.78321e-06,-2.73875e-06,-3.19528e-06,7.39438e-06,-1.01267e-05,5.51839e-06,-3.35722e-06,0
-2.56804e-05,8.29276e-06,-3.32013e-06,1.87548e-06,9.8954e-06,-1.07767e-05,8.14175e-06,-2.59021e-06,0
-2.59894e-05,1.03316e-05,-4.53306e-06,3.82342e-06,1.18622e-05,-1.20639e-05,1.09981e-05,-3.04051e-06,0
-2.76773e-05,1.26756e-05,-3.81105e-06,3.19157e-06,1.1339e-05,-1.33602e-05,1.3228e-05,-3.78427e-06,0
-2.80849e-05,1.47272e-05,-1.52519e-06,-1.1365e-06,9.59009e-06,-1.4077e-05,1.3985e-05,-3.86919e-06,0
-2.75631e-05,1.51432e-05,-2.81013e-07,-1.11618e-05,1.00759e-05,-1.53153e-05,1.38657e-05,-3.35955e-06,0
-2.94001e-05,1.42305e-05,-1.23906e-06,-2.55963e-05,1.25524e-05,-1.65782e-05,1.37182e-05,-2.1215e-06,0
-3.21074e-05,1.52856e-05,-3.16258e-06,-3.85981e-05,1.47744e-05,-1.71239e-05,1.27139e-05,3.89524e-07,0
-3.20292e-05,1.85479e-05,-3.80969e-06,-3.99887e-05,1.47705e-05,-1.72679e-05,1.2488e-05,2.68498e-06,0
-2.90223e-05,2.07805e-05,-2.5096e-06,-2.63814e-05,1.26953e-05,-1.62106e-05,1.37615e-05,4.9006e-06,0
-2.8176e-05,2.27204e-05,-2.08532e-06,-1.03193e-05,1.11438e-05,-1.44194e-05,1.51225e-05,5.84296e-06,0
-3.0178e-05,2.41574e-05,-1.76198e-06,5.11004e-07,1.06951e-05,-1.39483e-05,1.63594e-05,4.44291e-06,0
-3.20233e-05,2.48699e-05,-1.84382e-06,7.27698e-06,1.14869e-05,-1.50399e-05,1.74548e-05,3.13284e-06,0
-3.2724e-05,2.5981e-05,-3.3078e-06,1.28934e-05,1.39751e-05,-1.64093e-05,1.73018e-05,4.40984e-06,0
-3.29111e-05,2.84565e-05,-4.84517e-06,2.04287e-05,1.60554e-05,-1.69531e-05,1.58234e-05,7.49389e-06,0
-3.16385e-05,3.0622e-05,-6.78273e-06,2.00976e-05,1.69078e-05,-1.74749e-05,1.5597e-05,8.26935e-06,0
-2.89795e-05,2.90054e-05,-7.20876e-06,6.8278e-06,1.63142e-05,-1.77421e-05,1.64794e-05,7.87601e-06,0
-2.83035e-05,2.55812e-05,-7.50297e-06,-1.02394e-05,1.5132e-05,-1.70129e-05,1.59846e-05,7.44562e-06,0
-2.85585e-05,2.34073e-05,-9.03394e-06,-1.92834e-05,1.40306e-05,-1.63972e-05,1.4869e-05,5.53367e-06,0
-2.94734e-05,2.26156e-05,-1.03776e-05,-1.80411e-05,1.40879e-05,-1.62239e-05,1.5093e-05,3.00779e-06,0
-3.17188e-05,2.22847e-05,-9.66947e-06,-1.33046e-05,1.67584e-05,-1.56733e-05,1.6331e-05,2.57135e-06,0
-3.35311e-05,2.15641e-05,-7.64228e-06,-9.95762e-06,2.07995e-05,-1.53734e-05,1.71948e-05,3.52348e-06,0
-3.37077e-05,2.15448e-05,-5.76723e-06,-7.94307e-06,2.22878e-05,-1.47817e-05,1.8398e-05,3.12148e-06,0
-3.31254e-05,2.14797e-05,-4.85416e-06,-5.5495e-06,1.95569e-05,-1.26546e-05,1.88253e-05,1.90426e-06,0
-3.18534e-05,2.02763e-05,-5.12908e-06,-4.16223e-06,1.63382e-05,-1.0685e-05,1.85151e-05,1.49751e-06,0
-2.92149e-05,1.84152e-05,-5.82644e-06,-4.7943e-06,1.5578e-05,-1.13603e-05,1.88152e-05,2.52269e-06,0
-2.65293e-05,1.68019e-05,-6.64147e-06,-6.98016e-06,1.60561e-05,-1.27521e-05,1.95543e-05,4.6618e-06,0
-2.53107e-05,1.54474e-05,-7.49923e-06,-9.17185e-06,1.52588e-05,-1.26364e-05,1.89237e-05,7.15172e-06,0
-2.62864e-05,1.39967e-05,-9.88719e-06,-1.11734e-05,1.36386e-05,-1.10876e-05,1.69602e-05,8.52462e-06,0
-2.74704e-05,1.37317e-05,-1.24553e-05,-1.38188e-05,1.16265e-05,-8.85928e-06,1.49837e-05,9.82625e-06,0
-2.76372e-05,1.41167e-05,-1.28804e-05,-1.6053e-05,1.01162e-05,-8.26779e-06,1.2103e-05,1.1004e-05,0
-2.77586e-05,1.47311e-05,-1.29338e-05,-1.65086e-05,1.05251e-05,-8.30782e-06,6.80299e-06,1.02706e-05,0
-2.7821e-05,1.50368e-05,-1.44952e-05,-1.62625e-05,1.12033e-05,-7.11604e-06,7.30402e-07,8.42614e-06,0
-2.79626e-05,1.30256e-05,-1.48929e-05,-1.52238e-05,1.05763e-05,-5.77636e-06,-2.87629e-07,7.80896e-06,0
-2.85386e-05,9.45151e-06,-1.36122e-05,-1.26456e-05,9.98059e-06,-4.91879e-06,3.32025e-06,8.57228e-06,0
-2.8386e-05,7.26995e-06,-1.17957e-05,-9.71637e-06,1.02897e-05,-3.34092e-06,7.70973e-06,8.70248e-06,0
-2.90299e-05,7.7163e-06,-9.4944e-06,-9.70851e-06,1.24109e-05,-2.78831e-06,1.21686e-05,6.81044e-06,0
-3.07982e-05,8.95279e-06,-9.2849e-06,-1.11222e-05,1.48795e-05,-3.04117e-06,1.65135e-05,3.56516e-06,0
-3.21983e-05,8.72844e-06,-1.20545e-05,-1.02759e-05,1.49498e-05,-4.64116e-06,1.84282e-05,2.59097e-06,0
-3.27017e-05,6.03534e-06,-1.6448e-05,-6.79605e-06,1.5261e-05,-7.31838e-06,1.79343e-05,3.79561e-06,0
-3.29467e-05,3.7379e-06,-1.90568e-05,-3.1224e-06,1.7423e-05,-8.11979e-06,1.58658e-05,4.74642e-06,0
-3.28932e-05,3.48445e-06,-1.80992e-05,-2.91958e-06,1.71628e-05,-7.34277e-06,1.41303e-05,5.80449e-06,0
-3.15971e-05,2.12098e-06,-1.66067e-05,-5.85343e-06,1.3445e-05,-5.4845e-06,1.49236e-05,3.38058e-06,0
-2.9567e-05,-4.01381e-07,-1.56334e-05,-9.94191e-06,1.05105e-05,-3.79836e-06,1.696e-05,-3.75925e-07,0
-2.88007e-05,-2.4878e-06,-1.56592e-05,-1.5192e-05,9.92472e-06,-3.03689e-06,1.68843e-05,-2.6625e-06,0
-2.96749e-05,-1.64844e-06,-1.48599e-05,-2.27357e-05,9.52724e-06,-3.14417e-06,1.56344e-05,-4.18446e-06,0
-3.05298e-05,-6.40912e-08,-1.25812e-05,-3.09139e-05,8.52163e-06,-3.00297e-06,1.45493e-05,-4.64415e-06,0
-3.12611e-05,-7.84817e-07,-9.51668e-06,-3.56937e-05,7.63478e-06,-2.36534e-06,1.31135e-05,-4.44421e-06,0
-3.12837e-05,-1.11833e-06,-7.62083e-06,-3.4758e-05,7.76139e-06,-1.99214e-06,1.30229e-05,-3.71816e-06,0
-3.1308e-05,-3.88904e-07,-7.14734e-06,-2.92325e-05,8.37446e-06,-2.53513e-06,1.37359e-05,-4.80961e-06,0
-3.07852e-05,-1.00056e-06,-5.55506e-06,-2.27988e-05,7.62477e-06,-3.61043e-06,1.42305e-05,-6.92602e-06,0
-2.88851e-05,-2.25719e-06,-3.66956e-06,-1.80335e-05,5.31206e-06,-5.22085e-06,1.40801e-05,-8.23545e-06,0
-2.69896e-05,-1.54506e-06,-3.34043e-06,-1.36335e-05,3.83832e-06,-6.8438e-06,1.39466e-05,-7.55046e-06,0
-2.6585e-05,6.01006e-08,-4.50594e-06,-7.88063e-06,5.1056e-06,-7.73159e-06,1.36617e-05,-5.70446e-06,0
-2.63958e-05,5.67294e-07,-5.22283e-06,-1.46006e-07,7.16502e-06,-8.25239e-06,1.39658e-05,-4.24152e-06,0
-2.56859e-05,1.07584e-07,-5.4541e-06,7.141e-06,8.20384e-06,-8.43149e-06,1.44021e-05,-4.55951e-06,0
-2.53455e-05,7.88003e-07,-5.08346e-06,1.02848e-05,9.82146e-06,-8.79825e-06,1.35224e-05,-6.08633e-06,0
-2.59126e-05,2.26013e-06,-5.29819e-06,9.43082e-06,1.38286e-05,-9.74553e-06,1.12009e-05,-7.16629e-06,0
-2.76586e-05,4.55337e-06,-5.87243e-06,8.60152e-06,1.80409e-05,-1.05e-05,8.4299e-06,-6.37045e-06,0
-2.92579e-05,8.37014e-06,-6.2915e-06,8.20707e-06,1.92149e-05,-1.07519e-05,6.71403e-06,-4.18234e-06,0
-3.044e-05,1.16603e-05,-6.76214e-06,7.36204e-06,1.69462e-05,-1.03927e-05,8.08971e-06,-1.70513e-06,0
-3.04e-05,1.21629e-05,-6.60406e-06,8.37547e-06,1.51825e-05,-1.01569e-05,1.04264e-05,6.73613e-07,0
-2.91745e-05,1.23207e-05,-5.6107e-06,1.31674e-05,1.62359e-05,-1.08967e-05,9.50303e-06,9.70975e-07,0
-2.86534e-05,1.51194e-05,-5.33836e-06,1.68692e-05,1.74408e-05,-9.83302e-06,5.73412e-06,-1.1763e-06,0
-2.90042e-05,1.79478e-05,-5.53489e-06,1.39616e-05,1.77341e-05,-7.24426e-06,4.77608e-06,-2.70386e-06,0
-2.89272e-05,1.87171e-05,-5.78374e-06,8.01078e-06,1.84566e-05,-6.94459e-06,7.81737e-06,-3.1348e-06,0
-2.84712e-05,1.85469e-05,-6.41448e-06,1.82854e-06,2.00487e-05,-8.62049e-06,9.92049e-06,-5.79214e-06,0
-2.90369e-05,2.07844e-05,-5.1761e-06,-4.05795e-06,2.16648e-05,-9.52378e-06,1.08968e-05,-8.66656e-06,0
-3.06079e-05,2.4366e-05,-2.9804e-06,-8.29072e-06,2.06945e-05,-1.08877e-05,1.04143e-05,-8.17957e-06,0
-3.16366e-05,2.54505e-05,-3.67394e-06,-8.78731e-06,1.63612e-05,-1.31312e-05,9.99548e-06,-5.34023e-06,0
-3.14028e-05,2.30417e-05,-6.444e-06,-4.91541e-06,1.1739e-05,-1.43183e-05,9.30714e-06,-3.87125e-06,0
-3.10857e-05,2.08997e-05,-7.81302e-06,-3.13042e-07,9.57114e-06,-1.39276e-05,9.00541e-06,-4.78115e-06,0
-3.1364e-05,2.15577e-05,-7.13128e-06,-3.50188e-07,1.03482e-05,-1.30203e-05,9.96112e-06,-6.33279e-06,0
-3.10141e-05,2.26543e-05,-5.99456e-06,-3.09924e-06,1.22475e-05,-1.24092e-05,9.42405e-06,-5.85222e-06,0
-3.03116e-05,2.32847e-05,-5.79131e-06,-4.6411e-06,1.28552e-05,-1.20808e-05,7.90236e-06,-3.51629e-06,0
-2.97968e-05,2.29223e-05,-6.49011e-06,-7.90745e-06,1.28798e-05,-1.1169e-05,8.26324e-06,-1.73768e-06,0
-2.98474e-05,2.23005e-05,-6.28336e-06,-1.35214e-05,1.31289e-05,-9.79821e-06,1.04374e-05,-1.23358e-06,0
-3.03135e-05,2.17157e-05,-4.55318e-06,-1.54025e-05,1.13416e-05,-9.72068e-06,1.25922e-05,-1.35199e-06,0
-3.05075e-05,2.13382e-05,-3.74369e-06,-1.02437e-05,8.26855e-06,-1.15047e-05,1.48452e-05,-1.27371e-06,0
-2.99808e-05,2.17475e-05,-4.53406e-06,-3.28286e-06,7.76289e-06,-1.37493e-05,1.56295e-05,-1.13294e-06,0
-2.9271e-05,2.2602e-05,-6.22388e-06,3.99288e-07,1.04032e-05,-1.37836e-05,1.45717e-05,-1.81367e-06,0
-2.93371e-05,2.19815e-05,-7.56218e-06,-8.5914e-10,1.33466e-05,-1.25844e-05,1.2885e-05,-4.21238e-06,0
-3.01885e-05,1.9441e-05,-8.01213e-06,-1.67035e-06,1.58919e-05,-1.22871e-05,1.20639e-05,-6.15661e-06,0
-3.12253e-05,1.69612e-05,-8.51654e-06,-1.52511e-06,1.90462e-05,-1.26329e-05,1.15988e-05,-6.25555e-06,0
-3.20531e-05,1.54724e-05,-1.06358e-05,4.99035e-07,2.26991e-05,-1.28858e-05,1.022e-05,-6.35539e-06,0
-3.35051e-05,1.39651e-05,-1.47334e-05,1.3958e-06,2.42612e-05,-1.36961e-05,8.75074e-06,-6.98354e-06,0
-3.56238e-05,1.28161e-05,-1.82604e-05,-5.13018e-07,2.24378e-05,-1.48308e-05,9.31551e-06,-6.40163e-06,0
-3.76484e-05,1.21389e-05,-1.87029e-05,-2.90258e-06,1.91612e-05,-1.59258e-05,1.13758e-05,-6.11829e-06,0
-3.77624e-05,9.84639e-06,-1.61585e-05,-7.37311e-06,1.60045e-05,-1.67598e-05,1.40637e-05,-6.79e-06,0
-3.6278e-05,7.11254e-06,-1.25047e-05,-1.32113e-05,1.3512e-05,-1.71015e-05,1.63694e-05,-5.3224e-06,0
-3.44324e-05,6.14844e-06,-1.08094e-05,-1.61012e-05,1.04622e-05,-1.67281e-05,1.61048e-05,-1.93044e-06,0
-3.39536e-05,6.65347e-06,-1.16186e-05,-1.76043e-05,8.04367e-06,-1.57368e-05,1.58181e-05,-1.23715e-07,0
-3.41758e-05,4.46839e-06,-1.29895e-05,-1.82746e-05,7.46295e-06,-1.45333e-05,1.55394e-05,7.67923e-07,0
-3.26566e-05,1.46953e-06,-1.27372e-05,-1.77839e-05,6.5109e-06,-1.36649e-05,1.46296e-05,4.30891e-06,0
-3.06861e-05,1.09177e-06,-1.29784e-05,-1.71096e-05,4.70006e-06,-1.55923e-05,1.51134e-05,8.05162e-06,0
-2.9571e-05,8.59064e-07,-1.47339e-05,-1.59169e-05,3.30727e-06,-1.88342e-05,1.53127e-05,8.91453e-06,0
-2.84105e-05,1.3783e-06,-1.46938e-05,-1.26858e-05,2.57945e-06,-1.97051e-05,1.5981e-05,8.40751e-06,0
-2.76559e-05,2.34921e-06,-1.17263e-05,-5.94428e-06,2.41602e-06,-1.91777e-05,1.69769e-05,7.73307e-06,0
-2.87268e-05,4.13476e-06,-8.4323e-06,2.09017e-06,4.57325e-06,-1.81057e-05,1.62924e-05,6.34876e-06,0
-3.01349e-05,5.14606e-06,-7.38562e-06,6.81076e-06,7.55805e-06,-1.65565e-05,1.27533e-05,5.32593e-06,0
-3.09094e-05,3.89433e-06,-7.98093e-06,7.69516e-06,1.00008e-05,-1.69847e-05,2.90276e-06,5.36167e-06,0
-3.12105e-05,4.45047e-06,-8.76255e-06,1.19397e-05,1.2392e-05,-1.8976e-05,-1.00436e-05,7.1987e-06,0
-3.13145e-05,7.29626e-06,-8.33346e-06,2.3927e-05,1.39785e-05,-1.94355e-05,-1.68432e-05,9.34572e-06,0
-3.04431e-05,9.66262e-06,-7.74836e-06,3.68247e-05,1.59586e-05,-1.68908e-05,-1.52264e-05,9.99443e-06,0
-2.9653e-05,9.96225e-06,-7.43292e-06,4.21358e-05,1.77051e-05,-1.30026e-05,-9.12757e-06,9.9764e-06,0
-3.05638e-05,9.10627e-06,-6.60246e-06,3.75702e-05,1.82826e-05,-1.13114e-05,5.35493e-07,1.0423e-05,0
-3.12424e-05,8.31248e-06,-5.22275e-06,2.53918e-05,1.72046e-05,-1.27413e-05,1.20156e-05,1.13323e-05,0
-3.05358e-05,7.99992e-06,-4.45938e-06,8.79263e-06,1.46878e-05,-1.48276e-05,2.14965e-05,1.22465e-05,0
-2.96403e-05,7.32479e-06,-5.23227e-06,-7.60366e-06,1.17094e-05,-1.52039e-05,2.7932e-05,1.33631e-05,0
-2.8987e-05,7.12729e-06,-6.73703e-06,-1.83603e-05,9.27607e-06,-1.33169e-05,3.26425e-05,1.4417e-05,0
-2.86975e-05,7.1861e-06,-8.11302e-06,-2.18129e-05,7.47966e-06,-1.01789e-05,3.52414e-05,1.46209e-05,0
-2.91798e-05,6.73311e-06,-1.04292e-05,-2.17469e-05,6.80224e-06,-8.25105e-06,3.4802e-05,1.2822e-05,0
-2.85579e-05,7.02367e-06,-1.15491e-05,-2.49597e-05,8.13259e-06,-8.27789e-06,3.25187e-05,1.07986e-05,0
-2.70172e-05,7.69176e-06,-9.12993e-06,-3.31376e-05,9.43972e-06,-8.72559e-06,2.94213e-05,9.16442e-06,0
-2.71536e-05,7.26512e-06,-6.08841e-06,-4.0722e-05,8.90141e-06,-9.00626e-06,2.7165e-05,7.87134e-06,0
-2.83478e-05,5.8263e-06,-5.82087e-06,-3.88823e-05,6.03262e-06,-8.5856e-06,2.62596e-05,6.68486e-06,0
-2.89797e-05,6.20218e-06,-7.70607e-06,-2.45471e-05,2.62103e-06,-7.64506e-06,2.38997e-05,6.72876e-06,0
-2.92195e-05,8.43614e-06,-9.40331e-06,-4.29852e-06,1.99097e-06,-6.2499e-06,1.89355e-05,7.96369e-06,0
-2.97238e-05,1.06712e-05,-1.06209e-05,5.97461e-06,2.8622e-06,-6.0071e-06,1.67318e-05,8.52506e-06,0
-3.02255e-05,1.2166e-05,-1.09243e-05,3.15484e-06,3.45686e-06,-6.99769e-06,1.79276e-05,7.68681e-06,0
-3.03046e-05,1.26326e-05,-1.05222e-05,-2.61212e-06,4.66728e-06,-7.3992e-06,1.78045e-05,6.37746e-06,0
-3.08835e-05,1.23075e-05,-8.85554e-06,-1.01865e-05,4.2064e-06,-8.66412e-06,1.49922e-05,6.32119e-06,0
-3.08722e-05,1.3366e-05,-7.25892e-06,-1.74871e-05,3.39227e-06,-1.00599e-05,9.82011e-06,6.51082e-06,0
-3.02232e-05,1.38702e-05,-6.77355e-06,-2.54943e-05,2.67832e-06,-1.13922e-05,6.18883e-06,6.43792e-06,0
-2.91417e-05,1.193e-05,-6.88396e-06,-3.06983e-05,1.63681e-06,-1.24159e-05,4.6231e-06,5.15199e-06,0
-2.83353e-05,1.01728e-05,-8.94149e-06,-2.49743e-05,4.75239e-06,-1.265e-05,3.87165e-06,3.57585e-06,0
-2.89869e-05,8.79452e-06,-1.09691e-05,-5.84103e-06,1.49257e-05,-1.16095e-05,2.87212e-06,3.21863e-06,0
-2.97839e-05,7.17594e-06,-9.67819e-06,1.77905e-05,2.95025e-05,-8.05421e-06,2.38664e-06,2.13664e-06,0
-3.00055e-05,5.03957e-06,-4.9768e-06,2.75368e-05,3.97954e-05,-4.46609e-06,3.06181e-06,8.1325e-07,0
-2.90702e-05,3.70618e-06,-1.70447e-07,1.84302e-05,4.12668e-05,-2.9338e-06,3.70609e-06,4.50097e-07,0
