ch1,ch2,ch3,ch4,ch5,ch6,ch7,ch8,class
-2.94777e-05,-4.82217e-06,-4.27096e-06,-5.00768e-05,7.62941e-06,-6.36072e-06,-1.72514e-06,-5.49689e-06,0
-2.8962e-05,-3.37463e-06,-3.29513e-06,-3.64297e-05,6.87397e-06,-5.07321e-06,-4.27461e-06,-3.5061e-06,0
-2.77106e-05,-3.23764e-08,-1.40372e-06,-1.66369e-05,8.10254e-06,-4.26747e-06,-4.60972e-07,-2.49829e-06,0
-2.66457e-05,1.35472e-06,-8.3274e-08,-1.50288e-07,1.18176e-05,-4.33946e-06,6.09113e-06,-1.61794e-06,0
-2.54075e-05,-1.50391e-07,-1.05195e-07,5.44188e-06,1.47906e-05,-5.84672e-06,1.26112e-05,-1.21481e-06,0
-2.5008e-05,-3.43191e-06,-1.66603e-06,4.04871e-06,1.5218e-05,-7.54848e-06,1.75097e-05,-2.35133e-06,0
-2.54637e-05,-5.9903e-06,-2.74222e-06,3.4082e-06,1.30853e-05,-9.04978e-06,2.18886e-05,-4.28458e-06,0
-2.63669e-05,-4.17288e-06,-2.36366e-06,4.98575e-06,1.13991e-05,-9.92187e-06,2.44523e-05,-4.98295e-06,0
-2.71753e-05,-1.49626e-07,-2.99923e-06,9.58921e-06,1.11586e-05,-9.76126e-06,2.44198e-05,-4.93854e-06,0
-2.70499e-05,2.60784e-06,-5.4592e-06,1.55976e-05,9.6379e-06,-9.8421e-06,2.36447e-05,-3.93916e-06,0
-2.70185e-05,2.18227e-06,-7.39829e-06,1.99904e-05,8.30805e-06,-1.06732e-05,2.23504e-05,-3.20846e-06,0
-2.80723e-05,9.62246e-07,-5.65046e-06,2.17397e-05,8.96742e-06,-1.15675e-05,1.98838e-05,-3.11813e-06,0
-2.97999e-05,1.57588e-06,-3.07312e-06,1.61497e-05,1.13001e-05,-1.22235e-05,1.70577e-05,-3.29765e-06,0
-2.94933e-05,1.11901e-06,-2.81758e-06,3.44519e-06,1.37408e-05,-1.20262e-05,1.51156e-05,-3.61784e-06,0
-2.81221e-05,-4.27971e-07,-3.17682e-06,-1.05708e-05,1.50611e-05,-1.09722e-05,1.30409e-05,-4.05707e-06,0
-2.84628e-05,4.84438e-07,-3.54074e-06,-2.00292e-05,1.5895e-05,-1.09342e-05,8.98195e-06,-6.09592e-06,0
-3.03832e-05,4.49905e-06,-4.19284e-06,-2.58234e-05,1.44365e-05,-1.34912e-05,3.98497e-06,-7.90151e-06,0
-3.19364e-05,8.39172e-06,-4.08012e-06,-3.09243e-05,1.24205e-05,-1.69219e-05,-4.51459e-07,-7.64273e-06,0
-3.2963e-05,1.10213e-05,-4.67591e-06,-3.46198e-05,1.15236e-05,-1.89489e-05,-4.52314e-06,-5.67759e-06,0
-3.3203e-05,1.15931e-05,-6.31679e-06,-3.56664e-05,1.04629e-05,-1.96449e-05,-6.77834e-06,-4.49084e-06,0
-3.14474e-05,1.21799e-05,-6.84856e-06,-3.16502e-05,9.16406e-06,-1.94278e-05,-6.97686e-06,-4.47033e-06,0
-2.91573e-05,1.41846e-05,-6.33678e-06,-2.68832e-05,9.34029e-06,-1.86061e-05,-7.01608e-06,-5.12321e-06,0
-2.90537e-05,1.6084e-05,-6.67793e-06,-3.08774e-05,1.10816e-05,-1.72862e-05,-6.60044e-06,-5.05025e-06,0
-3.10682e-05,1.73032e-05,-8.74546e-06,-4.07178e-05,1.28404e-05,-1.58526e-05,-3.82705e-06,-3.5738e-06,0
-3.23818e-05,1.7071e-05,-1.14425e-05,-4.3559e-05,1.56053e-05,-1.44389e-05,9.38888e-07,-1.59216e-06,0
-3.27693e-05,1.59594e-05,-1.17504e-05,-3.66765e-05,1.94961e-05,-1.29738e-05,4.37205e-06,-3.01113e-07,0
-3.41973e-05,1.58366e-05,-9.03632e-06,-2.41045e-05,2.27198e-05,-1.29886e-05,5.53231e-06,-9.65099e-07,0
-3.60411e-05,1.77847e-05,-6.14527e-06,-7.06899e-06,2.36282e-05,-1.552e-05,6.81581e-06,-1.63597e-06,0
-3.61219e-05,1.93778e-05,-5.15442e-06,1.78897e-05,2.1991e-05,-1.92968e-05,8.6704e-06,-7.00632e-07,0
-3.41779e-05,1.97713e-05,-5.83224e-06,4.97136e-05,1.97163e-05,-2.05162e-05,1.03803e-05,3.67945e-07,0
-3.16725e-05,1.99883e-05,-5.77381e-06,7.77277e-05,1.99351e-05,-1.84478e-05,1.10009e-05,2.52084e-08,0
-2.98437e-05,2.09579e-05,-3.65723e-06,9.4842e-05,2.15987e-05,-1.64377e-05,9.07604e-06,-4.4801e-07,0
-2.98563e-05,2.12133e-05,-1.65896e-06,9.8732e-05,2.43169e-05,-1.6816e-05,6.18887e-06,1.51744e-06,0
-3.13831e-05,1.9906e-05,-2.87673e-06,9.0782e-05,2.67443e-05,-1.76579e-05,4.88173e-06,4.79108e-06,0
-3.26521e-05,1.72425e-05,-5.90289e-06,6.95435e-05,2.50123e-05,-1.73262e-05,4.99109e-06,7.00841e-06,0
-3.18729e-05,1.57911e-05,-8.29925e-06,4.07969e-05,2.28143e-05,-1.85718e-05,5.99382e-06,8.04494e-06,0
-3.10924e-05,1.67008e-05,-9.95267e-06,1.66898e-05,2.16015e-05,-2.08681e-05,6.3397e-06,6.64484e-06,0
-3.14633e-05,1.73068e-05,-1.18014e-05,-1.65938e-06,1.92384e-05,-2.1218e-05,5.98917e-06,4.78141e-06,0
-3.03846e-05,1.72443e-05,-1.41434e-05,-2.06216e-05,1.5881e-05,-2.07426e-05,6.21464e-06,4.28093e-06,0
-2.97388e-05,1.76497e-05,-1.63521e-05,-4.45152e-05,1.30474e-05,-1.91948e-05,7.07978e-06,4.84693e-06,0
-3.04967e-05,1.81414e-05,-1.74639e-05,-6.70476e-05,1.2167e-05,-1.58306e-05,9.48708e-06,5.19656e-06,0
-3.07294e-05,1.95157e-05,-1.59846e-05,-8.06568e-05,1.44193e-05,-1.33499e-05,1.17415e-05,5.45364e-06,0
-2.98232e-05,2.13036e-05,-1.33468e-05,-7.43203e-05,1.81049e-05,-1.34246e-05,1.29253e-05,7.24156e-06,0
-2.83472e-05,2.13335e-05,-1.17716e-05,-5.41193e-05,1.89222e-05,-1.52699e-05,1.54766e-05,8.71757e-06,0
-2.66236e-05,1.96887e-05,-1.01822e-05,-3.58046e-05,1.68947e-05,-1.70942e-05,2.30878e-05,9.07926e-06,0
-2.62382e-05,1.62111e-05,-8.3919e-06,-2.23916e-05,1.37489e-05,-1.80435e-05,3.45489e-05,9.20298e-06,0
-2.71721e-05,1.28656e-05,-7.02683e-06,-1.33042e-05,1.19577e-05,-1.80673e-05,4.41356e-05,9.27797e-06,0
-2.78102e-05,1.20739e-05,-5.7326e-06,-8.8438e-06,1.15794e-05,-1.68717e-05,4.88859e-05,7.83019e-06,0
-2.8184e-05,1.22865e-05,-4.43396e-06,-8.10144e-06,1.03275e-05,-1.49771e-05,4.78532e-05,6.60015e-06,0
-2.81556e-05,9.79596e-06,-4.12193e-06,-7.35955e-06,7.44786e-06,-1.46194e-05,4.16814e-05,7.34075e-06,0
-2.88541e-05,5.19936e-06,-6.15832e-06,-7.63499e-06,5.62095e-06,-1.63606e-05,3.30703e-05,8.35892e-06,0
-3.19539e-05,2.10914e-06,-1.04538e-05,-1.07467e-05,5.93519e-06,-1.83705e-05,2.39386e-05,8.48213e-06,0
-3.54099e-05,2.80074e-06,-1.50221e-05,-1.64773e-05,6.96495e-06,-2.00243e-05,1.1684e-05,7.56655e-06,0
-3.52304e-05,5.71963e-06,-1.65111e-05,-1.87041e-05,8.70153e-06,-2.0814e-05,-4.81354e-06,6.49373e-06,0
-3.24109e-05,8.48019e-06,-1.4592e-05,-1.45236e-05,1.15734e-05,-2.01252e-05,-1.99995e-05,6.20394e-06,0
-3.0078e-05,1.07183e-05,-1.17392e-05,-8.36139e-06,1.62864e-05,-1.89256e-05,-2.72212e-05,6.78319e-06,0
-2.91294e-05,1.24973e-05,-1.00528e-05,-6.25381e-06,2.01858e-05,-1.75893e-05,-2.6445e-05,6.8621e-06,0
-2.93153e-05,1.41093e-05,-1.03846e-05,-6.52527e-06,2.08611e-05,-1.68086e-05,-2.12829e-05,6.95732e-06,0
-3.05513e-05,1.47593e-05,-1.1231e-05,-4.20471e-06,1.76838e-05,-1.79046e-05,-1.44592e-05,6.02186e-06,0
-3.06467e-05,1.49989e-05,-1.12795e-05,-3.17541e-07,1.15396e-05,-1.9636e-05,-7.15399e-06,3.18053e-06,0
-2.97237e-05,1.59301e-05,-1.15155e-05,2.65242e-07,8.61121e-06,-2.08346e-05,-2.3344e-06,1.54634e-06,0
-2.91505e-05,1.59675e-05,-1.02689e-05,-5.0023e-06,1.0328e-05,-1.89099e-05,-2.87591e-06,1.07507e-06,0
-2.97379e-05,1.49981e-05,-7.3733e-06,-1.23592e-05,1.39291e-05,-1.30708e-05,-2.65162e-06,-1.032e-07,0
-3.12639e-05,1.3375e-05,-4.9917e-06,-1.56253e-05,1.60106e-05,-8.26356e-06,2.709e-06,-1.22998e-06,0
-3.17594e-05,1.11556e-05,-4.59314e-06,-1.52232e-05,1.50714e-05,-6.60353e-06,8.35822e-06,-1.12072e-06,0
-3.26346e-05,8.53119e-06,-6.20836e-06,-1.54421e-05,1.42368e-05,-6.13545e-06,1.12567e-05,-1.18265e-06,0
-3.3303e-05,5.97342e-06,-7.24877e-06,-1.62208e-05,1.25055e-05,-5.66291e-06,1.49236e-05,-1.53483e-06,0
-3.27468e-05,4.023e-06,-6.32928e-06,-1.8081e-05,1.0423e-05,-5.44166e-06,2.08475e-05,-3.98019e-07,0
-3.2035e-05,3.68482e-06,-4.04189e-06,-1.90162e-05,6.73389e-06,-3.92103e-06,2.44437e-05,1.46886e-06,0
-3.23798e-05,4.50149e-06,-4.41039e-06,-1.46402e-05,2.0131e-06,-2.14273e-06,2.33324e-05,2.43127e-06,0
-3.28629e-05,5.49688e-06,-5.6746e-06,-7.3837e-06,-3.19795e-07,-1.68794e-06,2.04837e-05,2.12626e-06,0
-3.24376e-05,6.35861e-06,-4.77389e-06,-1.54757e-06,5.03052e-07,-2.02303e-06,1.81853e-05,1.58273e-06,0
-3.10135e-05,6.50775e-06,-3.22437e-06,3.02527e-06,4.69674e-06,-2.19842e-06,1.4789e-05,8.50281e-07,0
-2.87018e-05,7.33995e-06,-1.72375e-06,8.07666e-06,1.07373e-05,-1.85476e-06,1.1734e-05,-8.12688e-07,0
-2.64675e-05,9.04452e-06,1.19109e-07,1.25892e-05,1.70918e-05,-1.32641e-06,1.06927e-05,-3.30715e-06,0
-2.59678e-05,1.03738e-05,1.58138e-06,9.35337e-06,2.02058e-05,-1.50784e-06,1.04205e-05,-4.97737e-06,0
-2.83548e-05,1.00167e-05,3.92058e-07,-3.10371e-06,1.74367e-05,-2.95173e-06,1.08182e-05,-5.45483e-06,0
-3.11368e-05,8.96201e-06,-3.98693e-06,-1.38251e-05,1.0681e-05,-3.79901e-06,1.2719e-05,-5.7329e-06,0
-3.26288e-05,9.13941e-06,-1.01261e-05,-1.33388e-05,4.82726e-06,-3.70655e-06,1.59713e-05,-5.32632e-06,0
-3.23618e-05,1.14737e-05,-1.34926e-05,-7.72955e-06,1.59531e-06,-4.40869e-06,2.00147e-05,-4.31019e-06,0
-3.05381e-05,1.42406e-05,-1.15771e-05,-6.73253e-06,3.46556e-07,-6.15061e-06,2.48614e-05,-3.12111e-06,0
-2.85789e-05,1.46068e-05,-7.65478e-06,-1.20452e-05,-3.24898e-07,-6.09092e-06,2.77065e-05,-2.74926e-06,0
-2.73339e-05,1.27182e-05,-5.79492e-06,-1.67929e-05,-1.33404e-06,-4.29605e-06,2.76543e-05,-3.55679e-06,0
-2.78605e-05,1.13277e-05,-5.04366e-06,-1.15141e-05,-2.28655e-06,-2.02258e-06,2.55436e-05,-3.47921e-06,0
-3.14359e-05,1.20877e-05,-3.8281e-06,2.9272e-06,-2.42796e-06,-1.6721e-06,2.23371e-05,-2.41435e-06,0
-3.51693e-05,1.36146e-05,-2.53797e-06,1.66199e-05,-8.07935e-07,-4.05646e-06,2.04655e-05,-1.25892e-06,0
-3.62661e-05,1.31357e-05,-1.85697e-06,2.44143e-05,6.07155e-06,-6.66521e-06,2.11661e-05,7.71008e-07,0
-3.46151e-05,1.30465e-05,-1.54293e-06,2.78669e-05,2.29944e-05,-7.354e-06,2.21815e-05,1.34714e-06,0
-3.05238e-05,1.42547e-05,-1.75467e-06,2.55654e-05,4.36392e-05,-4.6505e-06,1.98157e-05,-6.01415e-07,0
-2.72899e-05,1.3487e-05,-4.02836e-06,1.43953e-05,5.06685e-05,-1.46063e-06,1.58627e-05,-1.69101e-06,0
-2.74239e-05,1.38754e-05,-6.60618e-06,1.6233e-06,4.29324e-05,-1.8127e-06,1.41031e-05,-1.51141e-06,0
-2.85927e-05,1.6204e-05,-6.69554e-06,-4.10713e-06,3.29566e-05,-3.49793e-06,1.47559e-05,-6.71029e-07,0
-2.82163e-05,1.55338e-05,-5.52594e-06,-2.51668e-06,2.77585e-05,-3.10426e-06,1.67693e-05,3.84592e-07,0
-2.87575e-05,1.2698e-05,-4.70033e-06,4.97967e-06,2.85131e-05,-2.10459e-06,1.81701e-05,8.14613e-07,0
-3.04138e-05,1.26948e-05,-3.98233e-06,1.38466e-05,2.96445e-05,-1.39908e-06,1.85872e-05,1.70236e-06,0
-3.11988e-05,1.50346e-05,-2.8401e-06,2.18715e-05,2.96841e-05,-1.34376e-06,1.78237e-05,2.55508e-06,0
-3.16019e-05,1.62833e-05,-2.00619e-06,2.70268e-05,2.81632e-05,-2.13551e-06,1.53726e-05,3.54626e-06,0
-3.11775e-05,1.59761e-05,-2.41607e-06,2.72655e-05,2.57344e-05,-2.80377e-06,1.10978e-05,3.80302e-06,0
-2.99891e-05,1.5338e-05,-3.38492e-06,2.50834e-05,2.38764e-05,-2.94377e-06,4.54785e-06,2.25979e-06,0
-2.92087e-05,1.53439e-05,-5.33593e-06,2.25303e-05,2.33841e-05,-2.43836e-06,-8.69419e-07,8.42839e-07,0
-2.97945e-05,1.56236e-05,-7.88885e-06,1.82264e-05,2.25541e-05,-2.16256e-06,-2.18876e-07,-3.43326e-08,0
-3.17815e-05,1.56682e-05,-9.62201e-06,1.09791e-05,2.07004e-05,-3.13222e-06,5.05574e-06,-1.15876e-06,0
-3.34009e-05,1.684e-05,-9.73494e-06,-2.73699e-07,2.05675e-05,-4.82942e-06,9.68332e-06,-2.50163e-06,0
-3.35079e-05,2.03932e-05,-7.87532e-06,-1.57309e-05,2.05511e-05,-5.73355e-06,1.05891e-05,-3.96836e-06,0
-3.27467e-05,2.60311e-05,-5.91633e-06,-3.14363e-05,1.73446e-05,-5.4007e-06,7.00793e-06,-5.30187e-06,0
-3.21977e-05,3.23167e-05,-5.32528e-06,-4.15038e-05,1.15296e-05,-5.34064e-06,1.71944e-07,-6.20106e-06,0
-3.27085e-05,3.82249e-05,-5.22428e-06,-4.12448e-05,9.16942e-06,-6.16076e-06,-7.97461e-06,-6.05506e-06,0
-3.35975e-05,4.17475e-05,-4.56254e-06,-3.14968e-05,1.21012e-05,-7.24308e-06,-1.20809e-05,-4.37117e-06,0
-3.33388e-05,3.99868e-05,-4.0973e-06,-2.00646e-05,1.71425e-05,-9.27171e-06,-8.38334e-06,-1.62247e-06,0
-3.22471e-05,3.28515e-05,-4.18788e-06,-1.52386e-05,1.89554e-05,-1.18341e-05,-4.13308e-07,8.79886e-07,0
-3.01397e-05,2.35669e-05,-4.57325e-06,-1.61334e-05,1.71705e-05,-1.37424e-05,5.54115e-06,1.62537e-06,0
-2.89133e-05,1.4852e-05,-5.64295e-06,-1.62309e-05,1.51262e-05,-1.55004e-05,6.97312e-06,1.48742e-06,0
-3.09528e-05,8.92401e-06,-6.69426e-06,-1.2381e-05,1.43053e-05,-1.70012e-05,5.49298e-06,2.04849e-06,0
-3.28529e-05,6.12009e-06,-7.79164e-06,-6.89384e-06,1.29336e-05,-1.86052e-05,5.42078e-06,2.45306e-06,0
-3.30825e-05,6.27223e-06,-7.67432e-06,-2.39614e-06,9.78607e-06,-2.07398e-05,9.64569e-06,2.41972e-06,0
-3.27821e-05,1.00441e-05,-7.31532e-06,1.16464e-06,8.13424e-06,-2.07641e-05,1.42748e-05,2.59118e-06,0
-3.16343e-05,1.58727e-05,-7.44398e-06,3.41345e-07,8.8168e-06,-1.85415e-05,1.48655e-05,5.36091e-06,0
-3.12413e-05,2.27318e-05,-6.70422e-06,-8.27191e-06,7.67734e-06,-1.57664e-05,1.18666e-05,9.27759e-06,0
-3.17435e-05,3.08155e-05,-7.9396e-06,-1.97259e-05,5.50762e-06,-1.32378e-05,8.80002e-06,9.81562e-06,0
-3.13281e-05,3.75008e-05,-1.20934e-05,-2.52446e-05,3.78555e-06,-1.20861e-05,7.39913e-06,7.59017e-06,0
-3.0309e-05,3.89187e-05,-1.55193e-05,-2.28537e-05,2.55787e-06,-9.54627e-06,4.09559e-06,4.43809e-06,0
-2.90394e-05,3.63139e-05,-1.55943e-05,-1.74824e-05,1.75621e-06,-6.85369e-06,-1.81387e-06,4.18183e-06,0
-2.85797e-05,3.18682e-05,-1.38642e-05,-9.10184e-06,5.01119e-07,-7.02642e-06,-4.3563e-06,6.14438e-06,0
-2.83561e-05,2.62111e-05,-1.39148e-05,3.42019e-06,1.21968e-07,-9.73987e-06,-2.52723e-06,8.09389e-06,0
-2.76171e-05,1.98506e-05,-1.56973e-05,1.90925e-05,-1.53263e-07,-1.26567e-05,1.2887e-06,8.47602e-06,0
-2.71019e-05,1.42499e-05,-1.78382e-05,3.47907e-05,-3.73101e-07,-1.28837e-05,5.60954e-06,8.27109e-06,0
-2.63678e-05,9.94603e-06,-1.90975e-05,4.33464e-05,-1.78492e-06,-1.12715e-05,9.7761e-06,8.91851e-06,0
-2.54492e-05,5.19756e-06,-1.8869e-05,4.14501e-05,-3.05773e-06,-9.15274e-06,1.41563e-05,9.60281e-06,0
-2.52437e-05,-7.21923e-07,-1.90867e-05,3.31193e-05,-3.23623e-06,-7.69735e-06,1.85944e-05,8.93751e-06,0
-2.56164e-05,-5.66501e-06,-1.97334e-05,2.38856e-05,-1.89095e-06,-6.90903e-06,2.29068e-05,6.69932e-06,0
-2.65953e-05,-6.06335e-06,-1.92666e-05,1.55995e-05,4.23428e-07,-6.0736e-06,2.70393e-05,5.3061e-06,0
-2.8441e-05,-9.19151e-07,-1.7573e-05,6.88968e-06,3.45176e-06,-5.62918e-06,3.03146e-05,5.66425e-06,0
-2.95475e-05,6.82773e-06,-1.63294e-05,-3.54265e-06,8.31437e-06,-5.46637e-06,3.20276e-05,6.8857e-06,0
-2.8455e-05,1.31076e-05,-1.53421e-05,-1.43471e-05,1.24307e-05,-5.47261e-06,3.32791e-05,6.55417e-06,0
-2.73714e-05,1.65023e-05,-1.46003e-05,-2.57825e-05,1.34539e-05,-6.46352e-06,3.44814e-05,5.76493e-06,0
-2.82601e-05,1.76273e-05,-1.53215e-05,-3.93712e-05,1.28099e-05,-7.77739e-06,3.48835e-05,5.54194e-06,0
-2.9133e-05,1.73158e-05,-1.73295e-05,-5.31203e-05,1.33835e-05,-9.0545e-06,3.32194e-05,5.77511e-06,0
-2.86487e-05,1.45884e-05,-1.89627e-05,-6.23407e-05,1.57838e-05,-1.01069e-05,2.65948e-05,4.95858e-06,0
-2.81296e-05,1.00236e-05,-1.84865e-05,-6.1029e-05,1.88112e-05,-9.84853e-06,9.81462e-06,3.36799e-06,0
-2.84718e-05,8.49344e-06,-1.63558e-05,-4.76524e-05,2.10674e-05,-8.62759e-06,-9.58555e-06,3.02405e-06,0
-2.89081e-05,9.77057e-06,-1.47105e-05,-2.91371e-05,2.14669e-05,-8.28471e-06,-1.8158e-05,4.48916e-06,0
-2.91353e-05,8.82352e-06,-1.31818e-05,-1.31483e-05,2.04554e-05,-9.51828e-06,-1.36529e-05,5.7667e-06,0
-2.89685e-05,5.88467e-06,-9.98331e-06,-5.71935e-06,2.06254e-05,-9.4977e-06,-3.68459e-07,6.50011e-06,0
-3.03996e-05,3.94818e-06,-6.86428e-06,-3.55453e-06,2.08003e-05,-7.04947e-06,1.34835e-05,7.38208e-06,0
-3.28173e-05,5.23712e-06,-4.24647e-06,-1.96587e-06,1.80264e-05,-3.87183e-06,2.56852e-05,7.39104e-06,0
-3.36198e-05,9.23363e-06,-3.33809e-06,-3.3069e-06,1.29079e-05,-1.56929e-06,3.56246e-05,5.04934e-06,0
-3.19897e-05,1.26407e-05,-6.24734e-06,-5.36253e-06,1.07467e-05,-1.93481e-06,4.06245e-05,1.20494e-06,0
-3.02121e-05,1.48817e-05,-9.24488e-06,-6.27492e-06,1.23139e-05,-2.26768e-06,4.06537e-05,-2.49097e-06,0
-2.91472e-05,1.74584e-05,-1.05746e-05,-8.20004e-06,1.33512e-05,-1.68008e-06,3.70584e-05,-3.05314e-06,0
-2.85972e-05,1.77792e-05,-1.0254e-05,-1.11322e-05,1.19503e-05,-1.1155e-07,2.95242e-05,-6.82969e-07,0
-2.98473e-05,1.59937e-05,-8.3679e-06,-1.3199e-05,1.07966e-05,2.64045e-06,1.99111e-05,1.31368e-06,0
-3.15711e-05,1.48335e-05,-6.99141e-06,-1.35057e-05,1.05145e-05,3.33542e-06,1.26974e-05,2.4746e-06,0
-3.26222e-05,1.4819e-05,-7.0358e-06,-1.31402e-05,1.04493e-05,1.35945e-06,9.93763e-06,1.49587e-06,0
-3.26953e-05,1.58191e-05,-7.67977e-06,-1.49794e-05,1.1596e-05,-4.72558e-07,1.37469e-05,-2.06694e-07,0
-3.26817e-05,1.50332e-05,-7.53781e-06,-1.9713e-05,1.3248e-05,-2.19217e-08,2.14042e-05,-2.96471e-07,0
-3.24724e-05,1.16378e-05,-7.19438e-06,-2.42556e-05,1.42002e-05,1.34784e-06,2.81773e-05,9.32001e-07,0
-3.24094e-05,8.53633e-06,-6.67702e-06,-2.51383e-05,1.41022e-05,2.88068e-06,3.22074e-05,2.71631e-07,0
-3.33586e-05,8.12389e-06,-6.6957e-06,-2.19044e-05,1.31224e-05,3.17353e-06,3.80719e-05,-1.70342e-06,0
-3.53729e-05,9.38012e-06,-7.73625e-06,-1.66566e-05,1.11297e-05,1.088e-06,4.69822e-05,-4.29691e-06,0
-3.55738e-05,1.19247e-05,-9.5485e-06,-1.17565e-05,1.01076e-05,-2.448e-06,5.2882e-05,-6.7437e-06,0
-3.29772e-05,1.45314e-05,-1.08775e-05,-7.8885e-06,9.90228e-06,-4.76938e-06,5.17583e-05,-7.6795e-06,0
-2.93882e-05,1.67639e-05,-9.29402e-06,-5.56122e-06,9.79387e-06,-5.17712e-06,4.4152e-05,-6.85218e-06,0
-2.62034e-05,2.19175e-05,-5.62976e-06,-5.36079e-06,1.06243e-05,-5.18377e-06,3.31216e-05,-5.24626e-06,0
-2.46837e-05,2.96349e-05,-4.05578e-06,-5.94179e-06,1.26564e-05,-5.57053e-06,2.12183e-05,-4.27789e-06,0
-2.55201e-05,3.41954e-05,-4.42833e-06,-4.3274e-06,1.36767e-05,-5.37192e-06,9.79736e-06,-3.60546e-06,0
-2.63153e-05,3.29311e-05,-3.681e-06,8.83082e-07,1.33296e-05,-4.47566e-06,-2.19271e-06,-2.7296e-06,0
-2.62319e-05,2.92202e-05,-1.7124e-06,5.78847e-06,1.30699e-05,-3.00092e-06,-1.45369e-05,-1.57702e-06,0
-2.77251e-05,2.4827e-05,4.07323e-07,6.0171e-06,1.18513e-05,-1.63858e-06,-2.35693e-05,-3.48053e-06,0
-2.84243e-05,1.78566e-05,1.17769e-06,4.56581e-06,9.28959e-06,-1.55877e-06,-2.53967e-05,-6.24298e-06,0
-2.77719e-05,8.4302e-06,6.26496e-07,5.0517e-06,7.50799e-06,-2.70544e-06,-2.29538e-05,-5.37835e-06,0
-2.75032e-05,-2.79708e-06,-1.04263e-06,5.32374e-06,8.21415e-06,-5.6385e-06,-1.93933e-05,-3.47035e-06,0
-2.88159e-05,-1.37207e-05,-2.14971e-06,3.21197e-06,1.13175e-05,-8.16222e-06,-1.5301e-05,-2.28925e-06,0
-2.98834e-05,-1.83377e-05,-1.17648e-06,-1.07207e-07,1.55651e-05,-8.44741e-06,-1.13083e-05,-1.91379e-06,0
-2.91017e-05,-1.53793e-05,1.38083e-06,-1.5046e-06,1.83339e-05,-7.62518e-06,-8.63135e-06,-2.07389e-06,0
-2.93862e-05,-9.61117e-06,4.05279e-06,8.05036e-07,1.92575e-05,-7.58346e-06,-8.65776e-06,-2.542e-06,0
-3.06661e-05,-1.26433e-06,5.50592e-06,2.92231e-06,2.07017e-05,-8.28353e-06,-8.01109e-06,-3.46419e-06,0
-3.17767e-05,1.40754e-05,5.30348e-06,6.79582e-07,2.05848e-05,-1.01318e-05,-5.39215e-06,-4.92243e-06,0
-3.28638e-05,3.24839e-05,5.16414e-06,-5.06494e-06,1.93579e-05,-1.24306e-05,-3.15676e-06,-5.5181e-06,0
-3.2054e-05,4.65201e-05,6.73053e-06,-1.22851e-05,1.80969e-05,-1.48476e-05,-1.05972e-07,-4.56642e-06,0
-2.89015e-05,5.27171e-05,7.55726e-06,-1.82331e-05,1.58063e-05,-1.63532e-05,2.90373e-06,-3.6141e-06,0
-2.65848e-05,4.79701e-05,6.41081e-06,-2.17161e-05,1.39788e-05,-1.60891e-05,4.07547e-06,-3.06912e-06,0
-2.74891e-05,3.37615e-05,4.4271e-06,-2.28567e-05,1.2533e-05,-1.5335e-05,5.07516e-06,-2.90155e-06,0
-3.08002e-05,1.71661e-05,2.60878e-06,-2.05257e-05,1.14351e-05,-1.4199e-05,6.70467e-06,-2.79981e-06,0
-3.35863e-05,3.54771e-06,-1.4179e-07,-1.34789e-05,1.14094e-05,-1.23903e-05,9.06481e-06,-3.96048e-06,0
-3.38292e-05,-7.12343e-06,-4.15427e-06,-2.05027e-06,1.41882e-05,-1.10419e-05,1.15736e-05,-5.96796e-06,0
-3.25408e-05,-1.54113e-05,-8.20483e-06,1.01062e-05,1.92682e-05,-1.17845e-05,1.32373e-05,-6.92831e-06,0
-3.14463e-05,-1.87272e-05,-1.10747e-05,1.87827e-05,2.33023e-05,-1.28034e-05,1.15211e-05,-6.12787e-06,0
-3.14295e-05,-1.67557e-05,-1.30778e-05,2.43333e-05,2.40451e-05,-1.23252e-05,2.68425e-06,-5.2501e-06,0
-3.19826e-05,-1.16987e-05,-1.58197e-05,2.92693e-05,2.44527e-05,-1.06661e-05,-9.12047e-06,-4.44989e-06,0
-3.29134e-05,-5.88107e-06,-1.91072e-05,3.32312e-05,2.65096e-05,-9.4768e-06,-1.33721e-05,-2.41153e-06,0
-3.39305e-05,-3.06025e-06,-2.21839e-05,3.50181e-05,2.87329e-05,-8.58735e-06,-7.1154e-06,9.8839e-07,0
-3.34159e-05,-4.30748e-06,-2.46297e-05,3.19783e-05,2.82381e-05,-7.00605e-06,5.56571e-06,4.53755e-06,0
-3.19176e-05,-7.61751e-06,-2.56556e-05,2.39808e-05,2.59224e-05,-5.74127e-06,2.03306e-05,5.99715e-06,0
-3.11394e-05,-9.77785e-06,-2.52484e-05,1.48779e-05,2.44934e-05,-6.78398e-06,3.34489e-05,4.68345e-06,0
-3.18373e-05,-8.58669e-06,-2.55205e-05,5.55401e-06,2.43686e-05,-8.15393e-06,4.24577e-05,3.49519e-06,0
-3.31272e-05,-5.85257e-06,-2.68485e-05,-5.50536e-06,2.46143e-05,-7.53582e-06,4.68053e-05,3.84794e-06,0
-3.48239e-05,-2.55749e-06,-2.75739e-05,-2.21965e-05,2.04593e-05,-7.67623e-06,4.67452e-05,3.86993e-06,0
-3.44964e-05,-9.53931e-07,-2.49923e-05,-3.84394e-05,1.21343e-05,-1.0161e-05,4.30029e-05,3.9854e-06,0
-3.25101e-05,-1.21989e-06,-2.02585e-05,-4.26653e-05,4.42143e-06,-1.41038e-05,3.79618e-05,3.8027e-06,0
-3.29019e-05,-6.41589e-07,-1.56684e-05,-3.5578e-05,3.32585e-07,-1.63784e-05,3.26458e-05,3.50906e-06,0
-3.41812e-05,1.8635e-06,-1.26522e-05,-2.56615e-05,2.60631e-07,-1.55354e-05,2.77452e-05,2.73839e-06,0
-3.48878e-05,5.15804e-06,-1.2271e-05,-1.74721e-05,1.8274e-06,-1.54486e-05,2.40718e-05,1.76834e-06,0
-3.29679e-05,7.71213e-06,-1.13931e-05,-8.3353e-06,3.2804e-06,-1.50494e-05,2.06844e-05,1.19166e-06,0
-2.91514e-05,1.14401e-05,-8.58612e-06,2.18977e-06,6.26257e-06,-1.4054e-05,1.67962e-05,4.43944e-07,0
-2.70295e-05,1.59363e-05,-6.0109e-06,1.19437e-05,1.21546e-05,-1.3528e-05,1.20311e-05,7.53902e-07,0
-2.75202e-05,1.91037e-05,-4.02395e-06,2.01807e-05,1.9307e-05,-1.18019e-05,1.01459e-05,8.39796e-07,0
-2.83387e-05,1.83125e-05,-1.11621e-06,2.76824e-05,2.53002e-05,-9.19234e-06,1.14544e-05,-5.64971e-07,0
-2.79181e-05,1.50322e-05,2.62797e-07,3.34067e-05,2.69752e-05,-6.89959e-06,1.23792e-05,-2.83891e-06,0
-2.71756e-05,1.10482e-05,-1.21405e-06,3.34488e-05,2.38164e-05,-7.41528e-06,1.3079e-05,-3.96931e-06,0
-2.68746e-05,6.98469e-06,-3.47277e-06,2.77075e-05,1.84305e-05,-9.37501e-06,1.29294e-05,-2.84977e-06,0
-2.79315e-05,4.66837e-06,-5.22549e-06,2.0509e-05,1.45546e-05,-1.07732e-05,1.10097e-05,-5.72046e-07,0
-2.92221e-05,5.48891e-06,-7.33037e-06,1.33372e-05,1.43913e-05,-1.03413e-05,8.83987e-06,2.00368e-07,0
-2.95104e-05,8.79521e-06,-9.14921e-06,6.83713e-06,1.62457e-05,-8.69462e-06,8.46192e-06,-2.30707e-06,0
-2.86981e-05,1.05323e-05,-9.75939e-06,2.09521e-06,1.7095e-05,-8.08392e-06,9.16099e-06,-5.46805e-06,0
-2.78769e-05,9.84791e-06,-9.60076e-06,-2.01476e-06,1.51282e-05,-9.08417e-06,8.9248e-06,-7.11713e-06,0
-2.74986e-05,9.41844e-06,-8.3522e-06,-6.63435e-06,1.06485e-05,-1.01458e-05,7.61909e-06,-6.6607e-06,0
-2.69305e-05,1.05877e-05,-7.0956e-06,-1.10658e-05,5.49701e-06,-1.09252e-05,6.29794e-06,-4.99962e-06,0
-2.62939e-05,1.22392e-05,-7.51801e-06,-1.38336e-05,1.85956e-06,-1.16543e-05,4.91681e-06,-3.90012e-06,0
-2.70181e-05,1.37982e-05,-8.86837e-06,-1.45134e-05,-6.41081e-07,-1.27867e-05,4.0148e-06,-4.7219e-06,0
-2.951e-05,1.44283e-05,-9.14661e-06,-1.51127e-05,-2.5647e-06,-1.49373e-05,4.56919e-06,-6.51526e-06,0
-3.2577e-05,1.45086e-05,-9.4964e-06,-1.54531e-05,-3.77108e-06,-1.62296e-05,5.85079e-06,-6.2031e-06,0
-3.372e-05,1.37912e-05,-9.65791e-06,-1.27855e-05,-3.92277e-06,-1.62844e-05,6.5178e-06,-2.84171e-06,0
-3.27063e-05,1.40323e-05,-8.01089e-06,-1.00432e-05,-3.6622e-06,-1.56822e-05,6.56645e-06,-6.16296e-07,0
-3.06735e-05,1.63693e-05,-5.71132e-06,-9.10765e-06,-3.85242e-06,-1.55525e-05,5.98587e-06,-1.5331e-06,0
-2.8695e-05,1.86599e-05,-5.3982e-06,-5.34172e-06,-4.65825e-06,-1.61812e-05,6.57271e-06,-2.19244e-06,0
-2.80932e-05,1.93812e-05,-6.15845e-06,8.39234e-06,-5.7561e-06,-1.68449e-05,9.87707e-06,-2.15482e-06,0
-2.7288e-05,1.80023e-05,-6.93311e-06,2.65115e-05,-5.65686e-06,-1.78399e-05,1.35381e-05,-7.45914e-07,0
-2.50603e-05,1.65712e-05,-8.38131e-06,3.42618e-05,-4.78015e-06,-1.89287e-05,1.52638e-05,1.93567e-06,0
-2.32596e-05,1.63572e-05,-9.34516e-06,3.00493e-05,-3.70253e-06,-1.9488e-05,1.93127e-05,4.37893e-06,0
-2.30264e-05,1.82979e-05,-9.59052e-06,1.98497e-05,-3.61125e-06,-1.92407e-05,2.85416e-05,5.26248e-06,0
-2.28719e-05,2.17103e-05,-9.5512e-06,8.74444e-06,-4.05136e-06,-1.83907e-05,3.78375e-05,4.19069e-06,0
-2.33127e-05,2.4237e-05,-9.77026e-06,-1.37521e-06,-2.81471e-06,-1.72626e-05,4.46605e-05,2.92368e-06,0
-2.48924e-05,2.50404e-05,-1.07338e-05,-1.07538e-05,-3.19513e-07,-1.6363e-05,4.64565e-05,1.72551e-06,0
-2.68417e-05,2.55027e-05,-1.08569e-05,-1.69523e-05,2.02206e-06,-1.58899e-05,4.18431e-05,2.06151e-06,0
-2.85185e-05,2.5329e-05,-7.58629e-06,-1.93097e-05,3.73991e-06,-1.47492e-05,3.16761e-05,2.85273e-06,0
-2.96087e-05,2.25605e-05,-3.09713e-06,-2.31296e-05,5.86233e-06,-1.34269e-05,1.71755e-05,2.87279e-06,0
-2.95219e-05,1.89234e-05,-1.45069e-06,-3.23158e-05,7.70005e-06,-1.24452e-05,1.01247e-06,2.04429e-06,0
-2.95714e-05,1.64448e-05,-2.96976e-06,-4.12191e-05,8.3866e-06,-1.23152e-05,-1.39571e-05,9.97776e-07,0
-3.11949e-05,1.61687e-05,-4.74258e-06,-4.423e-05,8.40101e-06,-1.19419e-05,-2.5213e-05,6.68505e-07,0
-3.26154e-05,1.7059e-05,-5.3702e-06,-4.07838e-05,8.10358e-06,-1.00012e-05,-2.92429e-05,1.72862e-06,0
-3.2218e-05,1.64082e-05,-6.29155e-06,-3.20776e-05,6.9992e-06,-7.10456e-06,-2.43246e-05,3.7575e-06,0
-3.13884e-05,1.45425e-05,-8.20526e-06,-2.05996e-05,5.25278e-06,-5.50921e-06,-1.51775e-05,3.68395e-06,0
-3.19855e-05,1.40398e-05,-9.6687e-06,-9.65583e-06,4.27502e-06,-6.7616e-06,-7.78825e-06,2.06646e-06,0
-3.34238e-05,1.45909e-05,-9.02931e-06,-1.46992e-06,5.41417e-06,-8.98506e-06,-3.59637e-06,1.11841e-06,0
-3.51805e-05,1.44284e-05,-7.17034e-06,3.61136e-06,1.00646e-05,-9.63244e-06,-1.6149e-06,1.25632e-06,0
-3.6236e-05,1.3653e-05,-4.36136e-06,6.72525e-06,1.48729e-05,-7.51392e-06,-1.77259e-06,2.27265e-06,0
-3.53291e-05,1.32944e-05,-2.11033e-06,9.0024e-06,1.59221e-05,-5.57777e-06,-1.60297e-06,4.10805e-06,0
-3.34279e-05,1.3847e-05,-1.72574e-06,8.66524e-06,1.53613e-05,-5.68517e-06,7.87158e-07,6.27393e-06,0
-3.20896e-05,1.37103e-05,-3.0226e-06,7.3917e-06,1.56017e-05,-7.40824e-06,5.05944e-06,6.93128e-06,0
-3.12887e-05,1.38015e-05,-7.18419e-06,7.37657e-06,1.48731e-05,-9.45348e-06,9.6418e-06,4.76342e-06,0
-3.17118e-05,1.40347e-05,-1.23973e-05,6.3023e-06,1.19311e-05,-1.10317e-05,1.08262e-05,2.56066e-06,0
-3.25602e-05,1.42464e-05,-1.38698e-05,4.36367e-07,9.32036e-06,-1.14126e-05,8.93026e-06,2.71431e-06,0
-3.21644e-05,1.41838e-05,-1.13376e-05,-9.70762e-06,9.20612e-06,-1.03607e-05,9.00527e-06,3.86494e-06,0
-3.06718e-05,1.26796e-05,-8.32085e-06,-1.66824e-05,1.18333e-05,-9.47661e-06,1.18119e-05,4.05298e-06,0
-2.90031e-05,1.20207e-05,-4.05757e-06,-1.91157e-05,1.49454e-05,-8.22297e-06,1.3537e-05,3.79313e-06,0
-2.96782e-05,1.31407e-05,-7.79727e-07,-1.99855e-05,1.68136e-05,-6.69475e-06,1.26146e-05,3.42496e-06,0
-3.15386e-05,1.41294e-05,-8.13674e-07,-1.79934e-05,1.69396e-05,-5.39241e-06,1.27297e-05,3.16069e-06,0
-3.13618e-05,1.24951e-05,-2.95591e-06,-1.55634e-05,1.65061e-05,-5.60587e-06,1.29033e-05,2.26843e-06,0
-3.07087e-05,9.36587e-06,-5.22436e-06,-1.45677e-05,1.81456e-05,-7.19912e-06,1.06329e-05,2.4848e-06,0
-3.14047e-05,6.79243e-06,-6.30728e-06,-1.36758e-05,2.12909e-05,-8.07998e-06,9.07389e-06,3.4697e-06,0
-3.16416e-05,7.58485e-06,-7.54272e-06,-1.25692e-05,2.54982e-05,-7.28856e-06,1.04615e-05,4.08326e-06,0
-3.08794e-05,1.37709e-05,-9.51203e-06,-1.26957e-05,2.92827e-05,-5.67246e-06,1.37663e-05,4.66463e-06,0
-2.9857e-05,2.3227e-05,-1.1333e-05,-1.42471e-05,3.09595e-05,-5.14119e-06,1.71196e-05,4.88946e-06,0
-2.87004e-05,3.04593e-05,-1.08663e-05,-1.22864e-05,3.09164e-05,-5.60383e-06,1.99002e-05,4.66651e-06,0
-2.7659e-05,3.20653e-05,-8.66639e-06,-2.18024e-06,3.00526e-05,-6.21775e-06,2.1376e-05,3.06409e-06,0
-2.70281e-05,2.92159e-05,-6.48739e-06,1.28675e-05,2.87851e-05,-6.08517e-06,2.16525e-05,1.2318e-06,0
-2.75773e-05,2.44435e-05,-5.66573e-06,2.06511e-05,2.80713e-05,-6.4445e-06,2.01547e-05,8.59583e-07,0
-2.90263e-05,1.91805e-05,-5.33627e-06,1.32602e-05,2.79982e-05,-7.71508e-06,1.70998e-05,3.33411e-06,0
-2.99371e-05,1.21432e-05,-4.8147e-06,-4.31699e-06,2.86018e-05,-8.41235e-06,1.51148e-05,5.99264e-06,0
-2.97892e-05,3.29785e-06,-4.975e-06,-1.85446e-05,3.02438e-05,-8.38002e-06,1.5937e-05,6.48934e-06,0
-3.00071e-05,-5.10733e-06,-6.2512e-06,-2.07295e-05,3.11642e-05,-7.93788e-06,1.78969e-05,4.90593e-06,0
-3.05807e-05,-1.09062e-05,-6.72588e-06,-1.58365e-05,2.92939e-05,-6.12234e-06,1.88736e-05,4.33414e-06,0
-3.02543e-05,-1.4444e-05,-6.6955e-06,-1.38981e-05,2.64372e-05,-4.71818e-06,1.83477e-05,6.31272e-06,0
-2.99871e-05,-1.37236e-05,-6.45464e-06,-1.69272e-05,2.54732e-05,-5.77819e-06,1.73001e-05,7.97538e-06,0
-3.09611e-05,-7.43488e-06,-4.64028e-06,-2.25555e-05,2.57429e-05,-7.43687e-06,1.65154e-05,8.14925e-06,0
-3.15624e-05,1.1046e-06,-4.12847e-06,-2.96632e-05,2.60051e-05,-7.83547e-06,1.55248e-05,8.32734e-06,0
-3.11029e-05,7.35263e-06,-6.18325e-06,-3.3933e-05,2.48389e-05,-8.07472e-06,1.612e-05,8.89667e-06,0
-3.10115e-05,1.03439e-05,-1.01162e-05,-3.159e-05,2.28962e-05,-8.61803e-06,1.8483e-05,8.23032e-06,0
-3.10837e-05,1.03647e-05,-1.19989e-05,-2.55837e-05,2.19476e-05,-1.00956e-05,1.9287e-05,5.2603e-06,0
-3.05221e-05,8.21208e-06,-1.02863e-05,-2.47104e-05,2.10258e-05,-1.29052e-05,1.97886e-05,2.24161e-06,0
-2.94645e-05,8.02641e-06,-8.52539e-06,-3.71923e-05,1.89898e-05,-1.37216e-05,2.05671e-05,2.59978e-07,0
-2.84295e-05,1.09112e-05,-8.40083e-06,-5.61934e-05,1.78545e-05,-1.3153e-05,2.05128e-05,5.39898e-07,0
-2.87156e-05,1.34063e-05,-8.85971e-06,-6.53346e-05,1.64833e-05,-1.30936e-05,1.8586e-05,1.86326e-06,0
-3.02063e-05,1.34014e-05,-9.07977e-06,-6.32704e-05,1.45359e-05,-1.37489e-05,1.65209e-05,2.81661e-06,0
-3.01508e-05,1.28451e-05,-9.27594e-06,-5.71661e-05,1.29851e-05,-1.38388e-05,1.61791e-05,4.29209e-06,0
-2.88448e-05,1.26579e-05,-8.52789e-06,-4.87531e-05,1.16736e-05,-1.42186e-05,1.52713e-05,5.08103e-06,0
-2.90108e-05,1.29611e-05,-6.92458e-06,-3.04469e-05,9.97715e-06,-1.58575e-05,1.55073e-05,4.12126e-06,0
-3.11305e-05,1.3697e-05,-5.39986e-06,1.58719e-06,8.02271e-06,-1.77507e-05,1.80363e-05,6.85912e-07,0
-3.34963e-05,1.4773e-05,-4.78374e-06,3.7035e-05,8.72431e-06,-1.89935e-05,2.17495e-05,-2.03205e-06,0
-3.31871e-05,1.52795e-05,-4.78039e-06,5.97079e-05,1.12062e-05,-1.84403e-05,2.43288e-05,-2.28541e-06,0
-3.08775e-05,1.47671e-05,-5.07207e-06,6.4072e-05,1.42976e-05,-1.6491e-05,2.53429e-05,-2.00858e-06,0
-3.02549e-05,1.34712e-05,-4.91505e-06,5.57062e-05,1.87965e-05,-1.45153e-05,2.56195e-05,-1.10499e-06,0
-3.1003e-05,1.21884e-05,-3.73284e-06,3.95796e-05,2.2599e-05,-1.35136e-05,2.68324e-05,7.79314e-07,0
-3.07035e-05,1.16588e-05,-2.4411e-06,2.2037e-05,2.30337e-05,-1.2903e-05,2.83161e-05,9.36257e-07,0
-2.99522e-05,1.19661e-05,-1.19365e-06,8.47607e-06,2.24453e-05,-1.21216e-05,2.7085e-05,-1.08554e-06,0
-2.99229e-05,1.36537e-05,-5.15898e-07,1.991e-06,2.33508e-05,-1.19278e-05,2.27938e-05,-3.26955e-06,0
-2.9598e-05,1.51756e-05,-1.65587e-06,4.95441e-06,2.52976e-05,-1.28399e-05,1.78895e-05,-4.72223e-06,0
-2.9232e-05,1.59308e-05,-4.8748e-06,1.60044e-05,2.53761e-05,-1.26741e-05,1.45659e-05,-5.85783e-06,0
-2.98408e-05,1.72101e-05,-7.70753e-06,2.71813e-05,2.32022e-05,-1.13263e-05,1.25272e-05,-6.30342e-06,0
-3.04309e-05,1.83632e-05,-9.71415e-06,3.31755e-05,2.27935e-05,-1.0644e-05,1.07155e-05,-5.29333e-06,0
-3.15346e-05,1.79614e-05,-1.17054e-05,3.1141e-05,2.52788e-05,-1.15545e-05,9.93054e-06,-2.85861e-06,0
-3.38631e-05,1.74649e-05,-1.23269e-05,2.1783e-05,2.42954e-05,-1.17696e-05,1.08872e-05,-1.12505e-06,0
-3.42698e-05,1.88799e-05,-1.13888e-05,1.09184e-05,1.83038e-05,-1.02183e-05,9.88209e-06,-7.99575e-10,0
-3.22813e-05,2.1717e-05,-1.08348e-05,4.32508e-06,1.30615e-05,-8.46387e-06,7.97711e-06,1.9408e-06,0
-2.98302e-05,2.22098e-05,-1.01471e-05,3.92719e-06,1.00266e-05,-8.30904e-06,7.27054e-06,3.19274e-06,0
-2.99671e-05,2.03628e-05,-8.9228e-06,3.61756e-06,8.61065e-06,-1.00714e-05,5.85867e-06,2.6657e-06,0
-3.18166e-05,1.96508e-05,-7.7646e-06,1.62637e-06,7.64768e-06,-1.05737e-05,3.06694e-06,1.15261e-06,0
-3.22141e-05,1.77213e-05,-7.07887e-06,7.97539e-07,8.7445e-06,-1.05434e-05,2.1739e-06,2.2946e-07,0
-3.2475e-05,1.67498e-05,-8.03361e-06,-3.05551e-07,1.22398e-05,-1.04895e-05,4.71998e-06,1.58228e-06,0
-3.27873e-05,1.89432e-05,-9.35746e-06,-8.65451e-07,1.4375e-05,-1.02479e-05,8.62716e-06,3.71053e-06,0
-3.28358e-05,2.10712e-05,-1.23591e-05,-2.18241e-06,1.28489e-05,-1.09044e-05,1.10851e-05,3.89605e-06,0
-3.23676e-05,2.19555e-05,-1.43986e-05,-3.70956e-06,8.91675e-06,-1.12947e-05,1.0035e-05,3.13779e-06,0
-3.30205e-05,2.0167e-05,-1.37313e-05,-3.78009e-06,5.0439e-06,-1.10198e-05,7.60304e-06,3.22052e-06,0
-3.34295e-05,1.93688e-05,-1.1551e-05,-1.72646e-06,2.53759e-06,-1.05506e-05,5.93998e-06,3.02873e-06,0
-3.2849e-05,2.08904e-05,-8.8095e-06,4.22079e-06,1.74472e-06,-9.3545e-06,5.88827e-06,2.43869e-06,0
-3.20889e-05,2.38731e-05,-6.81546e-06,1.31248e-05,2.66845e-06,-7.47924e-06,7.03679e-06,4.03709e-06,0
-3.1687e-05,2.68689e-05,-2.57553e-06,2.27565e-05,4.45454e-06,-6.83247e-06,9.64005e-06,6.21326e-06,0
-3.12682e-05,2.90681e-05,4.18173e-06,2.70978e-05,7.14932e-06,-9.36491e-06,1.21044e-05,5.85294e-06,0
-3.00599e-05,3.21203e-05,1.24001e-05,2.17627e-05,9.637e-06,-1.28924e-05,1.15262e-05,3.83261e-06,0
-2.96143e-05,3.53326e-05,2.28245e-05,9.68889e-06,8.19159e-06,-1.40091e-05,9.43058e-06,3.06135e-06,0
-3.01943e-05,3.54744e-05,3.81991e-05,-5.81532e-07,3.94605e-06,-1.31901e-05,8.88759e-06,3.04266e-06,0
-3.14627e-05,3.14636e-05,5.56518e-05,-6.20034e-06,1.41539e-06,-1.188e-05,1.04401e-05,3.05615e-06,0
-3.19856e-05,2.76118e-05,6.4152e-05,-8.91371e-06,1.1908e-06,-1.07861e-05,1.16231e-05,2.3854e-06,0
-3.09778e-05,2.52977e-05,5.36381e-05,-1.29663e-05,9.19483e-07,-1.05643e-05,1.07894e-05,1.29487e-06,0
-2.95904e-05,2.33028e-05,2.48974e-05,-2.21418e-05,1.93517e-07,-1.11805e-05,9.27459e-06,1.4003e-07,0
-2.98008e-05,2.12823e-05,-1.40891e-05,-3.34997e-05,4.57021e-07,-9.92051e-06,8.20415e-06,-3.16494e-07,0
-3.03329e-05,1.89587e-05,-5.362e-05,-4.06286e-05,4.15745e-06,-6.96637e-06,6.36439e-06,1.45182e-06,0
-3.03352e-05,1.44822e-05,-8.45924e-05,-4.07912e-05,1.02426e-05,-4.65624e-06,5.04242e-06,2.88656e-06,0
-2.97916e-05,1.00526e-05,-0.000101881,-3.71754e-05,1.44139e-05,-3.87968e-06,6.12289e-06,4.83429e-06,0
-2.97227e-05,7.2202e-06,-0.000103826,-3.14789e-05,1.44941e-05,-4.72102e-06,7.43737e-06,5.62408e-06,0
-2.89625e-05,7.79802e-06,-9.23515e-05,-2.10484e-05,1.27457e-05,-4.24515e-06,8.38865e-06,2.7987e-06,0
-2.73975e-05,1.22569e-05,-7.28303e-05,-6.60565e-06,1.32845e-05,-2.34848e-06,9.10552e-06,3.67436e-07,0
-2.75919e-05,1.72402e-05,-5.52293e-05,2.80487e-06,1.66046e-05,-2.97019e-06,9.03512e-06,2.79498e-07,0
-2.92836e-05,2.08792e-05,-4.4116e-05,4.01642e-06,1.77923e-05,-5.39249e-06,5.53838e-06,4.06561e-07,0
-3.03902e-05,2.13047e-05,-3.50004e-05,1.78819e-06,1.51428e-05,-5.67245e-06,8.38491e-09,-1.06354e-07,0
-2.99529e-05,1.90625e-05,-2.35274e-05,-1.48535e-06,1.20055e-05,-4.51458e-06,-1.43089e-06,7.85606e-07,0
-3.05546e-05,1.8321e-05,-1.1994e-05,-3.96302e-06,9.54093e-06,-3.24973e-06,9.87087e-07,7.2053e-07,0
-3.20305e-05,2.04082e-05,-5.62086e-06,-7.47173e-06,6.25782e-06,-2.88365e-06,7.12758e-06,-8.69146e-07,0
-3.34293e-05,2.19063e-05,-3.63913e-06,-1.18673e-05,3.21849e-06,-3.50124e-06,1.45775e-05,-2.98683e-06,0
-3.51009e-05,2.13911e-05,-3.12982e-06,-1.68742e-05,2.74508e-06,-3.96279e-06,2.18039e-05,-4.93531e-06,0
-3.54379e-05,1.98168e-05,-3.50725e-06,-2.19124e-05,3.11916e-06,-4.96472e-06,2.79067e-05,-6.43283e-06,0
-3.3968e-05,1.7946e-05,-3.59309e-06,-2.3977e-05,4.4967e-06,-5.98883e-06,3.03854e-05,-7.90641e-06,0
-3.34143e-05,1.42755e-05,-2.39428e-06,-2.34977e-05,7.36248e-06,-6.14063e-06,2.95309e-05,-8.26512e-06,0
-3.34893e-05,1.03111e-05,2.19846e-07,-2.09822e-05,1.06092e-05,-5.25797e-06,2.6846e-05,-7.65816e-06,0
-3.30461e-05,7.62864e-06,3.46076e-06,-1.65921e-05,1.13295e-05,-3.82875e-06,2.32712e-05,-7.05723e-06,0
-3.27768e-05,6.48004e-06,6.98419e-06,-1.06219e-05,9.57162e-06,-2.34388e-06,1.74308e-05,-7.87039e-06,0
-3.32776e-05,5.96476e-06,9.44522e-06,-6.64889e-06,1.05002e-05,-1.52766e-06,1.17547e-05,-8.20899e-06,0
-3.37439e-05,4.45126e-06,1.07279e-05,-4.52639e-06,1.49641e-05,-1.27516e-06,1.04553e-05,-7.73411e-06,0
-3.3121e-05,2.6492e-06,1.17906e-05,-1.81624e-06,1.8424e-05,-9.32265e-07,1.44611e-05,-7.55815e-06,0
-3.15864e-05,2.00418e-06,1.12892e-05,1.36706e-06,1.84395e-05,-1.1456e-06,1.88871e-05,-7.5622e-06,0
-3.08795e-05,2.93694e-06,8.34212e-06,4.21533e-06,1.67229e-05,-1.45996e-06,1.95766e-05,-6.72059e-06,0
-3.1729e-05,4.50567e-06,5.15111e-06,1.06933e-05,1.51091e-05,-3.60289e-07,1.69822e-05,-5.28203e-06,0
-3.25242e-05,5.81267e-06,4.01638e-06,2.39479e-05,1.40332e-05,1.89609e-06,1.55835e-05,-3.7709e-06,0
-3.26672e-05,6.2143e-06,2.91287e-06,4.45684e-05,1.45454e-05,3.06785e-06,1.69619e-05,-2.88487e-06,0
-3.20919e-05,5.82052e-06,-5.93077e-07,7.01138e-05,1.64334e-05,2.04784e-06,1.75354e-05,-2.85353e-06,0
-3.181e-05,5.39464e-06,-5.64833e-06,8.53841e-05,1.71579e-05,-9.69519e-07,1.81227e-05,-2.88753e-06,0
-3.12051e-05,4.86928e-06,-1.09475e-05,7.98408e-05,1.7481e-05,-4.6093e-06,1.89471e-05,-1.82286e-06,0
-2.92954e-05,2.48809e-06,-1.4766e-05,6.10101e-05,1.67004e-05,-7.16187e-06,1.7503e-05,-5.1484e-07,0
-2.69174e-05,-1.20102e-07,-1.78133e-05,3.65646e-05,1.48786e-05,-7.83461e-06,1.45096e-05,5.96604e-07,0
-2.59758e-05,-1.68934e-06,-2.06539e-05,1.1452e-05,1.5342e-05,-7.76789e-06,1.15416e-05,1.5617e-06,0
-2.63261e-05,-3.69478e-06,-2.14903e-05,-1.39442e-05,1.75641e-05,-8.22511e-06,1.41376e-05,2.20641e-06,0
-2.68365e-05,-5.87826e-06,-2.07413e-05,-3.55882e-05,1.9081e-05,-8.6946e-06,2.45237e-05,1.71797e-06,0
-2.62833e-05,-5.56679e-06,-1.80258e-05,-4.47565e-05,1.96811e-05,-8.7416e-06,3.47747e-05,-5.02027e-07,0
-2.51195e-05,-3.38142e-06,-1.56789e-05,-4.70718e-05,2.08369e-05,-6.13642e-06,4.0027e-05,-9.39257e-07,0
-2.46424e-05,-8.92579e-07,-1.38867e-05,-5.11473e-05,2.13174e-05,-2.55443e-06,4.04839e-05,5.76207e-07,0
-2.36422e-05,8.41865e-07,-1.20387e-05,-6.10271e-05,1.89293e-05,-1.2502e-06,3.66489e-05,2.70572e-06,0
-2.33298e-05,1.90759e-06,-1.12973e-05,-6.82676e-05,1.43017e-05,-1.57712e-06,2.81909e-05,3.45372e-06,0
-2.52541e-05,2.98086e-06,-1.27022e-05,-6.49224e-05,8.83224e-06,-2.05546e-06,1.65467e-05,3.99283e-06,0
-2.77447e-05,4.5126e-06,-1.53318e-05,-5.11092e-05,5.85241e-06,-3.5438e-06,5.38575e-06,4.89989e-06,0
-2.7922e-05,9.05993e-06,-1.62585e-05,-3.45831e-05,6.7281e-06,-6.65218e-06,-5.30169e-06,5.70505e-06,0
-2.76115e-05,1.49856e-05,-1.43158e-05,-2.42876e-05,8.32977e-06,-8.59652e-06,-1.49154e-05,6.42536e-06,0
-2.81253e-05,1.88643e-05,-9.864e-06,-2.09823e-05,1.00438e-05,-8.77731e-06,-2.11481e-05,7.15905e-06,0
-2.93986e-05,1.76539e-05,-6.1746e-06,-2.07127e-05,1.35107e-05,-8.28045e-06,-2.55107e-05,6.83228e-06,0
-3.12043e-05,1.25437e-05,-4.48258e-06,-2.04535e-05,1.77465e-05,-8.04148e-06,-3.04795e-05,5.98707e-06,0
-3.19384e-05,6.78969e-06,-3.4137e-06,-1.95576e-05,1.93644e-05,-8.63144e-06,-3.29125e-05,6.66233e-06,0
-3.07845e-05,1.41004e-06,-2.53251e-06,-1.67755e-05,1.7309e-05,-1.00386e-05,-2.86003e-05,6.66147e-06,0
-2.93363e-05,-2.78076e-06,-2.79548e-06,-1.39084e-05,1.38623e-05,-1.16271e-05,-1.8495e-05,4.42658e-06,0
-2.94188e-05,-3.18106e-06,-2.53782e-06,-1.24052e-05,1.11021e-05,-1.28591e-05,-5.13587e-06,2.94021e-06,0
-2.98887e-05,1.31156e-06,-1.36206e-06,-1.34442e-05,9.54857e-06,-1.28731e-05,8.93684e-06,5.72942e-06,0
-2.94504e-05,7.8268e-06,-1.36335e-06,-1.56837e-05,9.34247e-06,-1.27589e-05,2.09577e-05,9.53408e-06,0
-2.76813e-05,1.29399e-05,-3.43018e-06,-1.73891e-05,9.88888e-06,-1.43629e-05,2.87206e-05,9.32186e-06,0
-2.67417e-05,1.49601e-05,-6.3356e-06,-1.73536e-05,1.02076e-05,-1.62789e-05,3.19362e-05,5.0377e-06,0
-2.70274e-05,1.51879e-05,-8.85654e-06,-1.34004e-05,9.95875e-06,-1.69629e-05,3.08257e-05,2.25589e-06,0
-2.76715e-05,1.46581e-05,-1.05252e-05,-4.62836e-06,1.00619e-05,-1.72416e-05,2.55459e-05,1.82508e-06,0
-2.8162e-05,1.36696e-05,-9.27782e-06,2.71838e-06,1.08246e-05,-1.71805e-05,1.69973e-05,2.00796e-06,0
-2.78171e-05,1.33943e-05,-7.08899e-06,4.65578e-06,1.17979e-05,-1.74799e-05,1.08812e-05,7.94391e-07,0
-2.7073e-05,1.26696e-05,-6.35297e-06,3.25894e-06,1.09617e-05,-1.82677e-05,1.03324e-05,-1.31356e-06,0
-2.75111e-05,1.13694e-05,-5.2479e-06,3.50679e-06,7.90981e-06,-1.72813e-05,1.25319e-05,-1.97295e-06,0
-2.90118e-05,1.03825e-05,-4.5789e-06,4.94196e-06,4.64262e-06,-1.66665e-05,1.27134e-05,-1.28493e-06,0
-3.06414e-05,9.2519e-06,-3.74051e-06,5.67508e-06,3.7387e-06,-1.79426e-05,1.04882e-05,-1.93288e-07,0
-3.12514e-05,9.50314e-06,-2.32556e-06,9.42313e-06,5.00789e-06,-2.03669e-05,8.35922e-06,3.4053e-07,0
-3.04179e-05,1.18204e-05,-2.22497e-06,1.52489e-05,5.90026e-06,-2.13091e-05,6.85815e-06,-4.12953e-07,0
-2.87906e-05,1.60433e-05,-2.77839e-06,1.98603e-05,8.41543e-06,-1.87769e-05,5.34207e-06,-3.27786e-06,0
-2.77427e-05,1.94924e-05,-2.95102e-06,1.99427e-05,1.12265e-05,-1.57204e-05,1.51023e-06,-4.82949e-06,0
-2.83009e-05,2.07547e-05,-2.45809e-06,1.55481e-05,1.20985e-05,-1.3891e-05,-3.10452e-06,-4.52891e-06,0
-2.96404e-05,2.11717e-05,-2.35487e-06,1.05655e-05,1.0776e-05,-1.43111e-05,-5.52727e-06,-4.82493e-06,0
-3.141e-05,2.18754e-05,-3.49588e-06,7.01019e-06,8.95822e-06,-1.642e-05,-5.68469e-06,-6.2554e-06,0
-3.22106e-05,2.39577e-05,-5.00888e-06,2.52712e-06,9.08811e-06,-1.90315e-05,-4.72191e-06,-6.95528e-06,0
-3.13169e-05,2.65121e-05,-5.59455e-06,-4.21317e-06,1.16684e-05,-2.04579e-05,-2.04892e-06,-5.01708e-06,0
-2.96709e-05,2.72294e-05,-5.12397e-06,-1.29053e-05,1.51708e-05,-1.90476e-05,2.02068e-06,-1.85163e-06,0
-2.94052e-05,2.55801e-05,-3.01302e-06,-2.31746e-05,1.75314e-05,-1.55264e-05,6.72164e-06,9.49068e-07,0
-3.02319e-05,2.39091e-05,-5.45419e-07,-3.39172e-05,1.84818e-05,-1.23816e-05,1.05121e-05,2.16486e-06,0
-3.07092e-05,2.40245e-05,2.02932e-07,-4.28964e-05,1.80896e-05,-1.13119e-05,1.13101e-05,1.98897e-06,0
-3.11816e-05,2.49936e-05,-1.95217e-07,-4.52859e-05,1.71986e-05,-1.33987e-05,9.10192e-06,1.45792e-06,0
-3.22993e-05,2.59628e-05,-2.19369e-07,-3.61101e-05,1.67511e-05,-1.61984e-05,7.93699e-06,1.00248e-06,0
-3.22011e-05,2.66873e-05,-8.162e-08,-1.92395e-05,1.75021e-05,-1.54463e-05,1.08982e-05,6.44549e-07,0
-2.97259e-05,2.64768e-05,-6.51418e-07,-6.81557e-06,1.86479e-05,-1.39523e-05,1.55528e-05,4.73058e-07,0
-2.60403e-05,2.47056e-05,-3.62055e-07,-2.87046e-06,2.00798e-05,-1.48721e-05,1.84549e-05,-7.55485e-07,0
-2.37737e-05,1.90784e-05,1.26015e-06,-2.84958e-06,2.12298e-05,-1.60225e-05,1.89969e-05,-3.08393e-06,0
-2.47118e-05,1.1839e-05,1.60119e-06,-3.99457e-06,2.12343e-05,-1.49552e-05,1.7907e-05,-5.3182e-06,0
-2.63835e-05,6.29978e-06,2.79666e-07,-4.17794e-06,1.96928e-05,-1.38552e-05,1.56059e-05,-7.78766e-06,0
-2.70743e-05,4.19365e-06,-8.11924e-07,-3.60802e-06,1.75063e-05,-1.39916e-05,1.2337e-05,-8.7216e-06,0
-2.69879e-05,5.45003e-06,-3.20076e-07,-1.84883e-07,1.69785e-05,-1.34975e-05,9.66485e-06,-6.67847e-06,0
-2.79683e-05,5.35622e-06,-1.09414e-06,5.66737e-06,1.81512e-05,-9.91844e-06,1.13293e-05,-2.81469e-06,0
-3.04969e-05,3.82029e-06,-3.06213e-06,1.07845e-05,1.86277e-05,-7.42779e-06,1.48335e-05,4.23862e-07,0
-3.32284e-05,1.47273e-06,-3.53624e-06,1.46839e-05,1.81187e-05,-7.00214e-06,1.73317e-05,2.07125e-06,0
-3.38587e-05,-1.95477e-07,-2.94382e-06,1.45499e-05,1.77948e-05,-5.2761e-06,1.92124e-05,2.03788e-06,0
-3.34138e-05,6.16579e-07,-2.79974e-06,1.11252e-05,1.79197e-05,-2.80336e-06,1.89077e-05,1.45062e-06,0
-3.37751e-05,2.02969e-06,-6.13204e-06,5.86276e-06,1.64793e-05,-4.642e-07,1.85561e-05,4.81932e-07,0
-3.49105e-05,2.47891e-06,-1.13917e-05,-6.57489e-08,1.4614e-05,-2.62935e-08,1.97089e-05,-9.89669e-07,0
-3.69454e-05,2.00076e-06,-1.65004e-05,-3.20127e-06,1.30828e-05,-8.50544e-07,2.15116e-05,-2.13068e-06,0
-3.79697e-05,2.50649e-06,-2.07435e-05,5.43671e-07,9.8293e-06,-2.13762e-06,2.33024e-05,-7.94264e-07,0
-3.68925e-05,4.51112e-06,-2.36089e-05,9.95972e-06,8.54834e-06,-3.70503e-06,2.38364e-05,1.39122e-06,0
-3.56171e-05,7.78654e-06,-2.3839e-05,1.60804e-05,1.03066e-05,-6.63163e-06,2.18761e-05,2.52103e-06,0
-3.59999e-05,1.08868e-05,-2.22522e-05,1.22063e-05,1.12265e-05,-9.08126e-06,1.88685e-05,3.10673e-06,0
-3.6683e-05,1.23854e-05,-2.02267e-05,6.22952e-07,9.22538e-06,-1.00329e-05,1.80108e-05,2.29858e-06,0
-3.69691e-05,1.2529e-05,-1.91889e-05,-1.12959e-05,6.89494e-06,-1.00561e-05,1.9545e-05,2.33343e-06,0
-3.60396e-05,1.21141e-05,-1.98048e-05,-1.90918e-05,7.32417e-06,-1.00315e-05,2.27345e-05,3.58618e-06,0
-3.41377e-05,1.12833e-05,-2.09068e-05,-2.2306e-05,1.08195e-05,-1.06673e-05,2.60103e-05,4.33187e-06,0
-3.21273e-05,9.68171e-06,-2.17723e-05,-2.15312e-05,1.48901e-05,-1.0397e-05,2.88868e-05,3.97901e-06,0
-2.95856e-05,7.5906e-06,-2.13076e-05,-1.83449e-05,1.8933e-05,-8.70896e-06,3.28616e-05,4.79579e-06,0
-2.62628e-05,7.59122e-06,-1.87605e-05,-1.55323e-05,2.39058e-05,-6.47226e-06,3.68927e-05,6.44652e-06,0
-2.39077e-05,1.00494e-05,-1.43281e-05,-1.51672e-05,2.93048e-05,-5.08966e-06,3.79314e-05,6.77418e-06,0
-2.36355e-05,1.18508e-05,-1.03973e-05,-1.69416e-05,3.2832e-05,-5.61925e-06,3.69758e-05,6.82479e-06,0
-2.50756e-05,1.18667e-05,-8.72559e-06,-1.79368e-05,3.14867e-05,-7.7333e-06,3.59229e-05,8.50308e-06,0
-2.79067e-05,1.01972e-05,-9.0434e-06,-1.45198e-05,2.705e-05,-9.62074e-06,3.4326e-05,9.94993e-06,0
-3.09785e-05,8.49714e-06,-8.95215e-06,-1.0345e-05,2.22005e-05,-1.11676e-05,3.07753e-05,8.76212e-06,0
-3.33984e-05,8.27719e-06,-9.13763e-06,-8.84727e-06,1.93773e-05,-1.16715e-05,2.09849e-05,7.47439e-06,0
-3.31143e-05,8.03739e-06,-9.01253e-06,-7.89407e-06,1.98324e-05,-1.22534e-05,2.21165e-06,7.60593e-06,0
-3.09479e-05,5.31192e-06,-7.29674e-06,-8.01324e-06,2.2143e-05,-1.3512e-05,-1.83525e-05,6.70236e-06,0
-3.0135e-05,1.087e-06,-4.48473e-06,-6.6517e-06,2.39516e-05,-1.41907e-05,-2.82998e-05,5.61991e-06,0
-3.19365e-05,4.46878e-07,-2.12351e-06,-1.36271e-06,2.37433e-05,-1.32913e-05,-2.79634e-05,5.01391e-06,0
-3.3213e-05,3.55412e-06,-1.90587e-06,3.86802e-06,2.19211e-05,-1.27299e-05,-2.37787e-05,4.66908e-06,0
-3.22287e-05,7.49469e-06,-2.6622e-06,5.65878e-06,1.83042e-05,-1.35407e-05,-1.6684e-05,4.63343e-06,0
-3.10364e-05,1.04949e-05,-3.33299e-06,6.53677e-06,1.44915e-05,-1.32153e-05,-8.67227e-06,5.24899e-06,0
-3.12062e-05,1.14956e-05,-3.97808e-06,6.76865e-06,1.10549e-05,-1.39283e-05,-1.98266e-06,6.39401e-06,0
-3.30674e-05,1.16156e-05,-3.31627e-06,5.82989e-06,8.1246e-06,-1.70841e-05,1.39484e-06,6.48415e-06,0
-3.45558e-05,1.07533e-05,-1.69916e-06,4.60377e-06,6.50887e-06,-2.01389e-05,3.16288e-06,7.74858e-06,0
-3.37195e-05,1.05179e-05,-1.01358e-06,2.84357e-06,5.55091e-06,-2.06143e-05,5.39798e-06,1.04459e-05,0
-3.07644e-05,1.16818e-05,-9.8223e-07,1.68577e-06,5.20514e-06,-1.99349e-05,7.17596e-06,1.26797e-05,0
-2.85958e-05,1.42764e-05,-1.36745e-06,1.54026e-06,4.63037e-06,-2.00573e-05,7.82051e-06,1.26726e-05,0
-2.81411e-05,1.6987e-05,-1.03692e-06,2.58402e-06,3.11171e-06,-2.10019e-05,8.47464e-06,9.57717e-06,0
-2.78747e-05,1.9172e-05,5.07927e-08,4.86503e-06,2.22607e-06,-2.10983e-05,8.76102e-06,4.42575e-06,0
-2.84996e-05,1.9078e-05,7.00128e-07,8.36672e-06,3.0402e-06,-2.00486e-05,7.65142e-06,1.42561e-06,0
-3.0134e-05,1.59442e-05,1.56441e-07,8.6237e-06,2.97935e-06,-1.98375e-05,7.81412e-06,1.5149e-06,0
-3.08301e-05,1.13695e-05,-1.20707e-06,3.83228e-06,-5.4672e-07,-2.00515e-05,1.04612e-05,1.71309e-06,0
-3.07181e-05,7.06563e-06,-3.04732e-06,-2.37327e-06,-7.23557e-06,-1.96582e-05,1.40669e-05,1.21918e-07,0
-3.15701e-05,5.64863e-06,-4.1821e-06,-7.44695e-06,-1.41484e-05,-1.81562e-05,1.57798e-05,-2.03529e-06,0
-3.19901e-05,6.97838e-06,-4.44904e-06,-1.05068e-05,-1.81288e-05,-1.59094e-05,1.66059e-05,-2.39678e-06,0
-3.05077e-05,8.88848e-06,-5.60576e-06,-1.0584e-05,-1.83333e-05,-1.42695e-05,1.76941e-05,-1.00483e-06,0
-2.92384e-05,8.47979e-06,-7.69793e-06,-8.94935e-06,-1.7133e-05,-1.45603e-05,1.77186e-05,-3.47458e-07,0
-2.97174e-05,7.68848e-06,-9.37796e-06,-8.68693e-06,-1.72061e-05,-1.43783e-05,1.71372e-05,-2.35117e-06,0
-2.9738e-05,7.90767e-06,-1.05743e-05,-9.78726e-06,-1.68163e-05,-1.07637e-05,1.80078e-05,-7.45247e-06,0
-2.88658e-05,6.68694e-06,-1.15434e-05,-1.08976e-05,-1.01292e-05,-5.9476e-06,1.95523e-05,-1.10063e-05,0
-2.87664e-05,4.4408e-06,-1.16128e-05,-1.04913e-05,2.38983e-06,-3.38949e-06,1.97901e-05,-8.00657e-06,0
-2.93979e-05,2.66325e-06,-1.15565e-05,-1.27173e-05,1.24708e-05,-3.9242e-06,1.87796e-05,-4.80298e-06,0
-3.04737e-05,8.74828e-07,-1.06446e-05,-1.91828e-05,1.48296e-05,-6.86991e-06,1.7962e-05,-5.16593e-06,0
-3.07446e-05,2.11626e-06,-8.63788e-06,-2.01892e-05,1.44207e-05,-7.23976e-06,1.74335e-05,-7.24239e-06,0
-2.99251e-05,6.07789e-06,-7.37987e-06,-1.14788e-05,1.66442e-05,-4.32801e-06,1.60563e-05,-8.36151e-06,0
-2.6819e-05,1.02373e-05,-7.41793e-06,2.69359e-06,1.9388e-05,-3.46144e-06,1.43292e-05,-6.6519e-06,0
-2.30465e-05,1.32829e-05,-7.27278e-06,1.57774e-05,2.09443e-05,-3.72792e-06,1.40461e-05,-4.30228e-06,0
-2.42617e-05,1.5251e-05,-6.05793e-06,2.39831e-05,1.89187e-05,-3.97634e-06,1.63988e-05,-3.03825e-06,0
-2.75739e-05,1.55538e-05,-5.55896e-06,2.84267e-05,1.48424e-05,-5.55261e-06,2.06405e-05,-1.88022e-06,0
-2.89534e-05,1.42424e-05,-4.95661e-06,2.99062e-05,1.20971e-05,-5.89507e-06,2.31762e-05,-1.56565e-06,0
-2.98316e-05,1.34831e-05,-4.7346e-06,2.74527e-05,1.07799e-05,-4.84756e-06,2.22429e-05,-2.11664e-06,0
-3.06651e-05,1.35875e-05,-6.861e-06,1.77052e-05,1.23349e-05,-4.93647e-06,2.02953e-05,-2.0622e-06,0
-3.16147e-05,1.53671e-05,-8.613e-06,4.64198e-06,1.61841e-05,-5.36967e-06,1.74923e-05,-1.24185e-06,0
-3.14719e-05,2.11696e-05,-8.3942e-06,-4.9184e-06,1.88997e-05,-4.90309e-06,1.47252e-05,-6.38748e-07,0
-3.02856e-05,3.23498e-05,-7.12782e-06,-1.1228e-05,1.81679e-05,-3.26077e-06,1.27865e-05,-1.23195e-06,0
-2.86779e-05,4.43806e-05,-6.2126e-06,-1.45799e-05,1.6554e-05,-2.0558e-06,1.22555e-05,-1.96258e-06,0
-2.80915e-05,5.03958e-05,-7.25859e-06,-1.1605e-05,1.61795e-05,-1.37892e-06,1.18665e-05,-1.93819e-06,0
-2.86818e-05,4.5444e-05,-9.13936e-06,-3.4566e-06,1.47691e-05,-8.25399e-07,1.05862e-05,-9.02498e-07,0
-2.86589e-05,3.41948e-05,-9.14098e-06,4.28333e-06,1.22292e-05,-1.24764e-06,9.58085e-06,3.27057e-07,0
-2.84861e-05,2.41151e-05,-8.01722e-06,6.62382e-06,1.02176e-05,-1.73298e-06,1.09689e-05,7.57625e-07,0
-2.86447e-05,1.56807e-05,-8.30033e-06,1.99589e-06,9.09152e-06,-7.6894e-07,1.44043e-05,7.8192e-07,0
-2.93789e-05,6.93538e-06,-9.20613e-06,-7.45689e-06,8.86079e-06,1.9285e-06,1.30878e-05,1.83584e-06,0
-2.9172e-05,-2.17966e-06,-9.07578e-06,-1.54945e-05,9.795e-06,4.89891e-06,1.12186e-06,3.18001e-06,0
-2.71476e-05,-1.24762e-05,-8.67076e-06,-1.52201e-05,1.03447e-05,6.99956e-06,-1.54142e-05,3.1915e-06,0
-2.65048e-05,-2.20575e-05,-9.73797e-06,-1.04407e-05,9.16842e-06,8.02225e-06,-2.37652e-05,1.48377e-06,0
-2.81111e-05,-2.60079e-05,-1.18538e-05,-6.76194e-06,7.86205e-06,7.18364e-06,-1.98942e-05,1.6533e-07,0
-2.88523e-05,-2.26325e-05,-1.2465e-05,-3.86708e-06,7.264e-06,5.44773e-06,-8.13167e-06,1.08639e-06,0
-3.11373e-05,-1.47681e-05,-1.11657e-05,-1.66727e-06,7.13035e-06,3.50826e-06,4.50509e-06,2.13608e-06,0
-3.48654e-05,-7.46454e-06,-1.11537e-05,-1.23955e-06,6.54133e-06,-3.736e-08,1.54397e-05,1.62559e-06,0
-3.44385e-05,-9.39429e-07,-1.44872e-05,-5.52029e-06,5.83961e-06,-3.06547e-06,2.43739e-05,1.14291e-06,0
-3.16734e-05,4.13253e-06,-1.58337e-05,-1.58875e-05,6.42516e-06,-2.37091e-06,3.0166e-05,1.33296e-06,0
-2.99889e-05,1.07665e-05,-1.26217e-05,-3.18961e-05,9.0271e-06,-6.31033e-07,3.34938e-05,2.98931e-06,0
-2.87586e-05,2.34095e-05,-9.3129e-06,-4.73437e-05,1.17662e-05,-1.72393e-06,3.57457e-05,4.76566e-06,0
-2.74329e-05,3.97983e-05,-7.79127e-06,-4.89299e-05,1.24421e-05,-5.74323e-06,3.73134e-05,4.34195e-06,0
-2.59168e-05,5.50363e-05,-6.75496e-06,-3.78698e-05,1.28461e-05,-8.16417e-06,3.75418e-05,3.39212e-06,0
-2.49298e-05,6.39288e-05,-5.12138e-06,-2.50533e-05,1.33606e-05,-7.21601e-06,3.55469e-05,3.47611e-06,0
