ch1,ch2,ch3,ch4,ch5,ch6,ch7,ch8,class
-3.25399e-05,-2.38042e-05,-8.82658e-06,-6.7502e-05,-3.00915e-06,-8.09073e-06,3.25572e-05,1.05215e-05,0
-3.24729e-05,-2.89017e-05,-8.03198e-06,-6.23833e-05,-2.85895e-06,-6.75682e-06,3.68646e-05,9.72095e-06,0
-3.34567e-05,-3.17444e-05,-8.17162e-06,-4.81549e-05,-8.05595e-07,-7.12827e-06,3.87027e-05,8.04832e-06,0
-3.50976e-05,-2.85398e-05,-8.94512e-06,-2.69752e-05,3.18107e-06,-9.70348e-06,3.66408e-05,8.63435e-06,0
-3.54357e-05,-2.17874e-05,-8.5499e-06,-2.85835e-06,7.75892e-06,-1.22811e-05,3.36224e-05,1.09235e-05,0
-3.37204e-05,-1.39821e-05,-6.02083e-06,1.84439e-05,9.88487e-06,-1.22515e-05,3.14288e-05,1.23005e-05,0
-3.21394e-05,-1.689e-06,-3.36427e-06,2.803e-05,9.56667e-06,-1.09071e-05,3.03086e-05,1.1795e-05,0
-3.17995e-05,1.57919e-05,-2.34049e-06,2.27897e-05,1.15387e-05,-1.03528e-05,2.81896e-05,9.09033e-06,0
-3.26843e-05,2.82162e-05,-2.61757e-06,1.14756e-05,1.87408e-05,-1.22309e-05,2.23422e-05,6.54554e-06,0
-3.29183e-05,2.89916e-05,-3.13144e-06,3.0331e-06,2.71078e-05,-1.50546e-05,1.56707e-05,5.5759e-06,0
-3.23589e-05,2.15342e-05,-2.20702e-06,3.62981e-06,3.06135e-05,-1.57828e-05,1.37473e-05,5.62196e-06,0
-2.76706e-05,1.26343e-05,-6.68777e-07,1.65377e-05,2.79734e-05,-1.78484e-05,1.64563e-05,7.10961e-06,0
-1.31874e-05,3.00812e-06,-1.19363e-06,3.29791e-05,2.26325e-05,-2.13924e-05,2.3087e-05,7.19719e-06,0
6.93554e-06,-7.1597e-06,-3.60167e-06,4.40177e-05,1.90022e-05,-1.90973e-05,3.30355e-05,3.73761e-06,0
2.24986e-05,-1.2773e-05,-3.485e-06,5.03307e-05,1.4416e-05,-1.45744e-05,4.13735e-05,-1.17198e-06,0
2.48437e-05,-1.24047e-05,-7.93421e-08,5.15135e-05,8.3495e-06,-2.37633e-05,4.52077e-05,-4.05287e-06,0
1.27019e-05,-4.86317e-06,4.03996e-06,5.04298e-05,5.57096e-06,-3.87104e-05,4.58234e-05,-4.68421e-06,0
-8.32932e-06,6.06644e-06,4.89449e-06,5.05026e-05,4.64591e-06,-3.49891e-05,4.21036e-05,-6.73977e-06,0
-2.87086e-05,1.72832e-05,1.14125e-06,3.89201e-05,7.83645e-07,-1.20297e-05,3.37962e-05,-8.23295e-06,0
-4.32723e-05,2.6152e-05,-3.75323e-06,1.63296e-05,-7.50188e-06,1.16167e-05,2.17205e-05,-6.72975e-06,0
-5.39965e-05,3.20301e-05,-7.61107e-06,-6.50602e-06,-1.42058e-05,1.79895e-05,5.30697e-06,-3.54516e-06,0
-6.14489e-05,3.29955e-05,-1.18591e-05,-2.26445e-05,-1.40078e-05,7.46162e-06,-1.30723e-05,-1.66849e-06,0
-6.67335e-05,2.8468e-05,-1.66692e-05,-2.89223e-05,-8.7809e-06,-4.59747e-06,-2.7498e-05,-1.86938e-06,0
-7.01332e-05,2.22235e-05,-2.02329e-05,-2.50705e-05,-1.72798e-06,-9.23838e-06,-3.17009e-05,-2.04451e-06,0
-7.12915e-05,1.73941e-05,-2.33338e-05,-1.051e-05,3.2765e-06,-9.0297e-06,-2.47424e-05,-5.18149e-07,0
-7.00746e-05,2.13241e-05,-2.50172e-05,7.98063e-06,2.74144e-06,-9.10692e-06,-1.23525e-05,1.18085e-06,0
-6.81149e-05,3.9884e-05,-2.35226e-05,2.31248e-05,-4.55494e-07,-1.03718e-05,-1.58642e-06,2.20219e-06,0
-6.45796e-05,6.38935e-05,-1.8929e-05,3.39053e-05,-1.72461e-06,-1.09167e-05,4.98216e-06,3.11655e-06,0
-5.74043e-05,7.77893e-05,-1.5256e-05,4.28881e-05,-8.56478e-07,-1.25721e-05,7.05873e-06,2.69323e-06,0
-4.90426e-05,7.84638e-05,-1.42642e-05,4.43248e-05,1.32758e-06,-1.76291e-05,6.53348e-06,7.86773e-07,0
-4.3097e-05,7.30877e-05,-1.42177e-05,3.45965e-05,3.86355e-06,-2.15765e-05,5.66698e-06,-1.94413e-08,0
-4.15685e-05,6.75214e-05,-1.44856e-05,1.7462e-05,5.25639e-06,-1.94531e-05,6.30472e-06,1.81109e-06,0
-4.26068e-05,5.76207e-05,-1.57389e-05,-6.17949e-08,5.99274e-06,-1.54983e-05,7.76053e-06,1.93379e-06,0
-4.28006e-05,3.92108e-05,-1.67676e-05,-1.25742e-05,8.27032e-06,-1.47341e-05,7.80975e-06,-2.22318e-07,0
-3.68638e-05,1.75099e-05,-1.56271e-05,-1.74084e-05,1.23774e-05,-1.4105e-05,6.81238e-06,-2.00603e-06,0
-1.95157e-05,1.31969e-06,-1.3217e-05,-1.1066e-05,1.71802e-05,-1.23899e-05,6.08164e-06,-1.75959e-06,0
4.43522e-06,-4.55869e-06,-1.18443e-05,7.21935e-06,2.20942e-05,-1.24591e-05,4.6692e-06,-1.16161e-06,0
1.75288e-05,-7.33187e-06,-1.17801e-05,2.83457e-05,2.69915e-05,-1.54263e-05,2.72377e-06,-1.59426e-06,0
1.68175e-05,-1.24944e-05,-1.11303e-05,3.9735e-05,2.94425e-05,-1.72516e-05,2.65311e-06,-2.93567e-06,0
6.15252e-06,-6.30818e-06,-1.03504e-05,3.39925e-05,3.15111e-05,-1.22376e-05,3.55511e-06,-3.11678e-06,0
-1.08949e-05,1.23275e-05,-1.19942e-05,1.97799e-05,3.49909e-05,-5.97225e-06,4.82485e-06,-2.77954e-06,0
-2.70503e-05,2.69761e-05,-1.49986e-05,1.08274e-05,3.68713e-05,-1.00747e-05,8.09341e-06,-3.57955e-06,0
-4.00458e-05,3.40337e-05,-1.42172e-05,6.89632e-06,3.68082e-05,-2.3816e-05,1.05706e-05,-2.72688e-06,0
-4.82739e-05,3.94585e-05,-1.04126e-05,7.56893e-06,3.34293e-05,-2.56505e-05,9.65506e-06,-1.86662e-06,0
-5.39893e-05,3.81134e-05,-7.06259e-06,1.5291e-05,2.7682e-05,-5.18208e-06,7.19882e-06,-2.55145e-06,0
-5.79336e-05,2.41847e-05,-6.65688e-06,2.2735e-05,2.01104e-05,1.95292e-05,7.32143e-06,-3.88559e-06,0
-5.55248e-05,1.06532e-05,-7.77242e-06,2.26774e-05,1.41765e-05,3.17921e-05,1.0285e-05,-4.60519e-06,0
-4.75261e-05,8.76545e-07,-7.46454e-06,1.74828e-05,1.14184e-05,2.62505e-05,1.35935e-05,-4.22123e-06,0
-4.05403e-05,-1.43e-05,-3.53829e-06,1.10717e-05,1.15676e-05,1.16708e-05,1.70475e-05,-2.98747e-06,0
-3.63733e-05,-3.77399e-05,3.82094e-06,-1.59784e-07,1.27523e-05,-1.32336e-06,2.05742e-05,-3.03047e-06,0
-3.57263e-05,-6.13205e-05,1.15176e-05,-3.49478e-05,1.09976e-05,-9.28626e-06,2.31932e-05,-4.05028e-06,0
-3.66751e-05,-7.41255e-05,1.98823e-05,-0.000101708,8.4972e-06,-1.53034e-05,2.39738e-05,-3.89617e-06,0
-3.57705e-05,-7.19176e-05,2.87728e-05,-0.00018275,6.07233e-06,-2.01706e-05,2.40284e-05,-2.86695e-06,0
-3.42962e-05,-5.59219e-05,3.30586e-05,-0.000248233,5.26447e-06,-2.18502e-05,2.49667e-05,-1.86393e-06,0
-3.52839e-05,-3.24047e-05,2.79669e-05,-0.000269956,6.30248e-06,-2.15334e-05,2.73881e-05,-1.29267e-06,0
-3.81982e-05,-1.08854e-05,1.27564e-05,-0.000231244,8.31895e-06,-2.08869e-05,2.80352e-05,-1.33883e-06,0
-4.04395e-05,3.09327e-06,-1.10837e-05,-0.000145458,1.01587e-05,-2.07166e-05,2.36885e-05,-1.25257e-06,0
-4.09714e-05,1.2438e-05,-3.71024e-05,-4.82942e-05,1.10342e-05,-1.77016e-05,1.55018e-05,-2.51835e-07,0
-3.99892e-05,1.69588e-05,-5.46932e-05,3.59769e-05,1.09692e-05,-1.13758e-05,9.17721e-06,7.6806e-07,0
-3.80272e-05,1.39304e-05,-5.82447e-05,9.54568e-05,1.08993e-05,-6.80811e-06,8.49546e-06,2.13405e-06,0
-3.53439e-05,2.42968e-06,-5.21916e-05,0.000118597,1.02371e-05,-7.566e-06,1.09925e-05,3.47273e-06,0
-3.27267e-05,-1.31114e-05,-4.23239e-05,0.000110052,8.72099e-06,-9.10053e-06,9.27815e-06,3.78803e-06,0
-3.14292e-05,-2.53586e-05,-3.23998e-05,9.05114e-05,7.22622e-06,-9.04235e-06,-4.36448e-06,2.82004e-06,0
-3.30411e-05,-3.09939e-05,-2.31684e-05,7.42124e-05,6.06052e-06,-9.04267e-06,-2.57728e-05,1.03859e-06,0
-3.67651e-05,-2.97303e-05,-1.45562e-05,6.44498e-05,5.89722e-06,-8.65712e-06,-4.0148e-05,4.08739e-07,0
-3.88482e-05,-2.34388e-05,-4.5076e-06,5.20992e-05,6.15047e-06,-7.00047e-06,-4.48703e-05,3.10093e-06,0
-3.35257e-05,-1.25978e-05,6.61675e-06,2.62409e-05,6.1255e-06,-6.91328e-06,-4.19626e-05,4.14516e-06,0
-2.2667e-05,5.35191e-07,1.27901e-05,-4.70435e-06,5.31566e-06,-7.16747e-06,-3.04127e-05,1.26233e-06,0
-1.43884e-05,1.02485e-05,1.48201e-05,-2.69841e-05,4.89218e-06,-6.56902e-06,-1.21581e-05,6.09141e-07,0
-1.00119e-05,1.49197e-05,1.48391e-05,-3.24847e-05,5.11343e-06,-6.20527e-06,1.08135e-05,1.9923e-06,0
-9.28031e-06,1.60534e-05,1.33046e-05,-1.8296e-05,5.82226e-06,-5.72989e-06,3.07711e-05,2.77502e-06,0
-1.39761e-05,1.46567e-05,1.04129e-05,5.19544e-06,5.98413e-06,-7.63387e-06,4.62881e-05,4.53777e-06,0
-2.14653e-05,1.0123e-05,6.30475e-06,2.77369e-05,5.2883e-06,-1.11158e-05,5.96777e-05,5.98215e-06,0
-2.80174e-05,5.43056e-06,3.0076e-06,4.23297e-05,5.41933e-06,-1.32734e-05,6.86772e-05,5.46074e-06,0
-3.24071e-05,5.31449e-06,9.66837e-07,4.92267e-05,7.40161e-06,-1.32851e-05,7.04993e-05,6.05655e-06,0
-3.44131e-05,1.01909e-05,-1.21221e-07,5.16427e-05,9.9296e-06,-1.16105e-05,6.64997e-05,8.36451e-06,0
-3.36366e-05,1.54478e-05,-2.09458e-06,4.73684e-05,1.03239e-05,-9.99549e-06,6.02165e-05,9.49472e-06,0
-3.10258e-05,1.76354e-05,-5.17763e-06,3.34493e-05,8.39696e-06,-9.75679e-06,5.43127e-05,8.99208e-06,0
-2.93501e-05,1.6875e-05,-8.19733e-06,1.48433e-05,7.80808e-06,-9.42712e-06,4.90293e-05,7.17499e-06,0
-2.86432e-05,1.56362e-05,-1.06339e-05,6.05009e-07,1.17741e-05,-7.49757e-06,4.28554e-05,4.71068e-06,0
-2.78543e-05,1.52517e-05,-1.32946e-05,-5.71579e-06,1.86245e-05,-4.90455e-06,3.56227e-05,3.85214e-06,0
-2.57732e-05,1.33012e-05,-1.56019e-05,-8.67574e-06,2.27123e-05,-4.79231e-06,2.83203e-05,4.47017e-06,0
-2.23246e-05,9.90954e-06,-1.63804e-05,-1.08235e-05,2.23726e-05,-6.99172e-06,2.25129e-05,3.86301e-06,0
-1.95426e-05,9.66126e-06,-1.77297e-05,-1.01044e-05,2.28309e-05,-8.8972e-06,1.90181e-05,1.29653e-06,0
-1.90995e-05,1.45341e-05,-2.10336e-05,-7.55245e-06,2.51691e-05,-1.00882e-05,1.68248e-05,-2.11828e-06,0
-1.93887e-05,2.15144e-05,-2.3483e-05,-2.81734e-06,2.46397e-05,-1.10975e-05,1.13371e-05,-4.47149e-06,0
-1.82259e-05,2.78187e-05,-2.21068e-05,3.2631e-06,2.19027e-05,-1.0394e-05,2.41363e-06,-3.24862e-06,0
-1.50763e-05,3.16106e-05,-1.9086e-05,7.11817e-06,2.1091e-05,-7.63043e-06,-5.56261e-06,-6.02197e-07,0
-6.77973e-06,3.49085e-05,-1.65881e-05,7.03312e-06,2.05002e-05,-4.80598e-06,-8.19546e-06,1.61592e-07,0
8.86168e-06,3.83564e-05,-1.40301e-05,3.98109e-06,1.84313e-05,-5.2501e-06,-6.59131e-06,-1.62082e-06,0
2.12061e-05,4.25429e-05,-1.22999e-05,-2.76352e-06,1.59042e-05,-9.76279e-06,-5.50808e-06,-3.43744e-06,0
1.8757e-05,4.72453e-05,-1.28926e-05,-1.27545e-05,1.27584e-05,-1.37296e-05,-5.35609e-06,-2.89743e-06,0
7.20584e-06,5.03854e-05,-1.38478e-05,-2.31955e-05,1.06596e-05,-1.39491e-05,-6.56961e-06,-1.6236e-06,0
-5.0374e-06,4.9821e-05,-1.38586e-05,-3.27301e-05,1.13283e-05,-1.25197e-05,-8.08781e-06,-2.24138e-06,0
-1.59771e-05,4.9133e-05,-1.11918e-05,-4.31281e-05,1.41499e-05,-1.22097e-05,-5.53663e-06,-2.47276e-06,0
-2.74718e-05,5.25648e-05,-9.05269e-06,-5.26667e-05,1.78983e-05,-1.21661e-05,-3.94185e-07,-1.71555e-06,0
-3.83882e-05,5.53103e-05,-1.02747e-05,-5.85436e-05,1.94075e-05,-8.87589e-06,4.11142e-06,-1.96469e-06,0
-4.74547e-05,5.44768e-05,-1.07685e-05,-6.19874e-05,1.71742e-05,-2.73285e-06,7.26244e-06,-2.11372e-06,0
-5.49634e-05,5.07994e-05,-8.80259e-06,-6.67631e-05,1.5051e-05,3.13134e-06,8.64225e-06,-3.78739e-06,0
-5.89239e-05,4.15017e-05,-4.59708e-06,-6.27316e-05,1.4587e-05,7.06758e-06,8.27956e-06,-5.32383e-06,0
-6.10296e-05,2.45231e-05,4.1641e-06,-3.93606e-05,1.49126e-05,5.86736e-06,6.47989e-06,-5.40318e-06,0
-6.22142e-05,2.43715e-06,1.83498e-05,-3.73398e-06,1.5524e-05,-6.84734e-07,4.97187e-06,-4.03091e-06,0
-5.9615e-05,-1.85133e-05,3.48849e-05,2.82229e-05,1.65996e-05,-8.19211e-06,5.25026e-06,-1.36006e-06,0
-5.06647e-05,-3.27688e-05,5.19574e-05,4.88042e-05,1.83812e-05,-1.39772e-05,6.96593e-06,1.32199e-06,0
-3.9327e-05,-3.69802e-05,6.50062e-05,5.93048e-05,1.99499e-05,-1.86463e-05,8.5419e-06,2.56711e-06,0
-3.07392e-05,-2.83607e-05,6.79706e-05,5.71689e-05,1.87688e-05,-2.06387e-05,1.03835e-05,1.48384e-06,0
-2.67945e-05,-1.06419e-05,5.58027e-05,4.40302e-05,1.38796e-05,-2.00067e-05,1.23784e-05,-2.58561e-07,0
-2.69588e-05,8.42949e-06,2.81197e-05,2.52403e-05,9.70171e-06,-1.87e-05,1.32503e-05,-1.46181e-06,0
-2.98634e-05,2.14301e-05,-8.96499e-06,7.4299e-06,8.67582e-06,-1.77175e-05,1.37543e-05,-1.62447e-06,0
-3.3757e-05,2.42968e-05,-4.28562e-05,-6.37449e-06,9.1037e-06,-1.72072e-05,1.59937e-05,-1.17433e-06,0
-3.66971e-05,1.74224e-05,-6.3039e-05,-1.68535e-05,9.38483e-06,-1.63825e-05,2.04681e-05,-4.05159e-07,0
-3.90156e-05,5.80444e-06,-6.84155e-05,-2.76828e-05,1.15128e-05,-1.4553e-05,2.4894e-05,5.6007e-07,0
-4.09009e-05,-6.59441e-06,-6.37861e-05,-3.93776e-05,1.52722e-05,-1.25852e-05,2.66933e-05,1.93493e-06,0
-4.1709e-05,-1.83693e-05,-5.58816e-05,-5.01415e-05,1.62093e-05,-1.27174e-05,2.64011e-05,2.733e-06,0
-4.11708e-05,-2.60696e-05,-4.961e-05,-5.93255e-05,1.14332e-05,-1.45449e-05,2.49944e-05,3.54329e-06,0
-4.02671e-05,-2.00679e-05,-4.51765e-05,-6.60432e-05,4.38484e-06,-1.51405e-05,2.23702e-05,4.20585e-06,0
-3.86016e-05,-2.68094e-07,-3.91283e-05,-6.87395e-05,-6.26316e-07,-1.26275e-05,1.90207e-05,4.22852e-06,0
-3.60721e-05,1.76468e-05,-3.23623e-05,-6.88645e-05,-1.47689e-06,-8.44286e-06,1.38181e-05,4.539e-06,0
-3.33615e-05,2.41423e-05,-2.63649e-05,-7.02301e-05,-8.34423e-07,-4.31531e-06,8.1272e-06,4.96029e-06,0
-3.16399e-05,2.06327e-05,-2.14195e-05,-7.32283e-05,4.88018e-08,2.18871e-07,5.30993e-06,4.65048e-06,0
-2.8618e-05,1.12362e-05,-1.74839e-05,-7.06196e-05,8.51041e-06,5.70748e-06,5.39086e-06,4.70932e-06,0
-2.21646e-05,1.53498e-07,-1.53793e-05,-5.38766e-05,2.12976e-05,1.24134e-05,6.44598e-06,5.52004e-06,0
-1.84299e-05,-1.07121e-05,-1.32311e-05,-2.6896e-05,3.12188e-05,1.60397e-05,8.11129e-06,5.27939e-06,0
-2.05785e-05,-2.03875e-05,-1.13006e-05,-5.08994e-07,3.36061e-05,1.30436e-05,9.86305e-06,4.79988e-06,0
-2.40268e-05,-2.39328e-05,-1.08758e-05,1.90609e-05,2.61286e-05,8.04615e-06,1.08937e-05,5.02598e-06,0
-2.69832e-05,-2.0738e-05,-1.06632e-05,3.65466e-05,1.44604e-05,1.18381e-06,1.1795e-05,4.26689e-06,0
-2.87632e-05,-1.50417e-05,-1.18852e-05,5.33663e-05,5.46761e-06,-6.18776e-06,1.14762e-05,1.06846e-06,0
-2.94059e-05,-1.23094e-05,-1.30768e-05,5.66222e-05,2.34288e-06,-6.26045e-06,1.01878e-05,-2.34373e-06,0
-2.97799e-05,-1.12717e-05,-1.404e-05,3.78034e-05,2.91546e-06,2.98259e-06,9.60358e-06,-4.18623e-06,0
-2.96553e-05,-8.47451e-06,-1.34471e-05,2.51629e-06,3.93644e-06,9.74482e-06,1.14219e-05,-3.97443e-06,0
-2.99211e-05,-3.532e-06,-1.25155e-05,-3.12004e-05,4.35711e-06,6.64995e-06,1.41324e-05,-3.14618e-06,0
-2.98638e-05,8.76151e-07,-1.24772e-05,-4.40292e-05,5.1149e-06,-2.00507e-06,1.51824e-05,-1.08644e-06,0
-2.96405e-05,3.37837e-06,-1.11526e-05,-2.87776e-05,5.17901e-06,-9.79027e-06,1.51208e-05,2.19121e-06,0
-2.97522e-05,6.00732e-06,-9.14725e-06,9.77206e-06,3.96187e-06,-1.31318e-05,1.50876e-05,3.5043e-06,0
-3.04311e-05,9.6306e-06,-8.45747e-06,6.30838e-05,3.99665e-06,-1.53748e-05,1.47991e-05,2.41219e-06,0
-3.12816e-05,1.43896e-05,-9.21297e-06,0.000118704,5.98872e-06,-2.16114e-05,1.4022e-05,-2.25588e-07,0
-3.1595e-05,1.90072e-05,-9.68983e-06,0.000155777,6.90825e-06,-2.63472e-05,1.25683e-05,-2.76437e-06,0
-3.17257e-05,2.47224e-05,-9.77529e-06,0.000158857,4.86354e-06,-1.52469e-05,8.25876e-06,-4.36751e-06,0
-3.2757e-05,3.25173e-05,-9.47311e-06,0.000126052,2.84628e-06,7.94266e-06,1.75949e-06,-4.8545e-06,0
-3.37842e-05,4.07686e-05,-8.17711e-06,7.21809e-05,3.89965e-06,2.24246e-05,-1.93173e-06,-4.5517e-06,0
-3.26938e-05,4.64569e-05,-5.18983e-06,1.73216e-05,7.00261e-06,1.50319e-05,1.04639e-06,-3.21241e-06,0
-3.08207e-05,4.87894e-05,-3.18481e-06,-2.66855e-05,1.09765e-05,-4.2142e-06,9.20847e-06,-1.19109e-06,0
-3.07342e-05,4.73664e-05,-4.27858e-06,-5.96415e-05,1.44933e-05,-1.77714e-05,1.85381e-05,6.35606e-07,0
-3.21809e-05,4.67845e-05,-5.91506e-06,-8.43395e-05,1.52175e-05,-2.05504e-05,2.58906e-05,6.15656e-07,0
-3.18558e-05,4.74729e-05,-4.37472e-06,-9.48587e-05,1.52834e-05,-1.98484e-05,3.1178e-05,-1.02734e-06,0
-2.94737e-05,4.37776e-05,-1.1491e-06,-8.90411e-05,1.64539e-05,-2.05075e-05,3.33416e-05,-8.73862e-07,0
-2.75023e-05,3.4602e-05,5.96534e-07,-7.29526e-05,1.79361e-05,-2.01599e-05,3.22586e-05,8.27183e-07,0
-2.43755e-05,2.47772e-05,4.61045e-07,-4.94523e-05,2.03312e-05,-1.05339e-05,3.02598e-05,3.47603e-06,0
-2.16893e-05,2.25885e-05,3.65071e-07,-2.03224e-05,2.30048e-05,6.05026e-06,2.80279e-05,5.4847e-06,0
-2.58726e-05,2.60077e-05,3.89851e-06,2.08674e-05,2.64065e-05,1.22422e-05,2.61229e-05,5.14651e-06,0
-3.42867e-05,2.87515e-05,9.69854e-06,6.79769e-05,3.17903e-05,6.8503e-06,2.34525e-05,3.15631e-06,0
-3.52792e-05,3.03635e-05,1.3321e-05,9.45104e-05,3.74077e-05,-4.65685e-07,1.91171e-05,1.00614e-06,0
-2.26624e-05,3.39916e-05,1.39786e-05,8.45756e-05,3.81438e-05,-4.71387e-06,1.259e-05,5.52896e-07,0
-6.93897e-06,4.61874e-05,1.34711e-05,4.79776e-05,3.32835e-05,-5.37267e-06,5.83671e-06,2.89981e-07,0
1.93528e-06,6.00646e-05,1.34379e-05,8.94865e-06,2.78428e-05,-6.15751e-06,3.52236e-06,3.46866e-08,0
3.75961e-06,6.20974e-05,1.21956e-05,-2.24633e-05,2.42304e-05,-8.56599e-06,1.0003e-06,-5.55193e-07,0
-6.13842e-07,5.34138e-05,8.27688e-06,-4.24612e-05,2.17865e-05,-1.0595e-05,-6.65038e-06,-1.3538e-06,0
-1.05384e-05,4.46629e-05,5.20557e-06,-5.22132e-05,1.87426e-05,-1.10263e-05,-1.49563e-05,-9.50947e-07,0
-2.38238e-05,4.2477e-05,4.36349e-06,-5.46392e-05,1.73566e-05,-9.06984e-06,-1.85068e-05,6.17596e-07,0
-3.31505e-05,4.27392e-05,3.98405e-06,-5.94691e-05,1.77059e-05,-8.30323e-06,-1.78338e-05,2.19256e-06,0
-3.56588e-05,3.99824e-05,2.81754e-06,-7.38505e-05,1.80756e-05,-1.13697e-05,-1.62773e-05,1.8469e-06,0
-3.54985e-05,3.43667e-05,1.14005e-06,-8.8948e-05,1.83205e-05,-1.55092e-05,-1.38828e-05,9.85684e-07,0
-3.79788e-05,2.82992e-05,-6.36382e-07,-9.22924e-05,1.80864e-05,-1.87016e-05,-8.99056e-06,1.17189e-06,0
-4.32591e-05,2.08024e-05,-2.02839e-06,-8.12421e-05,1.63349e-05,-2.12116e-05,-1.6229e-06,2.05626e-06,0
-4.65007e-05,1.08735e-05,-2.97258e-06,-6.44084e-05,1.14177e-05,-2.21914e-05,4.70154e-06,2.69983e-06,0
-4.3159e-05,5.09556e-06,-5.44001e-06,-4.95208e-05,5.54022e-06,-2.11147e-05,1.00733e-05,3.34409e-06,0
-3.57688e-05,1.73481e-05,-1.05248e-05,-3.76968e-05,1.6076e-06,-2.03173e-05,1.86205e-05,4.03796e-06,0
-3.06683e-05,4.61143e-05,-1.55998e-05,-2.30712e-05,5.42734e-07,-1.95005e-05,3.08454e-05,4.57394e-06,0
-2.81452e-05,6.87894e-05,-1.92992e-05,-5.98559e-06,1.36964e-06,-1.91517e-05,4.18685e-05,4.11052e-06,0
-2.6714e-05,7.0974e-05,-2.23781e-05,1.27959e-05,3.28648e-06,-2.03048e-05,4.83159e-05,2.42875e-06,0
-2.71866e-05,6.11411e-05,-2.45722e-05,2.94038e-05,6.36602e-06,-2.09871e-05,4.8802e-05,1.18498e-06,0
-2.97783e-05,4.95859e-05,-2.51267e-05,2.96017e-05,8.76456e-06,-2.09895e-05,4.19552e-05,1.65228e-06,0
-3.31309e-05,3.00382e-05,-2.2489e-05,8.98848e-06,5.4848e-06,-2.12222e-05,2.97228e-05,1.69685e-06,0
-3.85273e-05,-2.13157e-06,-1.86138e-05,-1.74305e-05,-9.83437e-07,-2.24295e-05,1.96919e-05,-5.69431e-07,0
-4.41156e-05,-3.99254e-05,-1.6672e-05,-3.60981e-05,-5.21811e-06,-2.55784e-05,1.29409e-05,-7.84976e-07,0
-4.47789e-05,-6.579e-05,-1.70975e-05,-3.0189e-05,-7.11352e-06,-2.82114e-05,4.82137e-06,1.15411e-07,0
-4.15821e-05,-7.85527e-05,-1.80505e-05,1.71255e-06,-6.73588e-06,-2.91684e-05,-1.59828e-06,1.4754e-07,0
-3.76712e-05,-9.75525e-05,-1.80081e-05,3.44593e-05,-5.5913e-06,-2.88535e-05,-4.25663e-06,-1.52906e-07,0
-3.62543e-05,-0.000121052,-1.79386e-05,5.17351e-05,-4.15913e-06,-2.6397e-05,-3.84035e-06,1.32543e-07,0
-4.02772e-05,-0.00013574,-1.78662e-05,6.35523e-05,-1.0029e-06,-2.48488e-05,-1.85428e-06,2.14223e-06,0
-4.35824e-05,-0.000130997,-1.69126e-05,8.13599e-05,3.80346e-06,-2.53588e-05,3.1755e-07,2.81839e-06,0
-3.80818e-05,-0.000109936,-1.47528e-05,9.3961e-05,1.16262e-05,-2.37915e-05,2.80863e-06,1.63844e-06,0
-2.56441e-05,-8.21443e-05,-1.22141e-05,9.03424e-05,2.30169e-05,-1.78478e-05,4.06489e-06,-5.40922e-07,0
-1.53576e-05,-5.77027e-05,-9.56466e-06,6.68703e-05,3.1881e-05,-1.13652e-05,4.86966e-06,-1.07467e-06,0
-1.31733e-05,-4.07639e-05,-5.90725e-06,2.93467e-05,3.45023e-05,-8.50605e-06,6.58995e-06,-1.07352e-06,0
-1.82284e-05,-2.73985e-05,-1.05939e-06,-1.0908e-05,3.39116e-05,-8.64339e-06,7.50507e-06,-1.37626e-06,0
-2.54854e-05,-1.56761e-05,4.46252e-06,-3.98773e-05,3.35487e-05,-8.99247e-06,8.52204e-06,-1.84517e-06,0
-3.12962e-05,-3.85382e-06,9.58617e-06,-4.5984e-05,3.3813e-05,-8.03827e-06,8.37332e-06,-3.25278e-06,0
-3.5134e-05,9.08569e-06,1.37619e-05,-2.82439e-05,3.42292e-05,-5.46824e-06,5.92269e-06,-4.87587e-06,0
-3.63753e-05,2.41872e-05,1.71106e-05,-8.79208e-06,3.50317e-05,-2.27633e-06,4.35911e-06,-6.09785e-06,0
-3.59676e-05,3.40626e-05,1.98303e-05,-1.64074e-05,3.43983e-05,-5.56007e-07,6.64806e-06,-6.20586e-06,0
-3.62281e-05,3.51388e-05,2.01679e-05,-5.07052e-05,3.05261e-05,-6.60514e-07,1.12968e-05,-6.11638e-06,0
-3.78696e-05,3.04974e-05,1.63498e-05,-8.50801e-05,2.58236e-05,-8.98767e-07,1.47783e-05,-5.8859e-06,0
-3.79564e-05,2.50889e-05,1.01968e-05,-8.70383e-05,2.32153e-05,2.82121e-07,1.65516e-05,-5.30255e-06,0
-3.54718e-05,1.75042e-05,5.23345e-06,-4.65944e-05,2.11616e-05,2.55967e-06,1.64535e-05,-3.90607e-06,0
-3.31255e-05,6.21799e-06,2.51073e-06,1.29568e-05,1.81738e-05,4.9915e-06,1.53098e-05,-4.2415e-06,0
-3.14347e-05,-4.5235e-06,-3.23562e-07,6.07322e-05,1.50491e-05,5.17234e-06,1.32078e-05,-4.8978e-06,0
-2.96912e-05,-7.89601e-06,-2.93337e-06,9.04267e-05,1.32235e-05,3.85024e-06,9.74135e-06,-2.93477e-06,0
-2.84493e-05,-5.0488e-07,-2.11324e-06,0.00010705,1.37054e-05,3.45134e-06,6.18953e-06,8.65368e-07,0
-2.51677e-05,1.15111e-05,1.13378e-06,0.000103318,1.4648e-05,2.57551e-06,6.1948e-06,3.45095e-06,0
-1.6102e-05,2.03098e-05,3.1491e-06,7.60615e-05,1.54607e-05,1.27679e-06,1.00925e-05,3.58462e-06,0
-8.09844e-06,2.75207e-05,4.31835e-06,3.76331e-05,1.73693e-05,2.18784e-06,1.42464e-05,2.38459e-06,0
-1.16548e-05,3.40635e-05,1.03586e-05,3.01832e-06,1.75667e-05,4.88467e-06,1.64681e-05,1.88646e-06,0
-1.98406e-05,4.25158e-05,2.12084e-05,-2.52814e-05,1.50555e-05,5.74672e-06,1.81852e-05,2.881e-06,0
-2.49546e-05,5.08656e-05,3.20431e-05,-5.6656e-05,1.34595e-05,2.23323e-06,1.93242e-05,2.33332e-06,0
-3.12067e-05,5.26985e-05,3.87998e-05,-7.01937e-05,1.37153e-05,-4.22935e-06,1.88694e-05,1.0535e-06,0
-4.09897e-05,4.8904e-05,3.46692e-05,-4.95575e-05,1.35582e-05,-8.98197e-06,1.88087e-05,-2.766e-07,0
-5.03443e-05,3.78587e-05,1.69166e-05,-2.15434e-05,1.05975e-05,-1.07045e-05,1.90114e-05,-1.40577e-06,0
-5.48533e-05,2.53512e-05,-1.03468e-05,-7.2104e-06,6.38313e-06,-1.1303e-05,1.97604e-05,-1.45362e-06,0
-5.49897e-05,1.56187e-05,-3.84702e-05,-4.56913e-06,3.23162e-06,-1.34535e-05,2.14471e-05,-9.7232e-07,0
-5.20882e-05,7.75378e-06,-6.06066e-05,-3.95693e-06,1.9397e-06,-1.60847e-05,2.36584e-05,1.16117e-07,0
-4.9785e-05,-6.70636e-07,-7.07026e-05,4.49487e-06,2.48535e-06,-1.71867e-05,2.66148e-05,8.36881e-07,0
-4.92722e-05,-7.09822e-06,-6.85689e-05,2.88958e-05,3.74925e-06,-1.70055e-05,3.34367e-05,2.00093e-06,0
-4.78913e-05,-1.04945e-05,-6.20212e-05,5.58761e-05,5.31244e-06,-1.43572e-05,4.57044e-05,3.6306e-06,0
-4.36254e-05,-1.03062e-05,-5.73079e-05,5.98377e-05,5.62707e-06,-8.76149e-06,5.82014e-05,3.87241e-06,0
-3.87841e-05,-5.36184e-06,-5.57685e-05,3.09428e-05,4.24095e-06,-4.95329e-06,6.56095e-05,2.14546e-06,0
-3.57292e-05,4.57436e-06,-5.38784e-05,-1.95999e-05,2.71688e-06,-5.73788e-06,6.6437e-05,8.65222e-07,0
-3.34529e-05,1.70878e-05,-4.91657e-05,-7.49867e-05,1.16165e-06,3.8566e-06,6.10034e-05,2.37796e-06,0
-3.23767e-05,2.63937e-05,-4.16039e-05,-0.000125292,-4.62953e-07,3.13789e-05,5.03129e-05,5.70919e-06,0
-3.27897e-05,3.10181e-05,-3.35233e-05,-0.000166388,-5.25908e-07,4.96544e-05,3.5919e-05,8.07088e-06,0
-3.22611e-05,3.22836e-05,-2.68998e-05,-0.000191464,1.52746e-06,3.53756e-05,1.84228e-05,7.39469e-06,0
-2.97446e-05,3.32961e-05,-2.30268e-05,-0.000187351,4.78392e-06,2.72599e-06,-4.54776e-07,5.61633e-06,0
-2.84872e-05,3.37161e-05,-2.14106e-05,-0.000152626,8.22539e-06,-2.68827e-05,-1.61854e-05,5.0526e-06,0
-2.87845e-05,3.3686e-05,-1.92364e-05,-0.000106787,1.11998e-05,-4.70958e-05,-2.37747e-05,4.85216e-06,0
-2.77475e-05,3.2968e-05,-1.59543e-05,-6.87242e-05,1.40161e-05,-5.56027e-05,-2.18791e-05,4.02332e-06,0
-2.52693e-05,3.09116e-05,-1.1617e-05,-3.82414e-05,1.65504e-05,-4.13341e-05,-1.33312e-05,3.92943e-06,0
-2.39748e-05,2.9387e-05,-4.06957e-06,-7.22996e-06,1.77992e-05,-9.47208e-06,-1.88201e-06,4.43843e-06,0
-2.34291e-05,3.04031e-05,5.84756e-06,2.81246e-05,1.83819e-05,9.50678e-06,7.87992e-06,4.75256e-06,0
-2.16119e-05,3.54524e-05,1.46829e-05,6.74805e-05,1.97594e-05,4.48873e-06,1.07572e-05,5.34588e-06,0
-2.02911e-05,5.08832e-05,1.9613e-05,8.28198e-05,2.01459e-05,-8.19459e-06,9.24143e-06,7.26666e-06,0
-2.07368e-05,7.15994e-05,1.93389e-05,6.16466e-05,1.83212e-05,-1.52953e-05,7.96451e-06,7.59112e-06,0
-2.04785e-05,8.83914e-05,1.30354e-05,2.81286e-05,1.85415e-05,-1.66928e-05,6.77259e-06,7.10607e-06,0
-1.92941e-05,9.87765e-05,2.80396e-06,2.49076e-06,2.08287e-05,-1.52039e-05,6.0273e-06,7.44399e-06,0
-1.93499e-05,9.87975e-05,-6.81611e-06,2.19852e-06,2.30372e-05,-1.4928e-05,2.50929e-06,6.64529e-06,0
-2.04856e-05,8.63694e-05,-1.43532e-05,2.12634e-05,2.58189e-05,-1.52838e-05,-4.0414e-06,5.49747e-06,0
-2.10278e-05,6.3616e-05,-1.91586e-05,4.88308e-05,2.75737e-05,-1.60488e-05,-1.1676e-05,5.466e-06,0
-2.20196e-05,4.14368e-05,-2.22996e-05,6.55634e-05,2.77626e-05,-1.74907e-05,-1.94507e-05,6.85037e-06,0
-2.31921e-05,2.39307e-05,-2.42901e-05,5.76616e-05,2.67611e-05,-1.77685e-05,-2.28662e-05,6.83052e-06,0
-2.35514e-05,9.38449e-06,-2.5546e-05,3.56056e-05,2.50408e-05,-1.68402e-05,-2.13299e-05,4.53664e-06,0
-2.3458e-05,4.523e-07,-2.57075e-05,1.4952e-05,2.21899e-05,-1.63288e-05,-1.72147e-05,1.41944e-06,0
-2.28997e-05,-5.18255e-06,-2.3954e-05,2.32162e-06,1.87642e-05,-1.64149e-05,-1.22662e-05,-6.80434e-07,0
-2.28305e-05,-1.49208e-05,-1.97958e-05,-4.48733e-06,1.66917e-05,-1.60248e-05,-5.32805e-06,-1.93424e-06,0
-2.45467e-05,-2.9882e-05,-1.38308e-05,-5.5301e-06,1.5477e-05,-1.56965e-05,3.43789e-06,-1.72282e-06,0
-2.88899e-05,-4.16971e-05,-7.28613e-06,-3.88842e-06,1.39075e-05,-1.65566e-05,1.12461e-05,1.75382e-07,0
-3.24853e-05,-4.4659e-05,1.14367e-06,1.95113e-07,1.37458e-05,-1.96075e-05,1.52021e-05,1.02859e-06,0
-3.11665e-05,-4.13189e-05,1.28328e-05,5.77812e-06,1.56794e-05,-2.14238e-05,1.38598e-05,-3.39019e-07,0
-2.49999e-05,-3.51705e-05,2.81736e-05,1.15001e-05,1.84508e-05,-2.01339e-05,9.62261e-06,-1.67052e-06,0
-1.9418e-05,-2.69542e-05,4.6252e-05,1.09413e-05,2.23511e-05,-1.73348e-05,6.73415e-06,-1.24805e-06,0
-1.81241e-05,-1.71377e-05,6.22663e-05,1.50326e-06,2.42252e-05,-1.55553e-05,7.23773e-06,-8.54513e-07,0
-2.01699e-05,-6.86714e-06,6.51437e-05,-1.56058e-05,1.97242e-05,-1.56252e-05,8.12153e-06,-1.78435e-06,0
-2.48339e-05,2.68469e-06,4.70074e-05,-3.42096e-05,1.10066e-05,-1.68032e-05,7.37309e-06,-3.70483e-06,0
-3.13958e-05,9.39827e-06,8.90748e-06,-4.58046e-05,4.03334e-06,-1.65406e-05,7.26769e-06,-5.63641e-06,0
-3.72237e-05,1.85908e-05,-3.65642e-05,-4.59378e-05,-8.95239e-08,-1.50774e-05,1.0009e-05,-6.36561e-06,0
-4.07372e-05,3.70056e-05,-7.29547e-05,-4.60166e-05,-4.20912e-06,-1.5076e-05,1.38742e-05,-5.95314e-06,0
-4.15804e-05,5.49334e-05,-9.2183e-05,-6.24873e-05,-1.0148e-05,-1.64667e-05,1.48798e-05,-6.25849e-06,0
-3.87646e-05,6.36972e-05,-9.02368e-05,-8.96819e-05,-1.76712e-05,-1.67438e-05,5.23077e-06,-6.47381e-06,0
-3.37928e-05,6.07806e-05,-7.15734e-05,-0.00010042,-2.23959e-05,-1.58534e-05,-1.26269e-05,-5.11931e-06,0
-3.06452e-05,4.6603e-05,-4.99937e-05,-9.53299e-05,-2.44921e-05,-1.5624e-05,-2.54168e-05,-2.69384e-06,0
-3.08488e-05,2.79539e-05,-3.32387e-05,-9.56697e-05,-2.58572e-05,-1.68227e-05,-2.53826e-05,-6.32684e-07,0
-3.24233e-05,1.18203e-05,-2.10883e-05,-9.38138e-05,-2.2614e-05,-1.82948e-05,-1.43182e-05,-8.77996e-07,0
-3.55703e-05,-4.40123e-08,-1.36702e-05,-7.86391e-05,-1.30263e-05,-1.74258e-05,4.72191e-07,-1.51536e-06,0
-3.88144e-05,-1.41228e-05,-1.0651e-05,-4.47918e-05,-2.61562e-06,-1.5148e-05,1.46035e-05,-1.55195e-06,0
-4.02375e-05,-3.31705e-05,-1.09743e-05,-1.37089e-06,2.14142e-06,-1.31374e-05,2.57994e-05,-1.43793e-06,0
-4.23007e-05,-5.3355e-05,-1.07055e-05,3.55247e-05,4.39819e-06,-1.04598e-05,3.35849e-05,-2.30561e-07,0
-4.54028e-05,-6.49477e-05,-6.66835e-06,5.5111e-05,9.1002e-06,-6.17439e-06,3.81941e-05,1.81002e-06,0
-4.79885e-05,-6.22359e-05,1.42936e-06,5.88682e-05,1.65773e-05,-2.85898e-06,4.02622e-05,4.05092e-06,0
-4.928e-05,-4.82359e-05,9.70734e-06,5.96786e-05,2.23199e-05,-1.97997e-06,4.02026e-05,4.44976e-06,0
-4.7376e-05,-3.06148e-05,1.45442e-05,6.92242e-05,2.53109e-05,-3.81252e-06,3.93165e-05,3.11146e-06,0
-4.19926e-05,-1.52556e-05,1.89274e-05,8.70329e-05,2.88857e-05,-7.93965e-06,3.82897e-05,6.06242e-07,0
-3.56688e-05,-3.22019e-06,2.32077e-05,0.000100974,3.41287e-05,-1.37453e-05,3.64772e-05,-1.90795e-06,0
-2.93955e-05,6.88478e-06,2.47946e-05,9.86746e-05,3.74386e-05,-2.10346e-05,3.39718e-05,-3.19987e-06,0
-2.3056e-05,1.8821e-05,2.29516e-05,8.30039e-05,3.61282e-05,-2.70358e-05,3.24683e-05,-4.39858e-06,0
-1.8359e-05,3.32006e-05,2.12682e-05,7.24296e-05,3.31834e-05,-2.09107e-05,3.31004e-05,-5.56937e-06,0
-1.76083e-05,4.72395e-05,2.16366e-05,7.16938e-05,3.21282e-05,4.24144e-06,3.43069e-05,-5.3684e-06,0
-1.95601e-05,6.01493e-05,2.08309e-05,7.06382e-05,3.53274e-05,3.38446e-05,3.38071e-05,-3.65135e-06,0
-2.13514e-05,7.14035e-05,1.53291e-05,5.73234e-05,4.06739e-05,4.44845e-05,3.08102e-05,-2.32996e-06,0
-2.21914e-05,7.44066e-05,6.64058e-06,2.29838e-05,4.4438e-05,3.18692e-05,2.65105e-05,-1.52725e-06,0
-2.2968e-05,6.64149e-05,-4.07473e-07,-1.7237e-05,4.43003e-05,1.20887e-05,2.12465e-05,-1.35434e-06,0
-2.37873e-05,5.30277e-05,-4.34129e-06,-2.81843e-05,3.96471e-05,-1.49635e-07,1.562e-05,-2.46863e-06,0
-2.46674e-05,4.07222e-05,-8.48669e-06,-1.29838e-05,3.15695e-05,-3.62715e-06,1.17848e-05,-3.32037e-06,0
-2.76439e-05,3.02228e-05,-1.53747e-05,-3.912e-07,2.42217e-05,-5.7539e-06,1.06008e-05,-2.87026e-06,0
-3.25068e-05,1.97656e-05,-2.16101e-05,9.53907e-06,2.08413e-05,-8.06001e-06,1.01093e-05,-2.09518e-06,0
-3.67945e-05,7.88086e-06,-2.36694e-05,3.71795e-05,2.1058e-05,-8.49308e-06,8.80666e-06,-1.26542e-06,0
-3.28671e-05,2.04474e-06,-2.22106e-05,7.63954e-05,2.10963e-05,-5.5507e-06,5.20813e-06,-1.23357e-06,0
-1.86431e-05,9.40375e-06,-1.94306e-05,9.7922e-05,1.81062e-05,-5.23603e-07,2.23352e-06,-1.67648e-06,0
-5.98518e-06,2.12258e-05,-1.68505e-05,8.84299e-05,1.30208e-05,4.89899e-06,3.96522e-06,-1.29312e-06,0
-3.69054e-06,2.71958e-05,-1.42639e-05,5.10476e-05,9.8649e-06,1.1508e-05,6.6232e-06,-3.18555e-07,0
-1.12298e-05,2.65664e-05,-1.29987e-05,-6.94283e-06,9.06532e-06,1.56429e-05,3.82425e-06,4.16153e-07,0
-2.14577e-05,2.77146e-05,-1.27798e-05,-7.20392e-05,8.10278e-06,1.12485e-05,-9.08958e-06,9.0983e-07,0
-3.05422e-05,3.19052e-05,-1.10885e-05,-0.000120449,7.98137e-06,5.70856e-06,-2.69062e-05,1.33804e-06,0
-3.99157e-05,3.47923e-05,-8.43007e-06,-0.000138548,7.03391e-06,1.02747e-05,-3.48939e-05,1.5969e-06,0
-4.8412e-05,4.06617e-05,-7.58137e-06,-0.000120623,8.83709e-07,1.6319e-05,-2.38076e-05,2.53148e-06,0
-5.35343e-05,4.8789e-05,-9.79513e-06,-6.81063e-05,-7.12558e-06,1.18503e-05,7.96581e-07,4.06588e-06,0
-5.41427e-05,4.78103e-05,-1.22181e-05,7.08372e-06,-9.99382e-06,-5.50198e-07,2.38305e-05,7.2577e-06,0
-5.24558e-05,2.99788e-05,-1.29802e-05,8.39383e-05,-7.06379e-06,-1.27436e-05,3.92493e-05,1.06652e-05,0
-5.08027e-05,7.3034e-07,-1.15111e-05,0.000134578,-1.11514e-06,-2.54628e-05,4.83573e-05,1.25268e-05,0
-4.95658e-05,-2.17889e-05,-9.12109e-06,0.000147503,5.32995e-06,-3.84643e-05,5.10779e-05,1.44218e-05,0
-4.75929e-05,-2.54447e-05,-7.58881e-06,0.000135527,1.14418e-05,-4.216e-05,4.80001e-05,1.60597e-05,0
-4.37024e-05,-1.42185e-05,-7.68498e-06,0.000115321,1.60724e-05,-3.21641e-05,4.24291e-05,1.5987e-05,0
-3.8918e-05,2.73785e-06,-7.71194e-06,8.67401e-05,1.89702e-05,-1.88941e-05,3.66579e-05,1.41713e-05,0
-3.50415e-05,1.56889e-05,-6.62303e-06,4.53203e-05,2.10475e-05,-1.37854e-05,2.9791e-05,1.1564e-05,0
-3.30985e-05,1.57742e-05,-5.54747e-06,4.6304e-06,2.17674e-05,-1.55613e-05,2.33627e-05,9.34984e-06,0
-3.31715e-05,1.8391e-07,-5.25473e-06,-4.34173e-06,2.18391e-05,-1.85857e-05,2.01553e-05,9.4176e-06,0
-3.42665e-05,-2.50138e-05,-7.08655e-06,2.85267e-05,2.38622e-05,-2.01872e-05,2.06716e-05,1.05208e-05,0
-3.43253e-05,-4.74727e-05,-1.07789e-05,6.81544e-05,2.5075e-05,-2.00099e-05,2.19297e-05,1.05676e-05,0
-3.39265e-05,-5.57905e-05,-1.38664e-05,7.67354e-05,2.36135e-05,-1.86997e-05,2.11387e-05,1.02861e-05,0
-3.38324e-05,-4.93436e-05,-1.48179e-05,5.24106e-05,2.35429e-05,-1.84355e-05,1.82689e-05,1.034e-05,0
-3.61485e-05,-4.21978e-05,-1.50981e-05,4.08978e-06,2.32958e-05,-2.03474e-05,1.52158e-05,8.67987e-06,0
-3.90253e-05,-3.761e-05,-1.58535e-05,-5.86345e-05,1.88986e-05,-2.47484e-05,1.27844e-05,5.18775e-06,0
-3.42404e-05,-2.35102e-05,-1.62976e-05,-0.000125198,1.32919e-05,-2.85594e-05,6.27835e-06,1.32687e-06,0
-2.47828e-05,-3.22785e-06,-1.52123e-05,-0.000175335,1.19366e-05,-2.40832e-05,-9.77494e-06,-2.0508e-06,0
-1.6626e-05,1.33313e-05,-1.28733e-05,-0.000189904,1.50443e-05,-8.8329e-06,-3.21836e-05,-3.36576e-06,0
-1.18664e-05,2.02498e-05,-1.0901e-05,-0.000173561,1.74118e-05,6.91479e-06,-5.07187e-05,-3.6832e-06,0
-1.23557e-05,2.08044e-05,-1.01676e-05,-0.000133197,1.57511e-05,9.28423e-06,-5.40546e-05,-3.80377e-06,0
-1.84764e-05,2.43478e-05,-1.00645e-05,-8.7715e-05,1.10995e-05,1.69941e-06,-4.1599e-05,-4.54417e-06,0
-2.49218e-05,3.13545e-05,-8.80257e-06,-5.27558e-05,6.88641e-06,-4.57327e-06,-2.10525e-05,-4.73541e-06,0
-2.51138e-05,4.25648e-05,-6.8878e-06,-2.84478e-05,4.17839e-06,-6.36426e-06,2.43802e-06,-3.02227e-06,0
-2.32656e-05,5.73429e-05,-7.35811e-06,-1.28638e-05,3.69122e-06,-4.34549e-06,2.50992e-05,-7.65272e-07,0
-2.38514e-05,7.11243e-05,-8.58317e-06,-6.48368e-06,4.45966e-06,-2.78778e-06,4.41537e-05,-4.13085e-08,0
-2.68063e-05,7.71135e-05,-8.7849e-06,-1.16551e-05,4.93589e-06,-3.46232e-06,5.60971e-05,-1.00834e-06,0
-2.84139e-05,7.28402e-05,-7.77238e-06,-2.65539e-05,4.09523e-06,-4.9004e-06,5.74714e-05,-1.89017e-06,0
-2.67167e-05,6.01953e-05,-5.53724e-06,-3.6429e-05,1.06148e-06,-4.73809e-06,5.22068e-05,-3.06288e-06,0
-2.39084e-05,4.18001e-05,-4.29444e-06,-2.23191e-05,-1.11839e-06,-3.62064e-06,4.63827e-05,-3.91044e-06,0
-2.24576e-05,2.21239e-05,-4.53714e-06,1.22016e-05,1.26894e-06,-3.08884e-06,4.11209e-05,-3.18647e-06,0
-2.35008e-05,5.9939e-06,-4.75343e-06,3.74017e-05,6.43575e-06,-4.57441e-06,3.54328e-05,-1.64864e-06,0
-2.51517e-05,-2.25933e-06,-3.42558e-06,2.8891e-05,8.95394e-06,-8.14772e-06,2.84396e-05,-1.54849e-06,0
-2.47536e-05,-1.18046e-06,-4.23632e-07,-4.66523e-06,1.00719e-05,-1.19733e-05,2.27452e-05,-2.56113e-06,0
-2.17952e-05,7.32082e-06,2.33646e-06,-4.33138e-05,1.26355e-05,-1.65085e-05,2.09453e-05,-3.03197e-06,0
-1.92402e-05,1.97907e-05,4.08236e-06,-7.4032e-05,1.53444e-05,-2.16651e-05,2.1991e-05,-2.45933e-06,0
-1.88552e-05,3.11452e-05,5.16878e-06,-8.91916e-05,1.57515e-05,-2.50807e-05,2.23394e-05,-1.49256e-06,0
-2.01955e-05,3.49252e-05,4.99024e-06,-8.52268e-05,1.49611e-05,-2.6118e-05,2.01543e-05,-1.22829e-06,0
-2.30548e-05,3.2048e-05,4.08596e-06,-6.80126e-05,1.46765e-05,-2.71262e-05,1.62179e-05,-1.47668e-06,0
-2.74729e-05,2.54341e-05,4.3701e-06,-4.96531e-05,1.54527e-05,-2.66728e-05,1.2034e-05,-1.54042e-06,0
-2.95673e-05,1.56343e-05,4.65348e-06,-4.26544e-05,1.71462e-05,-2.35176e-05,7.69732e-06,-1.62157e-06,0
-2.72654e-05,8.17924e-06,3.05631e-06,-5.20587e-05,1.78704e-05,-1.77359e-05,3.8165e-06,-2.86929e-06,0
-2.5633e-05,7.94262e-06,2.98228e-06,-7.01927e-05,1.3873e-05,-1.26079e-05,2.69679e-06,-3.88689e-06,0
-2.65402e-05,1.35149e-05,5.27173e-06,-8.04565e-05,5.48959e-06,-1.08752e-05,5.15934e-06,-3.02297e-06,0
-2.64112e-05,1.87192e-05,4.30416e-06,-6.97312e-05,-1.36876e-06,-1.30388e-05,7.03508e-06,-1.92466e-06,0
-2.48852e-05,1.82587e-05,-1.27938e-06,-5.02496e-05,-4.45412e-06,-1.59733e-05,5.61187e-06,-1.82141e-06,0
-2.41239e-05,1.34042e-05,-7.51501e-06,-4.93307e-05,-2.19015e-06,-1.63325e-05,2.09767e-06,-1.8649e-06,0
-2.52631e-05,6.74697e-06,-1.04443e-05,-6.32444e-05,3.93104e-06,-1.57758e-05,-1.68841e-06,-1.71666e-06,0
-2.71567e-05,1.36066e-06,-1.02238e-05,-7.39961e-05,9.62015e-06,-1.55735e-05,-2.86606e-06,2.22332e-07,0
-2.65693e-05,-3.68849e-06,-1.01915e-05,-8.03544e-05,1.48155e-05,-1.63842e-05,4.04372e-07,2.68985e-06,0
-2.42784e-05,-6.51168e-06,-1.05325e-05,-8.60828e-05,1.74215e-05,-1.73535e-05,5.13582e-06,3.76243e-06,0
-2.20134e-05,-5.33462e-06,-1.11744e-05,-9.13356e-05,1.65999e-05,-1.72443e-05,6.95037e-06,3.89427e-06,0
-2.09966e-05,-2.24105e-06,-1.10402e-05,-8.77907e-05,1.37897e-05,-1.65493e-05,8.59904e-06,2.34133e-06,0
-2.24043e-05,1.78443e-06,-1.1674e-05,-6.56946e-05,1.17521e-05,-1.68045e-05,1.14554e-05,6.36265e-07,0
-2.5799e-05,7.24266e-06,-1.36162e-05,-2.06665e-05,1.24178e-05,-1.84404e-05,1.29356e-05,-2.76449e-08,0
-2.89806e-05,1.78731e-05,-1.48143e-05,3.38726e-05,1.45672e-05,-1.98074e-05,1.24637e-05,1.08965e-06,0
-2.96606e-05,3.38367e-05,-1.34194e-05,7.82674e-05,1.74363e-05,-1.92526e-05,1.13507e-05,2.60964e-06,0
-2.84518e-05,4.96395e-05,-9.47133e-06,0.000107867,2.27803e-05,-1.64835e-05,1.03303e-05,3.03546e-06,0
-2.66648e-05,5.66973e-05,-5.1293e-06,0.000124749,3.05946e-05,-1.25328e-05,1.14796e-05,1.91596e-06,0
-2.53853e-05,5.32393e-05,-1.58508e-06,0.000125743,3.5666e-05,-1.16164e-05,1.77848e-05,-1.01552e-07,0
-2.42376e-05,4.31392e-05,-1.23122e-06,0.000107662,3.53299e-05,-1.50404e-05,2.85176e-05,2.29139e-08,0
-2.30117e-05,3.21035e-05,-2.55232e-06,7.65958e-05,3.25765e-05,-1.80115e-05,3.78296e-05,2.05881e-06,0
-2.23663e-05,2.65303e-05,-1.9566e-06,4.50726e-05,3.03074e-05,-1.69502e-05,3.97092e-05,2.33717e-06,0
-2.25088e-05,3.20331e-05,-6.32764e-08,2.43853e-05,2.7285e-05,-1.36667e-05,3.44692e-05,-8.861e-08,0
-2.30856e-05,4.67566e-05,-9.77665e-08,2.27147e-05,2.51416e-05,-1.04926e-05,2.53462e-05,-2.22905e-06,0
-2.58581e-05,6.36923e-05,-9.6924e-07,3.82283e-05,2.36382e-05,-9.408e-06,1.494e-05,-2.41989e-06,0
-3.30319e-05,7.42934e-05,-2.18738e-06,5.50259e-05,2.08311e-05,-1.21764e-05,4.93653e-06,-1.09613e-06,0
-4.34677e-05,6.65803e-05,-4.12101e-06,6.07983e-05,1.83889e-05,-1.52531e-05,-5.30111e-06,8.9047e-09,0
-5.29587e-05,3.58969e-05,-4.3405e-06,6.57444e-05,1.69179e-05,-1.68889e-05,-1.56706e-05,-2.02329e-07,0
-5.25369e-05,-7.00466e-06,-3.19332e-06,8.75614e-05,1.59372e-05,-1.58164e-05,-2.12446e-05,-8.85355e-07,0
-4.38969e-05,-5.79087e-05,-2.62972e-06,0.000107684,1.64928e-05,-1.02026e-05,-1.83749e-05,-5.35559e-07,0
-4.14571e-05,-0.000102377,-2.43772e-06,8.78939e-05,1.61967e-05,-1.036e-05,-1.28074e-05,-2.04997e-06,0
-4.46522e-05,-0.000119876,-3.83597e-06,3.84773e-05,1.36132e-05,-1.8352e-05,-8.70963e-06,-3.83709e-06,0
-4.36025e-05,-0.000112761,-6.80349e-06,-3.90361e-06,1.10637e-05,-2.55743e-05,-5.00129e-06,-4.02362e-06,0
-3.38093e-05,-9.0093e-05,-1.08035e-05,-1.58576e-05,8.47337e-06,-2.49523e-05,-2.95143e-06,-2.43407e-06,0
-1.58541e-05,-6.43535e-05,-1.41887e-05,-1.58022e-06,6.42617e-06,-1.65096e-05,-2.77955e-06,2.80206e-07,0
2.28948e-06,-4.1257e-05,-1.49806e-05,8.35495e-06,4.33291e-06,-1.05143e-05,-3.54045e-06,1.71678e-07,0
1.06551e-05,-2.59595e-05,-1.41038e-05,1.80197e-06,4.38861e-07,-8.57232e-06,-2.76575e-06,-9.12282e-07,0
4.86525e-06,-1.83284e-05,-1.30432e-05,-7.44763e-06,-4.30151e-06,-8.69604e-06,-3.60989e-07,-1.78496e-06,0
-9.93623e-06,-1.76691e-05,-1.28692e-05,-6.72583e-06,-9.15578e-06,-1.32036e-05,3.64398e-06,-2.44858e-06,0
-2.44655e-05,-1.80889e-05,-1.19611e-05,1.64087e-06,-1.18479e-05,-1.0247e-05,9.37046e-06,-2.64929e-06,0
-3.51766e-05,-1.49201e-05,-9.02632e-06,1.26975e-05,-1.18795e-05,1.6745e-05,1.41696e-05,-5.10998e-07,0
-4.30374e-05,-1.15806e-05,-1.45352e-06,2.59652e-05,-1.25299e-05,4.50196e-05,1.58855e-05,1.80031e-06,0
-4.76866e-05,-7.51611e-06,1.1736e-05,4.47698e-05,-1.47648e-05,4.3706e-05,1.63271e-05,1.64064e-06,0
-4.89872e-05,2.19575e-06,2.30624e-05,6.86677e-05,-1.69763e-05,1.96531e-05,1.84382e-05,8.26678e-07,0
-4.85021e-05,2.16297e-05,2.27293e-05,8.9098e-05,-1.6966e-05,-7.84664e-08,2.0938e-05,1.70262e-06,0
-4.80733e-05,4.17567e-05,8.12189e-06,9.97725e-05,-1.3998e-05,-3.37761e-06,2.17839e-05,2.98027e-06,0
-4.73886e-05,5.17537e-05,-1.63578e-05,0.000101241,-8.3918e-06,1.93953e-06,2.12323e-05,2.84638e-06,0
-4.59124e-05,4.79211e-05,-4.25658e-05,8.34707e-05,-6.79949e-07,5.5822e-06,2.06247e-05,1.87492e-06,0
-4.38183e-05,3.841e-05,-6.24469e-05,3.63264e-05,9.21265e-06,4.89927e-06,1.85163e-05,5.71302e-07,0
-4.07786e-05,3.11968e-05,-7.0559e-05,-2.36553e-05,1.87362e-05,4.14438e-06,1.43977e-05,2.3472e-07,0
-3.65722e-05,2.90058e-05,-6.69341e-05,-7.34238e-05,2.47306e-05,5.04136e-06,1.1708e-05,4.41089e-07,0
-3.19774e-05,2.54925e-05,-5.58077e-05,-0.000102994,2.4058e-05,7.6318e-06,1.07874e-05,1.14729e-06,0
-2.93149e-05,1.76457e-05,-4.41066e-05,-0.000100164,1.8424e-05,8.90141e-06,9.05576e-06,1.01864e-06,0
-3.06497e-05,1.16989e-05,-3.7277e-05,-5.73101e-05,1.51995e-05,7.17392e-06,6.98789e-06,-1.25772e-06,0
-3.29997e-05,7.22402e-06,-3.2729e-05,-7.91795e-07,1.58052e-05,4.53377e-06,5.59144e-06,-2.89457e-06,0
-3.19319e-05,-3.75601e-07,-2.76632e-05,3.4385e-05,1.60602e-05,3.18329e-06,5.93567e-06,-1.9316e-06,0
-2.93439e-05,-5.27553e-06,-2.27074e-05,4.67681e-05,1.47605e-05,1.12104e-06,8.45932e-06,-1.49814e-06,0
-2.94824e-05,-3.16944e-06,-1.92154e-05,4.83492e-05,1.15803e-05,-1.10562e-06,1.31868e-05,-2.71095e-06,0
-3.11432e-05,1.53079e-06,-1.81167e-05,3.90762e-05,7.47118e-06,-3.09287e-06,1.82784e-05,-2.95498e-06,0
-3.03653e-05,6.57851e-06,-1.7672e-05,1.97808e-05,6.09067e-06,-2.9894e-06,2.04074e-05,-8.04291e-07,0
-2.77936e-05,1.22069e-05,-1.70325e-05,-3.24366e-06,6.44725e-06,-1.31626e-06,1.93499e-05,6.10491e-07,0
-2.78734e-05,1.7724e-05,-1.58264e-05,-2.33594e-05,3.87781e-06,-1.70146e-06,1.82015e-05,-4.96459e-07,0
-2.85512e-05,1.98997e-05,-1.54768e-05,-3.50001e-05,-1.76579e-06,-2.4801e-06,1.8916e-05,-2.50752e-06,0
-2.54852e-05,1.97333e-05,-1.58891e-05,-3.48112e-05,-5.60481e-06,-3.43528e-06,2.42307e-05,-1.42374e-06,0
-2.05926e-05,1.97973e-05,-1.49382e-05,-3.33835e-05,-4.8365e-06,-6.28525e-06,3.51955e-05,2.26603e-06,0
-1.55006e-05,1.96892e-05,-1.39519e-05,-3.33958e-05,-1.08559e-06,-1.20925e-05,4.67989e-05,4.99624e-06,0
-1.17971e-05,1.79807e-05,-1.47183e-05,-2.74379e-05,3.03222e-06,-1.73447e-05,5.40989e-05,5.66931e-06,0
-1.17076e-05,1.82239e-05,-1.62218e-05,-1.92821e-05,7.70945e-06,-2.12946e-05,5.54079e-05,3.52667e-06,0
-1.42442e-05,2.13369e-05,-1.63056e-05,-1.47144e-05,1.16186e-05,-2.67531e-05,5.10523e-05,-1.12012e-06,0
-1.64675e-05,2.55503e-05,-1.4312e-05,-6.09726e-06,1.44493e-05,-3.35104e-05,4.20096e-05,-5.5422e-06,0
-1.88977e-05,2.67544e-05,-1.03669e-05,1.7389e-05,1.74809e-05,-3.0767e-05,3.01586e-05,-6.31189e-06,0
-2.41635e-05,2.38891e-05,-6.57554e-06,4.11044e-05,2.10769e-05,-9.7647e-06,1.61031e-05,-5.30566e-06,0
-3.34119e-05,2.08738e-05,-5.20993e-06,4.23143e-05,2.38063e-05,1.82685e-05,9.3526e-07,-3.94827e-06,0
-4.43338e-05,2.1142e-05,-6.57693e-06,1.99095e-05,2.31993e-05,3.13783e-05,-1.26546e-05,-2.14191e-06,0
-5.29995e-05,2.47568e-05,-8.83051e-06,-9.29e-06,2.0007e-05,2.20286e-05,-2.1095e-05,-9.28811e-07,0
-5.75912e-05,2.70175e-05,-1.01425e-05,-3.21776e-05,1.56333e-05,5.80918e-06,-2.33388e-05,-1.43184e-06,0
-5.88626e-05,2.51316e-05,-9.12514e-06,-4.43304e-05,1.18128e-05,-2.86635e-06,-2.15099e-05,-2.37909e-06,0
-5.7098e-05,2.14138e-05,-6.86373e-06,-5.13701e-05,1.00239e-05,-3.52116e-06,-1.95201e-05,-2.86252e-06,0
-5.23067e-05,2.03739e-05,-6.00658e-06,-6.03545e-05,1.05086e-05,-2.5241e-07,-1.92072e-05,-2.9519e-06,0
-4.57825e-05,2.04135e-05,-6.81135e-06,-7.13381e-05,1.26068e-05,8.68181e-07,-1.89008e-05,-3.58075e-06,0
-4.03581e-05,1.95739e-05,-7.00539e-06,-8.27477e-05,1.45874e-05,-2.00108e-06,-1.77121e-05,-4.64401e-06,0
-3.68973e-05,2.1665e-05,-4.48683e-06,-9.30551e-05,1.54727e-05,-6.05888e-06,-1.58596e-05,-4.9697e-06,0
-3.35224e-05,3.36975e-05,-3.94218e-07,-9.55054e-05,1.66091e-05,-1.27303e-05,-1.37788e-05,-3.90191e-06,0
-3.04e-05,5.3797e-05,1.82502e-06,-8.53028e-05,1.71999e-05,-2.68697e-05,-9.48034e-06,-1.1965e-06,0
-2.89745e-05,6.47026e-05,-1.03268e-06,-6.68189e-05,1.61373e-05,-5.0252e-05,-1.41837e-06,8.91391e-07,0
-2.86109e-05,6.68618e-05,-5.14455e-06,-4.66605e-05,1.58332e-05,-6.05825e-05,8.63232e-06,1.41967e-06,0
-2.67721e-05,7.40163e-05,-5.35332e-06,-2.68884e-05,1.70072e-05,-3.7268e-05,1.79027e-05,1.2967e-06,0
-2.43622e-05,7.856e-05,-1.85098e-06,-3.8711e-06,1.89984e-05,-5.31349e-06,2.4009e-05,5.39823e-07,0
-2.36235e-05,7.33631e-05,3.22055e-06,1.95759e-05,1.94724e-05,4.44997e-06,2.81358e-05,2.86557e-07,0
-2.49159e-05,5.8057e-05,7.01716e-06,2.90316e-05,1.52415e-05,-4.35432e-06,3.07513e-05,2.75541e-07,0
-2.63857e-05,3.31088e-05,9.58508e-06,1.7983e-05,8.49958e-06,-1.47916e-05,3.12094e-05,-1.50698e-06,0
-2.863e-05,8.9151e-07,1.03594e-05,-3.2721e-06,3.73797e-06,-1.78929e-05,2.85203e-05,-2.92385e-06,0
-3.12619e-05,-3.46653e-05,9.01497e-06,-2.35556e-05,2.78644e-06,-1.41506e-05,2.43017e-05,-1.68534e-06,0
-3.30959e-05,-6.3835e-05,6.79613e-06,-3.9882e-05,4.34e-06,-7.80969e-06,2.15516e-05,1.26946e-06,0
-3.44225e-05,-7.68369e-05,5.04662e-06,-5.4426e-05,5.33128e-06,-2.88327e-06,1.91962e-05,5.2559e-06,0
-3.55881e-05,-7.18777e-05,2.30511e-06,-6.14724e-05,2.95947e-06,-7.53356e-07,1.70707e-05,8.94743e-06,0
-3.63569e-05,-5.82447e-05,-2.07492e-06,-5.34563e-05,1.61126e-07,-1.87147e-06,1.60677e-05,1.06911e-05,0
-3.52038e-05,-4.50612e-05,-6.29747e-06,-3.35614e-05,9.17822e-07,-4.426e-06,1.66203e-05,1.0472e-05,0
-3.22977e-05,-3.42623e-05,-8.34738e-06,-1.33133e-05,4.28667e-06,-6.55431e-06,1.77021e-05,8.95187e-06,0
-2.9849e-05,-2.36213e-05,-5.98456e-06,1.11894e-06,8.91769e-06,-8.19713e-06,1.84767e-05,7.1866e-06,0
-3.01481e-05,-1.35327e-05,-1.11571e-06,1.57647e-05,1.46205e-05,-8.25351e-06,1.73837e-05,5.75367e-06,0
-3.21296e-05,-5.36028e-06,2.82202e-06,3.1952e-05,1.9598e-05,-6.13023e-06,1.52955e-05,4.47703e-06,0
-3.327e-05,9.99468e-07,3.75782e-06,3.2475e-05,1.97614e-05,-2.82971e-06,1.36617e-05,3.77581e-06,0
-3.22331e-05,6.07208e-06,2.7429e-06,1.13614e-06,1.46638e-05,5.66624e-08,1.28054e-05,4.82742e-06,0
-3.04034e-05,9.13642e-06,1.32815e-06,-6.02945e-05,1.04329e-05,1.44757e-06,1.17853e-05,6.30255e-06,0
-3.03426e-05,1.09952e-05,1.70089e-06,-0.000135688,1.18476e-05,-5.23086e-07,8.22872e-06,6.51171e-06,0
-3.30573e-05,1.47299e-05,3.48898e-06,-0.000185725,1.59925e-05,-4.20381e-06,4.14129e-06,5.74384e-06,0
-3.5046e-05,2.065e-05,4.52109e-06,-0.000173072,1.91636e-05,-6.74813e-06,3.8409e-06,4.74782e-06,0
-3.52927e-05,2.4291e-05,4.51286e-06,-0.00010307,1.96885e-05,-8.2866e-06,6.05012e-06,4.9818e-06,0
-3.37332e-05,2.34879e-05,4.09754e-06,-2.16074e-05,1.90001e-05,-1.11528e-05,6.33944e-06,5.37567e-06,0
-3.23117e-05,2.15598e-05,4.11276e-06,4.32867e-05,2.01717e-05,-1.58913e-05,6.92883e-06,3.98045e-06,0
-3.29886e-05,2.13896e-05,5.4431e-06,8.99151e-05,2.21678e-05,-2.20301e-05,1.03402e-05,2.83269e-06,0
-3.56353e-05,2.24758e-05,8.5257e-06,0.000116884,2.21349e-05,-2.84693e-05,1.37693e-05,2.61977e-06,0
-3.74156e-05,2.14826e-05,1.01433e-05,0.000116226,2.0797e-05,-3.24762e-05,1.27186e-05,2.84937e-06,0
-3.26323e-05,1.97373e-05,8.41752e-06,9.06234e-05,2.05075e-05,-3.00133e-05,5.71754e-06,3.08219e-06,0
-2.69546e-05,1.91218e-05,5.99107e-06,7.33075e-05,1.91665e-05,-2.27785e-05,-2.80562e-06,4.32834e-06,0
-2.4123e-05,1.94842e-05,4.54102e-06,7.0502e-05,1.31458e-05,-2.03694e-05,-1.08448e-05,5.21624e-06,0
-2.32091e-05,2.36104e-05,4.79831e-06,6.30533e-05,7.56414e-06,-2.03597e-05,-2.01416e-05,4.60617e-06,0
-2.38124e-05,3.29076e-05,2.85421e-06,4.33833e-05,7.4934e-06,-1.21773e-05,-2.92731e-05,4.29407e-06,0
-2.5419e-05,4.19967e-05,-2.60485e-06,3.29285e-05,9.47303e-06,-6.72459e-07,-3.13591e-05,3.25074e-06,0
-2.81081e-05,4.69476e-05,-6.54877e-06,4.19481e-05,1.09398e-05,1.22661e-06,-2.08549e-05,1.5404e-06,0
-2.92543e-05,4.55966e-05,-7.89478e-06,6.05125e-05,1.42731e-05,-6.42044e-06,-2.55834e-06,8.06504e-07,0
-2.90918e-05,3.61818e-05,-7.5281e-06,6.88251e-05,2.08999e-05,-1.32166e-05,1.66248e-05,2.02229e-06,0
-2.89043e-05,2.01506e-05,-6.59052e-06,4.60278e-05,2.66471e-05,-1.35785e-05,3.32798e-05,4.15746e-06,0
-3.05159e-05,3.82421e-06,-8.00387e-06,1.52318e-07,2.73541e-05,-1.04825e-05,4.51201e-05,6.8483e-06,0
-3.47401e-05,-4.86409e-06,-1.27407e-05,-4.12521e-05,2.40638e-05,-9.58788e-06,5.19015e-05,9.42612e-06,0
-4.05986e-05,-5.39018e-06,-1.83437e-05,-5.6883e-05,2.0859e-05,-1.33204e-05,5.63553e-05,1.05215e-05,0
-4.47724e-05,-1.30704e-06,-2.27841e-05,-4.72934e-05,1.96385e-05,-1.70837e-05,5.95302e-05,1.07168e-05,0
-4.4014e-05,3.94655e-06,-2.4322e-05,-1.61316e-05,1.90007e-05,-1.59819e-05,5.86182e-05,1.17552e-05,0
-3.96316e-05,9.14522e-06,-2.14909e-05,2.09678e-05,1.68963e-05,-1.18907e-05,5.42498e-05,1.2788e-05,0
-3.51129e-05,1.32585e-05,-1.59425e-05,4.62738e-05,1.47877e-05,-9.31182e-06,5.15955e-05,1.24849e-05,0
-3.29359e-05,1.58356e-05,-1.31385e-05,5.2943e-05,1.38586e-05,-9.34897e-06,5.12306e-05,1.13194e-05,0
-3.27402e-05,1.71929e-05,-1.36397e-05,3.28537e-05,1.31948e-05,-1.00263e-05,4.85553e-05,9.08428e-06,0
-3.30412e-05,1.72667e-05,-1.22111e-05,-1.47613e-05,1.25814e-05,-9.1233e-06,4.16528e-05,6.55271e-06,0
-3.2877e-05,1.54565e-05,-4.84208e-06,-5.78888e-05,1.19742e-05,-6.87859e-06,3.29635e-05,5.52179e-06,0
-3.26755e-05,1.47854e-05,6.72585e-06,-7.20057e-05,1.06967e-05,-5.12289e-06,2.71653e-05,4.94008e-06,0
-3.54445e-05,1.86295e-05,2.0269e-05,-6.38693e-05,9.28531e-06,-6.15187e-06,2.54151e-05,2.87318e-06,0
-4.04297e-05,2.50332e-05,3.31834e-05,-4.59863e-05,8.77586e-06,-1.17801e-05,2.61118e-05,-3.59483e-07,0
-4.18712e-05,2.98943e-05,3.83899e-05,-1.38343e-05,6.98117e-06,-1.67951e-05,2.57515e-05,-3.29828e-06,0
-3.99216e-05,3.28747e-05,2.99736e-05,2.52648e-05,6.78185e-06,-1.72209e-05,2.45584e-05,-3.8937e-06,0
-3.52276e-05,3.40944e-05,6.87977e-06,3.98604e-05,1.21298e-05,-1.58227e-05,2.61387e-05,-1.23193e-06,0
-2.80935e-05,3.53794e-05,-2.2063e-05,2.32481e-05,1.92007e-05,-1.56724e-05,2.66377e-05,2.18508e-06,0
-2.12157e-05,4.59359e-05,-4.70906e-05,3.52439e-06,2.15514e-05,-1.76451e-05,2.2851e-05,3.28174e-06,0
-1.71083e-05,6.51677e-05,-6.27185e-05,-1.58075e-05,1.76749e-05,-1.96696e-05,1.19554e-05,2.03079e-06,0
-1.4761e-05,7.80567e-05,-6.42338e-05,-3.95231e-05,1.31961e-05,-1.71369e-05,-4.47224e-06,2.05917e-06,0
-1.19745e-05,7.58484e-05,-5.24374e-05,-5.8262e-05,1.04188e-05,-8.21291e-06,-1.9799e-05,3.88509e-06,0
-1.19808e-05,6.21475e-05,-3.58126e-05,-6.57627e-05,6.78097e-06,-3.41452e-06,-2.81153e-05,3.70746e-06,0
-1.62886e-05,4.04783e-05,-2.59267e-05,-5.01222e-05,2.41489e-06,-8.28576e-06,-2.65097e-05,8.90456e-07,0
-2.21407e-05,1.38484e-05,-2.60457e-05,-1.5854e-05,-7.04907e-07,-1.65312e-05,-1.77684e-05,-1.85573e-06,0
-2.48675e-05,-1.05143e-05,-3.19812e-05,1.90018e-05,-3.11927e-06,-2.13338e-05,-5.55573e-06,-3.06696e-06,0
-2.34625e-05,-2.3479e-05,-3.88392e-05,4.09756e-05,-3.33834e-06,-1.99996e-05,4.90964e-06,-3.44464e-06,0
-2.13989e-05,-2.10941e-05,-4.2758e-05,5.96129e-05,-4.92121e-07,-1.56076e-05,1.1015e-05,-3.37386e-06,0
-2.13702e-05,-7.03639e-06,-4.22218e-05,8.50169e-05,2.99463e-06,-1.12195e-05,1.30437e-05,-3.5807e-06,0
-2.37015e-05,1.30507e-05,-3.9162e-05,0.000111683,5.86641e-06,-8.62187e-06,1.17378e-05,-4.46823e-06,0
-2.76311e-05,3.24617e-05,-3.4261e-05,0.000116018,9.86709e-06,-7.27274e-06,7.60855e-06,-4.95308e-06,0
-3.28692e-05,4.25468e-05,-2.63974e-05,8.33703e-05,1.5231e-05,-7.62373e-06,4.67922e-06,-4.27659e-06,0
-3.67986e-05,4.09881e-05,-1.8204e-05,2.76822e-05,1.79965e-05,-8.89602e-06,7.23778e-06,-4.06038e-06,0
-3.60847e-05,3.28388e-05,-1.37834e-05,-1.94176e-05,1.60677e-05,-9.15884e-06,1.28127e-05,-4.94791e-06,0
-3.10628e-05,2.25169e-05,-1.25774e-05,-4.17326e-05,1.30453e-05,-9.54473e-06,1.47129e-05,-5.99612e-06,0
-2.56246e-05,9.57627e-06,-1.01873e-05,-5.03856e-05,1.43859e-05,-1.40222e-05,1.09026e-05,-5.71546e-06,0
-2.31101e-05,-7.64935e-06,-5.47754e-06,-6.66733e-05,1.69162e-05,-2.25183e-05,6.07109e-06,-5.62476e-06,0
-2.22776e-05,-2.67946e-05,1.54745e-07,-9.19773e-05,1.63913e-05,-2.69696e-05,3.87016e-06,-6.16412e-06,0
-2.10496e-05,-4.10131e-05,5.71987e-06,-0.000103479,1.53824e-05,-1.9497e-05,3.38115e-06,-5.22899e-06,0
-1.98829e-05,-4.64486e-05,8.09319e-06,-9.22087e-05,1.69734e-05,-5.72841e-06,3.18439e-06,-3.83898e-06,0
-1.94705e-05,-4.24546e-05,5.547e-06,-7.37941e-05,1.72693e-05,-4.16952e-07,7.36459e-07,-2.75712e-06,0
-2.02601e-05,-2.94456e-05,1.23255e-06,-6.14422e-05,1.32802e-05,-4.68863e-06,-9.63383e-06,-2.88832e-06,0
