ch1,ch2,ch3,ch4,ch5,ch6,ch7,ch8,class
3.95469e-06,6.16536e-05,1.26455e-05,-1.8352e-06,-5.05254e-05,-0.00013739,9.02875e-06,-1.35315e-06,2
1.1379e-06,5.44389e-05,1.24807e-05,-1.94322e-05,-3.31165e-06,-9.77132e-05,-1.45591e-05,-2.43776e-07,2
-5.35486e-06,4.02377e-05,8.03961e-06,-3.756e-05,2.61654e-05,-5.90514e-05,-3.35558e-05,-2.17995e-06,2
-1.64747e-05,2.39915e-05,3.01278e-06,-5.33738e-05,2.50949e-05,-3.22119e-05,-4.49133e-05,-2.19962e-06,2
-2.91367e-05,1.11236e-05,-1.99155e-06,-6.14047e-05,1.26591e-05,-1.1372e-05,-4.37817e-05,2.74247e-07,2
-3.81873e-05,2.46764e-06,-7.36972e-06,-5.76113e-05,1.16028e-05,1.19962e-05,-3.43387e-05,4.30156e-06,2
-4.18911e-05,-3.92706e-06,-1.23631e-05,-4.48309e-05,1.93722e-05,3.62304e-05,-1.58181e-05,8.30058e-06,2
-4.17932e-05,-9.33433e-06,-1.59436e-05,-2.99722e-05,2.13281e-05,5.09329e-05,5.10679e-06,9.43371e-06,2
-3.62258e-05,-1.3319e-05,-1.69817e-05,-1.85283e-05,1.35169e-05,5.60274e-05,1.95684e-05,8.35751e-06,2
-2.6421e-05,-1.64792e-05,-1.58247e-05,-2.03479e-05,7.4682e-07,5.69927e-05,2.86842e-05,6.94864e-06,2
-2.498e-05,-2.12929e-05,-1.4358e-05,-4.31793e-05,-1.49818e-05,5.31293e-05,3.81622e-05,6.37758e-06,2
-4.14492e-05,-2.81142e-05,-1.46533e-05,-7.16056e-05,-2.9809e-05,4.07786e-05,4.66336e-05,6.58244e-06,2
-6.92478e-05,-3.31393e-05,-1.52033e-05,-7.86954e-05,-4.00603e-05,2.30995e-05,5.26666e-05,7.05228e-06,2
-9.97968e-05,-3.33537e-05,-1.51818e-05,-5.75254e-05,-4.74489e-05,6.1694e-06,5.5186e-05,6.91502e-06,2
-0.000129851,-3.01907e-05,-1.67896e-05,-2.67194e-05,-5.23259e-05,-3.75669e-06,5.12245e-05,5.51547e-06,2
-0.000155343,-2.59355e-05,-2.43014e-05,-3.00317e-06,-4.88965e-05,-9.02678e-06,4.22052e-05,3.85425e-06,2
-0.000169814,-1.68035e-05,-3.47056e-05,6.20919e-06,-3.89253e-05,-1.28246e-05,3.63246e-05,3.71318e-06,2
-0.000163953,3.15441e-06,-3.4739e-05,1.43841e-06,-3.06484e-05,-1.90639e-05,3.59839e-05,3.66541e-06,2
-0.000135001,2.67797e-05,-2.28499e-05,-7.39223e-06,-2.61388e-05,-3.26051e-05,3.66543e-05,2.59229e-06,2
-9.01156e-05,4.01632e-05,-1.18825e-05,-1.485e-05,-2.07611e-05,-4.16622e-05,3.45151e-05,2.54106e-06,2
-1.76163e-05,4.39642e-05,-5.82824e-06,-2.23104e-05,-1.90394e-05,-3.00183e-05,2.3903e-05,3.83625e-06,2
9.64738e-05,4.42909e-05,-1.71737e-06,-3.31227e-05,-2.25726e-05,7.16211e-06,1.05965e-06,4.84736e-06,2
0.000189846,3.79734e-05,-1.30851e-06,-4.01169e-05,4.89566e-06,6.19278e-05,-1.6181e-05,6.09672e-06,2
0.000208995,2.64797e-05,-3.97894e-06,-2.38339e-05,7.92136e-05,0.000124793,-8.21101e-06,6.27137e-06,2
0.000156117,1.64923e-05,-6.55412e-06,1.50103e-05,0.00013751,0.00018696,1.22935e-05,5.42127e-06,2
6.90731e-05,1.00517e-05,-9.17164e-06,5.45295e-05,0.000122317,0.000220221,2.0412e-05,3.63613e-06,2
1.72812e-05,6.76168e-06,-1.01673e-05,7.52168e-05,6.35176e-05,0.000199025,1.06106e-05,1.6121e-06,2
2.50494e-06,5.51363e-06,-9.44836e-06,6.90078e-05,2.99261e-05,0.000121705,-3.15449e-06,9.5612e-07,2
-5.98142e-07,7.03624e-06,-8.72092e-06,3.96004e-05,3.74332e-05,8.20955e-06,-1.36436e-05,8.12074e-07,2
-1.25803e-05,8.94682e-06,-1.02795e-05,5.41154e-06,4.67198e-05,-0.00010118,-1.98179e-05,5.78451e-07,2
-3.0264e-05,1.01096e-05,-1.19335e-05,-1.55238e-05,3.68362e-05,-0.000177009,-1.36501e-05,4.65912e-07,2
-4.19466e-05,1.11435e-05,-8.08992e-06,-1.69851e-05,1.52281e-05,-0.000213794,2.4237e-06,1.07253e-06,2
-4.28137e-05,7.99154e-06,-9.80601e-07,-8.70572e-06,-1.21255e-05,-0.000206083,1.30457e-05,1.71786e-06,2
-3.52923e-05,-2.2414e-06,3.96116e-06,-3.04379e-06,-4.56913e-05,-0.000151799,1.48842e-05,2.90028e-06,2
-3.05552e-05,-1.56855e-05,5.73476e-06,1.99867e-06,-7.8647e-05,-7.99959e-05,1.06486e-05,4.23317e-06,2
-2.85797e-05,-2.66118e-05,7.87567e-06,7.14927e-06,-9.96582e-05,-3.14132e-05,3.15969e-06,5.30282e-06,2
-2.82362e-05,-3.05242e-05,1.04175e-05,7.68421e-06,-0.000117785,-1.56389e-05,5.72574e-07,5.50764e-06,2
-2.65781e-05,-2.77883e-05,1.01484e-05,4.62161e-06,-0.000157904,-1.16514e-05,1.1045e-05,5.5673e-06,2
-2.88897e-05,-2.40327e-05,6.10795e-06,8.66847e-06,-0.000224118,2.05367e-06,3.24852e-05,5.98706e-06,2
-3.32377e-05,-1.75546e-05,2.90634e-06,1.98939e-05,-0.000276859,2.8952e-05,5.81042e-05,6.11225e-06,2
-4.02938e-05,-4.17745e-06,2.70011e-06,2.83368e-05,-0.000266495,6.02875e-05,7.96141e-05,7.21394e-06,2
-4.82505e-05,1.01839e-05,2.5829e-06,2.88417e-05,-0.000169437,8.63712e-05,8.45765e-05,8.8411e-06,2
-5.91059e-05,1.82476e-05,-9.02686e-07,2.40425e-05,7.98507e-06,9.09158e-05,7.17134e-05,8.91669e-06,2
-7.16679e-05,2.35978e-05,-1.08967e-05,1.22186e-05,0.000206868,6.43285e-05,5.3436e-05,8.7757e-06,2
-7.97942e-05,3.21811e-05,-2.25765e-05,-2.00001e-06,0.000312263,3.69817e-05,4.05663e-05,9.56182e-06,2
-7.38264e-05,4.59718e-05,-2.45061e-05,-8.10809e-06,0.00027939,3.74049e-05,3.60055e-05,1.18946e-05,2
-6.67583e-05,5.37837e-05,-2.30088e-05,-1.07034e-05,0.000204215,5.41888e-05,3.60225e-05,1.26327e-05,2
-6.92351e-05,4.62328e-05,-2.80434e-05,-1.1971e-05,0.000177193,6.49976e-05,3.62817e-05,9.27772e-06,2
-6.68128e-05,3.46484e-05,-3.47058e-05,-1.39047e-05,0.00018097,5.49739e-05,3.06385e-05,5.71578e-06,2
-5.89856e-05,2.62911e-05,-3.49304e-05,-2.09388e-05,0.00015038,2.88884e-05,5.32434e-06,3.77936e-06,2
-5.47808e-05,1.76333e-05,-2.44644e-05,-3.27041e-05,8.90208e-05,-4.5891e-07,-4.1411e-05,2.54074e-06,2
-5.26862e-05,9.43364e-06,-1.39903e-05,-4.50959e-05,4.08678e-05,-2.96636e-05,-7.74186e-05,1.52447e-06,2
-4.81099e-05,4.73307e-06,-9.85419e-06,-4.27975e-05,2.16371e-06,-6.66902e-05,-7.78451e-05,2.1466e-06,2
-4.48244e-05,2.41361e-06,-1.00553e-05,-1.28625e-05,-3.84134e-05,-0.000103123,-5.63613e-05,3.29016e-06,2
-4.26657e-05,1.97029e-06,-1.13898e-05,3.63427e-05,-6.18252e-05,-0.000113491,-3.02133e-05,4.0802e-06,2
-3.78646e-05,5.51683e-06,-1.19164e-05,6.20149e-05,-4.04537e-05,-8.78816e-05,-9.15716e-06,5.40387e-06,2
-2.84895e-05,1.30051e-05,-1.23526e-05,3.61459e-05,2.1756e-05,-4.06706e-05,1.0415e-05,6.71526e-06,2
-1.9414e-05,2.0783e-05,-1.03519e-05,-1.69998e-05,9.38571e-05,-4.42201e-06,3.69989e-05,6.10413e-06,2
-1.19836e-05,2.81276e-05,-5.30409e-06,-5.80578e-05,0.000136391,5.25634e-06,6.50414e-05,5.51427e-06,2
-7.57773e-06,3.41465e-05,-2.73645e-07,-7.07948e-05,0.000132163,-1.29224e-06,8.18355e-05,6.54236e-06,2
-8.16546e-06,3.29207e-05,9.17221e-07,-6.23552e-05,9.92642e-05,-1.5387e-05,8.58487e-05,9.21246e-06,2
-1.38481e-05,2.67625e-05,-1.30787e-06,-3.74186e-05,6.66609e-05,-3.69053e-05,8.21936e-05,1.18342e-05,2
-2.14871e-05,2.46876e-05,-6.39199e-06,-1.61633e-06,5.00123e-05,-5.65891e-05,6.84944e-05,1.2417e-05,2
-2.82606e-05,2.74166e-05,-1.32602e-05,2.98211e-05,3.84049e-05,-6.00437e-05,4.99275e-05,1.1936e-05,2
-3.12157e-05,2.86677e-05,-1.93114e-05,4.13225e-05,1.43598e-05,-4.76175e-05,3.2296e-05,1.13506e-05,2
-3.11129e-05,2.72936e-05,-1.92913e-05,3.89578e-05,-1.89486e-05,-3.77795e-05,9.47695e-06,1.14725e-05,2
-3.24668e-05,2.41694e-05,-1.23083e-05,3.11461e-05,-4.43933e-05,-4.03971e-05,-2.04857e-05,1.09973e-05,2
-4.02631e-05,1.67505e-05,-5.02015e-06,1.50012e-05,-6.21259e-05,-4.52155e-05,-4.71586e-05,9.97148e-06,2
-5.84149e-05,6.05109e-06,-2.84298e-06,-7.48962e-07,-7.90917e-05,-4.56703e-05,-6.72182e-05,8.89419e-06,2
-8.19576e-05,-7.49806e-07,-3.07196e-06,-6.64504e-07,-8.53218e-05,-4.61464e-05,-8.49784e-05,8.05212e-06,2
-9.38381e-05,2.51735e-07,-1.06679e-06,3.39635e-06,-6.71189e-05,-4.67044e-05,-9.68386e-05,6.19151e-06,2
-8.53398e-05,2.97465e-06,1.78408e-06,-1.41376e-05,-3.63474e-05,-3.54881e-05,-9.24394e-05,5.86332e-06,2
-7.10828e-05,-3.95923e-07,-5.96797e-07,-4.54164e-05,-1.3515e-05,-1.13208e-06,-7.0316e-05,7.93593e-06,2
-6.35341e-05,-7.00214e-06,-8.88877e-06,-5.96543e-05,1.11677e-05,4.58684e-05,-4.27888e-05,9.00805e-06,2
-6.159e-05,-6.51565e-06,-1.33954e-05,-5.35807e-05,6.17775e-05,7.80501e-05,-2.53292e-05,8.0646e-06,2
-6.05066e-05,-1.39456e-06,-1.30423e-05,-5.1155e-05,0.000102511,8.45156e-05,-4.53151e-05,5.26682e-06,2
-5.44091e-05,-2.27197e-06,-1.44119e-05,-6.17626e-05,8.34563e-05,7.67372e-05,-9.71073e-05,3.78615e-06,2
-4.0429e-05,-3.16536e-06,-1.64203e-05,-6.94154e-05,4.26287e-05,7.07773e-05,-0.000122011,1.39669e-06,2
-2.02542e-05,4.99704e-06,-1.23646e-05,-6.10406e-05,1.38441e-05,7.81031e-05,-9.24755e-05,-3.58274e-06,2
-1.26562e-07,1.4467e-05,-5.68488e-06,-4.42803e-05,-1.10475e-05,8.90271e-05,-3.17744e-05,-8.84703e-06,2
1.51535e-05,2.14146e-05,2.25032e-06,-1.82315e-05,-2.06998e-05,8.34779e-05,2.55069e-05,-1.38903e-05,2
2.15299e-05,2.82233e-05,1.56348e-05,1.52123e-05,-1.27576e-05,6.15179e-05,6.55044e-05,-1.69522e-05,2
1.29072e-05,3.40624e-05,2.8064e-05,2.72974e-05,-1.85723e-05,2.79152e-05,8.84083e-05,-1.70436e-05,2
-6.36892e-06,3.29695e-05,3.27637e-05,1.05077e-05,-6.76734e-05,-9.70156e-06,8.9663e-05,-1.69167e-05,2
-2.97294e-05,1.78743e-05,2.82292e-05,-1.72337e-05,-0.000149191,-3.95722e-05,7.58133e-05,-1.86636e-05,2
-4.84629e-05,-2.55264e-06,1.7638e-05,-4.15275e-05,-0.000218439,-6.22463e-05,5.90164e-05,-1.922e-05,2
-5.48418e-05,-1.14032e-05,6.60246e-06,-4.71109e-05,-0.00019989,-7.97299e-05,5.0109e-05,-1.77143e-05,2
-5.23124e-05,-6.32447e-06,-5.14497e-06,-3.86854e-05,-5.72654e-05,-8.24622e-05,5.7412e-05,-1.6768e-05,2
-5.12749e-05,4.12079e-06,-1.97782e-05,-4.10593e-05,0.000126823,-5.74162e-05,7.82196e-05,-1.68081e-05,2
-5.82976e-05,1.18115e-05,-3.63362e-05,-6.4279e-05,0.000223618,-1.03189e-05,9.25774e-05,-1.56409e-05,2
-6.96551e-05,1.17251e-05,-5.26254e-05,-7.67317e-05,0.000202315,2.74477e-05,8.28804e-05,-1.33588e-05,2
-7.3461e-05,5.62871e-06,-6.0566e-05,-4.24061e-05,0.000138696,3.39565e-05,5.48081e-05,-1.10696e-05,2
-6.00434e-05,-1.6733e-06,-5.22745e-05,2.03615e-05,0.000102284,2.17505e-05,2.76866e-05,-8.71835e-06,2
-3.37019e-05,-8.4836e-06,-3.084e-05,7.29501e-05,9.17397e-05,1.31362e-05,1.45896e-05,-6.81252e-06,2
-1.08499e-05,-1.38255e-05,-9.98748e-06,0.000119263,7.10589e-05,1.22682e-05,1.34307e-05,-5.2547e-06,2
-3.30438e-06,-1.34168e-05,-8.6041e-08,0.000157028,3.58693e-05,1.02978e-05,1.53323e-05,-4.06183e-06,2
-5.30798e-06,-8.09066e-06,4.28787e-07,0.000149676,6.87317e-06,8.13158e-06,1.78637e-05,-3.96981e-06,2
-8.68671e-06,-4.60815e-06,-2.41387e-06,0.000103674,-4.791e-06,1.64854e-05,2.26485e-05,-4.59241e-06,2
-1.52753e-05,-4.59086e-06,-5.61495e-06,6.23652e-05,-3.52791e-06,3.61245e-05,2.93001e-05,-4.34832e-06,2
-2.29108e-05,-7.08668e-06,-1.03369e-05,4.08807e-05,9.76448e-06,5.2717e-05,4.09065e-05,-3.60326e-06,2
-1.62727e-05,-1.31607e-05,-1.68509e-05,2.274e-05,3.34481e-05,5.01125e-05,5.63192e-05,-3.84981e-06,2
1.89816e-06,-1.55991e-05,-2.22601e-05,-2.13983e-06,5.36722e-05,2.49354e-05,6.43899e-05,-5.06294e-06,2
1.04563e-05,-5.30852e-06,-2.40728e-05,-2.23828e-05,4.89084e-05,-2.01374e-05,6.0525e-05,-5.99816e-06,2
8.12654e-06,1.62342e-05,-1.71078e-05,-2.10204e-05,2.09655e-05,-5.3118e-05,5.62302e-05,-6.47547e-06,2
5.93585e-06,4.00226e-05,1.82281e-06,-3.33178e-06,-9.93349e-07,-4.5097e-05,5.69487e-05,-6.07631e-06,2
4.96754e-06,5.24642e-05,1.96131e-05,8.43423e-06,-1.78618e-06,-3.80904e-05,6.97707e-05,-3.8212e-06,2
2.12827e-06,4.5951e-05,2.03165e-05,4.54621e-06,1.01381e-05,-7.09675e-05,9.05886e-05,-1.22736e-06,2
-2.06227e-06,3.47029e-05,9.38038e-06,-1.06775e-05,2.38065e-05,-0.000125886,9.98406e-05,-8.16237e-07,2
-7.73071e-06,3.26484e-05,4.74964e-06,-2.11872e-05,3.32925e-05,-0.000150288,8.90761e-05,-1.62822e-06,2
-1.65741e-05,3.67778e-05,8.61952e-06,-1.69043e-05,3.81064e-05,-0.000109205,5.08273e-05,5.89388e-07,2
-2.49539e-05,3.88693e-05,1.12662e-05,-4.19699e-06,4.48054e-05,-3.56556e-05,-4.55016e-06,4.92907e-06,2
-3.19935e-05,3.23357e-05,7.34636e-06,1.36483e-06,4.8064e-05,8.06454e-06,-5.82111e-05,6.93526e-06,2
-4.3802e-05,1.91578e-05,-6.90263e-07,-5.19147e-06,3.78926e-05,3.24935e-07,-9.75731e-05,6.18879e-06,2
-6.01531e-05,7.21165e-06,-7.47197e-06,-1.73517e-05,1.79181e-05,-3.29788e-05,-0.000113969,5.80084e-06,2
-7.77697e-05,1.77281e-06,-1.3434e-05,-2.92226e-05,1.05462e-06,-6.11401e-05,-0.000106709,7.65971e-06,2
-8.73925e-05,6.09066e-07,-1.6687e-05,-3.01164e-05,-3.23277e-06,-8.04506e-05,-8.72556e-05,9.14789e-06,2
-8.20796e-05,1.7408e-06,-1.282e-05,-1.41313e-05,2.18254e-06,-9.46364e-05,-6.78475e-05,8.92009e-06,2
-6.41978e-05,6.36341e-06,-3.34635e-06,8.35658e-06,5.63567e-06,-9.43902e-05,-4.90147e-05,7.20067e-06,2
-3.76068e-05,1.30188e-05,4.2293e-06,1.63325e-05,1.38175e-06,-7.02588e-05,-3.38546e-05,6.24164e-06,2
-6.39316e-06,1.7588e-05,6.32756e-06,5.43374e-06,-4.55756e-06,-2.92232e-05,-2.96795e-05,7.01433e-06,2
1.64595e-05,1.72223e-05,7.33788e-06,-8.89136e-06,-8.51185e-06,1.24299e-05,-3.39921e-05,7.92664e-06,2
1.48721e-05,1.30022e-05,1.00085e-05,-1.63767e-05,-2.23643e-05,4.91558e-05,-3.26408e-05,9.68661e-06,2
-3.75883e-06,1.00514e-05,1.1661e-05,-1.81618e-05,-6.39001e-05,8.07898e-05,-1.84351e-05,1.28747e-05,2
-1.92869e-05,1.01721e-05,8.90804e-06,-1.51536e-05,-0.00011776,0.000112431,2.83046e-06,1.48195e-05,2
-3.16618e-05,1.00865e-05,3.90454e-06,-1.22848e-05,-0.000139245,0.000150786,1.52218e-05,1.32618e-05,2
-5.34489e-05,8.15449e-06,3.35967e-06,-1.14947e-05,-0.000112646,0.000198214,1.34849e-05,8.84106e-06,2
-7.45182e-05,7.94647e-06,8.13575e-06,-9.80732e-06,-6.10551e-05,0.00024186,5.45257e-06,2.5283e-06,2
-6.73388e-05,1.1109e-05,1.07278e-05,-7.36256e-06,-6.69416e-06,0.000253417,-7.75804e-07,-3.52267e-06,2
-2.307e-05,1.77546e-05,8.07836e-06,-3.0803e-06,4.70946e-05,0.000217199,2.2176e-06,-8.15505e-06,2
2.68002e-05,2.19583e-05,1.25557e-06,1.48535e-06,8.66147e-05,0.000132316,1.18951e-05,-1.3258e-05,2
3.65178e-05,1.93171e-05,-4.48581e-06,3.71883e-08,8.85992e-05,2.45729e-05,1.24427e-05,-1.98707e-05,2
1.02529e-05,2.14239e-05,-1.82628e-06,-5.49325e-06,7.09614e-05,-8.51445e-05,-3.05926e-06,-2.49906e-05,2
-1.05124e-05,2.90549e-05,6.87346e-06,-9.07396e-06,6.10449e-05,-0.000208909,-2.49406e-05,-2.50318e-05,2
-1.78803e-05,2.96288e-05,1.28506e-05,-1.2485e-05,5.80512e-05,-0.000306275,-4.36222e-05,-1.99076e-05,2
-2.1001e-05,2.35368e-05,1.45679e-05,-1.44031e-05,5.19844e-05,-0.000330129,-5.42313e-05,-1.44546e-05,2
-1.81016e-05,2.85589e-05,1.54434e-05,-1.38253e-05,3.29108e-05,-0.000295188,-4.44763e-05,-1.24178e-05,2
-6.06106e-06,4.71561e-05,1.43857e-05,-1.2135e-05,3.93039e-06,-0.000245626,-6.81914e-06,-1.24032e-05,2
1.04228e-06,5.69274e-05,6.5503e-06,-1.48264e-05,-1.506e-05,-0.000209748,3.46997e-05,-1.03758e-05,2
-5.23962e-06,4.37471e-05,-1.10167e-05,-2.3431e-05,-3.82082e-06,-0.000180027,5.97604e-05,-6.18713e-06,2
-1.29079e-05,1.94487e-05,-2.78855e-05,-2.61171e-05,2.54e-05,-0.000141934,6.95563e-05,-3.19905e-06,2
-1.62782e-05,9.37394e-07,-3.34061e-05,-1.65871e-05,4.37745e-05,-9.71713e-05,6.98566e-05,-2.09796e-06,2
-1.73887e-05,-8.09011e-06,-3.14583e-05,-1.10747e-05,2.2052e-05,-5.81452e-05,6.80504e-05,-9.37576e-07,2
-1.88669e-05,-9.07514e-06,-2.76474e-05,-2.33343e-05,-6.33463e-05,-2.85186e-05,6.78479e-05,8.80221e-07,2
-2.10999e-05,-8.32523e-06,-2.21442e-05,-4.0829e-05,-0.000190313,-3.40168e-06,6.52113e-05,2.54741e-06,2
-2.95066e-05,-1.40572e-05,-1.76647e-05,-4.60854e-05,-0.000279414,2.23716e-05,6.29127e-05,2.75502e-06,2
-4.96371e-05,-2.84704e-05,-1.95547e-05,-4.22476e-05,-0.00025091,4.57842e-05,6.44288e-05,1.12463e-06,2
-7.90359e-05,-4.43316e-05,-2.67875e-05,-4.36867e-05,-8.87782e-05,6.0365e-05,5.75716e-05,1.50978e-06,2
-0.000100767,-4.76297e-05,-3.18537e-05,-5.15667e-05,0.000131887,5.73107e-05,3.65393e-05,4.15774e-06,2
-0.000102884,-2.8229e-05,-2.92132e-05,-5.4761e-05,0.000291279,4.53226e-05,1.80351e-05,5.93777e-06,2
-9.0715e-05,8.38774e-06,-2.32629e-05,-4.19594e-05,0.000326949,4.75115e-05,2.24796e-05,5.99327e-06,2
-7.50793e-05,4.62311e-05,-1.87095e-05,-1.38891e-05,0.000252664,7.18366e-05,4.8649e-05,4.19443e-06,2
-6.62688e-05,6.70658e-05,-1.46931e-05,1.65078e-05,0.000133342,9.41335e-05,7.61199e-05,1.72629e-06,2
-7.3716e-05,6.11295e-05,-1.34039e-05,4.02629e-05,4.65027e-05,8.54413e-05,8.5862e-05,9.21891e-07,2
-8.88183e-05,3.93007e-05,-1.61636e-05,5.60312e-05,3.00154e-05,5.19409e-05,6.84466e-05,2.01384e-06,2
-8.79786e-05,2.54892e-05,-1.90031e-05,5.86006e-05,6.45097e-05,2.47161e-05,2.54674e-05,4.62528e-06,2
-5.64011e-05,3.50221e-05,-1.90954e-05,4.63616e-05,0.000109616,1.09213e-05,-1.74363e-05,6.84997e-06,2
8.21412e-06,6.45099e-05,-1.55819e-05,3.17574e-05,0.000113915,-5.99127e-06,-3.37688e-05,6.09147e-06,2
8.07558e-05,8.82278e-05,-9.55553e-06,2.8684e-05,4.98786e-05,-2.36018e-05,-2.09218e-05,5.17149e-06,2
0.00012367,8.72648e-05,-3.22182e-06,3.06901e-05,-5.51956e-05,-3.09665e-05,-1.16248e-07,5.50659e-06,2
0.000115461,6.85743e-05,7.6828e-07,2.87669e-05,-0.000140669,-2.86838e-05,1.25039e-05,4.6907e-06,2
7.49172e-05,4.35808e-05,3.47433e-07,2.28013e-05,-0.00013687,-2.09825e-05,1.12514e-05,3.18339e-06,2
3.88382e-05,2.26592e-05,-3.12325e-06,1.10957e-05,-5.47832e-05,-2.03262e-05,-5.16907e-06,3.2532e-06,2
1.36244e-05,7.20522e-06,-7.48097e-06,-3.742e-06,4.9243e-05,-3.5002e-05,-1.70497e-05,3.40752e-06,2
7.06977e-07,-3.03978e-06,-8.61956e-06,-1.78708e-05,0.000123594,-5.83939e-05,-1.83305e-05,1.77367e-06,2
-4.32047e-06,-9.58792e-06,-5.11262e-06,-2.5266e-05,0.000136128,-7.88646e-05,-9.66461e-06,-4.94718e-07,2
-9.43476e-06,-1.55318e-05,2.43259e-07,-2.48533e-05,9.58006e-05,-8.54493e-05,1.58255e-05,-2.6803e-06,2
-1.60182e-05,-2.15955e-05,3.96526e-06,-2.02733e-05,3.15736e-05,-7.52791e-05,4.68959e-05,-4.74802e-06,2
-2.35288e-05,-2.11745e-05,7.1483e-06,-2.17262e-05,-2.31152e-05,-5.40838e-05,5.92597e-05,-6.3206e-06,2
-3.08761e-05,-7.51754e-06,1.33917e-05,-3.07811e-05,-5.9858e-05,-2.65823e-05,5.09282e-05,-6.24204e-06,2
-3.88571e-05,1.52141e-05,2.2778e-05,-3.2046e-05,-7.37032e-05,4.98014e-06,3.78201e-05,-4.65196e-06,2
-4.49202e-05,3.71723e-05,3.14631e-05,-1.33701e-05,-6.201e-05,3.0727e-05,2.68001e-05,-2.23073e-06,2
-4.41177e-05,4.73985e-05,3.45897e-05,1.37564e-05,-3.57869e-05,4.04345e-05,1.85032e-05,-4.00155e-07,2
-3.626e-05,3.74403e-05,2.72158e-05,1.84633e-05,-1.18325e-05,3.66887e-05,1.04724e-05,2.15073e-07,2
-3.00426e-05,7.07735e-06,5.96803e-06,-8.25447e-06,8.74627e-06,3.64051e-05,-2.61853e-07,3.89201e-07,2
-2.21575e-05,-2.59428e-05,-2.05691e-05,-4.11404e-05,3.96912e-05,4.35076e-05,-1.05322e-05,8.96987e-07,2
-7.75457e-06,-4.45349e-05,-3.92135e-05,-5.32616e-05,8.4836e-05,4.83734e-05,-1.47302e-05,2.4857e-06,2
6.14198e-07,-4.91435e-05,-4.9487e-05,-4.6785e-05,0.000124591,5.25487e-05,-1.54105e-05,4.19925e-06,2
-9.3964e-06,-4.94275e-05,-6.01551e-05,-3.76934e-05,0.000135312,6.47786e-05,-1.23407e-05,4.01743e-06,2
-2.55394e-05,-5.05511e-05,-6.79337e-05,-2.59558e-05,0.000114462,7.60791e-05,-2.75732e-06,2.60243e-06,2
-3.41586e-05,-4.71375e-05,-6.20058e-05,3.75395e-06,7.68706e-05,7.60891e-05,1.3697e-05,2.89496e-06,2
-3.62534e-05,-3.07636e-05,-4.19495e-05,3.82745e-05,3.24519e-05,7.42118e-05,3.93985e-05,5.89797e-06,2
-3.78814e-05,-2.69572e-06,-1.87746e-05,4.05462e-05,-1.63702e-05,7.18836e-05,7.08627e-05,7.81755e-06,2
-4.12652e-05,2.68459e-05,-4.65076e-07,1.13419e-05,-6.16958e-05,5.78333e-05,8.65326e-05,7.0533e-06,2
-5.23157e-05,4.86565e-05,1.52065e-05,-1.80373e-05,-9.82577e-05,2.9387e-05,6.8724e-05,5.53602e-06,2
-6.77324e-05,5.68784e-05,2.39818e-05,-3.16142e-05,-0.000117189,-2.03028e-06,3.19265e-05,4.81343e-06,2
-7.95799e-05,4.79447e-05,1.75248e-05,-3.69022e-05,-0.000106888,-1.91057e-05,-5.75482e-06,4.95323e-06,2
-8.86633e-05,3.28868e-05,2.2224e-06,-3.02446e-05,-7.5128e-05,-1.58577e-05,-3.76743e-05,5.50977e-06,2
-9.23785e-05,2.44852e-05,-1.19996e-05,-4.46683e-06,-4.00926e-05,-1.18953e-05,-5.23881e-05,6.884e-06,2
-8.97202e-05,2.55336e-05,-1.85707e-05,2.27448e-05,2.26114e-06,-2.28293e-05,-4.72238e-05,7.67344e-06,2
-7.95949e-05,2.93652e-05,-1.52023e-05,3.19742e-05,4.62002e-05,-4.08659e-05,-2.2683e-05,8.50013e-06,2
-6.56762e-05,2.7834e-05,-9.33723e-06,2.59349e-05,7.15223e-05,-6.33432e-05,9.23499e-06,7.59113e-06,2
-5.28318e-05,2.31695e-05,-6.10716e-06,4.02559e-05,6.73517e-05,-8.75537e-05,2.59365e-05,6.03367e-06,2
-4.43349e-05,1.93158e-05,-6.93106e-06,6.63776e-05,3.82464e-05,-9.7616e-05,2.85466e-05,4.88319e-06,2
-3.8853e-05,1.59443e-05,-1.029e-05,6.2572e-05,-2.14711e-07,-7.7417e-05,2.66259e-05,4.6014e-06,2
-3.6725e-05,1.20838e-05,-1.43113e-05,3.87939e-05,-4.36571e-05,-4.23652e-05,2.10084e-05,4.24289e-06,2
-3.83121e-05,8.18114e-06,-1.71674e-05,3.33151e-05,-7.70433e-05,-1.99775e-05,1.00705e-05,3.41722e-06,2
-4.22782e-05,5.29477e-06,-1.55192e-05,5.26154e-05,-7.03295e-05,-1.53903e-05,-3.95046e-06,2.88367e-06,2
-4.85175e-05,3.70426e-06,-9.19542e-06,6.40947e-05,-1.56807e-05,-1.87345e-05,-1.46239e-05,2.17848e-06,2
-5.83384e-05,4.35415e-07,-3.75708e-06,4.90482e-05,5.06936e-05,-1.88468e-05,-1.12585e-05,1.94235e-06,2
-7.39735e-05,-4.62667e-06,-3.26753e-06,1.62192e-05,8.78016e-05,-1.68144e-05,9.27077e-06,1.25219e-06,2
-9.59437e-05,-9.185e-06,-4.86736e-06,-1.27934e-05,8.89184e-05,-1.862e-05,3.39329e-05,-2.61397e-07,2
-0.000122543,-1.17786e-05,-6.12481e-06,-2.60066e-05,7.1135e-05,-2.46155e-05,4.67117e-05,-1.84786e-06,2
-0.000148961,-1.16661e-05,-6.82391e-06,-2.71595e-05,5.21611e-05,-2.374e-05,4.75936e-05,-2.52014e-07,2
-0.000169933,-6.07738e-06,-5.97388e-06,-2.76648e-05,4.01614e-05,-1.1946e-05,4.34702e-05,2.49892e-06,2
-0.000180471,1.72873e-06,-1.5745e-06,-2.84038e-05,3.04956e-05,4.23646e-06,3.21365e-05,3.37149e-06,2
-0.000175468,5.90362e-06,4.75799e-06,-2.3747e-05,8.42891e-06,1.85027e-05,1.19348e-05,1.95765e-06,2
-0.000144991,7.62954e-06,1.10827e-05,-1.11697e-05,-2.29178e-05,3.2141e-05,-1.00807e-05,1.4683e-07,2
-8.5779e-05,1.17126e-05,1.84382e-05,1.10896e-06,-4.64074e-05,4.17685e-05,-2.26108e-05,-1.57519e-06,2
-9.28109e-06,1.51863e-05,2.43303e-05,3.42373e-06,-4.79706e-05,4.18151e-05,-2.57324e-05,-2.95668e-06,2
7.66738e-05,1.32608e-05,2.62903e-05,3.45645e-06,-2.86818e-05,3.92451e-05,-2.5045e-05,-2.47439e-06,2
0.000160404,1.00347e-05,2.72205e-05,9.63269e-06,-4.31921e-06,3.997e-05,-1.85105e-05,-1.13858e-06,2
0.000209447,1.0312e-05,2.52354e-05,1.25346e-05,6.95101e-06,3.18256e-05,-4.09623e-06,-1.7154e-06,2
0.000211708,9.8842e-06,1.35236e-05,4.19648e-06,1.62723e-06,5.52082e-06,1.54131e-05,-1.81568e-06,2
0.000168868,4.47513e-06,-4.98778e-06,-1.40117e-05,-3.3103e-06,-1.13216e-05,2.66583e-05,-3.5216e-07,2
0.000103987,8.11848e-07,-1.78759e-05,-3.93749e-05,1.07488e-05,1.78599e-05,2.1285e-05,1.13337e-06,2
5.54061e-05,6.1267e-07,-2.33515e-05,-6.50613e-05,4.02749e-05,7.3627e-05,4.13354e-06,2.71968e-06,2
2.79936e-05,-6.34068e-07,-2.7456e-05,-7.63607e-05,6.10978e-05,0.000104694,-1.11499e-05,3.88424e-06,2
1.48494e-05,-5.91049e-06,-2.94301e-05,-6.1384e-05,5.94942e-05,8.59607e-05,-1.48289e-05,4.33993e-06,2
2.69696e-06,-1.20882e-05,-2.8328e-05,-3.0981e-05,4.40527e-05,1.74194e-05,-9.54484e-06,4.8098e-06,2
-1.12264e-05,-9.60722e-06,-2.66346e-05,-8.55396e-07,3.69133e-05,-6.93e-05,1.45889e-05,6.3768e-06,2
-2.97884e-05,5.84764e-07,-2.85287e-05,1.18645e-05,3.54901e-05,-0.000123005,5.53075e-05,7.0483e-06,2
-5.16608e-05,9.56552e-06,-3.37311e-05,1.40398e-06,2.16585e-05,-0.000110193,8.75112e-05,5.74686e-06,2
-7.05199e-05,1.44266e-05,-3.58465e-05,-2.00876e-05,-3.84094e-06,-4.48861e-05,9.54132e-05,5.10222e-06,2
-8.11271e-05,2.23295e-05,-2.96487e-05,-3.17366e-05,-1.99353e-05,3.1799e-05,7.95401e-05,5.90858e-06,2
-8.40707e-05,3.79154e-05,-1.55594e-05,-2.38916e-05,-6.1813e-06,9.4537e-05,4.89938e-05,4.59655e-06,2
-8.40597e-05,5.68405e-05,1.29628e-06,-5.05276e-06,3.10458e-05,0.000144629,2.08809e-05,2.05789e-06,2
-7.68527e-05,7.30581e-05,1.27184e-05,6.28943e-06,6.60954e-05,0.000183166,6.84908e-06,6.07099e-07,2
-6.6991e-05,7.98062e-05,1.37463e-05,-7.88509e-07,7.99202e-05,0.000193555,-3.66876e-06,8.71082e-07,2
-6.00384e-05,7.35352e-05,7.7483e-06,-1.70154e-05,6.87889e-05,0.000157204,-2.2123e-05,1.82542e-06,2
-5.68012e-05,5.62481e-05,-9.34781e-07,-2.46918e-05,3.63106e-05,7.53212e-05,-4.0685e-05,2.76082e-06,2
-5.13425e-05,3.66795e-05,-9.85258e-06,-8.32435e-06,7.28879e-07,-3.62055e-05,-4.60388e-05,3.86714e-06,2
-3.9495e-05,2.46708e-05,-1.60178e-05,2.99357e-05,-1.68296e-05,-0.000157967,-3.58437e-05,5.43182e-06,2
-1.69492e-05,2.10501e-05,-1.80564e-05,5.90963e-05,-1.64039e-05,-0.000252038,-2.12168e-05,5.72928e-06,2
5.95909e-06,1.87965e-05,-1.46595e-05,5.06286e-05,-2.81378e-05,-0.000258085,-1.01199e-05,5.34404e-06,2
1.37999e-05,1.80839e-05,-5.05588e-06,2.01504e-05,-7.90427e-05,-0.000171007,8.86879e-06,6.4747e-06,2
5.68639e-06,1.87502e-05,5.53902e-06,-5.31474e-06,-0.000145337,-9.13042e-05,3.86437e-05,7.38896e-06,2
-1.00858e-05,1.63077e-05,9.13961e-06,-2.03447e-05,-0.000177403,-8.72765e-05,6.27597e-05,5.60518e-06,2
-2.24009e-05,1.38544e-05,5.15131e-06,-3.58185e-05,-0.000133192,-0.000134779,6.55314e-05,2.4167e-06,2
-2.03404e-05,1.89825e-05,2.84571e-06,-4.90805e-05,-1.12913e-05,-0.000173579,4.68387e-05,-1.0331e-06,2
-1.01509e-05,2.68447e-05,3.59363e-06,-5.88532e-05,9.99583e-05,-0.000164502,2.03505e-05,-4.58694e-06,2
-8.05034e-06,2.72791e-05,-8.12707e-07,-7.57006e-05,0.000106554,-0.000126017,-4.52634e-06,-4.54656e-06,2
-1.82669e-05,2.01772e-05,-1.13251e-05,-9.35528e-05,4.14466e-05,-8.87985e-05,-2.58088e-05,-4.78363e-08,2
-3.31583e-05,1.02698e-05,-2.35147e-05,-9.62926e-05,-3.07866e-06,-7.60164e-05,-4.17854e-05,4.93168e-06,2
-4.44575e-05,9.13216e-07,-3.51991e-05,-7.2399e-05,-1.21987e-05,-8.13033e-05,-4.97353e-05,6.43178e-06,2
-5.08699e-05,-7.02386e-06,-4.69824e-05,-3.55967e-05,-1.68054e-05,-8.06819e-05,-5.0283e-05,6.31982e-06,2
-5.06132e-05,-1.0875e-05,-5.37666e-05,-4.48193e-06,-3.06925e-05,-6.88892e-05,-4.87188e-05,6.40606e-06,2
-4.59611e-05,-1.02856e-05,-4.81974e-05,1.92196e-05,-3.83693e-05,-5.9528e-05,-4.73595e-05,6.09925e-06,2
-3.96134e-05,-8.38578e-06,-3.11815e-05,3.50994e-05,-2.1159e-05,-5.76502e-05,-4.73718e-05,3.95359e-06,2
-3.0484e-05,-4.57883e-06,-8.30239e-06,4.35599e-05,2.40327e-05,-4.80974e-05,-4.74519e-05,9.08892e-07,2
-1.79492e-05,4.2312e-06,1.38977e-05,4.73737e-05,7.74211e-05,-1.57178e-05,-3.25873e-05,-1.54871e-06,2
-8.16349e-06,1.71041e-05,2.96237e-05,4.96896e-05,9.49944e-05,3.83308e-05,1.31848e-05,-4.64419e-06,2
-4.73607e-06,2.83449e-05,3.53511e-05,4.78185e-05,5.92345e-05,8.78587e-05,7.67168e-05,-7.57322e-06,2
-8.39923e-06,2.94355e-05,3.00261e-05,3.72601e-05,-1.90197e-06,0.000102213,0.000118113,-8.34128e-06,2
-1.61369e-05,2.20479e-05,1.91239e-05,2.25832e-05,-5.08893e-05,7.65798e-05,0.000115854,-7.44614e-06,2
-2.41935e-05,1.37282e-05,1.09671e-05,1.29293e-05,-7.25467e-05,3.95559e-05,8.5886e-05,-6.40988e-06,2
-3.25648e-05,6.87379e-06,6.03101e-06,9.87959e-06,-4.79859e-05,1.39042e-05,5.55351e-05,-5.67815e-06,2
-4.44936e-05,5.61595e-07,3.16191e-07,6.87312e-06,3.30048e-05,2.04619e-06,3.82813e-05,-5.34677e-06,2
-6.31427e-05,-4.03935e-06,-6.10638e-06,6.71855e-07,0.000121429,1.93982e-06,4.02739e-05,-5.60053e-06,2
-8.45615e-05,-4.47708e-06,-8.67077e-06,-8.61559e-06,0.000159684,7.97983e-06,5.98143e-05,-5.75265e-06,2
-9.74912e-05,1.17186e-06,-3.33246e-06,-1.95155e-05,0.000176265,1.10134e-05,7.55219e-05,-3.64785e-06,2
-8.4047e-05,1.05568e-05,8.62635e-06,-3.02023e-05,0.000203343,1.42664e-05,7.04314e-05,-1.46959e-06,2
-3.99331e-05,1.21116e-05,1.5362e-05,-4.14892e-05,0.000207273,2.53096e-05,4.94519e-05,-1.15495e-06,2
-2.22354e-06,3.9577e-06,9.07682e-06,-4.58971e-05,0.000165295,4.52507e-05,2.40489e-05,-3.57793e-06,2
-4.15189e-06,-2.20175e-06,3.88431e-07,-3.52112e-05,0.000106147,7.31034e-05,-7.92633e-07,-8.99533e-06,2
-3.68942e-05,-2.05863e-06,-3.89461e-06,-2.42873e-05,6.64258e-05,0.00010906,-1.70351e-05,-1.09902e-05,2
-6.86903e-05,-4.83688e-06,-7.99655e-06,-2.85012e-05,4.96443e-05,0.000143176,-1.29884e-05,-9.22829e-06,2
-8.0165e-05,-9.08327e-06,-1.23099e-05,-3.16973e-05,3.38638e-05,0.000154231,5.66447e-06,-7.59774e-06,2
-7.78935e-05,-4.14229e-06,-1.23897e-05,-4.55422e-06,7.29552e-06,0.000123706,2.75425e-05,-5.83613e-06,2
-6.55519e-05,1.08048e-05,-4.89328e-06,4.63617e-05,-9.22841e-06,6.11236e-05,4.54218e-05,-3.1505e-06,2
-4.72789e-05,3.30852e-05,7.69672e-06,7.65357e-05,-9.07356e-06,-3.22149e-07,5.10816e-05,-7.89219e-07,2
-2.97078e-05,4.79951e-05,1.4e-05,6.83147e-05,-3.58264e-06,-3.37626e-05,4.33769e-05,-2.05763e-06,2
-2.00097e-05,4.45621e-05,5.25286e-06,4.25426e-05,-1.24983e-05,-1.8716e-05,2.22989e-05,-3.99947e-06,2
-1.66609e-05,2.87585e-05,-1.26734e-05,1.35244e-05,-4.18419e-05,2.70329e-05,-6.87011e-06,-3.94413e-06,2
-9.99326e-06,1.0912e-05,-2.86711e-05,-1.3633e-05,-7.84907e-05,6.32122e-05,-2.87389e-05,-4.13035e-06,2
7.65008e-06,4.49962e-07,-3.74006e-05,-3.46306e-05,-0.000104289,6.03985e-05,-3.62678e-05,-6.56575e-06,2
2.46232e-05,-1.19106e-06,-3.67147e-05,-4.35793e-05,-0.00010405,2.31515e-05,-3.68936e-05,-8.19598e-06,2
2.3413e-05,2.45618e-06,-2.87574e-05,-3.88904e-05,-8.18067e-05,-1.62432e-05,-4.11376e-05,-6.03214e-06,2
3.51116e-06,6.52217e-06,-2.09838e-05,-2.77766e-05,-5.07885e-05,-4.13866e-05,-5.59743e-05,-1.8961e-06,2
-2.07661e-05,8.41713e-06,-1.81679e-05,-2.23286e-05,-1.41034e-05,-5.74352e-05,-8.1088e-05,2.17764e-06,2
-3.47971e-05,5.40767e-06,-2.14656e-05,-2.80653e-05,3.17295e-05,-7.57021e-05,-0.000102082,6.26111e-06,2
-3.4295e-05,2.19658e-06,-2.41882e-05,-3.34823e-05,7.87962e-05,-0.000101912,-9.6999e-05,1.05754e-05,2
-2.1824e-05,7.52278e-06,-1.73121e-05,-2.97124e-05,0.000116256,-0.000127749,-5.81941e-05,1.35009e-05,2
-1.03145e-05,2.1213e-05,-5.0363e-06,-2.26086e-05,0.000136095,-0.000137919,7.46917e-08,1.5496e-05,2
-7.42107e-06,3.68743e-05,4.24305e-06,-1.48547e-05,0.000137343,-0.000131163,5.88912e-05,1.54978e-05,2
-1.15777e-05,4.93365e-05,1.19882e-05,2.64875e-06,0.00011705,-0.000111591,0.000106047,1.05456e-05,2
-1.91062e-05,5.34104e-05,1.75788e-05,2.93586e-05,7.20931e-05,-8.10136e-05,0.0001309,3.14807e-06,2
-3.08516e-05,4.39565e-05,1.77579e-05,5.59425e-05,2.02028e-05,-4.61332e-05,0.000124451,-1.56039e-06,2
-4.33306e-05,2.31107e-05,1.10437e-05,7.50804e-05,-5.62629e-06,-1.73097e-05,8.83764e-05,-3.88303e-06,2
-5.14064e-05,1.86056e-06,1.86589e-06,7.31152e-05,-1.99248e-05,-5.58333e-06,3.87072e-05,-6.98348e-06,2
-5.53161e-05,-1.00673e-05,1.13512e-06,5.91005e-05,-6.47164e-05,-1.33984e-05,-7.3011e-06,-1.22706e-05,2
-5.72331e-05,-1.27776e-05,8.80467e-06,6.09433e-05,-0.00011485,-2.53999e-05,-3.85084e-05,-1.58328e-05,2
-6.43603e-05,-1.38043e-05,1.48812e-05,6.17186e-05,-0.000131077,-2.71121e-05,-5.20314e-05,-1.53494e-05,2
-8.06554e-05,-1.96349e-05,1.02628e-05,3.36863e-05,-0.000106335,-1.74701e-05,-4.53179e-05,-1.26799e-05,2
-9.50719e-05,-2.49005e-05,-2.87344e-06,-2.07329e-06,-4.50388e-05,-6.17904e-06,-2.57054e-05,-8.97043e-06,2
-9.51591e-05,-2.24899e-05,-1.77949e-05,-2.19417e-05,2.62315e-05,9.83984e-07,-8.08694e-06,-6.71131e-06,2
-7.37327e-05,-1.38061e-05,-2.82617e-05,-2.89782e-05,8.67389e-05,1.74611e-06,1.18377e-06,-5.65616e-06,2
-3.67764e-05,-7.56542e-06,-3.25425e-05,-2.93019e-05,0.000117278,-9.29978e-07,-3.9608e-06,-4.82509e-06,2
4.17712e-07,-8.79488e-06,-3.2451e-05,-2.93215e-05,0.000112676,1.92347e-06,-1.26917e-05,-4.94889e-06,2
3.36708e-05,-1.13514e-05,-2.82678e-05,-2.84755e-05,7.43251e-05,7.05983e-06,-1.53686e-05,-2.793e-06,2
5.35713e-05,-9.03331e-06,-2.3016e-05,-2.48642e-05,7.46339e-06,9.63541e-06,-1.43946e-05,5.95949e-07,2
4.44604e-05,-4.17871e-06,-1.85699e-05,-1.91243e-05,-5.6117e-05,1.76691e-05,-8.99838e-06,1.85721e-06,2
1.86863e-05,1.79175e-06,-1.43416e-05,-1.44199e-05,-7.63557e-05,3.02308e-05,-2.53108e-06,2.10771e-06,2
-1.60869e-06,1.03017e-05,-6.22873e-06,-1.32056e-05,-4.85285e-05,3.20418e-05,-4.65927e-07,2.26742e-06,2
-8.79473e-06,2.38987e-05,8.46659e-06,-1.53645e-05,-1.40337e-05,2.02814e-05,2.52356e-06,1.96475e-06,2
-9.08628e-06,3.98283e-05,2.59328e-05,-1.8544e-05,6.62475e-06,-3.21648e-07,1.71226e-05,1.80115e-06,2
-1.22896e-05,5.04142e-05,3.65555e-05,-2.04614e-05,2.5287e-05,-2.80081e-05,4.39548e-05,2.56057e-06,2
-1.72988e-05,5.27282e-05,3.50872e-05,-2.39086e-05,4.30933e-05,-6.05757e-05,7.46234e-05,2.8752e-06,2
-1.85136e-05,5.01864e-05,2.46716e-05,-2.8962e-05,3.66301e-05,-9.08971e-05,9.46714e-05,9.4259e-07,2
-1.52699e-05,4.5344e-05,1.10226e-05,-3.4806e-05,8.75904e-06,-0.000102049,9.32762e-05,-2.2882e-06,2
-1.64288e-05,3.4455e-05,-2.55662e-06,-4.00102e-05,-5.70243e-06,-7.5893e-05,7.38706e-05,-3.21388e-06,2
-2.52518e-05,1.83186e-05,-1.39163e-05,-4.16903e-05,9.69594e-06,-2.80987e-05,5.18062e-05,-1.47271e-06,2
-3.77192e-05,4.49657e-06,-1.91369e-05,-2.78669e-05,2.8775e-05,3.00709e-06,3.73411e-05,6.77592e-07,2
-4.65884e-05,-2.92756e-06,-1.6712e-05,3.05561e-06,2.98813e-05,8.26723e-06,3.16252e-05,5.77682e-07,2
-4.74704e-05,-7.79068e-06,-1.12489e-05,2.64614e-05,2.01753e-05,3.5689e-06,2.90235e-05,-4.42382e-07,2
-3.93353e-05,-8.96587e-06,-8.58952e-06,2.4116e-05,1.39838e-05,6.63703e-06,2.56772e-05,-4.47683e-07,2
-2.81712e-05,-1.30646e-06,-7.58545e-06,7.7525e-06,1.44182e-05,2.54331e-05,2.58543e-05,-7.59287e-07,2
-2.26565e-05,1.19058e-05,-6.4321e-06,-9.92649e-06,1.28571e-05,4.85211e-05,3.01519e-05,-1.18251e-06,2
-2.65091e-05,1.92582e-05,-8.11244e-06,-2.58565e-05,4.0576e-06,6.34236e-05,3.05787e-05,-7.2471e-07,2
-3.65299e-05,1.63371e-05,-1.49362e-05,-3.85368e-05,-1.02044e-05,6.52711e-05,2.14193e-05,5.81113e-08,2
-4.34861e-05,8.1811e-06,-2.17556e-05,-3.79942e-05,-1.75629e-05,5.85672e-05,6.17648e-06,-2.73978e-07,2
-4.31113e-05,-1.31105e-06,-2.76201e-05,-2.74325e-05,-1.53538e-05,5.09587e-05,-7.79211e-06,-1.03709e-06,2
-4.26046e-05,-1.09619e-05,-3.90276e-05,-2.27129e-05,-1.55627e-05,3.87364e-05,-1.4243e-05,1.38675e-07,2
-4.20465e-05,-1.94046e-05,-5.11797e-05,-2.49996e-05,-2.19626e-05,2.04481e-05,-1.21533e-05,2.26896e-06,2
-4.09469e-05,-2.28773e-05,-5.49687e-05,-2.82883e-05,-2.35395e-05,-3.81738e-06,-8.05301e-06,2.52589e-06,2
-4.72866e-05,-2.04007e-05,-4.74207e-05,-2.57772e-05,-1.43918e-05,-3.41369e-05,-1.11485e-05,7.63963e-07,2
-5.95501e-05,-1.38761e-05,-2.91348e-05,-1.95115e-05,6.21221e-06,-6.17124e-05,-2.44241e-05,9.29401e-07,2
-6.79812e-05,-2.13088e-06,-3.88159e-06,-7.40228e-06,2.35471e-05,-7.34672e-05,-4.10222e-05,3.95057e-06,2
-6.51551e-05,1.62836e-05,1.59538e-05,7.489e-06,1.87608e-05,-6.53146e-05,-3.9124e-05,7.53989e-06,2
-5.34899e-05,3.49788e-05,1.90494e-05,1.67273e-05,3.20315e-06,-5.30419e-05,-8.04675e-06,1.08572e-05,2
-3.91165e-05,4.32125e-05,9.5128e-06,1.13077e-05,-2.75107e-06,-5.39358e-05,2.51734e-05,1.34927e-05,2
-2.41687e-05,4.06823e-05,-6.66479e-08,-4.55927e-06,5.97104e-06,-5.68859e-05,3.65071e-05,1.45488e-05,2
-5.80549e-06,3.74728e-05,-1.12511e-06,-1.63976e-05,1.71829e-05,-4.25122e-05,3.26919e-05,1.36318e-05,2
8.92432e-06,3.84447e-05,3.02478e-06,-2.02821e-05,1.40246e-05,-1.49807e-05,2.76213e-05,1.25699e-05,2
9.95578e-06,3.94764e-05,6.93353e-06,-1.69517e-05,-1.38716e-07,1.38589e-05,3.10948e-05,1.21984e-05,2
-1.66039e-06,3.55751e-05,9.15067e-06,-5.36603e-06,-8.51645e-06,3.52229e-05,4.27458e-05,1.08597e-05,2
-1.35496e-05,2.56074e-05,8.80152e-06,7.68646e-06,-4.53293e-06,4.24591e-05,5.0234e-05,6.85537e-06,2
-1.55894e-05,1.17095e-05,4.83937e-06,7.42874e-06,6.89849e-06,3.68554e-05,4.65798e-05,2.25119e-06,2
-9.91972e-06,-2.17405e-06,4.64453e-07,-3.91267e-08,2.08292e-05,2.70578e-05,3.52897e-05,5.84796e-07,2
-7.29487e-06,-1.22618e-05,3.83907e-07,-5.45745e-06,2.85301e-05,1.97197e-05,2.17846e-05,1.42914e-06,2
-1.55542e-05,-1.6223e-05,2.70464e-06,-1.70957e-05,1.87334e-05,1.21622e-05,1.22765e-05,2.35239e-06,2
-3.13544e-05,-1.53099e-05,8.09316e-07,-3.44183e-05,-3.04488e-06,3.53576e-06,1.18021e-05,3.06468e-06,2
-4.95587e-05,-1.26345e-05,-6.81652e-06,-4.17857e-05,-1.81685e-05,7.11319e-06,2.5059e-05,3.15865e-06,2
-7.69043e-05,-1.08168e-05,-1.58704e-05,-1.67391e-05,-1.77811e-05,2.96806e-05,5.18908e-05,3.32974e-06,2
-0.000118644,-9.2362e-06,-2.27949e-05,5.04913e-05,-4.25043e-06,5.08115e-05,8.03494e-05,4.50524e-06,2
-0.00016833,-2.38763e-06,-2.50977e-05,0.000109408,2.89003e-05,5.09474e-05,9.98488e-05,7.22769e-06,2
-0.000217162,7.45268e-06,-2.1801e-05,0.000108085,7.18367e-05,3.93521e-05,0.00010628,8.09639e-06,2
-0.000241737,4.77455e-06,-1.8911e-05,6.60137e-05,6.86431e-05,5.26874e-05,9.55322e-05,7.19206e-06,2
-0.000228409,-8.06106e-06,-1.80748e-05,2.19432e-05,1.2305e-05,9.1156e-05,7.164e-05,4.85933e-06,2
-0.000179615,-1.45105e-05,-1.61537e-05,-3.92874e-06,-5.49422e-05,0.000115632,3.66764e-05,6.81172e-07,2
-0.000105278,-1.11173e-05,-1.45541e-05,-6.15086e-06,-0.000119923,0.000109376,-7.09983e-06,-2.4407e-06,2
-2.11418e-05,-1.48914e-06,-1.35169e-05,1.4382e-06,-0.000179031,8.28044e-05,-4.85353e-05,-4.59623e-06,2
5.87781e-05,5.37394e-06,-1.42349e-05,3.20579e-06,-0.000223713,5.01047e-05,-7.91581e-05,-5.24589e-06,2
0.00010534,4.57464e-06,-1.60496e-05,1.61418e-06,-0.000195316,1.05377e-05,-9.20313e-05,-5.61457e-06,2
0.000111087,2.97075e-06,-1.83306e-05,4.27609e-06,-5.45551e-05,-6.75316e-06,-8.94047e-05,-6.06945e-06,2
9.96667e-05,1.29319e-05,-1.78664e-05,3.22612e-06,0.000123315,1.74228e-05,-7.70969e-05,-6.61851e-06,2
8.60982e-05,2.92457e-05,-1.50559e-05,-5.11922e-06,0.000229916,3.59178e-05,-6.538e-05,-5.98889e-06,2
6.65028e-05,3.35758e-05,-1.35104e-05,-1.16527e-05,0.000238732,1.01482e-06,-6.05507e-05,-6.09641e-06,2
4.19392e-05,2.32866e-05,-1.31965e-05,-9.25221e-06,0.000194145,-7.58559e-05,-6.0094e-05,-6.75154e-06,2
2.00073e-05,1.46932e-05,-7.33537e-06,-4.46933e-07,0.000127115,-0.000143371,-6.24053e-05,-6.52956e-06,2
9.55583e-06,2.35668e-05,6.96354e-06,4.3477e-06,4.97053e-05,-0.000171137,-6.45664e-05,-6.88849e-06,2
1.7619e-05,4.86911e-05,2.26088e-05,2.96107e-06,-1.31934e-05,-0.0001701,-5.72603e-05,-7.8385e-06,2
3.72536e-05,7.72362e-05,3.26073e-05,8.87727e-07,-2.67434e-05,-0.000168631,-3.32806e-05,-7.92817e-06,2
5.5245e-05,9.35955e-05,3.1492e-05,-9.2291e-07,1.53821e-05,-0.000179472,-3.50049e-07,-5.90175e-06,2
5.72487e-05,9.12869e-05,2.11053e-05,-5.20989e-06,8.25191e-05,-0.000190191,2.91748e-05,-4.02042e-06,2
3.63134e-05,7.39376e-05,7.69065e-06,-7.42319e-06,0.000132238,-0.000169635,4.79694e-05,-3.1803e-06,2
-1.13664e-06,5.07898e-05,-2.04179e-06,-6.8681e-06,0.000138904,-0.000102749,4.92956e-05,-2.84442e-06,2
-3.89476e-05,2.9842e-05,-4.89515e-06,-8.10775e-06,0.000104227,-2.00761e-05,2.83726e-05,-1.12098e-06,2
-6.08825e-05,1.5032e-05,-2.94419e-06,-8.27903e-06,5.74914e-05,2.61218e-05,5.462e-07,1.7045e-06,2
-6.08307e-05,9.88247e-06,-2.27541e-06,-3.2233e-06,3.80745e-05,1.4753e-05,-1.41844e-05,4.39993e-06,2
-5.39958e-05,1.36289e-05,-8.56248e-06,-2.96514e-07,5.12936e-05,-2.4256e-05,-7.47018e-06,7.13362e-06,2
-4.95485e-05,1.68749e-05,-1.93527e-05,-1.01754e-05,5.83769e-05,-4.65464e-05,1.51096e-05,9.37206e-06,2
-4.23313e-05,1.55234e-05,-2.42142e-05,-3.3072e-05,1.94885e-05,-3.5332e-05,3.82291e-05,1.04682e-05,2
-2.95113e-05,2.0544e-05,-1.90716e-05,-5.31003e-05,-5.31459e-05,1.04114e-05,5.81844e-05,1.257e-05,2
-1.86562e-05,3.28749e-05,-7.33935e-06,-5.55432e-05,-9.47316e-05,7.30945e-05,7.47231e-05,1.37387e-05,2
-1.61765e-05,3.44502e-05,3.06241e-06,-4.54164e-05,-7.9216e-05,0.000125891,7.90354e-05,1.21923e-05,2
-1.3771e-05,2.20583e-05,4.96854e-06,-3.55297e-05,-2.81852e-05,0.000151819,6.36317e-05,1.03594e-05,2
-6.48225e-06,1.2084e-05,-2.90486e-06,-2.85606e-05,2.80464e-05,0.000149275,3.12934e-05,8.71154e-06,2
-9.68392e-06,1.37774e-05,-1.17055e-05,-1.82614e-05,4.10334e-05,0.000129131,4.08326e-06,9.24507e-06,2
-2.80346e-05,1.84507e-05,-1.49433e-05,-3.427e-06,-1.67177e-05,7.57575e-05,-8.0553e-07,1.00966e-05,2
-4.74084e-05,1.768e-05,-1.44927e-05,6.29536e-06,-0.000114018,-1.5995e-05,1.17923e-05,8.35912e-06,2
-5.89292e-05,1.49617e-05,-1.22375e-05,4.73973e-07,-0.000165682,-0.000109845,2.72119e-05,6.03927e-06,2
-5.99648e-05,1.15145e-05,-1.34631e-05,-1.54996e-05,-0.000112893,-0.000147367,4.08864e-05,4.2603e-06,2
-5.68381e-05,7.81358e-06,-1.67403e-05,-1.73026e-05,2.38605e-05,-0.000122963,4.81137e-05,3.7441e-06,2
-5.38223e-05,7.11241e-06,-1.65332e-05,-4.12112e-07,0.000141416,-8.80608e-05,4.02472e-05,5.36724e-06,2
-5.2233e-05,8.82088e-06,-1.09775e-05,1.4903e-05,0.000161575,-7.71647e-05,2.77102e-05,7.70145e-06,2
-5.06933e-05,8.81985e-06,-4.83625e-06,1.56684e-05,0.000114711,-8.68204e-05,1.9378e-05,9.74781e-06,2
-5.0808e-05,6.51738e-06,-8.9336e-07,3.34109e-06,8.46011e-05,-9.51133e-05,8.94377e-06,1.18066e-05,2
-5.47936e-05,5.04307e-06,2.09187e-06,-9.62063e-06,0.000109568,-8.96305e-05,-3.3797e-06,1.3223e-05,2
-6.14867e-05,5.4784e-06,3.13445e-06,-1.2424e-05,0.000151598,-7.13262e-05,-6.35822e-06,1.2401e-05,2
-6.62915e-05,6.96867e-06,3.28256e-07,-5.93947e-06,0.000155017,-4.99966e-05,6.84783e-08,1.03772e-05,2
-6.54751e-05,8.75635e-06,-4.16176e-06,-2.08151e-06,9.85663e-05,-2.994e-05,2.05976e-06,9.63388e-06,2
-5.72432e-05,9.47323e-06,-5.42565e-06,-1.89662e-06,2.54362e-05,-1.16316e-05,-1.11555e-05,1.03831e-05,2
-4.30346e-05,9.34387e-06,-2.78369e-06,2.84291e-07,-4.77124e-06,6.76212e-06,-3.08815e-05,1.16069e-05,2
-2.45478e-05,9.68217e-06,-6.93367e-07,4.26432e-06,2.26135e-05,1.77049e-05,-3.6904e-05,1.04757e-05,2
3.84142e-07,1.10226e-05,-1.21577e-06,7.77344e-06,6.10488e-05,1.10057e-05,-2.24213e-05,5.95997e-06,2
2.09449e-05,1.42927e-05,-4.53777e-07,1.25976e-05,6.58072e-05,1.10533e-06,1.28386e-06,3.39589e-06,2
2.01433e-05,1.95664e-05,5.57369e-07,1.8495e-05,4.23265e-05,1.09609e-05,2.17735e-05,3.03809e-06,2
2.59804e-06,2.12442e-05,-9.98517e-07,1.95175e-05,2.98036e-05,2.9567e-05,3.02554e-05,1.72106e-06,2
-1.45514e-05,1.6908e-05,-2.21558e-06,1.31929e-05,3.72262e-05,3.3132e-05,2.28984e-05,-1.03502e-06,2
-2.44583e-05,9.2158e-06,-2.69984e-06,6.83858e-06,3.65145e-05,1.35962e-05,4.17708e-06,-4.21257e-06,2
-2.25577e-05,6.63839e-06,-4.55676e-06,8.42077e-06,1.74939e-05,-1.67925e-05,-1.31702e-05,-5.9415e-06,2
-1.1101e-05,1.07435e-05,-3.14549e-06,1.85061e-05,-8.38076e-06,-4.14136e-05,-1.81808e-05,-6.98435e-06,2
2.67154e-06,1.38028e-05,2.4731e-06,3.0455e-05,-3.80822e-05,-6.20838e-05,-5.44598e-06,-7.6573e-06,2
1.64795e-05,1.61393e-05,6.92784e-06,3.0455e-05,-6.92147e-05,-8.3799e-05,1.83547e-05,-8.43882e-06,2
2.1681e-05,1.56702e-05,8.37594e-06,1.63184e-05,-8.01109e-05,-8.23185e-05,3.95495e-05,-8.34753e-06,2
1.36356e-05,1.5045e-05,7.5774e-06,1.73916e-06,-6.02966e-05,-3.73193e-05,5.35717e-05,-7.75233e-06,2
-3.54029e-07,1.53108e-05,7.38115e-06,-6.99623e-06,-3.40184e-05,2.32751e-05,5.91427e-05,-6.7399e-06,2
-1.30936e-05,1.21097e-05,8.1885e-06,-1.34481e-05,-2.44122e-05,6.32194e-05,5.66009e-05,-5.8327e-06,2
-2.44727e-05,5.34687e-06,7.82984e-06,-2.07238e-05,-3.15984e-05,7.51664e-05,5.16873e-05,-7.58124e-06,2
-4.11973e-05,1.50083e-06,5.45353e-06,-2.99787e-05,-4.76767e-05,7.38849e-05,5.13525e-05,-1.02602e-05,2
-6.84229e-05,3.59229e-06,2.18485e-06,-3.98429e-05,-5.26766e-05,6.82371e-05,5.45879e-05,-1.10046e-05,2
-0.000101351,6.84032e-06,-1.0098e-06,-4.79622e-05,-2.69777e-05,6.12176e-05,6.01091e-05,-9.58933e-06,2
-0.00012324,1.00378e-05,-5.27269e-06,-5.1917e-05,2.03216e-05,4.81183e-05,6.5013e-05,-8.17053e-06,2
-0.000124771,1.38657e-05,-1.09815e-05,-5.49726e-05,5.16438e-05,3.05394e-05,6.66975e-05,-8.43188e-06,2
-0.000113184,1.76764e-05,-1.70381e-05,-5.71626e-05,4.58036e-05,2.75483e-05,7.06784e-05,-9.36551e-06,2
-9.79963e-05,1.71679e-05,-2.3111e-05,-5.38446e-05,1.72094e-05,4.46368e-05,7.65531e-05,-9.86855e-06,2
-8.03108e-05,1.25639e-05,-2.94216e-05,-4.60143e-05,-1.17125e-05,5.31025e-05,7.24898e-05,-1.04929e-05,2
-6.1868e-05,7.73295e-06,-3.46415e-05,-3.40662e-05,-4.02836e-05,2.10219e-05,5.43432e-05,-1.26066e-05,2
-5.07596e-05,3.52609e-06,-3.93233e-05,-1.20033e-05,-7.66561e-05,-4.6436e-05,2.72828e-05,-1.62604e-05,2
-5.12425e-05,-2.71323e-06,-4.57032e-05,1.57722e-05,-0.000113024,-0.000111903,-5.16201e-06,-1.93867e-05,2
-5.72142e-05,-8.38173e-06,-5.07185e-05,3.34201e-05,-0.000128067,-0.000142547,-3.7975e-05,-1.9561e-05,2
-5.62869e-05,-1.05308e-05,-4.89204e-05,3.36852e-05,-0.00010067,-0.0001364,-6.21768e-05,-1.60869e-05,2
-4.36143e-05,-1.18073e-05,-4.42934e-05,1.79627e-05,-3.31035e-05,-0.000107718,-6.95022e-05,-1.27973e-05,2
-2.72836e-05,-1.40825e-05,-4.07792e-05,-9.10202e-06,3.82669e-05,-7.25681e-05,-5.84581e-05,-1.17403e-05,2
-1.35649e-05,-1.57897e-05,-3.45447e-05,-3.23318e-05,8.80781e-05,-3.96372e-05,-3.46437e-05,-1.13975e-05,2
-2.87272e-06,-1.93327e-05,-2.66967e-05,-3.74057e-05,9.70722e-05,-9.6236e-06,-1.05051e-05,-8.75223e-06,2
-6.51564e-06,-2.98097e-05,-2.51915e-05,-3.1601e-05,5.12974e-05,1.10636e-05,1.25818e-07,-3.42673e-06,2
-2.9231e-05,-3.44632e-05,-2.37009e-05,-1.71744e-05,-1.90236e-06,2.41697e-05,-4.00583e-06,7.67981e-07,2
-5.12101e-05,-2.31228e-05,-8.02753e-06,1.1692e-05,-2.14086e-05,4.63737e-05,-7.35931e-06,2.11653e-06,2
-5.82423e-05,-6.6423e-06,1.16331e-05,4.30215e-05,-1.59011e-05,7.77716e-05,4.13232e-06,2.6466e-06,2
-5.23287e-05,4.68907e-06,1.65333e-05,6.61051e-05,-4.28145e-06,0.000100532,2.81346e-05,4.10964e-06,2
-3.78848e-05,1.26374e-05,7.59109e-06,7.1257e-05,5.92048e-06,0.000103352,5.18213e-05,5.40566e-06,2
-1.53117e-05,2.06762e-05,-1.60012e-06,4.58302e-05,1.07889e-06,8.53594e-05,6.9269e-05,6.691e-06,2
1.61744e-05,2.24952e-05,-7.81416e-06,2.06631e-06,-4.37163e-05,5.30073e-05,7.75781e-05,7.10525e-06,2
4.81418e-05,1.9049e-05,-1.21664e-05,-2.99964e-05,-9.42593e-05,2.33015e-05,6.96526e-05,6.11867e-06,2
6.62366e-05,2.23996e-05,-1.02908e-05,-3.84015e-05,-8.96893e-05,2.28471e-05,5.12268e-05,5.07793e-06,2
6.29159e-05,3.57632e-05,-4.72021e-06,-2.87791e-05,-2.75938e-05,4.18443e-05,3.08398e-05,3.02243e-06,2
3.79856e-05,4.71239e-05,-4.3355e-06,-1.53907e-05,5.15347e-05,4.00353e-05,1.3855e-05,1.39634e-06,2
-5.83538e-07,4.62574e-05,-1.07592e-05,-8.81378e-06,0.000120082,9.26186e-06,6.3403e-06,1.73314e-06,2
-3.58203e-05,3.83108e-05,-1.62809e-05,-6.27742e-06,0.000164377,-2.99337e-05,7.06527e-06,1.97238e-06,2
-5.75419e-05,3.07731e-05,-1.61631e-05,1.38047e-06,0.000168692,-6.57286e-05,6.54148e-06,1.41106e-06,2
-6.44381e-05,2.68442e-05,-1.11383e-05,2.01384e-05,0.00013618,-0.000100219,1.69335e-06,1.82218e-06,2
-5.87753e-05,2.60045e-05,-5.33355e-06,3.84917e-05,0.000101046,-0.00012808,-1.40151e-06,3.69558e-06,2
-4.42765e-05,2.70468e-05,-3.42518e-06,3.79923e-05,9.46196e-05,-0.000126824,-1.30659e-06,5.13496e-06,2
-2.8607e-05,2.80816e-05,-6.76388e-06,1.72332e-05,0.00010528,-7.6292e-05,-9.77999e-07,4.80514e-06,2
-1.94731e-05,2.77622e-05,-1.04316e-05,-6.38871e-06,0.000100871,-2.32568e-06,-3.29241e-06,3.52138e-06,2
-1.69618e-05,2.60699e-05,-1.00869e-05,-1.92228e-05,6.75951e-05,4.25551e-05,-6.06678e-06,2.97796e-06,2
-1.32228e-05,2.63026e-05,-7.27607e-06,-2.06331e-05,2.03741e-05,3.47972e-05,-5.10838e-06,2.30828e-06,2
-3.72657e-06,2.87264e-05,-4.02499e-06,-1.94563e-05,-1.86733e-05,-1.08421e-05,-3.82696e-06,2.04755e-06,2
5.92255e-07,2.52717e-05,-1.75789e-06,-1.93312e-05,-4.03365e-05,-5.56147e-05,-9.71641e-06,4.93674e-06,2
-8.45645e-06,9.9201e-06,-2.41776e-06,-2.35422e-05,-4.74982e-05,-6.4402e-05,-2.51945e-05,7.90298e-06,2
-2.10576e-05,-1.51206e-05,-5.71289e-06,-3.49754e-05,-4.46257e-05,-3.28005e-05,-4.59022e-05,8.23615e-06,2
-2.66014e-05,-3.77784e-05,-1.03204e-05,-4.54616e-05,-3.66132e-05,1.28023e-05,-5.26832e-05,6.87511e-06,2
-2.66288e-05,-4.48996e-05,-1.38449e-05,-4.71369e-05,-3.77707e-05,4.10989e-05,-3.42617e-05,5.46792e-06,2
-3.16914e-05,-3.88826e-05,-1.26904e-05,-3.65426e-05,-6.30979e-05,5.31724e-05,-2.55288e-06,4.27003e-06,2
-4.72599e-05,-3.28079e-05,-6.39232e-06,-1.8677e-05,-9.33138e-05,5.6027e-05,2.43649e-05,3.09922e-06,2
-6.22102e-05,-3.01719e-05,-1.15016e-06,-8.01092e-06,-9.53568e-05,3.81929e-05,3.7427e-05,4.7518e-06,2
-6.97278e-05,-2.30766e-05,-2.68223e-07,-7.95821e-06,-6.24476e-05,1.14048e-05,4.16262e-05,7.22412e-06,2
-7.3283e-05,-9.78007e-06,1.0251e-07,-1.17516e-05,-2.99717e-05,-4.28334e-06,4.1966e-05,8.79401e-06,2
-7.59039e-05,3.3009e-06,-1.44758e-06,-1.83611e-05,-4.12579e-05,-8.26275e-06,3.75343e-05,9.82659e-06,2
-7.45945e-05,1.59473e-05,-3.92848e-06,-2.5887e-05,-9.97196e-05,-8.26513e-06,2.84054e-05,1.04977e-05,2
-6.25795e-05,3.04996e-05,-3.47656e-06,-2.37464e-05,-0.000183955,-1.27321e-05,1.67874e-05,1.10485e-05,2
-4.2402e-05,4.5311e-05,1.17047e-06,6.70158e-07,-0.000250473,-1.71478e-05,8.0888e-06,1.11707e-05,2
-2.20087e-05,5.33441e-05,6.40206e-06,3.41815e-05,-0.000230033,-1.40441e-05,6.37342e-06,9.68023e-06,2
-1.10987e-07,5.3453e-05,9.20734e-06,5.0611e-05,-6.40166e-05,-9.53094e-06,1.13444e-05,6.23701e-06,2
2.55171e-05,5.15193e-05,9.40547e-06,5.23383e-05,0.000205342,-1.91298e-05,1.86805e-05,8.99146e-07,2
4.20284e-05,5.04794e-05,7.76656e-06,5.72543e-05,0.000414351,-4.88974e-05,2.08956e-05,-4.61683e-06,2
3.81446e-05,4.87411e-05,4.77319e-06,5.93219e-05,0.000430067,-8.6766e-05,1.42769e-05,-8.91608e-06,2
1.98999e-05,4.60993e-05,1.22786e-06,4.666e-05,0.000300727,-0.000121007,8.90101e-06,-1.38376e-05,2
1.79357e-06,4.46233e-05,1.14583e-06,3.03595e-05,0.000174212,-0.000136371,1.976e-05,-1.83226e-05,2
-8.35744e-06,4.2573e-05,3.36178e-06,2.43988e-05,0.000128042,-0.000111905,4.38578e-05,-2.03916e-05,2
-9.98524e-06,3.78014e-05,2.83128e-06,2.31774e-05,0.000130165,-5.47027e-05,6.14326e-05,-1.97554e-05,2
-7.99144e-06,3.06819e-05,-1.71318e-06,1.31516e-05,0.000120677,-6.16662e-06,5.77323e-05,-1.78564e-05,2
-1.175e-05,2.37909e-05,-5.83928e-06,-6.02418e-06,8.64471e-05,1.0598e-05,3.98746e-05,-1.60584e-05,2
-2.29648e-05,1.76405e-05,-7.63309e-06,-1.9177e-05,5.3194e-05,7.09129e-06,1.98184e-05,-1.37883e-05,2
-3.46692e-05,1.20088e-05,-6.7264e-06,-8.62415e-06,3.85314e-05,3.81057e-07,6.19787e-07,-9.88717e-06,2
-4.4244e-05,5.50599e-06,-4.84908e-06,1.91353e-05,3.34064e-05,-1.81582e-06,-1.79432e-05,-7.36392e-06,2
-5.78503e-05,-6.71711e-06,-4.98394e-06,2.70002e-05,2.40682e-05,5.123e-06,-3.63309e-05,-7.1971e-06,2
-7.56609e-05,-2.66553e-05,-7.09152e-06,1.65538e-06,7.40168e-06,1.98644e-05,-5.64292e-05,-8.07492e-06,2
-8.67937e-05,-3.9427e-05,-5.54427e-06,-2.31057e-05,-4.72713e-06,3.4381e-05,-7.26469e-05,-7.16329e-06,2
-8.10926e-05,-2.93629e-05,3.73745e-06,-2.64334e-05,-1.90858e-06,5.76298e-05,-7.24794e-05,-3.09382e-06,2
-6.8159e-05,-1.02666e-05,1.38461e-05,-2.24498e-05,1.30893e-05,8.07627e-05,-5.07772e-05,-8.78632e-07,2
-6.28699e-05,6.29056e-07,2.02702e-05,-2.72673e-05,2.74198e-05,8.25004e-05,-1.7628e-05,-2.2893e-06,2
-5.79261e-05,-3.07719e-06,1.43981e-05,-4.36572e-05,3.38336e-05,6.99788e-05,1.21114e-05,-4.30784e-06,2
-4.87938e-05,-2.34373e-05,-6.45982e-06,-6.25944e-05,1.28805e-05,5.0984e-05,3.35125e-05,-4.34427e-06,2
-4.96325e-05,-4.81522e-05,-2.6857e-05,-6.73704e-05,-4.34297e-05,2.25319e-05,4.61367e-05,-1.63559e-06,2
-6.1169e-05,-6.38817e-05,-4.18579e-05,-5.71413e-05,-9.02107e-05,-1.63635e-05,5.41945e-05,-7.30494e-07,2
-6.60781e-05,-6.55026e-05,-5.09678e-05,-4.26285e-05,-8.89359e-05,-5.27294e-05,6.33723e-05,-1.5525e-06,2
-6.20432e-05,-5.54453e-05,-5.54649e-05,-3.5345e-05,-4.60028e-05,-7.92154e-05,6.47918e-05,-1.80766e-06,2
-6.26738e-05,-3.61061e-05,-5.83151e-05,-3.82982e-05,-2.5688e-06,-9.24865e-05,4.84688e-05,-2.71307e-06,2
-7.43564e-05,-8.53812e-06,-5.50837e-05,-3.11422e-05,1.05908e-05,-7.81984e-05,2.36107e-05,-2.67301e-06,2
-8.80366e-05,2.19148e-05,-3.94577e-05,-4.54013e-06,-3.45281e-06,-2.57506e-05,1.57138e-06,1.12985e-07,2
-8.84988e-05,4.84012e-05,-1.43143e-05,2.10558e-05,-2.33413e-05,3.97948e-05,-1.86142e-05,3.31372e-06,2
-5.89989e-05,7.08424e-05,8.13124e-06,2.8843e-05,-2.87035e-05,8.42438e-05,-3.82622e-05,4.5263e-06,2
2.53564e-06,8.90712e-05,1.92457e-05,2.37644e-05,-1.37038e-05,0.000102261,-5.16343e-05,5.23979e-06,2
6.99832e-05,9.75181e-05,1.82214e-05,1.49589e-05,9.9048e-06,0.000107066,-5.3333e-05,5.34136e-06,2
0.000106275,9.34335e-05,1.16175e-05,8.08439e-06,1.94094e-05,0.000118434,-4.48798e-05,5.17677e-06,2
9.11333e-05,7.68503e-05,4.91887e-06,4.94555e-06,1.13367e-05,0.000138082,-3.34639e-05,5.9381e-06,2
4.41847e-05,5.52399e-05,2.00035e-06,4.126e-06,-5.61844e-06,0.000148356,-2.28359e-05,7.52101e-06,2
3.74703e-06,4.24106e-05,4.46312e-06,3.30516e-06,-3.80043e-05,0.000133319,-7.5809e-06,8.07572e-06,2
