ch1,ch2,ch3,ch4,ch5,ch6,ch7,ch8,class
-4.45929e-05,2.20634e-06,1.75326e-06,-1.18745e-06,-8.71545e-06,-1.53446e-05,1.77787e-05,4.74932e-06,2
-5.10925e-05,1.17782e-06,-6.22733e-06,-7.33397e-06,6.41862e-05,-2.86607e-06,1.15589e-05,4.38118e-06,2
-5.69649e-05,7.52902e-06,-1.26326e-05,-1.45543e-05,9.64905e-05,1.86472e-05,-3.73351e-06,2.25472e-06,2
-6.34254e-05,1.72601e-05,-1.55027e-05,-1.87184e-05,9.65161e-05,4.15462e-05,-1.91336e-05,1.60086e-06,2
-6.87662e-05,2.99448e-05,-1.60847e-05,-2.12041e-05,8.64031e-05,6.72586e-05,-2.16789e-05,1.60946e-06,2
-7.35261e-05,3.87234e-05,-1.73666e-05,-2.45525e-05,8.22616e-05,9.53367e-05,-1.32121e-05,-7.0423e-08,2
-7.70634e-05,3.55576e-05,-1.92709e-05,-2.59901e-05,9.37884e-05,0.000116223,-6.34818e-06,-1.71401e-06,2
-7.43619e-05,2.62933e-05,-1.97307e-05,-2.30345e-05,0.000101089,0.000120857,-1.96794e-06,-1.60151e-06,2
-6.58912e-05,2.60378e-05,-1.62489e-05,-1.9544e-05,6.19428e-05,0.000118222,3.78196e-06,-2.81983e-07,2
-5.44888e-05,3.90971e-05,-9.06912e-06,-1.88099e-05,-1.48811e-05,0.000115746,9.61057e-06,2.58245e-06,2
-4.01717e-05,5.73905e-05,-4.61521e-07,-1.67087e-05,-6.10316e-05,9.20298e-05,1.5273e-05,5.12517e-06,2
-2.19996e-05,6.94083e-05,6.34556e-06,-6.15502e-06,-4.16549e-05,2.59142e-05,2.38487e-05,4.87004e-06,2
-5.26695e-06,6.97574e-05,9.40193e-06,1.29827e-05,2.36273e-06,-5.76726e-05,3.44968e-05,2.15955e-06,2
4.9334e-06,6.24528e-05,8.21284e-06,3.22525e-05,2.41161e-05,-0.000111917,4.50538e-05,-1.18796e-06,2
9.13212e-06,5.60816e-05,3.49768e-06,4.18279e-05,2.37577e-05,-0.000132829,5.32589e-05,-3.46605e-06,2
9.70233e-06,5.29335e-05,-4.40245e-06,3.24597e-05,2.40617e-05,-0.000154766,5.53313e-05,-5.36988e-06,2
5.98534e-06,4.97365e-05,-1.29471e-05,6.13115e-06,3.33175e-05,-0.000195455,4.93869e-05,-7.11045e-06,2
-2.08836e-06,4.51374e-05,-1.72073e-05,-2.18141e-05,4.55752e-05,-0.000230158,3.88929e-05,-9.89775e-06,2
-9.7392e-06,4.0574e-05,-1.5206e-05,-3.97737e-05,5.25301e-05,-0.000212539,3.13969e-05,-1.1938e-05,2
-1.26403e-05,3.51222e-05,-9.73768e-06,-4.72933e-05,5.54494e-05,-0.00013798,3.36828e-05,-1.08395e-05,2
-1.27492e-05,2.6715e-05,-6.86157e-06,-4.50351e-05,5.67514e-05,-6.25088e-05,4.16883e-05,-8.36724e-06,2
-1.35104e-05,1.78692e-05,-7.78495e-06,-3.40759e-05,5.31516e-05,-2.60619e-05,4.47286e-05,-6.47615e-06,2
-1.76253e-05,1.15897e-05,-7.70657e-06,-1.43951e-05,4.07892e-05,-1.95998e-05,3.59711e-05,-5.33621e-06,2
-2.5585e-05,8.82813e-06,-4.00263e-06,7.87929e-06,2.85317e-05,-1.77065e-05,1.29489e-05,-4.70744e-06,2
-2.98099e-05,6.82667e-06,1.60023e-06,2.20658e-05,2.43172e-05,-1.28107e-05,-1.53029e-05,-5.33824e-06,2
-2.35519e-05,2.02306e-06,3.33407e-06,2.28699e-05,2.66603e-05,-6.24086e-06,-3.6761e-05,-4.67237e-06,2
-1.30986e-05,-3.72508e-06,3.16458e-07,1.04727e-05,2.27694e-05,5.46618e-06,-4.44837e-05,-1.04896e-06,2
-1.3977e-05,-1.05084e-05,-4.12474e-06,-7.33235e-06,1.16376e-06,2.07596e-05,-4.24334e-05,3.3944e-07,2
-2.42625e-05,-1.9461e-05,-7.49019e-06,-2.07498e-05,-2.23063e-05,3.71158e-05,-3.83222e-05,-3.29119e-06,2
-3.14411e-05,-2.66918e-05,-7.81882e-06,-1.89817e-05,-2.97508e-05,5.42585e-05,-3.76682e-05,-7.42279e-06,2
-3.48198e-05,-2.95506e-05,-7.12947e-06,-1.91677e-06,-2.43801e-05,6.93113e-05,-4.40551e-05,-9.34172e-06,2
-4.51436e-05,-3.08602e-05,-8.15263e-06,1.25929e-05,-2.63058e-05,8.03281e-05,-5.30392e-05,-1.05065e-05,2
-6.45848e-05,-3.20546e-05,-1.03568e-05,8.91047e-06,-4.37242e-05,8.73339e-05,-6.09811e-05,-1.0733e-05,2
-8.19922e-05,-3.07357e-05,-1.04149e-05,-5.33218e-06,-6.56893e-05,8.99699e-05,-6.34205e-05,-1.00823e-05,2
-9.0552e-05,-2.22758e-05,-8.11991e-06,-1.65251e-05,-7.88741e-05,8.9382e-05,-4.87027e-05,-9.25821e-06,2
-9.13323e-05,-4.03255e-06,-4.18462e-06,-1.91558e-05,-6.95033e-05,8.80186e-05,-1.39731e-05,-9.81814e-06,2
-8.81795e-05,1.60952e-05,8.26964e-08,-1.49927e-05,-3.01094e-05,8.48446e-05,2.73327e-05,-1.18424e-05,2
-8.24969e-05,2.74867e-05,1.66277e-06,-1.19249e-05,2.12576e-05,7.225e-05,6.04924e-05,-1.25768e-05,2
-7.47499e-05,2.64694e-05,-5.29578e-07,-1.35335e-05,5.45838e-05,4.36406e-05,7.74497e-05,-1.02111e-05,2
-6.13511e-05,1.70825e-05,-4.03279e-06,-1.5425e-05,6.22038e-05,4.92331e-06,7.70716e-05,-5.84348e-06,2
-3.87805e-05,7.74902e-06,-5.7397e-06,-1.23846e-05,5.9129e-05,-2.21437e-05,6.6641e-05,-2.4583e-06,2
-1.35866e-05,8.1278e-06,-5.87449e-06,-9.34719e-06,6.69575e-05,-2.71393e-05,5.77352e-05,-8.93605e-07,2
-6.94285e-06,1.80395e-05,-5.55422e-06,-1.18507e-05,8.84929e-05,-3.98099e-05,5.58295e-05,-3.91367e-07,2
-3.39836e-05,2.66802e-05,-4.3651e-06,-1.61643e-05,9.94737e-05,-9.2222e-05,5.71023e-05,-4.68774e-07,2
-7.95697e-05,2.64918e-05,-3.79709e-06,-1.91733e-05,8.28208e-05,-0.000153274,5.61834e-05,-5.83626e-07,2
-0.000110064,1.98672e-05,-5.45637e-06,-2.22901e-05,5.95478e-05,-0.000160005,5.41037e-05,-7.52846e-07,2
-0.000103754,1.63739e-05,-6.68905e-06,-2.2109e-05,5.38704e-05,-0.000108969,5.02509e-05,-7.93299e-07,2
-5.19839e-05,2.40241e-05,-6.10927e-06,-1.84045e-05,5.544e-05,-4.289e-05,4.20279e-05,-9.99071e-07,2
5.53096e-05,3.88965e-05,-3.90573e-06,-1.68661e-05,4.94011e-05,2.56843e-05,3.20694e-05,-7.18186e-07,2
0.000181664,4.89484e-05,-4.88565e-07,-1.82665e-05,3.35276e-05,0.000108208,2.44918e-05,3.62772e-06,2
0.000223155,4.37571e-05,2.0696e-06,-1.54414e-05,1.79441e-05,0.00018045,2.14978e-05,7.98609e-06,2
0.000171753,2.80944e-05,2.85954e-06,-7.72317e-06,1.33834e-05,0.000212767,1.68415e-05,8.91166e-06,2
0.000107803,1.72831e-05,-3.25765e-06,-6.39504e-07,1.55787e-05,0.000197445,6.85493e-06,9.24268e-06,2
6.47132e-05,1.55674e-05,-1.41322e-05,4.94366e-06,1.41871e-05,0.000124332,-6.15595e-06,8.51039e-06,2
4.48735e-05,1.96458e-05,-1.82269e-05,1.59242e-05,9.73553e-06,2.58157e-06,-2.12623e-05,8.24994e-06,2
2.66454e-05,2.42814e-05,-1.45924e-05,3.55358e-05,1.04332e-05,-0.000149426,-3.27328e-05,8.79699e-06,2
1.10245e-05,2.34769e-05,-8.02279e-06,5.28051e-05,1.29129e-05,-0.000279839,-4.36565e-05,8.45946e-06,2
-3.86343e-07,1.6201e-05,-4.28459e-06,5.35364e-05,1.30222e-05,-0.000317421,-5.8851e-05,7.82391e-06,2
-1.12533e-05,7.64057e-06,-9.5004e-06,3.41275e-05,6.96839e-06,-0.000243869,-6.20746e-05,7.62294e-06,2
-1.86261e-05,4.22594e-06,-1.90766e-05,6.79198e-06,-6.49327e-06,-0.00013177,-3.87805e-05,9.12099e-06,2
-1.49064e-05,9.36916e-06,-2.31264e-05,-1.54085e-05,-2.03504e-05,-6.75172e-05,1.82676e-06,1.06982e-05,2
-5.54147e-06,1.71499e-05,-2.3729e-05,-2.76906e-05,-2.30476e-05,-5.66387e-05,4.42527e-05,9.36249e-06,2
-8.74004e-06,1.88239e-05,-2.52297e-05,-3.27862e-05,-1.17069e-05,-6.06771e-05,7.40974e-05,6.43987e-06,2
-2.592e-05,1.05232e-05,-2.61891e-05,-2.96717e-05,1.73966e-06,-5.29903e-05,7.85252e-05,5.27787e-06,2
-4.64719e-05,-1.97966e-06,-2.40673e-05,-9.54784e-06,8.08968e-06,-3.64615e-05,6.45791e-05,6.26011e-06,2
-5.67338e-05,-1.01206e-05,-2.03995e-05,2.45098e-05,7.45714e-06,-2.04789e-05,5.04596e-05,6.42865e-06,2
-5.93908e-05,-1.19052e-05,-1.77765e-05,4.58074e-05,3.08315e-06,-1.39013e-05,3.89994e-05,4.187e-06,2
-5.93843e-05,-9.98036e-06,-1.58697e-05,3.64607e-05,-2.32941e-06,-1.73578e-05,2.02406e-05,1.11427e-06,2
-6.21809e-05,-6.62127e-06,-1.38079e-05,1.5148e-05,-4.76641e-07,-2.70972e-05,-7.52329e-06,-3.16145e-07,2
-6.25762e-05,-2.70672e-06,-1.00478e-05,9.71851e-06,1.03099e-05,-3.25515e-05,-3.08299e-05,-8.79486e-08,2
-6.15699e-05,1.40667e-07,-5.55064e-06,1.90922e-05,1.37339e-05,-1.82808e-05,-3.6773e-05,-8.28747e-07,2
-6.41724e-05,2.77074e-06,-2.76977e-06,2.2791e-05,-2.66254e-06,1.48839e-05,-2.56349e-05,-2.27948e-06,2
-7.45096e-05,4.82951e-06,-1.1004e-06,1.44147e-05,-2.75133e-05,4.72413e-05,-4.91768e-06,-2.26776e-06,2
-8.60182e-05,4.03394e-06,1.29738e-06,5.73172e-06,-3.56394e-05,6.64695e-05,1.5463e-05,-1.31567e-06,2
-8.95816e-05,1.90218e-06,3.98151e-06,9.54328e-06,-4.77992e-06,7.20693e-05,2.49902e-05,-1.35296e-06,2
-8.55272e-05,2.39055e-06,6.00605e-06,1.89828e-05,5.92905e-05,6.80725e-05,2.28127e-05,-1.33666e-06,2
-7.32172e-05,3.99327e-06,7.03408e-06,1.89262e-05,0.000113318,6.50764e-05,1.91829e-05,-1.59651e-06,2
-4.59977e-05,8.03773e-06,8.80627e-06,1.68558e-05,0.000103151,6.56986e-05,2.1436e-05,-5.3297e-06,2
-1.39718e-05,1.4228e-05,1.18683e-05,1.90248e-05,4.67963e-05,6.38232e-05,2.93523e-05,-1.02653e-05,2
9.83826e-08,1.91692e-05,1.20507e-05,1.59643e-05,4.89523e-06,6.33468e-05,4.0011e-05,-1.28167e-05,2
-1.0203e-05,2.07434e-05,4.87623e-06,2.38835e-06,-2.10977e-05,6.25886e-05,4.79747e-05,-1.2634e-05,2
-3.20019e-05,1.94905e-05,-3.21195e-06,-1.7875e-05,-5.60748e-05,4.57431e-05,4.45391e-05,-1.06716e-05,2
-4.61996e-05,1.61482e-05,-7.50779e-06,-3.28036e-05,-0.000101715,1.49348e-05,3.4877e-05,-8.052e-06,2
-4.51569e-05,1.04507e-05,-9.28684e-06,-3.62052e-05,-0.000123454,-1.34677e-05,2.19708e-05,-5.10501e-06,2
-3.05684e-05,6.45281e-06,-9.52673e-06,-3.45039e-05,-9.07438e-05,-3.4199e-05,4.08268e-06,-1.13133e-06,2
-1.36023e-05,8.05417e-06,-8.60523e-06,-3.55099e-05,-1.37366e-05,-5.26069e-05,-7.23548e-06,1.8016e-06,2
-4.21174e-06,1.96807e-05,-5.54905e-06,-3.90623e-05,5.61209e-05,-6.99999e-05,-8.52117e-06,2.30929e-06,2
-9.44198e-06,3.37013e-05,-4.08561e-06,-4.18255e-05,8.37839e-05,-8.20873e-05,-8.93345e-06,1.15349e-06,2
-2.80752e-05,3.68144e-05,-6.21519e-06,-3.91052e-05,7.96529e-05,-7.90048e-05,-1.3208e-05,-1.34006e-06,2
-4.87082e-05,3.0524e-05,-7.65499e-06,-2.89969e-05,7.09653e-05,-6.21456e-05,-1.64901e-05,-2.74417e-06,2
-5.80104e-05,2.75753e-05,-4.13519e-06,-1.64029e-05,7.20454e-05,-5.10837e-05,-1.71899e-05,-1.20693e-06,2
-5.47616e-05,3.18729e-05,1.34309e-06,-1.0077e-05,7.31748e-05,-6.02748e-05,-1.30037e-05,1.47249e-06,2
-4.75712e-05,3.48605e-05,2.80254e-06,-1.43109e-05,6.23446e-05,-7.96273e-05,-1.42313e-06,1.86875e-06,2
-4.51659e-05,3.07797e-05,-1.33085e-07,-2.33774e-05,4.13474e-05,-8.85439e-05,1.43277e-05,1.40802e-06,2
-4.4767e-05,2.1402e-05,-2.63095e-06,-2.69585e-05,2.50027e-05,-7.2984e-05,2.61672e-05,1.96397e-06,2
-4.13408e-05,1.03397e-05,-3.56107e-06,-1.92243e-05,1.30398e-05,-3.80971e-05,3.04426e-05,3.1254e-06,2
-3.55309e-05,-5.0445e-08,-4.73975e-06,-4.93884e-06,-4.09525e-06,-4.37629e-06,2.98497e-05,5.70589e-06,2
-2.90682e-05,-3.63521e-06,-5.59671e-06,3.97586e-06,-2.09997e-05,1.43272e-05,2.86996e-05,9.22957e-06,2
-2.59637e-05,-4.84521e-07,-5.84569e-06,2.33779e-06,-2.01379e-05,2.33471e-05,3.06503e-05,1.06788e-05,2
-3.57347e-05,3.96766e-07,-7.29055e-06,-3.48937e-06,-2.15362e-06,4.02626e-05,3.54759e-05,1.08632e-05,2
-6.12837e-05,-4.64435e-06,-1.14177e-05,-9.27227e-06,2.60846e-05,7.9096e-05,3.99219e-05,1.13178e-05,2
-8.86334e-05,-1.79477e-05,-1.82735e-05,-1.46365e-05,5.20772e-05,0.000131128,4.02363e-05,1.16427e-05,2
-0.000107434,-3.69055e-05,-2.39909e-05,-1.75673e-05,6.18736e-05,0.000164976,3.55645e-05,1.16861e-05,2
-0.000127354,-5.05346e-05,-2.37967e-05,-1.68526e-05,5.16096e-05,0.000172384,3.40837e-05,1.10893e-05,2
-0.000160186,-5.11106e-05,-1.98049e-05,-1.4321e-05,1.22214e-05,0.000182365,4.132e-05,1.1461e-05,2
-0.000194711,-3.98783e-05,-1.82777e-05,-1.32108e-05,-3.59475e-05,0.000203733,4.8938e-05,1.0903e-05,2
-0.000221456,-2.84915e-05,-1.79031e-05,-1.37096e-05,-4.93584e-05,0.000217093,4.91594e-05,8.68367e-06,2
-0.000239596,-2.21748e-05,-1.49094e-05,-5.83974e-06,-1.74272e-05,0.000221157,4.15658e-05,6.4823e-06,2
-0.000239897,-1.43161e-05,-9.01263e-06,1.04704e-05,3.06635e-05,0.000229505,3.33173e-05,5.39778e-06,2
-0.000212221,3.54251e-07,-2.92568e-07,2.27244e-05,6.14473e-05,0.000248674,2.84953e-05,5.96955e-06,2
-0.000138047,1.8589e-05,9.11394e-06,2.95366e-05,6.88332e-05,0.000260185,2.712e-05,6.62877e-06,2
-1.30288e-05,3.47202e-05,1.7024e-05,3.18931e-05,5.45546e-05,0.000235669,2.64319e-05,6.71657e-06,2
0.000114089,4.18711e-05,1.69221e-05,2.78903e-05,2.20771e-05,0.00017058,2.81829e-05,6.05707e-06,2
0.00018807,3.15802e-05,3.81435e-06,1.63695e-05,-9.87534e-06,8.05578e-05,2.53774e-05,5.18061e-06,2
0.00020897,1.58273e-05,-1.60089e-05,1.14739e-06,-2.10916e-05,-3.79967e-05,9.45783e-06,4.03936e-06,2
0.000199332,1.83503e-05,-3.02431e-05,-1.08547e-05,-1.39899e-05,-0.00020116,-9.47892e-06,3.26884e-06,2
0.000175618,4.22532e-05,-3.30991e-05,-1.77314e-05,-7.64904e-06,-0.000372418,-2.22875e-05,3.62751e-06,2
0.000145763,7.12356e-05,-2.83555e-05,-2.53877e-05,-1.64346e-05,-0.000476026,-2.95281e-05,3.38024e-06,2
0.000106883,9.16677e-05,-2.03064e-05,-3.90907e-05,-4.70989e-05,-0.000470334,-3.1399e-05,6.17379e-07,2
6.26093e-05,0.000100905,-1.32558e-05,-5.20152e-05,-9.01609e-05,-0.000386098,-2.72718e-05,-2.86e-06,2
2.3234e-05,9.91673e-05,-1.17995e-05,-4.89388e-05,-0.000116621,-0.000306184,-2.45261e-05,-4.08614e-06,2
-5.38596e-07,8.6247e-05,-1.51603e-05,-2.23362e-05,-9.03163e-05,-0.000290202,-2.90135e-05,-3.79977e-06,2
-3.31771e-06,6.71931e-05,-1.67268e-05,1.36277e-05,-1.77992e-05,-0.000326523,-3.74477e-05,-3.88763e-06,2
1.25745e-05,5.09082e-05,-1.26969e-05,3.58797e-05,4.8905e-05,-0.000356645,-4.1005e-05,-5.72201e-06,2
3.15115e-05,4.16586e-05,-5.86267e-06,3.63673e-05,7.60332e-05,-0.000321548,-3.71757e-05,-8.64651e-06,2
3.56107e-05,3.68983e-05,-3.97193e-08,2.59096e-05,7.69295e-05,-0.000207748,-3.04154e-05,-8.76681e-06,2
2.33801e-05,3.47079e-05,2.86602e-06,1.35605e-05,7.60829e-05,-8.44681e-05,-2.37057e-05,-5.47018e-06,2
8.63076e-06,3.51515e-05,3.72173e-06,-1.91964e-06,0.00010296,-3.42295e-05,-1.49604e-05,-1.61265e-06,2
-2.3889e-06,3.39466e-05,2.80821e-06,-1.95846e-05,0.000171033,-5.38862e-05,-7.40311e-06,2.58611e-06,2
-1.03893e-05,2.76198e-05,-5.35066e-07,-2.98475e-05,0.000223354,-7.70502e-05,-5.72299e-06,5.00989e-06,2
-1.6951e-05,1.86964e-05,-5.48799e-06,-2.39273e-05,0.000187526,-6.30241e-05,-9.13418e-06,2.04863e-06,2
-2.23913e-05,1.07421e-05,-1.14904e-05,-6.95337e-06,8.97156e-05,-3.35138e-05,-1.5619e-05,-3.16817e-06,2
-2.51726e-05,6.3105e-06,-1.54669e-05,7.35988e-07,8.88568e-06,-1.46203e-05,-1.85567e-05,-3.30723e-06,2
-2.42788e-05,4.95077e-06,-1.49373e-05,-9.37858e-06,-2.20994e-05,-7.57442e-06,-1.35266e-05,-1.33082e-06,2
-2.53482e-05,6.73886e-07,-1.28289e-05,-2.1841e-05,-9.84882e-06,-1.54012e-06,3.08004e-07,-1.4672e-06,2
-3.45055e-05,-7.64823e-06,-1.10246e-05,-2.30938e-05,1.30162e-05,1.54214e-05,2.05383e-05,-2.16485e-06,2
-4.85327e-05,-1.37147e-05,-8.3891e-06,-1.1842e-05,1.06827e-05,3.85875e-05,4.17914e-05,-1.97764e-06,2
-6.28353e-05,-1.51595e-05,-2.76796e-06,1.32454e-06,-2.67799e-05,5.81221e-05,5.81979e-05,1.87839e-06,2
-7.32112e-05,-1.49666e-05,4.83239e-06,6.7976e-06,-7.92376e-05,7.25759e-05,6.6607e-05,6.38802e-06,2
-8.26874e-05,-1.6241e-05,9.96605e-06,7.41771e-06,-0.000126153,8.58814e-05,7.24997e-05,8.27919e-06,2
-9.27932e-05,-1.77845e-05,1.01992e-05,9.3182e-06,-0.000141353,9.57539e-05,6.99837e-05,7.0183e-06,2
-0.000101481,-1.59938e-05,8.45797e-06,1.11296e-05,-0.000115348,9.61034e-05,5.13168e-05,3.91852e-06,2
-9.98126e-05,-1.01612e-05,8.88014e-06,9.98543e-06,-7.73648e-05,9.14128e-05,2.67451e-05,1.99271e-06,2
-7.96962e-05,-3.27657e-06,1.02179e-05,6.19069e-06,-5.30238e-05,9.42667e-05,7.70712e-06,1.77582e-06,2
-4.44842e-05,2.39055e-06,7.63118e-06,-2.57485e-06,-2.34783e-05,0.000109475,-3.3643e-06,1.6606e-06,2
-9.79149e-06,6.40562e-06,8.13869e-08,-1.82937e-05,4.48474e-05,0.000134001,-4.00133e-06,-4.0447e-07,2
5.15436e-06,7.32936e-06,-9.35379e-06,-3.58945e-05,0.000129777,0.000158714,8.19912e-06,-3.08513e-06,2
-3.16403e-06,5.99069e-06,-1.79201e-05,-4.19433e-05,0.000174166,0.000165103,2.45262e-05,-4.5069e-06,2
-1.79111e-05,5.83593e-06,-2.25597e-05,-2.47119e-05,0.000159855,0.000136541,3.6598e-05,-4.8189e-06,2
-2.3739e-05,7.70487e-06,-2.08121e-05,1.02218e-05,0.000121069,7.86751e-05,4.18486e-05,-3.88323e-06,2
-2.51773e-05,8.56659e-06,-1.50646e-05,3.29877e-05,8.83173e-05,1.90823e-05,3.98623e-05,-2.98786e-06,2
-2.69306e-05,6.78717e-06,-1.10691e-05,2.3369e-05,6.79651e-05,-2.37879e-05,2.93774e-05,-3.42947e-06,2
-2.64906e-05,4.23953e-06,-9.49803e-06,-1.39849e-06,5.3337e-05,-5.95383e-05,1.28753e-05,-3.07801e-06,2
-2.6326e-05,4.01425e-06,-8.49766e-06,-1.73328e-05,3.89215e-05,-9.01604e-05,-1.81993e-06,-8.4967e-07,2
-2.90808e-05,6.77e-06,-7.70271e-06,-1.89818e-05,2.91551e-05,-8.51264e-05,-4.74328e-06,2.17094e-06,2
-2.90134e-05,1.12364e-05,-8.23605e-06,-1.44486e-05,3.36062e-05,-4.32115e-05,4.53349e-06,4.59615e-06,2
-2.66714e-05,1.49839e-05,-1.0895e-05,-1.55917e-05,4.77117e-05,-9.60757e-06,1.49772e-05,3.89242e-06,2
-2.84666e-05,1.28907e-05,-1.399e-05,-2.28519e-05,5.74647e-05,-8.18207e-06,1.64273e-05,-4.55616e-07,2
-3.24937e-05,6.07668e-06,-1.23846e-05,-2.53749e-05,4.72244e-05,-1.64745e-05,9.07566e-06,-6.45737e-06,2
-4.17185e-05,-7.2356e-07,-3.19465e-06,-1.96151e-05,7.41643e-06,-9.73718e-06,5.44522e-06,-1.1564e-05,2
-6.05913e-05,-2.61537e-06,6.13094e-06,-1.01848e-05,-5.09266e-05,1.34089e-05,1.42869e-05,-1.50099e-05,2
-7.99064e-05,2.45765e-06,9.5382e-06,2.58454e-06,-9.64835e-05,4.21361e-05,3.19124e-05,-1.96098e-05,2
-9.52377e-05,7.97609e-06,8.31972e-06,1.48641e-05,-9.99914e-05,6.60343e-05,3.66958e-05,-2.53369e-05,2
-0.000116295,3.58299e-06,2.37173e-06,1.92525e-05,-7.7066e-05,8.09652e-05,1.8482e-05,-2.86506e-05,2
-0.000144611,-1.03982e-05,-4.82539e-06,1.53745e-05,-5.26167e-05,9.16142e-05,-9.20809e-08,-2.75612e-05,2
-0.000167764,-2.16406e-05,-5.87329e-06,1.33978e-05,-2.68541e-05,0.0001126,8.34691e-06,-2.26158e-05,2
-0.00017103,-2.41059e-05,4.04683e-07,2.049e-05,-9.8395e-07,0.000142994,4.8859e-05,-1.75886e-05,2
-0.000143785,-1.63988e-05,9.39318e-06,2.92231e-05,1.10243e-05,0.000168207,8.93016e-05,-1.54268e-05,2
-7.97113e-05,9.16005e-07,1.36602e-05,2.93826e-05,9.20332e-08,0.000183308,9.43199e-05,-1.3627e-05,2
7.84026e-06,2.08055e-05,1.09635e-05,2.03181e-05,-2.20246e-05,0.000188325,6.18032e-05,-9.11134e-06,2
7.38067e-05,3.12215e-05,6.5109e-06,1.21264e-05,-3.57499e-05,0.000179245,2.08219e-05,-2.98893e-06,2
8.22239e-05,2.68282e-05,5.1286e-06,7.78088e-06,-3.21409e-05,0.000145414,3.277e-06,1.02329e-06,2
4.2288e-05,1.45674e-05,5.45502e-06,3.43646e-06,-1.61835e-05,8.36477e-05,1.53763e-05,1.79676e-06,2
-3.17424e-06,6.67274e-06,2.56262e-06,-3.40297e-06,-2.23741e-06,6.43105e-06,3.80767e-05,1.62525e-06,2
-2.15002e-05,8.92378e-06,-3.47095e-06,-1.24077e-05,-9.73118e-06,-7.18907e-05,4.8173e-05,3.80567e-06,2
-1.25549e-05,1.73808e-05,-8.3946e-06,-2.04592e-05,-4.49621e-05,-0.000145556,3.68905e-05,8.8766e-06,2
7.04475e-06,2.53559e-05,-8.50486e-06,-2.28905e-05,-8.61342e-05,-0.000203292,1.08984e-05,1.3503e-05,2
2.29662e-05,2.89496e-05,-5.31016e-06,-1.8633e-05,-0.000101362,-0.00021914,-1.29728e-05,1.53716e-05,2
2.77655e-05,2.98008e-05,-2.63462e-06,-1.38581e-05,-7.4663e-05,-0.000184677,-2.54653e-05,1.51901e-05,2
1.97735e-05,3.01534e-05,-1.16947e-06,-1.40326e-05,-1.44266e-05,-0.000136605,-2.4512e-05,1.33082e-05,2
4.66765e-06,2.96355e-05,-1.71729e-06,-1.78055e-05,5.06487e-05,-0.000117102,-1.8284e-05,1.00643e-05,2
-1.00617e-05,2.47353e-05,-5.52724e-06,-1.9147e-05,9.31642e-05,-0.000132123,-2.91889e-05,9.24503e-06,2
-2.21055e-05,1.51896e-05,-1.03862e-05,-1.43552e-05,0.000113206,-0.000165957,-6.0228e-05,1.04435e-05,2
-2.90749e-05,7.8687e-06,-1.34096e-05,-1.14912e-05,0.000122033,-0.000186831,-8.35917e-05,1.03807e-05,2
-3.0274e-05,5.38156e-06,-1.45667e-05,-1.64891e-05,0.000105418,-0.000166605,-7.73317e-05,8.62463e-06,2
-3.00657e-05,2.56211e-06,-1.55538e-05,-2.05327e-05,7.48162e-05,-0.000119291,-5.40553e-05,8.33381e-06,2
-2.88666e-05,9.28886e-07,-1.78119e-05,-2.17859e-05,7.84474e-05,-7.98683e-05,-3.24489e-05,1.00019e-05,2
-2.81602e-05,2.23457e-06,-1.70433e-05,-2.38916e-05,0.000103183,-5.81073e-05,-1.55329e-05,1.05506e-05,2
-2.69625e-05,3.97968e-06,-1.00737e-05,-2.39027e-05,9.65555e-05,-4.37572e-05,-7.38411e-06,1.05567e-05,2
-2.3593e-05,9.35453e-06,-3.34895e-06,-1.68184e-05,5.50092e-05,-2.91089e-05,-7.29663e-06,1.14796e-05,2
-1.65547e-05,2.40926e-05,1.02071e-06,-5.03296e-06,1.36258e-05,-1.02834e-05,-3.15787e-06,1.28729e-05,2
-1.25203e-05,4.13843e-05,3.77221e-06,-3.51107e-07,-3.88083e-06,1.23295e-05,1.06422e-05,1.35818e-05,2
-2.04003e-05,4.4549e-05,-6.95244e-07,-8.5214e-06,4.81467e-06,3.1587e-05,2.21384e-05,1.44525e-05,2
-3.31935e-05,3.30485e-05,-1.36629e-05,-1.63209e-05,2.29599e-05,3.62949e-05,2.5172e-05,1.33459e-05,2
-4.17017e-05,1.96075e-05,-2.71783e-05,-1.54238e-05,3.19732e-05,2.72591e-05,2.31124e-05,1.02192e-05,2
-4.10638e-05,1.55823e-05,-3.177e-05,-1.34136e-05,2.79235e-05,1.49982e-05,2.08896e-05,8.28588e-06,2
-2.83536e-05,2.3813e-05,-2.73702e-05,-1.85298e-05,1.84429e-05,4.47381e-06,2.42207e-05,6.75104e-06,2
-8.02741e-06,3.71127e-05,-2.01914e-05,-2.9124e-05,1.12816e-05,-7.50706e-06,3.01349e-05,6.96572e-06,2
4.77963e-06,4.53476e-05,-1.51445e-05,-3.43549e-05,1.22545e-06,-1.37133e-05,3.26211e-05,1.05802e-05,2
-1.79211e-06,4.31636e-05,-1.34199e-05,-2.31631e-05,-2.28406e-05,2.47966e-06,3.41383e-05,1.41783e-05,2
-2.34165e-05,3.28721e-05,-1.37695e-05,8.27798e-06,-6.51788e-05,3.39387e-05,3.76038e-05,1.33396e-05,2
-4.50659e-05,2.07465e-05,-1.50883e-05,4.16986e-05,-0.000111899,5.35062e-05,3.60927e-05,9.84875e-06,2
-5.45205e-05,1.12162e-05,-1.75938e-05,4.76099e-05,-0.000136775,4.40833e-05,2.63144e-05,7.06213e-06,2
-4.91975e-05,4.6689e-06,-2.01817e-05,2.22196e-05,-0.000119139,8.95193e-06,1.43381e-05,4.40441e-06,2
-3.69854e-05,-5.68961e-07,-2.09306e-05,-2.98478e-06,-5.99679e-05,-2.98688e-05,1.07922e-05,1.37631e-06,2
-2.58832e-05,-8.01605e-06,-1.99417e-05,-2.76408e-06,1.96013e-05,-3.6045e-05,2.0769e-05,-1.31928e-06,2
-1.49022e-05,-2.18227e-05,-1.70434e-05,1.41205e-05,8.57435e-05,-1.73414e-06,3.82232e-05,-2.84324e-06,2
-4.83468e-06,-4.09387e-05,-1.20701e-05,2.16711e-05,0.000107449,3.54797e-05,5.09463e-05,-3.24081e-06,2
-1.11602e-06,-5.74742e-05,-5.71087e-06,1.26368e-05,9.12188e-05,4.86697e-05,5.15724e-05,-3.58892e-06,2
-1.34018e-05,-7.06159e-05,-1.42764e-06,1.67277e-06,7.1539e-05,5.30027e-05,4.0877e-05,-4.65552e-06,2
-4.7545e-05,-7.98139e-05,6.76489e-08,-5.77623e-06,6.14828e-05,6.18623e-05,2.77363e-05,-4.14281e-06,2
-9.05112e-05,-7.5383e-05,2.16202e-06,-1.59099e-05,6.96215e-05,6.8027e-05,2.33783e-05,-2.8177e-06,2
-0.000122795,-5.61773e-05,5.82949e-06,-2.61644e-05,9.26534e-05,7.24952e-05,2.86307e-05,-4.45458e-06,2
-0.00014515,-2.90856e-05,8.70554e-06,-2.95605e-05,9.08021e-05,8.16969e-05,3.66867e-05,-8.29464e-06,2
-0.000169163,8.14653e-06,9.03396e-06,-2.52701e-05,4.56813e-05,9.16979e-05,4.06893e-05,-1.03428e-05,2
-0.000179842,5.7543e-05,9.38764e-06,-1.4665e-05,-1.81861e-05,0.00010109,3.63234e-05,-8.57252e-06,2
-0.000133369,9.80377e-05,1.08895e-05,-3.98796e-07,-7.15376e-05,0.000122442,2.78122e-05,-6.81027e-06,2
-2.46339e-05,0.000106455,1.2006e-05,1.20111e-05,-9.97715e-05,0.000166108,2.23644e-05,-7.11515e-06,2
7.84073e-05,8.76157e-05,9.45255e-06,1.58823e-05,-0.000102712,0.00022067,2.01784e-05,-6.70538e-06,2
0.000114278,5.99529e-05,-3.78226e-07,9.46984e-06,-0.00010154,0.000241746,1.6325e-05,-4.29208e-06,2
8.18322e-05,3.7653e-05,-1.32905e-05,-3.40701e-06,-0.000113088,0.000164814,8.48649e-06,-2.83851e-06,2
3.00737e-05,3.07239e-05,-2.32151e-05,-1.36487e-05,-0.000110841,-2.92648e-05,-5.00299e-06,-3.09395e-06,2
-5.68257e-08,4.26242e-05,-2.44585e-05,-1.59207e-05,-5.48671e-05,-0.000260662,-2.24221e-05,-2.17096e-06,2
-3.5531e-06,6.0728e-05,-1.61224e-05,-9.9425e-06,4.43463e-05,-0.000396205,-3.21875e-05,-1.03453e-06,2
5.69239e-06,6.94237e-05,-5.76465e-06,-1.11081e-06,0.000124909,-0.00037984,-2.91681e-05,-2.10424e-06,2
1.32125e-05,6.80833e-05,5.47415e-08,5.23863e-06,0.000145481,-0.000298316,-1.85741e-05,-4.42389e-06,2
1.4733e-05,6.41161e-05,1.59292e-06,1.07828e-05,0.000128008,-0.000243689,-5.09963e-06,-5.42188e-06,2
1.04848e-05,6.11936e-05,2.2049e-06,1.59426e-05,0.000114528,-0.000205738,9.03892e-06,-5.31593e-06,2
3.69402e-06,5.68199e-05,2.57733e-06,1.69085e-05,0.000112757,-0.000147218,1.73938e-05,-3.89153e-06,2
-6.70356e-06,4.95905e-05,1.28457e-06,1.12628e-05,0.00010355,-8.08433e-05,1.87738e-05,-5.92918e-07,2
-1.92034e-05,3.83953e-05,-2.53787e-06,2.74494e-06,8.07111e-05,-4.11834e-05,1.90677e-05,2.60184e-06,2
-2.86719e-05,2.40906e-05,-6.97006e-06,-3.90376e-06,6.18956e-05,-3.51614e-05,1.99784e-05,3.14529e-06,2
-2.99168e-05,1.25021e-05,-9.71105e-06,-7.08682e-06,6.33127e-05,-4.33659e-05,2.16236e-05,1.18513e-06,2
-2.61163e-05,5.60993e-06,-9.46334e-06,-7.82989e-06,6.18463e-05,-4.69528e-05,2.36936e-05,-1.10429e-06,2
-2.43412e-05,-5.17732e-07,-8.92576e-06,-5.58295e-06,1.83951e-05,-4.30273e-05,2.33529e-05,-1.94565e-06,2
-3.15691e-05,-6.99871e-06,-9.66863e-06,-3.54672e-06,-4.22859e-05,-3.6647e-05,1.83927e-05,-1.79924e-06,2
-4.71994e-05,-1.07045e-05,-1.10377e-05,-6.38795e-06,-5.68683e-05,-2.68784e-05,1.77797e-05,8.31722e-07,2
-6.56178e-05,-9.59225e-06,-1.14129e-05,-1.23318e-05,-2.64008e-05,-6.28693e-06,2.88057e-05,6.65691e-06,2
-3.22376e-05,6.58643e-05,5.81526e-06,1.47939e-05,-8.70291e-05,-3.27404e-05,9.42316e-05,2.83695e-06,2
-2.7477e-05,7.28432e-05,1.34443e-05,2.50262e-05,-8.79402e-05,-6.08011e-05,8.00851e-05,2.0736e-06,2
-4.36695e-06,5.27334e-05,1.05329e-05,3.03389e-05,5.17789e-05,-7.20682e-05,4.18145e-05,9.45665e-07,2
-6.35483e-06,2.15101e-05,2.81752e-08,2.49881e-05,0.000168255,-4.28892e-05,-8.9317e-06,3.35671e-07,2
-2.27049e-05,7.40911e-06,-9.33142e-06,1.78925e-05,0.000137878,1.2766e-05,-5.46561e-05,-1.63383e-06,2
-3.60947e-05,1.27359e-05,-1.31804e-05,1.83732e-05,2.35862e-05,3.44034e-05,-7.51839e-05,-5.01091e-06,2
-4.37959e-05,1.9721e-05,-1.53665e-05,1.90945e-05,-3.19896e-05,5.40747e-06,-6.36491e-05,-6.83045e-06,2
-5.20614e-05,2.03914e-05,-1.92963e-05,1.45967e-05,6.87097e-06,-5.1547e-05,-2.75716e-05,-4.68172e-06,2
-6.22838e-05,1.31683e-05,-2.45947e-05,6.97389e-06,8.57483e-05,-0.000102244,4.04185e-06,2.93038e-07,2
-6.57497e-05,4.02237e-06,-2.92081e-05,5.32807e-08,0.000143471,-0.000134051,1.9877e-05,3.72589e-06,2
-5.58526e-05,4.24909e-07,-3.05447e-05,-1.05305e-05,0.000159252,-0.000159672,2.25962e-05,5.72488e-06,2
-3.60369e-05,5.35093e-06,-2.90734e-05,-3.03999e-05,0.000145504,-0.000172185,1.57441e-05,8.07997e-06,2
-1.90278e-05,1.50276e-05,-2.62309e-05,-5.33447e-05,0.000121414,-0.000147131,9.95438e-06,9.21614e-06,2
-5.58582e-06,2.29173e-05,-2.20369e-05,-6.78601e-05,0.00010508,-9.15036e-05,9.33656e-06,8.81534e-06,2
1.18737e-05,2.63826e-05,-1.67888e-05,-7.1415e-05,8.66378e-05,-4.44036e-05,6.957e-06,8.16782e-06,2
3.17312e-05,2.61811e-05,-1.32146e-05,-7.0691e-05,5.24054e-05,-1.82023e-05,3.01663e-06,8.23126e-06,2
3.39189e-05,2.33051e-05,-1.10451e-05,-6.44157e-05,1.29216e-05,8.52935e-06,9.44593e-06,9.66528e-06,2
9.66834e-06,1.62768e-05,-7.46602e-06,-4.42457e-05,-1.10514e-06,5.00486e-05,2.20626e-05,1.23116e-05,2
-3.00663e-05,5.22192e-06,-4.49694e-06,-1.34568e-05,5.02011e-06,8.37677e-05,2.57266e-05,1.26465e-05,2
-6.20018e-05,-9.98777e-06,-7.72188e-06,8.427e-06,3.25368e-06,8.60792e-05,1.71525e-05,9.09122e-06,2
-6.93441e-05,-2.29382e-05,-1.56345e-05,1.19192e-05,-1.7624e-05,6.53139e-05,9.0163e-06,6.02784e-06,2
-5.47724e-05,-2.36713e-05,-1.98249e-05,3.09667e-06,-4.13972e-05,4.74174e-05,8.70307e-06,4.55825e-06,2
-3.76672e-05,-7.60307e-06,-1.65801e-05,-4.89759e-06,-6.04298e-05,4.15907e-05,1.12682e-05,3.56576e-06,2
-3.10638e-05,1.59787e-05,-1.05357e-05,-3.07034e-06,-8.28916e-05,3.94557e-05,1.00335e-05,1.79164e-06,2
-3.58574e-05,3.20797e-05,-5.40412e-06,8.10502e-06,-0.000113587,3.05068e-05,5.75537e-06,-3.1514e-06,2
-4.07202e-05,3.91431e-05,-1.64573e-06,1.94394e-05,-0.000135558,1.40166e-05,5.90963e-06,-9.75458e-06,2
-3.97904e-05,4.35528e-05,3.89579e-07,1.41818e-05,-0.000129451,-4.16957e-06,1.56587e-05,-1.30099e-05,2
-4.22344e-05,4.15674e-05,1.57247e-06,-3.91999e-06,-9.89324e-05,-8.24445e-06,2.81288e-05,-1.12246e-05,2
-4.52259e-05,3.47575e-05,1.47298e-06,2.71514e-06,-4.34681e-05,1.47311e-05,3.73342e-05,-9.3336e-06,2
-4.69589e-05,2.57558e-05,-7.49667e-07,3.65724e-05,3.7786e-05,3.8477e-05,4.01126e-05,-1.06077e-05,2
-5.23801e-05,1.18026e-05,-6.74461e-06,4.84068e-05,9.82776e-05,3.35351e-05,3.54706e-05,-1.2651e-05,2
-5.48626e-05,1.3246e-06,-1.02066e-05,2.61258e-05,0.000103958,-2.79608e-06,2.63656e-05,-1.295e-05,2
-4.91882e-05,3.68858e-06,-7.45536e-06,-3.06121e-06,8.58847e-05,-4.89167e-05,1.83531e-05,-1.24509e-05,2
-4.08833e-05,1.42817e-05,-1.73554e-06,-1.14726e-05,7.13206e-05,-7.33515e-05,1.85194e-05,-1.08422e-05,2
-3.67414e-05,1.86066e-05,3.06337e-06,7.20664e-06,5.94716e-05,-6.7592e-05,2.30786e-05,-7.79894e-06,2
-4.0752e-05,1.13957e-05,5.98511e-06,3.34281e-05,4.26875e-05,-3.78681e-05,2.17291e-05,-5.10115e-06,2
-4.86585e-05,1.03883e-06,7.48528e-06,4.35043e-05,3.03512e-05,-3.41218e-06,1.77246e-05,-4.24281e-06,2
-5.52321e-05,-3.06252e-06,4.82614e-06,3.05843e-05,2.11857e-05,1.19944e-05,1.63919e-05,-4.15116e-06,2
-5.68748e-05,-1.79017e-06,5.9285e-07,8.82775e-06,4.58344e-06,1.01396e-05,1.54978e-05,-1.70431e-06,2
-5.55155e-05,5.15833e-07,-2.36178e-06,-9.65725e-06,-1.91554e-05,1.21138e-05,1.79545e-05,2.64269e-06,2
-5.40715e-05,2.63666e-06,-2.03773e-06,-2.07348e-05,-4.08286e-05,3.06955e-05,2.24548e-05,5.97786e-06,2
-5.52552e-05,6.46936e-06,-5.87238e-07,-2.55404e-05,-6.56438e-05,5.38792e-05,2.27997e-05,7.03216e-06,2
-5.89734e-05,1.16563e-05,-8.08785e-08,-2.45575e-05,-0.000114366,6.83314e-05,1.80132e-05,6.0319e-06,2
-6.19291e-05,1.39103e-05,-2.85691e-06,-2.2524e-05,-0.000187746,7.05773e-05,1.39965e-05,3.51091e-06,2
-6.08448e-05,1.09375e-05,-1.03939e-05,-2.78654e-05,-0.000243252,6.0061e-05,1.16737e-05,1.52948e-06,2
-5.36385e-05,7.43317e-06,-1.76225e-05,-4.11494e-05,-0.000232367,3.73346e-05,8.49758e-06,6.68698e-07,2
-3.93094e-05,9.43147e-06,-1.79624e-05,-5.0138e-05,-0.000162437,4.53876e-06,3.00894e-06,7.22802e-07,2
-2.2161e-05,1.44397e-05,-1.3446e-05,-4.00763e-05,-9.24439e-05,-3.32845e-05,-3.46955e-06,1.93958e-06,2
-1.25969e-05,1.66208e-05,-1.06733e-05,-1.3621e-05,-5.42791e-05,-5.85769e-05,-1.09233e-05,4.0758e-06,2
-1.32219e-05,1.65656e-05,-1.10812e-05,1.09605e-05,-2.24007e-06,-5.9204e-05,-1.6859e-05,6.12294e-06,2
-1.23695e-05,1.72745e-05,-1.23591e-05,2.5845e-05,9.95255e-05,-4.87815e-05,-1.56838e-05,7.15028e-06,2
5.19849e-06,1.73367e-05,-1.23038e-05,3.21165e-05,0.000195532,-4.38352e-05,-6.66606e-06,6.90794e-06,2
3.0492e-05,1.14887e-05,-1.52905e-05,2.45469e-05,0.000222186,-4.7072e-05,9.25737e-06,3.56164e-06,2
4.01923e-05,-2.68575e-07,-2.18168e-05,1.01597e-05,0.00019668,-4.63659e-05,2.84413e-05,2.09371e-07,2
3.15266e-05,-8.25791e-06,-2.68682e-05,-6.06207e-07,0.000177608,-3.08512e-05,4.31595e-05,-2.8274e-07,2
1.46389e-05,-6.17382e-06,-2.52129e-05,-2.36532e-06,0.000177355,-2.80458e-06,4.65175e-05,2.35286e-08,2
-1.25119e-06,2.15571e-06,-1.41302e-05,1.6473e-06,0.000134739,2.7594e-05,4.1757e-05,1.01664e-06,2
-7.9995e-06,9.99508e-06,-1.7139e-06,1.08908e-06,4.81082e-05,3.2779e-05,3.35868e-05,2.57342e-06,2
-1.16502e-05,1.62934e-05,5.3867e-06,-2.91233e-06,2.94183e-06,1.32432e-06,2.32142e-05,5.03221e-06,2
-2.16861e-05,2.31054e-05,9.82163e-06,-5.83237e-06,2.38005e-05,-3.76838e-05,1.65739e-05,6.75594e-06,2
-3.81862e-05,2.97947e-05,1.50903e-05,-5.84976e-06,6.22723e-05,-5.5481e-05,2.04316e-05,5.86386e-06,2
-5.85743e-05,3.33006e-05,2.19e-05,-2.44101e-06,8.20545e-05,-4.94735e-05,2.84909e-05,4.47889e-06,2
-7.4988e-05,3.19686e-05,2.58458e-05,2.16629e-06,8.64184e-05,-3.12837e-05,3.06822e-05,3.64039e-06,2
-8.00623e-05,2.65536e-05,2.4667e-05,7.80766e-07,9.07655e-05,-7.71105e-06,3.49112e-05,2.94948e-06,2
-7.82822e-05,2.21716e-05,2.16733e-05,-6.18856e-06,9.57342e-05,1.14185e-05,4.66603e-05,3.73639e-06,2
-7.58694e-05,1.97999e-05,1.92915e-05,-1.18967e-05,9.71328e-05,2.53695e-05,5.77333e-05,5.61882e-06,2
-7.31209e-05,1.65758e-05,1.32695e-05,-1.34043e-05,9.84313e-05,3.51978e-05,6.26853e-05,6.32658e-06,2
-6.37623e-05,1.5624e-05,2.16897e-06,-1.11312e-05,9.9571e-05,3.5035e-05,6.44829e-05,6.17432e-06,2
-4.08715e-05,2.14447e-05,-1.07516e-05,-6.95981e-06,9.82932e-05,1.63447e-05,6.67709e-05,7.04095e-06,2
-7.42334e-06,2.9865e-05,-2.36393e-05,-6.38342e-06,9.52591e-05,-1.36229e-05,7.09205e-05,7.70881e-06,2
2.13007e-05,3.19469e-05,-3.48291e-05,-1.46452e-05,8.65367e-05,-2.83877e-05,7.2487e-05,6.22597e-06,2
2.91413e-05,2.81606e-05,-4.00612e-05,-2.5826e-05,6.67056e-05,-1.59704e-05,6.19129e-05,3.02093e-06,2
1.44631e-05,2.34854e-05,-3.58013e-05,-3.01e-05,3.9867e-05,5.45923e-06,4.03984e-05,-7.33101e-08,2
-7.67114e-06,2.13426e-05,-2.46484e-05,-2.43728e-05,1.51078e-05,1.32163e-05,1.57011e-05,-1.83951e-06,2
-1.91832e-05,1.9453e-05,-1.36634e-05,-1.46873e-05,-5.53947e-06,9.75434e-06,-1.17262e-05,-2.09446e-06,2
-2.16784e-05,9.09748e-06,-9.90964e-06,-8.07677e-06,-2.35593e-05,3.40402e-06,-3.96935e-05,-6.93801e-07,2
-3.02127e-05,-1.20518e-05,-1.38398e-05,-7.37275e-06,-3.8858e-05,-5.26423e-06,-6.07823e-05,1.545e-07,2
-4.28032e-05,-2.70295e-05,-1.7468e-05,-9.02174e-06,-4.92692e-05,-9.56141e-06,-7.54048e-05,-1.03679e-06,2
-4.85785e-05,-2.43405e-05,-1.59979e-05,-8.24504e-06,-5.30861e-05,9.70837e-07,-8.39096e-05,-1.12226e-06,2
-5.01532e-05,-1.57211e-05,-1.60116e-05,-1.2502e-05,-5.52508e-05,7.89706e-06,-8.70355e-05,2.06089e-06,2
-5.23021e-05,-1.14873e-05,-1.97705e-05,-2.739e-05,-5.29827e-05,-1.93381e-06,-8.13935e-05,4.96939e-06,2
-5.35662e-05,-7.65883e-06,-1.99182e-05,-3.88646e-05,-2.89808e-05,-2.07285e-06,-5.97192e-05,6.06843e-06,2
-5.1658e-05,-7.38381e-07,-1.35575e-05,-3.83171e-05,5.20943e-06,1.73947e-05,-2.88625e-05,5.89917e-06,2
-4.87784e-05,2.16959e-06,-8.87577e-06,-3.37788e-05,6.68151e-06,3.85143e-05,-1.814e-06,4.71309e-06,2
-4.2467e-05,3.61847e-06,-6.74209e-06,-2.7045e-05,-3.37748e-05,5.18439e-05,1.89869e-05,2.38218e-06,2
-3.19193e-05,6.47064e-06,-5.31453e-06,-1.51502e-05,-8.21498e-05,4.7896e-05,3.09957e-05,5.13801e-08,2
-2.65343e-05,1.94785e-06,-8.38613e-06,-9.13786e-06,-0.000104534,3.18956e-05,3.21303e-05,9.63266e-07,2
-3.03389e-05,-7.17842e-06,-1.35474e-05,-1.35305e-05,-9.00722e-05,1.54915e-05,2.61205e-05,4.66326e-06,2
-3.48258e-05,-1.25276e-05,-1.76584e-05,-2.19844e-05,-6.24948e-05,-5.98954e-06,1.79461e-05,7.49725e-06,2
-3.49218e-05,-1.60204e-05,-2.10084e-05,-2.14932e-05,-4.27499e-05,-4.44761e-05,1.20359e-05,8.93357e-06,2
-3.31973e-05,-1.83297e-05,-2.15685e-05,-5.52937e-06,-3.09972e-05,-9.20478e-05,1.32535e-05,8.87585e-06,2
-3.31201e-05,-1.14888e-05,-1.87362e-05,1.60347e-05,-3.10846e-05,-0.000122635,2.28605e-05,6.96592e-06,2
-4.03097e-05,4.15322e-06,-1.55481e-05,2.48402e-05,-4.30584e-05,-0.000120868,3.53575e-05,3.8927e-06,2
-5.77883e-05,1.96604e-05,-1.45457e-05,1.62389e-05,-5.05504e-05,-9.28938e-05,4.37559e-05,9.31867e-07,2
-7.30291e-05,3.37253e-05,-1.33358e-05,1.21847e-05,-3.02944e-05,-6.63388e-05,4.01631e-05,-1.45794e-06,2
-6.85826e-05,4.5591e-05,-8.99399e-06,1.93597e-05,2.00796e-05,-5.72397e-05,2.81496e-05,-3.12934e-06,2
-4.75983e-05,4.89678e-05,-4.30268e-06,2.19439e-05,7.17601e-05,-5.56182e-05,2.23008e-05,-3.85559e-06,2
-2.51361e-05,4.29521e-05,-1.22818e-07,1.12862e-05,8.30972e-05,-4.04531e-05,2.95124e-05,-4.13818e-06,2
-1.12094e-05,3.40498e-05,4.66144e-06,-6.81413e-07,4.73011e-05,-1.11389e-05,3.64546e-05,-3.1109e-06,2
-7.75126e-06,2.60204e-05,1.08147e-05,-5.25936e-06,-3.5462e-07,1.33555e-05,3.09598e-05,-2.86912e-06,2
-1.63436e-05,1.88462e-05,1.53713e-05,-3.86188e-06,-1.90225e-05,1.69422e-05,1.6481e-05,-4.48705e-06,2
-3.37302e-05,1.17915e-05,1.4492e-05,-1.65749e-06,3.48301e-06,-1.72866e-06,3.27036e-06,-6.04482e-06,2
-4.95589e-05,4.32418e-06,8.19228e-06,1.84228e-06,3.55662e-05,-2.47082e-05,-3.81838e-06,-5.91779e-06,2
-5.62321e-05,-1.7219e-06,-4.47757e-07,8.53816e-06,3.91924e-05,-1.67865e-05,-7.90615e-06,-4.25344e-06,2
-5.74303e-05,-5.31022e-06,-8.51707e-06,8.94808e-06,1.9041e-05,2.61641e-05,-1.00307e-05,-1.1974e-06,2
-5.73542e-05,-7.0274e-06,-1.44942e-05,-1.18248e-06,6.57615e-06,6.38287e-05,-8.44889e-06,2.83864e-06,2
-5.33735e-05,-3.87186e-06,-1.5363e-05,-1.07948e-05,1.58673e-05,7.04916e-05,-3.0621e-06,5.56632e-06,2
-4.01351e-05,4.34191e-06,-9.70648e-06,-9.81843e-06,3.33199e-05,5.82795e-05,5.94093e-06,4.636e-06,2
-2.00406e-05,7.81846e-06,-3.58709e-06,-9.33765e-07,4.24546e-05,4.75882e-05,8.36203e-06,2.08913e-06,2
-5.38742e-06,3.52442e-06,-3.92627e-06,-1.20839e-08,4.11145e-05,4.51616e-05,-1.64651e-06,4.71595e-07,2
6.46057e-06,3.83451e-06,-7.74258e-06,-6.96998e-06,3.69244e-05,4.7186e-05,-7.62904e-06,2.16634e-08,2
2.07341e-05,1.64607e-05,-9.45017e-06,-1.15217e-05,3.59785e-05,4.40446e-05,-7.23424e-08,7.4231e-07,2
3.08596e-05,3.20913e-05,-1.15313e-05,-6.41353e-06,3.01987e-05,1.43548e-05,1.09273e-05,5.20189e-07,2
3.78375e-05,4.27309e-05,-1.38126e-05,1.28234e-05,1.43312e-05,-4.89496e-05,1.25674e-05,-1.20778e-06,2
4.52652e-05,5.21382e-05,-1.24479e-05,2.6303e-05,9.78587e-07,-0.000111287,7.11798e-06,-9.85365e-07,2
4.24224e-05,5.98979e-05,-8.48734e-06,1.95797e-05,1.44929e-06,-0.000142166,-2.35339e-06,5.44614e-07,2
2.14423e-05,5.54127e-05,-7.22284e-06,-3.72604e-06,9.23484e-07,-0.000141261,-1.71735e-05,1.46639e-06,2
-9.65718e-06,3.77273e-05,-1.10699e-05,-3.08941e-05,-1.29093e-05,-0.000128124,-2.86935e-05,1.72885e-06,2
-3.40358e-05,1.84455e-05,-1.63508e-05,-5.50209e-05,-2.72972e-05,-0.000114621,-3.23993e-05,-3.64149e-07,2
-4.59347e-05,2.3787e-06,-2.07304e-05,-7.03452e-05,-2.09871e-05,-0.000100631,-2.96757e-05,-5.12301e-06,2
-5.64223e-05,-1.41893e-05,-2.32582e-05,-6.58675e-05,9.21103e-06,-8.14983e-05,-1.64601e-05,-1.14131e-05,2
-6.76343e-05,-3.18337e-05,-2.36613e-05,-2.84769e-05,4.35318e-05,-6.21971e-05,5.78857e-06,-1.62411e-05,2
-6.99075e-05,-4.38308e-05,-2.26335e-05,3.76111e-05,6.23925e-05,-5.06439e-05,2.52089e-05,-1.85224e-05,2
-5.77879e-05,-4.08691e-05,-1.93671e-05,9.14134e-05,6.34026e-05,-4.20581e-05,3.25499e-05,-1.89289e-05,2
-3.53526e-05,-2.05405e-05,-1.26017e-05,9.81266e-05,5.64066e-05,-3.10416e-05,2.81705e-05,-1.80563e-05,2
-1.25937e-05,4.91344e-06,-7.41385e-06,6.87792e-05,4.45662e-05,-2.51235e-05,1.8319e-05,-1.63912e-05,2
-2.79723e-06,2.08934e-05,-8.42296e-06,3.40737e-05,2.73088e-05,-2.66361e-05,9.65901e-06,-1.50419e-05,2
-1.57476e-05,2.4943e-05,-1.16842e-05,6.04616e-06,1.2138e-05,-1.1984e-05,7.06275e-06,-1.40674e-05,2
-4.83881e-05,2.23508e-05,-1.00598e-05,-1.43696e-05,1.19044e-05,2.56177e-05,1.21761e-05,-1.2885e-05,2
-8.33511e-05,1.71285e-05,-4.81077e-06,-2.42551e-05,2.64263e-05,5.13346e-05,2.11097e-05,-1.08906e-05,2
-0.000100858,1.24536e-05,-7.8228e-07,-2.21108e-05,3.4421e-05,4.19996e-05,2.84905e-05,-8.14795e-06,2
-0.000101553,8.79499e-06,3.88917e-07,-1.62604e-05,5.68397e-06,2.40166e-05,3.34932e-05,-5.3388e-06,2
-0.000101861,3.70341e-06,-1.15148e-06,-1.22034e-05,-4.19833e-05,1.97891e-05,3.56866e-05,-2.25928e-06,2
-0.000107546,-6.31363e-07,-2.52155e-06,-8.50765e-06,-5.56062e-05,2.21107e-05,3.23269e-05,1.51814e-07,2
-0.000109432,-7.14792e-07,-1.77391e-06,-7.10258e-06,-3.24456e-05,1.59648e-05,2.64797e-05,1.67453e-06,2
-9.3923e-05,7.0499e-06,1.15832e-06,-9.08283e-06,-6.2066e-06,3.93225e-06,2.11305e-05,3.07436e-06,2
-5.99111e-05,2.13469e-05,5.7456e-06,-7.6834e-06,-5.88637e-06,2.11919e-06,1.64017e-05,3.68078e-06,2
-3.56534e-06,3.70565e-05,1.04189e-05,-8.91817e-07,-2.53936e-05,1.4985e-05,1.24474e-05,4.06022e-06,2
4.85283e-05,3.93896e-05,9.70371e-06,2.0154e-06,-3.7536e-05,4.62438e-05,6.83936e-06,4.51411e-06,2
5.17001e-05,2.24516e-05,2.66468e-06,-1.08078e-06,-3.62472e-05,9.74367e-05,3.40237e-06,3.22747e-06,2
2.28752e-05,7.69313e-06,-3.56723e-06,-3.56634e-06,-2.51433e-05,0.000153327,2.19588e-06,1.96617e-06,2
8.78045e-07,9.08469e-06,-3.9793e-06,-1.24257e-06,-8.85131e-06,0.000201112,4.16505e-06,1.89873e-06,2
-2.14135e-06,2.65089e-05,-2.50586e-07,1.42977e-06,6.35705e-06,0.000226928,1.15846e-05,1.80976e-06,2
-4.61953e-06,4.58434e-05,3.4068e-06,-2.47732e-06,8.22874e-06,0.000217387,1.73967e-05,1.77355e-06,2
-1.46044e-05,5.19622e-05,2.73388e-06,-1.33966e-05,-6.58427e-06,0.000170041,2.16588e-05,1.47542e-06,2
-1.73109e-05,4.11267e-05,-2.41366e-06,-2.46644e-05,-2.6559e-05,9.09665e-05,2.18126e-05,2.54526e-06,2
6.57434e-07,2.61387e-05,-7.69696e-06,-2.82456e-05,-3.44214e-05,-2.99973e-06,1.31315e-05,4.48702e-06,2
2.80818e-05,1.89636e-05,-7.41491e-06,-2.27692e-05,-2.55484e-05,-8.19629e-05,4.8433e-06,4.40914e-06,2
4.79261e-05,2.21037e-05,-1.00119e-07,-1.32749e-05,-5.78913e-06,-0.000113657,6.70823e-06,2.98838e-06,2
5.46991e-05,3.22366e-05,5.77909e-06,-7.4788e-06,2.50316e-05,-9.95718e-05,1.56592e-05,3.0258e-06,2
4.5785e-05,3.78885e-05,3.5689e-06,-9.07841e-06,5.88977e-05,-8.62002e-05,2.57111e-05,4.80636e-06,2
2.52243e-05,3.48441e-05,-3.25223e-06,-1.27344e-05,7.61387e-05,-0.00011407,3.35844e-05,4.97007e-06,2
-1.94844e-07,2.78672e-05,-8.38878e-06,-9.43388e-06,6.71015e-05,-0.000159689,3.40606e-05,3.49156e-06,2
-1.9812e-05,2.34301e-05,-1.04915e-05,5.08208e-07,4.6188e-05,-0.000171635,2.70887e-05,3.73026e-06,2
-2.96236e-05,2.0917e-05,-1.03106e-05,6.16585e-06,3.2101e-05,-0.000140452,1.86007e-05,6.0381e-06,2
-3.06037e-05,2.08039e-05,-8.14147e-06,-1.23594e-06,2.85341e-05,-9.75922e-05,1.27988e-05,7.12756e-06,2
-2.93801e-05,2.05086e-05,-6.3203e-06,-1.69407e-05,2.85381e-05,-6.75646e-05,1.14941e-05,6.41566e-06,2
-3.07479e-05,1.64826e-05,-6.66685e-06,-2.46266e-05,2.21465e-05,-5.78977e-05,1.25116e-05,4.79243e-06,2
-3.86415e-05,8.83184e-06,-7.7315e-06,-1.35693e-05,7.19569e-06,-5.67746e-05,1.26031e-05,3.25256e-06,2
-4.81211e-05,5.43779e-06,-7.39225e-06,1.0141e-05,4.98401e-06,-4.74479e-05,1.46813e-05,3.16769e-06,2
-5.17477e-05,8.56432e-06,-5.93739e-06,2.92204e-05,2.52758e-05,-3.4761e-05,1.94783e-05,3.54677e-06,2
-4.94398e-05,1.10924e-05,-5.0742e-06,2.90957e-05,5.56527e-05,-3.21621e-05,2.39395e-05,3.95494e-06,2
-4.25055e-05,1.12161e-05,-4.59829e-06,9.62916e-06,8.53374e-05,-3.96117e-05,1.89204e-05,5.58972e-06,2
-3.18139e-05,1.20457e-05,-5.26448e-06,-1.0074e-05,8.93055e-05,-4.34032e-05,4.2742e-06,5.84095e-06,2
-2.45096e-05,1.46742e-05,-6.10399e-06,-1.95589e-05,5.1682e-05,-3.56312e-05,-1.88314e-07,3.41455e-06,2
-2.20675e-05,1.73434e-05,-5.10759e-06,-2.59479e-05,5.80542e-06,-2.59225e-05,4.30836e-06,1.79036e-06,2
-1.96352e-05,1.73107e-05,-2.70595e-06,-2.67053e-05,-9.54746e-07,-1.47647e-05,5.6658e-07,7.57681e-07,2
-1.9975e-05,1.41016e-05,-9.33699e-07,-2.05097e-05,3.58212e-05,5.13697e-06,-6.89396e-06,6.64822e-07,2
-2.53029e-05,7.20206e-06,-4.12841e-06,-1.69755e-05,7.26138e-05,1.69045e-05,3.0806e-07,2.30282e-06,2
-3.47834e-05,-1.0704e-06,-1.08342e-05,-2.38379e-05,8.25172e-05,8.02802e-06,2.2637e-05,3.82473e-06,2
-4.29577e-05,-5.31238e-06,-1.53699e-05,-3.49348e-05,7.68527e-05,-3.52184e-06,4.82278e-05,5.15999e-06,2
-4.74976e-05,-9.37031e-06,-1.47796e-05,-4.08405e-05,6.50251e-05,-6.49009e-07,7.12955e-05,6.31648e-06,2
-4.84392e-05,-1.83374e-05,-1.30057e-05,-3.95223e-05,2.5677e-05,1.14093e-05,8.11643e-05,5.13948e-06,2
-4.69996e-05,-2.77924e-05,-1.26276e-05,-2.57228e-05,-5.27898e-05,2.30106e-05,7.20849e-05,3.40659e-06,2
-4.80339e-05,-2.76315e-05,-9.81897e-06,-2.12692e-06,-0.000129753,2.63188e-05,5.26956e-05,4.7985e-06,2
-5.30839e-05,-1.99028e-05,-3.74572e-06,1.70448e-05,-0.000154081,2.04248e-05,3.16155e-05,9.12193e-06,2
-5.52339e-05,-1.44607e-05,1.24377e-07,2.0432e-05,-0.000113187,1.07787e-05,1.05973e-05,1.43214e-05,2
-5.11568e-05,-1.61259e-05,-1.98637e-06,9.50992e-06,-5.21871e-05,1.73292e-07,-2.72703e-06,1.83109e-05,2
-4.80041e-05,-2.10225e-05,-8.34566e-06,-7.05742e-06,-1.94698e-05,-1.37722e-05,-1.57633e-06,1.94241e-05,2
-5.09289e-05,-2.12025e-05,-1.32981e-05,-2.4902e-05,-1.37475e-05,-2.89894e-05,5.38991e-06,1.90358e-05,2
-5.13889e-05,-9.3646e-06,-1.00325e-05,-4.1145e-05,-9.96095e-06,-3.10985e-05,5.05002e-06,2.01035e-05,2
-4.19933e-05,1.14408e-05,9.37247e-08,-5.10577e-05,1.15901e-05,-1.18711e-05,-4.15653e-06,2.06066e-05,2
-2.86783e-05,2.91252e-05,1.11333e-05,-5.41768e-05,7.42365e-05,1.11296e-05,-9.27978e-06,1.78096e-05,2
-1.95078e-05,3.95153e-05,1.94884e-05,-5.38108e-05,0.000150259,1.89704e-05,3.99534e-06,1.30993e-05,2
-1.69287e-05,4.59306e-05,2.11866e-05,-4.53201e-05,0.000172087,2.53054e-05,3.14642e-05,7.19974e-06,2
-2.14845e-05,4.62253e-05,1.63619e-05,-1.45637e-05,0.000144593,4.29415e-05,4.92254e-05,2.28887e-06,2
-3.22479e-05,3.8802e-05,1.26039e-05,4.52147e-05,0.000119028,6.02929e-05,4.21755e-05,5.8772e-07,2
-4.61568e-05,2.75502e-05,1.18324e-05,0.000110059,0.000109042,6.37874e-05,2.0334e-05,-1.07836e-08,2
-6.01831e-05,1.72098e-05,1.01989e-05,0.00013295,9.9911e-05,4.92096e-05,2.22734e-06,-1.78087e-06,2
-6.67013e-05,1.54234e-05,7.34193e-06,9.57886e-05,8.21171e-05,2.76856e-05,-4.22062e-06,-4.68244e-06,2
-5.7613e-05,2.34662e-05,6.94459e-06,4.62555e-05,6.55581e-05,1.9591e-05,-3.52176e-06,-4.76517e-06,2
-4.32421e-05,3.47812e-05,7.68133e-06,2.24331e-05,4.63128e-05,2.07243e-05,-4.51775e-06,-3.46233e-06,2
-3.60894e-05,4.33207e-05,6.70262e-06,1.40417e-05,1.23408e-05,1.39053e-05,-7.63662e-06,-4.09347e-06,2
-3.37632e-05,4.45558e-05,6.29118e-06,1.16347e-05,-2.14873e-05,7.60707e-06,-1.39378e-05,-6.21038e-06,2
-3.40291e-05,3.74003e-05,5.75574e-06,6.24956e-06,-5.44507e-05,1.57938e-05,-2.36595e-05,-7.9499e-06,2
-4.03714e-05,2.73313e-05,3.56845e-06,-3.37642e-06,-8.13058e-05,3.5986e-05,-2.45588e-05,-9.04654e-06,2
-4.51502e-05,1.93959e-05,-6.92844e-07,-1.31715e-05,-7.08227e-05,4.79107e-05,-1.64023e-05,-1.192e-05,2
-3.44887e-05,1.54481e-05,-7.31682e-06,-2.43039e-05,-1.57053e-05,2.91985e-05,-6.16851e-06,-1.60816e-05,2
-1.60143e-05,1.32433e-05,-1.57445e-05,-3.84266e-05,4.84417e-05,-1.79326e-05,7.2674e-06,-1.93696e-05,2
-6.95845e-06,8.11476e-06,-2.27148e-05,-4.61135e-05,8.59273e-05,-6.32722e-05,1.79883e-05,-1.96902e-05,2
-1.47256e-05,-9.26514e-07,-2.73081e-05,-3.78022e-05,8.53352e-05,-8.84185e-05,1.9347e-05,-1.87137e-05,2
-3.06812e-05,-7.96484e-06,-3.0707e-05,-1.78728e-05,5.44223e-05,-0.000103725,1.72613e-05,-1.92846e-05,2
-4.2333e-05,-7.55145e-06,-3.38919e-05,-2.5276e-06,7.29579e-06,-0.000120325,1.71605e-05,-2.06167e-05,2
-4.85527e-05,-3.89293e-06,-3.84103e-05,-4.92988e-06,-3.25767e-05,-0.000128403,1.37299e-05,-1.94339e-05,2
-5.7108e-05,-1.6997e-06,-4.13075e-05,-1.48307e-05,-3.72737e-05,-0.000111134,5.76413e-06,-1.61553e-05,2
-6.85757e-05,3.42517e-07,-3.8534e-05,-1.25121e-05,-1.54919e-05,-7.72823e-05,-4.17592e-06,-1.30998e-05,2
-7.34417e-05,1.79155e-06,-3.25456e-05,3.63709e-06,1.28695e-07,-5.23177e-05,-1.78011e-05,-1.0922e-05,2
-6.57934e-05,-2.6779e-06,-2.92524e-05,1.0589e-05,2.3399e-06,-4.38276e-05,-3.19508e-05,-9.64924e-06,2
-5.09387e-05,-1.11522e-05,-2.72846e-05,-3.57306e-06,3.11008e-06,-3.33361e-05,-3.72865e-05,-8.38474e-06,2
-3.54518e-05,-1.35384e-05,-2.07149e-05,-2.22099e-05,-5.1849e-06,-5.26208e-06,-3.15647e-05,-5.92843e-06,2
-2.15114e-05,-6.09796e-06,-9.64757e-06,-2.29375e-05,-2.24609e-05,2.71334e-05,-2.15612e-05,-2.96354e-06,2
-1.51847e-05,5.19549e-06,-1.55328e-06,-8.24522e-06,-2.30693e-05,3.39725e-05,-1.3003e-05,-2.5021e-06,2
-1.7446e-05,1.40267e-05,1.43465e-06,4.34234e-06,-3.16921e-06,1.67382e-05,-3.03471e-06,-4.90787e-06,2
-2.00834e-05,1.93076e-05,4.05178e-06,7.31293e-06,1.2653e-05,-5.54002e-06,9.73546e-06,-6.19644e-06,2
-1.90862e-05,2.2198e-05,6.19365e-06,4.33579e-06,8.80463e-06,-2.53311e-05,1.48807e-05,-5.44438e-06,2
-1.85694e-05,2.19829e-05,6.52602e-06,-2.30728e-06,-1.11312e-05,-3.32936e-05,1.11159e-05,-5.31336e-06,2
-1.66332e-05,2.16649e-05,4.64499e-06,-1.1836e-05,-2.44812e-05,-2.52414e-05,1.27323e-05,-4.59569e-06,2
-1.25381e-05,2.97402e-05,1.56897e-07,-1.83978e-05,-1.15016e-05,-1.26561e-05,2.73513e-05,-1.28607e-06,2
-1.22439e-05,4.20341e-05,-2.76886e-06,-2.13292e-05,1.46427e-05,-9.29683e-06,4.65535e-05,1.0826e-06,2
-1.68374e-05,4.14732e-05,-1.69969e-06,-3.00409e-05,3.42317e-05,-1.42745e-05,6.02878e-05,2.57386e-06,2
-2.00699e-05,2.59197e-05,-3.05857e-08,-4.86285e-05,4.16054e-05,-1.80058e-05,6.35453e-05,5.66938e-06,2
-1.88532e-05,1.24863e-05,-9.74197e-07,-6.64584e-05,3.62322e-05,-1.8078e-05,5.22777e-05,7.0452e-06,2
-2.06549e-05,8.8442e-06,-1.53539e-06,-6.69152e-05,2.31145e-05,-1.94467e-05,3.13457e-05,6.34633e-06,2
-3.112e-05,1.11386e-05,1.71495e-06,-3.28273e-05,-1.48132e-06,-2.49379e-05,1.77104e-05,4.38017e-06,2
-4.72181e-05,1.08476e-05,5.45713e-06,2.40741e-05,-4.51386e-05,-3.39819e-05,2.07058e-05,2.75992e-06,2
-6.44732e-05,-6.48782e-07,3.49001e-07,5.08087e-05,-9.61945e-05,-4.08233e-05,3.64636e-05,2.82502e-06,2
-8.36169e-05,-1.72347e-05,-1.26957e-05,2.69927e-05,-0.000130304,-3.50294e-05,5.26495e-05,4.66228e-06,2
-0.000101784,-2.30779e-05,-1.86841e-05,5.85148e-07,-0.000134835,-1.21322e-05,5.65325e-05,6.67777e-06,2
-0.000107966,-1.50116e-05,-1.20772e-05,1.04298e-05,-0.000111058,1.39615e-05,5.03266e-05,7.02454e-06,2
-9.72262e-05,-5.94844e-06,-2.57979e-06,2.97204e-05,-6.86523e-05,2.16969e-05,4.06873e-05,7.76683e-06,2
-7.69127e-05,-2.64346e-06,1.41732e-07,2.53405e-05,-1.75735e-05,1.19674e-05,2.89307e-05,9.10496e-06,2
-5.19372e-05,-9.72833e-07,-3.46023e-07,1.06522e-05,3.0618e-05,6.11598e-06,1.68622e-05,9.47622e-06,2
-1.90602e-05,4.22022e-06,5.19635e-07,1.08713e-05,5.95675e-05,9.64452e-06,7.06207e-06,9.21839e-06,2
1.59673e-05,1.38578e-05,-6.67439e-07,2.18712e-05,6.40715e-05,1.44673e-05,-3.24398e-06,8.53417e-06,2
3.1047e-05,2.59937e-05,-7.17461e-06,2.43905e-05,5.1304e-05,2.37441e-05,-2.42292e-05,7.20083e-06,2
1.36001e-05,3.47839e-05,-1.54652e-05,1.93312e-05,3.69217e-05,4.38869e-05,-5.89391e-05,7.26973e-06,2
-1.77208e-05,3.60295e-05,-2.11896e-05,1.86254e-05,3.32519e-05,6.64915e-05,-8.47453e-05,6.94074e-06,2
-3.28069e-05,2.9872e-05,-2.43911e-05,2.11426e-05,4.8405e-05,7.13844e-05,-7.92864e-05,5.57961e-06,2
-2.11584e-05,1.92349e-05,-2.77118e-05,1.86314e-05,8.37088e-05,4.57942e-05,-5.30502e-05,5.13618e-06,2
8.06696e-06,1.15397e-05,-3.12764e-05,1.54057e-05,0.000136419,2.89117e-06,-2.70022e-05,5.28788e-06,2
4.62728e-05,1.49532e-05,-2.8925e-05,1.89722e-05,0.000203928,-2.70838e-05,-6.69877e-06,6.49645e-06,2
7.59548e-05,2.77971e-05,-2.00855e-05,2.72289e-05,0.000264054,-4.03043e-05,1.07094e-05,7.31635e-06,2
7.66217e-05,3.40616e-05,-1.37539e-05,2.72029e-05,0.000273108,-5.76764e-05,2.01909e-05,6.69237e-06,2
5.15777e-05,2.70616e-05,-1.55165e-05,1.34986e-05,0.00020404,-6.83334e-05,1.85012e-05,4.24601e-06,2
2.49971e-05,1.71042e-05,-1.80388e-05,-3.80878e-06,9.75519e-05,-4.56876e-05,1.58086e-05,4.07372e-06,2
1.46342e-05,1.14505e-05,-1.60661e-05,-1.38854e-05,1.97958e-05,-5.02185e-06,2.12741e-05,8.41581e-06,2
1.35809e-05,7.15025e-06,-1.4921e-05,-1.75863e-05,-1.90691e-05,1.92673e-05,3.23487e-05,1.16137e-05,2
9.42176e-06,-2.66375e-07,-1.70106e-05,-2.02261e-05,-3.418e-05,2.20004e-05,4.03969e-05,9.58756e-06,2
-3.51285e-06,-7.75275e-06,-1.73282e-05,-2.38269e-05,-3.52243e-05,1.42682e-05,4.30505e-05,5.30713e-06,2
-2.08317e-05,-8.88835e-06,-1.31417e-05,-2.65138e-05,-3.13839e-05,2.33251e-08,4.25275e-05,5.71379e-06,2
-3.85648e-05,-5.45803e-06,-9.87884e-06,-2.61692e-05,-2.78771e-05,-9.85666e-06,3.92275e-05,9.17342e-06,2
-5.56977e-05,-2.79715e-06,-1.00461e-05,-2.42988e-05,-2.91175e-05,5.0717e-06,3.46993e-05,1.14301e-05,2
-6.79594e-05,2.73103e-08,-8.4125e-06,-2.06793e-05,-4.91571e-05,4.73467e-05,3.39322e-05,1.15603e-05,2
-7.32569e-05,6.00565e-06,-2.42615e-06,-1.62224e-05,-8.66031e-05,8.63235e-05,3.26139e-05,1.08626e-05,2
-7.37945e-05,1.27739e-05,1.89848e-06,-1.42843e-05,-0.000110919,8.67382e-05,2.09516e-05,1.03529e-05,2
-7.40404e-05,1.39259e-05,-1.32512e-06,-1.62567e-05,-0.000102788,5.66166e-05,2.81038e-06,9.05383e-06,2
-7.66533e-05,9.9426e-06,-8.38457e-06,-2.11938e-05,-7.4393e-05,2.83071e-05,-1.01479e-05,6.6429e-06,2
-8.20338e-05,7.92275e-06,-1.09686e-05,-3.11294e-05,-4.81299e-05,7.67193e-06,-1.21156e-05,3.55785e-06,2
-8.22957e-05,1.0575e-05,-6.97035e-06,-4.34545e-05,-2.27615e-05,-1.99727e-05,-3.96912e-06,-4.73663e-07,2
-6.59666e-05,1.56572e-05,-1.73002e-06,-5.22928e-05,7.62991e-06,-6.47734e-05,1.03976e-05,-5.83674e-06,2
-2.59909e-05,2.16735e-05,-6.4065e-07,-5.72635e-05,3.0847e-05,-0.000113665,2.80439e-05,-1.0732e-05,2
2.44218e-05,2.81641e-05,-1.51614e-06,-5.75594e-05,2.86523e-05,-0.000134821,4.79012e-05,-1.51999e-05,2
