ch1,ch2,ch3,ch4,ch5,ch6,ch7,ch8,class
1.22135e-05,5.51266e-05,1.39551e-05,-1.95777e-05,0.000105935,-9.18899e-05,1.33085e-05,-1.86603e-05,2
5.98613e-06,5.55933e-05,8.68191e-06,-1.02321e-06,9.6391e-05,-9.44386e-05,-2.08587e-06,-1.70339e-05,2
-9.4798e-06,4.1005e-05,-1.66001e-06,2.38989e-06,7.70149e-05,-9.61729e-05,-2.47147e-05,-1.28396e-05,2
-3.20403e-05,2.22022e-05,-9.22689e-06,-3.11612e-06,5.84606e-05,-8.98642e-05,-3.46662e-05,-6.63934e-06,2
-4.85161e-05,1.46396e-05,-8.80112e-06,-2.23356e-06,4.83652e-05,-7.48563e-05,-2.61904e-05,-1.54644e-06,2
-5.27714e-05,1.56587e-05,-1.16419e-05,6.47872e-06,4.27376e-05,-5.12957e-05,-6.06583e-06,8.79187e-07,2
-4.8156e-05,1.49982e-05,-2.12436e-05,1.86489e-05,3.81214e-05,-2.38234e-05,1.20748e-05,3.77407e-06,2
-4.43979e-05,6.9503e-06,-3.1282e-05,2.2435e-05,2.69344e-05,-6.58362e-06,1.77976e-05,7.21778e-06,2
-4.68902e-05,-1.88695e-06,-3.47078e-05,7.4111e-06,1.14531e-05,2.51492e-06,1.52699e-05,1.00939e-05,2
-5.01298e-05,-2.46349e-06,-2.68179e-05,-7.03789e-06,4.3101e-06,1.1686e-05,6.09741e-06,1.18403e-05,2
-4.96508e-05,4.61191e-06,-1.50117e-05,-6.29729e-06,4.35804e-06,1.6137e-05,-9.28358e-06,1.34431e-05,2
-4.54768e-05,1.25689e-05,-6.74735e-06,5.27561e-06,2.86941e-06,1.39714e-05,-1.80761e-05,1.36008e-05,2
-4.05025e-05,1.67742e-05,-3.33857e-06,1.80799e-05,-3.38869e-06,1.33666e-05,-1.34095e-05,1.27227e-05,2
-3.62723e-05,1.76157e-05,-2.01296e-06,2.65642e-05,-7.1163e-06,2.13898e-05,-2.98412e-06,1.26569e-05,2
-3.57413e-05,1.69971e-05,-2.17143e-06,2.76558e-05,6.52716e-07,3.5198e-05,1.08245e-05,1.12559e-05,2
-3.94661e-05,1.33819e-05,-4.25504e-06,2.09403e-05,1.70634e-05,4.47722e-05,2.13375e-05,9.33838e-06,2
-4.54316e-05,5.93955e-06,-4.20812e-06,1.00778e-05,2.73865e-05,4.31286e-05,1.90855e-05,9.27528e-06,2
-4.80156e-05,-1.60416e-06,-1.80604e-06,4.52481e-07,2.3721e-05,3.77252e-05,1.37168e-05,1.033e-05,2
-4.54855e-05,-5.96894e-06,1.67745e-07,-6.87381e-06,9.47986e-06,3.56899e-05,1.69969e-05,9.70063e-06,2
-4.09445e-05,-8.73395e-06,1.73669e-06,-1.30459e-05,-3.37432e-06,3.56865e-05,2.49087e-05,7.81306e-06,2
-3.76294e-05,-1.00781e-05,3.76142e-06,-1.36265e-05,-8.89424e-06,3.35383e-05,3.04052e-05,5.89343e-06,2
-3.58124e-05,-7.10885e-06,4.72161e-06,-7.90779e-06,-1.51742e-05,2.96716e-05,3.25006e-05,4.14077e-06,2
-3.40622e-05,-6.82982e-07,4.67992e-06,-1.68224e-06,-2.61368e-05,2.83325e-05,3.20973e-05,2.04242e-06,2
-3.12597e-05,3.05241e-06,4.53434e-06,-1.5295e-06,-3.16283e-05,3.19761e-05,3.12694e-05,-2.76365e-07,2
-3.03011e-05,7.20841e-07,3.25538e-06,-6.98711e-06,-2.29651e-05,3.47019e-05,3.0628e-05,-1.22145e-06,2
-3.53666e-05,-3.81634e-06,5.76754e-07,-1.59128e-05,-6.75406e-06,2.74127e-05,3.09864e-05,-2.077e-08,2
-4.42177e-05,-3.57989e-06,-1.35247e-06,-2.26421e-05,7.17196e-06,1.22648e-05,3.23106e-05,1.84495e-06,2
-5.19381e-05,4.66735e-06,-2.52098e-06,-2.47326e-05,1.26928e-05,-3.11665e-06,2.98829e-05,3.00329e-06,2
-5.53175e-05,1.60418e-05,-3.10591e-06,-2.57623e-05,5.77407e-06,-1.35994e-05,2.29762e-05,2.51064e-06,2
-5.65019e-05,2.34691e-05,-2.48852e-06,-2.89004e-05,-7.59127e-06,-1.35925e-05,2.08391e-05,1.13998e-06,2
-5.72526e-05,2.68842e-05,-1.05881e-06,-3.11718e-05,-1.26134e-05,-3.14022e-06,2.46444e-05,3.94228e-07,2
-5.7527e-05,2.66979e-05,2.3091e-06,-2.91777e-05,-6.17361e-06,5.73385e-06,2.9019e-05,1.77281e-06,2
-5.70569e-05,2.00613e-05,9.0281e-06,-2.67055e-05,2.02703e-06,-6.6653e-07,2.95296e-05,3.87541e-06,2
-5.33596e-05,1.51938e-05,1.39008e-05,-2.16342e-05,8.18579e-07,-1.53237e-05,2.32838e-05,4.64491e-06,2
-4.43123e-05,1.49537e-05,1.14523e-05,-1.17993e-05,-2.38342e-06,-1.69882e-05,1.69136e-05,5.00194e-06,2
-3.23211e-05,1.19584e-05,3.08019e-06,-2.83007e-06,5.89419e-06,-8.38028e-06,1.49622e-05,3.55518e-06,2
-1.6411e-05,8.69485e-06,-5.47939e-06,6.88078e-06,1.73266e-05,-9.12472e-06,1.33476e-05,2.48668e-06,2
3.22136e-06,8.0839e-06,-8.77961e-06,2.58528e-05,2.29419e-05,-3.02961e-05,1.01438e-05,2.0375e-06,2
1.33384e-05,9.90979e-06,-9.43423e-06,4.6514e-05,1.88768e-05,-5.82934e-05,1.03465e-05,2.20221e-06,2
7.076e-06,1.24721e-05,-1.10227e-05,5.14594e-05,2.55198e-06,-6.32259e-05,1.84405e-05,4.04678e-06,2
-7.27256e-06,1.44734e-05,-1.51056e-05,4.03952e-05,-1.35966e-05,-4.2551e-05,2.62708e-05,5.78538e-06,2
-2.05264e-05,1.25719e-05,-2.16646e-05,2.21656e-05,-1.66022e-05,-2.07687e-05,2.57867e-05,5.96219e-06,2
-2.90204e-05,7.46523e-06,-2.95372e-05,2.67528e-06,-6.31827e-06,-1.26207e-05,1.65423e-05,3.57937e-06,2
-3.42812e-05,2.77865e-06,-3.52999e-05,-1.25996e-05,7.91629e-06,-1.2808e-05,3.37306e-06,1.16202e-06,2
-3.92883e-05,-1.70621e-06,-3.52885e-05,-1.9928e-05,1.2658e-05,-1.03366e-05,-7.08036e-06,1.42068e-06,2
-4.41309e-05,-6.10492e-06,-3.04619e-05,-2.05929e-05,8.24484e-07,-6.48397e-06,-1.56963e-05,3.22581e-06,2
-4.76671e-05,-9.70021e-06,-2.52216e-05,-2.0768e-05,-1.94392e-05,-7.89995e-06,-2.44199e-05,3.97734e-06,2
-4.95691e-05,-1.07234e-05,-2.39649e-05,-2.25629e-05,-2.47855e-05,-1.17533e-05,-2.62259e-05,2.02466e-06,2
-4.98979e-05,-9.92034e-06,-2.44814e-05,-2.54549e-05,-5.35051e-06,-1.333e-05,-1.69902e-05,-2.36456e-06,2
-4.93562e-05,-7.78376e-06,-2.22309e-05,-2.89509e-05,2.05292e-05,-1.44715e-05,-5.72757e-06,-5.48506e-06,2
-4.77373e-05,-5.98608e-06,-1.68565e-05,-3.31996e-05,3.54686e-05,-1.69316e-05,3.65455e-06,-5.14566e-06,2
-4.43772e-05,-3.75068e-06,-1.08146e-05,-3.61394e-05,4.52903e-05,-1.55541e-05,1.29185e-05,-3.10483e-06,2
-3.82332e-05,1.68822e-06,-6.10096e-06,-2.86631e-05,6.02023e-05,-6.2059e-06,2.00359e-05,-2.09792e-06,2
-2.79951e-05,9.90001e-06,-2.69194e-06,-1.92753e-06,7.84578e-05,7.1323e-06,2.27458e-05,-3.20801e-06,2
-1.53847e-05,1.71597e-05,2.26816e-06,3.34888e-05,8.9701e-05,1.83613e-05,2.54275e-05,-5.5979e-06,2
-6.82039e-06,2.07081e-05,7.57857e-06,4.527e-05,8.15739e-05,2.64158e-05,3.14124e-05,-6.98609e-06,2
-7.80236e-06,2.02881e-05,8.12895e-06,2.07426e-05,5.9299e-05,3.03642e-05,3.6196e-05,-5.61808e-06,2
-1.75771e-05,1.88503e-05,4.892e-06,-1.1235e-05,4.4496e-05,2.74944e-05,3.24791e-05,-2.31662e-06,2
-2.94471e-05,1.77243e-05,4.23795e-06,-2.12995e-05,4.37049e-05,1.72771e-05,1.40225e-05,-1.02293e-06,2
-3.90889e-05,1.76702e-05,7.50079e-06,-1.2894e-05,4.58599e-05,-3.05501e-06,-1.65677e-05,-2.66258e-06,2
-4.13024e-05,2.0662e-05,1.30724e-05,-8.04755e-06,4.26433e-05,-2.48592e-05,-3.57596e-05,-4.06151e-06,2
-3.87037e-05,2.51212e-05,1.81117e-05,-1.00187e-05,3.59395e-05,-3.51364e-05,-2.92002e-05,-3.24274e-06,2
-4.26831e-05,2.3806e-05,1.62965e-05,-1.4641e-05,2.45835e-05,-3.2842e-05,-4.73794e-06,-2.88448e-06,2
-5.19364e-05,1.4168e-05,8.0649e-06,-2.55467e-05,4.3353e-06,-2.17522e-05,2.33245e-05,-3.39018e-06,2
-5.83517e-05,3.89058e-06,-6.29094e-07,-3.54391e-05,-1.48974e-05,-1.04886e-05,4.48152e-05,-1.81321e-06,2
-5.58913e-05,-2.14864e-06,-6.30321e-06,-3.76588e-05,-2.43902e-05,-2.8164e-06,6.64957e-05,-1.82266e-06,2
-4.63852e-05,-5.11387e-06,-1.34158e-05,-3.29104e-05,-2.58469e-05,-6.7176e-07,8.36055e-05,-4.32044e-06,2
-3.29788e-05,-5.85838e-06,-2.36597e-05,-3.04919e-05,-2.12617e-05,-2.3312e-06,8.32926e-05,-6.41768e-06,2
-1.30084e-05,-3.24371e-06,-3.24391e-05,-3.37617e-05,-1.37644e-05,-4.54709e-06,6.92273e-05,-7.23757e-06,2
1.04218e-05,4.47439e-07,-3.7595e-05,-3.39247e-05,-8.22349e-06,-6.41975e-06,5.87348e-05,-8.60686e-06,2
2.38328e-05,3.84383e-06,-3.61803e-05,-2.75552e-05,-5.89815e-06,-4.06402e-06,5.66724e-05,-1.02598e-05,2
2.06449e-05,6.30897e-06,-2.7462e-05,-2.03663e-05,-2.68295e-06,6.8875e-06,5.50288e-05,-1.02759e-05,2
7.99769e-06,7.63558e-06,-1.7238e-05,-1.19845e-05,2.6654e-06,2.20726e-05,4.70081e-05,-8.74741e-06,2
-4.27573e-06,9.14023e-06,-1.12033e-05,1.06381e-05,6.54157e-06,2.66332e-05,2.8086e-05,-6.35977e-06,2
-1.23763e-05,1.25858e-05,-8.68046e-06,4.02954e-05,6.81254e-06,1.64073e-05,6.4684e-06,-4.86301e-06,2
-1.64229e-05,1.96789e-05,-5.95e-06,4.88224e-05,5.29569e-06,2.135e-07,-7.44897e-06,-5.87832e-06,2
-1.59191e-05,3.04239e-05,-1.40099e-06,2.66811e-05,7.96019e-06,-1.30334e-05,-1.46738e-05,-7.32551e-06,2
-1.308e-05,4.09816e-05,2.64057e-06,-7.17374e-06,1.73649e-05,-2.31481e-05,-2.34272e-05,-6.66742e-06,2
-1.17622e-05,4.51849e-05,3.32121e-06,-2.98797e-05,2.74261e-05,-3.22777e-05,-3.52687e-05,-5.74246e-06,2
-1.39415e-05,4.11144e-05,1.5219e-06,-3.12089e-05,3.16787e-05,-3.73276e-05,-4.54277e-05,-4.88035e-06,2
-1.97704e-05,3.43018e-05,-5.06799e-07,-1.28028e-05,3.20634e-05,-3.84068e-05,-5.38513e-05,-3.48549e-06,2
-2.98681e-05,2.86954e-05,-2.82733e-06,2.34531e-05,3.25282e-05,-4.31412e-05,-6.45482e-05,-2.43728e-06,2
-4.0551e-05,2.39663e-05,-4.85136e-06,7.15836e-05,2.84146e-05,-4.71063e-05,-6.44352e-05,-1.7758e-06,2
-4.43679e-05,2.1614e-05,-5.64154e-06,0.000102255,1.86275e-05,-4.06011e-05,-3.90032e-05,5.76187e-07,2
-4.1272e-05,2.31395e-05,-5.1133e-06,8.68224e-05,1.54092e-05,-3.00267e-05,8.27473e-07,4.27089e-06,2
-3.80161e-05,2.83923e-05,-2.59336e-06,4.29183e-05,2.61786e-05,-2.76422e-05,2.74516e-05,6.23158e-06,2
-3.70235e-05,2.81955e-05,-1.03302e-06,1.02073e-05,4.48242e-05,-3.39735e-05,1.83263e-05,7.01781e-06,2
-3.60908e-05,2.06393e-05,-1.41394e-06,-1.14264e-06,5.68763e-05,-3.56325e-05,-1.91945e-05,8.29345e-06,2
-3.36409e-05,1.80934e-05,4.83685e-07,-5.93377e-06,5.77464e-05,-2.69114e-05,-5.21054e-05,9.19606e-06,2
-3.34439e-05,2.02591e-05,3.32818e-06,-1.02588e-05,5.14751e-05,-1.65128e-05,-5.68196e-05,9.48138e-06,2
-3.89332e-05,1.81371e-05,3.73717e-06,-6.64081e-06,3.74908e-05,-1.18603e-05,-3.76206e-05,8.64491e-06,2
-4.9307e-05,8.97344e-06,7.38259e-07,1.10533e-05,2.05246e-05,-1.19098e-05,-1.4445e-05,7.10237e-06,2
-5.72297e-05,-6.61052e-07,-2.577e-06,4.04958e-05,6.67934e-06,-1.14942e-05,-3.88834e-06,6.34072e-06,2
-5.91043e-05,-5.9414e-06,-4.77212e-06,5.68013e-05,3.02569e-07,-5.27216e-06,-2.32171e-06,7.24328e-06,2
-6.01527e-05,-1.04184e-05,-7.68391e-06,4.52222e-05,1.88985e-06,7.623e-06,-1.45387e-06,8.06082e-06,2
-5.99832e-05,-1.67296e-05,-1.1123e-05,2.20152e-05,9.52218e-06,2.16674e-05,3.02828e-06,7.28755e-06,2
-5.36599e-05,-2.36214e-05,-1.44194e-05,5.94609e-06,2.2082e-05,3.23331e-05,1.06668e-05,5.13747e-06,2
-4.15799e-05,-2.67509e-05,-1.52636e-05,-3.23673e-06,3.58841e-05,4.23779e-05,1.67963e-05,2.43125e-06,2
-3.00815e-05,-2.65158e-05,-1.44897e-05,-1.06992e-05,4.39383e-05,5.38528e-05,2.27021e-05,-1.18116e-07,2
-1.87956e-05,-2.26368e-05,-1.322e-05,-1.53014e-05,4.4422e-05,6.26049e-05,2.81278e-05,-1.53136e-06,2
1.52918e-06,-1.36705e-05,-1.27985e-05,-1.80709e-05,3.98409e-05,6.07752e-05,2.68624e-05,-5.67689e-07,2
2.96926e-05,-3.80014e-06,-1.51282e-05,-2.29088e-05,2.82838e-05,4.3157e-05,1.76655e-05,1.48821e-06,2
4.38513e-05,1.35579e-06,-1.99503e-05,-3.36499e-05,8.70433e-06,1.37677e-05,7.60314e-06,3.1827e-06,2
2.88011e-05,2.76542e-06,-2.60518e-05,-4.5736e-05,-1.21703e-05,-1.38126e-05,1.83436e-06,3.61006e-06,2
-5.28248e-06,4.78972e-06,-3.13114e-05,-5.13169e-05,-2.64435e-05,-2.91951e-05,1.9711e-06,3.54493e-06,2
-3.43326e-05,1.06732e-05,-3.32544e-05,-4.74839e-05,-3.59399e-05,-4.10512e-05,5.30655e-06,4.74206e-06,2
-4.61632e-05,2.22396e-05,-3.04866e-05,-4.19871e-05,-4.97711e-05,-6.4809e-05,8.57606e-06,7.27124e-06,2
-5.02082e-05,3.60633e-05,-2.31735e-05,-4.10695e-05,-7.14619e-05,-9.67644e-05,8.88654e-06,8.45944e-06,2
-5.58316e-05,4.70979e-05,-1.36851e-05,-4.13728e-05,-9.00439e-05,-0.000120508,1.05935e-06,7.55053e-06,2
-5.97417e-05,5.17762e-05,-4.07732e-06,-3.68758e-05,-8.62104e-05,-0.000123926,-1.36624e-05,6.38635e-06,2
-5.46219e-05,5.27916e-05,6.07184e-06,-2.66429e-05,-3.55883e-05,-0.000102313,-1.7231e-05,6.32071e-06,2
-3.7873e-05,6.04325e-05,1.88671e-05,-7.97282e-06,4.69705e-05,-5.93803e-05,7.31229e-06,5.83318e-06,2
-1.82843e-05,7.11662e-05,2.89023e-05,1.3514e-05,0.000100532,-1.03858e-05,4.68065e-05,3.96631e-06,2
-1.06246e-05,6.77232e-05,2.3453e-05,2.21653e-05,9.68298e-05,3.11298e-05,7.31026e-05,-6.22004e-07,2
-1.62593e-05,5.4622e-05,8.00025e-06,1.21172e-05,6.19974e-05,5.23341e-05,6.95891e-05,-5.34848e-06,2
-2.35043e-05,4.66413e-05,-1.07466e-06,-5.56898e-06,3.72465e-05,4.22381e-05,4.92051e-05,-7.60873e-06,2
-2.90435e-05,4.49433e-05,-4.53605e-07,-2.21138e-05,3.20252e-05,1.30702e-05,3.58812e-05,-7.51427e-06,2
-3.1745e-05,4.22691e-05,2.78078e-06,-3.44275e-05,3.13001e-05,-1.86722e-05,3.34711e-05,-5.6289e-06,2
-2.99551e-05,3.82899e-05,4.29562e-06,-3.16263e-05,2.71902e-05,-4.15151e-05,3.83291e-05,-6.51393e-06,2
-2.53971e-05,3.74141e-05,4.96792e-06,-1.17152e-05,1.71296e-05,-5.37895e-05,4.83023e-05,-8.9882e-06,2
-1.87947e-05,3.95697e-05,5.23984e-06,1.38844e-05,1.9247e-06,-5.70723e-05,5.84512e-05,-9.49748e-06,2
-1.47986e-05,4.14505e-05,4.60278e-06,2.46458e-05,-1.48314e-05,-5.16172e-05,5.9975e-05,-6.15273e-06,2
-1.43477e-05,3.78638e-05,2.88377e-06,2.4218e-05,-2.55279e-05,-3.82435e-05,5.14376e-05,-1.30687e-06,2
-1.95034e-05,2.94334e-05,4.15939e-07,3.06775e-05,-3.21927e-05,-2.27095e-05,2.85533e-05,2.35899e-06,2
-3.23156e-05,1.88396e-05,-2.24686e-06,3.6477e-05,-4.00153e-05,-1.25378e-05,-1.65979e-06,4.29615e-06,2
-4.93732e-05,8.67439e-06,-4.23146e-06,2.54475e-05,-4.53985e-05,-6.28084e-06,-1.52049e-05,4.54213e-06,2
-6.47269e-05,-1.8878e-06,-5.36477e-06,3.30773e-06,-4.0116e-05,-4.12152e-07,-6.18979e-06,3.65476e-06,2
-7.70761e-05,-1.24657e-05,-6.6144e-06,-1.25967e-05,-2.15047e-05,1.07149e-05,1.08557e-05,2.24946e-06,2
-8.44871e-05,-2.07082e-05,-9.36036e-06,-1.96384e-05,-4.65977e-08,3.04056e-05,2.58477e-05,1.80183e-07,2
-8.45464e-05,-2.86011e-05,-1.48598e-05,-2.77876e-05,1.34108e-05,5.47556e-05,4.07579e-05,-2.60564e-06,2
-8.19077e-05,-3.90859e-05,-2.20883e-05,-4.0873e-05,1.95589e-05,7.46808e-05,5.16354e-05,-4.343e-06,2
-8.35728e-05,-5.15448e-05,-2.9121e-05,-4.7992e-05,2.09029e-05,8.42945e-05,5.15926e-05,-5.71295e-06,2
-8.71827e-05,-6.34868e-05,-3.46614e-05,-3.82267e-05,1.41619e-05,7.74168e-05,3.99649e-05,-7.33855e-06,2
-8.0388e-05,-7.26507e-05,-3.64686e-05,-1.34649e-05,4.16601e-06,5.84677e-05,2.41087e-05,-7.95491e-06,2
-5.54562e-05,-7.43515e-05,-3.15551e-05,8.07422e-06,4.1942e-06,4.12284e-05,1.50198e-05,-7.1249e-06,2
-1.63847e-05,-6.43342e-05,-1.92694e-05,1.47223e-05,2.18343e-05,3.27839e-05,1.78865e-05,-7.53201e-06,2
2.41182e-05,-4.34493e-05,-5.8551e-06,9.84175e-06,4.49388e-05,2.92067e-05,2.40628e-05,-8.77621e-06,2
5.67439e-05,-2.00808e-05,5.68808e-07,-1.32375e-06,5.06237e-05,2.69149e-05,2.36005e-05,-1.00327e-05,2
6.7294e-05,1.78767e-07,4.16211e-06,-1.07282e-05,3.70974e-05,3.23697e-05,1.71266e-05,-1.0438e-05,2
4.74003e-05,2.35511e-05,1.28542e-05,-1.25573e-05,2.63209e-05,4.18078e-05,8.90536e-06,-6.66848e-06,2
1.12599e-05,5.4739e-05,2.17799e-05,-3.54063e-06,3.17856e-05,3.98461e-05,2.98681e-06,6.90876e-08,2
-2.87766e-05,7.27852e-05,2.05586e-05,5.83232e-06,4.36388e-05,2.43414e-05,3.77427e-06,5.14116e-06,2
-6.2045e-05,6.90569e-05,7.67158e-06,-3.43295e-07,4.4609e-05,8.53883e-07,-1.56702e-06,5.94838e-06,2
-6.65626e-05,6.57696e-05,-4.07708e-06,-1.32326e-05,3.39933e-05,-2.52051e-05,-1.39897e-05,5.54248e-06,2
-4.66355e-05,6.82345e-05,-7.44386e-06,-1.71814e-05,2.00912e-05,-3.60603e-05,-1.7877e-05,4.9949e-06,2
-2.31498e-05,6.34586e-05,-5.87675e-06,-1.3714e-05,1.03511e-05,-8.88199e-06,-1.17989e-05,4.13792e-06,2
-6.177e-06,4.57359e-05,-4.86455e-06,-1.20435e-05,4.44914e-06,4.64505e-05,1.26004e-06,3.53187e-06,2
4.78636e-06,2.97713e-05,-7.28432e-06,-1.06589e-05,-2.34741e-06,8.55018e-05,1.20549e-05,2.28958e-06,2
1.61251e-05,2.39941e-05,-1.46562e-05,-8.10086e-06,-8.32786e-06,6.4639e-05,1.63132e-05,1.73569e-06,2
2.99607e-05,2.72157e-05,-2.3378e-05,-8.70927e-06,-9.05739e-06,-2.52914e-05,1.87369e-05,2.13927e-06,2
4.14981e-05,3.7246e-05,-2.8908e-05,-1.30664e-05,-1.41878e-06,-0.000137568,2.13334e-05,2.88659e-06,2
3.59825e-05,4.36421e-05,-3.30592e-05,-1.7268e-05,1.033e-05,-0.000206343,1.81753e-05,3.8378e-06,2
1.37902e-05,3.64434e-05,-3.52129e-05,-1.78005e-05,2.28999e-05,-0.000208527,1.17333e-05,5.15203e-06,2
-1.03085e-05,1.72438e-05,-3.41977e-05,-1.58922e-05,3.55806e-05,-0.000173225,8.53299e-06,5.44469e-06,2
-2.29752e-05,3.25904e-06,-2.73976e-05,-1.02135e-05,4.36201e-05,-0.00013413,7.55429e-06,4.48578e-06,2
-2.46125e-05,6.15812e-06,-1.64614e-05,-2.19569e-06,4.23836e-05,-0.000101522,8.00019e-06,3.87724e-06,2
-2.50976e-05,2.08506e-05,-5.13791e-06,-6.9184e-08,3.40236e-05,-7.73821e-05,1.3215e-05,4.2891e-06,2
-3.26774e-05,3.23886e-05,4.15383e-06,-6.09534e-06,2.31337e-05,-6.33984e-05,2.04081e-05,6.06446e-06,2
-4.7159e-05,3.222e-05,9.1921e-06,-1.12121e-05,1.25141e-05,-5.62497e-05,2.46537e-05,8.80491e-06,2
-5.86551e-05,2.32948e-05,6.89633e-06,-1.05063e-05,4.38932e-06,-6.22674e-05,3.08933e-05,1.11581e-05,2
-5.99527e-05,1.37205e-05,1.53289e-07,-9.26192e-06,-4.49397e-07,-8.94765e-05,4.44492e-05,1.24099e-05,2
-5.30074e-05,6.26757e-06,-2.52583e-06,-1.24603e-05,-6.64044e-06,-0.0001143,5.89064e-05,1.31462e-05,2
-4.63976e-05,2.65336e-06,1.51164e-06,-1.54061e-05,-1.91379e-05,-0.000102208,5.95406e-05,1.31811e-05,2
-4.47595e-05,4.76685e-06,6.18005e-06,-1.33559e-05,-3.45492e-05,-6.2284e-05,4.45309e-05,1.38505e-05,2
-4.5946e-05,7.17259e-06,3.29828e-06,-9.66158e-06,-4.03826e-05,-2.90135e-05,2.36439e-05,1.37923e-05,2
-4.54415e-05,6.93138e-06,-4.37482e-06,-1.10798e-05,-3.0912e-05,-1.33048e-05,7.72636e-06,1.16517e-05,2
-4.37339e-05,6.5363e-06,-6.02619e-06,-1.45132e-05,-1.29786e-05,-2.79775e-06,9.44681e-08,8.39464e-06,2
-4.05331e-05,8.4742e-06,-3.23159e-06,-1.42475e-05,7.56816e-06,1.14192e-05,-2.3209e-06,5.30301e-06,2
-3.74071e-05,1.15953e-05,-3.67863e-06,-1.13749e-05,2.34585e-05,1.94376e-05,1.17591e-06,4.97982e-06,2
-3.49314e-05,1.33426e-05,-4.23714e-06,2.94415e-07,3.34286e-05,1.83966e-05,8.13872e-06,1.55302e-06,2
-2.98099e-05,1.48813e-05,-2.07322e-06,1.13228e-05,4.06904e-05,1.2691e-05,1.13015e-05,-5.52648e-06,2
-2.44984e-05,1.58809e-05,-2.36758e-08,3.96362e-06,3.83701e-05,4.627e-06,7.12254e-06,-9.15914e-06,2
-2.54028e-05,1.29971e-05,-4.4964e-07,-7.62662e-06,2.31098e-05,4.41424e-06,-2.52405e-06,-7.77784e-06,2
-3.35667e-05,5.29979e-06,-2.08476e-06,1.09637e-06,-8.52835e-07,1.1134e-05,-6.85668e-06,-2.69429e-06,2
-4.23577e-05,-3.73331e-06,-5.61575e-06,2.66412e-05,-2.12126e-05,1.92535e-05,-2.96188e-06,1.89591e-06,2
-4.48929e-05,-9.39324e-06,-8.16325e-06,5.0086e-05,-2.18355e-05,2.14299e-05,-2.2226e-06,3.93428e-06,2
-4.29014e-05,-1.15945e-05,-7.2978e-06,5.57512e-05,1.94132e-06,1.71025e-05,-7.41972e-06,2.89061e-06,2
-4.10037e-05,-1.28617e-05,-6.79358e-06,4.08319e-05,3.4813e-05,1.3405e-05,-1.06455e-05,1.08953e-06,2
-3.98621e-05,-1.42844e-05,-9.26855e-06,1.51879e-05,6.16807e-05,1.37023e-05,-9.09008e-06,1.49851e-06,2
-3.81494e-05,-1.30984e-05,-1.25909e-05,-1.16963e-05,8.39958e-05,2.00524e-05,-1.28551e-06,2.97655e-06,2
-3.53237e-05,-7.52641e-06,-1.36163e-05,-3.4281e-05,9.70379e-05,2.97637e-05,1.37418e-05,2.53604e-06,2
-3.26073e-05,-6.94215e-07,-1.15213e-05,-5.26245e-05,9.32755e-05,3.70569e-05,3.06001e-05,-5.30319e-08,2
-3.11563e-05,2.23154e-06,-6.80182e-06,-6.02576e-05,7.71441e-05,3.56984e-05,4.3147e-05,-2.74149e-06,2
-3.15102e-05,-7.08156e-07,-2.55082e-06,-4.45467e-05,5.722e-05,2.73826e-05,4.60049e-05,-4.05885e-06,2
-3.31749e-05,-5.78907e-06,-4.8343e-07,-9.32477e-06,3.66619e-05,1.81815e-05,3.74499e-05,-3.69393e-06,2
-3.59603e-05,-7.13251e-06,-5.736e-08,1.76792e-05,2.13863e-05,1.41587e-05,2.15809e-05,-3.52247e-06,2
-3.88199e-05,-5.35521e-06,-1.90637e-06,1.70105e-05,1.34881e-05,1.56702e-05,5.3241e-06,-4.54604e-06,2
-4.19818e-05,-6.00717e-06,-6.51335e-06,1.19733e-06,1.78607e-06,2.12979e-05,-8.74881e-06,-5.30885e-06,2
-4.58292e-05,-9.36549e-06,-1.03085e-05,-8.42728e-06,-1.89936e-05,2.50003e-05,-2.09398e-05,-4.22008e-06,2
-4.76998e-05,-1.30115e-05,-1.06025e-05,-1.01948e-05,-3.99426e-05,2.16021e-05,-2.6371e-05,-2.25218e-06,2
-4.62475e-05,-1.42871e-05,-7.83293e-06,-1.09152e-05,-5.03021e-05,1.56832e-05,-2.13299e-05,-1.61596e-06,2
-4.33446e-05,-9.02145e-06,-2.98155e-06,-1.3174e-05,-4.19802e-05,1.24864e-05,-1.24429e-05,-2.50286e-06,2
-3.88495e-05,-4.04421e-07,1.32204e-06,-1.80235e-05,-1.99212e-05,1.25458e-05,-7.6216e-06,-7.11762e-07,2
-3.49761e-05,6.87463e-06,2.26463e-06,-2.32799e-05,-3.15857e-07,1.49948e-05,-7.63629e-06,3.38605e-06,2
-3.56547e-05,1.23408e-05,-6.21341e-07,-3.20699e-05,1.03105e-05,1.83822e-05,-1.03957e-05,4.90162e-06,2
-4.16927e-05,1.19058e-05,-6.87873e-06,-4.27639e-05,1.56062e-05,2.14907e-05,-8.1537e-06,1.94269e-06,2
-4.57318e-05,1.0146e-05,-1.07399e-05,-4.01442e-05,2.95362e-05,2.14842e-05,7.63768e-06,-2.0859e-06,2
-4.02102e-05,1.44281e-05,-7.91106e-06,-1.09002e-05,5.83272e-05,1.49644e-05,2.62024e-05,-2.11873e-06,2
-2.75297e-05,2.25231e-05,-9.10363e-07,3.89463e-05,8.20738e-05,6.1491e-06,3.2123e-05,-1.34446e-06,2
-1.77416e-05,3.07382e-05,5.12472e-06,8.14619e-05,8.30785e-05,2.99319e-06,1.92126e-05,-1.53134e-06,2
-1.66823e-05,3.42152e-05,5.48107e-06,9.21285e-05,7.289e-05,3.63879e-06,-9.35181e-06,-7.15825e-07,2
-1.97506e-05,3.45087e-05,1.97231e-06,7.04269e-05,6.74535e-05,-3.07883e-06,-4.32954e-05,4.17071e-07,2
-2.25515e-05,3.38545e-05,-1.64388e-06,3.51097e-05,6.25899e-05,-2.12824e-05,-6.32313e-05,2.22698e-06,2
-2.37617e-05,3.16786e-05,-2.53026e-06,9.86007e-06,5.32619e-05,-3.68538e-05,-4.68798e-05,2.90587e-06,2
-2.44895e-05,2.82826e-05,-4.87893e-07,3.16098e-06,4.38326e-05,-3.68811e-05,-2.89434e-06,5.40547e-07,2
-2.38222e-05,2.51297e-05,3.90925e-07,3.92688e-06,3.77192e-05,-2.5674e-05,4.20762e-05,-1.7734e-06,2
-2.21757e-05,2.37488e-05,-2.11944e-06,-2.10722e-07,3.21192e-05,-1.19173e-05,7.75054e-05,-1.57783e-06,2
-2.01418e-05,2.34232e-05,-5.02334e-06,-9.18467e-06,2.41872e-05,-1.9816e-06,9.9715e-05,6.61493e-07,2
-1.9233e-05,2.38404e-05,-4.82048e-06,-1.77422e-05,1.49672e-05,4.87472e-06,0.000100465,3.8758e-06,2
-2.09655e-05,2.43813e-05,-5.10508e-08,-2.37407e-05,6.85799e-06,1.27258e-05,8.23464e-05,5.91326e-06,2
-2.41947e-05,2.54523e-05,6.40057e-06,-2.75062e-05,3.40859e-07,2.14427e-05,5.91944e-05,4.27012e-06,2
-2.64775e-05,2.51677e-05,1.00197e-05,-3.03209e-05,-3.45358e-06,2.51984e-05,4.35274e-05,-2.83018e-07,2
-2.66575e-05,2.22079e-05,9.31442e-06,-3.28122e-05,-3.36552e-07,2.34175e-05,4.12957e-05,-3.36716e-06,2
-2.66992e-05,1.77341e-05,5.78187e-06,-3.34543e-05,5.8737e-06,2.09263e-05,4.66044e-05,-3.4627e-06,2
-2.87303e-05,1.46635e-05,2.48869e-06,-2.45246e-05,4.14807e-06,1.9915e-05,4.49374e-05,-3.5188e-06,2
-3.22062e-05,1.46848e-05,2.03464e-06,-1.75333e-06,-9.64889e-06,1.93355e-05,3.1582e-05,-4.33231e-06,2
-3.25647e-05,1.7847e-05,4.66736e-06,1.95705e-05,-2.48475e-05,1.82498e-05,1.6338e-05,-3.14365e-06,2
-3.10755e-05,1.98049e-05,5.99938e-06,1.69186e-05,-3.18708e-05,1.47158e-05,7.12404e-06,7.52124e-07,2
-3.3822e-05,1.51064e-05,1.74657e-06,-6.87932e-06,-3.7091e-05,5.23447e-06,-2.04308e-06,3.79608e-06,2
-4.0388e-05,5.49955e-06,-6.09935e-06,-2.69664e-05,-4.7753e-05,-9.29428e-06,-1.72057e-05,3.76369e-06,2
-4.4092e-05,-3.98319e-06,-1.47928e-05,-2.60732e-05,-5.52304e-05,-2.03918e-05,-2.81113e-05,3.62995e-06,2
-4.29583e-05,-8.71823e-06,-2.53182e-05,5.30608e-06,-4.78481e-05,-2.45986e-05,-2.98183e-05,3.61101e-06,2
-4.27684e-05,-9.14388e-06,-3.81492e-05,4.63958e-05,-2.82146e-05,-2.67524e-05,-3.16213e-05,2.13606e-06,2
-4.79647e-05,-1.28142e-05,-4.7528e-05,6.65486e-05,-7.26134e-06,-3.28538e-05,-4.01896e-05,-1.10544e-06,2
-5.31214e-05,-1.85035e-05,-4.40763e-05,6.43322e-05,6.69037e-06,-4.17239e-05,-5.17774e-05,-3.87541e-06,2
-4.73366e-05,-1.62596e-05,-3.17191e-05,4.67111e-05,1.61883e-05,-4.3045e-05,-5.03831e-05,-4.31346e-06,2
-2.92629e-05,-5.08694e-06,-2.45667e-05,2.46671e-05,2.55426e-05,-3.28783e-05,-3.53065e-05,-5.15878e-06,2
-8.93869e-06,8.02576e-06,-2.63468e-05,5.7117e-06,3.01787e-05,-1.07006e-05,-1.67648e-05,-4.992e-06,2
2.31423e-06,1.87683e-05,-2.93166e-05,-3.26648e-06,2.53359e-05,1.37875e-05,1.96469e-06,-2.36121e-06,2
-7.56506e-07,2.68415e-05,-2.65632e-05,-5.3903e-06,1.26888e-05,1.86284e-05,1.57733e-05,8.43914e-07,2
-1.06205e-05,3.112e-05,-1.83474e-05,-7.89228e-06,2.3057e-06,-1.01559e-06,2.58056e-05,2.6364e-06,2
-1.74048e-05,2.98119e-05,-1.15316e-05,-1.0986e-05,6.61003e-06,-2.37647e-05,3.33362e-05,2.98341e-06,2
-1.89507e-05,2.44291e-05,-9.16744e-06,-1.15094e-05,1.9956e-05,-3.49741e-05,3.30979e-05,2.09241e-06,2
-2.09376e-05,1.94078e-05,-8.1159e-06,-8.72731e-06,2.32751e-05,-3.82131e-05,2.32619e-05,-9.59688e-07,2
-2.55461e-05,1.94025e-05,-5.68002e-06,-5.82434e-06,1.25701e-05,-3.99341e-05,9.9065e-06,-3.48495e-06,2
-2.85125e-05,2.70099e-05,-1.70456e-06,-3.43218e-06,-2.41072e-06,-4.13894e-05,1.56029e-06,-3.21591e-06,2
-2.75071e-05,3.59789e-05,3.14044e-06,-3.09633e-07,-1.40732e-05,-4.05559e-05,5.39467e-06,-1.43843e-06,2
-2.5121e-05,3.76871e-05,7.42409e-06,8.78265e-07,-1.71049e-05,-3.30184e-05,2.07972e-05,-1.25554e-06,2
-2.76545e-05,3.09804e-05,8.29128e-06,-1.04255e-05,-6.77336e-06,-1.61322e-05,3.80523e-05,-2.09511e-06,2
-3.86359e-05,1.95586e-05,5.63977e-06,-3.10292e-05,1.26284e-05,-2.06439e-07,4.51794e-05,-1.639e-06,2
-5.45626e-05,7.7845e-06,1.30767e-06,-4.49213e-05,3.28468e-05,1.78431e-06,3.74098e-05,-1.87679e-07,2
-6.4509e-05,3.54605e-06,-9.43235e-07,-4.25363e-05,5.39272e-05,-1.07512e-05,1.89413e-05,1.17738e-06,2
-6.6104e-05,7.62706e-06,8.49479e-07,-3.43204e-05,7.6244e-05,-2.802e-05,-3.02549e-06,9.82578e-07,2
-6.80676e-05,1.0241e-05,2.54353e-06,-3.3711e-05,9.02304e-05,-3.73878e-05,-1.67958e-05,-1.23562e-06,2
-7.43202e-05,7.99184e-06,2.02821e-06,-3.9483e-05,8.47323e-05,-2.92991e-05,-1.59852e-05,-1.82721e-06,2
-7.74275e-05,5.59048e-06,-2.84368e-07,-4.14476e-05,6.12153e-05,-1.15061e-05,-6.84507e-06,5.66128e-08,2
-7.06588e-05,7.74693e-06,-5.1515e-06,-3.61789e-05,3.22424e-05,-1.43814e-06,2.79792e-06,-1.05845e-07,2
-5.29477e-05,1.54411e-05,-9.57702e-06,-2.69314e-05,7.30208e-06,-3.18907e-06,7.39498e-06,-3.04654e-06,2
-2.50625e-05,2.53302e-05,-1.00256e-05,-2.07332e-05,-9.36757e-06,-8.49894e-06,9.4461e-06,-6.09173e-06,2
6.88741e-06,2.94094e-05,-6.7459e-06,-2.28104e-05,-5.92429e-07,-6.58907e-06,9.84679e-06,-7.23594e-06,2
3.11495e-05,2.56613e-05,-1.851e-06,-2.66027e-05,3.08964e-05,5.93532e-06,8.07775e-06,-9.09929e-06,2
3.62369e-05,1.98719e-05,2.12396e-06,-2.83268e-05,4.73796e-05,2.81541e-05,6.64804e-06,-1.10063e-05,2
2.38519e-05,1.59495e-05,3.57725e-06,-2.76476e-05,3.15745e-05,4.92639e-05,4.64455e-06,-1.04342e-05,2
5.57515e-06,1.36764e-05,2.45698e-06,-2.87844e-05,-9.73453e-07,5.21826e-05,3.46223e-06,-7.06196e-06,2
-1.04701e-05,8.59628e-06,-3.5295e-06,-4.13282e-05,-2.49509e-05,3.68529e-05,6.98108e-06,-3.60519e-06,2
-2.1582e-05,1.58671e-06,-1.41347e-05,-5.76247e-05,-2.91706e-05,8.78749e-06,1.30466e-05,-2.47148e-06,2
-2.97238e-05,-3.89814e-06,-2.59747e-05,-5.44186e-05,-2.01868e-05,-2.19954e-05,1.48462e-05,-8.71128e-07,2
-3.3865e-05,-5.23548e-06,-3.5009e-05,-2.72484e-05,-1.34902e-05,-4.75957e-05,1.71385e-05,6.98231e-07,2
-3.29273e-05,-7.32876e-07,-3.65106e-05,-1.30128e-06,-1.30137e-05,-7.15349e-05,1.93759e-05,1.17229e-06,2
-2.96043e-05,6.77434e-06,-3.06807e-05,5.73588e-06,-1.50724e-05,-9.1865e-05,1.53892e-05,1.50041e-06,2
-3.02454e-05,1.03018e-05,-2.27424e-05,3.19088e-06,-2.60403e-05,-9.37154e-05,8.50527e-06,1.92975e-06,2
-3.43118e-05,8.73194e-06,-1.36115e-05,6.27497e-06,-4.01495e-05,-6.86486e-05,4.76923e-06,2.57598e-06,2
-3.68742e-05,8.80425e-06,-3.95468e-06,1.45227e-05,-2.82792e-05,-3.26872e-05,6.19574e-06,3.146e-06,2
-4.06028e-05,1.243e-05,8.52236e-07,1.59688e-05,2.32381e-05,-5.55748e-06,1.39995e-05,3.12289e-06,2
-4.99426e-05,1.49318e-05,3.65823e-07,6.71445e-06,7.40919e-05,7.95829e-06,2.60191e-05,4.03178e-06,2
-6.30343e-05,1.25466e-05,-2.25725e-06,-5.53235e-06,7.76452e-05,9.78981e-06,3.1468e-05,5.46773e-06,2
-7.13827e-05,6.0314e-06,-4.62739e-06,-1.08799e-05,3.61856e-05,4.61643e-06,2.53872e-05,6.17791e-06,2
-6.90602e-05,-3.39292e-06,-6.52002e-06,-7.94467e-06,-8.48861e-06,9.80267e-06,1.78592e-05,5.91558e-06,2
-5.40476e-05,-1.16307e-05,-7.52917e-06,2.76057e-07,-2.15929e-05,3.169e-05,1.70463e-05,4.60392e-06,2
-2.95324e-05,-1.51334e-05,-7.21423e-06,1.08262e-05,-7.55005e-06,5.0482e-05,1.90919e-05,2.79819e-06,2
-4.5024e-06,-1.4747e-05,-6.55345e-06,1.99299e-05,2.65482e-06,4.97766e-05,2.1691e-05,5.21086e-07,2
1.01585e-05,-1.40286e-05,-6.62229e-06,2.21655e-05,-1.06185e-05,3.47105e-05,2.84229e-05,-6.25571e-07,2
2.04439e-05,-7.92613e-06,-5.88939e-06,1.47225e-05,-3.49399e-05,2.05233e-05,3.9533e-05,8.7986e-07,2
3.04635e-05,6.74042e-06,-3.46333e-06,4.01698e-06,-4.88167e-05,1.62726e-05,4.83612e-05,2.38446e-06,2
2.61895e-05,1.76028e-05,-2.07969e-06,1.32127e-06,-5.12515e-05,1.86701e-05,5.13146e-05,2.76834e-06,2
3.20136e-06,1.96243e-05,-2.39189e-06,5.5247e-06,-3.91335e-05,1.51078e-05,4.75546e-05,6.74878e-06,2
-1.9818e-05,2.25376e-05,-1.27362e-06,6.58566e-06,-1.16095e-05,-5.16913e-06,3.72897e-05,1.2408e-05,2
-2.57328e-05,3.14307e-05,1.82497e-06,5.53529e-06,1.11149e-05,-3.82257e-05,2.20617e-05,1.36587e-05,2
-1.62518e-05,4.71217e-05,5.23655e-06,8.29414e-06,2.05549e-05,-6.62516e-05,5.93429e-06,1.30043e-05,2
-1.1598e-05,6.00846e-05,7.07859e-06,1.22412e-05,2.75512e-05,-7.3715e-05,-6.19761e-06,1.38697e-05,2
-3.36928e-05,5.94693e-05,7.06692e-06,1.14447e-05,4.19442e-05,-6.11633e-05,-1.09111e-05,1.61665e-05,2
-6.99227e-05,5.17352e-05,4.816e-06,9.20709e-06,5.98146e-05,-4.76241e-05,-7.27994e-06,1.67791e-05,2
-9.4685e-05,4.61627e-05,2.16632e-06,1.34934e-05,7.783e-05,-4.61702e-05,-2.21452e-06,1.43705e-05,2
-9.76747e-05,4.56139e-05,3.93537e-07,1.31437e-05,9.38603e-05,-4.82146e-05,-4.80343e-06,1.03964e-05,2
-8.62934e-05,4.33462e-05,-1.91271e-06,-1.86514e-06,0.000101079,-4.45733e-05,-1.19552e-05,5.74932e-06,2
-6.88978e-05,3.8285e-05,-3.3506e-06,-1.91368e-05,8.75391e-05,-4.05956e-05,-1.73803e-05,4.00466e-06,2
-4.38596e-05,3.49415e-05,-4.22589e-06,-2.37165e-05,5.22574e-05,-4.28029e-05,-1.99646e-05,5.36157e-06,2
-1.12748e-05,3.37393e-05,-4.81209e-06,-1.65871e-05,1.35455e-05,-4.30582e-05,-1.46272e-05,5.48671e-06,2
1.65272e-05,3.15907e-05,-5.36255e-06,-6.82681e-06,-1.24907e-05,-3.40894e-05,-6.45578e-06,2.07143e-06,2
2.52897e-05,2.55728e-05,-5.65553e-06,3.90136e-06,-2.267e-05,-2.3655e-05,-1.52673e-05,-1.83765e-06,2
1.81961e-05,1.73078e-05,-6.60418e-06,1.60264e-05,-2.10659e-05,-2.19881e-05,-4.18895e-05,-2.83325e-06,2
8.03574e-06,1.14983e-05,-8.70845e-06,2.75004e-05,-1.11518e-05,-3.05868e-05,-5.89739e-05,-9.91151e-07,2
3.33101e-06,1.1937e-05,-1.09014e-05,3.37923e-05,2.63831e-06,-4.42229e-05,-4.84061e-05,1.3943e-06,2
1.48787e-06,1.6666e-05,-1.20848e-05,3.17281e-05,1.55548e-05,-5.20057e-05,-1.8304e-05,4.10755e-06,2
-2.6208e-06,2.18818e-05,-1.29923e-05,2.10254e-05,3.09065e-05,-4.34882e-05,1.48443e-05,6.8713e-06,2
-1.0023e-05,2.29521e-05,-1.53759e-05,7.02854e-06,5.64117e-05,-2.437e-05,4.05042e-05,7.05081e-06,2
-1.9094e-05,1.46657e-05,-1.91576e-05,-7.41992e-06,7.88781e-05,-9.29116e-06,5.2558e-05,6.7278e-06,2
-2.76192e-05,-1.61714e-06,-1.90336e-05,-1.97076e-05,7.84635e-05,-1.8337e-06,5.47434e-05,8.85456e-06,2
-3.05887e-05,-1.62798e-05,-1.15206e-05,-2.4707e-05,5.87248e-05,6.52218e-06,5.84268e-05,1.17989e-05,2
-2.67431e-05,-1.87246e-05,-2.57632e-06,-2.17443e-05,3.46338e-05,2.03853e-05,6.95454e-05,1.28256e-05,2
-2.20078e-05,-1.02432e-05,1.04987e-06,-1.55036e-05,1.57962e-05,3.22796e-05,8.35149e-05,1.13469e-05,2
-2.55192e-05,-5.43403e-06,-1.55116e-06,-1.03238e-05,3.97106e-06,3.2812e-05,8.90448e-05,9.52085e-06,2
-4.2935e-05,-9.45419e-06,-4.16577e-06,-4.63912e-06,-7.99364e-06,2.13444e-05,8.36745e-05,7.52829e-06,2
-6.81997e-05,-1.50741e-05,-3.69623e-06,1.81488e-07,-2.34677e-05,4.05061e-06,7.35798e-05,4.33325e-06,2
-9.16566e-05,-1.53508e-05,-1.89232e-06,-2.80126e-06,-3.04196e-05,-1.05021e-05,6.20258e-05,-6.57182e-08,2
-0.000108167,-1.27052e-05,2.27433e-07,-8.69824e-06,-1.8719e-05,-1.8829e-05,4.98779e-05,-4.68795e-06,2
-0.000115159,-8.69614e-06,1.37213e-06,-5.35069e-06,-1.31712e-06,-2.26297e-05,3.49791e-05,-8.2898e-06,2
-0.000112258,-8.63517e-07,-5.05129e-07,7.80414e-07,5.19322e-06,-2.68549e-05,1.98972e-05,-1.25633e-05,2
-0.000100972,8.47133e-06,-4.84595e-06,3.85114e-07,4.36829e-06,-2.7781e-05,1.27043e-05,-1.80008e-05,2
-8.42197e-05,1.9157e-05,-9.47962e-06,-1.96855e-06,8.614e-06,-1.59855e-05,1.21411e-05,-2.34688e-05,2
-5.99357e-05,2.71804e-05,-1.4781e-05,-5.11781e-06,1.86855e-05,9.37329e-07,1.26247e-05,-2.60589e-05,2
-2.39549e-05,2.79137e-05,-2.01072e-05,-1.24356e-05,2.37192e-05,1.06194e-05,1.26715e-05,-2.44693e-05,2
1.53007e-05,2.22857e-05,-2.41104e-05,-2.37334e-05,1.96818e-05,6.47267e-06,6.38363e-06,-2.01673e-05,2
4.5611e-05,1.44399e-05,-2.66071e-05,-3.13125e-05,1.21749e-05,-6.97688e-06,-1.08841e-05,-1.52769e-05,2
5.88116e-05,9.66266e-06,-2.72942e-05,-3.04462e-05,7.79673e-06,-2.27416e-05,-2.98487e-05,-1.21692e-05,2
5.28016e-05,9.41018e-06,-2.38412e-05,-2.46044e-05,3.76873e-06,-3.59085e-05,-3.87767e-05,-1.03876e-05,2
3.18109e-05,1.08113e-05,-1.49509e-05,-1.67137e-05,-5.42006e-06,-3.86039e-05,-3.2828e-05,-7.42262e-06,2
5.99662e-06,1.17406e-05,-5.56646e-06,-9.09141e-06,-1.16206e-05,-2.72518e-05,-1.2547e-05,-3.6456e-06,2
-1.37934e-05,1.38653e-05,-1.35028e-06,-1.96435e-07,-2.89975e-06,-9.74504e-06,1.5651e-05,-1.20744e-06,2
-2.31734e-05,1.72787e-05,-2.09778e-06,1.35297e-05,1.39541e-05,-3.26008e-07,3.83341e-05,1.3589e-06,2
-2.6132e-05,1.76165e-05,-4.93778e-06,3.12641e-05,2.21912e-05,-5.44571e-06,4.36686e-05,5.30299e-06,2
-2.97121e-05,1.10767e-05,-9.39358e-06,4.4718e-05,2.23156e-05,-1.99235e-05,3.1746e-05,9.18206e-06,2
-3.4876e-05,2.07138e-06,-1.26369e-05,4.86186e-05,2.79469e-05,-2.63027e-05,1.55839e-05,1.18767e-05,2
-3.69473e-05,-8.1573e-07,-1.00913e-05,4.5782e-05,4.42237e-05,-1.39975e-05,9.00065e-06,1.28736e-05,2
-3.49049e-05,4.92804e-07,-3.50048e-06,3.89776e-05,5.90672e-05,6.88862e-06,1.30632e-05,1.18519e-05,2
-3.28366e-05,-1.15954e-06,8.70545e-07,2.73989e-05,5.35439e-05,2.11151e-05,1.99172e-05,1.03864e-05,2
-3.26254e-05,-5.42177e-06,2.00558e-08,1.12468e-05,2.0293e-05,2.55923e-05,3.07683e-05,8.59274e-06,2
-3.57662e-05,-6.39126e-06,-3.07108e-06,-5.69307e-06,-2.81121e-05,2.64109e-05,5.00621e-05,6.48764e-06,2
-4.24445e-05,-7.69986e-06,-6.85742e-06,-1.85614e-05,-6.44079e-05,2.8982e-05,6.55245e-05,5.84102e-06,2
-5.20611e-05,-1.39934e-05,-1.06771e-05,-2.96541e-05,-7.10169e-05,3.46135e-05,6.25572e-05,5.90242e-06,2
-5.96603e-05,-2.02418e-05,-1.42631e-05,-4.1492e-05,-5.82512e-05,3.93463e-05,4.84441e-05,6.24727e-06,2
-6.32715e-05,-2.44094e-05,-1.96293e-05,-5.26112e-05,-4.37963e-05,3.44974e-05,3.53553e-05,7.35001e-06,2
-6.42197e-05,-2.29933e-05,-2.48193e-05,-5.86862e-05,-3.10483e-05,2.30624e-05,1.62754e-05,8.60388e-06,2
-6.0835e-05,-1.44303e-05,-2.72631e-05,-5.54629e-05,-1.95646e-05,1.81668e-05,-1.67433e-05,9.797e-06,2
-5.68167e-05,-2.61518e-06,-2.4051e-05,-4.47118e-05,-1.4712e-05,2.51927e-05,-4.82644e-05,1.04551e-05,2
-5.42136e-05,8.69495e-06,-1.48683e-05,-2.58906e-05,-1.05731e-05,4.1512e-05,-5.51119e-05,1.07895e-05,2
-4.91219e-05,1.89296e-05,-2.57291e-06,-4.34334e-06,1.25743e-05,5.92042e-05,-4.21033e-05,1.14408e-05,2
-3.6807e-05,2.67343e-05,7.44261e-06,4.08924e-06,6.25801e-05,6.89931e-05,-2.47944e-05,1.0723e-05,2
-1.87617e-05,3.19255e-05,1.19805e-05,-3.07336e-06,0.000118217,7.20348e-05,-7.16863e-06,7.78448e-06,2
-2.8302e-06,3.90941e-05,1.38631e-05,-9.07324e-06,0.000145984,7.45145e-05,9.29408e-06,3.49104e-06,2
1.79096e-06,4.97858e-05,1.39841e-05,1.53675e-06,0.000135877,7.17833e-05,1.83374e-05,-1.10343e-06,2
-6.45324e-06,5.67842e-05,1.3254e-05,3.57958e-05,0.000100931,5.63301e-05,1.8279e-05,-4.24442e-06,2
-2.0216e-05,5.4219e-05,1.39928e-05,7.62116e-05,5.49365e-05,2.8538e-05,1.06964e-05,-6.67532e-06,2
-3.17925e-05,4.51221e-05,1.67633e-05,8.49189e-05,8.02586e-06,-2.19714e-06,-1.1028e-06,-9.38062e-06,2
-3.71444e-05,3.51126e-05,1.65967e-05,4.98477e-05,-2.5777e-05,-2.87613e-05,-6.05424e-06,-1.19803e-05,2
-3.49672e-05,2.97769e-05,1.22525e-05,6.94298e-07,-3.3014e-05,-5.07715e-05,3.37284e-06,-1.32866e-05,2
-2.66095e-05,2.98972e-05,7.5311e-06,-3.12666e-05,-1.89169e-05,-6.66249e-05,2.15305e-05,-1.23197e-05,2
-1.80939e-05,3.03929e-05,4.7927e-06,-4.10512e-05,-3.06062e-06,-7.36785e-05,3.40798e-05,-1.01364e-05,2
-1.45786e-05,2.61126e-05,3.24444e-06,-3.32399e-05,4.98186e-06,-7.46023e-05,3.50789e-05,-9.78156e-06,2
-1.79257e-05,2.01534e-05,-2.1925e-07,-1.45844e-05,1.16218e-05,-7.32312e-05,2.79859e-05,-1.27708e-05,2
-2.67901e-05,1.56996e-05,-7.5772e-06,2.89186e-07,2.09837e-05,-7.11253e-05,1.73412e-05,-1.41377e-05,2
-3.82094e-05,1.12213e-05,-1.62706e-05,6.0566e-06,3.13942e-05,-6.58099e-05,4.50339e-06,-1.01677e-05,2
-4.97269e-05,5.15352e-06,-2.01661e-05,4.54688e-06,4.28745e-05,-5.45052e-05,-4.52549e-06,-5.69844e-06,2
-5.84544e-05,1.48637e-07,-1.9183e-05,-7.88054e-06,5.08605e-05,-4.40226e-05,-5.57059e-06,-5.11691e-06,2
-5.97152e-05,-1.12288e-06,-1.77266e-05,-1.98052e-05,4.80467e-05,-3.91654e-05,-1.7217e-06,-5.62278e-06,2
-5.45707e-05,-1.9583e-06,-1.60618e-05,-1.44827e-05,3.07073e-05,-3.13314e-05,1.94412e-06,-6.06956e-06,2
-4.74478e-05,-1.94866e-06,-1.19923e-05,7.91225e-07,-9.07756e-07,-8.07537e-06,2.91563e-06,-5.22749e-06,2
-3.35237e-05,1.03209e-06,-6.47742e-06,6.34099e-06,-3.25373e-05,1.83219e-05,-2.58506e-06,-3.79459e-06,2
-8.04489e-06,5.45648e-06,-2.38001e-06,1.48821e-06,-4.65502e-05,2.65132e-05,-1.46826e-05,-4.06712e-06,2
1.76355e-05,1.06426e-05,-1.45845e-06,-7.17586e-06,-4.10403e-05,1.78987e-05,-2.15994e-05,-1.68754e-06,2
2.79241e-05,1.38054e-05,1.60536e-07,-2.20192e-05,-3.01507e-05,3.85207e-06,-1.35433e-05,6.64527e-07,2
2.07473e-05,1.29275e-05,1.08906e-06,-3.7295e-05,-2.99465e-05,-6.33201e-06,6.03917e-06,-6.05059e-07,2
5.58392e-06,1.1875e-05,-5.33e-06,-4.46391e-05,-3.98561e-05,-1.51722e-05,2.65403e-05,-1.89953e-06,2
-9.56856e-06,1.44437e-05,-1.34273e-05,-4.66971e-05,-4.85844e-05,-3.38412e-05,3.67153e-05,-3.60853e-06,2
-2.07752e-05,1.83411e-05,-1.60301e-05,-5.28357e-05,-4.12358e-05,-6.18821e-05,3.12339e-05,-5.43653e-06,2
-2.53588e-05,2.12127e-05,-1.53389e-05,-6.49497e-05,-1.68711e-05,-8.17745e-05,2.24975e-05,-4.38223e-06,2
-2.34159e-05,2.35129e-05,-1.63181e-05,-7.47613e-05,8.88688e-06,-8.40165e-05,2.12115e-05,-5.29992e-07,2
-1.80335e-05,2.39325e-05,-1.80186e-05,-6.75762e-05,2.38644e-05,-7.29726e-05,2.33602e-05,3.68916e-06,2
-1.45885e-05,2.05949e-05,-1.55889e-05,-3.10461e-05,2.89792e-05,-5.83967e-05,2.20861e-05,5.39203e-06,2
-1.54767e-05,1.57955e-05,-7.71348e-06,1.97985e-05,3.0042e-05,-4.788e-05,1.53508e-05,4.62995e-06,2
-2.09459e-05,1.38749e-05,1.02869e-06,5.03601e-05,2.57278e-05,-4.20806e-05,6.19746e-06,2.9628e-06,2
-3.09849e-05,1.30383e-05,2.69851e-06,4.96978e-05,1.17801e-05,-3.66045e-05,1.98985e-06,2.10903e-07,2
-4.09227e-05,1.04796e-05,-3.59897e-06,3.4641e-05,-5.82009e-06,-2.67779e-05,4.77333e-06,-2.79842e-06,2
-4.11939e-05,7.6671e-06,-1.10799e-05,1.98234e-05,-6.72314e-06,-1.1564e-05,9.91753e-06,-4.49751e-06,2
-3.21836e-05,7.87756e-06,-1.28364e-05,1.0909e-05,2.08806e-05,8.3459e-06,1.58538e-05,-5.03387e-06,2
-2.41468e-05,1.14809e-05,-8.17766e-06,1.19981e-05,6.69523e-05,2.62156e-05,2.3514e-05,-5.17789e-06,2
-2.34148e-05,1.50583e-05,-5.8047e-07,2.18573e-05,0.000108265,3.56241e-05,3.08754e-05,-3.98924e-06,2
-3.01916e-05,1.37646e-05,5.42279e-06,3.12456e-05,0.000126391,3.53003e-05,3.32708e-05,-2.56454e-06,2
-4.20233e-05,9.05116e-06,7.55168e-06,3.51519e-05,0.000118268,2.81139e-05,2.87439e-05,-2.55485e-06,2
-5.51446e-05,8.96011e-06,5.96257e-06,3.23492e-05,9.78893e-05,1.63863e-05,2.03659e-05,-2.92968e-06,2
-6.44472e-05,1.34736e-05,1.54727e-06,2.04653e-05,8.00462e-05,7.04626e-06,1.6858e-05,-2.56594e-06,2
-7.06905e-05,1.30823e-05,-5.32645e-06,4.55837e-06,6.59956e-05,1.05231e-05,2.09497e-05,-2.10491e-06,2
-7.79426e-05,4.46085e-06,-1.43505e-05,-5.19941e-06,4.65803e-05,2.68453e-05,2.44516e-05,-3.28079e-06,2
-8.4823e-05,-6.30233e-06,-2.12151e-05,-2.40661e-06,1.27457e-05,4.73216e-05,2.03102e-05,-4.67777e-06,2
-8.65816e-05,-1.04664e-05,-2.31912e-05,3.85724e-06,-2.0384e-05,6.20667e-05,1.23154e-05,-3.53541e-06,2
-8.24653e-05,-1.0746e-05,-2.52391e-05,1.23748e-06,-4.34223e-05,6.74429e-05,7.04005e-06,-1.69996e-06,2
-8.17987e-05,-1.43313e-05,-2.90988e-05,-6.71758e-06,-6.34131e-05,7.06457e-05,-2.20404e-06,4.64201e-07,2
-8.53808e-05,-1.99972e-05,-3.12022e-05,-9.77992e-06,-6.59311e-05,6.63209e-05,-1.76071e-05,3.07752e-06,2
-8.12505e-05,-2.82831e-05,-3.29508e-05,-9.81742e-06,-2.91304e-05,4.7696e-05,-3.17137e-05,3.65833e-06,2
-6.19963e-05,-3.75115e-05,-3.54882e-05,-1.40041e-05,2.76838e-05,1.95298e-05,-3.93379e-05,2.40801e-06,2
-3.02523e-05,-3.43728e-05,-3.59548e-05,-1.55739e-05,5.50237e-05,-1.69512e-05,-4.04475e-05,2.25098e-06,2
3.50415e-06,-8.98732e-06,-2.80214e-05,-1.28939e-05,4.43698e-05,-5.73689e-05,-3.81846e-05,5.90996e-06,2
2.62063e-05,2.18477e-05,-1.56101e-05,-1.60155e-05,1.66304e-05,-8.90591e-05,-3.01841e-05,9.47284e-06,2
3.00469e-05,3.91519e-05,-7.29335e-06,-2.82275e-05,-4.76758e-06,-9.98717e-05,-1.98515e-05,9.62014e-06,2
2.27248e-05,4.20549e-05,-2.68911e-06,-3.89613e-05,-7.90079e-06,-9.22732e-05,-1.16456e-05,7.80728e-06,2
1.43235e-05,3.84063e-05,4.57391e-07,-3.92399e-05,3.17851e-06,-7.61713e-05,-1.09029e-07,6.41561e-06,2
8.22491e-06,3.7063e-05,1.72354e-06,-2.9866e-05,1.80392e-05,-6.02183e-05,1.92055e-05,5.89215e-06,2
1.31141e-06,3.91178e-05,1.55924e-06,-1.91633e-05,2.84149e-05,-4.53271e-05,3.80299e-05,6.11435e-06,2
-8.62144e-06,3.89841e-05,1.63212e-06,-1.51789e-05,3.58562e-05,-2.839e-05,4.55757e-05,6.19259e-06,2
-1.78133e-05,3.46935e-05,1.39041e-06,-1.69772e-05,3.78883e-05,-1.59632e-05,3.96662e-05,5.00415e-06,2
-2.31867e-05,3.17366e-05,2.31489e-06,-1.65702e-05,3.17493e-05,-1.22398e-05,2.9771e-05,4.1336e-06,2
-2.5448e-05,3.30075e-05,6.16431e-06,-8.81358e-06,1.976e-05,-6.36528e-06,2.92414e-05,4.56411e-06,2
-2.87881e-05,3.58857e-05,1.07616e-05,1.01741e-06,8.09402e-06,8.36841e-06,3.81316e-05,4.72248e-06,2
-3.54203e-05,3.73888e-05,1.13649e-05,6.12408e-06,-2.35126e-06,2.34066e-05,4.41757e-05,3.08058e-06,2
-4.12999e-05,3.7585e-05,7.32273e-06,3.17147e-06,-7.81963e-06,2.85483e-05,4.16323e-05,7.92241e-07,2
-4.04018e-05,3.76975e-05,2.63791e-06,-7.51507e-06,-6.90408e-06,2.03927e-05,3.72588e-05,-7.49096e-07,2
-3.25525e-05,3.57686e-05,1.22868e-06,-2.05309e-05,-4.64988e-06,-1.00308e-06,3.8166e-05,1.1637e-06,2
-2.41198e-05,3.06554e-05,3.00595e-08,-2.88533e-05,-7.19139e-06,-2.66949e-05,4.47146e-05,5.14054e-06,2
-1.96426e-05,2.50974e-05,-2.6818e-06,-3.39254e-05,-1.53546e-05,-4.15021e-05,5.29454e-05,7.55337e-06,2
-1.23468e-05,2.12121e-05,-3.29148e-06,-3.56949e-05,-2.53432e-05,-3.98164e-05,5.80463e-05,7.40915e-06,2
7.0246e-06,2.03789e-05,-1.19414e-06,-3.22112e-05,-2.66294e-05,-3.0558e-05,5.22337e-05,6.92862e-06,2
2.53767e-05,2.12186e-05,1.55179e-06,-2.45862e-05,-1.43923e-05,-2.42796e-05,3.71147e-05,7.14284e-06,2
2.61421e-05,2.32605e-05,2.24028e-06,-1.43896e-05,4.03702e-06,-1.93484e-05,1.74842e-05,1.03971e-05,2
9.72233e-06,2.44772e-05,2.88443e-07,3.05688e-06,2.24625e-05,-1.24951e-05,-3.04891e-06,1.71717e-05,2
-1.66538e-05,2.20793e-05,-3.93612e-06,2.25827e-05,3.61881e-05,-4.62647e-06,-1.88835e-05,2.16719e-05,2
-3.89081e-05,1.75789e-05,-8.18233e-06,3.00323e-05,4.5436e-05,2.87977e-07,-2.76107e-05,2.37171e-05,2
-5.30452e-05,1.33895e-05,-1.01902e-05,2.45256e-05,4.72727e-05,-1.09705e-08,-2.51206e-05,2.33633e-05,2
-5.98855e-05,9.6736e-06,-9.17057e-06,1.22213e-05,3.73027e-05,-7.65919e-06,-1.64522e-05,2.16927e-05,2
-6.14662e-05,4.74328e-06,-7.30061e-06,1.07262e-06,1.49302e-05,-2.67687e-05,-1.28101e-05,2.0265e-05,2
-5.8045e-05,2.61296e-06,-6.75038e-06,-7.46313e-06,-8.4831e-06,-4.85922e-05,-1.42266e-05,1.76733e-05,2
-5.1982e-05,4.11193e-06,-5.38046e-06,-1.09159e-05,-1.80046e-05,-5.6783e-05,-1.73523e-05,1.23156e-05,2
-4.74437e-05,6.2146e-06,-1.18197e-06,-3.7237e-06,-1.04486e-05,-4.43185e-05,-2.14984e-05,7.09614e-06,2
-4.27226e-05,6.96699e-06,4.66913e-06,1.53123e-05,7.73373e-06,-2.32659e-05,-2.16041e-05,4.94141e-06,2
-3.81562e-05,5.82505e-06,6.88335e-06,3.11865e-05,2.61643e-05,-9.41441e-06,-1.73741e-05,4.63105e-06,2
-3.86252e-05,2.02248e-06,5.22521e-06,2.80148e-05,3.42857e-05,-5.06522e-06,-1.41195e-05,5.69385e-06,2
-4.53444e-05,-1.73836e-06,3.64577e-06,1.15097e-05,3.19683e-05,-3.19792e-06,-9.38112e-06,7.16221e-06,2
-4.9018e-05,1.31911e-07,2.18178e-06,-2.77335e-06,2.50785e-05,2.75846e-06,1.16233e-06,8.31444e-06,2
-4.75219e-05,7.27e-06,-1.24143e-06,-7.97607e-06,1.19657e-05,1.63333e-05,1.37751e-05,8.72114e-06,2
-4.62687e-05,1.3066e-05,-7.58281e-06,-7.49043e-06,-1.33735e-05,3.63603e-05,2.19622e-05,7.16658e-06,2
-4.83157e-05,1.11874e-05,-1.73807e-05,-4.60338e-06,-4.835e-05,5.63464e-05,2.38201e-05,2.62473e-06,2
-5.27522e-05,2.1221e-06,-2.78994e-05,-1.55429e-06,-8.08076e-05,7.23634e-05,2.03488e-05,-2.93869e-06,2
-5.88156e-05,-9.29675e-06,-3.33301e-05,-4.80553e-06,-0.000101614,7.94712e-05,1.98008e-05,-8.26916e-06,2
-5.98728e-05,-1.74875e-05,-3.21172e-05,-1.51768e-05,-0.000103853,7.0328e-05,3.07843e-05,-1.44684e-05,2
-5.17146e-05,-1.84751e-05,-2.57186e-05,-2.13352e-05,-7.90328e-05,4.78122e-05,4.07762e-05,-2.29443e-05,2
-3.5464e-05,-1.00126e-05,-1.46444e-05,-2.06634e-05,-3.44096e-05,2.53035e-05,2.97256e-05,-3.0988e-05,2
-1.26353e-05,4.57732e-06,-3.42237e-06,-1.78662e-05,2.90571e-06,7.56568e-06,4.50571e-06,-3.60768e-05,2
8.33243e-06,1.85196e-05,-2.974e-07,-1.77176e-05,2.6239e-05,-8.56153e-06,-8.32475e-06,-3.68569e-05,2
1.61072e-05,2.75188e-05,-5.73048e-06,-1.78878e-05,5.60464e-05,-2.88097e-05,-5.00931e-06,-3.39163e-05,2
5.28284e-06,2.59782e-05,-1.2893e-05,-1.24084e-05,9.62797e-05,-5.13611e-05,7.67102e-07,-3.03961e-05,2
-1.53962e-05,1.51659e-05,-1.63283e-05,-2.07143e-06,0.000133236,-6.59371e-05,8.59788e-06,-2.6936e-05,2
-2.8794e-05,4.76646e-06,-1.82427e-05,1.03245e-05,0.000142719,-6.99031e-05,1.91065e-05,-2.29825e-05,2
-3.11928e-05,-1.11813e-06,-1.94519e-05,2.06282e-05,0.000108701,-6.8668e-05,2.63234e-05,-1.88746e-05,2
-2.68976e-05,1.29848e-06,-2.10775e-05,2.6409e-05,5.84268e-05,-6.9383e-05,3.06495e-05,-1.53618e-05,2
-2.0652e-05,9.21756e-06,-2.36212e-05,2.48553e-05,2.37643e-05,-7.42196e-05,3.78601e-05,-1.19403e-05,2
-1.514e-05,2.04015e-05,-2.25327e-05,1.45493e-05,1.75986e-05,-8.22619e-05,4.5803e-05,-9.39796e-06,2
-1.02378e-05,3.08191e-05,-1.5161e-05,6.93861e-07,3.60414e-05,-8.65044e-05,4.46762e-05,-7.9161e-06,2
-8.38246e-06,3.34345e-05,-6.34632e-06,-6.64988e-06,6.50466e-05,-7.82952e-05,3.36758e-05,-6.45816e-06,2
-9.64809e-06,2.94279e-05,-3.02347e-06,3.38064e-06,8.23683e-05,-5.94019e-05,1.81472e-05,-3.92148e-06,2
-1.46814e-05,2.3921e-05,-4.1329e-06,2.35898e-05,7.17681e-05,-3.74632e-05,3.02973e-06,-2.2221e-07,2
-2.07833e-05,2.16675e-05,-5.96634e-06,3.09307e-05,4.26659e-05,-1.85954e-05,-3.02342e-06,2.89701e-06,2
-2.52825e-05,2.09674e-05,-5.98933e-06,1.59658e-05,2.07692e-05,-5.64277e-06,1.73503e-06,3.60743e-06,2
-2.80416e-05,1.91305e-05,-5.44221e-06,-9.61998e-06,2.0693e-05,2.52308e-06,8.62614e-06,3.52958e-06,2
-3.14904e-05,1.38088e-05,-6.28025e-06,-3.26358e-05,2.88476e-05,8.10575e-06,1.30066e-05,4.01547e-06,2
-3.6546e-05,5.86156e-06,-9.90267e-06,-4.78568e-05,3.1488e-05,9.08523e-06,1.68805e-05,5.80793e-06,2
-4.20147e-05,-2.28337e-06,-1.4028e-05,-5.35461e-05,2.84829e-05,3.98005e-06,2.03057e-05,7.94965e-06,2
-4.58312e-05,-7.99163e-06,-1.55786e-05,-5.47474e-05,2.50006e-05,-1.79936e-06,2.10563e-05,8.29296e-06,2
-4.56906e-05,-1.2295e-05,-1.58945e-05,-5.96495e-05,1.89782e-05,-1.84869e-06,1.69739e-05,8.26704e-06,2
-4.24906e-05,-1.61756e-05,-1.83213e-05,-6.91922e-05,8.39025e-06,1.16129e-06,6.92979e-06,9.07395e-06,2
-3.96213e-05,-1.96456e-05,-2.27263e-05,-7.69544e-05,-5.28939e-06,3.0033e-06,-6.50857e-06,8.34388e-06,2
-3.70901e-05,-2.10201e-05,-2.34438e-05,-7.7859e-05,-1.9901e-05,2.77285e-06,-1.93051e-05,6.30094e-06,2
-3.58946e-05,-1.83389e-05,-1.89804e-05,-6.79925e-05,-3.13137e-05,3.40965e-06,-2.73704e-05,6.17815e-06,2
-4.21828e-05,-1.17956e-05,-1.14797e-05,-4.14739e-05,-3.30047e-05,1.15643e-05,-2.16306e-05,6.46689e-06,2
-5.54266e-05,-3.60245e-06,-2.98313e-06,1.21489e-05,-2.26622e-05,2.32097e-05,-6.47166e-07,5.66031e-06,2
-6.58217e-05,3.99002e-06,4.26875e-06,7.94404e-05,-1.81431e-06,3.4455e-05,2.42193e-05,5.14292e-06,2
-6.58707e-05,1.54124e-05,1.34298e-05,0.00012151,2.39003e-05,5.04631e-05,4.48021e-05,6.07037e-06,2
-6.11466e-05,2.47733e-05,2.02972e-05,0.000112249,3.71772e-05,6.44702e-05,5.16853e-05,6.32475e-06,2
-5.87965e-05,2.34855e-05,1.7539e-05,7.58874e-05,3.11911e-05,6.87551e-05,4.8905e-05,3.3345e-06,2
-4.93219e-05,1.90274e-05,1.042e-05,4.91523e-05,1.37775e-05,5.98512e-05,4.94067e-05,-4.17407e-07,2
-1.64792e-05,2.16812e-05,8.3751e-06,3.42935e-05,-9.23147e-06,4.21887e-05,5.24832e-05,-1.44952e-06,2
2.98705e-05,3.37103e-05,1.33798e-05,3.03728e-05,-2.73483e-05,3.7325e-05,5.35967e-05,-1.03583e-06,2
5.92682e-05,4.95638e-05,1.85746e-05,3.1781e-05,-3.08999e-05,4.52764e-05,4.76603e-05,-5.96643e-07,2
5.55352e-05,5.9119e-05,1.74371e-05,3.24995e-05,-1.62727e-05,4.79164e-05,3.78798e-05,-9.19542e-08,2
3.07371e-05,5.89255e-05,9.68669e-06,2.24613e-05,4.68737e-06,2.92444e-05,2.71441e-05,1.73743e-06,2
6.72806e-06,5.36321e-05,3.83594e-06,2.89302e-06,2.02981e-05,-2.47754e-06,2.09493e-05,4.51692e-06,2
-6.57792e-06,4.76907e-05,3.42454e-06,-1.57749e-05,3.59058e-05,-1.86175e-05,2.36138e-05,5.71948e-06,2
-1.12766e-05,4.44144e-05,3.38967e-06,-3.15221e-05,5.10356e-05,-1.4528e-05,2.90099e-05,5.13487e-06,2
-1.39877e-05,4.19525e-05,1.28332e-06,-4.84494e-05,5.61497e-05,-1.09331e-05,3.66851e-05,3.52958e-06,2
-1.76489e-05,3.74131e-05,-1.93029e-06,-6.14038e-05,4.73039e-05,-2.45214e-05,4.32944e-05,2.08172e-06,2
-2.24644e-05,3.06726e-05,-8.2643e-06,-5.6781e-05,3.14334e-05,-5.3234e-05,4.12951e-05,1.8005e-06,2
-2.68817e-05,2.22692e-05,-1.9699e-05,-3.89646e-05,1.29401e-05,-8.58706e-05,3.64922e-05,1.16733e-06,2
-3.01884e-05,1.33251e-05,-3.27651e-05,-1.90654e-05,-2.8085e-06,-0.000100788,4.3447e-05,-1.08945e-06,2
-3.38242e-05,5.44259e-06,-4.07494e-05,-1.13794e-06,-7.82813e-06,-8.31559e-05,6.43941e-05,-2.54052e-06,2
-3.8735e-05,-1.13266e-06,-4.19211e-05,1.47775e-05,-1.16522e-07,-4.78888e-05,8.69299e-05,-1.7534e-06,2
-4.45778e-05,-8.14479e-06,-4.09067e-05,2.18106e-05,1.16548e-05,-2.14795e-05,9.03349e-05,-8.87496e-07,2
-5.11922e-05,-1.40811e-05,-3.93977e-05,2.02916e-05,1.72121e-05,-7.47576e-06,6.42567e-05,-1.28546e-06,2
-5.89909e-05,-1.72255e-05,-3.58023e-05,1.09726e-05,1.41562e-05,1.48918e-06,2.02423e-05,-6.99657e-07,2
-6.81629e-05,-1.79645e-05,-3.07021e-05,-4.41474e-06,9.57642e-06,7.57687e-06,-2.43547e-05,3.81976e-07,2
-7.65012e-05,-1.9578e-05,-2.57475e-05,-1.777e-05,9.4779e-06,1.39575e-05,-6.02156e-05,-6.81069e-07,2
-8.11083e-05,-2.25524e-05,-2.29642e-05,-2.41621e-05,1.08823e-05,2.11902e-05,-8.42027e-05,-1.4303e-06,2
-8.43266e-05,-2.36843e-05,-2.50566e-05,-2.92154e-05,9.15251e-06,2.59225e-05,-9.63002e-05,3.24146e-07,2
-8.52647e-05,-2.17196e-05,-2.79607e-05,-3.33922e-05,7.48467e-06,2.23798e-05,-0.000102053,1.24676e-06,2
-7.59452e-05,-1.36153e-05,-2.4675e-05,-3.25886e-05,1.2811e-05,1.24091e-05,-0.000102549,2.62012e-06,2
-5.40599e-05,-4.97324e-06,-1.8422e-05,-2.88204e-05,1.56077e-05,3.0961e-06,-9.35017e-05,7.553e-06,2
-3.01753e-05,-3.13736e-06,-1.39562e-05,-2.24919e-05,1.03434e-05,-1.28445e-05,-7.64823e-05,1.27963e-05,2
-1.0182e-05,-6.07451e-07,-8.37506e-06,-1.29675e-05,1.13688e-05,-3.47494e-05,-5.68946e-05,1.58026e-05,2
7.07402e-06,8.18383e-06,-4.70018e-07,-5.12382e-06,1.86825e-05,-4.62245e-05,-3.51408e-05,1.5674e-05,2
1.91912e-05,2.42932e-05,7.186e-06,-4.18114e-06,2.14428e-05,-5.33161e-05,-9.45644e-06,1.33207e-05,2
1.67535e-05,3.95422e-05,9.58367e-06,-1.06733e-05,1.75064e-05,-6.21743e-05,2.07326e-05,1.11073e-05,2
-2.20299e-06,4.16241e-05,3.96915e-06,-2.69318e-05,8.63284e-06,-6.02704e-05,4.94019e-05,9.81902e-06,2
-2.43147e-05,3.32317e-05,-4.17664e-06,-4.25224e-05,-4.45762e-06,-4.87044e-05,5.83311e-05,8.99937e-06,2
