ch1,ch2,ch3,ch4,ch5,ch6,ch7,ch8,class
-4.45949e-05,-2.43849e-05,-3.00664e-05,-1.27032e-05,3.37583e-05,-1.18713e-05,-3.30206e-05,6.98962e-06,2
-4.30517e-05,-2.06972e-05,-2.44039e-05,-2.2085e-05,2.75532e-05,5.29651e-05,-3.79037e-05,6.55672e-06,2
-2.25472e-05,-8.04335e-06,-1.8196e-05,-2.68526e-05,2.24358e-05,8.76988e-05,-4.24836e-05,4.32569e-06,2
-1.27443e-05,3.10141e-06,-1.02804e-05,-2.73744e-05,1.71669e-05,9.00978e-05,-4.67279e-05,1.30796e-06,2
-3.2038e-05,5.92759e-06,-2.13909e-06,-2.55549e-05,4.50402e-06,8.0338e-05,-4.75328e-05,-6.29027e-07,2
-6.63743e-05,-9.50334e-08,9.91945e-07,-2.4013e-05,-1.97299e-05,7.02126e-05,-4.50032e-05,-3.39173e-07,2
-8.63613e-05,-8.77513e-06,-2.28575e-06,-2.48097e-05,-3.93367e-05,5.17212e-05,-4.69665e-05,1.40343e-06,2
-7.75301e-05,-1.18158e-05,-4.86711e-06,-2.42298e-05,-2.99782e-05,1.90568e-05,-5.37857e-05,1.92274e-06,2
-5.34446e-05,-5.22496e-06,4.87883e-07,-2.11556e-05,6.93672e-06,-2.50497e-05,-5.08007e-05,2.38291e-06,2
-3.6939e-05,8.19471e-06,1.17033e-05,-1.73471e-05,5.07952e-05,-7.26334e-05,-2.94124e-05,2.94667e-06,2
-4.28609e-05,2.17965e-05,2.24433e-05,-1.34331e-05,6.90207e-05,-0.000107483,1.04589e-05,3.83733e-06,2
-6.05321e-05,3.14341e-05,2.57115e-05,-1.25903e-05,4.62515e-05,-0.000126596,5.91513e-05,4.72944e-06,2
-6.66521e-05,3.62855e-05,1.85196e-05,-1.809e-05,1.57828e-05,-0.000140847,9.94643e-05,3.78702e-06,2
-5.1209e-05,3.99765e-05,5.91048e-06,-2.59628e-05,7.88288e-06,-0.000135174,0.000122041,2.76962e-06,2
-2.40916e-05,4.26805e-05,-2.37129e-06,-2.83244e-05,1.09438e-05,-8.67805e-05,0.000115057,3.83623e-06,2
-9.14602e-07,4.28134e-05,-3.23231e-06,-2.31994e-05,1.94971e-06,-1.14148e-05,8.60204e-05,5.03188e-06,2
5.57279e-06,4.23058e-05,-1.90874e-06,-9.05668e-06,-1.69214e-05,4.9325e-05,6.00027e-05,4.76365e-06,2
-3.76332e-06,3.81053e-05,-2.54591e-06,7.31429e-06,-3.88542e-05,6.7585e-05,4.04806e-05,4.77607e-06,2
-1.87606e-05,2.72241e-05,-6.12223e-06,1.94351e-06,-5.65489e-05,6.37605e-05,2.35304e-05,4.26929e-06,2
-3.87758e-05,1.28182e-05,-8.86044e-06,-2.3345e-05,-6.45033e-05,6.02118e-05,9.59345e-06,1.36285e-06,2
-6.16325e-05,6.36392e-07,-5.15493e-06,-3.84004e-05,-8.05971e-05,4.0411e-05,1.37915e-06,-4.75717e-07,2
-8.42314e-05,-5.83255e-06,4.45153e-06,-2.17766e-05,-0.000107893,3.54107e-07,-4.16549e-06,-6.25294e-07,2
-0.000105765,-1.02301e-05,8.91773e-06,1.07383e-05,-0.000121612,-4.24061e-05,-9.29103e-06,1.21002e-07,2
-0.000123563,-1.87894e-05,3.16325e-06,1.70947e-05,-9.50944e-05,-6.28674e-05,-1.14158e-05,1.59834e-06,2
-0.000135047,-2.97593e-05,-6.45467e-06,-1.03329e-05,-9.58538e-06,-4.46456e-05,-6.61791e-06,3.70565e-06,2
-0.000140333,-3.29123e-05,-1.02435e-05,-4.3205e-05,0.000113835,8.18003e-06,1.23486e-05,5.72131e-06,2
-0.000133294,-1.99754e-05,-6.75229e-06,-5.75438e-05,0.000204609,6.89675e-05,3.32653e-05,4.59658e-06,2
-9.00239e-05,1.66112e-06,-2.04525e-06,-5.01947e-05,0.000215749,0.000116871,4.08692e-05,1.75702e-06,2
-2.46303e-06,1.6522e-05,-1.25353e-06,-3.07792e-05,0.000173275,0.000153585,4.37583e-05,-5.44814e-07,2
8.95163e-05,2.16496e-05,-7.03971e-06,-1.04028e-05,0.000127471,0.000166459,5.58249e-05,-2.06609e-06,2
0.000131426,2.59437e-05,-1.67067e-05,1.19156e-05,9.1402e-05,0.000130946,6.55734e-05,-1.88141e-06,2
0.00010919,3.30817e-05,-2.31859e-05,3.8658e-05,4.4801e-05,4.44366e-05,5.97998e-05,5.66511e-07,2
6.75734e-05,3.93894e-05,-2.13118e-05,5.18191e-05,-1.52645e-05,-5.43469e-05,4.10042e-05,3.26603e-06,2
6.96019e-05,4.62774e-05,-1.39589e-05,3.38991e-05,-5.39838e-05,-0.00012216,1.71462e-05,4.98265e-06,2
0.000116279,5.81342e-05,-5.88808e-06,9.8466e-07,-3.0497e-05,-0.000162363,-5.41494e-06,4.30035e-06,2
0.000150803,7.23511e-05,-5.69956e-07,-1.91886e-05,4.86008e-05,-0.000192695,-2.60965e-05,2.58261e-06,2
0.000139854,7.80883e-05,9.82529e-07,-2.45914e-05,0.000112954,-0.000183798,-4.15029e-05,2.23266e-06,2
9.50466e-05,6.59082e-05,-7.53809e-07,-2.65573e-05,9.8736e-05,-0.000119114,-4.16645e-05,2.97536e-06,2
5.11321e-05,4.23387e-05,-2.39231e-06,-2.65247e-05,3.12007e-05,-4.81937e-05,-2.87172e-05,3.38195e-06,2
2.46707e-05,2.13753e-05,-1.57391e-06,-1.87787e-05,-2.19366e-05,-1.33163e-05,-1.64593e-05,3.48323e-06,2
7.36925e-06,2.65435e-06,6.91777e-08,-2.16098e-06,-3.74824e-05,-1.48909e-05,-5.61715e-06,2.05736e-06,2
-1.38701e-06,-1.33329e-05,-4.22155e-06,2.25074e-05,-2.43268e-05,-7.12308e-05,5.61741e-06,-1.39002e-06,2
-2.0674e-06,-1.90973e-05,-1.25891e-05,4.36058e-05,-7.50468e-06,-0.00016966,1.2199e-05,-3.60446e-06,2
-3.28946e-06,-1.25073e-05,-1.69081e-05,3.64484e-05,-1.73031e-05,-0.000193481,1.89262e-05,-2.82634e-06,2
-9.35887e-06,2.99886e-06,-1.6141e-05,7.46359e-06,-4.0991e-05,-0.000106008,2.83658e-05,-3.88338e-07,2
-2.10856e-05,2.22629e-05,-1.04774e-05,-1.50525e-05,-4.31033e-05,-2.00519e-05,3.33727e-05,2.49667e-07,2
-3.68987e-05,4.20907e-05,-3.34846e-06,-2.32565e-05,-1.14773e-05,1.90014e-07,3.60577e-05,-1.06864e-06,2
-5.56941e-05,5.44422e-05,2.1038e-06,-2.4604e-05,4.15071e-05,-1.60959e-05,3.96384e-05,-2.06486e-06,2
-7.66402e-05,5.48729e-05,4.13907e-06,-2.5084e-05,9.35151e-05,-2.72757e-05,3.98649e-05,-1.86213e-06,2
-9.58759e-05,4.34847e-05,4.44976e-06,-2.41624e-05,0.000123887,-2.24412e-05,3.78848e-05,-1.40171e-06,2
-0.000107735,2.22518e-05,2.98591e-06,-1.70686e-05,0.000124021,-1.0199e-05,4.075e-05,-4.73646e-07,2
-0.000105372,-1.84665e-06,-1.82151e-08,9.05911e-08,0.000100049,2.59806e-07,4.97805e-05,1.13384e-07,2
-9.38407e-05,-1.97401e-05,-3.09437e-06,2.02129e-05,5.81513e-05,9.6896e-06,6.00973e-05,-1.77098e-06,2
-9.4875e-05,-2.82342e-05,-6.59969e-06,2.88605e-05,8.11505e-06,2.5686e-05,6.81014e-05,-3.98146e-06,2
-0.000124304,-3.11384e-05,-1.0988e-05,2.1775e-05,-3.30627e-05,4.47465e-05,7.18851e-05,-1.38531e-06,2
-0.000172096,-3.57708e-05,-1.66173e-05,8.42047e-06,-5.20335e-05,6.39778e-05,6.59392e-05,4.31958e-06,2
-0.000216484,-4.49237e-05,-2.10791e-05,-2.93221e-06,-5.20835e-05,8.30464e-05,4.23177e-05,7.08794e-06,2
-0.000239237,-5.4882e-05,-2.11335e-05,-1.06971e-05,-4.899e-05,0.00010271,3.27977e-06,7.27597e-06,2
-0.00022973,-6.36473e-05,-1.67128e-05,-1.7884e-05,-5.34385e-05,0.000124499,-3.35363e-05,7.04816e-06,2
-0.000187328,-6.99145e-05,-1.21982e-05,-2.68155e-05,-7.14204e-05,0.000155906,-5.63763e-05,6.23301e-06,2
-0.000118763,-6.61772e-05,-7.71592e-06,-3.42408e-05,-9.98531e-05,0.000202033,-6.21989e-05,5.96061e-06,2
-3.7664e-05,-3.93101e-05,2.11337e-07,-3.27821e-05,-0.000106224,0.000242156,-4.70996e-05,6.52436e-06,2
3.49782e-05,2.73127e-06,1.06318e-05,-2.61938e-05,-6.99541e-05,0.000244669,-1.75266e-05,6.43826e-06,2
8.31966e-05,3.58503e-05,1.82867e-05,-2.05398e-05,-5.52617e-06,0.00021489,3.61198e-06,5.99734e-06,2
9.78459e-05,4.94665e-05,1.93004e-05,-1.57705e-05,6.92386e-05,0.000170758,1.97394e-06,7.43608e-06,2
8.2037e-05,5.23751e-05,1.34237e-05,-1.74399e-05,0.000148042,0.000111633,-1.26956e-05,1.09499e-05,2
6.017e-05,5.29612e-05,4.334e-06,-2.56654e-05,0.000234196,2.92183e-05,-3.30716e-05,1.2085e-05,2
4.89294e-05,6.292e-05,-3.44091e-06,-3.21568e-05,0.000313654,-8.29094e-05,-5.74423e-05,1.15084e-05,2
5.61871e-05,8.82409e-05,-3.58745e-06,-2.10137e-05,0.000342798,-0.000170392,-5.93993e-05,1.29551e-05,2
8.004e-05,0.000108885,9.82062e-07,3.78543e-06,0.000302951,-0.000207507,-3.37501e-05,1.39508e-05,2
9.66284e-05,0.000110277,-2.50713e-06,9.10111e-06,0.000222383,-0.000224648,-8.58825e-06,9.49526e-06,2
8.81936e-05,9.8602e-05,-1.1679e-05,-7.38785e-06,0.000138888,-0.00023113,1.62348e-05,2.78928e-07,2
6.05866e-05,8.26059e-05,-1.55466e-05,-2.13992e-05,8.27678e-05,-0.000261682,4.41238e-05,-6.47695e-06,2
2.96936e-05,6.35893e-05,-1.35017e-05,-2.60395e-05,2.54026e-05,-0.000320788,5.14416e-05,-1.13811e-05,2
2.14655e-06,4.45271e-05,-1.17823e-05,-2.54537e-05,-7.55007e-05,-0.000351423,2.7525e-05,-1.82449e-05,2
-1.90785e-05,2.5205e-05,-1.24031e-05,-2.10282e-05,-0.000218114,-0.000299729,-3.77824e-06,-2.44743e-05,2
-2.71561e-05,8.51916e-06,-1.27687e-05,-1.21906e-05,-0.000355817,-0.000191244,-1.89217e-05,-2.77056e-05,2
-2.49075e-05,1.25119e-06,-1.06619e-05,-4.60911e-06,-0.00041227,-9.14894e-05,-1.63561e-05,-2.75742e-05,2
-2.46457e-05,1.28121e-06,-6.80612e-06,-9.8228e-07,-0.000324716,-3.76395e-05,-4.36475e-06,-2.51287e-05,2
-4.17528e-05,1.65934e-06,-4.7714e-06,3.94917e-06,-0.000122331,-1.21263e-05,1.47446e-05,-2.16394e-05,2
-7.96368e-05,-2.09172e-06,-5.8619e-06,1.12375e-05,5.20232e-05,2.36048e-05,3.22459e-05,-1.88699e-05,2
-0.000116901,-4.37801e-06,-6.26679e-06,1.76918e-05,9.95445e-05,7.86216e-05,3.63494e-05,-1.77412e-05,2
-0.000123524,3.42724e-06,-3.06841e-06,2.30377e-05,5.86067e-05,0.000141505,3.15796e-05,-1.67018e-05,2
-8.82015e-05,1.95861e-05,3.80247e-07,2.71435e-05,2.0059e-05,0.000190591,2.76323e-05,-1.29848e-05,2
-3.64377e-05,3.1888e-05,3.08265e-07,3.19215e-05,1.2572e-05,0.000210618,2.29139e-05,-7.8764e-06,2
-1.15784e-05,3.54225e-05,-1.20335e-06,4.14947e-05,1.18515e-05,0.000189893,9.01867e-06,-6.10591e-06,2
-2.79989e-05,3.15802e-05,-1.29492e-06,4.96844e-05,6.53025e-07,0.000140308,-1.34717e-05,-6.35231e-06,2
-5.40386e-05,2.28568e-05,-4.97535e-07,4.51362e-05,-1.49329e-05,7.92299e-05,-3.49294e-05,-4.51401e-06,2
-5.20471e-05,2.00307e-05,-1.79115e-07,3.0288e-05,-3.04614e-05,1.35019e-05,-4.82112e-05,-2.57704e-06,2
-1.8071e-05,3.18915e-05,-8.63126e-07,1.52847e-05,-4.25957e-05,-6.45478e-05,-5.29823e-05,-3.65013e-06,2
1.23892e-05,4.58302e-05,-4.1165e-06,2.583e-06,-4.25574e-05,-0.000157467,-4.8054e-05,-3.79692e-06,2
9.46247e-06,4.65086e-05,-9.65251e-06,-7.27056e-06,-2.2225e-05,-0.000234591,-3.2294e-05,4.0372e-07,2
-1.11013e-05,3.7675e-05,-1.50215e-05,-1.28061e-05,2.01011e-05,-0.000238332,-1.20765e-05,4.82741e-06,2
-2.39115e-05,2.65033e-05,-1.90506e-05,-1.59981e-05,6.75861e-05,-0.000181124,-1.91041e-06,5.94809e-06,2
-2.55135e-05,1.29324e-05,-2.11519e-05,-1.37788e-05,9.21137e-05,-0.000120852,-5.07388e-06,4.1782e-06,2
-2.44135e-05,2.51859e-06,-2.06551e-05,-7.63578e-06,7.69884e-05,-8.92671e-05,-3.4875e-06,3.99863e-06,2
-2.6724e-05,1.00333e-06,-1.7799e-05,-6.78233e-06,3.72298e-05,-7.9209e-05,1.86242e-05,7.41948e-06,2
-3.67995e-05,-3.65571e-06,-1.73333e-05,-9.82199e-06,-1.55927e-06,-7.45768e-05,4.24692e-05,1.03694e-05,2
-5.29423e-05,-1.68149e-05,-1.85241e-05,-1.03208e-05,-2.46597e-05,-6.78205e-05,3.96012e-05,9.39804e-06,2
-6.70411e-05,-2.76348e-05,-1.75661e-05,-8.45141e-06,-2.87761e-05,-2.54517e-05,1.49823e-05,4.89875e-06,2
-7.36761e-05,-2.77692e-05,-1.58716e-05,-7.32034e-06,-1.69835e-05,3.74843e-05,-1.35189e-06,7.81133e-07,2
-7.30075e-05,-2.11246e-05,-1.2161e-05,-4.16901e-06,1.74004e-06,8.40584e-05,9.9237e-06,-2.86938e-06,2
-7.30461e-05,-1.66475e-05,-4.79504e-06,-9.51389e-07,4.21844e-06,0.000107687,4.11208e-05,-7.30696e-06,2
-7.95862e-05,-1.67197e-05,2.90836e-06,-3.87836e-06,-1.001e-05,0.000120964,7.91251e-05,-1.19161e-05,2
-8.87088e-05,-1.52634e-05,5.33399e-06,-1.26636e-05,-3.54766e-06,0.000125612,0.00010737,-1.4768e-05,2
-8.80909e-05,-8.81513e-06,4.13722e-07,-2.01963e-05,4.61878e-05,0.000110861,0.000112224,-1.54396e-05,2
-6.87151e-05,-1.1224e-06,-9.47286e-06,-2.22875e-05,0.000103072,7.92884e-05,9.81408e-05,-1.42995e-05,2
-4.44608e-05,3.03299e-06,-2.00191e-05,-2.44012e-05,0.000108999,4.7971e-05,7.81251e-05,-1.16559e-05,2
-3.64875e-05,2.16202e-06,-2.74414e-05,-3.07381e-05,5.90294e-05,2.81939e-05,6.28786e-05,-7.95526e-06,2
-4.74862e-05,4.65521e-07,-3.14277e-05,-3.73476e-05,-7.1899e-06,1.89683e-05,5.77475e-05,-3.69598e-06,2
-7.06297e-05,-1.555e-06,-3.62245e-05,-4.0869e-05,-4.72708e-05,1.65566e-05,5.87273e-05,6.19007e-07,2
-9.46694e-05,-5.93039e-06,-4.48957e-05,-4.46193e-05,-4.30061e-05,1.03621e-05,5.37849e-05,5.34685e-06,2
-9.88679e-05,-8.84414e-06,-5.38383e-05,-4.77959e-05,-8.44023e-06,-9.06109e-06,4.10235e-05,7.11175e-06,2
-6.4506e-05,-3.12594e-08,-5.7639e-05,-4.69615e-05,1.75087e-05,-3.71625e-05,2.91216e-05,5.12161e-06,2
4.56815e-07,1.93602e-05,-5.2511e-05,-4.0187e-05,2.23217e-05,-5.764e-05,2.38441e-05,4.23897e-06,2
5.97362e-05,3.5368e-05,-3.79556e-05,-2.71661e-05,3.03801e-05,-5.84441e-05,2.68825e-05,6.52947e-06,2
8.7032e-05,3.88111e-05,-2.29974e-05,-1.36985e-05,4.04006e-05,-3.85531e-05,3.2728e-05,1.00071e-05,2
8.15318e-05,3.05334e-05,-1.72872e-05,-1.45059e-06,2.17105e-05,-1.4801e-05,3.14123e-05,1.44673e-05,2
5.24647e-05,1.94908e-05,-1.81827e-05,1.55227e-05,-1.87525e-05,-8.3609e-06,2.34595e-05,1.86259e-05,2
2.11953e-05,1.51608e-05,-1.73256e-05,3.83509e-05,-3.8366e-05,-2.76548e-05,1.72443e-05,1.90075e-05,2
4.38275e-06,1.98201e-05,-1.11566e-05,5.25549e-05,-2.4844e-05,-6.40927e-05,1.74563e-05,1.55142e-05,2
-3.18736e-07,2.6642e-05,-3.07695e-06,3.88872e-05,-5.21523e-06,-9.65892e-05,2.4237e-05,1.10809e-05,2
-2.5854e-06,2.64515e-05,1.52998e-06,1.18957e-05,-3.07202e-06,-9.69e-05,3.01497e-05,9.38387e-06,2
-8.50372e-06,1.93026e-05,3.97315e-06,-2.87373e-06,-1.00975e-05,-6.22397e-05,2.95371e-05,1.04986e-05,2
-1.46219e-05,1.28198e-05,6.11879e-06,-2.32209e-06,-9.1843e-06,-2.12864e-05,2.51033e-05,1.22772e-05,2
-1.77909e-05,9.42985e-06,6.03979e-06,3.36031e-06,1.02813e-06,8.56591e-07,2.2738e-05,1.46833e-05,2
-2.32347e-05,6.8464e-06,3.80721e-06,5.4182e-06,1.59569e-06,5.06286e-06,2.368e-05,1.5703e-05,2
-3.76607e-05,1.61819e-06,-5.43371e-07,5.61829e-06,-1.59806e-05,1.15008e-05,3.38004e-05,1.54371e-05,2
-5.25041e-05,-8.20739e-06,-5.33425e-06,4.90521e-06,-2.12267e-05,2.35589e-05,5.53505e-05,1.46396e-05,2
-6.45425e-05,-1.83568e-05,-1.03503e-05,-2.05041e-06,1.93887e-05,3.44306e-05,6.85464e-05,1.29803e-05,2
-8.51083e-05,-2.0985e-05,-1.34063e-05,-1.35159e-05,9.99521e-05,4.33701e-05,6.56366e-05,1.06368e-05,2
-0.000112752,-1.58954e-05,-9.53471e-06,-1.83157e-05,0.000165432,5.38152e-05,5.54755e-05,1.01389e-05,2
-0.000134304,-9.70328e-06,-1.0494e-06,-1.72348e-05,0.000166751,6.64586e-05,4.46797e-05,1.0635e-05,2
-0.000143936,-7.86817e-06,6.2264e-06,-1.74543e-05,0.000115386,8.14743e-05,3.67663e-05,9.75145e-06,2
-0.000144564,-7.94727e-06,1.09132e-05,-2.17057e-05,5.53757e-05,9.78831e-05,2.92602e-05,7.68482e-06,2
-0.000124253,-5.04274e-06,1.4085e-05,-2.78577e-05,1.8181e-05,0.000116471,1.48249e-05,5.05782e-06,2
-6.55929e-05,1.86636e-06,1.41387e-05,-3.46684e-05,7.35305e-06,0.000140325,-1.67718e-06,3.93922e-06,2
1.27301e-05,7.66222e-06,9.73353e-06,-3.62201e-05,1.35842e-05,0.00016766,-1.61283e-06,3.6784e-06,2
6.16838e-05,7.51415e-06,2.70965e-06,-2.14888e-05,2.3285e-05,0.000197613,2.09914e-05,3.24915e-06,2
6.44817e-05,7.29051e-06,-4.49109e-06,6.37334e-06,2.50886e-05,0.000227863,4.8465e-05,2.21969e-06,2
5.31244e-05,1.17022e-05,-1.05465e-05,2.46538e-05,1.28217e-05,0.000248123,5.7371e-05,2.04063e-06,2
5.22617e-05,1.43705e-05,-1.49973e-05,2.5039e-05,-1.10158e-05,0.000236637,3.98263e-05,2.61124e-06,2
5.12305e-05,7.4166e-06,-1.83721e-05,2.67946e-05,-3.59578e-05,0.000177407,-1.92598e-06,3.49125e-06,2
3.6633e-05,-2.07431e-06,-2.26445e-05,3.51752e-05,-5.44174e-05,7.07988e-05,-6.44069e-05,4.07001e-06,2
1.30757e-05,1.94437e-06,-2.68846e-05,3.93431e-05,-7.04561e-05,-5.8224e-05,-0.000130292,3.95869e-06,2
-7.49277e-06,1.81552e-05,-2.5346e-05,3.61685e-05,-9.4416e-05,-0.000164974,-0.000175412,3.71159e-06,2
-1.84125e-05,2.92698e-05,-1.72543e-05,1.6274e-05,-0.000131211,-0.000230435,-0.000188806,3.04512e-06,2
-2.09009e-05,3.40757e-05,-7.47462e-06,-1.91866e-05,-0.000160432,-0.000273437,-0.000169835,7.77156e-07,2
-1.66235e-05,4.08592e-05,-1.89407e-07,-4.51649e-05,-0.000117939,-0.000336456,-0.000118276,-6.83653e-07,2
-9.73246e-06,4.96505e-05,2.73209e-06,-5.23742e-05,2.05071e-05,-0.000409869,-5.6603e-05,-1.27399e-07,2
-5.78698e-06,5.27706e-05,4.12925e-06,-4.3285e-05,0.000158289,-0.000399824,-1.6846e-05,7.02451e-07,2
-1.0055e-05,4.56683e-05,7.64213e-06,-1.50561e-05,0.000204764,-0.000294912,-1.66538e-07,8.96312e-07,2
-1.95383e-05,3.43225e-05,1.44501e-05,2.60887e-05,0.000180546,-0.000183282,3.86224e-06,-8.43888e-07,2
-2.95818e-05,2.46691e-05,2.08464e-05,4.32754e-05,0.000134591,-0.000111041,1.0249e-05,-3.69847e-06,2
-3.93575e-05,1.513e-05,2.07203e-05,2.82319e-05,8.22419e-05,-6.79719e-05,2.32089e-05,-6.35865e-06,2
-4.72175e-05,3.96697e-06,1.58332e-05,1.91499e-05,2.45402e-05,-3.63592e-05,3.92776e-05,-8.82815e-06,2
-5.30804e-05,-1.25211e-06,1.2437e-05,2.54822e-05,-2.4439e-05,-1.94589e-05,4.846e-05,-9.92326e-06,2
-5.47346e-05,2.03994e-06,1.26156e-05,2.79743e-05,-4.43227e-05,-2.1836e-05,4.74335e-05,-7.8281e-06,2
-5.64918e-05,5.91278e-06,1.41332e-05,2.77445e-05,-2.81032e-05,-2.98679e-05,4.83749e-05,-4.06874e-06,2
-6.7771e-05,4.35084e-06,1.45712e-05,2.98008e-05,1.53021e-05,-3.16553e-05,5.81911e-05,-1.16281e-06,2
-9.04417e-05,-6.45684e-07,1.01094e-05,2.06234e-05,6.03494e-05,-2.35475e-05,7.32997e-05,1.20178e-07,2
-0.000115575,-3.54146e-06,2.42682e-06,5.16791e-07,7.79557e-05,-3.28815e-06,8.09964e-05,-4.71515e-07,2
-0.000139241,-4.0063e-06,-2.2174e-06,-1.94239e-05,7.27512e-05,2.46535e-05,7.26354e-05,-2.75454e-06,2
-0.00016275,-3.81513e-06,-2.65064e-06,-3.03821e-05,8.13673e-05,5.39576e-05,5.07458e-05,-3.90682e-06,2
-0.000173817,3.81863e-07,-9.47284e-07,-2.34685e-05,0.000109248,8.17922e-05,2.50688e-05,-2.92014e-06,2
-0.000159371,1.29367e-05,2.41527e-06,1.65751e-06,0.000104858,0.000104479,7.48936e-07,-1.40705e-06,2
-0.000126404,2.93005e-05,7.95549e-06,2.23432e-05,4.36011e-05,0.000117825,-1.49735e-05,-1.27034e-06,2
-7.90544e-05,3.86833e-05,1.33376e-05,2.13594e-05,-1.32001e-05,0.000120709,-1.96854e-05,-1.62522e-06,2
-5.41938e-06,3.80158e-05,1.73115e-05,7.21166e-06,-7.49979e-06,0.000109428,-1.73146e-05,-3.78141e-07,2
8.19788e-05,3.39758e-05,1.9169e-05,-9.80794e-06,2.59254e-05,8.90153e-05,-1.45199e-05,1.36605e-06,2
0.000147358,3.09301e-05,1.48992e-05,-3.06652e-05,2.38548e-05,7.20148e-05,-1.46509e-05,1.2344e-06,2
0.000170586,2.87858e-05,9.75056e-07,-5.44261e-05,-2.07347e-05,5.34982e-05,-1.91553e-05,7.27461e-07,2
0.000148447,2.90328e-05,-1.54554e-05,-6.97272e-05,-7.79762e-05,2.13159e-05,-3.08534e-05,2.0501e-07,2
0.000103835,3.44412e-05,-2.39909e-05,-6.88028e-05,-0.000128679,-2.38334e-05,-5.74566e-05,-2.08328e-06,2
6.94579e-05,4.33271e-05,-2.29864e-05,-5.14085e-05,-0.000161943,-7.72001e-05,-8.14275e-05,-3.15862e-06,2
4.5286e-05,4.37184e-05,-1.92207e-05,-2.6946e-05,-0.000143893,-0.00013676,-6.88443e-05,2.27068e-07,2
1.94778e-05,2.94329e-05,-2.29743e-05,-2.63751e-05,-5.38986e-05,-0.000166111,-1.92046e-05,3.83551e-06,2
-5.48931e-06,7.10141e-06,-3.56056e-05,-4.78802e-05,6.18952e-05,-0.000127132,4.29821e-05,4.95483e-06,2
-1.70875e-05,-1.15783e-05,-4.54298e-05,-4.36522e-05,0.000140831,-5.25273e-05,9.12196e-05,6.5292e-06,2
-1.44885e-05,-2.35599e-05,-4.45508e-05,-7.7329e-06,0.000166902,-2.94037e-06,0.00011041,7.91554e-06,2
-1.44015e-05,-3.4077e-05,-3.64812e-05,2.56307e-05,0.000142411,2.96706e-05,0.000100187,7.6057e-06,2
-2.09801e-05,-3.95552e-05,-2.56216e-05,3.81468e-05,7.46944e-05,9.35147e-05,8.21361e-05,5.39378e-06,2
-2.79066e-05,-3.58383e-05,-1.42425e-05,3.46238e-05,2.83033e-06,0.000159797,6.8666e-05,3.61462e-06,2
-3.81057e-05,-2.19993e-05,-6.08733e-06,2.40278e-05,-2.44839e-05,0.000168681,5.53231e-05,4.92559e-06,2
-5.62483e-05,-1.16586e-06,-7.06366e-07,1.46568e-05,1.23806e-05,0.000125061,4.69614e-05,6.53398e-06,2
-7.22005e-05,1.77407e-05,5.42689e-06,8.41728e-06,7.27534e-05,8.08496e-05,3.86946e-05,6.02492e-06,2
-7.63858e-05,2.17835e-05,1.23727e-05,2.22242e-06,9.3084e-05,6.38831e-05,2.33781e-05,5.74799e-06,2
-7.29564e-05,1.08145e-05,1.47707e-05,-5.31915e-06,5.64331e-05,6.7447e-05,1.07057e-05,5.30486e-06,2
-6.84396e-05,3.55591e-06,7.55719e-06,-1.23198e-05,-7.17647e-06,6.11663e-05,6.6283e-06,4.73314e-06,2
-7.70791e-05,1.16112e-05,-4.58257e-06,-1.65814e-05,-6.05567e-05,2.06609e-05,4.27988e-06,4.80289e-06,2
-0.000106159,2.90079e-05,-1.19151e-05,-1.84273e-05,-9.08953e-05,-4.09434e-05,4.46013e-06,4.50278e-06,2
-0.000137573,4.42264e-05,-9.55943e-06,-1.80474e-05,-0.000100863,-0.00010182,1.93323e-05,2.79325e-06,2
-0.000145032,5.02924e-05,-1.16542e-06,-1.58489e-05,-8.80473e-05,-0.000141531,5.29288e-05,7.91491e-07,2
-0.000124992,4.29306e-05,7.5987e-06,-1.19854e-05,-4.57373e-05,-0.000133405,9.17073e-05,-1.3437e-06,2
-9.80724e-05,2.51607e-05,1.18697e-05,-8.26262e-06,1.53024e-05,-7.28518e-05,0.000111655,-4.06961e-06,2
-8.60966e-05,8.86537e-06,9.44172e-06,-5.967e-06,6.8104e-05,-5.29027e-06,0.000102745,-4.67351e-06,2
-9.65604e-05,3.87692e-06,3.86585e-06,-8.33363e-06,8.70975e-05,3.66318e-05,7.58949e-05,-3.01151e-06,2
-0.000117657,1.03561e-05,-1.73241e-07,-1.65708e-05,7.44146e-05,4.95708e-05,4.23801e-05,5.34083e-07,2
-0.00011613,1.92279e-05,-5.44096e-06,-2.31212e-05,5.87176e-05,3.23099e-05,4.37789e-06,3.50362e-06,2
-7.31258e-05,2.13127e-05,-1.45948e-05,-1.96584e-05,6.57852e-05,4.02634e-06,-3.18238e-05,4.59244e-06,2
-2.11679e-05,1.50339e-05,-2.62697e-05,-8.99626e-06,9.9398e-05,2.58368e-06,-6.46727e-05,3.65125e-06,2
-6.70681e-06,2.65328e-06,-3.46357e-05,-1.5866e-07,0.000127139,3.04736e-05,-9.75378e-05,-1.32879e-06,2
-4.32314e-05,-1.1778e-05,-3.54169e-05,-1.03469e-06,0.000115996,7.83802e-05,-0.000125711,-6.26532e-06,2
-8.44195e-05,-2.07657e-05,-3.07653e-05,-5.65712e-06,6.20681e-05,0.000130604,-0.000129189,-5.97844e-06,2
-7.70961e-05,-1.73054e-05,-2.10981e-05,3.76362e-08,-1.79842e-05,0.000140844,-9.49115e-05,-4.85125e-06,2
-1.61853e-05,2.91027e-06,-1.00614e-05,1.45656e-05,-0.000120139,0.000102177,-4.27983e-05,-7.39437e-06,2
6.25335e-05,3.65949e-05,-6.94109e-07,3.18644e-05,-0.000251133,3.78721e-05,-3.19196e-06,-9.08467e-06,2
0.000107928,6.34437e-05,4.3885e-06,4.82386e-05,-0.000360288,-3.93367e-05,9.31572e-06,-7.49884e-06,2
0.000110424,6.99585e-05,3.05485e-06,4.88311e-05,-0.000324176,-0.000106567,4.61639e-06,-4.21489e-06,2
9.31517e-05,6.18616e-05,-2.53334e-06,2.76794e-05,-0.000114344,-0.00015164,-5.61493e-06,-1.04199e-06,2
7.29936e-05,5.0639e-05,-8.26767e-06,5.71429e-07,7.5187e-05,-0.00018164,-2.08277e-05,1.69114e-06,2
5.86761e-05,4.44668e-05,-1.23026e-05,-2.0271e-05,9.33315e-05,-0.000199332,-3.65894e-05,3.23097e-06,2
5.32924e-05,4.63478e-05,-1.39383e-05,-3.18914e-05,1.69316e-05,-0.000217422,-4.89454e-05,3.80621e-06,2
5.08548e-05,5.38026e-05,-1.10964e-05,-3.49218e-05,-1.28887e-05,-0.00023503,-5.87247e-05,5.41547e-06,2
4.30958e-05,5.41617e-05,-4.81378e-06,-3.25974e-05,4.57333e-05,-0.000229971,-5.92292e-05,6.64547e-06,2
2.9559e-05,4.42133e-05,1.68731e-06,-2.55388e-05,0.000138453,-0.000198267,-4.84367e-05,7.36152e-06,2
1.30985e-05,3.2238e-05,5.37281e-06,-1.00532e-05,0.000210079,-0.000156027,-3.28493e-05,7.36379e-06,2
-7.33152e-06,2.381e-05,5.32423e-06,1.03948e-05,0.000235586,-0.000109,-1.69399e-05,5.82924e-06,2
-2.95199e-05,1.84673e-05,2.99084e-06,1.99363e-05,0.000216876,-5.79456e-05,-2.88089e-07,2.82921e-06,2
-4.22629e-05,1.59806e-05,4.44284e-06,1.16273e-05,0.000172307,-1.51368e-05,2.09417e-05,-8.19932e-07,2
-3.7533e-05,1.22438e-05,1.11242e-05,-6.13607e-07,0.000119289,5.5198e-06,4.70912e-05,-4.84331e-06,2
-2.30984e-05,-2.07481e-06,1.5146e-05,-4.93621e-06,6.89511e-05,7.72886e-06,6.84048e-05,-7.29076e-06,2
-1.97638e-05,-2.85599e-05,1.14884e-05,-1.05197e-05,4.10425e-05,6.69925e-06,7.59538e-05,-7.02511e-06,2
-4.32402e-05,-5.53813e-05,3.45854e-06,-2.6608e-05,4.47005e-05,1.13234e-05,7.46368e-05,-5.90489e-06,2
-9.55247e-05,-7.00588e-05,-2.12203e-06,-4.67257e-05,5.93616e-05,2.71004e-05,7.16966e-05,-4.93426e-06,2
-0.000165234,-7.47727e-05,-4.37304e-06,-5.98106e-05,4.65344e-05,5.45727e-05,7.17517e-05,-5.01943e-06,2
-0.000226598,-7.59764e-05,-5.30323e-06,-5.88809e-05,-7.9572e-06,8.70193e-05,7.45445e-05,-6.33924e-06,2
-0.000257967,-7.7885e-05,-6.9413e-06,-4.79399e-05,-6.86566e-05,0.000125549,7.51901e-05,-6.36875e-06,2
-0.00025924,-7.75886e-05,-1.27808e-05,-3.61223e-05,-0.00010495,0.000182459,7.37114e-05,-3.55495e-06,2
-0.000239878,-5.74842e-05,-2.27366e-05,-2.97266e-05,-0.000131247,0.000260513,7.22912e-05,9.31871e-07,2
-0.000204182,-1.74759e-05,-2.80373e-05,-3.10999e-05,-0.000154928,0.000324528,6.86294e-05,6.451e-06,2
-0.000133298,1.69481e-05,-1.83673e-05,-1.82233e-05,-0.000165554,0.000353554,6.27855e-05,8.63973e-06,2
-5.81232e-06,2.82066e-05,-6.68767e-07,1.632e-05,-0.000163285,0.000374585,5.69932e-05,5.72908e-06,2
0.000135054,2.57168e-05,9.80564e-06,3.50894e-05,-0.000150258,0.000401918,4.91049e-05,3.6468e-06,2
0.000204739,3.47076e-05,9.0174e-06,2.61462e-05,-0.000117867,0.000401599,3.42064e-05,3.39862e-06,2
0.000187188,5.21045e-05,4.58949e-07,1.52082e-05,-4.12272e-05,0.000307588,1.82863e-05,2.12959e-06,2
0.000139795,6.18523e-05,-1.27424e-05,1.87978e-05,7.93806e-05,0.000108952,5.52968e-06,6.30646e-07,2
0.000108762,6.81283e-05,-2.28531e-05,2.69267e-05,0.000180746,-0.000152226,-5.34054e-06,-1.32165e-06,2
9.44719e-05,8.27985e-05,-2.49529e-05,3.06262e-05,0.000198913,-0.000387222,-1.04315e-05,-4.69979e-06,2
7.87551e-05,0.000100668,-2.21493e-05,2.83681e-05,0.000155505,-0.000526898,-1.50463e-05,-7.26213e-06,2
5.33712e-05,0.000106398,-1.83536e-05,1.79906e-05,0.000105994,-0.000583783,-2.76917e-05,-7.73407e-06,2
2.79489e-05,9.60332e-05,-1.56628e-05,3.66891e-06,8.03046e-05,-0.000602283,-3.92784e-05,-1.0303e-05,2
1.15219e-05,7.77026e-05,-1.42579e-05,-6.7792e-06,7.05852e-05,-0.00059458,-3.82629e-05,-1.53817e-05,2
2.71183e-06,6.23809e-05,-1.34123e-05,-9.68707e-06,6.18665e-05,-0.000512667,-3.33603e-05,-1.98572e-05,2
-3.43683e-06,5.19738e-05,-1.05655e-05,-1.50439e-05,4.65405e-05,-0.000347662,-3.03159e-05,-2.19479e-05,2
-1.20835e-05,4.1636e-05,-6.93734e-06,-3.15812e-05,2.2318e-05,-0.000177392,-2.51049e-05,-2.29594e-05,2
-2.76768e-05,2.70616e-05,-5.48852e-06,-5.51505e-05,-2.81252e-06,-8.35056e-05,-1.57209e-05,-2.38625e-05,2
-5.44656e-05,1.01133e-05,-6.79886e-06,-7.03115e-05,-2.35905e-05,-5.6906e-05,-3.64656e-06,-2.29374e-05,2
-8.90985e-05,-5.16432e-06,-8.34773e-06,-5.84634e-05,-4.35174e-05,-4.59143e-05,9.43796e-06,-2.03884e-05,2
-0.000119797,-1.69466e-05,-7.61335e-06,-8.62961e-06,-6.99497e-05,-2.25057e-05,2.39899e-05,-1.81465e-05,2
-0.000134098,-2.76139e-05,-3.82309e-06,5.81451e-05,-0.000103548,1.33557e-05,3.80639e-05,-1.69158e-05,2
-0.000137499,-3.74649e-05,1.78356e-06,9.40771e-05,-0.000142093,5.47293e-05,4.74894e-05,-1.43442e-05,2
-0.000139154,-4.39213e-05,6.41065e-06,7.70071e-05,-0.000140495,9.12992e-05,5.32278e-05,-9.75868e-06,2
-0.000137229,-4.69281e-05,7.33522e-06,3.47281e-05,-4.96013e-05,0.000118738,5.08757e-05,-6.97493e-06,2
-0.000124579,-4.55526e-05,6.02229e-06,5.07466e-06,7.92884e-05,0.000135588,3.31707e-05,-6.61814e-06,2
-9.90423e-05,-4.15635e-05,5.76292e-06,-7.1643e-07,0.000141734,0.000143686,7.79307e-06,-2.18182e-06,2
-5.08958e-05,-4.10605e-05,3.76899e-06,4.38004e-06,0.000108928,0.000144658,-1.27474e-05,4.52686e-06,2
1.61025e-05,-4.2931e-05,-4.10775e-06,6.30897e-06,6.11257e-05,0.000128055,-1.29926e-05,6.89597e-06,2
6.40746e-05,-3.34858e-05,-1.29629e-05,4.57252e-06,7.76847e-05,9.47259e-05,1.77845e-05,6.93149e-06,2
7.16567e-05,-1.38485e-05,-2.01384e-05,3.42488e-06,0.000120577,7.44357e-05,6.88559e-05,9.19374e-06,2
5.14704e-05,-3.34274e-06,-2.99158e-05,6.06699e-07,0.000107647,9.55729e-05,0.000107604,1.21419e-05,2
3.23264e-05,-4.73713e-06,-4.31902e-05,-7.90316e-06,2.22206e-05,0.000120881,0.000122328,1.43911e-05,2
2.4745e-05,-9.33574e-06,-5.44324e-05,-1.35768e-05,-5.49719e-05,0.000108602,0.000133042,1.52517e-05,2
1.21784e-05,-1.02332e-05,-5.43192e-05,-1.00461e-05,-5.92199e-05,6.77343e-05,0.000138144,1.58022e-05,2
-1.33978e-05,-6.61329e-06,-4.41005e-05,-6.4947e-06,-2.36189e-06,1.48207e-05,0.000122775,1.71e-05,2
-2.89871e-05,4.27016e-06,-3.10429e-05,-1.29347e-05,6.59816e-05,-3.9891e-05,9.41953e-05,1.68383e-05,2
-1.631e-05,2.71264e-05,-1.58232e-05,-2.24005e-05,9.74765e-05,-7.67923e-05,6.55239e-05,1.55327e-05,2
9.56978e-06,5.6309e-05,5.71624e-07,-2.2953e-05,9.38804e-05,-7.37212e-05,3.93896e-05,1.4282e-05,2
2.2643e-05,7.45351e-05,1.00062e-05,-1.96544e-05,7.5003e-05,-2.659e-05,2.39665e-05,1.4765e-05,2
1.30203e-05,7.08093e-05,8.13698e-06,-2.07895e-05,4.86343e-05,3.20644e-05,1.64332e-05,1.61045e-05,2
-8.99487e-06,5.46484e-05,2.68495e-07,-2.36514e-05,2.2437e-05,5.71304e-05,-1.27547e-06,1.68723e-05,2
-2.79312e-05,4.01244e-05,-4.92427e-06,-2.30929e-05,2.15522e-05,3.02956e-05,-3.46818e-05,1.50021e-05,2
-3.43029e-05,3.62381e-05,-4.56181e-06,-1.51892e-05,4.50911e-05,-2.81946e-05,-6.92241e-05,1.19972e-05,2
-2.93906e-05,4.23077e-05,-2.09867e-07,-1.98973e-06,6.39309e-05,-8.13896e-05,-8.68979e-05,1.04198e-05,2
-2.2936e-05,4.85637e-05,3.25061e-06,5.69853e-06,5.76876e-05,-0.00010929,-8.16574e-05,9.66694e-06,2
-2.55395e-05,4.30755e-05,-1.11334e-06,-1.89455e-07,3.28753e-05,-0.000118659,-5.89239e-05,8.85912e-06,2
-3.60164e-05,2.6575e-05,-1.183e-05,-1.40528e-05,5.63411e-06,-0.000108561,-3.29432e-05,7.63504e-06,2
-4.4576e-05,1.09263e-05,-1.80195e-05,-2.49952e-05,-1.46792e-05,-7.08479e-05,-2.2031e-05,6.02423e-06,2
-4.69675e-05,3.80513e-06,-1.42804e-05,-3.03376e-05,-3.06053e-05,-2.6121e-05,-3.47038e-05,2.85911e-06,2
-4.80384e-05,1.61833e-06,-8.58879e-06,-3.5576e-05,-4.51727e-05,3.2095e-07,-5.50858e-05,2.07404e-08,2
-5.16564e-05,-4.19544e-07,-7.59535e-06,-4.1687e-05,-5.5154e-05,5.38793e-06,-6.94609e-05,-9.60775e-07,2
-5.57326e-05,-2.40261e-06,-7.85085e-06,-4.02321e-05,-6.36279e-05,4.65244e-06,-7.2066e-05,-7.60118e-07,2
-5.39559e-05,-2.32496e-06,-5.98009e-06,-1.62352e-05,-7.2384e-05,9.64234e-06,-6.24333e-05,-1.05099e-06,2
-4.49517e-05,4.03883e-07,-3.16642e-06,2.59919e-05,-7.28925e-05,2.30761e-05,-4.23679e-05,-3.13395e-07,2
-3.49935e-05,6.44192e-06,-3.6105e-07,3.10376e-05,-5.93078e-05,4.26212e-05,-1.83075e-05,1.95607e-06,2
-3.25837e-05,1.20083e-05,3.1098e-07,-4.84932e-06,-4.15682e-05,5.35019e-05,1.08834e-06,4.57017e-06,2
-3.92086e-05,1.07392e-05,-3.72121e-06,-2.90853e-05,-2.33151e-05,4.45192e-05,1.09057e-05,7.426e-06,2
-4.32437e-05,7.43859e-06,-5.87079e-06,-3.34681e-05,8.19805e-06,3.0611e-05,1.30285e-05,8.4427e-06,2
-3.95061e-05,8.08972e-06,-1.53198e-06,-2.62653e-05,6.07197e-05,2.99261e-05,1.6826e-05,7.09978e-06,2
-3.5923e-05,9.44373e-06,3.32817e-07,-9.2522e-06,0.000110429,3.86116e-05,2.05667e-05,2.48775e-06,2
-4.01773e-05,5.22503e-06,-6.48481e-06,2.06944e-05,0.00011732,4.60814e-05,1.79125e-05,-1.83332e-06,2
-5.39231e-05,-3.41938e-06,-1.78294e-05,3.78146e-05,7.98737e-05,4.75897e-05,1.45035e-05,-1.84838e-06,2
-7.80689e-05,-1.01619e-05,-2.36932e-05,2.42256e-05,3.49804e-05,4.40457e-05,2.01276e-05,-1.27356e-07,2
-0.00010772,-1.33873e-05,-1.91837e-05,-1.93743e-07,7.42441e-06,3.96323e-05,1.43671e-05,-6.59956e-08,2
-0.000132341,-1.65089e-05,-6.30595e-06,-4.92755e-06,-3.14821e-06,3.86335e-05,-1.86774e-05,-1.63644e-06,2
-0.000146526,-2.09178e-05,7.8417e-06,1.30248e-05,-9.33595e-06,4.23072e-05,-5.52122e-05,-1.25321e-06,2
-0.000147698,-2.31721e-05,1.65799e-05,3.11846e-05,-1.85346e-05,4.54639e-05,-5.90115e-05,1.86672e-07,2
-0.000134617,-2.08598e-05,1.66797e-05,3.86633e-05,-3.49797e-05,4.57047e-05,-2.23805e-05,-3.36002e-07,2
-0.000113499,-1.80839e-05,9.32705e-06,3.47457e-05,-5.65672e-05,5.33714e-05,3.69984e-05,-2.24425e-06,2
-9.14073e-05,-1.82458e-05,9.28571e-07,2.56606e-05,-7.679e-05,7.50295e-05,9.59953e-05,-2.71891e-06,2
-5.68991e-05,-1.91267e-05,-2.95704e-06,1.80306e-05,-8.60391e-05,9.87834e-05,0.000130544,-1.57098e-06,2
8.35063e-06,-1.61832e-05,-3.98086e-06,2.25833e-05,-6.95602e-05,0.000109016,0.000134047,-1.71975e-06,2
8.55131e-05,-1.133e-05,-8.11925e-06,2.87745e-05,-2.11107e-05,9.7671e-05,0.000117765,-3.48393e-06,2
0.000126704,-8.21009e-06,-1.65343e-05,1.5445e-05,3.57645e-05,6.79689e-05,9.86757e-05,-5.35312e-06,2
0.000115678,-6.92798e-06,-2.6141e-05,-1.76562e-05,4.8547e-05,4.13252e-05,8.54001e-05,-6.0319e-06,2
7.11971e-05,-8.64565e-06,-3.19913e-05,-4.90439e-05,-1.23369e-05,4.52037e-05,7.32263e-05,-3.8586e-06,2
2.31815e-05,-9.74186e-06,-2.96082e-05,-6.48289e-05,-0.000109162,8.23687e-05,5.34741e-05,-1.90405e-06,2
-1.1574e-06,-3.76212e-06,-1.90065e-05,-6.16418e-05,-0.000176725,0.0001233,2.99197e-05,-3.45314e-06,2
-2.75391e-06,1.2708e-06,-7.97402e-06,-4.01853e-05,-0.000174961,0.00014128,1.06705e-05,-5.42308e-06,2
-1.00487e-05,5.07223e-07,-1.25515e-06,-2.54071e-06,-0.000116322,0.000130543,-2.93335e-06,-5.33744e-06,2
-4.04056e-05,8.14755e-06,2.23539e-06,4.16586e-05,-2.09594e-05,9.62571e-05,-1.28599e-05,-4.95748e-06,2
-6.2261e-05,2.81575e-05,4.45132e-06,6.92388e-05,0.000114383,4.64786e-05,-1.42022e-05,-4.70279e-06,2
-5.24527e-05,4.90235e-05,5.71189e-06,6.97916e-05,0.000213678,-2.53541e-05,-4.75183e-06,-2.77022e-06,2
-3.97801e-05,5.7051e-05,3.84894e-06,5.2312e-05,0.000196099,-0.000111576,9.02948e-06,-1.56194e-06,2
-5.24908e-05,5.34871e-05,1.04863e-06,2.87892e-05,0.000126119,-0.000180134,1.91193e-05,-2.02713e-06,2
-8.51325e-05,4.97196e-05,1.92375e-06,1.06265e-05,9.85145e-05,-0.000227073,1.6718e-05,-1.31753e-06,2
-0.000115646,4.45929e-05,4.7949e-06,-3.23301e-06,0.000109978,-0.000234338,7.05629e-06,2.5427e-07,2
-0.00013022,3.47202e-05,8.01836e-06,-1.37968e-05,0.000125221,-0.000180255,2.81221e-06,2.73124e-07,2
-0.00012467,2.21454e-05,1.12815e-05,-2.06911e-05,0.000128496,-7.6883e-05,4.82665e-06,4.66588e-08,2
-0.000103494,1.39167e-05,1.12787e-05,-2.68144e-05,0.000116756,4.64293e-05,1.32425e-05,2.16869e-07,2
-7.71303e-05,1.05989e-05,6.58904e-06,-3.25124e-05,9.63216e-05,0.000145442,2.41524e-05,-2.15581e-07,2
-4.98164e-05,6.11494e-06,-9.26783e-07,-3.52587e-05,8.55008e-05,0.000223617,2.89091e-05,-3.4854e-09,2
-7.78726e-06,1.14404e-06,-9.2251e-06,-2.86243e-05,9.05297e-05,0.000309954,3.03138e-05,1.87136e-06,2
5.88809e-05,1.49268e-06,-1.5141e-05,-1.7272e-05,0.0001028,0.000370458,3.03067e-05,3.38321e-06,2
0.000121963,9.75147e-06,-1.81673e-05,-9.81678e-06,0.000121039,0.000320552,1.9505e-05,2.27542e-06,2
0.000140685,2.26078e-05,-2.07801e-05,-1.37628e-05,0.000138525,0.000136413,-5.69057e-06,3.41142e-07,2
0.000119976,4.02857e-05,-2.28226e-05,-2.40097e-05,0.000130055,-0.00012241,-3.10807e-05,-1.15459e-06,2
9.10487e-05,5.96615e-05,-2.14784e-05,-3.1324e-05,7.17976e-05,-0.000372835,-4.23008e-05,-2.73189e-06,2
6.19323e-05,7.14098e-05,-1.5708e-05,-3.02638e-05,-1.63117e-05,-0.000532148,-3.89416e-05,-3.75189e-06,2
2.79377e-05,7.34214e-05,-9.18976e-06,-2.65174e-05,-8.89738e-05,-0.000554676,-3.54598e-05,-2.04916e-06,2
-3.52693e-06,7.56537e-05,-3.11911e-06,-2.16102e-05,-0.00012219,-0.000482021,-4.51466e-05,1.42377e-06,2
-2.37558e-05,7.99901e-05,2.03671e-06,-1.20073e-05,-0.000126992,-0.00040471,-6.50617e-05,3.28179e-06,2
-3.542e-05,7.45717e-05,2.21664e-06,-1.61029e-06,-0.000129789,-0.000369066,-7.79015e-05,3.09431e-06,2
-3.73777e-05,5.63268e-05,-3.08507e-06,4.7686e-06,-0.000137481,-0.000350105,-7.68311e-05,2.29995e-06,2
-3.02672e-05,3.7366e-05,-6.25428e-06,6.38884e-06,-0.000131315,-0.00028441,-6.50658e-05,2.41043e-06,2
-2.41768e-05,2.37187e-05,-2.57263e-06,3.17895e-06,-0.000111746,-0.000170539,-3.23145e-05,2.50097e-06,2
-2.2527e-05,1.22883e-05,2.89641e-06,-5.01165e-06,-8.59067e-05,-8.12198e-05,2.40182e-05,1.0448e-06,2
-2.17726e-05,2.34139e-06,5.07427e-06,-1.47845e-05,-3.96012e-05,-4.32347e-05,9.29717e-05,1.24106e-07,2
-2.27476e-05,-9.06985e-06,2.93038e-06,-2.42285e-05,1.74778e-05,-2.52084e-05,0.00014099,-5.85956e-07,2
-3.1911e-05,-2.05464e-05,5.87231e-08,-3.44014e-05,5.16549e-05,-1.87495e-06,0.000143857,-1.76417e-06,2
-5.43053e-05,-2.69338e-05,1.91524e-06,-4.28527e-05,4.63605e-05,2.8139e-05,0.000108383,-2.57087e-06,2
-7.97786e-05,-2.84662e-05,1.69635e-06,-4.01379e-05,6.89577e-06,6.03708e-05,4.69552e-05,-2.03416e-06,2
-9.66144e-05,-2.74921e-05,-4.2382e-06,-2.0661e-05,-3.07032e-05,9.68454e-05,-1.14768e-05,4.87297e-07,2
-0.000112707,-2.08622e-05,-1.00288e-05,-1.74332e-06,-1.43123e-05,0.000137488,-4.79301e-05,1.77717e-06,2
-0.000143781,-1.14642e-05,-1.04877e-05,-1.07199e-05,5.0941e-05,0.000181116,-5.42362e-05,1.10074e-06,2
-0.000183699,-1.13765e-05,-5.77571e-06,-4.00795e-05,8.04234e-05,0.000217976,-3.72192e-05,3.24597e-07,2
-0.000204117,-2.80327e-05,-3.15098e-06,-6.23277e-05,4.16631e-05,0.000249384,-1.06606e-05,7.46407e-07,2
-0.000194543,-6.33006e-05,-7.2194e-06,-6.47272e-05,-1.82876e-06,0.000270102,1.27821e-05,7.4898e-07,2
-0.000167483,-0.000104038,-1.46206e-05,-6.03462e-05,-6.61577e-07,0.000277228,2.68943e-05,7.50418e-08,2
-0.000143389,-0.000124301,-1.8344e-05,-6.37979e-05,1.83194e-05,0.0002758,3.905e-05,-5.45223e-07,2
-0.000140515,-0.000106278,-1.60151e-05,-6.45609e-05,1.45277e-05,0.000255237,5.16455e-05,-2.97054e-07,2
-0.000161429,-5.56685e-05,-1.00618e-05,-3.41959e-05,-9.2031e-07,0.00019609,5.84963e-05,1.83112e-06,2
-0.00018882,3.79464e-06,-4.2893e-06,3.09893e-05,5.34494e-06,0.000103497,5.40119e-05,4.12674e-06,2
-0.000197489,4.92673e-05,3.02769e-07,8.99785e-05,5.11159e-05,2.61951e-05,4.27361e-05,4.02704e-06,2
-0.000163789,7.41635e-05,3.44723e-06,0.000101691,0.00011987,9.02675e-07,2.5328e-05,2.06683e-06,2
-5.80892e-05,9.09344e-05,6.42774e-06,7.24361e-05,0.000175825,7.88419e-06,2.35117e-06,1.39274e-06,2
0.000116614,0.000120043,1.11354e-05,3.96245e-05,0.000179204,-1.17457e-06,-2.27919e-05,2.87169e-07,2
0.000284624,0.000159191,1.53376e-05,2.60291e-05,0.00011295,-2.88104e-05,-4.08376e-05,-2.98557e-06,2
0.000359643,0.000172239,1.08965e-05,2.79163e-05,8.61507e-07,-3.77497e-05,-4.75653e-05,-5.26032e-06,2
0.000317604,0.000146138,-5.42656e-06,3.00269e-05,-8.61533e-05,-1.71699e-05,-4.41468e-05,-4.17378e-06,2
0.000200161,0.00010685,-2.90053e-05,2.39205e-05,-9.57867e-05,-2.59911e-05,-2.85109e-05,-2.67102e-06,2
9.91184e-05,8.12057e-05,-4.6636e-05,1.17779e-05,-4.66671e-05,-0.000123824,-4.97145e-06,-1.26555e-06,2
6.65674e-05,7.56946e-05,-4.56368e-05,3.28894e-06,4.92696e-06,-0.000270963,5.21286e-06,2.19454e-07,2
7.00985e-05,7.80972e-05,-3.27047e-05,1.75683e-06,1.62546e-05,-0.00037944,-6.11651e-06,1.3205e-06,2
6.45951e-05,7.94295e-05,-1.94972e-05,4.51705e-06,-2.97562e-05,-0.000458725,-2.38425e-05,2.89104e-06,2
3.75568e-05,7.01608e-05,-1.32465e-05,1.11079e-05,-0.000111042,-0.000509384,-3.90874e-05,3.39266e-06,2
6.17654e-06,4.88407e-05,-1.36556e-05,1.67093e-05,-0.000174494,-0.000463421,-5.688e-05,2.93483e-06,2
-1.47878e-05,2.69636e-05,-1.47829e-05,1.66605e-05,-0.00019118,-0.000342258,-7.53875e-05,4.40521e-06,2
-2.21518e-05,1.08207e-05,-1.4976e-05,1.21279e-05,-0.000173468,-0.000211497,-8.29701e-05,5.18251e-06,2
-1.85847e-05,3.29033e-06,-1.38879e-05,6.3785e-06,-0.000156394,-0.000104342,-6.98123e-05,4.20222e-06,2
-9.58829e-06,1.73804e-06,-1.03739e-05,2.14032e-06,-0.000132686,-3.73294e-05,-3.16178e-05,4.51519e-06,2
-6.28192e-06,1.51706e-06,-4.07503e-06,-1.54303e-06,-6.08575e-05,-1.83852e-05,1.91932e-05,3.26971e-06,2
-1.40814e-05,-5.49351e-07,2.25265e-06,-3.92849e-06,7.96605e-05,-2.23197e-05,5.86974e-05,1.84107e-06,2
-2.75549e-05,-3.67647e-06,6.49207e-06,-2.69837e-06,0.000234671,-1.59467e-05,7.79018e-05,2.46065e-06,2
-4.06373e-05,-6.97671e-06,7.02543e-06,6.55974e-07,0.000313637,1.12498e-05,7.91556e-05,4.50197e-06,2
-4.93704e-05,-7.96877e-06,7.32163e-06,2.51226e-06,0.000281408,4.39241e-05,6.47015e-05,6.32916e-06,2
-5.84068e-05,-3.95724e-06,9.80732e-06,2.0906e-06,0.00017232,6.73343e-05,4.95506e-05,7.3014e-06,2
-6.86225e-05,2.17748e-06,1.14473e-05,-6.56951e-07,5.36838e-05,8.5055e-05,4.1975e-05,8.49114e-06,2
-7.94084e-05,6.58754e-06,9.57318e-06,-5.58763e-06,-2.75338e-05,0.000102546,3.90645e-05,9.38023e-06,2
-8.97078e-05,6.81926e-06,4.17031e-06,-1.23083e-05,-6.59829e-05,0.00012578,3.92142e-05,9.09837e-06,2
-9.0357e-05,-5.00559e-07,-2.74056e-06,-2.14354e-05,-8.33879e-05,0.000156295,3.68593e-05,7.15049e-06,2
-7.16695e-05,-1.73171e-05,-1.00967e-05,-3.149e-05,-8.33939e-05,0.000187973,1.44352e-05,4.71102e-06,2
-4.27511e-05,-3.45308e-05,-1.53993e-05,-3.74092e-05,-5.69648e-05,0.000204618,-2.84648e-05,1.77088e-06,2
-2.89203e-05,-3.88536e-05,-1.93972e-05,-3.53822e-05,-1.73535e-05,0.000202919,-6.40058e-05,-1.58461e-06,2
-4.09483e-05,-3.00568e-05,-2.23249e-05,-2.76122e-05,1.94975e-05,0.000187692,-6.41222e-05,-5.72686e-06,2
-6.15908e-05,-1.85422e-05,-2.19587e-05,-1.7785e-05,6.5387e-05,0.000154922,-2.23964e-05,-9.85082e-06,2
-6.82919e-05,-1.0305e-05,-1.71747e-05,-7.78935e-06,0.000124956,0.000105813,4.34421e-05,-1.2342e-05,2
-5.72865e-05,-1.23511e-05,-1.00514e-05,1.55167e-06,0.000181653,6.97966e-05,0.000100716,-1.26188e-05,2
-3.61006e-05,-2.78457e-05,-4.85567e-06,7.81607e-06,0.000198011,7.03746e-05,0.000123058,-1.09351e-05,2
-4.7621e-06,-4.69155e-05,-5.29584e-06,7.19848e-06,0.000144905,8.41939e-05,0.000111619,-7.66272e-06,2
3.47056e-05,-5.7083e-05,-7.2284e-06,2.75982e-06,7.82364e-05,6.74298e-05,9.31024e-05,-3.44169e-06,2
6.4864e-05,-4.85073e-05,-4.20135e-06,1.24918e-07,6.68893e-05,1.86014e-05,8.71074e-05,1.0079e-06,2
6.74844e-05,-3.323e-05,-8.79724e-07,-3.94605e-06,9.42125e-05,-9.2832e-06,9.00122e-05,5.73215e-06,2
4.3799e-05,-2.62843e-05,-4.56303e-06,-7.55445e-06,0.000113938,-2.95075e-06,8.82708e-05,9.12561e-06,2
3.6114e-06,-1.94317e-05,-1.053e-05,-3.87021e-07,0.000110518,1.22311e-05,7.44687e-05,1.26063e-05,2
-5.0898e-05,-1.33246e-05,-1.14292e-05,1.90614e-05,8.19357e-05,3.77681e-05,5.82863e-05,1.7904e-05,2
-0.000108725,-1.51549e-05,-7.87087e-06,3.05234e-05,4.00616e-05,7.46411e-05,4.5283e-05,2.24911e-05,2
-0.000153353,-2.78054e-05,-3.53977e-06,2.10312e-05,8.12765e-06,0.00012508,4.24756e-05,2.27475e-05,2
-0.000163293,-3.88907e-05,1.58928e-06,1.53679e-05,-3.30867e-06,0.000165838,5.8728e-05,1.95272e-05,2
-0.000142338,-3.27874e-05,9.91153e-06,3.23403e-05,2.0258e-06,0.000168756,8.85425e-05,1.68006e-05,2
-0.000124874,-5.94342e-06,1.74872e-05,4.56501e-05,9.8156e-06,0.000134077,0.000112533,1.3242e-05,2
-0.000132483,2.67281e-05,1.74091e-05,3.07216e-05,9.89276e-06,7.09381e-05,0.000124951,7.3418e-06,2
-0.000151233,3.82998e-05,8.47878e-06,-6.31542e-08,1.24744e-06,1.5678e-05,0.000137008,5.01834e-08,2
-0.000158178,2.14986e-05,-3.0637e-06,-2.45218e-05,-1.20327e-05,8.47054e-06,0.000144681,-6.48289e-06,2
-0.000145338,-4.1264e-06,-8.8695e-06,-2.96999e-05,-2.23162e-05,4.54161e-05,0.000129696,-1.15166e-05,2
-0.000116586,-7.72269e-06,-4.77301e-06,-1.77221e-05,-3.25003e-05,7.4013e-05,8.76466e-05,-1.51675e-05,2
-8.06946e-05,1.74789e-05,4.1683e-06,-4.32186e-06,-5.62939e-05,4.56634e-05,3.78985e-05,-1.69381e-05,2
-3.84054e-05,4.82943e-05,8.48979e-06,-3.26159e-06,-9.05143e-05,-4.80791e-05,-1.0404e-06,-1.67353e-05,2
1.58159e-06,6.06343e-05,4.64383e-06,-1.38273e-05,-0.000104894,-0.000165534,-2.53538e-05,-1.34986e-05,2
1.92241e-05,5.58208e-05,-4.51217e-06,-2.78128e-05,-7.6175e-05,-0.000230027,-4.15286e-05,-8.81459e-06,2
-3.83839e-06,4.6403e-05,-1.49522e-05,-3.49582e-05,-1.09621e-05,-0.000183409,-5.71015e-05,-5.10396e-06,2
-6.16355e-05,4.03615e-05,-2.3784e-05,-2.73896e-05,6.08111e-05,-7.29173e-05,-7.49831e-05,-2.93146e-06,2
-0.000125287,3.32572e-05,-3.21083e-05,-1.47178e-05,0.00010507,-3.42786e-06,-9.15769e-05,-1.6588e-06,2
-0.000169957,1.8086e-05,-4.02145e-05,-1.66191e-05,0.000101048,1.29007e-06,-9.93393e-05,-1.63654e-06,2
-0.000184605,2.23689e-06,-4.55815e-05,-3.19582e-05,4.46744e-05,-2.78542e-05,-9.12038e-05,-8.59342e-07,2
-0.000167057,-1.79936e-06,-4.91638e-05,-4.97873e-05,-5.67291e-05,-8.78516e-05,-7.13681e-05,2.6374e-06,2
-0.000137763,4.52896e-06,-5.10824e-05,-6.20521e-05,-0.000169996,-0.000166735,-5.13949e-05,4.95491e-06,2
-0.000109377,4.559e-06,-4.75701e-05,-5.20717e-05,-0.00023895,-0.000200041,-3.19536e-05,3.76237e-06,2
-6.5719e-05,-8.49464e-06,-3.48885e-05,-2.25359e-05,-0.000224168,-0.000133788,-1.34214e-05,1.28164e-06,2
1.69183e-05,-7.4496e-06,-1.74855e-05,5.16466e-06,-0.000104754,-1.85031e-05,-7.39952e-06,1.29685e-07,2
0.000153435,2.5347e-05,-2.04455e-07,3.05163e-05,6.42495e-05,8.93699e-05,-1.9143e-05,7.30799e-07,2
0.00027606,6.19188e-05,1.22047e-05,4.27405e-05,0.000160142,0.000145855,-4.21488e-05,-5.75485e-07,2
0.000296972,7.38596e-05,1.16732e-05,3.04217e-05,0.000151596,9.71754e-05,-6.03932e-05,-2.71854e-06,2
0.000237771,6.74721e-05,3.89929e-06,7.87496e-06,8.57385e-05,-2.80166e-05,-6.2764e-05,-3.32927e-06,2
0.000154733,6.25178e-05,-1.29083e-06,-1.68395e-05,-4.19108e-06,-0.000159899,-5.17996e-05,-3.37569e-06,2
8.89459e-05,6.41135e-05,-6.08864e-07,-3.90716e-05,-9.28934e-05,-0.000242438,-3.95554e-05,-3.01489e-06,2
5.76872e-05,6.91618e-05,7.41516e-07,-5.6824e-05,-0.000155397,-0.000284669,-3.84879e-05,-3.64202e-06,2
4.60758e-05,6.96536e-05,-4.17131e-07,-6.1289e-05,-0.000169455,-0.000302754,-4.26531e-05,-4.32154e-06,2
3.6907e-05,6.56909e-05,-3.25511e-06,-3.96307e-05,-0.000107509,-0.000304994,-4.54643e-05,-3.2404e-06,2
2.59119e-05,5.98579e-05,-5.76762e-06,3.56086e-06,1.82758e-05,-0.000299444,-4.60158e-05,-1.714e-06,2
1.80367e-05,5.09793e-05,-7.84257e-06,3.25229e-05,0.000132266,-0.000267578,-3.77417e-05,-3.36389e-06,2
1.27704e-05,3.8655e-05,-1.07756e-05,2.40634e-05,0.000175391,-0.000187258,-1.06383e-05,-6.79768e-06,2
1.0748e-05,2.33051e-05,-1.29386e-05,-1.25773e-06,0.000151128,-7.90129e-05,2.82133e-05,-8.13905e-06,2
1.09033e-05,6.01255e-06,-1.59525e-05,-1.80179e-05,9.71474e-05,7.02141e-06,5.66764e-05,-6.20902e-06,2
1.13373e-05,-1.32051e-05,-2.00912e-05,-2.22835e-05,3.97835e-05,5.57281e-05,5.86404e-05,-3.23012e-06,2
4.6628e-06,-3.46849e-05,-2.36897e-05,-2.22096e-05,-1.23871e-05,8.03716e-05,3.57793e-05,-2.07415e-06,2
-1.5329e-05,-5.68395e-05,-2.35344e-05,-2.04944e-05,-6.83759e-05,0.000100704,6.86233e-06,-2.15973e-06,2
-4.7588e-05,-7.05101e-05,-1.84718e-05,-1.02787e-05,-0.00014296,0.000129134,-1.53796e-05,-2.68996e-06,2
-8.35153e-05,-6.93691e-05,-8.53141e-06,1.62642e-05,-0.000225114,0.000171159,-2.87664e-05,-4.00046e-06,2
-0.000119113,-5.94188e-05,1.16897e-06,3.80796e-05,-0.00028054,0.00020408,-2.42907e-05,-3.81039e-06,2
-0.000151575,-5.3386e-05,5.45304e-06,2.30768e-05,-0.000289738,0.000209707,7.07523e-06,-1.17982e-06,2
-0.000180448,-5.41098e-05,3.76219e-06,-1.81722e-05,-0.000260832,0.000205379,5.21019e-05,6.95074e-08,2
-0.000199958,-4.851e-05,1.20505e-06,-4.2331e-05,-0.000205385,0.000219012,9.10889e-05,-5.89669e-07,2
-0.000195434,-2.69749e-05,-5.12745e-07,-2.91494e-05,-0.000128219,0.00023541,0.000116186,-1.01657e-06,2
-0.000166013,-1.10224e-06,-4.37234e-06,1.21525e-05,-4.66571e-05,0.000229338,0.000127486,-5.54656e-07,2
-0.000121257,1.46309e-05,-1.29168e-05,5.3151e-05,3.95589e-05,0.000211155,0.00011717,9.06737e-07,2
-6.97704e-05,2.42652e-05,-2.19339e-05,6.08204e-05,0.000139099,0.000187929,8.67467e-05,2.83474e-06,2
-1.70933e-05,3.64752e-05,-2.611e-05,3.70698e-05,0.000230284,0.000129458,4.83521e-05,3.74206e-06,2
1.30915e-05,3.94445e-05,-2.94475e-05,8.94611e-06,0.000292039,2.32581e-05,7.00833e-06,4.25388e-06,2
5.59092e-06,2.69585e-05,-3.05354e-05,-1.04043e-05,0.000311277,-9.31798e-05,-1.73002e-05,4.51882e-06,2
-6.4809e-07,1.95063e-05,-2.63566e-05,-2.10592e-05,0.000274379,-0.0001857,-1.54893e-05,4.06803e-06,2
2.39724e-05,3.31367e-05,-1.5149e-05,-2.86071e-05,0.000177326,-0.000262981,-2.58567e-06,4.03397e-06,2
5.06921e-05,5.79078e-05,9.20855e-07,-3.36706e-05,8.33642e-05,-0.000339487,-2.52062e-06,5.66441e-06,2
3.65534e-05,7.30598e-05,1.50852e-05,-3.72443e-05,6.23988e-05,-0.00036062,-2.88829e-05,8.96524e-06,2
-1.57773e-05,7.34189e-05,2.36224e-05,-3.90221e-05,0.000115922,-0.000296459,-6.16551e-05,1.3234e-05,2
-7.14394e-05,6.52359e-05,2.85173e-05,-3.36497e-05,0.000210194,-0.000195263,-7.50016e-05,1.65745e-05,2
-0.00011158,5.22559e-05,2.98326e-05,-2.25767e-05,0.000295262,-0.000107758,-6.45788e-05,1.84151e-05,2
-0.000136585,3.69149e-05,2.56879e-05,-1.89289e-05,0.000310597,-4.6096e-05,-3.97822e-05,2.02525e-05,2
-0.000151483,2.28986e-05,1.75326e-05,-2.75121e-05,0.000226709,-1.8574e-06,-1.31245e-05,2.21365e-05,2
-0.000154117,1.03817e-05,1.02724e-05,-2.93149e-05,8.77239e-05,2.46532e-05,3.0582e-06,2.35955e-05,2
-0.000141758,-9.69652e-07,6.22561e-06,-5.8529e-06,-9.97152e-06,3.48447e-05,1.25663e-05,2.2468e-05,2
-0.000105562,-9.80304e-06,2.31662e-06,3.54206e-05,-9.96024e-06,4.29745e-05,2.28526e-05,1.86378e-05,2
-3.18934e-05,-1.74183e-05,-5.95154e-06,5.60646e-05,5.48076e-05,6.47451e-05,3.10288e-05,1.46756e-05,2
6.69368e-05,-2.65811e-05,-1.94952e-05,3.08827e-05,0.000130877,0.000102836,3.36633e-05,1.11011e-05,2
0.000128564,-3.37199e-05,-3.34718e-05,-1.93406e-05,0.000190472,0.000153088,3.18028e-05,7.70163e-06,2
0.00010634,-3.29501e-05,-4.23205e-05,-5.19323e-05,0.00021062,0.000208873,2.80531e-05,5.52506e-06,2
3.08911e-05,-2.42221e-05,-4.17805e-05,-4.96508e-05,0.000168533,0.000255441,2.77063e-05,4.65121e-06,2
-1.9917e-05,-7.65141e-06,-3.15447e-05,-2.22424e-05,7.88622e-05,0.000266268,4.10154e-05,3.64194e-06,2
1.84066e-06,1.80947e-05,-1.62487e-05,1.01006e-05,-2.65747e-05,0.000219888,7.01001e-05,1.10994e-06,2
7.22744e-05,4.8335e-05,-5.44716e-06,2.82459e-05,-0.000167979,0.000126756,9.27848e-05,-3.06237e-06,2
0.000135865,6.89808e-05,3.38543e-07,3.5654e-05,-0.000381443,2.23482e-05,8.67299e-05,-5.83148e-06,2
0.000154034,6.91887e-05,7.92851e-06,5.11391e-05,-0.000547428,-3.51135e-05,5.71786e-05,-6.66036e-06,2
0.000131617,5.55276e-05,1.62375e-05,5.8229e-05,-0.000502835,1.01288e-05,2.04906e-05,-7.04768e-06,2
9.66673e-05,4.4916e-05,1.84521e-05,3.47892e-05,-0.000295773,0.000101913,-9.33561e-06,-8.21122e-06,2
5.79172e-05,4.17202e-05,1.5552e-05,7.46714e-06,-8.06276e-05,0.00011657,-3.05377e-05,-1.01963e-05,2
4.95484e-06,4.37122e-05,1.5326e-05,1.27849e-06,7.78552e-05,4.43398e-05,-4.1768e-05,-9.94243e-06,2
-6.08518e-05,5.13575e-05,1.73006e-05,1.12066e-05,0.000161686,-1.93927e-05,-4.31117e-05,-1.01182e-05,2
-0.000111593,5.40359e-05,1.50807e-05,2.89099e-05,0.00017933,-3.24482e-05,-4.17653e-05,-1.00856e-05,2
-0.000135575,3.8052e-05,5.73769e-06,4.12309e-05,0.000200131,-4.11119e-05,-3.81345e-05,-8.73549e-06,2
-0.000149519,2.13757e-06,-9.23433e-06,3.26529e-05,0.000240626,-8.07447e-05,-3.10582e-05,-7.99838e-06,2
-0.000168304,-3.65033e-05,-2.29849e-05,9.17147e-06,0.000238864,-0.000126112,-2.58229e-05,-9.40794e-06,2
-0.000179131,-5.1664e-05,-2.44418e-05,-1.13945e-05,0.000153645,-0.000152561,-2.23617e-05,-1.23793e-05,2
-0.000158191,-3.55872e-05,-1.13822e-05,-1.60201e-05,2.91458e-05,-0.000180999,-1.69211e-05,-1.32223e-05,2
-0.000105759,-7.81792e-06,6.10681e-06,-1.08866e-05,-5.97699e-05,-0.000213438,-1.46658e-05,-1.29426e-05,2
-3.10358e-05,1.71126e-05,1.45092e-05,-9.72613e-06,-7.66463e-05,-0.000212897,-1.62029e-05,-1.30508e-05,2
4.5373e-05,3.86327e-05,1.14973e-05,-1.38925e-05,-3.40683e-05,-0.000163741,-1.13209e-05,-1.34315e-05,2
8.39086e-05,5.04868e-05,5.05367e-06,-1.45304e-05,2.87196e-05,-9.85273e-05,1.08988e-05,-1.31001e-05,2
6.9164e-05,4.4344e-05,4.96642e-07,-1.08521e-05,7.08748e-05,-5.38564e-05,4.28914e-05,-1.1573e-05,2
3.75985e-05,2.33719e-05,-2.96856e-06,-1.20086e-05,7.1427e-05,-5.22869e-05,5.9141e-05,-9.0495e-06,2
2.53676e-05,5.29876e-06,-5.95776e-06,-1.93329e-05,4.14442e-05,-9.21678e-05,4.3876e-05,-6.46121e-06,2
3.19762e-05,6.60959e-06,-6.09843e-06,-2.44947e-05,-1.01149e-05,-0.0001368,1.6747e-06,-3.771e-06,2
3.0643e-05,2.29123e-05,-5.24228e-06,-2.52419e-05,-8.21236e-05,-0.000151879,-5.10688e-05,-8.25511e-07,2
1.13497e-06,3.35747e-05,-6.37482e-06,-2.84294e-05,-0.000163191,-0.000128721,-8.39287e-05,3.59982e-06,2
-5.09105e-05,3.13391e-05,-5.52736e-06,-3.19443e-05,-0.00021987,-7.53167e-05,-6.8779e-05,7.92154e-06,2
-0.000106706,2.05809e-05,2.35047e-06,-2.76104e-05,-0.000210702,-6.12083e-06,-1.44698e-05,8.91963e-06,2
-0.000157254,3.09386e-06,1.1701e-05,-1.56424e-05,-0.000116392,6.7119e-05,4.21767e-05,6.11632e-06,2
-0.00019779,-1.44026e-05,1.16897e-05,-2.25304e-06,3.34763e-05,0.000127149,7.50229e-05,3.50615e-06,2
-0.000205633,-1.73967e-05,1.32993e-07,9.18545e-06,0.000173799,0.000155681,8.23988e-05,4.46326e-06,2
-0.000166787,-4.25467e-06,-1.26424e-05,8.7098e-06,0.00025761,0.000165975,7.32082e-05,6.67241e-06,2
-0.000105067,3.26257e-06,-1.92867e-05,-1.02025e-05,0.000286286,0.000168615,6.05906e-05,9.23895e-06,2
