ch1,ch2,ch3,ch4,ch5,ch6,ch7,ch8,class
-5.36354e-05,1.0421e-05,9.54627e-09,-4.25565e-05,2.45137e-05,3.60298e-05,4.24121e-05,5.56245e-06,2
-7.23088e-05,8.6225e-06,-2.83629e-06,-2.38683e-05,1.96906e-05,2.598e-05,3.46793e-05,6.87434e-06,2
-8.11432e-05,1.22587e-05,6.40659e-07,1.91369e-05,1.4959e-05,1.59878e-05,3.27654e-05,4.8624e-06,2
-6.87432e-05,1.66104e-05,2.68278e-06,4.93189e-05,1.53475e-05,2.4013e-05,3.93505e-05,1.58354e-06,2
-4.676e-05,1.36783e-05,-7.3083e-07,4.70914e-05,1.54512e-05,4.33189e-05,4.18994e-05,1.4874e-07,2
-3.29034e-05,3.53344e-06,-6.08666e-06,2.98793e-05,6.2339e-06,6.38504e-05,4.01875e-05,1.13227e-06,2
-3.06851e-05,-5.86459e-06,-1.0472e-05,1.62291e-05,-1.54083e-05,7.97562e-05,3.81524e-05,1.53309e-06,2
-3.21225e-05,-1.42008e-05,-1.25004e-05,7.48981e-06,-4.35385e-05,8.69328e-05,3.43404e-05,8.01324e-07,2
-3.87099e-05,-2.53779e-05,-1.23929e-05,-2.81547e-06,-6.48071e-05,7.88079e-05,3.11448e-05,8.55243e-08,2
-5.6352e-05,-3.82995e-05,-1.11149e-05,-1.77011e-05,-6.56397e-05,5.29852e-05,2.49153e-05,1.69425e-07,2
-8.60494e-05,-4.62673e-05,-9.59232e-06,-3.35096e-05,-4.53756e-05,2.93275e-05,1.06758e-05,3.028e-06,2
-0.000120907,-4.43197e-05,-7.86611e-06,-4.33776e-05,-1.98037e-05,2.72757e-05,-5.4431e-06,6.2966e-06,2
-0.000158516,-3.5126e-05,-5.47544e-06,-4.46268e-05,-6.35795e-06,4.15457e-05,-1.24238e-05,6.71015e-06,2
-0.000201311,-2.73778e-05,-2.10762e-06,-3.52073e-05,-5.32316e-06,6.33673e-05,-1.12491e-05,5.27199e-06,2
-0.000236618,-2.20135e-05,1.29349e-06,-1.98284e-05,-1.16303e-05,0.000103735,-8.39705e-06,5.60108e-06,2
-0.000245349,-1.29211e-05,3.17301e-06,-7.79917e-06,-1.66688e-05,0.000157356,-5.1811e-06,6.15751e-06,2
-0.000222244,1.90006e-06,3.54742e-06,-3.06234e-06,-1.01141e-05,0.000195415,1.65133e-06,3.53341e-06,2
-0.000170231,1.41385e-05,1.39806e-06,-1.01369e-06,6.17669e-06,0.000213624,1.12751e-05,-1.36699e-06,2
-0.000102468,1.29927e-05,-5.08513e-06,-1.45121e-08,2.7831e-05,0.000237095,2.0507e-05,-7.6916e-06,2
-4.62151e-05,1.26403e-06,-1.26725e-05,-2.97089e-07,5.20385e-05,0.000271861,3.29379e-05,-1.44311e-05,2
-1.33879e-05,-3.91031e-06,-1.7048e-05,-3.93514e-07,5.78635e-05,0.000289688,5.65802e-05,-1.87831e-05,2
7.12178e-06,4.06191e-06,-1.88039e-05,-2.07566e-06,4.44419e-05,0.000262187,7.80974e-05,-2.03188e-05,2
5.28203e-05,2.12807e-05,-1.79095e-05,-5.68639e-06,4.7715e-05,0.000186066,7.42016e-05,-1.98658e-05,2
0.000145025,3.92497e-05,-1.42502e-05,-5.77014e-06,7.56687e-05,6.28793e-05,4.23704e-05,-1.75614e-05,2
0.000207108,3.94641e-05,-1.13993e-05,-2.44346e-06,8.96978e-05,-5.16518e-05,6.42048e-06,-1.48039e-05,2
0.000193648,2.933e-05,-1.17154e-05,3.79886e-06,6.57949e-05,-0.000142364,-1.80841e-05,-1.31262e-05,2
0.000145296,2.90364e-05,-1.38569e-05,7.77369e-06,6.00062e-06,-0.00029635,-4.21212e-05,-1.22453e-05,2
9.47478e-05,3.55922e-05,-1.68308e-05,2.32675e-06,-7.61355e-05,-0.00047874,-6.35179e-05,-1.06674e-05,2
6.71724e-05,4.03615e-05,-1.85794e-05,-7.33287e-06,-0.000140634,-0.000553159,-7.1341e-05,-7.5367e-06,2
5.09576e-05,4.1869e-05,-1.71638e-05,-1.29121e-05,-0.000145976,-0.000496463,-5.9866e-05,-3.32013e-06,2
3.59302e-05,4.25555e-05,-1.26873e-05,-8.91298e-06,-6.92102e-05,-0.000404201,-3.72484e-05,3.13115e-06,2
2.27226e-05,4.62949e-05,-4.85481e-06,-1.52058e-06,3.70153e-05,-0.000348185,-2.23027e-05,9.12311e-06,2
1.93151e-05,5.27576e-05,5.29203e-06,-1.24222e-06,7.92065e-05,-0.000336424,-1.9383e-05,1.28594e-05,2
2.53184e-05,5.31983e-05,1.2244e-05,-7.07609e-06,4.35191e-05,-0.000307677,-2.15317e-05,1.51213e-05,2
2.79106e-05,4.24349e-05,1.13658e-05,-1.21363e-05,-5.86423e-06,-0.000222546,-2.60794e-05,1.75352e-05,2
2.18792e-05,2.66701e-05,5.51846e-06,-1.38089e-05,3.91909e-06,-0.000125393,-2.51018e-05,1.9688e-05,2
1.02539e-05,1.45127e-05,9.09668e-07,-1.25066e-05,8.49663e-05,-6.59242e-05,-1.37127e-05,1.98292e-05,2
-6.84251e-09,6.01974e-06,-9.18866e-08,-1.13292e-05,0.000180637,-4.06788e-05,-2.64831e-06,1.99404e-05,2
-1.03401e-05,-3.76599e-06,-8.61083e-07,-1.18866e-05,0.000227704,-1.64867e-05,2.72419e-06,1.90599e-05,2
-1.59176e-05,-1.48219e-05,-3.70316e-06,-1.13212e-05,0.000217886,1.44834e-05,7.52322e-06,1.67633e-05,2
-1.55406e-05,-2.04238e-05,-7.33309e-06,-9.06068e-06,0.0001717,4.45381e-05,1.30743e-05,1.43325e-05,2
-1.20272e-05,-1.712e-05,-9.19317e-06,-1.02359e-05,0.00010772,6.11296e-05,2.00313e-05,1.25807e-05,2
-1.39382e-05,-1.0215e-05,-8.20878e-06,-1.36206e-05,5.175e-05,6.49624e-05,3.50368e-05,8.78386e-06,2
-2.28583e-05,-6.32738e-06,-3.38128e-06,-1.39762e-05,2.60091e-05,6.55906e-05,5.69245e-05,4.81249e-06,2
-3.4914e-05,-6.14175e-06,4.98619e-06,-1.08942e-05,2.93964e-05,7.82679e-05,7.15595e-05,4.25321e-06,2
-4.24864e-05,-4.20277e-06,1.34876e-05,-4.35261e-06,3.46058e-05,0.000107305,7.03108e-05,4.93379e-06,2
-4.82616e-05,6.71354e-07,1.83991e-05,4.54587e-06,1.62497e-05,0.000144506,5.91674e-05,3.34821e-06,2
-5.40717e-05,7.17453e-06,1.83156e-05,1.12902e-05,-3.102e-05,0.000170132,4.78913e-05,1.61325e-07,2
-6.0741e-05,1.83235e-05,1.62567e-05,1.15357e-05,-0.000110921,0.000170469,3.92692e-05,-2.56334e-06,2
-7.27132e-05,2.93204e-05,1.39154e-05,7.29965e-06,-0.000212951,0.000153778,2.42602e-05,-2.34935e-06,2
-9.20564e-05,2.92465e-05,8.14749e-06,1.89028e-06,-0.000282149,0.00013696,8.28173e-06,-1.01219e-07,2
-0.000108598,2.15074e-05,-1.03219e-06,-3.3401e-06,-0.000218959,0.000111639,2.15333e-06,-8.40476e-07,2
-0.000111587,1.68676e-05,-1.0782e-05,-6.89214e-06,-8.25126e-06,5.16676e-05,-1.00058e-06,-2.66306e-06,2
-0.000105053,2.17761e-05,-1.9122e-05,-6.58695e-06,0.000189295,-4.41389e-05,-1.26889e-05,-3.25363e-06,2
-0.000100569,3.23351e-05,-2.25051e-05,-4.92325e-06,0.000243234,-0.000135112,-3.77326e-05,-3.72881e-06,2
-0.000105148,3.71722e-05,-2.06501e-05,-6.783e-06,0.000189264,-0.000168663,-6.88708e-05,-3.67501e-06,2
-9.96048e-05,3.60507e-05,-1.73928e-05,-1.11851e-05,0.000133931,-0.000138475,-8.22164e-05,-4.09961e-06,2
-7.22947e-05,3.58035e-05,-1.55762e-05,-2.06957e-05,0.000108312,-8.40374e-05,-6.62398e-05,-5.57065e-06,2
-3.72578e-05,3.37278e-05,-1.5366e-05,-3.51077e-05,7.22021e-05,-4.58929e-05,-3.90997e-05,-5.55395e-06,2
-1.63163e-05,2.5736e-05,-1.63816e-05,-5.11552e-05,1.58396e-05,-3.14088e-05,-1.01601e-05,-3.98371e-06,2
-1.31513e-05,1.55844e-05,-1.66306e-05,-5.77712e-05,-2.4245e-05,-2.78496e-05,1.87709e-05,-2.02066e-06,2
-1.73674e-05,7.6058e-06,-1.5433e-05,-3.9111e-05,-2.4102e-05,-2.45999e-05,3.92902e-05,-5.2227e-07,2
-2.38339e-05,-1.68969e-06,-1.52231e-05,-3.22205e-08,-3.62706e-06,-2.1647e-05,4.69818e-05,4.84004e-07,2
-3.70592e-05,-1.73439e-05,-1.6781e-05,2.82475e-05,7.926e-06,-2.09367e-05,4.63102e-05,-1.60306e-07,2
-5.99279e-05,-3.75432e-05,-1.86768e-05,2.33269e-05,1.14187e-06,-1.52479e-05,4.19886e-05,-2.92488e-06,2
-8.97618e-05,-5.46222e-05,-1.98237e-05,-1.37854e-07,-1.00017e-05,3.6914e-06,4.15211e-05,-6.23287e-06,2
-0.000120752,-6.16035e-05,-1.9562e-05,-1.71777e-05,-1.40062e-05,3.02047e-05,5.15629e-05,-9.22536e-06,2
-0.000148654,-6.043e-05,-1.75537e-05,-2.11935e-05,-1.1671e-05,5.71109e-05,6.55395e-05,-1.22126e-05,2
-0.000172903,-5.8577e-05,-1.3409e-05,-2.27443e-05,-5.56357e-06,8.92523e-05,7.00066e-05,-1.46151e-05,2
-0.0001926,-5.68507e-05,-7.04581e-06,-2.69912e-05,4.87231e-06,0.00013497,6.29181e-05,-1.49969e-05,2
-0.000206472,-4.44772e-05,3.59009e-07,-3.2465e-05,8.99059e-06,0.00018343,5.66552e-05,-1.32971e-05,2
-0.000204856,-1.66132e-05,8.12951e-06,-3.61612e-05,-3.3705e-06,0.000221151,5.57433e-05,-1.06165e-05,2
-0.000159087,2.3626e-05,1.36275e-05,-3.50345e-05,-3.7018e-05,0.000248266,5.70827e-05,-6.2622e-06,2
-5.49407e-05,6.72175e-05,1.21343e-05,-2.96304e-05,-9.59368e-05,0.000258131,5.95851e-05,-1.50817e-06,2
7.80724e-05,9.51053e-05,5.67107e-06,-2.25999e-05,-0.000156891,0.000246157,6.05257e-05,5.03562e-07,2
0.00019506,9.59428e-05,-1.05617e-07,-4.43613e-06,-0.000160085,0.000227291,5.68834e-05,1.4186e-06,2
0.00023819,8.16094e-05,-6.17334e-06,2.72905e-05,-8.12779e-05,0.000205805,4.7542e-05,3.37023e-06,2
0.000187034,7.12929e-05,-1.48373e-05,5.39855e-05,3.59656e-05,0.000161684,3.68623e-05,6.13526e-06,2
0.000105114,6.95389e-05,-2.34129e-05,5.29644e-05,9.88375e-05,6.29137e-05,3.00343e-05,8.15828e-06,2
4.411e-05,7.16908e-05,-2.89628e-05,2.97094e-05,8.65677e-05,-0.000101205,2.2237e-05,8.12369e-06,2
1.31201e-05,7.52985e-05,-3.08049e-05,1.71566e-05,5.71741e-05,-0.000251222,3.88819e-06,7.62176e-06,2
5.04638e-06,7.34593e-05,-2.66092e-05,2.04801e-05,4.43227e-05,-0.000301302,-2.31517e-05,8.04356e-06,2
2.65206e-06,6.21682e-05,-1.95369e-05,2.10706e-05,7.85256e-05,-0.000277642,-4.81706e-05,9.6984e-06,2
2.60401e-06,4.85315e-05,-1.30298e-05,1.15704e-05,0.000135612,-0.000251812,-5.93184e-05,1.23998e-05,2
5.00165e-06,3.92063e-05,-9.52171e-06,4.4411e-06,0.000172111,-0.000257788,-5.2513e-05,1.37178e-05,2
8.04553e-06,3.52509e-05,-8.49934e-06,6.93281e-06,0.000152437,-0.000249689,-3.61491e-05,1.39413e-05,2
4.09162e-06,3.19727e-05,-4.73501e-06,1.47488e-05,7.51711e-05,-0.000182044,-1.31493e-05,1.2732e-05,2
-5.42966e-06,2.80672e-05,1.78409e-06,1.82404e-05,-6.78491e-06,-9.12117e-05,1.11147e-05,1.1341e-05,2
-1.37051e-05,2.46843e-05,8.25903e-06,1.68616e-05,-4.08576e-05,-3.23034e-05,2.51876e-05,1.06207e-05,2
-1.71724e-05,2.19445e-05,1.11848e-05,1.55112e-05,-2.56232e-05,-1.54222e-05,3.0272e-05,9.05276e-06,2
-1.49458e-05,1.8849e-05,1.11787e-05,1.29014e-05,-1.44847e-06,-1.53628e-05,3.32498e-05,6.91759e-06,2
-1.0484e-05,1.54103e-05,1.03088e-05,8.08808e-06,6.32474e-06,-1.6045e-05,3.15592e-05,6.80189e-06,2
-8.45567e-06,1.24999e-05,8.82367e-06,4.30707e-07,-2.37476e-06,-1.2251e-05,2.41016e-05,8.7579e-06,2
-1.14454e-05,9.46568e-06,4.42606e-06,-9.60322e-06,-1.12e-05,-5.65607e-06,1.54701e-05,9.24135e-06,2
-1.91432e-05,4.43875e-06,-4.09191e-06,-2.27709e-05,-1.02414e-05,4.02909e-06,9.22851e-06,9.42887e-06,2
-3.72181e-05,-2.75181e-06,-1.52835e-05,-3.64674e-05,4.02495e-06,1.50939e-05,1.07418e-05,1.01828e-05,2
-6.85064e-05,-8.14303e-06,-2.54934e-05,-4.58526e-05,1.6242e-05,2.25176e-05,2.3708e-05,1.11858e-05,2
-0.000101882,-9.41947e-06,-3.13765e-05,-4.70887e-05,1.11934e-05,2.54512e-05,4.13823e-05,1.17704e-05,2
-0.000122503,-9.00356e-06,-3.2978e-05,-4.51865e-05,-5.69807e-06,3.28549e-05,5.00423e-05,1.19734e-05,2
-0.00013104,-1.19068e-05,-3.01297e-05,-4.2382e-05,-9.75543e-06,4.4788e-05,4.08682e-05,1.26754e-05,2
-0.000131441,-1.62513e-05,-2.39e-05,-3.44177e-05,5.98735e-06,5.63843e-05,1.69269e-05,1.50878e-05,2
-0.000125313,-1.80316e-05,-1.67017e-05,-2.17261e-05,2.172e-05,7.2399e-05,-1.07966e-05,1.65637e-05,2
-0.000108473,-1.61544e-05,-1.04392e-05,-6.35038e-06,2.08571e-05,9.59282e-05,-3.3248e-05,1.50106e-05,2
-8.40926e-05,-1.30975e-05,-4.85875e-06,1.05905e-05,9.72861e-06,0.000118915,-4.2947e-05,1.33878e-05,2
-5.38732e-05,-1.07309e-05,2.20554e-06,3.05536e-05,3.53725e-06,0.000126755,-3.76688e-05,1.12455e-05,2
-6.35459e-06,-7.12269e-06,8.55637e-06,4.27063e-05,4.80204e-06,0.000111111,-2.44941e-05,9.06061e-06,2
4.46925e-05,-3.43575e-06,1.10623e-05,3.66142e-05,3.97299e-06,7.52417e-05,-9.36982e-06,7.69605e-06,2
6.67593e-05,-4.35791e-06,1.06456e-05,1.76855e-05,-4.35966e-06,2.41949e-05,8.77479e-07,6.03437e-06,2
5.35209e-05,-9.11022e-06,9.48625e-06,-6.58014e-06,-2.2815e-05,-3.81165e-05,4.60969e-06,2.71326e-06,2
2.39594e-05,-1.33138e-05,4.52616e-06,-2.85354e-05,-6.24955e-05,-9.41183e-05,9.12556e-06,-5.05273e-07,2
-9.1596e-06,-1.78069e-05,-6.3817e-06,-4.95629e-05,-0.000103571,-0.000127186,1.3485e-05,1.05875e-06,2
-4.13685e-05,-2.04947e-05,-1.73588e-05,-6.19341e-05,-9.98e-05,-0.000141217,1.35578e-05,4.4176e-06,2
-6.85687e-05,-1.74732e-05,-2.20179e-05,-6.19466e-05,-2.91255e-05,-0.000147823,1.13248e-05,6.15026e-06,2
-8.26747e-05,-9.76268e-06,-1.81555e-05,-6.00658e-05,7.66526e-05,-0.00012916,1.65386e-05,6.21243e-06,2
-7.87196e-05,1.15746e-06,-1.00674e-05,-6.34034e-05,0.000147809,-7.02152e-05,3.03707e-05,6.33511e-06,2
-5.638e-05,1.81292e-05,9.51561e-08,-6.56509e-05,0.00014837,3.42602e-06,4.28552e-05,6.6317e-06,2
-1.92044e-05,3.7738e-05,9.04291e-06,-5.5022e-05,9.64826e-05,5.13412e-05,5.06439e-05,4.69927e-06,2
2.17637e-05,4.91207e-05,1.25706e-05,-2.58451e-05,2.91186e-05,6.00235e-05,5.59106e-05,2.22478e-06,2
4.62063e-05,4.53842e-05,1.02981e-05,1.71137e-05,-1.6899e-05,5.1027e-05,5.7019e-05,1.71067e-06,2
3.92624e-05,3.20138e-05,4.96733e-06,5.28458e-05,-3.11919e-05,4.74177e-05,5.44781e-05,3.30788e-06,2
1.11341e-05,2.14301e-05,3.0823e-07,6.36258e-05,-3.04828e-05,4.59011e-05,5.03129e-05,4.17622e-06,2
-1.65898e-05,1.70014e-05,-3.64176e-06,4.86177e-05,-3.58336e-05,3.01399e-05,4.04161e-05,3.09573e-06,2
-3.02305e-05,1.4576e-05,-8.22588e-06,2.90241e-05,-5.23315e-05,-1.81067e-06,2.11095e-05,-1.14243e-06,2
-3.13155e-05,1.22446e-05,-1.19915e-05,2.32297e-05,-7.64449e-05,-3.95105e-05,-7.24036e-06,-7.06351e-06,2
-2.8073e-05,1.10771e-05,-1.28226e-05,2.66007e-05,-9.46135e-05,-8.16081e-05,-3.84857e-05,-1.02615e-05,2
-2.62646e-05,1.14995e-05,-1.27935e-05,2.27376e-05,-8.65074e-05,-0.000131023,-6.15631e-05,-1.00271e-05,2
-2.68599e-05,1.29713e-05,-1.20771e-05,1.12644e-05,-3.78871e-05,-0.000161063,-6.47373e-05,-1.16411e-05,2
-2.68694e-05,1.22484e-05,-9.3065e-06,2.73197e-06,4.57109e-05,-0.000134044,-5.12303e-05,-1.69924e-05,2
-2.45612e-05,1.04262e-05,-5.16263e-06,4.64852e-06,0.000119446,-6.74615e-05,-3.46183e-05,-2.11216e-05,2
-2.12038e-05,1.12742e-05,-2.22484e-06,1.31714e-05,0.000132613,-1.79939e-05,-2.06637e-05,-2.28603e-05,2
-1.87216e-05,1.30145e-05,-1.10154e-06,2.10711e-05,9.59523e-05,-8.91127e-07,-7.80351e-06,-2.28048e-05,2
-1.82765e-05,1.42518e-05,-2.0267e-06,2.50146e-05,4.89982e-05,3.24299e-06,8.29316e-06,-2.28194e-05,2
-2.22668e-05,1.2999e-05,-6.4218e-06,2.85789e-05,2.07497e-05,6.93303e-06,2.31297e-05,-2.37895e-05,2
-3.10767e-05,8.49528e-06,-1.17326e-05,3.21543e-05,2.35726e-05,8.51885e-06,2.88097e-05,-2.27081e-05,2
-3.80031e-05,4.51598e-06,-1.36119e-05,3.01691e-05,4.46921e-05,7.27712e-06,2.78583e-05,-1.94481e-05,2
-3.9289e-05,5.46206e-06,-9.98463e-06,2.27927e-05,5.96873e-05,2.45665e-06,2.55315e-05,-1.72207e-05,2
-3.69716e-05,1.11034e-05,-5.03279e-06,1.36178e-05,5.02955e-05,-4.87719e-06,2.4041e-05,-1.59731e-05,2
-3.52812e-05,1.1798e-05,-4.52056e-06,6.75084e-06,2.93927e-05,-9.44131e-06,2.39327e-05,-1.50884e-05,2
-3.73754e-05,5.12395e-06,-7.01207e-06,1.78978e-06,1.33037e-06,-1.04812e-05,1.60461e-05,-1.46769e-05,2
-4.22104e-05,-4.03001e-06,-7.83511e-06,-5.56512e-07,-1.86446e-05,-5.41195e-06,-5.80407e-06,-1.13772e-05,2
-4.619e-05,-1.08847e-05,-6.38229e-06,-3.16351e-06,-1.15641e-05,7.49978e-06,-2.22072e-05,-7.12969e-06,2
-4.62747e-05,-1.26388e-05,-4.74907e-06,-6.21757e-06,1.79251e-05,2.23043e-05,-1.69869e-05,-5.02475e-06,2
-4.40812e-05,-1.18725e-05,-4.73291e-06,-7.03008e-06,5.15553e-05,3.0427e-05,3.69271e-06,-4.33377e-06,2
-4.08831e-05,-1.09043e-05,-7.85178e-06,-5.33212e-06,7.29414e-05,3.3488e-05,2.97972e-05,-4.22828e-06,2
-3.32396e-05,-1.23822e-05,-1.19693e-05,-5.59418e-06,8.33338e-05,3.61378e-05,5.37583e-05,-4.16402e-06,2
-1.97977e-05,-1.69214e-05,-1.45012e-05,-8.61659e-06,7.86911e-05,3.61076e-05,6.72589e-05,-3.04293e-06,2
-6.15392e-06,-2.09618e-05,-1.52443e-05,-1.27971e-05,4.51703e-05,2.88984e-05,7.14901e-05,6.01332e-07,2
3.42637e-06,-2.14249e-05,-1.28525e-05,-1.75285e-05,-1.62165e-05,2.37499e-05,7.37383e-05,4.9356e-06,2
5.66406e-06,-2.08057e-05,-6.42446e-06,-1.9826e-05,-6.74241e-05,4.15008e-05,7.35124e-05,8.20391e-06,2
-5.18636e-06,-2.34064e-05,1.51566e-07,-1.87399e-05,-7.98241e-05,8.94188e-05,6.50544e-05,1.04887e-05,2
-3.17869e-05,-3.03329e-05,2.48864e-06,-1.98114e-05,-5.77679e-05,0.000147754,4.61824e-05,1.24749e-05,2
-6.783e-05,-3.57669e-05,7.05805e-07,-2.67927e-05,-2.01103e-05,0.000194385,2.28287e-05,1.26627e-05,2
-9.98986e-05,-3.03958e-05,-3.51645e-06,-3.58165e-05,1.91417e-05,0.000218977,5.88955e-06,1.0979e-05,2
-0.000118976,-1.4174e-05,-7.08226e-06,-4.23117e-05,4.58821e-05,0.00021592,2.44478e-07,1.04143e-05,2
-0.000127188,2.82754e-06,-5.4774e-06,-4.34374e-05,4.41615e-05,0.00019627,4.25523e-07,1.20314e-05,2
-0.000126703,1.49329e-05,1.93243e-06,-3.97407e-05,1.67767e-05,0.000177538,1.2437e-06,1.39874e-05,2
-0.000122405,2.34124e-05,1.0973e-05,-2.50549e-05,-9.56907e-06,0.000166671,-1.22719e-06,1.48773e-05,2
-0.000116079,3.75518e-05,1.89167e-05,5.05429e-07,-5.6342e-07,0.000160405,-2.19429e-06,1.57334e-05,2
-0.000110678,5.60614e-05,2.37749e-05,1.73966e-05,4.73441e-05,0.000146436,7.45149e-06,1.76128e-05,2
-0.000126245,6.51165e-05,2.05035e-05,1.42034e-05,7.84371e-05,0.000116567,2.01345e-05,1.67597e-05,2
-0.000169373,6.42295e-05,8.3905e-06,7.41609e-07,8.41759e-05,5.59858e-05,2.31088e-05,1.32909e-05,2
-0.000219774,4.82066e-05,-8.16954e-06,-1.1221e-05,9.8767e-05,-4.40461e-05,1.83975e-05,1.29506e-05,2
-0.000251428,2.34074e-05,-2.31522e-05,-2.39657e-05,0.000112214,-0.000158502,1.36735e-05,1.37979e-05,2
-0.000245486,1.89181e-05,-2.92988e-05,-3.82128e-05,0.000120183,-0.000278154,7.7713e-06,1.15542e-05,2
-0.000169888,4.24091e-05,-2.56052e-05,-4.55052e-05,0.00010277,-0.000403232,-3.12721e-07,6.11277e-06,2
-3.4983e-06,7.99261e-05,-1.63456e-05,-4.20498e-05,4.8732e-05,-0.000493185,-4.44633e-06,2.93241e-07,2
0.000197086,0.000113549,-7.74771e-06,-3.0505e-05,-2.00765e-05,-0.000472752,-1.10968e-05,-2.36372e-06,2
0.000328015,0.000130629,-2.01824e-06,-1.76385e-05,-6.98728e-05,-0.000317493,-2.20169e-05,-3.48375e-06,2
0.000342876,0.000127084,1.20191e-06,-8.62692e-06,-8.91143e-05,-0.000120563,-2.59829e-05,-5.97887e-06,2
0.000283155,0.000108872,1.51532e-06,-4.21946e-06,-9.79175e-05,6.88205e-06,-1.17927e-05,-9.70486e-06,2
0.000211153,8.96759e-05,-4.44753e-07,-1.31756e-06,-0.000118948,2.24677e-05,1.92314e-05,-1.27641e-05,2
0.000157756,7.78732e-05,-2.09971e-06,4.52997e-06,-0.000154046,-3.93186e-05,4.29133e-05,-1.43308e-05,2
0.000118867,6.94857e-05,-2.95354e-06,1.00964e-05,-0.000182129,-0.000120299,3.53762e-05,-1.50842e-05,2
8.19858e-05,5.72042e-05,-6.10817e-06,5.27083e-06,-0.00017582,-0.000195593,8.67841e-07,-1.53727e-05,2
4.95262e-05,4.22475e-05,-1.12299e-05,-1.13658e-05,-0.000113819,-0.000245904,-3.37507e-05,-1.52851e-05,2
2.89257e-05,2.8571e-05,-1.57375e-05,-3.31651e-05,-6.32255e-06,-0.000235837,-5.22848e-05,-1.41374e-05,2
1.93915e-05,1.86506e-05,-1.72998e-05,-4.86343e-05,9.94888e-05,-0.00017057,-5.29894e-05,-1.29505e-05,2
1.73657e-05,1.39378e-05,-1.59244e-05,-4.40146e-05,0.000145004,-0.000122729,-3.97474e-05,-1.21833e-05,2
1.92976e-05,1.47429e-05,-1.27479e-05,-1.57947e-05,0.000121985,-0.000133433,-1.90128e-05,-9.88028e-06,2
1.83521e-05,1.6523e-05,-9.71072e-06,1.72353e-05,7.08137e-05,-0.000151319,5.53859e-07,-5.97472e-06,2
1.57909e-05,1.55753e-05,-8.27842e-06,2.894e-05,3.47652e-05,-0.000112101,1.43035e-05,-3.31467e-06,2
1.62558e-05,1.31874e-05,-9.94663e-06,2.10609e-05,2.72292e-05,-3.76156e-05,2.099e-05,-1.3622e-06,2
6.00054e-06,1.05599e-05,-1.2863e-05,1.30364e-05,3.69016e-05,1.15952e-05,2.0869e-05,1.02859e-06,2
-2.65658e-05,2.45141e-06,-1.38056e-05,1.16916e-05,4.69094e-05,2.77029e-05,1.53524e-05,2.11782e-06,2
-6.76469e-05,-1.23348e-05,-1.25426e-05,1.50606e-05,4.84219e-05,3.88516e-05,8.34529e-06,2.67967e-06,2
-0.000101023,-2.3833e-05,-1.01084e-05,2.4532e-05,3.46981e-05,5.51375e-05,4.35299e-06,4.62784e-06,2
-0.000117242,-2.91324e-05,-1.10507e-05,3.90465e-05,9.14002e-06,6.99008e-05,5.90316e-06,6.11914e-06,2
-0.000129146,-3.45373e-05,-1.27047e-05,4.32664e-05,-1.28438e-05,8.54731e-05,1.48278e-05,6.7372e-06,2
-0.000147617,-3.64076e-05,-9.27043e-06,2.71514e-05,-2.96032e-05,9.85778e-05,2.97973e-05,8.16714e-06,2
-0.000156295,-2.96977e-05,-2.61825e-06,1.33004e-06,-4.19217e-05,0.000103484,4.335e-05,1.00854e-05,2
-0.000147694,-2.45532e-05,2.89933e-06,-2.12403e-05,-4.17572e-05,0.000107921,4.89988e-05,9.22905e-06,2
-0.000115946,-2.59534e-05,4.61836e-06,-2.70005e-05,-1.56689e-05,0.000114623,4.61447e-05,5.14348e-06,2
-6.32192e-05,-2.65731e-05,5.27878e-06,-1.66913e-05,3.5965e-05,0.000123168,3.47189e-05,1.02652e-06,2
-1.66568e-05,-2.54503e-05,6.73964e-06,-6.18486e-06,8.67204e-05,0.000129187,1.67994e-05,-1.81022e-06,2
-7.19506e-06,-3.05494e-05,5.78484e-06,6.52365e-07,0.000112543,0.000126886,-1.23606e-06,-2.68303e-06,2
-3.42253e-05,-4.00133e-05,-9.50616e-07,3.64574e-06,0.000115736,0.000104742,-1.26765e-05,-2.53133e-06,2
-6.49226e-05,-4.1507e-05,-1.08556e-05,1.51509e-06,0.000102118,4.94091e-05,-1.57344e-05,-2.15267e-06,2
-7.01798e-05,-2.79321e-05,-2.05561e-05,-2.72949e-06,6.2497e-05,-3.15343e-05,-8.59577e-06,-3.79364e-06,2
-5.05448e-05,-5.10568e-06,-2.78055e-05,-2.92485e-06,2.63516e-06,-0.000108965,3.53814e-06,-7.18763e-06,2
-2.04421e-05,1.80312e-05,-2.97965e-05,6.66344e-06,-4.42373e-05,-0.000142355,1.46814e-05,-9.12648e-06,2
6.9324e-06,3.60906e-05,-2.59769e-05,2.22671e-05,-5.74692e-05,-0.000107274,2.81941e-05,-8.68086e-06,2
1.57721e-05,4.27573e-05,-1.95396e-05,2.99207e-05,-4.75194e-05,-2.47502e-05,4.67131e-05,-7.55893e-06,2
4.48947e-06,3.76316e-05,-1.5045e-05,2.06516e-05,-3.46818e-05,4.99842e-05,6.0858e-05,-6.98277e-06,2
-1.24807e-05,2.82879e-05,-1.21266e-05,4.54832e-06,-2.38485e-05,8.63191e-05,6.02324e-05,-7.35888e-06,2
-2.24025e-05,2.15765e-05,-9.43382e-06,-5.01716e-06,-2.55006e-06,9.42199e-05,4.75062e-05,-8.54295e-06,2
-2.65189e-05,1.84333e-05,-8.27507e-06,-5.18143e-06,3.79933e-05,8.73023e-05,3.1217e-05,-8.98644e-06,2
-3.07162e-05,1.68337e-05,-1.04872e-05,-2.03215e-06,7.71657e-05,5.94815e-05,1.6016e-05,-7.86725e-06,2
-3.68523e-05,1.39206e-05,-1.31422e-05,-4.04251e-06,8.81354e-05,2.33314e-06,2.29124e-06,-5.65724e-06,2
-4.10559e-05,8.56312e-06,-1.4221e-05,-1.20139e-05,7.58887e-05,-7.42045e-05,-8.18727e-06,-4.94148e-06,2
-4.13161e-05,4.2294e-07,-1.5063e-05,-1.64986e-05,6.06833e-05,-0.000122567,-1.51267e-05,-4.72915e-06,2
-4.09236e-05,-6.60538e-06,-1.31069e-05,-8.99244e-06,4.65637e-05,-9.58719e-05,-1.75116e-05,-1.10365e-06,2
-4.0529e-05,-7.85564e-06,-8.16315e-06,4.59898e-06,1.86032e-05,-2.90215e-05,-1.28113e-05,3.8444e-06,2
-3.43591e-05,-6.38044e-06,-4.48806e-06,1.05992e-05,-3.15797e-05,9.40143e-06,-3.81399e-06,4.75552e-06,2
-2.29762e-05,-7.12845e-06,-3.43991e-06,5.78251e-06,-7.59234e-05,1.40239e-05,2.65684e-06,2.77441e-06,2
-1.47294e-05,-9.23198e-06,-4.74818e-06,-2.54453e-06,-0.000100603,2.1292e-05,9.73071e-06,4.40732e-06,2
-1.48626e-05,-7.95016e-06,-6.50073e-06,-8.59241e-06,-0.000117216,4.07618e-05,2.00972e-05,8.80237e-06,2
-1.76451e-05,-5.39975e-06,-7.67592e-06,-1.34724e-05,-0.000113782,5.85811e-05,2.88371e-05,1.15727e-05,2
-1.96488e-05,-7.4855e-06,-8.47841e-06,-1.69957e-05,-7.17337e-05,7.09207e-05,3.46334e-05,1.20659e-05,2
-2.25471e-05,-1.17277e-05,-9.72308e-06,-1.38687e-05,5.09977e-06,7.95039e-05,3.74047e-05,1.0003e-05,2
-2.96922e-05,-1.24453e-05,-1.1747e-05,-8.92723e-06,7.50669e-05,8.19915e-05,3.72788e-05,9.55905e-06,2
-5.4305e-05,-9.33042e-06,-1.16931e-05,-9.49285e-06,0.000112771,7.76424e-05,3.35394e-05,1.13619e-05,2
-9.26189e-05,-1.26942e-06,-6.59277e-06,-1.24264e-05,0.000127791,7.35712e-05,3.37139e-05,1.20911e-05,2
-0.000119992,1.08302e-05,2.68852e-06,-9.1947e-06,0.000130962,6.55685e-05,3.95291e-05,1.25858e-05,2
-0.000116727,2.51377e-05,1.20527e-05,1.1477e-06,0.000114156,5.33971e-05,4.24518e-05,1.39476e-05,2
-9.19957e-05,3.61984e-05,1.57019e-05,8.77597e-06,7.24137e-05,4.88548e-05,4.35253e-05,1.33845e-05,2
-6.76522e-05,3.70124e-05,1.16533e-05,6.27396e-06,2.83752e-05,5.97188e-05,4.83726e-05,1.04228e-05,2
-5.33139e-05,3.19691e-05,5.09731e-06,-3.13173e-06,4.00932e-06,7.7071e-05,5.20358e-05,8.18305e-06,2
-4.63723e-05,3.27441e-05,1.42689e-06,-1.01329e-05,-2.52544e-06,7.26601e-05,4.596e-05,8.11068e-06,2
-4.17552e-05,4.11261e-05,4.40366e-08,-1.23126e-05,-7.10364e-06,2.70988e-05,3.1196e-05,9.4444e-06,2
-3.62079e-05,4.48707e-05,-5.24202e-06,-1.62277e-05,-6.38104e-06,-5.31875e-05,1.60512e-05,1.1101e-05,2
-2.63918e-05,3.87266e-05,-1.53207e-05,-2.44297e-05,1.83643e-05,-0.00013908,1.18278e-05,1.21697e-05,2
-1.39598e-05,3.0997e-05,-2.36978e-05,-2.9862e-05,6.50329e-05,-0.000202295,1.96026e-05,1.02537e-05,2
-4.6972e-06,2.86432e-05,-2.48689e-05,-2.74722e-05,9.21547e-05,-0.000229435,2.92421e-05,6.34549e-06,2
-3.28115e-06,2.88045e-05,-2.24018e-05,-1.92505e-05,7.60819e-05,-0.000220328,3.0002e-05,4.21713e-06,2
-8.95282e-06,2.72213e-05,-2.21691e-05,-9.96964e-06,4.47869e-05,-0.000176573,2.06767e-05,4.07409e-06,2
-1.55227e-05,2.13912e-05,-2.43851e-05,-1.02081e-06,2.53668e-05,-0.00011106,4.44912e-06,2.39241e-06,2
-1.78179e-05,1.40157e-05,-2.45587e-05,6.27263e-06,1.03017e-05,-4.38087e-05,-1.84121e-05,-5.88925e-07,2
-1.99694e-05,9.31505e-06,-2.09478e-05,8.01035e-06,-1.20999e-05,6.99757e-07,-4.12316e-05,-3.67998e-06,2
-2.68261e-05,6.18313e-06,-1.69778e-05,3.77751e-06,-3.72694e-05,1.09971e-05,-4.94369e-05,-6.092e-06,2
-3.89454e-05,4.80726e-06,-1.40039e-05,-5.237e-06,-4.71212e-05,3.52128e-06,-3.74697e-05,-5.76101e-06,2
-5.18009e-05,6.4913e-06,-1.13308e-05,-1.24333e-05,-2.3754e-05,-2.2513e-06,-2.22773e-05,-2.72901e-06,2
-6.06276e-05,8.77025e-06,-6.62857e-06,-1.51099e-05,1.15383e-05,-1.7837e-06,-1.79105e-05,1.60285e-07,2
-6.75877e-05,6.83099e-06,-2.14048e-06,-1.45952e-05,2.3909e-05,2.03017e-06,-2.29984e-05,-1.43815e-07,2
-7.25298e-05,8.05055e-07,-2.02384e-06,-1.9508e-06,1.5834e-05,2.32854e-06,-3.20814e-05,-1.37998e-06,2
-7.38469e-05,-5.75061e-06,-4.16206e-06,2.00712e-05,6.62717e-06,-4.7418e-06,-3.52648e-05,-1.8055e-06,2
-7.75414e-05,-1.38855e-05,-6.88489e-06,2.81797e-05,2.70668e-06,-1.25841e-05,-2.82556e-05,-1.55386e-06,2
-8.52315e-05,-2.38741e-05,-9.35033e-06,1.29669e-05,-2.62752e-06,-1.69389e-05,-1.55526e-05,9.63275e-07,2
-9.47607e-05,-3.27219e-05,-1.23025e-05,-9.6346e-06,-1.09027e-05,-1.51148e-05,-6.16494e-06,3.65363e-06,2
-0.000107403,-3.87289e-05,-1.54748e-05,-2.51772e-05,-1.72742e-05,-7.84481e-06,2.74549e-06,4.81832e-06,2
-0.000125246,-4.06623e-05,-1.5891e-05,-3.0822e-05,-1.48491e-05,6.48526e-06,1.40943e-05,5.65178e-06,2
-0.000149668,-3.70104e-05,-1.4718e-05,-3.17671e-05,-6.29739e-06,2.95214e-05,2.19985e-05,7.35727e-06,2
-0.000166871,-2.719e-05,-1.30006e-05,-3.11863e-05,-4.06682e-06,6.33269e-05,2.60244e-05,9.34447e-06,2
-0.000153586,-1.28372e-05,-1.07942e-05,-2.78837e-05,-8.57192e-06,0.000102682,2.9461e-05,1.00745e-05,2
-0.000107204,5.34239e-06,-7.0215e-06,-2.30617e-05,-6.36219e-06,0.000138283,3.68217e-05,9.53496e-06,2
-5.22708e-05,2.85109e-05,-4.80329e-07,-1.85792e-05,1.24376e-05,0.000169143,4.98895e-05,7.92354e-06,2
-2.18924e-06,5.16715e-05,7.19869e-06,-1.09712e-05,4.06342e-05,0.000196159,6.25946e-05,5.70071e-06,2
5.69522e-05,6.49617e-05,1.1881e-05,5.84796e-06,6.3272e-05,0.000212111,6.24932e-05,4.16582e-06,2
0.000128704,6.73695e-05,1.22976e-05,2.07511e-05,6.89397e-05,0.000209161,4.64912e-05,2.59326e-06,2
0.000184876,6.3633e-05,1.19864e-05,1.56797e-05,5.96796e-05,0.000186991,2.31983e-05,-6.29593e-07,2
0.000198923,5.45847e-05,1.01332e-05,-5.49256e-06,4.07128e-05,0.000140459,2.22177e-06,-1.48286e-06,2
0.000171922,4.38947e-05,1.94567e-06,-2.14727e-05,1.67102e-05,5.42189e-05,-1.30738e-05,1.60126e-06,2
0.000123725,4.27394e-05,-8.35256e-06,-2.05252e-05,-8.25005e-06,-8.49447e-05,-2.04699e-05,3.52118e-06,2
7.48212e-05,5.28158e-05,-1.2639e-05,-9.03609e-06,-2.98149e-05,-0.000241499,-2.26556e-05,2.35547e-06,2
3.64278e-05,6.17182e-05,-1.03674e-05,3.65644e-06,-4.55317e-05,-0.000334958,-2.11602e-05,-1.20556e-07,2
1.28483e-05,5.9811e-05,-6.54891e-06,1.26449e-05,-5.25903e-05,-0.000328643,-1.5865e-05,-3.66343e-06,2
2.22789e-06,5.09182e-05,-5.93664e-06,8.86134e-06,-4.31406e-05,-0.000262957,-9.00602e-06,-6.85056e-06,2
1.52667e-06,4.10875e-05,-5.44832e-06,-7.33173e-06,-2.13037e-05,-0.000183727,-4.44782e-06,-7.62195e-06,2
1.32085e-06,2.89032e-05,-3.68872e-06,-2.35303e-05,-4.96056e-06,-0.000130664,-5.47916e-06,-4.47134e-06,2
-3.81499e-06,1.76255e-05,-2.06216e-06,-3.20855e-05,1.99813e-06,-0.000122667,-7.52842e-06,-2.99775e-07,2
-1.01549e-05,1.15186e-05,7.32112e-08,-2.8643e-05,8.23018e-06,-0.000127659,-2.03513e-06,3.42698e-06,2
-1.50201e-05,8.42148e-06,1.07747e-06,-1.2232e-05,1.64884e-05,-0.00011097,1.09642e-05,7.95853e-06,2
-1.7946e-05,5.68627e-06,9.31905e-07,1.73213e-05,2.33449e-05,-6.76449e-05,2.00427e-05,9.02317e-06,2
-1.93853e-05,1.5394e-06,-6.61556e-07,4.23972e-05,2.36619e-05,-2.70826e-05,2.13671e-05,7.08369e-06,2
-1.97007e-05,-4.07356e-06,-6.12983e-06,4.24723e-05,1.17731e-05,-8.82816e-06,1.80233e-05,4.89323e-06,2
-2.29427e-05,-8.88505e-06,-1.41297e-05,2.38252e-05,-1.89631e-05,-7.98003e-06,1.34885e-05,4.52689e-06,2
-3.09402e-05,-1.11972e-05,-1.84451e-05,1.63235e-06,-5.52778e-05,-7.44354e-06,1.13141e-05,5.86327e-06,2
-4.12447e-05,-1.15644e-05,-1.52774e-05,-1.1657e-05,-6.92977e-05,4.12323e-06,1.15378e-05,5.5026e-06,2
-4.85931e-05,-1.02944e-05,-7.58938e-06,-1.47277e-05,-5.00927e-05,2.5597e-05,1.25643e-05,1.90627e-06,2
-5.2079e-05,-5.5964e-06,-1.29778e-07,-1.43018e-05,-1.61566e-05,4.80273e-05,1.73765e-05,-3.24139e-06,2
-5.67933e-05,2.90845e-06,5.06994e-06,-1.6102e-05,1.17302e-05,6.13159e-05,2.47222e-05,-6.99478e-06,2
-6.40137e-05,1.18765e-05,8.63584e-06,-1.39408e-05,4.13591e-05,6.2778e-05,3.00854e-05,-7.41548e-06,2
-6.31497e-05,1.72477e-05,1.18138e-05,-2.0712e-06,8.25384e-05,5.49822e-05,3.88343e-05,-5.44052e-06,2
-4.83283e-05,1.73532e-05,1.31102e-05,7.81157e-06,0.000117862,4.77443e-05,5.29266e-05,-4.87345e-06,2
-3.73665e-05,9.88714e-06,1.0883e-05,3.50477e-06,0.000126661,4.57252e-05,6.31881e-05,-5.53293e-06,2
-4.91441e-05,-4.14849e-06,5.01202e-06,-7.82847e-06,0.000111452,4.19153e-05,6.30704e-05,-5.69762e-06,2
-7.78668e-05,-1.79347e-05,-3.76089e-06,-8.19712e-06,8.79169e-05,1.2045e-05,5.54602e-05,-5.19862e-06,2
-0.000105682,-2.6797e-05,-1.15723e-05,4.7637e-06,6.41605e-05,-5.57613e-05,4.34293e-05,-4.11212e-06,2
-0.000124834,-3.24715e-05,-1.62065e-05,1.56407e-05,3.728e-05,-0.000130444,2.83616e-05,-3.42992e-06,2
-0.000137863,-3.82334e-05,-2.00463e-05,1.19523e-05,5.80737e-06,-0.000144383,1.52725e-05,-4.53219e-06,2
-0.000150698,-4.29026e-05,-2.27809e-05,1.4372e-06,-2.36597e-05,-7.5355e-05,7.36313e-06,-5.3173e-06,2
-0.00015991,-4.11912e-05,-2.43176e-05,-9.28871e-06,-4.26766e-05,1.08347e-05,2.35273e-06,-3.68337e-06,2
-0.000150828,-2.80458e-05,-2.71235e-05,-1.68416e-05,-5.20713e-05,6.1799e-05,-3.03331e-06,-1.06587e-06,2
-0.000111802,-7.44653e-06,-2.7406e-05,-6.51017e-06,-5.54425e-05,9.42383e-05,-9.27072e-06,-6.52162e-07,2
-3.80357e-05,1.25953e-05,-2.09809e-05,2.10877e-05,-4.18041e-05,0.000135718,-1.27406e-05,-4.27132e-06,2
3.08736e-05,2.07923e-05,-1.41604e-05,3.02191e-05,-3.07629e-06,0.000177102,-9.74333e-06,-8.23959e-06,2
6.04383e-05,1.87934e-05,-1.18514e-05,1.50648e-05,6.49394e-05,0.000198327,-5.82804e-06,-9.19692e-06,2
5.66121e-05,1.94832e-05,-1.05435e-05,5.62543e-06,0.00015174,0.000195989,-9.7954e-06,-7.26087e-06,2
2.58422e-05,2.83335e-05,-7.4602e-06,3.67231e-06,0.000216477,0.000165864,-1.87083e-05,-5.11032e-06,2
-1.46107e-07,4.55421e-05,-2.8497e-06,-7.23628e-07,0.000226399,0.000111456,-2.40806e-05,-4.12728e-06,2
3.69703e-06,5.96579e-05,-6.80897e-07,-1.03874e-05,0.000183399,3.74733e-05,-2.22595e-05,-3.78392e-06,2
2.78877e-05,6.22919e-05,-2.20496e-06,-1.88267e-05,0.000107572,-2.85049e-05,-1.40314e-05,-4.03444e-06,2
3.52385e-05,5.21116e-05,-3.86466e-06,-2.16938e-05,4.67063e-06,-5.62089e-05,-4.28033e-06,-1.08815e-06,2
2.08071e-05,3.62731e-05,-3.6271e-06,-2.06134e-05,-0.000117833,-6.22828e-05,5.05846e-06,3.39463e-06,2
1.23438e-05,3.01193e-05,-2.47563e-06,-1.80906e-05,-0.000223559,-9.25709e-05,1.31498e-05,5.80934e-06,2
2.27509e-05,4.49566e-05,1.56432e-06,-1.60705e-05,-0.000267333,-0.000157335,1.41789e-05,6.33687e-06,2
3.55593e-05,6.89971e-05,9.38816e-06,-1.45416e-05,-0.000222347,-0.000208215,1.29984e-05,4.95123e-06,2
3.29466e-05,7.80925e-05,1.48425e-05,-1.25426e-05,-9.51687e-05,-0.000222323,2.00734e-05,2.08134e-06,2
1.94428e-05,6.83077e-05,1.44994e-05,-9.20797e-06,4.93547e-05,-0.000223387,3.07985e-05,-1.51672e-06,2
3.61135e-06,5.42738e-05,1.2046e-05,-6.15243e-06,0.000126664,-0.000224687,3.56716e-05,-6.06535e-06,2
-7.64365e-06,4.71823e-05,1.14698e-05,-4.39964e-06,0.000128297,-0.000192957,3.36067e-05,-1.20974e-05,2
-1.8623e-05,4.4276e-05,1.18327e-05,-4.58947e-06,0.000109868,-0.000117684,2.8919e-05,-1.72131e-05,2
-3.06066e-05,4.06054e-05,1.01472e-05,-6.08297e-06,9.69457e-05,-4.26325e-05,2.35765e-05,-2.01708e-05,2
-4.32721e-05,3.43036e-05,4.14217e-06,-7.24547e-06,7.5355e-05,-5.52366e-06,1.72179e-05,-2.0158e-05,2
-5.07673e-05,2.58884e-05,-3.27987e-06,-3.85487e-06,4.94461e-05,2.9038e-06,9.80609e-06,-1.73955e-05,2
-5.11811e-05,1.58572e-05,-7.75113e-06,-1.79355e-06,3.74513e-05,2.83282e-06,4.59381e-06,-1.48682e-05,2
-4.29368e-05,8.27838e-06,-8.77547e-06,-9.03297e-06,3.68721e-05,8.54879e-07,3.35669e-06,-1.36016e-05,2
-3.19291e-05,3.00813e-06,-1.00433e-05,-1.8539e-05,3.43147e-05,2.52545e-06,-7.07808e-07,-1.16264e-05,2
-2.67242e-05,-3.72065e-06,-1.23931e-05,-2.21551e-05,2.693e-05,1.02707e-05,-1.67301e-05,-9.51746e-06,2
-2.96548e-05,-9.74133e-06,-1.2794e-05,-2.08454e-05,1.61563e-05,1.50197e-05,-3.93108e-05,-7.04357e-06,2
-3.54381e-05,-1.07918e-05,-1.12357e-05,-1.3651e-05,5.0398e-06,4.75569e-06,-4.85446e-05,-3.47222e-06,2
-3.82041e-05,-8.20881e-06,-9.56225e-06,-3.09291e-06,9.20639e-08,-1.16471e-05,-3.5171e-05,2.11828e-06,2
-3.91338e-05,-7.50422e-06,-1.03509e-05,5.53096e-06,3.08556e-06,-1.44091e-05,-6.51571e-06,6.2154e-06,2
-4.32553e-05,-1.10565e-05,-1.16121e-05,1.30333e-05,3.7467e-06,-5.49537e-06,2.9729e-05,7.13958e-06,2
-4.98405e-05,-1.91131e-05,-1.31031e-05,1.77477e-05,-6.26402e-06,-6.495e-07,5.54836e-05,7.75118e-06,2
-5.28763e-05,-2.64702e-05,-1.43765e-05,1.83452e-05,-1.68411e-05,3.13493e-06,5.78264e-05,8.12873e-06,2
-5.54547e-05,-3.01024e-05,-1.25754e-05,1.36615e-05,-2.21408e-05,1.12579e-05,5.07776e-05,1.06172e-05,2
-5.86041e-05,-3.27297e-05,-8.92266e-06,4.51925e-06,-2.20931e-05,2.71159e-05,4.42264e-05,1.3265e-05,2
-6.19211e-05,-3.41302e-05,-7.57444e-06,-3.68354e-06,-2.09875e-05,4.84689e-05,3.70721e-05,1.30381e-05,2
-6.55219e-05,-3.26169e-05,-8.91826e-06,-7.1194e-06,-1.90183e-05,7.37086e-05,2.9363e-05,1.06812e-05,2
-6.8349e-05,-2.38168e-05,-7.16214e-06,-7.69355e-06,-8.12225e-06,0.000101691,3.18493e-05,8.59276e-06,2
-7.32719e-05,-1.17892e-05,-2.5038e-06,-8.44831e-06,5.08821e-06,0.00012715,4.1021e-05,7.36323e-06,2
-7.69311e-05,-8.25839e-07,1.01478e-06,-9.61937e-06,7.28845e-06,0.000142298,4.29607e-05,6.29343e-06,2
-6.3893e-05,1.24388e-05,2.46678e-06,-1.01989e-05,-2.62861e-06,0.000138314,3.99181e-05,5.25643e-06,2
-3.59269e-05,2.659e-05,4.57866e-06,-6.56188e-06,-1.49804e-05,0.000119505,3.96297e-05,4.33757e-06,2
-1.82987e-05,3.02165e-05,6.5431e-06,-5.35648e-07,-2.6514e-05,0.000101212,3.85706e-05,4.53747e-06,2
-3.12866e-05,1.62839e-05,2.04444e-06,-3.04182e-06,-3.4788e-05,9.34793e-05,3.30177e-05,5.66128e-06,2
-6.32707e-05,-1.97443e-06,-1.11344e-05,-1.83451e-05,-2.83578e-05,9.01859e-05,3.0163e-05,5.79828e-06,2
-8.96771e-05,-1.01112e-05,-2.54392e-05,-3.46802e-05,-3.10924e-06,7.28898e-05,3.02532e-05,4.75898e-06,2
-0.000102048,-7.17494e-06,-3.13554e-05,-3.97416e-05,2.55829e-05,2.54191e-05,2.93639e-05,4.23445e-06,2
-0.00010353,1.89496e-06,-2.83126e-05,-3.56365e-05,4.65697e-05,-4.47587e-05,2.7919e-05,5.90331e-06,2
-9.24098e-05,1.70382e-05,-2.07826e-05,-2.90101e-05,6.37529e-05,-0.00010922,2.94818e-05,8.60951e-06,2
-7.28754e-05,3.64968e-05,-1.22835e-05,-2.10333e-05,7.41076e-05,-0.000137919,3.34522e-05,9.9589e-06,2
-5.38263e-05,5.5984e-05,-5.95957e-06,-1.12481e-05,6.23914e-05,-0.000122619,3.96669e-05,1.06025e-05,2
-3.15016e-05,7.14634e-05,-2.57034e-06,-7.0727e-07,2.57435e-05,-8.22411e-05,4.75439e-05,1.06049e-05,2
3.68964e-06,8.05875e-05,-1.21023e-07,8.06033e-06,-9.67527e-06,-3.17773e-05,4.94858e-05,8.74469e-06,2
5.12492e-05,8.06822e-05,5.70355e-07,1.12437e-05,-1.63763e-05,1.91964e-05,3.84186e-05,6.98507e-06,2
8.4317e-05,6.97596e-05,-3.41239e-06,8.42473e-06,5.81726e-06,5.83398e-05,2.4413e-05,8.57962e-06,2
7.6398e-05,4.57814e-05,-1.20681e-05,1.71732e-06,3.82202e-05,7.62541e-05,1.4266e-05,9.70269e-06,2
4.29474e-05,1.8471e-05,-2.14218e-05,-3.2888e-06,5.51325e-05,4.64868e-05,6.64941e-06,9.19384e-06,2
1.6338e-05,6.47423e-06,-2.63425e-05,-1.41152e-06,4.17355e-05,-4.18885e-05,-2.06658e-06,9.65397e-06,2
6.76208e-06,1.17353e-05,-2.57063e-05,3.1204e-06,-6.98299e-06,-0.000157195,-1.48903e-05,9.64268e-06,2
3.45241e-06,2.0848e-05,-2.42652e-05,1.91224e-06,-6.16557e-05,-0.000245765,-2.48712e-05,9.05988e-06,2
-1.56409e-06,2.21773e-05,-2.19877e-05,-4.94801e-06,-7.63725e-05,-0.000255219,-2.35925e-05,7.97141e-06,2
-7.26716e-06,1.69489e-05,-1.56209e-05,-1.06318e-05,-5.28527e-05,-0.000182512,-8.63947e-06,5.97551e-06,2
-1.08092e-05,1.08277e-05,-9.0889e-06,-1.30118e-05,-9.29901e-06,-9.11502e-05,2.06411e-07,3.07368e-06,2
-1.12397e-05,9.56878e-06,-8.12951e-06,-1.32134e-05,3.33405e-05,-3.96961e-05,-1.04402e-05,5.67078e-07,2
-1.29435e-05,1.12966e-05,-1.13018e-05,-1.14634e-05,5.96202e-05,-2.61121e-05,-2.71079e-05,-9.0001e-07,2
-1.70846e-05,1.08307e-05,-1.45211e-05,-6.50051e-06,6.29945e-05,-2.68399e-05,-3.61978e-05,-1.64221e-06,2
-2.19935e-05,1.07873e-05,-1.53232e-05,-7.2622e-06,5.0154e-05,-2.65354e-05,-3.49537e-05,-4.35385e-07,2
-2.84293e-05,1.27619e-05,-1.35921e-05,-2.06848e-05,3.42828e-05,-2.58457e-05,-2.39386e-05,1.61097e-06,2
-4.08516e-05,1.23576e-05,-1.23559e-05,-3.75271e-05,2.62757e-05,-3.22325e-05,-9.91641e-06,1.23177e-06,2
-5.7984e-05,7.39894e-06,-1.37719e-05,-4.44167e-05,2.85511e-05,-4.18364e-05,-9.02927e-08,-1.63937e-06,2
-7.20883e-05,6.81803e-07,-1.66749e-05,-3.45019e-05,2.96049e-05,-4.39348e-05,7.57913e-06,-5.19604e-06,2
-7.59632e-05,-5.96573e-06,-1.81534e-05,-1.05194e-05,1.76341e-05,-4.06375e-05,1.49197e-05,-9.51923e-06,2
-7.02076e-05,-1.32896e-05,-1.75019e-05,1.85568e-05,-1.42475e-05,-3.58335e-05,1.66373e-05,-1.40714e-05,2
-6.39489e-05,-1.99998e-05,-1.5035e-05,3.6718e-05,-5.54206e-05,-2.20896e-05,1.133e-05,-1.8404e-05,2
-6.61904e-05,-2.38393e-05,-1.33216e-05,3.21434e-05,-8.66412e-05,2.60945e-06,5.30005e-06,-2.11557e-05,2
-7.54786e-05,-2.3884e-05,-1.44453e-05,1.10121e-05,-9.6731e-05,3.30237e-05,4.2574e-06,-2.20185e-05,2
-8.26674e-05,-1.87061e-05,-1.49492e-05,-2.87561e-06,-9.6405e-05,6.01638e-05,8.56637e-06,-2.26761e-05,2
-7.84114e-05,-1.09933e-05,-9.72815e-06,4.00037e-06,-8.79853e-05,7.79813e-05,1.10309e-05,-2.11561e-05,2
-6.11581e-05,-4.14625e-06,-8.74551e-07,2.0408e-05,-4.05026e-05,9.39454e-05,9.41449e-06,-1.69187e-05,2
-4.04703e-05,2.5167e-06,4.56112e-06,2.93298e-05,6.84096e-05,0.000117613,8.8971e-06,-1.32179e-05,2
-2.21829e-05,7.028e-06,5.11837e-06,2.40309e-05,0.000182011,0.000138899,7.19645e-06,-1.09777e-05,2
-1.01891e-05,5.58852e-06,2.88688e-06,9.08158e-06,0.000225628,0.000152621,6.80936e-07,-8.77223e-06,2
-1.23365e-05,-4.62759e-07,-2.37156e-07,-9.04442e-06,0.000193112,0.000170266,-4.13275e-06,-8.11321e-06,2
-2.56612e-05,-4.91101e-06,-8.53622e-07,-2.11025e-05,0.000130568,0.000180742,-3.85828e-06,-8.31484e-06,2
-3.38824e-05,-3.26775e-06,6.20672e-07,-2.09129e-05,7.79161e-05,0.000162982,-4.71274e-06,-7.26716e-06,2
-2.34148e-05,6.51139e-06,2.36297e-06,-1.01792e-05,3.59132e-05,0.000113252,-1.15617e-05,-5.86649e-06,2
-8.98281e-07,1.65809e-05,6.05198e-06,7.75967e-06,-3.56566e-06,4.18619e-05,-2.0127e-05,-4.16178e-06,2
1.52209e-05,1.80502e-05,1.21931e-05,2.88032e-05,-3.62515e-05,-1.84227e-05,-2.36005e-05,-1.13521e-06,2
2.41171e-05,1.7242e-05,1.84693e-05,3.97073e-05,-3.99913e-05,-4.4142e-05,-2.18267e-05,1.93518e-06,2
3.30003e-05,2.40625e-05,2.08707e-05,3.09856e-05,-6.53953e-06,-5.56133e-05,-1.58844e-05,4.32328e-06,2
3.76059e-05,3.64949e-05,2.12825e-05,1.24954e-05,2.25438e-05,-7.93867e-05,-6.33598e-06,6.38465e-06,2
2.60856e-05,4.13399e-05,2.22069e-05,-4.89621e-06,1.65656e-05,-9.29825e-05,8.21144e-06,5.93606e-06,2
-1.23274e-06,3.90977e-05,2.0038e-05,-1.43408e-05,1.53544e-05,-8.07332e-05,2.40323e-05,5.16096e-06,2
-2.82225e-05,3.87521e-05,1.3335e-05,-1.71705e-05,4.6742e-05,-6.25881e-05,3.35808e-05,5.48513e-06,2
-3.82088e-05,4.2315e-05,3.89604e-06,-1.85043e-05,8.34607e-05,-4.73814e-05,4.11231e-05,5.67794e-06,2
-2.67586e-05,4.59251e-05,-5.64246e-06,-2.2536e-05,9.04446e-05,-3.14422e-05,5.07088e-05,5.16712e-06,2
-5.47014e-06,4.68491e-05,-1.51052e-05,-2.8863e-05,6.8258e-05,-2.55268e-05,5.58202e-05,4.15844e-06,2
9.0731e-06,4.36498e-05,-2.49628e-05,-2.8246e-05,4.53108e-05,-4.27663e-05,5.28179e-05,3.8195e-06,2
6.65167e-06,3.37698e-05,-3.13212e-05,-1.62859e-05,3.92311e-05,-6.50983e-05,4.65173e-05,4.23909e-06,2
-9.73886e-06,2.11762e-05,-3.05514e-05,-4.42591e-07,4.35502e-05,-7.04118e-05,3.82831e-05,5.44816e-06,2
-2.77853e-05,1.32182e-05,-2.41146e-05,9.54671e-06,4.21701e-05,-6.55599e-05,2.76155e-05,5.72328e-06,2
-3.82322e-05,1.15141e-05,-1.6959e-05,1.13706e-05,3.02694e-05,-7.04301e-05,1.82482e-05,5.06602e-06,2
-4.05898e-05,1.15453e-05,-1.2926e-05,4.86315e-06,1.10421e-05,-8.71486e-05,1.23887e-05,4.21586e-06,2
-3.72612e-05,1.28692e-05,-1.24448e-05,-2.78383e-06,-1.04394e-05,-0.000113041,7.53704e-06,2.83658e-06,2
-3.27692e-05,1.51468e-05,-1.32343e-05,-5.50393e-06,-2.88683e-05,-0.000136976,2.34144e-06,2.12564e-06,2
-3.32119e-05,1.68333e-05,-1.18283e-05,-3.94518e-06,-3.68857e-05,-0.000131983,-1.16135e-06,2.67864e-06,2
-4.11951e-05,1.44861e-05,-8.89586e-06,-9.1224e-07,-3.74631e-05,-8.06152e-05,-3.39608e-06,2.32072e-06,2
-5.70952e-05,5.39046e-06,-8.481e-06,5.96963e-07,-3.49703e-05,-2.01555e-05,-4.17281e-06,1.96219e-06,2
-7.47961e-05,-4.49403e-06,-1.13024e-05,2.36287e-06,-3.48503e-05,-1.87932e-07,8.35915e-07,4.73083e-06,2
-8.67838e-05,-1.02907e-05,-1.59334e-05,6.22201e-07,-4.65256e-05,-1.46137e-05,1.07224e-05,9.27397e-06,2
-9.71357e-05,-1.37352e-05,-1.92369e-05,-1.26403e-05,-6.97127e-05,-2.55851e-05,2.0345e-05,1.28717e-05,2
-0.000106269,-1.50345e-05,-1.91687e-05,-3.49393e-05,-8.94592e-05,-1.22239e-05,2.95545e-05,1.63553e-05,2
-0.000110185,-1.27783e-05,-1.79926e-05,-5.97152e-05,-8.9468e-05,1.11536e-05,3.58706e-05,1.89092e-05,2
-0.000106676,-7.1584e-06,-1.53125e-05,-7.61899e-05,-7.82588e-05,2.44185e-05,3.39578e-05,1.78204e-05,2
-9.47382e-05,-1.48903e-06,-1.07187e-05,-6.69144e-05,-7.3293e-05,2.59028e-05,2.20367e-05,1.40086e-05,2
-7.25737e-05,2.30403e-06,-4.8653e-06,-3.29391e-05,-6.44995e-05,3.10776e-05,1.3884e-05,1.01876e-05,2
-3.58308e-05,4.99069e-06,7.84474e-07,-4.36809e-06,-2.36552e-05,4.40825e-05,1.74084e-05,8.38223e-06,2
8.93945e-06,9.30073e-06,4.77782e-06,4.34779e-06,5.3916e-05,6.1729e-05,2.03235e-05,7.6523e-06,2
4.52112e-05,1.60987e-05,1.03685e-05,1.75697e-05,0.000117224,7.8901e-05,2.36231e-05,6.28738e-06,2
6.18668e-05,1.92151e-05,1.54499e-05,4.48132e-05,0.000108089,8.99406e-05,2.67523e-05,3.3963e-06,2
5.74109e-05,1.19323e-05,1.56608e-05,5.81728e-05,4.89113e-05,9.00656e-05,2.14426e-05,-4.3353e-08,2
3.61703e-05,-3.94908e-06,1.10238e-05,4.36591e-05,1.51526e-05,7.08369e-05,1.22735e-05,-3.01922e-06,2
9.4507e-06,-1.66766e-05,5.00356e-06,2.1851e-05,3.92901e-05,3.25294e-05,8.54454e-06,-4.19502e-06,2
-1.43722e-05,-1.73542e-05,-1.23789e-06,8.83983e-06,7.42349e-05,-6.8695e-06,1.07429e-05,-4.5166e-06,2
-3.02088e-05,-8.02875e-06,-7.73295e-06,1.80223e-06,7.22782e-05,-2.35191e-05,1.69431e-05,-6.79206e-06,2
-3.47893e-05,2.22882e-06,-1.12169e-05,-1.28501e-06,4.61261e-05,-2.28824e-05,2.78578e-05,-1.06095e-05,2
-3.03192e-05,8.26668e-06,-1.03595e-05,1.82547e-06,3.49383e-05,-2.64876e-05,3.85083e-05,-1.25143e-05,2
-2.32512e-05,1.14927e-05,-8.47983e-06,6.48972e-06,4.94713e-05,-3.59549e-05,4.22896e-05,-1.24287e-05,2
-1.77043e-05,1.57895e-05,-8.6087e-06,6.50185e-06,6.81355e-05,-3.4244e-05,3.16903e-05,-1.25602e-05,2
-1.44887e-05,2.0344e-05,-1.02589e-05,1.84909e-06,7.21542e-05,-1.43752e-05,4.49123e-06,-1.15854e-05,2
-1.53029e-05,1.99175e-05,-1.32472e-05,-4.26471e-06,5.85724e-05,9.45174e-06,-2.49211e-05,-1.04372e-05,2
-2.01593e-05,1.48701e-05,-1.54393e-05,-8.97794e-06,3.71869e-05,1.6936e-05,-3.72022e-05,-8.55272e-06,2
-2.90368e-05,9.06124e-06,-1.45553e-05,-7.65206e-06,2.58904e-05,1.52549e-06,-2.64016e-05,-6.35941e-06,2
-4.54069e-05,4.3883e-08,-1.22301e-05,1.09454e-06,3.042e-05,-2.59933e-05,-3.59553e-06,-5.06071e-06,2
-7.16525e-05,-1.24518e-05,-1.35992e-05,1.42856e-05,3.7449e-05,-4.58644e-05,1.06098e-05,-4.6963e-06,2
-0.000102548,-2.23973e-05,-1.7325e-05,1.69795e-05,3.99587e-05,-4.73111e-05,9.07918e-06,-6.62939e-06,2
-0.000132791,-2.63787e-05,-1.74547e-05,1.142e-06,3.03552e-05,-3.69647e-05,3.16958e-06,-9.28106e-06,2
-0.000160449,-2.59413e-05,-1.30406e-05,-1.64125e-05,1.4261e-05,-2.40657e-05,1.27064e-06,-9.1317e-06,2
-0.000189266,-2.4649e-05,-8.75556e-06,-2.69588e-05,4.05036e-06,2.50467e-06,4.7122e-06,-6.29534e-06,2
-0.000210491,-2.23819e-05,-6.63592e-06,-3.43552e-05,-3.45516e-06,5.31841e-05,1.88425e-05,-3.05893e-06,2
-0.000197091,-1.68668e-05,-3.87573e-06,-4.03611e-05,-1.26974e-05,0.000106562,4.26231e-05,-1.50515e-07,2
-0.00013244,-3.26874e-06,6.48162e-07,-3.5435e-05,-2.26911e-05,0.000140435,6.15246e-05,4.85887e-07,2
-2.18961e-05,2.30852e-05,6.8228e-06,-1.60351e-05,-2.71619e-05,0.000156614,6.81684e-05,-1.22877e-06,2
0.000100647,5.55311e-05,1.30969e-05,9.24104e-06,-2.9226e-05,0.000162714,6.46035e-05,-3.35434e-06,2
0.000185232,8.06886e-05,1.64943e-05,2.53764e-05,-4.11973e-05,0.000145976,4.88328e-05,-2.41223e-06,2
0.000204354,9.04224e-05,1.28007e-05,2.39054e-05,-5.59507e-05,9.26103e-05,2.50873e-05,1.59901e-07,2
0.000169794,8.48196e-05,3.29089e-06,1.20926e-05,-5.78054e-05,9.6432e-06,-6.68187e-07,1.40749e-06,2
0.000108558,7.43335e-05,-5.16462e-06,2.24019e-06,-5.81784e-05,-7.16115e-05,-2.70956e-05,2.37102e-06,2
4.7704e-05,6.56223e-05,-1.05553e-05,-1.98854e-08,-7.14792e-05,-0.000136872,-4.73613e-05,2.61309e-06,2
8.25324e-06,5.89047e-05,-1.39078e-05,-1.10527e-06,-8.78207e-05,-0.000205209,-5.43601e-05,2.00226e-06,2
-5.71827e-06,5.3867e-05,-1.4329e-05,-6.2164e-06,-8.94583e-05,-0.000271657,-4.7845e-05,1.9779e-06,2
-4.43948e-06,5.11649e-05,-1.10632e-05,-1.52223e-05,-7.24656e-05,-0.000288024,-3.33206e-05,2.83158e-06,2
-2.88111e-06,4.85113e-05,-7.90266e-06,-2.47737e-05,-3.85871e-05,-0.000229963,-1.70915e-05,2.92313e-06,2
-1.03765e-05,4.09763e-05,-9.75945e-06,-3.39901e-05,1.03994e-05,-0.000144739,-5.15478e-06,1.67282e-06,2
-2.4564e-05,2.87844e-05,-1.40297e-05,-3.90691e-05,6.74242e-05,-9.216e-05,8.80749e-08,7.32025e-08,2
-3.37917e-05,1.33165e-05,-1.59109e-05,-3.57195e-05,0.000123087,-7.87071e-05,3.65213e-07,-3.72396e-07,2
-3.39603e-05,-3.42837e-06,-1.68714e-05,-2.53365e-05,0.000168577,-6.6403e-05,-1.26584e-06,-2.0883e-07,2
-3.27126e-05,-1.47433e-05,-1.83595e-05,-1.65306e-05,0.000190196,-3.39248e-05,-2.78573e-07,1.45582e-06,2
-3.74432e-05,-1.30112e-05,-1.77933e-05,-1.50699e-05,0.000163167,4.84779e-06,7.2953e-06,5.31632e-06,2
-4.3725e-05,-5.4058e-06,-1.45847e-05,-1.58792e-05,8.77951e-05,3.51669e-05,1.71589e-05,9.40018e-06,2
-4.15388e-05,-6.69721e-06,-1.23103e-05,-1.12107e-05,5.92646e-06,6.23488e-05,2.25282e-05,1.2326e-05,2
-3.17123e-05,-1.6404e-05,-1.30402e-05,-6.22467e-07,-5.69551e-05,8.31683e-05,2.42732e-05,1.25949e-05,2
-2.51493e-05,-2.27657e-05,-1.21026e-05,1.04691e-05,-0.000110843,7.9809e-05,2.97343e-05,9.61113e-06,2
-2.48956e-05,-2.26331e-05,-7.22514e-06,1.5743e-05,-0.000153399,4.44626e-05,3.77994e-05,6.73227e-06,2
-2.57586e-05,-2.12905e-05,3.13419e-07,1.30354e-05,-0.000150087,-1.42326e-06,4.05299e-05,7.19098e-06,2
-2.63983e-05,-1.49124e-05,9.39674e-06,6.44842e-06,-8.8796e-05,-1.31738e-05,3.72849e-05,1.0583e-05,2
-2.91187e-05,6.18983e-06,1.79225e-05,9.40425e-07,4.98047e-08,1.16573e-05,2.89742e-05,1.34616e-05,2
-4.08795e-05,3.01251e-05,2.12481e-05,-1.22495e-06,6.61051e-05,2.43179e-05,1.7777e-05,1.44732e-05,2
-6.24022e-05,4.16851e-05,1.97913e-05,-2.19661e-06,7.79531e-05,-2.00575e-06,9.24453e-06,1.43938e-05,2
-7.7802e-05,4.53126e-05,1.86383e-05,-5.23972e-06,5.76151e-05,-4.88828e-05,9.98321e-06,1.43264e-05,2
-7.2153e-05,4.83004e-05,1.72317e-05,-1.27538e-05,2.85381e-05,-8.95611e-05,2.13331e-05,1.50983e-05,2
-4.8777e-05,4.81022e-05,1.27038e-05,-1.97337e-05,1.02546e-05,-0.000106936,3.18343e-05,1.55515e-05,2
-1.71727e-05,4.03953e-05,4.34114e-06,-2.2637e-05,1.12139e-05,-9.82617e-05,3.3263e-05,1.54307e-05,2
1.26171e-05,2.75245e-05,-3.16828e-06,-2.58082e-05,2.71373e-05,-7.3548e-05,2.61337e-05,1.45665e-05,2
2.71745e-05,1.29099e-05,-7.04656e-06,-2.86553e-05,5.52027e-05,-4.57604e-05,1.40152e-05,1.36744e-05,2
2.30749e-05,-2.7302e-06,-1.01898e-05,-2.53873e-05,8.03348e-05,-1.36274e-05,5.65231e-06,1.30482e-05,2
2.5028e-06,-2.0031e-05,-1.53673e-05,-1.83451e-05,8.01519e-05,3.38993e-05,3.64771e-06,1.22386e-05,2
-3.16958e-05,-3.62374e-05,-2.10162e-05,-1.92718e-05,5.02949e-05,9.3763e-05,3.80741e-06,1.18174e-05,2
-6.96206e-05,-4.71376e-05,-2.53405e-05,-2.97847e-05,1.66789e-05,0.000150165,5.0833e-06,1.10641e-05,2
-9.90562e-05,-4.89171e-05,-2.51585e-05,-3.53656e-05,5.1155e-06,0.000184896,7.63685e-06,7.92868e-06,2
-0.000112173,-3.87915e-05,-1.70061e-05,-2.1718e-05,2.48695e-05,0.000192568,7.29583e-06,2.98242e-06,2
-0.000113807,-1.59976e-05,-4.39159e-06,1.14553e-05,6.47652e-05,0.000177829,4.91476e-06,-2.13025e-06,2
-0.000123128,1.1523e-05,5.18748e-06,4.42152e-05,0.000106466,0.000147599,4.8905e-06,-7.1213e-06,2
-0.000154994,3.42409e-05,6.75259e-06,5.23518e-05,0.000129039,0.000112999,6.35702e-06,-1.16148e-05,2
-0.000193497,4.94604e-05,9.9714e-07,3.56217e-05,0.000103756,7.91636e-05,6.48536e-06,-1.45142e-05,2
-0.000196765,5.40789e-05,-7.35037e-06,1.35893e-05,1.75052e-05,3.38578e-05,4.85227e-06,-1.4917e-05,2
-0.000133468,4.8849e-05,-1.16483e-05,-1.63979e-06,-7.32586e-05,-2.50171e-05,1.39578e-06,-1.33589e-05,2
-2.90657e-05,4.37383e-05,-8.5112e-06,-8.15468e-06,-9.81066e-05,-7.11482e-05,-5.40175e-06,-1.2678e-05,2
5.63168e-05,4.55771e-05,-4.41004e-06,-8.38805e-06,-5.32328e-05,-0.000100921,-1.21353e-05,-1.27471e-05,2
8.70047e-05,5.0336e-05,-6.1051e-06,-7.50103e-06,1.37796e-05,-0.000128566,-1.05843e-05,-1.36523e-05,2
6.55257e-05,5.38544e-05,-1.04565e-05,-6.76867e-06,6.28179e-05,-0.000138756,1.07658e-05,-1.38814e-05,2
2.89988e-05,5.71306e-05,-1.12743e-05,-2.03246e-06,8.84012e-05,-0.000146026,4.37333e-05,-1.1924e-05,2
-4.21625e-06,5.40167e-05,-7.08162e-06,3.29036e-06,9.68544e-05,-0.000177629,6.05847e-05,-1.07832e-05,2
-3.93576e-05,3.98113e-05,-2.56595e-06,2.74822e-06,7.96392e-05,-0.000192205,5.4935e-05,-8.67766e-06,2
-6.86606e-05,2.22105e-05,-1.00295e-06,-1.57808e-06,4.3247e-05,-0.000156261,3.59584e-05,-5.15044e-06,2
-8.10282e-05,9.78717e-06,-3.43772e-06,-3.59007e-06,2.923e-05,-0.000114322,1.19228e-05,-2.21794e-06,2
-7.44867e-05,5.00478e-06,-9.45113e-06,4.75072e-07,3.54226e-05,-0.000118982,-9.73496e-06,-1.8523e-06,2
-5.73279e-05,4.17302e-06,-1.65196e-05,6.88113e-06,3.65217e-05,-0.000152418,-2.331e-05,-2.91057e-06,2
-2.80969e-05,5.84852e-06,-1.9908e-05,8.63248e-06,2.10085e-05,-0.000155834,-2.67152e-05,-2.38365e-06,2
2.27192e-05,1.2372e-05,-1.8866e-05,2.22312e-06,-9.19695e-06,-0.00010474,-1.77358e-05,-1.26373e-06,2
8.83207e-05,2.43581e-05,-1.52709e-05,-6.53471e-06,-3.55685e-05,-3.02244e-05,-5.88545e-06,-8.2728e-07,2
0.000130028,3.16319e-05,-1.2654e-05,-1.2373e-05,-4.08659e-05,2.82166e-05,-7.10273e-06,-4.45598e-07,2
0.000113365,2.08225e-05,-1.60122e-05,-1.4865e-05,-3.04431e-05,6.17763e-05,-1.43815e-05,2.22251e-06,2
4.97672e-05,-5.13395e-06,-2.30264e-05,-1.36649e-05,-2.52624e-05,8.54313e-05,-1.41338e-05,5.91403e-06,2
-1.49751e-05,-2.89895e-05,-2.746e-05,-9.70215e-06,-3.30009e-05,0.000103,-6.74722e-06,6.12353e-06,2
-5.23274e-05,-4.18002e-05,-2.57107e-05,-3.48701e-06,-4.87948e-05,0.000110672,3.51015e-06,2.82464e-06,2
-6.88179e-05,-5.00692e-05,-1.97821e-05,3.84146e-06,-6.19554e-05,0.00010943,1.6691e-05,4.69704e-07,2
-7.67895e-05,-5.34318e-05,-1.26905e-05,8.36742e-06,-6.30931e-05,9.54458e-05,2.69705e-05,1.39658e-06,2
