ch1,ch2,ch3,ch4,ch5,ch6,ch7,ch8,class
-4.75252e-06,1.68922e-06,-1.83934e-06,-1.18754e-05,0.000103939,-2.03763e-05,-1.46769e-05,2.95405e-06,2
-1.08634e-05,7.4467e-06,1.38085e-06,-1.35858e-05,8.2073e-05,-3.49812e-05,-1.43226e-05,2.46008e-06,2
-1.49838e-05,1.04209e-05,4.38876e-06,-1.44934e-05,5.44318e-05,-3.65788e-05,-1.17997e-05,2.41162e-06,2
-1.57555e-05,1.32144e-05,4.43734e-06,-1.32238e-05,3.13782e-05,-2.79916e-05,-6.38096e-06,2.26919e-06,2
-1.27447e-05,2.10155e-05,3.29701e-06,-1.03036e-05,1.48076e-05,-1.34739e-05,3.80002e-06,1.76921e-06,2
-8.69005e-06,3.21027e-05,3.3517e-06,-6.54434e-06,3.84654e-06,4.35676e-06,1.4587e-05,1.08972e-06,2
-1.1456e-05,3.74617e-05,3.54939e-06,-2.57135e-06,-2.97351e-06,1.97623e-05,2.39028e-05,-9.64657e-08,2
-2.60371e-05,3.18306e-05,1.41199e-06,1.48071e-06,-4.72958e-06,2.3272e-05,2.94135e-05,-8.76594e-07,2
-4.62916e-05,2.0011e-05,-1.46787e-06,5.01753e-06,-1.0663e-06,1.5634e-05,2.69747e-05,2.0696e-07,2
-6.04409e-05,1.23925e-05,-1.74433e-06,6.98645e-06,6.52883e-06,6.67625e-06,1.85612e-05,1.38869e-06,2
-6.49463e-05,1.57103e-05,1.58063e-06,6.16133e-06,1.59727e-05,2.34044e-06,9.85144e-06,1.1635e-06,2
-6.33087e-05,2.42641e-05,4.20544e-06,3.67267e-06,2.45758e-05,-3.59099e-06,-3.9719e-09,8.16278e-07,2
-5.85508e-05,2.76769e-05,3.41018e-06,9.90064e-07,2.86755e-05,-1.59691e-05,-8.1791e-06,2.85369e-06,2
-5.1726e-05,2.51521e-05,7.37074e-07,-5.77869e-07,2.91079e-05,-2.91169e-05,-9.51522e-06,5.0162e-06,2
-4.19851e-05,2.16187e-05,-1.02907e-06,-1.18756e-06,2.8094e-05,-3.3039e-05,-5.44394e-06,5.05603e-06,2
-2.62759e-05,1.91571e-05,-1.39891e-06,-3.51786e-06,1.59231e-05,-2.3729e-05,9.31991e-07,5.15114e-06,2
-3.28717e-06,1.78944e-05,-3.3112e-06,-7.82063e-06,-1.37037e-05,-1.08631e-05,6.61735e-06,7.61797e-06,2
1.90813e-05,1.63578e-05,-6.07035e-06,-1.27801e-05,-4.92752e-05,1.57203e-07,1.04176e-05,9.73491e-06,2
2.45769e-05,1.30807e-05,-6.96446e-06,-1.53428e-05,-7.79494e-05,1.11571e-05,1.48411e-05,8.78536e-06,2
1.31013e-05,1.12911e-05,-4.91699e-06,-1.77007e-05,-9.27598e-05,1.34052e-05,1.84027e-05,8.49738e-06,2
-7.73943e-06,1.20244e-05,-3.00751e-06,-2.22733e-05,-9.58043e-05,1.03098e-05,1.74152e-05,1.01794e-05,2
-3.00212e-05,1.22543e-05,-3.23283e-06,-2.59964e-05,-9.18252e-05,1.4815e-05,1.7688e-05,1.21201e-05,2
-4.16737e-05,1.11365e-05,-3.57628e-06,-2.73108e-05,-7.98133e-05,2.6145e-05,2.41985e-05,1.08871e-05,2
-4.42003e-05,9.33511e-06,-3.38746e-06,-2.71259e-05,-5.88539e-05,3.33182e-05,2.99816e-05,5.30151e-06,2
-4.50091e-05,7.26924e-06,-4.92981e-06,-2.53028e-05,-3.0059e-05,2.7788e-05,3.27912e-05,-2.40566e-06,2
-4.60083e-05,2.93656e-06,-8.53528e-06,-1.75185e-05,4.72938e-06,1.11553e-05,3.42216e-05,-1.00802e-05,2
-4.09793e-05,4.9413e-07,-1.11019e-05,1.98899e-06,4.72905e-05,-9.03774e-07,3.19314e-05,-1.66454e-05,2
-2.6642e-05,7.9897e-06,-9.66527e-06,2.86871e-05,9.39248e-05,7.01513e-06,3.07509e-05,-2.13698e-05,2
-9.94822e-06,2.34518e-05,-5.27281e-06,4.29796e-05,0.000125873,2.10154e-05,3.32503e-05,-2.44015e-05,2
-3.40533e-06,3.40442e-05,-1.93681e-06,3.47438e-05,0.000127208,1.52789e-05,3.59912e-05,-2.6313e-05,2
-8.39514e-06,3.20884e-05,-2.07425e-06,1.60421e-05,0.000105146,-1.42039e-05,3.79389e-05,-2.60898e-05,2
-1.94461e-05,2.40795e-05,-5.16813e-06,1.36557e-06,8.06917e-05,-4.82588e-05,3.96335e-05,-2.40004e-05,2
-3.91014e-05,1.87344e-05,-1.03039e-05,-7.30586e-06,6.76323e-05,-6.93856e-05,3.66111e-05,-2.0054e-05,2
-6.64291e-05,1.63178e-05,-1.62128e-05,-1.30102e-05,6.53296e-05,-7.28562e-05,2.60628e-05,-1.5932e-05,2
-9.02486e-05,1.31441e-05,-1.95456e-05,-1.55948e-05,6.61532e-05,-6.41571e-05,1.36463e-05,-1.27709e-05,2
-9.97355e-05,8.96978e-06,-1.87792e-05,-1.48493e-05,5.70804e-05,-4.53541e-05,5.30243e-06,-1.20243e-05,2
-8.98725e-05,3.95823e-06,-1.66603e-05,-1.10769e-05,2.48534e-05,-2.00624e-05,-1.76331e-06,-1.27888e-05,2
-6.58361e-05,-5.14327e-07,-1.53946e-05,-4.76762e-06,-2.0839e-05,1.32934e-06,-1.02953e-05,-1.13276e-05,2
-3.95256e-05,-9.50776e-07,-1.4668e-05,1.53034e-06,-4.35247e-05,1.05193e-05,-1.40996e-05,-5.49058e-06,2
-1.28363e-05,4.29668e-06,-1.36944e-05,4.91283e-06,-2.86868e-05,5.37423e-06,-7.73555e-06,9.02802e-07,2
1.44307e-05,1.21983e-05,-1.32463e-05,8.12559e-06,-5.47925e-06,-3.2037e-06,-9.98747e-07,1.59128e-06,2
3.02894e-05,1.57431e-05,-1.38658e-05,9.35793e-06,-4.92272e-06,-4.69393e-06,-6.05353e-06,-3.46045e-07,2
2.32785e-05,1.18164e-05,-1.27558e-05,5.82565e-06,-2.22207e-05,-6.16609e-06,-1.41715e-05,-8.10397e-08,2
6.23566e-07,6.53502e-06,-1.04416e-05,-1.71155e-06,-2.3348e-05,-8.87314e-06,-3.76792e-06,1.81042e-06,2
-1.79442e-05,5.19386e-06,-9.64584e-06,-1.0131e-05,6.90899e-06,-1.16166e-05,2.73216e-05,1.23133e-06,2
-2.36114e-05,5.63785e-06,-1.0771e-05,-1.42397e-05,4.87539e-05,-2.5124e-05,5.6009e-05,-2.43761e-07,2
-2.2867e-05,4.89191e-06,-1.23701e-05,-1.62475e-05,8.02751e-05,-4.62584e-05,6.67342e-05,-4.76179e-08,2
-2.54153e-05,2.63411e-06,-1.2352e-05,-1.86856e-05,9.48041e-05,-6.26976e-05,5.5045e-05,1.10336e-06,2
-3.36487e-05,1.06612e-06,-1.16968e-05,-2.15381e-05,9.1919e-05,-7.14247e-05,3.27124e-05,3.00022e-06,2
-4.08702e-05,2.29388e-06,-1.06687e-05,-2.27858e-05,6.90916e-05,-7.08596e-05,1.12969e-05,4.05127e-06,2
-4.14295e-05,5.90299e-06,-9.41858e-06,-2.0093e-05,3.1669e-05,-6.00191e-05,-1.03434e-05,4.68478e-06,2
-3.49833e-05,1.12249e-05,-1.0151e-05,-1.48223e-05,-1.81524e-07,-4.64471e-05,-2.24191e-05,5.23623e-06,2
-2.06348e-05,1.61254e-05,-1.2203e-05,-1.09963e-05,-1.26603e-05,-3.29294e-05,-2.30756e-05,6.67476e-06,2
1.01805e-06,1.82041e-05,-1.209e-05,-4.68258e-06,-8.56083e-06,-1.07459e-05,-2.39745e-05,9.14358e-06,2
1.61166e-05,1.8545e-05,-9.6412e-06,6.39499e-06,2.93239e-06,2.40361e-05,-2.49731e-05,1.0723e-05,2
1.39807e-05,1.90522e-05,-6.74391e-06,1.47915e-05,1.60974e-05,5.45358e-05,-1.96855e-05,1.12022e-05,2
-3.68909e-07,2.04188e-05,-5.96956e-06,1.56553e-05,2.95487e-05,6.36633e-05,-1.0374e-05,1.30089e-05,2
-1.66512e-05,2.22795e-05,-7.39298e-06,1.47661e-05,4.32748e-05,5.55288e-05,-8.99841e-07,1.58118e-05,2
-2.97035e-05,2.30747e-05,-8.08171e-06,1.93293e-05,5.29086e-05,4.11072e-05,6.16478e-06,1.6946e-05,2
-3.88767e-05,2.21076e-05,-7.52584e-06,2.25556e-05,5.10992e-05,1.65562e-05,8.52719e-06,1.69613e-05,2
-4.24581e-05,2.18539e-05,-7.08197e-06,1.79859e-05,3.88869e-05,-2.9626e-05,6.9256e-06,1.65787e-05,2
-4.00099e-05,2.41606e-05,-6.13654e-06,1.03179e-05,2.48945e-05,-9.22712e-05,5.25437e-06,1.491e-05,2
-3.49138e-05,2.78345e-05,-2.69825e-06,4.3603e-06,1.65897e-05,-0.000146641,6.2978e-06,1.2028e-05,2
-3.15625e-05,3.02394e-05,1.35329e-06,-7.47359e-07,1.373e-05,-0.000160244,1.19239e-05,1.00948e-05,2
-2.95568e-05,2.8459e-05,2.02815e-06,-3.80054e-06,1.15967e-05,-0.000115079,2.14976e-05,9.61437e-06,2
-2.60675e-05,2.36776e-05,-1.13811e-06,-2.96994e-06,5.69251e-06,-4.1845e-05,3.03096e-05,1.16434e-05,2
-2.09606e-05,1.86192e-05,-5.39077e-06,-1.48739e-06,-3.8733e-06,6.83277e-06,3.54168e-05,1.67041e-05,2
-1.94283e-05,1.50106e-05,-8.46932e-06,-4.57878e-06,-1.42245e-05,1.80445e-05,3.51317e-05,1.85937e-05,2
-2.53019e-05,1.38322e-05,-8.93753e-06,-8.83306e-06,-2.35464e-05,9.26888e-06,2.90891e-05,1.47906e-05,2
-3.70366e-05,1.52163e-05,-7.21765e-06,-1.10222e-05,-2.88095e-05,-4.29675e-06,1.73658e-05,1.04267e-05,2
-4.74644e-05,1.31556e-05,-5.30219e-06,-1.14308e-05,-3.69858e-05,-1.01315e-05,7.79166e-06,7.67881e-06,2
-5.48063e-05,4.03e-06,-4.66939e-06,-1.03363e-05,-4.81165e-05,4.15756e-07,1.04691e-05,5.60041e-06,2
-6.55507e-05,-5.96089e-06,-8.12507e-06,-9.50521e-06,-4.33239e-05,2.0916e-05,2.12028e-05,3.34503e-06,2
-7.96906e-05,-1.35229e-05,-1.41162e-05,-5.28148e-06,-1.63174e-05,3.86982e-05,2.8108e-05,1.08365e-06,2
-9.0555e-05,-1.9014e-05,-1.69501e-05,4.74166e-10,2.21709e-05,4.70602e-05,2.53112e-05,-8.41279e-07,2
-9.90473e-05,-2.50934e-05,-1.75027e-05,-5.56841e-06,4.21417e-05,4.57959e-05,2.16893e-05,-2.79303e-06,2
-0.000110933,-2.92608e-05,-1.79214e-05,-2.3273e-05,3.58678e-05,3.54871e-05,1.98579e-05,-4.64242e-06,2
-0.000122036,-2.78982e-05,-1.7996e-05,-3.49092e-05,4.28641e-05,2.15254e-05,1.36423e-05,-5.80568e-06,2
-0.000121562,-1.67889e-05,-1.47029e-05,-2.85167e-05,7.06329e-05,1.62408e-05,8.3759e-06,-5.50734e-06,2
-0.000107017,8.89377e-07,-9.97317e-06,-1.36944e-05,8.364e-05,2.38889e-05,9.33761e-06,-3.33967e-06,2
-8.73676e-05,1.34681e-05,-7.39299e-06,-4.02237e-06,6.54015e-05,3.40951e-05,1.29294e-05,-6.11094e-07,2
-6.11161e-05,1.65013e-05,-7.70265e-06,-2.95983e-06,3.21198e-05,3.57944e-05,1.67179e-05,1.68477e-06,2
-2.23957e-05,1.53201e-05,-9.10326e-06,-6.74883e-06,6.0556e-06,2.69342e-05,1.92453e-05,3.46447e-06,2
2.57328e-05,1.81548e-05,-1.0257e-05,-8.9904e-06,-1.07428e-05,1.15626e-05,1.57073e-05,5.03104e-06,2
7.45695e-05,2.50596e-05,-1.14039e-05,-4.77717e-06,-2.66949e-05,-2.32725e-06,8.74157e-06,6.23477e-06,2
0.000105936,2.96745e-05,-1.10816e-05,1.87918e-06,-3.13907e-05,-5.00672e-06,6.55181e-06,6.84329e-06,2
0.000101553,2.64302e-05,-1.03602e-05,-1.38677e-06,-1.31784e-05,8.07343e-06,1.01834e-05,6.10819e-06,2
6.54625e-05,1.90854e-05,-9.35707e-06,-1.66255e-05,1.18172e-05,3.19249e-05,1.40782e-05,3.23594e-06,2
2.25124e-05,1.49434e-05,-5.7059e-06,-2.88559e-05,1.76871e-05,5.58916e-05,1.82532e-05,2.80905e-07,2
-7.5302e-06,1.80216e-05,1.79287e-06,-2.89284e-05,-6.54807e-07,6.34892e-05,2.41074e-05,-1.58193e-07,2
-2.08329e-05,2.52114e-05,7.62909e-06,-2.19866e-05,-2.50559e-05,4.07285e-05,2.94002e-05,3.01985e-07,2
-2.58051e-05,3.06926e-05,9.52705e-06,-1.08477e-05,-3.79219e-05,-3.50228e-06,3.40576e-05,-1.02584e-06,2
-2.88165e-05,3.19212e-05,8.8627e-06,5.70264e-06,-3.7283e-05,-4.90676e-05,3.74189e-05,-2.82124e-06,2
-2.92104e-05,3.06921e-05,5.58583e-06,1.92194e-05,-2.78509e-05,-0.000100916,3.86718e-05,-3.96783e-06,2
-2.75399e-05,2.89213e-05,-1.65403e-06,1.92354e-05,-1.61226e-05,-0.000148004,4.08002e-05,-5.17986e-06,2
-2.78047e-05,2.91142e-05,-9.31315e-06,8.47903e-06,-5.07608e-06,-0.000142126,4.04973e-05,-7.60225e-06,2
-3.08126e-05,3.05437e-05,-1.22892e-05,-1.88839e-06,6.96015e-06,-7.96946e-05,3.30864e-05,-9.49055e-06,2
-3.70719e-05,2.91025e-05,-9.07351e-06,-2.90452e-06,9.50721e-06,-3.15998e-05,1.8727e-05,-7.91623e-06,2
-4.32791e-05,2.74399e-05,-3.88819e-06,2.43837e-07,-5.86529e-06,-2.9617e-05,9.33698e-07,-6.91737e-06,2
-4.35171e-05,2.81144e-05,-9.31027e-07,-1.55914e-06,-3.16361e-05,-4.04612e-05,-1.07248e-05,-9.5247e-06,2
-3.64032e-05,2.79998e-05,1.11183e-06,-4.76757e-06,-4.58768e-05,-4.78744e-05,-1.33869e-05,-1.21891e-05,2
-2.07282e-05,2.64308e-05,2.89692e-06,-3.74671e-06,-2.82624e-05,-5.12593e-05,-1.3071e-05,-1.37527e-05,2
-2.57346e-06,2.51434e-05,5.46756e-06,1.01699e-06,2.74045e-06,-5.08407e-05,-1.27599e-05,-1.4544e-05,2
5.79101e-06,2.25646e-05,6.58519e-06,5.40518e-06,1.74715e-05,-3.93712e-05,-1.0161e-05,-1.56256e-05,2
1.88033e-06,1.9254e-05,4.45417e-06,8.22026e-06,1.86903e-05,-2.08935e-05,-1.01357e-05,-1.5673e-05,2
-4.92996e-06,1.38905e-05,7.74501e-08,9.76202e-06,1.79388e-05,-2.80419e-06,-1.21694e-05,-1.47511e-05,2
-1.02963e-05,4.15481e-06,-5.20799e-06,7.37732e-06,1.00148e-05,4.48347e-06,-1.18911e-05,-1.34194e-05,2
-1.5976e-05,-4.96366e-06,-1.1113e-05,2.81463e-06,-9.03792e-06,6.63326e-07,-7.56466e-06,-1.17131e-05,2
-2.26118e-05,-7.16106e-06,-1.68204e-05,5.66254e-07,-3.16637e-05,-2.38834e-06,5.64994e-06,-9.88926e-06,2
-2.79718e-05,-3.66975e-06,-2.04691e-05,-8.46633e-07,-4.17419e-05,-2.83272e-06,2.43481e-05,-9.01209e-06,2
-3.10263e-05,-9.43563e-07,-2.13158e-05,-4.11261e-06,-2.67934e-05,-1.70894e-06,3.81854e-05,-1.08144e-05,2
-3.28678e-05,-1.64036e-06,-1.9627e-05,-8.64499e-06,1.09854e-05,8.35984e-08,4.36972e-05,-1.23307e-05,2
-3.60888e-05,-3.14655e-06,-1.61642e-05,-1.11713e-05,5.69958e-05,4.55424e-06,4.33368e-05,-1.1384e-05,2
-4.41292e-05,-4.04834e-06,-1.26774e-05,-9.98172e-06,9.22239e-05,9.1742e-06,3.48978e-05,-8.30608e-06,2
-5.52211e-05,-4.82048e-06,-1.06325e-05,-7.14954e-06,0.00010471,1.46483e-05,2.13759e-05,-5.75527e-06,2
-6.57014e-05,-5.72575e-06,-9.38402e-06,-5.20356e-06,9.52068e-05,2.04947e-05,1.18763e-05,-4.11037e-06,2
-7.34612e-05,-4.71744e-06,-7.37908e-06,-3.64251e-06,7.24816e-05,2.93649e-05,1.13601e-05,-3.66066e-06,2
-7.8353e-05,1.75517e-06,-4.1006e-06,-1.51587e-06,4.79051e-05,4.48403e-05,1.64156e-05,-4.258e-06,2
-7.95889e-05,1.1887e-05,-1.52676e-06,-4.2902e-07,3.9181e-05,6.34639e-05,1.84817e-05,-4.81314e-06,2
-7.04577e-05,1.878e-05,-2.11909e-06,-2.19832e-06,4.82961e-05,6.6925e-05,1.17398e-05,-4.76788e-06,2
-4.85797e-05,2.19211e-05,-5.18212e-06,-3.75149e-06,5.89175e-05,5.18538e-05,2.903e-06,-4.72692e-06,2
-3.10334e-05,2.3955e-05,-7.16811e-06,-5.68807e-07,6.43362e-05,3.88034e-05,1.04231e-06,-4.01576e-06,2
-3.08793e-05,2.47871e-05,-6.36836e-06,3.87651e-06,6.69338e-05,3.30644e-05,2.47208e-06,-1.20649e-06,2
-4.01949e-05,2.42015e-05,-4.5757e-06,6.36824e-06,6.31843e-05,1.57518e-05,-1.13212e-06,-5.45339e-07,2
-4.74369e-05,2.01596e-05,-4.98747e-06,2.47848e-06,4.65314e-05,-2.05003e-05,-8.64415e-06,-2.38482e-06,2
-4.75914e-05,1.63812e-05,-7.53312e-06,-7.26216e-06,1.37849e-05,-5.70864e-05,-1.15584e-05,-2.06632e-06,2
-3.9228e-05,1.69761e-05,-7.1503e-06,-1.38579e-05,-2.54238e-05,-8.42717e-05,-8.53724e-06,-1.46806e-06,2
-2.41152e-05,2.20726e-05,-3.5751e-06,-1.96774e-05,-4.56265e-05,-9.8474e-05,-7.55554e-06,-1.12143e-06,2
-1.26095e-05,2.61202e-05,-2.51132e-06,-2.76627e-05,-2.88134e-05,-9.1872e-05,-6.48381e-06,1.29701e-06,2
-1.22413e-05,2.44264e-05,-5.2879e-06,-3.52804e-05,1.08267e-05,-7.12285e-05,2.51436e-06,3.82505e-06,2
-1.96088e-05,2.22095e-05,-5.68191e-06,-3.80708e-05,4.14058e-05,-4.44819e-05,1.45865e-05,5.39839e-06,2
-2.75455e-05,2.14138e-05,-2.16046e-06,-3.32947e-05,4.3693e-05,-2.24557e-05,2.76082e-05,7.44837e-06,2
-2.97644e-05,2.19059e-05,-7.03709e-08,-2.56432e-05,2.49381e-05,-1.61147e-05,3.8266e-05,8.66959e-06,2
-2.54636e-05,2.16227e-05,-1.67926e-06,-1.94972e-05,6.39641e-06,-1.83551e-05,3.31279e-05,6.06427e-06,2
-2.11193e-05,2.17808e-05,-3.64694e-06,-1.66577e-05,-1.38343e-06,-1.9525e-05,5.53145e-06,2.75852e-06,2
-2.10654e-05,2.22986e-05,-3.68869e-06,-1.50703e-05,-1.9322e-06,-1.51619e-05,-2.23974e-05,1.61081e-06,2
-2.28649e-05,2.05392e-05,-3.74424e-06,-1.48452e-05,-3.40205e-07,-6.82635e-06,-2.47044e-05,1.07992e-06,2
-2.40715e-05,1.66627e-05,-5.73469e-06,-1.65119e-05,4.0364e-06,5.32954e-06,-1.31383e-06,7.1682e-07,2
-2.52451e-05,1.23975e-05,-9.67976e-06,-1.51183e-05,1.21888e-05,1.71828e-05,3.40848e-05,1.40657e-06,2
-2.60999e-05,9.24591e-06,-1.24847e-05,-5.28241e-06,2.28614e-05,2.09108e-05,6.6153e-05,2.16e-06,2
-2.53322e-05,5.97812e-06,-1.25802e-05,7.47595e-06,2.96725e-05,1.23081e-05,8.21756e-05,2.09892e-06,2
-2.38756e-05,3.34801e-06,-1.10689e-05,1.23401e-05,2.63813e-05,-1.45747e-06,7.77044e-05,1.35159e-06,2
-2.30417e-05,1.52661e-06,-9.5665e-06,9.18531e-06,1.48778e-05,-1.2661e-05,5.83581e-05,-4.35524e-07,2
-2.5653e-05,8.79338e-08,-9.11753e-06,4.28673e-06,3.74532e-06,-2.37265e-05,3.20563e-05,-2.60617e-06,2
-3.15212e-05,-2.61931e-06,-9.79987e-06,-8.13027e-07,-2.002e-06,-3.64871e-05,8.456e-06,-3.79175e-06,2
-3.39018e-05,-6.32303e-06,-1.07982e-05,-6.14531e-06,-2.64929e-06,-4.04902e-05,-5.46485e-06,-2.94485e-06,2
-3.44007e-05,-8.85019e-06,-1.09611e-05,-6.12552e-06,4.10656e-06,-2.80585e-05,-7.73403e-06,-5.47448e-07,2
-3.76448e-05,-6.58723e-06,-9.35294e-06,1.7086e-07,1.89454e-05,-7.87662e-06,-3.10429e-06,8.26165e-07,2
-3.93634e-05,2.02111e-07,-7.34977e-06,1.95296e-06,2.3313e-05,6.41411e-06,-1.7774e-06,8.98653e-07,2
-3.86098e-05,4.03096e-06,-8.15457e-06,-5.52945e-06,2.2227e-06,1.02389e-05,-3.09301e-06,1.5382e-06,2
-3.8306e-05,2.91587e-06,-1.36606e-05,-1.17426e-05,-2.75567e-05,9.15098e-06,8.93983e-06,3.15548e-06,2
-3.90601e-05,1.99947e-06,-1.88836e-05,-1.15349e-05,-3.46001e-05,5.79156e-06,3.11754e-05,5.23271e-06,2
-3.60969e-05,2.78678e-06,-2.02181e-05,-1.3569e-05,-1.54257e-05,4.40228e-07,4.73503e-05,4.05832e-06,2
-2.28899e-05,6.31275e-06,-1.76413e-05,-2.05262e-05,1.29675e-05,-3.44693e-06,4.56828e-05,1.62379e-06,2
-2.22712e-06,1.07793e-05,-9.91214e-06,-1.86377e-05,4.11131e-05,-1.74938e-06,2.59928e-05,3.23978e-06,2
6.98758e-06,1.74736e-05,-3.03605e-07,-4.08849e-06,5.91682e-05,4.23785e-06,4.36619e-06,5.58615e-06,2
-6.51183e-06,2.39228e-05,6.13379e-06,7.29885e-06,6.12015e-05,7.30804e-06,-1.20189e-05,6.48432e-06,2
-3.35414e-05,2.26715e-05,6.17344e-06,8.10411e-06,4.50991e-05,-2.04031e-06,-2.40116e-05,7.74833e-06,2
-5.92474e-05,1.38259e-05,1.37261e-06,5.36895e-06,2.65643e-05,-2.19226e-05,-3.5139e-05,8.87593e-06,2
-7.32102e-05,3.9144e-06,-3.54027e-06,3.87214e-06,1.55853e-05,-3.80933e-05,-3.80427e-05,8.28256e-06,2
-7.72034e-05,1.29979e-06,-4.78549e-06,6.45953e-06,5.54093e-06,-4.32129e-05,-3.0428e-05,7.11485e-06,2
-7.72584e-05,5.19159e-06,-1.98355e-06,1.06516e-05,-1.04493e-05,-4.24537e-05,-2.46807e-05,6.11183e-06,2
-7.81458e-05,1.02227e-05,1.82877e-06,1.19441e-05,-2.86627e-05,-3.60686e-05,-2.31459e-05,5.33984e-06,2
-7.62346e-05,1.25351e-05,3.40759e-06,1.70731e-05,-3.6259e-05,-2.28384e-05,-2.08421e-05,5.21328e-06,2
-6.53621e-05,1.29487e-05,3.14045e-06,2.87435e-05,-2.52395e-05,-7.06419e-06,-1.87009e-05,6.6203e-06,2
-4.88312e-05,9.94441e-06,2.11347e-06,3.35346e-05,-1.98075e-07,6.31987e-06,-1.57739e-05,8.01136e-06,2
-3.31339e-05,4.5504e-06,1.53118e-06,2.23248e-05,2.54569e-05,1.51322e-05,-8.02243e-06,7.81026e-06,2
-1.69245e-05,3.66321e-06,1.95996e-06,3.28476e-06,4.63757e-05,1.69876e-05,4.97404e-07,6.42961e-06,2
2.00506e-06,9.83369e-06,1.84464e-06,-1.13057e-05,6.08941e-05,8.37779e-06,5.63985e-06,4.49084e-06,2
1.37898e-05,1.65751e-05,-1.61299e-07,-1.26797e-05,6.47115e-05,-7.94165e-06,9.46068e-06,3.64074e-06,2
8.54739e-06,1.75751e-05,-3.18004e-06,-4.74007e-06,5.1497e-05,-2.16561e-05,1.49384e-05,3.42727e-06,2
-6.44855e-06,1.41115e-05,-4.98362e-06,2.03512e-06,2.73521e-05,-2.00737e-05,2.16155e-05,3.78612e-06,2
-1.72815e-05,1.13954e-05,-4.28508e-06,5.07147e-06,7.1323e-06,-6.16205e-06,2.93166e-05,4.53586e-06,2
-1.91494e-05,1.33542e-05,-1.84686e-06,6.30201e-06,3.17746e-06,1.72223e-06,3.67714e-05,5.61433e-06,2
-1.71502e-05,1.70481e-05,-3.24854e-07,6.06255e-06,1.30749e-05,-3.49024e-06,3.91008e-05,4.7807e-06,2
-1.8313e-05,1.73303e-05,-1.16203e-06,5.5012e-06,2.39983e-05,-1.06736e-05,3.12465e-05,1.36639e-06,2
-2.24563e-05,1.48649e-05,-4.01655e-06,6.75176e-06,2.38966e-05,-9.3312e-06,2.17883e-05,-1.36676e-06,2
-2.80727e-05,1.35771e-05,-4.50703e-06,4.80943e-06,7.23273e-06,-5.59969e-07,1.90185e-05,-1.62608e-06,2
-3.73731e-05,1.33403e-05,-2.37187e-06,-2.48712e-06,-1.2501e-05,7.15166e-06,1.65575e-05,-1.41957e-06,2
-5.0747e-05,8.78603e-06,-4.37398e-06,-1.4114e-05,-1.74777e-05,1.02414e-05,1.70847e-05,-1.83411e-06,2
-6.14543e-05,-2.36963e-07,-9.53851e-06,-2.47317e-05,-1.0593e-05,9.67221e-06,2.33644e-05,-1.34893e-06,2
-6.22407e-05,-6.88831e-06,-1.11677e-05,-2.49646e-05,6.99791e-06,6.23492e-06,2.73321e-05,-1.1065e-06,2
-5.36604e-05,-9.97493e-06,-8.15151e-06,-1.66678e-05,3.638e-05,7.28755e-07,2.76443e-05,-1.16891e-07,2
-4.53858e-05,-1.09459e-05,-4.92711e-06,-5.69999e-06,5.98183e-05,-2.80883e-06,3.06684e-05,9.0507e-07,2
-4.37285e-05,-1.05674e-05,-3.69073e-06,3.47103e-06,6.54057e-05,-2.65756e-06,3.88571e-05,-1.92132e-07,2
-4.44475e-05,-6.72872e-06,-3.01729e-06,1.10825e-05,5.90372e-05,-2.08568e-06,4.52584e-05,-5.80607e-07,2
-4.07734e-05,3.17326e-06,-4.77969e-06,1.9984e-05,3.79171e-05,-2.4229e-07,5.10328e-05,6.09321e-07,2
-3.12752e-05,1.5547e-05,-9.34108e-06,2.67539e-05,4.89574e-06,4.07362e-06,5.53241e-05,3.80038e-06,2
-1.91403e-05,2.47297e-05,-1.19587e-05,2.28459e-05,-1.1152e-05,1.53337e-05,4.98995e-05,7.40813e-06,2
-1.14602e-05,2.97331e-05,-1.11298e-05,6.31015e-06,1.22435e-06,3.44713e-05,4.13658e-05,8.94576e-06,2
-1.45394e-05,3.2469e-05,-9.97264e-06,-1.49939e-05,1.97428e-05,5.23919e-05,3.92774e-05,8.24096e-06,2
-2.31078e-05,3.31901e-05,-9.30199e-06,-3.27796e-05,2.29282e-05,5.92784e-05,3.71569e-05,5.33631e-06,2
-2.4598e-05,3.11126e-05,-8.97077e-06,-4.2649e-05,1.50106e-05,5.52173e-05,2.75865e-05,1.64405e-06,2
-9.36945e-06,2.84573e-05,-9.77371e-06,-4.33432e-05,6.44404e-06,4.88315e-05,1.53283e-05,7.44671e-08,2
1.8145e-05,2.79266e-05,-1.19553e-05,-3.01243e-05,-1.971e-06,4.3726e-05,2.56035e-06,1.48117e-06,2
3.88991e-05,2.89073e-05,-1.42156e-05,-1.3744e-06,-1.60475e-05,3.46682e-05,-1.17762e-05,2.2404e-06,2
3.86197e-05,3.02897e-05,-1.55207e-05,2.59424e-05,-3.5774e-05,1.72006e-05,-2.66881e-05,1.22655e-06,2
2.019e-05,3.06246e-05,-1.70184e-05,2.76705e-05,-5.4361e-05,1.73084e-06,-4.06997e-05,-6.82017e-09,2
-3.70808e-06,2.6953e-05,-1.94972e-05,7.34933e-06,-6.37437e-05,-2.03373e-06,-5.21305e-05,-1.95061e-08,2
-2.03696e-05,1.97033e-05,-2.06604e-05,-9.72736e-06,-5.71061e-05,-4.85658e-06,-5.73312e-05,1.57121e-06,2
-2.63326e-05,1.44768e-05,-1.86729e-05,-1.08132e-05,-3.8125e-05,-1.95672e-05,-5.64084e-05,3.21804e-06,2
-2.66985e-05,1.39477e-05,-1.67778e-05,-2.34243e-06,-1.69134e-05,-4.03188e-05,-5.06927e-05,4.02533e-06,2
-2.67435e-05,1.42056e-05,-1.61305e-05,2.04945e-06,3.78481e-06,-5.96633e-05,-3.92949e-05,6.06011e-06,2
-2.76929e-05,1.17854e-05,-1.35743e-05,-1.13396e-06,1.90098e-05,-8.06912e-05,-2.62887e-05,8.71591e-06,2
-2.97693e-05,9.06384e-06,-8.33095e-06,-6.08221e-06,2.35957e-05,-9.75888e-05,-1.33381e-05,9.31556e-06,2
-3.11951e-05,1.11283e-05,-2.3596e-06,-9.02546e-06,2.14883e-05,-9.06107e-05,7.05165e-07,9.16537e-06,2
-3.30911e-05,1.72459e-05,1.47633e-06,-1.01885e-05,2.45536e-05,-6.10266e-05,1.35946e-05,9.28261e-06,2
-3.89334e-05,2.08662e-05,1.41647e-06,-8.9135e-06,4.55995e-05,-3.24899e-05,2.2184e-05,7.97941e-06,2
-4.47757e-05,2.2276e-05,-1.27652e-06,-5.82192e-06,7.31009e-05,-2.26995e-05,2.23015e-05,6.69385e-06,2
-4.8277e-05,2.38873e-05,-2.86005e-06,-4.91593e-06,9.13959e-05,-3.39348e-05,1.61243e-05,6.46397e-06,2
-5.20818e-05,2.50294e-05,-1.35131e-06,-5.64272e-06,9.67823e-05,-4.7914e-05,1.30115e-05,7.19051e-06,2
-5.78125e-05,2.35576e-05,5.1731e-07,-8.83043e-06,8.49656e-05,-4.94627e-05,1.59712e-05,8.55916e-06,2
-6.31922e-05,1.9031e-05,1.70357e-06,-1.29363e-05,6.0483e-05,-3.91034e-05,1.80175e-05,1.04081e-05,2
-6.20899e-05,1.59427e-05,1.02407e-06,-1.47992e-05,4.8169e-05,-2.63344e-05,2.01816e-05,1.30074e-05,2
-5.06558e-05,1.54616e-05,-6.06153e-07,-1.60155e-05,4.98994e-05,-1.71567e-05,2.47331e-05,1.33915e-05,2
-3.04934e-05,1.44722e-05,-1.05507e-06,-1.56347e-05,3.49499e-05,-9.27719e-06,3.1488e-05,1.16157e-05,2
-4.00859e-06,1.202e-05,-5.34201e-08,-1.33744e-05,-1.98562e-06,3.12304e-07,4.31884e-05,9.08269e-06,2
2.28461e-05,1.1441e-05,1.98457e-06,-1.12143e-05,-3.63862e-05,9.09916e-06,5.49122e-05,5.81221e-06,2
3.95172e-05,1.32091e-05,2.05348e-06,-1.09145e-05,-5.04882e-05,1.42245e-05,5.5926e-05,1.20776e-06,2
3.95696e-05,1.23141e-05,-1.84347e-06,-1.44092e-05,-4.59339e-05,1.94616e-05,4.47978e-05,-3.03682e-06,2
2.59719e-05,5.98612e-06,-9.14236e-06,-2.14294e-05,-2.45527e-05,2.63366e-05,2.93703e-05,-5.6998e-06,2
7.62331e-06,-1.62791e-06,-1.57424e-05,-2.86191e-05,1.48815e-05,3.15797e-05,1.3448e-05,-8.17716e-06,2
-8.62473e-06,-4.60621e-06,-1.84115e-05,-3.47479e-05,5.83813e-05,3.05388e-05,1.87396e-06,-1.15888e-05,2
-2.10089e-05,-2.28846e-06,-1.8478e-05,-4.17342e-05,7.35108e-05,2.40895e-05,-1.38102e-06,-1.54463e-05,2
-3.05128e-05,1.60324e-06,-1.94916e-05,-4.96418e-05,4.87744e-05,1.28822e-05,4.64269e-06,-1.72628e-05,2
-3.9565e-05,3.16519e-06,-2.23017e-05,-5.35832e-05,1.07656e-05,-1.65955e-06,1.76166e-05,-1.51854e-05,2
-4.99274e-05,1.03821e-06,-2.50693e-05,-4.60457e-05,-1.3728e-05,-7.99102e-06,3.24661e-05,-1.12177e-05,2
-5.90581e-05,-7.04199e-07,-2.30239e-05,-2.40314e-05,-2.30189e-05,3.94172e-06,4.39868e-05,-1.08438e-05,2
-6.10516e-05,2.4044e-06,-1.65347e-05,-4.23024e-07,-2.88396e-05,2.31912e-05,5.13565e-05,-1.2154e-05,2
-5.36815e-05,1.28597e-05,-1.02448e-05,1.27874e-05,-3.41983e-05,3.32387e-05,5.44401e-05,-9.76099e-06,2
-4.38885e-05,2.52076e-05,-4.27072e-06,1.84051e-05,-3.72619e-05,3.02752e-05,5.41884e-05,-5.83309e-06,2
-4.36187e-05,2.72306e-05,-8.04465e-08,2.0463e-05,-3.78411e-05,1.85097e-05,4.97043e-05,-3.38862e-06,2
-5.56969e-05,1.88763e-05,-2.39576e-06,2.69697e-05,-3.81006e-05,2.17749e-06,3.64353e-05,-3.29098e-06,2
-6.64105e-05,8.13717e-06,-9.05603e-06,3.52006e-05,-3.34503e-05,-9.98153e-06,1.73663e-05,-4.20415e-06,2
-6.64271e-05,-9.31312e-07,-1.10142e-05,3.60128e-05,-1.30877e-05,-4.76846e-06,4.69735e-07,-3.41713e-06,2
-6.13943e-05,-7.21718e-06,-8.51684e-06,2.9637e-05,1.27412e-05,9.64058e-06,-7.86676e-06,-1.9468e-06,2
-5.81566e-05,-1.02109e-05,-6.32886e-06,1.72463e-05,3.11747e-05,1.4239e-05,-1.21964e-05,-7.43409e-07,2
-5.6413e-05,-9.08525e-06,-6.2658e-06,4.19781e-06,4.89517e-05,8.31046e-06,-1.71467e-05,4.33732e-08,2
-4.98957e-05,-5.21913e-07,-6.62907e-06,-2.78156e-06,6.5785e-05,6.54374e-06,-1.54522e-05,3.78979e-07,2
-3.66503e-05,1.32317e-05,-3.591e-06,-1.54309e-06,7.51289e-05,1.30691e-05,-5.40134e-06,1.17487e-06,2
-2.17304e-05,2.55695e-05,1.77794e-06,1.48966e-06,8.03398e-05,2.12896e-05,1.07918e-05,3.39115e-06,2
-1.1475e-05,3.26872e-05,4.43791e-06,2.33055e-06,8.54892e-05,2.64405e-05,2.45268e-05,5.08996e-06,2
-4.92846e-06,3.67545e-05,3.0244e-06,1.06444e-06,8.65007e-05,2.36198e-05,2.5157e-05,5.92774e-06,2
3.32702e-07,4.07617e-05,-1.55462e-07,-1.20895e-06,7.70026e-05,4.48319e-06,1.60411e-05,5.1192e-06,2
2.30971e-06,4.30223e-05,-4.31658e-06,-2.51161e-06,5.52323e-05,-3.59406e-05,6.77561e-06,2.92666e-06,2
-2.27212e-06,4.31925e-05,-8.5961e-06,-3.22626e-06,2.79119e-05,-8.59724e-05,4.54425e-07,3.5407e-06,2
-1.3348e-05,4.25509e-05,-1.11835e-05,-4.29774e-06,3.91375e-06,-0.000124311,-3.47366e-06,6.20919e-06,2
-2.4977e-05,4.31593e-05,-1.13529e-05,-5.91742e-06,-1.44515e-05,-0.000141073,-6.72811e-06,7.29523e-06,2
-3.3159e-05,4.38531e-05,-1.03355e-05,-7.21854e-06,-2.99272e-05,-0.000147065,-1.49e-05,5.16341e-06,2
-3.94074e-05,4.07261e-05,-9.66735e-06,-9.2659e-06,-4.12918e-05,-0.000154553,-2.33624e-05,7.59883e-07,2
-4.54873e-05,3.30078e-05,-9.22272e-06,-1.03651e-05,-4.42424e-05,-0.000152604,-2.02368e-05,-4.92441e-06,2
-4.77473e-05,2.7085e-05,-5.88281e-06,-6.29314e-06,-3.86022e-05,-0.000121499,-6.69967e-07,-9.78093e-06,2
-4.30869e-05,2.69978e-05,5.2616e-07,1.44588e-06,-3.08582e-05,-7.0374e-05,2.76926e-05,-1.28446e-05,2
-3.49094e-05,2.70041e-05,3.33914e-06,4.64185e-06,-2.68302e-05,-2.83232e-05,5.11376e-05,-1.53381e-05,2
-2.99779e-05,2.13519e-05,-2.86013e-06,-4.58856e-07,-2.2294e-05,-1.25894e-05,6.05989e-05,-1.729e-05,2
-3.18637e-05,1.19947e-05,-1.35674e-05,-9.59855e-06,-1.43741e-05,-1.42472e-05,5.83077e-05,-1.77162e-05,2
-3.61824e-05,3.30123e-06,-2.21011e-05,-1.44066e-05,-2.17e-06,-1.46553e-05,4.739e-05,-1.71158e-05,2
-3.5736e-05,-2.01046e-07,-2.46012e-05,-9.40597e-06,1.67313e-05,-9.05349e-06,3.386e-05,-1.54917e-05,2
-3.22794e-05,-1.22884e-06,-2.27656e-05,-1.76109e-07,4.19777e-05,-1.27175e-06,2.62149e-05,-1.24966e-05,2
-2.93504e-05,-4.63628e-06,-2.28301e-05,1.0666e-06,5.72411e-05,1.30303e-06,2.66015e-05,-7.41721e-06,2
-2.83741e-05,-9.69701e-06,-2.51462e-05,-4.63786e-06,5.08532e-05,2.11141e-06,2.86285e-05,-3.00523e-06,2
-3.16983e-05,-1.51894e-05,-2.66373e-05,-8.65837e-06,3.38522e-05,6.94659e-06,2.61805e-05,-2.17862e-06,2
-4.12702e-05,-1.93449e-05,-2.63943e-05,-8.84826e-06,1.82247e-05,9.62303e-06,1.77343e-05,-2.21928e-06,2
-5.27793e-05,-2.22788e-05,-2.63583e-05,-6.63971e-06,1.1324e-05,8.42736e-06,3.33013e-07,-4.84514e-07,2
-5.92495e-05,-2.19106e-05,-2.55064e-05,-3.41827e-06,1.44894e-05,5.84027e-06,-2.06149e-05,1.81034e-06,2
-5.93343e-05,-1.93262e-05,-2.24678e-05,2.95584e-08,2.43242e-05,4.58091e-06,-3.98489e-05,2.84914e-06,2
-5.56285e-05,-1.74914e-05,-1.8423e-05,1.61716e-06,3.49592e-05,2.81757e-06,-5.08766e-05,3.43731e-06,2
-5.56271e-05,-1.48006e-05,-1.45932e-05,4.7125e-07,4.14478e-05,1.09906e-06,-4.52785e-05,4.22933e-06,2
-6.03401e-05,-9.56558e-06,-1.11426e-05,-2.39633e-06,3.5522e-05,-7.33375e-07,-2.47208e-05,6.05156e-06,2
-6.02823e-05,-1.32329e-06,-7.25501e-06,-4.35467e-06,1.41213e-05,-1.82651e-06,2.07515e-06,7.6251e-06,2
-5.08688e-05,7.1556e-06,-3.10437e-06,-5.02777e-06,-1.02082e-05,3.04844e-06,3.07952e-05,7.62079e-06,2
-3.68212e-05,1.33378e-05,-2.2994e-07,-5.69218e-06,-2.08436e-05,1.17555e-05,5.6365e-05,6.31803e-06,2
-2.48645e-05,1.99379e-05,1.99741e-06,-5.77771e-06,-1.39051e-05,1.97667e-05,6.87841e-05,5.01893e-06,2
-1.72493e-05,3.04519e-05,5.63593e-06,-3.69857e-06,3.53534e-06,2.47434e-05,6.61167e-05,4.23032e-06,2
-1.07001e-05,4.20067e-05,1.05812e-05,-1.42837e-06,2.40583e-05,2.70704e-05,5.58107e-05,4.71831e-06,2
-4.25906e-06,4.73064e-05,1.46953e-05,-2.93749e-06,4.1128e-05,2.56734e-05,4.33984e-05,6.23081e-06,2
5.12842e-06,4.42325e-05,1.54009e-05,-8.6845e-06,4.93714e-05,2.06894e-05,3.0504e-05,6.98713e-06,2
2.27191e-05,3.7525e-05,1.41125e-05,-1.27433e-05,4.83345e-05,1.57655e-05,2.11432e-05,6.23539e-06,2
4.0866e-05,3.11005e-05,1.24228e-05,-1.12318e-05,4.28194e-05,1.33339e-05,2.12398e-05,4.57832e-06,2
4.31229e-05,2.61696e-05,7.9512e-06,-7.40783e-06,3.51214e-05,4.81675e-06,3.48617e-05,3.18422e-06,2
2.52129e-05,2.37107e-05,-1.05742e-06,-6.77557e-06,2.70121e-05,-9.62698e-06,5.63319e-05,2.59672e-06,2
-4.68581e-06,2.08416e-05,-1.23308e-05,-1.07173e-05,1.67774e-05,-1.529e-05,7.07248e-05,3.24664e-06,2
-3.20852e-05,1.32947e-05,-2.37012e-05,-1.66271e-05,6.70732e-07,-1.42617e-05,6.58042e-05,4.07936e-06,2
-4.77601e-05,6.26821e-06,-3.23203e-05,-2.04102e-05,-2.10868e-05,-2.00262e-05,4.27875e-05,4.02149e-06,2
-5.22436e-05,5.84878e-06,-3.52984e-05,-1.96467e-05,-3.92625e-05,-3.1863e-05,1.38845e-05,4.3277e-06,2
-4.65405e-05,9.89748e-06,-3.02912e-05,-1.74078e-05,-4.79776e-05,-4.22369e-05,-1.45634e-05,5.23963e-06,2
-3.62145e-05,1.50565e-05,-2.18861e-05,-1.41332e-05,-5.41997e-05,-4.50503e-05,-3.98242e-05,5.04822e-06,2
-2.83867e-05,1.5506e-05,-1.54836e-05,-1.01215e-05,-6.40248e-05,-3.32664e-05,-5.59371e-05,4.89868e-06,2
-2.60969e-05,1.22618e-05,-1.14802e-05,-8.6464e-06,-6.92146e-05,-1.26111e-05,-6.38179e-05,6.07609e-06,2
-2.49363e-05,1.13126e-05,-1.00437e-05,-1.26994e-05,-5.633e-05,-1.44718e-06,-6.53855e-05,7.19712e-06,2
-2.21008e-05,1.16211e-05,-8.64082e-06,-2.14047e-05,-1.8512e-05,-8.80363e-06,-6.2931e-05,5.69904e-06,2
-2.12361e-05,9.40411e-06,-9.45481e-06,-2.97353e-05,3.72768e-05,-2.2271e-05,-5.51732e-05,2.87173e-06,2
-2.41168e-05,5.57608e-06,-1.20336e-05,-3.27481e-05,8.11802e-05,-2.47285e-05,-4.1365e-05,9.22755e-07,2
-3.17491e-05,2.97207e-06,-1.35403e-05,-3.14521e-05,9.08924e-05,-1.59009e-05,-2.74992e-05,2.10712e-07,2
-4.14452e-05,2.31232e-06,-1.24852e-05,-2.65075e-05,7.40966e-05,-8.25699e-06,-1.68262e-05,-8.30754e-07,2
-4.87868e-05,2.92068e-06,-9.16432e-06,-1.73154e-05,5.7583e-05,-6.39653e-06,-1.02516e-05,-2.25751e-06,2
-5.33669e-05,2.83203e-06,-6.71493e-06,-5.45823e-06,5.40951e-05,-4.11158e-06,-6.37201e-06,-2.99392e-06,2
-5.61367e-05,2.8422e-06,-7.10898e-06,8.78451e-06,5.34269e-05,2.03753e-06,-6.25505e-07,-3.06738e-06,2
-5.59613e-05,4.30378e-06,-9.23771e-06,1.82418e-05,4.645e-05,1.00025e-05,8.65204e-06,-2.82216e-06,2
-5.21473e-05,5.33276e-06,-1.22324e-05,1.49459e-05,3.31264e-05,1.9401e-05,1.52686e-05,-2.62085e-06,2
-4.68777e-05,1.6642e-06,-1.67038e-05,2.53996e-06,1.58753e-05,2.89885e-05,1.83598e-05,-2.10902e-06,2
-4.10406e-05,-6.05104e-06,-1.94407e-05,-6.57659e-06,-4.92538e-06,3.65767e-05,2.17853e-05,-1.81003e-06,2
-3.30021e-05,-1.22193e-05,-1.67023e-05,-5.33158e-06,-2.87743e-05,4.08382e-05,2.5799e-05,-9.54413e-07,2
-1.94381e-05,-1.18402e-05,-9.69556e-06,4.90012e-06,-5.28378e-05,3.885e-05,2.91519e-05,5.67463e-07,2
-2.63797e-06,-5.05725e-06,-4.05019e-06,1.67147e-05,-7.17967e-05,2.73324e-05,3.26645e-05,1.86827e-06,2
3.79796e-06,3.30052e-06,-2.29385e-06,1.99367e-05,-8.12979e-05,8.13107e-06,3.71262e-05,4.28437e-07,2
-9.29888e-06,9.00633e-06,-2.73995e-06,1.48074e-05,-7.1488e-05,-1.07625e-05,4.21221e-05,-2.1875e-06,2
-3.27286e-05,1.3141e-05,-4.45448e-07,1.00274e-05,-3.00179e-05,-2.45129e-05,4.5872e-05,-3.00099e-06,2
-5.18572e-05,1.64775e-05,3.25163e-06,7.12667e-06,4.22611e-05,-3.48243e-05,4.54837e-05,-3.81431e-06,2
-6.13458e-05,1.69005e-05,2.81529e-06,2.53601e-06,0.000112823,-3.95137e-05,4.06607e-05,-5.59047e-06,2
-6.69378e-05,1.55976e-05,-4.3632e-08,-3.02919e-06,0.000137224,-3.50922e-05,3.11135e-05,-6.3011e-06,2
-6.80618e-05,1.72462e-05,-2.7419e-07,-7.20031e-06,0.000122191,-2.65724e-05,1.72994e-05,-4.65309e-06,2
-5.45769e-05,2.26028e-05,2.13155e-06,-1.17946e-05,0.000101296,-1.79924e-05,5.38492e-06,-2.90224e-06,2
-3.3442e-05,2.62501e-05,3.05546e-06,-1.33248e-05,8.50173e-05,-8.3885e-06,-8.9059e-07,-4.12687e-06,2
-1.66471e-05,2.7754e-05,2.20917e-06,-1.06893e-05,6.75912e-05,5.34314e-06,1.7483e-06,-5.30341e-06,2
-1.0548e-05,2.61986e-05,-8.6237e-07,-8.89862e-06,4.48734e-05,1.79402e-05,1.76063e-05,-4.10482e-06,2
-1.80507e-05,1.98367e-05,-4.77273e-06,-8.21535e-06,2.7894e-05,1.75345e-05,3.50884e-05,-2.64359e-06,2
-3.12348e-05,1.17368e-05,-7.17888e-06,-7.52027e-06,2.04732e-05,5.4606e-06,3.95118e-05,-2.79305e-07,2
-4.22587e-05,4.78093e-06,-8.66139e-06,-2.19689e-06,1.56387e-05,-2.33056e-06,2.97949e-05,2.98383e-06,2
-4.71772e-05,6.72743e-07,-8.46645e-06,7.823e-06,4.73683e-06,3.74911e-06,1.47499e-05,5.57011e-06,2
-4.80895e-05,-8.7109e-07,-6.27122e-06,1.71238e-05,-1.07468e-05,1.32866e-05,2.48428e-06,6.40749e-06,2
-4.82733e-05,-8.85923e-07,-4.27716e-06,1.9843e-05,-1.90623e-05,1.89444e-05,-5.53932e-06,6.46247e-06,2
-4.87754e-05,-1.27923e-06,-4.35015e-06,1.62976e-05,-1.17677e-05,2.07798e-05,-1.06984e-05,6.37181e-06,2
-4.65206e-05,-1.1323e-06,-3.69683e-06,1.23652e-05,6.82242e-06,1.38669e-05,-1.53339e-05,6.45853e-06,2
-3.46058e-05,9.00161e-07,-1.62532e-06,1.2363e-05,2.46458e-05,1.19886e-08,-1.60671e-05,5.94702e-06,2
-9.43008e-06,6.45298e-06,9.45178e-07,1.2131e-05,3.20522e-05,-1.09249e-05,-1.32037e-05,5.1918e-06,2
2.00433e-05,1.77558e-05,2.84317e-06,1.05851e-05,2.3537e-05,-1.1612e-05,-1.26795e-05,6.46529e-06,2
3.46951e-05,2.9456e-05,2.7839e-06,1.34349e-05,3.66268e-06,-5.0021e-06,-9.0211e-06,8.11953e-06,2
2.57968e-05,3.32694e-05,9.30403e-07,1.88759e-05,-1.64526e-05,-2.46875e-06,2.75379e-06,7.37357e-06,2
3.207e-06,2.94623e-05,-2.41974e-06,1.87322e-05,-3.03472e-05,-1.20558e-05,1.5427e-05,6.0012e-06,2
-1.63838e-05,2.59746e-05,-5.95902e-06,1.17245e-05,-4.52314e-05,-2.80332e-05,2.43247e-05,5.6963e-06,2
-2.50301e-05,2.70816e-05,-7.85672e-06,4.76455e-06,-5.96855e-05,-3.95566e-05,3.31185e-05,4.84447e-06,2
-2.54563e-05,3.16993e-05,-7.61995e-06,1.21708e-06,-5.9032e-05,-4.61942e-05,4.00346e-05,3.13739e-06,2
-2.45438e-05,3.39454e-05,-7.47767e-06,-8.33417e-07,-3.98523e-05,-5.59121e-05,3.97701e-05,1.53206e-06,2
-2.56021e-05,2.984e-05,-8.44968e-06,-4.02598e-06,-1.74574e-05,-7.31467e-05,3.12259e-05,2.40517e-06,2
-2.95268e-05,2.36053e-05,-9.79239e-06,-3.79291e-06,-1.66143e-06,-8.59979e-05,2.03214e-05,4.37438e-06,2
-3.10038e-05,2.05614e-05,-9.17706e-06,-1.41608e-06,1.14758e-05,-7.82939e-05,1.36883e-05,4.72188e-06,2
-2.80647e-05,1.95753e-05,-5.78903e-06,-3.48212e-06,2.36255e-05,-5.63884e-05,1.20934e-05,3.56883e-06,2
-2.65056e-05,1.86429e-05,-1.32087e-07,-8.6262e-06,3.14734e-05,-3.62623e-05,1.57952e-05,9.60827e-07,2
-2.88551e-05,1.90289e-05,4.57389e-06,-1.25667e-05,3.6893e-05,-1.99559e-05,2.47662e-05,-7.96119e-07,2
-3.57107e-05,2.00118e-05,4.83937e-06,-1.8734e-05,4.07716e-05,-7.88013e-06,3.2022e-05,-2.18822e-06,2
-4.47166e-05,1.93224e-05,1.77215e-06,-2.61584e-05,4.4298e-05,-4.93077e-07,3.07024e-05,-3.35442e-06,2
-4.99713e-05,1.53695e-05,-1.61757e-06,-2.78603e-05,4.3364e-05,8.39334e-06,2.57923e-05,-3.54321e-06,2
-4.93462e-05,9.81986e-06,-3.24396e-06,-2.09911e-05,2.69198e-05,2.03496e-05,2.00643e-05,-3.18972e-06,2
-4.48967e-05,5.4336e-06,-2.08448e-06,-9.04381e-06,2.32753e-06,3.06435e-05,1.32902e-05,-2.71264e-06,2
-3.66078e-05,4.4513e-06,1.38436e-06,-2.81937e-06,-1.65308e-05,3.6816e-05,9.65429e-06,-2.85085e-06,2
-2.47596e-05,8.06474e-06,3.06629e-06,-4.16267e-06,-2.56223e-05,4.01296e-05,1.32714e-05,-1.89252e-06,2
-1.5949e-05,1.40557e-05,1.96143e-07,-7.59951e-06,-2.58316e-05,3.50024e-05,1.8525e-05,-6.27254e-07,2
-1.68411e-05,1.71247e-05,-4.80603e-06,-1.08886e-05,-1.76702e-05,1.81889e-05,2.04555e-05,1.41583e-06,2
-2.26277e-05,1.39319e-05,-1.06923e-05,-1.43662e-05,-5.75129e-06,-1.58931e-06,1.90928e-05,3.35973e-06,2
-2.88071e-05,6.12107e-06,-1.61794e-05,-1.73141e-05,2.49688e-06,-1.37201e-05,1.37963e-05,4.89342e-06,2
-3.49964e-05,-2.59762e-06,-1.95556e-05,-1.79745e-05,3.69002e-06,-1.43283e-05,1.21349e-05,5.7764e-06,2
-3.92435e-05,-8.92942e-06,-1.92902e-05,-1.65711e-05,-2.04549e-06,-7.88675e-06,1.74429e-05,4.49802e-06,2
-4.04729e-05,-1.19498e-05,-1.64498e-05,-1.40144e-05,-5.44619e-06,-2.51721e-06,2.29049e-05,3.98571e-06,2
-4.09139e-05,-1.27104e-05,-1.4312e-05,-1.08989e-05,6.17049e-06,-5.59022e-07,2.26965e-05,5.89685e-06,2
-4.17693e-05,-1.25753e-05,-1.34533e-05,-7.22355e-06,3.21328e-05,2.99387e-06,1.83001e-05,8.7745e-06,2
-4.14063e-05,-1.20832e-05,-1.32576e-05,-3.91807e-06,5.97046e-05,1.09221e-05,1.1938e-05,1.14626e-05,2
-3.94769e-05,-1.32248e-05,-1.3013e-05,-2.48084e-06,7.39345e-05,2.24434e-05,5.53089e-06,1.31984e-05,2
-3.47503e-05,-1.68618e-05,-1.30487e-05,-3.9098e-06,6.53668e-05,3.15263e-05,1.9468e-06,1.29158e-05,2
-2.74596e-05,-1.9548e-05,-1.31227e-05,-8.01947e-06,3.63903e-05,3.18286e-05,1.89164e-06,1.16306e-05,2
-2.35837e-05,-1.66142e-05,-1.21923e-05,-1.25714e-05,4.14012e-06,2.98793e-05,2.97715e-06,8.39829e-06,2
-2.92783e-05,-7.59216e-06,-7.61255e-06,-1.55229e-05,-8.37975e-06,3.79775e-05,7.68272e-07,3.30523e-06,2
-4.57131e-05,-1.80936e-08,-3.13521e-07,-1.58937e-05,4.24978e-07,4.61928e-05,-1.04114e-05,-2.30813e-06,2
-7.13227e-05,3.91651e-06,4.95509e-06,-1.5006e-05,8.78592e-06,2.95303e-05,-3.07486e-05,-7.20085e-06,2
-9.57308e-05,1.35694e-05,5.10187e-06,-1.49098e-05,8.03023e-06,-1.19958e-05,-4.77536e-05,-1.17317e-05,2
-0.000107294,2.95689e-05,2.74482e-06,-1.73406e-05,1.10403e-05,-5.09646e-05,-4.58678e-05,-1.65359e-05,2
-0.000104694,4.33508e-05,4.23369e-07,-2.23903e-05,2.66038e-05,-7.20909e-05,-1.65276e-05,-1.94779e-05,2
-9.01912e-05,4.93405e-05,-6.98448e-07,-2.34842e-05,4.27795e-05,-7.9373e-05,2.15355e-05,-2.02943e-05,2
-6.71138e-05,5.23897e-05,2.29182e-06,-1.70408e-05,5.8933e-05,-8.23142e-05,4.39486e-05,-2.1311e-05,2
-3.86874e-05,5.78836e-05,7.63352e-06,-8.67692e-06,7.15238e-05,-8.36977e-05,4.90751e-05,-2.15834e-05,2
-1.09879e-06,6.13637e-05,1.09851e-05,-1.16178e-06,7.04266e-05,-8.18925e-05,4.42648e-05,-2.07961e-05,2
4.36167e-05,6.09937e-05,1.00808e-05,4.60835e-06,6.58981e-05,-8.43597e-05,3.68115e-05,-2.01129e-05,2
7.57481e-05,5.65147e-05,6.43547e-06,5.78392e-06,5.57038e-05,-8.84851e-05,2.98297e-05,-1.71442e-05,2
7.8716e-05,5.01216e-05,3.0647e-06,2.46156e-06,4.12174e-05,-7.99177e-05,2.72157e-05,-1.31513e-05,2
5.4411e-05,4.30311e-05,-2.83996e-07,1.65148e-06,3.2799e-05,-5.46601e-05,2.96783e-05,-1.03905e-05,2
1.90489e-05,3.59098e-05,-2.23047e-06,5.09225e-06,3.09641e-05,-2.59817e-05,3.68366e-05,-9.28189e-06,2
-8.29004e-06,2.74628e-05,-3.75754e-06,8.08639e-06,2.94289e-05,-6.57867e-06,4.28905e-05,-7.49724e-06,2
-2.08056e-05,1.85866e-05,-7.49165e-06,8.80613e-06,2.68858e-05,-1.81648e-06,4.09885e-05,-4.53011e-06,2
-2.29143e-05,1.39728e-05,-1.07889e-05,7.63464e-06,2.78797e-05,-8.25128e-06,3.57609e-05,-2.71566e-06,2
-2.16975e-05,1.21859e-05,-1.1801e-05,7.58775e-06,3.71712e-05,-1.8999e-05,3.38545e-05,-1.64511e-06,2
-2.33043e-05,8.98585e-06,-1.17615e-05,6.66678e-06,5.33308e-05,-3.25922e-05,3.16715e-05,1.02319e-06,2
-2.8707e-05,4.14512e-06,-1.27549e-05,-9.1342e-07,6.32438e-05,-4.38315e-05,2.48786e-05,3.78183e-06,2
-3.39835e-05,1.49902e-06,-1.41966e-05,-1.66369e-05,5.66506e-05,-4.14861e-05,1.69182e-05,4.64411e-06,2
-3.54487e-05,1.20724e-06,-1.41854e-05,-3.33138e-05,3.48717e-05,-2.36974e-05,8.31386e-06,5.72271e-06,2
-3.41057e-05,1.36575e-06,-1.10248e-05,-4.26014e-05,7.88527e-06,-4.51793e-06,-1.70407e-06,7.32562e-06,2
-3.2681e-05,5.75075e-07,-5.75642e-06,-4.2799e-05,-1.56094e-05,6.06888e-06,-9.94116e-06,8.32854e-06,2
-3.13899e-05,-1.44022e-07,-1.75662e-06,-3.80854e-05,-3.0708e-05,8.70081e-06,-1.16851e-05,8.46803e-06,2
-2.86912e-05,5.36222e-07,-2.48975e-06,-3.42282e-05,-3.95573e-05,6.76815e-06,-7.29659e-06,9.59527e-06,2
-2.49964e-05,3.30381e-06,-7.56545e-06,-3.21539e-05,-4.80339e-05,1.46582e-06,3.10341e-06,1.18156e-05,2
-2.18431e-05,7.49683e-06,-1.25182e-05,-2.6093e-05,-6.31009e-05,-5.6136e-06,1.64927e-05,1.26719e-05,2
-1.83316e-05,1.22109e-05,-1.43486e-05,-4.55271e-06,-8.37371e-05,-1.08637e-05,2.64189e-05,1.27346e-05,2
-1.46369e-05,1.32769e-05,-1.35452e-05,3.33728e-05,-9.58753e-05,-1.15215e-05,2.9872e-05,1.47727e-05,2
-1.5305e-05,9.67026e-06,-1.09573e-05,6.44931e-05,-8.88532e-05,-6.71746e-06,2.80977e-05,1.70105e-05,2
-2.20354e-05,5.59923e-06,-6.84794e-06,6.63996e-05,-6.39566e-05,-1.64755e-06,2.32748e-05,1.7893e-05,2
-3.13996e-05,2.25012e-06,-3.63234e-06,4.55722e-05,-2.84066e-05,-3.23123e-06,1.74225e-05,1.64349e-05,2
-3.97766e-05,-6.32802e-07,-3.3684e-06,2.7767e-05,9.21961e-06,-9.85598e-06,1.10045e-05,1.25912e-05,2
-4.64504e-05,-3.2131e-06,-4.61213e-06,2.59347e-05,3.81424e-05,-1.19368e-05,6.90716e-06,1.05733e-05,2
-5.299e-05,-4.7334e-06,-4.808e-06,2.97363e-05,5.45731e-05,-1.32958e-06,5.3223e-06,1.03223e-05,2
-5.82175e-05,-3.85735e-06,-3.86023e-06,2.68073e-05,6.18998e-05,1.82815e-05,3.36163e-06,8.74913e-06,2
-6.2505e-05,1.04715e-06,-1.12946e-06,1.81631e-05,6.03789e-05,4.05206e-05,3.79095e-06,4.39237e-06,2
-6.5794e-05,8.1667e-06,2.21726e-06,9.30074e-06,4.74568e-05,5.87286e-05,3.22469e-07,-1.21279e-06,2
-6.45907e-05,1.37335e-05,2.91412e-06,2.39795e-06,2.67997e-05,6.68839e-05,-1.15708e-05,-2.74114e-06,2
-5.77766e-05,1.39414e-05,1.27801e-06,-2.19936e-06,1.3196e-05,6.90254e-05,-1.94713e-05,-2.0755e-07,2
-4.52839e-05,8.65856e-06,-8.35436e-07,-5.73557e-06,1.74756e-05,7.15188e-05,-1.43464e-05,1.52627e-06,2
-2.90055e-05,2.21444e-06,-3.06317e-06,-1.04129e-05,3.57891e-05,6.82972e-05,-3.09964e-06,1.61387e-06,2
-1.46989e-05,-2.07439e-06,-6.22609e-06,-1.75258e-05,4.80499e-05,4.45455e-05,8.22951e-06,7.98136e-07,2
-1.04962e-05,-3.51256e-06,-9.3483e-06,-2.68612e-05,3.58979e-05,5.2172e-06,1.76013e-05,1.76199e-07,2
-1.71237e-05,-2.74475e-06,-1.20658e-05,-3.57383e-05,9.08321e-06,-2.28112e-05,2.41523e-05,1.08301e-06,2
-2.59227e-05,1.11919e-06,-1.40079e-05,-3.64486e-05,-5.25696e-06,-2.59866e-05,3.01105e-05,1.97753e-06,2
-2.7112e-05,9.14483e-06,-1.40102e-05,-2.65237e-05,4.72576e-06,-1.7654e-05,3.4994e-05,2.14334e-07,2
-2.02773e-05,1.85003e-05,-1.37084e-05,-1.49874e-05,2.53855e-05,-1.40698e-05,3.35604e-05,-1.78645e-06,2
-1.45027e-05,2.43022e-05,-1.50096e-05,-1.07554e-05,3.94145e-05,-1.58729e-05,2.33124e-05,-1.60317e-06,2
-1.60409e-05,2.41665e-05,-1.77774e-05,-1.04291e-05,4.37215e-05,-1.63479e-05,9.80729e-06,-1.76058e-06,2
-2.26759e-05,1.95972e-05,-2.0294e-05,-7.59079e-06,4.30162e-05,-1.61147e-05,-1.26127e-06,-3.18458e-06,2
-2.89904e-05,1.30953e-05,-2.23319e-05,-4.7219e-06,4.14998e-05,-1.57099e-05,-6.05923e-06,-4.87072e-06,2
-3.44113e-05,9.70639e-06,-2.41878e-05,-5.33193e-06,4.07802e-05,-1.22273e-05,-2.05984e-06,-6.67575e-06,2
-4.00289e-05,1.29151e-05,-2.31778e-05,-3.17145e-06,3.43056e-05,-1.02439e-05,7.64282e-06,-8.89677e-06,2
-4.28345e-05,1.96411e-05,-1.73351e-05,1.13741e-05,2.04286e-05,-1.89433e-05,1.27685e-05,-1.07671e-05,2
-4.1873e-05,2.53623e-05,-9.35971e-06,2.90345e-05,5.93378e-06,-3.59733e-05,5.49108e-06,-1.02988e-05,2
-4.00909e-05,2.78781e-05,-2.41867e-06,3.40029e-05,-2.24616e-06,-4.97643e-05,-4.13236e-06,-8.54834e-06,2
-3.53016e-05,2.7874e-05,3.26492e-06,2.91425e-05,-3.01196e-06,-5.52673e-05,-5.27414e-06,-7.5859e-06,2
-3.10917e-05,2.25586e-05,6.0485e-06,2.15667e-05,-1.14787e-06,-4.85168e-05,-5.89085e-06,-7.52358e-06,2
-3.16125e-05,1.52328e-05,2.80263e-06,1.26651e-05,-3.19432e-06,-3.36862e-05,-8.11378e-06,-6.0611e-06,2
-3.37401e-05,1.4247e-05,-3.23718e-06,3.65041e-06,-9.36718e-06,-2.41432e-05,-3.68712e-06,-2.47269e-06,2
-3.52039e-05,1.76439e-05,-7.0811e-06,-3.51289e-06,-1.15521e-05,-2.10184e-05,5.04973e-06,-1.4626e-06,2
-3.58591e-05,1.79467e-05,-9.22313e-06,-1.07523e-05,-8.33556e-06,-1.61742e-05,9.50707e-06,-1.96057e-06,2
-3.72121e-05,1.27567e-05,-1.1531e-05,-2.32125e-05,-1.05257e-06,-7.63542e-06,1.03211e-05,-1.09162e-06,2
-3.75379e-05,6.95187e-06,-1.15154e-05,-3.76434e-05,7.933e-06,-5.62579e-06,1.20835e-05,-6.4858e-07,2
-3.54425e-05,5.97367e-06,-8.55125e-06,-4.35169e-05,1.10156e-05,-1.26375e-05,1.50187e-05,-1.63376e-06,2
-3.16983e-05,9.61496e-06,-5.70288e-06,-4.29118e-05,2.70366e-06,-1.99496e-05,2.25779e-05,-3.6316e-06,2
-2.56493e-05,1.24811e-05,-4.4043e-06,-4.22129e-05,-1.03221e-05,-2.08196e-05,3.33574e-05,-3.75187e-06,2
-1.73368e-05,1.19702e-05,-3.24525e-06,-3.70018e-05,-1.26111e-05,-1.48875e-05,3.87765e-05,-2.02545e-06,2
-1.14979e-05,1.13788e-05,-1.30204e-06,-2.35905e-05,1.28714e-06,-4.93481e-06,3.72226e-05,2.22312e-07,2
-1.32999e-05,1.44891e-05,-7.25407e-07,-8.34409e-06,1.65981e-05,2.89574e-06,3.16316e-05,1.52091e-06,2
-2.29534e-05,1.65076e-05,-3.63548e-06,-1.46568e-06,1.84281e-05,4.08349e-07,2.336e-05,1.69471e-06,2
-3.55814e-05,1.32791e-05,-9.67556e-06,-9.36753e-07,9.61954e-06,-1.06211e-05,1.50791e-05,1.89531e-06,2
-4.42814e-05,8.06432e-06,-1.44755e-05,1.49778e-06,1.36864e-06,-2.43257e-05,1.12375e-05,1.24039e-06,2
-4.71229e-05,5.55821e-06,-1.62565e-05,5.90303e-06,-1.10822e-06,-3.72414e-05,9.93679e-06,5.50497e-07,2
-4.7158e-05,6.88756e-06,-1.56669e-05,6.62315e-06,2.31464e-07,-4.46894e-05,5.40166e-06,1.52884e-06,2
-4.65722e-05,9.12659e-06,-1.32745e-05,6.30824e-06,2.65946e-06,-3.89125e-05,-1.64207e-06,3.67218e-06,2
-4.44556e-05,9.66738e-06,-1.07443e-05,7.05021e-06,4.18663e-06,-2.2273e-05,-6.13154e-06,3.70101e-06,2
-3.90998e-05,8.16387e-06,-1.06758e-05,3.57089e-06,2.30649e-06,-7.96043e-06,-7.86027e-06,1.56805e-06,2
-2.99449e-05,6.30837e-06,-1.10236e-05,-2.9038e-06,-4.94376e-06,-4.83991e-06,-9.89285e-06,6.70719e-07,2
-1.80932e-05,7.42775e-06,-5.9109e-06,-4.5095e-06,-1.3269e-05,-4.56912e-06,-1.12992e-05,1.17267e-06,2
-7.37095e-06,1.20804e-05,2.28743e-06,-1.29709e-06,-1.99479e-05,4.7302e-06,-7.93835e-06,1.11884e-06,2
-5.52946e-06,1.72866e-05,7.87602e-06,5.28348e-07,-2.67529e-05,1.62638e-05,-1.54524e-06,6.5738e-07,2
-1.20962e-05,2.11709e-05,1.10285e-05,-7.00011e-07,-2.90431e-05,2.30181e-05,6.20655e-07,1.27704e-06,2
-1.91782e-05,2.25356e-05,1.23845e-05,-3.16882e-06,-2.15997e-05,2.93719e-05,-2.05319e-06,4.69972e-06,2
-2.73146e-05,2.31467e-05,1.09975e-05,-3.64062e-06,-7.42599e-06,3.36261e-05,-2.75571e-06,8.114e-06,2
-3.71882e-05,2.17749e-05,6.76563e-06,-1.6557e-06,9.44611e-06,3.49946e-05,4.66641e-06,7.6127e-06,2
-4.50905e-05,1.9133e-05,-5.78564e-07,1.33917e-07,2.74224e-05,3.49963e-05,1.60388e-05,5.7753e-06,2
-4.80598e-05,1.80626e-05,-9.08462e-06,-1.52917e-06,4.59006e-05,2.90057e-05,2.36412e-05,5.52661e-06,2
-5.00925e-05,1.77459e-05,-1.64497e-05,-7.62649e-06,6.1628e-05,1.68821e-05,2.42694e-05,7.78256e-06,2
-5.35028e-05,1.42998e-05,-2.36688e-05,-1.52391e-05,6.43081e-05,2.68692e-06,2.45934e-05,1.01239e-05,2
-5.51388e-05,6.68529e-06,-2.81151e-05,-2.00761e-05,5.27662e-05,-1.23871e-05,2.76662e-05,9.20182e-06,2
-5.1329e-05,5.74412e-07,-2.80371e-05,-1.55001e-05,4.05021e-05,-2.41443e-05,2.64448e-05,6.96649e-06,2
-4.04543e-05,-4.8162e-07,-2.44899e-05,-1.51556e-06,3.3834e-05,-2.74732e-05,1.74133e-05,5.25033e-06,2
-2.41522e-05,1.02381e-06,-1.82905e-05,8.49873e-06,2.91505e-05,-3.01484e-05,-5.34045e-06,5.04959e-06,2
-6.00746e-06,1.16465e-06,-1.29482e-05,7.47549e-06,2.32189e-05,-3.79462e-05,-3.60923e-05,4.56938e-06,2
5.78634e-06,-3.04493e-07,-1.10411e-05,1.63389e-07,1.73181e-05,-4.17288e-05,-4.76636e-05,2.60569e-06,2
4.6487e-06,-2.37188e-06,-1.16898e-05,-5.30541e-06,1.13764e-05,-3.46463e-05,-2.06791e-05,1.53404e-07,2
-8.5624e-06,-4.47975e-06,-1.13035e-05,-6.73039e-06,1.35237e-06,-1.93523e-05,2.85563e-05,-1.61964e-06,2
-2.79508e-05,-7.09985e-06,-9.56036e-06,-7.30916e-06,-1.34656e-05,-2.53314e-06,7.04011e-05,-2.46577e-06,2
-4.68608e-05,-1.07095e-05,-8.86942e-06,-8.83813e-06,-3.25116e-05,8.05191e-06,8.93608e-05,-3.06265e-06,2
-5.79852e-05,-1.4479e-05,-8.62031e-06,-9.97996e-06,-5.4426e-05,1.05924e-05,8.30207e-05,-2.36605e-06,2
-6.03018e-05,-1.2863e-05,-5.97987e-06,-1.13261e-05,-6.9035e-05,1.11336e-05,5.85652e-05,-1.94062e-06,2
-5.78857e-05,-1.45879e-06,-1.07325e-06,-1.44241e-05,-6.28921e-05,1.36947e-05,2.95412e-05,-1.98967e-06,2
-5.07449e-05,1.54939e-05,3.42402e-06,-1.58619e-05,-3.72109e-05,1.54519e-05,7.88428e-06,-1.17042e-06,2
-3.1248e-05,2.90415e-05,3.81061e-06,-1.40402e-05,-3.80993e-07,1.50872e-05,-3.6785e-06,5.55861e-07,2
1.14108e-06,3.35766e-05,5.73935e-08,-1.06436e-05,4.54499e-05,1.82773e-05,-4.60665e-06,1.40239e-06,2
2.54277e-05,2.917e-05,-4.80916e-06,-6.93973e-06,8.41415e-05,3.24238e-05,3.12614e-06,8.67887e-07,2
2.21669e-05,2.23632e-05,-9.71496e-06,-4.23116e-06,9.25592e-05,5.03884e-05,1.17145e-05,3.02199e-07,2
-1.00112e-06,2.121e-05,-1.24763e-05,-2.57719e-06,7.87631e-05,5.59127e-05,1.86955e-05,8.10688e-08,2
-2.16113e-05,2.55676e-05,-1.17894e-05,-1.72299e-06,6.40678e-05,3.98245e-05,2.30693e-05,3.84003e-07,2
-2.51931e-05,3.14655e-05,-1.03183e-05,-6.03912e-06,5.90208e-05,3.6849e-06,2.06437e-05,-2.24035e-07,2
-1.80265e-05,3.54336e-05,-1.09656e-05,-1.23008e-05,6.56202e-05,-3.31789e-05,1.60164e-05,6.80461e-08,2
-1.53558e-05,3.28387e-05,-1.32027e-05,-1.87751e-05,7.54088e-05,-6.00273e-05,1.18923e-05,2.07041e-06,2
-2.00316e-05,2.3593e-05,-1.56878e-05,-3.15676e-05,8.03885e-05,-7.73738e-05,8.28649e-06,1.80025e-06,2
-2.38297e-05,1.69005e-05,-1.64595e-05,-4.50814e-05,8.05717e-05,-8.17839e-05,5.5593e-06,-5.91664e-07,2
-2.18493e-05,1.62942e-05,-1.36958e-05,-5.0003e-05,7.46328e-05,-6.96169e-05,7.61352e-07,-2.87844e-06,2
-1.73858e-05,1.65913e-05,-9.39204e-06,-4.69137e-05,6.26837e-05,-3.59953e-05,-1.31242e-06,-1.55798e-06,2
-1.54061e-05,1.59908e-05,-5.79544e-06,-3.94126e-05,5.07153e-05,-1.47463e-06,8.16604e-07,1.02501e-06,2
-1.70774e-05,1.46036e-05,-5.11026e-06,-2.97757e-05,4.23282e-05,1.35444e-05,6.24004e-06,1.65265e-06,2
-2.23915e-05,1.29689e-05,-6.82587e-06,-1.77841e-05,3.89495e-05,1.55672e-05,1.80031e-05,7.82775e-07,2
-3.20895e-05,1.39545e-05,-7.28815e-06,-2.98609e-06,3.85688e-05,1.26601e-05,2.75048e-05,-9.31546e-07,2
-4.34051e-05,1.78102e-05,-5.97629e-06,7.59277e-06,3.39447e-05,2.78776e-06,2.30829e-05,-2.07286e-06,2
-5.23412e-05,2.03416e-05,-5.55107e-06,1.09965e-05,2.04615e-05,-1.34582e-05,1.24488e-05,-2.30754e-06,2
-5.60263e-05,2.07483e-05,-6.43724e-06,1.3167e-05,4.26192e-07,-3.02999e-05,6.19112e-06,-2.56839e-06,2
-5.40555e-05,2.05162e-05,-5.90743e-06,1.38935e-05,-2.03405e-05,-4.33143e-05,3.85297e-06,-3.61253e-06,2
-4.90126e-05,1.97645e-05,-4.58063e-06,5.98081e-06,-3.40438e-05,-4.82557e-05,5.03459e-06,-4.38441e-06,2
-4.37121e-05,1.76892e-05,-5.10949e-06,-1.08173e-05,-3.28598e-05,-4.70729e-05,8.57558e-06,-4.94884e-06,2
-3.76366e-05,1.38267e-05,-8.09865e-06,-2.56689e-05,-1.91238e-05,-4.3141e-05,8.5892e-06,-5.25584e-06,2
-3.14745e-05,9.24916e-06,-1.07672e-05,-2.52796e-05,-8.64555e-06,-3.81846e-05,9.62841e-07,-5.94274e-06,2
-2.95761e-05,6.55245e-06,-1.01755e-05,-4.14396e-06,-1.16232e-05,-3.22884e-05,-1.12413e-05,-6.04145e-06,2
-3.24751e-05,7.93687e-06,-6.85573e-06,2.62358e-05,-2.56362e-05,-2.82425e-05,-2.40832e-05,-5.03623e-06,2
-3.37955e-05,1.19807e-05,-3.45567e-06,4.61397e-05,-4.39437e-05,-2.69472e-05,-2.98391e-05,-3.06848e-06,2
-3.1219e-05,1.64797e-05,-5.09907e-07,4.69408e-05,-5.95977e-05,-2.9525e-05,-2.11879e-05,-2.77922e-06,2
-2.894e-05,2.04353e-05,1.57177e-06,3.63761e-05,-6.81949e-05,-3.76482e-05,-8.99563e-08,-3.62322e-06,2
-3.07879e-05,2.27173e-05,6.79292e-07,2.52125e-05,-7.05829e-05,-4.26343e-05,2.15341e-05,-3.93721e-06,2
-3.58048e-05,2.36293e-05,-2.11042e-06,1.76809e-05,-6.76801e-05,-3.46338e-05,3.89246e-05,-5.58374e-06,2
