ch1,ch2,ch3,ch4,ch5,ch6,ch7,ch8,class
-2.73805e-05,2.45788e-06,-2.5919e-05,-3.17841e-05,-5.98037e-05,-4.32552e-05,-5.6362e-06,2.50544e-06,2
-2.53569e-05,3.13519e-06,-2.25572e-05,-3.73506e-05,-3.81075e-05,-5.68069e-05,-7.39863e-06,1.0302e-05,2
-2.31515e-05,2.62075e-06,-1.31504e-05,-3.62786e-05,8.99041e-06,-5.78199e-05,-4.58529e-06,1.70003e-05,2
-2.07827e-05,4.51369e-06,-1.71901e-06,-2.99864e-05,4.00703e-05,-5.00874e-05,1.43131e-07,1.96042e-05,2
-1.48862e-05,1.21505e-05,7.15409e-06,-2.02325e-05,4.36004e-05,-3.14684e-05,9.4206e-06,1.7349e-05,2
-8.84612e-06,2.21809e-05,1.53172e-05,-1.05875e-05,4.20055e-05,-6.04965e-06,1.81717e-05,1.43539e-05,2
-5.92387e-06,2.76058e-05,2.08937e-05,-6.03683e-06,4.16031e-05,1.4622e-05,2.75806e-05,1.41611e-05,2
-5.41513e-06,2.73147e-05,1.69406e-05,-6.66126e-06,4.39259e-05,2.55876e-05,4.63356e-05,1.32139e-05,2
-7.0443e-06,2.45707e-05,5.5224e-06,-1.31686e-05,5.26645e-05,2.43382e-05,6.31058e-05,9.79204e-06,2
-1.31156e-05,1.80884e-05,-6.27454e-06,-2.06442e-05,5.69475e-05,1.78603e-05,6.16447e-05,1.30864e-06,2
-2.30051e-05,9.14086e-06,-1.29809e-05,-2.59157e-05,4.83555e-05,1.31189e-05,4.10807e-05,-1.01314e-05,2
-2.77714e-05,4.70168e-06,-1.39958e-05,-3.03416e-05,3.24823e-05,1.16519e-05,2.1337e-05,-1.91924e-05,2
-2.59817e-05,7.47699e-06,-1.13731e-05,-3.09415e-05,1.52134e-05,9.48086e-06,1.03587e-05,-2.4384e-05,2
-2.25563e-05,1.18402e-05,-7.43565e-06,-2.72695e-05,6.3199e-07,5.97278e-06,1.17042e-05,-2.7719e-05,2
-2.14872e-05,1.51367e-05,-3.64519e-06,-1.9702e-05,-1.38375e-05,2.91007e-06,1.90329e-05,-3.0239e-05,2
-2.31199e-05,1.93224e-05,-1.42666e-06,-1.20258e-05,-3.04185e-05,3.18504e-06,2.22368e-05,-3.03853e-05,2
-2.81203e-05,2.06507e-05,-1.7508e-06,-5.78355e-06,-4.24817e-05,1.08999e-05,2.55366e-05,-2.887e-05,2
-3.68135e-05,1.67872e-05,-4.34074e-06,-3.86959e-06,-4.12263e-05,2.20669e-05,3.21455e-05,-2.73712e-05,2
-4.63791e-05,1.12552e-05,-7.72047e-06,-6.4976e-06,-2.2739e-05,3.0542e-05,3.67166e-05,-2.60377e-05,2
-5.18898e-05,7.42976e-06,-9.6055e-06,-1.08302e-05,7.12886e-06,3.41912e-05,3.78842e-05,-2.39533e-05,2
-5.10943e-05,5.0833e-06,-8.07968e-06,-1.28553e-05,3.69219e-05,3.6659e-05,3.8923e-05,-2.02855e-05,2
-4.74725e-05,3.34147e-06,-4.6473e-06,-1.03151e-05,5.95346e-05,3.66603e-05,3.59372e-05,-1.4947e-05,2
-4.52892e-05,3.20186e-06,-1.65504e-06,-7.42265e-06,7.49829e-05,3.21549e-05,2.89197e-05,-8.75528e-06,2
-4.2997e-05,4.31981e-06,8.60493e-08,-1.06035e-05,7.81756e-05,2.57379e-05,2.12616e-05,-2.60521e-06,2
-3.66309e-05,6.8584e-06,1.97206e-07,-2.18028e-05,6.33026e-05,2.22837e-05,1.85637e-05,1.82057e-06,2
-2.7079e-05,1.14399e-05,-6.71075e-07,-3.60013e-05,3.81142e-05,2.10989e-05,2.04035e-05,2.88026e-06,2
-2.00838e-05,1.28447e-05,-4.32302e-06,-4.32303e-05,2.1486e-05,1.91277e-05,2.1167e-05,1.39858e-06,2
-2.08368e-05,2.56929e-06,-1.18465e-05,-3.20426e-05,1.94996e-05,1.16118e-05,2.08878e-05,-4.48759e-07,2
-2.78305e-05,-1.30642e-05,-1.90529e-05,6.77656e-07,1.40033e-05,3.619e-06,2.2507e-05,-6.75208e-07,2
-3.68842e-05,-1.70079e-05,-2.20282e-05,2.88292e-05,-3.89531e-06,-3.43482e-07,2.24022e-05,1.13774e-06,2
-4.62035e-05,-6.6397e-06,-2.0627e-05,2.4509e-05,-2.02602e-05,-7.77415e-06,1.91311e-05,2.84635e-06,2
-5.54596e-05,9.64699e-06,-1.78631e-05,4.42982e-06,-3.09189e-05,-1.63557e-05,1.4957e-05,2.45448e-06,2
-6.45226e-05,2.06068e-05,-1.71716e-05,-1.12693e-06,-3.79763e-05,-1.90232e-05,1.73336e-05,2.65592e-06,2
-7.05296e-05,1.95089e-05,-1.81483e-05,7.2583e-06,-3.65609e-05,-1.99824e-05,2.5434e-05,4.26189e-06,2
-7.25075e-05,7.42994e-06,-1.81034e-05,8.99814e-06,-2.606e-05,-2.16166e-05,2.70965e-05,5.11038e-06,2
-7.02534e-05,-7.85739e-06,-1.69453e-05,2.01645e-06,-1.27448e-05,-2.08569e-05,1.7983e-05,6.60418e-06,2
-6.07466e-05,-1.60061e-05,-1.45495e-05,-4.12989e-06,-1.77969e-06,-1.6833e-05,9.60538e-07,9.52687e-06,2
-4.63548e-05,-1.77464e-05,-8.59648e-06,-4.35472e-06,7.50167e-06,-9.26038e-06,-1.17163e-05,1.1492e-05,2
-3.36816e-05,-1.56171e-05,1.93916e-06,-4.91791e-07,1.70595e-05,-1.80652e-06,-9.29291e-06,1.0304e-05,2
-3.05541e-05,-9.96144e-06,1.36605e-05,5.36971e-06,3.6835e-05,1.12813e-05,7.18121e-06,5.79469e-06,2
-3.55371e-05,1.29187e-06,2.18804e-05,1.3904e-05,6.17206e-05,3.5252e-05,3.15344e-05,1.727e-06,2
-4.02364e-05,1.66054e-05,2.42468e-05,2.50564e-05,7.3225e-05,5.94281e-05,5.39818e-05,4.32005e-07,2
-3.71908e-05,2.98844e-05,1.95247e-05,3.24876e-05,6.69796e-05,6.72006e-05,6.4964e-05,-5.74267e-07,2
-2.20874e-05,4.0127e-05,1.03791e-05,3.10153e-05,5.26181e-05,5.55224e-05,6.65889e-05,-3.10994e-06,2
5.58916e-06,4.79123e-05,5.16827e-07,2.48606e-05,3.64354e-05,3.31766e-05,6.24474e-05,-6.38273e-06,2
4.28506e-05,4.79938e-05,-7.24936e-06,1.99726e-05,1.683e-05,1.25979e-05,4.96843e-05,-7.78998e-06,2
7.4413e-05,3.88868e-05,-1.01707e-05,1.78878e-05,1.32389e-06,4.75956e-06,3.13864e-05,-6.67071e-06,2
8.18262e-05,2.99649e-05,-8.30488e-06,1.37025e-05,-3.71994e-07,6.26196e-06,1.66852e-05,-5.99436e-06,2
6.19962e-05,2.46717e-05,-7.36064e-06,2.82839e-06,8.9331e-06,4.61665e-06,9.03748e-06,-7.21305e-06,2
3.04012e-05,1.94651e-05,-1.08131e-05,-1.56216e-05,1.59164e-05,-5.52153e-06,7.77465e-06,-8.01884e-06,2
5.12439e-06,1.52126e-05,-1.4912e-05,-3.41261e-05,1.68601e-05,-2.19765e-05,1.14087e-05,-7.62346e-06,2
-6.03965e-06,1.50803e-05,-1.53284e-05,-4.07491e-05,1.76549e-05,-4.10336e-05,1.5005e-05,-7.42472e-06,2
-8.35588e-06,1.55371e-05,-1.31402e-05,-2.51924e-05,2.05867e-05,-5.55881e-05,1.36483e-05,-7.17553e-06,2
-1.10304e-05,1.26179e-05,-1.26883e-05,5.6498e-06,2.26689e-05,-6.40426e-05,7.45057e-06,-7.01373e-06,2
-1.67594e-05,7.56533e-06,-1.44811e-05,2.4926e-05,2.13065e-05,-7.06932e-05,2.65195e-06,-9.34299e-06,2
-2.34854e-05,4.36758e-06,-1.55098e-05,1.41309e-05,1.6553e-05,-7.24011e-05,2.93796e-06,-1.0888e-05,2
-3.06188e-05,3.27667e-06,-1.53579e-05,-8.89229e-06,1.07516e-05,-5.86168e-05,5.02336e-06,-9.21817e-06,2
-3.94389e-05,3.11627e-06,-1.50613e-05,-2.01128e-05,5.67003e-06,-3.48428e-05,6.23691e-06,-6.85503e-06,2
-4.5639e-05,2.15577e-06,-1.51161e-05,-2.08908e-05,5.093e-06,-1.6365e-05,9.34031e-06,-5.20796e-06,2
-4.62435e-05,-2.44131e-07,-1.72389e-05,-2.08721e-05,7.74121e-06,-4.97233e-06,1.53844e-05,-4.92983e-06,2
-4.20214e-05,-1.38815e-06,-1.8106e-05,-1.87942e-05,6.91249e-06,5.15764e-06,2.01646e-05,-3.82411e-06,2
-3.61902e-05,2.88216e-07,-1.67233e-05,-1.09452e-05,3.67593e-06,1.24413e-05,2.24822e-05,-2.52651e-06,2
-3.12415e-05,6.31046e-06,-1.62785e-05,-4.2913e-06,5.03665e-07,1.23401e-05,2.36834e-05,-7.10852e-07,2
-2.68565e-05,1.26066e-05,-1.75321e-05,-5.79882e-06,1.73562e-06,8.53017e-06,2.57692e-05,-3.27941e-07,2
-2.63145e-05,1.49698e-05,-1.93312e-05,-1.07096e-05,1.14887e-05,2.62077e-06,2.94175e-05,-2.68701e-06,2
-2.90243e-05,1.51603e-05,-1.9416e-05,-1.18152e-05,2.55567e-05,-5.03999e-06,3.18184e-05,-1.62803e-06,2
-3.48554e-05,1.34709e-05,-1.72533e-05,-1.34513e-05,3.24315e-05,-1.00699e-05,2.47401e-05,2.9424e-06,2
-4.05612e-05,7.19253e-06,-1.71976e-05,-2.35243e-05,2.6422e-05,-7.26752e-06,1.08198e-05,5.43531e-06,2
-4.20893e-05,2.92657e-07,-2.10527e-05,-3.80305e-05,1.26693e-05,-2.70905e-06,1.46912e-06,3.98329e-06,2
-4.11714e-05,-6.73238e-07,-2.24989e-05,-3.97264e-05,3.40785e-07,-5.49058e-06,-3.20173e-07,2.93907e-06,2
-4.06281e-05,3.93683e-06,-1.90021e-05,-2.60125e-05,-4.98292e-06,-1.58838e-05,2.69535e-06,3.71071e-06,2
-4.20704e-05,1.04389e-05,-1.37789e-05,-1.27761e-05,-5.90281e-06,-2.81136e-05,5.28251e-06,5.36997e-06,2
-4.51681e-05,1.55791e-05,-1.04887e-05,-4.55707e-06,-7.67215e-06,-3.46621e-05,4.21746e-06,7.06657e-06,2
-4.85141e-05,1.78102e-05,-8.65453e-06,5.57692e-06,-1.14361e-05,-3.07802e-05,2.46717e-06,7.12555e-06,2
-4.92093e-05,1.58294e-05,-7.58264e-06,1.58072e-05,-1.59176e-05,-1.80441e-05,4.46416e-06,5.31654e-06,2
-4.91987e-05,1.27392e-05,-6.67513e-06,2.05013e-05,-1.97747e-05,-8.24261e-06,8.32959e-06,3.35744e-06,2
-5.15407e-05,1.20242e-05,-4.2014e-06,1.89883e-05,-2.14282e-05,-7.81567e-06,1.28775e-05,2.69817e-06,2
-5.60429e-05,1.21186e-05,-1.90044e-06,1.03187e-05,-1.78092e-05,-1.11865e-05,1.93461e-05,3.93513e-06,2
-5.8051e-05,1.08371e-05,-6.3075e-07,-5.62308e-06,-5.86168e-06,-1.28405e-05,2.83392e-05,5.36896e-06,2
-5.67127e-05,8.60035e-06,7.58965e-07,-2.03265e-05,1.1284e-05,-1.29565e-05,3.52012e-05,5.11145e-06,2
-5.35291e-05,7.60066e-06,2.872e-06,-2.33852e-05,2.40835e-05,-1.189e-05,3.41359e-05,6.68201e-06,2
-4.94016e-05,9.26349e-06,6.82437e-06,-1.56956e-05,2.63073e-05,-1.12227e-05,2.05742e-05,8.95347e-06,2
-4.62897e-05,1.06595e-05,1.10153e-05,-4.24657e-06,2.15286e-05,-1.0796e-05,-1.84689e-06,7.95583e-06,2
-4.50186e-05,7.78842e-06,1.16804e-05,1.13839e-05,1.33798e-05,-9.42452e-06,-2.19623e-05,5.67312e-06,2
-4.37687e-05,4.08582e-06,1.06118e-05,2.85919e-05,3.92195e-06,-8.78535e-06,-3.00934e-05,5.57748e-06,2
-4.11862e-05,4.22321e-06,9.0364e-06,3.69638e-05,-2.49142e-06,-9.11211e-06,-1.9192e-05,6.76865e-06,2
-4.05037e-05,8.5954e-06,6.38012e-06,3.50982e-05,-7.77841e-07,-5.87733e-06,3.53806e-06,7.49867e-06,2
-4.18632e-05,1.53106e-05,1.05389e-06,2.15522e-05,3.21598e-06,-8.28956e-07,2.57884e-05,7.06805e-06,2
-4.49081e-05,2.05404e-05,-6.8076e-06,5.13838e-09,-1.72967e-06,1.58431e-06,4.0865e-05,5.56555e-06,2
-4.63823e-05,2.2129e-05,-1.19382e-05,-1.6437e-05,-1.00423e-05,2.00709e-06,4.2018e-05,6.02869e-06,2
-4.30434e-05,2.12154e-05,-1.53832e-05,-2.14389e-05,-1.23033e-05,-4.08313e-08,2.7252e-05,8.65411e-06,2
-3.82851e-05,1.92252e-05,-1.8901e-05,-1.84416e-05,-7.74311e-06,-1.41337e-06,5.44566e-06,9.376e-06,2
-3.50657e-05,1.80828e-05,-1.84365e-05,-1.60104e-05,-2.36418e-06,2.75996e-07,-1.62952e-05,8.94657e-06,2
-3.33702e-05,1.65299e-05,-1.2352e-05,-1.29112e-05,-2.43572e-07,7.01208e-07,-3.22132e-05,1.00979e-05,2
-2.94613e-05,1.42289e-05,-6.18045e-06,-8.60927e-06,-7.04263e-07,-3.17378e-06,-3.34017e-05,1.13341e-05,2
-2.45558e-05,1.24857e-05,-3.86456e-06,-8.93817e-06,-1.34774e-06,-6.99358e-06,-2.42024e-05,1.07035e-05,2
-2.33922e-05,9.51995e-06,-3.65525e-06,-1.4498e-05,1.34689e-06,-9.12114e-06,-1.68122e-05,9.54733e-06,2
-2.66198e-05,2.64304e-06,-4.19655e-06,-1.35865e-05,5.43252e-06,-8.42087e-06,-1.7581e-05,8.87085e-06,2
-3.15802e-05,-7.87784e-06,-5.42595e-06,6.69455e-06,8.2681e-06,-4.9459e-06,-2.47681e-05,9.58025e-06,2
-3.52889e-05,-1.82533e-05,-7.69686e-06,4.4323e-05,1.18429e-05,-3.1344e-06,-3.2327e-05,1.26716e-05,2
-3.65541e-05,-2.45608e-05,-9.17516e-06,8.18416e-05,2.35069e-05,-1.56954e-06,-2.91752e-05,1.43827e-05,2
-3.62365e-05,-2.52039e-05,-8.8318e-06,9.9633e-05,4.55675e-05,3.43205e-06,-1.33385e-05,1.1531e-05,2
-3.54094e-05,-2.30549e-05,-8.02133e-06,8.96356e-05,6.87532e-05,9.05959e-06,2.37572e-06,5.71875e-06,2
-3.39633e-05,-2.04538e-05,-8.03871e-06,5.66185e-05,8.23241e-05,1.18512e-05,1.34046e-05,1.83397e-06,2
-3.38416e-05,-1.70145e-05,-6.87006e-06,2.09643e-05,8.3802e-05,1.7069e-05,2.62184e-05,1.56328e-06,2
-3.55505e-05,-9.14854e-06,-2.71043e-06,-9.76705e-07,7.59708e-05,2.89058e-05,4.23673e-05,2.57106e-06,2
-3.61905e-05,4.9618e-06,3.55627e-06,-1.00973e-05,6.25824e-05,4.09299e-05,5.58123e-05,2.80443e-06,2
-2.89979e-05,2.24276e-05,9.29422e-06,-1.35931e-05,5.00475e-05,4.8467e-05,6.11826e-05,2.15577e-06,2
-1.21323e-05,3.69881e-05,1.20633e-05,-1.44004e-05,4.65786e-05,5.38844e-05,5.7129e-05,3.01453e-06,2
2.32346e-06,4.12709e-05,1.35378e-05,-1.28046e-05,4.96252e-05,5.25509e-05,4.16852e-05,5.21574e-06,2
4.42785e-06,3.75091e-05,1.48596e-05,-9.4131e-06,4.11437e-05,3.75016e-05,1.36009e-05,7.58521e-06,2
-1.49534e-06,3.57147e-05,1.47095e-05,-8.18467e-06,1.19243e-05,6.84069e-06,-1.40187e-05,8.87069e-06,2
-9.45679e-06,4.10026e-05,1.23263e-05,-1.27942e-05,-2.87109e-05,-3.81024e-05,-3.34132e-05,6.84846e-06,2
-1.46926e-05,4.65496e-05,6.59242e-06,-2.31892e-05,-5.86885e-05,-7.36933e-05,-3.74829e-05,5.50226e-06,2
-1.53854e-05,4.94182e-05,-8.99902e-07,-3.68128e-05,-7.03013e-05,-8.60335e-05,-2.03502e-05,5.86586e-06,2
-1.06826e-05,5.17615e-05,-5.68403e-06,-4.70195e-05,-5.41854e-05,-8.31702e-05,5.20458e-06,2.93554e-06,2
-4.13651e-06,4.87551e-05,-7.06282e-06,-5.0262e-05,-6.69003e-06,-6.63742e-05,2.42675e-05,-1.37156e-06,2
-6.1784e-06,4.09934e-05,-6.32463e-06,-4.52268e-05,3.04719e-05,-3.90964e-05,3.0849e-05,-2.92505e-06,2
-2.50873e-05,2.96005e-05,-4.48796e-06,-2.73323e-05,3.97698e-05,-8.41198e-06,3.38361e-05,-2.99272e-06,2
-5.47043e-05,1.38167e-05,-4.09759e-06,8.35651e-08,3.6216e-05,1.08422e-05,3.63623e-05,-3.02985e-06,2
-8.07357e-05,-4.96598e-06,-5.60555e-06,1.77898e-05,3.47859e-05,1.41782e-05,3.2414e-05,-3.02624e-06,2
-9.92557e-05,-2.70119e-05,-9.23184e-06,1.28293e-05,4.05243e-05,9.45764e-06,2.37246e-05,-2.27913e-06,2
-0.000107507,-4.88639e-05,-1.38191e-05,-2.89995e-06,4.78903e-05,2.81206e-06,1.26831e-05,-1.64624e-06,2
-0.000109243,-6.05548e-05,-1.57404e-05,-1.17095e-05,5.25183e-05,-8.3649e-06,-1.66285e-06,-1.5352e-06,2
-0.000112358,-5.93068e-05,-1.62763e-05,-9.16125e-06,5.14047e-05,-2.20663e-05,-1.24182e-05,-1.86089e-06,2
-0.000116483,-5.03172e-05,-1.60321e-05,-2.32939e-06,4.60882e-05,-2.91249e-05,-1.35695e-05,-1.53135e-06,2
-0.000112067,-3.68405e-05,-1.25386e-05,1.57338e-06,3.68469e-05,-3.05634e-05,-1.14664e-05,1.7103e-06,2
-8.8375e-05,-1.62098e-05,-5.82791e-06,3.04442e-06,2.81704e-05,-3.35214e-05,-1.09608e-05,5.82515e-06,2
-3.75576e-05,1.42285e-05,-5.23001e-07,5.4397e-06,2.61342e-05,-3.65161e-05,-8.51256e-06,8.28244e-06,2
2.82349e-05,4.80812e-05,8.56275e-07,8.35654e-06,3.5064e-05,-2.59562e-05,-4.07627e-07,8.799e-06,2
7.51916e-05,7.52164e-05,-4.81744e-07,7.33374e-06,4.70722e-05,-6.74419e-07,9.91047e-06,8.34892e-06,2
9.06875e-05,8.98743e-05,-3.11588e-06,7.81353e-07,4.81184e-05,2.50601e-05,1.7122e-05,8.29671e-06,2
8.70569e-05,9.32818e-05,-6.47808e-06,-7.40232e-06,3.26841e-05,3.38402e-05,1.74946e-05,1.02411e-05,2
7.10477e-05,8.75455e-05,-1.09066e-05,-1.28183e-05,8.31879e-06,1.71083e-05,9.66094e-06,1.26276e-05,2
4.56215e-05,7.7912e-05,-1.33276e-05,-1.55622e-05,-1.86519e-05,-1.80171e-05,-2.96869e-06,1.2902e-05,2
1.73856e-05,6.89677e-05,-1.14226e-05,-1.79612e-05,-4.46769e-05,-5.42163e-05,-1.10559e-05,1.09172e-05,2
-3.97914e-06,6.31508e-05,-1.07856e-05,-2.11377e-05,-5.90344e-05,-8.42633e-05,-9.12931e-06,8.21087e-06,2
-1.31186e-05,5.91389e-05,-1.24809e-05,-2.3708e-05,-5.56179e-05,-0.000110611,-2.5182e-06,4.09224e-06,2
-1.85804e-05,5.17459e-05,-1.14868e-05,-2.28968e-05,-4.26832e-05,-0.000134171,4.19423e-06,-2.05051e-07,2
-2.54684e-05,4.04097e-05,-6.95008e-06,-1.4655e-05,-2.41853e-05,-0.000141303,1.04666e-05,2.15043e-07,2
-3.44227e-05,2.91113e-05,-2.72413e-06,-4.63462e-06,-5.92432e-06,-0.000117033,1.39413e-05,5.11077e-06,2
-4.43363e-05,1.70991e-05,-4.12117e-06,-3.91004e-06,3.9087e-06,-7.54267e-05,1.55109e-05,7.06636e-06,2
-5.171e-05,1.40996e-06,-9.50811e-06,-1.25021e-05,1.31726e-05,-3.96478e-05,1.83421e-05,4.22846e-06,2
-5.26216e-05,-1.23137e-05,-1.43738e-05,-2.23884e-05,2.24266e-05,-1.5099e-05,2.03072e-05,2.86303e-06,2
-4.74948e-05,-2.0082e-05,-1.69309e-05,-2.77112e-05,2.58743e-05,-1.31007e-06,1.63248e-05,3.9423e-06,2
-4.02265e-05,-2.44663e-05,-1.82702e-05,-2.95288e-05,2.4036e-05,4.687e-06,9.58658e-06,1.77284e-06,2
-3.31169e-05,-2.39867e-05,-1.80436e-05,-2.77544e-05,2.77535e-05,6.41256e-06,6.04943e-06,-5.15895e-06,2
-2.81352e-05,-1.5449e-05,-1.64983e-05,-2.18202e-05,3.74664e-05,3.543e-06,2.11279e-06,-1.18389e-05,2
-2.6458e-05,-3.90868e-06,-1.49113e-05,-1.34667e-05,3.86686e-05,1.58359e-06,3.08999e-07,-1.69496e-05,2
-2.60465e-05,3.29358e-06,-1.60599e-05,-7.51998e-06,2.46829e-05,5.51373e-06,1.90768e-06,-2.11932e-05,2
-2.65941e-05,3.90948e-06,-1.94248e-05,-6.79825e-06,5.95554e-06,1.55483e-05,5.65512e-06,-2.53943e-05,2
-2.86867e-05,-8.58451e-07,-2.24725e-05,-1.06745e-05,-3.49605e-06,2.84004e-05,1.29235e-05,-2.87079e-05,2
-3.12003e-05,-9.09425e-06,-2.4569e-05,-1.72555e-05,1.17207e-06,3.90464e-05,1.82933e-05,-2.90073e-05,2
-3.76264e-05,-1.90515e-05,-2.44331e-05,-2.20131e-05,1.61078e-05,4.29426e-05,1.46989e-05,-2.63263e-05,2
-4.94576e-05,-2.59866e-05,-2.20431e-05,-2.15389e-05,2.84737e-05,4.535e-05,7.00079e-06,-2.26206e-05,2
-6.26942e-05,-2.46757e-05,-1.73502e-05,-1.75671e-05,2.83562e-05,5.33357e-05,6.31292e-06,-1.94994e-05,2
-7.05751e-05,-1.7035e-05,-1.3121e-05,-1.45951e-05,1.96949e-05,6.34319e-05,9.52496e-06,-1.65251e-05,2
-7.24243e-05,-7.24298e-06,-9.92301e-06,-1.01404e-05,1.49538e-05,6.72476e-05,1.1722e-05,-1.34493e-05,2
-7.05201e-05,5.31174e-06,-4.94726e-06,-1.6866e-06,1.96879e-05,6.1941e-05,1.74886e-05,-1.18199e-05,2
-6.58479e-05,2.10326e-05,2.33576e-06,7.66544e-06,2.7307e-05,5.41466e-05,3.00704e-05,-1.13047e-05,2
-6.10083e-05,3.314e-05,5.64213e-06,1.34935e-05,2.6856e-05,4.84201e-05,4.48562e-05,-9.73177e-06,2
-5.87438e-05,3.60069e-05,1.47696e-06,1.10196e-05,1.91067e-05,3.38859e-05,5.19852e-05,-7.38467e-06,2
-5.48382e-05,3.3434e-05,-4.11036e-06,2.06686e-06,1.18098e-05,6.05992e-06,4.34438e-05,-5.14221e-06,2
-4.31731e-05,3.1885e-05,-4.93907e-06,-6.23291e-06,9.22376e-06,-1.40796e-05,2.26992e-05,-3.51636e-06,2
-2.49476e-05,3.10871e-05,-3.68644e-06,-1.23591e-05,1.49168e-05,-1.64384e-05,7.02519e-07,-2.12927e-06,2
-1.16055e-05,2.44868e-05,-5.18473e-06,-1.68011e-05,2.76182e-05,-1.77711e-05,-1.31024e-05,1.60473e-07,2
-1.10577e-05,1.39234e-05,-7.0497e-06,-1.49162e-05,4.03037e-05,-2.43561e-05,-1.37743e-05,1.18771e-06,2
-1.55543e-05,1.2251e-05,-3.504e-06,-2.52793e-06,4.47538e-05,-2.448e-05,-1.99219e-06,3.41608e-07,2
-2.41215e-05,1.74195e-05,2.79459e-06,1.31214e-05,3.27763e-05,-1.04199e-05,1.15643e-05,9.44324e-08,2
-4.09927e-05,1.57493e-05,3.59781e-06,2.01035e-05,8.66442e-06,7.61702e-06,2.05579e-05,-4.07313e-07,2
-5.62197e-05,1.03619e-05,-2.20323e-06,1.86733e-05,-2.01572e-05,1.55691e-05,2.83822e-05,-9.99979e-07,2
-5.52812e-05,4.74657e-06,-8.05857e-06,1.46552e-05,-4.6521e-05,1.42869e-05,3.54778e-05,-1.76551e-06,2
-3.35622e-05,3.33733e-07,-7.13196e-06,1.07737e-05,-5.69605e-05,1.08672e-05,4.17573e-05,-2.60022e-06,2
2.24586e-06,4.11956e-06,-2.96926e-06,8.55224e-06,-4.48872e-05,1.19097e-05,4.36441e-05,-3.67488e-06,2
4.1012e-05,1.60191e-05,-1.08741e-07,6.29834e-06,-1.70954e-05,1.18298e-05,3.4837e-05,-3.5082e-06,2
6.64001e-05,2.84289e-05,2.82526e-06,3.09839e-06,9.78223e-06,1.10307e-06,2.24892e-05,-2.07982e-06,2
6.31111e-05,3.34867e-05,5.55799e-06,-4.34751e-07,2.63159e-05,-2.1082e-05,2.02054e-05,-1.65758e-06,2
3.38794e-05,3.05414e-05,4.84183e-06,-3.21223e-06,2.96384e-05,-4.74912e-05,2.83342e-05,-1.29262e-06,2
-4.25706e-06,2.38707e-05,-2.84121e-07,-5.53826e-06,2.20001e-05,-6.61439e-05,3.98217e-05,-1.13787e-06,2
-3.55051e-05,1.90932e-05,-7.00322e-06,-1.01471e-05,1.23591e-05,-7.40187e-05,4.64299e-05,-4.82419e-07,2
-5.41477e-05,1.83742e-05,-1.16433e-05,-1.72193e-05,9.16811e-06,-8.48957e-05,4.39127e-05,1.77895e-06,2
-6.10884e-05,1.98204e-05,-1.24385e-05,-2.25149e-05,1.31762e-05,-0.000112015,3.73089e-05,5.68144e-06,2
-6.25837e-05,2.02811e-05,-1.0294e-05,-2.06656e-05,2.25835e-05,-0.000146394,3.37593e-05,8.59882e-06,2
-6.53873e-05,1.77826e-05,-6.39756e-06,-1.28867e-05,3.85056e-05,-0.000164091,3.12728e-05,1.02129e-05,2
-7.01384e-05,1.29996e-05,-2.87129e-06,-4.10177e-06,5.62044e-05,-0.000150433,2.60876e-05,1.21308e-05,2
-7.1277e-05,1.01291e-05,-2.17091e-06,3.32001e-06,6.26836e-05,-0.000114056,1.96164e-05,1.32271e-05,2
-6.33945e-05,1.24706e-05,-4.83805e-06,9.76197e-06,5.14779e-05,-7.52823e-05,1.30855e-05,1.19866e-05,2
-4.54501e-05,1.81842e-05,-8.63004e-06,1.35438e-05,3.25455e-05,-4.71073e-05,5.13966e-06,1.03655e-05,2
-1.87685e-05,2.31383e-05,-1.08328e-05,1.40109e-05,1.84107e-05,-2.6543e-05,-2.14296e-06,1.08921e-05,2
1.1474e-05,2.57617e-05,-1.10796e-05,1.41372e-05,1.25733e-05,-2.84666e-06,-3.56035e-06,1.32368e-05,2
3.42918e-05,2.72925e-05,-1.04271e-05,1.46759e-05,1.10769e-05,2.51093e-05,1.5066e-07,1.52184e-05,2
4.71456e-05,2.80115e-05,-8.69132e-06,1.265e-05,1.15957e-05,4.81359e-05,5.94297e-06,1.52777e-05,2
4.98931e-05,2.77519e-05,-4.44032e-06,5.69131e-06,1.05357e-05,6.03046e-05,1.31226e-05,1.46772e-05,2
3.50905e-05,2.46394e-05,-2.16133e-06,-8.26073e-06,3.27928e-06,6.52622e-05,1.60897e-05,1.26282e-05,2
1.06493e-05,1.42836e-05,-4.60327e-06,-2.6306e-05,-8.18003e-06,6.40818e-05,9.87349e-06,1.20855e-05,2
-1.30928e-05,1.8094e-06,-7.69298e-06,-3.90744e-05,-2.09698e-05,4.98194e-05,3.96957e-06,1.25498e-05,2
-2.88353e-05,-5.78818e-06,-9.99533e-06,-4.69905e-05,-3.14174e-05,1.91998e-05,4.98708e-06,8.5161e-06,2
-3.26139e-05,-9.7829e-06,-9.3374e-06,-5.12614e-05,-3.39606e-05,-2.01834e-05,1.06556e-05,3.62345e-06,2
-3.22943e-05,-9.44605e-06,-5.25449e-06,-4.9496e-05,-3.15947e-05,-5.46557e-05,2.02305e-05,1.23628e-06,2
-3.31991e-05,-7.45033e-06,-1.61165e-06,-3.88336e-05,-3.32759e-05,-7.11704e-05,3.53441e-05,3.92083e-07,2
-3.40593e-05,-8.18643e-06,-7.15004e-07,-1.77525e-05,-4.3884e-05,-5.719e-05,5.10858e-05,-2.60349e-07,2
-3.22549e-05,-1.18007e-05,-3.39685e-06,1.52828e-06,-6.18207e-05,-1.56285e-05,5.81949e-05,-1.69009e-06,2
-3.23482e-05,-1.57206e-05,-1.08407e-05,1.30012e-05,-7.34329e-05,2.7856e-05,6.12485e-05,-2.85672e-06,2
-3.81834e-05,-1.75857e-05,-2.21437e-05,1.84386e-05,-6.1045e-05,5.08861e-05,6.32345e-05,-2.30989e-06,2
-4.74374e-05,-1.58359e-05,-3.13286e-05,1.28179e-05,-2.05871e-05,5.75149e-05,5.78719e-05,-2.76791e-07,2
-5.39546e-05,-1.06053e-05,-3.17312e-05,-4.01265e-06,3.43476e-05,6.06358e-05,4.35899e-05,1.7141e-06,2
-5.71454e-05,-4.1542e-06,-2.47943e-05,-2.1604e-05,8.12468e-05,5.93032e-05,2.54104e-05,1.71696e-06,2
-6.27653e-05,1.92355e-06,-1.85447e-05,-2.9197e-05,0.000106009,4.60782e-05,7.10933e-06,-4.04625e-07,2
-7.0205e-05,6.8872e-06,-1.63104e-05,-2.43959e-05,0.000108507,2.22304e-05,-6.8216e-06,-2.9383e-06,2
-7.45036e-05,1.14051e-05,-1.48649e-05,-1.28421e-05,9.53813e-05,-3.91108e-06,-1.30279e-05,-4.53449e-06,2
-7.20091e-05,1.72625e-05,-1.14185e-05,-2.76171e-06,7.69128e-05,-2.57176e-05,-1.65238e-05,-4.84139e-06,2
-6.35893e-05,2.41309e-05,-6.42556e-06,4.1806e-06,6.37379e-05,-3.86505e-05,-2.44074e-05,-4.21934e-06,2
-5.21908e-05,2.93021e-05,-1.96807e-06,1.02593e-05,5.80479e-05,-4.13589e-05,-3.67133e-05,-4.07304e-06,2
-3.97576e-05,3.09974e-05,-9.66688e-10,1.23877e-05,5.40155e-05,-3.91364e-05,-4.53302e-05,-4.95667e-06,2
-2.50568e-05,2.96562e-05,-1.64405e-06,8.79514e-06,5.00793e-05,-3.92955e-05,-4.80309e-05,-4.79826e-06,2
-7.59961e-06,2.71993e-05,-4.52377e-06,1.10638e-05,5.12561e-05,-4.01849e-05,-4.59923e-05,-4.27925e-06,2
5.34837e-06,2.49169e-05,-5.36026e-06,2.29418e-05,5.56319e-05,-3.52743e-05,-3.9462e-05,-4.74804e-06,2
7.94796e-06,2.42028e-05,-5.24599e-06,3.12069e-05,5.30855e-05,-2.13501e-05,-3.00775e-05,-6.49305e-06,2
2.85337e-06,2.31436e-05,-5.64416e-06,2.92988e-05,3.7474e-05,-2.62177e-06,-1.99515e-05,-5.83388e-06,2
-8.45767e-06,1.79693e-05,-7.83476e-06,2.15362e-05,1.20616e-05,1.10033e-05,-4.7975e-06,-3.51677e-06,2
-2.17383e-05,1.17937e-05,-1.26403e-05,1.1177e-05,-1.65626e-05,1.33168e-05,1.54318e-05,-2.15779e-06,2
-2.90026e-05,1.1231e-05,-1.52047e-05,4.14399e-06,-3.81682e-05,8.39621e-06,2.74904e-05,-6.82915e-07,2
-2.97076e-05,1.26196e-05,-1.45886e-05,6.87582e-06,-4.99405e-05,7.07313e-06,3.14432e-05,-2.21256e-06,2
-2.84568e-05,1.10333e-05,-1.45194e-05,1.13343e-05,-5.67112e-05,1.291e-05,3.05906e-05,-4.26392e-06,2
-2.71893e-05,7.63195e-06,-1.2883e-05,1.01931e-05,-5.54217e-05,1.70107e-05,2.3438e-05,-3.60706e-06,2
-2.76897e-05,3.14696e-06,-8.93869e-06,7.24448e-06,-4.57801e-05,1.3471e-05,1.07058e-05,-2.94597e-06,2
-3.00488e-05,-2.27504e-06,-4.97094e-06,2.0332e-06,-2.90517e-05,8.06368e-06,-2.0252e-06,-2.57144e-06,2
-3.30022e-05,-7.00272e-06,-4.37531e-06,-7.96507e-06,-9.87535e-06,7.39446e-06,-6.51948e-06,9.72258e-07,2
-3.59058e-05,-8.9953e-06,-8.66704e-06,-2.08093e-05,1.15827e-05,1.06874e-05,-5.13218e-06,4.23759e-06,2
-3.7516e-05,-8.62327e-06,-1.32629e-05,-3.24952e-05,3.85338e-05,1.54626e-05,3.31734e-06,3.5045e-06,2
-3.71582e-05,-6.1532e-06,-1.34675e-05,-3.75009e-05,6.74211e-05,1.7885e-05,1.41296e-05,2.24579e-06,2
-3.72821e-05,-4.4624e-06,-1.09932e-05,-3.81762e-05,8.45181e-05,1.65949e-05,1.81272e-05,3.14085e-06,2
-4.16537e-05,-7.14142e-06,-8.97177e-06,-3.90366e-05,7.9427e-05,1.46945e-05,1.83253e-05,4.32719e-06,2
-5.03747e-05,-1.7347e-05,-8.20587e-06,-3.73889e-05,5.77515e-05,1.47518e-05,2.06629e-05,3.66913e-06,2
-6.021e-05,-3.21443e-05,-8.83829e-06,-2.92552e-05,3.36965e-05,1.87133e-05,2.50615e-05,2.7303e-06,2
-6.81246e-05,-4.54233e-05,-1.08899e-05,-1.80266e-05,2.05048e-05,2.40307e-05,3.14207e-05,1.62645e-06,2
-7.43451e-05,-5.26987e-05,-1.35229e-05,-7.86336e-06,1.81756e-05,2.66034e-05,3.86464e-05,7.87787e-07,2
-7.88892e-05,-5.03888e-05,-1.43811e-05,1.89077e-06,2.07527e-05,2.63579e-05,4.29399e-05,1.49229e-06,2
-8.20262e-05,-3.91697e-05,-1.36269e-05,1.40079e-05,2.27353e-05,2.31787e-05,4.33177e-05,3.45007e-06,2
-8.48022e-05,-2.55431e-05,-1.32861e-05,2.5555e-05,1.89564e-05,1.68981e-05,3.93712e-05,4.43951e-06,2
-8.85391e-05,-1.62905e-05,-1.57812e-05,2.53151e-05,5.29015e-06,1.38494e-05,3.16825e-05,4.30236e-06,2
-8.8469e-05,-6.71567e-06,-1.86993e-05,1.55476e-05,-1.18067e-05,1.8921e-05,2.23696e-05,4.5342e-06,2
-7.0888e-05,1.32099e-05,-1.81879e-05,1.05581e-05,-2.55033e-05,3.17362e-05,1.94807e-05,4.74704e-06,2
-2.69844e-05,4.08151e-05,-1.58256e-05,1.52736e-05,-3.58812e-05,4.66138e-05,2.52834e-05,3.97002e-06,2
2.39171e-05,6.12205e-05,-1.14263e-05,2.63517e-05,-4.60995e-05,5.42529e-05,2.94714e-05,2.73535e-06,2
4.90697e-05,6.95856e-05,-2.46163e-06,4.20849e-05,-5.59209e-05,5.45217e-05,1.83627e-05,2.16311e-06,2
4.87027e-05,7.29941e-05,8.47618e-06,4.57958e-05,-6.62984e-05,5.66452e-05,-1.33218e-05,1.89523e-06,2
4.36322e-05,7.97863e-05,1.8919e-05,2.18473e-05,-7.37851e-05,5.15632e-05,-5.77216e-05,8.54449e-07,2
3.48542e-05,8.85117e-05,2.60917e-05,-6.23377e-06,-6.43107e-05,2.59448e-05,-8.10209e-05,-6.63672e-07,2
1.90814e-05,9.2582e-05,2.59128e-05,-1.69064e-05,-4.06398e-05,-1.56728e-05,-6.21305e-05,1.35481e-06,2
6.42299e-06,8.92877e-05,1.86725e-05,-1.53419e-05,-1.47262e-05,-7.21259e-05,-1.90376e-05,5.53501e-06,2
4.47983e-06,8.08717e-05,1.02182e-05,-5.62309e-06,1.07953e-05,-0.000131966,2.48e-05,5.62281e-06,2
7.25714e-06,7.17373e-05,5.11736e-06,2.80784e-06,4.03737e-05,-0.000170931,5.10307e-05,3.22521e-06,2
6.93757e-06,6.11751e-05,1.75144e-07,-1.2574e-06,7.22846e-05,-0.000183226,6.63212e-05,8.51393e-07,2
1.99396e-06,5.12619e-05,-6.20568e-06,-1.58469e-05,9.44944e-05,-0.000178265,7.88243e-05,-1.45173e-06,2
-5.60762e-06,4.23002e-05,-1.11589e-05,-2.92445e-05,9.64874e-05,-0.000155201,9.02637e-05,-1.34132e-06,2
-1.32639e-05,3.40479e-05,-1.27943e-05,-3.07049e-05,7.84538e-05,-0.000116321,9.76971e-05,8.77156e-07,2
-1.95287e-05,2.8236e-05,-1.22268e-05,-1.91084e-05,6.09618e-05,-7.80131e-05,9.1673e-05,1.61749e-06,2
-2.34514e-05,2.45694e-05,-9.21015e-06,-9.20748e-06,5.56645e-05,-4.98049e-05,7.10117e-05,3.15097e-07,2
-2.57328e-05,2.17451e-05,-4.1618e-06,-1.24059e-05,5.1498e-05,-2.93438e-05,4.35172e-05,-4.84153e-07,2
-2.82582e-05,1.83894e-05,-1.0682e-06,-2.0921e-05,4.10603e-05,-1.42375e-05,1.3236e-05,-2.37331e-07,2
-3.34571e-05,1.4045e-05,-2.25813e-06,-1.7688e-05,3.24262e-05,-6.40997e-06,-2.56101e-05,8.32357e-07,2
-3.93754e-05,7.63986e-06,-5.37802e-06,5.06412e-06,3.55596e-05,-6.82943e-06,-6.29475e-05,2.71107e-06,2
-4.24117e-05,9.54536e-07,-6.95403e-06,3.19695e-05,4.04942e-05,-1.19652e-05,-8.61857e-05,5.70075e-06,2
-4.03811e-05,-3.57728e-06,-6.16499e-06,3.77305e-05,3.2214e-05,-1.57928e-05,-9.59793e-05,9.51267e-06,2
-3.43948e-05,-5.44544e-06,-4.07467e-06,1.72622e-05,1.45915e-05,-1.55624e-05,-9.73225e-05,1.24289e-05,2
-2.72991e-05,-5.3299e-06,-3.27258e-06,-6.60992e-06,-1.92089e-06,-1.12769e-05,-8.22953e-05,1.2862e-05,2
-2.04579e-05,-4.44429e-06,-4.09013e-06,-1.80153e-05,-2.5677e-05,-5.43652e-06,-4.97645e-05,1.14012e-05,2
-1.39482e-05,-4.53562e-06,-2.63112e-06,-2.17e-05,-6.01968e-05,4.21482e-07,-1.57324e-05,9.53331e-06,2
-1.04552e-05,-4.77878e-06,1.17407e-06,-2.80646e-05,-7.20399e-05,1.20267e-05,7.1173e-06,6.87328e-06,2
-1.2253e-05,-4.40795e-06,1.42923e-06,-3.83299e-05,-2.44195e-05,3.079e-05,1.91652e-05,4.61398e-06,2
-1.73812e-05,-5.53767e-06,-4.90076e-06,-4.55237e-05,5.39528e-05,4.44451e-05,2.41083e-05,3.86417e-06,2
-2.34485e-05,-9.23196e-06,-1.13331e-05,-3.50616e-05,0.000103748,4.73644e-05,2.12797e-05,2.8227e-06,2
-2.87558e-05,-1.16303e-05,-9.71146e-06,-3.8167e-06,0.000110209,4.61197e-05,1.65779e-05,1.23167e-06,2
-3.32643e-05,-9.62885e-06,-3.07127e-06,2.37235e-05,9.0259e-05,4.38333e-05,1.48002e-05,6.97548e-07,2
-4.06944e-05,-6.80843e-06,-5.87692e-07,2.83735e-05,7.28106e-05,4.31875e-05,1.60725e-05,1.60071e-06,2
-5.1585e-05,-3.39168e-06,-6.14758e-06,1.03233e-05,6.49896e-05,4.82487e-05,1.88311e-05,9.62348e-07,2
-5.62286e-05,4.32216e-06,-1.4153e-05,-1.888e-05,5.52477e-05,5.00988e-05,2.02135e-05,-1.80622e-06,2
-4.80282e-05,1.77701e-05,-1.87376e-05,-2.98207e-05,5.56795e-05,4.41608e-05,2.23636e-05,-4.82613e-06,2
-3.84452e-05,3.1383e-05,-1.78573e-05,-1.44092e-06,7.33836e-05,4.0794e-05,2.47842e-05,-5.67945e-06,2
-4.04252e-05,3.59461e-05,-1.41311e-05,4.11916e-05,8.55571e-05,4.25651e-05,2.5629e-05,-5.4199e-06,2
-4.9561e-05,3.14458e-05,-1.42592e-05,5.76167e-05,7.07268e-05,4.19804e-05,2.44442e-05,-5.94208e-06,2
-5.4554e-05,2.30138e-05,-1.85585e-05,5.01342e-05,2.27336e-05,3.2615e-05,1.90061e-05,-6.37724e-06,2
-5.08942e-05,1.55108e-05,-2.21226e-05,4.30102e-05,-5.39082e-05,1.2822e-05,1.56396e-05,-7.24342e-06,2
-4.73535e-05,1.24479e-05,-2.3252e-05,3.63191e-05,-0.000121147,-1.55404e-05,1.51128e-05,-6.83868e-06,2
-5.26866e-05,1.19474e-05,-2.45527e-05,2.20728e-05,-0.000137297,-3.92226e-05,1.19467e-05,-6.27743e-06,2
-6.47006e-05,9.89712e-06,-2.60218e-05,3.76331e-06,-9.92852e-05,-4.51404e-05,-1.9982e-06,-6.77128e-06,2
-7.47618e-05,6.19023e-06,-2.34117e-05,-1.00653e-05,-3.90333e-05,-4.37051e-05,-3.07762e-05,-5.86024e-06,2
-7.61033e-05,4.96544e-06,-1.55746e-05,-1.89636e-05,7.62686e-06,-5.543e-05,-6.06528e-05,-2.2359e-06,2
-6.83669e-05,9.22313e-06,-5.49271e-06,-2.55947e-05,3.4442e-05,-7.55985e-05,-6.4936e-05,6.61476e-07,2
-5.57736e-05,1.57544e-05,3.62891e-06,-2.72708e-05,5.36551e-05,-8.13602e-05,-3.65736e-05,1.16862e-06,2
-4.44674e-05,1.67707e-05,9.20686e-06,-2.13522e-05,6.9419e-05,-6.1942e-05,4.80824e-06,1.95118e-06,2
-4.04962e-05,7.14151e-06,9.99624e-06,-1.3293e-05,7.20248e-05,-3.10825e-05,3.97094e-05,3.39178e-06,2
-4.22367e-05,-6.98046e-06,8.9165e-06,-9.90567e-06,6.12296e-05,-1.39055e-05,5.72587e-05,5.78068e-06,2
-4.06583e-05,-1.11275e-05,1.18995e-05,-9.60378e-06,4.5986e-05,-1.54543e-05,5.72109e-05,9.95553e-06,2
-3.33292e-05,-1.83143e-06,1.81399e-05,-8.97169e-06,3.48607e-05,-1.86907e-05,5.27457e-05,1.41731e-05,2
-2.80951e-05,8.67662e-06,1.93701e-05,-7.62978e-06,2.66932e-05,-1.51566e-05,5.54417e-05,1.68928e-05,2
-3.07262e-05,9.47704e-06,1.20361e-05,-8.30547e-06,5.49331e-06,-1.45273e-05,5.93622e-05,1.93361e-05,2
-3.56913e-05,3.10849e-06,6.54042e-07,-1.14012e-05,-3.26585e-05,-2.52633e-05,5.74919e-05,2.27054e-05,2
-3.71532e-05,5.35021e-07,-7.52343e-06,-1.2034e-05,-6.12546e-05,-4.14369e-05,4.78563e-05,2.60033e-05,2
-3.45234e-05,5.68213e-06,-8.19179e-06,-1.15216e-05,-6.08826e-05,-4.64354e-05,3.57422e-05,2.41029e-05,2
-3.61026e-05,2.50369e-05,-1.44504e-06,-7.28122e-06,5.40491e-05,-1.12912e-05,3.97972e-08,8.72348e-06,2
-2.59697e-05,2.41996e-05,-7.33136e-07,-1.14009e-05,1.96456e-05,-1.2208e-05,5.82523e-06,8.69321e-06,2
-1.90274e-05,2.31205e-05,1.25197e-06,-1.10108e-05,-2.13863e-07,-1.18382e-06,1.1561e-05,9.54935e-06,2
-2.07114e-05,2.10244e-05,4.08117e-06,-6.66111e-06,-5.99038e-06,1.03367e-05,2.08232e-05,9.78138e-06,2
-2.65112e-05,1.66564e-05,1.8106e-06,-3.3313e-06,-1.16607e-05,6.31785e-06,2.4342e-05,8.90983e-06,2
-2.88527e-05,1.03872e-05,-5.30249e-06,-3.29996e-06,-2.2476e-05,-1.38043e-05,1.6682e-05,7.53856e-06,2
-2.81166e-05,4.19793e-06,-1.03335e-05,-1.8775e-07,-2.98249e-05,-3.00802e-05,1.03608e-05,5.94688e-06,2
-2.52265e-05,1.1977e-06,-1.06275e-05,1.12102e-05,-3.16628e-05,-2.91508e-05,1.32878e-05,2.50492e-06,2
-1.9981e-05,2.48812e-06,-9.1978e-06,2.179e-05,-3.21403e-05,-1.92317e-05,1.94451e-05,-7.34417e-08,2
-1.5133e-05,7.59385e-06,-8.10577e-06,2.09988e-05,-3.45005e-05,-1.03305e-05,2.41882e-05,-8.51661e-07,2
-1.41367e-05,1.1103e-05,-6.80904e-06,1.136e-05,-3.40418e-05,-4.70052e-06,2.61036e-05,-3.26752e-07,2
-1.90138e-05,1.13041e-05,-5.32858e-06,7.97457e-07,-2.5177e-05,-3.42942e-06,2.2549e-05,-3.40645e-08,2
-2.68887e-05,1.10151e-05,-3.34799e-06,-7.09646e-06,-8.09427e-06,-2.47844e-06,1.69545e-05,-7.64865e-07,2
-3.47334e-05,1.03389e-05,-2.27239e-06,-1.20642e-05,1.2679e-05,-4.6722e-07,1.36359e-05,-1.41045e-06,2
-4.22546e-05,7.28011e-06,-3.84658e-06,-1.35911e-05,3.67617e-05,1.17606e-06,1.02218e-05,-1.22627e-06,2
-4.96866e-05,1.76175e-06,-7.70624e-06,-1.40302e-05,6.29297e-05,2.006e-07,6.50086e-06,3.12141e-07,2
-5.62483e-05,-3.19709e-06,-1.10974e-05,-1.69442e-05,7.60948e-05,-2.30245e-06,4.61564e-06,2.36957e-07,2
-6.26758e-05,-6.01742e-06,-1.25533e-05,-1.93939e-05,5.57882e-05,3.46249e-07,3.53178e-06,-3.00725e-06,2
-6.76868e-05,-6.66075e-06,-1.31848e-05,-1.77051e-05,9.17807e-06,1.05246e-05,5.30853e-06,-7.16849e-06,2
-6.5857e-05,-6.45581e-06,-1.43511e-05,-1.56859e-05,-2.34542e-05,1.88012e-05,1.22794e-05,-8.01824e-06,2
-5.25788e-05,-7.00294e-06,-1.60039e-05,-1.71676e-05,-1.11894e-05,1.46128e-05,1.72083e-05,-6.84101e-06,2
-2.7662e-05,-7.46547e-06,-1.69486e-05,-1.59076e-05,3.22262e-05,3.80862e-06,1.51402e-05,-5.83758e-06,2
-3.1896e-06,-3.81962e-06,-1.78271e-05,-9.65674e-06,6.61513e-05,-1.35018e-06,1.25098e-05,-5.26018e-06,2
4.00483e-06,4.88176e-06,-1.94675e-05,-7.69784e-06,7.25192e-05,6.66983e-06,1.88938e-05,-5.41142e-06,2
-4.53217e-06,1.44894e-05,-1.96576e-05,-1.27985e-05,6.77158e-05,2.15382e-05,3.3167e-05,-4.90498e-06,2
-1.58259e-05,2.04417e-05,-1.82598e-05,-1.79415e-05,6.05576e-05,2.47108e-05,4.73909e-05,-3.89853e-06,2
-2.30616e-05,2.11104e-05,-1.65359e-05,-1.78386e-05,3.4736e-05,1.39206e-05,6.30801e-05,-3.67766e-06,2
-2.13904e-05,1.88049e-05,-1.27977e-05,-1.27775e-05,-1.82184e-05,6.45512e-06,8.06886e-05,-2.47767e-06,2
-9.88236e-06,1.84823e-05,-9.18205e-06,-5.47208e-06,-6.4173e-05,8.02069e-06,8.68306e-05,-2.07465e-06,2
-2.94124e-06,2.2301e-05,-7.89947e-06,1.30577e-06,-6.86241e-05,-6.79924e-08,7.19111e-05,-3.4478e-06,2
-9.70473e-06,2.76934e-05,-6.5729e-06,5.73965e-06,-3.83217e-05,-2.95305e-05,4.20931e-05,-3.1419e-06,2
-2.31816e-05,2.94016e-05,-3.05584e-06,1.95798e-06,8.49319e-06,-5.25253e-05,7.8145e-06,-1.92656e-06,2
-3.91446e-05,2.47901e-05,1.53416e-07,-9.95618e-06,5.00189e-05,-4.79547e-05,-2.46521e-05,-1.0692e-06,2
-5.19905e-05,1.7724e-05,-1.1722e-06,-1.7937e-05,7.40296e-05,-2.66985e-05,-5.02202e-05,-9.3569e-07,2
-5.48079e-05,1.38242e-05,-4.80178e-06,-1.74419e-05,7.46215e-05,-3.01087e-06,-6.44933e-05,-9.78215e-08,2
-4.46506e-05,1.38637e-05,-6.69037e-06,-1.3108e-05,5.82987e-05,8.67496e-06,-7.02618e-05,1.352e-06,2
-2.102e-05,1.74238e-05,-5.6615e-06,-1.21831e-05,3.66607e-05,-1.54251e-06,-6.58682e-05,1.77426e-06,2
9.98689e-06,2.32991e-05,-3.60819e-06,-1.49272e-05,6.48453e-06,-2.81435e-05,-4.91715e-05,2.68718e-07,2
3.34411e-05,2.82772e-05,-2.1191e-06,-1.83931e-05,-3.08684e-05,-5.10652e-05,-2.59563e-05,-1.68646e-06,2
3.8897e-05,3.06675e-05,-1.5665e-06,-1.55894e-05,-5.7398e-05,-4.87782e-05,-2.85203e-06,-2.65525e-06,2
3.0455e-05,3.32782e-05,-2.09275e-07,1.87106e-06,-4.55839e-05,-2.52177e-05,1.42257e-05,-2.51747e-06,2
1.88386e-05,3.75382e-05,3.53034e-06,2.29093e-05,1.16719e-05,-1.06952e-05,2.23298e-05,-7.54011e-07,2
1.24855e-05,3.9361e-05,5.51969e-06,2.69234e-05,8.72123e-05,-1.68186e-05,2.46927e-05,2.90621e-06,2
1.26592e-05,3.6468e-05,2.88165e-06,1.19413e-05,0.000137668,-2.86994e-05,2.75385e-05,6.21437e-06,2
1.25658e-05,3.02314e-05,-3.16098e-06,-4.91564e-06,0.000137274,-3.64085e-05,3.29398e-05,6.31235e-06,2
4.66006e-06,2.26054e-05,-1.15562e-05,-1.53706e-05,9.46805e-05,-4.49811e-05,4.06785e-05,5.91093e-06,2
-9.6866e-06,1.37245e-05,-1.97258e-05,-1.88002e-05,4.4856e-05,-5.44433e-05,4.74619e-05,7.09731e-06,2
-2.32674e-05,4.67977e-06,-2.04064e-05,-9.05639e-06,2.23799e-05,-5.46941e-05,4.91777e-05,8.19815e-06,2
-3.24514e-05,-1.92313e-06,-1.28777e-05,1.26806e-05,3.01675e-05,-4.29097e-05,4.28521e-05,7.82035e-06,2
-3.85938e-05,-3.26545e-06,-6.00851e-06,2.45765e-05,3.49483e-05,-3.32817e-05,2.943e-05,5.61412e-06,2
-4.29169e-05,4.09559e-07,-4.58907e-06,1.49186e-05,1.33014e-05,-3.83718e-05,1.36427e-05,2.7357e-06,2
-4.62599e-05,6.24678e-06,-4.48693e-06,9.49909e-07,-2.01595e-05,-4.79848e-05,1.56781e-06,2.26363e-06,2
-5.13368e-05,1.12309e-05,-1.4546e-06,-9.16596e-07,-3.71291e-05,-4.79024e-05,-5.56307e-06,1.77432e-06,2
-6.01697e-05,1.49821e-05,3.36443e-06,6.37196e-06,-2.13313e-05,-3.75115e-05,-1.10399e-05,-9.28081e-07,2
-6.9393e-05,1.70211e-05,4.67272e-06,1.74684e-05,1.02167e-05,-2.10002e-05,-1.77567e-05,-4.24819e-06,2
-7.14397e-05,1.69313e-05,1.88206e-06,2.8065e-05,2.29032e-05,-1.53813e-06,-3.32866e-05,-8.61193e-06,2
-6.01199e-05,1.64344e-05,-1.85227e-06,2.79477e-05,2.2777e-05,1.86988e-05,-5.00554e-05,-1.10887e-05,2
-3.9357e-05,1.79341e-05,-7.53762e-06,1.57331e-05,2.66538e-05,3.6976e-05,-4.52172e-05,-1.01298e-05,2
-2.45846e-05,1.90248e-05,-1.37362e-05,1.42009e-07,2.59759e-05,4.66427e-05,-1.89074e-05,-7.84037e-06,2
-2.81369e-05,1.67268e-05,-1.67975e-05,-9.07714e-06,1.8507e-05,3.93587e-05,1.36806e-05,-6.30315e-06,2
-4.31504e-05,1.48595e-05,-1.53505e-05,-9.11069e-06,6.95789e-06,1.37432e-05,4.63067e-05,-5.5176e-06,2
-5.67539e-05,1.42423e-05,-1.14476e-05,-3.63642e-06,-1.54659e-05,-1.35382e-05,7.20273e-05,-3.31275e-06,2
-6.64276e-05,1.23231e-05,-7.3591e-06,1.81843e-06,-5.1968e-05,-2.49378e-05,8.02065e-05,-7.02359e-07,2
-7.46301e-05,9.33757e-06,-3.89048e-06,4.69393e-06,-8.37656e-05,-1.64172e-05,7.40529e-05,5.45852e-07,2
-8.28118e-05,5.42825e-06,1.2762e-07,2.86201e-06,-9.66954e-05,5.68361e-06,6.20918e-05,7.66147e-07,2
-8.69668e-05,1.40476e-06,5.09488e-06,-3.40849e-06,-9.24212e-05,3.12527e-05,4.90027e-05,1.09612e-08,2
-8.19603e-05,-5.39275e-07,9.9459e-06,-1.18874e-05,-7.8492e-05,4.77364e-05,4.09895e-05,-1.21161e-06,2
-6.61052e-05,-5.09005e-07,1.22131e-05,-2.07454e-05,-5.38432e-05,4.79624e-05,3.79851e-05,-2.12268e-06,2
-4.63039e-05,-9.75209e-07,8.56039e-06,-2.94469e-05,-1.95387e-05,3.94284e-05,3.37281e-05,-2.3192e-06,2
-3.07609e-05,-4.956e-06,-7.39942e-07,-3.93308e-05,6.2636e-06,3.07647e-05,2.85829e-05,-2.57399e-06,2
-2.25318e-05,-1.06356e-05,-1.17542e-05,-4.7991e-05,1.55879e-05,1.98172e-05,2.84042e-05,-3.56891e-06,2
-2.27899e-05,-1.38234e-05,-2.0586e-05,-5.02752e-05,2.83859e-05,1.95298e-06,2.68472e-05,-4.25429e-06,2
-2.88578e-05,-1.32488e-05,-2.61141e-05,-4.48698e-05,6.32108e-05,-1.79354e-05,1.63699e-05,-5.38572e-06,2
-3.41069e-05,-8.70367e-06,-2.91351e-05,-4.0238e-05,0.000101065,-3.05925e-05,6.20297e-06,-6.75589e-06,2
-3.09782e-05,2.8599e-06,-2.92221e-05,-3.80581e-05,0.000108928,-2.60878e-05,1.28349e-05,-7.33675e-06,2
-1.69219e-05,2.28503e-05,-2.07429e-05,-2.67408e-05,8.59555e-05,-7.60026e-06,3.7461e-05,-8.49883e-06,2
4.11256e-07,4.36214e-05,-6.17772e-06,2.68621e-06,5.8091e-05,7.35019e-06,5.8121e-05,-9.67079e-06,2
7.43126e-06,4.97681e-05,2.23786e-06,3.40863e-05,4.20892e-05,8.79381e-06,5.04879e-05,-9.49954e-06,2
2.31035e-06,4.1295e-05,2.97327e-06,4.20525e-05,5.05894e-05,3.85085e-06,1.75944e-05,-8.88145e-06,2
-5.96076e-06,3.557e-05,3.40277e-06,3.57668e-05,7.17531e-05,4.76257e-06,-1.62778e-05,-1.07202e-05,2
-1.26681e-05,3.76714e-05,6.00233e-06,3.60154e-05,7.31718e-05,5.26663e-06,-3.61567e-05,-1.27035e-05,2
-1.64738e-05,3.83139e-05,5.17609e-06,3.41847e-05,3.7934e-05,-1.2445e-05,-4.25503e-05,-1.22315e-05,2
-1.97607e-05,3.17096e-05,-1.24176e-06,1.71745e-05,-1.52314e-05,-4.38232e-05,-3.87304e-05,-1.12078e-05,2
-2.39463e-05,1.99699e-05,-8.01838e-06,-7.47088e-06,-4.31843e-05,-7.92554e-05,-2.8544e-05,-9.46565e-06,2
-2.81918e-05,1.20556e-05,-1.24764e-05,-2.76939e-05,-3.19083e-05,-0.00011023,-1.76646e-05,-6.8458e-06,2
-3.53678e-05,1.1284e-05,-1.42247e-05,-3.63042e-05,2.4969e-06,-0.000117947,-1.37212e-05,-4.48045e-06,2
-4.54909e-05,9.33348e-06,-1.53408e-05,-2.87109e-05,2.31754e-05,-9.77615e-05,-1.6251e-05,-3.32986e-06,2
-5.83686e-05,3.57872e-06,-1.67183e-05,-1.45421e-05,1.38452e-05,-6.51956e-05,-1.91364e-05,-2.41584e-06,2
-7.0317e-05,-1.79329e-06,-1.67569e-05,-7.83342e-06,5.73295e-06,-4.11172e-05,-1.75377e-05,-2.18504e-06,2
-7.41248e-05,-6.10338e-07,-1.23264e-05,-6.7058e-06,3.55496e-05,-2.85011e-05,-6.9714e-06,-1.55813e-07,2
-6.71173e-05,7.1511e-06,-6.29802e-06,-9.46162e-06,8.45436e-05,-1.94453e-05,1.46669e-05,3.14991e-06,2
-5.25152e-05,1.58884e-05,-3.52174e-06,-1.26076e-05,9.89627e-05,-1.15619e-05,3.83e-05,5.72583e-06,2
-3.47101e-05,2.04425e-05,-3.70705e-06,-7.3326e-06,6.60407e-05,-6.72829e-06,4.85423e-05,7.45028e-06,2
-1.58764e-05,2.02671e-05,-3.90939e-06,1.10394e-05,1.75575e-05,-2.00433e-06,5.04631e-05,7.59706e-06,2
4.8108e-06,1.86376e-05,-1.76438e-06,3.20261e-05,-1.45251e-05,6.44616e-06,5.32054e-05,6.66687e-06,2
2.41099e-05,1.6813e-05,-1.79172e-07,3.74852e-05,-2.85549e-05,1.75677e-05,5.61837e-05,5.63652e-06,2
3.10241e-05,1.44663e-05,-3.65252e-07,2.75217e-05,-3.12801e-05,2.92114e-05,5.79586e-05,5.83653e-06,2
2.05651e-05,1.23712e-05,-1.17946e-06,1.28036e-05,-2.40234e-05,3.84583e-05,5.81727e-05,5.9162e-06,2
-3.76838e-07,1.3324e-05,-1.83199e-06,-9.44264e-07,-7.17635e-06,4.14954e-05,5.18935e-05,6.60887e-06,2
-2.1084e-05,1.55046e-05,-4.81377e-06,-1.18907e-05,1.09598e-05,3.40207e-05,3.68616e-05,7.13961e-06,2
-3.74173e-05,1.47153e-05,-1.03685e-05,-1.64182e-05,2.61438e-05,1.57546e-05,2.01056e-05,6.80327e-06,2
-4.83888e-05,9.6125e-06,-1.55748e-05,-1.55223e-05,4.20047e-05,-5.84583e-06,6.2675e-06,5.94933e-06,2
-5.4267e-05,2.19549e-06,-1.80673e-05,-1.6536e-05,5.62023e-05,-1.84084e-05,-7.38009e-06,5.62846e-06,2
-5.85049e-05,-4.49306e-06,-1.87886e-05,-2.38488e-05,5.92854e-05,-2.37639e-05,-1.79509e-05,4.55395e-06,2
-6.19669e-05,-4.86421e-06,-1.89845e-05,-3.11737e-05,4.57289e-05,-3.16615e-05,-1.80902e-05,1.73375e-06,2
-6.44659e-05,-1.56757e-06,-1.78408e-05,-3.05294e-05,1.29034e-05,-2.94779e-05,-1.24773e-05,2.0494e-07,2
-7.01652e-05,-3.68846e-06,-1.6556e-05,-2.37046e-05,-2.83694e-05,-9.91108e-06,-1.19464e-05,1.84369e-06,2
-7.52442e-05,-9.21573e-06,-1.69538e-05,-1.79558e-05,-4.90078e-05,1.64408e-06,-1.90423e-05,4.38932e-06,2
-7.12252e-05,-1.07006e-05,-1.86254e-05,-1.05272e-05,-3.94977e-05,2.08455e-06,-2.76969e-05,4.9193e-06,2
-5.33866e-05,-3.72714e-06,-1.56455e-05,1.54825e-06,-1.79173e-05,1.09857e-05,-3.26308e-05,3.77568e-06,2
-2.25687e-05,4.58158e-06,-7.72716e-06,1.01351e-05,-8.70767e-06,2.38771e-05,-3.06828e-05,2.61116e-06,2
-2.06562e-06,8.30308e-06,-4.78906e-06,1.20357e-05,-2.34876e-05,2.96286e-05,-2.54391e-05,1.30158e-06,2
-4.19387e-06,1.12598e-05,-6.26621e-06,1.02398e-05,-5.47786e-05,3.72104e-05,-2.17332e-05,7.13496e-08,2
-4.15941e-06,1.51555e-05,-6.52271e-06,9.53212e-06,-7.89204e-05,5.39474e-05,-2.01972e-05,1.06348e-06,2
1.05253e-05,2.0747e-05,-5.71671e-06,5.80364e-06,-6.3908e-05,7.61772e-05,-1.81731e-05,1.38475e-06,2
1.88421e-05,2.20718e-05,-4.57932e-06,-6.99901e-06,-7.64867e-06,9.86013e-05,-1.37645e-05,4.71083e-07,2
2.67555e-06,1.58559e-05,-4.1157e-06,-2.20962e-05,3.55266e-05,0.000108495,-1.11879e-05,1.62552e-06,2
-2.40778e-05,8.64866e-06,-3.62387e-06,-2.7924e-05,3.24673e-05,9.38011e-05,-1.06148e-05,5.43931e-06,2
-4.18166e-05,5.38214e-06,-3.46545e-06,-2.15781e-05,5.06269e-06,4.88978e-05,-1.03341e-05,9.19885e-06,2
-4.65792e-05,6.02474e-06,-1.79751e-06,-8.83784e-06,-1.91989e-05,-1.62992e-05,-1.25823e-05,1.15455e-05,2
-4.55322e-05,9.57489e-06,1.22699e-06,2.603e-06,-2.94912e-05,-6.59144e-05,-1.80251e-05,1.40586e-05,2
-4.60738e-05,1.43404e-05,2.26304e-06,8.87007e-06,-2.73247e-05,-7.32822e-05,-2.67557e-05,1.63241e-05,2
-4.74699e-05,1.64954e-05,-1.08093e-06,1.17615e-05,-1.45033e-05,-5.79835e-05,-3.39353e-05,1.68602e-05,2
-4.67709e-05,1.34766e-05,-6.65464e-06,1.07474e-05,-3.86099e-06,-4.53089e-05,-3.02131e-05,1.54304e-05,2
-4.12381e-05,6.52481e-06,-9.78871e-06,4.52303e-06,-1.344e-05,-3.52547e-05,-1.13759e-05,1.1575e-05,2
-3.22084e-05,3.3951e-07,-1.11742e-05,-4.54344e-06,-3.94e-05,-2.5574e-05,1.72893e-05,6.44231e-06,2
-2.28794e-05,-2.2752e-06,-1.30327e-05,-1.01115e-05,-5.38754e-05,-2.20325e-05,4.48495e-05,4.32936e-06,2
-1.62045e-05,-4.36125e-07,-1.34263e-05,-6.54699e-06,-3.74415e-05,-2.4297e-05,6.15136e-05,6.21168e-06,2
-9.70048e-06,6.43402e-06,-1.07429e-05,6.86946e-07,5.63183e-06,-2.89553e-05,6.14894e-05,8.78839e-06,2
-3.30818e-06,1.42292e-05,-6.98031e-06,-1.74411e-06,5.77189e-05,-3.31363e-05,4.86809e-05,8.79617e-06,2
-1.50737e-06,1.84298e-05,-5.969e-06,-1.34657e-05,9.65629e-05,-3.23986e-05,3.70009e-05,5.92819e-06,2
-2.736e-06,2.35264e-05,-9.62224e-06,-1.93942e-05,0.000103851,-3.10755e-05,3.6818e-05,2.95893e-06,2
-4.68492e-06,2.78547e-05,-1.52077e-05,-1.60234e-05,7.49174e-05,-3.68308e-05,4.445e-05,2.98592e-06,2
-1.02222e-05,2.66929e-05,-1.88563e-05,-1.48448e-05,2.36861e-05,-5.29132e-05,4.89329e-05,5.11316e-06,2
-1.65268e-05,2.31064e-05,-1.86167e-05,-2.18577e-05,-2.21702e-05,-7.89117e-05,4.2241e-05,6.02648e-06,2
-1.743e-05,2.06619e-05,-1.47807e-05,-3.22444e-05,-3.5332e-05,-0.000104588,2.69113e-05,5.23131e-06,2
-1.62219e-05,2.19426e-05,-7.5056e-06,-3.21959e-05,-1.0085e-05,-0.000110308,1.49571e-05,5.01489e-06,2
-1.5336e-05,2.61159e-05,-8.09263e-07,-1.48653e-05,3.17481e-05,-9.58226e-05,1.40189e-05,6.09991e-06,2
-1.04796e-05,3.20223e-05,3.14205e-06,8.55006e-06,6.00715e-05,-8.09818e-05,2.18238e-05,7.69274e-06,2
-3.78569e-06,3.95197e-05,4.97075e-06,2.28791e-05,6.00295e-05,-7.35591e-05,3.33373e-05,9.70093e-06,2
3.17846e-07,4.37822e-05,5.52352e-06,2.03885e-05,3.9777e-05,-6.35027e-05,4.31e-05,8.32862e-06,2
-9.71693e-07,3.80334e-05,5.23402e-06,1.19783e-05,2.47384e-05,-4.43464e-05,4.5963e-05,4.02773e-06,2
-7.64902e-06,2.51515e-05,4.35137e-06,9.37128e-06,3.27614e-05,-2.25928e-05,3.84517e-05,5.58106e-07,2
-1.91801e-05,1.52081e-05,4.8199e-06,1.09045e-05,6.06913e-05,-2.41259e-06,2.39817e-05,-2.1291e-06,2
-3.38277e-05,1.05808e-05,7.31282e-06,1.18137e-05,9.13454e-05,1.27817e-05,1.39985e-05,-6.16302e-06,2
-4.18008e-05,4.12395e-06,9.28124e-06,1.03878e-05,0.000108175,1.88871e-05,9.90589e-06,-1.18189e-05,2
-4.24595e-05,-5.48939e-06,6.70904e-06,6.24517e-06,0.000107637,1.93921e-05,4.30026e-06,-1.60825e-05,2
-4.2181e-05,-1.38164e-05,1.92142e-06,1.55453e-06,9.08188e-05,1.88975e-05,1.38843e-06,-1.74225e-05,2
-4.29098e-05,-1.79954e-05,-2.11409e-06,1.07504e-06,6.40103e-05,1.72262e-05,7.15422e-06,-1.78782e-05,2
-4.28453e-05,-1.72311e-05,-4.42615e-06,3.42379e-07,4.54711e-05,1.596e-05,1.7212e-05,-2.00137e-05,2
-4.06985e-05,-1.12764e-05,-5.59187e-06,-4.80414e-06,4.74848e-05,1.99249e-05,2.75272e-05,-2.25058e-05,2
-3.78423e-05,-2.76559e-06,-6.43342e-06,-1.16516e-05,5.90492e-05,2.7872e-05,3.71315e-05,-2.38436e-05,2
-3.89496e-05,3.34619e-06,-8.0626e-06,-1.85542e-05,5.87035e-05,3.20157e-05,4.27904e-05,-2.24545e-05,2
-4.38375e-05,9.10284e-06,-1.02033e-05,-2.53905e-05,3.90988e-05,2.58123e-05,4.17695e-05,-1.96283e-05,2
-4.37746e-05,2.22836e-05,-1.02423e-05,-2.80584e-05,1.27374e-05,1.5759e-05,3.47106e-05,-1.73827e-05,2
-3.8326e-05,4.04071e-05,-8.91803e-06,-2.25714e-05,-4.63837e-06,1.25e-05,2.35562e-05,-1.49648e-05,2
-3.86584e-05,4.77639e-05,-8.81555e-06,-8.80887e-06,-5.29297e-06,1.40127e-05,1.37661e-05,-1.07601e-05,2
-4.85607e-05,3.95665e-05,-1.02477e-05,8.85224e-06,6.5092e-06,9.54055e-06,9.78401e-06,-6.00408e-06,2
-5.75949e-05,2.95694e-05,-1.12726e-05,2.31239e-05,1.04967e-05,-5.53856e-06,6.21355e-06,-4.35067e-06,2
-5.50624e-05,2.85534e-05,-1.12639e-05,2.52053e-05,-5.77633e-06,-2.7484e-05,-4.35193e-06,-3.81522e-06,2
-4.20432e-05,3.30852e-05,-8.53062e-06,1.40868e-05,-2.7255e-05,-5.29368e-05,-1.89853e-05,-1.54955e-06,2
-2.80275e-05,3.67832e-05,-3.07407e-06,5.13572e-06,-3.67186e-05,-7.60966e-05,-2.76243e-05,1.20947e-06,2
-2.19403e-05,3.58197e-05,6.72203e-07,3.28293e-06,-2.92828e-05,-9.11118e-05,-2.73776e-05,2.56683e-06,2
-2.46566e-05,2.92971e-05,4.43182e-07,2.32413e-06,-1.07193e-05,-8.58796e-05,-2.23945e-05,3.80344e-06,2
-3.05846e-05,1.94427e-05,-4.70468e-06,-2.45135e-06,1.17712e-05,-5.19594e-05,-1.33653e-05,6.08456e-06,2
-3.61825e-05,1.157e-05,-1.06757e-05,-8.67658e-06,3.67964e-05,-1.07369e-05,-4.14195e-06,7.07516e-06,2
-3.79899e-05,8.58523e-06,-1.24035e-05,-6.40887e-06,5.42158e-05,9.86592e-06,1.77475e-06,5.24876e-06,2
-3.67911e-05,7.66679e-06,-1.19199e-05,7.492e-06,4.34532e-05,9.19096e-06,4.6e-06,3.30584e-06,2
-3.59754e-05,5.83102e-06,-1.02219e-05,2.47593e-05,2.16898e-06,6.95823e-06,7.5481e-06,4.46116e-06,2
-3.79502e-05,4.09694e-06,-7.86027e-06,3.28164e-05,-3.06032e-05,1.09246e-05,1.18393e-05,5.61546e-06,2
-4.49816e-05,3.4268e-06,-6.11479e-06,2.74584e-05,-2.74216e-05,1.51023e-05,1.11378e-05,6.23673e-06,2
-5.3684e-05,1.77609e-06,-5.99033e-06,1.61529e-05,-1.07988e-05,1.61255e-05,7.59358e-06,7.79714e-06,2
-5.84618e-05,-1.57426e-07,-5.88272e-06,1.01574e-05,-6.71908e-06,1.42667e-05,6.6105e-06,1.00339e-05,2
-6.02695e-05,-1.40552e-06,-5.66613e-06,7.9939e-06,-1.01289e-05,1.2479e-05,1.51301e-05,1.14725e-05,2
-6.45929e-05,-4.98697e-06,-8.56785e-06,3.29523e-06,-5.62779e-06,1.36281e-05,4.29434e-05,1.03859e-05,2
-7.06255e-05,-1.16732e-05,-1.49066e-05,-4.95709e-06,5.65013e-06,1.40034e-05,8.06186e-05,8.90471e-06,2
-7.13716e-05,-1.60605e-05,-1.93106e-05,-1.23605e-05,1.72047e-05,7.6087e-06,9.88345e-05,9.56694e-06,2
-6.16483e-05,-1.43211e-05,-1.71443e-05,-1.62748e-05,2.77934e-05,-4.67369e-06,8.77294e-05,1.14054e-05,2
-4.37459e-05,-9.30147e-06,-1.07401e-05,-1.74459e-05,3.80783e-05,-1.97506e-05,6.02642e-05,1.16914e-05,2
-2.08522e-05,-5.731e-06,-4.67343e-06,-1.74487e-05,4.20494e-05,-3.47539e-05,2.79035e-05,1.19986e-05,2
6.46305e-06,-1.41787e-06,-8.23826e-07,-1.80553e-05,2.84931e-05,-4.06517e-05,-4.77305e-07,1.3286e-05,2
2.92672e-05,7.00486e-06,2.19611e-06,-1.80956e-05,-2.00116e-06,-2.72607e-05,-1.81401e-05,1.48786e-05,2
3.10289e-05,1.507e-05,3.23723e-06,-1.79338e-05,-2.78447e-05,-6.93558e-07,-2.59135e-05,1.62243e-05,2
9.56663e-06,1.75662e-05,2.25641e-07,-1.82645e-05,-2.79293e-05,2.65185e-05,-2.73443e-05,1.74261e-05,2
-1.98726e-05,1.83504e-05,-3.52419e-06,-1.73069e-05,-4.68565e-06,5.25052e-05,-2.03441e-05,1.7089e-05,2
-4.36949e-05,2.27212e-05,-6.17389e-06,-1.34818e-05,2.27213e-05,6.94572e-05,-6.88553e-06,1.58909e-05,2
-5.98571e-05,2.54015e-05,-9.69117e-06,-9.48042e-06,3.32423e-05,6.30134e-05,5.44254e-06,1.52239e-05,2
-7.26461e-05,2.13437e-05,-1.51868e-05,-8.09044e-06,1.9275e-05,3.76509e-05,1.08618e-05,1.39309e-05,2
-8.3746e-05,1.3393e-05,-2.39796e-05,-1.6051e-05,-1.21155e-05,9.81878e-06,8.87513e-06,1.18476e-05,2
-9.25747e-05,4.53692e-06,-3.04928e-05,-2.90058e-05,-4.66388e-05,-1.34533e-05,2.78542e-06,1.16393e-05,2
-8.91653e-05,2.74089e-06,-2.93178e-05,-2.98345e-05,-5.33704e-05,-2.69818e-05,-8.11653e-07,1.14805e-05,2
-6.85606e-05,1.0063e-05,-2.1958e-05,-1.40577e-05,-2.49589e-05,-1.31835e-05,-2.05696e-06,7.62848e-06,2
-3.31767e-05,1.76705e-05,-1.32785e-05,3.4667e-06,8.56197e-06,2.13134e-05,-6.01298e-06,1.42235e-07,2
1.491e-05,2.1346e-05,-8.61331e-06,7.63087e-06,1.50131e-05,5.0485e-05,-1.17206e-05,-7.766e-06,2
5.5771e-05,2.39283e-05,-5.61681e-06,2.24158e-07,-1.25196e-05,7.09074e-05,-1.38997e-05,-1.07075e-05,2
6.3975e-05,2.82644e-05,-1.51569e-06,-8.74478e-06,-4.35256e-05,8.04892e-05,-8.48466e-06,-1.15064e-05,2
4.11117e-05,2.96441e-05,-2.39496e-07,-1.46768e-05,-6.10391e-05,6.95802e-05,1.45435e-06,-1.34074e-05,2
8.77224e-06,2.51027e-05,-2.36286e-06,-1.50486e-05,-5.56022e-05,4.15584e-05,1.16303e-05,-1.61167e-05,2
-1.26763e-05,1.945e-05,-4.39164e-06,-9.87586e-06,-2.61212e-05,8.92482e-06,2.52751e-05,-1.73216e-05,2
