ch1,ch2,ch3,ch4,ch5,ch6,ch7,ch8,class
3.54069e-05,9.15744e-05,-1.90966e-05,-2.01503e-05,-2.18162e-05,-0.000639239,1.83446e-05,-9.41427e-06,2
3.59099e-05,7.71619e-05,-1.76239e-05,-6.85195e-06,-3.6347e-05,-0.000561899,1.18401e-05,-5.06933e-06,2
2.64506e-05,6.52206e-05,-1.27434e-05,4.26391e-06,-5.19416e-05,-0.000456731,1.35142e-06,-3.2108e-06,2
7.0476e-06,5.81224e-05,-6.93559e-06,6.75483e-06,-5.69164e-05,-0.000394512,-7.69021e-06,-3.24332e-06,2
-8.4782e-06,5.43943e-05,-1.81551e-06,4.28259e-07,-4.99929e-05,-0.000344336,-1.16214e-05,-2.17848e-06,2
-1.43591e-05,5.24117e-05,2.87582e-06,-5.64429e-06,-3.6197e-05,-0.000277308,-1.49723e-05,2.384e-06,2
-1.6498e-05,4.82981e-05,5.87204e-06,-7.8671e-06,-1.16602e-05,-0.000210965,-1.8411e-05,6.58178e-06,2
-1.85634e-05,4.03945e-05,5.70367e-06,-9.35276e-06,2.14739e-05,-0.000172644,-2.11688e-05,8.5692e-06,2
-2.33455e-05,2.93846e-05,9.82262e-07,-1.23171e-05,5.27397e-05,-0.000161746,-2.37306e-05,9.92825e-06,2
-2.92652e-05,1.90151e-05,-5.24207e-06,-1.68605e-05,7.15569e-05,-0.000149757,-2.08196e-05,1.09256e-05,2
-3.60361e-05,1.04086e-05,-8.17893e-06,-2.12424e-05,7.14704e-05,-0.000105874,-1.18686e-05,1.21524e-05,2
-4.16751e-05,2.43867e-06,-7.4833e-06,-2.19167e-05,5.24246e-05,-4.51562e-05,-3.8075e-06,1.36345e-05,2
-4.64838e-05,-5.8609e-06,-5.30031e-06,-1.74798e-05,2.25209e-05,6.71249e-07,3.09119e-06,1.43081e-05,2
-4.81588e-05,-1.21741e-05,-2.67835e-06,-1.00892e-05,-2.26676e-06,1.94169e-05,1.59139e-05,1.27265e-05,2
-4.69607e-05,-1.65252e-05,-5.66042e-07,-5.04732e-06,-1.0472e-05,2.48139e-05,3.34283e-05,9.30047e-06,2
-4.28048e-05,-2.16109e-05,-2.47919e-06,-5.84312e-06,-2.06076e-06,2.6873e-05,4.68849e-05,5.54536e-06,2
-3.54956e-05,-2.92111e-05,-8.43298e-06,-1.14521e-05,1.05048e-05,2.81705e-05,5.00072e-05,4.59302e-06,2
-2.40206e-05,-3.63625e-05,-1.45674e-05,-2.03112e-05,1.73548e-05,2.75556e-05,4.43195e-05,6.21003e-06,2
-1.21367e-05,-4.07503e-05,-1.87344e-05,-3.00634e-05,1.80406e-05,3.03204e-05,3.80621e-05,6.20947e-06,2
-6.97677e-06,-4.37626e-05,-2.27836e-05,-2.95034e-05,1.71164e-05,4.28457e-05,3.71578e-05,3.63623e-06,2
-1.37625e-05,-4.4816e-05,-2.48459e-05,-1.2144e-05,1.99175e-05,7.50651e-05,3.75773e-05,1.27761e-06,2
-3.37005e-05,-4.21168e-05,-1.97598e-05,3.74767e-06,3.62622e-05,0.000124746,3.12489e-05,4.18762e-07,2
-6.81043e-05,-3.75401e-05,-1.13145e-05,-3.5707e-07,5.86787e-05,0.000166893,1.67608e-05,1.9631e-07,2
-0.000115144,-3.16907e-05,-8.19073e-06,-1.61226e-05,6.49681e-05,0.000188489,3.95719e-06,-7.43302e-07,2
-0.000174009,-1.80672e-05,-9.07651e-06,-2.44466e-05,4.93907e-05,0.000195658,-2.6248e-06,-9.22581e-07,2
-0.000233025,2.28833e-07,-8.29828e-06,-1.50814e-05,2.72315e-05,0.000192665,-7.59307e-06,-6.35871e-07,2
-0.000262888,1.07888e-05,-5.71979e-06,7.99499e-06,1.66946e-05,0.000179342,-1.15863e-05,-1.21595e-06,2
-0.000246903,6.78349e-06,-7.81491e-06,2.63242e-05,2.89396e-05,0.000167161,-1.22518e-05,-1.51347e-06,2
-0.000200296,-4.83021e-06,-1.78828e-05,2.83995e-05,6.24772e-05,0.000168537,-6.91615e-06,-2.19283e-06,2
-0.000142962,-6.55015e-06,-2.96554e-05,2.44663e-05,9.15128e-05,0.000159206,2.70863e-06,-4.85314e-06,2
-5.44357e-05,8.15822e-06,-3.50102e-05,2.04461e-05,9.6103e-05,9.40098e-05,1.74758e-05,-6.72339e-06,2
7.39025e-05,3.07499e-05,-3.20322e-05,1.03167e-05,7.35089e-05,-9.31335e-06,3.63488e-05,-4.86404e-06,2
0.000188895,4.69794e-05,-2.40178e-05,6.42679e-06,3.59514e-05,-7.06242e-05,4.86576e-05,-1.26216e-06,2
0.000217965,4.88523e-05,-1.65179e-05,2.43761e-05,4.24162e-06,-5.14604e-05,4.63818e-05,1.26128e-06,2
0.000162603,3.75035e-05,-1.42319e-05,5.07634e-05,-1.13068e-05,2.75161e-06,2.83918e-05,1.3037e-06,2
8.22426e-05,2.16449e-05,-1.65228e-05,5.36815e-05,-1.11588e-05,3.22846e-05,-1.19868e-08,7.53479e-07,2
2.8123e-05,1.26712e-05,-1.83116e-05,2.85154e-05,2.75673e-06,1.66265e-05,-2.36677e-05,6.72931e-07,2
7.85766e-06,1.20984e-05,-1.71411e-05,-1.97543e-06,2.15809e-05,-1.32278e-05,-3.30441e-05,-3.22122e-07,2
6.39176e-07,1.29525e-05,-1.44824e-05,-2.25474e-05,2.89723e-05,-2.16132e-05,-3.32485e-05,-1.18702e-06,2
-5.29726e-06,1.10904e-05,-1.12723e-05,-3.26409e-05,2.32813e-05,-1.60689e-05,-2.74865e-05,-4.39889e-07,2
-1.18982e-05,9.97299e-06,-8.6875e-06,-3.72761e-05,1.45115e-05,-3.1715e-05,-1.29415e-05,3.1645e-07,2
-1.59848e-05,1.04624e-05,-8.58971e-06,-3.97675e-05,9.31839e-06,-6.39782e-05,6.70492e-06,2.1364e-06,2
-1.82222e-05,1.00301e-05,-1.0347e-05,-4.07028e-05,8.60407e-06,-6.74985e-05,2.40325e-05,5.43269e-06,2
-1.91037e-05,7.47327e-06,-1.03626e-05,-3.82194e-05,1.19798e-05,-3.17262e-05,3.89366e-05,7.75821e-06,2
-2.10946e-05,4.56866e-06,-9.55169e-06,-2.72122e-05,1.55998e-05,5.95328e-06,5.00528e-05,7.64349e-06,2
-2.39372e-05,3.25216e-06,-1.03607e-05,9.55517e-07,1.5126e-05,2.00393e-05,4.72395e-05,6.04449e-06,2
-2.66039e-05,4.32001e-06,-1.28627e-05,3.71802e-05,8.67809e-06,1.83599e-05,2.73131e-05,4.77802e-06,2
-2.70851e-05,4.97398e-06,-1.42735e-05,4.96812e-05,-8.18098e-06,1.41884e-05,1.041e-06,3.78724e-06,2
-2.82959e-05,3.9856e-06,-1.37294e-05,2.43138e-05,-4.26781e-05,1.445e-05,-2.10161e-05,3.92942e-06,2
-3.20386e-05,1.14965e-06,-1.18794e-05,-9.05405e-06,-8.20075e-05,1.78594e-05,-3.42481e-05,5.44667e-06,2
-3.92122e-05,-3.13393e-06,-1.07493e-05,-2.40221e-05,-9.75637e-05,1.50912e-05,-3.51592e-05,6.95496e-06,2
-5.05631e-05,-6.70774e-06,-1.21258e-05,-2.06445e-05,-7.25665e-05,5.75633e-06,-2.24691e-05,7.5366e-06,2
-6.17537e-05,-1.39088e-05,-1.19681e-05,-1.03606e-05,-1.78167e-05,2.2091e-06,-3.1609e-07,6.2505e-06,2
-6.69442e-05,-2.7623e-05,-8.67676e-06,-4.35258e-06,3.19316e-05,7.83523e-06,2.28591e-05,3.8644e-06,2
-6.96151e-05,-3.7709e-05,-5.96426e-06,-4.15602e-06,6.40123e-05,2.23158e-05,3.95975e-05,3.41983e-06,2
-7.85258e-05,-4.0043e-05,-6.31235e-06,-8.70336e-06,8.30998e-05,3.44122e-05,3.83169e-05,6.1726e-06,2
-9.26539e-05,-4.28941e-05,-8.40124e-06,-1.39734e-05,7.45838e-05,3.02835e-05,1.11113e-05,9.40566e-06,2
-0.000100673,-4.6861e-05,-9.82373e-06,-1.05162e-05,2.26507e-05,1.46533e-05,-1.84856e-05,8.2837e-06,2
-9.39389e-05,-4.36469e-05,-5.78161e-06,2.64523e-06,-5.02877e-05,1.05209e-06,-3.06957e-05,4.45289e-06,2
-6.31007e-05,-2.50638e-05,2.85416e-06,8.28386e-06,-0.000103866,-4.87125e-06,-3.70312e-05,2.46755e-06,2
-4.03063e-06,7.5559e-06,1.27413e-05,2.61822e-06,-0.00012615,1.57556e-07,-4.08626e-05,2.10292e-06,2
5.79882e-05,4.30322e-05,2.31303e-05,2.1488e-06,-0.000119939,1.57617e-05,-3.81152e-05,1.40006e-06,2
8.2623e-05,6.58799e-05,2.98772e-05,6.58146e-06,-7.92862e-05,4.15458e-05,-3.11165e-05,1.67479e-07,2
5.5327e-05,6.97183e-05,2.99793e-05,5.51668e-06,-2.40517e-06,8.52505e-05,-1.31933e-05,-1.95053e-07,2
6.20176e-06,5.84777e-05,2.45283e-05,1.79189e-06,8.15868e-05,0.00014215,2.024e-05,5.85257e-07,2
-2.84863e-05,4.32865e-05,1.57948e-05,-2.22786e-06,0.000111602,0.000182727,5.49257e-05,5.15137e-07,2
-3.57883e-05,3.75463e-05,5.17996e-06,-8.01399e-06,5.95758e-05,0.000166232,7.64593e-05,-1.43496e-06,2
-2.47251e-05,4.73777e-05,-5.26192e-06,-1.13756e-05,-2.26575e-05,8.02256e-05,8.62965e-05,-3.95643e-06,2
-1.26742e-05,6.37118e-05,-1.39936e-05,-6.15575e-06,-4.24578e-05,-4.63202e-05,8.79409e-05,-5.18454e-06,2
-1.31268e-05,6.89652e-05,-1.92419e-05,7.05536e-06,4.4981e-05,-0.000169423,8.15522e-05,-3.70573e-06,2
-2.533e-05,5.73169e-05,-2.06674e-05,1.98633e-05,0.000176515,-0.000245905,6.9736e-05,-1.61894e-06,2
-4.01438e-05,3.85805e-05,-2.07009e-05,2.12491e-05,0.000232235,-0.000241974,5.39684e-05,-5.12698e-07,2
-5.14632e-05,2.36712e-05,-2.07754e-05,1.25786e-05,0.000174635,-0.000171231,3.16116e-05,5.20725e-07,2
-5.59471e-05,1.59843e-05,-1.92731e-05,5.66736e-06,8.65067e-05,-9.42833e-05,9.59379e-07,1.17261e-06,2
-5.24756e-05,1.47745e-05,-1.40589e-05,4.426e-06,4.78379e-05,-4.98036e-05,-3.63277e-05,-1.18154e-06,2
-4.66673e-05,1.62602e-05,-6.85621e-06,4.31478e-06,6.29803e-05,-3.18542e-05,-6.98627e-05,-5.76836e-06,2
-4.36772e-05,1.84827e-05,-3.17696e-06,1.30075e-06,9.28442e-05,-2.53195e-05,-8.28217e-05,-8.13196e-06,2
-4.0924e-05,2.29154e-05,-3.04998e-06,-3.39496e-06,9.91447e-05,-2.35743e-05,-7.51153e-05,-6.21539e-06,2
-3.09271e-05,2.82291e-05,-1.76836e-06,-5.60464e-06,5.59133e-05,-2.2911e-05,-5.85721e-05,-3.66402e-06,2
-1.58381e-05,3.12919e-05,1.18079e-08,-2.46135e-06,-1.84899e-05,-1.82581e-05,-3.30007e-05,-3.04657e-06,2
-7.89333e-06,3.57399e-05,2.34652e-07,1.7193e-06,-6.86977e-05,-1.15074e-05,7.71566e-06,-1.60192e-06,2
-1.25026e-05,3.81909e-05,-1.70957e-06,-1.00285e-06,-5.52121e-05,-1.57409e-05,4.93426e-05,-1.35436e-06,2
-2.65397e-05,3.15938e-05,-3.05092e-06,-1.02689e-05,2.53021e-05,-3.50632e-05,7.14453e-05,-2.0931e-06,2
-4.49128e-05,1.98545e-05,-2.4604e-06,-2.10846e-05,0.000124789,-4.79053e-05,6.64924e-05,-1.92481e-06,2
-6.52038e-05,9.56979e-06,-2.48239e-06,-3.03914e-05,0.000182317,-3.62441e-05,4.59734e-05,-2.59588e-06,2
-7.88482e-05,2.00789e-06,-1.50475e-06,-3.65428e-05,0.000169047,-1.27763e-05,2.42984e-05,-3.60359e-06,2
-8.12544e-05,-3.89596e-06,1.19497e-06,-4.3294e-05,0.000110388,3.27854e-06,4.32045e-06,-3.47543e-06,2
-7.58851e-05,-6.68698e-06,4.50476e-06,-5.34284e-05,5.4314e-05,1.47851e-05,-6.22701e-06,-2.23784e-06,2
-6.62126e-05,-3.8335e-06,7.32723e-06,-6.42122e-05,8.75166e-06,3.19376e-05,-5.3627e-06,-7.97595e-07,2
-4.77474e-05,4.3979e-06,1.00849e-05,-7.23329e-05,-3.90904e-05,5.43031e-05,3.93597e-06,-3.09112e-07,2
-1.54688e-05,1.20383e-05,1.1972e-05,-7.28017e-05,-6.57215e-05,7.60178e-05,1.78456e-05,-1.74371e-06,2
1.92852e-05,1.38407e-05,7.90671e-06,-6.36097e-05,-4.69371e-05,8.85135e-05,2.87505e-05,-3.59058e-06,2
3.88442e-05,1.15662e-05,-2.33494e-06,-5.08481e-05,-2.29351e-05,8.61457e-05,2.81846e-05,-3.35362e-06,2
3.95289e-05,1.23757e-05,-1.22976e-05,-3.3896e-05,-5.48862e-05,7.10328e-05,2.09123e-05,-1.08236e-06,2
3.09475e-05,2.0783e-05,-1.69911e-05,-2.62726e-06,-0.000142378,4.27993e-05,1.73916e-05,1.04856e-06,2
1.65058e-05,3.16452e-05,-1.83622e-05,3.7245e-05,-0.000206541,-5.43447e-06,1.78521e-05,1.95521e-06,2
-7.36393e-06,3.55975e-05,-1.79121e-05,6.10489e-05,-0.000173689,-7.70737e-05,1.91156e-05,2.68286e-06,2
-4.2293e-05,3.11451e-05,-1.45156e-05,5.98401e-05,-6.51485e-05,-0.000160296,1.90799e-05,5.48022e-06,2
-8.78952e-05,2.14305e-05,-8.3158e-06,4.9326e-05,2.67146e-05,-0.000215311,1.68656e-05,9.0236e-06,2
-0.000141972,4.30393e-06,-2.76904e-06,4.0912e-05,4.69782e-05,-0.000196844,1.29695e-05,1.17223e-05,2
-0.000191933,-1.80081e-05,-1.36864e-06,3.24126e-05,2.01974e-05,-0.000102758,8.65789e-06,1.20668e-05,2
-0.000215126,-3.27605e-05,-4.63508e-06,2.16469e-05,5.7188e-06,1.42613e-05,3.51182e-06,9.81965e-06,2
-0.000203274,-3.71337e-05,-1.05214e-05,9.83681e-06,4.27997e-05,9.89303e-05,-3.01187e-06,7.81715e-06,2
-0.000169661,-4.09215e-05,-1.7844e-05,-1.66009e-06,0.00010262,0.000148597,-1.00722e-05,5.47467e-06,2
-0.000126793,-4.56056e-05,-2.43195e-05,-9.16234e-06,0.000110903,0.000188764,-1.18767e-05,1.11791e-06,2
-7.08949e-05,-4.16347e-05,-2.35997e-05,-7.02599e-06,4.91704e-05,0.000223227,-5.60658e-06,-6.68386e-06,2
-1.01978e-05,-2.39685e-05,-1.38224e-05,6.71799e-06,-1.7446e-05,0.00023841,3.56965e-06,-1.38231e-05,2
4.21943e-05,1.16418e-06,-2.94841e-06,2.63907e-05,-3.24268e-05,0.000231667,1.5655e-05,-1.56984e-05,2
9.62425e-05,2.37226e-05,2.41971e-06,4.5552e-05,1.07428e-05,0.000209879,2.99068e-05,-1.41624e-05,2
0.000142395,3.30492e-05,3.21657e-06,5.15017e-05,7.51008e-05,0.000168797,3.81765e-05,-1.024e-05,2
0.000143937,1.86343e-05,-1.35895e-06,3.94673e-05,0.0001054,0.000101332,3.68787e-05,-5.43796e-06,2
9.30339e-05,-8.03121e-06,-9.09415e-06,2.19828e-05,8.20607e-05,1.40176e-05,2.9525e-05,-2.22495e-06,2
2.93509e-05,-1.36451e-05,-1.50915e-05,8.14507e-06,2.1277e-05,-8.01203e-05,2.3679e-05,1.3522e-07,2
-8.34165e-06,1.3878e-05,-1.5501e-05,-1.36864e-06,-3.78442e-05,-0.000155354,2.0318e-05,3.2395e-06,2
-1.52986e-05,4.8833e-05,-1.11794e-05,-1.08904e-05,-6.79818e-05,-0.000190354,2.11994e-05,5.50529e-06,2
-1.67222e-05,6.41655e-05,-5.53389e-06,-1.84334e-05,-7.05206e-05,-0.000201266,2.25318e-05,6.39052e-06,2
-2.08856e-05,6.04742e-05,-3.46714e-07,-2.25597e-05,-6.64049e-05,-0.000202324,1.97658e-05,6.14952e-06,2
-1.2561e-05,5.09644e-05,2.70626e-06,-2.59122e-05,-6.33763e-05,-0.000195262,1.60587e-05,4.24156e-06,2
6.23997e-06,4.24722e-05,1.46322e-06,-2.99594e-05,-4.82322e-05,-0.000173376,9.11738e-06,1.61896e-06,2
2.15743e-05,4.16089e-05,-1.40818e-06,-3.10443e-05,-1.30222e-05,-0.000112028,-4.46558e-06,5.99898e-07,2
2.56008e-05,5.15197e-05,9.32942e-08,-2.58649e-05,3.70498e-05,-1.35034e-05,-1.61145e-05,5.08041e-07,2
1.94177e-05,6.18873e-05,6.27536e-06,-1.56057e-05,8.39143e-05,7.17407e-05,-1.29865e-05,-5.56689e-07,2
8.77444e-06,6.47235e-05,1.40222e-05,-3.58096e-06,0.000106431,0.000100062,5.44564e-06,-1.02605e-06,2
5.54841e-07,6.25245e-05,1.81487e-05,3.01685e-06,8.47226e-05,6.88057e-05,2.95755e-05,1.17007e-07,2
-4.22519e-06,5.83549e-05,1.56958e-05,-3.44111e-07,3.96871e-05,-5.61182e-06,4.54182e-05,2.19388e-06,2
-2.49723e-06,5.43161e-05,7.99145e-06,-9.99568e-06,1.71685e-05,-9.45564e-05,4.68664e-05,2.66085e-06,2
4.29515e-06,5.48174e-05,4.49527e-07,-1.71868e-05,2.40201e-05,-0.000161156,3.91954e-05,2.64858e-06,2
3.76797e-06,5.54798e-05,-4.22451e-06,-2.00473e-05,1.94899e-05,-0.000176625,3.03314e-05,3.69502e-06,2
-9.99003e-06,4.63227e-05,-9.95222e-06,-2.07968e-05,-1.58576e-05,-0.000147172,1.91352e-05,2.84405e-06,2
-1.94511e-05,2.83146e-05,-2.00499e-05,-2.02544e-05,-4.19646e-05,-0.00011078,7.3945e-06,-4.99287e-07,2
-1.19909e-05,1.27765e-05,-3.13173e-05,-2.09734e-05,-2.07038e-05,-0.000114275,1.01369e-06,-1.85762e-06,2
-1.26319e-06,5.41976e-06,-3.80155e-05,-2.5303e-05,3.38093e-05,-0.000175353,-1.53898e-06,8.35265e-07,2
-6.87784e-06,2.94711e-06,-3.45185e-05,-3.03938e-05,9.55036e-05,-0.000276128,-3.58856e-06,2.55058e-06,2
-2.89418e-05,3.83043e-06,-2.27657e-05,-3.04853e-05,0.000131363,-0.000335259,-6.15678e-06,2.48628e-06,2
-5.25411e-05,8.61493e-06,-1.08857e-05,-2.75391e-05,0.000125908,-0.00029666,-7.9239e-06,3.8126e-06,2
-6.86039e-05,1.44836e-05,-4.17008e-06,-2.64095e-05,9.14977e-05,-0.000210352,-9.97994e-06,4.98429e-06,2
-7.5943e-05,1.54067e-05,-5.4012e-06,-2.56352e-05,2.70259e-05,-0.000125328,-1.47956e-05,7.20358e-06,2
-8.38539e-05,9.31932e-06,-1.24021e-05,-2.46309e-05,-5.06968e-05,-7.38277e-05,-2.21721e-05,1.13518e-05,2
-9.46377e-05,-8.81984e-08,-1.79587e-05,-2.13846e-05,-0.000116427,-5.47275e-05,-2.58138e-05,1.36941e-05,2
-9.93525e-05,-4.64584e-06,-1.68773e-05,-1.64234e-05,-0.000165611,-5.04431e-05,-1.96726e-05,1.33998e-05,2
-9.04957e-05,-4.57166e-06,-1.19832e-05,-1.243e-05,-0.000205063,-4.65746e-05,-1.26068e-05,1.139e-05,2
-6.26085e-05,-1.47714e-05,-7.39865e-06,-1.31361e-05,-0.000210729,-2.8769e-05,-2.78997e-06,9.81555e-06,2
-1.9323e-05,-3.97513e-05,-7.57823e-06,-1.63023e-05,-0.000136998,8.32341e-06,1.22589e-05,9.73412e-06,2
1.20617e-05,-6.70339e-05,-1.28181e-05,-1.75603e-05,9.92223e-06,6.15088e-05,2.68048e-05,9.37069e-06,2
5.96021e-06,-8.27591e-05,-1.82004e-05,-1.79987e-05,0.000151805,0.000119219,4.10932e-05,6.23998e-06,2
-2.90505e-05,-8.11962e-05,-1.80486e-05,-1.5883e-05,0.000217159,0.000166169,5.28456e-05,1.92597e-06,2
-7.03974e-05,-6.78313e-05,-1.19033e-05,-8.82092e-06,0.000206526,0.000189534,5.88148e-05,-1.36748e-06,2
-0.000111869,-5.5068e-05,-5.1915e-06,1.11153e-06,0.000150384,0.000200635,6.26648e-05,-3.82678e-06,2
-0.000153212,-4.78809e-05,4.11827e-07,9.72877e-06,5.24659e-05,0.000217835,6.9957e-05,-5.92993e-06,2
-0.000174863,-3.39302e-05,7.58999e-06,1.60222e-05,-8.45427e-05,0.000249974,7.35375e-05,-7.37783e-06,2
-0.000157511,-3.334e-06,1.8738e-05,1.92758e-05,-0.000229696,0.000293357,7.63835e-05,-7.74011e-06,2
-0.000116545,3.02e-05,3.14478e-05,2.12924e-05,-0.000325774,0.000347425,9.16379e-05,-7.27653e-06,2
-9.47352e-05,4.24695e-05,4.08384e-05,2.45147e-05,-0.000290612,0.000407025,0.000117384,-6.65233e-06,2
-0.000113544,3.32218e-05,4.22849e-05,2.9842e-05,-8.58972e-05,0.00045737,0.000134409,-6.16653e-06,2
-0.000142666,2.08131e-05,3.29727e-05,3.00285e-05,0.000172822,0.000466939,0.000132142,-5.40762e-06,2
-0.000139297,1.53098e-05,1.38097e-05,1.90877e-05,0.000291913,0.000402075,0.000112262,-6.67851e-06,2
-7.27577e-05,2.4502e-05,-8.47391e-06,2.45234e-06,0.000230351,0.000248008,7.80244e-05,-9.0295e-06,2
6.09794e-05,5.40368e-05,-2.38619e-05,-9.4271e-06,0.000100513,1.14806e-05,3.22271e-05,-1.0795e-05,2
0.000187775,8.46544e-05,-2.78647e-05,-7.4724e-06,1.56927e-05,-0.000251978,-2.04109e-05,-1.1008e-05,2
0.000240579,9.23094e-05,-2.40049e-05,1.61133e-05,4.70074e-05,-0.000469314,-7.65848e-05,-8.77772e-06,2
0.000223312,8.25547e-05,-1.73956e-05,4.47975e-05,0.000170334,-0.000568447,-0.000112431,-6.37697e-06,2
0.000168205,7.23363e-05,-1.1506e-05,5.10128e-05,0.000276868,-0.000546833,-0.000119916,-6.14769e-06,2
0.000107312,6.73455e-05,-7.82757e-06,3.15263e-05,0.000304083,-0.000457454,-0.000117753,-5.05365e-06,2
5.62029e-05,6.39424e-05,-4.41376e-06,1.71458e-06,0.000260411,-0.00034589,-0.000108637,-2.31271e-06,2
2.42325e-05,5.83585e-05,-8.50967e-07,-1.93451e-05,0.000179261,-0.000273218,-0.000100361,7.48834e-07,2
-2.25472e-08,4.92003e-05,1.24652e-06,-3.06367e-05,9.04216e-05,-0.000239004,-8.78626e-05,4.63628e-06,2
-1.82667e-05,4.01178e-05,3.73801e-06,-3.87148e-05,1.21721e-05,-0.000215263,-6.98937e-05,9.42693e-06,2
-2.92012e-05,3.28711e-05,7.89241e-06,-4.09453e-05,-5.74447e-05,-0.000166471,-4.93054e-05,1.27144e-05,2
-3.17229e-05,2.78259e-05,1.13131e-05,-2.94407e-05,-0.000114126,-9.94577e-05,-2.41136e-05,1.09567e-05,2
-2.32515e-05,2.71632e-05,1.03499e-05,-1.20764e-05,-0.000128641,-5.05562e-05,4.64642e-07,9.44479e-06,2
-7.84729e-06,2.72184e-05,2.63848e-06,-3.66076e-06,-0.000110592,-3.30222e-05,1.38689e-05,1.07418e-05,2
1.42053e-06,1.92942e-05,-1.08888e-05,-4.86204e-06,-0.000121268,-2.89029e-05,1.66474e-05,1.23663e-05,2
-1.60474e-05,-2.31862e-06,-2.54777e-05,-3.35846e-06,-0.000201155,-1.52113e-05,1.76483e-05,1.25106e-05,2
-6.20069e-05,-3.31033e-05,-3.69229e-05,3.6741e-06,-0.000313044,-2.62826e-06,1.78864e-05,1.10609e-05,2
-0.000121755,-6.30142e-05,-4.48577e-05,8.28757e-06,-0.000370399,7.39735e-06,1.88747e-05,7.78849e-06,2
-0.00017147,-8.33632e-05,-5.05618e-05,1.36491e-05,-0.000318821,1.91521e-05,2.15011e-05,2.17939e-06,2
-0.000199015,-9.2643e-05,-5.32853e-05,1.74202e-05,-0.00019109,4.33255e-05,2.28456e-05,-3.11282e-06,2
-0.000204206,-9.37137e-05,-5.18637e-05,5.61657e-06,-7.55991e-05,8.14926e-05,1.74815e-05,-5.14303e-06,2
-0.000200208,-8.9566e-05,-4.71339e-05,-1.8189e-05,-1.58868e-05,0.000149244,7.77711e-06,-4.11809e-06,2
-0.000199358,-7.9348e-05,-3.85653e-05,-3.03944e-05,4.19416e-05,0.000238627,-3.55539e-06,-3.29487e-06,2
-0.000196137,-5.90667e-05,-2.58801e-05,-2.24319e-05,0.000157256,0.000321528,-1.16765e-05,-3.46774e-06,2
-0.000168717,-2.55479e-05,-1.0858e-05,-5.71116e-06,0.000311499,0.000377297,-8.77872e-06,-4.71052e-06,2
-0.00010565,1.83422e-05,2.91202e-06,5.16033e-06,0.000421285,0.000399939,9.14813e-06,-7.01254e-06,2
-7.43248e-06,5.50151e-05,9.81054e-06,3.88222e-06,0.000402869,0.00038353,3.35734e-05,-9.11522e-06,2
9.01515e-05,6.22967e-05,4.86872e-06,-8.4104e-06,0.000263927,0.000347535,5.04977e-05,-1.01483e-05,2
0.000133954,4.39407e-05,-4.68213e-06,-1.70646e-05,0.000102701,0.000310751,5.65365e-05,-1.0759e-05,2
0.000120006,2.82476e-05,-9.35066e-06,-1.35888e-05,1.53302e-06,0.000240314,5.9498e-05,-1.15724e-05,2
8.30058e-05,3.03958e-05,-1.28978e-05,-1.5414e-05,-7.32557e-06,0.000104406,6.45886e-05,-1.17279e-05,2
6.50584e-05,4.17561e-05,-2.08443e-05,-2.60875e-05,3.73201e-05,-6.98597e-05,7.53379e-05,-1.07413e-05,2
8.55526e-05,5.70903e-05,-2.83123e-05,-3.2019e-05,6.2248e-05,-0.000218461,8.16782e-05,-9.27215e-06,2
0.000119376,7.70826e-05,-2.78702e-05,-2.78691e-05,4.60473e-05,-0.000322221,6.92371e-05,-8.33582e-06,2
0.000125968,9.52267e-05,-1.87758e-05,-1.18309e-05,-7.41237e-06,-0.000398075,4.3503e-05,-6.31898e-06,2
9.87436e-05,0.000100702,-7.97036e-06,7.20444e-06,-6.39656e-05,-0.000418298,2.0459e-05,-4.72716e-06,2
5.7854e-05,8.71502e-05,-4.16365e-06,1.24778e-05,-6.81475e-05,-0.000355892,9.51204e-06,-3.58863e-06,2
3.04361e-05,6.66001e-05,-5.08334e-06,1.53912e-06,1.46272e-06,-0.00025175,7.96934e-06,4.8288e-07,2
2.13477e-05,5.19103e-05,-6.4556e-06,-1.16176e-05,8.41103e-05,-0.000166768,1.34746e-05,4.19728e-06,2
1.55165e-05,4.34451e-05,-7.33479e-06,-1.3823e-05,0.000112902,-0.00013299,1.93273e-05,4.75727e-06,2
3.73886e-06,3.14365e-05,-7.14592e-06,-4.14812e-06,8.4325e-05,-0.000135004,1.94603e-05,3.46136e-06,2
-1.15888e-05,1.25316e-05,-5.03094e-06,1.01283e-05,4.70018e-05,-0.000146503,1.78579e-05,1.89922e-06,2
-2.61056e-05,-3.35499e-06,-1.04857e-06,2.20979e-05,3.43231e-05,-0.000140125,1.97053e-05,3.29018e-07,2
-3.92271e-05,-8.14878e-06,3.60808e-06,2.67265e-05,3.65352e-05,-0.000106987,2.29712e-05,-2.89014e-07,2
-5.04303e-05,-3.18564e-06,7.41748e-06,2.11888e-05,4.12499e-05,-6.56449e-05,2.93778e-05,1.23596e-06,2
-5.88801e-05,4.7605e-06,8.60798e-06,1.03913e-05,3.90884e-05,-3.97517e-05,3.91089e-05,2.8229e-06,2
-6.45373e-05,1.07856e-05,6.79234e-06,1.26427e-06,2.65509e-05,-2.83023e-05,4.66741e-05,3.18616e-06,2
-7.0028e-05,1.00043e-05,2.55133e-06,-5.01078e-06,-1.61625e-06,-1.56884e-05,4.65896e-05,3.37611e-06,2
-7.79547e-05,1.54828e-06,-2.36383e-06,-1.28476e-05,-4.06945e-05,8.34289e-06,3.7393e-05,4.00734e-06,2
-8.89482e-05,-9.51069e-06,-6.06888e-06,-2.39582e-05,-8.8771e-05,3.70674e-05,2.20212e-05,4.63812e-06,2
-9.79396e-05,-1.74533e-05,-6.08021e-06,-3.65106e-05,-0.000135284,5.88754e-05,7.66046e-06,4.81229e-06,2
-0.000101607,-2.16072e-05,-4.41654e-06,-4.64531e-05,-0.000167284,6.71133e-05,2.1925e-06,5.82186e-06,2
-0.000100864,-2.07279e-05,-5.50445e-06,-5.28036e-05,-0.000163878,5.96065e-05,7.30994e-06,6.57142e-06,2
-9.59253e-05,-1.66225e-05,-7.61072e-06,-4.60686e-05,-0.000121062,3.86127e-05,1.95662e-05,5.10676e-06,2
-8.52872e-05,-1.57329e-05,-5.60227e-06,-2.25332e-05,-9.83081e-05,8.35948e-06,2.90088e-05,2.35468e-06,2
-7.21272e-05,-1.86397e-05,-4.19744e-07,-4.66704e-06,-0.000122756,-6.54292e-06,2.80497e-05,1.08011e-07,2
-4.73749e-05,-2.1833e-05,4.7387e-06,-2.39299e-06,-0.000112086,2.00367e-05,2.02356e-05,5.92449e-07,2
-3.06158e-06,-1.84628e-05,6.63516e-06,-3.34406e-06,-2.94288e-05,6.12238e-05,1.54e-05,1.69708e-06,2
3.30302e-05,-8.26816e-06,4.40052e-06,1.78301e-06,6.47419e-05,8.84626e-05,1.73305e-05,8.75139e-07,2
3.56105e-05,-2.75711e-06,-8.71114e-07,1.8775e-05,9.24533e-05,0.000111799,2.15614e-05,1.79467e-06,2
1.25198e-05,-3.72488e-06,-7.16338e-06,3.84492e-05,1.39132e-05,0.000127137,1.8657e-05,3.89077e-06,2
-1.74905e-05,-1.20309e-06,-1.25647e-05,2.8557e-05,-0.000127442,0.0001142,4.27623e-06,3.95341e-06,2
-4.71523e-05,1.17573e-05,-1.8519e-05,-3.08677e-06,-0.00024104,6.29867e-05,-6.98153e-06,2.14221e-06,2
-7.52002e-05,2.74156e-05,-2.26173e-05,-2.3483e-05,-0.000246094,-6.3634e-10,-7.00418e-06,5.88886e-07,2
-9.04921e-05,3.63029e-05,-2.47476e-05,-2.81776e-05,-0.000120186,-5.20852e-05,-4.92416e-06,2.42462e-06,2
-8.00128e-05,3.81344e-05,-2.68662e-05,-2.44036e-05,7.35739e-05,-8.74243e-05,-2.43702e-06,5.33469e-06,2
-5.05213e-05,3.61301e-05,-2.72845e-05,-1.90909e-05,0.000231263,-9.37914e-05,-1.21833e-07,5.3674e-06,2
-3.01943e-05,2.93237e-05,-2.47006e-05,-1.88639e-05,0.00030039,-6.11276e-05,-3.28075e-06,3.64061e-06,2
-3.74577e-05,1.49919e-05,-2.16516e-05,-2.94572e-05,0.000281289,-1.39756e-05,-1.06752e-05,4.43415e-06,2
-6.18496e-05,-4.43779e-07,-2.04239e-05,-3.97145e-05,0.000197802,6.58434e-06,-1.851e-05,6.4292e-06,2
-8.45818e-05,-1.04104e-05,-1.95053e-05,-2.68997e-05,9.15191e-05,-1.06548e-05,-2.52098e-05,7.46627e-06,2
-9.77985e-05,-1.49883e-05,-1.67199e-05,8.52472e-06,2.22022e-05,-3.56755e-05,-2.27537e-05,7.89301e-06,2
-0.000100008,-1.85315e-05,-1.19275e-05,3.27585e-05,1.51843e-05,-2.58758e-05,-6.60337e-06,7.54407e-06,2
-9.24762e-05,-2.23119e-05,-5.9623e-06,3.5345e-05,4.15631e-05,2.41221e-05,1.12109e-05,6.33978e-06,2
-8.83582e-05,-2.5012e-05,1.1669e-06,4.70928e-05,5.64514e-05,8.42314e-05,1.65476e-05,5.02423e-06,2
-9.4925e-05,-2.54257e-05,9.1348e-06,7.45555e-05,4.08292e-05,0.000131235,1.25357e-05,5.73687e-06,2
-9.13723e-05,-2.413e-05,1.59957e-05,7.86369e-05,1.22966e-05,0.000168053,1.24476e-05,7.27467e-06,2
-6.7618e-05,-2.11512e-05,1.84185e-05,4.52726e-05,-9.03979e-06,0.000194391,2.04117e-05,6.00992e-06,2
-5.67025e-05,-1.68721e-05,1.65809e-05,7.5887e-06,-1.45958e-05,0.000202852,1.97186e-05,2.92601e-06,2
-8.16314e-05,-1.03003e-05,1.16015e-05,-1.08206e-05,6.45592e-06,0.000191905,-3.70135e-08,2.54864e-06,2
-0.000119164,-5.7088e-07,6.01878e-06,-1.45035e-05,6.0578e-05,0.000162832,-9.11179e-06,5.57746e-06,2
-0.000136589,1.06258e-05,5.24629e-06,-1.40712e-05,0.000119271,0.000115633,2.28604e-05,9.07439e-06,2
-0.000116024,2.9003e-05,9.04432e-06,-9.95499e-06,0.000132089,5.73675e-05,7.38103e-05,1.14446e-05,2
-4.47767e-05,5.5906e-05,1.18994e-05,3.51136e-06,8.66693e-05,9.58595e-06,0.000102047,1.18522e-05,2
4.74383e-05,7.0002e-05,8.78002e-06,1.734e-05,1.94991e-05,1.11013e-05,9.46354e-05,1.019e-05,2
0.000103275,6.05156e-05,1.74955e-06,1.83721e-05,-3.09013e-05,5.33683e-05,6.88666e-05,1.02708e-05,2
0.000109612,4.2446e-05,-5.06068e-06,1.05911e-05,-3.88029e-05,6.52203e-05,4.2893e-05,1.02599e-05,2
9.58044e-05,3.22085e-05,-9.29523e-06,-1.5616e-07,-4.09804e-05,6.7599e-06,1.64583e-05,8.89863e-06,2
8.46268e-05,3.74289e-05,-7.67752e-06,-7.48931e-06,-0.000107843,-0.000100842,-1.42905e-05,8.40678e-06,2
6.89643e-05,5.07312e-05,-1.148e-06,-9.83816e-06,-0.000188852,-0.000196976,-3.99721e-05,5.2134e-06,2
5.34337e-05,6.01658e-05,4.81105e-06,-5.78324e-06,-0.00014201,-0.00024894,-4.72928e-05,-2.98797e-06,2
4.34252e-05,6.13902e-05,6.39758e-06,3.06101e-06,5.56082e-05,-0.000264444,-4.57233e-05,-1.14969e-05,2
3.93733e-05,5.7866e-05,5.1732e-06,9.51561e-06,0.000250131,-0.000256718,-4.43584e-05,-1.71894e-05,2
3.42318e-05,5.20726e-05,2.24366e-06,1.14479e-05,0.000298022,-0.000227804,-4.56718e-05,-1.87858e-05,2
1.90819e-05,4.48087e-05,-1.33024e-06,8.87459e-06,0.00020512,-0.000162103,-4.91363e-05,-1.75549e-05,2
-1.90601e-06,3.47913e-05,-4.40499e-06,1.84385e-06,7.81934e-05,-7.47228e-05,-4.62682e-05,-1.79253e-05,2
-1.96023e-05,2.28745e-05,-5.95237e-06,-7.23444e-06,1.19546e-05,-1.11565e-05,-3.30249e-05,-1.96224e-05,2
-2.78888e-05,1.32838e-05,-5.11037e-06,-1.61102e-05,1.72967e-05,7.84315e-06,-1.84925e-05,-2.02776e-05,2
-3.15512e-05,8.67884e-06,-3.09507e-06,-2.35042e-05,4.97546e-05,-1.27834e-06,-7.75613e-06,-1.93974e-05,2
-3.51137e-05,8.29492e-06,-1.74129e-06,-2.83384e-05,6.60001e-05,-2.14747e-05,1.36945e-06,-1.83769e-05,2
-4.22361e-05,7.31594e-06,-2.03082e-06,-3.29106e-05,5.02685e-05,-4.81145e-05,1.37732e-06,-1.54233e-05,2
-5.13417e-05,-3.45369e-07,-3.34466e-06,-3.60885e-05,7.85285e-06,-7.29514e-05,-1.18788e-05,-1.00894e-05,2
-6.18149e-05,-1.52259e-05,-4.13824e-06,-3.31902e-05,-3.96233e-05,-8.10811e-05,-2.85452e-05,-5.62529e-06,2
-6.88011e-05,-2.91106e-05,-3.72887e-06,-2.38781e-05,-7.25335e-05,-7.01797e-05,-3.34459e-05,-3.53751e-06,2
-7.01041e-05,-3.67054e-05,-3.49039e-06,-1.55508e-05,-9.58319e-05,-5.45031e-05,-2.60722e-05,-3.73491e-07,2
-6.45506e-05,-3.89169e-05,-4.5886e-06,-1.30604e-05,-0.000128337,-4.23026e-05,-1.55466e-05,4.3996e-06,2
-5.32026e-05,-3.60586e-05,-6.05795e-06,-1.65921e-05,-0.000176165,-2.47521e-05,-9.51941e-06,7.6292e-06,2
-3.93191e-05,-2.65914e-05,-5.33336e-06,-2.34269e-05,-0.000222025,1.12186e-06,-9.64806e-06,8.42924e-06,2
-2.26695e-05,-9.18284e-06,-3.33134e-06,-3.12101e-05,-0.00022418,2.92863e-05,-9.58297e-06,8.34731e-06,2
-4.61368e-07,1.27951e-05,-2.33199e-06,-3.51238e-05,-0.000145595,5.95536e-05,-3.40712e-07,1.02131e-05,2
1.33466e-05,2.76103e-05,-3.31664e-06,-2.16514e-05,-5.96748e-06,9.13229e-05,1.68912e-05,1.45524e-05,2
-1.01534e-06,2.60821e-05,-9.48648e-06,3.91624e-06,9.24777e-05,0.000123447,3.35265e-05,1.67399e-05,2
-4.36105e-05,1.28057e-05,-2.07614e-05,7.65118e-06,0.000111071,0.000150626,5.00215e-05,1.63396e-05,2
-9.65829e-05,2.41348e-06,-2.93375e-05,-1.55635e-05,0.000103654,0.000160437,6.83893e-05,1.6544e-05,2
-0.000135031,3.9876e-06,-3.09543e-05,-3.85569e-05,8.49966e-05,0.000151263,7.57146e-05,1.62641e-05,2
-0.000152481,9.59014e-06,-2.9087e-05,-4.74236e-05,5.44158e-05,0.000127337,6.51069e-05,1.56432e-05,2
-0.000150749,9.43495e-06,-2.60343e-05,-4.3529e-05,6.3942e-06,8.23126e-05,4.34841e-05,1.37902e-05,2
-0.000132447,8.20255e-06,-1.95814e-05,-3.34116e-05,-3.81174e-05,2.69474e-05,2.22394e-05,1.21907e-05,2
-9.89883e-05,8.87673e-06,-1.07114e-05,-2.7691e-05,-5.87996e-05,-2.33907e-05,6.94772e-06,1.04973e-05,2
-4.52663e-05,1.70813e-05,-4.11388e-06,-2.81852e-05,-5.70595e-05,-5.9119e-05,7.15823e-07,7.08321e-06,2
2.29164e-05,3.88006e-05,-7.02072e-07,-2.25239e-05,-3.08551e-05,-7.56216e-05,5.03398e-06,2.21245e-06,2
7.41734e-05,6.35548e-05,4.74934e-07,-5.35819e-06,3.97315e-06,-6.79156e-05,1.34482e-05,-2.22225e-06,2
7.72502e-05,7.41343e-05,-1.98714e-06,1.21673e-05,6.62017e-06,-2.80631e-05,2.4186e-05,-4.73309e-06,2
4.06092e-05,6.59362e-05,-6.50746e-06,1.91965e-05,-2.08515e-05,3.80419e-05,3.09534e-05,-6.97274e-06,2
6.66504e-06,4.96996e-05,-1.04888e-05,1.71696e-05,-3.75759e-05,0.000102155,2.47005e-05,-8.39853e-06,2
-9.72466e-07,3.91393e-05,-1.37199e-05,1.18783e-05,-1.28742e-05,0.000123136,1.32185e-05,-8.60697e-06,2
1.02534e-05,4.16241e-05,-1.63941e-05,1.21063e-05,6.62199e-05,8.05513e-05,1.30447e-05,-8.18738e-06,2
2.18956e-05,5.11285e-05,-1.65308e-05,2.14992e-05,0.000154028,-1.62629e-05,2.09468e-05,-6.82484e-06,2
1.94907e-05,5.66981e-05,-1.18243e-05,3.0299e-05,0.000186104,-0.000133556,2.69266e-05,-4.96831e-06,2
1.15345e-06,5.3424e-05,-6.31029e-06,2.8896e-05,0.000156434,-0.000230479,3.40355e-05,-5.1885e-06,2
-2.52982e-05,4.54733e-05,-4.14747e-06,2.12656e-05,0.000117119,-0.000277376,4.60563e-05,-6.64713e-06,2
-5.31842e-05,3.30513e-05,-7.02851e-06,1.172e-05,0.000101193,-0.000264979,5.40285e-05,-7.08988e-06,2
-7.85433e-05,1.28131e-05,-1.34184e-05,2.34082e-06,9.63921e-05,-0.000196207,4.8638e-05,-5.65767e-06,2
-9.57689e-05,-9.45486e-06,-1.72806e-05,-2.71469e-06,6.56086e-05,-0.000104964,3.03102e-05,-3.32877e-06,2
-0.000104295,-2.16913e-05,-1.31964e-05,-4.48353e-06,7.33008e-06,-3.69741e-05,6.06827e-06,-3.11804e-06,2
-0.000105953,-2.18803e-05,-3.54004e-06,-8.00793e-06,-4.41362e-05,9.98724e-07,-1.45223e-05,-6.62473e-06,2
-0.000102763,-2.26535e-05,2.17405e-06,-1.31689e-05,-6.55664e-05,2.57715e-05,-2.21637e-05,-1.0963e-05,2
-9.15294e-05,-3.16559e-05,-1.08642e-06,-1.42134e-05,-6.21697e-05,4.91315e-05,-1.51491e-05,-1.257e-05,2
-6.02127e-05,-3.82511e-05,-7.98636e-06,-1.06827e-05,-4.61401e-05,7.23129e-05,3.66274e-06,-1.31298e-05,2
3.51198e-07,-3.62352e-05,-8.86512e-06,-9.71543e-06,-1.2031e-05,9.03834e-05,2.86316e-05,-1.43526e-05,2
6.09874e-05,-2.96814e-05,-5.82299e-06,-1.32709e-05,2.63399e-05,0.000106711,4.55428e-05,-1.30052e-05,2
7.4588e-05,-2.03817e-05,-5.00969e-06,-1.64212e-05,2.81802e-05,0.000123947,4.77744e-05,-9.58209e-06,2
3.75912e-05,-1.15575e-05,-4.92324e-06,-1.84642e-05,-1.14651e-05,0.000133503,4.27863e-05,-9.27428e-06,2
-2.53606e-05,-9.32729e-06,-8.29431e-06,-2.13738e-05,-5.13858e-05,0.000132479,4.32336e-05,-1.20234e-05,2
-8.36349e-05,-1.19545e-05,-1.40268e-05,-2.44978e-05,-4.64407e-05,0.000127046,4.87066e-05,-1.20196e-05,2
-0.000105335,-2.8516e-06,-1.35581e-05,-1.66889e-05,-6.48276e-06,0.000126679,4.75535e-05,-7.2671e-06,2
-7.34528e-05,2.24396e-05,-5.00729e-07,8.46131e-06,8.26328e-06,0.000129751,4.05753e-05,-4.03874e-06,2
-1.16908e-05,4.73587e-05,1.53984e-05,3.44045e-05,-4.99399e-05,0.000117177,2.97866e-05,-2.76968e-06,2
2.9813e-05,5.3045e-05,1.80662e-05,4.24774e-05,-0.000168118,7.14832e-05,1.11182e-05,-3.49046e-07,2
3.56423e-05,4.05444e-05,6.39127e-06,3.69067e-05,-0.000238434,1.61758e-05,-9.96093e-06,2.34269e-06,2
2.84156e-05,2.88514e-05,-6.61691e-06,3.30352e-05,-0.00014888,-1.56477e-05,-2.67045e-05,3.15911e-06,2
2.78016e-05,3.02184e-05,-1.22789e-05,3.04232e-05,8.20919e-05,-5.33644e-05,-4.03977e-05,3.03655e-06,2
2.87526e-05,4.10674e-05,-1.41783e-05,1.62057e-05,0.000294093,-0.000143709,-4.97057e-05,4.15278e-06,2
2.43033e-05,5.37578e-05,-1.57385e-05,-7.5101e-06,0.000354467,-0.00027396,-4.77202e-05,6.00389e-06,2
1.77486e-05,6.27922e-05,-1.83743e-05,-2.40215e-05,0.000281181,-0.000389212,-3.49254e-05,7.41791e-06,2
1.32263e-05,6.54434e-05,-2.13644e-05,-2.81009e-05,0.000175204,-0.000442751,-1.92087e-05,7.66296e-06,2
9.96936e-06,6.22023e-05,-2.289e-05,-2.63846e-05,0.000100065,-0.000413861,-8.3246e-06,7.10381e-06,2
5.80798e-06,5.17223e-05,-2.08779e-05,-2.2625e-05,6.21963e-05,-0.000312786,-3.2642e-06,6.90844e-06,2
-1.4946e-06,3.46812e-05,-1.57972e-05,-1.65807e-05,4.30335e-05,-0.000186589,-4.75462e-08,8.89104e-06,2
-1.26529e-05,1.77583e-05,-1.07123e-05,-1.05859e-05,2.9278e-05,-9.16823e-05,2.25661e-06,9.98517e-06,2
-2.33732e-05,7.81378e-06,-8.2206e-06,-8.80733e-06,2.39777e-05,-4.33429e-05,3.14891e-07,8.07215e-06,2
-3.2612e-05,3.43271e-06,-7.00459e-06,-1.17815e-05,2.35898e-05,-2.10057e-05,-1.11868e-05,5.4722e-06,2
-4.17731e-05,3.20615e-07,-7.3041e-06,-1.55372e-05,8.92397e-06,-3.3362e-06,-2.49796e-05,5.43923e-06,2
-5.06151e-05,-5.56201e-07,-6.42016e-06,-1.7166e-05,-2.0204e-05,1.49696e-05,-1.7355e-05,7.70136e-06,2
-5.83889e-05,2.43373e-06,-1.498e-06,-1.76542e-05,-4.02881e-05,2.84561e-05,2.77876e-05,9.82141e-06,2
-5.88902e-05,6.48596e-06,3.76623e-06,-1.56332e-05,-3.8459e-05,3.67588e-05,8.42897e-05,9.08306e-06,2
-4.60464e-05,1.02567e-05,6.56085e-06,-1.57827e-05,-2.56218e-05,3.93553e-05,0.00011948,6.17941e-06,2
-2.87459e-05,6.5414e-06,5.61377e-06,-1.71267e-05,-2.47956e-05,4.23125e-05,0.000126,5.69263e-06,2
-1.86495e-05,-6.38918e-06,8.67806e-09,-1.11288e-05,-3.30963e-05,5.45413e-05,0.000107544,6.56254e-06,2
-2.27606e-05,-1.53e-05,-7.6816e-06,-1.17554e-05,-3.02125e-05,6.81391e-05,8.04182e-05,7.28962e-06,2
-3.64368e-05,-1.35891e-05,-1.23358e-05,-2.39243e-05,-5.32565e-06,6.66597e-05,5.20967e-05,7.91316e-06,2
-4.69028e-05,-5.28377e-06,-1.07429e-05,-2.83707e-05,2.98753e-05,4.55812e-05,2.9716e-05,8.27878e-06,2
-4.77202e-05,1.31431e-06,-5.22867e-06,-1.32855e-05,6.14616e-05,6.07986e-06,1.1428e-05,8.77068e-06,2
-4.34138e-05,3.58202e-06,-1.85391e-06,1.79619e-05,8.43432e-05,-3.74539e-05,-3.10198e-06,9.20264e-06,2
-3.50438e-05,5.41753e-06,-2.6412e-06,3.78471e-05,9.44904e-05,-6.06886e-05,-1.47444e-05,8.41992e-06,2
-2.22263e-05,5.81102e-06,-7.41941e-06,2.06334e-05,8.2554e-05,-5.54327e-05,-2.71902e-05,7.23064e-06,2
-1.26336e-05,-1.91525e-06,-1.54205e-05,-1.89937e-05,4.88774e-05,-3.64662e-05,-3.15247e-05,5.25944e-06,2
-1.27142e-05,-1.42018e-05,-2.33465e-05,-4.53972e-05,9.36034e-06,-1.69364e-05,-2.58241e-05,3.03854e-06,2
-2.20675e-05,-1.99562e-05,-2.41047e-05,-4.34409e-05,-1.89649e-05,1.00191e-05,-1.43346e-05,2.74833e-06,2
-3.44686e-05,-1.67689e-05,-1.44184e-05,-2.66715e-05,-3.35194e-05,4.83407e-05,-6.33397e-07,2.96466e-06,2
-4.82644e-05,-9.95034e-06,-1.04501e-06,-1.20052e-05,-4.04478e-05,8.18266e-05,1.5185e-05,1.18705e-06,2
-6.2731e-05,-3.34338e-06,6.55297e-06,-4.58466e-06,-3.74187e-05,9.17234e-05,2.89102e-05,-2.17496e-06,2
-7.6431e-05,2.44393e-06,7.50922e-06,9.8591e-07,-2.32683e-05,8.36486e-05,3.76772e-05,-5.07597e-06,2
-8.92397e-05,9.20444e-06,7.1152e-06,9.81017e-06,-4.69846e-06,7.2445e-05,3.68801e-05,-6.78739e-06,2
-9.65035e-05,1.96855e-05,9.32377e-06,1.71999e-05,7.19254e-06,6.45384e-05,2.73474e-05,-7.06134e-06,2
-8.56931e-05,2.97263e-05,1.11553e-05,1.85089e-05,8.12135e-06,5.92873e-05,1.62423e-05,-7.03797e-06,2
-5.90589e-05,3.00922e-05,7.51507e-06,1.98831e-05,-2.98055e-06,6.02894e-05,8.53535e-06,-5.96707e-06,2
-4.01112e-05,1.65244e-05,-1.35326e-06,2.67189e-05,-2.07696e-05,6.7238e-05,-3.20841e-08,-4.06091e-06,2
-4.73047e-05,-4.23366e-06,-1.22437e-05,2.50193e-05,-3.71388e-05,7.28661e-05,-1.20061e-05,-3.66978e-06,2
-6.61714e-05,-1.65872e-05,-2.09336e-05,6.71888e-06,-4.35238e-05,6.60842e-05,-2.07785e-05,-3.53758e-06,2
-6.92849e-05,-1.1609e-05,-2.19336e-05,-1.06227e-05,-3.70441e-05,3.69954e-05,-2.10252e-05,-1.13811e-06,2
-5.46907e-05,4.39774e-06,-1.8097e-05,-1.79813e-05,-2.26891e-05,-1.17047e-05,-1.44433e-05,2.6891e-06,2
-3.94852e-05,1.6129e-05,-1.86246e-05,-1.56664e-05,-6.04415e-06,-4.73962e-05,-1.70972e-06,3.97822e-06,2
-3.29471e-05,1.53058e-05,-2.14946e-05,-8.43704e-06,1.03447e-05,-4.38975e-05,1.43232e-05,6.75198e-07,2
-2.93679e-05,8.59509e-06,-2.26402e-05,-5.24407e-06,1.66792e-05,-1.89977e-05,2.62777e-05,-3.08169e-06,2
-2.75929e-05,2.40817e-06,-1.93536e-05,-5.42235e-06,1.32457e-05,7.94662e-07,3.31412e-05,-5.91203e-06,2
-2.81569e-05,1.89177e-06,-1.33998e-05,-4.66416e-07,1.14981e-05,2.18271e-06,3.70302e-05,-7.12244e-06,2
-2.87191e-05,6.7208e-06,-7.63115e-06,1.51393e-05,8.52774e-06,-4.81719e-06,3.9235e-05,-4.60791e-06,2
-2.80554e-05,1.14953e-05,-3.29526e-06,2.57697e-05,-3.30171e-06,-1.16041e-05,3.70619e-05,-6.19784e-07,2
-2.9192e-05,1.22428e-05,-2.69367e-06,1.7476e-05,-3.34202e-05,-1.22905e-05,2.7857e-05,1.79373e-06,2
-3.20136e-05,8.88259e-06,-2.65412e-06,-6.17469e-06,-7.46403e-05,-4.5207e-06,2.01297e-05,1.99757e-06,2
-3.47444e-05,5.97206e-06,-1.2258e-06,-3.26687e-05,-0.000104504,5.16335e-06,2.01919e-05,9.51016e-07,2
-3.88932e-05,5.43186e-06,1.03057e-06,-4.71278e-05,-0.000105088,1.15284e-05,1.88836e-05,1.46873e-06,2
-4.54327e-05,4.29121e-06,7.08324e-07,-4.04786e-05,-7.57937e-05,1.54501e-05,1.24375e-05,2.71391e-06,2
-5.63628e-05,-1.19572e-06,-1.96541e-06,-1.31431e-05,-3.2174e-05,1.80569e-05,5.69171e-06,2.80829e-06,2
-7.00258e-05,-1.06181e-05,-3.102e-06,1.76777e-05,2.49524e-06,1.51445e-05,5.03018e-06,3.49024e-06,2
-8.245e-05,-1.98093e-05,-2.327e-06,3.01197e-05,1.76795e-05,5.43561e-06,1.18092e-05,4.1019e-06,2
-8.84251e-05,-2.36954e-05,-1.76819e-06,2.12863e-05,2.14163e-05,-4.43571e-06,2.14504e-05,3.44917e-06,2
-8.73185e-05,-2.27328e-05,-2.16442e-06,7.24382e-06,1.53088e-05,-7.39784e-07,2.67229e-05,1.68962e-06,2
-8.13799e-05,-1.87225e-05,-3.88739e-06,5.93091e-07,-1.12628e-05,1.89428e-05,2.86092e-05,-5.13701e-07,2
-7.0492e-05,-1.23434e-05,-6.89771e-06,-6.74391e-07,-5.28741e-05,4.52628e-05,3.30436e-05,-2.94454e-06,2
-5.34199e-05,-4.23057e-06,-9.26783e-06,-8.1332e-07,-7.08457e-05,6.99361e-05,4.2135e-05,-3.25129e-06,2
-3.7754e-05,5.54084e-06,-8.6349e-06,3.45075e-06,-3.66085e-05,9.39702e-05,4.79695e-05,-1.86209e-06,2
-2.898e-05,1.80289e-05,-5.25736e-06,9.49219e-06,3.13088e-05,0.000119343,4.11239e-05,-2.67913e-06,2
-1.00082e-05,3.29778e-05,-2.39442e-06,4.80119e-06,0.000100074,0.000143472,2.86835e-05,-6.13333e-06,2
3.6999e-05,4.92079e-05,-1.88043e-06,-1.50482e-05,0.000157588,0.000151974,2.02952e-05,-7.71098e-06,2
9.03092e-05,6.25195e-05,-2.66129e-06,-3.73214e-05,0.000203958,0.000134281,1.51503e-05,-5.92271e-06,2
0.00011246,6.44945e-05,-5.53154e-06,-5.39288e-05,0.000235863,8.79747e-05,1.16309e-05,-2.26709e-06,2
9.16909e-05,5.44733e-05,-1.27602e-05,-6.73875e-05,0.00022648,1.2703e-05,5.23069e-06,1.23318e-06,2
4.95901e-05,4.6483e-05,-1.95438e-05,-6.04282e-05,0.000160977,-5.99288e-05,-7.73081e-06,6.75761e-07,2
1.9522e-05,4.81697e-05,-2.26983e-05,-1.83531e-05,8.36122e-05,-0.000124024,-2.32477e-05,-1.80854e-07,2
5.24703e-06,5.06491e-05,-2.37768e-05,2.83986e-05,4.28972e-05,-0.000197713,-3.92472e-05,3.46846e-06,2
-2.06149e-06,4.56855e-05,-2.24333e-05,5.06205e-05,3.74962e-05,-0.00024508,-5.26358e-05,7.78393e-06,2
-9.92155e-06,3.32028e-05,-1.67053e-05,5.53202e-05,4.0142e-05,-0.000224045,-6.26406e-05,1.02239e-05,2
-1.82091e-05,2.19508e-05,-1.00462e-05,4.5574e-05,3.03543e-05,-0.000149706,-6.45082e-05,1.01427e-05,2
-2.34648e-05,1.77657e-05,-5.77799e-06,2.15672e-05,9.19594e-06,-8.91149e-05,-5.73382e-05,7.81589e-06,2
-2.63881e-05,1.65635e-05,-3.17417e-06,-4.33006e-06,-1.54699e-05,-6.78805e-05,-4.9284e-05,2.36517e-06,2
-3.04732e-05,1.40239e-05,-2.60752e-06,-2.0966e-05,-4.01853e-05,-6.47826e-05,-4.11348e-05,-5.13294e-06,2
-3.682e-05,9.78473e-06,-3.56469e-06,-2.71903e-05,-6.58142e-05,-6.30848e-05,-3.19135e-05,-1.26044e-05,2
-3.89507e-05,5.18248e-06,-4.05796e-06,-2.58044e-05,-9.99231e-05,-5.66839e-05,-2.38506e-05,-1.90131e-05,2
-3.55978e-05,1.98822e-06,-2.38869e-06,-1.73596e-05,-0.000145532,-4.35545e-05,-2.17541e-05,-2.2513e-05,2
-3.4891e-05,-5.66124e-07,7.97836e-08,-7.48127e-06,-0.000185525,-2.57056e-05,-2.98645e-05,-2.37175e-05,2
-4.49515e-05,-4.02576e-06,7.88232e-07,-2.68773e-06,-0.000181201,-1.16772e-05,-4.3046e-05,-2.24363e-05,2
-6.63969e-05,-1.20262e-05,-1.33683e-06,-3.36771e-06,-0.000101566,-5.36792e-07,-4.66826e-05,-1.91817e-05,2
-9.54845e-05,-2.51962e-05,-6.66463e-06,-5.44411e-06,2.10291e-05,8.76092e-06,-3.33125e-05,-1.43968e-05,2
-0.000123407,-3.59768e-05,-1.49644e-05,-7.24963e-06,0.000100176,1.75491e-05,-1.18078e-05,-8.61999e-06,2
-0.000145539,-3.78963e-05,-2.27509e-05,-1.10697e-05,0.000100868,2.56643e-05,4.77072e-06,-2.77514e-06,2
-0.00016007,-3.61508e-05,-2.69004e-05,-1.7114e-05,6.74173e-05,4.57221e-05,1.37928e-05,7.80028e-07,2
-0.000168558,-4.13432e-05,-2.79766e-05,-2.26243e-05,3.39507e-05,8.9659e-05,2.31966e-05,2.20984e-06,2
-0.000166596,-4.87731e-05,-2.61489e-05,-2.65136e-05,-7.66076e-06,0.000148011,3.73862e-05,2.97852e-06,2
-0.000135342,-4.12388e-05,-2.08737e-05,-2.8842e-05,-5.53815e-05,0.000192086,5.24692e-05,4.97468e-06,2
-5.97884e-05,-1.91563e-05,-1.64773e-05,-3.08294e-05,-9.5051e-05,0.00020363,6.23841e-05,6.43306e-06,2
5.27227e-05,2.51991e-06,-1.17863e-05,-2.54825e-05,-0.000112097,0.000198828,6.49302e-05,5.19475e-06,2
0.000158915,2.18739e-05,-1.57519e-06,-6.30132e-06,-8.99288e-05,0.000206575,6.38812e-05,3.57846e-06,2
0.000196919,3.8491e-05,7.20388e-06,9.55285e-06,-4.12608e-05,0.000221608,6.54846e-05,2.28814e-06,2
0.00015849,5.20338e-05,4.70026e-06,6.40183e-06,-1.53615e-05,0.000219252,6.78526e-05,1.96103e-06,2
8.91448e-05,6.00178e-05,-4.48816e-06,-6.46186e-06,-4.51729e-05,0.000189565,6.12036e-05,2.7125e-06,2
2.85256e-05,6.37679e-05,-9.51066e-06,-8.14877e-06,-8.33867e-05,0.000132771,5.33573e-05,5.596e-06,2
-3.43406e-06,6.77324e-05,-9.06434e-06,3.74318e-06,-2.89395e-05,3.88401e-05,6.01136e-05,9.78165e-06,2
-8.84911e-06,6.48503e-05,-7.53742e-06,1.04851e-05,0.000149741,-9.61705e-05,7.51281e-05,1.28539e-05,2
-1.60214e-06,6.10051e-05,-7.62755e-06,8.10177e-06,0.000329256,-0.000264205,8.04962e-05,1.35205e-05,2
4.62898e-06,5.92322e-05,-7.33615e-06,4.86881e-06,0.000371862,-0.000435685,7.17916e-05,1.22717e-05,2
5.44813e-06,5.47578e-05,-4.51547e-06,3.87015e-06,0.000304302,-0.000525414,5.54424e-05,1.23213e-05,2
4.97879e-06,4.78984e-05,-1.14186e-06,3.90206e-06,0.000227227,-0.000476661,3.14191e-05,1.25452e-05,2
6.43221e-06,4.14818e-05,5.98083e-07,-7.33783e-07,0.000189754,-0.00033559,5.40287e-06,1.19064e-05,2
6.9473e-06,3.47961e-05,-7.31562e-07,-1.15191e-05,0.000181303,-0.000192926,-1.35356e-05,1.21208e-05,2
-6.17219e-07,2.37777e-05,-3.29714e-06,-1.85559e-05,0.000179869,-9.04832e-05,-2.10746e-05,1.2912e-05,2
-1.71458e-05,1.24612e-05,-3.80959e-06,-1.57339e-05,0.000173565,-2.39949e-05,-1.74667e-05,1.30492e-05,2
-4.18516e-05,8.04512e-06,-1.7929e-06,-9.58808e-06,0.000151052,1.51991e-05,-1.12495e-05,1.19573e-05,2
-7.28435e-05,1.33743e-05,1.0678e-06,-6.64941e-06,0.000107369,2.85966e-05,-1.077e-05,1.09538e-05,2
-9.7593e-05,2.35552e-05,2.72097e-06,-5.82203e-06,5.21639e-05,2.62313e-05,-1.13837e-05,1.11117e-05,2
-0.000105753,3.26407e-05,2.6964e-06,-2.98701e-06,1.14625e-06,2.20813e-05,-4.8302e-06,1.12609e-05,2
-0.00010337,3.48054e-05,6.33173e-07,1.11333e-06,-5.58495e-05,1.98495e-05,2.88092e-06,9.39575e-06,2
-0.000103268,2.7827e-05,-2.66186e-06,3.47876e-06,-0.000136313,1.67137e-05,3.44539e-06,5.85722e-06,2
-0.000105855,1.79787e-05,-4.74866e-06,3.80668e-06,-0.000217368,1.35641e-05,6.50649e-08,2.76985e-06,2
-0.00010138,1.53089e-05,-3.77248e-06,5.19133e-06,-0.000237905,1.54251e-05,1.63666e-06,1.2948e-06,2
-8.02674e-05,1.71177e-05,-8.09612e-07,8.29083e-06,-0.000169145,1.40305e-05,9.97397e-06,8.66e-07,2
-3.90119e-05,1.45609e-05,3.39341e-06,9.39772e-06,-3.99333e-05,-1.06132e-05,2.0918e-05,-4.26464e-07,2
1.67665e-05,1.30921e-05,7.40868e-06,5.52897e-06,8.95243e-05,-5.50747e-05,2.83766e-05,-4.24326e-06,2
6.33088e-05,2.45062e-05,1.00005e-05,8.00842e-07,0.0001685,-8.10857e-05,2.66864e-05,-7.35982e-06,2
6.62952e-05,3.93442e-05,1.04451e-05,-1.66232e-06,0.000173172,-5.95243e-05,1.99262e-05,-7.51736e-06,2
2.44752e-05,3.83708e-05,6.36417e-06,-4.66921e-06,0.000124559,-5.23362e-06,1.5821e-05,-8.76933e-06,2
-2.43533e-05,2.4596e-05,-9.76386e-07,-8.61246e-06,8.5311e-05,4.51017e-05,1.09138e-05,-1.15075e-05,2
-4.12204e-05,1.86694e-05,-5.70195e-06,-1.17948e-05,7.93231e-05,5.93232e-05,3.62863e-06,-1.08651e-05,2
-2.79455e-05,3.28036e-05,-3.09296e-06,-1.38575e-05,7.36285e-05,2.83875e-05,-2.13094e-06,-9.3541e-06,2
-1.07665e-05,5.60938e-05,3.63203e-06,-1.34609e-05,5.50791e-05,-4.09391e-05,-5.36623e-06,-9.36182e-06,2
-1.04906e-06,6.76764e-05,8.90998e-06,-1.10192e-05,3.42284e-05,-0.000115561,-8.19927e-06,-8.12214e-06,2
1.23665e-06,5.4306e-05,1.00225e-05,-1.01045e-05,9.17114e-06,-0.000123274,-8.49788e-06,-3.81301e-06,2
8.1115e-08,2.44366e-05,7.88765e-06,-9.87492e-06,-2.07966e-05,-4.94647e-05,-1.46596e-06,4.92541e-07,2
-1.01873e-05,-2.30193e-07,5.32656e-06,-9.50954e-06,-5.58621e-05,3.7516e-05,7.44142e-06,1.91874e-06,2
-2.63992e-05,-5.96735e-06,3.81456e-06,-1.00579e-05,-8.72595e-05,5.49292e-05,9.18011e-06,2.12955e-06,2
-3.6816e-05,3.48008e-06,2.52012e-06,-1.42073e-05,-0.00010576,-1.21315e-05,7.59756e-06,1.51259e-06,2
-3.77501e-05,1.39473e-05,2.47866e-07,-1.98766e-05,-0.000109498,-0.000105686,6.279e-06,-3.66922e-07,2
-3.60514e-05,1.6092e-05,-1.20572e-06,-2.18301e-05,-0.000100472,-0.00015586,1.99013e-06,-3.14294e-06,2
-3.88644e-05,1.08252e-05,4.35882e-07,-1.86641e-05,-8.96607e-05,-0.000139271,-1.89927e-06,-4.94131e-06,2
-4.42561e-05,3.80804e-06,3.12404e-06,-1.32307e-05,-9.05562e-05,-9.19023e-05,-2.96447e-06,-5.87092e-06,2
-4.87022e-05,-9.29616e-07,4.1752e-06,-9.79059e-06,-0.000101721,-6.09267e-05,-2.51831e-06,-4.84063e-06,2
-4.94069e-05,-2.14254e-06,4.09611e-06,-9.46603e-06,-0.000105262,-5.85952e-05,6.35073e-07,-2.61984e-06,2
-4.77325e-05,-2.27925e-06,2.85e-06,-1.18271e-05,-8.5441e-05,-5.96676e-05,7.67567e-06,-1.94037e-06,2
-4.59079e-05,-6.28203e-06,-5.709e-07,-1.46696e-05,-4.6635e-05,-4.31941e-05,1.41889e-05,-2.08018e-06,2
-4.66835e-05,-1.48628e-05,-6.49723e-06,-1.45606e-05,-1.24168e-05,-1.42378e-05,1.71677e-05,-7.88617e-07,2
-4.95563e-05,-2.26722e-05,-1.51964e-05,-8.95051e-06,1.56715e-06,6.71545e-06,1.71845e-05,7.1317e-07,2
-5.21311e-05,-2.46211e-05,-2.55473e-05,7.39604e-07,3.64332e-06,1.51935e-05,1.6054e-05,9.00139e-07,2
-4.74729e-05,-1.94704e-05,-3.27499e-05,1.06653e-05,7.58397e-06,1.97489e-05,1.55466e-05,8.00668e-07,2
-3.14809e-05,-9.43189e-06,-3.33251e-05,1.60574e-05,1.0342e-05,2.9816e-05,2.05649e-05,2.10496e-06,2
-8.91318e-06,2.19701e-06,-2.74763e-05,1.72475e-05,9.21074e-06,4.98465e-05,3.5904e-05,4.65449e-06,2
6.18513e-06,1.25404e-05,-1.8573e-05,1.53515e-05,1.82398e-05,7.57485e-05,5.73249e-05,4.82621e-06,2
8.76797e-06,1.9437e-05,-1.25271e-05,1.16722e-05,3.39003e-05,9.2657e-05,7.41606e-05,2.77303e-06,2
5.42872e-06,2.20383e-05,-1.26211e-05,7.63592e-06,2.86211e-05,9.32679e-05,7.93049e-05,2.90402e-06,2
-3.65155e-06,1.89485e-05,-1.52219e-05,3.43933e-06,1.33113e-05,8.47631e-05,6.62945e-05,5.05893e-06,2
-2.28559e-05,1.22389e-05,-1.62755e-05,2.32112e-06,1.23932e-05,7.3454e-05,3.82987e-05,6.11088e-06,2
-5.01545e-05,6.9108e-06,-1.47409e-05,-3.74676e-07,1.57852e-05,5.665e-05,1.42839e-05,5.99961e-06,2
-7.58944e-05,3.70134e-06,-1.03868e-05,-6.83222e-06,1.64821e-05,4.1647e-05,1.13749e-06,6.40852e-06,2
-9.28812e-05,-1.5937e-06,-3.62016e-06,-1.42951e-05,1.72747e-05,3.99817e-05,-6.01302e-06,6.04782e-06,2
-0.000101073,-1.06363e-05,4.12442e-06,-2.10935e-05,1.77955e-05,4.69662e-05,-8.92166e-06,1.30173e-06,2
-0.000103125,-1.85621e-05,8.30857e-06,-2.19395e-05,1.78015e-05,5.6272e-05,-4.41542e-06,-5.42654e-06,2
-9.81527e-05,-2.06776e-05,5.78452e-06,-1.7261e-05,1.67357e-05,6.56156e-05,9.50688e-06,-9.39089e-06,2
-8.52011e-05,-1.91071e-05,-9.17782e-07,-1.17304e-05,1.43435e-05,6.6065e-05,3.16876e-05,-8.77586e-06,2
-6.10454e-05,-1.53688e-05,-7.31274e-06,-8.8289e-06,4.20066e-06,4.62838e-05,6.28855e-05,-7.62434e-06,2
-3.02926e-05,-8.94553e-06,-1.23015e-05,-9.53193e-06,-1.47589e-05,1.02336e-05,9.26009e-05,-8.47349e-06,2
-8.66894e-06,-4.20769e-06,-1.74195e-05,-1.2325e-05,-2.9673e-05,-2.7295e-05,0.000105149,-7.6e-06,2
-7.93929e-06,-3.52959e-06,-2.17038e-05,-1.47797e-05,-2.66686e-05,-4.22844e-05,0.000100217,-3.34481e-06,2
-2.06635e-05,-3.73025e-06,-2.20345e-05,-1.52671e-05,-1.54136e-05,-3.11565e-05,8.61961e-05,2.9434e-07,2
-2.88983e-05,-6.36093e-07,-1.78666e-05,-1.23326e-05,-1.11892e-05,-1.45454e-05,6.30087e-05,1.02721e-06,2
-2.59992e-05,3.76666e-06,-1.23368e-05,-4.64916e-06,3.82212e-06,-6.07475e-06,3.07972e-05,9.87329e-07,2
-1.86401e-05,6.36561e-06,-8.65067e-06,5.96503e-06,4.12139e-05,-1.82116e-06,2.53146e-07,1.58154e-06,2
-1.50044e-05,8.08823e-06,-6.94002e-06,1.54602e-05,7.45316e-05,5.90034e-07,-2.15002e-05,2.58797e-06,2
-1.58763e-05,9.25265e-06,-5.43208e-06,2.29171e-05,8.0185e-05,-5.77456e-06,-3.53146e-05,3.03766e-06,2
-1.68422e-05,9.77571e-06,-2.81225e-06,2.80605e-05,6.52009e-05,-1.86517e-05,-4.41943e-05,3.7996e-06,2
-1.83832e-05,1.01989e-05,-1.77482e-06,2.67987e-05,4.18467e-05,-1.94579e-05,-4.73566e-05,4.71826e-06,2
-3.21616e-05,6.51539e-06,-6.06555e-06,1.91463e-05,1.63691e-05,3.76473e-06,-4.42083e-05,4.5092e-06,2
-6.62325e-05,-4.27685e-06,-1.34727e-05,9.67164e-06,-1.33075e-05,3.82122e-05,-4.00127e-05,3.93107e-06,2
-0.000112794,-1.59662e-05,-1.81367e-05,3.06195e-06,-4.73122e-05,6.87014e-05,-3.84275e-05,4.44677e-06,2
-0.000163555,-2.24699e-05,-1.83588e-05,-3.52638e-06,-6.67917e-05,8.75476e-05,-3.34293e-05,5.57958e-06,2
-0.000213599,-2.54272e-05,-1.61202e-05,-1.47323e-05,-4.94714e-05,9.06561e-05,-2.07025e-05,7.23865e-06,2
-0.00024793,-3.13837e-05,-1.43144e-05,-2.33219e-05,-2.46144e-06,8.43665e-05,-4.944e-06,9.88405e-06,2
-0.000254148,-3.86711e-05,-1.43644e-05,-2.05301e-05,4.22965e-05,7.87484e-05,7.90111e-06,1.1342e-05,2
-0.000229396,-3.42078e-05,-1.48872e-05,-1.38384e-06,6.77624e-05,7.47691e-05,1.5229e-05,9.85882e-06,2
-0.000171602,-1.18236e-05,-1.0912e-05,2.35773e-05,8.29732e-05,7.89671e-05,1.85438e-05,6.73102e-06,2
-6.36388e-05,2.35752e-05,-4.26903e-06,3.15162e-05,8.95479e-05,9.72395e-05,1.87222e-05,4.41727e-06,2
8.35567e-05,5.81431e-05,-1.61236e-06,2.32754e-05,8.1559e-05,0.000114805,1.65667e-05,5.1426e-06,2
0.000199539,7.32025e-05,-1.79639e-06,1.64864e-05,6.90876e-05,0.000112038,9.35337e-06,7.22888e-06,2
0.000241821,6.77702e-05,-4.84688e-06,1.9554e-05,6.04644e-05,9.43698e-05,-6.64236e-06,8.72504e-06,2
0.000223578,5.35197e-05,-1.02787e-05,2.43708e-05,4.80896e-05,8.09925e-05,-2.93678e-05,8.8849e-06,2
0.000179216,4.12511e-05,-1.7224e-05,2.26308e-05,2.40387e-05,7.13008e-05,-4.76804e-05,8.96883e-06,2
0.000140207,3.80087e-05,-2.49111e-05,1.76742e-05,3.79406e-06,4.36439e-05,-4.10231e-05,7.66158e-06,2
0.000119123,4.31562e-05,-2.95125e-05,1.12121e-05,1.23096e-06,-1.87629e-05,-9.08241e-06,4.14509e-06,2
0.000103742,5.17142e-05,-2.8896e-05,8.00838e-07,1.25992e-05,-0.000100061,2.62879e-05,2.15672e-06,2
7.83497e-05,5.63389e-05,-2.66491e-05,-1.16133e-05,2.35741e-05,-0.000164033,5.00088e-05,1.78404e-06,2
4.93085e-05,5.54868e-05,-2.63727e-05,-2.23663e-05,2.6713e-05,-0.000206201,5.7495e-05,2.40392e-06,2
2.78967e-05,5.17473e-05,-2.67161e-05,-3.60199e-05,2.31627e-05,-0.000248625,4.91927e-05,3.60744e-06,2
1.57873e-05,4.73341e-05,-2.42866e-05,-5.58781e-05,1.447e-05,-0.00028135,3.56861e-05,5.38997e-06,2
6.33667e-06,4.3143e-05,-1.79681e-05,-7.64816e-05,3.9684e-06,-0.000277934,2.99094e-05,6.18063e-06,2
