ch1,ch2,ch3,ch4,ch5,ch6,ch7,ch8,class
-1.97243e-05,1.39837e-05,-6.08014e-06,-0.000537341,1.93623e-05,-1.43122e-05,0.000137833,1.14502e-05,4
-2.53423e-05,1.18835e-05,-1.04783e-05,-0.000492236,7.27556e-06,-2.04677e-05,0.000129329,1.3317e-05,4
-2.91782e-05,1.22352e-05,-1.67323e-05,-0.000322771,3.07151e-06,-2.28098e-05,4.31926e-05,1.43429e-05,4
-2.84654e-05,1.59052e-05,-2.04306e-05,-0.000154265,1.05419e-05,-2.0795e-05,-0.000105846,1.36934e-05,4
-2.3886e-05,2.20672e-05,-1.51713e-05,-2.13464e-05,2.43152e-05,-1.51784e-05,-0.000258451,1.34025e-05,4
-1.82523e-05,2.87326e-05,7.26044e-06,6.33047e-05,3.7469e-05,-6.365e-06,-0.00032582,1.35627e-05,4
-1.40984e-05,3.33313e-05,4.00126e-05,6.39339e-05,4.66159e-05,7.61795e-07,-0.000317887,1.29451e-05,4
-1.45829e-05,3.23418e-05,5.91438e-05,-9.48724e-05,4.68703e-05,6.3516e-07,-0.000289924,1.21227e-05,4
-2.05438e-05,2.50981e-05,5.28668e-05,-0.000349433,3.28535e-05,-7.02942e-06,-0.000150932,1.1554e-05,4
-3.02114e-05,1.48821e-05,3.62575e-05,-0.000417447,9.82028e-06,-1.77931e-05,0.000171524,1.08213e-05,4
-3.72246e-05,8.19696e-06,3.05597e-05,-0.000189148,-5.20461e-06,-2.38091e-05,0.000514161,8.95664e-06,4
-3.72366e-05,7.23369e-06,3.838e-05,9.85483e-05,-3.87136e-06,-2.12774e-05,0.000650887,7.2094e-06,4
-3.39806e-05,8.91005e-06,4.50183e-05,0.000193474,4.14853e-06,-1.29513e-05,0.000527468,6.01926e-06,4
-3.48311e-05,8.39457e-06,3.60097e-05,0.000204874,4.96315e-06,-3.29262e-06,0.000284253,5.64277e-06,4
-4.26461e-05,3.24668e-06,1.05653e-05,0.000303156,-5.83416e-06,2.44432e-06,9.16616e-05,7.40502e-06,4
-5.272e-05,-4.71808e-06,-1.76649e-05,0.000385766,-2.03671e-05,5.28949e-07,1.19535e-06,1.3841e-05,4
-5.63817e-05,-9.47538e-06,-3.17786e-05,0.000320652,-2.43144e-05,-4.14242e-06,-3.61942e-05,2.33842e-05,4
-4.97848e-05,-6.79134e-06,-2.81421e-05,0.000191905,-1.20247e-05,-2.38414e-06,-8.13215e-05,2.84233e-05,4
-3.793e-05,4.76528e-08,-1.60718e-05,0.000159202,5.15491e-06,1.97957e-06,-0.000145323,2.59014e-05,4
-3.00165e-05,4.41607e-06,-8.36032e-06,0.000222993,1.18279e-05,-2.40596e-06,-0.000149005,2.14843e-05,4
-3.00296e-05,5.09104e-06,-1.04396e-05,0.000278615,6.9729e-06,-1.34151e-05,-4.34494e-05,2.46358e-05,4
-3.40942e-05,4.9218e-06,-1.72571e-05,0.000295256,-2.47214e-06,-2.12749e-05,7.98806e-05,3.43706e-05,4
-3.68985e-05,6.00974e-06,-2.1059e-05,0.000323866,-9.72503e-06,-2.31496e-05,0.000110614,3.86426e-05,4
-3.62696e-05,7.74394e-06,-1.97124e-05,0.000352272,-9.94289e-06,-2.1509e-05,4.19062e-05,3.23951e-05,4
-3.55443e-05,7.08011e-06,-1.71396e-05,0.000207415,-7.68807e-06,-1.99728e-05,-4.32778e-05,2.6463e-05,4
-3.53813e-05,5.07784e-06,-1.66229e-05,-0.000148712,-6.37429e-06,-1.93518e-05,-0.000124391,3.2626e-05,4
-3.3831e-05,6.16045e-06,-1.71345e-05,-0.000400612,-1.39761e-06,-1.85663e-05,-0.000130012,4.90369e-05,4
-3.05812e-05,1.02227e-05,-1.77926e-05,-0.000388704,9.3622e-06,-1.59823e-05,4.27177e-05,6.35874e-05,4
-2.63775e-05,1.40151e-05,-1.75622e-05,-0.000252797,2.38277e-05,-1.08559e-05,0.000177661,6.41355e-05,4
-2.29887e-05,1.56818e-05,-1.65438e-05,-0.000135574,3.43396e-05,-6.50278e-06,0.000123072,5.37547e-05,4
-2.22918e-05,1.51205e-05,-1.50851e-05,-7.53998e-05,3.4575e-05,-6.94657e-06,7.48183e-06,3.97822e-05,4
-2.43164e-05,1.40572e-05,-1.33507e-05,-4.87621e-05,2.87852e-05,-1.03581e-05,-5.0438e-05,2.16713e-05,4
-2.61198e-05,1.39481e-05,-1.29783e-05,-3.6959e-05,2.23736e-05,-1.34428e-05,-4.17755e-05,-1.89373e-07,4
-2.61814e-05,1.48913e-05,-1.35671e-05,-3.00406e-05,1.93867e-05,-1.42259e-05,-2.46625e-05,-1.86604e-05,4
-2.46008e-05,1.67614e-05,-1.4338e-05,-2.46911e-05,2.10402e-05,-1.17531e-05,-1.68885e-05,-2.93718e-05,4
-2.32593e-05,1.80581e-05,-1.315e-05,-1.999e-05,2.51353e-05,-8.37343e-06,-1.58178e-05,-3.53518e-05,4
-2.35752e-05,1.77522e-05,-1.11066e-05,-1.73231e-05,2.9035e-05,-6.20807e-06,-1.27391e-05,-4.19643e-05,4
-2.50969e-05,1.73185e-05,-1.0556e-05,-1.6301e-05,3.23653e-05,-5.43104e-06,-2.20763e-05,-5.39442e-05,4
-2.70003e-05,1.714e-05,-1.37253e-05,-1.4241e-05,3.6196e-05,-5.79793e-06,-4.76175e-05,-6.57264e-05,4
-2.87569e-05,1.64321e-05,-1.98914e-05,-6.70231e-06,4.05119e-05,-7.49881e-06,-6.74813e-05,-6.96753e-05,4
-3.0102e-05,1.51247e-05,-2.56496e-05,4.80775e-06,4.52774e-05,-8.83844e-06,-5.65705e-05,-7.22535e-05,4
-3.05767e-05,1.45553e-05,-2.78281e-05,1.60485e-05,4.78142e-05,-8.7611e-06,-1.90431e-05,-8.88106e-05,4
-3.19645e-05,1.34775e-05,-2.76131e-05,1.71154e-05,4.33951e-05,-9.37047e-06,1.77672e-05,-0.00011694,4
-3.59116e-05,9.64553e-06,-2.81028e-05,5.58521e-07,3.24488e-05,-1.36749e-05,5.20258e-06,-0.000135699,4
-4.06822e-05,5.41683e-06,-3.12622e-05,-2.26951e-05,1.88439e-05,-1.8072e-05,-7.58951e-05,-0.000132924,4
-4.31434e-05,5.46e-06,-3.40969e-05,-2.97571e-05,3.99889e-06,-1.70573e-05,-0.000120576,-0.000117666,4
-4.257e-05,9.3012e-06,-2.48795e-05,-2.0785e-05,-9.46428e-06,-1.3054e-05,-1.47348e-05,-0.000103348,4
-3.98878e-05,1.3686e-05,-2.92948e-06,-1.9415e-05,-1.53841e-05,-1.10831e-05,0.000149489,-9.04551e-05,4
-3.76053e-05,1.54579e-05,9.39796e-06,-3.1964e-05,-1.17179e-05,-1.01145e-05,0.000196931,-7.2317e-05,4
-3.65478e-05,1.43876e-05,7.87929e-07,-4.67523e-05,-4.01873e-06,-9.4376e-06,7.97014e-05,-5.07362e-05,4
-3.53679e-05,1.40324e-05,-1.26786e-05,-4.87692e-05,4.31034e-06,-1.02131e-05,-0.000146666,-3.04766e-05,4
-3.37026e-05,1.42843e-05,-1.87191e-05,-2.59716e-05,1.36908e-05,-9.87106e-06,-0.000250596,-1.4822e-05,4
-3.22174e-05,1.48812e-05,-2.13877e-05,9.06672e-06,2.25875e-05,-8.7534e-06,-0.00013601,-3.18043e-06,4
-3.20268e-05,1.5831e-05,-2.73894e-05,3.70251e-05,2.66821e-05,-7.76675e-06,1.44214e-05,6.80353e-06,4
-3.11566e-05,1.6881e-05,-3.17785e-05,5.47102e-05,2.66173e-05,-7.25469e-06,6.17033e-05,1.17037e-05,4
-2.87767e-05,1.98644e-05,-2.6133e-05,5.68228e-05,2.61814e-05,-8.35386e-06,5.60497e-06,1.30563e-05,4
-2.55844e-05,2.35453e-05,-6.47586e-06,3.76635e-05,2.68275e-05,-1.02956e-05,-4.67942e-05,1.32356e-05,4
-2.23263e-05,2.61847e-05,2.28265e-05,-1.98173e-05,2.70839e-05,-1.1473e-05,-1.75102e-05,1.57374e-05,4
-2.00267e-05,2.84451e-05,5.20714e-05,-0.00016412,2.05856e-05,-1.09832e-05,0.000126998,2.07478e-05,4
-1.86958e-05,3.05223e-05,7.24564e-05,-0.000411842,8.94575e-06,-9.88638e-06,0.000282214,2.74314e-05,4
-1.87511e-05,3.05619e-05,8.27749e-05,-0.00062356,6.21085e-06,-1.02699e-05,0.000281442,3.32813e-05,4
-1.91228e-05,2.83435e-05,9.33355e-05,-0.000572041,2.26782e-05,-1.25574e-05,0.000132881,3.64604e-05,4
-1.86998e-05,2.68163e-05,0.000108418,-0.000244742,5.11163e-05,-1.51186e-05,-1.79002e-05,3.68804e-05,4
-1.75363e-05,2.65743e-05,0.000115141,0.000136925,7.1582e-05,-1.49036e-05,-7.80627e-05,3.43226e-05,4
-1.80756e-05,2.54484e-05,9.71379e-05,0.000439881,6.9241e-05,-1.23739e-05,-9.95377e-05,3.13853e-05,4
-2.17418e-05,2.08376e-05,5.27161e-05,0.000739388,5.0764e-05,-1.15483e-05,-0.000134292,3.00458e-05,4
-2.66402e-05,1.42704e-05,3.72425e-07,0.00089392,3.61649e-05,-1.23309e-05,-0.000134665,3.06002e-05,4
-2.96745e-05,9.63465e-06,-3.45117e-05,0.000524427,3.32338e-05,-9.4036e-06,-2.85376e-05,3.07641e-05,4
-3.00702e-05,7.76351e-06,-4.44202e-05,-0.000142849,3.03542e-05,-6.52433e-07,0.000118272,2.92957e-05,4
-3.14752e-05,6.57546e-06,-4.25058e-05,-0.000375685,1.85223e-05,6.50737e-06,0.000165797,2.62353e-05,4
-3.65524e-05,3.41093e-06,-4.31409e-05,-0.000108929,3.70045e-06,4.96896e-06,8.8246e-05,2.40957e-05,4
-4.39576e-05,-2.91221e-06,-5.05087e-05,2.20285e-05,-8.38739e-06,-2.24653e-06,8.36333e-06,2.24311e-05,4
-5.07011e-05,-1.09387e-05,-6.32416e-05,-0.000157992,-1.99527e-05,-9.46878e-06,-1.40596e-05,2.0853e-05,4
-5.53269e-05,-1.83306e-05,-7.56077e-05,-0.000247974,-3.41051e-05,-1.62727e-05,-1.51384e-05,1.94522e-05,4
-5.70936e-05,-2.05295e-05,-7.71824e-05,-0.000143364,-4.63683e-05,-2.30791e-05,3.90558e-06,1.97439e-05,4
-5.57597e-05,-1.45342e-05,-6.47882e-05,-3.27143e-05,-4.90707e-05,-2.3268e-05,5.74727e-05,2.21496e-05,4
-5.07859e-05,-5.11386e-06,-5.16488e-05,6.7382e-05,-4.44978e-05,-1.2965e-05,0.000108592,2.40999e-05,4
-4.32548e-05,2.01361e-06,-4.77567e-05,0.000248165,-4.12297e-05,2.03359e-07,0.000100146,2.39599e-05,4
-3.81409e-05,5.03037e-06,-4.31609e-05,0.000435521,-3.81415e-05,8.61049e-06,6.40125e-05,2.33338e-05,4
-3.71292e-05,5.62667e-06,-3.27016e-05,0.000478187,-2.8644e-05,9.46477e-06,5.09803e-05,2.33515e-05,4
-3.80878e-05,5.12458e-06,-2.146e-05,0.000338652,-1.52388e-05,2.22948e-06,5.3907e-05,2.3189e-05,4
-3.88028e-05,5.4555e-06,-1.20639e-05,0.000109201,-5.04274e-06,-8.49646e-06,5.44308e-05,2.18843e-05,4
-3.6922e-05,7.72794e-06,-5.43786e-06,-5.97836e-05,5.11e-07,-1.15235e-05,3.87114e-05,1.86788e-05,4
-3.36739e-05,9.64262e-06,3.09268e-06,-0.000172789,4.44986e-06,-6.80137e-06,1.01367e-05,1.56475e-05,4
-3.19397e-05,1.12164e-05,1.02806e-05,-0.000266091,6.0922e-06,-3.75464e-06,-4.42408e-06,1.45882e-05,4
-3.33954e-05,1.16056e-05,8.71513e-06,-0.000284585,3.25327e-07,-7.66136e-06,-2.3267e-06,1.5813e-05,4
-3.60597e-05,1.14438e-05,1.45516e-06,-0.000194289,-4.96477e-06,-1.3142e-05,-1.97099e-07,1.69446e-05,4
-3.6063e-05,1.27592e-05,-4.59194e-06,-7.70365e-05,1.37179e-06,-1.27959e-05,5.91509e-06,1.6411e-05,4
-3.37368e-05,1.49828e-05,-9.04095e-06,-5.56832e-05,1.46869e-05,-8.71182e-06,2.21137e-05,1.44626e-05,4
-3.18626e-05,1.67693e-05,-1.27091e-05,-0.000115072,2.4779e-05,-5.92454e-06,-7.21502e-07,1.1785e-05,4
-2.92387e-05,1.71912e-05,-1.86658e-05,-8.23849e-05,3.08258e-05,-5.40245e-06,-8.79298e-05,8.54661e-06,4
-2.46644e-05,1.72108e-05,-3.09217e-05,8.12288e-05,3.83791e-05,-3.38818e-06,-0.000173724,5.99119e-06,4
-2.13032e-05,1.79324e-05,-4.38302e-05,0.000161215,4.54179e-05,-1.17021e-06,-0.000177913,6.48614e-06,4
-2.01782e-05,2.01436e-05,-4.46428e-05,6.46749e-05,4.82858e-05,-1.0893e-06,-8.28964e-05,8.37146e-06,4
-1.96476e-05,2.31188e-05,-2.79106e-05,-5.51957e-05,4.75829e-05,-2.8761e-06,3.15353e-05,7.96123e-06,4
-2.0388e-05,2.53433e-05,-3.97829e-06,-7.3302e-05,4.31771e-05,-6.98873e-06,4.62344e-05,4.79171e-06,4
-2.45468e-05,2.49241e-05,1.69192e-05,-1.06801e-05,3.30607e-05,-1.39553e-05,-2.77096e-05,1.62785e-06,4
-3.07778e-05,2.19329e-05,3.32889e-05,5.7213e-05,1.92365e-05,-1.98803e-05,-5.51271e-05,8.24773e-07,4
-3.38921e-05,1.92215e-05,4.72454e-05,6.69552e-05,9.22448e-06,-2.08412e-05,2.90803e-06,1.02895e-06,4
-3.15456e-05,1.82212e-05,5.40378e-05,1.16082e-05,8.0701e-06,-1.66712e-05,5.02827e-05,1.01695e-06,4
-2.86161e-05,1.73646e-05,5.23783e-05,-0.000102659,1.19917e-05,-1.33366e-05,4.32196e-05,1.04293e-06,4
-2.92295e-05,1.4946e-05,4.13533e-05,-0.000152709,1.36141e-05,-1.64352e-05,3.22531e-05,1.63753e-07,4
-3.19028e-05,1.16511e-05,1.49466e-05,1.40256e-05,1.22639e-05,-1.95603e-05,3.59511e-05,-1.30031e-06,4
-3.33805e-05,8.83854e-06,-1.32747e-05,0.000313452,1.29749e-05,-1.56958e-05,3.51592e-05,-4.88284e-07,4
-3.12313e-05,8.06725e-06,-1.82692e-05,0.000340941,1.82794e-05,-9.81046e-06,1.72422e-05,6.10102e-06,4
-2.79377e-05,9.79128e-06,-6.16186e-06,-0.000158117,2.15255e-05,-8.94103e-06,-3.51806e-07,1.75903e-05,4
-2.70959e-05,1.25138e-05,-5.43541e-06,-0.000615295,1.77968e-05,-1.14873e-05,1.17951e-06,3.23904e-05,4
-2.66578e-05,1.33285e-05,-1.69774e-05,-0.000521815,1.2689e-05,-1.20766e-05,1.49504e-05,4.56549e-05,4
-2.44787e-05,1.2565e-05,-2.39465e-05,-0.000181784,1.24605e-05,-9.22097e-06,2.16912e-05,5.12696e-05,4
-2.2104e-05,1.40034e-05,-2.38227e-05,2.91005e-05,1.70872e-05,-5.2996e-06,1.02804e-05,5.14089e-05,4
-2.16475e-05,1.57924e-05,-1.98973e-05,2.9297e-05,1.97036e-05,-4.25063e-06,-2.67085e-06,4.81253e-05,4
-2.0958e-05,1.69013e-05,-1.3311e-05,-4.05208e-05,1.9397e-05,-6.71315e-06,1.36306e-06,4.36221e-05,4
-1.95186e-05,1.73527e-05,-5.1994e-06,-7.32764e-05,1.94234e-05,-7.87348e-06,3.22012e-05,3.60526e-05,4
-1.93378e-05,1.70456e-05,-4.38164e-06,-6.39104e-05,2.15785e-05,-5.92291e-06,7.5413e-05,2.02107e-05,4
-2.0339e-05,1.61359e-05,-1.79868e-05,-6.14634e-05,2.37896e-05,-3.94438e-06,0.000102227,-5.58295e-06,4
-2.18225e-05,1.42197e-05,-3.88816e-05,-6.38998e-05,2.50828e-05,-5.01591e-06,9.14803e-05,-3.53828e-05,4
-2.27257e-05,1.32277e-05,-5.58291e-05,-2.04651e-05,2.82286e-05,-9.21264e-06,2.9509e-05,-6.05414e-05,4
-2.29134e-05,1.32664e-05,-6.59134e-05,4.77718e-05,3.36863e-05,-1.48278e-05,-8.29876e-05,-7.59391e-05,4
-2.35673e-05,1.36222e-05,-7.37508e-05,0.000103785,3.97608e-05,-1.92471e-05,-0.000205636,-7.81176e-05,4
-2.55228e-05,1.3271e-05,-7.84821e-05,0.000125587,4.14363e-05,-2.0826e-05,-0.000267106,-6.9168e-05,4
-2.79313e-05,1.19685e-05,-7.70365e-05,0.000131576,3.76975e-05,-1.85764e-05,-0.000227531,-5.61693e-05,4
-2.98626e-05,9.61809e-06,-6.96795e-05,0.000111087,3.16629e-05,-1.42525e-05,-0.000117189,-4.59957e-05,4
-3.16892e-05,7.8229e-06,-5.657e-05,6.98366e-05,2.51139e-05,-1.31055e-05,-1.56354e-05,-3.98504e-05,4
-3.38977e-05,7.81313e-06,-3.082e-05,3.86567e-05,1.59015e-05,-1.77729e-05,1.16688e-05,-3.52808e-05,4
-3.45565e-05,9.72025e-06,1.13706e-05,5.74429e-05,7.69196e-06,-2.3947e-05,-2.55257e-05,-2.99584e-05,4
-3.30082e-05,1.31106e-05,5.24791e-05,8.10107e-05,6.04375e-06,-2.57456e-05,-5.73372e-05,-2.50799e-05,4
-3.06779e-05,1.8652e-05,7.32572e-05,4.11549e-05,9.81051e-06,-2.24525e-05,-2.98339e-05,-2.0798e-05,4
-2.79678e-05,2.58025e-05,8.0034e-05,-6.47951e-05,1.57396e-05,-1.51419e-05,8.47108e-05,-1.74931e-05,4
-2.63041e-05,3.00497e-05,8.43014e-05,-0.000126341,1.89219e-05,-4.91068e-06,0.000276609,-1.52289e-05,4
-2.7651e-05,2.98977e-05,9.03755e-05,-5.02246e-05,1.51804e-05,1.57546e-06,0.000401041,-1.26552e-05,4
-3.02682e-05,2.77717e-05,9.50349e-05,0.000119206,1.07063e-05,5.75615e-07,0.000308008,-1.00032e-05,4
-3.18634e-05,2.55567e-05,8.50056e-05,0.000269012,1.07458e-05,-3.16437e-06,7.24948e-05,-8.0142e-06,4
-3.2447e-05,2.33289e-05,6.14638e-05,0.000214436,1.06414e-05,-6.84614e-06,-5.8375e-05,-7.39372e-06,4
-3.24977e-05,2.29428e-05,4.15188e-05,-4.64753e-05,9.10633e-06,-7.29494e-06,1.92574e-06,-6.12977e-06,4
-2.94172e-05,2.4658e-05,3.4197e-05,-0.000306495,1.00422e-05,-3.99529e-07,0.00015479,-2.45648e-06,4
-2.52813e-05,2.60281e-05,3.30481e-05,-0.0004563,1.35027e-05,7.5366e-06,0.000331569,3.33306e-06,4
-2.36696e-05,2.61869e-05,3.24949e-05,-0.000527761,1.66179e-05,8.43263e-06,0.00040437,7.33422e-06,4
-2.4867e-05,2.62682e-05,3.26381e-05,-0.000510774,1.96032e-05,2.67369e-06,0.000292023,9.5233e-06,4
-2.6791e-05,2.73111e-05,3.05897e-05,-0.000335398,2.11815e-05,-4.56601e-06,5.20548e-05,1.4056e-05,4
-2.70125e-05,2.82896e-05,2.52618e-05,-8.29592e-05,1.90498e-05,-8.90739e-06,-0.000157944,1.80246e-05,4
-2.79156e-05,2.80914e-05,1.97403e-05,0.000120171,1.59346e-05,-1.06867e-05,-0.00023188,1.96087e-05,4
-2.88672e-05,2.58374e-05,1.81929e-05,0.000338125,1.72074e-05,-1.17351e-05,-0.000163748,1.8951e-05,4
-3.02929e-05,2.13756e-05,2.16e-05,0.000661077,2.39176e-05,-1.54869e-05,-3.30047e-05,1.63695e-05,4
-3.11548e-05,1.64434e-05,2.59897e-05,0.000657294,3.40783e-05,-1.9937e-05,-1.2336e-05,1.34748e-05,4
-2.91931e-05,1.44178e-05,2.12149e-05,-7.43369e-05,4.70684e-05,-1.97842e-05,-0.00016356,1.21351e-05,4
-2.53811e-05,1.48636e-05,9.24868e-07,-0.000894705,6.18702e-05,-1.51316e-05,-0.000378356,1.47759e-05,4
-2.4332e-05,1.28222e-05,-2.92388e-05,-0.000863115,6.91864e-05,-1.33489e-05,-0.000493726,2.09994e-05,4
-2.85114e-05,5.3841e-06,-6.00211e-05,-1.32973e-05,6.01467e-05,-1.90617e-05,-0.000449288,2.6024e-05,4
-3.49125e-05,-3.79278e-06,-8.53199e-05,0.000799803,3.8315e-05,-2.50289e-05,-0.000315722,2.562e-05,4
-4.12926e-05,-1.0549e-05,-0.00010664,0.00100922,7.0916e-06,-2.37251e-05,-0.000165525,2.04673e-05,4
-4.74271e-05,-1.65309e-05,-0.000129763,0.000763386,-3.63842e-05,-1.83858e-05,7.58449e-05,1.30448e-05,4
-5.14158e-05,-2.27292e-05,-0.000151611,0.000441662,-7.89866e-05,-1.4927e-05,0.000414024,6.28346e-06,4
-4.97869e-05,-2.45954e-05,-0.000153829,6.56365e-05,-9.47769e-05,-1.1462e-05,0.000597832,3.66303e-08,4
-4.43764e-05,-1.74216e-05,-0.000121797,-0.000328787,-7.65077e-05,-4.64429e-06,0.000396663,-7.30531e-06,4
-3.80007e-05,-5.42915e-06,-6.66692e-05,-0.000482786,-3.97615e-05,2.79152e-06,-4.48653e-05,-1.42227e-05,4
-3.19481e-05,3.56604e-06,-2.35402e-05,-0.000521055,-3.23258e-06,6.01169e-06,-0.000348578,-1.91071e-05,4
-2.74402e-05,7.19046e-06,-1.05001e-05,-0.000473958,2.35495e-05,4.98838e-06,-0.000303893,-2.20295e-05,4
-2.41661e-05,9.17325e-06,-7.21508e-06,-4.42008e-05,3.72054e-05,2.68622e-06,2.62991e-05,-2.33045e-05,4
-2.39767e-05,9.99528e-06,5.49358e-06,0.00050854,3.08476e-05,-1.85816e-06,0.000428121,-2.3236e-05,4
-3.05469e-05,6.66917e-06,8.51783e-06,0.000567009,-2.75994e-06,-1.21622e-05,0.000578759,-2.09719e-05,4
-3.99111e-05,-2.2052e-06,-1.89436e-05,0.000201408,-4.43023e-05,-2.05175e-05,0.000423527,-1.74183e-05,4
-4.61358e-05,-1.18658e-05,-6.05541e-05,-2.29045e-05,-5.80438e-05,-1.99651e-05,0.000218762,-1.39739e-05,4
-4.53898e-05,-1.25609e-05,-8.30913e-05,-2.01699e-05,-3.58223e-05,-1.37526e-05,0.000121109,-1.20414e-05,4
-3.77437e-05,-3.96833e-06,-7.04536e-05,6.30087e-05,3.0232e-06,-8.46259e-06,0.000138695,-1.04966e-05,4
-2.90981e-05,6.09226e-06,-4.50295e-05,8.88343e-05,3.48599e-05,-8.11419e-06,0.000149857,-7.86278e-06,4
-2.56596e-05,1.05533e-05,-3.41196e-05,3.51225e-05,4.39261e-05,-9.55179e-06,0.000137141,-1.58484e-06,4
-2.73999e-05,9.62183e-06,-3.58218e-05,-4.83143e-05,3.42419e-05,-1.05031e-05,0.00011588,1.09444e-05,4
-2.89128e-05,9.4404e-06,-2.43029e-05,-0.000116337,2.4291e-05,-8.62878e-06,6.21072e-05,2.50379e-05,4
-2.86288e-05,1.14129e-05,1.20484e-05,-0.000165356,1.95932e-05,-6.76429e-06,-5.68503e-05,3.15631e-05,4
-2.72447e-05,1.33506e-05,5.40608e-05,-0.000238757,1.54371e-05,-9.30905e-06,-0.000203612,2.79068e-05,4
-2.75376e-05,1.43895e-05,7.79671e-05,-0.00037286,1.12725e-05,-1.41147e-05,-0.000260517,1.89472e-05,4
-2.94545e-05,1.59209e-05,7.40551e-05,-0.000600217,9.34693e-06,-1.65834e-05,-0.000174734,1.02746e-05,4
-3.05511e-05,1.83286e-05,4.85419e-05,-0.000737407,1.07741e-05,-1.25939e-05,-3.26588e-05,5.5187e-06,4
-2.90897e-05,2.08845e-05,1.77443e-05,-0.000601305,1.395e-05,-2.62157e-06,2.02525e-05,4.3386e-06,4
-2.52766e-05,2.3619e-05,-1.74126e-06,-0.000223835,1.90564e-05,8.2819e-06,-1.01745e-05,4.55211e-06,4
-2.17541e-05,2.54102e-05,-6.34422e-06,0.000154361,2.61774e-05,1.33091e-05,-3.06857e-05,2.68321e-06,4
-2.05644e-05,2.46271e-05,1.31485e-06,0.00041606,3.09944e-05,7.52369e-06,-1.66689e-05,-2.2605e-06,4
-2.20307e-05,2.24117e-05,2.30189e-05,0.000560399,2.72261e-05,-5.03906e-06,-2.14602e-05,-8.131e-06,4
-2.53695e-05,2.07349e-05,5.24595e-05,0.000603088,1.56417e-05,-1.30796e-05,-3.43781e-05,-1.2116e-05,4
-3.05408e-05,1.75161e-05,6.53651e-05,0.000503064,-2.32091e-06,-1.47221e-05,-2.80891e-05,-1.37622e-05,4
-3.60161e-05,1.27174e-05,5.05778e-05,0.000289756,-2.16848e-05,-1.46439e-05,-1.29935e-05,-1.3027e-05,4
-3.83561e-05,1.07972e-05,2.45632e-05,0.000124469,-2.8829e-05,-1.1147e-05,-2.71002e-05,-1.211e-05,4
-3.59951e-05,1.30633e-05,3.37091e-06,0.000128933,-1.88317e-05,-3.4724e-06,-6.5304e-05,-1.30618e-05,4
-3.18421e-05,1.43432e-05,-8.83637e-06,0.000208104,-7.22159e-07,5.4571e-06,-7.33088e-05,-1.48077e-05,4
-2.74587e-05,1.40562e-05,-9.27328e-06,0.00025213,1.6819e-05,1.12786e-05,-2.12354e-05,-1.49022e-05,4
-2.42094e-05,1.4544e-05,4.31482e-06,0.000223057,2.92222e-05,8.3903e-06,2.55543e-05,-1.24726e-05,4
-2.22582e-05,1.59663e-05,1.82043e-05,7.56864e-05,3.43974e-05,1.21575e-06,-8.23411e-06,-1.03325e-05,4
-2.26017e-05,1.57134e-05,1.62845e-05,-6.94361e-05,3.64988e-05,-5.67548e-06,-7.43891e-05,-7.8164e-06,4
-2.63957e-05,1.15984e-05,2.7285e-06,-5.70995e-05,3.79597e-05,-1.15021e-05,-0.000114484,-4.6147e-06,4
-3.16142e-05,7.11894e-06,-1.18537e-05,1.35499e-05,3.36672e-05,-1.47862e-05,-0.000138921,-3.34105e-06,4
-3.65153e-05,4.28521e-06,-2.2004e-05,-3.77261e-05,2.152e-05,-1.84734e-05,-0.00014477,-2.50795e-06,4
-4.00401e-05,2.79093e-06,-2.91933e-05,-0.000177402,8.13172e-06,-2.36688e-05,-0.000114566,-2.54077e-06,4
-4.20637e-05,1.08036e-06,-3.43699e-05,-0.000297064,1.10785e-06,-2.84959e-05,-6.98602e-05,-2.33954e-06,4
-4.20646e-05,1.53082e-07,-3.61995e-05,-0.00031004,-6.01487e-07,-2.96323e-05,-4.16622e-05,3.18647e-06,4
-4.07682e-05,1.87069e-06,-3.29239e-05,-0.000236403,-3.36218e-06,-2.63915e-05,-1.38607e-05,1.73403e-05,4
-3.91273e-05,5.22911e-06,-2.67562e-05,-0.000132317,-7.53849e-06,-1.99034e-05,6.30153e-05,3.68825e-05,4
-3.77836e-05,8.47836e-06,-2.10682e-05,-6.43551e-05,-8.70838e-06,-1.24642e-05,0.000189531,5.69686e-05,4
-3.54162e-05,1.08087e-05,-1.76073e-05,-4.46089e-05,-2.28594e-06,-6.71862e-06,0.000291063,7.36115e-05,4
-3.16317e-05,1.27748e-05,-1.75946e-05,-5.21195e-05,1.09698e-05,-4.10948e-06,0.000263452,8.14811e-05,4
-2.9191e-05,1.39012e-05,-1.91307e-05,-5.32881e-05,2.42885e-05,-3.47618e-06,0.000126477,8.38721e-05,4
-2.9846e-05,1.34111e-05,-2.0847e-05,-3.54063e-05,3.1679e-05,-4.12926e-06,8.13828e-06,8.57934e-05,4
-3.15055e-05,1.21206e-05,-1.96083e-05,-9.90436e-06,3.21801e-05,-6.87049e-06,-1.42851e-05,8.16032e-05,4
-3.18546e-05,1.17899e-05,-1.44442e-05,8.52151e-06,2.87271e-05,-1.04325e-05,2.39873e-05,6.03952e-05,4
-3.1679e-05,1.34091e-05,-6.07009e-06,1.59317e-05,2.51174e-05,-1.33709e-05,5.70967e-05,2.08705e-05,4
-3.1525e-05,1.64176e-05,2.5728e-06,2.15422e-05,2.19674e-05,-1.61417e-05,5.56859e-05,-2.81403e-05,4
-3.17504e-05,1.88967e-05,6.54534e-06,2.80537e-05,1.84105e-05,-1.82487e-05,2.00686e-05,-7.04817e-05,4
-3.30436e-05,2.03372e-05,2.48477e-06,3.83056e-05,1.64401e-05,-1.69546e-05,-4.56663e-05,-9.41325e-05,4
-3.40804e-05,2.08308e-05,-3.77723e-06,4.36391e-05,1.61294e-05,-1.43831e-05,-0.000127588,-9.79847e-05,4
-3.44413e-05,1.99361e-05,-7.83906e-06,4.35892e-05,1.59674e-05,-1.37345e-05,-0.000193978,-8.65315e-05,4
-3.34991e-05,1.85623e-05,-1.31986e-05,3.91749e-05,2.01119e-05,-1.29198e-05,-0.000193227,-6.64326e-05,4
-3.13022e-05,1.71547e-05,-2.18103e-05,3.71329e-05,2.94243e-05,-9.17554e-06,-0.000108189,-4.33248e-05,4
-3.09968e-05,1.70891e-05,-2.90025e-05,2.12635e-05,3.82889e-05,-4.05568e-06,-3.30278e-05,-2.30021e-05,4
-3.05567e-05,2.01785e-05,-2.51617e-05,-3.3909e-05,5.00164e-05,1.27548e-06,-3.66567e-05,-1.40713e-05,4
-2.70754e-05,2.44458e-05,-1.08024e-05,-0.000112424,6.52901e-05,3.88715e-06,-5.00417e-05,-1.95142e-05,4
-2.09897e-05,2.68208e-05,3.45463e-06,-0.000127159,7.6591e-05,3.26277e-06,2.00824e-05,-3.01311e-05,4
-1.82329e-05,2.55856e-05,1.38775e-05,-6.50671e-05,7.45973e-05,8.66567e-07,0.000151572,-3.8105e-05,4
-2.03745e-05,2.31362e-05,2.3829e-05,6.43571e-06,5.20323e-05,-2.90065e-06,0.000206534,-4.07866e-05,4
-2.39723e-05,2.08379e-05,2.62344e-05,4.40482e-05,1.93446e-05,-7.25056e-06,0.000110686,-3.762e-05,4
-2.74533e-05,1.67974e-05,1.216e-05,4.04267e-05,-6.35782e-06,-1.32934e-05,-4.54374e-05,-3.03453e-05,4
-2.88872e-05,1.08281e-05,-4.79762e-06,1.36194e-05,-1.81591e-05,-1.6896e-05,-0.000199783,-2.07494e-05,4
-3.12824e-05,4.48062e-06,-4.37002e-06,-1.77088e-05,-2.0489e-05,-1.87516e-05,-0.000350102,-1.07571e-05,4
-3.5854e-05,1.55156e-06,1.40748e-05,-5.80826e-05,-2.29336e-05,-2.35956e-05,-0.00037172,-2.62653e-06,4
-4.00312e-05,4.21897e-06,3.69393e-05,-0.000110353,-2.7585e-05,-2.8905e-05,-0.000112073,9.0487e-07,4
-3.98941e-05,1.11339e-05,5.14072e-05,-0.000144815,-2.46843e-05,-2.70656e-05,0.000373391,1.81823e-06,4
-3.61299e-05,1.68142e-05,4.83656e-05,-0.000150901,-9.30063e-06,-1.56247e-05,0.000781953,3.58161e-06,4
-3.20151e-05,1.90383e-05,3.06258e-05,-0.000179065,8.23193e-06,-1.90107e-06,0.00080564,6.58458e-06,4
-2.87334e-05,2.09618e-05,1.3416e-05,-0.000275216,1.74583e-05,5.5289e-06,0.000454041,1.02051e-05,4
-2.52568e-05,2.45425e-05,6.62337e-06,-0.000363404,2.12732e-05,5.01554e-06,2.79482e-05,1.39214e-05,4
-2.22885e-05,2.82199e-05,6.8644e-06,-0.000317215,2.68437e-05,4.65916e-07,-0.00021371,1.70294e-05,4
-2.27521e-05,2.90704e-05,4.35354e-06,-0.000133295,3.25808e-05,-4.95576e-06,-0.000195361,1.87379e-05,4
-2.58505e-05,2.6783e-05,-1.18129e-06,9.4377e-05,3.34798e-05,-1.06023e-05,-9.77715e-06,1.92532e-05,4
-2.79787e-05,2.44329e-05,-3.18613e-06,0.000316599,2.96054e-05,-1.56251e-05,0.000124983,1.91979e-05,4
-2.73525e-05,2.38653e-05,-5.28123e-07,0.000546766,2.60635e-05,-1.87162e-05,9.52492e-05,2.03234e-05,4
-2.57019e-05,2.23609e-05,6.18321e-08,0.000597525,2.40092e-05,-2.07522e-05,-4.37545e-06,2.20312e-05,4
-2.69142e-05,1.69954e-05,-7.62069e-06,0.000207624,1.51743e-05,-2.26234e-05,-5.84622e-05,2.26674e-05,4
-3.40877e-05,9.20255e-06,-1.68438e-05,-0.000264485,-5.02439e-06,-2.54595e-05,-5.58785e-05,2.15295e-05,4
-4.23357e-05,2.78891e-06,-9.66306e-06,-0.000173348,-2.19563e-05,-2.80685e-05,-3.53065e-05,2.53174e-05,4
-4.46121e-05,2.26916e-06,1.27793e-05,0.000352642,-2.07301e-05,-2.71376e-05,-2.25744e-05,4.04785e-05,4
-4.06602e-05,6.58036e-06,2.76858e-05,0.000625262,-6.72483e-06,-1.96476e-05,-1.43753e-05,5.64034e-05,4
-3.6392e-05,7.13902e-06,1.9579e-05,0.000382834,2.61554e-06,-8.07716e-06,1.6625e-06,6.34162e-05,4
-3.5319e-05,4.55909e-06,-6.40199e-06,-2.18823e-05,9.10286e-07,9.24546e-07,3.33673e-05,6.38088e-05,4
-3.7031e-05,1.98697e-06,-3.44255e-05,-0.000294836,-5.53617e-07,4.17318e-06,5.33557e-05,6.43187e-05,4
-3.80962e-05,-7.50389e-07,-5.14865e-05,-0.000396544,5.35622e-06,-4.18867e-08,2.97229e-05,6.68007e-05,4
-3.70975e-05,-1.73011e-06,-5.18596e-05,-0.000231255,1.76597e-05,-8.26072e-06,-2.81358e-05,6.01586e-05,4
-3.31237e-05,1.51936e-06,-4.19253e-05,0.000172614,3.34423e-05,-1.03638e-05,-8.52977e-05,3.94837e-05,4
-2.58734e-05,7.84014e-06,-3.65677e-05,0.000390535,4.89315e-05,-2.78805e-06,-8.94303e-05,9.50712e-06,4
-2.06266e-05,1.20303e-05,-4.3726e-05,0.000138815,5.92908e-05,6.34808e-06,-1.79677e-05,-2.50932e-05,4
-2.13844e-05,1.15748e-05,-5.46342e-05,-1.18294e-05,5.91161e-05,4.82363e-06,7.09411e-05,-6.05298e-05,4
-2.63032e-05,8.53956e-06,-5.95438e-05,0.000272945,4.56669e-05,-6.68509e-06,9.2954e-05,-8.81023e-05,4
-2.95278e-05,6.07255e-06,-5.77809e-05,0.000464051,2.45398e-05,-1.4998e-05,4.02132e-05,-9.65872e-05,4
-3.00473e-05,4.60829e-06,-5.73057e-05,0.000164049,5.49784e-06,-1.32721e-05,-1.52039e-05,-8.27358e-05,4
-3.07891e-05,2.74925e-06,-6.38494e-05,-0.000406616,-9.72497e-06,-7.06726e-06,-1.62181e-05,-5.85004e-05,4
-3.36596e-05,2.76145e-08,-7.09471e-05,-0.000751883,-1.96729e-05,-5.6646e-06,1.54136e-05,-4.05158e-05,4
-3.70964e-05,-1.2038e-06,-6.85861e-05,-0.000658401,-2.10298e-05,-1.11543e-05,2.44792e-05,-3.23605e-05,4
-3.74665e-05,8.68184e-07,-5.40493e-05,-0.000286567,-1.43588e-05,-1.81273e-05,1.51716e-07,-2.6608e-05,4
-3.24571e-05,6.89928e-06,-2.94918e-05,3.52518e-05,-2.1749e-06,-1.71388e-05,-2.39611e-05,-1.64164e-05,4
-2.40263e-05,1.47302e-05,3.02934e-06,0.000187212,1.1781e-05,-6.49227e-06,-3.23683e-05,-3.03887e-06,4
-1.71866e-05,1.93714e-05,3.82761e-05,0.000216259,2.11927e-05,2.83449e-06,-4.41983e-05,9.54241e-06,4
-1.60309e-05,1.85934e-05,6.4075e-05,0.000123387,1.99605e-05,4.2823e-07,-7.09958e-05,1.72987e-05,4
-2.01864e-05,1.62656e-05,6.62607e-05,-7.03454e-05,6.08682e-06,-8.60573e-06,-8.42869e-05,2.06412e-05,4
-2.41142e-05,1.57579e-05,4.00834e-05,-0.000222192,-1.4389e-05,-1.33004e-05,-5.17552e-05,2.10981e-05,4
-2.5154e-05,1.67322e-05,-2.58979e-06,-0.000228773,-2.60107e-05,-1.0528e-05,1.10627e-05,2.08713e-05,4
-2.42893e-05,1.77253e-05,-3.78183e-05,-0.000150477,-1.5011e-05,-3.37583e-06,5.2082e-05,2.20467e-05,4
-2.27073e-05,1.68807e-05,-5.16106e-05,-0.000133673,1.46145e-05,3.14437e-06,4.67244e-05,2.38136e-05,4
-2.20467e-05,1.51945e-05,-4.61104e-05,-0.000252911,3.95596e-05,2.08627e-06,1.08709e-05,2.31638e-05,4
-2.26894e-05,1.35441e-05,-3.12936e-05,-0.000278961,4.41729e-05,-7.5726e-06,-2.26505e-05,1.79509e-05,4
-2.37548e-05,1.11257e-05,-1.40749e-05,1.8972e-05,3.67637e-05,-1.90958e-05,-3.71238e-05,8.94058e-06,4
-2.44297e-05,8.49062e-06,3.5922e-06,0.000318593,3.36554e-05,-2.60207e-05,-3.21274e-05,4.14049e-06,4
-2.51717e-05,7.0616e-06,1.47868e-05,0.000302378,3.45561e-05,-2.48936e-05,-7.59395e-06,4.37229e-06,4
-2.39687e-05,8.68147e-06,2.31093e-05,0.000215499,3.20754e-05,-1.72249e-05,1.15074e-05,3.57554e-06,4
-1.9431e-05,1.25879e-05,3.14841e-05,0.000215516,2.90636e-05,-5.5322e-06,-1.41553e-06,3.433e-06,4
-1.70614e-05,1.51485e-05,2.40839e-05,0.000148486,2.26866e-05,3.78346e-06,-5.81411e-05,6.00189e-06,4
-1.93091e-05,1.27274e-05,-4.97246e-06,-1.67846e-05,1.18889e-05,7.8739e-06,-0.000137449,1.35934e-05,4
-2.27706e-05,8.63842e-06,-3.60319e-05,-7.75877e-05,3.09983e-06,6.95475e-06,-0.000187955,2.28014e-05,4
-2.56269e-05,7.47069e-06,-4.58253e-05,2.72206e-05,-1.01843e-06,3.37521e-06,-0.000180696,2.86537e-05,4
-2.78489e-05,8.29116e-06,-3.52665e-05,0.0001606,2.89696e-07,-4.70118e-07,-0.000112639,2.64021e-05,4
-2.96704e-05,9.46252e-06,-2.11013e-05,0.000151487,5.37964e-06,-6.01429e-06,-1.5687e-05,1.72179e-05,4
-3.08214e-05,9.23525e-06,-1.53587e-05,-2.7459e-05,1.02737e-05,-1.19612e-05,5.95045e-05,8.28038e-06,4
-3.02008e-05,7.9574e-06,-1.47605e-05,-0.000233962,1.02987e-05,-1.55657e-05,0.000101171,9.92708e-07,4
-2.83672e-05,7.77471e-06,-3.91509e-06,-0.00032032,5.92661e-06,-1.57788e-05,0.000122959,-7.61283e-06,4
-2.62848e-05,9.8708e-06,1.97795e-05,-0.000281827,2.11899e-06,-1.39359e-05,0.000125645,-1.37434e-05,4
-2.39755e-05,1.28095e-05,4.02747e-05,-0.000217627,3.56124e-06,-1.22735e-05,9.84041e-05,-8.53254e-06,4
-2.24919e-05,1.44599e-05,4.77449e-05,-0.000175484,9.63394e-06,-1.24603e-05,4.8947e-05,9.52177e-06,4
-2.3152e-05,1.4259e-05,5.0257e-05,-0.000158019,1.50673e-05,-1.31052e-05,6.7662e-06,3.38951e-05,4
-2.47641e-05,1.45306e-05,5.39749e-05,-0.000135586,1.65122e-05,-1.22969e-05,-9.51231e-06,5.03576e-05,4
-2.53189e-05,1.64423e-05,5.20318e-05,-8.38007e-05,1.47062e-05,-6.51118e-06,-9.78145e-06,4.52787e-05,4
-2.43447e-05,1.88814e-05,3.97374e-05,-2.00669e-05,1.34457e-05,3.74068e-06,-1.0339e-05,1.62344e-05,4
-2.37649e-05,1.91219e-05,2.42495e-05,8.92698e-06,1.42783e-05,1.1062e-05,-7.57738e-06,-2.58675e-05,4
-2.45556e-05,1.68438e-05,1.21653e-05,2.31895e-05,1.59266e-05,1.0357e-05,-9.84017e-07,-6.70597e-05,4
-2.51378e-05,1.49897e-05,2.76768e-06,4.70776e-05,1.84566e-05,6.28445e-06,-2.01237e-06,-9.48969e-05,4
-2.52231e-05,1.4695e-05,-5.43897e-06,8.91175e-05,2.17226e-05,2.8109e-06,-5.33785e-06,-0.000101565,4
-2.53584e-05,1.58309e-05,-1.15967e-05,0.000173664,2.35647e-05,-1.36671e-06,3.38614e-06,-8.81367e-05,4
-2.6226e-05,1.6931e-05,-1.33717e-05,0.000309623,2.31557e-05,-4.90761e-06,9.18604e-06,-6.61915e-05,4
-2.78229e-05,1.61531e-05,-9.07036e-06,0.000334696,1.98585e-05,-7.0803e-06,-1.46371e-05,-4.84956e-05,4
-2.89855e-05,1.55141e-05,-1.36235e-06,0.000105567,1.66207e-05,-9.17327e-06,-5.69746e-05,-3.88205e-05,4
-2.95534e-05,1.69638e-05,1.85361e-06,-0.000111205,1.90661e-05,-9.79519e-06,-0.000105595,-3.1634e-05,4
-2.90521e-05,1.86423e-05,-5.60805e-06,-6.887e-05,2.55508e-05,-7.32615e-06,-0.000145675,-2.09451e-05,4
-2.70249e-05,1.95094e-05,-1.75975e-05,9.99222e-05,2.92957e-05,-4.43236e-06,-0.000134701,-1.05341e-05,4
-2.48674e-05,2.00899e-05,-2.65251e-05,0.000221106,2.80954e-05,-4.77186e-06,-9.44324e-05,-2.45404e-06,4
-2.36226e-05,1.92993e-05,-3.62505e-05,0.000236496,2.50681e-05,-9.20812e-06,-3.11742e-05,3.66759e-06,4
-2.4246e-05,1.52273e-05,-4.86719e-05,0.000125742,2.16594e-05,-1.35391e-05,7.16402e-05,9.30114e-06,4
-2.68412e-05,1.03603e-05,-6.12005e-05,-6.71665e-05,1.68025e-05,-1.61758e-05,0.000118403,1.48737e-05,4
-3.08692e-05,7.57999e-06,-6.43058e-05,-0.000190819,1.02479e-05,-1.87285e-05,5.01473e-05,2.01711e-05,4
-3.3143e-05,8.07588e-06,-4.78167e-05,-0.000178097,5.53329e-06,-2.15929e-05,-5.51619e-05,2.38793e-05,4
-3.31953e-05,1.09194e-05,-1.91724e-05,-8.23367e-05,4.97322e-06,-2.32524e-05,-5.69172e-05,2.55619e-05,4
-3.32562e-05,1.26544e-05,-1.92439e-06,-1.19683e-06,7.79822e-06,-2.21337e-05,8.78783e-05,2.59105e-05,4
-3.2232e-05,1.29791e-05,-6.88621e-06,7.72513e-06,1.48411e-05,-1.72838e-05,0.000262419,2.47781e-05,4
-2.94679e-05,1.48239e-05,-2.06434e-05,-2.79771e-05,2.34112e-05,-1.12435e-05,0.000357418,2.28258e-05,4
-2.7138e-05,1.84172e-05,-2.87313e-05,-6.43701e-05,2.67423e-05,-8.17852e-06,0.000383571,2.11756e-05,4
-2.74771e-05,2.00921e-05,-2.63146e-05,-6.94141e-05,2.12444e-05,-8.55618e-06,0.000413253,2.07948e-05,4
-2.97718e-05,1.80382e-05,-1.49237e-05,-5.09049e-05,1.01457e-05,-1.10774e-05,0.00041712,1.96997e-05,4
-3.23211e-05,1.49404e-05,2.92861e-06,-2.42083e-05,-3.03966e-06,-1.48778e-05,0.000294295,1.82445e-05,4
-3.43469e-05,1.4136e-05,1.99379e-05,-2.48295e-05,-1.77546e-05,-1.96457e-05,6.78835e-05,1.77262e-05,4
-3.655e-05,1.4705e-05,2.61372e-05,-6.51953e-05,-3.14101e-05,-2.19524e-05,-0.000147865,1.84282e-05,4
-3.67677e-05,1.38037e-05,1.87962e-05,-0.000127581,-3.43011e-05,-1.83338e-05,-0.000266706,1.88483e-05,4
-3.3908e-05,1.18818e-05,5.83173e-06,-0.000183506,-1.98058e-05,-1.09356e-05,-0.000228506,1.84603e-05,4
-3.10699e-05,1.17574e-05,-2.69004e-06,-0.00022655,1.39696e-06,-5.04129e-06,-6.96862e-05,1.70577e-05,4
-2.9916e-05,1.40618e-05,-4.40663e-06,-0.000204625,1.60274e-05,-3.01419e-06,0.000133193,1.65559e-05,4
-2.84569e-05,1.77027e-05,-5.35316e-06,-0.00010395,2.63922e-05,-3.8349e-06,0.000287876,1.67542e-05,4
-2.62077e-05,2.04012e-05,-7.03305e-06,-4.48779e-06,3.76529e-05,-6.41448e-06,0.00027711,1.57638e-05,4
-2.55887e-05,1.84932e-05,-1.15724e-05,5.80913e-05,4.67863e-05,-1.05303e-05,0.000146153,1.27566e-05,4
-2.81224e-05,1.54248e-05,-2.61673e-05,0.000115513,5.04471e-05,-1.49109e-05,5.66134e-05,8.2919e-06,4
-3.33604e-05,1.47407e-05,-4.69011e-05,0.000206785,4.85801e-05,-2.00401e-05,4.17381e-06,5.27697e-06,4
-3.77505e-05,1.44245e-05,-6.42919e-05,0.000277835,4.17703e-05,-2.5e-05,-0.000125841,4.50148e-06,4
-3.90166e-05,1.4107e-05,-7.367e-05,0.000167818,2.27913e-05,-2.60392e-05,-0.000300578,4.94356e-06,4
-3.88602e-05,1.49843e-05,-7.11168e-05,-0.000337088,-1.10091e-05,-2.10019e-05,-0.000412055,3.92149e-06,4
-3.90853e-05,1.78161e-05,-4.80303e-05,-0.001237,-3.56686e-05,-1.45094e-05,-0.00034293,1.8309e-06,4
-3.70902e-05,2.07209e-05,-4.42643e-06,-0.00202662,-2.28888e-05,-9.92326e-06,-0.000101021,5.16374e-07,4
-3.19607e-05,2.31703e-05,4.9551e-05,-0.00183221,1.18371e-05,-7.17143e-06,0.000127438,-1.39043e-06,4
-2.70619e-05,2.55005e-05,0.00010532,-0.00049198,3.19307e-05,-6.86259e-06,0.000190337,-4.09567e-06,4
-2.25927e-05,2.95002e-05,0.000150257,0.00100057,3.33335e-05,-6.94314e-06,0.000117357,-6.0694e-06,4
-1.881e-05,3.49111e-05,0.00016996,0.00181917,3.29806e-05,-4.14475e-06,2.9064e-05,-7.24368e-06,4
-1.7653e-05,3.71466e-05,0.000157332,0.00196568,3.67784e-05,5.97323e-06,-3.12564e-05,-7.15357e-06,4
-2.16878e-05,3.2334e-05,0.000114528,0.00184542,3.57394e-05,1.96852e-05,-8.72583e-05,-7.01195e-06,4
-3.10727e-05,2.20428e-05,5.84388e-05,0.00159342,2.37789e-05,2.28545e-05,-0.00015963,-7.30019e-06,4
-4.1346e-05,1.1182e-05,1.08617e-05,0.00105049,4.99965e-06,9.54096e-06,-0.000248569,-6.81204e-06,4
-4.73952e-05,3.21063e-06,-1.74459e-05,0.000300875,-1.1021e-05,-7.11272e-06,-0.000325192,-5.7923e-06,4
-4.92814e-05,-8.84729e-07,-3.07262e-05,-0.000306214,-1.79854e-05,-1.73737e-05,-0.000279568,-4.41063e-06,4
-5.1601e-05,-4.78917e-06,-4.08846e-05,-0.000638488,-2.08637e-05,-2.60809e-05,-4.19827e-05,-1.85114e-06,4
-5.54448e-05,-9.92664e-06,-5.44439e-05,-0.000904422,-2.79813e-05,-3.52496e-05,0.000293221,1.77729e-10,4
-5.64375e-05,-1.1779e-05,-6.58554e-05,-0.00104626,-3.24283e-05,-3.54237e-05,0.000568354,-1.58703e-06,4
-5.16345e-05,-7.7744e-06,-7.00811e-05,-0.000753379,-2.53016e-05,-2.39209e-05,0.000655748,-4.0783e-06,4
-4.44086e-05,-1.7839e-06,-6.94407e-05,-0.000134846,-1.16322e-05,-1.11076e-05,0.000433473,-3.78871e-06,4
-3.66972e-05,3.34255e-06,-6.83796e-05,0.00027243,6.38384e-06,-1.56797e-06,-1.40457e-05,-9.10479e-07,4
-2.89693e-05,7.1828e-06,-7.06401e-05,0.000320853,2.50109e-05,6.70762e-06,-0.000370064,1.26774e-06,4
-2.49503e-05,9.54445e-06,-7.21604e-05,0.000307781,3.05608e-05,9.42239e-06,-0.000431252,9.43056e-07,4
-2.92095e-05,7.51361e-06,-7.30731e-05,0.000376493,1.58195e-05,4.02482e-06,-0.000215576,7.51332e-07,4
-3.97656e-05,-7.32173e-07,-7.86309e-05,0.000453495,-1.47683e-05,-6.09384e-06,0.000108773,2.14277e-06,4
-4.67857e-05,-7.48114e-06,-8.30683e-05,0.000439048,-4.01643e-05,-1.51365e-05,0.000232403,3.43478e-06,4
-4.68709e-05,-8.89059e-06,-7.84279e-05,0.000323539,-4.70569e-05,-2.16074e-05,9.68984e-05,4.57117e-06,4
-4.59189e-05,-9.23041e-06,-6.64007e-05,0.000193857,-4.17814e-05,-2.84442e-05,-9.63377e-05,4.15208e-06,4
-4.61902e-05,-9.92188e-06,-5.01835e-05,0.000110328,-2.58105e-05,-3.38456e-05,-0.000207513,1.71483e-06,4
-4.66926e-05,-9.44504e-06,-3.45049e-05,6.88599e-05,-7.68894e-06,-3.72213e-05,-0.000155769,1.09925e-06,4
-4.64267e-05,-6.16264e-06,-2.39934e-05,7.46339e-05,4.68714e-06,-3.65917e-05,-3.17956e-05,2.30714e-06,4
-4.42656e-05,-2.37029e-06,-2.15123e-05,0.000231274,8.04421e-06,-3.16192e-05,9.15994e-05,3.52281e-06,4
-4.02196e-05,2.26098e-06,-2.43195e-05,0.000407673,8.08126e-06,-2.23976e-05,0.000161473,7.72973e-06,4
-3.58475e-05,8.02441e-06,-2.71476e-05,0.000321596,1.30504e-05,-1.31581e-05,0.000163551,1.99007e-05,4
-3.29995e-05,1.29478e-05,-2.78614e-05,-9.69568e-06,2.16369e-05,-8.58709e-06,0.00013748,3.76504e-05,4
-3.12283e-05,1.57567e-05,-2.68425e-05,-0.000398451,3.03399e-05,-7.18384e-06,0.000104659,5.39736e-05,4
-2.93151e-05,1.66812e-05,-2.63065e-05,-0.000683148,3.80578e-05,-5.47812e-06,7.26735e-05,6.89895e-05,4
-2.67541e-05,1.79034e-05,-2.20843e-05,-0.000737245,4.81059e-05,-3.29727e-06,3.6541e-05,8.6463e-05,4
-2.3995e-05,1.9102e-05,-1.36107e-05,-0.00052563,5.93612e-05,-2.63735e-06,1.02865e-05,0.000100238,4
-2.13236e-05,2.04723e-05,-5.06984e-06,-0.000199347,6.69337e-05,-1.8538e-06,-6.77626e-06,9.88649e-05,4
-1.9996e-05,2.15931e-05,3.40875e-06,3.68256e-05,6.50339e-05,-2.34137e-06,1.92446e-06,7.77944e-05,4
-2.18942e-05,2.20155e-05,1.57598e-05,4.8423e-05,5.39386e-05,-5.32805e-06,3.30409e-05,3.84055e-05,4
-2.53402e-05,2.11587e-05,3.04939e-05,-6.86281e-05,3.86192e-05,-8.80424e-06,7.21996e-05,-1.32722e-05,4
-2.72526e-05,2.01557e-05,4.03023e-05,-1.88476e-05,2.67192e-05,-9.78325e-06,8.5317e-05,-6.44123e-05,4
-2.82679e-05,1.88631e-05,3.71292e-05,0.000333793,2.32165e-05,-9.33304e-06,6.20637e-05,-0.000100646,4
-3.08391e-05,1.70082e-05,2.28901e-05,0.000701934,2.63923e-05,-8.18786e-06,1.12872e-05,-0.000115393,4
-3.4481e-05,1.50281e-05,1.14405e-05,0.000538478,2.59086e-05,-4.58757e-06,-3.77117e-05,-0.000107096,4
-3.63239e-05,1.25474e-05,7.4437e-06,-0.000381794,1.52959e-05,-5.91444e-07,-7.27605e-05,-8.09142e-05,4
-3.60276e-05,1.06883e-05,5.71985e-06,-0.00135804,1.29457e-06,-1.81571e-06,-8.21947e-05,-5.14307e-05,4
-3.4425e-05,1.06412e-05,4.24153e-06,-0.00161374,-4.47738e-06,-7.43114e-06,-6.26563e-05,-3.56282e-05,4
-3.201e-05,1.29064e-05,5.34975e-06,-0.00126134,1.97027e-06,-1.19736e-05,-3.63813e-05,-3.64174e-05,4
-2.88984e-05,1.40887e-05,8.8586e-06,-0.00064663,1.45507e-05,-1.18021e-05,-3.0723e-05,-4.59786e-05,4
-2.61331e-05,1.27591e-05,7.69589e-06,-0.00010546,2.3658e-05,-7.01883e-06,-6.78068e-05,-5.68433e-05,4
-2.36941e-05,1.26197e-05,6.31492e-06,0.000193199,2.93882e-05,-4.2347e-06,-0.00011982,-6.10889e-05,4
-2.08678e-05,1.5411e-05,1.76516e-05,0.000330823,3.69019e-05,-5.27601e-06,-0.000145229,-5.82549e-05,4
-1.67966e-05,2.12438e-05,3.74184e-05,0.000331812,4.39538e-05,-2.93417e-06,-0.000130558,-4.99963e-05,4
-1.11721e-05,2.58762e-05,5.5536e-05,0.000235398,5.02462e-05,4.6711e-06,-0.000102786,-3.80665e-05,4
-8.81588e-06,2.54948e-05,6.62905e-05,6.90667e-05,5.14326e-05,9.01468e-06,-7.52844e-05,-2.78823e-05,4
-1.29937e-05,2.16876e-05,6.25869e-05,-8.1239e-05,4.17057e-05,3.46945e-06,-2.64653e-06,-2.16228e-05,4
-2.19063e-05,1.79495e-05,4.28641e-05,-0.00014809,2.19058e-05,-5.45126e-06,0.000125944,-1.74691e-05,4
-3.07411e-05,1.58906e-05,1.71026e-05,-0.000111505,1.1315e-06,-9.51357e-06,0.000216792,-1.29347e-05,4
-3.62346e-05,1.467e-05,-5.25604e-06,-1.95638e-05,-1.3494e-05,-9.23701e-06,0.000198873,-7.52486e-06,4
-3.80339e-05,1.53121e-05,-1.7478e-05,0.000113009,-1.83271e-05,-7.90802e-06,9.15656e-05,-3.19912e-06,4
-3.6947e-05,1.59216e-05,-1.87882e-05,0.000325229,-1.17613e-05,-9.43912e-06,-3.36311e-05,9.22765e-07,4
-3.51745e-05,1.58161e-05,-1.40384e-05,0.000602557,1.36545e-06,-1.34358e-05,-0.000105033,6.48209e-06,4
-3.42419e-05,1.53487e-05,-1.01008e-05,0.00072806,1.38427e-05,-1.62463e-05,-7.93636e-05,1.24339e-05,4
-3.31602e-05,1.43383e-05,-1.2859e-05,0.000345431,2.10376e-05,-1.52245e-05,2.90527e-06,1.76456e-05,4
-3.16474e-05,1.31011e-05,-2.08915e-05,-0.000384732,2.43931e-05,-1.2389e-05,3.07695e-05,2.17441e-05,4
-2.98471e-05,1.34227e-05,-2.45609e-05,-0.000773623,2.85338e-05,-9.22604e-06,-3.98013e-05,2.7608e-05,4
-2.6934e-05,1.63865e-05,-1.66138e-05,-0.000496334,3.43361e-05,-5.02816e-06,-0.000135076,3.72583e-05,4
-2.38199e-05,2.03397e-05,-2.24716e-06,2.975e-05,3.55618e-05,-6.75366e-07,-0.000190982,4.67257e-05,4
-2.14226e-05,2.40013e-05,1.04738e-05,0.00030217,2.98851e-05,1.95418e-06,-0.00019906,4.94096e-05,4
-2.02238e-05,2.50363e-05,1.54544e-05,0.000181483,2.34308e-05,1.86484e-06,-0.000152503,4.41789e-05,4
-2.18999e-05,2.14221e-05,1.15946e-05,-8.43258e-05,1.78354e-05,-3.06051e-06,-4.53118e-05,3.65421e-05,4
-2.85158e-05,1.46807e-05,2.19864e-06,-0.000169574,8.65525e-06,-1.41593e-05,0.000128603,3.07632e-05,4
-3.67333e-05,1.01356e-05,-1.30318e-05,-7.32436e-05,6.10324e-07,-2.21094e-05,0.000362103,2.61427e-05,4
-3.9784e-05,7.98064e-06,-4.01378e-05,-1.68209e-05,-1.09616e-06,-1.79702e-05,0.000566438,2.28711e-05,4
-3.84364e-05,5.43842e-06,-7.32053e-05,5.62992e-05,-2.42161e-06,-7.95609e-06,0.000580804,2.33814e-05,4
-3.55383e-05,3.91286e-06,-9.7245e-05,0.000293749,-2.64918e-06,-2.62811e-06,0.000338057,2.56721e-05,4
-3.28714e-05,4.08714e-06,-0.00010228,0.000441333,3.4462e-06,-5.3187e-06,5.61846e-05,2.40192e-05,4
-3.33303e-05,3.88598e-06,-9.47989e-05,0.000289728,1.13714e-05,-1.10947e-05,-6.0136e-05,1.857e-05,4
-3.55279e-05,1.63775e-06,-8.74289e-05,3.16398e-05,1.07087e-05,-1.62965e-05,-0.000101333,1.02301e-05,4
-3.62563e-05,1.13811e-06,-6.78348e-05,-0.000112753,-3.95456e-07,-2.16675e-05,-0.000140985,-1.71554e-08,4
-3.50693e-05,4.63271e-06,-1.73712e-05,-7.49151e-05,-8.20417e-06,-2.5792e-05,-0.000117037,-7.63984e-06,4
-3.45079e-05,8.83742e-06,4.7979e-05,3.53342e-05,-5.92892e-06,-2.78734e-05,-2.40796e-05,-1.49449e-05,4
-3.39059e-05,1.09133e-05,9.14533e-05,0.000139558,1.48893e-06,-2.59254e-05,2.26115e-05,-2.24483e-05,4
-3.34108e-05,1.09989e-05,0.000106284,0.000246048,3.81813e-06,-2.24966e-05,-1.7552e-05,-2.84584e-05,4
-3.41794e-05,1.08633e-05,0.000106626,0.000314782,-4.43518e-06,-2.10183e-05,-9.19095e-05,-3.167e-05,4
-3.44059e-05,1.0171e-05,9.76104e-05,0.000259844,-1.55071e-05,-2.13379e-05,-0.000105087,-3.06388e-05,4
-3.30069e-05,1.05737e-05,7.79425e-05,6.5508e-05,-1.73466e-05,-2.0376e-05,2.03917e-06,-2.64011e-05,4
-3.10324e-05,1.23152e-05,5.13996e-05,-0.000141297,-7.86481e-06,-1.59463e-05,0.000130095,-2.18764e-05,4
-2.97848e-05,1.42222e-05,2.6586e-05,-0.000259181,3.63368e-06,-9.42778e-06,0.000143129,-1.88549e-05,4
-2.92256e-05,1.49088e-05,6.35058e-06,-0.000277901,1.00992e-05,-3.26153e-06,5.49343e-05,-1.56006e-05,4
-2.80918e-05,1.43656e-05,-1.04146e-05,-0.000290109,1.33321e-05,1.0666e-06,-2.74987e-05,-1.10669e-05,4
-2.53698e-05,1.32899e-05,-2.22953e-05,-0.000329417,1.91726e-05,3.03239e-06,-6.34231e-05,-7.23521e-06,4
-2.28055e-05,1.12806e-05,-2.99383e-05,-0.000258813,2.68607e-05,-4.49422e-07,-5.89488e-05,-5.66576e-06,4
-2.1846e-05,8.93049e-06,-3.81418e-05,0.000120782,3.16038e-05,-9.49828e-06,-2.18241e-05,-3.5722e-06,4
-2.29136e-05,6.92011e-06,-4.68108e-05,0.000691983,3.2135e-05,-1.90168e-05,1.24324e-05,8.0108e-07,4
-2.46815e-05,7.12043e-06,-5.35684e-05,0.000924192,3.27148e-05,-2.2331e-05,-2.04165e-05,6.49937e-06,4
-2.43132e-05,9.76974e-06,-6.21212e-05,0.000354393,3.36812e-05,-1.85757e-05,-0.000129273,1.15146e-05,4
-2.3047e-05,1.1862e-05,-7.26101e-05,-0.000523517,2.91958e-05,-1.17633e-05,-0.000270141,1.38369e-05,4
-2.34715e-05,1.12787e-05,-7.23255e-05,-0.000757509,2.04597e-05,-5.65308e-06,-0.00032302,1.32606e-05,4
-2.35053e-05,1.1293e-05,-5.07401e-05,-0.000406758,1.98161e-05,-9.46564e-07,-0.000177105,1.25954e-05,4
-2.19305e-05,1.33546e-05,-1.58791e-05,-8.10399e-05,2.96029e-05,2.74768e-07,9.77984e-05,1.23404e-05,4
-2.14346e-05,1.34973e-05,1.78696e-05,0.000151662,3.39933e-05,-4.67413e-06,0.000312658,1.1141e-05,4
-2.49616e-05,1.25211e-05,5.39873e-05,0.00038373,2.20117e-05,-1.58002e-05,0.00030829,8.40607e-06,4
-2.74129e-05,1.52737e-05,7.66822e-05,0.00031272,9.89911e-06,-2.08561e-05,0.000136551,6.19118e-06,4
-2.38297e-05,2.04121e-05,5.87918e-05,-0.000216641,1.36388e-05,-5.60287e-06,1.40785e-05,4.98685e-06,4
-1.64057e-05,2.46905e-05,1.44278e-05,-0.000754735,3.05996e-05,1.83892e-05,3.20618e-06,8.69589e-06,4
-1.05589e-05,2.65286e-05,-2.46317e-05,-0.000830093,4.84338e-05,2.92372e-05,4.13866e-05,2.43047e-05,4
-9.06146e-06,2.62012e-05,-4.08132e-05,-0.000469573,5.21488e-05,2.44912e-05,7.16332e-05,4.33675e-05,4
-1.20747e-05,2.47134e-05,-4.00094e-05,3.73781e-05,4.44249e-05,1.24645e-05,7.32662e-05,5.33966e-05,4
-1.92732e-05,2.20544e-05,-3.08685e-05,0.000429991,3.58378e-05,-3.19447e-06,5.4805e-05,5.44083e-05,4
-2.62184e-05,1.85817e-05,-2.13136e-05,0.000523503,3.08986e-05,-1.67518e-05,3.42231e-05,5.40875e-05,4
-3.22182e-05,1.36383e-05,-2.23834e-05,0.00039252,2.49135e-05,-2.42604e-05,3.60245e-05,5.66574e-05,4
-3.80296e-05,6.30727e-06,-3.33585e-05,0.000261107,1.06648e-05,-2.65245e-05,5.83538e-05,5.6171e-05,4
-4.36983e-05,-4.61227e-07,-3.69336e-05,0.000220304,-1.1534e-05,-3.01175e-05,8.80559e-05,4.31758e-05,4
-4.59098e-05,-7.73345e-07,-1.61231e-05,0.000129556,-2.93643e-05,-3.36355e-05,0.00010534,1.64307e-05,4
-4.14453e-05,5.76901e-06,1.98783e-05,-0.000215029,-2.87347e-05,-2.70769e-05,9.42449e-05,-1.83878e-05,4
-3.2733e-05,1.41395e-05,4.54982e-05,-0.000597299,-7.58915e-06,-1.04861e-05,4.66685e-05,-5.48863e-05,4
-2.5055e-05,1.97618e-05,5.34303e-05,-0.00054534,2.27334e-05,3.01689e-06,-1.32033e-05,-8.47188e-05,4
-2.16178e-05,2.25426e-05,5.69833e-05,-2.0194e-05,4.68206e-05,1.29061e-06,-6.19969e-05,-9.57947e-05,4
-2.08558e-05,2.40481e-05,5.91366e-05,0.00042852,5.52348e-05,-9.40866e-06,-0.000100908,-8.19161e-05,4
-2.10983e-05,2.43778e-05,5.07041e-05,0.000356206,4.91072e-05,-1.33072e-05,-0.00015032,-5.16292e-05,4
-2.33434e-05,2.24673e-05,3.05121e-05,-3.2721e-05,3.78881e-05,-5.71779e-06,-0.000199748,-2.36261e-05,4
-2.9002e-05,1.69092e-05,4.63955e-06,-0.00025776,2.63536e-05,1.39819e-06,-0.000204695,-1.16984e-05,4
-3.59733e-05,9.45276e-06,-2.02618e-05,-0.000264333,1.41524e-05,1.63827e-06,-0.000153444,-1.23752e-05,4
-4.02325e-05,4.70508e-06,-3.49386e-05,-0.000232803,6.32404e-06,5.31981e-07,-8.64196e-05,-1.30157e-05,4
-4.01492e-05,4.47198e-06,-3.46677e-05,-6.84008e-05,8.1437e-06,-2.23285e-06,-2.37013e-05,-7.82777e-06,4
-4.01287e-05,5.02717e-06,-2.73275e-05,0.000306975,8.45279e-06,-1.13887e-05,7.50247e-05,-8.58562e-08,4
-4.18645e-05,3.28005e-06,-3.12319e-05,0.000651095,-3.45739e-06,-1.78762e-05,0.000214241,4.36028e-06,4
-4.08567e-05,2.06728e-06,-5.07252e-05,0.000653714,-1.62729e-05,-9.26309e-06,0.000286786,3.92646e-06,4
-3.6027e-05,2.54459e-06,-6.49122e-05,0.000184534,-1.39549e-05,8.19797e-06,0.000263112,1.86555e-06,4
-3.22909e-05,3.29035e-06,-5.28144e-05,-0.000250276,-2.80925e-06,1.06295e-05,0.000196404,1.65757e-06,4
-3.27517e-05,3.92353e-06,-2.63403e-05,-0.000311191,1.67231e-06,-6.19863e-06,9.83065e-05,2.75034e-06,4
-3.42183e-05,3.79381e-06,-1.00177e-05,-0.000500092,1.56715e-07,-1.96739e-05,1.60391e-05,2.74372e-06,4
-3.32519e-05,5.53436e-06,-1.00678e-05,-0.000760804,2.42332e-06,-1.8189e-05,-4.70563e-05,3.35359e-06,4
-3.02194e-05,9.31331e-06,-1.34757e-05,-0.000642667,1.3076e-05,-8.19753e-06,-8.98053e-05,9.05253e-06,4
-2.83978e-05,1.26946e-05,-3.69416e-06,-0.000341735,2.04447e-05,-3.32015e-06,-5.92476e-05,2.00304e-05,4
-2.87635e-05,1.34639e-05,8.31456e-06,-0.000147838,1.34703e-05,-7.25478e-06,2.39927e-05,2.89276e-05,4
-3.02962e-05,1.27905e-05,1.01546e-05,5.21738e-05,2.08842e-06,-1.30013e-05,6.53e-05,3.20482e-05,4
-3.24125e-05,1.20823e-05,2.35991e-06,0.00031003,1.54144e-06,-1.24142e-05,2.42555e-05,3.22009e-05,4
-3.25475e-05,1.16791e-05,-1.02385e-05,0.000490769,1.48128e-05,-5.83333e-06,-8.82697e-05,3.27405e-05,4
-2.99901e-05,1.24733e-05,-1.95281e-05,0.000506178,2.88697e-05,-5.51379e-09,-0.000228298,3.43352e-05,4
-2.72565e-05,1.28807e-05,-1.92567e-05,0.000419256,2.87232e-05,1.02532e-06,-0.000275918,3.37177e-05,4
-2.60737e-05,1.40226e-05,-1.02816e-05,0.000354269,1.99222e-05,-8.0061e-07,-0.00016011,2.68731e-05,4
-2.47689e-05,1.71599e-05,-6.67035e-07,0.000313168,1.93422e-05,-1.5371e-06,1.29282e-05,1.47085e-05,4
-2.22832e-05,2.07609e-05,3.66619e-06,0.000240108,2.90486e-05,-2.32959e-06,8.69225e-05,3.58384e-06,4
-1.93857e-05,2.20698e-05,7.68333e-07,0.00013038,3.57131e-05,-5.69786e-06,2.64668e-05,-2.85846e-06,4
-1.72685e-05,2.11526e-05,-5.71747e-06,1.32101e-05,2.97759e-05,-1.00371e-05,-0.000133374,-6.2407e-06,4
-1.75477e-05,1.95579e-05,-1.26253e-05,-9.18381e-05,1.66415e-05,-1.30611e-05,-0.000336077,-7.41853e-06,4
-2.02933e-05,1.83338e-05,-1.92409e-05,-9.94879e-05,7.67895e-06,-1.64592e-05,-0.000426203,-4.10144e-06,4
-2.52025e-05,1.64295e-05,-3.01493e-05,3.35172e-05,5.13525e-06,-2.01051e-05,-0.000238604,2.74246e-06,4
-3.19818e-05,1.19089e-05,-5.0387e-05,0.000157685,-1.05905e-06,-2.29934e-05,0.000105948,9.94502e-06,4
-3.89517e-05,5.66196e-06,-7.48381e-05,0.000107172,-1.01947e-05,-2.65598e-05,0.000306877,1.51044e-05,4
-4.34901e-05,3.31526e-07,-9.19922e-05,-5.14466e-05,-9.45317e-06,-3.083e-05,0.000370204,1.42056e-05,4
-4.73298e-05,-3.42495e-06,-9.50605e-05,-6.97702e-05,-6.08214e-06,-3.5511e-05,0.000494219,7.47168e-06,4
-5.18518e-05,-5.70664e-06,-7.99596e-05,0.000176521,-1.60171e-05,-4.04283e-05,0.000590831,-2.95037e-06,4
-5.27869e-05,-6.89812e-06,-5.30129e-05,0.000473674,-3.17039e-05,-3.88582e-05,0.000456042,-1.7083e-05,4
-4.80975e-05,-5.39562e-06,-2.57636e-05,0.000286023,-3.55124e-05,-2.53253e-05,0.000194207,-3.12295e-05,4
-3.82989e-05,4.50265e-06,4.50282e-06,-0.000641055,-1.92976e-05,-6.56177e-06,9.6796e-05,-3.8898e-05,4
-2.73832e-05,1.78948e-05,3.59019e-05,-0.00150716,3.85007e-06,4.11875e-06,0.000132759,-3.69446e-05,4
-2.14619e-05,2.49236e-05,4.93151e-05,-0.00136696,1.45973e-05,5.62265e-06,0.000138593,-2.90632e-05,4
-2.12395e-05,2.50146e-05,4.44493e-05,-0.000283622,1.34956e-05,3.8158e-06,0.000112136,-1.94033e-05,4
-2.3839e-05,2.21829e-05,4.40519e-05,0.000745725,1.14815e-05,-1.88025e-06,2.60415e-05,-1.09896e-05,4
-2.62834e-05,2.09862e-05,4.94391e-05,0.000881547,1.68121e-05,-9.79498e-06,-9.00611e-05,-4.38477e-06,4
-2.68973e-05,2.156e-05,4.72236e-05,0.000415502,2.21004e-05,-1.24747e-05,-0.000171699,2.22227e-07,4
-2.7573e-05,2.10429e-05,3.41994e-05,2.89777e-05,2.02867e-05,-8.31504e-06,-0.000181844,1.74306e-06,4
-3.09642e-05,1.72312e-05,1.47502e-05,1.714e-05,1.41138e-05,-5.44801e-06,-0.000167725,9.27401e-07,4
-3.48604e-05,1.02963e-05,-5.98812e-06,0.000193542,1.17135e-05,-9.52355e-06,-0.000161821,-6.70944e-08,4
-3.79185e-05,3.08092e-06,-2.94838e-05,0.000226595,1.50203e-05,-1.55542e-05,-0.000136527,2.82344e-07,4
-3.9598e-05,-1.68364e-06,-6.20199e-05,6.57005e-05,1.76612e-05,-1.70138e-05,-6.33243e-05,7.19047e-07,4
-3.87947e-05,-1.64716e-06,-9.75425e-05,-4.95809e-05,1.92256e-05,-1.3149e-05,5.8991e-05,2.97494e-07,4
-3.54753e-05,2.08226e-06,-0.000124683,2.41871e-05,2.16593e-05,-5.98361e-06,0.000183265,-7.71463e-07,4
-3.15936e-05,5.91727e-06,-0.000139586,0.000159568,2.33913e-05,-4.07063e-07,0.000257643,-7.91498e-07,4
-2.95438e-05,6.6468e-06,-0.00014375,0.000163934,2.02717e-05,-1.18774e-06,0.000240783,5.60006e-07,4
-2.89691e-05,5.11874e-06,-0.000135913,-2.62128e-05,1.45903e-05,-6.41267e-06,0.000138902,2.40998e-06,4
