ch1,ch2,ch3,ch4,ch5,ch6,ch7,ch8,class
-2.32494e-05,2.06219e-05,1.80011e-05,0.000411752,3.92207e-05,-1.28061e-05,-8.50614e-05,-5.88481e-06,4
-2.70901e-05,1.68169e-05,1.26836e-05,0.000276466,2.67344e-05,-1.72683e-05,6.33464e-05,2.08131e-06,4
-3.12972e-05,1.2582e-05,1.07278e-05,0.000322497,1.42709e-05,-1.85067e-05,0.000168878,9.56269e-06,4
-3.58936e-05,6.90686e-06,6.07272e-06,0.000237346,2.59755e-06,-1.91096e-05,0.000176485,2.40719e-05,4
-4.00089e-05,2.74925e-06,-7.06909e-06,-0.000166301,-8.25354e-06,-1.8274e-05,0.000159487,4.16032e-05,4
-3.96503e-05,4.11117e-06,-2.42019e-05,-0.000689588,-1.15952e-05,-9.61762e-06,0.000170242,4.8801e-05,4
-3.37939e-05,9.26276e-06,-3.45782e-05,-0.00117834,-2.17e-06,2.39353e-06,0.000158132,4.60654e-05,4
-2.71807e-05,1.37802e-05,-3.37504e-05,-0.0015559,1.42042e-05,1.00078e-05,9.55756e-05,3.75726e-05,4
-2.42076e-05,1.46764e-05,-2.43875e-05,-0.00163117,2.41693e-05,1.02763e-05,3.64642e-05,2.8028e-05,4
-2.46143e-05,1.49689e-05,-1.20981e-05,-0.000974422,2.66318e-05,5.43223e-06,1.89837e-05,2.05188e-05,4
-2.52731e-05,1.76993e-05,-7.77649e-07,0.000135127,2.73511e-05,7.25905e-07,3.73101e-05,1.58157e-05,4
-2.42588e-05,2.17033e-05,6.72389e-06,0.000854701,2.84332e-05,-2.93574e-06,7.09788e-05,1.33346e-05,4
-2.27017e-05,2.30467e-05,9.00895e-06,0.00087104,2.5414e-05,-3.65337e-06,0.000100478,1.09493e-05,4
-2.36205e-05,1.93028e-05,4.04409e-06,0.000602498,1.57964e-05,-3.17095e-06,0.000113309,7.66299e-06,4
-2.71051e-05,1.34358e-05,-6.52079e-06,0.000476,4.02603e-06,-4.07571e-06,0.000104106,2.02318e-06,4
-3.04189e-05,8.97762e-06,-1.97023e-05,0.000394731,-3.13253e-06,-7.96111e-06,6.836e-05,-4.39046e-06,4
-3.22492e-05,5.56157e-06,-3.03032e-05,0.000251082,-2.83772e-06,-1.32872e-05,7.06045e-06,-8.32757e-06,4
-3.2785e-05,3.23649e-06,-3.35586e-05,0.000153457,2.31286e-06,-1.73153e-05,-5.78521e-05,-3.47771e-06,4
-3.24775e-05,4.19066e-06,-3.00734e-05,0.000189597,9.91444e-06,-1.92693e-05,-9.60268e-05,1.43479e-05,4
-3.1431e-05,8.29532e-06,-2.53883e-05,0.000239444,1.52868e-05,-1.8491e-05,-9.08261e-05,3.90909e-05,4
-3.1591e-05,1.14701e-05,-2.59028e-05,0.000165159,1.58993e-05,-1.61363e-05,-5.70829e-05,5.68457e-05,4
-3.43393e-05,1.06706e-05,-3.05553e-05,1.81798e-05,1.32019e-05,-1.53289e-05,-3.1498e-05,6.01983e-05,4
-3.73484e-05,7.40177e-06,-3.38778e-05,-3.03739e-05,1.0817e-05,-1.95047e-05,-4.20518e-05,5.26296e-05,4
-3.88151e-05,4.97611e-06,-3.43249e-05,-9.02431e-06,9.69304e-06,-2.67158e-05,-7.71713e-05,4.15762e-05,4
-4.02093e-05,4.30294e-06,-3.60447e-05,-1.02687e-05,8.47144e-06,-3.16811e-05,-9.68567e-05,3.05321e-05,4
-4.25905e-05,4.29333e-06,-4.09561e-05,-6.92762e-06,4.92023e-06,-2.84736e-05,-7.68139e-05,2.01421e-05,4
-4.35006e-05,5.92999e-06,-4.17526e-05,3.71303e-06,1.74532e-06,-1.78208e-05,-3.60557e-05,9.02154e-06,4
-3.97092e-05,1.08812e-05,-2.48312e-05,5.62875e-06,5.35875e-06,-5.95001e-06,3.81904e-06,-3.5655e-06,4
-3.31203e-05,1.91319e-05,7.96841e-06,1.02684e-05,1.49443e-05,2.56253e-06,5.0342e-05,-1.884e-05,4
-2.75047e-05,2.63024e-05,3.27762e-05,6.41043e-05,2.38956e-05,7.55691e-06,9.52758e-05,-3.74015e-05,4
-2.55409e-05,2.83733e-05,3.16883e-05,2.71502e-05,2.99393e-05,8.02438e-06,9.69678e-05,-5.73325e-05,4
-2.71066e-05,2.51981e-05,1.54334e-05,-0.000271646,3.18011e-05,3.26515e-06,4.82625e-05,-7.1792e-05,4
-2.82639e-05,2.05122e-05,7.64601e-06,-0.000399342,3.18578e-05,-3.62892e-06,-8.38768e-06,-7.05744e-05,4
-2.83735e-05,1.88755e-05,1.96587e-05,-8.48104e-05,3.34162e-05,-9.71335e-06,-3.85927e-05,-5.60481e-05,4
-2.7548e-05,2.03408e-05,4.04208e-05,0.000210875,3.42739e-05,-1.40008e-05,-3.25319e-05,-3.66321e-05,4
-2.62966e-05,2.38648e-05,5.55307e-05,0.000296245,3.40896e-05,-1.61091e-05,-5.86721e-06,-2.11547e-05,4
-2.49435e-05,2.76249e-05,6.24823e-05,0.000345643,3.3953e-05,-1.25108e-05,2.27576e-05,-1.32212e-05,4
-2.36142e-05,3.06522e-05,6.02361e-05,0.000344556,3.32235e-05,-3.71121e-06,3.16891e-05,-1.02845e-05,4
-2.4705e-05,2.98571e-05,4.97721e-05,9.48598e-05,3.0593e-05,2.41639e-06,2.69341e-05,-8.75379e-06,4
-2.83291e-05,2.41723e-05,3.20485e-05,-0.000336374,2.43143e-05,1.83272e-06,3.39926e-05,-6.99253e-06,4
-3.27158e-05,1.73856e-05,1.04871e-05,-0.000566117,1.2783e-05,-1.4936e-06,4.26378e-05,-5.15302e-06,4
-3.58331e-05,1.36695e-05,-7.17195e-06,-0.000378459,2.70018e-06,-3.33579e-06,5.72024e-05,-4.16789e-06,4
-3.6546e-05,1.26296e-05,-1.44509e-05,-5.94215e-05,5.85848e-07,-4.24755e-06,9.71223e-05,-3.53252e-06,4
-3.62331e-05,1.14648e-05,-1.25239e-05,2.91465e-05,2.65184e-06,-5.62421e-06,0.00012584,-2.03424e-06,4
-3.91759e-05,7.87201e-06,-1.32352e-05,-0.000137745,-3.18469e-06,-8.68703e-06,8.15082e-05,-8.06532e-07,4
-4.51329e-05,1.80605e-06,-2.61971e-05,-0.000496403,-1.86689e-05,-1.27194e-05,-1.21363e-05,-5.97135e-07,4
-4.75654e-05,-2.06591e-06,-4.40453e-05,-0.000962741,-3.00126e-05,-1.43157e-05,-7.98569e-05,-9.05012e-07,4
-4.33687e-05,-3.58361e-07,-4.84884e-05,-0.00107463,-2.51768e-05,-1.35049e-05,-9.35665e-05,6.95656e-07,4
-3.57573e-05,5.07065e-06,-3.28519e-05,-0.000353641,-8.35449e-06,-1.46369e-05,-7.88733e-05,5.18136e-06,4
-3.13959e-05,8.12113e-06,-1.01478e-05,0.000757459,4.23212e-06,-1.92129e-05,-6.15516e-05,1.33172e-05,4
-3.38927e-05,6.32615e-06,1.0575e-06,0.00119139,3.39236e-06,-2.43521e-05,-4.56987e-05,2.28792e-05,4
-3.90546e-05,2.74049e-06,-5.08882e-06,0.000532705,-2.88557e-06,-2.63476e-05,-3.08526e-05,3.02942e-05,4
-4.07141e-05,1.17577e-06,-2.18564e-05,-0.000436849,-3.35243e-06,-2.14574e-05,-1.56871e-05,3.28365e-05,4
-3.92513e-05,2.21199e-07,-4.213e-05,-0.000640894,-4.35468e-07,-1.35377e-05,1.19227e-06,2.90173e-05,4
-3.59815e-05,9.95367e-07,-5.37933e-05,-0.000133041,2.93731e-06,-4.67522e-06,2.30296e-05,2.25541e-05,4
-3.05955e-05,6.08439e-06,-4.59977e-05,0.000259097,9.81415e-06,3.90711e-06,4.09886e-05,1.70767e-05,4
-2.76642e-05,1.04906e-05,-3.28419e-05,0.000360803,1.40202e-05,4.30025e-06,4.36599e-05,1.11988e-05,4
-3.05902e-05,7.91847e-06,-2.8691e-05,0.000437478,8.37198e-06,-4.9974e-06,2.66703e-05,6.37279e-06,4
-3.59346e-05,2.30537e-06,-2.88403e-05,0.000526037,1.32209e-06,-1.52512e-05,2.737e-06,3.93966e-06,4
-3.8321e-05,-1.02609e-06,-2.44611e-05,0.000563408,-1.13832e-07,-2.28332e-05,-9.74142e-06,2.68682e-06,4
-3.7422e-05,-1.54879e-06,-1.60554e-05,0.000517957,2.93167e-06,-2.72556e-05,3.63626e-06,1.50236e-06,4
-3.47695e-05,7.83938e-07,-1.33645e-05,0.00045461,9.30779e-06,-2.59008e-05,3.49476e-05,-1.1587e-06,4
-3.08926e-05,4.7945e-06,-1.69699e-05,0.000521031,1.84009e-05,-2.18595e-05,4.96027e-05,-3.89875e-06,4
-2.67631e-05,9.4641e-06,-1.78874e-05,0.000558838,2.7348e-05,-1.52217e-05,3.57154e-05,-5.54503e-06,4
-2.29365e-05,1.42819e-05,-8.40831e-06,0.000293968,3.313e-05,-6.74692e-06,4.59336e-06,-5.90025e-06,4
-1.99312e-05,1.88166e-05,2.72939e-06,-0.00019645,3.66685e-05,1.84573e-06,-3.05655e-05,-4.01198e-06,4
-1.89991e-05,1.92424e-05,1.35825e-06,-0.000417601,3.76499e-05,6.87038e-06,-5.3036e-05,-1.74816e-06,4
-2.09257e-05,1.65616e-05,-7.19309e-06,-9.30125e-05,3.53714e-05,5.40102e-06,-2.96964e-05,1.2977e-06,4
-2.30733e-05,1.52684e-05,-1.01845e-05,0.000337671,3.15239e-05,-4.15922e-07,4.45817e-05,9.9745e-06,4
-2.53544e-05,1.49111e-05,-1.0422e-05,0.000246343,2.25684e-05,-7.38421e-06,0.000120686,2.22931e-05,4
-2.96737e-05,1.21451e-05,-1.6898e-05,-0.000412712,6.04601e-06,-1.11544e-05,0.000149405,3.13458e-05,4
-3.40463e-05,8.4302e-06,-2.67979e-05,-0.00103512,-9.10002e-06,-8.1849e-06,0.000126389,3.84174e-05,4
-3.51426e-05,7.788e-06,-3.01073e-05,-0.0011037,-1.30232e-05,-5.58564e-07,8.71241e-05,5.08935e-05,4
-3.35789e-05,9.48039e-06,-2.15939e-05,-0.00065797,-5.77874e-06,3.93812e-06,5.49883e-05,6.48303e-05,4
-3.20737e-05,1.02677e-05,-5.99694e-06,-0.000187928,6.35831e-06,3.29333e-06,3.11476e-05,6.80545e-05,4
-3.08539e-05,9.26678e-06,7.38912e-06,-3.20665e-05,1.8051e-05,1.53867e-06,1.40068e-05,5.929e-05,4
-2.95443e-05,7.86852e-06,1.29514e-05,-9.6185e-05,2.57403e-05,1.08239e-06,-1.04436e-06,4.841e-05,4
-2.86538e-05,6.57973e-06,1.14919e-05,-0.000120381,2.75272e-05,-1.80945e-06,-2.66168e-05,4.28142e-05,4
-2.84127e-05,6.06897e-06,5.26971e-06,-2.01209e-05,2.39404e-05,-9.86739e-06,-6.31842e-05,4.31489e-05,4
-2.84261e-05,5.72569e-06,-3.71565e-06,0.000137892,2.00671e-05,-1.89065e-05,-8.79319e-05,4.42901e-05,4
-2.78363e-05,5.23249e-06,-1.22405e-05,0.00024703,1.94952e-05,-2.17662e-05,-8.2661e-05,3.67552e-05,4
-2.59297e-05,5.7721e-06,-1.67384e-05,0.000246222,2.03183e-05,-1.72337e-05,-5.53482e-05,1.27383e-05,4
-2.55713e-05,8.31927e-06,-1.64382e-05,0.000174187,2.0944e-05,-1.00188e-05,-2.298e-05,-2.69462e-05,4
-2.71069e-05,1.12823e-05,-1.31824e-05,5.92562e-05,2.13089e-05,-6.51367e-06,6.39017e-06,-7.3747e-05,4
-2.68542e-05,1.38511e-05,-3.80153e-06,-0.000154706,2.29642e-05,-8.07788e-06,2.29669e-05,-0.00011729,4
-2.49724e-05,1.8278e-05,1.10897e-05,-0.000300825,2.62554e-05,-9.8261e-06,1.3027e-05,-0.000139238,4
-2.47628e-05,2.11303e-05,2.01056e-05,-0.000188004,2.71709e-05,-1.13086e-05,-1.25728e-05,-0.000130829,4
-2.80935e-05,1.86175e-05,1.91608e-05,4.34832e-05,2.27495e-05,-1.62123e-05,-2.90689e-05,-0.000103206,4
-3.00575e-05,1.63076e-05,2.06975e-05,0.000118365,1.9399e-05,-2.09145e-05,-3.01192e-05,-7.28619e-05,4
-2.69933e-05,1.96728e-05,2.89239e-05,-2.09827e-05,2.39623e-05,-1.90941e-05,-1.91134e-05,-5.37833e-05,4
-2.30866e-05,2.41132e-05,3.05045e-05,-0.000104675,3.15502e-05,-1.24609e-05,-3.25546e-06,-4.27701e-05,4
-2.05982e-05,2.54057e-05,2.20971e-05,-7.82698e-05,3.5033e-05,-4.8179e-06,2.02e-05,-3.6025e-05,4
-1.96344e-05,2.49219e-05,1.05107e-05,-5.63969e-05,3.09977e-05,1.58058e-06,4.88872e-05,-3.06119e-05,4
-2.05983e-05,2.32948e-05,5.18368e-06,-9.87896e-05,2.11925e-05,3.24765e-06,7.38767e-05,-2.45068e-05,4
-2.3065e-05,2.02743e-05,7.07951e-06,-2.42049e-05,7.80455e-06,-3.30394e-06,8.99873e-05,-1.83322e-05,4
-2.69202e-05,1.5838e-05,8.38074e-06,0.00022542,-5.46653e-06,-1.48793e-05,9.32059e-05,-1.16413e-05,4
-3.04352e-05,1.1602e-05,7.15611e-06,0.000361346,-1.19217e-05,-2.32532e-05,8.08728e-05,-4.00916e-06,4
-3.20922e-05,1.04359e-05,4.33146e-06,0.000200596,-9.21615e-06,-2.40006e-05,5.70718e-05,4.33609e-06,4
-3.21384e-05,1.11645e-05,-1.74375e-06,-0.0001202,-1.18019e-06,-2.0011e-05,3.6714e-05,1.15267e-05,4
-3.17325e-05,1.11994e-05,-9.71933e-06,-0.000331622,5.55901e-06,-1.6071e-05,3.02157e-05,1.96441e-05,4
-3.19402e-05,9.74374e-06,-1.51991e-05,-0.000327173,9.37009e-06,-1.60667e-05,3.20843e-05,2.82531e-05,4
-3.28209e-05,7.86438e-06,-1.9142e-05,-0.00014209,1.39673e-05,-1.93964e-05,2.37625e-05,3.51598e-05,4
-3.34272e-05,8.5187e-06,-2.17147e-05,0.000118463,2.3144e-05,-1.95145e-05,-9.14729e-07,3.65538e-05,4
-3.1469e-05,1.2049e-05,-2.14142e-05,0.000243312,3.39672e-05,-1.33373e-05,-2.92644e-05,3.24937e-05,4
-2.73773e-05,1.58992e-05,-1.91113e-05,-3.9618e-05,4.11551e-05,-5.36775e-06,-4.57549e-05,2.38934e-05,4
-2.37471e-05,1.78346e-05,-1.79498e-05,-0.000414068,4.27783e-05,1.60014e-06,-5.28958e-05,1.49552e-05,4
-2.01411e-05,1.85812e-05,-1.52689e-05,-0.00021955,4.17204e-05,7.27913e-06,-7.0426e-05,8.31784e-06,4
-1.74606e-05,1.9124e-05,-6.16756e-06,0.00044572,3.80797e-05,8.585e-06,-0.000102587,3.828e-06,4
-2.03244e-05,1.81637e-05,2.55286e-06,0.000874907,2.45066e-05,2.70487e-06,-0.000119854,-4.44941e-07,4
-2.93373e-05,1.17655e-05,-1.21108e-06,0.000664604,-1.18143e-06,-1.00143e-05,-9.27753e-05,-5.10163e-06,4
-3.95446e-05,7.06924e-07,-1.8426e-05,-3.40226e-05,-2.89161e-05,-2.38373e-05,-3.07236e-05,-8.2632e-06,4
-4.52866e-05,-6.40048e-06,-3.5029e-05,-0.000615359,-4.59601e-05,-2.99253e-05,5.08106e-05,-9.34979e-06,4
-4.45982e-05,-2.98656e-06,-3.36327e-05,-0.000575588,-4.3722e-05,-2.41818e-05,0.000142416,-7.2936e-06,4
-3.95277e-05,5.48045e-06,-2.11846e-05,-0.000179121,-2.76996e-05,-9.42909e-06,0.000213593,-4.61366e-06,4
-3.40896e-05,1.21102e-05,-1.17507e-05,0.000103627,-1.15884e-05,4.24168e-06,0.000225211,-2.83874e-06,4
-3.05034e-05,1.50492e-05,-6.40116e-06,0.00017692,-2.44413e-06,6.86906e-06,0.000168903,-2.21396e-06,4
-2.90059e-05,1.3742e-05,-2.14223e-06,0.000115678,-5.54615e-08,1.1118e-06,7.47366e-05,-7.53767e-07,4
-3.00813e-05,1.26468e-05,2.86295e-06,6.24073e-05,1.05278e-06,-5.29411e-06,-2.68996e-05,3.28257e-06,4
-3.10251e-05,1.40711e-05,4.24468e-06,8.78091e-05,9.42955e-07,-9.0187e-06,-0.0001059,6.90066e-06,4
-2.98346e-05,1.73395e-05,2.99619e-06,0.000200516,2.74607e-06,-9.15913e-06,-0.000134147,8.09779e-06,4
-2.73475e-05,2.06449e-05,4.85712e-07,0.00028774,1.01339e-05,-7.28785e-06,-8.57792e-05,7.95932e-06,4
-2.47389e-05,2.31164e-05,-3.49735e-06,0.00026065,2.18776e-05,-6.62414e-06,1.91705e-05,7.00359e-06,4
-2.41495e-05,2.42347e-05,-8.6055e-06,0.000124971,3.15368e-05,-8.27999e-06,0.000107627,5.72315e-06,4
-2.52206e-05,2.22851e-05,-1.15235e-05,-0.000135691,3.42209e-05,-1.05902e-05,0.000128291,4.64083e-06,4
-2.5767e-05,1.8925e-05,-6.80289e-06,-0.000476609,3.23875e-05,-1.21354e-05,9.20597e-05,4.35188e-06,4
-2.62843e-05,1.7627e-05,5.08929e-06,-0.000713244,2.71986e-05,-1.47603e-05,5.05181e-05,5.96171e-06,4
-2.85419e-05,1.91175e-05,1.58561e-05,-0.00061152,1.81746e-05,-1.95195e-05,3.74115e-05,1.05793e-05,4
-3.1449e-05,1.98075e-05,1.73576e-05,-0.000289164,7.9342e-06,-2.31594e-05,4.35882e-05,1.6756e-05,4
-3.24227e-05,1.80668e-05,7.93518e-06,-0.000121001,2.23501e-06,-2.24655e-05,3.65176e-05,2.1748e-05,4
-3.18987e-05,1.44535e-05,-8.00554e-06,-0.000156836,1.91262e-06,-1.88295e-05,1.106e-05,2.42077e-05,4
-3.10148e-05,1.1684e-05,-2.17676e-05,-6.79818e-05,6.013e-06,-1.36438e-05,-6.46103e-06,2.43018e-05,4
-2.85535e-05,1.3841e-05,-2.66771e-05,0.000164772,1.35583e-05,-4.89303e-06,-5.14219e-07,2.16407e-05,4
-2.33181e-05,1.88414e-05,-2.38355e-05,0.000277609,2.39764e-05,5.25675e-06,1.17684e-05,1.86454e-05,4
-1.88071e-05,2.16698e-05,-2.26981e-05,0.000156076,3.2937e-05,1.02616e-05,1.62576e-05,1.88425e-05,4
-1.72081e-05,2.22197e-05,-2.56206e-05,-4.47721e-05,3.75093e-05,8.92101e-06,1.3416e-05,2.08253e-05,4
-1.66861e-05,2.27223e-05,-2.46636e-05,-0.00024838,4.20925e-05,4.63282e-06,5.44191e-06,2.06167e-05,4
-1.62316e-05,2.27311e-05,-1.42716e-05,-0.000393385,4.89515e-05,1.12666e-06,-7.63678e-06,1.41382e-05,4
-1.39444e-05,2.42392e-05,2.1312e-06,-4.91979e-05,5.56255e-05,1.94703e-06,-1.91493e-05,2.44541e-06,4
-1.0576e-05,2.87075e-05,2.0841e-05,0.000724225,5.89008e-05,4.58518e-06,-1.62277e-05,-8.60082e-06,4
-1.08931e-05,3.07982e-05,3.51213e-05,0.00105264,5.10373e-05,9.80645e-07,-4.59933e-07,-1.41616e-05,4
-1.67147e-05,2.7557e-05,3.48044e-05,0.000833172,3.1128e-05,-5.97351e-06,1.56896e-05,-1.56244e-05,4
-2.62665e-05,1.82691e-05,1.48323e-05,0.000556833,3.85982e-06,-1.10164e-05,3.0602e-05,-1.47477e-05,4
-3.90169e-05,4.21201e-06,-2.03557e-05,0.000360751,-2.75302e-05,-1.80039e-05,4.66746e-05,-1.13498e-05,4
-4.96932e-05,-6.84007e-06,-4.95243e-05,0.000240496,-4.86952e-05,-2.53361e-05,5.29207e-05,-9.11529e-06,4
-5.17928e-05,-9.11492e-06,-5.79094e-05,-7.89005e-05,-4.9057e-05,-2.68833e-05,3.48153e-05,-7.6473e-06,4
-4.58835e-05,-4.15378e-06,-4.65014e-05,-0.000410479,-3.418e-05,-2.13394e-05,4.61493e-06,-5.93741e-06,4
-3.77549e-05,2.78319e-06,-2.45409e-05,-0.000425618,-1.64376e-05,-1.54927e-05,-2.93417e-06,-3.89394e-06,4
-3.14308e-05,8.53128e-06,-3.3808e-07,-0.000197242,6.46626e-07,-1.29179e-05,1.41738e-05,-1.76058e-06,4
-2.60939e-05,1.25125e-05,2.00968e-05,3.67189e-05,1.98619e-05,-1.29998e-05,1.54974e-05,7.18073e-07,4
-2.10989e-05,1.61003e-05,3.12475e-05,9.82025e-05,3.95242e-05,-1.59209e-05,-2.00589e-05,4.61205e-06,4
-1.84513e-05,1.89608e-05,3.27892e-05,-6.18669e-06,4.90906e-05,-2.07301e-05,-5.59229e-05,1.09852e-05,4
-1.97368e-05,1.92053e-05,2.58525e-05,-9.19935e-05,4.16409e-05,-2.3392e-05,-6.06473e-05,1.89894e-05,4
-2.23144e-05,1.66246e-05,1.28986e-05,-4.00045e-05,2.60799e-05,-2.03605e-05,-4.9527e-05,2.42071e-05,4
-2.40542e-05,1.40505e-05,-1.16653e-06,4.42017e-05,1.37669e-05,-1.41448e-05,-4.35746e-05,2.50938e-05,4
-2.6226e-05,1.20503e-05,-7.76537e-06,0.000161179,5.53501e-06,-1.22199e-05,-3.33252e-05,2.23815e-05,4
-3.11111e-05,6.89816e-06,-7.11291e-06,0.000323561,-5.2619e-06,-2.12737e-05,-2.00026e-05,1.97453e-05,4
-3.9026e-05,-2.11398e-06,-1.04132e-05,0.000395453,-1.86308e-05,-3.60635e-05,-3.4291e-05,2.2313e-05,4
-4.69672e-05,-1.00946e-05,-2.53092e-05,0.000165026,-2.64248e-05,-4.40241e-05,-7.7437e-05,3.22151e-05,4
-4.91464e-05,-1.10066e-05,-4.27877e-05,-0.000267073,-2.18494e-05,-3.64739e-05,-9.90868e-05,4.09421e-05,4
-4.45397e-05,-5.27643e-06,-5.0167e-05,-0.000592946,-7.88986e-06,-1.88266e-05,-6.16764e-05,4.22844e-05,4
-3.89636e-05,6.25185e-07,-4.88291e-05,-0.000619088,4.07002e-06,-4.65912e-06,8.98213e-06,4.05225e-05,4
-3.62928e-05,3.18249e-06,-4.75988e-05,-0.000426376,8.55347e-06,2.10005e-06,6.12179e-05,3.75199e-05,4
-3.5537e-05,5.3835e-06,-5.03155e-05,-0.000232024,1.00479e-05,6.52288e-06,8.02228e-05,2.82638e-05,4
-3.49198e-05,9.47656e-06,-5.12915e-05,-0.000175055,1.22054e-05,1.05128e-05,7.79451e-05,8.80403e-06,4
-3.17877e-05,1.53013e-05,-4.08695e-05,-0.000150533,1.77905e-05,1.39022e-05,6.08565e-05,-1.60788e-05,4
-2.67974e-05,2.02933e-05,-1.89327e-05,-5.10027e-06,2.62845e-05,1.23749e-05,2.5992e-05,-4.22889e-05,4
-2.5599e-05,2.18515e-05,-9.90433e-07,0.000202294,3.17343e-05,5.29137e-06,-1.40046e-05,-6.31135e-05,4
-2.75814e-05,2.23876e-05,5.79546e-06,0.000365364,3.25331e-05,5.81805e-07,-2.3524e-05,-6.99572e-05,4
-2.84348e-05,2.25692e-05,9.77447e-06,0.000503312,3.16896e-05,-1.72172e-06,-5.30645e-06,-6.19751e-05,4
-2.84184e-05,2.05418e-05,1.26748e-05,0.000608084,2.8956e-05,-6.0443e-06,4.82186e-06,-4.36421e-05,4
-2.74645e-05,1.92964e-05,1.14283e-05,0.000346814,2.76588e-05,-8.75043e-06,-1.08516e-05,-2.14715e-05,4
-2.60601e-05,1.94843e-05,2.89898e-06,-0.00029634,3.0293e-05,-3.51493e-06,-2.63733e-05,1.76181e-06,4
-2.60796e-05,1.90372e-05,-1.06631e-05,-0.000815621,3.02762e-05,3.63944e-06,-1.30105e-05,1.88719e-05,4
-2.87033e-05,1.70324e-05,-1.94288e-05,-0.000992744,2.51319e-05,4.98155e-06,1.03332e-05,2.83906e-05,4
-3.20081e-05,1.49409e-05,-1.81821e-05,-0.000804283,1.87565e-05,5.98942e-08,1.9444e-05,3.18775e-05,4
-3.35494e-05,1.36818e-05,-1.34332e-05,-0.000351315,1.37153e-05,-8.10758e-06,3.44607e-05,3.04338e-05,4
-3.46909e-05,1.24771e-05,-1.22216e-05,8.22644e-05,1.05514e-05,-1.51712e-05,5.26135e-05,3.05069e-05,4
-3.54533e-05,1.22481e-05,-1.05638e-05,0.000291394,1.1031e-05,-1.73727e-05,2.90777e-05,3.1736e-05,4
-3.45631e-05,1.39805e-05,-4.51648e-06,0.000252893,1.35887e-05,-1.31939e-05,-4.13361e-05,2.81396e-05,4
-3.24644e-05,1.73759e-05,1.66283e-06,0.000123135,1.31205e-05,-5.58806e-06,-0.000114743,1.5952e-05,4
-3.20271e-05,2.01087e-05,2.67444e-06,5.70026e-05,8.13014e-06,9.24755e-08,-0.000141557,-3.25208e-06,4
-3.2315e-05,2.18809e-05,2.03678e-06,0.000157936,3.92055e-06,1.10324e-06,-9.81802e-05,-2.90437e-05,4
-3.14335e-05,2.41275e-05,6.21338e-06,0.000333952,7.25837e-06,-1.16369e-06,8.05853e-06,-5.90979e-05,4
-2.98274e-05,2.63498e-05,1.73319e-05,0.00038351,1.56023e-05,-5.38881e-06,0.00012881,-8.68862e-05,4
-2.92442e-05,2.51618e-05,2.77908e-05,0.000164396,1.68536e-05,-1.13873e-05,0.000206191,-9.84984e-05,4
-3.22526e-05,1.83272e-05,3.01495e-05,-0.000218813,6.48264e-06,-2.15501e-05,0.000234865,-8.51147e-05,4
-3.7976e-05,8.15994e-06,2.61096e-05,-0.000470991,-5.68434e-06,-3.49565e-05,0.000229533,-5.58554e-05,4
-4.2457e-05,2.76533e-07,2.11208e-05,-0.000487797,-8.01764e-06,-4.4915e-05,0.00017488,-2.89048e-05,4
-4.27892e-05,-2.71802e-06,1.39795e-05,-0.000440758,2.75299e-07,-4.39482e-05,8.31945e-05,-1.41252e-05,4
-3.90368e-05,-2.00264e-06,1.50491e-08,-0.000325288,1.22258e-05,-2.86667e-05,-1.51148e-06,-9.86286e-06,4
-3.34613e-05,1.38992e-06,-1.39144e-05,-0.000150015,2.55223e-05,-6.46028e-06,-6.27941e-05,-9.25435e-06,4
-2.71002e-05,8.00534e-06,-1.69603e-05,9.17557e-06,3.84836e-05,1.20428e-05,-0.000102897,-4.30393e-06,4
-2.30131e-05,1.34428e-05,-1.49464e-05,0.000171094,4.28503e-05,1.94933e-05,-9.73904e-05,8.74139e-06,4
-2.56098e-05,1.20123e-05,-1.95707e-05,0.000193258,3.4925e-05,1.49528e-05,-3.41415e-05,2.2057e-05,4
-2.96105e-05,8.9877e-06,-2.44744e-05,0.000198335,2.62623e-05,9.11873e-06,3.96874e-05,2.84517e-05,4
-3.00071e-05,9.07593e-06,-2.25257e-05,0.000469871,2.59063e-05,8.82768e-06,5.84828e-05,3.00337e-05,4
-2.96724e-05,9.42165e-06,-2.02524e-05,0.000938614,2.89324e-05,1.10838e-05,1.0248e-05,3.31973e-05,4
-2.93188e-05,8.01856e-06,-2.34993e-05,0.00111743,2.80581e-05,9.4225e-06,-5.89127e-05,4.78985e-05,4
-2.79797e-05,6.18555e-06,-2.87357e-05,0.000763837,2.13769e-05,3.40477e-06,-0.000112223,6.80755e-05,4
-2.71897e-05,5.98987e-06,-3.07257e-05,0.000229376,1.16811e-05,-1.89719e-06,-0.000112296,8.17381e-05,4
-2.74058e-05,7.41593e-06,-2.96649e-05,-0.000169216,2.24455e-06,-4.02109e-06,1.7162e-06,8.31962e-05,4
-2.88216e-05,7.7341e-06,-2.9022e-05,-0.000343769,-1.87423e-06,-4.40941e-06,0.000189951,7.08908e-05,4
-3.11378e-05,5.33361e-06,-2.91393e-05,-0.000412247,-5.44643e-07,-8.12586e-06,0.000280543,4.77884e-05,4
-3.39581e-05,2.44462e-06,-2.72516e-05,-0.000493805,7.58849e-07,-1.44276e-05,0.000202779,1.87476e-05,4
-3.59877e-05,1.85635e-06,-2.1646e-05,-0.000548682,-1.07059e-06,-1.7023e-05,4.65478e-05,-1.20288e-05,4
-3.5625e-05,4.45276e-06,-1.47156e-05,-0.00049406,-3.76577e-06,-1.37948e-05,-7.93751e-05,-3.82355e-05,4
-3.38916e-05,8.28852e-06,-9.25968e-06,-0.000355677,-2.73053e-06,-8.6414e-06,-0.000133012,-5.36187e-05,4
-3.23177e-05,1.04534e-05,-6.29583e-06,-0.000221468,2.23483e-06,-5.93739e-06,-0.000115116,-5.93628e-05,4
-3.10883e-05,1.01337e-05,-5.75092e-06,-0.000115846,8.30961e-06,-7.04273e-06,-4.74938e-05,-6.05722e-05,4
-2.96867e-05,9.74954e-06,-4.70992e-06,-4.616e-05,1.34437e-05,-9.21599e-06,2.06536e-05,-6.19922e-05,4
-2.81095e-05,1.14648e-05,-3.42411e-07,-2.92915e-06,1.70591e-05,-9.95219e-06,6.86602e-05,-6.34242e-05,4
-2.58825e-05,1.48203e-05,5.96508e-06,1.37859e-05,1.80519e-05,-9.07524e-06,0.000109143,-6.1129e-05,4
-2.37641e-05,1.8507e-05,1.09384e-05,2.63268e-05,1.7589e-05,-8.24084e-06,0.000126375,-5.29569e-05,4
-2.27783e-05,2.14792e-05,1.41722e-05,4.40889e-05,1.94005e-05,-8.57623e-06,0.00010293,-4.27815e-05,4
-2.16261e-05,2.33215e-05,1.38622e-05,7.85293e-05,2.60113e-05,-1.02263e-05,6.47816e-05,-3.52153e-05,4
-1.96384e-05,2.36547e-05,9.02094e-06,0.000101022,3.40048e-05,-1.1569e-05,2.773e-05,-3.11906e-05,4
-1.83617e-05,2.34384e-05,3.51807e-06,6.20343e-05,3.80332e-05,-1.15384e-05,-1.96069e-05,-2.83398e-05,4
-1.84378e-05,2.26717e-05,-6.34149e-07,-9.72604e-05,3.85714e-05,-1.25091e-05,-9.02279e-05,-2.51628e-05,4
-1.90792e-05,2.11593e-05,-2.94414e-06,-0.000340475,3.98177e-05,-1.42918e-05,-0.000162439,-2.30979e-05,4
-2.09575e-05,1.94719e-05,-3.22021e-06,-0.000415665,3.65292e-05,-1.57814e-05,-0.000197367,-2.07241e-05,4
-2.51566e-05,1.60062e-05,-3.42795e-06,-9.90801e-05,2.50542e-05,-1.85776e-05,-0.000148452,-1.59001e-05,4
-3.21903e-05,1.07872e-05,-4.58629e-08,0.000381101,1.45296e-05,-2.4781e-05,-6.69373e-06,-9.84588e-06,4
-3.86521e-05,7.63563e-06,8.85138e-06,0.000604662,9.24244e-06,-3.12905e-05,0.000126033,-4.04689e-06,4
-3.9517e-05,7.87757e-06,1.56962e-05,0.000438163,7.78175e-06,-3.21415e-05,0.000146874,1.42384e-06,4
-3.65644e-05,9.79906e-06,1.90798e-05,-5.02643e-05,5.96767e-06,-2.83665e-05,8.55777e-05,6.05847e-06,4
-3.32944e-05,1.22015e-05,2.5564e-05,-0.000343226,2.99158e-06,-2.181e-05,3.61701e-05,8.84464e-06,4
-3.13137e-05,1.49339e-05,3.59184e-05,7.44052e-05,2.14661e-07,-1.22395e-05,3.99564e-05,9.82987e-06,4
-3.01944e-05,1.69949e-05,3.92116e-05,0.000706758,-1.3456e-06,-3.33993e-06,7.24433e-05,1.13247e-05,4
-2.99501e-05,1.63583e-05,2.85525e-05,0.000691664,-4.4153e-07,2.88968e-06,9.7773e-05,1.55625e-05,4
-3.04181e-05,1.4152e-05,1.02046e-05,4.31171e-05,2.41395e-06,5.72297e-06,0.000106329,2.08219e-05,4
-3.11078e-05,1.18148e-05,-7.59005e-06,-0.000348403,9.88316e-06,3.48518e-06,9.29471e-05,2.44272e-05,4
-3.21156e-05,8.22457e-06,-2.12694e-05,-0.000130087,2.25105e-05,-3.13918e-06,5.16008e-05,2.51356e-05,4
-3.31278e-05,5.18688e-06,-3.0614e-05,3.01294e-05,3.31549e-05,-1.09862e-05,-8.63429e-06,2.35318e-05,4
-3.38193e-05,4.86363e-06,-3.4282e-05,-0.0002977,3.35337e-05,-1.52075e-05,-5.65054e-05,2.16383e-05,4
-3.43711e-05,6.54703e-06,-3.24715e-05,-0.000750592,2.48947e-05,-1.4419e-05,-6.87671e-05,2.09015e-05,4
-3.56074e-05,7.86809e-06,-2.75711e-05,-0.000848567,1.59235e-05,-1.24144e-05,-5.49014e-05,2.11186e-05,4
-3.68446e-05,8.00177e-06,-2.31651e-05,-0.00052877,1.25044e-05,-1.12958e-05,-4.37906e-05,2.14832e-05,4
-3.77329e-05,8.60932e-06,-2.05202e-05,-3.22799e-05,1.29162e-05,-9.98509e-06,-4.88165e-05,2.13971e-05,4
-3.69935e-05,1.01655e-05,-1.796e-05,0.00031019,1.46707e-05,-7.5899e-06,-5.61554e-05,2.1654e-05,4
-3.48341e-05,1.20937e-05,-1.40393e-05,0.000392649,1.79064e-05,-4.60059e-06,-5.04664e-05,2.29059e-05,4
-3.2702e-05,1.30895e-05,-7.79794e-06,0.000384487,2.12869e-05,-2.81401e-06,-2.84621e-05,2.28551e-05,4
-3.20151e-05,1.24027e-05,-1.70844e-06,0.000471713,2.16777e-05,-5.61404e-06,2.25244e-06,2.1514e-05,4
-3.40637e-05,1.02412e-05,-8.18623e-07,0.000589956,1.65961e-05,-1.2777e-05,3.80238e-05,1.9352e-05,4
-3.8356e-05,6.54731e-06,-6.40195e-06,0.000541066,4.53124e-06,-1.88936e-05,8.0766e-05,1.77416e-05,4
-4.23487e-05,2.03927e-06,-1.97271e-05,0.000256692,-1.11934e-05,-1.94202e-05,0.000123476,1.85386e-05,4
-4.43504e-05,-6.95734e-07,-4.07337e-05,-0.000129061,-2.23379e-05,-1.60847e-05,0.000151051,1.98992e-05,4
-4.47205e-05,-2.59427e-06,-6.25686e-05,-0.000387186,-2.13433e-05,-1.45674e-05,0.000119209,1.88045e-05,4
-4.3407e-05,-3.45738e-06,-7.08873e-05,-0.000361763,-7.64021e-06,-1.85832e-05,8.26082e-06,1.59539e-05,4
-4.14558e-05,-7.29145e-07,-6.35298e-05,-0.000181053,7.598e-06,-2.49767e-05,-0.000114787,1.3789e-05,4
-3.89379e-05,3.37789e-06,-5.22755e-05,-6.12185e-05,1.5879e-05,-2.47723e-05,-0.000188306,1.20852e-05,4
-3.45536e-05,7.65515e-06,-4.1925e-05,-2.87528e-05,1.96571e-05,-1.8341e-05,-0.000209699,1.13115e-05,4
-3.00155e-05,1.20978e-05,-3.05493e-05,-4.03205e-05,2.23147e-05,-1.30334e-05,-0.00017468,1.02662e-05,4
-2.76829e-05,1.53139e-05,-8.56433e-06,-2.89205e-06,2.24461e-05,-1.26905e-05,-6.78217e-05,9.47913e-06,4
-2.74697e-05,1.77069e-05,2.02768e-05,0.000118176,1.68816e-05,-1.60606e-05,5.72157e-05,9.87412e-06,4
-2.85147e-05,1.93832e-05,4.44877e-05,0.000306635,8.56072e-06,-1.96802e-05,0.00011295,9.2686e-06,4
-2.89758e-05,2.03659e-05,5.94906e-05,0.000435482,4.80391e-06,-2.11409e-05,9.53397e-05,7.51942e-06,4
-2.80656e-05,2.16871e-05,6.52219e-05,0.000391434,7.00071e-06,-2.06667e-05,4.97356e-05,5.35142e-06,4
-2.7994e-05,2.22921e-05,6.24874e-05,0.000277807,1.06759e-05,-2.17098e-05,5.81586e-06,4.70302e-06,4
-2.96384e-05,2.12571e-05,5.35468e-05,0.000268938,1.19988e-05,-2.30252e-05,-2.12295e-05,5.02364e-06,4
-3.11966e-05,2.00231e-05,4.0372e-05,0.000393291,1.30551e-05,-1.67994e-05,-2.78219e-05,5.335e-06,4
-3.19537e-05,1.84259e-05,2.22025e-05,0.000495489,1.58862e-05,-2.08937e-06,-2.34703e-05,5.35236e-06,4
-3.26686e-05,1.54898e-05,1.21798e-06,0.000345951,1.6384e-05,8.00391e-06,-1.41484e-05,4.85123e-06,4
-3.45059e-05,1.05358e-05,-1.97769e-05,-8.90141e-05,1.06855e-05,5.23127e-06,7.89269e-06,4.16731e-06,4
-3.58852e-05,6.97915e-06,-3.48542e-05,-0.000526315,4.38022e-06,-1.67216e-06,3.90188e-05,3.33957e-06,4
-3.37688e-05,8.71205e-06,-4.12468e-05,-0.000762885,7.82987e-06,-2.06823e-06,6.21408e-05,4.54264e-06,4
-2.8383e-05,1.3035e-05,-4.12487e-05,-0.000850182,1.95183e-05,3.84735e-06,7.75429e-05,1.0611e-05,4
-2.38187e-05,1.57327e-05,-4.15506e-05,-0.00080235,2.77518e-05,9.83279e-06,9.93165e-05,2.0969e-05,4
-2.29196e-05,1.524e-05,-4.3021e-05,-0.000598509,2.74695e-05,1.10929e-05,0.000121044,2.93319e-05,4
-2.3797e-05,1.37507e-05,-4.01686e-05,-0.000374415,2.3008e-05,8.03914e-06,0.000125243,3.12523e-05,4
-2.49992e-05,1.39418e-05,-3.16393e-05,-0.0002424,1.72244e-05,3.13716e-06,0.000106969,2.63778e-05,4
-2.70225e-05,1.51013e-05,-2.18317e-05,-0.000176594,1.23043e-05,-8.86515e-07,8.21761e-05,1.85001e-05,4
-2.91579e-05,1.56755e-05,-1.28349e-05,-0.000102229,1.03517e-05,-3.30405e-06,6.7083e-05,1.10566e-05,4
-2.89512e-05,1.70485e-05,-7.60726e-06,9.89414e-06,1.22315e-05,-4.00109e-06,5.92712e-05,2.90085e-06,4
-2.61815e-05,2.04866e-05,-1.02408e-05,0.000141846,1.78195e-05,-1.42656e-06,4.81865e-05,-7.99949e-06,4
-2.3867e-05,2.37487e-05,-1.1578e-05,0.000211696,2.12262e-05,-1.72118e-06,1.18346e-05,-1.82848e-05,4
-2.35862e-05,2.5365e-05,-2.32957e-06,9.71429e-05,2.15376e-05,-3.93911e-06,-4.53437e-05,-2.45824e-05,4
-2.4094e-05,2.55652e-05,7.7512e-06,-0.000216469,1.88045e-05,-2.84908e-06,-6.76202e-05,-2.77854e-05,4
-2.46445e-05,2.32331e-05,8.13046e-06,-0.000433841,1.14189e-05,-2.08676e-06,-3.22105e-05,-2.72889e-05,4
-2.53446e-05,2.1082e-05,6.05768e-06,-0.000180873,5.40976e-06,-3.46102e-06,1.38782e-05,-2.12621e-05,4
-2.60603e-05,2.02123e-05,1.32248e-05,0.000396282,3.37338e-06,-1.00323e-05,2.37733e-05,-7.49241e-06,4
-2.61969e-05,1.87102e-05,2.82709e-05,0.000783637,5.74987e-06,-1.87486e-05,4.29088e-06,5.31295e-06,4
-2.53854e-05,1.67248e-05,4.19111e-05,0.000665965,1.37825e-05,-2.44984e-05,-2.14463e-05,9.66504e-06,4
-2.42689e-05,1.44454e-05,4.76425e-05,0.000164783,2.34779e-05,-2.7095e-05,-4.90395e-05,7.58784e-06,4
-2.43187e-05,1.079e-05,4.01848e-05,-0.000297406,2.57252e-05,-2.78409e-05,-7.91058e-05,3.7582e-06,4
-2.63615e-05,6.86428e-06,2.31958e-05,-0.000411708,1.85018e-05,-2.5641e-05,-9.50616e-05,5.29368e-06,4
-2.86789e-05,6.2873e-06,5.64094e-06,-0.000242792,1.02511e-05,-1.77301e-05,-7.05933e-05,1.46746e-05,4
-2.89536e-05,9.01884e-06,-8.29671e-06,-5.36482e-05,6.90932e-06,-6.77374e-06,-2.01365e-05,2.57303e-05,4
-2.56264e-05,1.17844e-05,-1.86484e-05,1.78027e-05,8.69381e-06,2.83055e-06,1.68654e-05,2.72984e-05,4
-2.14455e-05,1.3315e-05,-2.27255e-05,-5.98531e-06,1.38034e-05,8.04775e-06,2.40844e-05,1.14256e-05,4
-2.02784e-05,1.47008e-05,-1.86925e-05,-9.17433e-05,1.87403e-05,9.48221e-06,2.5228e-05,-2.17378e-05,4
-2.22249e-05,1.61639e-05,-1.28073e-05,-0.000190732,2.09618e-05,8.72095e-06,4.7932e-05,-6.32019e-05,4
-2.45841e-05,1.61432e-05,-1.2335e-05,-0.000123393,2.14723e-05,6.29314e-06,8.51401e-05,-9.80595e-05,4
-2.60079e-05,1.33362e-05,-1.47792e-05,0.0002638,2.17955e-05,8.22826e-07,0.000111553,-0.000108475,4
-2.83149e-05,1.04093e-05,-1.47041e-05,0.000706871,2.00928e-05,-7.25102e-06,0.000126172,-8.73614e-05,4
-3.17857e-05,9.44839e-06,-1.42914e-05,0.000647327,1.40987e-05,-1.5378e-05,0.000144423,-4.86793e-05,4
-3.48947e-05,1.04544e-05,-1.60763e-05,-1.20636e-05,6.08096e-06,-1.83334e-05,0.000158645,-1.5689e-05,4
-3.5936e-05,1.26508e-05,-1.81465e-05,-0.000647007,3.19508e-07,-1.46936e-05,0.000152312,1.87551e-06,4
-3.48314e-05,1.44007e-05,-1.78959e-05,-0.000781615,-2.80576e-07,-1.21609e-05,0.000108397,8.32962e-06,4
-3.37319e-05,1.3949e-05,-1.56213e-05,-0.000511442,4.4566e-06,-1.26709e-05,1.76779e-05,9.03718e-06,4
-3.35934e-05,1.30211e-05,-1.03903e-05,-0.000186455,1.18924e-05,-1.3127e-05,-8.16398e-05,6.55885e-06,4
-3.42347e-05,1.32811e-05,-1.52808e-06,-0.00011261,1.82148e-05,-1.52709e-05,-0.000140871,2.50716e-06,4
-3.4679e-05,1.32486e-05,2.0362e-06,-0.000193702,2.28168e-05,-1.6418e-05,-0.000149078,-1.5352e-06,4
-3.43668e-05,1.31373e-05,-6.90672e-06,-0.000142848,2.51065e-05,-1.22194e-05,-0.000145083,-4.91799e-06,4
-3.46923e-05,1.31952e-05,-1.88094e-05,0.000110854,2.51402e-05,-6.05364e-06,-0.000173098,-8.20226e-06,4
-3.49897e-05,1.42196e-05,-2.29551e-05,0.000383551,2.44833e-05,-3.18845e-06,-0.000231549,-1.16551e-05,4
-3.57656e-05,1.49416e-05,-1.93388e-05,0.00052486,2.45347e-05,-3.99931e-06,-0.000295199,-1.37924e-05,4
-3.65935e-05,1.38095e-05,-1.31145e-05,0.000492055,2.19672e-05,-6.66475e-06,-0.000312751,-1.1423e-05,4
-3.7043e-05,1.15698e-05,-1.06749e-05,0.0003026,1.37597e-05,-9.19239e-06,-0.000233174,-5.34468e-06,4
-3.79876e-05,8.73034e-06,-1.36681e-05,9.38041e-05,3.76975e-06,-1.01028e-05,-3.71843e-05,7.98375e-07,4
-3.95439e-05,4.94169e-06,-1.90265e-05,-3.11298e-05,-1.59168e-06,-1.22592e-05,0.000204895,5.80694e-06,4
-3.94879e-05,2.12285e-06,-2.21137e-05,-8.80648e-05,1.64657e-06,-1.63747e-05,0.000344574,1.08596e-05,4
-3.53354e-05,3.12304e-06,-2.10394e-05,-0.000112209,8.0328e-06,-1.80038e-05,0.000292221,1.72882e-05,4
-2.96497e-05,6.03711e-06,-1.86845e-05,-9.66437e-05,9.9521e-06,-1.43065e-05,0.000112912,2.28556e-05,4
-2.53081e-05,9.17264e-06,-1.6429e-05,-7.32582e-05,6.00416e-06,-7.48759e-06,-5.15708e-05,2.5569e-05,4
-2.38353e-05,1.21897e-05,-1.39165e-05,-8.47359e-05,1.27183e-06,-2.45622e-06,-0.000112003,2.61649e-05,4
-2.46942e-05,1.45739e-05,-9.81877e-06,-0.000127944,-1.05421e-06,-3.12218e-06,-4.45974e-05,2.69183e-05,4
-2.71953e-05,1.49016e-05,-5.12258e-06,-0.000136043,-2.07113e-06,-9.57082e-06,0.000123013,2.71256e-05,4
-3.05796e-05,1.3176e-05,-3.70686e-06,-2.05478e-05,-4.05963e-06,-1.77415e-05,0.000296513,2.82457e-05,4
-3.34279e-05,1.02161e-05,-8.46443e-06,0.000202818,-5.85023e-06,-2.30954e-05,0.000350934,3.40249e-05,4
-3.5105e-05,7.16527e-06,-1.7912e-05,0.000372656,-3.08809e-06,-2.75208e-05,0.000257281,4.14137e-05,4
-3.63821e-05,4.66557e-06,-2.75318e-05,0.000364293,4.75355e-06,-3.42437e-05,0.000110945,4.30097e-05,4
-3.63942e-05,2.75415e-06,-3.21318e-05,0.00021262,1.3615e-05,-3.97219e-05,1.49723e-05,4.2533e-05,4
-3.41652e-05,3.17526e-06,-3.16499e-05,2.5146e-05,2.06989e-05,-3.5198e-05,-1.6528e-05,4.76525e-05,4
-3.14713e-05,4.20182e-06,-3.42864e-05,-0.000105834,2.34533e-05,-1.8781e-05,-1.76603e-05,5.1948e-05,4
-3.02586e-05,4.25734e-06,-4.05326e-05,-0.000111987,2.10115e-05,-5.6424e-08,-9.07692e-06,4.57707e-05,4
-2.94476e-05,4.93507e-06,-4.08743e-05,-5.11513e-05,1.70485e-05,1.00456e-05,2.31957e-07,2.93249e-05,4
-2.78248e-05,7.34969e-06,-3.06012e-05,-5.7411e-05,1.59735e-05,7.73115e-06,7.13791e-06,7.2048e-06,4
-2.70423e-05,9.24582e-06,-1.4111e-05,-0.000158532,1.85713e-05,-9.09295e-07,1.12134e-05,-2.04186e-05,4
-2.85889e-05,9.22775e-06,-2.59658e-06,-0.000186918,1.82023e-05,-7.99817e-06,8.39737e-06,-4.64156e-05,4
-3.00814e-05,9.60738e-06,5.41157e-07,1.42077e-05,1.50894e-05,-1.15981e-05,5.22153e-06,-6.23006e-05,4
-2.83701e-05,1.12652e-05,1.16033e-06,0.00023021,1.29905e-05,-1.13796e-05,8.52819e-06,-6.86415e-05,4
-2.50104e-05,1.40066e-05,1.71442e-06,0.000166491,1.20172e-05,-6.47546e-06,2.46192e-06,-6.73398e-05,4
-2.15375e-05,1.57284e-05,3.48082e-06,-5.86134e-05,1.33855e-05,6.65769e-07,-2.17629e-05,-6.25255e-05,4
-1.86206e-05,1.56894e-05,4.94196e-06,-0.000131512,1.63954e-05,5.53504e-06,-4.43642e-05,-5.62902e-05,4
-1.62809e-05,1.46102e-05,5.22415e-06,-6.65689e-05,1.78799e-05,4.32683e-06,-4.38892e-05,-5.1842e-05,4
-1.48075e-05,1.39118e-05,4.58432e-06,-8.30976e-05,1.77011e-05,1.26772e-06,-2.25274e-05,-5.03935e-05,4
-1.36892e-05,1.57471e-05,6.65921e-06,-0.000273145,1.93016e-05,1.39538e-06,-1.39626e-06,-5.04276e-05,4
-1.28071e-05,1.91352e-05,1.06854e-05,-0.000410126,2.43413e-05,3.99431e-06,9.56613e-06,-5.01455e-05,4
-1.17789e-05,2.24414e-05,1.41826e-05,-0.000173297,3.33971e-05,5.56325e-06,1.40312e-05,-4.64339e-05,4
-1.05162e-05,2.36439e-05,1.64833e-05,0.000384235,4.50286e-05,2.45282e-06,6.34131e-06,-3.92031e-05,4
-9.65023e-06,2.31128e-05,1.74412e-05,0.000853189,5.40262e-05,-2.71975e-06,3.37302e-07,-2.99066e-05,4
-9.93248e-06,2.22045e-05,1.92747e-05,0.000943059,5.47373e-05,-6.50369e-06,4.15746e-05,-2.05198e-05,4
-1.19666e-05,2.22219e-05,2.15052e-05,0.00068276,4.77185e-05,-7.30344e-06,0.000119768,-1.09299e-05,4
-1.38526e-05,2.22038e-05,2.19927e-05,0.000268938,3.65671e-05,-6.06834e-06,0.000157197,-6.70803e-07,4
-1.50748e-05,2.02721e-05,1.47946e-05,-6.42525e-05,1.88587e-05,-4.37815e-06,0.000129522,8.63195e-06,4
-1.7053e-05,1.64359e-05,1.08095e-06,-0.000234856,-7.69212e-06,-5.17651e-06,7.29022e-05,1.46077e-05,4
-2.07478e-05,1.20826e-05,-8.25311e-06,-0.00032475,-3.18815e-05,-9.99747e-06,7.35612e-06,1.80817e-05,4
-2.40981e-05,9.65288e-06,-4.91481e-06,-0.000391866,-3.86842e-05,-1.59155e-05,-5.5398e-05,2.11582e-05,4
-2.51219e-05,9.79576e-06,6.95434e-06,-0.000365217,-2.59602e-05,-1.86033e-05,-9.17574e-05,2.39242e-05,4
-2.3885e-05,1.11749e-05,1.60888e-05,-0.000216831,-3.95109e-06,-1.7149e-05,-0.000105482,2.5577e-05,4
-2.2461e-05,1.15128e-05,1.40293e-05,-6.62149e-05,1.40864e-05,-1.70951e-05,-0.000109496,2.69175e-05,4
-2.28105e-05,1.05527e-05,5.51329e-06,1.01569e-06,2.24343e-05,-2.06348e-05,-8.6748e-05,2.7872e-05,4
-2.55505e-05,9.24509e-06,1.06804e-06,5.04581e-05,2.35014e-05,-2.4692e-05,-4.32799e-05,2.92353e-05,4
-2.90661e-05,7.7349e-06,9.48033e-07,1.01821e-05,1.97786e-05,-2.5264e-05,-1.7298e-05,3.52874e-05,4
-3.24904e-05,5.49e-06,-4.01537e-06,-0.000576847,1.04174e-05,-2.26232e-05,1.86398e-06,4.68924e-05,4
-3.52022e-05,3.65979e-06,-1.1395e-05,-0.0013396,-5.21412e-08,-2.07617e-05,4.02546e-05,5.6588e-05,4
-3.5751e-05,4.86472e-06,-1.41499e-05,-0.00107801,-4.24351e-06,-1.93503e-05,7.22873e-05,6.35814e-05,4
-3.39053e-05,9.41104e-06,-1.35271e-05,-2.04733e-05,5.87451e-07,-1.58652e-05,6.81589e-05,6.68666e-05,4
-3.0296e-05,1.46623e-05,-1.30028e-05,0.000693936,1.2599e-05,-1.02131e-05,2.25541e-05,6.73683e-05,4
-2.7412e-05,1.79757e-05,-1.61144e-05,0.000659638,2.24717e-05,-3.93377e-06,-3.59943e-05,7.14076e-05,4
-2.62811e-05,1.86666e-05,-2.13219e-05,0.000311649,2.35665e-05,8.02517e-08,-6.35133e-05,7.39129e-05,4
-2.88456e-05,1.63765e-05,-3.07034e-05,0.000167296,1.49939e-05,4.44523e-07,-5.69831e-05,6.89726e-05,4
-3.4069e-05,1.20388e-05,-4.16443e-05,0.000226568,3.79622e-06,-1.73158e-06,-3.59508e-05,5.59907e-05,4
-3.90754e-05,8.06966e-06,-4.56955e-05,0.000351054,-1.3502e-06,-4.83499e-06,-9.79389e-06,4.05453e-05,4
-4.25295e-05,5.1762e-06,-4.05582e-05,0.00046808,-1.50227e-06,-1.01541e-05,2.0024e-05,2.05337e-05,4
-4.32746e-05,5.17393e-06,-3.17288e-05,0.000353117,-5.53979e-07,-1.56629e-05,4.27978e-05,-8.98579e-06,4
-4.25512e-05,7.29788e-06,-2.59924e-05,-5.59508e-05,7.76183e-07,-1.59103e-05,3.57014e-05,-4.17037e-05,4
-4.13559e-05,8.04322e-06,-2.46912e-05,-0.000376375,3.83252e-06,-1.09897e-05,-2.37486e-06,-6.18591e-05,4
-4.09363e-05,6.895e-06,-2.48362e-05,-0.000339069,6.8387e-06,-4.43714e-06,-4.30756e-05,-6.20612e-05,4
-4.03157e-05,6.95239e-06,-2.12745e-05,-0.000104033,8.94646e-06,9.68021e-07,-4.00404e-05,-5.09343e-05,4
-3.79187e-05,9.36182e-06,-1.36153e-05,-1.19479e-06,1.10646e-05,4.78966e-06,3.13683e-05,-3.83696e-05,4
-3.53756e-05,1.09815e-05,-8.67383e-06,-0.000109799,1.40562e-05,5.88289e-06,0.000121506,-2.86284e-05,4
-3.42833e-05,1.06245e-05,-8.7104e-06,-0.000287374,1.82786e-05,1.56778e-06,0.000138481,-2.42295e-05,4
-3.32599e-05,1.07842e-05,-6.99332e-06,-0.000326742,2.36385e-05,-6.74985e-06,7.27173e-05,-2.8425e-05,4
-3.15671e-05,1.26807e-05,1.36746e-06,-0.000150279,2.85776e-05,-1.2414e-05,-5.42191e-08,-3.83228e-05,4
-3.01161e-05,1.48173e-05,1.29143e-05,0.000158642,3.01955e-05,-1.25772e-05,-3.28365e-05,-4.78033e-05,4
-2.97141e-05,1.61271e-05,1.71333e-05,0.00040769,2.77093e-05,-1.05873e-05,-3.1882e-05,-5.11972e-05,4
-3.03497e-05,1.70738e-05,1.06195e-05,0.000428333,2.46386e-05,-8.20492e-06,-1.46014e-05,-4.28457e-05,4
-3.12629e-05,1.79329e-05,8.48537e-07,0.000261354,2.31091e-05,-6.06078e-06,6.66848e-06,-2.45166e-05,4
-3.17566e-05,1.76139e-05,-3.94827e-06,0.000182891,2.02129e-05,-6.51589e-06,2.43301e-05,-8.359e-06,4
-3.11048e-05,1.67353e-05,2.08542e-07,0.000267946,1.6954e-05,-7.17402e-06,3.94045e-05,-3.53459e-07,4
-3.14154e-05,1.67986e-05,9.45046e-06,9.14804e-05,1.62327e-05,-8.31665e-06,5.39377e-05,2.93175e-07,4
-3.07504e-05,1.7203e-05,1.6997e-05,-0.000573505,1.71142e-05,-1.15557e-05,6.36985e-05,-3.00346e-06,4
-2.75956e-05,1.87008e-05,2.0419e-05,-0.00119876,1.94124e-05,-1.18448e-05,6.92691e-05,-4.82396e-06,4
-2.51077e-05,2.09523e-05,2.23864e-05,-0.00111804,2.24187e-05,-1.09057e-05,6.93516e-05,-1.89623e-06,4
-2.59796e-05,2.00713e-05,2.30618e-05,-0.000352221,2.23112e-05,-1.37819e-05,5.62653e-05,4.22932e-06,4
-2.8741e-05,1.74936e-05,2.28205e-05,0.000434053,1.94867e-05,-1.88391e-05,2.96035e-05,5.54289e-06,4
-2.97153e-05,1.44592e-05,1.7749e-05,0.000749162,1.76716e-05,-2.1576e-05,-1.08516e-05,-5.81773e-07,4
-3.10049e-05,1.08567e-05,-6.16051e-07,0.000677478,1.57606e-05,-2.33672e-05,-5.41913e-05,-9.80182e-06,4
-3.48132e-05,6.77336e-06,-2.92554e-05,0.000512244,9.3291e-06,-2.6823e-05,-8.83953e-05,-1.80062e-05,4
-3.86444e-05,2.90015e-06,-5.22063e-05,0.000541139,-2.63619e-07,-2.77002e-05,-9.69112e-05,-2.0808e-05,4
-3.90732e-05,1.92122e-06,-5.7757e-05,0.000556743,-7.40439e-06,-2.3999e-05,-7.52866e-05,-1.67934e-05,4
-3.77642e-05,4.01109e-06,-4.92868e-05,0.000205462,-9.04954e-06,-1.84167e-05,-4.74212e-05,-8.1013e-06,4
-3.65719e-05,6.85259e-06,-3.73719e-05,-0.000381838,-3.53215e-06,-1.519e-05,-4.24023e-05,-1.08315e-06,4
-3.47727e-05,9.78248e-06,-2.85483e-05,-0.00072451,6.56801e-06,-1.58751e-05,-6.37795e-05,1.44529e-07,4
-3.2756e-05,1.22019e-05,-2.31437e-05,-0.000554444,1.52805e-05,-1.62952e-05,-7.33521e-05,-2.15663e-06,4
-3.02994e-05,1.31997e-05,-2.09332e-05,-0.000141101,2.06254e-05,-1.26334e-05,-3.24056e-05,-4.28902e-06,4
-2.58671e-05,1.50423e-05,-1.89231e-05,0.000185379,2.54169e-05,-5.86099e-06,3.79488e-05,-4.70309e-06,4
-2.1859e-05,1.93028e-05,-1.29687e-05,0.000400438,3.00224e-05,2.85502e-07,7.34649e-05,-3.27679e-06,4
-2.16031e-05,2.4387e-05,-3.59344e-06,0.000543964,3.07928e-05,4.59484e-06,7.52439e-05,5.83183e-07,4
-2.37437e-05,2.58457e-05,4.72898e-06,0.000486444,2.51838e-05,8.10536e-06,0.000101821,5.75745e-06,4
-2.73278e-05,2.19857e-05,8.54594e-06,0.000205663,1.47581e-05,8.59054e-06,0.000167577,9.94661e-06,4
-3.17497e-05,1.49617e-05,6.0326e-06,-0.00020052,5.81293e-06,3.45326e-06,0.000223267,1.07652e-05,4
-3.48181e-05,1.01477e-05,2.19962e-06,-0.000623927,3.09768e-06,-3.08233e-06,0.000218818,9.98643e-06,4
-3.41162e-05,1.02203e-05,3.10063e-06,-0.000921116,5.0293e-06,-6.23983e-06,0.000145883,9.91626e-06,4
-3.04477e-05,1.17503e-05,2.90529e-06,-0.00091166,8.11299e-06,-4.61073e-06,3.3793e-05,1.07795e-05,4
-2.83958e-05,1.21868e-05,-6.64983e-06,-0.000589544,1.29524e-05,-2.04429e-06,-8.08624e-05,1.30861e-05,4
-2.95324e-05,1.18562e-05,-2.07882e-05,-0.000214797,1.96116e-05,-4.65802e-06,-0.000176433,1.62268e-05,4
-3.1084e-05,1.05745e-05,-3.15918e-05,0.000112291,2.64766e-05,-1.00215e-05,-0.000226968,1.80019e-05,4
-3.19858e-05,8.81937e-06,-3.25249e-05,0.000395527,2.84259e-05,-1.61483e-05,-0.000188164,1.8618e-05,4
-3.15841e-05,8.04419e-06,-2.37659e-05,0.000532954,2.8956e-05,-2.31091e-05,-7.14056e-05,1.81246e-05,4
-3.27354e-05,7.61141e-06,-1.50729e-05,0.000370438,3.13911e-05,-2.6375e-05,3.70703e-05,1.56831e-05,4
-3.67414e-05,5.1896e-06,-1.37425e-05,-0.000140886,2.42379e-05,-2.44266e-05,6.07306e-05,1.16531e-05,4
-3.94022e-05,3.13395e-06,-1.12733e-05,-0.000529167,1.01833e-05,-1.89005e-05,9.98271e-06,6.77408e-06,4
-3.91355e-05,6.09695e-06,1.0311e-05,-0.000403962,-1.76574e-06,-1.16769e-05,-3.4744e-05,2.59445e-06,4
-3.71622e-05,1.16575e-05,4.11362e-05,-2.18887e-05,-8.99069e-06,-8.06583e-06,-2.06572e-05,1.23663e-06,4
-3.6384e-05,1.40853e-05,5.71533e-05,0.000193025,-9.82527e-06,-1.0026e-05,3.40945e-05,2.1824e-06,4
-3.68223e-05,1.29353e-05,5.24718e-05,0.000181883,-5.47473e-06,-1.45375e-05,8.33728e-05,2.43572e-06,4
-3.67453e-05,1.15363e-05,3.92649e-05,0.000172806,-1.52018e-06,-1.64362e-05,0.000111736,1.18918e-06,4
-3.64949e-05,1.14123e-05,2.87597e-05,0.00029342,-2.33764e-06,-1.27129e-05,0.000119821,8.18341e-07,4
-3.74319e-05,1.11339e-05,2.18936e-05,0.000521656,-4.64627e-06,-7.99993e-06,0.000119912,1.50395e-06,4
-3.94291e-05,9.07381e-06,1.44904e-05,0.000764211,-3.73295e-06,-1.01609e-05,0.000103604,1.81826e-06,4
-4.12179e-05,5.52854e-06,4.26895e-06,0.000886375,1.52693e-06,-1.82976e-05,3.09035e-05,2.4688e-06,4
-4.07467e-05,4.03834e-06,-4.76143e-06,0.000670749,1.09686e-05,-2.19769e-05,-9.55907e-05,4.19975e-06,4
-3.61677e-05,8.02224e-06,-8.13822e-06,0.000107833,2.23382e-05,-1.38762e-05,-0.000197959,6.34417e-06,4
-2.90404e-05,1.48595e-05,-5.48873e-06,-0.000501565,3.08437e-05,2.96356e-06,-0.000210239,7.33316e-06,4
-2.34458e-05,2.04241e-05,-2.03853e-06,-0.000853416,3.48466e-05,1.63897e-05,-0.00013688,7.24893e-06,4
-2.21346e-05,2.24027e-05,-4.70399e-06,-0.000775357,3.31022e-05,1.89923e-05,-4.53454e-06,6.68423e-06,4
-2.41316e-05,2.08254e-05,-1.40816e-05,-0.000281546,2.60474e-05,1.32079e-05,0.000143005,6.58814e-06,4
-2.6894e-05,1.79621e-05,-2.22782e-05,0.000265003,1.80922e-05,5.40469e-06,0.00021844,6.90432e-06,4
-2.88088e-05,1.62484e-05,-2.53159e-05,0.000420317,1.24435e-05,1.88392e-07,0.000167552,7.72488e-06,4
-3.00377e-05,1.55978e-05,-2.68958e-05,8.8947e-05,5.95268e-06,-2.91865e-06,5.19106e-05,7.60612e-06,4
-3.05749e-05,1.54176e-05,-2.77117e-05,-0.00045042,-1.00183e-06,-5.39484e-06,-4.12248e-05,6.89619e-06,4
-2.95291e-05,1.65024e-05,-2.38996e-05,-0.000810286,-1.57073e-06,-5.78435e-06,-9.07388e-05,7.25995e-06,4
-2.83554e-05,1.81966e-05,-1.618e-05,-0.000796316,3.74884e-06,-5.19513e-06,-9.93023e-05,8.37635e-06,4
-2.91924e-05,1.7833e-05,-7.44143e-06,-0.000469079,1.14241e-05,-4.52799e-06,-3.74541e-05,9.80036e-06,4
-3.00481e-05,1.75854e-05,-6.86864e-07,-0.000131057,2.00614e-05,-1.46793e-06,7.19472e-05,1.07776e-05,4
-2.84991e-05,2.04823e-05,1.0717e-06,7.40621e-06,2.58903e-05,-8.50581e-08,0.000135405,1.1105e-05,4
-2.62245e-05,2.19252e-05,-2.39371e-06,-0.000142618,2.74042e-05,-6.03259e-06,0.000115978,1.0682e-05,4
-2.69466e-05,1.81745e-05,-9.52718e-06,-0.000573779,2.72593e-05,-1.58912e-05,6.02349e-05,8.56201e-06,4
-3.05332e-05,1.20596e-05,-1.94008e-05,-0.000709993,2.74285e-05,-2.22097e-05,3.86478e-05,4.01489e-06,4
-3.40375e-05,6.57303e-06,-3.04809e-05,-0.000227066,2.12573e-05,-2.42005e-05,7.33853e-05,-7.57432e-08,4
-3.76129e-05,3.66212e-06,-3.78971e-05,0.000389062,5.05726e-06,-2.46496e-05,0.000114746,-3.2706e-06,4
-4.07188e-05,4.10338e-06,-3.88731e-05,0.000665046,-1.21071e-05,-2.2905e-05,0.000101107,-5.83992e-06,4
-4.07124e-05,5.64803e-06,-3.52413e-05,0.000631971,-1.68303e-05,-1.95398e-05,2.84677e-05,-7.34569e-06,4
-3.77335e-05,7.78837e-06,-3.05682e-05,0.00055505,-5.73987e-06,-1.66053e-05,-6.50439e-05,-8.38563e-06,4
-3.40797e-05,1.0806e-05,-2.60501e-05,0.000512398,9.49996e-06,-1.49508e-05,-0.000133882,-8.03512e-06,4
-3.14777e-05,1.35882e-05,-2.15945e-05,0.000480663,1.89411e-05,-1.32052e-05,-0.000138596,-6.80789e-06,4
-3.12379e-05,1.53304e-05,-1.74487e-05,0.00047541,2.12658e-05,-1.16233e-05,-8.11507e-05,-5.7969e-06,4
-3.40047e-05,1.55105e-05,-1.31676e-05,0.00047464,1.79561e-05,-1.3045e-05,-1.1404e-05,-6.03673e-06,4
-3.79192e-05,1.36792e-05,-8.34309e-06,0.000382043,9.50934e-06,-1.82532e-05,2.92671e-05,-5.19478e-06,4
-4.06964e-05,1.15296e-05,-4.80874e-06,0.00023185,-8.99895e-08,-2.35705e-05,5.1767e-05,1.90212e-06,4
-4.15878e-05,1.03922e-05,-3.83778e-06,0.000121531,-5.90042e-06,-2.41257e-05,7.40571e-05,1.58039e-05,4
-4.16568e-05,1.00176e-05,-1.03584e-06,1.91532e-05,-6.68888e-06,-2.11821e-05,9.05073e-05,2.74e-05,4
-4.11191e-05,1.02772e-05,9.11263e-06,-0.000112757,-4.52619e-06,-1.98742e-05,0.000104232,2.89962e-05,4
-3.9269e-05,1.06846e-05,2.33514e-05,-0.00014074,-8.98329e-07,-2.2205e-05,0.00011863,2.36026e-05,4
-3.62255e-05,1.13612e-05,3.15238e-05,-4.12638e-05,5.09029e-06,-2.22469e-05,0.000109042,1.87521e-05,4
-3.14472e-05,1.296e-05,2.68814e-05,-3.05501e-05,1.53467e-05,-1.451e-05,5.8796e-05,1.9527e-05,4
-2.62365e-05,1.43186e-05,1.11772e-05,-0.000200692,2.78001e-05,-3.18865e-06,-8.71613e-06,2.82019e-05,4
-2.23293e-05,1.49313e-05,-6.5028e-06,-0.000344324,3.82903e-05,5.73495e-06,-5.32718e-05,4.37665e-05,4
-1.96846e-05,1.56159e-05,-1.82972e-05,-0.000315805,4.52479e-05,1.26075e-05,-6.07296e-05,5.66843e-05,4
-1.73659e-05,1.63504e-05,-2.07013e-05,-0.000270013,4.82147e-05,1.69089e-05,-4.36844e-05,5.38327e-05,4
-1.62394e-05,1.78951e-05,-1.05706e-05,-0.000321095,4.72131e-05,1.48305e-05,-1.69058e-05,2.4933e-05,4
-1.74977e-05,1.92361e-05,2.49214e-06,-0.000333661,4.15227e-05,8.91178e-06,8.19452e-06,-1.94711e-05,4
-1.91131e-05,1.95683e-05,2.95208e-06,-0.000168444,3.40017e-05,6.10421e-06,2.57092e-05,-5.68481e-05,4
-2.0925e-05,1.82103e-05,-8.217e-06,4.91292e-05,2.40103e-05,4.16875e-06,4.06572e-05,-7.23164e-05,4
-2.40209e-05,1.37697e-05,-2.22324e-05,0.000153445,9.69942e-06,-4.65464e-07,5.25617e-05,-6.33584e-05,4
-2.79087e-05,8.75369e-06,-3.30302e-05,9.89949e-05,-1.73913e-06,-5.28254e-06,5.05607e-05,-4.51404e-05,4
-3.11462e-05,6.35888e-06,-3.58791e-05,-6.05282e-05,-5.66282e-06,-8.94118e-06,3.15181e-05,-3.16794e-05,4
-3.17048e-05,5.57208e-06,-2.97655e-05,-0.000170787,-4.06058e-06,-1.37415e-05,3.55334e-06,-2.28946e-05,4
-3.05546e-05,4.35858e-06,-2.10846e-05,-0.000193082,-5.82306e-07,-1.81392e-05,-1.83578e-05,-1.36959e-05,4
-2.90105e-05,3.66511e-06,-1.4997e-05,-0.000171961,2.53856e-06,-1.89812e-05,-2.87055e-05,-6.40985e-06,4
-2.78242e-05,4.99113e-06,-1.02041e-05,-8.83243e-05,5.21963e-06,-1.73564e-05,-3.37281e-05,-3.21367e-06,4
-2.72795e-05,8.95101e-06,-5.03354e-06,3.43178e-05,7.43973e-06,-1.5616e-05,-4.5528e-05,-2.27092e-06,4
-2.77899e-05,1.26689e-05,-3.19496e-06,0.000148405,9.72123e-06,-1.56516e-05,-8.11842e-05,-1.47826e-06,4
-2.87596e-05,1.36263e-05,-5.60063e-06,0.000217378,1.08491e-05,-1.50292e-05,-0.000138761,-9.12661e-07,4
-2.94133e-05,1.26327e-05,-9.04087e-06,0.000223882,8.75325e-06,-1.27637e-05,-0.000176641,1.14919e-07,4
-3.04031e-05,1.14721e-05,-1.0914e-05,0.000162804,4.39315e-06,-9.5974e-06,-0.000142086,3.29305e-06,4
-3.09628e-05,1.15849e-05,-8.39677e-06,6.86709e-05,1.86887e-06,-6.77039e-06,-1.49827e-05,7.16959e-06,4
-3.05674e-05,1.25005e-05,-3.45414e-06,1.13025e-05,3.50768e-06,-3.95383e-06,0.000141933,7.86486e-06,4
-2.87939e-05,1.37923e-05,-1.27751e-06,1.58618e-05,7.37603e-06,-1.64844e-06,0.000216463,-2.07596e-07,4
-2.59677e-05,1.54593e-05,-2.7318e-06,5.95587e-05,1.12805e-05,-1.38531e-06,0.000177841,-1.73433e-05,4
-2.48794e-05,1.66496e-05,-2.91185e-06,0.000136859,1.56422e-05,-3.76612e-06,0.000110449,-3.82481e-05,4
-2.73833e-05,1.64984e-05,1.26287e-06,0.000251731,1.87786e-05,-7.91907e-06,7.65107e-05,-5.56329e-05,4
-3.05635e-05,1.51484e-05,7.24091e-06,0.00033596,1.7399e-05,-1.1635e-05,4.4321e-05,-6.37807e-05,4
-3.25978e-05,1.30443e-05,9.6407e-06,0.000249644,1.28104e-05,-1.59772e-05,-9.35185e-08,-5.9915e-05,4
-3.28186e-05,1.08493e-05,7.72182e-06,-4.69657e-05,1.07158e-05,-1.96042e-05,-2.53739e-05,-4.78479e-05,4
-3.09088e-05,1.05798e-05,3.13988e-06,-0.000324738,1.32225e-05,-1.78825e-05,-2.502e-05,-3.37793e-05,4
-2.80339e-05,1.38398e-05,-8.07828e-07,-0.000361234,1.74651e-05,-1.01221e-05,-4.33736e-06,-2.25103e-05,4
-2.42784e-05,1.89926e-05,-7.57391e-07,-0.000205936,2.08157e-05,9.40444e-07,3.01153e-05,-1.43995e-05,4
-2.18984e-05,2.14663e-05,1.01315e-06,-8.56735e-05,2.09888e-05,7.79374e-06,5.32699e-05,-7.68364e-06,4
-2.17005e-05,2.16564e-05,2.0084e-06,-0.000122232,1.77644e-05,6.66665e-06,4.92095e-05,-1.79768e-06,4
-2.1874e-05,2.20659e-05,4.4294e-06,-0.000209055,1.46439e-05,8.72648e-07,2.4217e-05,3.30089e-06,4
-2.27364e-05,2.2595e-05,1.08525e-05,-0.000186986,1.71611e-05,-7.02265e-06,5.37246e-06,5.89993e-06,4
-2.33955e-05,2.52904e-05,1.94673e-05,-8.6812e-05,2.56927e-05,-1.12374e-05,2.05129e-05,6.55168e-06,4
-2.21035e-05,2.78061e-05,2.51266e-05,-0.000211706,3.562e-05,-1.04162e-05,4.34545e-05,7.47172e-06,4
-1.99553e-05,2.87044e-05,2.56677e-05,-0.000454969,4.052e-05,-9.61318e-06,4.35631e-05,9.60661e-06,4
-1.98638e-05,2.54882e-05,1.90305e-05,-0.000261877,3.86971e-05,-1.1768e-05,3.6124e-05,1.05499e-05,4
-2.18364e-05,1.92702e-05,3.5753e-06,0.00035639,3.57137e-05,-1.40752e-05,3.37956e-05,1.50963e-05,4
-2.46708e-05,1.3816e-05,-1.39266e-05,0.000770323,3.54251e-05,-1.28911e-05,2.55301e-05,2.98926e-05,4
