ch1,ch2,ch3,ch4,ch5,ch6,ch7,ch8,class
-2.54776e-05,2.46605e-05,5.78601e-05,-0.000662406,-7.73969e-07,-1.53245e-05,0.000117429,-0.000135276,4
-2.57884e-05,2.20344e-05,5.28286e-05,-0.000437903,-6.08438e-06,-1.73058e-05,0.00010538,-0.000144767,4
-2.63637e-05,1.98925e-05,4.29233e-05,0.00010076,-7.84386e-06,-1.51285e-05,6.82869e-05,-0.000120206,4
-2.78034e-05,1.85646e-05,2.42962e-05,0.000354663,-4.10755e-06,-8.66586e-06,3.33971e-05,-7.47027e-05,4
-3.08899e-05,1.52598e-05,1.4007e-06,2.47248e-05,6.28284e-08,-4.73603e-06,2.02151e-05,-3.72079e-05,4
-3.65662e-05,8.77331e-06,-1.5605e-05,-0.00039441,-4.19945e-07,-9.31595e-06,2.64279e-05,-2.08351e-05,4
-4.19089e-05,1.38736e-06,-2.40941e-05,-0.000363076,-2.19823e-06,-1.77274e-05,4.03851e-05,-2.05308e-05,4
-4.24683e-05,-7.01403e-07,-2.6637e-05,-5.46004e-05,-5.05746e-07,-2.00818e-05,7.21553e-05,-2.45318e-05,4
-3.83667e-05,1.54949e-06,-3.04363e-05,8.81639e-05,6.22498e-06,-1.61388e-05,0.000100761,-2.59601e-05,4
-3.27119e-05,3.86138e-06,-3.65026e-05,-4.90227e-05,1.54237e-05,-1.02266e-05,7.54352e-05,-2.56557e-05,4
-2.8572e-05,6.47973e-06,-3.97623e-05,-0.000229898,2.37214e-05,-3.63528e-06,4.54099e-06,-2.45505e-05,4
-2.59266e-05,9.02499e-06,-3.68502e-05,-0.000183446,2.80643e-05,3.01205e-06,-7.69621e-05,-2.31807e-05,4
-2.40609e-05,1.08235e-05,-2.99013e-05,1.00881e-05,2.46753e-05,8.3739e-06,-0.000143447,-2.06263e-05,4
-2.44532e-05,1.16328e-05,-2.3317e-05,0.000185287,1.72954e-05,1.09705e-05,-0.0001702,-1.76477e-05,4
-2.56186e-05,1.19423e-05,-1.74062e-05,0.000157887,1.41365e-05,9.18201e-06,-0.000146899,-1.43496e-05,4
-2.52229e-05,1.31095e-05,-6.11071e-06,-0.000148081,1.98808e-05,4.86835e-06,-6.68234e-05,-1.0642e-05,4
-2.35195e-05,1.56232e-05,1.03162e-05,-0.000466285,3.10207e-05,1.75479e-06,4.76771e-05,-6.14384e-06,4
-2.20901e-05,1.71013e-05,1.99459e-05,-0.000421658,3.98491e-05,1.22932e-06,0.000135269,-8.67092e-07,4
-2.23842e-05,1.69999e-05,1.72658e-05,-2.52323e-05,4.29795e-05,1.66819e-06,0.000156171,5.76034e-06,4
-2.34834e-05,1.63743e-05,9.12152e-06,0.000365314,4.1773e-05,1.81974e-06,0.000134354,1.28011e-05,4
-2.4412e-05,1.5391e-05,3.47223e-06,0.000486667,3.62688e-05,1.20862e-06,0.00011102,1.85414e-05,4
-2.7208e-05,1.23327e-05,-1.7338e-06,0.000401151,2.22828e-05,-2.69185e-06,9.18603e-05,2.22462e-05,4
-3.29773e-05,5.92347e-06,-1.17779e-05,0.000280881,1.25769e-06,-1.10808e-05,5.39541e-05,2.32184e-05,4
-3.81739e-05,3.86553e-07,-2.35046e-05,0.000115619,-1.55489e-05,-1.92585e-05,-1.15544e-05,2.18102e-05,4
-3.96055e-05,1.86856e-07,-2.94499e-05,-0.00011833,-2.0313e-05,-2.03703e-05,-8.17694e-05,1.96382e-05,4
-3.75783e-05,4.39351e-06,-2.78665e-05,-0.000334959,-1.72866e-05,-1.64339e-05,-0.000122338,1.82462e-05,4
-3.54626e-05,7.98797e-06,-2.22955e-05,-0.000429889,-1.26706e-05,-1.311e-05,-0.000116227,1.76128e-05,4
-3.503e-05,9.43024e-06,-1.60134e-05,-0.000357886,-5.56175e-06,-1.25352e-05,-6.9276e-05,1.77869e-05,4
-3.49182e-05,1.11031e-05,-7.91489e-06,-0.000138391,3.46137e-06,-1.34335e-05,-1.0229e-05,1.85775e-05,4
-3.35087e-05,1.50721e-05,1.63531e-06,0.000110382,1.09341e-05,-1.42002e-05,2.02603e-05,1.92441e-05,4
-3.23635e-05,1.95275e-05,6.30883e-06,0.000317523,1.51958e-05,-1.40723e-05,3.68944e-05,1.86263e-05,4
-3.21218e-05,2.07795e-05,3.7624e-06,0.00042203,1.71275e-05,-1.47115e-05,6.39132e-05,1.90757e-05,4
-3.22827e-05,1.78046e-05,-1.78383e-06,0.000336647,1.76906e-05,-1.79904e-05,6.44451e-05,1.89381e-05,4
-3.0641e-05,1.56897e-05,-5.30657e-06,1.6444e-05,1.80997e-05,-1.92388e-05,3.5876e-05,2.18106e-05,4
-2.75059e-05,1.80489e-05,-5.23344e-06,-0.000310117,1.89308e-05,-1.60789e-05,1.18881e-05,3.33929e-05,4
-2.70169e-05,2.08397e-05,-3.93948e-06,-0.000217197,1.73729e-05,-1.33587e-05,3.75068e-06,4.46249e-05,4
-2.79873e-05,2.23342e-05,-3.29327e-06,0.000308714,1.50353e-05,-1.33225e-05,6.20505e-06,5.28004e-05,4
-2.86887e-05,2.30616e-05,-1.06204e-06,0.000637417,1.47981e-05,-1.40438e-05,3.59784e-06,6.19364e-05,4
-2.84493e-05,2.19817e-05,3.56121e-06,0.000281548,1.37129e-05,-1.5124e-05,-1.41582e-05,6.7497e-05,4
-2.99832e-05,1.75466e-05,7.40935e-06,-0.000255042,8.48534e-06,-2.07827e-05,-3.93834e-05,6.325e-05,4
-3.46925e-05,1.01879e-05,7.46835e-06,-0.000320642,-3.8109e-07,-2.99999e-05,-5.2309e-05,5.3978e-05,4
-3.92517e-05,3.94962e-06,1.48141e-06,-1.21694e-06,-8.64364e-06,-3.52734e-05,-6.81619e-05,4.74929e-05,4
-4.04705e-05,7.79983e-07,-9.28671e-06,0.000194753,-1.1798e-05,-3.30224e-05,-0.000112625,4.6795e-05,4
-3.79646e-05,4.56863e-07,-1.96229e-05,-8.6079e-06,-8.97278e-06,-2.54028e-05,-0.00015771,4.97536e-05,4
-3.23991e-05,3.1817e-06,-2.5e-05,-0.000336248,-5.86251e-07,-1.36911e-05,-0.000147688,4.73409e-05,4
-2.6169e-05,7.64312e-06,-2.56088e-05,-0.000420716,1.00705e-05,4.03355e-07,-7.15556e-05,3.21455e-05,4
-2.26355e-05,1.15838e-05,-2.42107e-05,-0.000205574,1.75278e-05,1.18891e-05,3.11814e-05,2.72383e-06,4
-2.16324e-05,1.38412e-05,-2.166e-05,0.000124646,2.06949e-05,1.78593e-05,0.000112175,-3.40157e-05,4
-2.19496e-05,1.50073e-05,-1.69969e-05,0.000373657,2.30873e-05,1.63135e-05,0.000142166,-6.84349e-05,4
-2.29903e-05,1.38778e-05,-1.1162e-05,0.000443267,2.49427e-05,7.14924e-06,0.000117545,-9.21075e-05,4
-2.47732e-05,1.00726e-05,-6.29991e-06,0.000343252,2.30048e-05,-5.63565e-06,6.19112e-05,-9.67236e-05,4
-2.64658e-05,8.36019e-06,-3.424e-06,0.000151371,1.95288e-05,-1.3196e-05,1.93742e-05,-7.93326e-05,4
-2.76315e-05,1.07795e-05,-4.11543e-06,-5.34901e-05,1.85273e-05,-1.21855e-05,1.06758e-05,-5.01111e-05,4
-2.75657e-05,1.35307e-05,-6.85281e-06,-0.000187437,1.87398e-05,-8.24378e-06,1.27191e-05,-2.49075e-05,4
-2.66557e-05,1.50742e-05,-6.82862e-06,-0.000206451,1.76561e-05,-7.1957e-06,5.12184e-06,-1.0741e-05,4
-2.62676e-05,1.46565e-05,-4.17093e-06,-0.000153178,1.58172e-05,-9.9717e-06,1.97134e-06,-5.24878e-06,4
-2.79364e-05,1.11933e-05,-6.52519e-06,-0.000105421,1.39145e-05,-1.59758e-05,8.91272e-06,-7.32055e-06,4
-3.14128e-05,6.96312e-06,-1.61275e-05,2.40158e-06,1.18383e-05,-2.06498e-05,1.38115e-05,-1.72165e-05,4
-3.25704e-05,6.50792e-06,-2.52111e-05,0.000238519,1.03352e-05,-1.79764e-05,2.14521e-05,-2.9126e-05,4
-2.9114e-05,1.2644e-05,-2.65002e-05,0.000397159,1.34418e-05,-9.08002e-06,3.4211e-05,-3.99772e-05,4
-2.47758e-05,1.98925e-05,-2.24761e-05,0.000231772,2.09792e-05,-1.79962e-06,2.30658e-05,-4.80966e-05,4
-2.31257e-05,2.35265e-05,-1.51535e-05,-6.25548e-05,2.67026e-05,-1.96275e-06,-1.1641e-05,-4.95525e-05,4
-2.31097e-05,2.31678e-05,-5.22284e-06,-0.000219372,3.13027e-05,-5.38934e-06,-2.41885e-05,-4.36749e-05,4
-2.21402e-05,2.04231e-05,2.18473e-07,-0.000217576,3.67017e-05,-8.06941e-06,-3.37543e-06,-3.29709e-05,4
-2.01471e-05,1.89429e-05,-2.93735e-07,-7.21792e-05,3.78312e-05,-7.50628e-06,1.5272e-05,-2.20545e-05,4
-2.11896e-05,1.86006e-05,-4.1977e-06,7.0783e-05,2.96348e-05,-4.55545e-06,1.73422e-05,-1.2779e-05,4
-2.53151e-05,1.82454e-05,-7.60174e-06,4.3077e-05,1.73486e-05,-2.83107e-06,2.49914e-05,-5.3228e-06,4
-2.94587e-05,1.67548e-05,-9.85581e-06,-0.00022506,8.40715e-06,-3.86452e-06,3.53103e-05,-3.72613e-07,4
-3.20634e-05,1.44219e-05,-8.80736e-06,-0.00049601,2.47757e-06,-6.81087e-06,3.15494e-05,1.61024e-06,4
-3.30606e-05,1.20985e-05,-6.08682e-06,-0.000471592,-3.61621e-06,-8.07995e-06,3.39833e-05,8.64196e-07,4
-3.42378e-05,8.86421e-06,-1.01778e-05,-0.000205921,-9.8391e-06,-8.18704e-06,5.84105e-05,-7.42409e-07,4
-3.56912e-05,4.69411e-06,-1.86998e-05,4.18267e-05,-1.08988e-05,-9.87494e-06,6.47047e-05,-6.13018e-07,4
-3.62071e-05,3.31053e-06,-2.14364e-05,0.000120716,-4.23631e-06,-1.14004e-05,2.70357e-05,1.08389e-06,4
-3.51421e-05,6.17755e-06,-1.59194e-05,8.37747e-05,5.28851e-06,-1.1028e-05,-1.9165e-05,2.01725e-06,4
-3.39426e-05,9.45429e-06,-9.2433e-06,2.85119e-05,1.06102e-05,-1.0851e-05,-3.66292e-05,2.66261e-06,4
-3.46001e-05,1.03856e-05,-5.53709e-06,5.44925e-05,1.06292e-05,-1.25222e-05,-2.57595e-05,3.70862e-06,4
-3.61031e-05,1.04679e-05,-1.66512e-06,0.000123218,8.88569e-06,-1.54167e-05,-7.37935e-06,5.77533e-06,4
-3.61101e-05,1.15954e-05,6.68221e-06,6.27595e-05,7.5573e-06,-1.78805e-05,7.47642e-06,9.6823e-06,4
-3.46922e-05,1.35714e-05,1.82344e-05,-0.000122771,7.26881e-06,-1.82275e-05,2.01924e-05,1.64645e-05,4
-3.28168e-05,1.58876e-05,3.00667e-05,-0.000169358,9.89271e-06,-1.52598e-05,2.97828e-05,2.49992e-05,4
-3.0387e-05,1.75154e-05,3.7591e-05,2.40397e-05,1.41317e-05,-1.13401e-05,2.84823e-05,3.31992e-05,4
-2.80515e-05,1.83794e-05,3.77663e-05,0.000258531,1.67173e-05,-1.02151e-05,2.18548e-05,4.26742e-05,4
-2.74742e-05,1.86145e-05,3.09248e-05,0.000261791,1.66862e-05,-1.29752e-05,2.64858e-05,5.16818e-05,4
-3.07488e-05,1.66584e-05,1.79081e-05,-3.29605e-05,1.54899e-05,-1.63099e-05,4.55471e-05,5.24248e-05,4
-3.48713e-05,1.30118e-05,1.71485e-06,-0.000420998,1.46565e-05,-1.51009e-05,6.71659e-05,4.38753e-05,4
-3.52537e-05,1.04645e-05,-1.28243e-05,-0.000636751,1.48583e-05,-7.66683e-06,8.0406e-05,3.33193e-05,4
-3.38461e-05,9.37841e-06,-1.88162e-05,-0.000524035,1.48875e-05,3.10076e-06,7.55873e-05,2.39885e-05,4
-3.33878e-05,1.01993e-05,-1.57315e-05,-0.000236719,1.26754e-05,7.71561e-06,5.02081e-05,1.50953e-05,4
-3.21586e-05,1.16816e-05,-1.21902e-05,-2.22259e-05,1.22822e-05,3.0035e-06,5.66474e-06,6.61029e-06,4
-2.9192e-05,1.33272e-05,-9.70526e-06,7.54854e-05,1.43657e-05,-3.89504e-06,-4.55319e-05,-2.61771e-06,4
-2.59066e-05,1.50807e-05,-4.06231e-06,0.000125711,1.62756e-05,-7.04317e-06,-7.12409e-05,-9.62129e-06,4
-2.45861e-05,1.55948e-05,3.16307e-07,0.000199082,1.59902e-05,-7.3189e-06,-6.55264e-05,-1.18136e-05,4
-2.58609e-05,1.46389e-05,-2.78445e-06,0.000227144,1.56912e-05,-8.20049e-06,-4.99157e-05,-1.19867e-05,4
-2.64883e-05,1.38935e-05,-6.95863e-06,0.000117375,1.80067e-05,-7.9699e-06,-3.59678e-05,-1.21984e-05,4
-2.62071e-05,1.36207e-05,-4.73417e-06,2.90773e-05,1.99869e-05,-8.25846e-06,-2.52924e-05,-1.31461e-05,4
-2.63825e-05,1.12553e-05,-3.17003e-07,0.00012242,1.89373e-05,-1.11892e-05,-1.62424e-05,-1.34289e-05,4
-2.67047e-05,9.50237e-06,5.24738e-08,0.000262497,1.49239e-05,-1.584e-05,-9.1803e-06,-1.23771e-05,4
-2.65205e-05,1.13008e-05,-2.93207e-06,0.000274873,1.18307e-05,-1.84547e-05,-4.96474e-06,-1.06646e-05,4
-2.58894e-05,1.47971e-05,-5.31387e-06,0.000170207,1.26705e-05,-1.52846e-05,-1.61275e-06,-7.68309e-06,4
-2.4791e-05,1.74565e-05,-5.32683e-06,3.30616e-05,1.6238e-05,-8.09563e-06,5.75703e-06,-1.66029e-06,4
-2.42646e-05,1.82207e-05,-5.97212e-06,-3.56545e-05,1.82158e-05,-1.98477e-06,1.55265e-05,5.98525e-06,4
-2.53918e-05,1.67532e-05,-1.03314e-05,1.26214e-06,1.74688e-05,-1.62123e-06,1.6176e-05,1.13879e-05,4
-2.73977e-05,1.45519e-05,-1.48855e-05,1.96594e-05,1.66257e-05,-6.66979e-06,-9.32183e-07,1.41398e-05,4
-3.04001e-05,1.27993e-05,-1.57262e-05,-8.29231e-05,1.67675e-05,-1.55066e-05,-3.92544e-05,1.90159e-05,4
-3.49467e-05,1.08263e-05,-1.33549e-05,-0.000181239,1.50966e-05,-2.69474e-05,-9.03537e-05,2.74308e-05,4
-3.95628e-05,8.16701e-06,-1.35586e-05,-0.000123407,1.02065e-05,-3.54149e-05,-0.00011983,3.32215e-05,4
-4.16129e-05,6.27113e-06,-1.83777e-05,7.20638e-05,5.83201e-06,-3.46837e-05,-8.93097e-05,3.25967e-05,4
-4.12209e-05,6.19205e-06,-2.06501e-05,0.000305515,6.20388e-06,-2.86253e-05,-4.90149e-06,2.78273e-05,4
-4.03562e-05,6.37251e-06,-1.74805e-05,0.000504221,8.73664e-06,-2.3378e-05,7.66745e-05,2.07348e-05,4
-4.03765e-05,6.33858e-06,-1.46227e-05,0.000589842,8.86267e-06,-2.32099e-05,9.9646e-05,1.31473e-05,4
-3.90007e-05,7.27056e-06,-1.29496e-05,0.000366738,7.8473e-06,-2.66956e-05,8.07381e-05,5.54938e-06,4
-3.51487e-05,9.28372e-06,-1.4087e-05,-0.000143959,1.00417e-05,-2.35161e-05,7.3128e-05,-4.59646e-06,4
-3.02577e-05,1.08332e-05,-1.7989e-05,-0.000417891,1.79859e-05,-7.55863e-06,7.60662e-05,-1.4924e-05,4
-2.62603e-05,1.28876e-05,-1.96369e-05,-0.000148646,2.83943e-05,1.44602e-05,4.77965e-05,-2.13914e-05,4
-2.50284e-05,1.67149e-05,-1.70091e-05,0.000154127,3.33272e-05,2.62573e-05,-1.64268e-05,-2.30861e-05,4
-2.5664e-05,1.83658e-05,-1.18978e-05,-1.50619e-05,3.20519e-05,2.75635e-05,-7.61799e-05,-2.28847e-05,4
-2.81222e-05,1.42784e-05,-9.94487e-06,-0.000314454,2.52626e-05,2.44815e-05,-0.000105338,-2.2834e-05,4
-3.15831e-05,8.00424e-06,-9.41673e-06,-0.000302715,1.5271e-05,1.45557e-05,-9.532e-05,-1.93054e-05,4
-3.22002e-05,5.41148e-06,-7.45762e-06,-2.46329e-05,1.1662e-05,2.20977e-06,-2.61085e-05,-1.3663e-05,4
-3.06729e-05,5.49568e-06,-7.24047e-06,0.000186301,1.18499e-05,-5.72608e-06,8.27199e-05,-9.02541e-06,4
-3.13236e-05,5.09486e-06,-1.21124e-05,6.1669e-05,8.81552e-06,-6.05337e-06,0.000156208,-7.36197e-06,4
-3.36194e-05,5.04961e-06,-2.00242e-05,-0.000196282,3.55238e-06,-5.09927e-06,0.000168655,-8.47464e-06,4
-3.41546e-05,5.5922e-06,-2.50158e-05,-0.000284327,7.00937e-07,-6.36315e-06,0.000156347,-8.29817e-06,4
-3.22178e-05,6.05329e-06,-2.51663e-05,-0.000168039,3.64148e-07,-9.05913e-06,0.00014225,-7.20029e-06,4
-2.99661e-05,6.37544e-06,-2.10204e-05,-3.37195e-05,7.73612e-08,-1.20107e-05,0.000133033,-6.84007e-06,4
-2.88076e-05,6.77603e-06,-1.43596e-05,-4.42219e-05,4.40151e-07,-1.41668e-05,0.000126919,-7.85167e-06,4
-2.80394e-05,7.40243e-06,-7.61807e-06,-0.000168098,4.43707e-06,-1.37181e-05,0.000102909,-9.11284e-06,4
-2.75051e-05,8.01173e-06,-4.23492e-06,-0.000273306,1.14965e-05,-9.78364e-06,4.93199e-05,-9.69499e-06,4
-2.8038e-05,8.3457e-06,-5.01901e-06,-0.000307483,1.66653e-05,-5.7448e-06,-7.59063e-06,-8.2741e-06,4
-2.97421e-05,8.32499e-06,-7.20096e-06,-0.000273455,1.76547e-05,-4.8068e-06,-3.16542e-05,-4.96207e-06,4
-3.2405e-05,7.02208e-06,-9.03584e-06,-0.000133306,1.54438e-05,-8.4589e-06,-1.99501e-05,-1.35324e-06,4
-3.38757e-05,4.51693e-06,-1.01384e-05,5.82744e-05,1.35722e-05,-1.2465e-05,4.13425e-07,1.10691e-06,4
-3.32215e-05,3.52212e-06,-1.09102e-05,0.000165341,1.40968e-05,-1.30914e-05,6.56104e-06,1.77195e-06,4
-3.22192e-05,5.52021e-06,-1.07394e-05,0.000161526,1.56418e-05,-1.09533e-05,-3.3698e-06,3.04317e-06,4
-3.1214e-05,8.30532e-06,-9.88993e-06,0.000125505,1.64733e-05,-1.09708e-05,-2.36342e-05,8.3649e-06,4
-3.02406e-05,9.39738e-06,-1.20253e-05,9.59545e-05,1.50696e-05,-1.31634e-05,-5.1789e-05,1.7073e-05,4
-3.08802e-05,8.782e-06,-1.87545e-05,7.36443e-05,1.19481e-05,-1.51443e-05,-9.02554e-05,2.18355e-05,4
-3.32556e-05,9.32993e-06,-2.41326e-05,5.69493e-05,1.19089e-05,-1.54924e-05,-0.000143159,1.77621e-05,4
-3.43611e-05,1.24864e-05,-1.90334e-05,5.91726e-05,1.37686e-05,-1.19885e-05,-0.000179215,8.23093e-06,4
-3.31081e-05,1.60999e-05,-7.49964e-07,7.51211e-05,1.56911e-05,-7.09239e-06,-0.000140898,-8.7872e-07,4
-3.09525e-05,1.85064e-05,2.045e-05,5.78918e-05,1.92994e-05,-7.7894e-06,-1.38146e-05,-7.93014e-06,4
-2.93419e-05,1.84717e-05,2.83114e-05,-1.98797e-05,2.45511e-05,-1.1219e-05,9.43984e-05,-1.19624e-05,4
-2.95296e-05,1.84183e-05,2.38155e-05,-4.35591e-05,2.99644e-05,-1.27531e-05,9.54467e-05,-1.32424e-05,4
-2.99384e-05,1.88976e-05,2.04999e-05,9.28157e-05,3.13349e-05,-1.28537e-05,6.13632e-05,-1.33656e-05,4
-2.94621e-05,1.76579e-05,2.0364e-05,0.000201236,2.75574e-05,-1.33852e-05,5.44935e-05,-1.22674e-05,4
-2.87056e-05,1.66515e-05,1.94196e-05,-1.35026e-05,2.26094e-05,-1.42624e-05,6.174e-05,-9.60076e-06,4
-2.78566e-05,1.63375e-05,1.15845e-05,-0.000445406,1.93422e-05,-1.28982e-05,5.885e-05,-5.58038e-06,4
-2.69995e-05,1.55609e-05,-5.32402e-07,-0.000669952,1.99175e-05,-1.01573e-05,8.20393e-05,-2.4167e-06,4
-2.74997e-05,1.39888e-05,-1.12928e-05,-0.000423312,2.23282e-05,-8.3543e-06,0.000124102,2.75724e-06,4
-3.01531e-05,1.17533e-05,-1.73813e-05,0.000109979,2.29582e-05,-8.77236e-06,0.000128561,1.38688e-05,4
-3.25992e-05,9.14001e-06,-1.69562e-05,0.000455443,1.99994e-05,-1.00554e-05,0.000105154,2.78059e-05,4
-3.4268e-05,7.2142e-06,-1.63053e-05,0.000462538,1.34927e-05,-1.19686e-05,9.02251e-05,3.87194e-05,4
-3.51892e-05,6.47771e-06,-1.87325e-05,0.000316048,8.61945e-06,-1.27949e-05,9.40039e-05,4.32149e-05,4
-3.53249e-05,7.0059e-06,-2.12463e-05,0.000241859,9.53311e-06,-1.28785e-05,8.92095e-05,4.33587e-05,4
-3.31913e-05,8.53971e-06,-1.96508e-05,0.000292572,1.71145e-05,-1.26789e-05,5.38778e-05,4.28672e-05,4
-2.92647e-05,1.05632e-05,-1.61453e-05,0.000343198,2.73561e-05,-1.24133e-05,-1.05128e-05,4.41654e-05,4
-2.59054e-05,1.31265e-05,-1.43942e-05,0.00033093,3.44512e-05,-1.17155e-05,-6.13576e-05,4.3834e-05,4
-2.41449e-05,1.49676e-05,-1.45249e-05,0.000320784,3.49164e-05,-1.02868e-05,-6.56004e-05,3.6838e-05,4
-2.40724e-05,1.56051e-05,-1.12928e-05,0.000333717,2.99007e-05,-9.43386e-06,-2.69521e-05,2.25704e-05,4
-2.56795e-05,1.52897e-05,-2.12833e-06,0.000265917,2.03293e-05,-1.19445e-05,2.60916e-05,3.38742e-06,4
-2.89382e-05,1.39203e-05,6.51445e-06,4.87106e-05,6.84737e-06,-1.70605e-05,6.65865e-05,-1.74403e-05,4
-3.15568e-05,1.21184e-05,6.57431e-06,-0.000285481,-4.7121e-06,-2.07436e-05,7.06991e-05,-3.50101e-05,4
-3.07371e-05,1.20928e-05,1.10835e-06,-0.00060625,-7.17029e-06,-1.99511e-05,3.15025e-05,-4.58236e-05,4
-2.65094e-05,1.5461e-05,-3.59743e-07,-0.000754377,-2.7701e-06,-1.51122e-05,-2.53553e-05,-4.95238e-05,4
-2.43796e-05,2.02352e-05,6.4435e-06,-0.000661475,-5.19056e-07,-1.30339e-05,-5.56901e-05,-4.68366e-05,4
-2.52839e-05,2.31057e-05,1.87541e-05,-0.000394687,1.0836e-06,-1.63786e-05,-4.72998e-05,-3.96065e-05,4
-2.61414e-05,2.26173e-05,2.89825e-05,4.47022e-05,5.85834e-06,-2.29129e-05,-2.39868e-05,-2.91836e-05,4
-2.85421e-05,1.73088e-05,3.09844e-05,0.000782193,8.03651e-06,-3.01511e-05,9.85947e-06,-1.88999e-05,4
-3.18032e-05,9.70152e-06,2.28307e-05,0.001393,5.39751e-06,-3.5819e-05,3.31503e-05,-1.25952e-05,4
-3.25408e-05,5.82169e-06,1.1916e-05,0.00104451,7.21414e-06,-3.51909e-05,2.09834e-05,-1.07459e-05,4
-3.108e-05,5.54131e-06,3.85005e-06,-0.000151109,1.57499e-05,-2.67646e-05,-1.14093e-05,-1.17654e-05,4
-2.93022e-05,6.23947e-06,-3.62454e-06,-0.000963515,2.1859e-05,-1.50434e-05,-3.42586e-05,-1.35029e-05,4
-2.82571e-05,8.19953e-06,-1.09649e-05,-0.000609524,2.26657e-05,-3.11916e-06,-2.7029e-05,-1.47624e-05,4
-2.61778e-05,1.20063e-05,-1.28835e-05,0.000294622,2.22928e-05,7.14436e-06,8.36392e-07,-1.71006e-05,4
-2.32952e-05,1.57589e-05,-1.03237e-05,0.00067503,2.50279e-05,1.41956e-05,9.10722e-06,-1.99935e-05,4
-2.27415e-05,1.57426e-05,-1.57871e-05,0.000197272,2.76632e-05,1.57384e-05,-2.27505e-05,-2.26935e-05,4
-2.58156e-05,1.17304e-05,-3.26487e-05,-0.000442728,2.71248e-05,1.28505e-05,-7.25996e-05,-2.33571e-05,4
-2.85545e-05,7.21807e-06,-4.82277e-05,-0.000676009,2.59204e-05,1.22575e-05,-0.000106602,-2.11116e-05,4
-2.89235e-05,5.04704e-06,-5.03402e-05,-0.000624273,2.65356e-05,1.38137e-05,-9.87074e-05,-1.80736e-05,4
-2.82055e-05,4.68247e-06,-4.34025e-05,-0.000573708,2.85139e-05,1.17983e-05,-3.8221e-05,-1.56768e-05,4
-2.69944e-05,5.85338e-06,-3.75489e-05,-0.000516895,2.81885e-05,6.23331e-06,3.3e-05,-1.32143e-05,4
-2.62709e-05,8.45098e-06,-3.5865e-05,-0.000336401,2.35425e-05,1.18528e-06,5.61455e-05,-8.49365e-06,4
-2.54924e-05,1.16129e-05,-3.52527e-05,-0.00011967,1.56827e-05,9.27822e-09,3.42499e-05,-1.93429e-06,4
-2.4091e-05,1.51438e-05,-3.18008e-05,2.44227e-05,9.97994e-06,4.04655e-06,9.85385e-06,4.08293e-06,4
-2.25345e-05,1.84633e-05,-2.63247e-05,5.38226e-05,8.39726e-06,9.73063e-06,-1.35043e-06,1.36143e-05,4
-2.29412e-05,2.00184e-05,-2.21737e-05,3.42251e-05,7.47411e-06,9.71196e-06,-7.02259e-07,3.68512e-05,4
-2.58e-05,1.84696e-05,-2.16178e-05,2.81162e-06,4.40252e-06,2.00557e-06,1.08834e-05,6.9579e-05,4
-2.96952e-05,1.61107e-05,-2.17795e-05,-8.7194e-06,1.02716e-06,-6.90981e-06,2.54479e-05,9.54036e-05,4
-3.25337e-05,1.52507e-05,-1.82626e-05,-3.47104e-05,-5.926e-07,-1.09065e-05,3.4473e-05,0.000107152,4
-3.42207e-05,1.65798e-05,-1.25573e-05,-0.000141491,-1.43893e-06,-1.24971e-05,3.89067e-05,0.000105859,4
-3.54191e-05,1.86406e-05,-1.00969e-05,-0.000408214,-3.99697e-06,-1.4442e-05,5.68337e-05,9.3746e-05,4
-3.63782e-05,1.93823e-05,-9.94554e-06,-0.000617916,-5.30323e-06,-1.61574e-05,0.00010085,7.56915e-05,4
-3.63834e-05,1.75088e-05,-8.8405e-06,-0.000443698,-1.80553e-06,-1.72975e-05,0.000126853,5.33514e-05,4
-3.52593e-05,1.47313e-05,-5.36923e-06,-3.73857e-05,3.63593e-06,-1.71389e-05,9.00824e-05,2.74518e-05,4
-3.24814e-05,1.58596e-05,4.01337e-06,0.000252327,9.70817e-06,-1.50492e-05,1.20747e-05,-1.34404e-06,4
-2.94781e-05,2.03083e-05,2.28145e-05,0.000302419,1.58351e-05,-1.21469e-05,-4.03086e-05,-2.55279e-05,4
-2.78269e-05,2.43861e-05,4.5567e-05,0.000261783,1.95558e-05,-1.30844e-05,-4.45277e-05,-4.02075e-05,4
-2.74077e-05,2.63126e-05,5.76521e-05,0.000416386,2.05484e-05,-1.76584e-05,-3.08441e-05,-5.72352e-05,4
-2.65748e-05,2.75683e-05,5.40911e-05,0.00079559,2.08858e-05,-2.06504e-05,-1.36862e-05,-7.8866e-05,4
-2.39e-05,2.86259e-05,4.20511e-05,0.00113849,2.21191e-05,-2.02714e-05,-9.70553e-06,-8.58907e-05,4
-2.35129e-05,2.7156e-05,2.82624e-05,0.00128724,2.30013e-05,-2.24596e-05,-2.10526e-05,-6.78287e-05,4
-2.64795e-05,2.3183e-05,2.03432e-05,0.0013584,2.1804e-05,-2.67925e-05,-3.54878e-05,-3.8546e-05,4
-3.04096e-05,1.72647e-05,1.82591e-05,0.00144512,1.98449e-05,-2.74159e-05,-3.21115e-05,-1.35327e-05,4
-3.36882e-05,1.05085e-05,1.15254e-05,0.00129253,1.48015e-05,-2.53655e-05,-1.72828e-05,-5.04118e-07,4
-3.65198e-05,5.10663e-06,-6.12903e-06,0.000386079,5.15987e-06,-2.14075e-05,-1.08083e-05,-1.7638e-06,4
-3.69803e-05,3.7449e-06,-2.85203e-05,-0.00107844,-9.37085e-07,-1.35024e-05,-4.86919e-06,-2.03694e-05,4
-3.38421e-05,6.59322e-06,-4.66898e-05,-0.00199572,4.65167e-06,-1.54571e-07,2.01418e-05,-5.3204e-05,4
-2.93425e-05,1.09084e-05,-5.5109e-05,-0.00174376,1.53122e-05,1.34476e-05,5.94469e-05,-8.90646e-05,4
-2.63797e-05,1.2843e-05,-5.48266e-05,-0.000824671,1.7097e-05,1.9176e-05,8.16853e-05,-0.000112133,4
-2.71892e-05,1.09573e-05,-5.35353e-05,-0.000223281,6.84973e-06,1.29684e-05,7.87808e-05,-0.00010839,4
-3.02348e-05,7.99835e-06,-5.19973e-05,-0.000272343,-5.09986e-06,9.99474e-07,6.90468e-05,-7.91685e-05,4
-3.17493e-05,6.85881e-06,-4.51671e-05,-0.000545773,-8.36127e-06,-8.03848e-06,6.66896e-05,-4.08459e-05,4
-3.08461e-05,7.75882e-06,-3.44898e-05,-0.000595485,-3.07768e-06,-1.23321e-05,5.72776e-05,-1.25043e-05,4
-3.03485e-05,8.41731e-06,-2.78156e-05,-0.000435292,5.37419e-06,-1.53201e-05,2.96653e-05,1.12798e-06,4
-3.13493e-05,8.22643e-06,-2.57656e-05,-0.000257553,1.27527e-05,-1.77679e-05,-5.04659e-06,8.3948e-06,4
-3.23745e-05,8.82192e-06,-2.37239e-05,-0.000148543,1.54778e-05,-1.58567e-05,-3.02991e-05,1.76503e-05,4
-3.23116e-05,1.07878e-05,-1.91351e-05,-9.19561e-05,1.34413e-05,-1.02734e-05,-3.80805e-05,2.93431e-05,4
-3.16087e-05,1.28286e-05,-1.2956e-05,-4.74985e-05,1.18986e-05,-5.00786e-06,-2.58198e-05,3.94784e-05,4
-3.02443e-05,1.36471e-05,-7.49287e-06,-3.44532e-06,1.42227e-05,-3.21836e-06,-6.33867e-06,3.98069e-05,4
-2.88841e-05,1.36983e-05,-4.89307e-06,3.43261e-05,1.75726e-05,-6.94906e-06,1.10578e-05,2.79864e-05,4
-2.79654e-05,1.5596e-05,-3.80935e-06,5.28379e-05,1.81189e-05,-1.28023e-05,2.32081e-05,9.88301e-06,4
-2.79165e-05,1.86889e-05,-3.04644e-06,6.04404e-05,1.72871e-05,-1.63612e-05,2.66533e-05,-9.03039e-06,4
-2.75954e-05,1.89273e-05,-3.26913e-06,6.49211e-05,1.74178e-05,-1.81423e-05,1.72548e-05,-2.29513e-05,4
-2.64381e-05,1.68916e-05,-2.77698e-06,6.27575e-05,1.71046e-05,-1.8483e-05,-6.32389e-06,-2.69993e-05,4
-2.6352e-05,1.59299e-05,-2.74275e-06,-6.07241e-05,1.55292e-05,-1.66146e-05,-3.72727e-05,-2.22264e-05,4
-2.58918e-05,1.62194e-05,-2.71356e-06,-0.000297596,1.31087e-05,-1.35897e-05,-7.11364e-05,-9.25501e-06,4
-2.51602e-05,1.79763e-05,3.17533e-06,-0.000363761,1.18136e-05,-1.18265e-05,-9.08922e-05,8.6571e-06,4
-2.43767e-05,2.04655e-05,1.1485e-05,-0.000140719,1.43712e-05,-9.44792e-06,-8.73506e-05,2.22479e-05,4
-2.31108e-05,2.26201e-05,1.57062e-05,0.000128446,2.03749e-05,-3.85315e-06,-6.55978e-05,2.90665e-05,4
-2.2258e-05,2.40658e-05,2.08038e-05,0.000219611,2.61376e-05,8.54796e-07,-4.71116e-05,3.00244e-05,4
-2.25132e-05,2.47836e-05,3.29827e-05,0.000113524,2.86264e-05,-4.18678e-07,-3.62666e-05,2.63337e-05,4
-2.39113e-05,2.48583e-05,4.52218e-05,-2.53895e-05,2.71435e-05,-5.0317e-06,-2.77895e-05,2.16581e-05,4
-2.56444e-05,2.28626e-05,4.43451e-05,-4.35954e-05,2.15306e-05,-9.7115e-06,-4.6636e-05,2.08302e-05,4
-2.77013e-05,1.89885e-05,3.03795e-05,6.14062e-05,1.44045e-05,-1.2851e-05,-6.73547e-05,2.53134e-05,4
-2.82142e-05,1.65529e-05,1.51987e-05,0.000202797,1.02413e-05,-1.34837e-05,-2.23043e-05,2.97196e-05,4
-2.6274e-05,1.73029e-05,7.93237e-06,0.000305854,1.04462e-05,-1.17776e-05,8.5271e-05,2.94023e-05,4
-2.44271e-05,1.83946e-05,5.64552e-06,0.000349066,1.10649e-05,-9.08997e-06,0.000184286,2.56204e-05,4
-2.54823e-05,1.65794e-05,-1.29284e-08,0.000386105,8.80802e-06,-7.66946e-06,0.000231817,2.11588e-05,4
-2.97914e-05,1.19265e-05,-1.10265e-05,0.000459943,5.26713e-06,-8.41762e-06,0.000232446,1.81047e-05,4
-3.47209e-05,7.4745e-06,-1.80873e-05,0.000478471,4.22329e-06,-1.08666e-05,0.000193632,1.67832e-05,4
-3.69622e-05,4.86282e-06,-1.33157e-05,0.000364394,5.77448e-06,-1.31285e-05,0.000131091,1.55115e-05,4
-3.59288e-05,4.84446e-06,-9.62894e-07,0.000192364,6.54579e-06,-1.4322e-05,7.65397e-05,1.16948e-05,4
-3.38175e-05,7.43199e-06,7.1773e-06,3.96504e-05,6.52122e-06,-1.49456e-05,4.98574e-05,5.02775e-06,4
-3.20928e-05,1.13114e-05,6.54973e-06,-4.79348e-05,6.95088e-06,-1.71705e-05,4.54103e-05,-1.89392e-06,4
-3.15657e-05,1.45495e-05,6.25081e-06,-1.06258e-05,5.75687e-06,-2.15783e-05,4.9385e-05,-6.68513e-06,4
-3.3113e-05,1.56094e-05,1.07875e-05,5.64017e-05,1.84468e-06,-2.47635e-05,4.87351e-05,-7.81122e-06,4
-3.57793e-05,1.40257e-05,1.18685e-05,7.16108e-05,-2.40871e-06,-2.44695e-05,4.24751e-05,-5.70547e-06,4
-3.76707e-05,1.11743e-05,6.44398e-06,7.84909e-05,-5.8853e-06,-2.06644e-05,4.59967e-05,-2.27767e-06,4
-3.71623e-05,1.04228e-05,1.83432e-06,-3.51485e-05,-5.37834e-06,-1.28636e-05,6.31917e-05,1.2305e-06,4
-3.55525e-05,1.09578e-05,-2.40194e-06,-0.00033134,8.01319e-07,-4.56906e-06,6.92313e-05,2.5318e-06,4
-3.5487e-05,1.02308e-05,-1.13972e-05,-0.000496286,1.20648e-05,-3.36718e-07,4.55474e-05,3.35228e-06,4
-3.60145e-05,9.27103e-06,-1.92665e-05,-0.00020756,2.43267e-05,-2.04453e-06,-2.36146e-06,6.06807e-06,4
-3.70227e-05,7.73095e-06,-2.21699e-05,0.000333586,3.23469e-05,-8.20116e-06,-5.20973e-05,9.11293e-06,4
-3.80054e-05,6.40408e-06,-2.2515e-05,0.000724464,3.85168e-05,-1.40754e-05,-8.6194e-05,1.18541e-05,4
-3.65715e-05,5.49593e-06,-2.39312e-05,0.000763133,4.09801e-05,-1.4929e-05,-0.000112945,1.55577e-05,4
-3.44941e-05,4.31662e-06,-3.075e-05,0.000386556,3.69559e-05,-8.88905e-06,-0.00012397,2.12262e-05,4
-3.32324e-05,5.39924e-06,-4.08659e-05,-0.000135148,2.83277e-05,1.21186e-06,-9.85962e-05,2.62898e-05,4
-3.33099e-05,7.47905e-06,-4.97942e-05,-0.000405906,1.88744e-05,8.33262e-06,-3.66351e-05,2.81021e-05,4
-3.5973e-05,7.70023e-06,-5.46588e-05,-0.000367863,9.64673e-06,8.15271e-06,3.49308e-05,2.52238e-05,4
-3.91726e-05,6.22706e-06,-5.51084e-05,-0.000254307,1.05348e-07,3.38029e-06,8.14517e-05,1.94878e-05,4
-4.00237e-05,5.19202e-06,-5.09755e-05,-0.000227222,-7.06769e-06,-4.28885e-07,8.59811e-05,1.43002e-05,4
-3.82086e-05,6.06115e-06,-4.27474e-05,-0.000257991,-8.5469e-06,-2.05683e-06,4.20682e-05,1.09262e-05,4
-3.67883e-05,8.24097e-06,-3.1804e-05,-0.000250651,-3.67325e-06,-3.38551e-06,-3.82912e-05,8.5414e-06,4
-3.77707e-05,9.31431e-06,-2.28285e-05,-0.000168819,3.39682e-06,-4.88418e-06,-0.000122058,5.52833e-06,4
-3.97983e-05,6.9819e-06,-2.0325e-05,-3.70586e-05,8.26805e-06,-7.50874e-06,-0.000173742,2.18139e-06,4
-3.96807e-05,3.60234e-06,-2.07229e-05,9.34166e-05,9.83776e-06,-1.02711e-05,-0.000165477,-3.86398e-07,4
-3.66674e-05,3.16435e-06,-1.73683e-05,0.000123942,1.04142e-05,-1.01444e-05,-8.52873e-05,-2.03904e-06,4
-3.28189e-05,5.80807e-06,-1.09571e-05,-4.0405e-06,1.24232e-05,-7.26954e-06,3.52417e-05,-3.37054e-06,4
-3.06954e-05,9.15227e-06,-5.21016e-06,-0.000172467,1.62251e-05,-5.93165e-06,0.000111956,-5.24445e-06,4
-3.09095e-05,1.10574e-05,9.47204e-07,-0.000247831,1.87758e-05,-8.58091e-06,8.98728e-05,-6.84409e-06,4
-3.03884e-05,1.12958e-05,8.09874e-06,-0.00029527,1.82922e-05,-1.18496e-05,2.5451e-05,-6.56091e-06,4
-2.79742e-05,1.16956e-05,1.28052e-05,-0.00028929,1.56856e-05,-1.0181e-05,6.43052e-06,-4.59119e-06,4
-2.64655e-05,1.41023e-05,1.62769e-05,-0.000103404,1.52379e-05,-4.59532e-06,4.22182e-05,-2.874e-06,4
-2.63878e-05,1.75791e-05,2.40003e-05,0.000238855,1.85832e-05,4.91259e-07,8.02014e-05,-2.81114e-06,4
-2.60277e-05,1.901e-05,3.10273e-05,0.000554614,2.34365e-05,1.27496e-06,8.21328e-05,-2.59459e-06,4
-2.61418e-05,1.75652e-05,3.11327e-05,0.00068322,2.70566e-05,-5.36033e-06,5.05267e-05,-2.31492e-06,4
-2.64843e-05,1.53565e-05,2.86752e-05,0.000827384,2.546e-05,-1.51272e-05,2.5558e-06,-2.77605e-06,4
-2.69142e-05,1.39697e-05,2.69743e-05,0.00108522,2.29141e-05,-2.16746e-05,-5.75023e-05,-2.51455e-06,4
-2.67124e-05,1.29694e-05,1.91444e-05,0.000862497,2.70282e-05,-2.35836e-05,-0.000123003,-8.00697e-07,4
-2.65368e-05,1.14131e-05,2.97953e-06,-3.39998e-05,3.15663e-05,-2.05581e-05,-0.000161519,4.12822e-06,4
-2.8788e-05,9.44264e-06,-1.47676e-05,-0.000835114,2.67101e-05,-1.5722e-05,-0.000137833,1.07057e-05,4
-3.4149e-05,6.90865e-06,-2.79866e-05,-0.00104405,1.28381e-05,-1.4061e-05,-2.52303e-05,1.72883e-05,4
-3.87986e-05,4.39553e-06,-3.36646e-05,-0.000798393,6.55588e-07,-1.57336e-05,0.00013254,2.40428e-05,4
-3.77933e-05,3.77727e-06,-3.1369e-05,-0.000455308,2.00161e-06,-1.40764e-05,0.000217038,2.67669e-05,4
-3.30209e-05,5.15845e-06,-2.35013e-05,-0.000352245,1.25825e-05,-7.81566e-06,0.000177568,2.5151e-05,4
-2.93958e-05,7.73838e-06,-1.55247e-05,-0.000471368,1.9956e-05,-3.24226e-06,7.33598e-05,2.12698e-05,4
-2.92352e-05,1.02239e-05,-1.19579e-05,-0.000536646,2.03637e-05,-2.66363e-06,-2.36957e-05,1.67989e-05,4
-2.90862e-05,1.22534e-05,-1.20875e-05,-0.000407724,2.10816e-05,-2.91176e-06,-8.14659e-05,1.13265e-05,4
-2.68828e-05,1.39008e-05,-1.15442e-05,-0.000193285,2.48322e-05,-7.17236e-07,-9.3273e-05,2.57611e-06,4
-2.46909e-05,1.45487e-05,-9.59642e-06,2.75146e-06,2.55302e-05,2.97926e-06,-6.11234e-05,-8.77201e-06,4
-2.50921e-05,1.36365e-05,-8.90956e-06,0.000150766,1.83138e-05,3.73311e-06,3.18371e-06,-1.96517e-05,4
-2.75344e-05,1.17306e-05,-1.30487e-05,0.000188569,5.50747e-06,-1.28553e-06,7.58283e-05,-2.70025e-05,4
-2.98338e-05,9.81599e-06,-2.17515e-05,8.30675e-05,-6.00631e-06,-7.81634e-06,0.000129237,-2.94764e-05,4
-3.08362e-05,8.13762e-06,-2.93459e-05,-0.000100723,-1.05888e-05,-1.12758e-05,0.000148748,-2.77179e-05,4
-3.17173e-05,6.25265e-06,-3.17891e-05,-0.000226531,-8.42628e-06,-1.1485e-05,0.00014279,-2.33081e-05,4
-3.35614e-05,3.18968e-06,-3.14785e-05,-0.000193216,-5.53297e-06,-1.15267e-05,0.00012081,-1.72423e-05,4
-3.4764e-05,-2.17155e-07,-3.28143e-05,-5.40781e-05,-4.78969e-06,-1.32688e-05,8.01914e-05,-1.1217e-05,4
-3.39416e-05,-1.53728e-06,-3.44003e-05,6.21977e-05,-4.37955e-06,-1.49526e-05,2.35712e-05,-5.39565e-06,4
-3.15929e-05,8.2908e-07,-2.96646e-05,0.000119061,-1.89814e-06,-1.33773e-05,-2.32911e-05,-1.43465e-07,4
-2.98292e-05,6.27176e-06,-1.8647e-05,0.00014787,2.23175e-06,-9.86731e-06,-3.92799e-05,4.33721e-06,4
-2.9046e-05,1.04285e-05,-7.9907e-06,0.000166423,5.49573e-06,-9.20962e-06,-3.47343e-05,6.18434e-06,4
-2.97708e-05,9.80585e-06,-3.46561e-06,0.000155492,7.06571e-06,-1.20737e-05,-2.69984e-05,5.3361e-06,4
-3.14717e-05,7.45645e-06,-1.65604e-06,0.000120652,8.97812e-06,-1.72174e-05,-2.19993e-05,4.27845e-06,4
-3.29727e-05,7.03016e-06,1.31127e-06,9.93397e-05,1.25961e-05,-2.27605e-05,-1.58477e-05,4.12712e-06,4
-3.17089e-05,1.03971e-05,1.33013e-06,0.000106276,1.69341e-05,-2.24673e-05,-2.97828e-06,3.87408e-06,4
-2.88908e-05,1.45556e-05,-7.56437e-07,0.00012106,1.85937e-05,-1.63022e-05,2.73613e-06,2.61135e-06,4
-2.67488e-05,1.7502e-05,2.08097e-06,0.000131526,1.78505e-05,-1.05941e-05,-3.64704e-07,4.24289e-07,4
-2.58237e-05,1.96076e-05,1.0747e-05,0.000129146,1.67003e-05,-8.54847e-06,1.24448e-05,-2.77913e-06,4
-2.74199e-05,1.95359e-05,1.65576e-05,0.00012835,1.5339e-05,-9.73274e-06,1.29922e-05,-4.98429e-06,4
-2.92176e-05,1.94661e-05,1.83405e-05,0.00015973,1.45072e-05,-1.29291e-05,-2.67131e-05,-6.79294e-06,4
-2.85664e-05,2.06505e-05,1.72027e-05,0.00012496,1.66501e-05,-1.52908e-05,-6.42037e-05,-9.66832e-06,4
-2.53067e-05,2.31843e-05,1.65272e-05,-0.00015249,2.26967e-05,-1.29707e-05,-6.12577e-05,-1.1724e-05,4
-2.14506e-05,2.70855e-05,1.98401e-05,-0.000524435,2.87052e-05,-7.36416e-06,-2.73702e-05,-1.12729e-05,4
-1.87847e-05,2.94951e-05,2.63078e-05,-0.000609348,3.10291e-05,-4.26929e-06,6.0997e-06,-1.01588e-05,4
-1.82758e-05,2.79339e-05,3.33871e-05,-0.000344726,2.80932e-05,-8.55103e-06,2.90292e-05,-1.00388e-05,4
-1.91885e-05,2.42408e-05,3.84886e-05,-4.09207e-05,2.39021e-05,-1.67521e-05,3.90364e-05,-1.06166e-05,4
-2.06236e-05,2.1094e-05,4.09814e-05,6.89287e-05,2.33884e-05,-2.22526e-05,3.69929e-05,-1.14362e-05,4
-2.30772e-05,1.87616e-05,3.35325e-05,0.000165275,2.43834e-05,-2.23106e-05,3.52476e-05,-1.3189e-05,4
-2.7451e-05,1.55713e-05,1.17221e-05,0.000493691,2.0563e-05,-1.91777e-05,4.06848e-05,-1.53728e-05,4
-3.24229e-05,1.06172e-05,-1.62707e-05,0.000888324,9.9095e-06,-1.68726e-05,5.02137e-05,-1.65792e-05,4
-3.56778e-05,6.06802e-06,-3.55583e-05,0.000914557,-3.80336e-06,-1.84483e-05,6.34372e-05,-1.6441e-05,4
-3.62592e-05,5.6348e-06,-4.04051e-05,0.000486728,-1.18955e-05,-1.92576e-05,8.08897e-05,-1.37519e-05,4
-3.3654e-05,9.07542e-06,-3.9094e-05,-7.76653e-05,-6.72559e-06,-1.1522e-05,8.51697e-05,-7.54857e-06,4
-2.87888e-05,1.23352e-05,-4.47057e-05,-0.000418822,9.39056e-06,1.54858e-06,5.30661e-05,-1.72042e-08,4
-2.71023e-05,1.14491e-05,-5.95667e-05,-0.000225507,2.48437e-05,7.75963e-06,-6.77462e-06,5.21869e-06,4
-3.04406e-05,7.95383e-06,-6.92019e-05,0.00041359,2.91523e-05,2.26328e-06,-4.49709e-05,9.24453e-06,4
-3.33793e-05,7.51975e-06,-5.69854e-05,0.000877874,2.419e-05,-5.69543e-06,-2.86759e-05,1.6903e-05,4
-3.18105e-05,9.27398e-06,-3.16843e-05,0.000670005,1.88562e-05,-6.41513e-06,2.60395e-05,2.87862e-05,4
-2.64431e-05,1.12842e-05,-1.17575e-05,4.65163e-05,1.79977e-05,1.0936e-06,8.35844e-05,3.87873e-05,4
-2.29052e-05,1.35964e-05,1.65419e-06,-0.000351524,1.90548e-05,8.5252e-06,0.000124018,4.32604e-05,4
-2.36863e-05,1.45594e-05,1.40808e-05,-0.00047017,1.23538e-05,9.46514e-06,0.000118964,4.08786e-05,4
-2.5983e-05,1.39727e-05,2.50711e-05,-0.000633021,-4.11506e-06,7.51069e-06,5.90371e-05,3.23769e-05,4
-2.98824e-05,1.09869e-05,2.12505e-05,-0.000771225,-1.82781e-05,3.60693e-06,-1.96968e-05,2.17868e-05,4
-3.28675e-05,6.36313e-06,1.42535e-06,-0.000699307,-2.28649e-05,-2.5475e-06,-7.15212e-05,1.11162e-05,4
-3.12726e-05,5.53979e-06,-1.27652e-05,-0.000384319,-1.57807e-05,-5.73806e-06,-7.19033e-05,1.94204e-06,4
-2.77588e-05,1.03276e-05,-1.20715e-05,8.59881e-05,-1.76168e-06,-4.06271e-06,-4.44877e-05,-5.32435e-06,4
-2.4131e-05,1.60463e-05,-4.21224e-06,0.000442995,1.04145e-05,-5.99617e-07,-1.91815e-05,-1.04143e-05,4
-2.29295e-05,1.84616e-05,6.2516e-07,0.000418139,1.6266e-05,1.3068e-06,-6.86701e-06,-1.48094e-05,4
-2.28767e-05,1.74824e-05,9.35277e-07,6.31441e-05,1.81327e-05,2.24417e-06,-1.22198e-06,-2.13086e-05,4
-2.20708e-05,1.7098e-05,1.89286e-06,-0.000219731,2.10653e-05,3.04017e-06,8.81481e-07,-3.07126e-05,4
-2.14499e-05,1.9137e-05,3.76549e-06,-0.000182908,2.35573e-05,2.97079e-06,1.11452e-06,-3.8795e-05,4
-2.13312e-05,2.21576e-05,8.08088e-06,4.35609e-05,2.32965e-05,1.49852e-06,2.88605e-06,-4.27515e-05,4
-2.20484e-05,2.47193e-05,1.44144e-05,0.000209468,1.94198e-05,-7.69296e-07,6.50984e-06,-4.35139e-05,4
-2.29057e-05,2.46684e-05,1.78542e-05,0.000195052,1.30699e-05,-4.31732e-06,1.53642e-05,-4.06129e-05,4
-2.46497e-05,2.11204e-05,1.36052e-05,8.89959e-05,6.26028e-06,-8.96859e-06,2.84339e-05,-3.54117e-05,4
-2.72455e-05,1.65469e-05,6.35019e-06,2.28879e-05,2.09092e-06,-1.42343e-05,3.91308e-05,-2.95711e-05,4
-2.98198e-05,1.42061e-05,3.10327e-06,-1.70362e-05,2.34823e-06,-2.11158e-05,3.55719e-05,-2.30544e-05,4
-3.13633e-05,1.21527e-05,3.11647e-06,-9.3898e-05,4.12861e-06,-2.95477e-05,2.26922e-05,-1.52154e-05,4
-3.26205e-05,8.18512e-06,8.98768e-07,-0.000191931,2.89958e-06,-3.698e-05,2.02909e-05,-5.4647e-06,4
-3.32691e-05,5.14715e-06,-5.66185e-06,-0.000294151,1.05076e-06,-3.86476e-05,2.96421e-05,5.46882e-06,4
-3.21268e-05,5.75295e-06,-1.33984e-05,-0.000300402,5.57032e-06,-3.18967e-05,1.52258e-05,1.22902e-05,4
-2.96517e-05,7.9539e-06,-1.95667e-05,-0.00013052,1.74686e-05,-2.02673e-05,-5.11535e-05,1.22988e-05,4
-2.64964e-05,1.00756e-05,-2.18486e-05,8.00519e-05,2.92308e-05,-1.00944e-05,-0.000153926,9.06649e-06,4
-2.38623e-05,1.27279e-05,-2.1888e-05,0.000160367,3.35383e-05,-4.14644e-06,-0.000236089,6.95314e-06,4
-2.43755e-05,1.34414e-05,-2.43919e-05,9.23947e-05,2.90205e-05,-1.56319e-06,-0.000249234,5.23234e-06,4
-2.80374e-05,9.84852e-06,-3.10053e-05,-6.9383e-05,1.87684e-05,-7.2315e-07,-0.000198387,2.34579e-06,4
-3.12526e-05,6.27535e-06,-3.58783e-05,-0.000220506,1.0686e-05,-3.248e-06,-8.09737e-05,-1.39306e-06,4
-3.17687e-05,6.28423e-06,-2.85968e-05,-0.00021849,1.06643e-05,-8.137e-06,9.51767e-05,-3.79383e-06,4
-3.15413e-05,7.84415e-06,-1.29167e-05,-0.00017411,1.57231e-05,-1.34861e-05,0.000220753,-3.5882e-06,4
-3.17071e-05,9.60524e-06,-5.38505e-06,-0.000323735,1.84057e-05,-1.79589e-05,0.000208904,-3.9836e-06,4
-3.17127e-05,1.17109e-05,-1.06225e-05,-0.000458999,1.85903e-05,-1.91064e-05,0.000126491,-5.57374e-06,4
-3.21827e-05,1.27268e-05,-2.0612e-05,-0.000235807,1.86647e-05,-1.62781e-05,6.24282e-05,-6.70616e-06,4
-3.21184e-05,1.11826e-05,-2.42051e-05,0.000217807,1.95611e-05,-1.30568e-05,2.64851e-05,-5.70129e-06,4
-3.19271e-05,9.70695e-06,-1.88758e-05,0.000535002,2.1186e-05,-1.23397e-05,1.11009e-05,-3.48912e-06,4
-3.34613e-05,9.10845e-06,-1.19979e-05,0.000509101,2.08745e-05,-1.48416e-05,7.03555e-06,-1.48673e-06,4
-3.61287e-05,8.33696e-06,-1.03023e-05,0.00021616,1.76962e-05,-1.97325e-05,3.50558e-06,4.22171e-06,4
-3.72168e-05,6.56203e-06,-1.29192e-05,-5.29083e-05,1.46259e-05,-2.27186e-05,-6.25826e-06,1.88316e-05,4
-3.56717e-05,5.18066e-06,-1.40243e-05,-0.00016497,1.57622e-05,-2.02571e-05,-2.01348e-05,4.37964e-05,4
-3.37183e-05,5.35144e-06,-1.24483e-05,-0.000251251,1.7941e-05,-1.29975e-05,-1.96699e-05,7.36729e-05,4
-3.298e-05,7.04783e-06,-1.08738e-05,-0.000285522,1.64411e-05,-5.97028e-06,5.73017e-06,9.61155e-05,4
-3.28519e-05,1.05038e-05,-1.04378e-05,-0.000113324,1.34055e-05,-1.75224e-06,4.25323e-05,0.000103443,4
-3.25947e-05,1.4845e-05,-7.33898e-06,0.000172566,1.28833e-05,-1.86374e-06,6.56615e-05,9.83734e-05,4
-3.22531e-05,1.86664e-05,1.32011e-06,0.000307489,1.36815e-05,-5.54688e-06,6.99218e-05,8.69494e-05,4
-3.12379e-05,2.0301e-05,1.01144e-05,0.000215185,1.29141e-05,-7.71435e-06,5.86245e-05,7.0498e-05,4
-2.95657e-05,2.03822e-05,1.17824e-05,1.0542e-05,1.06891e-05,-4.89035e-06,3.71848e-05,5.24081e-05,4
-2.87143e-05,1.95711e-05,5.68256e-06,-0.000221613,8.60686e-06,-2.03144e-06,1.6294e-05,4.3037e-05,4
-2.9193e-05,1.82278e-05,-3.81389e-06,-0.000422367,8.74765e-06,-3.19288e-06,1.01561e-05,4.62072e-05,4
-3.01418e-05,1.71191e-05,-1.2363e-05,-0.000472446,1.25115e-05,-5.15536e-06,3.01948e-05,5.49616e-05,4
-2.97683e-05,1.66056e-05,-1.6817e-05,-0.000306016,1.76754e-05,-5.18841e-06,7.92936e-05,6.37699e-05,4
-2.78677e-05,1.69444e-05,-1.59635e-05,-9.52616e-05,2.0855e-05,-2.99809e-06,0.000136321,6.50634e-05,4
-2.58278e-05,1.92894e-05,-1.13233e-05,4.31247e-05,2.28265e-05,-1.74705e-06,0.000158659,4.79678e-05,4
-2.35583e-05,2.30156e-05,-3.96328e-06,0.000301797,2.54011e-05,-3.54011e-06,0.000113939,1.49899e-05,4
-2.32967e-05,2.53674e-05,6.35179e-06,0.000670038,2.70948e-05,-1.06589e-05,3.16072e-06,-2.46096e-05,4
-2.88743e-05,2.27406e-05,1.86368e-05,0.000884932,1.98668e-05,-2.49475e-05,-0.000133814,-7.69956e-05,4
-3.59176e-05,1.70728e-05,2.9868e-05,0.000799693,4.92483e-06,-3.78383e-05,-0.000221284,-0.000132622,4
-3.79324e-05,1.45991e-05,3.96217e-05,0.000432448,-3.82243e-06,-3.9424e-05,-0.00022192,-0.00016696,4
-3.51399e-05,1.64192e-05,4.4125e-05,-8.71555e-05,-6.79475e-07,-2.9051e-05,-0.000123684,-0.000179445,4
-3.18508e-05,1.67843e-05,3.43342e-05,-0.000398817,7.1738e-06,-1.60087e-05,6.80945e-05,-0.000180313,4
-3.12454e-05,1.34639e-05,1.39552e-05,-0.000255254,1.1611e-05,-8.40579e-06,0.000221217,-0.000177495,4
-3.20187e-05,1.03528e-05,-5.37376e-06,7.67523e-05,9.79877e-06,-5.4576e-06,0.000217015,-0.000159448,4
-3.07813e-05,9.11349e-06,-1.60737e-05,0.000373893,5.66043e-06,-4.85969e-06,0.000109886,-0.000123044,4
-2.90901e-05,8.70714e-06,-1.743e-05,0.000568331,5.23415e-06,-5.14149e-06,1.7029e-05,-8.21677e-05,4
-2.88158e-05,6.71262e-06,-1.56925e-05,0.000626953,5.47763e-06,-8.34093e-06,-3.26327e-05,-4.88368e-05,4
-3.03286e-05,2.43673e-06,-1.72755e-05,0.00043203,3.42139e-06,-1.41548e-05,-5.03378e-05,-2.72988e-05,4
-3.17111e-05,-7.07336e-07,-2.15866e-05,5.75356e-06,5.21649e-07,-1.76691e-05,-3.08794e-05,-1.22262e-05,4
-2.94573e-05,1.04397e-06,-2.38881e-05,-0.000396147,1.19107e-06,-1.1781e-05,1.41004e-05,-7.27424e-07,4
-2.34408e-05,6.94873e-06,-2.45932e-05,-0.000564442,8.88646e-06,3.34348e-06,5.19405e-05,7.52813e-06,4
-1.6703e-05,1.25036e-05,-2.67522e-05,-0.000462912,1.95951e-05,1.60983e-05,7.39595e-05,1.00662e-05,4
-1.44713e-05,1.37175e-05,-3.01994e-05,-0.00023952,2.61948e-05,1.73875e-05,9.36505e-05,6.47007e-06,4
-1.73498e-05,1.14808e-05,-3.27582e-05,-9.82064e-05,2.71504e-05,1.07196e-05,0.000105177,-2.94093e-06,4
-2.19139e-05,9.44893e-06,-3.4956e-05,-0.000192501,2.67122e-05,4.94981e-06,8.90819e-05,-1.24525e-05,4
-2.48513e-05,9.11363e-06,-3.89703e-05,-0.00042225,2.66663e-05,1.2233e-06,4.35016e-05,-1.73854e-05,4
-2.62701e-05,9.66103e-06,-4.3512e-05,-0.000546674,2.71931e-05,-2.7791e-06,8.18806e-07,-1.64879e-05,4
-2.65696e-05,1.19583e-05,-4.45556e-05,-0.000437879,2.91845e-05,-5.92701e-06,-2.7217e-05,-9.67352e-06,4
-2.60594e-05,1.64334e-05,-3.98908e-05,-0.000217333,3.24284e-05,-7.17936e-06,-5.96414e-05,2.39761e-06,4
-2.50695e-05,2.06169e-05,-2.96284e-05,-6.07762e-05,3.56817e-05,-7.34569e-06,-8.88467e-05,1.66443e-05,4
-2.40072e-05,2.185e-05,-1.64303e-05,-1.99379e-06,3.695e-05,-6.79478e-06,-8.80669e-05,3.03726e-05,4
-2.3509e-05,2.07321e-05,-6.37156e-06,4.21418e-05,3.42363e-05,-6.04326e-06,-6.23108e-05,4.07903e-05,4
-2.48154e-05,1.98322e-05,-2.42978e-07,2.45829e-05,3.01603e-05,-6.43212e-06,-2.58095e-05,4.49428e-05,4
-2.63609e-05,2.02286e-05,7.77781e-06,-9.17081e-05,2.69744e-05,-7.67702e-06,5.9249e-06,4.48807e-05,4
-2.57982e-05,2.11985e-05,2.30355e-05,-0.000236732,2.29005e-05,-8.17191e-06,1.54287e-05,4.33843e-05,4
-2.63774e-05,2.14087e-05,4.35063e-05,-0.000304488,1.94955e-05,-7.73536e-06,4.89329e-06,4.13723e-05,4
-2.89218e-05,2.07419e-05,5.03405e-05,-0.000200475,1.46931e-05,-8.07063e-06,1.52453e-06,4.0223e-05,4
-3.18534e-05,1.81818e-05,3.50903e-05,-8.09014e-07,5.03279e-06,-1.04026e-05,2.31718e-05,3.85365e-05,4
-3.52228e-05,1.4386e-05,1.36105e-05,9.95042e-05,-5.92217e-06,-1.36133e-05,5.61004e-05,3.60497e-05,4
-3.8722e-05,1.23765e-05,2.55127e-06,4.56123e-05,-1.46728e-05,-1.64057e-05,7.64479e-05,3.48922e-05,4
-4.16507e-05,1.09088e-05,3.22427e-06,-3.26973e-05,-1.5194e-05,-1.66569e-05,7.69317e-05,3.36516e-05,4
-4.23349e-05,1.01227e-05,7.49205e-06,-6.86743e-06,-9.20283e-06,-1.60775e-05,6.18544e-05,3.10725e-05,4
-4.11824e-05,1.0027e-05,1.04294e-05,0.000136725,-3.47509e-06,-1.61715e-05,3.51973e-05,2.79763e-05,4
-4.07038e-05,9.02622e-06,1.07054e-05,0.000266094,3.39085e-07,-1.58971e-05,6.10914e-06,2.68615e-05,4
-4.16558e-05,6.40804e-06,6.42144e-06,0.000337439,4.44527e-06,-1.56102e-05,-1.39455e-05,2.59719e-05,4
-4.33145e-05,2.4906e-06,-3.71386e-06,0.000367786,9.37159e-06,-1.60862e-05,-2.04597e-05,2.42793e-05,4
-4.41334e-05,-3.79662e-07,-1.91674e-05,0.000236295,1.3804e-05,-1.55071e-05,-2.51158e-05,2.26161e-05,4
-4.34469e-05,-1.18253e-06,-3.60079e-05,-0.000151587,2.01409e-05,-1.04561e-05,-3.75595e-05,2.17127e-05,4
-4.13573e-05,4.57758e-07,-4.44161e-05,-0.00048197,2.79901e-05,-2.57765e-06,-5.3496e-05,2.05327e-05,4
-3.94314e-05,3.19806e-06,-4.06155e-05,-0.000430703,3.38153e-05,1.84608e-06,-5.92145e-05,1.92828e-05,4
-3.85239e-05,6.15615e-06,-2.97974e-05,-0.000138028,3.38623e-05,-5.38351e-08,-4.48149e-05,2.03912e-05,4
-3.73408e-05,8.57374e-06,-2.00149e-05,6.36112e-05,3.01453e-05,-3.14619e-06,-1.01176e-05,2.38828e-05,4
-3.59434e-05,9.86323e-06,-1.3644e-05,8.07005e-05,2.61101e-05,-3.56875e-06,3.02325e-05,2.66779e-05,4
-3.5191e-05,1.02119e-05,-8.21924e-06,4.01767e-05,2.37502e-05,-1.93169e-06,6.37162e-05,2.71892e-05,4
-3.41996e-05,1.0328e-05,-4.09214e-06,3.99355e-05,2.2651e-05,-1.86488e-06,8.42447e-05,2.6296e-05,4
-3.28345e-05,1.07429e-05,-4.56441e-06,8.0634e-05,2.25753e-05,-3.53117e-06,7.95902e-05,2.40559e-05,4
-3.10621e-05,1.15487e-05,-6.57674e-06,0.000112725,2.34858e-05,-3.44849e-06,3.93755e-05,2.06904e-05,4
-2.84524e-05,1.09828e-05,-8.75788e-06,0.000113041,2.2245e-05,-2.73325e-06,-3.01474e-05,1.61172e-05,4
-2.69072e-05,8.87282e-06,-1.35585e-05,0.000110643,1.86105e-05,-6.21419e-06,-0.000104486,1.0618e-05,4
-2.74312e-05,7.09519e-06,-1.54562e-05,0.000134786,1.90792e-05,-1.2564e-05,-0.000156767,5.75983e-06,4
-2.76082e-05,7.30348e-06,-1.29042e-05,0.000146453,2.33586e-05,-1.54536e-05,-0.000167006,3.57377e-06,4
-2.77333e-05,8.0269e-06,-1.09618e-05,0.000116074,2.28222e-05,-1.47507e-05,-9.43988e-05,3.2088e-06,4
-2.95472e-05,7.25536e-06,-1.13987e-05,4.38509e-05,1.67952e-05,-1.36938e-05,5.03777e-05,1.33352e-06,4
-3.01945e-05,5.94102e-06,-1.14463e-05,-1.51291e-05,1.10184e-05,-1.33004e-05,0.000150794,3.31157e-06,4
-2.87018e-05,4.98102e-06,-7.22897e-06,-3.91601e-05,1.00174e-05,-1.3252e-05,0.000138017,1.20365e-05,4
-2.52496e-05,7.56956e-06,-1.18085e-06,-7.5846e-05,1.1577e-05,-1.43146e-05,6.04705e-05,1.89761e-05,4
-2.26439e-05,1.10757e-05,2.37177e-06,-0.000103326,1.3064e-05,-1.5694e-05,-5.82269e-06,2.0828e-05,4
-2.31647e-05,1.26118e-05,5.63306e-06,-7.12632e-05,1.56235e-05,-1.5086e-05,-2.83469e-05,1.88883e-05,4
-2.38007e-05,1.41752e-05,1.07169e-05,-2.51379e-05,1.87819e-05,-1.30901e-05,-1.53355e-05,1.69406e-05,4
-2.47181e-05,1.63756e-05,1.39201e-05,-5.7252e-06,2.14137e-05,-1.22809e-05,6.13377e-06,1.68165e-05,4
-2.57424e-05,1.7614e-05,1.21531e-05,-1.00114e-05,2.31013e-05,-1.33907e-05,1.72353e-05,1.67182e-05,4
-2.67284e-05,1.81944e-05,7.50781e-06,-6.65907e-05,2.36746e-05,-1.52385e-05,2.46129e-05,1.06988e-05,4
-2.75983e-05,1.87598e-05,1.76497e-06,-0.000260197,2.24502e-05,-1.53439e-05,3.79583e-05,-1.71427e-06,4
-2.91031e-05,1.74701e-05,-3.53113e-06,-0.000583409,2.02801e-05,-1.2703e-05,5.34093e-05,-1.42536e-05,4
-3.10843e-05,1.45608e-05,-8.07436e-06,-0.000752679,1.91877e-05,-9.73222e-06,6.44588e-05,-2.37248e-05,4
-3.25023e-05,1.16783e-05,-1.1489e-05,-0.000500406,1.88822e-05,-6.95767e-06,7.69654e-05,-3.00925e-05,4
-3.31018e-05,1.05309e-05,-1.41251e-05,9.3157e-06,1.80292e-05,-4.39872e-06,9.74043e-05,-3.32406e-05,4
-3.31388e-05,1.15674e-05,-1.58965e-05,0.000418301,1.57917e-05,-3.41051e-06,0.000115798,-3.21031e-05,4
-3.35265e-05,1.31912e-05,-1.63919e-05,0.00065017,1.41104e-05,-7.02019e-06,0.000115017,-2.72675e-05,4
-3.4147e-05,1.27884e-05,-1.75966e-05,0.000847113,1.41837e-05,-1.55031e-05,9.88795e-05,-2.0595e-05,4
-3.56176e-05,1.05456e-05,-2.08985e-05,0.00102117,1.34425e-05,-2.22899e-05,8.63994e-05,-1.52242e-05,4
-3.64813e-05,9.90674e-06,-2.4207e-05,0.00100769,1.02771e-05,-2.22008e-05,6.55862e-05,-1.16702e-05,4
-3.57164e-05,1.19343e-05,-2.52014e-05,0.00072554,8.51072e-06,-1.66114e-05,-1.4501e-06,-9.89578e-06,4
-3.2532e-05,1.44589e-05,-2.04274e-05,0.000315226,1.18004e-05,-1.07835e-05,-0.000104791,-8.79685e-06,4
-2.85117e-05,1.67634e-05,-5.34752e-06,2.06393e-05,1.8186e-05,-8.25412e-06,-0.000180416,-8.78849e-06,4
-2.7123e-05,1.78753e-05,1.29985e-05,-5.62365e-05,2.06648e-05,-1.00287e-05,-0.000188696,-1.08772e-05,4
-2.8801e-05,1.73539e-05,2.00035e-05,-5.37716e-05,1.49008e-05,-1.38266e-05,-0.000139952,-1.36309e-05,4
-3.11617e-05,1.64946e-05,1.59362e-05,-0.000106728,7.65432e-06,-1.83388e-05,-5.6565e-05,-1.66993e-05,4
-3.2389e-05,1.62715e-05,1.54455e-05,1.66439e-06,5.76535e-06,-2.26084e-05,6.49394e-05,-1.89592e-05,4
-3.26663e-05,1.62933e-05,1.9903e-05,0.000355068,6.88637e-06,-2.19626e-05,0.000150085,-1.83234e-05,4
-3.45377e-05,1.44964e-05,1.63453e-05,0.000439318,6.6298e-06,-1.93715e-05,9.69963e-05,-1.68549e-05,4
-3.83845e-05,8.79575e-06,1.85898e-06,6.74468e-05,2.70628e-06,-2.02122e-05,-2.63909e-05,-1.56927e-05,4
-4.0346e-05,3.18945e-06,-1.24096e-05,-0.000240098,-3.22547e-06,-1.9427e-05,-0.000100812,-1.53627e-05,4
-3.82549e-05,3.55564e-06,-2.10376e-05,-0.000279393,-6.08949e-06,-1.11681e-05,-0.000106511,-1.45092e-05,4
-3.41741e-05,7.37572e-06,-2.60967e-05,-0.000395368,-2.58658e-06,-1.99687e-07,-5.93264e-05,-1.12961e-05,4
-3.17603e-05,1.08845e-05,-3.1622e-05,-0.000627932,5.24479e-06,6.71958e-06,4.91559e-05,-6.49464e-06,4
-3.20023e-05,1.43994e-05,-3.64873e-05,-0.000658976,1.26833e-05,8.76198e-06,0.000156094,1.36829e-06,4
-3.24219e-05,1.7335e-05,-3.58892e-05,-0.000466331,1.89655e-05,7.46896e-06,0.000186535,1.10386e-05,4
-3.15932e-05,1.84654e-05,-3.13182e-05,-0.000277888,2.53804e-05,6.78033e-06,0.00015591,1.89657e-05,4
-2.94969e-05,1.86422e-05,-2.65025e-05,-0.000212748,3.25954e-05,8.62022e-06,0.000125576,2.29117e-05,4
-2.69343e-05,1.88503e-05,-2.1259e-05,-0.000289273,3.9435e-05,1.04051e-05,0.000120904,2.20127e-05,4
-2.54265e-05,1.9354e-05,-1.01864e-05,-0.000450892,4.37702e-05,8.15799e-06,0.000110085,1.77504e-05,4
-2.55821e-05,1.97598e-05,6.78571e-06,-0.000447651,4.3566e-05,1.4527e-06,7.49513e-05,1.32834e-05,4
-2.72303e-05,1.96084e-05,2.11335e-05,-0.000139866,3.72185e-05,-5.44825e-06,2.26728e-05,8.08604e-06,4
-2.95319e-05,1.83389e-05,2.43088e-05,0.000215108,2.41334e-05,-8.9794e-06,-2.83163e-05,3.35224e-07,4
-3.24262e-05,1.62078e-05,1.72989e-05,0.000313318,4.92328e-06,-1.08746e-05,-6.21268e-05,-8.95677e-06,4
-3.47859e-05,1.38808e-05,8.55656e-06,0.000182787,-1.53086e-05,-1.25054e-05,-5.91498e-05,-1.63918e-05,4
-3.56228e-05,1.24625e-05,5.03557e-06,7.81765e-06,-2.66447e-05,-1.25737e-05,-2.65617e-05,-2.11093e-05,4
-3.37886e-05,1.26714e-05,4.39216e-06,-0.000166416,-2.30313e-05,-1.23376e-05,6.67992e-06,-2.46278e-05,4
-3.02579e-05,1.40201e-05,3.03038e-06,-0.000272815,-1.03305e-05,-1.27817e-05,2.75813e-05,-2.61346e-05,4
-2.76773e-05,1.59963e-05,3.86739e-06,-0.000121559,3.90551e-06,-1.28591e-05,4.37572e-05,-2.35249e-05,4
-2.6785e-05,1.80873e-05,8.97175e-06,0.000336639,1.70339e-05,-1.16285e-05,4.93378e-05,-1.82314e-05,4
-2.73759e-05,1.93517e-05,1.66098e-05,0.000718882,2.6764e-05,-1.05546e-05,2.77279e-05,-1.34065e-05,4
-2.87288e-05,1.98032e-05,2.30198e-05,0.000677764,2.87109e-05,-1.17798e-05,-8.44054e-06,-1.0567e-05,4
-3.07674e-05,1.89191e-05,2.24017e-05,0.000388241,1.93302e-05,-1.35214e-05,-2.20391e-05,-9.23797e-06,4
-3.34667e-05,1.56694e-05,4.10969e-06,-1.06818e-05,2.60736e-06,-1.09209e-05,5.84722e-06,-6.87555e-06,4
-3.61955e-05,1.17943e-05,-2.33706e-05,-0.000333682,-1.11486e-05,-5.22127e-06,3.8907e-05,-4.43697e-06,4
-3.92075e-05,9.81561e-06,-3.84944e-05,-0.000340363,-1.48794e-05,-4.43036e-06,3.67659e-05,-3.70843e-06,4
-4.00096e-05,9.28937e-06,-3.65436e-05,-0.000270303,-1.06629e-05,-8.23386e-06,1.42598e-05,-3.23002e-06,4
-3.6338e-05,1.00114e-05,-2.36607e-05,-0.00040662,-5.69242e-06,-1.18314e-05,-1.3827e-06,-2.34714e-06,4
-3.27528e-05,1.2243e-05,-1.58145e-05,-0.000622438,-1.15194e-06,-1.27371e-05,-1.89008e-05,-2.39198e-06,4
-3.05633e-05,1.3314e-05,-1.51616e-05,-0.000612437,9.07521e-06,-1.17012e-05,-5.40966e-05,-1.39033e-06,4
-2.8329e-05,1.35244e-05,-1.20239e-05,-0.000367367,1.95445e-05,-1.28771e-05,-9.02768e-05,8.16548e-07,4
-2.86571e-05,1.10021e-05,-9.30918e-06,-8.70622e-05,1.94744e-05,-1.67419e-05,-0.000102526,2.28075e-06,4
