ch1,ch2,ch3,ch4,ch5,ch6,ch7,ch8,class
-3.01987e-05,1.88516e-05,2.72271e-05,0.00020069,1.1232e-05,-1.4738e-05,7.0181e-05,8.27495e-06,4
-3.15143e-05,1.6663e-05,2.21831e-05,0.00027923,1.0238e-05,-1.92296e-05,-6.16864e-05,9.66703e-06,4
-3.27061e-05,1.47171e-05,4.34697e-06,0.000294892,7.11751e-06,-1.95495e-05,-0.000186426,1.08711e-05,4
-3.21913e-05,1.50778e-05,-1.37765e-05,0.000102623,8.55951e-06,-1.575e-05,-0.000217138,1.05127e-05,4
-3.04333e-05,1.73981e-05,-2.12637e-05,-0.000244731,1.23832e-05,-1.05299e-05,-9.09886e-05,1.00882e-05,4
-3.11135e-05,1.87881e-05,-2.01414e-05,-0.000444554,1.26067e-05,-7.5494e-06,0.000170313,1.20656e-05,4
-3.42203e-05,1.77e-05,-1.62283e-05,-0.000367794,1.16889e-05,-8.59943e-06,0.000366495,1.51325e-05,4
-3.55859e-05,1.47636e-05,-1.19953e-05,-0.000192579,1.25243e-05,-1.36609e-05,0.000311159,1.63126e-05,4
-3.43272e-05,1.27304e-05,-5.6566e-06,-0.000157149,1.31988e-05,-1.96425e-05,9.04438e-05,1.58327e-05,4
-3.19384e-05,1.42619e-05,5.43174e-06,-0.000235463,1.2419e-05,-2.32216e-05,-6.9232e-05,1.63274e-05,4
-2.85197e-05,1.74726e-05,1.84301e-05,-0.000141644,9.38296e-06,-2.15099e-05,-6.92084e-05,1.75054e-05,4
-2.70116e-05,1.97628e-05,2.03592e-05,0.000123365,6.40319e-06,-1.43699e-05,2.58162e-05,1.87716e-05,4
-2.85996e-05,1.95572e-05,1.08783e-05,0.000164551,8.04296e-06,-8.17892e-06,8.12862e-05,1.98354e-05,4
-3.03304e-05,1.84213e-05,2.80332e-06,-0.0001412,1.3352e-05,-6.47447e-06,2.02606e-05,1.94041e-05,4
-2.99841e-05,1.99302e-05,-7.55358e-07,-0.000332915,1.68215e-05,-4.52424e-06,-8.30844e-05,1.5869e-05,4
-3.02725e-05,2.05446e-05,-5.02426e-06,-9.11233e-05,1.40502e-05,-4.66592e-06,-0.000101188,9.12647e-06,4
-3.28062e-05,1.4492e-05,-1.44126e-05,0.000154747,5.51405e-06,-9.27771e-06,1.18344e-05,5.38171e-07,4
-3.50342e-05,7.78302e-06,-2.03732e-05,9.86325e-05,-1.07672e-06,-1.29907e-05,0.000168237,-8.47713e-06,4
-3.40851e-05,7.30686e-06,-1.93215e-05,3.98945e-06,9.79745e-07,-1.10753e-05,0.00023024,-1.49002e-05,4
-3.06147e-05,9.87476e-06,-1.55497e-05,8.91027e-05,6.99356e-06,-6.1615e-06,0.000178218,-1.66448e-05,4
-2.87155e-05,1.07582e-05,-1.49315e-05,0.000288194,9.05169e-06,-5.09591e-06,9.01084e-05,-1.52851e-05,4
-2.7588e-05,1.01318e-05,-1.7726e-05,0.000311536,8.23279e-06,-4.57509e-06,4.38492e-05,-1.20612e-05,4
-2.58253e-05,1.17393e-05,-1.95245e-05,1.45813e-05,9.15396e-06,-6.67111e-07,5.06732e-05,-7.71974e-06,4
-2.29819e-05,1.5838e-05,-1.81755e-05,-0.000324282,1.2763e-05,3.91038e-06,7.41488e-05,-4.47748e-06,4
-2.13866e-05,1.79532e-05,-1.54709e-05,-0.000372057,1.53457e-05,5.06972e-06,8.22498e-05,-3.06251e-06,4
-2.27649e-05,1.6269e-05,-1.43467e-05,-0.000186434,1.48027e-05,2.15989e-06,7.31862e-05,-7.89196e-07,4
-2.50874e-05,1.40925e-05,-1.46351e-05,-5.44616e-06,1.42025e-05,-2.6015e-06,6.28399e-05,6.31377e-06,4
-2.49151e-05,1.32367e-05,-1.53635e-05,0.000103292,1.78442e-05,-6.97458e-06,5.64884e-05,1.54864e-05,4
-2.23746e-05,1.17671e-05,-1.47645e-05,0.000194143,2.30481e-05,-9.89277e-06,4.96427e-05,1.98962e-05,4
-2.17806e-05,8.78174e-06,-1.5399e-05,0.000265299,2.39555e-05,-1.31519e-05,3.44756e-05,1.77649e-05,4
-2.46881e-05,4.91429e-06,-1.73914e-05,0.000256677,2.182e-05,-1.81996e-05,1.80049e-06,1.09374e-05,4
-2.72065e-05,2.62009e-06,-1.52533e-05,0.000150481,2.29828e-05,-2.19269e-05,-5.29073e-05,3.46359e-07,4
-2.65302e-05,3.43737e-06,-6.90985e-06,3.44727e-05,2.53883e-05,-2.13409e-05,-0.000105556,-1.33576e-05,4
-2.41927e-05,7.14382e-06,-1.18976e-06,-4.34514e-05,2.11181e-05,-1.84187e-05,-0.000119055,-2.84942e-05,4
-2.33839e-05,1.05458e-05,-1.29528e-06,-0.000121768,1.08824e-05,-1.60482e-05,-7.72687e-05,-4.16035e-05,4
-2.53207e-05,1.10096e-05,-1.12776e-06,-0.000144543,2.97295e-06,-1.55113e-05,-8.72723e-06,-4.92535e-05,4
-2.78996e-05,1.02331e-05,4.27593e-07,-8.42268e-05,-3.75586e-07,-1.50929e-05,3.65472e-05,-5.01821e-05,4
-3.00777e-05,1.0084e-05,-2.16316e-06,-1.2657e-05,-2.00054e-06,-1.4543e-05,2.94437e-05,-4.13873e-05,4
-2.88778e-05,1.03544e-05,-8.93758e-06,3.37777e-05,-1.10884e-06,-1.57003e-05,-7.74838e-06,-2.61198e-05,4
-2.59982e-05,1.04097e-05,-1.2447e-05,9.64235e-05,5.28564e-06,-1.48313e-05,-3.6229e-05,-1.19846e-05,4
-2.47687e-05,1.11561e-05,-9.1108e-06,0.000222484,1.62646e-05,-1.163e-05,-3.94075e-05,-4.79697e-06,4
-2.45434e-05,1.07916e-05,-2.52994e-06,0.000323405,2.29994e-05,-1.27264e-05,-2.29557e-05,-8.01376e-06,4
-2.59743e-05,8.70492e-06,2.04753e-06,0.000248044,2.26817e-05,-1.7044e-05,-1.28287e-05,-1.70559e-05,4
-2.72631e-05,6.35476e-06,5.50898e-07,7.46167e-05,2.10626e-05,-1.71675e-05,-2.06767e-05,-2.80104e-05,4
-2.66045e-05,5.8551e-06,-5.92869e-06,-4.0947e-05,2.13676e-05,-1.14599e-05,-3.52004e-05,-3.56176e-05,4
-2.5647e-05,7.17541e-06,-1.20117e-05,-3.22662e-05,2.22527e-05,-5.58074e-06,-4.51505e-05,-3.57849e-05,4
-2.64585e-05,7.54722e-06,-1.73227e-05,0.00019767,2.26828e-05,-4.74294e-06,-4.69801e-05,-3.10797e-05,4
-2.77483e-05,6.32435e-06,-2.4722e-05,0.00036258,2.15319e-05,-8.223e-06,-4.65643e-05,-2.41815e-05,4
-2.81075e-05,5.35064e-06,-3.53731e-05,1.94324e-05,1.95311e-05,-1.20637e-05,-4.97095e-05,-1.62662e-05,4
-2.78128e-05,6.36703e-06,-4.4675e-05,-0.000590411,1.90376e-05,-1.30919e-05,-4.56441e-05,-8.22014e-06,4
-2.76578e-05,8.89851e-06,-4.65059e-05,-0.000852646,1.81668e-05,-1.02646e-05,-3.28337e-05,-1.98879e-06,4
-2.89229e-05,1.03073e-05,-3.80976e-05,-0.000631114,1.28972e-05,-5.9629e-06,-3.44713e-05,1.84248e-06,4
-3.08999e-05,9.67563e-06,-2.16753e-05,-0.000257347,5.01417e-06,-3.41786e-06,-5.56625e-05,4.05138e-06,4
-3.1298e-05,1.03607e-05,1.80959e-06,-6.28319e-06,1.33587e-06,-3.74709e-06,-6.38475e-05,5.49529e-06,4
-2.9721e-05,1.38746e-05,3.30577e-05,9.06717e-05,2.68028e-06,-5.94833e-06,-3.11075e-05,7.77171e-06,4
-2.77726e-05,1.82626e-05,6.27491e-05,9.52641e-05,4.11646e-06,-8.55534e-06,2.60065e-05,1.25199e-05,4
-2.6174e-05,2.10847e-05,7.20075e-05,4.46384e-05,4.95857e-06,-7.65805e-06,6.84813e-05,2.01111e-05,4
-2.44014e-05,2.1873e-05,5.72407e-05,-1.46581e-05,8.68197e-06,-3.40667e-06,7.9242e-05,2.83817e-05,4
-2.32432e-05,2.09989e-05,3.5326e-05,-2.66048e-05,1.46283e-05,-6.56009e-07,6.69269e-05,3.2778e-05,4
-2.40217e-05,1.89561e-05,1.77218e-05,6.13197e-05,1.9407e-05,8.3111e-08,4.91539e-05,3.22509e-05,4
-2.63868e-05,1.58045e-05,5.75751e-06,0.000265328,2.06983e-05,-7.35467e-07,4.88262e-05,2.96825e-05,4
-2.89019e-05,1.35797e-05,-4.57589e-08,0.000542755,2.05253e-05,-2.96595e-06,8.26107e-05,2.57481e-05,4
-2.9113e-05,1.28445e-05,-7.87597e-07,0.000739434,1.97349e-05,-5.50172e-06,0.000122625,1.84908e-05,4
-2.83775e-05,1.2833e-05,6.09068e-07,0.000619443,1.6437e-05,-7.21274e-06,0.000124213,1.11255e-05,4
-2.89072e-05,1.38186e-05,2.39028e-06,-9.31444e-06,1.14512e-05,-1.06634e-05,8.9977e-05,4.39117e-06,4
-3.07187e-05,1.41533e-05,-7.99107e-07,-0.000686166,5.47111e-06,-1.35595e-05,4.54544e-05,-2.96337e-06,4
-3.25153e-05,1.31661e-05,-8.21946e-06,-0.000821875,9.74822e-07,-1.31626e-05,-8.34902e-06,-8.23866e-06,4
-3.25365e-05,1.23283e-05,-1.62424e-05,-0.000544681,3.69248e-06,-1.00316e-05,-5.07928e-05,-1.1775e-05,4
-2.95263e-05,1.41295e-05,-2.24524e-05,-0.000198386,1.38842e-05,-2.51387e-06,-4.92537e-05,-1.40879e-05,4
-2.65766e-05,1.71972e-05,-2.13128e-05,-5.13843e-05,2.45772e-05,5.40316e-06,-1.59893e-05,-1.44726e-05,4
-2.54131e-05,1.75999e-05,-1.5791e-05,-6.06277e-05,2.79099e-05,8.04543e-06,2.23757e-05,-1.18294e-05,4
-2.39762e-05,1.5867e-05,-1.07894e-05,-0.00010266,2.36037e-05,4.25838e-06,3.95205e-05,-8.04594e-06,4
-2.52482e-05,1.39988e-05,-1.0976e-05,-0.000102263,1.63044e-05,-1.11064e-06,3.21102e-05,-5.19168e-06,4
-2.81007e-05,1.30226e-05,-1.58258e-05,-5.87353e-05,7.20142e-06,-3.27881e-06,1.82256e-05,-3.31164e-06,4
-2.95659e-05,1.38173e-05,-1.9472e-05,2.75769e-05,7.83083e-07,-2.61215e-06,5.16356e-06,-1.04622e-06,4
-2.84145e-05,1.46181e-05,-2.04824e-05,0.000142807,3.01191e-06,-3.00373e-06,-1.49581e-05,4.79175e-06,4
-2.6678e-05,1.36064e-05,-2.40463e-05,0.00017966,1.10607e-05,-4.94515e-06,-3.50583e-05,1.64945e-05,4
-2.72398e-05,1.12212e-05,-3.19065e-05,0.000100615,1.60209e-05,-8.16982e-06,-3.22408e-05,3.28696e-05,4
-2.98874e-05,8.87438e-06,-3.7657e-05,-4.00763e-05,1.39747e-05,-1.31845e-05,-5.41286e-06,4.76281e-05,4
-3.33796e-05,7.67829e-06,-3.79496e-05,-0.000111868,8.62921e-06,-1.73278e-05,2.89217e-05,5.46809e-05,4
-3.4903e-05,7.76797e-06,-3.35456e-05,-8.31864e-05,6.64168e-06,-1.81159e-05,5.11022e-05,5.31219e-05,4
-3.35961e-05,8.45029e-06,-2.55547e-05,4.29881e-07,9.79428e-06,-1.62891e-05,4.42193e-05,4.63597e-05,4
-3.08564e-05,9.08046e-06,-1.37269e-05,5.06196e-05,1.35449e-05,-1.43046e-05,-3.01284e-06,3.82429e-05,4
-2.90444e-05,9.68809e-06,-6.93264e-08,6.3517e-05,1.32869e-05,-1.32322e-05,-7.92355e-05,3.10235e-05,4
-2.88728e-05,1.16534e-05,1.36744e-05,7.17547e-05,9.97961e-06,-1.37154e-05,-0.000150256,2.55779e-05,4
-2.97942e-05,1.4754e-05,2.31057e-05,8.5265e-05,7.74831e-06,-1.45798e-05,-0.000181573,2.05118e-05,4
-3.06626e-05,1.63641e-05,2.48537e-05,5.15172e-05,6.27431e-06,-1.58672e-05,-0.000153713,1.21095e-05,4
-3.15615e-05,1.54414e-05,1.99922e-05,-4.56577e-05,2.87278e-06,-1.90356e-05,-6.07981e-05,-2.61471e-06,4
-3.23437e-05,1.50453e-05,1.34075e-05,-0.000153041,2.81714e-06,-2.32251e-05,4.91941e-05,-2.22282e-05,4
-3.21488e-05,1.73284e-05,1.05514e-05,-0.000211028,1.03551e-05,-2.30506e-05,7.52612e-05,-4.24058e-05,4
-3.03547e-05,1.9797e-05,9.10586e-06,-0.000223801,2.01431e-05,-1.77392e-05,2.6754e-05,-5.72901e-05,4
-2.84286e-05,2.06624e-05,6.26507e-06,-0.00017681,2.91995e-05,-1.06059e-05,1.31654e-05,-6.24394e-05,4
-2.80513e-05,1.94499e-05,1.61443e-06,-4.99145e-05,3.36277e-05,-4.43093e-06,5.79256e-05,-5.67788e-05,4
-2.89139e-05,1.75437e-05,-3.39818e-06,8.92206e-05,3.33124e-05,-1.07762e-06,0.000123275,-4.52599e-05,4
-2.97162e-05,1.56383e-05,-7.62893e-06,0.000182407,3.30852e-05,1.7706e-06,0.000173393,-3.59092e-05,4
-2.84891e-05,1.32903e-05,-1.04592e-05,0.000178428,3.23721e-05,4.2563e-06,0.000168523,-3.01292e-05,4
-2.85724e-05,1.27798e-05,-1.00414e-05,0.000107877,2.7278e-05,1.53137e-06,8.57048e-05,-2.73246e-05,4
-3.13541e-05,1.1629e-05,-7.72974e-06,6.67431e-05,1.53398e-05,-8.41706e-06,-1.83197e-05,-2.42805e-05,4
-3.41141e-05,4.33623e-06,-6.1844e-06,0.000101267,2.21893e-06,-1.9312e-05,-8.44737e-05,-1.99284e-05,4
-3.60345e-05,-7.74083e-06,-6.65017e-06,0.000150753,-2.45197e-06,-2.81641e-05,-0.000114445,-1.60808e-05,4
-3.66885e-05,-1.59638e-05,-9.19527e-06,0.000148075,9.42874e-07,-3.35863e-05,-0.000101012,-1.30302e-05,4
-3.65874e-05,-1.70301e-05,-1.15094e-05,6.78246e-05,3.23103e-06,-3.33357e-05,-6.99395e-05,-1.08819e-05,4
-3.67395e-05,-1.63894e-05,-1.31143e-05,-2.94979e-05,2.36891e-07,-2.89151e-05,-4.35444e-05,-8.39038e-06,4
-3.74112e-05,-1.85433e-05,-1.74971e-05,-6.31449e-05,-4.11059e-06,-2.12691e-05,2.92403e-05,-5.06965e-06,4
-3.7617e-05,-2.23882e-05,-2.3843e-05,-3.82619e-05,-3.31997e-06,-1.06162e-05,0.000172818,-1.9887e-06,4
-3.73727e-05,-2.01889e-05,-2.71744e-05,-3.08166e-05,2.81388e-06,-2.73924e-06,0.000293965,4.58175e-08,4
-3.69581e-05,-8.16419e-06,-2.59884e-05,-7.22927e-05,9.20151e-06,-3.60679e-06,0.00028935,2.81913e-06,4
-3.5785e-05,9.38485e-06,-2.36168e-05,-0.000106526,1.21185e-05,-9.85366e-06,0.000178018,7.09514e-06,4
-3.35748e-05,2.45387e-05,-2.19712e-05,-6.03764e-05,1.32765e-05,-1.42777e-05,6.63731e-05,1.35183e-05,4
-3.08724e-05,3.31058e-05,-1.87046e-05,5.223e-05,1.57261e-05,-1.45982e-05,2.28034e-05,2.03639e-05,4
-2.8952e-05,3.74134e-05,-1.27265e-05,0.000145401,1.85068e-05,-1.2526e-05,3.57988e-05,2.39386e-05,4
-2.81838e-05,4.0584e-05,-7.1854e-06,0.000157892,1.94148e-05,-1.01347e-05,5.90558e-05,2.39173e-05,4
-2.78592e-05,4.28291e-05,-6.14953e-06,7.49765e-05,1.76554e-05,-9.09789e-06,6.22041e-05,2.3469e-05,4
-2.91792e-05,4.18307e-05,-1.11874e-05,-8.36619e-05,1.47972e-05,-9.3311e-06,4.22452e-05,2.3918e-05,4
-3.24608e-05,3.73895e-05,-1.9266e-05,-0.000232642,1.11646e-05,-9.97413e-06,1.56405e-05,2.43295e-05,4
-3.49706e-05,3.07798e-05,-2.28087e-05,-0.000264322,8.48563e-06,-1.02101e-05,4.71467e-06,2.67068e-05,4
-3.5553e-05,1.94431e-05,-1.934e-05,-0.000162024,7.5986e-06,-1.22728e-05,1.95501e-05,3.51861e-05,4
-3.44195e-05,8.4406e-06,-1.52403e-05,-4.758e-06,8.26318e-06,-1.67125e-05,3.74947e-05,4.48538e-05,4
-3.12257e-05,2.51472e-06,-1.59495e-05,0.000114215,1.12504e-05,-1.85658e-05,1.9309e-05,4.59998e-05,4
-2.74146e-05,-1.39491e-05,-1.98413e-05,0.000174638,1.39632e-05,-1.388e-05,-4.22081e-05,4.08692e-05,4
-2.48132e-05,-5.12486e-05,-2.0327e-05,0.00018641,1.45328e-05,-7.15273e-06,-0.000107372,3.94464e-05,4
-2.18506e-05,-9.05779e-05,-1.41011e-05,0.000115386,1.49605e-05,-3.35345e-06,-0.000138378,4.21385e-05,4
-1.98813e-05,-9.55344e-05,-7.79755e-06,1.0709e-05,1.75191e-05,-4.41985e-06,-0.000133563,4.15568e-05,4
-2.05583e-05,-5.2638e-05,-3.50886e-06,-3.65537e-05,2.12715e-05,-6.38758e-06,-6.63858e-05,3.65978e-05,4
-2.1709e-05,1.92715e-05,2.97846e-06,-5.30591e-05,2.58838e-05,-5.78702e-06,5.70431e-05,2.75898e-05,4
-2.0984e-05,9.07033e-05,1.42993e-05,-3.45993e-05,3.08895e-05,-5.66386e-06,0.000132145,1.47738e-05,4
-1.91374e-05,0.000136503,2.57305e-05,4.24717e-05,3.22919e-05,-7.33205e-06,0.00010158,-1.50849e-07,4
-2.0013e-05,0.000148923,2.67656e-05,0.000128369,2.29184e-05,-1.0441e-05,2.95624e-05,-1.71701e-05,4
-2.36571e-05,0.000134358,1.61214e-05,0.000102631,6.08544e-06,-1.23557e-05,-8.67199e-06,-3.67338e-05,4
-2.58754e-05,0.000106453,1.20076e-06,3.81829e-06,-4.0333e-06,-1.29483e-05,-1.13431e-05,-5.45275e-05,4
-2.56904e-05,7.77052e-05,-8.50172e-06,3.78521e-05,-3.29273e-06,-1.18465e-05,-3.23588e-05,-6.48626e-05,4
-2.61433e-05,5.30306e-05,-1.10252e-05,0.000276179,1.18403e-07,-1.0582e-05,-8.17294e-05,-6.59927e-05,4
-2.91926e-05,3.17965e-05,-1.05623e-05,0.000579829,-1.60705e-06,-1.30705e-05,-0.000106569,-5.70252e-05,4
-3.39397e-05,1.55562e-05,-1.05968e-05,0.000714964,-5.58568e-06,-1.88005e-05,-9.03354e-05,-3.85772e-05,4
-3.68946e-05,6.9274e-06,-1.44472e-05,0.000457932,-6.23518e-06,-2.1252e-05,-5.63981e-05,-1.57197e-05,4
-3.67539e-05,5.23469e-06,-2.65921e-05,-0.000181417,-2.71415e-06,-1.616e-05,3.36413e-06,2.08762e-06,4
-3.57835e-05,5.46082e-06,-4.45407e-05,-0.000741458,2.23522e-06,-7.64917e-06,7.09962e-05,8.76032e-06,4
-3.5846e-05,3.9095e-06,-5.74043e-05,-0.000740426,6.50694e-06,-1.61037e-06,7.3012e-05,7.75585e-06,4
-3.5881e-05,2.34242e-06,-5.98341e-05,-0.000303227,9.83453e-06,3.46938e-06,1.48037e-05,7.78074e-06,4
-3.42724e-05,3.43155e-06,-5.28677e-05,2.21734e-05,1.28516e-05,1.02363e-05,-2.44791e-05,1.41187e-05,4
-3.16158e-05,6.49404e-06,-3.51712e-05,-4.74654e-05,1.54304e-05,1.40209e-05,-1.87286e-05,2.47019e-05,4
-2.89796e-05,8.6444e-06,-8.76675e-06,-0.000365584,2.05327e-05,1.20136e-05,-4.83497e-07,3.2081e-05,4
-2.69204e-05,9.90032e-06,1.20932e-05,-0.000581029,2.86341e-05,6.29416e-06,2.73149e-06,2.6031e-05,4
-2.75387e-05,9.63081e-06,1.13961e-05,-0.000494043,3.18027e-05,1.13746e-06,4.21532e-07,4.42074e-07,4
-2.94615e-05,7.88031e-06,-3.32957e-06,-0.000206982,2.89859e-05,-3.87724e-10,9.93966e-06,-3.82047e-05,4
-2.87866e-05,7.58948e-06,-1.16935e-05,6.95528e-05,2.74861e-05,3.58257e-06,2.45383e-05,-8.10275e-05,4
-2.5964e-05,9.93358e-06,-2.48716e-06,0.000125566,3.31235e-05,5.08357e-06,2.09615e-05,-0.000110742,4
-2.38673e-05,1.28384e-05,2.22594e-05,9.6979e-05,4.11448e-05,-2.57818e-06,1.41118e-06,-0.000112766,4
-2.46115e-05,1.48516e-05,4.52033e-05,0.000339917,4.27751e-05,-1.35716e-05,-2.99437e-06,-9.15876e-05,4
-2.89067e-05,1.49243e-05,5.36449e-05,0.00079618,3.56799e-05,-1.92273e-05,8.38503e-06,-6.02364e-05,4
-3.42299e-05,1.13304e-05,4.73863e-05,0.0011429,2.47729e-05,-2.08571e-05,1.05222e-05,-3.87169e-05,4
-3.88072e-05,4.6163e-06,3.79211e-05,0.00102542,1.5699e-05,-2.24967e-05,1.34557e-06,-2.77319e-05,4
-4.12049e-05,-1.57916e-06,2.81972e-05,0.000354356,9.5794e-06,-2.24275e-05,3.17369e-06,-1.93201e-05,4
-4.02901e-05,-3.51382e-06,1.34557e-05,-0.000441894,8.00481e-06,-1.71756e-05,2.6784e-05,-1.10564e-05,4
-3.94371e-05,-3.11497e-06,-6.08969e-06,-0.00083525,8.48963e-06,-7.15388e-06,5.71728e-05,-3.53582e-06,4
-3.89059e-05,-3.12732e-06,-2.24866e-05,-0.000721575,6.61048e-06,2.13677e-06,7.2984e-05,2.52795e-06,4
-3.89393e-05,-3.75723e-06,-2.4019e-05,-0.000368642,2.23241e-06,4.22165e-06,6.82209e-05,8.45473e-06,4
-3.91215e-05,-4.89845e-06,-1.46917e-05,-6.87163e-05,-2.06061e-06,-2.65524e-06,4.90302e-05,1.36829e-05,4
-3.90172e-05,-5.90123e-06,-5.89483e-06,0.000119338,-3.40542e-06,-1.17805e-05,2.33987e-05,1.83419e-05,4
-3.87724e-05,-6.42083e-06,-4.69383e-06,0.000240702,-1.29325e-07,-1.59526e-05,1.55391e-06,2.1655e-05,4
-3.73242e-05,-6.93072e-06,-9.66345e-06,0.000180647,7.51867e-06,-1.41119e-05,-4.46009e-06,2.50919e-05,4
-3.39377e-05,-6.21541e-06,-1.78637e-05,-0.000134136,1.59199e-05,-8.99365e-06,8.23238e-06,2.93103e-05,4
-3.00634e-05,-2.92063e-06,-2.61137e-05,-0.00048213,2.1529e-05,-3.26622e-06,2.65296e-05,3.73614e-05,4
-2.84271e-05,1.79016e-08,-3.06691e-05,-0.000526711,2.36833e-05,-8.15163e-07,3.29747e-05,4.82968e-05,4
-2.76343e-05,1.16195e-06,-2.7829e-05,-0.000303443,2.56364e-05,-2.98657e-06,2.53484e-05,5.92814e-05,4
-2.66723e-05,2.41981e-06,-1.96466e-05,-0.000150134,2.89814e-05,-5.92777e-06,1.48825e-05,6.7778e-05,4
-2.73235e-05,3.66769e-06,-1.50431e-05,-0.000198655,2.98871e-05,-9.3355e-06,4.7351e-06,7.41237e-05,4
-2.89456e-05,3.22114e-06,-1.80829e-05,-0.000225172,2.72422e-05,-1.19387e-05,-4.27137e-06,8.08621e-05,4
-2.88401e-05,2.41261e-06,-2.22381e-05,-0.000115088,2.25121e-05,-1.099e-05,-8.1523e-07,8.73964e-05,4
-2.93163e-05,1.83427e-06,-2.38577e-05,6.14084e-06,1.22006e-05,-9.43702e-06,1.8806e-05,8.85537e-05,4
-3.1711e-05,6.17003e-07,-2.71891e-05,4.60549e-05,-1.11736e-06,-9.67216e-06,3.82984e-05,8.12709e-05,4
-3.36743e-05,4.09742e-07,-3.3298e-05,3.66555e-05,-6.01838e-06,-7.70631e-06,3.63709e-05,6.63248e-05,4
-3.26994e-05,1.67307e-06,-3.92113e-05,1.61416e-05,1.77913e-06,-3.68249e-06,7.02817e-07,4.00917e-05,4
-3.10952e-05,3.30119e-06,-3.48037e-05,-4.02286e-05,1.45917e-05,-4.80199e-06,-4.25216e-05,3.77276e-06,4
-3.03065e-05,6.17536e-06,-1.69872e-05,-0.000123626,2.32387e-05,-1.09839e-05,-5.74782e-05,-3.61855e-05,4
-2.80882e-05,1.03603e-05,2.38971e-06,-0.000145677,2.62157e-05,-1.6142e-05,-3.41442e-05,-6.40067e-05,4
-2.58377e-05,1.20644e-05,9.23818e-06,-5.87636e-05,2.38472e-05,-1.82822e-05,2.1685e-05,-6.40875e-05,4
-2.56032e-05,1.05315e-05,4.5693e-06,6.85944e-05,1.79318e-05,-1.71948e-05,7.3885e-05,-4.25951e-05,4
-2.75462e-05,9.37214e-06,4.85654e-06,0.000128863,1.14863e-05,-1.54216e-05,8.51159e-05,-2.00208e-05,4
-3.00944e-05,9.06223e-06,1.38204e-05,8.77501e-05,4.8875e-06,-1.5329e-05,6.00965e-05,-1.20238e-05,4
-3.2671e-05,7.69656e-06,1.85981e-05,5.01715e-05,7.88303e-07,-1.6042e-05,2.86122e-05,-1.69727e-05,4
-3.35364e-05,5.54019e-06,1.34885e-05,7.46175e-05,1.67558e-06,-1.61017e-05,2.91299e-06,-2.67719e-05,4
-3.17822e-05,6.39025e-06,8.2899e-06,0.000114099,7.33714e-06,-1.51503e-05,-2.33298e-05,-3.52614e-05,4
-2.98914e-05,1.07702e-05,1.02017e-05,0.000139789,1.45196e-05,-1.36101e-05,-4.76052e-05,-4.0105e-05,4
-2.88165e-05,1.38464e-05,1.58525e-05,0.00017507,1.85585e-05,-1.22848e-05,-5.24137e-05,-4.03486e-05,4
-2.80891e-05,1.43333e-05,1.89742e-05,0.00019947,1.88195e-05,-1.05624e-05,-3.80549e-05,-3.68443e-05,4
-2.71069e-05,1.38023e-05,1.64539e-05,0.000157224,1.81945e-05,-6.93779e-06,-2.69552e-05,-3.22064e-05,4
-2.63387e-05,1.39606e-05,8.99707e-06,8.87033e-05,1.73199e-05,-3.91316e-06,-2.49383e-05,-2.83306e-05,4
-2.74275e-05,1.48488e-05,-1.4421e-07,8.87158e-05,1.42091e-05,-4.21326e-06,-2.05636e-05,-2.67553e-05,4
-2.97699e-05,1.55746e-05,-5.49893e-06,0.000153418,1.08132e-05,-5.5766e-06,-1.4357e-05,-2.44863e-05,4
-3.11304e-05,1.57526e-05,-4.48739e-06,0.00022168,1.00675e-05,-6.20685e-06,-1.56836e-05,-1.88484e-05,4
-3.16162e-05,1.48027e-05,1.55529e-06,0.000287774,1.15301e-05,-8.67329e-06,-1.39364e-05,-1.02959e-05,4
-3.24968e-05,1.22131e-05,7.36546e-06,0.000364041,1.39473e-05,-1.3796e-05,8.58938e-06,-2.79132e-06,4
-3.30599e-05,8.21881e-06,7.74744e-06,0.000337798,1.82072e-05,-1.92968e-05,3.40633e-05,2.2173e-06,4
-3.20012e-05,6.45137e-06,8.10822e-07,2.48623e-05,2.49455e-05,-2.08366e-05,3.62752e-05,5.1276e-06,4
-2.90388e-05,8.30302e-06,-9.82245e-06,-0.000475618,3.03362e-05,-1.70905e-05,4.69487e-05,6.72044e-06,4
-2.64412e-05,1.05469e-05,-1.81746e-05,-0.00071434,3.06749e-05,-1.03599e-05,9.17635e-05,6.24978e-06,4
-2.62946e-05,1.18441e-05,-1.84138e-05,-0.000517255,2.83621e-05,-6.94476e-06,0.000113091,5.02498e-06,4
-2.863e-05,1.21298e-05,-1.38776e-05,-0.000201629,2.5244e-05,-9.80308e-06,7.77789e-05,6.08471e-06,4
-3.22334e-05,1.25927e-05,-1.30891e-05,-4.71242e-05,2.16453e-05,-1.45595e-05,1.91387e-05,1.12558e-05,4
-3.37536e-05,1.46007e-05,-1.53743e-05,-6.04733e-05,1.78947e-05,-1.40933e-05,-2.33592e-05,2.28901e-05,4
-3.31746e-05,1.8293e-05,-1.51219e-05,-8.85248e-05,1.26449e-05,-6.9778e-06,-2.50156e-05,3.86365e-05,4
-3.16927e-05,2.15695e-05,-1.18495e-05,-5.83174e-05,4.58492e-06,-1.21172e-06,-3.99301e-06,4.86094e-05,4
-2.90641e-05,2.2016e-05,-9.95525e-06,1.13873e-05,-1.52448e-06,7.48261e-07,8.87374e-06,4.99283e-05,4
-2.77769e-05,2.0403e-05,-8.61912e-06,7.78415e-05,-9.73078e-07,-7.77679e-07,-7.73518e-06,4.82323e-05,4
-2.84953e-05,1.81842e-05,-6.01899e-06,7.84633e-05,2.47218e-06,-5.08577e-06,-5.34075e-05,4.77683e-05,4
-2.87114e-05,1.76085e-05,-2.25941e-06,9.40034e-06,8.09655e-06,-8.74989e-06,-0.000115068,4.97643e-05,4
-2.70363e-05,1.91827e-05,-5.28301e-07,-9.16591e-05,1.37366e-05,-9.36228e-06,-0.000165019,4.63988e-05,4
-2.46592e-05,2.11485e-05,-1.31671e-06,-0.000133444,1.60023e-05,-8.66178e-06,-0.000157647,3.42802e-05,4
-2.32125e-05,2.2487e-05,-8.7768e-07,-8.73271e-05,1.60312e-05,-7.70502e-06,-7.42062e-05,1.79317e-05,4
-2.323e-05,2.45972e-05,1.72333e-06,-2.08176e-05,1.59977e-05,-6.77449e-06,2.75495e-05,3.69104e-06,4
-2.4438e-05,2.62322e-05,4.46883e-06,3.49956e-05,1.69165e-05,-7.55038e-06,9.07892e-05,-3.00941e-06,4
-2.67543e-05,2.56827e-05,4.23534e-06,0.000105421,1.6679e-05,-1.11241e-05,0.000136904,-1.69908e-06,4
-3.05103e-05,2.28753e-05,-1.16195e-07,0.000164324,1.3715e-05,-1.55628e-05,0.000162682,4.34441e-06,4
-3.441e-05,1.94871e-05,-6.01287e-06,0.000138465,1.03702e-05,-1.68835e-05,0.000121705,8.89089e-06,4
-3.65489e-05,1.69241e-05,-1.05917e-05,1.98866e-05,9.23882e-06,-1.55239e-05,2.95298e-05,5.53742e-06,4
-3.6684e-05,1.47603e-05,-1.53767e-05,-0.000116207,1.01864e-05,-1.48978e-05,-3.2337e-05,-6.85319e-06,4
-3.54928e-05,1.37417e-05,-2.06976e-05,-0.000149955,1.40065e-05,-1.5256e-05,-3.33237e-05,-2.33398e-05,4
-3.36754e-05,1.44929e-05,-2.28105e-05,-1.72635e-05,1.94451e-05,-1.3031e-05,1.06265e-05,-3.88376e-05,4
-3.33882e-05,1.56222e-05,-1.90106e-05,0.000220542,2.21623e-05,-1.03195e-05,9.14832e-05,-4.90436e-05,4
-3.56247e-05,1.43315e-05,-1.22954e-05,0.000430144,2.11901e-05,-1.26296e-05,0.000170274,-5.00809e-05,4
-3.75282e-05,1.02643e-05,-8.15718e-06,0.000510389,1.83925e-05,-1.79132e-05,0.000173633,-4.26416e-05,4
-3.67519e-05,6.46063e-06,-7.10788e-06,0.000411336,1.49898e-05,-1.77758e-05,9.75619e-05,-3.23563e-05,4
-3.50458e-05,6.25833e-06,-5.8673e-06,0.000203866,1.12795e-05,-1.26299e-05,1.90873e-05,-2.28838e-05,4
-3.38886e-05,8.84667e-06,-4.48757e-06,-5.51712e-06,7.62343e-06,-7.59975e-06,8.03478e-06,-1.61226e-05,4
-3.19845e-05,1.19155e-05,-6.34815e-06,-0.000177268,6.74088e-06,-3.04046e-06,6.8368e-05,-1.35605e-05,4
-3.04182e-05,1.29134e-05,-1.44114e-05,-0.000294072,7.27101e-06,1.99781e-06,0.000146507,-1.25066e-05,4
-3.02186e-05,1.41106e-05,-2.27645e-05,-0.000269693,7.17376e-06,2.94329e-06,0.0001609,-1.0898e-05,4
-3.07207e-05,1.69242e-05,-2.39314e-05,-7.70895e-05,7.50572e-06,-8.61522e-07,8.18354e-05,-8.61695e-06,4
-3.18163e-05,1.77793e-05,-2.19851e-05,9.88621e-05,6.83832e-06,-4.29078e-06,-3.3674e-05,-6.49433e-06,4
-3.37565e-05,1.51615e-05,-2.18361e-05,0.000136445,3.39564e-06,-6.41015e-06,-0.00012022,-4.17947e-06,4
-3.59238e-05,1.22501e-05,-2.27312e-05,6.07302e-05,5.10465e-07,-6.93878e-06,-0.00014992,-1.02223e-06,4
-3.59284e-05,1.13289e-05,-2.19592e-05,-4.54616e-05,4.67547e-07,-8.66822e-06,-0.000118171,1.12683e-06,4
-3.31614e-05,1.18538e-05,-1.81355e-05,-8.74687e-05,2.08558e-06,-1.16623e-05,-6.14916e-06,1.79957e-06,4
-3.02143e-05,1.24173e-05,-1.26178e-05,-2.64304e-05,6.83996e-06,-1.3395e-05,0.000114354,2.8185e-06,4
-2.88338e-05,1.12775e-05,-8.82263e-06,5.80551e-05,1.30376e-05,-1.29471e-05,0.000140379,5.68211e-06,4
-2.71237e-05,9.68646e-06,-7.99438e-06,6.66319e-05,1.88148e-05,-9.69723e-06,8.61386e-05,1.05902e-05,4
-2.40389e-05,1.01035e-05,-9.10167e-06,-4.12936e-06,2.27479e-05,-3.99175e-06,3.74496e-05,1.52685e-05,4
-2.09817e-05,1.23494e-05,-1.35336e-05,-8.46643e-05,2.43839e-05,5.91814e-07,3.87296e-05,1.80416e-05,4
-2.08053e-05,1.29973e-05,-2.1832e-05,-0.000120307,2.33481e-05,1.23578e-07,6.52883e-05,1.91225e-05,4
-2.40348e-05,1.16387e-05,-3.16342e-05,-0.000130348,1.93285e-05,-5.27362e-06,7.18826e-05,1.95449e-05,4
-2.74106e-05,1.05784e-05,-3.98063e-05,-0.0001428,1.48589e-05,-1.17973e-05,2.08381e-05,1.98581e-05,4
-2.77361e-05,1.10164e-05,-4.287e-05,-0.000137792,1.33254e-05,-1.42165e-05,-7.85397e-05,1.88077e-05,4
-2.59111e-05,1.20566e-05,-3.75047e-05,-7.39051e-05,1.57183e-05,-1.20559e-05,-0.000169475,1.63839e-05,4
-2.46366e-05,1.20515e-05,-2.21168e-05,1.81986e-05,1.75311e-05,-9.88619e-06,-0.000188333,1.32925e-05,4
-2.4154e-05,1.06371e-05,2.07729e-06,7.40679e-05,1.50527e-05,-1.06325e-05,-0.000117018,9.70347e-06,4
-2.34618e-05,1.08584e-05,2.88188e-05,1.55365e-05,1.13414e-05,-1.18289e-05,9.85982e-06,6.02179e-06,4
-2.24526e-05,1.37605e-05,4.60037e-05,-0.00018927,1.1314e-05,-1.1994e-05,0.000126606,3.24696e-06,4
-2.27703e-05,1.62485e-05,4.66063e-05,-0.000298536,1.161e-05,-1.37878e-05,0.000181904,1.38118e-06,4
-2.40304e-05,1.83525e-05,3.85102e-05,-5.1086e-05,9.38668e-06,-1.62926e-05,0.000154004,-3.02747e-07,4
-2.50708e-05,2.06357e-05,3.16936e-05,0.00037056,8.41957e-06,-1.50295e-05,6.56599e-05,-9.99061e-07,4
-2.61704e-05,2.05703e-05,2.79389e-05,0.000719918,9.68132e-06,-9.35673e-06,1.25643e-05,-8.63002e-07,4
-2.60522e-05,1.92083e-05,2.83866e-05,0.000946884,1.08235e-05,-3.31566e-06,3.48316e-05,-9.64443e-07,4
-2.5961e-05,1.83938e-05,2.73189e-05,0.000839353,9.47527e-06,-1.65726e-06,3.52358e-05,8.89903e-07,4
-2.7148e-05,1.72938e-05,1.53926e-05,0.000132917,3.47331e-06,-2.65506e-06,-1.75551e-05,7.33775e-06,4
-2.70714e-05,1.67726e-05,-8.30056e-07,-0.000720409,-9.68867e-07,2.27885e-07,-4.80806e-05,1.80337e-05,4
-2.51675e-05,1.60879e-05,-1.06471e-05,-0.00102716,3.706e-07,6.39106e-06,-2.80072e-05,2.656e-05,4
-2.43771e-05,1.3897e-05,-1.38434e-05,-0.000758822,3.09427e-06,7.25916e-06,5.62391e-06,3.08782e-05,4
-2.73228e-05,1.12196e-05,-1.39324e-05,-0.000178883,4.80991e-06,-1.96968e-07,2.09908e-05,3.15418e-05,4
-3.10954e-05,9.53516e-06,-1.27828e-05,0.000467418,4.68886e-06,-1.11974e-05,2.26183e-05,2.94498e-05,4
-3.29451e-05,9.64544e-06,-1.22451e-05,0.000773013,3.29587e-06,-2.01458e-05,1.13709e-05,2.52201e-05,4
-3.28166e-05,9.84636e-06,-1.71451e-05,0.000271307,2.3193e-06,-2.3715e-05,-1.55144e-05,1.86272e-05,4
-3.27424e-05,7.77863e-06,-2.69796e-05,-0.000581879,4.23668e-06,-2.34303e-05,-5.33142e-05,1.66765e-05,4
-3.23078e-05,4.91213e-06,-3.55284e-05,-0.000912442,8.80114e-06,-2.002e-05,-6.85067e-05,1.9902e-05,4
-3.03907e-05,5.65112e-06,-3.68353e-05,-0.000621417,1.4329e-05,-1.31636e-05,-4.13525e-05,2.08767e-05,4
-2.72106e-05,9.64634e-06,-3.12943e-05,-0.000184473,1.81289e-05,-5.17932e-06,2.82411e-06,1.5718e-05,4
-2.40181e-05,1.2973e-05,-2.47165e-05,2.56116e-05,1.87142e-05,5.07731e-07,3.25802e-05,7.64169e-06,4
-2.25558e-05,1.42713e-05,-2.23146e-05,2.79788e-05,1.82641e-05,3.34058e-06,3.57437e-05,5.49638e-07,4
-2.30962e-05,1.36558e-05,-2.34741e-05,-4.24554e-05,2.00313e-05,3.47455e-06,1.89443e-05,-4.2494e-06,4
-2.46093e-05,1.25433e-05,-2.02251e-05,-6.54511e-05,2.31205e-05,4.63199e-07,-3.57298e-06,-5.94905e-06,4
-2.53379e-05,1.24173e-05,-8.29835e-06,-6.05687e-05,2.36214e-05,-4.79189e-06,-1.48517e-05,-5.04167e-06,4
-2.63024e-05,1.28225e-05,8.18027e-06,-0.00015467,2.17805e-05,-1.00446e-05,-1.02829e-05,-6.11706e-06,4
-2.78456e-05,1.27854e-05,2.25795e-05,-0.000357962,2.15858e-05,-1.33278e-05,1.62745e-06,-1.46545e-05,4
-2.93549e-05,1.37041e-05,2.8662e-05,-0.000416618,2.55918e-05,-1.4525e-05,7.55223e-06,-3.14118e-05,4
-2.97503e-05,1.56909e-05,2.10255e-05,-0.00017219,3.01043e-05,-1.19933e-05,4.65561e-06,-4.96845e-05,4
-3.05417e-05,1.6217e-05,3.99717e-06,0.000228672,2.94573e-05,-6.69062e-06,1.1744e-07,-6.24313e-05,4
-3.15126e-05,1.52501e-05,-9.54363e-06,0.00054363,2.46866e-05,-3.2545e-06,1.26088e-06,-6.77866e-05,4
-3.23472e-05,1.45085e-05,-1.28394e-05,0.000613462,2.06264e-05,-5.04342e-06,5.83512e-06,-6.56031e-05,4
-3.3434e-05,1.31339e-05,-1.02715e-05,0.00046407,1.73169e-05,-1.09012e-05,6.53955e-06,-5.50306e-05,4
-3.44208e-05,1.08215e-05,-8.57132e-06,0.000141591,1.36865e-05,-1.56992e-05,2.386e-06,-3.98658e-05,4
-3.5521e-05,9.01086e-06,-1.21215e-05,-0.000295882,9.91341e-06,-1.66919e-05,-1.90952e-05,-2.68906e-05,4
-3.52421e-05,1.03795e-05,-1.23568e-05,-0.00047301,9.28371e-06,-1.52421e-05,-5.31654e-05,-1.89208e-05,4
-3.39562e-05,1.48062e-05,-1.63656e-06,-0.000269347,1.18208e-05,-1.32372e-05,-6.31999e-05,-1.51396e-05,4
-3.37812e-05,1.7129e-05,9.81451e-06,-1.30599e-05,1.33766e-05,-1.28191e-05,-4.37254e-05,-1.19767e-05,4
-3.387e-05,1.65359e-05,8.27634e-06,0.000144944,1.40911e-05,-1.16115e-05,-1.80372e-05,-8.25186e-06,4
-3.31012e-05,1.53316e-05,-4.21403e-06,0.000252159,1.50891e-05,-7.97257e-06,1.06427e-05,-3.50824e-06,4
-3.36307e-05,1.33821e-05,-1.64641e-05,0.000386775,1.47673e-05,-6.41878e-06,4.5311e-05,-2.89634e-07,4
-3.47792e-05,1.12513e-05,-2.00349e-05,0.000456892,1.38218e-05,-8.78628e-06,5.11141e-05,1.75188e-06,4
-3.38149e-05,1.03543e-05,-1.13223e-05,0.000420948,1.49955e-05,-1.21443e-05,1.72565e-05,3.01487e-06,4
-3.17089e-05,1.07902e-05,5.01687e-07,0.000261761,1.55472e-05,-1.27305e-05,-1.66781e-05,2.94002e-06,4
-3.00227e-05,1.31731e-05,7.85675e-06,1.50317e-05,1.22072e-05,-9.96125e-06,-2.08504e-05,3.4198e-06,4
-2.87612e-05,1.67854e-05,9.23823e-06,-0.000205774,6.95117e-06,-7.01613e-06,-4.51435e-06,4.6474e-06,4
-2.92953e-05,1.92367e-05,6.58548e-06,-0.000283229,5.45262e-06,-7.67485e-06,9.94222e-06,6.34531e-06,4
-3.16447e-05,1.84171e-05,1.2899e-06,-0.000196932,8.10079e-06,-1.17969e-05,1.96843e-05,7.74265e-06,4
-3.48874e-05,1.45506e-05,-5.50117e-06,-9.49727e-05,1.03274e-05,-1.58996e-05,2.92268e-05,8.8453e-06,4
-3.85902e-05,1.13935e-05,-1.20178e-05,-0.000111161,1.03633e-05,-1.62604e-05,4.09782e-05,8.70989e-06,4
-4.15375e-05,1.034e-05,-1.70073e-05,-0.000184817,1.09006e-05,-1.32524e-05,4.8702e-05,7.07838e-06,4
-4.27334e-05,8.42517e-06,-2.17131e-05,-0.000130613,1.31859e-05,-1.0486e-05,4.71726e-05,4.86534e-06,4
-4.31767e-05,3.18988e-06,-2.82585e-05,2.17708e-05,1.36161e-05,-1.10318e-05,3.101e-05,3.61413e-06,4
-4.35208e-05,-2.8547e-06,-3.54187e-05,7.05621e-05,1.20349e-05,-1.44765e-05,1.46284e-07,2.50277e-06,4
-4.21807e-05,-5.23837e-06,-4.13332e-05,-6.37768e-05,1.34551e-05,-1.49829e-05,-3.76346e-05,1.23906e-06,4
-3.87074e-05,-3.35309e-06,-4.42089e-05,-0.000128061,1.92381e-05,-9.46833e-06,-6.80823e-05,1.43102e-06,4
-3.47927e-05,-4.12581e-07,-4.37524e-05,4.08339e-05,2.32719e-05,-4.29548e-06,-7.92506e-05,3.89545e-06,4
-3.29501e-05,1.46302e-06,-4.06812e-05,0.000240506,1.9778e-05,-3.85913e-06,-6.87538e-05,7.39778e-06,4
-3.23599e-05,4.18086e-06,-3.51872e-05,0.000240258,1.13711e-05,-4.44752e-06,-4.77345e-05,1.37709e-05,4
-3.07844e-05,7.7724e-06,-2.22419e-05,7.91353e-05,7.24432e-06,-4.01905e-06,-3.25418e-05,2.2736e-05,4
-2.93167e-05,1.02207e-05,-5.23691e-06,-0.000121638,8.97822e-06,-4.33061e-06,-2.06434e-05,2.97641e-05,4
-3.00761e-05,1.05549e-05,3.43518e-06,-0.00027681,1.24474e-05,-5.50983e-06,-1.51526e-06,3.21063e-05,4
-3.24627e-05,9.89643e-06,2.02399e-06,-0.000289077,1.4619e-05,-5.83171e-06,2.13166e-05,2.96204e-05,4
-3.51451e-05,1.18199e-05,3.44616e-06,-0.000180932,1.27667e-05,-6.39731e-06,3.15023e-05,2.54196e-05,4
-3.57678e-05,1.52737e-05,1.46539e-05,-3.40701e-05,1.18821e-05,-6.62217e-06,-3.86534e-06,2.0722e-05,4
-3.33204e-05,1.81938e-05,2.4865e-05,0.000110088,1.41332e-05,-6.59729e-06,-5.96971e-05,1.57338e-05,4
-3.25243e-05,2.05943e-05,2.15984e-05,0.000162501,1.51099e-05,-6.56316e-06,-7.29728e-05,7.89679e-06,4
-3.33803e-05,1.90706e-05,8.21923e-06,0.000136761,1.30272e-05,-7.03428e-06,-3.70675e-05,-1.05197e-06,4
-3.35532e-05,1.49741e-05,-1.11409e-06,0.000122445,1.02049e-05,-9.73496e-06,2.65433e-05,-6.85413e-06,4
-3.30898e-05,1.27886e-05,-1.03008e-07,9.91979e-05,8.72418e-06,-1.21507e-05,8.87698e-05,-8.47647e-06,4
-3.26074e-05,1.24024e-05,4.26184e-06,-2.76527e-05,8.80559e-06,-1.35016e-05,0.000133616,-5.40381e-06,4
-3.22288e-05,1.29664e-05,2.71516e-06,-0.000251182,1.00886e-05,-1.45494e-05,0.000135882,2.19196e-06,4
-3.19548e-05,1.39038e-05,-1.53654e-06,-0.000363067,1.08636e-05,-1.58505e-05,7.86501e-05,1.26179e-05,4
-3.12335e-05,1.50731e-05,-1.03716e-06,-0.00017727,1.31753e-05,-1.72341e-05,-1.40346e-05,2.18315e-05,4
-2.97147e-05,1.54635e-05,4.32022e-06,0.00023383,1.83287e-05,-1.82345e-05,-7.11939e-05,2.59812e-05,4
-2.8587e-05,1.49478e-05,9.61878e-06,0.000589048,2.39635e-05,-1.81064e-05,-3.85159e-05,2.5594e-05,4
-2.8131e-05,1.46408e-05,1.10181e-05,0.000626811,2.66474e-05,-1.62863e-05,3.16868e-05,2.37398e-05,4
-2.86523e-05,1.46171e-05,7.02662e-06,0.000332113,2.56031e-05,-1.35703e-05,4.28483e-05,2.07185e-05,4
-2.92074e-05,1.38264e-05,-1.79593e-06,1.85787e-05,2.07456e-05,-1.09958e-05,1.00446e-05,1.69918e-05,4
-2.98596e-05,1.24258e-05,-1.37741e-05,-3.88289e-05,1.18781e-05,-9.43085e-06,5.27621e-05,1.33735e-05,4
-3.10648e-05,1.03653e-05,-2.67007e-05,9.20305e-05,2.90627e-06,-9.26113e-06,0.000189334,9.26168e-06,4
-3.18561e-05,7.17835e-06,-3.66272e-05,0.000126488,-1.63067e-06,-9.22637e-06,0.000281039,2.02395e-06,4
-3.21615e-05,4.88761e-06,-4.1522e-05,-5.49882e-05,-1.29403e-06,-7.37645e-06,0.000241364,-1.0936e-05,4
-3.31153e-05,4.45512e-06,-4.02887e-05,-0.000328331,5.96668e-07,-4.27972e-06,0.000157242,-2.83266e-05,4
-3.34188e-05,5.49271e-06,-3.41754e-05,-0.000447174,2.42138e-06,-2.86912e-06,8.84006e-05,-4.43177e-05,4
-3.15946e-05,8.08627e-06,-2.73146e-05,-0.000266543,7.05682e-06,-3.63538e-06,-2.43882e-06,-5.43424e-05,4
-2.9984e-05,1.04158e-05,-1.72901e-05,1.98624e-05,1.25625e-05,-5.33439e-06,-9.13621e-05,-5.7521e-05,4
-3.20148e-05,9.36611e-06,-2.97615e-06,7.56074e-05,1.23262e-05,-1.01594e-05,-0.000116939,-4.97366e-05,4
-3.39404e-05,7.58798e-06,4.45895e-06,-0.00012512,9.26529e-06,-1.39765e-05,-8.38103e-05,-2.80349e-05,4
-3.47932e-05,8.18337e-06,-1.36386e-06,-0.000238852,6.39831e-06,-1.15317e-05,-2.85844e-05,-5.3642e-06,4
-3.5019e-05,9.41414e-06,-1.03686e-05,-0.000138052,5.32048e-06,-6.46871e-06,3.45309e-05,6.58098e-06,4
-3.3699e-05,1.13083e-05,-1.36257e-05,-3.70748e-05,9.37581e-06,-2.7563e-06,7.89715e-05,9.29882e-06,4
-3.28936e-05,1.44727e-05,-7.16381e-06,-3.12164e-05,1.37854e-05,-2.08454e-06,4.91356e-05,9.75011e-06,4
-3.23374e-05,1.72145e-05,1.04484e-05,-7.2031e-05,1.44456e-05,-3.15362e-06,-3.88261e-05,1.5377e-05,4
-3.14021e-05,1.92319e-05,2.63276e-05,-6.79985e-05,1.45078e-05,-3.68159e-06,-0.000121192,2.59491e-05,4
-3.01388e-05,1.96653e-05,2.80466e-05,-4.79317e-05,1.63846e-05,-3.97158e-06,-0.000158325,3.62716e-05,4
-3.03211e-05,1.88196e-05,1.85625e-05,-0.000117006,1.85285e-05,-6.07115e-06,-0.000118923,3.57502e-05,4
-2.99798e-05,1.80193e-05,6.63053e-06,-0.000199415,2.0789e-05,-9.14944e-06,3.21754e-06,1.7511e-05,4
-2.86668e-05,1.7323e-05,-2.38821e-06,-0.000143438,2.44789e-05,-9.47403e-06,0.00014425,-1.6279e-05,4
-2.68567e-05,1.73864e-05,-6.21216e-06,1.98769e-05,2.96549e-05,-6.31951e-06,0.000202363,-5.31301e-05,4
-2.53952e-05,1.80668e-05,-6.94605e-06,0.000133004,3.44406e-05,-3.47874e-06,0.000156158,-7.80622e-05,4
-2.39898e-05,1.89261e-05,-8.6983e-06,0.000114488,3.51189e-05,-3.4338e-06,5.97895e-05,-8.37494e-05,4
-2.25215e-05,1.90228e-05,-1.20231e-05,-2.57847e-05,2.91872e-05,-4.16846e-06,-3.40358e-05,-6.84432e-05,4
-2.15067e-05,1.82359e-05,-1.19222e-05,-0.000207365,1.90634e-05,-5.19219e-06,-0.000104475,-4.03148e-05,4
-2.06315e-05,1.75873e-05,-4.08538e-06,-0.000305388,1.26126e-05,-8.37596e-06,-0.000147404,-1.31324e-05,4
-2.05578e-05,1.82641e-05,8.43692e-06,-0.000213974,1.32748e-05,-1.22664e-05,-0.000163438,4.23293e-06,4
-2.13047e-05,1.87579e-05,1.75088e-05,8.04818e-06,1.53792e-05,-1.38213e-05,-0.00013173,1.36612e-05,4
-2.2618e-05,1.6424e-05,1.61279e-05,0.000204203,1.42722e-05,-1.31913e-05,-3.06483e-05,2.14708e-05,4
-2.28815e-05,1.31229e-05,5.73011e-06,0.000294506,1.28478e-05,-1.13801e-05,8.66933e-05,2.92727e-05,4
-2.20752e-05,1.21708e-05,-5.78807e-06,0.000318685,1.38841e-05,-9.46897e-06,0.000148268,3.20152e-05,4
-2.1644e-05,1.32817e-05,-8.47697e-06,0.000336009,1.57928e-05,-9.29903e-06,0.000171651,2.61621e-05,4
-2.21821e-05,1.43916e-05,-5.55327e-07,0.000422696,1.54237e-05,-1.12271e-05,0.000179368,1.45839e-05,4
-2.24498e-05,1.43135e-05,9.88092e-06,0.000616699,1.05968e-05,-1.40503e-05,0.000135097,2.74026e-06,4
-2.40145e-05,1.41447e-05,1.46539e-05,0.000727415,3.97814e-06,-1.76368e-05,4.64388e-05,-4.65353e-06,4
-2.75702e-05,1.31774e-05,9.96374e-06,0.000405856,-1.75224e-06,-2.13441e-05,-3.00448e-05,-5.49871e-06,4
-3.16793e-05,1.03957e-05,-1.6655e-06,-0.00012189,-8.02059e-06,-2.24491e-05,-4.6604e-05,-1.95774e-06,4
-3.35542e-05,8.0998e-06,-8.85379e-06,-0.000195062,-1.20663e-05,-2.31465e-05,-6.71882e-06,1.61207e-06,4
-3.36524e-05,6.65708e-06,-1.00328e-05,4.89625e-05,-1.17693e-05,-2.63917e-05,3.85481e-05,1.83208e-06,4
-3.31871e-05,4.44534e-06,-1.46075e-05,5.46481e-06,-6.37703e-06,-2.70365e-05,5.25561e-05,-1.1395e-06,4
-3.10133e-05,4.13032e-06,-2.00303e-05,-0.000351827,3.15674e-06,-2.02739e-05,2.18145e-05,-4.84199e-06,4
-2.68991e-05,7.87217e-06,-2.30644e-05,-0.00059809,1.16681e-05,-9.30927e-06,-3.44595e-05,-7.8947e-06,4
-2.16192e-05,1.24427e-05,-2.59857e-05,-0.000486608,1.69234e-05,-9.89386e-07,-7.19638e-05,-9.56505e-06,4
-1.90171e-05,1.35882e-05,-3.10009e-05,-0.00019131,1.85655e-05,1.8327e-06,-6.10697e-05,-1.12547e-05,4
-2.03979e-05,1.18576e-05,-3.72563e-05,3.04877e-05,1.91147e-05,1.1822e-06,-8.96513e-06,-1.35202e-05,4
-2.34121e-05,1.12864e-05,-3.84132e-05,7.76183e-05,1.7658e-05,-1.71902e-07,4.17349e-05,-1.50454e-05,4
-2.50412e-05,1.15661e-05,-3.05764e-05,-2.96522e-05,1.47161e-05,-6.13409e-07,6.62215e-05,-1.4642e-05,4
-2.49357e-05,1.2106e-05,-2.01713e-05,-0.000226135,1.48074e-05,1.07213e-06,6.23411e-05,-1.3034e-05,4
-2.44267e-05,1.18664e-05,-1.92548e-05,-0.000393429,1.81395e-05,1.47314e-06,3.71653e-05,-1.02357e-05,4
-2.51868e-05,1.03465e-05,-2.85154e-05,-0.000415097,1.9434e-05,-2.0468e-06,1.81877e-06,-3.54797e-06,4
-2.65958e-05,8.14958e-06,-3.65187e-05,-0.000283946,1.78809e-05,-5.87837e-06,-2.88977e-05,9.1612e-06,4
-2.65361e-05,6.70359e-06,-3.43086e-05,-8.28628e-05,1.80835e-05,-7.69938e-06,-4.19281e-05,2.3277e-05,4
-2.60682e-05,6.90263e-06,-2.49931e-05,8.03067e-05,2.02124e-05,-8.62923e-06,-3.70151e-05,3.21788e-05,4
-2.73009e-05,8.54678e-06,-1.68447e-05,0.000156543,2.07676e-05,-9.94021e-06,-2.20152e-05,3.48076e-05,4
-2.95644e-05,1.0568e-05,-1.31788e-05,0.000139209,1.90281e-05,-1.14911e-05,-6.92866e-06,3.27105e-05,4
-3.14754e-05,1.12326e-05,-1.24886e-05,0.000118167,1.75256e-05,-1.38606e-05,6.17243e-06,2.63261e-05,4
-3.27242e-05,1.14035e-05,-1.29894e-05,0.000146289,1.81737e-05,-1.65494e-05,1.77751e-05,1.63333e-05,4
-3.27644e-05,1.23196e-05,-1.26616e-05,8.55315e-05,2.15067e-05,-1.73729e-05,2.52383e-05,5.3199e-06,4
-3.19864e-05,1.48805e-05,-9.80337e-06,-0.000134197,2.49032e-05,-1.2965e-05,2.96097e-05,-3.70105e-06,4
-3.11945e-05,1.7888e-05,-4.65146e-06,-0.000327685,2.58015e-05,-5.6614e-06,4.02954e-05,-7.56306e-06,4
-3.17181e-05,1.92208e-05,6.11721e-06,-0.000342781,2.22562e-05,-2.36125e-06,5.94836e-05,-4.9401e-06,4
-3.32658e-05,1.8174e-05,2.00563e-05,-0.000176005,1.67222e-05,-3.72999e-06,7.63738e-05,3.37528e-06,4
-3.52952e-05,1.45207e-05,2.17468e-05,6.96752e-05,1.29536e-05,-6.05073e-06,7.37477e-05,1.6307e-05,4
-3.81388e-05,9.35836e-06,8.83261e-06,0.000293894,1.08152e-05,-8.39143e-06,3.67108e-05,3.37739e-05,4
-3.81533e-05,8.51965e-06,5.38365e-06,0.000397729,1.19661e-05,-9.91756e-06,-2.02256e-05,4.78793e-05,4
-3.21673e-05,1.3879e-05,1.4578e-05,0.000253419,1.95846e-05,-5.80507e-06,-5.85822e-05,5.15122e-05,4
-2.39908e-05,1.98912e-05,1.44346e-05,-5.14164e-05,3.10706e-05,3.87477e-06,-7.28636e-05,4.89437e-05,4
-1.84102e-05,2.20309e-05,7.25804e-07,-0.000233315,3.96319e-05,1.10993e-05,-6.82066e-05,4.25651e-05,4
-1.86823e-05,2.04141e-05,-1.42687e-05,-0.000164023,4.1034e-05,9.51955e-06,-4.7053e-05,3.61011e-05,4
-2.29477e-05,1.75641e-05,-1.65039e-05,1.49241e-05,3.58548e-05,1.8009e-06,-2.10189e-05,3.78783e-05,4
-2.73666e-05,1.44923e-05,-5.2087e-06,0.00015561,2.44008e-05,-7.10493e-06,6.70021e-07,4.47613e-05,4
-3.27938e-05,1.04402e-05,8.02464e-06,0.000252876,9.91435e-06,-1.45439e-05,1.86847e-05,4.55409e-05,4
-3.72112e-05,5.87247e-06,9.07438e-06,0.000330492,-3.03012e-06,-1.83185e-05,4.78255e-05,3.57845e-05,4
-3.88043e-05,2.76174e-06,-2.13308e-06,0.000290714,-9.635e-06,-1.66343e-05,7.61303e-05,1.8275e-05,4
-3.7786e-05,2.6541e-06,-1.37041e-05,9.24676e-05,-6.98183e-06,-1.253e-05,7.27187e-05,-3.28064e-06,4
-3.56739e-05,5.44799e-06,-1.77428e-05,-0.000129444,5.11677e-07,-1.20944e-05,5.88771e-05,-2.81396e-05,4
-3.32284e-05,1.00394e-05,-1.27205e-05,-0.000249574,8.05361e-06,-1.27572e-05,7.07235e-05,-5.55853e-05,4
-2.9918e-05,1.4529e-05,-4.12529e-06,-0.000298164,1.43221e-05,-9.52754e-06,6.63193e-05,-7.50328e-05,4
-2.66722e-05,1.64525e-05,6.72518e-07,-0.000293,1.91328e-05,-5.27739e-06,7.53221e-06,-7.37454e-05,4
-2.53346e-05,1.5774e-05,-1.23147e-06,-0.000181638,1.9612e-05,-5.48732e-06,-5.59423e-05,-5.59706e-05,4
-2.53646e-05,1.47458e-05,-6.15575e-06,3.10112e-06,1.63763e-05,-8.97604e-06,-6.41377e-05,-3.65037e-05,4
-2.46521e-05,1.53393e-05,-8.77988e-06,0.000157211,1.33866e-05,-1.21898e-05,-2.80841e-05,-2.28657e-05,4
-2.44716e-05,1.6982e-05,-4.4786e-06,0.000238921,1.21226e-05,-1.52817e-05,6.00703e-06,-1.26947e-05,4
-2.48296e-05,1.81213e-05,3.19801e-06,0.000285358,1.0027e-05,-1.7051e-05,2.04213e-05,-3.97128e-06,4
-2.43171e-05,1.71168e-05,8.39442e-06,0.00031681,7.32568e-06,-1.6224e-05,2.92309e-05,1.39468e-06,4
-2.3937e-05,1.51164e-05,1.26707e-05,0.000307184,6.91481e-06,-1.60408e-05,3.36444e-05,1.00278e-06,4
-2.57165e-05,1.38307e-05,2.08783e-05,0.000272238,8.53666e-06,-2.05331e-05,2.17658e-05,-3.48254e-06,4
-2.89789e-05,1.31067e-05,2.95237e-05,0.00030948,8.33191e-06,-2.72642e-05,-2.20194e-06,-7.74903e-06,4
-3.16602e-05,1.19566e-05,3.00709e-05,0.000442438,4.43427e-06,-3.12496e-05,-4.14827e-05,-9.1671e-06,4
-3.31167e-05,9.20906e-06,2.02054e-05,0.000501311,-1.39747e-08,-3.26858e-05,-0.000101484,-6.16089e-06,4
-3.26446e-05,8.50195e-06,3.8337e-06,0.000168867,-3.28733e-07,-2.922e-05,-0.00016327,4.25734e-07,4
-2.93021e-05,1.128e-05,-9.58707e-06,-0.000395729,6.97898e-06,-1.97824e-05,-0.00018412,5.20358e-06,4
-2.60738e-05,1.29014e-05,-1.53065e-05,-0.000524155,1.59657e-05,-1.24059e-05,-0.000150367,4.00587e-06,4
-2.46146e-05,1.38329e-05,-1.45084e-05,-4.85549e-05,2.02318e-05,-6.66538e-06,-7.74408e-05,-6.47057e-07,4
-2.28653e-05,1.56266e-05,-1.42281e-05,0.00034137,2.19619e-05,2.64792e-06,2.83013e-05,-4.98571e-06,4
-2.18511e-05,1.64101e-05,-2.31166e-05,-3.09846e-05,2.24889e-05,1.17823e-05,0.000149936,-6.36167e-06,4
-2.30532e-05,1.62273e-05,-3.7731e-05,-0.000714289,2.18395e-05,1.59802e-05,0.000243582,-4.57708e-06,4
-2.49724e-05,1.48638e-05,-4.9565e-05,-0.000892777,1.79684e-05,1.34238e-05,0.000256836,-4.70452e-06,4
-2.74624e-05,1.35358e-05,-5.3588e-05,-0.000560828,1.28943e-05,7.68502e-06,0.000196573,-7.15875e-06,4
-2.99089e-05,1.30879e-05,-5.08908e-05,-0.000146569,1.26943e-05,1.98711e-06,0.000113977,-8.97127e-06,4
-3.03573e-05,1.3776e-05,-4.57121e-05,7.6634e-05,1.65413e-05,-1.75063e-06,5.41906e-05,-9.26312e-06,4
-2.95554e-05,1.57753e-05,-3.92912e-05,0.000139071,1.91514e-05,-2.79663e-06,3.0017e-05,-4.95816e-06,4
-2.89508e-05,1.73411e-05,-2.7435e-05,0.000105801,1.87022e-05,-3.60104e-06,2.62656e-05,5.59724e-06,4
-2.92334e-05,1.66458e-05,-1.01661e-05,1.98445e-05,1.68044e-05,-5.0064e-06,2.85455e-05,1.91767e-05,4
-3.04154e-05,1.45623e-05,6.04892e-06,-5.33223e-05,1.54012e-05,-7.00912e-06,2.69171e-05,3.19592e-05,4
-3.19502e-05,1.36489e-05,1.52151e-05,-9.36991e-05,1.61683e-05,-8.83745e-06,9.02363e-06,4.18174e-05,4
-3.24905e-05,1.43785e-05,1.50684e-05,-0.000120812,1.99388e-05,-9.65678e-06,-4.12948e-05,4.64926e-05,4
-3.21065e-05,1.55156e-05,8.28902e-06,-9.81657e-05,2.51526e-05,-8.11673e-06,-0.000112734,4.51869e-05,4
-3.22943e-05,1.52773e-05,-3.07738e-06,1.72056e-05,2.55505e-05,-5.83101e-06,-0.000172995,3.98637e-05,4
-3.33455e-05,1.34621e-05,-1.64306e-05,0.000117328,1.7393e-05,-5.19393e-06,-0.000197851,3.40246e-05,4
-3.48264e-05,1.08462e-05,-2.60617e-05,5.86616e-05,5.41157e-06,-7.08049e-06,-0.000186295,2.62719e-05,4
-3.71354e-05,8.02892e-06,-2.56093e-05,-8.01913e-05,-2.43391e-06,-1.2126e-05,-0.000129614,1.14001e-05,4
-3.9785e-05,5.82549e-06,-1.71769e-05,-8.11241e-05,-4.45006e-06,-1.96644e-05,-2.29588e-05,-1.13491e-05,4
-4.10553e-05,5.3167e-06,-9.85232e-06,3.68845e-05,-5.07567e-06,-2.36843e-05,6.50896e-05,-3.69168e-05,4
-4.05595e-05,7.15726e-06,-1.12679e-05,8.51039e-05,-6.64372e-06,-1.90621e-05,6.16164e-05,-5.9344e-05,4
-3.91076e-05,1.14102e-05,-1.74647e-05,-6.39161e-05,-4.01246e-06,-1.06989e-05,2.70467e-05,-7.22245e-05,4
-3.67281e-05,1.55989e-05,-1.8808e-05,-0.000284638,2.5238e-06,-5.84064e-06,7.01734e-05,-7.36503e-05,4
-3.39892e-05,1.59481e-05,-1.50477e-05,-0.00033294,7.13875e-06,-5.5977e-06,0.000211163,-6.5315e-05,4
-3.2483e-05,1.33725e-05,-7.79024e-06,-0.000188668,8.77585e-06,-7.63692e-06,0.000315027,-5.1241e-05,4
-3.27502e-05,1.35812e-05,6.08992e-06,-5.60432e-05,1.07033e-05,-1.05855e-05,0.000262619,-3.78345e-05,4
-3.35898e-05,1.56166e-05,2.26022e-05,-3.6443e-05,1.38223e-05,-1.45352e-05,0.000130477,-2.6728e-05,4
-3.41129e-05,1.63335e-05,3.08568e-05,-4.93541e-05,1.60887e-05,-1.64385e-05,3.49732e-05,-1.92949e-05,4
-3.40487e-05,1.5694e-05,2.36915e-05,-3.27858e-05,1.67252e-05,-1.30601e-05,1.12753e-05,-1.29845e-05,4
-3.34269e-05,1.32355e-05,7.91274e-06,1.79132e-05,1.71676e-05,-8.00827e-06,1.29258e-05,-7.43477e-06,4
-3.27197e-05,1.05104e-05,-5.20899e-06,7.01432e-05,1.95899e-05,-3.56183e-06,9.86609e-06,-2.53466e-06,4
-3.27349e-05,9.20565e-06,-1.34676e-05,0.000131182,2.2357e-05,-2.76755e-06,4.5225e-06,2.54964e-06,4
-3.29507e-05,8.73432e-06,-1.72964e-05,0.000216172,2.53093e-05,-5.22451e-06,8.61443e-06,4.93802e-06,4
-3.14646e-05,8.3389e-06,-1.70345e-05,0.000292317,2.88131e-05,-6.80906e-06,2.29682e-05,4.10303e-06,4
-3.05278e-05,9.81078e-06,-1.31013e-05,0.000284254,3.22252e-05,-6.90419e-06,3.92104e-05,1.71564e-06,4
-3.17221e-05,1.18575e-05,-7.5934e-06,0.000201958,3.19943e-05,-7.60113e-06,5.3998e-05,1.31924e-06,4
-3.33776e-05,1.21616e-05,-1.50554e-06,0.000138184,2.59753e-05,-1.09493e-05,6.49893e-05,3.18537e-06,4
-3.44718e-05,1.12016e-05,2.9019e-06,6.50264e-05,1.76677e-05,-1.50958e-05,7.06268e-05,6.17681e-06,4
-3.52321e-05,9.85642e-06,2.68456e-06,-0.000130194,1.1697e-05,-1.74828e-05,5.66187e-05,9.24327e-06,4
-3.52038e-05,8.07085e-06,-1.90662e-06,-0.000380359,9.4407e-06,-1.72547e-05,1.99605e-05,1.24746e-05,4
-3.42547e-05,6.85691e-06,-7.60218e-06,-0.000433988,9.61085e-06,-1.50596e-05,-2.98001e-05,1.64793e-05,4
-3.40151e-05,7.20586e-06,-1.25555e-05,-0.000218757,1.10782e-05,-1.40944e-05,-7.94952e-05,2.12676e-05,4
-3.51909e-05,8.02384e-06,-1.71223e-05,6.77719e-05,1.12389e-05,-1.73406e-05,-0.000125303,2.4568e-05,4
-3.71589e-05,6.6045e-06,-2.05786e-05,0.000240884,8.7736e-06,-2.17333e-05,-0.000161164,2.32564e-05,4
-3.85674e-05,4.80263e-06,-1.92971e-05,0.000299515,6.50771e-06,-2.29017e-05,-0.00018672,1.93618e-05,4
-3.86851e-05,6.94827e-06,-8.56321e-06,0.000280657,5.16928e-06,-2.01924e-05,-0.000167413,1.84115e-05,4
-3.80667e-05,1.09676e-05,4.80259e-06,0.000205172,-5.11053e-07,-1.59145e-05,-5.37337e-05,2.10628e-05,4
-3.8372e-05,1.2851e-05,8.9519e-06,0.00017479,-1.11571e-05,-1.29582e-05,0.000112914,2.62263e-05,4
-3.91091e-05,1.19949e-05,7.58288e-06,0.000240916,-1.88933e-05,-1.47218e-05,0.000202639,3.38514e-05,4
-3.91115e-05,1.09585e-05,9.16458e-06,0.000329772,-1.53254e-05,-1.89872e-05,0.000176642,3.84319e-05,4
-3.59608e-05,1.2786e-05,1.65846e-05,0.000342426,-6.82264e-07,-1.90123e-05,9.66338e-05,3.80416e-05,4
-3.07335e-05,1.78485e-05,1.99482e-05,0.00020647,1.55739e-05,-1.0431e-05,1.73195e-05,3.52065e-05,4
-2.75629e-05,2.36252e-05,8.87313e-06,-9.76348e-06,2.75312e-05,2.44373e-06,-4.23575e-05,3.10403e-05,4
-2.6469e-05,2.57998e-05,-4.45993e-06,-0.000159945,3.49805e-05,9.14917e-06,-9.89813e-05,2.60145e-05,4
-2.8816e-05,2.35057e-05,-6.68925e-06,-0.000181745,3.55936e-05,6.5424e-06,-0.000116005,1.8648e-05,4
-3.28664e-05,1.94601e-05,-1.03934e-06,-0.000150983,2.75527e-05,-3.0293e-06,-6.90042e-05,8.80075e-06,4
-3.52985e-05,1.47871e-05,1.60992e-06,-0.000182682,1.52898e-05,-1.24069e-05,2.14369e-06,-2.0564e-06,4
-3.48476e-05,1.26081e-05,-2.08228e-06,-0.000229344,6.7594e-06,-1.32716e-05,5.10127e-05,-9.76797e-06,4
-3.46133e-05,1.22804e-05,-1.17726e-05,-0.000201008,4.47947e-06,-9.97551e-06,5.92252e-05,-1.33453e-05,4
-3.72195e-05,1.13086e-05,-2.26346e-05,-0.000114886,3.5541e-06,-1.13424e-05,1.5852e-05,-1.50611e-05,4
-3.95747e-05,1.03772e-05,-2.8401e-05,-2.39018e-05,6.33973e-07,-1.58466e-05,-6.58702e-05,-1.61144e-05,4
-3.97391e-05,1.07242e-05,-2.67174e-05,2.71144e-05,-3.33442e-06,-1.88359e-05,-0.000101973,-1.56088e-05,4
-3.80102e-05,1.15739e-05,-1.98523e-05,-5.12609e-05,-4.85797e-06,-1.84484e-05,-2.99713e-05,-1.24671e-05,4
-3.53712e-05,1.14636e-05,-1.34658e-05,-0.000271466,-1.20462e-06,-1.66815e-05,8.14401e-05,-8.73806e-06,4
-3.22326e-05,1.08229e-05,-1.09538e-05,-0.000451518,5.71588e-06,-1.45841e-05,0.000115728,-4.36735e-06,4
-2.91049e-05,1.07205e-05,-1.2545e-05,-0.000439291,1.23105e-05,-1.00441e-05,6.35781e-05,7.93448e-07,4
-2.61077e-05,1.15966e-05,-1.37825e-05,-0.000295341,1.72713e-05,-2.02672e-06,1.40394e-05,5.39833e-06,4
-2.42434e-05,1.3102e-05,-1.15605e-05,-0.00014594,2.13088e-05,5.11215e-06,2.41819e-05,8.12748e-06,4
-2.30103e-05,1.48325e-05,-6.68897e-06,-2.01802e-05,2.44144e-05,6.14157e-06,6.05285e-05,9.87736e-06,4
-2.2404e-05,1.50015e-05,-4.2033e-06,9.58237e-05,2.58152e-05,3.27778e-06,7.24891e-05,1.1454e-05,4
-2.29165e-05,1.30745e-05,-6.92652e-06,0.000168982,2.5153e-05,2.92541e-06,5.42438e-05,1.31304e-05,4
-2.44659e-05,1.09776e-05,-1.31634e-05,0.000152701,2.35144e-05,5.66291e-06,3.06842e-05,1.56099e-05,4
-2.74108e-05,9.77046e-06,-2.0129e-05,4.60788e-05,2.05618e-05,5.18619e-06,1.81604e-05,1.88549e-05,4
-3.01951e-05,8.91342e-06,-2.67976e-05,-9.17707e-05,1.6529e-05,4.74255e-07,2.24304e-05,2.22443e-05,4
-3.03217e-05,9.28996e-06,-2.92763e-05,-0.000157157,1.58958e-05,-2.05552e-06,3.96644e-05,2.49247e-05,4
-2.80525e-05,1.0223e-05,-2.39738e-05,-0.000114817,2.20219e-05,-8.37141e-07,5.49627e-05,2.1227e-05,4
-2.50346e-05,1.17347e-05,-1.21101e-05,4.94113e-06,3.12081e-05,-1.87085e-06,5.13126e-05,8.27577e-06,4
-2.21956e-05,1.31646e-05,-4.51805e-07,0.000199153,3.82154e-05,-5.30839e-06,2.48297e-05,-1.17894e-05,4
-2.22153e-05,1.28045e-05,3.17658e-07,0.000362378,3.89591e-05,-6.15365e-06,-1.22415e-05,-3.08744e-05,4
-2.3326e-05,1.25743e-05,-7.0751e-06,0.000310867,3.3609e-05,-4.38978e-06,-4.773e-05,-4.25864e-05,4
-2.37648e-05,1.42164e-05,-1.26491e-05,9.78074e-05,2.5947e-05,-4.87916e-06,-6.03961e-05,-4.55141e-05,4
