ch1,ch2,ch3,ch4,ch5,ch6,ch7,ch8,class
-3.26727e-05,8.3719e-06,-9.26404e-06,0.000369218,1.81118e-05,-1.57592e-05,-7.34771e-05,1.43379e-05,4
-3.20557e-05,1.16979e-05,-3.4187e-06,0.000102904,1.86353e-05,-1.9646e-05,-0.000142016,1.67359e-05,4
-2.89048e-05,1.48039e-05,-1.47808e-06,-0.000252863,2.0946e-05,-1.71452e-05,-0.000189644,1.78959e-05,4
-2.70634e-05,1.51949e-05,-5.46332e-06,-0.000283393,2.18703e-05,-1.19451e-05,-0.000169444,2.24544e-05,4
-2.88226e-05,1.29314e-05,-1.33017e-05,-5.70737e-05,2.04194e-05,-8.52138e-06,-6.74614e-05,3.16344e-05,4
-3.12533e-05,9.20879e-06,-2.07251e-05,0.000155177,1.63179e-05,-8.03153e-06,7.06579e-05,3.8999e-05,4
-3.12821e-05,7.19168e-06,-2.5597e-05,0.000294378,1.22511e-05,-7.69782e-06,0.000174691,4.23505e-05,4
-2.92321e-05,8.28743e-06,-2.85768e-05,0.000275425,1.14105e-05,-5.88041e-06,0.000203269,4.88861e-05,4
-2.75852e-05,9.7553e-06,-3.10869e-05,-4.61269e-05,1.58548e-05,-3.32954e-06,0.000164271,6.22424e-05,4
-2.79779e-05,9.36894e-06,-3.32918e-05,-0.000426316,2.22949e-05,-1.4247e-06,0.0001009,7.26699e-05,4
-3.0414e-05,7.55897e-06,-3.27972e-05,-0.000441752,2.45969e-05,-2.10352e-06,4.13847e-05,7.0298e-05,4
-3.27723e-05,5.43499e-06,-2.72154e-05,-0.000134286,1.97994e-05,-7.09328e-06,-2.40153e-05,5.57557e-05,4
-3.46692e-05,3.66749e-06,-1.66055e-05,9.91611e-05,1.21547e-05,-1.28605e-05,-0.000105732,3.66021e-05,4
-3.66533e-05,3.60263e-06,-4.42951e-06,5.79715e-05,7.66948e-06,-1.43151e-05,-0.000187742,2.17529e-05,4
-3.71171e-05,6.55344e-06,2.49886e-06,-5.20583e-05,8.52049e-06,-1.04121e-05,-0.000223035,1.70004e-05,4
-3.65144e-05,9.79691e-06,3.04241e-06,6.70728e-05,1.04716e-05,-4.30121e-06,-0.000141131,2.1184e-05,4
-3.61213e-05,1.02515e-05,3.10442e-06,0.000338519,1.08966e-05,-8.5183e-07,5.05497e-05,2.58781e-05,4
-3.55674e-05,9.62921e-06,4.26898e-06,0.000369463,1.32685e-05,-3.50847e-06,0.000212745,2.3063e-05,4
-3.51468e-05,9.8141e-06,7.40862e-06,3.32519e-05,2.00976e-05,-8.90973e-06,0.000228777,6.57341e-06,4
-3.29809e-05,1.27088e-05,1.04679e-05,-0.000359644,2.63482e-05,-1.0613e-05,0.000123579,-2.46928e-05,4
-2.90658e-05,1.73857e-05,9.86882e-06,-0.000497336,2.80115e-05,-6.95716e-06,2.31716e-05,-5.74304e-05,4
-2.57238e-05,2.12925e-05,7.84766e-06,-0.000445242,2.87627e-05,-1.96183e-06,-1.09463e-05,-7.8896e-05,4
-2.41315e-05,2.24912e-05,6.72918e-06,-0.000297133,2.89348e-05,-1.03478e-06,-8.54459e-06,-8.51488e-05,4
-2.44927e-05,2.09975e-05,5.35027e-06,2.6295e-05,2.507e-05,-5.28992e-06,8.01156e-06,-7.75008e-05,4
-2.63919e-05,1.94845e-05,5.16708e-06,0.000388301,1.92592e-05,-1.07533e-05,2.14408e-05,-6.54907e-05,4
-2.84346e-05,1.73804e-05,8.26633e-06,0.000522744,1.44452e-05,-1.43539e-05,3.72577e-05,-5.40827e-05,4
-3.01717e-05,1.50923e-05,1.09427e-05,0.000210825,8.88158e-06,-1.71784e-05,5.96846e-05,-4.36216e-05,4
-3.23485e-05,1.47927e-05,9.56165e-06,-0.000310503,2.65557e-06,-1.86055e-05,8.5151e-05,-3.42791e-05,4
-3.28786e-05,1.60834e-05,2.32354e-06,-0.000566211,-6.99143e-07,-1.47356e-05,9.16042e-05,-2.51075e-05,4
-3.22856e-05,1.55829e-05,-8.96647e-06,-0.000463089,2.64344e-07,-8.18276e-06,6.15529e-05,-1.70338e-05,4
-3.15645e-05,1.22759e-05,-2.16284e-05,-0.000269281,2.73988e-06,-8.05903e-06,1.03482e-05,-1.22373e-05,4
-3.05236e-05,7.9254e-06,-3.4756e-05,-0.000195247,5.72339e-06,-1.58212e-05,-3.65611e-05,-1.01665e-05,4
-2.80248e-05,5.74204e-06,-4.36427e-05,-0.000214943,9.04666e-06,-2.28983e-05,-5.83058e-05,-8.2963e-06,4
-2.36708e-05,8.15502e-06,-4.27953e-05,-0.000333466,1.07611e-05,-2.20317e-05,-5.33069e-05,-5.96846e-06,4
-1.84583e-05,1.44903e-05,-3.40401e-05,-0.000523089,1.20545e-05,-1.41265e-05,-3.61216e-05,-2.59547e-06,4
-1.23896e-05,2.25527e-05,-2.26766e-05,-0.000528939,1.81653e-05,-4.86201e-06,-3.32813e-05,1.8158e-06,4
-7.34634e-06,2.71941e-05,-1.33776e-05,-0.000155429,2.75565e-05,1.29538e-07,-4.57229e-05,6.54066e-06,4
-7.79674e-06,2.52298e-05,-9.36654e-06,0.000379453,3.09374e-05,-9.77972e-07,-4.76157e-05,1.12446e-05,4
-1.55027e-05,1.9336e-05,-6.34698e-06,0.000766835,2.36514e-05,-8.28509e-06,-1.8244e-05,1.59822e-05,4
-2.78674e-05,1.46389e-05,1.9368e-06,0.000838591,1.2396e-05,-1.73333e-05,2.47348e-05,2.01683e-05,4
-4.22256e-05,1.32838e-05,8.92507e-06,0.000556225,3.88003e-06,-1.87929e-05,5.65367e-05,2.34424e-05,4
-5.40866e-05,1.32154e-05,1.87626e-06,0.00010324,-1.80352e-06,-1.03454e-05,7.52111e-05,2.61018e-05,4
-5.91388e-05,1.175e-05,-1.68902e-05,-0.000236048,-5.09264e-06,-1.52725e-06,8.31799e-05,2.9511e-05,4
-5.47609e-05,7.94732e-06,-3.12603e-05,-0.000364542,-3.72545e-06,-4.65186e-07,6.82251e-05,3.33933e-05,4
-4.47002e-05,4.14136e-06,-2.76121e-05,-0.000301565,2.12231e-06,-5.89632e-06,4.08879e-05,3.59366e-05,4
-3.63956e-05,6.0038e-06,-9.58795e-06,-0.000131644,7.75168e-06,-1.21256e-05,2.66732e-05,3.48737e-05,4
-3.11338e-05,1.0683e-05,1.07739e-05,6.64571e-05,1.1748e-05,-1.44683e-05,2.05944e-05,3.04859e-05,4
-2.8403e-05,1.40207e-05,2.2542e-05,0.000204295,1.53863e-05,-1.44094e-05,-6.89041e-06,2.63942e-05,4
-2.72406e-05,1.57935e-05,2.03623e-05,0.000191891,1.80237e-05,-1.68583e-05,-6.21167e-05,2.20244e-05,4
-2.69355e-05,1.49789e-05,1.41283e-05,5.78623e-05,1.90761e-05,-2.22573e-05,-0.000110029,1.55612e-05,4
-2.68599e-05,1.25932e-05,1.05497e-05,-0.000117457,2.07663e-05,-2.45526e-05,-0.000126108,7.36453e-06,4
-2.68255e-05,1.15368e-05,9.60881e-06,-0.000100041,2.22481e-05,-2.12069e-05,-0.000110615,1.72473e-07,4
-2.82851e-05,1.29591e-05,1.17171e-05,0.000240894,2.04509e-05,-1.9113e-05,-5.16572e-05,-2.86074e-06,4
-3.0459e-05,1.47745e-05,1.50798e-05,0.000479094,1.46307e-05,-2.18279e-05,5.21273e-05,-2.31803e-06,4
-3.12902e-05,1.40667e-05,1.20931e-05,0.000264193,6.81783e-06,-2.26959e-05,0.000137988,-1.90167e-06,4
-3.04218e-05,1.1469e-05,1.30132e-07,-4.80369e-05,2.40704e-07,-1.65319e-05,0.000152499,-4.88426e-06,4
-2.89453e-05,1.13148e-05,-1.42381e-05,-9.22945e-05,-1.04774e-06,-4.96729e-06,0.000109066,-9.95173e-06,4
-2.62651e-05,1.36941e-05,-2.35347e-05,6.37555e-05,3.52128e-06,6.93997e-06,4.86775e-05,-1.26723e-05,4
-2.41369e-05,1.64163e-05,-2.57681e-05,0.000220727,8.24554e-06,1.39531e-05,6.60912e-06,-1.24025e-05,4
-2.38664e-05,1.75429e-05,-2.00666e-05,0.000345488,8.70413e-06,1.47077e-05,2.03086e-06,-1.10968e-05,4
-2.45704e-05,1.88231e-05,-3.33516e-06,0.000498796,7.0821e-06,1.17189e-05,1.93942e-05,-9.94383e-06,4
-2.46029e-05,2.08188e-05,1.81895e-05,0.000581141,8.65803e-06,7.65697e-06,2.01284e-05,-8.78222e-06,4
-2.38551e-05,2.20057e-05,3.32506e-05,0.000385986,1.20558e-05,2.64318e-06,-1.64474e-05,-7.40212e-06,4
-2.49379e-05,2.11685e-05,4.04511e-05,-7.62697e-05,1.23847e-05,-3.74419e-06,-6.68935e-05,-6.54685e-06,4
-2.84397e-05,1.87879e-05,4.79425e-05,-0.000559327,9.01593e-06,-9.739e-06,-9.55243e-05,-6.95296e-06,4
-3.22899e-05,1.6356e-05,5.45992e-05,-0.000915134,5.92132e-06,-1.3641e-05,-9.52976e-05,-7.95045e-06,4
-3.45322e-05,1.46769e-05,5.1656e-05,-0.00110722,6.60034e-06,-1.63495e-05,-7.4717e-05,-8.0326e-06,4
-3.50345e-05,1.37164e-05,3.62525e-05,-0.000929196,1.21948e-05,-1.73621e-05,-4.02558e-05,-7.26924e-06,4
-3.46248e-05,1.32911e-05,1.59989e-05,-0.00017282,2.10872e-05,-1.59748e-05,-2.00112e-06,-5.90868e-06,4
-3.58981e-05,1.20187e-05,-5.26189e-06,0.000967954,2.80894e-05,-1.50624e-05,3.67016e-05,-3.98689e-06,4
-3.83975e-05,8.38795e-06,-2.34112e-05,0.00186976,3.04197e-05,-1.47685e-05,8.75655e-05,-2.56449e-06,4
-4.02909e-05,6.25049e-06,-3.0761e-05,0.00202261,3.06379e-05,-1.24987e-05,0.000150735,-4.20509e-07,4
-3.99872e-05,6.47409e-06,-3.17304e-05,0.00142595,3.04825e-05,-6.70319e-06,0.000196292,4.64151e-06,4
-3.97502e-05,5.78522e-06,-3.98031e-05,0.000221641,2.45589e-05,1.35246e-06,0.000201783,1.05845e-05,4
-4.2342e-05,2.71006e-06,-5.46356e-05,-0.000786928,8.53005e-06,4.56299e-06,0.000168746,1.38761e-05,4
-4.58528e-05,-7.78671e-07,-6.4025e-05,-0.0010446,-1.08552e-05,-4.49054e-08,0.000102425,1.33856e-05,4
-4.73462e-05,-2.38883e-06,-6.33209e-05,-0.000977526,-2.07294e-05,-5.44933e-06,2.89689e-05,1.22225e-05,4
-4.64205e-05,-7.48621e-07,-5.67414e-05,-0.000778143,-2.01777e-05,-7.36755e-06,-1.83603e-05,1.12513e-05,4
-4.58926e-05,1.68135e-06,-5.35228e-05,-0.000614242,-1.77102e-05,-8.4249e-06,-3.71437e-05,1.11584e-05,4
-4.57257e-05,3.46249e-06,-5.07447e-05,-0.000488687,-1.40791e-05,-1.11499e-05,-4.77772e-05,1.15115e-05,4
-4.3202e-05,7.88383e-06,-4.13181e-05,-0.000350291,-6.77588e-06,-1.11916e-05,-5.1665e-05,9.83082e-06,4
-3.92834e-05,1.39784e-05,-2.83925e-05,-0.000147366,1.63316e-06,-8.83673e-06,-4.20644e-05,6.56763e-06,4
-3.78313e-05,1.62939e-05,-1.88609e-05,8.10946e-05,5.8175e-06,-1.05042e-05,-3.24549e-05,4.57871e-06,4
-3.78615e-05,1.45459e-05,-1.33402e-05,0.000234709,5.65645e-06,-1.56895e-05,-3.84392e-05,5.09237e-06,4
-3.70335e-05,1.28796e-05,-8.53781e-06,0.000334777,3.56028e-06,-2.02734e-05,-5.12885e-05,6.68697e-06,4
-3.54712e-05,1.11642e-05,-6.22757e-06,0.000356805,1.39049e-06,-2.20753e-05,-4.85094e-05,9.10255e-06,4
-3.36806e-05,9.20982e-06,-9.03384e-06,0.000191061,1.66709e-06,-2.09783e-05,-2.321e-05,1.4491e-05,4
-3.04889e-05,8.95915e-06,-1.40312e-05,-0.000210111,6.35089e-06,-1.5253e-05,1.1006e-05,2.30216e-05,4
-2.59454e-05,1.13483e-05,-1.27867e-05,-0.000545384,1.41224e-05,-8.06631e-06,3.69146e-05,3.24165e-05,4
-2.15664e-05,1.47377e-05,-3.19298e-06,-0.000552637,2.11346e-05,-3.71435e-06,4.71856e-05,4.24232e-05,4
-1.86816e-05,1.74681e-05,7.05286e-06,-0.000227325,2.72153e-05,-1.81511e-06,4.09542e-05,5.01181e-05,4
-1.8131e-05,1.86478e-05,9.48888e-06,0.000137847,3.32271e-05,-5.34684e-07,2.40203e-05,5.41898e-05,4
-1.90619e-05,1.81507e-05,4.05315e-06,0.000287515,3.68637e-05,8.65055e-07,1.01829e-05,5.77372e-05,4
-2.00717e-05,1.8357e-05,-1.22631e-06,0.00013174,3.4436e-05,1.56911e-06,9.74e-06,6.0432e-05,4
-2.12743e-05,1.85646e-05,-1.58902e-06,-0.000136405,2.71122e-05,-1.13997e-06,1.55198e-05,5.4769e-05,4
-2.35306e-05,1.55663e-05,2.83357e-07,-0.000291865,1.9035e-05,-7.91714e-06,1.5256e-05,3.64036e-05,4
-2.59206e-05,1.08853e-05,6.14803e-07,-0.000306323,1.36853e-05,-1.46575e-05,8.98961e-06,8.23963e-06,4
-2.87896e-05,7.07971e-06,-1.69589e-06,-0.000234046,1.17238e-05,-1.94924e-05,3.74545e-06,-2.66507e-05,4
-2.97615e-05,5.59055e-06,-8.00849e-06,-0.000112115,1.46456e-05,-1.88631e-05,1.42673e-06,-6.46682e-05,4
-2.62487e-05,7.13456e-06,-1.70365e-05,-2.29169e-05,2.26136e-05,-1.07148e-05,5.28943e-07,-9.38522e-05,4
-2.22161e-05,1.01853e-05,-2.56793e-05,1.05852e-05,2.91383e-05,-3.01653e-07,2.53345e-06,-9.7177e-05,4
-2.10122e-05,1.32552e-05,-2.79844e-05,2.84664e-05,2.85492e-05,5.00774e-06,6.43726e-06,-7.33894e-05,4
-2.17535e-05,1.49019e-05,-2.1061e-05,6.44374e-05,2.38371e-05,3.93779e-06,8.87605e-06,-4.46327e-05,4
-2.22227e-05,1.60081e-05,-8.80903e-06,0.000117784,2.13747e-05,1.60862e-06,1.31069e-05,-2.62063e-05,4
-2.09241e-05,1.84701e-05,4.46164e-06,0.000100205,2.30095e-05,-1.35625e-06,2.38975e-05,-1.66946e-05,4
-1.95811e-05,2.11962e-05,1.39042e-05,4.30704e-05,2.81308e-05,-7.42317e-06,3.11401e-05,-1.02566e-05,4
-1.92965e-05,2.21861e-05,1.75388e-05,2.02195e-05,3.12235e-05,-1.49628e-05,2.40779e-05,-2.18364e-06,4
-2.04182e-05,2.02945e-05,1.39358e-05,5.8099e-05,2.76231e-05,-1.94527e-05,1.27273e-05,4.95821e-06,4
-2.30918e-05,1.70373e-05,5.88229e-06,0.000115495,1.8875e-05,-1.99799e-05,4.57086e-06,7.16771e-06,4
-2.5771e-05,1.54875e-05,3.34265e-07,0.000141883,1.21583e-05,-1.77178e-05,-3.64273e-06,3.47168e-06,4
-2.69858e-05,1.55163e-05,-5.46159e-07,6.58219e-05,8.96431e-06,-1.33026e-05,-1.45181e-05,-3.84476e-06,4
-2.68311e-05,1.67826e-05,1.20326e-06,-3.37184e-05,5.69051e-06,-1.09865e-05,-2.18148e-05,-1.06125e-05,4
-2.66317e-05,1.8014e-05,7.35786e-06,5.16677e-05,2.57998e-06,-1.16782e-05,-9.70011e-06,-1.10121e-05,4
-2.67888e-05,1.7809e-05,1.72186e-05,0.000453635,2.20644e-06,-1.31459e-05,2.42441e-05,-5.606e-06,4
-2.76542e-05,1.60728e-05,2.53045e-05,0.000852302,5.92931e-06,-1.50464e-05,6.06034e-05,-8.53416e-07,4
-2.84599e-05,1.40105e-05,2.77191e-05,0.000664384,1.14443e-05,-1.85969e-05,7.5259e-05,4.64122e-08,4
-2.82099e-05,1.3315e-05,2.27787e-05,-0.000116523,1.76211e-05,-2.17468e-05,5.49743e-05,2.92055e-07,4
-2.60467e-05,1.46891e-05,1.24169e-05,-0.000843271,2.49029e-05,-1.80281e-05,1.39013e-06,4.45277e-06,4
-2.31709e-05,1.71987e-05,1.12927e-06,-0.000993303,3.2171e-05,-7.1724e-06,-6.17864e-05,1.41396e-05,4
-2.33199e-05,1.83186e-05,-5.0617e-06,-0.000656507,3.27609e-05,-5.7059e-07,-9.50494e-05,2.69925e-05,4
-2.68772e-05,1.72758e-05,-5.34022e-06,-0.000277386,2.40982e-05,-5.72497e-06,-8.03875e-05,3.73181e-05,4
-3.00715e-05,1.47781e-05,-4.56867e-06,-0.000209297,1.17456e-05,-1.442e-05,-4.09052e-05,3.66135e-05,4
-3.0659e-05,1.20754e-05,-7.5629e-06,-0.000346922,1.45699e-06,-1.7363e-05,-4.92374e-06,1.64134e-05,4
-2.7964e-05,1.13166e-05,-1.03179e-05,-0.000226772,-2.37173e-06,-1.34704e-05,1.85699e-05,-2.31693e-05,4
-2.24871e-05,1.4165e-05,-8.13534e-06,0.000219095,4.64323e-06,-6.35882e-06,1.97569e-05,-6.85815e-05,4
-1.82002e-05,1.79089e-05,-1.44781e-06,0.000583417,1.88058e-05,-2.15204e-06,-1.23762e-05,-9.96759e-05,4
-1.83567e-05,1.83059e-05,2.33515e-06,0.000633072,2.8356e-05,-3.24054e-06,-7.07254e-05,-0.000104407,4
-2.07677e-05,1.646e-05,-3.28811e-06,0.000379215,2.65306e-05,-2.38864e-06,-0.00011901,-8.39745e-05,4
-2.48375e-05,1.44543e-05,-1.37546e-05,9.38345e-05,1.65729e-05,9.54839e-07,-0.000156497,-5.49643e-05,4
-3.20068e-05,7.92307e-06,-2.87808e-05,2.97753e-05,4.14763e-06,-5.07768e-06,-0.000234328,-3.54372e-05,4
-4.04001e-05,-1.12637e-06,-4.23073e-05,8.78412e-05,-7.79634e-06,-1.93767e-05,-0.00024307,-2.69684e-05,4
-4.52901e-05,-5.48277e-06,-4.58964e-05,0.000110099,-1.8327e-05,-2.74004e-05,-6.56076e-05,-2.13616e-05,4
-4.46303e-05,-2.55808e-06,-4.5513e-05,4.48986e-05,-2.4327e-05,-2.29413e-05,0.000171382,-1.28484e-05,4
-4.21393e-05,2.23027e-06,-5.07639e-05,-4.30746e-05,-2.19106e-05,-1.29763e-05,0.000357805,-3.07598e-06,4
-4.02704e-05,4.47317e-06,-5.89274e-05,-7.60701e-05,-1.48635e-05,-5.90253e-06,0.000469779,4.65239e-06,4
-4.03633e-05,4.91592e-06,-5.93614e-05,-3.80476e-05,-6.94746e-06,-2.57522e-06,0.000464927,9.92933e-06,4
-4.14597e-05,4.1635e-06,-5.29603e-05,-6.39829e-06,4.35083e-07,-2.20779e-06,0.000348673,1.2819e-05,4
-4.21597e-05,3.20913e-06,-4.50841e-05,-4.48689e-05,5.77883e-06,-4.10011e-06,0.000201443,1.62969e-05,4
-4.1633e-05,3.42367e-06,-3.49516e-05,-0.000101828,9.9363e-06,-7.12074e-06,8.04656e-05,2.49612e-05,4
-3.99685e-05,6.05162e-06,-2.02409e-05,-5.6663e-05,1.47142e-05,-1.01091e-05,-1.16764e-05,3.8097e-05,4
-3.74946e-05,8.16037e-06,-4.80874e-06,9.83576e-05,1.86696e-05,-1.32213e-05,-6.95541e-05,4.88148e-05,4
-3.48028e-05,9.58295e-06,5.56222e-06,0.00017987,2.1243e-05,-1.57126e-05,-8.37633e-05,5.33284e-05,4
-3.20509e-05,1.17293e-05,1.13454e-05,6.61752e-05,2.51291e-05,-1.57059e-05,-5.95883e-05,5.28045e-05,4
-2.92485e-05,1.51875e-05,1.57855e-05,-0.000230092,3.14167e-05,-1.32455e-05,-2.36889e-05,4.78337e-05,4
-2.6969e-05,1.85414e-05,1.85625e-05,-0.000494382,3.80481e-05,-9.26945e-06,5.03665e-07,3.74976e-05,4
-2.50278e-05,2.01716e-05,1.71818e-05,-0.000333924,4.05761e-05,-5.94007e-06,7.12117e-06,2.56344e-05,4
-2.41497e-05,1.98821e-05,1.13167e-05,0.00027816,3.59836e-05,-5.44312e-06,7.16843e-06,2.08508e-05,4
-2.46761e-05,1.90854e-05,2.50294e-06,0.000708409,2.75293e-05,-5.96099e-06,1.12193e-05,2.44127e-05,4
-2.66513e-05,1.79185e-05,-6.31866e-06,0.000503575,2.00375e-05,-4.70076e-06,1.98072e-05,2.87416e-05,4
-2.84648e-05,1.55635e-05,-1.05767e-05,-5.87969e-05,1.34933e-05,-3.28616e-06,2.59392e-05,3.0531e-05,4
-2.81298e-05,1.40173e-05,-7.76383e-06,-0.000473143,9.90022e-06,-2.57197e-06,2.94861e-05,3.20561e-05,4
-2.63863e-05,1.41486e-05,-2.29523e-06,-0.000576185,1.1687e-05,-3.91518e-06,3.76482e-05,3.27568e-05,4
-2.82754e-05,1.38954e-05,1.50719e-06,-0.000413871,1.6435e-05,-8.55254e-06,4.34969e-05,3.00782e-05,4
-3.21694e-05,1.15738e-05,2.26787e-06,-6.30515e-05,2.09359e-05,-1.45301e-05,3.64902e-05,2.34656e-05,4
-3.36732e-05,9.20848e-06,-1.44267e-06,0.00033567,2.18987e-05,-1.85807e-05,2.35423e-05,1.40808e-05,4
-3.24722e-05,9.07398e-06,-6.58767e-06,0.000631284,1.88256e-05,-1.93701e-05,-9.85238e-08,1.07313e-06,4
-3.00205e-05,1.12532e-05,-5.6091e-06,0.000757652,1.62172e-05,-1.98651e-05,-3.29317e-05,-1.50822e-05,4
-2.84106e-05,1.35408e-05,-1.26745e-06,0.000789932,1.44417e-05,-1.9934e-05,-5.24945e-05,-2.96483e-05,4
-2.75661e-05,1.54072e-05,-2.34938e-06,0.000537019,1.23462e-05,-1.72519e-05,-5.6563e-05,-3.70036e-05,4
-2.78969e-05,1.65248e-05,-9.75543e-06,-0.000117482,1.20877e-05,-1.43698e-05,-5.39881e-05,-3.79248e-05,4
-2.76278e-05,1.63618e-05,-1.73743e-05,-0.000607248,1.38134e-05,-1.32903e-05,-5.07271e-05,-3.31325e-05,4
-2.64761e-05,1.51708e-05,-2.17315e-05,-0.00052218,1.43147e-05,-1.33007e-05,-3.84558e-05,-2.13531e-05,4
-2.63809e-05,1.31702e-05,-2.70533e-05,-0.000234999,1.12039e-05,-1.30444e-05,-1.79506e-05,-5.31112e-06,4
-2.69146e-05,1.08517e-05,-3.12192e-05,-8.39395e-05,9.09115e-06,-1.25526e-05,-5.06891e-06,8.89648e-06,4
-2.70931e-05,8.45183e-06,-2.84225e-05,-2.0775e-05,1.00984e-05,-1.34475e-05,-5.26562e-06,1.58108e-05,4
-2.696e-05,7.72079e-06,-1.9432e-05,-1.63057e-05,1.09681e-05,-1.57933e-05,-5.29796e-06,1.75655e-05,4
-2.57677e-05,1.02505e-05,-4.29444e-06,-0.000153943,1.1934e-05,-1.54312e-05,9.09564e-06,1.89006e-05,4
-2.31865e-05,1.61254e-05,1.34868e-05,-0.000356031,1.63097e-05,-9.62053e-06,3.04264e-05,2.14037e-05,4
-1.98137e-05,2.16931e-05,2.44854e-05,-0.000417199,2.45145e-05,-7.03709e-07,3.85347e-05,2.26393e-05,4
-1.71807e-05,2.40804e-05,2.52296e-05,-0.000209984,3.15806e-05,5.10616e-06,3.16833e-05,2.15143e-05,4
-1.74687e-05,2.30326e-05,2.2315e-05,0.000267099,3.28737e-05,3.15792e-06,3.18594e-05,1.71955e-05,4
-2.12327e-05,1.91117e-05,2.23216e-05,0.000784074,2.72463e-05,-4.51801e-06,5.18728e-05,1.05305e-05,4
-2.53249e-05,1.57884e-05,2.22917e-05,0.000941464,1.91878e-05,-1.13991e-05,7.2653e-05,4.27246e-06,4
-2.56343e-05,1.57533e-05,1.39244e-05,0.000535733,1.5156e-05,-1.00489e-05,6.37975e-05,-1.55996e-06,4
-2.32232e-05,1.71405e-05,-5.13165e-06,-0.00012784,1.56151e-05,-3.33965e-06,2.38975e-05,-7.42915e-06,4
-2.29724e-05,1.54254e-05,-2.48053e-05,-0.000640635,1.45854e-05,-1.37395e-06,-2.28574e-05,-1.20765e-05,4
-2.66723e-05,1.16513e-05,-3.11468e-05,-0.000936761,1.06205e-05,-6.68239e-06,-5.13961e-05,-1.21752e-05,4
-2.96326e-05,1.03832e-05,-2.26536e-05,-0.00101046,1.06989e-05,-1.1055e-05,-5.20733e-05,-7.02089e-06,4
-2.79237e-05,1.17973e-05,-1.20536e-05,-0.000731846,1.64492e-05,-8.43723e-06,-3.37761e-05,-3.05923e-06,4
-2.55868e-05,1.2492e-05,-8.85876e-06,-0.000238966,2.12083e-05,-4.57397e-06,-2.44176e-05,-4.46427e-06,4
-2.67883e-05,1.05833e-05,-1.10054e-05,0.000203302,1.90318e-05,-5.53245e-06,-3.88405e-05,-5.93164e-06,4
-3.10453e-05,6.40735e-06,-1.41798e-05,0.000542283,6.50074e-06,-8.47453e-06,-6.22704e-05,-9.22491e-08,4
-3.75263e-05,1.76149e-06,-2.07268e-05,0.000566913,-9.42308e-06,-1.18281e-05,-7.90165e-05,1.2456e-05,4
-3.99465e-05,-1.3965e-07,-2.7673e-05,0.00010868,-1.06272e-05,-1.28885e-05,-8.3019e-05,2.36049e-05,4
-3.54159e-05,1.60672e-06,-2.92351e-05,-0.00036273,7.40747e-06,-8.69703e-06,-8.82472e-05,2.8847e-05,4
-3.16453e-05,3.43526e-06,-2.89941e-05,-0.000438486,2.4903e-05,-5.08582e-06,-8.25076e-05,2.72686e-05,4
-3.26228e-05,2.67743e-06,-2.85374e-05,-0.000254269,2.42649e-05,-6.20023e-06,-1.93359e-05,1.7811e-05,4
-3.45341e-05,1.84822e-06,-2.52151e-05,-6.62513e-05,1.44597e-05,-1.00319e-05,9.14066e-05,8.75185e-07,4
-3.38925e-05,4.75037e-06,-1.74417e-05,1.30292e-05,1.00074e-05,-1.10632e-05,0.0001661,-1.67938e-05,4
-3.11968e-05,1.06316e-05,-6.61944e-06,2.06693e-05,1.26223e-05,-7.99404e-06,0.000145154,-3.03789e-05,4
-2.91746e-05,1.53195e-05,3.08101e-06,-4.14083e-05,1.85257e-05,-6.12508e-06,6.95696e-05,-3.99784e-05,4
-2.844e-05,1.74921e-05,1.01848e-05,-0.000141793,2.44159e-05,-7.2904e-06,7.05469e-06,-4.90889e-05,4
-2.87651e-05,1.96841e-05,1.51039e-05,-0.000134756,2.92946e-05,-9.87512e-06,-1.80509e-05,-5.84403e-05,4
-2.9533e-05,2.27111e-05,1.86339e-05,5.65186e-05,3.24457e-05,-1.15091e-05,-1.64644e-05,-6.40307e-05,4
-2.95687e-05,2.46017e-05,2.14793e-05,0.000282501,3.35997e-05,-1.0718e-05,-2.07922e-06,-6.43201e-05,4
-3.00958e-05,2.39002e-05,2.20007e-05,0.000351798,3.11697e-05,-9.92992e-06,1.61523e-05,-5.81031e-05,4
-3.25753e-05,2.05183e-05,1.82842e-05,0.000291744,2.52776e-05,-1.16947e-05,2.78162e-05,-4.56169e-05,4
-3.55836e-05,1.65196e-05,1.16221e-05,0.000294178,1.87932e-05,-1.53938e-05,2.86317e-05,-2.9847e-05,4
-3.72801e-05,1.45277e-05,6.45138e-06,0.000331585,1.38628e-05,-1.93841e-05,2.1775e-05,-1.59742e-05,4
-3.76214e-05,1.57595e-05,4.91934e-06,0.000180448,1.13568e-05,-2.20865e-05,1.41935e-05,-6.63362e-06,4
-3.63535e-05,1.86464e-05,5.8366e-06,-6.94788e-05,8.94676e-06,-2.15668e-05,7.37546e-06,-1.43258e-06,4
-3.48553e-05,2.02185e-05,5.28635e-06,-4.07304e-05,1.18282e-06,-1.97244e-05,4.45023e-06,2.09287e-06,4
-3.48362e-05,1.89718e-05,7.07234e-07,0.000320775,-1.12036e-05,-1.95972e-05,7.85359e-06,4.76843e-06,4
-3.57378e-05,1.59218e-05,-6.00236e-06,0.000603783,-1.65022e-05,-1.94411e-05,1.56664e-05,6.87931e-06,4
-3.59325e-05,1.35907e-05,-1.33094e-05,0.000430202,-7.81051e-06,-1.70771e-05,2.67951e-05,9.6588e-06,4
-3.58774e-05,1.1148e-05,-1.87738e-05,-8.3599e-06,4.57735e-06,-1.43685e-05,4.04188e-05,1.24557e-05,4
-3.5615e-05,9.27276e-06,-1.78742e-05,-0.000171696,7.63546e-06,-1.38284e-05,4.80829e-05,1.35132e-05,4
-3.51105e-05,1.068e-05,-9.09268e-06,-4.26879e-05,1.83538e-06,-1.53516e-05,4.66112e-05,1.58846e-05,4
-3.61511e-05,1.19233e-05,3.90095e-06,-2.43559e-05,-2.80638e-06,-1.85492e-05,3.5936e-05,2.14127e-05,4
-3.74284e-05,9.80132e-06,1.45532e-05,-0.000190935,1.71081e-06,-1.82522e-05,1.14175e-05,2.71922e-05,4
-3.65156e-05,7.36132e-06,2.05485e-05,-0.000263686,1.14503e-05,-1.26181e-05,-1.78966e-05,3.17732e-05,4
-3.33323e-05,8.81662e-06,2.15373e-05,-6.51005e-05,2.20648e-05,-5.10901e-06,-3.26924e-05,3.45238e-05,4
-2.8347e-05,1.23161e-05,1.60132e-05,0.000215585,3.24772e-05,1.03334e-06,-4.122e-05,3.65098e-05,4
-2.62929e-05,1.3222e-05,1.43155e-06,0.000206454,3.77791e-05,1.49915e-06,-5.86612e-05,3.78875e-05,4
-2.96084e-05,1.08461e-05,-1.96942e-05,-3.51562e-05,3.54242e-05,-2.13369e-06,-6.41695e-05,3.822e-05,4
-3.53901e-05,7.36649e-06,-3.76843e-05,-0.00018333,2.68982e-05,-4.93724e-06,-3.90238e-05,3.63287e-05,4
-3.97326e-05,3.79781e-06,-4.61565e-05,-0.000250017,1.75476e-05,-3.36179e-06,2.45661e-06,3.19333e-05,4
-4.12976e-05,2.73173e-06,-4.62428e-05,-0.000331749,7.98158e-06,-4.60529e-07,4.82199e-05,2.59053e-05,4
-4.19467e-05,3.35641e-06,-4.35552e-05,-0.000471062,-4.52704e-06,3.54244e-07,9.89154e-05,1.8906e-05,4
-4.22404e-05,3.14352e-06,-3.72324e-05,-0.000553872,-1.70466e-05,-1.49434e-06,0.000142442,1.18676e-05,4
-4.26748e-05,3.73346e-06,-2.39151e-05,-0.000364815,-2.02758e-05,-2.80639e-06,0.000148341,6.61967e-06,4
-4.12602e-05,5.86177e-06,-8.94705e-06,1.04021e-05,-1.16138e-05,-2.15112e-06,9.95895e-05,3.27824e-06,4
-3.77888e-05,8.74428e-06,-1.60372e-06,0.000169523,2.40486e-06,-9.77359e-07,2.43833e-05,2.74947e-07,4
-3.34464e-05,1.16457e-05,-2.6452e-06,-4.93277e-05,1.60121e-05,2.63507e-06,-3.05523e-05,-1.91393e-06,4
-2.89345e-05,1.46077e-05,-4.47683e-06,-0.000306626,2.69626e-05,9.59326e-06,-4.15539e-05,-2.65727e-06,4
-2.56741e-05,1.70117e-05,-2.84371e-06,-0.000312697,3.39827e-05,1.54324e-05,-2.21155e-05,-3.52051e-06,4
-2.56304e-05,1.85752e-05,7.75777e-07,-0.00015747,3.61509e-05,1.47387e-05,4.563e-07,-5.54847e-06,4
-2.7325e-05,1.84751e-05,4.00779e-06,-2.07064e-06,3.5951e-05,8.78172e-06,1.06511e-05,-6.92752e-06,4
-2.8117e-05,1.78621e-05,5.58528e-06,0.000199906,3.53703e-05,9.252e-07,7.39133e-06,-7.18285e-06,4
-2.87779e-05,1.81587e-05,7.05864e-06,0.000460873,3.55092e-05,-5.35878e-06,-8.87569e-06,-7.15619e-06,4
-3.02516e-05,1.93136e-05,8.61888e-06,0.000640802,3.37655e-05,-8.92286e-06,-2.75261e-05,-7.33315e-06,4
-3.24285e-05,1.94853e-05,6.71007e-06,0.000625803,2.61578e-05,-9.96257e-06,-1.78681e-05,-6.7659e-06,4
-3.42829e-05,1.47644e-05,-2.09449e-06,0.000422489,1.18125e-05,-1.06049e-05,3.47096e-05,-7.0273e-06,4
-3.71925e-05,6.9457e-06,-1.96949e-05,5.12137e-05,-4.08548e-06,-1.177e-05,8.40529e-05,-1.04266e-05,4
-4.03e-05,2.78859e-06,-3.39392e-05,-0.000304275,-1.19132e-05,-1.3667e-05,7.65141e-05,-1.44221e-05,4
-3.96237e-05,3.56289e-06,-2.83785e-05,-0.000405523,-6.73664e-06,-1.79741e-05,2.21972e-05,-1.60066e-05,4
-3.57044e-05,6.06786e-06,-1.17333e-05,-0.000226814,3.19215e-06,-2.16557e-05,-2.04468e-05,-1.52436e-05,4
-3.2077e-05,7.9355e-06,-2.23631e-06,6.96186e-05,6.3395e-06,-2.08347e-05,-2.23404e-05,-1.40098e-05,4
-3.16331e-05,8.43677e-06,-3.04573e-06,0.000163741,3.18292e-06,-1.88217e-05,-7.87264e-06,-1.00238e-05,4
-3.28777e-05,7.99723e-06,-9.35956e-06,-3.65015e-05,-3.46727e-07,-1.82881e-05,4.45703e-06,-4.16403e-06,4
-3.32702e-05,8.42415e-06,-1.92551e-05,-0.000245246,-6.51651e-07,-1.85399e-05,7.19006e-06,-3.18565e-07,4
-3.32315e-05,8.93189e-06,-3.54213e-05,-0.00026254,3.11028e-06,-1.93964e-05,4.08157e-06,2.62691e-06,4
-3.29098e-05,9.02818e-06,-5.38494e-05,-0.00014864,8.86458e-06,-2.0779e-05,5.27321e-07,4.63517e-06,4
-3.19656e-05,1.11393e-05,-6.26057e-05,5.16097e-06,1.4647e-05,-2.15638e-05,-1.76579e-06,5.22768e-06,4
-2.90238e-05,1.51552e-05,-5.64328e-05,0.000146343,1.88956e-05,-2.07976e-05,-1.9369e-06,4.27591e-06,4
-2.55666e-05,1.91221e-05,-4.40569e-05,0.000274132,2.07813e-05,-1.90886e-05,-1.97583e-06,2.61167e-06,4
-2.46284e-05,2.07215e-05,-3.42706e-05,0.000433112,1.94297e-05,-1.89765e-05,-1.97704e-06,1.19976e-06,4
-2.71932e-05,1.96821e-05,-1.48425e-05,0.000660056,1.48672e-05,-2.20856e-05,6.82319e-07,-8.83477e-07,4
-3.19145e-05,1.58793e-05,2.77975e-05,0.000911773,6.41959e-06,-2.77153e-05,5.48174e-06,-4.55575e-06,4
-3.79107e-05,9.43764e-06,7.91131e-05,0.000977888,-5.99152e-06,-3.62573e-05,2.51308e-06,-8.26431e-06,4
-4.19916e-05,3.47293e-06,0.000113538,0.00053052,-1.59627e-05,-4.36962e-05,-1.29484e-05,-1.01385e-05,4
-3.93497e-05,4.61391e-06,0.000122397,-0.000415046,-1.44784e-05,-4.10276e-05,-2.7916e-05,-1.06067e-05,4
-2.99465e-05,1.39001e-05,0.000109487,-0.00133187,1.47647e-07,-2.27309e-05,-2.12101e-05,-9.22226e-06,4
-1.96234e-05,2.23959e-05,7.88817e-05,-0.00175176,1.76554e-05,2.68024e-06,5.94418e-06,-6.41128e-06,4
-1.50283e-05,2.30312e-05,3.85191e-05,-0.00161312,2.64094e-05,2.11708e-05,3.44915e-05,-3.64915e-06,4
-1.68811e-05,1.91666e-05,3.00213e-06,-0.00107729,2.46003e-05,2.71225e-05,4.91395e-05,-7.39648e-07,4
-2.07523e-05,1.54604e-05,-1.82748e-05,-0.000426258,2.08245e-05,2.40388e-05,4.53161e-05,4.24324e-06,4
-2.27846e-05,1.26274e-05,-2.85851e-05,2.86476e-05,2.21887e-05,1.77332e-05,2.43942e-05,1.31277e-05,4
-2.23203e-05,1.09782e-05,-3.20655e-05,0.00018869,2.67022e-05,1.19684e-05,-7.60053e-07,2.32488e-05,4
-1.97371e-05,1.05312e-05,-3.01309e-05,0.00023633,2.91108e-05,9.42803e-06,-9.28076e-06,2.86562e-05,4
-1.8147e-05,1.05286e-05,-2.69605e-05,0.000327688,2.76467e-05,7.30617e-06,1.02101e-05,2.98941e-05,4
-1.9895e-05,9.42012e-06,-2.37942e-05,0.000373225,2.20785e-05,1.60672e-07,4.12892e-05,3.28381e-05,4
-2.20073e-05,9.35353e-06,-1.89985e-05,0.000308376,1.65984e-05,-5.48128e-06,5.83167e-05,3.68601e-05,4
-2.18485e-05,1.0526e-05,-1.52644e-05,0.000246399,1.66845e-05,-2.42567e-06,4.80866e-05,3.49208e-05,4
-2.26824e-05,1.03286e-05,-1.27816e-05,0.000219983,1.78146e-05,1.3495e-06,2.28882e-05,2.73021e-05,4
-2.38957e-05,9.94377e-06,-1.00804e-05,0.000139564,1.33146e-05,-2.55195e-08,9.87597e-06,1.59259e-05,4
-2.46724e-05,1.06096e-05,-9.91445e-06,1.33196e-05,8.15267e-06,-2.19234e-06,2.46254e-05,1.69018e-06,4
-2.40218e-05,1.32271e-05,-9.06295e-06,-0.000108697,9.38432e-06,-2.41782e-06,6.81322e-05,-1.08876e-05,4
-2.09588e-05,1.76806e-05,-3.24918e-06,-0.000176002,1.57983e-05,-6.08839e-07,0.000116089,-2.18849e-05,4
-1.91066e-05,2.03074e-05,1.91071e-06,-0.000110622,1.90191e-05,-8.26442e-07,0.000132727,-3.01932e-05,4
-2.07119e-05,1.88482e-05,-4.71678e-07,0.000101287,1.4714e-05,-5.26234e-06,8.29338e-05,-3.44108e-05,4
-2.47173e-05,1.4879e-05,-1.08767e-05,0.000269616,8.0922e-06,-1.12208e-05,-3.1674e-05,-3.46255e-05,4
-2.66923e-05,1.10249e-05,-2.20484e-05,0.000107621,4.23116e-06,-1.45182e-05,-0.000175002,-3.27014e-05,4
-2.75226e-05,9.39551e-06,-2.84924e-05,-0.000285748,4.13671e-06,-1.31928e-05,-0.000314583,-2.97158e-05,4
-2.87244e-05,9.08766e-06,-3.19486e-05,-0.000398421,4.75603e-06,-1.26552e-05,-0.000404528,-2.43445e-05,4
-2.90306e-05,8.88575e-06,-3.38971e-05,-5.097e-05,6.29989e-06,-1.45905e-05,-0.000362808,-1.68724e-05,4
-2.68222e-05,9.56531e-06,-3.27134e-05,0.000403169,1.11992e-05,-1.60157e-05,-0.000156014,-7.03909e-06,4
-2.3429e-05,1.16753e-05,-2.64947e-05,0.000618539,1.67095e-05,-1.49663e-05,0.00012662,3.03221e-06,4
-2.15943e-05,1.39701e-05,-1.67062e-05,0.000589414,1.71596e-05,-1.47524e-05,0.000335339,9.82978e-06,4
-2.13852e-05,1.40121e-05,-8.10164e-06,0.00049754,1.33909e-05,-1.77623e-05,0.000379434,1.23925e-05,4
-2.16635e-05,1.18812e-05,-5.22408e-06,0.000476709,1.00627e-05,-2.17562e-05,0.000280213,1.20494e-05,4
-2.19635e-05,9.29435e-06,-6.33795e-06,0.000577745,8.47528e-06,-2.49355e-05,0.000130119,1.04875e-05,4
-2.31409e-05,8.21074e-06,-3.63719e-06,0.000761945,7.24276e-06,-2.734e-05,1.27556e-05,1.17821e-05,4
-2.43464e-05,9.12738e-06,5.10462e-06,0.000896065,5.18548e-06,-2.78586e-05,-4.17005e-05,2.02121e-05,4
-2.55005e-05,9.58734e-06,9.67447e-06,0.00073655,2.25497e-06,-2.64467e-05,-3.18428e-05,3.54394e-05,4
-2.68107e-05,9.07148e-06,3.55457e-06,-2.36609e-05,1.24141e-06,-2.42845e-05,1.09618e-05,5.09434e-05,4
-2.63865e-05,9.20025e-06,-9.47062e-06,-0.00119022,5.93978e-06,-2.10349e-05,4.46398e-05,6.1509e-05,4
-2.46176e-05,9.14617e-06,-2.11768e-05,-0.00174209,1.37137e-05,-1.80302e-05,5.56838e-05,6.28259e-05,4
-2.44148e-05,9.59002e-06,-2.51738e-05,-0.00122304,2.06663e-05,-1.41786e-05,5.44235e-05,5.69276e-05,4
-2.48527e-05,1.21779e-05,-2.55877e-05,-0.000289647,2.83999e-05,-5.34246e-06,3.18602e-05,5.69165e-05,4
-2.15432e-05,1.50215e-05,-2.64158e-05,0.000179584,3.67385e-05,4.13904e-06,-1.12764e-06,5.78384e-05,4
-1.55253e-05,1.67777e-05,-2.84703e-05,0.000249151,4.33511e-05,9.10056e-06,3.26896e-06,4.38651e-05,4
-1.3931e-05,1.60401e-05,-3.61126e-05,0.000303272,4.29509e-05,1.11597e-05,3.48303e-05,1.74609e-05,4
-1.76691e-05,1.27113e-05,-4.71871e-05,0.000137062,3.50016e-05,9.08055e-06,4.03081e-05,-1.27051e-05,4
-2.31907e-05,1.22285e-05,-5.03299e-05,-4.38222e-05,2.82638e-05,5.18821e-06,1.12243e-05,-4.19578e-05,4
-2.73311e-05,1.56336e-05,-4.25593e-05,2.58221e-05,2.62986e-05,3.65754e-06,-1.83736e-05,-6.51142e-05,4
-2.88266e-05,2.06522e-05,-2.99266e-05,0.000288946,2.77941e-05,5.20244e-06,-2.8492e-05,-7.84622e-05,4
-2.9617e-05,2.517e-05,-1.82128e-05,0.000393824,2.79875e-05,5.64358e-06,-1.97561e-05,-7.77139e-05,4
-3.06359e-05,2.74512e-05,-1.03825e-05,0.000252079,2.36307e-05,3.26737e-06,6.56081e-06,-6.77936e-05,4
-3.17483e-05,2.68561e-05,-7.86898e-06,8.54324e-06,1.37286e-05,-4.20688e-07,4.11658e-05,-6.57826e-05,4
-3.41183e-05,2.23544e-05,-1.53815e-05,-0.000289311,1.93397e-07,-6.33511e-06,6.47675e-05,-8.09255e-05,4
-3.80013e-05,1.56892e-05,-3.005e-05,-0.000497226,-1.30885e-05,-1.39041e-05,7.05698e-05,-0.000105051,4
-4.10632e-05,1.06174e-05,-3.76394e-05,-0.000477744,-1.96707e-05,-1.89275e-05,5.50749e-05,-0.000117551,4
-4.11817e-05,9.62008e-06,-2.83932e-05,-0.000249854,-1.70704e-05,-1.95299e-05,1.39435e-05,-0.000104562,4
-3.90152e-05,1.11379e-05,-8.94618e-06,-4.63057e-05,-1.13937e-05,-1.91022e-05,-1.1812e-05,-7.24588e-05,4
-3.69981e-05,1.32243e-05,7.1194e-06,4.66374e-06,-7.85472e-06,-1.83369e-05,4.96921e-05,-3.68546e-05,4
-3.62959e-05,1.47333e-05,1.31942e-05,-8.65993e-05,-4.808e-06,-1.61637e-05,0.000170027,-6.77823e-06,4
-3.67873e-05,1.4744e-05,1.26385e-05,-0.000153725,-4.55341e-07,-1.33632e-05,0.000212439,1.5158e-05,4
-3.82727e-05,1.28315e-05,1.28944e-05,-9.68955e-05,8.4787e-07,-1.33778e-05,0.000125957,2.85876e-05,4
-4.10339e-05,1.05743e-05,1.52923e-05,0.000132352,-2.24096e-06,-1.83245e-05,6.17063e-07,3.53079e-05,4
-4.44476e-05,8.90303e-06,1.64038e-05,0.000480787,-6.16846e-06,-2.58383e-05,-8.18101e-05,3.72337e-05,4
-4.52851e-05,8.72512e-06,1.65283e-05,0.000673466,-4.18616e-06,-2.95942e-05,-0.000113908,3.60428e-05,4
-4.04808e-05,1.16827e-05,1.63651e-05,0.000321625,6.61534e-06,-2.28613e-05,-0.000103397,3.24076e-05,4
-3.38739e-05,1.43917e-05,1.38912e-05,-0.000352903,1.92017e-05,-9.25392e-06,-5.35029e-05,2.47319e-05,4
-3.26732e-05,1.30758e-05,1.01723e-05,-0.000709275,2.1052e-05,-5.64385e-06,1.96195e-06,1.30336e-05,4
-3.67934e-05,1.05638e-05,6.71106e-06,-0.000671454,1.37732e-05,-1.43939e-05,2.71807e-05,1.65028e-06,4
-4.06537e-05,9.59857e-06,1.32592e-06,-0.000557071,9.23362e-06,-2.21684e-05,1.85587e-05,-5.58732e-06,4
-4.14568e-05,8.7497e-06,-5.15629e-06,-0.000464945,1.08018e-05,-2.12135e-05,-3.39287e-06,-7.85907e-06,4
-3.84959e-05,8.32183e-06,-7.36584e-06,-0.00036835,1.40661e-05,-1.3603e-05,-1.11835e-05,-7.59419e-06,4
-3.3057e-05,1.10074e-05,-4.73617e-06,-0.000276076,1.86718e-05,-3.36357e-06,-2.24254e-06,-5.47732e-06,4
-2.75962e-05,1.59899e-05,-3.31596e-06,-0.000120254,2.50907e-05,5.79583e-06,1.02836e-05,-8.53131e-08,4
-2.62412e-05,1.88808e-05,-7.29463e-06,7.03961e-05,2.94382e-05,8.28543e-06,1.88054e-05,6.67718e-06,4
-2.77805e-05,1.92778e-05,-1.17603e-05,0.000202346,3.05724e-05,7.27068e-06,2.39096e-05,1.18158e-05,4
-2.78608e-05,1.88119e-05,-1.07419e-05,0.000228811,3.11996e-05,4.30177e-06,2.16632e-05,1.40776e-05,4
-2.68271e-05,1.80192e-05,-5.89808e-06,0.000162152,3.24199e-05,-2.98839e-07,6.80114e-06,1.54019e-05,4
-2.65659e-05,1.66156e-05,-4.51291e-06,0.000130158,2.9863e-05,-6.48434e-06,-6.49186e-06,1.89102e-05,4
-2.90914e-05,1.36353e-05,-7.99019e-06,0.000224977,2.13432e-05,-1.1118e-05,-2.1912e-06,2.73243e-05,4
-3.3019e-05,9.61424e-06,-1.15691e-05,0.000312711,1.15604e-05,-1.17632e-05,1.69395e-05,3.88122e-05,4
-3.657e-05,4.61042e-06,-1.31535e-05,0.000295143,6.03803e-06,-1.22439e-05,3.80827e-05,4.86485e-05,4
-3.85083e-05,4.58051e-07,-1.32911e-05,0.000166393,5.69576e-06,-1.40153e-05,4.77522e-05,5.59408e-05,4
-3.85822e-05,-3.24276e-07,-1.21678e-05,3.79615e-05,1.02835e-05,-1.502e-05,3.68699e-05,6.11569e-05,4
-3.68321e-05,2.36629e-06,-1.08047e-05,-4.33697e-06,1.66513e-05,-1.27402e-05,7.18164e-06,6.26018e-05,4
-3.38077e-05,6.97647e-06,-1.17474e-05,6.07432e-07,2.25354e-05,-8.67863e-06,-3.14749e-05,6.11162e-05,4
-3.05454e-05,1.04075e-05,-1.52336e-05,1.14444e-05,2.78053e-05,-4.90671e-06,-7.45502e-05,6.00557e-05,4
-2.86944e-05,1.09326e-05,-1.9211e-05,3.03109e-05,3.03929e-05,-4.56648e-06,-0.000118947,5.72563e-05,4
-2.80439e-05,1.00004e-05,-2.14293e-05,5.87826e-05,2.83139e-05,-7.92261e-06,-0.000148954,4.68616e-05,4
-2.72488e-05,1.00815e-05,-2.07192e-05,9.17958e-05,2.42317e-05,-1.15463e-05,-0.000136158,2.73864e-05,4
-2.67925e-05,1.03911e-05,-1.74462e-05,0.000113054,2.05996e-05,-1.22667e-05,-6.12633e-05,3.06495e-06,4
-2.68727e-05,1.0601e-05,-1.42381e-05,8.37921e-05,1.895e-05,-1.09562e-05,5.50127e-05,-1.89044e-05,4
-2.66244e-05,1.22904e-05,-1.13198e-05,2.86702e-05,2.12037e-05,-1.00153e-05,0.000142858,-3.26997e-05,4
-2.63507e-05,1.26768e-05,-1.05193e-05,7.54443e-06,2.48712e-05,-1.11767e-05,0.000134475,-3.69641e-05,4
-2.71783e-05,1.087e-05,-1.16555e-05,5.14843e-05,2.71078e-05,-1.36609e-05,6.06531e-05,-2.97574e-05,4
-2.79496e-05,9.44554e-06,-9.1519e-06,0.000152051,2.68151e-05,-1.63709e-05,7.04666e-06,-1.77371e-05,4
-2.83673e-05,8.52072e-06,-1.5772e-07,0.000304677,2.56271e-05,-1.76448e-05,5.08761e-06,-1.2867e-05,4
-2.8369e-05,7.79244e-06,8.43105e-06,0.000448281,2.01585e-05,-1.70739e-05,2.74534e-05,-1.61278e-05,4
-2.89941e-05,7.53582e-06,1.14473e-05,0.000469674,1.21344e-05,-1.7267e-05,4.31592e-05,-2.3541e-05,4
-2.90738e-05,8.81529e-06,1.35337e-05,0.000343126,9.0821e-06,-1.64692e-05,3.67407e-05,-3.1556e-05,4
-2.74626e-05,1.04119e-05,1.49726e-05,0.000164865,9.75704e-06,-1.36076e-05,7.4547e-06,-3.90356e-05,4
-2.64953e-05,1.13592e-05,1.24148e-05,-6.66713e-05,6.38627e-06,-1.25811e-05,-2.52763e-06,-4.21482e-05,4
-2.6466e-05,1.08508e-05,3.17983e-06,-0.000288611,-3.24273e-06,-1.23484e-05,3.84077e-05,-3.40411e-05,4
-2.60211e-05,1.12294e-05,-7.4097e-06,-0.000347384,-6.45733e-06,-8.43207e-06,9.41142e-05,-1.82263e-05,4
-2.52385e-05,1.2745e-05,-1.11888e-05,-0.000216978,1.06831e-06,-1.71046e-06,9.47237e-05,-4.47974e-06,4
-2.4292e-05,1.43139e-05,-6.67094e-06,3.23989e-05,1.10386e-05,2.52666e-06,3.42966e-05,1.82397e-06,4
-2.3179e-05,1.7112e-05,2.00846e-06,0.000237337,1.69413e-05,2.00801e-06,-2.41097e-05,3.05775e-06,4
-2.36588e-05,2.02353e-05,9.53582e-06,0.000238152,1.88672e-05,-6.27837e-07,-3.41651e-05,3.4903e-06,4
-2.64109e-05,2.22023e-05,1.29975e-05,-1.2782e-05,1.84019e-05,-4.65045e-06,-6.87174e-06,5.46401e-06,4
-3.08925e-05,2.09969e-05,1.21246e-05,-0.000351814,1.6218e-05,-9.50246e-06,1.83315e-05,1.2163e-05,4
-3.47741e-05,1.75396e-05,8.23391e-06,-0.000538073,1.28315e-05,-1.30882e-05,2.55137e-05,2.15138e-05,4
-3.64829e-05,1.31951e-05,1.86657e-06,-0.00048643,6.79318e-06,-1.54273e-05,2.1308e-05,2.72933e-05,4
-3.74742e-05,9.34334e-06,-5.07303e-06,-0.00032089,-1.87669e-06,-1.83328e-05,1.15159e-05,2.39043e-05,4
-3.85783e-05,6.35801e-06,-9.6922e-06,-0.000172903,-9.0459e-06,-2.10911e-05,2.66201e-06,1.15805e-05,4
-3.87376e-05,5.5937e-06,-1.12245e-05,-4.36463e-05,-7.9937e-06,-2.24247e-05,9.30906e-06,-3.61428e-06,4
-3.84563e-05,5.47799e-06,-1.24176e-05,8.24544e-05,-4.42376e-07,-2.20298e-05,1.58233e-05,-1.28918e-05,4
-3.84673e-05,4.0837e-06,-1.50453e-05,0.00012011,5.53263e-06,-2.03647e-05,-3.1996e-06,-9.87719e-06,4
-3.76631e-05,3.66964e-06,-1.76923e-05,-1.75965e-05,7.97692e-06,-1.68198e-05,-3.20264e-05,2.36827e-06,4
-3.59895e-05,6.64531e-06,-1.83535e-05,-0.000169247,1.1355e-05,-1.15108e-05,-3.43265e-05,1.31362e-05,4
-3.45523e-05,9.6985e-06,-2.06623e-05,-0.000136739,1.41352e-05,-7.1165e-06,-5.97049e-06,1.17071e-05,4
-3.46245e-05,9.03923e-06,-2.82743e-05,-1.76585e-05,1.40203e-05,-4.73813e-06,2.08623e-05,-2.65791e-06,4
-3.32895e-05,8.35445e-06,-3.67097e-05,-2.77123e-05,1.36834e-05,-3.25582e-06,2.77948e-05,-2.0857e-05,4
-2.87234e-05,1.09462e-05,-4.03915e-05,-0.000117452,1.5458e-05,-2.83245e-06,3.39897e-05,-3.34689e-05,4
-2.51756e-05,1.46628e-05,-3.83116e-05,-0.000118945,1.86351e-05,-3.42118e-06,4.41118e-05,-3.91086e-05,4
-2.48758e-05,1.70031e-05,-2.9173e-05,-4.95792e-05,2.0153e-05,-4.26161e-06,2.9521e-05,-3.86587e-05,4
-2.32167e-05,1.84455e-05,-1.16001e-05,0.000157402,1.97163e-05,-6.95195e-06,2.36789e-06,-3.16379e-05,4
-2.07636e-05,1.80751e-05,1.09175e-05,0.000453423,1.88774e-05,-1.42817e-05,-1.0894e-05,-2.25436e-05,4
-2.02757e-05,1.91718e-05,3.06505e-05,0.000316179,1.89001e-05,-2.16114e-05,-1.49654e-05,-1.61968e-05,4
-1.87302e-05,2.46363e-05,3.89594e-05,-0.000452712,2.3584e-05,-2.06756e-05,-2.10621e-05,-1.31965e-05,4
-1.69633e-05,2.93933e-05,2.95984e-05,-0.00115331,3.22316e-05,-1.42041e-05,-4.53449e-05,-1.16847e-05,4
-1.5583e-05,2.79579e-05,9.81209e-06,-0.00102932,3.78969e-05,-1.00743e-05,-7.44289e-05,-1.07785e-05,4
-1.53647e-05,2.22311e-05,-1.63359e-06,-0.000128765,3.69856e-05,-8.76528e-06,-7.11658e-05,-9.62417e-06,4
-1.61076e-05,1.87142e-05,3.72638e-06,0.000750836,3.40491e-05,-5.05537e-06,-2.48833e-05,-7.88989e-06,4
-1.74853e-05,1.90007e-05,1.545e-05,0.000940415,3.16629e-05,1.49641e-07,2.91273e-05,-6.97212e-06,4
-2.09371e-05,2.01724e-05,1.51888e-05,0.000552149,2.52996e-05,2.00315e-06,4.89279e-05,-6.77203e-06,4
-2.63392e-05,1.84723e-05,2.78586e-07,-1.0618e-05,1.36986e-05,1.54575e-06,2.20764e-05,-5.83805e-06,4
-3.08227e-05,1.48675e-05,-1.59305e-05,-0.000470023,9.45177e-07,1.46155e-06,-3.90015e-05,-3.456e-06,4
-3.35651e-05,1.23081e-05,-2.49006e-05,-0.000663444,-5.59072e-06,1.03956e-06,-0.000112455,-1.06257e-06,4
-3.62662e-05,1.08828e-05,-2.98462e-05,-0.000501853,-3.90739e-06,-1.79815e-06,-0.000154347,1.3166e-06,4
-3.86692e-05,9.72205e-06,-3.49929e-05,-6.63317e-05,1.75557e-06,-4.64611e-06,-0.000104993,3.8051e-06,4
-4.03586e-05,7.59486e-06,-4.01847e-05,0.000372079,4.16858e-06,-4.43308e-06,2.1451e-05,6.67272e-06,4
-4.14995e-05,3.9175e-06,-4.39957e-05,0.000526459,-6.0398e-07,-5.46133e-06,0.000126286,9.17136e-06,4
-4.37465e-05,-1.16617e-06,-4.54274e-05,0.000356247,-1.01599e-05,-1.11415e-05,0.000148408,1.02883e-05,4
-4.57078e-05,-4.951e-06,-4.3722e-05,9.96682e-05,-1.65783e-05,-1.66053e-05,0.000130048,1.10011e-05,4
-4.39326e-05,-3.44738e-06,-3.43564e-05,-4.87503e-05,-1.22312e-05,-1.65011e-05,0.000130373,1.29909e-05,4
-3.78927e-05,3.54459e-06,-1.56473e-05,-5.31387e-05,2.24352e-07,-1.21207e-05,0.000150641,1.60447e-05,4
-3.15621e-05,1.04222e-05,-4.44671e-06,-6.54299e-06,1.13102e-05,-6.06728e-06,0.000143188,1.79547e-05,4
-2.77889e-05,1.29573e-05,-1.03999e-05,7.46521e-06,1.68818e-05,-8.05495e-07,9.04499e-05,1.87038e-05,4
-2.56957e-05,1.28809e-05,-1.3502e-05,5.36101e-05,2.04653e-05,1.35613e-06,2.03453e-05,1.9481e-05,4
-2.46256e-05,1.26575e-05,-4.73592e-06,0.000204521,2.15371e-05,1.44891e-07,-3.30248e-05,1.94688e-05,4
-2.57986e-05,1.25379e-05,6.47264e-06,0.00040356,2.00542e-05,-3.28749e-06,-4.72442e-05,1.8623e-05,4
-2.73833e-05,1.36767e-05,1.21101e-05,0.000399198,2.01636e-05,-5.46874e-06,-2.70472e-05,1.85036e-05,4
-2.7709e-05,1.56108e-05,1.16976e-05,9.00797e-05,2.00425e-05,-5.02352e-06,1.37953e-05,1.90731e-05,4
-2.67061e-05,1.70352e-05,8.37082e-06,-0.000204213,1.73407e-05,-2.96773e-06,6.42263e-05,2.1122e-05,4
-2.52787e-05,1.63018e-05,2.70629e-06,-0.000261126,1.26643e-05,-2.01607e-06,0.000104852,2.27569e-05,4
-2.57733e-05,1.39052e-05,-3.13866e-06,-0.000138436,7.54852e-06,-4.11477e-06,0.000113623,2.32105e-05,4
-2.70385e-05,1.32031e-05,-9.31119e-06,-7.21758e-06,5.73777e-06,-7.22072e-06,8.08228e-05,2.20933e-05,4
-2.71634e-05,1.48223e-05,-1.21614e-05,6.4505e-05,6.49812e-06,-1.11843e-05,1.51477e-05,1.8807e-05,4
-2.62225e-05,1.84977e-05,-1.02975e-05,6.73957e-05,8.91185e-06,-1.52178e-05,-5.70192e-05,1.51475e-05,4
-2.44604e-05,2.00729e-05,-8.81459e-06,-3.50821e-05,1.37592e-05,-1.64019e-05,-0.000108788,1.18402e-05,4
-2.38705e-05,1.67629e-05,-1.04092e-05,-0.000195544,1.72373e-05,-1.39732e-05,-0.000117458,9.00192e-06,4
-2.63521e-05,1.21186e-05,-9.52692e-06,-0.000266952,1.68726e-05,-1.18894e-05,-6.50339e-05,6.60696e-06,4
-2.90432e-05,1.06431e-05,1.17823e-06,-0.000204727,1.47923e-05,-1.22946e-05,4.20291e-05,4.88809e-06,4
-2.85412e-05,1.41415e-05,2.20214e-05,-0.000100427,1.56464e-05,-1.35581e-05,0.000137615,2.7875e-06,4
-2.48746e-05,2.00513e-05,4.32478e-05,8.31823e-06,2.24198e-05,-1.29684e-05,0.000151561,2.57692e-07,4
-2.13503e-05,2.48743e-05,4.97766e-05,0.000127641,3.15385e-05,-8.97029e-06,9.85518e-05,-1.95017e-06,4
-2.09749e-05,2.57865e-05,3.53581e-05,0.000300213,3.57244e-05,-5.19165e-06,4.55462e-05,-2.45726e-06,4
-2.46683e-05,2.20141e-05,4.14791e-06,0.000517393,2.90516e-05,-5.95366e-06,2.39568e-05,-7.76266e-07,4
-3.02447e-05,1.53219e-05,-3.14883e-05,0.000643114,1.38799e-05,-1.14498e-05,1.63366e-05,2.7247e-06,4
-3.44572e-05,9.10909e-06,-5.87059e-05,0.000483982,-7.0881e-07,-1.67066e-05,7.76721e-06,7.2719e-06,4
-3.50998e-05,6.39723e-06,-7.22352e-05,0.000134514,-6.37608e-06,-1.70175e-05,-3.00391e-06,1.05287e-05,4
-3.36322e-05,7.61872e-06,-7.47821e-05,-2.04415e-05,-3.17371e-06,-1.14229e-05,-2.16778e-05,1.10646e-05,4
-3.31977e-05,1.0672e-05,-6.8948e-05,7.19616e-05,3.1682e-06,-4.13362e-06,-4.91287e-05,1.01099e-05,4
-3.33887e-05,1.25062e-05,-5.30543e-05,1.65814e-05,9.89046e-06,-5.7478e-07,-7.01843e-05,7.4096e-06,4
-3.31535e-05,1.255e-05,-2.94215e-05,-0.000109962,1.41843e-05,-1.98594e-06,-7.14128e-05,3.0503e-06,4
-3.36642e-05,1.15546e-05,-7.4647e-06,7.08718e-05,1.50427e-05,-6.11381e-06,-5.6988e-05,-1.35005e-06,4
-3.45439e-05,1.15975e-05,1.32408e-05,0.000344896,1.41128e-05,-1.13517e-05,-3.41828e-05,-6.10646e-06,4
-3.35091e-05,1.51509e-05,3.80238e-05,0.000239633,1.26951e-05,-1.45628e-05,1.47537e-06,-9.91217e-06,4
-3.14366e-05,1.97024e-05,5.34073e-05,-0.00014804,1.1578e-05,-1.25308e-05,4.79221e-05,-1.15511e-05,4
-3.01024e-05,2.12275e-05,5.72662e-05,-0.000310793,1.22139e-05,-7.60138e-06,8.7362e-05,-1.09308e-05,4
-3.11349e-05,1.83833e-05,5.86937e-05,-0.000147837,1.25549e-05,-6.49899e-06,9.22498e-05,-9.06696e-06,4
-3.59448e-05,1.12701e-05,5.0002e-05,0.000110785,9.72887e-06,-1.22912e-05,5.02074e-05,-6.30348e-06,4
-4.11363e-05,4.08778e-06,2.76573e-05,6.60827e-05,8.93063e-06,-2.14562e-05,-1.13341e-05,-3.24453e-06,4
-4.22901e-05,1.94568e-06,-4.06012e-07,-0.000439945,1.28195e-05,-2.44924e-05,-5.69091e-05,-1.36996e-06,4
-3.84765e-05,4.892e-06,-1.88105e-05,-0.000922065,2.03162e-05,-1.62399e-05,-7.0959e-05,-1.10416e-06,4
-3.34945e-05,8.9119e-06,-2.63363e-05,-0.000945823,2.7888e-05,-5.14216e-06,-5.88024e-05,-1.09928e-06,4
-3.07686e-05,1.14007e-05,-2.77877e-05,-0.000606076,3.04177e-05,1.19096e-06,-3.29684e-05,-8.85263e-07,4
-2.92381e-05,1.19021e-05,-2.49678e-05,-0.000235871,2.94937e-05,3.17737e-06,-1.08062e-05,-1.20682e-06,4
-2.84446e-05,1.20801e-05,-1.91509e-05,-6.98195e-06,2.76259e-05,3.90694e-06,-2.81652e-06,-2.79984e-06,4
-2.91264e-05,1.27989e-05,-9.7639e-06,9.53923e-05,2.50698e-05,2.08928e-06,-1.7654e-06,-6.51721e-06,4
-2.97646e-05,1.44695e-05,3.87428e-07,0.000115351,2.27675e-05,-1.19673e-06,4.69534e-07,-1.13227e-05,4
-2.86549e-05,1.67317e-05,8.00659e-06,8.83129e-05,2.22635e-05,-2.94956e-06,4.44103e-06,-1.60816e-05,4
-2.75077e-05,1.81496e-05,1.00088e-05,4.34914e-05,2.26337e-05,-3.82661e-06,8.89528e-06,-2.03319e-05,4
-2.81106e-05,1.83229e-05,9.17627e-06,3.08382e-05,2.21237e-05,-6.55438e-06,1.59227e-05,-2.34256e-05,4
-3.04258e-05,1.68886e-05,5.54502e-06,8.74803e-05,2.03396e-05,-1.15762e-05,2.44907e-05,-2.41352e-05,4
-3.2807e-05,1.44727e-05,-6.5338e-07,0.000132774,1.82648e-05,-1.56522e-05,3.10089e-05,-2.26887e-05,4
-3.45407e-05,1.18611e-05,-8.67915e-06,3.98182e-05,1.64391e-05,-1.76872e-05,3.49735e-05,-2.03698e-05,4
-3.57812e-05,9.91355e-06,-1.68455e-05,-0.000104362,1.46198e-05,-1.93896e-05,3.75535e-05,-1.84395e-05,4
-3.64796e-05,7.91642e-06,-2.37841e-05,-0.000112391,1.39929e-05,-2.18402e-05,3.33483e-05,-1.52098e-05,4
-3.72413e-05,6.01721e-06,-2.46793e-05,1.32651e-06,1.4168e-05,-2.30052e-05,2.36985e-05,-8.54004e-06,4
-3.70431e-05,5.83463e-06,-1.67257e-05,0.000108095,1.1752e-05,-2.08349e-05,1.83828e-05,-1.70657e-06,4
-3.54366e-05,7.65892e-06,-5.21352e-06,0.000132604,7.21625e-06,-1.77016e-05,2.14308e-05,2.68937e-07,4
-3.44531e-05,9.02533e-06,-1.14807e-07,4.85236e-05,9.03994e-07,-1.69831e-05,3.55334e-05,-2.57542e-06,4
-3.42294e-05,9.24222e-06,-4.6763e-06,-0.000130564,-5.77739e-06,-1.36651e-05,5.90176e-05,-3.52799e-06,4
-3.38355e-05,9.22572e-06,-1.38765e-05,-0.000461085,-8.75229e-06,-6.86104e-06,7.4217e-05,1.99613e-06,4
-3.327e-05,9.23367e-06,-2.27806e-05,-0.000802033,-6.90251e-06,-4.36843e-06,5.34607e-05,8.81319e-06,4
-3.20783e-05,9.73943e-06,-2.77668e-05,-0.000725926,-3.18856e-07,-7.25053e-06,2.07933e-08,1.18259e-05,4
-3.08275e-05,1.20469e-05,-2.58555e-05,-0.000182328,8.11384e-06,-1.05914e-05,-4.84462e-05,1.07774e-05,4
-2.97968e-05,1.52283e-05,-1.64414e-05,0.000394193,1.52981e-05,-1.25639e-05,-6.58227e-05,8.60969e-06,4
-2.77931e-05,1.78363e-05,-5.47397e-06,0.000628184,1.86796e-05,-1.16374e-05,-5.46188e-05,7.54116e-06,4
-2.53958e-05,1.99487e-05,4.59413e-06,0.000529384,1.91207e-05,-9.31034e-06,-3.87354e-05,6.18618e-06,4
-2.28731e-05,2.17128e-05,1.77987e-05,0.000327497,1.82191e-05,-1.00555e-05,-3.34392e-05,3.72854e-06,4
-2.25845e-05,2.23113e-05,3.21302e-05,0.000240914,1.78361e-05,-1.38247e-05,-4.17526e-05,5.67735e-08,4
-2.56602e-05,1.92388e-05,3.57705e-05,0.000250578,1.60137e-05,-1.71071e-05,-6.25515e-05,-3.23389e-06,4
-2.97333e-05,1.43518e-05,2.51502e-05,0.000197425,1.13236e-05,-1.82725e-05,-8.47861e-05,-5.60928e-06,4
-3.28461e-05,1.04112e-05,6.17066e-06,-2.79054e-06,1.02096e-05,-1.98054e-05,-8.69732e-05,-7.051e-06,4
-3.40257e-05,7.60007e-06,-1.37583e-05,-0.000248086,1.5392e-05,-2.18921e-05,-5.35957e-05,-5.6501e-06,4
-3.46256e-05,4.77377e-06,-3.08744e-05,-0.00021032,2.08205e-05,-2.35622e-05,-4.08916e-06,1.0996e-06,4
-3.52403e-05,2.45478e-06,-4.25098e-05,0.000257159,2.06554e-05,-2.35348e-05,2.00407e-05,1.07208e-05,4
-3.49366e-05,2.13699e-06,-4.4164e-05,0.00075544,1.89078e-05,-1.97112e-05,1.29205e-05,1.89908e-05,4
-3.24522e-05,4.44358e-06,-3.5418e-05,0.000707439,2.14336e-05,-1.18237e-05,1.3797e-05,2.59555e-05,4
-2.8652e-05,8.40495e-06,-2.41999e-05,7.32148e-05,2.79941e-05,-2.54589e-06,4.53085e-05,3.11655e-05,4
-2.54372e-05,1.20518e-05,-1.72494e-05,-0.000636761,3.20234e-05,4.667e-06,8.57161e-05,3.20717e-05,4
-2.45401e-05,1.41802e-05,-1.06071e-05,-0.000777455,2.82418e-05,6.77327e-06,0.000110714,2.82942e-05,4
-2.52833e-05,1.54919e-05,6.38116e-07,-7.59732e-05,1.75186e-05,3.06845e-06,0.000129395,2.09672e-05,4
-2.62022e-05,1.71954e-05,1.17494e-05,0.000966004,6.45267e-06,-3.28462e-07,0.000150682,1.00663e-05,4
-2.74646e-05,1.67485e-05,1.14946e-05,0.00141918,-5.16439e-07,6.59451e-07,0.000163538,-8.92545e-07,4
-3.02502e-05,1.10175e-05,-4.55218e-06,0.000787228,-5.24782e-06,8.37573e-07,0.000155218,-7.39141e-06,4
-3.57553e-05,3.62019e-06,-2.69887e-05,-0.000358777,-9.86818e-06,-2.6684e-06,0.000120735,-9.03558e-06,4
-3.98084e-05,9.74802e-07,-4.04534e-05,-0.000900517,-1.01707e-05,-5.44309e-06,7.77372e-05,-9.5082e-06,4
-3.84325e-05,3.11371e-06,-4.03299e-05,-0.000699672,-2.7016e-06,-5.02553e-06,5.06511e-05,-1.11006e-05,4
-3.50935e-05,7.13395e-06,-3.23615e-05,-0.000367276,5.57369e-06,-5.6936e-06,3.81078e-05,-1.32811e-05,4
-3.28924e-05,9.47316e-06,-2.62293e-05,-0.000263787,7.51299e-06,-7.50769e-06,2.93586e-05,-1.51598e-05,4
-3.26642e-05,9.19029e-06,-2.74102e-05,-0.000257529,5.05216e-06,-8.29745e-06,7.54759e-06,-1.63249e-05,4
-3.37645e-05,6.93402e-06,-2.96868e-05,-0.000141921,3.9839e-06,-1.10011e-05,-2.84978e-05,-1.50447e-05,4
-3.36999e-05,5.94357e-06,-2.62384e-05,-4.7602e-05,6.19014e-06,-1.34023e-05,-6.10896e-05,-1.13516e-05,4
-3.18241e-05,8.75688e-06,-1.71505e-05,-2.57595e-05,1.06584e-05,-1.20873e-05,-8.76468e-05,-8.69335e-06,4
-2.98473e-05,1.1903e-05,-7.85142e-06,-6.3762e-05,1.39954e-05,-1.03969e-05,-0.000104855,-6.4736e-06,4
-2.94464e-05,1.23297e-05,-3.43776e-06,-9.4842e-05,1.59324e-05,-1.31599e-05,-0.000103016,-5.61724e-06,4
-3.06452e-05,1.00558e-05,-5.7331e-06,-9.17569e-05,1.77402e-05,-1.86305e-05,-8.29473e-05,-5.28796e-06,4
-3.08864e-05,8.95104e-06,-7.89059e-06,-2.79654e-05,2.16112e-05,-2.09142e-05,-6.66448e-05,2.32179e-06,4
-2.93706e-05,9.77703e-06,-5.43929e-06,8.97738e-05,2.72617e-05,-1.72793e-05,-8.26652e-05,2.54317e-05,4
-2.73956e-05,1.18053e-05,-4.16797e-06,0.000197793,3.11135e-05,-1.06131e-05,-0.000116948,5.83638e-05,4
-2.57099e-05,1.35012e-05,-1.08089e-05,0.000204767,3.06587e-05,-4.88969e-06,-0.00013012,8.57569e-05,4
-2.49721e-05,1.4043e-05,-2.3263e-05,0.000113361,2.6619e-05,-2.02566e-06,-0.000116453,9.76618e-05,4
-2.52715e-05,1.48206e-05,-3.13363e-05,5.653e-05,2.34584e-05,-8.97582e-07,-6.79819e-05,9.42146e-05,4
-2.62596e-05,1.62784e-05,-2.89432e-05,0.00012045,2.38291e-05,2.45786e-07,5.45939e-05,8.34325e-05,4
-2.67726e-05,1.84947e-05,-1.55077e-05,0.00031673,2.6154e-05,2.45575e-07,0.000218805,6.97104e-05,4
-2.66761e-05,2.13039e-05,3.19783e-06,0.000446854,2.5915e-05,-2.55068e-06,0.000289222,5.07717e-05,4
-2.51413e-05,2.44208e-05,1.95803e-05,0.000336068,2.35012e-05,-7.02048e-06,0.000210009,2.21492e-05,4
-2.29098e-05,2.59703e-05,3.26023e-05,8.15127e-05,2.02985e-05,-1.02294e-05,8.97078e-05,-1.59495e-05,4
-2.23378e-05,2.60206e-05,4.65805e-05,-0.000165554,1.44274e-05,-1.19367e-05,4.94379e-05,-5.96493e-05,4
-2.39854e-05,2.56808e-05,5.67428e-05,-0.000464921,6.33155e-06,-1.32509e-05,8.56568e-05,-0.000102341,4
