ch1,ch2,ch3,ch4,ch5,ch6,ch7,ch8,class
-2.75427e-05,7.66307e-06,-1.66407e-05,0.000145007,3.58149e-06,-1.5663e-05,-8.20249e-05,1.01727e-05,4
-2.94614e-05,3.90201e-06,-1.96559e-05,0.000159679,3.35995e-06,-1.60821e-05,6.26703e-06,1.02587e-05,4
-3.02531e-05,2.1545e-06,-1.80844e-05,0.000173042,8.18893e-06,-1.60375e-05,0.000118949,1.22292e-05,4
-2.83493e-05,1.55887e-06,-1.90097e-05,0.000200374,1.73793e-05,-1.33243e-05,0.000166013,1.3531e-05,4
-2.43102e-05,1.72581e-06,-2.57005e-05,0.000188858,2.48849e-05,-8.17186e-06,0.000120964,1.35282e-05,4
-2.19277e-05,1.23751e-06,-3.32387e-05,-2.21837e-05,2.41708e-05,-3.95047e-06,5.59312e-05,1.25605e-05,4
-2.32673e-05,5.35151e-07,-3.95212e-05,-0.000394454,1.67288e-05,-4.06587e-06,3.51742e-05,1.13095e-05,4
-2.75492e-05,9.23139e-07,-4.35707e-05,-0.000583416,9.36667e-06,-8.16903e-06,5.31502e-05,1.03008e-05,4
-3.00641e-05,3.94607e-06,-4.01709e-05,-0.000450909,9.32955e-06,-1.01127e-05,6.34033e-05,8.82107e-06,4
-2.92389e-05,9.07931e-06,-2.22091e-05,-0.000211851,1.61556e-05,-9.90259e-06,4.76576e-05,6.51033e-06,4
-2.73964e-05,1.42548e-05,7.54448e-06,-6.06918e-05,2.28643e-05,-9.91221e-06,1.96179e-05,7.31706e-06,4
-2.55333e-05,1.81124e-05,3.10724e-05,-1.1852e-05,2.59632e-05,-9.89359e-06,-2.22042e-05,1.45423e-05,4
-2.49786e-05,1.98539e-05,3.13985e-05,-1.53819e-05,2.8482e-05,-1.0029e-05,-7.21593e-05,2.52413e-05,4
-2.5502e-05,2.15341e-05,1.75084e-05,-1.46835e-05,3.07618e-05,-9.74439e-06,-0.000103302,3.39517e-05,4
-2.698e-05,2.32256e-05,7.20061e-06,2.58487e-05,2.95997e-05,-8.24383e-06,-0.00011282,3.83492e-05,4
-2.80261e-05,2.4212e-05,3.49484e-06,7.90535e-05,2.29903e-05,-6.62972e-06,-0.000103501,3.82114e-05,4
-2.72817e-05,2.25905e-05,2.03098e-06,9.49711e-05,1.19708e-05,-6.60163e-06,-7.43938e-05,3.35252e-05,4
-2.69424e-05,1.74344e-05,-3.3582e-06,7.78616e-05,4.35616e-06,-9.09688e-06,-3.95041e-05,2.5488e-05,4
-2.80719e-05,1.26672e-05,-8.85279e-06,5.48969e-05,2.84334e-06,-1.24141e-05,-3.06345e-05,1.57819e-05,4
-2.99609e-05,1.22307e-05,-9.81222e-06,9.05392e-06,3.40907e-06,-1.38911e-05,-3.99098e-05,5.29885e-06,4
-3.08134e-05,1.38163e-05,-9.22931e-06,-0.000109822,1.9443e-06,-1.38388e-05,2.01531e-06,-4.36482e-06,4
-3.0849e-05,1.42671e-05,-1.0019e-05,-0.000281997,1.98793e-08,-1.28188e-05,8.07186e-05,-1.04118e-05,4
-3.13229e-05,1.34736e-05,-1.09793e-05,-0.000383714,-1.32509e-07,-1.17446e-05,9.41747e-05,-1.29747e-05,4
-3.20618e-05,1.21873e-05,-1.06413e-05,-0.000317454,2.01597e-06,-9.84193e-06,3.18825e-05,-1.42495e-05,4
-3.31633e-05,1.10461e-05,-9.6825e-06,-0.000129838,4.88574e-06,-7.86207e-06,-1.143e-05,-1.58284e-05,4
-3.45214e-05,8.84606e-06,-8.90169e-06,7.82476e-05,5.26985e-06,-8.82201e-06,8.52423e-06,-1.66182e-05,4
-3.59708e-05,6.52193e-06,-8.64896e-06,0.000304523,3.26095e-06,-1.30461e-05,4.0704e-05,-1.61403e-05,4
-3.70109e-05,5.08625e-06,-8.55607e-06,0.000517312,9.79859e-07,-1.73857e-05,3.74046e-05,-1.56286e-05,4
-3.78942e-05,4.9794e-06,-7.78009e-06,0.000531261,4.94928e-07,-1.92131e-05,1.68815e-05,-1.58757e-05,4
-3.7872e-05,6.93542e-06,-5.12553e-06,0.000279074,3.08767e-06,-1.82376e-05,1.78629e-05,-1.68666e-05,4
-3.63713e-05,1.03371e-05,-7.21492e-07,-2.26663e-05,8.76152e-06,-1.51112e-05,4.7597e-05,-1.69155e-05,4
-3.41191e-05,1.43098e-05,5.76946e-06,-0.000152864,1.34102e-05,-1.08794e-05,7.33752e-05,-1.53258e-05,4
-3.17379e-05,1.87931e-05,1.02848e-05,-9.25754e-05,1.60899e-05,-7.08035e-06,5.38186e-05,-1.36691e-05,4
-2.97887e-05,2.23365e-05,1.00282e-05,-4.58212e-05,1.9893e-05,-4.12229e-06,-1.49996e-05,-7.60685e-06,4
-2.87508e-05,2.23212e-05,7.56873e-06,-0.000124791,2.51085e-05,-2.16199e-06,-8.47448e-05,8.27337e-06,4
-3.01663e-05,2.00876e-05,5.02561e-06,-0.00016199,2.69596e-05,-6.15565e-06,-0.000112076,2.86633e-05,4
-3.23011e-05,1.88199e-05,2.89178e-06,-8.90457e-05,2.35827e-05,-1.39556e-05,-8.00658e-05,3.88221e-05,4
-3.10169e-05,1.82852e-05,7.90506e-07,-2.33612e-05,2.2144e-05,-1.64558e-05,2.13995e-05,3.48281e-05,4
-2.79948e-05,1.90465e-05,-2.01698e-06,-2.17879e-05,2.5071e-05,-1.31321e-05,0.000152644,2.59395e-05,4
-2.58047e-05,2.04559e-05,-7.10669e-06,-1.02635e-05,2.89959e-05,-8.14159e-06,0.000200892,1.70222e-05,4
-2.45986e-05,1.96449e-05,-1.22426e-05,0.000105109,3.10552e-05,-4.48976e-06,0.000119632,1.11256e-05,4
-2.38913e-05,1.66463e-05,-1.26927e-05,0.000329839,2.912e-05,-4.93041e-06,-1.37206e-06,8.81506e-06,4
-2.37318e-05,1.35782e-05,-1.02568e-05,0.000554361,2.3097e-05,-7.79297e-06,-7.33078e-05,1.07443e-05,4
-2.51266e-05,1.04929e-05,-1.19101e-05,0.000599097,1.50805e-05,-1.11937e-05,-7.77851e-05,1.26396e-05,4
-2.7274e-05,7.40908e-06,-1.64222e-05,0.000450842,1.00465e-05,-1.39609e-05,-6.15699e-05,7.55727e-06,4
-2.82262e-05,4.97379e-06,-1.90082e-05,0.000213731,8.80877e-06,-1.5718e-05,-5.11478e-05,-8.79299e-06,4
-2.8013e-05,4.56192e-06,-2.06168e-05,-0.000138194,6.46966e-06,-1.6085e-05,-2.90924e-05,-3.30481e-05,4
-2.81068e-05,5.86057e-06,-2.47921e-05,-0.000535508,4.60961e-07,-1.49553e-05,1.75502e-05,-5.54355e-05,4
-2.82816e-05,6.9259e-06,-3.1345e-05,-0.000729664,-3.70361e-06,-1.3882e-05,6.46614e-05,-6.83708e-05,4
-2.83451e-05,7.71452e-06,-3.50627e-05,-0.000610062,-1.61134e-06,-1.23822e-05,7.00947e-05,-6.93645e-05,4
-2.8695e-05,8.09679e-06,-3.06526e-05,-0.000327714,4.04201e-06,-1.11509e-05,4.22036e-05,-6.15546e-05,4
-2.88708e-05,9.56786e-06,-1.9442e-05,-7.99228e-05,8.36672e-06,-1.15181e-05,1.66653e-05,-4.89388e-05,4
-2.8458e-05,1.21359e-05,-1.05274e-05,6.69397e-05,9.75294e-06,-1.23109e-05,6.48091e-06,-3.64425e-05,4
-2.83358e-05,1.37298e-05,-1.06214e-05,0.00013588,9.13269e-06,-1.05473e-05,4.23204e-06,-2.59139e-05,4
-2.92313e-05,1.27612e-05,-1.72143e-05,0.000160182,7.19222e-06,-6.9738e-06,7.98241e-06,-1.71331e-05,4
-3.11978e-05,1.09855e-05,-2.02027e-05,0.000148752,4.90088e-06,-5.93267e-06,1.15446e-05,-7.91244e-06,4
-3.20677e-05,1.10689e-05,-1.52091e-05,9.47801e-05,3.31839e-06,-7.97768e-06,2.31999e-05,2.48995e-06,4
-2.98563e-05,1.39765e-05,-5.58881e-06,3.20395e-05,4.65674e-06,-9.00922e-06,5.96897e-05,1.22329e-05,4
-2.79797e-05,1.69463e-05,4.30037e-06,6.72732e-05,8.35852e-06,-8.29056e-06,0.000103534,1.60631e-05,4
-2.9757e-05,1.71068e-05,1.1538e-05,0.000175165,1.02842e-05,-9.66279e-06,0.000119543,1.15758e-05,4
-3.19013e-05,1.55146e-05,1.48708e-05,0.000154256,1.12702e-05,-1.29221e-05,0.000100106,1.57755e-06,4
-3.08469e-05,1.4335e-05,1.3066e-05,8.32962e-06,1.53934e-05,-1.17554e-05,5.20431e-05,-9.28395e-06,4
-2.82593e-05,1.44908e-05,4.68667e-06,-0.000106697,2.02214e-05,-6.45636e-06,-3.19633e-05,-1.78426e-05,4
-2.79762e-05,1.52134e-05,-7.84261e-06,-0.000169198,2.09846e-05,-2.9107e-06,-0.00013226,-2.4533e-05,4
-2.97623e-05,1.56851e-05,-1.783e-05,-0.000168746,1.785e-05,-4.13074e-06,-0.000213337,-2.52475e-05,4
-3.13542e-05,1.54443e-05,-1.96506e-05,-7.60004e-05,1.48864e-05,-8.29536e-06,-0.000261366,-1.58865e-05,4
-3.04369e-05,1.47349e-05,-1.36269e-05,6.06436e-05,1.43427e-05,-1.15784e-05,-0.000237716,-1.86955e-06,4
-2.83122e-05,1.31392e-05,-8.19339e-06,0.000131592,1.53073e-05,-1.44745e-05,-7.93502e-05,8.82783e-06,4
-2.98025e-05,1.04455e-05,-7.10221e-06,9.03618e-05,1.5411e-05,-1.78623e-05,0.000168389,1.43721e-05,4
-3.14768e-05,8.76952e-06,-8.37975e-06,5.38162e-06,1.61614e-05,-1.82772e-05,0.000318791,1.48727e-05,4
-3.03116e-05,9.45696e-06,-1.17433e-05,-4.45245e-05,1.76571e-05,-1.36909e-05,0.000281106,1.31674e-05,4
-2.85859e-05,1.13185e-05,-1.67564e-05,-7.71868e-05,1.87601e-05,-8.98564e-06,0.000148125,1.16982e-05,4
-2.81918e-05,1.24473e-05,-1.94002e-05,-0.000138953,2.01182e-05,-6.26654e-06,4.41781e-05,9.02985e-06,4
-2.82281e-05,1.36411e-05,-1.59192e-05,-0.000231157,2.26871e-05,-3.19251e-06,7.76187e-06,4.67583e-06,4
-2.85342e-05,1.50949e-05,-9.71518e-06,-0.000308913,2.53931e-05,-9.58614e-07,3.08603e-06,7.48125e-07,4
-3.04367e-05,1.47255e-05,-5.7363e-06,-0.000295719,2.48872e-05,-2.21046e-06,4.78632e-06,2.9274e-07,4
-3.34491e-05,1.29954e-05,-3.72699e-06,-0.000175197,2.09116e-05,-6.44754e-06,1.42391e-05,2.49885e-06,4
-3.64398e-05,1.23919e-05,-2.15761e-06,-1.85718e-05,1.72094e-05,-1.02871e-05,3.36552e-05,5.15685e-06,4
-3.76141e-05,1.27768e-05,-7.74019e-07,7.99602e-05,1.69382e-05,-1.18907e-05,4.62981e-05,7.85105e-06,4
-3.6772e-05,1.17099e-05,2.31828e-06,9.31376e-05,1.74303e-05,-1.21511e-05,3.67354e-05,1.15526e-05,4
-3.42743e-05,1.15781e-05,8.45991e-06,7.55536e-05,1.7234e-05,-1.1663e-05,-1.62976e-06,1.57112e-05,4
-3.14006e-05,1.40213e-05,1.19332e-05,9.8143e-05,1.71791e-05,-1.03235e-05,-5.04187e-05,1.77203e-05,4
-2.97522e-05,1.66259e-05,8.13823e-06,0.000141281,1.71554e-05,-7.55594e-06,-7.15121e-05,1.7379e-05,4
-2.99457e-05,1.70878e-05,3.45956e-06,0.000159679,1.71875e-05,-4.50999e-06,-4.99197e-05,1.7761e-05,4
-3.13111e-05,1.5808e-05,4.95893e-06,0.000212027,1.87028e-05,-5.2499e-06,-1.09261e-05,2.21139e-05,4
-3.28542e-05,1.39166e-05,1.00813e-05,0.000353217,2.08263e-05,-1.10844e-05,1.66026e-05,2.97726e-05,4
-3.43081e-05,1.06561e-05,1.16208e-05,0.000497083,2.15016e-05,-1.72361e-05,3.25861e-05,3.42779e-05,4
-3.50572e-05,8.37671e-06,7.96457e-06,0.000441106,2.2162e-05,-2.04215e-05,4.95685e-05,3.22354e-05,4
-3.43593e-05,8.84491e-06,9.79532e-07,6.77114e-05,2.52719e-05,-1.66658e-05,4.86818e-05,2.62592e-05,4
-3.29115e-05,8.39792e-06,-9.51173e-06,-0.000364469,2.64283e-05,-5.88273e-06,2.06208e-05,1.75119e-05,4
-3.25896e-05,7.68437e-06,-1.91355e-05,-0.000430944,1.90102e-05,2.05152e-06,3.93457e-05,7.98808e-06,4
-3.29636e-05,8.53228e-06,-2.27379e-05,-0.000234002,6.36764e-06,5.20352e-06,8.62552e-05,-2.33344e-06,4
-3.24779e-05,9.90119e-06,-2.03425e-05,-0.000105387,-8.57325e-07,7.7133e-06,4.57476e-05,-1.12382e-05,4
-3.26074e-05,1.13961e-05,-1.45509e-05,-7.51097e-05,1.45476e-06,8.59251e-06,-4.30841e-05,-1.84354e-05,4
-3.34567e-05,1.08067e-05,-1.19462e-05,-0.000103719,6.31082e-06,5.59161e-06,-8.63841e-05,-2.16349e-05,4
-3.39842e-05,8.5766e-06,-1.1509e-05,-0.000131985,8.92206e-06,7.92238e-07,-7.8062e-05,-1.46168e-05,4
-3.26618e-05,8.65522e-06,-7.91336e-06,-0.000169756,1.21868e-05,-1.79469e-06,-5.03013e-05,-5.79033e-07,4
-3.00278e-05,1.17594e-05,-1.28277e-06,-0.000208632,1.54832e-05,-2.26782e-06,-2.48643e-06,1.32288e-05,4
-2.88502e-05,1.45372e-05,2.48388e-06,-0.000209616,1.58121e-05,-2.16534e-06,6.12638e-05,2.29042e-05,4
-2.85178e-05,1.41465e-05,4.43232e-07,-0.000169172,1.18668e-05,-2.01985e-06,8.34929e-05,3.00874e-05,4
-2.84523e-05,1.18253e-05,-6.42027e-06,-0.000110485,6.66731e-06,-8.61935e-07,5.05602e-05,3.52622e-05,4
-2.82256e-05,1.02831e-05,-1.45408e-05,-6.23515e-05,5.719e-06,1.24982e-06,9.32649e-06,3.32898e-05,4
-2.80827e-05,1.06683e-05,-1.76383e-05,-3.11944e-05,9.05787e-06,2.07605e-06,-1.2243e-05,2.28958e-05,4
-2.92722e-05,1.27278e-05,-1.47518e-05,-2.09952e-05,1.26283e-05,2.72879e-08,-2.39397e-05,1.32543e-05,4
-3.12816e-05,1.45763e-05,-8.57905e-06,2.43851e-05,1.24507e-05,-4.28785e-06,-2.16762e-05,1.20417e-05,4
-3.28117e-05,1.51724e-05,-3.0815e-06,0.000129038,8.51054e-06,-8.57141e-06,3.18926e-06,1.97799e-05,4
-3.34431e-05,1.43399e-05,-1.65507e-06,0.000211242,2.80377e-06,-1.05629e-05,3.93661e-05,3.36767e-05,4
-3.24827e-05,1.29963e-05,-5.91278e-06,0.000148136,-2.91551e-06,-1.03269e-05,5.57139e-05,4.62658e-05,4
-3.08371e-05,1.29572e-05,-1.09335e-05,9.36954e-06,-6.78031e-06,-8.51022e-06,3.38527e-05,4.64307e-05,4
-3.06664e-05,1.37532e-05,-1.22042e-05,-3.91244e-05,-5.18237e-06,-6.67299e-06,-1.44836e-05,2.69965e-05,4
-3.35022e-05,1.30555e-05,-1.1609e-05,1.6588e-05,1.10462e-06,-7.34864e-06,-4.57565e-05,-1.07776e-05,4
-3.61492e-05,1.1585e-05,-1.2542e-05,5.33196e-05,9.69819e-06,-1.05425e-05,-1.82478e-05,-5.61411e-05,4
-3.62363e-05,1.07285e-05,-1.27097e-05,7.11464e-05,1.76532e-05,-1.59219e-05,5.97285e-05,-9.36957e-05,4
-3.53334e-05,9.51081e-06,-9.46152e-06,0.000179922,1.95748e-05,-1.99083e-05,0.000121009,-0.000110456,4
-3.40595e-05,8.46399e-06,-3.52791e-06,0.000396238,1.56655e-05,-1.94427e-05,0.000102868,-0.000102035,4
-3.34809e-05,9.52066e-06,4.53155e-06,0.000569091,1.28706e-05,-1.94827e-05,1.87583e-05,-7.70381e-05,4
-3.25259e-05,1.20997e-05,1.48148e-05,0.000583607,1.58353e-05,-2.12922e-05,-9.14894e-05,-5.12212e-05,4
-3.20192e-05,1.30692e-05,1.6867e-05,0.000559492,1.90479e-05,-2.00279e-05,-0.000171422,-3.70938e-05,4
-3.19823e-05,1.29248e-05,6.85741e-06,0.000391669,1.84806e-05,-1.6977e-05,-0.0001891,-2.97929e-05,4
-3.07334e-05,1.49044e-05,5.49305e-07,-0.000122297,1.5286e-05,-1.54118e-05,-0.000138838,-2.10683e-05,4
-2.95684e-05,1.7606e-05,6.71481e-07,-0.000596608,1.11054e-05,-1.55194e-05,-4.00448e-06,-1.30227e-05,4
-2.95825e-05,1.86452e-05,-2.26318e-06,-0.000698018,1.19018e-05,-1.31895e-05,0.000147074,-5.77899e-06,4
-3.04975e-05,1.79324e-05,-1.19364e-05,-0.000569613,1.78321e-05,-8.59275e-06,0.00021266,-1.89047e-06,4
-3.02247e-05,1.67764e-05,-2.24851e-05,-0.000376908,2.11151e-05,-5.82715e-06,0.000188721,-1.40549e-06,4
-2.85439e-05,1.56618e-05,-2.73666e-05,-0.000218133,1.92667e-05,-2.74709e-06,0.000141059,-1.59191e-06,4
-2.63016e-05,1.60668e-05,-2.6629e-05,-9.49371e-05,1.89755e-05,2.60186e-06,0.000107117,-1.16474e-06,4
-2.35418e-05,1.85075e-05,-2.38812e-05,-2.9508e-05,2.20976e-05,8.69735e-06,9.01497e-05,3.50059e-07,4
-2.1673e-05,1.9653e-05,-2.23326e-05,-6.25773e-05,2.45409e-05,1.16914e-05,7.64113e-05,2.44837e-06,4
-2.08968e-05,1.74793e-05,-2.28207e-05,-0.000157165,2.59957e-05,9.1635e-06,5.2897e-05,5.43924e-06,4
-2.08835e-05,1.37777e-05,-2.39037e-05,-0.000182204,2.75717e-05,1.49738e-06,3.00132e-05,8.15756e-06,4
-2.18418e-05,1.1079e-05,-2.23631e-05,-7.10484e-05,2.60472e-05,-7.58203e-06,2.52125e-05,1.07055e-05,4
-2.37669e-05,9.29189e-06,-1.78957e-05,9.97325e-05,1.75752e-05,-1.33931e-05,3.48029e-05,1.2879e-05,4
-2.53347e-05,8.29312e-06,-1.33402e-05,0.000195532,8.40876e-06,-1.46025e-05,2.64791e-05,1.38395e-05,4
-2.6273e-05,8.67174e-06,-1.18833e-05,0.000152234,4.71428e-06,-1.31153e-05,-7.44536e-06,1.33936e-05,4
-2.71866e-05,1.0031e-05,-1.47257e-05,3.19765e-05,5.06638e-06,-1.15288e-05,-4.03719e-05,1.27375e-05,4
-2.79007e-05,1.00422e-05,-1.89026e-05,-3.97693e-05,5.03479e-06,-1.06919e-05,-5.78803e-05,1.26417e-05,4
-2.92505e-05,7.27562e-06,-2.07704e-05,-8.28388e-06,3.39835e-06,-1.14395e-05,-7.62269e-05,1.61065e-05,4
-3.14968e-05,2.06411e-06,-1.86202e-05,6.35775e-05,1.66357e-06,-1.58797e-05,-9.02778e-05,2.53399e-05,4
-3.20649e-05,-4.42664e-07,-1.23267e-05,0.000124159,3.47428e-06,-2.09362e-05,-6.85112e-05,3.65454e-05,4
-2.85876e-05,3.197e-06,-5.69486e-06,0.000101342,9.48752e-06,-2.02296e-05,-1.16994e-05,4.59273e-05,4
-2.45233e-05,9.30252e-06,-6.76347e-06,-3.36973e-05,1.54288e-05,-1.47786e-05,2.05346e-05,5.44463e-05,4
-2.35231e-05,1.24442e-05,-1.64982e-05,-0.000170223,1.84503e-05,-1.04373e-05,1.96721e-06,6.10816e-05,4
-2.51163e-05,1.07711e-05,-2.50759e-05,-0.000242122,1.72884e-05,-1.02235e-05,-2.12466e-05,6.48366e-05,4
-2.74448e-05,7.92601e-06,-2.43658e-05,-0.00030119,1.13537e-05,-1.2879e-05,-3.38318e-05,6.60467e-05,4
-2.76319e-05,8.87042e-06,-1.25794e-05,-0.000292555,6.61901e-06,-1.50123e-05,-5.96258e-05,6.27382e-05,4
-2.63988e-05,1.27981e-05,4.05899e-06,-0.000146451,9.90837e-06,-1.52466e-05,-9.17074e-05,5.35982e-05,4
-2.57731e-05,1.52236e-05,1.25229e-05,3.80318e-05,1.49266e-05,-1.44285e-05,-0.000100444,3.68975e-05,4
-2.55223e-05,1.5911e-05,7.91772e-06,0.000141975,1.45274e-05,-1.26897e-05,-6.8678e-05,1.52164e-05,4
-2.63288e-05,1.49259e-05,3.60686e-07,0.000151779,1.06689e-05,-1.09403e-05,-1.26106e-05,-1.0102e-05,4
-2.69582e-05,1.34642e-05,-1.32407e-06,0.000122427,8.90855e-06,-8.30281e-06,4.86132e-05,-3.99667e-05,4
-2.73202e-05,1.37979e-05,3.3076e-07,8.83928e-05,8.4712e-06,-5.42044e-06,0.000104967,-6.17361e-05,4
-2.84189e-05,1.53025e-05,2.20697e-06,5.66375e-05,6.41818e-06,-5.27913e-06,0.000126059,-6.23988e-05,4
-3.10142e-05,1.59735e-05,4.07241e-06,4.15775e-05,1.29224e-06,-7.22963e-06,0.000102672,-4.6235e-05,4
-3.34995e-05,1.59222e-05,4.82518e-06,5.23916e-05,-3.59792e-06,-8.77192e-06,6.04384e-05,-2.93571e-05,4
-3.40672e-05,1.6613e-05,1.57441e-06,6.48324e-05,-1.70589e-06,-9.63293e-06,2.51815e-05,-2.29192e-05,4
-3.38317e-05,1.66818e-05,-4.14276e-06,5.19758e-05,5.47107e-06,-1.16834e-05,8.64874e-06,-2.32553e-05,4
-3.38791e-05,1.47425e-05,-8.31014e-06,2.11186e-05,1.10862e-05,-1.55623e-05,9.48846e-06,-2.30245e-05,4
-3.39379e-05,1.31885e-05,-8.06799e-06,-5.31086e-08,1.19732e-05,-1.87194e-05,2.17909e-05,-1.93653e-05,4
-3.38699e-05,1.31097e-05,-3.12462e-06,-4.32277e-06,1.27016e-05,-1.84379e-05,3.94721e-05,-1.41478e-05,4
-3.41653e-05,1.26262e-05,-5.76367e-07,-1.64139e-05,1.58082e-05,-1.57231e-05,4.38357e-05,-9.42151e-06,4
-3.45577e-05,1.22419e-05,-5.50071e-06,-2.38032e-05,1.98524e-05,-1.28442e-05,1.67923e-05,-5.62545e-06,4
-3.51155e-05,1.29351e-05,-1.348e-05,9.46719e-06,2.35359e-05,-1.00275e-05,-3.39782e-05,-4.29838e-06,4
-3.60702e-05,1.34632e-05,-1.85291e-05,4.8846e-05,2.45378e-05,-7.19117e-06,-6.78827e-05,-6.99519e-06,4
-3.74216e-05,1.37339e-05,-2.13097e-05,3.49524e-05,2.0206e-05,-6.76836e-06,-4.56011e-05,-1.26253e-05,4
-3.85405e-05,1.33382e-05,-2.32374e-05,-8.65231e-06,1.45278e-05,-9.12874e-06,1.12155e-05,-2.00085e-05,4
-3.91774e-05,1.23882e-05,-2.40183e-05,-2.58217e-05,1.30856e-05,-1.27262e-05,2.3989e-05,-2.61856e-05,4
-3.88144e-05,1.28103e-05,-2.34167e-05,3.05104e-06,1.57975e-05,-1.51681e-05,-4.5263e-05,-2.79571e-05,4
-3.70409e-05,1.2928e-05,-2.26953e-05,4.78425e-05,1.83308e-05,-1.28721e-05,-0.000160249,-2.49566e-05,4
-3.31691e-05,1.203e-05,-2.01371e-05,5.98882e-05,1.97749e-05,-7.47949e-06,-0.000243177,-1.95744e-05,4
-2.92498e-05,1.24229e-05,-1.13639e-05,3.63071e-05,2.16195e-05,-3.87496e-06,-0.00021401,-1.61024e-05,4
-2.73423e-05,1.42235e-05,3.40746e-06,1.7414e-05,2.07301e-05,-3.81867e-06,-6.59742e-05,-1.33573e-05,4
-2.81513e-05,1.55287e-05,1.82306e-05,3.07421e-05,1.85577e-05,-5.37912e-06,0.000112961,-9.5524e-06,4
-2.90196e-05,1.57585e-05,2.47672e-05,5.32074e-05,1.91815e-05,-5.61623e-06,0.000249723,-6.52908e-06,4
-2.86303e-05,1.49312e-05,1.91752e-05,5.69449e-05,2.06282e-05,-6.2033e-06,0.000298541,-3.81115e-06,4
-2.91031e-05,1.40031e-05,7.1107e-06,4.17573e-05,1.82321e-05,-8.69074e-06,0.000236915,3.17206e-06,4
-3.02384e-05,1.3524e-05,-6.86847e-07,1.86424e-05,1.41163e-05,-1.08876e-05,0.000131143,1.43393e-05,4
-3.0061e-05,1.27497e-05,-2.45706e-06,-3.73972e-06,1.12852e-05,-1.20009e-05,5.31993e-05,2.31975e-05,4
-2.768e-05,1.2804e-05,-3.50988e-06,-3.68585e-05,1.12186e-05,-1.00432e-05,2.83721e-05,2.73163e-05,4
-2.47782e-05,1.39018e-05,-5.4654e-06,-0.000126282,1.45741e-05,-4.66502e-06,3.65331e-05,2.70533e-05,4
-2.3419e-05,1.46687e-05,-6.40851e-06,-0.000263019,1.62989e-05,-1.50336e-06,5.17259e-05,2.42663e-05,4
-2.40647e-05,1.38695e-05,-5.59361e-06,-0.00031904,1.3258e-05,-3.13623e-06,6.06204e-05,2.04445e-05,4
-2.54762e-05,1.22826e-05,-1.5872e-06,-0.000217494,1.0291e-05,-6.20014e-06,5.88455e-05,1.74264e-05,4
-2.66882e-05,1.07766e-05,5.4577e-06,-3.93365e-05,1.13621e-05,-8.01765e-06,5.26253e-05,1.46599e-05,4
-2.67125e-05,1.03821e-05,1.04241e-05,9.08436e-05,1.42203e-05,-8.48113e-06,4.56007e-05,9.62385e-06,4
-2.57268e-05,1.12349e-05,8.84079e-06,0.000137866,1.59453e-05,-7.87719e-06,2.98339e-05,3.87727e-06,4
-2.43231e-05,1.28099e-05,3.51973e-06,0.000163705,1.63571e-05,-7.01108e-06,-1.13543e-05,-6.72653e-07,4
-2.3859e-05,1.40851e-05,1.34262e-08,0.000215094,1.58175e-05,-6.98187e-06,-7.10932e-05,-3.03883e-06,4
-2.43785e-05,1.45167e-05,-1.14937e-06,0.000256741,1.45579e-05,-7.51307e-06,-0.000113964,-2.56423e-06,4
-2.51296e-05,1.49079e-05,-1.23984e-06,0.000242547,1.41357e-05,-8.53408e-06,-0.000107656,1.96172e-06,4
-2.51674e-05,1.55559e-05,-2.04492e-06,0.000185702,1.54638e-05,-9.39037e-06,-6.4332e-05,8.71583e-06,4
-2.37706e-05,1.69641e-05,-4.51215e-06,0.000114197,1.92859e-05,-8.97634e-06,-1.04387e-05,1.43214e-05,4
-2.14642e-05,1.88563e-05,-6.13293e-06,2.79042e-05,2.37379e-05,-8.20485e-06,4.50044e-05,1.70401e-05,4
-1.97382e-05,2.07392e-05,-5.14655e-06,-8.93646e-05,2.54936e-05,-8.01522e-06,8.80843e-05,1.74922e-05,4
-1.89402e-05,2.18273e-05,-1.67162e-06,-0.000193967,2.39465e-05,-7.97913e-06,9.87604e-05,1.50273e-05,4
-1.94939e-05,2.10647e-05,1.84026e-06,-0.000184789,1.95233e-05,-9.57472e-06,8.61045e-05,1.11096e-05,4
-2.12722e-05,1.69972e-05,2.79589e-07,-3.03085e-05,1.18606e-05,-1.25999e-05,7.19614e-05,7.47204e-06,4
-2.29897e-05,1.16982e-05,-4.6936e-06,0.000153687,6.87452e-06,-1.42254e-05,5.98041e-05,2.69843e-06,4
-2.50821e-05,9.10174e-06,-6.5679e-06,0.000204141,1.04355e-05,-1.38912e-05,2.58511e-05,-1.37948e-06,4
-2.73971e-05,8.11113e-06,-2.15408e-06,0.00018913,1.75577e-05,-1.35301e-05,-2.63467e-05,-3.63071e-06,4
-2.86117e-05,7.24901e-06,4.23606e-06,0.000239076,2.15886e-05,-1.46648e-05,-6.03423e-05,-4.97896e-06,4
-2.91856e-05,6.02251e-06,4.66274e-06,0.000215285,2.02305e-05,-1.48192e-05,-5.62849e-05,-6.98576e-06,4
-3.0849e-05,3.711e-06,-3.21351e-06,4.18492e-05,1.59956e-05,-1.34189e-05,-2.07653e-05,-9.73006e-06,4
-3.23042e-05,3.1059e-06,-1.05776e-05,-0.000195384,1.5416e-05,-1.16012e-05,1.19187e-05,-1.15365e-05,4
-3.36214e-05,4.21875e-06,-1.14666e-05,-0.000390412,1.72497e-05,-1.07573e-05,2.29698e-05,-1.07773e-05,4
-3.64925e-05,3.83722e-06,-1.38458e-05,-0.000410538,1.43202e-05,-1.46712e-05,1.40079e-05,-7.38084e-06,4
-4.04865e-05,3.71447e-07,-2.14852e-05,-0.000212974,5.33306e-06,-2.18572e-05,1.11418e-06,-3.81366e-06,4
-4.3607e-05,-3.29408e-06,-2.76008e-05,9.65381e-05,-3.96275e-06,-2.59093e-05,-9.81165e-07,-2.09654e-06,4
-4.35222e-05,-2.97701e-06,-2.76908e-05,0.000281635,-6.1219e-06,-2.31763e-05,8.26958e-06,-2.03518e-06,4
-3.96767e-05,1.46803e-06,-2.56079e-05,0.00019279,7.08366e-07,-1.69754e-05,1.80381e-05,-1.53225e-06,4
-3.33627e-05,6.38936e-06,-2.39858e-05,-5.39219e-05,1.27985e-05,-1.14618e-05,1.97892e-05,-2.14116e-07,4
-2.79332e-05,9.23853e-06,-2.30925e-05,-0.000223423,2.30384e-05,-7.68996e-06,1.26866e-05,-2.907e-07,4
-2.5975e-05,1.02494e-05,-2.36567e-05,-0.000223223,2.79713e-05,-5.8826e-06,-4.10302e-06,-1.96382e-06,4
-2.72773e-05,1.02264e-05,-2.55389e-05,-0.000131658,2.90415e-05,-6.30662e-06,-2.58966e-05,-2.34544e-06,4
-2.8981e-05,1.09202e-05,-2.81965e-05,-7.0081e-05,2.99208e-05,-7.88323e-06,-3.87455e-05,-1.34816e-07,4
-2.8323e-05,1.25954e-05,-3.12266e-05,-8.57469e-05,3.29176e-05,-7.34477e-06,-2.7156e-05,2.7331e-06,4
-2.64148e-05,1.38559e-05,-3.36513e-05,-0.000129752,3.6642e-05,-4.02742e-06,-3.35168e-06,4.54598e-06,4
-2.59648e-05,1.43969e-05,-3.34222e-05,-0.000139669,3.77485e-05,-1.04249e-06,-7.41947e-06,5.29923e-06,4
-2.73306e-05,1.55244e-05,-2.90851e-05,-0.000105802,3.30793e-05,-9.95112e-07,-6.1186e-05,5.50762e-06,4
-2.89055e-05,1.61236e-05,-2.04988e-05,-5.91371e-05,2.37492e-05,-2.69149e-06,-0.00013391,4.8468e-06,4
-2.99131e-05,1.52624e-05,-1.0595e-05,-3.20717e-05,1.39162e-05,-4.29191e-06,-0.000165429,4.24109e-06,4
-3.12499e-05,1.37047e-05,-4.09247e-07,-3.4679e-05,6.29957e-06,-5.57558e-06,-0.000121465,4.49331e-06,4
-3.38553e-05,1.3336e-05,1.22455e-05,-4.85237e-05,2.22285e-07,-7.58582e-06,-3.50261e-05,4.50378e-06,4
-3.48518e-05,1.48409e-05,2.71895e-05,-5.42926e-05,-7.81986e-07,-9.26371e-06,5.0948e-05,3.99403e-06,4
-3.43616e-05,1.63582e-05,3.80933e-05,-5.25071e-05,5.95687e-06,-1.17358e-05,0.000125226,4.64753e-06,4
-3.51284e-05,1.6524e-05,3.56134e-05,-4.04163e-05,1.59731e-05,-1.45778e-05,0.000103314,6.13581e-06,4
-3.57415e-05,1.63888e-05,2.26478e-05,-3.20995e-06,2.34323e-05,-1.43692e-05,-4.98506e-05,6.53748e-06,4
-3.54883e-05,1.51052e-05,1.24501e-05,4.00349e-05,2.52375e-05,-1.34298e-05,-0.00015795,5.77856e-06,4
-3.50189e-05,1.33656e-05,8.89262e-06,0.00011843,2.24049e-05,-1.24763e-05,-0.000117624,4.81645e-06,4
-3.47656e-05,1.40145e-05,7.14439e-06,0.000208527,1.77573e-05,-1.15944e-05,-2.74474e-06,3.52904e-06,4
-3.50867e-05,1.47747e-05,4.49306e-06,0.000177043,1.56454e-05,-1.17322e-05,0.000130818,1.41741e-06,4
-3.60299e-05,1.32409e-05,1.1036e-06,6.73829e-05,1.67574e-05,-1.20728e-05,0.00025779,9.79554e-07,4
-3.74936e-05,1.10449e-05,-3.21272e-07,1.11312e-05,1.92031e-05,-1.13574e-05,0.000308636,3.28763e-06,4
-3.93146e-05,1.11927e-05,1.37658e-06,2.47973e-06,1.85683e-05,-1.06529e-05,0.000237752,6.5893e-06,4
-4.06253e-05,1.25203e-05,3.50631e-06,1.0171e-05,1.39141e-05,-1.03415e-05,0.000111935,7.77411e-06,4
-4.01708e-05,1.39798e-05,1.79292e-06,2.85733e-05,8.49563e-06,-8.72515e-06,2.23094e-05,7.48345e-06,4
-3.86043e-05,1.34883e-05,-5.16304e-06,8.43951e-07,4.90907e-06,-5.91755e-06,-7.7824e-06,1.1255e-05,4
-3.74647e-05,1.09854e-05,-1.28098e-05,-7.11144e-05,2.99628e-06,-3.70686e-06,-1.82966e-06,2.14551e-05,4
-3.69501e-05,9.82635e-06,-1.64135e-05,-7.21773e-05,1.79869e-06,-4.34958e-06,1.77405e-05,3.34042e-05,4
-3.68312e-05,1.09421e-05,-1.6754e-05,1.51221e-05,3.27165e-06,-6.21454e-06,4.17914e-05,4.1189e-05,4
-3.72816e-05,1.24086e-05,-1.70602e-05,7.01163e-05,7.31051e-06,-6.66111e-06,6.89283e-05,4.41112e-05,4
-3.78489e-05,1.22619e-05,-1.67881e-05,1.27836e-05,1.2476e-05,-5.21465e-06,9.28659e-05,4.35055e-05,4
-3.63814e-05,1.22915e-05,-1.499e-05,-0.000103039,1.65864e-05,-2.52324e-06,9.86885e-05,4.20018e-05,4
-3.22376e-05,1.33664e-05,-1.21777e-05,-0.000174347,2.00058e-05,-1.05365e-06,7.12347e-05,4.23067e-05,4
-2.92024e-05,1.42069e-05,-9.42779e-06,-0.000149842,2.23995e-05,-3.30445e-06,2.06908e-05,4.50303e-05,4
-2.9629e-05,1.30878e-05,-8.00926e-06,-4.65517e-05,2.26245e-05,-7.17893e-06,-2.71624e-05,4.55024e-05,4
-3.10581e-05,1.06748e-05,-8.27001e-06,7.28744e-05,2.00871e-05,-8.92359e-06,-6.39398e-05,3.59241e-05,4
-3.18971e-05,9.43676e-06,-9.1378e-06,0.000130317,1.69899e-05,-8.95297e-06,-8.71949e-05,1.18085e-05,4
-3.35192e-05,1.07879e-05,-1.07591e-05,0.000106493,1.57989e-05,-9.32848e-06,-7.93818e-05,-2.44645e-05,4
-3.42285e-05,1.37128e-05,-1.36733e-05,4.68317e-05,1.48635e-05,-9.29939e-06,-2.47178e-05,-6.08565e-05,4
-3.2409e-05,1.64164e-05,-1.5506e-05,-1.56938e-05,1.2597e-05,-9.27539e-06,4.53131e-05,-8.51413e-05,4
-3.02913e-05,1.84169e-05,-1.31682e-05,-5.09766e-05,1.10806e-05,-1.06883e-05,6.341e-05,-9.3299e-05,4
-2.80761e-05,1.78431e-05,-1.15773e-05,-4.94882e-05,1.17633e-05,-1.31363e-05,2.28002e-05,-8.34868e-05,4
-2.62369e-05,1.41265e-05,-1.36294e-05,-5.65107e-05,1.20363e-05,-1.37969e-05,-1.42048e-05,-6.07808e-05,4
-2.41411e-05,1.17821e-05,-1.36894e-05,-0.000147147,1.17021e-05,-1.24168e-05,-2.17216e-05,-3.61594e-05,4
-2.19947e-05,1.12096e-05,-1.01204e-05,-0.00030053,1.16699e-05,-1.19736e-05,-1.51519e-05,-1.99828e-05,4
-2.02043e-05,1.12545e-05,-2.62083e-06,-0.000359391,1.15382e-05,-1.35415e-05,-1.843e-06,-1.51897e-05,4
-1.90313e-05,1.20538e-05,3.2133e-06,-0.000250374,1.22749e-05,-1.40557e-05,1.55526e-05,-1.70284e-05,4
-1.94621e-05,1.20435e-05,3.11918e-08,-5.66544e-05,1.34096e-05,-1.05959e-05,3.51483e-05,-2.10734e-05,4
-2.03432e-05,1.22983e-05,-1.0631e-05,0.000152506,1.48956e-05,-6.45077e-06,4.69696e-05,-2.35074e-05,4
-2.13678e-05,1.30301e-05,-1.80897e-05,0.000353217,1.69679e-05,-3.37816e-06,4.76716e-05,-2.47219e-05,4
-2.27333e-05,1.27978e-05,-1.45366e-05,0.000532563,1.78096e-05,-4.14169e-06,3.93537e-05,-2.45323e-05,4
-2.57262e-05,1.19604e-05,-5.84302e-06,0.00063665,1.54609e-05,-8.85893e-06,2.47636e-05,-2.49354e-05,4
-2.91054e-05,1.11018e-05,-4.50316e-06,0.000543576,1.0395e-05,-1.33275e-05,5.32897e-06,-2.66943e-05,4
-3.12529e-05,1.11614e-05,-1.20176e-05,0.000243849,6.50677e-06,-1.4884e-05,-1.61327e-05,-2.79182e-05,4
-3.15402e-05,1.36355e-05,-1.64134e-05,-8.46539e-05,5.0438e-06,-1.48163e-05,-2.79005e-05,-2.6786e-05,4
-3.07914e-05,1.6212e-05,-9.3903e-06,-0.000263853,4.29416e-06,-1.52928e-05,-2.41578e-05,-2.28382e-05,4
-3.02172e-05,1.56638e-05,2.82727e-06,-0.000231975,3.01503e-06,-1.57309e-05,-1.23792e-05,-1.74894e-05,4
-2.98205e-05,1.22392e-05,8.90354e-06,-1.87727e-05,3.42468e-06,-1.55987e-05,-7.59622e-06,-1.13463e-05,4
-2.93677e-05,8.66332e-06,6.3047e-06,0.000228705,7.64653e-06,-1.50496e-05,-1.35743e-05,-4.14563e-06,4
-2.7728e-05,7.09498e-06,-5.8384e-07,0.000318256,1.47206e-05,-1.441e-05,-3.17603e-05,4.26836e-06,4
-2.49701e-05,8.08381e-06,-5.51648e-06,0.000228537,2.06131e-05,-1.19236e-05,-6.36077e-05,1.19975e-05,4
-2.30759e-05,1.0377e-05,-6.10218e-06,0.000145787,2.21728e-05,-7.71065e-06,-0.000100808,1.81823e-05,4
-2.32931e-05,1.24645e-05,-4.80464e-06,0.000223245,2.00835e-05,-4.47091e-06,-0.000121666,2.03233e-05,4
-2.38967e-05,1.38974e-05,-6.31415e-06,0.000378152,1.80105e-05,-4.20368e-06,-0.000104643,1.8569e-05,4
-2.3012e-05,1.40342e-05,-1.27764e-05,0.000334598,1.8576e-05,-5.02241e-06,-4.25507e-05,1.58514e-05,4
-2.25541e-05,1.09945e-05,-2.42534e-05,-7.83019e-05,1.96103e-05,-6.39806e-06,4.10832e-05,1.36122e-05,4
-2.4566e-05,7.11394e-06,-3.53064e-05,-0.000600537,1.92645e-05,-1.00755e-05,9.49718e-05,1.18071e-05,4
-2.64036e-05,8.62466e-06,-3.33046e-05,-0.000777661,1.7988e-05,-1.46907e-05,9.7532e-05,8.72809e-06,4
-2.52445e-05,1.49102e-05,-1.06747e-05,-0.000539502,1.51791e-05,-1.64004e-05,9.11631e-05,3.85816e-06,4
-2.25498e-05,1.88103e-05,1.32038e-05,-0.000266258,1.04897e-05,-1.43448e-05,9.13022e-05,-8.67262e-07,4
-2.27314e-05,1.80856e-05,1.90473e-05,-0.000195385,5.3935e-06,-1.27987e-05,8.2631e-05,-3.61881e-06,4
-2.57165e-05,1.60626e-05,1.05314e-05,-0.000212301,4.48453e-07,-1.26844e-05,7.36598e-05,-2.00589e-09,4
-2.9566e-05,1.42047e-05,-4.21517e-07,-0.000193047,-4.48821e-06,-1.1952e-05,5.35502e-05,1.215e-05,4
-3.16475e-05,1.36792e-05,-1.36395e-06,-0.000124963,-6.51187e-06,-1.08144e-05,1.96132e-05,2.34499e-05,4
-3.02423e-05,1.46804e-05,1.6193e-06,-6.41928e-05,-3.2299e-06,-9.79784e-06,-1.19902e-05,2.69343e-05,4
-2.68052e-05,1.61676e-05,9.07461e-08,-2.90185e-05,4.12706e-06,-8.85228e-06,-3.66713e-05,2.69542e-05,4
-2.44292e-05,1.73302e-05,-5.97393e-06,-5.59099e-06,1.24383e-05,-6.8877e-06,-4.88704e-05,2.51185e-05,4
-2.49663e-05,1.76172e-05,-1.01959e-05,4.47823e-05,1.88487e-05,-4.51698e-06,-5.97327e-05,1.87803e-05,4
-2.61291e-05,1.81439e-05,-8.56804e-06,0.000147743,2.19362e-05,-2.64616e-06,-8.65145e-05,6.5266e-06,4
-2.63686e-05,1.87364e-05,-3.13478e-06,0.000268161,2.01652e-05,-2.46129e-06,-0.000122381,-7.6765e-06,4
-2.71567e-05,1.82501e-05,3.86594e-06,0.000292027,1.49072e-05,-4.90543e-06,-0.000145323,-1.8201e-05,4
-2.9726e-05,1.73549e-05,9.76229e-06,0.000100191,9.84001e-06,-8.5454e-06,-0.000113531,-2.23302e-05,4
-3.22977e-05,1.68825e-05,1.32366e-05,-0.000193768,8.17631e-06,-1.12893e-05,-7.02919e-06,-1.86941e-05,4
-3.41061e-05,1.67928e-05,1.11486e-05,-0.000308544,1.02286e-05,-1.15422e-05,0.000119065,-5.01356e-06,4
-3.54802e-05,1.61659e-05,1.85996e-06,-0.000158269,1.41658e-05,-1.06216e-05,0.000178614,1.83331e-05,4
-3.67978e-05,1.37194e-05,-1.16198e-05,5.96451e-05,1.5359e-05,-1.02707e-05,0.000150641,4.04364e-05,4
-3.75277e-05,1.05835e-05,-2.18827e-05,0.000127695,1.29337e-05,-1.13118e-05,8.46997e-05,4.9017e-05,4
-3.6824e-05,1.012e-05,-2.54666e-05,2.94866e-06,1.33754e-05,-1.2034e-05,3.46856e-05,4.30603e-05,4
-3.52519e-05,1.14282e-05,-2.44863e-05,-0.000134294,1.87522e-05,-1.06842e-05,1.85251e-05,3.15024e-05,4
-3.39616e-05,1.21187e-05,-2.48833e-05,-0.00010163,2.3411e-05,-7.50356e-06,2.90971e-05,2.1194e-05,4
-3.46632e-05,1.17849e-05,-2.85303e-05,3.89226e-05,2.30142e-05,-5.96322e-06,4.86697e-05,1.80623e-05,4
-3.81525e-05,1.01143e-05,-3.40179e-05,0.000141076,1.81987e-05,-8.69546e-06,5.95519e-05,2.51745e-05,4
-4.13381e-05,7.18548e-06,-4.19866e-05,0.000218362,9.49648e-06,-1.25361e-05,5.70127e-05,3.56539e-05,4
-4.19683e-05,4.56576e-06,-5.089e-05,0.000259077,1.39439e-06,-1.47542e-05,4.15152e-05,3.67239e-05,4
-4.12169e-05,3.75339e-06,-5.56243e-05,0.000137708,-1.69624e-06,-1.43424e-05,2.32164e-05,1.95319e-05,4
-4.04966e-05,3.2395e-06,-5.19786e-05,-8.68137e-05,-1.13796e-06,-1.28127e-05,1.35728e-05,-1.96198e-05,4
-4.13403e-05,2.87963e-06,-4.40834e-05,-0.000142642,1.49493e-06,-1.24439e-05,7.97444e-06,-6.46159e-05,4
-4.21884e-05,3.60909e-06,-3.49316e-05,-6.60317e-05,5.08046e-06,-1.17857e-05,-1.95849e-06,-9.26948e-05,4
-4.01105e-05,6.77706e-06,-1.63577e-05,-0.000142218,1.20369e-05,-8.07436e-06,-1.00226e-05,-9.56908e-05,4
-3.48904e-05,1.30664e-05,1.5876e-05,-0.000381531,2.01684e-05,-3.91015e-07,1.66734e-06,-7.49602e-05,4
-2.97015e-05,1.96138e-05,4.41791e-05,-0.000556461,2.39366e-05,6.60387e-06,3.39702e-05,-4.65251e-05,4
-2.86581e-05,2.14193e-05,4.55668e-05,-0.000493906,2.07908e-05,6.44592e-06,6.05748e-05,-2.48127e-05,4
-3.19103e-05,1.84361e-05,2.82036e-05,-0.000277793,1.25152e-05,4.211e-07,5.30319e-05,-1.27561e-05,4
-3.60648e-05,1.74151e-05,1.60499e-05,-7.9166e-05,7.3666e-06,-4.88908e-06,2.42477e-05,-1.6347e-06,4
-3.67292e-05,2.01921e-05,1.96786e-05,-1.83074e-05,8.7843e-06,-7.14196e-06,1.27489e-05,1.05925e-05,4
-3.3511e-05,2.28089e-05,2.9523e-05,-4.75765e-05,1.33727e-05,-7.64398e-06,1.53328e-05,2.10649e-05,4
-2.96318e-05,2.30282e-05,2.94313e-05,-7.67849e-06,1.54654e-05,-6.42035e-06,3.03863e-06,2.73895e-05,4
-2.71074e-05,2.18493e-05,1.86393e-05,0.000140688,1.33591e-05,-2.96159e-06,-2.78811e-05,2.71638e-05,4
-2.50419e-05,2.11835e-05,7.31676e-06,0.000285855,1.03113e-05,1.94704e-07,-6.59914e-05,2.30417e-05,4
-2.38043e-05,1.97993e-05,2.21941e-06,0.000329153,8.71269e-06,-1.55779e-07,-9.87228e-05,1.9541e-05,4
-2.52093e-05,1.72986e-05,4.29086e-07,0.000286735,6.52212e-06,-3.66187e-06,-8.48859e-05,2.19968e-05,4
-2.86844e-05,1.5689e-05,-1.64659e-06,0.000220621,3.80899e-06,-7.47345e-06,8.63908e-06,2.76774e-05,4
-3.21694e-05,1.4165e-05,-5.19318e-06,0.000190024,4.24489e-06,-1.09446e-05,0.000136704,3.02086e-05,4
-3.31339e-05,1.09621e-05,-8.0772e-06,0.000174002,8.44569e-06,-1.50762e-05,0.000197682,2.59297e-05,4
-3.1507e-05,7.92136e-06,-9.28313e-06,0.000111511,1.29476e-05,-1.70013e-05,0.000157356,1.81217e-05,4
-2.89158e-05,8.38282e-06,-9.92708e-06,1.08872e-05,1.46181e-05,-1.47474e-05,7.44707e-05,9.70757e-06,4
-2.70387e-05,1.1272e-05,-9.99331e-06,-2.90618e-05,1.34594e-05,-1.11639e-05,7.93024e-06,3.67493e-06,4
-2.57225e-05,1.40252e-05,-7.63202e-06,4.37274e-05,1.21684e-05,-8.1883e-06,-7.64625e-06,-2.03056e-07,4
-2.44281e-05,1.5839e-05,-3.24402e-06,0.000168424,1.33598e-05,-5.46698e-06,1.99858e-05,-3.32681e-06,4
-2.31631e-05,1.68904e-05,1.53324e-06,0.000228895,1.58092e-05,-3.59868e-06,3.32857e-05,-5.63134e-06,4
-2.34962e-05,1.72308e-05,4.699e-06,0.000164894,1.80397e-05,-2.93693e-06,1.64971e-05,-7.25953e-06,4
-2.60333e-05,1.61455e-05,4.25592e-06,-1.18222e-05,1.98345e-05,-4.12434e-06,2.21667e-06,-8.52159e-06,4
-2.86593e-05,1.49635e-05,3.16683e-06,-0.000192609,2.03636e-05,-7.70218e-06,-1.81701e-06,-1.13572e-05,4
-2.96994e-05,1.41283e-05,9.62547e-07,-0.000247671,1.93431e-05,-9.43185e-06,3.81542e-06,-1.62732e-05,4
-2.96867e-05,1.25462e-05,-7.39337e-06,-0.000207316,1.71144e-05,-8.28377e-06,1.69594e-05,-1.90009e-05,4
-3.0942e-05,1.01942e-05,-1.86895e-05,-0.000123757,1.0933e-05,-9.45408e-06,3.02027e-05,-1.73502e-05,4
-3.29578e-05,9.47773e-06,-2.65561e-05,-3.23448e-05,3.50614e-06,-1.07883e-05,3.4622e-05,-1.40561e-05,4
-3.42462e-05,9.91045e-06,-3.06954e-05,6.2611e-06,2.28178e-06,-9.18289e-06,2.74713e-05,-1.12743e-05,4
-3.42002e-05,8.75458e-06,-3.43937e-05,8.17409e-06,4.69983e-06,-8.97097e-06,1.37128e-05,-1.11884e-05,4
-3.35167e-05,8.08104e-06,-3.80103e-05,1.26727e-05,6.08889e-06,-1.28124e-05,-3.76732e-06,-1.10267e-05,4
-3.31448e-05,8.16357e-06,-3.92066e-05,3.28511e-05,7.84301e-06,-1.54372e-05,-2.37972e-05,-7.04503e-06,4
-3.23987e-05,7.68775e-06,-3.9485e-05,5.76099e-05,1.0639e-05,-1.36035e-05,-4.00793e-05,2.10691e-07,4
-3.12819e-05,6.90723e-06,-3.76956e-05,7.71238e-05,1.3848e-05,-1.02099e-05,-4.50015e-05,4.61907e-06,4
-2.96287e-05,8.36547e-06,-3.14057e-05,8.74072e-05,1.74492e-05,-8.28948e-06,-3.47201e-05,4.81527e-06,4
-2.79351e-05,1.1453e-05,-2.24309e-05,9.10846e-05,2.02223e-05,-7.6096e-06,-3.15833e-06,3.47442e-06,4
-2.70357e-05,1.2658e-05,-1.72371e-05,9.75409e-05,2.08814e-05,-7.11931e-06,3.99689e-05,2.01642e-06,4
-2.77962e-05,1.01335e-05,-1.8312e-05,9.55107e-05,1.88229e-05,-8.06647e-06,6.01202e-05,6.89226e-08,4
-2.97374e-05,6.54426e-06,-2.04562e-05,7.18359e-05,1.45735e-05,-1.08124e-05,3.59768e-05,-8.45912e-07,4
-3.12754e-05,5.62985e-06,-1.72671e-05,2.27951e-05,9.66524e-06,-1.43163e-05,-9.03257e-06,7.33761e-07,4
-3.19506e-05,7.04109e-06,-8.28698e-06,-3.90787e-05,6.53742e-06,-1.72045e-05,-4.05663e-05,4.90718e-06,4
-3.19469e-05,9.28122e-06,2.77161e-06,-0.000104902,8.58988e-06,-1.9196e-05,-4.47267e-05,1.23126e-05,4
-3.17284e-05,1.09071e-05,9.36159e-06,-0.000147655,1.57475e-05,-1.98539e-05,-2.85482e-05,2.35192e-05,4
-3.11412e-05,1.2525e-05,5.87441e-06,-0.000138968,2.25645e-05,-1.8353e-05,-1.6035e-05,3.86428e-05,4
-2.9519e-05,1.39197e-05,-1.44028e-06,-0.000105231,2.59659e-05,-1.22645e-05,-3.34055e-05,5.4427e-05,4
-2.75543e-05,1.43638e-05,-3.3528e-06,-0.000140182,2.73635e-05,-4.77966e-06,-8.2646e-05,6.54552e-05,4
-2.72292e-05,1.38215e-05,-2.15336e-07,-0.000246693,2.67442e-05,-3.05835e-06,-0.000143653,6.52315e-05,4
-2.75554e-05,1.38388e-05,3.9308e-06,-0.000298451,2.58128e-05,-5.88125e-06,-0.000192968,5.50859e-05,4
-2.68145e-05,1.49133e-05,5.51856e-06,-0.000218026,2.38547e-05,-5.86553e-06,-0.000211818,4.11929e-05,4
-2.56956e-05,1.48147e-05,-3.91004e-07,-6.64153e-05,1.72688e-05,-1.4131e-06,-0.000166978,2.6754e-05,4
-2.75773e-05,1.30692e-05,-8.56007e-06,8.22046e-05,6.19447e-06,9.89484e-07,-2.6173e-05,1.16104e-05,4
-3.05039e-05,1.06971e-05,-3.02939e-06,0.000216838,-1.51049e-07,-3.61842e-06,0.00010647,-1.0467e-06,4
-3.06634e-05,9.4685e-06,1.25091e-05,0.000365346,2.27027e-06,-1.04311e-05,0.000169291,-1.13387e-05,4
-3.08336e-05,9.68555e-06,2.28003e-05,0.000529165,2.9897e-06,-1.39014e-05,0.000263618,-2.05814e-05,4
-3.2334e-05,1.16973e-05,2.85917e-05,0.000618683,-2.23129e-07,-1.39505e-05,0.000340842,-2.832e-05,4
-3.35864e-05,1.43483e-05,2.81042e-05,0.000441862,1.88789e-07,-1.14316e-05,0.000291284,-3.77602e-05,4
-3.37317e-05,1.38549e-05,1.85591e-05,-2.00357e-05,5.9912e-06,-7.56598e-06,0.000163405,-4.85452e-05,4
-3.28089e-05,1.23704e-05,2.69957e-06,-0.000378826,1.05067e-05,-5.61485e-06,6.7109e-05,-5.47583e-05,4
-3.24555e-05,1.0142e-05,-1.14234e-05,-0.000415807,1.15784e-05,-8.07009e-06,3.58799e-05,-5.15688e-05,4
-3.36047e-05,8.79956e-06,-1.66742e-05,-0.000268288,1.01341e-05,-1.12879e-05,3.01323e-05,-4.3221e-05,4
-3.40995e-05,9.29976e-06,-1.54669e-05,-0.000126691,7.57648e-06,-1.28894e-05,1.51546e-05,-3.62057e-05,4
-3.18355e-05,1.08463e-05,-1.28062e-05,-5.44904e-05,8.03927e-06,-1.1703e-05,-1.62365e-05,-3.24196e-05,4
-2.85644e-05,1.19862e-05,-1.10242e-05,-2.10511e-05,1.30653e-05,-8.83841e-06,-4.66518e-05,-2.99758e-05,4
-2.61913e-05,1.18461e-05,-9.25956e-06,-7.39656e-06,2.01256e-05,-7.95718e-06,-6.31691e-05,-2.81404e-05,4
-2.47531e-05,1.20537e-05,-6.76084e-06,4.56237e-07,2.47111e-05,-1.06193e-05,-6.61098e-05,-2.67162e-05,4
-2.49574e-05,1.14667e-05,-4.90346e-06,-7.81356e-07,2.47602e-05,-1.53716e-05,-5.22171e-05,-2.52818e-05,4
-2.68342e-05,9.91763e-06,-8.06042e-06,6.64022e-06,2.02691e-05,-1.90301e-05,-1.45855e-05,-2.40847e-05,4
-2.8833e-05,8.38666e-06,-1.37693e-05,4.38064e-05,1.46822e-05,-1.86282e-05,3.06612e-05,-2.18916e-05,4
-2.8844e-05,8.73687e-06,-1.58603e-05,0.000124776,1.27246e-05,-1.4993e-05,5.67102e-05,-1.77138e-05,4
-2.72123e-05,8.34507e-06,-1.60399e-05,0.000223185,1.42964e-05,-1.17397e-05,5.56847e-05,-1.3411e-05,4
-2.64234e-05,6.17087e-06,-2.12405e-05,0.000276379,1.39926e-05,-1.09147e-05,3.31553e-05,-1.09408e-05,4
-2.74313e-05,4.33635e-06,-2.69512e-05,0.000196027,1.15306e-05,-1.29068e-05,-1.83139e-05,-9.53409e-06,4
-2.80915e-05,6.54413e-06,-2.26151e-05,3.96041e-05,1.29913e-05,-1.36733e-05,-7.86751e-05,-7.23451e-06,4
-2.66096e-05,1.25565e-05,-1.06503e-05,1.32828e-05,1.93355e-05,-1.07168e-05,-0.000103003,-2.55442e-06,4
-2.42571e-05,1.79619e-05,2.18312e-08,0.000148062,2.45039e-05,-6.54234e-06,-9.5606e-05,4.20847e-06,4
-2.35746e-05,1.9893e-05,9.89286e-06,0.000289718,2.51077e-05,-4.72062e-06,-9.78062e-05,1.13967e-05,4
-2.68609e-05,1.88444e-05,1.94617e-05,0.000332234,2.07717e-05,-7.05967e-06,-0.00012069,1.73963e-05,4
-3.2979e-05,1.47742e-05,1.85096e-05,0.000175292,1.14058e-05,-1.04096e-05,-0.000135556,2.16919e-05,4
-3.64216e-05,9.34198e-06,6.74398e-06,-8.96742e-05,1.00727e-06,-1.2028e-05,-0.000113655,2.24952e-05,4
-3.81333e-05,6.27909e-06,-5.6788e-06,-0.000247709,-7.48661e-06,-1.26213e-05,-4.76176e-05,2.20461e-05,4
-3.85949e-05,7.0929e-06,-1.23279e-05,-0.000309465,-9.40227e-06,-1.09649e-05,5.70478e-05,2.6629e-05,4
-3.56045e-05,1.1281e-05,-1.16127e-05,-0.000334837,-2.44486e-06,-7.51491e-06,0.000159345,3.35672e-05,4
-3.22264e-05,1.4879e-05,-9.32283e-06,-0.000321231,7.4084e-06,-3.55331e-06,0.000196538,3.86378e-05,4
-2.9041e-05,1.64162e-05,-1.1263e-05,-0.000321117,1.41695e-05,8.65925e-08,0.000166282,4.45207e-05,4
-2.66994e-05,1.61922e-05,-1.6684e-05,-0.000369314,1.68523e-05,2.58788e-06,0.000119093,4.97868e-05,4
-2.65652e-05,1.51479e-05,-2.13847e-05,-0.000342436,1.78123e-05,1.68905e-06,9.27367e-05,5.31506e-05,4
-2.92778e-05,1.29209e-05,-2.33092e-05,-0.000196439,1.49162e-05,-4.14877e-06,8.42438e-05,5.60414e-05,4
-3.27037e-05,9.09009e-06,-2.36815e-05,-2.93705e-05,6.57123e-06,-1.10443e-05,7.30774e-05,5.57052e-05,4
-3.47131e-05,6.02038e-06,-2.3247e-05,6.24246e-05,-2.93729e-06,-1.40787e-05,6.30336e-05,4.91907e-05,4
-3.50638e-05,5.52188e-06,-2.12369e-05,8.30976e-05,-5.69094e-06,-1.26693e-05,7.13985e-05,3.66956e-05,4
-3.41993e-05,6.57503e-06,-1.67455e-05,8.47365e-05,3.80772e-07,-1.12798e-05,8.51896e-05,1.68124e-05,4
-3.32401e-05,8.45754e-06,-8.07339e-06,5.53089e-05,1.05092e-05,-1.16145e-05,7.26739e-05,-1.23963e-05,4
-3.1676e-05,1.09566e-05,5.85437e-06,-6.5696e-05,2.0007e-05,-1.19438e-05,3.59546e-05,-4.67027e-05,4
-3.03344e-05,1.32876e-05,1.68991e-05,-0.00027352,2.59945e-05,-1.1063e-05,3.90089e-06,-7.49973e-05,4
-3.01104e-05,1.35633e-05,1.46999e-05,-0.000428786,2.78537e-05,-1.10209e-05,-1.91311e-05,-8.32828e-05,4
-3.04331e-05,1.10543e-05,1.80806e-06,-0.000412517,2.57638e-05,-1.34501e-05,-4.6209e-05,-6.82792e-05,4
-3.01276e-05,8.63104e-06,-9.31909e-06,-0.00027352,2.17829e-05,-1.57243e-05,-6.21253e-05,-4.28445e-05,4
-2.85304e-05,9.71697e-06,-1.21535e-05,-0.000154557,1.92561e-05,-1.52524e-05,-4.23823e-05,-2.38542e-05,4
-2.61128e-05,1.28023e-05,-1.03957e-05,-6.46579e-05,1.90984e-05,-1.40039e-05,-2.30499e-06,-1.65405e-05,4
-2.38169e-05,1.46279e-05,-1.12758e-05,7.08756e-05,1.85153e-05,-1.41242e-05,2.75961e-05,-1.35455e-05,4
-2.32085e-05,1.53796e-05,-1.88068e-05,0.000215076,1.6975e-05,-1.4458e-05,4.17785e-05,-8.50693e-06,4
-2.43957e-05,1.52015e-05,-2.52961e-05,0.000261107,1.66774e-05,-1.3481e-05,4.81451e-05,-1.77807e-06,4
-2.44669e-05,1.53697e-05,-2.16731e-05,0.000183741,2.0113e-05,-1.08539e-05,4.31183e-05,5.001e-06,4
-2.45271e-05,1.59471e-05,-1.4467e-05,4.22566e-05,2.27146e-05,-9.75479e-06,3.37393e-05,9.1004e-06,4
-2.61619e-05,1.5809e-05,-8.03588e-06,-3.65182e-05,2.05638e-05,-1.09742e-05,3.67894e-05,9.20152e-06,4
-2.8082e-05,1.5357e-05,3.57702e-06,4.01079e-05,1.75689e-05,-1.12987e-05,3.1776e-05,5.13763e-06,4
-2.90309e-05,1.68722e-05,1.7699e-05,0.000202383,1.67809e-05,-1.19525e-05,6.74693e-06,7.61269e-08,4
-2.85077e-05,1.93415e-05,2.68446e-05,0.000278948,1.86523e-05,-1.24226e-05,-1.06052e-05,-2.45556e-06,4
-2.55331e-05,1.96447e-05,2.64517e-05,7.48935e-05,2.35005e-05,-9.78966e-06,-2.01646e-05,-2.72617e-06,4
-2.28569e-05,1.92923e-05,1.60591e-05,-0.000278604,2.60607e-05,-5.55032e-06,-3.40137e-05,6.26532e-07,4
-2.34372e-05,1.77255e-05,3.89463e-06,-0.000314887,2.3566e-05,-3.5438e-06,-4.84364e-05,6.53448e-06,4
-2.46527e-05,1.4376e-05,-6.72378e-07,6.13372e-05,2.13885e-05,-5.57492e-06,-6.35429e-05,1.3181e-05,4
-2.61327e-05,1.14493e-05,1.93359e-06,0.000479957,2.26094e-05,-9.02905e-06,-8.03202e-05,1.70392e-05,4
-2.67746e-05,1.05526e-05,1.76655e-06,0.000536085,2.56405e-05,-1.0407e-05,-8.27247e-05,1.7222e-05,4
-2.71301e-05,1.04253e-05,-6.38619e-06,0.000222098,2.48455e-05,-7.65311e-06,-4.69839e-05,1.58983e-05,4
-2.83277e-05,9.23555e-06,-1.93723e-05,-7.10184e-05,1.90484e-05,-3.70997e-06,2.72772e-05,1.70333e-05,4
-3.08452e-05,7.62105e-06,-3.29134e-05,-9.74171e-05,1.21396e-05,-2.14686e-06,9.90085e-05,2.34455e-05,4
-3.25432e-05,6.73115e-06,-4.20658e-05,-3.0609e-06,9.01915e-06,-3.78617e-06,0.000120355,3.27475e-05,4
-3.20508e-05,6.8241e-06,-4.30808e-05,1.90216e-05,9.80417e-06,-6.89925e-06,7.5521e-05,4.16755e-05,4
-3.11233e-05,7.42858e-06,-3.70554e-05,2.86362e-06,1.02198e-05,-1.12355e-05,-2.5567e-05,4.78763e-05,4
-3.19286e-05,7.67037e-06,-2.59631e-05,2.92228e-05,6.09612e-06,-1.7508e-05,-0.00015288,4.88732e-05,4
-3.49448e-05,6.63811e-06,-1.22949e-05,8.91242e-05,-1.84352e-07,-2.28179e-05,-0.000255305,4.45129e-05,4
-3.70127e-05,5.57997e-06,-2.34487e-06,0.000129261,-1.6774e-06,-2.27791e-05,-0.000268374,3.88002e-05,4
-3.54595e-05,6.9004e-06,-6.15364e-07,0.000113252,3.40254e-06,-1.67719e-05,-0.000162316,3.46394e-05,4
-3.21431e-05,1.02328e-05,-4.61358e-06,-2.19508e-05,1.07296e-05,-9.26193e-06,1.69865e-05,3.50028e-05,4
-3.0892e-05,1.29346e-05,-1.01013e-05,-0.000238264,1.61077e-05,-2.52919e-06,0.000166638,3.78222e-05,4
-3.12968e-05,1.38564e-05,-1.69744e-05,-0.000322227,1.98838e-05,2.32902e-06,0.000225789,3.55041e-05,4
-3.26387e-05,1.32439e-05,-2.09098e-05,-0.000195037,2.17765e-05,2.12232e-06,0.000199172,1.96952e-05,4
-3.36029e-05,1.2625e-05,-1.54045e-05,-2.40154e-05,2.07915e-05,-3.10319e-06,0.000130452,-8.12269e-06,4
-3.34724e-05,1.26632e-05,-3.29376e-06,8.61168e-05,1.83765e-05,-7.99496e-06,7.46115e-05,-3.95054e-05,4
-3.24565e-05,1.40154e-05,3.77706e-06,0.000137571,1.83751e-05,-9.60367e-06,4.89121e-05,-6.65488e-05,4
-3.06988e-05,1.61121e-05,1.46984e-06,0.000106047,2.21136e-05,-9.12956e-06,3.69951e-05,-8.34821e-05,4
-2.96065e-05,1.65483e-05,-4.79821e-06,1.25569e-05,2.58655e-05,-8.35134e-06,2.00922e-05,-8.89465e-05,4
-2.87921e-05,1.69992e-05,-8.3541e-06,-4.68595e-05,2.61871e-05,-7.64906e-06,6.34647e-06,-8.272e-05,4
-2.70446e-05,1.80616e-05,-3.17291e-06,-6.2925e-05,2.46775e-05,-8.73754e-06,2.38059e-06,-6.81459e-05,4
-2.62698e-05,1.79799e-05,1.04415e-05,-9.35646e-05,2.21532e-05,-1.16572e-05,-2.7769e-06,-4.97728e-05,4
-2.60661e-05,1.78491e-05,1.94853e-05,-0.000138287,1.90843e-05,-1.2902e-05,-1.55401e-05,-3.33023e-05,4
-2.68668e-05,1.6828e-05,1.49215e-05,-0.000146023,1.79988e-05,-1.2853e-05,-2.35562e-05,-2.01675e-05,4
-2.72508e-05,1.54588e-05,4.433e-06,-9.04787e-05,1.88133e-05,-1.25728e-05,-1.42853e-05,-1.12082e-05,4
-2.6934e-05,1.54176e-05,-1.04635e-06,-2.11633e-07,2.00237e-05,-1.11158e-05,4.81437e-06,-6.11892e-06,4
-2.61786e-05,1.64322e-05,1.38105e-06,9.29047e-05,2.09554e-05,-8.82289e-06,1.71371e-05,-4.05517e-06,4
-2.51493e-05,1.86426e-05,4.79998e-06,0.000166218,2.11575e-05,-6.44731e-06,1.26769e-05,-5.14255e-06,4
-2.4849e-05,2.04004e-05,5.06319e-06,0.000223028,2.05593e-05,-6.51064e-06,-3.44156e-06,-8.30156e-06,4
-2.44253e-05,1.94454e-05,3.57584e-06,0.000254886,1.93077e-05,-9.63461e-06,-2.21542e-05,-1.19428e-05,4
-2.47885e-05,1.65846e-05,2.71335e-06,0.000253466,1.65242e-05,-1.2978e-05,-3.65885e-05,-1.34329e-05,4
-2.49441e-05,1.50411e-05,2.65893e-06,0.000189826,1.32268e-05,-1.27584e-05,-3.21779e-05,-1.28625e-05,4
-2.48816e-05,1.57383e-05,2.16232e-06,2.88579e-05,1.29203e-05,-7.88183e-06,1.16505e-05,-1.10367e-05,4
-2.46483e-05,1.6915e-05,-9.59041e-07,-0.000144129,1.53621e-05,-2.94253e-06,8.01812e-05,-8.73251e-06,4
-2.60651e-05,1.59718e-05,-7.91463e-06,-0.000176498,1.52276e-05,-3.56674e-06,0.000123718,-3.20582e-06,4
-2.91912e-05,1.26846e-05,-1.57904e-05,-0.000104301,1.08648e-05,-8.78466e-06,0.000111641,6.40681e-06,4
-3.19764e-05,9.15171e-06,-1.99641e-05,-0.000121627,6.66572e-06,-1.29727e-05,4.74554e-05,1.70076e-05,4
-3.30849e-05,7.08394e-06,-2.09682e-05,-0.000262806,4.6205e-06,-1.62103e-05,-4.11429e-05,2.34381e-05,4
-3.31011e-05,6.42927e-06,-2.1684e-05,-0.000336393,2.87191e-06,-1.87126e-05,-0.000105961,2.52168e-05,4
-3.13334e-05,7.42825e-06,-2.25474e-05,-0.000213541,6.86556e-08,-1.51131e-05,-0.00010299,2.43464e-05,4
-2.80783e-05,9.51472e-06,-2.47899e-05,4.25524e-06,-2.36504e-06,-4.04631e-06,-1.45466e-05,1.92616e-05,4
-2.71621e-05,1.06079e-05,-2.72916e-05,0.000144986,-3.0866e-06,5.62525e-06,0.000124489,9.67115e-06,4
-2.99177e-05,1.07993e-05,-3.00158e-05,0.00017615,-2.51729e-06,5.62289e-06,0.000205234,3.42378e-08,4
-3.34346e-05,1.01032e-05,-3.00815e-05,0.000177339,-5.8462e-07,-1.08235e-06,0.000169773,-6.88655e-06,4
-3.62978e-05,8.78938e-06,-2.5585e-05,0.000163487,5.51177e-07,-7.111e-06,9.01585e-05,-1.21922e-05,4
-3.82831e-05,8.54181e-06,-1.87538e-05,0.000133123,-1.37773e-06,-9.7529e-06,3.70368e-05,-1.42254e-05,4
-3.92477e-05,9.97804e-06,-1.11664e-05,0.000129336,-4.41289e-06,-1.28511e-05,-1.2779e-05,-1.36088e-05,4
-3.97774e-05,1.14604e-05,-4.83129e-06,0.000146614,-4.53023e-06,-1.80961e-05,-8.84091e-05,-1.00621e-05,4
-3.98585e-05,1.14422e-05,-1.5477e-06,0.000143831,-4.26173e-08,-2.04369e-05,-0.00016399,-4.50263e-06,4
-3.94412e-05,1.14069e-05,-3.21676e-06,0.000102634,8.38008e-06,-1.74684e-05,-0.000211318,-5.11691e-07,4
-3.77194e-05,1.17464e-05,-5.07255e-06,4.47441e-05,1.66583e-05,-1.21898e-05,-0.00019024,2.33875e-06,4
-3.60224e-05,1.29482e-05,-2.6575e-06,1.10034e-07,2.05472e-05,-9.93828e-06,-7.24461e-05,5.31372e-06,4
-3.47826e-05,1.46547e-05,1.29056e-06,-1.83612e-05,2.15252e-05,-1.0084e-05,7.84136e-05,9.45881e-06,4
-3.44934e-05,1.52749e-05,1.65631e-06,1.1536e-05,2.00178e-05,-1.13013e-05,0.000135213,1.31134e-05,4
-3.45039e-05,1.40751e-05,-4.46422e-06,4.89342e-05,1.6621e-05,-1.42526e-05,6.43453e-05,1.44236e-05,4
-3.37455e-05,1.25326e-05,-1.38744e-05,5.54928e-05,1.42886e-05,-1.72448e-05,-4.87619e-05,1.39794e-05,4
-3.21521e-05,1.22996e-05,-2.04458e-05,8.43864e-05,1.38084e-05,-1.78335e-05,-0.000101294,1.32218e-05,4
-3.10517e-05,1.2428e-05,-2.24177e-05,0.000129179,1.24795e-05,-1.54066e-05,-4.89239e-05,1.38569e-05,4
-3.21054e-05,1.28453e-05,-2.5071e-05,9.54704e-05,7.45231e-06,-1.20802e-05,6.52548e-05,1.48928e-05,4
-3.41563e-05,1.29043e-05,-3.20363e-05,-7.10323e-05,2.9149e-06,-7.30637e-06,0.000154629,1.56344e-05,4
-3.44202e-05,1.25478e-05,-3.91826e-05,-0.00028711,5.88285e-06,-6.56038e-07,0.000160818,1.60883e-05,4
-3.27031e-05,1.12439e-05,-3.75712e-05,-0.000379373,1.58745e-05,5.34384e-06,0.000106041,1.61886e-05,4
-3.18934e-05,9.92584e-06,-2.46064e-05,-0.000293585,2.394e-05,4.51478e-06,5.04189e-05,1.51246e-05,4
-3.26666e-05,9.89827e-06,-6.92053e-06,-0.000187645,2.58648e-05,-4.66318e-06,3.20706e-05,1.31256e-05,4
-3.24741e-05,1.0919e-05,8.269e-06,-0.000208363,2.5681e-05,-1.50943e-05,4.24933e-05,1.08424e-05,4
-3.04194e-05,1.26437e-05,1.6682e-05,-0.000264554,2.67231e-05,-1.76535e-05,5.2458e-05,8.90102e-06,4
-2.89666e-05,1.45481e-05,1.92379e-05,-0.00020694,2.73195e-05,-1.15528e-05,4.22169e-05,9.24541e-06,4
-2.92065e-05,1.57758e-05,2.24155e-05,-5.35275e-05,2.35248e-05,-3.00803e-06,4.34374e-05,1.20349e-05,4
-2.9836e-05,1.54632e-05,2.58964e-05,7.04151e-05,1.55703e-05,1.59405e-06,7.92204e-05,1.39596e-05,4
-2.96641e-05,1.557e-05,2.55913e-05,6.22809e-05,1.07859e-05,-2.9761e-07,9.05233e-05,1.31447e-05,4
-2.84054e-05,1.75707e-05,2.45536e-05,-6.19557e-05,1.39715e-05,-5.28397e-06,5.75389e-05,1.30476e-05,4
-2.78958e-05,1.79787e-05,1.96858e-05,-0.000175487,1.75765e-05,-7.98972e-06,1.44755e-05,1.45188e-05,4
-2.97158e-05,1.65839e-05,5.41569e-06,-0.0001743,1.63466e-05,-8.07769e-06,-4.89618e-05,1.4151e-05,4
-3.27698e-05,1.55077e-05,-1.11598e-05,-8.619e-05,1.41684e-05,-9.33453e-06,-0.000139793,1.27624e-05,4
-3.56056e-05,1.34689e-05,-1.84143e-05,1.64995e-05,1.14539e-05,-1.33096e-05,-0.000205989,1.29149e-05,4
-3.59522e-05,1.29806e-05,-1.34882e-05,8.0764e-05,7.79865e-06,-1.72898e-05,-0.000194248,1.86473e-05,4
-3.39671e-05,1.63244e-05,-5.45375e-06,0.000103568,7.51047e-06,-1.46284e-05,-0.000106044,3.19449e-05,4
