ch1,ch2,ch3,ch4,ch5,ch6,ch7,ch8,class
-2.14708e-05,2.11937e-05,-8.82366e-06,0.000851455,-8.43201e-06,-4.15586e-06,-0.000142983,2.56513e-05,4
-2.81568e-05,1.37716e-05,-2.47681e-05,0.000756319,-4.22415e-05,-1.27337e-05,-7.78964e-05,3.32854e-05,4
-3.45782e-05,7.65575e-06,-4.35737e-05,0.000650546,-6.35358e-05,-1.59865e-05,9.81176e-05,3.53402e-05,4
-3.80841e-05,5.29158e-06,-5.15634e-05,0.000465423,-6.37849e-05,-1.54753e-05,0.000266289,3.301e-05,4
-3.52143e-05,7.33514e-06,-4.19812e-05,0.000259981,-4.13803e-05,-1.29344e-05,0.000264238,2.84718e-05,4
-2.92923e-05,8.68944e-06,-3.36826e-05,-0.000121427,-1.19941e-05,-8.42594e-06,0.000132739,2.34587e-05,4
-2.69728e-05,6.45099e-06,-4.18733e-05,-0.000663259,3.30874e-06,-5.79196e-06,5.45559e-05,1.67128e-05,4
-2.85218e-05,3.60957e-06,-5.86154e-05,-0.000893761,3.67512e-07,-7.6824e-06,7.17772e-05,7.37932e-06,4
-3.114e-05,3.14561e-06,-7.03898e-05,-0.000580304,-6.90066e-06,-1.32448e-05,6.27395e-05,-2.52985e-06,4
-3.25385e-05,4.72933e-06,-7.94718e-05,-5.92827e-05,-6.80756e-06,-1.9778e-05,2.37183e-06,-5.17855e-06,4
-3.13238e-05,5.82318e-06,-8.74644e-05,0.00014284,9.79429e-07,-2.22734e-05,-2.41903e-05,5.44288e-06,4
-2.78251e-05,6.78315e-06,-8.52444e-05,-0.000263103,1.17323e-05,-1.77696e-05,2.44165e-05,2.11234e-05,4
-2.3596e-05,9.34862e-06,-6.48238e-05,-0.00102748,2.36061e-05,-8.61679e-06,0.000104335,3.19684e-05,4
-1.99906e-05,1.1699e-05,-3.4096e-05,-0.00138013,3.3759e-05,-3.84839e-06,0.000193468,3.66079e-05,4
-2.07502e-05,9.04987e-06,-1.21647e-05,-0.000950176,3.3075e-05,-8.40561e-06,0.000287642,4.04095e-05,4
-2.63076e-05,2.70924e-06,-1.59965e-06,-5.75396e-05,1.92524e-05,-1.90014e-05,0.000338297,4.5401e-05,4
-3.05571e-05,8.4501e-07,2.07044e-05,0.000930652,7.05261e-06,-2.87992e-05,0.000277271,4.55138e-05,4
-2.87284e-05,7.79639e-06,6.4834e-05,0.00180874,1.14732e-05,-3.25751e-05,0.000127387,3.20974e-05,4
-2.36586e-05,1.73466e-05,0.000100316,0.00214035,2.53098e-05,-2.84981e-05,-2.729e-05,4.17097e-06,4
-2.16605e-05,1.95719e-05,9.18909e-05,0.00157487,2.84367e-05,-1.71692e-05,-0.000146553,-3.17153e-05,4
-2.66595e-05,1.03986e-05,3.62821e-05,0.000528606,1.20872e-05,-4.93424e-06,-0.000214284,-6.84608e-05,4
-3.56138e-05,-3.75236e-06,-2.7657e-05,-0.000340617,-1.11425e-05,-1.21164e-06,-0.000210711,-9.89812e-05,4
-4.06007e-05,-1.13425e-05,-5.75264e-05,-0.00076683,-2.22678e-05,-3.62078e-06,-0.000159844,-0.000112932,4
-3.79674e-05,-7.17009e-06,-5.13922e-05,-0.000641983,-1.37612e-05,-3.9025e-06,-0.000113511,-0.000100519,4
-3.01357e-05,4.42819e-06,-3.11765e-05,-0.000161863,5.15039e-06,4.34352e-07,-7.81432e-05,-6.69658e-05,4
-2.47708e-05,1.16117e-05,-2.07196e-05,0.000107957,1.44098e-05,4.27398e-06,-4.70931e-05,-3.99492e-05,4
-2.55974e-05,9.78947e-06,-2.46845e-05,-1.30946e-05,5.5628e-06,2.42631e-06,-1.49388e-05,-3.00844e-05,4
-2.89197e-05,4.55726e-06,-2.83046e-05,-0.000232887,-7.27792e-06,-1.84015e-06,8.16473e-06,-2.44964e-05,4
-2.95858e-05,4.06711e-06,-2.19376e-05,-0.000283799,-9.23586e-06,-5.59421e-06,-4.14813e-08,-1.60387e-05,4
-2.59757e-05,1.06264e-05,-8.21515e-06,-0.000148877,2.03492e-06,-6.38611e-06,-3.34887e-05,-4.69211e-06,4
-2.10474e-05,1.81951e-05,-6.78015e-07,-3.2235e-05,1.92249e-05,-4.29061e-06,-3.13282e-05,3.03558e-06,4
-1.62533e-05,2.2734e-05,-6.26756e-06,-1.95291e-05,3.74207e-05,-2.32523e-06,2.23964e-05,6.42622e-06,4
-1.31257e-05,2.38459e-05,-1.44496e-05,-3.95421e-05,5.12873e-05,-3.38276e-06,5.94281e-05,7.80387e-06,4
-1.16086e-05,2.48392e-05,-9.54921e-06,-1.98186e-05,5.54563e-05,-7.58609e-06,6.13136e-05,9.28883e-06,4
-1.12046e-05,2.61687e-05,-3.94575e-06,2.16975e-05,5.1288e-05,-1.08531e-05,6.21686e-05,8.78671e-06,4
-1.34879e-05,2.53708e-05,-1.35517e-05,6.08566e-05,4.35489e-05,-1.05052e-05,6.56319e-05,6.20011e-06,4
-1.84282e-05,2.24767e-05,-2.39697e-05,0.000155668,3.46076e-05,-1.04498e-05,3.40147e-05,3.95924e-06,4
-2.416e-05,1.96472e-05,-1.19044e-05,0.000327603,2.17282e-05,-1.60835e-05,-6.70329e-05,3.98788e-06,4
-2.94622e-05,1.74809e-05,2.25074e-05,0.000511521,6.29069e-06,-2.42886e-05,-0.000195676,6.62129e-06,4
-3.45836e-05,1.48504e-05,5.15194e-05,0.000620698,-4.66439e-06,-2.72526e-05,-0.000213789,9.265e-06,4
-3.89847e-05,1.02651e-05,5.16507e-05,0.000658697,-6.57765e-06,-2.40195e-05,-7.19907e-05,1.10737e-05,4
-4.28065e-05,3.43515e-06,2.90527e-05,0.000531653,-5.88653e-06,-1.87577e-05,5.83934e-05,1.22009e-05,4
-4.46585e-05,-6.63604e-07,1.3045e-05,5.86065e-05,-5.34591e-06,-1.20364e-05,7.08443e-05,1.3467e-05,4
-4.13315e-05,2.35171e-06,1.86832e-05,-0.000586891,3.44337e-06,-2.24034e-06,8.42069e-05,1.36126e-05,4
-3.42665e-05,9.06278e-06,2.80468e-05,-0.000863269,2.25431e-05,7.52118e-06,0.000150463,1.26878e-05,4
-2.9247e-05,1.28956e-05,2.0246e-05,-0.00067895,3.9272e-05,1.16381e-05,0.000157627,1.09834e-05,4
-2.57996e-05,1.46681e-05,7.37781e-06,-0.000425574,4.75562e-05,9.21356e-06,6.85583e-05,1.02852e-05,4
-2.09316e-05,1.84345e-05,1.02449e-05,-0.000311706,5.1758e-05,4.26252e-06,-3.42851e-05,1.02028e-05,4
-1.7019e-05,2.31735e-05,1.92916e-05,-0.000278837,5.12544e-05,-4.51193e-08,-6.89132e-05,1.01281e-05,4
-1.71149e-05,2.49132e-05,1.22442e-05,-0.00033759,4.78812e-05,-3.30934e-06,-8.57942e-05,8.80455e-06,4
-2.02549e-05,2.35952e-05,-7.42245e-06,-0.000611654,4.9271e-05,-6.82327e-06,-0.000193154,6.72554e-06,4
-2.34188e-05,1.99787e-05,-2.49591e-05,-0.000772944,5.11431e-05,-1.316e-05,-0.000368217,6.67887e-06,4
-2.46591e-05,1.62946e-05,-3.56467e-05,-0.00036901,4.58937e-05,-1.79825e-05,-0.00047491,8.74883e-06,4
-2.51543e-05,1.50348e-05,-3.85333e-05,0.000270644,3.79692e-05,-1.99041e-05,-0.000438677,1.24091e-05,4
-2.52062e-05,1.65125e-05,-3.16897e-05,0.000605193,3.32882e-05,-2.09759e-05,-0.000262176,1.75152e-05,4
-2.4891e-05,1.88829e-05,-2.0817e-05,0.000501343,3.04914e-05,-1.81188e-05,-2.21354e-06,2.03468e-05,4
-2.5768e-05,1.79872e-05,-1.38822e-05,4.14112e-05,1.83366e-05,-9.70237e-06,0.000137295,1.95815e-05,4
-2.80574e-05,1.45441e-05,-1.15147e-05,-0.000562151,-7.13473e-06,-2.30189e-06,7.66302e-05,1.78906e-05,4
-3.2356e-05,1.08858e-05,-1.16168e-05,-0.000858261,-2.99894e-05,-4.65249e-06,-3.20535e-05,1.67978e-05,4
-3.70035e-05,7.81878e-06,-8.05101e-06,-0.000547211,-3.64248e-05,-1.51792e-05,-5.03376e-05,1.55917e-05,4
-3.99752e-05,5.84138e-06,-1.55552e-06,6.40723e-05,-3.20864e-05,-2.7426e-05,4.01284e-05,1.25527e-05,4
-3.92184e-05,7.08107e-06,1.66438e-06,0.000505652,-2.31503e-05,-3.27859e-05,0.000230167,9.31693e-06,4
-3.45563e-05,1.27241e-05,2.78279e-06,0.000555356,-8.9368e-06,-2.9157e-05,0.000461232,7.35818e-06,4
-2.8893e-05,1.87631e-05,5.20113e-06,0.000341146,6.77471e-06,-2.29024e-05,0.000536682,9.10787e-06,4
-2.6647e-05,2.15878e-05,7.31883e-06,6.18152e-05,1.79602e-05,-1.9051e-05,0.00033956,1.52006e-05,4
-2.69489e-05,2.27167e-05,7.70203e-06,-5.65104e-05,2.6019e-05,-1.49955e-05,4.32063e-05,2.58847e-05,4
-2.47343e-05,2.5241e-05,3.51692e-06,5.87422e-05,3.62718e-05,-5.01074e-06,-9.50991e-05,4.03408e-05,4
-1.96996e-05,2.78138e-05,-6.99356e-06,0.000261872,4.83262e-05,8.68901e-06,-4.21946e-05,5.16798e-05,4
-1.68886e-05,2.68933e-05,-1.78065e-05,0.000435746,5.46183e-05,1.71742e-05,5.66916e-05,5.3859e-05,4
-1.83685e-05,2.35981e-05,-1.68771e-05,0.000517162,4.89236e-05,1.58837e-05,8.44656e-05,4.62431e-05,4
-2.09748e-05,2.15439e-05,-8.63775e-07,0.000474265,3.06805e-05,7.45835e-06,6.70485e-05,2.99891e-05,4
-2.48351e-05,1.9112e-05,1.47474e-05,0.000365251,2.45762e-06,-4.50393e-06,0.000109142,7.38614e-06,4
-3.19719e-05,1.1425e-05,1.07262e-05,0.000232812,-2.64765e-05,-1.57919e-05,0.000229358,-1.70392e-05,4
-4.13405e-05,3.40899e-07,-1.97657e-05,-0.000122078,-4.35628e-05,-2.02388e-05,0.000299326,-3.68889e-05,4
-4.85841e-05,-7.40679e-06,-5.93993e-05,-0.000571648,-4.64095e-05,-1.53417e-05,0.000248958,-4.66824e-05,4
-5.03666e-05,-8.23609e-06,-7.92076e-05,-0.00056398,-4.35311e-05,-7.32694e-06,0.000141829,-4.3732e-05,4
-4.72849e-05,-2.835e-06,-7.73745e-05,-0.000126342,-3.55395e-05,-2.74e-06,4.78245e-05,-3.27721e-05,4
-4.31936e-05,3.69904e-06,-6.65144e-05,0.000137353,-1.81953e-05,-3.82068e-06,1.16038e-05,-2.1807e-05,4
-3.81136e-05,9.10928e-06,-4.06065e-05,7.56294e-06,9.10479e-06,-7.92009e-06,2.99159e-05,-1.93289e-05,4
-3.2405e-05,1.48433e-05,-3.23182e-06,-0.000219565,3.56542e-05,-1.04793e-05,9.11702e-05,-3.06154e-05,4
-2.80917e-05,2.05718e-05,2.42898e-05,-0.000197533,5.10191e-05,-8.93457e-06,0.000207374,-4.67962e-05,4
-2.35676e-05,2.57201e-05,3.78659e-05,9.93272e-05,5.8776e-05,-4.46575e-06,0.000329475,-5.80186e-05,4
-1.78534e-05,2.97138e-05,4.93406e-05,0.000421914,6.06814e-05,-1.13921e-07,0.000345725,-6.10147e-05,4
-1.40339e-05,3.18176e-05,6.85864e-05,0.000504479,5.71462e-05,1.89001e-06,0.000203777,-5.53687e-05,4
-1.5691e-05,3.10598e-05,8.96406e-05,0.000422899,4.26317e-05,-2.19298e-06,-7.18757e-05,-4.34147e-05,4
-2.26602e-05,2.65133e-05,8.62066e-05,0.000293262,1.70921e-05,-1.11638e-05,-0.000402046,-2.98375e-05,4
-3.33122e-05,1.67493e-05,4.44598e-05,1.83262e-05,-1.19087e-05,-1.65736e-05,-0.000610766,-1.97492e-05,4
-4.3243e-05,4.64012e-06,-1.38866e-05,-0.000278853,-3.75296e-05,-1.45689e-05,-0.000563651,-1.38431e-05,4
-4.92359e-05,-4.47298e-06,-6.50138e-05,-0.000372935,-5.11333e-05,-8.39914e-06,-0.000284659,-1.1001e-05,4
-5.2043e-05,-8.14957e-06,-0.000105494,-0.0003333,-4.67112e-05,-4.49462e-06,7.30612e-05,-9.1876e-06,4
-5.33188e-05,-7.57262e-06,-0.000135557,-0.000364391,-2.75508e-05,-3.74754e-06,0.000278484,-6.7372e-06,4
-5.3179e-05,-4.17743e-06,-0.000149327,-0.000469201,-6.69477e-06,-2.91949e-06,0.000254345,-3.94823e-06,4
-5.15588e-05,-5.827e-08,-0.000141604,-0.000474832,2.06234e-06,-3.88024e-06,0.000134761,-8.20222e-07,4
-4.92117e-05,2.31689e-06,-0.000116151,-0.000270907,-5.74145e-06,-8.3511e-06,5.51036e-05,3.33973e-06,4
-4.4944e-05,3.98762e-06,-7.74533e-05,4.44572e-05,-1.60211e-05,-1.20556e-05,3.09908e-05,1.00116e-05,4
-3.8759e-05,7.53452e-06,-2.56429e-05,0.000294737,-1.13001e-05,-1.25089e-05,1.09166e-05,1.8999e-05,4
-3.24686e-05,1.27732e-05,3.27907e-05,0.000392455,8.87573e-06,-1.45171e-05,-4.20831e-05,2.70197e-05,4
-2.87595e-05,1.56354e-05,7.67928e-05,0.000353557,3.05801e-05,-1.74628e-05,-0.000118596,3.12298e-05,4
-2.85256e-05,1.48805e-05,8.87094e-05,0.000219202,4.26132e-05,-1.71205e-05,-0.00016492,3.29352e-05,4
-3.06638e-05,1.3552e-05,7.61233e-05,3.61214e-05,4.11168e-05,-1.44895e-05,-0.000135443,3.46729e-05,4
-3.31052e-05,1.53241e-05,6.15005e-05,-0.000264915,3.10666e-05,-1.22735e-05,-4.85921e-05,3.80681e-05,4
-3.3036e-05,2.06982e-05,5.27595e-05,-0.000713423,1.91787e-05,-7.99574e-06,3.02284e-05,4.15929e-05,4
-3.08379e-05,2.55211e-05,3.76782e-05,-0.00105553,8.21818e-06,-1.26365e-06,6.30569e-05,3.93064e-05,4
-2.9293e-05,2.35248e-05,5.01778e-06,-0.00121311,3.32608e-06,-2.9463e-07,4.6422e-05,2.88006e-05,4
-3.01758e-05,1.70659e-05,-3.64096e-05,-0.00110491,1.37699e-05,-6.47237e-06,-1.83575e-05,1.20854e-05,4
-2.9727e-05,1.60878e-05,-5.8749e-05,-0.000395211,3.83387e-05,-1.05563e-05,-0.000103138,-7.54211e-06,4
-2.54069e-05,2.17734e-05,-4.51247e-05,0.000445187,5.4193e-05,-7.69483e-06,-0.000157189,-2.38369e-05,4
-2.17229e-05,2.55642e-05,-1.93164e-05,0.000855683,5.1516e-05,-3.83556e-06,-0.000192748,-3.39199e-05,4
-2.1356e-05,2.45048e-05,-3.79157e-06,0.000893931,4.39314e-05,-5.45521e-06,-0.000249676,-3.52992e-05,4
-2.28503e-05,2.13614e-05,4.8526e-07,0.000717695,3.87174e-05,-9.20657e-06,-0.000358283,-2.79282e-05,4
-2.5006e-05,1.76055e-05,-3.27352e-06,0.000619591,3.6998e-05,-1.07532e-05,-0.000443941,-1.77059e-05,4
-2.61126e-05,1.63684e-05,2.18006e-06,0.000524438,3.30308e-05,-1.13141e-05,-0.000269217,-8.45335e-06,4
-2.59309e-05,1.8593e-05,1.87979e-05,0.000323787,2.15431e-05,-1.31608e-05,0.000184317,-3.33947e-06,4
-2.70208e-05,1.96172e-05,2.61565e-05,0.000187333,2.6517e-06,-1.31562e-05,0.000634303,-1.08452e-06,4
-3.02281e-05,1.56597e-05,1.25566e-05,9.83252e-05,-1.32445e-05,-9.51599e-06,0.000769876,-1.02046e-07,4
-3.45558e-05,8.78502e-06,-7.25338e-06,-4.67443e-05,-1.56296e-05,-7.52506e-06,0.000508698,6.59786e-08,4
-3.84298e-05,3.88038e-06,-7.92605e-06,-0.000154995,-7.09774e-06,-1.11361e-05,0.000103884,-7.09223e-07,4
-3.91315e-05,3.39315e-06,3.09893e-05,-7.76349e-05,1.03269e-05,-1.92688e-05,-0.000160329,-1.09986e-06,4
-3.55962e-05,7.69397e-06,9.59641e-05,0.000253656,3.20229e-05,-2.4567e-05,-0.000208234,8.14669e-07,4
-3.08782e-05,1.33614e-05,0.000140046,0.000729937,4.81622e-05,-2.26803e-05,-0.000150501,3.62636e-06,4
-2.87788e-05,1.54818e-05,0.000130013,0.00109643,4.93696e-05,-1.65321e-05,-0.000116484,6.01755e-06,4
-3.07415e-05,1.21821e-05,7.41297e-05,0.00118908,3.81828e-05,-1.04656e-05,-0.000119371,6.89225e-06,4
-3.48548e-05,6.04056e-06,1.10752e-05,0.000961354,2.46239e-05,-6.70161e-06,-6.80714e-05,7.73788e-06,4
-3.92976e-05,6.22061e-07,-2.86568e-05,0.000323721,1.41473e-05,-6.54459e-06,9.14912e-05,1.24882e-05,4
-4.4311e-05,-4.02013e-06,-4.57627e-05,-0.000692706,4.67264e-06,-1.0778e-05,0.000281604,2.50231e-05,4
-4.75081e-05,-6.30828e-06,-5.74816e-05,-0.00149867,-1.39483e-06,-1.63876e-05,0.000349418,3.92117e-05,4
-4.40699e-05,-2.44032e-06,-6.43509e-05,-0.00148179,2.40678e-06,-1.46178e-05,0.00022791,4.50324e-05,4
-3.28539e-05,8.56542e-06,-5.93392e-05,-0.000854201,1.86471e-05,-7.22905e-07,3.18801e-05,4.11295e-05,4
-1.90633e-05,2.01569e-05,-4.19093e-05,-0.000368402,4.38629e-05,1.61082e-05,-8.47736e-05,3.29462e-05,4
-9.1844e-06,2.72961e-05,-1.73475e-05,-0.000252242,6.67382e-05,2.21509e-05,-9.52792e-05,2.65278e-05,4
-5.74132e-06,3.10819e-05,6.09859e-06,-0.00013235,7.44321e-05,1.66728e-05,-0.000108265,2.41519e-05,4
-8.05368e-06,3.08932e-05,1.8264e-05,3.6995e-05,6.78982e-05,6.73673e-06,-0.000202294,2.16592e-05,4
-1.48461e-05,2.65819e-05,1.01805e-05,6.13962e-05,5.45858e-05,-4.03362e-06,-0.000326775,1.10354e-05,4
-2.37642e-05,2.02963e-05,-1.61796e-05,3.06949e-05,3.09569e-05,-1.4403e-05,-0.000360999,-8.00713e-06,4
-3.31445e-05,1.09041e-05,-5.05028e-05,5.16256e-05,-1.01978e-05,-2.43756e-05,-0.000249082,-2.64373e-05,4
-3.99797e-05,-7.03856e-07,-7.90929e-05,0.000141754,-4.47919e-05,-3.13455e-05,-7.58355e-05,-3.70648e-05,4
-4.23663e-05,-8.51997e-06,-8.04711e-05,0.000372727,-4.13751e-05,-3.82902e-05,6.15118e-05,-3.58125e-05,4
-4.34294e-05,-1.08153e-05,-5.641e-05,0.000800376,-1.47515e-05,-4.60467e-05,0.000177665,-2.54881e-05,4
-4.30283e-05,-8.20221e-06,-3.60839e-05,0.00113777,5.10539e-06,-4.36285e-05,0.000333618,-1.41893e-05,4
-4.16195e-05,-2.06644e-06,-3.8754e-05,0.000682943,-2.60738e-07,-2.83547e-05,0.000476693,-7.23864e-06,4
-3.91937e-05,3.10703e-06,-5.4194e-05,-0.000544275,-1.91008e-05,-9.10407e-06,0.000473923,-6.00726e-06,4
-3.55031e-05,5.58683e-06,-6.82385e-05,-0.00144738,-2.57931e-05,4.76066e-06,0.0002561,-8.05105e-06,4
-3.4498e-05,5.8582e-06,-8.28299e-05,-0.00135845,-2.29032e-05,6.58987e-06,-7.08392e-05,-1.14818e-05,4
-3.68955e-05,6.26721e-06,-9.34675e-05,-0.000596676,-2.36812e-05,-6.03779e-08,-0.000253889,-1.34257e-05,4
-3.88733e-05,9.64238e-06,-8.73767e-05,0.000122927,-2.11978e-05,-6.20793e-06,-0.000141664,-1.30772e-05,4
-3.78594e-05,1.53062e-05,-5.09817e-05,0.000384575,-6.63107e-06,-9.08074e-06,0.000144998,-1.15516e-05,4
-3.55472e-05,1.97805e-05,6.74819e-06,0.000279667,1.06081e-05,-1.01388e-05,0.000328129,-1.0846e-05,4
-3.40938e-05,2.21475e-05,5.18628e-05,8.18948e-05,1.75196e-05,-6.89008e-06,0.000289212,-1.14696e-05,4
-3.4723e-05,2.19879e-05,6.18616e-05,-4.37509e-06,1.22147e-05,1.42589e-06,0.00016554,-1.20159e-05,4
-3.69158e-05,1.80914e-05,5.56101e-05,4.0187e-05,1.81699e-06,4.57737e-06,0.000103297,-1.16433e-05,4
-3.92614e-05,1.36009e-05,6.60501e-05,0.000121284,-6.76628e-06,-5.63687e-06,7.59548e-05,-9.58774e-06,4
-3.93321e-05,1.33024e-05,9.38639e-05,0.000132762,-1.03952e-05,-1.91322e-05,5.4944e-06,-6.97365e-06,4
-3.61419e-05,1.83038e-05,0.000112413,6.5675e-05,-1.15153e-05,-2.09753e-05,-9.84076e-05,-4.90577e-06,4
-3.25501e-05,2.20777e-05,0.000102204,-2.10843e-05,-1.23136e-05,-1.34212e-05,-0.000162296,-3.13387e-06,4
-3.12519e-05,2.0316e-05,6.45238e-05,-2.34599e-05,-1.06022e-05,-6.87201e-06,-0.000132624,-1.4972e-06,4
-3.03232e-05,1.67246e-05,1.59775e-05,2.06042e-06,-1.2085e-06,-4.59372e-06,-1.71815e-05,-6.45532e-07,4
-2.65291e-05,1.5273e-05,-2.61003e-05,-6.451e-05,1.84572e-05,-2.49602e-06,7.54144e-05,-3.8198e-07,4
-2.15233e-05,1.55704e-05,-5.31022e-05,-5.29939e-05,3.96718e-05,9.27378e-07,8.47355e-06,-3.6499e-07,4
-1.84641e-05,1.54976e-05,-6.61317e-05,0.000145649,4.98897e-05,2.12183e-06,-0.000158652,7.28513e-07,4
-1.82983e-05,1.49838e-05,-7.53073e-05,0.000227364,5.13812e-05,-3.94737e-07,-0.000248182,3.55029e-06,4
-1.91185e-05,1.41155e-05,-8.20933e-05,2.81894e-05,4.93768e-05,-3.30226e-06,-0.000200076,5.43114e-06,4
-2.10273e-05,1.33121e-05,-7.52931e-05,-0.000373271,4.06597e-05,-5.38084e-06,-0.000117707,6.06857e-06,4
-2.62147e-05,1.0838e-05,-4.7614e-05,-0.000967084,2.16266e-05,-1.26556e-05,-0.000110657,5.54787e-06,4
-3.22529e-05,6.03119e-06,-1.07247e-05,-0.00115257,-1.78255e-06,-2.25301e-05,-0.000131769,4.57232e-06,4
-3.52412e-05,3.10438e-06,1.86593e-05,-0.00051243,-1.46702e-05,-2.53132e-05,-5.6269e-05,4.59402e-06,4
-3.43621e-05,4.18139e-06,4.08715e-05,0.000209266,-1.29198e-05,-2.27428e-05,0.000107375,5.1248e-06,4
-3.11023e-05,7.55243e-06,6.14429e-05,0.000422944,-3.25457e-06,-2.02353e-05,0.000203683,5.74502e-06,4
-2.65827e-05,1.17613e-05,7.58746e-05,0.000288951,1.00935e-05,-1.61433e-05,0.000167624,5.35381e-06,4
-2.20962e-05,1.70545e-05,7.00155e-05,0.000173895,2.27985e-05,-7.42335e-06,7.92966e-05,4.85557e-06,4
-2.01593e-05,2.0214e-05,3.74694e-05,0.000146964,2.92932e-05,2.36768e-06,3.54695e-05,4.50359e-06,4
-2.20581e-05,1.80559e-05,-5.44144e-06,0.000139071,2.81562e-05,5.28989e-06,3.01106e-05,4.54341e-06,4
-2.51426e-05,1.16197e-05,-3.67959e-05,0.000138133,2.36888e-05,-3.03189e-06,6.19954e-06,4.83776e-06,4
-2.70221e-05,6.39671e-06,-4.88106e-05,9.68202e-05,1.99023e-05,-1.65932e-05,-5.66353e-05,4.55267e-06,4
-2.73454e-05,5.28864e-06,-4.71318e-05,3.05584e-07,1.67528e-05,-2.42154e-05,-0.000140379,2.94386e-06,4
-2.58015e-05,7.68811e-06,-4.12968e-05,-0.000143231,1.21968e-05,-2.47382e-05,-0.00021814,1.19692e-06,4
-2.25229e-05,1.16286e-05,-3.76004e-05,-0.000333318,8.4601e-06,-2.40676e-05,-0.000295412,3.35654e-07,4
-1.80063e-05,1.57901e-05,-3.09878e-05,-0.000499858,1.43807e-05,-2.29301e-05,-0.000356435,5.26476e-07,4
-1.2239e-05,2.09704e-05,-8.03974e-06,-0.00042424,3.1454e-05,-1.96298e-05,-0.000333141,4.25182e-06,4
-6.96831e-06,2.80951e-05,3.29271e-05,-2.92329e-05,5.02404e-05,-1.38972e-05,-0.000173739,1.48595e-05,4
-5.00214e-06,3.57066e-05,6.73116e-05,0.000463529,6.21963e-05,-5.14118e-06,5.3762e-05,2.96085e-05,4
-5.60339e-06,3.7926e-05,6.85849e-05,0.000769011,6.29694e-05,5.72726e-06,0.000235103,4.21285e-05,4
-8.51902e-06,3.30319e-05,4.04656e-05,0.000749129,5.11653e-05,1.37511e-05,0.000299385,5.34141e-05,4
-1.41288e-05,2.30886e-05,5.19731e-06,0.000233425,3.06699e-05,1.35832e-05,0.000224181,5.99663e-05,4
-2.22971e-05,1.18757e-05,-2.54226e-05,-0.000673423,9.69779e-06,6.31452e-06,8.27527e-05,5.645e-05,4
-3.02648e-05,3.22823e-06,-5.07845e-05,-0.0012879,-1.19242e-06,-1.83011e-06,1.93124e-06,4.50859e-05,4
-3.53966e-05,-2.81829e-07,-6.71932e-05,-0.000988789,-1.17371e-06,-5.45398e-06,-6.91227e-06,3.17824e-05,4
-3.94579e-05,-2.43105e-06,-7.58941e-05,0.000127637,3.84822e-07,-3.69034e-06,8.83571e-05,1.65641e-05,4
-4.15239e-05,-3.71634e-06,-7.80138e-05,0.00116016,1.88078e-06,-2.92493e-06,0.000253929,-9.18304e-07,4
-3.83225e-05,-1.32955e-06,-7.44983e-05,0.00146855,6.31521e-06,-5.3289e-06,0.000278871,-1.57689e-05,4
-3.18993e-05,3.13221e-06,-6.92605e-05,0.00124423,1.00246e-05,-4.35132e-06,0.000141429,-2.66227e-05,4
-2.76112e-05,6.2877e-06,-6.12452e-05,0.000813463,1.18076e-05,-5.26492e-06,-2.48473e-05,-3.31536e-05,4
-3.00388e-05,3.77578e-06,-5.88513e-05,0.000427809,1.14787e-05,-1.13119e-05,-0.000117538,-3.71627e-05,4
-3.55655e-05,2.13232e-07,-6.32021e-05,0.000150039,6.34036e-06,-1.59738e-05,-0.000136248,-3.8225e-05,4
-3.64586e-05,1.55276e-06,-6.2063e-05,2.14081e-05,-2.99718e-06,-1.59886e-05,-0.000120918,-3.73854e-05,4
-3.19244e-05,8.53349e-06,-4.75895e-05,-0.00010174,-9.29525e-06,-1.09665e-05,-5.80319e-05,-3.71272e-05,4
-2.64527e-05,1.67372e-05,-2.0883e-05,-0.000215457,-3.96715e-06,-5.30876e-06,7.16563e-05,-3.78813e-05,4
-2.38714e-05,2.12313e-05,1.14594e-05,-0.000232009,6.89264e-06,-5.11741e-06,0.000188693,-3.91242e-05,4
-2.52017e-05,2.07287e-05,3.69253e-05,-0.000273477,1.14758e-05,-1.31005e-05,0.00016556,-3.80968e-05,4
-3.04871e-05,1.57128e-05,4.32482e-05,-0.000388403,5.47773e-06,-2.45864e-05,9.38252e-06,-3.39596e-05,4
-3.80124e-05,9.27524e-06,3.08419e-05,-0.00047724,-6.72104e-06,-3.26314e-05,-0.000173474,-2.77733e-05,4
-4.44488e-05,3.8598e-06,1.03897e-05,-0.000370607,-1.77537e-05,-3.40004e-05,-0.000289037,-2.22446e-05,4
-4.68077e-05,7.08171e-07,-2.68008e-06,-9.55984e-05,-2.31519e-05,-3.0844e-05,-0.000330093,-1.84988e-05,4
-4.57359e-05,-1.78872e-07,-4.68399e-06,0.000190757,-2.12079e-05,-2.61755e-05,-0.000332009,-1.63294e-05,4
-4.37398e-05,8.08105e-07,-7.07177e-06,0.000235815,-1.33628e-05,-2.05023e-05,-0.000277218,-1.44482e-05,4
-4.17106e-05,3.00534e-06,-1.99316e-05,2.24662e-05,-5.59371e-06,-1.33825e-05,-6.08853e-05,-1.2647e-05,4
-3.89581e-05,5.89621e-06,-3.68911e-05,-0.000250044,-3.60994e-06,-6.11573e-06,0.000351714,-1.06125e-05,4
-3.54205e-05,8.7924e-06,-4.76804e-05,-0.000321043,-1.97489e-06,-9.85281e-07,0.000724449,-7.58989e-06,4
-3.18179e-05,1.11059e-05,-4.61798e-05,-0.00016804,1.12766e-05,6.21658e-07,0.000745072,-3.75407e-06,4
-2.77531e-05,1.41834e-05,-2.46803e-05,2.46727e-05,3.85807e-05,-7.84355e-07,0.000450545,7.44958e-07,4
-2.21208e-05,1.87629e-05,1.30363e-05,4.80487e-05,6.46121e-05,-4.14754e-06,0.000143185,5.48674e-06,4
-1.76274e-05,2.26009e-05,4.1835e-05,-0.000159693,7.02595e-05,-7.00092e-06,-7.39601e-06,1.06186e-05,4
-1.56251e-05,2.47295e-05,4.71708e-05,-0.000409805,5.68093e-05,-8.63868e-06,-3.15196e-05,1.71936e-05,4
-1.55913e-05,2.50873e-05,3.85331e-05,-0.000338567,4.29372e-05,-8.95252e-06,-2.59023e-05,2.42273e-05,4
-1.82503e-05,2.24824e-05,2.7351e-05,0.000110608,3.90104e-05,-6.36613e-06,-4.71422e-05,2.79327e-05,4
-2.26233e-05,1.87019e-05,2.21263e-05,0.000508539,3.62945e-05,-4.06596e-06,-9.17113e-05,2.54828e-05,4
-2.67652e-05,1.63229e-05,2.12689e-05,0.000641133,2.82682e-05,-5.04364e-06,-0.000112538,2.03498e-05,4
-2.94891e-05,1.47289e-05,1.88901e-05,0.00062596,1.97343e-05,-9.93877e-06,-7.73405e-05,1.60288e-05,4
-2.90305e-05,1.44726e-05,2.14787e-05,0.000552674,1.53983e-05,-1.6565e-05,4.94491e-06,1.28375e-05,4
-2.6081e-05,1.54689e-05,3.61668e-05,0.000434472,1.76756e-05,-2.08778e-05,0.000113927,1.05513e-05,4
-2.48724e-05,1.62307e-05,5.92709e-05,1.41613e-06,2.13987e-05,-2.3157e-05,0.000207433,6.86712e-06,4
-2.42651e-05,1.77988e-05,7.87229e-05,-0.000769303,2.07085e-05,-2.5979e-05,0.000209594,2.87416e-06,4
-2.18397e-05,2.20049e-05,8.08995e-05,-0.00144349,1.81257e-05,-2.2963e-05,6.71849e-05,-6.48221e-07,4
-1.84405e-05,2.65494e-05,6.28278e-05,-0.00157936,1.50187e-05,-8.90505e-06,-0.000159783,-2.69139e-06,4
-1.73579e-05,2.83491e-05,3.85005e-05,-0.00110541,4.24561e-06,7.28191e-06,-0.000319209,-4.4284e-06,4
-1.8229e-05,2.99551e-05,2.66685e-05,-0.000493173,-8.05524e-06,1.44864e-05,-0.000365574,-5.22977e-06,4
-1.83205e-05,3.30439e-05,2.83991e-05,0.000120728,-3.43299e-06,1.51231e-05,-0.000331664,-4.48246e-06,4
-1.64721e-05,3.57446e-05,2.90682e-05,0.000781432,1.83491e-05,1.85246e-05,-0.000196078,-3.3837e-06,4
-1.57973e-05,3.45047e-05,1.66975e-05,0.00138343,4.02205e-05,2.33977e-05,2.09124e-05,-2.15355e-06,4
-2.10672e-05,2.84017e-05,-3.94691e-06,0.00175834,4.73227e-05,1.84513e-05,0.000190767,-6.55907e-07,4
-3.15722e-05,1.84382e-05,-2.85228e-05,0.00194884,3.86627e-05,-9.59958e-07,0.000234388,1.08226e-06,4
-4.45284e-05,4.3422e-06,-6.75401e-05,0.00189733,1.98099e-05,-2.28993e-05,0.000216472,2.4769e-06,4
-5.61113e-05,-1.25288e-05,-0.00012618,0.00120121,-3.27264e-06,-3.40201e-05,0.000221536,3.53935e-06,4
-6.28449e-05,-2.46038e-05,-0.000181551,-0.000171408,-2.25598e-05,-3.08732e-05,0.000251337,3.22411e-06,4
-6.27777e-05,-2.62706e-05,-0.000201251,-0.0013716,-3.05757e-05,-1.88045e-05,0.000206836,4.34802e-06,4
-5.80414e-05,-2.06698e-05,-0.000176694,-0.0014971,-2.68085e-05,-8.51365e-06,2.2234e-05,1.33617e-05,4
-5.17362e-05,-1.29425e-05,-0.000120835,-0.000643257,-1.8039e-05,-6.27918e-06,-0.000192218,2.9401e-05,4
-4.55278e-05,-5.56807e-06,-5.22461e-05,0.000327151,-1.1108e-05,-6.49645e-06,-0.000267537,4.30933e-05,4
-3.90859e-05,1.02048e-06,8.77858e-06,0.000667563,-1.32311e-06,-3.11871e-06,-0.000176526,5.425e-05,4
-3.37356e-05,5.00293e-06,4.53832e-05,0.000322467,9.62669e-06,7.59801e-07,9.2248e-06,6.99307e-05,4
-3.35749e-05,5.07069e-06,5.24911e-05,-0.000360504,6.58311e-06,9.12477e-07,0.000171809,9.37277e-05,4
-3.84089e-05,3.1998e-06,4.24281e-05,-0.000938595,-7.11377e-06,-5.40022e-06,0.000154439,0.000110659,4
-4.23029e-05,3.00934e-06,3.57581e-05,-0.00108905,-1.14397e-05,-1.58857e-05,-3.10504e-05,9.92549e-05,4
-3.96974e-05,7.50098e-06,3.43457e-05,-0.000868654,-2.39605e-06,-1.7274e-05,-0.000150603,6.34641e-05,4
-3.22231e-05,1.47754e-05,2.82411e-05,-0.000602211,1.01231e-05,-5.35699e-06,-0.000135424,1.80409e-05,4
-2.41191e-05,2.05086e-05,1.62079e-05,-0.000456881,2.1773e-05,4.87944e-06,-0.000109989,-3.32432e-05,4
-1.93273e-05,2.23961e-05,5.31258e-06,-0.0004132,2.94501e-05,4.72219e-06,-0.000136874,-8.07637e-05,4
-1.89767e-05,2.14365e-05,-2.70877e-06,-0.000364623,3.1107e-05,-1.82304e-06,-0.000214424,-0.000106769,4
-2.02893e-05,2.18764e-05,-7.74548e-06,-0.00037778,2.69665e-05,-9.55604e-06,-0.000289651,-9.9981e-05,4
-2.19073e-05,2.27743e-05,-1.23354e-05,-0.000457209,2.17565e-05,-1.53323e-05,-0.00031796,-6.5884e-05,4
-2.49078e-05,2.15125e-05,-2.09976e-05,-0.000456331,1.59771e-05,-1.97515e-05,-0.000286229,-2.60135e-05,4
-2.89431e-05,1.90316e-05,-2.46274e-05,-0.000276075,1.11047e-05,-2.31223e-05,-0.000176722,-3.16733e-06,4
-3.19608e-05,1.87601e-05,-1.66958e-05,-4.09148e-06,1.44156e-05,-2.27109e-05,9.15167e-05,-6.67212e-06,4
-3.23934e-05,2.12681e-05,-7.86326e-06,0.000107007,2.74934e-05,-1.76078e-05,0.000469998,-2.82431e-05,4
-2.93516e-05,2.49025e-05,-1.02012e-05,-8.82773e-05,4.32468e-05,-8.79585e-06,0.000722087,-5.49861e-05,4
-2.47745e-05,2.8394e-05,-1.2116e-05,-0.000382631,5.34987e-05,9.84097e-07,0.00068372,-7.51597e-05,4
-2.23851e-05,2.92626e-05,8.57467e-06,-0.000369847,5.39126e-05,4.77781e-06,0.000422413,-8.36023e-05,4
-2.31016e-05,2.68171e-05,4.89015e-05,-4.98786e-05,4.48683e-05,-9.42234e-07,0.000160613,-8.02771e-05,4
-2.41962e-05,2.38957e-05,9.0229e-05,0.000239539,3.49458e-05,-9.85644e-06,2.67776e-05,-6.70889e-05,4
-2.38004e-05,2.44343e-05,0.000121958,0.000293423,3.09402e-05,-1.32469e-05,-1.15881e-05,-4.79253e-05,4
-2.19411e-05,2.8093e-05,0.000131344,0.000211144,3.0983e-05,-9.34435e-06,-5.11722e-05,-2.9867e-05,4
-2.03198e-05,3.05537e-05,0.000107568,0.000139176,2.88063e-05,-8.83964e-07,-0.00011969,-1.72687e-05,4
-2.13573e-05,2.79015e-05,6.19399e-05,9.36093e-05,2.18521e-05,8.75469e-06,-0.00013151,-8.55419e-06,4
-2.58724e-05,2.04478e-05,1.97473e-05,0.000122901,1.16663e-05,1.04102e-05,1.71938e-05,-1.0402e-06,4
-3.29785e-05,1.08151e-05,-3.99408e-06,0.00036757,2.36249e-06,-2.21385e-06,0.000265681,5.3415e-06,4
-4.07711e-05,1.74122e-06,-1.58756e-05,0.000644163,-6.65242e-06,-1.9693e-05,0.000378339,9.72472e-06,4
-4.76822e-05,-5.3263e-06,-2.45392e-05,0.000725614,-1.77157e-05,-3.08216e-05,0.000222408,1.44299e-05,4
-5.33277e-05,-9.88708e-06,-3.16374e-05,0.000628563,-3.25979e-05,-3.67527e-05,-4.07485e-05,2.15866e-05,4
-5.54167e-05,-1.0383e-05,-3.84713e-05,0.000458894,-4.16135e-05,-3.72637e-05,-0.000204449,3.37478e-05,4
-5.03348e-05,-5.87909e-06,-4.4495e-05,0.000351892,-2.77897e-05,-2.88579e-05,-0.000197007,4.99144e-05,4
-4.34073e-05,2.04555e-06,-4.73987e-05,0.000222468,7.53981e-07,-1.74665e-05,-5.41371e-05,6.356e-05,4
-4.00107e-05,9.23095e-06,-4.84032e-05,-0.000140947,2.05638e-05,-1.0832e-05,4.16365e-05,6.94664e-05,4
-3.83907e-05,1.22568e-05,-5.2767e-05,-0.000786954,2.14811e-05,-1.21078e-05,-5.58924e-05,6.75026e-05,4
-3.78413e-05,1.13566e-05,-5.95011e-05,-0.00123546,1.2162e-05,-1.77011e-05,-0.000262473,6.29169e-05,4
-3.84064e-05,9.0828e-06,-6.01218e-05,-0.000861612,3.62116e-06,-2.19341e-05,-0.000342,5.88872e-05,4
-3.80343e-05,7.35258e-06,-4.78597e-05,3.14372e-05,-1.40244e-06,-2.38049e-05,-0.000192455,5.37513e-05,4
-3.49864e-05,5.94974e-06,-3.18862e-05,0.000677642,-7.94635e-07,-2.24146e-05,1.52753e-05,4.32195e-05,4
-3.12994e-05,5.64826e-06,-2.38228e-05,0.000841541,1.4013e-06,-1.66602e-05,0.000111811,2.3242e-05,4
-2.96526e-05,4.57793e-06,-2.63689e-05,0.000761111,-5.68743e-07,-8.73912e-06,0.000104129,-3.93837e-06,4
-2.95857e-05,1.5355e-06,-3.77861e-05,0.000594585,-3.28486e-06,-5.66322e-06,5.0073e-05,-3.19313e-05,4
-2.79039e-05,-6.70147e-07,-4.64283e-05,0.000393384,2.06119e-06,-8.75558e-06,-8.99476e-06,-5.33413e-05,4
-2.34342e-05,3.06432e-06,-3.93446e-05,0.000304282,1.82404e-05,-1.24926e-05,-6.12203e-05,-6.26515e-05,4
-1.80022e-05,1.15035e-05,-2.17202e-05,0.000470146,3.45638e-05,-1.30872e-05,-0.000109875,-5.87697e-05,4
-1.56744e-05,1.75413e-05,-9.66191e-06,0.000780936,3.97152e-05,-1.11099e-05,-0.000160498,-4.70357e-05,4
-1.64437e-05,1.90136e-05,-6.80322e-06,0.000707623,3.28483e-05,-6.00557e-06,-0.000207063,-3.59411e-05,4
-1.67102e-05,1.85542e-05,-5.18558e-06,-7.65573e-06,2.26549e-05,2.61049e-06,-0.000231326,-2.97278e-05,4
-1.62085e-05,1.90838e-05,3.73922e-06,-0.000740317,1.69511e-05,8.01947e-06,-0.00020433,-2.58749e-05,4
-1.6871e-05,1.84025e-05,1.5735e-05,-0.000776174,1.58687e-05,5.73701e-06,-8.14875e-05,-2.16778e-05,4
-1.94945e-05,1.54166e-05,1.49796e-05,-0.000384947,1.65661e-05,7.15875e-07,0.00010843,-1.80448e-05,4
-2.18305e-05,1.25651e-05,-1.83716e-06,-0.000161887,2.12572e-05,-2.19462e-07,0.000189919,-1.47155e-05,4
-1.99276e-05,1.39571e-05,-1.67374e-05,-0.000142046,3.4333e-05,4.20719e-06,8.73997e-05,-1.06557e-05,4
-1.35617e-05,2.00807e-05,-1.65713e-05,-4.41497e-05,5.36702e-05,1.06796e-05,-1.06284e-05,-7.28535e-06,4
-8.78896e-06,2.42143e-05,-1.03166e-05,0.0001904,6.69321e-05,1.08849e-05,5.53294e-05,-5.8832e-06,4
-1.02412e-05,2.26919e-05,-7.97256e-06,0.000415007,6.35757e-05,2.49627e-06,0.000230125,-4.40344e-06,4
-1.7089e-05,1.96465e-05,-7.53248e-06,0.000528004,4.57796e-05,-7.90841e-06,0.000392931,-1.20858e-06,4
-2.59059e-05,1.52064e-05,-9.7467e-06,0.000514425,2.41117e-05,-1.61149e-05,0.000444882,4.3835e-06,4
-3.30168e-05,8.8457e-06,-1.48533e-05,0.000310832,8.6999e-06,-2.06187e-05,0.000298791,1.37529e-05,4
-3.79944e-05,2.81549e-06,-1.19668e-05,-4.73889e-05,2.22724e-07,-2.68147e-05,6.05035e-05,2.22107e-05,4
-4.04092e-05,4.24097e-08,1.30808e-06,-0.000375406,-2.64387e-06,-3.60392e-05,-8.2095e-05,2.5343e-05,4
-3.96324e-05,1.75188e-06,6.75191e-06,-0.000571153,3.93935e-08,-3.97832e-05,-8.5188e-05,2.36022e-05,4
-3.77584e-05,4.73792e-06,-1.26532e-05,-0.000816826,2.90425e-06,-3.50208e-05,1.43755e-06,2.01178e-05,4
-3.62021e-05,6.48834e-06,-5.01685e-05,-0.00115514,3.46607e-06,-2.20974e-05,9.07169e-05,1.79827e-05,4
-3.53524e-05,8.9212e-06,-7.30653e-05,-0.00109451,3.09858e-06,-7.93438e-06,0.000112645,1.57599e-05,4
-3.1735e-05,1.33267e-05,-6.09159e-05,-0.000490147,9.29851e-06,-7.92844e-07,4.84239e-05,1.32408e-05,4
-2.62585e-05,1.66368e-05,-3.04194e-05,9.80453e-05,2.23768e-05,2.03259e-07,-4.01858e-05,1.09955e-05,4
-2.29038e-05,1.5755e-05,-7.3096e-06,0.000227202,3.04006e-05,-6.10673e-07,-6.73051e-05,1.00601e-05,4
-2.24916e-05,1.31706e-05,7.73852e-06,9.33397e-05,2.86212e-05,-1.51098e-06,-5.33894e-06,1.0635e-05,4
-2.17668e-05,1.53914e-05,2.77255e-05,3.86801e-05,2.58785e-05,-8.69528e-07,7.97274e-05,1.23347e-05,4
-2.01179e-05,2.09178e-05,5.22865e-05,0.00020096,2.69637e-05,1.84189e-06,0.000135775,1.32868e-05,4
-2.14312e-05,2.39492e-05,7.10077e-05,0.000436409,1.77252e-05,3.86202e-06,0.000163843,1.26299e-05,4
-2.64706e-05,2.18811e-05,7.03096e-05,0.000483219,-9.29038e-06,2.08125e-06,0.000143255,1.2074e-05,4
-3.27525e-05,1.63339e-05,4.01012e-05,0.000238412,-3.81591e-05,-3.36279e-06,4.94725e-05,1.23177e-05,4
-3.76462e-05,1.02747e-05,-1.05468e-05,-0.000111822,-4.78147e-05,-8.38779e-06,-0.000108149,1.28173e-05,4
-3.91042e-05,7.39934e-06,-4.85965e-05,-0.000307388,-3.55167e-05,-1.15813e-05,-0.000291914,1.3649e-05,4
-3.63565e-05,8.54044e-06,-5.41378e-05,-0.00028808,-1.24992e-05,-1.33598e-05,-0.000446503,1.5114e-05,4
-3.32465e-05,1.18215e-05,-3.79759e-05,-0.000122637,7.15344e-06,-1.23187e-05,-0.000489214,1.54506e-05,4
-3.17565e-05,1.47483e-05,-1.58917e-05,9.38067e-05,1.55162e-05,-7.68644e-06,-0.000372917,1.33116e-05,4
-3.18955e-05,1.61271e-05,6.69497e-06,0.000251049,1.44058e-05,-4.36671e-06,-8.78826e-05,9.77904e-06,4
-3.17732e-05,1.77997e-05,3.01365e-05,0.00019037,1.19732e-05,-5.85594e-06,0.000258723,7.67742e-06,4
-2.95895e-05,2.04571e-05,5.26389e-05,-6.24243e-05,1.59389e-05,-6.50744e-06,0.000440361,7.59868e-06,4
-2.51182e-05,2.43884e-05,6.74004e-05,-0.000259179,2.36894e-05,-1.8764e-06,0.000402433,7.54177e-06,4
-2.1783e-05,2.72862e-05,6.38477e-05,-0.000298852,2.47251e-05,1.77156e-06,0.000248826,5.77782e-06,4
-2.38728e-05,2.48268e-05,3.22673e-05,-0.000266019,1.86626e-05,-2.46993e-06,8.08973e-05,3.70358e-06,4
-3.01409e-05,1.87722e-05,-1.10827e-05,-0.000234779,1.23965e-05,-8.83812e-06,-1.09381e-05,3.11998e-06,4
-3.50981e-05,1.37351e-05,-4.45258e-05,-0.000275263,6.85096e-06,-1.02442e-05,-3.94752e-05,3.63223e-06,4
-3.93296e-05,8.38922e-06,-6.54336e-05,-0.000297166,5.30855e-07,-1.20127e-05,-4.7181e-05,3.22363e-06,4
-4.35196e-05,2.42718e-06,-7.93628e-05,-0.000209363,-7.19629e-06,-1.66701e-05,-5.357e-05,2.22964e-06,4
-4.68333e-05,-1.14555e-06,-9.05477e-05,-7.03581e-05,-1.16657e-05,-2.03646e-05,-7.52392e-05,7.66913e-07,4
-4.92263e-05,-1.35607e-06,-8.70989e-05,2.89855e-05,-1.04795e-05,-2.0869e-05,-9.97077e-05,1.28468e-07,4
-4.86116e-05,-4.06676e-07,-7.00075e-05,6.59877e-05,-5.77365e-06,-2.0887e-05,-9.21171e-05,6.66655e-07,4
-4.75817e-05,3.89059e-07,-5.70965e-05,0.000107676,1.72722e-06,-2.24747e-05,-1.69856e-05,7.84903e-07,4
-4.66762e-05,2.54226e-06,-5.40865e-05,0.000251165,1.01847e-05,-2.47501e-05,8.16783e-05,4.44448e-07,4
-4.44228e-05,5.47594e-06,-5.70424e-05,0.000527875,1.85358e-05,-2.45238e-05,0.000130153,-1.81394e-06,4
-4.00457e-05,7.06504e-06,-6.34672e-05,0.000796904,2.71557e-05,-2.07897e-05,0.000104484,-3.76249e-06,4
-3.48352e-05,7.5127e-06,-6.51462e-05,0.000745849,3.47767e-05,-1.57511e-05,4.18753e-05,-4.67147e-06,4
-2.98964e-05,9.45082e-06,-5.49953e-05,0.000268497,3.90007e-05,-1.16942e-05,-2.83208e-06,-5.60669e-06,4
-2.61389e-05,1.36437e-05,-2.84053e-05,-0.000227751,3.96358e-05,-9.91532e-06,-1.14785e-05,-6.54936e-06,4
-2.31986e-05,1.79481e-05,2.26505e-05,-0.000321664,4.0375e-05,-8.35258e-06,3.14618e-06,-6.77662e-06,4
-2.07521e-05,2.09491e-05,9.6842e-05,-5.4522e-05,4.15742e-05,-8.54775e-06,1.2811e-05,-6.14948e-06,4
-1.95796e-05,2.41311e-05,0.000167939,0.000231706,3.8117e-05,-9.71331e-06,-8.53818e-06,-5.28851e-06,4
-1.99838e-05,2.69034e-05,0.000196427,0.000278449,2.7473e-05,-7.65364e-06,-5.36658e-05,-4.8373e-06,4
-2.19044e-05,2.50663e-05,0.000163081,4.03329e-05,1.59628e-05,-4.32996e-07,-8.82838e-05,-5.05813e-06,4
-2.50344e-05,1.86109e-05,8.96689e-05,-0.000291314,1.10409e-05,8.05725e-06,-8.82379e-05,-5.77345e-06,4
-2.83132e-05,1.35914e-05,2.68568e-05,-0.000529105,1.17952e-05,1.28243e-05,-4.18634e-05,-7.12243e-06,4
-2.9567e-05,1.29563e-05,1.73172e-06,-0.000696791,1.39173e-05,9.73462e-06,3.96591e-05,-7.65565e-06,4
-2.88326e-05,1.4205e-05,1.44111e-06,-0.000737134,1.52382e-05,1.35316e-06,7.89918e-05,-6.61738e-06,4
-2.65002e-05,1.51073e-05,4.43205e-06,-0.000530432,1.51544e-05,-5.36315e-06,-1.08667e-05,-5.4447e-06,4
-2.49521e-05,1.5035e-05,2.6007e-06,-0.000118901,1.67079e-05,-7.97498e-06,-0.00016577,-4.75615e-06,4
-2.44569e-05,1.60492e-05,-2.02083e-06,0.000269882,2.04268e-05,-7.52285e-06,-0.000209676,-3.46583e-06,4
-2.26058e-05,1.83839e-05,-7.83753e-06,0.000233683,2.07114e-05,-5.36634e-06,-6.661e-05,-3.26508e-06,4
-2.02522e-05,1.88287e-05,-1.54591e-05,-0.000107609,1.42046e-05,-3.18564e-06,0.000116486,-5.14473e-06,4
-2.03433e-05,1.69591e-05,-2.6114e-05,-0.000284732,8.36234e-06,-2.45835e-06,0.000166348,-4.88639e-06,4
-2.25365e-05,1.36896e-05,-3.73321e-05,-0.000205903,8.11747e-06,-3.40321e-06,0.000108683,2.64199e-06,4
-2.42748e-05,9.29419e-06,-4.45935e-05,6.84945e-05,8.04271e-06,-8.0203e-06,8.04309e-05,1.42645e-05,4
-2.4634e-05,6.7947e-06,-4.82079e-05,0.000338333,1.13775e-05,-1.44284e-05,0.00016222,2.17948e-05,4
-2.26317e-05,7.98197e-06,-4.83433e-05,0.000447208,2.39889e-05,-1.76078e-05,0.000272425,2.2667e-05,4
-1.95657e-05,1.17013e-05,-4.76044e-05,0.00042842,3.94769e-05,-1.48388e-05,0.000224369,1.97951e-05,4
-1.72429e-05,1.56146e-05,-4.28424e-05,0.000207053,4.8423e-05,-9.21564e-06,-2.73034e-05,1.52469e-05,4
-1.60345e-05,1.91065e-05,-2.75229e-05,-0.000449621,5.07234e-05,-5.68029e-06,-0.000272201,1.00314e-05,4
-1.70845e-05,2.08134e-05,-1.36584e-05,-0.00113049,4.67257e-05,-6.16838e-06,-0.000359065,2.8045e-06,4
-2.29605e-05,1.71041e-05,-1.6401e-05,-0.00098894,3.07803e-05,-1.14078e-05,-0.000289719,-5.79595e-06,4
-3.45519e-05,7.45076e-06,-3.19902e-05,-0.000119507,1.13067e-06,-2.25055e-05,-8.76213e-05,-1.23321e-05,4
-4.5739e-05,-1.24873e-06,-4.49471e-05,0.000462974,-3.01101e-05,-3.23037e-05,0.00010315,-1.56247e-05,4
-4.86679e-05,-1.29367e-06,-4.5482e-05,0.00024646,-4.07341e-05,-2.88518e-05,0.000126727,-1.42741e-05,4
-4.33218e-05,4.30222e-06,-4.03621e-05,-2.32038e-06,-1.96022e-05,-1.55923e-05,2.84431e-05,-6.35768e-06,4
-3.7175e-05,7.483e-06,-4.18083e-05,0.000411345,2.16111e-05,-6.84937e-06,-7.77388e-05,7.14084e-06,4
-3.60792e-05,4.1457e-06,-4.71494e-05,0.00116624,5.61002e-05,-8.91733e-06,-0.000164655,1.81022e-05,4
-3.98792e-05,-2.30995e-06,-4.36958e-05,0.00165257,6.02303e-05,-1.78676e-05,-0.000189646,1.93017e-05,4
-4.54897e-05,-6.32818e-06,-2.87405e-05,0.00167021,3.32921e-05,-2.57238e-05,-8.7023e-05,1.11104e-05,4
-5.0291e-05,-5.92942e-06,-9.83375e-06,0.00123588,-4.43742e-06,-2.71584e-05,0.000119002,3.45987e-07,4
-5.30981e-05,-4.33748e-06,9.54155e-06,0.000493862,-3.45335e-05,-2.61476e-05,0.000337318,-5.92319e-06,4
-5.40101e-05,-4.53183e-06,2.04471e-05,-0.000113183,-5.34928e-05,-2.84429e-05,0.000469615,-6.98141e-06,4
-5.32841e-05,-4.63259e-06,1.2696e-05,-0.000227143,-6.40421e-05,-3.17195e-05,0.000376565,-7.20538e-06,4
-4.84164e-05,-3.30502e-07,-6.87136e-06,-6.8465e-05,-5.72668e-05,-2.64328e-05,3.79081e-05,-1.15264e-05,4
-3.86938e-05,8.25167e-06,-2.63114e-05,-0.000219656,-2.3851e-05,-8.25751e-06,-0.000303854,-1.8606e-05,4
-2.94302e-05,1.64087e-05,-4.33887e-05,-0.000613657,1.51233e-05,1.16482e-05,-0.000378477,-2.16543e-05,4
-2.48358e-05,2.08399e-05,-5.47673e-05,-0.000712449,3.62851e-05,2.27639e-05,-0.000151983,-2.19169e-05,4
-2.49331e-05,2.08346e-05,-4.25756e-05,-0.000476188,3.38766e-05,2.08976e-05,6.04869e-05,-2.23158e-05,4
-2.70028e-05,2.02519e-05,-9.07463e-06,-0.000226781,1.56707e-05,9.27625e-06,7.56205e-05,-1.61114e-05,4
-2.83356e-05,2.17157e-05,2.45755e-05,-9.23637e-05,8.65382e-07,-1.96742e-06,8.53413e-05,-2.77164e-06,4
-2.64718e-05,2.44039e-05,5.20591e-05,-6.05222e-05,-5.76393e-07,-6.61198e-06,0.000216739,6.8032e-06,4
-2.29593e-05,2.7249e-05,6.80391e-05,-0.000171597,9.67831e-06,-6.60646e-06,0.000375734,8.28882e-06,4
-2.15885e-05,2.9627e-05,6.9879e-05,-0.000352741,2.12827e-05,-4.05273e-06,0.000319351,5.04731e-06,4
-2.06799e-05,3.14813e-05,6.10846e-05,-0.000436356,3.42244e-05,2.3929e-06,6.99517e-05,1.28508e-06,4
-1.87271e-05,3.2288e-05,4.79065e-05,-0.000347778,4.80935e-05,7.14451e-06,-0.000138753,-2.19065e-06,4
-1.62545e-05,3.05591e-05,3.3399e-05,-0.000177724,5.61363e-05,7.04851e-06,-0.000183028,-6.74428e-06,4
-1.54263e-05,2.70324e-05,2.17214e-05,-6.05342e-05,5.25909e-05,2.92487e-06,-9.52293e-05,-1.28479e-05,4
-1.66112e-05,2.49321e-05,1.89546e-05,-2.19798e-05,4.03993e-05,-1.34084e-06,-1.07014e-05,-1.89973e-05,4
-1.79251e-05,2.57951e-05,2.56169e-05,-6.55983e-05,3.22606e-05,-4.60978e-06,-1.88375e-05,-2.16181e-05,4
-1.80211e-05,2.83494e-05,3.59069e-05,-0.000207142,3.41765e-05,-7.97583e-06,-5.73125e-05,-2.02701e-05,4
-1.67645e-05,2.99524e-05,4.15229e-05,-0.000337768,4.39573e-05,-1.07031e-05,5.02854e-06,-1.554e-05,4
-1.41068e-05,3.14089e-05,4.19351e-05,-0.000304889,5.34224e-05,-1.00799e-05,0.000160411,-8.74176e-06,4
-1.05558e-05,3.38042e-05,3.76106e-05,-0.000212291,5.57621e-05,-4.35276e-06,0.000288714,-1.87647e-06,4
-9.73902e-06,3.38086e-05,2.2333e-05,-0.000362386,4.46395e-05,-1.5001e-06,0.000251497,3.87963e-06,4
-1.706e-05,2.67166e-05,-1.26946e-05,-0.000966253,1.68938e-05,-1.19054e-05,7.57671e-05,8.34329e-06,4
-3.22173e-05,1.24661e-05,-6.38292e-05,-0.00158887,-1.82832e-05,-3.21979e-05,-6.52668e-05,1.08123e-05,4
-4.47891e-05,-8.39011e-07,-0.000116112,-0.00121111,-3.66688e-05,-4.25902e-05,-5.53977e-05,1.21531e-05,4
-4.87979e-05,-7.49481e-06,-0.000157677,0.000300239,-3.31872e-05,-3.73009e-05,6.72545e-05,1.34716e-05,4
-5.03459e-05,-1.1963e-05,-0.000186826,0.00167658,-3.36033e-05,-3.12476e-05,0.000199449,1.48235e-05,4
-5.45004e-05,-1.85341e-05,-0.000196222,0.00193362,-5.13078e-05,-3.38336e-05,0.000209179,1.48323e-05,4
-5.85745e-05,-2.48223e-05,-0.000170514,0.00150072,-6.55309e-05,-4.04026e-05,6.86599e-05,1.31662e-05,4
-5.96269e-05,-2.61694e-05,-0.000106369,0.00123559,-6.38675e-05,-4.48198e-05,-0.000153621,1.06529e-05,4
-5.70276e-05,-2.08397e-05,-3.27637e-05,0.00111602,-5.71594e-05,-4.30424e-05,-0.000399654,7.52958e-06,4
-5.07264e-05,-9.71107e-06,1.45122e-05,0.000728413,-4.89708e-05,-3.1338e-05,-0.000534106,1.63722e-06,4
-4.1383e-05,1.92045e-06,4.07607e-05,0.000282842,-3.14055e-05,-1.43793e-05,-0.000411775,-4.84182e-06,4
-3.25734e-05,9.87534e-06,7.3859e-05,-5.98404e-05,-5.02962e-06,-1.33769e-08,-6.56855e-05,-9.00143e-06,4
-2.44512e-05,1.89189e-05,0.000111903,-0.000373331,2.272e-05,1.0259e-05,0.000288823,-1.24733e-05,4
-1.68714e-05,2.98939e-05,0.000126355,-0.000623459,4.44837e-05,1.45707e-05,0.000410135,-1.20375e-05,4
-1.30356e-05,3.73199e-05,0.00011489,-0.000746302,5.51151e-05,1.59961e-05,0.000210668,-3.71665e-06,4
-1.1969e-05,3.79955e-05,9.55958e-05,-0.000647994,5.96918e-05,1.69848e-05,-0.000105704,1.20101e-05,4
-1.23483e-05,3.51386e-05,7.65689e-05,-0.000491908,6.16398e-05,1.75952e-05,-0.000277558,2.4764e-05,4
-1.42506e-05,3.19969e-05,5.70159e-05,-0.000420813,5.97437e-05,1.44741e-05,-0.000250146,2.73427e-05,4
-1.93833e-05,2.69708e-05,3.68311e-05,-0.000416789,4.66305e-05,3.46213e-06,-0.000102182,1.96972e-05,4
-2.77482e-05,1.92771e-05,1.65773e-05,-0.000369245,2.12139e-05,-1.078e-05,8.54333e-05,5.77318e-06,4
-3.6385e-05,1.15223e-05,-1.72077e-06,-0.000184735,-3.11283e-06,-2.00601e-05,0.000186634,-8.79694e-06,4
-4.15441e-05,5.45203e-06,-1.54882e-05,9.48776e-05,-1.08536e-05,-1.95869e-05,0.00014311,-1.9215e-05,4
-4.31319e-05,-3.73518e-08,-2.64348e-05,0.000333042,-3.95192e-06,-1.38278e-05,5.04297e-05,-2.26439e-05,4
-4.3192e-05,-3.83948e-06,-3.58791e-05,0.000396429,6.35797e-06,-9.75055e-06,2.19168e-05,-1.924e-05,4
-4.07836e-05,-2.2119e-06,-4.12845e-05,0.000310124,2.03185e-05,-8.88356e-06,6.86619e-05,-9.6592e-06,4
-3.52528e-05,4.98992e-06,-4.13897e-05,0.000169765,4.14265e-05,-5.29545e-06,0.000132208,3.90004e-06,4
-2.88633e-05,1.29382e-05,-4.21065e-05,3.98365e-05,6.07523e-05,3.13255e-06,0.000159793,1.77647e-05,4
-2.66626e-05,1.70388e-05,-4.82839e-05,-0.000104492,6.26176e-05,9.85743e-06,0.00013666,2.36489e-05,4
-2.95208e-05,1.62549e-05,-5.83444e-05,-0.000237037,4.50828e-05,6.93889e-06,6.65295e-05,1.68759e-05,4
-3.43526e-05,1.26927e-05,-6.79181e-05,-0.000297777,2.28963e-05,-5.07692e-06,-5.77486e-05,8.84517e-07,4
-3.72901e-05,9.03625e-06,-7.37622e-05,-0.000273317,9.93844e-06,-1.77029e-05,-0.000185423,-1.62823e-05,4
-3.57728e-05,7.55676e-06,-7.24137e-05,-0.000283442,6.57319e-06,-2.145e-05,-0.000262204,-2.80069e-05,4
-3.05046e-05,9.04438e-06,-5.9695e-05,-0.000376563,1.19185e-05,-1.72227e-05,-0.000285361,-3.0357e-05,4
-2.47514e-05,1.22065e-05,-3.23213e-05,-0.000328293,2.43995e-05,-1.60048e-05,-0.000197006,-2.34408e-05,4
-2.27603e-05,1.28209e-05,-8.12799e-07,5.69682e-05,3.12495e-05,-2.28626e-05,1.87182e-05,-8.66584e-06,4
-2.4961e-05,9.43045e-06,1.17262e-05,0.000647597,2.31792e-05,-3.02733e-05,0.000240884,1.38748e-05,4
-2.87979e-05,3.82226e-06,4.17928e-06,0.00116548,8.11695e-06,-2.97032e-05,0.000332877,3.68637e-05,4
-3.33516e-05,1.74648e-07,-4.24198e-06,0.00101245,-6.29763e-06,-2.35128e-05,0.000249965,4.69055e-05,4
-3.68797e-05,7.34532e-07,-5.87858e-06,-6.09974e-05,-1.7594e-05,-1.99154e-05,0.000139607,4.68173e-05,4
-3.60048e-05,5.40393e-06,-6.72003e-07,-0.00093635,-2.26583e-05,-1.57575e-05,8.29428e-05,4.80757e-05,4
-3.11866e-05,1.14968e-05,5.00374e-06,-0.000767271,-1.93114e-05,-5.39033e-06,2.01801e-05,5.2633e-05,4
-2.61293e-05,1.32503e-05,9.61655e-07,-7.49309e-05,-8.72456e-06,5.36223e-06,-4.47546e-05,6.02145e-05,4
-2.40562e-05,1.09397e-05,-7.77167e-06,0.000392934,2.53116e-06,8.59631e-06,-8.05209e-05,6.19378e-05,4
-2.49921e-05,8.63604e-06,-1.0664e-06,0.000428199,1.01218e-05,2.7658e-06,-7.18562e-05,4.63193e-05,4
-2.57594e-05,1.11577e-05,2.73628e-05,0.000151832,1.499e-05,-5.25166e-06,-3.08353e-05,1.31388e-05,4
-2.30707e-05,1.75792e-05,5.38422e-05,-0.000256908,1.79779e-05,-9.19484e-06,1.65502e-05,-2.70303e-05,4
-1.77519e-05,2.37586e-05,5.61159e-05,-0.000548001,2.01871e-05,-6.04325e-06,4.78915e-05,-6.26128e-05,4
-1.30285e-05,2.71431e-05,3.56026e-05,-0.000529732,2.33124e-05,1.46414e-06,5.65547e-05,-8.48149e-05,4
-1.06078e-05,2.69198e-05,8.37729e-06,-0.000229234,2.76291e-05,7.19183e-06,2.63041e-05,-8.83351e-05,4
-1.0649e-05,2.50976e-05,-9.89035e-06,0.000133764,3.13749e-05,5.73956e-06,-6.37734e-05,-7.52533e-05,4
-1.30985e-05,2.32083e-05,-1.43502e-05,0.000340833,3.12527e-05,-2.11109e-06,-0.000224444,-5.41535e-05,4
-1.69679e-05,2.05856e-05,-1.52718e-05,0.000315204,2.77592e-05,-1.06694e-05,-0.000417655,-3.63007e-05,4
-1.97451e-05,1.73382e-05,-2.16083e-05,0.000124836,2.65008e-05,-1.63191e-05,-0.000514694,-2.63135e-05,4
-2.07866e-05,1.52453e-05,-2.738e-05,-7.08263e-05,3.01276e-05,-1.80609e-05,-0.000393878,-2.10404e-05,4
-2.07448e-05,1.36606e-05,-2.2387e-05,-0.000155131,3.21325e-05,-1.69481e-05,-0.00012565,-1.63504e-05,4
-2.0848e-05,1.27748e-05,-7.1319e-06,-9.59663e-05,2.68419e-05,-1.58006e-05,8.40355e-05,-1.12032e-05,4
-2.18882e-05,1.37479e-05,1.38925e-05,1.73607e-05,1.77012e-05,-1.62365e-05,0.000152625,-5.90951e-06,4
-2.15803e-05,1.61086e-05,4.08813e-05,-8.83581e-05,1.40541e-05,-1.65265e-05,0.000157735,1.60748e-06,4
-1.7993e-05,1.82778e-05,6.70912e-05,-0.000451525,2.11622e-05,-1.6006e-05,0.000206833,1.71639e-05,4
-1.29953e-05,2.06426e-05,7.47055e-05,-0.000588082,3.16082e-05,-1.22079e-05,0.000362407,3.72784e-05,4
-9.16246e-06,2.40641e-05,5.85175e-05,-0.000225619,3.3556e-05,-2.85704e-06,0.000523385,5.0211e-05,4
-7.56477e-06,2.74502e-05,3.36392e-05,0.000260342,2.41058e-05,7.28692e-06,0.000525963,5.4313e-05,4
-7.24679e-06,2.90822e-05,1.94593e-05,0.000459526,1.18398e-05,1.13536e-05,0.000400053,5.39979e-05,4
-8.6964e-06,2.76408e-05,2.44891e-05,0.000397323,4.13646e-06,6.24709e-06,0.000176789,5.66503e-05,4
-1.52803e-05,2.3181e-05,2.70823e-05,0.000302875,-2.22473e-06,-5.37808e-06,-8.0706e-05,5.91941e-05,4
-2.57665e-05,1.47373e-05,1.11181e-05,0.000368778,-8.66255e-06,-1.68466e-05,-0.000236801,5.08e-05,4
-3.42701e-05,4.37579e-06,-8.83724e-06,0.000384998,-1.09637e-05,-2.2032e-05,-0.000290864,2.92005e-05,4
-3.75736e-05,-1.54497e-06,-1.45133e-05,-1.95678e-05,-5.6266e-06,-2.05754e-05,-0.000250863,-2.47932e-06,4
-3.48996e-05,-2.06529e-09,-4.84341e-06,-0.000538984,4.55064e-06,-1.59075e-05,-0.00010505,-3.80213e-05,4
-2.87778e-05,5.94343e-06,6.21567e-07,-0.000629303,1.59662e-05,-9.49798e-06,4.33978e-05,-7.0817e-05,4
-2.38475e-05,1.19483e-05,-8.30012e-06,-0.000303541,2.88093e-05,-3.89586e-06,5.46832e-05,-8.8708e-05,4
-2.29891e-05,1.50295e-05,-2.40936e-05,-0.00010814,4.09004e-05,-1.4197e-06,-1.6459e-05,-8.27248e-05,4
-2.5907e-05,1.42165e-05,-3.71172e-05,-0.000335371,4.57369e-05,-8.36972e-07,-4.49502e-05,-5.89982e-05,4
-3.00592e-05,1.17315e-05,-4.43762e-05,-0.000459306,3.39327e-05,-1.5101e-06,-3.40425e-05,-3.52216e-05,4
-3.41825e-05,9.42861e-06,-4.90879e-05,2.43427e-05,1.01375e-05,-4.59409e-06,-6.14186e-05,-2.16939e-05,4
-3.73482e-05,6.46128e-06,-5.18158e-05,0.000831032,-5.95865e-06,-1.04648e-05,-0.000130298,-1.55333e-05,4
-4.15221e-05,2.88431e-06,-5.20222e-05,0.00126584,-7.79571e-06,-1.74531e-05,-0.000179143,-9.94508e-06,4
-4.77805e-05,-1.4271e-06,-5.29775e-05,0.000904864,-7.37721e-06,-2.16804e-05,-0.000123394,-1.96654e-06,4
-5.39704e-05,-6.56326e-06,-5.70768e-05,6.45338e-05,-1.0462e-05,-2.23662e-05,9.80114e-05,5.86771e-06,4
-5.62011e-05,-9.49266e-06,-6.07461e-05,-0.000495153,-1.0148e-05,-2.13461e-05,0.000395954,1.06651e-05,4
-5.31835e-05,-8.11142e-06,-6.14462e-05,-0.000518596,-2.98723e-06,-1.88904e-05,0.000534753,1.09731e-05,4
-4.76698e-05,-3.2438e-06,-6.17692e-05,-0.000380348,4.84879e-06,-1.25644e-05,0.000375202,9.13215e-06,4
-4.33105e-05,1.20676e-06,-6.29206e-05,-0.000330205,8.21412e-06,-2.63867e-06,8.54136e-05,8.23612e-06,4
-4.22964e-05,1.62982e-06,-5.9726e-05,-0.000320308,8.45655e-06,2.0087e-06,-8.7708e-05,8.51694e-06,4
-4.2951e-05,-7.29541e-07,-4.58953e-05,-0.000258877,8.39757e-06,-5.9401e-06,-7.97612e-05,7.93317e-06,4
-4.31333e-05,-1.2192e-06,-2.26226e-05,-7.47131e-05,7.97298e-06,-1.8606e-05,-3.83048e-06,6.69592e-06,4
-4.17975e-05,1.58062e-06,-2.03993e-06,0.000160242,8.5237e-06,-2.13214e-05,3.31201e-05,6.60498e-06,4
-3.9268e-05,6.54253e-06,8.93162e-06,0.000253796,1.52545e-05,-1.03247e-05,9.77968e-06,9.17486e-06,4
-3.51427e-05,1.23626e-05,1.7932e-05,0.000183363,2.80104e-05,5.23367e-06,-2.9012e-05,1.18873e-05,4
-3.10047e-05,1.81332e-05,2.64883e-05,9.83815e-05,3.8204e-05,1.20675e-05,-4.50652e-05,1.37252e-05,4
-3.0343e-05,2.28854e-05,2.26801e-05,7.19535e-05,3.77321e-05,7.97817e-06,-3.10302e-05,1.73824e-05,4
-3.282e-05,2.22097e-05,4.52422e-06,7.06985e-05,2.40453e-05,2.91537e-06,5.27882e-07,2.15768e-05,4
-3.63796e-05,1.78413e-05,-7.7928e-06,5.26359e-05,4.63426e-06,-1.61946e-07,1.27341e-05,2.25616e-05,4
-3.81156e-05,1.56573e-05,-3.35244e-06,2.00844e-05,-4.10126e-06,-4.90213e-06,-2.64187e-05,1.76536e-05,4
-3.58895e-05,1.76635e-05,5.37505e-06,-4.10343e-05,3.44217e-06,-8.36957e-06,-8.38642e-05,1.25096e-05,4
-3.42001e-05,2.02773e-05,7.472e-06,-0.000131823,1.48824e-05,-9.79369e-06,-0.000119595,1.35697e-05,4
-3.53263e-05,1.95153e-05,6.88938e-06,-0.000252177,2.03091e-05,-1.52386e-05,-0.000160465,1.68614e-05,4
-3.80141e-05,1.74728e-05,1.44134e-05,-0.000294868,1.97326e-05,-2.46232e-05,-0.000161056,1.94933e-05,4
-3.93355e-05,1.67292e-05,2.47506e-05,-0.000125399,1.42072e-05,-3.11463e-05,-7.83118e-05,2.21872e-05,4
-3.63372e-05,1.75729e-05,2.33849e-05,6.36232e-06,1.13003e-05,-3.13802e-05,-8.24478e-06,2.61703e-05,4
-3.14916e-05,1.72591e-05,7.86768e-06,-6.88784e-05,1.66718e-05,-2.66487e-05,2.3901e-06,3.00885e-05,4
-2.77584e-05,1.6262e-05,-9.52355e-06,-0.000155706,2.44669e-05,-2.00376e-05,5.60104e-05,3.32833e-05,4
-2.49405e-05,1.77902e-05,-1.53567e-05,-6.73101e-05,3.00296e-05,-9.48559e-06,0.0001795,3.38783e-05,4
-2.07188e-05,2.19341e-05,-1.12837e-05,4.11383e-05,3.47893e-05,6.28949e-06,0.000256797,2.78605e-05,4
-1.67031e-05,2.53042e-05,-7.5198e-06,-0.000137171,4.14658e-05,1.94168e-05,0.000218611,1.59178e-05,4
-1.55418e-05,2.60858e-05,-8.70054e-06,-0.000353897,4.93995e-05,2.20522e-05,0.000123041,2.72907e-06,4
-1.6893e-05,2.51743e-05,-1.31282e-05,-0.0001715,5.3626e-05,1.55496e-05,5.44897e-05,-7.32928e-06,4
