ch1,ch2,ch3,ch4,ch5,ch6,ch7,ch8,class
-2.05593e-05,1.67663e-05,-9.67277e-06,-0.000332994,2.62241e-05,2.0728e-06,-0.000237239,1.10579e-05,4
-2.4949e-05,1.49766e-05,-1.08967e-05,-0.000348675,1.85234e-05,-9.26848e-06,-4.52784e-05,1.04007e-05,4
-3.08761e-05,1.22588e-05,-1.53736e-05,-0.000301191,6.27705e-06,-2.2077e-05,9.77766e-05,1.31468e-05,4
-3.18754e-05,1.13732e-05,-1.50885e-05,-0.000232688,4.26303e-07,-2.61996e-05,7.13443e-05,1.46556e-05,4
-2.83223e-05,1.21863e-05,-9.24043e-06,-0.000196752,2.77337e-06,-2.49523e-05,-2.72559e-05,1.35793e-05,4
-2.75692e-05,1.19814e-05,-2.721e-06,-0.00016797,4.22924e-06,-2.48059e-05,-7.84606e-05,1.26026e-05,4
-2.90357e-05,1.19288e-05,1.44827e-06,-5.20512e-05,4.61341e-06,-2.40471e-05,-3.52168e-05,1.11899e-05,4
-2.89109e-05,1.28803e-05,3.24867e-06,0.000102243,6.11078e-06,-2.06908e-05,6.94338e-05,9.82831e-06,4
-2.80983e-05,1.42141e-05,3.78267e-06,0.00017304,7.35363e-06,-1.63951e-05,0.00014727,9.58878e-06,4
-2.71943e-05,1.52843e-05,4.56987e-06,0.000153237,8.18354e-06,-1.32392e-05,0.000146929,1.0681e-05,4
-2.72343e-05,1.67826e-05,6.82681e-06,0.000141173,1.0325e-05,-1.16051e-05,0.000109221,1.60089e-05,4
-2.76279e-05,1.76366e-05,8.91603e-06,0.000148121,1.29316e-05,-1.18098e-05,0.000110072,2.72392e-05,4
-2.89801e-05,1.71788e-05,8.04895e-06,0.000101101,1.11244e-05,-1.49106e-05,0.00014134,3.78803e-05,4
-3.08891e-05,1.69184e-05,4.9145e-06,-1.76395e-05,5.646e-06,-1.83635e-05,0.000123629,4.16112e-05,4
-3.15658e-05,1.8325e-05,1.0035e-06,-0.000106071,2.67379e-06,-1.84109e-05,4.82303e-05,3.96917e-05,4
-2.9996e-05,2.00848e-05,-4.65584e-07,-0.000128739,6.86869e-06,-1.49747e-05,-2.02243e-05,3.24416e-05,4
-2.86335e-05,1.83552e-05,1.86427e-06,-0.000169382,1.51044e-05,-1.27204e-05,-4.49978e-05,1.8431e-05,4
-2.95384e-05,1.41667e-05,6.38691e-06,-0.000200401,2.18148e-05,-1.58701e-05,-4.20795e-05,-1.54671e-06,4
-3.12505e-05,1.1682e-05,9.9439e-06,-9.51825e-05,2.33046e-05,-2.13044e-05,-3.53984e-05,-2.30877e-05,4
-3.10138e-05,1.28658e-05,1.02357e-05,6.95155e-05,2.1085e-05,-2.28524e-05,-2.84186e-05,-4.16986e-05,4
-2.74843e-05,1.73094e-05,7.90929e-06,8.83866e-05,2.06158e-05,-1.8792e-05,-1.64513e-05,-5.29863e-05,4
-2.2419e-05,2.29643e-05,6.19362e-06,-3.7659e-06,2.57612e-05,-1.22885e-05,1.4897e-06,-5.29145e-05,4
-1.98742e-05,2.56608e-05,7.62025e-06,-2.03128e-05,3.14901e-05,-5.96874e-06,1.50689e-05,-4.12256e-05,4
-2.26636e-05,2.37436e-05,1.46827e-05,-4.49547e-05,2.96057e-05,-4.03705e-06,2.17837e-05,-2.33524e-05,4
-3.04339e-05,1.744e-05,2.00894e-05,-0.000232711,1.83531e-05,-1.00065e-05,2.55437e-05,-6.46836e-06,4
-3.82531e-05,1.075e-05,1.39435e-05,-0.000394597,6.45556e-06,-1.66957e-05,3.17505e-05,5.03988e-06,4
-3.91944e-05,7.91482e-06,-5.44259e-06,-0.000436684,6.87457e-06,-1.30655e-05,4.17092e-05,8.73412e-06,4
-3.43591e-05,9.70495e-06,-2.52055e-05,-0.000389581,1.92269e-05,-2.96842e-06,4.98772e-05,2.11141e-06,4
-2.9957e-05,1.31159e-05,-3.50281e-05,-0.000167439,2.65624e-05,2.1559e-06,4.68774e-05,-1.34044e-05,4
-2.79978e-05,1.47075e-05,-3.84712e-05,0.000133926,1.52283e-05,1.52957e-06,3.22769e-05,-3.0458e-05,4
-2.63532e-05,1.46292e-05,-3.59002e-05,0.000309844,-4.69435e-06,2.3191e-06,1.79591e-05,-4.03758e-05,4
-2.52708e-05,1.2682e-05,-3.36671e-05,0.000305288,-1.51241e-05,5.75996e-06,6.56761e-06,-4.11678e-05,4
-2.5327e-05,9.10721e-06,-3.48372e-05,0.000193191,-1.23837e-05,7.55601e-06,-3.99993e-06,-3.5432e-05,4
-2.51253e-05,6.21215e-06,-3.77353e-05,6.47635e-05,-3.57958e-06,7.18444e-06,-1.7441e-05,-2.56111e-05,4
-2.55751e-05,5.55495e-06,-3.78926e-05,8.60421e-05,4.62763e-06,4.23914e-06,-3.04077e-05,-1.68855e-05,4
-2.77195e-05,4.89023e-06,-3.00038e-05,0.000280619,9.6952e-06,-2.01424e-06,-2.45173e-05,-1.14473e-05,4
-3.18517e-05,4.15534e-06,-1.52348e-05,0.00046042,9.21392e-06,-1.12178e-05,2.47058e-07,-6.39763e-06,4
-3.6281e-05,4.45422e-06,-7.05491e-07,0.000482813,3.85089e-06,-1.8527e-05,2.028e-05,-9.99939e-07,4
-3.79263e-05,6.37983e-06,8.22649e-06,0.000352907,-1.52764e-08,-1.89974e-05,1.77964e-05,2.56532e-06,4
-3.67944e-05,9.71849e-06,1.17415e-05,0.000158321,9.4579e-07,-1.4613e-05,1.03751e-06,4.9308e-06,4
-3.49014e-05,1.25606e-05,1.26658e-05,-1.87359e-05,4.53343e-06,-1.02587e-05,-7.90048e-06,8.18653e-06,4
-3.34874e-05,1.56142e-05,1.48582e-05,-0.000100746,6.90478e-06,-9.15915e-06,8.07858e-06,1.34794e-05,4
-3.15502e-05,2.00324e-05,2.06086e-05,-0.000113939,7.45758e-06,-9.41681e-06,4.50986e-05,1.90061e-05,4
-2.89924e-05,2.343e-05,2.56024e-05,-0.000143716,8.14095e-06,-8.41764e-06,7.68206e-05,2.16662e-05,4
-2.6159e-05,2.39567e-05,2.15377e-05,-0.000199119,1.02763e-05,-6.01891e-06,8.0722e-05,2.17064e-05,4
-2.34001e-05,2.38965e-05,1.09972e-05,-0.000221783,1.3591e-05,-4.63126e-06,5.93485e-05,2.1212e-05,4
-2.24194e-05,2.5023e-05,3.48331e-06,-0.000322478,1.8049e-05,-4.82569e-06,2.90681e-05,2.04559e-05,4
-2.34484e-05,2.60635e-05,3.88988e-06,-0.000665148,2.2315e-05,-4.99037e-06,1.4159e-06,1.85142e-05,4
-2.5969e-05,2.36808e-05,7.46882e-06,-0.000941122,2.30629e-05,-5.77317e-06,-1.57503e-05,1.53552e-05,4
-2.9412e-05,1.87387e-05,8.74102e-06,-0.00060516,1.90124e-05,-8.914e-06,-1.89076e-05,1.23618e-05,4
-3.16681e-05,1.36703e-05,6.79274e-06,0.000150282,1.28801e-05,-1.40661e-05,-1.13732e-05,1.14052e-05,4
-3.23845e-05,8.86605e-06,2.02311e-06,0.000573185,9.00244e-06,-1.73079e-05,-4.07996e-06,1.19537e-05,4
-3.24084e-05,8.0076e-06,-6.48098e-06,0.000481394,9.54819e-06,-1.46074e-05,1.6719e-06,1.29343e-05,4
-3.31993e-05,1.03168e-05,-1.90814e-05,0.00035651,1.37403e-05,-7.78247e-06,9.4598e-06,1.49924e-05,4
-3.54108e-05,9.98873e-06,-3.05853e-05,0.000454864,1.83783e-05,-3.16927e-06,8.66396e-06,1.70838e-05,4
-3.66969e-05,6.99566e-06,-3.37673e-05,0.000576349,2.36978e-05,-4.26642e-06,-2.13952e-05,1.73781e-05,4
-3.47961e-05,7.85362e-06,-2.61476e-05,0.000668289,3.07973e-05,-8.36312e-06,-7.90328e-05,1.67333e-05,4
-3.12241e-05,1.28706e-05,-1.26137e-05,0.00079889,3.68105e-05,-1.15473e-05,-0.000121156,1.55464e-05,4
-2.94639e-05,1.65548e-05,-1.56589e-06,0.000623411,3.91961e-05,-1.39372e-05,-0.000111805,1.45326e-05,4
-2.98495e-05,1.88201e-05,7.25606e-06,8.66862e-05,3.86566e-05,-1.51333e-05,-7.121e-05,1.48989e-05,4
-3.12963e-05,1.94689e-05,1.13448e-05,-0.00023398,3.24446e-05,-1.66588e-05,-3.29937e-05,1.66499e-05,4
-3.55941e-05,1.58322e-05,6.18201e-06,-0.000125608,1.66145e-05,-2.09677e-05,5.34747e-06,1.91014e-05,4
-4.22827e-05,9.49528e-06,-3.13405e-06,0.00014375,-1.85743e-06,-2.70435e-05,5.94047e-05,1.93573e-05,4
-4.64865e-05,4.53854e-06,-8.67095e-06,0.000284495,-1.15965e-05,-3.24233e-05,0.000112342,1.79581e-05,4
-4.69644e-05,4.07339e-06,-7.13357e-06,0.00019939,-9.04631e-06,-3.34409e-05,0.000139876,1.91706e-05,4
-4.46087e-05,7.66842e-06,-2.36052e-06,3.62748e-05,-1.02259e-06,-2.84921e-05,0.000139486,2.59596e-05,4
-4.07626e-05,1.25968e-05,-1.03244e-06,-0.000141326,6.60624e-06,-1.89695e-05,0.000104247,3.58211e-05,4
-3.62096e-05,1.57477e-05,-8.82327e-06,-0.000411152,1.41465e-05,-6.64105e-06,5.65299e-05,4.16825e-05,4
-3.21249e-05,1.6398e-05,-2.16623e-05,-0.000637175,2.00507e-05,7.91385e-06,4.02551e-05,3.96358e-05,4
-2.80221e-05,1.78929e-05,-2.86516e-05,-0.000568801,2.09755e-05,2.12662e-05,4.59546e-05,3.20135e-05,4
-2.32034e-05,2.10971e-05,-2.34491e-05,-0.000239861,1.86206e-05,2.74058e-05,4.48878e-05,2.37293e-05,4
-2.00559e-05,2.25632e-05,-1.2328e-05,5.43838e-05,1.68059e-05,2.44789e-05,3.66794e-05,1.60023e-05,4
-2.08016e-05,2.02585e-05,-4.4902e-06,0.000129041,1.51471e-05,1.54386e-05,1.06348e-05,7.61127e-06,4
-2.45255e-05,1.69763e-05,-1.58153e-06,4.27121e-05,1.28427e-05,4.09829e-06,-3.75324e-05,-1.96156e-06,4
-2.63064e-05,1.52038e-05,4.02998e-07,-1.52349e-05,1.1854e-05,-3.80422e-06,-6.75467e-05,-8.70829e-06,4
-2.46189e-05,1.62208e-05,3.93026e-06,1.22403e-05,1.37548e-05,-5.43849e-06,-5.2762e-05,-6.21675e-06,4
-2.38755e-05,1.86777e-05,7.74617e-06,6.94339e-05,1.75611e-05,-4.388e-06,-1.78556e-05,2.3476e-06,4
-2.6376e-05,1.81704e-05,5.45347e-06,0.000134608,1.99754e-05,-5.28103e-06,1.13065e-05,6.37057e-06,4
-3.09557e-05,1.28139e-05,-5.22056e-06,0.000177858,1.58826e-05,-9.57533e-06,1.81518e-05,1.74163e-06,4
-3.5457e-05,7.63242e-06,-1.68243e-05,0.000138146,7.94017e-06,-1.35972e-05,-1.07521e-06,-7.31147e-06,4
-3.76318e-05,4.31346e-06,-2.33624e-05,6.42395e-05,1.71298e-06,-1.63811e-05,-3.79872e-06,-1.62114e-05,4
-3.81365e-05,3.2361e-06,-2.3516e-05,-5.12025e-05,-1.36457e-06,-1.72096e-05,2.10878e-05,-2.04792e-05,4
-3.85705e-05,5.78502e-06,-2.15115e-05,-0.000367931,-7.7345e-06,-1.74055e-05,3.83365e-05,-1.78367e-05,4
-4.02189e-05,6.24466e-06,-2.28666e-05,-0.000593474,-2.12991e-05,-2.06812e-05,4.67067e-05,-1.43484e-05,4
-4.03943e-05,5.07663e-06,-2.52864e-05,-0.000351232,-2.44944e-05,-2.35007e-05,4.0051e-05,-1.70479e-05,4
-3.86277e-05,4.76545e-06,-2.34491e-05,4.48763e-05,-8.2921e-06,-2.18983e-05,-3.59964e-07,-2.4075e-05,4
-3.57104e-05,4.99187e-06,-1.82128e-05,0.000120976,1.36425e-05,-1.79971e-05,-5.44193e-05,-3.00714e-05,4
-3.13405e-05,6.7847e-06,-1.36211e-05,-0.000101082,2.77208e-05,-1.33328e-05,-6.87112e-05,-3.63604e-05,4
-2.81584e-05,8.6897e-06,-1.18042e-05,-0.000256993,2.94953e-05,-8.60476e-06,-2.39668e-05,-4.04525e-05,4
-2.70611e-05,9.23026e-06,-1.10478e-05,-0.000187555,2.32405e-05,-6.46156e-06,7.12317e-05,-3.81163e-05,4
-2.69611e-05,9.91684e-06,-8.294e-06,-7.30044e-05,1.91587e-05,-6.22617e-06,0.000185767,-3.17465e-05,4
-2.64302e-05,1.18291e-05,-4.18755e-06,-0.000167394,2.20548e-05,-5.95808e-06,0.00022602,-2.64146e-05,4
-2.60203e-05,1.35456e-05,-3.10562e-06,-0.000415286,2.57136e-05,-5.70509e-06,0.00014281,-2.33243e-05,4
-2.57317e-05,1.44599e-05,-6.30811e-06,-0.000517022,2.47966e-05,-4.78907e-06,1.50188e-05,-2.01511e-05,4
-2.43663e-05,1.59734e-05,-1.02394e-05,-0.00043649,2.31587e-05,-2.16582e-06,-5.25389e-05,-1.75863e-05,4
-2.23374e-05,1.79397e-05,-1.29816e-05,-0.000359026,2.59606e-05,7.82893e-07,-5.23413e-05,-1.67332e-05,4
-2.18808e-05,1.78542e-05,-1.61324e-05,-0.000307133,3.14844e-05,1.81813e-06,-4.21094e-05,-1.54415e-05,4
-2.33123e-05,1.54351e-05,-1.83753e-05,-0.000132921,3.52793e-05,-8.8226e-07,-5.09693e-05,-9.91811e-06,4
-2.47816e-05,1.26022e-05,-1.66327e-05,0.000132101,3.4818e-05,-6.6431e-06,-6.48614e-05,-1.90856e-06,4
-2.67131e-05,1.07459e-05,-1.2912e-05,0.000318682,3.00918e-05,-1.19118e-05,-5.9179e-05,2.84195e-06,4
-3.00234e-05,9.50112e-06,-1.33391e-05,0.000366417,2.08392e-05,-1.37809e-05,-2.29152e-05,1.29336e-06,4
-3.35925e-05,7.40094e-06,-2.05364e-05,0.000351331,8.33897e-06,-1.30905e-05,2.43856e-05,-3.28684e-06,4
-3.57043e-05,4.15963e-06,-3.04482e-05,0.000334138,-3.44634e-06,-1.21604e-05,5.43037e-05,-6.48596e-06,4
-3.56568e-05,2.47689e-06,-3.48808e-05,0.000287953,-9.47209e-06,-1.29675e-05,5.84772e-05,-2.33201e-06,4
-3.33916e-05,4.40539e-06,-2.88808e-05,0.000171805,-5.51947e-06,-1.49162e-05,3.17137e-05,1.28779e-05,4
-2.99524e-05,8.18429e-06,-1.70385e-05,-2.80767e-05,4.72118e-06,-1.56867e-05,-2.96569e-05,3.42417e-05,4
-2.68329e-05,1.05e-05,-6.73588e-06,-0.000287443,1.28963e-05,-1.31739e-05,-0.000104467,5.39381e-05,4
-2.51779e-05,1.17276e-05,2.4712e-06,-0.000545041,1.75483e-05,-9.93518e-06,-0.000171408,6.87804e-05,4
-2.45133e-05,1.41755e-05,1.47722e-05,-0.000502668,1.90809e-05,-1.09208e-05,-0.000213273,7.65077e-05,4
-2.3728e-05,1.63669e-05,2.51296e-05,-7.22282e-05,1.98553e-05,-1.22248e-05,-0.000173084,7.83525e-05,4
-2.36594e-05,1.71591e-05,2.49465e-05,0.000316426,2.17837e-05,-1.18332e-05,-2.67379e-05,7.28978e-05,4
-2.34467e-05,1.68511e-05,1.81422e-05,0.000421352,2.05822e-05,-1.30217e-05,0.000119925,5.41408e-05,4
-2.23902e-05,1.6085e-05,1.39137e-05,0.000322895,1.60964e-05,-1.50063e-05,0.000200511,2.42841e-05,4
-2.14919e-05,1.49958e-05,1.30682e-05,0.000263695,1.27418e-05,-1.59933e-05,0.000237675,-1.30274e-05,4
-2.13167e-05,1.38155e-05,9.85214e-06,0.000305005,1.32359e-05,-1.55116e-05,0.000212156,-5.44659e-05,4
-2.20927e-05,1.33385e-05,4.90618e-06,0.000309354,1.54493e-05,-1.25231e-05,0.000133406,-9.56134e-05,4
-2.2897e-05,1.35963e-05,5.73633e-06,0.00026142,1.85276e-05,-8.59959e-06,5.45962e-05,-0.000127846,4
-2.27998e-05,1.49367e-05,1.42603e-05,0.000285181,2.15071e-05,-6.49135e-06,1.78904e-05,-0.000138219,4
-2.31482e-05,1.63365e-05,2.50007e-05,0.000403132,2.3074e-05,-7.92245e-06,1.51237e-05,-0.000119895,4
-2.41397e-05,1.75121e-05,3.04997e-05,0.000482827,2.18299e-05,-1.13721e-05,1.60999e-05,-8.42182e-05,4
-2.45132e-05,1.7961e-05,2.89317e-05,0.000484293,1.76097e-05,-1.36492e-05,8.482e-06,-5.16416e-05,4
-2.49554e-05,1.71603e-05,2.33741e-05,0.000432771,1.30174e-05,-1.40924e-05,-5.12097e-06,-3.134e-05,4
-2.64539e-05,1.50403e-05,1.70703e-05,0.000399771,1.131e-05,-1.36936e-05,-2.37888e-05,-1.91152e-05,4
-2.79616e-05,1.27954e-05,1.24905e-05,0.000451684,1.34045e-05,-1.47253e-05,-4.5347e-05,-9.99446e-06,4
-2.85501e-05,1.20032e-05,1.22326e-05,0.00057482,1.60089e-05,-1.89482e-05,-4.33682e-05,-3.39577e-06,4
-2.83585e-05,1.20122e-05,1.43609e-05,0.00052202,1.81323e-05,-2.49659e-05,-2.07752e-06,-4.87948e-07,4
-2.74406e-05,1.05205e-05,9.55751e-06,8.40359e-05,1.77976e-05,-2.71303e-05,6.32823e-05,3.11599e-07,4
-2.82159e-05,6.74385e-06,-5.79776e-06,-0.000500337,1.23942e-05,-2.31734e-05,0.000119705,1.92014e-06,4
-3.24655e-05,2.62583e-06,-2.34372e-05,-0.000864344,3.07494e-06,-1.78305e-05,0.000135409,4.06128e-06,4
-3.81332e-05,-4.19706e-07,-3.45862e-05,-0.00107107,-4.81332e-06,-1.49593e-05,8.87583e-05,5.98607e-06,4
-4.14858e-05,-1.98178e-06,-3.77597e-05,-0.00120278,-7.22961e-06,-1.28989e-05,-1.45371e-08,7.12531e-06,4
-4.04899e-05,-9.43978e-07,-3.79657e-05,-0.00114259,-4.26034e-06,-8.81123e-06,-8.25753e-05,7.398e-06,4
-3.61699e-05,3.327e-06,-3.99186e-05,-0.0008569,2.30684e-06,-2.55617e-07,-0.00013309,8.45329e-06,4
-3.25863e-05,6.67196e-06,-4.42878e-05,-0.00047917,8.64982e-06,7.81735e-06,-0.000155963,1.26602e-05,4
-3.08741e-05,8.13861e-06,-4.86623e-05,-0.00019611,1.25484e-05,9.10417e-06,-0.000119603,2.30397e-05,4
-2.82196e-05,9.35376e-06,-4.62643e-05,-5.60379e-05,1.88798e-05,9.7815e-06,3.14768e-06,4.01951e-05,4
-2.43489e-05,1.17075e-05,-3.71954e-05,2.97556e-05,2.82365e-05,1.42227e-05,0.000117963,5.48753e-05,4
-2.21947e-05,1.32305e-05,-2.96294e-05,0.000149637,3.10903e-05,1.46153e-05,0.000130032,5.89556e-05,4
-2.29384e-05,1.29374e-05,-2.49588e-05,0.00027402,2.54453e-05,8.74028e-06,7.97316e-05,5.413e-05,4
-2.33369e-05,1.31876e-05,-2.00496e-05,0.000416237,2.24787e-05,5.13568e-06,3.3127e-05,4.82303e-05,4
-2.30586e-05,1.43186e-05,-1.37984e-05,0.000498156,2.4528e-05,4.56528e-06,1.47786e-05,4.58702e-05,4
-2.42534e-05,1.52702e-05,-1.02098e-05,0.000367795,2.55755e-05,2.25417e-06,2.02585e-05,5.03294e-05,4
-2.57559e-05,1.50023e-05,-9.62055e-06,5.33857e-06,2.43363e-05,-1.73286e-06,3.32242e-05,6.12715e-05,4
-2.71123e-05,1.47991e-05,-6.59954e-06,-0.00027112,2.02952e-05,-5.64057e-06,5.38195e-05,6.88175e-05,4
-2.91035e-05,1.37007e-05,-4.33368e-07,-0.000149724,1.3036e-05,-1.00239e-05,8.01222e-05,6.43739e-05,4
-3.1956e-05,1.25862e-05,5.03089e-06,0.000186488,4.68143e-06,-1.54329e-05,9.46873e-05,4.71857e-05,4
-3.37401e-05,1.23358e-05,8.27102e-06,0.000314049,1.54078e-06,-1.95163e-05,7.69079e-05,2.55092e-05,4
-3.27537e-05,1.29776e-05,8.87711e-06,0.000139713,6.37369e-06,-2.03385e-05,3.22518e-05,6.78826e-06,4
-3.04814e-05,1.46152e-05,6.1122e-06,-1.98694e-05,1.54978e-05,-1.82469e-05,-7.7717e-06,-4.55269e-06,4
-2.87833e-05,1.6135e-05,2.5006e-06,2.74379e-05,2.17857e-05,-1.54831e-05,-1.49819e-05,-1.06911e-05,4
-2.81307e-05,1.58608e-05,1.69893e-07,0.000191779,2.04848e-05,-1.36998e-05,1.13491e-05,-1.8443e-05,4
-2.91637e-05,1.3653e-05,-2.17914e-06,0.000322392,1.22779e-05,-1.30921e-05,4.66207e-05,-3.13835e-05,4
-3.25271e-05,1.18056e-05,-7.18043e-06,0.000352363,2.86533e-06,-1.30492e-05,5.42019e-05,-4.8242e-05,4
-3.52919e-05,1.13974e-05,-1.30249e-05,0.00024043,-1.26345e-06,-1.24872e-05,2.12086e-05,-6.50712e-05,4
-3.39386e-05,1.24365e-05,-1.62137e-05,4.3479e-06,2.34071e-06,-1.04185e-05,-3.03557e-05,-7.57767e-05,4
-3.02323e-05,1.51024e-05,-1.63994e-05,-0.00026481,1.02028e-05,-6.89579e-06,-6.7993e-05,-7.38218e-05,4
-2.83884e-05,1.86727e-05,-1.643e-05,-0.000491389,1.77207e-05,-4.38029e-06,-7.94065e-05,-6.04517e-05,4
-2.79393e-05,2.04864e-05,-1.50874e-05,-0.000614801,2.37267e-05,-5.42616e-06,-7.99283e-05,-4.29512e-05,4
-2.63338e-05,1.96561e-05,-7.2052e-06,-0.000609795,2.84499e-05,-8.22033e-06,-8.28295e-05,-2.91194e-05,4
-2.46914e-05,1.81325e-05,6.9454e-06,-0.000563036,3.30151e-05,-9.89394e-06,-7.80796e-05,-2.07907e-05,4
-2.49514e-05,1.87142e-05,2.01174e-05,-0.000757169,3.46084e-05,-1.1547e-05,-5.30158e-05,-1.44234e-05,4
-2.62925e-05,2.10821e-05,2.6901e-05,-0.00125158,3.00163e-05,-1.12315e-05,-1.80849e-05,-9.53766e-06,4
-2.76178e-05,2.15082e-05,2.75635e-05,-0.00112447,2.47357e-05,-7.62588e-06,1.09538e-05,-5.82691e-06,4
-2.72169e-05,2.15436e-05,2.41494e-05,1.35844e-05,2.69755e-05,-2.6765e-06,3.80913e-05,-1.55949e-06,4
-2.49663e-05,2.23661e-05,1.72619e-05,0.00106243,3.22521e-05,2.98148e-06,5.73157e-05,1.85278e-06,4
-2.37869e-05,2.14271e-05,8.67269e-06,0.00135728,3.34075e-05,7.09178e-06,5.59587e-05,4.31207e-06,4
-2.62739e-05,1.84171e-05,3.48087e-07,0.00120119,2.94462e-05,5.9847e-06,4.04304e-05,5.41838e-06,4
-3.14229e-05,1.21491e-05,-1.04841e-05,0.000974956,1.93096e-05,-8.93373e-07,2.74875e-05,5.72427e-06,4
-3.73001e-05,5.25713e-06,-2.18649e-05,0.000617958,7.22388e-06,-8.52035e-06,2.77942e-05,7.13777e-06,4
-4.10723e-05,1.73121e-06,-2.79341e-05,9.29075e-05,-2.28006e-06,-1.34519e-05,3.5577e-05,9.89781e-06,4
-4.19337e-05,2.02801e-06,-2.72817e-05,-0.000285337,-9.89855e-06,-1.55526e-05,4.81975e-05,1.34432e-05,4
-4.13896e-05,4.01681e-06,-2.33234e-05,-0.000285491,-1.61639e-05,-1.48961e-05,5.95068e-05,1.68043e-05,4
-3.99192e-05,6.84465e-06,-2.10544e-05,-0.000113064,-1.50929e-05,-1.34918e-05,6.45819e-05,1.88145e-05,4
-3.79226e-05,9.81064e-06,-2.27986e-05,-3.94734e-05,-3.84132e-06,-1.34849e-05,5.96341e-05,1.89092e-05,4
-3.54048e-05,1.14241e-05,-2.67248e-05,-3.35704e-05,8.75001e-06,-1.40661e-05,4.10719e-05,1.76962e-05,4
-3.32013e-05,1.17136e-05,-2.76573e-05,8.59196e-06,1.05486e-05,-1.45956e-05,5.73754e-06,1.6694e-05,4
-3.14985e-05,1.19193e-05,-2.41824e-05,9.37745e-05,-9.45337e-07,-1.58782e-05,-3.98148e-05,1.71356e-05,4
-3.16164e-05,1.24668e-05,-2.19761e-05,0.000157383,-1.25718e-05,-1.79998e-05,-7.55942e-05,1.77107e-05,4
-3.30487e-05,1.19711e-05,-2.53678e-05,0.000203826,-1.05747e-05,-1.99345e-05,-8.77805e-05,1.67424e-05,4
-3.4013e-05,1.16579e-05,-3.01077e-05,0.000255408,4.59767e-06,-2.06958e-05,-7.37275e-05,1.45842e-05,4
-3.38124e-05,1.32573e-05,-2.81521e-05,0.000315799,1.97424e-05,-1.94323e-05,-4.15543e-05,1.62772e-05,4
-3.32063e-05,1.62667e-05,-1.37859e-05,0.000307481,2.60653e-05,-1.52712e-05,-5.26735e-06,2.71644e-05,4
-3.23631e-05,1.78402e-05,1.21415e-05,0.000211149,2.60932e-05,-1.19133e-05,1.37383e-05,4.39e-05,4
-3.19247e-05,1.60236e-05,3.66058e-05,0.000143015,2.25786e-05,-1.52611e-05,8.60695e-06,5.46379e-05,4
-3.3005e-05,1.26442e-05,4.5411e-05,7.59969e-05,1.60061e-05,-2.24755e-05,1.02005e-05,5.18494e-05,4
-3.38127e-05,1.12342e-05,4.12838e-05,-0.000175548,1.15115e-05,-2.55942e-05,2.73966e-05,4.19889e-05,4
-3.26868e-05,1.10719e-05,3.3955e-05,-0.000513122,1.26503e-05,-2.42179e-05,3.01034e-05,3.52784e-05,4
-2.9633e-05,1.06337e-05,2.41858e-05,-0.000699255,1.61172e-05,-2.01134e-05,3.61906e-05,3.66974e-05,4
-2.47663e-05,1.08028e-05,8.77518e-06,-0.000580754,1.95905e-05,-1.18487e-05,5.23223e-05,4.58045e-05,4
-2.09221e-05,1.15191e-05,-5.33537e-06,-0.00012412,2.23854e-05,-1.42749e-06,3.96581e-05,5.34912e-05,4
-2.0552e-05,1.14855e-05,-8.95381e-06,0.000390234,2.32936e-05,5.43961e-06,1.03685e-05,4.50025e-05,4
-2.31488e-05,9.54189e-06,-9.92558e-06,0.000446706,2.08786e-05,5.65125e-06,-3.36747e-06,1.36409e-05,4
-2.60656e-05,7.26209e-06,-1.69438e-05,-9.01665e-05,1.75267e-05,4.95379e-06,-6.98981e-06,-3.41243e-05,4
-2.61874e-05,8.86716e-06,-2.40568e-05,-0.000602114,1.87054e-05,8.85144e-06,-7.83382e-06,-8.41635e-05,4
-2.46922e-05,1.3589e-05,-2.11829e-05,-0.000664041,2.31983e-05,1.20893e-05,-6.80543e-06,-0.000117003,4
-2.27817e-05,1.71661e-05,-1.16242e-05,-0.00043932,2.5925e-05,7.85518e-06,-2.10133e-05,-0.000119823,4
-2.29863e-05,1.84636e-05,-2.62857e-06,-0.000181005,2.58364e-05,-1.99323e-06,-7.13688e-05,-9.72645e-05,4
-2.48675e-05,1.85234e-05,4.79835e-06,-1.84944e-05,2.23024e-05,-8.70949e-06,-0.000137653,-6.69071e-05,4
-2.70455e-05,1.75279e-05,9.2718e-06,5.99345e-05,1.30773e-05,-9.67995e-06,-0.00018999,-4.40613e-05,4
-3.03893e-05,1.40485e-05,6.12009e-06,0.000155281,2.02772e-06,-1.19955e-05,-0.000230323,-3.13621e-05,4
-3.52684e-05,7.37187e-06,-4.76638e-06,0.000401317,-4.70359e-06,-2.0617e-05,-0.000215549,-2.40009e-05,4
-4.03443e-05,5.41416e-07,-1.63787e-05,0.000727361,-4.64714e-06,-3.00143e-05,-9.78472e-05,-1.83429e-05,4
-4.16273e-05,-1.28099e-06,-2.35103e-05,0.000792129,2.48665e-06,-3.04057e-05,8.34359e-05,-1.01396e-05,4
-3.8717e-05,1.3063e-06,-2.53226e-05,0.000404134,1.34433e-05,-2.0366e-05,0.000274117,2.77024e-06,4
-3.4197e-05,4.40379e-06,-2.74746e-05,-0.000135117,2.03278e-05,-7.84305e-06,0.000436831,1.50015e-05,4
-3.07782e-05,6.13056e-06,-3.2498e-05,-0.000400426,1.59278e-05,-4.66974e-08,0.000474042,1.98087e-05,4
-2.8923e-05,7.33013e-06,-3.58092e-05,-0.000351583,4.84087e-06,1.33554e-06,0.000332985,1.59301e-05,4
-2.80745e-05,8.30316e-06,-3.14001e-05,-0.000207331,-1.15557e-06,-1.43377e-06,0.000111809,7.97802e-06,4
-2.68072e-05,1.03336e-05,-2.10773e-05,-0.000106195,3.15213e-06,-3.35568e-06,-5.67182e-05,1.31929e-06,4
-2.44959e-05,1.44764e-05,-1.10317e-05,-5.32925e-05,1.43836e-05,-2.07302e-06,-0.000118859,-2.58795e-06,4
-2.1964e-05,1.8809e-05,-3.57257e-06,-4.4156e-06,2.69153e-05,-9.39163e-08,-8.70038e-05,-4.80974e-06,4
-1.9655e-05,2.1607e-05,3.20117e-06,8.90331e-05,3.76159e-05,-1.04488e-06,1.88435e-05,-3.65425e-06,4
-1.86483e-05,2.22977e-05,1.02302e-05,0.000251102,4.32354e-05,-5.65409e-06,0.000124932,1.8435e-06,4
-2.00461e-05,2.0502e-05,1.75439e-05,0.0004882,3.894e-05,-1.18963e-05,0.000134253,8.91496e-06,4
-2.29009e-05,1.82175e-05,2.29197e-05,0.000678766,2.85015e-05,-1.61166e-05,6.68051e-05,1.30695e-05,4
-2.56992e-05,1.737e-05,2.29488e-05,0.000616266,1.51004e-05,-1.50515e-05,1.49545e-05,1.4094e-05,4
-2.75872e-05,1.6435e-05,1.66406e-05,0.000262589,-3.02449e-08,-1.26629e-05,2.46419e-05,1.60824e-05,4
-2.98756e-05,1.54336e-05,6.59946e-06,-0.000146773,-1.07667e-05,-1.51291e-05,4.84623e-05,2.51731e-05,4
-3.19678e-05,1.37634e-05,2.2895e-06,-0.000265173,-1.11243e-05,-2.2432e-05,4.62976e-05,3.87066e-05,4
-3.08135e-05,1.16793e-05,7.04205e-06,-3.38907e-05,-3.76504e-06,-3.00691e-05,4.00988e-05,4.58711e-05,4
-2.96e-05,1.06344e-05,1.05187e-05,0.000196828,2.06419e-06,-3.20902e-05,9.89791e-06,4.53709e-05,4
-2.92788e-05,9.63387e-06,8.58356e-07,2.17424e-05,4.34685e-06,-2.75539e-05,-3.72557e-05,3.96812e-05,4
-2.94788e-05,9.16627e-06,-1.78304e-05,-0.000536935,2.85002e-06,-2.01527e-05,-5.15304e-05,2.80746e-05,4
-3.02539e-05,1.1976e-05,-3.085e-05,-0.00101363,6.61382e-07,-1.26227e-05,-6.10443e-06,1.02436e-05,4
-3.0624e-05,1.68578e-05,-3.18773e-05,-0.00107203,1.38291e-06,-6.91751e-06,6.72859e-05,-1.05969e-05,4
-3.05696e-05,1.99525e-05,-2.67176e-05,-0.000808154,4.65571e-06,-4.57919e-06,0.000107962,-2.85862e-05,4
-3.01847e-05,1.96937e-05,-2.39528e-05,-0.000527971,7.81377e-06,-4.36237e-06,9.91889e-05,-3.90492e-05,4
-2.97685e-05,1.69834e-05,-2.50409e-05,-0.000368141,1.06418e-05,-4.60372e-06,6.46357e-05,-4.02751e-05,4
-2.86397e-05,1.55811e-05,-2.34419e-05,-0.000279907,1.53026e-05,-4.42476e-06,3.64228e-05,-3.28224e-05,4
-2.78697e-05,1.71711e-05,-1.78944e-05,-0.000161805,1.87367e-05,-3.8939e-06,2.75187e-05,-1.95096e-05,4
-2.9078e-05,1.8102e-05,-1.45542e-05,3.30547e-05,1.48417e-05,-3.88865e-06,3.1519e-05,-7.09225e-06,4
-3.23712e-05,1.41541e-05,-1.53264e-05,0.00020469,3.85864e-06,-5.22123e-06,1.77597e-05,3.62569e-07,4
-3.58597e-05,8.53912e-06,-1.66809e-05,0.000211619,-6.32838e-06,-8.11719e-06,-3.40207e-05,4.33263e-06,4
-3.76405e-05,7.1042e-06,-1.48307e-05,4.68321e-05,-8.29519e-06,-1.0257e-05,-9.48296e-05,4.6733e-06,4
-3.71202e-05,9.31884e-06,-9.21903e-06,-0.000155841,-1.15543e-06,-1.02063e-05,-0.000102315,1.92542e-07,4
-3.58284e-05,1.22057e-05,-2.57882e-06,-0.000360768,7.08469e-06,-8.76249e-06,-6.55648e-05,-5.94081e-06,4
-3.55811e-05,1.46791e-05,3.12862e-06,-0.00054324,9.26234e-06,-8.01891e-06,-6.84766e-05,-9.89389e-06,4
-3.78829e-05,1.59339e-05,7.68779e-06,-0.000466259,5.9962e-06,-9.72517e-06,-0.000119815,-1.19328e-05,4
-4.04594e-05,1.6035e-05,9.47013e-06,-1.77608e-06,3.67822e-06,-1.35788e-05,-0.000121032,-1.07162e-05,4
-4.01296e-05,1.67477e-05,8.25485e-06,0.000481484,6.85623e-06,-1.57936e-05,-3.07506e-05,-4.39805e-06,4
-3.86583e-05,1.88477e-05,4.00524e-06,0.000555537,1.21372e-05,-1.67242e-05,5.74642e-05,5.55881e-06,4
-3.78165e-05,1.95157e-05,-2.95674e-06,0.00025761,1.23598e-05,-1.93607e-05,6.33926e-05,1.2843e-05,4
-3.77262e-05,1.6948e-05,-1.24908e-05,8.65864e-05,5.14029e-06,-1.98683e-05,2.50331e-05,1.49424e-05,4
-3.91128e-05,1.26621e-05,-2.22832e-05,0.000373441,-5.02588e-06,-1.86616e-05,1.32141e-06,1.48358e-05,4
-4.20546e-05,7.1919e-06,-2.80134e-05,0.000686376,-1.27846e-05,-1.86435e-05,-2.18889e-05,1.27991e-05,4
-4.32304e-05,4.13235e-06,-2.82927e-05,0.000609595,-1.45436e-05,-1.54636e-05,-5.93879e-05,1.19015e-05,4
-3.98674e-05,5.64768e-06,-2.37511e-05,0.000309612,-2.83845e-06,-7.61758e-06,-7.13549e-05,1.1993e-05,4
-3.50235e-05,7.8185e-06,-2.07765e-05,7.44761e-05,2.02863e-05,1.46602e-07,-8.88886e-06,1.24072e-05,4
-3.29565e-05,7.58115e-06,-2.11976e-05,2.66821e-05,3.66265e-05,3.71118e-06,0.0001063,1.42692e-05,4
-3.22622e-05,7.95187e-06,-1.96846e-05,6.644e-05,3.80364e-05,2.73053e-06,0.000157892,1.46909e-05,4
-3.11382e-05,9.86075e-06,-1.57493e-05,9.24359e-05,3.08518e-05,2.93246e-07,0.000111121,1.20547e-05,4
-2.9989e-05,1.01937e-05,-1.35078e-05,9.96127e-05,2.52937e-05,-2.62131e-06,3.74101e-05,8.1647e-06,4
-2.85514e-05,1.02362e-05,-1.08502e-05,0.000120468,2.76302e-05,-5.4188e-06,-1.04205e-05,5.14102e-06,4
-2.70485e-05,1.16513e-05,-6.68086e-06,0.000124568,3.36206e-05,-5.86675e-06,-2.56012e-05,2.92373e-06,4
-2.59432e-05,1.31466e-05,-5.33439e-06,8.2906e-05,3.64718e-05,-5.45376e-06,-2.39856e-05,1.3425e-06,4
-2.6111e-05,1.27377e-05,-8.71299e-06,2.41199e-05,3.37444e-05,-6.73867e-06,-1.56969e-05,-6.39148e-07,4
-2.73347e-05,1.10868e-05,-1.34813e-05,-8.91405e-06,2.90326e-05,-9.6109e-06,-1.32791e-05,-2.53934e-06,4
-2.89378e-05,1.05476e-05,-1.5498e-05,9.28538e-06,2.53561e-05,-1.21397e-05,-1.63229e-05,-3.3964e-07,4
-3.05738e-05,1.07648e-05,-1.59923e-05,5.25692e-05,2.15698e-05,-1.3794e-05,-2.10623e-05,8.52881e-06,4
-3.19636e-05,1.00558e-05,-1.56567e-05,0.00012427,1.66478e-05,-1.50787e-05,-2.24905e-05,1.89254e-05,4
-3.2997e-05,9.71334e-06,-1.40154e-05,0.000219306,1.13134e-05,-1.54356e-05,-1.57095e-05,2.39213e-05,4
-3.39899e-05,1.0693e-05,-1.23546e-05,0.000264205,6.78249e-06,-1.47413e-05,5.20807e-06,2.23932e-05,4
-3.48827e-05,1.19413e-05,-1.2931e-05,0.000158003,5.00438e-06,-1.33773e-05,3.33067e-05,1.73891e-05,4
-3.37303e-05,1.45358e-05,-1.48088e-05,-6.64285e-05,8.24118e-06,-1.01694e-05,5.56419e-05,1.07458e-05,4
-2.97604e-05,1.88367e-05,-1.71336e-05,-0.000246728,1.50428e-05,-4.85672e-06,6.20608e-05,2.94246e-06,4
-2.55083e-05,2.20257e-05,-1.71855e-05,-0.000260228,2.16386e-05,-2.37033e-06,5.25803e-05,-7.64971e-06,4
-2.34728e-05,2.25688e-05,-1.26698e-05,-0.000210572,2.69236e-05,-3.51725e-06,3.63163e-05,-2.16351e-05,4
-2.23432e-05,2.22767e-05,-4.72127e-06,-0.000201475,3.11038e-05,-4.09762e-06,2.11428e-05,-3.24925e-05,4
-2.09668e-05,2.23588e-05,1.29675e-06,-0.000183227,3.31058e-05,-3.37563e-06,1.13249e-05,-3.53181e-05,4
-1.9187e-05,2.32565e-05,4.41871e-06,-0.000114306,3.51112e-05,-1.54286e-06,3.93119e-06,-3.43487e-05,4
-1.8789e-05,2.56625e-05,7.85806e-06,-5.72269e-05,3.6059e-05,2.73356e-07,-3.70225e-06,-3.49754e-05,4
-2.08797e-05,2.6342e-05,9.41438e-06,-7.34591e-05,3.28799e-05,-5.24109e-07,-1.04693e-05,-3.31243e-05,4
-2.36851e-05,2.33701e-05,7.52342e-06,-0.000131971,2.46365e-05,-4.67681e-06,-1.90863e-05,-2.61692e-05,4
-2.60432e-05,1.9168e-05,3.70556e-06,-0.000215691,1.14073e-05,-8.82243e-06,-2.81916e-05,-1.79352e-05,4
-2.7478e-05,1.68118e-05,2.94753e-06,-0.000369226,1.32538e-06,-1.06519e-05,-2.84124e-05,-1.11126e-05,4
-2.85617e-05,1.50853e-05,6.62261e-06,-0.000481366,-1.17199e-06,-1.17616e-05,-2.62157e-05,-8.31749e-06,4
-2.91023e-05,1.26717e-05,1.03853e-05,-0.000346483,-2.03732e-06,-1.37613e-05,-3.19652e-05,-7.95433e-06,4
-3.01623e-05,1.11418e-05,1.00634e-05,-8.53223e-06,-3.37495e-06,-1.62243e-05,-4.72107e-05,-5.1091e-06,4
-3.17936e-05,9.9676e-06,8.41573e-06,0.000337632,-1.75984e-06,-1.76224e-05,-6.0808e-05,-7.76119e-07,4
-3.21226e-05,9.57429e-06,9.2058e-06,0.000529472,4.09457e-06,-1.82881e-05,-6.41724e-05,2.37491e-06,4
-3.09994e-05,1.00509e-05,1.13316e-05,0.000581999,1.12137e-05,-1.95601e-05,-4.55591e-05,3.02085e-06,4
-3.00986e-05,1.04337e-05,9.52567e-06,0.00055811,1.46347e-05,-1.97815e-05,1.0724e-05,2.76463e-06,4
-3.16454e-05,8.25078e-06,2.46078e-07,0.000397769,1.10999e-05,-1.89122e-05,8.21061e-05,2.63757e-06,4
-3.47035e-05,4.41071e-06,-1.23122e-05,7.57744e-05,5.32356e-06,-1.89795e-05,0.000115009,2.75305e-06,4
-3.54039e-05,3.5186e-06,-1.97528e-05,-0.000221539,5.13847e-06,-1.82753e-05,9.85205e-05,3.44797e-06,4
-3.22146e-05,6.07868e-06,-1.7327e-05,-0.000274503,1.01905e-05,-1.43222e-05,6.42671e-05,4.26027e-06,4
-2.90426e-05,8.38503e-06,-8.89143e-06,-8.6833e-05,1.42016e-05,-8.46697e-06,3.44798e-05,5.99084e-06,4
-2.85107e-05,9.66156e-06,-1.08114e-06,0.000177927,1.47189e-05,-3.75885e-06,1.49867e-05,8.19124e-06,4
-2.97245e-05,1.23968e-05,4.45656e-06,0.000399897,1.46323e-05,-7.52943e-07,7.51459e-06,9.77437e-06,4
-3.03725e-05,1.50606e-05,8.60226e-06,0.000528107,1.57353e-05,2.4954e-07,1.02845e-05,1.05762e-05,4
-3.00276e-05,1.45444e-05,9.33225e-06,0.00044179,1.82389e-05,-9.16367e-07,1.56841e-05,1.16817e-05,4
-3.02608e-05,1.21548e-05,6.74693e-06,1.8549e-05,2.17858e-05,-3.59916e-06,1.56773e-05,1.25719e-05,4
-3.11916e-05,1.18327e-05,2.50345e-06,-0.000517058,2.5954e-05,-5.65874e-06,7.51007e-06,1.44482e-05,4
-3.12765e-05,1.15891e-05,-1.16965e-06,-0.000751275,2.84044e-05,-7.1828e-06,-7.44031e-06,2.05915e-05,4
-3.02853e-05,9.10565e-06,-5.89987e-06,-0.000630135,2.57961e-05,-1.0275e-05,-2.17133e-05,3.0291e-05,4
-3.26761e-05,4.8569e-06,-1.37527e-05,-0.000336266,1.63603e-05,-1.58702e-05,-2.26808e-05,3.76225e-05,4
-3.80594e-05,3.926e-07,-1.91187e-05,1.96012e-05,3.5477e-06,-2.24122e-05,-1.00661e-05,4.01252e-05,4
-4.036e-05,-2.57231e-08,-1.66892e-05,0.000215815,-1.38725e-06,-2.26776e-05,6.9492e-06,3.77467e-05,4
-3.72571e-05,3.36974e-06,-1.11284e-05,6.03187e-05,3.80308e-06,-1.56564e-05,2.40988e-05,3.38927e-05,4
-3.14145e-05,8.20038e-06,-8.02382e-06,-0.000193972,1.27423e-05,-7.87608e-06,3.5456e-05,3.60726e-05,4
-2.59226e-05,1.18475e-05,-4.99994e-06,-0.000242624,1.98047e-05,-3.66638e-06,3.30652e-05,4.04658e-05,4
-2.27801e-05,1.39095e-05,-1.00221e-06,-7.84339e-05,2.2055e-05,-4.01556e-06,2.50253e-05,3.59767e-05,4
-2.07369e-05,1.59098e-05,2.27384e-06,0.000179038,2.20249e-05,-3.58973e-06,2.09816e-05,2.50869e-05,4
-1.80155e-05,1.71032e-05,3.54934e-06,0.000453172,2.17524e-05,-6.24265e-07,1.82101e-05,1.87171e-05,4
-1.57207e-05,1.76589e-05,3.30819e-06,0.000592744,2.28464e-05,9.51052e-07,1.15349e-05,1.94134e-05,4
-1.51709e-05,1.70849e-05,6.98984e-07,0.000370307,2.37069e-05,-3.11711e-07,3.45043e-06,2.31261e-05,4
-1.58385e-05,1.58555e-05,-1.97587e-06,-0.000168664,2.58972e-05,-2.0077e-06,-4.51078e-06,2.43899e-05,4
-1.56845e-05,1.61323e-05,-2.31112e-06,-0.000633672,2.78804e-05,-2.49091e-06,-5.03312e-06,2.08348e-05,4
-1.60417e-05,1.53971e-05,-2.35619e-06,-0.000780556,2.40538e-05,-3.76047e-06,-1.08509e-05,1.36879e-05,4
-1.90011e-05,1.21547e-05,-3.14504e-06,-0.000771241,1.65269e-05,-8.86025e-06,-6.09837e-05,5.25055e-06,4
-2.28202e-05,1.01256e-05,-1.70932e-06,-0.000804419,1.22986e-05,-1.51038e-05,-0.000163814,-8.43757e-07,4
-2.40007e-05,1.19524e-05,5.26506e-06,-0.000857354,1.34779e-05,-1.60762e-05,-0.000280151,-5.3682e-06,4
-2.30054e-05,1.58623e-05,1.26385e-05,-0.000751716,1.46938e-05,-1.34362e-05,-0.000323943,-1.19677e-05,4
-2.26244e-05,1.93004e-05,1.38071e-05,-0.000416267,1.45209e-05,-1.01947e-05,-0.000232138,-2.17077e-05,4
-2.40716e-05,2.07235e-05,9.17958e-06,6.15918e-05,1.43531e-05,-8.12136e-06,-6.2213e-05,-3.39175e-05,4
-2.88455e-05,1.76254e-05,2.37059e-06,0.0005179,1.07076e-05,-1.1678e-05,8.25644e-05,-4.60041e-05,4
-3.69242e-05,1.02605e-05,-4.98027e-06,0.000829422,4.55546e-07,-2.08558e-05,0.000194699,-5.43014e-05,4
-4.41708e-05,2.32187e-06,-1.27014e-05,0.000967044,-1.08236e-05,-2.96082e-05,0.000279986,-5.59487e-05,4
-4.79382e-05,-2.78338e-06,-2.48e-05,0.000878608,-1.60626e-05,-3.38566e-05,0.000292864,-4.86933e-05,4
-4.94328e-05,-5.71477e-06,-4.19608e-05,0.000473477,-1.24852e-05,-3.10296e-05,0.000248702,-3.55548e-05,4
-4.94444e-05,-6.337e-06,-5.48894e-05,1.01947e-05,-5.82216e-06,-2.24303e-05,0.000222447,-2.35097e-05,4
-4.80473e-05,-4.64865e-06,-5.53992e-05,-6.65507e-05,-3.1799e-06,-1.51471e-05,0.000209818,-1.248e-05,4
-4.60319e-05,-1.6113e-06,-4.5256e-05,0.000131166,-3.78652e-06,-1.29708e-05,0.000174383,-4.75328e-06,4
-4.21024e-05,4.23177e-06,-3.17133e-05,0.000225398,-9.19516e-07,-7.9758e-06,0.000148103,-6.09981e-06,4
-3.52825e-05,1.08151e-05,-2.28509e-05,0.000153055,8.59772e-06,5.84575e-06,0.000150911,-1.56633e-05,4
-2.92367e-05,1.49999e-05,-2.07579e-05,0.000151675,1.85159e-05,2.04649e-05,0.000156352,-3.01176e-05,4
-2.72445e-05,1.55607e-05,-2.0907e-05,0.000359308,2.33578e-05,2.19219e-05,0.000129292,-5.27406e-05,4
-3.0303e-05,1.22928e-05,-1.91425e-05,0.000472769,2.15135e-05,7.85281e-06,7.74473e-05,-8.57394e-05,4
-3.43727e-05,8.42724e-06,-1.61168e-05,0.000161661,1.67737e-05,-7.52677e-06,2.48299e-05,-0.000115932,4
-3.51746e-05,7.47133e-06,-1.6374e-05,-0.000446604,1.63729e-05,-1.15217e-05,-1.5086e-05,-0.000119816,4
-3.30141e-05,8.75147e-06,-2.01257e-05,-0.000852846,1.80432e-05,-6.68819e-06,-4.58444e-05,-9.30595e-05,4
-3.02053e-05,1.00085e-05,-2.41139e-05,-0.000699203,1.61001e-05,-3.08003e-06,-7.11542e-05,-5.46153e-05,4
-2.99328e-05,1.19028e-05,-2.36273e-05,-0.00014202,1.06409e-05,-2.88268e-06,-7.91488e-05,-2.39916e-05,4
-3.11027e-05,1.43562e-05,-1.59127e-05,0.000317323,6.28935e-06,-5.13925e-06,-7.04476e-05,-8.34023e-06,4
-3.06725e-05,1.65981e-05,-3.97697e-06,0.000394787,5.90283e-06,-7.71183e-06,-5.48244e-05,-9.94288e-07,4
-2.83804e-05,1.76455e-05,4.72618e-06,0.000179716,7.58143e-06,-1.01089e-05,-3.92504e-05,5.08561e-06,4
-2.73158e-05,1.67507e-05,6.54292e-06,-0.000125964,9.91385e-06,-1.31505e-05,-2.16284e-05,1.1858e-05,4
-2.89355e-05,1.42111e-05,1.50366e-06,-0.000298571,1.11967e-05,-1.54792e-05,-2.4704e-06,1.68234e-05,4
-3.11123e-05,1.09302e-05,-8.06457e-06,-0.000251957,1.25021e-05,-1.39196e-05,1.55118e-05,1.98195e-05,4
-3.08144e-05,9.35749e-06,-1.64744e-05,-0.000130967,1.74508e-05,-7.96299e-06,2.18321e-05,2.17331e-05,4
-2.80649e-05,1.04504e-05,-1.9638e-05,-0.000164165,2.46132e-05,-1.96635e-06,1.50448e-05,2.33741e-05,4
-2.59983e-05,1.26529e-05,-1.7504e-05,-0.000446616,2.62269e-05,1.07463e-06,8.9614e-06,2.44383e-05,4
-2.66442e-05,1.39835e-05,-1.28075e-05,-0.00081974,2.02013e-05,1.75899e-06,1.55657e-05,2.46447e-05,4
-2.92858e-05,1.51082e-05,-1.00429e-05,-0.000808955,1.2649e-05,1.34419e-06,2.34196e-05,2.5931e-05,4
-3.11163e-05,1.49549e-05,-1.02049e-05,-0.000173227,8.10535e-06,-9.42789e-07,8.66876e-06,2.84736e-05,4
-3.17482e-05,1.36929e-05,-8.73264e-06,0.000637362,4.41803e-06,-5.30746e-06,-3.54333e-05,3.16096e-05,4
-3.19356e-05,1.39253e-05,-5.90266e-06,0.00100655,-1.15348e-06,-8.80502e-06,-8.48949e-05,3.43392e-05,4
-3.11565e-05,1.57675e-05,-2.93843e-06,0.000882591,-2.38431e-06,-8.79087e-06,-0.000117097,3.52733e-05,4
-2.92742e-05,1.78426e-05,-2.83496e-06,0.000609392,4.13362e-06,-7.29861e-06,-0.000112907,3.3628e-05,4
-2.91454e-05,1.86522e-05,-7.92644e-06,0.000355233,6.80989e-06,-9.23098e-06,-4.58977e-05,3.06973e-05,4
-3.11946e-05,1.79311e-05,-8.25773e-06,0.000166049,5.64216e-07,-1.49452e-05,5.06939e-05,2.8754e-05,4
-3.25996e-05,1.75488e-05,5.12119e-07,7.45671e-05,-2.76957e-06,-1.75653e-05,6.81193e-05,2.81362e-05,4
-3.08868e-05,1.92076e-05,1.186e-05,2.03216e-05,3.06826e-06,-1.50531e-05,-5.87369e-06,2.78425e-05,4
-2.76739e-05,2.15388e-05,2.12845e-05,-7.2172e-05,1.20045e-05,-1.09758e-05,-8.26819e-05,2.67985e-05,4
-2.63122e-05,2.32565e-05,2.92028e-05,-0.000189308,1.52577e-05,-1.19383e-05,-0.000112376,2.49977e-05,4
-2.50681e-05,2.3973e-05,3.59175e-05,-0.000222937,1.08183e-05,-1.9567e-05,-5.60076e-05,2.33183e-05,4
-2.43826e-05,2.34352e-05,3.819e-05,-0.000143604,5.87649e-06,-2.67444e-05,5.82361e-05,2.08044e-05,4
-2.4787e-05,2.12034e-05,3.73936e-05,-9.96929e-05,5.06411e-06,-2.93305e-05,0.000125303,1.86744e-05,4
-2.73191e-05,1.64414e-05,3.50546e-05,-2.44234e-05,6.41879e-06,-3.15298e-05,8.94338e-05,1.79088e-05,4
-3.13366e-05,1.01991e-05,3.00725e-05,0.000271918,6.96564e-06,-3.36181e-05,1.07638e-05,1.79009e-05,4
-3.27102e-05,4.94141e-06,1.59252e-05,0.000450191,7.65125e-06,-2.9327e-05,-4.61561e-05,1.94045e-05,4
-3.13533e-05,2.60383e-06,-1.09792e-05,1.95645e-05,1.02104e-05,-1.873e-05,-7.00916e-05,2.39832e-05,4
-2.87943e-05,2.94414e-06,-3.86908e-05,-0.000657897,1.59038e-05,-7.23014e-06,-7.11963e-05,2.85632e-05,4
-2.67468e-05,5.55463e-06,-5.29366e-05,-0.000844437,2.34366e-05,1.37218e-07,-4.57391e-05,2.93649e-05,4
-2.56506e-05,9.1666e-06,-5.22607e-05,-0.000493327,2.9503e-05,3.04569e-06,8.8956e-06,2.71033e-05,4
-2.60841e-05,1.14357e-05,-4.51266e-05,-0.000125121,3.19256e-05,3.82371e-06,6.06511e-05,2.47246e-05,4
-2.76132e-05,1.21072e-05,-3.90076e-05,-7.84201e-05,2.8463e-05,3.11388e-06,7.9947e-05,2.37544e-05,4
-2.78235e-05,1.26273e-05,-3.55509e-05,-0.000220791,2.23726e-05,1.29496e-06,6.75143e-05,2.39021e-05,4
-2.61254e-05,1.34309e-05,-3.20345e-05,-0.000305139,2.00976e-05,1.29811e-07,4.6158e-05,2.14593e-05,4
-2.47212e-05,1.41321e-05,-2.72138e-05,-0.000229028,2.32824e-05,-1.38045e-06,2.73637e-05,1.41236e-05,4
-2.50629e-05,1.4958e-05,-2.21113e-05,-3.80591e-06,2.57551e-05,-3.94496e-06,1.88205e-05,6.28318e-06,4
-2.68186e-05,1.52818e-05,-1.88951e-05,0.000305665,2.39839e-05,-6.24627e-06,1.44659e-05,3.42009e-07,4
-2.85245e-05,1.51934e-05,-1.62692e-05,0.000587881,2.20327e-05,-7.30009e-06,4.22396e-06,-3.52598e-06,4
-2.9902e-05,1.46944e-05,-1.20751e-05,0.000745489,2.12819e-05,-8.07918e-06,-1.32534e-05,-5.40465e-06,4
-3.23178e-05,1.34005e-05,-4.87767e-06,0.000734747,1.73978e-05,-1.12442e-05,-2.41797e-05,-6.85135e-06,4
-3.44398e-05,1.05278e-05,2.67538e-06,0.000589036,9.06149e-06,-1.5874e-05,-2.41126e-05,-9.30649e-06,4
-3.61746e-05,8.21997e-06,6.73025e-06,0.00033438,2.64582e-06,-2.01784e-05,-2.10986e-05,-1.45332e-05,4
-3.49807e-05,1.15029e-05,8.94096e-06,1.36188e-05,6.77213e-06,-2.07456e-05,-2.18167e-05,-2.25901e-05,4
-3.07989e-05,1.61476e-05,8.11757e-06,-9.87318e-05,1.51127e-05,-1.39147e-05,-1.00828e-05,-2.72289e-05,4
-2.7396e-05,1.705e-05,5.80218e-06,-2.90142e-05,1.92307e-05,-6.22944e-06,3.38654e-05,-2.79877e-05,4
-2.56721e-05,1.62732e-05,4.27337e-06,-5.65732e-05,1.99895e-05,-1.3967e-06,7.05894e-05,-2.6942e-05,4
-2.40362e-05,1.58175e-05,5.11006e-06,-0.000127573,2.15221e-05,2.77821e-06,6.55186e-05,-2.38968e-05,4
-2.08456e-05,1.73764e-05,9.30735e-06,-0.000164235,2.92197e-05,5.6207e-06,4.46455e-05,-2.01196e-05,4
-1.89373e-05,1.97694e-05,1.20153e-05,-0.000124857,4.03543e-05,6.6015e-06,2.16141e-05,-1.68587e-05,4
-1.71956e-05,2.15611e-05,1.1286e-05,-4.99616e-05,4.96571e-05,5.25299e-06,-4.52275e-06,-1.51709e-05,4
-1.6175e-05,2.19974e-05,1.1806e-05,-0.000129827,5.27814e-05,1.67684e-06,-1.00206e-05,-1.34949e-05,4
-1.69811e-05,2.08785e-05,1.61497e-05,-0.000397945,4.94225e-05,-3.16442e-06,1.03698e-05,-1.07743e-05,4
-1.82444e-05,1.97492e-05,1.85785e-05,-0.00051202,4.26267e-05,-6.01892e-06,2.79431e-05,-8.65178e-06,4
-1.91418e-05,2.01463e-05,1.56214e-05,-0.000255577,3.37746e-05,-6.14794e-06,3.64323e-05,-7.66887e-06,4
-2.05232e-05,2.09555e-05,9.16303e-06,9.18105e-05,2.16701e-05,-4.16268e-06,5.58562e-05,-6.27859e-06,4
-2.26844e-05,2.16564e-05,2.58339e-06,0.00016271,5.32713e-06,-1.59727e-06,8.79655e-05,-4.58988e-06,4
-2.57042e-05,2.07197e-05,-7.41543e-06,-3.71347e-05,-1.48134e-05,-2.40479e-06,0.000112506,-3.09557e-06,4
-3.02582e-05,1.61087e-05,-2.2932e-05,-0.000219091,-3.02347e-05,-8.84299e-06,0.000101407,-1.98191e-06,4
-3.35784e-05,1.05496e-05,-3.58743e-05,-0.000265308,-3.15423e-05,-1.59464e-05,5.36195e-05,-6.07522e-07,4
-3.38894e-05,7.69817e-06,-3.72068e-05,-0.000228686,-2.14299e-05,-1.71501e-05,6.14208e-06,2.14432e-06,4
-3.19874e-05,8.20007e-06,-2.87404e-05,-0.000185216,-1.04706e-05,-1.37067e-05,-4.87129e-06,5.25874e-06,4
-3.03999e-05,9.49621e-06,-2.04512e-05,-0.000156206,-4.73176e-06,-1.0496e-05,8.57559e-06,7.67961e-06,4
-2.84366e-05,1.09343e-05,-1.51491e-05,-0.000135579,8.80787e-07,-8.90796e-06,1.55451e-05,1.19304e-05,4
-2.58941e-05,1.22276e-05,-9.93772e-06,-8.44331e-05,9.25588e-06,-8.61796e-06,9.21117e-06,1.7589e-05,4
-2.49515e-05,1.09829e-05,-6.8219e-06,1.48816e-06,1.25622e-05,-1.03305e-05,2.75809e-06,2.07674e-05,4
-2.6972e-05,7.03821e-06,-1.16948e-05,9.44406e-05,4.71073e-06,-1.33239e-05,1.26679e-06,1.98579e-05,4
-2.84618e-05,5.3369e-06,-1.83124e-05,0.000175494,-3.66071e-06,-1.43386e-05,-5.617e-06,1.49445e-05,4
-2.78066e-05,7.40561e-06,-1.60618e-05,0.000209671,8.87789e-07,-1.28925e-05,-3.31222e-05,7.48736e-06,4
-2.55295e-05,1.16889e-05,-6.31791e-06,0.00017439,1.40732e-05,-1.17514e-05,-7.76028e-05,2.22452e-06,4
-2.36595e-05,1.62612e-05,5.94724e-06,0.0001354,2.43356e-05,-1.07688e-05,-0.000115808,2.79866e-06,4
-2.44637e-05,1.86165e-05,1.73583e-05,0.000150759,2.7138e-05,-1.00543e-05,-0.000113102,5.08111e-06,4
-2.61953e-05,1.84873e-05,2.19116e-05,0.00022236,2.20505e-05,-9.56822e-06,-2.99469e-05,5.73903e-06,4
-2.89577e-05,1.57493e-05,1.56524e-05,0.000301016,1.17238e-05,-8.60923e-06,0.000116214,5.20061e-06,4
-3.33353e-05,1.05814e-05,1.38211e-06,0.000252745,2.89111e-06,-8.54031e-06,0.000204414,4.36852e-06,4
-3.78734e-05,6.14246e-06,-6.8088e-06,0.000135656,2.30654e-06,-1.26321e-05,0.000166813,4.53604e-06,4
-3.94822e-05,6.00238e-06,-3.78152e-07,0.000118943,9.37457e-06,-1.83315e-05,8.12637e-05,3.33894e-06,4
-3.86383e-05,7.90289e-06,9.54727e-06,0.000133585,1.49665e-05,-2.17133e-05,2.29469e-05,1.27538e-07,4
-3.94216e-05,7.41971e-06,8.23552e-06,7.91117e-05,1.42988e-05,-2.32011e-05,5.05395e-06,-3.79084e-06,4
-4.20312e-05,4.24873e-06,-3.7612e-06,3.15824e-05,1.32052e-05,-2.42319e-05,-7.93545e-06,-8.29546e-06,4
-4.462e-05,5.60238e-07,-1.65019e-05,3.31751e-05,1.39973e-05,-2.56547e-05,-4.21985e-05,-1.29185e-05,4
-4.71672e-05,-2.51261e-06,-2.45988e-05,7.92157e-06,1.3783e-05,-2.70148e-05,-8.34671e-05,-1.55418e-05,4
-4.97162e-05,-3.25585e-06,-2.5974e-05,-4.04249e-05,1.24621e-05,-2.61015e-05,-9.98961e-05,-1.65472e-05,4
-5.04954e-05,-1.02827e-06,-1.96857e-05,-1.48545e-05,1.23396e-05,-2.2261e-05,-8.75567e-05,-1.79255e-05,4
-4.82124e-05,2.61003e-06,-9.15421e-06,8.85819e-05,1.41052e-05,-1.94203e-05,-6.97411e-05,-1.94445e-05,4
-4.51354e-05,6.41046e-06,-2.81799e-06,0.00013269,1.61114e-05,-1.96159e-05,-5.90623e-05,-1.78929e-05,4
-4.17444e-05,9.60228e-06,-6.24996e-06,-5.8536e-05,1.6941e-05,-1.85878e-05,-5.08128e-05,-8.59779e-06,4
-3.71707e-05,1.27141e-05,-1.56344e-05,-0.000410562,1.91434e-05,-1.05879e-05,-3.31881e-05,5.43979e-06,4
-3.13032e-05,1.68869e-05,-2.10169e-05,-0.00062582,2.60474e-05,1.72969e-06,-2.5694e-06,1.58644e-05,4
-2.54833e-05,2.14576e-05,-1.8792e-05,-0.000563327,3.58433e-05,1.02012e-05,3.25654e-05,1.91811e-05,4
-2.26679e-05,2.38765e-05,-1.35925e-05,-0.000359375,4.27708e-05,9.96574e-06,5.4345e-05,1.72868e-05,4
-2.51016e-05,2.332e-05,-1.05411e-05,-0.000162599,4.23882e-05,4.40199e-06,6.04521e-05,9.91791e-06,4
-2.8897e-05,2.17687e-05,-7.78873e-06,-2.03299e-05,3.46038e-05,-2.09605e-06,5.2857e-05,-2.07935e-06,4
-2.9123e-05,2.31126e-05,-1.90277e-06,8.70277e-05,2.40464e-05,-6.03016e-06,3.0332e-05,-1.55134e-05,4
-2.65525e-05,2.67842e-05,3.5761e-06,0.000192724,1.62767e-05,-6.61568e-06,-5.96494e-06,-2.66612e-05,4
-2.50901e-05,2.70032e-05,1.1158e-06,0.00024148,1.04397e-05,-7.33451e-06,-3.55693e-05,-3.0852e-05,4
-2.70284e-05,2.18287e-05,-8.4648e-06,0.000131582,6.19727e-06,-8.47043e-06,-4.25025e-05,-2.05128e-05,4
-2.92668e-05,1.67503e-05,-1.45579e-05,-8.32666e-05,5.89189e-06,-9.45251e-06,-5.13982e-05,9.31412e-06,4
-2.9856e-05,1.61033e-05,-1.18827e-05,-0.000146996,9.88008e-06,-9.65989e-06,-4.29576e-05,3.81916e-05,4
-3.03814e-05,1.55177e-05,-8.40561e-06,-3.25953e-05,1.28797e-05,-7.47009e-06,2.48029e-05,4.8102e-05,4
-3.26989e-05,1.24588e-05,-1.07145e-05,1.81068e-05,1.23464e-05,-6.84791e-06,7.09886e-05,4.51166e-05,4
-3.57483e-05,7.79869e-06,-1.61018e-05,-3.64532e-05,1.1408e-05,-1.10821e-05,2.81369e-05,3.74285e-05,4
-3.67492e-05,3.59406e-06,-2.17492e-05,-8.06395e-05,1.12332e-05,-1.44096e-05,-3.94734e-05,3.42805e-05,4
-3.54289e-05,4.09838e-06,-2.57918e-05,-3.44533e-05,1.29617e-05,-1.12889e-05,-7.10825e-05,4.03451e-05,4
-3.36269e-05,7.91818e-06,-2.52163e-05,8.03404e-05,1.67462e-05,-5.09118e-06,-7.70914e-05,4.99138e-05,4
-3.34278e-05,9.75072e-06,-1.93387e-05,0.00020207,1.85254e-05,-3.90301e-06,-6.93709e-05,4.80381e-05,4
-3.41556e-05,8.88509e-06,-1.10715e-05,0.000312031,1.6084e-05,-7.67556e-06,-3.25682e-05,2.87863e-05,4
-3.49076e-05,7.99422e-06,-5.22865e-06,0.00037064,1.19569e-05,-1.10077e-05,3.27654e-05,-6.47726e-06,4
-3.56175e-05,9.16089e-06,-6.59192e-06,0.000279051,9.27973e-06,-1.10255e-05,0.000113492,-5.04023e-05,4
-3.55746e-05,1.05299e-05,-1.26936e-05,2.01618e-05,1.08091e-05,-8.29844e-06,0.000161404,-8.69611e-05,4
-3.54345e-05,1.07782e-05,-1.85068e-05,-0.000190974,1.50764e-05,-5.38235e-06,0.000122774,-0.000101635,4
-3.56666e-05,9.85011e-06,-2.23719e-05,-0.000154835,1.68741e-05,-3.60494e-06,4.45228e-05,-9.28673e-05,4
-3.55322e-05,8.76971e-06,-2.40347e-05,8.33888e-05,1.56017e-05,-2.30001e-06,3.31188e-05,-7.44659e-05,4
-3.38083e-05,9.14366e-06,-2.13533e-05,0.000290646,1.69688e-05,-1.01704e-06,8.72996e-05,-5.98246e-05,4
-3.15691e-05,1.01754e-05,-1.39519e-05,0.000275841,2.26307e-05,-4.25514e-07,0.00010912,-5.16925e-05,4
-2.96373e-05,1.07251e-05,-5.37132e-06,4.25876e-05,2.71616e-05,-1.31476e-06,7.24965e-05,-4.47833e-05,4
-2.72147e-05,1.2076e-05,1.85928e-06,-0.000199737,2.48812e-05,-2.4604e-06,4.00275e-05,-3.75412e-05,4
-2.44292e-05,1.59646e-05,6.93224e-06,-0.000270384,1.81799e-05,-3.67554e-06,4.67689e-05,-2.83629e-05,4
-2.25278e-05,1.99989e-05,1.05905e-05,-0.000183246,1.50158e-05,-6.36899e-06,7.55439e-05,-1.86739e-05,4
-2.16493e-05,2.28229e-05,1.40485e-05,-6.31675e-05,1.87926e-05,-9.11292e-06,0.000101126,-1.04727e-05,4
-2.09692e-05,2.30744e-05,1.67018e-05,-1.92902e-05,2.55544e-05,-1.11921e-05,0.000110629,-4.78442e-06,4
-1.98427e-05,2.24487e-05,1.81982e-05,-1.62243e-05,2.88683e-05,-1.10894e-05,0.000120193,-1.14451e-06,4
-1.95958e-05,2.23525e-05,2.01485e-05,6.54394e-05,2.57007e-05,-9.36995e-06,0.000147777,1.49072e-06,4
-2.14569e-05,2.00732e-05,2.13341e-05,0.000220865,1.59851e-05,-1.11991e-05,0.000169341,4.50098e-06,4
-2.37277e-05,1.57354e-05,1.98011e-05,0.000337807,3.51633e-06,-1.76569e-05,0.000145554,1.25494e-05,4
-2.65884e-05,1.16108e-05,1.19666e-05,0.000268247,-3.46703e-06,-2.37214e-05,6.6457e-05,2.55602e-05,4
-2.96724e-05,8.01984e-06,-3.20994e-06,1.30516e-05,-3.69773e-06,-2.58869e-05,-2.71265e-05,3.56721e-05,4
-3.22326e-05,4.59222e-06,-2.2003e-05,-0.000269956,-2.07495e-06,-2.35694e-05,-8.38253e-05,4.03096e-05,4
-3.29757e-05,3.42806e-06,-3.81114e-05,-0.000456372,-1.09583e-06,-1.68271e-05,-0.000104126,4.08323e-05,4
-3.22527e-05,4.75995e-06,-4.32875e-05,-0.000420038,1.30525e-06,-8.14704e-06,-0.000113444,3.79242e-05,4
-2.97201e-05,7.80981e-06,-3.87848e-05,-0.000230114,1.2941e-05,-2.15584e-06,-8.33312e-05,3.47353e-05,4
-2.52571e-05,1.02908e-05,-3.08163e-05,-5.9804e-05,3.31637e-05,-5.04989e-07,1.93369e-05,3.3749e-05,4
-2.1858e-05,1.04718e-05,-2.16462e-05,3.73347e-05,4.74588e-05,-1.87065e-06,0.000107932,3.37848e-05,4
-2.09239e-05,1.17357e-05,-1.04242e-05,9.97708e-05,4.64229e-05,-4.33803e-06,8.57881e-05,3.20479e-05,4
-2.1146e-05,1.52061e-05,4.76501e-07,0.000134696,3.87621e-05,-5.18715e-06,-8.78248e-06,2.7127e-05,4
-1.96871e-05,1.9489e-05,6.3673e-06,6.96842e-05,3.60747e-05,-5.12885e-06,-8.91579e-05,1.7463e-05,4
-1.81967e-05,2.12401e-05,5.68302e-06,-0.000121062,3.54004e-05,-6.47731e-06,-0.00011915,3.95328e-06,4
-1.86078e-05,1.95051e-05,6.25579e-07,-0.000320978,2.65053e-05,-1.06277e-05,-0.000105069,-1.00859e-05,4
-2.2179e-05,1.60454e-05,-3.89104e-06,-0.000421419,8.66787e-06,-1.51926e-05,-6.12757e-05,-2.08344e-05,4
-2.76431e-05,1.24806e-05,-6.31213e-06,-0.000468106,-8.96728e-06,-1.71857e-05,-5.72107e-06,-2.64776e-05,4
-3.18657e-05,9.6695e-06,-6.32376e-06,-0.000445507,-1.9719e-05,-1.68896e-05,4.20389e-05,-2.78165e-05,4
-3.25541e-05,9.4052e-06,-1.01855e-06,-0.00016977,-2.15161e-05,-1.52156e-05,8.39507e-05,-2.69375e-05,4
-3.05435e-05,1.18953e-05,8.91309e-06,0.00040181,-1.453e-05,-1.17519e-05,0.000137702,-2.46471e-05,4
-2.88384e-05,1.41942e-05,1.51202e-05,0.000939472,-2.30709e-06,-7.28058e-06,0.000171519,-2.1631e-05,4
-2.75292e-05,1.5941e-05,1.50885e-05,0.00107182,1.02311e-05,-3.43458e-06,0.000127084,-1.74723e-05,4
-2.73261e-05,1.70759e-05,1.16957e-05,0.000751752,1.69024e-05,-1.38319e-06,4.09524e-05,-1.27141e-05,4
-2.92147e-05,1.64328e-05,4.21434e-06,0.000179081,1.37935e-05,-2.55382e-06,-4.29637e-06,-8.33157e-06,4
-3.23984e-05,1.2182e-05,-3.89271e-06,-0.000359177,5.01245e-06,-6.12332e-06,-4.68718e-06,-5.21051e-06,4
-3.47525e-05,6.9554e-06,-6.04779e-06,-0.00048558,-1.75665e-06,-1.31517e-05,-1.17658e-05,-3.59468e-06,4
-3.59117e-05,3.38806e-06,-2.9296e-06,-0.000143059,-4.00353e-06,-2.31402e-05,-4.11439e-05,-2.02494e-06,4
-3.71131e-05,2.72831e-06,-2.1851e-06,0.000233,-4.93763e-06,-2.90138e-05,-5.98205e-05,8.21302e-07,4
-3.88907e-05,3.9113e-06,-1.01609e-05,0.00029591,-4.84568e-06,-2.16855e-05,-5.304e-05,2.8306e-06,4
-3.92805e-05,5.0433e-06,-2.24631e-05,0.000103961,-3.78998e-06,-8.46512e-06,-4.67253e-05,3.66011e-06,4
-3.84711e-05,5.67008e-06,-2.90959e-05,5.70222e-06,-2.76699e-06,-5.23328e-06,-4.61326e-05,6.89624e-06,4
-3.80875e-05,5.82029e-06,-3.00287e-05,7.85027e-05,-1.43064e-06,-8.56935e-06,-1.74507e-05,1.1136e-05,4
-3.67094e-05,7.76371e-06,-3.02545e-05,9.79867e-05,4.12239e-06,-7.84666e-06,2.64968e-05,1.32544e-05,4
-3.35682e-05,1.04744e-05,-3.14341e-05,-1.00893e-05,1.78809e-05,-3.16823e-06,3.51236e-05,1.38434e-05,4
-3.00401e-05,1.22778e-05,-2.99633e-05,-0.000221279,2.94781e-05,7.72025e-07,1.30619e-05,1.64963e-05,4
-2.90621e-05,1.37403e-05,-2.37368e-05,-0.000314762,2.96449e-05,1.32614e-06,-2.61858e-06,2.46216e-05,4
-3.0919e-05,1.45762e-05,-1.63172e-05,-0.00018317,2.19008e-05,-2.17381e-06,-1.1654e-06,3.58016e-05,4
-3.34089e-05,1.44284e-05,-1.1975e-05,-9.39642e-05,1.12035e-05,-6.90122e-06,5.38236e-06,4.32464e-05,4
-3.35844e-05,1.30143e-05,-1.06264e-05,-0.000186409,3.43137e-06,-9.12025e-06,3.61281e-06,4.37653e-05,4
-3.08747e-05,1.23259e-05,-7.79894e-06,-0.00028652,3.63079e-06,-8.15076e-06,-7.04754e-06,3.91618e-05,4
-2.75334e-05,1.3426e-05,-3.42919e-06,-0.000258585,1.06566e-05,-5.90122e-06,-1.29844e-05,3.17738e-05,4
-2.51695e-05,1.52881e-05,-8.90263e-07,-0.000213417,1.88935e-05,-5.10852e-06,-4.60437e-06,2.51244e-05,4
-2.53869e-05,1.65537e-05,-2.86113e-06,-0.000302802,2.38597e-05,-7.48997e-06,9.9982e-06,2.24685e-05,4
