ch1,ch2,ch3,ch4,ch5,ch6,ch7,ch8,class
-2.62706e-05,1.32532e-05,-3.86309e-06,1.8661e-06,1.45452e-05,-1.03734e-05,1.55546e-05,-4.8285e-06,9
-2.76775e-05,1.39071e-05,-3.78182e-06,3.15005e-06,1.42492e-05,-9.31207e-06,1.39522e-05,-5.10204e-06,9
-2.84427e-05,1.43114e-05,-3.23998e-06,4.98559e-06,1.28742e-05,-8.96975e-06,1.24674e-05,-6.16032e-06,9
-2.76849e-05,1.34067e-05,-2.01452e-06,9.09966e-06,1.13228e-05,-8.83469e-06,1.28495e-05,-7.42413e-06,9
-2.64074e-05,1.31619e-05,-2.01795e-06,1.37009e-05,1.09316e-05,-8.90594e-06,1.28325e-05,-7.81285e-06,9
-2.55667e-05,1.36349e-05,-4.24354e-06,1.64982e-05,1.17884e-05,-8.2918e-06,1.2693e-05,-7.79751e-06,9
-2.49188e-05,1.24748e-05,-6.81635e-06,1.61721e-05,1.3249e-05,-8.85415e-06,1.21261e-05,-6.70754e-06,9
-2.39943e-05,9.96559e-06,-7.49975e-06,1.57601e-05,1.35741e-05,-1.002e-05,1.12227e-05,-2.98999e-06,9
-2.3106e-05,9.34863e-06,-7.5379e-06,1.73605e-05,1.26779e-05,-8.30759e-06,1.12873e-05,1.8446e-06,9
-2.32141e-05,1.04649e-05,-8.4454e-06,1.79571e-05,1.20911e-05,-5.59764e-06,1.19438e-05,3.45428e-06,9
-2.40828e-05,1.09108e-05,-7.63609e-06,1.60629e-05,1.2086e-05,-5.85997e-06,1.42501e-05,1.83367e-06,9
-2.43998e-05,1.14626e-05,-5.51337e-06,1.00241e-05,1.31143e-05,-7.45762e-06,1.57702e-05,2.18571e-07,9
-2.42862e-05,1.22336e-05,-3.50765e-06,-1.56963e-06,1.42128e-05,-8.14252e-06,1.45199e-05,7.72668e-07,9
-2.49886e-05,1.35527e-05,-3.27178e-06,-1.81151e-05,1.50596e-05,-7.91241e-06,1.21185e-05,1.55353e-06,9
-2.63343e-05,1.48356e-05,-5.06739e-06,-3.71117e-05,1.52791e-05,-7.60126e-06,1.00334e-05,2.12271e-06,9
-2.7451e-05,1.51815e-05,-6.79515e-06,-5.08559e-05,1.53576e-05,-7.74447e-06,7.72161e-06,3.14248e-06,9
-2.74991e-05,1.39931e-05,-8.38364e-06,-5.08098e-05,1.57164e-05,-8.23983e-06,5.45248e-06,3.15095e-06,9
-2.75309e-05,1.17226e-05,-9.62528e-06,-3.88221e-05,1.61041e-05,-8.57057e-06,4.36801e-06,2.21748e-06,9
-2.84521e-05,1.03776e-05,-9.95354e-06,-2.29167e-05,1.614e-05,-8.55405e-06,5.17928e-06,1.1e-06,9
-3.03664e-05,1.02512e-05,-8.98843e-06,-1.02053e-05,1.56511e-05,-9.20114e-06,7.58666e-06,9.10892e-07,9
-3.26844e-05,1.04683e-05,-8.51018e-06,-3.09728e-06,1.50301e-05,-9.98576e-06,9.32761e-06,1.40799e-06,9
-3.46851e-05,9.91923e-06,-9.22822e-06,-8.15195e-07,1.46019e-05,-9.55873e-06,8.85985e-06,1.73449e-06,9
-3.57947e-05,9.55736e-06,-9.66681e-06,-1.2034e-06,1.52729e-05,-8.24888e-06,7.83387e-06,1.51508e-06,9
-3.61792e-05,1.01343e-05,-8.5202e-06,-1.00464e-06,1.70716e-05,-6.25529e-06,8.19272e-06,1.55711e-06,9
-3.5848e-05,1.15637e-05,-5.9622e-06,8.97793e-07,1.84791e-05,-4.61031e-06,8.49633e-06,1.94565e-06,9
-3.50448e-05,1.29322e-05,-3.18591e-06,2.09096e-06,1.85219e-05,-4.79133e-06,8.74288e-06,2.89809e-06,9
-3.43845e-05,1.44545e-05,-1.52709e-06,1.14243e-06,1.80551e-05,-6.44821e-06,9.56428e-06,3.8176e-06,9
-3.27495e-05,1.57991e-05,-1.50156e-06,1.67982e-06,1.74041e-05,-8.77095e-06,9.9025e-06,4.41068e-06,9
-3.03687e-05,1.66433e-05,-2.27948e-06,3.55546e-06,1.63361e-05,-9.53915e-06,1.08224e-05,7.15471e-06,9
-2.94371e-05,1.54794e-05,-2.67765e-06,4.35767e-06,1.57357e-05,-8.56891e-06,1.27393e-05,1.19925e-05,9
-3.09169e-05,1.23623e-05,-3.36153e-06,5.42234e-06,1.57182e-05,-8.41739e-06,1.29924e-05,1.57299e-05,9
-3.24804e-05,9.43761e-06,-5.05926e-06,4.84675e-06,1.47666e-05,-8.71771e-06,1.05813e-05,1.88598e-05,9
-3.35232e-05,7.8746e-06,-5.32105e-06,2.1981e-06,1.28345e-05,-9.17876e-06,8.6248e-06,2.07e-05,9
-3.47242e-05,7.89718e-06,-4.15209e-06,2.23308e-07,1.13003e-05,-9.82579e-06,9.46496e-06,1.84158e-05,9
-3.50324e-05,7.88548e-06,-4.71805e-06,-1.6247e-06,1.11974e-05,-9.17104e-06,1.04771e-05,1.41724e-05,9
-3.47196e-05,8.64786e-06,-6.89652e-06,-2.97344e-06,1.25543e-05,-8.7183e-06,1.03306e-05,1.12641e-05,9
-3.38999e-05,9.75257e-06,-7.68452e-06,-3.74664e-06,1.40662e-05,-1.01226e-05,1.19191e-05,9.24308e-06,9
-3.32254e-05,9.68033e-06,-7.11024e-06,-3.18421e-06,1.4055e-05,-1.08287e-05,1.37726e-05,3.31519e-06,9
-3.30445e-05,9.97206e-06,-6.93568e-06,-2.39795e-06,1.38758e-05,-1.02246e-05,1.33333e-05,-7.0083e-06,9
-3.26506e-05,1.0966e-05,-7.42486e-06,-1.87309e-06,1.46183e-05,-1.00512e-05,1.19653e-05,-1.76605e-05,9
-3.23452e-05,1.12525e-05,-7.75341e-06,-7.9677e-07,1.49706e-05,-1.03048e-05,1.11574e-05,-2.50964e-05,9
-3.19448e-05,1.08537e-05,-8.195e-06,2.45189e-07,1.47254e-05,-9.81296e-06,1.17546e-05,-2.51519e-05,9
-3.12254e-05,1.05494e-05,-8.40889e-06,1.01147e-06,1.43248e-05,-9.00843e-06,1.26887e-05,-1.8899e-05,9
-3.04659e-05,1.05054e-05,-7.60022e-06,6.66132e-09,1.38306e-05,-8.54353e-06,1.21932e-05,-1.09141e-05,9
-2.92783e-05,1.04733e-05,-6.78204e-06,-6.85244e-07,1.35871e-05,-8.88599e-06,1.04572e-05,-4.44139e-06,9
-2.88535e-05,1.01287e-05,-7.25199e-06,-7.93854e-07,1.39861e-05,-9.70532e-06,8.42847e-06,-1.11183e-07,9
-2.94729e-05,8.99681e-06,-8.59833e-06,-2.10895e-06,1.40689e-05,-1.06402e-05,8.7238e-06,3.23138e-06,9
-3.0543e-05,8.04138e-06,-9.93658e-06,-3.84519e-06,1.28301e-05,-1.17228e-05,1.10298e-05,4.7587e-06,9
-3.17503e-05,8.09009e-06,-9.9687e-06,-4.45762e-06,1.10005e-05,-1.24323e-05,1.2968e-05,2.61372e-06,9
-3.25761e-05,8.51591e-06,-8.50778e-06,-3.66188e-06,9.72309e-06,-1.25181e-05,1.35985e-05,-3.21581e-06,9
-3.25155e-05,7.73389e-06,-7.87939e-06,-2.89331e-06,9.58188e-06,-1.24337e-05,1.3176e-05,-9.12948e-06,9
-3.05512e-05,6.48097e-06,-8.93186e-06,-3.27541e-06,1.08398e-05,-1.28586e-05,1.29365e-05,-1.31704e-05,9
-2.84146e-05,6.89422e-06,-9.78008e-06,-4.43491e-06,1.17651e-05,-1.23375e-05,1.27881e-05,-1.5035e-05,9
-2.81645e-05,8.83131e-06,-8.32298e-06,-4.32718e-06,1.01511e-05,-1.08738e-05,1.2516e-05,-1.41204e-05,9
-2.91247e-05,1.17592e-05,-6.71705e-06,-3.19885e-06,7.61851e-06,-1.01905e-05,1.25508e-05,-1.15425e-05,9
-2.9688e-05,1.39184e-05,-7.30172e-06,-2.62979e-06,7.30255e-06,-1.08419e-05,1.26177e-05,-9.35218e-06,9
-2.98328e-05,1.41393e-05,-8.61316e-06,-5.47526e-08,8.17508e-06,-1.1149e-05,1.1716e-05,-7.40857e-06,9
-2.92939e-05,1.32534e-05,-9.42388e-06,1.30688e-05,8.44028e-06,-1.2214e-05,1.18775e-05,-4.79892e-06,9
-2.79689e-05,1.32017e-05,-9.023e-06,4.09036e-05,8.58173e-06,-1.29312e-05,1.4188e-05,-1.7835e-06,9
-2.67372e-05,1.44939e-05,-8.19873e-06,7.42521e-05,9.58344e-06,-1.11342e-05,1.55284e-05,1.23799e-06,9
-2.52776e-05,1.46961e-05,-7.69582e-06,0.000106855,1.10898e-05,-9.63372e-06,1.46926e-05,4.05384e-06,9
-2.26937e-05,1.32081e-05,-6.25821e-06,0.000126853,1.1238e-05,-9.25162e-06,1.33423e-05,4.21915e-06,9
-2.07263e-05,1.09898e-05,-5.54009e-06,0.000112306,9.94743e-06,-1.02393e-05,1.3204e-05,3.08909e-06,9
-2.05391e-05,8.22182e-06,-6.55005e-06,6.01477e-05,9.17201e-06,-1.11095e-05,1.43048e-05,3.79582e-06,9
-2.1754e-05,7.93337e-06,-7.46284e-06,-1.66163e-05,8.82201e-06,-1.19325e-05,1.39728e-05,4.43126e-06,9
-2.36003e-05,1.0078e-05,-7.08762e-06,-0.000100847,9.25464e-06,-1.42807e-05,1.11238e-05,3.77921e-06,9
-2.47857e-05,1.15413e-05,-5.77119e-06,-0.000166815,1.05181e-05,-1.5971e-05,7.72606e-06,2.58046e-06,9
-2.54167e-05,1.17747e-05,-4.9188e-06,-0.000183254,1.14349e-05,-1.52795e-05,7.66322e-06,2.39514e-06,9
-2.59067e-05,1.0732e-05,-6.05938e-06,-0.000151163,1.24619e-05,-1.26481e-05,9.68884e-06,2.30764e-06,9
-2.6196e-05,1.01527e-05,-7.86979e-06,-0.000105513,1.29506e-05,-1.164e-05,1.12258e-05,3.11516e-06,9
-2.58439e-05,1.03988e-05,-8.81547e-06,-7.23001e-05,1.29056e-05,-1.17913e-05,1.27395e-05,3.11141e-06,9
-2.50783e-05,1.12613e-05,-8.43618e-06,-5.05849e-05,1.3342e-05,-1.08978e-05,1.41651e-05,2.55241e-06,9
-2.55294e-05,1.10521e-05,-7.60839e-06,-2.85619e-05,1.42977e-05,-8.57249e-06,1.44899e-05,3.18016e-06,9
-2.79862e-05,9.89533e-06,-7.5838e-06,-7.33212e-06,1.47227e-05,-6.12244e-06,1.40734e-05,4.01516e-06,9
-3.16044e-05,9.73029e-06,-7.13335e-06,3.43983e-06,1.4315e-05,-5.60786e-06,1.47837e-05,4.74721e-06,9
-3.42937e-05,1.14895e-05,-5.98359e-06,1.03351e-06,1.42775e-05,-6.3128e-06,1.60141e-05,5.73529e-06,9
-3.47846e-05,1.38797e-05,-4.89375e-06,-5.0322e-06,1.45896e-05,-7.76607e-06,1.63115e-05,7.05717e-06,9
-3.41499e-05,1.41824e-05,-5.09732e-06,-6.64897e-06,1.4359e-05,-9.32487e-06,1.56847e-05,7.3982e-06,9
-3.37155e-05,1.29979e-05,-5.85808e-06,-4.82691e-06,1.33996e-05,-1.04889e-05,1.57946e-05,7.44188e-06,9
-3.33534e-05,1.205e-05,-6.14939e-06,-4.24772e-06,1.21645e-05,-1.01689e-05,1.56318e-05,6.82013e-06,9
-3.20445e-05,1.24776e-05,-5.49372e-06,-4.46817e-06,1.15455e-05,-8.79998e-06,1.42867e-05,5.97944e-06,9
-3.12313e-05,1.29119e-05,-5.24908e-06,-3.29131e-06,1.16422e-05,-6.69869e-06,1.26999e-05,5.34246e-06,9
-3.05389e-05,1.27091e-05,-6.81802e-06,-1.57802e-06,1.25979e-05,-4.64088e-06,1.29025e-05,5.09375e-06,9
-2.90805e-05,1.15691e-05,-7.05297e-06,-1.67805e-07,1.35643e-05,-2.91899e-06,1.53595e-05,4.39478e-06,9
-2.94703e-05,1.11892e-05,-5.34168e-06,4.44623e-07,1.34324e-05,-2.04529e-06,1.78106e-05,3.6715e-06,9
-3.23545e-05,1.19092e-05,-2.98358e-06,3.55136e-07,1.30003e-05,-4.01823e-06,1.66961e-05,2.2132e-06,9
-3.43703e-05,1.19274e-05,-1.41001e-06,1.65349e-06,1.15295e-05,-6.72329e-06,1.22336e-05,2.44451e-06,9
-3.45786e-05,1.38196e-05,-1.44367e-06,4.9009e-06,1.00604e-05,-7.42216e-06,9.30803e-06,7.82501e-06,9
-3.52327e-05,1.5943e-05,-1.66908e-06,1.86097e-05,1.04719e-05,-7.09139e-06,1.00889e-05,1.28403e-05,9
-3.70514e-05,1.51325e-05,-3.0952e-06,4.68537e-05,1.20326e-05,-8.0419e-06,1.13789e-05,1.34281e-05,9
-3.84385e-05,1.31499e-05,-4.07863e-06,7.37485e-05,1.29593e-05,-9.18044e-06,1.14918e-05,1.14245e-05,9
-3.80294e-05,1.27516e-05,-3.37095e-06,9.15424e-05,1.28468e-05,-9.18632e-06,1.18652e-05,1.05219e-05,9
-3.76775e-05,1.51743e-05,-2.81427e-06,9.47452e-05,1.34251e-05,-8.70504e-06,1.21362e-05,1.24448e-05,9
-3.74099e-05,1.62679e-05,-2.90099e-06,7.59447e-05,1.24483e-05,-8.19626e-06,1.22817e-05,1.36385e-05,9
-3.59806e-05,1.60063e-05,-2.22269e-06,3.3119e-05,1.03733e-05,-9.18607e-06,1.24367e-05,1.14641e-05,9
-3.47148e-05,1.54146e-05,-6.34121e-07,-2.7939e-05,8.97266e-06,-1.08561e-05,1.22354e-05,7.13316e-06,9
-3.40273e-05,1.46619e-05,7.5564e-07,-9.19705e-05,8.49903e-06,-1.12509e-05,1.22287e-05,8.65568e-07,9
-3.4343e-05,1.58755e-05,7.48275e-08,-0.00013724,9.66241e-06,-9.57712e-06,1.34235e-05,-6.71637e-06,9
-3.49271e-05,1.71146e-05,-2.70726e-06,-0.000143719,1.13621e-05,-7.46248e-06,1.48259e-05,-1.49561e-05,9
-3.47607e-05,1.654e-05,-5.09365e-06,-0.000113267,1.375e-05,-6.78906e-06,1.50923e-05,-2.26273e-05,9
-3.34338e-05,1.48873e-05,-5.93444e-06,-6.80172e-05,1.56008e-05,-7.52498e-06,1.337e-05,-2.75997e-05,9
-3.12809e-05,1.42292e-05,-5.80989e-06,-3.03112e-05,1.58626e-05,-8.23507e-06,1.14134e-05,-2.89003e-05,9
-2.97222e-05,1.47367e-05,-6.06103e-06,-6.12911e-06,1.5025e-05,-8.5748e-06,1.07785e-05,-2.72077e-05,9
-2.89275e-05,1.50747e-05,-5.9143e-06,1.04815e-05,1.4302e-05,-9.60051e-06,1.11452e-05,-2.34101e-05,9
-2.8618e-05,1.46218e-05,-6.14305e-06,2.41115e-05,1.43415e-05,-1.05138e-05,1.2149e-05,-1.75723e-05,9
-2.8418e-05,1.355e-05,-7.3055e-06,3.33449e-05,1.42376e-05,-1.05544e-05,1.43649e-05,-1.18215e-05,9
-2.86391e-05,1.18311e-05,-8.66345e-06,3.50893e-05,1.29175e-05,-9.65795e-06,1.71179e-05,-8.3821e-06,9
-2.90428e-05,1.01129e-05,-9.54926e-06,2.93371e-05,1.15945e-05,-9.56644e-06,1.89203e-05,-7.53298e-06,9
-2.92142e-05,8.99085e-06,-9.99936e-06,2.13212e-05,1.20513e-05,-9.92578e-06,1.89396e-05,-8.55076e-06,9
-2.92245e-05,8.54914e-06,-1.03546e-05,1.51424e-05,1.30949e-05,-9.78608e-06,1.58941e-05,-8.57121e-06,9
-2.94386e-05,8.27711e-06,-1.14741e-05,1.02245e-05,1.26052e-05,-9.30501e-06,1.27734e-05,-7.65531e-06,9
-2.99367e-05,8.57797e-06,-1.27073e-05,5.70511e-06,1.17271e-05,-8.98335e-06,1.24983e-05,-7.19575e-06,9
-2.98312e-05,9.38517e-06,-1.31143e-05,2.23965e-06,1.27464e-05,-8.77475e-06,1.32206e-05,-6.20648e-06,9
-2.97625e-05,1.03025e-05,-1.12985e-05,1.09068e-06,1.3662e-05,-8.09844e-06,1.24008e-05,-4.72024e-06,9
-3.0922e-05,1.03567e-05,-9.08963e-06,2.74e-06,1.57334e-05,-6.78918e-06,1.07648e-05,-3.83704e-06,9
-2.95819e-05,9.74791e-06,-9.83393e-06,4.4373e-06,1.85569e-05,-6.35527e-06,1.01607e-05,-4.92724e-06,9
-2.67755e-05,9.61707e-06,-1.13611e-05,5.5624e-06,1.8618e-05,-7.95733e-06,9.80268e-06,-6.89848e-06,9
-2.58882e-05,9.90439e-06,-1.0923e-05,7.97291e-06,1.79001e-05,-1.07546e-05,8.82714e-06,-7.56711e-06,9
-2.59595e-05,1.09633e-05,-9.23966e-06,1.25782e-05,1.68281e-05,-1.21011e-05,8.61545e-06,-6.57773e-06,9
-2.68427e-05,1.13024e-05,-8.41953e-06,1.88533e-05,1.61352e-05,-1.14007e-05,8.10417e-06,-4.77232e-06,9
-2.74476e-05,1.09876e-05,-7.97878e-06,2.37608e-05,1.62489e-05,-1.11807e-05,8.36171e-06,-7.03094e-07,9
-2.73344e-05,1.09214e-05,-7.78805e-06,2.85587e-05,1.77003e-05,-1.09229e-05,9.95838e-06,4.94616e-06,9
-2.67625e-05,1.13825e-05,-7.61543e-06,3.11563e-05,1.95349e-05,-1.10439e-05,1.12641e-05,9.47848e-06,9
-2.68989e-05,1.1615e-05,-8.00638e-06,2.31525e-05,1.94896e-05,-1.01434e-05,1.18007e-05,1.30248e-05,9
-2.6937e-05,1.00748e-05,-8.25489e-06,1.03767e-06,1.72247e-05,-8.49517e-06,1.2135e-05,1.59963e-05,9
-2.6762e-05,9.03087e-06,-7.292e-06,-2.78213e-05,1.42366e-05,-7.06655e-06,1.32147e-05,1.86685e-05,9
-2.73123e-05,1.01684e-05,-6.09967e-06,-5.01065e-05,1.26549e-05,-6.51526e-06,1.47178e-05,2.08297e-05,9
-2.82925e-05,1.14391e-05,-6.09773e-06,-5.56292e-05,1.2218e-05,-7.29563e-06,1.61851e-05,2.24767e-05,9
-2.83918e-05,1.14969e-05,-7.66064e-06,-4.37313e-05,1.26811e-05,-8.81453e-06,1.60302e-05,2.12108e-05,9
-2.75577e-05,1.09036e-05,-8.85717e-06,-2.49493e-05,1.36298e-05,-1.09027e-05,1.43898e-05,1.69833e-05,9
-2.69506e-05,1.0809e-05,-8.37065e-06,-1.10905e-05,1.46067e-05,-1.24003e-05,1.20578e-05,1.13533e-05,9
-2.68199e-05,1.16588e-05,-6.97211e-06,-5.8568e-06,1.47571e-05,-1.22942e-05,1.17297e-05,4.99417e-06,9
-2.73175e-05,1.26063e-05,-5.99605e-06,-4.74583e-06,1.46729e-05,-1.17058e-05,1.40454e-05,-1.24098e-06,9
-2.75011e-05,1.21709e-05,-5.13982e-06,-3.56865e-06,1.50929e-05,-1.27403e-05,1.67087e-05,-3.95349e-06,9
-2.68982e-05,1.07444e-05,-3.83004e-06,-2.83497e-06,1.53108e-05,-1.39828e-05,1.75941e-05,1.11609e-07,9
-2.58619e-05,9.42968e-06,-2.24288e-06,-1.30506e-06,1.43183e-05,-1.33209e-05,1.69815e-05,8.10689e-06,9
-2.49988e-05,9.54567e-06,-1.71278e-06,2.31105e-06,1.28171e-05,-1.01223e-05,1.5499e-05,1.57032e-05,9
-2.43887e-05,1.03597e-05,-2.48113e-06,5.13227e-06,1.21433e-05,-8.04421e-06,1.3647e-05,2.10863e-05,9
-2.47705e-05,9.78188e-06,-3.55195e-06,6.76631e-06,1.29598e-05,-8.31149e-06,1.32323e-05,2.47326e-05,9
-2.61689e-05,8.10542e-06,-3.96874e-06,8.61962e-06,1.4255e-05,-9.04256e-06,1.32811e-05,2.60783e-05,9
-2.6796e-05,7.27138e-06,-3.92701e-06,8.07457e-06,1.59093e-05,-8.64138e-06,1.32448e-05,2.49323e-05,9
-2.64693e-05,9.38383e-06,-5.33393e-06,4.57124e-06,1.72412e-05,-6.71097e-06,1.20406e-05,2.20046e-05,9
-2.64231e-05,1.19976e-05,-6.10456e-06,7.30256e-07,1.66635e-05,-4.27692e-06,9.54453e-06,1.67634e-05,9
-2.58027e-05,1.26164e-05,-5.5915e-06,-3.92908e-06,1.54281e-05,-4.78921e-06,9.70031e-06,6.46983e-06,9
-2.61106e-05,1.31538e-05,-5.536e-06,-9.63141e-06,1.49862e-05,-7.40178e-06,1.09156e-05,-7.11024e-06,9
-2.74101e-05,1.47145e-05,-5.88847e-06,-1.4648e-05,1.56424e-05,-8.09617e-06,1.01181e-05,-1.89209e-05,9
-2.8391e-05,1.52934e-05,-6.20568e-06,-1.65351e-05,1.69254e-05,-7.67399e-06,8.31494e-06,-2.56063e-05,9
-2.8985e-05,1.45858e-05,-5.54511e-06,-1.504e-05,1.80863e-05,-7.96572e-06,7.58921e-06,-2.61677e-05,9
-2.94086e-05,1.5148e-05,-4.23966e-06,-1.09244e-05,1.79951e-05,-9.60788e-06,9.46364e-06,-2.15991e-05,9
-2.92998e-05,1.6756e-05,-2.38929e-06,-5.37334e-06,1.61072e-05,-1.05786e-05,1.01739e-05,-1.23916e-05,9
-2.75868e-05,1.71903e-05,-8.06805e-07,-2.00933e-06,1.46675e-05,-9.34623e-06,9.93732e-06,-3.91878e-06,9
-2.61672e-05,1.69414e-05,-1.63308e-06,-7.3829e-07,1.47329e-05,-8.68215e-06,1.07135e-05,-5.91709e-08,9
-2.59839e-05,1.63834e-05,-3.72129e-06,1.54441e-06,1.54006e-05,-9.6956e-06,1.18196e-05,9.13158e-09,9
-2.69826e-05,1.5623e-05,-3.90211e-06,8.41714e-06,1.59815e-05,-9.66775e-06,1.27276e-05,-5.18852e-06,9
-2.81056e-05,1.52936e-05,-2.78055e-06,2.19708e-05,1.56319e-05,-8.46049e-06,1.24575e-05,-1.50328e-05,9
-2.92258e-05,1.55177e-05,-2.51016e-06,4.13754e-05,1.50444e-05,-7.34379e-06,9.81871e-06,-2.55283e-05,9
-3.02e-05,1.64343e-05,-3.30322e-06,6.24547e-05,1.4653e-05,-7.55787e-06,6.78554e-06,-3.20928e-05,9
-3.0828e-05,1.75684e-05,-4.01654e-06,7.79526e-05,1.48275e-05,-8.71421e-06,7.27704e-06,-3.30422e-05,9
-3.16521e-05,1.79883e-05,-4.24521e-06,8.12776e-05,1.50326e-05,-9.7164e-06,1.05577e-05,-2.85939e-05,9
-3.27263e-05,1.71252e-05,-4.0655e-06,7.00445e-05,1.54394e-05,-1.00893e-05,1.24165e-05,-2.12946e-05,9
-3.38299e-05,1.65e-05,-3.87496e-06,4.43708e-05,1.58313e-05,-9.96312e-06,1.20675e-05,-1.42958e-05,9
-3.44756e-05,1.67352e-05,-3.24135e-06,4.87708e-06,1.57345e-05,-8.91391e-06,1.19439e-05,-7.52327e-06,9
-3.47792e-05,1.73628e-05,-1.95462e-06,-3.92215e-05,1.58721e-05,-7.98406e-06,1.32432e-05,3.25334e-07,9
-3.51117e-05,1.80245e-05,-2.26519e-06,-7.38136e-05,1.59252e-05,-8.31308e-06,1.59471e-05,8.65937e-06,9
-3.55151e-05,1.85371e-05,-5.30188e-06,-9.17154e-05,1.53231e-05,-9.27704e-06,1.7518e-05,1.35741e-05,9
-3.62101e-05,1.8385e-05,-8.76485e-06,-9.07052e-05,1.44338e-05,-1.03027e-05,1.56361e-05,1.65432e-05,9
-3.55859e-05,1.81529e-05,-9.9949e-06,-7.2944e-05,1.453e-05,-1.15303e-05,1.26444e-05,2.00055e-05,9
-3.40877e-05,1.73662e-05,-1.07238e-05,-4.80233e-05,1.58456e-05,-1.11837e-05,1.23844e-05,2.33844e-05,9
-3.36493e-05,1.56961e-05,-1.21517e-05,-2.67619e-05,1.71282e-05,-8.50377e-06,1.47834e-05,2.48713e-05,9
-3.36406e-05,1.48779e-05,-1.33903e-05,-1.46468e-05,1.79354e-05,-8.52516e-06,1.61833e-05,2.33443e-05,9
-3.3299e-05,1.43398e-05,-1.47214e-05,-7.33798e-06,1.77115e-05,-1.09379e-05,1.41033e-05,2.16664e-05,9
-3.24489e-05,1.42412e-05,-1.50183e-05,-1.62793e-06,1.67192e-05,-1.20562e-05,1.15654e-05,2.08204e-05,9
-3.25334e-05,1.40591e-05,-1.46398e-05,-2.95526e-06,1.53223e-05,-1.18297e-05,1.04838e-05,2.02654e-05,9
-3.24588e-05,1.29843e-05,-1.38436e-05,-1.31194e-05,1.43974e-05,-1.14871e-05,1.06736e-05,1.92107e-05,9
-3.11969e-05,1.19879e-05,-1.2034e-05,-3.12138e-05,1.42921e-05,-1.1968e-05,1.16884e-05,1.85139e-05,9
-3.01385e-05,1.18399e-05,-1.02426e-05,-4.80502e-05,1.40386e-05,-1.21789e-05,1.32861e-05,1.71694e-05,9
-3.1242e-05,1.32856e-05,-8.63388e-06,-5.0817e-05,1.45138e-05,-1.2453e-05,1.40524e-05,1.32526e-05,9
-3.35023e-05,1.54569e-05,-7.48654e-06,-3.79319e-05,1.55258e-05,-1.26991e-05,1.40133e-05,8.00264e-06,9
-3.52041e-05,1.5855e-05,-7.46277e-06,-1.91843e-05,1.63011e-05,-1.23093e-05,1.18444e-05,4.92917e-06,9
-3.64195e-05,1.48477e-05,-8.48731e-06,-6.4106e-06,1.71061e-05,-1.16746e-05,8.85644e-06,6.35537e-06,9
-3.75427e-05,1.41247e-05,-9.28556e-06,-9.58024e-07,1.73352e-05,-1.1703e-05,7.76219e-06,1.02928e-05,9
-3.81173e-05,1.43461e-05,-8.86043e-06,1.99681e-06,1.62297e-05,-1.20324e-05,7.82085e-06,1.15377e-05,9
-3.74897e-05,1.49366e-05,-7.25447e-06,3.97346e-06,1.5176e-05,-1.19001e-05,7.76609e-06,8.17815e-06,9
-3.62258e-05,1.48184e-05,-6.10551e-06,3.29288e-06,1.52214e-05,-1.18741e-05,7.4425e-06,4.28086e-06,9
-3.54602e-05,1.43917e-05,-5.5434e-06,1.26405e-06,1.55417e-05,-1.10149e-05,8.44174e-06,1.97106e-06,9
-3.53365e-05,1.39553e-05,-5.06327e-06,1.20988e-07,1.47462e-05,-9.1294e-06,1.03422e-05,1.02314e-06,9
-3.45155e-05,1.3456e-05,-6.03647e-06,5.86788e-09,1.33084e-05,-7.91906e-06,1.24109e-05,-1.80396e-07,9
-3.38604e-05,1.19895e-05,-8.51271e-06,1.99435e-07,1.16939e-05,-8.49144e-06,1.26069e-05,-2.71788e-06,9
-3.3937e-05,1.05697e-05,-1.06955e-05,9.79432e-07,1.06081e-05,-8.98634e-06,1.23067e-05,-6.10406e-06,9
-3.39773e-05,1.04885e-05,-1.17664e-05,1.38216e-06,1.08212e-05,-8.85776e-06,1.39121e-05,-8.47998e-06,9
-3.46402e-05,1.10646e-05,-1.28532e-05,-4.39503e-07,1.22914e-05,-9.29698e-06,1.61953e-05,-9.61076e-06,9
-3.61933e-05,1.21451e-05,-1.39146e-05,-2.03925e-06,1.45279e-05,-1.01418e-05,1.58206e-05,-1.0019e-05,9
-3.71599e-05,1.24715e-05,-1.32322e-05,-1.77838e-06,1.65327e-05,-1.00122e-05,1.4502e-05,-9.88641e-06,9
-3.60455e-05,1.21216e-05,-1.09475e-05,-1.17237e-06,1.73105e-05,-1.00191e-05,1.50136e-05,-9.17971e-06,9
-3.28462e-05,1.27985e-05,-8.49647e-06,3.05355e-07,1.53391e-05,-1.08581e-05,1.74044e-05,-7.48036e-06,9
-3.05487e-05,1.33008e-05,-5.81871e-06,3.40377e-06,1.27049e-05,-1.04055e-05,1.7951e-05,-5.3721e-06,9
-2.92004e-05,1.24374e-05,-5.31329e-06,4.48324e-06,1.24901e-05,-8.00048e-06,1.67324e-05,-4.00702e-06,9
-2.88213e-05,1.18893e-05,-7.48914e-06,1.68911e-06,1.3051e-05,-6.27835e-06,1.78424e-05,-2.40641e-06,9
-2.88071e-05,1.19619e-05,-8.77086e-06,-4.89663e-07,1.35721e-05,-6.37339e-06,1.93753e-05,-6.01927e-09,9
-2.81648e-05,1.18847e-05,-8.65158e-06,-5.37404e-07,1.39619e-05,-6.94853e-06,1.72212e-05,1.67983e-06,9
-2.75809e-05,1.16056e-05,-8.76048e-06,7.41336e-07,1.39937e-05,-7.86401e-06,1.30851e-05,8.42373e-07,9
-2.75125e-05,1.07186e-05,-8.30341e-06,1.47266e-06,1.39399e-05,-8.27522e-06,1.06186e-05,-1.73946e-06,9
-2.75682e-05,1.04736e-05,-6.4649e-06,4.44072e-07,1.29895e-05,-7.90226e-06,1.03283e-05,-4.3752e-06,9
-2.70849e-05,1.06161e-05,-5.36431e-06,-1.46869e-06,1.1988e-05,-7.30103e-06,1.01718e-05,-5.98738e-06,9
-2.74362e-05,1.0174e-05,-5.58839e-06,-2.33782e-06,1.16439e-05,-8.06214e-06,8.43938e-06,-5.94458e-06,9
-2.81137e-05,9.90906e-06,-6.56925e-06,-9.00752e-07,1.22052e-05,-9.37338e-06,8.16784e-06,-5.8562e-06,9
-2.83198e-05,1.02198e-05,-6.84371e-06,8.07584e-07,1.25935e-05,-1.03799e-05,1.02803e-05,-5.23448e-06,9
-2.76258e-05,1.11222e-05,-5.35566e-06,1.00925e-06,1.22779e-05,-1.13146e-05,1.18767e-05,-4.84048e-06,9
-2.67109e-05,1.13813e-05,-3.44368e-06,-1.88133e-07,1.13593e-05,-1.10888e-05,1.11533e-05,-4.65784e-06,9
-2.56283e-05,1.06707e-05,-2.54781e-06,-9.33196e-07,9.79052e-06,-9.4899e-06,1.04463e-05,-5.25941e-06,9
-2.46588e-05,1.06588e-05,-3.20266e-06,-9.55098e-07,8.06097e-06,-8.41919e-06,1.03745e-05,-6.16781e-06,9
-2.4145e-05,1.14312e-05,-4.22803e-06,-5.10409e-07,7.06366e-06,-9.09079e-06,1.00975e-05,-6.06845e-06,9
-2.42398e-05,1.11992e-05,-5.5501e-06,-6.98426e-07,7.49573e-06,-1.01694e-05,9.58327e-06,-4.08563e-06,9
-2.42702e-05,1.0031e-05,-7.16889e-06,-1.32412e-06,8.7914e-06,-1.0561e-05,1.04804e-05,-1.64491e-06,9
-2.452e-05,9.45489e-06,-7.86175e-06,-1.17274e-06,9.84278e-06,-9.36053e-06,1.23737e-05,-4.58307e-07,9
-2.55944e-05,1.03711e-05,-6.74923e-06,4.05456e-06,1.01348e-05,-7.62931e-06,1.31982e-05,1.35869e-06,9
-2.64585e-05,1.18978e-05,-5.76044e-06,2.08499e-05,9.72103e-06,-6.9852e-06,1.30157e-05,3.46759e-06,9
-2.60295e-05,1.25307e-05,-6.72815e-06,4.78001e-05,8.53419e-06,-7.37056e-06,1.34717e-05,2.63705e-06,9
-2.51221e-05,1.29973e-05,-7.84828e-06,8.01361e-05,7.68281e-06,-7.81252e-06,1.49966e-05,-3.25055e-07,9
-2.60372e-05,1.40634e-05,-8.79541e-06,0.000120172,7.28275e-06,-8.49125e-06,1.56139e-05,-4.34468e-07,9
-2.7593e-05,1.34013e-05,-9.42979e-06,0.000156212,7.34062e-06,-1.03787e-05,1.49722e-05,1.68128e-06,9
-2.83728e-05,1.16568e-05,-9.23038e-06,0.00016518,7.71839e-06,-1.14784e-05,1.46069e-05,3.02425e-06,9
-2.7817e-05,1.28857e-05,-8.95503e-06,0.000139973,6.768e-06,-9.58662e-06,1.51523e-05,2.33628e-06,9
-2.73323e-05,1.63243e-05,-9.24795e-06,7.70748e-05,6.76245e-06,-7.89305e-06,1.54975e-05,-4.81038e-08,9
-2.76469e-05,1.77881e-05,-8.61145e-06,-2.3271e-05,8.90353e-06,-8.18458e-06,1.41338e-05,-2.79488e-06,9
-2.96529e-05,1.6386e-05,-6.42889e-06,-0.000129733,1.1285e-05,-7.50684e-06,1.22459e-05,-5.01413e-06,9
-3.2415e-05,1.48628e-05,-4.79726e-06,-0.00020608,1.28231e-05,-6.16198e-06,1.17444e-05,-6.86303e-06,9
-3.23668e-05,1.44778e-05,-4.0488e-06,-0.000246262,1.23107e-05,-6.06419e-06,1.14383e-05,-7.15121e-06,9
-3.0474e-05,1.41136e-05,-4.1685e-06,-0.000246747,1.13042e-05,-7.11483e-06,1.16149e-05,-5.29315e-06,9
-2.9007e-05,1.25789e-05,-4.59784e-06,-0.000205367,1.09622e-05,-7.81479e-06,1.20051e-05,-1.17666e-06,9
-2.92875e-05,1.08746e-05,-5.28562e-06,-0.000140392,1.15984e-05,-7.76587e-06,1.10865e-05,3.85303e-06,9
-3.07593e-05,9.96486e-06,-6.37731e-06,-8.20739e-05,1.17559e-05,-8.46323e-06,1.0001e-05,8.06641e-06,9
-3.20137e-05,9.61443e-06,-7.511e-06,-4.28157e-05,1.06826e-05,-9.70541e-06,9.90307e-06,1.02398e-05,9
-3.22364e-05,9.8468e-06,-7.41093e-06,-1.39568e-05,9.73857e-06,-9.83362e-06,1.13878e-05,1.08577e-05,9
-3.15931e-05,9.50663e-06,-6.54912e-06,8.85105e-06,9.40353e-06,-8.55376e-06,1.34495e-05,1.25039e-05,9
-3.06383e-05,8.36324e-06,-5.46182e-06,2.10268e-05,9.0376e-06,-7.34831e-06,1.44807e-05,1.36128e-05,9
-2.99129e-05,7.33837e-06,-3.63112e-06,1.99593e-05,9.69817e-06,-7.50877e-06,1.45616e-05,1.07341e-05,9
-3.00845e-05,7.32153e-06,-2.57447e-06,1.32823e-05,1.19327e-05,-8.44028e-06,1.43537e-05,3.37831e-06,9
-3.10021e-05,7.95024e-06,-3.07973e-06,9.74116e-06,1.27151e-05,-8.89382e-06,1.3737e-05,-5.38801e-06,9
-3.19177e-05,9.16543e-06,-4.72127e-06,1.08563e-05,1.12572e-05,-9.15105e-06,1.25462e-05,-1.33652e-05,9
-3.25868e-05,1.06822e-05,-6.11739e-06,1.17107e-05,9.71696e-06,-9.7271e-06,1.20449e-05,-2.00277e-05,9
-3.35664e-05,1.12428e-05,-7.66244e-06,1.15256e-05,1.03691e-05,-9.93443e-06,1.18536e-05,-2.36347e-05,9
-3.47104e-05,1.02024e-05,-9.1196e-06,1.33582e-05,1.32409e-05,-9.94909e-06,1.26826e-05,-2.20882e-05,9
-3.51327e-05,8.64946e-06,-1.03061e-05,1.64671e-05,1.55749e-05,-1.02855e-05,1.41861e-05,-1.69065e-05,9
-3.49382e-05,8.14788e-06,-1.08765e-05,1.74744e-05,1.48993e-05,-1.04484e-05,1.3829e-05,-1.01974e-05,9
-3.44425e-05,8.52043e-06,-9.76423e-06,1.52765e-05,1.37347e-05,-1.00052e-05,1.1169e-05,-2.86198e-06,9
-3.37702e-05,1.01142e-05,-7.3845e-06,1.18717e-05,1.32134e-05,-9.7466e-06,9.9873e-06,3.24403e-06,9
-3.39973e-05,1.23205e-05,-5.14052e-06,8.52013e-06,1.23346e-05,-9.15929e-06,1.10335e-05,7.53373e-06,9
-3.38406e-05,1.41398e-05,-3.90967e-06,5.75936e-06,1.17426e-05,-7.65096e-06,1.06737e-05,8.76834e-06,9
-3.3242e-05,1.54653e-05,-3.95433e-06,4.8109e-06,1.18881e-05,-6.92183e-06,1.0079e-05,6.35031e-06,9
-3.2835e-05,1.62507e-05,-2.90602e-06,4.65158e-06,1.28657e-05,-7.90773e-06,1.08586e-05,1.31272e-06,9
-3.13982e-05,1.60319e-05,-1.12192e-06,5.2071e-06,1.31004e-05,-8.92945e-06,1.17186e-05,-5.42047e-06,9
-3.01698e-05,1.49258e-05,-6.57856e-07,6.94448e-06,1.28024e-05,-9.68017e-06,1.14888e-05,-1.0604e-05,9
-3.05173e-05,1.35632e-05,-5.54925e-07,7.9557e-06,1.35951e-05,-1.10591e-05,1.12676e-05,-1.33188e-05,9
-3.12266e-05,1.29858e-05,-1.29219e-06,7.95451e-06,1.51228e-05,-1.11265e-05,1.15927e-05,-1.26995e-05,9
-3.13922e-05,1.32592e-05,-1.96317e-06,5.61254e-06,1.59241e-05,-9.46201e-06,1.09274e-05,-8.914e-06,9
-3.12854e-05,1.43601e-05,-2.40771e-06,3.14377e-06,1.43587e-05,-7.3912e-06,9.37907e-06,-3.24925e-06,9
-3.10159e-05,1.54041e-05,-2.14087e-06,3.20711e-06,1.31431e-05,-6.309e-06,8.6947e-06,2.88904e-06,9
-3.09699e-05,1.5395e-05,-1.3463e-06,5.10089e-06,1.33219e-05,-5.92817e-06,9.65108e-06,6.74672e-06,9
-2.99419e-05,1.52032e-05,-1.01496e-06,7.13651e-06,1.40989e-05,-6.3203e-06,1.16768e-05,8.09988e-06,9
-2.8569e-05,1.54941e-05,-1.56366e-06,7.39066e-06,1.4488e-05,-7.36949e-06,1.24309e-05,8.36033e-06,9
-2.87042e-05,1.59703e-05,-2.51212e-06,6.73062e-06,1.43684e-05,-8.37113e-06,1.07957e-05,8.28462e-06,9
-2.82372e-05,1.5077e-05,-3.25619e-06,7.17895e-06,1.53589e-05,-8.51039e-06,8.30243e-06,6.44785e-06,9
-2.65026e-05,1.29166e-05,-4.78886e-06,7.71651e-06,1.64152e-05,-7.8364e-06,7.87393e-06,3.80272e-06,9
-2.54873e-05,1.10386e-05,-6.63255e-06,5.90988e-06,1.67076e-05,-7.12001e-06,9.95552e-06,2.27295e-06,9
-2.61478e-05,1.04003e-05,-7.7795e-06,2.85996e-06,1.58106e-05,-7.42545e-06,1.22178e-05,2.42911e-06,9
-2.75033e-05,1.00027e-05,-8.18873e-06,1.09384e-06,1.41096e-05,-8.74696e-06,1.31633e-05,3.72455e-06,9
-2.83708e-05,9.95469e-06,-8.02575e-06,1.16304e-06,1.25286e-05,-9.76042e-06,1.31381e-05,4.55368e-06,9
-2.79919e-05,1.06827e-05,-7.22267e-06,2.04374e-06,1.27778e-05,-1.08546e-05,1.26534e-05,4.11149e-06,9
-2.60825e-05,1.13714e-05,-6.40815e-06,2.33635e-06,1.45675e-05,-1.15398e-05,1.12633e-05,2.72548e-06,9
-2.49211e-05,1.20484e-05,-5.72901e-06,1.43429e-06,1.59446e-05,-1.13218e-05,9.70957e-06,1.49072e-06,9
-2.53707e-05,1.25982e-05,-5.64042e-06,7.78623e-07,1.57487e-05,-1.0786e-05,8.91191e-06,1.2721e-06,9
-2.59925e-05,1.13937e-05,-6.3562e-06,1.04748e-06,1.47194e-05,-1.05925e-05,9.07012e-06,9.02404e-07,9
-2.71422e-05,1.0295e-05,-7.03092e-06,7.41085e-07,1.42528e-05,-1.0025e-05,9.11504e-06,9.80879e-07,9
-2.85046e-05,1.16377e-05,-8.38573e-06,-1.37219e-06,1.49523e-05,-1.09056e-05,8.22818e-06,2.90784e-06,9
-2.90053e-05,1.2587e-05,-9.74084e-06,-3.41279e-06,1.58297e-05,-1.15199e-05,7.77241e-06,5.49172e-06,9
-2.86544e-05,1.24522e-05,-8.50607e-06,-3.61412e-06,1.57572e-05,-9.13857e-06,8.9341e-06,4.92948e-06,9
-2.81757e-05,1.13441e-05,-7.73132e-06,-3.4555e-06,1.51071e-05,-6.95511e-06,9.17399e-06,1.3151e-06,9
-2.83533e-05,9.52082e-06,-9.04018e-06,-4.20958e-06,1.448e-05,-5.86913e-06,1.06165e-05,-6.74038e-07,9
-2.8854e-05,8.64781e-06,-9.65315e-06,-4.67361e-06,1.36841e-05,-5.86842e-06,1.4022e-05,1.20364e-07,9
-2.92245e-05,9.37814e-06,-8.69735e-06,-3.98257e-06,1.35852e-05,-7.7944e-06,1.4937e-05,2.29452e-06,9
-3.00623e-05,1.11859e-05,-7.51165e-06,-1.38338e-06,1.40625e-05,-8.62536e-06,1.41102e-05,4.96354e-06,9
-3.15367e-05,1.18346e-05,-8.07029e-06,1.91335e-06,1.42962e-05,-8.1725e-06,1.37014e-05,7.11584e-06,9
-3.18903e-05,1.19858e-05,-9.14357e-06,5.54096e-06,1.49653e-05,-7.15155e-06,1.48233e-05,7.43855e-06,9
-3.21724e-05,1.36824e-05,-9.21746e-06,9.3675e-06,1.57992e-05,-7.22625e-06,1.57998e-05,7.86309e-06,9
-3.29806e-05,1.4839e-05,-8.65856e-06,1.29356e-05,1.54745e-05,-9.01942e-06,1.52771e-05,8.27198e-06,9
-3.34013e-05,1.47353e-05,-9.27297e-06,1.69953e-05,1.4472e-05,-9.88416e-06,1.46662e-05,9.04562e-06,9
-3.29244e-05,1.48628e-05,-1.01672e-05,1.9576e-05,1.39393e-05,-8.63277e-06,1.48544e-05,1.22447e-05,9
-3.17611e-05,1.57061e-05,-9.78334e-06,1.92408e-05,1.42171e-05,-6.39574e-06,1.58671e-05,1.58189e-05,9
-3.12203e-05,1.63853e-05,-8.86958e-06,1.19817e-05,1.48406e-05,-5.73437e-06,1.69949e-05,1.72206e-05,9
-3.09612e-05,1.56213e-05,-8.74233e-06,-3.60073e-06,1.46111e-05,-5.69168e-06,1.73539e-05,1.68572e-05,9
-3.01943e-05,1.41586e-05,-9.4945e-06,-2.44805e-05,1.31458e-05,-6.01697e-06,1.75102e-05,1.63443e-05,9
-2.96827e-05,1.3165e-05,-9.79651e-06,-4.22817e-05,1.16653e-05,-7.23832e-06,1.77379e-05,1.54441e-05,9
-2.98361e-05,1.32299e-05,-8.71401e-06,-4.64887e-05,1.2076e-05,-8.49064e-06,1.73312e-05,1.2631e-05,9
-3.00916e-05,1.4051e-05,-7.37462e-06,-3.64601e-05,1.29171e-05,-8.64788e-06,1.55438e-05,7.58696e-06,9
-3.03941e-05,1.47648e-05,-6.64734e-06,-2.34315e-05,1.29226e-05,-9.42821e-06,1.41231e-05,1.79732e-06,9
-3.02269e-05,1.55013e-05,-5.44853e-06,-1.57621e-05,1.22983e-05,-1.04838e-05,1.48046e-05,-4.6169e-06,9
-2.98165e-05,1.64064e-05,-4.17627e-06,-1.23168e-05,1.2611e-05,-1.12466e-05,1.58779e-05,-1.11385e-05,9
-3.00243e-05,1.58417e-05,-3.66862e-06,-1.16796e-05,1.43988e-05,-1.28008e-05,1.60525e-05,-1.57333e-05,9
-3.14667e-05,1.43541e-05,-4.49412e-06,-1.07914e-05,1.54736e-05,-1.3382e-05,1.61738e-05,-1.74431e-05,9
-3.30307e-05,1.42876e-05,-5.14741e-06,-9.57799e-06,1.42663e-05,-1.23263e-05,1.60695e-05,-1.79822e-05,9
-3.39835e-05,1.51406e-05,-4.6182e-06,-9.47222e-06,1.25879e-05,-1.2083e-05,1.46232e-05,-1.67705e-05,9
-3.3553e-05,1.47868e-05,-4.31362e-06,-8.45714e-06,1.27364e-05,-1.28372e-05,1.26474e-05,-1.32227e-05,9
-3.21851e-05,1.33627e-05,-5.49649e-06,-5.02767e-06,1.36167e-05,-1.21693e-05,1.26506e-05,-1.00786e-05,9
-3.16962e-05,1.19907e-05,-7.32479e-06,-9.77736e-07,1.38499e-05,-1.10641e-05,1.47181e-05,-7.36118e-06,9
-3.07423e-05,1.07273e-05,-8.68163e-06,3.68541e-07,1.34702e-05,-1.07302e-05,1.73276e-05,-5.24269e-06,9
-2.89785e-05,1.01694e-05,-8.48506e-06,-2.6693e-06,1.24214e-05,-1.02543e-05,1.87243e-05,-3.15527e-06,9
-2.80754e-05,1.03999e-05,-6.3437e-06,-8.84275e-06,1.24501e-05,-1.02512e-05,1.57017e-05,-1.49101e-06,9
-2.86014e-05,1.08595e-05,-4.33769e-06,-1.6085e-05,1.33289e-05,-9.5726e-06,1.19595e-05,-3.69657e-07,9
-2.94838e-05,1.10011e-05,-3.60202e-06,-2.07825e-05,1.34041e-05,-9.13148e-06,1.11294e-05,8.32483e-07,9
-2.86781e-05,1.19074e-05,-3.23229e-06,-1.80784e-05,1.21143e-05,-9.11788e-06,1.17987e-05,1.18691e-06,9
-2.76665e-05,1.28786e-05,-3.07799e-06,-1.11056e-05,1.08345e-05,-8.41335e-06,1.27834e-05,2.08945e-07,9
-2.77321e-05,1.26997e-05,-5.04952e-06,-5.56932e-06,1.08e-05,-7.63566e-06,1.37448e-05,-1.31691e-06,9
-2.79538e-05,1.14748e-05,-7.50292e-06,-1.70973e-06,1.06242e-05,-6.53396e-06,1.36871e-05,-2.08554e-06,9
-2.74566e-05,1.00391e-05,-8.19241e-06,-1.56022e-07,1.03407e-05,-6.09543e-06,1.27305e-05,-2.78436e-06,9
-2.6853e-05,9.44267e-06,-8.40034e-06,-4.05017e-07,1.05234e-05,-6.0618e-06,1.17501e-05,-2.7199e-06,9
-2.75613e-05,9.20941e-06,-8.11835e-06,1.15691e-07,1.10002e-05,-6.69148e-06,1.06946e-05,-1.27278e-06,9
-2.93751e-05,8.98582e-06,-7.05062e-06,1.86879e-06,1.07954e-05,-6.95624e-06,1.03419e-05,1.76097e-06,9
-3.0492e-05,8.32123e-06,-5.98271e-06,2.69924e-06,1.01973e-05,-6.90374e-06,1.05512e-05,7.22771e-06,9
-2.99885e-05,8.40959e-06,-5.88288e-06,1.83748e-06,9.50911e-06,-6.86908e-06,1.12583e-05,1.56118e-05,9
-2.89668e-05,9.91795e-06,-7.09763e-06,6.74997e-07,8.99837e-06,-6.78544e-06,1.23614e-05,2.53664e-05,9
-2.81587e-05,1.14964e-05,-8.66152e-06,-5.24925e-07,9.17601e-06,-6.75091e-06,1.37705e-05,3.27059e-05,9
-2.83247e-05,1.14813e-05,-8.9667e-06,-1.72929e-06,1.07726e-05,-7.42691e-06,1.40524e-05,3.47371e-05,9
-2.93415e-05,9.90213e-06,-8.036e-06,-1.98509e-06,1.24516e-05,-8.53323e-06,1.27858e-05,3.17836e-05,9
-3.04777e-05,8.68216e-06,-7.83879e-06,-1.07874e-06,1.28132e-05,-9.47714e-06,1.16295e-05,2.58636e-05,9
-3.12001e-05,9.15603e-06,-9.31028e-06,9.19721e-08,1.23722e-05,-1.0876e-05,1.1789e-05,1.80591e-05,9
-3.24335e-05,1.04082e-05,-1.06422e-05,2.07955e-06,1.25706e-05,-1.14415e-05,1.22031e-05,1.03872e-05,9
-3.36861e-05,1.2096e-05,-9.25527e-06,5.52386e-06,1.328e-05,-1.02275e-05,1.21437e-05,5.04647e-06,9
-3.40683e-05,1.29721e-05,-6.60726e-06,8.86257e-06,1.35135e-05,-8.35108e-06,1.22376e-05,1.28943e-06,9
-3.37817e-05,1.24394e-05,-6.63746e-06,9.97041e-06,1.30665e-05,-7.67936e-06,1.28566e-05,-1.45528e-06,9
-3.36999e-05,1.15848e-05,-8.85519e-06,9.85212e-06,1.19907e-05,-7.61294e-06,1.23006e-05,-3.63135e-06,9
-3.39016e-05,1.19362e-05,-9.10132e-06,8.88726e-06,1.17251e-05,-7.77384e-06,9.93461e-06,-4.57546e-06,9
-3.3015e-05,1.32309e-05,-7.22033e-06,6.83393e-06,1.12695e-05,-8.34252e-06,8.98721e-06,-4.85062e-06,9
-3.13762e-05,1.34612e-05,-6.75465e-06,2.32417e-06,1.10954e-05,-8.52404e-06,9.64262e-06,-5.5113e-06,9
-3.10883e-05,1.29591e-05,-8.38106e-06,-4.83901e-06,1.2277e-05,-9.37958e-06,8.81115e-06,-4.34385e-06,9
-3.25284e-05,1.18933e-05,-9.57183e-06,-1.21968e-05,1.37595e-05,-1.02995e-05,7.57953e-06,-3.04861e-06,9
-3.36896e-05,1.16677e-05,-8.75787e-06,-1.90862e-05,1.50021e-05,-9.30396e-06,7.73534e-06,-4.15575e-06,9
-3.29875e-05,1.23728e-05,-7.01405e-06,-2.19319e-05,1.55804e-05,-7.92899e-06,9.5188e-06,-8.43837e-06,9
-3.15341e-05,1.45473e-05,-7.01331e-06,-1.97792e-05,1.53216e-05,-8.41366e-06,1.11197e-05,-1.50592e-05,9
-3.09681e-05,1.5874e-05,-8.73434e-06,-1.45142e-05,1.42451e-05,-1.06948e-05,9.96946e-06,-2.15913e-05,9
-3.09568e-05,1.57091e-05,-1.00917e-05,-1.02553e-05,1.34132e-05,-1.19576e-05,8.96615e-06,-2.61646e-05,9
-3.1068e-05,1.55015e-05,-9.62e-06,-8.27582e-06,1.31673e-05,-1.14838e-05,8.57901e-06,-2.64027e-05,9
-3.05835e-05,1.49146e-05,-7.15769e-06,-7.19637e-06,1.32604e-05,-1.10108e-05,7.90509e-06,-2.22402e-05,9
-2.97013e-05,1.47965e-05,-5.27849e-06,-6.22647e-06,1.38333e-05,-1.10475e-05,8.20464e-06,-1.62284e-05,9
-2.93381e-05,1.50181e-05,-4.85943e-06,-4.51372e-06,1.49697e-05,-1.05847e-05,9.82188e-06,-1.03064e-05,9
-2.99574e-05,1.51915e-05,-4.99275e-06,-3.47595e-06,1.57364e-05,-9.06776e-06,1.18468e-05,-6.11811e-06,9
-3.07922e-05,1.43042e-05,-5.63622e-06,-2.91448e-06,1.56454e-05,-8.12653e-06,1.35846e-05,-4.99274e-06,9
-3.10645e-05,1.295e-05,-6.28471e-06,-2.49523e-06,1.48166e-05,-8.61159e-06,1.43315e-05,-6.30051e-06,9
-3.13159e-05,1.23958e-05,-6.01288e-06,-2.86592e-06,1.37651e-05,-9.67942e-06,1.42573e-05,-7.15172e-06,9
-3.22342e-05,1.32296e-05,-6.15515e-06,-5.27127e-06,1.29357e-05,-1.01666e-05,1.459e-05,-5.28721e-06,9
-3.3035e-05,1.40969e-05,-7.05993e-06,-7.53734e-06,1.18099e-05,-9.64106e-06,1.45499e-05,-1.51817e-06,9
-3.30913e-05,1.38911e-05,-7.72861e-06,-9.21039e-06,1.17959e-05,-8.37256e-06,1.33886e-05,9.17686e-07,9
-3.2895e-05,1.30744e-05,-8.28587e-06,-1.05101e-05,1.30701e-05,-6.97534e-06,1.18218e-05,1.10918e-06,9
-3.1996e-05,1.28122e-05,-8.59296e-06,-1.07674e-05,1.38433e-05,-6.92655e-06,1.05343e-05,2.366e-06,9
-3.0499e-05,1.19312e-05,-9.17696e-06,-1.13832e-05,1.42585e-05,-7.78339e-06,9.78893e-06,5.53188e-06,9
-3.04243e-05,1.07002e-05,-9.29868e-06,-9.78738e-06,1.51003e-05,-7.72455e-06,1.11036e-05,8.45104e-06,9
-3.24324e-05,1.10736e-05,-9.47383e-06,-1.95973e-06,1.58573e-05,-8.31038e-06,1.37408e-05,1.02866e-05,9
-3.32423e-05,1.1925e-05,-9.64372e-06,1.03201e-05,1.58789e-05,-9.85111e-06,1.35436e-05,1.17354e-05,9
-3.05612e-05,1.23137e-05,-7.79538e-06,1.82901e-05,1.58311e-05,-1.12669e-05,1.26355e-05,1.24565e-05,9
-2.75846e-05,1.28599e-05,-4.85863e-06,1.8672e-05,1.55208e-05,-1.22726e-05,1.27437e-05,1.16184e-05,9
-2.63574e-05,1.24622e-05,-3.2134e-06,2.01604e-05,1.46464e-05,-1.09827e-05,1.27237e-05,1.09549e-05,9
-2.65025e-05,1.19182e-05,-3.59675e-06,2.40233e-05,1.55639e-05,-1.03056e-05,1.32748e-05,1.04661e-05,9
-2.76558e-05,1.2194e-05,-4.61642e-06,2.56208e-05,1.67324e-05,-1.06296e-05,1.25397e-05,9.70785e-06,9
-2.85104e-05,1.26594e-05,-5.09995e-06,2.25388e-05,1.67261e-05,-1.02831e-05,1.18793e-05,8.30179e-06,9
-2.82045e-05,1.36009e-05,-5.21082e-06,1.83588e-05,1.59016e-05,-1.03806e-05,1.20674e-05,5.87756e-06,9
-2.73223e-05,1.41287e-05,-5.29552e-06,1.87805e-05,1.45024e-05,-1.06714e-05,1.18802e-05,4.51972e-06,9
-2.64826e-05,1.40093e-05,-5.83619e-06,1.76069e-05,1.41028e-05,-1.00441e-05,1.12741e-05,4.9136e-06,9
-2.55448e-05,1.30425e-05,-6.23624e-06,4.55951e-06,1.46265e-05,-8.78993e-06,1.00444e-05,6.7994e-06,9
-2.51066e-05,1.23332e-05,-5.9461e-06,-1.87892e-05,1.43016e-05,-8.94101e-06,7.80913e-06,8.23224e-06,9
-2.49249e-05,1.26341e-05,-5.94578e-06,-3.96385e-05,1.28062e-05,-9.50346e-06,7.44623e-06,8.17091e-06,9
-2.54845e-05,1.25961e-05,-6.62602e-06,-5.02623e-05,1.15187e-05,-1.07031e-05,1.00649e-05,7.09448e-06,9
-2.66604e-05,1.1406e-05,-7.8718e-06,-5.3e-05,1.16213e-05,-1.20456e-05,1.27479e-05,6.15019e-06,9
-2.69447e-05,1.09578e-05,-9.16153e-06,-5.44623e-05,1.4241e-05,-1.27113e-05,1.42465e-05,6.40857e-06,9
-2.62712e-05,1.18636e-05,-9.73619e-06,-5.55176e-05,1.72705e-05,-1.29168e-05,1.43363e-05,7.51003e-06,9
-2.57476e-05,1.28336e-05,-9.43086e-06,-5.31447e-05,1.79807e-05,-1.28239e-05,1.28846e-05,8.47038e-06,9
-2.58717e-05,1.34756e-05,-8.5632e-06,-4.6742e-05,1.71162e-05,-1.20675e-05,1.11298e-05,7.7048e-06,9
-2.60216e-05,1.35698e-05,-7.49542e-06,-3.69098e-05,1.70114e-05,-1.02125e-05,1.19984e-05,5.3481e-06,9
-2.61556e-05,1.30635e-05,-6.13323e-06,-2.08858e-05,1.72432e-05,-8.28472e-06,1.45984e-05,3.43462e-06,9
-2.67136e-05,1.34121e-05,-4.95158e-06,7.32918e-06,1.71744e-05,-6.73595e-06,1.63981e-05,2.99958e-06,9
-2.70629e-05,1.45029e-05,-3.88827e-06,4.94067e-05,1.72776e-05,-5.94388e-06,1.58969e-05,3.88546e-06,9
-2.62957e-05,1.44545e-05,-2.94306e-06,9.62962e-05,1.74424e-05,-7.66792e-06,1.46462e-05,6.73389e-06,9
-2.51082e-05,1.40284e-05,-2.5805e-06,0.000131607,1.7324e-05,-1.01009e-05,1.45962e-05,1.03881e-05,9
-2.49288e-05,1.48827e-05,-2.4286e-06,0.000144872,1.74832e-05,-1.07019e-05,1.48792e-05,1.18353e-05,9
-2.50744e-05,1.64752e-05,-3.91922e-06,0.000132957,1.84798e-05,-9.28911e-06,1.439e-05,1.0049e-05,9
-2.46854e-05,1.74137e-05,-5.79074e-06,8.21438e-05,1.87505e-05,-6.53373e-06,1.41694e-05,7.978e-06,9
-2.41361e-05,1.70978e-05,-6.07132e-06,-3.58216e-06,1.77504e-05,-6.90413e-06,1.56594e-05,8.60592e-06,9
-2.31628e-05,1.60946e-05,-5.76362e-06,-9.55534e-05,1.75542e-05,-9.08802e-06,1.72552e-05,1.03565e-05,9
-2.34175e-05,1.49277e-05,-5.80395e-06,-0.000169516,1.81703e-05,-1.03383e-05,1.6414e-05,1.06302e-05,9
-2.48423e-05,1.35585e-05,-6.03215e-06,-0.000203723,1.8319e-05,-1.06384e-05,1.29434e-05,7.96621e-06,9
-2.56708e-05,1.23243e-05,-6.69278e-06,-0.000188257,1.73897e-05,-9.85313e-06,1.07894e-05,2.21285e-06,9
-2.64011e-05,1.16253e-05,-7.47135e-06,-0.000138478,1.62069e-05,-9.31135e-06,1.14962e-05,-4.44465e-06,9
-2.77458e-05,1.16167e-05,-7.91493e-06,-8.50763e-05,1.55532e-05,-1.00488e-05,1.18611e-05,-9.92062e-06,9
-2.9205e-05,1.09804e-05,-7.9137e-06,-4.15626e-05,1.44523e-05,-1.04619e-05,1.17986e-05,-1.45614e-05,9
-3.05417e-05,9.99304e-06,-8.37674e-06,-6.77129e-06,1.33599e-05,-1.03411e-05,1.25096e-05,-2.00663e-05,9
-3.2385e-05,8.95823e-06,-1.04754e-05,2.15368e-05,1.27339e-05,-1.11647e-05,1.29264e-05,-2.43093e-05,9
-3.39879e-05,7.87908e-06,-1.18652e-05,3.93089e-05,1.29184e-05,-1.13086e-05,1.33278e-05,-2.63197e-05,9
-3.49567e-05,6.6375e-06,-1.25271e-05,4.39446e-05,1.3416e-05,-1.07886e-05,1.46101e-05,-2.7206e-05,9
-3.5346e-05,5.55326e-06,-1.20091e-05,3.93924e-05,1.40181e-05,-1.03275e-05,1.56733e-05,-2.62683e-05,9
-3.49214e-05,6.30613e-06,-1.08007e-05,3.0658e-05,1.47902e-05,-9.58509e-06,1.49931e-05,-2.28593e-05,9
-3.37594e-05,8.13737e-06,-9.79348e-06,2.18261e-05,1.4678e-05,-7.99534e-06,1.30803e-05,-1.70427e-05,9
-3.23379e-05,8.57146e-06,-9.28693e-06,1.52031e-05,1.36435e-05,-7.46086e-06,1.19529e-05,-1.12397e-05,9
-3.13153e-05,7.72228e-06,-9.75472e-06,1.19984e-05,1.32906e-05,-8.96884e-06,1.2046e-05,-1.01355e-05,9
-3.00113e-05,7.94876e-06,-1.03107e-05,1.01148e-05,1.45176e-05,-1.012e-05,1.1279e-05,-1.5441e-05,9
-2.88781e-05,8.62006e-06,-9.33854e-06,8.62524e-06,1.5876e-05,-9.8335e-06,9.54003e-06,-2.14739e-05,9
-2.9259e-05,9.42268e-06,-6.80105e-06,6.64726e-06,1.57904e-05,-9.5391e-06,8.73107e-06,-2.32551e-05,9
-2.98519e-05,1.07582e-05,-5.51914e-06,4.19779e-06,1.50527e-05,-1.01002e-05,9.44572e-06,-2.09308e-05,9
-2.9649e-05,1.19185e-05,-6.50985e-06,2.294e-06,1.51933e-05,-1.06921e-05,1.08453e-05,-1.62149e-05,9
-2.93356e-05,1.25647e-05,-7.81135e-06,3.57633e-06,1.52785e-05,-1.14012e-05,1.11775e-05,-1.08938e-05,9
-2.97775e-05,1.24338e-05,-7.95008e-06,5.74392e-06,1.46974e-05,-1.23089e-05,1.02421e-05,-5.51051e-06,9
-3.01848e-05,1.22634e-05,-6.42085e-06,5.89794e-06,1.37956e-05,-1.45022e-05,9.26459e-06,9.85688e-08,9
-2.90471e-05,1.23953e-05,-3.66178e-06,4.66787e-06,1.22508e-05,-1.66207e-05,8.60894e-06,3.95836e-06,9
-2.77679e-05,1.29865e-05,-2.86005e-06,3.18788e-06,1.16754e-05,-1.59394e-05,7.29097e-06,6.02599e-06,9
-2.82963e-05,1.35733e-05,-2.98663e-06,2.76043e-06,1.24681e-05,-1.34032e-05,4.88257e-06,7.15137e-06,9
-3.00837e-05,1.38485e-05,-3.54187e-06,3.43327e-06,1.26541e-05,-1.17656e-05,3.45434e-06,6.59975e-06,9
-3.12176e-05,1.30013e-05,-4.13632e-06,3.07159e-06,1.15661e-05,-1.24188e-05,4.94373e-06,4.44189e-06,9
-3.04795e-05,1.08936e-05,-5.23067e-06,2.39539e-06,1.06688e-05,-1.28768e-05,7.17316e-06,2.03769e-06,9
-3.08996e-05,9.77392e-06,-6.31847e-06,1.9473e-06,1.12651e-05,-1.20128e-05,7.67956e-06,9.86218e-07,9
-3.2435e-05,1.06212e-05,-5.77003e-06,1.04945e-06,1.10134e-05,-1.11722e-05,7.82605e-06,1.48009e-06,9
-3.16472e-05,1.31964e-05,-4.72923e-06,-1.54527e-07,9.43353e-06,-1.15066e-05,8.21006e-06,2.93243e-06,9
-3.07268e-05,1.43586e-05,-3.91934e-06,-2.49965e-06,8.89025e-06,-1.1783e-05,8.50236e-06,4.05124e-06,9
-3.027e-05,1.33714e-05,-3.54558e-06,-3.83454e-06,9.35928e-06,-1.08935e-05,9.10844e-06,4.46183e-06,9
-3.04674e-05,1.23321e-05,-3.64329e-06,-4.27861e-06,9.49911e-06,-9.87538e-06,9.85782e-06,4.18814e-06,9
-3.09061e-05,1.17272e-05,-5.07619e-06,-5.11569e-06,9.04398e-06,-1.03666e-05,9.57721e-06,3.84428e-06,9
-3.07196e-05,1.14491e-05,-5.8465e-06,-5.33087e-06,9.4387e-06,-1.20421e-05,9.964e-06,4.70699e-06,9
-3.00597e-05,1.11586e-05,-5.32494e-06,-3.94287e-06,1.0988e-05,-1.28906e-05,1.16565e-05,8.17983e-06,9
-2.93178e-05,1.10275e-05,-4.2776e-06,-2.31996e-06,1.28842e-05,-1.19698e-05,1.16058e-05,1.39497e-05,9
-2.91397e-05,1.09023e-05,-4.04442e-06,-2.10334e-06,1.40386e-05,-1.01962e-05,1.04174e-05,1.82451e-05,9
-2.92153e-05,1.05818e-05,-4.96319e-06,-2.9213e-06,1.43189e-05,-8.7873e-06,1.1187e-05,2.02141e-05,9
-2.93574e-05,9.84826e-06,-6.4779e-06,-2.9052e-06,1.4585e-05,-6.26497e-06,1.37624e-05,2.4067e-05,9
-2.923e-05,9.82224e-06,-7.43544e-06,-2.41012e-06,1.49972e-05,-4.3118e-06,1.51452e-05,3.04938e-05,9
-2.96239e-05,1.10825e-05,-7.53201e-06,-3.41438e-06,1.51973e-05,-4.46688e-06,1.49136e-05,3.42992e-05,9
-3.0463e-05,1.28738e-05,-7.4333e-06,-5.69457e-06,1.475e-05,-6.07396e-06,1.45871e-05,3.24841e-05,9
-3.1275e-05,1.34152e-05,-6.56227e-06,-7.15545e-06,1.36489e-05,-7.42207e-06,1.44626e-05,2.6901e-05,9
-3.14731e-05,1.29431e-05,-5.00878e-06,-7.45625e-06,1.19478e-05,-7.23988e-06,1.37229e-05,1.87864e-05,9
-3.13871e-05,1.32576e-05,-4.65865e-06,-6.41295e-06,1.12381e-05,-7.54632e-06,1.2998e-05,8.56845e-06,9
-3.19701e-05,1.44424e-05,-6.51751e-06,-5.00596e-06,1.26112e-05,-7.59213e-06,1.32492e-05,-9.12822e-07,9
-3.28924e-05,1.49696e-05,-8.20209e-06,-5.86936e-06,1.47944e-05,-6.47088e-06,1.3888e-05,-8.58052e-06,9
-3.27606e-05,1.38751e-05,-9.43511e-06,-6.63076e-06,1.57995e-05,-6.74471e-06,1.39686e-05,-1.62965e-05,9
-3.18802e-05,1.27126e-05,-9.81067e-06,-1.83195e-06,1.50789e-05,-7.5435e-06,1.44469e-05,-2.62595e-05,9
-3.05517e-05,1.03876e-05,-8.49142e-06,7.32525e-06,1.4693e-05,-7.42601e-06,1.5255e-05,-3.39413e-05,9
-2.92721e-05,8.34334e-06,-7.30552e-06,1.37734e-05,1.47119e-05,-7.48903e-06,1.43807e-05,-3.47991e-05,9
-2.81051e-05,8.73728e-06,-6.49004e-06,1.67688e-05,1.453e-05,-8.19576e-06,1.28655e-05,-3.10215e-05,9
-2.67416e-05,9.64893e-06,-5.74969e-06,1.93945e-05,1.37261e-05,-9.16087e-06,1.20656e-05,-2.43318e-05,9
-2.64912e-05,1.04048e-05,-5.85302e-06,2.2214e-05,1.20863e-05,-9.99732e-06,1.21194e-05,-1.73202e-05,9
-2.78379e-05,1.14396e-05,-6.07908e-06,2.44878e-05,1.15342e-05,-1.01764e-05,1.20853e-05,-1.22812e-05,9
-2.79261e-05,1.13966e-05,-7.55279e-06,2.29197e-05,1.12977e-05,-8.90745e-06,1.18583e-05,-1.22531e-05,9
-2.63571e-05,9.72465e-06,-9.95483e-06,1.70843e-05,1.08541e-05,-8.24782e-06,1.11919e-05,-1.44942e-05,9
-2.57753e-05,8.24727e-06,-1.11194e-05,1.58608e-05,1.00997e-05,-9.63939e-06,1.01126e-05,-1.65433e-05,9
-2.64485e-05,7.67224e-06,-1.10695e-05,2.50695e-05,9.53833e-06,-1.15572e-05,1.0293e-05,-1.96071e-05,9
-2.73847e-05,9.55099e-06,-1.06579e-05,4.64326e-05,9.66159e-06,-1.25166e-05,9.9139e-06,-2.54715e-05,9
-2.77464e-05,1.26295e-05,-9.5765e-06,7.6914e-05,9.88671e-06,-1.18999e-05,8.68736e-06,-3.23184e-05,9
-2.68938e-05,1.45324e-05,-7.631e-06,9.6506e-05,9.99453e-06,-9.94482e-06,8.35485e-06,-3.51623e-05,9
-2.53246e-05,1.48875e-05,-6.084e-06,8.08317e-05,9.91408e-06,-7.96622e-06,8.76828e-06,-3.35492e-05,9
-2.57417e-05,1.43917e-05,-5.52823e-06,2.57329e-05,9.83071e-06,-7.21429e-06,9.22213e-06,-2.82702e-05,9
-2.7783e-05,1.34292e-05,-5.82803e-06,-5.25034e-05,1.02532e-05,-7.11124e-06,1.04049e-05,-2.09357e-05,9
-2.95281e-05,1.27985e-05,-6.57967e-06,-0.000132085,1.10563e-05,-6.99353e-06,1.18071e-05,-1.16826e-05,9
-2.96174e-05,1.35812e-05,-7.02667e-06,-0.000182871,1.05919e-05,-7.64525e-06,1.13958e-05,-1.97368e-06,9
-2.91234e-05,1.4818e-05,-6.35978e-06,-0.000177972,9.1568e-06,-8.63054e-06,1.01463e-05,7.37314e-06,9
-2.89734e-05,1.59123e-05,-5.47435e-06,-0.000127184,8.64314e-06,-7.94294e-06,9.95594e-06,1.42366e-05,9
-2.91743e-05,1.62621e-05,-4.89928e-06,-7.25443e-05,9.84145e-06,-6.41567e-06,1.14463e-05,1.68002e-05,9
-2.93562e-05,1.50179e-05,-4.07462e-06,-4.03189e-05,1.07643e-05,-7.01576e-06,1.26012e-05,1.62092e-05,9
-2.91325e-05,1.41118e-05,-3.19778e-06,-2.31005e-05,1.02368e-05,-8.79904e-06,1.27847e-05,1.48993e-05,9
-2.97294e-05,1.59323e-05,-4.84458e-06,-8.30006e-06,9.31916e-06,-1.0047e-05,1.42529e-05,1.31653e-05,9
-3.09832e-05,1.81306e-05,-8.35855e-06,-1.41434e-06,9.6749e-06,-9.52719e-06,1.65136e-05,1.26726e-05,9
-3.18546e-05,1.84275e-05,-9.62039e-06,-1.22814e-05,1.05304e-05,-7.95738e-06,1.75939e-05,1.43144e-05,9
-3.16465e-05,1.72362e-05,-8.9774e-06,-3.53004e-05,1.0609e-05,-7.14734e-06,1.56e-05,1.63095e-05,9
-3.00368e-05,1.55757e-05,-7.51496e-06,-4.90085e-05,1.09434e-05,-7.36883e-06,1.36585e-05,1.93638e-05,9
-2.96389e-05,1.40917e-05,-5.77452e-06,-4.15023e-05,1.16711e-05,-8.69077e-06,1.47754e-05,2.20722e-05,9
-3.11472e-05,1.48664e-05,-4.98479e-06,-2.35884e-05,1.21317e-05,-9.2111e-06,1.52357e-05,2.32395e-05,9
-3.18853e-05,1.68562e-05,-4.49917e-06,-7.7958e-06,1.27567e-05,-7.92653e-06,1.42121e-05,2.21506e-05,9
-3.23191e-05,1.66699e-05,-3.8825e-06,7.36185e-07,1.36334e-05,-5.66718e-06,1.21864e-05,2.06064e-05,9
-3.17613e-05,1.53082e-05,-3.55796e-06,4.83027e-06,1.50453e-05,-4.84533e-06,1.05279e-05,1.96783e-05,9
-2.99891e-05,1.47277e-05,-3.02708e-06,7.08108e-06,1.52941e-05,-4.72404e-06,1.00448e-05,1.82115e-05,9
-2.86584e-05,1.44984e-05,-2.0519e-06,8.82762e-06,1.50162e-05,-4.65339e-06,1.05627e-05,1.59453e-05,9
-2.91016e-05,1.45184e-05,-1.85244e-06,9.61617e-06,1.55639e-05,-5.21536e-06,1.09529e-05,1.35724e-05,9
-3.04471e-05,1.53092e-05,-2.5521e-06,1.0135e-05,1.55401e-05,-5.58938e-06,1.01796e-05,1.19855e-05,9
-3.13677e-05,1.57976e-05,-3.27007e-06,1.07962e-05,1.56613e-05,-6.40371e-06,8.36005e-06,1.02376e-05,9
-3.18937e-05,1.42347e-05,-3.52949e-06,9.8677e-06,1.58025e-05,-7.47016e-06,7.00473e-06,8.54661e-06,9
-3.27511e-05,1.18802e-05,-3.87321e-06,7.93285e-06,1.63478e-05,-8.30846e-06,7.5848e-06,6.52104e-06,9
-3.42586e-05,1.10646e-05,-4.821e-06,6.22239e-06,1.69303e-05,-7.98981e-06,8.9664e-06,4.10465e-06,9
-3.51739e-05,1.15189e-05,-6.18037e-06,4.74987e-06,1.78661e-05,-7.16908e-06,1.13229e-05,3.24742e-06,9
-3.55941e-05,1.20265e-05,-7.78554e-06,2.44081e-06,1.86082e-05,-6.55399e-06,1.34904e-05,4.40821e-06,9
-3.58356e-05,1.16224e-05,-8.95157e-06,9.84121e-07,1.79345e-05,-6.32641e-06,1.46566e-05,5.77249e-06,9
-3.62448e-05,1.11947e-05,-9.7682e-06,1.50877e-06,1.57863e-05,-6.97292e-06,1.56157e-05,6.09494e-06,9
-3.77215e-05,1.14776e-05,-1.03659e-05,3.50683e-06,1.37404e-05,-8.64557e-06,1.65748e-05,6.19398e-06,9
-3.91695e-05,1.07652e-05,-1.01567e-05,5.14761e-06,1.27618e-05,-1.09095e-05,1.69094e-05,6.2578e-06,9
-3.85816e-05,8.66002e-06,-8.83593e-06,6.53071e-06,1.19111e-05,-1.31764e-05,1.68017e-05,6.93035e-06,9
-3.66708e-05,6.94544e-06,-7.23597e-06,7.13177e-06,1.17307e-05,-1.40258e-05,1.59362e-05,9.96468e-06,9
-3.57931e-05,5.68974e-06,-6.57287e-06,7.3985e-06,1.2543e-05,-1.38142e-05,1.53596e-05,1.41851e-05,9
-3.67328e-05,6.15583e-06,-6.86125e-06,7.94486e-06,1.33956e-05,-1.37026e-05,1.59761e-05,1.51626e-05,9
-3.87452e-05,8.7631e-06,-7.12556e-06,7.28959e-06,1.44715e-05,-1.35322e-05,1.71477e-05,1.38522e-05,9
-4.04338e-05,1.15333e-05,-8.03059e-06,5.96977e-06,1.59005e-05,-1.39411e-05,1.72575e-05,1.41361e-05,9
-4.0201e-05,1.16545e-05,-9.47398e-06,6.47812e-06,1.59842e-05,-1.4202e-05,1.64612e-05,1.56044e-05,9
-3.89872e-05,9.90307e-06,-8.85429e-06,7.03672e-06,1.57812e-05,-1.37878e-05,1.51248e-05,1.55212e-05,9
-3.78983e-05,9.40794e-06,-8.10875e-06,6.87926e-06,1.54034e-05,-1.22075e-05,1.3409e-05,1.25674e-05,9
-3.65104e-05,9.78153e-06,-8.58095e-06,7.5349e-06,1.4963e-05,-1.10704e-05,1.20331e-05,7.99216e-06,9
-3.47766e-05,1.0877e-05,-8.51293e-06,7.98382e-06,1.43743e-05,-1.11312e-05,1.14075e-05,2.23791e-06,9
-3.36815e-05,1.22361e-05,-8.59151e-06,7.8678e-06,1.36675e-05,-1.07253e-05,1.2159e-05,-4.02518e-06,9
-3.35833e-05,1.3478e-05,-8.33003e-06,6.15652e-06,1.4798e-05,-9.56841e-06,1.35973e-05,-9.56228e-06,9
-3.41832e-05,1.50119e-05,-8.20632e-06,4.46368e-06,1.60606e-05,-9.6152e-06,1.50215e-05,-1.46627e-05,9
