ch1,ch2,ch3,ch4,ch5,ch6,ch7,ch8,class
-3.47321e-05,1.3256e-05,-6.14543e-06,-1.01262e-05,1.78279e-05,-1.11787e-05,1.53485e-05,-4.9574e-06,9
-3.63124e-05,1.25759e-05,-7.69342e-06,-8.67596e-06,1.97318e-05,-8.5309e-06,1.618e-05,-3.61034e-06,9
-3.67518e-05,1.29767e-05,-9.47294e-06,-7.125e-06,1.98675e-05,-6.30075e-06,1.81088e-05,-1.29081e-06,9
-3.6185e-05,1.39492e-05,-8.87715e-06,-4.70592e-06,1.99731e-05,-5.879e-06,1.82581e-05,2.75858e-07,9
-3.67151e-05,1.48273e-05,-5.44079e-06,-2.16237e-06,2.10362e-05,-6.26752e-06,1.64514e-05,-1.40132e-07,9
-3.90763e-05,1.49073e-05,-2.84015e-06,-1.44399e-06,2.11936e-05,-7.27863e-06,1.4189e-05,-1.50074e-06,9
-4.06523e-05,1.44083e-05,-3.12723e-06,-3.71016e-06,2.09746e-05,-8.18135e-06,1.33842e-05,-4.42265e-06,9
-3.9779e-05,1.32014e-05,-4.22008e-06,-6.33499e-06,1.98536e-05,-9.36886e-06,1.33086e-05,-1.00202e-05,9
-3.87035e-05,1.24973e-05,-4.87928e-06,-7.93878e-06,1.8764e-05,-1.05622e-05,1.26226e-05,-1.64371e-05,9
-3.75139e-05,1.23595e-05,-5.78509e-06,-7.11917e-06,1.88145e-05,-1.01813e-05,1.314e-05,-2.06926e-05,9
-3.50153e-05,1.28711e-05,-6.57966e-06,-4.91783e-06,1.79472e-05,-8.33992e-06,1.4758e-05,-2.17966e-05,9
-3.19817e-05,1.44255e-05,-5.91893e-06,-3.391e-06,1.5618e-05,-6.95795e-06,1.5871e-05,-2.00844e-05,9
-3.03115e-05,1.55756e-05,-5.16709e-06,-3.0766e-06,1.33427e-05,-5.96839e-06,1.53699e-05,-1.70345e-05,9
-3.01798e-05,1.56932e-05,-5.02426e-06,-2.08052e-06,1.24125e-05,-5.56242e-06,1.49613e-05,-1.41172e-05,9
-2.99254e-05,1.49211e-05,-5.14296e-06,2.98513e-07,1.33408e-05,-5.82449e-06,1.60505e-05,-1.14154e-05,9
-2.94787e-05,1.4146e-05,-5.71271e-06,2.64546e-06,1.58393e-05,-7.04374e-06,1.68698e-05,-7.9935e-06,9
-2.83721e-05,1.34427e-05,-6.95376e-06,3.09611e-06,1.77416e-05,-8.61454e-06,1.54461e-05,-3.37076e-06,9
-2.7618e-05,1.39904e-05,-7.86993e-06,2.19209e-06,1.75948e-05,-9.18818e-06,1.35111e-05,1.11612e-06,9
-2.88869e-05,1.52584e-05,-7.3952e-06,1.78647e-06,1.55806e-05,-8.91044e-06,1.40209e-05,5.35373e-06,9
-3.07832e-05,1.55858e-05,-6.93502e-06,1.41352e-06,1.31103e-05,-8.67817e-06,1.52206e-05,9.49507e-06,9
-2.9668e-05,1.50307e-05,-7.51982e-06,-2.75118e-07,1.20671e-05,-7.69507e-06,1.50934e-05,1.23525e-05,9
-2.74927e-05,1.32371e-05,-8.6716e-06,-1.54228e-06,1.31456e-05,-7.23486e-06,1.44779e-05,1.24489e-05,9
-2.59934e-05,1.154e-05,-8.33114e-06,-3.09393e-07,1.39137e-05,-8.4452e-06,1.3013e-05,1.05749e-05,9
-2.55825e-05,1.10149e-05,-6.35727e-06,1.13535e-06,1.30522e-05,-8.65298e-06,1.07659e-05,8.78052e-06,9
-2.5076e-05,1.02844e-05,-5.12804e-06,1.89473e-06,1.20014e-05,-7.94069e-06,9.19028e-06,8.11526e-06,9
-2.34714e-05,9.40656e-06,-5.09901e-06,1.71068e-06,1.1454e-05,-6.6606e-06,9.09312e-06,8.30463e-06,9
-2.26367e-05,8.62814e-06,-4.76733e-06,2.36123e-07,1.06406e-05,-5.57678e-06,8.70271e-06,7.41012e-06,9
-2.28046e-05,9.51929e-06,-4.52257e-06,-1.66614e-06,9.44253e-06,-6.05092e-06,6.62965e-06,6.2772e-06,9
-2.26231e-05,1.05357e-05,-4.92868e-06,-4.21197e-06,9.07331e-06,-6.96824e-06,7.27147e-06,4.82674e-06,9
-2.17431e-05,1.1395e-05,-3.91618e-06,-7.12559e-06,9.74977e-06,-7.59998e-06,9.25516e-06,3.7855e-06,9
-2.14817e-05,1.25172e-05,-2.80583e-06,-8.31963e-06,1.06748e-05,-8.68786e-06,9.83114e-06,4.27703e-06,9
-2.22795e-05,1.27035e-05,-2.72104e-06,-5.49044e-06,1.02085e-05,-1.09509e-05,1.06571e-05,4.95324e-06,9
-2.42833e-05,1.35888e-05,-2.67021e-06,-1.44842e-06,9.27073e-06,-1.32615e-05,1.22479e-05,5.23592e-06,9
-2.59265e-05,1.30059e-05,-2.68705e-06,6.64735e-07,8.82017e-06,-1.36735e-05,1.36537e-05,4.9014e-06,9
-2.74231e-05,1.06486e-05,-3.12332e-06,9.46739e-07,8.08863e-06,-1.21783e-05,1.27472e-05,4.96375e-06,9
-2.82019e-05,8.79867e-06,-3.53305e-06,-9.90301e-07,8.05512e-06,-1.04993e-05,1.12714e-05,4.72342e-06,9
-2.83524e-05,9.53697e-06,-3.90383e-06,-3.82848e-06,8.7737e-06,-9.65904e-06,1.10179e-05,2.96637e-06,9
-2.83885e-05,1.14069e-05,-4.28933e-06,-5.13708e-06,9.08812e-06,-9.84514e-06,1.18667e-05,2.43857e-07,9
-2.83392e-05,1.22001e-05,-4.66616e-06,-4.5697e-06,9.56151e-06,-1.07667e-05,1.21212e-05,-1.28334e-06,9
-2.85185e-05,1.27327e-05,-5.69606e-06,-3.59284e-06,1.1375e-05,-1.14825e-05,1.20999e-05,-6.82485e-07,9
-2.86578e-05,1.31087e-05,-6.59825e-06,-3.24286e-06,1.32152e-05,-1.0732e-05,1.2075e-05,1.64659e-07,9
-2.86432e-05,1.26218e-05,-6.81583e-06,-4.01609e-06,1.36119e-05,-8.99838e-06,1.07077e-05,3.78145e-07,9
-2.82572e-05,1.14594e-05,-6.62736e-06,-4.72817e-06,1.29107e-05,-8.50488e-06,8.5589e-06,2.09365e-07,9
-2.82359e-05,1.08013e-05,-7.02765e-06,-4.3945e-06,1.25084e-05,-9.39178e-06,7.28038e-06,2.95584e-07,9
-2.87838e-05,1.11694e-05,-7.64976e-06,-3.71294e-06,1.25394e-05,-1.03623e-05,7.56948e-06,1.16286e-06,9
-2.94457e-05,1.11538e-05,-8.19423e-06,-3.67499e-06,1.2897e-05,-1.07667e-05,8.25095e-06,2.98447e-06,9
-2.8744e-05,9.79076e-06,-8.40237e-06,-3.78426e-06,1.37569e-05,-1.03283e-05,8.16312e-06,6.01808e-06,9
-2.68487e-05,1.00497e-05,-9.06443e-06,-4.16032e-06,1.31202e-05,-9.21741e-06,8.04991e-06,8.48115e-06,9
-2.59451e-05,1.13632e-05,-9.09995e-06,-4.57936e-06,1.09475e-05,-8.5657e-06,8.72282e-06,9.15969e-06,9
-2.63596e-05,1.12405e-05,-7.91928e-06,-4.78323e-06,9.17306e-06,-8.23719e-06,8.86847e-06,1.12009e-05,9
-2.60548e-05,1.03552e-05,-7.41581e-06,-4.63785e-06,8.9748e-06,-8.06343e-06,8.61895e-06,1.63437e-05,9
-2.62527e-05,1.04196e-05,-8.45523e-06,-4.17416e-06,8.72515e-06,-7.09672e-06,9.60844e-06,2.20943e-05,9
-2.76226e-05,1.1749e-05,-9.4715e-06,-4.47538e-06,7.37695e-06,-5.65513e-06,1.01356e-05,2.56129e-05,9
-2.90074e-05,1.22602e-05,-9.57583e-06,-5.32604e-06,6.50276e-06,-6.75967e-06,8.83918e-06,2.70674e-05,9
-3.04888e-05,1.14914e-05,-9.83172e-06,-6.24199e-06,7.31378e-06,-1.01334e-05,7.13454e-06,2.58975e-05,9
-3.20583e-05,9.9975e-06,-9.66642e-06,-6.0492e-06,9.64308e-06,-1.20634e-05,6.7915e-06,2.07745e-05,9
-3.31208e-05,8.57412e-06,-9.44675e-06,-5.24965e-06,1.04654e-05,-1.19863e-05,9.11405e-06,1.51821e-05,9
-3.33295e-05,8.72248e-06,-9.37448e-06,-4.1677e-06,9.79471e-06,-1.19229e-05,1.03249e-05,9.3356e-06,9
-3.18869e-05,1.04669e-05,-1.06488e-05,-3.60558e-06,9.1659e-06,-1.27232e-05,1.09771e-05,3.46552e-06,9
-3.05487e-05,1.17002e-05,-1.21729e-05,-4.43409e-06,8.65761e-06,-1.39227e-05,1.07306e-05,-5.15417e-07,9
-3.09022e-05,1.10739e-05,-1.21344e-05,-5.60288e-06,9.67409e-06,-1.33409e-05,9.21243e-06,-2.94155e-06,9
-3.20556e-05,9.76805e-06,-1.02463e-05,-6.42561e-06,1.06327e-05,-1.21918e-05,7.74216e-06,-5.23225e-06,9
-3.33681e-05,9.14739e-06,-8.61926e-06,-6.68596e-06,9.15468e-06,-1.26714e-05,5.9838e-06,-8.17764e-06,9
-3.34689e-05,9.36977e-06,-8.71026e-06,-7.73479e-06,7.18483e-06,-1.38059e-05,5.56524e-06,-1.02934e-05,9
-3.29123e-05,1.04404e-05,-9.26961e-06,-9.35638e-06,7.40023e-06,-1.44124e-05,6.8822e-06,-1.15577e-05,9
-3.21168e-05,1.21219e-05,-9.16979e-06,-9.43582e-06,9.58358e-06,-1.42003e-05,9.59794e-06,-1.12957e-05,9
-3.12028e-05,1.31054e-05,-8.28525e-06,-7.07491e-06,1.15714e-05,-1.27779e-05,1.19873e-05,-9.79802e-06,9
-3.01392e-05,1.2409e-05,-6.94848e-06,-4.54415e-06,1.21354e-05,-1.13051e-05,1.29383e-05,-8.13631e-06,9
-3.02132e-05,1.09397e-05,-5.02552e-06,-3.64869e-06,1.1738e-05,-1.15518e-05,1.19379e-05,-6.45335e-06,9
-3.10433e-05,1.03325e-05,-3.41008e-06,-3.43538e-06,1.09485e-05,-1.27513e-05,1.14372e-05,-4.20849e-06,9
-3.09244e-05,1.12245e-05,-2.21849e-06,-3.01326e-06,1.01012e-05,-1.36926e-05,1.27005e-05,-2.7454e-06,9
-2.96912e-05,1.28711e-05,-1.89022e-06,-2.22123e-06,1.02492e-05,-1.34308e-05,1.46359e-05,-2.49146e-06,9
-2.85844e-05,1.42814e-05,-2.80056e-06,-1.61753e-06,1.19964e-05,-1.16306e-05,1.51778e-05,-2.65081e-06,9
-2.83959e-05,1.50513e-05,-4.69853e-06,-1.84516e-06,1.39093e-05,-9.36136e-06,1.45789e-05,-2.12214e-06,9
-2.79521e-05,1.56205e-05,-5.74775e-06,-2.49289e-06,1.4539e-05,-7.14662e-06,1.4143e-05,-8.89652e-07,9
-2.77861e-05,1.6421e-05,-6.07212e-06,-3.50005e-06,1.39796e-05,-5.27671e-06,1.43431e-05,-7.9812e-07,9
-2.92181e-05,1.65896e-05,-6.83545e-06,-4.9911e-06,1.36121e-05,-4.64536e-06,1.54102e-05,-6.4945e-07,9
-3.02489e-05,1.60408e-05,-7.51432e-06,-5.81808e-06,1.40296e-05,-6.22675e-06,1.51709e-05,2.28467e-06,9
-2.86777e-05,1.5462e-05,-6.90285e-06,-5.37216e-06,1.34719e-05,-8.57987e-06,1.29818e-05,1.00063e-05,9
-2.68042e-05,1.37117e-05,-5.2455e-06,-4.4126e-06,1.04597e-05,-1.00341e-05,1.28308e-05,1.81266e-05,9
-2.56373e-05,1.2223e-05,-3.91534e-06,-3.33865e-06,9.07058e-06,-1.03464e-05,1.5066e-05,2.51813e-05,9
-2.46082e-05,1.33132e-05,-3.97599e-06,-2.38448e-06,1.18365e-05,-9.9131e-06,1.642e-05,3.09719e-05,9
-2.47406e-05,1.43835e-05,-6.4121e-06,-1.57266e-06,1.46907e-05,-9.34488e-06,1.57191e-05,3.17885e-05,9
-2.54381e-05,1.37322e-05,-8.64809e-06,-1.26e-06,1.55716e-05,-8.63295e-06,1.32183e-05,2.80958e-05,9
-2.59278e-05,1.1861e-05,-9.27464e-06,-2.27547e-06,1.53694e-05,-9.33065e-06,1.15593e-05,2.23358e-05,9
-2.60217e-05,1.10821e-05,-9.62674e-06,-3.11293e-06,1.46614e-05,-9.80904e-06,1.14517e-05,1.74847e-05,9
-2.71599e-05,1.12227e-05,-9.45015e-06,-3.77521e-06,1.4308e-05,-8.70935e-06,1.20829e-05,1.31046e-05,9
-2.92385e-05,1.139e-05,-8.38201e-06,-4.30209e-06,1.54853e-05,-7.02673e-06,1.39024e-05,8.14597e-06,9
-3.06291e-05,1.21475e-05,-6.39911e-06,-5.15689e-06,1.64889e-05,-5.9002e-06,1.61359e-05,-2.11243e-07,9
-3.19145e-05,1.24879e-05,-4.272e-06,-6.20267e-06,1.59466e-05,-6.46753e-06,1.58006e-05,-9.89734e-06,9
-3.2314e-05,1.21364e-05,-3.82148e-06,-7.25072e-06,1.48227e-05,-7.36011e-06,1.41326e-05,-1.95933e-05,9
-3.17939e-05,1.16584e-05,-4.63857e-06,-7.95791e-06,1.426e-05,-7.21041e-06,1.31086e-05,-3.09619e-05,9
-3.17093e-05,1.14711e-05,-5.10312e-06,-8.44884e-06,1.44726e-05,-6.44887e-06,1.21666e-05,-4.15337e-05,9
-3.27586e-05,1.12957e-05,-5.86404e-06,-9.2876e-06,1.49321e-05,-6.24444e-06,1.19989e-05,-4.87912e-05,9
-3.36953e-05,1.16956e-05,-7.82392e-06,-9.72239e-06,1.53859e-05,-7.1778e-06,1.25595e-05,-5.11412e-05,9
-3.33666e-05,1.22083e-05,-9.79555e-06,-9.80131e-06,1.53895e-05,-9.30145e-06,1.3225e-05,-4.89548e-05,9
-3.20876e-05,1.23805e-05,-1.06666e-05,-1.01482e-05,1.52237e-05,-1.11354e-05,1.43743e-05,-4.14697e-05,9
-3.11033e-05,1.26971e-05,-1.08028e-05,-1.06613e-05,1.5911e-05,-1.10532e-05,1.59702e-05,-2.98348e-05,9
-3.10123e-05,1.32437e-05,-1.03421e-05,-9.60918e-06,1.66802e-05,-9.85179e-06,1.66784e-05,-1.7169e-05,9
-3.11426e-05,1.32456e-05,-9.26275e-06,-6.99544e-06,1.621e-05,-9.01772e-06,1.58241e-05,-6.30115e-06,9
-3.12787e-05,1.31715e-05,-9.06126e-06,-4.16611e-06,1.55415e-05,-9.04907e-06,1.53722e-05,3.01201e-06,9
-3.09956e-05,1.36142e-05,-1.02235e-05,-2.75878e-06,1.49155e-05,-9.41307e-06,1.63193e-05,7.76741e-06,9
-2.98363e-05,1.42232e-05,-1.10978e-05,-3.23087e-06,1.43409e-05,-8.32976e-06,1.71603e-05,5.19187e-06,9
-2.85292e-05,1.43264e-05,-1.0024e-05,-5.94761e-06,1.46609e-05,-7.39091e-06,1.67189e-05,-3.12135e-06,9
-2.8538e-05,1.45145e-05,-8.31611e-06,-8.51137e-06,1.66399e-05,-7.82954e-06,1.57931e-05,-1.21976e-05,9
-3.01945e-05,1.50862e-05,-7.87583e-06,-1.19019e-05,1.73425e-05,-8.34497e-06,1.58981e-05,-1.95237e-05,9
-3.1327e-05,1.55162e-05,-8.82149e-06,-1.66616e-05,1.62871e-05,-8.69588e-06,1.6514e-05,-2.31811e-05,9
-3.1648e-05,1.5415e-05,-9.84673e-06,-1.91284e-05,1.73147e-05,-8.61367e-06,1.71783e-05,-2.20384e-05,9
-3.15213e-05,1.42142e-05,-9.16162e-06,-1.83318e-05,1.89937e-05,-6.83087e-06,1.69669e-05,-2.00359e-05,9
-3.11977e-05,1.28032e-05,-6.92769e-06,-1.57057e-05,1.94802e-05,-4.33975e-06,1.5877e-05,-1.68366e-05,9
-3.22665e-05,1.17785e-05,-4.91669e-06,-1.09849e-05,1.88853e-05,-4.26255e-06,1.49004e-05,-1.30656e-05,9
-3.29312e-05,1.12564e-05,-5.58772e-06,-7.5868e-06,1.68763e-05,-5.26388e-06,1.4866e-05,-9.18729e-06,9
-3.10169e-05,9.42739e-06,-7.96491e-06,-7.96897e-06,1.48813e-05,-5.84298e-06,1.5593e-05,-6.50851e-06,9
-2.81949e-05,7.09475e-06,-9.14608e-06,-8.17484e-06,1.43604e-05,-6.84292e-06,1.47947e-05,-5.02023e-06,9
-2.61698e-05,7.02856e-06,-8.65947e-06,-7.53209e-06,1.49772e-05,-8.06568e-06,1.3029e-05,-3.09157e-06,9
-2.54632e-05,8.70623e-06,-7.8596e-06,-5.34451e-06,1.58399e-05,-8.82931e-06,1.17221e-05,-4.51657e-07,9
-2.64592e-05,9.84376e-06,-6.66463e-06,-2.79521e-06,1.57553e-05,-8.82482e-06,1.12308e-05,2.06355e-06,9
-2.78578e-05,1.01891e-05,-4.38879e-06,-8.90613e-07,1.51636e-05,-8.32382e-06,1.1562e-05,2.96566e-06,9
-2.87844e-05,1.10115e-05,-2.66252e-06,5.38175e-07,1.41085e-05,-7.92051e-06,1.28283e-05,3.00688e-06,9
-2.90613e-05,1.12998e-05,-2.92768e-06,2.01257e-06,1.31679e-05,-7.65598e-06,1.4542e-05,3.26253e-06,9
-2.93004e-05,1.05145e-05,-3.95807e-06,2.84766e-06,1.23533e-05,-7.79831e-06,1.53832e-05,4.34908e-06,9
-2.86153e-05,1.00352e-05,-3.98055e-06,2.5183e-06,1.12655e-05,-8.5889e-06,1.57186e-05,4.76658e-06,9
-2.70228e-05,1.05124e-05,-3.65398e-06,1.85214e-06,1.03629e-05,-9.36119e-06,1.55777e-05,5.35129e-06,9
-2.65495e-05,1.07644e-05,-3.90761e-06,2.00178e-06,9.88414e-06,-9.47791e-06,1.38518e-05,7.46757e-06,9
-2.83022e-05,1.1279e-05,-4.12612e-06,3.16195e-06,1.02772e-05,-9.52722e-06,1.08806e-05,1.08355e-05,9
-3.07639e-05,1.23607e-05,-3.88145e-06,3.5152e-06,1.07529e-05,-9.52974e-06,9.6234e-06,1.35889e-05,9
-3.26193e-05,1.27639e-05,-4.02499e-06,1.82659e-06,1.13641e-05,-9.3899e-06,1.07805e-05,1.41992e-05,9
-3.38115e-05,1.22329e-05,-4.89691e-06,-1.65514e-06,1.15479e-05,-1.00985e-05,1.23736e-05,1.45974e-05,9
-3.43013e-05,1.13313e-05,-5.66032e-06,-4.44202e-06,1.10902e-05,-1.08862e-05,1.36831e-05,1.59085e-05,9
-3.52674e-05,1.0535e-05,-5.47866e-06,-5.87272e-06,1.09486e-05,-1.11279e-05,1.38998e-05,1.68014e-05,9
-3.62482e-05,9.19205e-06,-4.51039e-06,-5.59979e-06,1.1368e-05,-1.29434e-05,1.30872e-05,1.69042e-05,9
-3.55216e-05,8.66006e-06,-4.39685e-06,-3.85594e-06,1.17457e-05,-1.60413e-05,1.36868e-05,1.66958e-05,9
-3.29808e-05,9.46715e-06,-4.91034e-06,-2.05272e-06,1.17554e-05,-1.62048e-05,1.49466e-05,1.76461e-05,9
-3.17359e-05,1.08317e-05,-4.04875e-06,-1.81645e-06,1.24003e-05,-1.36317e-05,1.46731e-05,1.97897e-05,9
-3.20047e-05,1.18542e-05,-3.36184e-06,-2.91907e-06,1.29636e-05,-1.15399e-05,1.46814e-05,1.98e-05,9
-3.15912e-05,1.28796e-05,-4.48618e-06,-3.15976e-06,1.2991e-05,-1.01846e-05,1.5076e-05,1.78294e-05,9
-3.06019e-05,1.41145e-05,-5.70321e-06,-4.35057e-06,1.35018e-05,-9.70802e-06,1.47429e-05,1.47866e-05,9
-3.04586e-05,1.44698e-05,-5.20219e-06,-5.26609e-06,1.40466e-05,-9.8915e-06,1.3898e-05,1.23957e-05,9
-3.11238e-05,1.46434e-05,-4.35385e-06,-3.9198e-06,1.43173e-05,-9.24611e-06,1.28976e-05,1.22218e-05,9
-3.17172e-05,1.41712e-05,-5.02956e-06,-2.19831e-06,1.38276e-05,-9.03679e-06,1.19555e-05,1.21638e-05,9
-3.18086e-05,1.3232e-05,-6.85113e-06,-1.71872e-06,1.35759e-05,-1.14179e-05,1.16343e-05,1.05061e-05,9
-3.20669e-05,1.24511e-05,-8.14845e-06,-3.55993e-06,1.37081e-05,-1.28695e-05,1.25213e-05,8.95117e-06,9
-3.29543e-05,1.27697e-05,-8.79642e-06,-5.33504e-06,1.3748e-05,-1.09307e-05,1.35391e-05,8.75216e-06,9
-3.33927e-05,1.45864e-05,-9.11232e-06,-5.39115e-06,1.42668e-05,-8.92462e-06,1.34536e-05,7.9144e-06,9
-3.34862e-05,1.65578e-05,-7.94798e-06,-4.55186e-06,1.49927e-05,-8.81517e-06,1.30582e-05,6.79146e-06,9
-3.37752e-05,1.67253e-05,-5.98764e-06,-4.0601e-06,1.52846e-05,-1.02126e-05,1.34135e-05,7.78291e-06,9
-3.38761e-05,1.51646e-05,-4.50821e-06,-3.403e-06,1.50641e-05,-1.10613e-05,1.2862e-05,1.05169e-05,9
-3.31574e-05,1.39168e-05,-4.32159e-06,-2.04014e-06,1.47368e-05,-1.09036e-05,1.19824e-05,1.25283e-05,9
-3.1982e-05,1.38947e-05,-4.51962e-06,-1.28208e-06,1.47504e-05,-1.00915e-05,1.2974e-05,1.15854e-05,9
-3.06873e-05,1.42244e-05,-4.84251e-06,-2.71824e-06,1.5556e-05,-8.5615e-06,1.46333e-05,8.44603e-06,9
-2.92123e-05,1.32809e-05,-6.02095e-06,-4.8512e-06,1.70727e-05,-6.88214e-06,1.48422e-05,5.41397e-06,9
-2.73189e-05,1.0615e-05,-7.77686e-06,-5.05063e-06,1.85577e-05,-5.83454e-06,1.45993e-05,3.21801e-06,9
-2.60138e-05,8.21691e-06,-9.0419e-06,-3.49187e-06,1.82295e-05,-6.33359e-06,1.49419e-05,9.51047e-07,9
-2.71261e-05,8.05211e-06,-9.7051e-06,-2.46967e-06,1.63763e-05,-7.81468e-06,1.43034e-05,-2.36499e-06,9
-2.9444e-05,8.95168e-06,-9.68295e-06,-2.40499e-06,1.53705e-05,-9.06751e-06,1.25137e-05,-6.00002e-06,9
-3.07405e-05,1.00979e-05,-8.08013e-06,-1.60436e-06,1.69521e-05,-1.00952e-05,1.19215e-05,-8.45492e-06,9
-3.14925e-05,1.18813e-05,-5.61037e-06,-1.43432e-06,1.98061e-05,-1.02956e-05,1.25598e-05,-8.61619e-06,9
-3.29276e-05,1.39704e-05,-3.86661e-06,-1.59198e-06,2.10209e-05,-9.51237e-06,1.24907e-05,-8.24548e-06,9
-3.42185e-05,1.43568e-05,-2.96244e-06,-1.74444e-06,2.06535e-05,-8.71575e-06,1.088e-05,-8.80297e-06,9
-3.38539e-05,1.47389e-05,-3.17509e-06,-3.42943e-06,1.91326e-05,-9.25834e-06,1.07399e-05,-8.69784e-06,9
-3.33778e-05,1.4837e-05,-3.76491e-06,-3.24796e-06,1.73514e-05,-1.09939e-05,1.13438e-05,-7.39837e-06,9
-3.21701e-05,1.3923e-05,-3.24665e-06,-1.3047e-06,1.67788e-05,-1.07203e-05,9.86307e-06,-5.60043e-06,9
-3.03945e-05,1.34969e-05,-1.96013e-06,-7.00778e-07,1.58162e-05,-9.63508e-06,9.35294e-06,-4.66972e-06,9
-2.96471e-05,1.33825e-05,-1.10708e-06,1.55714e-07,1.46142e-05,-9.46399e-06,8.97017e-06,-5.70519e-06,9
-2.9504e-05,1.43776e-05,-1.71479e-06,2.54487e-07,1.3526e-05,-1.073e-05,7.31289e-06,-6.12258e-06,9
-3.02312e-05,1.50344e-05,-2.9025e-06,-9.41561e-07,1.22644e-05,-1.18935e-05,6.16258e-06,-5.33671e-06,9
-3.08677e-05,1.49048e-05,-4.04944e-06,-1.89487e-06,1.12725e-05,-1.13393e-05,6.91175e-06,-4.00567e-06,9
-3.13752e-05,1.31969e-05,-4.73298e-06,-8.36498e-07,1.1083e-05,-1.01044e-05,6.839e-06,-2.49396e-06,9
-3.11767e-05,1.12615e-05,-5.63582e-06,2.1857e-06,1.10845e-05,-8.97557e-06,5.94379e-06,-2.38762e-06,9
-3.07942e-05,1.05842e-05,-5.86125e-06,4.52828e-06,1.12351e-05,-8.04821e-06,5.38938e-06,-2.78767e-06,9
-3.06268e-05,1.05576e-05,-6.35623e-06,4.45634e-06,1.15243e-05,-7.84284e-06,5.16169e-06,-1.63256e-06,9
-3.05585e-05,1.04446e-05,-7.29204e-06,4.30198e-06,1.10967e-05,-9.78265e-06,6.61679e-06,9.83475e-07,9
-3.06085e-05,1.00719e-05,-7.4009e-06,5.31112e-06,9.61289e-06,-1.29652e-05,8.88366e-06,3.20529e-06,9
-3.14479e-05,9.80199e-06,-6.57317e-06,4.78982e-06,7.76155e-06,-1.46663e-05,9.27859e-06,4.19412e-06,9
-3.28762e-05,9.66714e-06,-5.26342e-06,2.49743e-06,7.38739e-06,-1.41089e-05,7.68242e-06,3.77368e-06,9
-3.32947e-05,9.9122e-06,-4.82128e-06,6.12208e-07,8.16077e-06,-1.42632e-05,6.94029e-06,3.45167e-06,9
-3.21149e-05,9.99417e-06,-5.61439e-06,-1.72195e-06,8.95005e-06,-1.52011e-05,7.59323e-06,4.76312e-06,9
-3.03258e-05,1.05472e-05,-7.22559e-06,-6.72029e-06,9.04975e-06,-1.47414e-05,9.43332e-06,6.499e-06,9
-2.86179e-05,1.17384e-05,-7.81401e-06,-1.13827e-05,9.31864e-06,-1.28028e-05,1.14331e-05,6.80871e-06,9
-2.62668e-05,1.30836e-05,-6.82354e-06,-1.36504e-05,1.04704e-05,-1.09318e-05,1.22598e-05,5.59554e-06,9
-2.50428e-05,1.33681e-05,-5.75989e-06,-1.43307e-05,1.25688e-05,-8.71204e-06,1.21013e-05,2.97852e-06,9
-2.45124e-05,1.28796e-05,-6.58809e-06,-1.46662e-05,1.40908e-05,-6.75991e-06,1.3007e-05,-7.60689e-07,9
-2.39608e-05,1.24376e-05,-8.9122e-06,-1.55442e-05,1.43997e-05,-6.67112e-06,1.32509e-05,-4.40501e-06,9
-2.36494e-05,1.22001e-05,-1.15659e-05,-1.79728e-05,1.40669e-05,-7.88687e-06,1.24831e-05,-7.7071e-06,9
-2.30631e-05,1.17798e-05,-1.27281e-05,-2.1543e-05,1.33073e-05,-9.46281e-06,1.12495e-05,-1.07385e-05,9
-2.29382e-05,1.09801e-05,-1.33685e-05,-2.44256e-05,1.26283e-05,-9.94989e-06,1.04909e-05,-1.19465e-05,9
-2.37258e-05,1.14004e-05,-1.36199e-05,-2.24123e-05,1.20071e-05,-9.04669e-06,1.11885e-05,-1.23022e-05,9
-2.33948e-05,1.27786e-05,-1.25166e-05,-1.34158e-05,1.13219e-05,-7.72106e-06,1.12921e-05,-1.3833e-05,9
-2.33839e-05,1.38813e-05,-1.13389e-05,-5.87232e-06,1.12055e-05,-5.56933e-06,1.12097e-05,-1.4125e-05,9
-2.43375e-05,1.35781e-05,-9.77709e-06,-4.25814e-06,1.15245e-05,-3.21215e-06,1.27309e-05,-1.16049e-05,9
-2.40402e-05,1.1938e-05,-8.56047e-06,-4.23715e-06,1.2752e-05,-2.80148e-06,1.50947e-05,-6.95521e-06,9
-2.51263e-05,1.22021e-05,-8.42087e-06,-4.83335e-06,1.50945e-05,-4.23354e-06,1.59038e-05,-3.07488e-06,9
-2.68892e-05,1.31451e-05,-7.40065e-06,-6.37622e-06,1.55469e-05,-7.13143e-06,1.53869e-05,-3.51261e-06,9
-2.7465e-05,1.23924e-05,-6.09799e-06,-7.53043e-06,1.45614e-05,-9.27986e-06,1.37491e-05,-4.34487e-06,9
-2.73469e-05,1.1498e-05,-5.30103e-06,-8.87773e-06,1.56311e-05,-9.90588e-06,1.2245e-05,-1.95959e-06,9
-2.65233e-05,1.16009e-05,-5.8439e-06,-1.01788e-05,1.71785e-05,-9.83234e-06,1.22192e-05,2.31613e-06,9
-2.54843e-05,1.24689e-05,-6.86605e-06,-1.02157e-05,1.66292e-05,-8.66081e-06,1.25057e-05,6.54732e-06,9
-2.55601e-05,1.29198e-05,-7.66504e-06,-1.01421e-05,1.60305e-05,-6.91067e-06,1.29153e-05,8.3835e-06,9
-2.68217e-05,1.23989e-05,-8.88783e-06,-1.09458e-05,1.59599e-05,-6.15844e-06,1.47115e-05,7.65672e-06,9
-2.77162e-05,1.20262e-05,-9.088e-06,-1.15777e-05,1.45754e-05,-7.83464e-06,1.72198e-05,5.5481e-06,9
-2.84394e-05,1.30098e-05,-7.83629e-06,-1.03999e-05,1.17726e-05,-1.01816e-05,1.77594e-05,3.30572e-06,9
-2.89415e-05,1.40802e-05,-6.95969e-06,-7.11501e-06,1.03134e-05,-1.08747e-05,1.62618e-05,4.22499e-07,9
-2.87383e-05,1.39981e-05,-8.24786e-06,-3.84512e-06,1.16142e-05,-1.01733e-05,1.42051e-05,-3.17658e-06,9
-2.84647e-05,1.28998e-05,-9.64209e-06,-2.2792e-06,1.33575e-05,-1.04865e-05,1.20569e-05,-5.92479e-06,9
-2.90013e-05,1.24361e-05,-1.03509e-05,-1.80893e-06,1.36415e-05,-1.19511e-05,1.00929e-05,-7.24368e-06,9
-3.00101e-05,1.32392e-05,-1.0097e-05,-2.24112e-06,1.34065e-05,-1.19794e-05,8.65451e-06,-7.93298e-06,9
-3.0663e-05,1.45204e-05,-9.53834e-06,-3.06147e-06,1.40901e-05,-9.98115e-06,9.19423e-06,-7.76714e-06,9
-3.05519e-05,1.52062e-05,-9.2925e-06,-2.72126e-06,1.57809e-05,-7.32318e-06,1.20069e-05,-5.22182e-06,9
-3.04712e-05,1.47282e-05,-9.50293e-06,-1.59239e-06,1.721e-05,-4.69017e-06,1.38303e-05,-1.84682e-08,9
-3.09592e-05,1.33129e-05,-9.31238e-06,-5.80596e-07,1.7149e-05,-3.19782e-06,1.31009e-05,4.82609e-06,9
-3.09941e-05,1.23248e-05,-8.14129e-06,7.27923e-07,1.57284e-05,-3.27315e-06,1.13611e-05,6.63096e-06,9
-3.118e-05,1.30001e-05,-6.2064e-06,2.50819e-06,1.48624e-05,-4.11314e-06,1.03243e-05,6.21571e-06,9
-3.22906e-05,1.36139e-05,-4.86507e-06,3.12629e-06,1.45522e-05,-5.15616e-06,1.16567e-05,4.71584e-06,9
-3.33037e-05,1.19419e-05,-5.69036e-06,2.52942e-06,1.31125e-05,-5.5168e-06,1.29492e-05,5.20425e-06,9
-3.374e-05,1.07665e-05,-7.60042e-06,1.84671e-06,1.22448e-05,-4.37046e-06,1.14572e-05,6.33083e-06,9
-3.3349e-05,1.19306e-05,-8.55596e-06,3.12722e-07,1.39291e-05,-3.68599e-06,1.14748e-05,4.32521e-06,9
-3.37814e-05,1.28591e-05,-7.66377e-06,-1.71218e-06,1.67458e-05,-4.97728e-06,1.31769e-05,-2.35917e-07,9
-3.50334e-05,1.32786e-05,-6.3602e-06,-3.48037e-06,1.84624e-05,-6.41084e-06,1.36557e-05,-5.66233e-06,9
-3.59166e-05,1.26718e-05,-6.98458e-06,-4.59342e-06,1.76215e-05,-8.00712e-06,1.51562e-05,-1.07621e-05,9
-3.6981e-05,1.16211e-05,-9.11441e-06,-5.11195e-06,1.50574e-05,-9.18048e-06,1.52551e-05,-1.47478e-05,9
-3.74715e-05,1.08048e-05,-9.2515e-06,-4.60028e-06,1.40132e-05,-9.40729e-06,1.36066e-05,-1.5618e-05,9
-3.77088e-05,1.09386e-05,-8.43983e-06,-3.35681e-06,1.40528e-05,-8.99604e-06,1.15554e-05,-1.50123e-05,9
-3.79471e-05,1.17578e-05,-8.43038e-06,-3.665e-06,1.41742e-05,-8.81075e-06,1.04662e-05,-1.33986e-05,9
-3.69945e-05,1.26689e-05,-7.86567e-06,-5.19786e-06,1.45488e-05,-8.98708e-06,1.16129e-05,-1.01902e-05,9
-3.45639e-05,1.37138e-05,-6.70365e-06,-5.38467e-06,1.5004e-05,-9.39398e-06,1.24707e-05,-5.11682e-06,9
-3.28626e-05,1.3537e-05,-6.29384e-06,-4.24723e-06,1.58994e-05,-9.50709e-06,1.20129e-05,1.97054e-07,9
-3.23209e-05,1.23139e-05,-7.01126e-06,-4.10431e-06,1.71672e-05,-8.88058e-06,1.05088e-05,3.02473e-06,9
-3.22927e-05,1.08151e-05,-8.13603e-06,-5.10037e-06,1.80922e-05,-8.39846e-06,9.94041e-06,3.83491e-06,9
-3.2699e-05,9.70328e-06,-8.80279e-06,-5.30883e-06,1.82244e-05,-8.38687e-06,1.10169e-05,3.23425e-06,9
-3.33655e-05,9.88835e-06,-8.7595e-06,-4.76769e-06,1.78657e-05,-7.89774e-06,1.27892e-05,2.59172e-06,9
-3.3645e-05,1.16109e-05,-6.76503e-06,-4.74395e-06,1.71131e-05,-7.35379e-06,1.38664e-05,3.01161e-06,9
-3.29567e-05,1.25556e-05,-3.57811e-06,-5.42515e-06,1.64094e-05,-8.08962e-06,1.33003e-05,4.80293e-06,9
-3.16812e-05,1.17857e-05,-2.53127e-06,-6.26015e-06,1.57017e-05,-8.00638e-06,1.10341e-05,6.20548e-06,9
-3.13292e-05,1.08659e-05,-3.81935e-06,-6.5061e-06,1.53522e-05,-6.88317e-06,9.15743e-06,6.58608e-06,9
-3.28431e-05,1.16595e-05,-4.91271e-06,-6.24764e-06,1.55401e-05,-7.33119e-06,8.66483e-06,6.63743e-06,9
-3.47955e-05,1.30602e-05,-5.25334e-06,-5.41246e-06,1.54171e-05,-1.02492e-05,9.27295e-06,7.13861e-06,9
-3.60857e-05,1.37804e-05,-5.72728e-06,-3.99784e-06,1.49807e-05,-1.28562e-05,1.10635e-05,6.89467e-06,9
-3.63511e-05,1.3699e-05,-6.05198e-06,-1.79948e-06,1.51407e-05,-1.34734e-05,1.36084e-05,5.27562e-06,9
-3.57799e-05,1.32255e-05,-4.95627e-06,-2.86221e-07,1.58554e-05,-1.20635e-05,1.60506e-05,3.92772e-06,9
-3.45383e-05,1.35815e-05,-2.71108e-06,-1.55972e-06,1.60174e-05,-1.06066e-05,1.61677e-05,4.09893e-06,9
-3.40304e-05,1.26553e-05,-1.54015e-06,-3.44454e-06,1.47968e-05,-1.08214e-05,1.54985e-05,5.09917e-06,9
-3.39765e-05,9.99192e-06,-2.01373e-06,-3.85424e-06,1.39186e-05,-1.11127e-05,1.72714e-05,6.33565e-06,9
-3.24632e-05,8.82677e-06,-3.05051e-06,-4.10548e-06,1.39662e-05,-1.04132e-05,1.77143e-05,6.29094e-06,9
-3.01693e-05,9.72382e-06,-3.71538e-06,-5.09558e-06,1.39044e-05,-8.45735e-06,1.47074e-05,5.63523e-06,9
-2.86644e-05,1.08745e-05,-4.59953e-06,-5.92844e-06,1.44177e-05,-6.52876e-06,1.18345e-05,6.84797e-06,9
-2.86587e-05,1.17864e-05,-5.94024e-06,-5.70409e-06,1.48771e-05,-7.7541e-06,1.11617e-05,6.73793e-06,9
-2.89453e-05,1.14823e-05,-6.45148e-06,-4.64643e-06,1.38633e-05,-1.02689e-05,1.12093e-05,5.07455e-06,9
-2.88136e-05,1.03864e-05,-6.22224e-06,-3.42283e-06,1.27407e-05,-1.11117e-05,1.05028e-05,4.29709e-06,9
-2.94874e-05,9.57722e-06,-6.33528e-06,-2.90087e-06,1.30196e-05,-1.15569e-05,1.04337e-05,4.10591e-06,9
-3.01736e-05,9.12355e-06,-6.64208e-06,-3.41307e-06,1.45359e-05,-1.18473e-05,1.05892e-05,3.55903e-06,9
-2.98605e-05,9.05841e-06,-7.24724e-06,-3.45538e-06,1.55213e-05,-1.11445e-05,9.96061e-06,2.30885e-06,9
-2.86276e-05,9.72639e-06,-7.39676e-06,-2.25513e-06,1.39922e-05,-1.07725e-05,9.37959e-06,3.49723e-07,9
-2.79279e-05,1.14665e-05,-6.44491e-06,-1.59258e-06,1.21626e-05,-1.18925e-05,1.09322e-05,-1.83478e-06,9
-2.85392e-05,1.41838e-05,-3.92386e-06,-1.3933e-06,1.09839e-05,-1.24906e-05,1.43062e-05,-3.29984e-06,9
-2.86518e-05,1.63246e-05,-1.0509e-06,-4.21895e-07,1.02176e-05,-1.25077e-05,1.58211e-05,-3.0315e-06,9
-2.7133e-05,1.66937e-05,-1.387e-07,2.87744e-07,1.01582e-05,-1.32996e-05,1.44005e-05,-1.57218e-06,9
-2.55978e-05,1.63798e-05,-6.96905e-07,-5.63285e-07,1.08672e-05,-1.4929e-05,1.3708e-05,-9.6293e-07,9
-2.57457e-05,1.66549e-05,-2.18598e-06,-2.70866e-06,1.18754e-05,-1.5928e-05,1.51938e-05,-1.4578e-06,9
-2.71531e-05,1.73694e-05,-4.24247e-06,-5.53891e-06,1.26661e-05,-1.61115e-05,1.69767e-05,-1.05328e-06,9
-2.91877e-05,1.74841e-05,-5.91054e-06,-7.90859e-06,1.28242e-05,-1.55621e-05,1.76641e-05,5.98555e-07,9
-3.09136e-05,1.68975e-05,-6.83619e-06,-8.04161e-06,1.15426e-05,-1.4222e-05,1.69819e-05,1.93975e-06,9
-3.11958e-05,1.5679e-05,-7.51411e-06,-6.51638e-06,9.7939e-06,-1.23595e-05,1.55567e-05,2.61261e-06,9
-3.1237e-05,1.4689e-05,-7.48468e-06,-5.60315e-06,9.36614e-06,-1.05143e-05,1.43058e-05,3.31256e-06,9
-3.21828e-05,1.40597e-05,-7.01884e-06,-5.94822e-06,1.0707e-05,-1.02997e-05,1.26506e-05,4.30296e-06,9
-3.31989e-05,1.44485e-05,-7.41731e-06,-5.70602e-06,1.24943e-05,-1.02694e-05,1.10727e-05,4.72042e-06,9
-3.43847e-05,1.57286e-05,-7.66071e-06,-4.70558e-06,1.35655e-05,-9.63666e-06,1.09036e-05,4.60047e-06,9
-3.50302e-05,1.47807e-05,-7.47064e-06,-3.65211e-06,1.31752e-05,-1.01043e-05,1.0621e-05,5.51761e-06,9
-3.45691e-05,1.32022e-05,-7.34081e-06,-3.969e-06,1.31603e-05,-1.17158e-05,1.05339e-05,6.81693e-06,9
-3.38922e-05,1.33007e-05,-6.07246e-06,-5.42954e-06,1.41307e-05,-1.28672e-05,9.9517e-06,8.11889e-06,9
-3.45593e-05,1.29812e-05,-4.74526e-06,-6.84744e-06,1.45926e-05,-1.24307e-05,9.33783e-06,1.03277e-05,9
-3.59335e-05,1.31392e-05,-5.19406e-06,-8.35915e-06,1.48312e-05,-1.13065e-05,9.83692e-06,1.17557e-05,9
-3.59917e-05,1.33266e-05,-6.2792e-06,-8.81402e-06,1.46363e-05,-1.09086e-05,9.78672e-06,1.0987e-05,9
-3.44172e-05,1.32016e-05,-8.01611e-06,-7.12468e-06,1.37942e-05,-1.10451e-05,8.26883e-06,8.99309e-06,9
-3.36103e-05,1.36298e-05,-1.04046e-05,-4.7006e-06,1.40103e-05,-1.16077e-05,7.1686e-06,8.09472e-06,9
-3.36186e-05,1.42635e-05,-1.02827e-05,-4.62642e-06,1.38238e-05,-1.15737e-05,9.247e-06,9.92232e-06,9
-3.36205e-05,1.40859e-05,-8.87989e-06,-4.13077e-06,1.24576e-05,-1.13518e-05,1.21622e-05,1.2673e-05,9
-3.33321e-05,1.23126e-05,-7.56587e-06,-1.96497e-06,1.15619e-05,-1.13878e-05,1.34838e-05,1.34215e-05,9
-3.22213e-05,1.09795e-05,-6.92234e-06,-4.83271e-07,1.18149e-05,-1.04875e-05,1.34097e-05,1.09154e-05,9
-3.19173e-05,1.01517e-05,-7.16545e-06,-7.99502e-07,1.24762e-05,-9.69069e-06,1.27705e-05,4.66681e-06,9
-3.27957e-05,9.66208e-06,-7.27246e-06,-2.91433e-06,1.18481e-05,-8.90674e-06,1.1794e-05,-4.61959e-06,9
-3.32607e-05,9.70721e-06,-7.54058e-06,-5.13531e-06,1.12752e-05,-8.00033e-06,1.08163e-05,-1.50382e-05,9
-3.13142e-05,9.63651e-06,-8.10325e-06,-6.78319e-06,1.18832e-05,-6.84284e-06,1.07867e-05,-2.28627e-05,9
-2.90825e-05,9.43472e-06,-8.95545e-06,-9.03963e-06,1.32606e-05,-6.20892e-06,1.2375e-05,-2.56635e-05,9
-2.79005e-05,9.86457e-06,-1.05019e-05,-1.20694e-05,1.42563e-05,-6.72095e-06,1.41198e-05,-2.40294e-05,9
-2.64456e-05,1.07023e-05,-1.30048e-05,-1.4155e-05,1.48921e-05,-8.08656e-06,1.43913e-05,-2.03347e-05,9
-2.48697e-05,1.16478e-05,-1.37792e-05,-1.43522e-05,1.41608e-05,-9.35523e-06,1.37112e-05,-1.62725e-05,9
-2.44193e-05,1.13883e-05,-1.20537e-05,-1.23863e-05,1.13752e-05,-9.46039e-06,1.29526e-05,-1.10022e-05,9
-2.37055e-05,9.78185e-06,-9.75088e-06,-1.01418e-05,8.76145e-06,-8.13735e-06,1.29748e-05,-2.25506e-06,9
-2.27374e-05,8.92153e-06,-9.39445e-06,-8.28278e-06,7.55884e-06,-5.14952e-06,1.30891e-05,9.04009e-06,9
-2.28448e-05,8.72295e-06,-1.03415e-05,-7.43351e-06,6.73737e-06,-3.04845e-06,1.26586e-05,1.81125e-05,9
-2.22625e-05,7.86903e-06,-1.0525e-05,-7.2309e-06,6.14923e-06,-3.5242e-06,1.32879e-05,2.09772e-05,9
-2.09096e-05,6.69095e-06,-9.76441e-06,-6.61072e-06,6.09056e-06,-4.99965e-06,1.51325e-05,1.46355e-05,9
-2.06072e-05,7.35524e-06,-9.2335e-06,-6.98566e-06,7.35259e-06,-6.70426e-06,1.62991e-05,2.96084e-06,9
-2.11253e-05,9.64448e-06,-9.08362e-06,-7.55134e-06,9.20315e-06,-8.21514e-06,1.61204e-05,-8.56559e-06,9
-1.96633e-05,1.2025e-05,-7.81528e-06,-7.00612e-06,1.03525e-05,-8.23665e-06,1.40334e-05,-2.03798e-05,9
-1.82266e-05,1.32268e-05,-4.18796e-06,-4.81002e-06,1.23268e-05,-8.4736e-06,1.3015e-05,-2.89974e-05,9
-1.9899e-05,1.37576e-05,-1.11051e-06,-1.43901e-06,1.34916e-05,-9.25473e-06,1.48262e-05,-3.1385e-05,9
-2.26861e-05,1.42628e-05,-1.91071e-06,1.14162e-07,1.40866e-05,-9.57183e-06,1.62008e-05,-2.90036e-05,9
-2.45594e-05,1.44703e-05,-5.21302e-06,-8.28294e-07,1.41104e-05,-9.43418e-06,1.4262e-05,-2.35679e-05,9
-2.57463e-05,1.30969e-05,-7.78466e-06,-2.37275e-06,1.32772e-05,-8.61137e-06,1.06106e-05,-1.83096e-05,9
-2.66013e-05,1.08433e-05,-8.7426e-06,-3.037e-06,1.25674e-05,-8.34786e-06,8.16197e-06,-1.37863e-05,9
-2.56446e-05,1.15641e-05,-9.4393e-06,-2.36767e-06,1.19812e-05,-8.74989e-06,7.60432e-06,-9.74218e-06,9
-2.43439e-05,1.34967e-05,-8.77515e-06,-1.40818e-06,1.32019e-05,-8.77402e-06,8.44661e-06,-6.64639e-06,9
-2.41207e-05,1.41058e-05,-7.8999e-06,-8.91409e-07,1.51827e-05,-8.6605e-06,9.45827e-06,-4.49452e-06,9
-2.42347e-05,1.4084e-05,-7.48625e-06,-1.19348e-06,1.5608e-05,-7.92479e-06,1.02742e-05,-2.44231e-06,9
-2.50131e-05,1.5091e-05,-7.10442e-06,-1.52237e-06,1.5414e-05,-6.90198e-06,1.09743e-05,-1.57005e-06,9
-2.65065e-05,1.65729e-05,-6.69338e-06,-1.80308e-06,1.59347e-05,-5.904e-06,1.16568e-05,-1.47849e-06,9
-2.77531e-05,1.71235e-05,-5.76716e-06,-2.26332e-06,1.61247e-05,-5.52855e-06,1.26145e-05,-4.36826e-07,9
-2.81435e-05,1.71156e-05,-5.42561e-06,-2.01039e-06,1.56974e-05,-5.82164e-06,1.45048e-05,2.03278e-06,9
-2.83147e-05,1.7733e-05,-5.85761e-06,-1.66135e-06,1.47942e-05,-6.77549e-06,1.56572e-05,5.87578e-06,9
-2.80299e-05,1.81763e-05,-5.54807e-06,-2.36649e-06,1.41974e-05,-8.42703e-06,1.48904e-05,8.73647e-06,9
-2.75191e-05,1.64978e-05,-3.23024e-06,-4.02823e-06,1.54467e-05,-9.39135e-06,1.37462e-05,9.8562e-06,9
-2.68617e-05,1.40575e-05,-1.03624e-06,-5.52917e-06,1.8128e-05,-9.27465e-06,1.30578e-05,9.94163e-06,9
-2.65469e-05,1.27024e-05,-2.39032e-06,-6.69033e-06,1.99109e-05,-9.3638e-06,1.24238e-05,9.99441e-06,9
-2.7259e-05,1.29417e-05,-5.77617e-06,-8.44578e-06,1.97408e-05,-1.06053e-05,1.24782e-05,1.12001e-05,9
-2.86632e-05,1.35112e-05,-6.19183e-06,-1.01141e-05,1.87255e-05,-1.07534e-05,1.35441e-05,1.42696e-05,9
-2.95222e-05,1.4727e-05,-3.77453e-06,-1.0206e-05,1.84012e-05,-9.07754e-06,1.46749e-05,1.64211e-05,9
-2.89196e-05,1.62012e-05,-2.02655e-06,-8.18021e-06,1.75496e-05,-6.84858e-06,1.53238e-05,1.65379e-05,9
-2.81789e-05,1.54926e-05,-1.51895e-06,-5.50694e-06,1.5497e-05,-5.55595e-06,1.50213e-05,1.56478e-05,9
-2.95691e-05,1.48486e-05,-1.54496e-06,-5.15092e-06,1.44142e-05,-4.80456e-06,1.44734e-05,1.33821e-05,9
-3.1465e-05,1.59016e-05,-2.0784e-06,-5.99461e-06,1.37078e-05,-3.42658e-06,1.33622e-05,1.06311e-05,9
-3.27201e-05,1.69428e-05,-3.08545e-06,-5.12121e-06,1.25482e-05,-2.86462e-06,1.24708e-05,8.99218e-06,9
-3.357e-05,1.73895e-05,-4.58913e-06,-2.82615e-06,1.13975e-05,-4.8515e-06,1.32012e-05,8.95265e-06,9
-3.31658e-05,1.70829e-05,-6.54784e-06,-1.97016e-06,1.10395e-05,-7.18489e-06,1.21535e-05,8.7635e-06,9
-3.33875e-05,1.65461e-05,-8.70548e-06,-2.08967e-06,1.17285e-05,-8.40054e-06,1.06776e-05,7.9539e-06,9
-3.49408e-05,1.5357e-05,-9.39476e-06,-2.06826e-06,1.26756e-05,-9.16736e-06,1.08575e-05,7.90284e-06,9
-3.66424e-05,1.45081e-05,-8.9945e-06,-2.69453e-06,1.37564e-05,-9.12178e-06,1.0232e-05,6.88316e-06,9
-3.69383e-05,1.33886e-05,-9.46186e-06,-3.07152e-06,1.43725e-05,-9.02843e-06,9.50811e-06,4.8609e-06,9
-3.54755e-05,1.13166e-05,-8.84124e-06,-2.60157e-06,1.44127e-05,-1.01203e-05,1.01269e-05,3.33672e-06,9
-3.44803e-05,9.17766e-06,-8.32565e-06,-2.39405e-06,1.44516e-05,-1.04141e-05,1.13099e-05,2.32287e-06,9
-3.50872e-05,8.43123e-06,-1.00006e-05,-4.31636e-06,1.50613e-05,-1.00046e-05,1.1847e-05,2.01646e-06,9
-3.64571e-05,9.47806e-06,-1.26765e-05,-7.39271e-06,1.58329e-05,-1.05428e-05,1.20934e-05,2.43803e-06,9
-3.72131e-05,1.07939e-05,-1.38825e-05,-1.065e-05,1.59176e-05,-1.17984e-05,1.27416e-05,2.23551e-06,9
-3.64627e-05,1.18262e-05,-1.26686e-05,-1.28696e-05,1.58118e-05,-1.27745e-05,1.34247e-05,1.3162e-06,9
-3.51304e-05,1.22206e-05,-1.05217e-05,-1.28765e-05,1.48208e-05,-1.26793e-05,1.3585e-05,1.20809e-06,9
-3.4183e-05,1.20877e-05,-9.09789e-06,-1.0899e-05,1.29995e-05,-1.27869e-05,1.26837e-05,1.28142e-06,9
-3.4614e-05,1.1792e-05,-9.1512e-06,-8.77771e-06,1.09921e-05,-1.31444e-05,1.05681e-05,1.52023e-06,9
-3.58705e-05,1.21515e-05,-9.64181e-06,-7.91625e-06,9.06059e-06,-1.20889e-05,9.93059e-06,1.89598e-06,9
-3.71342e-05,1.23417e-05,-1.00703e-05,-7.86225e-06,8.23802e-06,-9.30589e-06,1.16279e-05,2.98158e-06,9
-3.87475e-05,1.19509e-05,-9.952e-06,-7.36769e-06,9.15724e-06,-7.79026e-06,1.30119e-05,3.8394e-06,9
-3.99143e-05,1.17377e-05,-9.04517e-06,-5.15033e-06,1.0307e-05,-8.61496e-06,1.35645e-05,3.34793e-06,9
-3.98375e-05,1.19085e-05,-8.70445e-06,-2.13078e-06,1.06959e-05,-1.02124e-05,1.44997e-05,1.39955e-06,9
-3.92542e-05,1.17467e-05,-8.53706e-06,-1.5257e-07,1.13491e-05,-1.05606e-05,1.45373e-05,-5.28941e-07,9
-3.89756e-05,1.16475e-05,-7.63897e-06,9.84266e-07,1.20551e-05,-9.90875e-06,1.36595e-05,-1.17962e-06,9
-3.88752e-05,1.10638e-05,-7.07666e-06,2.43815e-06,1.2359e-05,-8.24736e-06,1.29704e-05,-2.10322e-06,9
-3.74285e-05,1.02646e-05,-5.72416e-06,2.70748e-06,1.28732e-05,-7.39477e-06,1.25642e-05,-2.37765e-06,9
-3.46924e-05,1.00858e-05,-5.40407e-06,9.045e-07,1.35653e-05,-8.8922e-06,1.25168e-05,8.42953e-07,9
-3.29933e-05,1.03536e-05,-5.94905e-06,-2.61069e-07,1.33243e-05,-1.06906e-05,1.13066e-05,4.57271e-06,9
-3.18648e-05,1.03159e-05,-4.58344e-06,1.27025e-06,1.15667e-05,-1.20403e-05,1.02109e-05,4.94181e-06,9
-3.10838e-05,9.12164e-06,-2.61027e-06,2.49692e-06,9.80646e-06,-1.10732e-05,1.11802e-05,2.96386e-06,9
-3.13027e-05,8.89292e-06,-2.21137e-06,1.61082e-06,1.03599e-05,-8.62473e-06,1.24459e-05,1.61535e-06,9
-3.16756e-05,1.07631e-05,-3.31191e-06,-8.50003e-07,1.17841e-05,-8.5741e-06,1.16456e-05,3.72726e-06,9
-3.21905e-05,1.20981e-05,-4.73188e-06,-2.89408e-06,1.20402e-05,-1.00084e-05,1.03755e-05,9.24442e-06,9
-3.22378e-05,1.28952e-05,-6.55993e-06,-3.40434e-06,1.17379e-05,-9.45368e-06,9.93814e-06,1.61259e-05,9
-3.21918e-05,1.25203e-05,-6.78895e-06,-5.57872e-06,1.09318e-05,-9.06757e-06,9.66939e-06,1.94618e-05,9
-3.18728e-05,1.05148e-05,-6.05601e-06,-9.9618e-06,9.98489e-06,-8.82234e-06,9.37696e-06,1.77081e-05,9
-2.95318e-05,1.0212e-05,-6.18921e-06,-1.42052e-05,1.03402e-05,-7.97461e-06,9.08812e-06,1.21491e-05,9
-2.76704e-05,1.05101e-05,-6.29171e-06,-1.74103e-05,1.05771e-05,-7.59954e-06,1.03821e-05,6.18924e-06,9
-2.78016e-05,9.87934e-06,-4.65188e-06,-1.97061e-05,1.0304e-05,-6.62092e-06,1.23173e-05,1.84246e-06,9
-2.93553e-05,9.04538e-06,-2.31189e-06,-1.94473e-05,1.05642e-05,-6.24269e-06,1.26242e-05,-1.45125e-06,9
-3.0931e-05,9.20942e-06,-1.61519e-06,-1.52005e-05,1.19098e-05,-6.49487e-06,1.06856e-05,-4.04022e-06,9
-3.08276e-05,9.13976e-06,-2.15438e-06,-9.50949e-06,1.35048e-05,-7.24447e-06,8.38399e-06,-7.69385e-06,9
-2.94586e-05,8.30729e-06,-3.51012e-06,-5.30162e-06,1.42981e-05,-7.44893e-06,7.37882e-06,-1.23294e-05,9
-2.90548e-05,8.38622e-06,-5.34635e-06,-3.37468e-06,1.47709e-05,-7.49179e-06,7.99793e-06,-1.58428e-05,9
-3.00759e-05,9.837e-06,-7.26622e-06,-2.9594e-06,1.52103e-05,-8.78569e-06,9.38859e-06,-1.60306e-05,9
-3.05883e-05,1.14038e-05,-8.1617e-06,-2.76381e-06,1.53323e-05,-1.02691e-05,1.08897e-05,-1.32633e-05,9
-2.93157e-05,1.19097e-05,-7.93745e-06,-2.66741e-06,1.51316e-05,-1.05447e-05,1.27054e-05,-9.83043e-06,9
-2.67263e-05,1.18452e-05,-7.61999e-06,-3.17405e-06,1.49274e-05,-9.33922e-06,1.47266e-05,-7.94732e-06,9
-2.52189e-05,1.18137e-05,-7.71773e-06,-3.75857e-06,1.44321e-05,-8.33883e-06,1.70511e-05,-8.04551e-06,9
-2.52929e-05,1.26878e-05,-7.84521e-06,-3.24849e-06,1.39003e-05,-8.72976e-06,1.73195e-05,-1.00124e-05,9
-2.57517e-05,1.38232e-05,-7.49935e-06,-1.63627e-06,1.32628e-05,-9.8928e-06,1.51356e-05,-1.25861e-05,9
-2.46666e-05,1.43887e-05,-6.95375e-06,-3.10891e-07,1.33973e-05,-1.035e-05,1.23011e-05,-1.31312e-05,9
-2.28013e-05,1.44242e-05,-5.95122e-06,2.1998e-07,1.42206e-05,-1.01239e-05,1.06945e-05,-1.09839e-05,9
-2.17384e-05,1.3941e-05,-5.3992e-06,1.13712e-06,1.39533e-05,-1.14356e-05,1.14753e-05,-8.01801e-06,9
-2.12887e-05,1.3325e-05,-6.09144e-06,2.39773e-06,1.31705e-05,-1.40833e-05,1.27128e-05,-5.10892e-06,9
-2.1062e-05,1.43038e-05,-6.85436e-06,2.88768e-06,1.44162e-05,-1.5784e-05,1.25178e-05,-1.93251e-06,9
-2.07891e-05,1.48388e-05,-8.08805e-06,2.03764e-06,1.50254e-05,-1.58109e-05,1.11596e-05,3.03261e-06,9
-2.1593e-05,1.41688e-05,-9.59329e-06,7.16123e-07,1.34576e-05,-1.43263e-05,9.11917e-06,9.65245e-06,9
-2.30271e-05,1.48455e-05,-1.01188e-05,6.74101e-07,1.18474e-05,-1.4386e-05,8.69495e-06,1.41932e-05,9
-2.41046e-05,1.53011e-05,-9.57798e-06,1.16601e-06,1.17583e-05,-1.55409e-05,1.00843e-05,1.42404e-05,9
-2.42706e-05,1.53585e-05,-8.438e-06,1.02503e-06,1.35618e-05,-1.43455e-05,1.12276e-05,9.78807e-06,9
-2.35867e-05,1.52496e-05,-8.65578e-06,6.27815e-08,1.54597e-05,-1.1485e-05,1.2498e-05,3.97269e-06,9
-2.27042e-05,1.44718e-05,-8.74522e-06,-7.22561e-07,1.53685e-05,-9.48692e-06,1.28742e-05,6.27218e-07,9
-2.16983e-05,1.36623e-05,-8.10846e-06,-6.91435e-07,1.48452e-05,-8.85759e-06,1.22225e-05,-6.96043e-07,9
-2.15791e-05,1.4173e-05,-7.82177e-06,-1.0817e-06,1.59284e-05,-9.1015e-06,1.23745e-05,-1.18649e-06,9
-2.21053e-05,1.53182e-05,-7.69208e-06,-4.60993e-07,1.65281e-05,-8.11466e-06,1.33874e-05,-2.22301e-06,9
-2.19928e-05,1.71604e-05,-7.98992e-06,8.38527e-07,1.59653e-05,-5.6106e-06,1.47501e-05,-4.34051e-06,9
-2.14213e-05,1.93423e-05,-7.98024e-06,1.34935e-06,1.55765e-05,-3.7584e-06,1.61543e-05,-7.16674e-06,9
-2.1435e-05,2.03379e-05,-7.38239e-06,3.41348e-07,1.55805e-05,-3.59377e-06,1.67068e-05,-9.30982e-06,9
-2.20729e-05,1.99264e-05,-7.272e-06,-8.3657e-07,1.5005e-05,-4.20432e-06,1.63604e-05,-9.17639e-06,9
-2.23025e-05,1.8175e-05,-8.47589e-06,-2.89376e-07,1.46232e-05,-4.43066e-06,1.59582e-05,-7.37833e-06,9
-2.17901e-05,1.70944e-05,-9.52196e-06,2.73611e-07,1.47544e-05,-5.35215e-06,1.67691e-05,-6.9625e-06,9
-2.14816e-05,1.76013e-05,-9.40274e-06,-6.84173e-07,1.53456e-05,-6.3669e-06,1.86024e-05,-1.00427e-05,9
-2.17787e-05,1.7605e-05,-9.04353e-06,-1.57072e-06,1.56338e-05,-6.54164e-06,1.8888e-05,-1.47366e-05,9
-2.19756e-05,1.52924e-05,-9.31204e-06,-5.89987e-07,1.47998e-05,-6.47893e-06,1.76361e-05,-1.86593e-05,9
-2.24308e-05,1.33495e-05,-8.64739e-06,5.16968e-07,1.38307e-05,-7.4211e-06,1.70634e-05,-1.99489e-05,9
-2.32572e-05,1.25684e-05,-5.73741e-06,6.11314e-07,1.34391e-05,-9.78043e-06,1.64502e-05,-1.88004e-05,9
-2.40117e-05,1.36436e-05,-2.04518e-06,-5.18517e-07,1.31987e-05,-1.2024e-05,1.56783e-05,-1.6663e-05,9
-2.54401e-05,1.60194e-05,1.61571e-07,-1.51612e-06,1.29094e-05,-1.21443e-05,1.53336e-05,-1.45152e-05,9
-2.73733e-05,1.56367e-05,-9.9366e-08,-1.7146e-06,1.23814e-05,-1.10014e-05,1.50829e-05,-1.17772e-05,9
-2.90944e-05,1.33368e-05,-1.11102e-06,-2.15429e-06,1.16517e-05,-1.04152e-05,1.5277e-05,-8.53369e-06,9
-2.98931e-05,1.20031e-05,-6.34396e-07,-2.80077e-06,1.12321e-05,-1.09907e-05,1.5276e-05,-4.85829e-06,9
-3.19143e-05,1.26708e-05,2.88104e-07,-2.21272e-06,1.04312e-05,-1.06065e-05,1.26722e-05,1.1275e-07,9
-3.34366e-05,1.3913e-05,-2.28443e-08,-1.98725e-06,8.24836e-06,-8.92703e-06,9.11965e-06,5.09877e-06,9
-3.16576e-05,1.40437e-05,-5.15963e-07,-2.83481e-06,7.04634e-06,-7.99857e-06,9.58006e-06,6.7488e-06,9
-3.05668e-05,1.4488e-05,-1.44536e-06,-3.7968e-06,7.72484e-06,-8.58864e-06,1.03416e-05,6.51277e-06,9
-3.0817e-05,1.49973e-05,-3.76126e-06,-5.29398e-06,8.62411e-06,-9.49896e-06,9.29826e-06,5.5242e-06,9
-3.1132e-05,1.53353e-05,-4.93231e-06,-6.43916e-06,9.52647e-06,-9.07993e-06,9.27499e-06,5.1043e-06,9
-3.1319e-05,1.43047e-05,-4.24667e-06,-6.23816e-06,9.85416e-06,-8.65712e-06,9.96449e-06,6.78199e-06,9
-3.2128e-05,1.14019e-05,-4.0158e-06,-4.6394e-06,9.5022e-06,-8.75985e-06,9.46983e-06,8.75937e-06,9
-3.29852e-05,9.78381e-06,-4.92206e-06,-3.44375e-06,9.3782e-06,-8.9177e-06,6.85325e-06,9.35608e-06,9
-3.36105e-05,9.58428e-06,-5.48524e-06,-3.33365e-06,1.044e-05,-9.24533e-06,4.92167e-06,8.26075e-06,9
-3.3485e-05,9.30126e-06,-4.74739e-06,-4.45147e-06,1.11802e-05,-1.0032e-05,5.83751e-06,5.91151e-06,9
-3.36092e-05,8.72855e-06,-2.8757e-06,-5.66067e-06,1.13988e-05,-9.51308e-06,8.3178e-06,3.79589e-06,9
-3.50301e-05,8.39745e-06,-1.88583e-06,-7.62664e-06,1.20491e-05,-7.47382e-06,9.10164e-06,4.55196e-06,9
-3.63257e-05,8.73813e-06,-3.75995e-06,-9.18383e-06,1.24372e-05,-5.37902e-06,7.93241e-06,7.03191e-06,9
-3.69288e-05,9.10066e-06,-7.26007e-06,-9.54133e-06,1.17402e-05,-4.59784e-06,7.51857e-06,9.06432e-06,9
-3.73517e-05,8.78013e-06,-1.02601e-05,-9.66309e-06,1.03839e-05,-6.50905e-06,9.03916e-06,9.11644e-06,9
-3.80582e-05,9.46065e-06,-1.14803e-05,-9.29868e-06,9.21697e-06,-9.50817e-06,1.09071e-05,7.84397e-06,9
-3.80866e-05,1.20147e-05,-1.11064e-05,-8.46477e-06,9.08129e-06,-1.1012e-05,1.21939e-05,6.33341e-06,9
-3.74614e-05,1.41521e-05,-9.77166e-06,-8.28993e-06,1.06523e-05,-1.07969e-05,1.36318e-05,5.81426e-06,9
-3.627e-05,1.35616e-05,-8.13727e-06,-1.00604e-05,1.31613e-05,-1.02223e-05,1.51243e-05,5.96654e-06,9
-3.52986e-05,1.16015e-05,-6.71195e-06,-1.19813e-05,1.46662e-05,-9.7674e-06,1.59065e-05,6.02123e-06,9
-3.38918e-05,1.10888e-05,-5.78639e-06,-1.23418e-05,1.48508e-05,-1.055e-05,1.59154e-05,6.45156e-06,9
-3.22807e-05,1.22037e-05,-4.95277e-06,-9.36317e-06,1.47633e-05,-1.24436e-05,1.52956e-05,7.35989e-06,9
-3.10659e-05,1.259e-05,-4.16125e-06,-5.98842e-06,1.52249e-05,-1.26518e-05,1.34615e-05,8.6653e-06,9
-3.0395e-05,1.22937e-05,-3.32902e-06,-5.35598e-06,1.5821e-05,-1.08854e-05,1.1584e-05,1.14442e-05,9
-3.03695e-05,1.25421e-05,-2.48644e-06,-6.06569e-06,1.46429e-05,-9.04659e-06,1.10784e-05,1.38292e-05,9
-3.03889e-05,1.27733e-05,-2.83845e-06,-6.91813e-06,1.41165e-05,-8.47764e-06,1.06359e-05,1.34159e-05,9
-3.10587e-05,1.06957e-05,-3.98397e-06,-7.70102e-06,1.5071e-05,-8.35052e-06,1.05201e-05,1.25915e-05,9
-3.24e-05,8.02855e-06,-4.33326e-06,-6.55555e-06,1.44789e-05,-7.86459e-06,1.06222e-05,1.23185e-05,9
-3.29013e-05,7.85882e-06,-4.37103e-06,-4.84788e-06,1.36209e-05,-7.91493e-06,1.19252e-05,1.0699e-05,9
-3.12897e-05,8.88819e-06,-3.5137e-06,-3.7187e-06,1.48383e-05,-8.60318e-06,1.45066e-05,9.04108e-06,9
-3.0034e-05,1.09863e-05,-2.93653e-06,-2.05092e-06,1.67211e-05,-1.05269e-05,1.5361e-05,8.81073e-06,9
-3.03668e-05,1.19428e-05,-3.33841e-06,-5.09053e-07,1.70614e-05,-1.2434e-05,1.37618e-05,8.35275e-06,9
-3.05525e-05,1.04521e-05,-3.7355e-06,-6.44512e-07,1.64711e-05,-1.36121e-05,1.059e-05,8.00025e-06,9
-3.05615e-05,9.03295e-06,-5.026e-06,-3.16e-06,1.58709e-05,-1.41759e-05,9.37648e-06,7.67182e-06,9
-3.04292e-05,8.93032e-06,-6.14322e-06,-6.28018e-06,1.48999e-05,-1.46338e-05,1.07142e-05,7.63876e-06,9
-3.14028e-05,9.34891e-06,-6.39071e-06,-9.29801e-06,1.43137e-05,-1.51735e-05,1.29115e-05,7.64795e-06,9
-3.26169e-05,1.03488e-05,-6.52378e-06,-1.14529e-05,1.42848e-05,-1.52416e-05,1.45828e-05,6.84338e-06,9
-3.30482e-05,1.14365e-05,-8.2147e-06,-1.23728e-05,1.46584e-05,-1.48169e-05,1.48516e-05,3.60314e-06,9
-3.2332e-05,1.17299e-05,-1.04877e-05,-1.23854e-05,1.58863e-05,-1.40026e-05,1.4837e-05,-1.87402e-06,9
-3.06498e-05,1.09861e-05,-1.17848e-05,-1.33036e-05,1.69832e-05,-1.39339e-05,1.6019e-05,-5.7051e-06,9
-2.94964e-05,8.99188e-06,-1.19596e-05,-1.3856e-05,1.72937e-05,-1.2823e-05,1.72723e-05,-6.06846e-06,9
-2.92502e-05,7.35776e-06,-1.16883e-05,-1.23195e-05,1.70422e-05,-9.91592e-06,1.68149e-05,-5.12868e-06,9
-3.00477e-05,7.2026e-06,-1.15357e-05,-9.98654e-06,1.64768e-05,-8.14245e-06,1.55411e-05,-5.5021e-06,9
-3.0154e-05,8.35444e-06,-1.13603e-05,-8.53701e-06,1.6016e-05,-9.25864e-06,1.45332e-05,-6.19135e-06,9
-2.9008e-05,9.40741e-06,-1.12614e-05,-8.47664e-06,1.58402e-05,-1.14752e-05,1.39441e-05,-5.76923e-06,9
-2.84937e-05,9.39235e-06,-1.13117e-05,-8.82564e-06,1.59203e-05,-1.27486e-05,1.34656e-05,-4.44387e-06,9
-2.9441e-05,9.72381e-06,-1.1567e-05,-9.38887e-06,1.60362e-05,-1.21217e-05,1.46954e-05,-3.8131e-06,9
-3.06414e-05,1.10007e-05,-1.15308e-05,-9.72716e-06,1.65371e-05,-1.06213e-05,1.72502e-05,-3.98058e-06,9
-3.23019e-05,1.21983e-05,-1.13277e-05,-8.58623e-06,1.79618e-05,-1.00136e-05,1.86582e-05,-2.15647e-06,9
-3.25456e-05,1.1912e-05,-1.15536e-05,-7.0364e-06,1.87622e-05,-9.06322e-06,1.90901e-05,1.41197e-06,9
-3.05525e-05,1.03541e-05,-1.19428e-05,-5.91947e-06,1.73977e-05,-7.55574e-06,1.88749e-05,3.29663e-06,9
-2.81705e-05,9.18041e-06,-1.20924e-05,-4.29043e-06,1.59601e-05,-6.89482e-06,1.75119e-05,4.1964e-06,9
-2.71689e-05,8.67897e-06,-1.26747e-05,-4.11536e-06,1.59311e-05,-6.42928e-06,1.54764e-05,6.57769e-06,9
-2.84426e-05,9.30615e-06,-1.37797e-05,-2.7618e-06,1.71901e-05,-6.74234e-06,1.40159e-05,8.76886e-06,9
-2.8907e-05,1.04039e-05,-1.37896e-05,-4.38378e-07,1.74033e-05,-7.12904e-06,1.41276e-05,8.86655e-06,9
-2.76596e-05,1.10409e-05,-1.15575e-05,1.19449e-06,1.47623e-05,-6.97832e-06,1.55039e-05,7.10661e-06,9
-2.66471e-05,1.13222e-05,-9.05113e-06,2.5231e-06,1.33405e-05,-6.98547e-06,1.69831e-05,5.93639e-06,9
-2.57888e-05,1.24902e-05,-8.4445e-06,3.12776e-06,1.35447e-05,-6.3527e-06,1.69009e-05,5.4512e-06,9
-2.61268e-05,1.41727e-05,-9.76231e-06,3.3521e-06,1.45849e-05,-5.85815e-06,1.42637e-05,4.10192e-06,9
-2.75902e-05,1.46361e-05,-9.89402e-06,8.41678e-07,1.59964e-05,-6.21129e-06,1.13645e-05,7.67938e-07,9
-2.85756e-05,1.35698e-05,-9.2478e-06,-1.70958e-06,1.54414e-05,-7.63936e-06,9.61903e-06,-4.36983e-06,9
-2.88788e-05,1.16775e-05,-9.88189e-06,-2.07191e-06,1.50728e-05,-8.65367e-06,8.9079e-06,-9.013e-06,9
-3.02406e-05,1.10691e-05,-9.86653e-06,-9.84537e-07,1.53344e-05,-9.25519e-06,8.29688e-06,-1.21446e-05,9
-3.2072e-05,1.12727e-05,-8.6022e-06,-4.90038e-07,1.41979e-05,-9.25589e-06,7.73431e-06,-1.28974e-05,9
-3.3185e-05,1.10672e-05,-6.71759e-06,1.20748e-07,1.31597e-05,-7.71729e-06,8.91857e-06,-1.22079e-05,9
-3.37828e-05,1.13705e-05,-4.94607e-06,1.03829e-06,1.34868e-05,-6.4018e-06,1.01913e-05,-1.09391e-05,9
-3.34134e-05,1.24133e-05,-4.38338e-06,-2.88588e-07,1.38474e-05,-6.76765e-06,1.05834e-05,-9.70171e-06,9
-3.33739e-05,1.31416e-05,-5.24945e-06,-4.06974e-06,1.35809e-05,-7.2181e-06,1.10985e-05,-7.44003e-06,9
-3.3804e-05,1.34543e-05,-5.25585e-06,-8.87305e-06,1.30161e-05,-6.49608e-06,1.261e-05,-4.69151e-06,9
-3.38293e-05,1.41229e-05,-2.70722e-06,-1.29457e-05,1.28935e-05,-6.54821e-06,1.4226e-05,-3.45472e-06,9
-3.30451e-05,1.48562e-05,9.3395e-07,-1.57925e-05,1.38195e-05,-7.47395e-06,1.50182e-05,-2.96761e-06,9
-3.24557e-05,1.43965e-05,1.62935e-06,-1.66989e-05,1.48064e-05,-7.48213e-06,1.54122e-05,-1.13364e-06,9
-3.22358e-05,1.35058e-05,-1.62137e-06,-1.69073e-05,1.4338e-05,-7.64125e-06,1.52091e-05,2.12695e-06,9
-3.28711e-05,1.45134e-05,-4.99936e-06,-1.78876e-05,1.31866e-05,-9.71525e-06,1.31852e-05,5.22324e-06,9
-3.38198e-05,1.73612e-05,-5.87827e-06,-1.92981e-05,1.26911e-05,-1.08528e-05,1.01408e-05,7.10686e-06,9
-3.44655e-05,1.89178e-05,-6.21527e-06,-1.82053e-05,1.31779e-05,-8.77558e-06,7.69757e-06,7.62851e-06,9
-3.49952e-05,1.85505e-05,-7.0838e-06,-1.29691e-05,1.41299e-05,-5.69789e-06,6.88796e-06,9.25424e-06,9
-3.46574e-05,1.78196e-05,-7.2556e-06,-6.98302e-06,1.48961e-05,-4.94661e-06,7.94804e-06,1.09424e-05,9
-3.29903e-05,1.84582e-05,-6.52664e-06,-4.30984e-06,1.50782e-05,-6.81594e-06,8.99214e-06,1.06825e-05,9
-3.10337e-05,1.96626e-05,-5.81519e-06,-4.11016e-06,1.4384e-05,-9.17107e-06,1.00111e-05,9.89248e-06,9
-2.87156e-05,1.94864e-05,-6.73726e-06,-5.89845e-06,1.33538e-05,-1.09497e-05,1.05347e-05,8.26877e-06,9
-2.80846e-05,1.77426e-05,-8.18765e-06,-7.52039e-06,1.34467e-05,-1.22359e-05,9.94322e-06,3.64053e-06,9
-2.88424e-05,1.54907e-05,-7.86464e-06,-6.89469e-06,1.3956e-05,-1.3405e-05,8.71958e-06,-8.91174e-07,9
-2.93015e-05,1.2809e-05,-6.64259e-06,-5.05426e-06,1.24314e-05,-1.2693e-05,8.87493e-06,-2.05144e-06,9
-3.03813e-05,1.01835e-05,-6.919e-06,-2.71904e-06,1.00946e-05,-9.95213e-06,1.06802e-05,-8.86483e-07,9
-3.20778e-05,9.73414e-06,-7.42416e-06,-1.20497e-06,9.59845e-06,-8.64765e-06,1.24883e-05,1.5929e-06,9
-3.57961e-05,9.08612e-06,-7.13099e-06,6.9905e-07,1.08761e-05,-9.6756e-06,1.38254e-05,4.40244e-06,9
-3.802e-05,9.07657e-06,-6.63572e-06,3.06126e-06,1.25919e-05,-1.07272e-05,1.33077e-05,5.87242e-06,9
-3.89156e-05,9.18941e-06,-6.35824e-06,4.6737e-06,1.41883e-05,-1.02139e-05,1.12006e-05,6.7942e-06,9
-3.89532e-05,9.18092e-06,-6.29054e-06,5.96159e-06,1.48891e-05,-9.42036e-06,1.01236e-05,8.08904e-06,9
-3.82917e-05,1.06806e-05,-6.64204e-06,6.83428e-06,1.4148e-05,-9.93466e-06,1.02457e-05,8.22163e-06,9
-3.7565e-05,1.23038e-05,-7.22299e-06,6.14579e-06,1.28372e-05,-1.10006e-05,1.05827e-05,5.34652e-06,9
-3.68883e-05,1.25049e-05,-7.61573e-06,4.43346e-06,1.21029e-05,-1.16374e-05,1.05023e-05,-2.30986e-07,9
-3.63898e-05,1.13131e-05,-7.52729e-06,3.81266e-06,1.20588e-05,-1.21317e-05,1.07482e-05,-5.23908e-06,9
-3.54453e-05,1.0166e-05,-7.465e-06,3.79104e-06,1.22473e-05,-1.1823e-05,1.16492e-05,-7.67684e-06,9
-3.52003e-05,8.5914e-06,-8.61899e-06,2.18954e-06,1.18952e-05,-1.04649e-05,1.2579e-05,-9.27178e-06,9
-3.51879e-05,6.64831e-06,-9.60089e-06,-3.6502e-07,1.12205e-05,-9.13881e-06,1.3706e-05,-1.15148e-05,9
