ch1,ch2,ch3,ch4,ch5,ch6,ch7,ch8,class
-3.23599e-05,1.12925e-05,-1.06479e-05,-1.0342e-05,1.01588e-05,-1.07322e-05,1.19924e-05,2.80115e-06,9
-3.15463e-05,1.30309e-05,-1.3202e-05,-1.11709e-05,9.76426e-06,-1.04836e-05,7.77453e-06,3.54484e-06,9
-3.03138e-05,1.3207e-05,-1.44496e-05,-1.1757e-05,1.06145e-05,-1.11329e-05,5.77406e-06,5.09447e-06,9
-2.98916e-05,1.23147e-05,-1.45079e-05,-1.10303e-05,1.09942e-05,-1.1497e-05,7.22958e-06,6.0344e-06,9
-2.97504e-05,1.22753e-05,-1.42817e-05,-9.96905e-06,1.06429e-05,-1.1822e-05,7.34738e-06,5.42925e-06,9
-2.87749e-05,1.23648e-05,-1.35493e-05,-7.30612e-06,1.00294e-05,-1.18273e-05,6.4289e-06,6.01528e-06,9
-2.6732e-05,1.15987e-05,-1.1864e-05,-2.01419e-06,1.01057e-05,-1.10145e-05,6.09323e-06,8.50802e-06,9
-2.64967e-05,1.12147e-05,-9.8803e-06,1.35104e-06,1.05563e-05,-9.36898e-06,6.54684e-06,1.12721e-05,9
-2.77964e-05,1.20954e-05,-6.51242e-06,1.49546e-06,1.13747e-05,-8.40861e-06,7.069e-06,1.31528e-05,9
-2.89286e-05,1.40759e-05,-2.2198e-06,-7.1816e-07,1.26607e-05,-8.69169e-06,7.84436e-06,1.23556e-05,9
-2.83666e-05,1.621e-05,-3.3938e-07,-3.70304e-06,1.3488e-05,-9.36328e-06,7.82233e-06,9.76257e-06,9
-2.70785e-05,1.74099e-05,-3.02626e-06,-6.96766e-06,1.35593e-05,-9.47331e-06,6.60993e-06,8.35277e-06,9
-2.60147e-05,1.78775e-05,-6.62786e-06,-9.07541e-06,1.28127e-05,-8.02862e-06,5.36783e-06,9.43133e-06,9
-2.5697e-05,1.89316e-05,-7.24182e-06,-9.27446e-06,1.268e-05,-6.38878e-06,4.99308e-06,1.13222e-05,9
-2.62665e-05,2.08536e-05,-4.73659e-06,-6.90557e-06,1.38142e-05,-6.27721e-06,6.17456e-06,1.33035e-05,9
-2.64276e-05,2.15396e-05,-2.6804e-06,-3.48377e-06,1.51442e-05,-8.35685e-06,8.67819e-06,1.4986e-05,9
-2.55812e-05,2.07265e-05,-2.83609e-06,-2.07628e-08,1.56921e-05,-1.05366e-05,1.00721e-05,1.61828e-05,9
-2.46066e-05,1.90502e-05,-5.18462e-06,3.36783e-06,1.58492e-05,-1.17027e-05,8.37455e-06,1.72032e-05,9
-2.52479e-05,1.78859e-05,-8.30886e-06,6.33989e-06,1.50733e-05,-1.22055e-05,6.72918e-06,1.88936e-05,9
-2.57547e-05,1.74355e-05,-1.00805e-05,6.95306e-06,1.28714e-05,-1.09112e-05,9.25822e-06,2.09265e-05,9
-2.54199e-05,1.65145e-05,-1.00722e-05,5.21054e-06,1.10014e-05,-9.30572e-06,1.4054e-05,2.19395e-05,9
-2.54043e-05,1.54309e-05,-1.0288e-05,4.8178e-06,1.23174e-05,-1.06511e-05,1.6089e-05,1.87667e-05,9
-2.53493e-05,1.41242e-05,-1.13324e-05,7.92096e-06,1.46077e-05,-1.2759e-05,1.51842e-05,8.90327e-06,9
-2.58501e-05,1.30523e-05,-1.10808e-05,6.82257e-06,1.50845e-05,-1.21757e-05,1.4444e-05,-3.97381e-06,9
-2.76442e-05,1.24704e-05,-1.01793e-05,-6.48009e-06,1.51131e-05,-1.12069e-05,1.50129e-05,-1.32218e-05,9
-2.90795e-05,1.19372e-05,-8.49787e-06,-2.80574e-05,1.49532e-05,-1.08281e-05,1.66686e-05,-1.61334e-05,9
-2.98519e-05,1.35375e-05,-5.81964e-06,-4.93682e-05,1.50624e-05,-8.7625e-06,1.7725e-05,-1.45978e-05,9
-2.85849e-05,1.43813e-05,-4.65277e-06,-5.45138e-05,1.47476e-05,-7.04102e-06,1.67598e-05,-1.1762e-05,9
-2.70621e-05,1.28584e-05,-4.0082e-06,-4.0418e-05,1.38729e-05,-8.49459e-06,1.60262e-05,-8.58069e-06,9
-2.71989e-05,1.19155e-05,-4.85229e-06,-2.21762e-05,1.36141e-05,-9.45043e-06,1.5693e-05,-5.40447e-06,9
-2.65872e-05,1.14507e-05,-6.81122e-06,-1.07463e-05,1.37172e-05,-8.25603e-06,1.53416e-05,-3.1349e-06,9
-2.60623e-05,1.14532e-05,-6.97832e-06,-6.76215e-06,1.34408e-05,-6.25546e-06,1.47178e-05,-6.98535e-07,9
-2.57227e-05,1.10475e-05,-7.86375e-06,-4.88116e-06,1.28903e-05,-6.0322e-06,1.44634e-05,3.17097e-07,9
-2.47473e-05,1.20362e-05,-8.85483e-06,-4.52745e-06,1.26557e-05,-8.25134e-06,1.58953e-05,-1.44586e-06,9
-2.42132e-05,1.35248e-05,-1.07251e-05,-4.45712e-06,1.29653e-05,-9.75126e-06,1.70631e-05,-7.06859e-06,9
-2.43674e-05,1.39235e-05,-1.26511e-05,-4.04851e-06,1.34791e-05,-1.01892e-05,1.65477e-05,-1.64472e-05,9
-2.42481e-05,1.24686e-05,-1.31686e-05,-3.2025e-06,1.3411e-05,-9.78051e-06,1.5472e-05,-2.61506e-05,9
-2.41525e-05,1.0202e-05,-1.22825e-05,-1.63593e-06,1.2934e-05,-9.89698e-06,1.5121e-05,-3.08858e-05,9
-2.51094e-05,8.81721e-06,-1.03279e-05,-7.34937e-07,1.25856e-05,-1.13126e-05,1.60807e-05,-2.62809e-05,9
-2.67179e-05,8.74905e-06,-7.87863e-06,-3.12533e-07,1.20199e-05,-1.29993e-05,1.77243e-05,-1.60146e-05,9
-2.7746e-05,1.08417e-05,-6.2248e-06,4.28077e-08,1.06104e-05,-1.27483e-05,1.80803e-05,-7.29042e-06,9
-2.75695e-05,1.29583e-05,-6.62647e-06,4.14995e-07,9.16008e-06,-1.06653e-05,1.76952e-05,-3.71557e-06,9
-2.67108e-05,1.33744e-05,-7.56811e-06,9.35089e-08,8.48061e-06,-9.00482e-06,1.68941e-05,-5.0155e-06,9
-2.6101e-05,1.26986e-05,-7.55507e-06,3.80503e-07,9.28088e-06,-8.43743e-06,1.51035e-05,-8.79405e-06,9
-2.63728e-05,1.23325e-05,-6.20041e-06,1.35261e-06,1.11389e-05,-9.19615e-06,1.37593e-05,-1.29564e-05,9
-2.69944e-05,1.13995e-05,-5.41386e-06,2.50939e-06,1.15127e-05,-1.14626e-05,1.51895e-05,-1.56404e-05,9
-2.7047e-05,1.04701e-05,-5.69366e-06,3.44244e-06,1.04999e-05,-1.37445e-05,1.71549e-05,-1.45292e-05,9
-2.70056e-05,9.75774e-06,-6.13725e-06,3.55655e-06,9.94252e-06,-1.32365e-05,1.67629e-05,-9.86388e-06,9
-2.73412e-05,8.80005e-06,-5.6769e-06,2.26226e-06,1.0123e-05,-1.08812e-05,1.51649e-05,-2.99895e-06,9
-2.89808e-05,7.82285e-06,-6.15639e-06,3.58988e-07,1.05293e-05,-9.48484e-06,1.30302e-05,4.22996e-06,9
-3.07254e-05,7.88898e-06,-6.61835e-06,-9.92395e-07,1.04001e-05,-1.00119e-05,1.19943e-05,1.05966e-05,9
-3.1024e-05,8.88191e-06,-5.58917e-06,1.97803e-07,8.42066e-06,-1.18727e-05,1.32137e-05,1.67939e-05,9
-3.10705e-05,9.80011e-06,-5.79387e-06,2.38994e-06,6.28074e-06,-1.28517e-05,1.50888e-05,2.21516e-05,9
-3.11784e-05,8.89416e-06,-7.60364e-06,4.25614e-06,5.87618e-06,-1.11803e-05,1.56942e-05,2.45689e-05,9
-3.1512e-05,8.42462e-06,-8.61299e-06,4.62631e-06,6.92982e-06,-9.63683e-06,1.34413e-05,2.27525e-05,9
-3.19628e-05,1.06052e-05,-7.6376e-06,4.03284e-06,7.39516e-06,-8.54923e-06,9.94661e-06,1.93953e-05,9
-3.25813e-05,1.1611e-05,-5.54263e-06,4.94374e-06,7.08226e-06,-6.9688e-06,8.368e-06,1.62746e-05,9
-3.41783e-05,1.23439e-05,-3.27679e-06,5.60446e-06,7.78217e-06,-6.90623e-06,8.00278e-06,1.16947e-05,9
-3.55683e-05,1.28913e-05,-1.75757e-06,5.29459e-06,9.11202e-06,-7.89562e-06,7.51544e-06,5.85314e-06,9
-3.58284e-05,1.30975e-05,-1.64543e-06,1.74147e-06,1.04177e-05,-8.69908e-06,7.68881e-06,9.85405e-07,9
-3.57465e-05,1.25106e-05,-2.67196e-06,-1.59059e-06,1.07328e-05,-9.10984e-06,7.94113e-06,-3.69777e-06,9
-3.49703e-05,1.12068e-05,-5.69324e-06,-2.59948e-06,1.17216e-05,-8.8585e-06,7.26921e-06,-8.23542e-06,9
-3.4275e-05,1.02363e-05,-7.85659e-06,-2.36698e-06,1.32116e-05,-7.6075e-06,7.23057e-06,-1.00515e-05,9
-3.46002e-05,8.7874e-06,-7.8464e-06,-1.32828e-06,1.446e-05,-6.50669e-06,8.10577e-06,-9.60825e-06,9
-3.55766e-05,8.74504e-06,-6.02504e-06,-1.13696e-06,1.54532e-05,-6.21807e-06,7.42475e-06,-7.77192e-06,9
-3.55678e-05,1.02842e-05,-3.70671e-06,-7.589e-07,1.63795e-05,-6.20412e-06,5.27092e-06,-2.53618e-06,9
-3.42603e-05,1.22948e-05,-3.27224e-06,-1.51124e-07,1.69816e-05,-6.07375e-06,4.21597e-06,6.01293e-06,9
-3.34354e-05,1.36378e-05,-3.75017e-06,-1.45587e-07,1.6263e-05,-5.67756e-06,4.37841e-06,1.40745e-05,9
-3.39784e-05,1.43116e-05,-3.84745e-06,-1.26861e-06,1.48629e-05,-5.0791e-06,5.12365e-06,1.82692e-05,9
-3.55472e-05,1.42256e-05,-3.99223e-06,-2.91122e-06,1.42477e-05,-4.44254e-06,5.61127e-06,1.75804e-05,9
-3.71002e-05,1.34262e-05,-5.45475e-06,-3.84078e-06,1.55655e-05,-4.19408e-06,4.66123e-06,1.32563e-05,9
-3.85455e-05,1.2106e-05,-5.80548e-06,-3.02349e-06,1.73723e-05,-4.69958e-06,3.26232e-06,7.78772e-06,9
-3.89572e-05,1.03839e-05,-5.71054e-06,-2.65274e-06,1.87819e-05,-6.42943e-06,3.28902e-06,2.68915e-06,9
-3.80628e-05,9.43004e-06,-6.31998e-06,-4.63743e-06,1.99415e-05,-8.7513e-06,4.49218e-06,-2.61172e-06,9
-3.60958e-05,9.67408e-06,-6.99136e-06,-7.16945e-06,2.08951e-05,-1.13131e-05,7.49743e-06,-8.30683e-06,9
-3.36052e-05,1.10701e-05,-6.89876e-06,-8.36662e-06,2.05534e-05,-1.33154e-05,1.2e-05,-1.24144e-05,9
-3.16924e-05,1.18428e-05,-6.7399e-06,-7.44766e-06,1.97129e-05,-1.22679e-05,1.43904e-05,-1.24097e-05,9
-3.06338e-05,1.01979e-05,-7.12337e-06,-5.34569e-06,1.95955e-05,-9.40257e-06,1.35097e-05,-9.92225e-06,9
-3.07062e-05,8.3835e-06,-8.09457e-06,-3.25085e-06,1.97537e-05,-8.34819e-06,1.20371e-05,-7.57257e-06,9
-3.1766e-05,7.95302e-06,-8.62933e-06,-1.35324e-06,1.881e-05,-8.87271e-06,1.28612e-05,-7.37989e-06,9
-3.29508e-05,8.38416e-06,-7.13744e-06,-1.16578e-06,1.72534e-05,-8.50768e-06,1.65591e-05,-7.42055e-06,9
-3.38158e-05,9.35797e-06,-4.96707e-06,-1.74788e-06,1.51745e-05,-7.90296e-06,1.82284e-05,-6.2661e-06,9
-3.50882e-05,1.01655e-05,-3.42236e-06,-1.36014e-06,1.33905e-05,-7.89684e-06,1.64569e-05,-3.41515e-06,9
-3.58092e-05,1.08861e-05,-3.84383e-06,-1.83561e-06,1.31443e-05,-9.09679e-06,1.49152e-05,3.56273e-07,9
-3.36954e-05,1.16962e-05,-5.41138e-06,-2.32013e-06,1.31854e-05,-1.11572e-05,1.33332e-05,1.10335e-06,9
-3.13352e-05,1.25511e-05,-6.50986e-06,-1.87695e-06,1.35175e-05,-1.25217e-05,1.29692e-05,1.17242e-06,9
-3.06793e-05,1.23251e-05,-6.95806e-06,-1.21919e-06,1.42362e-05,-1.29991e-05,1.18702e-05,1.50665e-06,9
-3.00097e-05,1.1245e-05,-6.82987e-06,-6.77743e-07,1.50794e-05,-1.24642e-05,9.6834e-06,1.89766e-06,9
-2.96843e-05,9.70933e-06,-6.52867e-06,-3.98864e-07,1.48771e-05,-1.14807e-05,1.00303e-05,3.09043e-06,9
-3.00007e-05,9.04503e-06,-6.34478e-06,-8.78183e-07,1.45768e-05,-9.75781e-06,1.29274e-05,6.38714e-06,9
-2.94447e-05,9.58854e-06,-7.7035e-06,-2.16027e-06,1.49695e-05,-8.77517e-06,1.51861e-05,9.81059e-06,9
-2.75248e-05,1.12274e-05,-9.57369e-06,-4.15181e-06,1.52717e-05,-8.83707e-06,1.51846e-05,1.28096e-05,9
-2.63566e-05,1.22031e-05,-1.07694e-05,-7.92592e-06,1.47469e-05,-9.47937e-06,1.46195e-05,1.78392e-05,9
-2.69143e-05,1.07778e-05,-1.18368e-05,-1.2064e-05,1.40234e-05,-1.10408e-05,1.50041e-05,2.3061e-05,9
-2.82758e-05,8.67588e-06,-1.26101e-05,-1.36536e-05,1.43982e-05,-1.22408e-05,1.56262e-05,2.63148e-05,9
-2.8996e-05,8.15108e-06,-1.26149e-05,-1.3167e-05,1.53152e-05,-1.21264e-05,1.58938e-05,2.5899e-05,9
-2.78533e-05,9.01763e-06,-1.25101e-05,-1.33589e-05,1.48908e-05,-1.11644e-05,1.62727e-05,2.26913e-05,9
-2.53052e-05,9.96589e-06,-1.31239e-05,-1.40067e-05,1.22606e-05,-1.11044e-05,1.5924e-05,1.88329e-05,9
-2.30063e-05,1.14465e-05,-1.28512e-05,-1.31387e-05,9.58385e-06,-1.17291e-05,1.5722e-05,1.56665e-05,9
-2.21059e-05,1.25062e-05,-1.14999e-05,-1.1375e-05,8.30855e-06,-1.23525e-05,1.51829e-05,1.0983e-05,9
-2.34491e-05,1.22339e-05,-1.00967e-05,-1.01971e-05,7.58312e-06,-1.2696e-05,1.35565e-05,2.62574e-06,9
-2.64666e-05,1.04724e-05,-9.42482e-06,-9.04401e-06,6.54752e-06,-1.24731e-05,1.21615e-05,-8.91684e-06,9
-2.82435e-05,9.34405e-06,-9.23027e-06,-7.64249e-06,6.61805e-06,-1.17896e-05,1.22976e-05,-2.26893e-05,9
-2.77574e-05,9.82439e-06,-9.17691e-06,-6.53117e-06,7.80544e-06,-1.15481e-05,1.28674e-05,-3.6963e-05,9
-2.73512e-05,1.1267e-05,-7.57844e-06,-5.91203e-06,7.70718e-06,-1.15789e-05,1.27476e-05,-4.52901e-05,9
-2.76767e-05,1.28015e-05,-5.13406e-06,-5.84508e-06,6.82948e-06,-1.12326e-05,1.2074e-05,-4.54997e-05,9
-2.771e-05,1.33206e-05,-3.91271e-06,-5.89762e-06,7.06974e-06,-1.06609e-05,1.1049e-05,-4.13111e-05,9
-2.79568e-05,1.43077e-05,-3.81728e-06,-4.49097e-06,9.79319e-06,-1.03682e-05,9.16104e-06,-3.55544e-05,9
-2.94057e-05,1.53612e-05,-3.10646e-06,-1.06386e-06,1.2705e-05,-1.08315e-05,9.07505e-06,-3.00876e-05,9
-3.14108e-05,1.4936e-05,-1.1689e-06,2.34323e-06,1.26245e-05,-1.04498e-05,1.11591e-05,-2.17564e-05,9
-3.28005e-05,1.5076e-05,-1.20628e-06,4.72053e-06,1.09579e-05,-9.14714e-06,1.31756e-05,-1.14377e-05,9
-3.26663e-05,1.57056e-05,-4.12464e-06,7.19513e-06,9.76982e-06,-8.84005e-06,1.57199e-05,-2.23548e-06,9
-3.22775e-05,1.5002e-05,-6.81216e-06,8.94516e-06,9.77434e-06,-8.71864e-06,1.63702e-05,2.45312e-06,9
-3.3016e-05,1.26755e-05,-8.05427e-06,9.53639e-06,1.05828e-05,-8.07008e-06,1.42926e-05,1.97161e-06,9
-3.31295e-05,1.14411e-05,-7.93661e-06,9.0741e-06,1.18633e-05,-7.78814e-06,1.25931e-05,2.54205e-07,9
-3.29572e-05,1.20437e-05,-7.27001e-06,5.56708e-06,1.33471e-05,-6.94212e-06,1.43166e-05,-9.77426e-07,9
-3.2632e-05,1.25284e-05,-6.90539e-06,-4.69992e-07,1.34125e-05,-6.04474e-06,1.7726e-05,-1.68914e-06,9
-3.21078e-05,1.21463e-05,-6.31169e-06,-7.4405e-06,1.21773e-05,-6.93572e-06,1.95193e-05,-2.2397e-06,9
-3.18246e-05,1.20655e-05,-5.75972e-06,-1.38313e-05,1.21594e-05,-7.75486e-06,1.80803e-05,-6.05011e-07,9
-3.14026e-05,1.29645e-05,-4.5619e-06,-1.83857e-05,1.32952e-05,-7.2253e-06,1.49752e-05,2.69452e-06,9
-3.06438e-05,1.43674e-05,-3.87936e-06,-2.0522e-05,1.36425e-05,-7.6776e-06,1.27209e-05,4.89486e-06,9
-2.95141e-05,1.5953e-05,-4.18114e-06,-2.09394e-05,1.24847e-05,-8.76028e-06,1.16422e-05,4.36437e-06,9
-2.86193e-05,1.74932e-05,-4.55749e-06,-2.15097e-05,1.06142e-05,-8.67593e-06,1.12757e-05,2.44756e-06,9
-2.91246e-05,1.87433e-05,-3.67695e-06,-2.15652e-05,9.49419e-06,-8.06485e-06,1.07726e-05,8.25397e-07,9
-3.12262e-05,1.85392e-05,-1.34256e-06,-1.93235e-05,1.0032e-05,-7.73854e-06,9.33716e-06,-2.89942e-07,9
-3.26396e-05,1.7184e-05,7.9642e-07,-1.49926e-05,1.20879e-05,-8.02694e-06,8.18889e-06,3.59777e-07,9
-3.25325e-05,1.54266e-05,1.18371e-06,-1.05227e-05,1.48951e-05,-9.02035e-06,9.76139e-06,2.41635e-06,9
-3.22853e-05,1.45725e-05,7.20915e-07,-7.96249e-06,1.64233e-05,-9.40833e-06,1.20717e-05,3.48757e-06,9
-3.29343e-05,1.43879e-05,4.25664e-07,-6.66103e-06,1.57238e-05,-8.25894e-06,1.21217e-05,3.76147e-06,9
-3.46726e-05,1.48391e-05,-5.30863e-07,-4.97518e-06,1.50029e-05,-7.62948e-06,9.78529e-06,4.70818e-06,9
-3.57462e-05,1.48315e-05,-1.76644e-06,-3.98932e-06,1.54645e-05,-8.30632e-06,8.22854e-06,5.77099e-06,9
-3.517e-05,1.45605e-05,-2.72256e-06,-4.40423e-06,1.70411e-05,-8.25777e-06,8.41922e-06,6.30985e-06,9
-3.41099e-05,1.46972e-05,-4.13272e-06,-4.67204e-06,1.73122e-05,-7.8524e-06,7.3148e-06,6.3429e-06,9
-3.24099e-05,1.54215e-05,-5.58857e-06,-5.01999e-06,1.66718e-05,-9.40374e-06,5.34951e-06,5.21504e-06,9
-2.94779e-05,1.71269e-05,-4.96059e-06,-5.75413e-06,1.75533e-05,-1.17765e-05,6.17927e-06,4.32253e-06,9
-2.79004e-05,1.72887e-05,-4.25827e-06,-4.75619e-06,1.87407e-05,-1.0719e-05,8.94342e-06,6.00406e-06,9
-2.75287e-05,1.56005e-05,-4.17841e-06,-3.37447e-06,1.93461e-05,-7.63573e-06,1.01302e-05,7.46735e-06,9
-2.56599e-05,1.4538e-05,-4.68863e-06,-3.99516e-06,1.92518e-05,-5.3993e-06,1.14633e-05,7.4371e-06,9
-2.37657e-05,1.43283e-05,-5.99287e-06,-5.10554e-06,1.91013e-05,-4.00231e-06,1.32645e-05,8.50824e-06,9
-2.26807e-05,1.35741e-05,-8.13008e-06,-4.72371e-06,1.80273e-05,-4.77997e-06,1.3282e-05,1.01678e-05,9
-2.35667e-05,1.19174e-05,-1.00138e-05,-4.06585e-06,1.71113e-05,-6.47116e-06,1.21827e-05,9.70894e-06,9
-2.52903e-05,1.02368e-05,-1.0994e-05,-3.85201e-06,1.63732e-05,-7.40903e-06,1.16953e-05,1.01854e-05,9
-2.71248e-05,9.91149e-06,-1.21692e-05,-5.01253e-06,1.58539e-05,-7.35256e-06,1.20808e-05,1.16125e-05,9
-2.79321e-05,1.00086e-05,-1.27621e-05,-6.71321e-06,1.65698e-05,-7.93176e-06,1.2245e-05,1.21643e-05,9
-2.81379e-05,9.70356e-06,-1.24295e-05,-6.31537e-06,1.66677e-05,-9.14203e-06,1.13976e-05,1.06348e-05,9
-2.93472e-05,9.41658e-06,-1.10646e-05,-4.23922e-06,1.5327e-05,-9.45788e-06,9.88264e-06,5.89207e-06,9
-3.02156e-05,9.221e-06,-9.18786e-06,-1.90667e-06,1.35272e-05,-8.96647e-06,8.79014e-06,-1.26777e-06,9
-3.08157e-05,9.80418e-06,-7.45407e-06,-8.68822e-07,1.30258e-05,-8.58583e-06,7.64971e-06,-9.23473e-06,9
-3.09302e-05,1.12144e-05,-7.02989e-06,-1.93131e-06,1.36591e-05,-9.16758e-06,6.63688e-06,-1.48851e-05,9
-3.08776e-05,1.20424e-05,-7.68462e-06,-4.37385e-06,1.48875e-05,-9.66739e-06,5.9725e-06,-1.62641e-05,9
-3.06759e-05,1.14047e-05,-9.30224e-06,-5.72846e-06,1.53192e-05,-9.5725e-06,5.55593e-06,-1.34135e-05,9
-3.09022e-05,1.03908e-05,-1.14357e-05,-5.84311e-06,1.4724e-05,-8.59094e-06,6.03473e-06,-8.62704e-06,9
-3.1116e-05,9.88559e-06,-1.30457e-05,-5.70309e-06,1.39233e-05,-7.56902e-06,7.80202e-06,-2.20693e-06,9
-3.09891e-05,9.88511e-06,-1.2911e-05,-5.50564e-06,1.44599e-05,-7.23883e-06,1.00368e-05,4.83804e-06,9
-3.04768e-05,1.05367e-05,-9.74354e-06,-4.51636e-06,1.6283e-05,-8.0284e-06,1.14562e-05,1.00099e-05,9
-2.99999e-05,1.10784e-05,-4.37728e-06,-2.44432e-06,1.80414e-05,-9.75653e-06,1.23168e-05,1.17054e-05,9
-2.89242e-05,1.05866e-05,-1.46199e-07,9.21019e-08,1.92141e-05,-1.10997e-05,1.41793e-05,1.21077e-05,9
-2.85013e-05,9.57063e-06,2.54587e-07,1.07475e-06,1.96783e-05,-1.07879e-05,1.62333e-05,1.3097e-05,9
-2.97891e-05,7.46764e-06,-2.52925e-06,-1.56469e-07,1.92904e-05,-8.95123e-06,1.64375e-05,1.56334e-05,9
-3.07401e-05,5.81829e-06,-6.08725e-06,-1.35714e-06,1.78349e-05,-7.57989e-06,1.59012e-05,1.84111e-05,9
-3.10011e-05,6.5088e-06,-8.69167e-06,-7.41607e-07,1.65652e-05,-7.08345e-06,1.46416e-05,1.91004e-05,9
-3.16336e-05,7.54093e-06,-9.20037e-06,3.70525e-07,1.51257e-05,-6.34e-06,1.31748e-05,1.58623e-05,9
-3.19335e-05,8.25205e-06,-8.29569e-06,-1.13672e-06,1.3472e-05,-6.10582e-06,1.26302e-05,1.11087e-05,9
-3.12137e-05,7.43546e-06,-8.19723e-06,-4.40302e-06,1.20114e-05,-7.43191e-06,1.33331e-05,7.66349e-06,9
-3.09886e-05,7.22749e-06,-8.24723e-06,-8.56487e-06,1.06778e-05,-8.08744e-06,1.43395e-05,3.52895e-06,9
-3.10972e-05,8.78213e-06,-7.85681e-06,-1.18561e-05,1.0219e-05,-8.46136e-06,1.47718e-05,-7.02873e-07,9
-3.12452e-05,1.02065e-05,-7.12955e-06,-1.20136e-05,1.08355e-05,-8.7308e-06,1.56638e-05,-3.30305e-06,9
-3.20714e-05,1.10571e-05,-6.30413e-06,-9.64009e-06,1.05885e-05,-8.03328e-06,1.59913e-05,-5.81747e-06,9
-3.24407e-05,1.11426e-05,-6.321e-06,-6.77472e-06,9.73823e-06,-8.31963e-06,1.63118e-05,-8.19056e-06,9
-3.2545e-05,1.0787e-05,-8.32729e-06,-6.12519e-06,9.9845e-06,-9.64486e-06,1.74605e-05,-8.10963e-06,9
-3.26034e-05,1.05456e-05,-1.11372e-05,-6.89054e-06,1.07041e-05,-1.05631e-05,1.80588e-05,-4.33351e-06,9
-3.23357e-05,1.06022e-05,-1.17491e-05,-7.03139e-06,1.13579e-05,-1.07944e-05,1.67516e-05,1.46097e-06,9
-3.26051e-05,1.02247e-05,-9.91637e-06,-6.72325e-06,1.19035e-05,-1.15178e-05,1.36742e-05,5.44908e-06,9
-3.26966e-05,9.46271e-06,-8.01982e-06,-6.91813e-06,1.21089e-05,-1.12257e-05,1.14676e-05,7.27914e-06,9
-3.22607e-05,8.73924e-06,-7.32083e-06,-7.17885e-06,1.16309e-05,-9.20066e-06,1.13304e-05,5.90346e-06,9
-3.0959e-05,8.84049e-06,-7.60865e-06,-6.48985e-06,1.17794e-05,-6.80563e-06,1.28943e-05,2.41054e-06,9
-3.04463e-05,9.99049e-06,-8.44587e-06,-5.65224e-06,1.34026e-05,-5.12119e-06,1.48693e-05,-2.73251e-06,9
-3.13773e-05,1.21932e-05,-8.66667e-06,-5.0458e-06,1.49909e-05,-5.13108e-06,1.53242e-05,-8.00301e-06,9
-3.20665e-05,1.40563e-05,-7.251e-06,-4.15832e-06,1.49038e-05,-7.20686e-06,1.41052e-05,-1.04198e-05,9
-3.17206e-05,1.41685e-05,-3.95064e-06,-2.45585e-06,1.37113e-05,-9.4654e-06,1.31578e-05,-8.33701e-06,9
-3.17316e-05,1.27098e-05,-7.51721e-07,-1.09877e-06,1.31192e-05,-1.00315e-05,1.40017e-05,1.23181e-07,9
-3.256e-05,1.18198e-05,-4.6893e-09,-1.29671e-06,1.37929e-05,-9.59411e-06,1.64419e-05,1.79394e-05,9
-3.35801e-05,1.28641e-05,-8.32123e-07,-2.27829e-06,1.48763e-05,-9.36678e-06,1.75332e-05,4.15215e-05,9
-3.4702e-05,1.47992e-05,-1.06657e-06,-3.6658e-06,1.48372e-05,-1.03163e-05,1.68347e-05,5.51673e-05,9
-3.50503e-05,1.58825e-05,-6.2751e-07,-4.28693e-06,1.40363e-05,-1.11415e-05,1.76109e-05,4.36179e-05,9
-3.45948e-05,1.56879e-05,-2.03245e-06,-2.31688e-06,1.41595e-05,-1.10675e-05,1.76817e-05,9.57919e-06,9
-3.42075e-05,1.56537e-05,-5.37661e-06,9.94949e-07,1.55914e-05,-1.14769e-05,1.50823e-05,-2.88184e-05,9
-3.36761e-05,1.513e-05,-7.46155e-06,2.95817e-06,1.578e-05,-1.27046e-05,1.24385e-05,-5.72733e-05,9
-3.34814e-05,1.28757e-05,-7.48877e-06,4.30512e-06,1.35612e-05,-1.19841e-05,1.29223e-05,-6.46826e-05,9
-3.37738e-05,1.209e-05,-7.04194e-06,5.76365e-06,1.14373e-05,-1.01089e-05,1.43191e-05,-4.84989e-05,9
-3.24372e-05,1.34094e-05,-6.93762e-06,3.89538e-06,1.10381e-05,-1.0061e-05,1.36884e-05,-2.29841e-05,9
-3.09071e-05,1.42553e-05,-6.36766e-06,1.11567e-06,1.19726e-05,-1.15671e-05,1.21061e-05,-5.50704e-06,9
-3.0708e-05,1.39047e-05,-5.92079e-06,6.39037e-07,1.30476e-05,-1.29512e-05,1.06906e-05,-3.44817e-06,9
-3.15049e-05,1.32501e-05,-4.99917e-06,-2.20366e-07,1.40642e-05,-1.26389e-05,1.10635e-05,-1.31385e-05,9
-3.15588e-05,1.4069e-05,-4.61324e-06,-2.46444e-06,1.54729e-05,-1.12834e-05,1.21304e-05,-2.4122e-05,9
-3.05943e-05,1.52857e-05,-6.21154e-06,-4.11225e-06,1.61984e-05,-1.00876e-05,1.32588e-05,-3.22125e-05,9
-3.0225e-05,1.64975e-05,-7.6761e-06,-3.71679e-06,1.56839e-05,-9.02074e-06,1.38119e-05,-3.51336e-05,9
-2.91859e-05,1.6433e-05,-8.45183e-06,-3.3743e-06,1.49685e-05,-8.45659e-06,1.35546e-05,-3.10168e-05,9
-2.80718e-05,1.52804e-05,-8.36854e-06,-3.42032e-06,1.46893e-05,-8.12683e-06,1.38573e-05,-2.31547e-05,9
-2.81912e-05,1.42269e-05,-7.58019e-06,-4.44392e-06,1.44352e-05,-8.29609e-06,1.52676e-05,-1.56121e-05,9
-2.88526e-05,1.30286e-05,-6.48661e-06,-6.12769e-06,1.39615e-05,-9.03324e-06,1.62038e-05,-9.07375e-06,9
-2.9471e-05,1.27332e-05,-6.40349e-06,-7.05505e-06,1.34576e-05,-9.26307e-06,1.61195e-05,-9.3538e-07,9
-3.04809e-05,1.35199e-05,-7.19984e-06,-6.45436e-06,1.31271e-05,-8.27071e-06,1.61056e-05,8.81143e-06,9
-3.1278e-05,1.42662e-05,-7.76622e-06,-5.33317e-06,1.2936e-05,-7.58982e-06,1.56962e-05,1.6472e-05,9
-3.13238e-05,1.41569e-05,-7.78844e-06,-3.52891e-06,1.2857e-05,-9.07605e-06,1.45862e-05,1.95023e-05,9
-3.09353e-05,1.42505e-05,-7.15219e-06,5.3291e-07,1.29281e-05,-1.08058e-05,1.36883e-05,2.15422e-05,9
-2.93908e-05,1.49552e-05,-6.0205e-06,5.51885e-06,1.353e-05,-1.08172e-05,1.32474e-05,2.51936e-05,9
-2.68231e-05,1.54309e-05,-5.20707e-06,9.82285e-06,1.45102e-05,-1.00519e-05,1.34501e-05,3.05373e-05,9
-2.56769e-05,1.58843e-05,-5.55671e-06,1.33543e-05,1.51091e-05,-9.71747e-06,1.55299e-05,3.59117e-05,9
-2.724e-05,1.66195e-05,-7.07878e-06,1.68701e-05,1.5792e-05,-1.00488e-05,1.7226e-05,3.86701e-05,9
-2.89841e-05,1.64371e-05,-8.70681e-06,1.90414e-05,1.61853e-05,-1.12237e-05,1.73148e-05,3.68681e-05,9
-2.92549e-05,1.43945e-05,-8.17682e-06,1.84897e-05,1.5488e-05,-1.14599e-05,1.67962e-05,3.1218e-05,9
-2.818e-05,1.19357e-05,-6.57492e-06,1.12807e-05,1.40334e-05,-1.04115e-05,1.46425e-05,2.35973e-05,9
-2.79702e-05,1.21401e-05,-5.79612e-06,-5.13852e-06,1.33106e-05,-8.96901e-06,1.11443e-05,1.53106e-05,9
-2.89728e-05,1.35389e-05,-6.38053e-06,-2.70203e-05,1.44087e-05,-8.23715e-06,8.48589e-06,9.57044e-06,9
-2.75883e-05,1.30934e-05,-8.04446e-06,-4.8765e-05,1.47608e-05,-8.08109e-06,6.10626e-06,4.30986e-06,9
-2.54265e-05,1.29229e-05,-9.16114e-06,-5.51803e-05,1.36874e-05,-8.16548e-06,5.68191e-06,-2.76192e-06,9
-2.40763e-05,1.47355e-05,-9.75754e-06,-4.27073e-05,1.39361e-05,-8.77505e-06,7.55163e-06,-9.62607e-06,9
-2.27388e-05,1.587e-05,-9.48479e-06,-2.72583e-05,1.4924e-05,-9.18427e-06,9.34637e-06,-1.54171e-05,9
-2.29292e-05,1.45141e-05,-7.47442e-06,-1.61366e-05,1.47925e-05,-8.88705e-06,9.38248e-06,-1.72627e-05,9
-2.25643e-05,1.2983e-05,-5.85616e-06,-1.00727e-05,1.50831e-05,-8.3374e-06,7.9037e-06,-1.6735e-05,9
-2.24569e-05,1.28894e-05,-5.63729e-06,-6.30706e-06,1.6423e-05,-8.22816e-06,8.18437e-06,-1.78191e-05,9
-2.31611e-05,1.31245e-05,-5.72413e-06,-5.31506e-06,1.68878e-05,-9.1309e-06,9.45119e-06,-2.08984e-05,9
-2.32897e-05,1.36613e-05,-4.92581e-06,-4.36347e-06,1.52254e-05,-1.1373e-05,9.73023e-06,-2.26771e-05,9
-2.30048e-05,1.30468e-05,-3.5758e-06,-3.38683e-06,1.26916e-05,-1.3296e-05,1.06291e-05,-2.12716e-05,9
-2.2514e-05,1.13043e-05,-3.27704e-06,-2.0902e-06,1.22925e-05,-1.37734e-05,1.28846e-05,-1.85901e-05,9
-2.34281e-05,1.01187e-05,-4.26656e-06,1.04242e-06,1.32381e-05,-1.30093e-05,1.28639e-05,-1.39524e-05,9
-2.43234e-05,9.0732e-06,-5.65356e-06,2.8596e-06,1.43937e-05,-1.16618e-05,1.15795e-05,-6.95037e-06,9
-2.35734e-05,9.72493e-06,-6.65307e-06,3.13366e-06,1.48728e-05,-1.06e-05,1.26326e-05,-6.30318e-08,9
-2.22374e-05,1.27008e-05,-6.85268e-06,1.15283e-06,1.49577e-05,-1.03434e-05,1.39571e-05,3.00393e-06,9
-2.14647e-05,1.55468e-05,-6.01094e-06,-7.29892e-07,1.57637e-05,-1.02427e-05,1.2682e-05,1.61744e-06,9
-2.00644e-05,1.61601e-05,-5.08251e-06,-1.25518e-06,1.66136e-05,-1.02336e-05,1.12938e-05,-3.34689e-06,9
-1.86044e-05,1.53052e-05,-5.14781e-06,-3.37822e-07,1.64263e-05,-1.00425e-05,1.27892e-05,-8.20855e-06,9
-1.90943e-05,1.41495e-05,-5.72274e-06,-4.4977e-07,1.52549e-05,-9.78433e-06,1.53457e-05,-1.04679e-05,9
-2.08051e-05,1.30755e-05,-6.15939e-06,-1.45081e-06,1.4636e-05,-1.03243e-05,1.60079e-05,-1.08887e-05,9
-2.15647e-05,1.24008e-05,-6.25161e-06,-1.71365e-06,1.46788e-05,-1.10891e-05,1.44048e-05,-9.26205e-06,9
-2.14531e-05,1.27011e-05,-6.48168e-06,-9.12389e-07,1.51443e-05,-1.16373e-05,1.30865e-05,-5.83184e-06,9
-2.20592e-05,1.29008e-05,-8.05554e-06,-7.17009e-07,1.52949e-05,-1.13597e-05,1.341e-05,-2.07859e-06,9
-2.40042e-05,1.24606e-05,-9.95335e-06,4.80001e-07,1.44617e-05,-9.59285e-06,1.32649e-05,2.58005e-06,9
-2.56783e-05,1.252e-05,-1.02662e-05,2.16788e-06,1.2498e-05,-8.25238e-06,1.31603e-05,7.41245e-06,9
-2.6302e-05,1.24142e-05,-9.59819e-06,7.91072e-07,1.11373e-05,-8.26505e-06,1.37121e-05,1.16588e-05,9
-2.63949e-05,1.33164e-05,-9.53986e-06,-3.58399e-06,1.13274e-05,-9.08361e-06,1.24687e-05,1.58482e-05,9
-2.68635e-05,1.54571e-05,-9.72853e-06,-7.70262e-06,1.28497e-05,-8.53249e-06,1.07089e-05,1.93395e-05,9
-2.74157e-05,1.56066e-05,-9.21219e-06,-8.0366e-06,1.34189e-05,-7.58388e-06,9.94239e-06,2.21497e-05,9
-2.7304e-05,1.51868e-05,-8.97193e-06,-7.77493e-06,1.24966e-05,-6.70514e-06,9.89248e-06,2.06104e-05,9
-2.72794e-05,1.58434e-05,-9.25484e-06,-7.73084e-06,1.26601e-05,-5.08252e-06,1.00365e-05,1.67121e-05,9
-2.74928e-05,1.6886e-05,-9.78224e-06,-6.52439e-06,1.38486e-05,-5.92801e-06,9.96052e-06,1.49614e-05,9
-2.78898e-05,1.6857e-05,-1.02847e-05,-5.25502e-06,1.52693e-05,-6.83594e-06,9.55093e-06,1.54509e-05,9
-2.78177e-05,1.53235e-05,-1.02859e-05,-4.81046e-06,1.52176e-05,-6.62961e-06,8.19751e-06,1.63935e-05,9
-2.79929e-05,1.45491e-05,-1.0761e-05,-5.71402e-06,1.29353e-05,-7.45116e-06,6.23029e-06,1.60004e-05,9
-2.86995e-05,1.42201e-05,-1.12956e-05,-5.88901e-06,1.07522e-05,-8.93386e-06,5.78349e-06,1.37325e-05,9
-2.9715e-05,1.36586e-05,-1.12404e-05,-4.81087e-06,1.04448e-05,-8.10081e-06,7.83696e-06,9.65483e-06,9
-3.02153e-05,1.2432e-05,-9.50024e-06,-4.4826e-06,1.19503e-05,-7.67168e-06,1.06747e-05,5.06293e-06,9
-3.03815e-05,1.11133e-05,-6.4728e-06,-4.34408e-06,1.4618e-05,-9.44643e-06,1.17747e-05,4.11214e-08,9
-3.0693e-05,9.61605e-06,-3.71681e-06,-3.98831e-06,1.58625e-05,-1.11305e-05,1.14081e-05,-4.54688e-06,9
-3.08947e-05,9.67552e-06,-2.14931e-06,-3.6031e-06,1.54948e-05,-1.20408e-05,1.14059e-05,-7.81132e-06,9
-2.99526e-05,1.16506e-05,-2.29943e-06,-3.60896e-06,1.50535e-05,-1.13751e-05,1.16936e-05,-1.03908e-05,9
-2.85406e-05,1.32803e-05,-4.09317e-06,-3.67315e-06,1.49878e-05,-1.02534e-05,1.25329e-05,-1.20314e-05,9
-2.82617e-05,1.36251e-05,-6.61668e-06,-3.54145e-06,1.51697e-05,-9.84857e-06,1.40836e-05,-1.2015e-05,9
-2.8448e-05,1.34573e-05,-8.69165e-06,-2.64522e-06,1.44462e-05,-1.01088e-05,1.50452e-05,-9.39116e-06,9
-2.87933e-05,1.39909e-05,-9.98844e-06,-9.44123e-07,1.2591e-05,-9.70178e-06,1.46217e-05,-4.60185e-06,9
-2.90497e-05,1.45466e-05,-9.41683e-06,7.72078e-07,1.22192e-05,-9.44882e-06,1.488e-05,-8.94726e-07,9
-2.93239e-05,1.53481e-05,-7.41934e-06,1.91943e-06,1.3605e-05,-8.96379e-06,1.61664e-05,1.0298e-06,9
-2.96779e-05,1.54231e-05,-5.38188e-06,2.13973e-06,1.37062e-05,-8.39399e-06,1.53205e-05,4.01682e-06,9
-2.9758e-05,1.48904e-05,-4.07389e-06,-1.68598e-07,1.23185e-05,-8.42112e-06,1.24012e-05,9.35984e-06,9
-2.89479e-05,1.44757e-05,-2.85389e-06,-5.79601e-06,9.94593e-06,-9.56591e-06,1.14599e-05,1.41329e-05,9
-2.87521e-05,1.33281e-05,-2.10635e-06,-1.21007e-05,8.46035e-06,-1.09368e-05,1.17714e-05,1.64103e-05,9
-2.97979e-05,1.22912e-05,-2.62162e-06,-1.57106e-05,8.83352e-06,-1.16334e-05,1.25024e-05,1.73562e-05,9
-3.06861e-05,1.25215e-05,-3.62935e-06,-1.68729e-05,9.39246e-06,-1.13971e-05,1.47407e-05,1.87258e-05,9
-3.10153e-05,1.45547e-05,-4.1565e-06,-1.56531e-05,9.40713e-06,-9.21102e-06,1.57857e-05,1.99784e-05,9
-3.12119e-05,1.76157e-05,-3.83068e-06,-1.16795e-05,1.00497e-05,-7.06373e-06,1.57691e-05,1.78695e-05,9
-3.21081e-05,1.86356e-05,-3.351e-06,-8.21581e-06,1.18797e-05,-6.42662e-06,1.4142e-05,1.32481e-05,9
-3.30221e-05,1.78484e-05,-3.01655e-06,-6.7174e-06,1.36197e-05,-7.22893e-06,1.16159e-05,7.37379e-06,9
-3.32664e-05,1.66248e-05,-2.78401e-06,-6.65328e-06,1.44656e-05,-7.79768e-06,1.07377e-05,2.01359e-06,9
-3.43462e-05,1.55319e-05,-3.56965e-06,-7.18382e-06,1.60613e-05,-7.97498e-06,1.14354e-05,5.70486e-07,9
-3.54634e-05,1.54656e-05,-5.08691e-06,-7.10509e-06,1.76045e-05,-9.28185e-06,1.22666e-05,4.58551e-06,9
-3.55547e-05,1.52448e-05,-6.29773e-06,-5.8025e-06,1.68138e-05,-1.08899e-05,1.15683e-05,1.18722e-05,9
-3.57817e-05,1.4484e-05,-6.44372e-06,-4.18843e-06,1.5276e-05,-1.18479e-05,1.06601e-05,1.68799e-05,9
-3.63119e-05,1.40111e-05,-6.09283e-06,-2.75599e-06,1.483e-05,-1.16119e-05,1.12966e-05,1.90007e-05,9
-3.70983e-05,1.34782e-05,-6.04602e-06,-1.81698e-06,1.54157e-05,-1.13242e-05,1.42402e-05,1.94544e-05,9
-3.78833e-05,1.31012e-05,-6.45379e-06,-1.02594e-06,1.54256e-05,-1.08492e-05,1.61364e-05,2.02167e-05,9
-3.7841e-05,1.32272e-05,-6.95624e-06,-6.40117e-07,1.54341e-05,-1.01527e-05,1.542e-05,2.106e-05,9
-3.76283e-05,1.4299e-05,-7.83643e-06,-1.06421e-06,1.58924e-05,-9.86045e-06,1.39672e-05,1.95897e-05,9
-3.75722e-05,1.5133e-05,-8.79741e-06,-1.12978e-06,1.64664e-05,-9.31292e-06,1.39012e-05,1.46073e-05,9
-3.75581e-05,1.43432e-05,-8.76347e-06,-6.81976e-07,1.67271e-05,-8.84175e-06,1.51598e-05,7.17359e-06,9
-3.77563e-05,1.27597e-05,-8.5854e-06,-4.45486e-07,1.59484e-05,-8.84137e-06,1.47638e-05,-4.61693e-07,9
-3.90483e-05,1.14625e-05,-8.53683e-06,-1.36401e-06,1.41504e-05,-8.69152e-06,1.26732e-05,-5.59596e-06,9
-4.0619e-05,1.14954e-05,-8.30823e-06,-3.66392e-06,1.24629e-05,-7.97537e-06,1.15629e-05,-6.27274e-06,9
-4.09997e-05,1.28724e-05,-7.16409e-06,-5.89092e-06,1.1246e-05,-7.94203e-06,1.24986e-05,-4.59832e-06,9
-4.05006e-05,1.40097e-05,-5.36129e-06,-6.2092e-06,9.52943e-06,-8.61325e-06,1.28532e-05,-4.21824e-06,9
-3.89748e-05,1.3274e-05,-3.46521e-06,-5.76931e-06,7.71655e-06,-9.54091e-06,1.15422e-05,-8.56565e-06,9
-3.76523e-05,1.24288e-05,-2.58074e-06,-7.23847e-06,6.82924e-06,-1.10236e-05,8.93439e-06,-1.76864e-05,9
-3.6562e-05,1.17766e-05,-2.82202e-06,-9.10207e-06,6.69585e-06,-1.29072e-05,5.61585e-06,-2.65766e-05,9
-3.56632e-05,1.06506e-05,-3.10026e-06,-9.49081e-06,6.21517e-06,-1.34967e-05,1.82201e-06,-2.92933e-05,9
-3.57348e-05,8.24197e-06,-3.6303e-06,-9.23377e-06,5.90506e-06,-1.27008e-05,-6.83592e-07,-2.5715e-05,9
-3.66595e-05,6.41823e-06,-4.48539e-06,-8.04307e-06,6.00059e-06,-1.19071e-05,2.24437e-07,-2.07332e-05,9
-3.80699e-05,8.82571e-06,-6.21296e-06,-7.48673e-06,5.66446e-06,-1.17825e-05,3.32531e-06,-1.90301e-05,9
-3.85605e-05,1.03564e-05,-7.59859e-06,-5.76692e-06,4.52e-06,-1.23875e-05,5.69948e-06,-1.94526e-05,9
-3.63121e-05,9.3448e-06,-6.72951e-06,-4.07772e-06,2.88592e-06,-1.35976e-05,6.69742e-06,-1.92454e-05,9
-3.30647e-05,9.45903e-06,-6.70629e-06,-5.209e-06,2.11811e-06,-1.36987e-05,9.01959e-06,-1.45547e-05,9
-3.15291e-05,1.03143e-05,-6.64395e-06,-7.24374e-06,4.0098e-06,-1.28253e-05,1.31409e-05,-5.68132e-06,9
-3.23075e-05,1.06376e-05,-5.78849e-06,-9.64246e-06,6.45054e-06,-1.27759e-05,1.58457e-05,1.4737e-06,9
-3.26166e-05,9.88619e-06,-5.66018e-06,-1.08048e-05,6.9907e-06,-1.33993e-05,1.59466e-05,2.5066e-06,9
-3.18837e-05,9.9369e-06,-5.88242e-06,-1.15301e-05,6.22935e-06,-1.3817e-05,1.56497e-05,-2.42331e-06,9
-3.30176e-05,1.06932e-05,-7.74365e-06,-1.04952e-05,4.88066e-06,-1.37373e-05,1.63916e-05,-9.35402e-06,9
-3.46159e-05,1.08894e-05,-1.01494e-05,-8.46628e-06,3.59693e-06,-1.28593e-05,1.65527e-05,-1.3414e-05,9
-3.43814e-05,1.16139e-05,-1.13824e-05,-6.26147e-06,4.47764e-06,-1.18575e-05,1.54391e-05,-1.35355e-05,9
-3.33866e-05,1.22751e-05,-1.12998e-05,-3.90691e-06,6.9911e-06,-1.19347e-05,1.44756e-05,-1.14779e-05,9
-3.37634e-05,1.14771e-05,-1.12663e-05,-2.06123e-06,8.65492e-06,-1.23093e-05,1.39813e-05,-8.78331e-06,9
-3.5061e-05,1.03738e-05,-1.13047e-05,1.01064e-07,9.11358e-06,-1.30791e-05,1.4043e-05,-7.32003e-06,9
-3.58813e-05,1.00013e-05,-1.17457e-05,2.88409e-06,9.14335e-06,-1.45506e-05,1.4192e-05,-5.98795e-06,9
-3.59586e-05,1.0153e-05,-1.23562e-05,6.15156e-06,1.01709e-05,-1.48754e-05,1.42777e-05,-2.90578e-06,9
-3.54375e-05,1.05443e-05,-1.23642e-05,8.25128e-06,1.1522e-05,-1.24488e-05,1.29845e-05,2.05684e-06,9
-3.42715e-05,1.05484e-05,-1.21084e-05,8.57833e-06,1.24523e-05,-9.41534e-06,1.12169e-05,5.84134e-06,9
-3.29616e-05,9.98769e-06,-1.24898e-05,6.17763e-06,1.29781e-05,-7.64116e-06,1.17426e-05,7.44676e-06,9
-3.21381e-05,9.0147e-06,-1.20145e-05,2.6351e-06,1.33448e-05,-6.7736e-06,1.44912e-05,8.26726e-06,9
-3.16987e-05,9.11969e-06,-7.92568e-06,-1.57093e-06,1.36369e-05,-6.4735e-06,1.65079e-05,8.03125e-06,9
-3.25199e-05,1.06656e-05,-2.21759e-06,-7.71705e-06,1.40413e-05,-7.34649e-06,1.62824e-05,6.25927e-06,9
-3.4155e-05,1.24403e-05,-2.70013e-07,-1.37893e-05,1.44391e-05,-7.96431e-06,1.61129e-05,5.74583e-06,9
-3.48289e-05,1.43572e-05,-2.6587e-06,-1.67141e-05,1.38597e-05,-7.89441e-06,1.70815e-05,6.36955e-06,9
-3.47998e-05,1.52227e-05,-5.30825e-06,-1.62233e-05,1.22893e-05,-7.27422e-06,1.80823e-05,6.4215e-06,9
-3.44793e-05,1.57359e-05,-5.62425e-06,-1.33191e-05,1.12476e-05,-6.03696e-06,1.91629e-05,5.32854e-06,9
-3.36071e-05,1.53703e-05,-3.9835e-06,-9.92787e-06,1.06524e-05,-5.29922e-06,2.03081e-05,3.90744e-06,9
-3.24238e-05,1.28464e-05,-3.48394e-06,-7.23351e-06,1.18749e-05,-5.4023e-06,2.00411e-05,3.1409e-06,9
-3.07839e-05,1.2378e-05,-4.21876e-06,-6.10351e-06,1.37421e-05,-6.17113e-06,1.88641e-05,1.87093e-06,9
-2.8242e-05,1.41499e-05,-4.44688e-06,-4.64534e-06,1.43618e-05,-6.72897e-06,1.60926e-05,1.06769e-06,9
-2.67592e-05,1.3923e-05,-5.15284e-06,-2.50741e-06,1.46088e-05,-7.43587e-06,1.28413e-05,1.61276e-06,9
-2.61364e-05,1.19129e-05,-6.29527e-06,-2.26083e-06,1.39721e-05,-7.81269e-06,1.18984e-05,2.75816e-06,9
-2.50931e-05,9.88182e-06,-6.77731e-06,-2.72731e-06,1.48542e-05,-7.44997e-06,1.1867e-05,1.9466e-06,9
-2.40616e-05,9.21767e-06,-7.55983e-06,-3.50426e-06,1.57997e-05,-7.0535e-06,1.07336e-05,-9.58246e-07,9
-2.47367e-05,1.04143e-05,-7.5127e-06,-4.32638e-06,1.63136e-05,-7.2789e-06,9.66247e-06,-4.25479e-06,9
-2.60329e-05,1.1024e-05,-6.29974e-06,-4.04896e-06,1.70792e-05,-7.48796e-06,8.73341e-06,-6.8185e-06,9
-2.62164e-05,1.06113e-05,-4.47838e-06,-2.37305e-06,1.72556e-05,-7.27664e-06,7.79306e-06,-8.37883e-06,9
-2.57035e-05,9.87777e-06,-3.05522e-06,5.13736e-07,1.71467e-05,-6.69564e-06,7.92701e-06,-1.03161e-05,9
-2.50386e-05,9.88174e-06,-2.52708e-06,1.99209e-06,1.6755e-05,-6.36287e-06,8.37853e-06,-1.16022e-05,9
-2.50555e-05,1.10193e-05,-3.25838e-06,1.87597e-07,1.63398e-05,-6.62356e-06,8.11686e-06,-1.0439e-05,9
-2.52557e-05,1.21089e-05,-5.07162e-06,-1.47388e-06,1.5923e-05,-7.43019e-06,7.61383e-06,-7.71003e-06,9
-2.64913e-05,1.26346e-05,-6.68504e-06,-6.20597e-07,1.62269e-05,-8.22723e-06,7.98914e-06,-5.26708e-06,9
-2.77527e-05,1.32587e-05,-7.87345e-06,1.35335e-06,1.69511e-05,-7.85622e-06,7.94842e-06,-4.4941e-06,9
-2.77346e-05,1.39783e-05,-8.39853e-06,1.71015e-06,1.78334e-05,-7.37096e-06,7.44241e-06,-5.79094e-06,9
-2.72484e-05,1.39943e-05,-8.39437e-06,8.74801e-09,1.81234e-05,-8.20937e-06,8.00406e-06,-7.54113e-06,9
-2.76768e-05,1.34711e-05,-7.98893e-06,-1.56755e-06,1.77926e-05,-1.04387e-05,8.60651e-06,-7.79648e-06,9
-2.74207e-05,1.26526e-05,-8.4371e-06,-1.60905e-06,1.76416e-05,-1.24859e-05,8.14143e-06,-5.80044e-06,9
-2.56656e-05,1.268e-05,-9.09702e-06,-1.09666e-06,1.78999e-05,-1.33409e-05,8.70977e-06,-2.81355e-06,9
-2.43206e-05,1.32325e-05,-8.73882e-06,-1.71518e-06,1.8308e-05,-1.22377e-05,1.0153e-05,-9.12423e-07,9
-2.41014e-05,1.31326e-05,-7.53296e-06,-2.76301e-06,1.86299e-05,-9.78938e-06,1.15936e-05,-3.32231e-07,9
-2.46777e-05,1.24579e-05,-6.93838e-06,-3.15119e-06,1.83929e-05,-7.80256e-06,1.35265e-05,3.54666e-07,9
-2.5433e-05,1.30322e-05,-7.19055e-06,-3.42104e-06,1.68237e-05,-6.42931e-06,1.44199e-05,2.86745e-06,9
-2.66421e-05,1.4453e-05,-7.5879e-06,-3.76679e-06,1.58648e-05,-5.57281e-06,1.5426e-05,5.67961e-06,9
-2.85074e-05,1.3536e-05,-8.12418e-06,-3.7805e-06,1.64502e-05,-5.65827e-06,1.63525e-05,6.62476e-06,9
-3.00948e-05,1.11227e-05,-8.84847e-06,-2.53625e-06,1.65936e-05,-5.33809e-06,1.54083e-05,5.39524e-06,9
-3.03034e-05,1.12661e-05,-1.02549e-05,-2.32449e-06,1.58379e-05,-5.35723e-06,1.41096e-05,4.78036e-06,9
-2.90069e-05,1.25662e-05,-1.2283e-05,-3.55673e-06,1.49668e-05,-6.68395e-06,1.33346e-05,5.20606e-06,9
-2.85626e-05,1.15679e-05,-1.19653e-05,-4.56426e-06,1.5926e-05,-8.40276e-06,1.26376e-05,5.29638e-06,9
-2.9981e-05,9.73153e-06,-1.02154e-05,-5.33284e-06,1.78263e-05,-9.53387e-06,1.03643e-05,2.96886e-06,9
-3.17909e-05,8.2394e-06,-9.34302e-06,-5.88599e-06,1.85922e-05,-9.7246e-06,8.11647e-06,-2.54531e-06,9
-3.29379e-05,7.20915e-06,-8.46016e-06,-5.67707e-06,1.77602e-05,-1.0722e-05,8.16673e-06,-7.07989e-06,9
-3.21121e-05,6.64314e-06,-8.11905e-06,-5.04984e-06,1.62853e-05,-1.14173e-05,8.9317e-06,-8.21812e-06,9
-3.01484e-05,7.70227e-06,-8.33754e-06,-5.702e-06,1.4706e-05,-1.11931e-05,9.06614e-06,-4.87612e-06,9
-2.81357e-05,9.75705e-06,-8.59176e-06,-6.64792e-06,1.36623e-05,-1.08869e-05,7.76475e-06,1.27656e-07,9
-2.63091e-05,1.09956e-05,-6.72897e-06,-6.95088e-06,1.37417e-05,-1.10931e-05,5.5455e-06,3.79261e-06,9
-2.45013e-05,1.14448e-05,-3.67082e-06,-4.92623e-06,1.41234e-05,-1.11724e-05,3.76972e-06,5.13889e-06,9
-2.38964e-05,1.1312e-05,-2.29161e-06,-3.38041e-06,1.47256e-05,-1.07593e-05,3.49822e-06,4.27145e-06,9
-2.50217e-05,1.1692e-05,-3.16087e-06,-4.11809e-06,1.39561e-05,-1.03542e-05,3.64421e-06,2.14759e-06,9
-2.62224e-05,1.27504e-05,-5.89387e-06,-5.12657e-06,1.20511e-05,-1.03512e-05,3.76134e-06,-5.05961e-07,9
-2.63146e-05,1.41937e-05,-8.90084e-06,-4.26597e-06,1.0353e-05,-1.09517e-05,5.84911e-06,-3.18866e-06,9
-2.62239e-05,1.53325e-05,-1.05349e-05,-3.07713e-06,1.02951e-05,-1.17522e-05,9.54634e-06,-5.78505e-06,9
-2.61075e-05,1.57372e-05,-1.03059e-05,-3.44509e-06,1.13769e-05,-1.22158e-05,1.14516e-05,-9.3722e-06,9
-2.53733e-05,1.59964e-05,-9.64479e-06,-3.73596e-06,1.23121e-05,-1.21729e-05,1.00704e-05,-1.52012e-05,9
-2.51026e-05,1.61253e-05,-9.69816e-06,-3.39448e-06,1.2352e-05,-1.25627e-05,8.61424e-06,-2.12715e-05,9
-2.6063e-05,1.52407e-05,-9.55132e-06,-3.70608e-06,1.16236e-05,-1.28006e-05,9.85701e-06,-2.46151e-05,9
-2.75094e-05,1.36565e-05,-8.53313e-06,-4.91119e-06,1.17977e-05,-1.18882e-05,1.18238e-05,-2.31278e-05,9
-2.84782e-05,1.32051e-05,-7.29573e-06,-4.30835e-06,1.37318e-05,-1.08479e-05,1.24578e-05,-1.8138e-05,9
-2.87891e-05,1.41289e-05,-7.06879e-06,-2.60392e-06,1.50332e-05,-1.05225e-05,1.18619e-05,-1.24759e-05,9
-2.89698e-05,1.39845e-05,-7.6015e-06,-1.44232e-06,1.42046e-05,-9.61487e-06,1.06271e-05,-7.19485e-06,9
-2.92775e-05,1.30394e-05,-6.82131e-06,4.32338e-07,1.2728e-05,-7.71139e-06,1.01965e-05,-3.76691e-06,9
-2.95969e-05,1.20933e-05,-3.65208e-06,4.72872e-06,1.18784e-05,-5.93948e-06,1.19074e-05,-2.73707e-06,9
-2.93867e-05,1.23217e-05,-7.67933e-07,9.96409e-06,1.1402e-05,-7.18348e-06,1.33488e-05,-2.23522e-06,9
-2.84074e-05,1.3722e-05,-1.77315e-06,1.54038e-05,1.19115e-05,-1.02227e-05,1.25367e-05,-1.47978e-06,9
-2.91167e-05,1.31267e-05,-3.46978e-06,1.99064e-05,1.42574e-05,-1.09988e-05,1.19724e-05,4.07682e-10,9
-3.06056e-05,1.14822e-05,-3.83716e-06,2.38173e-05,1.61733e-05,-9.96787e-06,1.24012e-05,3.03512e-06,9
-3.14033e-05,1.08441e-05,-4.12336e-06,2.49273e-05,1.72114e-05,-1.02551e-05,1.21938e-05,7.16155e-06,9
-3.13622e-05,1.15379e-05,-4.62559e-06,2.22405e-05,1.62588e-05,-1.16015e-05,1.20241e-05,1.06709e-05,9
-3.12693e-05,1.14542e-05,-5.27912e-06,1.55571e-05,1.40654e-05,-1.14993e-05,1.33219e-05,1.276e-05,9
-3.21575e-05,1.07781e-05,-4.30606e-06,-1.89605e-07,1.29711e-05,-1.03817e-05,1.51138e-05,1.36005e-05,9
-3.30657e-05,1.00111e-05,-2.48945e-06,-2.39304e-05,1.29632e-05,-9.47622e-06,1.66206e-05,1.36668e-05,9
-3.26088e-05,8.59047e-06,-7.86312e-07,-4.69513e-05,1.22655e-05,-9.05055e-06,1.56621e-05,1.29532e-05,9
-3.09522e-05,7.88206e-06,-3.47476e-07,-5.67209e-05,1.18848e-05,-8.53745e-06,1.39996e-05,1.16897e-05,9
-2.96654e-05,8.69965e-06,-4.19831e-07,-4.96361e-05,1.26165e-05,-8.21985e-06,1.34858e-05,1.24568e-05,9
-2.90085e-05,1.0351e-05,-7.94564e-07,-3.51262e-05,1.32899e-05,-7.92355e-06,1.33592e-05,1.53291e-05,9
-2.96255e-05,1.17919e-05,-1.33863e-06,-2.3388e-05,1.32013e-05,-7.33969e-06,1.40682e-05,1.75018e-05,9
-3.08773e-05,1.23287e-05,-1.67632e-06,-1.71077e-05,1.2177e-05,-7.51528e-06,1.48127e-05,1.8093e-05,9
-3.1955e-05,1.14447e-05,-2.40096e-06,-1.48864e-05,1.16227e-05,-8.61776e-06,1.55465e-05,1.71452e-05,9
-3.2606e-05,1.03906e-05,-3.68219e-06,-1.41644e-05,1.15456e-05,-9.43759e-06,1.62305e-05,1.53799e-05,9
-3.3039e-05,1.01068e-05,-5.6593e-06,-1.28191e-05,1.1663e-05,-9.67575e-06,1.69936e-05,1.33965e-05,9
-3.25e-05,1.08959e-05,-6.85983e-06,-1.02313e-05,1.15312e-05,-9.73921e-06,1.70741e-05,1.13691e-05,9
-3.09412e-05,1.21771e-05,-7.54202e-06,-7.67248e-06,1.12786e-05,-9.09514e-06,1.66808e-05,1.01265e-05,9
-3.07166e-05,1.34787e-05,-9.01373e-06,-6.50518e-06,1.19353e-05,-7.90039e-06,1.57662e-05,9.32765e-06,9
-3.18194e-05,1.46449e-05,-1.04213e-05,-5.91401e-06,1.41479e-05,-7.51916e-06,1.53059e-05,1.00683e-05,9
-3.23928e-05,1.5111e-05,-1.03456e-05,-4.38552e-06,1.67634e-05,-7.58054e-06,1.55977e-05,1.53565e-05,9
-3.18381e-05,1.42004e-05,-9.99743e-06,-2.30999e-06,1.88004e-05,-7.6937e-06,1.58007e-05,2.49346e-05,9
-3.15507e-05,1.26765e-05,-9.2108e-06,-1.03011e-06,1.85708e-05,-8.88141e-06,1.71528e-05,3.27158e-05,9
-3.23897e-05,1.22687e-05,-9.39743e-06,-2.97017e-07,1.64343e-05,-1.05101e-05,1.95943e-05,3.34374e-05,9
-3.32996e-05,1.31324e-05,-9.55719e-06,6.76653e-07,1.51179e-05,-1.13722e-05,2.02789e-05,2.8013e-05,9
-3.37516e-05,1.36378e-05,-8.86288e-06,1.37893e-06,1.59126e-05,-1.17204e-05,1.88006e-05,1.87439e-05,9
-3.38651e-05,1.32987e-05,-8.92104e-06,1.57991e-06,1.66734e-05,-1.11151e-05,1.69166e-05,6.9799e-06,9
-3.37985e-05,1.32412e-05,-8.62462e-06,2.24785e-06,1.65524e-05,-9.76471e-06,1.55631e-05,-3.61533e-06,9
-3.29792e-05,1.26676e-05,-7.92414e-06,2.75152e-06,1.64259e-05,-9.14071e-06,1.45797e-05,-5.96912e-06,9
-3.10052e-05,1.19668e-05,-8.46669e-06,2.17746e-06,1.64365e-05,-9.05855e-06,1.2284e-05,8.95492e-07,9
-2.97838e-05,1.28393e-05,-1.04013e-05,3.96812e-07,1.64869e-05,-1.00691e-05,9.8498e-06,1.26642e-05,9
-2.94449e-05,1.39923e-05,-1.14873e-05,-7.90192e-07,1.49076e-05,-1.24048e-05,8.95258e-06,2.49877e-05,9
-2.81212e-05,1.48735e-05,-1.15687e-05,-1.82941e-07,1.3177e-05,-1.40666e-05,9.93505e-06,2.84326e-05,9
-2.74712e-05,1.65887e-05,-1.08036e-05,1.14496e-07,1.27435e-05,-1.30846e-05,1.05625e-05,1.4188e-05,9
-2.8399e-05,1.77873e-05,-1.01043e-05,-1.151e-06,1.38759e-05,-1.07872e-05,9.51242e-06,-1.44017e-05,9
-2.93051e-05,1.6902e-05,-9.73949e-06,-2.03139e-06,1.49842e-05,-9.04835e-06,9.75701e-06,-4.31256e-05,9
-2.91488e-05,1.51043e-05,-9.22421e-06,-1.85007e-06,1.50947e-05,-7.53248e-06,1.27223e-05,-6.1282e-05,9
-2.84487e-05,1.4726e-05,-8.98226e-06,-1.2111e-06,1.56368e-05,-6.44032e-06,1.67827e-05,-6.36957e-05,9
-2.86479e-05,1.5554e-05,-8.91011e-06,-1.39633e-06,1.72825e-05,-5.29983e-06,1.9875e-05,-4.99792e-05,9
-2.98946e-05,1.58111e-05,-8.67972e-06,-3.49424e-06,1.87878e-05,-4.08959e-06,2.11995e-05,-2.63428e-05,9
-3.18276e-05,1.50119e-05,-8.48628e-06,-7.1569e-06,1.86747e-05,-3.73893e-06,2.0841e-05,-4.86664e-06,9
-3.33867e-05,1.34862e-05,-8.24508e-06,-1.08605e-05,1.69279e-05,-5.14316e-06,1.98476e-05,3.33296e-06,9
-3.40829e-05,1.26001e-05,-7.99693e-06,-1.18383e-05,1.48125e-05,-7.61704e-06,1.92095e-05,-3.65041e-06,9
-3.43572e-05,1.32359e-05,-8.24527e-06,-1.01657e-05,1.36658e-05,-1.00058e-05,1.80056e-05,-1.89564e-05,9
-3.42887e-05,1.42906e-05,-7.9131e-06,-8.02912e-06,1.37793e-05,-1.19285e-05,1.52421e-05,-3.25339e-05,9
-3.35158e-05,1.46218e-05,-6.15914e-06,-6.49157e-06,1.46359e-05,-1.29114e-05,1.13153e-05,-3.85844e-05,9
-3.26253e-05,1.46479e-05,-4.6671e-06,-6.97827e-06,1.49659e-05,-1.18906e-05,7.84405e-06,-3.75338e-05,9
-3.25435e-05,1.46609e-05,-4.89197e-06,-9.15336e-06,1.49895e-05,-9.88268e-06,6.40709e-06,-3.17958e-05,9
-3.38135e-05,1.31234e-05,-4.81692e-06,-9.59415e-06,1.45711e-05,-9.41009e-06,5.76002e-06,-2.20901e-05,9
-3.5476e-05,1.03614e-05,-4.62117e-06,-9.12882e-06,1.47243e-05,-1.05007e-05,5.12012e-06,-8.67889e-06,9
-3.71655e-05,9.06191e-06,-4.91614e-06,-8.31559e-06,1.55921e-05,-1.18122e-05,4.58697e-06,8.55831e-06,9
-3.67535e-05,9.21417e-06,-4.83171e-06,-7.10659e-06,1.5776e-05,-1.1112e-05,3.59663e-06,2.48264e-05,9
-3.42441e-05,8.97283e-06,-4.61955e-06,-4.95442e-06,1.48204e-05,-1.01984e-05,2.91666e-06,3.34322e-05,9
-3.26179e-05,9.09763e-06,-3.67611e-06,-1.95597e-06,1.39047e-05,-1.11931e-05,3.85883e-06,3.24109e-05,9
-3.15192e-05,1.10973e-05,-2.67647e-06,2.16077e-07,1.27067e-05,-1.24327e-05,6.94372e-06,2.73212e-05,9
-3.12319e-05,1.26501e-05,-2.71038e-06,2.07595e-06,1.09254e-05,-1.28736e-05,9.74727e-06,2.34601e-05,9
-3.07651e-05,1.28317e-05,-3.6254e-06,1.57697e-06,9.70295e-06,-1.22277e-05,1.10336e-05,2.01131e-05,9
-3.00262e-05,1.23031e-05,-4.57513e-06,-1.20734e-06,8.52888e-06,-1.04821e-05,1.17194e-05,1.57994e-05,9
-2.99869e-05,1.26469e-05,-5.12631e-06,-4.26026e-06,8.31676e-06,-9.27177e-06,1.15235e-05,9.70912e-06,9
-3.05604e-05,1.4664e-05,-5.50042e-06,-4.6951e-06,7.79602e-06,-9.38644e-06,1.067e-05,4.45662e-06,9
-3.1218e-05,1.56439e-05,-6.02679e-06,-3.66766e-06,7.90186e-06,-9.48568e-06,1.0019e-05,2.38617e-06,9
-3.11952e-05,1.5343e-05,-6.76275e-06,-3.69629e-06,8.845e-06,-8.83531e-06,9.07255e-06,2.57508e-06,9
-3.05311e-05,1.46246e-05,-6.21264e-06,-3.0348e-06,9.11489e-06,-7.41998e-06,9.30441e-06,2.17097e-06,9
-3.01051e-05,1.51189e-05,-4.89515e-06,-2.36772e-06,9.4175e-06,-6.03634e-06,1.13518e-05,3.36077e-07,9
-3.03817e-05,1.4853e-05,-5.11511e-06,-1.791e-06,9.93921e-06,-5.31423e-06,1.27177e-05,-1.139e-06,9
-3.075e-05,1.25004e-05,-5.23685e-06,-1.13635e-06,1.04078e-05,-4.39756e-06,1.25213e-05,-1.72973e-06,9
-3.13817e-05,9.71504e-06,-5.14559e-06,-2.42186e-06,1.07396e-05,-3.54097e-06,1.22386e-05,-1.60578e-06,9
-3.13262e-05,8.09929e-06,-6.12533e-06,-6.46274e-06,1.15829e-05,-3.99831e-06,1.29245e-05,1.80935e-06,9
-2.98933e-05,8.13522e-06,-7.72253e-06,-9.5963e-06,1.2519e-05,-4.82702e-06,1.30312e-05,1.19118e-05,9
-2.82745e-05,8.95607e-06,-8.91272e-06,-8.93947e-06,1.30095e-05,-4.54799e-06,1.19683e-05,2.58447e-05,9
-2.73057e-05,1.03968e-05,-8.30138e-06,-6.35297e-06,1.30066e-05,-3.78194e-06,1.01931e-05,3.52106e-05,9
-2.72929e-05,1.13811e-05,-5.77002e-06,-5.07914e-06,1.26866e-05,-4.46056e-06,9.19116e-06,3.66375e-05,9
-2.73756e-05,1.17015e-05,-3.37232e-06,-4.50816e-06,1.1992e-05,-7.06017e-06,8.83112e-06,3.32525e-05,9
-2.72302e-05,1.19631e-05,-2.66179e-06,-2.57386e-06,1.28156e-05,-9.88035e-06,7.74923e-06,2.81591e-05,9
-2.75549e-05,1.26776e-05,-3.35087e-06,-7.49375e-07,1.45915e-05,-1.05887e-05,6.79054e-06,2.29006e-05,9
-2.77624e-05,1.3268e-05,-5.92684e-06,-1.05482e-06,1.53427e-05,-9.30445e-06,7.7622e-06,1.75503e-05,9
-2.72199e-05,1.39893e-05,-8.59599e-06,-1.85512e-06,1.57198e-05,-7.70128e-06,9.70014e-06,1.16558e-05,9
-2.63763e-05,1.47468e-05,-1.04556e-05,-1.08067e-06,1.59774e-05,-7.45395e-06,1.06009e-05,6.0906e-06,9
-2.60309e-05,1.40476e-05,-1.15635e-05,8.39097e-07,1.59235e-05,-7.92935e-06,1.14472e-05,1.37916e-06,9
-2.72388e-05,1.27206e-05,-1.10514e-05,1.30305e-06,1.65062e-05,-8.13277e-06,1.37394e-05,-4.7834e-06,9
-2.85439e-05,1.21187e-05,-9.74309e-06,-1.41824e-07,1.60519e-05,-9.08428e-06,1.70207e-05,-1.1154e-05,9
-2.7612e-05,1.25556e-05,-9.09538e-06,-7.91762e-07,1.49542e-05,-1.08359e-05,2.04698e-05,-1.73579e-05,9
-2.57775e-05,1.48343e-05,-8.22432e-06,-2.07646e-06,1.49861e-05,-1.23956e-05,2.15447e-05,-2.40245e-05,9
-2.35956e-05,1.67822e-05,-6.46945e-06,-4.06668e-06,1.5601e-05,-1.28356e-05,1.99577e-05,-2.70685e-05,9
-2.24051e-05,1.63834e-05,-5.18787e-06,-5.40649e-06,1.74078e-05,-1.22724e-05,1.79486e-05,-2.49625e-05,9
-2.36608e-05,1.4523e-05,-4.40177e-06,-6.14664e-06,1.88896e-05,-1.05478e-05,1.56505e-05,-2.09159e-05,9
-2.58531e-05,1.4411e-05,-4.17664e-06,-7.43808e-06,1.91336e-05,-9.61792e-06,1.34795e-05,-1.66969e-05,9
-2.70495e-05,1.44548e-05,-3.92458e-06,-7.73258e-06,1.77698e-05,-1.00025e-05,1.08296e-05,-1.37714e-05,9
-2.65185e-05,1.34687e-05,-3.19804e-06,-6.85389e-06,1.59711e-05,-9.31644e-06,9.69866e-06,-1.46091e-05,9
-2.54865e-05,1.24295e-05,-2.1645e-06,-5.45142e-06,1.56148e-05,-7.3929e-06,1.07047e-05,-1.67645e-05,9
-2.48311e-05,1.16165e-05,-1.72082e-06,-4.13245e-06,1.66091e-05,-6.19446e-06,1.26661e-05,-1.7651e-05,9
-2.47596e-05,1.16943e-05,-2.72751e-06,-4.45378e-06,1.69939e-05,-6.7427e-06,1.39175e-05,-1.70633e-05,9
-2.46204e-05,1.21469e-05,-4.3549e-06,-5.47346e-06,1.57567e-05,-8.03237e-06,1.40276e-05,-1.63362e-05,9
-2.4681e-05,1.23048e-05,-6.18622e-06,-6.25061e-06,1.49007e-05,-8.66623e-06,1.42647e-05,-1.56298e-05,9
-2.57519e-05,1.13015e-05,-7.31109e-06,-6.05202e-06,1.59547e-05,-9.04471e-06,1.5351e-05,-1.4684e-05,9
-2.73223e-05,1.04183e-05,-7.39332e-06,-5.97563e-06,1.75905e-05,-1.01903e-05,1.63578e-05,-1.29768e-05,9
-2.87255e-05,9.7773e-06,-7.22424e-06,-5.79346e-06,1.77643e-05,-1.07459e-05,1.58592e-05,-9.59771e-06,9
-2.97547e-05,9.42753e-06,-7.59095e-06,-5.2231e-06,1.65156e-05,-1.05859e-05,1.43867e-05,-5.23616e-06,9
-3.02201e-05,8.83017e-06,-8.03211e-06,-4.2067e-06,1.5736e-05,-1.09992e-05,1.29098e-05,-8.19948e-07,9
-3.07888e-05,8.82418e-06,-8.86022e-06,-3.02047e-06,1.5847e-05,-1.12282e-05,1.21645e-05,3.99186e-06,9
-3.14386e-05,9.72903e-06,-1.1109e-05,-1.95071e-06,1.59026e-05,-9.8875e-06,1.24071e-05,9.26206e-06,9
-3.16944e-05,1.02045e-05,-1.29553e-05,-2.25612e-06,1.59284e-05,-8.69558e-06,1.36537e-05,1.21812e-05,9
-3.17672e-05,9.06714e-06,-1.26481e-05,-3.33441e-06,1.54243e-05,-8.10736e-06,1.54528e-05,1.30974e-05,9
-3.17589e-05,8.85949e-06,-1.07036e-05,-4.77171e-06,1.41441e-05,-9.45869e-06,1.70822e-05,1.37606e-05,9
-3.09551e-05,1.00345e-05,-7.13145e-06,-5.83975e-06,1.38445e-05,-1.24734e-05,1.74383e-05,1.41101e-05,9
-2.91904e-05,1.03964e-05,-3.40324e-06,-5.30425e-06,1.5187e-05,-1.3136e-05,1.71664e-05,1.45349e-05,9
-2.85023e-05,9.32425e-06,-3.28635e-06,-3.48531e-06,1.69921e-05,-1.1958e-05,1.66584e-05,1.42498e-05,9
-2.92195e-05,8.72155e-06,-5.82295e-06,-8.42615e-07,1.79134e-05,-1.1193e-05,1.54219e-05,1.3978e-05,9
-2.99715e-05,1.06854e-05,-8.06874e-06,4.28964e-07,1.69286e-05,-1.2564e-05,1.36257e-05,1.62195e-05,9
-3.05434e-05,1.23298e-05,-9.10225e-06,-2.35869e-07,1.61232e-05,-1.35844e-05,1.51033e-05,2.16607e-05,9
-3.05461e-05,1.30958e-05,-7.84573e-06,-1.19257e-06,1.39281e-05,-1.2479e-05,1.77985e-05,2.85572e-05,9
-2.96331e-05,1.37403e-05,-6.11982e-06,-1.45099e-06,1.18262e-05,-1.12147e-05,1.97835e-05,3.29677e-05,9
-2.90258e-05,1.39615e-05,-6.55523e-06,-9.97231e-07,1.14545e-05,-1.03441e-05,2.04162e-05,3.35549e-05,9
-2.87586e-05,1.3099e-05,-7.33363e-06,-6.95543e-07,1.14521e-05,-1.02428e-05,1.95985e-05,3.15103e-05,9
-2.82146e-05,1.29069e-05,-6.59081e-06,-2.35198e-06,1.18602e-05,-1.03508e-05,1.85701e-05,2.90153e-05,9
-2.81955e-05,1.37099e-05,-5.06875e-06,-4.79546e-06,1.09333e-05,-9.6573e-06,1.62086e-05,2.65248e-05,9
-2.96979e-05,1.3203e-05,-4.62137e-06,-6.42729e-06,1.03372e-05,-8.69973e-06,1.32056e-05,2.23513e-05,9
-3.09033e-05,1.20984e-05,-5.11302e-06,-7.04298e-06,1.16008e-05,-8.37873e-06,1.06038e-05,1.55056e-05,9
-2.99699e-05,1.1726e-05,-5.91597e-06,-6.76458e-06,1.44263e-05,-8.86884e-06,9.86463e-06,5.12367e-06,9
-2.83669e-05,1.22036e-05,-6.60023e-06,-5.92776e-06,1.62738e-05,-9.30446e-06,1.00657e-05,-9.65519e-06,9
-2.80492e-05,1.3108e-05,-6.99408e-06,-5.41076e-06,1.60007e-05,-8.86515e-06,1.01167e-05,-2.5263e-05,9
