ch1,ch2,ch3,ch4,ch5,ch6,ch7,ch8,class
-2.67331e-05,1.41173e-05,-8.14846e-06,2.4498e-06,1.07684e-05,-7.83997e-06,1.84455e-05,-7.3172e-05,9
-2.46242e-05,1.38309e-05,-5.00307e-06,2.05553e-06,1.07334e-05,-1.0669e-05,1.7551e-05,-5.91498e-05,9
-2.37489e-05,1.4095e-05,-2.48044e-06,-5.63731e-08,1.05e-05,-1.15426e-05,1.54423e-05,-3.65237e-05,9
-2.35994e-05,1.34604e-05,-7.02469e-07,-2.94816e-07,1.10543e-05,-1.04867e-05,1.27212e-05,-2.26721e-05,9
-2.23324e-05,1.15782e-05,1.95984e-07,6.82516e-07,1.09543e-05,-8.79329e-06,1.06426e-05,-2.27873e-05,9
-2.20673e-05,1.06919e-05,-4.48523e-07,1.8874e-06,9.44626e-06,-7.80953e-06,8.48223e-06,-3.03912e-05,9
-2.36733e-05,1.10381e-05,-1.97455e-06,2.02525e-06,7.76383e-06,-8.45781e-06,7.03565e-06,-3.71752e-05,9
-2.61517e-05,1.066e-05,-2.44524e-06,1.18074e-06,7.38694e-06,-9.81225e-06,6.64815e-06,-3.78855e-05,9
-2.84918e-05,8.55857e-06,-1.10412e-06,4.7592e-07,8.21667e-06,-9.48958e-06,6.19953e-06,-3.29403e-05,9
-2.90242e-05,6.91207e-06,5.4083e-07,-1.19069e-06,9.57924e-06,-8.1893e-06,6.18994e-06,-2.74855e-05,9
-2.80406e-05,7.11809e-06,6.01202e-07,-3.53347e-06,1.06958e-05,-7.27838e-06,6.81796e-06,-2.22051e-05,9
-2.63394e-05,8.19284e-06,-1.00021e-06,-5.51049e-06,1.1062e-05,-6.61602e-06,7.35314e-06,-1.59337e-05,9
-2.51098e-05,8.49016e-06,-2.49889e-06,-5.68075e-06,1.13981e-05,-6.23187e-06,7.90432e-06,-7.65668e-06,9
-2.49775e-05,8.24099e-06,-2.75072e-06,-4.17684e-06,1.20927e-05,-6.74681e-06,9.148e-06,1.11096e-06,9
-2.67785e-05,9.03032e-06,-2.52771e-06,-2.15436e-06,1.26978e-05,-8.68509e-06,1.05369e-05,9.04488e-06,9
-2.88472e-05,1.07995e-05,-2.82803e-06,-1.40671e-06,1.28957e-05,-1.07989e-05,1.12336e-05,1.34592e-05,9
-2.94968e-05,1.27223e-05,-3.89602e-06,-2.32276e-06,1.31107e-05,-1.14681e-05,1.20952e-05,1.40716e-05,9
-2.88724e-05,1.33831e-05,-5.04322e-06,-4.66738e-06,1.38364e-05,-1.15465e-05,1.4338e-05,1.14376e-05,9
-2.94361e-05,1.23264e-05,-6.13977e-06,-7.17879e-06,1.53842e-05,-1.21748e-05,1.65114e-05,7.26587e-06,9
-3.10332e-05,1.05882e-05,-7.69702e-06,-8.75665e-06,1.7018e-05,-1.22956e-05,1.64721e-05,4.26337e-06,9
-3.1837e-05,9.82804e-06,-8.45715e-06,-9.04908e-06,1.75982e-05,-1.29195e-05,1.4156e-05,4.105e-06,9
-3.25937e-05,1.04801e-05,-7.61591e-06,-7.66006e-06,1.78897e-05,-1.30641e-05,1.24547e-05,6.2548e-06,9
-3.41456e-05,1.07666e-05,-6.97254e-06,-3.60232e-06,1.86627e-05,-1.1249e-05,1.24055e-05,8.37095e-06,9
-3.52172e-05,1.01272e-05,-8.14907e-06,-9.15573e-07,1.9059e-05,-8.85661e-06,1.06515e-05,1.0946e-05,9
-3.52695e-05,1.02981e-05,-1.0091e-05,-2.30908e-06,1.82327e-05,-6.68453e-06,7.72144e-06,1.50596e-05,9
-3.48409e-05,1.18099e-05,-1.06231e-05,-4.13454e-06,1.8144e-05,-6.16701e-06,8.46627e-06,1.77368e-05,9
-3.34162e-05,1.35102e-05,-9.51031e-06,-4.48094e-06,1.98278e-05,-7.39925e-06,1.21037e-05,1.85434e-05,9
-3.19408e-05,1.4575e-05,-8.98545e-06,-3.66493e-06,1.90246e-05,-8.4734e-06,1.33639e-05,1.86632e-05,9
-3.07585e-05,1.40014e-05,-9.60792e-06,-2.1043e-06,1.68192e-05,-8.42653e-06,1.16113e-05,1.73152e-05,9
-3.02806e-05,1.26657e-05,-1.0634e-05,-1.07872e-07,1.59824e-05,-7.38258e-06,9.96299e-06,1.58601e-05,9
-3.13027e-05,1.20087e-05,-1.15032e-05,4.15429e-08,1.68149e-05,-6.9744e-06,9.2098e-06,1.61433e-05,9
-3.1573e-05,1.12895e-05,-1.12369e-05,-3.31488e-07,1.77907e-05,-9.15281e-06,9.15513e-06,1.59139e-05,9
-3.09335e-05,1.14584e-05,-1.02073e-05,-8.69646e-07,1.74334e-05,-1.07297e-05,9.83001e-06,1.3967e-05,9
-3.01976e-05,1.16099e-05,-9.32102e-06,-2.97871e-06,1.68509e-05,-9.66914e-06,1.08159e-05,1.19907e-05,9
-2.93003e-05,1.09326e-05,-8.74523e-06,-6.72784e-06,1.63285e-05,-8.95505e-06,1.18651e-05,1.03146e-05,9
-2.91566e-05,1.02735e-05,-7.5371e-06,-1.28843e-05,1.63755e-05,-1.02338e-05,1.15432e-05,9.44087e-06,9
-2.92513e-05,9.87312e-06,-6.58238e-06,-1.93896e-05,1.70569e-05,-1.23935e-05,1.03935e-05,8.80096e-06,9
-2.9045e-05,9.57441e-06,-6.49936e-06,-2.29048e-05,1.75014e-05,-1.36099e-05,1.01133e-05,8.16427e-06,9
-2.79317e-05,8.72388e-06,-7.32024e-06,-2.23134e-05,1.72736e-05,-1.25945e-05,9.17733e-06,6.62056e-06,9
-2.68251e-05,8.13188e-06,-8.11581e-06,-1.95207e-05,1.71206e-05,-1.11532e-05,8.27926e-06,5.08689e-06,9
-2.6342e-05,8.32401e-06,-8.15679e-06,-1.64413e-05,1.70135e-05,-1.13493e-05,9.79441e-06,6.27996e-06,9
-2.67131e-05,9.5771e-06,-8.18292e-06,-1.31182e-05,1.82282e-05,-1.2845e-05,1.30217e-05,1.14274e-05,9
-2.80894e-05,1.08608e-05,-8.43657e-06,-1.04534e-05,2.06904e-05,-1.43581e-05,1.46446e-05,1.72047e-05,9
-3.04903e-05,1.17278e-05,-8.74636e-06,-9.35598e-06,2.24603e-05,-1.41303e-05,1.30882e-05,2.02692e-05,9
-3.29109e-05,1.21675e-05,-8.78053e-06,-8.70858e-06,2.19464e-05,-1.3152e-05,1.00898e-05,2.06902e-05,9
-3.39675e-05,1.29145e-05,-9.0788e-06,-6.94432e-06,2.04317e-05,-1.36994e-05,8.9143e-06,1.89235e-05,9
-3.4801e-05,1.35264e-05,-9.17272e-06,-3.99105e-06,1.90283e-05,-1.50803e-05,9.65197e-06,1.42436e-05,9
-3.58719e-05,1.30234e-05,-8.78408e-06,-2.13284e-06,1.75701e-05,-1.58956e-05,1.00638e-05,7.43736e-06,9
-3.46134e-05,1.32572e-05,-7.66451e-06,-1.5764e-06,1.64939e-05,-1.54062e-05,1.04979e-05,1.61759e-06,9
-3.10008e-05,1.42033e-05,-7.35627e-06,-1.49814e-06,1.5926e-05,-1.4365e-05,9.87692e-06,-4.0267e-06,9
-2.87042e-05,1.44682e-05,-1.00835e-05,-2.11573e-06,1.56644e-05,-1.40389e-05,7.836e-06,-1.11795e-05,9
-2.89656e-05,1.33152e-05,-1.2746e-05,-2.23648e-06,1.50189e-05,-1.2895e-05,7.05521e-06,-1.88068e-05,9
-2.96302e-05,1.22556e-05,-1.26387e-05,-2.13815e-06,1.50063e-05,-1.35594e-05,9.44715e-06,-2.37225e-05,9
-2.94882e-05,1.30378e-05,-1.1284e-05,-2.21664e-06,1.54318e-05,-1.39384e-05,1.10635e-05,-2.55999e-05,9
-2.97997e-05,1.33676e-05,-8.91674e-06,-1.66962e-06,1.60364e-05,-1.20099e-05,1.13658e-05,-2.59473e-05,9
-3.06249e-05,1.25911e-05,-7.89094e-06,-2.15399e-06,1.57998e-05,-1.06911e-05,1.19333e-05,-2.41238e-05,9
-3.11475e-05,1.22952e-05,-8.18858e-06,-3.32985e-06,1.4839e-05,-1.0881e-05,1.0743e-05,-2.09039e-05,9
-3.18724e-05,1.20373e-05,-7.86934e-06,-4.56302e-06,1.51484e-05,-1.29998e-05,9.92754e-06,-1.64014e-05,9
-3.15667e-05,1.21984e-05,-6.80514e-06,-6.76194e-06,1.56794e-05,-1.38088e-05,1.17783e-05,-1.37631e-05,9
-3.04739e-05,1.31427e-05,-6.0209e-06,-7.7848e-06,1.61701e-05,-1.28759e-05,1.42244e-05,-1.2629e-05,9
-2.96882e-05,1.36168e-05,-7.11171e-06,-7.3234e-06,1.62827e-05,-1.10001e-05,1.50166e-05,-9.79122e-06,9
-2.82159e-05,1.27184e-05,-8.0765e-06,-6.34732e-06,1.54961e-05,-1.00508e-05,1.44325e-05,-5.07904e-06,9
-2.62031e-05,1.10794e-05,-7.9793e-06,-5.535e-06,1.36985e-05,-1.04045e-05,1.24259e-05,1.95139e-07,9
-2.50814e-05,1.039e-05,-7.3359e-06,-5.05961e-06,1.21866e-05,-1.10512e-05,1.06936e-05,3.78834e-06,9
-2.48177e-05,1.17088e-05,-6.95748e-06,-4.14804e-06,1.20582e-05,-1.11247e-05,1.13071e-05,5.52672e-06,9
-2.44259e-05,1.34899e-05,-6.97657e-06,-1.57732e-06,1.26479e-05,-1.02295e-05,1.39027e-05,4.9075e-06,9
-2.44775e-05,1.41271e-05,-6.16428e-06,2.14975e-06,1.25653e-05,-8.32877e-06,1.58001e-05,2.16719e-06,9
-2.50908e-05,1.49049e-05,-4.76525e-06,4.24193e-06,1.12826e-05,-5.80125e-06,1.58575e-05,-7.74018e-07,9
-2.68851e-05,1.61003e-05,-4.89264e-06,4.0088e-06,1.09027e-05,-3.88537e-06,1.58125e-05,-1.41144e-06,9
-2.97971e-05,1.66139e-05,-6.30085e-06,3.26235e-06,1.19515e-05,-3.26383e-06,1.65105e-05,-9.66435e-07,9
-3.23496e-05,1.67828e-05,-6.94783e-06,2.64506e-06,1.32074e-05,-5.06545e-06,1.7333e-05,3.86354e-07,9
-3.27354e-05,1.75806e-05,-6.94394e-06,8.62159e-07,1.28059e-05,-7.83336e-06,1.76583e-05,3.39624e-06,9
-3.20316e-05,1.90036e-05,-6.74425e-06,-1.75134e-06,1.08672e-05,-9.43513e-06,1.74139e-05,6.49126e-06,9
-3.05002e-05,1.95271e-05,-6.3401e-06,-4.00161e-06,9.50439e-06,-1.02099e-05,1.57332e-05,6.9861e-06,9
-2.87453e-05,1.79475e-05,-5.27453e-06,-5.42247e-06,9.36215e-06,-1.08305e-05,1.39537e-05,5.06757e-06,9
-2.87716e-05,1.59729e-05,-3.32496e-06,-5.54153e-06,9.78975e-06,-1.00185e-05,1.37629e-05,2.46177e-06,9
-2.97437e-05,1.52914e-05,-2.7854e-06,-4.58804e-06,1.02365e-05,-8.48833e-06,1.39941e-05,-2.74702e-07,9
-3.01322e-05,1.51125e-05,-3.20832e-06,-4.18596e-06,1.12845e-05,-7.27518e-06,1.49204e-05,-1.27998e-06,9
-3.05246e-05,1.51003e-05,-2.35255e-06,-5.57331e-06,1.16756e-05,-7.16665e-06,1.66253e-05,-1.09753e-06,9
-3.15239e-05,1.55074e-05,-1.91518e-06,-8.0875e-06,9.50506e-06,-6.73585e-06,1.87544e-05,1.14037e-06,9
-3.18101e-05,1.51662e-05,-3.48789e-06,-9.94302e-06,8.82453e-06,-5.65629e-06,2.04946e-05,4.5685e-06,9
-3.1561e-05,1.45653e-05,-5.00043e-06,-9.72953e-06,1.06905e-05,-5.15542e-06,1.99289e-05,5.63355e-06,9
-3.10786e-05,1.51301e-05,-5.45011e-06,-8.65157e-06,1.18878e-05,-6.04076e-06,1.76521e-05,5.00889e-06,9
-3.07373e-05,1.48524e-05,-6.00847e-06,-9.37996e-06,1.11893e-05,-7.62116e-06,1.51145e-05,4.36527e-06,9
-3.01792e-05,1.33512e-05,-5.50401e-06,-1.02397e-05,1.11746e-05,-8.18036e-06,1.42412e-05,6.76891e-06,9
-2.9836e-05,1.13728e-05,-3.60451e-06,-9.67723e-06,1.20138e-05,-8.54982e-06,1.55401e-05,9.28775e-06,9
-2.95103e-05,1.07764e-05,-2.80515e-06,-8.22118e-06,1.24117e-05,-8.14576e-06,1.69367e-05,9.86345e-06,9
-2.91712e-05,1.15387e-05,-2.89424e-06,-7.13589e-06,1.24599e-05,-7.14569e-06,1.7461e-05,9.49667e-06,9
-2.88774e-05,1.17839e-05,-2.47535e-06,-6.47484e-06,1.16735e-05,-6.51189e-06,1.64372e-05,9.23604e-06,9
-2.9244e-05,1.23668e-05,-2.51701e-06,-5.67347e-06,1.09534e-05,-7.53913e-06,1.31807e-05,9.66058e-06,9
-3.08291e-05,1.28093e-05,-2.85186e-06,-5.93406e-06,1.00038e-05,-9.18204e-06,8.94799e-06,1.01677e-05,9
-3.24221e-05,1.30831e-05,-2.28955e-06,-7.29689e-06,8.51327e-06,-9.88829e-06,4.1868e-06,1.10793e-05,9
-3.35807e-05,1.29155e-05,-1.45763e-06,-8.85742e-06,7.21288e-06,-9.45922e-06,7.66319e-07,9.14257e-06,9
-3.36717e-05,1.20269e-05,-1.63981e-06,-1.00199e-05,7.58516e-06,-8.25366e-06,5.95881e-07,3.90465e-06,9
-3.29135e-05,1.09319e-05,-2.1008e-06,-1.11115e-05,8.74256e-06,-6.81606e-06,1.67781e-06,-4.24165e-06,9
-3.25213e-05,1.0472e-05,-2.04361e-06,-1.12117e-05,1.02552e-05,-4.98484e-06,2.29314e-06,-1.31993e-05,9
-3.29337e-05,1.16659e-05,-2.12703e-06,-9.62636e-06,1.13451e-05,-3.60804e-06,3.97974e-06,-1.94653e-05,9
-3.29008e-05,1.39591e-05,-2.41808e-06,-7.10247e-06,1.16186e-05,-3.77879e-06,7.24743e-06,-1.8755e-05,9
-3.19591e-05,1.44887e-05,-2.22728e-06,-6.21861e-06,1.13003e-05,-4.77359e-06,1.0523e-05,-1.27062e-05,9
-2.98053e-05,1.31079e-05,-2.05352e-06,-7.19222e-06,1.10771e-05,-4.70297e-06,1.34007e-05,-5.26252e-06,9
-2.77548e-05,1.27361e-05,-1.6386e-06,-8.0488e-06,1.06397e-05,-4.12275e-06,1.53468e-05,1.1486e-06,9
-2.75553e-05,1.38227e-05,-9.5459e-07,-7.29253e-06,1.03468e-05,-3.15154e-06,1.5113e-05,6.75923e-06,9
-2.92871e-05,1.51084e-05,-1.51187e-06,-4.38569e-06,1.15645e-05,-3.69478e-06,1.45834e-05,1.28622e-05,9
-3.09355e-05,1.46857e-05,-2.79142e-06,-2.54262e-06,1.28356e-05,-6.6204e-06,1.56898e-05,1.80073e-05,9
-3.02526e-05,1.30487e-05,-3.49992e-06,-3.23906e-06,1.29979e-05,-8.88128e-06,1.57054e-05,1.97259e-05,9
-2.87857e-05,1.35044e-05,-4.91185e-06,-4.13853e-06,1.36845e-05,-9.75293e-06,1.51186e-05,1.50332e-05,9
-2.91587e-05,1.46308e-05,-7.67346e-06,-2.7924e-06,1.59713e-05,-9.85877e-06,1.41791e-05,6.01474e-06,9
-3.07881e-05,1.45521e-05,-9.02262e-06,-2.32005e-06,1.77125e-05,-1.09388e-05,1.2887e-05,-4.40094e-06,9
-3.25994e-05,1.43973e-05,-8.41583e-06,-3.91596e-06,1.74273e-05,-1.07921e-05,1.21312e-05,-1.41742e-05,9
-3.46171e-05,1.46697e-05,-6.30044e-06,-4.10183e-06,1.63876e-05,-9.60586e-06,9.97428e-06,-2.33854e-05,9
-3.6273e-05,1.54954e-05,-3.20572e-06,-3.67594e-06,1.67589e-05,-9.54551e-06,6.24558e-06,-3.15011e-05,9
-3.63095e-05,1.6225e-05,-1.39267e-06,-2.41994e-06,1.80539e-05,-9.31741e-06,3.44751e-06,-3.49075e-05,9
-3.46812e-05,1.62968e-05,-1.09468e-06,-2.57421e-06,1.89232e-05,-9.2569e-06,3.46149e-06,-3.18974e-05,9
-3.41495e-05,1.56548e-05,-2.15608e-06,-4.00169e-06,1.7962e-05,-8.90638e-06,6.03866e-06,-2.37803e-05,9
-3.49072e-05,1.58413e-05,-4.56328e-06,-5.05028e-06,1.65032e-05,-9.11004e-06,9.78283e-06,-1.18263e-05,9
-3.45736e-05,1.57603e-05,-6.79197e-06,-6.04089e-06,1.64623e-05,-9.65841e-06,1.27454e-05,-4.35335e-08,9
-3.3201e-05,1.56801e-05,-7.87715e-06,-6.65715e-06,1.78617e-05,-1.02473e-05,1.44469e-05,9.42422e-06,9
-3.30546e-05,1.52692e-05,-8.23114e-06,-7.17796e-06,1.91949e-05,-1.07894e-05,1.46274e-05,1.58625e-05,9
-3.33925e-05,1.37233e-05,-8.36391e-06,-6.81586e-06,1.91954e-05,-1.24382e-05,1.38456e-05,1.86787e-05,9
-3.35354e-05,1.23164e-05,-9.27914e-06,-6.36491e-06,1.81371e-05,-1.44134e-05,1.35345e-05,1.84767e-05,9
-3.39766e-05,1.17756e-05,-1.08538e-05,-6.16883e-06,1.70468e-05,-1.43164e-05,1.45102e-05,1.5384e-05,9
-3.43824e-05,1.18903e-05,-1.1897e-05,-6.023e-06,1.65889e-05,-1.31742e-05,1.60752e-05,1.00777e-05,9
-3.43347e-05,1.15772e-05,-1.21955e-05,-5.84713e-06,1.66846e-05,-1.23542e-05,1.72252e-05,3.94692e-06,9
-3.3658e-05,1.0979e-05,-1.17806e-05,-6.93449e-06,1.75725e-05,-1.1152e-05,1.75428e-05,1.00764e-07,9
-3.23186e-05,1.03558e-05,-1.09065e-05,-7.71077e-06,1.85239e-05,-9.213e-06,1.73038e-05,-1.64934e-07,9
-3.10116e-05,1.12066e-05,-1.0504e-05,-6.30899e-06,1.89039e-05,-7.81849e-06,1.73483e-05,3.63675e-06,9
-3.09695e-05,1.22314e-05,-1.01181e-05,-5.27146e-06,1.86573e-05,-7.0748e-06,1.74161e-05,9.74849e-06,9
-3.20012e-05,1.22224e-05,-8.32463e-06,-6.55406e-06,1.85095e-05,-7.2793e-06,1.65998e-05,1.43273e-05,9
-3.26752e-05,1.18601e-05,-6.11098e-06,-7.42902e-06,1.78768e-05,-7.73098e-06,1.56053e-05,1.51991e-05,9
-3.19856e-05,1.11977e-05,-6.21874e-06,-6.71136e-06,1.64393e-05,-8.25714e-06,1.53757e-05,1.38631e-05,9
-3.21e-05,9.96216e-06,-8.4442e-06,-6.74873e-06,1.51206e-05,-8.81022e-06,1.46196e-05,1.21948e-05,9
-3.39641e-05,8.66366e-06,-9.70027e-06,-7.27959e-06,1.5686e-05,-8.81434e-06,1.30991e-05,1.27372e-05,9
-3.54192e-05,9.16005e-06,-1.03081e-05,-6.7667e-06,1.77923e-05,-8.93539e-06,1.19641e-05,1.6654e-05,9
-3.41022e-05,1.01164e-05,-1.19353e-05,-5.47776e-06,1.79667e-05,-1.0215e-05,1.10883e-05,1.98694e-05,9
-3.13519e-05,9.25586e-06,-1.45899e-05,-4.28854e-06,1.57587e-05,-1.10234e-05,9.66712e-06,2.03763e-05,9
-3.08403e-05,7.6414e-06,-1.5923e-05,-4.30572e-06,1.38551e-05,-1.02181e-05,7.71316e-06,1.90314e-05,9
-3.16645e-05,7.08546e-06,-1.44751e-05,-4.17051e-06,1.3336e-05,-9.90096e-06,7.06149e-06,1.88416e-05,9
-3.16797e-05,7.76043e-06,-1.15625e-05,-2.50619e-06,1.36959e-05,-1.07317e-05,1.07893e-05,1.94062e-05,9
-3.1432e-05,7.77284e-06,-8.16262e-06,-1.93775e-06,1.42075e-05,-1.13344e-05,1.54402e-05,1.81306e-05,9
-3.14726e-05,6.99798e-06,-6.8274e-06,-2.79845e-06,1.38403e-05,-1.20282e-05,1.68447e-05,1.61631e-05,9
-3.22668e-05,6.30211e-06,-7.73565e-06,-2.51762e-06,1.26062e-05,-1.29446e-05,1.5319e-05,1.43991e-05,9
-3.26564e-05,5.85932e-06,-9.13794e-06,-1.78174e-06,1.22237e-05,-1.28244e-05,1.27729e-05,1.34854e-05,9
-3.25528e-05,5.34248e-06,-9.44526e-06,-2.21334e-06,1.36011e-05,-1.12463e-05,1.18582e-05,1.17704e-05,9
-3.1834e-05,5.85043e-06,-8.1006e-06,-4.48446e-06,1.47591e-05,-9.66724e-06,1.10796e-05,9.07043e-06,9
-3.06596e-05,7.18189e-06,-6.65314e-06,-8.38029e-06,1.48821e-05,-8.59226e-06,9.34028e-06,4.7486e-06,9
-3.00753e-05,7.71601e-06,-3.91966e-06,-1.12944e-05,1.43222e-05,-8.77983e-06,7.99138e-06,-1.92888e-06,9
-3.01445e-05,7.72333e-06,-3.16629e-07,-1.12908e-05,1.39316e-05,-1.04913e-05,8.6702e-06,-7.52391e-06,9
-3.01011e-05,8.81296e-06,1.09502e-06,-8.66782e-06,1.38145e-05,-1.1971e-05,1.04727e-05,-9.58127e-06,9
-2.91028e-05,1.17455e-05,-6.29986e-07,-5.08871e-06,1.30436e-05,-1.20259e-05,1.19922e-05,-1.0444e-05,9
-2.79594e-05,1.44784e-05,-2.61899e-06,-2.82278e-06,1.15954e-05,-1.1154e-05,1.29919e-05,-1.42091e-05,9
-2.71527e-05,1.49899e-05,-2.70819e-06,-2.61885e-06,1.0723e-05,-1.05456e-05,1.34001e-05,-1.967e-05,9
-2.71135e-05,1.36504e-05,-2.17643e-06,-3.17213e-06,1.1519e-05,-1.00472e-05,1.36865e-05,-2.16294e-05,9
-2.73928e-05,1.33311e-05,-3.18738e-06,-3.00913e-06,1.29875e-05,-9.22703e-06,1.32116e-05,-1.86169e-05,9
-2.78142e-05,1.35373e-05,-5.25595e-06,-4.57561e-07,1.31766e-05,-7.68284e-06,1.1144e-05,-1.49359e-05,9
-2.83192e-05,1.42284e-05,-5.8515e-06,2.50469e-06,1.20832e-05,-7.67633e-06,8.05345e-06,-1.36019e-05,9
-2.86118e-05,1.41078e-05,-5.06608e-06,3.5991e-06,1.0907e-05,-8.9195e-06,5.56335e-06,-1.38015e-05,9
-2.88119e-05,1.15916e-05,-5.09083e-06,2.93408e-06,9.64875e-06,-8.75276e-06,4.63916e-06,-1.30872e-05,9
-2.90689e-05,9.27209e-06,-5.94235e-06,2.47532e-06,8.36496e-06,-7.68383e-06,5.54013e-06,-1.31378e-05,9
-2.90172e-05,9.34575e-06,-6.27195e-06,2.55374e-06,7.51941e-06,-8.33974e-06,7.91935e-06,-1.5887e-05,9
-2.86396e-05,1.16541e-05,-6.59468e-06,1.94056e-06,8.94133e-06,-9.69527e-06,1.09327e-05,-1.93307e-05,9
-2.83239e-05,1.23973e-05,-7.30397e-06,8.51234e-07,1.02594e-05,-9.89981e-06,1.30762e-05,-1.80467e-05,9
-2.82732e-05,1.23765e-05,-8.21395e-06,4.4104e-07,1.06902e-05,-9.64643e-06,1.34639e-05,-1.15797e-05,9
-2.73086e-05,1.27328e-05,-7.70928e-06,-4.07203e-08,1.04301e-05,-9.04262e-06,1.13199e-05,-7.04597e-06,9
-2.59848e-05,1.24777e-05,-7.37409e-06,-1.76005e-06,9.76153e-06,-8.85196e-06,9.36083e-06,-6.86729e-06,9
-2.564e-05,1.33389e-05,-9.09927e-06,-3.14384e-06,1.0814e-05,-8.70755e-06,9.31706e-06,-8.48555e-06,9
-2.54937e-05,1.4051e-05,-1.10337e-05,-5.07177e-06,1.17213e-05,-8.29308e-06,1.05536e-05,-1.04123e-05,9
-2.5004e-05,1.44879e-05,-1.10971e-05,-5.49848e-06,1.24513e-05,-7.73397e-06,1.19179e-05,-1.44301e-05,9
-2.61786e-05,1.46175e-05,-9.91484e-06,-3.43899e-06,1.23874e-05,-8.19009e-06,1.12258e-05,-1.96578e-05,9
-2.86894e-05,1.51299e-05,-8.09371e-06,-2.69302e-06,1.21429e-05,-1.0836e-05,1.09357e-05,-2.50293e-05,9
-2.94373e-05,1.6531e-05,-6.82086e-06,-2.61601e-06,1.23609e-05,-1.25506e-05,1.11632e-05,-2.91209e-05,9
-2.8966e-05,1.80863e-05,-6.74317e-06,-7.80187e-07,1.22548e-05,-1.1194e-05,1.10104e-05,-2.89708e-05,9
-2.86887e-05,1.88522e-05,-7.38005e-06,1.23258e-06,1.11663e-05,-8.26125e-06,1.08819e-05,-2.42557e-05,9
-2.9e-05,1.85982e-05,-8.58784e-06,8.93433e-07,1.00816e-05,-7.42576e-06,1.19357e-05,-1.7759e-05,9
-2.95484e-05,1.81333e-05,-9.05201e-06,-4.73573e-07,9.85966e-06,-9.36092e-06,1.30659e-05,-1.20993e-05,9
-2.98251e-05,1.6326e-05,-8.70568e-06,-1.55013e-06,9.5338e-06,-1.14069e-05,1.32317e-05,-7.18603e-06,9
-2.92616e-05,1.39702e-05,-8.03573e-06,-3.46934e-06,9.2703e-06,-1.24657e-05,1.34056e-05,-3.77397e-06,9
-2.83853e-05,1.27075e-05,-7.76589e-06,-5.73266e-06,9.50029e-06,-1.22828e-05,1.30357e-05,-2.54961e-07,9
-2.83795e-05,1.35433e-05,-7.63776e-06,-5.98404e-06,1.02987e-05,-1.12839e-05,1.15265e-05,6.66928e-06,9
-2.92564e-05,1.46518e-05,-7.79892e-06,-3.73122e-06,1.01279e-05,-9.79618e-06,9.91965e-06,1.70993e-05,9
-2.99433e-05,1.47218e-05,-8.39185e-06,-1.23521e-06,8.85534e-06,-7.7984e-06,1.0035e-05,2.74693e-05,9
-2.95818e-05,1.37932e-05,-8.90017e-06,-9.79548e-07,8.68745e-06,-5.26506e-06,1.05131e-05,3.46838e-05,9
-2.7857e-05,1.27536e-05,-8.62151e-06,-2.78096e-06,9.94665e-06,-3.32849e-06,1.03983e-05,3.63006e-05,9
-2.66521e-05,1.32273e-05,-7.99804e-06,-3.4412e-06,1.03587e-05,-3.15716e-06,8.98633e-06,3.23258e-05,9
-2.63955e-05,1.40153e-05,-6.84347e-06,-2.5399e-06,9.27884e-06,-3.88886e-06,7.24525e-06,2.48823e-05,9
-2.63569e-05,1.34351e-05,-5.37904e-06,-3.11339e-06,8.89165e-06,-4.23203e-06,6.05874e-06,1.54829e-05,9
-2.69452e-05,1.37124e-05,-3.43373e-06,-5.33432e-06,1.11267e-05,-5.35582e-06,5.28287e-06,7.7975e-06,9
-2.79062e-05,1.50646e-05,-2.16642e-06,-8.43998e-06,1.27459e-05,-7.8763e-06,7.05475e-06,5.92887e-06,9
-2.86583e-05,1.47469e-05,-2.19804e-06,-1.17598e-05,1.18388e-05,-1.11335e-05,1.13699e-05,7.74767e-06,9
-2.89662e-05,1.37458e-05,-2.92531e-06,-1.23633e-05,1.14242e-05,-1.25833e-05,1.39783e-05,6.43e-06,9
-2.85847e-05,1.36702e-05,-4.54414e-06,-1.08115e-05,1.19419e-05,-1.20318e-05,1.29847e-05,1.44092e-06,9
-2.68694e-05,1.51002e-05,-5.64109e-06,-8.5418e-06,1.15223e-05,-1.15508e-05,1.02007e-05,-3.48422e-06,9
-2.56733e-05,1.59722e-05,-6.02766e-06,-6.39248e-06,1.228e-05,-1.17105e-05,8.79656e-06,-5.58429e-06,9
-2.60691e-05,1.5334e-05,-5.91717e-06,-5.51087e-06,1.32216e-05,-1.22036e-05,8.99001e-06,-5.32594e-06,9
-2.68003e-05,1.43961e-05,-5.67508e-06,-4.75885e-06,1.27694e-05,-1.26255e-05,1.04826e-05,-3.67589e-06,9
-2.79936e-05,1.34784e-05,-6.09314e-06,-3.53931e-06,1.2332e-05,-1.34707e-05,1.16412e-05,-4.39007e-07,9
-3.00538e-05,1.32764e-05,-7.43323e-06,-3.35891e-06,1.25771e-05,-1.36656e-05,1.20464e-05,6.20712e-06,9
-3.1254e-05,1.41124e-05,-8.14856e-06,-4.17188e-06,1.36919e-05,-1.32477e-05,1.29359e-05,2.09051e-05,9
-3.12102e-05,1.53865e-05,-8.46546e-06,-4.75573e-06,1.39774e-05,-1.27519e-05,1.30479e-05,4.45406e-05,9
-3.11367e-05,1.50783e-05,-8.88981e-06,-4.6786e-06,1.35058e-05,-1.24371e-05,1.31152e-05,6.63328e-05,9
-3.09998e-05,1.30688e-05,-8.98403e-06,-4.46172e-06,1.25478e-05,-1.17603e-05,1.43605e-05,6.86358e-05,9
-3.01372e-05,1.03301e-05,-9.17e-06,-5.52966e-06,1.19121e-05,-1.10203e-05,1.65985e-05,4.5478e-05,9
-2.8928e-05,8.53422e-06,-1.03908e-05,-6.86901e-06,1.15779e-05,-1.091e-05,1.75898e-05,7.25683e-06,9
-2.89885e-05,8.37456e-06,-1.22434e-05,-7.15788e-06,1.158e-05,-1.05184e-05,1.76504e-05,-3.04421e-05,9
-3.06194e-05,8.25098e-06,-1.28327e-05,-5.78627e-06,1.18407e-05,-9.34176e-06,1.7909e-05,-5.30238e-05,9
-3.18237e-05,7.91569e-06,-1.1856e-05,-3.77307e-06,1.29514e-05,-7.90097e-06,1.8581e-05,-5.08111e-05,9
-3.15522e-05,8.02535e-06,-1.01645e-05,-2.5477e-06,1.48194e-05,-7.27362e-06,1.81898e-05,-2.81334e-05,9
-3.09313e-05,8.84471e-06,-8.31959e-06,-2.95716e-06,1.59833e-05,-8.33509e-06,1.65399e-05,-1.40405e-06,9
-3.0816e-05,1.00379e-05,-6.83358e-06,-3.66882e-06,1.6523e-05,-9.51392e-06,1.5664e-05,1.35292e-05,9
-3.07144e-05,1.06715e-05,-6.37799e-06,-2.82057e-06,1.78001e-05,-9.31562e-06,1.58838e-05,1.1753e-05,9
-3.0263e-05,1.09322e-05,-7.07933e-06,-1.77516e-06,1.97444e-05,-9.61861e-06,1.59744e-05,-1.03801e-06,9
-2.94149e-05,1.16678e-05,-7.20749e-06,-9.73326e-07,2.04227e-05,-1.04953e-05,1.67141e-05,-1.52118e-05,9
-2.83612e-05,1.15269e-05,-5.87503e-06,2.95579e-07,1.96489e-05,-1.05766e-05,1.66753e-05,-2.52833e-05,9
-2.76225e-05,1.16195e-05,-4.23316e-06,1.71131e-06,1.81367e-05,-9.6811e-06,1.41873e-05,-3.09185e-05,9
-2.77274e-05,1.28104e-05,-2.36263e-06,1.67995e-06,1.68639e-05,-9.20031e-06,1.15371e-05,-3.05105e-05,9
-2.94148e-05,1.4991e-05,-1.77026e-06,1.11509e-06,1.71123e-05,-7.94188e-06,1.16708e-05,-2.54602e-05,9
-3.14019e-05,1.68501e-05,-3.18628e-06,4.70347e-07,1.76668e-05,-6.29096e-06,1.45327e-05,-1.96802e-05,9
-3.13451e-05,1.57146e-05,-5.49505e-06,-2.05927e-06,1.67151e-05,-5.99663e-06,1.55506e-05,-1.33714e-05,9
-2.99652e-05,1.3588e-05,-6.55705e-06,-4.04747e-06,1.64807e-05,-6.51728e-06,1.45293e-05,-5.54658e-06,9
-3.01381e-05,1.2681e-05,-5.79672e-06,-4.03365e-06,1.74803e-05,-7.2429e-06,1.40941e-05,9.34396e-07,9
-3.17347e-05,1.37729e-05,-4.2389e-06,-3.81923e-06,1.83606e-05,-7.46408e-06,1.35148e-05,4.68192e-06,9
-3.30841e-05,1.55752e-05,-2.2828e-06,-4.7986e-06,1.94732e-05,-8.81825e-06,1.13408e-05,7.97581e-06,9
-3.37914e-05,1.62125e-05,-2.23875e-06,-6.02628e-06,1.99369e-05,-9.54384e-06,1.00656e-05,1.07641e-05,9
-3.3914e-05,1.51032e-05,-4.02768e-06,-7.00035e-06,1.91139e-05,-1.00744e-05,1.06402e-05,1.27289e-05,9
-3.30261e-05,1.32394e-05,-5.41246e-06,-8.04301e-06,1.75103e-05,-1.11685e-05,1.23277e-05,1.20496e-05,9
-3.21294e-05,1.29391e-05,-5.05374e-06,-7.95998e-06,1.50216e-05,-1.07287e-05,1.31881e-05,8.58033e-06,9
-3.22123e-05,1.34023e-05,-4.57599e-06,-6.9584e-06,1.26852e-05,-9.61907e-06,1.35407e-05,4.23285e-06,9
-3.25434e-05,1.28922e-05,-5.59016e-06,-5.49032e-06,1.17242e-05,-9.20848e-06,1.45294e-05,5.62999e-07,9
-3.2584e-05,1.08846e-05,-6.51394e-06,-3.90292e-06,1.21713e-05,-9.12435e-06,1.56172e-05,-2.31172e-06,9
-3.27231e-05,9.15515e-06,-6.39188e-06,-2.87109e-06,1.25234e-05,-8.63722e-06,1.61265e-05,-5.32091e-06,9
-3.29021e-05,8.87427e-06,-6.09302e-06,-3.28268e-06,1.17032e-05,-8.21003e-06,1.52657e-05,-7.34346e-06,9
-3.21273e-05,8.9107e-06,-6.25732e-06,-3.94208e-06,9.73813e-06,-7.9781e-06,1.3952e-05,-6.92049e-06,9
-3.10857e-05,8.97828e-06,-6.73526e-06,-3.60736e-06,8.44054e-06,-7.78726e-06,1.32937e-05,-4.96538e-06,9
-3.10735e-05,9.4943e-06,-7.74877e-06,-4.10748e-06,9.22606e-06,-7.51486e-06,1.46119e-05,-4.57752e-06,9
-3.20252e-05,1.02538e-05,-8.15087e-06,-6.31096e-06,1.08413e-05,-7.90972e-06,1.6139e-05,-6.07193e-06,9
-3.27133e-05,9.95537e-06,-7.77581e-06,-7.48051e-06,1.21909e-05,-8.232e-06,1.64833e-05,-6.31858e-06,9
-3.3095e-05,9.05338e-06,-7.84948e-06,-7.01359e-06,1.23228e-05,-8.42119e-06,1.56786e-05,-4.39504e-06,9
-3.40755e-05,9.455e-06,-7.82005e-06,-6.71941e-06,1.13969e-05,-9.48696e-06,1.45239e-05,-2.88286e-06,9
-3.53598e-05,9.77666e-06,-7.18355e-06,-7.60981e-06,1.07088e-05,-1.03069e-05,1.33455e-05,-2.21799e-06,9
-3.54453e-05,9.25586e-06,-7.42733e-06,-8.49579e-06,1.15309e-05,-1.05478e-05,1.28906e-05,-2.35763e-06,9
-3.50914e-05,9.50999e-06,-7.95116e-06,-7.27303e-06,1.35559e-05,-1.13369e-05,1.31003e-05,-1.16119e-06,9
-3.48013e-05,9.61373e-06,-8.52526e-06,-6.18581e-06,1.48913e-05,-1.27101e-05,1.17194e-05,1.1988e-06,9
-3.417e-05,9.79387e-06,-9.54466e-06,-6.75518e-06,1.36587e-05,-1.19072e-05,9.19542e-06,1.19531e-06,9
-3.33903e-05,1.11162e-05,-8.29612e-06,-7.71943e-06,1.14865e-05,-9.94309e-06,7.47821e-06,7.44073e-07,9
-3.30458e-05,1.28796e-05,-6.70767e-06,-7.58634e-06,1.21655e-05,-1.04533e-05,9.07751e-06,-2.91735e-07,9
-3.21715e-05,1.41779e-05,-6.79875e-06,-7.74711e-06,1.37165e-05,-1.13113e-05,1.17778e-05,-2.48396e-06,9
-3.03354e-05,1.41366e-05,-8.01089e-06,-9.20473e-06,1.39067e-05,-1.16368e-05,1.08e-05,-2.64358e-06,9
-2.99514e-05,1.29026e-05,-9.54575e-06,-9.69479e-06,1.3633e-05,-1.24032e-05,9.47653e-06,-1.40524e-06,9
-3.0894e-05,1.24661e-05,-9.7952e-06,-7.39702e-06,1.32731e-05,-1.26264e-05,1.04806e-05,6.54022e-07,9
-3.20164e-05,1.33166e-05,-9.8255e-06,-3.05271e-06,1.37717e-05,-1.08943e-05,1.13337e-05,2.37599e-06,9
-3.21325e-05,1.4144e-05,-1.04636e-05,-1.92572e-07,1.42097e-05,-9.30028e-06,1.02774e-05,2.28915e-06,9
-3.10883e-05,1.38448e-05,-1.09359e-05,1.03767e-06,1.51173e-05,-8.98702e-06,8.67692e-06,5.40395e-07,9
-3.06905e-05,1.24125e-05,-1.0973e-05,5.41418e-07,1.63207e-05,-9.22559e-06,6.18156e-06,-1.62129e-06,9
-3.24359e-05,1.03732e-05,-1.12437e-05,-1.81398e-06,1.65862e-05,-9.40621e-06,2.79485e-06,-2.79266e-06,9
-3.47718e-05,8.60854e-06,-1.14769e-05,-4.34148e-06,1.67823e-05,-9.95799e-06,3.45545e-07,-3.28886e-06,9
-3.56083e-05,8.56018e-06,-1.1451e-05,-5.41807e-06,1.7063e-05,-1.02101e-05,-5.66503e-07,-3.39378e-06,9
-3.46463e-05,9.52764e-06,-1.08924e-05,-4.7124e-06,1.71137e-05,-9.13083e-06,9.58997e-07,-3.66842e-06,9
-3.26294e-05,1.05386e-05,-9.65127e-06,-4.36369e-06,1.67441e-05,-8.62136e-06,4.59707e-06,-2.49213e-06,9
-3.08126e-05,1.09178e-05,-7.60592e-06,-5.54131e-06,1.66109e-05,-9.5212e-06,8.69548e-06,1.56059e-06,9
-2.93066e-05,1.07642e-05,-5.01439e-06,-6.40028e-06,1.66241e-05,-1.15388e-05,1.10803e-05,5.48361e-06,9
-2.73843e-05,1.03736e-05,-3.03095e-06,-5.37827e-06,1.64476e-05,-1.2584e-05,1.20095e-05,5.72835e-06,9
-2.49556e-05,1.00233e-05,-1.914e-06,-4.80103e-06,1.59406e-05,-1.25693e-05,1.27106e-05,4.73382e-06,9
-2.4007e-05,9.80983e-06,-8.70817e-07,-5.75472e-06,1.5528e-05,-1.16752e-05,1.5251e-05,4.4086e-06,9
-2.5035e-05,9.13065e-06,-5.1871e-07,-6.68491e-06,1.50002e-05,-1.07392e-05,1.92468e-05,4.94299e-06,9
-2.58088e-05,8.30927e-06,-2.01944e-06,-6.32883e-06,1.30147e-05,-9.82939e-06,2.09523e-05,5.58666e-06,9
-2.56727e-05,8.24653e-06,-4.59135e-06,-4.35844e-06,1.06592e-05,-1.05516e-05,1.79187e-05,6.41938e-06,9
-2.52138e-05,9.14749e-06,-7.60749e-06,-5.75459e-08,9.79992e-06,-1.29487e-05,1.29169e-05,7.46458e-06,9
-2.49972e-05,9.44935e-06,-8.41432e-06,4.37527e-06,1.07258e-05,-1.36575e-05,8.75551e-06,5.99107e-06,9
-2.47473e-05,1.0043e-05,-6.02487e-06,7.55745e-06,1.18781e-05,-1.25892e-05,6.04604e-06,1.78421e-06,9
-2.48774e-05,1.03946e-05,-4.00061e-06,1.06576e-05,1.20824e-05,-1.16274e-05,5.21239e-06,-1.41643e-06,9
-2.5229e-05,9.35861e-06,-3.94201e-06,1.09195e-05,1.23328e-05,-1.17009e-05,6.48233e-06,-1.24507e-06,9
-2.54906e-05,9.5625e-06,-3.7202e-06,6.45134e-06,1.35614e-05,-1.16551e-05,9.63366e-06,-6.4753e-07,9
-2.57745e-05,1.11035e-05,-2.72685e-06,-1.03638e-07,1.48765e-05,-1.21237e-05,1.41314e-05,-1.21591e-07,9
-2.56116e-05,1.26937e-05,-2.71682e-06,-6.77806e-06,1.5122e-05,-1.32024e-05,1.79874e-05,2.14909e-06,9
-2.5942e-05,1.35661e-05,-3.11636e-06,-1.26539e-05,1.55168e-05,-1.28974e-05,1.83071e-05,4.9182e-06,9
-2.65168e-05,1.36697e-05,-2.46407e-06,-1.69396e-05,1.59426e-05,-1.15095e-05,1.62461e-05,5.23196e-06,9
-2.71933e-05,1.33913e-05,-2.05186e-06,-1.92646e-05,1.60013e-05,-1.06698e-05,1.36425e-05,4.70582e-06,9
-2.80835e-05,1.35223e-05,-2.32513e-06,-1.93424e-05,1.62447e-05,-1.00449e-05,1.21638e-05,4.55098e-06,9
-2.90912e-05,1.46552e-05,-1.80239e-06,-1.68788e-05,1.60852e-05,-9.86553e-06,1.29716e-05,5.19439e-06,9
-2.90415e-05,1.56995e-05,-1.5815e-06,-1.17773e-05,1.65216e-05,-1.08521e-05,1.57469e-05,6.10018e-06,9
-2.82348e-05,1.62484e-05,-2.39023e-06,-6.26696e-06,1.71297e-05,-1.05645e-05,1.87075e-05,5.39843e-06,9
-2.76425e-05,1.76064e-05,-3.00954e-06,-2.39886e-06,1.65465e-05,-8.43783e-06,2.05282e-05,3.02018e-06,9
-2.79001e-05,1.92072e-05,-3.03384e-06,5.83948e-07,1.5208e-05,-6.58712e-06,2.13101e-05,-4.08744e-07,9
-2.85353e-05,1.89107e-05,-3.06924e-06,4.36162e-06,1.39814e-05,-6.3926e-06,2.04741e-05,-2.33391e-06,9
-2.81378e-05,1.72542e-05,-3.69657e-06,8.95358e-06,1.2943e-05,-7.53061e-06,1.77657e-05,-1.44647e-08,9
-2.74286e-05,1.63853e-05,-4.92176e-06,1.42858e-05,1.14725e-05,-8.95311e-06,1.43729e-05,7.95517e-06,9
-2.77081e-05,1.69593e-05,-6.03175e-06,1.88609e-05,1.03836e-05,-1.00785e-05,1.18685e-05,1.66794e-05,9
-2.91351e-05,1.76752e-05,-6.78906e-06,2.03988e-05,1.10317e-05,-9.84913e-06,1.01964e-05,2.14954e-05,9
-3.04609e-05,1.70126e-05,-6.92187e-06,1.9093e-05,1.26588e-05,-8.37773e-06,8.93894e-06,2.2771e-05,9
-3.17547e-05,1.60711e-05,-6.70095e-06,1.49568e-05,1.29251e-05,-7.20791e-06,9.34045e-06,2.31981e-05,9
-3.22401e-05,1.66378e-05,-7.04789e-06,4.50937e-06,1.25809e-05,-7.84508e-06,1.09113e-05,2.3962e-05,9
-3.1476e-05,1.71107e-05,-7.79594e-06,-1.28638e-05,1.35633e-05,-9.00574e-06,1.31011e-05,2.55578e-05,9
-3.0948e-05,1.60486e-05,-8.17672e-06,-3.34182e-05,1.4415e-05,-8.41716e-06,1.55072e-05,2.63393e-05,9
-3.06691e-05,1.49042e-05,-7.00014e-06,-4.85261e-05,1.43464e-05,-7.80059e-06,1.71117e-05,2.17794e-05,9
-3.04545e-05,1.45146e-05,-4.40283e-06,-4.73461e-05,1.49487e-05,-8.55186e-06,1.75747e-05,7.71165e-06,9
-3.13027e-05,1.38295e-05,-2.77591e-06,-3.19461e-05,1.6462e-05,-9.39272e-06,1.54549e-05,-1.60235e-05,9
-3.13302e-05,1.37052e-05,-3.43277e-06,-1.65e-05,1.64805e-05,-1.02277e-05,1.28459e-05,-3.76221e-05,9
-3.13863e-05,1.17902e-05,-4.8494e-06,-7.88832e-06,1.33502e-05,-9.3459e-06,1.34899e-05,-5.10517e-05,9
-3.20342e-05,9.24369e-06,-5.5978e-06,-4.38998e-06,1.00604e-05,-8.55113e-06,1.72187e-05,-5.78552e-05,9
-3.27216e-05,1.04167e-05,-6.04951e-06,-3.93364e-06,9.03346e-06,-9.79255e-06,1.89865e-05,-5.73037e-05,9
-3.36408e-05,1.23767e-05,-7.95303e-06,-3.14449e-06,9.44337e-06,-1.16823e-05,1.62652e-05,-5.13006e-05,9
-3.32699e-05,1.23549e-05,-9.7263e-06,-3.87736e-06,1.01314e-05,-1.22427e-05,1.28649e-05,-4.10991e-05,9
-3.34527e-05,1.0578e-05,-1.00665e-05,-4.78044e-06,1.06243e-05,-1.04734e-05,1.24591e-05,-2.77623e-05,9
-3.39882e-05,9.58168e-06,-1.00642e-05,-5.75652e-06,1.17317e-05,-8.91136e-06,1.45801e-05,-1.06171e-05,9
-3.34056e-05,1.00443e-05,-1.05398e-05,-8.06637e-06,1.37418e-05,-8.20354e-06,1.56504e-05,6.33119e-06,9
-3.19323e-05,1.12949e-05,-1.03229e-05,-9.80168e-06,1.65578e-05,-7.08806e-06,1.48055e-05,1.53459e-05,9
-3.08587e-05,1.20137e-05,-9.77995e-06,-1.03257e-05,1.87156e-05,-6.51848e-06,1.35977e-05,1.23756e-05,9
-3.10397e-05,1.19173e-05,-9.54931e-06,-9.22283e-06,1.92358e-05,-7.80144e-06,1.31683e-05,1.68434e-06,9
-3.12317e-05,1.21221e-05,-8.48079e-06,-7.62802e-06,1.78445e-05,-9.60916e-06,1.28336e-05,-8.73678e-06,9
-3.11989e-05,1.29529e-05,-6.62742e-06,-5.13744e-06,1.56417e-05,-9.68805e-06,1.22679e-05,-1.53846e-05,9
-3.17927e-05,1.34799e-05,-4.85954e-06,-3.42211e-06,1.48137e-05,-8.35704e-06,1.18742e-05,-1.82357e-05,9
-3.24795e-05,1.34312e-05,-4.04662e-06,-2.69873e-06,1.53394e-05,-8.15971e-06,1.06287e-05,-1.78954e-05,9
-3.18196e-05,1.38903e-05,-2.9298e-06,-1.64852e-06,1.64502e-05,-9.14788e-06,9.38941e-06,-1.37636e-05,9
-3.03874e-05,1.39805e-05,-2.90996e-06,3.64257e-08,1.80665e-05,-1.0266e-05,1.04576e-05,-7.18085e-06,9
-3.03551e-05,1.30245e-05,-4.13271e-06,6.23885e-07,1.95345e-05,-1.0683e-05,1.34908e-05,3.85456e-07,9
-3.15737e-05,1.19246e-05,-5.2286e-06,-2.82913e-08,1.89341e-05,-1.06463e-05,1.55624e-05,7.49792e-06,9
-3.19609e-05,1.16412e-05,-6.61917e-06,-2.07423e-07,1.64825e-05,-9.67982e-06,1.568e-05,1.45386e-05,9
-3.13927e-05,1.11124e-05,-7.64596e-06,1.1898e-06,1.46412e-05,-7.79783e-06,1.59542e-05,1.99477e-05,9
-3.10088e-05,9.95413e-06,-6.42063e-06,2.63045e-06,1.45697e-05,-6.53967e-06,1.71227e-05,2.15511e-05,9
-3.08394e-05,9.39208e-06,-5.06447e-06,3.42094e-06,1.45707e-05,-5.89171e-06,1.71239e-05,2.07524e-05,9
-3.14245e-05,9.51985e-06,-5.17993e-06,4.02363e-06,1.40573e-05,-5.78561e-06,1.57039e-05,2.04535e-05,9
-3.21059e-05,9.01059e-06,-5.36811e-06,5.21719e-06,1.45768e-05,-6.83607e-06,1.5233e-05,2.1242e-05,9
-3.12056e-05,8.66676e-06,-3.73707e-06,7.71087e-06,1.56065e-05,-7.62991e-06,1.58562e-05,2.24704e-05,9
-3.03988e-05,8.77665e-06,-2.3919e-06,7.50837e-06,1.5355e-05,-8.68001e-06,1.60155e-05,2.3733e-05,9
-2.98863e-05,9.32352e-06,-3.9119e-06,5.74322e-06,1.35716e-05,-1.07027e-05,1.50072e-05,2.24825e-05,9
-2.94939e-05,1.0185e-05,-6.49244e-06,5.61682e-06,1.20225e-05,-9.97889e-06,1.32057e-05,1.78402e-05,9
-2.90151e-05,1.13772e-05,-9.09382e-06,5.99487e-06,1.26512e-05,-6.3505e-06,1.15719e-05,1.07506e-05,9
-2.85765e-05,1.2099e-05,-9.7225e-06,5.14049e-06,1.31164e-05,-4.25922e-06,1.05326e-05,4.13878e-06,9
-3.00734e-05,1.13561e-05,-9.07093e-06,2.36045e-06,1.31415e-05,-6.44422e-06,1.08288e-05,-3.11356e-07,9
-3.18085e-05,1.11919e-05,-8.88286e-06,-1.23096e-06,1.28179e-05,-8.83093e-06,1.23662e-05,-3.97659e-06,9
-3.28159e-05,1.15227e-05,-9.69245e-06,-2.51024e-06,1.12556e-05,-8.2217e-06,1.36226e-05,-7.11935e-06,9
-3.28942e-05,1.25218e-05,-9.1769e-06,-9.9677e-07,9.65915e-06,-5.94581e-06,1.36764e-05,-1.05711e-05,9
-3.24469e-05,1.31018e-05,-7.53529e-06,6.30501e-07,8.318e-06,-3.78927e-06,1.28659e-05,-1.34567e-05,9
-3.24821e-05,1.32514e-05,-7.23783e-06,5.33784e-07,8.56081e-06,-1.95603e-06,1.21982e-05,-1.35277e-05,9
-3.21911e-05,1.29758e-05,-8.06299e-06,-1.78292e-06,1.05956e-05,-6.01182e-07,1.07486e-05,-9.47076e-06,9
-3.07876e-05,1.22073e-05,-9.10434e-06,-4.60051e-06,1.1973e-05,-1.04458e-06,7.72689e-06,-1.76894e-07,9
-2.97168e-05,1.16594e-05,-9.66896e-06,-6.12336e-06,1.05378e-05,-3.24889e-06,4.40639e-06,1.18957e-05,9
-3.01925e-05,1.10756e-05,-9.92146e-06,-6.42093e-06,8.58637e-06,-5.43862e-06,4.04992e-06,2.03654e-05,9
-3.13353e-05,1.0808e-05,-9.5529e-06,-5.66901e-06,7.93938e-06,-6.23774e-06,6.72517e-06,2.13238e-05,9
-3.14975e-05,1.10432e-05,-9.06099e-06,-4.70379e-06,7.99866e-06,-6.7504e-06,8.40746e-06,1.66058e-05,9
-2.96457e-05,1.12188e-05,-9.88737e-06,-4.69759e-06,8.27345e-06,-7.96499e-06,7.59199e-06,9.89603e-06,9
-2.71417e-05,1.11232e-05,-1.16147e-05,-4.37781e-06,9.23348e-06,-9.61978e-06,6.63701e-06,4.8899e-06,9
-2.4667e-05,1.22454e-05,-1.09946e-05,-3.11622e-06,9.61478e-06,-1.04531e-05,7.96113e-06,3.99185e-06,9
-2.24358e-05,1.39641e-05,-9.10839e-06,-1.69458e-06,8.99226e-06,-1.01308e-05,1.09423e-05,8.73276e-06,9
-2.08008e-05,1.54111e-05,-8.08521e-06,-1.69356e-06,9.26801e-06,-9.28503e-06,1.38292e-05,1.73697e-05,9
-2.01901e-05,1.5021e-05,-6.87676e-06,-3.61633e-06,9.89089e-06,-9.3284e-06,1.41724e-05,2.56501e-05,9
-2.15471e-05,1.42873e-05,-5.82585e-06,-4.31426e-06,1.01524e-05,-1.04211e-05,1.16784e-05,2.93065e-05,9
-2.32057e-05,1.48604e-05,-4.95281e-06,-3.39854e-06,1.08603e-05,-1.18704e-05,9.22646e-06,2.84008e-05,9
-2.41733e-05,1.48534e-05,-4.35242e-06,-2.28465e-06,1.21431e-05,-1.31496e-05,9.6753e-06,2.68445e-05,9
-2.50152e-05,1.48416e-05,-3.68847e-06,-2.36835e-06,1.26147e-05,-1.36203e-05,1.25471e-05,2.65658e-05,9
-2.51406e-05,1.54091e-05,-1.94828e-06,-3.56162e-06,1.23057e-05,-1.38427e-05,1.45431e-05,2.52014e-05,9
-2.5323e-05,1.53272e-05,-8.93206e-07,-3.75371e-06,1.13361e-05,-1.36068e-05,1.29492e-05,2.15484e-05,9
-2.46266e-05,1.47549e-05,-1.8305e-06,-3.2815e-06,9.98632e-06,-1.15044e-05,9.35877e-06,1.56817e-05,9
-2.3282e-05,1.47908e-05,-3.47902e-06,-2.93483e-06,1.01443e-05,-9.30692e-06,6.83085e-06,7.02622e-06,9
-2.16277e-05,1.56715e-05,-4.4815e-06,-3.28485e-06,1.10764e-05,-9.30904e-06,6.32974e-06,-3.12991e-06,9
-2.09352e-05,1.57742e-05,-5.35681e-06,-4.9737e-06,1.1017e-05,-1.0817e-05,7.27074e-06,-1.36685e-05,9
-2.11806e-05,1.3928e-05,-7.28771e-06,-7.13505e-06,1.00872e-05,-1.17957e-05,8.08813e-06,-2.0809e-05,9
-2.04841e-05,1.26188e-05,-1.05414e-05,-8.319e-06,9.78436e-06,-1.23644e-05,9.36409e-06,-2.59304e-05,9
-1.9631e-05,1.42039e-05,-1.27439e-05,-8.46861e-06,1.02405e-05,-1.40115e-05,1.1803e-05,-2.81009e-05,9
-1.88841e-05,1.67939e-05,-1.28691e-05,-7.86877e-06,8.98342e-06,-1.51355e-05,1.3636e-05,-2.50657e-05,9
-1.9509e-05,1.84553e-05,-1.2707e-05,-7.85355e-06,6.56909e-06,-1.44554e-05,1.33047e-05,-1.89035e-05,9
-2.04083e-05,1.8675e-05,-1.18037e-05,-9.09967e-06,5.8001e-06,-1.22137e-05,1.16963e-05,-1.39545e-05,9
-2.11297e-05,1.79977e-05,-1.04327e-05,-9.74653e-06,7.68112e-06,-1.04446e-05,1.08755e-05,-1.38249e-05,9
-2.17137e-05,1.77134e-05,-9.9984e-06,-8.79167e-06,9.4039e-06,-1.07564e-05,1.09759e-05,-1.63918e-05,9
-2.28939e-05,1.73401e-05,-1.05701e-05,-7.59388e-06,9.98079e-06,-1.15578e-05,1.23928e-05,-1.96607e-05,9
-2.47611e-05,1.58504e-05,-1.11323e-05,-7.73903e-06,1.08309e-05,-1.15446e-05,1.38848e-05,-2.28843e-05,9
-2.66995e-05,1.36087e-05,-1.20528e-05,-7.86996e-06,1.18468e-05,-1.16608e-05,1.3609e-05,-2.73453e-05,9
-2.8049e-05,1.2041e-05,-1.35514e-05,-6.80197e-06,1.22261e-05,-1.23872e-05,1.2764e-05,-3.0972e-05,9
-2.85149e-05,1.12695e-05,-1.46418e-05,-5.98668e-06,1.20377e-05,-1.26715e-05,1.2795e-05,-3.14398e-05,9
-2.88134e-05,1.15814e-05,-1.4946e-05,-6.29586e-06,1.19058e-05,-1.16228e-05,1.3543e-05,-2.90623e-05,9
-2.94531e-05,1.29248e-05,-1.4384e-05,-6.89261e-06,1.19562e-05,-1.0177e-05,1.34525e-05,-2.5511e-05,9
-3.17125e-05,1.36911e-05,-1.17054e-05,-7.04618e-06,1.32562e-05,-1.01362e-05,1.30025e-05,-2.09997e-05,9
-3.30952e-05,1.30531e-05,-8.07917e-06,-7.11382e-06,1.58916e-05,-1.09213e-05,1.45095e-05,-1.37352e-05,9
-3.20245e-05,1.24364e-05,-5.75839e-06,-7.54225e-06,1.76445e-05,-1.03691e-05,1.54301e-05,-1.69849e-06,9
-3.00162e-05,1.33688e-05,-5.41459e-06,-8.22295e-06,1.65187e-05,-9.8434e-06,1.33277e-05,1.27113e-05,9
-2.90225e-05,1.40724e-05,-6.37933e-06,-8.8227e-06,1.41589e-05,-1.02476e-05,1.15615e-05,2.60598e-05,9
-2.87734e-05,1.43721e-05,-7.88736e-06,-9.50079e-06,1.33375e-05,-9.96068e-06,1.22562e-05,3.59307e-05,9
-2.85171e-05,1.34624e-05,-9.54029e-06,-8.96425e-06,1.38936e-05,-9.98646e-06,1.23214e-05,3.77805e-05,9
-2.94362e-05,1.07966e-05,-9.04558e-06,-6.79782e-06,1.39464e-05,-1.0007e-05,1.04918e-05,3.2824e-05,9
-3.08174e-05,1.00631e-05,-8.57077e-06,-5.84772e-06,1.34307e-05,-8.13161e-06,9.8237e-06,2.56604e-05,9
-3.10923e-05,1.01e-05,-8.01647e-06,-6.88122e-06,1.33165e-05,-4.66903e-06,8.30817e-06,1.7703e-05,9
-3.15782e-05,1.01702e-05,-7.70979e-06,-7.51585e-06,1.42676e-05,-2.02493e-06,6.88788e-06,8.46728e-06,9
-3.25183e-05,1.02548e-05,-8.75149e-06,-7.52114e-06,1.46622e-05,-2.66393e-06,6.5349e-06,-3.85163e-07,9
-3.27202e-05,1.10418e-05,-8.95176e-06,-8.1866e-06,1.42479e-05,-5.83642e-06,7.3472e-06,-5.49718e-06,9
-3.29283e-05,1.15704e-05,-7.84008e-06,-9.75601e-06,1.39198e-05,-8.01148e-06,9.15018e-06,-6.83549e-06,9
-3.31725e-05,1.17062e-05,-6.68017e-06,-1.08245e-05,1.40982e-05,-8.26591e-06,1.09969e-05,-7.24187e-06,9
-3.30544e-05,1.26801e-05,-6.43142e-06,-1.00099e-05,1.56045e-05,-8.50239e-06,1.32971e-05,-8.26292e-06,9
-3.28979e-05,1.33825e-05,-5.67204e-06,-8.73399e-06,1.72779e-05,-8.48458e-06,1.49827e-05,-8.43394e-06,9
-3.30489e-05,1.32652e-05,-4.92569e-06,-8.29746e-06,1.78174e-05,-7.91321e-06,1.55001e-05,-6.78943e-06,9
-3.30241e-05,1.24939e-05,-4.23057e-06,-8.88959e-06,1.71905e-05,-7.56056e-06,1.36727e-05,-4.86226e-06,9
-3.20761e-05,1.24384e-05,-3.8787e-06,-9.55351e-06,1.65708e-05,-7.41373e-06,1.03524e-05,-3.19296e-06,9
-3.06049e-05,1.27739e-05,-3.7285e-06,-9.33564e-06,1.61326e-05,-7.4162e-06,8.71411e-06,-1.86844e-06,9
-2.96152e-05,1.32861e-05,-3.59711e-06,-8.57808e-06,1.52625e-05,-7.85414e-06,1.07431e-05,-1.05738e-06,9
-2.93759e-05,1.32373e-05,-4.08017e-06,-7.31747e-06,1.461e-05,-7.92537e-06,1.37733e-05,-1.02086e-07,9
-2.90985e-05,1.31422e-05,-5.14419e-06,-5.60608e-06,1.53437e-05,-7.18419e-06,1.54732e-05,2.1326e-06,9
-2.81996e-05,1.25771e-05,-5.60001e-06,-5.03891e-06,1.6817e-05,-7.18443e-06,1.56093e-05,4.13563e-06,9
-2.74564e-05,1.19695e-05,-5.30225e-06,-6.46037e-06,1.7758e-05,-8.5494e-06,1.56453e-05,5.05575e-06,9
-2.78824e-05,1.16345e-05,-5.63836e-06,-7.00318e-06,1.74863e-05,-1.02431e-05,1.58842e-05,4.53845e-06,9
-2.90354e-05,1.03731e-05,-6.42466e-06,-6.37319e-06,1.59257e-05,-1.07526e-05,1.6663e-05,2.272e-06,9
-2.98104e-05,8.2502e-06,-7.05518e-06,-7.34365e-06,1.47442e-05,-9.76521e-06,1.82835e-05,-2.73228e-07,9
-3.05729e-05,8.13122e-06,-7.21274e-06,-9.23081e-06,1.56667e-05,-8.87313e-06,1.96233e-05,-1.39486e-06,9
-3.20039e-05,9.09027e-06,-5.88524e-06,-9.6886e-06,1.77786e-05,-8.61391e-06,1.98846e-05,-2.82676e-07,9
-3.32984e-05,9.18858e-06,-4.22087e-06,-9.47423e-06,1.87004e-05,-8.66673e-06,1.88496e-05,1.11625e-06,9
-3.43035e-05,9.81587e-06,-4.17516e-06,-9.49977e-06,1.85795e-05,-8.91284e-06,1.72316e-05,2.59091e-06,9
-3.46278e-05,1.01019e-05,-4.4775e-06,-8.27331e-06,1.84049e-05,-9.6743e-06,1.45232e-05,5.82532e-06,9
-3.38964e-05,9.41124e-06,-4.30898e-06,-8.05134e-06,1.72134e-05,-1.06795e-05,1.16835e-05,8.72182e-06,9
-3.29433e-05,8.65917e-06,-4.01109e-06,-8.59883e-06,1.69574e-05,-1.03723e-05,9.9102e-06,9.74949e-06,9
-3.22037e-05,9.4887e-06,-4.63925e-06,-7.79198e-06,1.85172e-05,-1.06476e-05,8.17658e-06,1.13325e-05,9
-3.22643e-05,1.11491e-05,-5.71122e-06,-6.17393e-06,2.0169e-05,-1.11373e-05,6.97211e-06,1.47629e-05,9
-3.24376e-05,1.09893e-05,-6.30312e-06,-5.18456e-06,1.98736e-05,-1.01484e-05,5.61531e-06,1.74364e-05,9
-3.29697e-05,8.83989e-06,-5.86295e-06,-5.2894e-06,1.73169e-05,-8.99023e-06,6.16326e-06,1.59146e-05,9
-3.43538e-05,6.85375e-06,-5.00939e-06,-4.56153e-06,1.60299e-05,-8.61149e-06,8.00374e-06,1.2103e-05,9
-3.47406e-05,5.90844e-06,-5.33763e-06,-4.19275e-06,1.67047e-05,-9.22739e-06,8.05019e-06,9.42945e-06,9
-3.41235e-05,7.1759e-06,-6.60313e-06,-3.77325e-06,1.73148e-05,-9.99553e-06,7.48504e-06,6.97878e-06,9
-3.38993e-05,1.05672e-05,-7.79111e-06,-2.35415e-06,1.67832e-05,-1.06712e-05,7.17792e-06,4.1913e-06,9
-3.40751e-05,1.26704e-05,-8.77757e-06,-1.04201e-06,1.64343e-05,-1.02942e-05,7.18061e-06,2.25305e-06,9
-3.38625e-05,1.21134e-05,-8.38213e-06,-4.50777e-07,1.70422e-05,-9.35992e-06,7.57955e-06,1.92828e-06,9
-3.31112e-05,1.048e-05,-6.51441e-06,2.75516e-07,1.76771e-05,-9.72407e-06,9.5281e-06,5.1431e-06,9
-3.22423e-05,8.77444e-06,-5.46187e-06,1.05744e-06,1.77393e-05,-1.11232e-05,1.20109e-05,1.41137e-05,9
-3.16604e-05,8.36052e-06,-6.17378e-06,7.84248e-07,1.76781e-05,-1.11882e-05,1.36358e-05,2.95163e-05,9
-3.08064e-05,1.00544e-05,-7.93823e-06,-1.9084e-07,1.75838e-05,-9.18886e-06,1.35161e-05,4.70874e-05,9
-2.96302e-05,1.22293e-05,-8.9358e-06,-8.41269e-07,1.70292e-05,-7.82554e-06,1.28793e-05,5.36404e-05,9
-2.94402e-05,1.2375e-05,-8.21782e-06,-8.35382e-07,1.67808e-05,-9.10191e-06,1.2902e-05,3.63214e-05,9
-3.02373e-05,1.18133e-05,-5.50775e-06,-1.41126e-06,1.74399e-05,-1.15409e-05,1.41751e-05,1.48133e-06,9
-3.06124e-05,1.31622e-05,-1.19813e-06,-3.58693e-06,1.83681e-05,-1.15839e-05,1.52631e-05,-3.327e-05,9
-2.99033e-05,1.48006e-05,2.10935e-06,-5.05686e-06,1.87284e-05,-9.9504e-06,1.40969e-05,-5.63841e-05,9
-2.88801e-05,1.59482e-05,2.33537e-06,-3.30827e-06,1.76588e-05,-9.87527e-06,1.26791e-05,-6.02469e-05,9
-2.91035e-05,1.72609e-05,5.6081e-07,-2.00766e-06,1.6078e-05,-1.10471e-05,1.33364e-05,-4.41589e-05,9
-2.99471e-05,1.75653e-05,-1.34867e-06,-2.55479e-06,1.38631e-05,-1.09708e-05,1.51071e-05,-1.96049e-05,9
-3.04208e-05,1.67732e-05,-2.83147e-06,-3.53192e-06,9.96249e-06,-9.07955e-06,1.59986e-05,-3.52569e-06,9
-3.11931e-05,1.69066e-05,-3.85374e-06,-4.09394e-06,7.05773e-06,-7.78497e-06,1.50917e-05,-4.89947e-06,9
-3.12476e-05,1.82063e-05,-5.84558e-06,-3.05759e-06,6.34773e-06,-7.14826e-06,1.38861e-05,-1.80139e-05,9
-3.05594e-05,1.89665e-05,-7.33926e-06,-7.04793e-07,7.30294e-06,-5.85107e-06,1.43477e-05,-3.1592e-05,9
-2.90895e-05,1.82273e-05,-6.4638e-06,2.00789e-06,8.88687e-06,-5.40398e-06,1.64389e-05,-3.81152e-05,9
-2.79875e-05,1.72522e-05,-4.64062e-06,3.68509e-06,1.01365e-05,-5.98931e-06,1.71162e-05,-3.7125e-05,9
-2.85576e-05,1.72653e-05,-3.61929e-06,3.96828e-06,1.07894e-05,-6.79981e-06,1.50348e-05,-3.09662e-05,9
-3.03146e-05,1.63071e-05,-5.30831e-06,2.21483e-06,1.06996e-05,-8.07247e-06,1.35087e-05,-2.23962e-05,9
-3.24849e-05,1.54925e-05,-6.8212e-06,7.83225e-08,1.04497e-05,-7.49106e-06,1.42877e-05,-1.45077e-05,9
-3.43327e-05,1.41316e-05,-7.52562e-06,-8.81683e-07,1.03154e-05,-4.55898e-06,1.48434e-05,-6.59062e-06,9
-3.53249e-05,1.17706e-05,-7.54901e-06,-1.48811e-06,9.40986e-06,-2.28729e-06,1.27757e-05,1.76189e-06,9
-3.5551e-05,1.04983e-05,-6.93221e-06,-1.9237e-06,7.64326e-06,-3.07303e-06,9.65071e-06,1.00976e-05,9
-3.61944e-05,1.02039e-05,-5.65623e-06,-3.17658e-06,6.54472e-06,-5.94732e-06,7.59928e-06,1.69268e-05,9
-3.64974e-05,9.97219e-06,-5.20184e-06,-5.41898e-06,6.37678e-06,-7.94636e-06,7.55052e-06,2.05882e-05,9
-3.63655e-05,8.67971e-06,-6.82342e-06,-8.01058e-06,6.16936e-06,-8.09485e-06,9.35575e-06,2.06149e-05,9
-3.66433e-05,7.41603e-06,-8.92604e-06,-9.80382e-06,5.81003e-06,-7.87505e-06,1.24377e-05,1.96444e-05,9
-3.69981e-05,7.18952e-06,-1.03961e-05,-1.0184e-05,5.83285e-06,-8.39304e-06,1.4124e-05,1.97615e-05,9
-3.63028e-05,7.90668e-06,-1.01895e-05,-9.73856e-06,6.24796e-06,-9.6064e-06,1.45645e-05,1.95088e-05,9
-3.60489e-05,8.49266e-06,-9.26146e-06,-8.85881e-06,6.54402e-06,-1.03688e-05,1.52567e-05,1.77071e-05,9
-3.71781e-05,8.79887e-06,-8.03922e-06,-8.28331e-06,6.16486e-06,-1.00349e-05,1.62751e-05,1.43122e-05,9
-3.71059e-05,9.33871e-06,-7.44679e-06,-8.32781e-06,5.70102e-06,-1.01026e-05,1.79003e-05,1.07126e-05,9
-3.4432e-05,1.01803e-05,-6.99952e-06,-7.69271e-06,5.12865e-06,-1.03288e-05,1.93627e-05,7.82821e-06,9
-3.16095e-05,1.04038e-05,-7.66035e-06,-5.26e-06,4.54495e-06,-1.16639e-05,1.95876e-05,6.02811e-06,9
-3.10934e-05,9.91279e-06,-9.22616e-06,-2.66085e-06,4.62134e-06,-1.31473e-05,1.82046e-05,5.72409e-06,9
-3.18076e-05,9.4733e-06,-1.01182e-05,-1.65724e-06,5.45463e-06,-1.25446e-05,1.48515e-05,5.76694e-06,9
-3.27784e-05,1.09965e-05,-9.0684e-06,-1.29868e-06,7.67173e-06,-1.14605e-05,1.12265e-05,5.07153e-06,9
-3.43013e-05,1.17221e-05,-6.06419e-06,-5.50415e-07,8.9242e-06,-1.10282e-05,8.92701e-06,4.22866e-06,9
-3.53928e-05,1.08706e-05,-2.89644e-06,2.77395e-07,7.83386e-06,-1.05189e-05,8.41554e-06,4.0225e-06,9
-3.57071e-05,1.16254e-05,-4.77054e-08,2.48256e-07,7.76307e-06,-9.77312e-06,8.95057e-06,4.05335e-06,9
-3.53942e-05,1.18488e-05,-2.263e-08,3.65191e-07,7.99225e-06,-1.06221e-05,9.1169e-06,3.45442e-06,9
-3.62887e-05,1.0786e-05,-3.62838e-06,-6.63373e-07,7.80552e-06,-1.2366e-05,9.5619e-06,4.21199e-06,9
-3.90879e-05,9.51614e-06,-5.97946e-06,-2.67419e-06,8.92666e-06,-1.16734e-05,1.07664e-05,4.31801e-06,9
-3.96102e-05,9.50196e-06,-6.9089e-06,-2.70443e-06,1.04947e-05,-9.77088e-06,1.35363e-05,3.63822e-06,9
-3.8219e-05,9.84481e-06,-6.63574e-06,-2.13029e-06,1.21113e-05,-8.58856e-06,1.47536e-05,2.98679e-06,9
-3.66493e-05,9.65345e-06,-6.38546e-06,-1.78048e-06,1.39418e-05,-8.04419e-06,1.27743e-05,2.4806e-06,9
-3.54957e-05,1.01983e-05,-7.25834e-06,-1.48423e-06,1.46907e-05,-7.593e-06,1.08869e-05,3.40231e-06,9
-3.517e-05,1.08908e-05,-8.29049e-06,-2.45631e-06,1.52089e-05,-6.17488e-06,1.11928e-05,4.3581e-06,9
-3.55119e-05,1.20973e-05,-9.4539e-06,-6.50497e-06,1.63409e-05,-5.51384e-06,1.16983e-05,5.19111e-06,9
-3.56267e-05,1.33984e-05,-9.42004e-06,-1.03629e-05,1.62257e-05,-6.7683e-06,1.07815e-05,5.36381e-06,9
-3.39772e-05,1.45709e-05,-8.54159e-06,-1.13407e-05,1.54734e-05,-8.08539e-06,8.74774e-06,5.20355e-06,9
-3.21341e-05,1.59119e-05,-6.9834e-06,-1.03087e-05,1.53018e-05,-7.90474e-06,7.91174e-06,6.71581e-06,9
-3.18751e-05,1.62343e-05,-6.39663e-06,-9.12383e-06,1.5995e-05,-7.34676e-06,9.33593e-06,1.02707e-05,9
-3.354e-05,1.4566e-05,-7.03109e-06,-7.47979e-06,1.57548e-05,-7.58313e-06,1.09867e-05,1.37818e-05,9
-3.51512e-05,1.22065e-05,-8.13243e-06,-4.27827e-06,1.48419e-05,-9.07626e-06,1.22508e-05,1.59915e-05,9
-3.52769e-05,1.22585e-05,-8.20306e-06,-1.25443e-06,1.49361e-05,-1.0208e-05,1.37507e-05,1.66162e-05,9
-3.45627e-05,1.46069e-05,-7.21475e-06,-3.71454e-07,1.58576e-05,-9.84846e-06,1.54249e-05,1.69271e-05,9
-3.34401e-05,1.65621e-05,-5.60449e-06,-1.92999e-06,1.65615e-05,-9.87305e-06,1.6082e-05,1.6155e-05,9
-3.17136e-05,1.65812e-05,-3.68133e-06,-3.87909e-06,1.64646e-05,-1.08237e-05,1.64134e-05,1.28004e-05,9
-2.90274e-05,1.62738e-05,-2.3791e-06,-5.31774e-06,1.66187e-05,-1.14246e-05,1.6442e-05,6.9363e-06,9
-2.66261e-05,1.63786e-05,-2.026e-06,-6.63954e-06,1.72982e-05,-1.12204e-05,1.58206e-05,-1.58346e-06,9
-2.59158e-05,1.67996e-05,-2.60446e-06,-8.52663e-06,1.79321e-05,-1.0226e-05,1.35668e-05,-1.30493e-05,9
-2.61736e-05,1.73567e-05,-3.86144e-06,-9.05619e-06,1.84735e-05,-8.52142e-06,1.05394e-05,-2.56375e-05,9
-2.65882e-05,1.7894e-05,-4.60426e-06,-7.60807e-06,1.83461e-05,-8.24848e-06,8.9861e-06,-3.64987e-05,9
-2.73158e-05,1.81174e-05,-5.41744e-06,-6.0197e-06,1.72439e-05,-9.44502e-06,8.84564e-06,-4.27454e-05,9
-2.84332e-05,1.73921e-05,-5.94158e-06,-6.64835e-06,1.613e-05,-9.66757e-06,9.23159e-06,-4.35978e-05,9
-2.82103e-05,1.69311e-05,-5.13281e-06,-7.07155e-06,1.4844e-05,-1.03072e-05,9.50851e-06,-3.76344e-05,9
-2.6568e-05,1.72328e-05,-3.25072e-06,-5.8091e-06,1.53648e-05,-1.26289e-05,1.0401e-05,-2.55821e-05,9
-2.48496e-05,1.78279e-05,-2.10439e-06,-3.7671e-06,1.60327e-05,-1.4093e-05,1.10597e-05,-1.47833e-05,9
-2.37562e-05,1.82589e-05,-3.26481e-06,-2.18384e-06,1.65794e-05,-1.45486e-05,1.06902e-05,-8.26854e-06,9
-2.43847e-05,1.75914e-05,-6.03285e-06,-2.2833e-06,1.69076e-05,-1.44971e-05,1.04215e-05,-6.31272e-06,9
-2.59841e-05,1.56325e-05,-9.68543e-06,-1.6646e-06,1.5993e-05,-1.27357e-05,8.97005e-06,-5.83322e-06,9
-2.69315e-05,1.40681e-05,-1.13948e-05,-1.39369e-06,1.67664e-05,-1.05566e-05,7.70961e-06,-4.68016e-06,9
-2.63822e-05,1.36727e-05,-1.14668e-05,-2.56297e-06,1.67505e-05,-1.06858e-05,8.74496e-06,-5.48175e-06,9
-2.6556e-05,1.39648e-05,-1.10124e-05,-4.91067e-06,1.53148e-05,-1.23919e-05,1.00125e-05,-9.01385e-06,9
-2.85626e-05,1.43095e-05,-1.11007e-05,-6.28754e-06,1.42133e-05,-1.34942e-05,1.09897e-05,-1.34269e-05,9
-2.96592e-05,1.37219e-05,-1.02271e-05,-5.83505e-06,1.42637e-05,-1.31447e-05,1.12388e-05,-1.65264e-05,9
-2.87015e-05,1.31721e-05,-7.38207e-06,-5.3592e-06,1.3987e-05,-1.21775e-05,1.08389e-05,-1.69983e-05,9
-2.73314e-05,1.39348e-05,-4.86792e-06,-6.44879e-06,1.24546e-05,-1.18872e-05,1.04813e-05,-1.44266e-05,9
-2.64059e-05,1.48577e-05,-4.22311e-06,-7.70614e-06,1.15489e-05,-1.28812e-05,1.1134e-05,-1.11415e-05,9
-2.62183e-05,1.43924e-05,-4.67691e-06,-7.34288e-06,1.17775e-05,-1.31687e-05,1.17829e-05,-7.47567e-06,9
-2.71136e-05,1.3587e-05,-5.02675e-06,-6.60135e-06,1.16932e-05,-1.16797e-05,1.15866e-05,-1.58267e-06,9
-2.89256e-05,1.26105e-05,-5.6533e-06,-6.27223e-06,1.03143e-05,-9.94474e-06,1.22503e-05,4.90238e-06,9
