ch1,ch2,ch3,ch4,ch5,ch6,ch7,ch8,class
1.42047e-05,2.81929e-05,-1.5802e-05,-1.20808e-05,8.8711e-06,-1.69517e-05,2.39527e-05,-6.47355e-06,1
2.07676e-05,3.66643e-05,-1.29869e-05,-4.14188e-06,1.19466e-05,-1.79989e-05,1.16049e-05,-5.93905e-06,1
1.6307e-05,4.00337e-05,-1.19708e-05,-4.1937e-06,7.56925e-06,-1.8381e-05,4.12337e-06,-3.04859e-06,1
5.35161e-06,3.34825e-05,-1.09252e-05,-1.22904e-05,-6.68836e-06,-1.83603e-05,-1.10791e-06,1.65439e-07,1
-8.25403e-06,2.07421e-05,-8.90311e-06,-1.85975e-05,-2.44039e-05,-2.25352e-05,-3.36648e-06,1.71618e-06,1
-1.89084e-05,9.91789e-06,-7.33278e-06,-2.28869e-05,-3.91075e-05,-3.50243e-05,-2.62566e-06,3.06413e-06,1
-2.66895e-05,4.69575e-06,-6.587e-06,-2.55423e-05,-4.1978e-05,-5.00429e-05,-6.26053e-07,4.71269e-06,1
-3.34757e-05,3.35317e-06,-5.16409e-06,-2.62416e-05,-3.03136e-05,-5.50699e-05,1.62058e-06,5.69611e-06,1
-3.85707e-05,2.20588e-06,-4.57583e-06,-2.48459e-05,-2.7185e-05,-4.15607e-05,2.85195e-06,5.412e-06,1
-3.87259e-05,-7.67079e-07,-5.57482e-06,-2.24863e-05,-4.58922e-05,-2.09233e-05,3.46695e-06,5.12919e-06,1
-3.40725e-05,-5.89275e-06,-6.47568e-06,-2.18193e-05,-6.66662e-05,-1.22538e-05,4.12017e-06,5.34096e-06,1
-3.03637e-05,-9.53342e-06,-7.34589e-06,-2.03163e-05,-6.08763e-05,-1.43491e-05,6.35643e-06,5.76702e-06,1
-2.99989e-05,-9.65075e-06,-8.69483e-06,-1.7861e-05,-2.2942e-05,-1.27169e-05,8.62188e-06,6.02253e-06,1
-3.26053e-05,-9.00968e-06,-1.04268e-05,-1.73446e-05,1.92235e-05,-2.72677e-06,7.91493e-06,6.48409e-06,1
-3.38919e-05,-1.08966e-05,-1.09901e-05,-2.13329e-05,3.1562e-05,6.16175e-06,5.21602e-06,6.77234e-06,1
-3.07038e-05,-1.63516e-05,-1.05418e-05,-2.72744e-05,1.65677e-05,7.97282e-06,3.43393e-06,5.8907e-06,1
-2.37893e-05,-2.27554e-05,-8.9822e-06,-2.82721e-05,4.79141e-06,5.69179e-06,3.66191e-06,5.22194e-06,1
-1.81722e-05,-2.59577e-05,-6.13441e-06,-2.08208e-05,1.228e-05,4.66375e-06,5.29133e-06,5.29406e-06,1
-1.9434e-05,-2.67141e-05,-2.15785e-06,-1.26935e-05,3.22749e-05,2.54665e-06,7.77127e-06,4.50093e-06,1
-2.75952e-05,-2.51998e-05,-1.19067e-06,-1.20366e-05,5.30591e-05,-3.45142e-06,1.0188e-05,2.43125e-06,1
-3.29075e-05,-1.16662e-05,-5.19609e-06,-1.73241e-05,6.49213e-05,-7.3378e-06,1.12729e-05,1.34697e-06,1
-2.74708e-05,1.74881e-05,-9.60261e-06,-2.38775e-05,6.06059e-05,-4.68459e-06,1.08908e-05,1.13029e-06,1
-1.16505e-05,4.10451e-05,-1.07915e-05,-2.54471e-05,4.12983e-05,3.61801e-06,1.08925e-05,8.88684e-07,1
6.75463e-06,3.83982e-05,-8.91184e-06,-2.28041e-05,8.20066e-06,9.45905e-06,1.05773e-05,8.19996e-07,1
1.69901e-05,2.41419e-05,-5.45703e-06,-2.07481e-05,-2.04303e-05,7.28776e-06,9.97256e-06,1.15129e-06,1
1.78169e-05,1.8788e-05,-1.41522e-06,-1.95888e-05,-2.35345e-05,5.03658e-06,9.57777e-06,1.05933e-06,1
1.11409e-05,2.21305e-05,1.55909e-06,-1.83473e-05,-1.6089e-05,7.67791e-06,8.50151e-06,9.63315e-07,1
-1.06217e-05,2.41384e-05,2.22844e-06,-1.393e-05,-1.82408e-05,8.45018e-06,5.14653e-06,1.04354e-06,1
-3.99898e-05,2.06492e-05,-7.96043e-07,-7.36678e-06,-2.47528e-05,2.88068e-06,1.46127e-06,1.34146e-06,1
-5.56214e-05,1.3484e-05,-7.25084e-06,-6.89544e-07,-2.64082e-05,-1.59086e-06,1.46366e-07,2.28979e-06,1
-5.41987e-05,6.44569e-06,-1.28094e-05,4.38423e-06,-1.54099e-05,-4.04737e-06,1.89463e-06,3.22215e-06,1
-4.47314e-05,3.59012e-06,-1.4958e-05,7.64724e-06,5.66524e-06,-8.58982e-06,5.01596e-06,4.85887e-06,1
-3.48457e-05,4.69637e-06,-1.48681e-05,1.01203e-05,1.65122e-05,-1.59998e-05,6.61156e-06,6.25044e-06,1
-2.63686e-05,8.19655e-06,-1.33098e-05,1.04316e-05,5.301e-06,-2.31522e-05,6.61842e-06,5.37342e-06,1
-2.12823e-05,9.78097e-06,-1.13459e-05,9.59958e-06,-1.73751e-05,-2.56955e-05,4.76522e-06,4.5367e-06,1
-2.19351e-05,1.00536e-05,-1.00435e-05,9.10209e-06,-3.66686e-05,-2.53728e-05,3.39904e-06,5.80555e-06,1
-2.95453e-05,1.09211e-05,-9.96127e-06,9.9244e-06,-5.0922e-05,-2.45183e-05,3.53049e-06,7.51865e-06,1
-4.29744e-05,8.98134e-06,-1.02705e-05,9.87118e-06,-5.90716e-05,-2.50967e-05,4.23268e-06,9.09948e-06,1
-6.2504e-05,5.13649e-07,-9.56723e-06,7.16816e-06,-5.78529e-05,-2.69091e-05,4.35399e-06,1.03131e-05,1
-8.83018e-05,-1.01812e-05,-8.84562e-06,3.25546e-06,-4.4637e-05,-3.02158e-05,3.27079e-06,1.19608e-05,1
-0.000112458,-1.54932e-05,-9.27022e-06,1.10065e-06,-1.44862e-05,-3.30193e-05,1.83858e-06,1.42024e-05,1
-0.000121088,-1.56029e-05,-1.07393e-05,1.64922e-06,4.00645e-05,-3.25845e-05,8.58631e-08,1.54229e-05,1
-0.000110593,-1.55028e-05,-1.18338e-05,4.97161e-06,0.000109396,-2.74822e-05,-2.02294e-06,1.54097e-05,1
-9.06265e-05,-1.53283e-05,-1.13738e-05,9.9392e-06,0.000155927,-2.07219e-05,-3.88842e-06,1.47211e-05,1
-6.89639e-05,-9.48961e-06,-9.43518e-06,1.3687e-05,0.000152562,-1.55894e-05,-4.96136e-06,1.2931e-05,1
-4.49308e-05,4.46982e-06,-6.11955e-06,1.47009e-05,0.000115099,-1.20314e-05,-5.06021e-06,1.12209e-05,1
-1.6731e-05,1.92854e-05,-3.20201e-06,1.11902e-05,7.36225e-05,-8.8707e-06,-5.04905e-06,1.09972e-05,1
9.83391e-06,2.40851e-05,-2.09226e-06,2.79941e-06,4.6736e-05,-5.91288e-06,-6.9222e-06,1.11077e-05,1
2.53569e-05,2.36735e-05,-3.02534e-06,-6.59323e-06,4.58693e-05,-3.98057e-06,-1.57942e-05,9.64168e-06,1
2.11028e-05,2.6307e-05,-4.71845e-06,-1.69009e-05,5.80246e-05,-2.93707e-06,-4.88871e-05,6.94862e-06,1
-1.81329e-06,2.70654e-05,-5.59038e-06,-2.87741e-05,6.52442e-05,-4.19493e-06,-0.000124848,5.56315e-06,1
-2.29321e-05,2.34176e-05,-5.34924e-06,-3.83437e-05,7.55903e-05,-4.79564e-06,-0.000208163,5.22344e-06,1
-2.40591e-05,1.95081e-05,-4.27162e-06,-4.31472e-05,9.19389e-05,-9.14966e-07,-0.000222386,4.09161e-06,1
-1.47704e-05,1.68628e-05,-3.20799e-06,-4.23799e-05,9.34326e-05,-5.17033e-07,-0.000143227,2.09865e-06,1
-1.40018e-05,1.28364e-05,-3.55299e-06,-4.16785e-05,6.73048e-05,-9.64684e-06,-1.90767e-05,9.53469e-07,1
-2.20253e-05,6.74544e-06,-5.25272e-06,-4.25472e-05,2.35563e-05,-2.11671e-05,8.66109e-05,1.91751e-06,1
-2.81639e-05,4.07516e-06,-6.40953e-06,-4.04935e-05,-2.15651e-05,-2.47891e-05,0.000142279,3.57457e-06,1
-3.07543e-05,6.1684e-06,-6.5546e-06,-3.53583e-05,-5.43078e-05,-1.6451e-05,0.000148819,3.43036e-06,1
-3.25396e-05,1.06258e-05,-5.5645e-06,-2.73753e-05,-7.05139e-05,-5.83226e-06,0.000130652,1.73096e-06,1
-3.567e-05,1.36788e-05,-4.7558e-06,-1.94851e-05,-7.77739e-05,-5.60125e-06,0.000109541,-1.01321e-06,1
-4.17779e-05,1.27756e-05,-4.24494e-06,-1.43909e-05,-8.53807e-05,-1.42309e-05,9.43343e-05,-3.46315e-06,1
-4.87015e-05,1.00297e-05,-4.81322e-06,-1.58717e-05,-9.4449e-05,-1.82887e-05,8.484e-05,-4.73909e-06,1
-5.07221e-05,8.24038e-06,-6.49088e-06,-2.44897e-05,-9.75134e-05,-1.17845e-05,7.74221e-05,-5.59148e-06,1
-4.79143e-05,9.05248e-06,-7.99252e-06,-3.02674e-05,-8.85379e-05,-2.79905e-06,6.97341e-05,-5.20686e-06,1
-4.58399e-05,1.16059e-05,-9.63203e-06,-2.14959e-05,-5.99964e-05,-2.26955e-06,6.08782e-05,-4.07749e-06,1
-4.63661e-05,1.46844e-05,-9.86807e-06,3.18103e-06,-1.81813e-06,-1.00485e-05,5.30772e-05,-3.44988e-06,1
-4.71111e-05,1.73568e-05,-8.2288e-06,3.02059e-05,6.78792e-05,-1.7223e-05,4.59407e-05,-3.03473e-06,1
-4.66222e-05,1.9296e-05,-5.72079e-06,4.57299e-05,0.000101163,-1.70592e-05,3.96941e-05,-4.71867e-06,1
-4.52072e-05,2.12998e-05,-3.59249e-06,5.00835e-05,8.08359e-05,-1.09191e-05,3.31927e-05,-1.26667e-05,1
-4.25384e-05,2.34437e-05,-1.62325e-06,5.43526e-05,4.90844e-05,-3.45811e-06,2.69028e-05,-2.36294e-05,1
-3.98535e-05,2.30487e-05,2.9661e-07,6.1722e-05,5.34046e-05,1.76793e-06,2.0902e-05,-2.94001e-05,1
-3.85131e-05,1.80571e-05,1.51799e-06,6.32215e-05,8.76981e-05,3.44373e-06,1.60296e-05,-2.75744e-05,1
-3.77777e-05,1.03555e-05,-2.76124e-07,4.87929e-05,0.000105707,1.36795e-06,1.12478e-05,-2.09708e-05,1
-3.51184e-05,2.89914e-06,-6.25518e-06,2.11092e-05,7.64468e-05,-4.39294e-06,6.86891e-06,-1.25447e-05,1
-3.09455e-05,-3.02297e-06,-1.38704e-05,-5.63824e-06,2.22542e-05,-9.23584e-06,4.6048e-06,-3.27175e-06,1
-2.81021e-05,-7.22455e-07,-1.90077e-05,-2.30903e-05,-4.98262e-06,-9.99941e-06,5.93481e-06,7.78734e-06,1
-2.78093e-05,1.1508e-05,-1.97702e-05,-3.53693e-05,1.14752e-05,-9.62198e-06,1.02553e-05,1.91004e-05,1
-2.85256e-05,2.12947e-05,-1.71665e-05,-4.80926e-05,3.85527e-05,-1.06231e-05,1.27094e-05,2.5236e-05,1
-3.64156e-05,2.06109e-05,-1.40972e-05,-5.51156e-05,4.45224e-05,-9.05579e-06,1.29483e-05,2.2025e-05,1
-6.25492e-05,1.34491e-05,-1.21566e-05,-5.35151e-05,3.45977e-05,-3.7916e-06,1.22176e-05,1.36084e-05,1
-8.88355e-05,1.08417e-05,-1.17262e-05,-5.47922e-05,3.19089e-05,-1.77891e-06,9.61439e-06,8.77976e-06,1
-9.28402e-05,1.04719e-05,-1.13069e-05,-5.39411e-05,4.55529e-05,-3.50847e-06,6.57711e-06,8.15145e-06,1
-7.87829e-05,2.34634e-06,-8.24387e-06,-3.7714e-05,5.22612e-05,-4.57435e-06,6.73205e-06,8.14514e-06,1
-5.30048e-05,-7.41797e-06,-6.54217e-06,-1.05277e-05,2.71475e-05,-5.2004e-06,9.65512e-06,6.86615e-06,1
-2.50472e-05,-1.09154e-05,-7.20484e-06,1.28092e-05,-1.79175e-05,-8.06056e-06,1.45856e-05,3.315e-06,1
-2.8893e-06,-8.58472e-06,-8.35509e-06,2.18761e-05,-5.95779e-05,-1.16668e-05,1.9786e-05,-2.33159e-07,1
8.2983e-06,-6.53088e-06,-9.48582e-06,2.31444e-05,-8.58085e-05,-9.31899e-06,2.29645e-05,-2.36304e-06,1
1.16901e-05,-5.38155e-06,-9.93044e-06,2.4417e-05,-8.33941e-05,-2.32145e-06,2.39818e-05,-3.73583e-06,1
1.62919e-05,-9.55683e-07,-8.79543e-06,2.60965e-05,-4.40282e-05,5.69297e-06,2.32456e-05,-4.87211e-06,1
2.27717e-05,1.00194e-05,-6.61354e-06,2.43203e-05,1.36838e-05,7.90114e-06,2.10787e-05,-3.99867e-06,1
2.38542e-05,2.89524e-05,-4.5693e-06,2.03962e-05,6.28758e-05,2.14361e-07,1.93488e-05,-1.00423e-06,1
1.20533e-05,5.42767e-05,-2.96063e-06,1.83122e-05,9.18364e-05,-1.35855e-05,1.96905e-05,9.01841e-07,1
-5.78762e-06,7.80288e-05,-2.44951e-06,1.88325e-05,9.32002e-05,-2.47016e-05,1.98714e-05,-3.59501e-08,1
-1.55932e-05,9.05781e-05,-2.75244e-06,1.96612e-05,6.89345e-05,-2.17008e-05,1.85317e-05,-2.16129e-06,1
-1.33493e-05,9.18144e-05,-2.71212e-06,1.88181e-05,3.59656e-05,-7.61946e-06,1.51397e-05,-3.87875e-06,1
-8.99185e-06,8.7667e-05,-1.60976e-06,1.36199e-05,7.802e-06,3.77928e-06,7.48197e-06,-6.16715e-06,1
-1.17941e-05,8.44886e-05,-1.36858e-06,-1.26447e-06,-1.75273e-05,5.40736e-06,-8.02974e-06,-8.40762e-06,1
-2.32023e-05,8.03881e-05,-2.64993e-06,-2.38113e-05,-4.19854e-05,-1.20433e-06,-3.91744e-05,-8.45062e-06,1
-3.59337e-05,6.67912e-05,-4.67734e-06,-4.32514e-05,-5.60718e-05,-1.21911e-05,-9.36272e-05,-5.59273e-06,1
-4.30404e-05,3.9748e-05,-7.15724e-06,-5.12508e-05,-5.56905e-05,-2.1376e-05,-0.000162611,-2.56339e-06,1
-4.20663e-05,4.37577e-06,-9.98034e-06,-5.21119e-05,-5.1389e-05,-2.54297e-05,-0.000207347,-6.54824e-07,1
-3.50312e-05,-3.48545e-05,-1.08372e-05,-5.07146e-05,-5.12133e-05,-2.61083e-05,-0.000192357,7.52372e-07,1
-2.89861e-05,-7.49777e-05,-9.7369e-06,-4.49567e-05,-5.01013e-05,-2.81484e-05,-0.000121841,1.94031e-06,1
-2.67546e-05,-0.000108413,-9.30908e-06,-3.28652e-05,-3.15732e-05,-3.1718e-05,-2.76804e-05,3.06225e-06,1
-2.26722e-05,-0.000124058,-9.93259e-06,-1.81123e-05,1.55022e-05,-3.25198e-05,5.49499e-05,3.24955e-06,1
-1.26655e-05,-0.000118395,-1.19636e-05,-4.86341e-06,6.12285e-05,-2.85866e-05,0.000101744,2.54792e-06,1
-3.82571e-06,-9.06677e-05,-1.44004e-05,7.64212e-06,7.30109e-05,-2.27889e-05,9.45966e-05,1.94237e-06,1
-7.73669e-06,-5.03989e-05,-1.64773e-05,1.87588e-05,6.35083e-05,-2.07354e-05,4.80359e-05,7.2101e-07,1
-1.73218e-05,-1.45044e-05,-1.63196e-05,2.6259e-05,5.89922e-05,-2.10781e-05,1.75148e-05,1.19965e-07,1
-1.87513e-05,5.23281e-06,-1.32809e-05,3.15074e-05,6.53775e-05,-1.88116e-05,3.06219e-05,1.20561e-06,1
-1.56465e-05,1.01127e-05,-1.06494e-05,3.44503e-05,6.60505e-05,-1.46429e-05,6.86884e-05,2.30392e-06,1
-1.86362e-05,1.72217e-05,-1.00897e-05,3.65178e-05,5.82378e-05,-8.00904e-06,0.000105591,9.86917e-07,1
-2.92975e-05,2.8545e-05,-1.04282e-05,3.60331e-05,5.32796e-05,-1.2366e-06,0.000126638,-1.97452e-06,1
-4.54368e-05,3.72652e-05,-9.24626e-06,3.14716e-05,5.48924e-05,6.68276e-06,0.000130075,-3.80848e-06,1
-6.77631e-05,3.89415e-05,-8.09115e-06,2.84325e-05,6.50162e-05,1.93587e-05,0.000119522,-4.03781e-06,1
-8.581e-05,3.63791e-05,-6.83423e-06,2.79976e-05,7.68727e-05,3.07271e-05,0.000102242,-4.25311e-06,1
-8.07494e-05,3.35504e-05,-4.38834e-06,2.40367e-05,6.91283e-05,2.9486e-05,8.4971e-05,-6.68913e-06,1
-4.50936e-05,2.79077e-05,-5.31574e-06,1.15679e-05,3.34096e-05,1.18768e-05,6.98401e-05,-8.96414e-06,1
1.92373e-06,1.89441e-05,-1.09284e-05,-9.20749e-06,-1.5435e-05,-1.17019e-05,4.41455e-05,-9.05825e-06,1
2.65326e-05,9.9956e-06,-1.57698e-05,-3.37172e-05,-6.20564e-05,-2.73865e-05,-8.40174e-06,-7.80059e-06,1
1.19034e-05,1.75778e-06,-1.54976e-05,-5.22557e-05,-9.31992e-05,-2.92238e-05,-6.91571e-05,-6.95754e-06,1
-2.33698e-05,-8.88728e-06,-1.15972e-05,-5.3811e-05,-0.000100517,-2.43763e-05,-9.50919e-05,-6.26323e-06,1
-4.98029e-05,-1.95512e-05,-7.54308e-06,-3.87046e-05,-8.55843e-05,-2.19628e-05,-6.70145e-05,-5.26861e-06,1
-5.52189e-05,-2.37159e-05,-5.60042e-06,-2.03864e-05,-5.93443e-05,-2.49273e-05,-2.48313e-06,-3.87397e-06,1
-4.61741e-05,-1.80883e-05,-6.12577e-06,-7.49737e-06,-3.04782e-05,-2.72776e-05,6.68442e-05,-2.29846e-06,1
-3.77525e-05,-7.45415e-06,-7.91768e-06,1.40718e-06,3.58751e-06,-2.35178e-05,0.000118372,-1.50569e-06,1
-3.883e-05,3.93391e-06,-8.04397e-06,1.00748e-05,4.38321e-05,-1.42163e-05,0.000145162,-1.14653e-06,1
-4.42279e-05,1.35571e-05,-5.37167e-06,1.74272e-05,7.55214e-05,-5.44723e-06,0.000145953,-5.75837e-07,1
-4.42625e-05,1.96742e-05,-1.60633e-06,2.1892e-05,9.35677e-05,-5.73414e-07,0.000124106,-2.17655e-07,1
-3.75751e-05,2.40476e-05,1.59444e-06,2.40689e-05,0.000107702,4.40739e-06,9.22184e-05,2.39951e-08,1
-3.04027e-05,2.94512e-05,3.76275e-06,2.05092e-05,0.000108783,1.09726e-05,6.40059e-05,1.00929e-06,1
-2.90891e-05,3.56297e-05,4.4798e-06,6.28512e-06,9.03676e-05,1.45094e-05,4.39729e-05,1.53581e-06,1
-3.2865e-05,3.80959e-05,3.38284e-06,-1.13025e-05,6.5639e-05,1.17014e-05,2.65333e-05,4.51622e-07,1
-3.71185e-05,3.08392e-05,1.25653e-06,-2.44593e-05,4.05818e-05,4.43197e-06,-2.38601e-05,-1.42409e-06,1
-3.96548e-05,1.85882e-05,1.47948e-07,-3.00836e-05,2.17083e-05,-3.00198e-06,-0.000113185,-7.96126e-07,1
-4.14859e-05,1.34695e-05,-1.55927e-06,-2.75909e-05,9.10712e-06,-6.30438e-06,-0.000172027,1.46984e-06,1
-4.29998e-05,1.6775e-05,-4.44912e-06,-2.24014e-05,5.23375e-06,-4.97036e-06,-0.000152469,2.33922e-06,1
-4.38516e-05,2.23527e-05,-4.56841e-06,-1.44642e-05,1.99287e-05,-2.71145e-07,-7.10845e-05,1.84179e-06,1
-4.29764e-05,2.87918e-05,-2.15096e-06,-5.94775e-06,3.51057e-05,6.4224e-06,2.16741e-05,2.19794e-06,1
-4.10578e-05,3.75695e-05,-2.5405e-08,-2.23067e-06,3.30889e-05,1.19068e-05,8.70113e-05,3.68696e-06,1
-4.06076e-05,4.33051e-05,-1.01144e-06,-4.07694e-06,1.28387e-05,8.45657e-06,0.0001118,3.42467e-06,1
-4.06533e-05,4.25102e-05,-3.40913e-06,-6.55864e-06,-1.81468e-05,-6.68602e-06,0.000102479,1.68527e-06,1
-3.92964e-05,3.93564e-05,-5.38896e-06,-9.12657e-06,-4.85265e-05,-2.23658e-05,7.7277e-05,9.06274e-07,1
-3.39346e-05,4.03207e-05,-6.01099e-06,-1.28514e-05,-6.81312e-05,-2.66246e-05,4.07051e-05,1.27545e-06,1
-2.17423e-05,4.55073e-05,-4.91383e-06,-1.71948e-05,-7.70415e-05,-2.11953e-05,-8.78083e-06,2.25696e-06,1
-6.85442e-06,4.78792e-05,-3.39634e-06,-2.07968e-05,-7.67113e-05,-1.44921e-05,-5.19875e-05,2.78823e-06,1
1.06307e-06,4.27929e-05,-1.96388e-06,-1.67215e-05,-5.35416e-05,-1.06811e-05,-6.31638e-05,2.6736e-06,1
-5.12958e-06,2.91683e-05,-2.13848e-06,2.2047e-07,-3.34073e-06,-9.53872e-06,-4.10357e-05,3.02693e-06,1
-2.20235e-05,1.08908e-05,-4.47364e-06,2.17503e-05,4.38476e-05,-8.50529e-06,-2.46886e-06,3.61331e-06,1
-3.43601e-05,-2.27097e-06,-8.67445e-06,3.19733e-05,5.51591e-05,-1.78387e-06,3.37838e-05,3.87735e-06,1
-2.51691e-05,-4.90671e-06,-1.18722e-05,3.25806e-05,4.32741e-05,1.13463e-05,5.67169e-05,3.28856e-06,1
-1.34624e-06,-4.36572e-06,-1.16217e-05,3.52931e-05,4.52568e-05,1.96946e-05,6.23e-05,1.36751e-06,1
1.2049e-05,-8.59063e-06,-9.2452e-06,3.92464e-05,6.74153e-05,1.28808e-05,5.45797e-05,-4.88713e-07,1
8.38781e-06,-1.50641e-05,-8.06061e-06,3.5688e-05,8.18351e-05,-1.73213e-06,4.19519e-05,4.88271e-07,1
1.09521e-06,-1.94247e-05,-8.85789e-06,2.59504e-05,7.16353e-05,-4.83514e-06,3.07717e-05,2.76089e-06,1
-2.10225e-06,-2.26231e-05,-8.85021e-06,1.57859e-05,4.72516e-05,1.02489e-05,2.26035e-05,4.00558e-06,1
-8.42429e-06,-2.44142e-05,-8.00438e-06,6.14999e-06,2.40343e-05,2.73304e-05,1.7285e-05,2.90225e-06,1
-2.38737e-05,-2.03125e-05,-1.09393e-05,-5.09266e-06,3.38203e-06,2.6012e-05,1.45327e-05,8.35939e-07,1
-4.49247e-05,-7.02745e-06,-1.65141e-05,-1.86952e-05,-1.69248e-05,7.08714e-06,1.25878e-05,3.2013e-07,1
-6.64995e-05,1.08274e-05,-1.98317e-05,-3.34872e-05,-3.51673e-05,-1.06021e-05,9.61724e-06,-3.91423e-07,1
-7.80431e-05,2.86353e-05,-2.09144e-05,-4.78483e-05,-4.18812e-05,-1.67768e-05,6.1806e-06,-4.61882e-07,1
-7.04346e-05,3.95895e-05,-2.15567e-05,-5.52541e-05,-3.50678e-05,-1.60086e-05,-3.18376e-06,1.74266e-06,1
-5.63339e-05,3.5271e-05,-2.10768e-05,-5.89961e-05,-2.83945e-05,-1.4991e-05,-2.43063e-05,4.97086e-06,1
-5.09858e-05,2.01599e-05,-2.0539e-05,-6.3296e-05,-2.90254e-05,-1.39893e-05,-4.30442e-05,7.21218e-06,1
-5.5378e-05,5.29193e-06,-2.05162e-05,-5.97141e-05,-3.77248e-05,-1.29598e-05,-4.37971e-05,9.00127e-06,1
-6.28933e-05,-2.50409e-06,-1.88595e-05,-4.67233e-05,-4.84122e-05,-1.19906e-05,-2.94406e-05,1.01739e-05,1
-6.68025e-05,-3.09874e-06,-1.69321e-05,-2.93786e-05,-5.26498e-05,-1.09119e-05,-1.05738e-05,9.63857e-06,1
-6.2401e-05,3.25453e-06,-1.49893e-05,-1.32936e-05,-5.1548e-05,-1.04044e-05,4.94877e-06,8.88315e-06,1
-5.27088e-05,1.02715e-05,-1.27568e-05,-1.53044e-06,-4.58787e-05,-9.19171e-06,1.32846e-05,8.03806e-06,1
-4.70859e-05,1.1707e-05,-1.03147e-05,1.6262e-06,-2.94815e-05,-8.8498e-06,1.37753e-05,6.61528e-06,1
-4.59824e-05,8.51764e-06,-8.75648e-06,-2.82126e-06,8.94318e-06,-8.95684e-06,7.18043e-06,4.95694e-06,1
-4.49535e-05,6.22182e-06,-8.97705e-06,-9.0028e-06,5.47666e-05,-1.02262e-05,-2.6894e-06,4.13043e-06,1
-4.12572e-05,7.26669e-06,-1.01719e-05,-2.25743e-05,6.60928e-05,-1.27855e-05,-1.11606e-05,4.15589e-06,1
-3.65358e-05,8.82384e-06,-1.12007e-05,-4.48045e-05,3.37036e-05,-1.57795e-05,-1.54235e-05,4.46148e-06,1
-3.29702e-05,9.61489e-06,-1.10386e-05,-6.20053e-05,-9.50823e-06,-1.75242e-05,-1.65477e-05,4.37308e-06,1
-3.17628e-05,1.01302e-05,-1.00458e-05,-6.40572e-05,-3.13199e-05,-1.82764e-05,-1.64011e-05,3.92441e-06,1
-3.2689e-05,1.2449e-05,-9.71471e-06,-5.48133e-05,-2.68707e-05,-1.99252e-05,-1.55479e-05,3.25136e-06,1
-3.24179e-05,1.56827e-05,-9.76098e-06,-4.02809e-05,-8.38109e-06,-2.03802e-05,-1.32589e-05,4.04274e-06,1
-2.85206e-05,1.82754e-05,-8.53718e-06,-2.43098e-05,1.08406e-05,-1.76982e-05,-1.06846e-05,6.30331e-06,1
-2.11948e-05,2.0013e-05,-6.1421e-06,-9.85721e-06,2.84726e-05,-1.08896e-05,-9.4668e-06,6.44504e-06,1
-1.22383e-05,2.31478e-05,-2.6495e-06,2.52312e-06,5.10833e-05,-1.3781e-06,-7.90165e-06,4.7088e-06,1
-4.15632e-06,2.70373e-05,1.11094e-06,1.74149e-05,8.24762e-05,5.12069e-06,-4.196e-06,5.316e-06,1
-5.2427e-07,2.99074e-05,3.13648e-06,3.97665e-05,0.000114876,6.0333e-06,1.85515e-06,7.78834e-06,1
-3.01811e-06,3.0892e-05,3.92808e-06,6.47846e-05,0.000128372,5.06293e-06,8.74787e-06,8.03718e-06,1
-1.03533e-05,2.85618e-05,4.97426e-06,7.56209e-05,0.000106889,2.66681e-06,1.36377e-05,7.26645e-06,1
-1.88106e-05,2.33453e-05,3.86479e-06,6.06087e-05,6.21671e-05,-1.41896e-06,1.59336e-05,7.13686e-06,1
-2.38706e-05,1.77969e-05,-3.13457e-07,2.92871e-05,3.72138e-05,-7.24072e-06,1.49226e-05,6.68627e-06,1
-2.2749e-05,1.48319e-05,-5.36351e-06,-3.1108e-08,5.97122e-05,-1.08774e-05,7.9054e-07,5.61497e-06,1
-1.82934e-05,1.65568e-05,-8.12959e-06,-1.46545e-05,9.04246e-05,-9.88261e-06,-1.97549e-05,5.21193e-06,1
-1.72606e-05,1.7745e-05,-7.71243e-06,-1.85324e-05,8.45516e-05,-8.48039e-06,-2.64855e-05,4.5782e-06,1
-1.98509e-05,1.56228e-05,-7.22853e-06,-2.13202e-05,5.01842e-05,-1.3383e-05,-1.60051e-05,3.88749e-06,1
-2.09777e-05,1.4996e-05,-8.64419e-06,-2.44791e-05,6.9231e-06,-2.69816e-05,3.91561e-06,3.19562e-06,1
-2.17099e-05,1.42775e-05,-1.10765e-05,-2.95945e-05,-2.86304e-05,-4.03657e-05,2.3271e-05,1.39095e-06,1
-2.18558e-05,1.16024e-05,-1.19397e-05,-3.36067e-05,-5.14653e-05,-3.61107e-05,3.72504e-05,-8.31829e-07,1
-2.33773e-05,6.68099e-06,-1.13544e-05,-3.36083e-05,-6.68578e-05,-9.27694e-06,4.38935e-05,-1.49992e-06,1
-3.65818e-05,1.99883e-06,-1.02069e-05,-2.94928e-05,-7.85838e-05,1.43981e-05,4.43709e-05,-8.68043e-08,1
-6.04411e-05,1.3935e-06,-8.22002e-06,-2.41847e-05,-8.44297e-05,1.50993e-05,4.18313e-05,4.01852e-07,1
-7.6198e-05,3.72123e-06,-5.46547e-06,-1.75541e-05,-7.64814e-05,4.494e-06,3.8141e-05,-1.21202e-08,1
-7.16443e-05,5.13189e-06,-2.66701e-06,-6.11653e-06,-4.14039e-05,-6.27809e-07,3.26491e-05,6.10935e-08,1
-5.42675e-05,5.19107e-06,-1.52561e-06,9.58034e-06,1.71552e-05,-4.75013e-07,2.53189e-05,1.34915e-06,1
-3.83633e-05,4.86071e-06,-1.78306e-06,2.47018e-05,6.60763e-05,-3.21506e-06,1.8354e-05,2.41986e-06,1
-2.71511e-05,3.63977e-06,-3.03671e-06,3.24125e-05,8.16414e-05,-8.43678e-06,1.32983e-05,3.23569e-06,1
-1.29063e-05,3.29303e-06,-5.95288e-06,3.02468e-05,7.08043e-05,-1.08682e-05,1.05347e-05,4.38803e-06,1
3.67309e-06,6.81161e-06,-9.4368e-06,1.92728e-05,5.31347e-05,-1.16757e-05,8.68484e-06,4.2752e-06,1
9.55787e-06,1.42203e-05,-1.08168e-05,3.48584e-06,3.81099e-05,-1.67573e-05,7.3847e-06,3.51649e-06,1
-4.6554e-06,2.25627e-05,-1.04508e-05,-1.30568e-05,2.64914e-05,-2.70329e-05,5.97495e-06,3.08453e-06,1
-2.72281e-05,3.08762e-05,-1.01397e-05,-2.47283e-05,1.45421e-05,-3.59412e-05,5.27813e-06,3.16404e-06,1
-3.62758e-05,4.00109e-05,-1.05543e-05,-2.93447e-05,1.69767e-06,-3.58215e-05,3.71183e-06,3.13697e-06,1
-3.05495e-05,4.42176e-05,-1.2087e-05,-2.80826e-05,-1.11381e-05,-2.63755e-05,-3.92234e-07,2.87324e-06,1
-2.68533e-05,3.78051e-05,-1.39212e-05,-2.54092e-05,-2.77821e-05,-1.22002e-05,-4.69111e-06,3.03837e-06,1
-2.39083e-05,2.82091e-05,-1.62172e-05,-2.24128e-05,-4.57635e-05,-9.41632e-07,-5.17741e-06,4.32852e-06,1
-1.3489e-05,2.41964e-05,-1.77925e-05,-1.60525e-05,-5.13309e-05,-2.00863e-06,-1.20515e-06,6.49858e-06,1
2.56323e-07,2.59453e-05,-1.63858e-05,-6.23136e-06,-4.54742e-05,-1.37781e-05,5.03064e-06,8.05647e-06,1
1.21838e-05,2.96533e-05,-1.38108e-05,1.5769e-06,-4.41357e-05,-2.36095e-05,1.1752e-05,7.1684e-06,1
2.43559e-05,3.17245e-05,-1.12372e-05,4.9618e-06,-5.61219e-05,-2.4741e-05,1.71949e-05,3.64629e-06,1
3.65554e-05,3.14655e-05,-7.22426e-06,8.56042e-06,-7.42968e-05,-2.27306e-05,2.06068e-05,2.03003e-06,1
2.94719e-05,2.86746e-05,-4.01012e-06,1.31622e-05,-7.08493e-05,-2.11136e-05,2.34346e-05,2.96991e-06,1
-2.26135e-06,2.31031e-05,-3.76303e-06,1.56714e-05,-1.5759e-05,-1.86237e-05,2.54555e-05,2.15676e-06,1
-3.21653e-05,1.96976e-05,-4.27315e-06,1.68719e-05,7.87205e-05,-1.53008e-05,2.47463e-05,-3.74924e-07,1
-4.24035e-05,1.91349e-05,-3.46995e-06,2.1439e-05,0.000157565,-1.21328e-05,2.24266e-05,-3.15159e-06,1
-4.19592e-05,1.88909e-05,-1.95354e-06,3.11804e-05,0.000175388,-1.09097e-05,2.08826e-05,-5.32793e-06,1
-4.15457e-05,1.8624e-05,-2.67144e-07,4.21173e-05,0.000132063,-1.23937e-05,2.10806e-05,-7.6491e-06,1
-4.3586e-05,1.84935e-05,1.27474e-06,4.58555e-05,6.7823e-05,-1.33606e-05,2.13348e-05,-9.03902e-06,1
-4.49277e-05,1.97134e-05,2.48537e-06,4.12889e-05,1.44186e-05,-9.16686e-06,2.10295e-05,-8.72964e-06,1
-4.36025e-05,1.96936e-05,4.28218e-06,3.55595e-05,-1.51203e-05,6.1098e-07,2.07193e-05,-8.66093e-06,1
-4.37112e-05,1.5549e-05,6.02325e-06,2.95041e-05,-1.66123e-05,1.07428e-05,2.04854e-05,-8.89535e-06,1
-4.83107e-05,7.50337e-06,7.26839e-06,1.81883e-05,1.73329e-06,1.60833e-05,1.83302e-05,-8.21844e-06,1
-5.53052e-05,-8.41495e-07,7.1564e-06,8.24628e-06,2.86734e-05,1.56025e-05,1.106e-05,-6.88e-06,1
-5.95951e-05,-6.78703e-06,5.20255e-06,1.0427e-05,5.96767e-05,9.41342e-06,-5.6717e-07,-5.83975e-06,1
-5.64325e-05,-7.5442e-06,1.78888e-06,1.81899e-05,8.39668e-05,5.33891e-07,-9.69486e-06,-5.02359e-06,1
-4.10674e-05,-1.33652e-06,-2.74157e-06,1.61149e-05,7.98373e-05,-4.62535e-06,-1.01692e-05,-4.66202e-06,1
-1.92763e-05,1.2568e-05,-6.75181e-06,2.327e-06,4.09987e-05,-2.27218e-06,-2.36873e-06,-4.6763e-06,1
-5.40207e-06,3.22397e-05,-8.96552e-06,-1.16106e-05,-1.05853e-05,3.70453e-06,9.27065e-06,-4.1909e-06,1
-3.627e-06,5.03055e-05,-9.43425e-06,-1.42328e-05,-4.00974e-05,7.19525e-06,1.88957e-05,-1.40839e-06,1
-6.82598e-06,5.82489e-05,-7.24785e-06,-4.90567e-06,-2.50962e-05,5.73717e-06,2.26587e-05,1.75753e-06,1
-1.42131e-05,5.23272e-05,-3.3667e-06,4.96367e-06,2.11524e-05,9.78236e-07,2.15535e-05,2.99064e-06,1
-2.78504e-05,3.83724e-05,-1.84338e-06,5.6284e-06,5.00082e-05,-5.16189e-06,1.91282e-05,2.65371e-06,1
-3.91476e-05,2.63082e-05,-3.28861e-06,-1.34928e-06,3.69104e-05,-1.10119e-05,1.72691e-05,2.36961e-06,1
-3.4427e-05,1.8679e-05,-4.88499e-06,-8.84856e-06,1.18329e-05,-1.4883e-05,1.58939e-05,2.28048e-06,1
-1.20096e-05,1.40989e-05,-3.66573e-06,-1.33595e-05,1.31636e-06,-1.71709e-05,1.46218e-05,1.95954e-06,1
8.90808e-06,1.37927e-05,-1.91626e-06,-1.88374e-05,-8.74497e-06,-2.15444e-05,1.28027e-05,4.13243e-06,1
9.79522e-06,1.97853e-05,-2.34006e-06,-2.97161e-05,-3.71943e-05,-2.97822e-05,1.07733e-05,8.13818e-06,1
-5.33076e-06,2.58834e-05,-5.15622e-06,-4.04538e-05,-6.686e-05,-3.48943e-05,4.49431e-06,9.9497e-06,1
-2.35177e-05,2.31754e-05,-1.00866e-05,-4.63359e-05,-7.22625e-05,-3.07723e-05,-1.96499e-05,9.06458e-06,1
-3.80718e-05,1.67901e-05,-1.23287e-05,-4.36839e-05,-4.68403e-05,-2.18652e-05,-5.9566e-05,7.36891e-06,1
-4.65466e-05,1.76405e-05,-9.51183e-06,-2.82185e-05,4.84228e-06,-1.31942e-05,-9.56706e-05,4.85661e-06,1
-5.14089e-05,3.16014e-05,-6.87915e-06,-1.21159e-05,6.10737e-05,-6.95332e-06,-0.000125088,2.60283e-06,1
-5.89733e-05,4.87898e-05,-6.59409e-06,-5.18977e-06,0.000104693,-9.04946e-06,-0.000155622,2.0536e-06,1
-7.31459e-05,5.28993e-05,-8.0457e-06,-4.32583e-06,0.000121239,-1.83136e-05,-0.00018776,2.94869e-06,1
-8.81033e-05,3.75547e-05,-9.89078e-06,-6.77587e-06,0.000104819,-2.72788e-05,-0.000193735,5.027e-06,1
-9.26054e-05,1.28816e-05,-9.19139e-06,-1.39362e-05,7.39252e-05,-3.02459e-05,-0.00014465,6.95439e-06,1
-8.0055e-05,-1.23264e-05,-6.79454e-06,-2.08574e-05,5.96725e-05,-2.63061e-05,-4.71934e-05,6.92518e-06,1
-5.68258e-05,-3.55274e-05,-6.80513e-06,-2.1623e-05,6.09974e-05,-1.8967e-05,7.05572e-05,6.53919e-06,1
-3.78319e-05,-5.30586e-05,-1.07126e-05,-2.1718e-05,4.1341e-05,-1.31015e-05,0.000170785,7.39535e-06,1
-3.13856e-05,-6.00583e-05,-1.55365e-05,-2.95182e-05,-1.03439e-05,-1.18082e-05,0.000229242,8.58586e-06,1
-3.59278e-05,-5.38346e-05,-1.88674e-05,-4.61342e-05,-6.28213e-05,-1.28717e-05,0.000243599,8.45422e-06,1
-4.81642e-05,-4.03259e-05,-1.91819e-05,-6.26958e-05,-8.48397e-05,-1.34326e-05,0.000231865,7.4235e-06,1
-6.44167e-05,-2.32819e-05,-1.7589e-05,-6.94146e-05,-7.86242e-05,-1.03161e-05,0.000212038,6.80224e-06,1
-7.59763e-05,-6.24074e-07,-1.60616e-05,-6.38913e-05,-6.13737e-05,-3.50073e-06,0.000189991,5.56973e-06,1
-7.81775e-05,2.73006e-05,-1.51445e-05,-5.11222e-05,-5.28428e-05,2.71178e-06,0.00016465,2.79631e-06,1
-7.08751e-05,5.20788e-05,-1.3409e-05,-3.76901e-05,-5.72004e-05,5.19104e-06,0.000136164,2.95235e-07,1
-4.95278e-05,6.59626e-05,-9.93464e-06,-3.05722e-05,-5.66414e-05,6.21704e-06,0.000107731,-1.8529e-08,1
-1.62892e-05,6.35352e-05,-6.89248e-06,-2.42978e-05,-2.33214e-05,8.57053e-06,8.17233e-05,1.74819e-06,1
1.39787e-05,4.18323e-05,-5.91974e-06,-7.96245e-06,4.50133e-05,9.99704e-06,6.00108e-05,4.34919e-06,1
2.89311e-05,1.86224e-06,-4.32881e-06,1.10259e-05,0.000104106,6.86579e-06,4.11634e-05,5.63038e-06,1
2.48991e-05,-4.08566e-05,-9.01315e-07,2.33862e-05,0.000120633,3.23403e-07,2.58484e-05,4.88733e-06,1
5.29501e-06,-6.15998e-05,1.57017e-06,3.41698e-05,0.000116208,-5.77988e-06,1.52424e-05,2.51423e-06,1
-8.03374e-06,-5.58391e-05,2.84611e-07,4.04385e-05,0.0001115,-1.16148e-05,9.33136e-06,-2.03756e-08,1
8.05896e-06,-4.3899e-05,-6.1352e-06,3.67712e-05,8.71207e-05,-1.57728e-05,3.34785e-06,-1.81123e-06,1
2.46836e-05,-3.68361e-05,-1.23909e-05,3.4583e-05,4.25639e-05,-1.83276e-05,-2.09415e-06,-3.46497e-06,1
7.01035e-06,-3.24309e-05,-1.30192e-05,4.84016e-05,1.99878e-05,-2.14726e-05,-3.06348e-06,-4.47199e-06,1
-1.99688e-05,-2.76008e-05,-1.07325e-05,7.04102e-05,3.93299e-05,-2.29053e-05,-8.78819e-07,-4.25665e-06,1
-3.04861e-05,-2.383e-05,-9.65444e-06,8.09598e-05,7.77477e-05,-2.13229e-05,2.41159e-06,-3.9668e-06,1
-3.91295e-05,-2.32683e-05,-1.04834e-05,7.44707e-05,9.27796e-05,-2.29006e-05,5.78053e-06,-2.58798e-06,1
-6.02645e-05,-2.04456e-05,-1.21789e-05,5.96538e-05,6.71349e-05,-3.38401e-05,8.89042e-06,-1.68741e-06,1
-7.85533e-05,-1.22298e-05,-1.27125e-05,4.71406e-05,1.45831e-05,-4.93321e-05,1.09099e-05,-2.14163e-06,1
-8.23412e-05,-2.17644e-06,-1.12851e-05,3.66874e-05,-4.40184e-05,-6.11734e-05,1.17365e-05,-2.73603e-06,1
-7.0148e-05,3.35375e-06,-8.97117e-06,2.29823e-05,-8.2024e-05,-5.9348e-05,1.1264e-05,-2.8675e-06,1
-3.99578e-05,6.28239e-06,-6.99005e-06,6.78605e-06,-9.03719e-05,-3.7638e-05,1.05504e-05,-1.96483e-06,1
-6.27575e-06,1.04411e-05,-5.8724e-06,-2.56892e-06,-8.00922e-05,-5.14071e-06,1.04033e-05,3.67258e-07,1
9.24281e-06,1.63317e-05,-3.8723e-06,1.71891e-07,-5.08582e-05,2.31914e-05,1.0418e-05,1.99143e-06,1
4.36215e-06,2.27142e-05,1.41733e-06,9.94616e-06,1.59216e-05,3.79368e-05,8.7609e-06,1.15592e-06,1
-5.93135e-06,2.75149e-05,8.21458e-06,1.74987e-05,9.8411e-05,4.03473e-05,4.50623e-06,4.70292e-07,1
-1.29914e-05,2.91911e-05,1.14662e-05,1.70865e-05,0.000139894,3.84747e-05,-1.60778e-06,2.54111e-07,1
-1.76657e-05,2.94387e-05,8.24228e-06,1.0126e-05,0.00012185,3.59694e-05,-9.03991e-06,-1.99902e-07,1
-2.35858e-05,2.94834e-05,1.33104e-06,5.00431e-06,7.94327e-05,2.99029e-05,-1.75897e-05,-1.06727e-06,1
-3.00365e-05,2.88959e-05,-4.37198e-06,4.9478e-06,4.54959e-05,1.85043e-05,-3.33165e-05,-1.9485e-06,1
-3.31182e-05,3.01877e-05,-7.05256e-06,-1.24104e-06,2.07153e-05,5.87988e-06,-6.30456e-05,-4.60708e-06,1
-3.02496e-05,3.45444e-05,-9.15702e-06,-1.98421e-05,-1.32498e-06,-4.4437e-06,-9.12837e-05,-1.08969e-05,1
-2.56692e-05,3.67811e-05,-1.21686e-05,-3.68605e-05,-1.40451e-05,-1.47537e-05,-9.07475e-05,-2.09949e-05,1
-2.37476e-05,3.39271e-05,-1.54284e-05,-4.17693e-05,-1.51565e-05,-2.48168e-05,-6.13639e-05,-2.77404e-05,1
-2.14897e-05,3.12771e-05,-1.62345e-05,-3.6996e-05,-1.38687e-05,-2.71435e-05,-3.82605e-05,-2.43638e-05,1
-1.80753e-05,2.98286e-05,-1.23261e-05,-2.572e-05,-1.95706e-05,-1.82743e-05,-6.7787e-05,-1.43602e-05,1
-2.08353e-05,2.18237e-05,-7.94072e-06,-1.61456e-05,-3.81001e-05,-7.1301e-06,-0.000131014,-4.89989e-06,1
-3.03365e-05,9.43504e-06,-6.65049e-06,-1.45812e-05,-6.68584e-05,-9.33242e-06,-0.000153379,3.94725e-06,1
-3.96153e-05,1.94433e-06,-6.07846e-06,-1.89104e-05,-9.12833e-05,-2.76072e-05,-0.000100788,1.39769e-05,1
-4.17864e-05,-1.7353e-06,-3.4784e-06,-2.4007e-05,-7.97204e-05,-2.97471e-05,-2.55949e-06,2.38744e-05,1
-3.54274e-05,-9.49354e-06,1.04295e-06,-3.27357e-05,-4.25765e-05,-2.13773e-06,9.29486e-05,3.12094e-05,1
-2.67027e-05,-2.09482e-05,3.27188e-06,-4.29583e-05,-2.23988e-05,2.27684e-05,0.000158805,2.99497e-05,1
-8.48029e-06,-2.35687e-05,-4.87807e-07,-4.21529e-05,-2.31766e-05,1.94014e-05,0.000182337,2.13672e-05,1
3.03182e-05,-1.33138e-05,-7.77841e-06,-3.25162e-05,-3.79541e-05,-9.84803e-06,0.000170064,1.31982e-05,1
6.82453e-05,4.04375e-07,-1.34341e-05,-2.44398e-05,-5.38982e-05,-3.50256e-05,0.000137522,1.0204e-05,1
6.87946e-05,1.34819e-05,-1.42952e-05,-1.84234e-05,-5.88898e-05,-3.78501e-05,0.000102377,1.0767e-05,1
3.07428e-05,3.02674e-05,-1.19419e-05,-9.02374e-06,-4.94512e-05,-2.82478e-05,7.44229e-05,1.04196e-05,1
-1.3732e-05,4.45393e-05,-7.90074e-06,2.2972e-06,-3.34445e-05,-1.74537e-05,5.67855e-05,6.98941e-06,1
-3.44395e-05,4.71502e-05,-4.33727e-06,7.85435e-06,-2.67493e-05,-1.08133e-05,4.54795e-05,2.52697e-06,1
-3.08764e-05,3.88654e-05,-2.35644e-06,4.36891e-06,-2.96702e-05,-9.69423e-06,3.29481e-05,-6.5709e-07,1
-2.3789e-05,2.77809e-05,-2.51104e-06,-5.13192e-06,-3.02769e-05,-1.18235e-05,2.05268e-05,-2.31362e-06,1
-3.44079e-05,2.15104e-05,-4.87261e-06,-1.62626e-05,-1.80398e-05,-1.32316e-05,1.07257e-05,-3.97719e-06,1
-6.56243e-05,2.20764e-05,-8.38597e-06,-2.44051e-05,2.00888e-06,-1.38136e-05,4.15345e-06,-5.71283e-06,1
-9.82852e-05,2.60161e-05,-1.1369e-05,-2.54552e-05,1.96113e-05,-1.51518e-05,-2.1202e-06,-6.29421e-06,1
-0.00011173,2.79279e-05,-1.24421e-05,-2.30839e-05,2.77473e-05,-1.58803e-05,-7.66085e-06,-7.2375e-06,1
-0.000103766,2.61807e-05,-1.3127e-05,-2.29712e-05,3.24868e-05,-1.44134e-05,-1.39272e-05,-8.28719e-06,1
-9.08182e-05,2.21812e-05,-1.29574e-05,-2.31098e-05,4.14687e-05,-1.15981e-05,-1.98559e-05,-7.27679e-06,1
-8.66179e-05,1.63924e-05,-1.09287e-05,-2.07305e-05,4.42261e-05,-7.47915e-06,-2.33168e-05,-3.46762e-06,1
-8.91536e-05,8.20299e-06,-8.46351e-06,-1.65453e-05,2.86907e-05,-2.09895e-06,-2.25987e-05,1.05893e-06,1
-8.60539e-05,-1.67416e-06,-8.2548e-06,-9.78753e-06,1.91803e-05,4.61626e-06,-2.14588e-05,3.18043e-06,1
-7.08642e-05,-1.3236e-05,-1.04959e-05,-1.42346e-06,4.56138e-05,1.28037e-05,-2.59682e-05,3.29989e-06,1
-5.02121e-05,-1.9542e-05,-1.21485e-05,5.40357e-06,9.28817e-05,1.80814e-05,-3.87856e-05,3.9901e-06,1
-3.60021e-05,-1.09067e-05,-1.0856e-05,1.22506e-05,0.000129628,1.5296e-05,-5.04138e-05,5.57777e-06,1
-3.22579e-05,8.82578e-06,-8.90988e-06,1.98572e-05,0.000145148,6.31669e-06,-4.76304e-05,6.11286e-06,1
-3.0123e-05,2.65656e-05,-8.2906e-06,2.49969e-05,0.000141695,-2.52558e-06,-2.98423e-05,3.9088e-06,1
-1.85354e-05,3.83647e-05,-7.91829e-06,2.76727e-05,0.000127476,-7.83044e-06,-5.3948e-06,1.57366e-06,1
-9.83703e-06,4.23903e-05,-5.07351e-06,3.02583e-05,0.000104316,-1.16971e-05,1.498e-05,2.11673e-06,1
-2.64838e-05,4.0467e-05,-3.44286e-06,2.95834e-05,6.87157e-05,-1.07854e-05,2.6146e-05,2.00003e-06,1
-6.51692e-05,4.03581e-05,-6.82913e-06,2.04251e-05,2.51854e-05,-8.15451e-06,2.82439e-05,1.35154e-06,1
-0.000102112,4.54282e-05,-1.23286e-05,2.33118e-06,-1.69603e-05,-1.26448e-05,2.46758e-05,1.41672e-06,1
-0.000120099,5.95741e-05,-1.65158e-05,-2.03568e-05,-4.65148e-05,-1.74801e-05,2.09752e-05,3.71727e-07,1
-0.0001121,8.02975e-05,-1.89125e-05,-3.76018e-05,-6.26454e-05,-1.62485e-05,1.55264e-05,-3.54694e-07,1
-8.39084e-05,9.43392e-05,-1.95455e-05,-4.40659e-05,-6.86834e-05,-1.2746e-05,-6.46027e-07,-7.29547e-07,1
-4.97765e-05,8.98066e-05,-1.75563e-05,-4.31079e-05,-6.80718e-05,-1.20419e-05,-2.12025e-05,6.12539e-07,1
-1.94769e-05,7.05064e-05,-1.43931e-05,-4.06829e-05,-5.77759e-05,-1.16479e-05,-2.89697e-05,2.33354e-06,1
2.6042e-06,4.98861e-05,-1.05059e-05,-3.61681e-05,-2.81075e-05,-8.50327e-06,-1.86534e-05,3.50778e-06,1
1.76234e-05,3.2834e-05,-7.39975e-06,-2.66344e-05,1.39187e-05,-2.83986e-06,3.24887e-06,4.10369e-06,1
2.73797e-05,1.60964e-05,-6.80747e-06,-1.7433e-05,4.68627e-05,3.15901e-06,2.64729e-05,3.26391e-06,1
3.73573e-05,-1.86577e-06,-8.12721e-06,-1.24112e-05,6.48493e-05,7.69427e-06,4.32462e-05,1.89067e-06,1
4.68932e-05,-1.76879e-05,-7.69274e-06,-1.12131e-05,7.96191e-05,1.10561e-05,5.07945e-05,5.82942e-07,1
4.83919e-05,-2.81293e-05,-4.32286e-06,-1.52242e-05,8.79752e-05,1.19182e-05,4.75623e-05,1.37531e-06,1
4.24775e-05,-3.19376e-05,-1.1612e-06,-2.46736e-05,7.28801e-05,1.01372e-05,3.6871e-05,2.75032e-06,1
3.45637e-05,-2.84447e-05,-7.65822e-07,-3.43949e-05,3.70255e-05,6.84082e-06,2.60703e-05,2.78464e-06,1
1.92802e-05,-1.67838e-05,-1.89471e-06,-3.76229e-05,1.13259e-06,9.65031e-07,1.68287e-05,2.08834e-06,1
-1.17232e-05,1.30962e-06,-3.08981e-06,-3.14381e-05,-2.18092e-05,-9.40189e-06,-8.03391e-06,1.11055e-06,1
-4.6007e-05,1.64411e-05,-3.74824e-06,-1.91028e-05,-3.91388e-05,-2.00493e-05,-6.61595e-05,-8.18992e-07,1
-6.36873e-05,2.24413e-05,-4.19055e-06,-4.04458e-06,-6.29169e-05,-2.34903e-05,-0.000128099,-2.65554e-06,1
-6.43026e-05,2.22337e-05,-5.83104e-06,1.02321e-05,-8.84609e-05,-1.73973e-05,-0.000135472,-3.81633e-06,1
-5.86032e-05,2.04624e-05,-6.91348e-06,2.16228e-05,-9.81143e-05,-9.52458e-06,-7.2929e-05,-4.10996e-06,1
-5.15443e-05,1.85699e-05,-6.9206e-06,3.09389e-05,-8.51493e-05,-6.52374e-06,2.45328e-05,-4.24996e-06,1
-4.27816e-05,1.7232e-05,-7.5482e-06,3.93283e-05,-5.10749e-05,-6.04872e-06,0.000107747,-4.06882e-06,1
-3.2673e-05,1.83657e-05,-8.75272e-06,4.41688e-05,1.46438e-06,-3.36403e-06,0.000147675,-2.80145e-06,1
-2.05489e-05,1.96692e-05,-9.28132e-06,3.86693e-05,7.12365e-05,5.65222e-07,0.000145129,-1.77411e-06,1
-6.93403e-06,1.93493e-05,-8.93344e-06,2.59009e-05,0.00012722,2.11469e-06,0.000118359,-2.12582e-06,1
5.7169e-06,2.067e-05,-6.08915e-06,2.06897e-05,0.000148723,2.44063e-06,8.50482e-05,-3.26473e-06,1
6.50937e-06,2.30972e-05,-1.53292e-07,2.48225e-05,0.000147007,1.09653e-06,5.88819e-05,-3.35938e-06,1
-4.84037e-06,2.11232e-05,2.94897e-06,2.07507e-05,0.000113209,-2.77536e-06,4.72096e-05,-1.83956e-06,1
-1.06607e-05,1.44448e-05,1.19027e-06,4.25617e-06,6.76691e-05,-7.88416e-06,4.32078e-05,1.49144e-07,1
-7.82493e-06,6.05636e-06,-2.16267e-06,-1.22919e-05,4.55929e-05,-1.24223e-05,4.10294e-05,-1.49719e-07,1
-5.74167e-06,-2.14574e-06,-4.21893e-06,-2.11697e-05,5.81595e-05,-1.39654e-05,3.73137e-05,-1.58497e-06,1
-1.25368e-05,-8.50155e-06,-5.25043e-06,-2.36161e-05,6.97603e-05,-1.33991e-05,3.17571e-05,-2.89904e-06,1
-2.03092e-05,-1.25285e-05,-7.53138e-06,-2.28933e-05,5.01438e-05,-1.17999e-05,2.46408e-05,-3.29603e-06,1
-1.86417e-05,-1.40937e-05,-1.02136e-05,-2.02316e-05,1.44906e-05,-9.64884e-06,1.80793e-05,-2.207e-06,1
-1.03563e-05,-1.51206e-05,-1.10673e-05,-1.40979e-05,-5.40878e-06,-9.118e-06,1.3138e-05,-2.77204e-07,1
-6.20051e-06,-1.49992e-05,-8.83631e-06,-5.94738e-06,1.27056e-06,-1.34711e-05,8.74012e-06,1.01454e-06,1
-9.75886e-06,-1.412e-05,-6.44605e-06,4.1675e-07,1.22408e-05,-2.2561e-05,3.27754e-06,-5.16654e-08,1
-1.63643e-05,-1.48672e-05,-5.92863e-06,5.03149e-06,7.36505e-06,-3.09801e-05,-2.37904e-06,-2.4119e-06,1
-2.28599e-05,-1.52941e-05,-7.36959e-06,8.01059e-06,-1.18194e-05,-3.33935e-05,-3.88559e-06,-3.32972e-06,1
-2.66454e-05,-1.18668e-05,-9.5613e-06,7.13893e-06,-2.2212e-05,-2.79658e-05,-1.11619e-06,-2.77489e-06,1
-2.55341e-05,-6.45516e-06,-1.16706e-05,1.09355e-06,-2.03705e-05,-1.85821e-05,1.87513e-06,-3.22431e-06,1
-1.86585e-05,-2.25352e-06,-1.39134e-05,-7.29296e-06,-1.79569e-05,-1.27233e-05,1.85325e-06,-3.68345e-06,1
-1.47781e-05,1.99854e-06,-1.60859e-05,-1.24737e-05,-1.68453e-05,-1.36815e-05,5.08016e-07,-2.24569e-06,1
-2.26314e-05,5.55614e-06,-1.71759e-05,-1.57953e-05,-8.29068e-06,-1.76194e-05,-1.39391e-06,-9.02434e-07,1
-3.69515e-05,6.30552e-06,-1.72217e-05,-2.60658e-05,-1.6666e-06,-2.17526e-05,-4.14323e-06,-1.89672e-06,1
-4.64391e-05,5.25493e-06,-1.71465e-05,-4.08011e-05,-7.79367e-06,-2.4257e-05,-7.01617e-06,-3.33753e-06,1
-4.88144e-05,6.71702e-06,-1.6849e-05,-4.93751e-05,-2.12105e-05,-2.58997e-05,-9.66281e-06,-2.99118e-06,1
-4.6086e-05,1.03674e-05,-1.61041e-05,-4.69232e-05,-2.88747e-05,-2.96329e-05,-1.23377e-05,-1.70217e-06,1
-4.40725e-05,1.14747e-05,-1.32231e-05,-3.78746e-05,-2.73694e-05,-3.69531e-05,-1.35367e-05,-2.58058e-06,1
-4.64314e-05,8.6871e-06,-9.26312e-06,-2.99222e-05,-1.78501e-05,-4.4961e-05,-1.30456e-05,-4.85737e-06,1
-5.0703e-05,5.3943e-06,-5.86461e-06,-2.05879e-05,6.45832e-06,-4.63321e-05,-1.1873e-05,-5.86216e-06,1
-5.08016e-05,2.01782e-06,-4.7514e-06,-4.68415e-06,4.15097e-05,-2.80761e-05,-1.16465e-05,-5.09687e-06,1
-4.79633e-05,-6.39268e-06,-5.74053e-06,1.01061e-05,6.28758e-05,4.64519e-06,-1.06951e-05,-2.44181e-06,1
-4.64387e-05,-1.23272e-05,-7.12893e-06,1.69285e-05,5.22986e-05,2.20981e-05,-8.03984e-06,1.44738e-06,1
-3.92758e-05,-1.40462e-06,-7.82049e-06,1.61416e-05,2.34327e-05,1.81665e-05,-7.91967e-06,3.43109e-06,1
-2.75903e-05,2.2722e-05,-6.17728e-06,1.44953e-05,2.93404e-06,4.22938e-06,-1.05988e-05,2.6512e-06,1
-1.82521e-05,4.08687e-05,-4.46102e-06,2.0445e-05,2.49385e-06,-7.27606e-06,-1.2288e-05,1.78833e-06,1
-1.59889e-05,4.15278e-05,-3.10747e-06,3.12847e-05,1.49145e-05,-1.26947e-05,-1.1132e-05,2.1834e-06,1
-1.99218e-05,3.20546e-05,-1.56033e-06,3.59459e-05,2.42315e-05,-1.64901e-05,-1.34147e-05,3.07166e-06,1
-2.54636e-05,2.32557e-05,-1.88705e-07,2.77385e-05,1.99498e-05,-1.7703e-05,-3.4049e-05,4.23611e-06,1
-2.97977e-05,2.24926e-05,5.64795e-07,1.39512e-05,1.23516e-05,-1.53052e-05,-7.53784e-05,6.16835e-06,1
-3.14367e-05,3.22004e-05,3.72925e-07,4.4194e-06,1.30958e-05,-1.14269e-05,-0.000111257,5.8792e-06,1
-3.22088e-05,4.55562e-05,1.44888e-07,1.62364e-06,2.02648e-05,-9.81519e-06,-0.000114457,3.71892e-06,1
-3.36979e-05,5.20256e-05,-1.40061e-06,1.42686e-06,1.92358e-05,-9.15776e-06,-8.12719e-05,2.22272e-06,1
-3.54674e-05,5.02504e-05,-3.75592e-06,-3.1272e-08,3.13051e-06,-8.1923e-06,-2.77419e-05,2.72069e-06,1
-3.61321e-05,4.90868e-05,-4.72608e-06,-3.49306e-06,-2.03934e-05,-6.72305e-06,2.73932e-05,4.20163e-06,1
-3.65392e-05,5.39922e-05,-3.06611e-06,-6.47814e-06,-3.64051e-05,-6.04016e-06,7.15396e-05,4.73194e-06,1
-3.72533e-05,6.06868e-05,3.53662e-07,-8.43857e-06,-3.67492e-05,-6.15254e-06,9.78301e-05,4.22031e-06,1
-3.73025e-05,6.13593e-05,3.33437e-06,-1.15981e-05,-2.71437e-05,-6.80023e-06,0.000106926,2.79735e-06,1
-3.58573e-05,5.28749e-05,4.14888e-06,-1.54693e-05,-1.97416e-05,-8.49038e-06,0.000105619,8.69492e-07,1
-3.39231e-05,3.63307e-05,3.43432e-06,-1.81126e-05,-2.03393e-05,-9.76697e-06,0.000100775,-8.41425e-07,1
-3.09001e-05,1.51846e-05,1.41146e-06,-1.9851e-05,-2.96825e-05,-7.85362e-06,9.42448e-05,-1.82371e-06,1
-2.72653e-05,-4.61398e-06,-2.13473e-06,-2.38135e-05,-5.23817e-05,-2.05394e-06,8.59445e-05,-2.7281e-06,1
-2.75156e-05,-1.6992e-05,-6.19646e-06,-3.00394e-05,-8.55395e-05,6.04594e-06,7.59035e-05,-2.59852e-06,1
-3.2869e-05,-2.29609e-05,-9.35429e-06,-3.85326e-05,-0.000106651,7.49608e-06,6.42836e-05,-2.33845e-06,1
-4.08733e-05,-3.00967e-05,-1.16547e-05,-5.01927e-05,-9.77337e-05,-1.5649e-06,4.18677e-05,-2.83216e-06,1
-4.86258e-05,-4.07348e-05,-1.46538e-05,-5.8853e-05,-6.53369e-05,-1.14643e-05,-1.60248e-06,-3.02208e-06,1
-5.3211e-05,-4.56638e-05,-1.74953e-05,-5.87513e-05,-1.94088e-05,-1.72672e-05,-4.42745e-05,-1.37874e-06,1
-5.37758e-05,-4.24509e-05,-2.03965e-05,-4.56015e-05,3.37354e-05,-2.02797e-05,-4.71484e-05,9.99097e-07,1
-5.37729e-05,-3.73524e-05,-2.26872e-05,-2.05748e-05,8.99433e-05,-1.95657e-05,-1.41439e-05,1.62245e-06,1
-5.32246e-05,-2.80496e-05,-2.3567e-05,3.98038e-06,0.000131005,-1.56959e-05,2.50212e-05,-1.9396e-08,1
-5.06065e-05,-1.3101e-05,-2.28615e-05,1.8289e-05,0.000134716,-1.22051e-05,5.2466e-05,-2.21066e-06,1
-4.62321e-05,2.38518e-06,-2.09172e-05,2.03863e-05,0.000110701,-9.01715e-06,6.11475e-05,-3.72949e-06,1
-3.89094e-05,1.77765e-05,-1.82026e-05,2.4011e-05,8.62026e-05,-3.98699e-06,5.86459e-05,-4.73708e-06,1
-3.21543e-05,2.93259e-05,-1.42178e-05,3.70798e-05,7.02928e-05,4.49757e-06,4.99005e-05,-3.49681e-06,1
-3.00601e-05,3.24546e-05,-1.07101e-05,5.03905e-05,6.96289e-05,1.22144e-05,3.88645e-05,-1.73788e-06,1
-3.18121e-05,3.28961e-05,-8.43861e-06,5.92948e-05,9.60807e-05,1.67843e-05,2.58643e-05,2.84773e-08,1
-3.36691e-05,3.62263e-05,-6.81871e-06,6.3894e-05,0.000130668,1.85129e-05,4.45796e-07,1.58326e-06,1
-3.191e-05,4.12029e-05,-4.59105e-06,6.68497e-05,0.000150847,1.934e-05,-3.97481e-05,2.32254e-06,1
-2.66759e-05,4.35633e-05,-7.63466e-07,6.66121e-05,0.000152441,1.97155e-05,-7.01555e-05,2.39805e-06,1
-2.21989e-05,4.05719e-05,2.78695e-06,5.46292e-05,0.000132355,1.64958e-05,-6.78019e-05,1.86375e-06,1
-2.37537e-05,3.51569e-05,3.82404e-06,2.95106e-05,8.99584e-05,9.32431e-06,-3.69624e-05,2.08062e-06,1
-2.77424e-05,3.28167e-05,2.88789e-06,4.56302e-06,3.78829e-05,2.95763e-06,2.10405e-06,3.08197e-06,1
-2.57782e-05,3.25387e-05,4.49604e-06,-5.90338e-06,-3.55629e-06,3.28546e-06,3.12789e-05,3.61745e-06,1
-1.85117e-05,3.20113e-05,1.0361e-05,-1.06805e-06,-2.29574e-05,8.49728e-06,4.40383e-05,2.98616e-06,1
-1.4188e-05,3.18572e-05,1.61949e-05,1.09488e-05,-2.38576e-05,1.33863e-05,4.15499e-05,1.86066e-06,1
-1.48182e-05,2.98215e-05,1.85517e-05,2.16172e-05,-1.96634e-05,1.67498e-05,3.14477e-05,7.10104e-07,1
-1.66237e-05,2.24635e-05,1.66431e-05,2.20592e-05,-1.64277e-05,1.90661e-05,1.98664e-05,6.75302e-07,1
-2.04254e-05,1.26896e-05,1.08755e-05,5.78617e-06,-2.12423e-05,1.77959e-05,1.15905e-05,6.96523e-07,1
-2.75925e-05,3.79699e-06,2.53751e-06,-2.10824e-05,-4.30369e-05,1.053e-05,2.63019e-06,-1.9262e-07,1
-3.39621e-05,-2.51773e-06,-5.80247e-06,-4.68812e-05,-7.62953e-05,-2.18015e-08,-2.50129e-05,-1.72632e-06,1
-3.57718e-05,-2.55111e-06,-1.20586e-05,-6.8823e-05,-0.00010189,-7.56511e-06,-8.25192e-05,-2.03973e-06,1
-3.41927e-05,3.17218e-06,-1.51594e-05,-8.43036e-05,-0.000106953,-1.23857e-05,-0.000147352,1.31701e-07,1
-3.18908e-05,9.32106e-06,-1.47774e-05,-8.97652e-05,-9.57367e-05,-1.559e-05,-0.00019871,1.98882e-06,1
-3.21343e-05,1.29439e-05,-1.4458e-05,-8.62752e-05,-7.75789e-05,-1.75648e-05,-0.000205713,3.54213e-06,1
-3.47086e-05,1.56171e-05,-1.55108e-05,-7.41027e-05,-4.76656e-05,-2.02168e-05,-0.000127951,5.55843e-06,1
-4.37624e-05,1.61163e-05,-1.60321e-05,-5.2673e-05,-4.38473e-06,-2.44248e-05,8.82952e-06,6.27345e-06,1
-6.17681e-05,1.47136e-05,-1.66284e-05,-2.91592e-05,2.59423e-05,-2.93894e-05,0.000147022,7.01256e-06,1
-7.581e-05,1.72881e-05,-1.56725e-05,-1.13599e-05,3.40592e-05,-3.16712e-05,0.000240825,7.99659e-06,1
-7.57412e-05,2.967e-05,-1.26726e-05,2.70586e-06,3.81155e-05,-2.86221e-05,0.00027096,8.47583e-06,1
-6.06935e-05,4.56998e-05,-9.17374e-06,1.50962e-05,3.73502e-05,-2.21654e-05,0.000251095,8.36173e-06,1
-3.76388e-05,5.04993e-05,-4.97442e-06,2.90223e-05,3.0042e-05,-1.71275e-05,0.000207584,7.97897e-06,1
-1.34509e-05,4.09472e-05,-2.73406e-06,4.15045e-05,1.91177e-05,-1.22387e-05,0.000163529,7.90845e-06,1
1.11811e-05,2.3781e-05,-5.1407e-06,4.0896e-05,1.72462e-06,-6.69256e-06,0.000128028,7.41229e-06,1
2.97126e-05,4.92643e-06,-9.91652e-06,2.42643e-05,-1.94238e-05,-4.22911e-06,0.000102385,6.26573e-06,1
3.59552e-05,-1.36306e-05,-1.29378e-05,3.68926e-06,-2.34698e-05,-6.82199e-06,8.29498e-05,4.85588e-06,1
3.09425e-05,-3.11641e-05,-1.35836e-05,-7.64808e-06,5.03765e-06,-1.34797e-05,6.73406e-05,3.90678e-06,1
1.5913e-05,-4.30151e-05,-1.33227e-05,-7.42557e-06,4.52184e-05,-2.18575e-05,5.20067e-05,2.51752e-06,1
-5.77675e-06,-4.31554e-05,-1.28584e-05,4.88486e-07,7.17749e-05,-2.91769e-05,3.58974e-05,6.26396e-07,1
-2.38905e-05,-2.88899e-05,-1.3185e-05,6.8077e-06,7.86636e-05,-3.21772e-05,1.98325e-05,-3.98733e-07,1
-2.98423e-05,-2.99209e-07,-1.42758e-05,5.41746e-06,7.2037e-05,-3.03246e-05,6.20457e-06,-1.27324e-06,1
-2.51521e-05,3.83637e-05,-1.47304e-05,1.0081e-06,6.087e-05,-2.75453e-05,-1.24232e-06,-3.20174e-06,1
-2.0103e-05,7.21199e-05,-1.32946e-05,-3.76688e-07,5.84523e-05,-2.68043e-05,-3.06535e-06,-4.40341e-06,1
-2.51195e-05,7.88184e-05,-1.18148e-05,-1.71657e-06,6.55108e-05,-2.75651e-05,-3.307e-06,-4.48508e-06,1
-4.08178e-05,5.61539e-05,-1.35409e-05,-8.31962e-06,6.49089e-05,-2.76299e-05,-5.58861e-06,-3.99338e-06,1
-5.82338e-05,2.54866e-05,-1.675e-05,-2.01532e-05,4.73104e-05,-2.61368e-05,-7.93682e-06,-1.89612e-06,1
-6.83967e-05,5.65037e-07,-1.84905e-05,-3.23292e-05,2.47968e-05,-2.56728e-05,-7.83913e-06,1.9764e-06,1
-6.89148e-05,-1.64255e-05,-1.74524e-05,-3.71597e-05,1.34637e-05,-2.63355e-05,-5.90116e-06,5.20808e-06,1
-6.15954e-05,-2.17089e-05,-1.29993e-05,-3.1933e-05,2.68647e-05,-2.61316e-05,-4.73519e-06,7.27814e-06,1
-5.02076e-05,-1.21361e-05,-8.682e-06,-2.02986e-05,6.11347e-05,-2.52662e-05,-4.81138e-06,8.84284e-06,1
-3.94265e-05,2.42573e-06,-6.37954e-06,-1.1211e-05,6.95281e-05,-2.27304e-05,-6.84474e-06,1.05762e-05,1
-3.01261e-05,5.78812e-06,-5.38642e-06,-1.5708e-05,1.21517e-05,-2.21314e-05,-1.09113e-05,1.25407e-05,1
-2.35906e-05,-9.24375e-07,-6.28301e-06,-2.69486e-05,-4.92111e-05,-2.69893e-05,-1.50069e-05,1.1582e-05,1
-2.07178e-05,-9.083e-06,-8.22921e-06,-2.5385e-05,-4.57956e-05,-3.10297e-05,-1.70146e-05,8.99485e-06,1
-1.67764e-05,-1.28473e-05,-1.02631e-05,-1.12095e-05,-7.5703e-06,-2.98407e-05,-2.0308e-05,7.92526e-06,1
-1.1931e-05,-8.08037e-06,-1.28628e-05,1.44507e-06,3.59999e-05,-1.95054e-05,-2.5045e-05,8.39351e-06,1
-1.71197e-05,8.85318e-07,-1.56644e-05,1.13124e-05,8.33256e-05,1.89283e-06,-2.96319e-05,9.93775e-06,1
-3.28984e-05,4.87609e-06,-1.70862e-05,2.38413e-05,0.000116723,2.14792e-05,-3.20355e-05,1.15618e-05,1
-4.64073e-05,-4.45487e-07,-1.52464e-05,3.59471e-05,0.000107571,2.86284e-05,-3.04142e-05,1.22194e-05,1
-5.26956e-05,-9.62927e-06,-1.01754e-05,3.76836e-05,5.38983e-05,2.83258e-05,-2.87797e-05,9.27245e-06,1
-5.27644e-05,-1.72864e-05,-4.56254e-06,2.79986e-05,-1.51815e-05,2.98645e-05,-3.60573e-05,-7.84413e-07,1
-4.54318e-05,-2.37449e-05,-9.73505e-07,1.18764e-05,-7.30368e-05,3.18874e-05,-5.13706e-05,-1.21703e-05,1
-2.83438e-05,-3.17594e-05,-2.28341e-06,-7.85225e-06,-0.000112383,2.22048e-05,-6.06853e-05,-1.69641e-05,1
-1.29013e-05,-3.77558e-05,-8.31341e-06,-2.18015e-05,-0.00012719,-2.09441e-06,-5.39856e-05,-1.46152e-05,1
-1.48901e-05,-3.37816e-05,-1.35512e-05,-2.24719e-05,-0.000115133,-2.74664e-05,-3.31461e-05,-8.31341e-06,1
-2.759e-05,-1.69454e-05,-1.44111e-05,-1.45742e-05,-9.16353e-05,-3.64658e-05,-1.08792e-05,-2.12467e-07,1
-2.99199e-05,5.93015e-06,-1.33861e-05,-8.9369e-06,-7.79575e-05,-2.49905e-05,2.12368e-06,9.26656e-06,1
-1.56914e-05,2.66112e-05,-1.21426e-05,-7.1625e-06,-7.84638e-05,-5.82097e-06,1.19213e-06,1.90263e-05,1
1.141e-06,4.30022e-05,-8.66732e-06,-5.06377e-06,-7.08628e-05,5.73893e-06,-1.10644e-05,2.70506e-05,1
3.36233e-07,5.07636e-05,-2.45011e-06,-3.60075e-07,-3.25234e-05,4.5865e-06,-2.91458e-05,2.87474e-05,1
-2.71562e-05,4.37389e-05,2.26635e-06,4.42622e-06,2.34785e-05,-5.86126e-06,-3.91575e-05,2.29919e-05,1
-6.68572e-05,2.48584e-05,1.15465e-06,4.89711e-06,5.63563e-05,-1.89961e-05,-2.68674e-05,1.55141e-05,1
-9.41661e-05,9.71019e-06,-5.06348e-06,3.60601e-06,6.05388e-05,-2.83338e-05,5.18246e-06,1.10785e-05,1
-9.4278e-05,8.6605e-06,-1.15413e-05,5.29359e-06,6.36052e-05,-3.15919e-05,4.1281e-05,9.61379e-06,1
-7.64993e-05,1.5589e-05,-1.28594e-05,4.86677e-06,7.26145e-05,-3.19587e-05,6.76841e-05,8.82022e-06,1
-5.91805e-05,1.82818e-05,-8.76672e-06,-2.68327e-06,6.99763e-05,-3.37352e-05,8.04505e-05,5.05034e-06,1
-4.57217e-05,1.59567e-05,-5.35871e-06,-1.01874e-05,4.40057e-05,-3.50692e-05,8.25045e-05,-3.64724e-08,1
-4.22841e-05,1.32504e-05,-6.11954e-06,-1.17869e-05,1.1133e-05,-3.41977e-05,7.0311e-05,-1.9163e-06,1
-5.52906e-05,1.15726e-05,-7.5426e-06,-5.94861e-06,8.61598e-07,-3.28783e-05,3.232e-05,-1.38547e-06,1
-6.46032e-05,1.48724e-05,-6.11698e-06,8.36822e-06,1.85197e-05,-2.66907e-05,-6.66078e-06,-3.14518e-06,1
-5.19744e-05,1.87585e-05,-2.6599e-06,2.60473e-05,4.00594e-05,-1.58894e-05,-1.59424e-05,-6.20082e-06,1
-2.61576e-05,1.76921e-05,-4.28781e-07,3.1335e-05,3.64886e-05,-1.01809e-05,2.9965e-07,-6.85882e-06,1
-5.15354e-06,1.7143e-05,1.90958e-07,1.81734e-05,9.49314e-06,-1.12044e-05,3.01583e-05,-6.86344e-06,1
-2.18818e-07,1.87445e-05,-4.03814e-07,1.72417e-06,-3.73376e-06,-1.30319e-05,5.63511e-05,-7.34186e-06,1
-9.19283e-06,1.83168e-05,-2.45787e-06,-6.91156e-06,7.35452e-06,-1.29935e-05,7.10828e-05,-7.91879e-06,1
-2.04906e-05,1.72403e-05,-3.97414e-06,-7.41192e-06,1.63691e-05,-1.21241e-05,7.07922e-05,-7.24809e-06,1
-2.57406e-05,1.9038e-05,-5.33447e-06,-3.65033e-06,1.24956e-05,-9.28751e-06,5.87555e-05,-5.28277e-06,1
-2.38056e-05,2.33919e-05,-7.76263e-06,-2.15725e-06,4.59258e-06,-6.03596e-06,4.45411e-05,-4.04051e-06,1
-1.89566e-05,3.23735e-05,-9.19715e-06,-3.85676e-06,1.1989e-05,-9.09163e-06,3.40146e-05,-4.3967e-06,1
-1.48703e-05,4.63061e-05,-8.23121e-06,-5.32006e-06,3.79349e-05,-2.03276e-05,2.80063e-05,-4.39212e-06,1
-1.34692e-05,6.00146e-05,-6.60316e-06,-4.43763e-06,6.12858e-05,-2.72886e-05,2.32375e-05,-3.23241e-06,1
-1.54149e-05,6.84025e-05,-5.66973e-06,-1.88244e-06,5.82119e-05,-2.07682e-05,1.89785e-05,-2.67442e-06,1
-1.39346e-05,7.12873e-05,-5.36772e-06,3.68632e-06,3.63805e-05,-9.66702e-06,1.39175e-05,-3.10038e-06,1
-1.82441e-06,6.90786e-05,-5.25499e-06,1.43867e-05,3.02801e-05,-4.09311e-06,9.14171e-06,-3.82531e-06,1
