ch1,ch2,ch3,ch4,ch5,ch6,ch7,ch8,class
-7.3123e-06,3.03778e-05,-7.402e-06,2.75345e-05,2.52185e-05,-1.07895e-05,9.6989e-06,1.39379e-06,1
-5.51613e-06,2.11156e-05,-7.15228e-06,2.11582e-05,1.16298e-05,-1.14239e-05,1.02724e-05,7.84498e-07,1
-1.23347e-05,1.51407e-05,-8.60877e-06,9.31838e-06,-8.78397e-06,-1.32832e-05,1.17478e-05,-6.48221e-07,1
-2.17429e-05,1.45494e-05,-8.74204e-06,5.32691e-08,-2.69902e-05,-1.43738e-05,1.46309e-05,-1.11034e-06,1
-2.68846e-05,1.70888e-05,-6.14958e-06,-4.04461e-06,-3.59106e-05,-1.37124e-05,1.71148e-05,-1.1899e-06,1
-2.62038e-05,2.28719e-05,-2.81941e-06,-4.41849e-06,-3.20707e-05,-1.0375e-05,1.67505e-05,-2.4618e-06,1
-2.24544e-05,3.19344e-05,-1.74205e-08,-2.54901e-06,-1.88651e-05,-5.41487e-06,1.43772e-05,-3.16625e-06,1
-1.75393e-05,3.84509e-05,1.32525e-06,-1.16448e-08,-1.51011e-06,-1.77669e-06,1.41632e-05,-9.03441e-07,1
-1.04313e-05,3.51662e-05,2.17644e-07,4.72405e-07,1.38967e-05,-7.70765e-07,1.69644e-05,3.39199e-06,1
-1.44288e-06,2.25496e-05,-2.47577e-06,-1.60294e-06,1.69949e-05,-3.43602e-06,2.0099e-05,5.32929e-06,1
5.483e-06,1.41262e-05,-6.65198e-06,-2.42164e-06,3.66349e-06,-8.34741e-06,1.95113e-05,2.95325e-06,1
6.63864e-06,2.02969e-05,-1.20232e-05,-1.5327e-06,-1.73745e-05,-1.37246e-05,1.47051e-05,-5.26018e-07,1
-7.05389e-08,3.04721e-05,-1.66071e-05,-5.64977e-06,-3.8395e-05,-1.88666e-05,8.70678e-06,-1.38744e-06,1
-1.21773e-05,3.45348e-05,-1.87401e-05,-1.36907e-05,-5.90848e-05,-2.12956e-05,5.37049e-06,6.07727e-07,1
-2.22408e-05,3.33294e-05,-1.87123e-05,-1.75387e-05,-6.91729e-05,-2.29154e-05,7.04585e-06,3.5624e-06,1
-2.69796e-05,2.80304e-05,-1.81962e-05,-1.84651e-05,-6.77603e-05,-2.58656e-05,1.06946e-05,6.40636e-06,1
-2.99985e-05,2.88075e-05,-1.78626e-05,-1.72757e-05,-6.44531e-05,-2.89576e-05,1.3462e-05,7.44791e-06,1
-3.20816e-05,4.04884e-05,-1.73101e-05,-1.45402e-05,-5.8904e-05,-3.22681e-05,1.79255e-05,5.04679e-06,1
-3.47641e-05,4.57956e-05,-1.83998e-05,-1.39056e-05,-4.11439e-05,-3.19979e-05,2.37529e-05,2.54998e-06,1
-3.85183e-05,3.12408e-05,-2.23331e-05,-1.09364e-05,-8.43097e-06,-2.26401e-05,2.9524e-05,1.32847e-06,1
-4.28415e-05,9.19117e-06,-2.59329e-05,-5.59015e-06,1.58637e-05,-8.98204e-06,3.2296e-05,7.80561e-07,1
-4.62978e-05,-2.90585e-06,-2.78536e-05,2.92384e-07,1.83262e-05,-4.45703e-07,3.162e-05,-3.02534e-07,1
-4.63973e-05,-5.1465e-06,-2.73833e-05,6.40848e-06,6.05115e-06,3.27822e-06,2.98473e-05,-1.61943e-06,1
-4.44277e-05,-9.02349e-06,-2.46301e-05,1.38027e-05,-7.72584e-06,4.50154e-06,2.94111e-05,-2.52342e-06,1
-4.25173e-05,-1.98013e-05,-2.23228e-05,1.97373e-05,-1.36697e-05,4.56993e-06,3.0847e-05,-3.28983e-06,1
-4.14557e-05,-3.21742e-05,-2.02879e-05,1.89498e-05,-9.57433e-06,6.33579e-06,3.33441e-05,-3.28752e-06,1
-3.97068e-05,-3.96418e-05,-1.65743e-05,1.2817e-05,7.85069e-06,9.888e-06,3.6458e-05,-1.96353e-06,1
-3.77843e-05,-4.17608e-05,-1.27029e-05,4.43046e-06,3.605e-05,1.19775e-05,3.78916e-05,-1.36248e-07,1
-3.74751e-05,-3.89136e-05,-1.09322e-05,-3.78723e-06,4.99449e-05,9.54168e-06,3.77117e-05,5.63888e-07,1
-3.87661e-05,-2.92149e-05,-1.05006e-05,-1.1041e-05,2.59937e-05,4.28538e-06,3.63894e-05,4.43084e-07,1
-3.94565e-05,-1.64613e-05,-9.25464e-06,-1.60441e-05,-1.48721e-05,-9.94811e-08,3.6137e-05,-1.15178e-07,1
-3.94136e-05,-7.81366e-06,-7.84832e-06,-1.96259e-05,-3.86886e-05,-1.7419e-06,3.68124e-05,-6.37057e-07,1
-4.04235e-05,-5.87445e-06,-7.69981e-06,-2.22604e-05,-3.95362e-05,-1.41535e-06,3.76849e-05,-5.70204e-07,1
-4.18664e-05,-5.64927e-06,-8.0358e-06,-2.23808e-05,-3.40744e-05,-8.45347e-08,3.74165e-05,6.80385e-07,1
-4.29458e-05,-6.48187e-07,-7.32522e-06,-1.74576e-05,-3.23564e-05,1.56745e-06,3.35342e-05,1.89345e-06,1
-4.60686e-05,1.13473e-05,-5.54795e-06,-9.53566e-06,-3.05834e-05,3.61006e-06,2.47868e-05,3.1687e-06,1
-5.34042e-05,2.51269e-05,-3.79017e-06,-4.45181e-06,-2.50652e-05,3.06685e-06,1.57809e-05,3.93754e-06,1
-6.06149e-05,3.63609e-05,-2.18211e-06,-4.90085e-06,-1.80509e-05,-3.28068e-06,1.3467e-05,4.23643e-06,1
-6.07607e-05,4.76226e-05,-8.697e-07,-7.54745e-06,-6.8846e-06,-1.22619e-05,1.73829e-05,4.0828e-06,1
-5.25729e-05,5.91894e-05,2.28562e-07,-6.81907e-06,1.30847e-05,-1.76287e-05,2.1699e-05,4.87419e-06,1
-4.36924e-05,5.92092e-05,1.48659e-07,-7.0209e-07,4.40194e-05,-1.83361e-05,2.35844e-05,8.19812e-06,1
-4.32072e-05,4.22652e-05,-2.35518e-06,7.32426e-06,6.60839e-05,-1.14185e-05,2.49231e-05,9.64547e-06,1
-4.31297e-05,2.60287e-05,-5.80796e-06,1.51474e-05,6.4496e-05,2.72854e-06,2.62064e-05,9.84774e-06,1
-3.31236e-05,2.0571e-05,-7.30864e-06,2.5706e-05,6.04494e-05,1.11075e-05,2.60264e-05,1.05751e-05,1
-2.02797e-05,1.43473e-05,-6.29045e-06,3.17701e-05,6.01609e-05,1.10633e-05,1.85372e-05,1.0291e-05,1
-1.35191e-05,-4.32785e-06,-4.31307e-06,2.06336e-05,5.22442e-05,6.6233e-06,-4.66176e-06,8.90374e-06,1
-1.58476e-05,-2.93148e-05,-3.16901e-06,-4.0387e-06,2.96085e-05,1.38596e-07,-3.32651e-05,7.41761e-06,1
-2.36224e-05,-4.54331e-05,-3.25013e-06,-2.51275e-05,2.18478e-06,-4.96373e-06,-4.60326e-05,7.06479e-06,1
-3.01291e-05,-4.49239e-05,-4.22469e-06,-3.01195e-05,-1.12214e-05,-6.94895e-06,-3.72693e-05,7.4094e-06,1
-3.16218e-05,-2.91491e-05,-4.11838e-06,-2.25563e-05,-4.5845e-07,-5.88939e-06,-1.48699e-05,8.96814e-06,1
-3.16996e-05,-7.1363e-06,-9.26209e-07,-1.26128e-05,2.44812e-05,-4.75573e-06,9.064e-06,1.0187e-05,1
-3.34069e-05,1.16233e-05,2.34342e-06,-8.77674e-06,4.42875e-05,-5.74961e-06,2.65164e-05,1.00801e-05,1
-3.39697e-05,2.35974e-05,3.52389e-06,-1.60416e-05,4.68739e-05,-7.45901e-06,3.45827e-05,8.05578e-06,1
-3.1389e-05,3.02865e-05,2.82225e-06,-2.91874e-05,2.73826e-05,-8.86055e-06,3.35913e-05,4.6328e-06,1
-2.95177e-05,3.27045e-05,1.92326e-06,-3.82899e-05,-8.15773e-06,-1.29869e-05,2.57156e-05,2.05967e-06,1
-3.20568e-05,3.22614e-05,1.94255e-06,-4.02333e-05,-4.0069e-05,-2.03515e-05,1.60768e-05,1.38488e-06,1
-3.6809e-05,3.00368e-05,1.07992e-06,-3.96705e-05,-5.43174e-05,-2.64823e-05,7.49457e-06,2.63538e-06,1
-4.0127e-05,2.55894e-05,-1.76254e-06,-4.017e-05,-6.03876e-05,-2.4604e-05,-1.87418e-06,4.77466e-06,1
-4.00003e-05,2.04526e-05,-6.34811e-06,-4.12245e-05,-6.61328e-05,-1.38659e-05,-1.66471e-05,7.33227e-06,1
-3.87056e-05,1.72343e-05,-1.08843e-05,-3.86228e-05,-6.41877e-05,-2.51258e-06,-3.51161e-05,9.61017e-06,1
-3.84142e-05,1.66612e-05,-1.22936e-05,-3.02988e-05,-4.72684e-05,3.9479e-07,-4.56515e-05,1.05105e-05,1
-3.75538e-05,1.63304e-05,-9.22585e-06,-1.89497e-05,-1.7792e-05,-4.82715e-06,-4.05568e-05,9.72488e-06,1
-3.42936e-05,1.34793e-05,-4.13297e-06,-8.78413e-06,1.90241e-05,-1.01875e-05,-2.3424e-05,9.00324e-06,1
-3.15934e-05,1.0622e-05,4.55517e-07,-3.40358e-06,5.35631e-05,-1.10912e-05,-4.20761e-06,8.77163e-06,1
-3.09183e-05,1.27323e-05,2.74119e-06,-9.45415e-07,7.4215e-05,-1.07782e-05,1.11785e-05,8.57799e-06,1
-2.97975e-05,1.82807e-05,2.12257e-06,7.82896e-06,7.76414e-05,-1.10589e-05,1.98236e-05,7.47981e-06,1
-2.7852e-05,2.21922e-05,-7.50006e-07,2.25494e-05,7.98274e-05,-9.45821e-06,2.24905e-05,5.51923e-06,1
-2.86593e-05,2.21608e-05,-4.11278e-06,3.32395e-05,9.36332e-05,-7.81594e-06,2.37435e-05,3.04417e-06,1
-3.2369e-05,1.71094e-05,-7.20173e-06,3.4184e-05,0.000100073,-7.51507e-06,2.53651e-05,9.78625e-07,1
-3.45764e-05,7.01161e-06,-9.91091e-06,2.89162e-05,8.82761e-05,-8.09305e-06,2.62374e-05,-1.13093e-06,1
-3.31676e-05,-2.20117e-06,-8.62299e-06,2.14004e-05,7.24367e-05,-7.31249e-06,2.29582e-05,-2.15273e-06,1
-2.89401e-05,-6.77699e-06,-4.41197e-06,1.22976e-05,5.93023e-05,-7.38094e-06,1.84664e-05,-2.24005e-06,1
-2.69618e-05,-7.86485e-06,-1.7244e-06,3.88292e-06,4.866e-05,-7.3661e-06,1.58943e-05,-3.20007e-06,1
-2.78285e-05,-7.41788e-06,-1.87543e-06,-4.85453e-06,3.67585e-05,-3.97013e-06,1.24872e-05,-4.09574e-06,1
-2.81823e-05,-3.15798e-06,-4.49668e-06,-1.24803e-05,2.65505e-05,-2.58934e-06,8.0604e-06,-4.09815e-06,1
-2.78428e-05,1.01013e-05,-6.3008e-06,-1.70622e-05,2.37628e-05,-4.38359e-06,3.32126e-06,-3.50538e-06,1
-2.53632e-05,3.07877e-05,-5.22358e-06,-1.71882e-05,2.9751e-05,-7.00849e-06,7.01417e-07,-3.47972e-06,1
-2.20372e-05,5.03529e-05,-3.11236e-06,-1.55478e-05,3.5059e-05,-7.71899e-06,6.97637e-07,-3.76112e-06,1
-2.02193e-05,6.10755e-05,-2.00936e-06,-1.37911e-05,3.04128e-05,-7.69303e-06,1.67416e-06,-4.62738e-06,1
-1.95136e-05,6.32805e-05,-1.54632e-06,-1.07588e-05,2.18675e-05,-8.14949e-06,3.70504e-06,-5.79898e-06,1
-1.75635e-05,5.82513e-05,-6.0542e-07,-5.15536e-06,1.50054e-05,-7.78979e-06,8.43904e-06,-6.76957e-06,1
-1.56958e-05,4.46331e-05,1.50289e-07,1.36708e-06,7.36049e-06,-8.22287e-06,1.49125e-05,-6.44354e-06,1
-1.69776e-05,2.36527e-05,-3.03344e-07,5.95591e-06,-7.20355e-06,-1.35446e-05,2.0264e-05,-4.615e-06,1
-1.99636e-05,3.44211e-06,-1.80535e-06,8.21712e-06,-1.62784e-05,-2.23724e-05,2.29378e-05,-2.46912e-06,1
-2.24049e-05,-6.21971e-06,-3.42443e-06,7.91792e-06,3.50573e-06,-2.6373e-05,2.30469e-05,-1.7272e-06,1
-2.32057e-05,-3.37742e-06,-4.55447e-06,6.74353e-06,4.77082e-05,-2.35162e-05,2.25098e-05,-2.49506e-06,1
-2.25359e-05,4.14898e-06,-6.01156e-06,3.66759e-06,7.43751e-05,-1.91495e-05,2.28281e-05,-3.54587e-06,1
-2.1641e-05,9.24089e-06,-8.11564e-06,-2.62172e-06,6.47777e-05,-1.63068e-05,2.30953e-05,-3.91813e-06,1
-2.15104e-05,1.62742e-05,-9.26252e-06,-9.86195e-06,4.43265e-05,-1.4197e-05,2.1766e-05,-3.83989e-06,1
-2.06716e-05,2.78725e-05,-8.04486e-06,-1.45354e-05,3.72667e-05,-1.36818e-05,1.28827e-05,-3.28882e-06,1
-1.93185e-05,3.2363e-05,-6.00026e-06,-1.62508e-05,4.19332e-05,-1.47924e-05,-2.13882e-05,-3.08183e-06,1
-1.87572e-05,2.10145e-05,-7.11311e-06,-1.55745e-05,4.36015e-05,-1.56136e-05,-8.00752e-05,-4.2226e-06,1
-2.11892e-05,1.24885e-06,-1.22332e-05,-1.44489e-05,2.86559e-05,-1.62877e-05,-0.000117346,-5.498e-06,1
-2.42552e-05,-1.39663e-05,-1.67486e-05,-1.10086e-05,5.16367e-06,-1.92481e-05,-0.000100726,-6.7634e-06,1
-2.29055e-05,-2.22855e-05,-1.76686e-05,-6.0907e-06,-9.34113e-06,-1.72269e-05,-4.12662e-05,-8.07159e-06,1
-1.62361e-05,-2.46199e-05,-1.71909e-05,-6.18942e-06,-1.83373e-05,-5.78286e-06,2.65257e-05,-8.61005e-06,1
-8.35287e-06,-1.95149e-05,-1.67053e-05,-1.03807e-05,-2.18557e-05,7.8621e-06,7.86477e-05,-9.0169e-06,1
-6.13301e-06,-1.19194e-05,-1.48797e-05,-1.16947e-05,-1.63752e-05,1.52519e-05,0.000110567,-9.95843e-06,1
-9.99429e-06,-5.12053e-06,-1.17085e-05,-3.39528e-06,-8.05368e-06,1.40211e-05,0.000114857,-9.02702e-06,1
-1.76911e-05,2.90714e-06,-8.19366e-06,1.2265e-05,-5.65929e-06,9.25053e-06,9.95527e-05,-6.50937e-06,1
-2.61037e-05,1.09347e-05,-6.94852e-06,2.06135e-05,-6.99675e-06,4.05048e-06,7.69934e-05,-3.1427e-06,1
-3.31996e-05,1.37251e-05,-8.1966e-06,1.83095e-05,1.53221e-06,-1.46319e-06,5.95542e-05,9.82227e-07,1
-3.97471e-05,1.39675e-05,-8.71269e-06,1.51433e-05,2.2895e-05,-8.08584e-06,4.87351e-05,3.20874e-06,1
-4.55301e-05,1.64438e-05,-9.38844e-06,1.68125e-05,4.52648e-05,-1.26039e-05,3.9776e-05,2.03047e-06,1
-4.97467e-05,2.10566e-05,-9.74934e-06,2.18044e-05,4.80222e-05,-1.20461e-05,2.9981e-05,7.64845e-07,1
-5.15981e-05,2.51062e-05,-9.30813e-06,2.37732e-05,2.74718e-05,-6.26409e-06,1.89177e-05,1.70803e-06,1
-5.13589e-05,2.69696e-05,-8.30616e-06,1.82968e-05,2.64207e-06,-3.90536e-07,1.00819e-05,2.41716e-06,1
-4.92435e-05,2.597e-05,-8.45004e-06,6.11056e-06,-1.15885e-05,2.55989e-06,4.44581e-06,1.02311e-06,1
-4.70753e-05,2.03289e-05,-1.20381e-05,-9.31106e-06,-2.03906e-05,1.88245e-07,2.01484e-06,-1.99925e-06,1
-4.54791e-05,1.16103e-05,-1.74653e-05,-2.47036e-05,-4.13409e-05,-1.46735e-05,4.28496e-07,-3.32438e-06,1
-4.13297e-05,4.78463e-06,-2.12395e-05,-3.53872e-05,-7.91355e-05,-3.60668e-05,4.12329e-07,-1.93881e-06,1
-3.38682e-05,2.26294e-06,-2.09794e-05,-4.13049e-05,-0.000120716,-4.68075e-05,9.8064e-07,-7.34744e-07,1
-2.77644e-05,1.52981e-06,-1.92396e-05,-4.26406e-05,-0.00014615,-4.24768e-05,1.83226e-06,-1.74437e-06,1
-2.5383e-05,2.67146e-06,-1.89058e-05,-3.81952e-05,-0.000146142,-3.32684e-05,7.82016e-07,-3.65166e-06,1
-2.46504e-05,7.77239e-06,-2.00754e-05,-3.00793e-05,-0.00012813,-2.68002e-05,-1.52397e-06,-4.74924e-06,1
-2.45141e-05,1.55184e-05,-2.02452e-05,-2.09132e-05,-0.000107463,-2.50136e-05,-3.04518e-06,-5.37798e-06,1
-2.43212e-05,2.09787e-05,-1.73868e-05,-1.24008e-05,-9.33308e-05,-2.56998e-05,2.20693e-08,-5.09054e-06,1
-2.34228e-05,2.26389e-05,-1.26712e-05,-7.44904e-06,-8.56398e-05,-2.61966e-05,7.33326e-06,-3.60955e-06,1
-2.28795e-05,2.25625e-05,-9.46363e-06,-3.70638e-06,-6.95166e-05,-2.38645e-05,1.63249e-05,-2.22657e-06,1
-2.39708e-05,2.31208e-05,-9.44848e-06,5.103e-06,-2.02312e-05,-1.84752e-05,2.30772e-05,-1.28409e-06,1
-2.55198e-05,2.61736e-05,-1.09985e-05,2.00276e-05,5.282e-05,-1.08574e-05,2.57598e-05,-4.36801e-08,1
-2.63556e-05,3.13353e-05,-1.01928e-05,3.80311e-05,0.000121066,-2.16285e-06,2.7165e-05,1.42541e-06,1
-2.66162e-05,3.35284e-05,-7.29614e-06,4.79374e-05,0.000177827,4.84661e-06,2.8027e-05,2.77096e-06,1
-2.79953e-05,3.40053e-05,-6.15707e-06,4.45378e-05,0.000208874,1.12047e-05,2.7394e-05,2.14763e-06,1
-2.83019e-05,4.07296e-05,-6.78106e-06,3.22536e-05,0.000195975,1.54571e-05,2.47652e-05,1.95706e-07,1
-2.80835e-05,4.66895e-05,-6.19866e-06,1.80606e-05,0.000155161,1.44447e-05,2.14289e-05,8.28117e-07,1
-3.21039e-05,3.97357e-05,-5.53244e-06,1.02369e-05,0.000111541,8.74321e-06,1.4586e-05,2.63037e-06,1
-3.81096e-05,2.28829e-05,-5.50392e-06,8.27262e-06,7.25787e-05,1.96203e-06,-8.33102e-06,4.42735e-06,1
-4.22498e-05,5.937e-06,-4.08363e-06,1.26704e-05,4.76614e-05,-2.98341e-06,-4.568e-05,4.92717e-06,1
-4.24744e-05,-5.45133e-06,-1.36882e-06,1.88775e-05,3.50456e-05,-6.98133e-06,-7.20643e-05,4.30673e-06,1
-3.94119e-05,-1.04685e-05,3.00776e-07,2.23643e-05,3.62874e-05,-8.36434e-06,-6.88249e-05,4.35166e-06,1
-3.49437e-05,-1.06473e-05,-3.47274e-07,2.36722e-05,5.95525e-05,-5.49277e-06,-3.79188e-05,4.05636e-06,1
-2.59319e-05,-5.71047e-06,-4.82926e-07,2.17345e-05,9.69215e-05,-7.63811e-07,2.67243e-06,3.24285e-06,1
-1.07297e-05,2.49588e-06,-1.83044e-07,1.22256e-05,0.000122517,2.131e-06,3.76947e-05,1.71533e-06,1
4.07248e-07,6.54245e-06,-7.95498e-07,-5.92556e-06,0.000113674,2.5527e-06,5.94308e-05,5.18765e-07,1
-2.72337e-06,3.71843e-06,-2.52076e-06,-2.39191e-05,7.3747e-05,2.21238e-06,6.77773e-05,4.43455e-07,1
-1.55774e-05,1.61999e-06,-4.1254e-06,-3.50511e-05,2.65685e-05,1.90656e-06,6.68457e-05,1.58297e-06,1
-2.69896e-05,4.90642e-06,-4.53072e-06,-3.84589e-05,-3.17922e-06,7.33575e-07,6.15574e-05,2.65788e-06,1
-3.30742e-05,9.30924e-06,-3.92262e-06,-3.96992e-05,-1.55131e-05,-2.09966e-06,5.50209e-05,3.42651e-06,1
-3.61341e-05,1.17394e-05,-3.58793e-06,-4.14515e-05,-1.96027e-05,-5.95871e-06,4.82309e-05,3.47384e-06,1
-3.91851e-05,1.21112e-05,-4.89306e-06,-4.28792e-05,-1.94802e-05,-1.05465e-05,4.13596e-05,2.98591e-06,1
-4.16817e-05,8.20599e-06,-6.54021e-06,-4.03145e-05,-1.23447e-05,-1.49138e-05,3.55931e-05,3.12191e-06,1
-4.05625e-05,1.07175e-06,-6.79368e-06,-3.28019e-05,-1.85516e-06,-1.81924e-05,3.04865e-05,3.05695e-06,1
-3.65724e-05,-1.1354e-06,-6.28023e-06,-2.41939e-05,6.81864e-06,-2.02362e-05,2.38481e-05,2.41098e-06,1
-3.14014e-05,4.98835e-06,-6.46632e-06,-1.96736e-05,1.04931e-05,-2.24368e-05,1.57231e-05,3.07764e-06,1
-2.69401e-05,1.17471e-05,-7.52401e-06,-1.86664e-05,1.1148e-05,-2.3554e-05,8.38964e-06,3.88261e-06,1
-2.59942e-05,1.39412e-05,-8.56159e-06,-1.57754e-05,1.62688e-05,-2.09553e-05,3.43433e-06,3.32521e-06,1
-2.79691e-05,1.2292e-05,-9.30199e-06,-1.0719e-05,2.90868e-05,-1.60821e-05,7.53311e-07,2.63844e-06,1
-3.02996e-05,8.06236e-06,-9.20672e-06,-9.56683e-06,3.34131e-05,-1.27658e-05,-3.51141e-07,1.46368e-06,1
-3.1668e-05,5.3005e-06,-8.42249e-06,-1.92604e-05,5.25612e-06,-1.24471e-05,-2.20538e-06,1.50843e-06,1
-3.2742e-05,5.58668e-06,-8.64448e-06,-3.25805e-05,-4.2936e-05,-1.39644e-05,-2.94846e-06,2.30753e-06,1
-3.56527e-05,6.13474e-06,-1.0473e-05,-3.71439e-05,-7.69758e-05,-1.73074e-05,-1.05432e-06,4.16009e-06,1
-3.95899e-05,5.51449e-06,-1.13033e-05,-3.47512e-05,-9.15144e-05,-2.15522e-05,2.59369e-06,7.48276e-06,1
-4.27214e-05,5.43876e-06,-8.67729e-06,-2.84703e-05,-9.73761e-05,-2.13048e-05,7.41144e-06,9.22785e-06,1
-4.27103e-05,6.14272e-06,-5.00824e-06,-1.83799e-05,-9.09274e-05,-1.35877e-05,1.32853e-05,9.37584e-06,1
-3.91219e-05,6.56723e-06,-2.41431e-06,-6.23011e-06,-5.46669e-05,-2.75467e-06,1.86704e-05,8.58908e-06,1
-3.4874e-05,8.29979e-06,-1.66048e-06,5.09697e-06,1.27495e-05,6.07694e-06,2.13475e-05,7.02924e-06,1
-3.17751e-05,1.13053e-05,-7.69495e-07,1.34979e-05,7.25199e-05,1.01289e-05,2.19164e-05,5.60252e-06,1
-2.88041e-05,1.63556e-05,3.98369e-07,1.82391e-05,8.89274e-05,9.47005e-06,2.12013e-05,5.03458e-06,1
-2.49201e-05,2.16082e-05,6.97364e-09,2.03643e-05,7.3511e-05,8.55557e-06,1.91669e-05,3.89165e-06,1
-2.43545e-05,2.31717e-05,-1.51728e-06,2.39456e-05,5.99002e-05,7.51059e-06,1.50252e-05,2.59727e-06,1
-2.95054e-05,2.07127e-05,-3.42701e-06,2.70859e-05,5.11256e-05,3.85269e-06,9.65669e-06,2.16317e-06,1
-3.57667e-05,1.6535e-05,-5.6732e-06,2.71523e-05,3.65491e-05,-2.92868e-08,5.81634e-06,1.76313e-06,1
-3.88675e-05,1.33671e-05,-7.59201e-06,2.41261e-05,1.88738e-05,-9.50291e-07,4.5888e-06,1.75874e-06,1
-3.82242e-05,1.12314e-05,-8.61311e-06,1.93392e-05,1.05572e-05,3.78208e-07,4.58736e-06,1.71219e-06,1
-3.37035e-05,1.12921e-05,-8.73082e-06,1.28159e-05,1.62117e-05,1.12793e-06,3.67142e-06,1.39412e-06,1
-2.75846e-05,1.43389e-05,-8.32231e-06,5.15322e-06,2.35868e-05,-1.85166e-07,1.19126e-06,6.91066e-07,1
-2.55567e-05,1.84985e-05,-9.01941e-06,-2.56373e-06,1.83723e-05,-3.21273e-06,-1.92549e-06,-3.26996e-07,1
-3.17223e-05,2.00971e-05,-1.06666e-05,-7.86061e-06,4.46056e-06,-6.38451e-06,-3.85147e-06,-6.58039e-07,1
-4.41937e-05,1.62495e-05,-1.16706e-05,-1.08523e-05,-4.07223e-06,-9.54717e-06,-4.04622e-06,1.40846e-06,1
-5.33788e-05,8.12839e-06,-1.13932e-05,-1.57549e-05,-3.49436e-06,-1.21363e-05,-3.14924e-06,3.91896e-06,1
-5.23759e-05,-9.60646e-07,-1.19992e-05,-2.03384e-05,-1.75765e-06,-1.45159e-05,-2.11999e-06,4.85905e-06,1
-4.53734e-05,-8.13861e-06,-1.36311e-05,-2.18317e-05,-7.15498e-06,-1.65292e-05,-3.32064e-07,5.31932e-06,1
-3.84375e-05,-1.11843e-05,-1.53655e-05,-2.43951e-05,-1.69905e-05,-1.71458e-05,1.11065e-06,6.34054e-06,1
-3.33609e-05,-8.61696e-06,-1.68451e-05,-3.04095e-05,-2.39517e-05,-1.50224e-05,1.82091e-06,6.56224e-06,1
-2.51496e-05,5.53191e-06,-1.71765e-05,-3.39129e-05,-2.86078e-05,-1.05741e-05,2.84854e-06,3.91003e-06,1
-1.21163e-05,1.91341e-05,-1.58924e-05,-3.12455e-05,-3.24551e-05,-7.95557e-06,3.12676e-06,1.89628e-06,1
-3.90731e-06,1.52446e-05,-1.41721e-05,-2.76011e-05,-3.23177e-05,-8.6691e-06,1.70223e-06,2.37256e-06,1
-9.31677e-06,7.61474e-06,-1.2767e-05,-2.11339e-05,-2.89862e-05,-1.04674e-05,-4.55968e-06,2.70773e-06,1
-2.47529e-05,1.3329e-05,-1.19596e-05,-1.11672e-05,-2.84041e-05,-1.19715e-05,-1.36526e-05,1.60165e-06,1
-3.61928e-05,2.57367e-05,-1.21777e-05,-1.72521e-06,-3.34009e-05,-9.83883e-06,-1.98375e-05,1.05397e-06,1
-3.51242e-05,2.96663e-05,-1.20416e-05,9.35027e-06,-3.36327e-05,-5.01799e-06,-2.07262e-05,2.33186e-06,1
-2.50038e-05,2.73195e-05,-1.08771e-05,2.30592e-05,-1.24503e-05,-2.82254e-06,-1.69172e-05,3.41356e-06,1
-1.70819e-05,2.40058e-05,-9.00426e-06,3.78395e-05,3.76506e-05,-3.20271e-06,-1.09785e-05,3.79541e-06,1
-1.66165e-05,2.0179e-05,-8.00322e-06,4.83955e-05,9.01922e-05,-5.10908e-06,-4.49195e-06,4.50446e-06,1
-1.94682e-05,1.70285e-05,-8.16693e-06,5.15144e-05,0.000113035,-7.12559e-06,2.31397e-06,5.50154e-06,1
-2.19355e-05,1.59217e-05,-8.30712e-06,4.82747e-05,0.000104825,-9.18518e-06,9.60051e-06,5.30464e-06,1
-2.34728e-05,1.53694e-05,-7.46811e-06,4.30443e-05,8.27136e-05,-1.24289e-05,1.16513e-05,5.13986e-06,1
-2.54409e-05,1.32917e-05,-5.76316e-06,3.74346e-05,5.88704e-05,-1.57863e-05,7.60481e-08,6.85447e-06,1
-2.67883e-05,1.07341e-05,-3.73714e-06,2.80743e-05,3.05265e-05,-1.72414e-05,-1.87353e-05,8.4142e-06,1
-2.5336e-05,8.97757e-06,-1.37359e-06,1.25239e-05,-7.99556e-08,-1.43098e-05,-2.66479e-05,7.25812e-06,1
-2.14351e-05,8.26569e-06,6.08664e-08,-5.9617e-06,-1.69732e-05,-4.35869e-06,-1.44903e-05,4.64187e-06,1
-2.01601e-05,8.02181e-06,-7.09122e-07,-2.37677e-05,-9.97326e-06,9.30709e-06,1.05471e-05,4.22553e-06,1
-2.3507e-05,1.10128e-05,-3.08521e-06,-3.81866e-05,4.58297e-06,1.44188e-05,3.49778e-05,5.15263e-06,1
-2.73441e-05,1.88889e-05,-5.3895e-06,-4.6268e-05,9.48253e-06,4.1206e-06,5.13411e-05,5.20458e-06,1
-2.89319e-05,2.92414e-05,-6.97271e-06,-4.89616e-05,1.05204e-05,-1.31426e-05,5.83333e-05,4.76832e-06,1
-2.94897e-05,3.60153e-05,-7.76962e-06,-5.09222e-05,1.17805e-05,-2.25915e-05,5.69722e-05,3.99172e-06,1
-3.34017e-05,3.53373e-05,-8.05425e-06,-5.84657e-05,3.38196e-06,-1.32881e-05,4.95145e-05,4.00896e-06,1
-4.02122e-05,3.23761e-05,-8.32779e-06,-6.87056e-05,-1.74681e-05,8.1801e-06,3.50819e-05,5.51369e-06,1
-4.31577e-05,3.36102e-05,-8.94799e-06,-7.14456e-05,-3.86152e-05,1.813e-05,1.30716e-05,6.29388e-06,1
-4.22325e-05,3.26849e-05,-9.12629e-06,-6.66103e-05,-5.58075e-05,8.3327e-06,-4.87212e-06,5.64781e-06,1
-4.07121e-05,2.50202e-05,-8.56884e-06,-6.39621e-05,-7.81485e-05,-4.40191e-06,-6.69288e-06,5.15665e-06,1
-3.96964e-05,1.41638e-05,-8.41371e-06,-6.24592e-05,-0.000104592,-9.13483e-06,7.08062e-06,5.09957e-06,1
-3.6948e-05,4.81717e-06,-9.43134e-06,-5.42897e-05,-0.000122029,-1.08897e-05,2.42534e-05,5.38413e-06,1
-3.30095e-05,-1.25043e-07,-8.78681e-06,-3.63196e-05,-0.000124387,-1.42411e-05,3.68749e-05,6.14467e-06,1
-3.22499e-05,-4.95561e-06,-5.58475e-06,-1.16187e-05,-0.000108027,-1.81463e-05,4.8453e-05,6.70774e-06,1
-3.23459e-05,-1.0355e-05,-3.53451e-06,6.24354e-06,-6.62672e-05,-2.27932e-05,5.82679e-05,8.10431e-06,1
-3.26446e-05,-1.35656e-05,-3.69542e-06,1.22631e-05,-6.29309e-06,-2.65193e-05,6.43685e-05,8.02009e-06,1
-3.09226e-05,-1.3063e-05,-5.21865e-06,1.2379e-05,4.70901e-05,-2.62269e-05,6.43528e-05,5.65818e-06,1
-2.72423e-05,-8.91089e-06,-3.89903e-06,1.41264e-05,7.12089e-05,-2.34454e-05,5.87352e-05,4.21659e-06,1
-2.49856e-05,-1.20863e-06,-9.5588e-07,2.06355e-05,7.69748e-05,-2.01994e-05,5.22569e-05,3.25318e-06,1
-2.60644e-05,1.04981e-05,1.35793e-06,3.00806e-05,9.60553e-05,-1.70842e-05,4.90883e-05,1.46238e-06,1
-2.90064e-05,2.36539e-05,2.52563e-06,4.24625e-05,0.00013507,-1.46754e-05,4.67594e-05,-3.42732e-07,1
-3.09469e-05,3.45053e-05,1.46979e-06,5.30533e-05,0.000166597,-1.34562e-05,4.09399e-05,-4.85823e-07,1
-3.07379e-05,4.05894e-05,4.70448e-07,5.82223e-05,0.000171447,-1.16179e-05,3.408e-05,-4.85217e-07,1
-2.93394e-05,4.33668e-05,1.35632e-06,5.68388e-05,0.000158403,-5.04562e-06,2.87974e-05,-1.82157e-06,1
-2.84322e-05,4.23643e-05,3.19124e-06,5.17447e-05,0.000142189,9.33327e-06,2.64859e-05,-3.0354e-06,1
-2.71575e-05,3.69241e-05,3.05611e-06,4.57989e-05,0.000123744,2.35808e-05,2.4891e-05,-2.3979e-06,1
-2.56775e-05,2.90349e-05,1.60047e-06,3.93186e-05,0.000104914,2.58249e-05,2.14612e-05,-1.36476e-06,1
-2.47484e-05,1.87887e-05,-5.06715e-08,3.22208e-05,0.000103869,1.64048e-05,1.65815e-05,-6.12695e-07,1
-2.59251e-05,4.74174e-06,-1.9149e-06,2.44303e-05,0.000118394,3.77114e-06,1.2115e-05,1.12984e-06,1
-2.95689e-05,-1.21083e-05,-4.36978e-06,1.65302e-05,0.000119752,-5.74025e-06,9.51451e-06,3.99078e-06,1
-3.54042e-05,-2.74966e-05,-6.5261e-06,1.08692e-05,9.43372e-05,-1.2383e-05,1.01312e-05,6.19955e-06,1
-4.07175e-05,-3.68509e-05,-8.12033e-06,7.62877e-06,5.85705e-05,-1.8072e-05,1.14886e-05,6.09146e-06,1
-4.26136e-05,-3.66179e-05,-1.00367e-05,5.15532e-06,3.00358e-05,-2.21883e-05,1.02108e-05,3.73222e-06,1
-3.94201e-05,-2.65956e-05,-1.13727e-05,2.50547e-06,8.93432e-06,-2.46868e-05,6.68605e-06,1.36346e-06,1
-3.43377e-05,-9.15546e-06,-1.08796e-05,-3.94841e-06,-1.30478e-05,-2.63461e-05,1.49951e-06,1.69772e-06,1
-2.98712e-05,1.16768e-05,-9.97595e-06,-1.20188e-05,-3.18669e-05,-2.86027e-05,-3.91429e-06,2.12358e-06,1
-2.58508e-05,2.94148e-05,-9.55411e-06,-1.73631e-05,-3.96824e-05,-3.20601e-05,-6.81272e-06,-2.47329e-09,1
-2.34661e-05,4.13429e-05,-1.01163e-05,-1.89336e-05,-3.46792e-05,-3.64929e-05,-7.4826e-06,-3.06618e-06,1
-2.55871e-05,4.48104e-05,-1.03452e-05,-1.87267e-05,-2.22351e-05,-4.02086e-05,-8.26967e-06,-5.3012e-06,1
-3.01465e-05,3.63983e-05,-8.75548e-06,-1.7939e-05,-1.05536e-05,-3.92663e-05,-9.59811e-06,-6.53856e-06,1
-3.06173e-05,2.06388e-05,-6.66232e-06,-1.73655e-05,-4.54402e-06,-3.41216e-05,-1.05245e-05,-6.88914e-06,1
-2.60343e-05,8.8382e-06,-6.54623e-06,-1.67044e-05,-7.48448e-06,-2.97203e-05,-1.04258e-05,-6.85956e-06,1
-1.89645e-05,1.61648e-05,-8.16954e-06,-1.46925e-05,-1.33262e-05,-2.9576e-05,-8.96637e-06,-6.89741e-06,1
-1.48734e-05,3.28648e-05,-1.02673e-05,-1.22973e-05,-1.66198e-05,-3.1144e-05,-7.1816e-06,-6.97803e-06,1
-1.72454e-05,3.72489e-05,-1.1947e-05,-1.11118e-05,-1.70056e-05,-3.17748e-05,-6.62508e-06,-6.9665e-06,1
-2.41343e-05,2.72329e-05,-1.11211e-05,-9.96298e-06,-1.57768e-05,-3.06345e-05,-6.60556e-06,-5.51333e-06,1
-2.95335e-05,1.28513e-05,-9.75166e-06,-8.03947e-06,-1.1049e-05,-2.68848e-05,-6.76422e-06,-3.70145e-06,1
-3.13281e-05,-5.21021e-07,-8.75761e-06,-7.7389e-06,-1.71898e-07,-2.23962e-05,-5.97675e-06,-3.04704e-06,1
-3.12203e-05,-1.28425e-05,-9.06378e-06,-1.01864e-05,9.96227e-06,-1.98293e-05,-4.08639e-06,-2.41687e-06,1
-3.17281e-05,-1.80902e-05,-1.01815e-05,-1.4646e-05,1.00219e-05,-1.85817e-05,-4.37661e-07,-1.19213e-06,1
-3.29296e-05,-8.54079e-06,-1.11813e-05,-1.8915e-05,-1.26212e-06,-1.81202e-05,3.49369e-06,8.33509e-07,1
-3.0877e-05,1.25943e-05,-1.1855e-05,-2.21501e-05,-1.58085e-05,-1.74858e-05,6.01968e-06,2.80757e-06,1
-2.34405e-05,3.18852e-05,-1.27067e-05,-2.41836e-05,-2.25897e-05,-1.56792e-05,6.71621e-06,3.84379e-06,1
-1.51758e-05,4.20602e-05,-1.34681e-05,-2.36992e-05,-2.41009e-05,-1.33923e-05,6.20646e-06,3.93339e-06,1
-1.26569e-05,4.19212e-05,-1.30313e-05,-2.07163e-05,-3.08157e-05,-1.10848e-05,6.16531e-06,4.10404e-06,1
-1.72263e-05,3.4299e-05,-1.23217e-05,-1.78321e-05,-4.41705e-05,-1.00055e-05,6.89681e-06,4.09376e-06,1
-2.64079e-05,2.56341e-05,-1.22023e-05,-1.69189e-05,-5.86916e-05,-9.49167e-06,7.76703e-06,3.22444e-06,1
-3.6264e-05,2.34494e-05,-1.39502e-05,-1.76391e-05,-7.1677e-05,-8.8551e-06,7.72325e-06,2.25271e-06,1
-4.43899e-05,2.6916e-05,-1.79189e-05,-1.70074e-05,-8.04263e-05,-8.80248e-06,7.06456e-06,1.38128e-06,1
-4.97005e-05,2.9574e-05,-2.10591e-05,-1.24368e-05,-7.7981e-05,-8.97256e-06,5.89817e-06,1.81049e-06,1
-5.27684e-05,2.83776e-05,-1.99329e-05,-2.65888e-06,-5.12837e-05,-8.61237e-06,5.70455e-06,3.28843e-06,1
-5.57336e-05,2.66752e-05,-1.54208e-05,1.15696e-05,7.97435e-06,-6.9683e-06,6.99226e-06,2.44922e-06,1
-5.92815e-05,2.89855e-05,-1.00518e-05,2.48304e-05,8.31211e-05,-3.05927e-06,8.5028e-06,-6.23855e-07,1
-6.36974e-05,3.31016e-05,-7.54149e-06,2.93488e-05,0.000133854,2.69418e-10,8.7573e-06,-2.35179e-06,1
-6.94046e-05,2.90064e-05,-8.38057e-06,2.29194e-05,0.000126235,2.99162e-07,8.97673e-06,-2.4896e-06,1
-6.98131e-05,1.71654e-05,-9.49543e-06,1.42194e-05,7.8697e-05,-1.94872e-07,1.07142e-05,-2.40426e-06,1
-6.2838e-05,1.07452e-05,-9.20969e-06,1.12814e-05,4.20956e-05,1.50355e-06,1.42053e-05,-2.06401e-06,1
-5.46672e-05,1.04653e-05,-6.79653e-06,1.33044e-05,2.87242e-05,1.90658e-06,1.80421e-05,-1.26499e-06,1
-4.70176e-05,9.23e-06,-4.25678e-06,1.10005e-05,1.70739e-05,-1.5473e-06,1.99143e-05,-5.66311e-07,1
-3.56448e-05,7.87285e-06,-3.2994e-06,-2.24295e-06,6.98288e-06,-3.93293e-06,1.71249e-05,3.61992e-08,1
-1.58268e-05,1.33343e-05,-1.7879e-06,-2.0719e-05,1.16436e-05,-3.84345e-06,9.26996e-06,1.15992e-06,1
4.99199e-07,2.05519e-05,5.37461e-07,-3.43216e-05,2.64097e-05,-2.84492e-06,-2.58647e-06,2.55404e-06,1
1.81728e-06,2.07349e-05,1.79102e-06,-4.10307e-05,2.79776e-05,-1.93587e-06,-3.43383e-05,4.80067e-06,1
-5.48688e-06,1.61482e-05,8.8951e-07,-4.82195e-05,1.69583e-06,-2.55778e-06,-8.75538e-05,5.95795e-06,1
-1.25886e-05,9.86967e-06,-1.07102e-06,-5.63765e-05,-3.69152e-05,-5.87188e-06,-0.000124462,4.9438e-06,1
-1.65636e-05,2.80948e-06,-3.01667e-06,-5.94567e-05,-6.18512e-05,-1.03448e-05,-0.000116215,3.97037e-06,1
-1.97588e-05,-2.31996e-06,-4.85769e-06,-5.52487e-05,-5.96929e-05,-1.61539e-05,-6.83052e-05,4.20066e-06,1
-2.38967e-05,-3.85063e-06,-6.38205e-06,-4.60492e-05,-4.53474e-05,-2.2146e-05,-7.70959e-06,5.59703e-06,1
-2.8751e-05,-4.52282e-06,-6.23459e-06,-3.49692e-05,-4.12273e-05,-2.44765e-05,4.45006e-05,6.6407e-06,1
-3.14919e-05,-6.77305e-06,-5.10747e-06,-2.37395e-05,-4.74787e-05,-2.07866e-05,8.15591e-05,5.81094e-06,1
-3.02122e-05,-9.79983e-06,-5.75511e-06,-1.24967e-05,-4.65718e-05,-1.14826e-05,0.000103099,3.62121e-06,1
-2.68235e-05,-1.06814e-05,-8.22761e-06,-3.23728e-06,-3.17648e-05,1.53174e-07,0.000109466,2.72184e-06,1
-2.59652e-05,-8.07003e-06,-1.05526e-05,-1.74174e-06,-1.07083e-05,5.18105e-06,0.000103395,2.51947e-06,1
-2.88029e-05,-4.39426e-06,-1.15201e-05,-5.97352e-06,1.89322e-05,-5.13337e-07,9.24764e-05,2.60578e-06,1
-2.91034e-05,1.45876e-06,-1.14573e-05,-4.45801e-06,6.15415e-05,-4.69189e-06,8.17268e-05,3.72993e-06,1
-2.16268e-05,1.14179e-05,-1.03862e-05,8.19797e-06,0.000103521,5.53597e-07,7.15847e-05,5.10058e-06,1
-1.12566e-05,1.93274e-05,-8.21629e-06,2.5277e-05,0.000122471,7.71927e-06,6.14152e-05,6.49396e-06,1
-7.29992e-06,1.9903e-05,-4.78876e-06,3.74038e-05,0.000111583,1.01834e-05,5.06008e-05,7.06888e-06,1
-1.10969e-05,1.76193e-05,-1.99582e-06,3.91376e-05,8.36018e-05,7.4211e-06,3.82554e-05,6.66334e-06,1
-1.34103e-05,1.90994e-05,-1.58735e-06,2.7712e-05,5.51184e-05,3.01216e-06,2.91347e-05,4.76095e-06,1
-7.49464e-06,2.46753e-05,-3.97927e-06,1.03843e-05,3.41095e-05,4.91356e-07,2.41879e-05,2.56489e-06,1
-3.86498e-06,2.58857e-05,-8.0921e-06,-1.61042e-06,2.37906e-05,-1.70547e-06,2.20421e-05,2.19816e-06,1
-9.98392e-06,1.75484e-05,-1.07786e-05,-6.66321e-06,2.26972e-05,-2.65477e-06,2.19471e-05,1.91363e-06,1
-1.74476e-05,9.30078e-06,-1.04291e-05,-5.14067e-06,2.70381e-05,-2.3953e-06,2.15117e-05,1.16441e-06,1
-2.10631e-05,8.6969e-06,-1.06167e-05,-2.13801e-06,2.20269e-05,-5.03775e-06,2.19433e-05,9.49229e-07,1
-2.22411e-05,1.07985e-05,-1.22383e-05,-4.77384e-06,-4.2056e-06,-9.67769e-06,2.22782e-05,9.29145e-07,1
-2.3186e-05,9.95141e-06,-1.35151e-05,-1.38152e-05,-3.79613e-05,-1.39428e-05,1.35759e-05,2.0664e-08,1
-2.43342e-05,5.40924e-06,-1.4233e-05,-2.54928e-05,-6.67012e-05,-1.72991e-05,-1.47704e-05,-2.32836e-06,1
-2.28467e-05,1.94735e-06,-1.33114e-05,-3.14366e-05,-8.50152e-05,-1.8594e-05,-5.70865e-05,-5.13113e-06,1
-2.04288e-05,5.16309e-06,-1.13504e-05,-2.63859e-05,-7.791e-05,-1.80046e-05,-8.60064e-05,-6.09637e-06,1
-2.00098e-05,1.30805e-05,-9.33558e-06,-1.39716e-05,-3.8355e-05,-1.79719e-05,-8.39902e-05,-5.81002e-06,1
-2.04971e-05,1.86286e-05,-7.25284e-06,1.70861e-06,1.4269e-05,-2.01457e-05,-5.5666e-05,-6.0848e-06,1
-2.16184e-05,1.54163e-05,-5.75184e-06,1.31559e-05,4.85606e-05,-2.47855e-05,-1.65397e-05,-6.36264e-06,1
-2.34382e-05,4.40211e-06,-6.17328e-06,1.58672e-05,4.91717e-05,-2.91964e-05,1.91865e-05,-7.00352e-06,1
-2.48263e-05,-4.91392e-06,-7.50294e-06,1.32582e-05,2.87548e-05,-2.54396e-05,4.47518e-05,-8.33992e-06,1
-2.58287e-05,-7.88355e-06,-9.23924e-06,7.6717e-06,1.17307e-05,-1.11746e-05,5.84651e-05,-8.64148e-06,1
-2.61058e-05,-9.23279e-06,-1.1383e-05,1.01319e-06,1.45332e-05,3.13561e-06,6.45666e-05,-7.20772e-06,1
-2.56482e-05,-1.36621e-05,-1.3592e-05,-3.11259e-06,3.54953e-05,8.37945e-06,6.59892e-05,-6.1287e-06,1
-2.51525e-05,-1.86946e-05,-1.48462e-05,1.98173e-07,5.97663e-05,7.68206e-06,6.32935e-05,-6.27072e-06,1
-2.36375e-05,-1.84406e-05,-1.32907e-05,9.89306e-06,7.6162e-05,9.35829e-06,5.72473e-05,-7.32423e-06,1
-2.14379e-05,-1.05932e-05,-8.83745e-06,1.82106e-05,8.8563e-05,1.57473e-05,5.10531e-05,-7.57671e-06,1
-2.04816e-05,1.04772e-06,-4.40839e-06,1.82104e-05,9.99746e-05,2.04736e-05,4.59667e-05,-6.29897e-06,1
-2.06046e-05,9.1382e-06,-3.46254e-06,1.26158e-05,9.95205e-05,1.8207e-05,3.99594e-05,-4.76515e-06,1
-2.28892e-05,1.08627e-05,-4.81256e-06,7.45346e-06,8.09041e-05,1.23736e-05,3.29078e-05,-3.80571e-06,1
-2.94014e-05,8.32641e-06,-6.75057e-06,6.21539e-06,4.50402e-05,8.21322e-06,2.71552e-05,-3.1548e-06,1
-3.70068e-05,4.16887e-06,-8.83753e-06,4.47056e-06,-6.94244e-06,3.88667e-06,2.23569e-05,-2.55492e-06,1
-4.27141e-05,1.56333e-06,-9.50918e-06,1.79165e-06,-5.21505e-05,-3.83765e-06,1.87136e-05,-2.31379e-06,1
-4.68986e-05,1.17111e-06,-8.71575e-06,3.66634e-06,-6.57382e-05,-1.22322e-05,1.61875e-05,-2.07886e-06,1
-5.0824e-05,2.68004e-06,-6.80026e-06,5.96466e-06,-5.20903e-05,-1.73135e-05,1.46504e-05,-1.55484e-06,1
-5.2023e-05,8.03293e-06,-4.23119e-06,4.91921e-06,-2.78435e-05,-1.76102e-05,1.44383e-05,-2.26163e-06,1
-4.76642e-05,1.66313e-05,-1.51304e-06,2.76119e-06,-1.09496e-05,-1.65414e-05,1.50657e-05,-1.92893e-06,1
-4.03618e-05,2.38191e-05,1.13846e-06,2.46328e-06,-7.53988e-06,-1.91475e-05,1.51421e-05,2.07018e-07,1
-3.44963e-05,2.45348e-05,2.3973e-06,6.05907e-06,-3.56024e-06,-2.37702e-05,1.35293e-05,2.15612e-06,1
-2.94696e-05,2.09396e-05,2.71855e-06,1.1349e-05,7.05598e-06,-2.71548e-05,1.22329e-05,4.17629e-06,1
-2.36199e-05,1.89166e-05,1.83295e-06,7.99892e-06,8.19965e-06,-2.90884e-05,1.35779e-05,5.58328e-06,1
-2.02214e-05,1.79513e-05,-1.10457e-06,-7.5723e-06,-1.06254e-05,-3.15146e-05,1.72641e-05,7.2458e-06,1
-2.08354e-05,1.24561e-05,-3.80018e-06,-2.89617e-05,-3.95332e-05,-3.45095e-05,1.92785e-05,7.4397e-06,1
-2.21776e-05,6.19466e-07,-4.91179e-06,-4.89659e-05,-6.04954e-05,-3.61729e-05,1.72615e-05,6.62878e-06,1
-2.39294e-05,-1.0541e-05,-4.9441e-06,-6.2835e-05,-7.43343e-05,-3.83057e-05,1.10774e-05,6.90514e-06,1
-2.68946e-05,-1.41278e-05,-4.94331e-06,-6.81277e-05,-9.06215e-05,-4.45801e-05,2.92845e-06,8.29935e-06,1
-2.87146e-05,-1.11467e-05,-4.74282e-06,-6.43137e-05,-0.00010424,-5.19667e-05,-4.45705e-06,9.00526e-06,1
-3.01512e-05,-4.12719e-06,-3.57185e-06,-5.16921e-05,-0.000103263,-5.37612e-05,-9.32741e-06,8.09297e-06,1
-3.16073e-05,5.68131e-06,-1.69782e-06,-3.40012e-05,-8.69588e-05,-4.48442e-05,-1.20744e-05,6.77107e-06,1
-3.21989e-05,1.50383e-05,3.71732e-07,-1.9261e-05,-5.86257e-05,-2.48753e-05,-1.3657e-05,6.05927e-06,1
-3.3149e-05,2.03923e-05,1.84286e-06,-7.20042e-06,-8.65042e-06,-4.41012e-06,-1.55212e-05,5.80721e-06,1
-3.50518e-05,2.03123e-05,2.21431e-06,9.26029e-06,7.11009e-05,4.76733e-06,-1.75384e-05,5.51376e-06,1
-3.58595e-05,1.68688e-05,2.18254e-06,3.06118e-05,0.000161119,4.13989e-06,-1.88537e-05,5.83768e-06,1
-3.50258e-05,1.36409e-05,3.6488e-06,4.71392e-05,0.000220355,4.89944e-06,-1.84579e-05,6.77089e-06,1
-3.41985e-05,1.25233e-05,6.32339e-06,5.06019e-05,0.000228203,1.07902e-05,-1.59457e-05,8.20994e-06,1
-3.43904e-05,1.23398e-05,8.03298e-06,4.32262e-05,0.000204941,1.57859e-05,-1.28625e-05,9.79142e-06,1
-3.5026e-05,1.21722e-05,7.25597e-06,3.48194e-05,0.000182626,1.58266e-05,-9.41272e-06,1.16229e-05,1
-3.6496e-05,1.41824e-05,4.60119e-06,2.99374e-05,0.000162755,1.42019e-05,-8.6754e-06,1.24127e-05,1
-3.90416e-05,1.6341e-05,1.91572e-06,2.37271e-05,0.000133803,1.27886e-05,-1.16982e-05,1.14945e-05,1
-4.15303e-05,1.56196e-05,3.85293e-07,1.63834e-05,0.0001021,1.03055e-05,-1.33868e-05,1.02244e-05,1
-4.24517e-05,1.54453e-05,-1.78446e-06,1.40952e-05,8.34774e-05,6.61315e-06,-9.89023e-06,9.65017e-06,1
-4.12238e-05,1.84763e-05,-5.7811e-06,1.08538e-05,7.13398e-05,3.1481e-06,-2.14421e-06,8.41217e-06,1
-4.26144e-05,2.1071e-05,-9.19013e-06,5.89332e-07,5.61947e-05,1.30309e-06,7.50415e-06,5.96336e-06,1
-4.66509e-05,2.43018e-05,-1.11405e-05,-4.05047e-06,5.02723e-05,8.7502e-07,1.69871e-05,2.77005e-06,1
-4.79384e-05,3.44918e-05,-1.30784e-05,1.35491e-06,4.52276e-05,1.10846e-07,2.36164e-05,1.09877e-06,1
-4.49113e-05,4.41269e-05,-1.51678e-05,5.65416e-06,2.44732e-05,-8.67057e-07,2.66099e-05,3.66583e-07,1
-4.48452e-05,4.17026e-05,-1.64527e-05,5.27626e-06,-2.58878e-06,6.75833e-07,2.76226e-05,-1.81841e-06,1
-5.04871e-05,3.01948e-05,-1.66219e-05,2.65886e-06,-2.11111e-05,3.20449e-06,2.85156e-05,-3.04381e-06,1
-5.45383e-05,2.01713e-05,-1.50718e-05,1.07386e-08,-2.55312e-05,1.65082e-06,2.4095e-05,-2.14819e-06,1
-5.21369e-05,1.75521e-05,-1.30227e-05,-2.10712e-06,-2.09449e-05,-4.02257e-06,5.51786e-06,3.99703e-07,1
-4.25391e-05,2.11809e-05,-1.11331e-05,-5.41113e-06,-1.28262e-05,-8.49937e-06,-1.62466e-05,2.77289e-06,1
-3.01661e-05,2.74032e-05,-1.00961e-05,-8.73512e-06,-6.29407e-06,-8.96324e-06,-2.25526e-05,3.52358e-06,1
-2.02722e-05,3.31409e-05,-1.05167e-05,-1.07599e-05,-5.94768e-06,-7.85859e-06,-1.01765e-05,3.52405e-06,1
-1.76413e-05,3.97698e-05,-1.08888e-05,-9.64366e-06,-1.07438e-05,-9.55262e-06,1.11925e-05,3.5271e-06,1
-2.14597e-05,5.44415e-05,-1.02184e-05,-5.31169e-06,-1.65217e-05,-1.28176e-05,3.13199e-05,2.88375e-06,1
-2.7364e-05,7.39648e-05,-8.18707e-06,-1.09937e-06,-2.20374e-05,-1.29766e-05,4.57489e-05,2.10282e-06,1
-3.13987e-05,8.13191e-05,-5.99547e-06,2.04097e-07,-2.92246e-05,-1.07709e-05,5.27786e-05,2.2778e-06,1
-3.39653e-05,6.87062e-05,-5.55267e-06,-3.1213e-07,-3.31329e-05,-1.02895e-05,5.25996e-05,2.69582e-06,1
-3.80162e-05,4.87466e-05,-7.77801e-06,8.63216e-07,-2.91407e-05,-1.25967e-05,4.74591e-05,2.78304e-06,1
-4.21743e-05,3.79912e-05,-1.05838e-05,3.86264e-06,-2.32452e-05,-1.65576e-05,4.12091e-05,2.2856e-06,1
-4.29835e-05,3.17902e-05,-1.22458e-05,2.94115e-06,-2.87421e-05,-1.96093e-05,3.44537e-05,1.49992e-06,1
-3.85994e-05,1.49197e-05,-1.36471e-05,-6.62815e-06,-4.80238e-05,-1.97816e-05,2.67417e-05,4.25679e-07,1
-3.18821e-05,-1.19482e-05,-1.51107e-05,-1.88337e-05,-6.82027e-05,-1.97353e-05,1.90426e-05,-5.12192e-07,1
-2.5971e-05,-3.50408e-05,-1.59891e-05,-2.5575e-05,-7.5823e-05,-2.06723e-05,1.27401e-05,-7.01277e-07,1
-2.16896e-05,-4.60364e-05,-1.50134e-05,-2.48625e-05,-7.12199e-05,-2.00785e-05,7.50559e-06,-1.90408e-06,1
-1.87831e-05,-4.62622e-05,-1.35308e-05,-2.10231e-05,-6.17906e-05,-1.86778e-05,-8.42065e-07,-3.65211e-06,1
-1.30368e-05,-3.48785e-05,-1.29e-05,-1.98829e-05,-5.21604e-05,-1.78943e-05,-1.6799e-05,-4.43946e-06,1
-1.21732e-06,-1.00659e-05,-1.11626e-05,-2.03475e-05,-4.12124e-05,-1.68178e-05,-3.36369e-05,-3.7145e-06,1
8.39594e-06,1.56407e-05,-9.06112e-06,-1.78188e-05,-2.67563e-05,-1.33161e-05,-3.90916e-05,-3.37145e-06,1
4.82685e-06,2.27854e-05,-7.58289e-06,-1.21269e-05,-9.13629e-06,-8.35566e-06,-3.10206e-05,-2.85664e-06,1
-8.0324e-06,1.61807e-05,-6.26478e-06,-4.68049e-06,1.89193e-05,-3.85151e-06,-1.50624e-05,-1.78103e-06,1
-2.02792e-05,9.51889e-06,-6.20903e-06,5.75667e-07,5.26955e-05,8.26052e-07,7.67622e-07,-3.88318e-06,1
-2.94683e-05,4.47706e-06,-8.21841e-06,4.88726e-07,6.79386e-05,3.76234e-06,1.25367e-05,-6.39588e-06,1
-3.17794e-05,2.3182e-06,-1.11922e-05,-4.18219e-06,5.24046e-05,3.86976e-06,1.82518e-05,-6.58913e-06,1
-2.89123e-05,3.57515e-06,-1.46605e-05,-1.29333e-05,1.63517e-05,2.2588e-06,1.75999e-05,-5.56351e-06,1
-2.58351e-05,8.4176e-06,-1.83604e-05,-1.93402e-05,-1.22399e-05,-2.35439e-06,1.48419e-05,-4.1528e-06,1
-2.63182e-05,1.17976e-05,-1.95255e-05,-1.97296e-05,-1.69201e-05,-9.12837e-06,1.11559e-05,-3.07268e-06,1
-3.135e-05,1.10322e-05,-1.78592e-05,-1.82649e-05,-3.63951e-06,-1.22284e-05,7.45696e-06,-2.13689e-06,1
-3.82278e-05,6.11488e-06,-1.54574e-05,-1.75327e-05,1.30227e-05,-9.58439e-06,3.50522e-06,-1.02853e-06,1
-4.22172e-05,-2.19684e-06,-1.24538e-05,-1.50976e-05,2.92731e-05,-5.05273e-06,-2.00689e-07,-1.15174e-07,1
-4.10346e-05,-1.27334e-05,-8.65177e-06,-1.01153e-05,5.35673e-05,-7.93843e-07,-2.17552e-06,1.42876e-06,1
-3.97043e-05,-2.01909e-05,-5.68827e-06,-5.75095e-06,7.79091e-05,2.31119e-06,-2.88726e-06,2.65844e-06,1
-4.38521e-05,-1.90567e-05,-5.29356e-06,-4.44756e-06,7.98676e-05,1.86229e-06,-1.83576e-06,2.84315e-06,1
-5.36929e-05,-1.14132e-05,-7.50937e-06,-6.37129e-06,5.53885e-05,-6.84906e-07,1.09311e-06,2.99e-06,1
-6.12121e-05,-1.36305e-06,-1.09099e-05,-7.92326e-06,2.51103e-05,-8.56373e-07,5.56286e-06,3.3812e-06,1
-6.1286e-05,7.70269e-06,-1.30311e-05,-6.4365e-06,7.5809e-06,2.45113e-06,1.10553e-05,4.21174e-06,1
-5.67372e-05,1.57264e-05,-1.26689e-05,-2.96622e-06,9.50643e-06,5.51853e-06,1.80186e-05,5.00682e-06,1
-5.31864e-05,2.22296e-05,-1.20988e-05,5.19379e-07,2.7674e-05,4.62526e-06,2.62211e-05,4.80924e-06,1
-5.08988e-05,2.71048e-05,-1.16922e-05,7.72614e-06,6.13542e-05,1.74796e-06,3.4469e-05,3.11913e-06,1
-4.5388e-05,2.95332e-05,-8.76685e-06,2.08736e-05,0.000101786,7.93534e-07,4.10087e-05,1.93388e-06,1
-3.28364e-05,3.09808e-05,-3.55304e-06,2.99772e-05,0.00011972,3.98073e-06,4.56926e-05,2.53779e-06,1
-1.85369e-05,2.96145e-05,7.44201e-09,2.52502e-05,9.57247e-05,1.10449e-05,4.86892e-05,2.8508e-06,1
-1.03817e-05,1.83884e-05,-2.35056e-07,1.12935e-05,4.82937e-05,1.60813e-05,5.01164e-05,1.82972e-06,1
-5.72543e-06,-8.45401e-07,-2.27648e-06,-7.88975e-07,6.3477e-06,1.59196e-05,5.0034e-05,1.25529e-06,1
1.59861e-06,-9.83297e-06,-2.56261e-06,-4.92689e-06,-1.5127e-05,1.28408e-05,4.71796e-05,1.41242e-06,1
6.27428e-06,-2.92931e-06,-9.52335e-07,-2.63167e-06,-1.78391e-05,6.47713e-06,4.22861e-05,3.49758e-06,1
-4.22441e-07,9.1923e-06,5.72719e-07,1.86119e-06,-5.1778e-06,-4.68787e-06,4.06033e-05,4.94658e-06,1
-1.64418e-05,1.86753e-05,-2.78228e-07,4.52363e-06,1.21916e-05,-1.87383e-05,4.33765e-05,3.37491e-06,1
-3.55194e-05,2.09586e-05,-2.61602e-06,4.07383e-06,1.05477e-05,-2.98408e-05,4.77486e-05,2.1438e-06,1
-4.96024e-05,1.74711e-05,-3.53455e-06,2.5015e-06,-1.25218e-05,-3.30336e-05,4.83749e-05,1.90178e-06,1
-5.46052e-05,1.27499e-05,-5.0749e-06,5.56047e-07,-3.99797e-05,-3.27835e-05,4.29394e-05,9.37997e-07,1
-5.42546e-05,9.53763e-06,-5.83133e-06,-6.98803e-06,-6.0267e-05,-3.46142e-05,3.6919e-05,-1.32906e-07,1
-5.07625e-05,7.74705e-06,-5.62136e-06,-1.97559e-05,-7.1728e-05,-3.55094e-05,3.3762e-05,-5.16728e-07,1
-4.401e-05,6.9951e-06,-4.80057e-06,-2.53624e-05,-7.41695e-05,-3.16871e-05,3.339e-05,-9.01607e-07,1
-3.01437e-05,1.03426e-05,-3.09266e-06,-2.33518e-05,-7.67359e-05,-2.34055e-05,3.12593e-05,-9.94534e-07,1
-1.2215e-05,1.95292e-05,-2.28294e-06,-2.26537e-05,-8.34754e-05,-1.52628e-05,2.6687e-05,-4.13693e-07,1
-2.41356e-06,2.41352e-05,-2.64081e-06,-2.45421e-05,-7.78543e-05,-9.92868e-06,2.08705e-05,1.17448e-06,1
-5.03485e-06,1.50848e-05,-3.22965e-06,-2.2745e-05,-4.45162e-05,-5.74338e-06,1.52943e-05,2.63811e-06,1
-1.23212e-05,2.07919e-06,-2.7279e-06,-1.48242e-05,1.05089e-06,-2.92185e-06,1.13621e-05,2.33747e-06,1
-1.55999e-05,-7.96408e-07,-2.48905e-06,-6.25963e-06,2.70408e-05,-5.13826e-06,7.84189e-06,1.90318e-08,1
-1.67505e-05,3.18425e-06,-3.52792e-06,-3.58512e-06,2.1887e-05,-1.70978e-05,4.11609e-06,-3.13561e-06,1
-1.97088e-05,2.54236e-06,-5.39525e-06,-3.01683e-06,1.04259e-05,-3.44179e-05,1.1889e-06,-5.7168e-06,1
-2.35409e-05,-4.07468e-06,-6.48768e-06,3.52785e-06,1.77837e-05,-3.68406e-05,-4.76007e-07,-6.11929e-06,1
-2.53639e-05,-9.98734e-06,-6.68429e-06,9.87234e-06,3.16042e-05,-1.84898e-05,-1.87631e-06,-5.07566e-06,1
-2.53384e-05,-1.05435e-05,-7.42767e-06,2.73405e-06,3.28648e-05,-1.30101e-06,-2.91108e-06,-4.06393e-06,1
-2.18194e-05,9.95075e-07,-9.54741e-06,-1.43614e-05,3.10503e-05,2.69487e-07,-3.69568e-06,-3.15834e-06,1
-1.69549e-05,2.29055e-05,-1.09022e-05,-2.31562e-05,4.10496e-05,-5.39157e-06,-4.40898e-06,-2.46981e-06,1
-2.47921e-05,3.75913e-05,-1.07378e-05,-1.9818e-05,6.0763e-05,-9.48828e-06,-5.93794e-06,-2.83077e-06,1
-4.5335e-05,3.29862e-05,-9.71703e-06,-1.54053e-05,8.01291e-05,-1.16137e-05,-6.89637e-06,-5.24801e-06,1
-5.52542e-05,2.03319e-05,-8.38188e-06,-1.51526e-05,8.30738e-05,-1.1285e-05,-6.32021e-06,-7.5724e-06,1
-4.26378e-05,1.76706e-05,-7.62588e-06,-1.49838e-05,6.97116e-05,-1.0081e-05,-5.6794e-06,-7.58582e-06,1
-1.75987e-05,2.44414e-05,-7.4937e-06,-1.17803e-05,5.64787e-05,-7.38551e-06,-6.02216e-06,-6.03794e-06,1
2.25607e-06,2.21076e-05,-9.92458e-06,-6.9893e-06,4.97758e-05,1.72123e-06,-5.65443e-06,-4.37528e-06,1
1.91122e-06,2.33971e-07,-1.32926e-05,-1.71178e-06,4.02885e-05,1.2265e-05,-6.23108e-06,-3.52673e-06,1
-8.93367e-06,-2.06614e-05,-1.29694e-05,3.953e-06,3.22719e-05,1.56019e-05,-7.77714e-06,-3.79811e-06,1
-1.08043e-05,-2.41192e-05,-1.11391e-05,7.74279e-06,3.37136e-05,1.4878e-05,-9.82452e-06,-3.16014e-06,1
-2.87341e-06,-1.67335e-05,-1.04445e-05,4.68162e-06,2.96688e-05,1.39358e-05,-1.56529e-05,-1.43545e-06,1
7.24164e-06,-8.7581e-06,-9.94991e-06,-9.26272e-06,6.66841e-06,1.20697e-05,-2.2466e-05,5.1395e-07,1
5.08014e-06,-3.74636e-06,-1.01376e-05,-2.47905e-05,-1.75847e-05,8.82216e-06,-2.52218e-05,2.79513e-06,1
-8.37218e-06,2.08934e-06,-1.15645e-05,-3.06233e-05,-1.95774e-05,5.06894e-06,-2.2393e-05,5.01304e-06,1
-1.93128e-05,8.52778e-06,-1.39887e-05,-2.68927e-05,-8.56218e-06,3.0817e-06,-1.5731e-05,7.40687e-06,1
-2.01585e-05,1.38507e-05,-1.49693e-05,-1.77276e-05,4.41557e-07,5.29226e-06,-7.34435e-06,9.35926e-06,1
-1.56889e-05,1.95565e-05,-1.35341e-05,-6.52422e-06,9.78982e-06,8.43739e-06,5.93923e-08,1.00034e-05,1
-1.70824e-05,2.73856e-05,-1.04299e-05,6.51663e-06,3.67773e-05,9.86769e-06,5.34921e-06,8.42794e-06,1
-2.33332e-05,3.48337e-05,-8.23743e-06,1.6827e-05,8.91397e-05,1.19471e-05,8.93719e-06,6.09733e-06,1
-2.94317e-05,3.67958e-05,-8.33072e-06,1.58245e-05,0.000138608,1.54513e-05,1.08433e-05,5.7878e-06,1
-3.31672e-05,3.21215e-05,-9.26309e-06,5.71123e-06,0.00014469,1.6438e-05,1.15174e-05,7.63447e-06,1
-3.66947e-05,2.44503e-05,-9.84244e-06,-2.17112e-06,0.000106346,1.16361e-05,1.21334e-05,9.41474e-06,1
-3.95891e-05,1.71709e-05,-9.2393e-06,-3.38634e-06,5.59975e-05,4.0741e-06,1.27006e-05,9.21096e-06,1
-4.10271e-05,1.39584e-05,-8.24552e-06,-5.03953e-06,1.63681e-05,-2.13283e-06,1.34108e-05,8.16886e-06,1
-4.01531e-05,1.87125e-05,-8.281e-06,-1.22783e-05,-8.34511e-06,-6.64996e-06,1.51097e-05,6.94417e-06,1
-3.9473e-05,2.75564e-05,-9.23157e-06,-2.02645e-05,-2.18392e-05,-1.22222e-05,1.64878e-05,5.3536e-06,1
-4.0982e-05,2.98098e-05,-9.92985e-06,-2.45913e-05,-2.78473e-05,-1.75943e-05,1.56018e-05,5.36559e-06,1
-4.39187e-05,2.33237e-05,-1.02713e-05,-2.46403e-05,-2.93473e-05,-2.02751e-05,1.34918e-05,6.66053e-06,1
-4.59006e-05,1.82498e-05,-1.04883e-05,-2.12596e-05,-2.8711e-05,-1.87456e-05,1.26407e-05,7.1991e-06,1
-4.39843e-05,2.07116e-05,-1.08275e-05,-1.6426e-05,-2.5854e-05,-1.37869e-05,1.35976e-05,6.33057e-06,1
-3.90514e-05,2.65305e-05,-9.72312e-06,-1.00874e-05,-2.23586e-05,-9.41952e-06,1.46351e-05,3.5018e-06,1
-3.64053e-05,2.94595e-05,-8.38702e-06,-4.32686e-06,-1.90684e-05,-1.09276e-05,9.80177e-06,2.30403e-07,1
-3.70406e-05,2.76756e-05,-8.84032e-06,-1.85129e-06,-6.99034e-06,-1.567e-05,-1.08508e-05,-9.27871e-07,1
-3.09814e-05,2.63957e-05,-8.53426e-06,7.2042e-06,2.22577e-05,-1.45354e-05,-5.06294e-05,-1.0469e-06,1
-1.82646e-05,2.95453e-05,-7.09193e-06,2.38466e-05,5.34669e-05,-1.0549e-05,-7.95391e-05,-2.58703e-06,1
-1.22002e-05,2.90691e-05,-6.26341e-06,3.14577e-05,6.21976e-05,-1.11331e-05,-7.35553e-05,-3.51917e-06,1
-1.64178e-05,2.28185e-05,-6.21426e-06,2.52034e-05,3.99596e-05,-1.476e-05,-4.07814e-05,-2.13957e-06,1
-2.41101e-05,1.7743e-05,-6.20998e-06,1.40334e-05,-1.50304e-06,-1.70151e-05,7.6305e-07,-2.35073e-07,1
-2.97268e-05,1.70059e-05,-6.43094e-06,6.70887e-06,-3.772e-05,-1.62636e-05,3.31603e-05,4.50273e-07,1
-3.28838e-05,1.80644e-05,-6.47302e-06,2.97512e-06,-5.44381e-05,-1.48113e-05,5.55879e-05,1.11791e-06,1
-3.62768e-05,2.00811e-05,-6.03418e-06,-2.88083e-06,-5.13527e-05,-1.46312e-05,6.68606e-05,1.10205e-06,1
-4.0995e-05,2.1726e-05,-5.68392e-06,-9.78892e-06,-3.95076e-05,-1.40253e-05,7.23555e-05,-3.25176e-07,1
-4.47552e-05,1.968e-05,-5.70275e-06,-1.37807e-05,-2.37048e-05,-1.12496e-05,7.53763e-05,-1.4494e-06,1
-4.48414e-05,1.74218e-05,-6.07388e-06,-1.46351e-05,1.19136e-07,-8.19422e-06,7.60101e-05,-2.5083e-06,1
-4.3076e-05,1.65103e-05,-5.8743e-06,-1.21189e-05,3.21877e-05,-7.70098e-06,7.5923e-05,-2.8277e-06,1
-3.99795e-05,1.48655e-05,-5.08388e-06,-6.07927e-06,5.87051e-05,-9.0108e-06,7.47722e-05,-2.26231e-06,1
-3.51179e-05,9.52247e-06,-3.39806e-06,3.56787e-06,6.61001e-05,-8.81003e-06,6.84641e-05,-8.64804e-07,1
-3.24544e-05,3.63923e-06,-1.02263e-06,1.17718e-05,5.38796e-05,-7.31766e-06,3.95489e-05,-1.80833e-08,1
-3.52996e-05,4.6839e-06,-5.56121e-08,1.06682e-05,2.87867e-05,-8.33372e-06,-1.18428e-05,-2.94363e-07,1
-4.05531e-05,1.34028e-05,-8.89329e-07,1.07225e-06,1.4114e-06,-1.22118e-05,-5.24664e-05,-9.21481e-07,1
-4.52453e-05,2.0125e-05,-1.31719e-06,-9.13194e-06,-1.92165e-05,-1.56357e-05,-5.03856e-05,-1.23859e-06,1
-4.89451e-05,1.73506e-05,-3.72089e-07,-1.31814e-05,-2.35326e-05,-1.67682e-05,-9.74123e-06,-1.31657e-06,1
-5.0767e-05,1.02117e-05,8.16281e-07,-1.05948e-05,-1.1402e-05,-1.76498e-05,4.45025e-05,-1.12595e-06,1
-5.0633e-05,5.50655e-06,2.5864e-07,-5.79607e-06,5.36469e-06,-2.21885e-05,8.87248e-05,-7.87787e-08,1
-5.0669e-05,3.41457e-06,-2.23872e-06,-2.22391e-06,1.32762e-05,-3.222e-05,0.000113213,1.3754e-06,1
-4.98888e-05,2.5243e-06,-4.93566e-06,4.28335e-07,1.41395e-05,-4.33138e-05,0.000116463,2.8801e-06,1
-4.73558e-05,4.32271e-06,-6.7758e-06,2.47749e-06,1.30831e-05,-4.71373e-05,0.000101784,3.46418e-06,1
-4.54972e-05,7.66651e-06,-7.69544e-06,1.83426e-06,1.11118e-05,-3.59409e-05,7.72646e-05,2.11536e-06,1
-4.49588e-05,1.12979e-05,-8.32946e-06,1.32963e-06,1.06838e-05,-7.03415e-06,5.29643e-05,3.89708e-07,1
-4.42627e-05,1.53769e-05,-7.99938e-06,6.70149e-06,1.40546e-05,2.47174e-05,3.56454e-05,4.40196e-07,1
-3.81683e-05,2.17089e-05,-5.33774e-06,1.64471e-05,2.32512e-05,3.63107e-05,2.2735e-05,1.64841e-06,1
-2.84365e-05,2.80244e-05,-1.9927e-06,2.27757e-05,2.76501e-05,2.62658e-05,8.61002e-06,2.53068e-06,1
-2.36621e-05,2.76037e-05,-2.16827e-06,1.74251e-05,1.55798e-05,1.43953e-05,-3.19817e-06,2.10676e-06,1
-2.39318e-05,2.15583e-05,-4.19851e-06,4.84107e-06,7.08582e-06,9.54719e-06,-7.91441e-06,1.72978e-06,1
-2.61507e-05,1.57566e-05,-3.99539e-06,-5.16228e-06,9.91034e-06,4.0885e-06,-7.59167e-06,3.19124e-06,1
-2.87962e-05,1.35598e-05,-2.23894e-06,-1.09823e-05,8.78552e-06,-2.55176e-06,-4.17862e-06,5.18664e-06,1
-3.15748e-05,1.45491e-05,-7.43139e-07,-1.7611e-05,2.34819e-06,-8.85952e-06,1.22386e-06,5.20478e-06,1
-3.45057e-05,1.55059e-05,-7.10415e-07,-2.60168e-05,-7.93726e-06,-1.19807e-05,7.5059e-06,3.88832e-06,1
-3.9146e-05,1.1994e-05,-2.12769e-06,-3.30725e-05,-1.7933e-05,-6.73432e-06,1.28842e-05,3.1094e-06,1
-4.27539e-05,5.50337e-06,-3.81026e-06,-3.82204e-05,-2.20234e-05,1.68973e-06,1.51492e-05,3.60659e-06,1
-4.15706e-05,4.16894e-06,-4.64197e-06,-4.19326e-05,-2.08229e-05,9.35938e-07,1.2445e-05,3.59649e-06,1
-3.81641e-05,1.41015e-05,-4.28369e-06,-4.51976e-05,-2.4477e-05,-1.12567e-05,-2.14666e-06,3.25756e-06,1
-3.6883e-05,2.93097e-05,-3.70361e-06,-4.61542e-05,-3.7335e-05,-2.50016e-05,-3.47215e-05,4.27428e-06,1
-3.92328e-05,3.67237e-05,-4.02717e-06,-4.41488e-05,-5.55847e-05,-3.21354e-05,-7.03536e-05,5.72462e-06,1
-4.23569e-05,3.24319e-05,-5.26992e-06,-4.20232e-05,-7.5116e-05,-3.20605e-05,-8.4677e-05,5.54324e-06,1
-4.46485e-05,2.18224e-05,-6.80168e-06,-4.31019e-05,-9.03358e-05,-2.90609e-05,-6.75922e-05,4.15483e-06,1
-4.30853e-05,9.99949e-06,-8.56206e-06,-4.17114e-05,-9.15656e-05,-2.59823e-05,-2.99204e-05,3.52953e-06,1
-3.64232e-05,-1.78239e-06,-1.05125e-05,-3.00528e-05,-7.27996e-05,-2.33747e-05,1.08879e-05,4.68812e-06,1
-2.78722e-05,-1.09902e-05,-1.1834e-05,-9.67235e-06,-4.21878e-05,-2.18218e-05,4.16292e-05,6.61385e-06,1
-2.4439e-05,-1.49353e-05,-1.21783e-05,1.03605e-05,-1.60276e-05,-2.21842e-05,5.74638e-05,6.37611e-06,1
-2.7456e-05,-1.39037e-05,-1.15509e-05,2.35384e-05,6.51524e-07,-2.27046e-05,6.01885e-05,3.44343e-06,1
-3.20974e-05,-1.13449e-05,-9.56719e-06,3.33364e-05,2.18872e-05,-2.01646e-05,5.58107e-05,-4.16646e-07,1
-3.48978e-05,-7.85892e-06,-6.17625e-06,4.59133e-05,6.29308e-05,-1.41084e-05,4.84295e-05,-1.56489e-06,1
-3.37674e-05,-3.04649e-07,-3.31752e-06,6.07673e-05,0.000109643,-8.65693e-06,3.9825e-05,-1.21585e-06,1
-2.93306e-05,7.91925e-06,-2.94411e-06,7.06058e-05,0.000127027,-7.43317e-06,3.28651e-05,-1.73797e-06,1
-2.58895e-05,1.04561e-05,-4.76235e-06,6.48583e-05,0.000113872,-1.10654e-05,2.99866e-05,-1.36016e-06,1
-2.62624e-05,9.76731e-06,-6.7413e-06,4.50662e-05,9.04921e-05,-1.39371e-05,3.00918e-05,3.11466e-07,1
-2.8497e-05,1.03957e-05,-7.54192e-06,2.40252e-05,6.15555e-05,-1.14637e-05,2.78216e-05,1.47745e-06,1
