ch1,ch2,ch3,ch4,ch5,ch6,ch7,ch8,class
-3.51092e-05,-4.91855e-05,-2.44773e-05,-4.21542e-05,1.70049e-05,-1.3587e-05,2.19969e-05,7.16761e-06,3
-1.81683e-05,-4.41102e-05,-1.90581e-05,-2.74353e-05,-4.57129e-07,-1.40716e-05,2.10725e-05,9.34339e-06,3
-9.95471e-06,-4.83968e-05,-1.40741e-05,-1.41581e-05,-9.34194e-06,-1.0743e-05,1.58826e-05,1.0181e-05,3
-1.83518e-06,-6.61311e-05,-9.44507e-06,-3.52104e-06,-1.22971e-05,-6.71231e-06,1.10532e-05,1.03239e-05,3
2.26953e-05,-7.36744e-05,-4.39603e-06,6.17231e-06,-1.13863e-05,-3.9369e-06,1.05388e-05,1.08642e-05,3
5.28881e-05,-3.27883e-05,6.94369e-08,1.35269e-05,-9.80282e-06,-4.01029e-06,1.40632e-05,1.33702e-05,3
6.04942e-05,5.08662e-05,3.00309e-06,1.4179e-05,-1.02636e-05,-8.51647e-06,1.84121e-05,1.52976e-05,3
3.86318e-05,0.00011746,5.97449e-06,1.0116e-05,-9.13918e-06,-1.5012e-05,2.13475e-05,1.28002e-05,3
1.12688e-05,0.000120339,1.1008e-05,1.11805e-05,-1.90974e-06,-1.93757e-05,2.36552e-05,9.30503e-06,3
3.5648e-06,6.22849e-05,1.72449e-05,1.87431e-05,9.09118e-06,-1.98493e-05,2.24932e-05,9.01904e-06,3
7.43416e-06,-2.02321e-05,2.32952e-05,2.7608e-05,2.05907e-05,-1.52361e-05,1.53009e-05,9.65025e-06,3
-2.21201e-06,-7.36575e-05,2.82516e-05,3.36202e-05,2.79478e-05,-8.91951e-06,7.5088e-06,1.09844e-05,3
-3.02517e-05,-7.15595e-05,2.83959e-05,3.19669e-05,2.72035e-05,-5.23233e-06,7.6143e-06,1.36821e-05,3
-5.63692e-05,-3.29946e-05,2.29221e-05,2.2881e-05,1.86196e-05,-6.83871e-06,1.31413e-05,1.49987e-05,3
-6.00858e-05,2.52889e-05,1.30867e-05,1.44721e-05,8.23087e-06,-1.24504e-05,1.75631e-05,1.3427e-05,3
-4.75574e-05,8.3831e-05,2.66111e-06,1.21064e-05,6.77479e-06,-1.68651e-05,2.0291e-05,1.03579e-05,3
-3.87457e-05,0.000128487,-3.61755e-06,1.13202e-05,1.34111e-05,-1.75894e-05,1.90365e-05,5.60944e-06,3
-4.32011e-05,0.000133036,-7.44047e-06,8.46672e-06,2.14426e-05,-1.22607e-05,1.14388e-05,-9.29137e-07,3
-5.3055e-05,9.04925e-05,-1.19552e-05,5.08041e-06,2.20248e-05,-3.99231e-06,-9.65324e-09,-7.52732e-06,3
-5.25643e-05,3.8998e-05,-1.48711e-05,4.80818e-06,1.58141e-05,4.34983e-06,-9.33529e-06,-1.40136e-05,3
-4.461e-05,1.3922e-05,-1.40237e-05,8.23396e-06,1.15153e-05,1.09629e-05,-1.25668e-05,-2.00554e-05,3
-4.2471e-05,1.54307e-05,-1.11874e-05,1.28572e-05,1.2328e-05,1.37723e-05,-7.43573e-06,-1.86741e-05,3
-4.92387e-05,2.83788e-05,-9.54619e-06,1.68609e-05,1.66206e-05,1.1737e-05,2.85418e-06,-8.9761e-06,3
-5.56356e-05,4.53758e-05,-1.12861e-05,1.83523e-05,1.9312e-05,6.13921e-06,1.02112e-05,7.14267e-07,3
-5.18694e-05,5.10757e-05,-1.43862e-05,1.82001e-05,1.98536e-05,1.49894e-06,1.32344e-05,8.54491e-06,3
-3.73261e-05,3.28275e-05,-1.45663e-05,1.79383e-05,2.10909e-05,7.86662e-07,1.69757e-05,1.86519e-05,3
-1.93735e-05,1.22856e-05,-1.09274e-05,1.58052e-05,2.20199e-05,1.04728e-06,2.43956e-05,2.85316e-05,3
-5.26648e-06,2.1759e-05,-6.47968e-06,6.36059e-06,1.87498e-05,-3.41985e-06,3.15455e-05,3.06303e-05,3
4.89784e-06,4.99259e-05,-2.2912e-06,-1.02716e-05,1.27212e-05,-1.19675e-05,3.46144e-05,2.26178e-05,3
1.28074e-05,5.78539e-05,1.93368e-06,-2.37514e-05,6.47771e-06,-2.07163e-05,3.28483e-05,4.00991e-06,3
2.02436e-05,1.82759e-05,3.94245e-06,-2.32828e-05,-1.05776e-05,-2.77342e-05,2.61017e-05,-2.41661e-05,3
3.93114e-05,-4.83106e-05,1.60554e-06,-9.96356e-06,-5.51559e-05,-3.26024e-05,1.72521e-05,-5.25609e-05,3
8.69733e-05,-9.26391e-05,-4.86895e-06,3.84814e-06,-0.000111277,-3.42091e-05,1.26097e-05,-6.79315e-05,3
0.000138727,-9.26405e-05,-1.56641e-05,8.33895e-06,-0.000137294,-3.23216e-05,1.2995e-05,-6.65002e-05,3
0.000145936,-5.45052e-05,-2.88028e-05,4.55277e-06,-0.000116014,-2.64619e-05,1.53523e-05,-4.84247e-05,3
0.00010702,2.23541e-06,-3.83521e-05,1.36438e-06,-6.28092e-05,-1.66859e-05,2.25294e-05,-5.80407e-06,3
5.33194e-05,4.1887e-05,-3.89755e-05,4.58633e-06,-4.28292e-06,-5.5319e-06,3.64626e-05,4.434e-05,3
3.77002e-07,1.40935e-05,-3.25388e-05,1.00822e-05,4.68613e-05,-9.82507e-07,4.42149e-05,5.18506e-05,3
-3.98228e-05,-8.47956e-05,-2.68548e-05,1.30707e-05,7.48455e-05,-6.98974e-06,3.49735e-05,1.93216e-05,3
-5.83851e-05,-0.000194961,-2.33563e-05,1.25643e-05,7.64043e-05,-1.67168e-05,2.24822e-05,-2.71882e-06,3
-5.88826e-05,-0.000262039,-1.48422e-05,9.76127e-06,7.84662e-05,-2.07948e-05,2.06196e-05,1.31057e-05,3
-4.45589e-05,-0.000252059,4.05265e-06,4.90154e-06,9.0669e-05,-1.75729e-05,3.12917e-05,6.69185e-05,3
-3.1069e-05,-0.000168914,2.36082e-05,-5.40555e-06,0.000107294,-2.45119e-05,4.86285e-05,0.000115403,3
-3.20382e-05,-3.72669e-05,2.81889e-05,-2.21129e-05,0.000118435,-4.84459e-05,5.58997e-05,0.000106239,3
-4.75895e-05,0.000130497,1.95224e-05,-3.95219e-05,0.000116293,-6.09676e-05,4.76962e-05,5.68233e-05,3
-6.67507e-05,0.000309895,1.07585e-05,-5.00284e-05,9.22571e-05,-4.31431e-05,3.06198e-05,1.74963e-05,3
-8.38724e-05,0.00042804,8.5586e-06,-5.0289e-05,5.39233e-05,-6.14717e-06,1.29894e-05,-6.56011e-07,3
-8.4322e-05,0.000421798,1.03279e-05,-4.06519e-05,2.33028e-05,2.89281e-05,1.56472e-06,-1.22575e-05,3
-5.44186e-05,0.00029345,1.30577e-05,-2.39129e-05,9.90211e-06,5.15812e-05,4.98964e-07,-1.87861e-05,3
-1.82782e-05,0.00012703,1.70624e-05,-5.13348e-06,1.56784e-06,6.39021e-05,8.36522e-06,-8.00727e-06,3
2.83951e-06,2.19087e-05,2.29237e-05,1.11006e-05,-1.63084e-05,6.71767e-05,1.07833e-05,2.39649e-05,3
4.32472e-05,-1.80934e-06,2.89409e-05,2.31114e-05,-3.659e-05,5.89904e-05,-4.22867e-06,6.29472e-05,3
0.000137429,1.33418e-05,3.0523e-05,2.89698e-05,-5.85544e-05,3.78253e-05,-3.00338e-05,8.17886e-05,3
0.000225927,3.16701e-05,2.40178e-05,2.87978e-05,-8.86937e-05,9.42154e-06,-4.58159e-05,6.00555e-05,3
0.000219014,5.83624e-05,1.20282e-05,2.48338e-05,-0.000110423,-1.62771e-05,-4.06709e-05,-5.70448e-06,3
0.000118479,9.3794e-05,2.18307e-06,2.01801e-05,-9.71553e-05,-3.03764e-05,-2.19344e-05,-9.79859e-05,3
2.44699e-06,0.000111621,-1.25387e-06,1.6036e-05,-3.9221e-05,-3.15725e-05,-3.20309e-06,-0.000184057,3
-8.32834e-05,7.18097e-05,-4.25301e-07,1.20637e-05,6.14719e-05,-2.31894e-05,9.45534e-06,-0.000241481,3
-0.000139336,-3.4396e-06,-6.08506e-07,9.10805e-06,0.000173061,-1.13551e-05,1.54593e-05,-0.000263114,3
-0.000180777,-5.42165e-05,-4.86703e-06,6.42739e-06,0.000247884,-2.56774e-06,1.60776e-05,-0.00023312,3
-0.000220012,-5.6175e-05,-8.25288e-06,4.33724e-06,0.000257495,1.60648e-06,1.69975e-05,-0.000140328,3
-0.000246068,-1.95651e-05,-5.2272e-06,5.09656e-06,0.000199971,2.61356e-06,2.55919e-05,-5.92664e-06,3
-0.000234796,2.95678e-05,-3.11534e-06,2.32426e-06,0.000102513,-1.45027e-06,3.92897e-05,0.00010977,3
-0.000194745,6.03162e-05,-8.60138e-06,-1.10301e-05,1.52734e-05,-1.06502e-05,4.77834e-05,0.00015246,3
-0.000160251,6.16812e-05,-1.8952e-05,-3.57702e-05,-4.01914e-05,-1.79622e-05,4.98574e-05,0.000156451,3
-0.000158696,1.95562e-05,-2.75532e-05,-6.40341e-05,-6.44344e-05,-1.73899e-05,4.70817e-05,0.000142989,3
-0.000180352,-6.30246e-05,-3.31517e-05,-8.08671e-05,-6.72811e-05,-1.49575e-05,3.56021e-05,8.45616e-05,3
-0.000193366,-0.000133217,-3.76002e-05,-7.99081e-05,-6.86774e-05,-1.51782e-05,1.70832e-05,2.04172e-05,3
-0.000189743,-0.000165943,-3.68588e-05,-6.69815e-05,-6.77241e-05,-1.57325e-05,-8.23173e-07,-1.94083e-05,3
-0.000173631,-0.000175782,-3.23326e-05,-5.21422e-05,-6.18729e-05,-1.7714e-05,-1.34193e-05,-4.01013e-05,3
-0.000151341,-0.000175167,-2.87607e-05,-3.54446e-05,-4.6169e-05,-2.04964e-05,-1.97515e-05,-4.35731e-05,3
-0.000121997,-0.000158523,-2.49668e-05,-1.97721e-05,-2.64181e-05,-2.15324e-05,-1.94385e-05,-2.99513e-05,3
-9.17698e-05,-0.000127866,-1.89809e-05,-1.01353e-05,-7.52623e-06,-1.76169e-05,-1.12972e-05,4.02453e-06,3
-7.20745e-05,-9.50499e-05,-1.50284e-05,-7.19659e-06,6.54479e-06,-1.16392e-05,-1.1015e-06,4.30344e-05,3
-6.25577e-05,-5.40516e-05,-1.56113e-05,-5.39535e-06,5.19095e-06,-7.59913e-06,2.70837e-06,6.41664e-05,3
-4.82382e-05,3.89585e-06,-1.89894e-05,-1.27167e-06,-1.52154e-05,-6.54689e-06,-2.79451e-06,5.5009e-05,3
-2.41683e-05,5.40586e-05,-2.39449e-05,7.8118e-07,-4.71346e-05,-5.64606e-06,-1.04271e-05,2.95073e-05,3
-4.49335e-07,7.19437e-05,-2.9256e-05,-3.5278e-08,-8.32054e-05,-4.22871e-06,-1.2136e-05,5.01102e-06,3
1.76109e-05,6.31897e-05,-3.3283e-05,-1.35348e-06,-0.000114583,-4.81321e-06,-4.92986e-06,-8.48762e-06,3
3.48757e-05,4.13751e-05,-3.52018e-05,-3.03942e-07,-0.00011962,-8.48844e-06,8.73343e-06,-5.41881e-06,3
5.32792e-05,9.47037e-06,-3.61727e-05,3.79521e-06,-8.71922e-05,-1.4822e-05,1.76126e-05,1.16562e-05,3
7.02532e-05,-2.06142e-05,-3.44552e-05,1.10924e-05,-2.56768e-05,-1.97229e-05,1.34703e-05,2.52323e-05,3
9.26745e-05,-1.92837e-05,-2.73161e-05,1.85938e-05,4.00702e-05,-2.06032e-05,4.53782e-06,1.96603e-05,3
0.000114662,1.09476e-05,-1.68613e-05,2.17189e-05,8.56215e-05,-1.8795e-05,3.79777e-06,3.04161e-06,3
0.000110122,2.30371e-05,-6.20642e-06,1.6355e-05,0.000104252,-1.67552e-05,9.54516e-06,-1.01411e-05,3
6.99089e-05,-9.95034e-06,4.79481e-06,2.83862e-06,0.000108512,-1.46144e-05,1.20653e-05,-1.43612e-05,3
1.76236e-05,-7.0139e-05,1.29875e-05,-1.37834e-05,0.000103633,-1.06729e-05,9.72183e-06,-1.03089e-05,3
-1.99286e-05,-0.000122656,1.40019e-05,-2.86005e-05,8.64485e-05,-3.46493e-06,1.19063e-05,-2.43302e-07,3
-3.07291e-05,-0.000126016,1.08096e-05,-3.93599e-05,6.37042e-05,3.95128e-06,1.96979e-05,1.10326e-05,3
-2.63208e-05,-7.09849e-05,1.22076e-05,-4.35874e-05,4.58826e-05,5.1939e-06,2.46108e-05,1.65234e-05,3
-2.87333e-05,-8.92406e-06,1.86971e-05,-4.21905e-05,3.4149e-05,-1.03618e-06,2.17592e-05,1.81697e-05,3
-4.66649e-05,2.03392e-05,1.76101e-05,-3.64305e-05,2.16824e-05,-8.52215e-06,1.39325e-05,2.69279e-05,3
-5.77976e-05,3.86596e-05,1.74077e-06,-2.46273e-05,2.30002e-06,-1.42704e-05,5.43779e-06,3.29441e-05,3
-4.57074e-05,5.92897e-05,-1.51869e-05,-5.19399e-06,-1.88217e-05,-2.12256e-05,-2.72611e-07,2.09e-05,3
-2.54104e-05,6.0105e-05,-2.14722e-05,1.26561e-05,-2.42843e-05,-2.77771e-05,1.98229e-06,7.21403e-09,3
-1.02318e-05,1.97941e-05,-2.27938e-05,1.987e-05,-3.67339e-07,-3.09162e-05,6.27906e-06,-1.4334e-05,3
-6.0215e-06,-6.69019e-05,-2.29055e-05,1.87521e-05,4.53825e-05,-3.35807e-05,4.60413e-06,-2.01708e-05,3
-7.55003e-06,-0.000169791,-2.24915e-05,1.16427e-05,8.56969e-05,-3.15684e-05,-2.63701e-08,-2.33243e-05,3
-1.00487e-05,-0.000236626,-1.98586e-05,1.27564e-06,9.66723e-05,-2.3692e-05,-2.36697e-06,-2.55258e-05,3
-2.14549e-05,-0.000242665,-1.76987e-05,-9.82843e-06,7.9333e-05,-1.31321e-05,1.66072e-07,-1.99041e-05,3
-4.29629e-05,-0.00018195,-1.92048e-05,-1.94692e-05,5.44868e-05,-3.34594e-06,6.73175e-06,-5.68339e-06,3
-6.03263e-05,-6.77695e-05,-2.09261e-05,-2.81118e-05,3.71163e-05,1.09405e-06,1.5665e-05,5.58551e-06,3
-6.252e-05,5.62537e-05,-1.91465e-05,-3.32913e-05,2.53189e-05,1.9381e-06,2.54434e-05,2.18653e-06,3
-5.19062e-05,0.000150551,-1.3519e-05,-3.43873e-05,1.31125e-05,2.98153e-07,3.36413e-05,-1.48293e-05,3
-1.01519e-05,0.000208551,-7.10448e-06,-3.0346e-05,2.78278e-06,-4.13872e-06,3.57295e-05,-3.49435e-05,3
9.60053e-05,0.000256893,-1.20646e-06,-2.0625e-05,-8.92569e-07,-1.19339e-05,3.03372e-05,-4.94641e-05,3
0.0002261,0.000314312,3.15635e-06,-8.36182e-06,1.99565e-06,-1.74866e-05,2.36473e-05,-5.34778e-05,3
0.000274827,0.000360843,5.41398e-06,1.7774e-06,5.39211e-06,-1.63864e-05,2.13904e-05,-4.53256e-05,3
0.00020055,0.000353801,5.09265e-06,6.73854e-06,6.49256e-06,-1.06589e-05,1.99499e-05,-2.87431e-05,3
6.20702e-05,0.000285481,3.16643e-06,8.35493e-06,6.28241e-06,-6.16187e-06,1.3138e-05,-1.24698e-05,3
-6.4672e-05,0.000201135,2.25725e-06,9.28544e-06,6.17151e-06,-7.60213e-06,2.72695e-06,-2.05384e-06,3
-0.000143783,0.000147788,3.54163e-06,1.04149e-05,4.36186e-06,-1.69268e-05,-4.62155e-06,3.43587e-06,3
-0.00017586,0.000121615,5.03636e-06,1.0454e-05,8.93812e-07,-2.81585e-05,-3.84864e-06,8.35622e-06,3
-0.000183341,9.0409e-05,4.85691e-06,1.03608e-05,-1.94926e-06,-3.20373e-05,3.8951e-06,1.32414e-05,3
-0.000185381,4.81711e-05,3.39851e-06,1.23465e-05,-3.47892e-06,-2.96474e-05,1.1398e-05,1.49045e-05,3
-0.000174933,1.21637e-05,5.03129e-06,1.47944e-05,-5.0638e-06,-2.67117e-05,1.49908e-05,1.20515e-05,3
-0.000142836,-1.67295e-05,1.06889e-05,1.38412e-05,-7.1569e-06,-2.5328e-05,1.66967e-05,7.03487e-06,3
-0.000107631,-5.57145e-05,1.64491e-05,1.17613e-05,-9.04865e-06,-2.57955e-05,1.61175e-05,8.00324e-07,3
-9.36699e-05,-0.000101172,1.51772e-05,1.10293e-05,-9.65895e-06,-2.34643e-05,1.71688e-05,-5.97049e-06,3
-0.000100004,-0.000110031,4.32684e-06,9.13839e-06,-8.43642e-06,-1.3725e-05,2.02289e-05,-1.136e-05,3
-0.000105797,-7.56683e-05,-6.86403e-06,6.04466e-06,-6.33641e-06,-3.17649e-06,1.85507e-05,-1.63835e-05,3
-0.000102663,-4.18869e-05,-1.28814e-05,6.48233e-06,-4.94229e-06,1.60703e-06,1.21571e-05,-2.08e-05,3
-9.40692e-05,-3.46008e-05,-1.6466e-05,8.71355e-06,-4.10478e-06,-6.30543e-06,7.06529e-06,-2.18549e-05,3
-8.38958e-05,-4.7043e-05,-2.14942e-05,1.00753e-05,-2.19768e-06,-2.27379e-05,8.72102e-06,-1.86021e-05,3
-7.90392e-05,-4.86738e-05,-2.37824e-05,1.14233e-05,-3.36221e-08,-2.80548e-05,1.41669e-05,-1.34114e-05,3
-7.56829e-05,-3.47971e-05,-1.7898e-05,1.27837e-05,3.81951e-06,-8.31669e-06,1.7406e-05,-8.3325e-06,3
-6.36708e-05,-1.01351e-05,-7.96106e-06,1.2442e-05,7.06499e-06,3.05324e-05,1.78574e-05,-3.70229e-06,3
-2.38288e-05,2.04546e-05,-1.2897e-06,1.06274e-05,6.67911e-06,6.08056e-05,1.75884e-05,1.54378e-06,3
3.89411e-05,5.56242e-05,2.22859e-06,9.84763e-06,4.18357e-06,5.94719e-05,1.7734e-05,1.01055e-05,3
7.80566e-05,8.51484e-05,4.58929e-06,1.04312e-05,2.50357e-06,3.25613e-05,1.72154e-05,2.13565e-05,3
6.53846e-05,8.71476e-05,3.10976e-06,1.18254e-05,2.11833e-06,4.10955e-06,1.58461e-05,2.91362e-05,3
1.89204e-05,5.54806e-05,-2.344e-06,1.13196e-05,1.01175e-06,-1.21751e-05,1.3959e-05,2.93553e-05,3
-2.43314e-05,1.00758e-06,-7.53719e-06,8.84698e-06,-1.67976e-06,-1.81734e-05,1.24713e-05,2.52856e-05,3
-4.53184e-05,-4.25477e-05,-8.49351e-06,7.37118e-06,-3.25991e-06,-2.02141e-05,1.35876e-05,2.16633e-05,3
-4.48667e-05,-4.83296e-05,-7.63073e-06,9.01067e-06,-5.57985e-07,-2.1508e-05,1.74783e-05,1.97174e-05,3
-3.34883e-05,-9.83106e-06,-9.22584e-06,1.18367e-05,6.44769e-06,-2.03072e-05,2.21635e-05,2.00704e-05,3
-1.90955e-05,6.23185e-05,-1.1504e-05,1.30717e-05,1.68988e-05,-1.47545e-05,2.60948e-05,2.23589e-05,3
1.97351e-06,0.000138797,-1.08603e-05,1.28084e-05,2.62557e-05,-9.04391e-06,2.91933e-05,2.38839e-05,3
4.30553e-05,0.000161124,-1.07881e-05,1.30458e-05,2.81563e-05,-9.06684e-06,3.18048e-05,2.45936e-05,3
0.000103766,0.000113941,-1.52587e-05,1.19243e-05,2.23346e-05,-1.25572e-05,3.45272e-05,2.60158e-05,3
0.000155378,3.80597e-05,-2.13493e-05,6.73164e-06,1.41397e-05,-1.47483e-05,3.56849e-05,2.62669e-05,3
0.000173275,-3.94937e-05,-2.55417e-05,-1.29086e-07,6.92896e-06,-1.55773e-05,3.60366e-05,2.52001e-05,3
0.000152137,-9.68286e-05,-2.8517e-05,-4.16001e-06,5.12809e-07,-1.52176e-05,3.83621e-05,2.70954e-05,3
0.000101904,-9.57912e-05,-3.26085e-05,-3.5007e-06,-4.22954e-06,-1.42442e-05,3.79596e-05,3.02287e-05,3
5.08271e-05,-9.43294e-06,-3.37346e-05,1.78747e-07,-1.80514e-06,-1.42804e-05,3.04729e-05,3.06533e-05,3
1.67651e-05,0.000127667,-2.73988e-05,4.7593e-06,8.9489e-06,-1.09821e-05,2.19268e-05,3.27888e-05,3
3.5472e-06,0.000204425,-1.66912e-05,8.32507e-06,1.47091e-05,-6.08595e-06,1.80577e-05,3.9417e-05,3
-2.26201e-06,0.00020485,-3.99163e-06,1.20888e-05,1.53734e-05,-4.55126e-06,1.55556e-05,3.673e-05,3
-2.23293e-05,0.00018294,7.38515e-06,1.32864e-05,1.79992e-05,-6.13714e-06,9.79393e-06,8.30694e-06,3
-5.87078e-05,0.000128744,1.62321e-05,7.28727e-06,1.66592e-05,-1.13888e-05,-1.14838e-06,-4.10961e-05,3
-9.92764e-05,7.156e-05,2.49904e-05,-2.36365e-06,1.05827e-05,-1.79575e-05,-1.4735e-05,-8.98167e-05,3
-0.000126382,1.95513e-06,2.68272e-05,-8.50481e-06,2.54761e-06,-2.30626e-05,-2.43978e-05,-0.000120144,3
-0.000137655,-8.40879e-05,1.81661e-05,-7.38632e-06,-6.73631e-06,-2.29963e-05,-2.88458e-05,-0.000130182,3
-0.00012462,-0.000143377,7.63102e-06,-2.68337e-06,-1.84994e-05,-1.86989e-05,-3.00321e-05,-0.000121616,3
-8.32177e-05,-0.000155384,5.4726e-06,2.16821e-06,-2.68973e-05,-1.49721e-05,-2.43551e-05,-8.45749e-05,3
-4.618e-05,-0.000105336,8.96982e-06,4.37247e-06,-2.65863e-05,-1.51904e-05,-1.44688e-05,-2.9632e-05,3
-5.06039e-05,-1.10235e-05,8.48673e-06,-1.30001e-09,-1.98797e-05,-1.93108e-05,-1.40733e-05,1.01832e-05,3
-9.21851e-05,7.45134e-05,1.89917e-06,-1.11089e-05,-1.18836e-05,-2.48607e-05,-2.37534e-05,3.17982e-05,3
-0.000129027,9.76896e-05,-6.437e-06,-2.30545e-05,-4.59343e-06,-3.16401e-05,-3.47111e-05,5.72868e-05,3
-0.000127919,5.6285e-05,-8.61299e-06,-2.95259e-05,1.38401e-06,-3.9803e-05,-4.53932e-05,9.50133e-05,3
-0.000104796,-1.04266e-05,-3.54592e-06,-3.07155e-05,1.89434e-06,-5.5871e-05,-5.47119e-05,0.000116865,3
-9.91586e-05,-6.94664e-05,1.15828e-06,-3.03356e-05,-5.69407e-06,-8.49104e-05,-5.83324e-05,8.61006e-05,3
-0.000118479,-0.000116591,-2.32321e-08,-3.25547e-05,-2.20007e-05,-0.000109712,-5.60229e-05,1.22858e-06,3
-0.000142092,-0.000143765,-4.24774e-06,-3.87837e-05,-4.33824e-05,-0.000103606,-5.09198e-05,-0.000101129,3
-0.000153741,-0.00013811,-9.06104e-06,-4.6688e-05,-5.67267e-05,-6.39269e-05,-3.86922e-05,-0.000176161,3
-0.00014948,-9.52164e-05,-1.5057e-05,-5.02652e-05,-4.58804e-05,-1.03639e-05,-5.12155e-06,-0.000199444,3
-0.000132313,-3.4862e-05,-2.10392e-05,-4.65647e-05,-1.14578e-05,3.78079e-05,5.54587e-05,-0.000173388,3
-0.00010669,1.2055e-05,-2.57995e-05,-4.1645e-05,3.10717e-05,7.21561e-05,0.000109076,-0.000111015,3
-7.3612e-05,2.58983e-05,-3.04811e-05,-4.68674e-05,6.03192e-05,9.04002e-05,0.000123256,-1.32841e-05,3
-4.25938e-05,4.14686e-06,-3.56029e-05,-6.19899e-05,6.57305e-05,8.70429e-05,0.000114247,0.000115124,3
-2.30765e-05,-3.03097e-05,-4.01876e-05,-7.17754e-05,5.40276e-05,6.27509e-05,0.000105297,0.000209258,3
-1.82737e-05,-5.09282e-05,-4.24563e-05,-6.78925e-05,3.70635e-05,3.11788e-05,9.35803e-05,0.000188026,3
-2.13791e-05,-6.81882e-05,-4.02866e-05,-5.718e-05,2.58843e-05,1.57458e-06,7.12442e-05,8.63556e-05,3
-1.93732e-05,-9.56406e-05,-3.50331e-05,-4.71313e-05,2.35886e-05,-1.92268e-05,5.67676e-05,1.82332e-05,3
-5.17987e-07,-0.000117825,-2.81081e-05,-3.75499e-05,1.22764e-05,-2.98294e-05,5.76709e-05,8.18266e-06,3
4.57779e-05,-0.000115223,-1.88143e-05,-2.75123e-05,-1.3762e-05,-3.54528e-05,5.58124e-05,1.49943e-05,3
9.37958e-05,-6.70461e-05,-6.98734e-06,-1.63599e-05,-2.95235e-05,-3.35552e-05,4.527e-05,2.37511e-05,3
0.000102257,2.24576e-05,4.40865e-06,-6.08272e-06,-2.67925e-05,-2.80939e-05,2.96274e-05,2.59798e-05,3
6.8692e-05,0.000102366,8.07824e-06,-1.32822e-06,-1.28885e-05,-2.79342e-05,1.34804e-05,2.47232e-05,3
1.52397e-05,0.00012207,4.28538e-06,9.08336e-07,1.6884e-06,-3.17856e-05,2.88222e-07,1.97856e-05,3
-3.26881e-05,9.40929e-05,-3.82604e-07,4.40549e-06,8.90217e-06,-2.92347e-05,-5.70835e-06,1.45234e-05,3
-6.24045e-05,5.53864e-05,-3.21233e-06,7.8572e-06,1.56575e-05,-1.78832e-05,-4.25047e-06,1.01692e-05,3
-7.81648e-05,2.19346e-05,-5.37989e-06,1.04937e-05,2.94675e-05,-1.25459e-06,3.50753e-06,8.75638e-06,3
-9.11873e-05,-1.47739e-06,-1.02171e-05,1.15928e-05,4.64447e-05,1.571e-05,1.32921e-05,5.70612e-06,3
-9.81021e-05,-5.68304e-06,-1.48248e-05,1.26397e-05,5.87805e-05,2.74908e-05,2.34073e-05,-7.15308e-06,3
-8.57077e-05,9.64262e-06,-1.34365e-05,1.56319e-05,6.50721e-05,3.14413e-05,3.21588e-05,-1.97825e-05,3
-5.45558e-05,3.87631e-05,-5.18756e-06,1.87728e-05,6.70004e-05,2.42544e-05,3.42302e-05,-1.72949e-05,3
-1.54694e-05,8.41224e-05,5.05221e-06,2.10923e-05,6.28053e-05,1.11405e-05,2.79686e-05,1.02595e-05,3
1.89407e-05,0.00013822,1.27272e-05,2.5032e-05,3.70343e-05,2.73573e-06,1.81537e-05,5.75638e-05,3
4.32444e-05,0.000163931,1.5231e-05,3.1404e-05,-3.02569e-05,1.86833e-06,1.26998e-05,0.000109798,3
7.34226e-05,0.000127247,1.08083e-05,3.78588e-05,-0.000114919,-6.62007e-08,1.23905e-05,0.000139759,3
0.000138193,4.9602e-05,2.43633e-06,4.50065e-05,-0.000153752,-7.61886e-06,1.54583e-05,0.000131688,3
0.000220031,-1.06157e-05,-3.54619e-06,5.55407e-05,-0.000130453,-1.67809e-05,2.15625e-05,9.24085e-05,3
0.000257551,-3.70027e-05,-4.8268e-06,6.77805e-05,-8.16157e-05,-2.16665e-05,3.10083e-05,4.25487e-05,3
0.000223767,-6.24019e-05,-5.58037e-06,7.71846e-05,-4.00263e-05,-2.11619e-05,3.99608e-05,-3.75986e-06,3
0.000150925,-0.000112839,-9.14333e-06,7.91749e-05,-1.29626e-05,-1.74048e-05,4.27272e-05,-3.71467e-05,3
7.11098e-05,-0.000185948,-1.2088e-05,7.34228e-05,1.11452e-05,-1.27061e-05,3.44117e-05,-5.6697e-05,3
2.84359e-07,-0.000251679,-1.07215e-05,6.20649e-05,3.53362e-05,-1.13318e-05,1.65487e-05,-8.01596e-05,3
-4.39843e-05,-0.000263625,-4.80466e-06,4.93083e-05,5.62023e-05,-1.25173e-05,-2.86561e-06,-0.000128065,3
-6.07211e-05,-0.000153227,7.96676e-06,3.85051e-05,9.37689e-05,-1.15592e-05,-1.46359e-05,-0.000185132,3
-7.03967e-05,5.7142e-05,1.89244e-05,3.23564e-05,0.000162559,-8.48956e-06,-1.78891e-05,-0.000198341,3
-9.22205e-05,0.000247339,1.98631e-05,3.11194e-05,0.000234886,-6.18285e-06,-1.91949e-05,-0.000153865,3
-0.000119287,0.000344939,1.41036e-05,2.53258e-05,0.000275596,-2.86678e-06,-2.36247e-05,-8.90652e-05,3
-0.000147247,0.000322275,4.60363e-06,6.64024e-07,0.000264988,3.41494e-06,-2.86373e-05,-1.78978e-05,3
-0.000182274,0.000200168,-7.54807e-06,-5.24878e-05,0.00020281,1.09604e-05,-2.62857e-05,6.62308e-05,3
-0.000215713,5.51871e-05,-2.31883e-05,-0.000120168,0.000113943,1.46914e-05,-1.33562e-05,0.00014843,3
-0.000234961,-4.29869e-05,-3.55417e-05,-0.000172311,4.17472e-05,1.13387e-05,2.72521e-06,0.000169112,3
-0.000232642,-7.65443e-05,-4.15617e-05,-0.000191131,2.54537e-06,1.875e-06,8.66982e-06,0.000106625,3
-0.00021309,-7.28646e-05,-4.4605e-05,-0.000180981,-1.54729e-05,-1.08966e-05,-2.44965e-06,1.75251e-05,3
-0.000185297,-5.94465e-05,-4.46239e-05,-0.00015329,-2.20413e-05,-1.92132e-05,-2.13951e-05,-4.03604e-05,3
-0.000158927,-4.93366e-05,-4.14975e-05,-0.000117368,-2.03512e-05,-1.84446e-05,-3.07907e-05,-5.46575e-05,3
-0.000137895,-4.63022e-05,-3.73391e-05,-8.19091e-05,-1.21281e-05,-1.22965e-05,-2.50876e-05,-5.12944e-05,3
-0.000117695,-4.53105e-05,-3.41286e-05,-5.32109e-05,-5.11736e-06,-5.73469e-06,-1.27336e-05,-4.59014e-05,3
-9.73564e-05,-3.8583e-05,-3.12669e-05,-3.31902e-05,-2.73132e-06,1.09723e-06,-2.25477e-06,-4.18975e-05,3
-7.94683e-05,-2.46544e-05,-2.56276e-05,-1.85623e-05,-3.56441e-06,6.91929e-06,5.03994e-06,-3.50844e-05,3
-6.32462e-05,-6.51997e-06,-1.58885e-05,-6.7236e-06,-2.99148e-06,8.80669e-06,9.99427e-06,-2.67e-05,3
-4.3111e-05,1.1018e-05,-7.09506e-06,2.19213e-06,-2.26489e-06,5.98105e-06,1.27285e-05,-1.46562e-05,3
-1.83694e-05,2.21735e-05,-2.87453e-06,7.48211e-06,-2.13653e-06,-3.71258e-06,9.68879e-06,3.06473e-08,3
6.07524e-06,2.71288e-05,-7.43653e-07,1.11731e-05,-6.14004e-07,-1.62885e-05,2.43936e-06,1.21809e-05,3
2.27531e-05,2.9004e-05,3.20347e-06,1.38042e-05,3.15966e-06,-2.00613e-05,3.07627e-07,1.74272e-05,3
2.83507e-05,2.82141e-05,7.92558e-06,1.45085e-05,5.19137e-06,-1.46258e-05,8.49407e-06,1.76571e-05,3
2.40143e-05,2.2147e-05,9.01726e-06,1.37335e-05,3.44122e-06,-1.38344e-05,1.83968e-05,1.43194e-05,3
1.4765e-05,1.51986e-05,4.59837e-06,1.21303e-05,-6.04869e-07,-2.24699e-05,1.83894e-05,6.54754e-06,3
8.40356e-06,1.62253e-05,-1.01674e-06,1.00661e-05,-5.13148e-06,-3.14404e-05,8.02712e-06,-1.86355e-06,3
1.01725e-05,2.45233e-05,-4.31753e-06,9.741e-06,-5.67467e-06,-3.07894e-05,-3.07368e-06,-5.50197e-06,3
1.41771e-05,3.16598e-05,-5.45215e-06,1.36006e-05,-2.76442e-06,-2.27601e-05,-6.28023e-06,-4.95997e-07,3
1.18838e-05,3.45725e-05,-4.50838e-06,1.83532e-05,-2.57448e-06,-1.46411e-05,-3.26026e-06,6.86724e-06,3
1.41554e-05,3.90931e-05,-2.63902e-06,1.96532e-05,-5.59222e-06,-1.41449e-05,-5.46307e-07,9.30732e-06,3
4.57112e-05,4.27647e-05,-4.36727e-06,1.73061e-05,-8.93279e-06,-2.36334e-05,3.66184e-06,9.43688e-06,3
9.51506e-05,3.69357e-05,-7.82716e-06,1.6778e-05,-9.46804e-06,-3.29844e-05,1.44448e-05,1.24056e-05,3
0.000121751,2.77436e-05,-8.58898e-06,2.22676e-05,-4.94538e-06,-3.30199e-05,2.40311e-05,1.46407e-05,3
0.000120902,2.93843e-05,-7.51763e-06,2.77681e-05,1.69908e-06,-2.49252e-05,2.04432e-05,1.1094e-05,3
0.00011471,4.25823e-05,-6.51867e-06,3.01906e-05,6.16512e-06,-1.52214e-05,8.54277e-06,-4.71813e-06,3
0.00012072,5.81902e-05,-5.506e-06,3.10842e-05,7.60503e-06,-4.53122e-06,2.55956e-06,-2.19968e-05,3
0.00012716,7.20593e-05,-3.58564e-06,3.148e-05,1.15487e-05,7.09416e-06,6.7671e-06,-2.31583e-05,3
0.00011535,7.99222e-05,-1.76214e-06,3.43302e-05,1.72037e-05,1.40224e-05,1.6945e-05,-2.32415e-06,3
8.61552e-05,8.08602e-05,-4.1782e-07,4.04192e-05,1.87849e-05,1.17441e-05,2.66473e-05,2.95333e-05,3
4.41469e-05,7.10463e-05,-1.18169e-06,4.56968e-05,1.34512e-05,5.05272e-06,3.28954e-05,5.72665e-05,3
-1.28776e-06,3.11587e-05,-3.39148e-06,4.53952e-05,7.999e-06,-1.75593e-06,3.59181e-05,7.33687e-05,3
-4.51837e-05,-2.91258e-05,-5.86277e-06,4.10484e-05,1.10979e-05,-9.82478e-06,3.67819e-05,7.76932e-05,3
-8.43191e-05,-4.82273e-05,-9.36282e-06,3.65459e-05,2.41103e-05,-1.89354e-05,3.46936e-05,7.42926e-05,3
-0.000112157,1.45435e-05,-1.53708e-05,3.2273e-05,3.85481e-05,-2.58932e-05,2.9402e-05,6.52066e-05,3
-0.000110384,0.000114997,-2.08578e-05,2.87131e-05,4.08886e-05,-2.60982e-05,2.55048e-05,5.4442e-05,3
-6.71628e-05,0.000154203,-2.04496e-05,2.96437e-05,2.0047e-05,-1.85797e-05,2.85637e-05,4.1391e-05,3
-3.8351e-06,9.27361e-05,-1.41012e-05,3.4001e-05,-1.92306e-05,-9.36606e-06,3.54934e-05,2.1801e-05,3
4.89792e-05,-7.07299e-06,-7.37261e-06,3.52876e-05,-5.06578e-05,-6.85443e-06,3.6265e-05,3.11555e-07,3
9.62544e-05,-7.82015e-05,-1.84997e-06,3.0263e-05,-5.27797e-05,-1.24106e-05,2.82517e-05,-1.54149e-05,3
0.00012329,-0.000126234,3.35531e-06,2.04091e-05,-2.52989e-05,-2.11069e-05,1.75589e-05,-2.77485e-05,3
7.24752e-05,-0.000186848,3.76772e-06,8.85078e-06,2.1812e-05,-2.77664e-05,8.63172e-06,-4.30967e-05,3
-4.35489e-05,-0.000234929,-1.55046e-06,1.43273e-06,7.26516e-05,-3.02888e-05,2.03367e-06,-6.73439e-05,3
-0.000152397,-0.000215575,-5.02802e-06,8.921e-07,0.000105972,-2.75837e-05,1.86667e-07,-9.70413e-05,3
-0.000222115,-0.000164549,2.56997e-06,4.98276e-06,0.000111496,-2.15448e-05,-4.57821e-07,-0.000115386,3
-0.000263221,-0.00012224,1.8721e-05,9.8532e-06,9.13313e-05,-1.60666e-05,-6.63402e-06,-0.000112026,3
-0.000278725,-4.10342e-05,3.18764e-05,1.21895e-05,5.33974e-05,-1.46935e-05,-1.6091e-05,-8.65079e-05,3
-0.000269905,6.96111e-05,3.23686e-05,1.38864e-05,1.51622e-05,-1.61851e-05,-2.14975e-05,-3.66281e-05,3
-0.000249338,0.000138274,1.96484e-05,1.17113e-05,-1.6024e-05,-1.45434e-05,-1.60576e-05,3.81152e-05,3
-0.000226125,0.000146699,2.05932e-06,-3.42023e-06,-4.44665e-05,-1.04507e-05,-3.39972e-06,0.0001006,3
-0.000196306,0.000120234,-1.27166e-05,-2.84358e-05,-6.76191e-05,-7.35797e-06,3.80217e-06,9.3385e-05,3
-0.000160302,5.72023e-05,-1.80463e-05,-4.82979e-05,-8.21833e-05,-5.1641e-06,1.50045e-06,3.02781e-05,3
-0.00012959,-3.29298e-05,-1.33883e-05,-5.67879e-05,-8.16706e-05,-4.85046e-06,-2.34827e-06,-3.37443e-05,3
-0.000109339,-9.52375e-05,-6.19101e-06,-6.32738e-05,-6.67572e-05,-6.34678e-06,-2.57525e-06,-6.65128e-05,3
-8.88388e-05,-8.68377e-05,-2.2789e-06,-7.27536e-05,-4.49037e-05,-8.04175e-06,-3.79268e-07,-6.62779e-05,3
-5.99912e-05,-1.48109e-05,-2.44475e-06,-7.93822e-05,-2.19582e-05,-9.07674e-06,2.10582e-06,-5.09558e-05,3
-3.00211e-05,8.01301e-05,-4.86621e-06,-7.56178e-05,-2.32379e-06,-7.71664e-06,5.2001e-06,-3.60555e-05,3
-1.34847e-05,0.000153461,-8.77604e-06,-6.5085e-05,9.35002e-06,-4.08985e-06,8.9924e-06,-2.73027e-05,3
-2.08651e-05,0.000171312,-1.49881e-05,-5.87196e-05,1.24836e-05,-6.40716e-07,1.07386e-05,-2.34508e-05,3
-4.48346e-05,0.000136953,-2.08044e-05,-5.71045e-05,1.1028e-05,1.08608e-07,8.25947e-06,-2.39992e-05,3
-6.91383e-05,7.85406e-05,-2.13209e-05,-5.37194e-05,9.61034e-06,-2.89449e-08,4.2891e-06,-2.41586e-05,3
-8.021e-05,3.13038e-05,-1.73366e-05,-4.54331e-05,1.3089e-05,9.52854e-07,4.00663e-06,-1.96885e-05,3
-7.42075e-05,1.19763e-05,-1.37833e-05,-3.54877e-05,2.07838e-05,3.71137e-06,6.31912e-06,-1.09212e-05,3
-5.6233e-05,1.25443e-05,-1.56674e-05,-2.60694e-05,2.72368e-05,6.32398e-06,8.78431e-06,-4.09582e-06,3
-3.62215e-05,1.85373e-05,-2.13024e-05,-1.66932e-05,2.7755e-05,4.39227e-06,1.2468e-05,-2.88139e-06,3
-2.09606e-05,2.87287e-05,-2.36441e-05,-6.9642e-06,2.61829e-05,-7.71179e-07,1.76829e-05,-4.71658e-06,3
-1.26767e-05,4.4433e-05,-1.9275e-05,1.32397e-06,2.79939e-05,-3.89664e-06,2.03224e-05,-3.70665e-06,3
-8.55898e-06,5.33193e-05,-1.23617e-05,6.95484e-06,3.42194e-05,-3.89309e-06,2.04513e-05,3.38382e-07,3
-1.97328e-06,4.30958e-05,-1.0515e-05,1.08598e-05,3.94825e-05,-4.862e-06,2.12664e-05,5.26135e-06,3
1.14164e-05,1.8156e-05,-1.41108e-05,1.22983e-05,4.08237e-05,-8.83328e-06,2.22518e-05,1.10982e-05,3
2.67805e-05,-9.79988e-06,-1.71917e-05,1.01273e-05,4.01626e-05,-1.4041e-05,2.14513e-05,1.62345e-05,3
3.68956e-05,-3.26346e-05,-1.77246e-05,8.53639e-06,3.91084e-05,-1.63777e-05,2.01129e-05,1.97473e-05,3
4.06962e-05,-4.71282e-05,-1.82923e-05,9.47515e-06,3.85113e-05,-1.3239e-05,2.00134e-05,2.22317e-05,3
4.50932e-05,-5.97309e-05,-1.77758e-05,9.23039e-06,3.7013e-05,-6.32413e-06,1.91255e-05,2.61244e-05,3
6.13212e-05,-7.12462e-05,-1.52336e-05,8.40646e-06,3.4975e-05,-1.74785e-06,2.17325e-05,3.37146e-05,3
9.1897e-05,-6.6606e-05,-1.22525e-05,9.28709e-06,3.36195e-05,-1.96308e-07,3.27571e-05,4.62549e-05,3
0.000113194,-1.30314e-05,-6.68193e-06,1.10464e-05,3.34481e-05,8.88074e-08,4.5929e-05,6.1818e-05,3
0.000112831,8.92769e-05,1.83559e-07,1.26681e-05,2.93385e-05,-3.58815e-06,5.20412e-05,7.3508e-05,3
0.000125419,0.000184377,3.92658e-06,1.37466e-05,1.53301e-05,-9.66925e-06,4.65025e-05,7.17071e-05,3
0.000150005,0.000217685,2.30408e-06,1.47759e-05,1.72562e-06,-1.46476e-05,3.21023e-05,5.41265e-05,3
0.000144229,0.000185079,-2.40431e-06,1.63918e-05,2.14899e-06,-1.51277e-05,1.40734e-05,3.11971e-05,3
9.66995e-05,0.000111853,-8.33903e-06,1.63978e-05,1.45983e-05,-1.29155e-05,-3.53055e-06,1.60766e-05,3
2.82958e-05,3.7592e-05,-1.4433e-05,1.47844e-05,2.75931e-05,-1.29277e-05,-1.44718e-05,1.39992e-05,3
-3.50944e-05,-4.16927e-06,-1.62619e-05,1.35654e-05,3.42984e-05,-1.50085e-05,-1.42231e-05,2.10834e-05,3
-8.00073e-05,-1.94344e-05,-1.51266e-05,1.18018e-05,3.38324e-05,-1.42171e-05,1.42849e-06,2.57343e-05,3
-0.000101257,-3.2755e-05,-1.45584e-05,7.31754e-06,2.89025e-05,-7.57956e-06,2.85663e-05,2.07222e-05,3
-0.000106245,-6.01867e-05,-1.5299e-05,2.75045e-06,2.56896e-05,-1.68957e-07,5.05352e-05,1.87615e-06,3
-0.000106899,-8.41311e-05,-1.41226e-05,1.0542e-06,2.72138e-05,3.17054e-06,5.52133e-05,-3.3826e-05,3
-0.000102262,-7.99662e-05,-7.49854e-06,5.34471e-07,3.21902e-05,1.8123e-06,4.81338e-05,-7.79229e-05,3
-8.51061e-05,-4.4547e-05,4.61163e-06,5.89109e-07,3.73981e-05,-2.16369e-06,3.98885e-05,-0.000111203,3
-6.04302e-05,6.3406e-06,1.75749e-05,2.63108e-06,4.11128e-05,-6.10378e-06,3.32692e-05,-0.000113293,3
-4.49474e-05,2.47835e-05,2.50928e-05,5.34904e-06,4.16305e-05,-7.50145e-06,2.78536e-05,-7.14022e-05,3
-4.84029e-05,-3.51932e-05,2.47266e-05,6.80706e-06,3.92241e-05,-6.29692e-06,2.42323e-05,8.50694e-07,3
-6.69261e-05,-0.000130569,1.9701e-05,8.36844e-06,3.66346e-05,-5.82065e-06,1.88359e-05,5.02167e-05,3
-8.51394e-05,-0.000158718,1.51364e-05,8.07422e-06,3.49289e-05,-9.17527e-06,5.03117e-06,3.38993e-05,3
-8.79399e-05,-8.05392e-05,1.24907e-05,3.25535e-06,3.08521e-05,-1.42029e-05,-1.00542e-05,-2.71026e-05,3
-7.77551e-05,3.71213e-05,8.33942e-06,-4.89214e-06,2.1745e-05,-1.69185e-05,-1.08751e-05,-8.39154e-05,3
-6.9031e-05,0.000106999,2.27991e-07,-1.38179e-05,1.07609e-05,-1.87274e-05,1.93131e-06,-0.000107622,3
-6.75756e-05,0.000123943,-7.54195e-06,-1.95762e-05,4.23117e-06,-2.14455e-05,1.11603e-05,-0.000101773,3
-6.8146e-05,0.000119077,-1.13001e-05,-1.96952e-05,4.0103e-06,-2.33114e-05,8.80036e-06,-8.31947e-05,3
-6.18382e-05,8.55285e-05,-1.09605e-05,-1.65354e-05,4.2101e-06,-2.34844e-05,3.49479e-07,-4.39139e-05,3
-4.89303e-05,2.76287e-05,-9.64586e-06,-1.59348e-05,1.90998e-06,-2.25883e-05,-1.22874e-06,3.84688e-05,3
-3.50567e-05,-1.74245e-05,-8.02677e-06,-1.79153e-05,-2.3868e-07,-1.9626e-05,1.11114e-05,0.000136803,3
-2.17711e-05,-2.78555e-05,-5.13673e-06,-1.69777e-05,-2.04937e-07,-1.49146e-05,2.17272e-05,0.000164859,3
2.16965e-06,3.59576e-07,-2.85943e-06,-1.29262e-05,1.15581e-06,-9.57014e-06,1.95284e-05,0.00011302,3
3.93267e-05,4.72169e-05,-1.26097e-06,-8.39254e-06,2.24475e-06,-4.38672e-06,1.28752e-05,5.7279e-05,3
6.09178e-05,8.35677e-05,-5.60497e-07,-4.47568e-06,3.18923e-06,-1.01293e-06,1.12044e-05,3.46854e-05,3
5.02063e-05,9.35479e-05,-1.95112e-06,-5.00154e-06,2.86589e-06,-4.39047e-07,1.35982e-05,3.38859e-05,3
1.75004e-05,7.54478e-05,-4.89605e-06,-8.45639e-06,3.13966e-07,-1.86457e-06,1.4347e-05,3.37657e-05,3
-1.53388e-05,4.72092e-05,-6.46933e-06,-9.47075e-06,-1.72397e-06,-3.31677e-06,1.35035e-05,3.06056e-05,3
-3.18215e-05,3.31689e-05,-4.68933e-06,-6.7871e-06,-1.82e-06,-3.65267e-06,1.40378e-05,2.67401e-05,3
-3.3465e-05,3.6625e-05,-3.21734e-06,-3.15468e-06,-1.58859e-06,-5.4331e-06,1.56342e-05,2.36525e-05,3
-3.06713e-05,4.2335e-05,-7.05564e-06,-2.5497e-06,-1.6068e-06,-9.12261e-06,1.70213e-05,2.12959e-05,3
-3.10229e-05,3.59041e-05,-1.52606e-05,-4.05642e-06,-1.64965e-06,-1.30454e-05,1.9108e-05,1.73737e-05,3
-3.33201e-05,1.79279e-05,-2.32191e-05,-4.62381e-06,-2.50135e-06,-1.52912e-05,2.08678e-05,1.00486e-05,3
-3.16318e-05,-8.0849e-11,-2.82719e-05,-3.82835e-06,-4.39819e-06,-1.54802e-05,2.03604e-05,4.178e-07,3
-2.33986e-05,-9.61784e-06,-2.97654e-05,-2.67527e-06,-5.81266e-06,-1.5077e-05,1.76076e-05,-7.51212e-06,3
-1.42249e-05,-8.87439e-06,-2.78235e-05,-8.47768e-07,-4.65552e-06,-1.42555e-05,1.41482e-05,-1.3603e-05,3
-9.67222e-06,-3.74153e-06,-2.41667e-05,1.18572e-06,-1.70806e-06,-1.29984e-05,9.92208e-06,-1.78091e-05,3
-1.21304e-05,-5.65643e-07,-1.94177e-05,2.72556e-06,1.37113e-06,-1.14136e-05,4.79479e-06,-1.83232e-05,3
-2.07236e-05,-1.78155e-06,-1.24504e-05,4.21092e-06,5.79213e-06,-1.08518e-05,8.37691e-07,-1.4771e-05,3
-3.03899e-05,-1.1936e-06,-2.88874e-06,7.86995e-06,1.1034e-05,-1.20619e-05,2.42997e-07,-1.06452e-05,3
-3.43166e-05,4.05806e-06,4.27189e-06,1.38772e-05,8.7351e-06,-1.42558e-05,2.76135e-06,-7.49853e-06,3
-2.75608e-05,9.53824e-06,4.15791e-06,2.03837e-05,-7.24325e-06,-1.5443e-05,5.76527e-06,-6.62895e-06,3
-1.20427e-05,8.15719e-06,8.79213e-07,2.50069e-05,-3.4793e-05,-1.80704e-05,8.18489e-06,-6.7907e-06,3
3.45087e-06,2.46053e-06,-1.8967e-06,2.59599e-05,-6.484e-05,-3.47501e-05,1.23576e-05,-6.95665e-06,3
2.78442e-05,2.54618e-06,-3.15826e-06,2.41276e-05,-8.3728e-05,-7.22748e-05,1.81376e-05,-8.90937e-06,3
6.86147e-05,1.28514e-05,-2.93586e-06,1.99071e-05,-8.72389e-05,-0.000106311,1.95793e-05,-2.52271e-05,3
9.38249e-05,2.76951e-05,-3.31901e-06,1.51338e-05,-7.19412e-05,-0.000101564,1.59236e-05,-4.93146e-05,3
0.000107177,4.44333e-05,-5.55686e-06,1.00392e-05,-3.59582e-05,-6.5996e-05,1.57837e-05,-4.80169e-05,3
0.000118256,6.41941e-05,-5.89107e-06,8.64509e-06,9.33594e-07,-2.63657e-05,1.99289e-05,-8.84464e-06,3
0.000117221,9.41121e-05,-3.4465e-06,1.84975e-05,1.79676e-05,7.68352e-06,1.84426e-05,5.78683e-05,3
0.000120586,0.000131123,-2.99297e-06,3.38515e-05,1.93447e-05,3.36033e-05,7.27084e-06,0.000133113,3
0.000111028,0.000145807,-6.6846e-06,4.2187e-05,1.06709e-05,5.61895e-05,-6.33627e-06,0.0001859,3
6.66563e-05,0.000137532,-1.35437e-05,3.77885e-05,-5.23634e-06,6.5443e-05,-1.28451e-05,0.000184765,3
-5.81452e-06,0.00012346,-2.00633e-05,2.56899e-05,-1.71569e-05,5.18316e-05,-1.1702e-05,0.000132728,3
-7.4943e-05,9.59127e-05,-2.40815e-05,1.37905e-05,-2.20215e-05,1.60451e-05,-2.41412e-06,6.16196e-05,3
-0.000111623,1.58626e-05,-2.44024e-05,8.05909e-06,-2.57607e-05,-2.61017e-05,1.45532e-05,-5.72838e-07,3
-0.00011414,-0.000148112,-2.25745e-05,4.69602e-06,-3.56143e-05,-4.70735e-05,3.30707e-05,-4.28592e-05,3
-0.00010571,-0.000354757,-1.89837e-05,-7.31954e-06,-4.42964e-05,-2.97898e-05,4.66564e-05,-6.0842e-05,3
-0.000114137,-0.000498559,-1.13333e-05,-2.78027e-05,-3.33034e-05,1.96336e-05,5.49825e-05,-5.77388e-05,3
-0.000142355,-0.000487789,-9.59593e-07,-4.42042e-05,5.58086e-06,6.48828e-05,5.94168e-05,-4.9793e-05,3
-0.000175331,-0.000322348,5.6191e-06,-4.54928e-05,6.65015e-05,7.35847e-05,5.70806e-05,-4.91774e-05,3
-0.000197615,-0.000102837,1.14934e-06,-3.59572e-05,0.000131118,4.74612e-05,4.67537e-05,-5.48208e-05,3
-0.000211441,5.13208e-05,-1.40245e-05,-3.19988e-05,0.000173938,1.60576e-05,3.26125e-05,-6.10483e-05,3
-0.000220784,0.000113213,-2.98962e-05,-4.69784e-05,0.000178002,-6.25446e-07,2.13258e-05,-6.76767e-05,3
-0.000224479,0.000140519,-3.62321e-05,-7.49919e-05,0.000147745,-6.82953e-06,1.37947e-05,-7.45695e-05,3
-0.000210853,0.00015807,-3.55734e-05,-0.000100424,0.000101686,-1.87624e-05,5.96453e-06,-7.85268e-05,3
-0.00016312,0.000141465,-3.60341e-05,-0.000112615,6.38281e-05,-4.02424e-05,-7.08202e-06,-7.63152e-05,3
-8.84294e-05,9.39579e-05,-3.62149e-05,-0.00010853,5.11595e-05,-6.29193e-05,-2.40941e-05,-6.63684e-05,3
-2.0618e-05,5.48266e-05,-3.08537e-05,-9.16598e-05,5.41347e-05,-7.2985e-05,-3.52426e-05,-5.0913e-05,3
1.47324e-05,4.64537e-05,-1.99141e-05,-6.91557e-05,4.73071e-05,-6.10314e-05,-3.43908e-05,-3.83112e-05,3
2.02097e-05,5.34001e-05,-1.02726e-05,-5.078e-05,2.38666e-05,-3.53337e-05,-2.78789e-05,-3.53268e-05,3
1.73742e-05,4.72862e-05,-9.44246e-06,-3.97197e-05,6.74455e-07,-1.01116e-05,-2.44122e-05,-3.60836e-05,3
8.45089e-06,2.49807e-05,-1.38286e-05,-2.72209e-05,-1.55104e-06,1.03002e-05,-2.22467e-05,-2.71865e-05,3
9.53612e-06,1.02291e-05,-1.59365e-05,-1.16309e-05,1.18936e-05,2.13354e-05,-1.18462e-05,-6.492e-06,3
3.28861e-05,-6.62987e-06,-1.64018e-05,-3.68087e-06,1.52482e-05,1.59204e-05,3.55961e-06,1.35918e-05,3
4.5414e-05,-4.20523e-05,-1.79504e-05,-5.67941e-06,-3.00433e-06,-3.48929e-06,1.34866e-05,2.87858e-05,3
4.09961e-05,-8.00542e-05,-1.74632e-05,-6.88241e-06,-4.99175e-05,-2.34878e-05,2.05172e-05,5.2315e-05,3
3.22291e-05,-8.79874e-05,-1.16141e-05,1.84776e-07,-0.000133767,-2.64804e-05,3.39251e-05,7.64307e-05,3
1.78792e-05,-5.77646e-05,-6.57084e-07,1.52963e-05,-0.000210429,-1.12698e-05,4.61109e-05,7.51324e-05,3
3.86652e-06,-1.60249e-05,1.15796e-05,3.39195e-05,-0.000215802,9.72618e-06,3.90081e-05,5.18511e-05,3
-1.84338e-06,9.15191e-06,1.89629e-05,4.63193e-05,-0.000143213,2.61771e-05,1.31077e-05,2.60813e-05,3
-8.59392e-06,-3.01716e-05,1.69841e-05,4.71666e-05,-1.87556e-05,3.60421e-05,-1.0342e-05,5.42225e-06,3
-2.9932e-05,-0.000123038,1.1712e-05,4.34218e-05,0.00010396,3.94642e-05,-1.6689e-05,-1.18305e-05,3
-6.21078e-05,-0.000183447,1.20231e-05,4.25183e-05,0.000175446,3.44613e-05,-1.08536e-05,-2.91432e-05,3
-9.01692e-05,-0.000149883,1.54303e-05,4.08636e-05,0.000186033,1.51695e-05,-4.50117e-06,-5.07501e-05,3
-0.000107931,-3.66869e-05,1.70209e-05,3.4028e-05,0.000151532,-1.19076e-05,-6.12933e-06,-7.43126e-05,3
-0.000122444,0.000102735,1.45122e-05,2.53053e-05,9.40573e-05,-3.13058e-05,-1.31299e-05,-9.52591e-05,3
-0.00014132,0.000208161,9.12497e-06,2.16158e-05,3.94453e-05,-3.7906e-05,-1.80648e-05,-0.000106317,3
-0.00016142,0.00022683,3.82851e-06,1.90268e-05,5.49993e-06,-3.77205e-05,-1.70657e-05,-9.85576e-05,3
-0.000172471,0.000157885,-1.70697e-07,5.89641e-06,-1.13668e-05,-3.47542e-05,-1.25494e-05,-7.04074e-05,3
-0.000169783,6.63298e-05,-4.27242e-06,-2.11008e-05,-2.57931e-05,-2.83406e-05,-6.83307e-06,-3.06635e-05,3
-0.000160724,3.41088e-05,-8.75365e-06,-5.47716e-05,-5.31719e-05,-2.06455e-05,7.24558e-07,1.21318e-05,3
-0.000150065,7.10115e-05,-1.27331e-05,-8.53719e-05,-9.14131e-05,-1.41691e-05,1.293e-05,5.89985e-05,3
-0.000134859,0.000124869,-1.55272e-05,-0.000100157,-0.00012198,-1.09046e-05,2.92073e-05,0.000100233,3
-0.000113136,0.000159986,-1.55163e-05,-8.5846e-05,-0.000120786,-8.17701e-06,4.35518e-05,0.000103068,3
-8.88275e-05,0.000171563,-1.25005e-05,-5.00297e-05,-8.55532e-05,-4.38055e-06,4.91049e-05,5.80014e-05,3
-6.97475e-05,0.000144568,-9.06281e-06,-2.29654e-05,-3.81245e-05,-4.57495e-06,4.13552e-05,8.70156e-06,3
-6.13959e-05,8.44091e-05,-8.44766e-06,-2.25458e-05,-1.16919e-06,-1.0962e-05,2.44969e-05,-1.23754e-05,3
-5.93762e-05,3.35272e-05,-1.05807e-05,-3.79418e-05,2.52184e-05,-1.35766e-05,9.73053e-06,-1.20372e-05,3
-5.42228e-05,1.38778e-05,-1.28166e-05,-4.83742e-05,4.66468e-05,-4.53351e-06,4.77412e-06,-5.44083e-06,3
-4.35861e-05,1.21105e-05,-1.27494e-05,-4.46776e-05,6.17194e-05,5.0728e-06,5.72651e-06,4.18442e-06,3
-2.68803e-05,1.67363e-05,-1.28516e-05,-3.18031e-05,7.53109e-05,3.35017e-06,6.97547e-06,1.84924e-05,3
-4.68208e-06,3.32049e-05,-1.4704e-05,-1.56048e-05,8.9011e-05,-5.7222e-06,4.63544e-06,3.15668e-05,3
2.55117e-05,5.80453e-05,-1.63763e-05,-9.80393e-07,9.60165e-05,-1.29955e-05,-4.51901e-06,3.6626e-05,3
7.5381e-05,7.49124e-05,-1.69763e-05,1.02038e-05,9.21217e-05,-1.43234e-05,-1.32233e-05,3.70009e-05,3
0.000132678,7.92137e-05,-1.72261e-05,1.69938e-05,7.97553e-05,-1.57373e-05,-1.2548e-05,3.73852e-05,3
0.000166066,7.33432e-05,-1.62094e-05,2.03471e-05,6.60138e-05,-1.75947e-05,-1.81777e-06,3.84038e-05,3
0.00015504,6.63621e-05,-1.19166e-05,2.19893e-05,5.39057e-05,-1.83137e-05,1.5471e-05,3.96294e-05,3
0.000107402,5.91792e-05,-9.50606e-06,1.91977e-05,4.24756e-05,-1.91303e-05,3.73271e-05,3.6428e-05,3
5.23273e-05,4.50775e-05,-1.22558e-05,1.22145e-05,3.39951e-05,-2.05106e-05,6.02339e-05,2.8491e-05,3
9.1009e-06,2.44855e-05,-1.26971e-05,8.2449e-06,3.16498e-05,-1.95788e-05,7.49456e-05,2.46917e-05,3
-1.88115e-05,5.31901e-06,-5.26374e-06,9.18722e-06,3.37575e-05,-1.45728e-05,7.6184e-05,2.97526e-05,3
-3.88171e-05,-6.5157e-06,3.58513e-06,9.34762e-06,3.45417e-05,-9.59584e-06,6.62085e-05,3.268e-05,3
-5.25817e-05,-1.59118e-05,6.25671e-06,6.37569e-06,3.10613e-05,-9.4623e-06,5.11631e-05,1.98274e-05,3
-5.58718e-05,-1.96255e-05,2.77756e-06,2.15134e-06,2.36825e-05,-1.63584e-05,3.57126e-05,-1.9356e-05,3
-4.42072e-05,-9.84835e-06,-1.87097e-06,2.3756e-07,1.74274e-05,-2.57593e-05,2.24374e-05,-8.60706e-05,3
-2.0656e-05,8.75623e-06,-4.43909e-06,1.69277e-06,1.49032e-05,-3.33376e-05,1.04888e-05,-0.000158601,3
3.19862e-06,1.78879e-05,-7.16175e-06,4.41934e-06,1.36128e-05,-3.69416e-05,-1.80646e-06,-0.000197571,3
1.18688e-05,3.63543e-06,-1.09025e-05,6.92286e-06,1.14868e-05,-3.72631e-05,-1.15814e-05,-0.000180246,3
1.65987e-06,-3.28509e-05,-1.37195e-05,1.14307e-05,1.15921e-05,-3.27023e-05,-1.63772e-05,-0.000118679,3
-1.44272e-05,-6.51138e-05,-1.39427e-05,1.65342e-05,1.30647e-05,-2.38022e-05,-1.68195e-05,-3.60985e-05,3
-2.58895e-05,-7.446e-05,-1.1743e-05,1.61607e-05,1.25884e-05,-1.41586e-05,-1.10343e-05,6.05764e-05,3
-2.79352e-05,-6.45101e-05,-8.19339e-06,1.16348e-05,9.55163e-06,-8.3834e-06,5.62894e-06,0.000166917,3
-1.3652e-06,-3.12684e-05,-2.96688e-06,1.04104e-05,6.16814e-06,-5.19146e-06,3.16686e-05,0.000236144,3
7.80891e-05,3.69919e-05,4.36382e-06,1.47494e-05,5.86499e-06,-2.26005e-06,4.982e-05,0.000200945,3
0.000185668,0.000107173,9.44464e-06,1.77801e-05,9.15159e-06,-1.8204e-06,4.60451e-05,9.47675e-05,3
0.000233729,0.000135399,6.11982e-06,1.25885e-05,1.22345e-05,-5.71542e-06,2.81889e-05,1.55671e-05,3
0.000165295,0.000130741,-2.2462e-06,6.94953e-06,1.53281e-05,-1.06031e-05,1.33415e-05,-6.73383e-06,3
4.19098e-05,9.45147e-05,-1.05215e-05,8.72343e-06,2.02417e-05,-1.41963e-05,7.39624e-06,-1.29917e-05,3
-5.92016e-05,2.19263e-05,-1.68311e-05,1.18128e-05,2.24652e-05,-1.71989e-05,6.76291e-06,-4.9466e-05,3
-0.000115186,-5.77409e-05,-1.85286e-05,1.15974e-05,2.08616e-05,-1.60418e-05,7.72722e-06,-0.000110069,3
-0.000126357,-0.000126343,-1.903e-05,9.77426e-06,2.0622e-05,-1.01045e-05,3.37481e-06,-0.000165518,3
-0.000117985,-0.00020137,-1.94039e-05,1.0652e-05,2.26407e-05,-4.48246e-06,-4.95736e-06,-0.000186537,3
-0.000108914,-0.000284652,-1.69911e-05,1.48464e-05,2.32641e-05,-4.5954e-06,-1.10617e-05,-0.000165792,3
-0.000101304,-0.000349519,-1.17966e-05,1.84842e-05,2.35155e-05,-7.71493e-06,-7.12714e-06,-9.38577e-05,3
-8.41697e-05,-0.000351621,-3.20403e-06,2.10461e-05,2.62567e-05,-8.11368e-06,1.22259e-05,4.23673e-05,3
-5.58665e-05,-0.000249807,9.84229e-06,2.2478e-05,3.06484e-05,-4.09776e-06,3.65092e-05,0.000186587,3
-3.6412e-05,-8.0328e-05,2.07375e-05,1.95444e-05,3.2175e-05,9.86844e-08,4.22202e-05,0.000226881,3
-4.46585e-05,6.17116e-05,1.74735e-05,1.03857e-05,2.91838e-05,1.29929e-07,2.26938e-05,0.00014676,3
-7.69258e-05,0.000133937,2.28288e-07,-1.99678e-06,2.42346e-05,-4.049e-06,-4.55029e-06,4.12566e-05,3
-0.000109707,0.000164808,-1.72487e-05,-1.09217e-05,2.01873e-05,-8.48075e-06,-2.04058e-05,-1.71741e-05,3
-0.000121667,0.000180518,-2.35556e-05,-1.25046e-05,1.741e-05,-1.05452e-05,-1.91202e-05,-2.58982e-05,3
-0.00010725,0.0001766,-2.01557e-05,-9.4599e-06,1.55731e-05,-1.2098e-05,-8.30656e-06,-1.65996e-05,3
-7.7128e-05,0.00014923,-1.40216e-05,-7.07468e-06,1.37031e-05,-1.35199e-05,3.25864e-06,-4.70134e-06,3
-2.49153e-05,0.000107428,-9.21863e-06,-8.21445e-06,8.89957e-06,-1.24743e-05,1.00511e-05,3.1766e-06,3
7.6013e-05,6.15114e-05,-6.87403e-06,-1.15105e-05,1.10182e-06,-8.33048e-06,1.14692e-05,7.08145e-06,3
0.000193405,2.05232e-05,-6.18825e-06,-1.26285e-05,-5.42143e-06,-4.13914e-06,1.14057e-05,7.79362e-06,3
0.00022507,-8.4188e-07,-5.81003e-06,-9.56236e-06,-8.10924e-06,-2.53696e-06,1.50981e-05,8.22608e-06,3
0.000141427,1.02283e-05,-5.55154e-06,-4.87308e-06,-6.69966e-06,-3.67475e-06,1.92667e-05,8.12116e-06,3
1.16567e-05,4.14027e-05,-5.70864e-06,-2.75958e-06,-2.41788e-06,-7.05881e-06,1.95198e-05,1.085e-05,3
-9.58842e-05,5.75657e-05,-8.3997e-06,-4.86387e-06,1.65516e-06,-8.96309e-06,1.74787e-05,1.70875e-05,3
-0.000159546,3.25514e-05,-1.40989e-05,-1.07137e-05,2.47393e-06,-5.97109e-06,1.70497e-05,2.43931e-05,3
-0.000190457,-2.07872e-05,-1.87274e-05,-1.52484e-05,3.16497e-07,-2.21479e-06,1.62912e-05,2.7317e-05,3
-0.000204958,-7.874e-05,-1.69786e-05,-1.50308e-05,-2.98576e-06,-2.10566e-07,9.79126e-06,2.21254e-05,3
-0.000202284,-0.000124623,-1.09835e-05,-1.14344e-05,-2.60593e-06,3.19493e-06,1.95337e-06,1.621e-05,3
-0.000172755,-0.000143556,-4.28858e-06,-4.61245e-06,3.3443e-06,7.41853e-06,-2.98125e-06,1.27814e-05,3
-0.000127511,-0.000125659,3.95026e-06,1.7535e-06,1.13292e-05,8.87255e-06,-6.37646e-06,9.42365e-06,3
-9.16187e-05,-7.83076e-05,9.09752e-06,4.84356e-06,1.87394e-05,6.26213e-06,-5.57164e-06,1.61389e-06,3
-7.74374e-05,-8.27055e-06,7.70646e-06,2.51413e-06,2.066e-05,-2.27961e-07,2.8731e-06,-1.01513e-05,3
-6.54709e-05,7.78411e-05,2.08934e-06,-2.36248e-06,2.01907e-05,-6.24054e-06,1.7753e-05,-2.30748e-05,3
-2.59021e-05,0.000131726,-1.76705e-06,-4.45811e-06,2.24672e-05,-9.29091e-06,3.0824e-05,-3.76752e-05,3
3.95263e-05,0.000139618,-2.85768e-06,-4.97599e-06,2.43466e-05,-1.27556e-05,3.82868e-05,-4.62808e-05,3
8.78091e-05,0.000134396,-2.53215e-06,-6.32349e-06,2.37337e-05,-1.72012e-05,4.03269e-05,-3.74734e-05,3
8.30533e-05,0.000135438,6.86191e-08,-7.53723e-06,2.26955e-05,-2.0933e-05,3.36777e-05,-1.55284e-05,3
3.18535e-05,0.000130888,3.14002e-06,-5.41219e-06,2.31605e-05,-2.24214e-05,2.05124e-05,8.93042e-06,3
-3.38641e-05,0.000106455,4.35559e-06,-6.46638e-07,2.31511e-05,-2.23262e-05,7.87221e-06,2.81881e-05,3
-8.29303e-05,6.73153e-05,1.56843e-06,2.88382e-06,1.9775e-05,-2.29492e-05,7.81248e-07,3.87369e-05,3
-0.00010314,3.04762e-05,-3.6671e-06,4.0406e-06,1.21396e-05,-3.21913e-05,-1.18893e-06,3.88624e-05,3
-9.97863e-05,6.76397e-06,-8.72121e-06,3.70109e-06,2.04038e-06,-5.70087e-05,2.24077e-07,3.3007e-05,3
-8.64007e-05,-9.44188e-06,-1.14311e-05,2.02331e-06,-4.49413e-06,-8.19716e-05,2.15717e-06,2.32333e-05,3
-7.38357e-05,-2.15656e-05,-1.0991e-05,4.1648e-07,-1.57949e-06,-8.01304e-05,1.76119e-06,6.87666e-06,3
-6.51158e-05,-3.23231e-05,-9.3646e-06,-1.38015e-06,9.31668e-06,-4.53509e-05,-3.65008e-06,-1.84406e-05,3
-5.61736e-05,-4.28455e-05,-8.62457e-06,-3.73033e-06,2.14298e-05,3.04937e-06,-1.21681e-05,-4.85751e-05,3
-4.55638e-05,-6.2076e-05,-1.00308e-05,-4.99846e-06,3.06847e-05,4.37331e-05,-1.50013e-05,-7.64125e-05,3
-3.91203e-05,-9.42183e-05,-1.27902e-05,-4.52271e-06,3.77397e-05,6.68394e-05,-2.89084e-06,-9.53099e-05,3
-3.84341e-05,-0.000121048,-1.47691e-05,-2.68073e-06,4.21774e-05,7.14003e-05,2.27947e-05,-0.000102869,3
-4.16434e-05,-0.000114082,-1.59773e-05,-2.60359e-07,4.56843e-05,5.80679e-05,4.49082e-05,-0.000104069,3
-4.48905e-05,-7.07367e-05,-1.51191e-05,1.13934e-06,5.31934e-05,3.12979e-05,4.70023e-05,-9.41998e-05,3
-4.36851e-05,-1.75299e-05,-1.36113e-05,-1.08086e-06,6.01907e-05,4.37258e-06,3.49855e-05,-5.82452e-05,3
-3.54183e-05,8.65266e-06,-1.44752e-05,-7.2026e-06,5.28971e-05,-1.05874e-05,2.41105e-05,-5.8984e-06,3
-2.23369e-05,4.58152e-06,-1.82612e-05,-1.69237e-05,2.16207e-05,-1.88888e-05,1.44968e-05,4.49563e-05,3
-1.31682e-05,-6.56688e-06,-2.38727e-05,-2.75485e-05,-1.83908e-05,-2.90007e-05,4.63845e-06,8.53316e-05,3
-7.82996e-06,-4.42446e-06,-2.44423e-05,-2.95208e-05,-4.55925e-05,-3.54227e-05,6.94172e-07,0.000105463,3
1.90335e-06,2.50636e-05,-1.67577e-05,-1.85333e-05,-5.07496e-05,-3.07346e-05,5.55885e-06,0.000102731,3
1.69356e-05,7.96668e-05,-8.61959e-06,-2.71977e-06,-3.17856e-05,-1.84107e-05,1.46055e-05,7.84576e-05,3
3.00097e-05,0.000143716,-1.01383e-05,6.0084e-06,-2.52862e-06,-9.44358e-06,2.04058e-05,4.08117e-05,3
3.54761e-05,0.000181945,-1.6369e-05,5.2449e-06,2.33989e-05,-6.65523e-06,2.24962e-05,-4.79668e-06,3
4.47447e-05,0.000174886,-1.75912e-05,3.37491e-06,3.7757e-05,-7.74028e-06,2.49747e-05,-3.74428e-05,3
6.29518e-05,0.000115138,-1.26582e-05,8.90115e-06,3.59947e-05,-8.36246e-06,2.59641e-05,-4.31549e-05,3
7.3932e-05,1.20435e-06,-4.20919e-06,1.83821e-05,2.1011e-05,-5.87247e-06,1.99696e-05,-3.25492e-05,3
6.79174e-05,-0.000131096,2.83511e-06,2.01812e-05,3.52126e-06,-6.7365e-07,9.43736e-06,-1.9716e-05,3
4.77742e-05,-0.000228867,3.75404e-06,8.6928e-06,-1.16005e-05,4.48113e-06,1.00379e-06,-9.76193e-06,3
2.60817e-05,-0.00025084,-7.05191e-08,-8.73354e-06,-3.52803e-05,7.2656e-06,1.02847e-06,2.15146e-06,3
2.28149e-05,-0.000178861,-4.84026e-06,-2.51072e-05,-7.49205e-05,6.92047e-06,1.12145e-05,1.50255e-05,3
4.05676e-05,-3.30181e-05,-1.07605e-05,-4.11514e-05,-0.000112998,5.60282e-07,2.6213e-05,2.50464e-05,3
5.25668e-05,0.000131713,-1.68116e-05,-5.49126e-05,-0.000128209,-1.07099e-05,3.74294e-05,2.98433e-05,3
3.73408e-05,0.000266354,-1.75997e-05,-5.89958e-05,-0.000113499,-2.10739e-05,3.8149e-05,3.04919e-05,3
-2.14786e-07,0.000333022,-9.35495e-06,-5.01534e-05,-6.16838e-05,-2.61554e-05,2.92195e-05,2.78892e-05,3
-4.26045e-05,0.000305532,2.30925e-06,-3.60901e-05,2.56291e-05,-2.72708e-05,1.62058e-05,2.24051e-05,3
-7.57614e-05,0.000213126,1.06025e-05,-2.4926e-05,0.000123015,-2.52965e-05,6.76989e-06,1.3752e-05,3
-9.86267e-05,0.000118101,1.3602e-05,-1.84683e-05,0.000191281,-2.13293e-05,2.47557e-06,4.80695e-06,3
-0.000117275,6.71293e-05,1.07925e-05,-1.5021e-05,0.000203854,-1.73588e-05,3.98366e-07,-4.85448e-06,3
-0.000131404,7.23657e-05,1.30799e-06,-1.50751e-05,0.000167802,-1.48542e-05,-1.76337e-06,-1.92649e-05,3
-0.000129384,9.89113e-05,-1.25227e-05,-1.78091e-05,0.000121681,-1.36684e-05,-7.59299e-06,-3.83926e-05,3
-9.30249e-05,9.3924e-05,-2.46053e-05,-2.34203e-05,9.52739e-05,-1.38229e-05,-1.6794e-05,-5.62764e-05,3
-1.29552e-05,4.90819e-05,-2.82883e-05,-2.81116e-05,8.91964e-05,-1.67979e-05,-2.62959e-05,-6.62183e-05,3
7.36304e-05,1.61948e-05,-2.39638e-05,-2.70839e-05,8.3438e-05,-2.31769e-05,-4.2321e-05,-6.46051e-05,3
0.000113105,3.45512e-05,-1.65322e-05,-2.47316e-05,5.72045e-05,-2.8771e-05,-6.94859e-05,-4.77884e-05,3
9.29111e-05,6.63674e-05,-7.23675e-06,-2.6464e-05,1.33386e-05,-2.68858e-05,-9.09457e-05,-1.73683e-05,3
4.40619e-05,7.72578e-05,1.829e-06,-2.30881e-05,-2.77829e-05,-1.88529e-05,-8.8478e-05,3.07332e-05,3
-7.88286e-08,8.94346e-05,8.40403e-06,-9.75073e-06,-4.97088e-05,-1.04673e-05,-6.23954e-05,9.17112e-05,3
