ch1,ch2,ch3,ch4,ch5,ch6,ch7,ch8,class
-2.22966e-05,3.65373e-05,-3.37167e-06,4.69504e-06,3.66747e-05,-1.33853e-05,1.65508e-05,6.24605e-06,8
-2.33107e-05,3.35754e-05,-2.25571e-07,7.75228e-06,3.82571e-05,-1.23536e-05,1.47165e-05,1.85318e-06,8
-2.49578e-05,2.55762e-05,1.97442e-06,3.07094e-06,3.55548e-05,-1.27682e-05,1.50105e-05,-3.01497e-06,8
-2.76655e-05,2.04731e-05,6.79148e-07,-9.15809e-06,2.9307e-05,-1.30689e-05,1.71421e-05,-5.86863e-06,8
-3.11131e-05,2.0899e-05,-3.31029e-06,-2.34755e-05,2.07347e-05,-1.15809e-05,1.7994e-05,-5.93911e-06,8
-3.39873e-05,2.26273e-05,-6.74419e-06,-2.93307e-05,1.08576e-05,-1.05113e-05,1.75252e-05,-5.47147e-06,8
-3.28875e-05,2.36029e-05,-8.94772e-06,-2.20656e-05,2.39961e-06,-1.13799e-05,1.59212e-05,-4.97043e-06,8
-2.58471e-05,2.51627e-05,-1.26538e-05,-9.51361e-06,-2.78214e-06,-1.24899e-05,1.37519e-05,-3.95303e-06,8
-1.89627e-05,2.3015e-05,-1.66162e-05,-4.66023e-07,-6.67944e-06,-1.2683e-05,1.32552e-05,-2.99427e-06,8
-2.06658e-05,1.19509e-05,-1.64619e-05,5.73135e-06,-1.19365e-05,-1.16382e-05,1.43348e-05,-2.64834e-06,8
-2.88161e-05,-5.88856e-06,-1.30882e-05,2.03536e-05,-1.68297e-05,-1.03923e-05,1.57655e-05,-2.18528e-06,8
-3.46617e-05,-1.56019e-05,-1.03148e-05,4.81463e-05,-1.33553e-05,-1.02196e-05,1.5329e-05,-1.7551e-06,8
-3.33369e-05,-9.83631e-06,-1.01693e-05,7.44617e-05,-2.15378e-06,-9.66149e-06,1.31463e-05,-2.21201e-06,8
-2.69135e-05,1.23129e-05,-1.19421e-05,7.98353e-05,8.80339e-06,-6.20861e-06,1.11032e-05,-1.91361e-06,8
-2.1779e-05,4.66858e-05,-1.48638e-05,6.02004e-05,1.9606e-05,-1.45301e-06,1.15462e-05,1.13941e-06,8
-1.94754e-05,7.54689e-05,-2.03119e-05,2.84208e-05,2.28673e-05,-8.03619e-07,1.30594e-05,3.89065e-06,8
-1.85363e-05,7.33773e-05,-2.51675e-05,-3.13584e-06,2.20548e-05,-3.24295e-06,1.30413e-05,5.83657e-06,8
-1.88249e-05,4.80282e-05,-2.39235e-05,-2.0122e-05,3.29847e-05,-4.96827e-06,1.27745e-05,7.15569e-06,8
-2.03463e-05,3.03435e-05,-1.97871e-05,-1.95407e-05,4.99359e-05,-4.31358e-06,1.27462e-05,6.70231e-06,8
-2.1757e-05,1.94996e-05,-1.62546e-05,-1.84706e-05,6.59872e-05,-2.35322e-06,1.35259e-05,5.68925e-06,8
-2.37807e-05,4.46498e-06,-1.31466e-05,-2.3758e-05,7.42581e-05,-1.92555e-06,1.50985e-05,4.50509e-06,8
-2.80996e-05,-1.2672e-05,-1.08432e-05,-2.89305e-05,6.2781e-05,-3.405e-06,1.55733e-05,5.16206e-06,8
-3.078e-05,-2.16403e-05,-9.95488e-06,-2.64235e-05,3.41204e-05,-5.52528e-06,1.35356e-05,5.95965e-06,8
-2.91157e-05,-1.35664e-05,-8.62121e-06,-1.83876e-05,5.68964e-06,-6.75687e-06,1.09311e-05,5.03065e-06,8
-2.55901e-05,1.39295e-05,-6.67133e-06,-1.15995e-05,-6.78057e-06,-5.97711e-06,9.12729e-06,4.94971e-06,8
-2.26351e-05,5.36868e-05,-7.2879e-06,-1.32298e-05,-9.84667e-06,-4.71199e-06,9.33587e-06,5.99224e-06,8
-1.9288e-05,8.78882e-05,-1.0549e-05,-2.34742e-05,-1.72432e-05,-5.73118e-06,1.0724e-05,6.19685e-06,8
-1.51435e-05,9.89995e-05,-1.52944e-05,-3.08661e-05,-3.06411e-05,-8.93954e-06,1.24592e-05,5.77768e-06,8
-8.27807e-06,8.5518e-05,-2.16045e-05,-2.90802e-05,-4.14406e-05,-1.15763e-05,1.45896e-05,5.62353e-06,8
7.23535e-06,6.32185e-05,-2.88768e-05,-2.19274e-05,-4.24114e-05,-1.22961e-05,1.57642e-05,4.12166e-06,8
3.3599e-05,4.78217e-05,-3.48242e-05,-1.37389e-05,-3.42176e-05,-1.25778e-05,1.59521e-05,1.07509e-06,8
5.98467e-05,4.3558e-05,-3.78868e-05,-4.63564e-06,-2.38563e-05,-1.26132e-05,1.55072e-05,-1.19351e-06,8
6.68366e-05,4.22366e-05,-3.61596e-05,8.95816e-07,-1.5359e-05,-1.09721e-05,1.47979e-05,-1.3841e-06,8
4.67485e-05,3.25338e-05,-2.96733e-05,1.45699e-06,-6.77443e-06,-7.27659e-06,1.40742e-05,-4.42905e-07,8
7.8096e-06,1.31613e-05,-2.10025e-05,3.622e-06,2.36718e-06,-4.92891e-06,1.47192e-05,1.33236e-06,8
-3.76691e-05,4.51104e-07,-1.53787e-05,7.79412e-06,1.05781e-05,-5.14126e-06,1.54997e-05,3.0851e-06,8
-8.26149e-05,-1.2908e-06,-1.64582e-05,1.54616e-06,1.96895e-05,-5.89578e-06,1.51822e-05,3.66677e-06,8
-0.000122374,-5.14253e-06,-2.31174e-05,-2.00977e-05,3.13987e-05,-5.67605e-06,1.38069e-05,2.65909e-06,8
-0.000145779,-1.37354e-05,-2.98057e-05,-4.30011e-05,3.80784e-05,-5.46109e-06,1.2816e-05,3.51561e-07,8
-0.000140032,-2.6445e-05,-2.97999e-05,-5.02997e-05,3.48608e-05,-6.04503e-06,1.30082e-05,-4.30093e-07,8
-0.000107421,-5.60998e-05,-2.23133e-05,-4.21132e-05,2.63302e-05,-6.8651e-06,1.42504e-05,4.23997e-07,8
-7.34531e-05,-9.23024e-05,-1.52417e-05,-3.16932e-05,2.08685e-05,-8.90379e-06,1.45865e-05,5.6766e-07,8
-5.43375e-05,-9.43393e-05,-1.15529e-05,-2.60711e-05,1.89834e-05,-1.06862e-05,1.29206e-05,1.46534e-06,8
-5.02326e-05,-6.55646e-05,-7.86642e-06,-2.5997e-05,1.54222e-05,-1.32724e-05,9.6634e-06,2.41559e-06,8
-5.71845e-05,-3.74406e-05,-4.37456e-06,-2.58711e-05,1.10966e-05,-1.61611e-05,6.42175e-06,1.43327e-06,8
-5.88317e-05,-1.98219e-05,-2.24086e-06,-2.07118e-05,7.30453e-06,-1.61726e-05,5.40339e-06,5.7555e-07,8
-5.25207e-05,-7.44188e-06,-5.62204e-07,-1.60277e-05,4.88414e-06,-1.56714e-05,5.38155e-06,-1.56374e-08,8
-4.41115e-05,1.4374e-06,1.52686e-06,-1.4088e-05,1.29971e-06,-1.87741e-05,5.18239e-06,4.20964e-07,8
-3.95699e-05,4.29277e-06,2.0017e-06,-1.55738e-05,-6.04663e-06,-2.37092e-05,4.31183e-06,2.55757e-06,8
-3.67242e-05,5.53909e-06,8.17083e-07,-1.82308e-05,-1.57257e-05,-2.37933e-05,4.49528e-06,4.58342e-06,8
-3.19757e-05,1.01348e-05,-1.32658e-07,-1.73389e-05,-1.76783e-05,-1.93693e-05,4.72379e-06,4.95233e-06,8
-2.73677e-05,1.51967e-05,2.38615e-08,-1.07576e-05,-7.80991e-07,-1.57531e-05,4.25357e-06,3.6232e-06,8
-2.33405e-05,1.50241e-05,-3.79439e-07,1.16042e-06,2.73824e-05,-1.66207e-05,4.28152e-06,9.95611e-07,8
-1.63748e-05,1.33193e-05,-8.5635e-07,1.32764e-05,5.06122e-05,-2.27404e-05,4.79179e-06,-1.55176e-06,8
-3.00732e-06,1.53159e-05,7.67049e-07,2.20952e-05,6.12767e-05,-3.34415e-05,5.61204e-06,-2.0974e-06,8
1.30014e-05,2.01178e-05,4.33205e-06,2.69431e-05,6.1044e-05,-4.56642e-05,6.77989e-06,-1.43811e-06,8
2.62877e-05,1.93512e-05,7.8162e-06,3.30749e-05,5.12828e-05,-4.5819e-05,8.24917e-06,-1.70105e-06,8
2.99279e-05,2.37109e-06,9.60419e-06,4.26633e-05,3.37397e-05,-1.82771e-05,8.77628e-06,-3.20211e-06,8
2.61349e-05,-3.07998e-05,9.35558e-06,5.18108e-05,1.5393e-05,2.12657e-05,7.6222e-06,-3.97598e-06,8
1.74254e-05,-5.97089e-05,9.85741e-06,5.77965e-05,6.89381e-06,3.79107e-05,5.78752e-06,-3.56633e-06,8
8.91199e-07,-5.92187e-05,1.25716e-05,5.8325e-05,1.16971e-05,2.58039e-05,5.8088e-06,-3.69443e-06,8
-2.74213e-05,-2.02426e-05,1.3876e-05,4.90344e-05,1.99635e-05,6.49679e-06,7.42284e-06,-5.06174e-06,8
-6.38306e-05,3.98425e-05,1.08612e-05,2.90612e-05,1.94727e-05,-4.56615e-06,8.91592e-06,-5.09139e-06,8
-9.81895e-05,8.35322e-05,7.52165e-06,4.04994e-06,1.39362e-05,-9.24097e-06,9.61601e-06,-3.6043e-06,8
-0.000114389,8.18828e-05,1.34269e-05,-1.65337e-05,1.695e-05,-9.38079e-06,8.96521e-06,-2.28092e-06,8
-0.00010444,4.87601e-05,2.75569e-05,-2.85199e-05,2.86613e-05,-6.40007e-06,8.1891e-06,-1.73162e-06,8
-7.72666e-05,2.33576e-05,3.81111e-05,-3.45273e-05,3.77013e-05,-5.00985e-06,7.80505e-06,-1.04318e-06,8
-5.04808e-05,1.76032e-05,3.95569e-05,-3.80865e-05,3.84275e-05,-5.74129e-06,7.79191e-06,8.25199e-07,8
-3.6749e-05,2.50785e-05,3.51023e-05,-3.58319e-05,3.4815e-05,-7.03295e-06,7.43733e-06,1.02555e-06,8
-3.22288e-05,3.4504e-05,2.82938e-05,-2.51493e-05,2.77176e-05,-8.45779e-06,7.0706e-06,5.68278e-07,8
-2.95156e-05,3.93728e-05,1.86305e-05,-1.05792e-05,1.62666e-05,-8.59051e-06,7.81362e-06,8.86252e-07,8
-2.67005e-05,3.94715e-05,3.41863e-06,5.79184e-06,5.12201e-06,-8.04078e-06,8.35064e-06,1.71789e-06,8
-2.3645e-05,3.46524e-05,-1.48687e-05,1.97541e-05,-2.51731e-06,-8.44778e-06,7.72982e-06,3.46625e-06,8
-2.13222e-05,2.92154e-05,-3.00777e-05,2.90124e-05,-4.9132e-06,-7.71345e-06,6.95747e-06,4.72824e-06,8
-2.01939e-05,2.18634e-05,-4.01664e-05,3.13709e-05,-2.6597e-07,-5.4906e-06,7.95555e-06,4.47205e-06,8
-1.62002e-05,1.82662e-05,-4.33512e-05,2.62622e-05,7.4745e-06,-3.39513e-06,8.51078e-06,3.33983e-06,8
-2.2977e-06,2.45679e-05,-3.48462e-05,1.72703e-05,9.98269e-06,-3.1079e-06,8.6281e-06,3.25105e-06,8
1.5603e-05,3.144e-05,-1.66957e-05,6.46171e-06,7.00751e-06,-4.61728e-06,1.02292e-05,4.18629e-06,8
2.22581e-05,3.11161e-05,2.19757e-06,-2.80709e-06,5.71193e-06,-6.43192e-06,1.30673e-05,4.61878e-06,8
1.4942e-05,2.56215e-05,1.073e-05,-2.92206e-06,1.09127e-05,-7.63636e-06,1.47851e-05,9.26389e-07,8
-4.52683e-07,2.05995e-05,3.0731e-06,7.01978e-06,2.81717e-05,-7.58802e-06,1.35577e-05,-5.47494e-06,8
-1.89034e-05,1.89107e-05,-1.69748e-05,1.74103e-05,5.57556e-05,-5.79117e-06,1.04442e-05,-1.00105e-05,8
-3.92871e-05,2.44944e-05,-4.16566e-05,1.79354e-05,7.32252e-05,-2.50677e-06,8.11699e-06,-9.8705e-06,8
-5.92545e-05,4.10239e-05,-6.09349e-05,7.17161e-06,5.84456e-05,-1.5522e-06,8.56412e-06,-6.49462e-06,8
-7.55024e-05,6.22125e-05,-6.61899e-05,-6.36543e-06,1.78083e-05,-5.05992e-06,9.99462e-06,2.36491e-06,8
-7.9864e-05,7.83748e-05,-5.36758e-05,-1.3186e-05,-2.38378e-05,-9.71133e-06,1.06282e-05,2.52801e-05,8
-6.71839e-05,8.44072e-05,-2.73394e-05,-1.1639e-05,-5.33721e-05,-1.16918e-05,1.03662e-05,5.50347e-05,8
-4.6203e-05,7.52531e-05,5.57074e-06,-7.40582e-06,-6.95913e-05,-1.17144e-05,1.01064e-05,6.82746e-05,8
-3.13396e-05,5.03223e-05,4.01859e-05,-3.89085e-06,-7.05474e-05,-1.24411e-05,1.07947e-05,5.8003e-05,8
-2.59023e-05,1.71442e-05,7.12159e-05,-1.45101e-06,-5.35607e-05,-1.42264e-05,1.3499e-05,3.65099e-05,8
-2.41679e-05,-1.61034e-05,8.69873e-05,-2.99444e-06,-2.29083e-05,-1.41808e-05,1.6126e-05,8.56282e-06,8
-2.10648e-05,-3.49041e-05,8.06983e-05,-1.23371e-05,9.99573e-06,-1.10707e-05,1.6651e-05,-2.22945e-05,8
-1.73013e-05,-2.61177e-05,5.93385e-05,-2.70223e-05,3.24991e-05,-9.09049e-06,1.59105e-05,-4.6501e-05,8
-1.44513e-05,-7.28384e-06,3.13062e-05,-3.68877e-05,3.93593e-05,-1.12695e-05,1.70052e-05,-5.48809e-05,8
-1.50421e-05,-9.53611e-06,-5.46586e-06,-3.53628e-05,4.09845e-05,-1.59623e-05,2.08015e-05,-5.09006e-05,8
-2.38291e-05,-2.71714e-05,-4.60194e-05,-2.81841e-05,4.74982e-05,-1.82906e-05,2.39633e-05,-4.52705e-05,8
-3.37182e-05,-2.89913e-05,-8.32314e-05,-2.43572e-05,4.82212e-05,-1.8235e-05,2.48749e-05,-3.92824e-05,8
-3.51186e-05,-1.13801e-05,-0.00011323,-2.59595e-05,3.4535e-05,-1.84618e-05,2.37105e-05,-2.92091e-05,8
-3.25676e-05,3.34021e-06,-0.000125895,-2.79789e-05,1.98972e-05,-1.82179e-05,2.1541e-05,-1.66916e-05,8
-3.2626e-05,4.71568e-06,-0.000121352,-3.06477e-05,1.43718e-05,-1.77661e-05,2.02237e-05,-5.40123e-06,8
-3.35788e-05,4.81706e-06,-0.000104788,-3.44072e-05,1.03946e-05,-1.72874e-05,1.91994e-05,2.22938e-06,8
-3.82183e-05,1.27537e-05,-8.56909e-05,-3.47807e-05,1.31434e-06,-1.66884e-05,1.83421e-05,6.15684e-06,8
-4.59434e-05,2.31299e-05,-6.93121e-05,-2.91769e-05,-1.32837e-05,-1.59518e-05,1.80219e-05,8.45601e-06,8
-4.91385e-05,2.86094e-05,-5.71094e-05,-2.15779e-05,-3.08589e-05,-1.65801e-05,1.87857e-05,1.02621e-05,8
-4.44243e-05,2.82288e-05,-4.67337e-05,-1.49484e-05,-4.20688e-05,-1.79827e-05,1.95175e-05,1.22489e-05,8
-3.5145e-05,2.65129e-05,-3.56767e-05,-7.5898e-06,-3.76879e-05,-1.69457e-05,1.8628e-05,1.52128e-05,8
-2.42063e-05,2.34772e-05,-2.44259e-05,2.05489e-06,-1.84216e-05,-1.5542e-05,1.749e-05,1.79439e-05,8
-1.31062e-05,1.93542e-05,-1.3651e-05,1.37229e-05,1.89663e-06,-1.57888e-05,1.72609e-05,1.72475e-05,8
-3.31137e-06,1.50887e-05,-5.76908e-06,2.43633e-05,1.01685e-05,-1.67384e-05,1.65983e-05,1.39982e-05,8
4.87607e-06,1.573e-05,-5.32077e-07,3.15544e-05,1.42387e-05,-1.81596e-05,1.47828e-05,9.73527e-06,8
1.00329e-05,2.43122e-05,3.67114e-06,3.36319e-05,3.15073e-05,-1.92496e-05,1.28841e-05,5.64904e-06,8
9.73073e-06,3.09189e-05,9.00545e-06,2.9654e-05,6.04582e-05,-1.79743e-05,1.10983e-05,3.74346e-06,8
-7.49465e-07,2.71526e-05,1.4757e-05,1.88179e-05,7.82533e-05,-1.4919e-05,1.03928e-05,4.0303e-06,8
-2.2665e-05,1.7452e-05,2.33164e-05,3.76846e-06,7.07303e-05,-1.29811e-05,9.86818e-06,4.21081e-06,8
-4.55556e-05,1.19769e-05,3.24524e-05,-1.09547e-05,5.26894e-05,-1.33373e-05,9.31361e-06,3.31013e-06,8
-5.91204e-05,1.4143e-05,3.45518e-05,-2.04465e-05,4.80145e-05,-1.50209e-05,8.51146e-06,2.71092e-06,8
-6.73561e-05,1.94482e-05,2.68152e-05,-2.40028e-05,6.06e-05,-1.53161e-05,8.52576e-06,3.69946e-06,8
-7.39256e-05,1.99399e-05,1.53849e-05,-2.59015e-05,7.14019e-05,-1.30748e-05,1.01542e-05,4.34676e-06,8
-7.01705e-05,1.88304e-05,8.44136e-06,-2.85023e-05,6.40692e-05,-1.10367e-05,1.27281e-05,3.24156e-06,8
-5.27513e-05,2.31195e-05,1.15741e-05,-2.95977e-05,4.4702e-05,-1.10992e-05,1.43217e-05,3.19527e-06,8
-3.50513e-05,3.21436e-05,2.03923e-05,-2.69656e-05,3.05683e-05,-1.10637e-05,1.42282e-05,6.00789e-06,8
-2.50246e-05,4.38331e-05,2.72471e-05,-2.06772e-05,2.61861e-05,-9.69757e-06,1.55235e-05,7.77652e-06,8
-2.49645e-05,4.94788e-05,2.76745e-05,-1.1893e-05,1.8883e-05,-8.27334e-06,1.76968e-05,5.96272e-06,8
-3.14343e-05,5.34251e-05,2.3398e-05,-1.34961e-06,7.1954e-06,-5.53793e-06,1.8343e-05,2.37175e-06,8
-3.34276e-05,5.90651e-05,1.46276e-05,3.15588e-06,2.30678e-06,-2.61532e-06,1.72642e-05,-1.15211e-06,8
-2.46495e-05,5.88064e-05,1.60543e-06,5.8608e-07,6.35483e-06,-2.6576e-07,1.57996e-05,-2.7131e-06,8
-3.163e-06,5.71921e-05,-1.01856e-05,-2.28202e-06,7.40985e-06,1.84061e-06,1.48208e-05,-1.71019e-06,8
2.31622e-05,4.7518e-05,-1.9811e-05,-9.32209e-06,-1.98503e-06,3.21698e-06,1.51109e-05,-3.04359e-07,8
3.98622e-05,2.25644e-05,-2.78421e-05,-2.13409e-05,-1.28716e-05,3.90121e-06,1.60303e-05,1.87309e-07,8
3.735e-05,-1.17346e-05,-3.54857e-05,-2.82363e-05,-1.63561e-05,1.5584e-06,1.60768e-05,6.58672e-07,8
2.0399e-05,-4.13238e-05,-3.75915e-05,-2.31995e-05,-1.26839e-05,-1.74848e-06,1.56643e-05,-1.6606e-07,8
-4.17298e-06,-4.82538e-05,-3.33302e-05,-9.61641e-06,-6.78387e-06,-3.5763e-06,1.48285e-05,-1.24439e-06,8
-3.24642e-05,-3.6157e-05,-2.48895e-05,7.23757e-06,-2.3228e-06,-3.04373e-06,1.37595e-05,2.35915e-07,8
-6.04796e-05,-2.81752e-05,-1.63564e-05,1.78957e-05,3.49752e-07,-1.47364e-06,1.38726e-05,2.9205e-06,8
-8.14167e-05,-3.1157e-05,-9.94075e-06,1.44281e-05,3.64052e-06,-1.05287e-06,1.49514e-05,3.4794e-06,8
-8.75498e-05,-3.38053e-05,-5.43403e-06,-4.45914e-07,9.00219e-06,-2.91758e-06,1.49794e-05,1.88952e-06,8
-7.73449e-05,-3.31239e-05,-3.47711e-06,-1.922e-05,2.54117e-05,-6.85373e-06,1.41136e-05,9.74272e-07,8
-6.03528e-05,-3.89152e-05,-5.52036e-06,-3.94881e-05,6.75039e-05,-1.12689e-05,1.3983e-05,1.37569e-06,8
-5.32319e-05,-5.3755e-05,-1.17169e-05,-5.88427e-05,0.000121317,-1.53414e-05,1.48076e-05,1.32348e-06,8
-5.859e-05,-6.455e-05,-1.68555e-05,-6.32596e-05,0.000134033,-1.76218e-05,1.58597e-05,-5.78542e-07,8
-6.24019e-05,-6.07648e-05,-1.52825e-05,-3.60844e-05,8.11497e-05,-1.70941e-05,1.62871e-05,-3.1658e-06,8
-5.48883e-05,-4.08093e-05,-7.76385e-06,1.41221e-05,5.1364e-06,-1.45069e-05,1.64203e-05,-3.39236e-06,8
-4.42715e-05,-1.05081e-05,-2.22372e-06,5.73487e-05,-4.28698e-05,-1.24709e-05,1.70385e-05,-3.15658e-07,8
-3.90889e-05,1.97055e-05,-1.67306e-06,7.32467e-05,-6.17108e-05,-1.26256e-05,1.7475e-05,1.5771e-06,8
-3.81439e-05,3.74333e-05,-3.52219e-06,6.7023e-05,-7.72714e-05,-1.37961e-05,1.58807e-05,-3.11939e-07,8
-3.71524e-05,3.27631e-05,-1.9757e-06,5.31687e-05,-9.32305e-05,-1.2949e-05,1.31458e-05,-1.83534e-06,8
-3.60952e-05,1.60282e-05,3.68215e-06,3.52002e-05,-0.000100944,-1.00953e-05,1.04342e-05,-4.9687e-07,8
-3.57845e-05,6.60646e-06,1.05591e-05,1.55965e-05,-0.000100687,-7.36785e-06,8.29727e-06,3.36089e-06,8
-3.4494e-05,4.94024e-06,1.45357e-05,5.07826e-07,-9.05559e-05,-8.04709e-06,8.15994e-06,7.13646e-06,8
-3.16722e-05,4.18091e-06,1.5975e-05,-2.25364e-06,-7.73387e-05,-1.17001e-05,8.80798e-06,6.13746e-06,8
-2.88116e-05,2.89933e-06,1.43127e-05,-1.298e-06,-6.37018e-05,-1.4579e-05,9.444e-06,2.7269e-06,8
-2.56689e-05,3.60363e-06,9.53212e-06,-7.12632e-06,-3.87619e-05,-1.54003e-05,1.03506e-05,1.4199e-06,8
-2.28155e-05,7.69697e-06,6.3738e-06,-1.66688e-05,-8.63776e-06,-1.41363e-05,1.18041e-05,1.81502e-06,8
-2.32989e-05,1.2222e-05,3.34229e-06,-2.62934e-05,2.22825e-05,-1.09866e-05,1.30396e-05,2.87491e-06,8
-2.53688e-05,1.19388e-05,-1.00606e-06,-3.11711e-05,5.09386e-05,-8.64072e-06,1.30387e-05,5.65594e-06,8
-2.52509e-05,9.75878e-06,-7.19364e-06,-3.16023e-05,6.59149e-05,-8.4628e-06,1.29081e-05,1.25956e-05,8
-2.41693e-05,8.50512e-06,-1.13077e-05,-2.61959e-05,5.55322e-05,-8.35878e-06,1.35126e-05,1.91676e-05,8
-2.37897e-05,8.61264e-06,-1.10315e-05,-1.65202e-05,3.20482e-05,-7.67009e-06,1.34274e-05,1.93558e-05,8
-2.17993e-05,1.04736e-05,-8.22293e-06,-6.91828e-06,2.00518e-05,-7.52898e-06,1.11324e-05,1.31652e-05,8
-1.17745e-05,1.22502e-05,-5.02118e-06,-1.38523e-06,2.43046e-05,-8.09332e-06,8.80945e-06,4.99775e-06,8
1.0641e-05,1.47797e-05,-2.40904e-06,1.0875e-06,3.44884e-05,-8.50067e-06,8.51536e-06,-3.13902e-06,8
3.47288e-05,1.9287e-05,-1.33348e-06,7.10982e-06,4.01169e-05,-8.91566e-06,9.48584e-06,-1.04218e-05,8
4.59639e-05,2.61373e-05,-3.04726e-06,1.91243e-05,4.18031e-05,-7.69977e-06,9.60266e-06,-1.59815e-05,8
3.79842e-05,3.06949e-05,-6.17418e-06,3.30493e-05,4.0174e-05,-5.40835e-06,9.23417e-06,-2.06158e-05,8
1.59694e-05,2.93722e-05,-9.99837e-06,4.24931e-05,3.58917e-05,-4.13379e-06,1.06226e-05,-2.24203e-05,8
-1.05416e-05,2.13976e-05,-1.34209e-05,4.25145e-05,2.95382e-05,-3.62732e-06,1.2799e-05,-1.88333e-05,8
-3.93225e-05,8.83891e-06,-1.55321e-05,2.99787e-05,2.27347e-05,-3.21528e-06,1.36114e-05,-1.13828e-05,8
-7.18286e-05,-3.84611e-06,-1.51378e-05,1.21217e-05,1.61896e-05,-2.93174e-06,1.37039e-05,-5.16671e-06,8
-9.9051e-05,-9.63879e-06,-1.18848e-05,-2.17114e-06,1.09201e-05,-2.94429e-06,1.41025e-05,-2.94145e-06,8
-0.000103706,-5.82109e-06,-7.69836e-06,-1.35379e-05,7.38658e-06,-2.5049e-06,1.40332e-05,-5.92357e-06,8
-8.45379e-05,2.12998e-06,-5.60634e-06,-2.49572e-05,6.90055e-06,-5.52661e-07,1.27639e-05,-9.9248e-06,8
-5.90626e-05,2.83981e-06,-5.60916e-06,-3.33746e-05,7.98574e-06,1.31291e-06,1.1327e-05,-1.17879e-05,8
-4.23634e-05,-1.08333e-05,-6.4766e-06,-3.71735e-05,7.5028e-06,6.18589e-07,1.29229e-05,-1.09216e-05,8
-3.42058e-05,-2.93845e-05,-6.78514e-06,-3.60175e-05,6.56146e-06,-1.7748e-06,1.43993e-05,-7.94953e-06,8
-2.7716e-05,-3.93895e-05,-5.01974e-06,-3.04793e-05,8.90107e-06,-2.3601e-06,1.32747e-05,-5.45215e-06,8
-2.01718e-05,-2.87455e-05,-2.12333e-06,-2.81376e-05,1.69386e-05,-3.98137e-07,1.22821e-05,-3.91249e-06,8
-1.04497e-05,1.29111e-05,3.56446e-07,-3.1866e-05,2.64139e-05,5.43828e-07,1.22003e-05,-2.89312e-06,8
-2.45274e-06,7.3775e-05,2.09357e-06,-3.11765e-05,3.35625e-05,8.28621e-07,1.30789e-05,-2.69263e-06,8
-1.17034e-06,0.000118155,3.73282e-07,-2.41698e-05,3.33099e-05,2.08191e-06,1.30689e-05,-2.72112e-06,8
-3.47731e-06,0.000120438,-4.85416e-06,-1.68941e-05,2.42227e-05,2.53831e-06,1.2863e-05,-2.28302e-06,8
-2.79843e-06,9.18944e-05,-8.24793e-06,-1.10663e-05,1.11321e-05,1.58319e-06,1.1733e-05,-2.41823e-06,8
1.1413e-06,5.99816e-05,-7.33249e-06,-7.25753e-06,-3.28926e-06,3.24894e-08,1.06921e-05,-1.77428e-06,8
7.89113e-08,4.06629e-05,-3.23066e-06,-4.88319e-06,-1.32952e-05,-8.72211e-07,1.09422e-05,-4.60324e-07,8
-1.31498e-05,2.33279e-05,9.34856e-07,-5.41732e-06,-1.3274e-05,-1.27361e-06,1.13368e-05,1.38606e-06,8
-3.77369e-05,-8.59545e-06,3.24583e-06,-9.78187e-06,-6.3e-06,-2.46527e-06,1.17304e-05,2.42408e-06,8
-6.23069e-05,-4.27584e-05,2.55041e-06,-1.3332e-05,2.84627e-06,-5.36833e-06,1.09283e-05,2.21639e-06,8
-7.64152e-05,-5.3854e-05,-2.29248e-07,-9.88941e-06,1.16657e-05,-7.95407e-06,9.59635e-06,2.28618e-06,8
-7.76695e-05,-3.8288e-05,-2.63281e-06,-1.03508e-06,1.88411e-05,-7.50909e-06,9.55196e-06,2.34234e-06,8
-7.14934e-05,-1.4736e-05,-3.42487e-06,5.43371e-06,1.97328e-05,-5.58744e-06,1.07152e-05,1.49852e-06,8
-6.26595e-05,1.1163e-06,-4.04743e-06,5.65175e-06,1.22323e-05,-3.74142e-06,1.03259e-05,7.61873e-07,8
-5.21978e-05,6.673e-06,-5.08458e-06,2.94923e-06,2.50543e-06,-2.97796e-06,8.69263e-06,6.17736e-07,8
-4.17786e-05,7.74088e-06,-5.30975e-06,1.72972e-06,-2.96782e-07,-2.23869e-06,7.94964e-06,-5.501e-07,8
-3.32702e-05,9.38701e-06,-5.36523e-06,4.55252e-06,4.00209e-06,-6.39209e-07,9.82628e-06,-1.33784e-06,8
-2.75644e-05,1.20292e-05,-6.93037e-06,6.74689e-06,1.1105e-05,6.13071e-07,1.2953e-05,-1.86619e-06,8
-2.3817e-05,1.36689e-05,-8.73735e-06,1.75045e-06,2.77771e-05,5.52177e-07,1.45182e-05,-2.28567e-06,8
-2.08939e-05,1.6621e-05,-7.16313e-06,-9.0448e-06,5.68891e-05,-1.38533e-06,1.38786e-05,-1.49173e-06,8
-1.82356e-05,2.17597e-05,2.61637e-07,-1.84155e-05,8.86396e-05,-4.50609e-06,1.21146e-05,-1.18065e-07,8
-1.80113e-05,2.61753e-05,1.35883e-05,-2.28033e-05,0.000110634,-6.82869e-06,1.05063e-05,1.20546e-06,8
-2.20006e-05,2.83604e-05,3.08835e-05,-2.27486e-05,0.000105089,-6.3165e-06,9.82607e-06,1.9507e-06,8
-2.61176e-05,2.86362e-05,4.65179e-05,-1.94207e-05,6.56166e-05,-3.14662e-06,1.01122e-05,6.67801e-07,8
-1.8934e-05,2.19264e-05,5.14304e-05,-1.39864e-05,1.49004e-05,7.38822e-07,1.13226e-05,-6.83266e-07,8
5.27911e-06,8.0233e-06,4.52106e-05,-9.70458e-06,-1.68614e-05,4.34272e-06,1.2239e-05,-2.14721e-06,8
3.70581e-05,-5.58e-06,2.83905e-05,-5.89912e-06,-2.08308e-05,5.67555e-06,1.25322e-05,-3.90631e-06,8
5.40441e-05,-2.93082e-06,-8.03467e-07,2.32459e-06,-7.04917e-06,4.11263e-06,1.26391e-05,-4.09362e-06,8
4.75238e-05,2.32119e-05,-3.37671e-05,1.81418e-05,1.08902e-05,3.59264e-06,1.25443e-05,-4.63857e-06,8
2.76662e-05,5.06812e-05,-6.12149e-05,3.80172e-05,2.07105e-05,3.54042e-06,1.35992e-05,-4.5987e-06,8
6.086e-06,6.19815e-05,-7.90733e-05,4.82989e-05,2.0249e-05,2.20224e-06,1.49793e-05,-2.85938e-06,8
-1.88451e-05,5.33539e-05,-8.2629e-05,4.82089e-05,1.62692e-05,-1.00641e-06,1.47619e-05,2.36762e-07,8
-5.52037e-05,4.07719e-05,-7.47639e-05,4.30917e-05,1.6903e-05,-6.80118e-06,1.27296e-05,2.06783e-06,8
-9.23449e-05,3.8796e-05,-6.45224e-05,2.97719e-05,1.95404e-05,-1.18813e-05,1.06043e-05,9.95841e-07,8
-0.000112624,3.89544e-05,-5.72769e-05,1.06505e-05,1.33324e-05,-1.41793e-05,9.94988e-06,6.96457e-08,8
-0.000109856,3.2128e-05,-5.52783e-05,-2.38137e-06,-2.33676e-07,-1.49688e-05,1.1668e-05,9.65325e-07,8
-9.53724e-05,1.46369e-05,-5.49116e-05,-4.82165e-06,-6.36518e-06,-1.51215e-05,1.33367e-05,2.03277e-06,8
-8.02411e-05,-1.31548e-05,-5.14103e-05,-1.57033e-06,6.50435e-06,-1.44341e-05,1.30754e-05,2.77196e-06,8
-6.68629e-05,-4.93949e-05,-4.3225e-05,1.32766e-07,3.81889e-05,-1.37764e-05,1.26009e-05,2.80073e-06,8
-5.38438e-05,-9.83878e-05,-3.2291e-05,-2.44496e-06,6.80303e-05,-1.36022e-05,1.20844e-05,1.7946e-06,8
-4.29551e-05,-0.000144922,-2.23811e-05,-4.84283e-06,6.80834e-05,-1.35867e-05,1.11046e-05,7.47446e-07,8
-3.82023e-05,-0.000137547,-1.48774e-05,-6.31444e-06,3.54966e-05,-1.40924e-05,1.05791e-05,4.7122e-07,8
-3.70123e-05,-6.33626e-05,-9.03625e-06,-8.99895e-06,-4.48563e-06,-1.56567e-05,1.12382e-05,2.02414e-07,8
-3.48158e-05,1.66605e-05,-3.74355e-06,-1.35299e-05,-2.91708e-05,-1.76298e-05,1.26952e-05,-5.3645e-07,8
-3.16815e-05,4.60203e-05,-3.41895e-07,-1.65968e-05,-4.2533e-05,-1.80066e-05,1.30239e-05,-1.70401e-07,8
-2.99591e-05,3.50415e-05,-1.6858e-07,-1.52564e-05,-5.45494e-05,-1.6518e-05,1.22172e-05,1.27723e-06,8
-2.80966e-05,2.24386e-05,-2.78777e-06,-1.11782e-05,-5.41336e-05,-1.66137e-05,1.21216e-05,2.14075e-06,8
-2.70024e-05,2.27837e-05,-5.83956e-06,-1.0164e-05,-3.06489e-05,-1.99683e-05,1.28314e-05,1.67281e-06,8
-2.88168e-05,2.64545e-05,-7.57708e-06,-1.34405e-05,4.6151e-06,-2.26454e-05,1.30248e-05,8.17765e-07,8
-3.15777e-05,2.5828e-05,-6.73038e-06,-1.71346e-05,3.82686e-05,-2.15328e-05,1.30323e-05,-1.62178e-07,8
-3.2495e-05,2.53958e-05,-3.71998e-06,-2.07548e-05,5.82739e-05,-1.84348e-05,1.32997e-05,-1.26259e-06,8
-3.22961e-05,2.70117e-05,-2.7426e-06,-2.31869e-05,5.46165e-05,-1.74297e-05,1.33527e-05,-8.43725e-07,8
-3.00962e-05,2.94229e-05,-2.9439e-06,-2.13727e-05,3.79571e-05,-1.9859e-05,1.49698e-05,2.73323e-06,8
-2.55667e-05,3.84086e-05,3.6238e-07,-1.71034e-05,3.81763e-05,-2.17614e-05,1.70248e-05,7.66321e-06,8
-1.86432e-05,5.33314e-05,6.78766e-06,-1.30753e-05,6.50962e-05,-2.03898e-05,1.69348e-05,1.02494e-05,8
-8.92803e-06,6.12638e-05,9.87544e-06,-1.20812e-05,8.23311e-05,-1.87232e-05,1.64249e-05,9.28277e-06,8
-1.44488e-06,5.76109e-05,5.03036e-06,-1.61877e-05,6.28248e-05,-1.72921e-05,1.61262e-05,7.86843e-06,8
4.1367e-06,4.68035e-05,-3.43818e-06,-1.97596e-05,2.87698e-05,-1.47424e-05,1.49284e-05,7.36093e-06,8
1.47017e-05,3.64785e-05,-1.03843e-05,-1.67286e-05,1.0371e-05,-1.12805e-05,1.33088e-05,8.08488e-06,8
2.20629e-05,2.97709e-05,-1.42243e-05,-7.80582e-06,7.25297e-06,-9.96244e-06,1.22297e-05,9.10532e-06,8
1.58671e-05,3.33424e-05,-1.37143e-05,2.45866e-07,-3.8158e-06,-1.05033e-05,1.20094e-05,1.06185e-05,8
-2.20427e-06,4.91334e-05,-1.0109e-05,-2.52531e-06,-2.32406e-05,-1.09812e-05,1.15077e-05,1.24116e-05,8
-2.72737e-05,6.1534e-05,-6.26939e-06,-1.77855e-05,-3.63684e-05,-1.68914e-05,1.17731e-05,1.29782e-05,8
-5.15127e-05,6.09546e-05,-4.92703e-06,-3.80128e-05,-3.86537e-05,-3.43394e-05,1.32573e-05,1.22744e-05,8
-6.91579e-05,5.11181e-05,-6.76568e-06,-5.47991e-05,-3.35476e-05,-5.53027e-05,1.40962e-05,1.04424e-05,8
-7.77573e-05,3.78933e-05,-1.00955e-05,-6.35618e-05,-2.68825e-05,-5.41184e-05,1.40305e-05,9.45795e-06,8
-7.83711e-05,2.44092e-05,-1.23371e-05,-6.45686e-05,-2.08418e-05,-2.64999e-05,1.33546e-05,8.48717e-06,8
-6.99656e-05,5.10232e-06,-1.26501e-05,-5.65754e-05,-1.61331e-05,-2.16266e-06,1.2617e-05,6.6819e-06,8
-5.28055e-05,-2.80814e-05,-1.14323e-05,-3.84186e-05,-1.10179e-05,-2.31744e-06,1.23788e-05,5.15948e-06,8
-3.38543e-05,-6.03841e-05,-8.51477e-06,-1.22047e-05,-4.55225e-06,-1.67481e-05,1.2186e-05,4.80266e-06,8
-2.2144e-05,-6.62984e-05,-3.68417e-06,1.8184e-05,1.56897e-06,-2.54952e-05,1.24576e-05,3.95269e-06,8
-1.92115e-05,-4.78009e-05,3.26967e-06,4.70829e-05,1.73549e-06,-2.34301e-05,1.34466e-05,2.99917e-06,8
-1.98165e-05,-2.84914e-05,1.15419e-05,6.60603e-05,-2.26093e-06,-1.76249e-05,1.45444e-05,3.04133e-06,8
-2.35632e-05,-1.6393e-05,1.86014e-05,7.13747e-05,-2.09549e-06,-1.44412e-05,1.4853e-05,2.79163e-06,8
-3.56559e-05,-1.56272e-06,1.97151e-05,6.78394e-05,4.95492e-06,-1.49706e-05,1.29708e-05,2.12755e-06,8
-5.07159e-05,2.01021e-05,1.29732e-05,6.26928e-05,1.138e-05,-1.73378e-05,1.04872e-05,1.87337e-06,8
-5.49628e-05,3.54151e-05,4.41989e-06,5.52032e-05,1.14936e-05,-1.89037e-05,9.23751e-06,1.82992e-06,8
-4.49189e-05,3.11321e-05,6.33881e-07,4.26187e-05,8.54931e-06,-1.8661e-05,9.791e-06,1.89942e-06,8
-3.02453e-05,1.65755e-05,8.91691e-07,2.95106e-05,7.98316e-06,-1.65889e-05,1.04509e-05,2.20397e-06,8
-2.1519e-05,8.5699e-06,3.47618e-06,2.03088e-05,1.06512e-05,-1.21722e-05,8.29331e-06,1.41841e-06,8
-1.5632e-05,9.20521e-06,6.63188e-06,1.17173e-05,1.42827e-05,-7.5512e-06,7.15239e-06,-1.3365e-06,8
-8.45352e-06,1.31464e-05,9.18875e-06,2.02347e-06,1.69774e-05,-5.3678e-06,1.04639e-05,-3.9357e-06,8
-3.38902e-06,1.72733e-05,1.00274e-05,-7.23051e-06,1.8823e-05,-4.89101e-06,1.30857e-05,-4.94093e-06,8
-4.68959e-06,2.01472e-05,1.25755e-05,-1.38152e-05,1.841e-05,-7.789e-06,1.28765e-05,-4.81342e-06,8
-9.42341e-06,2.02884e-05,2.16207e-05,-1.278e-05,1.8885e-05,-1.51608e-05,1.12019e-05,-4.29074e-06,8
-1.4102e-05,1.85947e-05,3.27775e-05,-5.5928e-06,2.11116e-05,-2.37875e-05,1.03911e-05,-3.53015e-06,8
-1.97276e-05,1.79828e-05,3.78671e-05,3.735e-06,2.0755e-05,-3.00475e-05,1.19925e-05,-1.92704e-06,8
-2.02528e-05,2.24332e-05,3.30045e-05,1.09706e-05,1.94827e-05,-3.11257e-05,1.50608e-05,5.40957e-07,8
-1.32439e-05,3.34798e-05,2.7796e-05,1.41789e-05,1.84734e-05,-2.78103e-05,1.81739e-05,2.87736e-06,8
-4.71265e-06,4.34734e-05,3.28001e-05,1.3109e-05,1.98374e-05,-1.89607e-05,1.99294e-05,2.95908e-06,8
-1.28607e-06,4.89368e-05,4.80735e-05,1.06262e-05,2.09899e-05,-5.33127e-06,2.11611e-05,1.28987e-06,8
-8.94076e-06,4.9796e-05,6.51748e-05,8.69819e-06,2.05908e-05,5.6695e-06,2.03001e-05,-5.19621e-07,8
-2.56336e-05,4.55383e-05,7.64534e-05,6.22588e-06,1.83572e-05,1.43919e-05,1.79329e-05,-1.92306e-06,8
-4.42751e-05,3.90745e-05,7.44579e-05,2.66927e-06,1.55429e-05,1.95307e-05,1.55158e-05,-3.63914e-06,8
-6.02959e-05,2.68222e-05,4.86963e-05,-3.41741e-06,1.48749e-05,1.32817e-05,1.41686e-05,-4.47987e-06,8
-7.18147e-05,1.11089e-06,-1.60629e-06,-1.30061e-05,1.82739e-05,1.22005e-06,1.32478e-05,-3.9808e-06,8
-7.19586e-05,-2.89292e-05,-6.40971e-05,-2.48275e-05,2.56241e-05,-4.77471e-06,1.2774e-05,-3.30782e-06,8
-5.27756e-05,-3.92102e-05,-0.000120415,-3.46739e-05,3.41405e-05,-3.21735e-06,1.43393e-05,-2.16954e-06,8
-2.16126e-05,-2.7345e-05,-0.000154766,-4.00124e-05,4.11875e-05,-7.07465e-07,1.6052e-05,-3.13709e-07,8
2.45928e-06,-1.08467e-05,-0.000160143,-4.12417e-05,4.36953e-05,-1.0908e-06,1.62725e-05,1.26085e-07,8
7.16479e-06,6.89923e-07,-0.000142703,-4.0005e-05,3.84388e-05,-2.164e-06,1.48962e-05,-2.06151e-06,8
-4.38247e-06,6.54914e-06,-0.000114624,-3.62257e-05,2.40532e-05,-1.57367e-06,1.35415e-05,-3.97114e-06,8
-2.05238e-05,8.95798e-06,-8.59673e-05,-3.27888e-05,5.29278e-06,-5.43132e-07,1.28887e-05,-2.28718e-06,8
-3.30749e-05,1.1819e-05,-6.22332e-05,-3.14865e-05,-1.16591e-05,-7.17438e-07,1.26224e-05,4.42509e-06,8
-4.45229e-05,1.58776e-05,-4.43645e-05,-2.74295e-05,-2.32622e-05,-2.30931e-06,1.25732e-05,2.14314e-05,8
-5.83325e-05,1.60948e-05,-2.96126e-05,-1.81738e-05,-3.11374e-05,-3.18334e-06,1.26473e-05,4.76125e-05,8
-6.58077e-05,1.28504e-05,-1.84367e-05,-8.83663e-06,-3.60643e-05,-3.33942e-06,1.12044e-05,6.22302e-05,8
-5.72986e-05,1.20982e-05,-9.04257e-06,-1.82716e-06,-3.68467e-05,-5.99324e-06,8.21559e-06,5.521e-05,8
-4.37556e-05,1.17223e-05,6.72634e-07,4.22451e-06,-3.12602e-05,-9.19253e-06,6.57072e-06,3.61465e-05,8
-3.69234e-05,7.1473e-06,7.50173e-06,7.22939e-06,-2.17103e-05,-1.00032e-05,7.58663e-06,1.08368e-05,8
-3.56264e-05,-4.04212e-07,1.21979e-05,3.45912e-06,-1.20278e-05,-8.58837e-06,1.03426e-05,-1.89651e-05,8
-3.64687e-05,-7.01736e-06,1.72763e-05,-4.03243e-06,-2.19524e-06,-5.78264e-06,1.39951e-05,-4.41505e-05,8
-3.75734e-05,-1.33798e-05,2.44161e-05,-1.08778e-05,9.66627e-06,-3.85078e-06,1.65823e-05,-5.43579e-05,8
-3.7606e-05,-1.72453e-05,3.356e-05,-1.69996e-05,1.88986e-05,-5.25845e-06,1.67276e-05,-5.30808e-05,8
-3.59025e-05,-1.197e-05,4.45652e-05,-2.04761e-05,2.3003e-05,-7.17823e-06,1.42501e-05,-5.0181e-05,8
-3.53475e-05,-1.90648e-06,5.65447e-05,-2.077e-05,2.90847e-05,-8.10413e-06,1.08373e-05,-4.66288e-05,8
-3.42272e-05,1.16992e-05,6.60213e-05,-1.74131e-05,3.65295e-05,-8.70845e-06,8.61933e-06,-3.86966e-05,8
-3.07555e-05,3.09226e-05,6.1621e-05,-1.14392e-05,4.1807e-05,-9.04621e-06,7.59567e-06,-2.81623e-05,8
-2.70067e-05,5.09162e-05,3.65688e-05,-7.51386e-06,4.23215e-05,-8.9399e-06,7.56288e-06,-1.82022e-05,8
-2.55316e-05,5.93054e-05,-2.97239e-07,-9.71904e-06,3.67844e-05,-9.20474e-06,8.77545e-06,-9.64042e-06,8
-2.54256e-05,4.90828e-05,-3.65088e-05,-1.58374e-05,2.60325e-05,-1.12386e-05,1.14246e-05,-2.92579e-06,8
-2.60842e-05,3.03136e-05,-6.56418e-05,-2.06291e-05,1.70329e-05,-1.27622e-05,1.36125e-05,1.9763e-06,8
-2.8411e-05,1.6286e-05,-8.64973e-05,-2.25549e-05,1.89049e-05,-1.27887e-05,1.46419e-05,4.97329e-06,8
-3.1353e-05,1.30582e-05,-9.5942e-05,-2.30909e-05,3.24794e-05,-1.19002e-05,1.51734e-05,6.7469e-06,8
-3.18547e-05,1.62977e-05,-9.25236e-05,-2.33285e-05,4.548e-05,-1.01902e-05,1.41896e-05,8.63371e-06,8
-2.8495e-05,2.05175e-05,-7.89546e-05,-2.29222e-05,4.54356e-05,-7.681e-06,1.18514e-05,1.10069e-05,8
-2.52531e-05,2.18066e-05,-6.12854e-05,-2.10013e-05,3.48527e-05,-5.84878e-06,1.12905e-05,1.22098e-05,8
-2.60772e-05,1.85978e-05,-4.48864e-05,-1.59705e-05,2.34872e-05,-5.2328e-06,1.24211e-05,1.09812e-05,8
-2.76748e-05,1.44481e-05,-3.1925e-05,-5.29079e-06,1.95457e-05,-4.819e-06,1.3349e-05,9.09022e-06,8
-2.5822e-05,1.33533e-05,-2.46372e-05,9.36381e-06,2.37056e-05,-4.2665e-06,1.39802e-05,8.10206e-06,8
-2.18401e-05,1.42753e-05,-2.25087e-05,1.91562e-05,2.73954e-05,-4.75347e-06,1.34106e-05,7.97651e-06,8
-1.59919e-05,1.51448e-05,-1.96644e-05,2.01315e-05,1.94331e-05,-6.90419e-06,1.13044e-05,8.99561e-06,8
-1.12465e-05,1.74616e-05,-1.26815e-05,1.76274e-05,5.82443e-06,-1.00195e-05,9.25626e-06,1.10108e-05,8
-1.06439e-05,2.07291e-05,-4.02088e-06,1.67213e-05,1.55421e-06,-1.32469e-05,8.01803e-06,1.17303e-05,8
-1.6582e-05,2.36518e-05,4.32145e-06,1.64249e-05,7.55166e-06,-1.41449e-05,8.05997e-06,9.14444e-06,8
-2.47856e-05,2.48038e-05,1.01195e-05,1.30098e-05,1.01554e-05,-1.24531e-05,9.93262e-06,4.83509e-06,8
-2.87639e-05,2.48089e-05,1.3286e-05,5.97043e-06,1.61001e-06,-1.21432e-05,1.14275e-05,2.83939e-06,8
-3.25869e-05,2.59835e-05,1.75951e-05,-1.64785e-06,-7.87329e-06,-1.33214e-05,1.13622e-05,4.16976e-06,8
-3.7535e-05,2.77445e-05,2.36161e-05,1.42223e-07,-6.87921e-06,-1.41271e-05,9.79487e-06,4.99599e-06,8
-4.00989e-05,3.2764e-05,3.06411e-05,1.43837e-05,5.72983e-06,-1.48463e-05,7.29056e-06,2.42618e-06,8
-3.37519e-05,4.83619e-05,3.58336e-05,2.59789e-05,2.18965e-05,-1.73863e-05,6.22763e-06,-3.15476e-06,8
-1.24757e-05,7.3959e-05,3.74461e-05,2.55238e-05,3.43526e-05,-1.94702e-05,7.27968e-06,-6.6721e-06,8
1.52636e-05,9.36018e-05,3.61574e-05,1.61487e-05,4.01423e-05,-1.75915e-05,7.37357e-06,-5.40505e-06,8
3.87862e-05,9.58014e-05,3.11203e-05,3.60139e-06,3.87355e-05,-1.5484e-05,5.87106e-06,-2.01921e-06,8
5.52124e-05,8.41157e-05,2.09945e-05,-1.03179e-05,2.88446e-05,-1.56288e-05,6.33698e-06,1.21216e-06,8
6.08761e-05,6.83808e-05,6.20125e-06,-2.51321e-05,1.44615e-05,-1.68002e-05,8.64287e-06,3.97733e-06,8
4.84622e-05,4.89965e-05,-8.08483e-06,-3.57888e-05,4.45713e-06,-1.68205e-05,1.02063e-05,6.4138e-06,8
1.45157e-05,1.69894e-05,-2.08725e-05,-3.76663e-05,3.89586e-06,-1.62908e-05,1.1072e-05,7.42592e-06,8
-3.67934e-05,-2.52635e-05,-3.69756e-05,-3.16864e-05,1.16511e-05,-1.6076e-05,1.24574e-05,7.37835e-06,8
-9.06041e-05,-6.67927e-05,-5.31368e-05,-2.51014e-05,2.12948e-05,-1.55538e-05,1.43541e-05,7.28779e-06,8
-0.00012538,-9.90592e-05,-5.74497e-05,-2.35147e-05,2.67724e-05,-1.59512e-05,1.63906e-05,7.08544e-06,8
-0.000134701,-0.000109835,-4.67883e-05,-2.5583e-05,2.54602e-05,-1.81991e-05,1.79919e-05,5.58308e-06,8
-0.000129389,-9.16903e-05,-2.95699e-05,-2.86203e-05,1.86438e-05,-1.93469e-05,1.87135e-05,4.51954e-06,8
-0.000115466,-5.90697e-05,-1.61165e-05,-3.15407e-05,7.71121e-06,-1.67272e-05,1.88691e-05,4.90837e-06,8
-8.87567e-05,-2.94072e-05,-1.017e-05,-3.32574e-05,-3.63119e-06,-1.20003e-05,1.82835e-05,6.28971e-06,8
-5.66261e-05,-7.59428e-06,-8.63775e-06,-3.3927e-05,-1.034e-05,-8.1703e-06,1.65098e-05,8.36962e-06,8
-3.40502e-05,6.62886e-06,-6.59445e-06,-3.23226e-05,-8.62346e-06,-6.28856e-06,1.43215e-05,1.06264e-05,8
-2.81778e-05,1.5502e-05,-2.90274e-06,-2.66727e-05,-2.37569e-06,-5.83683e-06,1.26291e-05,1.05724e-05,8
-3.34103e-05,2.20607e-05,1.01876e-06,-1.52159e-05,-3.86272e-06,-4.95785e-06,1.09776e-05,5.98631e-06,8
-3.71808e-05,2.38718e-05,3.70114e-06,-8.83772e-07,-1.58598e-05,-3.64643e-06,9.76059e-06,-8.87946e-07,8
-3.80694e-05,1.48835e-05,2.8015e-06,7.41913e-06,-1.71145e-05,-4.76423e-06,9.56354e-06,-6.02661e-06,8
-3.97946e-05,-1.55356e-05,9.20575e-07,4.82271e-06,3.99854e-05,-8.39901e-06,9.84577e-06,-7.3244e-06,8
-4.07339e-05,-5.40258e-05,2.6161e-06,-1.64505e-06,0.000132554,-1.17943e-05,8.63099e-06,-5.97887e-06,8
-4.28213e-05,-6.56329e-05,5.58541e-06,-1.90001e-06,0.000160688,-1.25877e-05,6.57189e-06,-3.36512e-06,8
-4.62308e-05,-4.79525e-05,5.67487e-06,3.41084e-07,0.000106116,-1.15768e-05,7.44375e-06,-9.7272e-07,8
-4.50819e-05,-2.4763e-05,4.06389e-06,1.50668e-06,3.90445e-05,-9.38553e-06,9.94877e-06,2.17574e-07,8
-3.77741e-05,-9.79709e-06,2.16763e-06,1.61804e-06,1.35001e-05,-7.33931e-06,1.10144e-05,2.93289e-07,8
-2.9683e-05,-1.08381e-06,1.28181e-07,-2.50869e-06,1.04952e-05,-6.32297e-06,1.02986e-05,1.86862e-06,8
-2.5971e-05,4.01056e-06,-2.91644e-06,-8.81107e-06,-2.82621e-06,-4.88554e-06,1.0041e-05,7.47386e-06,8
-2.47798e-05,7.37204e-06,-6.15556e-06,-9.0165e-06,-3.32295e-05,-3.1566e-06,1.03145e-05,1.86736e-05,8
-2.32779e-05,9.55007e-06,-4.97383e-06,-3.62534e-06,-6.95869e-05,-1.94588e-06,9.26582e-06,2.75605e-05,8
-2.24665e-05,1.04044e-05,3.19691e-06,2.59474e-06,-9.28711e-05,-1.58166e-06,6.82651e-06,2.67801e-05,8
-2.44564e-05,1.11623e-05,1.33964e-05,1.13432e-05,-9.04201e-05,-2.17712e-06,4.48107e-06,1.8836e-05,8
-2.89824e-05,1.29558e-05,2.02796e-05,2.06892e-05,-5.9687e-05,-3.98232e-06,5.41782e-06,9.229e-06,8
-3.14461e-05,1.63623e-05,2.27344e-05,2.8052e-05,-1.70019e-05,-5.53186e-06,8.74841e-06,1.68289e-06,8
-2.51894e-05,2.05418e-05,2.3212e-05,3.24468e-05,1.40988e-05,-3.57686e-06,1.16117e-05,-3.4965e-06,8
-8.17476e-06,2.48242e-05,2.48551e-05,3.59008e-05,1.95431e-05,9.65817e-07,1.35228e-05,-7.03395e-06,8
1.07543e-05,2.88877e-05,2.83704e-05,3.87625e-05,1.00213e-05,4.2328e-06,1.54866e-05,-1.06489e-05,8
1.90056e-05,3.19937e-05,3.3599e-05,3.96091e-05,-2.62146e-06,5.04868e-06,1.69017e-05,-1.25212e-05,8
1.4126e-05,3.35669e-05,3.78326e-05,3.67751e-05,-9.19278e-06,4.8675e-06,1.742e-05,-1.27534e-05,8
6.17953e-07,3.35134e-05,3.70473e-05,3.17076e-05,-5.16676e-07,5.54765e-06,1.82071e-05,-1.18087e-05,8
-1.84037e-05,3.20342e-05,2.80054e-05,2.98696e-05,2.40611e-05,6.14543e-06,2.04213e-05,-1.00945e-05,8
-4.03656e-05,3.11771e-05,8.98473e-06,3.09948e-05,4.636e-05,3.30075e-06,2.41706e-05,-8.79705e-06,8
-6.09991e-05,3.00601e-05,-2.01035e-05,2.75428e-05,5.24362e-05,-1.50161e-06,2.65423e-05,-8.32781e-06,8
-7.50928e-05,2.72206e-05,-5.02957e-05,1.47014e-05,4.83063e-05,-4.18664e-06,2.59383e-05,-8.58193e-06,8
-7.59307e-05,2.43961e-05,-7.02971e-05,-2.94051e-06,4.23794e-05,-5.01888e-06,2.45539e-05,-9.29826e-06,8
-6.07092e-05,2.54786e-05,-7.87691e-05,-1.62093e-05,3.6986e-05,-3.50943e-06,2.52803e-05,-8.94122e-06,8
-4.0662e-05,2.94161e-05,-7.60269e-05,-2.06762e-05,4.41226e-05,7.84086e-07,2.80739e-05,-7.66235e-06,8
-2.9211e-05,2.55779e-05,-6.41149e-05,-2.17427e-05,5.54845e-05,3.29478e-06,2.75146e-05,-5.4201e-06,8
-2.82878e-05,1.18951e-05,-4.87567e-05,-2.12271e-05,4.54608e-05,7.42196e-07,2.37333e-05,-2.22192e-06,8
-3.53604e-05,-7.89089e-08,-3.38753e-05,-1.87886e-05,3.09953e-05,-2.59309e-06,2.16209e-05,-2.70436e-07,8
-4.32197e-05,-1.52496e-06,-2.46558e-05,-2.10123e-05,2.86767e-05,-5.4382e-06,2.06145e-05,9.35496e-07,8
-4.32924e-05,5.66737e-06,-2.25666e-05,-3.29393e-05,4.10778e-05,-8.34475e-06,1.91758e-05,2.16749e-06,8
-3.56369e-05,1.50844e-05,-2.44464e-05,-4.88581e-05,5.76034e-05,-8.94754e-06,1.71323e-05,2.82748e-06,8
-2.44196e-05,2.26744e-05,-2.76709e-05,-6.13569e-05,5.15323e-05,-8.11018e-06,1.66717e-05,2.59976e-06,8
-1.3822e-05,2.83589e-05,-2.98076e-05,-6.77198e-05,2.12905e-05,-7.56593e-06,1.62363e-05,1.3107e-06,8
-7.48273e-06,3.35815e-05,-3.1565e-05,-6.87029e-05,-1.7836e-05,-7.48783e-06,1.40299e-05,-7.80957e-07,8
-6.40264e-06,3.73908e-05,-3.24716e-05,-6.67978e-05,-5.32753e-05,-7.08155e-06,1.21456e-05,-1.23732e-06,8
-7.96899e-06,4.04761e-05,-2.82055e-05,-5.97169e-05,-7.67168e-05,-7.05641e-06,1.20834e-05,-4.69388e-07,8
-1.11698e-05,4.02018e-05,-1.80282e-05,-4.34581e-05,-8.1591e-05,-8.03642e-06,1.26279e-05,4.10776e-07,8
-1.85104e-05,3.12274e-05,-7.51463e-06,-2.0594e-05,-6.95785e-05,-9.81838e-06,1.2405e-05,2.40853e-07,8
-3.11722e-05,1.40068e-05,5.202e-08,1.66611e-06,-4.79666e-05,-1.20396e-05,1.24201e-05,-9.3786e-07,8
-4.55253e-05,-3.20114e-06,5.58067e-06,1.47151e-05,-2.17103e-05,-1.39589e-05,1.25645e-05,-1.03031e-06,8
-5.22113e-05,-8.82348e-06,8.39137e-06,1.45996e-05,-8.1661e-08,-1.47303e-05,1.28508e-05,-1.38923e-07,8
-4.4887e-05,5.31983e-06,7.88108e-06,5.97665e-06,1.07279e-05,-1.4695e-05,1.35545e-05,4.05795e-07,8
-2.85407e-05,3.5065e-05,6.50125e-06,-4.78332e-06,1.24178e-05,-1.37641e-05,1.41474e-05,5.84004e-07,8
-1.46585e-05,6.17905e-05,7.20395e-06,-1.5984e-05,1.07571e-05,-1.23061e-05,1.36959e-05,1.01814e-06,8
-9.33348e-06,6.66618e-05,9.41453e-06,-2.56444e-05,9.74999e-06,-1.15441e-05,1.2643e-05,1.42269e-06,8
-9.93432e-06,5.06771e-05,1.04663e-05,-2.63158e-05,1.20419e-05,-1.10536e-05,1.15585e-05,1.36067e-06,8
-1.28474e-05,3.70759e-05,1.02149e-05,-1.1444e-05,1.5655e-05,-1.13993e-05,1.1059e-05,1.66512e-06,8
-1.7548e-05,3.83188e-05,1.08794e-05,1.94407e-05,1.9246e-05,-1.24575e-05,1.08663e-05,3.90745e-06,8
-2.45894e-05,4.6111e-05,1.26439e-05,5.6433e-05,2.37238e-05,-1.19989e-05,9.53877e-06,5.01539e-06,8
-3.40707e-05,4.78136e-05,1.0079e-05,8.30744e-05,2.56e-05,-9.46103e-06,7.85677e-06,3.02367e-06,8
-4.31363e-05,4.02013e-05,2.1265e-06,8.58146e-05,2.18666e-05,-8.25999e-06,6.67146e-06,2.0085e-06,8
-4.7176e-05,2.99036e-05,-3.60617e-06,6.37138e-05,1.87815e-05,-1.02761e-05,6.44705e-06,3.06162e-06,8
-4.27905e-05,2.35316e-05,-3.51769e-06,2.208e-05,2.14167e-05,-1.2733e-05,6.89564e-06,3.56529e-06,8
-3.45437e-05,2.14474e-05,-2.66667e-06,-1.47209e-05,2.55968e-05,-1.46546e-05,6.21714e-06,2.44062e-06,8
-2.89068e-05,2.15053e-05,-4.14566e-06,-3.02114e-05,2.62203e-05,-1.6362e-05,5.29653e-06,2.27607e-06,8
-2.7734e-05,2.33479e-05,-5.53267e-06,-3.47696e-05,2.20771e-05,-1.64543e-05,6.16409e-06,2.68445e-06,8
-2.94259e-05,2.11731e-05,-5.97371e-06,-3.2872e-05,1.60727e-05,-1.52514e-05,8.33181e-06,2.85554e-06,8
-2.97017e-05,1.17472e-05,-5.36151e-06,-2.45237e-05,1.19786e-05,-1.32095e-05,8.78708e-06,3.79527e-06,8
-2.72603e-05,-2.54374e-06,-4.97443e-06,-5.58648e-06,1.17539e-05,-1.07644e-05,8.43809e-06,3.27011e-06,8
-2.16279e-05,-1.7602e-05,-4.46211e-06,2.30052e-05,1.66348e-05,-8.60656e-06,1.08847e-05,2.28545e-06,8
-1.51546e-05,-2.03313e-05,-1.64346e-06,5.63159e-05,2.54193e-05,-5.02116e-06,1.4137e-05,2.96042e-06,8
-1.12509e-05,-1.10102e-06,3.97695e-06,8.06978e-05,3.10512e-05,-1.67291e-06,1.50317e-05,4.34383e-06,8
-1.19122e-05,3.09086e-05,9.59677e-06,8.79322e-05,2.80399e-05,-1.30029e-06,1.33509e-05,4.04837e-06,8
-1.46727e-05,5.46127e-05,1.4359e-05,7.8473e-05,1.8191e-05,-3.39046e-06,1.18087e-05,3.61687e-06,8
-1.62745e-05,5.21898e-05,2.00536e-05,5.4522e-05,7.48311e-06,-6.36482e-06,1.2511e-05,3.00249e-06,8
-1.58783e-05,2.93567e-05,2.74392e-05,2.26936e-05,1.05706e-06,-8.1431e-06,1.41496e-05,2.04435e-06,8
-1.52535e-05,7.20089e-06,3.55674e-05,-6.547e-06,5.76509e-07,-8.64288e-06,1.48019e-05,2.44043e-06,8
-1.5729e-05,-3.32045e-07,3.96789e-05,-2.56473e-05,2.57538e-06,-9.01427e-06,1.51021e-05,4.04404e-06,8
-1.72055e-05,4.06135e-06,3.52453e-05,-3.68948e-05,3.22122e-06,-9.1045e-06,1.6218e-05,5.11276e-06,8
-2.03847e-05,1.00595e-05,2.09156e-05,-4.39629e-05,2.38895e-06,-7.19341e-06,1.67521e-05,4.25187e-06,8
-2.54342e-05,1.31685e-05,4.17697e-07,-5.25571e-05,3.12057e-06,-4.23625e-06,1.59568e-05,2.8095e-06,8
-3.07946e-05,1.19814e-05,-2.06889e-05,-5.93219e-05,8.04031e-06,-3.33473e-06,1.4925e-05,2.43769e-06,8
-3.15454e-05,5.19809e-06,-3.58379e-05,-5.71146e-05,1.71573e-05,-5.54455e-06,1.4825e-05,3.89217e-06,8
-3.02846e-05,-5.06445e-06,-4.16338e-05,-4.64632e-05,2.63089e-05,-8.70024e-06,1.58033e-05,5.59716e-06,8
-3.7881e-05,-1.32125e-05,-4.04343e-05,-3.47179e-05,3.20779e-05,-9.02085e-06,1.64273e-05,6.63298e-06,8
-5.07962e-05,-1.32346e-05,-3.67923e-05,-2.26428e-05,3.45441e-05,-6.59027e-06,1.62997e-05,6.11618e-06,8
-4.50597e-05,-1.64616e-06,-3.31179e-05,-9.4803e-06,3.80799e-05,-4.26717e-06,1.61752e-05,4.93359e-06,8
-1.88969e-05,1.60506e-05,-2.7762e-05,1.15573e-06,4.32725e-05,-2.98325e-06,1.53145e-05,4.17571e-06,8
1.30023e-06,3.37567e-05,-2.09367e-05,3.75724e-06,4.24562e-05,-3.93481e-06,1.34551e-05,3.91097e-06,8
8.53769e-07,4.82434e-05,-1.8157e-05,-9.12571e-08,3.15624e-05,-7.00735e-06,1.20081e-05,2.32105e-06,8
-1.22134e-05,5.04038e-05,-2.05141e-05,-7.17805e-06,1.70709e-05,-1.01865e-05,1.07918e-05,2.1587e-06,8
-2.66761e-05,3.20754e-05,-2.37871e-05,-1.59344e-05,6.63685e-06,-1.22937e-05,1.09548e-05,2.15407e-06,8
-3.79223e-05,-3.94568e-06,-2.59969e-05,-2.27431e-05,-2.38869e-07,-1.24319e-05,1.26429e-05,-8.22449e-07,8
-4.73878e-05,-4.14642e-05,-2.47851e-05,-2.41947e-05,-2.75057e-06,-1.21515e-05,1.36693e-05,-2.48628e-06,8
-5.95627e-05,-6.07128e-05,-2.17184e-05,-2.18906e-05,-9.57819e-07,-1.4332e-05,1.26541e-05,-2.13944e-06,8
-6.89001e-05,-6.73083e-05,-2.01896e-05,-2.34484e-05,1.25054e-06,-1.67594e-05,1.14887e-05,4.85858e-07,8
-6.71849e-05,-7.92055e-05,-2.06746e-05,-2.85565e-05,2.99814e-06,-1.82814e-05,1.21233e-05,3.36515e-06,8
-5.51619e-05,-8.77384e-05,-2.12439e-05,-3.22589e-05,5.60298e-06,-2.38011e-05,1.16213e-05,4.33014e-06,8
-4.38315e-05,-7.25605e-05,-1.76918e-05,-2.93779e-05,1.09857e-05,-3.50648e-05,1.12263e-05,3.14689e-06,8
-4.29892e-05,-3.97359e-05,-1.203e-05,-2.0206e-05,1.97152e-05,-4.37261e-05,1.18758e-05,2.3936e-06,8
-5.03495e-05,-1.52284e-06,-9.78777e-06,-1.07488e-05,2.91456e-05,-2.95978e-05,1.23356e-05,3.04989e-06,8
-5.42492e-05,3.27773e-05,-1.06312e-05,-4.4424e-06,3.58402e-05,6.57035e-06,1.10517e-05,3.94908e-06,8
-4.69045e-05,4.70288e-05,-1.05837e-05,1.09816e-06,3.53889e-05,2.98811e-05,8.55299e-06,4.28048e-06,8
-3.53065e-05,3.65063e-05,-1.03011e-05,8.59244e-06,2.58278e-05,2.15796e-05,6.81074e-06,3.5757e-06,8
-2.60292e-05,1.44004e-05,-1.05865e-05,1.73581e-05,1.35908e-05,-5.24984e-07,6.44486e-06,3.83292e-06,8
-1.7983e-05,-1.76642e-06,-8.88756e-06,2.39423e-05,9.34922e-06,-1.34486e-05,7.86615e-06,5.3304e-06,8
-6.74039e-06,-6.26848e-06,-5.01398e-06,2.70453e-05,1.68402e-05,-1.41986e-05,9.34639e-06,6.08586e-06,8
8.83311e-06,-3.04615e-06,-9.3112e-07,2.61753e-05,3.17165e-05,-1.16329e-05,9.84588e-06,4.81442e-06,8
2.24195e-05,1.08357e-06,5.78156e-07,2.17086e-05,4.62545e-05,-1.13396e-05,9.52215e-06,3.66494e-06,8
2.68709e-05,1.24194e-06,-1.67991e-07,1.64421e-05,5.55294e-05,-1.07726e-05,8.95847e-06,2.98238e-06,8
1.92454e-05,-5.04445e-06,-3.76428e-07,1.21891e-05,5.8855e-05,-8.26736e-06,7.20494e-06,2.66446e-06,8
1.6881e-06,-1.24415e-05,1.63466e-06,5.89002e-06,5.3222e-05,-8.00169e-06,5.98677e-06,3.36883e-06,8
-2.00567e-05,-1.33823e-05,5.57741e-06,-1.93398e-06,3.7781e-05,-1.10658e-05,5.83723e-06,3.67265e-06,8
-4.60896e-05,-6.26995e-06,9.94424e-06,-5.42677e-06,1.55079e-05,-1.51006e-05,5.35277e-06,1.31649e-06,8
-7.80896e-05,1.78947e-06,1.07851e-05,-2.01954e-06,-6.56174e-06,-1.65668e-05,6.14364e-06,-1.4955e-06,8
-0.000104141,1.30445e-05,6.39452e-06,5.59251e-06,-2.0575e-05,-1.53169e-05,8.20072e-06,-6.37461e-07,8
-0.000113367,3.18851e-05,2.01001e-06,1.0704e-05,-3.01441e-05,-1.56211e-05,1.00517e-05,1.41129e-06,8
-9.92948e-05,3.93825e-05,1.70883e-06,5.28837e-06,-4.24843e-05,-1.77811e-05,1.24939e-05,1.98705e-06,8
-7.08532e-05,2.9114e-05,2.84645e-06,-6.47367e-06,-5.87603e-05,-1.80375e-05,1.39328e-05,3.02911e-06,8
-5.01995e-05,1.17014e-05,4.65207e-06,-1.69278e-05,-7.12322e-05,-1.72837e-05,1.31299e-05,4.37228e-06,8
-4.16421e-05,-6.21834e-06,5.87455e-06,-2.51529e-05,-7.17279e-05,-1.83685e-05,1.17034e-05,4.41703e-06,8
-3.88251e-05,-1.58884e-05,5.22094e-06,-2.8505e-05,-5.56175e-05,-2.02826e-05,1.14605e-05,2.56248e-06,8
-3.60564e-05,-1.5083e-05,6.42e-06,-2.88872e-05,-2.74456e-05,-2.00031e-05,1.26283e-05,8.16935e-08,8
-3.33214e-05,1.38154e-06,1.04159e-05,-2.19211e-05,-9.6435e-07,-1.73295e-05,1.43282e-05,-3.99816e-07,8
-3.14897e-05,2.6525e-05,1.34962e-05,-9.34306e-06,1.92812e-05,-1.48293e-05,1.65779e-05,-1.29261e-07,8
-2.95483e-05,4.92487e-05,1.06763e-05,-9.61786e-07,2.88459e-05,-1.3929e-05,1.70064e-05,-5.46589e-07,8
-2.68744e-05,6.3942e-05,4.42659e-06,6.67069e-07,2.74692e-05,-1.33908e-05,1.52152e-05,-2.07155e-06,8
-2.52705e-05,6.15993e-05,1.17618e-06,1.10346e-06,1.50278e-05,-1.32641e-05,1.2337e-05,-3.61954e-06,8
-2.34402e-05,4.5076e-05,3.11581e-06,4.97329e-06,-5.71848e-06,-1.31183e-05,1.10543e-05,-3.72628e-06,8
-1.19195e-05,2.8599e-05,8.5684e-06,1.43415e-05,-2.44445e-05,-1.32581e-05,1.21105e-05,1.82579e-06,8
7.91824e-06,2.20959e-05,1.03376e-05,2.82221e-05,-3.37286e-05,-1.47678e-05,1.37431e-05,2.06405e-05,8
2.17734e-05,2.20993e-05,3.19768e-07,3.79077e-05,-2.831e-05,-1.65001e-05,1.50992e-05,4.67533e-05,8
2.06927e-05,2.45255e-05,-2.12191e-05,3.70164e-05,-5.80657e-06,-1.69456e-05,1.63268e-05,5.96046e-05,8
6.43553e-06,2.59776e-05,-4.40212e-05,2.56894e-05,2.85642e-05,-1.58798e-05,1.74321e-05,5.09113e-05,8
-1.47055e-05,2.64676e-05,-5.6792e-05,1.0098e-05,5.95609e-05,-1.38217e-05,1.76269e-05,2.93675e-05,8
-3.44884e-05,2.52675e-05,-5.60126e-05,-5.10436e-06,7.94687e-05,-1.12236e-05,1.65832e-05,2.03173e-06,8
-5.03431e-05,2.33637e-05,-4.39218e-05,-1.92049e-05,8.65825e-05,-1.07341e-05,1.3719e-05,-2.70883e-05,8
-6.36718e-05,2.101e-05,-2.7691e-05,-3.20654e-05,8.20091e-05,-1.18256e-05,1.11077e-05,-4.93983e-05,8
-7.02325e-05,2.03863e-05,-1.74985e-05,-4.08791e-05,6.9773e-05,-1.33768e-05,9.96483e-06,-5.62922e-05,8
-6.4055e-05,2.14138e-05,-1.6425e-05,-4.74285e-05,5.73086e-05,-1.49404e-05,9.91592e-06,-5.23832e-05,8
-4.89001e-05,1.74507e-05,-2.14774e-05,-5.67406e-05,5.56042e-05,-1.57457e-05,1.03592e-05,-4.9394e-05,8
-3.5031e-05,7.83476e-06,-2.91286e-05,-6.42504e-05,6.30437e-05,-1.57323e-05,1.02818e-05,-4.84002e-05,8
-2.77918e-05,1.93566e-06,-3.28594e-05,-6.19625e-05,6.34967e-05,-1.47721e-05,1.00539e-05,-4.24962e-05,8
-2.57881e-05,3.56012e-06,-2.79875e-05,-5.09841e-05,5.10999e-05,-1.25539e-05,1.1315e-05,-2.88698e-05,8
-2.32543e-05,8.60375e-06,-1.91389e-05,-3.62053e-05,3.75387e-05,-1.09572e-05,1.28476e-05,-1.40901e-05,8
-9.23555e-06,1.54248e-05,-1.24065e-05,-2.09138e-05,3.07147e-05,-1.1173e-05,1.26874e-05,-5.65278e-06,8
1.07763e-05,2.25484e-05,-1.07277e-05,-9.02512e-06,2.94185e-05,-1.28604e-05,1.20455e-05,-2.51318e-06,8
1.90822e-05,2.80039e-05,-1.22731e-05,-2.83523e-06,2.90878e-05,-1.44571e-05,1.25884e-05,-8.83699e-07,8
1.30627e-05,3.18468e-05,-1.23791e-05,2.19358e-06,2.80803e-05,-1.45532e-05,1.4046e-05,2.1623e-06,8
2.58678e-06,3.38254e-05,-9.65736e-06,6.82014e-06,2.98015e-05,-1.44246e-05,1.52192e-05,5.18672e-06,8
-3.54302e-06,3.35997e-05,-3.91605e-06,1.15919e-05,3.24934e-05,-1.46256e-05,1.58648e-05,7.71488e-06,8
-8.59851e-06,3.26548e-05,2.26769e-06,1.08547e-05,3.11253e-05,-1.57798e-05,1.51597e-05,1.04969e-05,8
-2.13962e-05,2.83222e-05,6.37785e-06,-4.41591e-07,2.36945e-05,-1.57522e-05,1.34521e-05,1.08822e-05,8
-4.5573e-05,1.86354e-05,7.73859e-06,-1.38962e-05,1.27982e-05,-1.37536e-05,1.23034e-05,7.50573e-06,8
-6.44357e-05,8.18382e-06,7.55548e-06,-1.97247e-05,2.47472e-06,-1.15099e-05,1.2657e-05,3.73457e-06,8
-6.35638e-05,2.99079e-06,5.62964e-06,-1.52094e-05,-5.18131e-06,-1.04082e-05,1.4337e-05,3.01253e-06,8
-5.38371e-05,3.20438e-07,9.16189e-07,-6.44418e-06,-9.82405e-06,-1.05384e-05,1.6235e-05,3.06438e-06,8
-5.03018e-05,-1.9988e-06,-5.52335e-06,1.78533e-06,-1.49139e-05,-1.12134e-05,1.69191e-05,1.83893e-06,8
-5.29949e-05,-3.5531e-07,-1.23041e-05,5.48345e-06,-2.52311e-05,-1.27866e-05,1.63881e-05,6.92474e-08,8
-5.36691e-05,7.49042e-06,-1.76028e-05,6.18035e-06,-3.49281e-05,-1.50469e-05,1.57935e-05,-1.00351e-06,8
-4.88959e-05,1.87405e-05,-1.95089e-05,7.45425e-06,-3.18865e-05,-1.56361e-05,1.49979e-05,-7.10444e-07,8
-4.04689e-05,2.78066e-05,-1.87175e-05,1.16332e-05,-1.53446e-05,-1.27192e-05,1.37435e-05,1.345e-06,8
-3.23015e-05,2.88663e-05,-1.87757e-05,1.63237e-05,4.40176e-06,-7.2936e-06,1.27668e-05,3.99219e-06,8
-2.56112e-05,2.61195e-05,-2.00317e-05,2.06388e-05,1.79588e-05,-1.79513e-06,1.21658e-05,5.17171e-06,8
-2.0798e-05,2.93576e-05,-1.92978e-05,2.31986e-05,2.52648e-05,7.21029e-07,1.17866e-05,4.75041e-06,8
-1.76745e-05,3.77631e-05,-1.60721e-05,2.22788e-05,2.78956e-05,2.5322e-06,1.25582e-05,4.13765e-06,8
-1.5581e-05,4.15175e-05,-1.48357e-05,1.83205e-05,2.52667e-05,8.046e-06,1.33243e-05,3.26816e-06,8
-1.85716e-05,3.27506e-05,-1.50367e-05,1.18652e-05,1.75569e-05,1.23504e-05,1.35166e-05,2.09757e-06,8
-2.79376e-05,1.31477e-05,-1.48437e-05,3.00422e-06,7.18186e-06,1.03931e-05,1.33919e-05,4.54438e-08,8
-3.49801e-05,-6.64925e-06,-1.27831e-05,-6.22082e-06,7.29094e-08,6.83187e-06,1.18203e-05,-2.87177e-06,8
-3.66969e-05,-1.52397e-05,-6.365e-06,-8.647e-06,4.50738e-07,4.40562e-06,1.11145e-05,-4.12414e-06,8
