ch1,ch2,ch3,ch4,ch5,ch6,ch7,ch8,class
-3.02784e-05,1.13438e-05,-2.08029e-05,9.22978e-06,2.04071e-05,-1.58681e-05,9.34862e-06,5.78848e-06,8
-2.99881e-05,1.23731e-05,-1.08431e-05,-3.27299e-05,2.03981e-05,-1.34364e-05,1.04985e-05,8.5132e-06,8
-2.91251e-05,1.33279e-05,-5.29663e-06,-6.33759e-05,1.94964e-05,-1.27448e-05,1.04431e-05,1.59645e-05,8
-2.77849e-05,1.26705e-05,-5.23781e-06,-7.16002e-05,2.2866e-05,-1.30138e-05,9.029e-06,2.61503e-05,8
-2.86921e-05,9.02567e-06,-8.53431e-06,-6.51143e-05,2.53916e-05,-1.30026e-05,8.60728e-06,3.08889e-05,8
-2.99201e-05,7.3525e-06,-1.04026e-05,-5.43162e-05,2.13704e-05,-1.31552e-05,1.01903e-05,2.61888e-05,8
-2.68471e-05,1.24671e-05,-9.60376e-06,-3.67349e-05,1.53409e-05,-1.33359e-05,1.25475e-05,1.72892e-05,8
-2.12227e-05,2.12953e-05,-8.54793e-06,-5.59966e-06,1.61178e-05,-1.20391e-05,1.3064e-05,9.31331e-06,8
-1.76671e-05,2.62434e-05,-7.88669e-06,3.30292e-05,2.37191e-05,-9.91178e-06,1.15627e-05,3.38999e-06,8
-1.72629e-05,2.64703e-05,-6.3154e-06,5.89461e-05,2.83382e-05,-9.6691e-06,1.00678e-05,-4.97068e-07,8
-1.74945e-05,2.49181e-05,-2.27885e-06,5.95083e-05,2.58696e-05,-1.04706e-05,9.35831e-06,-3.4109e-06,8
-1.98014e-05,2.15101e-05,1.42086e-07,3.61356e-05,2.06159e-05,-9.32115e-06,1.00235e-05,-7.18708e-06,8
-2.74158e-05,1.56346e-05,-5.43963e-06,-1.33965e-06,1.96174e-05,-7.62455e-06,1.25972e-05,-1.08837e-05,8
-3.68025e-05,1.34567e-05,-1.27004e-05,-2.9981e-05,2.10507e-05,-9.33839e-06,1.67429e-05,-1.20284e-05,8
-4.20508e-05,1.59441e-05,-1.44856e-05,-3.61623e-05,1.73489e-05,-1.17864e-05,1.97603e-05,-1.14586e-05,8
-4.09339e-05,1.68638e-05,-1.19201e-05,-2.46912e-05,1.47951e-05,-1.1154e-05,1.82677e-05,-9.07452e-06,8
-3.50851e-05,1.89219e-05,-7.71941e-06,-4.72419e-06,2.31101e-05,-9.42066e-06,1.51485e-05,-6.05946e-06,8
-3.05749e-05,2.08833e-05,-7.23077e-06,1.12437e-05,3.86473e-05,-7.88546e-06,1.3997e-05,-5.03833e-06,8
-2.83104e-05,1.74439e-05,-1.11008e-05,1.80993e-05,4.07106e-05,-6.77974e-06,1.43917e-05,-5.51699e-06,8
-2.47433e-05,1.16732e-05,-1.45144e-05,1.76656e-05,2.24643e-05,-6.7268e-06,1.54393e-05,-5.81628e-06,8
-1.94554e-05,6.53555e-06,-1.53277e-05,1.5236e-05,5.89619e-06,-8.7622e-06,1.59076e-05,-5.10654e-06,8
-7.28406e-06,4.58086e-06,-1.72217e-05,1.3044e-05,1.27884e-05,-1.11773e-05,1.52734e-05,-4.01181e-06,8
1.33915e-05,2.74333e-06,-2.0343e-05,1.17711e-05,4.98963e-05,-1.20885e-05,1.52838e-05,-2.33107e-06,8
3.49404e-05,-3.08755e-06,-2.22481e-05,1.17798e-05,9.25158e-05,-1.07137e-05,1.61174e-05,-3.66421e-07,8
5.52931e-05,-4.2205e-06,-2.21211e-05,1.46964e-05,0.000106998,-7.28678e-06,1.70636e-05,-7.02505e-07,8
6.8904e-05,4.41092e-06,-2.16307e-05,2.12756e-05,8.8885e-05,-3.09114e-06,1.72114e-05,-2.36702e-06,8
6.25863e-05,2.10577e-05,-2.14192e-05,2.52684e-05,5.64827e-05,6.97716e-07,1.60243e-05,-3.60983e-06,8
3.2804e-05,4.26146e-05,-2.05985e-05,2.17611e-05,2.29704e-05,1.99559e-06,1.49634e-05,-3.6634e-06,8
-9.87264e-06,6.07716e-05,-1.95893e-05,1.20374e-05,-9.05343e-06,1.3746e-07,1.51442e-05,-3.44261e-06,8
-4.79668e-05,6.55057e-05,-1.80334e-05,1.14826e-06,-3.66024e-05,-4.62249e-06,1.66167e-05,-4.52235e-06,8
-7.3615e-05,5.25091e-05,-1.60106e-05,-1.03915e-05,-5.40075e-05,-1.01936e-05,1.7871e-05,-4.92308e-06,8
-9.3463e-05,2.39477e-05,-1.3622e-05,-2.29251e-05,-5.35427e-05,-1.40099e-05,1.89026e-05,-3.09842e-06,8
-0.000120851,-1.15081e-05,-1.27841e-05,-3.46853e-05,-3.73217e-05,-1.54898e-05,2.02899e-05,-6.99709e-07,8
-0.0001584,-4.06024e-05,-1.47363e-05,-4.04751e-05,-1.73486e-05,-1.62663e-05,2.15458e-05,2.45439e-06,8
-0.000178599,-4.90966e-05,-1.7593e-05,-4.05091e-05,-4.86559e-06,-1.55719e-05,2.07187e-05,4.89323e-06,8
-0.00015317,-3.26677e-05,-1.80996e-05,-3.92642e-05,-1.23867e-06,-1.24311e-05,1.79771e-05,3.82516e-06,8
-9.80721e-05,-3.40758e-06,-1.6419e-05,-3.97675e-05,-1.91112e-06,-8.68755e-06,1.6209e-05,1.34947e-06,8
-5.28193e-05,2.35727e-05,-1.37788e-05,-4.24919e-05,-5.03977e-06,-5.35831e-06,1.49974e-05,-1.29612e-06,8
-3.71851e-05,3.58651e-05,-1.25496e-05,-4.18605e-05,-1.15845e-05,-2.99438e-06,1.34017e-05,-1.68913e-06,8
-3.99198e-05,3.48985e-05,-1.31696e-05,-3.31896e-05,-1.87008e-05,-3.82951e-06,1.20515e-05,8.22585e-07,8
-4.11423e-05,2.98103e-05,-1.3593e-05,-2.3205e-05,-2.54465e-05,-9.22957e-06,1.16786e-05,2.50793e-06,8
-3.74599e-05,2.98713e-05,-1.23245e-05,-1.86323e-05,-1.87681e-05,-1.38647e-05,1.14302e-05,2.48347e-06,8
-3.38094e-05,3.71021e-05,-1.02521e-05,-1.86189e-05,8.63158e-06,-1.46684e-05,1.04101e-05,1.44428e-06,8
-3.11346e-05,4.366e-05,-1.03105e-05,-1.96227e-05,4.43913e-05,-1.29272e-05,1.04392e-05,3.65397e-07,8
-2.94365e-05,4.78648e-05,-1.17988e-05,-1.82168e-05,7.92718e-05,-9.25093e-06,1.05271e-05,2.06839e-06,8
-2.90002e-05,4.70457e-05,-1.10389e-05,-1.63472e-05,9.33594e-05,-6.28702e-06,9.80615e-06,4.73492e-06,8
-2.88589e-05,3.81153e-05,-7.40578e-06,-1.56239e-05,7.50807e-05,-5.07086e-06,9.15729e-06,5.28265e-06,8
-2.92466e-05,2.35385e-05,-4.51237e-06,-1.39099e-05,3.77415e-05,-5.17571e-06,8.56758e-06,4.30355e-06,8
-2.914e-05,9.05414e-06,-3.0336e-06,-1.12316e-05,7.52799e-06,-4.46113e-06,8.03611e-06,4.3846e-06,8
-2.70688e-05,-1.12054e-06,-2.31948e-06,-1.0714e-05,-3.41955e-06,-3.63604e-06,7.25815e-06,5.53475e-06,8
-2.47076e-05,-3.3115e-06,-3.08343e-06,-9.59387e-06,-4.24647e-08,-4.05462e-06,6.40108e-06,5.60825e-06,8
-2.15858e-05,1.91875e-06,-4.80365e-06,-2.73504e-06,7.58979e-06,-4.34802e-06,6.00945e-06,4.31247e-06,8
-1.80992e-05,5.81294e-06,-5.90781e-06,1.09254e-05,1.19239e-05,-4.37327e-06,6.5771e-06,2.45714e-06,8
-1.64221e-05,5.3983e-06,-5.9512e-06,2.36322e-05,1.34317e-05,-4.88545e-06,7.09731e-06,2.86962e-06,8
-1.6004e-05,7.01607e-06,-5.24891e-06,2.342e-05,1.25196e-05,-6.22318e-06,7.83407e-06,5.59544e-06,8
-1.52231e-05,1.50016e-05,-5.22013e-06,7.34368e-06,1.01075e-05,-7.57698e-06,1.00529e-05,7.23599e-06,8
-1.37245e-05,2.61782e-05,-6.52504e-06,-9.33685e-06,8.28547e-06,-8.15758e-06,1.28648e-05,7.4027e-06,8
-1.25267e-05,3.57681e-05,-7.27011e-06,-1.14134e-05,9.08636e-06,-7.78786e-06,1.32275e-05,8.04497e-06,8
-1.27371e-05,3.95892e-05,-6.06349e-06,-3.26694e-06,1.2787e-05,-7.8309e-06,1.11e-05,7.84274e-06,8
-1.43099e-05,3.79553e-05,-3.33818e-06,5.96726e-06,1.71581e-05,-8.58565e-06,9.73448e-06,5.23427e-06,8
-1.47309e-05,3.627e-05,9.35157e-07,1.73583e-05,1.72672e-05,-9.01611e-06,9.31699e-06,1.79621e-06,8
-1.12049e-05,3.50941e-05,5.32984e-06,3.14714e-05,1.39408e-05,-7.715e-06,9.03969e-06,-5.63836e-07,8
-4.52784e-06,3.049e-05,9.27618e-06,4.05184e-05,1.21019e-05,-6.05739e-06,8.32209e-06,-1.50569e-06,8
-2.75209e-06,1.73422e-05,1.2567e-05,3.73385e-05,1.83205e-05,-6.41663e-06,6.71078e-06,-2.13623e-06,8
-1.15911e-05,-6.64903e-06,1.24749e-05,2.354e-05,2.86852e-05,-1.00363e-05,6.77804e-06,-5.06493e-06,8
-2.32104e-05,-3.49506e-05,8.50736e-06,8.99407e-06,3.23087e-05,-1.44286e-05,7.86334e-06,-1.03829e-05,8
-2.0007e-05,-4.42736e-05,2.20054e-06,-1.64288e-06,2.17576e-05,-1.54547e-05,8.31717e-06,-1.44995e-05,8
-1.7873e-06,-2.44454e-05,-2.99715e-06,-3.48937e-06,-2.31406e-07,-1.27661e-05,8.32334e-06,-1.46999e-05,8
8.88244e-06,-1.93217e-06,-6.04286e-06,1.71241e-06,-1.62113e-05,-1.03006e-05,8.78367e-06,-1.21083e-05,8
1.80249e-06,7.29482e-06,-9.88924e-06,2.31605e-07,-1.61374e-05,-9.68364e-06,9.95462e-06,-7.0935e-06,8
-1.59304e-05,8.26384e-06,-1.61396e-05,-1.29107e-05,-5.22105e-06,-1.04586e-05,1.04073e-05,-2.22975e-06,8
-3.38346e-05,9.59905e-06,-2.22898e-05,-3.06666e-05,5.73659e-06,-1.1522e-05,1.09644e-05,-5.80181e-07,8
-4.73845e-05,1.55803e-05,-2.60227e-05,-4.2849e-05,1.111e-05,-1.19346e-05,1.26774e-05,-1.61501e-06,8
-5.96291e-05,1.80423e-05,-2.73295e-05,-4.31628e-05,1.09994e-05,-1.43816e-05,1.51902e-05,-1.87556e-06,8
-7.02613e-05,9.30799e-06,-2.5185e-05,-3.26231e-05,9.03069e-06,-1.88181e-05,1.48063e-05,-4.19752e-07,8
-7.42232e-05,-8.47697e-06,-1.85159e-05,-1.95366e-05,7.88131e-06,-2.18703e-05,1.29005e-05,5.06672e-07,8
-6.44621e-05,-2.01516e-05,-8.00689e-06,-1.01348e-05,4.47442e-06,-1.84689e-05,1.2807e-05,1.23478e-06,8
-4.4739e-05,-7.06657e-06,6.19802e-06,-5.86537e-06,-1.71478e-06,-1.1077e-05,1.45453e-05,1.56357e-06,8
-2.91714e-05,2.56485e-05,2.71462e-05,-6.02374e-06,-6.77127e-06,-6.54508e-06,1.77396e-05,1.70628e-06,8
-2.66804e-05,5.15583e-05,5.24376e-05,-8.49675e-06,-4.33103e-06,-7.32056e-06,2.03334e-05,2.29219e-06,8
-3.56751e-05,5.31304e-05,7.45015e-05,-1.22384e-05,6.96213e-06,-1.1906e-05,2.03149e-05,3.51933e-06,8
-4.9285e-05,3.40147e-05,8.91851e-05,-1.81416e-05,1.88788e-05,-1.96157e-05,1.81505e-05,3.82672e-06,8
-5.77029e-05,1.35723e-05,9.48782e-05,-2.29577e-05,2.34274e-05,-3.17725e-05,1.66216e-05,3.27896e-06,8
-5.46722e-05,5.46019e-06,8.80956e-05,-2.15088e-05,2.18092e-05,-4.02341e-05,1.65583e-05,2.55127e-06,8
-4.58175e-05,6.14799e-06,6.57916e-05,-1.58128e-05,2.04542e-05,-2.65277e-05,1.71394e-05,2.51441e-06,8
-3.95645e-05,8.00669e-06,2.93135e-05,-1.12304e-05,1.90743e-05,9.7649e-06,1.76517e-05,3.46455e-06,8
-3.73104e-05,1.12881e-05,-1.49777e-05,-9.3866e-06,1.19177e-05,3.46079e-05,1.76903e-05,4.12576e-06,8
-3.45529e-05,1.54025e-05,-6.02098e-05,-8.23933e-06,-1.57541e-06,2.81521e-05,1.64971e-05,3.5644e-06,8
-3.03703e-05,1.71771e-05,-0.000103711,-6.8969e-06,-1.21942e-05,9.32231e-06,1.54245e-05,1.77945e-06,8
-2.79508e-05,1.63133e-05,-0.000143152,-4.39038e-06,-1.33744e-05,-2.78459e-06,1.5965e-05,-3.495e-07,8
-2.95883e-05,1.15973e-05,-0.000171898,-1.32959e-06,-7.57052e-06,-6.29103e-06,1.71794e-05,1.0663e-07,8
-3.14249e-05,1.18129e-06,-0.000178475,-3.40195e-07,1.32086e-06,-6.309e-06,1.83979e-05,1.22783e-06,8
-3.03197e-05,-8.83654e-06,-0.000161129,-3.30544e-06,1.1049e-05,-6.43448e-06,1.97053e-05,9.05679e-08,8
-2.62732e-05,-8.49144e-06,-0.00013098,-1.03201e-05,2.02807e-05,-6.76614e-06,1.97544e-05,-3.48168e-07,8
-2.27017e-05,1.58057e-06,-0.000103622,-1.83081e-05,4.5173e-05,-6.02148e-06,1.70424e-05,-1.37746e-06,8
-2.31966e-05,1.48868e-05,-8.25895e-05,-2.20902e-05,0.000106815,-5.90703e-06,1.39415e-05,-5.79395e-06,8
-2.57336e-05,2.96201e-05,-6.43392e-05,-1.84043e-05,0.000156104,-6.87292e-06,1.25476e-05,-1.114e-05,8
-2.75846e-05,3.59669e-05,-5.02277e-05,-8.81236e-06,0.000115926,-7.89255e-06,1.00751e-05,-1.1697e-05,8
-2.48602e-05,2.72971e-05,-3.82169e-05,1.49507e-06,1.20992e-05,-9.32441e-06,6.0952e-06,-8.33283e-06,8
-1.94271e-05,1.6095e-05,-2.73243e-05,1.00789e-05,-6.41818e-05,-1.02123e-05,3.40901e-06,-4.40112e-06,8
-1.71817e-05,1.06337e-05,-1.67124e-05,1.57004e-05,-6.99669e-05,-1.05187e-05,2.741e-06,-1.61915e-06,8
-1.98731e-05,1.53705e-05,-6.76727e-06,1.82988e-05,-3.44985e-05,-1.03824e-05,3.26736e-06,-2.59206e-07,8
-2.49382e-05,2.30009e-05,2.60548e-06,1.79402e-05,-3.49495e-06,-9.76777e-06,3.73262e-06,6.90232e-07,8
-2.70505e-05,2.5664e-05,1.03764e-05,1.37965e-05,2.19002e-06,-9.035e-06,3.41024e-06,1.3146e-06,8
-2.57805e-05,2.71908e-05,1.68336e-05,9.51896e-06,-6.73777e-06,-9.13283e-06,3.10733e-06,1.73642e-06,8
-2.42005e-05,3.06927e-05,2.22825e-05,8.68669e-06,-4.27336e-06,-1.03366e-05,3.02671e-06,5.61564e-07,8
-2.38262e-05,3.61167e-05,2.66095e-05,1.27482e-05,1.59733e-05,-1.13813e-05,3.22292e-06,-1.04878e-06,8
-2.3784e-05,3.83466e-05,2.80693e-05,1.92327e-05,3.51657e-05,-1.0728e-05,4.4546e-06,-1.51189e-06,8
-2.30435e-05,3.58434e-05,2.5753e-05,2.34541e-05,3.78239e-05,-7.62955e-06,7.20192e-06,-3.72144e-07,8
-2.02886e-05,3.01498e-05,2.24139e-05,1.98578e-05,2.91822e-05,-3.56112e-06,1.12692e-05,9.17029e-07,8
-1.42788e-05,2.58784e-05,1.87992e-05,6.5494e-06,1.89383e-05,-1.93739e-06,1.54375e-05,9.77229e-07,8
-7.4525e-06,2.35584e-05,1.52327e-05,-1.24042e-05,1.29618e-05,-3.16243e-06,1.79008e-05,1.04841e-06,8
-5.12928e-06,2.00237e-05,1.08782e-05,-2.98663e-05,1.11884e-05,-4.41471e-06,1.76828e-05,3.02178e-06,8
-9.86322e-06,1.66996e-05,7.23123e-06,-3.81675e-05,1.10099e-05,-4.94473e-06,1.65551e-05,5.78918e-06,8
-1.7445e-05,1.52751e-05,5.58738e-06,-3.90578e-05,9.14852e-06,-6.18481e-06,1.57034e-05,6.08888e-06,8
-2.45086e-05,1.13099e-05,5.87341e-06,-4.23748e-05,4.888e-06,-8.58807e-06,1.47521e-05,4.64104e-06,8
-3.19505e-05,3.29358e-06,5.51724e-06,-5.20636e-05,1.94296e-07,-1.19949e-05,1.4463e-05,2.1731e-06,8
-4.32798e-05,-2.0905e-06,1.31436e-06,-6.47514e-05,-1.73702e-06,-1.61203e-05,1.45665e-05,7.05973e-07,8
-5.69475e-05,-9.16015e-07,-8.60723e-06,-6.74543e-05,-1.04393e-06,-1.8685e-05,1.454e-05,1.72225e-06,8
-6.27103e-05,5.03755e-06,-2.10531e-05,-4.66707e-05,2.58456e-06,-2.00807e-05,1.53915e-05,1.9532e-06,8
-5.63531e-05,1.44652e-05,-3.20916e-05,1.25399e-06,8.46638e-06,-2.07639e-05,1.52175e-05,1.48234e-06,8
-4.48331e-05,2.48331e-05,-3.62283e-05,5.24404e-05,1.07236e-05,-2.09514e-05,1.38258e-05,1.53642e-06,8
-3.46237e-05,3.13083e-05,-3.20689e-05,7.79848e-05,9.01972e-06,-2.01422e-05,1.29667e-05,2.24707e-06,8
-2.98714e-05,2.48333e-05,-2.38003e-05,7.81888e-05,6.06409e-06,-1.75339e-05,1.31742e-05,3.63378e-06,8
-2.86815e-05,2.48084e-06,-1.33914e-05,6.38414e-05,4.79717e-06,-1.55366e-05,1.28345e-05,3.66393e-06,8
-2.82602e-05,-2.29063e-05,-4.97346e-06,5.06746e-05,7.90373e-06,-1.46812e-05,1.15922e-05,2.7934e-06,8
-2.80253e-05,-3.6902e-05,1.4469e-06,4.44641e-05,1.40624e-05,-1.53872e-05,1.14314e-05,2.05602e-06,8
-2.72771e-05,-3.29941e-05,6.42541e-06,4.21067e-05,2.73156e-05,-1.65338e-05,1.16223e-05,2.22901e-06,8
-2.76312e-05,-2.04016e-05,9.87375e-06,3.69029e-05,4.21236e-05,-1.76675e-05,1.12672e-05,3.63588e-06,8
-2.68558e-05,-1.08523e-05,1.22726e-05,3.09388e-05,4.45661e-05,-1.83323e-05,1.13403e-05,5.22776e-06,8
-2.33656e-05,-6.61933e-06,1.2557e-05,2.32648e-05,3.17019e-05,-1.846e-05,1.16149e-05,6.32836e-06,8
-1.91325e-05,-4.40115e-06,1.09536e-05,9.52066e-06,1.3824e-05,-1.80615e-05,1.07409e-05,6.31073e-06,8
-1.63002e-05,-3.00633e-06,9.01049e-06,-9.18174e-06,5.6832e-06,-1.76096e-05,9.91037e-06,5.48499e-06,8
-1.56077e-05,-2.87971e-06,9.467e-06,-2.6517e-05,5.52232e-06,-1.71416e-05,1.01756e-05,3.97758e-06,8
-1.95456e-05,-1.38313e-06,1.21269e-05,-3.45847e-05,4.64819e-06,-1.56608e-05,1.08426e-05,2.81033e-06,8
-2.85032e-05,2.30734e-06,1.53799e-05,-3.64831e-05,1.44045e-06,-1.31497e-05,1.15261e-05,4.54027e-06,8
-3.70455e-05,6.13778e-06,1.93216e-05,-3.49256e-05,4.04115e-06,-1.03328e-05,1.21317e-05,7.44978e-06,8
-3.96334e-05,8.23143e-06,2.45089e-05,-3.16264e-05,1.55517e-05,-8.93032e-06,1.18456e-05,8.66687e-06,8
-3.61142e-05,8.98252e-06,3.2295e-05,-2.76379e-05,2.76554e-05,-8.32667e-06,1.07234e-05,8.41898e-06,8
-3.02814e-05,9.67488e-06,4.4919e-05,-2.36362e-05,2.94716e-05,-8.09518e-06,1.05545e-05,6.38444e-06,8
-2.68159e-05,9.71562e-06,6.38388e-05,-1.69958e-05,2.22242e-05,-8.07886e-06,1.3132e-05,2.50826e-06,8
-2.83224e-05,9.87487e-06,8.73211e-05,-1.14398e-05,1.42748e-05,-1.0619e-05,1.62284e-05,-1.27553e-06,8
-3.08697e-05,1.22524e-05,0.000107987,-8.61109e-06,9.48995e-06,-1.53875e-05,1.69446e-05,-3.10322e-06,8
-3.05436e-05,1.54064e-05,0.000115827,-1.00832e-05,6.48529e-06,-1.84128e-05,1.6397e-05,-3.66995e-06,8
-2.83043e-05,1.83138e-05,0.000108951,-1.4043e-05,3.27499e-06,-1.7478e-05,1.60968e-05,-4.0599e-06,8
-2.82018e-05,1.78237e-05,8.55403e-05,-1.67602e-05,2.43199e-06,-1.38044e-05,1.68379e-05,-4.28737e-06,8
-2.96875e-05,1.34443e-05,4.34916e-05,-1.89025e-05,5.55476e-06,-1.03011e-05,1.82334e-05,-3.97452e-06,8
-3.08258e-05,9.77364e-06,-1.26819e-05,-2.0403e-05,9.05945e-06,-9.47033e-06,1.88978e-05,-1.86051e-06,8
-3.03065e-05,1.08445e-05,-6.18387e-05,-2.10786e-05,1.57402e-06,-1.13594e-05,1.79643e-05,-4.35756e-07,8
-2.71811e-05,1.49673e-05,-9.02659e-05,-2.35711e-05,-1.59955e-05,-1.21055e-05,1.79137e-05,-2.113e-06,8
-2.56624e-05,1.60656e-05,-9.85866e-05,-2.60695e-05,-3.18895e-05,-1.05473e-05,1.9027e-05,-3.30342e-06,8
-2.72782e-05,1.63951e-05,-9.09621e-05,-2.43214e-05,-3.50492e-05,-9.35038e-06,1.83954e-05,5.32186e-07,8
-3.00372e-05,1.84194e-05,-8.29487e-05,-2.11775e-05,-2.07296e-05,-8.68101e-06,1.67374e-05,2.00665e-05,8
-2.39808e-05,2.17766e-05,-7.4015e-05,-1.45269e-05,1.42029e-06,-9.18319e-06,1.49081e-05,4.9154e-05,8
-1.09257e-06,2.75622e-05,-6.53279e-05,2.66339e-06,2.01567e-05,-8.85369e-06,1.46311e-05,6.30594e-05,8
2.48272e-05,3.09336e-05,-6.19067e-05,2.88352e-05,3.18737e-05,-5.36516e-06,1.46974e-05,5.68699e-05,8
3.56484e-05,2.90292e-05,-6.31013e-05,5.29371e-05,4.00406e-05,-2.42575e-06,1.60356e-05,3.7561e-05,8
2.80256e-05,2.70176e-05,-5.98869e-05,6.55512e-05,4.42397e-05,-2.79749e-06,1.7666e-05,9.81506e-06,8
8.75151e-06,3.00771e-05,-4.98481e-05,6.18244e-05,4.32509e-05,-4.00117e-06,1.69838e-05,-2.13266e-05,8
-1.26495e-05,3.57045e-05,-4.31049e-05,4.6594e-05,3.89711e-05,-3.52544e-06,1.61715e-05,-4.47561e-05,8
-3.43408e-05,3.9777e-05,-4.30817e-05,2.63721e-05,3.06056e-05,-3.83951e-06,1.61249e-05,-5.29376e-05,8
-5.78214e-05,3.9746e-05,-4.8007e-05,7.57123e-06,2.29792e-05,-5.7337e-06,1.4956e-05,-5.06556e-05,8
-7.9349e-05,3.21001e-05,-5.35726e-05,-6.74734e-06,2.32398e-05,-8.2994e-06,1.16364e-05,-4.69308e-05,8
-8.94665e-05,1.96442e-05,-5.51891e-05,-1.71148e-05,3.53942e-05,-1.05268e-05,9.93929e-06,-4.37449e-05,8
-7.893e-05,1.26964e-05,-4.88998e-05,-2.53352e-05,5.79497e-05,-1.07301e-05,1.069e-05,-3.53203e-05,8
-5.12798e-05,1.61609e-05,-3.87799e-05,-3.1271e-05,7.64016e-05,-8.3708e-06,1.2086e-05,-2.13762e-05,8
-2.22365e-05,2.13366e-05,-2.71652e-05,-3.35588e-05,6.94393e-05,-5.55403e-06,1.30259e-05,-8.11861e-06,8
-7.03676e-06,1.99101e-05,-1.59774e-05,-3.14849e-05,3.95139e-05,-3.43555e-06,1.39126e-05,-9.37936e-07,8
-1.03885e-05,1.14469e-05,-6.97192e-06,-2.4057e-05,1.18122e-05,-2.2417e-06,1.44574e-05,1.30714e-06,8
-2.41011e-05,-1.71711e-06,-1.28434e-06,-1.61308e-05,-1.36857e-06,-1.25516e-06,1.49081e-05,2.31603e-06,8
-3.46077e-05,-1.17369e-05,2.4405e-06,-1.89759e-05,-7.15577e-06,-1.69291e-06,1.47003e-05,5.01124e-06,8
-4.45791e-05,-1.98081e-05,3.651e-06,-3.17779e-05,-1.11396e-05,-4.53347e-06,1.39238e-05,1.03331e-05,8
-6.19066e-05,-3.51589e-05,4.46457e-06,-4.0647e-05,-9.69262e-06,-5.92194e-06,1.29627e-05,1.4717e-05,8
-7.88247e-05,-5.20366e-05,6.38447e-06,-4.31417e-05,-3.80902e-06,-5.83764e-06,1.21416e-05,1.58645e-05,8
-8.65374e-05,-5.7211e-05,1.03562e-05,-4.32736e-05,5.95322e-07,-7.81631e-06,1.1363e-05,1.54574e-05,8
-8.11818e-05,-3.29062e-05,1.53517e-05,-4.10893e-05,-2.12401e-06,-1.03953e-05,1.10136e-05,1.23722e-05,8
-6.60863e-05,1.20598e-05,1.96155e-05,-3.42296e-05,-1.19889e-05,-1.01301e-05,1.12675e-05,8.33258e-06,8
-4.95523e-05,5.03688e-05,2.4034e-05,-2.74673e-05,-1.78752e-05,-8.91765e-06,1.16983e-05,5.70733e-06,8
-3.54401e-05,6.72544e-05,2.49821e-05,-2.63907e-05,-1.60596e-05,-7.89028e-06,1.43507e-05,5.30105e-06,8
-2.84409e-05,5.57548e-05,2.11943e-05,-3.25512e-05,-1.10761e-05,-6.67509e-06,1.73031e-05,5.68446e-06,8
-2.84291e-05,3.08861e-05,1.41566e-05,-4.40355e-05,-8.85295e-07,-5.60947e-06,1.92779e-05,3.29566e-06,8
-3.12936e-05,1.00372e-05,9.30032e-06,-4.82534e-05,1.50352e-05,-5.94654e-06,2.10971e-05,4.06034e-07,8
-3.15185e-05,1.97967e-06,6.25596e-06,-3.31376e-05,3.12257e-05,-7.25638e-06,2.10028e-05,7.01359e-07,8
-2.72705e-05,5.51883e-06,3.6776e-06,-3.23347e-06,4.2376e-05,-6.95668e-06,1.85726e-05,2.91658e-06,8
-2.442e-05,9.39214e-06,1.87665e-06,2.66422e-05,4.66962e-05,-6.62801e-06,1.6463e-05,3.91431e-06,8
-2.56734e-05,5.59864e-06,8.48588e-07,4.28217e-05,4.39432e-05,-7.29378e-06,1.66821e-05,3.66779e-06,8
-2.40052e-05,8.64246e-08,-4.11822e-08,3.83141e-05,3.60427e-05,-8.57149e-06,1.83099e-05,3.13273e-06,8
-9.86625e-06,-1.78329e-07,-6.57141e-07,1.99887e-05,2.62283e-05,-8.98122e-06,1.89305e-05,3.52357e-06,8
1.42997e-05,3.91471e-06,-1.54139e-06,4.52186e-06,1.45766e-05,-7.27716e-06,1.73089e-05,3.21654e-06,8
3.20183e-05,1.02529e-05,-3.75831e-06,1.42383e-06,-1.10872e-06,-5.1233e-06,1.57915e-05,2.4903e-06,8
3.13977e-05,1.57369e-05,-7.33221e-06,6.08261e-06,-1.4237e-05,-4.18456e-06,1.58244e-05,2.16929e-06,8
1.66945e-05,1.82011e-05,-1.21582e-05,1.13066e-05,-1.36454e-05,-4.25868e-06,1.37508e-05,2.27978e-06,8
-3.90647e-06,1.68409e-05,-1.61368e-05,1.44847e-05,1.3899e-06,-4.56998e-06,9.90322e-06,3.72763e-06,8
-2.50629e-05,1.55091e-05,-1.73847e-05,1.68648e-05,2.08105e-05,-5.56506e-06,8.44328e-06,6.00501e-06,8
-4.79342e-05,1.54701e-05,-1.42167e-05,1.98584e-05,3.5165e-05,-7.47907e-06,9.37624e-06,8.48327e-06,8
-7.2112e-05,1.35011e-05,-8.50833e-06,2.27736e-05,4.41508e-05,-1.02401e-05,9.83054e-06,1.10905e-05,8
-8.80318e-05,8.67833e-06,-4.40989e-06,1.96376e-05,4.94291e-05,-1.15766e-05,8.18033e-06,1.17219e-05,8
-8.30397e-05,7.01901e-06,-2.46523e-06,3.8092e-06,4.45055e-05,-1.11316e-05,6.31333e-06,1.05558e-05,8
-5.87312e-05,1.15308e-05,-2.22157e-08,-1.72213e-05,2.49976e-05,-1.01245e-05,6.86465e-06,1.02073e-05,8
-3.45153e-05,2.02701e-05,2.77502e-06,-3.03648e-05,2.21383e-06,-7.74019e-06,9.21377e-06,9.63276e-06,8
-2.29664e-05,2.92934e-05,4.70763e-06,-3.54707e-05,-9.06272e-06,-5.7613e-06,9.54959e-06,9.36624e-06,8
-1.67758e-05,3.39324e-05,5.26797e-06,-3.55717e-05,-7.46174e-06,-4.84267e-06,6.66205e-06,9.28868e-06,8
-9.36071e-07,3.23486e-05,4.62823e-06,-3.09094e-05,-7.33395e-06,-2.61159e-06,4.95467e-06,9.71366e-06,8
1.93773e-05,2.38405e-05,3.33692e-06,-1.68855e-05,-2.2382e-05,-1.67526e-06,6.63277e-06,8.50975e-06,8
2.9082e-05,1.82518e-05,3.36757e-06,1.25931e-05,-4.32662e-05,-2.97665e-06,8.47683e-06,4.87119e-06,8
2.98309e-05,2.42382e-05,6.5515e-06,5.13045e-05,-4.54699e-05,-4.38175e-06,7.09735e-06,2.42026e-06,8
2.38234e-05,2.74727e-05,7.79888e-06,8.47425e-05,-2.67117e-05,-6.45421e-06,7.16429e-06,1.51434e-06,8
5.45832e-06,1.84911e-05,4.59164e-06,9.79857e-05,-5.29878e-06,-7.24157e-06,1.01942e-05,1.6657e-06,8
-3.07262e-05,4.56798e-06,-1.17198e-07,8.96382e-05,6.02738e-06,-6.85332e-06,1.293e-05,2.37057e-06,8
-7.77526e-05,-1.0167e-05,-5.37897e-06,6.66142e-05,5.49556e-06,-6.63833e-06,1.29962e-05,3.21794e-06,8
-0.000119191,-2.22254e-05,-1.03212e-05,3.78431e-05,2.77269e-06,-6.33602e-06,1.14378e-05,3.15095e-06,8
-0.000138858,-2.58328e-05,-1.21594e-05,1.55743e-05,7.45684e-06,-5.87829e-06,1.13646e-05,2.41398e-06,8
-0.000131661,-2.01217e-05,-9.16055e-06,6.75337e-06,1.85396e-05,-5.18672e-06,1.05085e-05,1.67001e-06,8
-0.000109881,-1.08189e-05,-4.7156e-06,8.7633e-06,3.22362e-05,-5.48999e-06,9.57102e-06,1.96161e-06,8
-8.77124e-05,-2.67616e-06,-1.67392e-06,7.42997e-06,4.4598e-05,-6.83512e-06,9.10377e-06,1.82345e-06,8
-6.96685e-05,8.14742e-06,-5.17687e-07,-6.71067e-06,5.05979e-05,-7.9127e-06,9.90318e-06,-7.38903e-07,8
-5.44953e-05,2.54417e-05,-1.10236e-06,-2.84052e-05,5.0275e-05,-8.21673e-06,1.16574e-05,-4.36052e-06,8
-4.28076e-05,4.1342e-05,-3.23713e-06,-4.41272e-05,4.66707e-05,-8.67691e-06,1.3037e-05,-6.84261e-06,8
-3.5281e-05,4.79662e-05,-5.98101e-06,-4.75277e-05,3.83817e-05,-1.01531e-05,1.26921e-05,-6.71421e-06,8
-3.15513e-05,4.55411e-05,-6.22354e-06,-4.35927e-05,2.13341e-05,-1.1719e-05,1.15752e-05,-5.00629e-06,8
-2.89254e-05,3.9493e-05,-6.88662e-07,-3.86323e-05,-1.92088e-06,-1.16436e-05,1.13619e-05,-3.11363e-06,8
-2.58343e-05,3.39259e-05,1.00119e-05,-3.44985e-05,-2.28011e-05,-1.10752e-05,1.08009e-05,-2.50679e-06,8
-2.33185e-05,2.58353e-05,1.89031e-05,-3.00197e-05,-3.78548e-05,-1.26011e-05,9.03234e-06,-2.40379e-06,8
-2.28676e-05,8.01914e-06,1.99961e-05,-2.58275e-05,-5.0595e-05,-1.40645e-05,7.92065e-06,-1.84008e-06,8
-2.30722e-05,-1.40685e-05,1.27043e-05,-2.6592e-05,-5.91412e-05,-1.34674e-05,9.21325e-06,-1.36892e-06,8
-2.27493e-05,-1.78689e-05,-7.80924e-07,-3.36293e-05,-5.62234e-05,-1.22827e-05,1.02351e-05,-1.54287e-06,8
-2.26121e-05,-3.13437e-06,-1.71631e-05,-3.75522e-05,-4.52668e-05,-1.09321e-05,8.95119e-06,-2.14684e-06,8
-2.29899e-05,9.61995e-06,-3.34894e-05,-3.36244e-05,-2.43659e-05,-9.99272e-06,5.86905e-06,-2.80479e-06,8
-1.98631e-05,1.43382e-05,-4.45681e-05,-2.83476e-05,1.04251e-05,-9.56312e-06,4.1816e-06,-4.53496e-06,8
-1.44665e-05,1.29143e-05,-4.66787e-05,-2.64577e-05,4.73927e-05,-9.30144e-06,4.73015e-06,-5.92084e-06,8
-1.24241e-05,6.16832e-06,-4.19959e-05,-2.97457e-05,9.19587e-05,-8.18191e-06,6.22238e-06,-6.31484e-06,8
-1.13873e-05,-1.56342e-06,-3.07586e-05,-3.59575e-05,0.000131829,-6.16686e-06,7.6524e-06,-6.79452e-06,8
-1.01451e-05,-2.02971e-06,-1.46804e-05,-3.64055e-05,0.000128938,-5.46514e-06,9.33246e-06,-5.82794e-06,8
-1.02121e-05,5.44193e-06,-4.78151e-07,-2.78467e-05,8.54335e-05,-7.17509e-06,1.07306e-05,-5.57801e-06,8
-1.18543e-05,2.28e-05,1.13037e-05,-1.10728e-05,3.70405e-05,-1.02706e-05,1.09828e-05,-6.95939e-06,8
-1.53295e-05,4.78748e-05,2.57301e-05,7.82015e-06,1.35128e-05,-1.23626e-05,1.101e-05,-8.01948e-06,8
-2.04097e-05,6.57644e-05,4.48279e-05,2.09487e-05,1.33974e-05,-1.13902e-05,1.05913e-05,-7.55533e-06,8
-2.37977e-05,6.34177e-05,6.62724e-05,2.68226e-05,1.72199e-05,-9.47956e-06,1.13102e-05,-5.88469e-06,8
-2.35245e-05,4.88897e-05,8.31975e-05,2.66281e-05,1.86689e-05,-1.02185e-05,1.34499e-05,-3.04643e-06,8
-2.10187e-05,3.96137e-05,8.75795e-05,2.31156e-05,2.43347e-05,-1.35532e-05,1.50897e-05,2.97131e-06,8
-1.79125e-05,3.68198e-05,7.13746e-05,2.02538e-05,3.38377e-05,-1.67979e-05,1.54748e-05,1.19483e-05,8
-1.51608e-05,3.34226e-05,3.3069e-05,2.07233e-05,3.87838e-05,-1.72254e-05,1.49748e-05,1.87523e-05,8
-1.37517e-05,2.80772e-05,-1.77661e-05,2.22379e-05,3.47352e-05,-1.49429e-05,1.45599e-05,1.85725e-05,8
-1.50526e-05,2.7477e-05,-6.83103e-05,2.19805e-05,2.37774e-05,-1.2138e-05,1.49051e-05,1.3039e-05,8
-1.80911e-05,3.04074e-05,-0.000107117,2.02272e-05,1.08651e-05,-1.06028e-05,1.65766e-05,4.5264e-06,8
-2.04235e-05,3.02853e-05,-0.000126912,1.76642e-05,1.17449e-06,-9.83021e-06,1.78973e-05,-4.34846e-06,8
-2.15621e-05,2.24851e-05,-0.000127903,1.41523e-05,-5.698e-06,-9.10846e-06,1.6426e-05,-1.14751e-05,8
-2.49212e-05,5.72256e-06,-0.000116183,9.80587e-06,-1.36291e-05,-7.6935e-06,1.33123e-05,-1.53645e-05,8
-3.18932e-05,-1.99785e-05,-9.76217e-05,3.10525e-06,-2.01588e-05,-6.80523e-06,1.22006e-05,-1.58561e-05,8
-3.37216e-05,-4.18002e-05,-7.84075e-05,-7.73847e-06,-2.12274e-05,-7.62588e-06,1.3696e-05,-1.40169e-05,8
-2.44987e-05,-4.56507e-05,-6.34701e-05,-2.196e-05,-1.54953e-05,-7.49036e-06,1.45833e-05,-1.26247e-05,8
-1.32655e-05,-3.10616e-05,-5.05655e-05,-3.70962e-05,-3.07401e-06,-4.86857e-06,1.39131e-05,-1.2506e-05,8
-1.02581e-05,1.82028e-06,-3.45981e-05,-4.76183e-05,8.79749e-06,-3.59019e-06,1.34662e-05,-1.09392e-05,8
-1.52119e-05,3.47726e-05,-1.93536e-05,-4.55243e-05,4.71539e-06,-6.66814e-06,1.20632e-05,-8.38792e-06,8
-2.06997e-05,3.33439e-05,-9.41015e-06,-3.59142e-05,-1.24477e-05,-1.06299e-05,1.04545e-05,-7.7896e-06,8
-2.3672e-05,-3.29497e-06,-1.86557e-06,-3.30355e-05,-2.18727e-05,-1.11385e-05,1.05071e-05,-7.6987e-06,8
-3.04502e-05,-2.83452e-05,4.38839e-06,-3.57998e-05,-1.28633e-05,-9.8065e-06,1.11521e-05,-5.9871e-06,8
-3.73173e-05,-1.67175e-05,9.16518e-06,-2.95189e-05,1.25562e-05,-1.02239e-05,1.05406e-05,-4.6645e-06,8
-3.01e-05,1.54542e-05,1.13732e-05,-1.33438e-05,4.39016e-05,-1.25718e-05,1.0312e-05,-4.63005e-06,8
-1.23637e-05,4.6598e-05,1.20278e-05,-1.75476e-06,6.58473e-05,-1.55924e-05,9.69816e-06,-3.69164e-06,8
-9.04897e-07,5.34081e-05,1.30056e-05,-2.91206e-06,6.5767e-05,-1.75112e-05,6.66689e-06,-2.22661e-07,8
-3.03118e-06,4.0731e-05,1.44488e-05,-8.66421e-06,4.86131e-05,-1.66276e-05,5.38663e-06,3.67217e-06,8
-1.66016e-05,2.91855e-05,1.39128e-05,-1.51034e-06,2.67516e-05,-1.35565e-05,6.22461e-06,6.39911e-06,8
-3.55885e-05,2.43112e-05,1.04827e-05,2.22559e-05,6.58672e-06,-1.24565e-05,8.12355e-06,6.88814e-06,8
-5.47941e-05,1.82509e-05,8.95604e-06,4.96815e-05,-1.02517e-05,-1.33801e-05,9.84873e-06,4.64822e-06,8
-7.10975e-05,6.65919e-06,1.02853e-05,6.4156e-05,-2.0243e-05,-1.34106e-05,1.1971e-05,2.17504e-06,8
-7.94623e-05,8.08157e-08,1.13894e-05,5.76424e-05,-1.72212e-05,-1.2018e-05,1.46177e-05,2.48349e-06,8
-7.2942e-05,4.28044e-06,6.10596e-06,3.06958e-05,-3.40428e-06,-1.15922e-05,1.53913e-05,4.39877e-06,8
-5.4577e-05,1.27651e-05,-7.60798e-06,-8.33878e-06,1.06806e-05,-1.38296e-05,1.34524e-05,4.62235e-06,8
-3.76163e-05,1.66447e-05,-2.42714e-05,-4.19e-05,1.69051e-05,-1.64763e-05,1.10619e-05,2.96521e-06,8
-2.83304e-05,1.63048e-05,-3.59355e-05,-5.24917e-05,1.63576e-05,-1.69275e-05,9.96804e-06,1.48781e-06,8
-2.41027e-05,1.38884e-05,-3.57243e-05,-4.25205e-05,1.41194e-05,-1.5428e-05,9.67655e-06,1.48215e-06,8
-2.15541e-05,1.05323e-05,-2.18093e-05,-3.14991e-05,1.5757e-05,-1.39652e-05,1.07593e-05,2.25108e-06,8
-2.02162e-05,4.96444e-06,-2.5233e-06,-2.88365e-05,2.3222e-05,-1.35308e-05,1.23158e-05,3.33236e-06,8
-2.17941e-05,-2.65212e-06,1.0956e-05,-2.64351e-05,4.77282e-05,-1.68571e-05,1.33288e-05,4.40066e-06,8
-3.03599e-05,-6.74358e-06,1.68115e-05,-1.46633e-05,0.00010352,-2.71573e-05,1.32913e-05,5.82652e-06,8
-4.21031e-05,-1.33235e-06,1.96758e-05,7.65325e-06,0.000155785,-4.03897e-05,1.21008e-05,7.4649e-06,8
-4.43028e-05,9.68633e-06,2.52916e-05,3.26292e-05,0.000141684,-3.99641e-05,1.05628e-05,7.47432e-06,8
-3.71085e-05,1.58871e-05,3.39291e-05,4.71548e-05,6.99748e-05,-9.48333e-06,1.00193e-05,6.89492e-06,8
-3.25795e-05,1.25643e-05,3.91731e-05,4.57742e-05,8.6354e-06,2.84363e-05,9.55395e-06,8.78141e-06,8
-3.2164e-05,4.38381e-06,3.70469e-05,3.40376e-05,-1.39569e-05,3.48537e-05,8.9632e-06,1.15423e-05,8
-2.7223e-05,-8.7202e-07,2.65637e-05,2.34943e-05,-2.65524e-05,1.75178e-05,1.09238e-05,1.07302e-05,8
-1.45565e-05,2.2844e-06,3.78219e-06,1.16092e-05,-5.18673e-05,3.52533e-06,1.60401e-05,7.82005e-06,8
-2.39378e-06,1.18232e-05,-2.24989e-05,-7.00556e-06,-7.80497e-05,1.89866e-06,1.89298e-05,6.55026e-06,8
3.43065e-06,1.91018e-05,-4.09536e-05,-2.32741e-05,-9.10181e-05,5.77816e-06,1.81512e-05,6.44904e-06,8
4.90306e-06,2.15341e-05,-4.92714e-05,-3.22608e-05,-8.96434e-05,6.92361e-06,1.71514e-05,6.94581e-06,8
3.72275e-06,2.24189e-05,-4.70403e-05,-3.8253e-05,-8.36755e-05,4.00808e-06,1.82996e-05,6.87181e-06,8
-2.62337e-06,2.29632e-05,-4.04386e-05,-4.32241e-05,-7.76369e-05,-2.27959e-06,2.14338e-05,5.05543e-06,8
-1.83599e-05,1.82742e-05,-3.16458e-05,-4.90037e-05,-6.0565e-05,-8.7519e-06,2.31723e-05,4.0447e-06,8
-4.05374e-05,5.48755e-06,-2.06101e-05,-5.53745e-05,-2.69513e-05,-1.2062e-05,2.30966e-05,2.95762e-06,8
-6.45885e-05,-8.05619e-06,-1.10973e-05,-5.8465e-05,2.17042e-05,-1.2536e-05,2.15357e-05,6.06457e-07,8
-8.16862e-05,-1.48969e-05,-9.21651e-06,-5.53415e-05,6.27149e-05,-1.25419e-05,1.94741e-05,-1.91963e-06,8
-8.25597e-05,-1.47665e-05,-1.75799e-05,-4.40435e-05,7.10658e-05,-1.22062e-05,1.74999e-05,-4.5464e-06,8
-6.88838e-05,-9.49199e-06,-3.1369e-05,-2.80474e-05,5.08431e-05,-1.13813e-05,1.53506e-05,-8.64491e-06,8
-5.16708e-05,-4.89034e-06,-4.24463e-05,-1.81674e-05,2.25057e-05,-9.47414e-06,1.41235e-05,-1.4759e-05,8
-3.99556e-05,-5.59744e-06,-4.33692e-05,-1.98401e-05,2.31595e-06,-7.89592e-06,1.39236e-05,-1.99015e-05,8
-3.32651e-05,-1.10727e-05,-3.43105e-05,-2.15698e-05,-8.70421e-06,-7.24545e-06,1.38726e-05,-2.10702e-05,8
-2.76301e-05,-1.60764e-05,-2.24081e-05,-1.29072e-05,-1.14645e-05,-7.24326e-06,1.34582e-05,-1.68385e-05,8
-2.2356e-05,-1.50053e-05,-1.34255e-05,3.18823e-06,-8.23785e-06,-6.97207e-06,1.31799e-05,-9.37952e-06,8
-2.13939e-05,-8.01312e-06,-8.12654e-06,1.96186e-05,-3.27959e-06,-5.67056e-06,1.38389e-05,-2.73104e-06,8
-2.66853e-05,6.65215e-07,-6.41877e-06,3.41823e-05,-1.44657e-07,-5.21677e-06,1.4909e-05,8.88933e-07,8
-3.46948e-05,9.02289e-06,-6.60775e-06,4.46558e-05,3.51276e-06,-6.9687e-06,1.61469e-05,2.63036e-06,8
-3.90446e-05,1.27155e-05,-5.85441e-06,4.79443e-05,8.94432e-06,-1.00405e-05,1.77381e-05,3.89685e-06,8
-3.76905e-05,1.03999e-05,-4.75942e-06,4.16341e-05,1.32094e-05,-1.21826e-05,1.85213e-05,5.23815e-06,8
-3.39228e-05,8.05447e-06,-5.26074e-06,2.73831e-05,1.32575e-05,-1.23161e-05,1.79711e-05,6.63992e-06,8
-3.27681e-05,6.77267e-06,-4.50309e-06,1.32525e-05,1.58273e-05,-1.26221e-05,1.67068e-05,7.7067e-06,8
-3.28606e-05,6.31093e-06,-1.13711e-06,2.77566e-06,2.55426e-05,-1.55442e-05,1.6282e-05,6.97448e-06,8
-2.99089e-05,9.25723e-06,2.37089e-06,-5.43964e-06,3.44059e-05,-1.80184e-05,1.684e-05,4.45087e-06,8
-2.62699e-05,1.6363e-05,5.02005e-06,-1.23337e-05,3.45919e-05,-1.85179e-05,1.61509e-05,3.69444e-06,8
-2.44441e-05,2.4046e-05,7.26594e-06,-1.92975e-05,2.24178e-05,-1.80295e-05,1.40042e-05,5.3561e-06,8
-2.14895e-05,3.01861e-05,1.08097e-05,-2.32938e-05,6.81544e-06,-1.65599e-05,1.31744e-05,5.69143e-06,8
-1.67305e-05,3.63201e-05,1.88463e-05,-1.93533e-05,-6.60511e-06,-1.67759e-05,1.35986e-05,4.52812e-06,8
-1.42092e-05,4.07772e-05,3.05701e-05,-8.75264e-06,-1.24693e-05,-1.88917e-05,1.38151e-05,3.59072e-06,8
-1.57929e-05,4.35422e-05,4.22354e-05,4.33492e-06,-2.69942e-06,-2.11615e-05,1.282e-05,3.62779e-06,8
-1.96668e-05,4.39573e-05,5.34576e-05,1.81359e-05,1.35988e-05,-2.25193e-05,1.04906e-05,3.6388e-06,8
-2.17154e-05,4.06905e-05,6.2543e-05,3.07615e-05,2.9174e-05,-2.31683e-05,9.53393e-06,1.95079e-06,8
-2.29601e-05,3.79057e-05,6.48696e-05,4.00306e-05,3.82913e-05,-2.39689e-05,9.40931e-06,5.83497e-07,8
-2.69779e-05,3.32981e-05,5.46961e-05,4.5093e-05,3.61697e-05,-2.33089e-05,8.90386e-06,-4.38095e-07,8
-3.03746e-05,2.55187e-05,3.15568e-05,4.70755e-05,2.79735e-05,-1.8652e-05,9.44848e-06,-5.06344e-07,8
-2.78095e-05,1.94002e-05,1.81669e-06,4.75224e-05,1.97683e-05,-1.24135e-05,1.11719e-05,-2.00605e-07,8
-1.97904e-05,1.64392e-05,-2.44898e-05,4.48836e-05,1.09165e-05,-9.577e-06,1.18306e-05,-8.6976e-07,8
-1.24346e-05,1.33414e-05,-4.10869e-05,3.7082e-05,1.41829e-06,-1.15106e-05,1.27304e-05,-1.24051e-06,8
-8.8644e-06,6.59866e-06,-4.73123e-05,2.51144e-05,4.49244e-07,-1.56051e-05,1.50779e-05,-1.12631e-06,8
-3.84702e-06,-8.14819e-07,-4.62154e-05,1.0732e-05,1.45071e-05,-1.61205e-05,1.65696e-05,-4.64036e-07,8
4.44825e-06,-3.7365e-06,-4.0812e-05,-5.20635e-06,3.67366e-05,-1.24909e-05,1.61762e-05,9.56867e-07,8
9.0996e-06,-3.59655e-06,-3.21315e-05,-2.24331e-05,4.75168e-05,-1.01703e-05,1.43915e-05,2.15261e-06,8
3.24505e-06,-5.50767e-06,-2.2345e-05,-4.16821e-05,4.27736e-05,-1.24392e-05,1.19086e-05,1.59946e-06,8
-1.16418e-05,-8.15548e-06,-1.59136e-05,-6.00251e-05,3.86319e-05,-1.54419e-05,9.91474e-06,-1.35238e-09,8
-2.41107e-05,-9.28349e-06,-1.48316e-05,-7.305e-05,4.33196e-05,-1.51385e-05,1.04718e-05,-2.01139e-07,8
-2.6801e-05,-1.29878e-05,-1.5891e-05,-8.09613e-05,4.35067e-05,-1.31681e-05,1.32754e-05,1.93898e-06,8
-2.6557e-05,-2.06016e-05,-1.69876e-05,-8.84507e-05,2.8384e-05,-1.30891e-05,1.57297e-05,3.14851e-06,8
-3.3143e-05,-2.91917e-05,-1.95813e-05,-9.11096e-05,1.73427e-05,-1.40325e-05,1.56887e-05,1.75783e-06,8
-4.57881e-05,-3.27437e-05,-2.52376e-05,-7.52997e-05,3.67774e-05,-1.30435e-05,1.37369e-05,-4.14053e-07,8
-5.25519e-05,-1.84747e-05,-2.86332e-05,-3.82061e-05,7.32621e-05,-1.00312e-05,1.07428e-05,-1.63386e-06,8
-4.97273e-05,1.29623e-05,-2.84672e-05,-9.32544e-07,8.95984e-05,-7.98321e-06,9.27554e-06,-2.32504e-06,8
-5.27474e-05,4.14043e-05,-2.85853e-05,1.39069e-05,7.06571e-05,-8.56049e-06,1.03885e-05,-2.37082e-06,8
-7.73632e-05,4.87032e-05,-3.17994e-05,9.85655e-06,2.83183e-05,-1.20027e-05,1.15432e-05,1.65332e-06,8
-0.000105319,3.51766e-05,-3.60341e-05,-3.19496e-06,-8.4786e-06,-1.46412e-05,1.18784e-05,1.94973e-05,8
-0.000104109,1.92421e-05,-3.62116e-05,-1.96752e-05,-2.50882e-05,-1.24781e-05,1.09213e-05,5.08559e-05,8
-7.84344e-05,1.74668e-05,-3.15929e-05,-2.9963e-05,-3.1665e-05,-8.13642e-06,9.79098e-06,6.88441e-05,8
-4.89695e-05,3.33415e-05,-2.50739e-05,-3.19069e-05,-4.05035e-05,-4.85161e-06,8.96078e-06,6.20309e-05,8
-2.92715e-05,5.43385e-05,-2.03175e-05,-3.04711e-05,-6.10581e-05,-5.5826e-06,7.75099e-06,3.99627e-05,8
-1.91333e-05,6.70855e-05,-1.72832e-05,-2.83847e-05,-7.7864e-05,-9.46523e-06,6.82404e-06,7.70448e-06,8
-1.20532e-05,6.50987e-05,-1.42409e-05,-2.60019e-05,-7.26077e-05,-1.3222e-05,6.59331e-06,-2.67885e-05,8
-1.01965e-05,4.55604e-05,-1.04643e-05,-2.38413e-05,-4.44477e-05,-1.40104e-05,7.64409e-06,-5.17325e-05,8
-1.78732e-05,1.49682e-05,-7.62785e-06,-2.47077e-05,6.87752e-07,-1.17927e-05,7.23849e-06,-6.03601e-05,8
-3.27713e-05,-1.356e-05,-7.21655e-06,-2.4404e-05,4.91979e-05,-8.43894e-06,5.87318e-06,-5.88589e-05,8
-4.62132e-05,-3.03104e-05,-7.99685e-06,-1.33447e-05,8.09663e-05,-6.28403e-06,5.73235e-06,-5.55032e-05,8
-5.47075e-05,-4.17925e-05,-7.60196e-06,9.33069e-06,8.09078e-05,-6.40647e-06,6.23869e-06,-5.12788e-05,8
-5.83731e-05,-5.43031e-05,-6.74814e-06,3.44704e-05,5.72843e-05,-9.03973e-06,5.94356e-06,-4.25164e-05,8
-5.89376e-05,-5.79176e-05,-5.69062e-06,5.14574e-05,2.87347e-05,-1.19469e-05,4.55763e-06,-2.83161e-05,8
-5.60078e-05,-4.42508e-05,-2.1683e-06,5.55515e-05,1.07726e-05,-1.16745e-05,4.39389e-06,-1.42334e-05,8
-4.9127e-05,-2.30624e-05,3.2158e-06,4.73481e-05,5.09051e-06,-8.88961e-06,6.16828e-06,-5.77628e-06,8
-3.85137e-05,-8.01591e-06,7.4847e-06,3.18806e-05,6.62008e-06,-6.21572e-06,8.71869e-06,-2.40858e-06,8
-2.83569e-05,-3.20381e-06,1.02101e-05,1.63305e-05,9.63827e-06,-5.80973e-06,9.76098e-06,3.3836e-07,8
-2.39374e-05,-6.65908e-06,1.15793e-05,6.71235e-06,1.34077e-05,-4.87283e-06,1.02319e-05,4.56279e-06,8
-2.45012e-05,-1.08324e-05,1.17254e-05,3.97507e-06,1.62471e-05,-1.21235e-06,1.16921e-05,8.18445e-06,8
-2.53773e-05,-8.39995e-06,1.26097e-05,3.39606e-06,1.79176e-05,1.60948e-06,1.42182e-05,1.05389e-05,8
-2.32647e-05,-2.55684e-06,1.48521e-05,-9.43538e-07,1.9929e-05,2.55773e-06,1.65346e-05,1.37598e-05,8
-2.09649e-05,-1.78565e-06,1.81856e-05,-1.05846e-05,2.0712e-05,5.39203e-06,1.79678e-05,1.5005e-05,8
-2.03861e-05,-3.22006e-06,2.41534e-05,-1.78532e-05,2.10619e-05,1.03159e-05,1.84796e-05,1.19661e-05,8
-2.06705e-05,2.59213e-06,3.29709e-05,-1.73618e-05,2.20982e-05,1.3011e-05,1.74191e-05,8.56818e-06,8
-2.01758e-05,1.4387e-05,3.97142e-05,-1.7811e-05,1.98405e-05,9.74243e-06,1.58462e-05,5.57631e-06,8
-1.74972e-05,2.23382e-05,4.01664e-05,-2.25329e-05,9.81405e-06,3.04788e-06,1.58537e-05,2.5776e-06,8
-1.48354e-05,2.10814e-05,3.3158e-05,-1.99195e-05,-3.0092e-06,-2.4223e-06,1.57612e-05,2.29825e-06,8
-1.27411e-05,1.68664e-05,1.99792e-05,-1.12071e-05,-1.25537e-05,-7.48755e-06,1.56242e-05,4.07679e-06,8
-9.8425e-06,1.69963e-05,3.67065e-06,-1.15244e-05,-1.52072e-05,-1.37497e-05,1.57685e-05,4.0998e-06,8
-9.3071e-06,2.05802e-05,-1.21174e-05,-2.41637e-05,-1.01364e-05,-1.86291e-05,1.57352e-05,3.4888e-06,8
-1.33976e-05,2.17008e-05,-2.62654e-05,-2.9831e-05,-1.22723e-06,-2.15636e-05,1.53939e-05,4.27063e-06,8
-1.96134e-05,1.87173e-05,-3.74259e-05,-1.08006e-05,7.66198e-06,-2.54248e-05,1.43386e-05,3.92078e-06,8
-2.34737e-05,1.69584e-05,-4.0372e-05,2.8766e-05,1.59943e-05,-2.90923e-05,1.43476e-05,1.20122e-06,8
-2.47317e-05,1.68822e-05,-3.27188e-05,6.97807e-05,2.47775e-05,-2.68719e-05,1.42135e-05,-1.0903e-06,8
-2.46704e-05,1.90813e-05,-1.83217e-05,9.03478e-05,3.73913e-05,-1.90307e-05,1.44808e-05,-6.39105e-07,8
-2.32621e-05,2.37502e-05,-3.66225e-06,8.33937e-05,5.38555e-05,-1.27408e-05,1.44302e-05,7.93315e-07,8
-2.18202e-05,3.09675e-05,6.97291e-06,5.57837e-05,6.63698e-05,-1.13928e-05,1.3357e-05,2.50262e-06,8
-2.14702e-05,3.86049e-05,1.24981e-05,2.22984e-05,6.52427e-05,-1.2544e-05,1.17409e-05,4.29718e-06,8
-2.0942e-05,4.52756e-05,1.41548e-05,1.12306e-06,5.23801e-05,-1.28171e-05,1.02571e-05,5.26223e-06,8
-1.85498e-05,5.13406e-05,1.22631e-05,-3.20732e-06,3.86445e-05,-1.0441e-05,9.30894e-06,5.31657e-06,8
-1.45899e-05,5.35612e-05,7.12586e-06,-6.64003e-07,3.01208e-05,-6.4265e-06,9.45343e-06,5.19534e-06,8
-9.36495e-06,5.0574e-05,-2.59577e-06,-1.95637e-07,2.37857e-05,-4.41508e-06,1.07898e-05,5.43513e-06,8
-3.3184e-06,4.13258e-05,-1.74299e-05,-1.64643e-06,1.45062e-05,-5.28899e-06,1.16294e-05,5.8823e-06,8
9.16902e-07,2.69107e-05,-3.37128e-05,-9.42806e-07,2.09954e-06,-7.16784e-06,1.11816e-05,5.6595e-06,8
1.30489e-06,1.51304e-05,-4.70828e-05,2.26522e-06,-8.03631e-06,-7.74373e-06,1.05235e-05,4.13488e-06,8
2.86196e-06,1.46999e-05,-5.57531e-05,4.07918e-06,-1.2367e-05,-6.4609e-06,1.06189e-05,2.58601e-06,8
1.13225e-05,2.05801e-05,-5.82682e-05,-6.65608e-07,-1.2633e-05,-6.56222e-06,1.07191e-05,2.52377e-06,8
1.58172e-05,2.03654e-05,-5.28412e-05,-1.12852e-05,-1.54414e-05,-1.03882e-05,1.14495e-05,3.90283e-06,8
5.58095e-06,1.14585e-05,-4.27402e-05,-1.94231e-05,-1.98364e-05,-1.36848e-05,1.1313e-05,5.6344e-06,8
-1.12585e-05,1.09102e-06,-3.43017e-05,-2.06227e-05,-1.90613e-05,-1.28592e-05,1.09608e-05,6.45031e-06,8
-2.41378e-05,-1.09649e-05,-3.22389e-05,-2.04106e-05,-2.67578e-05,-9.82558e-06,1.19104e-05,5.31343e-06,8
-3.19609e-05,-2.26635e-05,-3.32611e-05,-2.12754e-05,-3.90285e-05,-8.61149e-06,1.35623e-05,4.07022e-06,8
-1.60806e-05,-6.33658e-05,-2.60852e-06,-6.80795e-06,-1.0164e-06,-1.06653e-05,1.14321e-05,-1.30343e-07,8
-1.54805e-05,-4.61222e-05,-4.89125e-06,-7.59686e-06,6.12302e-06,-1.04072e-05,9.88312e-06,-1.06526e-06,8
-6.25046e-06,-6.03467e-05,-7.01605e-06,-9.69082e-06,7.67396e-06,-1.06316e-05,9.94742e-06,8.66817e-07,8
8.97909e-07,-5.49418e-05,-7.7637e-06,-1.36501e-05,6.86233e-06,-1.35087e-05,1.10978e-05,2.01182e-06,8
4.21296e-07,-3.07134e-05,-5.79113e-06,-1.71053e-05,3.48771e-06,-1.77737e-05,1.22346e-05,1.2704e-06,8
-6.64155e-06,-3.28563e-06,-4.81896e-06,-1.79875e-05,6.22545e-07,-1.97896e-05,1.2969e-05,-1.93449e-07,8
-1.65415e-05,9.17709e-06,-8.60893e-06,-1.95042e-05,1.80922e-07,-1.82938e-05,1.5686e-05,-1.97521e-07,8
-2.69356e-05,1.57268e-05,-1.56326e-05,-2.39407e-05,3.81939e-06,-1.7252e-05,1.78626e-05,6.63684e-07,8
-3.83939e-05,2.30962e-05,-2.07592e-05,-2.84157e-05,2.85877e-05,-1.72481e-05,1.67964e-05,9.2123e-07,8
-4.79751e-05,2.95305e-05,-2.03799e-05,-2.82077e-05,8.69241e-05,-1.71734e-05,1.62619e-05,-1.26513e-06,8
-5.2303e-05,2.91888e-05,-1.64217e-05,-2.28079e-05,0.000137196,-1.70542e-05,1.79712e-05,-3.85324e-06,8
-4.99338e-05,1.4605e-05,-1.01e-05,-1.70097e-05,0.000122597,-1.83037e-05,1.8826e-05,-3.94959e-07,8
-3.72734e-05,-7.65893e-06,-2.86247e-06,-1.20337e-05,5.35699e-05,-2.11576e-05,1.85173e-05,8.96531e-06,8
-9.53345e-06,-1.64451e-05,4.22736e-06,-8.42052e-06,-1.07862e-05,-2.17611e-05,1.7871e-05,1.76672e-05,8
2.39644e-05,1.65558e-05,1.08007e-05,-6.81044e-06,-4.12165e-05,-1.88033e-05,1.59351e-05,1.97451e-05,8
3.87214e-05,8.3518e-05,1.70007e-05,-6.42827e-06,-5.72716e-05,-1.49306e-05,1.42881e-05,1.51017e-05,8
2.22275e-05,0.000143071,2.20928e-05,-6.3322e-06,-7.93945e-05,-1.3132e-05,1.4091e-05,7.60391e-06,8
-1.45203e-05,0.000157343,2.48826e-05,-4.57934e-06,-0.000101782,-1.22441e-05,1.48358e-05,2.00159e-06,8
-5.41971e-05,0.000131267,2.47e-05,7.84877e-09,-0.000106396,-1.01379e-05,1.46215e-05,-5.90835e-07,8
-8.41594e-05,9.68151e-05,2.04591e-05,6.38318e-06,-8.55611e-05,-6.60872e-06,1.45899e-05,-2.31713e-06,8
-9.15761e-05,6.9734e-05,1.23496e-05,1.15991e-05,-4.6176e-05,-3.91478e-06,1.46121e-05,-4.17467e-06,8
-7.25034e-05,3.82729e-05,-7.73795e-07,1.05545e-05,-7.70757e-06,-3.64008e-06,1.45959e-05,-4.54382e-06,8
-3.08934e-05,1.71348e-05,-1.94707e-05,-2.24527e-06,1.46995e-05,-4.36988e-06,1.45076e-05,-3.40598e-06,8
2.67086e-05,1.95562e-05,-3.96556e-05,-2.10239e-05,3.22856e-05,-3.75307e-06,1.39279e-05,-2.40371e-06,8
7.25356e-05,2.47906e-05,-5.32256e-05,-3.46533e-05,5.82473e-05,-1.88787e-06,1.30937e-05,-3.01477e-06,8
8.04615e-05,5.37633e-06,-5.48579e-05,-4.30192e-05,7.52274e-05,-8.26276e-07,1.12325e-05,-3.74441e-06,8
5.80224e-05,-3.94914e-05,-4.9691e-05,-5.18722e-05,6.92512e-05,-3.96537e-06,8.87272e-06,-2.90886e-06,8
2.29281e-05,-5.75521e-05,-4.27519e-05,-5.39542e-05,5.3773e-05,-1.06194e-05,9.01447e-06,-2.53206e-06,8
-3.1505e-06,-2.64631e-05,-3.31319e-05,-4.05104e-05,4.19836e-05,-1.28077e-05,1.04643e-05,-2.50916e-06,8
-1.75323e-05,7.79865e-07,-2.33594e-05,-1.18231e-05,3.13781e-05,-1.03414e-05,1.09901e-05,-1.76229e-06,8
-3.31032e-05,3.12699e-06,-1.59192e-05,2.72749e-05,2.03718e-05,-8.28568e-06,1.13586e-05,-1.50769e-06,8
-4.57188e-05,6.9946e-06,-1.54741e-05,6.07366e-05,1.59779e-05,-7.79395e-06,1.17669e-05,-9.758e-07,8
-4.96421e-05,1.90352e-05,-2.29221e-05,7.28091e-05,1.8695e-05,-8.29463e-06,1.14108e-05,1.58739e-06,8
-4.81833e-05,2.42918e-05,-3.04269e-05,6.21422e-05,2.04877e-05,-8.91586e-06,9.6873e-06,3.4078e-06,8
-4.97299e-05,1.88811e-05,-3.12948e-05,3.96775e-05,1.35854e-05,-1.05099e-05,8.09499e-06,3.57946e-06,8
-5.57211e-05,1.83918e-05,-2.55442e-05,1.85773e-05,3.5411e-06,-1.18076e-05,7.11916e-06,2.74072e-06,8
-5.83526e-05,3.50707e-05,-1.78177e-05,1.06702e-05,-4.14971e-06,-1.03274e-05,8.16344e-06,1.86497e-06,8
-4.94925e-05,6.67376e-05,-1.19019e-05,1.63883e-05,-7.08207e-06,-6.65173e-06,1.03462e-05,4.79467e-07,8
-3.53992e-05,8.2417e-05,-7.69243e-06,2.61785e-05,-4.35621e-06,-4.09474e-06,1.04247e-05,-4.82948e-07,8
-2.36099e-05,5.44197e-05,-3.59868e-06,3.24263e-05,1.33086e-06,-4.30275e-06,8.33909e-06,-5.22118e-08,8
-1.67195e-05,5.73684e-06,-8.08223e-07,3.06397e-05,8.54791e-06,-6.17668e-06,5.61641e-06,4.03112e-07,8
-1.59283e-05,-1.53346e-05,3.42063e-07,2.07277e-05,1.48297e-05,-8.33415e-06,3.3608e-06,1.79366e-06,8
-1.90304e-05,1.81093e-06,1.59635e-06,7.4861e-06,1.6795e-05,-1.00087e-05,2.95313e-06,4.98641e-06,8
-2.4552e-05,3.868e-05,3.69179e-06,-1.35365e-06,1.50033e-05,-1.09556e-05,4.14166e-06,1.0386e-05,8
-3.42345e-05,7.63828e-05,5.03792e-06,-6.09603e-06,1.75094e-05,-1.16334e-05,5.57635e-06,1.56203e-05,8
-4.57826e-05,9.21128e-05,4.12132e-06,-1.25986e-05,3.06239e-05,-1.33591e-05,6.8997e-06,1.80689e-05,8
-4.90275e-05,6.39366e-05,1.93042e-06,-2.07627e-05,5.08889e-05,-1.47172e-05,8.1114e-06,1.7187e-05,8
-4.30086e-05,1.38522e-06,2.04232e-06,-2.34661e-05,6.3276e-05,-1.35958e-05,8.57202e-06,1.48828e-05,8
-3.65976e-05,-5.31521e-05,4.5912e-06,-1.80758e-05,6.01679e-05,-1.0731e-05,8.67181e-06,1.17807e-05,8
-3.55542e-05,-6.77048e-05,5.21296e-06,-1.15053e-05,4.96321e-05,-1.02592e-05,9.29191e-06,8.20661e-06,8
-3.32763e-05,-5.02627e-05,3.36234e-07,-1.33507e-05,4.15965e-05,-1.31851e-05,1.02427e-05,5.53488e-06,8
-2.75012e-05,-3.19052e-05,-6.1963e-06,-2.71648e-05,3.89179e-05,-1.50829e-05,1.1951e-05,4.0052e-06,8
-2.1574e-05,-1.6188e-05,-7.27247e-06,-3.86272e-05,4.03451e-05,-1.49298e-05,1.44518e-05,1.62733e-06,8
-9.80822e-06,1.08279e-06,-4.49097e-06,-2.88102e-05,4.26272e-05,-1.43496e-05,1.59191e-05,-2.16003e-06,8
5.40409e-06,2.34725e-05,-3.54866e-06,1.32376e-06,2.84519e-05,-1.22878e-05,1.51466e-05,-4.17293e-06,8
5.63968e-06,6.0138e-05,-7.09562e-06,2.93785e-05,3.31364e-06,-9.38281e-06,1.31938e-05,-4.34922e-06,8
-1.2949e-05,9.09296e-05,-1.21703e-05,4.11076e-05,-5.62921e-06,-8.14952e-06,1.2146e-05,-3.86127e-06,8
-4.3209e-05,8.76663e-05,-1.42585e-05,3.76755e-05,6.76067e-07,-9.15036e-06,1.10052e-05,-3.48795e-06,8
-7.26958e-05,4.06071e-05,-1.34796e-05,2.04345e-05,1.98516e-05,-1.20627e-05,1.06279e-05,-4.49984e-06,8
-9.00546e-05,-2.24303e-05,-1.00833e-05,-2.32393e-06,3.68548e-05,-1.50209e-05,1.17514e-05,-5.41588e-06,8
-0.000101284,-6.63543e-05,-6.52511e-06,-2.12794e-05,3.21343e-05,-1.66074e-05,1.20859e-05,-4.44988e-06,8
-0.000106353,-7.47019e-05,-5.91127e-06,-2.75524e-05,1.11336e-05,-1.73788e-05,1.27107e-05,-2.13915e-06,8
-9.63841e-05,-5.58984e-05,-7.31519e-06,-2.15745e-05,-8.48962e-06,-1.63014e-05,1.31247e-05,9.34494e-07,8
-7.2437e-05,-3.31752e-05,-7.94764e-06,-1.30742e-05,-1.01267e-05,-1.20434e-05,1.39002e-05,3.63595e-06,8
-4.9458e-05,-1.73126e-05,-5.74384e-06,-9.72729e-06,4.72521e-06,-6.44396e-06,1.44847e-05,4.36566e-06,8
-3.68488e-05,-7.27661e-06,-3.52744e-06,-8.85449e-06,9.76012e-06,-3.06809e-06,1.44707e-05,3.61302e-06,8
-3.25545e-05,4.44398e-07,-2.85753e-06,-4.33819e-06,-1.53547e-05,-4.13735e-06,1.52531e-05,2.49082e-06,8
-3.10785e-05,9.64921e-07,-3.69498e-06,2.29298e-06,-5.16879e-05,-8.08236e-06,1.56246e-05,1.48747e-06,8
-3.1159e-05,-4.69351e-06,-5.71019e-06,7.51944e-06,-6.84676e-05,-1.1783e-05,1.50539e-05,1.28614e-06,8
-3.35162e-05,-1.02449e-05,-6.94311e-06,8.28471e-06,-5.71642e-05,-1.22755e-05,1.50061e-05,1.82876e-06,8
-3.58209e-05,-7.4414e-06,-6.42831e-06,7.50142e-06,-3.53722e-05,-8.39903e-06,1.56427e-05,1.85773e-06,8
-3.64249e-05,5.09543e-06,-5.25232e-06,1.34259e-05,-1.60929e-05,-3.13793e-06,1.50219e-05,1.11432e-06,8
-3.51072e-05,2.39381e-05,-4.6914e-06,3.03966e-05,-1.9397e-06,-1.64435e-06,1.37236e-05,1.28318e-06,8
-3.19462e-05,4.01464e-05,-3.51057e-06,4.37767e-05,7.67431e-06,-4.34798e-06,1.26212e-05,2.96838e-06,8
-2.71716e-05,5.05382e-05,-9.07355e-07,3.92368e-05,1.44662e-05,-7.96195e-06,1.14685e-05,5.04238e-06,8
-2.29372e-05,6.20189e-05,1.12832e-06,2.30944e-05,2.00577e-05,-1.06744e-05,1.06549e-05,6.22663e-06,8
-2.17747e-05,8.97235e-05,2.77465e-07,1.0124e-05,2.44012e-05,-1.16853e-05,1.10578e-05,6.39315e-06,8
-2.32058e-05,0.000123862,-5.27036e-06,6.53386e-06,2.73083e-05,-1.15323e-05,1.19703e-05,5.60427e-06,8
-2.29561e-05,0.000122782,-1.26614e-05,8.98912e-06,3.23858e-05,-1.06791e-05,1.10221e-05,4.98728e-06,8
-1.9806e-05,9.96931e-05,-1.37786e-05,1.04487e-05,3.95519e-05,-9.2945e-06,9.16808e-06,4.81666e-06,8
-1.56341e-05,8.52047e-05,-7.49704e-06,5.46061e-06,4.10383e-05,-7.69282e-06,9.71824e-06,3.42061e-06,8
-1.36112e-05,3.0809e-05,-1.81605e-07,-1.22183e-05,3.82197e-05,-7.71171e-06,1.14237e-05,3.82195e-06,8
-1.20077e-05,-7.85503e-05,1.28847e-06,-3.63535e-05,3.999e-05,-7.90004e-06,1.22308e-05,7.12591e-06,8
-4.3508e-06,-0.000152383,-2.15768e-06,-5.24239e-05,4.94997e-05,-7.07957e-06,1.19989e-05,8.79175e-06,8
8.41681e-06,-0.000136223,-7.13651e-06,-6.08771e-05,6.53433e-05,-6.70614e-06,1.1142e-05,8.02839e-06,8
2.08853e-05,-7.15365e-05,-1.54321e-05,-6.93419e-05,8.4001e-05,-6.01206e-06,1.10727e-05,5.62758e-06,8
2.59696e-05,-1.72365e-05,-2.70506e-05,-7.6597e-05,9.96582e-05,-5.63438e-06,1.26654e-05,3.33517e-06,8
1.96451e-05,1.03533e-05,-3.50524e-05,-7.97832e-05,9.2999e-05,-4.67876e-06,1.50766e-05,1.77287e-06,8
5.94537e-06,2.69294e-05,-3.38088e-05,-7.74665e-05,5.70992e-05,-3.49177e-06,1.65543e-05,-7.59284e-07,8
-1.29226e-05,3.61916e-05,-2.66213e-05,-6.5792e-05,1.45267e-05,-3.39914e-06,1.58974e-05,-3.67658e-06,8
-3.4276e-05,3.45601e-05,-1.69069e-05,-4.89795e-05,-1.56995e-05,-4.6179e-06,1.43897e-05,-6.8537e-06,8
-5.8047e-05,3.23442e-05,-7.31855e-06,-3.20444e-05,-3.18917e-05,-6.99354e-06,1.29031e-05,-9.06913e-06,8
-7.81534e-05,4.23339e-05,-1.08546e-06,-1.99561e-05,-3.71983e-05,-8.71574e-06,1.17141e-05,-1.01885e-05,8
-8.34543e-05,5.32151e-05,2.27618e-07,-1.37851e-05,-3.73093e-05,-9.16631e-06,1.1901e-05,-1.049e-05,8
-7.58451e-05,2.48947e-05,-1.91879e-06,-1.18324e-05,-3.1979e-05,-9.26756e-06,1.28892e-05,-9.31321e-06,8
-6.49356e-05,-5.358e-05,-5.59748e-06,-1.1139e-05,-2.13815e-05,-1.03578e-05,1.3672e-05,-8.19354e-06,8
-5.56498e-05,-0.000125048,-8.98411e-06,-1.12464e-05,-1.08863e-05,-1.25039e-05,1.44189e-05,-6.52846e-06,8
-4.49733e-05,-0.000113791,-9.23126e-06,-1.24746e-05,-4.20863e-06,-1.55445e-05,1.56629e-05,-4.18056e-06,8
-3.46536e-05,-2.25566e-05,-6.20867e-06,-1.38027e-05,-5.93768e-07,-1.88036e-05,1.51686e-05,-3.3795e-06,8
-2.82729e-05,7.38212e-05,-3.78655e-06,-1.49964e-05,1.59797e-06,-2.01915e-05,1.28064e-05,-4.36035e-06,8
-2.41567e-05,0.000122379,-5.56905e-06,-1.57712e-05,3.15293e-06,-1.90313e-05,1.14929e-05,-3.83648e-06,8
-1.87449e-05,0.000128235,-9.41555e-06,-1.55205e-05,5.1876e-06,-1.69446e-05,1.2804e-05,-1.20803e-06,8
-1.45145e-05,0.000105005,-9.83535e-06,-1.35147e-05,8.56536e-06,-1.5047e-05,1.43647e-05,1.14879e-06,8
-1.73853e-05,4.90167e-05,-7.11427e-06,-1.09624e-05,1.3234e-05,-1.41104e-05,1.46723e-05,1.91523e-06,8
-2.73563e-05,-3.21995e-05,-6.07119e-06,-7.04279e-06,1.52535e-05,-1.41924e-05,1.69541e-05,9.47243e-07,8
-3.71316e-05,-9.74125e-05,-6.48244e-06,-7.98166e-09,1.35315e-05,-1.49211e-05,2.19846e-05,1.69263e-08,8
-4.13806e-05,-9.69785e-05,-4.84688e-06,1.04074e-05,8.89712e-06,-1.5884e-05,2.55665e-05,7.35806e-07,8
-4.13829e-05,-4.95241e-05,-1.75247e-06,1.81737e-05,2.78643e-06,-1.59957e-05,2.59224e-05,2.7078e-06,8
-4.35314e-05,-1.38602e-05,-2.95215e-06,2.11876e-05,-4.32458e-06,-1.53592e-05,2.40142e-05,3.7949e-06,8
-4.95111e-05,-2.14188e-05,-8.98492e-06,1.97126e-05,-9.32641e-06,-1.50739e-05,2.07551e-05,4.43638e-06,8
