ch1,ch2,ch3,ch4,ch5,ch6,ch7,ch8,class
2.53649e-05,4.94627e-05,-2.15622e-05,7.40989e-06,6.42888e-05,-5.35902e-06,1.36028e-05,5.06036e-06,8
3.72827e-05,4.85461e-05,-2.03532e-05,1.48197e-05,6.9111e-05,-6.62322e-06,1.38809e-05,3.73101e-06,8
3.43993e-05,3.98299e-05,-1.63427e-05,2.60227e-05,5.99515e-05,-3.32541e-06,1.37449e-05,2.14395e-06,8
1.62456e-05,2.05225e-05,-1.08603e-05,3.55621e-05,5.57129e-05,2.07416e-07,1.46661e-05,4.23332e-07,8
-1.29913e-05,-1.56909e-05,-8.92606e-06,2.7095e-05,4.20384e-05,-2.02071e-06,1.62508e-05,-1.12877e-06,8
-3.5696e-05,-4.92505e-05,-1.1305e-05,3.87141e-06,1.55803e-05,-8.87516e-06,1.48611e-05,-1.63957e-07,8
-4.81946e-05,-5.53028e-05,-1.60373e-05,-1.09996e-05,4.89546e-07,-1.62928e-05,1.22615e-05,1.65378e-06,8
-6.99808e-05,-5.00796e-05,-2.41742e-05,-2.25271e-05,1.31404e-05,-2.24993e-05,1.19442e-05,1.27014e-06,8
-9.83053e-05,-4.7992e-05,-2.9238e-05,-3.61067e-05,5.27753e-05,-2.67424e-05,1.11324e-05,-3.90509e-07,8
-0.000112388,-4.34188e-05,-2.63598e-05,-3.56708e-05,8.75949e-05,-2.7421e-05,9.57083e-06,-1.04375e-06,8
-0.000102242,-3.38283e-05,-1.8655e-05,-1.73663e-05,8.27477e-05,-2.48165e-05,1.05337e-05,-1.69003e-06,8
-7.99972e-05,-2.84939e-05,-1.12521e-05,5.97715e-06,4.08476e-05,-2.26233e-05,1.07474e-05,-2.72312e-06,8
-5.79069e-05,-2.91445e-05,-5.89363e-06,3.05718e-05,-2.3691e-06,-2.28244e-05,9.24393e-06,-2.02015e-06,8
-3.47573e-05,-2.44167e-05,5.01816e-07,5.74076e-05,-2.11513e-05,-2.10373e-05,7.09627e-06,-5.802e-07,8
3.50153e-07,-3.24677e-06,7.78909e-06,7.19648e-05,-1.64506e-05,-1.03903e-05,3.62589e-06,-3.04089e-07,8
4.22866e-05,2.81127e-05,1.21416e-05,5.85748e-05,8.92725e-06,3.85263e-06,3.12773e-08,-2.10915e-06,8
7.05314e-05,5.26642e-05,1.12766e-05,2.03373e-05,4.50189e-05,9.87899e-06,-1.39788e-06,-3.73105e-06,8
7.24163e-05,6.03396e-05,9.2358e-06,-2.56583e-05,6.74231e-05,5.33201e-06,2.14422e-07,-3.91312e-06,8
4.54142e-05,4.94627e-05,8.78798e-06,-5.89771e-05,5.38807e-05,-1.72978e-06,2.58998e-06,-3.14339e-06,8
-1.87531e-06,2.98312e-05,7.49735e-06,-6.39483e-05,1.50323e-05,-6.98899e-06,4.27318e-06,-2.70827e-06,8
-5.39215e-05,1.61273e-05,3.23331e-06,-4.26547e-05,-2.11173e-05,-1.31958e-05,5.06017e-06,-3.44557e-06,8
-9.98538e-05,1.46829e-05,-2.23959e-06,-1.3088e-05,-3.91777e-05,-1.91746e-05,4.15562e-06,-4.76642e-06,8
-0.000133538,2.03666e-05,-6.13235e-06,1.03167e-05,-4.13398e-05,-2.16374e-05,2.92203e-07,-5.96536e-06,8
-0.000141075,2.72158e-05,-7.12475e-06,2.60732e-05,-3.503e-05,-1.99528e-05,-5.1057e-06,-6.0512e-06,8
-0.000115844,2.28723e-05,-6.6363e-06,3.6293e-05,-2.5463e-05,-1.65496e-05,-9.13966e-06,-4.76804e-06,8
-7.37854e-05,-5.47432e-06,-5.67339e-06,3.74733e-05,-1.60444e-05,-1.43031e-05,-9.62453e-06,-2.90586e-06,8
-4.02982e-05,-4.25469e-05,-6.18384e-06,3.0883e-05,-8.527e-06,-1.35707e-05,-5.03285e-06,-1.18344e-06,8
-2.21054e-05,-4.64574e-05,-9.49946e-06,2.15847e-05,-3.13403e-06,-1.29075e-05,3.24694e-06,-1.81938e-07,8
-7.5807e-06,4.42776e-06,-1.19276e-05,9.6621e-06,2.47019e-06,-1.24606e-05,1.17668e-05,-2.56555e-07,8
1.70452e-05,7.97689e-05,-9.59752e-06,5.64558e-07,8.97484e-06,-1.09614e-05,1.75874e-05,2.00121e-07,8
4.86449e-05,0.000122324,-6.99659e-06,7.34172e-07,1.09501e-05,-8.18473e-06,2.16807e-05,1.4712e-07,8
6.44148e-05,0.000114092,-8.3212e-06,9.85848e-07,5.4861e-06,-8.19947e-06,2.62252e-05,-8.00261e-07,8
4.86729e-05,6.77929e-05,-9.14763e-06,-7.90879e-06,1.833e-06,-1.1739e-05,2.85132e-05,1.23269e-06,8
1.09549e-05,1.06722e-05,-6.82963e-06,-2.81658e-05,6.50652e-06,-1.35519e-05,2.68383e-05,2.61998e-06,8
-3.07982e-05,-1.88558e-05,-3.12583e-06,-5.65814e-05,1.73106e-05,-1.30423e-05,2.1385e-05,8.88986e-07,8
-7.06607e-05,-2.53401e-05,-2.15013e-06,-7.84875e-05,2.7885e-05,-1.22089e-05,1.28536e-05,-8.43513e-07,8
-0.00010923,-2.33051e-05,-3.50854e-06,-8.48418e-05,2.99267e-05,-1.3386e-05,6.52814e-06,-3.49631e-06,8
-0.00014102,3.03853e-07,-3.65987e-06,-8.40297e-05,2.19015e-05,-1.83712e-05,5.65074e-06,-5.13191e-06,8
-0.000146891,5.35774e-05,-1.05574e-06,-8.26121e-05,1.73913e-05,-2.1756e-05,8.90522e-06,-5.15304e-06,8
-0.000114603,0.000109181,3.3136e-06,-7.62782e-05,4.50916e-05,-1.89975e-05,1.38321e-05,-4.05538e-06,8
-6.13173e-05,0.000133372,8.01617e-06,-6.23436e-05,0.000103024,-1.26417e-05,1.71646e-05,-4.11559e-06,8
-1.78727e-05,0.000123176,1.35596e-05,-3.76184e-05,0.000131781,-7.85741e-06,1.441e-05,-4.96521e-06,8
7.85501e-07,0.000100086,1.84335e-05,-9.62299e-06,9.43442e-05,-6.34045e-06,5.98358e-06,-4.71756e-06,8
-2.68962e-07,7.0201e-05,2.16433e-05,3.75752e-06,3.00145e-05,-8.24246e-06,-3.57679e-06,-3.83351e-06,8
-1.47428e-05,6.67343e-06,2.16257e-05,8.04393e-06,-1.79541e-06,-1.20649e-05,-1.17248e-05,1.73658e-06,8
-3.85414e-05,-9.4704e-05,1.69067e-05,3.27528e-05,3.21797e-07,-1.4562e-05,-1.44879e-05,1.25127e-05,8
-5.98021e-05,-0.000182403,9.28792e-06,8.26491e-05,-1.51743e-06,-1.4581e-05,-9.70593e-06,2.01186e-05,8
-6.47447e-05,-0.000205773,2.89644e-06,0.00011823,-2.12726e-05,-1.43491e-05,7.96895e-07,1.69657e-05,8
-5.21392e-05,-0.000167126,9.55611e-07,0.000110824,-4.3121e-05,-1.34944e-05,1.55381e-05,6.73097e-06,8
-3.37338e-05,-0.000100164,2.26653e-06,7.46758e-05,-5.25144e-05,-1.07576e-05,3.23635e-05,-2.1794e-06,8
-1.99023e-05,-3.86987e-05,4.42486e-06,3.39368e-05,-4.73853e-05,-7.76813e-06,4.61062e-05,-5.63785e-06,8
-1.28182e-05,4.403e-06,6.65369e-06,2.14817e-06,-3.2531e-05,-6.0977e-06,4.95784e-05,-6.02617e-06,8
-9.71379e-06,3.58448e-05,8.00942e-06,-1.26322e-05,-1.9552e-05,-5.94861e-06,3.58745e-05,-5.21836e-06,8
-8.47057e-06,5.74648e-05,5.11403e-06,-1.3451e-05,-1.44744e-05,-8.09996e-06,1.3482e-05,-3.92673e-06,8
-9.63835e-06,6.00758e-05,-1.60923e-06,-1.18066e-05,-1.66522e-05,-1.29175e-05,-4.2897e-07,-2.77701e-06,8
-1.46067e-05,4.64039e-05,-7.39139e-06,-1.76773e-05,-3.21514e-05,-1.64794e-05,-2.34666e-06,-1.51656e-06,8
-2.33144e-05,3.21097e-05,-9.19881e-06,-3.14243e-05,-5.87694e-05,-1.66705e-05,5.43909e-06,-4.61982e-07,8
-3.1254e-05,2.39542e-05,-8.66091e-06,-4.03302e-05,-7.2504e-05,-1.5679e-05,1.96288e-05,-8.27382e-07,8
-3.04705e-05,2.11935e-05,-7.52472e-06,-3.40003e-05,-6.42993e-05,-1.54179e-05,3.68862e-05,-2.9294e-06,8
-2.14633e-05,2.46954e-05,-5.16509e-06,-2.01798e-05,-5.79531e-05,-1.55924e-05,5.38546e-05,-5.50292e-06,8
-1.54629e-05,2.99485e-05,-7.57468e-07,-1.3915e-05,-4.46174e-05,-1.53657e-05,6.59365e-05,-5.57107e-06,8
-1.60164e-05,3.38638e-05,8.33404e-06,-1.07773e-05,8.7157e-06,-1.51037e-05,7.0605e-05,-2.4081e-06,8
-1.63752e-05,3.61801e-05,2.27381e-05,2.36437e-06,7.9445e-05,-1.60577e-05,6.69903e-05,1.20197e-06,8
-1.60867e-05,3.61486e-05,3.05682e-05,2.00213e-05,0.00011376,-1.8683e-05,5.83116e-05,4.40603e-06,8
-1.61723e-05,3.37626e-05,2.23095e-05,2.76675e-05,9.11544e-05,-2.16289e-05,5.02307e-05,6.1462e-06,8
-1.71747e-05,2.644e-05,2.67483e-06,2.21861e-05,4.29004e-05,-2.24594e-05,4.34617e-05,6.87281e-06,8
-1.77353e-05,2.04237e-05,-1.73023e-05,1.48375e-05,4.7867e-06,-1.86035e-05,3.73352e-05,7.1627e-06,8
-1.43037e-05,2.03167e-05,-3.06976e-05,1.4276e-05,-4.49422e-06,-1.36781e-05,3.15277e-05,6.84463e-06,8
-1.05529e-05,1.80606e-05,-4.27701e-05,1.5394e-05,8.33988e-06,-1.42086e-05,2.40593e-05,5.67069e-06,8
-1.10772e-05,8.54904e-06,-5.71312e-05,1.48483e-05,2.54094e-05,-1.74524e-05,1.59185e-05,3.61921e-06,8
-1.67958e-05,-4.04361e-06,-6.8394e-05,1.3367e-05,4.3021e-05,-1.81276e-05,9.58589e-06,1.51187e-06,8
-2.4653e-05,-1.3817e-05,-6.67291e-05,1.09636e-05,6.2293e-05,-1.5288e-05,5.44389e-06,2.88669e-07,8
-3.41429e-05,-1.65179e-05,-5.16019e-05,8.29533e-06,7.68104e-05,-1.18072e-05,1.11213e-06,6.02027e-07,8
-4.73032e-05,-1.31057e-05,-3.58605e-05,5.15083e-06,7.95517e-05,-1.02127e-05,-3.83883e-06,1.64526e-06,8
-6.15396e-05,-7.72601e-06,-3.11247e-05,-3.94259e-07,7.37424e-05,-1.05448e-05,-7.4549e-06,1.42491e-06,8
-6.78284e-05,-2.12215e-06,-3.63139e-05,-8.30023e-06,6.13822e-05,-1.3558e-05,-8.66929e-06,5.42361e-07,8
-5.81556e-05,4.25998e-06,-4.33207e-05,-1.40107e-05,4.75626e-05,-2.03756e-05,-9.13949e-06,2.24002e-06,8
-3.31041e-05,1.40032e-05,-4.64251e-05,-1.41138e-05,3.93566e-05,-2.90234e-05,-1.03006e-05,6.2822e-06,8
-6.05535e-06,2.74688e-05,-4.62833e-05,-8.84344e-06,3.86771e-05,-3.54942e-05,-1.15905e-05,9.68935e-06,8
7.45565e-06,3.44151e-05,-4.64764e-05,-3.04506e-06,3.31513e-05,-3.1578e-05,-1.13059e-05,1.08472e-05,8
8.05916e-06,3.01001e-05,-4.52816e-05,-8.60944e-07,1.24293e-05,-4.402e-06,-9.16612e-06,1.04633e-05,8
4.94671e-06,2.22954e-05,-4.05516e-05,-4.87473e-06,-1.77879e-05,3.1098e-05,-6.9136e-06,9.27346e-06,8
-7.31331e-07,1.21054e-05,-3.62563e-05,-1.68491e-05,-4.08418e-05,4.02043e-05,-5.4436e-06,6.37604e-06,8
-1.05449e-05,2.99922e-06,-3.37562e-05,-3.00638e-05,-4.20837e-05,2.2367e-05,-4.29246e-06,2.46421e-06,8
-2.01471e-05,-2.77979e-06,-2.91109e-05,-3.76469e-05,-1.61388e-05,2.8884e-06,-2.9289e-06,-5.74987e-07,8
-2.38406e-05,-7.39591e-06,-2.19131e-05,-3.46441e-05,2.0029e-05,-6.17037e-06,-1.28588e-06,-3.23811e-06,8
-1.45849e-05,-5.58868e-06,-1.49742e-05,-1.8461e-05,3.9284e-05,-5.92634e-06,2.76624e-06,-4.28336e-06,8
1.02092e-05,6.63285e-06,-1.01348e-05,-1.05297e-06,4.36566e-05,-6.72173e-07,8.27511e-06,-4.35659e-06,8
3.71066e-05,3.53207e-05,-6.09237e-06,4.99545e-06,4.67524e-05,4.50221e-06,1.10395e-05,-4.76596e-06,8
4.64165e-05,7.07914e-05,-1.59147e-06,8.28595e-08,4.5952e-05,6.02863e-06,8.75165e-06,-4.63383e-06,8
3.40599e-05,8.77433e-05,2.31419e-06,-6.15555e-06,4.41639e-05,3.81859e-06,5.73538e-06,-4.18919e-06,8
8.75733e-06,7.84762e-05,2.81367e-06,-8.27046e-06,4.35623e-05,2.14906e-06,6.93639e-06,-3.86465e-06,8
-1.62532e-05,5.70747e-05,3.54875e-06,-4.01751e-06,3.91141e-05,1.86841e-06,1.04927e-05,-4.11264e-06,8
-3.1861e-05,4.09388e-05,6.7497e-06,9.66472e-06,2.94045e-05,1.91798e-06,1.29933e-05,-3.684e-06,8
-3.98848e-05,3.47364e-05,1.0199e-05,2.97803e-05,1.45958e-05,1.41028e-06,1.35888e-05,-3.16777e-06,8
-4.80544e-05,2.68116e-05,1.15713e-05,4.98721e-05,-1.48786e-06,5.91917e-07,1.2913e-05,-2.31813e-06,8
-5.55194e-05,8.05641e-07,1.16612e-05,5.59489e-05,-1.24429e-05,1.60962e-06,1.13247e-05,-4.47278e-07,8
-5.37536e-05,-4.005e-05,1.37584e-05,3.78266e-05,-1.26892e-05,4.1121e-06,1.07909e-05,2.22861e-06,8
-4.99152e-05,-7.15793e-05,1.68161e-05,6.70016e-06,-5.61126e-06,5.60644e-06,1.14549e-05,4.76436e-06,8
-5.67647e-05,-6.63434e-05,1.87901e-05,-1.5694e-05,4.30263e-06,4.3472e-06,1.01678e-05,6.55735e-06,8
-7.34668e-05,-1.97492e-05,1.79621e-05,-2.14811e-05,1.15069e-05,2.28184e-06,7.09417e-06,6.45338e-06,8
-8.92225e-05,4.73537e-05,1.4628e-05,-1.95513e-05,8.82574e-06,-2.31266e-07,6.19614e-06,4.25182e-06,8
-9.48495e-05,0.000101805,9.34917e-06,-2.07521e-05,-5.07922e-06,-3.75794e-06,4.52104e-06,2.15135e-06,8
-9.05834e-05,0.000113025,4.33096e-06,-2.99586e-05,-2.08554e-05,-8.28069e-06,-6.15636e-06,6.56726e-07,8
-8.52962e-05,7.95385e-05,7.28386e-07,-4.57265e-05,-2.80263e-05,-1.37197e-05,-2.32214e-05,-1.05241e-06,8
-8.42937e-05,3.33284e-05,-1.28501e-06,-6.10171e-05,-2.66169e-05,-1.99761e-05,-3.44577e-05,-4.43786e-06,8
-7.99479e-05,1.21498e-05,-2.0711e-06,-6.94161e-05,-2.61338e-05,-2.42485e-05,-3.44549e-05,-8.42996e-06,8
-6.35403e-05,1.92377e-05,-1.88174e-06,-7.15783e-05,-2.6537e-05,-2.36352e-05,-2.73531e-05,-1.06892e-05,8
-4.33444e-05,2.98697e-05,-2.22594e-06,-7.05113e-05,-2.22137e-05,-2.0415e-05,-1.62328e-05,-9.71913e-06,8
-3.77545e-05,3.0719e-05,-1.54553e-06,-6.52215e-05,-1.67982e-05,-1.85774e-05,-1.3117e-06,-6.82989e-06,8
-5.41489e-05,2.05029e-05,1.11164e-06,-4.85718e-05,-1.16059e-05,-1.8365e-05,1.63251e-05,-3.39134e-06,8
-8.11051e-05,6.42534e-06,2.86593e-06,-2.26707e-05,-2.56631e-07,-1.82398e-05,3.32501e-05,6.93826e-07,8
-0.000100116,1.7636e-06,3.82957e-06,5.98797e-06,1.49632e-05,-1.66992e-05,4.66175e-05,4.02176e-06,8
-0.000101049,1.17143e-05,4.80796e-06,2.81562e-05,2.31382e-05,-1.59496e-05,5.32905e-05,5.13061e-06,8
-8.58212e-05,2.41523e-05,2.76906e-06,3.66518e-05,2.44596e-05,-1.85625e-05,5.38054e-05,5.22171e-06,8
-5.55535e-05,2.72684e-05,-5.09307e-06,3.00569e-05,2.53289e-05,-1.87434e-05,5.11071e-05,4.70646e-06,8
-9.66761e-06,2.58525e-05,-1.1379e-05,6.84042e-06,4.00404e-05,-1.58396e-05,4.45797e-05,3.29754e-06,8
2.72488e-05,2.38958e-05,-1.19139e-05,-1.97265e-05,7.74581e-05,-1.16216e-05,3.70655e-05,1.74407e-06,8
3.20679e-05,2.29262e-05,-1.10465e-05,-3.66665e-05,0.000106013,-9.1285e-06,3.00134e-05,1.92964e-06,8
1.61615e-05,2.25548e-05,-1.05381e-05,-3.99693e-05,9.01135e-05,-1.10329e-05,2.54001e-05,3.48152e-06,8
1.3683e-06,1.97675e-05,-8.06043e-06,-3.64982e-05,4.0472e-05,-1.42915e-05,2.25087e-05,4.61297e-06,8
-4.2194e-06,1.30502e-05,-4.2202e-06,-3.33648e-05,-1.06731e-05,-1.47805e-05,1.98141e-05,4.89943e-06,8
-4.67299e-06,6.88742e-06,-3.68476e-06,-3.67061e-05,-4.62156e-05,-1.36297e-05,1.65874e-05,3.27318e-06,8
-5.26195e-06,4.10803e-06,-8.9186e-06,-4.02496e-05,-6.79898e-05,-1.40936e-05,1.19467e-05,6.91033e-07,8
-6.1439e-06,8.36591e-07,-1.60982e-05,-3.06195e-05,-8.17622e-05,-1.41476e-05,8.71069e-06,-8.37313e-07,8
-6.96499e-06,-3.19521e-06,-2.03134e-05,-5.91511e-06,-8.00344e-05,-1.42583e-05,7.00629e-06,-1.06797e-06,8
-9.57106e-06,-3.97862e-06,-1.90919e-05,2.54475e-05,-4.94131e-05,-1.49593e-05,5.77821e-06,5.72978e-06,8
-1.29744e-05,1.79211e-07,-1.30663e-05,4.57645e-05,1.23031e-05,-1.66437e-05,4.3888e-06,2.7979e-05,8
-1.70747e-05,5.01189e-06,-5.60747e-06,4.74423e-05,9.53486e-05,-1.90866e-05,4.00766e-06,5.40034e-05,8
-2.37643e-05,7.37409e-06,3.02895e-06,3.89184e-05,0.000163687,-1.97542e-05,4.35456e-06,6.27026e-05,8
-3.33973e-05,6.68596e-06,1.45308e-05,3.22456e-05,0.000173077,-1.65883e-05,4.22155e-06,5.06993e-05,8
-4.41443e-05,3.59758e-06,3.11766e-05,2.86364e-05,0.000120236,-1.19089e-05,9.21232e-07,2.68567e-05,8
-5.25934e-05,1.10277e-06,5.23324e-05,2.8782e-05,4.74248e-05,-8.26926e-06,-6.22383e-06,-4.23732e-06,8
-4.82181e-05,2.73876e-06,7.32011e-05,3.31596e-05,-4.15769e-06,-4.95416e-06,-1.36679e-05,-3.66262e-05,8
-1.99953e-05,9.49623e-06,8.97848e-05,3.82464e-05,-2.48521e-05,-2.5541e-06,-1.60385e-05,-5.7643e-05,8
2.51292e-05,1.56495e-05,9.93119e-05,3.63827e-05,-2.30868e-05,-1.91906e-06,-1.18821e-05,-6.145e-05,8
6.34898e-05,1.60281e-05,9.60178e-05,2.76444e-05,-7.84461e-06,-1.53556e-06,-3.8673e-06,-5.73079e-05,8
7.06336e-05,9.3692e-06,7.3322e-05,1.87921e-05,1.482e-05,-8.22826e-07,5.94863e-06,-5.31575e-05,8
4.24266e-05,-3.98002e-06,3.03186e-05,1.41587e-05,3.57661e-05,-2.19045e-06,1.5805e-05,-4.66939e-05,8
-2.4435e-07,-2.30689e-05,-2.8907e-05,1.07549e-05,4.12451e-05,-3.73389e-06,2.60533e-05,-3.37783e-05,8
-3.1316e-05,-4.08928e-05,-8.2329e-05,4.67835e-06,2.98169e-05,-3.27166e-06,3.7843e-05,-1.9716e-05,8
-5.10659e-05,-4.02701e-05,-0.000109245,-4.56766e-06,1.32909e-05,-3.64082e-06,4.80533e-05,-1.15611e-05,8
-7.58884e-05,-2.36576e-05,-0.000109852,-1.46877e-05,-1.99234e-06,-7.02975e-06,5.16682e-05,-7.83363e-06,8
-9.60753e-05,-2.75903e-06,-9.85884e-05,-2.29942e-05,-1.00028e-05,-1.01618e-05,4.66482e-05,-6.44039e-06,8
-9.39303e-05,1.37083e-05,-9.17773e-05,-3.14755e-05,-9.6122e-06,-9.32283e-06,3.51337e-05,-2.34527e-06,8
-6.98032e-05,1.37851e-05,-8.53274e-05,-4.06357e-05,-5.74419e-06,-5.70997e-06,2.24802e-05,3.08261e-06,8
-4.40049e-05,4.54895e-06,-7.86084e-05,-4.9412e-05,-6.21147e-06,-3.17411e-06,1.19366e-05,7.15746e-06,8
-3.19691e-05,-1.988e-06,-7.29903e-05,-4.86827e-05,-1.46299e-05,-4.56234e-06,4.58668e-06,9.94256e-06,8
-3.16158e-05,-1.45988e-06,-6.48986e-05,-3.69277e-05,-2.28588e-05,-8.6257e-06,-4.1109e-07,1.12982e-05,8
-3.37225e-05,6.97666e-06,-5.19589e-05,-1.9199e-05,-2.51313e-05,-1.21388e-05,-3.86217e-06,1.05725e-05,8
-3.27516e-05,1.76919e-05,-3.79006e-05,7.52737e-06,-2.19311e-05,-1.20203e-05,-6.86947e-06,8.1876e-06,8
-3.00335e-05,2.47929e-05,-2.71994e-05,4.04442e-05,-1.71548e-05,-9.67182e-06,-7.7208e-06,6.77471e-06,8
-2.44118e-05,2.76394e-05,-1.79396e-05,6.23303e-05,-1.32757e-05,-7.96812e-06,-4.38991e-06,6.63936e-06,8
-1.57337e-05,2.71087e-05,-1.02822e-05,5.86423e-05,-1.01799e-05,-7.39751e-06,1.67409e-06,6.79522e-06,8
-9.21015e-06,2.33065e-05,-4.06494e-06,3.31647e-05,-6.34969e-06,-7.13234e-06,8.61413e-06,5.53851e-06,8
-1.14458e-05,1.5276e-05,2.70576e-06,2.95601e-06,5.71893e-07,-6.4676e-06,1.51295e-05,3.49394e-06,8
-2.00405e-05,2.15861e-06,1.14615e-05,-1.85267e-05,1.18207e-05,-5.58839e-06,1.96707e-05,2.76523e-06,8
-3.0976e-05,-1.34899e-05,1.54269e-05,-3.22307e-05,2.56507e-05,-5.14037e-06,2.15541e-05,4.48522e-06,8
-3.7551e-05,-2.07498e-05,1.04916e-05,-4.72422e-05,4.26567e-05,-5.65195e-06,2.26042e-05,6.60259e-06,8
-3.25965e-05,-1.04591e-05,1.03049e-06,-6.45557e-05,6.85889e-05,-6.25195e-06,2.36553e-05,7.80109e-06,8
-1.85116e-05,7.38699e-06,-4.27465e-06,-7.42701e-05,9.03715e-05,-7.71066e-06,2.43714e-05,7.48063e-06,8
-7.06353e-06,1.53498e-05,-3.96013e-06,-7.25868e-05,7.76989e-05,-1.02956e-05,2.58422e-05,6.66179e-06,8
-4.88749e-06,9.98434e-06,-9.98802e-07,-6.30003e-05,3.0671e-05,-1.15065e-05,2.71582e-05,5.12379e-06,8
-1.14427e-05,2.89633e-07,2.98628e-06,-3.9692e-05,-1.52141e-05,-1.02949e-05,2.56387e-05,3.24377e-06,8
-2.35542e-05,8.75539e-08,5.73499e-06,-7.04732e-06,-3.54507e-05,-9.6897e-06,2.2768e-05,3.77133e-06,8
-3.24128e-05,1.541e-05,4.66008e-06,1.68403e-05,-3.6157e-05,-1.12606e-05,2.03391e-05,6.1623e-06,8
-4.10673e-05,3.36254e-05,2.47374e-06,2.42852e-05,-2.59933e-05,-1.34742e-05,1.92967e-05,7.78847e-06,8
-6.6244e-05,3.1783e-05,3.18178e-06,1.85221e-05,-6.39349e-06,-1.5018e-05,1.90455e-05,8.35947e-06,8
-9.66239e-05,9.18945e-06,1.46652e-06,6.41027e-06,1.11175e-05,-1.62964e-05,1.8156e-05,9.03935e-06,8
-0.0001057,-5.82874e-06,-9.50485e-06,-4.97323e-06,1.37397e-05,-1.68602e-05,1.64189e-05,9.80412e-06,8
-8.97438e-05,3.47349e-07,-2.34265e-05,-8.41773e-06,2.06148e-06,-1.80104e-05,1.42725e-05,1.03823e-05,8
-6.44865e-05,2.06961e-05,-2.99078e-05,-6.08004e-06,-1.50571e-05,-1.89483e-05,1.42304e-05,1.14022e-05,8
-4.48043e-05,4.33734e-05,-2.58637e-05,-1.76978e-06,-3.2542e-05,-2.0798e-05,1.68724e-05,1.33094e-05,8
-3.35291e-05,5.33939e-05,-1.45422e-05,5.52778e-06,-4.92444e-05,-2.46103e-05,1.78958e-05,1.39061e-05,8
-3.08771e-05,4.25196e-05,-3.746e-06,1.19601e-05,-6.15284e-05,-2.54723e-05,1.56667e-05,1.11784e-05,8
-2.94216e-05,2.26931e-05,1.35746e-06,5.16963e-06,-5.97914e-05,-2.34055e-05,1.28287e-05,6.98317e-06,8
-2.34638e-05,9.21475e-06,-6.35529e-07,-2.01254e-05,-4.61322e-05,-2.05257e-05,1.02307e-05,4.02598e-06,8
-1.49231e-05,7.43742e-06,-4.07306e-06,-5.19106e-05,-3.32935e-05,-1.86516e-05,9.12675e-06,3.34416e-06,8
-1.01535e-05,1.65948e-05,-6.67905e-07,-7.03088e-05,-2.20859e-05,-1.67332e-05,9.09682e-06,3.54327e-06,8
-6.33639e-06,3.28031e-05,8.89145e-06,-6.31561e-05,-2.3256e-06,-1.3437e-05,7.67789e-06,3.78614e-06,8
7.19403e-06,4.91351e-05,1.59688e-05,-3.58766e-05,2.95748e-05,-9.18439e-06,4.37714e-06,4.34362e-06,8
3.13121e-05,5.75132e-05,1.66405e-05,-3.30633e-06,6.36397e-05,-5.77503e-06,8.3653e-07,4.14204e-06,8
5.0893e-05,5.37571e-05,1.39415e-05,2.33298e-05,8.39224e-05,-3.82515e-06,-1.36186e-07,3.47536e-06,8
5.02127e-05,3.35855e-05,1.12076e-05,3.7932e-05,8.08312e-05,-1.17555e-06,2.05883e-06,4.06323e-06,8
2.68681e-05,3.80591e-06,5.7429e-06,4.08097e-05,6.08642e-05,1.84042e-06,4.9755e-06,6.64718e-06,8
-1.03314e-05,-9.40005e-06,-6.56463e-06,4.37767e-05,3.81877e-05,1.49078e-06,6.80577e-06,8.15393e-06,8
-4.8868e-05,8.58347e-06,-2.18206e-05,4.97048e-05,2.49175e-05,-3.03186e-06,8.49739e-06,7.23155e-06,8
-8.28006e-05,3.21597e-05,-2.98834e-05,4.57239e-05,2.20043e-05,-7.91589e-06,1.15443e-05,5.28999e-06,8
-0.00010602,3.78669e-05,-2.64046e-05,2.76674e-05,2.52458e-05,-1.02953e-05,1.51977e-05,3.40215e-06,8
-0.000108256,2.91146e-05,-1.69441e-05,6.80843e-06,2.97762e-05,-1.00196e-05,1.72131e-05,1.86846e-06,8
-8.69061e-05,1.60683e-05,-7.69784e-06,-3.41841e-06,2.84428e-05,-8.86295e-06,1.71967e-05,1.37889e-06,8
-5.45524e-05,3.69306e-06,9.30657e-07,1.80191e-06,2.67462e-05,-7.57868e-06,1.57317e-05,3.18033e-06,8
-2.33743e-05,-2.8886e-06,8.08803e-06,1.3366e-05,5.44272e-05,-6.04411e-06,1.43189e-05,5.73101e-06,8
-6.62237e-06,-0.000121865,2.47782e-05,-1.75571e-05,-2.41562e-06,-1.21581e-05,1.9108e-05,-3.92747e-06,8
-5.38477e-05,-8.92149e-05,3.34452e-07,-9.01821e-06,-8.47327e-06,-1.88147e-05,2.05103e-05,-3.02335e-06,8
-0.000104492,2.50334e-06,-2.40687e-05,-1.34754e-06,-1.70311e-05,-2.33398e-05,2.09613e-05,-1.22933e-06,8
-0.000124802,8.57969e-05,-4.42029e-05,1.84006e-06,-2.53344e-05,-2.37379e-05,1.92692e-05,7.79162e-07,8
-9.98148e-05,0.00015033,-5.6473e-05,-4.37257e-07,-3.40939e-05,-2.08628e-05,1.69843e-05,2.6752e-06,8
-6.34836e-05,0.000154855,-5.9621e-05,-5.12153e-06,-4.16534e-05,-1.81374e-05,1.7166e-05,4.63791e-06,8
-4.65739e-05,4.06645e-05,-5.53392e-05,-1.1705e-05,-3.49046e-05,-1.79784e-05,1.86054e-05,5.72007e-06,8
-4.77013e-05,-0.000119801,-4.83662e-05,-1.70196e-05,-5.61412e-06,-2.1286e-05,1.84768e-05,4.93654e-06,8
-5.01169e-05,-0.00018939,-3.96193e-05,-1.89046e-05,3.87608e-05,-2.44682e-05,1.64115e-05,4.1034e-06,8
-5.03959e-05,-0.000166692,-2.88417e-05,-1.78379e-05,8.42728e-05,-2.5947e-05,1.49365e-05,3.87846e-06,8
-5.06525e-05,-0.000107452,-1.83422e-05,-1.59479e-05,0.000109499,-2.55405e-05,1.47904e-05,2.62745e-06,8
-5.27665e-05,-5.85148e-05,-1.27488e-05,-1.38201e-05,9.6604e-05,-2.44552e-05,1.50895e-05,1.56772e-06,8
-5.6347e-05,-3.43714e-05,-1.06817e-05,-8.64973e-06,5.85217e-05,-2.32718e-05,1.51423e-05,2.74985e-06,8
-5.78252e-05,-7.00496e-06,-7.71179e-06,1.28496e-06,2.55874e-05,-2.16949e-05,1.44918e-05,4.81218e-06,8
-5.79844e-05,4.34269e-05,-5.53267e-06,1.20101e-05,8.96444e-06,-1.77495e-05,1.39e-05,5.57931e-06,8
-5.77173e-05,9.1412e-05,-6.64818e-06,1.71301e-05,1.85116e-07,-1.27024e-05,1.36745e-05,4.70568e-06,8
-5.77577e-05,0.000104972,-6.758e-06,1.73742e-05,-3.131e-06,-1.08514e-05,1.30719e-05,3.20325e-06,8
-5.77768e-05,9.45782e-05,-1.40658e-06,1.72085e-05,2.37498e-06,-1.25894e-05,1.12624e-05,2.40085e-06,8
-5.6497e-05,7.65005e-05,6.17202e-06,1.77105e-05,1.31831e-05,-1.45569e-05,8.75941e-06,2.46219e-06,8
-5.08221e-05,4.81706e-05,1.15192e-05,1.64307e-05,2.11805e-05,-1.45941e-05,5.64558e-06,1.96522e-06,8
-4.1967e-05,3.36228e-05,1.54263e-05,1.3258e-05,2.0907e-05,-1.44649e-05,3.53087e-06,5.88097e-07,8
-3.35706e-05,8.0384e-05,1.8412e-05,8.61233e-06,7.97284e-06,-1.43423e-05,4.62824e-06,-6.37047e-09,8
-2.46758e-05,0.00013207,1.74031e-05,1.55984e-06,-1.56352e-05,-1.27961e-05,7.82257e-06,1.43341e-06,8
-1.07015e-05,0.000120797,1.19195e-05,-6.94379e-06,-3.8807e-05,-9.01864e-06,1.0224e-05,2.39155e-06,8
1.92925e-06,5.74552e-05,4.54037e-06,-1.66291e-05,-5.13379e-05,-5.66997e-06,1.31734e-05,2.03432e-06,8
5.37174e-06,-3.17557e-05,-1.42188e-06,-2.70838e-05,-5.04905e-05,-5.04374e-06,1.64127e-05,9.7755e-07,8
5.66637e-06,-0.000103542,-4.8639e-06,-3.17749e-05,-4.41326e-05,-6.22333e-06,1.64864e-05,-4.614e-07,8
8.08724e-06,-0.000110177,-5.58823e-06,-3.14057e-05,-4.19878e-05,-7.73078e-06,1.44767e-05,-1.49856e-06,8
9.03833e-06,-4.82897e-05,-4.44378e-06,-3.00601e-05,-4.17473e-05,-7.62357e-06,1.48871e-05,-2.73961e-06,8
2.5606e-06,4.548e-06,-4.04983e-06,-2.50583e-05,-3.24978e-05,-7.33978e-06,1.6685e-05,-3.41416e-06,8
-9.22742e-06,-2.14612e-05,-6.73744e-06,-1.74527e-05,-1.45513e-05,-8.1938e-06,1.72465e-05,-4.04506e-06,8
-2.30196e-05,-0.000103706,-1.20364e-05,-1.17018e-05,1.2901e-06,-9.46347e-06,1.81265e-05,-4.01653e-06,8
-4.44735e-05,-0.000155086,-1.95274e-05,-8.09265e-06,7.10938e-06,-1.19493e-05,1.7982e-05,-3.33507e-06,8
-6.83636e-05,-0.000113129,-2.9025e-05,-6.21791e-06,4.11067e-06,-1.32914e-05,1.63432e-05,-3.62266e-06,8
-7.75751e-05,-1.35637e-05,-3.88875e-05,-5.81643e-06,-8.70487e-07,-1.21908e-05,1.38871e-05,-4.10355e-06,8
-6.80948e-05,6.72972e-05,-4.7575e-05,-6.60372e-06,-2.00978e-06,-9.46767e-06,1.24475e-05,-3.22649e-06,8
-5.17076e-05,9.67246e-05,-5.54086e-05,-9.99587e-06,1.35593e-07,-7.71161e-06,1.26621e-05,-1.89128e-06,8
-3.76194e-05,0.000105569,-5.99419e-05,-1.04937e-05,4.30473e-06,-6.96295e-06,1.30819e-05,-1.88106e-06,8
-3.00464e-05,0.000109458,-5.62941e-05,-3.79051e-06,1.06415e-05,-6.60395e-06,1.24742e-05,-1.85344e-06,8
-3.14145e-05,7.55065e-05,-4.54478e-05,6.5362e-06,1.64044e-05,-6.73134e-06,1.07039e-05,-8.23604e-07,8
-3.77324e-05,6.15136e-06,-3.10573e-05,1.24096e-05,1.97391e-05,-7.19803e-06,9.41435e-06,-1.47333e-09,8
-4.62074e-05,-2.38924e-05,-1.52112e-05,1.08298e-05,2.20502e-05,-6.89628e-06,8.74697e-06,-3.26961e-07,8
-5.76095e-05,8.96823e-06,4.08299e-07,7.07438e-06,2.46023e-05,-4.10288e-06,8.52101e-06,-1.12474e-06,8
-6.57187e-05,2.89137e-05,1.22793e-05,8.38475e-06,2.70627e-05,-6.45075e-07,8.66089e-06,-1.77317e-06,8
-6.08314e-05,1.16794e-05,1.94245e-05,1.74108e-05,3.0583e-05,2.339e-06,1.02087e-05,-2.16416e-06,8
-4.88023e-05,1.26839e-05,2.51327e-05,2.84177e-05,3.40077e-05,4.34728e-06,1.21839e-05,-2.66935e-06,8
-4.10511e-05,3.68143e-05,3.08978e-05,3.20968e-05,3.45948e-05,4.14786e-06,1.10229e-05,-2.84121e-06,8
-3.19415e-05,3.24862e-05,3.16552e-05,2.51644e-05,3.02249e-05,8.42648e-07,7.49442e-06,-1.34372e-06,8
-1.99319e-06,-7.34994e-06,2.39531e-05,1.11821e-05,2.1584e-05,-2.93298e-06,5.3242e-06,1.37848e-06,8
4.78371e-05,-3.27876e-05,1.03327e-05,-3.64074e-06,1.32528e-05,-5.59373e-06,5.10974e-06,3.44774e-06,8
7.92446e-05,-1.28366e-05,-6.27018e-06,-1.37599e-05,1.31964e-05,-7.65489e-06,5.23275e-06,4.31393e-06,8
6.15497e-05,-1.31545e-06,-2.20344e-05,-1.90186e-05,2.71487e-05,-9.63585e-06,4.95485e-06,3.51893e-06,8
2.71524e-05,-4.80126e-05,-3.05783e-05,-1.9974e-05,4.70114e-05,-8.78676e-06,5.86258e-06,2.67745e-06,8
2.02801e-05,-9.29919e-05,-2.65287e-05,-1.74415e-05,5.89484e-05,-3.02363e-06,7.97663e-06,3.73168e-06,8
3.19998e-05,-6.85475e-05,-1.14114e-05,-1.41066e-05,6.17341e-05,6.14617e-06,9.92171e-06,4.51436e-06,8
2.32052e-05,-1.5077e-05,-2.77732e-07,-1.95706e-05,5.7821e-05,9.66316e-06,1.00664e-05,3.62249e-06,8
-2.7404e-05,1.11664e-05,-1.32564e-06,-3.08032e-05,4.96164e-05,3.63114e-06,9.3939e-06,2.3044e-06,8
-9.07339e-05,1.47184e-05,-5.04738e-06,-3.84608e-05,3.94721e-05,-3.89487e-06,9.80768e-06,7.06313e-07,8
-0.000120895,1.83249e-05,-4.45453e-06,-4.5481e-05,2.58945e-05,-9.36428e-06,1.06213e-05,-1.08448e-06,8
-0.000103491,2.11749e-05,-1.3593e-06,-5.41791e-05,-1.648e-06,-1.14331e-05,1.1998e-05,-1.4501e-06,8
-6.27058e-05,1.79115e-05,9.18243e-07,-6.58106e-05,-2.98111e-05,-8.87963e-06,1.30154e-05,-1.30663e-06,8
-2.87784e-05,1.54936e-05,6.29116e-06,-7.65772e-05,-2.76522e-05,-4.86505e-06,1.35768e-05,-1.35501e-06,8
-1.47517e-05,1.70607e-05,1.3992e-05,-7.96258e-05,6.7748e-07,-3.80074e-06,1.34959e-05,-1.9241e-06,8
-1.3294e-05,1.93375e-05,2.08482e-05,-7.23529e-05,3.9111e-05,-4.49084e-06,1.34926e-05,-2.56717e-06,8
-1.48788e-05,2.31828e-05,2.30727e-05,-6.07917e-05,6.81779e-05,-6.12143e-06,1.32107e-05,-3.19686e-06,8
-1.8754e-05,3.76723e-05,2.09336e-05,-5.00693e-05,6.99145e-05,-7.70531e-06,1.06606e-05,-3.55152e-06,8
-2.69963e-05,6.65295e-05,1.86803e-05,-4.08512e-05,4.58004e-05,-9.31398e-06,7.74032e-06,-2.73649e-06,8
-3.70716e-05,9.62812e-05,1.80779e-05,-2.82892e-05,1.77564e-05,-1.05436e-05,6.26343e-06,-1.45134e-06,8
-4.02633e-05,0.000115234,1.75059e-05,-5.9467e-06,1.64452e-06,-1.07398e-05,5.35297e-06,3.78701e-06,8
-2.92269e-05,0.00014342,1.14962e-05,2.70315e-05,-5.22394e-06,-1.03231e-05,5.04939e-06,2.23801e-05,8
-5.5123e-06,0.00020086,-1.28929e-06,6.36162e-05,-6.9829e-06,-9.65724e-06,6.79824e-06,5.04381e-05,8
1.40302e-05,0.000264376,-1.90366e-05,9.02723e-05,-5.42201e-06,-1.04124e-05,9.52207e-06,6.59408e-05,8
1.04627e-05,0.000269444,-3.67096e-05,9.96762e-05,-4.42594e-06,-1.35541e-05,1.19412e-05,5.88699e-05,8
-1.55846e-05,0.000177079,-4.96146e-05,9.44494e-05,-6.69675e-06,-1.8563e-05,1.45608e-05,3.66971e-05,8
-4.21249e-05,1.43732e-05,-5.47687e-05,7.95884e-05,-7.69653e-06,-2.17466e-05,1.63038e-05,6.88525e-06,8
-5.83439e-05,-0.000149708,-5.32272e-05,5.9485e-05,-7.15244e-06,-2.14942e-05,1.5368e-05,-2.57662e-05,8
-7.08094e-05,-0.000234914,-4.35493e-05,4.20047e-05,-9.16909e-06,-1.93881e-05,1.32726e-05,-5.03122e-05,8
-8.49577e-05,-0.000187941,-2.11198e-05,3.03641e-05,-1.87177e-05,-1.66968e-05,1.2619e-05,-5.83659e-05,8
-9.47148e-05,-6.1897e-05,1.59804e-05,2.29906e-05,-3.56301e-05,-1.45345e-05,1.30089e-05,-5.67565e-05,8
-9.29125e-05,2.66426e-05,6.08764e-05,1.30184e-05,-5.43563e-05,-1.51745e-05,1.42587e-05,-5.57085e-05,8
-7.98044e-05,2.58697e-05,9.94631e-05,-7.55136e-06,-6.76918e-05,-1.61059e-05,1.66581e-05,-5.48494e-05,8
-5.91299e-05,3.36669e-05,0.000127208,-3.82594e-05,-5.81945e-05,-1.47478e-05,1.73264e-05,-4.57044e-05,8
-3.55633e-05,0.000150235,0.000135204,-5.70187e-05,-2.017e-05,-1.28748e-05,1.52485e-05,-2.99559e-05,8
-1.62811e-05,0.00023901,0.00010831,-5.29087e-05,2.27975e-05,-1.14472e-05,1.43847e-05,-1.62547e-05,8
2.08979e-06,0.000176328,5.06347e-05,-4.79283e-05,7.33174e-05,-1.15229e-05,1.47577e-05,-6.52949e-06,8
2.46149e-05,5.06996e-05,-2.3547e-05,-5.21515e-05,0.000148865,-1.06133e-05,1.50924e-05,-1.02118e-06,8
4.05924e-05,-7.00114e-05,-9.4899e-05,-5.33728e-05,0.000200487,-4.13637e-06,1.59038e-05,2.15728e-06,8
4.18628e-05,-0.000241007,-0.000146906,-4.34399e-05,0.000167433,2.29123e-06,1.71919e-05,4.42237e-06,8
2.40471e-05,-0.000383299,-0.000173916,-3.3176e-05,7.86036e-05,3.61164e-06,1.73978e-05,6.92185e-06,8
-1.08405e-05,-0.000317604,-0.000181435,-3.34731e-05,8.5971e-06,-7.62306e-07,1.59497e-05,1.00101e-05,8
-4.9925e-05,-9.93975e-05,-0.000173043,-4.63909e-05,-1.60998e-05,-7.43852e-06,1.56524e-05,1.34102e-05,8
-8.38145e-05,7.31716e-05,-0.000147552,-5.71904e-05,-1.84767e-05,-1.26734e-05,1.5774e-05,1.51035e-05,8
-9.52253e-05,0.000121,-0.000111415,-4.739e-05,-2.10621e-05,-1.51311e-05,1.5046e-05,1.3905e-05,8
-7.32549e-05,9.64758e-05,-7.53391e-05,-1.52114e-05,-2.95498e-05,-1.35701e-05,1.4105e-05,1.14981e-05,8
-4.11871e-05,6.05634e-05,-4.58743e-05,2.7349e-05,-3.9133e-05,-1.07213e-05,1.40025e-05,9.37221e-06,8
-2.65687e-05,4.49771e-05,-2.36952e-05,6.11448e-05,-4.33277e-05,-7.41555e-06,1.45653e-05,9.23489e-06,8
-2.71504e-05,5.17454e-05,-9.5206e-06,6.82728e-05,-3.9325e-05,-4.10681e-06,1.60842e-05,9.46848e-06,8
-2.28699e-05,4.99385e-05,-9.14926e-07,4.67731e-05,-2.76567e-05,-1.53885e-06,1.76885e-05,8.21438e-06,8
-1.35089e-05,-3.07986e-06,2.93849e-06,1.7943e-05,-1.16233e-05,-2.13047e-06,1.73692e-05,6.98569e-06,8
-1.57996e-05,-8.22478e-05,2.532e-06,-6.13366e-07,1.46288e-06,-6.62468e-06,1.58799e-05,9.00694e-06,8
-3.32604e-05,-9.41722e-05,2.89063e-08,-9.3115e-06,1.15436e-06,-1.3087e-05,1.52243e-05,1.20542e-05,8
-4.96822e-05,-2.38581e-05,3.86056e-07,-1.57883e-05,-1.23555e-05,-1.84556e-05,1.51765e-05,1.14157e-05,8
-5.30381e-05,6.00794e-05,3.08782e-06,-2.20517e-05,-2.62807e-05,-2.13906e-05,1.45708e-05,7.88095e-06,8
-5.1263e-05,0.000107875,6.27627e-06,-2.55845e-05,-2.86542e-05,-2.0696e-05,1.41818e-05,4.80156e-06,8
-6.18191e-05,8.62257e-05,7.7092e-06,-2.22095e-05,-2.10949e-05,-1.80033e-05,1.35838e-05,3.73429e-06,8
-7.84866e-05,-7.93353e-06,5.67728e-06,-1.63691e-05,-1.06804e-05,-1.76014e-05,1.29005e-05,5.72668e-06,8
-7.54547e-05,-0.000100713,2.81206e-06,-1.50998e-05,6.11063e-07,-1.89907e-05,1.23825e-05,7.16289e-06,8
-4.84997e-05,-0.000125217,-1.28855e-06,-1.49651e-05,9.52819e-06,-1.86637e-05,1.30435e-05,6.06378e-06,8
-1.99936e-05,-8.71972e-05,-4.75064e-06,-8.19635e-06,1.16067e-05,-1.74756e-05,1.49355e-05,4.36238e-06,8
-1.77311e-05,-8.52194e-06,-8.91408e-07,6.02047e-06,1.20486e-05,-1.62611e-05,1.51154e-05,4.84501e-06,8
-4.11534e-05,7.10315e-05,7.71497e-06,2.26076e-05,2.09052e-05,-1.35929e-05,1.32838e-05,6.09089e-06,8
-6.4243e-05,0.000100617,1.37641e-05,3.3679e-05,3.20116e-05,-1.14431e-05,1.33899e-05,6.06412e-06,8
-7.19917e-05,7.10915e-05,1.7566e-05,3.46039e-05,3.44626e-05,-1.05364e-05,1.50169e-05,7.23854e-06,8
-6.71142e-05,-6.5791e-08,2.19567e-05,3.10587e-05,3.33675e-05,-1.07373e-05,1.51536e-05,8.28076e-06,8
-5.779e-05,-6.37711e-05,2.81981e-05,2.86119e-05,3.31846e-05,-1.18044e-05,1.45632e-05,7.85365e-06,8
-4.07341e-05,-7.33275e-05,3.38439e-05,3.03756e-05,3.25199e-05,-1.20172e-05,1.28011e-05,6.56354e-06,8
-1.74857e-05,-4.32343e-05,3.54448e-05,3.53515e-05,3.19997e-05,-1.19519e-05,1.16133e-05,6.02881e-06,8
2.7414e-06,-4.76535e-06,3.12606e-05,4.38694e-05,3.06382e-05,-1.18893e-05,1.23841e-05,4.94477e-06,8
1.20454e-05,2.26438e-05,2.71614e-05,5.24608e-05,2.59002e-05,-9.85077e-06,1.32599e-05,3.62574e-06,8
8.81094e-06,3.58884e-05,2.62544e-05,5.38402e-05,2.05568e-05,-7.10469e-06,1.42681e-05,5.31747e-06,8
-8.34303e-07,4.68599e-05,2.63058e-05,4.62259e-05,1.8541e-05,-5.2006e-06,1.53918e-05,1.3506e-05,8
-1.03302e-05,6.56714e-05,2.31713e-05,3.33548e-05,1.88439e-05,-3.53969e-06,1.57358e-05,2.45997e-05,8
-1.48718e-05,9.20935e-05,1.6497e-05,1.99156e-05,1.52466e-05,6.43916e-08,1.49864e-05,2.86316e-05,8
-1.34405e-05,0.000112337,1.01409e-05,9.2137e-06,6.62658e-06,2.7813e-06,1.41693e-05,2.36353e-05,8
-6.56016e-06,0.000115444,6.5366e-06,2.91506e-06,3.93191e-06,1.79086e-06,1.39253e-05,1.64788e-05,8
-3.61316e-06,9.19906e-05,6.29175e-06,-5.41484e-06,1.42714e-05,-1.18013e-06,1.41379e-05,1.29222e-05,8
-1.02689e-05,4.28246e-05,6.9084e-06,-2.42802e-05,3.56618e-05,-3.41428e-06,1.48327e-05,1.10338e-05,8
-2.00399e-05,-1.19356e-05,5.64268e-06,-5.31227e-05,6.1686e-05,-3.82935e-06,1.56502e-05,7.20813e-06,8
-2.09387e-05,-3.53116e-05,4.79811e-06,-8.05678e-05,7.27546e-05,-2.51595e-06,1.57388e-05,7.67857e-07,8
-1.48011e-05,-1.28785e-05,6.407e-06,-9.47209e-05,5.15693e-05,-5.41328e-07,1.4668e-05,-6.5601e-06,8
-1.20276e-05,2.90534e-05,4.46744e-06,-8.8551e-05,1.51897e-05,-3.32137e-07,1.30492e-05,-1.34988e-05,8
-1.3526e-05,5.75705e-05,-1.84387e-06,-6.3503e-05,-8.45837e-06,-1.45145e-06,1.27959e-05,-1.95881e-05,8
-7.92831e-06,6.66008e-05,-6.30933e-06,-3.00835e-05,-1.02906e-05,-2.17728e-06,1.39905e-05,-2.31728e-05,8
1.13391e-05,7.66596e-05,-3.26672e-06,2.68818e-06,-1.04231e-06,-1.85338e-06,1.53822e-05,-2.41649e-05,8
3.2502e-05,9.96651e-05,7.6124e-07,2.90936e-05,1.03464e-05,-1.54408e-06,1.69793e-05,-2.32818e-05,8
4.13763e-05,0.000126228,-2.9457e-06,4.6474e-05,2.49043e-05,-1.20937e-06,1.84662e-05,-2.03109e-05,8
3.32232e-05,0.00013483,-1.1142e-05,5.13022e-05,3.78273e-05,-3.58084e-07,1.7973e-05,-1.64059e-05,8
1.04313e-05,0.000106761,-1.90745e-05,3.87649e-05,4.17519e-05,-3.0532e-07,1.68792e-05,-1.27752e-05,8
-2.00829e-05,5.07665e-05,-2.13401e-05,2.19403e-05,3.68644e-05,-2.33585e-06,1.92393e-05,-9.8955e-06,8
-5.15108e-05,-2.70519e-05,-1.82258e-05,1.74474e-05,2.77121e-05,-3.13149e-06,2.11715e-05,-6.94281e-06,8
-7.91812e-05,-0.000128121,-1.91038e-05,2.39696e-05,1.7461e-05,-3.57548e-06,2.01202e-05,-5.05268e-06,8
-9.61749e-05,-0.000179149,-2.40155e-05,2.63669e-05,1.03761e-05,-6.22575e-06,1.87114e-05,-4.1682e-06,8
-9.44058e-05,-0.000126289,-2.59874e-05,1.33891e-05,6.60945e-06,-8.3287e-06,1.84549e-05,-2.98139e-06,8
-7.6419e-05,-3.65704e-05,-2.45296e-05,-9.78568e-06,5.15983e-06,-7.76682e-06,1.83045e-05,-2.11025e-06,8
-5.45631e-05,1.75088e-05,-2.30299e-05,-3.3499e-05,5.35849e-06,-4.94191e-06,1.62393e-05,-8.22984e-07,8
-3.97661e-05,3.35536e-05,-2.48739e-05,-5.04832e-05,6.72122e-06,-3.2305e-06,1.3513e-05,6.49087e-07,8
-2.9803e-05,4.99271e-05,-2.79385e-05,-6.00908e-05,9.10004e-06,-4.25378e-06,1.24658e-05,1.49796e-06,8
-1.56843e-05,8.19075e-05,-2.86101e-05,-6.46498e-05,8.8425e-06,-6.23776e-06,1.40763e-05,1.84978e-06,8
2.26916e-06,0.000108517,-2.67164e-05,-6.65033e-05,6.24877e-06,-6.82976e-06,1.59435e-05,8.57645e-07,8
1.60556e-05,0.00011654,-2.61418e-05,-6.44473e-05,8.03345e-06,-6.8187e-06,1.59959e-05,-1.93027e-06,8
1.83543e-05,0.000124315,-2.84046e-05,-5.71264e-05,1.49043e-05,-8.04567e-06,1.48729e-05,-4.60541e-06,8
9.79923e-06,0.000144535,-3.1082e-05,-4.71306e-05,1.73596e-05,-1.02762e-05,1.41218e-05,-4.55459e-06,8
-2.56945e-06,0.000134389,-3.37982e-05,-3.74307e-05,1.43359e-05,-1.19626e-05,1.41326e-05,-1.53676e-06,8
-6.35134e-06,3.90807e-05,-3.64552e-05,-3.10016e-05,1.71525e-05,-1.15934e-05,1.34041e-05,1.41755e-06,8
-8.40117e-07,-9.67894e-05,-3.70402e-05,-3.04781e-05,2.85833e-05,-9.74269e-06,1.01403e-05,2.8435e-06,8
6.47204e-06,-0.000151248,-3.5066e-05,-3.35115e-05,3.39255e-05,-9.65629e-06,5.76599e-06,3.74186e-06,8
1.90524e-05,-9.66908e-05,-3.10811e-05,-3.30905e-05,2.53779e-05,-1.21232e-05,2.84769e-06,4.07824e-06,8
3.17597e-05,-1.60297e-05,-2.51235e-05,-2.66866e-05,1.6321e-05,-1.32308e-05,1.27153e-06,4.53286e-06,8
2.06936e-05,-1.19804e-06,-1.73574e-05,-1.80875e-05,1.3626e-05,-1.44385e-05,3.14644e-07,5.41112e-06,8
-2.21286e-05,-3.8629e-05,-6.16338e-06,-1.19346e-05,2.02877e-05,-1.88338e-05,-1.56727e-07,4.60369e-06,8
-7.70742e-05,-4.88845e-05,1.0578e-05,-7.6678e-06,4.25698e-05,-2.25526e-05,1.07869e-06,3.78476e-06,8
-0.000119131,-4.7247e-05,3.05471e-05,-4.47784e-06,6.58289e-05,-2.36394e-05,3.63414e-06,4.96271e-06,8
-0.000142446,-7.44548e-05,4.56541e-05,-1.37482e-06,7.4543e-05,-2.23238e-05,5.5495e-06,6.48572e-06,8
-0.000149612,-7.33297e-05,5.40854e-05,1.52876e-06,6.49161e-05,-2.19823e-05,6.0946e-06,7.25931e-06,8
-0.000133884,-2.26344e-05,6.03139e-05,5.66657e-06,4.2625e-05,-2.30867e-05,5.3596e-06,7.32298e-06,8
-9.47602e-05,2.69921e-06,6.50435e-05,9.50637e-06,1.7007e-05,-2.13035e-05,4.16341e-06,7.03132e-06,8
-5.81243e-05,-3.25469e-07,6.1022e-05,9.52982e-06,-1.22183e-05,-2.0067e-05,3.76834e-06,6.72487e-06,8
-4.81503e-05,7.42854e-06,4.61645e-05,6.24374e-06,-2.90192e-05,-1.9807e-05,5.15408e-06,5.59476e-06,8
-5.16828e-05,6.37451e-06,2.31106e-05,2.41613e-06,-2.25968e-05,-1.83889e-05,8.26295e-06,3.42457e-06,8
-4.30635e-05,-2.3171e-05,-4.88317e-06,4.16376e-06,-1.80369e-05,-1.63068e-05,1.24953e-05,1.37614e-06,8
-2.45929e-05,-3.56446e-05,-3.1332e-05,1.05424e-05,-2.85747e-05,-1.46706e-05,1.58682e-05,1.7887e-06,8
-1.083e-05,-4.62989e-06,-5.0969e-05,1.6622e-05,-3.618e-05,-1.39265e-05,1.6802e-05,3.80464e-06,8
-4.57064e-06,3.44492e-05,-6.12427e-05,2.0637e-05,-2.68435e-05,-1.24295e-05,1.5897e-05,4.95125e-06,8
-4.88311e-06,3.51771e-05,-6.5219e-05,2.49829e-05,-2.48705e-06,-1.0509e-05,1.49359e-05,5.06669e-06,8
-1.48642e-05,-2.04842e-05,-6.3778e-05,2.92286e-05,2.78329e-05,-9.62715e-06,1.43068e-05,4.38173e-06,8
-4.11393e-05,-7.51389e-05,-5.51847e-05,3.09723e-05,5.05111e-05,-1.03874e-05,1.43458e-05,2.89717e-06,8
-7.48532e-05,-6.17852e-05,-4.09886e-05,2.78698e-05,5.38706e-05,-1.14782e-05,1.53328e-05,1.84118e-06,8
-9.45395e-05,1.28179e-05,-2.56948e-05,1.95745e-05,4.07623e-05,-1.16846e-05,1.52517e-05,3.1178e-06,8
-9.02772e-05,8.55089e-05,-1.38745e-05,1.08818e-05,2.41579e-05,-1.08167e-05,1.30217e-05,4.24657e-06,8
-7.20292e-05,0.000118343,-8.81193e-06,5.68037e-06,1.42821e-05,-9.85486e-06,9.40692e-06,3.89461e-06,8
-4.98378e-05,0.000108291,-1.23377e-05,2.45007e-06,1.2627e-05,-9.72726e-06,6.19382e-06,3.63475e-06,8
-3.11979e-05,6.30712e-05,-2.26882e-05,-5.17739e-07,1.50624e-05,-1.05706e-05,5.63587e-06,3.69721e-06,8
-2.42631e-05,3.30454e-06,-3.08854e-05,9.64064e-07,1.68582e-05,-1.16108e-05,8.44652e-06,3.68311e-06,8
-2.89261e-05,-3.09625e-05,-2.9182e-05,4.67318e-06,1.52891e-05,-1.1468e-05,1.21774e-05,4.0797e-06,8
-3.14186e-05,-1.23209e-05,-2.26628e-05,2.72926e-06,1.24171e-05,-1.01567e-05,1.38917e-05,3.12919e-06,8
-1.93449e-05,4.93264e-05,-1.84556e-05,-6.73376e-06,9.91733e-06,-8.45316e-06,1.2708e-05,1.55974e-06,8
2.03543e-07,0.000109219,-1.45772e-05,-1.79501e-05,4.95374e-06,-7.73459e-06,1.10942e-05,1.54816e-06,8
8.19256e-06,0.000104027,-7.64995e-06,-2.38496e-05,-3.73087e-06,-1.25656e-05,1.15901e-05,2.23393e-06,8
1.84757e-06,2.9804e-05,5.4718e-06,-2.01176e-05,-1.11261e-05,-2.05152e-05,1.26187e-05,2.14725e-06,8
-8.03146e-06,-3.76047e-05,2.03849e-05,-8.09527e-06,-1.60549e-05,-2.53527e-05,1.17507e-05,1.77011e-06,8
-9.77059e-06,-2.48406e-05,3.01744e-05,3.78257e-06,-2.12755e-05,-2.63403e-05,1.22298e-05,2.03791e-06,8
-5.04241e-06,-7.11759e-06,3.42491e-05,1.36004e-05,-2.47764e-05,-2.364e-05,1.43608e-05,2.24433e-06,8
-1.07905e-05,-5.57304e-05,3.07053e-05,2.03298e-05,-2.58704e-05,-1.9306e-05,1.55012e-05,2.16417e-06,8
-2.81151e-05,-9.06988e-05,2.12633e-05,1.93047e-05,-2.37174e-05,-1.5324e-05,1.56372e-05,2.16778e-06,8
-4.01252e-05,-6.34531e-05,8.14413e-06,1.69686e-05,-1.74015e-05,-1.23883e-05,1.50037e-05,3.2204e-06,8
-4.10369e-05,9.58325e-07,-9.7896e-06,1.78287e-05,-1.11953e-05,-9.12056e-06,1.56113e-05,4.62423e-06,8
-4.85619e-05,4.31287e-05,-2.84602e-05,2.03987e-05,-4.4867e-06,-7.09976e-06,1.66051e-05,6.30506e-06,8
-6.96392e-05,3.73168e-05,-4.1444e-05,2.0808e-05,8.08796e-06,-8.11825e-06,1.63928e-05,1.13472e-05,8
-9.44991e-05,5.34468e-06,-4.55384e-05,1.1989e-05,2.98785e-05,-1.01155e-05,1.57049e-05,3.06161e-05,8
-9.79604e-05,-4.99224e-06,-4.34063e-05,-7.12174e-06,5.84097e-05,-1.05297e-05,1.53791e-05,5.84014e-05,8
-6.02032e-05,3.92591e-05,-3.99154e-05,-2.58224e-05,7.88318e-05,-7.72767e-06,1.37026e-05,7.24323e-05,8
4.70279e-06,9.49983e-05,-3.65401e-05,-3.34252e-05,7.91761e-05,-2.49878e-06,1.12443e-05,6.5652e-05,8
5.89295e-05,9.81308e-05,-3.26555e-05,-2.92712e-05,6.89724e-05,3.86542e-06,9.66695e-06,4.36789e-05,8
7.87325e-05,2.99962e-05,-2.78945e-05,-2.21579e-05,6.28735e-05,8.60373e-06,9.51369e-06,1.45594e-05,8
7.65438e-05,-7.13925e-05,-2.34008e-05,-2.06109e-05,5.996e-05,8.74999e-06,1.05262e-05,-1.57811e-05,8
7.58072e-05,-0.000136463,-1.99622e-05,-2.2773e-05,5.21211e-05,3.0551e-06,1.11132e-05,-3.83672e-05,8
6.9571e-05,-0.00010558,-1.94068e-05,-2.2077e-05,3.92885e-05,-5.93619e-06,1.09535e-05,-4.72651e-05,8
3.10898e-05,-4.05517e-06,-2.11725e-05,-1.92718e-05,2.59651e-05,-1.44196e-05,9.37869e-06,-4.69426e-05,8
-2.57945e-05,8.41278e-05,-2.27773e-05,-1.85837e-05,1.2869e-05,-1.88247e-05,6.44372e-06,-4.5151e-05,8
-5.86871e-05,0.000101825,-1.98662e-05,-1.64996e-05,-3.61357e-06,-1.87533e-05,4.18621e-06,-4.15539e-05,8
-5.63332e-05,5.7649e-05,-1.12062e-05,-1.1777e-05,-2.4139e-05,-1.78758e-05,3.93504e-06,-3.25683e-05,8
-5.0551e-05,-1.05653e-05,-4.15509e-06,-7.09166e-06,-4.10172e-05,-1.67617e-05,4.54933e-06,-2.00645e-05,8
-6.96303e-05,-5.71565e-05,-4.22319e-06,-3.88636e-06,-4.13047e-05,-1.5675e-05,6.26823e-06,-9.92755e-06,8
-0.000103498,-1.68075e-05,-9.29118e-06,-1.29193e-06,-2.73226e-05,-1.6073e-05,1.02928e-05,-4.89566e-06,8
-0.000120452,9.29801e-05,-1.79982e-05,-2.89587e-06,-2.82328e-05,-1.81774e-05,1.44567e-05,-1.74407e-06,8
-0.000108246,0.000166282,-2.54009e-05,-7.14916e-06,-4.1601e-05,-2.27021e-05,1.59177e-05,6.10105e-07,8
-7.7053e-05,0.000175502,-2.1676e-05,-7.16965e-06,-3.43858e-05,-2.46604e-05,1.50083e-05,3.62003e-06,8
-5.01908e-05,0.000136203,-8.06686e-06,-4.54489e-06,3.5155e-06,-1.88195e-05,1.34001e-05,7.25273e-06,8
-4.01418e-05,2.9731e-05,3.96367e-06,7.96851e-07,6.41081e-05,-1.01991e-05,1.31961e-05,9.22918e-06,8
-3.90048e-05,-8.54933e-05,8.64848e-06,6.46738e-06,0.000112869,-6.61653e-06,1.28311e-05,7.95759e-06,8
-4.0422e-05,-0.000122846,7.4313e-06,6.58225e-06,0.000112137,-9.3997e-06,1.19981e-05,4.93498e-06,8
-4.14645e-05,-9.27886e-05,5.56495e-06,-1.07895e-06,7.18713e-05,-1.28844e-05,1.16186e-05,2.06326e-06,8
-4.3183e-05,-5.75204e-05,9.19996e-06,-1.41454e-05,3.19894e-05,-1.21505e-05,1.20845e-05,4.84e-07,8
-4.2426e-05,-4.22862e-05,1.57317e-05,-2.40589e-05,8.46694e-06,-7.57605e-06,1.31389e-05,9.29568e-08,8
-3.7364e-05,1.73507e-06,2.39813e-05,-3.10419e-05,-4.94166e-06,-3.16658e-06,1.21319e-05,2.37825e-07,8
-2.805e-05,7.84521e-05,3.31962e-05,-3.77822e-05,-1.46479e-05,-1.23613e-06,1.08269e-05,1.28694e-07,8
-1.88053e-05,0.000142193,4.00228e-05,-4.05185e-05,-1.97424e-05,-1.9122e-06,9.8017e-06,-1.47446e-06,8
-1.33874e-05,0.000173154,4.48946e-05,-3.42289e-05,-1.66663e-05,-2.0387e-06,8.31009e-06,-1.82362e-06,8
-1.19979e-05,0.000163104,4.65549e-05,-1.40862e-05,-6.80988e-06,-7.9875e-07,7.54097e-06,-8.35958e-07,8
-1.4114e-05,9.62867e-05,4.01622e-05,2.26793e-05,3.44705e-06,-9.5265e-07,8.84744e-06,-2.15457e-07,8
-1.6167e-05,-1.50662e-07,2.41912e-05,6.47943e-05,7.17896e-06,-2.77788e-06,1.17658e-05,-1.00978e-06,8
-1.35364e-05,-4.58981e-05,3.27293e-06,8.96517e-05,4.70285e-06,-4.0019e-06,1.45902e-05,-2.08376e-06,8
-6.96878e-06,-3.90945e-05,-1.61944e-05,8.54427e-05,5.64145e-07,-5.27346e-06,1.59324e-05,-2.2655e-06,8
-5.84275e-06,-6.25106e-05,-2.8149e-05,5.62374e-05,-1.19299e-06,-8.78978e-06,1.55494e-05,-2.01371e-06,8
-1.10998e-05,-0.000137695,-3.06425e-05,1.76806e-05,-1.19753e-06,-1.26803e-05,1.4499e-05,-2.46399e-06,8
-1.05604e-05,-0.000165284,-2.52023e-05,-1.2678e-05,3.42823e-07,-1.4635e-05,1.36319e-05,-3.57933e-06,8
-5.93059e-07,-0.00012009,-1.61503e-05,-2.33061e-05,2.16561e-06,-1.38879e-05,1.25892e-05,-3.99007e-06,8
-2.00109e-06,-8.04311e-05,-1.08299e-05,-1.80005e-05,2.18517e-06,-1.39209e-05,1.14522e-05,-4.72234e-06,8
-2.4694e-05,-6.95299e-05,-1.25423e-05,-9.3586e-06,-1.65687e-06,-1.80661e-05,1.15592e-05,-5.68812e-06,8
-4.92743e-05,-3.95449e-05,-1.475e-05,-3.98068e-06,-6.73303e-06,-2.27649e-05,1.25905e-05,-5.30319e-06,8
-5.48838e-05,7.00148e-06,-1.31822e-05,1.25519e-07,-7.23447e-06,-2.28501e-05,1.35241e-05,-3.63575e-06,8
-4.26818e-05,2.86672e-05,-1.13989e-05,3.10681e-06,-8.0239e-08,-1.93751e-05,1.3345e-05,-3.34013e-06,8
-2.67866e-05,3.79672e-05,-8.45087e-06,8.79358e-07,1.1398e-05,-1.44777e-05,1.31907e-05,-4.26419e-06,8
-1.87107e-05,5.12772e-05,-3.88598e-06,-6.1363e-06,1.61415e-05,-8.84275e-06,1.41358e-05,-3.89785e-06,8
-2.04049e-05,5.89716e-05,-1.25419e-06,-1.17043e-05,-1.4764e-06,-4.56987e-06,1.51624e-05,-2.87207e-06,8
-2.43966e-05,5.54603e-05,-7.77429e-07,-1.40097e-05,-2.97506e-05,-3.27797e-06,1.60876e-05,-2.73779e-06,8
-2.73963e-05,4.49477e-05,-7.74589e-07,-1.77373e-05,-3.70387e-05,-5.26101e-06,1.56335e-05,-2.78288e-06,8
-2.6694e-05,5.46377e-05,-2.24313e-06,-2.23375e-05,-9.8066e-06,-6.6994e-06,1.37027e-05,-2.65253e-06,8
-1.87035e-05,8.5717e-05,-6.5225e-06,-2.42319e-05,6.91753e-05,-5.24848e-06,1.27488e-05,-2.46599e-06,8
-7.12699e-06,9.74833e-05,-1.0126e-05,-2.7606e-05,0.000173985,-5.27939e-06,1.29059e-05,-2.7634e-06,8
4.22999e-06,6.45567e-05,-1.10336e-05,-3.52801e-05,0.00021211,-6.1196e-06,1.34304e-05,-2.15222e-06,8
1.00237e-05,-4.48115e-06,-9.5174e-06,-4.46916e-05,0.000137755,-7.89765e-06,1.36046e-05,-5.33539e-07,8
5.9192e-06,-4.90267e-05,-8.28894e-06,-5.16557e-05,1.41028e-05,-1.20485e-05,1.41309e-05,1.83799e-07,8
-2.88629e-06,-2.30991e-05,-1.04403e-05,-5.21647e-05,-6.47065e-05,-1.55307e-05,1.57723e-05,-1.81298e-07,8
-6.21754e-06,5.16846e-05,-1.31971e-05,-4.46174e-05,-7.54823e-05,-1.50209e-05,1.70392e-05,6.10057e-07,8
4.02053e-06,0.00011053,-1.21005e-05,-3.21038e-05,-5.99619e-05,-1.12173e-05,1.75942e-05,2.50481e-06,8
1.69198e-05,0.000130671,-7.7765e-06,-1.89489e-05,-5.17133e-05,-8.67004e-06,1.76708e-05,2.57989e-06,8
1.24852e-05,0.000140062,-4.80082e-06,-5.13929e-06,-5.0453e-05,-7.6533e-06,1.63848e-05,1.04381e-06,8
-1.26998e-05,0.000143635,-5.63436e-06,8.28583e-06,-4.51541e-05,-6.10548e-06,1.46133e-05,-6.30642e-07,8
-4.12691e-05,0.000110912,-7.37129e-06,1.90193e-05,-3.08055e-05,-4.88913e-06,1.41619e-05,-2.60769e-07,8
-5.81789e-05,4.29531e-05,-5.35994e-06,2.5962e-05,-1.24931e-05,-6.78717e-06,1.48134e-05,1.96629e-06,8
-6.86907e-05,-1.53746e-05,-5.81384e-07,2.99245e-05,2.33843e-06,-9.77873e-06,1.52908e-05,3.20456e-06,8
-8.09778e-05,-4.25399e-05,2.05132e-06,2.81907e-05,1.89877e-05,-1.00663e-05,1.47432e-05,1.46904e-06,8
-8.78776e-05,-5.48806e-05,-4.04142e-07,1.92595e-05,3.60618e-05,-8.96237e-06,1.3911e-05,-1.9371e-06,8
-7.821e-05,-8.15921e-05,-3.66216e-06,8.12852e-06,3.87913e-05,-9.50183e-06,1.33435e-05,-4.13492e-06,8
-5.77836e-05,-0.00013694,-4.7097e-06,3.98146e-06,2.68835e-05,-1.10835e-05,1.23605e-05,-3.84965e-06,8
-4.2182e-05,-0.000168085,-5.31258e-06,9.91877e-06,1.07307e-05,-1.27e-05,1.18311e-05,-2.5591e-06,8
-3.64075e-05,-0.000112465,-6.14719e-06,1.53179e-05,4.6089e-07,-1.10385e-05,1.20302e-05,-1.60691e-06,8
-3.91565e-05,-2.85781e-05,-6.96967e-06,1.51376e-05,-2.87648e-06,-6.38529e-06,1.23256e-05,-9.23666e-07,8
-4.9202e-05,5.62923e-06,-8.15613e-06,1.56633e-05,-7.29751e-06,-2.79286e-06,1.29396e-05,-3.31191e-07,8
-6.30651e-05,7.29249e-06,-1.0081e-05,1.67035e-05,-1.32917e-05,-2.83954e-06,1.31918e-05,3.51942e-07,8
-7.08793e-05,3.28794e-05,-1.15562e-05,1.80222e-05,-1.52308e-05,-6.10139e-06,1.40979e-05,2.45938e-06,8
-6.91044e-05,8.16818e-05,-1.04527e-05,1.77129e-05,-9.36472e-06,-8.55508e-06,1.46262e-05,4.23126e-06,8
-5.94554e-05,0.000114796,-6.93199e-06,1.36118e-05,7.97757e-06,-7.90407e-06,1.52834e-05,4.35524e-06,8
-4.44266e-05,0.000124358,-4.51272e-06,8.4474e-06,3.08308e-05,-3.995e-06,1.7395e-05,4.49232e-06,8
-3.46929e-05,0.000117091,-4.63448e-06,4.94829e-06,3.90924e-05,-1.48158e-06,1.89584e-05,4.75753e-06,8
-2.95876e-05,7.93558e-05,-7.82108e-06,1.30599e-06,2.55404e-05,-4.85029e-06,1.88054e-05,4.47329e-06,8
-2.61173e-05,7.76998e-06,-1.17802e-05,-7.26435e-06,3.01621e-07,-1.11029e-05,1.65492e-05,3.41017e-06,8
-1.94561e-05,-2.31408e-05,-1.2863e-05,-1.8359e-05,-1.86564e-05,-1.35592e-05,1.31167e-05,2.43414e-06,8
-1.08032e-06,8.40287e-06,-1.12486e-05,-2.88579e-05,-2.61525e-05,-1.06077e-05,1.0657e-05,2.33542e-06,8
2.60932e-05,3.06064e-05,-9.50594e-06,-3.50833e-05,-2.8585e-05,-5.16069e-06,9.58055e-06,2.22796e-06,8
5.0421e-05,1.85954e-05,-9.14638e-06,-3.56186e-05,-2.80678e-05,-1.01818e-06,8.37113e-06,8.80876e-07,8
6.61614e-05,-7.5354e-07,-1.02289e-05,-3.28706e-05,-2.30679e-05,1.7189e-06,8.49666e-06,-4.09115e-07,8
6.50693e-05,-2.7667e-05,-1.13983e-05,-2.92183e-05,-9.11946e-06,4.04613e-06,1.01674e-05,-1.33624e-06,8
4.36309e-05,-5.99935e-05,-1.10398e-05,-2.4172e-05,1.08464e-05,5.17009e-06,1.12987e-05,-1.56395e-06,8
1.21709e-05,-4.83488e-05,-1.10159e-05,-1.84937e-05,2.65334e-05,4.3241e-06,1.11186e-05,-1.67715e-06,8
-2.84119e-05,7.92083e-06,-1.39177e-05,-1.5142e-05,2.94292e-05,1.80284e-06,1.10425e-05,-1.57573e-06,8
-7.90224e-05,4.78403e-05,-1.84177e-05,-1.46576e-05,2.29693e-05,-1.34222e-06,1.23903e-05,-1.14272e-06,8
-0.000124402,2.75374e-05,-2.05258e-05,-1.42312e-05,1.68595e-05,-5.50225e-06,1.4081e-05,-2.16679e-07,8
-0.00014524,-3.4197e-05,-1.88712e-05,-1.16216e-05,1.63556e-05,-9.13898e-06,1.50066e-05,1.32485e-06,8
-0.000139552,-8.65581e-05,-1.4009e-05,-8.62049e-06,1.75664e-05,-9.15948e-06,1.46807e-05,2.02281e-06,8
-0.000115933,-9.40935e-05,-8.24178e-06,-6.98585e-06,1.55302e-05,-6.54279e-06,1.33788e-05,1.1117e-06,8
-8.95136e-05,-6.48637e-05,-2.24562e-06,-7.02516e-06,9.172e-06,-6.32692e-06,1.26218e-05,-1.17909e-06,8
-6.86586e-05,-3.36833e-05,8.18754e-06,-7.33979e-06,3.7813e-06,-8.8817e-06,1.27108e-05,-2.6539e-06,8
-5.15009e-05,-1.54618e-05,2.40679e-05,-7.39824e-06,2.45074e-06,-1.06382e-05,1.26001e-05,-2.16174e-06,8
-3.83596e-05,6.3181e-07,3.9629e-05,-1.18042e-05,-6.90077e-07,-1.03818e-05,1.23624e-05,1.478e-06,8
-3.25104e-05,3.07944e-05,4.60374e-05,-2.21384e-05,-3.64465e-06,-1.04219e-05,1.35034e-05,5.71045e-06,8
-3.23041e-05,7.42771e-05,3.99223e-05,-3.33141e-05,6.58319e-07,-1.06952e-05,1.52038e-05,5.47304e-06,8
-3.14108e-05,0.00011576,2.73125e-05,-3.95031e-05,5.10116e-06,-9.6919e-06,1.53324e-05,3.79279e-06,8
-2.84157e-05,0.000136905,6.54334e-06,-3.4247e-05,2.74489e-06,-1.01323e-05,1.59863e-05,4.8126e-06,8
-2.47279e-05,0.00011383,-2.18346e-05,-1.26159e-05,-3.8033e-06,-1.21473e-05,1.76584e-05,6.85706e-06,8
-2.11225e-05,4.08188e-05,-4.42916e-05,2.04515e-05,-6.10691e-06,-1.40996e-05,1.74383e-05,7.17837e-06,8
-1.97168e-05,-3.39186e-05,-5.47509e-05,4.76408e-05,6.82386e-06,-1.53822e-05,1.46493e-05,5.73946e-06,8
-2.22572e-05,-5.9634e-05,-5.53694e-05,5.56653e-05,3.351e-05,-1.57151e-05,1.33953e-05,4.37231e-06,8
-2.56254e-05,-5.37948e-05,-5.23119e-05,4.83491e-05,5.67283e-05,-1.44751e-05,1.4865e-05,4.81358e-06,8
-2.60403e-05,-5.04244e-05,-4.76912e-05,3.85723e-05,6.37289e-05,-1.03734e-05,1.53432e-05,5.8636e-06,8
-2.21647e-05,-3.86132e-05,-3.96014e-05,2.94324e-05,6.22523e-05,-7.34075e-06,1.4898e-05,4.62174e-06,8
