ch1,ch2,ch3,ch4,ch5,ch6,ch7,ch8,class
-5.4474e-05,-5.52155e-05,-1.07908e-05,1.3436e-05,-6.70391e-06,-1.60239e-05,1.8681e-05,5.47374e-06,8
-5.35286e-05,-6.53729e-05,-3.99229e-06,4.59028e-06,5.389e-06,-1.88321e-05,1.73293e-05,6.29021e-06,8
-4.41208e-05,-4.21157e-05,5.5265e-06,-1.8244e-06,2.31387e-05,-2.22451e-05,1.56533e-05,5.56561e-06,8
-2.94699e-05,-7.07478e-06,1.13446e-05,-4.90407e-06,3.45235e-05,-2.29988e-05,1.29856e-05,4.63476e-06,8
-1.34148e-05,1.62155e-05,1.08672e-05,-8.1152e-06,3.26871e-05,-2.0594e-05,1.13586e-05,4.68063e-06,8
-5.73726e-07,2.00851e-05,6.03574e-06,-9.94346e-06,2.19059e-05,-1.8598e-05,1.26733e-05,3.96798e-06,8
4.57517e-06,1.57975e-05,3.92748e-07,-8.98565e-06,1.31045e-05,-1.88298e-05,1.30759e-05,2.79888e-06,8
4.90207e-06,1.66916e-05,-4.71008e-06,-5.65877e-06,1.58875e-05,-1.85007e-05,1.28015e-05,2.23953e-06,8
3.42864e-06,3.05372e-05,-1.10965e-05,-3.37864e-06,3.07589e-05,-1.70491e-05,1.30415e-05,1.84863e-06,8
-3.35742e-06,5.68097e-05,-2.06634e-05,-4.00245e-06,4.57669e-05,-1.57148e-05,1.27581e-05,7.55078e-07,8
-7.85086e-06,9.12317e-05,-3.01294e-05,-7.49066e-06,4.37803e-05,-1.56956e-05,1.15014e-05,-6.04652e-07,8
-3.75797e-06,0.00011524,-3.35349e-05,-9.95748e-06,2.21675e-05,-1.61815e-05,1.04896e-05,-2.19721e-06,8
-1.38437e-06,0.000108623,-2.94147e-05,-7.79543e-06,-6.08991e-06,-1.42613e-05,1.02275e-05,-3.52634e-06,8
-1.51495e-05,6.74905e-05,-2.1847e-05,-2.89746e-06,-2.38959e-05,-1.00695e-05,9.65364e-06,-3.08319e-06,8
-4.47711e-05,1.62339e-05,-1.37904e-05,3.26455e-06,-2.49092e-05,-5.49763e-06,9.3206e-06,-1.13635e-06,8
-7.36057e-05,-1.56372e-05,-7.45392e-06,8.73229e-06,-1.77441e-05,-3.75204e-06,9.61449e-06,-2.70569e-07,8
-8.32489e-05,-1.5989e-05,-6.64464e-06,1.04198e-05,-1.32047e-05,-5.73864e-06,1.05842e-05,-1.33714e-06,8
-6.77123e-05,5.16201e-06,-1.02075e-05,7.12969e-06,-1.00995e-05,-6.9542e-06,1.15773e-05,-2.03583e-06,8
-3.60588e-05,3.16851e-05,-1.12375e-05,4.3374e-06,-2.7133e-06,-3.42206e-06,1.15329e-05,-1.23832e-06,8
-3.53507e-07,6.25005e-05,-6.58245e-06,8.50038e-06,8.70293e-06,1.24019e-06,9.67563e-06,-8.03429e-08,8
2.47999e-05,0.00010681,-7.66033e-07,2.00738e-05,1.81935e-05,3.0115e-06,7.80272e-06,2.37476e-07,8
3.41081e-05,0.000152785,-5.15438e-07,3.34005e-05,1.92518e-05,3.9554e-06,7.56856e-06,3.32435e-08,8
3.90988e-05,0.000179076,-3.33597e-06,4.30605e-05,1.6669e-05,5.84455e-06,8.24528e-06,-5.09042e-07,8
3.71105e-05,0.000182072,-2.81741e-06,4.60908e-05,2.18918e-05,8.56683e-06,8.81053e-06,-1.98186e-06,8
1.00113e-05,0.000167257,6.94674e-07,4.13066e-05,3.60707e-05,9.45605e-06,8.66456e-06,-3.38637e-06,8
-4.16596e-05,0.000105786,3.74627e-06,2.8965e-05,4.26854e-05,5.09516e-06,8.61673e-06,-4.86162e-06,8
-8.32509e-05,7.5402e-06,-2.53298e-07,1.66877e-05,3.19622e-05,-5.7224e-07,9.7337e-06,-3.99569e-06,8
-9.34703e-05,-8.78587e-05,-9.91629e-06,1.1101e-05,1.99882e-05,-3.73442e-06,9.74892e-06,-5.43435e-07,8
-8.57398e-05,-0.000172381,-1.42545e-05,1.09243e-05,1.83498e-05,-3.25515e-06,9.19952e-06,1.39549e-06,8
-6.89025e-05,-0.000236799,-9.96188e-06,1.3805e-05,2.07164e-05,-8.82606e-07,9.99459e-06,1.48871e-06,8
-5.39611e-05,-0.000257078,-1.27945e-06,1.53831e-05,2.43067e-05,-9.57913e-07,9.39531e-06,1.61031e-06,8
-4.25999e-05,-0.000184914,8.56306e-06,1.63847e-05,2.87437e-05,-1.44424e-06,7.46861e-06,2.68454e-06,8
-3.39201e-05,-9.65786e-05,1.92109e-05,1.55056e-05,3.04448e-05,3.36402e-07,6.34168e-06,2.12694e-06,8
-2.72441e-05,-5.71936e-05,2.99691e-05,1.53263e-05,2.7131e-05,3.78899e-06,5.34823e-06,6.30881e-07,8
-1.8967e-05,-3.91804e-05,3.85801e-05,1.60068e-05,1.94186e-05,6.35945e-06,4.54852e-06,1.28328e-06,8
-7.22845e-06,-2.41655e-05,4.44719e-05,1.57382e-05,9.42846e-06,7.23675e-06,5.15883e-06,7.22873e-06,8
3.50015e-06,-3.04563e-05,4.80149e-05,1.51562e-05,-5.03094e-06,5.99517e-06,6.70322e-06,2.37797e-05,8
2.74009e-06,-8.08069e-05,4.73495e-05,1.19496e-05,-2.71635e-05,2.54106e-06,8.01903e-06,4.48156e-05,8
-9.92545e-06,-0.000124041,3.92759e-05,6.52226e-06,-5.26233e-05,-2.09574e-06,9.11722e-06,5.4818e-05,8
-2.5838e-05,-0.000113829,2.43425e-05,-4.81367e-07,-6.5254e-05,-6.19126e-06,1.04236e-05,4.89444e-05,8
-3.65849e-05,-6.902e-05,6.33278e-06,-7.7871e-06,-5.0137e-05,-8.54939e-06,1.09738e-05,3.15812e-05,8
-4.36486e-05,-3.77851e-05,-1.42962e-05,-1.59861e-05,-1.3906e-05,-9.78309e-06,1.08477e-05,7.87276e-06,8
-4.84581e-05,-1.84031e-05,-3.79991e-05,-2.36665e-05,2.08154e-05,-9.90447e-06,1.21317e-05,-1.6391e-05,8
-5.04034e-05,1.06939e-05,-6.1764e-05,-3.02723e-05,4.03118e-05,-8.91204e-06,1.49378e-05,-3.27964e-05,8
-4.55594e-05,5.07132e-05,-8.04065e-05,-3.39247e-05,5.28366e-05,-7.79813e-06,1.67612e-05,-3.60477e-05,8
-3.65967e-05,7.63385e-05,-8.77026e-05,-3.36232e-05,7.36625e-05,-8.12901e-06,1.692e-05,-3.04043e-05,8
-2.79145e-05,7.51482e-05,-8.04775e-05,-3.08367e-05,9.75213e-05,-9.34534e-06,1.64984e-05,-2.45898e-05,8
-2.28637e-05,6.27094e-05,-6.4389e-05,-2.65944e-05,9.62115e-05,-1.02047e-05,1.59667e-05,-2.32489e-05,8
-2.10948e-05,5.91435e-05,-4.86736e-05,-2.01595e-05,6.36441e-05,-9.38291e-06,1.55545e-05,-2.29532e-05,8
-2.11419e-05,6.27636e-05,-3.63817e-05,-1.37829e-05,3.1268e-05,-7.99209e-06,1.53451e-05,-1.84216e-05,8
-2.41016e-05,6.36725e-05,-2.65732e-05,-1.03041e-05,2.01405e-05,-8.17515e-06,1.54054e-05,-1.11688e-05,8
-3.25515e-05,5.57359e-05,-2.16914e-05,-1.13628e-05,2.14785e-05,-9.15846e-06,1.59151e-05,-5.63539e-06,8
-4.55231e-05,4.04901e-05,-2.066e-05,-1.48233e-05,2.26401e-05,-9.83816e-06,1.61111e-05,-3.21324e-06,8
-4.93292e-05,3.67082e-05,-2.25736e-05,-1.4115e-05,1.93518e-05,-9.16499e-06,1.54536e-05,-2.50976e-06,8
-3.9875e-05,4.96713e-05,-2.97725e-05,-1.33955e-05,1.23676e-05,-7.58052e-06,1.50389e-05,-1.74859e-06,8
-3.09001e-05,6.56515e-05,-3.42476e-05,-1.31596e-05,1.56119e-06,-8.91374e-06,1.50451e-05,3.35265e-08,8
-3.05244e-05,6.91358e-05,-3.06273e-05,-7.99022e-06,-9.15262e-06,-1.26489e-05,1.35983e-05,4.52888e-06,8
-3.34127e-05,6.35931e-05,-2.45701e-05,-1.28031e-06,-9.17432e-06,-1.44351e-05,1.2281e-05,8.65064e-06,8
-3.12286e-05,5.08392e-05,-2.17618e-05,2.62155e-06,4.30312e-06,-1.39186e-05,1.2223e-05,9.9443e-06,8
-2.73479e-05,2.25676e-05,-2.15381e-05,4.29837e-06,2.42643e-05,-1.32511e-05,1.23373e-05,1.02691e-05,8
-2.98081e-05,-1.33682e-05,-2.16506e-05,1.25754e-06,4.19633e-05,-1.35765e-05,1.35064e-05,9.84945e-06,8
-3.51527e-05,-3.20426e-05,-2.16618e-05,-1.21332e-05,5.64684e-05,-1.43324e-05,1.57912e-05,9.06571e-06,8
-3.75002e-05,-1.95988e-05,-2.03471e-05,-2.09519e-05,6.53373e-05,-1.47744e-05,1.67469e-05,8.23002e-06,8
-3.62358e-05,8.59672e-06,-1.63375e-05,-3.41578e-06,6.00252e-05,-1.49444e-05,1.50169e-05,7.02335e-06,8
-3.39645e-05,2.73058e-05,-1.20159e-05,2.24317e-05,4.08009e-05,-1.44818e-05,1.25414e-05,6.40748e-06,8
-3.12636e-05,3.62743e-05,-1.06566e-05,2.12454e-05,1.8332e-05,-1.44253e-05,1.09529e-05,5.0742e-06,8
-2.78877e-05,4.18281e-05,-1.0738e-05,-9.04682e-06,1.08624e-05,-1.52924e-05,1.07867e-05,2.16994e-06,8
-2.53578e-05,3.99233e-05,-9.28295e-06,-3.91185e-05,2.871e-05,-1.59715e-05,1.1358e-05,-7.19409e-07,8
-2.67862e-05,1.92446e-05,-6.25646e-06,-4.87051e-05,7.39745e-05,-1.68049e-05,1.18489e-05,-2.16578e-06,8
-3.01549e-05,-1.34292e-05,-3.86633e-06,-4.22734e-05,0.000133741,-1.73348e-05,1.18206e-05,-1.73489e-06,8
-3.08366e-05,-3.46279e-05,-4.16062e-08,-3.08928e-05,0.000159054,-1.72215e-05,1.22072e-05,-8.08235e-07,8
-2.64747e-05,-2.4969e-05,6.53951e-06,-2.15296e-05,0.000112426,-1.60376e-05,1.30707e-05,-1.59869e-06,8
-2.0891e-05,1.50178e-05,1.22507e-05,-1.82988e-05,2.47268e-05,-1.33646e-05,1.32235e-05,-4.70163e-06,8
-1.6503e-05,6.47008e-05,1.41648e-05,-2.4278e-05,-4.00242e-05,-9.91395e-06,1.32359e-05,-6.907e-06,8
-4.24593e-06,9.83167e-05,1.25423e-05,-4.03771e-05,-6.03766e-05,-6.47977e-06,1.46851e-05,-6.3906e-06,8
1.81862e-05,0.000100734,1.04723e-05,-5.722e-05,-6.61018e-05,-4.46292e-06,1.64618e-05,-3.76169e-06,8
3.30474e-05,7.90254e-05,1.04328e-05,-5.60542e-05,-8.08818e-05,-4.498e-06,1.70993e-05,-7.33984e-07,8
2.55116e-05,4.9799e-05,9.86794e-06,-3.22624e-05,-9.6897e-05,-3.66675e-06,1.7162e-05,2.41408e-06,8
3.31435e-06,2.41009e-05,8.87943e-06,-5.82582e-07,-0.000102955,-1.77221e-06,1.54533e-05,6.02604e-06,8
-2.00271e-05,7.24953e-06,1.05516e-05,2.07369e-05,-9.76486e-05,3.94691e-08,1.27791e-05,1.47283e-05,8
-3.81185e-05,4.06717e-06,1.36952e-05,1.9286e-05,-7.82318e-05,3.07464e-07,1.19051e-05,2.67349e-05,8
-5.34901e-05,1.91197e-05,1.2162e-05,5.84103e-07,-4.37095e-05,-4.15012e-06,1.14474e-05,3.01791e-05,8
-6.94795e-05,5.28041e-05,7.68244e-06,-1.90538e-05,-6.21767e-06,-9.80613e-06,1.16186e-05,2.26142e-05,8
-7.26895e-05,8.69448e-05,6.18001e-06,-2.51545e-05,2.12244e-05,-1.26812e-05,1.20813e-05,1.02904e-05,8
-5.33454e-05,0.000108537,6.36483e-06,-1.70434e-05,3.05194e-05,-1.1439e-05,1.11229e-05,1.61189e-06,8
-2.5287e-05,0.00011778,9.27691e-06,-5.99692e-06,2.60152e-05,-7.67998e-06,1.02788e-05,-2.52757e-06,8
-8.91921e-06,0.000104092,1.17894e-05,3.77749e-06,1.19799e-05,-4.7372e-06,8.91907e-06,-5.25764e-06,8
-1.2604e-05,6.67148e-05,8.82498e-06,8.01535e-06,-1.64916e-05,-4.27915e-06,7.29039e-06,-6.3732e-06,8
-3.08335e-05,1.90191e-05,1.85945e-06,5.22905e-06,-3.93485e-05,-5.97634e-06,6.67931e-06,-5.5255e-06,8
-5.05188e-05,-1.78253e-05,-3.52151e-06,-1.60244e-07,-3.60051e-05,-6.7188e-06,7.95633e-06,-5.85854e-06,8
-6.07963e-05,-2.09347e-05,-6.00707e-06,-2.33706e-06,-7.65921e-06,-5.64037e-06,8.76092e-06,-7.8643e-06,8
-5.87993e-05,-4.20545e-07,-8.5853e-06,-3.26244e-06,3.2702e-05,-5.21934e-06,8.83106e-06,-8.14253e-06,8
-4.93203e-05,1.5862e-05,-1.23149e-05,-6.85345e-06,6.10156e-05,-6.59086e-06,1.04687e-05,-6.75074e-06,8
-4.0613e-05,1.28529e-05,-1.57396e-05,-1.31767e-05,6.28243e-05,-7.00387e-06,1.21513e-05,-5.06055e-06,8
-3.69121e-05,-2.11984e-06,-1.68737e-05,-2.04687e-05,4.11915e-05,-6.13891e-06,1.16825e-05,-4.52934e-06,8
-3.46678e-05,-1.39935e-05,-1.49726e-05,-2.65436e-05,9.28505e-06,-6.18171e-06,1.01624e-05,-4.03884e-06,8
-2.97668e-05,-1.19608e-05,-1.10571e-05,-2.82967e-05,-1.59833e-05,-7.25685e-06,1.03487e-05,-1.6678e-06,8
-3.03226e-05,-6.81414e-07,-8.08095e-06,-2.26433e-05,-2.35232e-05,-8.03176e-06,1.20095e-05,2.07407e-06,8
-4.68248e-05,4.22362e-06,-7.10299e-06,-1.27054e-05,-1.74882e-05,-7.43764e-06,1.41818e-05,4.6208e-06,8
-7.67643e-05,3.16335e-06,-6.19511e-06,2.7149e-07,-1.18196e-05,-5.92411e-06,1.57222e-05,6.11867e-06,8
-9.9773e-05,1.36574e-05,-3.17376e-06,1.46718e-05,-1.51133e-05,-4.33611e-06,1.68661e-05,6.22469e-06,8
-9.34665e-05,3.69238e-05,-8.02063e-07,2.44707e-05,-1.76822e-05,-2.55126e-06,1.69426e-05,4.93407e-06,8
-5.36643e-05,5.3947e-05,-1.10616e-06,2.86017e-05,-8.96841e-06,-2.92535e-07,1.54091e-05,3.88538e-06,8
-2.69423e-06,5.47494e-05,-1.28112e-06,3.1007e-05,3.84651e-06,7.91028e-07,1.40152e-05,3.23324e-06,8
2.88758e-05,5.08704e-05,1.46121e-06,3.07468e-05,1.18559e-05,-3.5388e-07,1.39049e-05,2.11541e-06,8
3.26454e-05,4.98066e-05,6.91261e-06,3.00866e-05,1.94098e-05,-2.56134e-06,1.45476e-05,4.42721e-07,8
1.54044e-05,2.60094e-05,1.01206e-05,2.90645e-05,3.21559e-05,-4.72308e-06,1.45121e-05,1.20502e-06,8
-1.49405e-05,-2.19926e-06,8.06162e-06,3.34423e-05,3.56395e-05,-8.14967e-06,1.37149e-05,3.86063e-06,8
-4.93289e-05,-1.29203e-05,1.28588e-06,4.63778e-05,2.18418e-05,-1.31361e-05,1.35305e-05,5.13022e-06,8
-7.8831e-05,-2.40633e-05,-6.76622e-06,4.88373e-05,3.13256e-06,-1.7494e-05,1.43764e-05,5.18739e-06,8
-9.9978e-05,-3.19297e-05,-1.11031e-05,2.98277e-05,-1.10932e-05,-1.97824e-05,1.50241e-05,4.75117e-06,8
-0.000114767,-3.90787e-05,-1.2357e-05,4.37656e-06,-1.75871e-05,-1.92528e-05,1.40972e-05,4.45425e-06,8
-0.000115784,-4.82971e-05,-1.24965e-05,-1.13584e-05,-1.50272e-05,-1.78452e-05,1.32575e-05,5.65554e-06,8
-9.53211e-05,-4.34154e-05,-1.32226e-05,-1.33145e-05,2.61831e-07,-1.6413e-05,1.45478e-05,6.49153e-06,8
-5.69175e-05,-1.4715e-05,-1.39362e-05,-5.41163e-06,2.0164e-05,-1.4747e-05,1.55365e-05,6.31185e-06,8
-1.94451e-05,7.51508e-06,-1.19783e-05,1.08397e-06,2.70034e-05,-1.32413e-05,1.45681e-05,5.4978e-06,8
-1.79777e-06,7.02248e-06,-6.68287e-06,-4.62577e-07,1.7212e-05,-1.2655e-05,1.3813e-05,3.94499e-06,8
5.60492e-07,5.90883e-06,-1.1677e-06,-7.66798e-06,1.81231e-06,-1.36615e-05,1.43671e-05,2.95115e-06,8
6.68764e-07,1.81706e-05,1.76437e-06,-1.5622e-05,-3.3547e-06,-1.54541e-05,1.51396e-05,2.37287e-06,8
3.48757e-06,2.22331e-05,1.54996e-06,-2.08316e-05,6.60387e-06,-1.53023e-05,1.54034e-05,1.80688e-06,8
3.83444e-06,-6.92195e-06,-1.01374e-06,-2.34522e-05,2.44418e-05,-1.23613e-05,1.35324e-05,1.57947e-06,8
-1.9813e-06,-4.41523e-05,-4.72177e-06,-2.66731e-05,4.05573e-05,-9.75834e-06,8.73996e-06,1.24501e-06,8
-1.17033e-05,-5.18747e-05,-1.09863e-05,-3.0622e-05,5.03574e-05,-9.33534e-06,2.36815e-06,-5.67802e-08,8
-1.81896e-05,-3.11362e-05,-1.9261e-05,-3.2204e-05,5.29527e-05,-9.3626e-06,-3.01821e-06,-1.44766e-06,8
-1.90839e-05,-1.12068e-05,-2.59088e-05,-2.94691e-05,5.04045e-05,-8.03577e-06,-4.97262e-06,-1.67053e-06,8
-1.9224e-05,-3.49919e-06,-2.65205e-05,-2.3417e-05,4.58381e-05,-6.70999e-06,-2.83329e-06,-1.62576e-06,8
-2.24094e-05,-3.24724e-06,-2.28587e-05,-1.37941e-05,4.11339e-05,-6.11504e-06,1.23136e-06,-3.13016e-06,8
-2.44269e-05,-6.36303e-07,-2.07966e-05,-2.21777e-06,4.24726e-05,-6.94221e-06,4.90468e-06,-5.05937e-06,8
-1.69826e-05,1.40597e-05,-2.07951e-05,7.2825e-06,5.82589e-05,-8.12786e-06,8.75531e-06,-5.51365e-06,8
1.14277e-06,5.25948e-05,-1.94308e-05,1.26822e-05,8.58637e-05,-9.53386e-06,1.26967e-05,-5.49213e-06,8
2.14779e-05,0.000119537,-1.66251e-05,1.07599e-05,0.000101035,-1.09143e-05,1.5001e-05,-5.97514e-06,8
3.34644e-05,0.000182854,-1.37507e-05,2.41564e-07,7.87658e-05,-1.12803e-05,1.76082e-05,-5.17023e-06,8
3.11534e-05,0.000197953,-1.24228e-05,-1.30155e-05,3.11372e-05,-1.21103e-05,2.32956e-05,-2.84596e-06,8
1.71038e-05,0.000164461,-1.11925e-05,-2.10172e-05,-9.12295e-06,-1.33255e-05,3.00413e-05,-1.72985e-06,8
1.72428e-06,0.000119678,-7.65441e-06,-2.4461e-05,-2.42512e-05,-1.48266e-05,3.31014e-05,-1.37932e-06,8
-1.54586e-05,7.27503e-05,-5.56752e-06,-2.51815e-05,-2.33608e-05,-1.7547e-05,3.10617e-05,-1.5732e-06,8
-4.05936e-05,-1.1536e-05,-7.564e-06,-2.15567e-05,-2.35168e-05,-2.04396e-05,2.89769e-05,-1.98628e-06,8
-6.83383e-05,-0.000112939,-1.14928e-05,-1.31422e-05,-2.32359e-05,-2.19187e-05,2.89215e-05,-2.4963e-07,8
-8.33078e-05,-0.000161727,-1.43849e-05,-2.65381e-06,-2.8493e-05,-2.23986e-05,2.82975e-05,2.96166e-06,8
-7.60546e-05,-0.000142711,-1.41105e-05,4.64116e-06,-4.12925e-05,-2.19728e-05,2.72044e-05,5.03856e-06,8
-5.34283e-05,-9.7125e-05,-1.16498e-05,8.97062e-06,-5.43146e-05,-1.88483e-05,2.64466e-05,4.55465e-06,8
-2.81384e-05,-6.33128e-05,-9.52775e-06,1.0097e-05,-5.91151e-05,-1.39126e-05,2.44964e-05,8.55473e-07,8
-7.79222e-06,-4.53405e-05,-8.23625e-06,9.6829e-06,-4.63145e-05,-1.14719e-05,2.25145e-05,-3.7066e-06,8
7.24662e-07,-2.56795e-05,-7.69973e-06,9.05388e-06,-1.32308e-05,-1.27465e-05,2.14793e-05,-6.60206e-06,8
-3.55658e-06,3.34633e-06,-7.327e-06,8.21967e-06,2.62271e-05,-1.57612e-05,2.02308e-05,-7.26107e-06,8
-1.32902e-05,2.24075e-05,-6.56525e-06,4.69704e-06,4.85978e-05,-1.76941e-05,1.86251e-05,-6.23785e-06,8
-2.81771e-05,1.57119e-05,-6.07177e-06,-3.54779e-06,5.08657e-05,-1.8167e-05,1.69993e-05,-5.00234e-06,8
-5.49275e-05,-1.08622e-05,-6.40885e-06,-1.61659e-05,4.62773e-05,-2.01705e-05,1.51954e-05,-2.9365e-06,8
-8.44119e-05,-3.70739e-05,-7.53637e-06,-2.95791e-05,4.53136e-05,-2.38787e-05,1.29706e-05,-2.42876e-07,8
-9.36304e-05,-4.24863e-05,-8.23079e-06,-3.35262e-05,4.27708e-05,-2.54267e-05,1.06728e-05,7.14766e-07,8
-7.73249e-05,-1.52084e-05,-7.80997e-06,-2.41669e-05,3.29522e-05,-2.3387e-05,8.43912e-06,-1.30914e-06,8
-5.27179e-05,3.13089e-05,-6.24806e-06,-8.82174e-06,1.79368e-05,-1.98001e-05,6.33671e-06,-4.01769e-06,8
-3.55191e-05,7.08759e-05,-4.19361e-06,-1.00159e-06,7.3144e-06,-1.60978e-05,5.33646e-06,-5.34144e-06,8
-2.8135e-05,7.69741e-05,-4.06699e-06,-1.22835e-06,8.253e-06,-1.3474e-05,5.91103e-06,-4.27702e-06,8
-2.80524e-05,5.19636e-05,-5.78863e-06,1.90996e-06,1.78327e-05,-1.25531e-05,5.78041e-06,-2.39644e-06,8
-3.24735e-05,3.18281e-05,-6.80492e-06,1.53316e-05,3.0167e-05,-1.23209e-05,3.89811e-06,-1.95263e-06,8
-3.36886e-05,2.49942e-05,-5.33455e-06,3.43183e-05,4.90027e-05,-1.24921e-05,2.66881e-06,-4.13196e-06,8
-2.70984e-05,3.86443e-07,-2.25084e-06,4.83048e-05,7.35211e-05,-1.22835e-05,4.98178e-06,-7.66814e-06,8
-2.15503e-05,-5.31501e-05,3.03059e-07,4.82468e-05,9.56764e-05,-1.16491e-05,6.90683e-06,-8.01398e-06,8
-2.14311e-05,-6.84885e-05,1.85317e-06,3.75352e-05,0.00011269,-1.21217e-05,6.41465e-06,-4.96138e-06,8
-2.51033e-05,-6.15092e-06,3.09933e-06,2.29244e-05,0.00011514,-1.04457e-05,7.03226e-06,-2.41119e-06,8
-2.681e-05,5.3597e-05,4.84309e-06,6.29521e-06,9.26826e-05,-5.65404e-06,7.75987e-06,-1.63735e-06,8
-2.33469e-05,5.56525e-05,5.79549e-06,-6.28464e-06,5.46928e-05,-2.81138e-06,6.40967e-06,-6.85197e-07,8
-2.40887e-05,-6.85667e-06,1.83967e-06,-9.69453e-06,2.48276e-05,-4.41306e-06,5.01703e-06,1.76057e-06,8
-3.06087e-05,-7.82778e-05,-5.59103e-06,-8.48881e-06,1.38983e-05,-8.09791e-06,5.92522e-06,5.00012e-06,8
-3.53177e-05,-8.03836e-05,-1.32941e-05,-1.0818e-05,1.04438e-05,-8.22698e-06,7.52113e-06,6.93007e-06,8
-3.65121e-05,-5.22955e-05,-1.9826e-05,-1.58815e-05,2.18909e-07,-6.56704e-06,8.54951e-06,7.33042e-06,8
-3.72938e-05,-3.79531e-05,-2.09839e-05,-1.78292e-05,-1.54477e-05,-6.76501e-06,9.86056e-06,6.46361e-06,8
-3.84164e-05,-3.13785e-05,-1.6174e-05,-1.31189e-05,-3.94584e-05,-7.63704e-06,1.05582e-05,5.32394e-06,8
-3.65841e-05,-9.59928e-06,-8.95162e-06,-5.7471e-06,-6.6271e-05,-9.65079e-06,1.03541e-05,4.67045e-06,8
-3.08923e-05,3.53406e-05,-2.3013e-06,2.59121e-06,-7.39693e-05,-1.24411e-05,8.70951e-06,4.00712e-06,8
-2.64156e-05,8.28264e-05,1.19749e-06,9.86994e-06,-5.87021e-05,-1.35425e-05,6.07319e-06,4.24289e-06,8
-2.38393e-05,0.000103206,6.1116e-07,8.13647e-06,-4.48914e-05,-1.18682e-05,6.21622e-06,5.58577e-06,8
-1.84399e-05,8.76327e-05,-1.38813e-06,-7.44795e-06,-4.97157e-05,-9.62163e-06,9.29342e-06,5.21366e-06,8
-6.98308e-06,6.11228e-05,-6.05556e-07,-3.02849e-05,-5.73574e-05,-8.26568e-06,1.27101e-05,3.68789e-06,8
1.04703e-05,6.08241e-05,3.93775e-06,-4.69436e-05,-4.0657e-05,-7.46385e-06,1.50819e-05,4.38665e-06,8
2.94487e-05,9.09484e-05,8.52257e-06,-5.1576e-05,5.62554e-06,-7.53573e-06,1.62219e-05,6.99254e-06,8
4.63599e-05,0.000123823,9.13092e-06,-4.80644e-05,5.58039e-05,-8.39129e-06,1.41958e-05,8.35129e-06,8
5.84727e-05,0.000150836,4.5832e-06,-4.22255e-05,7.88493e-05,-8.38201e-06,9.52209e-06,6.25657e-06,8
6.0799e-05,0.000158451,-2.7945e-06,-3.56566e-05,6.32892e-05,-6.10479e-06,6.32822e-06,2.89781e-06,8
4.60784e-05,0.000116968,-9.49381e-06,-2.88031e-05,2.84446e-05,-1.798e-06,8.01006e-06,1.47163e-06,8
7.70784e-06,1.86251e-05,-1.45915e-05,-2.12742e-05,7.14584e-06,1.75562e-06,1.30285e-05,2.5571e-06,8
-5.22068e-05,-9.48072e-05,-1.88887e-05,-9.3883e-06,8.94149e-06,2.20196e-07,1.65888e-05,3.72956e-06,8
-0.000121263,-0.000154578,-2.53011e-05,8.64222e-06,1.24205e-05,-7.55991e-06,1.87976e-05,4.94445e-06,8
-0.000167897,-0.000136558,-3.30358e-05,2.29288e-05,3.72522e-06,-1.61904e-05,1.96543e-05,6.73916e-06,8
-0.000166342,-8.07051e-05,-3.25666e-05,2.72223e-05,-2.14359e-06,-1.88922e-05,1.85389e-05,6.93897e-06,8
-0.000132067,-4.11703e-05,-2.48062e-05,2.52374e-05,2.45303e-05,-1.54568e-05,1.63153e-05,5.94138e-06,8
-9.10354e-05,-5.94321e-05,-2.08941e-05,1.60267e-05,9.91362e-05,-1.05538e-05,1.29224e-05,5.27376e-06,8
-6.1002e-05,-7.88992e-05,-1.97284e-05,8.19546e-07,0.000149945,-8.23702e-06,1.15218e-05,5.01577e-06,8
-4.58852e-05,-4.75653e-05,-1.49818e-05,-1.72211e-05,0.000112342,-8.02203e-06,1.28101e-05,3.5371e-06,8
-4.20453e-05,-7.9716e-06,-7.03269e-06,-3.35423e-05,3.94998e-05,-9.63704e-06,1.38115e-05,1.78664e-06,8
-4.29167e-05,1.31713e-05,1.40521e-06,-4.48647e-05,2.49267e-06,-1.10859e-05,1.44068e-05,1.6144e-06,8
-4.01236e-05,1.45775e-05,4.93468e-06,-4.80205e-05,7.64443e-06,-9.04259e-06,1.55477e-05,7.92928e-07,8
-3.75104e-05,9.37927e-06,4.11822e-06,-4.09328e-05,7.81557e-06,-7.14285e-06,1.59183e-05,1.27127e-07,8
-3.60406e-05,5.21531e-06,4.59925e-06,-2.84383e-05,-1.58459e-05,-5.4777e-06,1.33707e-05,9.28018e-07,8
-3.63701e-05,7.27173e-06,8.37208e-06,-1.66512e-05,-5.57537e-05,-4.40522e-06,9.05002e-06,2.063e-06,8
-3.3942e-05,1.29359e-05,1.46022e-05,-9.75903e-06,-9.97605e-05,-3.96714e-06,7.11704e-06,1.70739e-06,8
-2.79205e-05,1.83702e-05,2.20285e-05,-2.94628e-06,-0.000130092,-4.31252e-06,9.44954e-06,1.29737e-06,8
-2.22282e-05,2.19603e-05,2.76893e-05,6.13419e-06,-0.000131986,-5.37828e-06,1.28308e-05,1.97087e-06,8
-1.96475e-05,2.15279e-05,2.5423e-05,1.29781e-05,-0.000108258,-5.91347e-06,1.51857e-05,1.77902e-06,8
-2.10039e-05,1.96291e-05,1.51475e-05,1.25518e-05,-7.59962e-05,-8.45923e-06,1.585e-05,6.45216e-07,8
-2.37133e-05,1.79502e-05,2.70153e-06,5.75607e-06,-4.26363e-05,-1.17183e-05,1.47024e-05,-1.21294e-07,8
-2.65223e-05,1.81929e-05,-7.83842e-06,-4.02832e-06,-1.11797e-05,-1.28128e-05,1.35381e-05,1.44139e-08,8
-2.74475e-05,1.85697e-05,-1.73187e-05,-1.02975e-05,1.80893e-05,-1.13232e-05,1.34942e-05,2.0904e-07,8
-2.63795e-05,2.02743e-05,-2.73627e-05,-6.31627e-06,3.65639e-05,-1.02975e-05,1.48552e-05,9.03547e-07,8
-2.39051e-05,2.25205e-05,-4.16007e-05,3.01312e-06,3.53943e-05,-1.10307e-05,1.62361e-05,1.20199e-06,8
-2.2852e-05,2.48385e-05,-6.12007e-05,7.41389e-06,2.19399e-05,-1.24284e-05,1.55591e-05,1.66914e-11,8
-2.3156e-05,2.50834e-05,-7.66204e-05,4.76326e-06,2.75822e-05,-1.17842e-05,1.38848e-05,-2.12755e-06,8
-2.41834e-05,2.3909e-05,-7.54376e-05,5.22625e-06,6.37192e-05,-9.29464e-06,1.33695e-05,-3.21393e-06,8
-2.28848e-05,2.4435e-05,-5.77908e-05,1.76021e-05,0.000110738,-7.16102e-06,1.37149e-05,-3.11426e-06,8
-1.63679e-05,2.93825e-05,-3.60019e-05,3.9128e-05,0.000142405,-6.72608e-06,1.29796e-05,-1.90481e-06,8
-5.33239e-07,3.57737e-05,-2.25113e-05,5.57591e-05,0.000144668,-6.52735e-06,1.1959e-05,-7.15227e-07,8
1.97718e-05,3.83247e-05,-2.23994e-05,5.81185e-05,0.000123681,-6.2659e-06,1.23866e-05,-1.15061e-06,8
2.98554e-05,3.39302e-05,-2.82278e-05,4.67354e-05,8.66135e-05,-6.61811e-06,1.3047e-05,-1.9404e-06,8
1.93845e-05,2.86692e-05,-2.56756e-05,2.45729e-05,2.2492e-05,-4.57594e-06,1.39468e-05,-1.11646e-06,8
-6.85009e-06,3.38266e-05,-1.13286e-05,9.31614e-08,-4.526e-05,-1.52226e-06,1.40917e-05,4.34046e-07,8
-3.21425e-05,4.07311e-05,3.88156e-06,-1.62425e-05,-7.68797e-05,-4.97365e-07,1.3557e-05,5.1523e-07,8
-5.15187e-05,3.24214e-05,1.03844e-05,-2.35166e-05,-8.04113e-05,-4.20248e-06,1.34053e-05,-4.82301e-07,8
-6.73735e-05,1.26627e-05,8.72545e-06,-2.59051e-05,-7.58235e-05,-9.7816e-06,1.34177e-05,-1.20602e-06,8
-7.65659e-05,-1.50009e-06,4.98369e-06,-2.67859e-05,-6.87944e-05,-1.02603e-05,1.43515e-05,-8.85731e-07,8
-7.48778e-05,-1.12089e-05,3.27181e-06,-2.90471e-05,-5.25054e-05,-7.079e-06,1.63285e-05,-6.42445e-07,8
-6.21559e-05,-2.81628e-05,1.34135e-06,-4.06988e-05,-3.18415e-05,-4.44259e-06,1.85746e-05,-6.93026e-08,8
-4.55075e-05,-4.72914e-05,-5.34848e-06,-5.79919e-05,-1.03564e-05,-4.02897e-06,1.73919e-05,5.79436e-07,8
-3.16888e-05,-4.95032e-05,-1.47065e-05,-6.85104e-05,1.25715e-05,-5.80584e-06,1.35032e-05,6.61232e-07,8
-2.37381e-05,-2.38985e-05,-2.1033e-05,-6.63861e-05,2.99603e-05,-7.25833e-06,1.1194e-05,-2.0575e-08,8
-2.17809e-05,1.58793e-05,-2.09096e-05,-5.47036e-05,3.01485e-05,-6.9003e-06,1.10801e-05,5.22584e-07,8
-2.0793e-05,5.03357e-05,-1.79198e-05,-3.94903e-05,1.27295e-05,-5.66323e-06,1.17086e-05,2.71958e-06,8
-1.83989e-05,6.25616e-05,-1.54509e-05,-1.73315e-05,-9.96453e-06,-5.04892e-06,1.29475e-05,3.46141e-06,8
-1.50407e-05,4.93384e-05,-1.30154e-05,1.62131e-05,-2.12952e-05,-4.69362e-06,1.39311e-05,3.26853e-06,8
-8.92099e-06,3.27771e-05,-9.16118e-06,5.62452e-05,-9.9036e-06,-3.86453e-06,1.30754e-05,3.83331e-06,8
3.19378e-06,3.62353e-05,-3.88272e-06,8.31708e-05,1.76308e-05,-3.97775e-06,1.14565e-05,4.54223e-06,8
1.7378e-05,5.95649e-05,-3.86803e-07,8.09514e-05,4.13295e-05,-6.42771e-06,1.1364e-05,4.92814e-06,8
2.49227e-05,8.20648e-05,-2.18569e-06,4.92654e-05,4.69626e-05,-8.92594e-06,1.3078e-05,6.20841e-06,8
2.39401e-05,9.43686e-05,-9.85292e-06,2.66764e-06,4.68169e-05,-9.49051e-06,1.45782e-05,7.3764e-06,8
1.72722e-05,0.000104434,-1.90629e-05,-3.96136e-05,6.02739e-05,-9.51225e-06,1.52813e-05,7.50768e-06,8
3.72799e-06,0.000112326,-2.43334e-05,-6.02295e-05,8.14449e-05,-9.67165e-06,1.65854e-05,7.10989e-06,8
-1.69151e-05,0.00010354,-2.32248e-05,-5.34289e-05,8.25874e-05,-9.88313e-06,1.90163e-05,6.55761e-06,8
-4.2385e-05,8.38967e-05,-1.88744e-05,-3.04244e-05,5.9836e-05,-1.04336e-05,2.01077e-05,6.08217e-06,8
-6.80409e-05,8.2619e-05,-1.33406e-05,-4.05514e-06,3.5429e-05,-1.16282e-05,1.89073e-05,5.19154e-06,8
-8.41034e-05,0.000122657,-3.37774e-06,1.85542e-05,2.42431e-05,-1.27429e-05,1.60537e-05,3.52306e-06,8
-8.42714e-05,0.000175109,9.18574e-06,3.64527e-05,1.77122e-05,-1.23275e-05,1.33217e-05,1.43637e-06,8
-7.3578e-05,0.000153196,1.5608e-05,5.27018e-05,6.44805e-06,-9.99965e-06,1.1407e-05,-2.17481e-06,8
-6.4205e-05,2.57545e-05,1.60432e-05,5.54545e-05,4.19386e-06,-7.1223e-06,1.08488e-05,-5.86378e-06,8
-5.87151e-05,-0.000118447,1.58662e-05,4.03116e-05,1.46099e-05,-6.90184e-06,1.07211e-05,-6.61339e-06,8
-5.58819e-05,-0.000218775,1.4545e-05,1.70518e-05,2.51839e-05,-8.25872e-06,9.99427e-06,-4.89039e-06,8
-5.47867e-05,-0.000263465,8.77958e-06,-3.85228e-06,2.86172e-05,-1.00256e-05,9.90353e-06,-2.43296e-06,8
-4.8069e-05,-0.000229517,1.81503e-06,-1.5145e-05,2.21361e-05,-1.31782e-05,1.03481e-05,-1.40953e-06,8
-3.66656e-05,-0.000153725,-3.01345e-07,-2.44787e-05,9.15883e-06,-1.57346e-05,1.23338e-05,-1.59206e-06,8
-2.3964e-05,-8.72522e-05,1.99201e-06,-3.07058e-05,-2.25009e-06,-1.44658e-05,1.40213e-05,-1.06878e-06,8
-1.11946e-05,-3.14393e-05,4.83786e-06,-3.09049e-05,-4.3202e-07,-9.2127e-06,1.3537e-05,-3.22057e-08,8
1.18793e-06,3.00573e-05,6.46103e-06,-2.29982e-05,1.16768e-05,-3.00496e-06,1.29848e-05,-2.82194e-08,8
3.85542e-06,9.19854e-05,5.6912e-06,-5.91251e-06,2.19964e-05,1.99897e-07,1.25892e-05,4.63062e-06,8
-1.10817e-05,0.000129121,1.54045e-06,1.08647e-05,2.26795e-05,-1.74813e-06,1.23081e-05,2.22106e-05,8
-3.32124e-05,9.92844e-05,-4.86304e-06,1.49053e-05,1.31659e-05,-5.77746e-06,1.31276e-05,4.31411e-05,8
-4.85144e-05,1.08571e-05,-1.05261e-05,9.1967e-06,6.42748e-06,-7.04285e-06,1.41961e-05,5.03428e-05,8
-4.92256e-05,-5.86465e-05,-1.28414e-05,3.43394e-06,1.43142e-05,-3.92199e-06,1.42165e-05,4.16156e-05,8
-3.71883e-05,-5.59028e-05,-1.29427e-05,-1.33328e-06,3.9012e-05,-3.31559e-08,1.331e-05,2.31889e-05,8
-2.19003e-05,-7.00441e-06,-1.23567e-05,-7.71107e-06,7.63552e-05,1.28253e-06,1.27723e-05,-4.04803e-07,8
-1.72686e-05,2.13874e-05,-1.17054e-05,-1.74283e-05,0.000109573,-2.41508e-07,1.20859e-05,-2.46225e-05,8
-2.40603e-05,-1.57995e-06,-1.05043e-05,-2.84932e-05,0.000107609,-2.98163e-06,1.01729e-05,-4.15771e-05,8
-3.02884e-05,-4.44064e-05,-8.23234e-06,-3.87373e-05,6.05675e-05,-6.02671e-06,8.22814e-06,-4.65172e-05,8
-2.97424e-05,-5.71872e-05,-4.89775e-06,-4.61644e-05,-6.29662e-06,-8.76221e-06,7.04606e-06,-4.50787e-05,8
-2.83234e-05,-4.72842e-05,-1.3104e-06,-5.09465e-05,-6.13942e-05,-1.12691e-05,6.42376e-06,-4.50466e-05,8
-2.52726e-05,-3.18894e-05,1.79971e-06,-5.19529e-05,-8.86327e-05,-1.27199e-05,6.14611e-06,-4.3857e-05,8
-1.05886e-05,1.23519e-05,3.59431e-06,-4.58739e-05,-8.68951e-05,-1.3153e-05,6.23146e-06,-3.61845e-05,8
1.7184e-05,9.08171e-05,3.40517e-06,-3.29117e-05,-6.36959e-05,-1.31938e-05,7.01038e-06,-2.30038e-05,8
3.75815e-05,0.000156243,-3.8124e-08,-2.1951e-05,-3.29404e-05,-1.15821e-05,7.26204e-06,-9.57887e-06,8
3.17052e-05,0.000167459,-4.15296e-06,-1.57526e-05,-7.78521e-06,-8.89744e-06,7.47508e-06,-2.829e-06,8
9.24172e-06,0.000133829,-6.31292e-06,-9.41583e-06,1.42972e-05,-6.37748e-06,7.75653e-06,-2.83858e-06,8
-1.29972e-05,9.35917e-05,-7.52184e-06,-1.69405e-06,3.16637e-05,-6.46689e-06,8.47954e-06,-2.24937e-06,8
-4.34875e-05,2.49459e-05,-7.41879e-06,1.01243e-05,4.12682e-05,-7.90753e-06,1.0031e-05,7.10997e-07,8
-8.83162e-05,-6.7387e-05,-7.97454e-06,2.50978e-05,4.44479e-05,-8.92988e-06,1.05389e-05,3.03118e-06,8
-0.000118035,-7.56814e-05,-1.01987e-05,3.24795e-05,4.19425e-05,-1.03913e-05,1.02169e-05,4.82476e-06,8
-0.000114916,-1.12606e-05,-1.19768e-05,3.08924e-05,3.64179e-05,-1.18081e-05,9.35974e-06,6.15694e-06,8
-8.97822e-05,4.64313e-05,-9.25807e-06,2.40311e-05,2.94791e-05,-1.29692e-05,8.6909e-06,6.82163e-06,8
-6.42807e-05,4.92261e-05,-3.87386e-06,1.31051e-05,2.72431e-05,-1.20613e-05,7.85726e-06,6.65924e-06,8
-4.51747e-05,-2.28087e-05,-9.75502e-07,1.22493e-06,2.73204e-05,-1.0625e-05,6.44264e-06,5.47813e-06,8
-2.96787e-05,-0.000100458,-1.30895e-07,-7.18976e-06,2.30683e-05,-1.13865e-05,5.03939e-06,3.0726e-06,8
-1.8974e-05,-0.000124895,9.42096e-07,-9.29392e-06,8.93941e-06,-1.14062e-05,4.92319e-06,2.05321e-06,8
-1.28664e-05,-0.000116355,9.22539e-07,-8.33e-06,-1.0979e-05,-9.2439e-06,7.05735e-06,3.45984e-06,8
-1.24937e-05,-0.000117679,-2.27654e-06,-8.52807e-06,-2.40667e-05,-7.71409e-06,9.46571e-06,4.96683e-06,8
-2.07194e-05,-0.000124286,-5.79474e-06,-9.74145e-06,-2.30674e-05,-8.50404e-06,1.01524e-05,6.12671e-06,8
-2.97853e-05,-0.00010846,-7.57813e-06,-8.61718e-06,-1.6968e-05,-9.08316e-06,9.38454e-06,7.17527e-06,8
-1.69415e-05,-6.44878e-05,-8.06897e-06,-5.3079e-06,-1.76266e-05,-7.52989e-06,1.03954e-05,7.42848e-06,8
1.68321e-05,-8.0762e-06,-8.59244e-06,-2.24262e-06,-2.68116e-05,-4.92581e-06,1.45205e-05,6.95829e-06,8
4.09474e-05,4.79002e-05,-9.20674e-06,-1.51301e-06,-3.89872e-05,-2.04735e-06,1.80813e-05,7.78411e-06,8
3.55935e-05,9.56543e-05,-9.40188e-06,-1.86864e-07,-4.30983e-05,8.86463e-07,1.74385e-05,1.016e-05,8
8.53859e-06,0.000119828,-9.33205e-06,3.8028e-06,-3.05732e-05,3.41268e-06,1.56057e-05,1.24079e-05,8
-2.24635e-05,0.000105473,-9.9146e-06,4.9456e-06,-3.27928e-06,3.93879e-06,1.51732e-05,1.31035e-05,8
-4.51678e-05,6.23717e-05,-1.05859e-05,-2.84819e-06,2.20092e-05,-3.95795e-08,1.50829e-05,1.26064e-05,8
-6.64293e-05,2.63953e-05,-1.05171e-05,-1.24027e-05,4.21278e-05,-7.78662e-06,1.51713e-05,1.27846e-05,8
-9.65703e-05,9.63412e-06,-1.11754e-05,-1.3514e-05,8.60727e-05,-1.31121e-05,1.42993e-05,1.62965e-05,8
-0.000123371,-8.9051e-06,-1.16158e-05,-7.1539e-06,0.000144267,-1.10798e-05,1.25857e-05,2.19088e-05,8
-0.000119138,-2.32589e-05,-1.27932e-05,-1.53132e-06,0.000147732,-4.32308e-06,1.06506e-05,2.20321e-05,8
-8.31502e-05,2.45204e-06,-1.31815e-05,8.91458e-07,8.5449e-05,1.87095e-06,9.31801e-06,1.51063e-05,8
-4.46462e-05,6.12305e-05,-1.04006e-05,2.632e-06,1.73702e-05,3.14889e-06,9.71121e-06,8.11778e-06,8
-3.07138e-05,9.04748e-05,-7.29855e-06,2.60037e-06,-1.23357e-05,2.49596e-07,1.09745e-05,3.81146e-06,8
-4.24478e-05,8.16042e-05,-4.89676e-06,1.44293e-06,-2.38081e-05,-2.92773e-06,1.17568e-05,-2.17608e-06,8
-5.50978e-05,6.92432e-05,-4.16149e-06,4.52611e-07,-3.9776e-05,-5.45676e-06,1.33155e-05,-9.12438e-06,8
-5.44538e-05,4.87752e-05,-6.12758e-06,-7.17354e-07,-5.04235e-05,-7.82064e-06,1.52067e-05,-1.14793e-05,8
-4.53211e-05,2.09168e-06,-1.15443e-05,-4.76918e-06,-5.80659e-05,-9.42368e-06,1.53261e-05,-1.08417e-05,8
-3.56859e-05,-5.61976e-05,-1.76322e-05,-8.74104e-06,-5.94743e-05,-1.05707e-05,1.51335e-05,-1.0104e-05,8
-2.69119e-05,-6.65142e-05,-1.86849e-05,-6.29382e-06,-4.90811e-05,-1.2522e-05,1.504e-05,-8.58443e-06,8
-1.84144e-05,-3.24087e-05,-1.46173e-05,7.26564e-07,-2.55099e-05,-1.29943e-05,1.45956e-05,-5.2714e-06,8
-9.38901e-06,2.47133e-06,-9.34038e-06,5.20688e-06,2.54338e-06,-1.27231e-05,1.58328e-05,-2.69722e-06,8
-3.77915e-06,1.6945e-05,-5.27573e-06,4.70613e-06,2.27815e-05,-1.2689e-05,1.813e-05,-1.06769e-06,8
-2.94889e-06,1.93511e-05,-2.09482e-06,-4.70492e-07,2.81101e-05,-1.23331e-05,1.91533e-05,9.29319e-07,8
-3.27171e-06,2.35199e-05,1.9076e-06,-9.56489e-06,3.07916e-05,-1.13251e-05,1.80509e-05,2.61566e-06,8
-2.63134e-06,2.84719e-05,8.64983e-06,-1.90457e-05,4.75385e-05,-9.98431e-06,1.73018e-05,2.30045e-06,8
-3.62917e-06,3.20772e-05,1.75788e-05,-2.83533e-05,7.22959e-05,-9.40689e-06,1.82521e-05,7.33024e-07,8
-8.32847e-06,3.06904e-05,2.78323e-05,-3.8435e-05,8.85551e-05,-9.5151e-06,1.89343e-05,9.1505e-07,8
-1.41383e-05,3.02985e-05,3.77197e-05,-4.65863e-05,8.87335e-05,-8.89353e-06,1.91094e-05,1.92399e-06,8
-1.96235e-05,3.07932e-05,4.41911e-05,-4.76939e-05,7.75573e-05,-7.29528e-06,1.88017e-05,1.94812e-06,8
-2.34543e-05,3.30135e-05,4.45215e-05,-4.0291e-05,5.84527e-05,-7.32185e-06,1.68774e-05,7.03331e-07,8
-2.55541e-05,3.58247e-05,3.76629e-05,-2.67615e-05,3.66597e-05,-8.80893e-06,1.35012e-05,7.48738e-07,8
-2.51338e-05,3.80979e-05,2.19399e-05,-8.90319e-06,1.22209e-05,-1.07456e-05,1.1559e-05,3.29335e-06,8
-2.2756e-05,3.3453e-05,-4.27667e-06,1.26088e-05,-1.47745e-05,-1.36378e-05,1.1746e-05,7.35219e-06,8
-1.90674e-05,2.07004e-05,-3.6576e-05,3.47259e-05,-3.82258e-05,-1.61353e-05,1.22476e-05,9.26416e-06,8
-1.59718e-05,1.06982e-06,-6.40727e-05,4.86388e-05,-4.74969e-05,-1.57989e-05,1.21119e-05,7.58518e-06,8
-1.69389e-05,-1.3293e-05,-7.44676e-05,5.1368e-05,-4.47171e-05,-1.49669e-05,1.22225e-05,4.52452e-06,8
-2.03566e-05,-8.57403e-06,-6.86976e-05,5.64244e-05,-4.80751e-05,-1.49006e-05,1.21483e-05,2.05189e-06,8
-2.05832e-05,1.91181e-05,-5.93602e-05,6.54791e-05,-5.48154e-05,-1.27372e-05,1.03985e-05,1.68355e-06,8
-2.11836e-05,5.89918e-05,-5.67201e-05,6.32261e-05,-3.34654e-05,-8.31523e-06,1.00844e-05,2.79147e-06,8
-2.8868e-05,8.17837e-05,-5.6946e-05,4.94857e-05,1.36651e-05,-8.45962e-06,1.18416e-05,2.12095e-06,8
-3.65951e-05,7.69334e-05,-5.18617e-05,3.48398e-05,5.91195e-05,-1.17849e-05,1.16815e-05,8.97661e-07,8
-3.56491e-05,5.76769e-05,-4.43355e-05,2.365e-05,9.29036e-05,-1.4661e-05,1.15148e-05,1.47662e-06,8
-3.16339e-05,3.93221e-05,-3.71543e-05,1.50961e-05,0.00010976,-1.64441e-05,1.25764e-05,2.79281e-06,8
-3.09555e-05,3.03435e-05,-2.94958e-05,8.49669e-06,9.4167e-05,-1.45069e-05,1.23295e-05,3.28991e-06,8
-3.02497e-05,2.88512e-05,-2.09512e-05,1.86127e-06,4.37743e-05,-1.21832e-05,1.08258e-05,1.83129e-06,8
-2.7749e-05,3.03e-05,-1.35475e-05,-4.14615e-06,-1.34731e-05,-9.98496e-06,9.98356e-06,8.89017e-07,8
-2.58387e-05,2.93403e-05,-8.69847e-06,-1.01997e-05,-4.98226e-05,-9.19228e-06,8.47003e-06,1.84369e-06,8
-2.44312e-05,2.45826e-05,-6.05268e-06,-1.88063e-05,-5.64594e-05,-8.98446e-06,7.44492e-06,3.48128e-06,8
-2.18849e-05,2.09748e-05,-5.79697e-06,-2.75713e-05,-4.56818e-05,-7.48745e-06,8.67997e-06,3.18311e-06,8
-2.04357e-05,1.90454e-05,-8.26627e-06,-3.33013e-05,-2.48708e-05,-4.40282e-06,1.05894e-05,4.19069e-07,8
-2.24974e-05,1.96274e-05,-1.10372e-05,-3.51877e-05,4.42931e-06,-2.17099e-06,1.27947e-05,-2.02629e-06,8
-2.64964e-05,2.12048e-05,-1.03218e-05,-3.30123e-05,3.18246e-05,-2.03418e-06,1.35994e-05,-2.92263e-06,8
-2.93957e-05,1.96439e-05,-5.54242e-06,-2.79139e-05,4.18383e-05,-1.80086e-06,1.22583e-05,-2.76081e-06,8
-2.82324e-05,1.07434e-05,6.14486e-08,-2.40781e-05,3.52386e-05,-2.14424e-06,1.03541e-05,-2.48296e-06,8
-2.27921e-05,1.37087e-06,2.90695e-06,-2.48879e-05,2.54616e-05,-4.4396e-06,1.01311e-05,-2.27573e-06,8
-1.72967e-05,1.07639e-06,5.51324e-06,-2.7439e-05,2.05003e-05,-8.05293e-06,1.11454e-05,-1.3814e-06,8
-1.63666e-05,6.9443e-06,1.09827e-05,-2.79319e-05,1.61738e-05,-1.08113e-05,1.31755e-05,-8.67759e-07,8
-2.00279e-05,9.97549e-06,1.74503e-05,-2.92186e-05,6.09643e-06,-1.15908e-05,1.56076e-05,-1.04729e-06,8
-2.50897e-05,1.00787e-05,2.24025e-05,-3.48798e-05,-7.21417e-06,-9.49871e-06,1.77028e-05,-1.2331e-06,8
-3.02553e-05,8.69517e-06,2.65371e-05,-4.59715e-05,-1.89758e-05,-7.26082e-06,1.84911e-05,-1.66853e-06,8
-3.77999e-05,9.14398e-06,2.86851e-05,-6.191e-05,-2.13977e-05,-6.78749e-06,1.78744e-05,-2.42632e-06,8
-5.02802e-05,2.3596e-05,2.7695e-05,-7.84834e-05,-1.03396e-05,-7.73332e-06,1.78694e-05,-2.22609e-06,8
-6.50048e-05,5.46799e-05,2.35217e-05,-8.55187e-05,3.43234e-06,-9.48293e-06,1.88251e-05,3.30832e-07,8
-7.49775e-05,7.96139e-05,1.39653e-05,-8.20127e-05,1.05246e-05,-1.09778e-05,1.87645e-05,2.5257e-06,8
-7.37542e-05,7.85269e-05,-2.47963e-06,-7.20027e-05,1.6574e-05,-1.04197e-05,1.83731e-05,2.81197e-06,8
-5.64037e-05,6.92722e-05,-2.31361e-05,-4.53723e-05,2.29219e-05,-7.49184e-06,1.89461e-05,2.61056e-06,8
-2.53199e-05,7.04779e-05,-4.10741e-05,-1.0073e-05,2.68596e-05,-7.62103e-06,1.92477e-05,8.67702e-07,8
4.74082e-06,6.02407e-05,-5.17496e-05,1.25655e-05,3.0744e-05,-1.06783e-05,1.984e-05,-7.31104e-07,8
1.78912e-05,1.86102e-05,-5.41261e-05,2.16211e-05,4.20131e-05,-9.70374e-06,1.93044e-05,-1.07028e-06,8
1.66974e-05,-2.37899e-05,-4.90783e-05,2.3994e-05,4.47392e-05,-6.45876e-06,1.81093e-05,-2.15374e-06,8
1.18752e-05,-3.61191e-05,-4.25372e-05,2.86594e-05,2.56002e-05,-6.24738e-06,1.75383e-05,-3.05854e-06,8
4.2879e-06,-3.16036e-05,-3.90969e-05,3.39344e-05,1.00985e-05,-9.46348e-06,1.72149e-05,-6.21922e-07,8
-7.76282e-06,-3.85821e-05,-3.74025e-05,3.34542e-05,1.73724e-05,-1.08807e-05,1.70381e-05,3.15162e-06,8
-2.54167e-05,-6.97638e-05,-3.44688e-05,2.62476e-05,4.45848e-05,-1.07331e-05,1.53712e-05,4.56538e-06,8
-4.1042e-05,-0.000107326,-2.93889e-05,1.58032e-05,7.08675e-05,-1.21824e-05,1.37268e-05,4.36233e-06,8
-4.68982e-05,-0.000130259,-2.31299e-05,7.14701e-06,7.25424e-05,-1.3968e-05,1.31049e-05,3.27965e-06,8
-4.50437e-05,-0.000128959,-1.67305e-05,3.93894e-06,4.71168e-05,-1.39902e-05,1.23307e-05,2.71005e-06,8
-4.17601e-05,-8.5086e-05,-1.0304e-05,4.43599e-06,1.31769e-05,-1.16826e-05,1.14565e-05,2.8856e-06,8
-3.98898e-05,3.15489e-06,-3.8521e-06,3.03068e-06,-9.82219e-06,-9.11062e-06,1.08518e-05,4.06711e-06,8
-3.87486e-05,8.66822e-05,3.44414e-07,-7.44626e-07,-1.79238e-05,-8.77551e-06,1.10558e-05,5.483e-06,8
-4.07402e-05,0.00011483,-3.2347e-07,-7.34938e-06,-1.57917e-05,-1.24639e-05,1.24289e-05,5.63872e-06,8
-4.62616e-05,8.78943e-05,-3.93757e-06,-1.61585e-05,-1.02971e-05,-1.74015e-05,1.37327e-05,3.94857e-06,8
-5.03712e-05,4.40859e-05,-4.13062e-06,-2.441e-05,-9.13082e-06,-1.94769e-05,1.33825e-05,2.02859e-06,8
-4.6504e-05,1.03027e-05,-3.50613e-07,-2.74727e-05,-1.13151e-05,-1.74794e-05,1.21673e-05,1.69949e-06,8
-3.81802e-05,-2.33692e-05,1.59094e-06,-2.44769e-05,-5.84805e-06,-1.44636e-05,1.12786e-05,2.16212e-06,8
-3.60951e-05,-5.42901e-05,-7.15737e-07,-1.84881e-05,1.34782e-05,-1.20263e-05,1.12908e-05,2.24711e-06,8
-4.55998e-05,-5.13759e-05,-5.15608e-06,-1.39841e-05,4.58338e-05,-1.10887e-05,1.18725e-05,1.61911e-06,8
-5.86532e-05,-1.31372e-05,-9.04384e-06,-1.15851e-05,7.5854e-05,-1.20781e-05,1.32357e-05,1.28383e-06,8
-6.20274e-05,2.84293e-05,-9.19174e-06,-9.38674e-06,7.55789e-05,-1.23808e-05,1.4203e-05,1.50626e-06,8
-5.1026e-05,6.54764e-05,-6.34197e-06,-5.67293e-06,4.04918e-05,-9.97611e-06,1.3585e-05,1.15812e-06,8
-3.34951e-05,0.00011061,-3.02045e-06,-5.11279e-07,1.21554e-06,-9.21945e-06,1.26818e-05,7.61517e-07,8
-1.8856e-05,0.000160717,-7.78161e-07,5.60437e-06,-1.72498e-05,-1.1481e-05,1.2664e-05,1.34535e-06,8
-1.08883e-05,0.000199418,-4.0454e-08,9.17254e-06,-2.15167e-05,-1.37375e-05,1.32386e-05,1.75554e-06,8
-1.17645e-05,0.000211984,9.56288e-07,7.42788e-06,-2.29809e-05,-1.39621e-05,1.32803e-05,1.91382e-06,8
-1.70558e-05,0.000186598,2.44356e-06,4.00982e-06,-2.01881e-05,-1.57582e-05,1.2229e-05,2.1787e-06,8
-2.14439e-05,0.00011443,3.50242e-06,3.24456e-06,-1.13241e-05,-2.09838e-05,1.10394e-05,3.89998e-06,8
-2.26662e-05,2.6067e-05,4.31393e-06,8.13424e-06,9.86915e-07,-2.51224e-05,1.06792e-05,4.6406e-06,8
-1.95498e-05,-4.53008e-05,5.03286e-06,1.29674e-05,1.0214e-05,-2.51934e-05,1.05444e-05,3.96932e-06,8
-1.84752e-05,-9.86244e-05,7.3409e-06,9.75835e-06,1.25203e-05,-1.98552e-05,9.9555e-06,3.8997e-06,8
-2.80219e-05,-0.00012083,1.04223e-05,1.889e-06,1.30204e-05,-1.50283e-05,9.38196e-06,3.42105e-06,8
-3.47587e-05,-0.000108277,1.04537e-05,-4.67724e-06,1.33618e-05,-1.42994e-05,9.35258e-06,2.79301e-06,8
-1.96947e-05,-4.53183e-05,9.57879e-06,-7.98217e-06,8.22792e-06,-1.7505e-05,9.46577e-06,2.58171e-06,8
5.1117e-06,4.47167e-05,1.13154e-05,-7.43129e-06,1.04809e-06,-2.02573e-05,1.01204e-05,2.62912e-06,8
1.4249e-05,9.61914e-05,1.64036e-05,-8.88806e-07,1.12697e-07,-2.03546e-05,1.04816e-05,2.32728e-06,8
-6.6008e-07,6.62717e-05,2.35588e-05,1.70937e-05,7.98048e-06,-1.97117e-05,1.01167e-05,1.89669e-06,8
-2.32804e-05,-1.84356e-05,3.22591e-05,4.86188e-05,2.10242e-05,-1.86941e-05,8.58609e-06,1.07122e-06,8
-3.42151e-05,-8.03051e-05,3.93204e-05,8.19209e-05,3.05216e-05,-1.80822e-05,6.89934e-06,9.2044e-07,8
-2.80547e-05,-8.82371e-05,3.76928e-05,9.81777e-05,2.98814e-05,-1.9043e-05,6.94283e-06,1.46872e-06,8
-1.46939e-05,-6.13962e-05,2.35335e-05,8.99826e-05,2.21293e-05,-2.10429e-05,8.31308e-06,1.09881e-06,8
-6.75547e-06,-3.04903e-05,-4.2693e-07,6.3261e-05,1.44776e-05,-2.10413e-05,9.191e-06,-9.53931e-08,8
-5.3169e-06,-1.48017e-05,-2.65908e-05,3.02081e-05,6.97401e-06,-1.91309e-05,8.17856e-06,-7.20883e-07,8
-9.03792e-06,-4.22243e-05,-4.78804e-05,6.25562e-06,-9.81171e-07,-1.73552e-05,6.75802e-06,-7.11012e-07,8
-2.13413e-05,-0.000119126,-5.88935e-05,3.33438e-06,-1.10128e-06,-1.75886e-05,7.02677e-06,-1.22352e-06,8
-3.94907e-05,-0.00017859,-5.70318e-05,1.27726e-05,1.29609e-05,-1.9087e-05,8.35649e-06,-1.70071e-06,8
-5.25842e-05,-0.000149574,-4.51839e-05,1.41496e-05,3.26969e-05,-1.99306e-05,9.16457e-06,-1.17522e-06,8
-5.91239e-05,-7.39133e-05,-3.08485e-05,-1.62931e-06,4.55457e-05,-1.7731e-05,1.02953e-05,-1.71466e-06,8
-6.36394e-05,-1.28258e-05,-1.78743e-05,-2.51131e-05,4.79098e-05,-1.22097e-05,1.13247e-05,-4.19649e-06,8
-7.1422e-05,1.66956e-05,-7.27209e-06,-4.11066e-05,4.50795e-05,-6.22657e-06,1.13821e-05,-5.55327e-06,8
-8.9729e-05,1.37425e-05,-5.05874e-06,-4.34052e-05,3.7918e-05,-5.13675e-06,9.95308e-06,-5.08499e-06,8
-0.000121212,-8.68338e-06,-1.5491e-05,-3.45505e-05,2.16117e-05,-8.31839e-06,7.77976e-06,-4.44449e-06,8
-0.000148278,-2.31871e-06,-2.62317e-05,-2.41169e-05,3.49803e-06,-9.81439e-06,8.03194e-06,-3.90887e-06,8
-0.000161775,4.245e-05,-2.86724e-05,-2.15994e-05,-8.43877e-06,-1.08069e-05,1.02896e-05,-3.20264e-06,8
-0.000159683,8.24396e-05,-2.86675e-05,-2.63151e-05,-1.30478e-05,-1.16992e-05,1.08963e-05,-2.33446e-06,8
-0.000123875,0.000104195,-2.63567e-05,-2.99211e-05,-7.38402e-06,-9.96859e-06,1.04105e-05,-7.49152e-07,8
-6.57393e-05,0.000107606,-2.19466e-05,-2.43944e-05,3.87664e-06,-7.22921e-06,9.53931e-06,2.20683e-07,8
-2.16809e-05,0.000108523,-1.48969e-05,-1.2626e-05,1.33636e-05,-6.2715e-06,9.05456e-06,-1.39325e-07,8
-7.09041e-06,0.000103147,-6.91649e-06,-1.21513e-06,1.72517e-05,-6.0355e-06,9.4183e-06,-3.29908e-07,8
-4.33938e-06,6.92815e-05,3.98462e-07,4.71219e-06,1.76612e-05,-4.38691e-06,9.7448e-06,-1.6132e-07,8
-1.20837e-06,1.21111e-05,8.50893e-06,6.44638e-06,1.86442e-05,-1.81205e-06,1.08482e-05,-1.05208e-06,8
-3.27352e-06,-3.38381e-05,1.47123e-05,7.93733e-06,2.39131e-05,-3.40237e-08,1.20426e-05,-3.33314e-06,8
-5.63434e-06,-6.59841e-05,1.45253e-05,7.03681e-06,3.15243e-05,3.41326e-07,1.29903e-05,-3.1969e-06,8
4.22345e-06,-0.000100014,9.28735e-06,1.54252e-06,3.09185e-05,1.66501e-07,1.40587e-05,-1.40503e-06,8
2.28748e-05,-0.000121912,6.23013e-06,-6.86534e-06,1.99178e-05,5.91222e-07,1.4249e-05,-5.99989e-07,8
3.54123e-05,-0.000102101,8.96626e-06,-1.35567e-05,1.1318e-05,2.28516e-06,1.17294e-05,-1.09675e-06,8
3.72372e-05,-4.38202e-05,1.32074e-05,-1.7419e-05,1.42467e-05,4.63135e-06,5.95462e-06,-1.85697e-06,8
3.15267e-05,1.39498e-05,1.22869e-05,-1.73714e-05,2.39046e-05,5.64007e-06,-8.83208e-07,-1.99631e-06,8
2.24526e-05,3.94541e-05,6.29377e-06,-1.54661e-05,3.41639e-05,3.82768e-06,-5.84326e-06,-2.59913e-06,8
1.27059e-05,3.6737e-05,-4.07802e-06,-1.48094e-05,3.99706e-05,-7.86876e-07,-7.59165e-06,-2.7244e-06,8
5.42757e-06,4.0053e-05,-1.6443e-05,-1.49781e-05,3.94907e-05,-5.47701e-06,-6.52953e-06,-1.71892e-06,8
1.57187e-06,7.50158e-05,-2.28539e-05,-1.20248e-05,3.52383e-05,-6.86189e-06,-4.73135e-06,-6.58556e-07,8
3.19299e-07,0.000129911,-1.81306e-05,-6.56595e-06,3.10548e-05,-4.97848e-06,-2.785e-06,7.4719e-07,8
-1.44967e-06,0.00016862,-7.36025e-06,-3.27666e-06,2.39928e-05,-1.77277e-06,5.24649e-07,2.05542e-06,8
-8.96397e-06,0.000175948,7.90329e-07,-5.56589e-06,9.86395e-06,-1.4291e-06,7.26572e-06,2.29222e-06,8
-2.60338e-05,0.000150938,3.41247e-06,-1.35796e-05,-6.66132e-06,-4.93495e-06,1.59202e-05,2.16242e-06,8
-4.86565e-05,9.83866e-05,7.84093e-06,-2.28027e-05,-1.72542e-05,-7.79815e-06,2.27703e-05,1.46021e-06,8
-6.22931e-05,3.83792e-05,1.94001e-05,-2.67485e-05,-1.37704e-05,-8.55732e-06,2.73479e-05,1.83603e-06,8
-5.3037e-05,-1.31068e-05,3.4e-05,-2.28078e-05,7.4036e-06,-9.3845e-06,3.08478e-05,2.00527e-06,8
-2.38904e-05,-5.16147e-05,4.18338e-05,-1.62052e-05,2.48109e-05,-1.20809e-05,3.2702e-05,4.28138e-07,8
4.67794e-06,-7.16363e-05,3.70601e-05,-1.29033e-05,1.41936e-05,-1.61786e-05,3.37159e-05,-2.27937e-06,8
1.52318e-05,-4.88527e-05,1.92864e-05,-1.29183e-05,-1.40374e-05,-1.88342e-05,3.43771e-05,-3.19772e-06,8
1.1157e-05,1.81321e-05,-8.28621e-06,-1.18858e-05,-3.47504e-05,-1.66962e-05,3.261e-05,-8.99767e-07,8
1.76247e-07,5.61508e-05,-3.70023e-05,-6.67195e-06,-3.95578e-05,-1.1021e-05,2.94764e-05,1.46461e-06,8
-1.29899e-05,3.37347e-05,-6.09504e-05,1.11931e-06,-3.62536e-05,-8.74766e-06,2.62471e-05,2.47228e-06,8
-2.48437e-05,-1.3383e-05,-7.60465e-05,7.41315e-06,-2.71483e-05,-1.11084e-05,2.36527e-05,2.71664e-06,8
-4.10603e-05,-5.94364e-05,-8.11307e-05,5.48225e-06,-1.26856e-05,-1.28949e-05,2.19842e-05,1.88745e-06,8
-6.44033e-05,-8.75534e-05,-7.65527e-05,-7.10263e-06,1.46854e-06,-1.36194e-05,2.13037e-05,1.11838e-06,8
-8.9917e-05,-9.25832e-05,-6.65901e-05,-2.06731e-05,7.66968e-06,-1.37922e-05,1.97514e-05,-5.68248e-09,8
-0.000100764,-7.43583e-05,-5.59823e-05,-2.39741e-05,7.50853e-06,-1.18583e-05,1.72036e-05,-5.05859e-07,8
-8.96055e-05,-4.1096e-05,-4.57535e-05,-1.70679e-05,1.41732e-05,-8.31179e-06,1.49567e-05,1.44733e-06,8
-6.77281e-05,-6.41489e-06,-3.80333e-05,-8.21226e-06,3.12827e-05,-5.71893e-06,1.29875e-05,3.51406e-06,8
-4.92728e-05,2.94661e-05,-3.39158e-05,-1.78154e-06,4.60285e-05,-5.11229e-06,1.0684e-05,4.87877e-06,8
-3.65659e-05,6.72755e-05,-2.92033e-05,-9.44374e-07,4.39963e-05,-4.58135e-06,9.03609e-06,5.82389e-06,8
-2.65667e-05,9.65216e-05,-2.02967e-05,-6.23866e-06,2.95681e-05,-3.37772e-06,9.8768e-06,6.57886e-06,8
-1.91533e-05,0.000108409,-9.6886e-06,-1.39453e-05,1.72808e-05,-2.36765e-06,1.17684e-05,6.11205e-06,8
-1.37618e-05,9.91178e-05,-1.7837e-06,-1.65454e-05,1.06498e-05,-1.23378e-06,1.34818e-05,4.67339e-06,8
-1.43834e-05,5.96545e-05,2.74818e-06,-1.08738e-05,4.55098e-06,-1.23863e-06,1.39894e-05,2.45487e-06,8
-2.42562e-05,-1.91855e-05,6.11837e-06,-2.69356e-06,-1.58537e-06,-3.97394e-06,1.3165e-05,5.86288e-07,8
-3.8917e-05,-9.94399e-05,8.61354e-06,2.38191e-06,-3.31389e-06,-6.28653e-06,1.25607e-05,-1.11693e-06,8
-4.83084e-05,-0.00010912,9.30866e-06,3.67865e-06,3.35948e-06,-6.74327e-06,1.40437e-05,-2.75364e-06,8
-5.06511e-05,-4.27148e-05,7.77651e-06,3.16192e-06,1.82699e-05,-6.1006e-06,1.57909e-05,-3.14333e-06,8
-5.41895e-05,3.4707e-05,5.15736e-06,6.25651e-06,3.15506e-05,-4.37382e-06,1.54957e-05,-2.20398e-06,8
-6.38993e-05,7.00143e-05,2.66406e-06,1.0715e-05,3.52426e-05,-2.83375e-06,1.44394e-05,-1.6985e-06,8
-7.02756e-05,6.60057e-05,1.06105e-06,9.58118e-06,3.25727e-05,-3.01346e-06,1.39812e-05,-3.74983e-06,8
-6.5318e-05,5.02575e-05,5.49715e-07,3.48243e-06,3.18103e-05,-4.285e-06,1.25282e-05,-7.6895e-06,8
-4.52596e-05,3.74389e-05,4.69971e-07,-3.65052e-06,3.51524e-05,-5.08905e-06,9.92336e-06,-1.02062e-05,8
-1.33738e-05,2.40164e-05,1.0327e-06,-2.4185e-06,3.82517e-05,-6.52706e-06,1.12792e-05,-1.00936e-05,8
1.01412e-05,1.88178e-05,2.45863e-06,7.1987e-06,3.97763e-05,-8.8686e-06,1.50922e-05,-7.97487e-06,8
1.17555e-05,5.13308e-05,4.96181e-06,1.49297e-05,4.17342e-05,-8.73338e-06,1.49532e-05,-4.1514e-06,8
3.78655e-07,9.59962e-05,6.55949e-06,1.57247e-05,4.21002e-05,-4.42975e-06,1.26765e-05,-4.22949e-07,8
-6.69315e-06,0.00010775,5.59048e-06,1.42423e-05,3.61138e-05,-1.37975e-08,1.12774e-05,1.78369e-06,8
-2.81587e-06,7.08158e-05,4.25033e-06,1.43833e-05,2.38329e-05,1.54738e-06,1.03817e-05,1.88332e-06,8
2.83499e-06,-1.00842e-05,5.00099e-06,1.21049e-05,1.00673e-05,7.9293e-07,9.4476e-06,5.72161e-07,8
2.03467e-06,-0.000107351,6.53237e-06,1.82325e-06,-2.70885e-06,-2.08109e-06,1.03347e-05,6.09169e-07,8
-4.93364e-06,-0.000157554,5.28534e-06,-1.44728e-05,-7.3386e-06,-5.59416e-06,1.21e-05,1.76719e-06,8
-1.46698e-05,-0.000115877,2.03865e-06,-2.70974e-05,1.88927e-05,-7.05659e-06,1.19117e-05,1.33011e-06,8
-2.30725e-05,-1.45557e-05,-9.09224e-07,-3.16205e-05,7.90135e-05,-6.66181e-06,1.06392e-05,-9.95912e-07,8
-3.06452e-05,7.99612e-05,-2.74225e-06,-3.12507e-05,0.000123663,-6.85725e-06,9.83416e-06,-2.94661e-06,8
-3.95534e-05,0.000128635,-3.38045e-06,-3.10594e-05,0.000104043,-9.20514e-06,9.99617e-06,-1.6184e-06,8
-4.71663e-05,0.000150538,-2.60374e-06,-3.27282e-05,3.90651e-05,-1.29113e-05,1.08789e-05,1.79583e-06,8
-4.76204e-05,0.000168562,-9.95079e-07,-3.37156e-05,-1.05629e-05,-1.56315e-05,1.21568e-05,3.86267e-06,8
-4.15062e-05,0.000163783,-3.39265e-07,-3.11107e-05,-2.47884e-05,-1.63157e-05,1.39164e-05,2.02204e-06,8
-3.48109e-05,0.000107744,-1.88759e-06,-2.44346e-05,-3.47317e-05,-1.57507e-05,1.59831e-05,-7.65765e-07,8
-2.99027e-05,3.31022e-05,-3.62634e-06,-1.68317e-05,-6.01444e-05,-1.39899e-05,1.66826e-05,-8.67372e-07,8
-2.50627e-05,-2.34401e-05,-2.98646e-06,-1.16046e-05,-9.00705e-05,-1.15785e-05,1.6285e-05,5.09752e-06,8
-2.23128e-05,-7.68915e-05,-2.19116e-06,-9.56484e-06,-0.000107621,-9.63648e-06,1.54108e-05,2.31016e-05,8
-2.46915e-05,-0.00011087,-4.27186e-06,-1.09538e-05,-0.000102745,-7.63404e-06,1.49463e-05,4.53555e-05,8
-3.07925e-05,-9.23328e-05,-6.32971e-06,-1.32578e-05,-7.99575e-05,-6.36274e-06,1.46895e-05,5.14053e-05,8
-3.57283e-05,-6.74428e-05,-2.82055e-06,-1.20927e-05,-5.73133e-05,-6.96169e-06,1.29905e-05,3.85402e-05,8
-3.52865e-05,-7.97028e-05,3.79745e-06,-7.28851e-06,-4.35328e-05,-9.38497e-06,1.06407e-05,1.88704e-05,8
-3.25333e-05,-0.000102859,6.9049e-06,-4.61432e-06,-3.99761e-05,-1.29897e-05,9.6224e-06,-3.32445e-06,8
-3.58315e-05,-0.000102816,5.49851e-06,-6.2694e-06,-3.72655e-05,-1.61015e-05,9.254e-06,-2.8147e-05,8
-4.25049e-05,-7.61395e-05,2.85957e-06,-1.164e-05,-1.22663e-05,-1.77478e-05,9.07737e-06,-4.58289e-05,8
-4.44324e-05,-2.35216e-05,1.32805e-06,-1.89909e-05,3.20766e-05,-1.98359e-05,9.44354e-06,-5.02163e-05,8
-4.07716e-05,6.30174e-05,2.12082e-06,-2.04139e-05,6.36432e-05,-2.05229e-05,1.05966e-05,-4.69693e-05,8
-3.43981e-05,0.0001503,2.80512e-06,-1.30019e-05,5.86956e-05,-1.69949e-05,1.14857e-05,-4.3302e-05,8
-3.09701e-05,0.000177388,1.45499e-06,-1.59644e-06,3.16871e-05,-1.24578e-05,1.08885e-05,-4.01647e-05,8
-3.10131e-05,0.000131628,-6.44225e-07,7.05409e-06,1.47068e-05,-9.39721e-06,1.04045e-05,-3.12787e-05,8
-3.20662e-05,5.47503e-05,-2.05392e-06,1.00677e-05,2.2491e-05,-6.15115e-06,9.52858e-06,-1.86751e-05,8
-3.26989e-05,-1.39243e-05,-2.02433e-06,1.20169e-05,5.10661e-05,-3.07951e-06,7.05096e-06,-8.15565e-06,8
-3.29936e-05,-5.9443e-05,-4.32492e-06,1.62415e-05,8.37646e-05,-2.37845e-06,5.98954e-06,-2.83593e-06,8
-3.282e-05,-7.39184e-05,-1.10805e-05,1.67331e-05,9.56244e-05,-3.12236e-06,7.48594e-06,-1.26145e-07,8
-3.16419e-05,-4.66773e-05,-1.83939e-05,7.41872e-06,7.61235e-05,-3.47595e-06,8.72105e-06,3.18699e-06,8
-2.90538e-05,-4.25944e-06,-2.06267e-05,-7.01476e-06,4.01171e-05,-2.55767e-06,9.13427e-06,6.33357e-06,8
-2.65842e-05,1.95477e-05,-1.78214e-05,-1.20608e-05,6.09111e-06,-2.49915e-06,9.74105e-06,8.51627e-06,8
-2.65691e-05,2.13708e-05,-1.37872e-05,5.07585e-06,-1.3365e-05,-4.31577e-06,1.12961e-05,1.07116e-05,8
-2.82744e-05,1.87776e-05,-1.0941e-05,3.91271e-05,-1.91807e-05,-6.68446e-06,1.36409e-05,1.26134e-05,8
