ch1,ch2,ch3,ch4,ch5,ch6,ch7,ch8,class
-2.78462e-05,3.9147e-05,-4.38614e-07,-3.66666e-06,1.51513e-05,-9.12702e-06,1.07421e-05,3.09996e-06,8
-2.86845e-05,4.80849e-05,4.428e-06,1.76812e-06,1.67284e-05,-1.02691e-05,9.7488e-06,2.65434e-06,8
-3.10041e-05,5.64118e-05,1.16114e-05,1.81996e-06,1.93828e-05,-1.30214e-05,9.59874e-06,4.06391e-06,8
-3.34922e-05,5.50516e-05,1.71634e-05,1.66137e-06,2.42056e-05,-1.4822e-05,1.03017e-05,3.62448e-06,8
-3.29711e-05,4.79879e-05,1.84445e-05,3.59134e-06,3.5465e-05,-1.34381e-05,1.20609e-05,1.13656e-06,8
-2.72019e-05,4.49616e-05,1.6286e-05,4.69753e-06,4.18696e-05,-1.12426e-05,1.30861e-05,-1.56228e-07,8
-2.24419e-05,4.15952e-05,1.23322e-05,6.68534e-06,3.15011e-05,-9.30229e-06,1.26131e-05,8.0755e-07,8
-2.30638e-05,3.39429e-05,7.87426e-06,1.06087e-05,1.43014e-05,-9.60968e-06,1.10824e-05,4.84759e-07,8
-2.56036e-05,2.50867e-05,6.42517e-06,1.5128e-05,1.38346e-06,-1.19133e-05,1.01318e-05,-8.41991e-07,8
-2.70418e-05,1.08847e-05,7.70943e-06,1.75719e-05,-9.67965e-06,-1.39592e-05,9.7931e-06,-1.33382e-06,8
-2.80146e-05,-2.51672e-06,1.01243e-05,1.76677e-05,-2.37745e-05,-1.52751e-05,1.0195e-05,-1.55376e-06,8
-3.24297e-05,-5.8125e-06,1.17069e-05,1.62372e-05,-3.30467e-05,-1.60449e-05,1.12893e-05,-1.13352e-06,8
-3.98265e-05,-2.42701e-06,1.00226e-05,1.28811e-05,-2.75166e-05,-1.54038e-05,1.18508e-05,1.25157e-07,8
-3.90257e-05,1.29524e-06,8.29908e-06,7.19942e-06,-7.41773e-06,-1.37877e-05,1.21152e-05,1.43169e-06,8
-2.1446e-05,4.09375e-06,9.69588e-06,-1.03393e-06,1.8757e-05,-1.33396e-05,1.27408e-05,2.01487e-06,8
4.49515e-06,9.60153e-06,1.703e-05,-1.10005e-05,4.11477e-05,-1.30317e-05,1.27826e-05,3.30638e-06,8
1.97194e-05,1.71965e-05,3.1398e-05,-1.85919e-05,5.40217e-05,-1.21982e-05,1.34534e-05,5.21781e-06,8
1.63784e-05,2.29834e-05,4.98726e-05,-2.08516e-05,5.96848e-05,-1.30976e-05,1.53428e-05,6.4464e-06,8
-9.99434e-07,2.48113e-05,6.39998e-05,-2.34149e-05,6.50767e-05,-1.56667e-05,1.58955e-05,5.8714e-06,8
-2.49548e-05,2.49733e-05,6.57731e-05,-3.18932e-05,6.45065e-05,-1.56309e-05,1.38522e-05,3.96302e-06,8
-5.05336e-05,2.34024e-05,5.17678e-05,-3.95124e-05,5.18583e-05,-1.36508e-05,1.16758e-05,2.30455e-06,8
-7.7979e-05,1.91851e-05,2.26062e-05,-3.82498e-05,3.23786e-05,-1.32491e-05,1.22575e-05,2.22013e-06,8
-0.000104464,1.65694e-05,-1.89114e-05,-3.37852e-05,1.81308e-05,-1.37793e-05,1.40657e-05,2.99471e-06,8
-0.000114168,2.05936e-05,-6.22627e-05,-3.49264e-05,8.64511e-06,-1.54068e-05,1.35344e-05,3.38238e-06,8
-9.51715e-05,2.96796e-05,-9.00991e-05,-3.76846e-05,-1.08896e-06,-2.25903e-05,1.12711e-05,3.14307e-06,8
-5.37626e-05,3.83516e-05,-9.45672e-05,-3.1001e-05,-5.37769e-06,-3.61071e-05,1.01804e-05,1.72467e-06,8
-8.95998e-06,4.33439e-05,-8.12505e-05,-8.16095e-06,-1.61149e-06,-4.88642e-05,1.23503e-05,-3.31303e-07,8
1.38872e-05,3.82306e-05,-6.2443e-05,2.80824e-05,5.57533e-06,-3.98086e-05,1.56128e-05,-2.12901e-06,8
7.75804e-06,1.26278e-05,-4.65237e-05,5.92002e-05,1.03248e-05,3.56335e-06,1.65962e-05,-3.32375e-06,8
-4.33021e-06,-2.97236e-05,-3.69388e-05,6.28355e-05,1.16372e-05,3.73115e-05,1.66331e-05,-3.81177e-06,8
-5.00543e-06,-5.89399e-05,-3.11711e-05,3.84387e-05,1.39994e-05,3.13277e-05,1.71116e-05,3.23091e-07,8
-9.1495e-07,-4.67636e-05,-2.5459e-05,3.54573e-06,1.45923e-05,1.15082e-05,1.78652e-05,9.62201e-06,8
-2.21103e-06,7.80145e-06,-2.24238e-05,-2.29402e-05,1.17547e-05,-1.5192e-06,1.79655e-05,1.634e-05,8
-1.05114e-05,7.59604e-05,-2.37705e-05,-3.02873e-05,1.89232e-06,-5.2674e-06,1.86203e-05,1.52735e-05,8
-1.80587e-05,0.000110482,-2.5537e-05,-2.77684e-05,-8.08133e-06,-8.31997e-06,2.05516e-05,9.9622e-06,8
-2.07003e-05,9.68014e-05,-2.37658e-05,-2.10205e-05,-7.21865e-06,-1.17707e-05,2.2122e-05,3.98921e-06,8
-1.77641e-05,6.53995e-05,-2.17648e-05,-1.54584e-05,1.67801e-06,-1.45387e-05,2.1049e-05,-1.22337e-06,8
-1.66691e-05,4.15339e-05,-2.17228e-05,-1.55101e-05,1.22633e-05,-1.55898e-05,1.78422e-05,-4.65132e-06,8
-2.61402e-05,2.6205e-05,-2.21443e-05,-1.44919e-05,1.80182e-05,-1.6155e-05,1.59004e-05,-5.99451e-06,8
-3.96501e-05,7.65048e-06,-2.13809e-05,-8.30309e-06,1.97182e-05,-1.65543e-05,1.54576e-05,-6.10962e-06,8
-4.45824e-05,-1.32587e-05,-1.88132e-05,-2.15486e-06,1.88123e-05,-1.3433e-05,1.49612e-05,-7.05192e-06,8
-3.67512e-05,-2.44193e-05,-1.61028e-05,-2.18907e-06,1.76598e-05,-6.46092e-06,1.40405e-05,-9.47426e-06,8
-2.60959e-05,-2.72151e-05,-1.52509e-05,2.93979e-07,1.76785e-05,5.19039e-07,1.28804e-05,-1.11075e-05,8
-2.68601e-05,-2.79064e-05,-1.77057e-05,1.04468e-05,1.76477e-05,2.12553e-06,1.15331e-05,-1.01297e-05,8
-4.24742e-05,-2.6796e-05,-2.04118e-05,1.92025e-05,1.29418e-05,5.15579e-07,9.97468e-06,-9.25129e-06,8
-5.80318e-05,-2.00743e-05,-1.96294e-05,1.52369e-05,2.96433e-06,-1.98063e-06,9.42364e-06,-1.05944e-05,8
-5.74749e-05,-7.83691e-06,-1.49266e-05,1.22993e-06,-8.62711e-06,-3.10974e-06,1.02365e-05,-1.31419e-05,8
-4.22542e-05,3.67798e-06,-9.8758e-06,-1.39344e-05,-1.6114e-05,-3.2584e-06,1.15746e-05,-1.52155e-05,8
-2.43433e-05,9.40631e-06,-6.80555e-06,-2.30661e-05,-1.64206e-05,-3.51977e-06,1.29132e-05,-1.04734e-05,8
-1.15318e-05,9.84456e-06,-4.29983e-06,-2.59223e-05,-1.13209e-05,-5.32679e-06,1.30495e-05,1.18692e-05,8
-5.89923e-06,1.10532e-05,-7.06008e-07,-2.54891e-05,-1.94909e-06,-7.99071e-06,1.15868e-05,4.38411e-05,8
-5.60912e-06,1.58703e-05,2.07222e-06,-2.61405e-05,1.26806e-05,-1.25898e-05,8.96555e-06,6.14574e-05,8
-7.81355e-06,1.98139e-05,2.11741e-06,-2.91841e-05,3.18431e-05,-1.78813e-05,7.34912e-06,5.61186e-05,8
-1.38295e-05,2.0508e-05,5.43886e-07,-3.14591e-05,5.17673e-05,-2.08083e-05,8.38969e-06,3.58087e-05,8
-2.87438e-05,1.77815e-05,-1.61758e-06,-3.46135e-05,6.27161e-05,-2.09823e-05,9.29573e-06,7.68909e-06,8
-5.4617e-05,1.01701e-05,-5.58169e-06,-4.29668e-05,5.61352e-05,-2.23307e-05,9.18069e-06,-2.56247e-05,8
-7.31848e-05,5.31204e-06,-7.76968e-06,-5.55315e-05,3.41944e-05,-2.21492e-05,9.666e-06,-5.02876e-05,8
-7.00898e-05,5.767e-06,-5.4388e-06,-6.34521e-05,1.96194e-06,-1.73582e-05,9.64786e-06,-5.52122e-05,8
-5.42534e-05,7.25088e-06,-3.79384e-06,-6.51765e-05,-2.2673e-05,-1.20979e-05,9.75687e-06,-5.12238e-05,8
-3.89772e-05,1.04545e-05,-1.61873e-06,-5.59584e-05,-2.468e-05,-8.45958e-06,9.51798e-06,-4.83621e-05,8
-3.99112e-05,1.42078e-05,1.18112e-06,-3.02914e-05,-7.60049e-06,-7.98822e-06,7.09761e-06,-4.58148e-05,8
-5.43502e-05,1.60617e-05,1.67382e-06,-6.54103e-07,1.51713e-05,-9.56439e-06,3.71012e-06,-3.7098e-05,8
-6.68628e-05,1.66451e-05,1.25541e-06,1.90793e-05,3.19079e-05,-1.0064e-05,1.96705e-06,-2.37265e-05,8
-6.57278e-05,1.83703e-05,4.17251e-06,2.19836e-05,4.42016e-05,-7.26966e-06,3.64799e-06,-1.11928e-05,8
-5.24145e-05,1.92759e-05,8.54076e-06,1.16378e-05,5.83462e-05,-4.92138e-06,6.97011e-06,-4.19958e-06,8
-3.38771e-05,1.60643e-05,9.06544e-06,2.67536e-06,6.95402e-05,-4.25477e-06,9.65128e-06,-1.45259e-06,8
-1.54824e-05,9.19347e-06,7.51229e-06,6.7465e-07,6.47715e-05,-3.49552e-06,1.08259e-05,1.80817e-06,8
-3.62732e-06,4.16893e-06,7.57891e-06,-5.84714e-07,4.33476e-05,-1.34319e-06,1.14547e-05,5.31906e-06,8
1.3921e-06,4.62798e-06,1.0191e-05,-5.78413e-06,1.31802e-05,5.0563e-08,1.17101e-05,9.05657e-06,8
1.69e-06,8.72573e-06,1.05565e-05,-1.27047e-05,-1.604e-05,-5.47042e-07,1.10853e-05,1.33355e-05,8
-4.77221e-08,1.41039e-05,5.09142e-06,-1.84732e-05,-3.72587e-05,-2.05906e-06,1.13243e-05,1.67189e-05,8
-4.26152e-06,1.91745e-05,-5.2413e-06,-2.30349e-05,-4.93807e-05,-2.40842e-06,1.36091e-05,1.51138e-05,8
-9.42392e-06,2.33178e-05,-1.70863e-05,-2.74279e-05,-5.26368e-05,-1.21632e-06,1.64139e-05,1.02259e-05,8
-1.30927e-05,2.52143e-05,-2.6634e-05,-2.88054e-05,-4.71595e-05,-5.01955e-07,1.77959e-05,5.70425e-06,8
-9.72607e-06,2.33246e-05,-3.04431e-05,-2.01004e-05,-3.45963e-05,-7.71443e-07,1.76579e-05,3.0575e-06,8
-1.0973e-06,1.54329e-05,-2.89683e-05,-3.38531e-07,-1.92287e-05,-4.74748e-07,1.65031e-05,1.80827e-06,8
3.11276e-06,3.06853e-06,-2.46885e-05,2.15693e-05,-3.2535e-06,1.21124e-06,1.54778e-05,1.72058e-06,8
-2.44292e-06,-4.72234e-06,-1.7721e-05,3.65941e-05,1.02834e-05,1.93062e-06,1.47212e-05,1.08573e-06,8
-1.12831e-05,-1.70015e-06,-9.55003e-06,4.19752e-05,2.02806e-05,6.34393e-07,1.38928e-05,9.36645e-07,8
-1.05975e-05,7.07937e-06,-1.68153e-06,4.06934e-05,2.97045e-05,-2.51389e-07,1.32859e-05,1.20711e-06,8
-2.51896e-06,1.27355e-05,6.40546e-06,3.6488e-05,3.71741e-05,-2.61191e-07,1.28893e-05,2.43859e-06,8
-5.44369e-06,1.87257e-05,1.58983e-05,3.32303e-05,3.23002e-05,-2.47619e-06,1.23555e-05,5.56554e-06,8
-2.88217e-05,2.76389e-05,2.65489e-05,3.02047e-05,6.48672e-06,-5.34303e-06,1.21721e-05,7.7601e-06,8
-5.48632e-05,2.6201e-05,3.42788e-05,2.47021e-05,-1.87022e-05,-5.17313e-06,1.19202e-05,6.94555e-06,8
-6.19894e-05,1.90704e-05,3.40257e-05,1.89243e-05,-2.29978e-05,-4.14127e-06,1.02431e-05,5.63865e-06,8
-5.81374e-05,1.34488e-05,2.54786e-05,1.55452e-05,-1.40347e-05,-6.47186e-06,9.88186e-06,6.42928e-06,8
-6.19389e-05,4.10246e-06,8.64087e-06,1.37865e-05,-1.14639e-06,-1.13303e-05,9.62401e-06,7.71457e-06,8
-7.64689e-05,-3.13052e-06,-1.31057e-05,1.53353e-05,-1.31075e-07,-1.49814e-05,8.37296e-06,7.71667e-06,8
-7.8232e-05,-3.05404e-06,-3.23444e-05,2.4679e-05,-9.64736e-06,-1.6026e-05,8.92289e-06,4.77655e-06,8
-5.36052e-05,6.92328e-06,-4.3132e-05,3.4347e-05,-1.59417e-05,-1.5926e-05,1.08831e-05,3.18206e-06,8
-2.4152e-05,1.51414e-05,-4.37612e-05,3.23456e-05,-1.28621e-05,-1.45763e-05,1.20538e-05,3.55141e-06,8
-4.18521e-06,1.0328e-05,-3.71169e-05,1.71262e-05,-4.45613e-06,-1.3166e-05,1.12708e-05,4.22116e-06,8
5.36606e-06,-2.81846e-06,-2.82761e-05,-7.90094e-07,5.57025e-06,-1.14581e-05,1.11135e-05,4.82465e-06,8
3.10485e-06,-1.08974e-05,-2.22775e-05,-1.31134e-05,2.20568e-05,-9.62324e-06,1.22118e-05,4.93418e-06,8
-7.89439e-06,-8.18048e-06,-1.86005e-05,-1.92803e-05,4.26643e-05,-9.07905e-06,1.44182e-05,4.27961e-06,8
-1.95228e-05,-1.71843e-06,-1.45296e-05,-2.08763e-05,5.79139e-05,-8.77407e-06,1.58464e-05,2.51244e-06,8
-3.33311e-05,5.50128e-06,-1.13406e-05,-2.09098e-05,6.49234e-05,-7.61217e-06,1.54098e-05,8.93757e-07,8
-5.38785e-05,1.51982e-05,-1.41284e-05,-2.16803e-05,7.92316e-05,-6.42239e-06,1.38024e-05,7.02287e-08,8
-7.67733e-05,2.94948e-05,-2.22603e-05,-2.18868e-05,0.000115005,-6.89695e-06,1.17338e-05,-3.45406e-07,8
-9.14425e-05,4.37748e-05,-2.93709e-05,-1.75269e-05,0.000154729,-8.71345e-06,1.11397e-05,-5.35147e-07,8
-9.21619e-05,5.07822e-05,-3.13208e-05,-1.08323e-05,0.000155414,-1.04875e-05,1.29141e-05,-4.30737e-07,8
-7.82843e-05,4.6987e-05,-2.73314e-05,-6.76159e-06,0.000108383,-1.11897e-05,1.56704e-05,-2.09222e-07,8
-5.65813e-05,3.13921e-05,-2.14331e-05,-3.61973e-06,5.0728e-05,-1.11509e-05,1.73607e-05,6.60872e-07,8
-3.98169e-05,2.34867e-06,-1.86721e-05,-1.01629e-06,1.69336e-05,-1.05424e-05,1.81023e-05,2.20579e-06,8
-3.55336e-05,-3.04427e-05,-1.62524e-05,-4.74051e-06,4.98819e-06,-1.01004e-05,1.7973e-05,3.74401e-06,8
-3.90714e-05,-5.26503e-05,-7.14992e-06,-1.34881e-05,-1.87596e-06,-8.94158e-06,1.7849e-05,3.62706e-06,8
-3.95771e-05,-4.91458e-05,8.87815e-06,-1.97785e-05,-8.06549e-06,-6.11707e-06,1.70751e-05,2.45438e-06,8
-3.77693e-05,-1.48441e-05,2.50277e-05,-2.12524e-05,-1.11603e-05,-4.82461e-06,1.53705e-05,2.43811e-06,8
-3.93878e-05,2.70544e-05,3.50008e-05,-2.15117e-05,-1.33904e-05,-9.95145e-06,1.40043e-05,4.80959e-06,8
-4.06496e-05,4.83055e-05,3.75621e-05,-2.27221e-05,-2.10387e-05,-2.20711e-05,1.44185e-05,6.34107e-06,8
-3.59476e-05,3.7407e-05,3.27193e-05,-2.12027e-05,-4.13793e-05,-3.1528e-05,1.51457e-05,4.00316e-06,8
-2.90993e-05,1.7338e-05,2.18529e-05,-1.67364e-05,-5.38498e-05,-3.27022e-05,1.39196e-05,1.59089e-06,8
-2.37794e-05,1.35188e-05,9.49411e-06,-1.22483e-05,-3.59614e-05,-3.08671e-05,1.12582e-05,1.424e-06,8
-1.86306e-05,1.91143e-05,2.43988e-07,-7.2339e-06,-5.36542e-06,-2.57889e-05,9.07709e-06,1.79429e-06,8
-1.34253e-05,2.41892e-05,-4.53595e-06,-2.44705e-06,1.93889e-05,-1.53869e-05,9.16019e-06,1.72863e-06,8
-6.80442e-06,2.27829e-05,-8.50773e-06,-3.77801e-06,2.65183e-05,-4.99906e-06,1.15969e-05,1.66812e-06,8
5.42005e-06,1.18569e-05,-1.51904e-05,-1.34777e-05,1.82519e-05,-3.2355e-06,1.48713e-05,3.20593e-06,8
2.48793e-05,-2.41429e-06,-2.39052e-05,-2.30026e-05,9.10287e-06,7.47649e-07,1.69584e-05,4.82504e-06,8
4.22927e-05,-4.74477e-06,-3.21298e-05,-2.46193e-05,9.44656e-06,9.97083e-06,1.7117e-05,3.77987e-06,8
4.10416e-05,1.86953e-05,-4.05062e-05,-1.88871e-05,1.18049e-05,8.61184e-06,1.54346e-05,1.96297e-06,8
1.54412e-05,5.12716e-05,-5.24423e-05,-1.30511e-05,6.17551e-06,-2.02579e-06,1.4101e-05,1.80829e-06,8
-2.21883e-05,5.5113e-05,-6.3326e-05,-1.29541e-05,-1.42964e-07,-1.12095e-05,1.47546e-05,3.7554e-06,8
-5.49469e-05,2.74755e-05,-6.44312e-05,-1.34875e-05,1.35854e-06,-1.26233e-05,1.5158e-05,5.90097e-06,8
-7.79034e-05,-1.34744e-06,-5.48556e-05,-6.45998e-06,8.99028e-06,-1.05426e-05,1.23601e-05,7.39269e-06,8
-9.14729e-05,-8.83027e-06,-4.07583e-05,5.97763e-06,1.57129e-05,-9.82508e-06,9.45798e-06,8.57388e-06,8
-9.2733e-05,5.31709e-06,-2.84652e-05,1.64609e-05,2.07985e-05,-1.12393e-05,9.19431e-06,8.92449e-06,8
-7.9045e-05,2.71762e-05,-1.94505e-05,2.31222e-05,2.17474e-05,-1.21885e-05,9.46622e-06,7.90498e-06,8
-5.76382e-05,4.32652e-05,-1.20855e-05,2.47162e-05,1.36845e-05,-1.23431e-05,9.53078e-06,6.23592e-06,8
-4.07621e-05,4.74394e-05,-5.91083e-06,1.657e-05,2.71524e-07,-1.21798e-05,1.06244e-05,5.01841e-06,8
-3.21913e-05,4.34875e-05,-1.30391e-06,5.72362e-06,-8.86988e-06,-1.18158e-05,1.25886e-05,3.73784e-06,8
-2.85494e-05,2.99268e-05,2.15863e-06,8.28383e-06,-9.67555e-06,-1.2003e-05,1.40162e-05,1.47341e-06,8
-2.7032e-05,-2.69935e-06,4.47582e-06,2.3927e-05,-3.01657e-06,-1.22012e-05,1.34995e-05,-1.76092e-06,8
-2.61804e-05,-4.75494e-05,5.38852e-06,4.04757e-05,2.80039e-07,-1.43559e-05,1.18106e-05,-5.26849e-06,8
-2.15563e-05,-7.08624e-05,6.47387e-06,5.07453e-05,-1.6662e-05,-1.65959e-05,1.1689e-05,-7.29847e-06,8
-6.35511e-06,-5.38584e-05,9.75162e-06,4.77862e-05,-4.0533e-05,-1.51249e-05,1.3098e-05,-6.3361e-06,8
1.716e-05,-2.01941e-05,1.68719e-05,3.13496e-05,-4.2406e-05,-1.10589e-05,1.41338e-05,-3.57823e-06,8
3.33918e-05,3.11858e-06,3.154e-05,5.90028e-06,-1.57459e-05,-9.92038e-06,1.25725e-05,-2.8319e-07,8
3.09507e-05,1.36333e-05,4.75781e-05,-2.70348e-05,2.43242e-05,-1.37703e-05,9.49256e-06,4.97049e-07,8
1.51177e-05,1.72438e-05,5.91863e-05,-6.07174e-05,4.58355e-05,-1.62222e-05,7.95178e-06,-1.32721e-06,8
-5.53854e-06,2.11536e-05,6.59462e-05,-9.21935e-05,3.36579e-05,-1.52136e-05,9.13446e-06,-2.17607e-06,8
-2.85155e-05,2.57383e-05,6.3123e-05,-0.000103592,3.78294e-06,-1.18453e-05,1.0899e-05,-8.54747e-07,8
-5.28998e-05,2.71798e-05,4.98573e-05,-8.42321e-05,-1.64112e-05,-7.73847e-06,1.17223e-05,-7.47133e-08,8
-7.43561e-05,2.31524e-05,2.64657e-05,-5.38099e-05,-1.8524e-05,-5.80495e-06,1.2166e-05,-6.98445e-07,8
-8.14938e-05,1.77869e-05,1.25489e-06,-2.99559e-05,-8.38728e-06,-4.07852e-06,1.28548e-05,-9.77614e-08,8
-7.29976e-05,1.35632e-05,-1.79827e-05,-1.86078e-05,6.2191e-06,-3.89069e-06,1.27514e-05,1.15321e-06,8
-5.68518e-05,1.10179e-05,-2.75996e-05,-1.50461e-05,1.77517e-05,-6.43486e-06,1.17849e-05,1.70649e-06,8
-4.22036e-05,1.1888e-05,-2.64099e-05,-6.87006e-06,4.7456e-05,-9.53435e-06,1.27544e-05,1.31383e-06,8
-3.36534e-05,1.67623e-05,-2.03161e-05,1.73091e-05,0.000107526,-1.10443e-05,1.45072e-05,7.61563e-07,8
-2.89643e-05,2.55445e-05,-1.61688e-05,5.00821e-05,0.000148029,-1.17513e-05,1.59633e-05,-1.06502e-07,8
-2.66058e-05,3.2e-05,-1.80263e-05,7.53725e-05,0.000118301,-1.17e-05,1.63584e-05,-1.12274e-06,8
-2.51287e-05,3.38256e-05,-2.43001e-05,8.17389e-05,4.43508e-05,-1.09538e-05,1.48034e-05,-7.12362e-07,8
-2.43921e-05,3.37294e-05,-3.09138e-05,6.54229e-05,-9.92927e-06,-1.00331e-05,1.27656e-05,2.63081e-07,8
-2.4461e-05,3.56239e-05,-3.09307e-05,3.69418e-05,-2.31372e-05,-9.88668e-06,1.13711e-05,5.70267e-07,8
-2.43964e-05,3.74592e-05,-2.10809e-05,1.59989e-05,-2.48715e-05,-1.07472e-05,1.04217e-05,3.04734e-06,8
-2.25068e-05,3.80476e-05,-4.66859e-06,1.01676e-05,-3.90227e-05,-1.11302e-05,9.85755e-06,8.04714e-06,8
-2.00699e-05,3.78352e-05,1.00268e-05,1.03299e-05,-6.09263e-05,-1.06383e-05,1.00721e-05,1.11912e-05,8
-2.04111e-05,3.64605e-05,1.89846e-05,4.85673e-06,-7.60495e-05,-9.38724e-06,1.1872e-05,9.79143e-06,8
-2.46304e-05,3.16322e-05,2.401e-05,-8.08461e-06,-7.56009e-05,-8.67198e-06,1.59023e-05,5.29051e-06,8
-3.00265e-05,2.30123e-05,2.52024e-05,-2.04865e-05,-5.7621e-05,-9.75647e-06,2.00675e-05,5.74602e-07,8
-3.26569e-05,1.30411e-05,2.27159e-05,-2.77041e-05,-3.26642e-05,-1.2032e-05,2.27392e-05,-3.90646e-06,8
-3.19689e-05,8.90317e-06,1.69013e-05,-3.12485e-05,-1.46055e-05,-1.27506e-05,2.26662e-05,-7.17247e-06,8
-3.00822e-05,1.58304e-05,6.66361e-06,-3.31525e-05,-9.22855e-06,-1.10943e-05,2.04051e-05,-8.47632e-06,8
-2.73394e-05,2.49833e-05,-8.45128e-06,-3.44899e-05,-8.20492e-06,-9.12204e-06,1.90362e-05,-8.32983e-06,8
-2.53965e-05,2.69143e-05,-3.29959e-05,-3.53555e-05,2.09783e-06,-9.56175e-06,1.85046e-05,-7.04783e-06,8
-2.63604e-05,1.93873e-05,-6.2079e-05,-3.26691e-05,1.55387e-05,-1.23762e-05,1.79002e-05,-6.22063e-06,8
-3.01871e-05,7.44458e-06,-8.42651e-05,-2.47198e-05,2.76248e-05,-1.45119e-05,1.76067e-05,-5.21387e-06,8
-3.41053e-05,8.58137e-07,-9.2068e-05,-1.28789e-05,4.4668e-05,-1.29803e-05,1.61883e-05,-3.23199e-06,8
-3.41538e-05,1.33246e-06,-8.09711e-05,-1.68731e-06,6.00199e-05,-9.76063e-06,1.33938e-05,-1.48609e-06,8
-3.32207e-05,4.14007e-06,-6.62214e-05,6.75287e-06,6.58662e-05,-7.60834e-06,1.12062e-05,-5.61984e-07,8
-3.16294e-05,1.02666e-05,-5.82073e-05,8.54745e-06,5.8414e-05,-6.99094e-06,1.0474e-05,-1.17438e-08,8
-2.56238e-05,3.22213e-05,-5.48533e-05,4.64265e-06,3.78085e-05,-7.88709e-06,1.08479e-05,2.21216e-07,8
-1.80296e-05,6.93455e-05,-5.08283e-05,2.29313e-06,1.81316e-05,-8.27778e-06,1.05002e-05,7.8287e-07,8
-1.30419e-05,9.70597e-05,-4.45317e-05,2.9226e-06,1.22963e-05,-5.50701e-06,1.03977e-05,1.64107e-06,8
-1.36434e-05,9.54655e-05,-3.69993e-05,9.11297e-06,1.75114e-05,-1.45592e-06,1.16472e-05,-1.28217e-07,8
-1.77283e-05,6.78932e-05,-2.84277e-05,2.06714e-05,2.39478e-05,2.88988e-07,1.26798e-05,-2.17693e-06,8
-2.05555e-05,3.6926e-05,-2.07036e-05,2.88542e-05,2.73421e-05,-2.06639e-06,1.17733e-05,-2.61619e-06,8
-2.26207e-05,1.46667e-05,-1.48641e-05,2.87289e-05,2.60772e-05,-7.64971e-06,8.29489e-06,-2.15758e-06,8
-2.74319e-05,-1.21356e-05,-1.25549e-05,2.53979e-05,1.79977e-05,-1.4649e-05,4.56115e-06,-1.56054e-06,8
-3.69921e-05,-5.42507e-05,-1.16876e-05,2.33406e-05,5.13105e-06,-1.98393e-05,4.72264e-06,-6.13158e-07,8
-4.75663e-05,-9.09155e-05,-9.24836e-06,2.15993e-05,3.83149e-08,-2.05201e-05,8.72108e-06,2.65443e-07,8
-5.21071e-05,-9.63223e-05,-3.52755e-06,1.42553e-05,1.35316e-05,-1.84975e-05,1.26901e-05,-1.14169e-06,8
-4.73437e-05,-6.92415e-05,2.50536e-06,-3.51394e-06,3.96745e-05,-1.73683e-05,1.44416e-05,-3.5239e-06,8
-3.42523e-05,-3.06344e-05,5.77693e-06,-2.89603e-05,5.67321e-05,-1.82294e-05,1.36275e-05,-4.05877e-06,8
-1.53972e-05,-7.89e-07,5.23997e-06,-5.19324e-05,5.27534e-05,-1.72408e-05,1.20293e-05,-3.32912e-06,8
3.75288e-06,1.4716e-05,2.41092e-06,-6.39249e-05,3.69544e-05,-1.36822e-05,1.18266e-05,-3.94883e-06,8
1.3668e-05,1.31233e-05,-2.44426e-06,-6.51983e-05,2.07187e-05,-1.0901e-05,1.29315e-05,-4.63127e-06,8
6.63665e-06,8.6615e-07,-6.52364e-06,-5.82361e-05,6.42074e-06,-1.07142e-05,1.40378e-05,-4.34552e-06,8
-9.74843e-06,-4.89429e-06,-5.72067e-06,-4.43893e-05,-5.74746e-06,-1.38072e-05,1.47615e-05,-2.62544e-06,8
-2.40806e-05,-7.64112e-06,-2.18059e-06,-2.86354e-05,-1.49896e-05,-1.66837e-05,1.43912e-05,-1.18931e-06,8
-4.09263e-05,-2.0591e-05,1.69867e-06,-1.71127e-05,-1.84982e-05,-1.49374e-05,1.3274e-05,-1.16213e-06,8
-6.77596e-05,-3.70216e-05,6.66283e-06,-1.0686e-05,-1.26694e-05,-1.06369e-05,1.28146e-05,-7.75843e-07,8
-8.82297e-05,-3.23233e-05,1.08321e-05,-7.90563e-06,-8.07515e-06,-8.17511e-06,1.32681e-05,-4.56312e-07,8
-8.4395e-05,-4.80495e-06,1.21845e-05,-8.54636e-06,-7.31592e-06,-9.0779e-06,1.09725e-05,-1.65825e-07,8
-6.15774e-05,2.13026e-05,1.02988e-05,-1.32234e-05,4.45319e-06,-1.01462e-05,6.58386e-06,3.35633e-07,8
-3.7332e-05,3.28154e-05,9.38535e-06,-1.50813e-05,2.58084e-05,-9.19214e-06,4.45549e-06,8.86429e-07,8
-2.48999e-05,4.24884e-05,1.18845e-05,-7.99503e-06,3.52033e-05,-7.44924e-06,4.20266e-06,2.61331e-06,8
-2.17808e-05,6.97267e-05,1.19973e-05,-9.88404e-08,2.45378e-05,-7.89469e-06,5.04757e-06,3.39671e-06,8
-2.13192e-05,9.45863e-05,1.04559e-05,4.34936e-06,9.26161e-06,-9.90764e-06,7.35289e-06,1.66336e-06,8
-1.70458e-05,9.81096e-05,1.13315e-05,9.03072e-06,-3.42937e-06,-1.15848e-05,9.65719e-06,-4.89242e-07,8
-1.03492e-05,8.69783e-05,1.49246e-05,1.25822e-05,-1.48444e-05,-1.12729e-05,1.12342e-05,-1.19262e-06,8
-7.69552e-06,6.98148e-05,1.58985e-05,9.35307e-06,-2.0993e-05,-8.8769e-06,1.2403e-05,-1.32675e-06,8
-1.22859e-05,4.92153e-05,1.17673e-05,-1.84674e-06,-1.5454e-05,-5.7365e-06,1.22445e-05,-2.26967e-06,8
-2.25209e-05,1.4497e-05,7.03463e-06,-1.31674e-05,2.42417e-06,-4.76396e-06,1.16847e-05,-3.315e-06,8
-3.27883e-05,-5.44678e-05,4.56597e-06,-1.70342e-05,2.65487e-05,-7.92431e-06,1.22069e-05,-3.28158e-06,8
-4.04297e-05,-0.00013076,1.93503e-06,-1.58531e-05,4.87671e-05,-1.23422e-05,1.31519e-05,-1.56365e-06,8
-4.60351e-05,-0.000149187,-1.8379e-06,-1.55965e-05,5.79191e-05,-1.572e-05,1.25928e-05,-9.05091e-08,8
-4.73455e-05,-0.000107591,-3.60452e-06,-1.6115e-05,4.90383e-05,-1.82628e-05,1.13147e-05,-7.51221e-07,8
-3.66123e-05,-5.99397e-05,-2.23846e-06,-1.59024e-05,3.20827e-05,-2.02345e-05,1.10308e-05,-1.74355e-06,8
-1.68294e-05,-4.21988e-05,1.56002e-06,-1.78046e-05,2.00285e-05,-2.06591e-05,1.16353e-05,-8.0227e-07,8
-2.77098e-06,-4.7555e-05,8.00751e-06,-2.42377e-05,1.5694e-05,-2.02338e-05,1.26829e-05,1.39573e-06,8
-1.6313e-06,-5.02151e-05,1.85745e-05,-3.24012e-05,1.73752e-05,-1.87237e-05,1.42074e-05,2.75189e-06,8
-1.19128e-05,-3.1171e-05,3.21301e-05,-3.79308e-05,1.52992e-05,-1.69164e-05,1.46775e-05,2.36704e-06,8
-3.07181e-05,6.90644e-06,4.07135e-05,-4.13859e-05,1.46336e-06,-1.58432e-05,1.46179e-05,2.18596e-06,8
-5.04293e-05,5.73204e-05,3.89162e-05,-4.56378e-05,-1.11303e-05,-1.64669e-05,1.51538e-05,2.36802e-06,8
-6.39848e-05,9.64433e-05,2.67871e-05,-4.84621e-05,-7.52574e-06,-1.81477e-05,1.54617e-05,2.52552e-06,8
-6.36527e-05,8.68934e-05,5.45741e-06,-4.84117e-05,-1.51389e-06,-1.91345e-05,1.4717e-05,2.78281e-06,8
-4.30493e-05,4.67338e-05,-1.88574e-05,-4.07088e-05,-3.29027e-06,-1.83984e-05,1.33212e-05,2.31276e-06,8
-1.03658e-05,1.93865e-05,-3.86037e-05,-1.48651e-05,1.02219e-05,-1.67007e-05,1.32074e-05,3.02832e-07,8
7.77978e-06,1.62801e-05,-4.70056e-05,1.74051e-05,4.99843e-05,-1.42822e-05,1.25154e-05,1.7355e-08,8
1.72198e-06,2.40575e-05,-4.54352e-05,4.23741e-05,8.35893e-05,-1.28454e-05,1.23314e-05,1.8425e-06,8
-1.28712e-05,2.43061e-05,-3.96448e-05,5.84755e-05,8.78218e-05,-1.54519e-05,1.44687e-05,2.15576e-06,8
-2.48585e-05,2.18579e-05,-3.24751e-05,6.5944e-05,7.69343e-05,-1.71831e-05,1.57608e-05,2.18017e-06,8
-3.4813e-05,2.59385e-05,-2.53711e-05,7.42862e-05,6.65294e-05,-1.35943e-05,1.54988e-05,2.29938e-06,8
-5.42199e-05,2.84502e-05,-2.13912e-05,7.47561e-05,5.5579e-05,-1.16984e-05,1.52201e-05,2.88684e-06,8
-7.50099e-05,2.41153e-05,-2.24379e-05,6.09599e-05,4.09621e-05,-1.44447e-05,1.68318e-05,2.94767e-06,8
-7.74235e-05,2.17688e-05,-2.3292e-05,4.55931e-05,2.94156e-05,-1.7025e-05,1.80175e-05,2.12151e-06,8
-5.84269e-05,2.74949e-05,-2.22121e-05,3.71679e-05,2.2346e-05,-1.94514e-05,1.71358e-05,2.05378e-06,8
-3.5573e-05,3.46234e-05,-2.04958e-05,2.86847e-05,1.84905e-05,-2.62509e-05,1.56952e-05,3.29257e-06,8
-2.60865e-05,3.63454e-05,-1.87425e-05,1.31461e-05,1.9108e-05,-3.69031e-05,1.44633e-05,5.80163e-06,8
-2.85703e-05,3.18229e-05,-1.66276e-05,-5.69369e-06,2.10532e-05,-3.56614e-05,1.46877e-05,7.51134e-06,8
-3.33394e-05,2.77987e-05,-1.33123e-05,-2.2862e-05,1.9048e-05,-8.40835e-06,1.54326e-05,6.76301e-06,8
-3.46446e-05,2.91641e-05,-7.5196e-06,-3.67315e-05,1.44268e-05,2.70909e-05,1.54274e-05,4.77113e-06,8
-3.26784e-05,3.30081e-05,1.91437e-07,-4.97316e-05,1.12399e-05,3.96154e-05,1.3542e-05,4.33326e-06,8
-2.98602e-05,3.31516e-05,8.97833e-06,-5.64966e-05,1.02653e-05,2.62803e-05,1.0937e-05,5.33983e-06,8
-2.93758e-05,2.57942e-05,1.88901e-05,-4.6519e-05,1.1093e-05,7.94346e-06,9.0931e-06,6.98224e-06,8
-2.99947e-05,1.22622e-05,2.77163e-05,-1.58491e-05,1.18435e-05,-1.51009e-06,7.88828e-06,8.74589e-06,8
-2.98774e-05,-9.83546e-07,3.10454e-05,2.4111e-05,1.20202e-05,-3.27916e-06,6.72056e-06,8.67059e-06,8
-2.88699e-05,-8.00679e-06,2.58605e-05,5.98515e-05,1.30474e-05,-1.70121e-06,6.0328e-06,5.77799e-06,8
-3.05546e-05,-7.09732e-06,1.38315e-05,8.19794e-05,1.74931e-05,6.12545e-07,6.71286e-06,3.70052e-06,8
-3.47285e-05,2.10986e-06,-2.35368e-06,8.39492e-05,2.15451e-05,2.91586e-06,8.12623e-06,3.46761e-06,8
-3.24042e-05,2.06817e-05,-2.01745e-05,6.40067e-05,1.89092e-05,3.3173e-06,9.93925e-06,3.41182e-06,8
-1.56943e-05,4.02969e-05,-3.76419e-05,2.81179e-05,1.47192e-05,3.67982e-06,1.05971e-05,4.40757e-06,8
5.34363e-06,4.43207e-05,-4.83962e-05,-6.37668e-06,1.64942e-05,6.39606e-06,9.84991e-06,4.16441e-06,8
1.54128e-05,3.5667e-05,-4.9063e-05,-2.35845e-05,2.08871e-05,9.64443e-06,8.59953e-06,1.83521e-06,8
6.75628e-06,2.71587e-05,-4.19411e-05,-2.93059e-05,1.90457e-05,1.12095e-05,7.8217e-06,-2.50664e-07,8
-1.09381e-05,2.30778e-05,-3.03865e-05,-3.61048e-05,1.05832e-05,1.07458e-05,8.72476e-06,5.11343e-07,8
-2.23809e-05,2.34174e-05,-1.99378e-05,-4.60406e-05,1.13755e-06,8.82061e-06,7.73868e-06,2.32864e-06,8
-3.31553e-05,2.39062e-05,-1.26347e-05,-5.21861e-05,-5.00174e-06,5.04496e-06,4.48844e-06,2.54602e-06,8
-4.8222e-05,2.43601e-05,-6.0105e-06,-5.07623e-05,-6.9206e-06,1.94954e-06,3.7252e-06,2.49644e-06,8
-6.47826e-05,2.20013e-05,6.81322e-07,-4.1114e-05,-3.91721e-06,2.18507e-06,4.30014e-06,2.53313e-06,8
-6.83789e-05,1.53648e-05,8.08485e-06,-2.97063e-05,5.08641e-06,2.82171e-06,4.85915e-06,1.97579e-06,8
-5.473e-05,7.19887e-06,1.91262e-05,-3.15704e-05,1.16321e-05,8.7498e-07,6.40387e-06,2.02766e-06,8
-3.90729e-05,-3.42902e-06,3.07546e-05,-4.84415e-05,8.42036e-06,-2.11769e-06,8.73561e-06,4.84038e-06,8
-2.91809e-05,-1.43649e-05,3.48979e-05,-6.78618e-05,-3.49552e-06,-4.31761e-06,1.27333e-05,9.96688e-06,8
-2.27265e-05,-2.10249e-05,2.75351e-05,-7.21752e-05,-1.92637e-05,-6.70489e-06,1.72928e-05,1.45977e-05,8
-1.78456e-05,-1.87336e-05,1.10695e-05,-5.92424e-05,-3.40741e-05,-9.56457e-06,1.94793e-05,1.66085e-05,8
-1.7988e-05,-3.75472e-06,-1.06072e-05,-3.90229e-05,-4.30796e-05,-1.20566e-05,1.79654e-05,1.58955e-05,8
-1.60891e-05,2.30792e-05,-3.26309e-05,-1.91308e-05,-4.4569e-05,-1.3843e-05,1.45266e-05,1.2332e-05,8
-1.97147e-06,5.03306e-05,-4.85666e-05,-3.10256e-06,-4.5801e-05,-1.42391e-05,1.28275e-05,8.17775e-06,8
2.0885e-05,6.34732e-05,-5.29879e-05,6.58205e-06,-5.20522e-05,-1.33935e-05,1.40766e-05,1.09504e-05,8
3.72534e-05,5.90476e-05,-4.54796e-05,1.22395e-05,-5.55006e-05,-1.25821e-05,1.64371e-05,2.85052e-05,8
3.84024e-05,4.57252e-05,-3.35705e-05,1.74029e-05,-4.52992e-05,-1.29012e-05,1.8304e-05,5.25898e-05,8
2.43235e-05,3.14396e-05,-2.55631e-05,2.25687e-05,-2.67683e-05,-1.29769e-05,1.99428e-05,6.13585e-05,8
-5.37978e-06,1.92699e-05,-2.02185e-05,2.75169e-05,-1.32205e-05,-1.13468e-05,2.00613e-05,4.96828e-05,8
-4.58458e-05,1.07045e-05,-1.09862e-05,3.13458e-05,-6.11149e-06,-9.68845e-06,1.88098e-05,2.85557e-05,8
-8.24311e-05,5.35267e-06,-5.72612e-07,3.44034e-05,2.96375e-07,-9.46961e-06,1.81355e-05,3.26905e-06,8
-0.000102449,1.4364e-06,1.61309e-06,3.98558e-05,6.50971e-06,-9.28353e-06,1.85128e-05,-2.48079e-05,8
-0.00010697,-4.03955e-06,-7.46488e-06,4.628e-05,1.11437e-05,-1.11622e-05,1.84829e-05,-4.75614e-05,8
-0.000101489,-9.86567e-06,-2.23555e-05,4.29541e-05,1.47037e-05,-1.42077e-05,1.67569e-05,-5.42802e-05,8
-9.11274e-05,-9.01031e-06,-3.37473e-05,2.49218e-05,1.62008e-05,-1.4197e-05,1.58409e-05,-4.91262e-05,8
-7.63999e-05,-2.24632e-06,-3.46521e-05,-7.40263e-06,1.5901e-05,-1.23847e-05,1.54341e-05,-4.51861e-05,8
-5.74397e-05,3.45439e-06,-2.6502e-05,-4.59646e-05,1.62471e-05,-1.2416e-05,1.46005e-05,-4.48433e-05,8
-4.43883e-05,1.42838e-06,-1.69131e-05,-6.49364e-05,1.60537e-05,-1.45724e-05,1.46016e-05,-4.00621e-05,8
-3.91152e-05,-3.31972e-06,-9.89349e-06,-5.93299e-05,1.42192e-05,-1.66632e-05,1.39744e-05,-2.73278e-05,8
-3.52592e-05,5.87464e-07,-4.78773e-06,-4.72835e-05,1.14993e-05,-1.72852e-05,1.32889e-05,-1.26382e-05,8
-3.32893e-05,8.85022e-06,-9.65484e-07,-3.46792e-05,1.90081e-05,-1.52723e-05,1.3293e-05,2.19082e-06,8
-3.28137e-05,1.7212e-05,6.50435e-07,-1.83662e-05,4.34105e-05,-1.36281e-05,1.22312e-05,1.40317e-05,8
-3.14891e-05,2.27958e-05,-6.30036e-08,4.63805e-06,7.38672e-05,-1.4352e-05,1.28093e-05,1.63778e-05,8
-2.69644e-05,2.42108e-05,-4.44804e-07,2.39406e-05,9.76434e-05,-1.43909e-05,1.57406e-05,1.20953e-05,8
-2.41851e-05,2.14754e-05,2.71077e-07,3.08715e-05,9.99762e-05,-1.30901e-05,1.76794e-05,7.96605e-06,8
-2.51712e-05,1.76639e-05,3.44341e-06,2.51433e-05,7.07546e-05,-1.10875e-05,1.81596e-05,6.52061e-06,8
-2.74265e-05,1.88829e-05,9.46813e-06,1.12403e-05,2.91935e-05,-1.05539e-05,1.74018e-05,4.0403e-06,8
-2.8407e-05,2.33232e-05,1.48522e-05,-3.88776e-06,8.25431e-06,-1.10399e-05,1.54948e-05,-1.40402e-06,8
-2.61121e-05,2.76909e-05,1.59583e-05,-1.10462e-05,1.23359e-05,-1.03511e-05,1.26871e-05,-7.07426e-06,8
-2.07961e-05,2.919e-05,1.21611e-05,-6.26556e-06,2.79102e-05,-8.89957e-06,1.06909e-05,-1.08759e-05,8
-1.55141e-05,2.81489e-05,2.43474e-06,7.50802e-07,3.62263e-05,-7.67295e-06,9.39164e-06,-1.19841e-05,8
-1.33569e-05,2.63011e-05,-1.27074e-05,-5.14554e-06,2.56228e-05,-8.5093e-06,7.96491e-06,-1.08104e-05,8
-1.4169e-05,2.56841e-05,-2.56384e-05,-2.90219e-05,1.53328e-07,-1.09347e-05,7.21998e-06,-9.13251e-06,8
-1.84463e-05,2.59954e-05,-3.03256e-05,-5.74194e-05,-2.41718e-05,-1.21856e-05,8.17988e-06,-7.931e-06,8
-2.59851e-05,2.58906e-05,-2.64644e-05,-7.28215e-05,-3.5141e-05,-1.16186e-05,9.81258e-06,-7.07033e-06,8
-3.6169e-05,2.44955e-05,-1.69027e-05,-6.96882e-05,-3.38388e-05,-1.18752e-05,1.05181e-05,-7.03414e-06,8
-4.76986e-05,2.01817e-05,-6.17156e-06,-5.50974e-05,-2.55739e-05,-1.3329e-05,1.06952e-05,-6.52974e-06,8
-6.04267e-05,1.41278e-05,-4.89961e-08,-3.19721e-05,-1.1232e-05,-1.54186e-05,1.09249e-05,-4.07437e-06,8
-6.9086e-05,8.04907e-06,4.5419e-07,5.06554e-08,1.15406e-05,-1.66935e-05,1.13449e-05,-4.26273e-07,8
-6.49082e-05,2.82215e-06,-2.10671e-06,3.9062e-05,2.82684e-05,-1.55181e-05,1.07643e-05,2.51774e-06,8
-4.31579e-05,2.81502e-06,-4.11857e-06,7.59981e-05,2.17441e-05,-1.32664e-05,9.24756e-06,4.17553e-06,8
-1.13651e-05,7.77981e-06,-3.69102e-06,9.87225e-05,-3.2652e-07,-1.31203e-05,7.45248e-06,4.67112e-06,8
1.31821e-05,5.76282e-06,-4.13471e-06,9.72455e-05,-1.23141e-05,-1.56036e-05,6.43497e-06,4.57135e-06,8
1.56312e-05,-2.56944e-06,-7.55412e-06,6.58193e-05,-4.15374e-06,-1.75859e-05,7.01779e-06,2.31652e-06,8
8.33865e-06,-2.38729e-06,-9.51467e-06,1.72201e-05,2.92011e-06,-1.50277e-05,7.76922e-06,-9.01613e-07,8
9.27702e-06,4.57885e-06,-8.37694e-06,-2.00867e-05,-1.38135e-06,-1.1753e-05,8.30295e-06,-4.00986e-07,8
1.36642e-05,7.42197e-06,-6.96729e-06,-3.29828e-05,3.00851e-06,-1.06632e-05,9.91236e-06,2.05794e-06,8
9.01873e-06,3.50231e-06,-7.56286e-06,-2.76549e-05,2.06252e-05,-9.58685e-06,1.0559e-05,3.77767e-06,8
-9.28055e-06,-2.21268e-06,-1.03927e-05,-1.74342e-05,3.28545e-05,-8.41483e-06,1.07527e-05,4.50736e-06,8
-2.86215e-05,-5.19599e-06,-1.08011e-05,-1.23588e-05,2.63977e-05,-7.62095e-06,1.15135e-05,5.13189e-06,8
-4.11016e-05,-5.86092e-06,-8.87188e-06,-1.15044e-05,1.06815e-05,-8.45486e-06,1.21537e-05,5.74082e-06,8
-5.0078e-05,-3.68734e-06,-6.54872e-06,-7.55109e-06,-4.30318e-06,-9.83912e-06,1.17957e-05,4.77839e-06,8
-5.79761e-05,-6.31414e-07,-5.74842e-06,3.65118e-06,-1.20744e-05,-1.32469e-05,1.07807e-05,3.43492e-06,8
-6.15279e-05,3.83105e-06,-6.27475e-06,1.88705e-05,-1.36061e-05,-1.60255e-05,1.26963e-05,2.49119e-06,8
-6.16283e-05,8.50897e-06,-6.67172e-06,3.01351e-05,-1.71973e-05,-1.68591e-05,1.67622e-05,2.57732e-06,8
-6.18036e-05,9.61175e-06,-6.6193e-06,2.83113e-05,-2.06521e-05,-1.65859e-05,2.06545e-05,3.42521e-06,8
-5.93396e-05,7.70169e-06,-5.25011e-06,1.78569e-05,-1.50718e-05,-1.65222e-05,2.28585e-05,3.7658e-06,8
-5.16667e-05,5.874e-06,-1.985e-06,1.27609e-05,3.74206e-06,-1.69958e-05,2.23173e-05,3.7188e-06,8
-4.03099e-05,6.98239e-06,3.02634e-06,1.68072e-05,2.31995e-05,-1.67825e-05,2.01738e-05,3.4244e-06,8
-2.77199e-05,1.10447e-05,6.76263e-06,2.1603e-05,2.98237e-05,-1.68482e-05,1.84061e-05,2.6804e-06,8
-1.45364e-05,1.38533e-05,8.9297e-06,2.30313e-05,2.68566e-05,-1.66791e-05,1.75346e-05,2.26687e-06,8
-1.7836e-06,1.18897e-05,1.26193e-05,2.51876e-05,4.54526e-05,-1.52775e-05,1.68274e-05,3.04902e-06,8
9.03411e-06,8.57397e-06,2.09002e-05,3.00858e-05,0.000107648,-1.18859e-05,1.65271e-05,2.34027e-06,8
1.47935e-05,9.23098e-06,3.09393e-05,3.15871e-05,0.000170372,-7.84916e-06,1.71635e-05,-3.1549e-07,8
1.19011e-05,1.37273e-05,3.64528e-05,2.50182e-05,0.000165107,-4.92827e-06,1.6815e-05,-1.51528e-06,8
2.02117e-06,1.8664e-05,3.30862e-05,1.08584e-05,0.000103812,-4.91774e-06,1.49587e-05,1.75713e-07,8
-8.50421e-06,2.19472e-05,1.89411e-05,-5.45964e-06,5.75293e-05,-5.33734e-06,1.41593e-05,2.18844e-06,8
-1.49002e-05,2.31975e-05,-6.18712e-06,-1.70383e-05,5.12762e-05,-4.19603e-06,1.5652e-05,1.12008e-06,8
-1.66759e-05,2.46358e-05,-3.48423e-05,-2.51474e-05,5.20262e-05,-1.91765e-06,1.57812e-05,-1.1628e-06,8
-1.67155e-05,2.04072e-05,-5.58659e-05,-3.48847e-05,3.86378e-05,-1.43708e-07,1.41348e-05,-1.52015e-07,8
-2.07844e-05,8.98277e-06,-6.39798e-05,-4.43009e-05,1.55661e-05,2.15996e-06,1.33817e-05,3.2981e-06,8
-3.44821e-05,-1.19275e-06,-5.69594e-05,-4.63278e-05,-7.96845e-06,4.12701e-06,1.23785e-05,5.58727e-06,8
-4.88581e-05,-3.42309e-06,-4.14483e-05,-4.44208e-05,-2.08253e-05,3.93511e-06,1.11702e-05,5.86157e-06,8
-5.16864e-05,4.75699e-06,-2.69482e-05,-4.49477e-05,-1.86998e-05,1.27667e-06,1.11701e-05,5.38169e-06,8
-4.3557e-05,1.692e-05,-1.60203e-05,-4.55794e-05,-4.2009e-06,-2.47843e-06,1.22443e-05,5.60533e-06,8
-3.45062e-05,2.3571e-05,-1.04924e-05,-3.53905e-05,1.04901e-05,-4.80692e-06,1.17569e-05,6.43056e-06,8
-3.11748e-05,2.00749e-05,-7.86048e-06,-1.0084e-05,1.56093e-05,-6.11839e-06,1.09952e-05,6.52533e-06,8
-3.13176e-05,1.30165e-05,-2.94097e-06,1.66863e-05,9.62713e-06,-6.75115e-06,1.21737e-05,7.36345e-06,8
-3.29501e-05,1.30776e-05,2.35033e-06,2.67048e-05,1.75447e-06,-7.51787e-06,1.35815e-05,9.03297e-06,8
-3.41412e-05,1.81181e-05,2.98025e-06,1.1104e-05,-4.95324e-06,-8.04066e-06,1.31058e-05,9.11376e-06,8
-3.3375e-05,2.15105e-05,-3.10586e-06,-1.23011e-05,-1.02832e-05,-9.14998e-06,1.08993e-05,6.18848e-06,8
-3.00752e-05,2.32858e-05,-1.08434e-05,-2.43992e-05,-1.32008e-05,-9.22336e-06,8.98104e-06,1.67773e-06,8
-2.25914e-05,2.4643e-05,-1.41586e-05,-2.71665e-05,-1.33369e-05,-8.2838e-06,9.06925e-06,-1.79949e-06,8
-1.07178e-05,2.51302e-05,-1.28641e-05,-2.88744e-05,-1.13214e-05,-6.85985e-06,1.0764e-05,-4.48139e-06,8
-8.98741e-07,2.31658e-05,-9.62424e-06,-2.666e-05,-9.42507e-06,-5.87068e-06,1.16181e-05,-6.4847e-06,8
8.72614e-07,2.14936e-05,-5.66427e-06,-1.20228e-05,-7.47955e-06,-6.73784e-06,1.09924e-05,-7.44433e-06,8
-5.40254e-06,2.10446e-05,7.80287e-07,1.12248e-05,-1.07524e-05,-8.17376e-06,1.10614e-05,-8.26873e-06,8
-1.62692e-05,1.78652e-05,1.11344e-05,2.88004e-05,-2.09928e-05,-8.17647e-06,1.23338e-05,-8.30504e-06,8
-2.84738e-05,1.00407e-05,2.56824e-05,2.70112e-05,-2.61685e-05,-7.41491e-06,1.15344e-05,-6.12552e-06,8
-3.84439e-05,-1.22538e-06,4.46162e-05,4.80098e-06,-1.2084e-05,-7.72077e-06,8.8593e-06,-3.47775e-06,8
-3.83263e-05,-1.36685e-05,6.7152e-05,-2.81381e-05,1.62589e-05,-8.29947e-06,8.16163e-06,-1.94179e-06,8
-1.81334e-05,-1.9663e-05,8.5935e-05,-5.62993e-05,4.81842e-05,-8.79575e-06,9.58747e-06,-9.34901e-07,8
1.24512e-05,-1.46914e-05,8.99142e-05,-6.88352e-05,7.45126e-05,-8.32754e-06,1.00202e-05,-2.77165e-07,8
2.73428e-05,-5.68698e-06,7.28195e-05,-6.34905e-05,7.84958e-05,-7.60903e-06,9.02815e-06,-1.75267e-06,8
1.70145e-05,4.67607e-06,3.39667e-05,-4.75363e-05,5.01302e-05,-7.53709e-06,9.89646e-06,-4.07005e-06,8
-8.50623e-06,1.65335e-05,-2.18182e-05,-3.2697e-05,8.61248e-06,-8.02854e-06,1.42207e-05,-4.52726e-06,8
-3.63435e-05,2.66811e-05,-8.08795e-05,-2.63202e-05,-2.01463e-05,-1.00118e-05,1.67042e-05,-3.34598e-06,8
-6.99012e-05,2.43831e-05,-0.00013085,-2.5941e-05,-3.46715e-05,-1.5505e-05,1.55899e-05,-2.92394e-06,8
-0.000109224,3.0344e-06,-0.000152454,-2.81787e-05,-3.91462e-05,-2.03302e-05,1.46656e-05,-3.75802e-06,8
-0.000139133,-2.32208e-05,-0.000141797,-3.15589e-05,-3.18181e-05,-2.07431e-05,1.48346e-05,-2.39367e-06,8
-0.000138953,-3.985e-05,-0.000119601,-3.63453e-05,-1.79328e-05,-1.86215e-05,1.52415e-05,1.23725e-06,8
-0.000105685,-3.82827e-05,-9.62504e-05,-4.14232e-05,-4.98285e-06,-1.60957e-05,1.51472e-05,3.50014e-06,8
-7.19579e-05,-2.31252e-05,-7.8715e-05,-4.17877e-05,5.94842e-07,-1.4668e-05,1.4987e-05,5.10247e-06,8
-5.6169e-05,-1.07964e-05,-6.21569e-05,-3.82609e-05,1.27542e-07,-1.31323e-05,1.47177e-05,5.8559e-06,8
-4.95454e-05,-6.1959e-06,-4.77408e-05,-3.29841e-05,-2.92741e-06,-1.2415e-05,1.37746e-05,3.86806e-06,8
-3.69882e-05,-3.46926e-06,-3.78059e-05,-2.72566e-05,-7.22934e-06,-1.27595e-05,1.20373e-05,2.09455e-06,8
-1.75264e-05,4.94473e-06,-2.93995e-05,-1.94637e-05,-1.46199e-05,-1.29077e-05,1.06525e-05,1.77933e-06,8
-2.14028e-06,1.22219e-05,-1.91606e-05,-7.41479e-06,-2.20308e-05,-1.2423e-05,1.0066e-05,1.32807e-06,8
3.50652e-06,1.0004e-05,-7.36017e-06,7.82703e-06,-2.12931e-05,-1.02598e-05,8.9231e-06,-3.17222e-07,8
-1.33917e-06,1.58106e-06,1.97136e-06,2.14575e-05,-1.1812e-05,-7.48518e-06,6.65581e-06,-2.28304e-06,8
-1.37429e-05,-1.02078e-05,9.64228e-06,3.09709e-05,1.37078e-06,-6.50014e-06,5.00244e-06,-3.03792e-06,8
-3.17424e-05,-2.35732e-05,1.49278e-05,3.66176e-05,1.21437e-05,-6.67099e-06,5.35401e-06,-2.20845e-06,8
-5.09592e-05,-3.10216e-05,1.8471e-05,3.88547e-05,2.23313e-05,-6.03816e-06,7.37197e-06,-5.9722e-07,8
-6.77341e-05,-1.90933e-05,1.7121e-05,3.58529e-05,3.2211e-05,-5.22052e-06,1.005e-05,1.02242e-06,8
-7.64538e-05,1.72009e-05,1.29177e-05,2.72518e-05,3.92994e-05,-4.67718e-06,1.18943e-05,2.02952e-06,8
-7.35847e-05,5.92543e-05,8.3245e-06,1.93682e-05,3.92015e-05,-4.27276e-06,1.18173e-05,1.81784e-06,8
-6.148e-05,7.75105e-05,6.91475e-06,1.8573e-05,3.42537e-05,-4.57005e-06,1.11581e-05,1.24226e-06,8
-4.77508e-05,5.85691e-05,8.7052e-06,2.37924e-05,3.23651e-05,-5.34819e-06,1.22421e-05,5.03991e-07,8
-3.94415e-05,2.02698e-05,1.15156e-05,2.7808e-05,3.75149e-05,-6.08742e-06,1.48335e-05,2.5883e-08,8
-3.65141e-05,-4.30104e-07,1.15864e-05,2.74134e-05,4.09922e-05,-8.98409e-06,1.70517e-05,6.77936e-07,8
-3.47513e-05,4.35613e-06,8.17824e-06,2.52696e-05,3.41565e-05,-1.43542e-05,1.82538e-05,2.99455e-06,8
-3.13186e-05,1.61305e-05,4.89363e-06,2.84344e-05,2.24462e-05,-1.62709e-05,1.86672e-05,7.32303e-06,8
-2.3104e-05,2.25536e-05,6.01062e-06,4.16168e-05,1.47345e-05,-1.17456e-05,1.8667e-05,9.82438e-06,8
-9.78636e-06,2.21592e-05,7.87992e-06,5.59648e-05,1.16722e-05,-6.08001e-06,1.75635e-05,8.62555e-06,8
6.41729e-06,2.41659e-05,6.90114e-06,6.0671e-05,1.05145e-05,-3.48944e-06,1.55667e-05,5.33584e-06,8
1.8772e-05,3.09152e-05,5.95248e-06,4.84223e-05,8.52196e-06,-3.90948e-06,1.40211e-05,1.06875e-06,8
2.12279e-05,3.33044e-05,6.17868e-06,2.08306e-05,4.31337e-06,-5.9109e-06,1.32431e-05,-3.33634e-06,8
1.62536e-05,2.75728e-05,7.75457e-06,-4.18485e-06,1.91937e-06,-8.73873e-06,1.42758e-05,-7.21485e-06,8
5.2631e-06,1.97786e-05,9.9456e-06,-1.98788e-05,1.41828e-07,-1.21867e-05,1.48408e-05,-9.54299e-06,8
-1.49011e-05,1.31995e-05,1.45797e-05,-3.17497e-05,-2.67742e-06,-1.34803e-05,1.46862e-05,-9.83824e-06,8
-4.04101e-05,7.28952e-06,1.97422e-05,-4.51863e-05,-1.87243e-06,-1.11139e-05,1.46281e-05,-8.17256e-06,8
-5.90007e-05,5.99139e-06,2.59766e-05,-5.64447e-05,8.99771e-06,-7.76422e-06,1.27336e-05,-7.18755e-06,8
-6.50006e-05,9.03851e-06,3.21331e-05,-5.73439e-05,2.85124e-05,-6.69865e-06,1.12631e-05,-6.68849e-06,8
-5.67781e-05,1.2728e-05,3.58989e-05,-4.83938e-05,4.37862e-05,-6.71613e-06,1.15784e-05,-5.8657e-06,8
-4.32311e-05,1.66824e-05,3.36443e-05,-3.7166e-05,4.09219e-05,-7.49432e-06,1.226e-05,-5.04035e-06,8
-3.53775e-05,1.88266e-05,2.43348e-05,-2.74366e-05,2.55969e-05,-9.14277e-06,1.24423e-05,-3.19353e-06,8
-3.20349e-05,1.84886e-05,1.08399e-05,-1.86165e-05,1.30533e-05,-1.0533e-05,1.22395e-05,-1.46921e-06,8
-2.06947e-05,1.6561e-05,-3.13438e-06,-1.48376e-05,1.03741e-05,-1.02213e-05,1.26852e-05,-1.77965e-06,8
-1.28516e-06,1.34445e-05,-1.39853e-05,-1.82786e-05,1.34686e-05,-8.3711e-06,1.40352e-05,-2.31289e-06,8
1.12566e-05,1.2239e-05,-2.00364e-05,-2.74041e-05,1.56168e-05,-7.05414e-06,1.54767e-05,-7.65392e-07,8
1.04085e-05,1.51064e-05,-2.3056e-05,-3.19137e-05,1.54372e-05,-6.82698e-06,1.58465e-05,6.82801e-07,8
7.61523e-07,1.97869e-05,-2.84666e-05,-2.28804e-05,1.66012e-05,-6.12271e-06,1.53101e-05,8.67995e-07,8
-1.18021e-05,2.15751e-05,-3.8896e-05,-9.92204e-06,2.12501e-05,-3.36013e-06,1.43911e-05,9.06783e-07,8
-2.68139e-05,1.95791e-05,-5.2166e-05,-1.00978e-05,2.68787e-05,-6.35809e-07,1.3416e-05,1.69522e-06,8
-4.34661e-05,1.48534e-05,-6.17331e-05,-2.13401e-05,3.07869e-05,-4.39336e-07,1.27058e-05,3.56325e-06,8
-5.92733e-05,8.1322e-06,-6.16233e-05,-3.15834e-05,3.24582e-05,-3.03279e-06,1.21354e-05,5.107e-06,8
-6.6277e-05,5.13671e-06,-4.97754e-05,-3.61702e-05,3.4189e-05,-3.96759e-06,1.17294e-05,4.81041e-06,8
-5.70963e-05,8.59423e-06,-3.50187e-05,-3.61651e-05,3.1901e-05,-6.05804e-07,1.20459e-05,3.89153e-06,8
-3.77504e-05,9.95285e-06,-2.71631e-05,-3.38269e-05,2.32879e-05,2.39203e-06,1.2806e-05,2.50685e-06,8
-2.5409e-05,1.91241e-06,-2.45406e-05,-3.09709e-05,1.37015e-05,1.57119e-06,1.32053e-05,7.03456e-07,8
-2.49779e-05,-1.23622e-05,-2.17952e-05,-2.60579e-05,1.1702e-05,-3.29496e-07,1.35987e-05,9.39361e-07,8
-2.71459e-05,-2.18978e-05,-1.60195e-05,-1.42211e-05,1.71969e-05,-9.13974e-07,1.42811e-05,3.54764e-06,8
-2.48616e-05,-1.63168e-05,-8.35011e-06,2.28171e-06,1.74918e-05,7.94861e-07,1.57381e-05,5.95873e-06,8
-2.15749e-05,4.5074e-06,-1.03843e-06,1.57591e-05,1.15706e-05,2.17052e-06,1.74552e-05,5.43907e-06,8
-2.24058e-05,3.27553e-05,2.54877e-06,1.89137e-05,5.73023e-06,1.87332e-06,1.8408e-05,3.22288e-06,8
-2.69626e-05,5.60556e-05,3.15075e-06,1.43379e-05,1.09114e-07,1.97855e-06,1.66951e-05,1.62466e-06,8
-2.9402e-05,5.76533e-05,5.56533e-06,1.2287e-05,-6.22785e-07,4.0222e-06,1.37024e-05,1.06656e-06,8
-2.61745e-05,3.12461e-05,1.35525e-05,1.60188e-05,2.62445e-06,5.18829e-06,1.2111e-05,9.33708e-07,8
-2.72467e-05,-4.85359e-06,2.67343e-05,2.057e-05,3.64017e-06,7.0639e-07,1.18145e-05,4.81102e-07,8
-3.54664e-05,-2.25394e-05,3.69164e-05,2.16684e-05,4.82277e-06,-4.90463e-06,1.13821e-05,8.40604e-07,8
-4.0752e-05,-9.64889e-06,3.90214e-05,2.06873e-05,1.38632e-05,-7.67227e-06,1.10078e-05,1.27932e-06,8
-3.70536e-05,1.68318e-05,3.26439e-05,1.999e-05,2.77855e-05,-9.60848e-06,1.18406e-05,1.6903e-06,8
-2.98683e-05,3.54973e-05,1.81314e-05,2.02541e-05,3.66055e-05,-1.38816e-05,1.12469e-05,2.50882e-06,8
-2.52477e-05,4.57254e-05,-3.57786e-06,2.4055e-05,4.00077e-05,-2.12435e-05,1.01623e-05,3.48648e-06,8
-2.28643e-05,5.06694e-05,-2.7408e-05,3.08619e-05,3.92683e-05,-3.07851e-05,1.11349e-05,3.59457e-06,8
-2.17991e-05,4.70741e-05,-4.52724e-05,3.62925e-05,3.33118e-05,-4.19007e-05,1.28188e-05,3.37044e-06,8
-2.13732e-05,3.48459e-05,-5.05037e-05,3.73099e-05,2.6864e-05,-5.34334e-05,1.29708e-05,4.12666e-06,8
-2.12615e-05,1.59542e-05,-4.28707e-05,3.3549e-05,3.03296e-05,-5.27264e-05,1.22703e-05,4.36469e-06,8
-2.22786e-05,-4.79001e-06,-3.04724e-05,2.43842e-05,4.27486e-05,-2.47635e-05,1.18299e-05,3.84714e-06,8
-2.44265e-05,-1.41081e-05,-2.02371e-05,9.23244e-06,5.24893e-05,1.35958e-05,1.10419e-05,4.73512e-06,8
-2.57341e-05,-9.02808e-06,-1.1697e-05,-8.09095e-06,5.15918e-05,2.85685e-05,9.30894e-06,6.89019e-06,8
-2.44801e-05,3.7304e-07,-1.31184e-06,-2.06241e-05,3.70251e-05,1.73381e-05,7.52359e-06,7.43924e-06,8
-1.6898e-05,1.03662e-05,8.70122e-06,-2.40386e-05,1.1872e-05,2.11959e-06,5.96351e-06,6.66016e-06,8
-3.35849e-07,2.04714e-05,1.0631e-05,-2.17832e-05,-1.09582e-05,-4.6883e-06,4.79249e-06,6.35694e-06,8
1.64244e-05,2.87957e-05,-3.66303e-07,-2.11666e-05,-2.29407e-05,-5.91709e-06,5.4298e-06,7.01629e-06,8
2.19684e-05,3.32151e-05,-1.74399e-05,-2.62579e-05,-2.75953e-05,-6.03356e-06,7.53234e-06,7.7459e-06,8
2.0679e-05,2.77167e-05,-2.89742e-05,-3.67561e-05,-2.9978e-05,-4.80763e-06,8.83299e-06,7.83638e-06,8
1.94292e-05,1.07014e-05,-3.04489e-05,-4.78023e-05,-3.66411e-05,-2.52594e-06,9.09527e-06,5.55561e-06,8
2.58946e-05,-8.34172e-06,-2.78107e-05,-5.15728e-05,-5.08348e-05,-9.55618e-07,9.88219e-06,2.99883e-06,8
4.44944e-05,-1.87023e-05,-2.57526e-05,-4.89578e-05,-5.74988e-05,-2.09083e-06,1.15064e-05,1.95203e-06,8
5.37536e-05,-9.21019e-06,-2.14413e-05,-4.7616e-05,-4.71778e-05,-2.89836e-06,1.26714e-05,1.66545e-06,8
3.60614e-05,1.29966e-05,-1.48289e-05,-4.71647e-05,-3.38184e-05,-2.40899e-06,1.18782e-05,1.34224e-06,8
-4.2939e-06,3.25344e-05,-9.53728e-06,-3.60624e-05,-2.31373e-05,-3.17859e-06,1.13754e-05,3.92832e-07,8
-5.96934e-05,4.44687e-05,-6.89433e-06,-4.23032e-06,-1.07925e-05,-5.96299e-06,1.12287e-05,1.0291e-06,8
-0.000116,3.16048e-05,-2.91086e-06,3.85638e-05,5.63809e-06,-1.06845e-05,1.11401e-05,2.49664e-06,8
-0.00015741,-2.23715e-07,1.75269e-06,7.21453e-05,1.91187e-05,-1.658e-05,1.07744e-05,2.54852e-06,8
-0.00017429,-2.17812e-05,3.12587e-06,8.58215e-05,2.13975e-05,-2.09426e-05,9.76127e-06,2.02487e-06,8
-0.000162377,-2.38992e-05,2.71822e-06,7.79536e-05,1.6276e-05,-2.10332e-05,9.39361e-06,2.40229e-06,8
-0.000128928,-1.28577e-05,4.32475e-06,5.86567e-05,1.53284e-05,-1.77869e-05,1.01001e-05,4.25503e-06,8
-8.90784e-05,1.17067e-06,9.61616e-06,4.15397e-05,2.28723e-05,-1.25076e-05,1.12466e-05,6.07774e-06,8
-5.71354e-05,1.20013e-05,1.56321e-05,3.07084e-05,3.23497e-05,-8.58141e-06,1.29674e-05,5.75547e-06,8
-4.12819e-05,1.71235e-05,1.82434e-05,2.25656e-05,3.70634e-05,-8.02115e-06,1.49261e-05,4.18632e-06,8
-4.03336e-05,1.83322e-05,1.71831e-05,1.15072e-05,3.66055e-05,-9.46864e-06,1.63281e-05,2.98701e-06,8
-4.48882e-05,1.9223e-05,1.56802e-05,-2.14537e-06,3.5018e-05,-1.11792e-05,1.80814e-05,2.15572e-06,8
-4.53166e-05,2.10374e-05,1.47164e-05,-1.17856e-05,3.39315e-05,-1.22958e-05,1.99397e-05,4.37498e-07,8
-3.9229e-05,2.45123e-05,1.39891e-05,-1.27806e-05,3.4696e-05,-1.09999e-05,2.06352e-05,-1.04305e-06,8
-3.12703e-05,3.09306e-05,1.37942e-05,-7.87763e-06,3.81693e-05,-8.27725e-06,1.88047e-05,-1.08378e-06,8
-2.58049e-05,3.79429e-05,1.21988e-05,-2.95978e-06,4.29466e-05,-7.38489e-06,1.66607e-05,-8.24392e-07,8
-2.3025e-05,4.17899e-05,5.55011e-06,-2.28172e-06,4.09322e-05,-8.68848e-06,1.64207e-05,-2.40303e-07,8
-1.96441e-05,4.44457e-05,-5.48565e-06,-7.44465e-06,2.62401e-05,-1.04666e-05,1.73991e-05,1.07905e-06,8
-1.38905e-05,4.9823e-05,-1.57244e-05,-1.7814e-05,1.28417e-05,-1.13007e-05,1.8196e-05,9.2758e-07,8
-8.98109e-06,5.43209e-05,-2.02239e-05,-2.8364e-05,1.62141e-05,-1.17877e-05,1.89079e-05,-9.06912e-07,8
-8.2818e-06,4.85741e-05,-1.77827e-05,-3.26965e-05,3.27567e-05,-1.23006e-05,1.89569e-05,-1.77004e-06,8
-1.12758e-05,3.52847e-05,-1.1491e-05,-2.96412e-05,4.88666e-05,-1.18895e-05,1.82812e-05,-5.30175e-07,8
-1.97067e-05,2.14983e-05,-7.01749e-06,-2.45391e-05,4.53237e-05,-1.14867e-05,1.72668e-05,1.60843e-06,8
-3.2279e-05,7.13607e-06,-5.95012e-06,-2.04534e-05,1.19015e-05,-1.30235e-05,1.49504e-05,1.76021e-06,8
-3.55044e-05,-1.9229e-07,-5.02608e-06,-2.98566e-05,-2.64247e-05,-1.33196e-05,1.22209e-05,1.33262e-07,8
-2.90668e-05,2.93098e-06,-6.29398e-06,-5.99482e-05,-4.19323e-05,-1.05138e-05,1.0627e-05,-1.70659e-06,8
-2.19417e-05,5.27299e-06,-1.18213e-05,-7.99614e-05,-3.98401e-05,-8.54988e-06,9.73711e-06,-2.39395e-06,8
-1.71514e-05,3.0269e-06,-1.93061e-05,-7.25324e-05,-2.78912e-05,-9.94415e-06,9.40192e-06,-1.56037e-06,8
-1.68878e-05,2.55104e-06,-2.62073e-05,-5.38932e-05,-1.70631e-05,-1.28772e-05,9.53754e-06,-2.88907e-06,8
-1.77228e-05,4.49544e-06,-3.03967e-05,-3.60443e-05,-7.38945e-06,-1.52752e-05,8.7067e-06,-6.0203e-06,8
-1.72516e-05,3.22931e-06,-3.06366e-05,-1.40522e-05,5.24483e-06,-1.60055e-05,7.52932e-06,-8.26543e-06,8
-1.69106e-05,-8.02591e-07,-2.70321e-05,1.82973e-05,1.57846e-05,-1.49372e-05,7.79653e-06,-8.44037e-06,8
-1.82753e-05,8.75446e-08,-2.25793e-05,5.20809e-05,1.96152e-05,-1.45842e-05,9.91782e-06,-7.27324e-06,8
-1.87402e-05,5.64337e-06,-1.96586e-05,7.41653e-05,1.74538e-05,-1.63772e-05,1.25172e-05,-6.01275e-06,8
-1.79967e-05,8.4872e-06,-1.73074e-05,7.76753e-05,1.40342e-05,-1.76439e-05,1.40128e-05,-4.86539e-06,8
-1.94295e-05,7.32571e-06,-1.21383e-05,6.2181e-05,1.04366e-05,-1.67741e-05,1.45077e-05,-3.60491e-06,8
-2.4396e-05,5.9704e-06,-4.72502e-06,3.37226e-05,1.08081e-05,-1.64976e-05,1.39015e-05,-2.40269e-06,8
-3.33877e-05,6.6681e-06,-1.03985e-06,7.17808e-06,1.39153e-05,-1.76222e-05,1.30014e-05,-1.0333e-06,8
-4.35081e-05,8.32124e-06,-1.77938e-06,-3.55737e-06,1.56084e-05,-1.65795e-05,1.32624e-05,3.54412e-06,8
-4.79772e-05,9.17176e-06,-3.17004e-06,-1.9799e-07,1.40748e-05,-1.28906e-05,1.3252e-05,1.8704e-05,8
-4.37394e-05,1.01385e-05,-3.82193e-06,3.38286e-06,1.59446e-05,-1.00148e-05,1.22932e-05,4.54295e-05,8
-3.55659e-05,1.33628e-05,-5.10968e-06,3.46741e-07,2.02967e-05,-9.47233e-06,1.121e-05,6.40153e-05,8
-2.85834e-05,1.6274e-05,-7.89285e-06,-5.94607e-06,2.15106e-05,-8.9679e-06,1.086e-05,6.01558e-05,8
-2.43654e-05,1.64133e-05,-1.25468e-05,-1.1702e-05,1.77646e-05,-7.01914e-06,1.18143e-05,4.03022e-05,8
-1.72166e-05,1.54615e-05,-1.75833e-05,-1.36981e-05,1.24103e-05,-4.85995e-06,1.33125e-05,1.35531e-05,8
7.26973e-07,1.55094e-05,-1.88367e-05,-1.18822e-05,6.75064e-06,-3.41383e-06,1.38644e-05,-1.65704e-05,8
2.08464e-05,1.80325e-05,-1.51075e-05,-9.35908e-06,3.07555e-06,-3.83221e-06,1.35879e-05,-4.36592e-05,8
2.49677e-05,2.14916e-05,-8.21549e-06,-9.98516e-06,3.95604e-06,-8.82203e-06,1.29992e-05,-5.65595e-05,8
1.14302e-05,2.52668e-05,-5.71478e-07,-1.13198e-05,6.63065e-06,-1.59624e-05,1.18927e-05,-5.30539e-05,8
-5.01006e-06,3.07684e-05,7.30446e-06,-6.48441e-07,4.12833e-06,-1.92267e-05,1.11908e-05,-4.63063e-05,8
-1.32051e-05,3.73577e-05,1.72973e-05,2.70329e-05,-2.76605e-06,-1.81315e-05,1.0738e-05,-4.382e-05,8
-1.96948e-05,4.01449e-05,2.80941e-05,5.35476e-05,-2.2138e-06,-1.66025e-05,9.13396e-06,-3.9023e-05,8
-3.88328e-05,3.88482e-05,3.91571e-05,6.21212e-05,7.08494e-06,-1.74226e-05,8.50555e-06,-2.80318e-05,8
-6.69728e-05,3.73268e-05,5.02884e-05,5.43642e-05,2.59697e-05,-1.83281e-05,9.36305e-06,-1.56957e-05,8
-7.84603e-05,3.46773e-05,5.5673e-05,3.5656e-05,4.80998e-05,-1.81237e-05,1.06641e-05,-7.0742e-06,8
-6.51543e-05,2.6725e-05,5.0462e-05,1.50434e-05,4.71859e-05,-1.72415e-05,1.26414e-05,-3.31949e-06,8
-4.78717e-05,1.06301e-05,3.30684e-05,-3.19343e-06,1.70627e-05,-1.65786e-05,1.45236e-05,-1.41653e-06,8
-4.8929e-05,-9.2984e-06,5.74748e-06,-1.60376e-05,-1.96514e-05,-1.59562e-05,1.53757e-05,3.14936e-06,8
-6.48349e-05,-3.0359e-05,-2.55571e-05,-2.30336e-05,-4.40738e-05,-1.57338e-05,1.55035e-05,8.66737e-06,8
-6.97199e-05,-4.6013e-05,-5.07954e-05,-2.88272e-05,-4.89924e-05,-1.67498e-05,1.53743e-05,1.26759e-05,8
-5.55701e-05,-4.43611e-05,-6.21581e-05,-3.36781e-05,-4.3253e-05,-2.03743e-05,1.49712e-05,1.42104e-05,8
-3.92208e-05,-2.12226e-05,-6.16831e-05,-3.88301e-05,-3.2834e-05,-2.72176e-05,1.44054e-05,1.46685e-05,8
-3.58803e-05,8.06058e-06,-5.41543e-05,-4.70524e-05,-1.76139e-05,-3.20138e-05,1.3117e-05,1.47302e-05,8
