ch1,ch2,ch3,ch4,ch5,ch6,ch7,ch8,class
-7.80831e-05,-3.68553e-05,-2.67395e-05,-1.47077e-05,3.34466e-05,-1.19642e-05,1.38672e-05,1.67494e-07,8
-8.79772e-05,1.38516e-06,-2.47028e-05,-1.51914e-05,2.90134e-05,-1.1379e-05,1.30462e-05,-2.04632e-06,8
-9.12512e-05,4.92837e-05,-2.20806e-05,-1.82671e-05,2.9001e-05,-1.10119e-05,1.12002e-05,-5.41504e-06,8
-8.20276e-05,8.31999e-05,-1.71077e-05,-1.57854e-05,3.00019e-05,-9.82967e-06,1.05971e-05,-7.68571e-06,8
-6.21217e-05,8.33956e-05,-9.57763e-06,-6.87343e-06,3.2442e-05,-7.7009e-06,1.12082e-05,-8.64955e-06,8
-4.54383e-05,5.12411e-05,-1.60759e-06,3.31405e-06,3.25793e-05,-5.86525e-06,1.15195e-05,-8.83368e-06,8
-3.7805e-05,-1.81013e-06,2.17453e-06,9.22443e-06,2.30098e-05,-5.34361e-06,1.06578e-05,-7.95691e-06,8
-3.59486e-05,-7.45044e-05,2.31805e-06,8.40923e-06,7.75875e-06,-6.01546e-06,9.08741e-06,-5.91253e-06,8
-3.56889e-05,-0.000144712,1.03868e-06,2.63633e-06,-1.8395e-06,-7.09203e-06,8.37693e-06,-3.32829e-06,8
-3.51419e-05,-0.000149036,-7.02366e-07,-3.92551e-06,1.30408e-06,-8.9822e-06,9.77845e-06,-1.37595e-06,8
-3.26057e-05,-7.85464e-05,-2.70421e-06,-6.7154e-06,1.07132e-05,-1.06426e-05,1.14642e-05,1.88091e-07,8
-3.02062e-05,2.3831e-06,-4.73168e-06,-9.96503e-07,9.10707e-06,-1.23034e-05,1.12741e-05,9.33051e-07,8
-2.96001e-05,3.54428e-05,-5.97872e-06,1.42337e-05,-1.14407e-05,-1.4713e-05,1.11055e-05,6.52041e-07,8
-3.04714e-05,2.97435e-05,-7.76622e-06,3.18414e-05,-2.95216e-05,-1.65849e-05,1.27173e-05,-1.07848e-06,8
-2.96071e-05,1.83116e-05,-1.04482e-05,4.13211e-05,-1.93047e-05,-1.77712e-05,1.44969e-05,-3.46088e-06,8
-2.58326e-05,1.55321e-05,-1.29639e-05,4.33283e-05,8.36331e-06,-1.92456e-05,1.42161e-05,-5.88672e-06,8
-2.11816e-05,1.65513e-05,-1.36304e-05,4.7668e-05,2.98714e-05,-2.01596e-05,1.30144e-05,-6.97997e-06,8
-1.79262e-05,1.71905e-05,-1.44704e-05,5.82044e-05,4.89852e-05,-1.90579e-05,1.12892e-05,-5.91163e-06,8
-1.62942e-05,1.91591e-05,-1.63487e-05,6.93392e-05,7.5395e-05,-1.52729e-05,9.81219e-06,-2.9986e-06,8
-1.72777e-05,2.37738e-05,-1.71912e-05,7.35957e-05,9.73817e-05,-1.06814e-05,1.06413e-05,1.36765e-06,8
-1.96785e-05,2.9281e-05,-1.54493e-05,6.62518e-05,9.63226e-05,-1.0207e-05,1.28968e-05,5.09257e-06,8
-1.97697e-05,3.38009e-05,-1.0837e-05,4.54247e-05,7.20508e-05,-1.40468e-05,1.30692e-05,6.76912e-06,8
-1.83225e-05,3.73296e-05,-2.32065e-06,1.43388e-05,4.89369e-05,-1.63737e-05,1.12398e-05,6.96856e-06,8
-1.64812e-05,4.03166e-05,6.87844e-06,-1.71155e-05,4.54404e-05,-1.51705e-05,1.07974e-05,6.81756e-06,8
-1.54415e-05,4.5832e-05,1.603e-05,-3.82727e-05,4.51017e-05,-1.06516e-05,1.11365e-05,6.38014e-06,8
-1.54366e-05,4.60881e-05,2.40842e-05,-4.51764e-05,2.7062e-05,-6.14493e-06,1.03757e-05,5.81886e-06,8
-1.55789e-05,3.97095e-05,2.5401e-05,-4.40882e-05,5.27533e-06,-4.78357e-06,1.04097e-05,5.66883e-06,8
-1.69534e-05,3.41707e-05,2.02569e-05,-4.06556e-05,-6.52944e-08,-5.16567e-06,1.14124e-05,5.95624e-06,8
-2.02228e-05,3.00184e-05,1.0228e-05,-3.46981e-05,8.74998e-06,-6.6483e-06,1.21889e-05,7.02678e-06,8
-2.33542e-05,3.18206e-05,5.22019e-07,-2.52472e-05,1.89696e-05,-6.1069e-06,1.21503e-05,7.01434e-06,8
-2.39585e-05,5.00001e-05,-7.97834e-06,-1.1991e-05,2.42635e-05,-4.63184e-06,1.09736e-05,6.82429e-06,8
-2.24286e-05,8.28349e-05,-1.62634e-05,3.68379e-06,2.9491e-05,-3.07495e-06,1.00402e-05,6.73645e-06,8
-2.22853e-05,0.000119734,-2.43453e-05,1.98556e-05,3.58294e-05,-1.75033e-06,9.41881e-06,6.08548e-06,8
-2.36248e-05,0.000144762,-3.06765e-05,3.01397e-05,4.01951e-05,-1.84381e-06,1.02287e-05,4.81616e-06,8
-2.50474e-05,0.000141558,-3.19383e-05,3.28283e-05,3.94272e-05,-3.18398e-06,1.20992e-05,3.83754e-06,8
-2.6994e-05,0.000106187,-2.78874e-05,3.0846e-05,3.36487e-05,-5.26496e-06,1.33168e-05,5.1741e-06,8
-2.89941e-05,5.89965e-05,-1.88602e-05,2.74757e-05,2.75428e-05,-5.15534e-06,1.33288e-05,6.69547e-06,8
-2.86336e-05,2.59298e-05,-7.46031e-06,2.48728e-05,2.46467e-05,-3.95544e-06,1.33082e-05,7.35212e-06,8
-2.67049e-05,8.98919e-07,2.05279e-06,2.266e-05,2.46984e-05,-3.82563e-06,1.56051e-05,7.06044e-06,8
-2.60312e-05,-2.05322e-05,8.84065e-06,1.97763e-05,2.30733e-05,-4.66986e-06,1.88471e-05,6.17782e-06,8
-2.64436e-05,-2.25037e-05,1.75799e-05,1.46878e-05,1.8374e-05,-5.45042e-06,2.03348e-05,3.98032e-06,8
-2.66388e-05,-2.75167e-05,2.95087e-05,6.69734e-06,1.23781e-05,-6.68304e-06,1.92201e-05,1.49369e-06,8
-2.65281e-05,-6.62108e-05,4.17427e-05,-3.71545e-06,6.16085e-06,-8.83498e-06,1.70594e-05,-2.60093e-07,8
-2.56647e-05,-0.000101306,5.00056e-05,-1.55734e-05,-3.80685e-06,-1.03998e-05,1.49061e-05,-8.17541e-07,8
-2.24888e-05,-8.27272e-05,5.10989e-05,-3.07748e-05,-2.12283e-05,-8.40364e-06,1.34071e-05,3.83991e-07,8
-1.90572e-05,-3.47407e-05,4.28083e-05,-4.75988e-05,-4.26385e-05,-4.29023e-06,1.35025e-05,1.99848e-06,8
-1.84324e-05,-5.13315e-06,2.42161e-05,-5.93957e-05,-5.27671e-05,-3.71502e-06,1.3365e-05,2.92103e-06,8
-2.18116e-05,2.64432e-07,-2.50757e-06,-6.44871e-05,-3.90632e-05,-8.28221e-06,1.1553e-05,2.68513e-06,8
-3.05923e-05,-1.07911e-06,-2.75041e-05,-6.2335e-05,-7.99126e-06,-1.22405e-05,9.78137e-06,8.48345e-07,8
-3.70049e-05,-3.33897e-06,-4.18597e-05,-4.88427e-05,1.81405e-05,-1.25384e-05,9.21393e-06,-1.38758e-06,8
-2.91483e-05,-1.27476e-05,-4.59392e-05,-3.34674e-05,2.93269e-05,-1.00999e-05,8.94585e-06,-2.20041e-06,8
-8.56659e-06,-2.3002e-05,-4.55955e-05,-1.90901e-05,3.88174e-05,-5.31668e-06,8.0381e-06,-1.49054e-06,8
9.41799e-06,-1.43079e-05,-4.81992e-05,3.93602e-06,4.69561e-05,-2.52532e-06,8.55697e-06,-1.655e-07,8
1.34435e-05,1.43024e-05,-5.0513e-05,3.12494e-05,4.0336e-05,-2.68368e-06,1.14078e-05,2.06027e-07,8
8.0923e-06,6.21028e-05,-4.53092e-05,4.57996e-05,1.92902e-05,-4.28498e-06,1.33237e-05,1.30259e-07,8
1.0369e-06,0.000112651,-3.34582e-05,4.16613e-05,7.59022e-07,-5.88249e-06,1.28139e-05,1.92373e-07,8
-1.49133e-05,0.000118059,-2.52576e-05,2.82287e-05,-5.17489e-06,-7.14074e-06,1.0944e-05,-1.29382e-06,8
-4.96785e-05,7.59017e-05,-2.60035e-05,8.68198e-06,-2.74297e-06,-8.49187e-06,1.04454e-05,-3.15393e-06,8
-8.40734e-05,2.15111e-05,-2.99202e-05,-1.06538e-05,3.64296e-06,-9.32906e-06,9.42898e-06,-2.57935e-06,8
-9.26183e-05,-1.48947e-05,-3.17977e-05,-2.25544e-05,1.05858e-05,-9.97352e-06,6.26322e-06,-6.02142e-07,8
-7.90079e-05,-4.02806e-05,-3.05326e-05,-2.59392e-05,1.49421e-05,-1.17114e-05,3.73287e-06,7.66268e-07,8
-6.48181e-05,-5.77525e-05,-2.74631e-05,-2.37149e-05,1.27621e-05,-1.38745e-05,3.06932e-06,8.08659e-07,8
-5.9796e-05,-4.09976e-05,-2.29868e-05,-1.93434e-05,2.92158e-06,-1.38467e-05,3.64369e-06,6.82459e-07,8
-5.739e-05,4.55762e-06,-2.0112e-05,-1.59967e-05,-9.14083e-06,-1.17274e-05,5.05058e-06,8.16217e-07,8
-5.01557e-05,3.22061e-05,-1.99781e-05,-1.49867e-05,-1.73313e-05,-8.58112e-06,8.68783e-06,1.57738e-06,8
-3.77226e-05,1.74058e-05,-2.015e-05,-1.56106e-05,-1.9023e-05,-5.20531e-06,1.28962e-05,3.38634e-06,8
-2.57055e-05,4.96428e-06,-1.7778e-05,-1.73386e-05,-1.55193e-05,-3.0146e-06,1.58612e-05,5.52716e-06,8
-1.76209e-05,2.95012e-05,-1.30465e-05,-1.77256e-05,-9.40037e-06,-2.86747e-06,1.79655e-05,6.09369e-06,8
-1.40164e-05,6.25818e-05,-8.31311e-06,-1.51004e-05,3.24825e-06,-3.40419e-06,1.97001e-05,4.51365e-06,8
-1.51481e-05,6.03398e-05,-5.33666e-06,-9.40525e-06,4.00201e-05,-4.82672e-06,2.03439e-05,2.0584e-06,8
-2.13138e-05,1.31205e-05,-6.72893e-06,-4.65134e-06,0.000104585,-6.27818e-06,1.9479e-05,4.78031e-07,8
-2.82133e-05,-5.45228e-05,-9.823e-06,-3.27547e-06,0.000149502,-4.42844e-06,1.75695e-05,1.92741e-06,8
-3.35204e-05,-0.000110059,-1.10217e-05,-4.46734e-06,0.000125844,-1.99202e-06,1.61116e-05,4.40775e-06,8
-3.93322e-05,-0.000119764,-1.12606e-05,-5.39595e-06,5.60735e-05,-3.80832e-06,1.65328e-05,4.15703e-06,8
-4.47742e-05,-6.94039e-05,-1.04308e-05,-4.53865e-06,-2.27716e-06,-7.52062e-06,1.68306e-05,1.14234e-06,8
-4.45838e-05,-1.37315e-05,-5.65132e-06,-1.16093e-06,-3.55531e-05,-9.13209e-06,1.6529e-05,-2.81318e-06,8
-3.87685e-05,3.99064e-06,2.82382e-06,3.29127e-06,-6.63765e-05,-8.61233e-06,1.59426e-05,-5.87919e-06,8
-3.13209e-05,4.2229e-06,1.28671e-05,5.64966e-06,-9.63876e-05,-7.32587e-06,1.41644e-05,-6.76752e-06,8
-1.61001e-05,4.66343e-06,2.08023e-05,2.33988e-06,-0.000112341,-6.99344e-06,1.04602e-05,-6.67547e-06,8
1.67306e-06,1.19463e-05,2.17366e-05,-5.20911e-06,-0.000110976,-6.96227e-06,8.53821e-06,-2.92318e-06,8
1.46454e-05,2.11168e-05,1.81973e-05,-1.0281e-05,-8.9054e-05,-6.4455e-06,1.0305e-05,1.76866e-05,8
2.8308e-05,3.23184e-05,1.52423e-05,-1.08293e-05,-5.022e-05,-5.7514e-06,1.06681e-05,4.72348e-05,8
3.70353e-05,4.61204e-05,1.47743e-05,-8.08108e-06,-1.15434e-05,-4.53168e-06,8.27732e-06,5.83549e-05,8
3.13732e-05,5.12701e-05,1.41773e-05,-8.12609e-06,1.82914e-05,-5.01151e-06,6.36709e-06,5.00161e-05,8
8.65452e-06,4.55226e-05,8.36355e-06,-1.33496e-05,3.41208e-05,-7.63015e-06,7.77318e-06,3.16871e-05,8
-2.56005e-05,3.90057e-05,5.6039e-07,-1.78156e-05,3.40947e-05,-9.45541e-06,8.79092e-06,5.46729e-06,8
-5.98683e-05,3.4143e-05,-4.20454e-06,-1.62956e-05,2.91122e-05,-1.08804e-05,7.95203e-06,-2.33461e-05,8
-8.25144e-05,2.62044e-05,-6.09735e-06,-1.11046e-05,2.86501e-05,-1.21086e-05,7.58498e-06,-4.35828e-05,8
-9.64658e-05,1.36884e-05,-1.0385e-05,-1.02593e-05,3.26471e-05,-1.17946e-05,7.95047e-06,-4.97218e-05,8
-0.000110177,-4.71281e-07,-2.08571e-05,-1.54705e-05,3.46209e-05,-1.10726e-05,9.1748e-06,-4.78762e-05,8
-0.000114613,-1.02944e-05,-3.39011e-05,-2.10955e-05,3.26423e-05,-1.12184e-05,1.07864e-05,-4.45175e-05,8
-9.63086e-05,-1.28943e-05,-4.02117e-05,-2.05733e-05,2.76265e-05,-1.20032e-05,1.23691e-05,-3.99914e-05,8
-5.9082e-05,-8.90113e-06,-3.60189e-05,-1.26252e-05,2.26888e-05,-1.24482e-05,1.31533e-05,-3.14101e-05,8
-2.18283e-05,-5.54491e-07,-2.68405e-05,2.41835e-08,1.91915e-05,-1.15404e-05,1.42755e-05,-2.00572e-05,8
-4.15845e-06,8.81679e-06,-1.99887e-05,1.51152e-05,1.7698e-05,-9.6315e-06,1.61448e-05,-1.12529e-05,8
-1.18118e-05,1.52898e-05,-1.75028e-05,2.93864e-05,1.67676e-05,-8.32501e-06,1.78385e-05,-8.09417e-06,8
-2.96035e-05,1.76423e-05,-1.48792e-05,3.61204e-05,1.31846e-05,-8.84165e-06,1.81545e-05,-7.32473e-06,8
-4.01652e-05,1.69408e-05,-9.97514e-06,3.09621e-05,8.77788e-06,-1.02251e-05,1.81033e-05,-5.66338e-06,8
-3.88143e-05,1.6937e-05,-4.92664e-06,2.0139e-05,7.57336e-06,-1.05515e-05,1.78666e-05,-3.07392e-06,8
-3.55236e-05,1.90541e-05,-2.19995e-06,1.2363e-05,1.22361e-05,-1.04773e-05,1.67152e-05,-3.44382e-07,8
-3.77656e-05,2.08631e-05,-2.50657e-06,9.34038e-06,2.49802e-05,-1.12822e-05,1.57766e-05,2.07086e-06,8
-3.82049e-05,2.23827e-05,-4.15882e-06,7.11105e-06,4.52515e-05,-1.0374e-05,1.55467e-05,3.31522e-06,8
-2.81702e-05,2.54259e-05,-3.45404e-06,2.56159e-06,6.74374e-05,-6.85472e-06,1.49378e-05,2.28213e-06,8
-1.39318e-05,2.82063e-05,9.07652e-07,-1.39988e-06,8.09954e-05,-3.46771e-06,1.25643e-05,8.31165e-07,8
-3.77785e-06,3.22101e-05,7.78677e-06,-1.75343e-06,7.40224e-05,-2.66773e-06,9.47889e-06,3.95378e-07,8
1.16386e-06,3.52269e-05,1.5454e-05,-7.49183e-06,4.81117e-05,-3.81815e-06,7.65984e-06,4.27842e-07,8
-3.80654e-07,3.44456e-05,2.40792e-05,-2.12068e-05,2.34346e-05,-4.6905e-06,8.26149e-06,1.21802e-06,8
1.13188e-06,4.00886e-05,3.23406e-05,-3.04252e-05,1.38203e-05,-4.58702e-06,1.06552e-05,1.92316e-06,8
1.50777e-05,7.07381e-05,4.25252e-05,-2.74299e-05,2.55288e-05,-2.28672e-06,1.22132e-05,2.88479e-06,8
2.78616e-05,0.000122808,5.68212e-05,-1.90889e-05,5.25525e-05,-8.9398e-07,1.27839e-05,3.07488e-06,8
2.28768e-05,0.000153628,7.12328e-05,-2.03966e-05,5.5663e-05,-1.36863e-06,1.31916e-05,2.39031e-06,8
1.268e-06,0.000137032,7.99872e-05,-3.10337e-05,1.97275e-05,-2.13558e-06,1.45249e-05,3.25813e-06,8
-3.49339e-05,8.4259e-05,8.1079e-05,-4.12987e-05,-2.73833e-05,-2.60648e-06,1.50313e-05,4.25478e-06,8
-7.53144e-05,2.12051e-05,7.00452e-05,-4.85479e-05,-5.47128e-05,-3.3114e-06,1.32791e-05,4.92323e-06,8
-0.000100912,-3.9474e-05,4.08064e-05,-5.34245e-05,-6.09069e-05,-5.52646e-06,1.26195e-05,5.96169e-06,8
-0.000106963,-0.00010326,-4.56155e-06,-5.53745e-05,-5.8981e-05,-8.26042e-06,1.30845e-05,7.26029e-06,8
-0.000100618,-0.00014422,-5.56563e-05,-5.67179e-05,-5.26426e-05,-1.24183e-05,1.33082e-05,6.93206e-06,8
-8.71572e-05,-0.0001174,-9.83807e-05,-6.12025e-05,-3.98258e-05,-1.55481e-05,1.28183e-05,4.31898e-06,8
-6.92729e-05,-3.5508e-05,-0.000125139,-6.48523e-05,-2.20332e-05,-1.56402e-05,1.32679e-05,1.83614e-06,8
-5.07579e-05,3.90482e-05,-0.000136047,-6.34873e-05,-8.19896e-06,-1.4467e-05,1.40452e-05,1.1001e-06,8
-3.37344e-05,6.25531e-05,-0.000134139,-5.83729e-05,-3.10087e-06,-1.35618e-05,1.42658e-05,1.73764e-06,8
-2.20667e-05,3.46986e-05,-0.000122512,-5.22602e-05,-5.55419e-06,-1.30818e-05,1.46103e-05,1.83777e-06,8
-1.96734e-05,-7.61615e-06,-0.000106692,-4.44795e-05,-8.05488e-06,-1.41124e-05,1.50575e-05,8.77836e-07,8
-2.46201e-05,-2.29116e-05,-9.11256e-05,-3.22411e-05,-7.07448e-06,-1.64193e-05,1.42245e-05,-1.09681e-07,8
-2.88992e-05,-8.91792e-06,-7.69668e-05,-1.70292e-05,-4.35729e-06,-1.77666e-05,1.20695e-05,7.73613e-08,8
-2.86123e-05,6.1205e-06,-6.13745e-05,-2.31415e-06,-4.74533e-06,-1.94836e-05,1.06631e-05,2.05746e-06,8
-2.70351e-05,9.26822e-06,-4.30054e-05,1.31504e-05,-7.51786e-06,-2.09088e-05,1.09228e-05,3.83271e-06,8
-2.51201e-05,4.60619e-06,-2.47921e-05,2.58769e-05,-1.13444e-05,-1.78276e-05,1.31585e-05,4.08915e-06,8
-2.03866e-05,-3.76885e-06,-1.16835e-05,2.67228e-05,-8.91954e-06,-1.3013e-05,1.55393e-05,5.19495e-06,8
-1.47973e-05,-3.29169e-06,-3.90726e-06,1.89256e-05,1.18853e-05,-1.18646e-05,1.54541e-05,6.60318e-06,8
-1.20894e-05,6.75571e-06,1.05985e-06,1.15741e-05,4.00478e-05,-1.47591e-05,1.33038e-05,6.05089e-06,8
-1.35583e-05,5.54579e-06,4.54251e-06,1.27564e-05,4.45812e-05,-1.95511e-05,1.15849e-05,4.1004e-06,8
-2.28478e-05,-1.2864e-05,5.134e-06,3.60182e-05,2.26523e-05,-2.26422e-05,1.15503e-05,2.84612e-06,8
-4.04368e-05,-3.43838e-05,2.2841e-06,7.52605e-05,5.53373e-06,-2.25802e-05,1.23005e-05,2.46341e-06,8
-5.19819e-05,-3.76759e-05,5.92403e-07,9.89807e-05,1.2113e-05,-1.93571e-05,1.14437e-05,3.16468e-06,8
-4.89906e-05,-1.13748e-05,3.68602e-06,9.0057e-05,3.37021e-05,-1.39401e-05,1.00606e-05,8.34043e-06,8
-4.07272e-05,2.88201e-05,9.52851e-06,5.97406e-05,4.38422e-05,-1.10064e-05,9.99551e-06,2.01237e-05,8
-3.50782e-05,5.43676e-05,1.2699e-05,2.89214e-05,4.03393e-05,-1.19582e-05,1.14652e-05,3.24566e-05,8
-3.49938e-05,5.14958e-05,1.31737e-05,9.34493e-06,4.93051e-05,-1.27883e-05,1.29397e-05,3.43061e-05,8
-3.84813e-05,5.244e-05,1.29644e-05,1.36147e-06,7.96852e-05,-1.24306e-05,1.31754e-05,2.52561e-05,8
-4.11147e-05,0.000109257,1.46641e-05,-2.01948e-06,0.000110422,-1.134e-05,1.10355e-05,1.2864e-05,8
-4.3346e-05,0.000191439,1.71837e-05,-6.1398e-06,0.000108187,-1.21905e-05,8.88612e-06,1.78707e-06,8
-4.6906e-05,0.000216959,1.59434e-05,-1.10496e-05,6.88853e-05,-1.48022e-05,9.21933e-06,-7.33812e-06,8
-4.79736e-05,0.00015676,1.13594e-05,-1.52944e-05,2.28767e-05,-1.67745e-05,9.89208e-06,-1.25371e-05,8
-4.02804e-05,5.25957e-05,7.78257e-06,-1.70878e-05,2.96228e-06,-1.68549e-05,9.23638e-06,-1.35032e-05,8
-2.39601e-05,-4.17812e-05,7.60141e-06,-1.78684e-05,1.57086e-05,-1.44085e-05,7.45098e-06,-1.34331e-05,8
-9.50745e-06,-0.000126431,8.92698e-06,-1.95923e-05,3.96835e-05,-1.06903e-05,6.38944e-06,-1.43512e-05,8
-4.95479e-06,-0.000194179,8.95822e-06,-2.14115e-05,4.48864e-05,-9.40777e-06,7.4654e-06,-1.60778e-05,8
-6.60985e-06,-0.000195499,6.56183e-06,-2.39976e-05,2.1933e-05,-1.19469e-05,9.79168e-06,-1.60811e-05,8
-6.66958e-06,-0.000133519,3.64362e-06,-3.06108e-05,-1.06224e-05,-1.45119e-05,1.12301e-05,-1.35286e-05,8
-2.99129e-06,-7.3184e-05,3.52964e-06,-3.73026e-05,-3.38941e-05,-1.56932e-05,1.17969e-05,-9.90589e-06,8
1.07081e-06,-3.98554e-05,5.10792e-06,-3.49552e-05,-3.87345e-05,-1.66006e-05,1.18616e-05,-6.21734e-06,8
-3.59847e-07,-7.67983e-06,4.716e-06,-2.29256e-05,-2.00047e-05,-1.75681e-05,1.2096e-05,-2.58181e-06,8
-1.29916e-05,3.29457e-05,2.41485e-06,-1.04274e-05,1.69352e-05,-1.62616e-05,1.33309e-05,4.94553e-07,8
-3.21113e-05,5.12908e-05,1.09231e-06,-4.39234e-06,4.52284e-05,-1.43703e-05,1.43889e-05,2.8681e-06,8
-4.21568e-05,3.88568e-05,2.11968e-06,-2.18714e-06,4.60659e-05,-1.44089e-05,1.32769e-05,5.36473e-06,8
-3.62741e-05,2.99079e-05,2.26921e-06,1.41664e-06,2.70559e-05,-1.48351e-05,1.18319e-05,8.75343e-06,8
-2.22791e-05,5.29624e-05,1.15925e-06,8.08666e-06,6.98253e-06,-1.37842e-05,1.04931e-05,1.03332e-05,8
-1.18998e-05,0.000108668,2.81753e-06,1.50454e-05,2.07536e-07,-1.15125e-05,6.91467e-06,9.26983e-06,8
-1.08806e-05,0.00016585,6.63339e-06,1.8255e-05,7.4519e-06,-9.80124e-06,4.81762e-07,8.76651e-06,8
-1.29861e-05,0.000173213,7.77863e-06,1.88559e-05,2.35988e-06,-8.49517e-06,-6.12847e-06,1.03086e-05,8
-1.55189e-05,0.000125102,5.46146e-06,1.75116e-05,-2.27118e-05,-4.01634e-06,-9.27503e-06,1.07345e-05,8
-2.1513e-05,6.02548e-05,2.31908e-06,1.34971e-05,-3.9595e-05,3.39929e-06,-8.14984e-06,9.22645e-06,8
-2.99767e-05,-1.01645e-05,-4.91048e-07,9.07199e-06,-3.32481e-05,8.62858e-06,-5.4331e-06,7.53773e-06,8
-3.52936e-05,-9.36118e-05,-2.95631e-06,4.06796e-06,-8.10348e-06,6.76709e-06,-2.13039e-06,7.92674e-06,8
-2.99469e-05,-0.000143494,-5.96726e-06,-7.27119e-07,1.93229e-05,4.95886e-07,4.55801e-06,9.85493e-06,8
-1.59651e-05,-0.000108155,-7.37042e-06,-9.99046e-07,3.70144e-05,-2.66628e-06,1.18413e-05,8.76561e-06,8
-3.37946e-06,-3.29261e-05,-6.36379e-06,5.33129e-06,4.40328e-05,-2.21529e-06,1.66209e-05,6.43729e-06,8
2.05015e-06,2.40638e-05,-3.47295e-06,1.43552e-05,4.67918e-05,-6.19938e-07,1.87576e-05,4.96107e-06,8
1.57266e-06,5.49725e-05,9.21307e-07,1.86923e-05,4.61903e-05,3.49203e-07,2.03964e-05,4.17146e-06,8
-4.3727e-06,7.5712e-05,2.99425e-06,1.32697e-05,3.67191e-05,1.13409e-07,2.40871e-05,3.69764e-06,8
-1.48815e-05,8.99402e-05,5.7305e-08,1.34893e-06,1.9514e-05,-9.00149e-07,2.87177e-05,2.9863e-06,8
-2.94443e-05,8.99218e-05,-3.62228e-06,-9.98262e-06,4.98805e-06,-7.6869e-07,3.23142e-05,1.57926e-06,8
-4.73241e-05,7.07435e-05,-4.28467e-06,-1.59458e-05,1.05117e-06,3.77448e-07,3.38072e-05,1.04112e-06,8
-6.319e-05,2.37624e-05,-4.7745e-06,-1.60206e-05,3.12928e-06,-3.97316e-08,3.3939e-05,1.92741e-06,8
-7.08841e-05,-5.07921e-05,-8.28539e-06,-1.36658e-05,2.77433e-06,-3.06057e-06,3.31017e-05,1.1994e-06,8
-6.86675e-05,-0.000123308,-1.28116e-05,-1.2144e-05,-2.21235e-06,-6.08359e-06,3.20082e-05,-2.27296e-06,8
-5.91412e-05,-0.000148939,-1.44854e-05,-1.05634e-05,-5.80749e-06,-6.39335e-06,3.08504e-05,-6.51638e-06,8
-4.48029e-05,-0.000109865,-1.39129e-05,-6.69535e-06,-3.76476e-06,-4.47722e-06,2.98962e-05,-8.05727e-06,8
-2.56576e-05,-2.83276e-05,-1.16979e-05,-2.69347e-06,1.99558e-06,-1.57695e-06,2.87859e-05,-5.81604e-06,8
-2.778e-06,4.26548e-05,-6.84732e-06,-6.15212e-07,5.61569e-06,1.62084e-06,2.5637e-05,-1.51637e-06,8
1.58939e-05,6.83053e-05,2.69055e-07,-7.14389e-07,4.9932e-06,3.61714e-06,2.07168e-05,2.76486e-06,8
2.74538e-05,4.90319e-05,5.57448e-06,-1.63457e-06,5.20043e-06,1.04188e-06,1.64718e-05,3.98139e-06,8
3.07445e-05,6.73803e-06,7.68659e-06,-2.87006e-06,1.07886e-05,-3.76717e-06,1.36788e-05,4.22905e-06,8
2.55044e-05,-1.33467e-05,8.54396e-06,-4.59551e-06,1.82392e-05,-5.9819e-06,1.20472e-05,5.66772e-06,8
1.74661e-05,1.81532e-05,8.87277e-06,-5.53077e-06,2.43059e-05,-4.45488e-06,1.28543e-05,5.15091e-06,8
-2.24269e-06,8.39384e-05,8.094e-06,-4.99872e-06,3.13115e-05,-6.84029e-07,1.45133e-05,3.02136e-06,8
-4.15156e-05,0.000142364,2.32966e-06,-1.73595e-06,3.37202e-05,-9.69422e-07,1.30976e-05,1.76605e-06,8
-8.58161e-05,0.000159006,-1.00519e-05,3.21804e-07,2.76582e-05,-5.95312e-06,1.14955e-05,1.29657e-06,8
-0.000112115,0.000121658,-2.14118e-05,-1.24797e-06,1.90884e-05,-9.78749e-06,1.28111e-05,8.50349e-07,8
-0.00010504,7.202e-05,-2.18362e-05,-2.71261e-06,1.58848e-05,-8.77282e-06,1.28108e-05,9.99432e-07,8
-6.14383e-05,7.31397e-05,-1.4631e-05,8.05843e-07,1.81896e-05,-3.31869e-06,1.02508e-05,8.65528e-07,8
2.66691e-06,9.37006e-05,-1.09718e-05,1.37431e-05,2.07468e-05,5.45549e-08,7.86491e-06,2.23901e-06,8
6.01272e-05,9.1238e-05,-1.24866e-05,3.11207e-05,2.46175e-05,2.20354e-07,7.90201e-06,4.37835e-06,8
0.000102415,8.43789e-05,-1.48617e-05,4.64175e-05,3.03957e-05,9.79849e-07,9.43134e-06,5.43808e-06,8
0.000116599,7.89251e-05,-1.59926e-05,5.22058e-05,3.41499e-05,3.18451e-06,1.16557e-05,4.53859e-06,8
9.09584e-05,2.33692e-05,-1.72327e-05,4.47908e-05,3.17558e-05,5.47778e-06,1.30779e-05,3.3468e-06,8
3.45582e-05,-9.66402e-05,-2.06054e-05,2.54372e-05,2.60208e-05,4.16338e-06,1.28923e-05,3.74602e-06,8
-3.49765e-05,-0.000174275,-2.55375e-05,-3.35463e-06,2.20172e-05,-1.59066e-06,1.27726e-05,3.83651e-06,8
-0.000103879,-0.00013441,-2.83598e-05,-3.54194e-05,2.0371e-05,-9.25053e-06,1.28226e-05,2.44692e-06,8
-0.000165612,-3.62638e-05,-2.71195e-05,-5.99253e-05,1.91805e-05,-1.57015e-05,1.27224e-05,9.41961e-08,8
-0.00020721,2.56811e-05,-2.51345e-05,-6.72357e-05,1.58893e-05,-1.86378e-05,1.26241e-05,-1.00087e-06,8
-0.000212864,1.64558e-05,-2.5732e-05,-6.1263e-05,9.52812e-06,-1.90059e-05,1.27178e-05,-1.06036e-06,8
-0.000181907,-5.77069e-05,-2.82604e-05,-5.08032e-05,2.86013e-06,-1.92443e-05,1.22778e-05,-5.50351e-07,8
-0.000134718,-0.000154882,-2.91788e-05,-3.82709e-05,-5.6542e-07,-1.8804e-05,1.11953e-05,-2.3619e-07,8
-9.28499e-05,-0.00020085,-2.66194e-05,-2.37665e-05,-9.02453e-07,-1.7278e-05,1.0052e-05,-4.27214e-08,8
-6.8722e-05,-0.000156108,-2.18818e-05,-1.40081e-05,5.90788e-07,-1.74463e-05,1.01186e-05,-8.73405e-07,8
-6.03292e-05,-6.43185e-05,-1.65008e-05,-1.25325e-05,3.58856e-06,-2.04242e-05,9.85259e-06,-1.97996e-06,8
-5.79081e-05,1.01058e-05,-1.03132e-05,-1.72645e-05,1.00646e-05,-2.31379e-05,8.13175e-06,-2.26374e-06,8
-5.22285e-05,3.84563e-05,-3.7175e-06,-2.3993e-05,1.64527e-05,-2.27645e-05,6.00859e-06,-2.65723e-06,8
-4.01384e-05,3.27807e-05,4.10111e-06,-2.8052e-05,9.86716e-06,-2.10726e-05,5.21294e-06,-4.11996e-06,8
-2.3864e-05,2.00146e-05,1.40174e-05,-2.69527e-05,-8.07032e-06,-2.05767e-05,6.14404e-06,-5.05493e-06,8
-1.37863e-05,6.81659e-06,2.5194e-05,-2.46846e-05,-1.91169e-05,-2.04016e-05,6.56465e-06,-1.30214e-06,8
-2.35544e-05,-1.63085e-05,3.68565e-05,-2.28874e-05,-2.04366e-05,-2.0238e-05,7.34962e-06,1.73521e-05,8
-4.83818e-05,-3.02234e-05,4.43664e-05,-2.02023e-05,-2.20563e-05,-2.08905e-05,9.42795e-06,4.4348e-05,8
-6.4923e-05,-1.17437e-05,4.3678e-05,-1.91178e-05,-2.5706e-05,-2.07801e-05,1.18015e-05,5.61633e-05,8
-5.91206e-05,1.2866e-05,3.56498e-05,-1.75878e-05,-2.30447e-05,-2.03165e-05,1.31602e-05,4.84199e-05,8
-3.99758e-05,2.52928e-05,2.22631e-05,-1.26368e-05,-1.07796e-05,-1.84794e-05,1.28835e-05,2.81625e-05,8
-2.18376e-05,3.35107e-05,6.81162e-06,-3.75601e-06,2.09749e-06,-1.52164e-05,1.08321e-05,1.49583e-06,8
-8.00484e-06,4.23242e-05,-1.18621e-05,3.91924e-06,7.63052e-06,-1.32163e-05,9.57763e-06,-2.62795e-05,8
-7.5706e-07,4.55441e-05,-3.13929e-05,1.0021e-05,1.52405e-05,-1.12802e-05,1.10026e-05,-4.48253e-05,8
-3.07133e-06,4.15353e-05,-4.50085e-05,1.79302e-05,3.43771e-05,-9.74841e-06,1.15845e-05,-4.99332e-05,8
-9.9317e-06,3.66121e-05,-4.89843e-05,2.20323e-05,5.19162e-05,-8.30374e-06,1.14782e-05,-4.80212e-05,8
-1.84785e-05,3.65711e-05,-4.52463e-05,1.68937e-05,5.30856e-05,-7.49868e-06,1.09968e-05,-4.6176e-05,8
-3.0174e-05,4.47377e-05,-4.11526e-05,6.22683e-06,5.36038e-05,-8.73341e-06,9.56193e-06,-4.34285e-05,8
-4.11673e-05,5.83787e-05,-4.08165e-05,-2.23777e-06,8.46014e-05,-1.05764e-05,8.11991e-06,-3.5675e-05,8
-4.31488e-05,7.44559e-05,-4.30045e-05,-7.5892e-06,0.000133187,-1.17808e-05,7.03551e-06,-2.43361e-05,8
-2.98488e-05,9.4973e-05,-4.3707e-05,-1.24628e-05,0.00014128,-1.30198e-05,6.41758e-06,-1.27834e-05,8
4.38463e-07,0.000116012,-4.16173e-05,-1.6352e-05,8.65559e-05,-1.44205e-05,7.55353e-06,-5.17274e-06,8
3.36666e-05,0.000118976,-3.68833e-05,-1.76385e-05,2.32568e-05,-1.39402e-05,1.07067e-05,-1.94169e-06,8
5.08247e-05,9.02782e-05,-3.10091e-05,-1.79124e-05,6.92442e-06,-1.2223e-05,1.25805e-05,-5.84991e-07,8
5.02634e-05,3.6972e-05,-2.47165e-05,-1.8676e-05,1.75448e-05,-1.19533e-05,1.14413e-05,8.46255e-07,8
4.35237e-05,-1.67713e-05,-1.82907e-05,-1.90984e-05,2.62241e-06,-1.19685e-05,9.1322e-06,2.76719e-06,8
3.5059e-05,-4.85695e-05,-1.24088e-05,-1.8536e-05,-4.25381e-05,-8.58485e-06,8.55985e-06,5.33941e-06,8
2.25e-05,-4.6431e-05,-7.033e-06,-1.42082e-05,-8.43704e-05,-3.21764e-06,9.45857e-06,6.26276e-06,8
2.45269e-06,-1.35612e-05,-1.47781e-06,-6.51972e-06,-9.91507e-05,9.99273e-08,1.11911e-05,4.67793e-06,8
-2.42254e-05,2.02428e-05,1.31138e-06,-7.67573e-07,-8.11155e-05,1.5488e-07,1.33833e-05,1.62821e-06,8
-4.66514e-05,3.22704e-05,-2.5295e-06,6.98582e-07,-4.42641e-05,-3.41413e-06,1.39438e-05,2.02481e-08,8
-5.62031e-05,2.94038e-05,-1.03472e-05,-2.45321e-06,-1.63184e-05,-1.33105e-05,1.38376e-05,6.46211e-07,8
-5.56612e-05,2.45771e-05,-1.47953e-05,-9.27568e-06,-1.46244e-07,-2.82768e-05,1.4895e-05,1.28607e-06,8
-4.69509e-05,2.31789e-05,-1.22939e-05,-1.20773e-05,1.84253e-05,-4.27866e-05,1.58012e-05,2.89386e-06,8
-3.48298e-05,2.27635e-05,-6.44185e-06,-7.67856e-06,2.62499e-05,-4.36601e-05,1.73699e-05,5.79234e-06,8
-2.6238e-05,2.24609e-05,-7.36677e-07,1.69822e-07,1.41372e-05,-1.41642e-05,1.95472e-05,7.70581e-06,8
-2.16733e-05,2.36279e-05,4.61003e-06,1.11719e-05,6.3558e-07,2.44315e-05,2.19594e-05,7.66842e-06,8
-2.10104e-05,2.49465e-05,8.94028e-06,1.88556e-05,1.82045e-06,3.62157e-05,2.25354e-05,6.80162e-06,8
-2.25469e-05,2.46411e-05,9.70367e-06,2.01867e-05,1.55464e-05,2.33254e-05,2.00576e-05,6.93105e-06,8
-2.21413e-05,2.6369e-05,1.15045e-05,2.16227e-05,2.3065e-05,7.05708e-06,1.6431e-05,7.53805e-06,8
-1.9124e-05,3.59198e-05,2.12618e-05,2.38617e-05,2.0065e-05,-4.22938e-07,1.34034e-05,6.6831e-06,8
-1.91127e-05,4.76871e-05,3.6379e-05,2.54947e-05,1.76793e-05,-2.24766e-06,1.17159e-05,6.17349e-06,8
-2.09593e-05,4.9801e-05,4.67962e-05,2.64072e-05,2.28425e-05,-3.18607e-06,1.20085e-05,7.24246e-06,8
-2.26265e-05,3.84669e-05,4.38105e-05,2.80695e-05,3.12302e-05,-4.39096e-06,1.45987e-05,8.01537e-06,8
-2.43964e-05,2.68822e-05,2.88732e-05,3.11372e-05,3.57273e-05,-5.9621e-06,1.58441e-05,7.52818e-06,8
-2.59089e-05,3.4508e-05,1.02696e-05,3.46418e-05,3.69223e-05,-8.38664e-06,1.54108e-05,8.06981e-06,8
-2.52113e-05,5.7484e-05,-8.16128e-06,3.69747e-05,4.17672e-05,-1.16765e-05,1.49307e-05,9.69125e-06,8
-2.28443e-05,7.53288e-05,-2.49739e-05,3.66663e-05,5.15241e-05,-1.49157e-05,1.46778e-05,1.05631e-05,8
-2.11519e-05,7.98315e-05,-3.85107e-05,3.36021e-05,5.63033e-05,-1.83659e-05,1.41645e-05,9.5542e-06,8
-2.32656e-05,7.45195e-05,-4.79604e-05,2.51736e-05,5.11386e-05,-1.99801e-05,1.41466e-05,6.75663e-06,8
-3.3722e-05,6.1643e-05,-5.42026e-05,1.12758e-05,4.08507e-05,-1.71181e-05,1.4175e-05,5.01961e-06,8
-5.0313e-05,3.47398e-05,-5.79386e-05,-2.74049e-06,3.27916e-05,-1.13388e-05,1.23104e-05,6.63226e-06,8
-6.41202e-05,-8.39696e-06,-5.67863e-05,-1.21788e-05,2.14857e-05,-8.31679e-06,9.36768e-06,9.6759e-06,8
-6.67413e-05,-4.85704e-05,-4.8571e-05,-1.7026e-05,2.24834e-07,-9.95037e-06,8.55182e-06,1.13e-05,8
-5.8395e-05,-7.33004e-05,-3.59193e-05,-2.24022e-05,-2.65035e-05,-1.35701e-05,9.5249e-06,1.0395e-05,8
-4.10326e-05,-8.51139e-05,-2.52936e-05,-2.74893e-05,-4.58587e-05,-1.44766e-05,9.54999e-06,7.69121e-06,8
-2.20868e-05,-7.90546e-05,-1.82531e-05,-2.51391e-05,-5.09088e-05,-1.13292e-05,9.34929e-06,5.5345e-06,8
-1.30133e-05,-5.21595e-05,-1.28863e-05,-2.02027e-05,-5.12093e-05,-7.65065e-06,1.0048e-05,5.4677e-06,8
-1.27939e-05,-4.3591e-06,-8.35374e-06,-1.97591e-05,-5.95585e-05,-6.11858e-06,1.12369e-05,7.53675e-06,8
-1.61489e-05,4.5774e-05,-4.39794e-06,-1.96978e-05,-7.36291e-05,-4.64734e-06,1.21473e-05,6.98354e-06,8
-2.07092e-05,7.31005e-05,2.83267e-06,-1.84728e-05,-8.58579e-05,-2.63204e-06,1.15177e-05,4.8294e-06,8
-2.38415e-05,6.52509e-05,1.05112e-05,-2.01599e-05,-8.36174e-05,-3.21431e-06,8.92457e-06,4.76042e-06,8
-2.71362e-05,2.46834e-05,1.28101e-05,-2.98185e-05,-5.81226e-05,-5.25454e-06,6.58986e-06,4.28445e-06,8
-2.85173e-05,-2.54994e-05,1.12143e-05,-4.47724e-05,-1.95013e-05,-6.10979e-06,5.95898e-06,2.81882e-06,8
-2.62356e-05,-7.21487e-05,7.15893e-06,-5.67713e-05,1.73232e-05,-5.98207e-06,7.86909e-06,9.0305e-07,8
-2.4884e-05,-0.000110839,2.25719e-06,-6.1453e-05,4.11679e-05,-5.61808e-06,1.04221e-05,-6.70106e-07,8
-2.61138e-05,-0.000112309,-1.75449e-06,-5.2443e-05,5.26029e-05,-6.27747e-06,1.14604e-05,-5.20055e-07,8
-2.75433e-05,-6.81649e-05,-4.31418e-06,-3.87191e-05,5.65908e-05,-7.5176e-06,1.17751e-05,1.26125e-06,8
-3.26065e-05,-1.93413e-05,-8.22367e-06,-3.6034e-05,5.83295e-05,-7.40416e-06,1.20373e-05,1.47197e-06,8
-4.27303e-05,9.37962e-06,-9.45354e-06,-4.3852e-05,5.84831e-05,-6.73952e-06,1.26259e-05,1.19235e-07,8
-5.0947e-05,1.67996e-05,-4.62932e-06,-4.86707e-05,5.63081e-05,-7.50042e-06,1.40761e-05,-6.00963e-07,8
-5.07063e-05,1.75542e-05,3.60711e-06,-3.57157e-05,5.33747e-05,-9.00115e-06,1.47987e-05,4.72871e-07,8
-4.14512e-05,2.43166e-05,1.29366e-05,-3.19082e-06,5.30218e-05,-9.62525e-06,1.4274e-05,1.46763e-06,8
-2.91588e-05,3.28971e-05,2.12915e-05,3.69007e-05,5.30111e-05,-1.0317e-05,1.33161e-05,1.09615e-06,8
-2.11715e-05,2.41667e-05,2.71889e-05,6.26294e-05,4.74489e-05,-1.17736e-05,1.18928e-05,1.14223e-06,8
-1.7066e-05,-4.30817e-06,3.21624e-05,5.99768e-05,3.58004e-05,-1.41172e-05,1.12948e-05,1.5779e-06,8
-1.06344e-05,-2.54461e-05,4.0711e-05,3.40746e-05,2.1793e-05,-1.69552e-05,1.24248e-05,1.65977e-06,8
-3.87668e-07,-1.79977e-05,5.58469e-05,1.16014e-06,1.15057e-05,-1.84499e-05,1.46794e-05,3.1551e-07,8
1.43763e-05,1.89763e-05,7.58915e-05,-2.60609e-05,6.98152e-06,-1.77743e-05,1.6284e-05,-2.0933e-06,8
3.02639e-05,6.27974e-05,9.15908e-05,-3.97742e-05,6.28699e-06,-1.63988e-05,1.70072e-05,-3.8032e-06,8
3.37215e-05,8.26468e-05,9.33326e-05,-3.84273e-05,4.50363e-06,-1.52436e-05,1.60552e-05,-3.65152e-06,8
1.47744e-05,6.56294e-05,7.68277e-05,-2.74281e-05,1.66518e-07,-1.43727e-05,1.37056e-05,-3.27334e-06,8
-2.00389e-05,3.34374e-05,4.59608e-05,-1.21266e-05,-1.90561e-06,-1.47614e-05,1.21299e-05,-2.82952e-06,8
-5.61572e-05,1.02478e-05,3.52817e-06,4.90871e-06,1.57314e-06,-1.72341e-05,1.27194e-05,-2.22635e-06,8
-7.77646e-05,-1.15213e-06,-4.7359e-05,1.70538e-05,7.65676e-06,-2.03084e-05,1.50835e-05,-1.15536e-06,8
-7.38558e-05,1.77285e-06,-9.39671e-05,1.71101e-05,1.46158e-05,-2.24323e-05,1.70397e-05,5.07564e-07,8
-5.0323e-05,3.16502e-05,-0.000119875,9.5308e-06,1.99729e-05,-2.2099e-05,1.79298e-05,6.53039e-07,8
-2.36179e-05,7.5514e-05,-0.000122493,2.996e-06,2.35851e-05,-1.98214e-05,1.68926e-05,-5.69693e-07,8
-4.42049e-07,9.55284e-05,-0.000110921,1.24375e-06,2.43417e-05,-1.73819e-05,1.58691e-05,-7.579e-07,8
1.07647e-05,6.97387e-05,-9.53507e-05,2.06552e-06,2.41117e-05,-1.26601e-05,1.55223e-05,6.669e-07,8
-2.57773e-07,1.7237e-05,-8.10956e-05,1.39311e-06,3.14602e-05,-7.70359e-06,1.41579e-05,2.97627e-06,8
-3.07669e-05,-4.08482e-05,-6.69542e-05,-3.9705e-06,3.36264e-05,-6.73562e-06,1.19107e-05,3.80969e-06,8
-7.56738e-05,-0.000111599,-5.28029e-05,-1.07185e-05,1.17936e-05,-9.78192e-06,9.16515e-06,3.01653e-06,8
-0.000126905,-0.000195739,-4.00539e-05,-1.43144e-05,-1.81772e-05,-1.56031e-05,9.16142e-06,1.81229e-06,8
-0.000160138,-0.000239153,-2.81761e-05,-1.36175e-05,-2.9685e-05,-2.1215e-05,1.13013e-05,8.31516e-07,8
-0.000153793,-0.000198988,-1.51445e-05,-8.5777e-06,-1.45011e-05,-2.13637e-05,1.28976e-05,1.88778e-06,8
-0.000116748,-0.000102766,-3.47735e-06,-3.01406e-06,1.74171e-05,-1.68311e-05,1.29021e-05,3.08451e-06,8
-7.7752e-05,7.3289e-06,1.5624e-06,-3.67313e-06,3.97598e-05,-1.32001e-05,1.15169e-05,4.23e-06,8
-4.96797e-05,9.04439e-05,-3.36785e-07,-6.17013e-06,3.73181e-05,-1.02542e-05,1.04017e-05,6.51313e-06,8
-2.545e-05,0.000130515,-3.87849e-06,-1.46032e-06,1.80834e-05,-6.49731e-06,1.08409e-05,9.6081e-06,8
-4.58097e-06,0.000138121,-7.67295e-06,7.53499e-06,-1.18426e-06,-3.33196e-06,1.17364e-05,1.0745e-05,8
6.50094e-06,0.000126067,-1.49815e-05,1.16036e-05,-1.1292e-05,-3.47158e-06,1.18966e-05,8.44025e-06,8
5.38332e-06,9.31106e-05,-2.46795e-05,6.23852e-06,-5.73036e-06,-6.59302e-06,1.21219e-05,3.66174e-06,8
-4.00598e-06,3.9108e-05,-2.83766e-05,-2.54224e-06,1.64785e-05,-9.69164e-06,1.24907e-05,-2.52162e-06,8
-1.68293e-05,-8.66584e-06,-2.20235e-05,-7.65299e-06,4.00497e-05,-1.08102e-05,1.25245e-05,-7.7096e-06,8
-2.91626e-05,-8.58556e-06,-1.0557e-05,-7.35949e-06,4.50596e-05,-9.81643e-06,1.22685e-05,-9.94e-06,8
-4.19784e-05,3.51916e-05,8.50444e-07,-4.75307e-06,3.53981e-05,-7.19411e-06,1.34257e-05,-9.61833e-06,8
-5.29233e-05,7.91139e-05,1.19072e-05,-3.72199e-06,3.99398e-05,-4.79513e-06,1.4797e-05,-8.32132e-06,8
-5.48562e-05,0.0001084,2.17699e-05,-4.40686e-06,6.9346e-05,-4.83569e-06,1.42399e-05,-7.87663e-06,8
-4.81457e-05,0.000119877,2.76247e-05,-2.33423e-06,9.59227e-05,-5.80425e-06,1.19614e-05,-8.21612e-06,8
-3.78871e-05,9.21571e-05,2.8549e-05,6.04599e-06,8.61846e-05,-5.83215e-06,1.00683e-05,-6.97488e-06,8
-2.82093e-05,2.90419e-05,2.42258e-05,1.65811e-05,4.64365e-05,-5.13233e-06,1.03893e-05,-5.1356e-06,8
-2.22766e-05,-1.96662e-05,1.52365e-05,2.35556e-05,8.87154e-06,-5.32844e-06,1.18971e-05,-3.15171e-06,8
-1.9529e-05,-1.66146e-05,3.07951e-06,2.53975e-05,-1.13968e-05,-6.29853e-06,1.31277e-05,-1.57332e-06,8
-2.26698e-05,4.2233e-06,-1.32515e-05,2.18704e-05,-2.14828e-05,-5.76045e-06,1.30912e-05,7.26244e-07,8
-3.20982e-05,3.14625e-06,-2.99333e-05,1.87537e-05,-2.51055e-05,-4.57216e-06,1.14787e-05,3.90318e-06,8
-3.94169e-05,9.82331e-06,-3.95735e-05,2.38261e-05,-2.14267e-05,-6.6846e-06,1.01024e-05,5.71812e-06,8
-3.85783e-05,2.59065e-05,-3.9168e-05,3.54636e-05,-1.11708e-05,-1.00484e-05,8.26623e-06,6.04252e-06,8
-3.05643e-05,2.11484e-05,-3.07964e-05,4.36291e-05,3.73124e-06,-1.06501e-05,6.00556e-06,3.90215e-06,8
-2.54637e-05,5.2265e-08,-2.24835e-05,4.03804e-05,1.79064e-05,-1.00673e-05,4.5943e-06,9.98871e-07,8
-2.57852e-05,-2.56189e-05,-1.74926e-05,2.5262e-05,2.68679e-05,-1.01071e-05,4.65189e-06,-1.00521e-06,8
-3.16951e-05,-6.33643e-05,-1.32477e-05,5.91447e-06,2.82143e-05,-1.00674e-05,5.86719e-06,-3.57875e-06,8
-4.50882e-05,-0.000104963,-6.38913e-06,-1.00712e-05,2.47993e-05,-9.66667e-06,6.37988e-06,-8.01712e-06,8
-5.62371e-05,-0.000110849,2.06468e-06,-2.34771e-05,1.99302e-05,-1.01302e-05,6.94315e-06,-1.33022e-05,8
-5.44647e-05,-8.55688e-05,9.18147e-06,-3.67655e-05,1.61862e-05,-1.09455e-05,7.56389e-06,-1.67404e-05,8
-4.31021e-05,-6.20963e-05,1.37734e-05,-4.71121e-05,1.29564e-05,-1.08354e-05,8.06312e-06,-1.50784e-05,8
-3.16627e-05,-4.38705e-05,1.61081e-05,-4.91541e-05,9.38581e-06,-8.80761e-06,9.43757e-06,-9.73402e-06,8
-2.50806e-05,-1.66438e-05,1.5628e-05,-4.41521e-05,5.70084e-06,-5.18262e-06,1.20419e-05,-5.49487e-06,8
-2.33643e-05,1.63708e-05,1.1215e-05,-3.83556e-05,2.20475e-06,-2.63622e-06,1.34399e-05,-4.05206e-06,8
-2.24514e-05,4.55218e-05,6.02911e-06,-3.5813e-05,-1.43721e-06,-3.85998e-06,1.2677e-05,-3.27676e-06,8
-1.81985e-05,7.70859e-05,2.64529e-06,-3.81484e-05,-6.61726e-06,-7.61689e-06,1.12381e-05,-1.99793e-06,8
-8.34022e-06,0.000113981,-2.50817e-07,-4.63596e-05,-1.18305e-05,-9.26023e-06,1.1283e-05,-1.81889e-06,8
4.75917e-06,0.000135875,-4.50024e-06,-5.4786e-05,-1.40362e-05,-8.35237e-06,1.40305e-05,-2.31201e-06,8
1.53086e-05,0.000124104,-9.13161e-06,-5.33523e-05,-1.10811e-05,-7.85821e-06,1.72787e-05,-1.50291e-06,8
1.67244e-05,8.93389e-05,-1.1758e-05,-4.10004e-05,-2.36872e-06,-9.21052e-06,1.92522e-05,1.03762e-06,8
5.26087e-06,5.00567e-05,-1.04864e-05,-2.84797e-05,1.14317e-05,-1.17606e-05,1.96998e-05,4.18777e-06,8
-1.54427e-05,2.75582e-08,-7.85299e-06,-2.36436e-05,2.31668e-05,-1.33699e-05,1.93403e-05,8.30023e-06,8
-3.47433e-05,-8.10838e-05,-8.42215e-06,-2.25614e-05,2.46954e-05,-1.23694e-05,1.77534e-05,1.46631e-05,8
-4.54501e-05,-0.000130222,-1.28247e-05,-1.48868e-05,1.68201e-05,-9.43342e-06,1.4432e-05,2.21643e-05,8
-5.25603e-05,-8.32273e-05,-1.55286e-05,3.47134e-06,9.63958e-06,-8.03285e-06,1.25557e-05,2.421e-05,8
-6.05662e-05,4.43887e-06,-1.40368e-05,2.47431e-05,9.20253e-06,-8.81837e-06,1.23207e-05,1.84852e-05,8
-6.10187e-05,9.13728e-05,-1.13581e-05,3.91983e-05,8.897e-06,-7.86798e-06,1.13759e-05,9.003e-06,8
-4.58267e-05,0.000160265,-9.40302e-06,3.98029e-05,7.60576e-06,-7.4314e-06,9.56438e-06,9.38208e-07,8
-2.38882e-05,0.000179509,-7.38984e-06,3.09205e-05,1.34294e-05,-8.32299e-06,8.78308e-06,-5.49115e-06,8
-1.05436e-05,0.000144638,-5.91764e-06,1.71385e-05,1.92978e-05,-5.92994e-06,1.04674e-05,-1.13634e-05,8
-9.42743e-06,6.92534e-05,-8.04191e-06,-1.73932e-07,1.46002e-05,-1.33501e-06,1.17455e-05,-1.47203e-05,8
-1.64209e-05,-9.40828e-06,-1.29291e-05,-1.05833e-05,3.16154e-06,2.64279e-06,1.01255e-05,-1.62654e-05,8
-2.54885e-05,-8.9795e-05,-1.60696e-05,-1.40831e-05,-2.98725e-06,1.47247e-06,8.37053e-06,-1.38498e-05,8
-3.4842e-05,-0.000160869,-1.57496e-05,-1.74749e-05,-1.18477e-06,-4.90577e-06,9.94096e-06,-1.03468e-05,8
-4.1397e-05,-0.000170595,-1.53485e-05,-2.51177e-05,1.60213e-06,-1.02654e-05,1.35079e-05,-8.53492e-06,8
-4.07147e-05,-0.000122514,-1.50896e-05,-3.15476e-05,4.0333e-06,-1.09504e-05,1.68656e-05,-7.36637e-06,8
-3.61836e-05,-6.47339e-05,-1.35432e-05,-2.77801e-05,1.17888e-05,-8.18123e-06,1.78781e-05,-6.89106e-06,8
-3.04309e-05,-2.70116e-05,-1.04271e-05,-1.26566e-05,3.39606e-05,-4.24233e-06,1.68853e-05,-6.21514e-06,8
-2.36565e-05,-1.50267e-05,-7.77962e-06,1.12436e-05,6.45215e-05,-9.14289e-07,1.56397e-05,-4.33316e-06,8
-2.00739e-05,-2.22888e-05,-6.40847e-06,3.68902e-05,7.61424e-05,2.3478e-07,1.45572e-05,-2.12637e-06,8
-2.28615e-05,-2.84481e-05,-5.82773e-06,5.64348e-05,5.16034e-05,5.26073e-07,1.29744e-05,-5.58898e-07,8
-2.5683e-05,-1.77582e-05,-5.44013e-06,6.6687e-05,1.06985e-05,1.62854e-06,1.17975e-05,9.28202e-07,8
-2.31081e-05,2.65824e-06,-3.91785e-06,6.63067e-05,-1.54799e-05,2.49073e-06,1.19343e-05,2.07672e-06,8
-1.89316e-05,1.66976e-05,-2.48064e-06,4.9941e-05,-2.04788e-05,1.36296e-06,1.24658e-05,3.14881e-06,8
-1.84081e-05,2.64502e-05,-1.65612e-06,2.29319e-05,-1.9552e-05,-9.93575e-07,1.29067e-05,3.23816e-06,8
-2.04825e-05,4.07192e-05,-1.85983e-06,1.42572e-06,-2.10027e-05,-4.83277e-06,1.41168e-05,1.99763e-06,8
-2.3502e-05,5.4372e-05,-1.42625e-06,-5.53898e-06,-1.72871e-05,-9.29424e-06,1.54955e-05,-3.0322e-08,8
-2.5274e-05,5.4535e-05,2.4371e-06,-6.51146e-06,4.8172e-06,-1.21171e-05,1.52134e-05,-7.84449e-07,8
-1.77863e-05,4.40658e-05,8.46278e-06,-1.17286e-05,3.83885e-05,-1.36453e-05,1.35428e-05,-1.85843e-07,8
7.99005e-06,3.45624e-05,1.132e-05,-2.02332e-05,5.24998e-05,-1.47427e-05,1.13061e-05,6.75586e-07,8
4.06565e-05,3.27431e-05,1.08562e-05,-2.54005e-05,2.88971e-05,-1.58369e-05,9.1122e-06,5.11871e-07,8
5.79039e-05,4.45797e-05,7.95986e-06,-2.69584e-05,1.35123e-06,-1.50968e-05,7.73245e-06,-8.37098e-07,8
5.45181e-05,6.82415e-05,4.5519e-06,-2.47052e-05,2.20664e-05,-1.25814e-05,9.04326e-06,-2.52311e-07,8
4.32514e-05,8.03373e-05,6.14272e-06,-1.52393e-05,7.62344e-05,-9.68751e-06,1.21263e-05,4.16606e-06,8
4.1551e-05,6.35963e-05,8.72335e-06,-7.35065e-06,9.77751e-05,-9.00512e-06,1.37398e-05,8.19477e-06,8
3.83137e-05,4.08121e-05,7.04424e-06,-2.57646e-06,7.77905e-05,-1.23531e-05,1.18139e-05,8.04982e-06,8
1.75911e-05,2.88944e-05,5.69825e-07,8.00829e-08,5.50031e-05,-1.39926e-05,9.65631e-06,8.03382e-06,8
-2.25535e-05,1.07721e-05,-7.11128e-06,-2.56827e-06,3.53118e-05,-1.20635e-05,8.7956e-06,8.11145e-06,8
-7.65635e-05,-1.31629e-05,-1.42077e-05,-1.93534e-06,1.2069e-05,-1.19125e-05,9.06581e-06,6.97927e-06,8
-0.000123404,-2.64325e-05,-1.82527e-05,5.89245e-06,-1.28881e-05,-1.65862e-05,9.28797e-06,6.60838e-06,8
-0.000154525,-2.14581e-05,-1.50194e-05,1.85377e-05,-2.81969e-05,-2.33585e-05,9.07177e-06,7.34407e-06,8
-0.000170625,7.23592e-06,-9.81512e-06,2.42307e-05,-3.23453e-05,-2.86686e-05,9.88194e-06,8.74914e-06,8
-0.000166285,4.70638e-05,-7.63508e-06,1.79186e-05,-3.07428e-05,-2.81311e-05,1.05143e-05,8.68356e-06,8
-0.000136264,7.60947e-05,-7.07657e-06,1.28886e-05,-2.70758e-05,-2.30127e-05,1.09237e-05,7.66871e-06,8
-9.3352e-05,8.69731e-05,-5.1996e-06,1.7493e-05,-2.44173e-05,-1.78417e-05,1.09235e-05,7.46895e-06,8
-6.16924e-05,8.4961e-05,-3.10052e-06,2.43618e-05,-2.56019e-05,-1.51005e-05,9.66519e-06,7.79355e-06,8
-4.95357e-05,7.05685e-05,-2.47092e-06,2.11349e-05,-2.98232e-05,-1.45886e-05,8.12247e-06,6.90304e-06,8
-4.7935e-05,4.5844e-05,-4.41276e-06,8.27538e-06,-2.76572e-05,-1.41817e-05,8.10958e-06,5.03389e-06,8
-4.46394e-05,2.09026e-05,-8.3849e-06,-5.52726e-06,-1.67758e-05,-1.43635e-05,9.43853e-06,4.45501e-06,8
-3.65726e-05,1.09843e-05,-1.16989e-05,-1.34185e-05,-3.61953e-06,-1.60632e-05,1.07945e-05,4.43869e-06,8
-2.83222e-05,1.94507e-05,-1.23252e-05,-1.59623e-05,3.60479e-06,-1.92446e-05,1.15145e-05,3.12628e-06,8
-2.4133e-05,3.15965e-05,-1.10238e-05,-1.69527e-05,7.34342e-06,-2.01819e-05,1.30424e-05,1.52455e-06,8
-2.12852e-05,3.42324e-05,-1.14696e-05,-1.82861e-05,1.23849e-05,-1.72997e-05,1.54775e-05,1.34705e-06,8
-1.4765e-05,2.60968e-05,-1.36777e-05,-1.54372e-05,1.86584e-05,-1.28719e-05,1.71494e-05,1.48984e-06,8
1.38775e-07,1.58021e-05,-1.42777e-05,-6.80719e-06,2.03973e-05,-1.11417e-05,1.75732e-05,1.43921e-06,8
1.93144e-05,1.19963e-05,-1.19858e-05,7.13615e-06,1.50139e-05,-1.20919e-05,1.70944e-05,1.81068e-06,8
2.96223e-05,1.70356e-05,-1.07426e-05,2.37087e-05,1.73598e-06,-1.31429e-05,1.59133e-05,1.90106e-06,8
2.47836e-05,2.54897e-05,-1.3741e-05,3.1787e-05,-1.2228e-05,-1.35096e-05,1.56332e-05,7.94709e-07,8
9.10924e-06,3.55525e-05,-1.91899e-05,2.47177e-05,-1.86259e-05,-1.32281e-05,1.6897e-05,-8.75651e-07,8
-9.16442e-06,4.44112e-05,-2.17844e-05,3.19252e-06,-1.91007e-05,-1.15048e-05,1.80369e-05,2.22825e-07,8
-3.18669e-05,4.77777e-05,-1.77284e-05,-2.9731e-05,-2.34951e-05,-1.00742e-05,1.81831e-05,3.48829e-06,8
-6.6176e-05,3.73519e-05,-1.5271e-05,-5.64118e-05,-2.93104e-05,-1.23101e-05,1.81095e-05,3.86435e-06,8
-0.000104877,1.0027e-05,-1.87106e-05,-6.99699e-05,1.36384e-06,-1.58373e-05,1.6981e-05,1.39909e-06,8
-0.000124079,-1.53342e-05,-2.24314e-05,-7.78603e-05,8.17872e-05,-1.79831e-05,1.64549e-05,-4.75219e-09,8
-0.000108421,-1.9912e-05,-2.41863e-05,-7.69891e-05,0.00013932,-1.94139e-05,1.75432e-05,9.02741e-07,8
-7.41098e-05,-6.325e-06,-2.30449e-05,-6.90177e-05,0.000116551,-1.87683e-05,1.8282e-05,1.78695e-06,8
-4.0117e-05,8.33898e-06,-2.05935e-05,-5.88645e-05,5.55942e-05,-1.60251e-05,1.86858e-05,1.0433e-05,8
-1.71342e-05,1.49572e-05,-1.93851e-05,-5.3224e-05,1.11395e-05,-1.31933e-05,1.92316e-05,3.27498e-05,8
-8.30452e-06,1.33974e-05,-2.17026e-05,-4.9906e-05,-8.82169e-06,-1.15977e-05,1.75592e-05,5.2126e-05,8
-4.4486e-06,1.05678e-05,-2.30702e-05,-4.36086e-05,-2.32548e-05,-1.12669e-05,1.43038e-05,5.41242e-05,8
-4.08637e-08,1.40494e-05,-1.99934e-05,-3.27203e-05,-3.55525e-05,-1.06182e-05,1.2417e-05,4.19919e-05,8
3.74506e-06,2.09588e-05,-1.38219e-05,-2.03004e-05,-3.97492e-05,-8.85494e-06,1.22782e-05,2.10302e-05,8
3.9118e-06,2.46652e-05,-6.99242e-06,-9.74754e-06,-3.62312e-05,-7.51477e-06,1.30389e-05,-6.07882e-06,8
9.76779e-07,2.3355e-05,-1.19193e-06,5.31965e-07,-2.00455e-05,-8.15442e-06,1.32105e-05,-3.19115e-05,8
-3.95696e-06,2.04987e-05,5.65696e-07,1.03819e-05,1.25741e-05,-8.3889e-06,1.3831e-05,-4.60938e-05,8
-1.08335e-05,1.91584e-05,-3.1244e-06,1.68833e-05,4.57131e-05,-7.36536e-06,1.52597e-05,-4.62532e-05,8
-2.2326e-05,2.11188e-05,-7.93736e-06,1.64944e-05,5.53879e-05,-6.92077e-06,1.72712e-05,-4.0876e-05,8
-3.74264e-05,2.94499e-05,-1.15077e-05,1.15473e-05,4.31891e-05,-7.42189e-06,1.87461e-05,-3.68089e-05,8
-4.74219e-05,4.05831e-05,-1.2363e-05,5.85437e-06,3.42613e-05,-6.51708e-06,1.96506e-05,-3.22483e-05,8
-4.69268e-05,3.9983e-05,-1.0268e-05,3.1086e-06,4.29131e-05,-5.33398e-06,2.05716e-05,-2.31539e-05,8
-4.09964e-05,2.10434e-05,-8.2694e-06,3.48756e-06,5.88392e-05,-5.39941e-06,2.10097e-05,-1.09187e-05,8
-3.12889e-05,-6.564e-06,-9.9775e-06,4.6582e-06,6.6903e-05,-4.92613e-06,1.95264e-05,-7.33306e-07,8
-1.19501e-05,-2.47615e-05,-1.0151e-05,4.61465e-06,5.6555e-05,-3.19429e-06,1.74184e-05,4.13157e-06,8
1.35191e-05,-1.28828e-05,-3.38252e-06,5.44326e-06,2.6068e-05,-2.1764e-06,1.6319e-05,5.02023e-06,8
2.49781e-05,3.08094e-05,8.85333e-06,1.01471e-05,-1.4288e-05,-2.14321e-06,1.62754e-05,5.62846e-06,8
1.01552e-05,7.12573e-05,2.07181e-05,1.62614e-05,-4.51015e-05,-1.82666e-06,1.65414e-05,6.62405e-06,8
-1.74259e-05,8.53172e-05,2.62718e-05,1.78098e-05,-5.04732e-05,-2.75361e-06,1.57788e-05,7.67948e-06,8
-3.6579e-05,5.6174e-05,2.75163e-05,1.3367e-05,-3.10926e-05,-4.18874e-06,1.42505e-05,1.02389e-05,8
-3.41814e-05,-2.79969e-05,2.88854e-05,7.76163e-06,-4.24632e-06,-5.13068e-06,1.22599e-05,1.03232e-05,8
-2.05159e-05,-8.75316e-05,2.53228e-05,6.83417e-06,1.71173e-05,-5.76645e-06,1.02101e-05,7.56548e-06,8
-1.25505e-05,-7.07251e-05,1.26174e-05,7.36795e-06,3.21102e-05,-6.49519e-06,9.30962e-06,6.28063e-06,8
-1.0677e-05,-2.90168e-05,-5.13643e-06,6.25547e-06,4.31281e-05,-7.51669e-06,1.00644e-05,5.86668e-06,8
-7.6021e-06,-6.67277e-06,-2.2298e-05,5.15858e-06,4.70782e-05,-7.27648e-06,1.1282e-05,4.23135e-06,8
1.27988e-06,-1.60006e-05,-3.26833e-05,2.87158e-06,3.81509e-05,-7.21637e-06,1.2253e-05,2.37796e-06,8
1.15391e-05,-2.33383e-05,-3.41713e-05,2.99198e-07,2.71002e-05,-6.82821e-06,1.18198e-05,3.0818e-06,8
1.84212e-05,2.35919e-05,-2.89056e-05,-3.26741e-06,2.97003e-05,-4.93931e-06,9.31093e-06,4.41308e-06,8
2.02926e-05,0.000128965,-1.86664e-05,-9.0916e-06,4.77738e-05,-2.33612e-06,8.15655e-06,5.26433e-06,8
1.11025e-05,0.000241782,-5.60183e-06,-1.41384e-05,6.50442e-05,4.35393e-07,9.07866e-06,4.41202e-06,8
-8.01897e-06,0.000310927,8.45564e-06,-1.55658e-05,6.63629e-05,3.48119e-06,9.20233e-06,2.66764e-06,8
-1.94464e-05,0.000316254,2.22475e-05,-1.48847e-05,4.5332e-05,5.8537e-06,8.39249e-06,2.09966e-06,8
-8.75922e-06,0.000253837,3.28415e-05,-1.24188e-05,1.6696e-05,7.35461e-06,7.48299e-06,2.60295e-06,8
1.89664e-05,0.000124325,3.37406e-05,-1.06619e-05,9.22175e-06,8.57654e-06,7.2446e-06,3.5734e-06,8
4.12854e-05,-3.88363e-05,2.05343e-05,-1.27965e-05,2.7185e-05,6.05351e-06,7.43856e-06,4.5454e-06,8
3.91674e-05,-0.000155344,-3.4828e-07,-1.79071e-05,5.28427e-05,-8.89433e-07,8.04787e-06,5.5694e-06,8
1.41825e-05,-0.000164003,-1.87286e-05,-2.17227e-05,6.53715e-05,-8.00005e-06,8.22425e-06,6.23634e-06,8
-1.95498e-05,-9.17404e-05,-3.16408e-05,-2.0838e-05,5.42883e-05,-1.09106e-05,7.74915e-06,5.55322e-06,8
-5.06146e-05,-3.37455e-05,-4.25593e-05,-1.55373e-05,2.14578e-05,-1.02734e-05,7.0734e-06,3.80395e-06,8
-8.21723e-05,-6.24934e-05,-5.15007e-05,-1.04676e-05,-1.69967e-05,-9.60313e-06,6.94104e-06,2.79577e-06,8
-0.000129077,-0.000177892,-5.5827e-05,-9.34724e-06,-4.55355e-05,-1.14831e-05,8.54486e-06,2.95115e-06,8
-0.000184517,-0.000292473,-5.49729e-05,-1.08716e-05,-6.34734e-05,-1.43078e-05,1.09901e-05,2.67773e-06,8
-0.000212108,-0.000284913,-5.03578e-05,-1.25905e-05,-7.20501e-05,-1.57035e-05,1.14549e-05,6.95896e-07,8
-0.000191107,-0.000166779,-4.49322e-05,-1.17518e-05,-6.85924e-05,-1.42754e-05,9.77835e-06,7.40342e-07,8
-0.000138804,-7.28113e-05,-3.90068e-05,-5.31091e-06,-5.75285e-05,-1.16087e-05,6.75597e-06,1.73974e-06,8
-9.17935e-05,-5.3079e-05,-3.04001e-05,5.16812e-06,-4.3755e-05,-1.11106e-05,2.20711e-06,2.22214e-06,8
-6.79637e-05,-6.33043e-05,-1.9522e-05,1.49805e-05,-2.34777e-05,-1.10758e-05,-1.6143e-06,2.04495e-06,8
-6.20385e-05,-6.55018e-05,-1.15211e-05,1.98804e-05,8.28161e-07,-9.73199e-06,-2.30245e-06,2.38848e-07,8
-6.21634e-05,-5.81076e-05,-1.04236e-05,1.2572e-05,1.9862e-05,-9.09581e-06,-8.04411e-07,-1.39071e-06,8
-6.28918e-05,-5.00364e-05,-1.24297e-05,-2.22343e-06,3.35654e-05,-9.93298e-06,9.87812e-08,-2.51579e-06,8
-6.25306e-05,-4.20113e-05,-1.16588e-05,-9.80128e-06,4.34611e-05,-1.18608e-05,8.52164e-07,-3.76039e-06,8
-5.63143e-05,-3.08746e-05,-8.83431e-06,-3.75917e-06,4.62684e-05,-1.33391e-05,3.06375e-06,-5.21431e-06,8
-4.5742e-05,-1.39766e-05,-6.72238e-06,1.06855e-05,4.18867e-05,-1.38999e-05,7.20262e-06,-5.98259e-06,8
-3.63185e-05,1.4137e-06,-5.52379e-06,2.3649e-05,3.68738e-05,-1.4863e-05,1.25876e-05,-5.93923e-06,8
-3.16329e-05,1.21282e-05,-7.34908e-06,2.91891e-05,3.15007e-05,-1.55873e-05,1.69779e-05,-5.55735e-06,8
-2.85834e-05,1.90323e-05,-1.03974e-05,2.59681e-05,2.18736e-05,-1.46039e-05,1.99803e-05,-4.29256e-06,8
-2.5483e-05,2.38342e-05,-1.08222e-05,1.89284e-05,8.19303e-06,-1.19535e-05,2.36169e-05,-2.31006e-06,8
-2.35e-05,2.74725e-05,-7.9162e-06,1.52589e-05,-4.54975e-06,-9.76419e-06,2.87508e-05,-1.14757e-06,8
-2.15458e-05,3.12346e-05,-5.68773e-06,1.51781e-05,-1.04019e-05,-8.26536e-06,3.31931e-05,2.13967e-07,8
-1.81884e-05,3.53602e-05,-5.93443e-06,1.29533e-05,-7.93038e-06,-7.85516e-06,3.43951e-05,5.65614e-07,8
-1.51838e-05,3.99063e-05,-2.96705e-06,4.38302e-06,-1.9283e-06,-8.4635e-06,3.2194e-05,-7.07164e-07,8
-1.29922e-05,4.39377e-05,8.59523e-06,-9.18678e-06,-3.67006e-07,-8.65727e-06,2.86222e-05,-1.80646e-06,8
-1.04772e-05,4.57611e-05,2.48702e-05,-2.32913e-05,-2.07644e-06,-7.35551e-06,2.65281e-05,-1.44237e-06,8
-8.24641e-06,4.37404e-05,3.71476e-05,-3.30527e-05,-4.10604e-07,-5.2486e-06,2.59524e-05,-3.26125e-07,8
-6.24615e-06,3.97428e-05,4.69877e-05,-3.42412e-05,6.9439e-06,-4.27732e-06,2.46504e-05,-4.17276e-08,8
-3.7067e-06,3.9339e-05,5.81115e-05,-2.94377e-05,1.41263e-05,-4.35132e-06,2.23045e-05,-5.87451e-07,8
-9.9328e-07,4.54996e-05,6.57398e-05,-2.67563e-05,1.8569e-05,-3.82971e-06,2.02811e-05,-1.04327e-06,8
-7.28468e-07,5.37204e-05,6.38725e-05,-2.80726e-05,2.04182e-05,-3.67791e-06,1.94951e-05,-4.36984e-07,8
-3.28586e-06,5.39925e-05,5.11103e-05,-3.02716e-05,2.24761e-05,-5.86986e-06,1.94661e-05,2.35667e-07,8
-3.70206e-06,4.48229e-05,2.82838e-05,-3.10163e-05,3.04095e-05,-1.10465e-05,1.72183e-05,6.23971e-07,8
1.38897e-06,2.8469e-05,-5.57391e-07,-2.99041e-05,4.48692e-05,-1.61955e-05,1.21003e-05,-4.01329e-07,8
6.821e-06,6.47816e-06,-3.20099e-05,-2.79421e-05,5.18724e-05,-1.58258e-05,8.07856e-06,-1.84404e-06,8
8.57759e-06,-8.3549e-06,-5.97066e-05,-2.69049e-05,4.9176e-05,-1.24595e-05,8.17654e-06,-2.1511e-06,8
8.27367e-06,-2.22617e-06,-7.56505e-05,-2.73847e-05,5.74855e-05,-1.12606e-05,1.03469e-05,-2.47588e-06,8
8.44764e-06,2.96371e-05,-7.24955e-05,-2.26102e-05,9.12739e-05,-1.17647e-05,9.70158e-06,-1.23931e-06,8
5.34826e-06,7.27687e-05,-5.91483e-05,-1.20166e-05,0.000115415,-1.34024e-05,8.15148e-06,1.82658e-06,8
-5.51605e-06,0.000104081,-4.92181e-05,-1.18978e-06,8.52812e-05,-1.52599e-05,8.34469e-06,2.5378e-06,8
-1.85238e-05,0.000107781,-4.48601e-05,6.96537e-06,2.15612e-05,-1.56851e-05,7.44397e-06,2.31787e-06,8
-2.89089e-05,8.84957e-05,-4.47224e-05,1.01017e-05,-3.85101e-05,-1.56659e-05,6.38873e-06,4.87589e-06,8
-3.42697e-05,7.07149e-05,-4.14611e-05,1.03717e-05,-7.64465e-05,-1.57249e-05,5.8876e-06,7.98042e-06,8
-3.37856e-05,5.01925e-05,-2.96914e-05,1.27393e-05,-8.8465e-05,-1.52577e-05,6.2911e-06,8.35854e-06,8
-3.37695e-05,1.93871e-05,-9.99863e-06,1.94276e-05,-7.37886e-05,-1.40488e-05,6.59315e-06,7.19767e-06,8
-3.50778e-05,-9.03198e-07,5.50459e-06,2.50415e-05,-4.89816e-05,-1.1171e-05,6.86033e-06,7.28102e-06,8
-3.58733e-05,1.5385e-06,8.41222e-06,2.29806e-05,-3.58176e-05,-9.48836e-06,6.69124e-06,8.41693e-06,8
-3.87622e-05,1.45037e-05,1.04571e-06,1.24195e-05,-3.35692e-05,-1.255e-05,4.89181e-06,9.91339e-06,8
-4.29495e-05,3.1447e-05,-4.54494e-06,-5.50488e-07,-3.1878e-05,-1.7982e-05,4.37165e-06,1.02679e-05,8
-4.36628e-05,5.78195e-05,-4.22395e-07,-9.18303e-06,-2.69763e-05,-2.16594e-05,6.66017e-06,8.48281e-06,8
-3.89761e-05,8.9594e-05,1.11436e-05,-1.03637e-05,-2.41969e-05,-2.53038e-05,1.08675e-05,4.02809e-06,8
-3.28047e-05,0.000108182,2.48571e-05,-8.18671e-06,-2.43698e-05,-3.38701e-05,1.40017e-05,-2.7391e-06,8
-2.82575e-05,0.000100809,3.64035e-05,-9.11739e-06,-2.47805e-05,-4.6037e-05,1.52835e-05,-9.24825e-06,8
