ch1,ch2,ch3,ch4,ch5,ch6,ch7,ch8,class
5.20995e-06,-4.63276e-05,-1.50246e-06,1.9219e-05,-1.07436e-05,-1.70362e-05,1.30424e-05,1.84886e-06,8
4.36186e-06,3.30973e-05,1.02498e-06,2.19e-05,-2.02915e-05,-1.59973e-05,1.17902e-05,-9.31273e-08,8
-2.15937e-05,6.28161e-05,1.15697e-06,2.49848e-05,-2.59167e-05,-1.33934e-05,1.00492e-05,-2.03355e-06,8
-5.87034e-05,4.09599e-05,-5.57021e-07,2.54705e-05,-2.53837e-05,-1.41939e-05,9.1242e-06,-5.19923e-06,8
-9.91057e-05,-6.00931e-06,-2.90097e-06,2.10582e-05,-1.81009e-05,-1.81814e-05,9.17477e-06,-1.02015e-05,8
-0.000143753,-4.65088e-05,-5.23647e-06,1.36247e-05,-8.95652e-06,-2.34014e-05,9.74847e-06,-1.42023e-05,8
-0.000164549,-5.61915e-05,-5.83143e-06,1.01708e-05,1.15868e-06,-2.85709e-05,1.07712e-05,-1.47533e-05,8
-0.000135764,-3.88115e-05,-3.37778e-06,9.12152e-06,1.40466e-05,-2.94363e-05,1.12614e-05,-1.20337e-05,8
-7.0738e-05,-1.93065e-05,-1.8223e-06,2.40029e-06,2.87307e-05,-2.41733e-05,1.12067e-05,-8.68423e-06,8
-1.39963e-05,-2.07899e-05,-5.00647e-06,-1.25077e-05,3.7357e-05,-1.59783e-05,1.11716e-05,-5.90734e-06,8
7.68217e-06,-4.05147e-05,-9.60315e-06,-2.69582e-05,3.67185e-05,-1.09801e-05,1.09548e-05,-4.68312e-06,8
8.68909e-06,-4.9777e-05,-1.06482e-05,-3.42404e-05,3.06901e-05,-1.0825e-05,1.0736e-05,-4.74665e-06,8
9.19163e-06,-3.28318e-05,-9.22521e-06,-3.87381e-05,2.24831e-05,-1.25026e-05,1.01306e-05,-3.98749e-06,8
1.24003e-05,9.1739e-06,-8.5733e-06,-4.25305e-05,1.5855e-05,-1.39785e-05,8.99087e-06,-2.35947e-06,8
6.38074e-06,5.44934e-05,-9.84551e-06,-4.77683e-05,1.15011e-05,-1.73084e-05,8.98185e-06,-1.34582e-06,8
-1.19255e-05,7.87e-05,-1.26179e-05,-5.22888e-05,8.10115e-06,-2.38956e-05,1.11031e-05,-1.04882e-06,8
-3.06503e-05,6.83621e-05,-1.45041e-05,-5.2555e-05,3.78598e-06,-2.97166e-05,1.34569e-05,4.90208e-07,8
-3.79277e-05,3.30959e-05,-1.51816e-05,-4.79509e-05,7.27604e-07,-3.0314e-05,1.4815e-05,3.14851e-06,8
-3.83096e-05,-7.73284e-06,-1.75946e-05,-3.90296e-05,2.81187e-06,-2.75669e-05,1.51687e-05,4.26474e-06,8
-4.00225e-05,-4.15667e-05,-2.32881e-05,-2.40831e-05,1.1392e-05,-2.46121e-05,1.444e-05,3.46903e-06,8
-4.27045e-05,-5.54657e-05,-2.79673e-05,-2.42442e-06,2.11193e-05,-2.28439e-05,1.29516e-05,2.8836e-06,8
-4.02473e-05,-4.07724e-05,-2.76156e-05,1.98251e-05,2.92147e-05,-1.99102e-05,1.16543e-05,3.31276e-06,8
-3.29311e-05,-8.61024e-06,-2.47151e-05,3.6062e-05,3.90811e-05,-1.3278e-05,1.11283e-05,4.78662e-06,8
-2.53367e-05,1.69945e-05,-2.27473e-05,4.59166e-05,5.05197e-05,-6.24881e-06,1.06806e-05,4.83668e-06,8
-1.8845e-05,2.34084e-05,-2.05836e-05,5.16457e-05,5.83857e-05,-2.90955e-06,1.11662e-05,2.77012e-06,8
-1.19411e-05,1.8534e-05,-1.65032e-05,5.27542e-05,6.16124e-05,-2.67743e-06,1.32237e-05,1.77776e-06,8
-4.57472e-06,1.49521e-05,-1.28078e-05,4.98128e-05,6.18513e-05,-4.34809e-06,1.60636e-05,1.70356e-06,8
-2.21211e-06,1.37219e-05,-8.99547e-06,4.09513e-05,5.33273e-05,-7.93858e-06,1.93655e-05,-1.24375e-07,8
-4.8327e-06,2.59814e-05,-2.41324e-06,2.79905e-05,3.53864e-05,-1.24694e-05,2.13475e-05,-1.55012e-06,8
-5.91794e-06,5.28782e-05,3.86013e-06,1.31946e-05,1.60532e-05,-1.57554e-05,2.18434e-05,-1.20693e-06,8
3.86802e-07,6.96241e-05,4.2125e-06,1.82722e-06,3.08626e-06,-1.68868e-05,2.14408e-05,3.66504e-08,8
1.03301e-05,6.72414e-05,-3.37136e-07,-3.03553e-07,-2.24655e-06,-1.49474e-05,1.93088e-05,1.65748e-06,8
1.672e-05,5.11844e-05,-5.04604e-06,2.66743e-06,-3.36009e-06,-1.16088e-05,1.73838e-05,3.10637e-06,8
2.37064e-05,2.90298e-05,-6.63318e-06,6.03658e-06,-1.2617e-05,-1.04161e-05,1.54404e-05,3.43949e-06,8
3.20176e-05,3.75577e-06,-4.64659e-06,7.00405e-06,-3.07347e-05,-1.07784e-05,1.32609e-05,1.93107e-06,8
3.03207e-05,-1.89946e-05,-5.09418e-07,6.18321e-06,-3.88903e-05,-1.25433e-05,1.07876e-05,8.9575e-08,8
1.2783e-05,-2.18448e-06,3.52871e-06,4.39914e-06,-3.1092e-05,-1.39677e-05,9.77264e-06,-1.30061e-06,8
-1.58152e-05,4.74275e-05,8.21921e-06,4.22059e-06,-1.24681e-05,-1.34784e-05,1.07833e-05,4.48002e-07,8
-4.74709e-05,8.23381e-05,1.2894e-05,4.05807e-06,6.16483e-06,-1.32401e-05,1.23129e-05,6.27733e-06,8
-7.78517e-05,7.70162e-05,1.31975e-05,-2.96259e-08,1.80999e-05,-1.5204e-05,1.42209e-05,1.46369e-05,8
-0.000106207,2.23769e-05,7.76145e-06,-8.84033e-06,2.22251e-05,-1.78653e-05,1.58717e-05,1.9238e-05,8
-0.000130479,-6.31284e-05,-5.43205e-07,-1.92877e-05,1.87596e-05,-1.79224e-05,1.80725e-05,1.5877e-05,8
-0.000139478,-0.000129205,-6.36655e-06,-2.83813e-05,9.99814e-06,-1.34058e-05,1.96856e-05,1.04273e-05,8
-0.000125088,-0.000133544,-9.74694e-06,-3.80878e-05,8.17745e-07,-7.13793e-06,2.03301e-05,1.62335e-05,8
-9.65769e-05,-9.83071e-05,-1.32118e-05,-4.66541e-05,-1.38512e-06,-3.22015e-06,2.07828e-05,3.74438e-05,8
-6.96522e-05,-6.26721e-05,-1.75524e-05,-4.84368e-05,9.2023e-06,-2.39472e-06,2.18874e-05,5.42398e-05,8
-5.13512e-05,-3.49952e-05,-2.10333e-05,-3.65813e-05,3.22324e-05,-3.08496e-06,2.21366e-05,5.08841e-05,8
-4.23921e-05,-1.33603e-05,-2.32413e-05,-1.16172e-05,5.36849e-05,-3.88313e-06,2.07938e-05,3.1765e-05,8
-3.94687e-05,4.29633e-06,-2.54529e-05,1.76309e-05,5.81374e-05,-4.54331e-06,1.91236e-05,5.26183e-06,8
-3.51849e-05,2.98226e-05,-2.67196e-05,4.1676e-05,5.00812e-05,-4.13972e-06,1.85095e-05,-2.50688e-05,8
-2.82705e-05,6.97569e-05,-2.44862e-05,5.73761e-05,5.13026e-05,-2.12523e-06,1.8313e-05,-5.14645e-05,8
-2.29666e-05,0.000110034,-2.06752e-05,6.24554e-05,6.34963e-05,-1.3077e-06,1.79313e-05,-6.37031e-05,8
-2.11517e-05,0.000124545,-1.83755e-05,5.28708e-05,6.51396e-05,-2.94313e-06,1.78633e-05,-6.20101e-05,8
-2.247e-05,8.68437e-05,-1.91879e-05,2.82521e-05,4.65017e-05,-4.1239e-06,1.6856e-05,-5.61887e-05,8
-2.73494e-05,2.40257e-06,-2.22648e-05,2.04123e-06,2.24102e-05,-1.86311e-06,1.47995e-05,-5.22294e-05,8
-3.27372e-05,-6.24014e-05,-2.35707e-05,-9.96924e-06,8.6605e-06,1.74606e-06,1.35494e-05,-4.57749e-05,8
-3.4433e-05,-5.82647e-05,-2.29176e-05,-9.78194e-06,1.95742e-06,8.45477e-07,1.41781e-05,-3.19983e-05,8
-3.13579e-05,-1.9437e-05,-1.89076e-05,-5.53379e-06,-6.15741e-06,-3.46536e-06,1.39457e-05,-1.53415e-05,8
-2.4859e-05,2.09811e-05,-1.38624e-05,-3.61595e-06,-1.14877e-05,-6.62797e-06,1.21171e-05,-2.67524e-06,8
-2.07722e-05,5.49692e-05,-1.09022e-05,-6.86819e-06,-6.82464e-06,-5.68773e-06,1.01434e-05,4.12493e-06,8
-1.93796e-05,7.62794e-05,-8.31772e-06,-1.18651e-05,3.72015e-06,-5.68595e-06,8.81269e-06,7.96207e-06,8
-1.74925e-05,8.18704e-05,-1.68379e-06,-1.44251e-05,8.77682e-06,-1.13899e-05,9.0861e-06,1.20075e-05,8
-1.5295e-05,5.99133e-05,9.57759e-06,-1.23046e-05,5.66642e-06,-1.74113e-05,1.00279e-05,1.55887e-05,8
-1.50048e-05,2.78999e-06,2.03357e-05,-9.51971e-06,1.37144e-06,-1.80361e-05,1.00242e-05,1.69151e-05,8
-1.86765e-05,-5.00806e-05,2.72672e-05,-1.09973e-05,3.40448e-06,-1.46114e-05,9.11997e-06,1.68935e-05,8
-2.30343e-05,-6.37206e-05,2.93319e-05,-1.46964e-05,8.01541e-06,-1.21236e-05,8.41606e-06,1.61824e-05,8
-2.53385e-05,-5.25239e-05,2.81486e-05,-1.65496e-05,5.05964e-06,-1.15813e-05,8.16587e-06,1.24199e-05,8
-2.39542e-05,-2.99724e-05,2.48749e-05,-1.40887e-05,-2.2334e-06,-9.56313e-06,7.37048e-06,7.88682e-06,8
-1.93181e-05,-4.45629e-06,1.92212e-05,-1.185e-05,-3.3171e-06,-5.12165e-06,7.34463e-06,5.36203e-06,8
-1.46236e-05,1.47315e-05,1.22862e-05,-1.39409e-05,8.28254e-06,-1.43154e-06,9.02186e-06,2.82862e-06,8
-1.40171e-05,2.1033e-05,7.99631e-06,-1.95221e-05,3.01479e-05,3.73685e-07,1.17886e-05,-1.28815e-06,8
-1.7989e-05,1.83429e-05,6.22119e-06,-2.45317e-05,5.11154e-05,1.06745e-07,1.46315e-05,-4.3068e-06,8
-2.26135e-05,1.45232e-05,1.8669e-06,-2.64492e-05,5.72581e-05,-1.66064e-06,1.67214e-05,-3.34855e-06,8
-2.49678e-05,1.40354e-05,-6.27477e-06,-2.69916e-05,4.7149e-05,-4.15581e-06,1.79232e-05,6.87715e-07,8
-2.74908e-05,1.41987e-05,-1.63168e-05,-2.75374e-05,2.82378e-05,-6.56999e-06,1.78683e-05,4.66746e-06,8
-3.35593e-05,1.23486e-05,-3.06517e-05,-2.6714e-05,6.47591e-06,-8.78061e-06,1.65902e-05,7.10355e-06,8
-3.73544e-05,1.08482e-05,-4.91665e-05,-2.38559e-05,-1.00819e-05,-8.98184e-06,1.55223e-05,8.51179e-06,8
-3.28032e-05,1.25626e-05,-6.34532e-05,-2.06753e-05,-1.10806e-05,-6.40677e-06,1.59806e-05,9.64072e-06,8
-2.68879e-05,1.50707e-05,-6.66378e-05,-1.67669e-05,8.31606e-06,-4.57993e-06,1.71547e-05,9.78386e-06,8
-2.74225e-05,1.07545e-05,-5.7145e-05,-9.65387e-06,4.34804e-05,-5.41843e-06,1.82401e-05,8.66e-06,8
-3.02267e-05,4.42396e-06,-4.09622e-05,1.32314e-07,6.87338e-05,-6.01742e-06,1.91369e-05,8.47893e-06,8
-3.06222e-05,6.91767e-06,-2.4122e-05,6.1797e-06,5.01384e-05,-5.0667e-06,1.91447e-05,8.52422e-06,8
-2.9893e-05,1.58035e-05,-6.61928e-06,7.73213e-06,-5.79476e-06,-6.04906e-06,1.91256e-05,7.10118e-06,8
-2.86333e-05,2.6569e-05,1.15877e-05,1.56623e-05,-5.69976e-05,-8.143e-06,1.88922e-05,4.79072e-06,8
-2.71017e-05,3.23605e-05,2.38906e-05,2.49118e-05,-6.87729e-05,-7.24352e-06,1.65885e-05,4.8508e-06,8
-2.21961e-05,2.96667e-05,2.16314e-05,2.22521e-05,-4.84422e-05,-7.14295e-06,1.40849e-05,5.96342e-06,8
-1.05229e-05,2.08045e-05,7.64717e-06,1.16895e-05,-2.26809e-05,-1.02617e-05,1.19517e-05,4.3053e-06,8
1.04165e-06,-3.51368e-06,-1.07495e-05,3.25004e-07,-8.36567e-06,-1.40936e-05,1.16099e-05,3.48262e-06,8
7.37435e-06,-1.68849e-05,-3.03285e-05,-4.82176e-06,1.67272e-06,-1.66929e-05,1.16239e-05,5.28441e-06,8
6.50939e-06,-2.02198e-07,-5.04304e-05,-2.51148e-06,5.60457e-05,-1.55886e-05,1.01297e-05,9.05439e-06,8
-1.29141e-06,3.03938e-05,-6.52194e-05,6.94665e-06,0.000158107,-1.34322e-05,8.81891e-06,1.27297e-05,8
-1.3586e-05,6.64049e-05,-6.90073e-05,1.75214e-05,0.000226073,-1.12718e-05,8.24829e-06,1.54098e-05,8
-2.77429e-05,9.16941e-05,-6.00163e-05,1.89074e-05,0.000191992,-9.52134e-06,8.16845e-06,1.63881e-05,8
-4.23769e-05,9.36695e-05,-4.28813e-05,1.20651e-05,8.88502e-05,-8.03888e-06,8.36284e-06,1.34056e-05,8
-5.68871e-05,7.28286e-05,-2.35506e-05,3.7515e-07,-1.15092e-06,-5.383e-06,8.85878e-06,8.1509e-06,8
-6.31119e-05,4.33794e-05,-2.43268e-06,-1.70686e-05,-4.62215e-05,-1.09735e-06,9.00991e-06,2.29759e-06,8
-5.76529e-05,7.90776e-06,1.72881e-05,-3.68663e-05,-7.03022e-05,3.84201e-06,8.97796e-06,-1.90534e-06,8
-4.91383e-05,-4.69228e-05,2.87825e-05,-5.22818e-05,-0.000102524,8.45101e-06,8.28383e-06,-3.88281e-06,8
-4.13315e-05,-9.34389e-05,2.90236e-05,-6.2094e-05,-0.000145495,1.15801e-05,7.91236e-06,-4.44045e-06,8
-2.52835e-05,-7.85317e-05,2.5238e-05,-6.79583e-05,-0.000180629,9.12101e-06,7.76223e-06,-5.50269e-06,8
4.42952e-06,-1.78496e-05,2.17998e-05,-7.242e-05,-0.00018223,1.67826e-06,7.67937e-06,-6.46177e-06,8
3.939e-05,2.30388e-05,1.62192e-05,-7.20884e-05,-0.000140702,-4.87367e-06,8.03441e-06,-4.87075e-06,8
6.75849e-05,2.77569e-05,7.42086e-06,-5.86662e-05,-7.23582e-05,-7.82956e-06,8.65706e-06,-1.70438e-06,8
8.04812e-05,2.91405e-05,1.12243e-06,-2.66945e-05,-9.01477e-06,-1.00825e-05,8.97445e-06,5.57642e-07,8
6.56493e-05,4.89501e-05,-1.89669e-07,1.67878e-05,2.86179e-05,-1.25719e-05,8.6502e-06,6.27558e-07,8
1.43545e-05,7.47492e-05,-1.39864e-06,4.9705e-05,4.12249e-05,-1.25808e-05,8.07611e-06,-1.70567e-06,8
-5.71378e-05,8.74331e-05,-1.08564e-05,5.39612e-05,4.53991e-05,-6.85727e-06,8.07096e-06,-3.20283e-06,8
-0.000113181,7.64954e-05,-3.11006e-05,3.16624e-05,5.2855e-05,-1.8727e-06,9.54186e-06,-2.26538e-06,8
-0.000138863,2.33296e-05,-5.26701e-05,4.41843e-07,5.33227e-05,6.02453e-07,1.15865e-05,-1.14823e-06,8
-0.000147436,-6.26791e-05,-6.30587e-05,-1.63575e-05,4.19598e-05,1.03897e-05,1.36695e-05,1.48279e-06,8
-0.000150555,-0.000122701,-5.70096e-05,-1.6968e-05,3.6788e-05,1.34272e-05,1.46832e-05,4.4647e-06,8
-0.000144287,-0.000118464,-4.17589e-05,-9.92366e-06,4.39656e-05,-3.15411e-06,1.34939e-05,5.01994e-06,8
-0.000124002,-8.67283e-05,-2.52588e-05,6.61363e-06,5.35734e-05,-1.68623e-05,1.21011e-05,4.74295e-06,8
-9.46438e-05,-5.82909e-05,-1.29578e-05,2.09955e-05,5.57116e-05,-1.36173e-05,1.13881e-05,5.20447e-06,8
-6.4658e-05,-2.00415e-05,-7.71293e-06,1.84674e-05,4.60479e-05,-3.17998e-06,1.13158e-05,3.89275e-06,8
-4.7347e-05,2.55342e-05,-5.91852e-06,-4.94903e-07,3.3301e-05,2.92824e-06,1.26975e-05,1.07421e-06,8
-4.28626e-05,6.05522e-05,-5.47346e-06,-1.88624e-05,2.17731e-05,1.45166e-06,1.48576e-05,-7.67813e-08,8
-4.04206e-05,6.5805e-05,-6.10251e-06,-2.2176e-05,1.1203e-05,-5.38189e-07,1.6918e-05,4.94012e-07,8
-3.68314e-05,5.08936e-05,-6.8616e-06,-1.54748e-05,4.10708e-06,5.6902e-07,1.72871e-05,1.7102e-06,8
-3.32353e-05,3.43237e-05,-6.71446e-06,-1.02547e-05,2.2299e-06,2.85069e-06,1.54285e-05,3.16059e-06,8
-2.78042e-05,2.43501e-05,-3.9849e-06,-1.11827e-05,4.55663e-06,4.33201e-06,1.33541e-05,3.15497e-06,8
-1.66434e-05,1.6033e-05,-1.06627e-07,-1.71849e-05,9.50966e-06,4.19952e-06,1.22671e-05,2.68244e-06,8
-1.91981e-06,1.65977e-06,2.62242e-06,-2.74923e-05,9.67858e-06,2.2519e-06,1.21315e-05,2.22872e-06,8
1.37819e-05,-1.25563e-05,2.73258e-06,-3.9467e-05,2.03061e-06,-2.81014e-07,1.26461e-05,6.18548e-07,8
3.17141e-05,-1.27872e-05,8.57514e-07,-4.9939e-05,1.98437e-06,-1.90927e-06,1.27759e-05,-8.77696e-07,8
4.67268e-05,1.17246e-05,1.27201e-07,-5.19079e-05,1.98437e-05,-3.50572e-06,1.26111e-05,-2.38706e-07,8
4.80576e-05,5.38499e-05,1.87286e-06,-3.74367e-05,4.88228e-05,-4.9236e-06,1.29044e-05,1.39318e-06,8
3.2776e-05,9.7797e-05,3.52648e-06,-1.32396e-05,7.51115e-05,-5.94684e-06,1.41677e-05,2.37287e-06,8
1.12872e-05,0.00012343,3.58603e-06,7.26772e-06,8.16989e-05,-7.02509e-06,1.56977e-05,3.16316e-06,8
-2.16933e-06,0.000121978,3.0405e-06,2.41811e-05,5.8346e-05,-8.1718e-06,1.5781e-05,3.2354e-06,8
-8.50879e-06,0.000104091,2.03281e-06,4.43613e-05,1.59486e-05,-9.7239e-06,1.40216e-05,2.36323e-06,8
-1.63498e-05,8.69875e-05,6.68396e-07,6.34239e-05,-2.02075e-05,-1.12396e-05,1.31435e-05,8.36765e-07,8
-2.46966e-05,7.55493e-05,3.43058e-06,7.46256e-05,-3.40076e-05,-1.2019e-05,1.43651e-05,-9.64537e-07,8
-2.96547e-05,6.79166e-05,1.19769e-05,7.67127e-05,-2.93717e-05,-1.27879e-05,1.58567e-05,-3.17805e-06,8
-3.37331e-05,5.12367e-05,2.09628e-05,7.04487e-05,-1.85079e-05,-1.62753e-05,1.69915e-05,-5.11629e-06,8
-4.48358e-05,1.19227e-05,2.6217e-05,6.26555e-05,-9.79002e-06,-2.25177e-05,1.69161e-05,-6.47088e-06,8
-7.01167e-05,-3.74358e-05,2.40925e-05,5.6162e-05,-5.51024e-06,-2.78508e-05,1.47509e-05,-6.01638e-06,8
-0.000111815,-6.19092e-05,1.61598e-05,5.08062e-05,-5.91456e-06,-2.95926e-05,1.3768e-05,-4.79916e-06,8
-0.000144588,-4.93261e-05,1.03466e-05,4.27866e-05,-9.37593e-06,-2.85542e-05,1.40619e-05,-3.57131e-06,8
-0.000140431,-3.19684e-05,1.10055e-05,2.50391e-05,-4.72368e-06,-2.7014e-05,1.35771e-05,-3.35583e-06,8
-0.00010328,-3.27465e-05,1.41068e-05,6.50778e-06,1.73418e-05,-2.17939e-05,1.26585e-05,-4.13653e-06,8
-5.77698e-05,-4.01862e-05,1.44421e-05,-5.45497e-06,4.7135e-05,-1.39617e-05,1.20816e-05,-3.35485e-06,8
-3.08592e-05,-3.42193e-05,1.3059e-05,-1.68848e-05,6.28597e-05,-1.06254e-05,1.18236e-05,-3.26082e-06,8
-2.32053e-05,3.05956e-06,1.18831e-05,-3.08162e-05,5.22227e-05,-1.41607e-05,1.07199e-05,-5.23537e-06,8
-2.55321e-05,6.42891e-05,9.5321e-06,-4.5762e-05,2.83238e-05,-1.81414e-05,1.06262e-05,-7.55942e-06,8
-2.75685e-05,0.000113878,4.96251e-06,-5.91859e-05,1.39317e-05,-1.78527e-05,1.09339e-05,-8.16783e-06,8
-2.48351e-05,0.000121705,5.39309e-07,-6.28801e-05,1.23706e-05,-1.45145e-05,1.20119e-05,-7.54477e-06,8
-1.96779e-05,9.64406e-05,-7.04471e-07,-5.12766e-05,1.74114e-05,-1.05737e-05,1.21098e-05,-7.84663e-06,8
-1.51211e-05,6.50264e-05,1.29509e-07,-3.26097e-05,2.32396e-05,-1.07726e-05,1.02974e-05,-7.25542e-06,8
-1.33611e-05,2.68397e-05,-2.23798e-07,-2.12316e-05,2.74396e-05,-1.84004e-05,8.87219e-06,-5.41889e-06,8
-1.35657e-05,-2.8597e-05,-1.39257e-06,-1.87105e-05,3.0874e-05,-3.20459e-05,9.368e-06,-3.99266e-06,8
-1.537e-05,-8.28765e-05,-2.69545e-06,-1.66318e-05,3.36291e-05,-4.42249e-05,1.15163e-05,-2.91708e-06,8
-1.64831e-05,-0.000100127,-3.44996e-06,-1.39184e-05,3.35845e-05,-3.8794e-05,1.36928e-05,-2.90677e-06,8
-1.66285e-05,-7.60471e-05,-2.53296e-06,-1.41871e-05,2.74453e-05,-8.28425e-06,1.57068e-05,-4.2459e-06,8
-1.58846e-05,-3.72829e-05,4.0555e-07,-1.77148e-05,1.4796e-05,2.16178e-05,1.61518e-05,-6.46473e-06,8
-1.5054e-05,-1.13077e-05,5.20312e-06,-2.09821e-05,1.17947e-06,2.40903e-05,1.47728e-05,-8.20561e-06,8
-1.40326e-05,-1.96367e-06,1.26169e-05,-2.02344e-05,-2.60978e-06,6.45166e-06,1.30668e-05,-8.29031e-06,8
-1.54705e-05,-5.97198e-07,2.49625e-05,-1.74044e-05,4.94336e-06,-9.09444e-06,1.35711e-05,-5.71067e-06,8
-2.04232e-05,-8.21453e-07,3.75842e-05,-1.84171e-05,1.44883e-05,-1.49637e-05,1.48959e-05,-2.17724e-06,8
-2.69098e-05,5.53225e-07,3.83351e-05,-2.00523e-05,1.47091e-05,-1.54161e-05,1.45026e-05,-8.97171e-07,8
-2.71755e-05,5.96354e-06,2.37896e-05,-1.70888e-05,7.00924e-06,-1.44216e-05,1.27074e-05,-1.37915e-06,8
-2.05728e-05,1.49651e-05,2.3951e-06,-9.41059e-06,8.63303e-07,-1.43306e-05,1.06758e-05,-7.61541e-07,8
-1.56528e-05,2.09611e-05,-2.01131e-05,-3.02266e-06,1.38055e-06,-1.61609e-05,1.03462e-05,1.35275e-06,8
-1.60068e-05,1.95313e-05,-3.86696e-05,-2.41247e-06,7.12242e-06,-1.77275e-05,1.26814e-05,2.82814e-06,8
-1.99273e-05,1.49505e-05,-4.85306e-05,-4.79326e-06,1.26051e-05,-1.85208e-05,1.20363e-05,2.87757e-06,8
-2.10427e-05,1.38024e-05,-4.84822e-05,-1.11872e-05,1.12139e-05,-1.79369e-05,7.78909e-06,1.90936e-06,8
-1.50219e-05,1.60748e-05,-4.64791e-05,-2.02385e-05,6.5594e-06,-1.44954e-05,5.65516e-06,7.80801e-07,8
-5.41766e-06,2.37902e-05,-4.98001e-05,-2.42271e-05,6.54891e-06,-9.57391e-06,6.65515e-06,-7.74365e-08,8
1.98597e-06,3.61256e-05,-5.50491e-05,-2.22959e-05,9.85313e-06,-6.98117e-06,7.08998e-06,-1.0086e-06,8
3.40926e-06,3.97986e-05,-5.82496e-05,-2.01845e-05,1.03884e-05,-8.35716e-06,6.62551e-06,-9.70096e-07,8
5.09636e-08,2.85901e-05,-5.7003e-05,-1.76614e-05,4.43756e-06,-9.38847e-06,8.19728e-06,-1.21462e-06,8
-5.36122e-06,1.16444e-05,-5.24654e-05,-1.14755e-05,-3.06527e-06,-1.03717e-05,1.02946e-05,-1.60534e-06,8
-1.4322e-05,1.20102e-06,-4.28998e-05,-9.13932e-07,-9.06392e-06,-1.33081e-05,1.13405e-05,1.02084e-08,8
-2.64446e-05,-8.94008e-07,-2.95934e-05,1.11112e-05,-1.3022e-05,-1.77997e-05,1.14677e-05,2.25254e-06,8
-3.17594e-05,-8.5666e-07,-1.77002e-05,2.06852e-05,-1.47863e-05,-2.04089e-05,1.2045e-05,3.82796e-06,8
-2.08038e-05,2.44166e-06,-9.64606e-06,2.35027e-05,-1.57864e-05,-1.9457e-05,1.30668e-05,3.95802e-06,8
-1.27522e-07,1.35487e-05,-5.50228e-06,1.78669e-05,-1.23229e-05,-1.70184e-05,1.43103e-05,2.6065e-06,8
1.3577e-05,3.4723e-05,-3.03512e-06,6.31016e-06,1.36395e-06,-1.50754e-05,1.50732e-05,1.2299e-06,8
1.11927e-05,5.93592e-05,-9.81133e-07,-7.97799e-06,2.00688e-05,-1.42257e-05,1.54696e-05,9.76977e-07,8
-3.35566e-06,8.21973e-05,-1.01002e-06,-1.93322e-05,3.14691e-05,-1.36084e-05,1.68038e-05,1.16102e-06,8
-2.49671e-05,0.000101174,-3.71788e-06,-2.33741e-05,3.56041e-05,-1.38053e-05,1.98632e-05,1.29823e-06,8
-4.861e-05,0.000109446,-6.03445e-06,-2.25268e-05,4.51612e-05,-1.3741e-05,2.2955e-05,1.93968e-06,8
-6.64635e-05,8.94729e-05,-7.62565e-06,-2.26831e-05,6.1603e-05,-1.20237e-05,2.35962e-05,3.67805e-06,8
-7.08595e-05,2.81872e-05,-1.06194e-05,-2.58577e-05,6.84209e-05,-1.06902e-05,2.23213e-05,5.89056e-06,8
-6.55336e-05,-5.82069e-05,-1.64564e-05,-2.71987e-05,5.39191e-05,-1.27295e-05,2.13237e-05,7.15315e-06,8
-5.92362e-05,-0.00011618,-2.07938e-05,-1.88427e-05,2.88652e-05,-1.54947e-05,2.06451e-05,7.71999e-06,8
-5.36241e-05,-9.91839e-05,-1.75349e-05,1.54523e-06,9.82589e-06,-1.46334e-05,1.72776e-05,8.96122e-06,8
-4.62336e-05,-2.75531e-05,-9.32577e-06,2.95367e-05,-6.35474e-07,-1.17548e-05,1.26798e-05,1.09221e-05,8
-4.2599e-05,4.33568e-05,-3.80737e-06,5.22279e-05,-6.31616e-06,-1.09165e-05,1.09569e-05,1.24358e-05,8
-5.19494e-05,8.05448e-05,-3.46002e-06,5.84031e-05,-5.94027e-06,-1.21952e-05,1.15565e-05,1.1788e-05,8
-6.61209e-05,9.2397e-05,-5.95557e-06,5.0537e-05,2.95126e-06,-1.30468e-05,1.2493e-05,9.48171e-06,8
-6.38751e-05,9.43037e-05,-6.14851e-06,3.30536e-05,1.88756e-05,-1.17605e-05,1.40352e-05,7.11839e-06,8
-4.58121e-05,8.24093e-05,-2.75663e-06,1.22546e-05,3.91153e-05,-9.42797e-06,1.55037e-05,4.32034e-06,8
-3.04085e-05,5.42871e-05,-5.92211e-07,-1.449e-06,5.41319e-05,-6.36296e-06,1.46386e-05,2.97059e-06,8
-2.62987e-05,1.30215e-05,-3.94996e-06,-7.3897e-07,5.11096e-05,-2.60476e-06,1.17565e-05,3.72518e-06,8
-3.18793e-05,-3.6347e-05,-1.03544e-05,1.248e-05,3.1901e-05,-2.6125e-06,9.60375e-06,3.30155e-06,8
-4.06419e-05,-8.40021e-05,-1.43064e-05,2.2155e-05,1.10821e-05,-5.10476e-06,8.08609e-06,1.24346e-06,8
-4.61904e-05,-0.000105667,-1.39993e-05,1.99467e-05,2.02752e-06,-6.28197e-06,6.26668e-06,3.74943e-07,8
-4.39526e-05,-8.44942e-05,-1.05415e-05,1.37746e-05,1.84765e-05,-6.35485e-06,4.24083e-06,1.61126e-06,8
-3.94003e-05,-3.03882e-05,-7.31563e-06,9.52356e-06,4.93333e-05,-6.00263e-06,2.77287e-06,2.60328e-06,8
-3.76496e-05,3.23347e-05,-6.06698e-06,6.89293e-06,6.06026e-05,-5.85828e-06,3.46302e-06,3.03304e-06,8
-3.73424e-05,7.39185e-05,-6.33408e-06,4.87951e-06,3.92444e-05,-6.84355e-06,4.75378e-06,3.38274e-06,8
-3.29612e-05,8.52965e-05,-6.53467e-06,2.9714e-06,-9.21853e-07,-7.58027e-06,4.86785e-06,3.834e-06,8
-2.34851e-05,7.21444e-05,-5.7176e-06,7.55246e-07,-4.07165e-05,-5.92903e-06,4.23341e-06,4.67754e-06,8
-1.72171e-05,4.04259e-05,-3.35091e-06,-5.51012e-07,-7.15471e-05,-2.42968e-06,3.07213e-06,5.74568e-06,8
-1.88818e-05,-3.38406e-06,-1.34933e-06,-4.94167e-07,-9.47796e-05,8.35139e-08,9.28993e-07,6.94841e-06,8
-2.37635e-05,-5.79816e-05,-1.35621e-06,-1.01208e-06,-0.000106342,1.88069e-07,-7.15729e-08,7.33817e-06,8
-2.57102e-05,-0.000106377,-1.31854e-06,-3.21582e-06,-9.28723e-05,-2.34388e-07,2.23887e-06,6.26208e-06,8
-2.55092e-05,-0.000104468,-7.49973e-08,-5.62818e-06,-5.21161e-05,8.5924e-08,5.42052e-06,4.21158e-06,8
-2.41873e-05,-5.04341e-05,-9.21199e-07,-8.24761e-06,-2.23495e-06,1.094e-06,7.70388e-06,3.29421e-06,8
-2.21124e-05,-3.71781e-06,-4.92294e-06,-1.13434e-05,3.13947e-05,2.23025e-06,8.69547e-06,3.40705e-06,8
-2.02315e-05,-6.18117e-07,-8.14433e-06,-1.45779e-05,4.40971e-05,3.72551e-06,8.13837e-06,3.17722e-06,8
-2.08204e-05,-2.75354e-05,-8.34863e-06,-1.75347e-05,5.00264e-05,4.29435e-06,7.57661e-06,3.1435e-06,8
-2.32032e-05,-4.85137e-05,-6.51277e-06,-2.14265e-05,5.75311e-05,3.67257e-06,8.29756e-06,4.45532e-06,8
-2.37303e-05,-4.1636e-05,-3.32947e-06,-2.47088e-05,6.16665e-05,2.22083e-06,8.75843e-06,5.30575e-06,8
-2.35064e-05,-2.32673e-05,1.83879e-06,-2.35842e-05,5.5314e-05,1.20041e-07,9.52123e-06,5.35261e-06,8
-2.5501e-05,-1.21516e-05,7.22617e-06,-2.27056e-05,4.02087e-05,-8.93378e-07,1.11738e-05,4.66603e-06,8
-2.7913e-05,-6.05875e-06,1.12401e-05,-2.56015e-05,2.30413e-05,-1.0954e-06,1.16057e-05,3.08625e-06,8
-2.799e-05,-2.04865e-07,1.4727e-05,-2.99046e-05,1.04986e-05,-2.87622e-06,1.18329e-05,3.1008e-06,8
-2.49979e-05,5.68404e-06,2.17294e-05,-2.99746e-05,9.7673e-06,-3.17956e-06,1.30397e-05,4.31664e-06,8
-2.11535e-05,1.34289e-05,3.11044e-05,-2.72896e-05,1.85329e-05,1.77831e-07,1.36395e-05,5.91786e-06,8
-1.88023e-05,2.2177e-05,3.43926e-05,-3.19972e-05,1.85965e-05,2.80466e-06,1.30537e-05,6.32657e-06,8
-1.82665e-05,2.5817e-05,3.07255e-05,-4.45545e-05,9.7298e-06,2.19192e-06,1.16098e-05,5.30064e-06,8
-1.94812e-05,2.64923e-05,2.26798e-05,-5.39137e-05,1.19432e-05,-6.25899e-07,1.02575e-05,5.10649e-06,8
-2.07861e-05,2.99233e-05,1.1062e-05,-5.32879e-05,2.52925e-05,-3.34222e-06,9.99237e-06,6.31175e-06,8
-1.9581e-05,3.64289e-05,-5.38203e-06,-4.95809e-05,6.02373e-05,-4.89741e-06,9.57144e-06,6.56711e-06,8
-1.3241e-05,3.87189e-05,-2.80049e-05,-4.7609e-05,0.000131613,-5.38763e-06,8.4219e-06,5.13625e-06,8
-5.0211e-06,3.59285e-05,-5.05004e-05,-4.56083e-05,0.000189862,-4.28264e-06,8.47714e-06,3.98811e-06,8
3.51526e-06,3.21408e-05,-6.3585e-05,-3.44014e-05,0.000170256,-1.62843e-06,1.13949e-05,3.22963e-06,8
1.17576e-05,2.86856e-05,-6.40682e-05,-6.316e-06,8.7244e-05,-9.16314e-08,1.44274e-05,1.9811e-06,8
2.02972e-05,2.62929e-05,-5.49539e-05,3.28598e-05,1.14534e-05,3.95867e-07,1.59096e-05,-9.39755e-07,8
3.28456e-05,2.72936e-05,-3.95331e-05,6.77644e-05,-2.03468e-05,6.76746e-07,1.55851e-05,-3.49876e-06,8
4.21776e-05,3.33147e-05,-2.37648e-05,8.65281e-05,-2.95757e-05,2.01997e-07,1.48697e-05,-3.53611e-06,8
3.27692e-05,4.07948e-05,-1.30487e-05,8.84752e-05,-4.43185e-05,-1.92103e-06,1.55019e-05,-1.89716e-06,8
-2.31373e-06,4.49466e-05,-8.40324e-06,8.20276e-05,-6.73983e-05,-6.03403e-06,1.59301e-05,-1.03e-06,8
-5.27299e-05,3.92758e-05,-7.25423e-06,8.26734e-05,-8.88357e-05,-1.0413e-05,1.56579e-05,-1.56124e-06,8
-9.69518e-05,2.14728e-05,-8.00104e-06,9.38749e-05,-9.62613e-05,-1.49242e-05,1.50768e-05,-1.52679e-06,8
-0.000121913,-1.85264e-06,-1.09403e-05,0.000102738,-8.23996e-05,-2.13535e-05,1.50506e-05,-1.71352e-06,8
-0.000132212,-2.23149e-05,-1.40434e-05,9.62685e-05,-5.6185e-05,-2.85509e-05,1.45324e-05,-3.25386e-06,8
-0.000133029,-4.43111e-05,-1.43143e-05,7.39179e-05,-3.06423e-05,-3.26442e-05,1.40662e-05,-4.84838e-06,8
-0.00012131,-6.60898e-05,-9.1725e-06,4.54413e-05,-9.28752e-06,-3.18721e-05,1.54809e-05,-5.97026e-06,8
-9.46073e-05,-6.55287e-05,-1.28234e-06,1.954e-05,9.15609e-06,-2.64903e-05,1.67378e-05,-6.91176e-06,8
-6.21702e-05,-3.43022e-05,2.36054e-06,-7.37901e-06,3.12102e-05,-2.04731e-05,1.54469e-05,-6.52347e-06,8
-3.48626e-05,7.54585e-06,-3.65268e-06,-3.29692e-05,5.78291e-05,-1.75923e-05,1.30409e-05,-4.82331e-06,8
-1.27258e-05,3.59346e-05,-2.03985e-05,-4.80772e-05,8.0944e-05,-1.61584e-05,1.17859e-05,-2.06969e-06,8
3.45797e-06,3.83819e-05,-4.08854e-05,-5.55091e-05,8.83201e-05,-1.46832e-05,1.18566e-05,5.46531e-07,8
1.17265e-05,2.56627e-05,-4.88227e-05,-6.42718e-05,7.52498e-05,-1.34817e-05,1.17026e-05,1.43577e-06,8
2.36107e-05,2.19593e-05,-3.85717e-05,-7.87294e-05,5.17209e-05,-1.11103e-05,1.20041e-05,9.02749e-07,8
3.66329e-05,3.37443e-05,-1.82983e-05,-9.28079e-05,2.9589e-05,-7.29959e-06,1.3008e-05,4.31074e-07,8
2.67387e-05,5.56753e-05,3.1937e-06,-9.98738e-05,1.23072e-05,-5.51976e-06,1.27236e-05,2.31911e-06,8
-1.04851e-05,7.98004e-05,1.90527e-05,-0.000100012,-1.04574e-06,-8.11929e-06,1.27721e-05,3.11155e-06,8
-5.70181e-05,9.52919e-05,3.17988e-05,-9.62057e-05,-1.43511e-05,-1.17951e-05,1.32013e-05,1.18723e-06,8
-8.71768e-05,9.5842e-05,4.50485e-05,-8.53287e-05,-2.75287e-05,-1.40282e-05,1.32314e-05,-7.44692e-07,8
-8.99684e-05,6.56453e-05,6.10344e-05,-6.2859e-05,-3.73047e-05,-1.31019e-05,1.29e-05,-7.43475e-07,8
-8.40105e-05,1.03719e-05,7.61543e-05,-3.31027e-05,-4.48021e-05,-1.02008e-05,1.28082e-05,1.42538e-06,8
-8.65185e-05,-3.22741e-05,7.64712e-05,-5.15769e-06,-4.32031e-05,-9.34871e-06,1.46158e-05,3.61615e-06,8
-8.884e-05,-4.13781e-05,5.54884e-05,1.33486e-05,-2.94315e-05,-9.88133e-06,1.71851e-05,1.369e-05,8
-7.8453e-05,-2.37844e-05,2.11564e-05,1.71243e-05,-1.2157e-05,-1.00286e-05,1.83999e-05,3.77461e-05,8
-5.94038e-05,1.1037e-06,-1.91003e-05,8.36799e-06,-1.18572e-06,-8.94196e-06,1.74381e-05,6.09098e-05,8
-4.32724e-05,2.02653e-05,-6.15436e-05,-4.41038e-06,2.90055e-06,-7.5267e-06,1.61115e-05,6.47315e-05,8
-3.51041e-05,3.14329e-05,-9.62125e-05,-1.59371e-05,3.381e-06,-7.4874e-06,1.668e-05,5.02768e-05,8
-3.32017e-05,3.54973e-05,-0.00011327,-2.52232e-05,2.33221e-06,-9.77866e-06,1.85414e-05,2.63924e-05,8
-3.41887e-05,2.80268e-05,-0.000110571,-3.24881e-05,2.46295e-06,-1.32949e-05,1.86195e-05,-2.7667e-06,8
-3.44096e-05,9.14477e-06,-9.4516e-05,-3.73989e-05,4.17731e-06,-1.60464e-05,1.60735e-05,-3.24077e-05,8
-3.27098e-05,-1.18645e-05,-7.30427e-05,-4.12304e-05,5.1282e-06,-1.73848e-05,1.2707e-05,-5.24823e-05,8
-2.95042e-05,-2.43862e-05,-5.09015e-05,-4.67201e-05,4.00695e-06,-1.82077e-05,1.02849e-05,-5.69319e-05,8
-2.54723e-05,-2.01914e-05,-3.144e-05,-5.36983e-05,5.02133e-06,-1.80039e-05,1.00246e-05,-5.19497e-05,8
-2.24274e-05,2.7041e-06,-2.04267e-05,-5.68851e-05,1.02624e-05,-1.64465e-05,1.10982e-05,-4.69141e-05,8
-2.18798e-05,3.61539e-05,-2.39216e-05,-5.35402e-05,9.46365e-06,-1.63509e-05,1.24761e-05,-4.35542e-05,8
-2.28995e-05,5.91647e-05,-3.73289e-05,-4.75968e-05,-6.36813e-06,-1.78966e-05,1.27268e-05,-3.48118e-05,8
-2.30549e-05,5.34176e-05,-4.25303e-05,-4.24928e-05,-1.487e-05,-1.8574e-05,1.01127e-05,-2.03915e-05,8
-2.26484e-05,3.2163e-05,-3.27439e-05,-3.4406e-05,1.69334e-07,-1.77815e-05,7.0502e-06,-7.70818e-06,8
-2.23955e-05,1.81128e-05,-1.86497e-05,-1.06746e-05,2.9299e-05,-1.55868e-05,6.47225e-06,-1.40088e-06,8
-2.06875e-05,1.95145e-05,-1.01333e-05,2.73582e-05,5.8454e-05,-1.44942e-05,8.71014e-06,6.46405e-08,8
-1.91944e-05,2.8343e-05,-7.74463e-06,6.47649e-05,6.65426e-05,-1.64849e-05,1.28423e-05,1.98907e-07,8
-1.8319e-05,3.13087e-05,-5.68118e-06,8.40845e-05,4.73545e-05,-1.78871e-05,1.53422e-05,1.48232e-06,8
-1.76889e-05,2.94526e-05,-1.67804e-06,7.78684e-05,1.6535e-05,-1.63958e-05,1.5838e-05,6.30873e-06,8
-1.78917e-05,2.60032e-05,3.699e-06,5.59244e-05,-1.80681e-06,-1.21484e-05,1.67614e-05,1.18656e-05,8
-1.86782e-05,2.10906e-05,1.02968e-05,3.04411e-05,-1.97891e-06,-8.13742e-06,1.84706e-05,1.37171e-05,8
-2.06755e-05,8.44282e-06,2.18334e-05,1.63937e-05,8.89871e-06,-8.1216e-06,2.05415e-05,1.16683e-05,8
-2.15218e-05,-1.15104e-05,3.84569e-05,1.88942e-05,1.89412e-05,-9.88885e-06,2.16703e-05,7.65596e-06,8
-1.8549e-05,-2.63461e-05,5.54101e-05,2.93945e-05,1.71448e-05,-1.02187e-05,2.18853e-05,5.58855e-06,8
-1.1965e-05,-1.86704e-05,6.6811e-05,3.38717e-05,5.19052e-06,-8.58298e-06,2.21006e-05,6.29464e-06,8
-8.18743e-06,9.99881e-06,6.88026e-05,3.06781e-05,-1.30561e-05,-6.12832e-06,2.23839e-05,7.18928e-06,8
-1.17274e-05,4.61356e-05,5.79737e-05,2.11406e-05,-3.0854e-05,-4.86992e-06,2.26761e-05,6.66098e-06,8
-1.90703e-05,7.31167e-05,3.34356e-05,6.32305e-06,-4.24374e-05,-6.84716e-06,2.15864e-05,5.10268e-06,8
-2.24443e-05,7.11715e-05,1.62166e-06,-6.68082e-06,-4.08843e-05,-1.03047e-05,1.95862e-05,5.53358e-06,8
-2.21805e-05,4.76309e-05,-2.86143e-05,-1.27122e-05,-2.4833e-05,-1.12135e-05,1.88214e-05,1.02e-05,8
-2.53704e-05,3.35407e-05,-4.96051e-05,-1.28356e-05,-2.11035e-06,-1.02241e-05,1.96087e-05,1.86743e-05,8
-3.15859e-05,4.67063e-05,-5.76075e-05,-1.09704e-05,1.57208e-05,-1.03881e-05,2.02911e-05,2.44919e-05,8
-3.37297e-05,7.12183e-05,-5.39514e-05,-6.93671e-06,2.86598e-05,-1.34153e-05,1.89209e-05,2.15949e-05,8
-2.58469e-05,8.5047e-05,-4.36837e-05,-2.49662e-06,5.28898e-05,-1.54124e-05,1.595e-05,1.26581e-05,8
-9.09865e-06,7.61055e-05,-3.10766e-05,1.93822e-06,9.70041e-05,-1.14509e-05,1.31139e-05,4.67334e-06,8
1.23462e-05,4.99242e-05,-1.80106e-05,6.1358e-06,0.000137308,-4.77531e-06,1.17605e-05,-1.30874e-07,8
3.36267e-05,2.73956e-05,-6.21376e-06,9.73869e-06,0.000141448,-5.51535e-07,1.17124e-05,-4.86226e-06,8
4.93438e-05,2.57862e-05,5.91642e-07,1.12506e-05,0.000115018,1.34197e-06,1.16144e-05,-1.1207e-05,8
5.10176e-05,4.39097e-05,3.53282e-06,1.22741e-05,9.67878e-05,2.03099e-06,1.15833e-05,-1.77827e-05,8
3.75647e-05,7.81027e-05,5.54822e-06,1.14446e-05,0.000104816,9.59927e-07,1.1892e-05,-2.12535e-05,8
1.71995e-05,0.000106099,5.98175e-06,8.84831e-06,0.000109644,-7.44977e-07,1.19364e-05,-1.81037e-05,8
-1.64024e-05,8.7388e-05,2.78598e-06,6.15005e-06,7.75505e-05,-3.24294e-06,1.23134e-05,-1.1578e-05,8
-6.04014e-05,3.43808e-05,1.15262e-07,3.01098e-06,2.29811e-05,-8.91799e-06,1.30316e-05,-8.95754e-06,8
-9.68465e-05,-9.25663e-06,1.54449e-06,-2.3016e-06,-2.70102e-05,-1.59152e-05,1.22333e-05,-8.42284e-06,8
-0.000117073,-4.06659e-05,4.03645e-06,-8.9345e-06,-6.18556e-05,-2.08389e-05,1.06549e-05,-7.38394e-06,8
-0.00011421,-7.78127e-05,4.44839e-06,-1.41532e-05,-6.02258e-05,-2.33287e-05,1.04885e-05,-6.96207e-06,8
-9.708e-05,-9.42757e-05,1.90637e-06,-1.60576e-05,-2.51831e-05,-2.42511e-05,1.12872e-05,-7.31107e-06,8
-7.54763e-05,-6.87572e-05,8.84935e-07,-1.33169e-05,8.98624e-07,-2.36841e-05,1.2484e-05,-6.98702e-06,8
-5.23336e-05,-3.25892e-05,5.82443e-07,-5.76987e-06,-1.54516e-05,-2.10364e-05,1.32874e-05,-4.79572e-06,8
-3.10878e-05,-1.09452e-05,-1.76172e-06,6.37322e-06,-6.34308e-05,-1.76404e-05,1.23546e-05,-2.15951e-06,8
-1.7955e-05,-5.66342e-06,-4.93407e-06,1.56662e-05,-9.70179e-05,-1.66004e-05,1.08645e-05,-5.55326e-07,8
-1.6584e-05,-4.45859e-06,-6.25092e-06,1.88625e-05,-8.38979e-05,-1.7086e-05,1.01653e-05,2.27275e-07,8
-2.16183e-05,-2.67921e-06,-6.00826e-06,1.90144e-05,-4.08708e-05,-1.64526e-05,9.55537e-06,2.91891e-06,8
-2.73322e-05,-6.68095e-06,-7.12426e-06,1.88542e-05,1.67882e-06,-1.55383e-05,9.84665e-06,7.02514e-06,8
-3.27342e-05,-1.93319e-05,-9.37649e-06,1.46958e-05,3.01128e-05,-1.61414e-05,1.08542e-05,9.73933e-06,8
-4.11695e-05,-3.11105e-05,-9.92792e-06,2.70033e-07,5.07374e-05,-1.71781e-05,1.15691e-05,9.52419e-06,8
-4.91911e-05,-2.92478e-05,-8.37675e-06,-2.28011e-05,6.6239e-05,-1.63777e-05,1.2374e-05,7.27056e-06,8
-5.1551e-05,-1.7714e-05,-7.81165e-06,-4.11873e-05,6.71923e-05,-1.34187e-05,1.26821e-05,3.74076e-06,8
-4.63497e-05,-7.49652e-06,-8.62072e-06,-4.40642e-05,5.21747e-05,-9.22595e-06,1.16959e-05,-4.10899e-07,8
-3.80196e-05,-5.28406e-06,-8.51765e-06,-3.307e-05,3.18574e-05,-6.11181e-06,1.01851e-05,-3.1488e-06,8
-3.10159e-05,-7.31808e-06,-5.99326e-06,-1.76855e-05,2.06392e-05,-6.04496e-06,9.98871e-06,-4.28925e-06,8
-2.88376e-05,-7.99039e-06,-1.85079e-06,-5.26224e-06,2.12035e-05,-7.33809e-06,1.05837e-05,-5.51275e-06,8
-3.0094e-05,-2.68635e-06,2.88415e-06,2.74326e-06,2.31403e-05,-6.4932e-06,9.52149e-06,-6.22142e-06,8
-3.06886e-05,1.41247e-05,6.04453e-06,4.31517e-06,1.85143e-05,-3.98936e-06,7.70107e-06,-5.85421e-06,8
-2.84809e-05,4.0435e-05,6.14229e-06,-5.31527e-06,1.7106e-05,-2.30442e-06,7.7061e-06,-5.76863e-06,8
-2.45289e-05,6.20817e-05,4.47217e-06,-2.52064e-05,2.3198e-05,-1.86008e-06,7.47704e-06,-4.87264e-06,8
-2.26577e-05,7.05443e-05,2.62406e-06,-4.35146e-05,3.03658e-05,-2.73555e-06,6.59791e-06,-3.33746e-06,8
-2.29508e-05,6.95853e-05,1.09442e-06,-5.06263e-05,3.24958e-05,-2.65086e-06,7.39523e-06,4.94773e-07,8
-2.13996e-05,6.99153e-05,-1.25471e-06,-4.48442e-05,2.69801e-05,-6.61998e-08,9.32271e-06,5.5478e-06,8
-1.827e-05,6.06688e-05,-6.09275e-06,-3.50369e-05,1.54731e-05,-1.60301e-07,1.00253e-05,6.40659e-06,8
-1.78239e-05,1.48107e-05,-1.11294e-05,-3.03107e-05,6.23655e-06,-4.17754e-06,9.9243e-06,5.5331e-06,8
-1.95218e-05,-3.38972e-05,-1.54582e-05,-2.79994e-05,3.62232e-06,-8.42486e-06,1.02909e-05,7.89974e-06,8
-2.50113e-05,-3.78979e-05,-1.81497e-05,-2.18857e-05,3.94933e-06,-1.19888e-05,1.01872e-05,1.20701e-05,8
-3.29454e-05,-1.69649e-05,-1.73067e-05,-1.28928e-05,4.81113e-06,-1.44646e-05,1.0939e-05,1.41681e-05,8
-3.51219e-05,-1.39673e-05,-1.56112e-05,-8.57948e-06,9.32822e-06,-1.30471e-05,1.34431e-05,1.36603e-05,8
-3.19791e-05,-4.62669e-05,-1.27389e-05,-1.36406e-05,1.80764e-05,-8.12405e-06,1.55972e-05,1.17794e-05,8
-2.85554e-05,-7.81936e-05,-5.46152e-06,-2.12244e-05,2.55901e-05,-3.66848e-06,1.4933e-05,9.66033e-06,8
-2.02411e-05,-7.30946e-05,8.56275e-06,-1.74727e-05,2.93219e-05,-2.20279e-06,1.35742e-05,7.3213e-06,8
-4.67964e-06,-4.0549e-05,2.58123e-05,3.66212e-06,2.77043e-05,-3.36229e-06,1.29305e-05,4.49505e-06,8
6.6424e-06,-1.08137e-05,3.88041e-05,3.73346e-05,1.94153e-05,-3.94455e-06,1.24865e-05,1.96624e-06,8
5.03624e-06,9.29425e-07,4.58886e-05,7.01638e-05,5.57949e-06,-3.3173e-06,1.2885e-05,-1.0978e-06,8
-6.33296e-06,1.93324e-06,4.86096e-05,8.80195e-05,-1.03276e-05,-3.20075e-06,1.43467e-05,-5.44374e-06,8
-2.2053e-05,1.92353e-06,4.638e-05,8.70934e-05,-2.21836e-05,-5.07156e-06,1.56492e-05,-8.76701e-06,8
-3.73856e-05,6.49248e-06,3.63338e-05,7.01751e-05,-2.42438e-05,-7.98249e-06,1.56765e-05,-8.72139e-06,8
-5.17663e-05,1.18439e-05,1.78098e-05,4.14992e-05,-1.8166e-05,-9.71977e-06,1.5326e-05,-7.12988e-06,8
-6.50046e-05,1.20275e-05,-5.81806e-06,1.03906e-05,-9.61891e-06,-9.90592e-06,1.49744e-05,-5.19331e-06,8
-7.1305e-05,4.35385e-06,-2.91565e-05,-1.01005e-05,-3.10009e-06,-9.60953e-06,1.47563e-05,-2.98984e-06,8
-6.3516e-05,-2.84326e-06,-4.48196e-05,-1.56974e-05,-4.94617e-08,-9.53338e-06,1.56197e-05,-1.53163e-06,8
-4.54181e-05,-2.07752e-06,-4.66622e-05,-1.1048e-05,1.13873e-06,-9.62943e-06,1.72636e-05,-6.1549e-07,8
-2.92392e-05,7.1315e-06,-3.81359e-05,-2.95377e-07,7.57026e-06,-9.24317e-06,1.7308e-05,-6.64006e-09,8
-2.16076e-05,1.77766e-05,-2.98336e-05,1.03637e-05,2.27975e-05,-7.14591e-06,1.6558e-05,-1.25562e-06,8
-2.27728e-05,2.20864e-05,-2.68028e-05,1.30017e-05,4.03196e-05,-4.98944e-06,1.65307e-05,-3.96875e-06,8
-3.1621e-05,1.93002e-05,-2.84535e-05,7.12699e-06,5.13522e-05,-6.62861e-06,1.6486e-05,-4.08337e-06,8
-4.30006e-05,1.56963e-05,-3.08971e-05,7.81672e-06,5.14061e-05,-1.06396e-05,1.45791e-05,-2.56864e-06,8
-5.08546e-05,1.30194e-05,-3.07316e-05,2.17882e-05,4.31406e-05,-1.29124e-05,1.23778e-05,-2.17632e-06,8
-4.9181e-05,1.34662e-05,-2.80787e-05,2.9401e-05,3.31073e-05,-1.18479e-05,1.11983e-05,-1.64146e-06,8
-3.99948e-05,1.84238e-05,-2.29114e-05,2.20373e-05,2.4247e-05,-9.51941e-06,1.05834e-05,7.00818e-07,8
-3.38243e-05,1.79652e-05,-1.72799e-05,1.20706e-05,1.55188e-05,-8.71067e-06,1.0208e-05,2.46902e-06,8
-3.14189e-05,1.20096e-05,-1.53313e-05,3.04379e-06,6.49186e-06,-8.65171e-06,1.01178e-05,1.85601e-06,8
-2.98102e-05,8.17624e-06,-1.53588e-05,-1.17321e-05,-1.00021e-06,-8.04625e-06,1.05502e-05,1.50682e-06,8
-2.94953e-05,1.11112e-05,-1.632e-05,-3.21342e-05,-1.12415e-05,-8.96769e-06,9.32132e-06,2.76687e-06,8
-3.00259e-05,1.51749e-05,-1.74702e-05,-4.96522e-05,-2.51684e-05,-1.05966e-05,7.10113e-06,4.65795e-06,8
-2.97925e-05,1.54671e-05,-1.51138e-05,-5.96144e-05,-3.33094e-05,-8.5374e-06,5.09796e-06,5.24164e-06,8
-2.8758e-05,1.81695e-05,-1.19851e-05,-6.4638e-05,-2.50488e-05,-3.77009e-06,3.61784e-06,4.20672e-06,8
-2.63994e-05,2.89398e-05,-1.08855e-05,-6.57526e-05,1.54389e-05,-1.01983e-06,2.82269e-06,3.65542e-06,8
-2.46954e-05,4.42174e-05,-1.12692e-05,-6.08973e-05,8.33325e-05,-2.18648e-06,1.97918e-06,4.76876e-06,8
-2.51761e-05,5.47172e-05,-1.19154e-05,-4.64012e-05,0.000126187,-4.68734e-06,1.50146e-06,6.44018e-06,8
-2.64625e-05,5.77473e-05,-1.29327e-05,-2.19598e-05,0.000105312,-6.41604e-06,2.58156e-06,7.77501e-06,8
-2.61907e-05,6.02803e-05,-1.45506e-05,2.48671e-06,5.18512e-05,-7.3251e-06,4.34957e-06,8.08179e-06,8
-2.42236e-05,6.38507e-05,-1.66318e-05,1.53462e-05,1.64226e-05,-7.91796e-06,5.81996e-06,7.62535e-06,8
-2.34714e-05,5.04407e-05,-1.87439e-05,1.4627e-05,4.38553e-06,-8.75913e-06,8.03437e-06,6.20639e-06,8
-2.53604e-05,6.61454e-06,-1.88388e-05,5.88346e-06,-9.74488e-06,-1.00789e-05,1.05079e-05,4.2255e-06,8
-2.81709e-05,-4.27209e-05,-1.61072e-05,-7.31033e-06,-3.171e-05,-1.06881e-05,1.2121e-05,4.4187e-06,8
-2.83162e-05,-5.55835e-05,-1.23997e-05,-1.97862e-05,-4.71441e-05,-9.65836e-06,1.31572e-05,6.39741e-06,8
-2.63358e-05,-3.02184e-05,-1.00596e-05,-2.49134e-05,-4.96576e-05,-7.45072e-06,1.40799e-05,6.88204e-06,8
-2.45249e-05,-2.08613e-06,-8.68376e-06,-2.2927e-05,-4.53834e-05,-5.95594e-06,1.37295e-05,5.23087e-06,8
-2.29868e-05,9.47626e-06,-8.07549e-06,-1.89277e-05,-3.81427e-05,-7.82305e-06,1.21115e-05,4.70529e-06,8
-1.7668e-05,1.06416e-05,-7.83418e-06,-1.85786e-05,-2.8913e-05,-1.27363e-05,1.04082e-05,5.98121e-06,8
-2.81365e-06,1.27333e-05,-5.44171e-06,-2.14758e-05,-1.69797e-05,-1.62641e-05,9.37618e-06,6.92883e-06,8
1.78171e-05,1.89237e-05,-1.06061e-06,-2.1498e-05,-3.65539e-06,-1.57359e-05,1.03017e-05,5.77487e-06,8
3.12076e-05,2.54725e-05,1.11153e-06,-2.26375e-05,5.11287e-06,-1.1964e-05,1.1074e-05,4.8635e-06,8
3.17006e-05,2.97251e-05,-1.12515e-07,-2.44789e-05,9.90039e-06,-7.55375e-06,1.04844e-05,6.80085e-06,8
1.98761e-05,2.74322e-05,-3.1134e-06,-2.18809e-05,1.36796e-05,-4.34749e-06,9.38835e-06,7.39319e-06,8
-1.48168e-06,1.05287e-05,-4.64393e-06,-2.09317e-05,8.61441e-06,-4.69431e-06,8.84165e-06,4.83596e-06,8
-2.66247e-05,-1.0602e-05,-3.27228e-06,-1.95351e-05,-4.37404e-06,-9.35893e-06,9.71025e-06,9.28432e-07,8
-5.16994e-05,-2.20384e-05,-3.53083e-06,-1.02703e-05,-8.77687e-06,-1.27727e-05,1.13217e-05,1.03171e-07,8
-7.3567e-05,-1.97739e-05,-5.20146e-06,7.03987e-06,-1.64851e-06,-1.31989e-05,1.23549e-05,2.64819e-06,8
-8.32636e-05,3.30278e-06,-4.00349e-06,2.52727e-05,1.01495e-05,-1.33714e-05,1.29357e-05,3.68201e-06,8
-7.74076e-05,3.78636e-05,-6.31033e-07,3.7266e-05,2.09522e-05,-1.62276e-05,1.45317e-05,4.30093e-06,8
-6.68259e-05,6.74162e-05,3.64717e-06,4.02822e-05,2.22229e-05,-1.94867e-05,1.61803e-05,4.98043e-06,8
-5.95873e-05,7.71189e-05,1.01859e-05,3.53581e-05,1.31259e-05,-1.85501e-05,1.60664e-05,5.20529e-06,8
-5.60614e-05,6.23865e-05,1.67551e-05,2.48556e-05,6.55485e-06,-1.53421e-05,1.45213e-05,5.1161e-06,8
-5.4059e-05,3.71465e-05,2.18508e-05,8.79417e-06,1.01508e-05,-1.4157e-05,1.38606e-05,4.33232e-06,8
-4.81091e-05,2.22898e-05,2.40933e-05,-1.07498e-05,1.78448e-05,-1.53671e-05,1.41602e-05,3.51437e-06,8
-3.209e-05,2.86824e-05,1.98915e-05,-2.4454e-05,2.27331e-05,-1.8396e-05,1.49914e-05,4.19415e-06,8
-1.25864e-05,4.63015e-05,9.58842e-06,-2.78519e-05,2.38518e-05,-2.48195e-05,1.48064e-05,5.4914e-06,8
-3.91024e-06,5.77039e-05,-4.45513e-06,-2.78116e-05,2.27549e-05,-3.4336e-05,1.30857e-05,5.99102e-06,8
-8.71711e-06,5.57963e-05,-1.96867e-05,-2.99167e-05,1.9304e-05,-4.25106e-05,1.13757e-05,5.55002e-06,8
-1.24517e-05,5.12499e-05,-3.32638e-05,-3.13134e-05,1.23239e-05,-3.47463e-05,1.1015e-05,3.36585e-06,8
-4.01416e-06,5.22115e-05,-4.14543e-05,-2.81256e-05,1.43287e-06,-2.91265e-06,1.21631e-05,1.2857e-06,8
7.88591e-06,5.56471e-05,-4.2226e-05,-2.24075e-05,-6.97376e-06,2.74493e-05,1.29966e-05,1.03641e-06,8
4.18766e-06,5.52426e-05,-3.57727e-05,-1.64429e-05,1.01178e-06,2.74853e-05,1.32544e-05,8.53349e-07,8
-2.30406e-05,4.96502e-05,-2.51135e-05,-1.0098e-05,2.70618e-05,6.97006e-06,1.33324e-05,-9.10651e-08,8
-5.61034e-05,4.2842e-05,-1.32247e-05,-4.87716e-06,5.54679e-05,-8.19633e-06,1.34426e-05,-4.37069e-07,8
-7.00605e-05,4.85997e-05,-1.88829e-06,-4.39998e-06,7.09052e-05,-9.83449e-06,1.30731e-05,-4.57911e-07,8
-6.69944e-05,7.19109e-05,7.85075e-06,-9.09941e-06,7.26593e-05,-4.83826e-06,1.31419e-05,-9.84814e-07,8
-6.4508e-05,7.78727e-05,1.83087e-05,-1.64168e-05,6.73907e-05,4.30628e-07,1.33366e-05,-2.89718e-06,8
-6.77617e-05,3.14183e-05,3.14196e-05,-2.10353e-05,5.37696e-05,3.78145e-06,1.31088e-05,-5.40528e-06,8
-7.97511e-05,-4.85396e-05,4.30054e-05,-2.21323e-05,3.72509e-05,5.561e-06,1.39672e-05,-7.13375e-06,8
-9.43908e-05,-0.00010302,4.74688e-05,-2.1906e-05,7.37237e-06,3.23058e-06,1.70807e-05,-7.01633e-06,8
-9.08816e-05,-9.04833e-05,4.58171e-05,-2.16165e-05,-3.19768e-05,-2.92262e-06,2.05555e-05,-5.71758e-06,8
-7.05844e-05,-4.20338e-05,3.72818e-05,-2.53601e-05,-4.75404e-05,-7.63422e-06,2.09142e-05,-5.4472e-06,8
-5.27368e-05,-1.88992e-05,1.94845e-05,-2.97621e-05,-3.49062e-05,-8.89704e-06,1.90232e-05,-5.00114e-06,8
-3.97937e-05,-2.21664e-05,1.61984e-06,-2.28489e-05,2.74104e-07,-6.81787e-06,1.72321e-05,-3.27537e-06,8
-2.7595e-05,-1.59709e-05,-7.19595e-06,-3.12342e-06,3.48336e-05,-4.74537e-06,1.57143e-05,-1.44117e-06,8
-1.58394e-05,-4.60764e-06,-1.29628e-05,1.8714e-05,4.69148e-05,-5.19481e-06,1.27346e-05,-1.15661e-06,8
-1.10003e-05,-3.50852e-05,-2.27561e-05,2.66013e-05,3.74197e-05,-8.8757e-06,1.06092e-05,-2.44738e-06,8
-1.24583e-05,-7.87834e-05,-3.72721e-05,1.50089e-05,1.32223e-05,-1.18999e-05,1.08691e-05,-2.94309e-06,8
-1.21456e-05,-7.25932e-05,-5.21951e-05,-2.45628e-06,-1.73594e-05,-1.05407e-05,1.19759e-05,-2.56866e-06,8
-9.79428e-06,-3.50336e-05,-6.20189e-05,-8.93407e-06,-3.53982e-05,-7.42452e-06,1.33326e-05,-1.79971e-07,8
-1.21265e-05,-1.33891e-05,-6.63993e-05,1.99735e-06,-2.55831e-05,-7.6646e-06,1.48887e-05,1.84781e-06,8
-1.93661e-05,-2.06039e-05,-6.75379e-05,1.55344e-05,3.78135e-07,-1.06475e-05,1.62142e-05,2.54964e-07,8
-2.52683e-05,-3.1227e-05,-6.35441e-05,1.5398e-05,1.98483e-05,-1.18556e-05,1.59913e-05,-2.86666e-06,8
-2.6953e-05,-2.90835e-05,-5.07168e-05,4.398e-06,2.49838e-05,-1.06101e-05,1.55465e-05,-4.81513e-06,8
-2.44687e-05,-1.68658e-05,-3.32573e-05,-5.17935e-06,2.92656e-05,-9.23763e-06,1.60607e-05,-4.5113e-06,8
-2.43446e-05,-3.87749e-06,-1.82239e-05,-8.84509e-06,3.78873e-05,-9.61931e-06,1.70417e-05,-4.21885e-06,8
-3.05741e-05,5.24973e-06,-1.13142e-05,-9.30848e-06,3.59408e-05,-1.12085e-05,1.67867e-05,-4.43231e-06,8
-3.66211e-05,6.91564e-06,-1.82369e-05,-8.18982e-06,1.35794e-05,-1.34519e-05,1.50245e-05,-4.76742e-06,8
-3.20073e-05,2.79598e-06,-3.95365e-05,-6.1814e-06,-9.39081e-06,-1.40051e-05,1.2757e-05,-3.8892e-06,8
-2.06097e-05,-7.91277e-07,-6.54888e-05,-3.4003e-06,-1.09469e-05,-1.23834e-05,1.10293e-05,-2.65224e-06,8
-1.2154e-05,-2.93567e-06,-8.42503e-05,1.88132e-06,8.02503e-06,-1.12283e-05,1.0076e-05,-3.13486e-06,8
-1.04425e-05,-5.21228e-06,-9.02898e-05,8.36263e-06,1.92468e-05,-1.22912e-05,1.05846e-05,-4.70732e-06,8
-1.31441e-05,-1.15729e-05,-8.23675e-05,1.34361e-05,2.83117e-06,-1.27852e-05,1.2356e-05,-4.91941e-06,8
-1.98903e-05,-2.05924e-05,-6.53599e-05,1.80741e-05,-2.18246e-05,-1.08145e-05,1.31321e-05,-4.01232e-06,8
-3.02313e-05,-2.64228e-05,-4.78136e-05,2.24212e-05,-2.59843e-05,-7.88583e-06,1.32992e-05,-2.53657e-06,8
-4.10826e-05,-2.06558e-05,-3.47255e-05,2.38969e-05,-1.04015e-05,-5.35493e-06,1.4417e-05,-7.11322e-07,8
-4.84688e-05,-4.82558e-06,-2.45964e-05,2.02097e-05,4.84262e-06,-5.35127e-06,1.53019e-05,3.21605e-07,8
-4.62217e-05,1.03204e-05,-1.81476e-05,1.44338e-05,1.40875e-05,-7.26997e-06,1.47249e-05,9.08338e-07,8
-3.90183e-05,1.83633e-05,-1.88384e-05,1.16297e-05,2.3849e-05,-8.34017e-06,1.50365e-05,1.45561e-07,8
-3.17241e-05,2.00479e-05,-1.99416e-05,1.09502e-05,3.11859e-05,-7.64573e-06,1.58994e-05,-6.70064e-07,8
-2.65156e-05,1.877e-05,-1.35811e-05,7.60263e-06,3.46415e-05,-5.65609e-06,1.59137e-05,-6.15012e-08,8
-2.53096e-05,2.14624e-05,-2.44968e-06,3.15576e-06,3.94413e-05,-3.43394e-06,1.48528e-05,6.97208e-07,8
-2.52743e-05,2.79506e-05,6.3122e-06,-7.79186e-07,4.30788e-05,-1.29621e-06,1.45358e-05,1.74681e-07,8
-2.50563e-05,3.47132e-05,1.22676e-05,-2.87937e-06,4.5069e-05,-5.87334e-07,1.52055e-05,-1.21881e-06,8
-2.34581e-05,3.98011e-05,1.66772e-05,-4.18638e-06,4.39463e-05,-2.10447e-06,1.29775e-05,-2.60572e-06,8
-1.90272e-05,4.30513e-05,1.82461e-05,-9.82961e-06,3.80183e-05,-4.32871e-06,1.08426e-05,-3.18524e-06,8
-1.2687e-05,4.42238e-05,1.79451e-05,-1.68901e-05,2.77519e-05,-7.25519e-06,1.16572e-05,-3.30383e-06,8
-1.03207e-05,4.28406e-05,1.8738e-05,-1.99702e-05,1.63309e-05,-9.88453e-06,1.3822e-05,-2.58918e-06,8
-1.26814e-05,3.92582e-05,2.09366e-05,-2.05321e-05,7.74041e-06,-1.10848e-05,1.58779e-05,-1.57037e-06,8
-1.49215e-05,3.17216e-05,2.23706e-05,-2.08961e-05,4.44341e-06,-1.04423e-05,1.74895e-05,-5.02334e-07,8
-1.91292e-05,2.29161e-05,2.15725e-05,-2.08318e-05,5.2493e-06,-9.11685e-06,1.78517e-05,-1.13145e-07,8
-2.86424e-05,1.87454e-05,1.77343e-05,-2.05519e-05,5.72795e-06,-8.35745e-06,1.68264e-05,-4.1542e-07,8
-3.90078e-05,2.18562e-05,1.54891e-05,-1.9237e-05,4.07737e-06,-8.48276e-06,1.67542e-05,2.9868e-08,8
-3.87643e-05,2.7489e-05,1.80093e-05,-1.32446e-05,1.77984e-06,-9.39765e-06,1.78856e-05,1.35207e-06,8
-2.43286e-05,3.21948e-05,2.32799e-05,1.08624e-06,-1.04388e-06,-1.03613e-05,1.8213e-05,2.97806e-06,8
-7.71037e-06,3.32462e-05,2.82541e-05,1.70101e-05,-4.92552e-06,-1.07099e-05,1.58012e-05,4.62873e-06,8
-8.21268e-07,2.66968e-05,2.98562e-05,1.99822e-05,-7.01963e-06,-9.96241e-06,1.25998e-05,6.4914e-06,8
-4.39972e-06,1.25885e-05,2.59177e-05,6.07174e-06,-3.58135e-06,-9.74738e-06,1.15595e-05,6.49464e-06,8
-1.51619e-05,-1.12296e-06,2.01515e-05,-1.42327e-05,8.69265e-06,-1.21482e-05,1.20972e-05,5.22945e-06,8
-2.871e-05,-8.10612e-06,1.75436e-05,-3.03289e-05,2.63721e-05,-1.58415e-05,1.28204e-05,4.53057e-06,8
-4.35974e-05,-1.63538e-05,1.68093e-05,-4.11591e-05,3.73024e-05,-1.90408e-05,1.33875e-05,4.72451e-06,8
-5.96263e-05,-3.59033e-05,1.44751e-05,-4.63438e-05,3.60288e-05,-2.14953e-05,1.37638e-05,5.54799e-06,8
-6.77824e-05,-5.75731e-05,1.0374e-05,-3.84527e-05,2.77901e-05,-2.11882e-05,1.37609e-05,1.28148e-05,8
-5.57947e-05,-4.96747e-05,5.70274e-06,-1.44779e-05,1.99267e-05,-1.9035e-05,1.31996e-05,3.89392e-05,8
-3.74372e-05,-8.27379e-06,2.68918e-06,1.57302e-05,1.89617e-05,-1.4795e-05,1.4218e-05,6.51957e-05,8
-3.45138e-05,3.54133e-05,-1.82242e-06,3.54774e-05,2.41424e-05,-1.1896e-05,1.62231e-05,6.63044e-05,8
-4.05692e-05,6.39193e-05,-8.48318e-06,3.30944e-05,2.81732e-05,-1.32901e-05,1.7978e-05,5.1089e-05,8
-4.03462e-05,6.60632e-05,-1.1029e-05,1.04291e-05,2.72053e-05,-1.50619e-05,1.76799e-05,2.72556e-05,8
-3.29755e-05,4.72789e-05,-9.66299e-06,-1.0702e-05,2.34145e-05,-1.57476e-05,1.53306e-05,-2.22253e-06,8
-2.77653e-05,3.18484e-05,-4.12163e-06,-1.46018e-05,1.70362e-05,-1.38094e-05,1.39859e-05,-3.15844e-05,8
-2.5237e-05,3.803e-05,5.06135e-06,-4.30464e-06,9.80488e-06,-1.01609e-05,1.52791e-05,-4.91179e-05,8
-2.64432e-05,6.07968e-05,1.39924e-05,1.33481e-05,2.80722e-06,-7.72967e-06,1.6832e-05,-5.20082e-05,8
-3.13777e-05,8.09135e-05,1.64913e-05,3.16477e-05,-2.58944e-06,-8.62353e-06,1.5029e-05,-4.81631e-05,8
-3.30611e-05,7.16188e-05,1.23005e-05,4.65501e-05,-3.64114e-06,-1.03072e-05,1.15738e-05,-4.56254e-05,8
-3.02538e-05,2.12569e-05,5.43259e-06,5.4486e-05,-2.22727e-06,-1.15404e-05,9.10289e-06,-4.24192e-05,8
-2.79204e-05,-2.92651e-05,-1.22475e-07,5.22785e-05,-1.44147e-06,-1.32054e-05,9.05153e-06,-3.22417e-05,8
-2.9239e-05,-3.99217e-05,-2.69866e-06,4.00514e-05,-6.00781e-07,-1.42973e-05,9.68222e-06,-1.86952e-05,8
-3.23034e-05,-1.87977e-05,-4.8752e-06,2.26663e-05,5.10773e-06,-1.38827e-05,9.59034e-06,-7.54929e-06,8
-3.35321e-05,3.94803e-06,-7.31011e-06,6.4423e-06,1.26546e-05,-1.25578e-05,8.77039e-06,-2.38634e-06,8
-2.93848e-05,1.50834e-05,-8.38595e-06,-4.25714e-06,1.33506e-05,-1.13485e-05,8.57773e-06,-5.62592e-07,8
-2.22203e-05,1.72976e-05,-8.64286e-06,-1.09258e-05,4.54238e-06,-9.76837e-06,9.57453e-06,2.05484e-07,8
-1.73425e-05,1.80963e-05,-9.99499e-06,-1.58241e-05,-7.88343e-06,-8.3824e-06,1.07207e-05,2.0488e-06,8
-1.54003e-05,2.15177e-05,-1.06253e-05,-1.7806e-05,-1.58251e-05,-6.35431e-06,1.07032e-05,4.97933e-06,8
-1.47826e-05,2.67955e-05,-9.53117e-06,-1.62136e-05,-1.25215e-05,-3.90784e-06,8.8017e-06,8.96616e-06,8
-1.8536e-05,3.06463e-05,-7.07681e-06,-1.55902e-05,4.37492e-06,-1.81327e-06,6.85077e-06,1.08123e-05,8
-2.64581e-05,3.11118e-05,-4.16072e-06,-1.85554e-05,2.76934e-05,1.50114e-07,6.30354e-06,9.60053e-06,8
-3.33523e-05,2.96563e-05,-2.01272e-06,-2.37231e-05,4.37495e-05,1.67197e-07,5.80005e-06,7.73361e-06,8
-3.40621e-05,2.56896e-05,-7.32546e-07,-2.72064e-05,4.36456e-05,-3.53395e-06,4.7094e-06,6.47648e-06,8
-2.50087e-05,1.77762e-05,-6.74003e-07,-2.88361e-05,3.13483e-05,-8.22211e-06,3.82674e-06,2.7757e-06,8
-1.5897e-05,1.03315e-05,-1.56072e-06,-2.66768e-05,2.24406e-05,-1.15085e-05,4.47332e-06,3.53173e-07,8
-2.20639e-05,7.09995e-06,-1.34369e-06,-1.86303e-05,2.08592e-05,-1.45436e-05,7.07195e-06,1.45393e-06,8
-3.57866e-05,7.09687e-06,-6.7343e-07,-1.31587e-05,1.48189e-05,-1.67003e-05,9.08257e-06,3.63254e-07,8
-4.0248e-05,1.00037e-05,-1.16836e-06,-1.13556e-05,5.36033e-06,-1.57806e-05,9.79512e-06,-1.11163e-06,8
-3.53512e-05,1.43234e-05,-1.81938e-06,-8.17944e-06,3.59276e-06,-1.344e-05,9.93653e-06,-6.04557e-08,8
-3.00217e-05,2.25583e-05,8.80673e-07,1.11398e-07,1.3022e-05,-1.2326e-05,8.94948e-06,9.66662e-07,8
-3.24308e-05,3.30946e-05,3.90395e-06,1.1269e-05,2.61531e-05,-1.16171e-05,7.3271e-06,4.85828e-07,8
-3.7698e-05,4.27721e-05,3.68227e-06,1.7094e-05,3.24044e-05,-9.65236e-06,7.365e-06,-1.35378e-06,8
-3.77174e-05,5.09545e-05,8.74488e-07,1.31285e-05,2.99685e-05,-7.98593e-06,8.12246e-06,-4.08519e-06,8
-3.33269e-05,5.61964e-05,-3.27344e-06,2.12459e-07,2.42688e-05,-7.7489e-06,8.37544e-06,-4.46336e-06,8
-2.7611e-05,5.54494e-05,-8.30215e-06,-1.49644e-05,1.98324e-05,-8.07787e-06,9.33348e-06,-2.08644e-06,8
-2.24186e-05,4.6256e-05,-1.45209e-05,-2.31387e-05,1.65875e-05,-7.03433e-06,1.00959e-05,1.95084e-06,8
-1.88752e-05,3.23549e-05,-2.16207e-05,-2.22548e-05,7.85282e-06,-4.98906e-06,9.33555e-06,4.42672e-06,8
