ch1,ch2,ch3,ch4,ch5,ch6,ch7,ch8,class
-2.77594e-05,1.23239e-05,-8.35952e-06,-9.96303e-06,2.40959e-05,-1.21882e-05,-3.19809e-05,5.34268e-07,6
-2.9557e-05,1.23303e-05,-8.6359e-06,-1.11668e-05,2.12559e-05,4.41576e-05,-9.65379e-06,-2.27998e-07,6
-3.23118e-05,1.10914e-05,-1.23747e-05,-1.41327e-05,1.33536e-05,6.25274e-05,-8.94901e-07,-4.55661e-06,6
-3.54794e-05,9.08657e-06,-1.65631e-05,-1.6826e-05,2.3617e-06,3.88907e-05,-4.4e-06,-6.86804e-06,6
-3.458e-05,9.1492e-06,-1.74374e-05,-1.74157e-05,-2.3208e-06,1.67212e-05,-7.81358e-06,-4.71122e-06,6
-3.13063e-05,1.01505e-05,-1.49366e-05,-1.57132e-05,-3.56915e-07,3.6982e-06,-4.60431e-06,-1.11729e-06,6
-3.02936e-05,1.10833e-05,-1.18305e-05,-1.42955e-05,3.87755e-06,-1.71208e-05,7.27163e-06,-2.03643e-06,6
-3.32715e-05,1.12416e-05,-9.71354e-06,-1.36761e-05,6.74012e-06,-6.66193e-05,1.95279e-05,-6.24644e-06,6
-3.92832e-05,1.18142e-05,-7.38605e-06,-1.2285e-05,5.86228e-06,-0.000121381,3.43078e-05,-9.57759e-06,6
-4.42769e-05,1.41438e-05,-4.45652e-06,-8.53952e-06,9.00536e-07,-0.000137704,5.05962e-05,-8.55833e-06,6
-4.72562e-05,1.67889e-05,-3.68644e-06,-6.49876e-06,-4.89138e-06,-0.00012808,4.73191e-05,-7.4648e-06,6
-4.90713e-05,1.69207e-05,-5.93143e-06,-7.95422e-06,-8.40015e-06,-0.000155336,1.0187e-05,-1.12342e-05,6
-4.57782e-05,1.43786e-05,-8.88297e-06,-1.02496e-05,-6.35341e-06,-0.000212332,-3.66485e-05,-1.76294e-05,6
-3.50201e-05,1.17837e-05,-1.00769e-05,-1.06684e-05,7.07491e-07,-0.000245063,-6.39098e-05,-2.26884e-05,6
-2.56636e-05,1.09482e-05,-9.13863e-06,-9.59881e-06,7.32641e-06,-0.000251294,-8.17835e-05,-2.13473e-05,6
-2.24758e-05,1.2308e-05,-6.94239e-06,-7.72889e-06,1.08814e-05,-0.00026819,-0.000101927,-9.52568e-06,6
-2.07223e-05,1.35752e-05,-4.95019e-06,-5.17055e-06,1.07578e-05,-0.000273421,-9.30533e-05,9.50847e-06,6
-1.6382e-05,1.25559e-05,-4.835e-06,-4.61058e-06,7.45897e-06,-0.000179931,-3.57634e-05,2.74779e-05,6
-1.21223e-05,8.77614e-06,-6.94351e-06,-6.39869e-06,2.83937e-06,4.14084e-06,2.93726e-05,3.90403e-05,6
-1.21172e-05,5.65404e-06,-8.80419e-06,-9.2909e-06,-3.83139e-07,0.000129566,5.58699e-05,3.4956e-05,6
-1.75838e-05,4.88147e-06,-8.61783e-06,-9.81637e-06,-3.12459e-06,0.000123325,4.75661e-05,1.73908e-05,6
-2.52946e-05,6.02028e-06,-7.23089e-06,-6.30305e-06,-4.55632e-06,0.000107999,2.86452e-05,1.5885e-06,6
-3.2637e-05,6.77652e-06,-6.91285e-06,-3.98978e-06,-5.09657e-06,0.000216695,1.73594e-05,-5.80928e-06,6
-3.86403e-05,5.78184e-06,-8.54637e-06,-6.9826e-06,-9.36389e-06,0.00040594,3.33405e-05,-9.11701e-06,6
-4.39638e-05,4.2378e-06,-1.2049e-05,-1.05526e-05,-2.01705e-05,0.000488522,5.32659e-05,-1.35987e-05,6
-4.7912e-05,1.80935e-06,-1.45086e-05,-9.75504e-06,-3.18687e-05,0.000373396,5.20973e-05,-1.7499e-05,6
-4.88259e-05,9.71513e-07,-1.34907e-05,-6.44111e-06,-3.49179e-05,0.000150232,4.12451e-05,-1.81731e-05,6
-4.87222e-05,4.61489e-06,-9.65543e-06,-2.4638e-06,-2.50106e-05,-8.2354e-05,2.30358e-05,-1.59045e-05,6
-4.17959e-05,1.16017e-05,-5.56438e-06,3.11586e-06,1.87551e-06,-0.000197794,2.4763e-05,-5.3338e-06,6
-2.82865e-05,1.83417e-05,-2.51576e-06,7.67934e-06,4.42285e-05,-0.000162315,7.3472e-05,1.41986e-05,6
-2.3253e-05,2.02111e-05,-1.07597e-06,8.25996e-06,8.40654e-05,-9.094e-05,0.000123869,2.71083e-05,6
-2.97445e-05,1.73137e-05,-3.6442e-06,1.83941e-06,9.71355e-05,-3.693e-05,0.000112881,2.21274e-05,6
-3.64238e-05,1.21233e-05,-8.44028e-06,-7.18186e-06,7.99201e-05,-4.7899e-05,5.48255e-05,7.1354e-06,6
-3.21768e-05,8.92927e-06,-1.1419e-05,-1.22651e-05,5.54909e-05,-8.47394e-05,2.60484e-06,-5.94114e-06,6
-2.01693e-05,1.01863e-05,-1.01441e-05,-1.23081e-05,4.63767e-05,-9.9346e-05,-4.568e-05,-1.31097e-05,6
-1.30318e-05,1.38431e-05,-6.82087e-06,-8.80353e-06,4.87037e-05,-8.24247e-05,-8.63378e-05,-1.34912e-05,6
-1.41451e-05,1.82312e-05,-4.73383e-06,-5.1697e-06,4.60372e-05,-3.38068e-05,-8.80374e-05,-5.12808e-06,6
-2.29854e-05,2.03406e-05,-5.51987e-06,-4.0209e-06,3.49184e-05,1.36274e-05,-5.20725e-05,4.26951e-06,6
-3.55469e-05,2.02372e-05,-7.29872e-06,-6.51184e-06,1.92476e-05,3.86898e-05,-7.01945e-07,6.8096e-06,6
-3.8656e-05,2.0181e-05,-7.98226e-06,-8.33738e-06,2.50677e-06,3.46587e-05,5.04782e-05,7.66567e-06,6
-7.75764e-06,2.05032e-05,-7.25199e-06,-7.88021e-06,-1.0934e-05,1.54268e-05,8.12316e-05,1.26089e-05,6
5.61585e-05,1.97935e-05,-6.85346e-06,-6.22598e-06,-1.52442e-05,-1.1586e-05,7.34075e-05,1.96238e-05,6
9.67538e-05,1.80145e-05,-7.94005e-06,-4.99324e-06,-9.07345e-06,-3.07405e-05,3.74673e-05,1.94546e-05,6
6.74178e-05,1.54788e-05,-8.15615e-06,-4.75828e-06,2.99223e-06,-3.31209e-05,6.4201e-06,1.16714e-05,6
-8.62512e-06,1.30944e-05,-6.4414e-06,-4.9077e-06,1.64964e-05,-4.56874e-06,7.08674e-06,6.09332e-06,6
-7.53351e-05,1.15945e-05,-5.12256e-06,-4.22932e-06,2.77781e-05,3.29252e-05,2.81206e-05,5.24784e-06,6
-0.000104139,1.09497e-05,-6.42607e-06,-3.5868e-06,3.1712e-05,5.44315e-05,4.12143e-05,2.46229e-06,6
-0.000102065,1.11027e-05,-8.07518e-06,-4.24113e-06,2.59408e-05,5.70756e-05,3.88877e-05,-3.3064e-06,6
-9.32975e-05,1.1053e-05,-7.59775e-06,-5.37529e-06,1.6206e-05,5.3508e-05,3.30942e-05,-6.49745e-06,6
-9.64049e-05,9.85604e-06,-6.01263e-06,-4.83167e-06,9.35987e-06,5.1158e-05,3.17407e-05,-5.1842e-06,6
-0.00010892,6.81155e-06,-6.69253e-06,-3.11432e-06,8.19169e-06,5.34329e-05,3.54825e-05,-3.75615e-06,6
-0.000110692,3.85983e-06,-8.58965e-06,-3.39788e-06,1.10208e-05,2.88191e-05,4.04029e-05,-6.36005e-06,6
-8.76535e-05,3.59159e-06,-9.40569e-06,-3.29798e-06,1.28278e-05,-6.86748e-05,4.08952e-05,-9.23864e-06,6
-5.5371e-05,6.30258e-06,-8.65649e-06,-2.80357e-06,1.07708e-05,-0.000165346,3.5798e-05,-8.19589e-06,6
-3.49328e-05,9.9137e-06,-9.56911e-06,-2.48214e-06,6.14782e-06,-0.000173867,2.38341e-05,-5.45015e-06,6
-2.96136e-05,1.22144e-05,-1.17556e-05,-1.71957e-06,3.47265e-06,-0.000131181,7.09204e-06,-4.08667e-06,6
-3.15704e-05,1.40249e-05,-1.08326e-05,-1.54e-06,4.39043e-06,-0.000119035,-1.45384e-05,-3.26014e-06,6
-3.24854e-05,1.66824e-05,-6.77792e-06,-1.5026e-06,5.91866e-06,-0.000186231,-4.75799e-05,-4.97388e-06,6
-3.0331e-05,1.87438e-05,-3.61139e-06,-2.33186e-07,9.44426e-06,-0.000242956,-7.44318e-05,-8.72009e-06,6
-2.73e-05,1.88453e-05,-3.66374e-06,6.28967e-07,1.27718e-05,-0.000163465,-6.33527e-05,-8.66413e-06,6
-2.65677e-05,1.60013e-05,-5.59616e-06,-2.17089e-06,1.16194e-05,2.88497e-05,-2.29618e-05,-6.26821e-06,6
-2.73413e-05,1.13277e-05,-8.84431e-06,-5.96178e-06,5.0057e-06,0.000217443,1.47451e-05,-4.57875e-06,6
-2.57127e-05,7.51785e-06,-1.06364e-05,-7.66053e-06,-2.76079e-06,0.000317758,4.06152e-05,-4.46721e-06,6
-1.53031e-05,6.14349e-06,-9.42652e-06,-6.87969e-06,-5.31186e-06,0.000308525,5.23939e-05,-4.11085e-06,6
3.73625e-07,7.29364e-06,-6.85536e-06,-4.16714e-06,-2.50865e-06,0.000224006,5.2472e-05,2.76143e-06,6
1.05518e-05,9.37139e-06,-4.97367e-06,-1.51552e-06,2.05513e-06,0.000120334,4.4369e-05,1.55842e-05,6
9.03404e-06,1.11996e-05,-4.18284e-06,-6.48189e-07,5.51178e-06,2.59215e-05,2.99831e-05,2.20726e-05,6
-4.24577e-06,1.21909e-05,-4.20272e-06,-1.55704e-06,7.62592e-06,-3.15329e-05,1.50498e-05,1.57707e-05,6
-2.10749e-05,1.23226e-05,-4.45865e-06,-3.53992e-06,6.22106e-06,-5.01916e-05,2.48563e-06,3.9938e-06,6
-3.20117e-05,1.23042e-05,-4.84712e-06,-6.01576e-06,2.4732e-06,-4.96637e-05,-4.94862e-06,-2.96228e-06,6
-3.68472e-05,1.29205e-05,-4.5552e-06,-7.7189e-06,-4.56405e-07,-5.30559e-05,-9.35754e-06,-3.28758e-07,6
-4.60819e-05,1.344e-05,-3.78716e-06,-7.83494e-06,-2.13657e-06,-5.75338e-05,-1.36943e-05,7.81796e-06,6
-6.06645e-05,1.41349e-05,-4.07324e-06,-6.5874e-06,-4.21609e-06,-5.99303e-05,-1.59165e-05,1.40921e-05,6
-6.62852e-05,1.45688e-05,-5.74849e-06,-5.37955e-06,-6.57411e-06,-6.56632e-05,-1.21972e-05,1.46933e-05,6
-5.36425e-05,1.41867e-05,-7.18961e-06,-4.34732e-06,-8.54076e-06,-7.77241e-05,-5.7596e-06,1.28391e-05,6
-3.36359e-05,1.40029e-05,-7.38103e-06,-2.82397e-06,-8.63246e-06,-7.7854e-05,8.52445e-06,1.22591e-05,6
-2.29788e-05,1.42756e-05,-6.18092e-06,-1.93664e-06,-5.2595e-06,-5.61099e-05,3.44423e-05,6.65694e-06,6
-2.94104e-05,1.55847e-05,-4.47873e-06,-2.68427e-06,-1.11478e-06,-3.21352e-05,5.47027e-05,-1.82122e-05,6
-4.53475e-05,1.65996e-05,-3.92682e-06,-4.26047e-06,2.58387e-06,-2.17858e-05,5.3044e-05,-5.38878e-05,6
-5.38244e-05,1.65502e-05,-3.64803e-06,-4.03672e-06,6.81772e-06,-1.6977e-05,3.81341e-05,-6.92046e-05,6
-5.02163e-05,1.54795e-05,-1.64409e-06,-2.3836e-06,1.17063e-05,-8.24572e-06,2.16827e-05,-5.90115e-05,6
-4.15402e-05,1.41528e-05,1.52514e-07,-2.72451e-06,1.82924e-05,-2.37986e-06,7.1075e-06,-4.65063e-05,6
-3.46132e-05,1.30015e-05,-2.08471e-06,-4.01714e-06,2.57389e-05,8.09235e-06,7.51771e-06,-4.13203e-05,6
-2.78827e-05,1.17253e-05,-5.0631e-06,-4.15801e-06,3.2237e-05,2.54051e-05,2.50163e-05,-3.37094e-05,6
-1.65701e-05,1.15482e-05,-6.29826e-06,-3.09429e-06,3.60352e-05,3.49009e-05,4.75913e-05,-1.37877e-05,6
-4.96677e-06,1.37071e-05,-5.7799e-06,-2.664e-06,3.54765e-05,4.14762e-05,6.7694e-05,2.13744e-05,6
7.54618e-07,1.66568e-05,-3.78714e-06,-1.73217e-06,3.33965e-05,4.8522e-05,6.82531e-05,4.97816e-05,6
-2.23537e-07,1.73128e-05,-2.34639e-06,-9.99286e-07,3.01838e-05,3.03283e-05,3.72376e-05,5.53249e-05,6
-4.31404e-06,1.61483e-05,-3.73951e-06,-2.83512e-06,2.48131e-05,-8.11345e-06,-9.97063e-06,5.10674e-05,6
-8.46741e-06,1.46826e-05,-5.31817e-06,-4.40997e-06,1.95711e-05,-3.75749e-05,-4.31357e-05,4.0121e-05,6
-1.36642e-05,1.46329e-05,-4.91622e-06,-3.25151e-06,1.80977e-05,-3.34653e-05,-4.28916e-05,2.51792e-05,6
-1.91466e-05,1.56591e-05,-4.90633e-06,-6.83778e-07,2.12915e-05,-5.16305e-06,-1.79042e-05,1.25868e-05,6
-2.39685e-05,1.63632e-05,-5.35098e-06,6.06937e-07,2.56076e-05,2.35087e-05,3.5443e-06,4.50268e-06,6
-2.72856e-05,1.59272e-05,-6.62439e-06,2.12995e-06,2.81132e-05,4.47611e-05,9.93195e-06,-4.15841e-07,6
-2.89195e-05,1.48344e-05,-8.85752e-06,3.51657e-06,2.86128e-05,5.72879e-05,1.48325e-05,-2.55745e-06,6
-2.93079e-05,1.39015e-05,-1.03679e-05,3.24381e-06,2.74577e-05,4.75285e-05,2.58838e-05,8.63385e-07,6
-2.81888e-05,1.30133e-05,-1.03825e-05,1.64261e-06,2.70812e-05,1.32972e-05,3.49803e-05,6.92063e-06,6
-2.67718e-05,1.31768e-05,-9.6554e-06,1.16399e-06,2.95274e-05,-2.48695e-05,3.65909e-05,1.14069e-05,6
-2.53395e-05,1.48133e-05,-8.41345e-06,2.21651e-06,3.37588e-05,-5.13735e-05,3.70672e-05,1.38252e-05,6
-2.36202e-05,1.62712e-05,-7.68607e-06,2.67189e-06,3.61665e-05,-5.89497e-05,3.5136e-05,1.62416e-05,6
-2.29169e-05,1.52063e-05,-8.03125e-06,8.82723e-07,3.35418e-05,-3.24624e-05,2.61017e-05,1.62306e-05,6
-2.57136e-05,1.21502e-05,-9.05869e-06,-2.31095e-06,2.7281e-05,2.5225e-05,4.02433e-06,1.18998e-05,6
-3.21196e-05,9.49455e-06,-1.05945e-05,-4.61597e-06,2.11986e-05,6.2891e-05,-2.88378e-05,4.26246e-06,6
-3.75169e-05,9.29907e-06,-1.19868e-05,-5.24223e-06,1.85082e-05,3.86122e-05,-5.0974e-05,-4.62851e-06,6
-3.23516e-05,1.03246e-05,-1.09745e-05,-4.91621e-06,1.77466e-05,-2.37389e-05,-4.25042e-05,-1.29513e-05,6
4.90645e-06,1.15264e-05,-8.50312e-06,-5.38285e-06,1.67042e-05,-6.75411e-05,-1.01875e-05,-1.29251e-05,6
7.90052e-05,1.37316e-05,-7.5279e-06,-4.68356e-06,1.64205e-05,-9.20984e-05,3.48446e-05,-1.14035e-06,6
0.000138703,1.52834e-05,-7.57108e-06,-3.66605e-06,1.49909e-05,-0.000123912,7.65992e-05,1.11846e-05,6
0.000132307,1.43141e-05,-7.54186e-06,-3.84784e-06,1.18303e-05,-0.000171555,7.48462e-05,1.85358e-05,6
5.97623e-05,1.116e-05,-8.87509e-06,-4.92643e-06,1.00631e-05,-0.000213911,3.92266e-05,2.12226e-05,6
-3.40627e-05,7.70534e-06,-1.07243e-05,-7.77753e-06,8.31811e-06,-0.000216141,9.32117e-06,1.32814e-05,6
-9.92523e-05,6.70032e-06,-1.14233e-05,-1.04789e-05,7.69107e-06,-0.00017015,-4.16484e-06,-1.64709e-06,6
-0.000125224,7.36622e-06,-1.07031e-05,-9.69929e-06,1.03732e-05,-8.22087e-05,7.68626e-06,-1.26134e-05,6
-0.00013438,6.24082e-06,-9.61981e-06,-7.3794e-06,1.43537e-05,2.00142e-06,3.18161e-05,-1.77182e-05,6
-0.000160255,4.39293e-06,-9.00461e-06,-7.72582e-06,1.7307e-05,4.92644e-05,4.47561e-05,-2.09591e-05,6
-0.000203473,4.66626e-06,-7.01506e-06,-7.62553e-06,1.85803e-05,9.23694e-05,4.24998e-05,-2.24131e-05,6
-0.000210783,5.17766e-06,-4.23411e-06,-5.34931e-06,2.07465e-05,0.000121811,1.87066e-05,-1.86808e-05,6
-0.000137003,6.80876e-06,-2.37216e-06,-4.35754e-06,2.31971e-05,0.000110321,-2.47335e-05,-1.36176e-06,6
-3.08097e-05,1.12952e-05,-2.66829e-06,-5.40222e-06,2.22643e-05,6.79492e-05,-5.46563e-05,2.07204e-05,6
2.68421e-05,1.59012e-05,-3.09088e-06,-7.3949e-06,1.83101e-05,-5.114e-07,-4.22629e-05,3.04611e-05,6
2.19591e-05,1.6856e-05,-4.09985e-06,-9.98005e-06,1.49483e-05,-5.06623e-05,7.61233e-07,2.74884e-05,6
-5.28793e-06,1.27927e-05,-6.91575e-06,-1.31963e-05,1.44805e-05,-6.65753e-05,1.98351e-05,9.50044e-06,6
-2.07658e-05,8.14166e-06,-1.00854e-05,-1.42474e-05,1.78466e-05,-8.9777e-05,-2.73877e-05,-1.44916e-05,6
-2.25628e-05,6.44971e-06,-1.11042e-05,-1.11994e-05,2.50501e-05,-0.000119149,-0.000106029,-2.70803e-05,6
-2.00007e-05,7.63679e-06,-9.04892e-06,-5.38168e-06,3.32456e-05,-0.000101364,-0.000138113,-2.28926e-05,6
-1.96414e-05,9.64446e-06,-6.09961e-06,-7.67417e-07,3.62986e-05,-3.86981e-05,-0.000112279,-1.25244e-05,6
-2.13521e-05,1.06523e-05,-5.38402e-06,-1.27317e-06,2.96342e-05,-8.33847e-06,-8.68468e-05,-7.51691e-06,6
-2.47225e-05,1.02829e-05,-8.02557e-06,-5.34022e-06,1.68301e-05,-8.44094e-06,-5.96156e-05,-7.18306e-06,6
-2.58791e-05,1.10919e-05,-9.46521e-06,-6.94766e-06,7.67943e-06,6.17063e-05,1.60145e-05,-2.39261e-06,6
-2.35838e-05,1.30922e-05,-8.04334e-06,-4.7431e-06,4.62427e-06,0.000185202,0.000110364,7.8942e-06,6
-2.03861e-05,1.1961e-05,-7.66588e-06,-4.36974e-06,-1.88164e-08,0.000208112,0.000157813,1.58674e-05,6
-1.82594e-05,9.87663e-06,-9.34024e-06,-6.31524e-06,-6.74233e-06,0.000117904,0.000153423,1.76086e-05,6
-1.64279e-05,9.85557e-06,-1.07735e-05,-5.97145e-06,-1.0284e-05,1.86184e-05,0.000120155,1.43745e-05,6
-1.65637e-05,9.36968e-06,-1.12148e-05,-4.67405e-06,-9.42533e-06,-4.40777e-05,7.88813e-05,9.48294e-06,6
-1.81598e-05,9.70871e-06,-1.15675e-05,-6.20592e-06,-6.99364e-06,-7.19891e-05,4.81424e-05,6.03743e-06,6
-1.96253e-05,1.02018e-05,-1.31201e-05,-7.91095e-06,-7.87899e-06,-5.60993e-05,3.31532e-05,4.38508e-06,6
-2.18045e-05,9.69972e-06,-1.21952e-05,-6.29728e-06,-1.2059e-05,1.17031e-05,3.2471e-05,3.24686e-06,6
-2.60124e-05,1.07894e-05,-6.76056e-06,-4.08684e-06,-1.63126e-05,9.59313e-05,3.27688e-05,1.91954e-06,6
-3.11339e-05,1.30327e-05,-2.82944e-06,-2.97583e-06,-1.74085e-05,0.000155533,1.69928e-05,-1.56227e-07,6
-3.43404e-05,1.40058e-05,-3.05315e-06,-3.62964e-06,-1.45924e-05,0.000162901,-9.74052e-06,-1.72508e-06,6
-3.63528e-05,1.13751e-05,-4.32554e-06,-4.98294e-06,-7.32434e-06,0.000101416,-2.6105e-05,-1.6351e-06,6
-3.65613e-05,7.44935e-06,-6.89662e-06,-4.61337e-06,9.15227e-08,-5.54251e-06,-2.26932e-05,1.75478e-07,6
-3.51764e-05,5.79558e-06,-9.65493e-06,-4.36505e-06,2.26878e-06,-0.000112496,-1.35567e-05,2.66135e-07,6
-3.28623e-05,7.78158e-06,-1.04219e-05,-3.58e-06,4.27032e-06,-0.000174501,-1.04666e-05,-1.20187e-06,6
-3.07581e-05,9.91183e-06,-1.02939e-05,-3.43293e-06,6.6805e-06,-0.000162558,-5.79504e-06,-5.25902e-06,6
-3.00883e-05,8.62334e-06,-1.06007e-05,-5.37939e-06,6.48059e-06,-8.82944e-05,3.36686e-06,-1.0566e-05,6
-3.07552e-05,7.19355e-06,-1.00175e-05,-7.15413e-06,6.27057e-06,-4.241e-06,1.7418e-05,-1.07078e-05,6
-3.01101e-05,9.20896e-06,-7.98286e-06,-6.39354e-06,9.0957e-06,3.83064e-05,3.83769e-05,-4.66064e-06,6
-2.70772e-05,1.3412e-05,-4.88174e-06,-3.49497e-06,1.35178e-05,3.94713e-05,6.7827e-05,3.74458e-06,6
-2.33242e-05,1.59051e-05,-1.47436e-06,-5.15317e-07,1.55019e-05,4.31112e-05,9.06845e-05,1.05063e-05,6
-2.25928e-05,1.50087e-05,-9.89207e-07,-7.07211e-07,1.19102e-05,5.58228e-05,7.50041e-05,1.09961e-05,6
-2.48353e-05,1.2885e-05,-4.01881e-06,-4.73939e-06,4.13045e-06,2.94867e-05,2.52579e-05,4.84038e-06,6
-2.62926e-05,1.14196e-05,-7.13165e-06,-8.37126e-06,-1.92363e-06,-4.00903e-05,-3.0378e-05,-1.22823e-06,6
-3.01065e-05,9.60653e-06,-8.36932e-06,-9.44163e-06,-4.23591e-06,-9.98871e-05,-8.8332e-05,-4.92539e-06,6
-4.83855e-05,7.26967e-06,-1.04268e-05,-9.59275e-06,-4.46685e-06,-0.000114863,-0.00013617,-8.97643e-06,6
-7.91542e-05,6.06218e-06,-1.28604e-05,-9.03036e-06,-3.50511e-06,-9.07095e-05,-0.000137186,-1.28893e-05,6
-0.00010183,6.80712e-06,-1.216e-05,-6.09437e-06,-3.66891e-07,-4.92576e-05,-8.38108e-05,-1.26672e-05,6
-0.000107117,8.94998e-06,-7.6282e-06,-2.88808e-06,3.84989e-06,-1.58454e-05,-9.98335e-07,-6.46174e-06,6
-9.94559e-05,1.19467e-05,-4.57977e-06,-1.72721e-06,6.99173e-06,-2.83797e-06,8.10312e-05,1.85687e-06,6
-8.15411e-05,1.35866e-05,-6.74582e-06,-3.57362e-06,7.47685e-06,-2.23856e-05,0.000130435,4.66991e-06,6
-4.10285e-05,1.30075e-05,-1.1307e-05,-6.71123e-06,5.06729e-06,-7.44414e-05,0.000121923,2.70048e-06,6
4.76897e-05,1.31506e-05,-1.35951e-05,-8.80632e-06,3.65818e-06,-0.000122651,8.08045e-05,2.21747e-06,6
0.000198573,1.66319e-05,-1.23655e-05,-9.51832e-06,4.95316e-06,-0.000125612,4.9795e-05,3.68779e-06,6
0.000317452,2.0969e-05,-9.23023e-06,-9.99855e-06,7.50677e-06,-8.90242e-05,3.49651e-05,3.99867e-06,6
0.000268083,2.17133e-05,-6.5457e-06,-9.98775e-06,1.17718e-05,-4.07028e-05,2.82435e-05,9.68464e-07,6
8.93311e-05,1.81688e-05,-5.88319e-06,-9.23712e-06,1.98687e-05,1.69722e-05,2.34601e-05,-3.24359e-06,6
-6.40847e-05,1.44075e-05,-5.43664e-06,-6.57457e-06,2.90849e-05,5.37522e-05,1.75645e-05,-5.83036e-06,6
-0.000116761,1.49763e-05,-4.67231e-06,-3.44079e-06,3.32561e-05,3.55123e-05,4.95235e-06,-7.92139e-06,6
-0.00011703,1.62998e-05,-5.28138e-06,-3.08205e-06,3.06918e-05,-7.96348e-06,-6.72262e-07,-7.61252e-06,6
-0.000125203,1.43728e-05,-6.90789e-06,-3.60915e-06,2.42865e-05,-7.41642e-05,-3.72853e-06,-2.71799e-06,6
-0.000154678,8.68423e-06,-8.07632e-06,-4.84932e-06,1.95049e-05,-0.00015586,-1.45527e-05,2.69156e-06,6
-0.000175916,2.2044e-06,-8.86016e-06,-6.15045e-06,2.04901e-05,-0.000168622,-1.72141e-05,4.13099e-06,6
-0.000154515,-1.94183e-06,-9.42195e-06,-5.92889e-06,2.53943e-05,-5.38416e-05,-7.56385e-07,1.29614e-06,6
-0.00010033,-2.16974e-06,-8.75573e-06,-4.30252e-06,2.95195e-05,0.00014908,2.99411e-05,-3.00194e-06,6
-5.12558e-05,9.56081e-07,-7.48629e-06,-3.02012e-06,3.1522e-05,0.000316008,6.39611e-05,-7.56838e-06,6
-3.17492e-05,3.69727e-06,-7.9902e-06,-4.00054e-06,3.03496e-05,0.000342785,9.06675e-05,-9.90394e-06,6
-3.19565e-05,4.44156e-06,-9.38486e-06,-5.82414e-06,2.54546e-05,0.000237045,0.000100854,-4.65057e-06,6
-3.43007e-05,5.0149e-06,-8.06155e-06,-5.36328e-06,2.1678e-05,9.65088e-05,9.85086e-05,6.50419e-06,6
-3.0417e-05,7.76963e-06,-4.01708e-06,-3.17014e-06,2.2531e-05,-7.41511e-06,7.05653e-05,1.56661e-05,6
-2.65331e-05,1.02094e-05,-3.02895e-06,-3.33795e-06,2.21348e-05,-7.64665e-05,-3.08724e-06,1.73033e-05,6
-2.76268e-05,9.18711e-06,-8.35739e-06,-7.17607e-06,1.53022e-05,-0.00012664,-9.20375e-05,9.66299e-06,6
-3.39797e-05,5.92901e-06,-1.56765e-05,-1.14208e-05,5.91268e-06,-0.000150458,-0.000127924,-3.01372e-06,6
-3.98e-05,5.72197e-06,-1.89789e-05,-1.27253e-05,3.65355e-07,-0.000141917,-9.54535e-05,-1.07917e-05,6
-4.36819e-05,8.38607e-06,-1.75563e-05,-1.08104e-05,2.11426e-06,-0.000114323,-4.25272e-05,-1.06396e-05,6
-4.70075e-05,1.01279e-05,-1.56432e-05,-8.90738e-06,8.39125e-06,-9.02927e-05,-1.89928e-05,-6.88393e-06,6
-4.90273e-05,9.91466e-06,-1.48424e-05,-9.06557e-06,1.26369e-05,-7.09615e-05,-2.78396e-05,-3.65319e-06,6
-4.87776e-05,9.30756e-06,-1.34381e-05,-1.03814e-05,1.31365e-05,-1.78564e-05,-3.68619e-05,-8.46507e-06,6
-4.30568e-05,9.95434e-06,-1.34014e-05,-1.19676e-05,1.42387e-05,6.1805e-05,-2.71743e-05,-1.96483e-05,6
-2.86252e-05,1.22433e-05,-1.34573e-05,-1.01044e-05,1.78624e-05,8.99875e-05,-1.87155e-06,-2.53216e-05,6
-1.38991e-05,1.39619e-05,-1.06412e-05,-4.48719e-06,2.27479e-05,1.50417e-05,2.72717e-05,-2.31774e-05,6
-1.09663e-05,1.50929e-05,-5.96749e-06,6.56577e-08,2.74823e-05,-9.51332e-05,5.19362e-05,-9.87514e-06,6
-1.47168e-05,1.75626e-05,-1.73501e-06,2.72469e-06,3.18492e-05,-0.000119743,6.77506e-05,1.26581e-05,6
-1.4858e-05,1.7978e-05,-1.25981e-06,3.60584e-06,3.06597e-05,-5.11938e-05,6.20708e-05,3.07294e-05,6
-1.05574e-05,1.68445e-05,-2.14041e-06,2.03169e-06,1.96432e-05,-3.19292e-06,3.74487e-05,4.62494e-05,6
-8.28021e-06,1.70519e-05,-2.12019e-06,-1.06868e-06,7.24082e-06,-4.5017e-05,1.68098e-05,5.06621e-05,6
-1.23789e-05,1.75672e-05,-3.71598e-06,-3.35144e-06,-8.10526e-08,-0.000101614,6.33389e-06,3.45404e-05,6
-1.90583e-05,1.69908e-05,-6.29381e-06,-2.73335e-06,-3.43249e-07,-0.000109453,6.18312e-06,1.57992e-05,6
-2.32232e-05,1.65735e-05,-6.69297e-06,-1.94457e-07,4.16362e-06,-9.23758e-05,7.96522e-06,5.99708e-06,6
-2.48004e-05,1.77455e-05,-4.66419e-06,1.64746e-06,9.12005e-06,-7.13378e-05,6.20083e-06,2.77494e-06,6
-2.38068e-05,1.93666e-05,-3.14598e-06,9.36226e-07,1.40263e-05,-1.79971e-06,9.06854e-06,9.87158e-07,6
-2.18142e-05,2.00534e-05,-4.48634e-06,-9.79458e-07,1.82653e-05,0.000124078,2.26932e-05,9.30661e-07,6
-2.09422e-05,1.9461e-05,-8.82013e-06,-2.19113e-06,1.87277e-05,0.000206766,3.7673e-05,7.46483e-07,6
-2.32678e-05,1.82764e-05,-1.30356e-05,-1.90346e-06,1.49421e-05,0.00017817,4.1863e-05,-1.37184e-06,6
-2.644e-05,1.76019e-05,-1.37932e-05,-1.30613e-06,1.14754e-05,6.32806e-05,3.42762e-05,-2.25996e-06,6
-2.96407e-05,1.72974e-05,-1.15643e-05,-1.27809e-06,9.87687e-06,-7.01488e-05,1.91659e-05,7.7544e-08,6
-3.27123e-05,1.76682e-05,-9.67548e-06,-2.51232e-06,9.4834e-06,-0.000159094,1.88103e-06,2.23531e-06,6
-3.43987e-05,1.90738e-05,-1.00393e-05,-4.79185e-06,9.93613e-06,-0.000150401,-1.11228e-05,2.12419e-06,6
-3.31124e-05,2.06383e-05,-1.03761e-05,-5.63216e-06,1.25304e-05,-3.82769e-05,-1.62927e-05,1.78447e-06,6
-3.08772e-05,2.05527e-05,-8.62224e-06,-4.07373e-06,1.64838e-05,0.000109921,-2.03584e-05,-9.65138e-07,6
-3.00036e-05,1.87041e-05,-6.55814e-06,-9.93025e-07,2.07312e-05,0.000198723,-2.27441e-05,-6.72019e-06,6
-2.98815e-05,1.71103e-05,-5.81123e-06,1.75906e-06,2.50092e-05,0.000203038,-1.66798e-05,-1.17859e-05,6
-2.79302e-05,1.68088e-05,-4.04406e-06,3.02781e-06,2.74696e-05,0.000152286,3.25376e-08,-1.02076e-05,6
-2.53396e-05,1.77218e-05,-2.00458e-06,2.13175e-06,2.48974e-05,6.76199e-05,1.94447e-05,-4.30439e-06,6
-2.6029e-05,1.72627e-05,-4.55966e-06,4.52375e-07,1.7596e-05,-1.33691e-05,2.98122e-05,-1.50992e-06,6
-2.93044e-05,1.46683e-05,-1.01646e-05,-2.51213e-06,8.93742e-06,-6.56622e-05,3.17008e-05,-2.95503e-06,6
-3.25672e-05,1.21622e-05,-1.19514e-05,-4.61668e-06,3.18443e-06,-0.000106429,3.26325e-05,-5.90154e-06,6
-3.32714e-05,1.21333e-05,-8.71856e-06,-2.00941e-06,4.66074e-06,-0.000116205,4.14242e-05,-6.73629e-06,6
-3.26801e-05,1.35665e-05,-5.19446e-06,2.57881e-06,9.06282e-06,-3.74075e-05,5.42788e-05,-5.20949e-06,6
-3.23644e-05,1.32062e-05,-4.34508e-06,3.00113e-06,9.56234e-06,5.2854e-05,4.57475e-05,-5.32789e-06,6
-3.2068e-05,1.33929e-05,-5.99645e-06,-2.44709e-07,7.53552e-06,3.48843e-05,8.91603e-06,-8.58862e-06,6
-3.21545e-05,1.44091e-05,-8.37602e-06,-1.88896e-06,7.17792e-06,-4.16645e-05,-3.36561e-05,-1.40999e-05,6
-3.39593e-05,1.36033e-05,-9.86462e-06,-3.54984e-06,8.81259e-06,-8.25727e-05,-5.75696e-05,-1.8616e-05,6
-3.59527e-05,1.13706e-05,-1.00778e-05,-6.05385e-06,1.11201e-05,-7.99773e-05,-5.53907e-05,-1.95087e-05,6
-3.6659e-05,9.77211e-06,-9.33513e-06,-8.57235e-06,1.39093e-05,-7.96745e-05,-3.35667e-05,-1.69882e-05,6
-3.58682e-05,9.31031e-06,-8.7671e-06,-9.97141e-06,2.04599e-05,-7.53816e-05,-3.03379e-06,-1.08292e-05,6
-3.37523e-05,9.94161e-06,-8.18236e-06,-9.18248e-06,2.81256e-05,-4.95439e-05,2.74537e-05,-1.81958e-06,6
-3.01549e-05,1.17623e-05,-7.18095e-06,-8.12877e-06,3.09064e-05,-4.54905e-05,4.71594e-05,5.3582e-06,6
-2.759e-05,1.3645e-05,-5.64198e-06,-6.80914e-06,2.77779e-05,-7.17236e-05,4.96734e-05,6.98398e-06,6
-2.71975e-05,1.47827e-05,-4.22613e-06,-5.41294e-06,2.18777e-05,-5.16062e-05,4.71628e-05,5.29226e-06,6
-2.66998e-05,1.49164e-05,-3.92269e-06,-4.30369e-06,1.64113e-05,5.74539e-05,4.56172e-05,4.05314e-06,6
-2.58236e-05,1.41004e-05,-4.17213e-06,-3.80278e-06,1.13098e-05,0.000152523,1.99478e-05,1.30334e-06,6
-2.71652e-05,1.12797e-05,-4.58401e-06,-4.9553e-06,7.23369e-06,0.000133299,-4.89244e-05,-6.72539e-06,6
-3.0811e-05,7.89915e-06,-5.53356e-06,-6.71371e-06,6.62282e-06,6.5865e-05,-0.000121353,-1.50198e-05,6
-3.24009e-05,6.33268e-06,-6.01714e-06,-7.13428e-06,1.16979e-05,9.5739e-05,-0.000135079,-1.51745e-05,6
-2.99975e-05,7.00592e-06,-5.0525e-06,-5.98705e-06,1.86034e-05,0.000219506,-7.596e-05,-7.51596e-06,6
-2.65905e-05,8.49449e-06,-4.97236e-06,-5.20646e-06,2.14572e-05,0.000265243,1.50202e-05,-2.77174e-07,6
-2.69326e-05,8.95408e-06,-7.15715e-06,-6.10137e-06,1.89841e-05,0.000142547,9.56612e-05,1.99286e-06,6
-3.36787e-05,8.08203e-06,-9.057e-06,-8.0304e-06,1.47172e-05,-3.93574e-05,0.000147169,2.78697e-06,6
-5.09394e-05,8.38017e-06,-8.4013e-06,-9.25797e-06,1.54416e-05,-0.000160789,0.000165456,6.36895e-06,6
-7.51082e-05,1.01309e-05,-6.886e-06,-7.86082e-06,2.21153e-05,-0.00019559,0.000150624,1.02833e-05,6
-8.78099e-05,1.02283e-05,-7.18662e-06,-5.89574e-06,2.42753e-05,-0.000168089,0.000110246,1.01776e-05,6
-7.99792e-05,7.77355e-06,-9.97566e-06,-7.93467e-06,1.34864e-05,-0.000115528,6.50691e-05,5.52237e-06,6
-6.13513e-05,5.28879e-06,-1.17939e-05,-1.14358e-05,-3.61307e-06,-7.0633e-05,3.33662e-05,1.06944e-06,6
-4.7442e-05,7.86597e-06,-9.93812e-06,-9.79165e-06,-1.64735e-05,-6.71072e-05,1.1169e-05,2.29297e-06,6
-5.15901e-05,1.42488e-05,-6.63765e-06,-5.62127e-06,-2.58764e-05,-9.457e-05,-3.38772e-07,1.067e-05,6
-6.05599e-05,1.74603e-05,-4.08906e-06,-4.50609e-06,-3.37214e-05,-0.000105564,-5.36121e-07,2.33082e-05,6
-2.71015e-05,1.65999e-05,-4.53127e-06,-5.33038e-06,-3.9555e-05,-9.05238e-05,3.39539e-08,3.70538e-05,6
4.60654e-05,1.62895e-05,-6.21965e-06,-6.64451e-06,-4.04378e-05,-6.42287e-05,4.96831e-06,4.82131e-05,6
8.98584e-05,1.64392e-05,-5.42676e-06,-8.37826e-06,-3.19429e-05,-4.11152e-05,1.09195e-05,5.17509e-05,6
7.4895e-05,1.35321e-05,-3.25795e-06,-8.86904e-06,-1.47773e-05,-1.89843e-05,1.60278e-05,4.87371e-05,6
3.25935e-05,1.03235e-05,-1.71261e-06,-8.65277e-06,4.84985e-06,6.19626e-06,1.86034e-05,4.73402e-05,6
2.86594e-07,9.50714e-06,-3.0911e-06,-8.7863e-06,1.70156e-05,2.67433e-05,1.95941e-05,4.48838e-05,6
-1.69152e-05,1.00017e-05,-5.94671e-06,-7.68275e-06,2.00308e-05,3.54024e-05,1.74108e-05,1.20639e-05,6
-2.8588e-05,1.11603e-05,-7.23512e-06,-6.06939e-06,1.83511e-05,1.95834e-05,1.25206e-05,-6.16199e-05,6
-3.56807e-05,1.06652e-05,-7.0511e-06,-5.44655e-06,1.78504e-05,1.55423e-06,2.08866e-05,-0.000122981,6
-3.57707e-05,8.13396e-06,-7.85892e-06,-6.45335e-06,1.97824e-05,-1.91738e-05,4.33478e-05,-0.000122875,6
-3.82443e-05,5.79296e-06,-1.04263e-05,-8.97137e-06,2.29164e-05,-6.62183e-05,5.66321e-05,-8.06331e-05,6
-5.26076e-05,4.8734e-06,-1.2591e-05,-1.24465e-05,2.70071e-05,-0.000105695,5.49801e-05,-4.07978e-05,6
-6.61149e-05,3.96609e-06,-1.28026e-05,-1.4878e-05,3.11629e-05,-9.21332e-05,5.32763e-05,-2.35566e-05,6
-6.28998e-05,3.87276e-06,-1.15496e-05,-1.34847e-05,3.45846e-05,-4.14442e-05,4.71705e-05,-1.93932e-05,6
-4.59414e-05,6.25971e-06,-1.04312e-05,-9.27574e-06,3.58152e-05,-1.91022e-05,1.15914e-05,-1.57291e-05,6
-3.05923e-05,9.68291e-06,-9.14658e-06,-5.20288e-06,3.32062e-05,-7.03694e-05,-5.52122e-05,-1.01189e-05,6
-2.37776e-05,1.23228e-05,-7.50126e-06,-2.07711e-06,2.61293e-05,-0.000146979,-0.000104478,-2.41179e-06,6
-2.46801e-05,1.38541e-05,-6.07446e-06,-3.6556e-07,1.54794e-05,-0.000158923,-0.000124658,3.5347e-06,6
-2.82578e-05,1.37222e-05,-6.95137e-06,-1.90166e-06,2.72746e-06,-9.64362e-05,-0.000143456,1.12468e-06,6
-3.06262e-05,1.14426e-05,-1.03137e-05,-5.73891e-06,-6.38085e-06,-1.43288e-05,-0.000148747,-7.29236e-06,6
-3.08128e-05,9.55302e-06,-1.2778e-05,-8.80991e-06,-8.80317e-06,8.28379e-05,-0.000126993,-1.07027e-05,6
-3.09945e-05,1.0613e-05,-1.22936e-05,-9.703e-06,-6.11394e-06,0.000183543,-9.84822e-05,-7.60716e-06,6
-3.29562e-05,1.1278e-05,-1.11934e-05,-1.0501e-05,-4.78702e-06,0.000180778,-6.43494e-05,-4.64599e-06,6
-3.52376e-05,8.54288e-06,-1.18798e-05,-1.22706e-05,-7.60676e-06,7.5586e-05,-7.19656e-06,-1.62501e-06,6
-3.58384e-05,5.91323e-06,-1.37513e-05,-1.43213e-05,-7.57749e-06,-1.47815e-05,5.54254e-05,4.38973e-06,6
-3.37049e-05,6.20245e-06,-1.38168e-05,-1.60108e-05,-1.39736e-06,-3.35057e-05,9.9064e-05,1.38774e-05,6
-3.30792e-05,1.03277e-05,-1.03925e-05,-1.47541e-05,6.6322e-06,-1.21771e-05,0.000139639,2.20287e-05,6
-4.10495e-05,1.45627e-05,-6.52831e-06,-1.15786e-05,1.31783e-05,-1.1981e-06,0.000161802,2.07906e-05,6
-5.51985e-05,1.57496e-05,-5.86602e-06,-8.87992e-06,1.82631e-05,4.52964e-06,0.000135293,1.14033e-05,6
-6.61239e-05,1.56212e-05,-6.4964e-06,-6.75303e-06,2.3247e-05,1.9978e-05,9.37657e-05,1.32188e-06,6
-6.65682e-05,1.5838e-05,-6.70582e-06,-4.97432e-06,3.07908e-05,5.84613e-05,6.6822e-05,-6.88059e-06,6
-5.45559e-05,1.61671e-05,-7.25274e-06,-3.77257e-06,3.68702e-05,8.96978e-05,5.64901e-05,-1.17423e-05,6
-3.55558e-05,1.59928e-05,-7.36431e-06,-4.11682e-06,3.80588e-05,8.91578e-05,5.14244e-05,-1.11552e-05,6
-1.79854e-05,1.5121e-05,-6.67172e-06,-5.39077e-06,3.58222e-05,6.78815e-05,4.40231e-05,-6.63134e-06,6
-8.00076e-06,1.50844e-05,-4.95e-06,-4.60521e-06,3.07709e-05,4.55504e-05,2.56028e-05,4.50463e-06,6
-7.66096e-06,1.51808e-05,-3.13107e-06,-2.12844e-06,2.39012e-05,1.81447e-05,-4.70901e-06,1.82368e-05,6
-1.39398e-05,1.25696e-05,-2.69807e-06,-1.97311e-06,1.67344e-05,-2.07558e-05,-2.56215e-05,2.78138e-05,6
-1.68758e-05,9.15135e-06,-5.13582e-06,-2.96918e-06,1.2397e-05,-3.79536e-05,-2.38965e-05,3.79495e-05,6
-1.4995e-05,7.54542e-06,-9.14712e-06,-3.07094e-06,1.20851e-05,-2.87627e-05,-8.79477e-06,4.56923e-05,6
-1.46279e-05,7.98392e-06,-1.22926e-05,-2.97654e-06,1.3643e-05,-2.56803e-05,1.74229e-06,3.96095e-05,6
-1.77838e-05,9.51631e-06,-1.33683e-05,-3.22648e-06,1.63174e-05,-4.60989e-05,3.33613e-06,2.51464e-05,6
-2.13051e-05,1.17154e-05,-1.3217e-05,-2.71003e-06,2.13725e-05,-4.3652e-05,4.62994e-06,1.6643e-05,6
-2.30647e-05,1.32791e-05,-1.25079e-05,-8.41731e-07,2.87727e-05,1.79528e-05,2.11022e-05,1.69778e-05,6
-2.42412e-05,1.40225e-05,-1.04146e-05,3.94021e-07,3.54766e-05,9.12202e-05,4.62482e-05,2.05187e-05,6
-2.6255e-05,1.41699e-05,-8.3372e-06,-1.29855e-07,3.47082e-05,8.77185e-05,5.59036e-05,2.05463e-05,6
-2.94273e-05,1.3085e-05,-8.34162e-06,-1.84935e-06,2.47216e-05,1.13137e-05,3.52024e-05,1.41746e-05,6
-3.25214e-05,1.16164e-05,-9.50039e-06,-4.01622e-06,1.3999e-05,-5.79631e-05,2.15655e-06,5.99379e-06,6
-3.45568e-05,1.14176e-05,-1.03822e-05,-5.11281e-06,1.05512e-05,-6.85017e-05,-1.38921e-05,2.027e-06,6
-3.53108e-05,1.2814e-05,-1.07296e-05,-4.39273e-06,1.31932e-05,-4.71869e-05,-8.87944e-06,1.83726e-06,6
-3.59171e-05,1.39211e-05,-9.08227e-06,-3.53611e-06,1.65684e-05,-4.29247e-05,2.77589e-06,3.25733e-06,6
-3.53269e-05,1.36468e-05,-7.10882e-06,-3.06702e-06,1.88942e-05,-4.95448e-05,9.03927e-06,3.59013e-06,6
-3.37948e-05,1.273e-05,-6.17801e-06,-2.57581e-06,2.00093e-05,-3.77928e-05,1.0489e-05,3.19626e-06,6
-3.36841e-05,1.19535e-05,-5.2796e-06,-8.90504e-07,1.87664e-05,-1.86453e-05,1.35303e-05,2.92245e-06,6
-3.34074e-05,1.30457e-05,-4.15554e-06,1.11257e-07,1.81445e-05,-1.93122e-05,1.9919e-05,3.82048e-06,6
-3.32488e-05,1.35073e-05,-4.69887e-06,-6.06421e-07,1.90375e-05,-1.76178e-05,2.51521e-05,5.61491e-06,6
-3.37415e-05,1.17991e-05,-8.01373e-06,-1.23911e-06,1.9471e-05,2.77045e-05,2.57208e-05,4.5041e-06,6
-3.54674e-05,1.01477e-05,-1.05219e-05,-1.37539e-06,1.95862e-05,9.40586e-05,6.31621e-06,-8.15465e-07,6
-3.78653e-05,1.03982e-05,-1.07991e-05,-6.5981e-07,2.08994e-05,0.000142908,-2.79466e-05,-5.81241e-06,6
-3.70837e-05,1.36141e-05,-9.09635e-06,4.97462e-07,2.5379e-05,0.000170537,-4.69538e-05,-5.64802e-06,6
-3.18379e-05,1.71373e-05,-6.09878e-06,2.4316e-06,3.05188e-05,0.000129655,-6.29906e-05,-2.82957e-06,6
-6.0625e-06,2.00177e-05,-4.1601e-06,1.7622e-06,3.14916e-05,-5.05575e-06,-9.2478e-05,-1.25539e-06,6
4.91435e-05,2.0991e-05,-5.09131e-06,-1.78199e-06,2.52277e-05,-0.000150893,-0.000100414,-9.56592e-07,6
9.07553e-05,2.02359e-05,-7.55248e-06,-4.41364e-06,1.56611e-05,-0.000215167,-5.42613e-05,7.43226e-07,6
6.95227e-05,1.89417e-05,-1.03299e-05,-5.38897e-06,9.1079e-06,-0.000211646,1.06532e-05,3.33336e-06,6
-1.58159e-06,1.89213e-05,-1.23123e-05,-4.93945e-06,9.02044e-06,-0.000188996,4.78655e-05,6.10375e-06,6
-7.06445e-05,2.07261e-05,-1.15815e-05,-3.38865e-06,1.40324e-05,-0.000151731,5.97168e-05,8.88754e-06,6
-0.000103258,2.21544e-05,-9.05845e-06,-1.41695e-06,1.92262e-05,-7.58222e-05,6.13691e-05,9.17045e-06,6
-0.000102857,2.15959e-05,-7.42698e-06,-1.33819e-06,2.02398e-05,1.90377e-05,6.80951e-05,7.35747e-06,6
-9.27843e-05,1.97396e-05,-8.42693e-06,-3.91072e-06,1.78495e-05,4.87107e-05,8.52275e-05,7.80101e-06,6
-9.14547e-05,1.82475e-05,-9.36155e-06,-6.6352e-06,1.55765e-05,-2.73063e-05,9.77378e-05,9.92674e-06,6
-9.89288e-05,1.53358e-05,-8.96553e-06,-7.7902e-06,1.5156e-05,-0.000132456,8.70317e-05,8.02169e-06,6
-9.94001e-05,1.10602e-05,-8.55642e-06,-7.33003e-06,1.7685e-05,-0.000164259,6.05583e-05,1.12722e-06,6
-7.93048e-05,8.10223e-06,-7.48736e-06,-4.92378e-06,2.12771e-05,-0.000107897,3.74451e-05,-6.62237e-06,6
-4.60675e-05,8.39442e-06,-6.21971e-06,-4.08046e-06,2.27931e-05,-1.9907e-05,2.55934e-05,-1.02501e-05,6
-2.22488e-05,1.02819e-05,-6.21839e-06,-5.77471e-06,2.28866e-05,5.30954e-05,2.19336e-05,-1.03315e-05,6
-1.67159e-05,1.06118e-05,-6.37009e-06,-6.47823e-06,2.29905e-05,0.000103395,2.07837e-05,-1.40109e-05,6
-2.06491e-05,9.94257e-06,-6.36997e-06,-5.38314e-06,2.20819e-05,0.00011818,1.96523e-05,-2.40137e-05,6
-2.24449e-05,1.01696e-05,-6.24087e-06,-5.35336e-06,2.20577e-05,8.45655e-05,1.79759e-05,-2.68632e-05,6
-1.9493e-05,1.0294e-05,-7.27457e-06,-8.01256e-06,2.45618e-05,4.00642e-05,1.77925e-05,-1.4824e-05,6
-1.64407e-05,8.35299e-06,-8.30653e-06,-8.56519e-06,2.66808e-05,1.14468e-05,2.09758e-05,-4.45073e-06,6
-1.72564e-05,8.23537e-06,-8.26138e-06,-6.69833e-06,2.51236e-05,-2.9504e-05,2.4478e-05,-1.82021e-06,6
-1.98925e-05,1.05135e-05,-9.33343e-06,-6.05078e-06,1.93487e-05,-6.40231e-05,2.25852e-05,9.16507e-07,6
-1.91159e-05,1.24629e-05,-9.16383e-06,-4.65296e-06,1.39967e-05,-3.80701e-05,2.19627e-05,8.66677e-06,6
-1.61845e-05,1.52996e-05,-6.66196e-06,-2.61758e-06,1.55152e-05,4.49729e-05,2.50579e-05,2.04547e-05,6
-1.84955e-05,1.53525e-05,-4.35581e-06,-2.57532e-06,1.77539e-05,7.25748e-05,1.4171e-05,1.95905e-05,6
-2.5845e-05,1.2383e-05,-4.066e-06,-5.88037e-06,1.4378e-05,-8.10239e-06,-1.06946e-05,3.62545e-06,6
-3.20067e-05,1.01011e-05,-3.93004e-06,-8.22665e-06,9.90506e-06,-9.37934e-05,-2.55806e-05,-1.1031e-05,6
-3.59533e-05,1.1134e-05,-3.19114e-06,-5.45068e-06,9.18313e-06,-0.000110825,-2.0676e-05,-1.6307e-05,6
-4.20109e-05,1.40592e-05,-2.25861e-06,4.40545e-09,9.89013e-06,-7.62905e-05,-1.04151e-05,-1.80808e-05,6
-5.04835e-05,1.5531e-05,-5.87999e-07,3.74639e-06,8.78925e-06,-3.94338e-05,-9.36872e-06,-2.36699e-05,6
-5.56122e-05,1.52272e-05,9.55399e-07,4.18174e-06,6.38496e-06,-8.36085e-06,-1.20534e-05,-3.01897e-05,6
-5.24575e-05,1.47707e-05,1.02084e-06,3.33256e-06,4.3109e-06,2.82226e-05,-1.16113e-05,-3.37441e-05,6
-4.37676e-05,1.38523e-05,-5.77508e-07,9.22531e-07,3.57395e-06,6.39684e-05,-1.00168e-05,-3.47817e-05,6
-3.53934e-05,1.18049e-05,-2.56987e-06,-2.73551e-06,2.8218e-06,8.23854e-05,-1.01823e-05,-3.58318e-05,6
-2.74792e-05,1.0993e-05,-4.34263e-06,-4.93544e-06,3.16442e-06,7.57922e-05,-5.84691e-06,-3.29399e-05,6
-1.71686e-05,1.31811e-05,-6.0771e-06,-4.19987e-06,5.40808e-06,4.43608e-05,7.48178e-06,-1.50586e-05,6
-5.80127e-06,1.66403e-05,-7.74114e-06,-3.66587e-06,8.53902e-06,-2.82554e-06,2.55456e-05,2.04618e-05,6
6.00123e-07,1.66352e-05,-9.50585e-06,-5.05144e-06,9.32847e-06,-3.52189e-05,4.12532e-05,5.22814e-05,6
7.61129e-08,1.39409e-05,-1.08706e-05,-6.34701e-06,5.81327e-06,-3.85749e-05,4.21258e-05,6.0565e-05,6
-3.35731e-06,1.1768e-05,-1.04275e-05,-6.67164e-06,-2.11485e-06,-3.73214e-05,2.08899e-05,5.61989e-05,6
-6.73175e-06,1.14641e-05,-7.89111e-06,-6.00188e-06,-7.77342e-06,-5.63944e-05,-8.47e-06,4.67388e-05,6
-1.18756e-05,1.18743e-05,-5.21789e-06,-4.72612e-06,-5.86902e-06,-0.000105384,-2.76561e-05,2.85682e-05,6
-1.75661e-05,1.19981e-05,-5.35861e-06,-3.50817e-06,-2.02344e-06,-0.000182334,-3.05872e-05,1.29647e-05,6
-2.20293e-05,1.22474e-05,-7.00562e-06,-3.14759e-06,-3.46691e-06,-0.000211235,-1.91892e-05,4.30106e-06,6
-2.47971e-05,1.15155e-05,-8.12709e-06,-4.1076e-06,-9.08474e-06,-0.000152797,-9.12603e-07,-1.71467e-06,6
-2.69525e-05,9.1205e-06,-8.30464e-06,-6.05354e-06,-1.40631e-05,-5.78795e-05,2.06279e-05,-9.11491e-07,6
-2.85739e-05,7.12946e-06,-7.76531e-06,-8.9984e-06,-1.63477e-05,1.69736e-05,3.35867e-05,5.02176e-06,6
-2.83666e-05,5.74987e-06,-7.32373e-06,-1.08881e-05,-1.37733e-05,5.28727e-05,2.72467e-05,7.70652e-06,6
-2.7377e-05,6.31127e-06,-7.41274e-06,-9.52008e-06,-8.3953e-06,8.11887e-05,9.04249e-06,4.46034e-06,6
-2.83112e-05,8.4266e-06,-7.27794e-06,-6.78204e-06,-1.40164e-06,0.000134463,-3.35515e-06,-2.1887e-06,6
-3.08588e-05,9.95308e-06,-6.05301e-06,-4.57255e-06,5.50421e-06,0.000185611,1.05675e-06,-7.0869e-06,6
-3.22598e-05,1.12417e-05,-5.66977e-06,-3.30571e-06,8.16259e-06,0.00014696,9.63741e-06,-9.81278e-06,6
-3.25879e-05,1.2607e-05,-7.46142e-06,-3.53233e-06,4.86206e-06,3.61103e-05,1.99666e-05,-1.00785e-05,6
-3.2829e-05,1.43176e-05,-9.09116e-06,-4.76421e-06,7.80271e-07,-4.87466e-05,4.83772e-05,-7.96129e-06,6
-3.21994e-05,1.54015e-05,-9.33907e-06,-5.69764e-06,1.80115e-06,-7.74685e-05,8.00868e-05,-4.87653e-06,6
-2.9139e-05,1.69226e-05,-8.94176e-06,-4.81409e-06,8.3631e-06,-9.2888e-05,7.71093e-05,1.62204e-06,6
-2.77291e-05,1.90463e-05,-7.26152e-06,-3.34973e-06,1.63928e-05,-9.48984e-05,3.71153e-05,7.48798e-06,6
-3.24266e-05,1.855e-05,-6.70303e-06,-3.3887e-06,2.10836e-05,-2.00151e-05,-1.47167e-05,6.71711e-06,6
-3.94338e-05,1.43484e-05,-6.47734e-06,-5.08905e-06,2.28737e-05,0.000125421,-5.736e-05,-3.44976e-07,6
-4.16412e-05,1.02545e-05,-4.20424e-06,-6.45297e-06,2.34307e-05,0.000223627,-7.4647e-05,-8.392e-06,6
-3.9435e-05,8.81949e-06,-1.45558e-06,-6.40467e-06,2.47772e-05,0.000185382,-6.78157e-05,-1.31916e-05,6
-3.67015e-05,1.00257e-05,-7.98941e-07,-6.13523e-06,2.74542e-05,6.4632e-05,-5.09127e-05,-1.33067e-05,6
-3.59622e-05,1.20156e-05,-2.31029e-06,-5.95694e-06,2.82282e-05,-3.32031e-05,-2.69224e-05,-1.00929e-05,6
-3.98665e-05,1.2466e-05,-4.94266e-06,-6.57408e-06,2.40711e-05,-6.43057e-05,9.48027e-06,-7.7658e-06,6
-4.69619e-05,1.06875e-05,-7.8892e-06,-7.65323e-06,1.83283e-05,-5.9325e-05,4.6046e-05,-9.42215e-06,6
-5.0133e-05,8.49623e-06,-9.07655e-06,-8.4051e-06,1.55032e-05,-5.2334e-05,6.83589e-05,-1.16445e-05,6
-4.62987e-05,8.55527e-06,-8.22358e-06,-7.98708e-06,1.46085e-05,-6.68117e-05,6.75083e-05,-1.1208e-05,6
-3.78195e-05,1.05376e-05,-7.20653e-06,-6.05671e-06,1.2973e-05,-8.66157e-05,4.06419e-05,-1.14088e-05,6
-2.69804e-05,1.13698e-05,-7.43384e-06,-3.73783e-06,1.1573e-05,-7.47774e-05,1.42963e-05,-1.54138e-05,6
-1.91778e-05,9.66355e-06,-7.56407e-06,-4.14528e-06,9.38165e-06,-4.09384e-05,1.23601e-05,-2.11408e-05,6
-1.73435e-05,7.92021e-06,-6.6581e-06,-5.77156e-06,5.32047e-06,-6.39006e-06,3.0245e-05,-1.69063e-05,6
-1.68051e-05,7.56168e-06,-4.97035e-06,-5.658e-06,3.90901e-06,3.83079e-05,5.87939e-05,-3.10709e-07,6
-1.18179e-05,7.13984e-06,-4.77881e-06,-3.39679e-06,9.4537e-06,9.68052e-05,9.33454e-05,2.24048e-05,6
-7.02596e-06,5.39498e-06,-6.65491e-06,-2.45327e-06,1.58146e-05,7.23242e-05,9.13197e-05,4.19036e-05,6
-1.01906e-05,2.79884e-06,-8.92625e-06,-4.78081e-06,1.42676e-05,-5.20225e-05,3.37094e-05,3.58888e-05,6
-1.42132e-05,1.93817e-06,-1.00547e-05,-6.09047e-06,1.03133e-05,-0.000114494,-2.60907e-05,1.28097e-05,6
-1.23337e-05,5.72266e-06,-9.33729e-06,-4.44919e-06,1.10483e-05,-6.02845e-05,-5.09066e-05,1.29628e-06,6
-1.61567e-05,1.16616e-05,-5.62935e-06,-1.78581e-06,1.64898e-05,5.74588e-05,-3.46763e-05,8.71771e-06,6
-3.74723e-05,1.37651e-05,-3.68422e-06,-5.01874e-07,1.85932e-05,0.000175306,-5.87434e-06,1.79652e-05,6
-6.36256e-05,1.05107e-05,-5.19097e-06,-2.26597e-07,1.33929e-05,0.000214119,4.7024e-06,1.45488e-05,6
-7.73345e-05,4.00389e-06,-5.55306e-06,-2.39418e-06,5.77685e-06,0.000140198,-3.17493e-05,3.11439e-06,6
-7.68857e-05,-1.28905e-06,-6.30451e-06,-6.19657e-06,7.71449e-07,2.85676e-05,-0.000139001,-1.07493e-05,6
-7.68672e-05,-1.80535e-06,-8.10892e-06,-7.9191e-06,1.24854e-06,-3.2971e-05,-0.000251835,-1.75905e-05,6
-9.59542e-05,2.27347e-06,-8.38066e-06,-5.76388e-06,6.95514e-06,-2.8116e-05,-0.000253014,-1.27566e-05,6
-0.000127017,8.25173e-06,-6.19627e-06,-1.12803e-06,1.49621e-05,-1.76841e-05,-0.00012132,-1.06043e-06,6
-0.000133507,1.35711e-05,-3.90781e-06,2.63784e-06,1.97439e-05,-6.62959e-05,5.65802e-05,8.16484e-06,6
-8.47464e-05,1.73102e-05,-1.9998e-06,3.17488e-06,1.76849e-05,-0.00012942,0.00019985,1.55707e-05,6
-1.39391e-05,1.79618e-05,-2.65051e-06,-4.10078e-07,9.76107e-06,-0.000147977,0.000271223,2.25823e-05,6
1.14477e-05,1.79599e-05,-6.99467e-06,-6.50945e-06,2.16104e-06,-0.000127224,0.000258401,2.0446e-05,6
-1.28839e-05,2.1383e-05,-1.17203e-05,-1.19776e-05,3.2264e-07,-0.000111779,0.000189288,1.29568e-06,6
-1.0855e-05,2.71492e-05,-1.34231e-05,-1.40636e-05,3.35693e-06,-0.00012231,0.000116875,-2.74167e-05,6
7.86046e-05,3.07325e-05,-1.26071e-05,-1.17411e-05,5.71661e-06,-0.000158835,5.74156e-05,-4.26895e-05,6
0.000199905,3.18131e-05,-1.20653e-05,-6.84741e-06,5.20535e-06,-0.000180447,1.48376e-05,-3.3135e-05,6
0.000222302,3.05692e-05,-1.18613e-05,-4.34215e-06,2.55847e-06,-0.000156304,-1.9793e-06,-1.63613e-05,6
0.00012618,2.55291e-05,-1.27333e-05,-6.55964e-06,-2.65766e-06,-0.000118996,2.29163e-06,-1.28533e-05,6
2.50007e-05,1.94994e-05,-1.46212e-05,-1.02423e-05,-6.68655e-06,-0.000101541,1.69091e-05,-1.79362e-05,6
-1.16238e-05,1.52849e-05,-1.45264e-05,-1.0401e-05,-3.91183e-06,-5.72065e-05,3.14262e-05,-1.82515e-05,6
-9.52088e-06,1.38571e-05,-1.24051e-05,-8.81791e-06,1.58196e-06,6.78824e-05,2.1036e-05,-1.32428e-05,6
-1.43196e-05,1.36897e-05,-1.09445e-05,-8.20952e-06,3.84603e-06,0.000195942,-2.4035e-05,-1.08796e-05,6
-3.98142e-05,1.27048e-05,-1.08752e-05,-8.07595e-06,5.517e-06,0.000214753,-6.48188e-05,-1.20248e-05,6
-7.13138e-05,1.09113e-05,-1.04183e-05,-7.41528e-06,1.06306e-05,0.000144575,-5.35698e-05,-1.13855e-05,6
-9.05714e-05,8.86371e-06,-8.34273e-06,-4.65818e-06,1.82173e-05,7.35447e-05,-2.92705e-06,-5.89824e-06,6
-9.04843e-05,8.21473e-06,-6.36411e-06,-3.65719e-06,2.40751e-05,2.91569e-05,4.91983e-05,3.07426e-07,6
-7.22478e-05,9.78723e-06,-7.02909e-06,-5.41551e-06,2.22687e-05,-7.76158e-06,7.62197e-05,1.32975e-06,6
-5.34783e-05,1.0691e-05,-8.31239e-06,-7.52932e-06,1.19055e-05,-4.01731e-05,6.07291e-05,-3.23564e-06,6
-4.40438e-05,9.1831e-06,-7.45412e-06,-7.90982e-06,2.36323e-06,-5.97544e-05,2.99867e-05,-6.41776e-06,6
-4.1264e-05,8.49381e-06,-5.90409e-06,-6.72391e-06,2.02488e-06,-6.76451e-05,9.41941e-06,-4.78439e-06,6
-4.22114e-05,8.52381e-06,-4.73161e-06,-6.0961e-06,7.00115e-06,-6.76576e-05,1.6575e-06,-1.83991e-06,6
-4.33991e-05,7.96697e-06,-4.19862e-06,-7.04327e-06,1.10143e-05,-6.23542e-05,7.22953e-07,-6.31985e-07,6
-4.36436e-05,8.09257e-06,-4.33259e-06,-7.79346e-06,1.63908e-05,-4.77714e-05,2.21181e-06,1.71374e-07,6
-4.23739e-05,9.35577e-06,-5.89224e-06,-7.15682e-06,2.33904e-05,-3.10342e-05,3.58578e-06,1.61804e-06,6
-4.17305e-05,1.09733e-05,-7.70953e-06,-6.02092e-06,2.85554e-05,-1.38756e-05,3.48571e-06,2.47712e-06,6
-4.18738e-05,1.11285e-05,-9.08092e-06,-4.61507e-06,3.09417e-05,8.31854e-06,3.12394e-06,2.35577e-06,6
-4.3678e-05,1.00836e-05,-9.37102e-06,-5.18761e-06,3.03953e-05,3.03873e-05,3.04176e-06,1.83352e-06,6
-4.57694e-05,9.29621e-06,-9.00604e-06,-6.6701e-06,2.66397e-05,2.91681e-05,4.85816e-06,1.85845e-06,6
-4.72942e-05,9.55592e-06,-8.79636e-06,-6.79076e-06,2.26561e-05,1.0653e-05,7.30672e-06,1.38978e-06,6
-4.76755e-05,9.6354e-06,-8.66114e-06,-5.1661e-06,2.07095e-05,9.93202e-06,8.03371e-06,3.26994e-07,6
-4.83783e-05,8.67066e-06,-9.06452e-06,-4.45821e-06,2.01443e-05,2.5794e-05,7.11899e-06,-4.8363e-07,6
-4.92157e-05,7.25882e-06,-9.56293e-06,-5.98279e-06,2.04151e-05,2.51222e-05,8.98993e-06,-4.68992e-07,6
-4.96389e-05,6.8027e-06,-9.33781e-06,-7.85035e-06,2.07029e-05,1.53331e-05,1.61991e-05,1.37772e-06,6
-4.7682e-05,8.11593e-06,-7.22533e-06,-7.95246e-06,2.16232e-05,3.69353e-05,3.28307e-05,6.31724e-06,6
-4.26069e-05,1.07571e-05,-4.22917e-06,-6.14932e-06,2.29147e-05,8.15697e-05,5.45735e-05,1.21786e-05,6
-3.8853e-05,1.28265e-05,-3.64247e-06,-4.09603e-06,1.88267e-05,4.14507e-05,5.64658e-05,1.21922e-05,6
-4.0149e-05,1.11376e-05,-5.85613e-06,-4.17006e-06,6.92612e-06,-9.8909e-05,2.69471e-05,2.19328e-06,6
-4.1539e-05,8.73173e-06,-7.56646e-06,-6.05089e-06,-3.09266e-06,-0.000166634,6.46549e-06,-6.51826e-06,6
-3.60388e-05,1.09459e-05,-7.39893e-06,-5.89145e-06,-2.24946e-06,-8.89652e-05,2.59141e-05,-1.23283e-06,6
-2.95314e-05,1.48036e-05,-6.66375e-06,-4.60411e-06,4.68921e-06,6.04745e-05,4.76897e-05,1.05865e-05,6
-2.76151e-05,1.70572e-05,-6.74978e-06,-3.94389e-06,6.71084e-06,0.000131909,1.94339e-05,1.5682e-05,6
-1.06968e-05,1.87921e-05,-5.93143e-06,-2.55552e-06,2.4112e-06,4.54918e-05,-3.98887e-05,1.21581e-05,6
4.25149e-05,2.04848e-05,-5.95935e-06,-4.23672e-07,-1.53691e-06,-7.08045e-05,-8.11072e-05,8.49186e-06,6
9.65746e-05,2.12482e-05,-7.75679e-06,-5.97883e-07,-1.12723e-06,-8.5874e-05,-7.7794e-05,1.08743e-05,6
0.000119645,2.07372e-05,-7.85812e-06,-3.74673e-06,3.4194e-06,-2.50074e-05,-3.19601e-05,1.30021e-05,6
0.000128941,1.94705e-05,-6.69164e-06,-7.19044e-06,8.19726e-06,7.0304e-06,1.38561e-05,8.16365e-06,6
0.000109635,1.76753e-05,-6.27733e-06,-8.31739e-06,1.01753e-05,-6.57739e-06,4.03763e-05,-1.78825e-06,6
3.88072e-05,1.53531e-05,-6.39775e-06,-7.86505e-06,1.03838e-05,-2.53398e-05,4.88956e-05,-1.1434e-05,6
-5.47102e-05,1.36317e-05,-6.7431e-06,-7.6576e-06,1.14213e-05,-2.93691e-05,4.36438e-05,-1.58254e-05,6
-0.000125103,1.42404e-05,-6.2865e-06,-7.78712e-06,1.27474e-05,-4.31862e-05,1.63856e-05,-1.45797e-05,6
-0.000158623,1.65015e-05,-5.90955e-06,-8.89393e-06,1.20878e-05,-7.06482e-05,-5.04777e-05,-1.63785e-05,6
-0.000174,1.85903e-05,-7.23908e-06,-9.5117e-06,1.08538e-05,-6.07816e-05,-0.000126205,-2.23674e-05,6
-0.000181391,1.86484e-05,-8.14482e-06,-7.95012e-06,1.17009e-05,-1.39011e-05,-0.000154138,-1.61379e-05,6
-0.000181264,1.55202e-05,-6.4796e-06,-5.26747e-06,1.42887e-05,9.90216e-06,-0.000123168,3.37519e-06,6
-0.000177708,9.72911e-06,-4.37498e-06,-4.26118e-06,1.62638e-05,-1.22311e-05,-5.6049e-05,2.01043e-05,6
-0.000165186,4.11403e-06,-5.36253e-06,-5.57616e-06,1.7289e-05,-1.71651e-05,3.4133e-05,2.92622e-05,6
-0.000129386,5.07705e-07,-7.69098e-06,-6.63948e-06,1.77054e-05,4.33284e-05,0.000123775,2.85679e-05,6
-7.66237e-05,1.83248e-07,-9.65578e-06,-6.68673e-06,1.62794e-05,0.000124778,0.000165469,1.67945e-05,6
-3.21514e-05,3.58716e-06,-1.19655e-05,-6.10773e-06,1.32082e-05,0.000134974,0.000131498,8.4697e-06,6
-1.15796e-05,7.74657e-06,-1.43427e-05,-5.30214e-06,1.2458e-05,6.87349e-05,5.55335e-05,1.24567e-05,6
-1.21261e-05,8.27209e-06,-1.54696e-05,-4.77384e-06,1.41212e-05,2.94614e-06,-2.99829e-06,1.70266e-05,6
-2.07803e-05,6.1117e-06,-1.63857e-05,-6.12532e-06,1.41332e-05,-3.34434e-06,-1.34285e-05,1.54474e-05,6
-2.55963e-05,5.56434e-06,-1.76845e-05,-8.3783e-06,1.27824e-05,3.72615e-05,1.23243e-05,1.43614e-05,6
-2.46773e-05,6.31496e-06,-1.73233e-05,-8.75652e-06,1.34099e-05,7.06235e-05,4.02523e-05,1.3747e-05,6
-2.18701e-05,7.83051e-06,-1.35705e-05,-7.49641e-06,1.6755e-05,6.34132e-05,4.30816e-05,1.12273e-05,6
-1.73092e-05,1.01691e-05,-9.13758e-06,-5.66238e-06,2.00914e-05,2.13099e-05,2.91646e-05,9.91075e-06,6
-1.25148e-05,1.15569e-05,-6.09948e-06,-4.47651e-06,2.08986e-05,-3.64768e-05,1.91318e-05,1.03088e-05,6
-1.20294e-05,1.08116e-05,-5.26471e-06,-4.80584e-06,1.99544e-05,-8.81251e-05,1.88755e-05,8.37736e-06,6
-1.44665e-05,9.91601e-06,-7.14727e-06,-6.83295e-06,1.65607e-05,-0.000120964,1.57456e-05,3.24832e-06,6
-1.60853e-05,9.33094e-06,-8.79034e-06,-8.22532e-06,1.10247e-05,-0.000137459,2.19774e-06,-2.84677e-06,6
-1.66507e-05,9.06263e-06,-8.90534e-06,-7.22768e-06,8.57535e-06,-0.00014514,-4.93222e-06,-7.05026e-06,6
-1.95937e-05,1.04495e-05,-6.94948e-06,-4.54968e-06,1.08061e-05,-0.00014366,4.53554e-07,-7.05933e-06,6
-2.35661e-05,1.16184e-05,-6.19575e-06,-3.01813e-06,1.41818e-05,-9.40386e-05,1.22875e-05,-5.14763e-06,6
-2.53973e-05,1.03101e-05,-6.88086e-06,-2.90977e-06,1.6268e-05,4.77765e-06,8.24473e-06,-3.73286e-06,6
-2.68965e-05,7.5238e-06,-8.27422e-06,-3.57438e-06,1.79865e-05,9.68021e-05,-2.14168e-05,-6.46445e-06,6
-2.89802e-05,6.35408e-06,-1.03539e-05,-5.39672e-06,1.93012e-05,0.000131221,-4.19378e-05,-1.18598e-05,6
-3.10221e-05,6.9033e-06,-1.15776e-05,-5.51268e-06,1.8529e-05,0.000105568,-2.90439e-05,-1.51022e-05,6
-2.99444e-05,8.05957e-06,-1.11446e-05,-3.46533e-06,1.62497e-05,5.77022e-05,3.03261e-06,-1.34984e-05,6
-2.69492e-05,9.02281e-06,-9.34497e-06,-1.92162e-06,1.43815e-05,2.72872e-05,2.67038e-05,-9.43586e-06,6
-2.274e-05,1.01197e-05,-7.4515e-06,-1.85691e-06,1.2899e-05,1.42057e-05,2.96459e-05,-5.9552e-06,6
-1.77218e-05,1.17703e-05,-4.90711e-06,-1.57767e-06,1.34788e-05,1.28976e-06,2.2936e-05,-1.87326e-06,6
-1.35919e-05,1.29665e-05,-3.69901e-06,-1.07119e-06,1.64418e-05,8.72486e-07,2.39663e-05,1.64276e-06,6
-1.17289e-05,1.2602e-05,-4.97327e-06,-1.67546e-06,1.98695e-05,3.4209e-05,3.7669e-05,2.35527e-06,6
-1.2738e-05,1.13919e-05,-6.48149e-06,-4.13888e-06,2.19284e-05,5.68118e-05,5.19729e-05,4.47709e-07,6
-1.52578e-05,1.04268e-05,-6.03768e-06,-6.71059e-06,2.10289e-05,-1.80113e-05,5.14488e-05,-1.75824e-06,6
-1.73587e-05,1.0093e-05,-4.99205e-06,-8.08037e-06,1.76909e-05,-0.000169438,3.84632e-05,-3.51755e-06,6
-1.87928e-05,1.12998e-05,-5.15266e-06,-9.27881e-06,1.43399e-05,-0.000283106,2.8601e-05,-4.44197e-06,6
-2.14139e-05,1.18267e-05,-8.05335e-06,-1.09245e-05,1.19985e-05,-0.000298241,2.44013e-05,-5.58701e-06,6
-2.47556e-05,1.07335e-05,-1.18708e-05,-1.14118e-05,1.03281e-05,-0.000225647,2.69722e-05,-5.73795e-06,6
-2.76539e-05,1.06469e-05,-1.28477e-05,-8.38241e-06,1.21377e-05,-8.85545e-05,3.52409e-05,-1.87641e-06,6
-2.90462e-05,1.22193e-05,-9.69912e-06,-4.80217e-06,1.66178e-05,4.49476e-05,3.17428e-05,4.37868e-06,6
-2.93159e-05,1.31525e-05,-5.80914e-06,-2.68248e-06,2.03038e-05,8.09661e-05,1.51048e-05,6.80053e-06,6
-2.8969e-05,1.24513e-05,-4.43168e-06,-1.49576e-06,2.0323e-05,2.13409e-05,3.31007e-07,4.26378e-06,6
-2.78382e-05,1.073e-05,-4.4458e-06,-2.85897e-07,1.86059e-05,-4.14585e-05,-6.43008e-06,1.62567e-06,6
-2.41539e-05,1.13661e-05,-3.02134e-06,1.53783e-06,2.32491e-05,-3.22834e-05,-2.04163e-06,2.85951e-06,6
-2.05576e-05,1.41672e-05,-2.9218e-07,2.6262e-06,3.21378e-05,3.81084e-06,3.50641e-06,2.93284e-06,6
-2.03198e-05,1.49877e-05,-6.71122e-07,2.57564e-06,3.49109e-05,3.49204e-07,-2.78371e-06,-5.91854e-07,6
-2.14774e-05,1.27687e-05,-2.91787e-06,3.72789e-07,3.0296e-05,-3.69267e-07,-8.91817e-06,-9.15262e-07,6
-2.45904e-05,9.33623e-06,-6.08971e-06,-3.64101e-06,2.46279e-05,1.11075e-05,2.31443e-06,2.79714e-06,6
-2.8657e-05,7.74668e-06,-9.78979e-06,-7.51707e-06,2.32123e-05,1.10148e-05,2.62081e-05,7.24509e-06,6
-3.09001e-05,8.59318e-06,-9.98574e-06,-8.53634e-06,2.75995e-05,-2.00939e-06,4.52299e-05,9.75705e-06,6
-3.07079e-05,1.00841e-05,-6.65714e-06,-7.0597e-06,3.53346e-05,1.57003e-05,5.10259e-05,1.22001e-05,6
-2.99874e-05,1.07585e-05,-5.04697e-06,-4.90113e-06,4.13484e-05,8.27172e-05,4.49613e-05,1.4794e-05,6
-2.92014e-05,1.14372e-05,-6.65226e-06,-2.58528e-06,4.1592e-05,0.000116708,2.82891e-05,1.56316e-05,6
-2.84175e-05,1.29873e-05,-8.3828e-06,-7.05009e-07,3.59875e-05,7.16207e-05,7.33264e-06,1.36258e-05,6
-2.83851e-05,1.46446e-05,-8.67833e-06,-1.79677e-07,2.66684e-05,4.41723e-06,-9.03239e-06,1.03674e-05,6
-2.92794e-05,1.49824e-05,-8.38215e-06,-1.33918e-06,1.57126e-05,-3.27963e-05,-1.59928e-05,6.53795e-06,6
