ch1,ch2,ch3,ch4,ch5,ch6,ch7,ch8,class
-1.16145e-05,5.60133e-06,-1.09539e-05,-8.55349e-06,5.00871e-06,-6.59224e-05,1.27939e-05,3.89475e-05,6
-2.48855e-05,3.17966e-06,-1.15974e-05,-1.05865e-05,4.2742e-06,-8.70166e-05,6.65036e-06,1.89969e-05,6
-3.44138e-05,2.44576e-06,-1.32262e-05,-1.21063e-05,6.26008e-07,-6.67181e-05,1.29383e-05,3.16362e-06,6
-3.67444e-05,4.53386e-06,-1.36201e-05,-1.23898e-05,-1.47113e-06,-1.65884e-05,3.32067e-05,-4.44269e-07,6
-3.46641e-05,8.27807e-06,-1.22917e-05,-1.17253e-05,-7.22557e-07,8.75548e-06,4.39871e-05,2.09609e-06,6
-3.2641e-05,1.08327e-05,-1.02234e-05,-1.1008e-05,-1.82884e-07,-1.06073e-05,2.87426e-05,1.39012e-06,6
-3.02424e-05,1.0488e-05,-7.81892e-06,-1.00397e-05,2.98637e-07,-3.43591e-05,7.43852e-06,-1.12078e-06,6
-2.65693e-05,8.77097e-06,-5.81003e-06,-9.24958e-06,2.69582e-06,-3.07455e-05,9.84935e-07,-9.52041e-07,6
-2.3789e-05,7.64668e-06,-5.01944e-06,-9.00541e-06,5.76703e-06,-1.10129e-05,4.42817e-06,7.07331e-07,6
-2.28043e-05,7.56245e-06,-4.16313e-06,-8.43184e-06,1.07315e-05,4.67238e-06,1.56996e-06,4.12626e-06,6
-2.25758e-05,9.07198e-06,-3.17273e-06,-5.71859e-06,2.10789e-05,2.39833e-06,-2.10905e-05,8.98828e-06,6
-2.18465e-05,1.01733e-05,-2.89859e-06,-3.82728e-06,3.55714e-05,-2.48593e-05,-5.42029e-05,7.75688e-06,6
-2.06883e-05,8.70633e-06,-2.93808e-06,-4.32787e-06,4.67361e-05,-4.01856e-05,-5.99348e-05,2.55962e-06,6
-1.63012e-05,7.84012e-06,-2.64449e-06,-4.10037e-06,4.96087e-05,-1.71344e-06,-2.36023e-05,1.5699e-06,6
-7.51058e-06,9.02613e-06,-1.86718e-06,-3.55615e-06,4.72486e-05,8.44397e-05,3.74207e-05,5.35294e-06,6
-4.44835e-06,8.86536e-06,-4.06764e-06,-4.55603e-06,4.46572e-05,0.000169064,8.86032e-05,7.21196e-06,6
-9.30949e-06,6.32364e-06,-6.49177e-06,-6.70908e-06,3.9605e-05,0.000196239,0.00011009,5.49339e-06,6
-1.71607e-05,3.99984e-06,-5.24893e-06,-8.02029e-06,3.06934e-05,0.000150063,0.000104263,3.88078e-06,6
-2.57239e-05,3.87545e-06,-4.2711e-06,-8.25507e-06,2.31602e-05,5.13256e-05,7.79729e-05,4.59594e-06,6
-2.9236e-05,5.01238e-06,-3.46136e-06,-8.20532e-06,2.07348e-05,-4.61084e-05,4.55193e-05,7.66139e-06,6
-2.86157e-05,5.18556e-06,-2.34672e-06,-7.70336e-06,2.1217e-05,-0.000109693,1.1429e-05,8.7868e-06,6
-3.60415e-05,5.10352e-06,-2.94474e-06,-7.32011e-06,1.63643e-05,-0.000127796,-1.38083e-05,3.87733e-06,6
-6.06171e-05,4.94024e-06,-4.443e-06,-8.29629e-06,8.81691e-06,-0.000109671,-2.52255e-05,-5.91449e-06,6
-8.41014e-05,3.93527e-06,-5.45686e-06,-9.57953e-06,4.6978e-06,-7.44406e-05,-2.04825e-05,-1.48561e-05,6
-8.64378e-05,2.29461e-06,-4.97922e-06,-9.64304e-06,4.34593e-06,-5.02169e-05,-8.90516e-06,-2.04598e-05,6
-7.15113e-05,1.8072e-06,-4.13513e-06,-9.70085e-06,5.01733e-06,-6.94112e-05,-6.22779e-06,-2.4222e-05,6
-5.38118e-05,3.58875e-06,-4.51203e-06,-9.95398e-06,4.58747e-06,-0.000119847,-1.44973e-05,-2.73341e-05,6
-4.06284e-05,6.43905e-06,-6.68259e-06,-8.99385e-06,4.12259e-06,-0.00015256,-2.26899e-05,-2.94864e-05,6
-3.02337e-05,8.75595e-06,-8.38675e-06,-8.2375e-06,3.6665e-06,-0.000147348,-1.78948e-05,-3.0184e-05,6
-2.31552e-05,1.00112e-05,-7.83033e-06,-8.28182e-06,3.89605e-06,-0.000144899,6.28862e-07,-2.41199e-05,6
-1.93826e-05,1.14565e-05,-5.07229e-06,-7.82582e-06,5.71917e-06,-0.000156664,3.62383e-05,-6.77236e-06,6
-1.72904e-05,1.28655e-05,-2.32085e-06,-6.55817e-06,9.95835e-06,-0.000115763,8.67532e-05,1.54034e-05,6
-1.32751e-05,1.34378e-05,-1.53472e-06,-5.75058e-06,1.3272e-05,4.62821e-05,0.000125668,3.70307e-05,6
-7.50963e-06,1.17495e-05,-1.4766e-06,-5.67574e-06,1.29689e-05,0.000263732,0.000112801,5.45075e-05,6
-6.17607e-06,7.71297e-06,-1.05782e-06,-6.15181e-06,8.24412e-06,0.000357631,4.73906e-05,5.40957e-05,6
-1.45625e-05,2.61786e-06,-1.74209e-06,-7.51175e-06,2.0266e-06,0.000270373,-2.67753e-05,3.43987e-05,6
-3.07814e-05,6.39138e-07,-3.5119e-06,-7.52862e-06,8.54571e-07,0.000130223,-7.83927e-05,1.82852e-05,6
-5.59098e-05,3.82395e-06,-3.85938e-06,-4.89383e-06,7.22728e-06,3.72924e-05,-0.000112476,1.75623e-05,6
-8.12858e-05,9.01117e-06,-1.53091e-06,-2.94529e-07,1.41946e-05,-1.42527e-05,-0.000127517,2.37867e-05,6
-9.01757e-05,1.19244e-05,7.75908e-07,3.22388e-06,1.6376e-05,-6.66183e-05,-0.000107357,2.68881e-05,6
-8.01467e-05,1.23605e-05,1.48497e-07,3.9132e-06,1.48774e-05,-0.000123222,-4.89636e-05,2.57864e-05,6
-6.05182e-05,1.47912e-05,-2.03534e-06,1.35817e-06,1.25981e-05,-0.000133624,4.56868e-05,2.72142e-05,6
-5.41066e-05,2.19793e-05,-3.7844e-06,-1.94499e-06,1.34685e-05,-6.81867e-05,0.000140095,2.27116e-05,6
-6.57664e-05,2.94376e-05,-4.37864e-06,-4.03986e-06,1.70227e-05,-1.86929e-07,0.000175598,-1.61544e-05,6
-6.37984e-05,3.11163e-05,-4.96394e-06,-6.20663e-06,2.13721e-05,2.04414e-06,0.000151818,-7.388e-05,6
-1.13857e-05,2.88281e-05,-5.85999e-06,-6.9556e-06,2.52901e-05,-2.19839e-05,0.00011178,-9.31485e-05,6
6.16696e-05,2.60542e-05,-5.64358e-06,-4.92825e-06,2.78818e-05,-2.48177e-05,8.88084e-05,-6.71159e-05,6
8.55451e-05,2.46244e-05,-3.34431e-06,-7.26273e-07,2.99174e-05,5.5405e-06,7.75363e-05,-3.18925e-05,6
5.38116e-05,2.31179e-05,-2.93781e-06,1.62032e-06,2.85792e-05,4.75275e-05,6.04492e-05,-1.1103e-05,6
8.77278e-06,2.04691e-05,-6.08385e-06,-1.48387e-06,2.31012e-05,6.18003e-05,2.58327e-05,-8.55635e-06,6
-1.50578e-05,1.83404e-05,-1.03716e-05,-8.20813e-06,1.39491e-05,4.15985e-05,-1.02337e-05,-1.22574e-05,6
-1.90965e-05,1.70834e-05,-1.25084e-05,-1.32158e-05,3.25213e-06,9.13204e-06,-3.09227e-05,-1.32434e-05,6
-1.80216e-05,1.58025e-05,-1.27678e-05,-1.52026e-05,-2.98009e-06,-2.23991e-05,-4.06216e-05,-1.24124e-05,6
-2.03126e-05,1.41607e-05,-1.34576e-05,-1.38503e-05,-2.67266e-06,-3.96329e-05,-3.72189e-05,-1.13289e-05,6
-2.51678e-05,1.34866e-05,-1.40666e-05,-1.00611e-05,2.53481e-06,-4.64104e-05,-2.62381e-05,-8.28382e-06,6
-2.67225e-05,1.44689e-05,-1.50957e-05,-7.03207e-06,7.32129e-06,-4.64985e-05,-1.76725e-05,-4.23808e-06,6
-1.01482e-05,1.60055e-05,-1.57844e-05,-5.83003e-06,8.78696e-06,-4.32331e-05,-1.82875e-05,-1.4145e-06,6
3.66382e-05,1.71561e-05,-1.5203e-05,-5.14367e-06,8.68023e-06,-3.83986e-05,-1.98052e-05,1.33067e-06,6
8.8352e-05,1.84736e-05,-1.27228e-05,-3.86204e-06,1.04013e-05,-3.35258e-05,-1.76717e-05,4.67793e-06,6
0.000105049,1.98642e-05,-9.34386e-06,-2.85366e-06,1.29687e-05,-3.19397e-05,-8.02937e-06,8.19774e-06,6
7.41219e-05,1.97289e-05,-6.02771e-06,-2.47567e-06,1.44344e-05,-3.13687e-05,1.0095e-05,9.94066e-06,6
1.63323e-05,1.73875e-05,-5.57151e-06,-3.35501e-06,1.46259e-05,-2.87064e-05,3.05205e-05,9.38649e-06,6
-4.08897e-05,1.47565e-05,-8.23602e-06,-4.07901e-06,1.44284e-05,-1.73258e-05,3.91229e-05,7.15388e-06,6
-8.01878e-05,1.31709e-05,-1.01687e-05,-5.00657e-06,1.2943e-05,1.72807e-06,3.15522e-05,3.1274e-06,6
-0.000101596,1.20987e-05,-1.01366e-05,-6.63594e-06,6.80814e-06,2.25325e-05,1.83388e-05,-2.87117e-06,6
-0.000111556,1.14684e-05,-8.96773e-06,-6.99609e-06,-3.90701e-06,3.6663e-05,1.30319e-05,-5.4874e-06,6
-0.000122074,1.04515e-05,-8.21988e-06,-5.92494e-06,-1.23489e-05,4.39992e-05,1.70689e-05,-3.10511e-06,6
-0.000142249,1.03666e-05,-8.22485e-06,-4.64303e-06,-1.30862e-05,4.85676e-05,2.22096e-05,1.36166e-06,6
-0.00016007,9.91766e-06,-7.40794e-06,-3.48488e-06,-9.62538e-06,5.66709e-05,2.30481e-05,1.01702e-05,6
-0.000157761,4.81902e-06,-8.11489e-06,-3.91244e-06,-6.67266e-06,5.34339e-05,1.68001e-05,1.15215e-05,6
-0.000133383,1.26705e-06,-1.0386e-05,-5.4034e-06,-3.71728e-06,3.05722e-05,7.59207e-06,8.61313e-06,6
-9.14915e-05,5.06274e-06,-1.22849e-05,-5.91876e-06,-6.41159e-07,-3.59228e-06,8.10643e-07,1.93093e-05,6
-4.8821e-05,1.27996e-05,-1.2707e-05,-4.10315e-06,1.18201e-06,-4.35812e-05,4.22639e-07,2.3762e-05,6
-2.60176e-05,1.91937e-05,-7.87924e-06,1.35165e-06,6.81604e-06,-6.80524e-05,4.3497e-06,1.29511e-05,6
-2.1153e-05,2.0344e-05,-1.12038e-06,5.84455e-06,2.06311e-05,-6.31695e-05,7.04428e-06,-9.08277e-08,6
-2.43523e-05,1.69921e-05,2.23341e-06,7.30593e-06,3.87285e-05,-5.40643e-05,3.81389e-06,-4.20728e-06,6
-2.74036e-05,1.28852e-05,1.45656e-06,8.93032e-06,5.32334e-05,-6.00126e-05,-7.53204e-07,-1.5284e-06,6
-2.73773e-05,1.20901e-05,1.73021e-06,1.13583e-05,6.07407e-05,-6.36136e-05,2.77935e-06,7.45169e-07,6
-2.54306e-05,1.47397e-05,5.27787e-06,1.28805e-05,5.79732e-05,-5.42328e-05,1.55455e-05,2.89848e-06,6
-2.44795e-05,1.7283e-05,8.6559e-06,1.30112e-05,4.0998e-05,-3.8429e-05,2.45076e-05,4.20293e-06,6
-2.48476e-05,1.77502e-05,6.38346e-06,1.04811e-05,1.8174e-05,-1.80327e-05,2.3997e-05,5.49885e-06,6
-2.47082e-05,1.71469e-05,-1.82241e-06,4.10143e-06,5.07416e-06,3.62395e-06,1.93797e-05,4.63403e-06,6
-2.45587e-05,1.65591e-05,-1.0933e-05,-4.1538e-06,4.27138e-06,1.44996e-05,1.64674e-05,3.29638e-06,6
-2.46881e-05,1.51217e-05,-1.85687e-05,-1.2542e-05,6.84194e-06,9.70063e-06,1.57362e-05,1.54489e-06,6
-2.46013e-05,1.28235e-05,-2.41508e-05,-2.11983e-05,7.68789e-06,-1.71607e-06,1.65902e-05,2.58249e-08,6
-2.48856e-05,1.07983e-05,-2.83515e-05,-2.94384e-05,8.45754e-06,-8.30366e-06,1.80895e-05,-6.93761e-07,6
-2.54949e-05,9.91274e-06,-3.09944e-05,-3.36881e-05,1.03593e-05,-6.43611e-06,1.89607e-05,3.95155e-07,6
-2.53259e-05,9.97744e-06,-3.14258e-05,-3.3526e-05,1.20822e-05,1.21016e-06,2.10549e-05,9.03011e-07,6
-2.45922e-05,1.03557e-05,-2.88568e-05,-3.1245e-05,1.37889e-05,9.63539e-06,2.59193e-05,3.75994e-07,6
-2.40812e-05,1.11077e-05,-2.47845e-05,-2.68556e-05,1.7601e-05,1.68795e-05,2.96229e-05,7.31605e-07,6
-2.45384e-05,1.23419e-05,-2.16643e-05,-2.0715e-05,2.16687e-05,2.09927e-05,2.71767e-05,1.6271e-06,6
-2.58113e-05,1.36432e-05,-2.02115e-05,-1.50672e-05,2.1316e-05,1.66698e-05,1.81616e-05,1.56663e-06,6
-2.57377e-05,1.43892e-05,-1.84221e-05,-1.07118e-05,1.916e-05,6.60906e-06,8.54408e-06,1.11746e-06,6
-2.44779e-05,1.31864e-05,-1.63323e-05,-8.12786e-06,1.85827e-05,8.52697e-06,1.86492e-05,-1.80518e-06,6
-2.5413e-05,1.01882e-05,-1.41601e-05,-5.91768e-06,1.97097e-05,2.83868e-05,4.81154e-05,-5.92182e-06,6
-2.64456e-05,8.43971e-06,-1.27844e-05,-2.2299e-06,2.33273e-05,5.06992e-05,7.62519e-05,-5.04222e-06,6
-2.58833e-05,8.7508e-06,-1.20806e-05,1.49289e-06,2.46398e-05,6.65245e-05,8.67861e-05,-2.98376e-06,6
-2.53315e-05,8.10578e-06,-1.15596e-05,3.93499e-06,2.12977e-05,6.50467e-05,6.46302e-05,-2.30025e-06,6
-2.34041e-05,7.86796e-06,-9.43964e-06,4.85891e-06,1.62554e-05,3.60731e-05,1.66716e-05,7.70198e-07,6
-1.86624e-05,9.72643e-06,-4.34463e-06,5.19704e-06,1.3349e-05,5.55615e-06,-3.07338e-05,4.60306e-06,6
-1.48269e-05,1.10922e-05,-7.61116e-07,4.52094e-06,1.52029e-05,-4.29663e-05,-6.57839e-05,3.63497e-06,6
-1.60318e-05,1.16853e-05,-1.64248e-06,3.05213e-06,1.42572e-05,-0.000137747,-8.14178e-05,-3.18474e-07,6
-1.93368e-05,1.07035e-05,-5.25764e-06,1.85375e-06,9.33307e-06,-0.000221746,-6.92179e-05,-3.05598e-06,6
-1.79555e-05,9.90602e-06,-7.17589e-06,7.18884e-07,6.03838e-06,-0.000250751,-5.44086e-05,-2.51203e-06,6
5.30681e-06,9.75914e-06,-7.28308e-06,-5.89369e-08,4.8902e-06,-0.000237982,-4.99569e-05,-1.61926e-06,6
5.39691e-05,9.96126e-06,-6.948e-06,-3.22789e-07,3.85839e-06,-0.000195688,-4.07827e-05,-2.39512e-06,6
8.80419e-05,1.19087e-05,-5.91181e-06,-6.81724e-07,3.68771e-06,-9.31227e-05,-1.74222e-05,-2.4005e-06,6
6.85941e-05,1.48019e-05,-3.17733e-06,-6.08968e-07,5.51357e-06,7.06785e-05,9.49148e-06,1.18043e-06,6
5.69374e-06,1.59476e-05,-6.14901e-07,3.05705e-07,5.35749e-06,0.000195765,1.63899e-05,5.12332e-06,6
-6.17716e-05,1.47037e-05,-5.05133e-07,1.14861e-06,2.16113e-06,0.000190104,1.98494e-06,6.4681e-06,6
-0.000109121,1.30522e-05,-2.30184e-06,7.77154e-07,-1.65576e-06,9.3649e-05,-1.42662e-05,8.14708e-06,6
-0.000135447,1.16984e-05,-4.27298e-06,-3.93411e-08,-2.90529e-06,5.18727e-06,-1.84162e-05,1.2454e-05,6
-0.000148421,1.14823e-05,-4.85629e-06,8.43024e-07,2.98969e-07,-3.03123e-05,-1.57463e-05,2.03268e-05,6
-0.000158284,1.17992e-05,-3.97917e-06,4.07226e-06,6.93869e-06,-1.29267e-05,-9.72645e-06,2.91303e-05,6
-0.000169665,1.11751e-05,-3.10352e-06,8.02361e-06,1.24976e-05,4.16668e-05,2.36136e-06,2.68618e-05,6
-0.000170378,8.74055e-06,-3.57664e-06,1.19073e-05,1.73071e-05,0.000102144,2.3301e-05,3.05912e-06,6
-0.000146466,7.17078e-06,-4.49771e-06,1.68071e-05,2.40928e-05,0.00011769,4.01697e-05,-3.26399e-05,6
-9.84538e-05,9.18785e-06,-4.62977e-06,2.10324e-05,2.79938e-05,5.72179e-05,3.72085e-05,-5.16527e-05,6
-2.44839e-05,1.42908e-05,-2.95429e-06,1.98718e-05,2.27086e-05,-5.9562e-05,1.90771e-05,-3.87068e-05,6
9.06169e-05,2.11636e-05,-8.56612e-07,1.46301e-05,1.23907e-05,-0.000175248,4.56001e-06,-1.05917e-05,6
0.000195564,2.7187e-05,4.57339e-07,8.34783e-06,5.39563e-06,-0.000248949,1.2847e-06,7.32423e-06,6
0.000184993,2.79599e-05,1.13694e-06,-3.03299e-06,3.70108e-06,-0.000269879,1.72768e-05,7.32232e-06,6
7.27974e-05,2.4197e-05,6.59041e-07,-1.58618e-05,1.34156e-05,-0.000201413,6.71102e-05,3.88772e-06,6
-9.0654e-06,2.14034e-05,-2.38407e-06,-2.19082e-05,2.87787e-05,-3.25267e-05,0.000107392,6.34655e-06,6
-1.95473e-05,2.03101e-05,-6.31516e-06,-2.12912e-05,3.34199e-05,0.000142954,0.000100953,9.13277e-06,6
-1.09737e-05,1.73847e-05,-9.48743e-06,-1.84994e-05,2.69618e-05,0.000234477,6.89437e-05,4.30812e-06,6
-7.56401e-06,1.53091e-05,-1.00057e-05,-1.51388e-05,1.65232e-05,0.000213931,2.98641e-05,-4.48091e-06,6
-1.54684e-05,1.55068e-05,-7.9851e-06,-1.0954e-05,1.00883e-05,0.000113886,4.32496e-06,-8.3219e-06,6
-2.23625e-05,1.53808e-05,-8.3084e-06,-9.32384e-06,9.08225e-06,2.87526e-05,1.1645e-07,-6.64528e-06,6
-2.57645e-05,1.40547e-05,-1.11448e-05,-1.16708e-05,9.6712e-06,8.30527e-07,8.66107e-06,-4.7363e-06,6
-2.77984e-05,1.25556e-05,-1.31341e-05,-1.43664e-05,1.03136e-05,8.20539e-06,1.95053e-05,-5.9748e-06,6
-2.83728e-05,1.33095e-05,-1.20852e-05,-1.57782e-05,1.1579e-05,2.47787e-05,2.54925e-05,-8.83308e-06,6
-2.77969e-05,1.47248e-05,-1.05338e-05,-1.51563e-05,1.37887e-05,4.11949e-05,1.91879e-05,-1.1285e-05,6
-2.58605e-05,1.57747e-05,-9.17125e-06,-1.25312e-05,1.67955e-05,5.59237e-05,2.96725e-06,-9.76865e-06,6
-2.40533e-05,1.68877e-05,-7.45257e-06,-8.14263e-06,2.17452e-05,4.97287e-05,-1.04497e-05,-1.76128e-06,6
-2.20125e-05,1.7486e-05,-5.98573e-06,-3.48778e-06,2.60478e-05,1.39392e-05,-1.45391e-05,9.08615e-06,6
-2.28792e-05,1.70264e-05,-6.00424e-06,-1.57376e-06,2.5935e-05,-3.54732e-05,-8.77166e-06,1.48084e-05,6
-2.53333e-05,1.61462e-05,-8.06919e-06,-2.77559e-06,2.088e-05,-7.46979e-05,5.05818e-06,1.47975e-05,6
-3.02112e-05,1.40318e-05,-1.08042e-05,-4.52599e-06,1.35107e-05,-8.72245e-05,2.75614e-05,1.17084e-05,6
-3.43188e-05,1.07119e-05,-1.27623e-05,-4.33468e-06,7.38726e-06,-7.26114e-05,4.41101e-05,7.05575e-06,6
-3.66218e-05,8.6081e-06,-1.16989e-05,-2.5912e-06,4.65884e-06,-5.2229e-05,4.13269e-05,2.93449e-06,6
-3.58268e-05,8.68071e-06,-8.74866e-06,-5.9284e-07,3.31505e-06,-4.62648e-05,2.41119e-05,7.85862e-07,6
-3.5938e-05,9.42213e-06,-6.68364e-06,-6.80575e-07,1.09441e-06,-5.93165e-05,1.13948e-05,-6.83523e-07,6
-3.6954e-05,1.03675e-05,-6.05453e-06,-1.31416e-06,-1.72611e-06,-8.50526e-05,1.26974e-05,-1.98283e-06,6
-3.74728e-05,1.14794e-05,-6.68079e-06,2.17963e-07,-4.41877e-06,-0.000108131,2.07815e-05,-2.23783e-06,6
-3.80814e-05,1.23181e-05,-9.22236e-06,2.73692e-06,-7.28657e-06,-0.000132682,1.32876e-05,-3.68403e-06,6
-4.03679e-05,1.3049e-05,-1.10563e-05,2.21943e-06,-1.05693e-05,-0.000172383,-1.40776e-05,-7.45519e-06,6
-4.21116e-05,1.20961e-05,-9.9947e-06,-1.35368e-07,-1.37518e-05,-0.000211654,-3.44468e-05,-1.09891e-05,6
-4.24234e-05,1.04366e-05,-7.4488e-06,9.81199e-08,-1.31935e-05,-0.000207322,-4.21584e-05,-1.05582e-05,6
-4.22473e-05,1.1606e-05,-5.6599e-06,1.2078e-06,-6.79999e-06,-0.000104987,-5.34588e-05,-7.3889e-06,6
-4.20159e-05,1.32249e-05,-5.7085e-06,6.27327e-07,-1.44809e-06,5.95376e-05,-6.00179e-05,-4.00843e-06,6
-4.28732e-05,1.32381e-05,-5.9904e-06,-4.62488e-07,-9.898e-07,0.000185324,-4.53422e-05,-1.74944e-06,6
-4.35752e-05,1.27925e-05,-6.27559e-06,-3.05633e-06,-2.37961e-06,0.000210873,-1.32168e-05,-1.09634e-06,6
-4.29893e-05,1.2499e-05,-6.67964e-06,-7.071e-06,-3.95182e-06,0.000136747,2.86803e-05,9.8409e-07,6
-4.00016e-05,1.31039e-05,-5.33789e-06,-8.78938e-06,-1.87034e-06,5.3888e-05,7.06499e-05,6.35488e-06,6
-3.83791e-05,1.32658e-05,-4.14641e-06,-8.19557e-06,4.01403e-06,1.29015e-05,8.69315e-05,1.08966e-05,6
-3.8493e-05,1.28477e-05,-4.06599e-06,-7.35224e-06,1.01004e-05,7.53546e-06,7.09395e-05,1.13248e-05,6
-3.9702e-05,1.12096e-05,-4.97246e-06,-6.9305e-06,1.64825e-05,1.73006e-05,4.26951e-05,9.29336e-06,6
-4.11197e-05,9.0513e-06,-6.34042e-06,-6.15735e-06,2.36865e-05,2.85812e-05,2.08988e-05,7.4267e-06,6
-4.20191e-05,8.74154e-06,-6.69303e-06,-4.71678e-06,3.00954e-05,3.96695e-05,1.38144e-05,6.02163e-06,6
-4.17669e-05,1.00636e-05,-5.99355e-06,-3.77858e-06,3.43725e-05,4.70566e-05,1.42872e-05,4.84103e-06,6
-4.0803e-05,1.03099e-05,-4.8808e-06,-2.92217e-06,3.76388e-05,5.37896e-05,1.72663e-05,4.7762e-06,6
-3.88594e-05,9.13522e-06,-4.32719e-06,-1.32217e-06,4.29582e-05,5.60208e-05,2.03312e-05,5.59414e-06,6
-3.76142e-05,8.90669e-06,-4.2964e-06,-5.32904e-07,4.90792e-05,5.06572e-05,2.48625e-05,7.21951e-06,6
-3.81994e-05,9.42502e-06,-4.5536e-06,-1.86284e-06,4.85031e-05,3.44207e-05,3.10197e-05,8.5231e-06,6
-3.95476e-05,9.42364e-06,-4.45567e-06,-4.14932e-06,4.01998e-05,1.5823e-05,3.66846e-05,7.41865e-06,6
-4.05443e-05,8.91789e-06,-3.93554e-06,-5.2701e-06,2.99237e-05,2.81815e-08,3.75587e-05,4.17829e-06,6
-4.09702e-05,8.31298e-06,-2.46844e-06,-5.23967e-06,2.33748e-05,-5.21852e-06,3.54109e-05,1.43734e-06,6
-4.0825e-05,7.4858e-06,-1.5663e-06,-6.81112e-06,2.13228e-05,-7.19253e-06,3.03419e-05,6.90912e-07,6
-4.01085e-05,7.08425e-06,-2.91326e-06,-1.08143e-05,2.13794e-05,-1.1793e-05,2.36717e-05,7.40008e-07,6
-3.86339e-05,7.08019e-06,-4.9228e-06,-1.32229e-05,2.14474e-05,-1.36055e-05,1.99387e-05,-9.99781e-07,6
-3.76292e-05,6.53238e-06,-4.43831e-06,-1.15249e-05,2.04688e-05,-1.37832e-05,1.39676e-05,-4.57384e-06,6
-3.61039e-05,5.8879e-06,-3.58664e-06,-6.53123e-06,1.90661e-05,-9.38357e-06,1.24447e-05,-6.26761e-06,6
-3.30123e-05,5.90813e-06,-4.48794e-06,-1.43877e-06,2.06702e-05,2.11188e-05,3.97468e-05,-4.45515e-06,6
-3.128e-05,6.44618e-06,-4.83074e-06,1.35222e-06,2.25591e-05,5.02469e-05,7.49577e-05,-3.32672e-07,6
-2.95343e-05,8.2588e-06,-2.22151e-06,1.34289e-06,2.1398e-05,2.69934e-05,6.41838e-05,5.32656e-06,6
-2.4983e-05,1.1537e-05,1.23456e-07,-1.90831e-07,2.01539e-05,-3.22947e-05,2.72368e-07,1.19457e-05,6
-2.30253e-05,1.19599e-05,-2.46085e-06,-2.29479e-06,1.66752e-05,-7.73583e-05,-6.76922e-05,9.29561e-06,6
-2.60143e-05,8.0052e-06,-7.03696e-06,-7.59578e-06,8.67024e-06,-9.34116e-05,-0.00010163,-4.11537e-06,6
-2.90072e-05,5.43951e-06,-1.10074e-05,-1.38581e-05,1.00915e-06,-8.27686e-05,-9.14164e-05,-1.28141e-05,6
-3.01509e-05,5.4698e-06,-1.22776e-05,-1.61985e-05,4.63799e-07,-5.62217e-05,-4.85638e-05,-1.09891e-05,6
-2.91405e-05,5.98879e-06,-1.14884e-05,-1.45323e-05,3.17081e-06,-4.281e-05,-1.20556e-05,-3.50496e-06,6
-2.907e-05,5.6294e-06,-1.23004e-05,-1.13524e-05,2.29464e-06,-3.89659e-05,3.68003e-06,1.82986e-06,6
-3.01617e-05,3.86802e-06,-1.34583e-05,-1.02374e-05,5.30382e-07,-3.78962e-05,-4.04408e-06,1.02612e-06,6
-3.21117e-05,2.7735e-06,-1.24822e-05,-1.13471e-05,1.67724e-06,-2.47767e-05,-1.31665e-05,-2.67467e-06,6
-3.29719e-05,3.51201e-06,-1.16056e-05,-1.23128e-05,4.38582e-06,5.46174e-06,-1.13424e-05,-3.59189e-06,6
-3.12648e-05,5.90017e-06,-1.13623e-05,-1.18028e-05,6.98732e-06,3.96301e-05,-2.42807e-06,-9.8109e-07,6
-2.92442e-05,8.36831e-06,-9.89868e-06,-1.05737e-05,8.29248e-06,5.26309e-05,9.60618e-06,1.6239e-06,6
-2.82556e-05,9.8852e-06,-8.88795e-06,-9.22838e-06,8.27398e-06,2.83442e-05,2.45617e-05,2.32271e-06,6
-2.77343e-05,1.0941e-05,-9.40841e-06,-7.88257e-06,7.731e-06,-1.58602e-05,4.54993e-05,4.92372e-06,6
-2.70101e-05,1.25554e-05,-9.83814e-06,-7.64225e-06,9.60956e-06,-4.87437e-05,6.2636e-05,1.08663e-05,6
-2.69136e-05,1.31512e-05,-1.00406e-05,-8.29189e-06,1.44382e-05,-5.63817e-05,6.81312e-05,1.47948e-05,6
-2.65803e-05,1.18082e-05,-1.05432e-05,-8.81955e-06,1.83328e-05,-5.63176e-05,5.90644e-05,1.1731e-05,6
-2.66181e-05,1.04141e-05,-1.03463e-05,-9.51958e-06,2.00657e-05,-6.23414e-05,4.39383e-05,3.13721e-06,6
-2.69026e-05,1.06074e-05,-9.81327e-06,-1.01628e-05,2.22586e-05,-6.49601e-05,2.84157e-05,-3.82274e-06,6
-2.59772e-05,1.21603e-05,-1.01063e-05,-9.03429e-06,2.48499e-05,-4.83692e-05,2.08856e-05,-4.8595e-06,6
-2.43898e-05,1.37179e-05,-1.0572e-05,-6.81898e-06,2.3547e-05,-2.33869e-05,1.92756e-05,-1.01195e-06,6
-2.43255e-05,1.41029e-05,-9.59314e-06,-5.25643e-06,2.06557e-05,-6.39551e-06,1.57952e-05,3.84316e-06,6
-2.53138e-05,1.37728e-05,-8.90663e-06,-5.36203e-06,1.95824e-05,-5.32324e-06,2.07301e-06,7.50801e-06,6
-2.57235e-05,1.39243e-05,-1.02509e-05,-6.49658e-06,1.75844e-05,-1.83981e-05,-1.46761e-05,7.95948e-06,6
-2.59782e-05,1.3846e-05,-1.137e-05,-7.10902e-06,1.47817e-05,-3.32489e-05,-1.94882e-05,6.86083e-06,6
-2.75486e-05,1.30291e-05,-1.01188e-05,-5.96505e-06,1.48481e-05,-3.71291e-05,-8.96328e-06,5.28908e-06,6
-2.93058e-05,1.22449e-05,-8.54035e-06,-4.3103e-06,1.62033e-05,-2.91777e-05,2.97539e-06,2.15951e-06,6
-3.2981e-05,1.30772e-05,-9.39073e-06,-4.51517e-06,1.83951e-05,-1.58795e-05,1.34089e-05,-3.60487e-06,6
-3.98708e-05,1.41984e-05,-1.02406e-05,-4.71362e-06,1.97801e-05,-7.33753e-06,2.53988e-05,-1.22453e-05,6
-4.83596e-05,1.33997e-05,-1.02102e-05,-4.77756e-06,1.70958e-05,-6.53972e-06,3.10829e-05,-1.93793e-05,6
-6.01933e-05,1.05031e-05,-1.07497e-05,-6.89779e-06,1.36062e-05,-6.08691e-06,2.78756e-05,-2.32681e-05,6
-7.91304e-05,8.20456e-06,-1.09635e-05,-9.50803e-06,1.32323e-05,-2.28974e-06,2.51943e-05,-2.33486e-05,6
-9.32087e-05,8.79483e-06,-8.19758e-06,-1.12898e-05,1.57874e-05,1.54044e-05,2.67503e-05,-1.90421e-05,6
-7.93617e-05,1.1038e-05,-4.01097e-06,-1.07315e-05,1.84388e-05,4.74654e-05,2.22373e-05,-1.29983e-05,6
-4.4466e-05,1.27422e-05,-2.60189e-06,-8.60953e-06,1.92994e-05,6.83455e-05,1.49692e-05,-8.35866e-06,6
-1.41741e-05,1.33632e-05,-4.17307e-06,-5.93045e-06,1.79003e-05,6.68284e-05,1.92898e-06,-2.25739e-06,6
-5.90444e-06,1.34504e-05,-5.94938e-06,-1.76283e-06,1.60735e-05,6.09204e-05,-1.28596e-05,4.23869e-06,6
-2.03373e-05,1.29634e-05,-5.6347e-06,5.42005e-06,1.49039e-05,6.55159e-05,-1.96192e-05,1.28698e-05,6
-3.39699e-05,1.25276e-05,-4.48934e-06,1.63865e-05,1.35457e-05,6.59649e-05,-2.09682e-05,2.63711e-05,6
-7.38782e-06,1.36063e-05,-3.44125e-06,3.22135e-05,1.08104e-05,3.93585e-05,-2.43311e-05,3.36237e-05,6
5.2061e-05,1.6697e-05,-3.76562e-06,5.42069e-05,8.75707e-06,-1.19838e-05,-2.80494e-05,3.21488e-05,6
7.9722e-05,1.95818e-05,-5.17426e-06,7.78716e-05,8.82993e-06,-8.60651e-05,-3.49918e-05,2.96563e-05,6
4.30698e-05,2.11717e-05,-6.8428e-06,9.41443e-05,8.59802e-06,-0.000184722,-4.57625e-05,3.29121e-05,6
-9.13969e-06,2.07925e-05,-8.30375e-06,9.19851e-05,7.08466e-06,-0.000266956,-3.70961e-05,4.15319e-05,6
-8.39628e-06,1.94355e-05,-8.87395e-06,6.57085e-05,5.47668e-06,-0.000262121,7.85334e-06,5.06425e-05,6
4.39436e-05,1.87699e-05,-9.0113e-06,1.63504e-05,4.74839e-06,-0.000179074,6.21618e-05,5.20587e-05,6
7.88496e-05,1.8787e-05,-8.97918e-06,-4.58102e-05,6.02459e-06,-0.00010324,8.88589e-05,3.28765e-05,6
4.68487e-05,1.95023e-05,-8.26247e-06,-9.88957e-05,1.0216e-05,-6.76949e-05,8.65837e-05,-1.63345e-05,6
-2.45009e-05,1.99404e-05,-7.32613e-06,-0.000124135,1.37484e-05,-2.4301e-05,6.07795e-05,-7.65755e-05,6
-8.03411e-05,1.73238e-05,-8.31051e-06,-0.000122097,1.23016e-05,5.99867e-05,1.03215e-05,-0.000106375,6
-9.50117e-05,1.15548e-05,-1.17805e-05,-0.000104782,4.94305e-06,0.000129621,-4.1883e-05,-0.000102092,6
-7.95662e-05,8.41711e-06,-1.36461e-05,-7.90403e-05,-3.11302e-06,8.72942e-05,-6.22082e-05,-8.16115e-05,6
-6.17456e-05,1.00681e-05,-1.20334e-05,-4.89063e-05,-4.93306e-06,-2.23114e-05,-3.94643e-05,-4.63531e-05,6
-6.20289e-05,1.24648e-05,-1.01822e-05,-2.327e-05,-3.53448e-07,-3.56744e-05,1.34604e-05,-6.17088e-06,6
-7.97343e-05,1.06384e-05,-8.86707e-06,-7.00669e-06,4.3089e-06,9.55291e-05,6.90301e-05,1.73957e-05,6
-8.63639e-05,4.48585e-06,-1.02239e-05,8.41503e-07,4.05652e-06,0.000193217,9.67985e-05,3.00692e-05,6
-6.4868e-05,-5.56632e-07,-1.23237e-05,3.291e-06,1.66022e-06,0.000137269,8.81994e-05,3.93169e-05,6
-4.08525e-05,-3.56395e-07,-1.25248e-05,3.5738e-06,8.91711e-07,3.29245e-05,6.04809e-05,2.67548e-05,6
-3.52824e-05,3.93065e-06,-1.07351e-05,4.06056e-06,1.55327e-06,-2.89026e-05,2.96644e-05,-3.78352e-08,6
-4.39542e-05,7.71983e-06,-7.98017e-06,5.38098e-06,2.59939e-06,-2.22347e-05,1.34721e-05,-2.03476e-05,6
-5.19765e-05,9.6839e-06,-6.9207e-06,6.25117e-06,5.10959e-06,5.03351e-06,9.92959e-06,-2.83557e-05,6
-5.17795e-05,1.02154e-05,-7.72608e-06,7.00642e-06,1.02615e-05,2.44704e-05,1.15728e-05,-2.98946e-05,6
-4.60112e-05,9.90357e-06,-9.34617e-06,7.02121e-06,1.53071e-05,3.34247e-05,1.47756e-05,-2.89605e-05,6
-3.88105e-05,1.04953e-05,-1.06526e-05,5.59412e-06,1.60122e-05,4.44035e-05,2.02175e-05,-2.47464e-05,6
-2.95714e-05,1.14314e-05,-1.11812e-05,3.24851e-06,1.08466e-05,5.9423e-05,2.85445e-05,-1.29919e-05,6
-1.90476e-05,1.10444e-05,-1.04207e-05,1.37386e-06,2.26179e-06,6.89012e-05,3.65523e-05,1.30942e-05,6
-1.30732e-05,9.35535e-06,-7.89399e-06,7.85957e-07,-5.63244e-06,7.70161e-05,4.25842e-05,4.11205e-05,6
-9.68585e-06,9.28681e-06,-3.53163e-06,3.45577e-06,-7.88268e-06,7.20723e-05,4.3905e-05,5.35232e-05,6
-3.34957e-06,1.1789e-05,1.89354e-06,8.44802e-06,-3.55888e-06,5.21454e-05,4.18957e-05,5.46068e-05,6
5.92677e-06,1.44901e-05,6.18943e-06,1.2488e-05,2.95535e-06,9.27289e-06,3.12247e-05,5.27575e-05,6
9.04337e-06,1.41471e-05,7.59774e-06,1.41141e-05,5.71068e-06,-4.48889e-05,1.11754e-05,3.8997e-05,6
4.32386e-06,1.18901e-05,8.28059e-06,1.37772e-05,2.37964e-06,-9.12745e-05,-8.47059e-06,1.71616e-05,6
-2.83601e-06,1.14207e-05,1.00417e-05,1.24453e-05,-2.20509e-06,-0.000100688,-1.31301e-05,2.23424e-06,6
-8.3571e-06,1.23738e-05,1.09147e-05,9.11948e-06,6.34052e-07,-8.09815e-05,-5.51678e-06,-1.46248e-06,6
-1.39642e-05,1.26149e-05,7.08369e-06,3.55487e-06,1.65377e-05,-5.60739e-05,2.11247e-06,-1.88038e-06,6
-2.10825e-05,1.22623e-05,-1.4842e-06,-3.21218e-06,3.97182e-05,-4.70558e-05,3.92436e-06,-5.54454e-06,6
-3.30749e-05,1.1781e-05,-1.20553e-05,-1.08223e-05,5.8816e-05,-5.1899e-05,5.40111e-06,-1.21067e-05,6
-5.16787e-05,1.06935e-05,-2.1113e-05,-1.79785e-05,6.66821e-05,-6.698e-05,1.13741e-05,-1.57871e-05,6
-7.36686e-05,6.92024e-06,-2.66121e-05,-2.32065e-05,6.11657e-05,-8.06937e-05,2.24696e-05,-8.48559e-06,6
-9.10112e-05,8.06919e-07,-3.07164e-05,-2.60396e-05,3.86865e-05,-8.97892e-05,2.92661e-05,5.38342e-06,6
-9.21757e-05,-1.98305e-06,-3.25149e-05,-2.77848e-05,9.75723e-06,-0.000116343,2.24611e-05,1.22599e-05,6
-7.17353e-05,1.38093e-06,-2.87492e-05,-2.74094e-05,-5.07123e-06,-0.000153886,1.53009e-05,1.3606e-05,6
-4.58195e-05,7.16102e-06,-2.24504e-05,-2.3559e-05,-2.75292e-06,-0.000173803,1.85468e-05,1.34097e-05,6
-3.37828e-05,1.05138e-05,-1.75725e-05,-1.86345e-05,4.00894e-06,-0.000149069,1.58796e-05,8.01516e-06,6
-3.11015e-05,1.13946e-05,-1.49282e-05,-1.27157e-05,8.22455e-06,-5.97232e-05,3.43283e-06,1.79632e-06,6
-3.23111e-05,1.29872e-05,-1.37635e-05,-8.36425e-06,1.27146e-05,6.34793e-05,-7.69411e-06,-2.74773e-06,6
-3.39483e-05,1.9176e-05,-1.25536e-05,-7.47018e-06,1.43849e-05,0.000159243,-1.65768e-05,-5.9548e-06,6
-3.41415e-05,2.58518e-05,-1.1904e-05,-6.33854e-06,1.27623e-05,0.000182049,-2.029e-05,-7.8924e-06,6
-3.25239e-05,2.75178e-05,-1.08279e-05,-1.39943e-06,1.08794e-05,0.000126333,-1.88013e-05,-6.98566e-06,6
-3.11462e-05,2.30174e-05,-9.09259e-06,3.67463e-06,1.0603e-05,4.48023e-05,-1.58629e-05,-4.75484e-06,6
-3.06564e-05,1.69833e-05,-7.18749e-06,6.01975e-06,9.84922e-06,-2.52104e-05,-1.73923e-05,-5.10764e-06,6
-2.98e-05,1.38983e-05,-4.25055e-06,7.55197e-06,8.98181e-06,-5.53296e-05,-1.84154e-05,-6.91877e-06,6
-2.88406e-05,1.33833e-05,-1.02074e-06,9.01939e-06,9.61872e-06,-5.1973e-05,-1.28628e-05,-6.28556e-06,6
-2.80739e-05,1.36461e-05,1.50026e-06,9.55914e-06,1.0025e-05,-3.19195e-05,-3.02031e-06,-4.59833e-06,6
-2.84994e-05,1.36135e-05,3.17436e-06,7.9728e-06,9.97066e-06,-1.07892e-06,6.01957e-06,-4.07676e-06,6
-2.91849e-05,1.44071e-05,3.45936e-06,5.54474e-06,1.06229e-05,4.32384e-05,1.46546e-05,-4.41315e-06,6
-2.96942e-05,1.55516e-05,2.15413e-06,2.85291e-06,1.13893e-05,8.06103e-05,2.2115e-05,-4.79221e-06,6
-3.05621e-05,1.61551e-05,1.10269e-07,5.88326e-07,9.38257e-06,8.21609e-05,2.25279e-05,-5.60246e-06,6
-3.23878e-05,1.5816e-05,-1.89204e-06,-6.96729e-07,7.04878e-06,5.74388e-05,1.36145e-05,-6.77737e-06,6
-3.32002e-05,1.62211e-05,-2.85173e-06,-1.37179e-06,6.84193e-06,3.50305e-05,4.36017e-06,-7.66441e-06,6
-3.25932e-05,1.6956e-05,-2.38014e-06,-2.17647e-06,9.02964e-06,2.82361e-05,4.5709e-06,-8.59192e-06,6
-3.17355e-05,1.74643e-05,-1.16695e-06,-2.21418e-06,1.04964e-05,2.11943e-05,3.62263e-07,-8.65417e-06,6
-3.07817e-05,1.81103e-05,9.10056e-07,3.27938e-07,1.04878e-05,1.60369e-06,-3.05056e-05,-7.4426e-06,6
-2.93119e-05,1.92248e-05,2.06237e-06,3.22646e-06,1.02129e-05,-2.39157e-05,-7.08072e-05,-5.50681e-06,6
-2.9167e-05,1.89649e-05,-8.14444e-07,2.13981e-06,8.18488e-06,-3.94131e-05,-8.18356e-05,-4.9829e-06,6
-3.20153e-05,1.6011e-05,-6.04304e-06,-2.40993e-06,3.42434e-06,-4.76713e-05,-6.62567e-05,-8.59958e-06,6
-3.51079e-05,1.25763e-05,-9.42776e-06,-4.98834e-06,1.77201e-06,-4.86214e-05,-3.12029e-05,-9.63323e-06,6
-3.23963e-05,1.33249e-05,-9.3862e-06,-1.80954e-06,6.37187e-06,-3.87657e-05,3.25107e-05,5.96973e-07,6
-2.50044e-05,1.80845e-05,-7.46503e-06,4.53475e-06,1.42892e-05,-2.94542e-05,9.88057e-05,1.50808e-05,6
-2.06374e-05,2.06469e-05,-6.49419e-06,9.15984e-06,2.01503e-05,-2.99577e-05,0.00012441,2.45261e-05,6
-2.04476e-05,1.90613e-05,-8.25264e-06,1.26538e-05,2.11878e-05,-3.45728e-05,0.000113528,2.85986e-05,6
-2.21131e-05,1.64808e-05,-1.05337e-05,1.49742e-05,2.03834e-05,-3.33647e-05,9.81561e-05,2.8918e-05,6
-2.31794e-05,1.51191e-05,-1.13209e-05,1.35274e-05,1.81683e-05,-2.09804e-05,8.38383e-05,2.70311e-05,6
-2.39959e-05,1.52662e-05,-1.14169e-05,9.8527e-06,1.61878e-05,-8.88437e-06,6.88573e-05,2.61115e-05,6
-2.17728e-05,1.68811e-05,-1.08777e-05,3.86713e-06,1.33945e-05,-3.20672e-06,5.45277e-05,2.37859e-05,6
2.71744e-06,1.93534e-05,-8.89801e-06,-6.33574e-06,1.1258e-05,-3.67834e-06,4.15986e-05,1.16104e-05,6
5.47095e-05,2.02061e-05,-6.61086e-06,-1.84123e-05,1.11688e-05,-1.33486e-05,2.62676e-05,-1.51743e-05,6
9.70617e-05,1.87875e-05,-6.05492e-06,-2.64128e-05,1.10262e-05,-3.15224e-05,7.85749e-06,-3.9505e-05,6
9.78352e-05,1.74468e-05,-6.74035e-06,-2.68157e-05,1.03259e-05,-4.21889e-05,-5.61609e-06,-4.24796e-05,6
6.16043e-05,1.74062e-05,-7.7183e-06,-2.16032e-05,9.69142e-06,-3.72199e-05,-9.94674e-06,-2.90921e-05,6
1.05872e-05,1.80769e-05,-7.92219e-06,-1.51344e-05,1.06034e-05,-2.70627e-05,-7.53828e-06,-1.51469e-05,6
-3.55851e-05,1.75279e-05,-6.70242e-06,-1.03377e-05,1.21248e-05,-2.01347e-05,-4.1524e-06,-8.82285e-06,6
-6.9665e-05,1.64982e-05,-5.76047e-06,-9.41394e-06,1.36499e-05,-1.73194e-05,2.04855e-06,-7.01272e-06,6
-9.21555e-05,1.56287e-05,-7.04184e-06,-1.19735e-05,1.58804e-05,-1.36159e-05,1.41238e-05,-5.87671e-06,6
-0.000107913,1.49237e-05,-9.2638e-06,-1.46124e-05,1.87671e-05,-9.09514e-06,2.96358e-05,-3.49805e-06,6
-0.000123578,1.41847e-05,-1.00338e-05,-1.52778e-05,2.03816e-05,-3.64378e-06,4.21044e-05,-1.73423e-06,6
-0.000136788,1.28225e-05,-8.88299e-06,-1.37109e-05,1.88797e-05,1.35406e-06,4.95186e-05,-3.56575e-06,6
-0.000132844,9.46844e-06,-7.08501e-06,-1.09056e-05,1.5094e-05,4.65782e-06,4.86792e-05,-8.73099e-06,6
-0.000107286,5.08638e-06,-7.15152e-06,-7.75755e-06,1.22054e-05,3.30171e-06,4.10979e-05,-1.22092e-05,6
-7.39266e-05,3.2629e-06,-8.10262e-06,-5.90005e-06,1.11563e-05,-2.39711e-07,3.59087e-05,-1.09646e-05,6
-4.8244e-05,4.09696e-06,-7.65776e-06,-5.55617e-06,1.13432e-05,-2.2945e-06,3.41703e-05,-6.41161e-06,6
-3.57645e-05,5.65984e-06,-7.69338e-06,-5.90037e-06,1.33648e-05,-6.44598e-06,2.89029e-05,-1.49079e-06,6
-3.3005e-05,6.95881e-06,-8.30569e-06,-6.25371e-06,1.59393e-05,-7.99645e-06,1.92857e-05,1.63466e-06,6
-3.42315e-05,7.73841e-06,-9.02465e-06,-6.86868e-06,1.78944e-05,1.06571e-05,1.69161e-06,1.38372e-06,6
-3.29187e-05,7.70383e-06,-1.04369e-05,-6.00543e-06,1.92049e-05,3.7383e-05,-2.32359e-05,7.03789e-07,6
-2.69211e-05,7.98883e-06,-1.17786e-05,-5.0569e-06,1.44616e-05,3.75504e-05,-3.10719e-05,9.50378e-07,6
-2.16385e-05,9.98095e-06,-1.22925e-05,-5.31743e-06,4.93113e-06,-4.51254e-06,-5.90806e-06,1.27612e-06,6
-1.82821e-05,1.31699e-05,-1.06917e-05,-3.72501e-06,-2.14505e-07,-5.61671e-05,2.92249e-05,5.84858e-06,6
-1.63812e-05,1.71749e-05,-8.56426e-06,-2.584e-06,1.19926e-06,-7.04073e-05,3.53539e-05,1.47768e-05,6
-1.8557e-05,1.83972e-05,-7.70519e-06,-2.44255e-06,7.28124e-06,-4.17993e-05,8.76317e-06,2.00603e-05,6
-2.54188e-05,1.52578e-05,-8.19882e-06,-2.29872e-06,1.22351e-05,-1.26132e-05,-2.59691e-05,1.50717e-05,6
-3.23857e-05,1.11258e-05,-9.93938e-06,-3.4541e-06,1.4712e-05,-1.06774e-05,-4.96949e-05,5.86803e-06,6
-3.31004e-05,1.05e-05,-1.01392e-05,-4.82917e-06,1.63486e-05,-9.29412e-06,-4.88044e-05,1.76004e-06,6
-2.84049e-05,1.28852e-05,-8.08684e-06,-4.91604e-06,2.00709e-05,4.36395e-06,-3.10213e-05,1.93495e-06,6
-2.27339e-05,1.42939e-05,-6.36505e-06,-4.4907e-06,2.53057e-05,2.22601e-05,-1.56534e-05,-2.52483e-06,6
-2.02709e-05,1.44648e-05,-6.72733e-06,-4.63107e-06,2.78591e-05,3.03205e-05,-8.74002e-06,-1.1112e-05,6
-2.01517e-05,1.39833e-05,-8.57292e-06,-4.71109e-06,2.72802e-05,2.8081e-05,-6.44309e-06,-1.46508e-05,6
-2.01411e-05,1.37176e-05,-1.04681e-05,-4.29625e-06,2.44247e-05,2.15383e-05,-6.12506e-06,-1.07901e-05,6
-2.01376e-05,1.3569e-05,-1.20853e-05,-3.82104e-06,2.1586e-05,1.09588e-05,-1.60431e-05,-5.71681e-06,6
-2.06749e-05,1.34869e-05,-1.21473e-05,-3.00082e-06,1.87705e-05,-2.08121e-06,-3.31912e-05,-3.36226e-06,6
-2.21737e-05,1.26426e-05,-1.02015e-05,-1.60503e-06,1.53414e-05,-2.20987e-05,-3.98349e-05,-1.5529e-06,6
-2.41811e-05,1.07045e-05,-7.853e-06,-8.7498e-07,1.09625e-05,-6.14231e-05,-2.43428e-05,7.95925e-07,6
-2.53052e-05,8.45974e-06,-7.49196e-06,-2.03659e-06,7.41888e-06,-0.000112871,6.2393e-06,3.08198e-06,6
-2.42919e-05,7.59835e-06,-8.99888e-06,-3.51274e-06,5.87133e-06,-0.000122574,4.14235e-05,5.68961e-06,6
-2.28715e-05,7.75188e-06,-9.48913e-06,-3.60607e-06,7.63416e-06,-4.73246e-05,7.36392e-05,8.03853e-06,6
-2.36366e-05,7.80856e-06,-8.5288e-06,-3.62988e-06,1.24559e-05,7.49661e-05,8.43841e-05,6.36766e-06,6
-2.67385e-05,7.65803e-06,-7.98206e-06,-5.2943e-06,1.7777e-05,0.000167364,5.74801e-05,5.86996e-07,6
-2.81062e-05,8.21771e-06,-7.51903e-06,-6.66393e-06,2.16937e-05,0.000195354,7.83554e-06,-3.63789e-06,6
-2.65741e-05,1.04678e-05,-5.98468e-06,-5.29507e-06,2.37214e-05,0.000164939,-3.37529e-05,-2.39385e-06,6
-2.52614e-05,1.20089e-05,-4.13443e-06,-2.11889e-06,2.56351e-05,0.000101515,-4.86069e-05,1.05294e-06,6
-2.59545e-05,1.249e-05,-2.40177e-06,4.36636e-07,2.78629e-05,1.53542e-05,-3.18062e-05,2.51622e-06,6
-2.71109e-05,1.29596e-05,-2.3054e-06,1.15732e-06,2.78766e-05,-8.69219e-05,8.56081e-06,2.51973e-06,6
-2.58891e-05,1.39973e-05,-4.32346e-06,1.18621e-06,2.53564e-05,-0.000149554,7.59015e-05,5.79541e-06,6
-2.3372e-05,1.42115e-05,-4.44218e-06,1.69539e-06,2.28941e-05,-0.000118721,0.000132594,1.20161e-05,6
-2.47194e-05,1.12012e-05,-3.88204e-06,-8.54455e-08,1.84993e-05,-7.28752e-05,0.000129412,1.1487e-05,6
-2.93364e-05,7.63031e-06,-5.00746e-06,-3.3057e-06,1.08886e-05,-7.74876e-05,7.92989e-05,2.47024e-06,6
-3.17131e-05,6.34812e-06,-4.76864e-06,-2.4224e-06,7.14085e-06,-8.83177e-05,1.97755e-05,-4.73317e-06,6
-3.04834e-05,6.79567e-06,-3.54768e-06,1.25185e-06,9.47411e-06,-8.38378e-05,-1.0301e-05,-4.80009e-06,6
-2.64579e-05,6.66142e-06,-3.78561e-06,2.72623e-06,1.10944e-05,-6.8931e-05,-1.35275e-05,-1.99576e-06,6
-2.0746e-05,6.51291e-06,-6.32655e-06,-2.67283e-07,8.02953e-06,-6.26979e-05,-7.01344e-06,-6.11222e-07,6
-1.74138e-05,6.97047e-06,-8.3544e-06,-4.31824e-06,3.8721e-06,-5.94991e-05,1.11576e-06,7.08244e-07,6
-1.72808e-05,7.84504e-06,-7.86441e-06,-6.75407e-06,2.51575e-06,-5.01647e-05,1.11249e-05,3.7261e-06,6
-1.74459e-05,9.40228e-06,-5.64761e-06,-6.97738e-06,4.49251e-06,-3.51427e-05,2.34846e-05,7.90315e-06,6
-1.69669e-05,9.49657e-06,-2.67859e-06,-5.60573e-06,7.0491e-06,-2.1593e-05,2.99702e-05,1.13957e-05,6
-1.79678e-05,7.43924e-06,-6.51333e-07,-4.11772e-06,7.33511e-06,-1.36755e-05,2.64255e-05,1.01599e-05,6
-2.22061e-05,5.57907e-06,-2.75985e-07,-3.61034e-06,8.04751e-06,-6.1474e-06,1.87185e-05,4.83984e-06,6
-2.7699e-05,5.95085e-06,-1.32636e-06,-4.37973e-06,1.01226e-05,3.36743e-06,1.82498e-05,-9.3283e-07,6
-3.24535e-05,7.7083e-06,-2.9805e-06,-5.37117e-06,1.35323e-05,1.55528e-05,2.37915e-05,-4.23899e-06,6
-3.58683e-05,9.21868e-06,-3.93535e-06,-6.52795e-06,1.79222e-05,1.82508e-05,2.98681e-05,-5.07891e-06,6
-3.92374e-05,9.29693e-06,-3.54031e-06,-6.86955e-06,2.07823e-05,-1.0145e-06,2.87432e-05,-6.27529e-06,6
-4.40773e-05,8.79621e-06,-3.76773e-06,-6.84739e-06,1.83479e-05,-3.95087e-05,1.88584e-05,-9.63475e-06,6
-4.859e-05,9.11729e-06,-5.63601e-06,-6.43359e-06,1.21362e-05,-7.25949e-05,4.7055e-06,-1.26859e-05,6
-4.99255e-05,1.08847e-05,-8.03161e-06,-5.3192e-06,6.97832e-06,-0.000114871,-2.41625e-06,-1.13164e-05,6
-5.27852e-05,1.23319e-05,-9.1805e-06,-3.91665e-06,5.21982e-06,-0.000199527,-2.06322e-06,-5.29117e-06,6
-6.47433e-05,1.16989e-05,-8.2609e-06,-3.30208e-06,6.97835e-06,-0.00028235,-1.94062e-06,3.07691e-06,6
-7.83929e-05,9.98237e-06,-7.58529e-06,-4.50657e-06,1.01235e-05,-0.000268458,-5.26945e-06,7.83353e-06,6
-7.82912e-05,7.88399e-06,-8.0865e-06,-6.25278e-06,1.32497e-05,-0.00016188,-6.15496e-06,7.81851e-06,6
-6.37044e-05,6.21001e-06,-8.89028e-06,-7.13356e-06,1.35192e-05,-6.52657e-05,-1.87653e-06,6.49693e-06,6
-4.65436e-05,6.35008e-06,-1.00918e-05,-7.57676e-06,1.24646e-05,1.42796e-05,3.23306e-06,3.61098e-06,6
-4.12816e-05,7.094e-06,-1.09046e-05,-6.99513e-06,1.4043e-05,0.000187629,8.72833e-06,2.02585e-06,6
-5.56308e-05,8.09641e-06,-1.2363e-05,-6.78357e-06,1.36696e-05,0.000376072,1.03153e-05,4.6353e-07,6
-6.4842e-05,9.31386e-06,-1.22436e-05,-6.96617e-06,9.67048e-06,0.000390414,-3.63574e-08,-5.64473e-06,6
-2.57793e-05,1.31855e-05,-9.8546e-06,-6.2028e-06,5.92577e-06,0.00025322,-1.16158e-05,-1.12801e-05,6
3.39752e-05,1.87541e-05,-8.86601e-06,-7.05698e-06,5.3703e-06,0.000105968,-8.25922e-06,-1.44208e-05,6
4.72957e-05,2.0029e-05,-7.80615e-06,-9.28465e-06,7.35372e-06,1.73701e-05,-7.38148e-08,-1.73607e-05,6
1.67846e-05,1.78578e-05,-7.52137e-06,-1.10393e-05,9.5139e-06,-3.31727e-05,3.77389e-06,-2.03712e-05,6
-1.1303e-05,1.58332e-05,-8.29933e-06,-1.25542e-05,1.1177e-05,-4.15805e-05,5.50667e-06,-2.20269e-05,6
-1.63206e-05,1.56449e-05,-9.04822e-06,-1.36241e-05,1.12546e-05,-1.47506e-05,8.77466e-06,-1.61448e-05,6
-9.72367e-06,1.67136e-05,-9.60835e-06,-1.31991e-05,1.07356e-05,1.65425e-05,1.55931e-05,4.14104e-06,6
-3.99948e-06,1.69692e-05,-1.06813e-05,-1.09975e-05,1.01791e-05,2.98128e-05,2.04104e-05,2.49376e-05,6
-2.13881e-06,1.45519e-05,-1.12168e-05,-8.22412e-06,1.08441e-05,2.69534e-05,1.98552e-05,3.46726e-05,6
-2.94901e-06,1.0885e-05,-1.01755e-05,-6.50876e-06,1.18633e-05,2.79094e-05,1.95726e-05,4.0405e-05,6
-8.14941e-06,8.71593e-06,-8.59656e-06,-5.32376e-06,1.31253e-05,4.27713e-05,2.02647e-05,3.73607e-05,6
-1.70137e-05,9.28507e-06,-6.83921e-06,-3.27765e-06,1.46844e-05,5.95461e-05,1.54347e-05,2.19707e-05,6
-2.51507e-05,1.16846e-05,-6.09435e-06,-1.24716e-06,1.46593e-05,4.66119e-05,5.21946e-06,4.5233e-06,6
-2.64363e-05,1.35734e-05,-5.88636e-06,-1.56158e-06,1.18909e-05,-1.03877e-06,-5.08262e-07,-3.03748e-06,6
-8.11341e-06,1.43842e-05,-5.30583e-06,-3.93143e-06,9.1441e-06,-6.60168e-05,4.68229e-06,-4.55685e-07,6
3.89858e-05,1.50887e-05,-3.88079e-06,-5.30813e-06,1.00067e-05,-0.00012435,1.58282e-05,6.08238e-06,6
8.60464e-05,1.60605e-05,-3.19575e-06,-3.96566e-06,1.34148e-05,-0.000155422,1.99274e-05,1.13259e-05,6
8.13297e-05,1.67129e-05,-4.34041e-06,-2.30273e-06,1.68202e-05,-0.000124467,1.55883e-05,1.43702e-05,6
2.20933e-05,1.63021e-05,-6.23357e-06,-2.35452e-06,1.87246e-05,-2.18196e-05,1.32911e-05,1.53262e-05,6
-4.59549e-05,1.52972e-05,-6.33371e-06,-2.68944e-06,1.90842e-05,8.38566e-05,1.38722e-05,1.21175e-05,6
-8.5887e-05,1.38504e-05,-3.02885e-06,-1.55198e-06,1.89843e-05,0.000110253,6.97324e-06,4.70637e-06,6
-9.31061e-05,1.25489e-05,1.86507e-06,7.12928e-07,2.38139e-05,8.39286e-05,-4.83167e-06,-3.05406e-06,6
-8.65202e-05,1.38743e-05,5.57998e-06,4.54954e-06,3.31158e-05,5.85537e-05,-7.23768e-06,-6.38245e-06,6
-8.93287e-05,1.65106e-05,8.33519e-06,7.80623e-06,3.8119e-05,1.42339e-05,-2.73251e-06,-6.3813e-06,6
-0.000108223,1.50707e-05,1.02532e-05,7.9591e-06,3.153e-05,-8.02668e-05,-1.03923e-05,-8.94448e-06,6
-0.000122224,1.05373e-05,9.60176e-06,4.14505e-06,1.8196e-05,-0.00016057,-1.51079e-05,-1.73385e-05,6
-0.000109975,7.5428e-06,5.4441e-06,-1.45087e-06,9.0761e-06,-0.00016278,2.90684e-06,-2.4544e-05,6
-8.31265e-05,8.96911e-06,-1.81987e-06,-5.66802e-06,7.07904e-06,-0.00012387,1.05331e-05,-2.7849e-05,6
-6.57987e-05,1.25212e-05,-1.11536e-05,-1.20517e-05,8.09192e-06,-8.19264e-05,-1.22207e-05,-3.08049e-05,6
-6.43579e-05,1.40074e-05,-1.87978e-05,-1.86282e-05,9.97647e-06,-5.96891e-05,-3.63531e-05,-3.30754e-05,6
-6.33457e-05,1.43976e-05,-2.38094e-05,-2.28254e-05,1.60455e-05,-4.05522e-05,-3.34738e-05,-3.13494e-05,6
-5.34182e-05,1.44293e-05,-2.89966e-05,-2.54614e-05,2.41872e-05,-4.2821e-06,-1.11241e-05,-2.75613e-05,6
-3.76108e-05,1.50155e-05,-3.27733e-05,-2.74508e-05,2.74999e-05,5.15292e-05,1.74831e-05,-2.2848e-05,6
-2.01361e-05,1.54904e-05,-3.23689e-05,-2.86502e-05,2.42968e-05,9.98946e-05,4.38902e-05,-1.52279e-05,6
-4.56181e-06,1.49739e-05,-2.85391e-05,-2.67385e-05,1.86207e-05,0.0001015,5.61238e-05,-1.97237e-06,6
4.11554e-06,1.45303e-05,-2.34695e-05,-2.206e-05,1.35946e-05,6.21719e-05,5.73069e-05,1.78089e-05,6
3.97048e-06,1.40469e-05,-1.90076e-05,-1.67884e-05,1.14969e-05,2.57557e-05,5.79562e-05,3.56917e-05,6
2.20643e-07,1.27518e-05,-1.63761e-05,-1.30298e-05,1.21395e-05,1.31725e-05,5.73591e-05,4.99101e-05,6
-3.52098e-06,1.12062e-05,-1.46072e-05,-1.04616e-05,1.36406e-05,1.00745e-05,4.9353e-05,5.98226e-05,6
-7.01145e-06,1.1007e-05,-1.30378e-05,-8.48439e-06,1.55828e-05,6.83346e-06,3.67784e-05,5.54524e-05,6
-1.1449e-05,1.20344e-05,-1.12145e-05,-5.8174e-06,1.79546e-05,1.91866e-06,2.75012e-05,3.80118e-05,6
-1.58493e-05,1.26961e-05,-9.06604e-06,-1.81899e-06,1.90141e-05,4.07147e-06,2.53719e-05,2.29385e-05,6
-1.99099e-05,1.27901e-05,-6.75399e-06,2.74654e-06,1.66653e-05,1.01841e-05,2.54862e-05,1.66434e-05,6
-2.36386e-05,1.3356e-05,-4.87832e-06,6.02007e-06,1.33033e-05,9.7666e-06,2.3065e-05,1.11733e-05,6
-2.7248e-05,1.40689e-05,-3.04024e-06,7.23477e-06,1.21624e-05,2.65961e-06,2.31491e-05,4.81795e-07,6
-2.89429e-05,1.4753e-05,-8.84323e-07,8.07637e-06,1.51144e-05,1.64542e-05,3.33016e-05,-1.22785e-05,6
-2.86142e-05,1.56967e-05,3.78922e-08,9.19531e-06,2.00834e-05,6.87042e-05,4.9486e-05,-2.01039e-05,6
-2.78923e-05,1.55408e-05,-4.56442e-07,8.31182e-06,2.03486e-05,0.000118543,5.19623e-05,-2.06949e-05,6
-2.86071e-05,1.34278e-05,-2.38709e-06,4.12513e-06,1.32311e-05,0.000100857,2.65684e-05,-1.93924e-05,6
-2.96948e-05,1.19654e-05,-5.8707e-06,1.02307e-06,6.0447e-06,2.92937e-05,-4.74287e-06,-1.67679e-05,6
-2.74911e-05,1.30666e-05,-6.34391e-06,1.13507e-06,5.8758e-06,-3.75556e-05,-1.1148e-05,-8.46193e-06,6
-2.28238e-05,1.56056e-05,-3.88268e-06,1.48803e-06,1.1833e-05,-8.07311e-05,-4.15171e-06,4.3064e-06,6
-2.17855e-05,1.6216e-05,-3.14712e-06,2.04813e-06,1.42564e-05,-9.48836e-05,-1.65113e-05,9.6021e-06,6
-2.752e-05,1.29522e-05,-4.24962e-06,1.00606e-06,9.06763e-06,-8.40388e-05,-4.59111e-05,2.74196e-06,6
-3.39595e-05,9.40208e-06,-5.39293e-06,-1.48113e-06,4.70955e-06,-6.61887e-05,-5.92289e-05,-5.09376e-06,6
-3.43727e-05,9.39417e-06,-3.79773e-06,-1.9987e-06,6.74591e-06,-5.7177e-05,-4.44378e-05,-5.11409e-06,6
-3.18664e-05,1.20234e-05,-1.09976e-06,-2.00213e-06,1.03831e-05,-6.77104e-05,-2.24888e-05,2.49372e-08,6
-3.20658e-05,1.30473e-05,-1.54154e-06,-3.40584e-06,1.04192e-05,-8.79403e-05,-7.06049e-06,1.75593e-06,6
-3.37586e-05,1.25393e-05,-4.45784e-06,-6.47592e-06,9.19961e-06,-8.75068e-05,8.8006e-06,-2.92246e-08,6
-3.51511e-05,1.2343e-05,-6.47706e-06,-8.30196e-06,6.58006e-06,-5.7409e-05,1.58888e-05,-1.78531e-06,6
-3.48436e-05,1.28807e-05,-6.68604e-06,-6.88159e-06,-8.6466e-07,-1.91314e-05,8.16999e-06,3.06231e-07,6
-3.46439e-05,1.4071e-05,-6.10962e-06,-3.65163e-06,-1.13132e-05,4.87185e-06,5.65045e-07,7.48527e-06,6
-3.51917e-05,1.5339e-05,-5.2901e-06,-9.32814e-07,-1.64278e-05,1.60492e-05,6.3595e-06,1.99914e-05,6
-3.49344e-05,1.61192e-05,-5.24156e-06,9.50346e-08,-1.38947e-05,2.96081e-05,2.35177e-05,3.39201e-05,6
-3.37251e-05,1.57622e-05,-6.56495e-06,-4.23487e-07,-1.05227e-05,4.26837e-05,3.93149e-05,4.32422e-05,6
-3.27273e-05,1.44211e-05,-7.8857e-06,-1.39518e-06,-1.05377e-05,3.41088e-05,5.1271e-05,4.88228e-05,6
-3.32206e-05,1.27225e-05,-8.12074e-06,-2.17381e-06,-1.14407e-05,2.86224e-06,5.26523e-05,5.21445e-05,6
-3.50212e-05,1.14111e-05,-7.88499e-06,-3.0782e-06,-1.14401e-05,-3.53409e-05,3.20863e-05,4.41601e-05,6
-3.86612e-05,1.09929e-05,-8.04522e-06,-4.61291e-06,-1.15009e-05,-7.0353e-05,5.86739e-07,4.70795e-06,6
-4.22385e-05,1.23255e-05,-8.26565e-06,-5.98384e-06,-8.28606e-06,-9.40805e-05,-1.44495e-05,-6.32362e-05,6
-4.03547e-05,1.35796e-05,-8.47577e-06,-6.44212e-06,3.95538e-06,-9.14852e-05,-2.31592e-06,-0.000113607,6
-3.24935e-05,1.26118e-05,-9.95917e-06,-7.12617e-06,2.38883e-05,-6.70494e-05,1.78228e-05,-0.000111413,6
-2.54729e-05,9.49072e-06,-1.25222e-05,-8.74977e-06,4.18034e-05,-4.80373e-05,2.18687e-05,-8.06648e-05,6
-2.39564e-05,6.90367e-06,-1.4271e-05,-9.82659e-06,5.08866e-05,-4.18819e-05,1.28258e-05,-5.47074e-05,6
-2.53316e-05,6.64365e-06,-1.39522e-05,-9.07314e-06,4.86654e-05,-3.64328e-05,5.80429e-06,-3.87037e-05,6
-2.32426e-05,8.58971e-06,-1.06731e-05,-7.21961e-06,3.31072e-05,-3.0721e-05,3.01566e-06,-2.24375e-05,6
-1.56754e-05,1.06061e-05,-7.32747e-06,-3.72618e-06,1.22146e-05,-3.33678e-05,-1.84046e-06,6.44109e-06,6
-1.04754e-05,1.14465e-05,-6.23592e-06,-2.01528e-06,2.70016e-06,-4.45904e-05,-9.75828e-06,3.76606e-05,6
-2.56742e-05,1.30533e-05,-7.41753e-06,-3.95273e-06,1.19872e-05,-4.37141e-05,-1.01349e-05,4.63267e-05,6
-5.05588e-05,1.39564e-05,-9.93975e-06,-4.65889e-06,2.6024e-05,-1.69672e-05,2.66577e-06,4.52058e-05,6
-5.40586e-05,1.2747e-05,-9.62915e-06,-3.78455e-06,2.94742e-05,6.83264e-06,1.37717e-05,4.35546e-05,6
-3.80753e-05,1.0084e-05,-7.65204e-06,-3.43624e-06,2.41593e-05,8.28517e-06,1.26772e-05,2.89768e-05,6
-2.21157e-05,8.13225e-06,-6.08805e-06,-1.58499e-06,1.80731e-05,-6.06921e-06,7.14657e-06,1.31631e-05,6
-1.8689e-05,9.02618e-06,-5.37441e-06,1.28395e-06,1.35087e-05,-2.46864e-05,2.86941e-06,4.16438e-06,6
-2.44696e-05,1.06525e-05,-6.61844e-06,1.76238e-06,8.49293e-06,-2.9853e-05,4.56083e-07,1.89358e-06,6
-3.11784e-05,1.0785e-05,-6.46724e-06,1.11525e-06,7.04186e-06,-2.20876e-05,1.08755e-06,2.52568e-06,6
-3.44339e-05,1.00542e-05,-5.56649e-06,1.81715e-06,9.54205e-06,-1.95104e-05,4.02452e-06,4.58825e-06,6
-3.42077e-05,8.35705e-06,-6.23737e-06,1.65667e-06,1.08019e-05,-3.33241e-05,5.6763e-06,5.3875e-06,6
-3.32402e-05,6.10152e-06,-8.27175e-06,-1.05008e-06,9.55471e-06,-5.24068e-05,6.31509e-06,2.72876e-06,6
-3.23577e-05,5.45806e-06,-1.02786e-05,-3.86129e-06,9.38694e-06,-5.66906e-05,8.17122e-06,-1.6037e-07,6
-3.19446e-05,6.69357e-06,-1.08736e-05,-4.33466e-06,1.11435e-05,-3.46129e-05,1.31251e-05,-2.35666e-06,6
-3.16169e-05,8.17021e-06,-1.07303e-05,-4.11948e-06,1.36871e-05,1.1144e-05,2.1187e-05,-2.96623e-06,6
-3.15247e-05,8.55924e-06,-1.03187e-05,-5.07864e-06,1.5418e-05,6.9361e-05,3.30986e-05,-1.55224e-06,6
-3.1118e-05,9.40714e-06,-9.77546e-06,-6.12327e-06,1.55802e-05,0.00011685,4.62775e-05,1.994e-06,6
-3.01522e-05,1.24445e-05,-8.3153e-06,-6.67624e-06,1.49765e-05,0.000123008,4.87185e-05,4.95919e-06,6
-2.86684e-05,1.62574e-05,-7.21496e-06,-5.98181e-06,1.10772e-05,8.26105e-05,3.14761e-05,6.14153e-06,6
-2.84499e-05,1.70637e-05,-7.90548e-06,-5.27535e-06,3.19792e-06,2.18276e-05,2.90253e-06,3.28166e-06,6
-2.98679e-05,1.37853e-05,-1.00288e-05,-6.60297e-06,-1.42759e-06,-2.13592e-05,-1.60899e-05,-2.71352e-06,6
-3.1252e-05,1.02511e-05,-1.1731e-05,-8.0622e-06,6.95068e-06,-2.75732e-05,-1.08471e-05,-6.11992e-06,6
-3.09586e-05,9.53808e-06,-1.12203e-05,-6.37072e-06,2.17097e-05,-1.19965e-05,7.03262e-06,-5.06428e-06,6
-3.00327e-05,1.07325e-05,-8.99717e-06,-5.78135e-07,2.877e-05,1.11594e-06,1.50374e-05,-4.73647e-06,6
-2.96407e-05,1.2298e-05,-8.13991e-06,8.0466e-06,2.73847e-05,6.00992e-06,1.21759e-05,-6.31176e-06,6
-2.91323e-05,1.48689e-05,-8.06723e-06,1.53973e-05,2.43723e-05,6.29625e-06,7.59781e-06,-8.17282e-06,6
-2.92108e-05,1.71666e-05,-5.94243e-06,1.78657e-05,2.06183e-05,3.82568e-06,3.97939e-06,-7.86962e-06,6
-3.05386e-05,1.73889e-05,-4.32704e-06,1.66956e-05,1.63395e-05,-5.72518e-07,1.82873e-06,-4.32306e-06,6
-3.16836e-05,1.70707e-05,-4.52555e-06,1.28348e-05,1.43993e-05,-3.26351e-06,5.13093e-06,-7.60906e-07,6
-3.17531e-05,1.78177e-05,-4.93713e-06,6.25771e-06,1.538e-05,-6.47702e-06,7.79449e-06,1.07201e-07,6
-3.13232e-05,1.75384e-05,-6.60918e-06,-3.23359e-06,1.51238e-05,-1.08194e-05,7.17491e-06,-7.42963e-07,6
-3.00775e-05,1.68948e-05,-8.59702e-06,-1.59859e-05,1.19957e-05,-2.35058e-05,6.70832e-06,-1.94419e-06,6
-2.98155e-05,1.7033e-05,-8.46578e-06,-2.64906e-05,8.58653e-06,-4.81617e-05,7.46529e-06,-4.25946e-06,6
-3.17332e-05,1.68929e-05,-6.46213e-06,-2.8782e-05,6.98259e-06,-7.61297e-05,1.73734e-05,-4.31747e-06,6
-3.1865e-05,1.76331e-05,-5.34548e-06,-2.44027e-05,7.4851e-06,-0.000108137,3.13834e-05,-1.45085e-06,6
-3.00081e-05,1.84114e-05,-5.66745e-06,-1.80712e-05,7.7274e-06,-0.000129353,3.52339e-05,3.99092e-07,6
-2.93808e-05,1.85352e-05,-5.65463e-06,-1.40702e-05,6.65744e-06,-0.000124644,2.12316e-05,-6.20744e-07,6
-2.91843e-05,1.81863e-05,-5.47239e-06,-1.24553e-05,4.69525e-06,-9.27618e-05,1.37349e-06,-2.4939e-06,6
-2.73111e-05,1.78535e-05,-4.64118e-06,-1.10112e-05,5.916e-06,-2.89544e-05,-6.4829e-06,-2.25259e-06,6
-2.43058e-05,1.85365e-05,-2.98771e-06,-9.50412e-06,1.25327e-05,4.75478e-05,2.66364e-07,8.19431e-07,6
-2.37801e-05,1.95333e-05,-1.34335e-06,-9.24436e-06,1.90693e-05,0.000110753,1.11155e-05,3.63783e-06,6
-2.74896e-05,1.88878e-05,-2.36994e-06,-1.16857e-05,1.79403e-05,0.000149323,1.63247e-05,2.73208e-06,6
-3.41489e-05,1.6329e-05,-5.99387e-06,-1.42387e-05,1.05449e-05,0.000143572,2.20217e-05,-1.42358e-06,6
-4.03735e-05,1.37271e-05,-8.99364e-06,-1.28173e-05,6.55626e-06,9.25498e-05,3.60858e-05,-5.05471e-06,6
-4.46541e-05,1.27036e-05,-8.84638e-06,-7.60867e-06,1.01566e-05,2.44228e-05,5.22393e-05,-5.55159e-06,6
-4.67605e-05,1.29066e-05,-7.38675e-06,-2.36205e-06,1.56097e-05,-3.11038e-05,5.71719e-05,-3.37716e-06,6
-4.64001e-05,1.28464e-05,-6.3073e-06,2.48464e-07,1.73613e-05,-5.80488e-05,4.75405e-05,-1.4749e-07,6
-4.29418e-05,1.25637e-05,-4.47769e-06,3.57118e-07,1.56824e-05,-6.94527e-05,3.2363e-05,4.54151e-06,6
-3.69204e-05,1.21028e-05,-3.63478e-06,-1.02426e-06,1.23887e-05,-9.34287e-05,2.35592e-05,1.12459e-05,6
-2.96354e-05,1.09081e-05,-5.46704e-06,-3.17906e-06,7.92779e-06,-0.000117817,1.98579e-05,1.6739e-05,6
-1.18274e-05,1.00687e-05,-7.97639e-06,-5.24782e-06,3.64823e-06,-0.000100433,7.852e-06,1.62503e-05,6
3.01568e-05,1.00766e-05,-9.27731e-06,-5.7239e-06,1.06017e-06,-3.17885e-05,-1.39196e-05,1.14267e-05,6
5.77214e-05,8.86878e-06,-1.03023e-05,-5.05089e-06,2.8626e-07,3.3955e-05,-2.06415e-05,9.13794e-06,6
1.80867e-05,6.70395e-06,-1.15009e-05,-4.98883e-06,3.12899e-06,5.4636e-05,-1.88934e-06,9.95183e-06,6
-5.62625e-05,5.8238e-06,-1.07594e-05,-4.62964e-06,9.34648e-06,6.6664e-05,2.19111e-05,4.52391e-06,6
