ch1,ch2,ch3,ch4,ch5,ch6,ch7,ch8,class
-1.92043e-05,1.90321e-05,-7.78701e-06,-3.34757e-06,3.58909e-06,-3.51862e-05,8.49186e-05,-1.95537e-07,6
-2.28082e-05,1.87288e-05,-7.07635e-06,-2.18069e-06,-1.16085e-05,2.29039e-05,4.45366e-05,-1.9416e-06,6
-2.49171e-05,1.70151e-05,-4.56442e-06,-2.42888e-07,-2.61791e-05,7.1749e-05,-6.54224e-06,-5.24448e-06,6
-2.51156e-05,1.492e-05,-2.18537e-06,5.20578e-07,-3.46254e-05,8.33287e-05,-6.04195e-05,-9.26244e-06,6
-2.46366e-05,1.49717e-05,-8.86363e-07,6.82131e-07,-3.35891e-05,4.73807e-05,-9.15207e-05,-1.17942e-05,6
-2.45819e-05,1.60998e-05,-1.39949e-06,5.88574e-07,-2.26084e-05,-2.81386e-05,-7.66172e-05,-1.14863e-05,6
-2.44957e-05,1.66723e-05,-3.78032e-06,-6.88633e-07,-4.51608e-06,-0.00011442,-2.59435e-05,-9.46838e-06,6
-2.49729e-05,1.63148e-05,-7.00888e-06,-2.29786e-06,1.96572e-05,-0.000173375,3.3592e-05,-7.13681e-06,6
-2.53351e-05,1.61449e-05,-9.04581e-06,-4.10423e-06,4.69562e-05,-0.000183942,7.71611e-05,-3.94102e-06,6
-2.58349e-05,1.67557e-05,-8.8371e-06,-5.99075e-06,6.98658e-05,-0.000152194,8.77627e-05,-4.32384e-07,6
-2.75409e-05,1.72578e-05,-8.34107e-06,-6.82639e-06,7.79792e-05,-0.000106002,7.0205e-05,1.57648e-06,6
-2.90666e-05,1.68402e-05,-8.97012e-06,-6.38674e-06,6.82725e-05,-6.58034e-05,4.90509e-05,2.11963e-06,6
-2.93696e-05,1.71813e-05,-9.53228e-06,-5.68091e-06,4.71105e-05,-3.32877e-05,3.63305e-05,1.78138e-06,6
-2.941e-05,1.75878e-05,-9.63522e-06,-5.74213e-06,2.37073e-05,-4.9318e-06,2.90534e-05,1.13007e-06,6
-2.9811e-05,1.67033e-05,-9.80644e-06,-5.67914e-06,6.80802e-06,1.75487e-05,2.51466e-05,4.17274e-07,6
-3.09655e-05,1.672e-05,-9.58772e-06,-4.2988e-06,2.49205e-06,3.27427e-05,2.32209e-05,4.98003e-07,6
-3.06867e-05,1.71369e-05,-8.36234e-06,-3.51086e-06,5.37496e-06,3.6783e-05,2.16346e-05,1.54797e-06,6
-2.79446e-05,1.61502e-05,-5.24029e-06,-4.08814e-06,5.83164e-06,2.97067e-05,1.87365e-05,2.19638e-06,6
-2.69694e-05,1.42034e-05,-3.48051e-06,-4.80378e-06,3.47182e-06,1.47017e-05,1.53482e-05,1.37953e-06,6
-2.88596e-05,1.30251e-05,-4.39466e-06,-6.41951e-06,4.30094e-06,-4.35744e-06,1.12779e-05,4.16539e-07,6
-3.15612e-05,1.35251e-05,-5.27662e-06,-8.9204e-06,8.00236e-06,-2.74395e-05,7.88475e-06,8.5941e-08,6
-3.33284e-05,1.35126e-05,-7.28574e-06,-1.05653e-05,1.06286e-05,-6.1286e-05,4.25583e-06,6.69549e-07,6
-3.38217e-05,1.25778e-05,-9.57565e-06,-1.14035e-05,1.17135e-05,-0.00010212,8.06071e-07,1.90586e-06,6
-3.32463e-05,1.2018e-05,-1.12024e-05,-1.05472e-05,9.23789e-06,-0.000132291,5.70934e-07,1.76938e-06,6
-3.16497e-05,1.19907e-05,-1.08767e-05,-8.12863e-06,3.30524e-06,-0.000125814,5.69183e-06,8.38491e-07,6
-2.81686e-05,1.3289e-05,-8.89229e-06,-6.69719e-06,-4.31234e-06,-8.47351e-05,2.21982e-05,2.13104e-06,6
-2.46891e-05,1.47836e-05,-6.54238e-06,-5.99821e-06,-1.06609e-05,-4.35115e-05,4.58888e-05,5.23111e-06,6
-2.42406e-05,1.57245e-05,-5.24844e-06,-4.75205e-06,-1.38397e-05,-2.58966e-05,5.80257e-05,6.55933e-06,6
-2.79192e-05,1.59468e-05,-5.45454e-06,-4.14099e-06,-1.54897e-05,-3.0035e-05,5.20855e-05,5.0726e-06,6
-3.22572e-05,1.59377e-05,-6.25076e-06,-6.09439e-06,-1.65544e-05,-4.126e-05,3.59823e-05,2.06235e-06,6
-3.32035e-05,1.61714e-05,-6.15493e-06,-8.42163e-06,-1.19167e-05,-5.17192e-05,1.4109e-05,1.30305e-07,6
-3.17773e-05,1.60973e-05,-5.37689e-06,-8.85037e-06,1.80634e-06,-6.3521e-05,-1.36583e-05,-8.21519e-07,6
-3.23485e-05,1.44406e-05,-5.85604e-06,-7.87444e-06,1.66609e-05,-7.15311e-05,-4.26188e-05,-4.42427e-06,6
-3.57094e-05,1.12216e-05,-7.3844e-06,-7.29736e-06,2.26499e-05,-5.37929e-05,-6.7402e-05,-1.11035e-05,6
-3.86708e-05,8.64371e-06,-8.83681e-06,-7.56097e-06,2.11908e-05,3.52236e-06,-7.935e-05,-1.52017e-05,6
-3.93071e-05,7.61547e-06,-8.98549e-06,-7.94425e-06,1.69474e-05,6.57128e-05,-7.12553e-05,-1.26636e-05,6
-3.90153e-05,7.18147e-06,-9.02074e-06,-7.72523e-06,9.34655e-06,8.19577e-05,-5.14545e-05,-8.08805e-06,6
-3.86114e-05,6.32596e-06,-9.51847e-06,-7.45847e-06,-2.45539e-06,5.47621e-05,-2.85238e-05,-5.93225e-06,6
-3.64074e-05,6.3374e-06,-1.08605e-05,-6.72526e-06,-1.44096e-05,2.66959e-05,9.59564e-07,-3.99522e-06,6
-3.24049e-05,8.30738e-06,-1.11967e-05,-4.08265e-06,-2.03685e-05,2.61884e-05,3.57285e-05,1.0956e-06,6
-2.90249e-05,9.57808e-06,-1.05551e-05,-1.79226e-06,-1.98137e-05,4.37942e-05,5.55568e-05,6.60671e-06,6
-2.90855e-05,7.84847e-06,-1.00609e-05,-3.09513e-06,-1.77196e-05,4.78522e-05,4.89143e-05,7.58593e-06,6
-3.09538e-05,5.33415e-06,-9.5516e-06,-6.9001e-06,-1.46969e-05,3.78515e-05,3.03435e-05,5.84134e-06,6
-3.24709e-05,3.61129e-06,-8.68802e-06,-1.02976e-05,-9.31389e-06,3.7666e-05,1.9652e-05,5.89403e-06,6
-3.33228e-05,4.13348e-06,-7.63539e-06,-1.09373e-05,-9.48439e-06,4.45701e-05,2.31547e-05,7.93969e-06,6
-3.42528e-05,4.94744e-06,-6.30447e-06,-7.55907e-06,-1.53128e-05,4.10881e-05,2.93108e-05,7.79446e-06,6
-2.53891e-05,4.02543e-06,-4.99964e-06,-3.69516e-06,-1.14492e-05,2.71304e-05,3.30151e-05,4.94221e-06,6
1.78767e-05,4.77349e-06,-4.84799e-06,-2.92705e-06,7.636e-06,-2.92981e-06,3.30765e-05,3.18727e-06,6
7.41877e-05,8.5424e-06,-3.71798e-06,-1.83621e-06,3.47922e-05,-3.89426e-05,2.61691e-05,3.35961e-06,6
7.91008e-05,1.25934e-05,-1.00868e-06,4.20278e-07,5.93244e-05,-5.19869e-05,1.28032e-05,4.04974e-06,6
2.53959e-05,1.41208e-05,1.71601e-07,6.86708e-08,7.01206e-05,-6.03679e-05,-7.24754e-06,2.89947e-06,6
-4.15756e-05,1.35299e-05,-2.34006e-06,-1.92559e-06,5.79706e-05,-8.89616e-05,-2.71562e-05,4.42548e-07,6
-8.30832e-05,1.27526e-05,-6.16201e-06,-4.00664e-06,2.93523e-05,-0.000110592,-3.31574e-05,-1.74154e-06,6
-8.99998e-05,1.32417e-05,-7.95968e-06,-3.99333e-06,6.66341e-06,-7.73401e-05,-1.36229e-05,-8.12081e-07,6
-8.14147e-05,1.40537e-05,-7.61028e-06,-2.94015e-06,1.53353e-07,2.82675e-06,1.71279e-05,2.95388e-06,6
-7.99793e-05,1.39316e-05,-7.11507e-06,-3.21499e-06,3.63759e-06,4.99366e-05,3.12979e-05,4.63444e-06,6
-9.21465e-05,1.19255e-05,-8.89691e-06,-3.2887e-06,6.80151e-06,2.51019e-05,2.47773e-05,1.46128e-06,6
-0.000104459,7.63568e-06,-1.28926e-05,-3.79715e-06,6.4238e-06,-2.37237e-05,1.55638e-05,-5.47106e-06,6
-9.93014e-05,3.27709e-06,-1.65399e-05,-6.17101e-06,4.2502e-06,-5.20351e-05,1.39188e-05,-1.18024e-05,6
-7.42194e-05,1.81457e-06,-1.75706e-05,-7.48039e-06,3.91312e-06,-4.39635e-05,1.90585e-05,-1.27607e-05,6
-4.59244e-05,4.26544e-06,-1.55662e-05,-5.51129e-06,6.47936e-06,1.19929e-05,2.64488e-05,-7.70598e-06,6
-3.08839e-05,8.19977e-06,-1.22628e-05,-3.29242e-06,9.88215e-06,9.73851e-05,2.75537e-05,-1.66647e-06,6
-2.97551e-05,1.04056e-05,-8.97015e-06,-3.421e-06,1.24376e-05,0.000145088,1.64992e-05,7.21938e-08,6
-3.38305e-05,1.02483e-05,-6.65088e-06,-4.47037e-06,1.40389e-05,0.000117468,-2.80572e-06,-4.8153e-06,6
-3.84268e-05,1.00703e-05,-5.61391e-06,-5.01325e-06,1.45073e-05,5.3141e-05,-2.06411e-05,-1.33148e-05,6
-4.19435e-05,1.109e-05,-5.44601e-06,-5.37598e-06,1.2489e-05,2.27072e-06,-2.88883e-05,-1.94892e-05,6
-4.29141e-05,1.24839e-05,-4.70136e-06,-3.60158e-06,1.0574e-05,-1.97944e-05,-2.19063e-05,-1.80363e-05,6
-4.17016e-05,1.43854e-05,-4.39653e-06,1.12797e-06,1.15056e-05,-2.29049e-05,-5.56702e-06,-1.04277e-05,6
-4.3626e-05,1.55745e-05,-4.51623e-06,4.6716e-06,1.34401e-05,-1.65888e-05,6.40157e-06,-4.64797e-06,6
-5.25958e-05,1.52282e-05,-3.24772e-06,3.89598e-06,1.49682e-05,-2.4713e-06,1.14737e-05,-6.406e-06,6
-6.36758e-05,1.38209e-05,-2.24285e-06,8.50804e-07,1.53684e-05,1.31196e-05,1.80671e-05,-1.06883e-05,6
-6.70324e-05,1.23225e-05,-1.59047e-06,-5.94908e-07,1.25803e-05,2.18938e-05,3.13106e-05,-8.90449e-06,6
-5.90812e-05,1.14045e-05,-1.04772e-06,-1.71761e-07,1.09279e-05,1.83667e-05,4.25407e-05,-9.52422e-06,6
-4.17164e-05,1.21704e-05,-2.38784e-06,-6.77333e-07,1.32289e-05,1.1391e-05,4.37837e-05,-1.71379e-05,6
-1.77309e-05,1.39143e-05,-2.84478e-06,4.64015e-08,1.54815e-05,1.29484e-05,4.1936e-05,-2.13557e-05,6
1.4426e-06,1.46727e-05,-1.95175e-06,2.00644e-06,1.3563e-05,-3.20828e-06,3.32715e-05,-1.50876e-05,6
1.06916e-05,1.52431e-05,-2.90512e-06,1.13082e-06,1.06215e-05,-5.16574e-05,1.31574e-05,7.50088e-06,6
1.21774e-05,1.52482e-05,-4.38466e-06,-1.78668e-06,9.1132e-06,-0.000100845,-8.23106e-06,2.929e-05,6
8.57791e-06,1.32601e-05,-6.1517e-06,-2.67177e-06,9.1734e-06,-0.000111899,-1.51552e-05,4.52206e-05,6
3.72141e-06,9.78842e-06,-7.13453e-06,-1.5488e-06,1.06378e-05,-8.14767e-05,-7.62985e-06,6.00514e-05,6
-4.73177e-06,8.35925e-06,-7.7418e-06,-1.85308e-06,1.16925e-05,-3.13393e-05,2.69146e-06,5.65568e-05,6
-1.61477e-05,8.67042e-06,-7.84243e-06,-1.41797e-06,1.15273e-05,2.01955e-05,7.85234e-06,3.74797e-05,6
-2.79825e-05,9.30245e-06,-6.19958e-06,2.30906e-06,1.11656e-05,5.39311e-05,4.60338e-06,1.8276e-05,6
-3.68218e-05,1.01977e-05,-3.6741e-06,7.20191e-06,1.28602e-05,5.43554e-05,-2.76126e-06,7.39753e-06,6
-4.0049e-05,1.24394e-05,-2.41082e-07,9.90876e-06,1.57767e-05,3.18956e-05,-1.01851e-05,2.64788e-07,6
-3.50743e-05,1.56458e-05,4.70047e-06,1.01428e-05,2.07181e-05,1.31737e-05,-1.36894e-05,-1.24108e-05,6
-2.42557e-05,1.78314e-05,1.04277e-05,8.904e-06,2.69093e-05,1.31994e-06,-9.44839e-06,-3.49552e-05,6
-1.68947e-05,1.87419e-05,1.39035e-05,5.95146e-06,2.9749e-05,-1.50881e-05,5.60042e-06,-5.17511e-05,6
-1.46344e-05,1.77693e-05,1.25471e-05,2.06059e-06,2.62067e-05,-2.8689e-05,2.90778e-05,-4.22566e-05,6
-1.13219e-05,1.59501e-05,5.78008e-06,-9.6197e-07,2.11547e-05,-1.55224e-05,5.21564e-05,-1.14399e-05,6
-4.76425e-06,1.37834e-05,-3.84316e-06,-3.684e-06,1.99618e-05,1.95387e-05,5.97421e-05,2.37386e-05,6
-1.40283e-06,1.15946e-05,-1.42144e-05,-8.49055e-06,2.02251e-05,5.10392e-05,3.82359e-05,4.6582e-05,6
-5.36168e-06,9.86862e-06,-2.4873e-05,-1.67262e-05,1.75969e-05,7.72328e-05,-1.2298e-05,4.38621e-05,6
-1.26862e-05,1.01805e-05,-3.37232e-05,-2.55883e-05,1.32298e-05,9.95407e-05,-6.08152e-05,2.72974e-05,6
-1.79014e-05,1.23327e-05,-3.65945e-05,-2.95838e-05,9.96971e-06,0.00010701,-7.00423e-05,2.2248e-05,6
-2.15171e-05,1.35606e-05,-3.401e-05,-2.92512e-05,1.15642e-05,8.75944e-05,-3.79813e-05,3.30167e-05,6
-2.29552e-05,1.28645e-05,-2.94876e-05,-2.84447e-05,1.70139e-05,1.97805e-05,9.99463e-06,4.68231e-05,6
-2.42101e-05,1.0884e-05,-2.68871e-05,-2.90467e-05,1.76688e-05,-8.31973e-05,5.45817e-05,5.13328e-05,6
-2.93939e-05,8.14264e-06,-2.49194e-05,-2.81045e-05,1.04232e-05,-0.000167512,9.69825e-05,4.84868e-05,6
-3.69203e-05,6.3631e-06,-2.23309e-05,-2.36839e-05,3.01135e-06,-0.000179881,0.000112565,3.82737e-05,6
-4.05002e-05,8.81049e-06,-1.93141e-05,-1.8054e-05,1.97449e-06,-0.000134341,9.10326e-05,5.41106e-06,6
-4.17315e-05,1.47069e-05,-1.40469e-05,-1.28684e-05,7.19527e-06,-8.50526e-05,5.80328e-05,-5.98452e-05,6
-4.57114e-05,1.94144e-05,-1.13417e-05,-9.60371e-06,1.47823e-05,-6.43069e-05,2.35845e-05,-0.000120245,6
-4.72898e-05,1.94343e-05,-1.3256e-05,-7.43796e-06,1.94584e-05,-7.18482e-05,-2.09663e-07,-0.00012749,6
-4.19053e-05,1.62129e-05,-1.50218e-05,-4.45947e-06,2.39209e-05,-6.5587e-05,-9.16635e-06,-9.26292e-05,6
-3.38747e-05,1.42273e-05,-1.24689e-05,-7.58889e-07,2.7947e-05,-4.35497e-05,-6.6691e-06,-5.64713e-05,6
-2.9083e-05,1.29585e-05,-7.64789e-06,2.88808e-06,3.06204e-05,-2.34726e-05,-1.48115e-06,-3.84777e-05,6
-2.6158e-05,1.21133e-05,-3.60229e-06,6.3044e-06,3.14369e-05,-1.40434e-05,1.9104e-06,-3.24235e-05,6
-2.18695e-05,1.19228e-05,-4.17371e-07,8.17368e-06,3.13287e-05,-6.64529e-06,3.63335e-06,-2.12522e-05,6
-1.56956e-05,1.23185e-05,2.43172e-06,8.97766e-06,3.14531e-05,4.11958e-06,6.05192e-06,6.92959e-06,6
-1.19627e-05,1.17079e-05,3.32122e-06,8.55863e-06,3.07123e-05,1.20879e-05,1.34014e-05,3.81974e-05,6
-1.24109e-05,9.33134e-06,9.26893e-07,5.79162e-06,2.86251e-05,1.24405e-05,2.76384e-05,5.27699e-05,6
-1.41866e-05,7.13916e-06,-3.64639e-06,2.01336e-06,2.49827e-05,9.74277e-07,4.4769e-05,5.48934e-05,6
-1.64047e-05,5.70748e-06,-7.30668e-06,-1.12578e-07,2.18089e-05,-3.37619e-06,5.03616e-05,4.91873e-05,6
-2.09767e-05,5.60147e-06,-8.44407e-06,-2.14178e-07,1.94108e-05,1.84705e-05,4.15616e-05,2.96538e-05,6
-2.64914e-05,6.91192e-06,-8.66701e-06,-2.82639e-07,1.82859e-05,5.28607e-05,2.76941e-05,5.72977e-06,6
-2.92835e-05,9.55133e-06,-6.91784e-06,-1.30586e-06,1.81769e-05,5.20563e-05,1.89762e-05,-4.4362e-06,6
-2.88036e-05,1.16423e-05,-2.66755e-06,-3.01483e-06,1.9181e-05,-4.04321e-06,1.52287e-05,-1.93158e-06,6
-2.61459e-05,1.25712e-05,3.70761e-07,-3.02277e-06,2.0443e-05,-7.05898e-05,1.57751e-05,1.96151e-06,6
-2.32276e-05,1.28395e-05,1.51608e-07,1.73925e-07,2.2625e-05,-6.24116e-05,2.06769e-05,4.9621e-06,6
-2.20289e-05,1.25859e-05,-2.72241e-06,3.18501e-06,2.38167e-05,2.24018e-05,2.21641e-05,7.69422e-06,6
-2.40994e-05,1.00358e-05,-7.82291e-06,3.587e-06,2.06439e-05,6.04799e-05,4.79523e-06,4.80809e-06,6
-2.73611e-05,6.3599e-06,-1.08897e-05,5.36676e-06,1.36695e-05,9.14444e-06,-1.85558e-05,-2.4047e-06,6
-2.96453e-05,4.41686e-06,-9.7963e-06,9.68217e-06,8.38762e-06,-3.82878e-05,-2.89801e-05,-4.69355e-06,6
-3.13973e-05,4.76194e-06,-6.85763e-06,1.39512e-05,7.64637e-06,-4.36457e-05,-2.46508e-05,6.47476e-07,6
-3.37362e-05,6.73554e-06,-5.19877e-06,1.30248e-05,7.7786e-06,-3.35988e-05,-1.21267e-05,6.03577e-06,6
-3.72369e-05,1.0059e-05,-5.99708e-06,7.06527e-06,8.07348e-06,-3.83496e-05,-9.5683e-06,4.3803e-06,6
-4.02116e-05,1.35255e-05,-7.60906e-06,-7.26228e-08,9.20819e-06,-5.12981e-05,-1.90276e-05,-2.58766e-06,6
-4.17094e-05,1.38103e-05,-9.69412e-06,-1.08473e-05,1.26321e-05,-5.39109e-05,-2.77716e-05,-8.26787e-06,6
-4.23693e-05,1.2856e-05,-1.13472e-05,-2.42577e-05,1.54655e-05,-5.4959e-05,-2.48846e-05,-9.03869e-06,6
-4.33598e-05,1.5934e-05,-1.13555e-05,-3.20718e-05,1.3244e-05,-6.79915e-05,-1.39614e-05,-7.46755e-06,6
-4.43483e-05,2.24801e-05,-1.08959e-05,-3.05035e-05,1.01433e-05,-7.95634e-05,-4.45107e-06,-6.46317e-06,6
-4.24162e-05,2.67511e-05,-1.01263e-05,-2.36162e-05,9.98523e-06,-5.39493e-05,3.1446e-06,-6.1127e-06,6
-3.79627e-05,2.43793e-05,-8.42532e-06,-1.63064e-05,1.16502e-05,8.90627e-06,1.67199e-05,-5.04838e-06,6
-3.40712e-05,1.89439e-05,-7.49535e-06,-1.15836e-05,1.21709e-05,6.86397e-05,3.76098e-05,-4.68716e-06,6
-3.21856e-05,1.52747e-05,-7.93811e-06,-8.62626e-06,1.14546e-05,8.18509e-05,5.04161e-05,-6.02453e-06,6
-3.1155e-05,1.46466e-05,-7.16195e-06,-7.94879e-06,1.01075e-05,5.80275e-05,4.67257e-05,-7.79868e-06,6
-2.99263e-05,1.65162e-05,-5.10727e-06,-8.7956e-06,9.34296e-06,3.14832e-05,3.49135e-05,-8.11345e-06,6
-3.36822e-05,1.82959e-05,-4.40373e-06,-8.64198e-06,1.00354e-05,2.48869e-05,2.60946e-05,-6.6922e-06,6
-5.04287e-05,1.6765e-05,-6.02083e-06,-7.92857e-06,1.04536e-05,3.41294e-05,2.49004e-05,-5.31135e-06,6
-7.35575e-05,1.18971e-05,-8.20775e-06,-8.15495e-06,1.00379e-05,4.30547e-05,2.85123e-05,-5.27665e-06,6
-8.42008e-05,8.1432e-06,-8.44988e-06,-8.11955e-06,9.66924e-06,4.65362e-05,3.54144e-05,-6.07015e-06,6
-7.48371e-05,7.30633e-06,-7.11554e-06,-5.95492e-06,1.1783e-05,5.6681e-05,4.63311e-05,-5.81881e-06,6
-5.50453e-05,8.01815e-06,-5.55705e-06,-3.2097e-06,1.48742e-05,7.28218e-05,5.8259e-05,-4.39476e-06,6
-4.23606e-05,8.5106e-06,-4.71538e-06,-1.77291e-06,1.53877e-05,6.27016e-05,6.44378e-05,-2.73922e-06,6
-4.7942e-05,8.20525e-06,-4.90566e-06,-1.53474e-06,1.20748e-05,7.45353e-06,6.35193e-05,-1.94496e-06,6
-5.88757e-05,8.25087e-06,-4.71709e-06,-1.24732e-06,6.13578e-06,-5.90278e-05,5.2462e-05,-9.80338e-07,6
-3.57468e-05,1.21161e-05,-3.29819e-06,-5.58891e-08,3.91782e-07,-8.59523e-05,2.648e-05,3.36716e-06,6
3.08135e-05,1.76796e-05,-1.73548e-06,1.42143e-06,4.6367e-08,-7.02575e-05,-1.12824e-05,1.16018e-05,6
7.84839e-05,1.91721e-05,-1.86749e-06,2.48402e-07,1.92714e-06,-6.82044e-05,-4.84313e-05,1.59726e-05,6
6.03573e-05,1.61697e-05,-4.11699e-06,-3.28408e-06,2.3281e-06,-0.000108532,-6.91622e-05,1.20179e-05,6
1.20145e-05,1.36729e-05,-6.05455e-06,-5.50683e-06,3.55828e-06,-0.000137974,-7.03751e-05,4.68012e-06,6
-1.91617e-05,1.17607e-05,-7.97044e-06,-5.29483e-06,4.3486e-06,-0.000106615,-6.00602e-05,-2.39945e-06,6
-2.38586e-05,9.4212e-06,-8.17122e-06,-4.86401e-06,5.56138e-06,-3.01807e-05,-4.10702e-05,-3.39689e-06,6
-1.33783e-05,1.10574e-05,-5.52166e-06,-3.87203e-06,8.09422e-06,1.32404e-05,-2.27091e-05,3.64933e-06,6
-1.87115e-06,1.49116e-05,-3.63883e-06,-1.88622e-06,9.22723e-06,5.41089e-06,-2.02507e-05,8.2945e-06,6
2.74054e-06,1.50559e-05,-4.47715e-06,-3.80795e-07,4.97009e-06,1.09892e-05,-2.93476e-05,3.98821e-06,6
-3.16945e-06,1.08196e-05,-8.24428e-06,-2.81161e-06,-6.03866e-06,2.8837e-05,-3.18614e-05,-3.46115e-06,6
-1.444e-05,7.02921e-06,-1.23531e-05,-8.6327e-06,-1.72066e-05,9.3145e-06,-2.09734e-05,-7.49713e-06,6
-2.45866e-05,7.82819e-06,-1.39129e-05,-1.00093e-05,-1.86985e-05,-2.76136e-05,1.02722e-05,-5.79297e-06,6
-3.11822e-05,1.21476e-05,-1.17469e-05,-7.20962e-06,-8.37696e-06,-3.59576e-05,5.54523e-05,-9.97958e-08,6
-4.04946e-05,1.5304e-05,-9.56149e-06,-4.63381e-06,7.32166e-06,-2.15099e-05,7.75239e-05,3.29418e-06,6
-6.55379e-05,1.41948e-05,-1.01562e-05,-3.49592e-06,2.10632e-05,-7.99072e-06,6.78523e-05,2.50994e-06,6
-0.000106207,1.09033e-05,-1.21994e-05,-3.35683e-06,3.26184e-05,2.35094e-06,4.67671e-05,1.74815e-06,6
-0.000143435,8.94019e-06,-1.41645e-05,-4.20121e-06,4.55285e-05,1.03873e-05,3.2576e-05,3.46715e-06,6
-0.000155059,8.19109e-06,-1.45338e-05,-6.03963e-06,5.68986e-05,1.33427e-05,2.84833e-05,5.40848e-06,6
-0.000138911,7.22062e-06,-1.33676e-05,-7.47419e-06,5.83217e-05,1.35176e-05,2.74493e-05,5.24949e-06,6
-0.000113082,6.44745e-06,-1.06863e-05,-7.08543e-06,4.77362e-05,1.1213e-05,2.42249e-05,4.19154e-06,6
-9.26222e-05,7.31423e-06,-8.31425e-06,-5.29988e-06,3.30313e-05,4.23706e-06,1.75358e-05,4.4348e-06,6
-6.24379e-05,1.02553e-05,-7.54065e-06,-3.6869e-06,2.00618e-05,-6.21251e-06,1.083e-05,7.02133e-06,6
1.56904e-05,1.4919e-05,-7.47783e-06,-2.57724e-06,8.36796e-06,-1.48053e-05,4.4229e-06,1.00106e-05,6
0.000129767,1.90424e-05,-9.52995e-06,-2.36029e-06,-4.72707e-07,-1.82273e-05,-4.32859e-07,1.17077e-05,6
0.000179066,2.01904e-05,-1.31871e-05,-2.7802e-06,-3.81543e-06,-1.40869e-05,-2.9194e-06,1.02986e-05,6
0.00011124,1.80686e-05,-1.50264e-05,-2.79238e-06,1.05947e-06,-6.27255e-06,-5.20493e-06,3.87636e-06,6
1.0724e-05,1.50298e-05,-1.50946e-05,-2.18288e-06,1.44991e-05,-8.89401e-07,-1.13145e-05,-3.87346e-06,6
-3.62913e-05,1.32442e-05,-1.53452e-05,-2.05337e-06,3.14869e-05,7.29236e-07,-1.73814e-05,-7.70761e-06,6
-3.44557e-05,1.25656e-05,-1.43248e-05,-2.36694e-06,4.35058e-05,-3.35497e-07,-1.9843e-05,-5.23858e-06,6
-2.38527e-05,1.19473e-05,-1.05748e-05,-2.9857e-06,4.35249e-05,-1.10837e-05,-2.1206e-05,1.04607e-07,6
-2.32009e-05,1.1296e-05,-6.83739e-06,-3.49859e-06,3.56802e-05,-3.23815e-05,-1.41265e-05,2.91102e-06,6
-2.63662e-05,9.83973e-06,-5.49609e-06,-3.40794e-06,2.77077e-05,-3.67724e-05,2.25843e-05,6.11476e-06,6
-2.65145e-05,9.08527e-06,-5.43494e-06,-2.00191e-06,2.30447e-05,-1.74127e-05,6.23149e-05,1.21966e-05,6
-2.6735e-05,1.06236e-05,-6.85196e-06,-3.39892e-07,2.14988e-05,-1.85447e-06,6.91811e-05,1.54797e-05,6
-2.84176e-05,1.12647e-05,-9.96524e-06,-1.3918e-07,2.00515e-05,1.98065e-06,5.57722e-05,1.38334e-05,6
-2.61911e-05,1.02603e-05,-1.14237e-05,-1.12255e-06,1.64664e-05,1.0917e-06,3.48899e-05,1.04935e-05,6
-1.94767e-05,8.92415e-06,-1.12183e-05,-2.73846e-06,1.15018e-05,9.69545e-07,1.9591e-05,7.58405e-06,6
-1.37547e-05,7.87297e-06,-9.79015e-06,-4.6278e-06,5.40798e-06,3.03174e-06,1.5228e-05,5.31707e-06,6
-1.36666e-05,7.41872e-06,-8.00525e-06,-5.68942e-06,-8.88776e-07,6.92852e-06,2.57231e-05,3.71224e-06,6
-1.8762e-05,7.59076e-06,-7.48465e-06,-4.96647e-06,-3.99134e-06,1.37427e-05,4.6661e-05,2.40546e-06,6
-2.45516e-05,7.73037e-06,-7.80717e-06,-4.15759e-06,-4.54135e-06,1.04209e-05,6.4041e-05,2.25694e-07,6
-2.842e-05,8.31351e-06,-8.02656e-06,-2.90107e-06,-2.78978e-06,-1.54203e-05,6.6694e-05,-4.41589e-07,6
-3.12251e-05,9.74491e-06,-6.60838e-06,-7.59167e-07,1.877e-06,-5.55585e-05,5.39292e-05,1.91391e-06,6
-3.44876e-05,1.13235e-05,-5.02572e-06,1.63949e-06,7.51043e-06,-8.06013e-05,3.0794e-05,4.47219e-06,6
-2.57763e-05,1.28297e-05,-4.06672e-06,3.24111e-06,1.11481e-05,-7.84465e-05,-5.57469e-06,4.49877e-06,6
2.92512e-06,1.36381e-05,-3.11694e-06,2.59059e-06,1.24646e-05,-6.39123e-05,-4.96743e-05,6.03792e-06,6
2.34321e-05,1.3718e-05,-1.72302e-06,8.19976e-07,1.16986e-05,-4.48026e-05,-7.86425e-05,1.35027e-05,6
2.56864e-06,1.34788e-05,-1.19678e-06,1.50492e-07,9.52883e-06,-2.77888e-05,-7.51118e-05,1.90593e-05,6
-4.73751e-05,1.27743e-05,-2.59062e-06,4.93192e-07,9.0728e-06,-2.16336e-05,-5.17316e-05,1.38493e-05,6
-8.70292e-05,1.13965e-05,-4.91654e-06,4.65885e-07,1.39419e-05,-9.94233e-06,-2.71628e-05,3.31895e-06,6
-9.92767e-05,1.11432e-05,-6.6238e-06,1.80257e-07,2.55933e-05,4.33234e-05,-5.1426e-06,-1.8271e-06,6
-9.37067e-05,1.32156e-05,-7.83317e-06,-4.24876e-07,3.71568e-05,0.000124664,2.07416e-05,-7.52415e-07,6
-8.77243e-05,1.5328e-05,-9.4631e-06,-1.28658e-06,3.83216e-05,0.000154141,4.13708e-05,1.54113e-06,6
-9.36415e-05,1.54981e-05,-1.09777e-05,-3.15134e-06,2.77898e-05,0.000101479,4.55943e-05,1.56367e-06,6
-0.000109306,1.26882e-05,-1.11882e-05,-6.98204e-06,1.25666e-05,2.21574e-05,4.66763e-05,-1.00944e-07,6
-0.000118102,6.95784e-06,-1.01009e-05,-1.081e-05,1.65211e-06,-4.20782e-05,6.08854e-05,-2.7623e-06,6
-0.000104257,3.19066e-06,-9.43734e-06,-1.22173e-05,-1.60252e-06,-7.1882e-05,7.25113e-05,-5.3072e-06,6
-7.2476e-05,4.22491e-06,-9.51651e-06,-1.00521e-05,-3.99864e-07,-4.4939e-05,6.77649e-05,-4.23926e-06,6
-4.31781e-05,8.60438e-06,-8.65256e-06,-4.25997e-06,5.50777e-06,3.14005e-06,4.79837e-05,-4.12279e-07,6
-3.16528e-05,1.31587e-05,-5.94715e-06,2.28233e-07,1.24808e-05,-2.68103e-05,1.57903e-05,-6.1945e-08,6
-3.10095e-05,1.55631e-05,-2.90876e-06,1.84614e-06,1.6038e-05,-0.000145749,-2.36095e-05,-2.85987e-06,6
-3.02991e-05,1.71718e-05,-3.10739e-06,2.20431e-06,1.41214e-05,-0.000230832,-5.98579e-05,-4.96628e-06,6
-3.01189e-05,1.7523e-05,-5.98788e-06,3.72567e-07,5.29947e-06,-0.000172664,-5.84361e-05,-7.01308e-06,6
-2.99963e-05,1.59525e-05,-8.25764e-06,-2.73909e-06,-7.74568e-06,-1.71491e-05,-1.58356e-05,-5.97731e-06,6
-2.99875e-05,1.44944e-05,-9.98362e-06,-5.14161e-06,-1.97515e-05,7.85358e-05,3.41273e-05,-1.89058e-06,6
-2.8605e-05,1.49074e-05,-1.00987e-05,-4.48787e-06,-2.41478e-05,6.36826e-05,5.87025e-05,2.42611e-07,6
-2.61512e-05,1.57008e-05,-9.4042e-06,-2.14258e-06,-1.87111e-05,2.72531e-05,5.74409e-05,-1.19332e-06,6
-2.32873e-05,1.59413e-05,-7.57131e-06,-1.85068e-06,-5.20732e-06,3.29083e-05,5.16754e-05,-2.97764e-06,6
-2.37451e-05,1.57817e-05,-4.84738e-06,-4.42543e-06,8.81517e-06,5.39218e-05,4.54829e-05,-4.89094e-06,6
-2.91241e-05,1.5024e-05,-2.12629e-06,-6.04642e-06,1.26076e-05,4.72772e-05,3.4797e-05,-8.075e-06,6
-3.6289e-05,1.39837e-05,-1.86823e-06,-6.12061e-06,5.71818e-06,1.52799e-05,1.93458e-05,-1.27649e-05,6
-4.14848e-05,1.37033e-05,-4.07741e-06,-6.13462e-06,4.04282e-07,-1.25806e-05,6.90842e-06,-1.9141e-05,6
-4.11528e-05,1.41661e-05,-4.94447e-06,-6.83997e-06,7.62638e-06,-1.83293e-05,1.8527e-06,-2.51328e-05,6
-3.47467e-05,1.43214e-05,-5.07276e-06,-7.87862e-06,2.88464e-05,-1.02624e-05,2.68419e-06,-3.02244e-05,6
-2.56975e-05,1.46025e-05,-5.1117e-06,-7.16802e-06,5.68943e-05,-2.62619e-06,5.29612e-06,-3.14507e-05,6
-2.3825e-05,1.53173e-05,-4.71287e-06,-5.21016e-06,7.63555e-05,8.43383e-07,7.19101e-06,-2.38897e-05,6
-2.95272e-05,1.72226e-05,-4.85381e-06,-3.17577e-06,7.30871e-05,9.45224e-07,5.16047e-06,-7.47262e-06,6
-3.29854e-05,2.00729e-05,-5.93195e-06,-1.96869e-06,4.99291e-05,3.86529e-06,2.28653e-06,1.40027e-05,6
-2.8767e-05,2.04624e-05,-6.59827e-06,-2.53963e-06,2.4258e-05,9.91521e-06,7.20889e-06,3.91077e-05,6
-2.41638e-05,1.63312e-05,-7.4032e-06,-4.35978e-06,9.28625e-06,1.07241e-05,1.86911e-05,5.19602e-05,6
-2.23401e-05,1.14431e-05,-8.31599e-06,-6.04933e-06,3.38756e-06,4.19969e-06,2.55542e-05,3.78858e-05,6
-1.51559e-05,9.54682e-06,-9.50621e-06,-7.43491e-06,3.30918e-07,-2.02443e-06,2.50153e-05,1.39659e-05,6
-1.59083e-06,9.85478e-06,-9.79925e-06,-7.8346e-06,1.75736e-06,-1.9478e-06,2.31077e-05,1.58394e-07,6
1.00136e-05,1.22629e-05,-9.78301e-06,-7.96751e-06,6.00063e-06,1.69514e-06,2.16642e-05,-4.37198e-06,6
1.11835e-05,1.47826e-05,-9.25949e-06,-8.42815e-06,7.12966e-06,4.7985e-06,1.97119e-05,-1.32779e-05,6
2.55242e-06,1.29943e-05,-9.86011e-06,-9.34224e-06,4.65949e-06,3.72452e-06,9.40829e-06,-1.51782e-05,6
-3.29149e-06,9.62276e-06,-1.21218e-05,-1.03757e-05,2.74445e-07,1.30589e-07,-1.04109e-06,7.38991e-06,6
-5.16721e-06,8.28585e-06,-1.24155e-05,-1.18212e-05,-2.81782e-06,2.99639e-06,6.77424e-06,2.08884e-05,6
-9.9939e-06,9.2137e-06,-1.18018e-05,-1.18318e-05,-3.27585e-06,1.35908e-05,3.17843e-05,1.12943e-05,6
-1.47833e-05,1.08745e-05,-9.87108e-06,-1.02648e-05,-6.7912e-07,2.04902e-05,5.46408e-05,5.59813e-07,6
-1.80369e-05,1.19621e-05,-6.71989e-06,-8.97266e-06,4.64644e-06,1.66378e-05,6.13621e-05,-4.97835e-06,6
-2.05058e-05,1.17756e-05,-5.00956e-06,-7.72568e-06,9.95765e-06,5.86309e-06,5.247e-05,-5.71595e-06,6
-2.15997e-05,9.78632e-06,-4.62797e-06,-6.46257e-06,1.26583e-05,-1.63082e-05,2.82607e-05,-5.05673e-06,6
-2.22996e-05,7.76999e-06,-2.65356e-06,-3.86328e-06,1.30539e-05,-4.77525e-05,-3.16351e-06,9.95099e-07,6
-2.3347e-05,7.46472e-06,4.00702e-07,-5.39007e-08,1.44894e-05,-6.71474e-05,-2.94504e-05,8.12199e-06,6
-2.46083e-05,8.5554e-06,3.61671e-06,2.62604e-06,1.60238e-05,-6.14042e-05,-4.33881e-05,1.04489e-05,6
-2.63605e-05,7.82851e-06,6.79386e-06,2.17904e-06,1.48688e-05,-3.61204e-05,-4.50767e-05,9.40263e-06,6
-2.85619e-05,6.22708e-06,8.23544e-06,9.52103e-07,1.31908e-05,-7.04677e-06,-3.29539e-05,6.77214e-06,6
-3.07678e-05,6.59287e-06,8.20991e-06,6.65906e-07,1.42061e-05,1.28221e-05,-1.08255e-05,3.51504e-06,6
-3.16916e-05,8.38184e-06,8.4376e-06,2.15567e-07,1.77465e-05,1.9364e-05,1.19633e-05,-8.00499e-07,6
-3.18719e-05,1.02499e-05,7.24357e-06,-1.08561e-06,2.19015e-05,1.50332e-05,3.0985e-05,-4.65495e-06,6
-3.25258e-05,1.16074e-05,2.3106e-06,-3.36664e-06,2.53266e-05,5.06195e-06,4.11169e-05,-7.88239e-06,6
-3.35732e-05,1.25372e-05,-5.96847e-06,-7.54636e-06,2.73252e-05,-7.88422e-06,4.22824e-05,-8.62982e-06,6
-3.32209e-05,1.3014e-05,-1.52833e-05,-1.34899e-05,2.57015e-05,-2.98321e-05,3.84775e-05,-5.92686e-06,6
-3.16045e-05,1.31957e-05,-2.24801e-05,-1.94285e-05,2.02108e-05,-5.9934e-05,2.79138e-05,-1.04365e-06,6
-3.11298e-05,1.27009e-05,-2.6765e-05,-2.31903e-05,1.52996e-05,-7.72956e-05,2.87069e-06,3.95762e-06,6
-3.29627e-05,1.10078e-05,-2.847e-05,-2.38587e-05,1.47791e-05,-7.45448e-05,-2.84878e-05,7.42909e-06,6
-3.49268e-05,9.97262e-06,-2.60554e-05,-2.26732e-05,1.73776e-05,-8.82342e-05,-4.46617e-05,7.21226e-06,6
-3.48076e-05,1.12524e-05,-1.96496e-05,-2.00271e-05,1.75509e-05,-0.000122962,-4.14858e-05,6.42333e-06,6
-3.43497e-05,1.2854e-05,-1.31236e-05,-1.5744e-05,1.26342e-05,-0.000103108,-3.45298e-05,5.31934e-06,6
-3.56065e-05,1.28815e-05,-9.32063e-06,-1.10196e-05,4.33177e-06,-1.6426e-05,-3.76195e-05,1.43971e-06,6
-3.67665e-05,1.14685e-05,-8.70786e-06,-6.65132e-06,-3.07166e-06,2.21078e-05,-4.9786e-05,-6.4697e-06,6
-3.68881e-05,1.01113e-05,-8.33866e-06,-3.6665e-06,-6.08547e-06,-1.97469e-05,-4.45115e-05,-1.79992e-05,6
-3.61695e-05,1.09567e-05,-8.7875e-06,-1.83053e-06,-5.25256e-06,-5.18865e-05,-1.06859e-05,-3.00858e-05,6
-3.41112e-05,1.34615e-05,-9.63596e-06,9.49539e-07,-1.57858e-06,-6.63217e-05,3.03756e-05,-3.58861e-05,6
-3.09232e-05,1.557e-05,-9.47736e-06,2.95685e-06,2.74908e-06,-9.29548e-05,5.4579e-05,-2.7063e-05,6
-2.62543e-05,1.69598e-05,-1.0102e-05,4.12415e-06,8.02108e-06,-6.42867e-05,6.62958e-05,-8.0405e-06,6
-2.14022e-05,1.64636e-05,-1.03658e-05,4.10399e-06,1.26291e-05,6.79237e-05,7.06124e-05,7.0527e-06,6
-1.94315e-05,1.46102e-05,-1.00861e-05,2.77727e-06,1.19328e-05,0.00020674,5.66875e-05,9.71816e-06,6
-2.17311e-05,1.19625e-05,-1.02757e-05,1.85077e-06,6.6345e-06,0.000237882,3.67314e-05,3.00872e-06,6
-2.49418e-05,8.73562e-06,-1.09256e-05,3.79293e-07,1.54882e-06,0.0001647,2.17653e-05,-4.60794e-06,6
-2.65167e-05,8.642e-06,-1.03305e-05,-5.39485e-07,-1.50761e-08,7.84492e-05,2.22588e-05,-7.65997e-06,6
-2.68396e-05,1.09259e-05,-8.31751e-06,1.11389e-08,1.30047e-06,4.51664e-05,3.45592e-05,-6.99832e-06,6
-2.82556e-05,1.30766e-05,-6.61498e-06,2.01273e-06,4.92288e-06,3.97883e-05,3.77033e-05,-6.34829e-06,6
-3.08577e-05,1.39508e-05,-6.8996e-06,2.43948e-06,9.45244e-06,1.81458e-05,2.5362e-05,-7.0288e-06,6
-3.24411e-05,1.36261e-05,-8.21865e-06,-1.35327e-07,1.16242e-05,-1.96792e-05,1.09896e-05,-6.82042e-06,6
-3.23907e-05,1.3555e-05,-8.21831e-06,-3.86285e-06,9.15897e-06,-4.30954e-05,9.71815e-06,-4.20714e-06,6
-3.31988e-05,1.3033e-05,-7.15866e-06,-7.37382e-06,4.41027e-06,-4.21581e-05,1.93622e-05,-8.51032e-07,6
-3.68725e-05,1.04885e-05,-7.39429e-06,-1.04327e-05,1.52211e-06,-3.24617e-05,2.37058e-05,1.48859e-06,6
-4.14385e-05,7.09866e-06,-9.42858e-06,-1.38314e-05,2.86283e-06,-2.73586e-05,1.37636e-05,5.51538e-06,6
-4.40857e-05,4.88373e-06,-1.17909e-05,-1.58654e-05,7.85994e-06,-3.24216e-05,-1.22282e-06,1.3119e-05,6
-4.48892e-05,4.64969e-06,-1.27919e-05,-1.54476e-05,1.33453e-05,-4.65452e-05,-9.53439e-06,2.31795e-05,6
-5.14767e-05,7.28281e-06,-1.15776e-05,-1.3104e-05,1.82333e-05,-5.74922e-05,-6.97657e-06,3.3145e-05,6
-6.86422e-05,1.02413e-05,-8.59482e-06,-1.0696e-05,2.38739e-05,-5.61998e-05,3.35488e-06,4.13823e-05,6
-8.29909e-05,1.0665e-05,-5.66608e-06,-1.02286e-05,2.79394e-05,-5.21318e-05,1.27199e-05,4.38029e-05,6
-7.92386e-05,1.03296e-05,-5.53427e-06,-1.11791e-05,2.81164e-05,-5.23949e-05,1.61533e-05,2.37502e-05,6
-5.99365e-05,1.16046e-05,-6.26022e-06,-1.27778e-05,2.56846e-05,-5.1817e-05,2.06018e-05,-3.0199e-05,6
-4.04861e-05,1.31587e-05,-5.43006e-06,-1.29027e-05,2.23723e-05,-4.62531e-05,2.39214e-05,-8.06267e-05,6
-3.56088e-05,1.39343e-05,-3.68737e-06,-8.77924e-06,1.93039e-05,-3.4476e-05,2.16868e-05,-8.19926e-05,6
-4.87759e-05,1.39341e-05,-2.84394e-06,-5.7194e-06,1.55531e-05,-1.91618e-05,1.91043e-05,-4.67645e-05,6
-4.83888e-05,1.51089e-05,-3.38941e-06,-6.62174e-06,1.27717e-05,-5.75791e-06,1.0695e-05,-1.52758e-05,6
4.75945e-06,1.85688e-05,-3.35355e-06,-7.42249e-06,1.10128e-05,2.06889e-05,-5.54576e-06,-9.39073e-07,6
6.96605e-05,2.10644e-05,-2.84296e-06,-6.11132e-06,8.30773e-06,4.91363e-05,-2.25782e-05,3.9242e-06,6
7.91417e-05,2.04909e-05,-3.00917e-06,-4.97716e-06,5.46298e-06,4.34376e-05,-3.87427e-05,-1.28902e-08,6
3.86764e-05,1.84684e-05,-3.12427e-06,-5.35259e-06,4.42125e-06,-6.26734e-07,-4.49285e-05,-6.60822e-06,6
-1.39365e-06,1.58773e-05,-3.62907e-06,-5.66768e-06,4.96328e-06,-5.8836e-05,-2.99467e-05,-8.7074e-06,6
-1.45447e-05,1.48054e-05,-3.9053e-06,-4.99766e-06,6.10516e-06,-9.49966e-05,4.32386e-06,-2.84151e-06,6
-1.03079e-05,1.62017e-05,-3.14629e-06,-3.49355e-06,7.9837e-06,-9.37152e-05,4.01608e-05,6.61143e-06,6
-6.73386e-06,1.7147e-05,-1.48015e-06,-2.92464e-06,7.81557e-06,-6.91164e-05,6.38164e-05,1.19011e-05,6
-1.05046e-05,1.62612e-05,-6.05978e-07,-4.24448e-06,5.53395e-06,-4.89395e-05,6.72373e-05,1.05327e-05,6
-1.70151e-05,1.48137e-05,-2.52446e-06,-6.30908e-06,2.86359e-06,-3.93813e-05,4.98478e-05,5.9668e-06,6
-2.31587e-05,1.44669e-05,-5.32446e-06,-6.44364e-06,2.80013e-06,-2.9597e-05,2.75284e-05,3.18104e-06,6
-2.75097e-05,1.46949e-05,-7.00957e-06,-4.77315e-06,6.91169e-06,-1.88473e-05,1.51947e-05,2.52854e-06,6
-3.01156e-05,1.51801e-05,-6.90721e-06,-3.76678e-06,1.27757e-05,-2.44888e-05,1.37635e-05,4.17029e-06,6
-3.01988e-05,1.4539e-05,-6.13217e-06,-3.60737e-06,1.80372e-05,-5.23773e-05,1.3156e-05,6.15626e-06,6
-2.97251e-05,1.2835e-05,-6.07434e-06,-2.99937e-06,2.20208e-05,-7.88965e-05,1.00859e-05,6.73834e-06,6
-3.11269e-05,1.18159e-05,-6.83469e-06,-2.57461e-06,2.36835e-05,-8.89132e-05,7.68467e-06,2.56215e-06,6
-3.39389e-05,1.23907e-05,-7.18558e-06,-2.71544e-06,2.02345e-05,-8.40339e-05,9.75286e-06,-3.85891e-06,6
-3.56355e-05,1.37745e-05,-5.89666e-06,-2.69167e-06,1.42925e-05,-5.74109e-05,1.85893e-05,-4.53914e-06,6
-3.69879e-05,1.4345e-05,-3.8725e-06,-1.81537e-06,1.1671e-05,1.23496e-05,3.2447e-05,2.27122e-06,6
-4.07284e-05,1.42371e-05,-3.64199e-06,-3.8032e-07,1.30598e-05,0.000106748,3.47538e-05,4.99669e-06,6
-4.88572e-05,1.36708e-05,-5.24152e-06,-6.22293e-07,1.32203e-05,0.000146173,1.248e-05,-4.4073e-06,6
-5.98166e-05,1.32467e-05,-6.67243e-06,-2.34865e-06,1.19537e-05,9.92409e-05,-1.15815e-05,-2.03222e-05,6
-6.79644e-05,1.35103e-05,-7.75346e-06,-3.13108e-06,1.19462e-05,4.16673e-05,-9.26908e-06,-3.19064e-05,6
-6.85463e-05,1.2947e-05,-8.01779e-06,-2.81116e-06,1.24554e-05,2.43246e-05,9.46399e-06,-3.37034e-05,6
-6.11361e-05,1.33416e-05,-6.15713e-06,-1.25245e-06,1.18009e-05,3.90465e-05,2.10036e-05,-2.9008e-05,6
-5.11857e-05,1.50338e-05,-4.54895e-06,4.23572e-07,9.35773e-06,7.04439e-05,1.89879e-05,-2.34669e-05,6
-4.14819e-05,1.4769e-05,-5.44193e-06,-3.54659e-07,7.64027e-06,7.51561e-05,1.54542e-05,-1.52523e-05,6
-2.81246e-05,1.44901e-05,-5.49351e-06,-3.73298e-07,8.29757e-06,4.44039e-05,2.29116e-05,3.59343e-06,6
-1.33334e-05,1.48109e-05,-4.28515e-06,8.50377e-07,1.18556e-05,2.771e-05,3.49948e-05,3.19942e-05,6
-4.59445e-06,1.48416e-05,-3.52735e-06,1.9139e-06,1.85421e-05,4.34966e-05,4.73471e-05,5.55764e-05,6
-3.03527e-06,1.48747e-05,-3.63225e-06,4.07906e-06,2.61627e-05,6.36678e-05,6.45113e-05,5.94093e-05,6
-5.80294e-06,1.35552e-05,-6.41194e-06,3.16214e-06,3.02886e-05,3.96386e-05,7.04328e-05,5.56065e-05,6
-8.6832e-06,1.14002e-05,-9.73373e-06,-1.07691e-06,2.82843e-05,-2.30774e-05,5.23049e-05,5.33948e-05,6
-1.38019e-05,1.01332e-05,-1.05029e-05,-5.59758e-06,2.3978e-05,-3.97543e-05,2.62851e-05,4.2512e-05,6
-2.09547e-05,1.02736e-05,-9.16417e-06,-7.12318e-06,2.01779e-05,2.36885e-05,-1.39828e-06,2.62327e-05,6
-2.70265e-05,1.00833e-05,-8.90236e-06,-5.66911e-06,1.64645e-05,7.44099e-05,-2.99774e-05,1.23948e-05,6
-3.06451e-05,9.35718e-06,-9.9111e-06,-3.83891e-06,1.40321e-05,4.81466e-05,-4.92559e-05,5.36588e-06,6
-3.21707e-05,9.64656e-06,-1.10102e-05,-3.25214e-06,1.1805e-05,2.30331e-06,-5.40143e-05,2.49069e-06,6
-3.36579e-05,9.54642e-06,-1.24598e-05,-5.89589e-06,6.183e-06,-1.56388e-05,-4.778e-05,-6.41622e-07,6
-3.68552e-05,8.01285e-06,-1.39339e-05,-1.06297e-05,-1.95253e-06,-1.61697e-05,-3.67e-05,-3.64016e-06,6
-3.98521e-05,6.99775e-06,-1.46341e-05,-1.44155e-05,-7.66973e-06,-1.88343e-05,-2.27523e-05,-3.95437e-06,6
-3.39021e-05,8.26611e-06,-1.42918e-05,-1.43857e-05,-1.2303e-05,-2.35501e-05,-4.88451e-06,-7.16907e-07,6
-5.07758e-06,9.83721e-06,-1.33315e-05,-1.22702e-05,-2.23311e-05,-3.36501e-05,1.10025e-05,2.80436e-06,6
4.61656e-05,1.09027e-05,-1.14408e-05,-1.05232e-05,-4.03912e-05,-5.08615e-05,1.68746e-05,4.34503e-06,6
7.85856e-05,1.14845e-05,-9.40167e-06,-1.02587e-05,-6.08737e-05,-6.84441e-05,1.29543e-05,3.75632e-06,6
5.26696e-05,9.35125e-06,-8.35216e-06,-9.46806e-06,-7.50388e-05,-8.5006e-05,1.97921e-06,3.5124e-06,6
-1.41201e-05,4.11714e-06,-9.23555e-06,-8.50839e-06,-7.53652e-05,-9.83532e-05,-1.08915e-05,2.00394e-06,6
-7.35982e-05,-2.52858e-07,-1.13359e-05,-9.14573e-06,-5.51051e-05,-9.0274e-05,-1.36591e-05,-3.71171e-07,6
-9.72975e-05,-1.69339e-06,-1.39844e-05,-9.98161e-06,-2.01959e-05,-5.2227e-05,2.11931e-06,-7.65812e-07,6
-9.1934e-05,-1.03716e-06,-1.47134e-05,-9.95291e-06,1.15098e-05,-1.62023e-05,2.24598e-05,6.43712e-07,6
-8.4698e-05,1.79311e-06,-1.19889e-05,-9.54183e-06,3.09396e-05,-1.47744e-05,2.86153e-05,1.61667e-06,6
-9.17912e-05,4.12903e-06,-8.87804e-06,-9.43905e-06,3.99584e-05,-4.11494e-05,2.48935e-05,1.57721e-06,6
-0.000109066,3.16001e-06,-8.60077e-06,-8.13791e-06,5.64278e-05,-7.73552e-05,1.94092e-05,1.73405e-06,6
-0.000113002,5.00512e-07,-8.44061e-06,-5.05746e-06,9.31745e-05,-0.0001067,4.97884e-06,2.06277e-06,6
-8.93626e-05,1.00999e-06,-5.66238e-06,-4.34664e-07,0.000134499,-0.000102621,-9.75521e-06,2.73565e-06,6
-5.64554e-05,4.48411e-06,-2.9458e-06,3.07502e-06,0.000152533,-5.63307e-05,-1.07666e-05,4.50402e-06,6
-3.57277e-05,7.01103e-06,-2.09514e-06,3.32698e-06,0.000133936,-7.77262e-06,-4.08876e-06,5.20068e-06,6
-3.05705e-05,7.86392e-06,-3.69791e-06,1.23047e-06,8.94945e-05,-1.71839e-06,3.83271e-06,3.14263e-06,6
-3.0215e-05,1.01915e-05,-7.392e-06,-1.76916e-06,3.40977e-05,-2.00665e-05,1.08007e-05,-2.49037e-06,6
-2.30389e-05,1.58266e-05,-9.6973e-06,-2.66386e-06,-1.23303e-05,-2.76362e-05,2.12877e-05,-8.0733e-06,6
-9.19325e-06,2.03287e-05,-9.06136e-06,-3.20878e-06,-3.4667e-05,-1.98292e-05,3.25275e-05,-8.21304e-06,6
1.96741e-06,2.35907e-05,-8.07819e-06,-5.72323e-06,-2.86454e-05,-1.32277e-05,3.81355e-05,-5.10909e-06,6
4.64468e-06,2.87385e-05,-8.06899e-06,-6.97797e-06,-2.81349e-06,-6.61559e-06,3.54696e-05,-3.89152e-06,6
4.49449e-07,3.26888e-05,-8.87987e-06,-5.8968e-06,2.26987e-05,7.08137e-06,2.48171e-05,-6.05937e-06,6
-6.51714e-06,3.11755e-05,-8.81409e-06,-4.39516e-06,3.51461e-05,2.62546e-05,1.8088e-05,-8.00442e-06,6
-1.50073e-05,2.59939e-05,-6.96954e-06,-3.02305e-06,4.04085e-05,4.42644e-05,2.28802e-05,-8.6265e-06,6
-2.50181e-05,2.11786e-05,-5.5265e-06,-1.53179e-06,4.7743e-05,5.69728e-05,3.1644e-05,-9.65884e-06,6
-3.75113e-05,1.80175e-05,-5.20724e-06,-1.31717e-06,5.32164e-05,6.08999e-05,3.3844e-05,-1.20997e-05,6
-5.46622e-05,1.57549e-05,-4.86063e-06,-2.42419e-06,5.01687e-05,5.45611e-05,3.20817e-05,-1.48308e-05,6
-7.51482e-05,1.3236e-05,-4.61236e-06,-4.0834e-06,4.02351e-05,4.85353e-05,3.20876e-05,-1.47502e-05,6
-9.046e-05,9.41688e-06,-5.83572e-06,-5.074e-06,3.25513e-05,4.72509e-05,3.18904e-05,-9.01753e-06,6
-9.13218e-05,6.17486e-06,-7.66011e-06,-4.59805e-06,3.01365e-05,4.1466e-05,2.44596e-05,-1.43128e-06,6
-7.57005e-05,7.19094e-06,-7.92624e-06,-3.4576e-06,2.95742e-05,8.36833e-06,7.93788e-06,1.40913e-06,6
-5.25165e-05,1.05855e-05,-6.84623e-06,-2.91779e-06,2.45363e-05,-4.96971e-05,-8.38508e-06,-2.66134e-07,6
-3.62379e-05,1.27719e-05,-5.81735e-06,-3.50492e-06,1.4402e-05,-9.02678e-05,-1.62153e-05,-3.3199e-06,6
-3.14201e-05,1.32472e-05,-5.42261e-06,-5.52008e-06,4.14763e-06,-9.31172e-05,-1.91322e-05,-7.5479e-06,6
-3.24487e-05,1.32701e-05,-4.17747e-06,-7.27873e-06,-6.08551e-07,-9.50408e-05,-1.87931e-05,-1.0384e-05,6
-3.22358e-05,1.31922e-05,-2.51273e-06,-5.19868e-06,1.88478e-06,-0.000111217,-7.5548e-06,-8.45661e-06,6
-3.04308e-05,1.24196e-05,-2.3694e-06,7.50784e-07,4.35997e-06,-9.41721e-05,1.40483e-05,-6.39867e-06,6
-3.03344e-05,1.14381e-05,-3.453e-06,8.41052e-06,9.31391e-07,1.34644e-05,3.32958e-05,-9.66119e-06,6
-2.93702e-05,1.16533e-05,-2.27179e-06,1.48944e-05,-4.36382e-06,0.000124749,3.6829e-05,-1.2291e-05,6
-2.67923e-05,1.20711e-05,2.35983e-06,1.86134e-05,-6.25858e-06,0.000130977,2.82073e-05,-1.06282e-05,6
-2.3038e-05,1.21906e-05,8.39133e-06,2.1603e-05,-5.0038e-06,7.70702e-05,1.82205e-05,-4.7299e-06,6
-1.96446e-05,1.20542e-05,1.15166e-05,2.59306e-05,-2.62999e-06,3.70382e-05,9.3326e-06,2.84765e-06,6
-2.08086e-05,1.17436e-05,8.52497e-06,2.67116e-05,-8.83655e-08,3.18694e-05,4.06684e-06,5.31463e-06,6
-2.48482e-05,1.13601e-05,4.54088e-07,1.88786e-05,2.45176e-07,2.3539e-05,3.45186e-06,3.26619e-06,6
-2.90579e-05,1.08984e-05,-9.00484e-06,6.83598e-06,-7.06412e-07,7.2229e-06,2.10022e-06,-1.95474e-06,6
-3.13471e-05,1.15374e-05,-1.64018e-05,-6.37442e-06,-1.13848e-07,-1.75215e-05,-6.88033e-06,-7.1072e-06,6
-3.04064e-05,1.28411e-05,-2.30482e-05,-2.22472e-05,1.18296e-06,-6.87784e-05,-1.40934e-05,-9.31536e-06,6
-2.70824e-05,1.41623e-05,-2.93216e-05,-3.76177e-05,1.95971e-06,-0.000133174,-1.16008e-05,-7.31996e-06,6
-2.29166e-05,1.44303e-05,-3.41479e-05,-4.59352e-05,2.97542e-06,-0.000139766,-3.7956e-06,-2.01815e-06,6
-1.86112e-05,1.39642e-05,-3.63995e-05,-4.58966e-05,2.84152e-06,-4.17248e-05,6.46942e-06,4.27995e-06,6
-1.50933e-05,1.36693e-05,-3.53334e-05,-4.1706e-05,-7.27308e-07,8.99482e-05,1.99591e-05,9.7013e-06,6
-1.48745e-05,1.32947e-05,-3.13473e-05,-3.59148e-05,-4.58074e-06,0.000143456,3.15286e-05,1.23861e-05,6
-1.73616e-05,1.18999e-05,-2.5869e-05,-2.82003e-05,-6.47726e-06,8.41627e-05,3.40853e-05,1.23038e-05,6
-1.95787e-05,1.01665e-05,-2.02005e-05,-2.02521e-05,-6.89179e-06,-1.23451e-05,3.0567e-05,9.43723e-06,6
-1.97978e-05,9.06816e-06,-1.5465e-05,-1.47055e-05,-6.87676e-06,-6.98189e-05,2.35544e-05,6.4849e-06,6
-1.92751e-05,8.74893e-06,-1.26534e-05,-1.11053e-05,-5.8498e-06,-7.87051e-05,1.6147e-05,5.40084e-06,6
-1.91343e-05,9.70572e-06,-1.15514e-05,-8.59811e-06,-4.17342e-06,-7.58587e-05,1.19927e-05,6.25586e-06,6
-1.92397e-05,1.16542e-05,-1.00176e-05,-6.84907e-06,-2.81905e-06,-7.85492e-05,1.30908e-05,7.65038e-06,6
-2.0138e-05,1.32006e-05,-7.39663e-06,-5.08434e-06,-1.76762e-06,-7.71465e-05,1.47113e-05,7.47084e-06,6
-2.28906e-05,1.29528e-05,-7.27778e-06,-3.4573e-06,-1.55522e-07,-4.44542e-05,1.56143e-05,5.1217e-06,6
-2.60929e-05,1.09218e-05,-9.29522e-06,-1.77604e-06,7.31085e-07,2.93429e-05,1.837e-05,2.94733e-06,6
-2.70055e-05,8.9946e-06,-8.99217e-06,3.89875e-07,2.07067e-07,0.000105895,2.34442e-05,1.92188e-06,6
-2.63882e-05,9.16567e-06,-7.22746e-06,2.27141e-06,8.29423e-07,0.000127587,2.71021e-05,1.42382e-06,6
-2.58758e-05,9.88144e-06,-6.61034e-06,2.11753e-06,2.03696e-06,9.47848e-05,2.51823e-05,8.35186e-07,6
-2.50071e-05,9.92072e-06,-5.13087e-06,-5.83215e-09,1.59544e-06,5.00471e-05,1.74359e-05,-6.8881e-07,6
-2.29983e-05,9.75759e-06,-3.60073e-06,-1.74308e-07,1.56482e-06,1.88924e-05,-2.41807e-06,2.21937e-07,6
-2.19602e-05,9.97607e-06,-4.27218e-06,1.78427e-06,8.85526e-07,8.02991e-06,-3.79545e-05,7.22913e-07,6
-2.40017e-05,9.6367e-06,-6.97399e-06,2.82318e-06,-9.36962e-07,9.51299e-06,-7.45972e-05,-4.19564e-06,6
-2.67824e-05,8.2364e-06,-9.2526e-06,1.41399e-06,-7.14305e-07,1.66208e-05,-8.64995e-05,-9.70582e-06,6
-2.87681e-05,7.82866e-06,-8.7731e-06,2.21171e-07,2.33056e-07,1.83798e-05,-5.35522e-05,-1.03092e-05,6
-3.00212e-05,8.36323e-06,-6.70577e-06,3.56751e-07,2.02761e-06,1.94701e-06,4.52544e-06,-7.47774e-06,6
-2.92753e-05,8.6721e-06,-4.64799e-06,1.19188e-06,5.4268e-06,-4.26404e-05,3.46648e-05,-4.76702e-06,6
-2.65103e-05,9.78867e-06,-2.9428e-06,3.52257e-06,9.13786e-06,-8.58307e-05,2.39449e-05,-9.74062e-07,6
-2.4069e-05,1.2121e-05,-2.38811e-06,4.92321e-06,1.06453e-05,-9.74275e-05,9.09678e-06,3.16506e-06,6
-2.74043e-05,1.36368e-05,-4.21579e-06,4.00112e-06,8.5433e-06,-7.92323e-05,1.46362e-05,3.95394e-06,6
-3.85068e-05,1.26261e-05,-6.2103e-06,9.32751e-07,5.60238e-06,-3.42623e-05,3.97058e-05,4.41332e-08,6
-5.15333e-05,1.02343e-05,-6.80107e-06,-1.69777e-06,5.46197e-06,2.78773e-05,7.94511e-05,-5.10966e-06,6
-5.89375e-05,9.0078e-06,-6.79308e-06,-1.66058e-06,8.15945e-06,6.96213e-05,0.000112509,-9.43183e-06,6
-5.86465e-05,9.01972e-06,-6.07911e-06,-2.08221e-07,1.12967e-05,6.313e-05,0.000114767,-1.41058e-05,6
-5.15155e-05,9.34896e-06,-4.08206e-06,2.26245e-07,1.38796e-05,1.73351e-05,8.92529e-05,-1.84482e-05,6
-3.77098e-05,9.39386e-06,-1.93442e-06,3.88405e-07,1.76344e-05,-4.51315e-05,5.68289e-05,-2.08388e-05,6
-2.11726e-05,8.88959e-06,-3.87729e-07,1.77932e-06,2.18877e-05,-0.000104142,3.03958e-05,-1.87679e-05,6
-9.64217e-06,8.09402e-06,3.5511e-07,3.58136e-06,2.29215e-05,-0.000140132,1.30226e-05,-9.07877e-06,6
-7.66264e-06,6.80029e-06,-1.57627e-07,4.16068e-06,1.96376e-05,-0.000137327,6.12512e-06,6.50074e-06,6
-1.16743e-05,5.32395e-06,-7.65387e-07,2.58849e-06,1.60602e-05,-0.000102076,8.08822e-06,1.9487e-05,6
-1.43214e-05,5.46806e-06,-5.9981e-07,-5.08599e-08,1.63737e-05,-5.73284e-05,1.29691e-05,3.3393e-05,6
-1.39612e-05,7.35229e-06,-2.10365e-07,-2.65868e-06,2.05335e-05,-2.71235e-05,1.55364e-05,4.4007e-05,6
-1.48441e-05,9.05274e-06,-1.30694e-06,-3.7764e-06,2.33997e-05,-1.82047e-05,1.56125e-05,3.52472e-05,6
-1.80002e-05,9.87991e-06,-3.48675e-06,-3.11074e-06,2.07585e-05,-2.03748e-05,1.50757e-05,1.71916e-05,6
-2.18522e-05,9.91231e-06,-3.75942e-06,-2.89172e-06,1.66996e-05,-2.089e-05,1.45059e-05,7.44737e-06,6
-2.50802e-05,9.74629e-06,-2.15023e-06,-4.31438e-06,1.46098e-05,-1.68863e-05,1.22955e-05,6.7204e-06,6
-2.87012e-05,8.4967e-06,-1.21908e-06,-5.93486e-06,1.47071e-05,-1.40167e-05,9.15571e-06,7.29515e-06,6
-3.23758e-05,6.55908e-06,-2.45694e-06,-6.13259e-06,1.683e-05,-1.06064e-05,9.6036e-06,5.30512e-06,6
-3.33962e-05,4.39935e-06,-5.13166e-06,-7.10755e-06,1.79138e-05,5.00975e-06,1.41998e-05,2.71172e-06,6
-3.31137e-05,2.8867e-06,-7.61957e-06,-9.01422e-06,1.69591e-05,2.54961e-05,1.94771e-05,1.26184e-06,6
-3.30654e-05,3.51196e-06,-9.69069e-06,-1.07404e-05,1.48649e-05,2.88506e-05,1.80655e-05,-8.99617e-08,6
-3.3178e-05,4.27964e-06,-9.78008e-06,-1.28536e-05,1.40143e-05,1.53345e-05,8.09183e-06,-2.87705e-07,6
-3.27173e-05,5.42372e-06,-8.20678e-06,-1.31521e-05,1.49446e-05,1.21444e-05,8.42252e-06,2.58744e-06,6
-3.15112e-05,6.35444e-06,-6.26197e-06,-1.14522e-05,1.59886e-05,8.27159e-06,1.77785e-05,6.25911e-06,6
-3.10259e-05,7.484e-06,-4.12129e-06,-8.63081e-06,1.60378e-05,-2.3932e-05,1.43992e-05,6.8816e-06,6
-3.1438e-05,1.03366e-05,-2.40573e-06,-6.96421e-06,1.45121e-05,-6.15403e-05,1.41634e-06,3.14959e-06,6
-3.12148e-05,1.38598e-05,-2.00438e-06,-6.72483e-06,1.35094e-05,-8.10749e-05,-4.01609e-06,-2.00108e-06,6
-3.00386e-05,1.63969e-05,-1.64043e-06,-7.1168e-06,1.57576e-05,-7.9666e-05,8.58647e-06,-3.78859e-06,6
-2.87706e-05,1.73204e-05,-1.11975e-06,-6.72558e-06,2.21788e-05,-6.09763e-05,2.73172e-05,-8.10914e-07,6
-2.8312e-05,1.79315e-05,-2.29713e-06,-5.84661e-06,2.69711e-05,-2.17571e-05,2.55724e-05,7.56254e-07,6
-2.9811e-05,1.82681e-05,-4.12884e-06,-7.15363e-06,2.48862e-05,3.08618e-05,-1.99529e-07,-2.61467e-06,6
-3.27723e-05,1.72244e-05,-5.57188e-06,-1.0232e-05,1.65741e-05,5.6074e-05,-2.50329e-05,-8.37188e-06,6
-3.54974e-05,1.48127e-05,-6.72723e-06,-1.27744e-05,7.61155e-06,2.63203e-05,-3.15733e-05,-1.22688e-05,6
-3.60319e-05,1.42563e-05,-7.73641e-06,-1.25459e-05,3.83931e-06,-2.00536e-05,-2.41828e-05,-1.29615e-05,6
-3.38113e-05,1.62343e-05,-7.29884e-06,-1.02429e-05,5.30384e-06,-3.72227e-05,-1.15791e-05,-1.10419e-05,6
-3.05131e-05,1.78661e-05,-6.4116e-06,-7.42029e-06,8.88082e-06,-2.90687e-05,1.51983e-06,-7.15563e-06,6
-2.886e-05,1.78883e-05,-6.42311e-06,-5.52128e-06,1.14205e-05,-1.92467e-05,1.14361e-05,-4.78747e-06,6
-2.9923e-05,1.8256e-05,-7.2165e-06,-4.74237e-06,1.06355e-05,-1.9683e-05,1.48341e-05,-5.31453e-06,6
-3.10041e-05,2.00088e-05,-9.4901e-06,-4.4969e-06,8.35055e-06,-2.40475e-05,1.34631e-05,-6.7532e-06,6
-3.05968e-05,2.12845e-05,-1.09927e-05,-4.7766e-06,8.44748e-06,-2.56087e-05,1.14677e-05,-6.88295e-06,6
-2.94744e-05,2.11486e-05,-9.9329e-06,-6.29809e-06,1.06997e-05,-2.13588e-05,9.79368e-06,-5.00452e-06,6
-2.88801e-05,1.9342e-05,-8.8407e-06,-8.34703e-06,1.16951e-05,-1.18086e-05,8.43907e-06,-3.89938e-06,6
-2.96029e-05,1.76308e-05,-7.45599e-06,-9.17403e-06,9.41171e-06,-1.85797e-06,6.27374e-06,-5.02617e-06,6
-3.04819e-05,1.69291e-05,-8.38793e-06,-8.8466e-06,5.91211e-06,4.58126e-06,8.28935e-06,-5.88754e-06,6
-3.20471e-05,1.62812e-05,-1.10146e-05,-9.45275e-06,3.39719e-06,6.91754e-07,2.51131e-05,-4.15978e-06,6
-3.37475e-05,1.60385e-05,-1.1688e-05,-9.77089e-06,1.4589e-06,-2.4182e-05,4.41242e-05,-2.12787e-06,6
-3.33155e-05,1.59043e-05,-1.15469e-05,-7.37803e-06,8.08272e-07,-5.28315e-05,5.03789e-05,-3.62443e-06,6
-3.13283e-05,1.57369e-05,-1.01567e-05,-3.32733e-06,3.13759e-06,-6.45184e-05,4.14956e-05,-5.81258e-06,6
-3.07917e-05,1.53442e-05,-9.66123e-06,-2.05538e-06,6.705e-06,-6.59603e-05,1.79672e-05,-4.45604e-06,6
-3.1196e-05,1.5057e-05,-1.05218e-05,-2.1097e-06,1.25589e-05,-5.5327e-05,-5.39852e-06,3.44896e-07,6
-2.93235e-05,1.53318e-05,-1.03702e-05,3.20914e-07,2.2396e-05,-1.63672e-05,-2.05658e-05,3.82387e-06,6
-2.78947e-05,1.60359e-05,-7.3736e-06,2.75593e-06,3.62544e-05,4.58841e-05,-3.22322e-05,2.38468e-06,6
-2.84647e-05,1.50165e-05,-6.33162e-06,3.01149e-06,5.29365e-05,0.000101978,-3.73724e-05,-2.14344e-06,6
-2.97394e-05,1.23639e-05,-8.3802e-06,1.07347e-06,6.85564e-05,0.000113931,-2.38163e-05,-5.46912e-06,6
-3.07333e-05,1.15002e-05,-9.85175e-06,-2.52815e-06,7.48493e-05,6.32165e-05,1.76975e-06,-6.61404e-06,6
-3.07302e-05,1.38812e-05,-9.68218e-06,-6.0009e-06,6.63844e-05,-8.97722e-06,2.01228e-05,-6.28796e-06,6
-2.95491e-05,1.77135e-05,-7.99677e-06,-6.37284e-06,5.11887e-05,-4.41613e-05,2.39491e-05,-4.6063e-06,6
-2.83721e-05,1.91244e-05,-6.81921e-06,-5.0601e-06,3.89431e-05,-3.74824e-05,2.25201e-05,-1.87853e-06,6
-2.86062e-05,1.82352e-05,-6.43229e-06,-4.1322e-06,3.14363e-05,-2.25643e-05,2.8773e-05,3.35289e-06,6
-2.83464e-05,1.83708e-05,-5.70715e-06,-3.64336e-06,2.76609e-05,-5.97692e-06,4.49561e-05,1.14909e-05,6
-2.61317e-05,2.05934e-05,-3.50038e-06,-2.50719e-06,2.77107e-05,4.41253e-05,6.13424e-05,1.90187e-05,6
-2.44131e-05,2.17056e-05,-2.64829e-06,-1.90571e-06,2.8699e-05,0.000138433,6.56347e-05,2.03346e-05,6
-2.74537e-05,1.89787e-05,-5.5172e-06,-3.94748e-06,2.55888e-05,0.000213882,5.95422e-05,1.38153e-05,6
-3.35187e-05,1.35737e-05,-9.09009e-06,-8.18356e-06,1.82857e-05,0.000197941,4.93353e-05,4.83915e-06,6
-3.63217e-05,1.08041e-05,-1.00922e-05,-1.02862e-05,1.41877e-05,0.000126751,4.19833e-05,1.78903e-06,6
-3.29926e-05,1.28275e-05,-9.67957e-06,-7.00308e-06,1.82649e-05,7.46193e-05,3.93769e-05,6.3862e-06,6
-2.84104e-05,1.66486e-05,-8.72051e-06,-1.5802e-06,2.55344e-05,2.60213e-05,2.47403e-05,1.06891e-05,6
-2.73245e-05,1.83133e-05,-8.33453e-06,3.698e-07,2.71848e-05,-4.70108e-05,-1.24775e-05,7.79002e-06,6
-3.01161e-05,1.63659e-05,-9.17475e-06,-2.29885e-06,2.03217e-05,-0.00011227,-4.69211e-05,6.52698e-07,6
-3.59474e-05,1.3234e-05,-1.07598e-05,-6.41382e-06,1.01626e-05,-0.000130188,-5.4279e-05,-4.83826e-06,6
-3.99853e-05,1.11702e-05,-1.0903e-05,-9.71893e-06,4.37391e-06,-0.000110635,-3.2293e-05,-6.45613e-06,6
-3.81149e-05,9.95038e-06,-1.04756e-05,-1.00543e-05,5.89649e-06,-8.74507e-05,4.26632e-06,-2.50059e-06,6
-3.34398e-05,1.01183e-05,-1.06638e-05,-8.5155e-06,1.0014e-05,-5.12551e-05,2.1994e-05,3.66051e-06,6
-3.15246e-05,1.07072e-05,-1.02579e-05,-8.59974e-06,1.17113e-05,-1.5016e-05,2.78714e-06,5.04047e-06,6
-3.21285e-05,9.99041e-06,-1.07267e-05,-8.59167e-06,1.14626e-05,-3.65103e-05,-2.69952e-05,3.52515e-06,6
-3.20114e-05,9.47768e-06,-1.11813e-05,-6.14159e-06,1.02872e-05,-0.000103962,-3.79234e-05,3.83387e-06,6
-2.94955e-05,1.07604e-05,-1.07061e-05,-2.18387e-06,9.61972e-06,-0.000118781,-2.33458e-05,7.06443e-06,6
-2.7989e-05,1.31936e-05,-1.06537e-05,1.48896e-06,8.59302e-06,-2.9785e-05,9.94739e-06,7.99439e-06,6
-3.04594e-05,1.24708e-05,-1.09856e-05,2.2279e-06,7.46088e-06,5.04806e-05,4.10191e-05,2.23151e-06,6
-3.3894e-05,1.03994e-05,-1.1673e-05,7.23856e-07,6.74397e-06,3.64654e-05,6.4273e-05,-4.21245e-06,6
-3.46862e-05,8.88619e-06,-1.36367e-05,-1.62279e-06,4.80493e-06,-7.43813e-06,7.31573e-05,-7.11016e-06,6
-3.27164e-05,8.90205e-06,-1.36154e-05,-2.19127e-06,4.05897e-06,-1.34304e-05,6.34884e-05,-5.03524e-06,6
-2.96546e-05,1.13229e-05,-1.07485e-05,-8.38859e-07,5.61686e-06,8.30947e-06,4.20801e-05,6.74006e-07,6
-2.68082e-05,1.35981e-05,-8.15262e-06,7.31831e-07,8.10791e-06,1.02462e-05,1.5974e-05,4.71618e-06,6
-2.63326e-05,1.41472e-05,-8.85922e-06,2.49634e-07,7.52713e-06,-1.04353e-05,-3.99773e-06,4.24911e-06,6
-2.74657e-05,1.30924e-05,-1.18134e-05,-2.5655e-06,4.0965e-06,-2.46738e-05,-8.41177e-06,1.27024e-06,6
-2.85716e-05,1.232e-05,-1.38829e-05,-4.55451e-06,1.8868e-06,-1.662e-05,3.71314e-06,-1.75661e-07,6
-2.8872e-05,1.24487e-05,-1.43941e-05,-4.12257e-06,2.21135e-06,-7.62168e-06,1.82914e-05,6.0716e-07,6
-2.89828e-05,1.31337e-05,-1.32453e-05,-1.78772e-06,3.69136e-06,-1.42028e-05,2.34898e-05,1.00463e-06,6
-3.16469e-05,1.32105e-05,-1.04428e-05,-7.55422e-07,4.80083e-06,-2.58966e-05,2.02096e-05,-1.12496e-06,6
-3.87646e-05,1.25112e-05,-7.14268e-06,-2.09048e-06,3.84278e-06,-3.09117e-05,1.67816e-05,-4.72154e-06,6
-4.91912e-05,1.03233e-05,-5.90171e-06,-3.78055e-06,1.953e-06,-3.27709e-05,1.46879e-05,-7.8225e-06,6
-6.51157e-05,9.32965e-06,-6.17089e-06,-3.72534e-06,1.38402e-06,-3.88764e-05,1.0244e-05,-9.58353e-06,6
-8.68602e-05,1.05719e-05,-5.93719e-06,-3.43893e-06,4.41478e-06,-3.68401e-05,-2.75549e-06,-1.18245e-05,6
