ch1,ch2,ch3,ch4,ch5,ch6,ch7,ch8,class
-4.15869e-05,4.63068e-06,-6.9359e-06,-2.66409e-06,-8.57428e-07,-1.0605e-05,1.67292e-05,-1.22797e-05,6
-4.33276e-05,7.19856e-06,-5.67396e-06,-1.69648e-06,5.74748e-06,2.1267e-05,2.49842e-05,-1.38426e-05,6
-4.32086e-05,8.39029e-06,-6.15551e-06,-8.33079e-07,1.0006e-05,2.35068e-05,2.33071e-05,-1.15772e-05,6
-4.20922e-05,9.39533e-06,-5.2725e-06,-2.78383e-07,8.8451e-06,-3.8536e-06,1.60742e-05,-6.49323e-06,6
-4.01198e-05,1.03983e-05,-3.17646e-06,-1.04906e-06,5.48712e-06,-4.35463e-05,7.20889e-06,-2.18417e-07,6
-3.90538e-05,1.01337e-05,-1.03939e-06,-2.47938e-06,2.35825e-06,-6.93977e-05,1.2226e-06,3.86555e-06,6
-3.69011e-05,1.00715e-05,-9.55107e-07,-3.47444e-06,2.87429e-06,-6.55137e-05,4.67193e-06,1.00948e-05,6
-3.4263e-05,1.07634e-05,-3.38664e-06,-4.19329e-06,5.96976e-06,-4.46858e-05,1.54918e-05,1.98737e-05,6
-3.31195e-05,1.11808e-05,-6.02621e-06,-4.72677e-06,8.79168e-06,-3.89991e-05,2.48582e-05,2.18788e-05,6
-3.34051e-05,1.08949e-05,-7.80482e-06,-5.31189e-06,1.29924e-05,-5.90674e-05,2.73976e-05,1.28371e-05,6
-3.50719e-05,1.0567e-05,-8.60156e-06,-5.62669e-06,1.9172e-05,-8.07751e-05,2.35433e-05,2.68099e-06,6
-3.74729e-05,1.11077e-05,-8.78955e-06,-6.07548e-06,2.6042e-05,-8.54245e-05,1.79945e-05,-1.62317e-06,6
-3.92274e-05,1.23898e-05,-8.01984e-06,-6.84572e-06,3.26296e-05,-8.13585e-05,1.41027e-05,-1.97644e-06,6
-3.95332e-05,1.35005e-05,-7.37434e-06,-6.66439e-06,3.80625e-05,-7.34742e-05,1.24204e-05,-1.21917e-06,6
-4.07399e-05,1.46049e-05,-6.99214e-06,-5.63139e-06,4.17163e-05,-3.37027e-05,1.34582e-05,-2.26474e-07,6
-4.64914e-05,1.61481e-05,-7.15759e-06,-5.51311e-06,4.31836e-05,5.30565e-05,1.52717e-05,-5.65197e-07,6
-5.64651e-05,1.66625e-05,-8.29479e-06,-6.64573e-06,4.07667e-05,0.000133471,1.40209e-05,-3.87744e-06,6
-6.43857e-05,1.52492e-05,-1.00427e-05,-7.0133e-06,3.347e-05,0.000143176,8.65959e-06,-1.00331e-05,6
-6.71287e-05,1.40608e-05,-1.13439e-05,-6.97015e-06,2.46658e-05,9.95377e-05,5.1935e-06,-1.80541e-05,6
-6.37327e-05,1.43038e-05,-1.13311e-05,-6.9679e-06,1.83516e-05,6.75808e-05,9.36051e-06,-2.45212e-05,6
-5.38507e-05,1.51725e-05,-1.00524e-05,-6.28083e-06,1.62821e-05,7.9123e-05,1.52504e-05,-2.56595e-05,6
-4.02881e-05,1.68562e-05,-9.22996e-06,-5.65406e-06,1.74847e-05,0.000109396,1.5989e-05,-2.37266e-05,6
-3.1021e-05,1.79126e-05,-8.33763e-06,-4.64124e-06,1.79766e-05,0.000122776,2.48287e-05,-2.26306e-05,6
-2.84358e-05,1.70651e-05,-6.84602e-06,-1.5845e-06,1.62461e-05,0.000123633,4.78971e-05,-1.64051e-05,6
-2.74725e-05,1.74002e-05,-6.74243e-06,1.22765e-06,1.68239e-05,0.000106878,6.51116e-05,-2.56967e-06,6
-2.2514e-05,2.06287e-05,-4.6173e-06,3.96128e-06,1.98866e-05,3.31446e-05,6.39809e-05,9.17259e-06,6
-1.02984e-05,2.33393e-05,-1.93884e-06,5.64632e-06,1.82997e-05,-9.37412e-05,3.72352e-05,2.33633e-05,6
-5.84863e-07,2.12286e-05,-4.14267e-06,2.56024e-06,1.05045e-05,-0.000151249,9.04107e-06,3.07959e-05,6
1.65149e-06,1.8243e-05,-8.62392e-06,-2.13629e-06,4.08123e-06,-0.000118665,1.58106e-05,2.22148e-05,6
2.2096e-05,1.67169e-05,-1.1112e-05,-4.54659e-06,5.02509e-06,-9.74382e-05,3.10373e-05,1.54257e-05,6
7.34499e-05,1.51825e-05,-1.16919e-05,-5.13697e-06,1.24479e-05,-9.89359e-05,2.31641e-05,1.58073e-05,6
0.000107789,1.60524e-05,-8.83156e-06,-4.54034e-06,2.24649e-05,-0.000101879,2.41377e-06,2.10683e-05,6
8.02936e-05,2.00576e-05,-4.4907e-06,-3.0411e-06,2.88656e-05,-8.31161e-05,-1.37264e-05,2.5341e-05,6
1.22909e-05,2.38144e-05,-3.20907e-06,-3.17409e-06,2.60574e-05,-6.97047e-05,-3.45589e-05,2.44638e-05,6
-5.07615e-05,2.33879e-05,-5.636e-06,-5.72966e-06,1.6579e-05,-7.19152e-05,-5.42905e-05,1.52519e-05,6
-8.04621e-05,2.09503e-05,-9.0041e-06,-7.49334e-06,8.44777e-06,-6.67759e-05,-4.80753e-05,3.39789e-06,6
-8.16737e-05,1.93441e-05,-1.05755e-05,-7.76967e-06,5.67457e-06,-4.79751e-05,-2.12221e-05,-2.03832e-06,6
-7.58554e-05,1.91291e-05,-1.01281e-05,-8.7319e-06,6.28497e-06,-3.62009e-05,3.33261e-06,-7.31964e-07,6
-7.94676e-05,1.8475e-05,-9.18554e-06,-9.71523e-06,6.52018e-06,-4.60335e-05,1.36295e-05,3.40201e-06,6
-9.23879e-05,1.61011e-05,-1.03313e-05,-9.62331e-06,4.95699e-06,-6.81079e-05,1.33104e-05,4.23845e-06,6
-9.82791e-05,1.35244e-05,-1.22824e-05,-8.97411e-06,4.30281e-06,-9.17784e-05,8.73189e-06,1.21292e-06,6
-8.48704e-05,1.27471e-05,-1.30282e-05,-8.44982e-06,6.67297e-06,-8.98763e-05,7.43859e-06,-2.89311e-06,6
-5.75781e-05,1.45424e-05,-1.22171e-05,-8.61833e-06,9.89388e-06,-4.10242e-05,1.08948e-05,-3.41031e-06,6
-3.5336e-05,1.65123e-05,-1.0948e-05,-9.38785e-06,1.16603e-05,4.85903e-05,1.6114e-05,-1.82038e-06,6
-2.7651e-05,1.63399e-05,-9.58117e-06,-8.88002e-06,1.27689e-05,0.000117458,1.94504e-05,-1.05444e-06,6
-3.02642e-05,1.52216e-05,-8.73304e-06,-6.64249e-06,1.37606e-05,0.000122304,2.05883e-05,-1.8966e-06,6
-3.35596e-05,1.52277e-05,-8.00293e-06,-5.14357e-06,1.4277e-05,7.97466e-05,1.85223e-05,-1.86384e-06,6
-3.34843e-05,1.6235e-05,-6.81034e-06,-4.70802e-06,1.49229e-05,3.05875e-05,1.45825e-05,-4.50637e-07,6
-2.95774e-05,1.67632e-05,-5.92161e-06,-3.55116e-06,1.64109e-05,-1.00614e-05,1.15894e-05,1.53146e-06,6
-2.58867e-05,1.61404e-05,-5.27398e-06,-1.20628e-06,1.82916e-05,-3.28257e-05,1.13813e-05,3.12779e-06,6
-2.54386e-05,1.48283e-05,-6.27907e-06,3.8039e-07,1.76358e-05,-5.19187e-05,5.84148e-06,2.41756e-06,6
-2.78662e-05,1.20763e-05,-9.43512e-06,-1.83583e-06,1.29305e-05,-8.90481e-05,-8.62007e-06,-2.2207e-06,6
-2.99596e-05,9.40202e-06,-1.23614e-05,-6.03236e-06,7.54972e-06,-0.000118,-1.43648e-05,-7.53463e-06,6
-2.98337e-05,8.54908e-06,-1.34513e-05,-8.16173e-06,7.48817e-06,-9.2473e-05,-2.63608e-06,-6.25461e-06,6
-2.80387e-05,8.04014e-06,-1.22304e-05,-8.01314e-06,1.03202e-05,-3.40525e-05,2.10436e-06,2.41821e-08,6
-2.48264e-05,7.03614e-06,-9.94491e-06,-7.16875e-06,1.09336e-05,2.15486e-06,-1.36318e-05,2.0373e-06,6
-2.16015e-05,5.85544e-06,-9.4388e-06,-7.62187e-06,1.11116e-05,1.11793e-05,-2.34387e-05,1.60943e-06,6
-2.07056e-05,4.38869e-06,-9.89849e-06,-8.94225e-06,1.13141e-05,1.99164e-05,-9.48076e-06,3.78831e-06,6
-2.19345e-05,2.84156e-06,-8.75042e-06,-9.82606e-06,1.18633e-05,3.62854e-05,2.25285e-05,6.79303e-06,6
-2.23534e-05,2.05406e-06,-7.57261e-06,-1.00065e-05,1.35452e-05,1.87244e-05,5.44098e-05,8.33914e-06,6
-2.20044e-05,2.35345e-06,-8.13094e-06,-8.94815e-06,1.42469e-05,-2.98559e-05,7.28319e-05,7.25224e-06,6
-2.24674e-05,3.87324e-06,-8.697e-06,-6.88856e-06,1.45239e-05,-6.12877e-05,7.01318e-05,6.34585e-06,6
-2.35364e-05,6.51979e-06,-7.8882e-06,-3.97747e-06,1.54633e-05,-7.90798e-05,4.66664e-05,4.24904e-06,6
-2.49987e-05,8.18425e-06,-6.31299e-06,-9.00108e-07,1.71474e-05,-8.96333e-05,1.46502e-05,1.07518e-06,6
-2.77358e-05,8.7921e-06,-4.23812e-06,1.17194e-06,1.94936e-05,-4.12935e-05,-9.02721e-06,-1.12028e-06,6
-3.01573e-05,9.16103e-06,-2.29002e-06,8.62683e-07,2.06237e-05,5.60938e-05,-1.26838e-05,-1.80022e-06,6
-3.16297e-05,8.99742e-06,-2.34021e-06,-1.40232e-06,2.09483e-05,9.36483e-05,-7.71777e-06,-3.67148e-06,6
-3.14043e-05,9.21662e-06,-3.28336e-06,-2.82148e-06,2.14889e-05,9.75005e-06,-1.8512e-05,-6.19937e-06,6
-2.98523e-05,1.08193e-05,-2.45397e-06,-1.60455e-06,2.18907e-05,-9.89297e-05,-4.87772e-05,-5.70124e-06,6
-2.77562e-05,1.2538e-05,-6.54165e-07,7.28989e-07,2.08602e-05,-9.87161e-05,-6.81629e-05,-4.06907e-06,6
-2.62034e-05,1.15154e-05,-1.64549e-06,-5.80489e-07,1.49121e-05,-2.76819e-05,-4.95337e-05,-6.23317e-06,6
-2.3916e-05,8.77454e-06,-4.5078e-06,-5.68736e-06,3.71968e-06,-1.35443e-05,1.08881e-05,-8.12729e-06,6
-2.00812e-05,8.09145e-06,-5.78533e-06,-8.526e-06,-3.15194e-06,-4.98813e-05,9.76572e-05,-8.82633e-07,6
-1.77032e-05,9.75081e-06,-5.57738e-06,-6.84446e-06,2.27869e-07,-3.95988e-05,0.000166555,1.29818e-05,6
-1.94461e-05,1.05562e-05,-5.53603e-06,-5.1459e-06,7.68548e-06,5.63154e-05,0.000170538,2.26311e-05,6
-2.44314e-05,9.00287e-06,-5.71697e-06,-5.5937e-06,1.17076e-05,0.000168478,0.000116563,2.2645e-05,6
-3.07396e-05,6.18149e-06,-5.77827e-06,-6.33203e-06,1.11511e-05,0.00018447,5.19806e-05,1.68168e-05,6
-3.35252e-05,4.5157e-06,-6.311e-06,-6.17344e-06,1.053e-05,0.000117337,7.48687e-06,1.221e-05,6
-3.00062e-05,4.95649e-06,-6.51526e-06,-3.94955e-06,1.36564e-05,6.07304e-05,-1.15587e-05,9.79431e-06,6
-2.67863e-05,6.43518e-06,-5.53058e-06,-1.84855e-06,1.96587e-05,3.71805e-05,-1.22279e-05,1.21484e-06,6
-2.92037e-05,6.6413e-06,-4.28419e-06,-4.72743e-07,2.46636e-05,3.89401e-06,-3.54312e-06,-2.06935e-05,6
-3.33112e-05,6.59691e-06,-4.1264e-06,5.97061e-07,2.55522e-05,-4.26002e-05,4.53056e-06,-5.2974e-05,6
-3.78276e-05,7.18422e-06,-4.75649e-06,-4.71806e-07,2.21328e-05,-6.05884e-05,-4.69514e-07,-7.67692e-05,6
-4.22715e-05,6.84151e-06,-8.55468e-06,-3.42905e-06,1.62156e-05,-7.45259e-05,-1.51845e-05,-7.69612e-05,6
-4.05796e-05,5.50422e-06,-1.42696e-05,-7.37544e-06,9.90602e-06,-0.000116706,-1.57161e-05,-6.05721e-05,6
-3.41912e-05,4.90367e-06,-1.53618e-05,-8.13405e-06,6.88057e-06,-0.000149451,-1.22008e-05,-4.06331e-05,6
-3.26186e-05,7.15912e-06,-1.12352e-05,-6.04139e-06,9.59128e-06,-0.000119213,-2.34651e-05,-1.14636e-05,6
-4.28288e-05,1.11148e-05,-6.89671e-06,-4.11788e-06,1.51847e-05,-7.11776e-05,-3.36512e-05,2.31938e-05,6
-5.05347e-05,1.32016e-05,-6.18858e-06,-3.27531e-06,1.82043e-05,-6.89742e-05,-2.82696e-05,3.96656e-05,6
-4.10035e-05,1.07963e-05,-7.76197e-06,-3.22702e-06,1.98564e-05,-2.73005e-05,-5.08867e-07,3.95141e-05,6
-1.91357e-05,7.16855e-06,-9.99696e-06,-2.37649e-06,2.21411e-05,0.000125258,3.57745e-05,3.75116e-05,6
-4.23215e-06,7.24091e-06,-1.15683e-05,-9.49544e-07,2.18147e-05,0.000265055,6.22135e-05,3.09658e-05,6
-6.23824e-06,1.10606e-05,-1.22494e-05,-4.45024e-07,1.81448e-05,0.000260432,6.34481e-05,1.85909e-05,6
-1.77752e-05,1.42118e-05,-1.1844e-05,-1.78639e-06,1.31903e-05,0.000151126,3.31995e-05,7.66645e-06,6
-2.89628e-05,1.37205e-05,-1.09699e-05,-3.82615e-06,9.24205e-06,4.89699e-05,-2.09749e-06,3.52899e-06,6
-3.40375e-05,1.07058e-05,-1.06112e-05,-5.4372e-06,6.9183e-06,3.63822e-06,-1.57898e-05,4.81347e-06,6
-3.41995e-05,9.41082e-06,-1.06468e-05,-6.02367e-06,6.73878e-06,-1.74389e-05,-1.38065e-05,7.61679e-06,6
-3.23159e-05,1.11857e-05,-1.09836e-05,-6.6216e-06,7.36664e-06,-4.39526e-05,-5.01136e-06,8.65891e-06,6
-3.1029e-05,1.38289e-05,-1.06787e-05,-6.94612e-06,8.37027e-06,-6.35879e-05,1.55637e-05,7.21245e-06,6
-2.91441e-05,1.63366e-05,-9.17996e-06,-6.03001e-06,1.16636e-05,-5.75448e-05,4.40194e-05,7.08809e-06,6
-2.79087e-05,1.80514e-05,-6.80523e-06,-4.61488e-06,1.67279e-05,-4.78506e-05,5.77578e-05,6.76055e-06,6
-3.00684e-05,1.66911e-05,-6.23034e-06,-4.79592e-06,1.75697e-05,-6.86206e-05,3.74109e-05,1.77214e-06,6
-3.40863e-05,1.2401e-05,-7.82113e-06,-6.4337e-06,1.09769e-05,-0.000107392,7.10556e-06,-6.21153e-06,6
-3.55812e-05,9.4704e-06,-8.8685e-06,-7.54984e-06,2.85664e-06,-0.000123248,-1.79116e-06,-9.20801e-06,6
-3.30828e-05,1.00171e-05,-8.24478e-06,-6.77347e-06,2.31865e-07,-0.0001237,6.95823e-06,-4.22248e-06,6
-2.79158e-05,1.33445e-05,-7.96588e-06,-5.39203e-06,4.38192e-06,-0.000137925,1.47578e-05,3.69144e-06,6
-2.67509e-05,1.5588e-05,-8.87281e-06,-4.90844e-06,1.03181e-05,-0.000140751,1.58319e-05,6.2493e-06,6
-2.99881e-05,1.57657e-05,-1.03066e-05,-3.33002e-06,1.24781e-05,-7.17778e-05,1.37994e-05,2.86811e-06,6
-3.22647e-05,1.61814e-05,-1.1546e-05,-2.11774e-06,6.81654e-06,1.91152e-05,9.73731e-06,-1.8806e-06,6
-3.24406e-05,1.60907e-05,-1.19844e-05,-3.2705e-06,-3.09483e-07,3.92447e-05,2.8356e-06,-4.3763e-06,6
-3.08865e-05,1.57334e-05,-1.12518e-05,-4.36621e-06,-6.52537e-07,2.40882e-05,2.43229e-07,-4.38599e-06,6
-2.81145e-05,1.51306e-05,-1.04401e-05,-4.31657e-06,2.43664e-06,1.87919e-05,6.06752e-06,-2.73732e-06,6
-2.68459e-05,1.47452e-05,-8.76038e-06,-3.48628e-06,2.1936e-06,1.71553e-05,1.33313e-05,1.00725e-06,6
-2.71798e-05,1.51617e-05,-6.28947e-06,-1.85358e-06,-6.44795e-07,7.4475e-06,1.72258e-05,3.84655e-06,6
-2.78268e-05,1.38202e-05,-4.48184e-06,-2.2927e-06,-1.94944e-06,-5.83747e-06,1.2183e-05,1.22771e-06,6
-2.90824e-05,1.15715e-05,-3.59388e-06,-5.21076e-06,2.08246e-07,-6.51515e-06,5.89052e-06,-5.51463e-06,6
-2.93091e-05,1.02466e-05,-4.02645e-06,-6.39355e-06,3.96243e-06,2.7566e-05,1.72406e-05,-7.29299e-06,6
-2.88252e-05,1.13757e-05,-4.61401e-06,-5.92671e-06,4.81376e-06,7.52292e-05,3.76324e-05,-3.15331e-06,6
-2.62631e-05,1.38648e-05,-4.72768e-06,-5.62475e-06,4.8684e-06,9.76314e-05,4.30008e-05,1.57662e-06,6
-1.20458e-05,1.60697e-05,-4.43262e-06,-4.55719e-06,7.18225e-06,8.7685e-05,3.16949e-05,4.29835e-06,6
2.05036e-05,1.70323e-05,-4.31234e-06,-2.7107e-06,1.28174e-05,6.3554e-05,1.87194e-05,5.47459e-06,6
4.44924e-05,1.52833e-05,-3.7882e-06,-1.67387e-06,2.01073e-05,4.21858e-05,1.17094e-05,6.33968e-06,6
2.71648e-05,1.27527e-05,-3.22394e-06,-1.15331e-06,2.51584e-05,2.2868e-05,7.92579e-06,6.10414e-06,6
-2.2644e-05,1.12239e-05,-3.99644e-06,-1.91922e-06,2.4339e-05,7.68046e-06,2.53325e-06,2.42913e-06,6
-6.55664e-05,1.06454e-05,-6.76774e-06,-4.86792e-06,1.84317e-05,-1.63032e-07,-9.73063e-06,-3.37117e-06,6
-8.09276e-05,1.09711e-05,-9.7793e-06,-6.90464e-06,1.39717e-05,1.86512e-06,-2.64045e-05,-6.59466e-06,6
-8.08785e-05,1.3148e-05,-1.03665e-05,-4.63382e-06,1.57541e-05,6.69521e-06,-3.7497e-05,-5.78147e-06,6
-8.09419e-05,1.69167e-05,-8.14583e-06,1.0025e-07,2.2477e-05,3.48607e-06,-3.51939e-05,-2.8881e-06,6
-6.89685e-05,2.11419e-05,-5.86503e-06,2.03994e-06,2.80766e-05,-2.75917e-05,-2.32293e-05,1.84263e-06,6
-2.64974e-05,2.41163e-05,-6.28549e-06,7.8659e-07,2.58159e-05,-8.78588e-05,-8.4867e-06,6.63447e-06,6
1.49399e-05,2.34134e-05,-9.40152e-06,-1.03689e-06,1.64496e-05,-0.000137401,1.11683e-05,4.76183e-06,6
1.3782e-05,1.93006e-05,-1.19003e-05,-2.67798e-06,5.97969e-06,-0.000128198,3.14072e-05,-4.53254e-06,6
-1.55657e-05,1.816e-05,-9.85252e-06,-3.59246e-06,-2.3712e-07,-7.8215e-05,3.89444e-05,-1.23367e-05,6
-4.02695e-05,1.97491e-05,-6.36157e-06,-3.1783e-06,1.65378e-06,-4.26693e-05,3.269e-05,-1.36928e-05,6
-5.87867e-05,1.67071e-05,-6.76475e-06,-3.46408e-06,6.71552e-06,-3.83399e-05,1.99659e-05,-1.14641e-05,6
-7.68525e-05,9.41737e-06,-9.7836e-06,-4.89687e-06,9.7209e-06,-4.62321e-05,1.22757e-05,-8.00866e-06,6
-8.39872e-05,5.30445e-06,-1.31423e-05,-5.7599e-06,8.19011e-06,-4.48317e-05,1.21333e-05,-6.17049e-06,6
-7.28663e-05,4.70309e-06,-1.51025e-05,-5.03085e-06,4.77661e-06,-3.11343e-05,1.4505e-05,-5.68947e-06,6
-5.25251e-05,3.51669e-06,-1.34994e-05,-4.8173e-06,4.45138e-06,-1.45966e-05,1.41681e-05,-5.35409e-06,6
-3.79553e-05,2.23272e-06,-1.00809e-05,-6.7001e-06,6.71262e-06,-4.94122e-06,9.15375e-06,-4.96563e-06,6
-3.29929e-05,9.30094e-07,-8.38736e-06,-8.47962e-06,7.92466e-06,-3.10647e-06,5.55714e-06,-4.50262e-06,6
-3.26157e-05,4.56353e-07,-8.98739e-06,-9.19045e-06,6.97453e-06,-2.36701e-06,7.24909e-06,-5.19804e-06,6
-3.21752e-05,1.21294e-06,-8.75569e-06,-9.54375e-06,6.35482e-06,2.83457e-06,1.11457e-05,-6.32635e-06,6
-3.09136e-05,2.52968e-06,-7.05124e-06,-8.71179e-06,7.28493e-06,-6.12494e-06,9.85749e-06,-7.47897e-06,6
-2.98037e-05,4.59693e-06,-5.85156e-06,-7.34357e-06,9.86356e-06,-3.08415e-05,9.47689e-06,-6.68514e-06,6
-2.81744e-05,6.16128e-06,-4.56352e-06,-6.13095e-06,1.19812e-05,-2.83857e-05,1.4964e-05,-3.04783e-06,6
-2.68414e-05,6.04828e-06,-2.8937e-06,-5.61231e-06,1.2618e-05,1.50792e-05,2.27556e-05,1.48442e-06,6
-2.72422e-05,5.44216e-06,-2.05779e-06,-5.143e-06,1.27674e-05,6.28935e-05,2.84669e-05,3.57174e-06,6
-2.96557e-05,4.57006e-06,-1.31016e-06,-4.83706e-06,1.45024e-05,8.775e-05,3.15375e-05,2.74166e-06,6
-3.05248e-05,4.37637e-06,-4.83062e-07,-5.62251e-06,1.7414e-05,9.34129e-05,3.12403e-05,2.69967e-06,6
-2.82908e-05,5.91061e-06,-1.14439e-06,-6.11466e-06,1.82477e-05,6.68162e-05,2.29197e-05,4.00019e-06,6
-2.61581e-05,7.79752e-06,-3.71104e-06,-7.00766e-06,1.38973e-05,-1.11225e-05,6.85144e-06,2.54268e-06,6
-2.72986e-05,8.54969e-06,-6.25072e-06,-8.38146e-06,6.53714e-06,-0.000104686,-6.82158e-06,-4.07225e-06,6
-3.01425e-05,8.56644e-06,-7.34119e-06,-8.65857e-06,2.18348e-06,-0.000154217,-9.13303e-06,-1.07126e-05,6
-3.1488e-05,9.55004e-06,-7.92545e-06,-7.52746e-06,2.48287e-06,-0.00014165,-1.48457e-06,-1.20523e-05,6
-3.15226e-05,1.44944e-05,-8.87369e-06,-7.03145e-06,4.70826e-06,-7.56642e-05,1.10699e-05,-1.03509e-05,6
-3.14708e-05,2.26987e-05,-9.18769e-06,-6.17484e-06,8.06363e-06,3.24097e-05,1.934e-05,-9.89721e-06,6
-2.9769e-05,2.69954e-05,-8.62184e-06,-5.0103e-06,1.31104e-05,0.000128487,1.39932e-05,-9.4046e-06,6
-2.73304e-05,2.46368e-05,-7.62498e-06,-3.53976e-06,1.80687e-05,0.000165565,-1.78559e-06,-6.97732e-06,6
-2.66204e-05,1.99891e-05,-6.81334e-06,-2.68293e-06,2.26206e-05,0.000163683,-1.63318e-05,-3.76994e-06,6
-2.67342e-05,1.65309e-05,-6.04241e-06,-2.09516e-06,2.46363e-05,0.000140274,-2.63839e-05,-2.05399e-07,6
-2.91201e-05,1.4984e-05,-5.46804e-06,-1.6497e-06,1.82576e-05,6.89564e-05,-1.89454e-05,1.56423e-06,6
-3.59613e-05,1.33236e-05,-7.30341e-06,-5.41971e-06,5.24269e-06,-2.49451e-05,1.37197e-05,1.86367e-06,6
-4.38231e-05,9.89385e-06,-1.06368e-05,-1.03608e-05,-6.39793e-06,-5.20004e-05,5.75817e-05,8.48667e-07,6
-4.78071e-05,7.51033e-06,-1.25696e-05,-1.21485e-05,-1.04268e-05,1.20054e-05,8.79262e-05,-6.6293e-06,6
-4.6054e-05,6.61991e-06,-1.23958e-05,-1.10468e-05,-7.481e-06,9.30152e-05,8.35709e-05,-1.66919e-05,6
-3.88434e-05,7.19934e-06,-1.2097e-05,-9.99347e-06,-4.12432e-06,0.00011857,5.06241e-05,-2.21087e-05,6
-2.67227e-05,9.27234e-06,-1.18966e-05,-9.10226e-06,-2.42171e-06,7.028e-05,1.87643e-05,-2.16487e-05,6
-1.52573e-05,1.05436e-05,-1.0488e-05,-6.60042e-06,1.24128e-06,-3.77576e-05,1.09735e-05,-1.41198e-05,6
-1.1218e-05,1.1038e-05,-8.97619e-06,-5.26464e-06,8.21025e-06,-0.000171422,1.06056e-05,6.00238e-07,6
-1.21537e-05,1.06111e-05,-9.93285e-06,-5.52685e-06,1.16429e-05,-0.000284448,-7.71409e-06,1.42638e-05,6
-1.1568e-05,1.03835e-05,-1.18584e-05,-6.02889e-06,1.15052e-05,-0.000312205,-3.22106e-05,2.56706e-05,6
-8.93404e-06,1.09323e-05,-1.21389e-05,-5.27965e-06,1.51823e-05,-0.000233079,-3.00123e-05,4.10006e-05,6
-9.0543e-06,1.16802e-05,-1.09546e-05,-2.37753e-06,2.48182e-05,-0.000118233,-9.47754e-07,4.67487e-05,6
-1.33004e-05,1.28396e-05,-8.2992e-06,-3.3142e-07,3.43467e-05,-5.1576e-05,2.39657e-05,3.48469e-05,6
-1.90498e-05,1.38917e-05,-5.64119e-06,-8.29608e-07,3.90175e-05,-4.2609e-05,2.92348e-05,1.77067e-05,6
-2.22534e-05,1.40174e-05,-4.79716e-06,-2.69355e-06,3.89962e-05,-5.62435e-05,2.13656e-05,6.59766e-06,6
-2.25443e-05,1.27409e-05,-6.09803e-06,-3.2239e-06,3.44475e-05,-7.87234e-05,1.04392e-05,2.77748e-06,6
-2.22916e-05,1.08232e-05,-7.7968e-06,-2.63538e-06,2.73003e-05,-9.81991e-05,-3.96259e-07,5.44969e-06,6
-2.27307e-05,8.6563e-06,-8.92693e-06,-3.64323e-06,2.04134e-05,-9.38031e-05,-9.56171e-06,1.104e-05,6
-2.30706e-05,7.63126e-06,-9.42082e-06,-6.19849e-06,1.49369e-05,-8.20631e-05,-1.42857e-05,1.31071e-05,6
-2.31618e-05,8.14569e-06,-9.85595e-06,-8.0334e-06,1.04494e-05,-9.55074e-05,-1.03656e-05,1.33561e-05,6
-2.22659e-05,9.60597e-06,-1.00319e-05,-7.4701e-06,9.54522e-06,-0.000102825,9.02732e-06,1.61051e-05,6
-2.00441e-05,1.20121e-05,-9.37832e-06,-5.00419e-06,1.2823e-05,-5.07633e-05,4.21811e-05,1.85174e-05,6
-1.90978e-05,1.39722e-05,-8.0765e-06,-4.12321e-06,1.67289e-05,4.83361e-05,6.51366e-05,1.56932e-05,6
-2.06265e-05,1.4929e-05,-5.72749e-06,-4.51861e-06,1.78415e-05,0.000120661,6.27363e-05,9.88871e-06,6
-2.39652e-05,1.5606e-05,-3.64183e-06,-3.93217e-06,1.68424e-05,0.000141977,4.94055e-05,6.39322e-06,6
-2.90922e-05,1.62109e-05,-2.98348e-06,-3.95152e-06,1.6886e-05,0.000177227,4.04878e-05,4.87601e-06,6
-3.51323e-05,1.5653e-05,-2.9135e-06,-6.41312e-06,1.57992e-05,0.000178273,2.43654e-05,5.72862e-07,6
-3.79573e-05,1.35653e-05,-3.33387e-06,-7.91525e-06,8.81045e-06,7.83634e-05,-6.28971e-06,-4.41732e-06,6
-3.658e-05,1.35965e-05,-4.53576e-06,-7.16212e-06,3.52282e-06,-1.92169e-05,-2.52954e-05,-7.24089e-06,6
-3.39207e-05,1.4881e-05,-4.50764e-06,-8.26045e-06,4.21517e-06,-4.44645e-05,-2.30692e-05,-7.75034e-06,6
-3.15105e-05,1.59248e-05,-3.69977e-06,-9.712e-06,6.96394e-06,-2.42845e-05,-6.81603e-06,-6.15792e-06,6
-2.8987e-05,1.83147e-05,-3.06459e-06,-9.90583e-06,1.19294e-05,1.89569e-06,1.77963e-05,-2.14064e-06,6
-2.634e-05,2.05252e-05,-2.59139e-06,-9.13938e-06,1.76084e-05,1.40758e-05,3.74943e-05,3.45306e-06,6
-2.64628e-05,2.14299e-05,-3.24276e-06,-8.16455e-06,2.01864e-05,1.1056e-05,2.86888e-05,6.8947e-06,6
-2.8777e-05,2.00818e-05,-4.80846e-06,-6.52337e-06,1.73101e-05,-6.50394e-06,-1.70813e-05,5.8986e-06,6
-3.00057e-05,1.88926e-05,-5.58769e-06,-4.53648e-06,1.36565e-05,-2.21654e-05,-6.78463e-05,2.10501e-06,6
-2.96032e-05,1.86506e-05,-4.98313e-06,-3.60213e-06,1.45908e-05,-1.83699e-05,-8.56459e-05,-3.18771e-07,6
-2.95877e-05,1.71499e-05,-4.45759e-06,-3.99967e-06,1.87152e-05,5.51852e-06,-6.1359e-05,-9.00073e-08,6
-3.03867e-05,1.44603e-05,-4.65952e-06,-4.41095e-06,2.17369e-05,2.85937e-05,-1.64541e-05,5.1512e-07,6
-3.06084e-05,1.23807e-05,-6.17623e-06,-3.9519e-06,2.23808e-05,3.50246e-05,2.11969e-05,7.71351e-07,6
-3.09815e-05,1.0589e-05,-8.80156e-06,-4.51941e-06,2.1599e-05,3.4276e-05,3.93337e-05,1.44796e-06,6
-3.21631e-05,8.6446e-06,-1.1448e-05,-6.29027e-06,2.08175e-05,3.71269e-05,4.70744e-05,1.69644e-06,6
-3.38323e-05,7.27083e-06,-1.33644e-05,-7.55869e-06,2.0538e-05,2.70207e-05,5.58902e-05,1.1045e-06,6
-3.44867e-05,6.90185e-06,-1.36451e-05,-7.14168e-06,2.10365e-05,-5.93842e-06,6.64556e-05,1.11072e-06,6
-3.31594e-05,8.69965e-06,-1.19983e-05,-6.25491e-06,2.15992e-05,-5.34484e-05,7.82521e-05,3.84281e-06,6
-3.00977e-05,1.19947e-05,-9.93892e-06,-6.18337e-06,1.9944e-05,-0.000119515,8.39531e-05,5.3408e-06,6
-2.82333e-05,1.43352e-05,-9.4507e-06,-6.75209e-06,1.65839e-05,-0.000186269,6.67761e-05,1.62145e-06,6
-2.76332e-05,1.45381e-05,-1.1093e-05,-6.29709e-06,1.56264e-05,-0.000174201,3.36883e-05,-3.03067e-06,6
-2.69994e-05,1.37946e-05,-1.3151e-05,-5.26996e-06,1.76243e-05,-2.9028e-05,1.01582e-05,-4.23282e-06,6
-2.68706e-05,1.37705e-05,-1.46308e-05,-3.6669e-06,1.89433e-05,0.000145634,-2.45984e-06,-4.10456e-06,6
-2.79823e-05,1.39068e-05,-1.41118e-05,-3.09774e-06,1.87362e-05,0.000192198,-1.76134e-05,-3.80262e-06,6
-2.96821e-05,1.23142e-05,-1.2694e-05,-6.13947e-06,1.78053e-05,0.000122771,-3.04029e-05,-3.81924e-06,6
-3.06264e-05,1.08568e-05,-1.2651e-05,-7.91592e-06,1.61451e-05,5.21751e-05,-2.83143e-05,-4.78718e-06,6
-3.24284e-05,1.0929e-05,-1.14528e-05,-7.43405e-06,1.63292e-05,2.71673e-05,-9.06709e-06,-3.83988e-06,6
-3.60002e-05,1.21117e-05,-1.02829e-05,-7.37673e-06,1.92167e-05,3.68086e-05,1.34922e-05,-1.03596e-06,6
-3.98366e-05,1.29647e-05,-9.99176e-06,-4.58196e-06,2.15139e-05,5.22502e-05,2.49436e-05,1.29251e-06,6
-3.94497e-05,1.3247e-05,-9.60936e-06,-2.18038e-06,2.30003e-05,5.76453e-05,2.68611e-05,2.66462e-06,6
-3.59738e-05,1.3959e-05,-8.87528e-06,-2.32113e-06,2.28492e-05,5.11717e-05,2.1449e-05,4.39378e-06,6
-3.818e-05,1.56946e-05,-7.78446e-06,-3.3221e-06,2.22185e-05,3.02735e-05,1.37374e-05,3.77837e-06,6
-4.71482e-05,1.61806e-05,-8.29639e-06,-3.91232e-06,2.34971e-05,-1.31094e-06,1.80176e-06,-1.19935e-06,6
-5.65037e-05,1.44074e-05,-9.72646e-06,-3.75732e-06,2.24257e-05,-4.7962e-05,-2.39322e-05,-7.15603e-06,6
-6.09443e-05,1.28779e-05,-9.8808e-06,-5.98262e-06,1.66882e-05,-0.000106588,-5.63333e-05,-1.47193e-05,6
-5.80753e-05,1.28475e-05,-8.87421e-06,-8.28275e-06,9.09361e-06,-0.00014167,-6.40502e-05,-2.15609e-05,6
-4.65183e-05,1.45234e-05,-7.1014e-06,-8.21879e-06,5.32236e-06,-0.000133053,-3.28383e-05,-2.17825e-05,6
-2.89377e-05,1.65909e-05,-3.70712e-06,-4.90723e-06,8.36763e-06,-0.000119159,1.26115e-05,-1.54795e-05,6
-1.36318e-05,1.80261e-05,-5.90935e-07,-2.68398e-07,1.43269e-05,-0.000137664,4.06254e-05,-7.03497e-06,6
-6.21679e-06,1.92947e-05,2.14757e-07,2.01394e-06,1.70533e-05,-0.000149687,4.91808e-05,1.5647e-06,6
-8.00193e-06,2.00745e-05,-5.48586e-07,4.3129e-07,1.35409e-05,-8.77341e-05,4.96324e-05,4.18364e-06,6
-1.53149e-05,1.68922e-05,-1.71026e-06,-3.18494e-06,6.40675e-06,2.20783e-05,4.04043e-05,2.25674e-06,6
-2.13392e-05,1.03756e-05,-3.41702e-06,-6.27633e-06,9.09591e-07,8.15166e-05,2.51329e-05,7.68726e-06,6
-2.32078e-05,5.69124e-06,-5.41585e-06,-7.65657e-06,1.7777e-06,6.87565e-05,1.29567e-05,1.42595e-05,6
-2.3279e-05,5.42065e-06,-6.33074e-06,-7.02488e-06,7.16311e-06,5.51085e-05,9.20253e-06,1.21778e-05,6
-2.34251e-05,7.6505e-06,-5.71051e-06,-4.82677e-06,1.18544e-05,7.43623e-05,9.16269e-06,6.94856e-06,6
-2.45979e-05,1.04777e-05,-4.67707e-06,-1.88585e-06,1.40582e-05,8.57602e-05,7.58372e-06,5.69653e-06,6
-2.68271e-05,1.28056e-05,-4.18604e-06,-6.82876e-07,1.62575e-05,6.70797e-05,6.14292e-06,7.26157e-06,6
-2.84136e-05,1.36304e-05,-5.34066e-06,-1.44788e-06,1.97397e-05,3.99197e-05,1.10922e-05,7.3143e-06,6
-2.90002e-05,1.29967e-05,-7.43626e-06,-1.93962e-06,2.17809e-05,2.1768e-05,2.12884e-05,6.48852e-06,6
-2.92036e-05,1.25708e-05,-7.55933e-06,-2.16847e-06,2.11433e-05,1.42424e-05,3.12452e-05,7.84012e-06,6
-3.08998e-05,1.28948e-05,-6.58577e-06,-2.89782e-06,2.04666e-05,1.1626e-05,3.50662e-05,9.13324e-06,6
-3.90522e-05,1.26492e-05,-6.0679e-06,-2.07875e-06,2.16751e-05,5.00362e-06,2.88435e-05,1.06403e-05,6
-6.37175e-05,9.80808e-06,-6.97766e-06,-5.6652e-07,2.04373e-05,-8.53923e-06,1.54336e-05,1.44132e-05,6
-9.21133e-05,6.92694e-06,-8.98935e-06,-1.87456e-07,1.39429e-05,-2.26622e-05,4.2529e-06,1.61447e-05,6
-0.000105302,7.68363e-06,-1.0367e-05,3.40366e-07,6.62549e-06,-2.4166e-05,4.27775e-06,1.48756e-05,6
-0.000106143,8.71606e-06,-9.91329e-06,1.07216e-06,3.97364e-06,-1.14698e-05,1.35367e-05,1.40289e-05,6
-9.8535e-05,8.10899e-06,-8.58817e-06,9.51389e-07,5.11847e-06,-3.73737e-06,2.38381e-05,1.21628e-05,6
-9.43204e-05,7.03237e-06,-9.18164e-06,-9.26021e-08,7.07853e-06,-1.13855e-05,2.81057e-05,-3.84965e-07,6
-9.37433e-05,7.96783e-06,-9.87885e-06,-5.87426e-07,8.26354e-06,-2.59078e-05,2.57122e-05,-2.54659e-05,6
-7.28841e-05,9.28329e-06,-8.83447e-06,-1.75485e-06,7.84422e-06,-3.48627e-05,1.982e-05,-4.04952e-05,6
2.16031e-05,1.17435e-05,-7.01311e-06,-4.11869e-06,6.66722e-06,-3.52744e-05,1.65242e-05,-2.98949e-05,6
0.000184135,1.71153e-05,-6.06187e-06,-3.74526e-06,5.25647e-06,-3.24354e-05,1.60681e-05,-7.13554e-06,6
0.000281883,2.02094e-05,-7.71773e-06,-2.10608e-06,4.95016e-06,-2.07363e-05,1.41967e-05,4.57574e-06,6
0.000225288,1.85899e-05,-1.05741e-05,-2.82459e-06,6.03388e-06,4.89358e-06,9.35688e-06,-8.418e-07,6
8.21524e-05,1.46106e-05,-1.14622e-05,-5.80366e-06,7.26453e-06,3.11191e-05,3.44402e-06,-1.39599e-05,6
-3.21623e-05,1.03645e-05,-9.63358e-06,-8.3576e-06,8.00542e-06,4.61562e-05,-1.15044e-06,-2.28645e-05,6
-6.61013e-05,7.55581e-06,-7.1369e-06,-8.28872e-06,8.97352e-06,5.07398e-05,-1.76353e-06,-2.07052e-05,6
-2.83395e-05,8.9631e-06,-5.40547e-06,-5.14121e-06,1.1153e-05,4.52113e-05,5.72849e-07,-1.00038e-05,6
3.07479e-05,1.37558e-05,-3.06508e-06,-8.46723e-07,1.39847e-05,2.32499e-05,-1.6484e-06,1.66134e-06,6
4.54934e-05,1.74869e-05,4.63918e-07,8.7792e-07,1.39685e-05,-1.04558e-05,-6.02182e-06,6.34054e-06,6
-9.42228e-07,1.56887e-05,1.47722e-06,-1.33935e-06,9.05748e-06,-3.18245e-05,5.91401e-06,3.82693e-06,6
-6.55511e-05,8.39215e-06,-1.57744e-06,-5.0521e-06,2.93769e-06,-2.57338e-05,3.74906e-05,-2.61187e-06,6
-0.000105533,9.29687e-07,-6.25451e-06,-6.83287e-06,-8.2806e-07,4.36318e-07,6.17684e-05,-7.53052e-06,6
-0.00011204,-1.65679e-06,-1.00673e-05,-6.92384e-06,-4.50074e-07,3.42723e-05,5.82075e-05,-8.22859e-06,6
-0.000110959,-6.06116e-07,-1.23243e-05,-7.04894e-06,4.31e-06,6.58952e-05,3.38344e-05,-6.09423e-06,6
-0.000128707,9.13372e-07,-1.26152e-05,-7.90507e-06,1.11788e-05,7.82016e-05,1.42809e-05,-3.96796e-06,6
-0.00015329,4.53776e-06,-9.82362e-06,-6.78726e-06,1.95503e-05,6.37018e-05,1.55847e-05,-1.34549e-06,6
-0.000143125,1.11552e-05,-6.70392e-06,-4.13494e-06,2.56605e-05,2.44187e-05,2.78593e-05,3.02277e-06,6
-9.39093e-05,1.58031e-05,-6.26924e-06,-3.34167e-06,2.09552e-05,-4.52752e-05,3.35556e-05,4.07587e-06,6
-5.60999e-05,1.52419e-05,-7.9681e-06,-6.37921e-06,7.9226e-06,-0.000137808,2.38343e-05,-1.79942e-06,6
-5.63139e-05,1.20639e-05,-8.95809e-06,-1.06094e-05,2.9755e-07,-0.00020053,1.2994e-05,-9.85588e-06,6
-5.93164e-05,1.14409e-05,-8.06459e-06,-1.0896e-05,-7.63448e-07,-0.000211905,8.2513e-06,-1.55017e-05,6
-4.19323e-05,1.40476e-05,-7.69724e-06,-8.79964e-06,-2.73366e-07,-0.000188133,2.84512e-06,-1.65244e-05,6
-2.35135e-05,1.70687e-05,-7.64381e-06,-6.18531e-06,2.3637e-06,-0.000119235,8.32835e-07,-1.07257e-05,6
-1.64277e-05,1.7623e-05,-8.50648e-06,-6.85083e-06,6.14912e-06,-3.72863e-05,4.70909e-06,-2.83671e-06,6
-2.19808e-05,1.50737e-05,-1.0403e-05,-1.06827e-05,9.64723e-06,1.58217e-05,1.57277e-05,1.49262e-06,6
-2.89639e-05,1.28162e-05,-1.03082e-05,-1.09737e-05,1.12158e-05,3.44102e-05,2.90384e-05,2.39061e-06,6
-3.38359e-05,1.31564e-05,-8.10283e-06,-7.96786e-06,1.44151e-05,4.26685e-05,3.88124e-05,2.21032e-06,6
-3.68265e-05,1.6094e-05,-5.14819e-06,-6.38896e-06,2.03849e-05,4.61147e-05,4.2068e-05,1.94242e-06,6
-3.68456e-05,1.84769e-05,-3.30188e-06,-6.42684e-06,2.74816e-05,3.38881e-05,4.04317e-05,9.40105e-07,6
-3.28938e-05,2.09875e-05,-2.62037e-06,-4.63781e-06,3.42462e-05,3.68205e-06,2.98464e-05,1.23412e-06,6
-2.74697e-05,2.27152e-05,-2.48573e-06,-1.17129e-06,3.74093e-05,-4.89193e-05,3.21624e-06,1.36302e-06,6
-2.67263e-05,2.17906e-05,-3.47869e-06,-1.5805e-07,3.46978e-05,-0.00011819,-2.62605e-05,-1.58864e-06,6
-2.95652e-05,1.88674e-05,-5.61671e-06,-4.50269e-06,2.61242e-05,-0.000175766,-3.64664e-05,-3.54195e-06,6
-3.25725e-05,1.70669e-05,-8.13348e-06,-1.0166e-05,1.53197e-05,-0.000190817,-2.82294e-05,5.029e-07,6
-3.25496e-05,1.72957e-05,-9.63282e-06,-1.14381e-05,8.08118e-06,-0.000175105,-2.28779e-05,6.00888e-06,6
-3.23753e-05,1.75236e-05,-9.72185e-06,-8.62993e-06,7.70633e-06,-0.000145896,-3.08907e-05,4.19563e-06,6
-3.15985e-05,1.86021e-05,-8.9375e-06,-5.36378e-06,1.23248e-05,-9.27848e-05,-4.24258e-05,-8.24008e-07,6
-3.03395e-05,1.9971e-05,-8.04234e-06,-3.70814e-06,1.83614e-05,-5.68268e-06,-4.01105e-05,-1.29387e-06,6
-2.86185e-05,2.05785e-05,-7.69668e-06,-2.95339e-06,2.17145e-05,8.02785e-05,-2.45712e-05,2.91597e-07,6
-2.69107e-05,2.07526e-05,-7.58765e-06,-1.88287e-06,2.17241e-05,0.000143778,-4.32343e-06,-1.99029e-07,6
-2.54351e-05,2.13766e-05,-6.98742e-06,-1.6688e-06,1.88773e-05,0.000162134,1.73965e-05,-1.03254e-06,6
-2.55375e-05,1.99409e-05,-7.1447e-06,-2.82608e-06,1.14973e-05,0.000112604,3.64508e-05,2.78462e-07,6
-2.51099e-05,1.68579e-05,-8.28853e-06,-3.78638e-06,2.48837e-06,5.03042e-05,5.04608e-05,1.0356e-05,6
-2.29189e-05,1.58203e-05,-7.16028e-06,-4.7671e-06,-5.64432e-07,1.96016e-05,5.22655e-05,2.36621e-05,6
-2.08267e-05,1.63424e-05,-3.68604e-06,-5.8387e-06,3.4139e-06,7.43953e-06,3.5194e-05,2.37102e-05,6
-1.98049e-05,1.63736e-05,-1.85749e-06,-4.67874e-06,9.32708e-06,7.53667e-06,1.43094e-05,1.18423e-05,6
-2.17913e-05,1.68986e-05,-4.07624e-06,-2.52892e-06,1.12621e-05,2.69058e-06,1.20271e-05,3.05915e-06,6
-2.66969e-05,1.62258e-05,-7.74963e-06,-1.9002e-06,1.01555e-05,-1.18145e-05,2.95722e-05,1.10061e-06,6
-3.15192e-05,1.46948e-05,-9.69279e-06,-8.67173e-07,1.00512e-05,-2.95627e-05,4.23239e-05,-2.16239e-07,6
-3.14085e-05,1.47464e-05,-1.00486e-05,8.03631e-07,1.22037e-05,-5.45761e-05,4.16652e-05,-2.2207e-06,6
-2.88621e-05,1.52355e-05,-9.26304e-06,1.78727e-06,1.37894e-05,-0.000107322,3.66843e-05,-3.9047e-06,6
-2.77422e-05,1.47204e-05,-8.51623e-06,2.46596e-06,1.16215e-05,-0.000165311,2.05894e-05,-4.61595e-06,6
-2.70892e-05,1.42814e-05,-7.37439e-06,2.91918e-06,9.30282e-06,-0.000134097,-1.58878e-05,-4.1063e-06,6
-2.73263e-05,1.4786e-05,-6.24388e-06,2.53499e-06,1.00981e-05,-3.15048e-05,-7.21109e-05,-2.25593e-06,6
-2.71041e-05,1.48383e-05,-5.97224e-06,1.41738e-06,1.06187e-05,3.39495e-05,-0.000129461,-6.7268e-07,6
-2.55816e-05,1.41565e-05,-6.46586e-06,1.26962e-07,7.82452e-06,4.1834e-05,-0.000145445,1.58295e-06,6
-2.30771e-05,1.41533e-05,-6.59183e-06,-1.00294e-06,5.34873e-06,7.19455e-05,-8.48539e-05,6.23684e-06,6
-1.97997e-05,1.49349e-05,-6.24547e-06,-1.81835e-06,5.11957e-06,0.000147956,2.14539e-05,1.24829e-05,6
-1.88331e-05,1.38305e-05,-7.2646e-06,-2.67413e-06,3.71813e-06,0.000182773,0.000105744,1.52262e-05,6
-2.15291e-05,1.05368e-05,-8.33668e-06,-4.20244e-06,3.95505e-07,0.00012655,0.000140992,1.16607e-05,6
-2.58404e-05,7.76875e-06,-8.38009e-06,-5.61465e-06,-1.25438e-06,3.81837e-05,0.000139318,6.00013e-06,6
-2.75536e-05,7.29913e-06,-8.69094e-06,-5.34459e-06,9.62541e-07,-1.6004e-05,0.000110766,3.34566e-06,6
-2.60272e-05,8.52996e-06,-1.01446e-05,-3.1434e-06,5.87241e-06,-2.3262e-05,6.59956e-05,5.56169e-06,6
-2.32077e-05,1.00414e-05,-1.11909e-05,-5.46018e-07,9.58127e-06,3.08721e-06,2.36613e-05,9.70921e-06,6
-2.27826e-05,1.05191e-05,-1.16949e-05,-4.98378e-07,1.04101e-05,3.76612e-05,-4.3643e-06,1.15503e-05,6
-2.74191e-05,9.90258e-06,-1.33115e-05,-3.37851e-06,1.00461e-05,4.24743e-05,-1.84632e-05,7.71852e-06,6
-3.52954e-05,7.75167e-06,-1.53349e-05,-7.43755e-06,8.0529e-06,1.00143e-05,-1.92306e-05,-7.9166e-07,6
-4.00573e-05,5.9157e-06,-1.44875e-05,-1.03123e-05,4.50858e-06,-1.98228e-05,-1.75946e-06,-5.74387e-06,6
-3.82042e-05,6.08262e-06,-1.16119e-05,-1.01184e-05,5.00209e-06,-2.53213e-05,2.05669e-05,-2.37127e-06,6
-3.28151e-05,7.79573e-06,-9.91536e-06,-8.77897e-06,1.07672e-05,-1.83305e-05,2.70149e-05,1.68965e-06,6
-2.92483e-05,9.61516e-06,-9.45752e-06,-9.07986e-06,1.88819e-05,-1.20474e-05,1.99599e-05,1.67565e-06,6
-2.90256e-05,1.10222e-05,-7.87177e-06,-1.039e-05,2.35253e-05,-3.18569e-06,1.53443e-05,-4.02567e-07,6
-3.0023e-05,1.29256e-05,-6.20134e-06,-8.37888e-06,2.22506e-05,1.8094e-05,1.77012e-05,-2.667e-06,6
-3.00754e-05,1.46785e-05,-5.03229e-06,-4.98859e-06,2.07228e-05,3.65355e-05,2.04494e-05,-4.71318e-06,6
-2.97554e-05,1.48232e-05,-3.85765e-06,-3.95325e-06,1.88598e-05,2.70942e-05,2.04573e-05,-6.22872e-06,6
-2.983e-05,1.34849e-05,-4.40456e-06,-3.60169e-06,1.60735e-05,-4.38945e-06,9.89111e-06,-6.40051e-06,6
-2.93029e-05,1.38015e-05,-4.91587e-06,-1.75611e-06,1.61087e-05,-3.85453e-05,-9.2109e-06,-4.61423e-06,6
-2.76238e-05,1.56691e-05,-4.16119e-06,-1.05295e-07,1.93873e-05,-5.23851e-05,-1.53236e-05,-9.52696e-07,6
-2.51978e-05,1.74322e-05,-1.97488e-06,-4.14903e-07,2.42859e-05,-3.68982e-05,-4.84236e-06,1.82209e-06,6
-2.35393e-05,1.84254e-05,-1.68496e-06,-7.72842e-07,2.59285e-05,-1.78796e-05,1.38249e-05,3.16707e-06,6
-2.44969e-05,1.77552e-05,-3.48144e-06,-1.34877e-06,2.05012e-05,-2.97263e-05,3.26392e-05,3.36347e-06,6
-2.72897e-05,1.56914e-05,-4.45153e-06,-2.958e-06,1.05771e-05,-6.19166e-05,4.57154e-05,2.50927e-06,6
-2.89626e-05,1.48977e-05,-4.4777e-06,-5.75986e-06,2.29486e-06,-9.14773e-05,4.79851e-05,1.40152e-06,6
-2.94034e-05,1.5899e-05,-4.31546e-06,-6.80864e-06,3.43786e-07,-0.000119012,3.75632e-05,1.62733e-06,6
-3.01039e-05,1.61142e-05,-5.25339e-06,-5.54298e-06,2.67114e-06,-0.000131581,2.35503e-05,2.5548e-06,6
-3.13625e-05,1.47403e-05,-6.2261e-06,-3.25061e-06,5.62494e-06,-0.00010065,1.38101e-05,1.64184e-06,6
-3.12987e-05,1.26127e-05,-6.23411e-06,-1.81723e-06,7.77941e-06,-8.74102e-06,1.50207e-05,2.15478e-07,6
-3.14943e-05,1.10644e-05,-5.41174e-06,-2.79529e-06,8.58116e-06,8.42291e-05,1.93135e-05,-1.13526e-06,6
-3.38411e-05,9.49277e-06,-5.22332e-06,-4.33969e-06,6.43235e-06,8.86771e-05,1.51342e-05,-3.32304e-06,6
-3.7244e-05,8.13291e-06,-6.31536e-06,-4.70245e-06,4.35717e-06,1.95995e-05,1.03664e-05,-6.25112e-06,6
-4.05646e-05,7.93354e-06,-7.95614e-06,-4.06655e-06,6.59811e-06,-3.10882e-05,1.68315e-05,-9.54485e-06,6
-4.44957e-05,8.91199e-06,-9.47663e-06,-4.13263e-06,1.09711e-05,-2.4851e-05,2.81424e-05,-1.23961e-05,6
-4.70253e-05,1.0069e-05,-1.07678e-05,-5.51322e-06,1.20106e-05,7.7813e-06,3.37067e-05,-1.43518e-05,6
-4.54295e-05,9.40609e-06,-1.18322e-05,-6.96814e-06,9.68782e-06,2.9773e-05,3.27132e-05,-1.52443e-05,6
-3.73032e-05,6.7848e-06,-1.2194e-05,-7.40956e-06,8.27234e-06,3.68955e-05,2.65945e-05,-1.51041e-05,6
-2.41632e-05,6.17602e-06,-9.99869e-06,-7.86728e-06,1.02094e-05,4.07996e-05,1.90601e-05,-1.47342e-05,6
-1.3761e-05,7.77214e-06,-5.79293e-06,-7.81706e-06,1.62812e-05,3.51731e-05,1.27138e-05,-1.22488e-05,6
-6.1034e-06,9.99214e-06,-4.28516e-06,-7.01418e-06,2.28999e-05,9.94285e-06,4.81745e-06,-2.17258e-07,6
3.83536e-06,1.2371e-05,-6.9515e-06,-6.77769e-06,2.51706e-05,-1.86388e-05,-1.67339e-06,1.77612e-05,6
1.489e-05,1.09642e-05,-9.24037e-06,-8.87452e-06,2.21503e-05,-2.49856e-05,-6.22386e-07,3.68262e-05,6
1.89008e-05,8.67772e-06,-8.96336e-06,-1.12335e-05,1.62485e-05,-1.49605e-05,2.30338e-06,5.16267e-05,6
1.47849e-05,7.90736e-06,-9.10554e-06,-1.16046e-05,1.10567e-05,-7.22968e-06,2.59506e-06,4.44698e-05,6
7.74559e-06,7.6327e-06,-9.79518e-06,-9.73047e-06,1.13264e-05,-6.35614e-06,2.21132e-06,2.35486e-05,6
-4.35344e-07,7.67405e-06,-9.21757e-06,-6.82534e-06,1.40916e-05,-7.93715e-06,3.12675e-06,8.91892e-06,6
-8.82676e-06,7.26101e-06,-6.67055e-06,-7.46816e-06,1.43986e-05,-9.84464e-06,5.42929e-06,3.87258e-06,6
-2.03792e-05,7.6652e-06,-4.66514e-06,-1.03755e-05,1.31604e-05,-1.0261e-05,7.72868e-06,2.7855e-06,6
-3.701e-05,7.62118e-06,-4.92087e-06,-1.16905e-05,1.12834e-05,-9.19686e-06,8.24548e-06,5.09894e-07,6
-6.02568e-05,4.91823e-06,-5.02495e-06,-1.16363e-05,8.59685e-06,-7.52982e-06,7.02975e-06,-2.80636e-06,6
-8.2899e-05,-7.93462e-07,-5.20288e-06,-1.16593e-05,4.54304e-06,-2.46633e-06,7.34874e-06,-4.47881e-06,6
-9.21347e-05,-6.07063e-06,-6.44818e-06,-1.24703e-05,2.35122e-06,1.10659e-05,1.29635e-05,-3.67804e-06,6
-8.33446e-05,-6.90323e-06,-7.05932e-06,-1.37352e-05,5.48561e-06,3.33805e-05,2.46519e-05,-3.29996e-06,6
-6.39272e-05,-4.04103e-06,-7.02747e-06,-1.47706e-05,1.11165e-05,5.47161e-05,3.24466e-05,-4.10025e-06,6
-4.77883e-05,-1.14211e-06,-8.07133e-06,-1.40112e-05,1.43354e-05,6.39864e-05,2.94049e-05,-4.61819e-06,6
-3.91953e-05,8.68783e-07,-9.33742e-06,-1.07427e-05,1.68521e-05,6.39837e-05,2.56158e-05,-3.11984e-06,6
-3.53026e-05,3.92289e-06,-8.60885e-06,-5.78153e-06,2.16257e-05,5.39914e-05,2.60341e-05,-6.87188e-07,6
-3.2336e-05,7.27621e-06,-5.85746e-06,-2.11081e-06,2.55276e-05,1.86045e-05,2.06275e-05,1.21035e-06,6
-3.13447e-05,8.8233e-06,-3.71802e-06,-2.38111e-06,2.54698e-05,-4.13544e-05,1.49349e-07,7.00233e-07,6
-3.29863e-05,8.10185e-06,-4.62984e-06,-5.75857e-06,2.20193e-05,-9.39203e-05,-2.6691e-05,-2.30303e-06,6
-3.63345e-05,6.60262e-06,-7.49773e-06,-9.04882e-06,1.83807e-05,-9.49134e-05,-3.84322e-05,-6.47433e-06,6
-4.3034e-05,4.64731e-06,-9.65695e-06,-9.8254e-06,1.64754e-05,-3.11471e-05,-2.55177e-05,-1.29154e-05,6
-5.18197e-05,2.62045e-06,-1.04857e-05,-8.34496e-06,1.41525e-05,4.43031e-05,-2.52214e-06,-2.30943e-05,6
-5.56143e-05,2.74118e-06,-1.06114e-05,-4.96156e-06,1.12222e-05,7.05163e-05,1.37381e-05,-3.11202e-05,6
-5.19006e-05,5.86319e-06,-9.29373e-06,-1.53295e-06,1.17056e-05,4.72378e-05,1.85364e-05,-3.33268e-05,6
-4.32059e-05,1.07592e-05,-7.73185e-06,-5.24345e-08,1.58814e-05,-9.17967e-06,1.26218e-05,-3.21812e-05,6
-3.4299e-05,1.4422e-05,-7.79916e-06,-2.15464e-07,1.95377e-05,-9.17583e-05,1.86527e-06,-3.037e-05,6
-2.80858e-05,1.63858e-05,-9.00304e-06,-1.61763e-06,1.95762e-05,-0.000167363,-9.79701e-06,-2.78616e-05,6
-1.92801e-05,2.22668e-05,-9.13746e-06,-1.75783e-06,1.4302e-05,-0.000193623,-1.87845e-05,-1.27438e-05,6
-9.2741e-06,2.94507e-05,-8.44693e-06,-1.57815e-06,5.61746e-06,-0.000179249,-2.43637e-05,1.92206e-05,6
-6.96004e-06,3.00331e-05,-8.39948e-06,-2.92833e-06,-2.37519e-07,-0.00015568,-2.97613e-05,4.05014e-05,6
-1.03015e-05,2.52174e-05,-8.60759e-06,-3.99163e-06,2.52926e-08,-0.000131809,-2.70988e-05,3.8101e-05,6
-1.23188e-05,1.89498e-05,-9.73729e-06,-6.25119e-06,4.93262e-06,-0.000104096,-8.97775e-06,3.6003e-05,6
-1.39301e-05,1.23928e-05,-1.02397e-05,-7.36556e-06,1.26353e-05,-6.52617e-05,1.08157e-05,3.48117e-05,6
-1.80598e-05,7.1804e-06,-1.02194e-05,-5.28071e-06,2.15872e-05,-2.22503e-05,1.90782e-05,2.38969e-05,6
-2.36184e-05,6.23813e-06,-8.52384e-06,-3.42796e-06,3.01131e-05,-1.92911e-06,1.78044e-05,1.10113e-05,6
-2.82308e-05,7.66736e-06,-6.63429e-06,-4.39638e-06,3.64665e-05,4.07852e-06,1.55436e-05,3.62868e-06,6
-3.06161e-05,8.99016e-06,-7.91471e-06,-5.45558e-06,4.01583e-05,2.65017e-05,1.69641e-05,1.94766e-06,6
-3.06675e-05,9.13288e-06,-1.08304e-05,-4.19547e-06,4.20938e-05,5.81506e-05,2.30381e-05,1.65201e-06,6
-3.02376e-05,8.81322e-06,-1.14112e-05,-2.44284e-06,4.17619e-05,7.22413e-05,3.21898e-05,1.19191e-06,6
-2.94154e-05,8.64915e-06,-8.28602e-06,-1.90564e-06,3.90672e-05,7.97066e-05,4.20669e-05,1.59006e-06,6
-2.75878e-05,9.48441e-06,-3.80965e-06,-8.31666e-07,3.60781e-05,0.000114312,4.80396e-05,3.08614e-06,6
-2.59004e-05,1.04506e-05,-5.48112e-08,1.2238e-06,3.2654e-05,0.000140692,4.30852e-05,3.38962e-06,6
-2.69504e-05,9.50388e-06,7.64782e-07,8.55187e-07,2.75365e-05,0.000102175,2.92818e-05,1.13826e-06,6
-3.00836e-05,7.9772e-06,-5.91523e-07,-1.72271e-06,2.17828e-05,2.27117e-05,1.8025e-05,-2.59557e-06,6
-3.2128e-05,7.24044e-06,-3.45132e-06,-4.41868e-06,1.79373e-05,-2.92869e-05,1.32136e-05,-5.23635e-06,6
-3.17475e-05,7.44773e-06,-6.61666e-06,-6.24498e-06,1.56443e-05,-4.3929e-05,2.4165e-06,-6.6995e-06,6
-3.02037e-05,7.68562e-06,-8.50142e-06,-7.98455e-06,1.27971e-05,-4.90324e-05,-1.34342e-05,-8.20672e-06,6
-2.76783e-05,8.86602e-06,-8.3706e-06,-9.50851e-06,1.0305e-05,-5.18601e-05,-1.8996e-05,-7.97061e-06,6
-2.37529e-05,1.15472e-05,-6.43389e-06,-9.30599e-06,8.65605e-06,-5.20056e-05,-1.48731e-05,-5.07446e-06,6
-1.95703e-05,1.36113e-05,-4.48242e-06,-6.08659e-06,7.00482e-06,-4.6093e-05,-8.41404e-06,-1.591e-06,6
-1.74201e-05,1.27689e-05,-4.3241e-06,-3.18611e-06,5.58665e-06,-1.67323e-05,5.51174e-06,-7.65633e-07,6
-1.94382e-05,1.07581e-05,-6.19913e-06,-3.64532e-06,3.13258e-06,2.73435e-05,2.38457e-05,-3.23443e-06,6
-2.56127e-05,1.02205e-05,-9.33236e-06,-6.32993e-06,-1.05199e-06,4.02503e-05,2.74236e-05,-7.10079e-06,6
-3.17076e-05,1.17372e-05,-1.00668e-05,-8.36093e-06,-5.00036e-06,1.13039e-05,6.93485e-06,-1.05889e-05,6
-3.45325e-05,1.3709e-05,-8.39608e-06,-7.59881e-06,-6.48942e-06,-4.26575e-05,-2.57138e-05,-1.28104e-05,6
-3.47825e-05,1.54201e-05,-8.0945e-06,-6.42475e-06,-3.79282e-06,-8.3388e-05,-3.64899e-05,-1.30171e-05,6
-3.23978e-05,1.57091e-05,-8.82552e-06,-6.37491e-06,7.25743e-07,-8.50891e-05,-1.82933e-05,-1.19643e-05,6
-2.93679e-05,1.6496e-05,-8.67121e-06,-5.16898e-06,4.46923e-06,-6.04306e-05,4.84522e-07,-1.04476e-05,6
-2.67749e-05,1.85729e-05,-8.26559e-06,-3.69084e-06,7.25358e-06,-3.11654e-05,1.53531e-05,-9.37046e-06,6
-2.59622e-05,1.90991e-05,-8.24918e-06,-3.89613e-06,9.22955e-06,-1.73698e-05,3.27532e-05,-8.35075e-06,6
-2.67316e-05,1.76461e-05,-8.72887e-06,-4.15016e-06,1.01252e-05,-1.20243e-05,4.72411e-05,-6.9157e-06,6
-2.82499e-05,1.50913e-05,-1.03693e-05,-4.19529e-06,8.29462e-06,-6.52359e-06,4.94645e-05,-4.9205e-06,6
-2.99251e-05,1.29972e-05,-1.0934e-05,-5.15988e-06,4.75467e-06,-3.0016e-06,4.69461e-05,-1.49045e-06,6
-2.98079e-05,1.11747e-05,-9.32652e-06,-5.95492e-06,2.85457e-06,-5.52384e-06,4.56756e-05,9.83981e-07,6
-2.884e-05,1.05851e-05,-7.81974e-06,-4.78254e-06,3.21531e-06,2.05379e-05,4.78047e-05,1.93769e-06,6
-2.91649e-05,1.10563e-05,-8.72108e-06,-4.25783e-06,5.42155e-06,0.000102299,4.96133e-05,1.79335e-06,6
-3.09848e-05,1.15169e-05,-1.04344e-05,-5.55417e-06,7.83586e-06,0.000157015,4.14317e-05,-2.78483e-07,6
-3.1048e-05,1.10567e-05,-1.01614e-05,-6.10419e-06,9.48566e-06,0.000107744,2.96541e-05,-2.7255e-06,6
-2.83707e-05,1.10412e-05,-7.66713e-06,-5.04228e-06,1.14926e-05,1.96405e-05,2.5416e-05,-2.15143e-06,6
-2.61144e-05,1.26317e-05,-5.70676e-06,-3.53294e-06,1.25656e-05,-1.90107e-05,2.96287e-05,1.62369e-06,6
-2.62062e-05,1.48611e-05,-6.38512e-06,-2.08306e-06,1.13274e-05,-3.38664e-05,2.9139e-05,4.97744e-06,6
-2.73987e-05,1.62984e-05,-9.08985e-06,-2.34685e-06,8.41343e-06,-8.58777e-05,1.21344e-05,4.13977e-06,6
-2.88533e-05,1.58702e-05,-1.17519e-05,-5.18378e-06,4.09802e-06,-0.000143954,-1.80399e-05,-1.30714e-06,6
-3.1334e-05,1.38558e-05,-1.3103e-05,-7.11016e-06,-1.10687e-06,-0.000105927,-2.96594e-05,-5.621e-06,6
-3.56864e-05,1.13534e-05,-1.35552e-05,-6.93567e-06,-4.50141e-06,3.80731e-05,-1.19748e-05,-4.98782e-06,6
-4.07966e-05,8.65167e-06,-1.46709e-05,-7.26066e-06,-6.35372e-06,0.000141451,2.00784e-06,-3.87686e-06,6
-4.42654e-05,6.36335e-06,-1.55882e-05,-9.009e-06,-8.80502e-06,0.000110374,-7.69746e-06,-4.52641e-06,6
-5.04279e-05,6.5225e-06,-1.44747e-05,-9.28818e-06,-1.21549e-05,2.32533e-05,-2.53523e-05,-2.10086e-06,6
-6.53217e-05,7.34071e-06,-1.22214e-05,-8.19255e-06,-1.4177e-05,-3.86059e-05,-3.93428e-05,3.06088e-06,6
-7.64513e-05,7.10256e-06,-9.89864e-06,-7.9542e-06,-1.31895e-05,-5.7673e-05,-4.01195e-05,6.22242e-06,6
-6.9345e-05,6.85714e-06,-8.85995e-06,-8.14047e-06,-1.00371e-05,-5.53891e-05,-1.45179e-05,6.20704e-06,6
-4.8502e-05,7.31168e-06,-1.05616e-05,-8.28558e-06,-6.18567e-06,-5.64701e-05,3.35084e-05,2.90428e-06,6
-3.47222e-05,8.49752e-06,-1.0666e-05,-7.91994e-06,-2.06561e-06,-6.24923e-05,7.1313e-05,-5.59686e-06,6
-4.21378e-05,1.0256e-05,-8.40528e-06,-7.61545e-06,2.8633e-06,-8.20068e-05,7.08192e-05,-1.42436e-05,6
-6.0226e-05,1.23975e-05,-7.85477e-06,-6.80623e-06,1.14093e-05,-0.000121541,3.90345e-05,-1.45513e-05,6
-5.56781e-05,1.54169e-05,-6.16325e-06,-5.16059e-06,2.34377e-05,-0.000146177,4.79204e-06,-8.45443e-06,6
-4.96239e-06,1.83793e-05,-2.45484e-06,-4.04878e-06,3.02342e-05,-0.000130366,-1.48911e-06,-2.97985e-06,6
4.67791e-05,1.95386e-05,-7.3938e-07,-2.36795e-06,3.18089e-05,-9.73301e-05,1.84861e-05,-4.8692e-06,6
5.76809e-05,1.90024e-05,-3.31008e-06,-5.36192e-07,3.48562e-05,-6.28062e-05,4.12021e-05,-1.53296e-05,6
6.33027e-05,1.82051e-05,-6.95348e-06,-6.86462e-07,3.95047e-05,-1.87666e-05,4.81174e-05,-2.56312e-05,6
9.24977e-05,1.75958e-05,-8.00224e-06,-5.7271e-07,4.02698e-05,5.92839e-05,4.51266e-05,-2.79954e-05,6
0.000104482,1.69179e-05,-5.07235e-06,4.90641e-07,3.49184e-05,0.000129769,3.81718e-05,-2.41865e-05,6
6.59491e-05,1.60545e-05,-4.32168e-07,3.37637e-07,2.69174e-05,0.000126603,2.92548e-05,-1.24856e-05,6
-4.45527e-07,1.48921e-05,2.00982e-06,-1.46756e-06,1.97996e-05,7.34567e-05,2.32152e-05,9.73507e-06,6
-5.13214e-05,1.38555e-05,6.12973e-07,-4.14195e-06,1.55006e-05,2.90656e-05,2.05333e-05,3.43835e-05,6
-6.64613e-05,1.3525e-05,-2.3126e-06,-6.35016e-06,1.55968e-05,1.64857e-05,2.01337e-05,5.49109e-05,6
-6.15024e-05,1.43978e-05,-4.59538e-06,-7.10993e-06,1.90971e-05,2.44427e-05,2.35577e-05,6.46982e-05,6
-6.19413e-05,1.54652e-05,-6.51518e-06,-6.71286e-06,2.19226e-05,3.58952e-05,2.93438e-05,5.37254e-05,6
-7.85338e-05,1.56843e-05,-7.54696e-06,-5.74886e-06,2.41456e-05,3.60755e-05,2.67789e-05,3.06799e-05,6
-9.66306e-05,1.48479e-05,-7.35228e-06,-2.98538e-06,2.71829e-05,2.40459e-05,1.42004e-05,1.35645e-05,6
-9.79487e-05,1.42112e-05,-6.12344e-06,1.08694e-06,3.06701e-05,8.34551e-06,-4.61045e-08,3.84881e-06,6
-7.86998e-05,1.49993e-05,-5.89343e-06,2.96851e-06,3.18845e-05,-4.97271e-06,-8.04428e-06,-3.27446e-06,6
-5.40097e-05,1.5818e-05,-7.47342e-06,4.89182e-07,2.94096e-05,-6.9611e-06,-7.00335e-06,-8.33496e-06,6
-4.02082e-05,1.58203e-05,-9.54532e-06,-3.74958e-06,2.47883e-05,7.28393e-06,3.96705e-06,-1.14497e-05,6
-3.86832e-05,1.50504e-05,-1.01338e-05,-7.59748e-06,2.06725e-05,3.256e-05,1.85088e-05,-1.21577e-05,6
-3.96461e-05,1.29225e-05,-9.09818e-06,-9.16207e-06,2.07045e-05,5.47966e-05,2.37274e-05,-1.05053e-05,6
-3.78902e-05,1.29949e-05,-6.50967e-06,-6.50653e-06,2.44275e-05,5.62853e-05,-1.15134e-06,-8.27417e-06,6
-3.36586e-05,1.62975e-05,-3.44162e-06,-1.95474e-06,2.65177e-05,3.17722e-05,-5.29062e-05,-5.50496e-06,6
-2.90484e-05,1.90643e-05,-3.8046e-06,-8.77587e-07,2.47421e-05,-2.99152e-06,-8.79051e-05,-5.84133e-07,6
-2.85325e-05,1.72553e-05,-7.92946e-06,-4.8325e-06,1.83597e-05,-3.92619e-05,-7.36463e-05,4.71631e-06,6
-3.15525e-05,1.30031e-05,-1.11906e-05,-7.46894e-06,1.17023e-05,-6.5833e-05,-2.01229e-05,9.09078e-06,6
-3.11329e-05,1.33746e-05,-1.11871e-05,-6.50422e-06,1.04819e-05,-6.2409e-05,4.79846e-05,1.53507e-05,6
-2.89718e-05,1.489e-05,-9.60164e-06,-5.88627e-06,1.06856e-05,-4.7014e-05,8.92193e-05,1.69802e-05,6
-2.9416e-05,1.42954e-05,-8.50631e-06,-6.58396e-06,8.92834e-06,-4.10482e-05,7.76625e-05,1.03886e-05,6
-3.12535e-05,1.30132e-05,-7.01861e-06,-6.93533e-06,7.02472e-06,-4.6306e-05,4.40856e-05,3.62475e-06,6
-3.27952e-05,1.18243e-05,-5.25229e-06,-6.43666e-06,6.935e-06,-5.88209e-05,1.38924e-05,3.18115e-07,6
-3.39905e-05,1.07205e-05,-4.97784e-06,-6.3901e-06,7.36743e-06,-6.9438e-05,-1.31792e-07,-2.662e-07,6
-3.44013e-05,1.00054e-05,-6.69024e-06,-6.48414e-06,7.89957e-06,-8.42431e-05,4.87822e-06,8.77493e-07,6
-3.30996e-05,1.11429e-05,-8.83063e-06,-6.08915e-06,9.5718e-06,-0.000103678,1.79117e-05,2.39078e-06,6
-3.22137e-05,1.27628e-05,-9.70565e-06,-5.56373e-06,1.05846e-05,-0.000104974,2.44995e-05,3.53159e-06,6
-3.2279e-05,1.22754e-05,-1.05354e-05,-4.95601e-06,1.01093e-05,-5.39435e-05,2.12997e-05,3.25592e-06,6
-3.3316e-05,9.72282e-06,-1.10835e-05,-4.2189e-06,9.29305e-06,4.12654e-05,1.71106e-05,1.23216e-06,6
-3.40666e-05,7.28082e-06,-1.04725e-05,-3.19847e-06,8.96038e-06,0.000109583,1.60264e-05,-1.11066e-06,6
-3.52621e-05,6.20522e-06,-9.80475e-06,-2.94518e-06,9.0013e-06,9.90047e-05,1.85432e-05,-2.31135e-06,6
-3.61794e-05,6.44067e-06,-1.01125e-05,-3.48673e-06,8.68022e-06,4.21799e-05,1.95315e-05,-2.71656e-06,6
-3.67275e-05,7.14348e-06,-1.05015e-05,-4.1686e-06,7.54415e-06,-5.27184e-06,1.40143e-05,-3.38221e-06,6
-3.68807e-05,8.04512e-06,-1.01165e-05,-5.0767e-06,5.67789e-06,-2.29449e-05,6.04482e-06,-3.64112e-06,6
-3.65142e-05,8.61155e-06,-8.81004e-06,-5.76946e-06,4.64722e-06,1.52901e-06,7.96186e-06,-2.21923e-06,6
-3.49365e-05,9.38787e-06,-7.0913e-06,-5.5902e-06,4.41346e-06,6.51487e-05,2.12034e-05,1.99926e-06,6
-3.37207e-05,1.12289e-05,-6.18227e-06,-5.49559e-06,3.27156e-06,0.000121356,4.09781e-05,6.14209e-06,6
-3.39632e-05,1.23227e-05,-7.02757e-06,-5.44889e-06,3.0854e-07,0.000132583,5.7619e-05,5.21912e-06,6
-3.6143e-05,1.13775e-05,-9.42546e-06,-4.71292e-06,-2.03171e-06,0.000101504,5.94058e-05,-6.27222e-07,6
-3.91131e-05,1.04556e-05,-1.16507e-05,-4.19061e-06,-1.38594e-06,1.02483e-05,5.23604e-05,-5.82122e-06,6
-3.92134e-05,1.03982e-05,-1.19372e-05,-4.01404e-06,-1.53742e-06,-0.000153356,4.43681e-05,-6.76793e-06,6
-3.65024e-05,1.27872e-05,-1.11542e-05,-3.59412e-06,-2.83588e-06,-0.000315816,3.17702e-05,-1.6185e-06,6
-2.94623e-05,1.73336e-05,-8.14852e-06,-2.37481e-06,8.21325e-07,-0.000350209,2.0216e-05,1.25277e-05,6
-2.24911e-05,1.77649e-05,-2.33736e-06,-1.76506e-06,4.07508e-06,-0.000232589,-4.70854e-06,2.25862e-05,6
-2.28139e-05,1.37683e-05,-5.15917e-08,-3.43894e-06,-1.06052e-06,-7.87568e-05,-5.73068e-05,1.48555e-05,6
-2.79114e-05,1.15093e-05,-3.15008e-06,-6.72751e-06,-5.37281e-06,6.03199e-05,-9.06928e-05,-1.769e-07,6
-3.22682e-05,1.21757e-05,-5.94349e-06,-1.01371e-05,-8.30071e-07,0.00018242,-6.95405e-05,-1.01378e-05,6
-3.24886e-05,1.40515e-05,-5.493e-06,-1.08218e-05,1.00112e-05,0.000251202,-2.95486e-05,-1.13074e-05,6
-2.97619e-05,1.48992e-05,-4.48991e-06,-8.52286e-06,2.20776e-05,0.00024034,-8.96647e-06,-6.47362e-06,6
-2.75855e-05,1.46868e-05,-5.9256e-06,-6.4263e-06,3.17131e-05,0.000132669,-3.26481e-06,2.21222e-06,6
-2.72802e-05,1.44356e-05,-7.48747e-06,-5.66679e-06,3.49531e-05,-1.47343e-05,1.07917e-05,1.1835e-05,6
-2.84069e-05,1.2949e-05,-8.11959e-06,-4.16964e-06,3.1934e-05,-0.000127178,3.27288e-05,1.92377e-05,6
-2.8437e-05,1.04059e-05,-9.84012e-06,-2.92862e-06,2.74207e-05,-0.000159703,4.88056e-05,2.50406e-05,6
-2.65452e-05,8.9436e-06,-1.156e-05,-3.73993e-06,2.37177e-05,-0.000118411,6.21595e-05,2.85324e-05,6
-2.44693e-05,9.23186e-06,-1.13558e-05,-4.40476e-06,2.13647e-05,-4.1775e-05,7.09315e-05,2.78729e-05,6
-2.36202e-05,8.90183e-06,-9.38087e-06,-4.98159e-06,1.93407e-05,2.4896e-05,6.61777e-05,2.27275e-05,6
-2.40681e-05,8.1e-06,-7.39367e-06,-6.56425e-06,1.71471e-05,3.9661e-05,4.76639e-05,1.14488e-05,6
