ch1,ch2,ch3,ch4,ch5,ch6,ch7,ch8,class
-3.18972e-05,1.049e-05,-1.18551e-05,5.26069e-05,2.59406e-05,-6.70787e-06,1.80964e-05,-3.56407e-05,7
-3.23803e-05,1.03591e-05,-1.06687e-05,4.45901e-05,1.37155e-05,-5.09143e-06,1.64796e-05,-7.6234e-05,7
-3.15788e-05,1.20499e-05,-9.29448e-06,2.14565e-05,5.7792e-06,-5.05011e-06,1.54192e-05,-9.88547e-05,7
-2.96475e-05,1.33101e-05,-9.1223e-06,-9.22753e-06,1.0442e-05,-6.04023e-06,1.25801e-05,-7.73463e-05,7
-2.72374e-05,1.35687e-05,-1.07035e-05,-4.456e-05,2.1562e-05,-6.62021e-06,7.99411e-06,-2.56368e-05,7
-2.6224e-05,1.34943e-05,-1.21051e-05,-8.32183e-05,2.7672e-05,-7.95339e-06,4.40773e-06,1.88375e-05,7
-2.80569e-05,1.25756e-05,-1.18069e-05,-0.000111793,2.43603e-05,-1.00702e-05,4.39968e-06,4.22398e-05,7
-3.08439e-05,1.12716e-05,-9.28284e-06,-0.000110444,1.69321e-05,-1.15201e-05,6.535e-06,4.95539e-05,7
-3.18157e-05,1.19668e-05,-5.61306e-06,-8.06659e-05,1.26332e-05,-1.23754e-05,7.30841e-06,4.29629e-05,7
-3.05589e-05,1.43923e-05,-2.96149e-06,-4.13931e-05,1.26608e-05,-1.17753e-05,5.77697e-06,1.82388e-05,7
-2.9708e-05,1.50415e-05,-3.28823e-06,-1.26162e-05,1.40535e-05,-9.18896e-06,6.53318e-06,-1.87493e-05,7
-3.12547e-05,1.38279e-05,-4.45236e-06,5.30792e-06,1.49854e-05,-7.57583e-06,1.00613e-05,-5.43087e-05,7
-3.28004e-05,1.22955e-05,-5.25041e-06,2.09343e-05,1.78428e-05,-9.19726e-06,1.31673e-05,-7.62695e-05,7
-3.15735e-05,1.06306e-05,-5.77647e-06,3.15645e-05,2.30941e-05,-1.14435e-05,1.44014e-05,-7.48007e-05,7
-3.00076e-05,1.00602e-05,-4.96066e-06,3.94013e-05,2.24907e-05,-1.17558e-05,1.2898e-05,-5.77667e-05,7
-2.93994e-05,1.13827e-05,-4.2464e-06,4.11589e-05,9.77276e-06,-1.00167e-05,1.19369e-05,-3.43105e-05,7
-2.83483e-05,1.37276e-05,-3.90206e-06,3.61554e-05,-6.10307e-06,-9.01478e-06,1.26694e-05,-1.19238e-06,7
-2.7339e-05,1.54294e-05,-3.6747e-06,2.53862e-05,-1.32052e-05,-9.43301e-06,1.31422e-05,3.49325e-05,7
-2.73775e-05,1.55134e-05,-4.05282e-06,1.36357e-05,-9.19955e-06,-9.34857e-06,1.27715e-05,6.36584e-05,7
-2.85054e-05,1.44538e-05,-5.35482e-06,5.28434e-06,-2.63183e-06,-1.01059e-05,1.36449e-05,8.1891e-05,7
-2.94564e-05,1.31314e-05,-6.77582e-06,1.55993e-06,1.80987e-06,-1.26445e-05,1.29305e-05,8.54751e-05,7
-2.92566e-05,1.17694e-05,-7.71642e-06,1.45528e-06,4.85745e-06,-1.46789e-05,9.04192e-06,7.61211e-05,7
-2.82729e-05,1.07689e-05,-7.53147e-06,1.66245e-06,6.97012e-06,-1.37267e-05,5.55086e-06,6.464e-05,7
-2.75795e-05,9.74372e-06,-7.05727e-06,2.56684e-06,7.72436e-06,-1.08054e-05,3.5349e-06,5.44414e-05,7
-2.78397e-05,9.12523e-06,-7.77644e-06,1.87013e-06,7.23915e-06,-8.66196e-06,3.21719e-06,3.20865e-05,7
-2.91026e-05,8.78844e-06,-9.5992e-06,-5.12207e-07,6.81229e-06,-9.46855e-06,3.6086e-06,-1.39125e-05,7
-3.02184e-05,8.26633e-06,-1.08863e-05,-3.38929e-06,6.71774e-06,-1.29839e-05,3.35907e-06,-7.25068e-05,7
-3.05619e-05,7.38351e-06,-1.1018e-05,-3.95359e-06,8.51797e-06,-1.59241e-05,2.96634e-06,-0.000121845,7
-2.99413e-05,7.13042e-06,-1.16556e-05,-5.41668e-06,1.0776e-05,-1.48343e-05,5.32099e-06,-0.000142575,7
-2.85893e-05,8.98446e-06,-1.31356e-05,-9.66166e-06,1.19042e-05,-1.11326e-05,8.85638e-06,-0.000125843,7
-2.7511e-05,1.21132e-05,-1.34125e-05,-1.43824e-05,1.20172e-05,-8.61524e-06,1.12037e-05,-8.02225e-05,7
-2.85535e-05,1.37389e-05,-1.05154e-05,-1.2463e-05,1.28144e-05,-8.29769e-06,1.30634e-05,-3.36244e-05,7
-3.11373e-05,1.13129e-05,-6.3784e-06,-3.41786e-06,1.57246e-05,-1.01748e-05,1.52244e-05,-2.23962e-06,7
-3.29826e-05,8.39833e-06,-4.81194e-06,3.53196e-06,2.05239e-05,-1.24991e-05,1.83333e-05,1.51418e-05,7
-3.37528e-05,9.29455e-06,-5.21154e-06,3.01703e-06,2.53434e-05,-1.3531e-05,2.25369e-05,2.12364e-05,7
-3.37286e-05,1.14264e-05,-5.05002e-06,-1.20472e-07,2.72928e-05,-1.27561e-05,2.63408e-05,2.88131e-05,7
-3.37419e-05,1.25228e-05,-5.70455e-06,-4.99277e-07,2.3836e-05,-1.05394e-05,2.75091e-05,4.4478e-05,7
-3.41322e-05,1.2383e-05,-6.2764e-06,4.38922e-06,1.77491e-05,-1.06566e-05,2.39581e-05,5.06861e-05,7
-3.49397e-05,1.19048e-05,-4.37382e-06,1.68878e-05,1.38828e-05,-1.45432e-05,1.5331e-05,4.35661e-05,7
-3.39211e-05,1.26821e-05,-1.92008e-06,3.07684e-05,1.27082e-05,-1.67776e-05,6.90872e-06,3.59739e-05,7
-3.18876e-05,1.32401e-05,-6.2142e-07,3.84508e-05,1.20062e-05,-1.57409e-05,5.75492e-06,3.70261e-05,7
-3.07778e-05,1.38976e-05,-1.3945e-06,3.73413e-05,9.88135e-06,-1.50387e-05,1.16096e-05,4.0417e-05,7
-2.98544e-05,1.50141e-05,-5.49463e-06,2.95503e-05,8.37073e-06,-1.53967e-05,1.85192e-05,2.34959e-05,7
-2.93307e-05,1.59755e-05,-9.69096e-06,2.18792e-05,1.02084e-05,-1.55145e-05,1.90081e-05,-2.1066e-05,7
-2.85955e-05,1.61388e-05,-1.06534e-05,2.5992e-05,1.68593e-05,-1.64044e-05,1.2303e-05,-8.30898e-05,7
-2.7644e-05,1.4963e-05,-8.35551e-06,4.66398e-05,2.48022e-05,-1.82836e-05,5.32894e-06,-0.00013334,7
-2.60285e-05,1.47895e-05,-4.63053e-06,6.70413e-05,2.82259e-05,-1.84787e-05,2.78978e-06,-0.00014685,7
-2.44333e-05,1.61746e-05,-1.54422e-06,6.74889e-05,2.8383e-05,-1.51335e-05,2.99079e-06,-0.00012186,7
-2.36662e-05,1.7753e-05,2.376e-07,4.32527e-05,2.77248e-05,-1.12724e-05,1.53181e-06,-7.66228e-05,7
-2.4297e-05,1.78008e-05,-2.69673e-07,7.87884e-07,2.65714e-05,-9.68956e-06,-2.67855e-06,-3.73058e-05,7
-2.6225e-05,1.66012e-05,-3.24435e-06,-4.8726e-05,2.46964e-05,-9.27814e-06,-6.30508e-06,-1.66367e-05,7
-2.85243e-05,1.53848e-05,-7.42464e-06,-9.74587e-05,2.26145e-05,-8.27218e-06,-4.9312e-06,-8.99897e-06,7
-2.93633e-05,1.45038e-05,-9.8744e-06,-0.000137497,2.08318e-05,-6.12974e-06,-6.56184e-07,-3.37598e-06,7
-2.69794e-05,1.43786e-05,-8.2526e-06,-0.000155708,1.8542e-05,-3.56041e-06,3.11983e-06,4.39478e-06,7
-2.27819e-05,1.45705e-05,-3.60025e-06,-0.000138604,1.53914e-05,-2.4131e-06,4.81277e-06,1.30155e-05,7
-1.99554e-05,1.4389e-05,-5.27321e-07,-8.42424e-05,1.28366e-05,-5.46741e-06,4.74753e-06,1.9204e-05,7
-2.01854e-05,1.31971e-05,-1.98479e-06,-1.52109e-05,1.18924e-05,-1.07944e-05,4.15325e-06,2.28741e-05,7
-2.24364e-05,1.14292e-05,-6.58785e-06,2.93584e-05,1.15177e-05,-1.33273e-05,3.62401e-06,2.40724e-05,7
-2.43437e-05,1.09114e-05,-1.19146e-05,3.76781e-05,1.22016e-05,-1.0029e-05,2.76759e-06,2.29835e-05,7
-2.43612e-05,1.29959e-05,-1.60427e-05,2.58873e-05,1.31641e-05,-2.59973e-06,3.06317e-06,2.11872e-05,7
-2.34005e-05,1.45619e-05,-1.64959e-05,4.61566e-06,1.32609e-05,2.55983e-06,3.816e-06,2.27389e-05,7
-2.23067e-05,1.38956e-05,-1.32683e-05,-3.35128e-05,1.26584e-05,1.11932e-06,2.37274e-06,2.74527e-05,7
-2.17372e-05,1.21714e-05,-8.18747e-06,-8.05938e-05,1.47588e-05,-5.04033e-06,-1.5379e-06,3.0871e-05,7
-2.29562e-05,1.13042e-05,-1.84964e-06,-0.000102361,2.12931e-05,-1.20095e-05,-5.43107e-06,3.35241e-05,7
-2.46773e-05,1.24189e-05,3.31849e-06,-8.43538e-05,2.62711e-05,-1.49054e-05,-4.71281e-06,3.85519e-05,7
-2.47606e-05,1.31927e-05,5.50605e-06,-4.75639e-05,2.44183e-05,-1.31051e-05,8.13985e-07,4.54047e-05,7
-2.45172e-05,1.38695e-05,5.12657e-06,-1.73549e-05,1.92572e-05,-1.08917e-05,1.1542e-05,5.16379e-05,7
-2.30995e-05,1.48925e-05,3.9373e-06,2.49917e-06,1.51538e-05,-9.95219e-06,2.13079e-05,5.7146e-05,7
-2.20927e-05,1.5464e-05,2.44148e-06,1.75731e-05,1.21095e-05,-7.7969e-06,2.51353e-05,6.40145e-05,7
-2.27829e-05,1.52108e-05,2.20523e-07,3.41008e-05,9.51552e-06,-5.06976e-06,2.45493e-05,7.24679e-05,7
-2.39077e-05,1.37541e-05,-1.58513e-06,4.76004e-05,8.94611e-06,-4.35198e-06,2.00997e-05,7.46866e-05,7
-2.47788e-05,1.12057e-05,-3.47892e-06,4.7897e-05,1.14511e-05,-6.00593e-06,1.14189e-05,6.29374e-05,7
-2.49885e-05,8.97208e-06,-5.71432e-06,3.60325e-05,1.5756e-05,-7.90231e-06,6.35849e-07,4.03559e-05,7
-2.52937e-05,8.33439e-06,-8.28987e-06,2.20045e-05,2.10005e-05,-7.89656e-06,-2.03374e-06,1.52861e-05,7
-2.58204e-05,8.36379e-06,-1.18164e-05,1.2313e-05,2.51746e-05,-8.3279e-06,7.33492e-06,-4.8161e-06,7
-2.65937e-05,8.73006e-06,-1.46987e-05,7.59949e-06,2.69198e-05,-9.18604e-06,2.22649e-05,-1.73824e-05,7
-2.64272e-05,9.87913e-06,-1.37654e-05,9.06857e-06,2.65482e-05,-9.57573e-06,3.44027e-05,-2.29574e-05,7
-2.46745e-05,1.22716e-05,-9.45778e-06,1.38232e-05,2.42594e-05,-8.64337e-06,3.90416e-05,-1.90154e-05,7
-2.25324e-05,1.41378e-05,-6.12889e-06,1.45846e-05,2.05968e-05,-6.05934e-06,3.45167e-05,-2.54651e-06,7
-2.19642e-05,1.46587e-05,-5.97554e-06,1.08592e-05,1.7833e-05,-4.10822e-06,2.48488e-05,1.99805e-05,7
-2.25724e-05,1.5122e-05,-8.20127e-06,9.39763e-06,1.79492e-05,-5.33169e-06,1.55006e-05,3.32843e-05,7
-2.32972e-05,1.62804e-05,-9.7337e-06,1.01077e-05,2.02619e-05,-8.66289e-06,6.85577e-06,3.16553e-05,7
-2.40662e-05,1.76124e-05,-8.21892e-06,7.87776e-06,2.27362e-05,-1.11058e-05,-1.0249e-06,2.24886e-05,7
-2.48008e-05,1.79025e-05,-4.96382e-06,1.62686e-06,2.42332e-05,-1.1292e-05,-7.19485e-06,1.11361e-05,7
-2.53257e-05,1.63022e-05,-4.20147e-06,-5.0989e-06,2.38885e-05,-1.08472e-05,-1.08982e-05,-5.95053e-06,7
-2.64979e-05,1.37395e-05,-8.00588e-06,-8.12309e-06,2.40888e-05,-1.09358e-05,-8.69582e-06,-2.77327e-05,7
-2.78878e-05,1.25706e-05,-1.30243e-05,-5.85806e-06,2.52403e-05,-1.06421e-05,3.71454e-06,-4.59091e-05,7
-2.89987e-05,1.23095e-05,-1.44302e-05,-1.758e-06,2.27115e-05,-1.007e-05,2.26902e-05,-5.50059e-05,7
-2.93644e-05,1.24379e-05,-1.27476e-05,-7.48184e-07,1.78477e-05,-9.03878e-06,3.83523e-05,-4.90848e-05,7
-2.90788e-05,1.15168e-05,-1.06754e-05,-3.73403e-06,1.17905e-05,-9.52279e-06,4.28555e-05,-2.36488e-05,7
-2.84628e-05,1.18511e-05,-9.50965e-06,-5.25481e-06,1.86872e-06,-1.10008e-05,3.75367e-05,1.04564e-05,7
-2.789e-05,1.38846e-05,-8.42392e-06,-1.30791e-06,-1.14839e-05,-1.15353e-05,2.88574e-05,3.01244e-05,7
-2.74834e-05,1.46785e-05,-5.92637e-06,4.66021e-06,-2.48923e-05,-1.13475e-05,2.25238e-05,3.04658e-05,7
-2.72938e-05,1.44541e-05,-3.70183e-06,7.43186e-06,-3.48114e-05,-1.10677e-05,2.11533e-05,1.84371e-05,7
-2.72973e-05,1.35722e-05,-2.34547e-06,5.23968e-06,-3.95774e-05,-1.00557e-05,2.42727e-05,-1.91859e-06,7
-2.72422e-05,1.32254e-05,-3.63516e-06,-1.06639e-07,-3.72865e-05,-8.61976e-06,2.80732e-05,-1.88847e-05,7
-2.891e-05,1.13363e-05,-6.57847e-06,-4.82131e-06,-2.56941e-05,-1.02266e-05,2.67952e-05,-2.05852e-05,7
-3.07468e-05,9.65022e-06,-9.65393e-06,-6.4887e-06,-6.06462e-06,-1.35671e-05,1.95341e-05,-6.32012e-06,7
-3.09259e-05,9.25557e-06,-1.23156e-05,-7.02836e-06,1.04292e-05,-1.51217e-05,1.21343e-05,9.59581e-06,7
-3.0513e-05,9.37934e-06,-1.21628e-05,-4.65721e-06,1.7739e-05,-1.43418e-05,8.56574e-06,1.68754e-05,7
-3.04709e-05,1.03961e-05,-9.04665e-06,1.51012e-06,1.83224e-05,-1.28589e-05,8.49153e-06,1.28938e-05,7
-3.09545e-05,1.1141e-05,-5.58412e-06,6.65311e-06,1.65398e-05,-1.20971e-05,9.50533e-06,1.2442e-06,7
-3.20047e-05,1.09715e-05,-4.5495e-06,3.56573e-06,1.66213e-05,-1.20582e-05,9.49926e-06,-1.32096e-05,7
-3.28661e-05,9.97316e-06,-4.176e-06,-1.02061e-05,1.71587e-05,-1.19085e-05,8.52216e-06,-2.69202e-05,7
-3.25411e-05,9.28449e-06,-1.98286e-06,-2.94428e-05,1.57268e-05,-1.05607e-05,7.38238e-06,-3.61261e-05,7
-3.16348e-05,9.84882e-06,1.34569e-06,-4.62053e-05,1.18335e-05,-8.7362e-06,7.09612e-06,-3.96304e-05,7
-3.19844e-05,1.18922e-05,1.98534e-06,-5.27339e-05,9.02526e-06,-8.01317e-06,7.94945e-06,-3.73065e-05,7
-3.3764e-05,1.34848e-05,-9.37678e-07,-4.63622e-05,1.00555e-05,-9.21523e-06,9.58738e-06,-3.08874e-05,7
-3.57331e-05,1.31429e-05,-4.01606e-06,-3.31916e-05,1.40102e-05,-1.12194e-05,1.08947e-05,-2.25824e-05,7
-3.7367e-05,1.1492e-05,-5.36768e-06,-2.28743e-05,1.74534e-05,-1.23498e-05,1.20978e-05,-1.72421e-05,7
-3.80369e-05,1.1157e-05,-6.52933e-06,-1.87926e-05,1.93657e-05,-1.19394e-05,1.26745e-05,-1.4888e-05,7
-3.76749e-05,1.22741e-05,-8.98803e-06,-1.88593e-05,2.0543e-05,-1.05853e-05,1.18962e-05,-1.36007e-05,7
-3.71939e-05,1.37941e-05,-1.19598e-05,-1.88517e-05,2.14412e-05,-9.7201e-06,1.12939e-05,-1.13617e-05,7
-3.71892e-05,1.45796e-05,-1.26384e-05,-1.74578e-05,2.23073e-05,-8.88148e-06,1.28749e-05,-8.65305e-06,7
-3.6241e-05,1.4619e-05,-1.09236e-05,-1.525e-05,2.30079e-05,-7.62055e-06,1.65405e-05,-5.14352e-06,7
-3.51688e-05,1.45325e-05,-9.43059e-06,-1.11055e-05,2.32205e-05,-7.62608e-06,2.15276e-05,6.84e-07,7
-3.69394e-05,1.37618e-05,-1.02608e-05,-6.2829e-06,2.22222e-05,-9.43469e-06,2.6822e-05,8.2613e-06,7
-3.84847e-05,1.41506e-05,-1.26035e-05,-2.537e-06,2.07139e-05,-1.07929e-05,3.18905e-05,2.81667e-05,7
-3.73448e-05,1.63663e-05,-1.09079e-05,3.4004e-07,1.74228e-05,-7.68185e-06,3.01723e-05,7.90486e-05,7
-3.54266e-05,1.77614e-05,-6.37861e-06,3.2408e-06,1.00544e-05,-2.57975e-06,1.87645e-05,0.000133186,7
-3.44609e-05,1.55822e-05,-4.88548e-06,6.79465e-06,4.41354e-06,-8.95918e-07,5.41817e-06,0.000151456,7
-3.45585e-05,1.14038e-05,-4.482e-06,9.85772e-06,8.1935e-06,-3.69582e-06,-5.26525e-06,0.000138339,7
-3.45669e-05,9.92378e-06,-1.16932e-06,1.15957e-05,2.03773e-05,-7.11224e-06,-1.27162e-05,0.000107296,7
-3.37346e-05,1.17724e-05,3.41843e-06,9.38376e-06,3.11774e-05,-7.16167e-06,-1.63681e-05,7.38027e-05,7
-3.24198e-05,1.37391e-05,4.5982e-06,4.33234e-06,3.41309e-05,-6.2296e-06,-1.39579e-05,4.52505e-05,7
-3.24522e-05,1.26952e-05,1.83479e-06,3.0113e-06,3.16842e-05,-6.23653e-06,-8.57139e-06,1.19157e-05,7
-3.30333e-05,1.14064e-05,-1.28152e-08,7.73991e-06,2.56197e-05,-6.50142e-06,-3.54166e-06,-3.98817e-05,7
-3.34859e-05,1.20555e-05,-1.27917e-07,1.35936e-05,1.56979e-05,-5.99749e-06,2.71372e-06,-0.000102788,7
-3.37574e-05,1.30898e-05,-8.46116e-07,1.37945e-05,1.71086e-06,-5.63091e-06,1.39524e-05,-0.000154731,7
-3.26578e-05,1.2901e-05,-2.416e-06,1.2048e-05,-8.9866e-06,-5.08424e-06,2.79127e-05,-0.000174529,7
-3.00561e-05,1.23163e-05,-3.95429e-06,2.0275e-05,-6.36976e-06,-4.38269e-06,3.67944e-05,-0.000154888,7
-2.74985e-05,1.27571e-05,-4.38758e-06,4.19642e-05,5.89425e-06,-4.47478e-06,3.7825e-05,-0.000109482,7
-2.68646e-05,1.32904e-05,-4.57755e-06,6.10817e-05,1.58781e-05,-5.13712e-06,3.39815e-05,-6.19807e-05,7
-2.84013e-05,1.31174e-05,-5.98879e-06,5.72161e-05,1.77443e-05,-5.70857e-06,3.03615e-05,-2.46699e-05,7
-3.01929e-05,1.21936e-05,-9.00245e-06,2.65557e-05,1.25155e-05,-5.49934e-06,2.83979e-05,1.16359e-05,7
-3.09466e-05,1.14804e-05,-1.28638e-05,-1.79096e-05,3.22156e-06,-4.72004e-06,2.57917e-05,4.96576e-05,7
-3.15328e-05,1.1446e-05,-1.49358e-05,-5.74302e-05,-5.16896e-06,-3.70929e-06,2.28795e-05,7.81809e-05,7
-3.14759e-05,1.2424e-05,-1.34691e-05,-8.46839e-05,-7.73301e-06,-4.16827e-06,2.23198e-05,8.91887e-05,7
-3.02738e-05,1.23552e-05,-1.05286e-05,-0.000106395,-5.07413e-06,-7.17895e-06,1.98121e-05,8.32184e-05,7
-2.93003e-05,1.12608e-05,-9.79108e-06,-0.00012023,8.02376e-07,-1.11373e-05,1.39471e-05,6.21025e-05,7
-2.95864e-05,1.0297e-05,-1.07782e-05,-0.000112359,9.68348e-06,-1.4006e-05,6.97844e-06,3.19223e-05,7
-3.05326e-05,9.53252e-06,-1.01934e-05,-8.06817e-05,1.94318e-05,-1.60294e-05,1.12562e-06,4.77455e-06,7
-3.1224e-05,8.009e-06,-8.32969e-06,-4.02794e-05,2.55389e-05,-1.67324e-05,7.19177e-07,-1.78412e-05,7
-3.18118e-05,7.18994e-06,-6.95046e-06,-8.0497e-06,2.59515e-05,-1.57844e-05,4.65835e-06,-4.11524e-05,7
-3.34595e-05,8.20145e-06,-6.5496e-06,1.37121e-05,2.08189e-05,-1.51972e-05,8.78224e-06,-5.03949e-05,7
-3.58026e-05,8.9347e-06,-9.17833e-06,2.88527e-05,1.32401e-05,-1.61228e-05,1.0876e-05,-3.65126e-05,7
-3.77522e-05,7.33652e-06,-1.3394e-05,5.03562e-05,6.04385e-06,-1.73877e-05,1.47061e-05,-1.22806e-05,7
-3.89622e-05,4.4695e-06,-1.48077e-05,8.18702e-05,6.50658e-07,-1.74699e-05,2.39494e-05,5.21456e-06,7
-3.81883e-05,4.40777e-06,-1.39938e-05,0.000102064,1.33217e-06,-1.47398e-05,3.29427e-05,8.3016e-06,7
-3.65079e-05,7.41781e-06,-1.29247e-05,9.71944e-05,5.86296e-06,-1.08188e-05,3.47495e-05,-6.01549e-06,7
-3.54196e-05,1.01362e-05,-1.32964e-05,6.98707e-05,6.21602e-06,-6.20218e-06,3.02622e-05,-3.79335e-05,7
-3.34091e-05,1.20831e-05,-1.36611e-05,3.55869e-05,1.76202e-06,-2.1429e-06,2.2542e-05,-7.00989e-05,7
-3.05383e-05,1.35075e-05,-1.15165e-05,4.37216e-06,-1.65102e-06,-2.55681e-06,1.38798e-05,-8.14006e-05,7
-2.82274e-05,1.39198e-05,-6.57933e-06,-2.01832e-05,1.48566e-06,-5.80254e-06,6.94145e-06,-6.82067e-05,7
-2.65523e-05,1.42072e-05,-1.82226e-06,-3.62667e-05,8.41151e-06,-9.35152e-06,2.90482e-06,-4.71091e-05,7
-2.62401e-05,1.50738e-05,4.91424e-08,-3.84372e-05,1.023e-05,-1.12605e-05,1.27104e-06,-3.2475e-05,7
-2.73168e-05,1.64925e-05,1.39694e-07,-2.38768e-05,8.01742e-06,-1.06572e-05,1.20947e-06,-2.54229e-05,7
-2.84404e-05,1.72587e-05,-4.79683e-07,-3.88517e-06,7.68673e-06,-9.15435e-06,2.25238e-06,-2.0743e-05,7
-2.90379e-05,1.69891e-05,-1.39919e-06,7.31481e-06,1.24722e-05,-9.48026e-06,3.85649e-06,-1.53484e-05,7
-2.83108e-05,1.6138e-05,-3.12905e-06,4.63755e-06,1.92306e-05,-1.15841e-05,6.076e-06,-8.0758e-06,7
-2.63161e-05,1.57611e-05,-5.24025e-06,-2.75123e-06,2.1431e-05,-1.20589e-05,8.27424e-06,-2.54657e-08,7
-2.46817e-05,1.56413e-05,-7.88589e-06,-8.38281e-06,1.83098e-05,-9.59652e-06,1.05355e-05,9.49015e-06,7
-2.47855e-05,1.48826e-05,-1.10585e-05,-1.53552e-05,1.48616e-05,-7.83599e-06,1.4577e-05,2.87604e-05,7
-2.57081e-05,1.38604e-05,-1.3136e-05,-3.073e-05,1.46406e-05,-9.91444e-06,2.12598e-05,6.67235e-05,7
-2.58531e-05,1.38281e-05,-1.19228e-05,-5.26461e-05,1.61398e-05,-1.25595e-05,2.93251e-05,0.000107788,7
-2.51296e-05,1.44585e-05,-8.34976e-06,-6.85389e-05,1.76244e-05,-1.15357e-05,3.77932e-05,0.00012459,7
-2.4292e-05,1.45687e-05,-5.23658e-06,-6.28027e-05,1.89387e-05,-8.82749e-06,4.50841e-05,0.000116867,7
-2.30506e-05,1.47421e-05,-4.10678e-06,-3.29613e-05,2.13889e-05,-8.96714e-06,4.53351e-05,0.000101582,7
-2.20284e-05,1.65113e-05,-3.58905e-06,6.29015e-06,2.39749e-05,-1.00932e-05,3.52491e-05,8.44718e-05,7
-2.24499e-05,1.75993e-05,-1.63654e-06,3.00653e-05,2.54744e-05,-9.88123e-06,2.06266e-05,5.79452e-05,7
-2.2974e-05,1.70437e-05,3.76943e-07,3.02127e-05,2.6288e-05,-9.61888e-06,9.9109e-06,2.4182e-05,7
-2.38317e-05,1.57912e-05,-7.57925e-07,1.64e-05,2.54487e-05,-9.66666e-06,5.39851e-06,-1.85604e-05,7
-2.50612e-05,1.45383e-05,-7.30087e-06,-2.7128e-06,2.14069e-05,-8.73281e-06,4.65253e-06,-6.44376e-05,7
-2.53554e-05,1.30063e-05,-1.41101e-05,-1.78947e-05,1.67816e-05,-7.03594e-06,3.99377e-06,-8.34396e-05,7
-2.43527e-05,1.14143e-05,-1.46601e-05,-2.22352e-05,1.62702e-05,-7.1023e-06,4.13679e-06,-5.66201e-05,7
-2.36368e-05,1.17231e-05,-1.07619e-05,-1.67987e-05,1.89339e-05,-7.28139e-06,8.24138e-06,4.07486e-06,7
-2.39593e-05,1.17524e-05,-7.51705e-06,-1.23149e-05,2.11022e-05,-6.71404e-06,1.32443e-05,6.35907e-05,7
-2.41926e-05,1.04441e-05,-8.13211e-06,-9.44045e-06,2.11917e-05,-5.90226e-06,1.80631e-05,9.3865e-05,7
-2.45789e-05,1.01396e-05,-1.19053e-05,-5.28729e-06,1.85732e-05,-5.26083e-06,2.31055e-05,8.70609e-05,7
-2.48618e-05,1.15488e-05,-1.42274e-05,-5.60744e-07,1.56156e-05,-5.91966e-06,2.37901e-05,5.2859e-05,7
-2.52067e-05,1.35552e-05,-1.2632e-05,2.71958e-06,1.40325e-05,-6.8549e-06,1.7458e-05,2.6356e-06,7
-2.51793e-05,1.57008e-05,-8.85456e-06,6.97293e-06,1.40887e-05,-7.49372e-06,4.94738e-06,-5.60104e-05,7
-2.44244e-05,1.62951e-05,-5.60586e-06,1.28122e-05,1.59456e-05,-7.71689e-06,-1.03458e-05,-0.000111625,7
-2.37629e-05,1.54783e-05,-4.8442e-06,1.38786e-05,1.83458e-05,-8.56202e-06,-2.05382e-05,-0.000143914,7
-2.42248e-05,1.4949e-05,-6.19411e-06,6.66452e-06,1.95765e-05,-1.10488e-05,-2.04419e-05,-0.000137211,7
-2.56628e-05,1.45332e-05,-8.04709e-06,-4.06808e-06,1.93988e-05,-1.36503e-05,-1.24805e-05,-0.000101143,7
-2.68299e-05,1.34205e-05,-8.77445e-06,-9.66551e-06,1.96155e-05,-1.30753e-05,-1.16905e-06,-6.05058e-05,7
-2.69311e-05,1.26681e-05,-8.45702e-06,-9.44758e-06,1.96577e-05,-8.62252e-06,9.35285e-06,-3.28139e-05,7
-2.66805e-05,1.35969e-05,-8.69403e-06,-8.05759e-06,1.76322e-05,-4.3823e-06,1.48094e-05,-1.71888e-05,7
-2.84177e-05,1.4592e-05,-1.04468e-05,-9.84168e-06,1.46004e-05,-4.64492e-06,1.32224e-05,-5.31341e-06,7
-3.20771e-05,1.3258e-05,-1.27445e-05,-1.22799e-05,1.48053e-05,-8.75011e-06,5.56053e-06,6.76643e-06,7
-3.43525e-05,1.06831e-05,-1.27919e-05,-1.12956e-05,1.83275e-05,-1.25094e-05,-6.06521e-06,1.27861e-05,7
-3.30189e-05,1.07339e-05,-1.05483e-05,-5.45794e-06,2.04152e-05,-1.24353e-05,-1.48649e-05,6.5268e-06,7
-3.09008e-05,1.37407e-05,-8.43658e-06,2.24097e-06,1.82568e-05,-8.77501e-06,-1.38011e-05,-8.65257e-06,7
-3.02248e-05,1.63079e-05,-7.03682e-06,6.11975e-06,1.57684e-05,-5.82635e-06,-5.46744e-06,-2.53064e-05,7
-2.93324e-05,1.63418e-05,-4.89222e-06,4.72119e-06,1.672e-05,-7.01325e-06,1.89118e-07,-3.7641e-05,7
-2.86185e-05,1.56335e-05,-2.54399e-06,1.92958e-06,1.92884e-05,-9.69786e-06,-1.19907e-06,-3.78216e-05,7
-2.8469e-05,1.58868e-05,-5.58739e-07,1.43066e-07,1.93225e-05,-9.77079e-06,-5.18311e-06,-2.41709e-05,7
-2.77413e-05,1.68148e-05,-2.93286e-07,7.00962e-07,1.54073e-05,-6.12615e-06,-3.50426e-06,-2.09082e-06,7
-2.73901e-05,1.62722e-05,-2.24847e-06,4.54449e-06,1.32385e-05,-3.09158e-06,3.62632e-06,1.70782e-05,7
-2.78577e-05,1.3447e-05,-4.30981e-06,9.37491e-06,1.39734e-05,-3.05218e-06,6.01808e-06,2.74098e-05,7
-2.88445e-05,1.04116e-05,-6.0649e-06,1.23897e-05,1.38951e-05,-5.55289e-06,1.77133e-06,3.27665e-05,7
-2.93216e-05,8.84804e-06,-7.2653e-06,1.37073e-05,1.20669e-05,-9.39317e-06,1.94513e-07,3.43733e-05,7
-2.95839e-05,9.55133e-06,-9.16773e-06,1.32139e-05,9.11617e-06,-9.89023e-06,5.80649e-06,3.55065e-05,7
-2.97532e-05,1.08279e-05,-1.16612e-05,9.39183e-06,6.39096e-06,-7.85353e-06,1.31426e-05,3.61993e-05,7
-2.86581e-05,1.11795e-05,-1.26796e-05,6.69556e-06,5.03884e-06,-5.12047e-06,2.07464e-05,3.44217e-05,7
-2.76725e-05,1.14314e-05,-1.03305e-05,6.44525e-06,7.11249e-06,-4.12836e-06,2.87674e-05,2.75607e-05,7
-2.80081e-05,1.20736e-05,-6.3635e-06,4.70421e-06,1.16278e-05,-5.71934e-06,3.49713e-05,1.54253e-05,7
-2.85549e-05,1.15514e-05,-4.96477e-06,8.45566e-07,1.63179e-05,-9.07081e-06,3.52594e-05,8.39894e-07,7
-2.82077e-05,1.03936e-05,-5.43764e-06,-1.77273e-06,2.04069e-05,-1.24601e-05,2.77507e-05,-1.02459e-05,7
-2.71621e-05,1.02245e-05,-5.12601e-06,-2.64149e-06,2.2525e-05,-1.37983e-05,1.72548e-05,-1.48532e-05,7
-2.6162e-05,1.15462e-05,-4.19152e-06,-4.45144e-06,2.27904e-05,-1.34055e-05,9.88744e-06,-1.39388e-05,7
-2.59607e-05,1.33126e-05,-4.78586e-06,-6.85061e-06,2.27574e-05,-1.1382e-05,8.12335e-06,-7.51877e-06,7
-2.69868e-05,1.40311e-05,-5.85998e-06,-6.94769e-06,2.32024e-05,-8.93453e-06,9.61313e-06,3.31498e-06,7
-2.87734e-05,1.42196e-05,-5.98804e-06,-1.20497e-06,2.21763e-05,-7.54529e-06,1.03357e-05,1.55419e-05,7
-3.05394e-05,1.40993e-05,-5.98216e-06,1.77948e-05,1.81443e-05,-7.61172e-06,7.8039e-06,2.47742e-05,7
-3.23311e-05,1.36449e-05,-7.21788e-06,5.35149e-05,1.22775e-05,-7.70351e-06,4.92595e-06,2.92167e-05,7
-3.41758e-05,1.24631e-05,-7.56535e-06,9.16864e-05,6.80661e-06,-8.30238e-06,5.00103e-06,3.14717e-05,7
-3.59451e-05,1.21209e-05,-3.76339e-06,0.000109221,3.59208e-06,-1.0671e-05,6.93361e-06,3.36109e-05,7
-3.6649e-05,1.24731e-05,5.385e-07,9.39719e-05,1.97203e-06,-1.38125e-05,7.9541e-06,3.3349e-05,7
-3.65421e-05,1.20905e-05,1.84595e-07,5.24161e-05,2.88182e-07,-1.43246e-05,9.22834e-06,3.00588e-05,7
-3.54363e-05,1.2932e-05,-2.96701e-06,-2.86145e-06,-1.50263e-06,-1.28534e-05,1.25598e-05,2.76554e-05,7
-3.30029e-05,1.63348e-05,-3.44697e-06,-6.35923e-05,-1.92468e-06,-1.16312e-05,1.82172e-05,3.13243e-05,7
-3.16311e-05,1.82442e-05,-9.87921e-07,-0.000115195,-2.67147e-06,-1.09601e-05,2.40152e-05,3.94359e-05,7
-3.23891e-05,1.61068e-05,1.07237e-06,-0.000138738,-4.4831e-06,-1.14665e-05,2.56447e-05,4.58677e-05,7
-3.31114e-05,1.3596e-05,1.1192e-06,-0.000125278,-4.1702e-06,-1.13995e-05,2.11714e-05,4.68152e-05,7
-3.30328e-05,1.31625e-05,-1.84394e-06,-9.31513e-05,-1.66955e-06,-9.94135e-06,1.54078e-05,4.48191e-05,7
-3.23307e-05,1.2329e-05,-4.95577e-06,-6.80323e-05,2.90676e-06,-9.49414e-06,1.39895e-05,4.77129e-05,7
-3.16763e-05,1.07187e-05,-3.87396e-06,-4.68877e-05,8.39691e-06,-1.13417e-05,1.54229e-05,5.51746e-05,7
-3.20245e-05,1.10631e-05,-9.29502e-07,-1.96326e-05,1.18553e-05,-1.32828e-05,1.61368e-05,5.9786e-05,7
-3.37157e-05,1.20821e-05,8.68546e-08,1.27282e-05,1.14639e-05,-1.32731e-05,1.40217e-05,6.23594e-05,7
-3.533e-05,1.17262e-05,-1.68994e-06,3.24324e-05,9.67323e-06,-1.20778e-05,1.24906e-05,6.06951e-05,7
-3.35935e-05,1.04192e-05,-3.64688e-06,2.69288e-05,1.04635e-05,-1.12156e-05,1.44181e-05,4.85609e-05,7
-3.15881e-05,9.98509e-06,-4.39668e-06,6.13636e-06,1.52007e-05,-1.08023e-05,1.77832e-05,3.02148e-05,7
-3.1256e-05,1.02613e-05,-4.36384e-06,-1.38232e-05,2.1674e-05,-9.63388e-06,1.97258e-05,8.78248e-06,7
-3.18893e-05,1.12825e-05,-4.94356e-06,-2.28986e-05,2.59277e-05,-8.6789e-06,2.03251e-05,-1.98172e-05,7
-3.26032e-05,1.28367e-05,-6.65909e-06,-2.26522e-05,2.77274e-05,-8.42939e-06,2.01475e-05,-4.97366e-05,7
-3.27667e-05,1.48941e-05,-7.5276e-06,-1.67896e-05,2.80069e-05,-8.04087e-06,1.95031e-05,-7.54171e-05,7
-3.33616e-05,1.67942e-05,-7.0081e-06,-8.189e-06,2.74801e-05,-7.84515e-06,1.75014e-05,-9.5594e-05,7
-3.43186e-05,1.70279e-05,-5.94573e-06,-5.53169e-07,2.57741e-05,-7.30537e-06,1.31542e-05,-0.000103391,7
-3.47905e-05,1.57178e-05,-5.55532e-06,2.31895e-06,2.21373e-05,-6.51308e-06,8.3695e-06,-9.61018e-05,7
-3.39812e-05,1.39613e-05,-5.47108e-06,1.26122e-06,1.58189e-05,-5.5874e-06,5.72267e-06,-7.94466e-05,7
-3.35304e-05,1.31885e-05,-5.43885e-06,3.70885e-07,9.51543e-06,-5.22913e-06,5.59102e-06,-6.04666e-05,7
-3.36032e-05,1.25539e-05,-5.78946e-06,2.15202e-06,6.47301e-06,-7.10509e-06,6.11932e-06,-4.24033e-05,7
-3.3138e-05,1.15261e-05,-6.97418e-06,4.74871e-06,6.66004e-06,-1.03523e-05,6.84411e-06,-2.69731e-05,7
-3.19865e-05,1.11644e-05,-8.64699e-06,6.31973e-06,8.75056e-06,-1.18937e-05,8.31418e-06,-1.14304e-05,7
-3.15786e-05,1.20214e-05,-9.50739e-06,6.27415e-06,1.28979e-05,-1.19346e-05,1.17812e-05,5.08789e-06,7
-3.26824e-05,1.13923e-05,-9.29659e-06,4.39817e-06,1.79941e-05,-1.22598e-05,1.70839e-05,1.81002e-05,7
-3.5063e-05,9.02523e-06,-9.28349e-06,1.78841e-06,1.98119e-05,-1.43273e-05,2.49029e-05,2.0185e-05,7
-3.69783e-05,6.32674e-06,-8.75299e-06,5.79705e-07,1.60319e-05,-1.72207e-05,3.60174e-05,1.19242e-05,7
-3.80009e-05,4.4204e-06,-6.14025e-06,1.75392e-06,6.03691e-06,-1.984e-05,4.95484e-05,1.43597e-06,7
-3.86309e-05,4.4652e-06,-2.53851e-06,2.96349e-06,-6.62695e-06,-2.24653e-05,6.05382e-05,-5.15837e-06,7
-3.91318e-05,4.99707e-06,-1.3459e-06,2.24928e-06,-1.68358e-05,-2.28184e-05,6.26746e-05,-2.56125e-06,7
-3.68913e-05,8.8823e-06,-3.74707e-06,-5.43488e-07,-1.8788e-05,-1.89789e-05,5.35302e-05,6.5589e-06,7
-3.03764e-05,1.48443e-05,-5.726e-06,-5.57249e-06,-9.02388e-06,-1.16635e-05,3.82929e-05,8.96981e-06,7
-2.57222e-05,1.75185e-05,-5.63006e-06,-1.21931e-05,6.61514e-06,-5.90158e-06,2.80074e-05,8.71417e-07,7
-2.54843e-05,1.73497e-05,-4.6866e-06,-1.81629e-05,1.51012e-05,-4.44266e-06,2.59663e-05,-1.10392e-05,7
-2.74587e-05,1.56789e-05,-3.72163e-06,-2.17188e-05,1.31025e-05,-5.40155e-06,2.4572e-05,-2.19694e-05,7
-2.88441e-05,1.42869e-05,-1.28553e-06,-2.03054e-05,9.4608e-06,-6.61526e-06,1.66762e-05,-2.99088e-05,7
-2.95342e-05,1.36881e-05,1.77204e-06,-1.6766e-05,9.52997e-06,-7.38337e-06,3.7273e-06,-3.28616e-05,7
-2.95366e-05,1.40019e-05,1.51878e-06,-1.44305e-05,1.3373e-05,-6.52417e-06,-9.67224e-06,-3.15201e-05,7
-2.89697e-05,1.41854e-05,-1.77323e-06,-1.16923e-05,1.65715e-05,-4.75487e-06,-1.66971e-05,-2.88754e-05,7
-2.85427e-05,1.36605e-05,-6.21766e-06,-9.14508e-06,1.71825e-05,-5.89126e-06,-1.3878e-05,-2.63121e-05,7
-2.85041e-05,1.18662e-05,-1.0517e-05,-7.3296e-06,1.66372e-05,-8.78415e-06,-7.01563e-06,-2.3106e-05,7
-2.8427e-05,1.00815e-05,-1.35632e-05,-4.23352e-06,1.67137e-05,-1.1406e-05,-1.20106e-06,-1.69139e-05,7
-2.70126e-05,9.89143e-06,-1.28383e-05,6.4798e-07,1.78804e-05,-1.30131e-05,1.82284e-06,-8.40483e-06,7
-2.50747e-05,1.08453e-05,-9.17321e-06,5.05499e-06,1.91828e-05,-1.33149e-05,2.58031e-06,1.16947e-07,7
-2.41201e-05,1.21698e-05,-5.97951e-06,6.65502e-06,2.09315e-05,-1.27798e-05,3.59834e-06,4.79855e-06,7
-2.45521e-05,1.21045e-05,-5.67159e-06,5.3255e-06,2.15171e-05,-1.2124e-05,6.77588e-06,5.24134e-06,7
-2.47303e-05,1.10458e-05,-7.33834e-06,2.5935e-06,1.84983e-05,-1.08841e-05,1.09839e-05,3.68245e-06,7
-2.39248e-05,1.04858e-05,-8.06232e-06,1.76473e-08,1.3051e-05,-8.48153e-06,1.3025e-05,4.64729e-06,7
-2.31045e-05,1.12754e-05,-7.66434e-06,4.72395e-09,9.84616e-06,-6.53286e-06,1.21987e-05,1.31251e-05,7
-2.36672e-05,1.12389e-05,-7.41583e-06,1.28601e-06,1.13317e-05,-6.52613e-06,1.05984e-05,3.07491e-05,7
-2.53733e-05,9.75713e-06,-8.62629e-06,2.05309e-06,1.61508e-05,-9.08056e-06,1.06215e-05,4.86963e-05,7
-2.72825e-05,8.15786e-06,-1.12323e-05,4.38614e-06,2.16254e-05,-1.24078e-05,1.27135e-05,5.5678e-05,7
-2.94458e-05,7.62105e-06,-1.45808e-05,7.8985e-06,2.42815e-05,-1.29011e-05,1.48544e-05,5.08867e-05,7
-3.14953e-05,8.862e-06,-1.65251e-05,1.03448e-05,2.11648e-05,-8.95633e-06,1.53205e-05,3.9877e-05,7
-3.09537e-05,1.11922e-05,-1.62824e-05,1.16144e-05,1.49034e-05,-3.40911e-06,1.66172e-05,2.73127e-05,7
-2.81453e-05,1.27854e-05,-1.47896e-05,2.04708e-05,9.59833e-06,-2.40546e-06,1.88545e-05,1.56092e-05,7
-2.69527e-05,1.46704e-05,-1.11731e-05,5.96166e-05,7.83412e-06,-5.6665e-06,1.98819e-05,1.00993e-05,7
-2.86567e-05,1.64762e-05,-7.19914e-06,0.000115356,8.99115e-06,-7.10581e-06,2.07026e-05,1.12269e-05,7
-3.11712e-05,1.70447e-05,-5.74283e-06,0.000144131,1.15216e-05,-6.6163e-06,1.91038e-05,9.03104e-06,7
-3.24088e-05,1.61772e-05,-3.77862e-06,0.000125854,1.39138e-05,-6.38054e-06,1.43544e-05,3.35805e-06,7
-3.24613e-05,1.43211e-05,-1.45484e-06,5.416e-05,1.5939e-05,-7.22981e-06,1.01565e-05,1.22006e-05,7
-3.24762e-05,1.34441e-05,-1.74929e-06,-5.49929e-05,1.90462e-05,-8.06974e-06,5.40242e-06,3.70286e-05,7
-3.28146e-05,1.30212e-05,-3.3724e-06,-0.000166581,2.40385e-05,-8.1342e-06,-4.74381e-06,5.75192e-05,7
-3.23861e-05,1.27188e-05,-5.10547e-06,-0.00023632,3.00853e-05,-6.90722e-06,-1.76284e-05,6.30729e-05,7
-3.18198e-05,1.25695e-05,-6.93123e-06,-0.000246115,3.48392e-05,-6.22853e-06,-2.63888e-05,5.49657e-05,7
-3.19253e-05,1.2422e-05,-7.75188e-06,-0.000210703,3.96518e-05,-6.62321e-06,-2.89669e-05,3.46078e-05,7
-3.24876e-05,1.20564e-05,-7.19269e-06,-0.000153479,4.58231e-05,-7.19967e-06,-2.63705e-05,3.74969e-06,7
-3.26767e-05,1.19274e-05,-6.0406e-06,-9.69118e-05,5.41808e-05,-8.08904e-06,-2.34871e-05,-3.46405e-05,7
-3.17668e-05,1.16066e-05,-5.68499e-06,-5.05814e-05,6.08416e-05,-9.58598e-06,-2.22189e-05,-7.53909e-05,7
-3.13489e-05,1.01872e-05,-6.52457e-06,-1.238e-05,6.1739e-05,-1.25086e-05,-1.83763e-05,-0.000110474,7
-3.23639e-05,8.1645e-06,-8.33759e-06,2.74675e-05,5.61748e-05,-1.49154e-05,-7.06863e-06,-0.000126801,7
-3.31308e-05,8.26054e-06,-1.00584e-05,6.79313e-05,4.27682e-05,-1.408e-05,1.05674e-05,-0.000115707,7
-3.15561e-05,1.18513e-05,-9.68217e-06,9.95819e-05,2.02137e-05,-8.85843e-06,2.79564e-05,-8.52285e-05,7
-2.8469e-05,1.60418e-05,-7.5781e-06,0.000113901,-5.71251e-06,-2.90814e-06,3.99887e-05,-5.17602e-05,7
-2.69023e-05,1.65346e-05,-5.53916e-06,0.000108866,-2.35353e-05,-7.48447e-07,4.47983e-05,-2.55923e-05,7
-2.76459e-05,1.40724e-05,-5.40956e-06,8.43573e-05,-2.92384e-05,-2.96523e-06,4.5926e-05,-1.04055e-05,7
-2.92644e-05,1.26795e-05,-7.66064e-06,4.62271e-05,-2.87162e-05,-5.56652e-06,4.62684e-05,-5.0148e-06,7
-3.13141e-05,1.20925e-05,-1.10583e-05,6.41252e-06,-2.5868e-05,-6.62777e-06,4.45073e-05,3.82621e-06,7
-3.32979e-05,1.04272e-05,-1.28756e-05,-2.06507e-05,-1.91078e-05,-7.62345e-06,3.77463e-05,2.77575e-05,7
-3.35125e-05,9.37764e-06,-1.27621e-05,-3.22413e-05,-1.37444e-05,-8.95884e-06,2.4003e-05,5.13694e-05,7
-3.24118e-05,1.05257e-05,-1.12146e-05,-4.03249e-05,-1.3446e-05,-8.74114e-06,1.02162e-05,5.75085e-05,7
-3.16045e-05,1.19964e-05,-8.73126e-06,-5.48274e-05,-1.46503e-05,-7.77128e-06,4.55031e-06,5.5175e-05,7
-3.15167e-05,1.39409e-05,-5.59656e-06,-7.37289e-05,-1.27855e-05,-7.53648e-06,6.59316e-06,5.7185e-05,7
-3.17228e-05,1.61673e-05,-4.0669e-06,-8.25876e-05,-7.1827e-06,-7.69774e-06,1.41381e-05,4.98703e-05,7
-3.04092e-05,1.66411e-05,-5.48044e-06,-6.57088e-05,4.2085e-07,-8.14032e-06,2.02341e-05,1.49218e-05,7
-2.90551e-05,1.70883e-05,-7.48306e-06,-2.88564e-05,8.96403e-06,-9.28055e-06,2.19147e-05,-3.48973e-05,7
-2.88509e-05,1.78882e-05,-7.56559e-06,3.26764e-06,1.59171e-05,-1.00693e-05,2.16308e-05,-7.88087e-05,7
-2.80428e-05,1.77106e-05,-5.50544e-06,1.89858e-05,1.96091e-05,-9.89754e-06,2.11604e-05,-9.86537e-05,7
-2.75013e-05,1.64906e-05,-5.30255e-06,2.21001e-05,2.005e-05,-1.01569e-05,2.22155e-05,-8.83919e-05,7
-2.81938e-05,1.49655e-05,-7.98194e-06,2.35873e-05,1.82353e-05,-1.00289e-05,2.1975e-05,-5.41182e-05,7
-2.9517e-05,1.46038e-05,-1.02272e-05,2.72386e-05,1.73289e-05,-8.96655e-06,1.96481e-05,-8.41554e-06,7
-2.9778e-05,1.53739e-05,-9.17366e-06,2.93978e-05,2.1225e-05,-7.74028e-06,1.4585e-05,3.02901e-05,7
-2.92398e-05,1.56438e-05,-7.04818e-06,2.59172e-05,2.80599e-05,-7.94145e-06,7.67705e-06,5.57621e-05,7
-2.89437e-05,1.48604e-05,-5.86415e-06,1.90126e-05,3.25412e-05,-8.50846e-06,4.70004e-06,7.23636e-05,7
-2.94483e-05,1.51206e-05,-4.22014e-06,1.44506e-05,3.21548e-05,-8.21795e-06,8.02664e-06,8.4827e-05,7
-3.01954e-05,1.57559e-05,-2.38989e-06,1.27867e-05,2.70707e-05,-7.74221e-06,1.52785e-05,8.81935e-05,7
-3.04591e-05,1.62281e-05,-1.91356e-06,1.11391e-05,1.6278e-05,-7.69115e-06,2.51067e-05,6.99986e-05,7
-3.01416e-05,1.62208e-05,-2.15467e-06,8.65714e-06,2.27471e-06,-8.15027e-06,3.54301e-05,2.65049e-05,7
-2.95178e-05,1.52668e-05,-1.78062e-06,7.69446e-06,-8.13405e-06,-8.91061e-06,4.06389e-05,-2.96688e-05,7
-2.9014e-05,1.4738e-05,-8.09082e-07,8.07944e-06,-8.48101e-06,-9.9867e-06,3.55272e-05,-7.73039e-05,7
-2.84369e-05,1.46452e-05,-1.71303e-06,6.31351e-06,4.35782e-06,-1.12707e-05,2.3765e-05,-9.18683e-05,7
-2.86295e-05,1.36868e-05,-5.99316e-06,1.62901e-06,2.57825e-05,-1.2115e-05,1.38448e-05,-6.39961e-05,7
-2.99418e-05,1.18294e-05,-1.04809e-05,-2.00434e-06,4.30012e-05,-1.16568e-05,7.15445e-06,-1.53678e-05,7
-3.08789e-05,1.00811e-05,-1.24577e-05,-2.52134e-06,4.54159e-05,-1.08523e-05,1.13053e-06,1.64804e-05,7
-2.90266e-05,9.07732e-06,-1.28337e-05,-1.55899e-06,3.69002e-05,-1.17317e-05,-4.19995e-06,1.93397e-05,7
-2.49173e-05,9.74462e-06,-1.18255e-05,-1.69857e-06,2.72275e-05,-1.30453e-05,-4.95174e-06,1.8506e-05,7
-2.17798e-05,1.0686e-05,-7.89206e-06,-3.06918e-06,1.9385e-05,-1.23489e-05,-2.44903e-07,4.98407e-05,7
-2.08663e-05,1.15602e-05,-2.56489e-06,-4.44313e-06,1.31774e-05,-1.1576e-05,5.45879e-06,0.000104299,7
-2.07201e-05,1.2754e-05,2.07829e-06,-3.22569e-06,9.2556e-06,-1.21405e-05,8.00314e-06,0.00013278,7
-2.20706e-05,1.38038e-05,3.46792e-06,-9.20341e-07,8.16561e-06,-1.3384e-05,8.99446e-06,0.000122974,7
-2.33515e-05,1.34855e-05,-6.97557e-07,-4.59761e-06,9.52034e-06,-1.44463e-05,1.10559e-05,8.73583e-05,7
-2.35765e-05,1.25567e-05,-7.42339e-06,-1.08993e-05,1.04083e-05,-1.45629e-05,1.27222e-05,3.98685e-05,7
-2.29684e-05,1.2759e-05,-9.39269e-06,-8.58582e-06,1.01514e-05,-1.37375e-05,1.40319e-05,-7.51814e-06,7
-2.27295e-05,1.28707e-05,-7.44539e-06,-5.16777e-07,7.82474e-06,-1.12069e-05,1.31491e-05,-4.44382e-05,7
-2.50301e-05,1.3175e-05,-5.5765e-06,1.24662e-06,6.77593e-06,-7.92758e-06,8.82781e-06,-6.60338e-05,7
-2.84888e-05,1.45111e-05,-5.00493e-06,-6.50223e-06,8.25259e-06,-5.64156e-06,5.15172e-06,-8.11292e-05,7
-3.17537e-05,1.51329e-05,-6.39383e-06,-1.44139e-05,9.93134e-06,-5.39329e-06,2.92872e-06,-9.12542e-05,7
-3.28987e-05,1.38173e-05,-7.91978e-06,-1.47909e-05,1.13025e-05,-6.80424e-06,3.44303e-07,-9.98389e-05,7
-3.30643e-05,1.24624e-05,-9.2192e-06,-1.1278e-05,1.2695e-05,-9.07403e-06,-2.78e-06,-0.000102987,7
-3.25288e-05,1.2065e-05,-8.46298e-06,-6.75639e-06,1.54651e-05,-1.11441e-05,-5.5735e-06,-9.37248e-05,7
-3.09747e-05,1.31426e-05,-5.67663e-06,-8.60433e-07,1.83406e-05,-1.17521e-05,-5.52586e-06,-7.5665e-05,7
-2.99608e-05,1.4204e-05,-3.26839e-06,4.17868e-06,1.99603e-05,-1.01977e-05,-1.63453e-06,-5.68602e-05,7
-3.00221e-05,1.41816e-05,-2.74637e-06,5.38243e-06,1.99195e-05,-8.31231e-06,5.08596e-06,-4.0322e-05,7
-3.06503e-05,1.38182e-05,-3.51995e-06,1.88394e-06,1.90931e-05,-8.62829e-06,1.28867e-05,-2.47414e-05,7
-3.1784e-05,1.29116e-05,-5.22984e-06,-5.65723e-06,1.57517e-05,-1.04411e-05,1.88857e-05,-5.43673e-06,7
-3.30258e-05,1.11964e-05,-7.68489e-06,-1.61686e-05,1.16771e-05,-1.23863e-05,2.10513e-05,2.17417e-05,7
-3.29849e-05,9.75445e-06,-9.01489e-06,-2.35951e-05,1.01922e-05,-1.35028e-05,1.95199e-05,4.55393e-05,7
-3.11917e-05,1.01276e-05,-7.83481e-06,-2.13529e-05,1.17032e-05,-1.42387e-05,1.58925e-05,5.6078e-05,7
-2.93243e-05,1.0957e-05,-5.5877e-06,-1.1649e-05,1.39504e-05,-1.44006e-05,1.22092e-05,5.5763e-05,7
-2.95867e-05,1.09054e-05,-5.19639e-06,-1.28117e-06,1.5903e-05,-1.34703e-05,1.13966e-05,5.43894e-05,7
-3.02537e-05,1.08245e-05,-4.94116e-06,6.52415e-06,1.77369e-05,-1.14622e-05,1.44806e-05,5.37277e-05,7
-2.90443e-05,1.21448e-05,-2.30211e-06,1.21287e-05,1.97115e-05,-9.69946e-06,1.77432e-05,4.76802e-05,7
-2.68093e-05,1.38729e-05,-2.14037e-07,1.39606e-05,2.11481e-05,-9.14658e-06,1.68294e-05,3.65974e-05,7
-2.65179e-05,1.5182e-05,-2.14113e-06,8.36619e-06,2.09642e-05,-9.69978e-06,1.12114e-05,2.19862e-05,7
-2.85726e-05,1.53205e-05,-6.56754e-06,-1.83934e-06,1.96976e-05,-1.11061e-05,6.06473e-06,1.62896e-06,7
-3.11724e-05,1.48649e-05,-8.17676e-06,-7.67725e-06,1.79057e-05,-1.15655e-05,8.33541e-06,-1.15224e-05,7
-3.20084e-05,1.41046e-05,-5.28585e-06,-7.16824e-06,1.60667e-05,-1.0109e-05,1.51496e-05,-7.03035e-06,7
-3.11164e-05,1.2699e-05,-3.57248e-06,-5.01169e-06,1.15829e-05,-9.3233e-06,1.97017e-05,9.69796e-06,7
-3.09973e-05,1.11828e-05,-5.23438e-06,-7.51306e-06,6.9473e-06,-8.93609e-06,2.33546e-05,2.02932e-05,7
-3.18573e-05,1.088e-05,-7.99659e-06,-1.31435e-05,5.2395e-06,-8.71234e-06,2.76631e-05,6.99443e-06,7
-3.28748e-05,1.18285e-05,-9.03323e-06,-1.44102e-05,4.62066e-06,-9.51427e-06,2.40014e-05,-2.53912e-05,7
-3.33448e-05,1.24842e-05,-8.17273e-06,-1.12016e-05,4.16328e-06,-9.3084e-06,7.57149e-06,-5.97588e-05,7
-3.29518e-05,1.24006e-05,-9.97203e-06,-8.11068e-06,4.77644e-06,-8.65745e-06,-1.17269e-05,-8.01457e-05,7
-3.28903e-05,1.07939e-05,-1.34854e-05,-7.87704e-06,7.02737e-06,-9.40152e-06,-2.20089e-05,-8.37311e-05,7
-3.37382e-05,8.87294e-06,-1.5699e-05,-8.19847e-06,8.50213e-06,-1.11432e-05,-2.23565e-05,-7.48541e-05,7
-3.50499e-05,7.48871e-06,-1.74775e-05,-6.65812e-06,8.21162e-06,-1.21341e-05,-1.65939e-05,-5.77447e-05,7
-3.69136e-05,7.87221e-06,-2.02721e-05,-1.33357e-06,8.24226e-06,-1.28304e-05,-5.80362e-06,-3.41135e-05,7
-3.8308e-05,9.72371e-06,-2.20783e-05,7.21017e-06,1.08287e-05,-1.32456e-05,4.66776e-06,-1.20235e-05,7
-3.837e-05,1.18227e-05,-1.97474e-05,1.50684e-05,1.51976e-05,-1.33758e-05,1.4344e-05,1.38403e-06,7
-3.75465e-05,1.39123e-05,-1.40867e-05,1.88724e-05,1.7067e-05,-1.16381e-05,2.62422e-05,7.2682e-06,7
-3.61748e-05,1.72367e-05,-7.55116e-06,1.67279e-05,1.44304e-05,-7.27693e-06,3.88288e-05,1.07911e-05,7
-3.4087e-05,2.09968e-05,-2.02239e-06,9.93324e-06,9.55923e-06,-2.00516e-06,4.66034e-05,1.53625e-05,7
-3.26331e-05,2.14595e-05,1.85715e-06,2.84217e-06,6.1334e-06,3.89251e-07,4.56885e-05,1.9709e-05,7
-3.29478e-05,1.82966e-05,3.09408e-06,-3.15512e-07,5.74922e-06,-1.78381e-06,3.64282e-05,2.25423e-05,7
-3.41418e-05,1.50472e-05,1.32732e-06,-7.04452e-07,7.81902e-06,-6.19891e-06,2.32178e-05,2.35801e-05,7
-3.44806e-05,1.37051e-05,-2.1438e-06,-3.56815e-06,1.06402e-05,-9.79786e-06,1.39922e-05,2.37428e-05,7
-3.42783e-05,1.27152e-05,-5.09912e-06,-1.12297e-05,1.214e-05,-9.36619e-06,1.53196e-05,2.44113e-05,7
-3.52999e-05,1.15538e-05,-6.07078e-06,-2.04824e-05,1.22226e-05,-6.71325e-06,2.56171e-05,2.76378e-05,7
-3.69973e-05,1.0112e-05,-4.64367e-06,-2.74093e-05,1.3201e-05,-6.29731e-06,3.41855e-05,3.10256e-05,7
-3.68641e-05,1.07657e-05,-2.09763e-06,-2.92227e-05,1.39102e-05,-9.38245e-06,3.47737e-05,3.22697e-05,7
-3.31693e-05,1.47383e-05,-1.35306e-06,-2.64437e-05,9.57311e-06,-1.11025e-05,2.8197e-05,3.34417e-05,7
-3.01705e-05,1.79186e-05,-3.2524e-06,-2.52114e-05,3.14888e-07,-7.76782e-06,1.90545e-05,3.74655e-05,7
-3.10224e-05,1.70104e-05,-6.15947e-06,-2.8757e-05,-6.51681e-06,-3.94456e-06,1.13831e-05,4.13167e-05,7
-3.33134e-05,1.39261e-05,-7.59553e-06,-3.20997e-05,-5.69074e-06,-3.49163e-06,5.61936e-06,4.217e-05,7
-3.52777e-05,1.08699e-05,-8.34401e-06,-2.76818e-05,9.28838e-07,-6.28755e-06,-2.40267e-06,4.04596e-05,7
-3.59258e-05,9.28236e-06,-9.25438e-06,-1.704e-05,7.71666e-06,-9.85424e-06,-1.23254e-05,3.65492e-05,7
-3.52621e-05,1.02516e-05,-1.03364e-05,-8.012e-06,1.13605e-05,-9.88699e-06,-1.85551e-05,3.46813e-05,7
-3.4269e-05,1.26791e-05,-1.1798e-05,-3.12458e-06,1.4532e-05,-9.38463e-06,-1.73018e-05,3.71846e-05,7
-3.37917e-05,1.38989e-05,-1.16643e-05,-3.27269e-06,1.81848e-05,-9.22438e-06,-9.16066e-06,3.97042e-05,7
-3.47471e-05,1.19679e-05,-1.0438e-05,-7.43338e-06,2.14451e-05,-8.75371e-06,-2.42828e-07,3.87891e-05,7
-3.61161e-05,9.5033e-06,-8.51817e-06,-1.11852e-05,2.14948e-05,-7.71229e-06,6.64867e-06,3.39895e-05,7
-3.66185e-05,1.07072e-05,-5.6862e-06,-9.87114e-06,1.67501e-05,-5.97093e-06,1.08863e-05,2.62013e-05,7
-3.58201e-05,1.4807e-05,-2.87263e-06,-6.14228e-06,1.04599e-05,-4.71491e-06,1.09691e-05,1.9143e-05,7
-3.42546e-05,1.66969e-05,-1.99705e-06,-5.2287e-06,6.55354e-06,-4.19277e-06,5.95281e-06,1.77963e-05,7
-3.37578e-05,1.5178e-05,-2.81596e-06,-7.98351e-06,6.60414e-06,-6.09779e-06,-2.42739e-06,2.02317e-05,7
-3.32421e-05,1.26165e-05,-4.82356e-06,-1.12133e-05,8.93747e-06,-9.40358e-06,-8.9694e-06,1.78674e-05,7
-3.18845e-05,1.09235e-05,-7.77343e-06,-1.14436e-05,1.16669e-05,-1.31547e-05,-9.65442e-06,1.18643e-05,7
-2.96929e-05,1.05863e-05,-1.02317e-05,-8.63725e-06,1.3897e-05,-1.50457e-05,-4.74706e-06,1.32748e-05,7
-2.76542e-05,1.08307e-05,-1.0417e-05,-3.58501e-06,1.68386e-05,-1.45032e-05,1.22631e-06,2.2638e-05,7
-2.6854e-05,1.17182e-05,-7.57048e-06,1.86979e-06,1.99482e-05,-1.24509e-05,4.36135e-06,2.53084e-05,7
-2.63029e-05,1.24416e-05,-4.67333e-06,6.89475e-06,2.08638e-05,-1.07889e-05,4.0825e-06,1.1941e-05,7
-2.54243e-05,1.15881e-05,-4.29668e-06,1.10792e-05,1.97461e-05,-1.04508e-05,2.99853e-06,-1.15009e-05,7
-2.37666e-05,9.96979e-06,-5.72277e-06,1.50223e-05,1.88734e-05,-1.0563e-05,3.66465e-06,-3.32504e-05,7
-2.20294e-05,9.73455e-06,-6.14817e-06,1.79087e-05,1.86198e-05,-1.09545e-05,6.58501e-06,-4.61567e-05,7
-2.21479e-05,9.75519e-06,-6.13106e-06,1.98206e-05,1.82045e-05,-1.23965e-05,1.03271e-05,-4.78712e-05,7
-2.44031e-05,8.19325e-06,-8.15572e-06,2.25845e-05,1.66864e-05,-1.42375e-05,1.44909e-05,-3.93508e-05,7
-2.56722e-05,6.89611e-06,-1.10211e-05,2.68253e-05,1.23656e-05,-1.4281e-05,2.2274e-05,-2.28644e-05,7
-2.44962e-05,8.26139e-06,-1.16273e-05,3.05873e-05,4.86467e-06,-1.22181e-05,3.21844e-05,-3.49018e-06,7
-2.18711e-05,1.08658e-05,-1.27089e-05,3.15429e-05,-1.95033e-06,-9.82816e-06,3.65798e-05,8.75901e-06,7
-1.83086e-05,1.18299e-05,-1.46406e-05,2.88659e-05,-1.26946e-06,-9.40109e-06,3.01696e-05,9.72024e-06,7
-1.69338e-05,1.12403e-05,-1.45749e-05,2.14249e-05,3.8201e-06,-1.01417e-05,1.75764e-05,4.38436e-06,7
-2.05464e-05,9.17455e-06,-1.30971e-05,1.02619e-05,3.13842e-06,-1.05916e-05,7.85237e-06,-4.65454e-06,7
-2.51903e-05,8.9315e-06,-1.15959e-05,4.93148e-06,-2.17754e-07,-1.04292e-05,7.09939e-06,-1.55416e-05,7
-2.60369e-05,1.11052e-05,-9.68164e-06,6.14933e-06,-2.06658e-07,-9.25532e-06,1.1106e-05,-2.43957e-05,7
-2.42308e-05,1.2355e-05,-9.02612e-06,5.9365e-06,2.53077e-06,-7.8693e-06,1.09639e-05,-2.84287e-05,7
-2.25688e-05,1.35769e-05,-1.12595e-05,2.47944e-06,6.70222e-06,-6.44598e-06,5.94002e-06,-2.65223e-05,7
-2.18513e-05,1.40217e-05,-1.22761e-05,-5.24365e-06,9.77699e-06,-3.35359e-06,1.51142e-06,-1.83125e-05,7
-2.32336e-05,1.25835e-05,-1.16434e-05,-1.29096e-05,1.44283e-05,-1.86287e-06,5.7873e-06,-4.32007e-06,7
-2.48534e-05,1.12174e-05,-1.11074e-05,-1.45953e-05,2.03124e-05,-3.5667e-06,1.76054e-05,7.64581e-06,7
-2.552e-05,1.14966e-05,-1.03062e-05,-9.8449e-06,2.33137e-05,-6.2503e-06,2.87738e-05,1.24796e-05,7
-2.60078e-05,1.25078e-05,-8.59644e-06,-6.25815e-06,2.08879e-05,-7.73915e-06,3.56356e-05,1.16899e-05,7
-2.67442e-05,1.2841e-05,-6.80384e-06,-7.21722e-06,1.54549e-05,-6.72304e-06,3.88618e-05,1.04978e-05,7
-2.87339e-05,1.19412e-05,-6.38306e-06,-1.02982e-05,1.08855e-05,-5.77306e-06,3.62112e-05,1.29107e-05,7
-3.08404e-05,1.01496e-05,-7.07649e-06,-1.1645e-05,8.23553e-06,-7.55474e-06,2.66956e-05,1.83847e-05,7
-3.27131e-05,8.01327e-06,-8.2861e-06,-9.08335e-06,7.60098e-06,-1.11229e-05,1.45675e-05,2.56414e-05,7
-3.42027e-05,6.50069e-06,-9.25027e-06,-4.99584e-06,8.29889e-06,-1.39419e-05,4.46897e-06,3.25048e-05,7
-3.5283e-05,6.72785e-06,-9.68317e-06,5.61153e-07,1.04072e-05,-1.54018e-05,6.56397e-07,3.37394e-05,7
-3.47697e-05,8.41987e-06,-9.4523e-06,1.78144e-05,1.31743e-05,-1.49738e-05,4.14527e-06,2.53563e-05,7
-3.29215e-05,1.08392e-05,-7.41459e-06,5.37651e-05,1.71279e-05,-1.1889e-05,1.14332e-05,1.75642e-05,7
-3.16583e-05,1.13586e-05,-3.99767e-06,9.21872e-05,2.1152e-05,-8.15972e-06,1.60854e-05,2.46305e-05,7
-3.21854e-05,9.74826e-06,-1.19706e-06,0.00011059,2.51943e-05,-6.65705e-06,1.6218e-05,3.98137e-05,7
-3.41984e-05,9.44984e-06,8.26927e-07,9.88626e-05,3.02787e-05,-6.8988e-06,1.35527e-05,4.38558e-05,7
-3.59753e-05,1.03712e-05,7.85892e-07,6.23158e-05,3.54918e-05,-7.65296e-06,1.18067e-05,3.40904e-05,7
-3.67733e-05,9.99553e-06,-1.88678e-06,1.01682e-05,4.02102e-05,-9.42451e-06,1.25387e-05,1.67996e-05,7
-3.67293e-05,9.45237e-06,-3.45244e-06,-5.23609e-05,4.33651e-05,-1.01133e-05,1.16806e-05,-7.06534e-06,7
-3.54249e-05,9.27563e-06,-3.31899e-06,-0.000113542,4.31489e-05,-7.42228e-06,6.00459e-06,-3.98158e-05,7
-3.3195e-05,8.50735e-06,-3.87008e-06,-0.000148992,4.07864e-05,-6.87616e-06,-1.80357e-06,-7.98026e-05,7
-3.23667e-05,7.55664e-06,-6.23199e-06,-0.000145006,4.01898e-05,-9.12577e-06,-6.51164e-06,-0.000116521,7
-3.29628e-05,7.93502e-06,-6.80339e-06,-0.000112475,4.09234e-05,-9.04647e-06,-6.47007e-06,-0.000135077,7
-3.2624e-05,9.50301e-06,-3.18059e-06,-7.58803e-05,3.75347e-05,-7.19473e-06,-4.15909e-06,-0.000127218,7
-3.14775e-05,1.12252e-05,-1.3734e-06,-4.99393e-05,2.79179e-05,-5.69242e-06,-3.45217e-06,-0.000101031,7
-3.04139e-05,1.29711e-05,-3.38905e-06,-2.69078e-05,1.19525e-05,-3.93198e-06,-1.66267e-06,-7.02723e-05,7
-2.71069e-05,1.43379e-05,-3.7558e-06,5.07592e-06,-7.12539e-06,-1.85806e-06,5.11047e-06,-4.43162e-05,7
-2.46126e-05,1.62474e-05,-1.04562e-06,3.88753e-05,-2.40252e-05,-2.38598e-06,1.47517e-05,-2.67e-05,7
-2.45308e-05,1.58821e-05,1.35967e-06,5.2436e-05,-3.33097e-05,-3.83844e-06,2.14851e-05,-1.75046e-05,7
-2.44504e-05,1.33048e-05,2.64906e-06,3.9367e-05,-3.16172e-05,-5.50185e-06,2.32161e-05,-1.49464e-05,7
-2.43561e-05,1.10208e-05,2.4056e-06,6.55577e-06,-2.22174e-05,-9.1213e-06,2.68139e-05,-1.29559e-05,7
-2.38491e-05,1.04775e-05,-1.09464e-06,-3.42475e-05,-1.08243e-05,-1.17477e-05,3.50202e-05,-8.96948e-06,7
-2.41127e-05,1.13019e-05,-4.48256e-06,-6.43144e-05,-2.02051e-06,-1.10162e-05,4.36633e-05,-4.31688e-06,7
-2.50037e-05,1.19043e-05,-4.95373e-06,-7.02218e-05,4.57084e-06,-8.24711e-06,4.57026e-05,1.13544e-06,7
-2.58935e-05,1.28545e-05,-2.62579e-06,-5.72236e-05,9.96043e-06,-5.92652e-06,3.65696e-05,9.85179e-06,7
-2.69221e-05,1.53842e-05,5.03425e-07,-4.07093e-05,1.35494e-05,-6.6256e-06,1.71962e-05,2.13298e-05,7
-2.88584e-05,1.73908e-05,1.21075e-06,-3.13801e-05,1.6257e-05,-9.7674e-06,-5.47258e-06,3.06672e-05,7
-3.1391e-05,1.61901e-05,-8.62812e-07,-2.91615e-05,1.80267e-05,-1.17069e-05,-1.68838e-05,3.57428e-05,7
-3.30894e-05,1.41686e-05,-4.51711e-06,-2.63542e-05,1.66597e-05,-1.13962e-05,-1.11421e-05,3.59641e-05,7
-3.42288e-05,1.38234e-05,-8.29172e-06,-1.92331e-05,1.36995e-05,-1.12094e-05,1.97266e-06,3.14868e-05,7
-3.49408e-05,1.4562e-05,-1.1505e-05,-1.05013e-05,1.33474e-05,-1.27147e-05,1.06571e-05,2.53523e-05,7
-3.41628e-05,1.45623e-05,-1.32321e-05,-1.91276e-06,1.64886e-05,-1.29929e-05,1.30473e-05,2.61759e-05,7
-3.13522e-05,1.55298e-05,-1.23997e-05,9.62133e-06,2.0021e-05,-1.0116e-05,1.26829e-05,3.89851e-05,7
-2.77394e-05,1.80008e-05,-9.0006e-06,2.2421e-05,2.06466e-05,-5.69456e-06,1.41068e-05,5.59271e-05,7
-2.59062e-05,1.94612e-05,-6.38734e-06,3.15475e-05,1.72123e-05,-1.86197e-06,1.92967e-05,6.7544e-05,7
-2.72827e-05,1.81819e-05,-5.94961e-06,3.26772e-05,1.43067e-05,-1.49136e-06,2.52308e-05,7.50941e-05,7
-3.05163e-05,1.62103e-05,-6.39751e-06,2.7254e-05,1.52578e-05,-4.87169e-06,2.78327e-05,8.32632e-05,7
-3.23678e-05,1.5223e-05,-5.99591e-06,1.8602e-05,1.73236e-05,-7.68114e-06,2.76464e-05,8.1862e-05,7
-3.15271e-05,1.47137e-05,-5.03255e-06,5.09778e-06,1.78639e-05,-8.20281e-06,2.8476e-05,5.87421e-05,7
-3.20918e-05,1.27439e-05,-4.62593e-06,-1.67678e-05,1.81431e-05,-9.88027e-06,3.02477e-05,1.28804e-05,7
-3.57982e-05,1.07069e-05,-4.59024e-06,-3.85304e-05,2.10501e-05,-1.42122e-05,2.7202e-05,-4.45589e-05,7
-3.89291e-05,1.04128e-05,-3.63911e-06,-4.28586e-05,2.98589e-05,-1.78819e-05,1.62838e-05,-8.66441e-05,7
-3.85011e-05,1.02881e-05,-2.82303e-06,-2.71113e-05,4.10815e-05,-1.85076e-05,5.64681e-06,-9.69866e-05,7
-3.51141e-05,1.11537e-05,-5.40035e-06,-6.2212e-06,4.46315e-05,-1.82911e-05,2.00994e-06,-8.18489e-05,7
-3.31603e-05,1.27248e-05,-8.29818e-06,6.15106e-06,3.7533e-05,-1.69884e-05,3.84933e-06,-5.83555e-05,7
-3.33818e-05,1.39691e-05,-8.82913e-06,1.19503e-05,2.54305e-05,-1.35321e-05,9.35007e-06,-3.90426e-05,7
-3.31492e-05,1.46078e-05,-7.75762e-06,1.41782e-05,1.68511e-05,-9.77949e-06,1.80785e-05,-2.74077e-05,7
-3.30782e-05,1.37959e-05,-8.62573e-06,1.44923e-05,1.28653e-05,-8.74964e-06,2.71046e-05,-2.08986e-05,7
-3.34287e-05,1.10275e-05,-1.18807e-05,2.05543e-05,1.11535e-05,-1.11893e-05,3.11511e-05,-1.6313e-05,7
-3.34127e-05,7.49141e-06,-1.60474e-05,4.0531e-05,9.18438e-06,-1.40761e-05,2.7964e-05,-1.16143e-05,7
-3.27187e-05,6.68253e-06,-2.00893e-05,6.61153e-05,5.71757e-06,-1.49219e-05,1.77531e-05,-5.49404e-06,7
-3.19406e-05,9.61892e-06,-2.03441e-05,8.07255e-05,1.17503e-06,-1.27057e-05,5.62429e-06,4.70116e-06,7
-3.07573e-05,1.43472e-05,-1.39171e-05,7.67454e-05,-3.10918e-06,-1.0792e-05,-3.87658e-07,1.57743e-05,7
-2.92229e-05,1.76582e-05,-2.81643e-06,5.43811e-05,-3.07248e-06,-1.12241e-05,1.08719e-06,1.90068e-05,7
-2.75757e-05,1.76793e-05,5.54e-06,1.97661e-05,1.78701e-06,-1.26972e-05,4.35491e-06,1.504e-05,7
-2.57087e-05,1.66359e-05,7.15969e-06,-2.09126e-05,5.69198e-06,-1.36993e-05,4.13543e-06,9.55416e-06,7
-2.42713e-05,1.62399e-05,4.29726e-06,-6.20633e-05,5.71941e-06,-1.38138e-05,2.9479e-06,6.80257e-06,7
-2.37e-05,1.5936e-05,1.54269e-07,-9.28383e-05,6.02898e-06,-1.35448e-05,4.88007e-06,5.38492e-06,7
-2.32389e-05,1.53237e-05,-3.59549e-06,-9.81587e-05,9.36959e-06,-1.34497e-05,9.23671e-06,4.08374e-06,7
-2.21118e-05,1.48676e-05,-4.92106e-06,-7.7347e-05,1.46895e-05,-1.37576e-05,1.19064e-05,8.61403e-07,7
-2.19574e-05,1.55341e-05,-4.40522e-06,-4.60978e-05,1.87761e-05,-1.22954e-05,9.76439e-06,-3.19059e-06,7
-2.34958e-05,1.75436e-05,-3.72029e-06,-1.91793e-05,1.90147e-05,-9.05586e-06,4.54926e-06,-4.896e-06,7
-2.57863e-05,1.7624e-05,-4.3846e-06,-6.80644e-07,1.61983e-05,-6.46086e-06,2.15218e-06,2.07235e-06,7
-2.74723e-05,1.47278e-05,-5.7092e-06,1.21409e-05,1.37036e-05,-6.10323e-06,5.50159e-06,2.826e-05,7
-2.7253e-05,1.16333e-05,-4.96609e-06,2.39045e-05,1.27684e-05,-8.68221e-06,9.43549e-06,6.82399e-05,7
-2.68432e-05,1.03398e-05,-3.15127e-06,3.48233e-05,1.12586e-05,-1.20492e-05,1.16119e-05,9.37919e-05,7
-2.77082e-05,9.89174e-06,-4.41681e-06,3.66369e-05,6.94554e-06,-1.35125e-05,1.65297e-05,9.28965e-05,7
-2.92734e-05,8.85075e-06,-8.65155e-06,2.81162e-05,4.46835e-06,-1.33985e-05,2.27734e-05,9.25202e-05,7
-3.13663e-05,6.2347e-06,-1.15656e-05,1.73865e-05,6.04238e-06,-1.27843e-05,2.41074e-05,0.000120605,7
-3.13446e-05,5.1167e-06,-1.41908e-05,5.35665e-06,7.60694e-06,-1.19163e-05,1.92238e-05,0.000151485,7
-3.07937e-05,7.66312e-06,-1.61373e-05,-4.40861e-06,7.71747e-06,-1.0749e-05,1.48552e-05,0.000141015,7
