ch1,ch2,ch3,ch4,ch5,ch6,ch7,ch8,class
-3.25543e-05,1.17053e-05,-2.01096e-07,-2.46259e-05,1.76689e-05,-1.63132e-05,7.41022e-06,-1.27474e-05,7
-3.51449e-05,9.665e-06,-2.8885e-06,-4.17599e-05,2.1994e-05,-1.68514e-05,2.08052e-05,-9.78706e-07,7
-3.68209e-05,8.14913e-06,-6.69785e-06,-5.82306e-05,2.34846e-05,-1.64333e-05,3.00827e-05,1.31352e-05,7
-3.67184e-05,5.77103e-06,-1.4333e-05,-6.13935e-05,1.96575e-05,-1.55042e-05,3.36833e-05,2.64254e-05,7
-3.57287e-05,3.767e-06,-2.02806e-05,-4.26483e-05,1.18304e-05,-1.49607e-05,2.91837e-05,3.9015e-05,7
-3.434e-05,2.39631e-06,-2.03375e-05,-2.31879e-05,3.29087e-06,-1.4211e-05,1.61316e-05,4.6645e-05,7
-3.36266e-05,2.7099e-06,-1.73719e-05,-2.09976e-05,-3.80021e-07,-1.20545e-05,-6.87331e-07,4.59797e-05,7
-3.26294e-05,5.74393e-06,-1.1788e-05,-2.67621e-05,2.44473e-06,-1.11305e-05,-1.45016e-05,3.98654e-05,7
-3.156e-05,9.956e-06,-5.57299e-06,-2.66702e-05,7.59271e-06,-9.75527e-06,-1.78901e-05,3.25821e-05,7
-3.08568e-05,1.48588e-05,2.05219e-06,-1.68691e-05,1.20525e-05,-7.93676e-06,-7.9964e-06,2.49328e-05,7
-3.13075e-05,1.78586e-05,6.96283e-06,-7.85713e-06,1.41612e-05,-6.65012e-06,9.77136e-06,1.85442e-05,7
-3.32544e-05,1.57243e-05,7.03454e-06,-5.90945e-06,1.50907e-05,-5.37799e-06,2.40639e-05,1.56721e-05,7
-3.54696e-05,1.17598e-05,6.19468e-06,-5.88847e-06,1.63026e-05,-4.13196e-06,3.08902e-05,1.97324e-05,7
-3.6826e-05,1.0322e-05,5.48329e-06,-3.16044e-06,1.73178e-05,-3.5562e-06,3.11067e-05,3.2096e-05,7
-3.72181e-05,1.08946e-05,4.18127e-06,-1.42015e-06,1.61712e-05,-3.82884e-06,2.90762e-05,4.52404e-05,7
-3.7549e-05,1.15807e-05,1.97372e-06,-3.67715e-06,1.33433e-05,-4.57218e-06,2.727e-05,5.57292e-05,7
-3.67789e-05,1.15933e-05,6.08502e-07,-5.48879e-06,1.22352e-05,-6.50255e-06,2.21257e-05,6.67976e-05,7
-3.56139e-05,1.17608e-05,1.04961e-06,-3.53884e-06,1.3867e-05,-8.77823e-06,1.2522e-05,7.77216e-05,7
-3.56329e-05,1.25192e-05,3.4658e-06,3.27068e-06,1.75345e-05,-1.16485e-05,7.1813e-07,7.647e-05,7
-3.67494e-05,1.26482e-05,5.1238e-06,2.25832e-05,2.10767e-05,-1.41698e-05,-8.01823e-06,5.36389e-05,7
-3.71332e-05,1.15611e-05,4.66101e-06,7.03424e-05,2.21479e-05,-1.51304e-05,-8.486e-06,1.87544e-05,7
-3.66338e-05,1.1046e-05,2.76122e-06,0.000142551,1.99522e-05,-1.35778e-05,-2.4016e-06,-1.05998e-05,7
-3.66482e-05,1.1417e-05,1.17464e-06,0.000204583,1.60746e-05,-1.12999e-05,3.21788e-06,-3.0067e-05,7
-3.7825e-05,1.17038e-05,4.71236e-07,0.000218836,1.24072e-05,-9.48398e-06,5.13212e-06,-3.86483e-05,7
-3.89179e-05,1.21139e-05,4.58196e-07,0.000169871,9.52743e-06,-8.97764e-06,5.13943e-06,-2.72265e-05,7
-3.92784e-05,1.25314e-05,-1.06689e-06,6.84375e-05,7.72286e-06,-1.11626e-05,4.94799e-06,-9.07541e-07,7
-3.89505e-05,1.24232e-05,-3.92095e-06,-6.33651e-05,8.52287e-06,-1.4013e-05,3.20135e-06,8.69956e-06,7
-3.77284e-05,1.33097e-05,-4.48646e-06,-0.000199031,1.34482e-05,-1.38809e-05,1.7444e-06,-1.88909e-05,7
-3.55292e-05,1.56085e-05,-2.25409e-06,-0.000287859,2.2742e-05,-1.09758e-05,3.58086e-06,-6.22942e-05,7
-3.38286e-05,1.68082e-05,-3.74594e-06,-0.000287175,3.08109e-05,-7.87839e-06,9.28567e-06,-8.27671e-05,7
-3.32597e-05,1.52652e-05,-1.5272e-05,-0.000217662,3.10077e-05,-3.4631e-06,1.57635e-05,-6.62996e-05,7
-3.33394e-05,1.36223e-05,-2.27831e-05,-0.000143641,2.68904e-05,3.98666e-07,2.16999e-05,-3.06245e-05,7
-3.3831e-05,1.32415e-05,-1.6798e-05,-9.74507e-05,2.35389e-05,9.43622e-09,2.69943e-05,6.04165e-06,7
-3.4167e-05,1.3377e-05,-8.74652e-06,-7.14808e-05,1.91613e-05,-1.87988e-06,2.64368e-05,3.45665e-05,7
-3.34537e-05,1.39438e-05,-6.41467e-06,-5.08206e-05,1.10272e-05,-2.1037e-06,2.08716e-05,4.50754e-05,7
-3.27016e-05,1.29887e-05,-9.85472e-06,-1.80495e-05,2.8326e-06,-3.19481e-06,1.61894e-05,3.0773e-05,7
-3.28153e-05,1.12307e-05,-1.50237e-05,1.60571e-05,2.18702e-07,-5.75293e-06,1.46842e-05,-4.87325e-08,7
-3.21581e-05,1.06987e-05,-1.95036e-05,3.3984e-05,2.3008e-06,-7.51155e-06,1.4343e-05,-3.54004e-05,7
-3.18896e-05,1.09853e-05,-2.12012e-05,3.1889e-05,6.81917e-06,-8.19787e-06,1.24e-05,-6.68721e-05,7
-3.24417e-05,1.10423e-05,-2.0139e-05,2.18691e-05,1.116e-05,-8.3863e-06,9.87735e-06,-8.44025e-05,7
-3.31885e-05,1.19761e-05,-1.8805e-05,2.30114e-05,1.29213e-05,-1.06473e-05,9.74247e-06,-8.16991e-05,7
-3.34743e-05,1.22761e-05,-1.81503e-05,4.69389e-05,1.38527e-05,-1.47028e-05,1.25692e-05,-6.211e-05,7
-3.42581e-05,1.00684e-05,-1.9259e-05,8.31529e-05,1.46583e-05,-1.59295e-05,1.47682e-05,-3.68616e-05,7
-3.56478e-05,7.28046e-06,-1.95572e-05,0.000109815,1.42333e-05,-1.26929e-05,1.30158e-05,-1.20009e-05,7
-3.59433e-05,7.74263e-06,-1.57298e-05,0.000111702,1.2753e-05,-8.16149e-06,8.82457e-06,1.8584e-05,7
-3.43861e-05,1.12361e-05,-7.56892e-06,7.97201e-05,1.2782e-05,-6.17524e-06,7.23103e-06,5.78116e-05,7
-3.22788e-05,1.39456e-05,3.47598e-07,2.21659e-05,1.53947e-05,-6.91618e-06,1.19293e-05,9.40052e-05,7
-3.12569e-05,1.46474e-05,3.32789e-06,-4.73842e-05,1.80581e-05,-7.98765e-06,1.99779e-05,0.000115062,7
-3.10955e-05,1.45158e-05,3.96655e-07,-0.000112951,1.7083e-05,-7.97722e-06,2.33084e-05,0.000116341,7
-3.04125e-05,1.40398e-05,-5.90785e-06,-0.000153096,1.13321e-05,-7.34278e-06,1.8212e-05,9.67552e-05,7
-2.84908e-05,1.21383e-05,-1.06524e-05,-0.000144979,5.04076e-06,-7.46391e-06,1.06423e-05,5.90969e-05,7
-2.71062e-05,9.65156e-06,-1.034e-05,-9.75639e-05,3.47972e-06,-1.03483e-05,7.73873e-06,1.01277e-05,7
-2.73559e-05,7.82465e-06,-8.37929e-06,-4.70995e-05,6.82729e-06,-1.46573e-05,9.24988e-06,-4.50177e-05,7
-2.84871e-05,8.70353e-06,-8.5787e-06,-1.68722e-05,1.07937e-05,-1.67073e-05,1.26985e-05,-9.53261e-05,7
-2.82291e-05,1.15441e-05,-9.73149e-06,-4.15897e-06,1.16729e-05,-1.41129e-05,1.45806e-05,-0.00012154,7
-2.78542e-05,1.36007e-05,-1.03537e-05,2.44827e-06,8.72625e-06,-9.46714e-06,1.30596e-05,-0.000115172,7
-2.78692e-05,1.34477e-05,-1.02959e-05,1.13441e-05,4.25838e-06,-7.25226e-06,1.05782e-05,-8.86024e-05,7
-2.64698e-05,1.31113e-05,-9.65131e-06,2.42423e-05,3.5349e-06,-7.73481e-06,9.42674e-06,-5.86887e-05,7
-2.48014e-05,1.41651e-05,-8.44197e-06,3.90968e-05,8.07034e-06,-9.46088e-06,1.17747e-05,-3.64908e-05,7
-2.33323e-05,1.53299e-05,-5.95278e-06,4.98136e-05,1.3172e-05,-1.0774e-05,1.53338e-05,-2.44731e-05,7
-2.3966e-05,1.52457e-05,-3.89341e-06,5.21562e-05,1.57563e-05,-9.96359e-06,1.76164e-05,-1.27016e-05,7
-2.39336e-05,1.31434e-05,-4.18215e-06,5.44274e-05,1.56946e-05,-7.99937e-06,1.84909e-05,2.13887e-05,7
-2.249e-05,1.13649e-05,-6.52684e-06,6.1433e-05,1.38922e-05,-7.04281e-06,1.79682e-05,7.84728e-05,7
-2.27237e-05,1.01151e-05,-1.01317e-05,6.18295e-05,1.24053e-05,-7.30088e-06,1.59477e-05,0.000126538,7
-2.39157e-05,9.78226e-06,-1.27507e-05,5.1007e-05,1.13778e-05,-7.80975e-06,1.41644e-05,0.000148432,7
-2.67292e-05,1.03471e-05,-1.29005e-05,3.72012e-05,1.0836e-05,-8.73422e-06,1.2542e-05,0.000141146,7
-2.98294e-05,1.13764e-05,-8.30553e-06,2.28863e-05,1.24253e-05,-1.03081e-05,1.14448e-05,0.000110399,7
-3.20561e-05,1.34502e-05,-1.50213e-06,2.25703e-06,1.45132e-05,-1.04707e-05,1.26382e-05,6.5547e-05,7
-3.22403e-05,1.57391e-05,1.22661e-06,-2.61239e-05,1.42992e-05,-6.65212e-06,1.31444e-05,2.0425e-05,7
-3.09494e-05,1.74385e-05,-2.17052e-06,-4.82603e-05,1.20245e-05,2.37679e-07,1.15072e-05,-1.66787e-05,7
-2.94236e-05,1.77949e-05,-6.4425e-06,-5.2392e-05,9.5945e-06,3.773e-06,9.2203e-06,-5.03446e-05,7
-2.90598e-05,1.6857e-05,-6.72137e-06,-4.02552e-05,8.11356e-06,1.19275e-06,9.24126e-06,-8.32118e-05,7
-3.01524e-05,1.53996e-05,-3.27456e-06,-2.4182e-05,9.33415e-06,-4.64099e-06,1.04274e-05,-0.000110008,7
-3.07058e-05,1.45997e-05,1.25386e-06,-1.27175e-05,1.35627e-05,-9.77721e-06,1.09804e-05,-0.000115939,7
-3.08297e-05,1.37855e-05,2.67055e-06,-7.63655e-06,1.82461e-05,-1.26785e-05,1.18232e-05,-9.3705e-05,7
-3.13829e-05,1.33439e-05,-1.85299e-07,-4.83258e-06,2.143e-05,-1.39903e-05,1.49028e-05,-5.73222e-05,7
-3.2406e-05,1.32551e-05,-4.29459e-06,-3.27132e-08,2.25185e-05,-1.40211e-05,1.92636e-05,-3.36629e-05,7
-3.31105e-05,1.19911e-05,-7.41439e-06,7.48003e-06,2.03186e-05,-1.31063e-05,2.05127e-05,-2.73234e-05,7
-3.4255e-05,1.03672e-05,-1.05079e-05,1.25768e-05,1.49746e-05,-1.19089e-05,1.67748e-05,-2.57106e-05,7
-3.47043e-05,9.76541e-06,-1.37193e-05,1.18303e-05,9.7627e-06,-1.08118e-05,1.15675e-05,-2.35887e-05,7
-3.4459e-05,1.00634e-05,-1.56398e-05,1.07889e-05,7.32262e-06,-9.66788e-06,9.6361e-06,-2.43146e-05,7
-3.44131e-05,1.13594e-05,-1.4003e-05,1.75909e-05,9.60836e-06,-9.63344e-06,1.2131e-05,-2.75532e-05,7
-3.34624e-05,1.29369e-05,-8.11038e-06,2.80688e-05,1.48231e-05,-9.74137e-06,1.43042e-05,-2.38306e-05,7
-3.30476e-05,1.41058e-05,-7.0736e-07,3.15961e-05,1.78726e-05,-1.06219e-05,1.33449e-05,-7.17033e-06,7
-3.36346e-05,1.52173e-05,4.53513e-06,2.70145e-05,1.5979e-05,-1.22308e-05,1.31896e-05,1.1758e-05,7
-3.40773e-05,1.45316e-05,4.34766e-06,1.74529e-05,1.33042e-05,-1.13566e-05,1.51606e-05,2.38135e-05,7
-3.24201e-05,1.45982e-05,7.25371e-07,6.78606e-06,1.12698e-05,-1.02593e-05,1.63886e-05,3.88807e-05,7
-2.97991e-05,1.63735e-05,-1.96017e-06,-7.43387e-06,6.09479e-06,-1.0772e-05,1.46956e-05,4.81988e-05,7
-2.96592e-05,1.74502e-05,-3.13116e-06,-3.07409e-05,7.68696e-07,-1.18772e-05,1.32047e-05,3.49899e-05,7
-3.16456e-05,1.7999e-05,-3.14536e-06,-5.92353e-05,-1.06255e-06,-1.21366e-05,1.29024e-05,4.63974e-06,7
-3.33891e-05,1.72687e-05,-4.06615e-06,-7.52427e-05,1.34653e-06,-1.0954e-05,1.31473e-05,-3.29182e-05,7
-3.40266e-05,1.63041e-05,-5.83386e-06,-6.90346e-05,4.7232e-06,-9.95396e-06,1.48028e-05,-5.90295e-05,7
-3.41879e-05,1.59239e-05,-7.26816e-06,-4.79346e-05,7.3706e-06,-9.90313e-06,1.65804e-05,-6.05013e-05,7
-3.47616e-05,1.5499e-05,-8.02206e-06,-2.68272e-05,1.04009e-05,-1.06707e-05,1.47324e-05,-3.63091e-05,7
-3.55814e-05,1.48186e-05,-8.04238e-06,-1.44559e-05,1.49753e-05,-1.15766e-05,1.08123e-05,-1.95906e-06,7
-3.52885e-05,1.46045e-05,-8.05756e-06,-1.18437e-05,1.99371e-05,-1.27827e-05,8.2684e-06,2.10777e-05,7
-3.49569e-05,1.52178e-05,-8.6721e-06,-1.39011e-05,2.19415e-05,-1.24877e-05,8.40846e-06,2.56062e-05,7
-3.50842e-05,1.67109e-05,-8.53623e-06,-1.26127e-05,2.11107e-05,-1.07336e-05,1.11884e-05,1.85057e-05,7
-3.59059e-05,1.77899e-05,-7.09841e-06,-7.58247e-06,1.9333e-05,-9.53048e-06,1.30221e-05,1.38533e-05,7
-3.71469e-05,1.80307e-05,-6.34358e-06,-3.734e-06,1.73344e-05,-9.67599e-06,1.16333e-05,1.65518e-05,7
-3.90264e-05,1.86142e-05,-6.63858e-06,-2.99926e-06,1.10346e-05,-1.06265e-05,6.88681e-06,2.13536e-05,7
-4.02739e-05,1.84449e-05,-7.55267e-06,-2.22906e-06,1.24885e-07,-1.15541e-05,1.73221e-06,2.04829e-05,7
-3.94009e-05,1.67715e-05,-6.97762e-06,1.05964e-06,-7.00343e-06,-1.21908e-05,-2.24277e-07,1.55274e-05,7
-3.74938e-05,1.45664e-05,-4.12376e-06,6.20826e-06,-1.75032e-06,-1.20154e-05,1.76657e-06,9.58218e-06,7
-3.56579e-05,1.33359e-05,-5.16136e-07,1.04694e-05,1.47798e-05,-1.08655e-05,4.71519e-06,5.40339e-06,7
-3.4193e-05,1.35828e-05,1.77212e-06,1.2814e-05,3.20997e-05,-1.03202e-05,9.24194e-06,3.45903e-06,7
-3.46201e-05,1.32547e-05,9.99294e-09,1.32169e-05,3.86614e-05,-1.26522e-05,1.61014e-05,1.9765e-06,7
-3.72695e-05,1.04287e-05,-6.6675e-06,9.70085e-06,3.40385e-05,-1.52948e-05,2.05107e-05,-2.4506e-06,7
-3.85882e-05,8.25766e-06,-1.29803e-05,2.24876e-06,2.62668e-05,-1.46093e-05,2.06521e-05,-9.11773e-06,7
-3.74991e-05,7.90938e-06,-1.42528e-05,-3.54891e-06,2.18577e-05,-1.15407e-05,1.93593e-05,-1.31064e-05,7
-3.46955e-05,8.16807e-06,-1.38297e-05,-5.29644e-06,2.07495e-05,-9.66855e-06,1.67313e-05,-1.22062e-05,7
-3.0075e-05,1.00491e-05,-1.3735e-05,-3.22629e-06,2.01492e-05,-7.71183e-06,9.22202e-06,-8.25548e-06,7
-2.69721e-05,1.16116e-05,-1.16482e-05,4.16851e-06,1.84266e-05,-4.35717e-06,4.35863e-06,4.4089e-06,7
-2.84038e-05,1.07631e-05,-1.21411e-05,1.04135e-05,1.48812e-05,-3.33812e-06,9.84631e-06,3.36111e-05,7
-3.17483e-05,8.54479e-06,-1.72715e-05,8.59753e-06,1.23406e-05,-7.09537e-06,1.86962e-05,6.2684e-05,7
-3.28298e-05,7.8986e-06,-2.00766e-05,4.3501e-06,1.12536e-05,-1.02503e-05,2.16352e-05,7.02489e-05,7
-2.94438e-05,1.08737e-05,-1.80033e-05,2.93038e-07,1.03899e-05,-8.8218e-06,1.59718e-05,5.67364e-05,7
-2.61952e-05,1.37947e-05,-1.54458e-05,-3.69145e-06,8.61927e-06,-6.30843e-06,9.63226e-06,3.3074e-05,7
-2.56894e-05,1.46505e-05,-1.42629e-05,-7.50159e-06,7.37452e-06,-4.86504e-06,8.09647e-06,1.06944e-05,7
-2.7453e-05,1.46741e-05,-1.1743e-05,-8.47044e-06,8.60964e-06,-4.71484e-06,9.73348e-06,-2.41974e-06,7
-2.82334e-05,1.5059e-05,-7.85366e-06,-2.41784e-06,1.11052e-05,-4.5266e-06,1.06286e-05,-4.94587e-06,7
-2.83197e-05,1.4606e-05,-4.57617e-06,9.27563e-06,1.32386e-05,-3.72393e-06,1.05164e-05,-1.17612e-07,7
-2.90099e-05,1.27366e-05,-3.29208e-06,2.00444e-05,1.38709e-05,-3.12385e-06,1.21728e-05,6.92715e-06,7
-2.88531e-05,1.14581e-05,-1.87209e-06,2.46908e-05,1.28212e-05,-2.68971e-06,1.587e-05,9.15797e-06,7
-2.84364e-05,1.12835e-05,1.12282e-06,2.50388e-05,1.2068e-05,-3.37462e-06,1.89182e-05,2.83153e-06,7
-2.93466e-05,1.13812e-05,2.98142e-06,2.19911e-05,1.24401e-05,-5.49117e-06,1.89022e-05,-7.55735e-06,7
-3.11186e-05,1.09733e-05,1.24627e-06,1.79682e-05,1.23871e-05,-7.25267e-06,1.87469e-05,-1.7017e-05,7
-3.08112e-05,1.01833e-05,-2.37688e-06,1.41522e-05,1.10685e-05,-7.61994e-06,2.07433e-05,-2.13889e-05,7
-2.99228e-05,9.14859e-06,-4.65248e-06,9.08325e-06,9.94254e-06,-7.39216e-06,2.25406e-05,-1.83606e-05,7
-2.91168e-05,9.31434e-06,-2.9009e-06,2.1584e-06,1.1821e-05,-7.92761e-06,1.9098e-05,-1.0218e-05,7
-2.84208e-05,1.10552e-05,1.6799e-06,-6.83101e-06,1.68709e-05,-9.61678e-06,1.22034e-05,-1.97834e-06,7
-2.78008e-05,1.38433e-05,3.45082e-06,-2.26163e-05,2.24423e-05,-1.07578e-05,7.34411e-06,1.84479e-06,7
-2.81484e-05,1.53727e-05,-7.90045e-07,-4.47987e-05,2.47891e-05,-9.9504e-06,7.2984e-06,-3.8261e-06,7
-2.83675e-05,1.43551e-05,-9.05267e-06,-5.90675e-05,2.08259e-05,-8.18457e-06,9.74896e-06,-1.86053e-05,7
-2.89384e-05,1.18003e-05,-1.66407e-05,-5.10995e-05,1.42738e-05,-6.75553e-06,9.79962e-06,-3.61294e-05,7
-2.94729e-05,9.30672e-06,-2.03878e-05,-2.85499e-05,1.07881e-05,-5.6455e-06,4.41052e-06,-4.83961e-05,7
-2.96841e-05,7.89123e-06,-2.27467e-05,-1.26548e-05,8.38557e-06,-5.01054e-06,-2.71866e-06,-4.88009e-05,7
-3.09215e-05,7.28743e-06,-2.55737e-05,-1.05656e-05,6.00852e-06,-5.34924e-06,-4.46325e-06,-3.07398e-05,7
-3.1157e-05,7.43846e-06,-2.38629e-05,-1.25638e-05,6.31216e-06,-5.94013e-06,2.30006e-06,1.54988e-06,7
-2.83381e-05,8.69301e-06,-1.65809e-05,-8.39084e-06,9.62862e-06,-6.38323e-06,1.16179e-05,3.99919e-05,7
-2.48957e-05,1.05343e-05,-7.43771e-06,8.57081e-07,1.18603e-05,-5.22904e-06,1.57019e-05,8.14302e-05,7
-2.333e-05,1.34889e-05,-1.28742e-06,7.77168e-06,1.05081e-05,-2.73937e-06,1.6063e-05,0.000112709,7
-2.24288e-05,1.52278e-05,-4.16057e-07,1.18845e-05,9.686e-06,-1.79981e-06,1.48256e-05,0.000121855,7
-2.21118e-05,1.4161e-05,-3.93768e-06,1.65201e-05,1.24975e-05,-4.37657e-06,1.28913e-05,0.000102198,7
-2.20603e-05,1.21268e-05,-8.32648e-06,1.92504e-05,1.78676e-05,-8.45881e-06,1.03355e-05,5.45079e-05,7
-2.27994e-05,1.10918e-05,-1.06522e-05,1.76691e-05,2.20651e-05,-9.93858e-06,6.94263e-06,-7.90136e-06,7
-2.47402e-05,1.1846e-05,-1.12006e-05,1.25273e-05,2.21273e-05,-9.16322e-06,4.44187e-06,-6.53803e-05,7
-2.65858e-05,1.21288e-05,-9.47781e-06,6.98704e-06,1.84765e-05,-8.44459e-06,5.51944e-06,-9.76287e-05,7
-2.66512e-05,1.26349e-05,-5.92364e-06,3.6088e-06,1.53144e-05,-8.99245e-06,8.87654e-06,-9.84897e-05,7
-2.55421e-05,1.35662e-05,-1.36894e-06,1.78028e-06,1.62639e-05,-1.05023e-05,1.20429e-05,-8.01736e-05,7
-2.4659e-05,1.3978e-05,2.85949e-06,1.6701e-06,1.94119e-05,-1.16963e-05,1.54508e-05,-6.04872e-05,7
-2.55281e-05,1.2672e-05,5.9951e-06,3.10612e-06,2.05071e-05,-1.26777e-05,1.85906e-05,-4.71515e-05,7
-2.79178e-05,1.10381e-05,9.17045e-06,3.56148e-06,1.8609e-05,-1.33853e-05,2.08912e-05,-3.71589e-05,7
-3.01133e-05,1.12126e-05,1.29461e-05,2.08319e-06,1.69972e-05,-1.31027e-05,2.25718e-05,-2.54665e-05,7
-3.04139e-05,1.34886e-05,1.46525e-05,-2.48346e-06,1.70281e-05,-1.1923e-05,2.18998e-05,-1.17466e-05,7
-2.97784e-05,1.55519e-05,1.20121e-05,-1.00858e-05,1.68953e-05,-1.04759e-05,1.7201e-05,6.55276e-08,7
-3.01751e-05,1.46495e-05,6.03457e-06,-1.76929e-05,1.57475e-05,-8.95929e-06,1.04794e-05,6.55654e-06,7
-3.15039e-05,1.12728e-05,-1.27835e-06,-2.25715e-05,1.46266e-05,-8.58922e-06,6.53115e-06,7.21149e-06,7
-3.3818e-05,7.94962e-06,-7.70908e-06,-2.67377e-05,1.3172e-05,-1.04996e-05,9.27532e-06,5.98273e-06,7
-3.64476e-05,6.53175e-06,-1.03623e-05,-3.01384e-05,1.13003e-05,-1.3504e-05,1.698e-05,5.58267e-06,7
-3.69278e-05,7.07927e-06,-9.6284e-06,-2.79059e-05,1.17268e-05,-1.58928e-05,2.50551e-05,7.6368e-06,7
-3.48552e-05,9.84571e-06,-9.56283e-06,-1.99e-05,1.44625e-05,-1.60218e-05,3.06401e-05,1.06877e-05,7
-3.21599e-05,1.18994e-05,-1.33791e-05,-1.40179e-05,1.54592e-05,-1.38118e-05,3.2595e-05,1.30355e-05,7
-2.99526e-05,1.20396e-05,-1.7494e-05,-1.326e-05,1.30805e-05,-1.10897e-05,3.14272e-05,1.31514e-05,7
-2.96631e-05,1.13742e-05,-1.7734e-05,-1.35579e-05,8.33491e-06,-1.0761e-05,2.88239e-05,1.30413e-05,7
-2.92032e-05,1.12822e-05,-1.45259e-05,-9.7998e-06,5.72311e-06,-9.11913e-06,2.61135e-05,1.6712e-05,7
-2.79815e-05,1.26996e-05,-1.04317e-05,1.70948e-05,9.67557e-06,-4.69133e-06,2.14241e-05,2.05184e-05,7
-2.62933e-05,1.33073e-05,-8.26736e-06,7.49851e-05,1.51782e-05,-4.9646e-06,1.33348e-05,2.23162e-05,7
-2.40594e-05,1.24666e-05,-7.63182e-06,0.000149947,1.78715e-05,-9.66826e-06,6.12947e-06,2.49843e-05,7
-2.33564e-05,1.14949e-05,-6.40296e-06,0.000207867,1.93107e-05,-1.32482e-05,3.32671e-06,2.77749e-05,7
-2.56986e-05,1.00781e-05,-2.22723e-06,0.000207156,1.97047e-05,-1.47942e-05,2.15316e-06,2.87815e-05,7
-2.93701e-05,9.14691e-06,1.31305e-06,0.000140472,1.85239e-05,-1.4292e-05,-2.60823e-07,2.68326e-05,7
-3.10318e-05,9.61074e-06,1.09187e-06,2.37209e-05,1.56468e-05,-1.25224e-05,-2.09625e-06,2.32281e-05,7
-3.16036e-05,9.54099e-06,-1.61218e-06,-0.000110289,1.35302e-05,-1.20934e-05,-2.89526e-06,2.12639e-05,7
-3.17266e-05,7.62977e-06,-3.38596e-06,-0.000216212,1.36053e-05,-1.34691e-05,-2.31903e-06,2.06127e-05,7
-3.11999e-05,6.40099e-06,-3.47969e-06,-0.000244176,1.27846e-05,-1.54359e-05,1.33845e-06,1.91888e-05,7
-2.95681e-05,7.08246e-06,-5.09231e-06,-0.000185278,1.09195e-05,-1.65311e-05,5.53963e-06,1.59524e-05,7
-2.84952e-05,7.53061e-06,-1.03048e-05,-9.27373e-05,8.61168e-06,-1.65558e-05,7.4439e-06,1.24101e-05,7
-2.98566e-05,7.42544e-06,-1.74903e-05,-2.57974e-05,4.98932e-06,-1.54348e-05,8.78518e-06,8.73319e-06,7
-3.13369e-05,7.47796e-06,-2.15547e-05,-5.92364e-06,2.3801e-06,-1.29699e-05,1.13916e-05,5.99711e-06,7
-2.98535e-05,9.57063e-06,-1.9312e-05,-1.98293e-05,6.03182e-06,-9.88554e-06,1.22415e-05,6.60639e-06,7
-2.53653e-05,1.48283e-05,-1.24363e-05,-4.68526e-05,1.35069e-05,-7.2735e-06,9.43273e-06,8.91506e-06,7
-2.1615e-05,1.99272e-05,-6.13112e-06,-7.67434e-05,1.46857e-05,-6.59047e-06,6.68932e-06,9.30461e-06,7
-2.15241e-05,2.01017e-05,-4.42596e-06,-0.000108938,9.03327e-06,-8.73805e-06,7.06415e-06,7.6421e-06,7
-2.38408e-05,1.64893e-05,-7.45076e-06,-0.000128205,4.98587e-06,-1.1484e-05,1.0074e-05,9.74904e-06,7
-2.58881e-05,1.3399e-05,-9.50546e-06,-0.000114935,5.41842e-06,-1.21176e-05,1.44219e-05,2.29391e-05,7
-2.66854e-05,1.29683e-05,-7.04941e-06,-7.29557e-05,6.88125e-06,-1.02038e-05,1.73116e-05,4.09198e-05,7
-2.62657e-05,1.39299e-05,-4.22785e-06,-2.88388e-05,5.81535e-06,-7.07276e-06,1.68107e-05,5.04982e-05,7
-2.46836e-05,1.38546e-05,-4.32752e-06,-1.00077e-06,2.18193e-06,-5.13344e-06,1.66383e-05,5.16506e-05,7
-2.19628e-05,1.34972e-05,-5.50739e-06,1.24363e-05,8.43368e-07,-4.82744e-06,1.91263e-05,4.67037e-05,7
-2.0696e-05,1.48263e-05,-6.77967e-06,2.27045e-05,3.49378e-06,-5.14609e-06,2.0238e-05,3.15868e-05,7
-2.17985e-05,1.80027e-05,-6.67322e-06,3.32234e-05,8.31659e-06,-4.35975e-06,1.82807e-05,2.78493e-06,7
-2.24117e-05,2.12722e-05,-2.88459e-06,4.40725e-05,1.26438e-05,-3.10455e-06,1.48335e-05,-3.87751e-05,7
-2.23897e-05,2.16883e-05,2.0594e-06,5.1466e-05,1.30208e-05,-4.00947e-06,1.08218e-05,-8.03313e-05,7
-2.34474e-05,1.90184e-05,4.49968e-06,5.09343e-05,1.17929e-05,-6.2404e-06,8.40626e-06,-0.000103974,7
-2.43705e-05,1.7773e-05,3.52132e-06,4.51912e-05,1.23909e-05,-7.36776e-06,8.34273e-06,-0.00010216,7
-2.39356e-05,1.73953e-05,-2.4007e-07,3.62289e-05,1.33585e-05,-7.35308e-06,8.53477e-06,-7.98674e-05,7
-2.32454e-05,1.72393e-05,-3.6929e-06,2.64218e-05,1.31895e-05,-6.05078e-06,9.77733e-06,-5.24191e-05,7
-2.44579e-05,1.67014e-05,-6.22886e-06,1.61933e-05,1.22021e-05,-5.32275e-06,1.35528e-05,-3.12317e-05,7
-2.65331e-05,1.57512e-05,-7.95756e-06,9.54187e-06,1.2207e-05,-6.36152e-06,1.8256e-05,-1.68874e-05,7
-2.74896e-05,1.65405e-05,-9.55928e-06,8.71575e-06,1.29498e-05,-7.77522e-06,2.22265e-05,-6.33151e-06,7
-2.84454e-05,1.77758e-05,-1.04917e-05,1.06878e-05,1.39878e-05,-9.26871e-06,2.62005e-05,2.64096e-06,7
-2.98421e-05,1.78155e-05,-1.06029e-05,1.05522e-05,1.58632e-05,-1.03434e-05,3.08076e-05,1.03768e-05,7
-3.05668e-05,1.62588e-05,-1.16146e-05,7.56873e-06,1.7369e-05,-1.10006e-05,3.24507e-05,1.58866e-05,7
-3.00003e-05,1.40819e-05,-1.33687e-05,7.50686e-06,1.69633e-05,-1.1087e-05,2.74331e-05,1.74667e-05,7
-2.92469e-05,1.16469e-05,-1.60619e-05,1.57134e-05,1.45197e-05,-1.1059e-05,1.7389e-05,1.53664e-05,7
-2.96854e-05,1.03824e-05,-1.90634e-05,2.64685e-05,1.25063e-05,-1.14978e-05,7.66567e-06,1.13831e-05,7
-3.12922e-05,1.02704e-05,-2.10402e-05,2.9467e-05,1.27637e-05,-1.2215e-05,1.9091e-06,8.10935e-06,7
-3.1969e-05,1.03669e-05,-2.01395e-05,2.37347e-05,1.37951e-05,-1.27855e-05,2.55247e-07,5.9147e-06,7
-3.08529e-05,9.83164e-06,-1.75259e-05,1.53408e-05,1.41444e-05,-1.26349e-05,1.42041e-06,3.02917e-06,7
-2.93661e-05,8.70473e-06,-1.48161e-05,7.88262e-06,1.40071e-05,-1.21047e-05,4.10635e-06,-2.45053e-06,7
-2.8286e-05,8.22411e-06,-1.06445e-05,2.45745e-06,1.16438e-05,-1.27061e-05,7.57834e-06,-9.34488e-06,7
-2.74757e-05,9.66883e-06,-1.57404e-06,2.39542e-06,7.96719e-06,-1.39355e-05,1.19932e-05,-1.48665e-05,7
-2.67305e-05,1.20032e-05,9.51103e-06,6.2783e-06,7.71317e-06,-1.39242e-05,1.58375e-05,-1.86502e-05,7
-2.63343e-05,1.34115e-05,1.39969e-05,6.3522e-06,1.14586e-05,-1.19037e-05,1.7433e-05,-2.12853e-05,7
-2.65507e-05,1.44162e-05,7.55324e-06,5.24478e-07,1.40437e-05,-8.58703e-06,1.56977e-05,-2.19656e-05,7
-2.6798e-05,1.51608e-05,-2.25666e-06,-6.33879e-06,1.29526e-05,-6.60779e-06,1.03502e-05,-1.91827e-05,7
-2.80113e-05,1.43699e-05,-6.89789e-06,-1.01498e-05,1.21625e-05,-8.06001e-06,5.66377e-06,-1.52233e-05,7
-2.86514e-05,1.31369e-05,-6.87916e-06,-1.06102e-05,1.27705e-05,-1.07406e-05,7.3638e-06,-1.27726e-05,7
-2.74823e-05,1.12826e-05,-6.03111e-06,-9.72504e-06,1.3569e-05,-1.1596e-05,1.44865e-05,-7.93364e-06,7
-2.68665e-05,9.29342e-06,-6.31673e-06,-8.25747e-06,1.54945e-05,-1.15691e-05,2.05209e-05,5.63735e-06,7
-2.87621e-05,1.02533e-05,-7.04625e-06,-7.1893e-06,1.70765e-05,-1.04533e-05,2.30828e-05,2.29041e-05,7
-3.1138e-05,1.24368e-05,-8.14594e-06,-7.37681e-06,1.45498e-05,-7.56721e-06,2.22818e-05,4.58425e-05,7
-3.02077e-05,1.30572e-05,-7.76154e-06,-6.47296e-06,8.30251e-06,-6.79581e-06,1.96345e-05,7.4521e-05,7
-2.87721e-05,1.15965e-05,-5.56391e-06,-7.45548e-07,5.40639e-06,-8.89706e-06,1.66214e-05,9.36686e-05,7
-2.93035e-05,1.04637e-05,-3.80787e-06,9.30997e-06,7.02359e-06,-1.11368e-05,1.31796e-05,9.95511e-05,7
-3.09903e-05,9.43552e-06,-3.22835e-06,2.03671e-05,1.20372e-05,-1.21262e-05,1.13708e-05,9.3491e-05,7
-3.2183e-05,8.90078e-06,-3.10062e-06,2.71539e-05,1.91787e-05,-1.17265e-05,1.23508e-05,8.19592e-05,7
-3.34617e-05,9.05426e-06,-4.19512e-06,2.77575e-05,2.31759e-05,-1.14238e-05,1.48079e-05,6.5102e-05,7
-3.55375e-05,9.34255e-06,-7.698e-06,2.18265e-05,2.21133e-05,-1.08764e-05,1.54608e-05,3.67428e-05,7
-3.62385e-05,1.05474e-05,-1.21455e-05,5.63287e-06,1.88368e-05,-1.00849e-05,1.09199e-05,-4.93633e-06,7
-3.50367e-05,1.08088e-05,-1.54325e-05,-2.02057e-05,1.72653e-05,-8.80507e-06,3.23466e-06,-4.92258e-05,7
-3.31631e-05,1.03192e-05,-1.58361e-05,-4.60898e-05,1.67127e-05,-7.67132e-06,-2.00438e-08,-7.70513e-05,7
-3.24781e-05,1.06177e-05,-1.23568e-05,-5.80687e-05,1.48288e-05,-7.40034e-06,4.57166e-06,-8.64061e-05,7
-3.33379e-05,1.2373e-05,-7.42303e-06,-5.12313e-05,1.08832e-05,-7.7936e-06,1.29097e-05,-9.04714e-05,7
-3.55068e-05,1.37938e-05,-5.43713e-06,-3.34184e-05,8.9073e-06,-9.20265e-06,1.86048e-05,-9.82664e-05,7
-3.78098e-05,1.3894e-05,-6.75194e-06,-1.79953e-05,1.1293e-05,-1.06954e-05,1.87773e-05,-0.000104774,7
-3.95167e-05,1.32318e-05,-8.0153e-06,-1.28512e-05,1.47998e-05,-1.12286e-05,1.52725e-05,-0.000104774,7
-4.01892e-05,1.34898e-05,-7.69825e-06,-1.63772e-05,1.61507e-05,-1.07012e-05,1.27628e-05,-9.56831e-05,7
-3.92617e-05,1.45667e-05,-7.1802e-06,-2.03604e-05,1.69092e-05,-9.60338e-06,1.26167e-05,-7.85673e-05,7
-3.80346e-05,1.43868e-05,-7.06498e-06,-1.85259e-05,1.86972e-05,-9.3929e-06,1.04951e-05,-5.9362e-05,7
-3.7458e-05,1.31376e-05,-5.7938e-06,-1.17451e-05,2.01317e-05,-1.13327e-05,5.44034e-06,-4.49433e-05,7
-3.7512e-05,1.18036e-05,-2.91197e-06,-2.66446e-06,2.00002e-05,-1.34048e-05,1.51774e-06,-3.61713e-05,7
-3.82292e-05,1.24015e-05,-9.44833e-07,2.73509e-06,1.87715e-05,-1.58743e-05,2.41287e-06,-3.17743e-05,7
-3.88947e-05,1.29462e-05,-4.76317e-06,-5.81532e-07,1.67191e-05,-1.61065e-05,7.65876e-06,-2.95354e-05,7
-3.85304e-05,1.14219e-05,-1.35945e-05,-9.23983e-06,1.31106e-05,-1.29911e-05,9.8754e-06,-2.55187e-05,7
-3.67241e-05,1.05528e-05,-1.7601e-05,-1.48672e-05,1.01442e-05,-8.86992e-06,6.04434e-06,-2.00726e-05,7
-3.40753e-05,1.27005e-05,-1.29687e-05,-1.25065e-05,8.132e-06,-3.76624e-06,2.36376e-06,-1.55875e-05,7
-3.15384e-05,1.49989e-05,-7.63169e-06,-6.06265e-06,7.25743e-06,-1.50484e-06,1.73711e-06,-1.05543e-05,7
-2.94011e-05,1.45808e-05,-4.96517e-06,1.29503e-06,8.93741e-06,-2.69284e-06,4.12893e-06,-3.19885e-06,7
-2.76836e-05,1.3568e-05,-2.10536e-06,8.08761e-06,1.21401e-05,-5.70355e-06,7.69395e-06,8.66059e-06,7
-2.84062e-05,1.21908e-05,6.3141e-07,1.11345e-05,1.32916e-05,-8.30102e-06,1.09417e-05,2.71946e-05,7
-3.08537e-05,1.1238e-05,1.6185e-06,9.23698e-06,1.11509e-05,-8.93622e-06,1.16635e-05,4.85371e-05,7
-3.19565e-05,1.16096e-05,-7.61302e-07,3.973e-06,7.27549e-06,-8.66998e-06,8.12479e-06,5.93891e-05,7
-3.18997e-05,1.27125e-05,-6.06536e-06,3.37633e-07,4.88742e-06,-8.5498e-06,3.71959e-06,5.56542e-05,7
-2.97375e-05,1.33125e-05,-8.66946e-06,1.96762e-06,6.41328e-06,-8.12078e-06,3.10758e-06,5.32146e-05,7
-2.72884e-05,1.35586e-05,-6.69287e-06,6.76864e-06,9.60059e-06,-7.58432e-06,7.70124e-06,5.76509e-05,7
-2.59289e-05,1.46349e-05,-3.59683e-06,9.31277e-06,1.0858e-05,-7.75592e-06,1.38721e-05,5.82994e-05,7
-2.60491e-05,1.50944e-05,-3.87996e-06,8.95922e-06,1.00177e-05,-8.92022e-06,1.76123e-05,4.74055e-05,7
-2.68976e-05,1.48204e-05,-6.76079e-06,7.44892e-06,9.77375e-06,-1.11168e-05,1.68334e-05,2.9977e-05,7
-2.71871e-05,1.47191e-05,-9.3222e-06,5.93246e-06,1.08039e-05,-1.14182e-05,1.38341e-05,1.71174e-05,7
-2.66514e-05,1.50636e-05,-1.09044e-05,6.31649e-06,1.20389e-05,-8.8671e-06,1.13774e-05,1.83361e-05,7
-2.60065e-05,1.54275e-05,-1.00739e-05,9.70674e-06,1.17904e-05,-5.62197e-06,1.16799e-05,3.24373e-05,7
-2.70512e-05,1.49526e-05,-8.21946e-06,1.38247e-05,9.56067e-06,-4.73346e-06,1.43857e-05,4.83984e-05,7
-2.86492e-05,1.28634e-05,-7.5643e-06,1.66457e-05,8.5688e-06,-6.43116e-06,1.59863e-05,5.67251e-05,7
-2.91765e-05,1.1787e-05,-7.96113e-06,1.98658e-05,1.21835e-05,-8.79156e-06,1.62331e-05,5.38644e-05,7
-2.93563e-05,1.28867e-05,-7.10817e-06,2.36926e-05,1.76186e-05,-1.05548e-05,1.66398e-05,3.94151e-05,7
-3.05267e-05,1.43891e-05,-6.40926e-06,2.39414e-05,2.15788e-05,-1.11171e-05,1.66602e-05,2.07264e-05,7
-3.13305e-05,1.57107e-05,-7.04042e-06,1.89677e-05,2.32265e-05,-8.89751e-06,1.46381e-05,5.02019e-06,7
-3.14386e-05,1.67567e-05,-6.62012e-06,1.18628e-05,1.91013e-05,-5.02742e-06,9.25827e-06,-8.57278e-06,7
-3.03166e-05,1.84003e-05,-3.80881e-06,2.78333e-06,1.01104e-05,-2.87603e-06,3.9529e-07,-1.88208e-05,7
-2.97216e-05,1.96948e-05,-2.77334e-06,-9.95975e-06,3.6264e-06,-3.57068e-06,-7.10315e-06,-2.16682e-05,7
-3.05949e-05,1.90036e-05,-4.4071e-06,-2.61063e-05,4.32542e-06,-5.43116e-06,-1.11916e-05,-1.67323e-05,7
-3.19054e-05,1.83612e-05,-6.54725e-06,-4.22653e-05,1.40463e-05,-7.40301e-06,-1.21626e-05,-6.8374e-06,7
-3.31069e-05,1.78851e-05,-8.59672e-06,-4.90011e-05,2.76603e-05,-9.16001e-06,-8.83547e-06,2.61058e-06,7
-3.26587e-05,1.59314e-05,-8.64417e-06,-4.14612e-05,3.51902e-05,-8.98539e-06,-2.79677e-06,7.48221e-06,7
-3.03047e-05,1.41568e-05,-7.2871e-06,-2.52597e-05,3.38424e-05,-7.62987e-06,3.2741e-06,7.49774e-06,7
-2.9172e-05,1.33067e-05,-4.99761e-06,-9.61916e-06,2.81672e-05,-7.65732e-06,8.45051e-06,-6.70323e-07,7
-3.03101e-05,1.21756e-05,-1.9927e-06,-1.68295e-06,2.28396e-05,-9.91688e-06,1.51463e-05,-1.06525e-05,7
-3.12969e-05,1.05702e-05,8.67829e-07,3.46408e-06,1.83166e-05,-1.19274e-05,2.04349e-05,-1.28742e-05,7
-3.1682e-05,1.04588e-05,2.55479e-06,8.30859e-06,1.37725e-05,-1.33769e-05,2.14626e-05,-9.58083e-06,7
-3.13282e-05,1.07843e-05,2.18271e-06,1.03517e-05,9.89573e-06,-1.45531e-05,2.09098e-05,-3.80609e-06,7
-2.97527e-05,1.16319e-05,1.41898e-06,7.65632e-06,1.06286e-05,-1.58761e-05,1.95282e-05,6.52677e-06,7
-2.84602e-05,1.30928e-05,1.57618e-06,1.55281e-09,1.54125e-05,-1.61336e-05,1.55707e-05,2.16693e-05,7
-2.95457e-05,1.46329e-05,-1.77255e-06,-1.06744e-05,1.79117e-05,-1.54054e-05,1.13456e-05,3.16283e-05,7
-3.17747e-05,1.56577e-05,-1.01194e-05,-2.18684e-05,1.50228e-05,-1.46883e-05,1.30141e-05,2.12505e-05,7
-3.3212e-05,1.54263e-05,-1.68928e-05,-2.54273e-05,1.15e-05,-1.31415e-05,2.00863e-05,-1.10425e-05,7
-3.24767e-05,1.60384e-05,-1.52893e-05,-1.5629e-05,1.17057e-05,-1.06618e-05,2.43922e-05,-5.18734e-05,7
-2.9653e-05,1.7891e-05,-7.7035e-06,1.00867e-06,1.21398e-05,-7.61729e-06,1.89967e-05,-8.28963e-05,7
-2.60687e-05,1.89491e-05,-1.52486e-06,9.89041e-06,1.03649e-05,-6.17462e-06,9.2763e-06,-8.998e-05,7
-2.39555e-05,1.71412e-05,-1.92992e-07,7.21859e-06,9.19692e-06,-7.2575e-06,5.36163e-06,-7.16693e-05,7
-2.45285e-05,1.473e-05,-2.15218e-06,1.52082e-06,1.00252e-05,-9.23761e-06,8.0788e-06,-4.16054e-05,7
-2.63572e-05,1.33163e-05,-4.50989e-06,1.0424e-06,1.0088e-05,-9.36973e-06,1.13519e-05,-1.75997e-05,7
-2.75629e-05,1.18643e-05,-6.55986e-06,4.14027e-06,8.16857e-06,-8.18537e-06,1.33881e-05,-5.12827e-06,7
-2.85154e-05,1.08226e-05,-9.13817e-06,4.71185e-06,6.15145e-06,-6.64464e-06,1.68821e-05,6.02114e-07,7
-2.98395e-05,1.0452e-05,-1.21973e-05,1.44874e-06,6.54246e-06,-6.3208e-06,2.29923e-05,4.9501e-06,7
-3.10043e-05,9.20234e-06,-1.3e-05,-2.88706e-06,6.81797e-06,-7.68303e-06,2.84963e-05,1.07419e-05,7
-3.15754e-05,6.9818e-06,-1.08843e-05,-7.03191e-06,5.1247e-06,-9.48234e-06,3.15627e-05,1.6988e-05,7
-3.15909e-05,5.31589e-06,-9.04294e-06,-1.03281e-05,3.26746e-06,-1.20605e-05,3.25002e-05,1.99114e-05,7
-3.22713e-05,5.99897e-06,-1.05621e-05,-1.0769e-05,3.12334e-06,-1.37498e-05,3.06762e-05,2.06176e-05,7
-3.30415e-05,7.7532e-06,-1.41987e-05,-1.06987e-05,7.22956e-06,-1.50067e-05,2.12602e-05,2.14921e-05,7
-3.0981e-05,7.99354e-06,-1.70329e-05,-1.25177e-05,1.15817e-05,-1.53544e-05,6.32449e-06,2.30927e-05,7
-2.75947e-05,8.6969e-06,-1.67669e-05,-1.04877e-05,1.40662e-05,-1.32757e-05,-5.11113e-06,2.53653e-05,7
-2.75805e-05,1.06005e-05,-1.37029e-05,-6.73234e-07,1.77512e-05,-1.04847e-05,-1.34582e-05,2.62901e-05,7
-2.97665e-05,1.20146e-05,-9.65987e-06,1.13943e-05,2.19261e-05,-9.37618e-06,-1.7608e-05,2.38603e-05,7
-3.20614e-05,1.12908e-05,-5.86387e-06,1.72443e-05,2.42162e-05,-9.8429e-06,-1.72297e-05,1.93064e-05,7
-3.43302e-05,8.75609e-06,-4.9555e-06,1.45601e-05,2.32983e-05,-8.67815e-06,-1.2515e-05,1.58351e-05,7
-3.44554e-05,7.12101e-06,-9.37469e-06,5.6743e-06,2.00172e-05,-7.1626e-06,-5.50724e-06,1.43902e-05,7
-3.28096e-05,5.71716e-06,-1.57982e-05,-5.6892e-06,1.66602e-05,-7.07471e-06,-7.14788e-08,1.30102e-05,7
-3.06026e-05,5.16847e-06,-1.67262e-05,-1.3004e-05,1.55945e-05,-9.26399e-06,4.50441e-06,1.3107e-05,7
-2.77119e-05,6.53547e-06,-1.02212e-05,-1.37454e-05,1.54558e-05,-1.21123e-05,9.48424e-06,1.77297e-05,7
-2.66157e-05,8.62876e-06,-2.00231e-06,-1.34912e-05,1.47606e-05,-1.38292e-05,1.45722e-05,2.46612e-05,7
-2.73712e-05,9.66763e-06,1.49843e-06,-1.99195e-05,1.47366e-05,-1.42217e-05,1.91175e-05,2.85027e-05,7
-2.81897e-05,9.77546e-06,-3.92458e-07,-2.93881e-05,1.66044e-05,-1.35643e-05,2.09723e-05,2.64663e-05,7
-2.80851e-05,1.12517e-05,-3.30212e-06,-3.18235e-05,1.92982e-05,-1.08772e-05,1.93531e-05,1.98708e-05,7
-2.79683e-05,1.39318e-05,-1.75876e-06,-2.55885e-05,2.04246e-05,-5.92648e-06,1.7706e-05,1.19034e-05,7
-2.81522e-05,1.49098e-05,3.87942e-06,-1.68265e-05,2.03625e-05,-2.41595e-06,1.71042e-05,4.9858e-06,7
-2.79737e-05,1.30116e-05,8.37912e-06,-8.94127e-06,2.0979e-05,-1.45721e-06,1.54021e-05,5.4249e-07,7
-2.78395e-05,1.10643e-05,7.83752e-06,-4.94229e-06,2.16462e-05,-2.27794e-06,1.27465e-05,-8.49184e-08,7
-2.78866e-05,1.08323e-05,1.89763e-06,-8.84541e-06,1.96231e-05,-2.51657e-06,1.26854e-05,5.40676e-06,7
-2.85106e-05,1.18203e-05,-6.71451e-06,-1.85906e-05,1.50434e-05,-1.9741e-06,1.57859e-05,1.67332e-05,7
-2.89119e-05,1.16035e-05,-1.29022e-05,-2.44888e-05,1.18063e-05,-1.87024e-06,2.04164e-05,2.20936e-05,7
-2.98825e-05,1.08035e-05,-1.31858e-05,-1.94758e-05,1.18014e-05,-3.68345e-06,2.53763e-05,1.27612e-05,7
-3.16766e-05,1.13948e-05,-9.83396e-06,-1.44351e-06,1.1955e-05,-6.17279e-06,2.96069e-05,-5.34658e-06,7
-3.2557e-05,1.16236e-05,-7.51975e-06,2.18885e-05,8.89017e-06,-8.23269e-06,3.29952e-05,-2.10466e-05,7
-3.23292e-05,1.04367e-05,-5.71371e-06,3.55284e-05,3.61096e-06,-1.0286e-05,3.86493e-05,-2.78551e-05,7
-3.12576e-05,9.92855e-06,-3.16627e-06,3.62417e-05,2.54306e-06,-1.12489e-05,4.3061e-05,-2.75794e-05,7
-2.73331e-05,1.15294e-05,-1.39598e-06,2.29042e-05,1.18527e-05,-8.78546e-06,3.70483e-05,-2.49947e-05,7
-2.43283e-05,1.31411e-05,1.23502e-06,-2.36658e-06,2.89388e-05,-4.61569e-06,2.30974e-05,-2.23112e-05,7
-2.65754e-05,1.39095e-05,3.96072e-06,-2.79749e-05,3.9302e-05,-2.48355e-06,1.35149e-05,-2.0305e-05,7
-3.12502e-05,1.42094e-05,3.15201e-06,-2.81333e-05,3.43e-05,-3.79036e-06,9.1481e-06,-1.81573e-05,7
-3.52994e-05,1.19022e-05,-2.43864e-06,4.75272e-06,1.81123e-05,-8.12345e-06,4.91052e-06,-1.17461e-05,7
-3.70796e-05,9.97782e-06,-7.75055e-06,4.64073e-05,3.30762e-06,-1.10011e-05,-1.26702e-07,1.1857e-06,7
-3.59715e-05,1.09449e-05,-7.46629e-06,7.17994e-05,4.02256e-07,-1.01247e-05,-4.52515e-06,1.29012e-05,7
-3.22579e-05,1.39211e-05,-3.59559e-06,6.04185e-05,6.43111e-06,-7.41864e-06,-3.11464e-06,1.66135e-05,7
-2.89518e-05,1.68537e-05,-4.55529e-07,1.09639e-05,1.31649e-05,-6.52345e-06,3.93635e-06,1.42118e-05,7
-2.79222e-05,1.87235e-05,-5.61274e-07,-6.17614e-05,1.42993e-05,-6.75451e-06,1.16327e-05,8.34012e-06,7
-2.85702e-05,1.83115e-05,-3.83919e-06,-0.000130745,1.09275e-05,-7.29634e-06,1.57874e-05,1.19164e-06,7
-2.93771e-05,1.57317e-05,-7.21517e-06,-0.000164853,8.76327e-06,-8.32824e-06,1.69505e-05,-6.23979e-06,7
-2.9319e-05,1.37884e-05,-8.40256e-06,-0.000147431,1.09043e-05,-9.2531e-06,1.75022e-05,-1.28532e-05,7
-2.83898e-05,1.3108e-05,-7.66909e-06,-9.71356e-05,1.53638e-05,-9.68798e-06,1.895e-05,-1.57151e-05,7
-2.7558e-05,1.33112e-05,-6.94867e-06,-4.93531e-05,1.89091e-05,-9.41553e-06,2.13367e-05,-1.14485e-05,7
-2.76202e-05,1.33947e-05,-7.71683e-06,-2.03607e-05,1.90032e-05,-9.13722e-06,2.31937e-05,-8.85678e-07,7
-2.80982e-05,1.36764e-05,-8.82466e-06,-5.89271e-06,1.68823e-05,-8.99614e-06,2.43484e-05,9.51449e-06,7
-2.86935e-05,1.31193e-05,-8.199e-06,4.92151e-06,1.61321e-05,-9.52865e-06,2.73911e-05,1.50701e-05,7
-2.93805e-05,1.27155e-05,-6.16207e-06,1.67656e-05,1.71949e-05,-1.01818e-05,3.22164e-05,2.17126e-05,7
-2.99168e-05,1.37511e-05,-5.45129e-06,2.9114e-05,1.77829e-05,-9.59677e-06,3.37436e-05,4.25663e-05,7
-3.04976e-05,1.53683e-05,-6.89664e-06,3.66504e-05,1.61712e-05,-7.45453e-06,2.98234e-05,7.16562e-05,7
-3.17294e-05,1.41882e-05,-1.06162e-05,3.61171e-05,1.2839e-05,-7.0639e-06,2.31847e-05,8.20527e-05,7
-3.35521e-05,1.18276e-05,-1.53361e-05,2.83467e-05,9.59838e-06,-9.49107e-06,1.66688e-05,7.08635e-05,7
-3.58659e-05,1.16414e-05,-1.71495e-05,2.16789e-05,8.31095e-06,-1.26862e-05,9.08484e-06,5.56462e-05,7
-3.77217e-05,1.24984e-05,-1.5492e-05,2.14286e-05,7.81864e-06,-1.74758e-05,1.53947e-06,3.6185e-05,7
-3.90388e-05,1.26649e-05,-1.40636e-05,2.08734e-05,6.30713e-06,-2.19016e-05,-2.63776e-06,3.65211e-06,7
-3.9171e-05,1.25248e-05,-1.47204e-05,1.39239e-05,4.78792e-06,-2.19194e-05,-4.21152e-06,-3.5343e-05,7
-3.90541e-05,1.29151e-05,-1.89375e-05,1.58985e-06,5.99769e-06,-1.70625e-05,-4.87752e-06,-7.0311e-05,7
-3.83671e-05,1.42466e-05,-2.05984e-05,-7.58922e-06,1.02329e-05,-1.14454e-05,-5.15152e-06,-9.36405e-05,7
-3.5772e-05,1.6726e-05,-1.33104e-05,-4.23637e-06,1.53437e-05,-7.62994e-06,-1.2851e-06,-0.00010349,7
-3.23652e-05,1.76196e-05,-3.64502e-06,6.27445e-06,1.71243e-05,-5.12645e-06,6.21426e-06,-0.000100125,7
-2.89801e-05,1.58268e-05,1.14207e-06,1.22103e-05,1.33743e-05,-3.93682e-06,1.14873e-05,-8.01408e-05,7
-2.66146e-05,1.32266e-05,1.06916e-06,8.73062e-06,1.01947e-05,-3.1811e-06,1.20729e-05,-5.17119e-05,7
-2.64659e-05,1.16838e-05,4.81931e-07,2.83872e-06,1.20314e-05,-4.83613e-06,1.00109e-05,-2.66562e-05,7
-2.87041e-05,1.07863e-05,4.36667e-07,1.51051e-06,1.77198e-05,-8.29689e-06,8.35476e-06,-1.32989e-05,7
-3.13266e-05,1.13426e-05,5.07513e-07,4.13871e-06,2.30885e-05,-1.17692e-05,8.42933e-06,1.02537e-06,7
-3.29205e-05,1.23518e-05,-5.8634e-07,1.56919e-05,2.50349e-05,-1.30943e-05,9.89094e-06,3.3245e-05,7
-3.16645e-05,1.35042e-05,-3.3153e-06,3.89212e-05,2.50294e-05,-1.09408e-05,1.09983e-05,7.56746e-05,7
-2.78027e-05,1.53963e-05,-6.01525e-06,6.12543e-05,2.33397e-05,-8.08655e-06,1.18475e-05,0.000107603,7
-2.41184e-05,1.6859e-05,-8.68443e-06,6.74226e-05,2.02368e-05,-6.39469e-06,1.22395e-05,0.000121915,7
-2.28054e-05,1.73626e-05,-1.10931e-05,5.32199e-05,1.59345e-05,-6.54503e-06,1.14147e-05,0.000124419,7
-2.30555e-05,1.59609e-05,-1.21544e-05,2.53996e-05,9.95419e-06,-8.45171e-06,9.72732e-06,0.000115681,7
-2.29801e-05,1.40708e-05,-1.15137e-05,-8.50301e-06,3.46484e-06,-1.07039e-05,1.0676e-05,8.97214e-05,7
-2.2792e-05,1.30901e-05,-9.26745e-06,-4.13934e-05,6.89788e-08,-1.18795e-05,1.57403e-05,4.05196e-05,7
-2.37191e-05,1.22227e-05,-7.58913e-06,-6.03389e-05,1.10974e-06,-1.25716e-05,2.09547e-05,-2.42469e-05,7
-2.58885e-05,1.04177e-05,-9.76612e-06,-5.74127e-05,4.52851e-06,-1.25553e-05,2.20561e-05,-8.39082e-05,7
-2.73237e-05,8.92658e-06,-1.40795e-05,-3.93221e-05,7.17942e-06,-1.22223e-05,1.80463e-05,-0.00011461,7
-2.70715e-05,9.27016e-06,-1.65924e-05,-2.33499e-05,7.59023e-06,-1.15087e-05,1.13069e-05,-0.000112818,7
-2.58809e-05,9.76477e-06,-1.63613e-05,-1.82856e-05,6.69368e-06,-1.11642e-05,7.6779e-06,-9.75927e-05,7
-2.56067e-05,9.07499e-06,-1.4067e-05,-1.96542e-05,6.47594e-06,-1.23977e-05,1.13504e-05,-9.02485e-05,7
-2.73844e-05,8.42693e-06,-1.11712e-05,-1.80796e-05,7.01823e-06,-1.42264e-05,1.88917e-05,-9.53988e-05,7
-2.93075e-05,7.83945e-06,-9.23126e-06,-8.16552e-06,7.55578e-06,-1.47958e-05,2.2457e-05,-0.000101218,7
-2.96155e-05,8.94996e-06,-7.6551e-06,5.80282e-06,9.10612e-06,-1.32781e-05,2.10904e-05,-9.31583e-05,7
-2.79982e-05,1.25804e-05,-5.09006e-06,1.34125e-05,1.14176e-05,-9.97072e-06,1.64329e-05,-7.09487e-05,7
-2.6358e-05,1.45717e-05,-8.35618e-07,1.01893e-05,1.43354e-05,-6.2327e-06,8.52803e-06,-3.71982e-05,7
-2.71343e-05,1.42324e-05,9.91905e-07,3.86343e-06,1.42977e-05,-3.87765e-06,3.51151e-06,2.55034e-06,7
-2.92773e-05,1.338e-05,-3.12124e-06,-2.68208e-07,1.30274e-05,-5.0111e-06,2.46318e-06,3.04396e-05,7
-3.13406e-05,1.32223e-05,-1.07655e-05,-4.59196e-06,1.47825e-05,-8.25956e-06,1.95474e-06,3.69154e-05,7
-3.2279e-05,1.30598e-05,-1.48804e-05,-5.32432e-06,1.68295e-05,-1.14842e-05,2.16473e-06,2.59274e-05,7
-3.28332e-05,1.19724e-05,-1.08061e-05,-1.60676e-06,1.66929e-05,-1.34362e-05,4.31607e-06,7.1543e-06,7
-3.35572e-05,1.21526e-05,-2.64732e-06,7.1832e-07,1.53949e-05,-1.27695e-05,7.94603e-06,-9.28562e-06,7
-3.35322e-05,1.41311e-05,1.91643e-06,-3.11021e-06,1.3912e-05,-1.11791e-05,1.2012e-05,-1.85411e-05,7
-3.38653e-05,1.47975e-05,-2.90387e-06,-1.00087e-05,1.13223e-05,-8.96132e-06,1.41351e-05,-2.32739e-05,7
-3.54798e-05,1.3358e-05,-1.14285e-05,-1.27456e-05,8.8289e-06,-7.92085e-06,1.35426e-05,-2.61584e-05,7
-3.61198e-05,1.25619e-05,-1.47332e-05,-1.09014e-05,8.87345e-06,-9.47182e-06,1.34577e-05,-2.8744e-05,7
-3.48931e-05,1.3028e-05,-1.41451e-05,-1.03973e-05,1.10512e-05,-1.19254e-05,1.50627e-05,-2.87223e-05,7
-3.37101e-05,1.18823e-05,-1.44852e-05,-1.27277e-05,1.21112e-05,-1.35305e-05,1.89824e-05,-2.41069e-05,7
-3.28669e-05,9.67629e-06,-1.43176e-05,-1.31495e-05,1.4065e-05,-1.46876e-05,2.48781e-05,-1.57873e-05,7
-3.22166e-05,9.43571e-06,-1.20336e-05,-1.20116e-05,1.76829e-05,-1.51414e-05,3.00482e-05,-7.16761e-06,7
-3.18285e-05,1.08003e-05,-9.34534e-06,-1.17816e-05,1.95472e-05,-1.43956e-05,3.15604e-05,1.20924e-06,7
-3.11729e-05,1.20061e-05,-7.02007e-06,-1.25397e-05,1.79533e-05,-1.25953e-05,2.91031e-05,1.53272e-05,7
-2.91125e-05,1.20516e-05,-5.12044e-06,-1.1967e-05,1.53809e-05,-9.8609e-06,2.37607e-05,4.21599e-05,7
-2.60999e-05,1.16231e-05,-4.79e-06,-9.36242e-06,1.42473e-05,-6.96001e-06,1.81671e-05,7.56538e-05,7
-2.46149e-05,1.14661e-05,-5.67195e-06,-3.05593e-06,1.29e-05,-5.03363e-06,1.70649e-05,9.69783e-05,7
-2.6738e-05,1.10196e-05,-5.30818e-06,5.34657e-06,1.1582e-05,-5.3202e-06,2.1734e-05,9.67409e-05,7
-2.98142e-05,1.02335e-05,-3.26528e-06,1.23909e-05,1.18435e-05,-5.97245e-06,2.76266e-05,8.13362e-05,7
-2.9506e-05,1.15305e-05,-2.84825e-07,1.63516e-05,1.25898e-05,-5.26657e-06,2.91083e-05,5.57316e-05,7
-2.72607e-05,1.4649e-05,1.42543e-06,1.5948e-05,1.08987e-05,-5.42986e-06,2.62488e-05,2.2341e-05,7
-2.6297e-05,1.6856e-05,1.00015e-06,1.16838e-05,8.72497e-06,-6.30252e-06,1.96653e-05,-8.98615e-06,7
-2.61171e-05,1.73111e-05,-1.47384e-06,5.98512e-06,9.25597e-06,-6.55041e-06,8.86109e-06,-3.15952e-05,7
-2.63833e-05,1.68243e-05,-4.07704e-06,-1.80323e-06,1.2343e-05,-8.02844e-06,2.56905e-07,-4.4073e-05,7
-2.86784e-05,1.49752e-05,-5.11582e-06,-1.81894e-05,1.6231e-05,-9.89008e-06,-3.38319e-06,-4.25454e-05,7
-3.10393e-05,1.22006e-05,-6.71868e-06,-3.94589e-05,1.7457e-05,-1.10025e-05,-1.83445e-06,-2.77916e-05,7
-3.17932e-05,1.0517e-05,-8.51547e-06,-4.95866e-05,1.73839e-05,-1.11071e-05,3.72706e-06,-1.20526e-05,7
-3.14342e-05,1.02639e-05,-9.14113e-06,-4.27871e-05,1.79082e-05,-1.19004e-05,7.58115e-06,-3.50517e-06,7
-3.12401e-05,1.17772e-05,-8.7834e-06,-2.69789e-05,1.66417e-05,-1.26433e-05,1.17516e-05,3.2716e-06,7
-3.09209e-05,1.38188e-05,-9.0375e-06,-1.34888e-05,1.50895e-05,-1.19385e-05,1.43294e-05,1.75476e-05,7
-3.05159e-05,1.50569e-05,-1.04897e-05,-7.03637e-06,1.44228e-05,-1.09002e-05,1.33383e-05,3.50226e-05,7
-3.10337e-05,1.40564e-05,-1.05167e-05,-4.00337e-06,1.55836e-05,-9.69914e-06,1.22976e-05,4.97692e-05,7
-3.03189e-05,1.2074e-05,-8.25996e-06,-1.40956e-07,1.81107e-05,-9.51006e-06,1.32318e-05,6.30477e-05,7
-2.89442e-05,1.16088e-05,-5.48788e-06,3.93864e-06,2.00937e-05,-9.5671e-06,1.52151e-05,6.3048e-05,7
-2.73895e-05,1.2523e-05,-5.0468e-06,6.81916e-06,2.10025e-05,-9.47888e-06,1.62641e-05,3.46787e-05,7
-2.64233e-05,1.30582e-05,-7.35296e-06,9.93228e-06,2.12313e-05,-9.4811e-06,1.54441e-05,-1.56557e-05,7
-2.58257e-05,1.23378e-05,-9.70257e-06,1.29195e-05,2.05545e-05,-9.41423e-06,1.19823e-05,-6.72182e-05,7
-2.41852e-05,1.25139e-05,-8.67718e-06,1.70384e-05,1.90056e-05,-8.9525e-06,8.83932e-06,-0.000101196,7
-2.25899e-05,1.37472e-05,-5.59923e-06,2.19308e-05,1.76787e-05,-8.03529e-06,8.29216e-06,-0.000108682,7
-2.25155e-05,1.4601e-05,-3.93974e-06,2.48245e-05,1.63039e-05,-7.00925e-06,1.00606e-05,-9.17209e-05,7
-2.33537e-05,1.39387e-05,-3.83995e-06,2.36275e-05,1.42135e-05,-6.6506e-06,1.13477e-05,-6.1002e-05,7
-2.44333e-05,1.27841e-05,-4.49547e-06,1.84743e-05,1.26516e-05,-7.37948e-06,9.94107e-06,-2.84287e-05,7
-2.60075e-05,1.27375e-05,-5.36879e-06,1.15458e-05,1.36236e-05,-9.55443e-06,6.82849e-06,-2.41236e-07,7
-2.74376e-05,1.23242e-05,-5.66964e-06,9.20008e-06,1.56441e-05,-1.28985e-05,6.38455e-06,2.14752e-05,7
-2.91724e-05,1.08131e-05,-4.56146e-06,2.25141e-05,1.74592e-05,-1.465e-05,9.44627e-06,4.01705e-05,7
-3.04602e-05,9.85067e-06,-4.72959e-06,5.21545e-05,1.84081e-05,-1.41497e-05,1.06634e-05,5.90421e-05,7
-3.14263e-05,1.07901e-05,-8.33197e-06,8.05805e-05,1.84337e-05,-1.31656e-05,6.30851e-06,7.51694e-05,7
-3.03696e-05,1.32361e-05,-1.14953e-05,9.20847e-05,1.77418e-05,-1.20094e-05,1.45603e-06,8.62397e-05,7
-2.59725e-05,1.45164e-05,-1.03018e-05,8.0178e-05,1.60323e-05,-9.51725e-06,2.01669e-06,9.75339e-05,7
-2.23291e-05,1.40265e-05,-6.67611e-06,4.23029e-05,1.4141e-05,-6.03174e-06,6.28469e-06,0.000107532,7
-2.39476e-05,1.35628e-05,-4.79765e-06,-1.83484e-05,1.36142e-05,-5.29274e-06,1.01845e-05,0.000106031,7
-2.9872e-05,1.27954e-05,-6.28614e-06,-0.000104028,1.4952e-05,-9.69948e-06,1.15446e-05,8.13212e-05,7
-3.43874e-05,1.05879e-05,-8.20677e-06,-0.00017832,1.92119e-05,-1.55814e-05,1.35849e-05,3.57036e-05,7
-3.66516e-05,8.26428e-06,-1.03703e-05,-0.000192632,2.33319e-05,-1.68865e-05,1.70769e-05,-1.21258e-05,7
-3.77633e-05,6.30789e-06,-1.189e-05,-0.000152763,2.38323e-05,-1.2612e-05,1.95105e-05,-4.28654e-05,7
-3.63021e-05,5.97401e-06,-9.61901e-06,-9.6696e-05,2.00645e-05,-8.1101e-06,1.96205e-05,-5.066e-05,7
-3.25939e-05,7.91351e-06,-6.02849e-06,-6.47668e-05,1.28692e-05,-5.776e-06,1.55872e-05,-4.92631e-05,7
-2.93562e-05,1.03485e-05,-5.01864e-06,-5.76578e-05,6.80479e-06,-5.75089e-06,1.00731e-05,-4.96824e-05,7
-2.94291e-05,1.25937e-05,-6.32493e-06,-5.45258e-05,2.45889e-06,-6.96158e-06,5.72777e-06,-5.69137e-05,7
-2.9463e-05,1.38567e-05,-6.8058e-06,-3.39287e-05,-6.85195e-07,-6.40196e-06,3.46329e-06,-6.6531e-05,7
-2.72968e-05,1.52129e-05,-3.86324e-06,-1.29462e-06,3.28612e-07,-4.38114e-06,4.17167e-06,-6.64202e-05,7
-2.4268e-05,1.80471e-05,2.01579e-06,2.00706e-05,5.23381e-06,-1.91776e-06,7.11391e-06,-5.43799e-05,7
-2.17817e-05,2.15839e-05,6.36691e-06,2.08009e-05,1.0393e-05,1.45707e-07,1.30557e-05,-3.80305e-05,7
-2.11684e-05,2.27721e-05,5.37053e-06,9.69453e-06,1.27538e-05,2.24721e-06,1.94839e-05,-2.43125e-05,7
-2.19941e-05,2.02051e-05,-7.38874e-07,1.95059e-06,1.14225e-05,3.24148e-06,2.31106e-05,-1.52667e-05,7
-2.40552e-05,1.58992e-05,-6.1096e-06,2.85991e-06,8.47065e-06,6.20538e-07,2.43999e-05,-8.59238e-06,7
-2.67023e-05,1.30247e-05,-6.99268e-06,1.04267e-05,7.37621e-06,-4.65619e-06,2.5586e-05,-2.79292e-06,7
-2.95409e-05,1.1898e-05,-6.28849e-06,1.67818e-05,8.0594e-06,-8.81539e-06,2.68779e-05,2.10464e-06,7
-3.14504e-05,1.20774e-05,-7.37383e-06,2.10253e-05,7.8464e-06,-1.07062e-05,2.61353e-05,7.33081e-06,7
-3.14317e-05,1.31506e-05,-7.46811e-06,2.17792e-05,8.34821e-06,-1.19847e-05,2.20882e-05,1.28369e-05,7
-2.9988e-05,1.41342e-05,-4.72493e-06,2.06165e-05,1.11372e-05,-1.25591e-05,1.74217e-05,1.71996e-05,7
-2.93801e-05,1.49942e-05,-2.82816e-06,1.63713e-05,1.36569e-05,-1.28696e-05,1.53804e-05,1.7578e-05,7
-2.93974e-05,1.54298e-05,-3.94952e-06,1.03453e-05,1.36073e-05,-1.29664e-05,1.44036e-05,1.41631e-05,7
-2.85609e-05,1.50256e-05,-7.01137e-06,5.17117e-06,1.20204e-05,-1.29944e-05,1.16387e-05,1.06389e-05,7
-2.73302e-05,1.24418e-05,-9.1826e-06,5.55118e-06,9.01395e-06,-1.36564e-05,7.79813e-06,1.07707e-05,7
-2.74065e-05,8.68805e-06,-9.77224e-06,1.00326e-05,4.82545e-06,-1.46389e-05,5.22694e-06,1.37681e-05,7
-2.90888e-05,7.01111e-06,-9.84007e-06,1.30997e-05,2.40014e-06,-1.58129e-05,3.3503e-06,1.67904e-05,7
-3.01942e-05,8.41962e-06,-9.65547e-06,1.41485e-05,3.94256e-06,-1.60546e-05,-5.08285e-07,1.82758e-05,7
-2.92726e-05,1.0202e-05,-8.40472e-06,1.48888e-05,9.48467e-06,-1.50381e-05,-7.58377e-06,1.73561e-05,7
-2.84544e-05,1.00122e-05,-7.68336e-06,1.63168e-05,1.46636e-05,-1.40681e-05,-1.15497e-05,1.41679e-05,7
-2.89938e-05,9.31586e-06,-7.89604e-06,1.60142e-05,1.59215e-05,-1.38592e-05,-8.96164e-06,9.8474e-06,7
-2.83114e-05,8.97479e-06,-7.50727e-06,1.22279e-05,1.51727e-05,-1.35015e-05,-4.71908e-06,5.97102e-06,7
-2.60504e-05,9.33106e-06,-7.10935e-06,7.64823e-06,1.41649e-05,-1.00004e-05,-2.94912e-06,4.54294e-06,7
-2.50633e-05,1.06639e-05,-7.2734e-06,5.92849e-06,1.5336e-05,-6.69686e-06,-2.58848e-06,4.28571e-06,7
-2.73131e-05,1.1664e-05,-7.52014e-06,7.41421e-06,1.87839e-05,-7.87182e-06,8.29404e-07,4.23603e-06,7
-3.05427e-05,1.15336e-05,-9.77059e-06,8.18349e-06,2.08934e-05,-1.08892e-05,6.65268e-06,6.07058e-06,7
-3.23846e-05,1.11863e-05,-1.41742e-05,5.88958e-06,2.05447e-05,-1.26659e-05,1.00267e-05,8.95716e-06,7
-3.27201e-05,1.22038e-05,-1.6727e-05,4.15084e-06,1.92716e-05,-1.26161e-05,8.70428e-06,1.17165e-05,7
-3.31634e-05,1.31233e-05,-1.69498e-05,3.37899e-06,1.94076e-05,-1.18245e-05,6.0958e-06,1.17189e-05,7
-3.43231e-05,1.21942e-05,-1.65191e-05,1.45587e-06,1.99989e-05,-1.07289e-05,7.49013e-06,8.68202e-06,7
-3.62904e-05,1.05305e-05,-1.68353e-05,-2.12095e-06,1.87406e-05,-9.63902e-06,1.40457e-05,3.32315e-06,7
-3.87676e-05,1.01955e-05,-1.70754e-05,-3.20803e-06,1.65226e-05,-8.5392e-06,2.21991e-05,-2.88266e-06,7
-4.02095e-05,1.08247e-05,-1.43534e-05,-7.68741e-07,1.52545e-05,-7.86628e-06,2.84626e-05,-6.70064e-06,7
-3.96882e-05,1.09342e-05,-5.86944e-06,3.90874e-06,1.49428e-05,-8.41475e-06,3.10876e-05,-6.81971e-06,7
-3.79374e-05,9.77909e-06,6.55183e-06,7.3993e-06,1.5269e-05,-1.13053e-05,2.9453e-05,-6.06415e-06,7
-3.75112e-05,7.89929e-06,1.41924e-05,7.59725e-06,1.61014e-05,-1.46019e-05,2.51572e-05,-7.15442e-06,7
-3.8617e-05,6.61069e-06,9.2816e-06,3.64311e-06,1.60671e-05,-1.48055e-05,1.99651e-05,-8.47599e-06,7
-3.90419e-05,6.89567e-06,-4.06421e-06,-1.57359e-06,1.42699e-05,-1.29155e-05,1.47691e-05,-8.74301e-06,7
-3.73435e-05,9.15355e-06,-1.22633e-05,-3.5956e-06,1.27806e-05,-1.1616e-05,9.25887e-06,-8.30882e-06,7
-3.48649e-05,1.35689e-05,-1.02441e-05,-1.32913e-06,1.31821e-05,-8.92043e-06,3.73791e-06,-8.42921e-06,7
-3.2993e-05,1.79224e-05,-5.24077e-06,4.42216e-07,1.28644e-05,-4.05146e-06,7.65195e-07,-7.9706e-06,7
-3.16889e-05,1.90433e-05,-4.19326e-06,8.42021e-07,9.04875e-06,-1.18907e-06,1.68105e-06,-1.51001e-06,7
-2.99124e-05,1.80282e-05,-5.62293e-06,2.77286e-06,4.03511e-06,-1.60205e-06,4.78635e-06,1.42353e-05,7
-2.92017e-05,1.59248e-05,-6.90212e-06,4.45069e-06,2.05741e-06,-4.23456e-06,8.47364e-06,2.94977e-05,7
-3.09938e-05,1.40204e-05,-7.61129e-06,6.38787e-06,4.65554e-06,-6.85432e-06,1.26515e-05,3.5265e-05,7
-3.20883e-05,1.37215e-05,-6.96574e-06,1.01109e-05,1.00153e-05,-8.70982e-06,1.74128e-05,3.6081e-05,7
-3.19037e-05,1.31401e-05,-5.75572e-06,1.14832e-05,1.36607e-05,-1.06264e-05,2.07675e-05,3.34654e-05,7
-3.02426e-05,1.22764e-05,-3.52132e-06,6.34496e-06,1.40267e-05,-1.08107e-05,1.87704e-05,2.51753e-05,7
-2.73772e-05,1.20374e-05,-6.11918e-07,-3.21057e-06,1.19126e-05,-8.22656e-06,1.29115e-05,1.25763e-05,7
-2.51159e-05,1.23271e-05,6.22259e-07,-1.37066e-05,9.37504e-06,-4.54552e-06,8.30221e-06,-1.35466e-06,7
-2.46983e-05,1.20268e-05,6.15825e-08,-2.24553e-05,8.51849e-06,-3.96632e-06,8.26214e-06,-1.20382e-05,7
-2.6754e-05,1.07789e-05,2.21026e-07,-2.59413e-05,9.44815e-06,-8.19408e-06,1.44423e-05,-1.9351e-05,7
-2.89202e-05,1.20378e-05,5.86848e-07,-2.28865e-05,1.11102e-05,-1.20298e-05,2.14765e-05,-2.66075e-05,7
-3.08341e-05,1.43903e-05,-2.25801e-06,-8.01409e-06,1.10014e-05,-1.1583e-05,2.09424e-05,-3.30836e-05,7
-3.15121e-05,1.51972e-05,-6.65073e-06,2.49235e-05,1.07049e-05,-8.34558e-06,1.28764e-05,-3.63397e-05,7
-3.07345e-05,1.41516e-05,-7.1244e-06,6.35374e-05,1.23434e-05,-7.54382e-06,5.10215e-06,-3.45818e-05,7
