ch1,ch2,ch3,ch4,ch5,ch6,ch7,ch8,class
-3.34509e-05,1.37491e-05,-5.94434e-06,-1.17963e-06,2.58103e-05,-8.29467e-06,3.66384e-05,-5.899e-05,7
-3.30718e-05,1.49521e-05,-4.37178e-06,2.39111e-06,3.35384e-05,-4.98512e-06,2.97005e-05,-4.75797e-05,7
-3.31972e-05,1.44816e-05,-3.8463e-06,4.77935e-06,3.797e-05,-3.4732e-06,2.6135e-05,-3.13631e-05,7
-3.38572e-05,1.28507e-05,-6.42193e-06,3.88285e-06,3.86068e-05,-4.68609e-06,2.357e-05,-1.73177e-05,7
-3.4682e-05,1.22132e-05,-1.04964e-05,1.43874e-06,3.53795e-05,-8.32187e-06,1.54288e-05,-6.59463e-06,7
-3.45897e-05,1.28072e-05,-1.25092e-05,-8.12838e-07,2.75042e-05,-1.20782e-05,1.7518e-06,2.16541e-06,7
-3.48089e-05,1.32801e-05,-1.11764e-05,-3.08465e-06,1.81777e-05,-1.31263e-05,-1.11593e-05,7.40151e-06,7
-3.56395e-05,1.39543e-05,-8.39798e-06,-4.67287e-06,1.04451e-05,-1.15956e-05,-1.73616e-05,8.15743e-06,7
-3.60704e-05,1.44607e-05,-7.01746e-06,-4.82805e-06,4.02134e-06,-9.36303e-06,-1.41361e-05,6.52713e-06,7
-3.61606e-05,1.40041e-05,-8.05044e-06,-4.4868e-06,-1.41854e-06,-9.02297e-06,-4.72901e-06,6.18107e-06,7
-3.64013e-05,1.30175e-05,-9.55925e-06,-6.34589e-06,-4.44758e-06,-8.72822e-06,3.01295e-06,9.29103e-06,7
-3.69539e-05,1.18958e-05,-1.03155e-05,-1.22632e-05,-5.18079e-06,-7.27591e-06,5.03356e-06,1.45702e-05,7
-3.69433e-05,1.04705e-05,-1.03347e-05,-1.89942e-05,-4.77724e-06,-5.79919e-06,4.73851e-06,1.89238e-05,7
-3.65032e-05,9.7291e-06,-9.20465e-06,-2.3015e-05,-3.63947e-06,-6.08222e-06,5.69208e-06,2.30437e-05,7
-3.65058e-05,1.02807e-05,-6.72697e-06,-2.43666e-05,9.3987e-07,-6.50791e-06,8.91287e-06,3.01809e-05,7
-3.73243e-05,1.03396e-05,-4.60068e-06,-2.4077e-05,5.71327e-06,-6.3668e-06,1.28299e-05,4.03339e-05,7
-3.69026e-05,1.02513e-05,-4.09806e-06,-2.20462e-05,5.47542e-06,-6.15935e-06,1.55392e-05,5.2121e-05,7
-3.41528e-05,1.1267e-05,-5.19902e-06,-1.64191e-05,5.27097e-06,-6.94587e-06,1.50797e-05,6.13545e-05,7
-3.14703e-05,1.28718e-05,-7.2933e-06,-1.00516e-05,1.33283e-05,-8.18e-06,1.11048e-05,6.76092e-05,7
-3.13189e-05,1.43588e-05,-9.12831e-06,-5.35188e-06,2.89147e-05,-8.25761e-06,8.23541e-06,7.41869e-05,7
-3.23662e-05,1.3844e-05,-8.65962e-06,-6.58958e-07,3.6249e-05,-7.67561e-06,8.60462e-06,7.2543e-05,7
-3.28021e-05,1.2158e-05,-6.43619e-06,3.89459e-06,3.00402e-05,-6.84256e-06,8.56141e-06,6.06895e-05,7
-3.19364e-05,1.17271e-05,-5.77636e-06,6.21975e-06,2.07266e-05,-6.43287e-06,8.6421e-06,4.62714e-05,7
-3.08432e-05,1.30636e-05,-5.2713e-06,6.90598e-06,1.54575e-05,-6.48322e-06,1.021e-05,2.935e-05,7
-3.10455e-05,1.44228e-05,-4.13898e-06,7.11801e-06,1.71813e-05,-7.02172e-06,1.22924e-05,1.90275e-05,7
-3.21399e-05,1.32887e-05,-5.25471e-06,6.33543e-06,1.96852e-05,-7.46026e-06,1.36979e-05,1.68501e-05,7
-3.24885e-05,1.07478e-05,-6.58162e-06,5.43855e-06,2.00289e-05,-7.35643e-06,1.21554e-05,1.27513e-05,7
-3.25708e-05,9.55635e-06,-4.93624e-06,2.84019e-06,1.80292e-05,-7.861e-06,1.07714e-05,-7.08284e-06,7
-3.21094e-05,1.01697e-05,-2.28865e-06,-3.86934e-06,1.59364e-05,-9.20662e-06,1.16173e-05,-4.40465e-05,7
-3.08216e-05,1.11729e-05,-2.05504e-06,-1.28898e-05,1.53196e-05,-9.45822e-06,1.23688e-05,-8.49421e-05,7
-2.94765e-05,1.18603e-05,-2.93452e-06,-1.70419e-05,1.51336e-05,-8.34503e-06,1.14166e-05,-0.000113778,7
-2.93798e-05,1.12167e-05,-4.48905e-06,-1.65117e-05,1.42622e-05,-6.52228e-06,1.04936e-05,-0.000118336,7
-3.09189e-05,8.78603e-06,-8.51041e-06,-1.45029e-05,1.1957e-05,-5.84349e-06,1.04845e-05,-0.000100976,7
-3.24064e-05,5.47086e-06,-1.36377e-05,-1.15404e-05,1.04137e-05,-6.84248e-06,1.1156e-05,-7.3365e-05,7
-3.33281e-05,4.44956e-06,-1.58381e-05,-8.82996e-06,1.04312e-05,-8.11212e-06,1.29096e-05,-5.08741e-05,7
-3.33046e-05,6.72669e-06,-1.42691e-05,-6.63907e-06,1.21493e-05,-8.27435e-06,1.54254e-05,-3.86437e-05,7
-3.18491e-05,9.7301e-06,-1.16538e-05,-1.07982e-06,1.37197e-05,-7.81869e-06,1.9346e-05,-3.26686e-05,7
-2.9371e-05,1.19619e-05,-8.57001e-06,1.52962e-05,1.56673e-05,-8.02319e-06,2.51044e-05,-2.65192e-05,7
-2.74231e-05,1.35981e-05,-4.91295e-06,4.30368e-05,1.7434e-05,-8.06201e-06,3.05002e-05,-1.88159e-05,7
-2.55312e-05,1.52056e-05,-1.99297e-06,7.23938e-05,1.8509e-05,-6.55583e-06,3.23451e-05,-9.471e-06,7
-2.29629e-05,1.65184e-05,-1.40335e-06,8.91945e-05,1.88518e-05,-5.78882e-06,2.97054e-05,-6.56477e-07,7
-2.22556e-05,1.66497e-05,-2.06664e-06,8.1251e-05,2.00413e-05,-6.68592e-06,2.40447e-05,6.42374e-06,7
-2.48119e-05,1.60919e-05,-3.385e-06,4.46429e-05,2.10211e-05,-7.72802e-06,1.90626e-05,1.26e-05,7
-2.75173e-05,1.48711e-05,-3.92882e-06,-1.25172e-05,1.93425e-05,-8.72806e-06,1.50761e-05,1.74226e-05,7
-2.83198e-05,1.21506e-05,-3.47789e-06,-7.27817e-05,1.65046e-05,-9.2055e-06,9.57647e-06,1.93276e-05,7
-2.84063e-05,1.09828e-05,-3.26101e-06,-0.000108918,1.63905e-05,-9.40044e-06,4.93025e-06,1.89785e-05,7
-2.97219e-05,1.18367e-05,-2.04183e-06,-0.000105536,1.69424e-05,-9.12713e-06,7.65402e-06,2.12871e-05,7
-3.15904e-05,1.25102e-05,-2.38295e-07,-7.51178e-05,1.3891e-05,-9.27499e-06,1.56029e-05,2.94787e-05,7
-3.24305e-05,1.42713e-05,1.00799e-06,-4.41945e-05,1.21276e-05,-9.86691e-06,1.95501e-05,3.74278e-05,7
-3.03968e-05,1.47687e-05,-1.08247e-06,-2.56054e-05,1.35099e-05,-1.01396e-05,1.74688e-05,3.65984e-05,7
-2.81618e-05,1.30452e-05,-6.71869e-06,-1.57824e-05,1.34649e-05,-1.09784e-05,1.45406e-05,2.89475e-05,7
-2.83441e-05,1.19824e-05,-1.23156e-05,-5.96647e-06,1.19335e-05,-1.17605e-05,1.3437e-05,2.2913e-05,7
-3.02596e-05,1.13777e-05,-1.67341e-05,9.04343e-06,9.85628e-06,-1.13881e-05,1.02443e-05,4.40714e-05,7
-3.25188e-05,1.1772e-05,-1.98875e-05,2.56312e-05,7.41489e-06,-1.05089e-05,4.71647e-06,9.94429e-05,7
-3.27442e-05,1.28786e-05,-2.08886e-05,3.52208e-05,5.73237e-06,-1.00419e-05,-9.22332e-07,0.000149584,7
-3.11983e-05,1.38497e-05,-1.83699e-05,3.10382e-05,5.61827e-06,-9.07223e-06,-4.34695e-06,0.000170441,7
-2.79705e-05,1.39012e-05,-1.36037e-05,1.8675e-05,6.97371e-06,-7.48209e-06,-4.20466e-06,0.000166529,7
-2.48649e-05,1.42652e-05,-9.54697e-06,7.47745e-06,7.78267e-06,-6.63133e-06,-4.42478e-06,0.000133132,7
-2.30289e-05,1.42381e-05,-8.23363e-06,3.09694e-06,8.51953e-06,-6.61926e-06,-6.3708e-06,6.53156e-05,7
-2.23576e-05,1.23218e-05,-8.50899e-06,5.94963e-06,9.63376e-06,-7.07221e-06,-6.20188e-06,-2.54739e-05,7
-2.26177e-05,9.22836e-06,-8.48413e-06,1.16993e-05,1.01845e-05,-7.60411e-06,-1.24747e-06,-0.000113625,7
-2.37226e-05,7.34658e-06,-6.96425e-06,1.53625e-05,9.88063e-06,-7.91341e-06,6.44454e-06,-0.000167474,7
-2.44388e-05,8.09935e-06,-4.3099e-06,1.67277e-05,9.26064e-06,-8.30733e-06,1.30361e-05,-0.000168794,7
-2.42511e-05,9.40325e-06,-2.09931e-06,1.84696e-05,8.53584e-06,-8.26496e-06,1.69415e-05,-0.000130754,7
-2.41064e-05,1.03199e-05,-1.06559e-06,2.11937e-05,8.79187e-06,-6.87891e-06,2.02009e-05,-7.96498e-05,7
-2.4056e-05,1.12713e-05,-9.64609e-07,2.21572e-05,1.03662e-05,-4.69967e-06,2.34735e-05,-3.31949e-05,7
-2.34537e-05,1.27393e-05,-1.31865e-06,1.72875e-05,1.25229e-05,-3.54904e-06,2.29628e-05,-5.42475e-06,7
-2.33201e-05,1.28853e-05,-2.86954e-06,4.20889e-06,1.41971e-05,-3.71479e-06,1.58936e-05,-6.99614e-06,7
-2.38873e-05,1.18218e-05,-6.37536e-06,-2.01616e-05,1.50362e-05,-3.87473e-06,6.01438e-06,-3.14438e-05,7
-2.39193e-05,1.14557e-05,-1.00714e-05,-5.25489e-05,1.48558e-05,-4.03585e-06,4.73312e-07,-6.56668e-05,7
-2.38068e-05,1.21556e-05,-1.10369e-05,-7.57733e-05,1.37987e-05,-4.24552e-06,2.60973e-06,-9.6573e-05,7
-2.42368e-05,1.19315e-05,-9.61347e-06,-7.50941e-05,1.30321e-05,-5.00883e-06,8.63399e-06,-0.000106482,7
-2.53103e-05,1.05643e-05,-7.89186e-06,-5.63649e-05,1.38778e-05,-8.18124e-06,1.34282e-05,-9.14976e-05,7
-2.61983e-05,9.32398e-06,-8.28793e-06,-3.61789e-05,1.41423e-05,-1.34025e-05,1.64968e-05,-6.40679e-05,7
-2.69973e-05,7.57592e-06,-1.01956e-05,-2.8512e-05,1.1658e-05,-1.5941e-05,1.8726e-05,-4.00073e-05,7
-2.70273e-05,5.48783e-06,-1.5093e-05,-3.03093e-05,8.85958e-06,-1.51172e-05,1.85781e-05,-2.11157e-05,7
-2.67711e-05,4.38771e-06,-1.81623e-05,-2.88816e-05,8.34782e-06,-1.41388e-05,1.47154e-05,-9.49466e-07,7
-2.65486e-05,6.60278e-06,-1.2543e-05,-2.51241e-05,1.1503e-05,-1.27119e-05,9.02264e-06,1.74958e-05,7
-2.68489e-05,1.12124e-05,-2.24977e-06,-2.3762e-05,1.45443e-05,-1.0348e-05,4.80353e-06,3.28637e-05,7
-2.79288e-05,1.39261e-05,6.10954e-06,-2.45941e-05,1.45669e-05,-9.00665e-06,2.92853e-06,5.14735e-05,7
-2.8417e-05,1.52638e-05,7.32932e-06,-2.26952e-05,1.26922e-05,-9.35675e-06,2.78483e-06,7.76227e-05,7
-2.79487e-05,1.54494e-05,2.50308e-06,-1.90919e-05,1.06763e-05,-1.01446e-05,4.62085e-06,0.000101243,7
-2.80453e-05,1.3946e-05,-4.90475e-06,-1.61407e-05,9.16242e-06,-1.00747e-05,8.43455e-06,0.000110038,7
-2.94417e-05,1.29748e-05,-1.1484e-05,-1.38891e-05,8.072e-06,-8.63692e-06,1.26686e-05,0.000103554,7
-3.08777e-05,1.36794e-05,-1.32078e-05,-1.21749e-05,8.24514e-06,-7.49128e-06,1.44434e-05,8.75987e-05,7
-3.15502e-05,1.46577e-05,-1.03467e-05,-9.85303e-06,9.23119e-06,-7.57018e-06,1.32896e-05,6.64686e-05,7
-3.14975e-05,1.48747e-05,-6.20657e-06,-7.01148e-06,1.05725e-05,-9.57319e-06,1.17101e-05,3.8675e-05,7
-3.07813e-05,1.45036e-05,-3.29868e-06,-1.77485e-06,1.26813e-05,-1.22359e-05,1.22673e-05,6.50533e-06,7
-2.99302e-05,1.43e-05,-3.15162e-06,6.17901e-06,1.58234e-05,-1.33218e-05,1.42749e-05,-2.77625e-05,7
-3.00531e-05,1.40144e-05,-5.21935e-06,1.37271e-05,1.7715e-05,-1.20898e-05,1.56861e-05,-5.96363e-05,7
-3.11116e-05,1.25244e-05,-6.48796e-06,1.54034e-05,1.78029e-05,-1.03206e-05,1.53024e-05,-7.59714e-05,7
-3.23215e-05,1.14037e-05,-4.99213e-06,1.43848e-05,1.83625e-05,-1.09046e-05,1.36571e-05,-6.81293e-05,7
-3.25242e-05,1.22562e-05,-2.62212e-06,1.41915e-05,2.11399e-05,-1.30959e-05,1.36186e-05,-4.39107e-05,7
-3.17203e-05,1.40209e-05,-2.01799e-06,1.2234e-05,2.3466e-05,-1.41724e-05,1.62759e-05,-1.98099e-05,7
-3.05272e-05,1.44868e-05,-2.8771e-06,8.60084e-06,2.1663e-05,-1.38627e-05,1.89239e-05,-6.99621e-06,7
-2.93528e-05,1.42016e-05,-3.28062e-06,8.87738e-06,1.74141e-05,-1.39063e-05,2.10355e-05,-5.55877e-06,7
-2.85334e-05,1.43062e-05,-2.77386e-06,1.40808e-05,1.39601e-05,-1.31524e-05,2.44612e-05,-8.11994e-06,7
-2.83871e-05,1.52317e-05,-1.71343e-06,2.05955e-05,1.39923e-05,-1.10555e-05,2.75906e-05,-6.89479e-06,7
-2.85779e-05,1.55613e-05,-1.01522e-06,2.39427e-05,1.62801e-05,-9.11636e-06,2.59759e-05,2.08039e-06,7
-2.95398e-05,1.47525e-05,-2.78347e-06,2.00333e-05,1.76288e-05,-9.31674e-06,1.99393e-05,1.32985e-05,7
-3.14877e-05,1.18895e-05,-8.15982e-06,9.53843e-06,1.43424e-05,-1.08575e-05,1.14048e-05,2.13399e-05,7
-3.33592e-05,9.9755e-06,-1.37019e-05,4.39289e-06,9.57548e-06,-1.25386e-05,-1.69027e-07,2.72472e-05,7
-3.48139e-05,9.5616e-06,-1.57934e-05,9.75367e-06,9.36019e-06,-1.3786e-05,-6.81211e-06,3.04675e-05,7
-3.49384e-05,7.57548e-06,-1.49737e-05,1.68566e-05,1.08078e-05,-1.56387e-05,-4.84342e-06,2.59842e-05,7
-3.43984e-05,6.09633e-06,-1.21249e-05,2.09017e-05,1.1475e-05,-1.8538e-05,2.09685e-06,1.29574e-05,7
-3.50167e-05,5.73296e-06,-9.91669e-06,1.90151e-05,1.14862e-05,-1.94065e-05,1.06354e-05,-2.88176e-06,7
-3.59257e-05,6.48109e-06,-1.08672e-05,1.11283e-05,1.11705e-05,-2.00029e-05,1.51163e-05,-1.54949e-05,7
-3.59886e-05,6.82676e-06,-1.50545e-05,1.00487e-06,1.03715e-05,-1.8136e-05,1.25051e-05,-2.04708e-05,7
-3.47371e-05,7.93283e-06,-1.85131e-05,-4.15962e-06,1.01149e-05,-1.34683e-05,4.50199e-06,-1.59718e-05,7
-3.28395e-05,1.18394e-05,-1.60449e-05,-5.74095e-06,1.21325e-05,-9.25225e-06,-2.09245e-06,-3.97011e-06,7
-3.05653e-05,1.69665e-05,-9.92194e-06,-7.12851e-06,1.3732e-05,-7.19027e-06,-2.07194e-06,1.43414e-05,7
-2.90069e-05,1.96687e-05,-5.28196e-06,-8.19761e-06,1.28559e-05,-8.01911e-06,4.97687e-06,4.31578e-05,7
-2.94919e-05,1.93369e-05,-3.78583e-06,-8.97264e-06,1.09805e-05,-1.05207e-05,1.33045e-05,7.90057e-05,7
-3.09186e-05,1.75258e-05,-4.1915e-06,-9.64643e-06,1.07143e-05,-1.36235e-05,1.6872e-05,0.00010267,7
-3.17362e-05,1.58194e-05,-5.24175e-06,-9.51014e-06,1.24795e-05,-1.39547e-05,1.57407e-05,9.93665e-05,7
-3.1467e-05,1.59793e-05,-5.50703e-06,-7.77476e-06,1.46226e-05,-1.16051e-05,1.44017e-05,7.42033e-05,7
-3.06451e-05,1.65748e-05,-3.5681e-06,-6.18308e-06,1.67934e-05,-9.14411e-06,1.43624e-05,4.02623e-05,7
-2.94893e-05,1.645e-05,7.45534e-10,-6.62044e-06,1.88376e-05,-8.16885e-06,1.32151e-05,7.57615e-06,7
-2.86682e-05,1.57761e-05,2.68188e-06,-1.17208e-05,1.96562e-05,-7.96666e-06,1.14937e-05,-1.53046e-05,7
-2.80713e-05,1.50297e-05,3.26412e-06,-2.10682e-05,1.95431e-05,-7.92315e-06,1.23665e-05,-1.98188e-05,7
-2.8069e-05,1.43478e-05,2.9554e-06,-2.98197e-05,1.89177e-05,-6.63912e-06,1.71285e-05,9.54303e-07,7
-2.85112e-05,1.49784e-05,2.29077e-06,-3.22787e-05,1.67576e-05,-4.61852e-06,2.1437e-05,3.83074e-05,7
-2.91436e-05,1.59997e-05,8.567e-07,-2.89441e-05,1.31655e-05,-4.16876e-06,1.97869e-05,6.38371e-05,7
-2.93827e-05,1.61973e-05,-1.86643e-06,-2.40769e-05,9.975e-06,-4.70984e-06,1.32259e-05,6.15095e-05,7
-2.90144e-05,1.59346e-05,-4.19541e-06,-2.1408e-05,9.82278e-06,-5.92835e-06,8.58253e-06,4.39156e-05,7
-2.88263e-05,1.49644e-05,-5.32479e-06,-1.87022e-05,1.11672e-05,-8.42781e-06,9.55304e-06,1.8767e-05,7
-2.97953e-05,1.40222e-05,-6.0039e-06,-1.33617e-05,1.07165e-05,-1.04628e-05,1.31572e-05,-2.31766e-05,7
-3.17467e-05,1.27662e-05,-7.30479e-06,-6.79982e-06,1.04583e-05,-1.12052e-05,1.70679e-05,-8.53622e-05,7
-3.22749e-05,1.20502e-05,-9.59361e-06,2.24547e-07,1.21157e-05,-1.1022e-05,2.24085e-05,-0.000136991,7
-3.23008e-05,1.27631e-05,-9.81573e-06,6.23486e-06,1.46232e-05,-1.08273e-05,2.54739e-05,-0.00014263,7
-3.24589e-05,1.45733e-05,-8.54263e-06,9.99398e-06,1.63923e-05,-9.76552e-06,2.37158e-05,-0.000110886,7
-3.07142e-05,1.57588e-05,-8.51439e-06,1.16078e-05,1.61677e-05,-7.47312e-06,2.22515e-05,-7.21337e-05,7
-2.96292e-05,1.53661e-05,-8.57537e-06,1.04075e-05,1.5197e-05,-6.46953e-06,2.53651e-05,-4.7963e-05,7
-3.04689e-05,1.46487e-05,-9.28979e-06,3.37555e-06,1.54465e-05,-7.11525e-06,2.67489e-05,-2.94484e-05,7
-3.22179e-05,1.35816e-05,-1.15574e-05,-5.4091e-06,1.63646e-05,-8.98411e-06,1.92207e-05,-4.18041e-06,7
-3.50333e-05,1.35404e-05,-1.36463e-05,-7.37778e-06,1.71843e-05,-1.01474e-05,5.00541e-06,2.03374e-05,7
-3.74744e-05,1.37112e-05,-1.34576e-05,-8.15138e-07,1.80441e-05,-9.5217e-06,-5.76282e-06,3.56216e-05,7
-3.87616e-05,1.30364e-05,-1.0539e-05,7.89806e-06,1.87107e-05,-7.85989e-06,-6.50887e-06,4.27855e-05,7
-3.85703e-05,1.16311e-05,-8.02306e-06,1.14982e-05,1.86778e-05,-8.63635e-06,-3.52856e-06,4.21225e-05,7
-3.83027e-05,1.02293e-05,-9.7023e-06,9.37844e-06,1.70348e-05,-1.12842e-05,-2.72509e-06,2.8415e-05,7
-3.84535e-05,9.65438e-06,-1.47896e-05,5.44094e-06,1.51568e-05,-1.36836e-05,-4.04469e-06,7.04373e-06,7
-3.89871e-05,9.14498e-06,-1.86292e-05,5.23324e-06,1.38819e-05,-1.4316e-05,-4.77917e-06,-2.97673e-06,7
-3.84643e-05,9.38819e-06,-1.71461e-05,9.32261e-06,1.21172e-05,-1.22748e-05,-2.12136e-06,3.95368e-06,7
-3.59097e-05,1.08583e-05,-1.12301e-05,1.19861e-05,8.68197e-06,-8.25371e-06,4.23201e-06,1.46866e-05,7
-3.23396e-05,1.41279e-05,-5.09756e-06,8.85607e-06,4.95551e-06,-3.56771e-06,1.07535e-05,2.98732e-05,7
-2.95261e-05,1.79324e-05,-5.44914e-07,2.39706e-06,3.32704e-06,-3.59244e-07,1.25816e-05,5.67773e-05,7
-2.78399e-05,2.01462e-05,2.09956e-06,-2.98842e-06,3.53831e-06,1.07594e-06,9.37903e-06,8.2797e-05,7
-2.6833e-05,1.97899e-05,3.2389e-06,-5.91602e-06,3.64171e-06,-3.68224e-07,6.99374e-06,7.22169e-05,7
-2.76275e-05,1.85298e-05,3.2313e-06,-8.36308e-06,3.04935e-06,-4.73398e-06,9.46717e-06,1.21689e-06,7
-2.91266e-05,1.78462e-05,7.03194e-07,-1.35207e-05,4.46282e-06,-9.10337e-06,1.60045e-05,-0.000109861,7
-2.96124e-05,1.78477e-05,-3.77355e-06,-2.00639e-05,7.75269e-06,-9.94903e-06,2.23966e-05,-0.000205433,7
-2.82847e-05,1.87066e-05,-6.18404e-06,-2.45376e-05,1.09819e-05,-8.20098e-06,2.55111e-05,-0.00024065,7
-2.61887e-05,2.01412e-05,-4.73001e-06,-2.446e-05,1.30882e-05,-6.25393e-06,2.57688e-05,-0.000203245,7
-2.48364e-05,2.07443e-05,-2.88147e-06,-2.18594e-05,1.22121e-05,-6.32116e-06,2.29375e-05,-0.000121758,7
-2.57986e-05,1.81073e-05,-3.92241e-06,-2.12081e-05,9.21732e-06,-8.08957e-06,1.77569e-05,-5.2249e-05,7
-2.69849e-05,1.42089e-05,-5.73267e-06,-2.12745e-05,7.45448e-06,-8.60163e-06,1.27943e-05,-2.59805e-05,7
-2.73963e-05,1.26579e-05,-6.18255e-06,-1.76376e-05,8.39337e-06,-9.5241e-06,8.06705e-06,-1.96276e-05,7
-2.9176e-05,1.07971e-05,-4.74925e-06,-1.10286e-05,1.09666e-05,-1.03529e-05,4.55369e-06,-7.84916e-06,7
-2.98962e-05,8.71862e-06,-3.51026e-06,-7.29988e-06,1.33909e-05,-9.88085e-06,6.65577e-06,5.62147e-06,7
-2.78947e-05,7.97896e-06,-5.41009e-06,-7.49444e-06,1.45814e-05,-9.74169e-06,1.47505e-05,1.84503e-05,7
-2.56991e-05,6.97964e-06,-7.43068e-06,-7.64459e-06,1.46619e-05,-8.75209e-06,2.61429e-05,2.44194e-05,7
-2.38268e-05,6.53397e-06,-7.885e-06,-5.18759e-06,1.44923e-05,-8.45485e-06,3.71828e-05,2.52488e-05,7
-2.3097e-05,6.90503e-06,-8.66527e-06,-3.00342e-06,1.45273e-05,-8.80121e-06,4.39419e-05,2.33105e-05,7
-2.39494e-05,8.39386e-06,-1.12934e-05,-5.97716e-06,1.4615e-05,-8.50318e-06,4.23679e-05,2.14237e-05,7
-2.4937e-05,8.35786e-06,-1.37096e-05,-9.89028e-06,1.39048e-05,-8.22847e-06,3.18288e-05,2.23942e-05,7
-2.4722e-05,7.62227e-06,-1.27657e-05,-9.75102e-06,1.29104e-05,-7.97183e-06,1.63698e-05,2.81499e-05,7
-2.32041e-05,8.24752e-06,-9.34567e-06,-7.40107e-06,1.25992e-05,-7.04586e-06,1.97567e-06,3.59652e-05,7
-2.18593e-05,1.01881e-05,-5.84278e-06,-6.20655e-06,1.32898e-05,-5.84289e-06,-7.03663e-06,4.07032e-05,7
-2.14658e-05,1.19255e-05,-3.63885e-06,-6.28334e-06,1.47778e-05,-5.19887e-06,-9.96892e-06,4.2809e-05,7
-2.31913e-05,1.24381e-05,-3.17982e-06,-5.39274e-06,1.55925e-05,-4.97682e-06,-8.05342e-06,4.2796e-05,7
-2.65124e-05,1.32405e-05,-4.36012e-06,-2.19262e-06,1.57343e-05,-5.31534e-06,-1.97296e-06,4.13053e-05,7
-2.97143e-05,1.3898e-05,-6.1056e-06,1.89211e-06,1.62236e-05,-6.1269e-06,5.86522e-06,3.79269e-05,7
-3.14974e-05,1.23795e-05,-9.27345e-06,3.64812e-06,1.69556e-05,-9.08638e-06,1.21501e-05,3.56853e-05,7
-3.22588e-05,9.37299e-06,-1.32974e-05,2.38638e-06,1.75089e-05,-1.44469e-05,1.56008e-05,3.44515e-05,7
-3.19934e-05,8.12526e-06,-1.58104e-05,-2.70478e-07,1.90469e-05,-1.86688e-05,1.64126e-05,3.56009e-05,7
-3.13915e-05,8.50642e-06,-1.65638e-05,-3.62151e-06,2.15379e-05,-1.86824e-05,1.83365e-05,3.90365e-05,7
-3.13602e-05,8.94746e-06,-1.69279e-05,-7.32394e-06,2.28692e-05,-1.4734e-05,2.12275e-05,4.22272e-05,7
-3.08977e-05,8.02864e-06,-1.70243e-05,-6.36611e-06,2.05087e-05,-1.0442e-05,2.13543e-05,4.11554e-05,7
-2.85867e-05,8.1256e-06,-1.50163e-05,2.4813e-06,1.41039e-05,-9.47009e-06,1.61541e-05,3.72224e-05,7
-2.66584e-05,8.55651e-06,-1.26503e-05,1.28958e-05,8.85472e-06,-1.14831e-05,8.81568e-06,3.24604e-05,7
-2.70055e-05,7.66805e-06,-1.37232e-05,1.17915e-05,8.76847e-06,-1.35957e-05,6.1077e-06,2.72648e-05,7
-2.78632e-05,7.59932e-06,-1.76817e-05,-1.87666e-06,1.13492e-05,-1.26499e-05,1.12139e-05,1.95385e-05,7
-2.89499e-05,8.9995e-06,-2.12517e-05,-9.86202e-06,1.12459e-05,-1.01215e-05,1.5979e-05,9.42746e-06,7
-2.71802e-05,1.17719e-05,-1.99489e-05,-5.98188e-07,8.51376e-06,-7.38033e-06,9.97821e-06,1.90127e-06,7
-2.48343e-05,1.44045e-05,-1.21094e-05,1.38567e-05,7.77501e-06,-6.19467e-06,5.66945e-06,-1.80778e-06,7
-2.49788e-05,1.60963e-05,-2.08858e-06,1.80269e-05,1.10248e-05,-5.25497e-06,1.40939e-05,-2.77452e-06,7
-2.56558e-05,1.76468e-05,4.82289e-06,1.18914e-05,1.70543e-05,-2.80168e-06,2.68166e-05,-1.40695e-06,7
-2.70751e-05,1.92522e-05,6.07652e-06,8.74494e-08,2.11905e-05,-2.25154e-06,3.43874e-05,1.65558e-06,7
-2.8576e-05,1.95934e-05,4.56656e-06,-1.45777e-05,1.94373e-05,-3.9091e-06,3.49024e-05,4.18533e-06,7
-3.05268e-05,1.75544e-05,2.8524e-06,-2.84235e-05,1.30269e-05,-5.47326e-06,2.91584e-05,6.75955e-06,7
-3.30859e-05,1.54007e-05,6.72301e-07,-3.69272e-05,5.1467e-06,-5.19635e-06,1.71118e-05,1.44221e-05,7
-3.55897e-05,1.37054e-05,-2.10714e-06,-3.85085e-05,-1.8287e-06,-5.73728e-06,4.99297e-06,2.80358e-05,7
-3.66846e-05,1.16981e-05,-5.02067e-06,-3.49746e-05,-5.70808e-06,-8.85101e-06,-2.92335e-06,3.79045e-05,7
-3.65942e-05,9.70074e-06,-7.3096e-06,-2.75331e-05,-5.72368e-06,-1.27919e-05,-7.7748e-06,3.86071e-05,7
-3.62969e-05,9.12184e-06,-8.08598e-06,-1.68059e-05,-3.54434e-06,-1.55807e-05,-1.14917e-05,3.03059e-05,7
-3.6272e-05,9.58446e-06,-7.7553e-06,-3.79369e-06,-8.86672e-07,-1.67343e-05,-1.29917e-05,1.63793e-05,7
-3.70182e-05,9.89557e-06,-6.95859e-06,1.0592e-05,2.0177e-06,-1.56958e-05,-1.18715e-05,2.34533e-06,7
-3.80521e-05,9.7489e-06,-5.25592e-06,2.31261e-05,4.04952e-06,-1.36999e-05,-1.00356e-05,-6.95528e-06,7
-3.88668e-05,9.60938e-06,-3.51643e-06,2.80089e-05,5.79555e-06,-1.23282e-05,-8.59915e-06,-1.17556e-05,7
-3.91379e-05,1.00305e-05,-2.77707e-06,2.66397e-05,8.9374e-06,-1.17581e-05,-8.42599e-06,-1.41665e-05,7
-3.92389e-05,1.03394e-05,-3.47228e-06,3.17764e-05,1.2736e-05,-1.12715e-05,-8.66231e-06,-1.54369e-05,7
-3.89075e-05,1.10133e-05,-4.26404e-06,5.35487e-05,1.67871e-05,-1.05946e-05,-7.60224e-06,-1.53629e-05,7
-3.79201e-05,1.15451e-05,-4.19906e-06,7.89512e-05,2.13274e-05,-1.07131e-05,-4.06621e-06,-1.27994e-05,7
-3.64318e-05,1.23267e-05,-2.60717e-06,8.63685e-05,2.45258e-05,-1.15051e-05,6.32507e-07,-3.82604e-06,7
-3.51052e-05,1.22472e-05,5.476e-07,6.64589e-05,2.41046e-05,-1.27175e-05,6.08702e-06,2.65821e-05,7
-3.52413e-05,1.16289e-05,4.81619e-06,2.28142e-05,1.88761e-05,-1.39748e-05,1.34887e-05,7.32895e-05,7
-3.54231e-05,1.18089e-05,7.72836e-06,-3.7208e-05,1.09253e-05,-1.29898e-05,2.35219e-05,9.68011e-05,7
-3.34789e-05,1.33401e-05,4.3063e-06,-0.000103355,7.00598e-06,-8.8515e-06,3.19899e-05,8.51534e-05,7
-3.02985e-05,1.50316e-05,-2.98374e-06,-0.00015242,1.43246e-05,-3.50938e-06,3.72647e-05,5.67627e-05,7
-2.67798e-05,1.60892e-05,-6.50101e-06,-0.000158725,3.11948e-05,3.03204e-07,3.92211e-05,3.34998e-05,7
-2.51175e-05,1.74043e-05,-4.7125e-06,-0.000133135,4.09623e-05,4.24368e-07,3.75841e-05,2.20713e-05,7
-2.61194e-05,1.67319e-05,-2.97672e-06,-0.000101434,3.81418e-05,-1.79673e-06,3.42169e-05,6.36996e-06,7
-2.76016e-05,1.42061e-05,-4.06713e-06,-6.68248e-05,3.06725e-05,-4.86969e-06,3.10317e-05,-1.36081e-05,7
-2.86637e-05,1.2715e-05,-6.66247e-06,-3.54815e-05,2.13392e-05,-6.64877e-06,3.17669e-05,-3.15761e-05,7
-2.92218e-05,1.27214e-05,-9.09921e-06,-8.88414e-06,1.35502e-05,-7.19089e-06,3.72477e-05,-4.44292e-05,7
-2.90642e-05,1.44912e-05,-9.97029e-06,1.70271e-05,9.40305e-06,-7.51723e-06,4.44337e-05,-5.60299e-05,7
-2.905e-05,1.68146e-05,-9.20032e-06,4.49409e-05,9.33035e-06,-8.03264e-06,4.87908e-05,-6.90843e-05,7
-2.922e-05,1.81802e-05,-7.76107e-06,6.44502e-05,1.03424e-05,-8.78965e-06,4.94227e-05,-8.26313e-05,7
-2.98932e-05,1.78038e-05,-7.99517e-06,6.92694e-05,1.01894e-05,-9.67385e-06,4.34455e-05,-9.20622e-05,7
-3.12221e-05,1.59928e-05,-9.73661e-06,6.51012e-05,1.01679e-05,-1.09038e-05,2.9146e-05,-8.76193e-05,7
-3.23513e-05,1.48332e-05,-1.06625e-05,6.02289e-05,1.13006e-05,-1.28808e-05,9.71041e-06,-6.77915e-05,7
-3.23943e-05,1.41983e-05,-1.01548e-05,5.98584e-05,1.32198e-05,-1.49931e-05,-1.04491e-05,-4.11505e-05,7
-3.15516e-05,1.34948e-05,-9.4415e-06,6.0308e-05,1.41608e-05,-1.60359e-05,-2.47631e-05,-1.99396e-05,7
-3.08433e-05,1.19176e-05,-9.60094e-06,5.81045e-05,1.40793e-05,-1.65572e-05,-2.68913e-05,-8.96491e-06,7
-3.0262e-05,9.5908e-06,-1.09198e-05,5.08001e-05,1.45702e-05,-1.67282e-05,-1.71191e-05,-9.69598e-06,7
-2.98682e-05,7.64276e-06,-1.34125e-05,4.02647e-05,1.6428e-05,-1.66273e-05,-4.02576e-06,-1.69019e-05,7
-2.93464e-05,7.73218e-06,-1.62402e-05,2.45562e-05,1.72371e-05,-1.65612e-05,6.02396e-06,-2.35885e-05,7
-2.88402e-05,9.51518e-06,-1.73487e-05,4.17113e-06,1.47912e-05,-1.58247e-05,1.1503e-05,-2.59028e-05,7
-2.73654e-05,1.06487e-05,-1.57297e-05,-1.9333e-05,1.00312e-05,-1.36559e-05,1.30952e-05,-2.59085e-05,7
-2.54419e-05,1.00456e-05,-1.22562e-05,-4.10027e-05,7.7484e-06,-1.21136e-05,1.21009e-05,-2.54913e-05,7
-2.45271e-05,1.00895e-05,-9.05803e-06,-5.55079e-05,1.10169e-05,-1.16904e-05,1.06473e-05,-2.00079e-05,7
-2.44888e-05,1.19652e-05,-8.1217e-06,-5.70983e-05,1.61796e-05,-1.16272e-05,1.16819e-05,-7.22176e-06,7
-2.44289e-05,1.34923e-05,-8.42878e-06,-4.83937e-05,1.73562e-05,-1.1366e-05,1.37435e-05,4.05152e-06,7
-2.35661e-05,1.36696e-05,-7.82145e-06,-3.64954e-05,1.59218e-05,-9.80837e-06,1.23078e-05,8.75499e-06,7
-2.2403e-05,1.33883e-05,-4.66875e-06,-2.63544e-05,1.49205e-05,-8.18796e-06,8.77495e-06,1.0507e-05,7
-2.1848e-05,1.38678e-05,-3.26705e-06,-1.73327e-05,1.20551e-05,-7.97078e-06,6.31438e-06,1.44502e-05,7
-2.27214e-05,1.359e-05,-5.83418e-06,-1.2261e-05,5.80449e-06,-7.57072e-06,6.64382e-06,2.05445e-05,7
-2.41814e-05,1.24297e-05,-7.17852e-06,-1.27791e-05,-1.12448e-06,-7.03366e-06,9.71315e-06,2.10451e-05,7
-2.36426e-05,1.09819e-05,-5.59405e-06,-1.18473e-05,-4.47727e-06,-8.03576e-06,1.45863e-05,1.47734e-05,7
-2.29544e-05,9.73361e-06,-2.61727e-06,-8.24122e-06,-3.48855e-06,-1.06457e-05,1.81323e-05,6.69976e-06,7
-2.40812e-05,1.00241e-05,-1.46693e-06,-1.35366e-06,2.81542e-06,-1.20194e-05,1.92802e-05,-1.22287e-06,7
-2.49945e-05,1.13534e-05,-2.45846e-06,7.3536e-06,1.50612e-05,-1.22421e-05,1.91054e-05,-1.09649e-05,7
-2.50781e-05,1.26068e-05,-3.28054e-06,1.51745e-05,2.78381e-05,-1.11621e-05,1.75624e-05,-1.14058e-05,7
-2.5284e-05,1.2348e-05,-4.99219e-06,1.58012e-05,3.34715e-05,-8.81874e-06,1.83027e-05,7.80095e-06,7
-2.60064e-05,1.14995e-05,-8.88073e-06,6.8425e-06,2.98688e-05,-6.24868e-06,2.09473e-05,3.50598e-05,7
-2.61809e-05,1.18669e-05,-1.10989e-05,-7.75964e-06,2.16752e-05,-3.8854e-06,2.18599e-05,5.30257e-05,7
-2.6009e-05,1.36485e-05,-7.01794e-06,-1.8173e-05,1.47084e-05,-2.35762e-06,1.93124e-05,5.67998e-05,7
-2.6097e-05,1.56455e-05,-1.78107e-07,-1.94222e-05,1.11473e-05,-1.4208e-06,1.69754e-05,5.10056e-05,7
-2.66078e-05,1.55101e-05,2.81323e-06,-1.7092e-05,1.01008e-05,-3.64983e-06,1.74777e-05,4.14057e-05,7
-2.77714e-05,1.26644e-05,1.32796e-06,-1.73163e-05,1.03016e-05,-7.29523e-06,1.93182e-05,3.17762e-05,7
-2.88594e-05,9.28762e-06,-1.15482e-07,-1.90404e-05,1.11223e-05,-9.42029e-06,2.17431e-05,2.09944e-05,7
-2.91511e-05,8.25321e-06,5.641e-07,-1.82145e-05,1.15852e-05,-9.32604e-06,2.56578e-05,3.98242e-06,7
-2.91478e-05,9.89024e-06,6.73502e-07,-1.50814e-05,1.20825e-05,-8.93359e-06,2.95194e-05,-1.4264e-05,7
-2.96637e-05,1.16304e-05,-2.35115e-06,-1.15792e-05,1.35724e-05,-1.0273e-05,2.84406e-05,-1.75534e-05,7
-3.03234e-05,1.125e-05,-7.24796e-06,-7.45685e-06,1.42909e-05,-1.28563e-05,2.05803e-05,-1.90664e-06,7
-2.99509e-05,9.81176e-06,-1.17773e-05,-2.17668e-06,1.23e-05,-1.36732e-05,9.20976e-06,1.51357e-05,7
-2.99422e-05,9.1076e-06,-1.45109e-05,2.50707e-06,8.98694e-06,-1.1287e-05,-6.80447e-07,1.24663e-05,7
-3.14835e-05,9.30281e-06,-1.51169e-05,4.8306e-06,7.86996e-06,-8.70364e-06,-6.59282e-06,-1.36059e-05,7
-3.27798e-05,1.00067e-05,-1.42191e-05,4.71589e-06,1.05793e-05,-9.46643e-06,-1.01601e-05,-4.94455e-05,7
-3.25641e-05,1.1216e-05,-1.15344e-05,3.35586e-06,1.38276e-05,-1.08094e-05,-1.31792e-05,-7.71689e-05,7
-3.14273e-05,1.23766e-05,-8.14423e-06,1.44622e-06,1.4177e-05,-9.52066e-06,-1.28015e-05,-8.51619e-05,7
-3.06084e-05,1.27551e-05,-6.78961e-06,5.12834e-07,1.21034e-05,-8.26319e-06,-7.66014e-06,-6.91464e-05,7
-3.20058e-05,1.27577e-05,-6.54221e-06,-5.03167e-08,1.05109e-05,-9.0081e-06,1.12328e-06,-3.43273e-05,7
-3.42825e-05,1.20976e-05,-6.25201e-06,-1.70981e-06,1.14086e-05,-1.12577e-05,1.04066e-05,-3.42944e-06,7
-3.54574e-05,1.0665e-05,-5.07993e-06,-4.46923e-06,1.24497e-05,-1.31456e-05,1.90183e-05,6.73848e-06,7
-3.63678e-05,9.45774e-06,-1.68673e-06,-7.4564e-06,1.34715e-05,-1.29158e-05,2.5177e-05,2.09678e-06,7
-3.64041e-05,9.17974e-06,6.78824e-07,-7.62669e-06,1.43402e-05,-1.12531e-05,2.7739e-05,-3.25378e-06,7
-3.54264e-05,1.01626e-05,-3.16475e-07,-5.45521e-06,1.53004e-05,-9.54266e-06,2.71832e-05,2.28598e-06,7
-3.28742e-05,1.2787e-05,-3.22659e-06,-3.01406e-06,1.75119e-05,-6.51536e-06,2.24514e-05,1.00247e-05,7
-3.02358e-05,1.563e-05,-4.36699e-06,8.90404e-07,1.95862e-05,-3.80575e-06,1.53733e-05,8.97936e-06,7
-2.93352e-05,1.69476e-05,-3.84641e-06,6.70893e-06,1.99915e-05,-3.28298e-06,4.88976e-06,5.51382e-06,7
-3.03963e-05,1.71305e-05,-3.32414e-06,1.13414e-05,1.75483e-05,-4.66163e-06,-4.63554e-06,1.43498e-05,7
-3.26591e-05,1.62371e-05,-5.17359e-06,1.08971e-05,1.36369e-05,-6.5298e-06,-6.34792e-06,3.34961e-05,7
-3.52114e-05,1.39736e-05,-8.75906e-06,7.26692e-06,1.0395e-05,-8.77105e-06,-5.05395e-07,4.81385e-05,7
-3.77646e-05,1.05579e-05,-9.54726e-06,4.53914e-06,9.08868e-06,-1.15614e-05,7.51416e-06,5.82539e-05,7
-3.99268e-05,7.7926e-06,-5.8158e-06,4.84021e-06,1.05912e-05,-1.38467e-05,1.46425e-05,7.30861e-05,7
-4.11311e-05,6.92765e-06,-1.68225e-06,4.51104e-06,1.59032e-05,-1.49389e-05,2.24194e-05,9.08387e-05,7
-3.98986e-05,7.42968e-06,-1.70555e-06,-2.77043e-07,2.17756e-05,-1.39662e-05,2.8096e-05,9.1388e-05,7
-3.66763e-05,8.61779e-06,-3.64058e-06,-8.62227e-06,2.25435e-05,-1.16855e-05,2.59292e-05,6.44324e-05,7
-3.37885e-05,1.08154e-05,-5.22969e-06,-1.82112e-05,1.60142e-05,-9.698e-06,1.65451e-05,2.53334e-05,7
-3.29603e-05,1.29372e-05,-6.82678e-06,-2.77628e-05,5.51806e-06,-8.49378e-06,8.22693e-06,-4.24406e-06,7
-3.30806e-05,1.2973e-05,-9.91248e-06,-3.48731e-05,-1.60731e-06,-8.26928e-06,5.2439e-06,-2.54927e-05,7
-3.32052e-05,1.17228e-05,-1.24824e-05,-3.57002e-05,-1.0985e-06,-7.95099e-06,5.78094e-06,-5.59313e-05,7
-3.31394e-05,1.06029e-05,-1.1346e-05,-3.02311e-05,4.06657e-06,-6.34544e-06,8.26245e-06,-9.97114e-05,7
-3.32773e-05,1.05816e-05,-5.62225e-06,-2.32174e-05,9.46904e-06,-4.817e-06,1.3867e-05,-0.000140193,7
-3.29813e-05,1.18872e-05,1.15318e-06,-2.03133e-05,1.32655e-05,-3.78394e-06,2.04258e-05,-0.000154201,7
-3.27303e-05,1.39888e-05,4.55331e-06,-2.20609e-05,1.49601e-05,-3.02763e-06,2.31724e-05,-0.000133824,7
-3.3422e-05,1.50078e-05,1.35453e-06,-2.64635e-05,1.59649e-05,-3.60279e-06,2.39104e-05,-9.27575e-05,7
-3.44292e-05,1.35491e-05,-6.41927e-06,-2.9704e-05,1.75679e-05,-5.39929e-06,2.58569e-05,-4.7696e-05,7
-3.4422e-05,1.19337e-05,-1.2372e-05,-2.76915e-05,1.86564e-05,-6.75064e-06,2.26006e-05,-6.39827e-06,7
-3.29142e-05,1.16385e-05,-1.3201e-05,-2.12296e-05,1.84812e-05,-8.42994e-06,1.37813e-05,2.73531e-05,7
-3.2255e-05,1.12978e-05,-1.10522e-05,-1.44908e-05,1.78205e-05,-1.08034e-05,7.53008e-06,4.40559e-05,7
-3.29726e-05,1.09827e-05,-1.06497e-05,-1.06083e-05,1.72876e-05,-1.18991e-05,5.75578e-06,4.0741e-05,7
-3.39131e-05,1.06591e-05,-1.07016e-05,-8.39654e-06,1.67396e-05,-1.16318e-05,2.86723e-06,2.92113e-05,7
-3.38604e-05,1.0107e-05,-8.49278e-06,-3.72196e-06,1.679e-05,-1.12495e-05,-5.64129e-06,1.8228e-05,7
-3.32723e-05,9.97197e-06,-4.48198e-06,1.06582e-06,1.88494e-05,-1.00828e-05,-1.3214e-05,1.0387e-05,7
-3.23422e-05,1.04128e-05,-1.9307e-06,1.72622e-06,1.97281e-05,-9.27632e-06,-1.16463e-05,1.31059e-05,7
-3.15397e-05,1.11573e-05,-2.51955e-06,-3.39576e-06,1.80212e-05,-8.90133e-06,-2.07334e-06,3.15023e-05,7
-3.09583e-05,1.30801e-05,-3.60127e-06,-8.72375e-06,1.57034e-05,-8.48055e-06,7.78544e-06,5.37657e-05,7
-2.998e-05,1.58032e-05,-4.36377e-06,-9.14057e-06,1.41305e-05,-8.45256e-06,1.36938e-05,6.57433e-05,7
-2.93946e-05,1.6726e-05,-5.71313e-06,-5.24238e-06,1.23067e-05,-8.16589e-06,1.55884e-05,6.66651e-05,7
-2.87349e-05,1.59646e-05,-7.29915e-06,6.43872e-06,8.89111e-06,-8.80018e-06,1.55736e-05,5.47746e-05,7
-2.74297e-05,1.6039e-05,-8.65524e-06,2.74906e-05,5.66298e-06,-1.00768e-05,1.31966e-05,2.47465e-05,7
-2.62358e-05,1.68702e-05,-9.34851e-06,4.94117e-05,4.41921e-06,-1.10133e-05,8.11732e-06,-1.6563e-05,7
-2.58272e-05,1.67901e-05,-9.93465e-06,6.0266e-05,4.96473e-06,-1.06767e-05,2.62281e-06,-5.70606e-05,7
-2.49278e-05,1.5008e-05,-1.09816e-05,5.48694e-05,5.76593e-06,-1.03055e-05,-3.86835e-07,-8.57759e-05,7
-2.36322e-05,1.30171e-05,-1.2033e-05,3.21828e-05,6.22298e-06,-1.08505e-05,1.23088e-06,-9.33691e-05,7
-2.39826e-05,1.29423e-05,-1.22385e-05,-4.91987e-06,7.4014e-06,-1.2101e-05,6.24415e-06,-7.79325e-05,7
-2.61304e-05,1.30487e-05,-1.14743e-05,-4.93733e-05,1.09144e-05,-1.26446e-05,1.0732e-05,-4.84414e-05,7
-2.75288e-05,1.19638e-05,-1.03783e-05,-8.41875e-05,1.55176e-05,-1.18085e-05,1.20049e-05,-1.66365e-05,7
-2.68057e-05,1.06241e-05,-1.01314e-05,-9.02894e-05,1.87279e-05,-1.1769e-05,1.23612e-05,7.99897e-06,7
-2.54389e-05,1.02908e-05,-1.1463e-05,-6.65584e-05,1.84854e-05,-1.29156e-05,1.31575e-05,2.20685e-05,7
-2.53233e-05,1.11063e-05,-1.3435e-05,-3.21983e-05,1.63496e-05,-1.33838e-05,1.38393e-05,2.86039e-05,7
-2.69707e-05,1.28127e-05,-1.34479e-05,-4.75552e-06,1.47533e-05,-1.18672e-05,1.35295e-05,3.06826e-05,7
-2.84123e-05,1.43329e-05,-9.08463e-06,1.22994e-05,1.45839e-05,-1.0438e-05,1.21406e-05,3.04816e-05,7
-2.7889e-05,1.54116e-05,-2.3387e-06,2.0879e-05,1.61051e-05,-1.06731e-05,1.23315e-05,3.0888e-05,7
-2.80863e-05,1.63103e-05,8.64561e-08,2.76898e-05,1.7793e-05,-1.17603e-05,1.55276e-05,3.93904e-05,7
-2.91143e-05,1.67922e-05,-2.47394e-06,3.77989e-05,1.91449e-05,-1.19066e-05,2.07586e-05,6.26388e-05,7
-2.85797e-05,1.69224e-05,-4.71044e-06,4.81894e-05,2.0269e-05,-1.03711e-05,2.46913e-05,0.000110226,7
-2.68256e-05,1.63321e-05,-4.52619e-06,5.19098e-05,1.9828e-05,-8.36588e-06,2.3327e-05,0.000166814,7
-2.39585e-05,1.64016e-05,-3.2144e-06,4.51921e-05,1.84836e-05,-8.45047e-06,2.00473e-05,0.00019594,7
-2.30093e-05,1.5248e-05,-1.91634e-06,3.64865e-05,1.67508e-05,-1.05442e-05,1.74175e-05,0.000197186,7
-2.50756e-05,1.30331e-05,-9.86117e-07,2.81688e-05,1.16982e-05,-1.20759e-05,1.39107e-05,0.000184406,7
-2.87927e-05,1.1502e-05,-3.21143e-06,1.7403e-05,6.61692e-06,-1.25566e-05,7.5555e-06,0.000154845,7
-3.04304e-05,1.12025e-05,-6.81579e-06,4.86976e-06,4.61149e-06,-1.28482e-05,3.01196e-06,8.75009e-05,7
-2.99188e-05,1.1508e-05,-9.26872e-06,-7.49697e-06,3.88051e-06,-1.36959e-05,5.61882e-06,-2.26672e-05,7
-2.98551e-05,1.06321e-05,-1.23539e-05,-1.4467e-05,3.27996e-06,-1.29673e-05,9.32519e-06,-0.000143816,7
-3.00706e-05,9.80142e-06,-1.53896e-05,-1.52113e-05,3.62639e-06,-1.01774e-05,1.05917e-05,-0.00023216,7
-3.01275e-05,9.94444e-06,-1.4293e-05,-1.11814e-05,6.55628e-06,-7.23586e-06,1.19328e-05,-0.000256429,7
-3.00918e-05,1.23572e-05,-9.7921e-06,-8.70337e-06,1.09848e-05,-6.10044e-06,1.51556e-05,-0.000213572,7
-3.10013e-05,1.42782e-05,-6.35573e-06,-9.57222e-06,1.52167e-05,-6.49213e-06,1.7581e-05,-0.000137597,7
-3.10526e-05,1.39216e-05,-4.73782e-06,-9.0415e-06,1.75392e-05,-7.20597e-06,1.74631e-05,-7.85838e-05,7
-3.01015e-05,1.30173e-05,-2.8919e-06,-5.99397e-06,1.80822e-05,-8.22618e-06,1.54626e-05,-5.26632e-05,7
-2.94262e-05,1.31962e-05,-8.07452e-07,-3.40481e-06,1.77099e-05,-9.24276e-06,1.29545e-05,-4.411e-05,7
-3.05178e-05,1.34299e-05,-6.35409e-07,-2.29431e-06,1.64379e-05,-1.07546e-05,1.10682e-05,-3.67609e-05,7
-3.17011e-05,1.29536e-05,-2.39662e-06,-2.96693e-06,1.43168e-05,-1.24491e-05,9.66344e-06,-2.81645e-05,7
-3.16675e-05,1.31556e-05,-5.34655e-06,-6.25769e-06,1.33661e-05,-1.33023e-05,7.78479e-06,-1.86502e-05,7
-3.11091e-05,1.40504e-05,-8.28499e-06,-1.13717e-05,1.38348e-05,-1.20597e-05,6.5938e-06,-9.63708e-06,7
-2.97205e-05,1.44166e-05,-9.37407e-06,-1.46842e-05,1.37622e-05,-1.06509e-05,8.15087e-06,-3.40338e-06,7
-2.89221e-05,1.3862e-05,-9.26663e-06,-1.29462e-05,1.43357e-05,-1.13148e-05,1.18482e-05,-8.55702e-07,7
-3.04605e-05,1.33002e-05,-9.18891e-06,-1.03885e-05,1.60651e-05,-1.22683e-05,1.80226e-05,1.28217e-06,7
-3.23712e-05,1.2709e-05,-7.68095e-06,-1.07337e-05,1.85175e-05,-1.19042e-05,2.49798e-05,6.84409e-06,7
-3.30078e-05,1.20514e-05,-6.84721e-06,-1.10554e-05,2.14009e-05,-1.14759e-05,2.92167e-05,2.19317e-05,7
-3.28425e-05,1.07156e-05,-7.18855e-06,-1.05195e-05,2.26802e-05,-1.06857e-05,2.75904e-05,5.55292e-05,7
-3.18499e-05,1.13818e-05,-6.97212e-06,-1.1407e-05,2.13246e-05,-1.00847e-05,1.94617e-05,9.64258e-05,7
-3.08997e-05,1.28854e-05,-5.43572e-06,-1.24457e-05,1.86188e-05,-9.19706e-06,8.85925e-06,0.000121909,7
-3.08854e-05,1.20248e-05,-4.23609e-06,-1.28723e-05,1.733e-05,-8.49376e-06,-2.72363e-06,0.000124624,7
-3.09148e-05,1.03718e-05,-4.02608e-06,-1.30469e-05,1.85128e-05,-9.81562e-06,-1.39813e-05,0.000106973,7
-3.11668e-05,1.02466e-05,-4.55504e-06,-1.16551e-05,2.09775e-05,-1.10006e-05,-1.85183e-05,7.29696e-05,7
-3.22392e-05,1.25154e-05,-5.52369e-06,-8.26978e-06,2.33587e-05,-1.10479e-05,-1.429e-05,2.87316e-05,7
-3.23449e-05,1.47558e-05,-6.15421e-06,-7.01407e-06,2.42434e-05,-1.02649e-05,-4.31898e-06,-2.12551e-05,7
-3.27138e-05,1.50879e-05,-7.72072e-06,-8.1078e-06,2.28861e-05,-7.65939e-06,6.75094e-06,-7.10753e-05,7
-3.24537e-05,1.42635e-05,-8.19643e-06,-8.25794e-06,2.07012e-05,-3.59779e-06,1.5879e-05,-0.000103567,7
-3.13217e-05,1.37624e-05,-9.61492e-06,-8.66332e-06,1.98221e-05,-2.33506e-06,2.14766e-05,-0.000107348,7
-3.073e-05,1.26191e-05,-1.35665e-05,-9.82403e-06,1.92933e-05,-4.8443e-06,2.20414e-05,-8.9222e-05,7
-3.09246e-05,1.03399e-05,-1.62909e-05,-9.26406e-06,1.89713e-05,-8.71766e-06,1.78854e-05,-6.25009e-05,7
-3.10311e-05,8.21134e-06,-1.40894e-05,-5.34043e-06,1.93922e-05,-1.16118e-05,1.38302e-05,-3.71162e-05,7
-3.03681e-05,6.95052e-06,-9.21871e-06,-7.38919e-08,1.99579e-05,-1.2641e-05,1.44247e-05,-1.57709e-05,7
-2.99793e-05,6.26441e-06,-6.05351e-06,2.31217e-06,1.9506e-05,-1.27032e-05,1.85232e-05,-3.4896e-07,7
-3.06128e-05,5.43947e-06,-7.15458e-06,-1.28853e-06,1.86623e-05,-1.18648e-05,2.03132e-05,8.69541e-06,7
-3.184e-05,5.40756e-06,-1.19966e-05,-9.14181e-06,1.85584e-05,-9.30029e-06,1.42306e-05,1.1696e-05,7
-3.13389e-05,7.32458e-06,-1.54959e-05,-1.42747e-05,1.79876e-05,-5.90091e-06,2.51537e-06,1.13553e-05,7
-2.94365e-05,1.04098e-05,-1.36252e-05,-1.21287e-05,1.62511e-05,-4.27429e-06,-6.26889e-06,8.30481e-06,7
-2.80316e-05,1.27196e-05,-7.86344e-06,-5.9404e-06,1.49959e-05,-5.07745e-06,-3.9334e-06,2.7007e-06,7
-2.77595e-05,1.359e-05,-3.48642e-06,-1.7873e-06,1.64827e-05,-6.34762e-06,7.20561e-06,-4.26654e-06,7
-2.74251e-05,1.27841e-05,-2.11102e-06,-1.51563e-06,1.91121e-05,-6.42547e-06,1.83219e-05,-1.00392e-05,7
-2.73675e-05,1.13615e-05,-1.98742e-06,-1.91404e-06,1.92178e-05,-5.59827e-06,2.49363e-05,-1.28745e-05,7
-2.79422e-05,1.11837e-05,-2.61964e-06,-4.32969e-08,1.71302e-05,-5.44181e-06,2.92095e-05,-1.09063e-05,7
-2.89469e-05,1.15836e-05,-4.99832e-06,2.74209e-06,1.39895e-05,-7.93426e-06,3.16802e-05,-4.43362e-06,7
-3.00039e-05,1.12855e-05,-6.56126e-06,3.98921e-06,9.11778e-06,-1.03945e-05,2.98309e-05,8.04114e-06,7
-3.00803e-05,1.12104e-05,-7.35555e-06,2.6916e-06,2.23322e-06,-1.02845e-05,2.32645e-05,4.47526e-05,7
-2.89623e-05,1.12775e-05,-7.70967e-06,-1.47451e-06,-4.37292e-06,-9.40799e-06,1.60414e-05,9.31254e-05,7
-2.74054e-05,1.17242e-05,-4.1422e-06,-4.74033e-06,-8.50631e-06,-8.24567e-06,1.1871e-05,0.000109284,7
-2.70056e-05,1.23891e-05,2.84836e-06,-6.40084e-06,-9.01511e-06,-7.62119e-06,1.04352e-05,9.29017e-05,7
-2.636e-05,1.29735e-05,8.17926e-06,-9.85802e-06,-4.43902e-06,-6.85964e-06,1.01195e-05,6.32401e-05,7
-2.48857e-05,1.47022e-05,8.56134e-06,-1.51765e-05,1.43979e-06,-5.3248e-06,8.69767e-06,2.64574e-05,7
-2.4795e-05,1.56861e-05,6.93434e-06,-2.02487e-05,5.89228e-06,-5.23515e-06,9.20652e-06,-1.52578e-05,7
-2.59824e-05,1.49309e-05,4.61892e-06,-2.35756e-05,7.24647e-06,-6.64366e-06,9.99724e-06,-5.36129e-05,7
-2.71421e-05,1.46702e-05,1.35576e-06,-2.62204e-05,5.9868e-06,-7.25319e-06,5.62492e-06,-7.73984e-05,7
-2.77249e-05,1.6735e-05,-1.69669e-06,-2.80598e-05,5.17416e-06,-6.45678e-06,-1.18255e-06,-8.22597e-05,7
-2.77768e-05,1.96606e-05,-4.38118e-06,-2.81999e-05,9.77596e-06,-5.42275e-06,-5.41653e-06,-6.43604e-05,7
-2.70439e-05,2.11585e-05,-5.06241e-06,-2.61257e-05,2.09612e-05,-5.27078e-06,-4.32877e-06,-2.99947e-05,7
-2.58819e-05,1.98691e-05,-4.13328e-06,-2.1523e-05,3.08216e-05,-6.23755e-06,2.40585e-06,6.30564e-06,7
-2.52144e-05,1.69248e-05,-4.76855e-06,-1.35157e-05,3.3078e-05,-7.81524e-06,1.25448e-05,3.11932e-05,7
-2.55311e-05,1.45165e-05,-7.02526e-06,-2.35669e-06,2.95995e-05,-8.75598e-06,2.12902e-05,3.92107e-05,7
-2.68691e-05,1.26755e-05,-7.94795e-06,9.72059e-06,2.67415e-05,-8.69661e-06,2.48149e-05,3.14762e-05,7
-2.79998e-05,1.15132e-05,-6.49818e-06,2.02863e-05,2.53172e-05,-8.4259e-06,2.23044e-05,1.34866e-05,7
-2.80115e-05,1.15309e-05,-4.88352e-06,2.73812e-05,2.24064e-05,-6.77979e-06,1.63844e-05,-9.19534e-06,7
-2.69013e-05,1.22965e-05,-5.24754e-06,2.92206e-05,1.70903e-05,-4.30392e-06,1.1316e-05,-3.19236e-05,7
-2.58064e-05,1.24007e-05,-7.40358e-06,2.67133e-05,1.28317e-05,-3.14756e-06,9.57732e-06,-5.07896e-05,7
-2.56172e-05,1.15623e-05,-9.43724e-06,2.41619e-05,1.20162e-05,-4.40406e-06,1.21136e-05,-6.01484e-05,7
-2.61806e-05,1.04595e-05,-9.30916e-06,2.37799e-05,1.35139e-05,-7.41581e-06,1.80405e-05,-5.49051e-05,7
-2.70748e-05,9.57413e-06,-7.6168e-06,2.26488e-05,1.50416e-05,-1.04845e-05,2.22992e-05,-3.8064e-05,7
-2.70373e-05,9.28781e-06,-6.93725e-06,1.67792e-05,1.43032e-05,-1.29497e-05,2.12475e-05,-2.08887e-05,7
-2.64599e-05,9.66971e-06,-6.73205e-06,1.10359e-05,1.06747e-05,-1.36303e-05,1.85922e-05,-1.08073e-05,7
-2.7255e-05,9.75814e-06,-7.32515e-06,9.52609e-06,7.22342e-06,-1.29704e-05,1.95167e-05,-6.32768e-06,7
-2.83386e-05,9.27037e-06,-9.66511e-06,7.07491e-06,4.83133e-06,-1.31818e-05,2.30141e-05,-3.7405e-06,7
-2.94828e-05,9.19977e-06,-1.10557e-05,5.18229e-07,4.28858e-06,-1.30526e-05,2.46812e-05,-2.24798e-06,7
-2.96268e-05,1.11002e-05,-1.01726e-05,-6.02512e-06,8.93729e-06,-1.22934e-05,2.51956e-05,7.58221e-07,7
-2.75423e-05,1.40317e-05,-6.949e-06,-1.02021e-05,1.70633e-05,-1.08532e-05,2.63249e-05,6.54125e-06,7
-2.54838e-05,1.46767e-05,-4.06184e-06,-1.57866e-05,2.20488e-05,-7.39023e-06,2.62291e-05,1.594e-05,7
-2.55724e-05,1.33583e-05,-6.23291e-06,-2.19871e-05,1.9054e-05,-4.31045e-06,2.4038e-05,2.93558e-05,7
-2.86665e-05,1.28241e-05,-1.23334e-05,-2.35301e-05,1.29538e-05,-3.05677e-06,1.91477e-05,3.95102e-05,7
-3.11569e-05,1.40631e-05,-1.55227e-05,-1.98768e-05,9.76459e-06,-2.52394e-06,1.31813e-05,4.8939e-05,7
-3.12228e-05,1.60898e-05,-1.14006e-05,-1.10832e-05,1.04578e-05,-1.41037e-06,9.15301e-06,6.78852e-05,7
-3.00667e-05,1.81934e-05,-4.73548e-06,-3.0241e-06,1.22293e-05,-3.8252e-07,5.27945e-06,0.000102062,7
-2.94131e-05,1.79107e-05,-2.75044e-06,-3.2828e-06,1.11897e-05,-2.10429e-06,8.38688e-07,0.000134199,7
-3.00927e-05,1.53821e-05,-6.36419e-06,-6.32725e-06,8.09039e-06,-6.4733e-06,-1.41374e-06,0.000131439,7
-3.16905e-05,1.29804e-05,-1.15869e-05,-5.2654e-06,6.9369e-06,-9.91106e-06,-5.8102e-07,8.4645e-05,7
-3.29132e-05,1.16305e-05,-1.37764e-05,4.32266e-07,8.84964e-06,-1.07509e-05,1.32101e-06,1.81724e-05,7
-3.24e-05,1.2606e-05,-1.25332e-05,9.26176e-06,1.16214e-05,-1.07227e-05,1.31021e-06,-3.21254e-05,7
-3.0877e-05,1.46687e-05,-9.86039e-06,1.99286e-05,1.3669e-05,-1.14264e-05,-2.33042e-06,-5.08499e-05,7
-2.94714e-05,1.56947e-05,-6.84388e-06,2.89644e-05,1.4943e-05,-1.22289e-05,-6.24651e-06,-5.01375e-05,7
-2.93384e-05,1.45297e-05,-4.27322e-06,3.3052e-05,1.5649e-05,-1.20503e-05,-7.08991e-06,-5.15017e-05,7
-3.05757e-05,1.2705e-05,-3.29531e-06,3.02435e-05,1.60362e-05,-1.16491e-05,-4.87443e-06,-6.65405e-05,7
-3.31546e-05,1.18223e-05,-4.90387e-06,2.05014e-05,1.62876e-05,-1.19071e-05,-8.54434e-07,-8.4255e-05,7
-3.59601e-05,1.16061e-05,-7.89314e-06,4.99981e-06,1.5285e-05,-1.27555e-05,4.38975e-06,-8.2452e-05,7
-3.75572e-05,1.15298e-05,-1.06777e-05,-1.75317e-05,1.33662e-05,-1.36475e-05,1.00287e-05,-5.9655e-05,7
-3.69136e-05,1.13792e-05,-1.14437e-05,-4.6129e-05,1.15019e-05,-1.31709e-05,1.40213e-05,-3.43865e-05,7
-3.54526e-05,1.08957e-05,-9.16917e-06,-7.1658e-05,1.02581e-05,-1.29141e-05,1.66962e-05,-2.24915e-05,7
-3.5376e-05,9.73973e-06,-6.89554e-06,-7.90013e-05,1.03617e-05,-1.54883e-05,1.99072e-05,-2.18003e-05,7
-3.75583e-05,8.51546e-06,-6.78939e-06,-6.41103e-05,1.14235e-05,-1.90675e-05,2.32598e-05,-8.53105e-06,7
-3.93403e-05,7.61992e-06,-9.14748e-06,-4.23329e-05,1.30048e-05,-2.03807e-05,2.33658e-05,3.30102e-05,7
-3.93776e-05,6.9086e-06,-1.39146e-05,-3.03127e-05,1.39114e-05,-1.96623e-05,2.07719e-05,8.93146e-05,7
-3.86745e-05,7.40124e-06,-1.85488e-05,-2.47369e-05,1.36719e-05,-1.79726e-05,1.8189e-05,0.00014006,7
-3.65416e-05,9.78551e-06,-2.03538e-05,-1.39418e-05,1.09052e-05,-1.4983e-05,1.69859e-05,0.000162755,7
-3.39474e-05,1.17658e-05,-1.83339e-05,9.14136e-07,5.776e-06,-1.28796e-05,1.77203e-05,0.000148365,7
-3.19641e-05,1.19236e-05,-1.60772e-05,6.92553e-06,1.73455e-06,-1.15381e-05,1.89299e-05,9.21119e-05,7
-3.25206e-05,1.09739e-05,-1.27342e-05,-4.95059e-07,9.62091e-07,-1.10343e-05,2.06845e-05,-5.09105e-06,7
-3.38166e-05,9.45563e-06,-7.76295e-06,-1.03476e-05,3.65698e-06,-1.17004e-05,2.50671e-05,-0.000100828,7
-3.43785e-05,8.48567e-06,-6.87945e-06,-1.38479e-05,6.80847e-06,-1.20393e-05,2.79651e-05,-0.000164776,7
-3.4124e-05,9.42156e-06,-9.36793e-06,-1.26735e-05,7.8912e-06,-1.1584e-05,2.50222e-05,-0.000183593,7
-3.28708e-05,1.19086e-05,-1.10664e-05,-1.3422e-05,6.50061e-06,-1.18587e-05,1.90144e-05,-0.00015846,7
-3.16778e-05,1.31463e-05,-9.92276e-06,-1.73919e-05,3.99512e-06,-1.2256e-05,1.37342e-05,-0.000107273,7
-3.07337e-05,1.31471e-05,-6.94871e-06,-2.10986e-05,4.28515e-06,-1.06948e-05,1.24067e-05,-5.51073e-05,7
-3.10683e-05,1.31977e-05,-4.42821e-06,-2.3225e-05,9.36232e-06,-8.86913e-06,1.33776e-05,-2.64196e-05,7
-3.19228e-05,1.40714e-05,-4.08352e-06,-2.25836e-05,1.59274e-05,-7.31745e-06,1.29006e-05,-2.39533e-05,7
-3.1624e-05,1.60522e-05,-4.66983e-06,-1.58298e-05,1.97798e-05,-6.52729e-06,1.05226e-05,-3.48636e-05,7
-2.9778e-05,1.73715e-05,-4.07292e-06,-5.27787e-06,1.96953e-05,-6.20107e-06,8.64755e-06,-4.3321e-05,7
-2.78951e-05,1.76587e-05,-2.06151e-06,1.26315e-06,1.73488e-05,-6.81902e-06,9.73645e-06,-4.40813e-05,7
-2.62912e-05,1.7483e-05,1.30574e-07,4.53843e-07,1.43053e-05,-8.83413e-06,1.19988e-05,-3.50053e-05,7
-2.55193e-05,1.67733e-05,1.48583e-06,-3.26619e-06,1.16095e-05,-1.12064e-05,1.20222e-05,-1.48853e-05,7
-2.61221e-05,1.50216e-05,1.77919e-06,-4.30802e-06,9.87925e-06,-1.20374e-05,8.33596e-06,1.36907e-05,7
-2.72127e-05,1.35853e-05,1.70517e-06,-2.09691e-06,8.10802e-06,-1.11777e-05,2.87032e-06,3.74364e-05,7
-2.79205e-05,1.33035e-05,1.23616e-06,-5.52339e-08,5.36041e-06,-1.00236e-05,-3.46693e-06,5.34594e-05,7
-2.73925e-05,1.34918e-05,-5.83266e-07,-9.45674e-07,3.14631e-06,-8.969e-06,-1.03275e-05,6.68894e-05,7
-2.57581e-05,1.29587e-05,-3.2656e-06,-2.70747e-06,6.26048e-06,-9.09412e-06,-1.37549e-05,7.47506e-05,7
-2.4945e-05,1.1777e-05,-6.20886e-06,-2.54656e-06,1.62663e-05,-1.05075e-05,-1.22549e-05,7.34649e-05,7
-2.49718e-05,1.11144e-05,-7.7963e-06,1.02877e-06,2.66562e-05,-1.14241e-05,-9.79409e-06,6.45716e-05,7
-2.41089e-05,1.13051e-05,-7.62266e-06,8.53376e-06,3.02883e-05,-1.11672e-05,-7.639e-06,4.91372e-05,7
-2.39167e-05,1.07594e-05,-7.05187e-06,1.72301e-05,2.64406e-05,-1.0119e-05,-2.87224e-06,3.01132e-05,7
-2.47535e-05,1.06975e-05,-8.00196e-06,1.96486e-05,1.87834e-05,-8.63582e-06,5.48087e-06,3.27419e-06,7
-2.62301e-05,1.10799e-05,-8.66833e-06,1.66561e-05,1.2293e-05,-8.62946e-06,1.39832e-05,-2.58918e-05,7
-2.83355e-05,1.05251e-05,-6.69084e-06,1.1153e-05,9.46968e-06,-1.01941e-05,2.00886e-05,-4.34745e-05,7
-3.0176e-05,1.01464e-05,-4.5378e-06,2.11666e-07,9.57457e-06,-1.26874e-05,2.21497e-05,-5.05575e-05,7
-3.07602e-05,9.673e-06,-4.72349e-06,-1.45481e-05,9.92692e-06,-1.40099e-05,1.96819e-05,-4.9741e-05,7
-3.06597e-05,1.01339e-05,-6.05372e-06,-2.72336e-05,9.8592e-06,-1.39371e-05,1.63728e-05,-4.2785e-05,7
-3.15022e-05,9.39121e-06,-7.35169e-06,-3.25196e-05,9.83159e-06,-1.37445e-05,1.23157e-05,-2.81453e-05,7
-3.16456e-05,7.77158e-06,-9.30253e-06,-2.83416e-05,9.59471e-06,-1.36525e-05,7.38604e-06,-9.28643e-06,7
-3.18855e-05,7.40265e-06,-1.06128e-05,-1.6612e-05,8.43255e-06,-1.40963e-05,4.41456e-06,7.87532e-06,7
-3.32367e-05,8.02272e-06,-9.26201e-06,-5.11785e-06,4.70697e-06,-1.37128e-05,8.37716e-06,1.6924e-05,7
-3.41312e-05,9.53983e-06,-5.54792e-06,1.71687e-06,1.38277e-06,-1.20221e-05,1.79378e-05,1.84272e-05,7
-3.3733e-05,1.22182e-05,-1.79226e-06,5.62643e-06,3.9355e-06,-9.50236e-06,2.41256e-05,1.78812e-05,7
-3.1309e-05,1.47227e-05,8.52248e-07,1.14992e-05,1.45245e-05,-7.35941e-06,2.18034e-05,1.8158e-05,7
-2.96736e-05,1.50132e-05,1.12991e-06,1.85998e-05,2.77483e-05,-6.69854e-06,1.5338e-05,1.85096e-05,7
-3.0376e-05,1.31949e-05,-5.31984e-07,2.18825e-05,3.46054e-05,-7.98637e-06,1.17639e-05,1.74867e-05,7
-3.21053e-05,1.11373e-05,-1.04366e-06,1.79867e-05,3.28668e-05,-1.10742e-05,1.23001e-05,1.48954e-05,7
-3.23415e-05,1.05855e-05,4.13276e-07,8.80316e-06,2.76855e-05,-1.39465e-05,1.34696e-05,1.14463e-05,7
-3.11956e-05,1.03607e-05,9.34054e-08,-1.12811e-06,2.40486e-05,-1.45457e-05,1.36831e-05,9.88844e-06,7
-3.11669e-05,1.05023e-05,-5.40495e-06,-1.04433e-05,2.30565e-05,-1.22117e-05,1.79157e-05,1.13421e-05,7
-3.18331e-05,1.25334e-05,-1.33866e-05,-1.72507e-05,2.45236e-05,-7.2676e-06,2.74826e-05,1.47232e-05,7
-3.11499e-05,1.54593e-05,-1.80144e-05,-1.91599e-05,2.59911e-05,-2.40662e-06,3.56755e-05,1.72277e-05,7
-2.95336e-05,1.62902e-05,-1.72582e-05,-1.71865e-05,2.28867e-05,8.7142e-08,3.63447e-05,1.86545e-05,7
-2.84653e-05,1.40723e-05,-1.44905e-05,-1.31332e-05,1.52562e-05,1.73803e-07,3.21875e-05,1.92791e-05,7
-2.83846e-05,1.09156e-05,-1.25606e-05,-7.00445e-06,8.53705e-06,-2.49382e-06,3.04311e-05,1.89349e-05,7
-2.9236e-05,9.64009e-06,-1.15219e-05,-1.25314e-06,7.58038e-06,-6.88505e-06,3.35851e-05,1.7306e-05,7
-2.9916e-05,9.90435e-06,-1.02869e-05,2.33966e-06,1.32822e-05,-9.99298e-06,3.35364e-05,1.49034e-05,7
-2.95533e-05,1.10888e-05,-8.71059e-06,3.11377e-06,2.07038e-05,-1.04377e-05,2.27337e-05,1.19827e-05,7
-2.7864e-05,1.21976e-05,-8.0284e-06,3.64892e-06,2.48194e-05,-9.42019e-06,3.30946e-06,8.66664e-06,7
-2.78197e-05,1.22936e-05,-6.36789e-06,8.44044e-07,2.41119e-05,-9.08551e-06,-1.17744e-05,6.45455e-06,7
-2.85681e-05,1.24782e-05,-3.03065e-06,-6.49837e-06,2.1082e-05,-1.07334e-05,-1.58823e-05,3.82052e-06,7
-2.90797e-05,1.27689e-05,-1.1304e-06,-1.23115e-05,1.90535e-05,-1.305e-05,-1.57415e-05,1.44187e-06,7
-3.16097e-05,1.30838e-05,-1.60879e-06,-1.61207e-05,1.89825e-05,-1.41e-05,-1.57689e-05,5.25571e-06,7
-3.43685e-05,1.38777e-05,-2.94102e-06,-1.87967e-05,2.12366e-05,-1.25871e-05,-1.37182e-05,1.37513e-05,7
-3.54785e-05,1.41311e-05,-3.39433e-06,-1.79406e-05,2.13637e-05,-1.01755e-05,-6.06122e-06,1.95024e-05,7
-3.38401e-05,1.39663e-05,-3.95261e-06,-1.41981e-05,1.76902e-05,-8.62748e-06,2.10842e-06,2.29948e-05,7
-3.12234e-05,1.34713e-05,-4.22804e-06,-9.77302e-06,1.46407e-05,-7.42488e-06,8.24368e-06,3.66341e-05,7
-3.02078e-05,1.22092e-05,-4.43696e-06,-5.73828e-06,1.52208e-05,-6.93729e-06,1.2707e-05,6.13341e-05,7
-3.01122e-05,1.15787e-05,-5.35318e-06,-2.28722e-06,1.74814e-05,-7.33434e-06,1.67347e-05,7.91131e-05,7
-3.00682e-05,1.22277e-05,-6.99221e-06,2.9845e-06,1.78844e-05,-7.3909e-06,1.90227e-05,8.24105e-05,7
-3.01655e-05,1.21109e-05,-1.03979e-05,8.38437e-06,1.59963e-05,-7.35818e-06,1.83317e-05,7.39768e-05,7
-3.07698e-05,8.86306e-06,-1.47277e-05,1.12812e-05,1.52821e-05,-8.48954e-06,1.50112e-05,5.56898e-05,7
-3.15701e-05,5.49111e-06,-1.68118e-05,1.36768e-05,1.70189e-05,-9.69105e-06,8.53102e-06,2.75999e-05,7
-3.2364e-05,6.78893e-06,-1.3544e-05,1.86734e-05,1.4056e-05,-8.98819e-06,2.14948e-06,-9.91806e-06,7
-3.14234e-05,1.22795e-05,-7.01318e-06,2.5325e-05,2.06182e-06,-6.81502e-06,4.82345e-07,-5.05119e-05,7
-2.89874e-05,1.64591e-05,-1.88143e-06,2.95922e-05,-1.11006e-05,-4.68143e-06,6.19453e-06,-7.39594e-05,7
-2.80691e-05,1.68279e-05,-1.90587e-07,2.86555e-05,-1.44494e-05,-3.42324e-06,1.57615e-05,-6.18394e-05,7
-2.95736e-05,1.50216e-05,-1.03013e-06,2.23678e-05,-7.48354e-06,-4.33676e-06,2.31309e-05,-2.66589e-05,7
-3.2011e-05,1.32196e-05,-3.32772e-06,1.44436e-05,1.57656e-06,-6.36211e-06,2.4395e-05,2.98461e-06,7
-3.37681e-05,1.23315e-05,-5.41783e-06,9.67426e-06,5.0459e-06,-7.40713e-06,2.27967e-05,1.28523e-05,7
