ch1,ch2,ch3,ch4,ch5,ch6,ch7,ch8,class
-3.52196e-05,1.572e-05,-1.31395e-05,-1.34789e-05,5.89763e-05,-1.12153e-05,4.34353e-05,-5.0615e-06,7
-3.61224e-05,1.57515e-05,-1.38656e-05,-1.39996e-05,4.52138e-05,-1.15811e-05,4.61209e-05,-3.10038e-05,7
-3.53869e-05,1.57417e-05,-1.37118e-05,-1.04973e-05,2.97665e-05,-1.21672e-05,4.39712e-05,-5.01472e-05,7
-3.43292e-05,1.6182e-05,-1.21373e-05,-9.18289e-06,1.16051e-05,-1.17668e-05,3.66149e-05,-4.94775e-05,7
-3.41544e-05,1.68654e-05,-9.00984e-06,-1.34545e-05,-9.86285e-06,-1.115e-05,2.03821e-05,-3.13765e-05,7
-3.47529e-05,1.65157e-05,-6.39079e-06,-1.9961e-05,-3.28351e-05,-1.12243e-05,-4.12674e-07,-1.4177e-05,7
-3.56811e-05,1.38883e-05,-4.91428e-06,-2.47595e-05,-5.09974e-05,-1.19024e-05,-1.27427e-05,-8.79333e-06,7
-3.64995e-05,1.18835e-05,-4.85336e-06,-2.70472e-05,-5.66051e-05,-1.19563e-05,-1.01514e-05,-7.96072e-06,7
-3.60605e-05,1.23811e-05,-6.65445e-06,-2.5472e-05,-5.16433e-05,-1.08112e-05,-8.23977e-07,4.88972e-06,7
-3.48581e-05,1.38897e-05,-8.38096e-06,-1.81549e-05,-4.26021e-05,-8.99382e-06,7.96385e-06,2.95427e-05,7
-3.42563e-05,1.46362e-05,-7.784e-06,-6.43982e-06,-2.93286e-05,-7.69944e-06,1.60468e-05,4.94473e-05,7
-3.49423e-05,1.4312e-05,-6.0642e-06,5.1784e-06,-1.19651e-05,-7.52768e-06,2.29629e-05,4.53933e-05,7
-3.62348e-05,1.32635e-05,-6.10217e-06,1.4007e-05,3.39621e-06,-8.15595e-06,2.57811e-05,1.40729e-05,7
-3.72425e-05,1.1904e-05,-6.39579e-06,1.94772e-05,1.10784e-05,-8.11955e-06,2.32955e-05,-3.42608e-05,7
-3.71827e-05,1.28326e-05,-5.08997e-06,2.08782e-05,1.19506e-05,-7.99018e-06,1.39509e-05,-8.088e-05,7
-3.58876e-05,1.44551e-05,-4.78608e-06,1.53013e-05,1.1025e-05,-1.00869e-05,-1.29981e-06,-0.00010556,7
-3.4209e-05,1.4744e-05,-7.43043e-06,2.66645e-06,1.12114e-05,-1.35433e-05,-1.82895e-05,-9.68989e-05,7
-3.21752e-05,1.35888e-05,-1.01427e-05,-1.20173e-05,1.05779e-05,-1.48436e-05,-2.59835e-05,-6.4586e-05,7
-2.92495e-05,1.22852e-05,-1.07492e-05,-2.3137e-05,9.35826e-06,-1.26268e-05,-1.86406e-05,-2.90366e-05,7
-2.65527e-05,1.1952e-05,-8.85985e-06,-2.81713e-05,1.01765e-05,-9.84602e-06,-7.91799e-06,-6.37522e-06,7
-2.64874e-05,1.2489e-05,-8.1688e-06,-2.68898e-05,1.40092e-05,-1.05331e-05,-4.56498e-06,1.9827e-06,7
-2.88983e-05,1.1572e-05,-1.02098e-05,-2.0048e-05,1.91789e-05,-1.49018e-05,-6.99554e-06,4.9785e-06,7
-3.19549e-05,8.35712e-06,-1.28058e-05,-1.24732e-05,2.05391e-05,-1.87746e-05,-6.51258e-06,1.07725e-05,7
-3.33911e-05,7.12297e-06,-1.38971e-05,-9.62176e-06,1.52934e-05,-1.91642e-05,1.53374e-06,2.59269e-05,7
-3.34619e-05,7.83013e-06,-1.37484e-05,-1.25817e-05,8.68833e-06,-1.63925e-05,1.3145e-05,4.82445e-05,7
-3.28186e-05,8.09591e-06,-1.42832e-05,-1.5601e-05,5.58837e-06,-1.23217e-05,2.22293e-05,6.45392e-05,7
-3.01174e-05,9.83612e-06,-1.3994e-05,-1.43223e-05,3.96157e-06,-8.12477e-06,2.46814e-05,6.83892e-05,7
-2.74555e-05,1.1483e-05,-1.19111e-05,-1.13147e-05,4.50912e-06,-6.46843e-06,2.17735e-05,7.26528e-05,7
-2.62248e-05,1.13016e-05,-6.56977e-06,-8.69542e-06,1.03538e-05,-7.0834e-06,1.62541e-05,8.36308e-05,7
-2.48607e-05,1.19356e-05,-1.26029e-06,-5.436e-06,1.75374e-05,-6.19702e-06,1.01327e-05,8.52424e-05,7
-2.2635e-05,1.41273e-05,2.17455e-06,5.74649e-07,1.96582e-05,-4.76814e-06,5.23979e-06,6.39255e-05,7
-2.05965e-05,1.60012e-05,3.36574e-06,5.30603e-06,1.74281e-05,-3.83932e-06,4.04897e-06,2.7559e-05,7
-2.07478e-05,1.62955e-05,8.99e-07,3.40406e-06,1.55036e-05,-3.75619e-06,6.75609e-06,-1.08469e-05,7
-2.39254e-05,1.51783e-05,-3.42331e-06,-1.74232e-06,1.65772e-05,-4.50343e-06,9.20449e-06,-3.58023e-05,7
-2.70873e-05,1.26407e-05,-7.44593e-06,-3.68579e-06,1.79818e-05,-6.50517e-06,9.39673e-06,-3.92215e-05,7
-2.87422e-05,9.33435e-06,-9.59706e-06,-2.19037e-06,1.62849e-05,-9.98258e-06,7.13579e-06,-2.85494e-05,7
-2.93734e-05,7.33757e-06,-1.14364e-05,-1.48142e-06,1.28081e-05,-1.25477e-05,5.70946e-06,-1.66707e-05,7
-2.8754e-05,7.88919e-06,-1.22724e-05,-5.86584e-07,1.17902e-05,-1.26136e-05,7.99551e-06,-1.06882e-05,7
-2.65683e-05,1.15682e-05,-9.07757e-06,7.77917e-06,1.64179e-05,-9.8091e-06,1.32835e-05,-8.1669e-06,7
-2.36743e-05,1.66597e-05,-2.05265e-06,2.29514e-05,2.32384e-05,-5.27093e-06,1.81434e-05,-5.55598e-06,7
-2.22681e-05,1.93237e-05,3.0606e-06,3.36981e-05,2.62219e-05,-2.21377e-06,1.90335e-05,-1.78811e-06,7
-2.23465e-05,1.84061e-05,2.84943e-06,3.38563e-05,2.51062e-05,-3.26534e-06,1.47867e-05,2.96337e-06,7
-2.38959e-05,1.50986e-05,-7.60518e-07,2.55761e-05,2.386e-05,-6.03439e-06,8.32097e-06,7.09846e-06,7
-2.58623e-05,1.2589e-05,-4.14391e-06,1.05332e-05,2.45094e-05,-8.25089e-06,3.25221e-06,6.73545e-06,7
-2.66799e-05,1.22079e-05,-5.48354e-06,-1.11798e-05,2.61473e-05,-9.50271e-06,1.69239e-06,3.24368e-06,7
-2.66766e-05,1.20318e-05,-7.25229e-06,-3.57536e-05,2.57934e-05,-9.23798e-06,7.86388e-06,8.24554e-06,7
-2.65748e-05,1.24114e-05,-1.07578e-05,-5.71431e-05,2.32588e-05,-8.60498e-06,2.41592e-05,4.6288e-05,7
-2.69213e-05,1.22868e-05,-1.34249e-05,-6.79261e-05,2.08513e-05,-8.52487e-06,4.47624e-05,0.000125753,7
-2.71068e-05,1.124e-05,-1.37275e-05,-5.65801e-05,1.82917e-05,-9.13445e-06,6.12038e-05,0.000199758,7
-2.56421e-05,1.059e-05,-1.1392e-05,-2.64083e-05,1.65098e-05,-9.70551e-06,6.48945e-05,0.000208027,7
-2.4028e-05,1.01672e-05,-7.95682e-06,2.2316e-06,1.60717e-05,-1.07533e-05,5.76589e-05,0.000166911,7
-2.39108e-05,1.01813e-05,-6.21686e-06,1.734e-05,1.50359e-05,-1.20896e-05,4.74037e-05,0.000110178,7
-2.49881e-05,9.30953e-06,-6.50871e-06,2.1261e-05,1.30517e-05,-1.19095e-05,3.42158e-05,3.96846e-05,7
-2.6773e-05,8.11534e-06,-8.01142e-06,2.14422e-05,1.10383e-05,-1.24713e-05,1.94913e-05,-3.18444e-05,7
-2.74609e-05,7.4451e-06,-1.00396e-05,2.17963e-05,1.18084e-05,-1.45621e-05,7.0535e-06,-9.65437e-05,7
-2.60668e-05,8.81954e-06,-9.92232e-06,2.31799e-05,1.56116e-05,-1.51283e-05,1.82679e-06,-0.000139394,7
-2.52782e-05,1.17031e-05,-7.13887e-06,1.60689e-05,1.99285e-05,-1.28542e-05,1.52719e-06,-0.000154199,7
-2.64029e-05,1.41502e-05,-4.93135e-06,-6.19063e-06,2.30393e-05,-1.05598e-05,2.4841e-06,-0.000147106,7
-2.78172e-05,1.54202e-05,-5.44867e-06,-3.76298e-05,2.53772e-05,-9.94556e-06,4.7107e-06,-0.000130609,7
-2.84614e-05,1.54929e-05,-7.85829e-06,-6.2083e-05,2.85402e-05,-9.61156e-06,7.371e-06,-0.000108469,7
-2.86755e-05,1.53207e-05,-9.31187e-06,-6.43057e-05,3.17388e-05,-9.6712e-06,8.27681e-06,-7.82327e-05,7
-2.89511e-05,1.42995e-05,-9.50492e-06,-4.79534e-05,3.29858e-05,-9.36314e-06,7.86421e-06,-4.62106e-05,7
-2.9619e-05,1.19908e-05,-7.77533e-06,-2.83424e-05,2.98367e-05,-8.38971e-06,7.91536e-06,-1.89778e-05,7
-3.12497e-05,9.2774e-06,-5.80251e-06,-1.79574e-05,2.09591e-05,-7.93849e-06,7.61906e-06,-2.05134e-06,7
-3.29568e-05,8.47943e-06,-5.74562e-06,-1.57884e-05,6.9652e-06,-8.94608e-06,5.87676e-06,4.31528e-06,7
-3.36283e-05,9.19697e-06,-7.20796e-06,-1.38004e-05,-6.20657e-06,-1.00929e-05,8.55526e-07,-1.92222e-07,7
-3.22275e-05,9.32199e-06,-7.94009e-06,5.85012e-07,-1.06098e-05,-1.06306e-05,-6.40262e-06,-1.2304e-05,7
-2.90898e-05,9.21069e-06,-6.64715e-06,3.54617e-05,-2.40602e-06,-1.09175e-05,-1.2544e-05,-3.13144e-05,7
-2.59928e-05,1.05174e-05,-4.24762e-06,7.99737e-05,1.34674e-05,-1.06178e-05,-1.41279e-05,-4.86458e-05,7
-2.39409e-05,1.1873e-05,-2.14356e-06,0.000110265,2.37003e-05,-9.46741e-06,-1.10126e-05,-5.19011e-05,7
-2.34156e-05,1.15098e-05,-7.55466e-07,0.000110107,2.08155e-05,-8.07966e-06,-3.22233e-06,-3.55836e-05,7
-2.5658e-05,1.10043e-05,5.79155e-07,7.87453e-05,1.05439e-05,-6.92651e-06,7.59556e-06,-1.0296e-05,7
-2.81745e-05,1.12238e-05,1.5839e-06,2.51035e-05,3.66871e-06,-5.19819e-06,1.81505e-05,1.1121e-05,7
-2.73064e-05,1.20087e-05,1.95321e-06,-4.36513e-05,3.31387e-06,-4.72818e-06,2.61736e-05,2.27989e-05,7
-2.51617e-05,1.37782e-05,2.35513e-06,-0.000115227,4.44289e-06,-4.6806e-06,3.11203e-05,2.53851e-05,7
-2.46127e-05,1.35164e-05,2.64784e-06,-0.000163322,4.04956e-06,-4.8254e-06,3.40902e-05,1.95651e-05,7
-2.56436e-05,1.19959e-05,5.73924e-07,-0.000164113,4.50709e-06,-7.17307e-06,3.14728e-05,1.13737e-05,7
-2.79958e-05,1.01343e-05,-2.60662e-06,-0.000131509,8.14555e-06,-9.92365e-06,2.28548e-05,7.06768e-06,7
-3.07137e-05,9.16192e-06,-4.50278e-06,-9.6986e-05,1.23752e-05,-1.02172e-05,1.35385e-05,2.95946e-06,7
-3.18002e-05,1.13503e-05,-3.88246e-06,-6.85425e-05,1.58106e-05,-8.08398e-06,6.86743e-06,-1.62999e-06,7
-3.08633e-05,1.32357e-05,-1.06678e-06,-4.05586e-05,1.77869e-05,-5.45722e-06,3.68133e-06,-2.58049e-06,7
-3.09089e-05,1.34186e-05,1.90777e-06,-4.79121e-06,1.73729e-05,-4.13824e-06,5.6116e-06,1.00585e-07,7
-3.31661e-05,1.24801e-05,2.22201e-06,3.08409e-05,1.54648e-05,-5.92339e-06,1.54745e-05,1.6133e-06,7
-3.46971e-05,1.20829e-05,3.11878e-07,5.05745e-05,1.45046e-05,-8.12991e-06,2.71922e-05,3.4504e-06,7
-3.45422e-05,1.22577e-05,-1.53891e-06,5.6425e-05,1.49596e-05,-8.91108e-06,3.0422e-05,4.75229e-06,7
-3.37764e-05,1.22775e-05,-4.18618e-06,6.54391e-05,1.45394e-05,-8.72319e-06,2.23194e-05,3.85685e-06,7
-3.39054e-05,1.14819e-05,-9.35262e-06,7.688e-05,1.3307e-05,-9.02767e-06,1.05557e-05,8.90313e-07,7
-3.47782e-05,1.10024e-05,-1.48435e-05,8.06676e-05,1.20045e-05,-1.00597e-05,6.06221e-06,3.39906e-07,7
-3.46978e-05,1.12767e-05,-1.72581e-05,7.34584e-05,1.11843e-05,-1.06799e-05,9.36387e-06,2.91212e-06,7
-3.29177e-05,1.25727e-05,-1.59376e-05,5.55691e-05,1.04345e-05,-9.95513e-06,1.33361e-05,7.07457e-06,7
-3.12693e-05,1.44013e-05,-1.212e-05,2.56185e-05,1.09791e-05,-8.72791e-06,1.56811e-05,1.44724e-05,7
-3.1184e-05,1.48948e-05,-8.24695e-06,-1.69975e-05,1.2952e-05,-9.62121e-06,1.90847e-05,2.30003e-05,7
-3.23236e-05,1.38568e-05,-5.53312e-06,-6.28177e-05,1.47514e-05,-9.74314e-06,2.32852e-05,2.52932e-05,7
-3.34218e-05,1.23793e-05,-3.79994e-06,-9.34278e-05,1.4826e-05,-7.57284e-06,2.74629e-05,2.06178e-05,7
-3.40504e-05,1.14379e-05,-4.3127e-06,-9.2267e-05,1.28195e-05,-6.91968e-06,3.21523e-05,1.5652e-05,7
-3.51466e-05,1.00386e-05,-8.98673e-06,-6.67182e-05,1.04182e-05,-1.05225e-05,3.34602e-05,1.37584e-05,7
-3.70018e-05,9.02611e-06,-1.47197e-05,-3.72027e-05,1.24082e-05,-1.51628e-05,2.68026e-05,1.36799e-05,7
-3.91725e-05,9.2358e-06,-1.84234e-05,-1.58876e-05,1.96034e-05,-1.74352e-05,1.71434e-05,1.26239e-05,7
-4.01296e-05,1.00218e-05,-1.94253e-05,-1.70192e-06,2.46359e-05,-1.65019e-05,1.11034e-05,8.34331e-06,7
-3.93585e-05,1.10483e-05,-1.76335e-05,9.2964e-06,2.53412e-05,-1.19594e-05,7.38835e-06,1.09484e-06,7
-3.68209e-05,1.37931e-05,-1.49715e-05,2.02012e-05,2.52387e-05,-6.41858e-06,1.34231e-07,-5.86482e-06,7
-3.35783e-05,1.70236e-05,-1.25275e-05,2.80156e-05,2.5878e-05,-3.20592e-06,-8.90631e-06,-8.58105e-06,7
-3.13186e-05,1.72288e-05,-9.84585e-06,3.05872e-05,2.5986e-05,-3.55933e-06,-1.10647e-05,-2.36964e-06,7
-2.99518e-05,1.56819e-05,-8.02566e-06,2.85541e-05,2.37718e-05,-5.5437e-06,-5.74489e-06,6.8936e-06,7
-2.91946e-05,1.49617e-05,-5.68866e-06,2.38966e-05,2.01518e-05,-7.42473e-06,-2.86033e-07,1.11484e-05,7
-2.96094e-05,1.3593e-05,-2.17036e-06,1.85178e-05,1.50801e-05,-1.00361e-05,5.45567e-06,1.03214e-05,7
-2.97412e-05,1.28011e-05,-7.80794e-07,1.41227e-05,8.32176e-06,-1.18876e-05,1.29888e-05,7.14367e-06,7
-2.90092e-05,1.34691e-05,-3.93796e-06,1.13818e-05,2.16907e-06,-1.3071e-05,1.75085e-05,6.35917e-06,7
-2.82212e-05,1.33841e-05,-9.33023e-06,7.859e-06,-2.81587e-06,-1.46781e-05,1.92064e-05,9.22038e-06,7
-2.83218e-05,1.22037e-05,-1.38441e-05,4.35836e-06,-8.4848e-06,-1.62503e-05,1.91492e-05,1.34052e-05,7
-2.85822e-05,1.22967e-05,-1.69688e-05,3.29381e-06,-1.57991e-05,-1.59706e-05,1.5205e-05,2.25598e-05,7
-2.82178e-05,1.384e-05,-1.58433e-05,5.98611e-06,-2.27972e-05,-1.24183e-05,4.44905e-06,3.75085e-05,7
-2.7018e-05,1.56341e-05,-1.18483e-05,1.65784e-05,-2.64755e-05,-7.74359e-06,-7.7226e-06,4.86352e-05,7
-2.54614e-05,1.69985e-05,-8.3938e-06,3.57201e-05,-2.37365e-05,-4.99608e-06,-1.48503e-05,5.10162e-05,7
-2.50521e-05,1.70202e-05,-7.20642e-06,5.26071e-05,-1.4947e-05,-5.02273e-06,-1.55759e-05,4.6529e-05,7
-2.51173e-05,1.64656e-05,-6.52779e-06,5.88124e-05,-4.48298e-06,-6.28798e-06,-1.39486e-05,3.67943e-05,7
-2.56303e-05,1.46756e-05,-3.95633e-06,5.05944e-05,3.59144e-06,-8.11335e-06,-1.44346e-05,2.1402e-05,7
-2.65922e-05,1.15764e-05,-1.19425e-06,2.84476e-05,8.80146e-06,-9.36561e-06,-1.52657e-05,3.88496e-06,7
-2.81572e-05,9.17153e-06,-1.22844e-06,-3.09145e-06,1.22991e-05,-9.92324e-06,-1.34425e-05,-9.20388e-06,7
-2.96223e-05,9.37556e-06,-4.26153e-06,-3.69966e-05,1.418e-05,-1.0704e-05,-6.81563e-06,-1.02126e-05,7
-3.07425e-05,1.08577e-05,-7.24613e-06,-6.59079e-05,1.26657e-05,-1.18906e-05,4.77561e-06,3.33522e-06,7
-3.12054e-05,1.19232e-05,-7.98814e-06,-7.95723e-05,9.32685e-06,-1.12836e-05,2.07739e-05,2.46275e-05,7
-3.16603e-05,1.22069e-05,-6.38773e-06,-7.57254e-05,8.43314e-06,-8.11585e-06,3.99682e-05,4.65828e-05,7
-3.24035e-05,1.25852e-05,-5.20565e-06,-6.62933e-05,1.04786e-05,-5.26346e-06,5.91015e-05,6.23357e-05,7
-3.21802e-05,1.29912e-05,-4.7225e-06,-6.01209e-05,1.1982e-05,-5.00508e-06,6.84613e-05,6.93052e-05,7
-2.99159e-05,1.32449e-05,-3.15746e-06,-5.38707e-05,1.04892e-05,-6.20117e-06,6.29747e-05,6.63219e-05,7
-2.663e-05,1.34743e-05,-2.08114e-06,-3.88485e-05,9.42269e-06,-7.15794e-06,4.41397e-05,4.13196e-05,7
-2.66499e-05,1.22802e-05,-3.49402e-06,-1.34692e-05,1.15925e-05,-8.5451e-06,2.29736e-05,-3.21229e-06,7
-2.98452e-05,9.69981e-06,-5.63978e-06,1.24172e-05,1.66382e-05,-1.12494e-05,1.12087e-05,-3.7969e-05,7
-3.20148e-05,8.19933e-06,-5.78633e-06,2.53901e-05,2.21854e-05,-1.34941e-05,7.87426e-06,-3.8301e-05,7
-3.24903e-05,8.77031e-06,-4.03199e-06,2.43464e-05,2.30442e-05,-1.39384e-05,8.55617e-06,-1.45115e-05,7
-3.22223e-05,8.59354e-06,-4.53359e-06,1.68623e-05,1.85577e-05,-1.2778e-05,8.07793e-06,-6.69716e-06,7
-3.0995e-05,6.81111e-06,-7.13497e-06,8.17731e-06,1.45654e-05,-9.20522e-06,4.95857e-06,-2.46768e-05,7
-3.00554e-05,7.29784e-06,-9.61877e-06,3.10755e-06,1.3828e-05,-5.10569e-06,2.57094e-06,-5.26658e-05,7
-2.98584e-05,1.01447e-05,-1.02641e-05,1.99801e-06,1.39003e-05,-4.27288e-06,4.16906e-06,-7.28415e-05,7
-2.89333e-05,1.22525e-05,-7.28522e-06,5.6418e-06,1.20947e-05,-6.2742e-06,8.45398e-06,-7.27675e-05,7
-2.70319e-05,1.34224e-05,-3.03586e-06,1.68664e-05,1.05058e-05,-8.03055e-06,1.11544e-05,-5.74268e-05,7
-2.67024e-05,1.32807e-05,-1.01261e-06,2.7495e-05,1.17263e-05,-8.40748e-06,1.49251e-05,-3.76618e-05,7
-2.78169e-05,1.16246e-05,-1.62807e-06,2.7108e-05,1.56685e-05,-7.63021e-06,2.50357e-05,-2.56197e-05,7
-2.87937e-05,1.04067e-05,-2.95651e-06,1.63258e-05,2.10996e-05,-7.3886e-06,3.57367e-05,-2.45295e-05,7
-2.93128e-05,1.24998e-05,-3.49002e-06,4.39685e-06,2.46093e-05,-7.8871e-06,3.80628e-05,-2.8664e-05,7
-2.95814e-05,1.5431e-05,-2.77111e-06,-4.19565e-06,2.37378e-05,-8.83197e-06,3.30483e-05,-2.67344e-05,7
-2.9894e-05,1.60372e-05,-2.94584e-06,-1.33218e-05,2.09068e-05,-9.49788e-06,2.63007e-05,-1.49249e-05,7
-2.97982e-05,1.47836e-05,-4.90425e-06,-2.62859e-05,2.03151e-05,-8.94053e-06,1.97134e-05,-2.09628e-06,7
-2.92375e-05,1.39263e-05,-7.74453e-06,-4.02165e-05,2.27171e-05,-8.00887e-06,1.34682e-05,3.99437e-06,7
-2.76265e-05,1.42211e-05,-9.73939e-06,-5.00372e-05,2.47983e-05,-6.88729e-06,9.42691e-06,8.4914e-06,7
-2.56941e-05,1.52198e-05,-1.07571e-05,-5.1295e-05,2.27869e-05,-5.13085e-06,8.49685e-06,1.54179e-05,7
-2.45085e-05,1.67164e-05,-1.0996e-05,-4.16309e-05,1.93084e-05,-3.70183e-06,9.40337e-06,1.74301e-05,7
-2.41178e-05,1.74125e-05,-1.02815e-05,-2.65987e-05,1.9631e-05,-3.82673e-06,1.00359e-05,1.35795e-05,7
-2.46018e-05,1.63824e-05,-9.58078e-06,-1.34193e-05,2.49577e-05,-6.70444e-06,5.87095e-06,1.30029e-05,7
-2.60757e-05,1.35378e-05,-9.43095e-06,-2.05428e-06,3.09722e-05,-1.18933e-05,-6.50253e-06,1.95816e-05,7
-2.77302e-05,1.15454e-05,-8.93626e-06,9.17391e-06,3.3336e-05,-1.53523e-05,-1.83963e-05,2.192e-05,7
-2.87309e-05,1.27048e-05,-8.32268e-06,1.51433e-05,3.16058e-05,-1.54607e-05,-1.83848e-05,8.13211e-06,7
-2.9105e-05,1.53543e-05,-6.98922e-06,1.25137e-05,2.80297e-05,-1.37892e-05,-1.06511e-05,-1.90248e-05,7
-2.86538e-05,1.52401e-05,-5.37485e-06,6.39488e-06,2.53721e-05,-1.19757e-05,-5.94493e-06,-5.59043e-05,7
-2.82926e-05,1.3362e-05,-7e-06,8.49362e-07,2.27946e-05,-1.09751e-05,-6.85159e-06,-9.31866e-05,7
-2.84211e-05,1.20811e-05,-9.74528e-06,-2.54212e-06,1.91007e-05,-1.08584e-05,-6.67086e-06,-0.00010833,7
-2.89864e-05,1.11307e-05,-1.05594e-05,-2.14287e-06,1.52303e-05,-1.12137e-05,-2.84785e-06,-8.2485e-05,7
-3.023e-05,1.22011e-05,-9.67499e-06,6.36457e-07,1.2132e-05,-1.20205e-05,3.25671e-06,-2.84502e-05,7
-3.04242e-05,1.44926e-05,-7.92991e-06,5.1559e-06,1.1985e-05,-1.19992e-05,8.95799e-06,2.08623e-05,7
-2.98727e-05,1.65521e-05,-5.47134e-06,9.5795e-06,1.48815e-05,-1.05612e-05,1.14701e-05,4.77366e-05,7
-3.01287e-05,1.64786e-05,-5.05753e-06,8.81913e-06,1.81893e-05,-1.04174e-05,1.13151e-05,5.23159e-05,7
-3.21532e-05,1.43548e-05,-8.10287e-06,3.98495e-06,2.03608e-05,-1.18133e-05,9.28205e-06,4.67096e-05,7
-3.48365e-05,1.39637e-05,-1.03489e-05,1.88766e-06,1.93787e-05,-1.25998e-05,8.49455e-06,3.84888e-05,7
-3.61789e-05,1.44165e-05,-9.19287e-06,7.24903e-06,1.72839e-05,-1.06199e-05,8.61322e-06,3.17392e-05,7
-3.55178e-05,1.49641e-05,-5.09414e-06,1.88105e-05,1.54269e-05,-7.36399e-06,7.51631e-06,2.54016e-05,7
-3.38125e-05,1.58239e-05,-2.51915e-06,2.8967e-05,1.13544e-05,-6.37854e-06,4.52652e-06,1.72784e-05,7
-3.37316e-05,1.61132e-05,-4.89763e-06,2.82619e-05,4.73609e-06,-8.10949e-06,-1.93194e-06,6.87231e-06,7
-3.48644e-05,1.51929e-05,-1.07096e-05,1.71987e-05,5.93288e-07,-1.08836e-05,-1.02458e-05,-3.23239e-06,7
-3.4216e-05,1.46815e-05,-1.31249e-05,6.71105e-06,2.6106e-06,-1.17618e-05,-1.42836e-05,-9.93717e-06,7
-3.12764e-05,1.65893e-05,-7.66992e-06,3.32607e-06,8.27134e-06,-8.84482e-06,-1.08126e-05,-1.11211e-05,7
-2.81091e-05,1.8912e-05,9.41278e-07,3.38061e-06,1.32838e-05,-4.84477e-06,-1.54544e-06,-8.08697e-06,7
-2.58088e-05,1.86709e-05,5.73349e-06,-6.14598e-07,1.52656e-05,-4.19494e-06,1.12913e-05,-5.55834e-06,7
-2.57166e-05,1.53193e-05,4.06267e-06,-9.49318e-06,1.39725e-05,-6.35333e-06,2.50241e-05,-4.36871e-06,7
-2.76533e-05,1.15193e-05,-1.62041e-06,-1.789e-05,9.26364e-06,-8.19007e-06,3.68173e-05,-5.59196e-06,7
-3.01567e-05,9.69705e-06,-7.73838e-06,-2.26252e-05,5.00795e-06,-9.1528e-06,4.7439e-05,-7.14458e-06,7
-3.21314e-05,9.22531e-06,-1.0853e-05,-2.53968e-05,3.86027e-06,-1.01615e-05,5.46667e-05,-5.29693e-06,7
-3.29904e-05,7.95498e-06,-1.03576e-05,-2.71634e-05,4.79151e-06,-1.19144e-05,4.95924e-05,2.23784e-06,7
-3.3398e-05,7.46564e-06,-8.6661e-06,-2.80787e-05,6.5359e-06,-1.36733e-05,3.24741e-05,1.09593e-05,7
-3.3758e-05,8.3852e-06,-8.57404e-06,-2.87293e-05,8.34211e-06,-1.35716e-05,1.55291e-05,2.14977e-05,7
-3.38098e-05,8.91395e-06,-9.26564e-06,-2.7873e-05,9.14031e-06,-1.25933e-05,6.13528e-06,4.84905e-05,7
-3.31634e-05,9.25207e-06,-8.44451e-06,-2.4692e-05,9.85541e-06,-1.05363e-05,9.35203e-07,9.53383e-05,7
-3.23962e-05,1.01095e-05,-6.41587e-06,-1.9295e-05,1.30649e-05,-7.61916e-06,-2.6682e-06,0.000131049,7
-3.04751e-05,1.19826e-05,-5.49536e-06,-1.16739e-05,1.86681e-05,-6.51341e-06,-5.19444e-06,0.000130067,7
-2.79958e-05,1.39181e-05,-5.70673e-06,-6.70168e-06,2.58704e-05,-6.83367e-06,-6.07407e-06,0.000103499,7
-2.66857e-05,1.44328e-05,-6.07986e-06,-6.9464e-06,3.2981e-05,-6.40414e-06,-6.97739e-06,7.55059e-05,7
-2.5235e-05,1.42896e-05,-6.76454e-06,-7.22497e-06,3.77228e-05,-5.61704e-06,-8.97232e-06,4.22344e-05,7
-2.41476e-05,1.357e-05,-6.9028e-06,-5.55632e-06,4.03258e-05,-6.01527e-06,-5.84674e-06,-1.61357e-05,7
-2.3434e-05,1.27129e-05,-5.30596e-06,-2.88496e-06,3.99549e-05,-6.38028e-06,2.22393e-06,-9.39527e-05,7
-2.35394e-05,1.19726e-05,-2.95994e-06,-2.91594e-07,3.50241e-05,-6.45328e-06,1.09495e-05,-0.000162203,7
-2.50241e-05,1.1491e-05,-2.03136e-06,2.93419e-06,2.52826e-05,-8.10074e-06,1.72015e-05,-0.000191457,7
-2.70931e-05,1.22271e-05,-2.31088e-06,4.99064e-06,1.34136e-05,-1.11162e-05,2.16579e-05,-0.000168311,7
-2.79051e-05,1.22245e-05,-4.37643e-06,3.77644e-06,3.56323e-06,-1.25775e-05,2.41909e-05,-0.000105289,7
-2.72157e-05,1.10276e-05,-8.36512e-06,1.7675e-06,-2.10285e-06,-1.14259e-05,2.3059e-05,-3.27782e-05,7
-2.66237e-05,1.05475e-05,-1.12096e-05,4.2575e-06,-5.78404e-06,-9.41362e-06,2.06695e-05,2.49777e-05,7
-2.79372e-05,1.12292e-05,-1.06392e-05,1.38628e-05,-9.11182e-06,-8.45995e-06,2.08993e-05,5.78223e-05,7
-3.15099e-05,1.11505e-05,-9.72683e-06,2.33762e-05,-7.07092e-06,-9.06074e-06,2.68478e-05,8.37317e-05,7
-3.4683e-05,1.05208e-05,-1.04816e-05,2.39919e-05,2.08393e-06,-9.91713e-06,3.5994e-05,0.00011639,7
-3.6103e-05,1.04655e-05,-1.05934e-05,1.99585e-05,1.3687e-05,-1.09668e-05,4.16286e-05,0.000134973,7
-3.57388e-05,1.07331e-05,-8.3414e-06,2.19161e-05,2.14347e-05,-1.26815e-05,4.12708e-05,0.000119194,7
-3.51435e-05,1.17216e-05,-6.11101e-06,2.97498e-05,2.25772e-05,-1.4102e-05,3.87457e-05,7.90083e-05,7
-3.5393e-05,1.3407e-05,-5.7898e-06,3.33879e-05,1.80912e-05,-1.4698e-05,3.67856e-05,3.08499e-05,7
-3.69722e-05,1.40148e-05,-5.57518e-06,2.49837e-05,9.89629e-06,-1.38776e-05,3.68297e-05,-1.96966e-05,7
-3.89138e-05,1.30614e-05,-4.3067e-06,5.75167e-06,-1.00654e-06,-1.18551e-05,3.70615e-05,-6.64667e-05,7
-3.94983e-05,1.29124e-05,-3.98748e-06,-1.68069e-05,-1.14467e-05,-1.00542e-05,3.37326e-05,-0.000101904,7
-3.83381e-05,1.45399e-05,-5.09669e-06,-3.49963e-05,-1.51961e-05,-9.52937e-06,2.61033e-05,-0.000121464,7
-3.63346e-05,1.64418e-05,-4.99638e-06,-4.66521e-05,-6.52973e-06,-8.46583e-06,1.5256e-05,-0.000125071,7
-3.38835e-05,1.69955e-05,-5.20709e-06,-5.1813e-05,1.31074e-05,-7.56692e-06,4.34328e-07,-0.000115845,7
-3.18384e-05,1.60942e-05,-6.4613e-06,-4.36602e-05,3.28068e-05,-7.97097e-06,-1.37591e-05,-9.83067e-05,7
-3.07437e-05,1.52321e-05,-6.91323e-06,-1.89076e-05,3.60055e-05,-7.53601e-06,-1.82661e-05,-7.38129e-05,7
-3.10964e-05,1.54406e-05,-5.21705e-06,1.1083e-05,2.00776e-05,-7.2818e-06,-1.2528e-05,-4.35814e-05,7
-3.27741e-05,1.479e-05,-3.53468e-06,2.28403e-05,5.45048e-06,-7.7043e-06,-5.55024e-06,-2.06156e-05,7
-3.38593e-05,1.47324e-05,-3.56165e-06,6.54224e-06,1.79118e-06,-8.75891e-06,-1.52662e-06,-9.86415e-06,7
-3.31613e-05,1.58099e-05,-3.13567e-06,-2.31226e-05,2.3749e-06,-8.94625e-06,4.76471e-06,-5.66498e-07,7
-3.17419e-05,1.64103e-05,-3.32924e-06,-5.14331e-05,1.61426e-06,-8.14476e-06,1.7991e-05,7.31664e-06,7
-3.04406e-05,1.66841e-05,-4.72511e-06,-5.9351e-05,1.4607e-06,-8.17668e-06,3.45772e-05,1.57403e-05,7
-2.94345e-05,1.61403e-05,-5.06488e-06,-4.34604e-05,2.56416e-06,-8.35461e-06,4.3646e-05,2.80007e-05,7
-2.88068e-05,1.64403e-05,-4.07903e-06,-1.86438e-05,-1.30955e-07,-8.37322e-06,4.22414e-05,4.20966e-05,7
-2.89637e-05,1.71367e-05,-3.77435e-06,-2.08329e-06,-3.98778e-06,-8.80256e-06,3.4447e-05,5.3901e-05,7
-2.9095e-05,1.69892e-05,-4.88693e-06,8.31423e-07,-2.19197e-06,-8.97834e-06,2.33234e-05,6.50364e-05,7
-2.75759e-05,1.61849e-05,-6.95718e-06,-1.59905e-06,6.04437e-06,-9.57975e-06,1.25769e-05,7.2936e-05,7
-2.63865e-05,1.47685e-05,-1.01093e-05,-3.57599e-06,1.44316e-05,-9.7042e-06,3.1931e-06,6.69668e-05,7
-2.65989e-05,1.28717e-05,-1.34946e-05,-3.55821e-06,1.77891e-05,-8.26958e-06,-6.82698e-06,4.27087e-05,7
-2.80852e-05,1.10823e-05,-1.51383e-05,-4.52875e-06,1.68769e-05,-7.40743e-06,-1.44405e-05,7.3155e-06,7
-2.92721e-05,1.08159e-05,-1.51125e-05,-4.64233e-06,1.54312e-05,-8.29157e-06,-1.35875e-05,-2.58979e-05,7
-2.9287e-05,1.22287e-05,-1.32931e-05,-3.3497e-06,1.54082e-05,-1.02945e-05,-5.1997e-06,-4.86729e-05,7
-2.80799e-05,1.38715e-05,-9.35023e-06,-1.9502e-06,1.58033e-05,-1.16165e-05,3.22134e-06,-5.7117e-05,7
-2.69535e-05,1.41916e-05,-5.53068e-06,-2.57068e-06,1.49452e-05,-1.19156e-05,6.82449e-06,-5.18062e-05,7
-2.72351e-05,1.37477e-05,-3.98092e-06,-3.68963e-06,1.26397e-05,-1.17643e-05,7.94907e-06,-3.56087e-05,7
-2.91139e-05,1.33123e-05,-3.44214e-06,-4.46692e-06,1.05246e-05,-1.20512e-05,1.03088e-05,-1.51869e-05,7
-3.10501e-05,1.30396e-05,-2.88113e-06,-5.1314e-06,1.0471e-05,-1.22974e-05,1.19053e-05,4.94625e-06,7
-3.14407e-05,1.25393e-05,-3.10242e-06,-6.29663e-06,1.32612e-05,-1.19465e-05,9.8335e-06,2.17528e-05,7
-3.17504e-05,1.23004e-05,-3.45145e-06,-7.21419e-06,1.69433e-05,-1.07822e-05,6.89648e-06,3.59151e-05,7
-3.28816e-05,1.23889e-05,-3.61872e-06,-6.5911e-06,1.85161e-05,-9.56815e-06,7.67161e-06,4.64774e-05,7
-3.29815e-05,1.25e-05,-4.88181e-06,-7.1801e-06,1.78176e-05,-8.74924e-06,1.08646e-05,5.02041e-05,7
-3.20852e-05,1.2935e-05,-6.45783e-06,-1.04947e-05,1.82405e-05,-8.61145e-06,1.28929e-05,4.36849e-05,7
-3.24842e-05,1.24753e-05,-7.21445e-06,-1.51196e-05,2.05725e-05,-9.4181e-06,1.41401e-05,2.63233e-05,7
-3.22167e-05,1.23705e-05,-6.83205e-06,-1.59947e-05,2.00532e-05,-8.45168e-06,1.51913e-05,-2.45938e-06,7
-3.07487e-05,1.36513e-05,-5.40567e-06,-1.16319e-05,1.45687e-05,-5.77456e-06,1.27079e-05,-3.55569e-05,7
-3.08214e-05,1.56139e-05,-4.23399e-06,-7.44829e-06,6.70567e-06,-6.4417e-06,7.6136e-06,-5.33474e-05,7
-3.09562e-05,1.70438e-05,-4.29335e-06,-7.82714e-06,-1.58579e-06,-8.72563e-06,6.77416e-06,-4.42202e-05,7
-2.89353e-05,1.8729e-05,-5.73026e-06,-1.13423e-05,-1.03632e-05,-8.15857e-06,8.30518e-06,-2.12775e-05,7
-2.60209e-05,2.05869e-05,-4.94952e-06,-1.0655e-05,-1.85356e-05,-6.12633e-06,7.42837e-06,-7.58814e-06,7
-2.27975e-05,1.93939e-05,-3.57136e-06,-2.6908e-06,-2.06909e-05,-4.60748e-06,5.47775e-06,-4.70857e-06,7
-2.0412e-05,1.69576e-05,-2.08203e-06,5.36554e-06,-1.20801e-05,-2.44706e-06,6.43534e-06,-3.64682e-06,7
-2.02558e-05,1.83098e-05,-2.0708e-06,7.53378e-06,3.49363e-06,8.38394e-07,1.20911e-05,5.72391e-07,7
-2.22741e-05,2.07992e-05,-5.32908e-06,4.73293e-06,1.51597e-05,1.86092e-06,1.99625e-05,6.48415e-06,7
-2.42209e-05,1.98592e-05,-8.67473e-06,1.24175e-06,1.80522e-05,-4.36114e-07,2.64915e-05,1.2085e-05,7
-2.54246e-05,1.73323e-05,-1.00934e-05,4.43981e-07,1.65236e-05,-4.26209e-06,2.71776e-05,1.62864e-05,7
-2.62406e-05,1.54579e-05,-8.9637e-06,2.36538e-06,1.6524e-05,-7.21983e-06,2.01334e-05,1.71882e-05,7
-2.68825e-05,1.46779e-05,-8.15433e-06,3.64878e-06,1.8052e-05,-7.94245e-06,8.22483e-06,1.44561e-05,7
-2.74061e-05,1.43253e-05,-7.70348e-06,3.27181e-06,1.76936e-05,-7.55738e-06,-2.88768e-06,1.10935e-05,7
-2.754e-05,1.4494e-05,-7.29935e-06,2.51215e-06,1.5384e-05,-8.15898e-06,-8.55272e-06,1.03737e-05,7
-2.71835e-05,1.46022e-05,-6.541e-06,3.74715e-06,1.40762e-05,-9.72606e-06,-7.2659e-06,1.31586e-05,7
-2.64748e-05,1.42957e-05,-6.23503e-06,7.59365e-06,1.61608e-05,-1.12847e-05,9.2708e-08,1.82262e-05,7
-2.57525e-05,1.3574e-05,-5.64923e-06,1.20623e-05,2.09299e-05,-1.21945e-05,1.09264e-05,2.14934e-05,7
-2.43138e-05,1.33867e-05,-3.86572e-06,1.50421e-05,2.65691e-05,-1.22198e-05,2.17459e-05,2.03083e-05,7
-2.22768e-05,1.38697e-05,-2.37902e-06,1.70336e-05,2.99472e-05,-1.17668e-05,2.62261e-05,1.63961e-05,7
-2.06544e-05,1.34345e-05,-3.88785e-06,1.59844e-05,3.12324e-05,-1.12571e-05,1.90766e-05,1.26561e-05,7
-2.07681e-05,1.17206e-05,-9.38415e-06,1.00712e-05,3.29478e-05,-1.09423e-05,4.53596e-06,9.18024e-06,7
-2.24555e-05,1.02021e-05,-1.39024e-05,3.74529e-06,3.5903e-05,-1.12565e-05,-4.8261e-06,1.05188e-05,7
-2.41784e-05,9.86077e-06,-1.24061e-05,2.00131e-06,3.95954e-05,-1.15331e-05,-2.11341e-06,2.71766e-05,7
-2.45521e-05,1.04096e-05,-8.31759e-06,4.61647e-06,4.20051e-05,-1.13171e-05,4.2983e-06,5.61397e-05,7
-2.3576e-05,1.07062e-05,-6.81189e-06,6.55785e-06,3.89609e-05,-1.13414e-05,3.39134e-06,7.98896e-05,7
-2.19098e-05,9.92543e-06,-7.47345e-06,2.71533e-06,2.92187e-05,-1.18771e-05,-7.03353e-06,9.1273e-05,7
-2.20039e-05,1.02752e-05,-7.36524e-06,-5.96004e-06,1.83797e-05,-1.30078e-05,-1.9531e-05,9.62044e-05,7
-2.31583e-05,1.13837e-05,-6.46926e-06,-1.06834e-05,1.16588e-05,-1.32812e-05,-2.22042e-05,9.51529e-05,7
-2.43504e-05,1.22585e-05,-6.73837e-06,-9.85659e-06,1.07401e-05,-9.92433e-06,-1.04761e-05,7.63277e-05,7
-2.52571e-05,1.30453e-05,-8.44784e-06,-8.19567e-06,1.29166e-05,-6.77702e-06,1.1151e-05,3.59903e-05,7
-2.52031e-05,1.24149e-05,-8.46576e-06,-7.17052e-06,1.55237e-05,-5.20331e-06,3.20461e-05,-2.02726e-05,7
-2.59345e-05,1.03876e-05,-5.93916e-06,-6.32383e-06,1.72559e-05,-4.11831e-06,4.04195e-05,-7.48828e-05,7
-2.68312e-05,8.56948e-06,-4.79446e-06,-6.28669e-06,1.69118e-05,-5.13782e-06,3.75403e-05,-0.000100081,7
-2.70111e-05,7.91849e-06,-5.07274e-06,-8.46598e-06,1.57111e-05,-7.25445e-06,3.26404e-05,-9.06134e-05,7
-2.74849e-05,7.74514e-06,-6.06932e-06,-1.09032e-05,1.74482e-05,-1.07206e-05,3.13264e-05,-6.37002e-05,7
-2.81521e-05,7.06991e-06,-6.52866e-06,-1.22058e-05,2.25645e-05,-1.36542e-05,3.54683e-05,-4.14216e-05,7
-2.83516e-05,6.41779e-06,-7.46173e-06,-1.16915e-05,2.67435e-05,-1.50586e-05,3.97891e-05,-3.52614e-05,7
-2.79256e-05,5.24847e-06,-9.90636e-06,-1.08816e-05,2.693e-05,-1.38744e-05,3.94405e-05,-4.12078e-05,7
-2.76292e-05,4.3929e-06,-1.2965e-05,-1.21449e-05,2.1927e-05,-1.15017e-05,3.4681e-05,-4.93033e-05,7
-2.88231e-05,4.60317e-06,-1.41641e-05,-1.37637e-05,1.34484e-05,-9.61409e-06,2.87733e-05,-5.4135e-05,7
-3.06624e-05,5.76602e-06,-1.2382e-05,-1.16808e-05,5.00714e-06,-8.62557e-06,2.53128e-05,-5.54148e-05,7
-3.19199e-05,6.97687e-06,-7.98091e-06,-4.84227e-06,1.65847e-07,-9.89496e-06,2.61121e-05,-5.18034e-05,7
-3.22774e-05,6.85259e-06,-2.81629e-06,2.91626e-06,-6.62894e-07,-1.263e-05,2.84694e-05,-3.9853e-05,7
-3.3039e-05,6.58637e-06,-4.21369e-07,7.80006e-06,1.12007e-06,-1.38655e-05,2.79179e-05,-1.84854e-05,7
-3.41017e-05,8.36887e-06,-1.8581e-06,6.40184e-06,3.16551e-06,-1.23205e-05,2.52019e-05,7.29644e-06,7
-3.47759e-05,1.13212e-05,-6.50602e-06,-1.21369e-06,3.6136e-06,-9.14867e-06,2.43426e-05,2.70219e-05,7
-3.62166e-05,1.2111e-05,-1.1562e-05,-8.91127e-06,4.06169e-06,-5.46436e-06,2.82615e-05,3.40787e-05,7
-3.7819e-05,1.13497e-05,-1.33627e-05,-9.43031e-06,6.32789e-06,-3.39552e-06,3.40197e-05,3.0987e-05,7
-3.84582e-05,1.03781e-05,-1.23318e-05,-5.13969e-06,9.20658e-06,-2.78169e-06,3.35175e-05,2.15008e-05,7
-3.89465e-05,9.76945e-06,-1.14252e-05,-3.95153e-06,9.61715e-06,-2.64889e-06,2.56833e-05,1.10291e-05,7
-3.94464e-05,9.59308e-06,-1.17618e-05,-6.61718e-06,6.99593e-06,-3.19615e-06,1.77738e-05,6.53029e-06,7
-4.00353e-05,1.01416e-05,-1.26365e-05,-7.6946e-06,3.80526e-06,-5.5638e-06,1.67421e-05,9.22852e-06,7
-4.07311e-05,1.03182e-05,-1.21446e-05,-6.20916e-06,3.5756e-06,-7.63198e-06,2.25038e-05,1.20614e-05,7
-4.21458e-05,9.9116e-06,-1.11113e-05,1.98795e-06,8.03084e-06,-8.1861e-06,2.46241e-05,8.02414e-06,7
-4.39291e-05,9.90822e-06,-1.05437e-05,2.70587e-05,1.35891e-05,-9.63158e-06,1.87491e-05,1.35098e-06,7
-4.39517e-05,9.89914e-06,-1.03735e-05,5.61333e-05,1.67733e-05,-1.17426e-05,1.11669e-05,-2.76054e-06,7
-4.17523e-05,1.06049e-05,-8.54593e-06,6.81666e-05,1.97216e-05,-1.29606e-05,6.02943e-06,-4.76198e-07,7
-3.82829e-05,1.21206e-05,-6.69522e-06,5.76774e-05,2.30077e-05,-1.26544e-05,3.20497e-06,1.85264e-05,7
-3.55223e-05,1.35098e-05,-5.34203e-06,2.7904e-05,2.45595e-05,-1.08477e-05,3.4029e-06,4.78949e-05,7
-3.40661e-05,1.37715e-05,-2.82805e-06,-1.00623e-05,2.43364e-05,-1.00814e-05,4.7866e-06,7.03196e-05,7
-3.32492e-05,1.2678e-05,-9.25568e-07,-4.90556e-05,2.33775e-05,-1.2133e-05,3.45787e-06,7.47322e-05,7
-3.22268e-05,1.21394e-05,-7.56588e-07,-8.63435e-05,2.37979e-05,-1.54601e-05,-2.68839e-06,6.23679e-05,7
-3.10156e-05,1.29787e-05,-1.40756e-06,-0.000114214,2.51825e-05,-1.62073e-05,-1.22812e-05,3.9533e-05,7
-3.05265e-05,1.31123e-05,-1.79513e-06,-0.000118493,2.4597e-05,-1.53906e-05,-2.21537e-05,4.38966e-06,7
-3.11855e-05,1.19696e-05,-1.46139e-06,-9.6796e-05,2.12964e-05,-1.69921e-05,-2.95325e-05,-3.96674e-05,7
-3.12917e-05,1.1322e-05,1.22484e-06,-6.34598e-05,1.64314e-05,-1.86403e-05,-3.07633e-05,-8.44214e-05,7
-3.00734e-05,1.2002e-05,3.65621e-06,-3.43279e-05,1.17806e-05,-1.69004e-05,-2.41475e-05,-0.000123402,7
-2.9069e-05,1.3374e-05,3.76402e-06,-1.48563e-05,8.45004e-06,-1.38539e-05,-9.44059e-06,-0.000150006,7
-2.90649e-05,1.42501e-05,3.69277e-06,1.05379e-06,7.68449e-06,-1.19713e-05,1.18718e-05,-0.00015168,7
-2.91223e-05,1.37225e-05,4.87151e-06,1.91716e-05,9.6922e-06,-1.0584e-05,3.50183e-05,-0.000121362,7
-2.86009e-05,1.23905e-05,4.37355e-06,3.63715e-05,1.42276e-05,-9.56033e-06,4.99803e-05,-7.29017e-05,7
-2.76527e-05,1.17853e-05,1.44234e-07,4.43068e-05,2.04131e-05,-8.66964e-06,4.91639e-05,-3.26556e-05,7
-2.65164e-05,1.17236e-05,-4.34093e-06,4.14098e-05,2.58461e-05,-7.96448e-06,3.5762e-05,-1.29701e-05,7
-2.55052e-05,1.18267e-05,-4.98233e-06,3.09858e-05,2.85702e-05,-7.85688e-06,1.89257e-05,-5.75214e-06,7
-2.42302e-05,1.21662e-05,-2.59975e-06,1.90451e-05,2.75332e-05,-7.9111e-06,6.37582e-06,-4.0048e-07,7
-2.29033e-05,1.30535e-05,-8.48797e-07,1.01678e-05,2.28563e-05,-7.08433e-06,1.63889e-06,5.54398e-06,7
-2.15715e-05,1.44552e-05,-1.4672e-06,5.50182e-06,1.59583e-05,-7.45319e-06,4.17418e-06,1.20919e-05,7
-2.10102e-05,1.49311e-05,-3.11658e-06,2.4331e-06,8.96419e-06,-8.50384e-06,1.24383e-05,1.8007e-05,7
-2.18501e-05,1.55342e-05,-5.4763e-06,-2.48196e-06,4.06118e-06,-7.71365e-06,2.40388e-05,2.10593e-05,7
-2.29205e-05,1.5404e-05,-9.20161e-06,-7.03438e-06,3.67326e-06,-7.15006e-06,3.39098e-05,3.02691e-05,7
-2.30555e-05,1.27962e-05,-1.01272e-05,-7.37483e-06,7.20029e-06,-8.05998e-06,3.55203e-05,5.66565e-05,7
-2.28215e-05,1.06673e-05,-7.94137e-06,-6.70381e-06,1.0166e-05,-9.33407e-06,2.79988e-05,8.5249e-05,7
-2.36935e-05,1.06128e-05,-5.58766e-06,-5.1856e-06,1.2023e-05,-9.29087e-06,1.74854e-05,9.59655e-05,7
-2.52866e-05,1.03213e-05,-4.28887e-06,-4.01029e-06,1.41752e-05,-8.47468e-06,1.23579e-05,9.68691e-05,7
-2.67546e-05,8.65231e-06,-5.90989e-06,-7.28811e-06,1.60119e-05,-8.53058e-06,1.87361e-05,9.48637e-05,7
-2.73724e-05,7.18571e-06,-7.96556e-06,-1.27185e-05,1.69264e-05,-8.34661e-06,3.14679e-05,8.41863e-05,7
-2.6909e-05,8.22398e-06,-7.15147e-06,-1.93058e-05,1.62115e-05,-8.49861e-06,4.04339e-05,5.77444e-05,7
-2.6969e-05,1.06109e-05,-3.87096e-06,-2.36722e-05,1.46559e-05,-9.84577e-06,4.34704e-05,1.65948e-05,7
-2.79531e-05,1.30001e-05,-2.30632e-07,-2.30044e-05,1.56352e-05,-1.11615e-05,4.26085e-05,-2.81836e-05,7
-2.98481e-05,1.4146e-05,2.40362e-06,-1.70891e-05,2.01735e-05,-1.12483e-05,3.83677e-05,-6.22795e-05,7
-3.29612e-05,1.3097e-05,3.48389e-06,1.55969e-06,2.6285e-05,-1.15286e-05,2.99803e-05,-7.35464e-05,7
-3.56078e-05,1.08644e-05,2.64233e-06,3.77674e-05,3.30255e-05,-1.38142e-05,1.94035e-05,-6.14871e-05,7
-3.58511e-05,9.05115e-06,9.46544e-07,7.83114e-05,3.87295e-05,-1.67096e-05,9.96621e-06,-3.67201e-05,7
-3.47046e-05,8.10191e-06,-2.10037e-06,0.000107141,4.09472e-05,-1.81618e-05,-1.23344e-08,-1.20838e-05,7
-3.41441e-05,7.65665e-06,-6.83522e-06,0.000118055,3.80542e-05,-1.6938e-05,-1.14051e-05,9.39953e-06,7
-3.45038e-05,8.89866e-06,-1.16658e-05,0.000110453,3.01749e-05,-1.38108e-05,-1.76136e-05,2.93859e-05,7
-3.47495e-05,1.16614e-05,-1.45529e-05,8.53612e-05,1.84524e-05,-1.03305e-05,-1.3302e-05,4.20093e-05,7
-3.35195e-05,1.36963e-05,-1.50583e-05,4.41483e-05,4.86755e-06,-8.59866e-06,-5.91861e-06,3.8033e-05,7
-3.14259e-05,1.30282e-05,-1.40158e-05,-1.142e-05,-7.74177e-06,-8.52966e-06,-6.20001e-06,1.94994e-05,7
-3.00664e-05,1.20307e-05,-1.30917e-05,-6.51267e-05,-1.52275e-05,-8.54864e-06,-1.3874e-05,2.91384e-07,7
-2.97572e-05,1.21842e-05,-1.26175e-05,-9.54269e-05,-1.59566e-05,-8.1181e-06,-2.19934e-05,-3.85181e-06,7
-2.94267e-05,1.24603e-05,-1.2116e-05,-0.000103972,-1.04873e-05,-6.99854e-06,-2.58602e-05,9.15607e-06,7
-2.90434e-05,1.33351e-05,-1.16122e-05,-0.000110101,-2.28746e-06,-6.67784e-06,-2.3109e-05,2.0997e-05,7
-2.83058e-05,1.52384e-05,-1.09737e-05,-0.000126637,1.90341e-06,-8.31597e-06,-1.4032e-05,1.90253e-05,7
-2.75154e-05,1.63636e-05,-1.16389e-05,-0.000140539,9.87194e-08,-9.5246e-06,-2.66784e-07,9.85643e-06,7
-2.78297e-05,1.60674e-05,-1.39212e-05,-0.00012904,-4.39991e-06,-9.30097e-06,1.12601e-05,3.51943e-06,7
-2.83049e-05,1.47595e-05,-1.59094e-05,-8.52299e-05,-6.74887e-06,-6.3093e-06,1.35453e-05,8.88905e-07,7
-2.73583e-05,1.47345e-05,-1.38751e-05,-4.02625e-05,-4.71504e-06,-2.19482e-06,1.04007e-05,-3.08226e-06,7
-2.63046e-05,1.64855e-05,-9.57106e-06,-2.27064e-05,-1.84528e-06,-3.11219e-07,9.62312e-06,-3.2857e-06,7
-2.83736e-05,1.72527e-05,-7.21479e-06,-2.07045e-05,2.64523e-07,7.18947e-07,1.10976e-05,-1.66216e-06,7
-3.09153e-05,1.72656e-05,-6.94965e-06,-1.6524e-05,1.50611e-06,2.66546e-07,1.21542e-05,-6.51081e-06,7
-3.14179e-05,1.69687e-05,-7.44036e-06,-3.44636e-06,9.7653e-07,-3.77011e-06,8.3914e-06,-1.06708e-05,7
-3.11573e-05,1.62027e-05,-8.29566e-06,7.71709e-06,-5.39798e-09,-9.97891e-06,-2.39079e-06,-4.35954e-06,7
-3.14403e-05,1.45012e-05,-9.32296e-06,9.39144e-06,-8.03469e-07,-1.31976e-05,-1.0859e-05,6.40904e-06,7
-3.28415e-05,1.24187e-05,-9.45476e-06,5.87237e-06,4.20947e-06,-1.31618e-05,-1.21192e-05,7.67854e-06,7
-3.32454e-05,1.19272e-05,-9.85792e-06,4.75564e-06,1.70387e-05,-1.12756e-05,-5.34263e-06,-4.85286e-06,7
-3.14703e-05,1.23656e-05,-1.00975e-05,7.37864e-06,2.76399e-05,-8.17491e-06,5.61651e-06,-2.73888e-05,7
-3.00998e-05,1.2254e-05,-9.38392e-06,1.1811e-05,2.75056e-05,-6.04749e-06,1.60276e-05,-4.93992e-05,7
-3.07543e-05,1.17713e-05,-7.39097e-06,1.72875e-05,2.14805e-05,-6.21247e-06,2.16631e-05,-6.02588e-05,7
-3.18873e-05,1.21379e-05,-3.96915e-06,2.14151e-05,1.69615e-05,-8.76399e-06,1.72263e-05,-4.82161e-05,7
-3.27348e-05,1.35791e-05,-1.83031e-06,2.18469e-05,1.36262e-05,-1.2001e-05,4.75876e-06,-1.13215e-05,7
-3.36892e-05,1.41969e-05,-4.01156e-06,1.68654e-05,9.18302e-06,-1.35319e-05,-6.41468e-06,3.53099e-05,7
-3.42751e-05,1.32254e-05,-9.90181e-06,1.16378e-05,5.20454e-06,-1.32663e-05,-9.00494e-06,6.93225e-05,7
-3.26852e-05,1.29639e-05,-1.39315e-05,1.30722e-05,5.48913e-06,-1.21885e-05,-4.66968e-06,7.90965e-05,7
-2.94491e-05,1.54134e-05,-1.30523e-05,2.43493e-05,1.05388e-05,-9.76656e-06,3.16342e-06,7.35997e-05,7
-2.72582e-05,1.77813e-05,-8.89783e-06,3.95764e-05,1.79615e-05,-7.73875e-06,1.27101e-05,6.61056e-05,7
-2.69584e-05,1.68777e-05,-5.28624e-06,4.9689e-05,2.3941e-05,-8.09112e-06,2.33336e-05,5.91283e-05,7
-2.62697e-05,1.43201e-05,-4.00477e-06,4.92583e-05,2.76437e-05,-9.37571e-06,3.13119e-05,4.1145e-05,7
-2.52787e-05,1.31614e-05,-4.29367e-06,4.27213e-05,3.01357e-05,-9.54233e-06,3.32151e-05,1.12565e-06,7
-2.56786e-05,1.34078e-05,-5.53726e-06,3.43517e-05,3.14407e-05,-9.25259e-06,2.77323e-05,-5.39518e-05,7
-2.6419e-05,1.49188e-05,-6.43076e-06,2.31073e-05,3.08848e-05,-9.3669e-06,1.87778e-05,-0.000100694,7
-2.73115e-05,1.66532e-05,-8.87815e-06,4.90451e-06,2.65977e-05,-1.07848e-05,1.37385e-05,-0.000115099,7
-2.85884e-05,1.67409e-05,-1.42735e-05,-2.05053e-05,2.03452e-05,-1.26499e-05,1.39232e-05,-9.40652e-05,7
-3.08462e-05,1.48804e-05,-1.77978e-05,-4.6652e-05,1.62244e-05,-1.35273e-05,1.54741e-05,-5.4637e-05,7
-3.29649e-05,1.33241e-05,-1.60822e-05,-6.24129e-05,1.44067e-05,-1.365e-05,1.44008e-05,-2.09006e-05,7
-3.43525e-05,1.32579e-05,-1.15101e-05,-7.08512e-05,1.32005e-05,-1.29211e-05,1.41281e-05,7.89788e-06,7
-3.60226e-05,1.26542e-05,-8.97932e-06,-7.98252e-05,1.28048e-05,-1.20768e-05,1.95391e-05,5.90521e-05,7
-3.78002e-05,1.12788e-05,-1.0751e-05,-8.22889e-05,1.37127e-05,-1.12998e-05,2.43628e-05,0.000123247,7
-3.8953e-05,1.01655e-05,-1.34789e-05,-6.9186e-05,1.44124e-05,-1.04654e-05,2.59901e-05,0.000163405,7
-3.76842e-05,1.1153e-05,-1.42651e-05,-4.01447e-05,1.33507e-05,-9.99778e-06,2.83491e-05,0.000166438,7
-3.57979e-05,1.30981e-05,-1.18867e-05,-1.31246e-05,1.05045e-05,-1.06091e-05,3.14487e-05,0.000146633,7
-3.44562e-05,1.26094e-05,-9.06906e-06,4.52811e-07,9.70384e-06,-1.10566e-05,3.13992e-05,0.000105933,7
-3.40472e-05,1.07556e-05,-9.42414e-06,-9.76613e-07,1.18156e-05,-1.0207e-05,2.70999e-05,3.89846e-05,7
-3.42785e-05,9.62698e-06,-1.23625e-05,-9.06469e-06,1.44931e-05,-9.91206e-06,1.91014e-05,-4.60399e-05,7
-3.4137e-05,9.96383e-06,-1.42307e-05,-1.39466e-05,1.68857e-05,-1.08882e-05,8.04232e-06,-0.000130669,7
-3.29459e-05,1.13541e-05,-1.33905e-05,-1.14211e-05,1.90026e-05,-1.14581e-05,-8.3464e-07,-0.000191732,7
-3.04873e-05,1.23059e-05,-1.21731e-05,-3.98448e-06,2.22446e-05,-1.07898e-05,-5.1901e-06,-0.000211784,7
-2.8607e-05,1.22393e-05,-1.10012e-05,4.32352e-06,2.68726e-05,-1.1005e-05,-4.56614e-06,-0.000190198,7
-2.78694e-05,1.20965e-05,-8.75597e-06,1.33726e-05,3.16039e-05,-1.24873e-05,-1.51802e-07,-0.000144003,7
-2.76333e-05,1.25176e-05,-5.49951e-06,2.28124e-05,3.50931e-05,-1.33375e-05,5.60451e-06,-9.28642e-05,7
-2.72312e-05,1.26495e-05,-2.99678e-06,3.37763e-05,3.76399e-05,-1.25359e-05,9.60969e-06,-5.31454e-05,7
-2.66127e-05,1.24019e-05,-1.97048e-06,4.46616e-05,3.84428e-05,-1.10385e-05,1.04055e-05,-2.96533e-05,7
-2.51901e-05,1.2648e-05,-1.90764e-06,5.2096e-05,3.55701e-05,-9.30176e-06,8.27844e-06,-1.72564e-05,7
-2.42829e-05,1.42195e-05,-2.67907e-06,5.33244e-05,2.87492e-05,-6.79835e-06,4.70559e-06,-8.32659e-06,7
-2.41142e-05,1.5614e-05,-2.74896e-06,5.08532e-05,1.91664e-05,-4.88376e-06,2.13395e-06,-2.94292e-06,7
-2.45843e-05,1.43701e-05,-1.60413e-06,3.99796e-05,7.6003e-06,-4.04014e-06,3.46697e-06,-1.96727e-06,7
-2.56712e-05,1.15134e-05,-2.20904e-06,1.70295e-05,-1.58868e-06,-4.63118e-06,1.0998e-05,-3.10944e-06,7
-2.72049e-05,9.50695e-06,-5.39701e-06,-9.40866e-06,-3.97148e-06,-6.58125e-06,2.29453e-05,-2.13048e-06,7
-2.79299e-05,8.95308e-06,-8.56392e-06,-2.20488e-05,-2.04397e-06,-8.52875e-06,3.40035e-05,1.22888e-06,7
-2.75125e-05,8.40544e-06,-8.424e-06,-1.18471e-05,5.46345e-07,-8.73661e-06,3.68324e-05,6.19177e-06,7
-2.71272e-05,7.40002e-06,-7.37277e-06,8.38864e-06,4.07835e-06,-8.28736e-06,2.81764e-05,1.48225e-05,7
-2.72062e-05,7.63088e-06,-7.40136e-06,1.67455e-05,5.16349e-06,-9.1275e-06,1.89061e-05,2.52665e-05,7
-2.78459e-05,8.67241e-06,-5.97508e-06,9.32226e-06,1.32989e-06,-8.53324e-06,2.06342e-05,3.89645e-05,7
-2.8331e-05,9.71339e-06,-3.75109e-06,-5.15646e-06,-2.0307e-06,-5.85821e-06,2.87875e-05,5.4661e-05,7
-2.87345e-05,9.48519e-06,-3.50444e-06,-2.31048e-05,-1.0648e-06,-3.61627e-06,3.38324e-05,6.39759e-05,7
-2.96612e-05,8.454e-06,-5.58239e-06,-3.62354e-05,4.04841e-06,-3.35734e-06,3.42287e-05,6.55666e-05,7
-3.18586e-05,8.01481e-06,-5.13841e-06,-3.44224e-05,1.17354e-05,-5.51549e-06,3.41669e-05,6.28144e-05,7
-3.33312e-05,7.35275e-06,-1.70213e-06,-2.38895e-05,2.06569e-05,-8.93291e-06,3.14125e-05,5.69651e-05,7
-3.40428e-05,6.73512e-06,-2.20505e-06,-2.07525e-05,2.95756e-05,-1.18859e-05,2.54135e-05,4.66075e-05,7
-3.42622e-05,7.63248e-06,-6.80597e-06,-2.75286e-05,3.44693e-05,-1.26041e-05,1.93285e-05,3.30245e-05,7
-3.3614e-05,1.15682e-05,-8.77681e-06,-3.20991e-05,3.11871e-05,-1.01329e-05,1.52072e-05,1.84741e-05,7
-3.29025e-05,1.5559e-05,-6.37983e-06,-2.49129e-05,2.24051e-05,-7.91955e-06,1.193e-05,3.79255e-06,7
-3.28713e-05,1.63814e-05,-3.76488e-06,-1.18405e-05,1.14382e-05,-8.37173e-06,8.06595e-06,-7.91847e-06,7
-3.287e-05,1.58197e-05,-2.72498e-06,-1.37191e-06,-1.76904e-06,-9.24241e-06,5.98431e-06,-1.5836e-05,7
-3.18261e-05,1.53405e-05,-2.17363e-06,4.47536e-06,-1.70536e-05,-9.85196e-06,6.42151e-06,-1.99958e-05,7
-3.02912e-05,1.48362e-05,-1.17198e-06,8.04794e-06,-3.04258e-05,-1.06922e-05,9.98664e-06,-2.05022e-05,7
-2.93688e-05,1.48244e-05,-2.40342e-07,1.02703e-05,-3.49699e-05,-1.1501e-05,1.67459e-05,-1.78532e-05,7
-2.91781e-05,1.51387e-05,-9.2546e-07,9.91171e-06,-2.56898e-05,-1.07872e-05,2.72641e-05,-1.44075e-05,7
-2.88725e-05,1.45338e-05,-3.46568e-06,7.51647e-06,-7.03482e-06,-8.79186e-06,3.89177e-05,-1.04843e-05,7
-2.99121e-05,1.31803e-05,-7.45103e-06,4.60389e-06,9.21933e-06,-7.20166e-06,4.22369e-05,-6.54806e-06,7
-3.27348e-05,1.25808e-05,-1.02831e-05,1.0663e-06,1.5744e-05,-7.20893e-06,2.91786e-05,-3.71732e-06,7
-3.49692e-05,1.26546e-05,-1.07133e-05,-5.12596e-06,1.32612e-05,-8.72245e-06,6.67299e-06,-1.5684e-06,7
-3.4922e-05,1.28838e-05,-9.47227e-06,-1.38735e-05,9.38782e-06,-1.03658e-05,-8.61262e-06,2.72653e-06,7
-3.44225e-05,1.30573e-05,-7.07211e-06,-2.06514e-05,1.10601e-05,-1.15612e-05,-8.79733e-06,1.02584e-05,7
-3.45138e-05,1.3777e-05,-4.15664e-06,-2.10843e-05,1.7706e-05,-1.2103e-05,-1.29326e-07,1.8162e-05,7
-3.41016e-05,1.53831e-05,-1.30353e-06,-1.62201e-05,2.23882e-05,-1.08301e-05,9.11175e-06,2.8469e-05,7
-3.31578e-05,1.66841e-05,8.65614e-07,-1.09535e-05,2.1095e-05,-8.43397e-06,1.45588e-05,4.60065e-05,7
-3.12144e-05,1.61811e-05,1.66215e-07,3.91438e-07,1.64564e-05,-6.82758e-06,1.35753e-05,6.52361e-05,7
-2.89106e-05,1.5102e-05,-6.98733e-07,3.09353e-05,1.277e-05,-5.30383e-06,7.31159e-06,7.67886e-05,7
-2.89888e-05,1.57674e-05,1.17906e-06,6.67239e-05,1.26464e-05,-3.7448e-06,3.85054e-07,8.69395e-05,7
-2.97109e-05,1.60331e-05,3.82235e-06,8.29621e-05,1.77262e-05,-3.57642e-06,-5.02732e-06,9.2434e-05,7
-2.86037e-05,1.58718e-05,6.16135e-06,7.41867e-05,2.55727e-05,-3.65321e-06,-8.76481e-06,8.03206e-05,7
-2.63142e-05,1.64526e-05,6.56908e-06,4.65012e-05,3.05709e-05,-3.66881e-06,-7.10849e-06,5.86334e-05,7
-2.5147e-05,1.56682e-05,4.39408e-06,7.25655e-06,3.06533e-05,-4.37653e-06,-1.48934e-06,3.52451e-05,7
-2.63872e-05,1.40786e-05,-6.89678e-08,-4.01204e-05,2.75625e-05,-5.11991e-06,4.14765e-06,1.32589e-05,7
-2.78335e-05,1.33986e-05,-4.11026e-06,-8.4308e-05,2.46212e-05,-6.76747e-06,9.57856e-06,-6.24378e-06,7
-2.91287e-05,1.34327e-05,-6.69054e-06,-0.000108586,2.33647e-05,-8.78363e-06,1.44244e-05,-2.45132e-05,7
-3.01655e-05,1.4473e-05,-8.0221e-06,-0.000104082,2.24767e-05,-9.08785e-06,1.69573e-05,-4.54597e-05,7
-3.08717e-05,1.56302e-05,-7.97026e-06,-7.73228e-05,2.02487e-05,-7.68526e-06,1.40116e-05,-6.88395e-05,7
-3.16104e-05,1.51682e-05,-7.41232e-06,-4.59401e-05,1.73998e-05,-7.83036e-06,6.11453e-06,-8.75998e-05,7
-3.26166e-05,1.31494e-05,-7.1299e-06,-2.26403e-05,1.58873e-05,-9.71091e-06,1.16166e-06,-9.70362e-05,7
-3.40527e-05,1.14673e-05,-6.47965e-06,-9.38664e-06,1.70833e-05,-1.09849e-05,5.01714e-06,-9.82783e-05,7
-3.51663e-05,1.09356e-05,-5.55274e-06,-2.82906e-06,2.08233e-05,-9.9124e-06,1.27022e-05,-9.53635e-05,7
-3.54343e-05,1.02767e-05,-6.58911e-06,1.15323e-06,2.47175e-05,-6.902e-06,1.70321e-05,-8.78944e-05,7
-3.54512e-05,1.00993e-05,-8.52273e-06,6.42448e-06,2.65462e-05,-4.74815e-06,1.76582e-05,-7.68332e-05,7
-3.54958e-05,1.05386e-05,-7.6071e-06,1.07082e-05,2.64245e-05,-5.99455e-06,1.84324e-05,-6.42116e-05,7
-3.46633e-05,1.06032e-05,-4.71635e-06,8.25287e-06,2.51404e-05,-9.29376e-06,2.09793e-05,-5.36021e-05,7
-3.22933e-05,1.04459e-05,-5.09006e-06,-1.60674e-06,2.26541e-05,-1.19628e-05,2.51761e-05,-4.46126e-05,7
-2.96641e-05,1.01678e-05,-7.98082e-06,-1.12128e-05,1.99137e-05,-1.41871e-05,2.98214e-05,-3.54846e-05,7
-2.86261e-05,1.01935e-05,-9.24936e-06,-1.3861e-05,1.84808e-05,-1.52682e-05,3.39567e-05,-2.62793e-05,7
-2.80793e-05,1.05817e-05,-7.53179e-06,-8.90353e-06,1.75035e-05,-1.55096e-05,3.72848e-05,-1.99957e-05,7
-2.67216e-05,1.15198e-05,-5.28164e-06,7.73494e-07,1.54535e-05,-1.59918e-05,3.74191e-05,-1.46785e-05,7
-2.54402e-05,1.29082e-05,-4.98e-06,8.74195e-06,1.18954e-05,-1.71503e-05,3.29846e-05,-7.08528e-06,7
-2.55654e-05,1.35396e-05,-7.01205e-06,1.27505e-05,5.68022e-06,-1.73996e-05,2.65708e-05,2.21223e-06,7
-2.68673e-05,1.25418e-05,-9.59775e-06,1.56869e-05,-2.34898e-06,-1.58341e-05,1.90027e-05,1.04113e-05,7
-2.68865e-05,1.20286e-05,-1.03763e-05,1.74754e-05,-6.76074e-06,-1.46388e-05,7.91686e-06,1.60817e-05,7
-2.50246e-05,1.41934e-05,-9.51824e-06,1.83115e-05,-7.35793e-06,-1.423e-05,-4.36012e-06,2.1835e-05,7
-2.25926e-05,1.57441e-05,-1.00627e-05,1.47618e-05,-7.28778e-06,-1.28184e-05,-1.53813e-05,2.67426e-05,7
-2.08691e-05,1.49024e-05,-1.32761e-05,6.68949e-06,-5.41113e-06,-9.95526e-06,-2.47409e-05,2.87236e-05,7
-2.04342e-05,1.28444e-05,-1.5701e-05,2.23166e-06,-1.73241e-06,-7.28254e-06,-3.17064e-05,2.99466e-05,7
-2.11272e-05,1.19527e-05,-1.45344e-05,3.53618e-06,1.75185e-06,-6.78823e-06,-3.27579e-05,3.26225e-05,7
-2.41007e-05,1.29845e-05,-1.01394e-05,6.95383e-06,4.3446e-06,-7.43032e-06,-2.55119e-05,3.46933e-05,7
-2.65308e-05,1.42242e-05,-7.01718e-06,7.41701e-06,8.88116e-06,-8.31272e-06,-1.01657e-05,3.62169e-05,7
-2.67008e-05,1.4622e-05,-7.0302e-06,4.42251e-06,1.30595e-05,-8.67959e-06,8.39289e-06,4.63964e-05,7
-2.66304e-05,1.38046e-05,-8.88616e-06,1.0769e-07,1.46794e-05,-7.657e-06,2.04423e-05,7.08769e-05,7
-2.74797e-05,1.23527e-05,-1.14705e-05,-4.57663e-06,1.4652e-05,-6.39028e-06,2.34736e-05,9.77765e-05,7
-2.91636e-05,1.14106e-05,-1.36317e-05,-8.5283e-06,1.37616e-05,-6.39458e-06,2.06583e-05,0.000112199,7
-3.06531e-05,1.14089e-05,-1.34937e-05,-9.28523e-06,1.40182e-05,-7.20253e-06,1.55363e-05,0.000111578,7
-3.20223e-05,1.16208e-05,-1.18368e-05,-7.45742e-06,1.56584e-05,-7.17508e-06,9.53377e-06,0.000100675,7
-3.28806e-05,1.18929e-05,-1.1373e-05,-5.82003e-06,1.7333e-05,-7.75501e-06,3.86871e-06,7.89631e-05,7
-3.27952e-05,1.22186e-05,-1.2226e-05,-4.54487e-06,1.8517e-05,-9.84943e-06,-1.05305e-06,4.40213e-05,7
-3.14991e-05,1.27453e-05,-1.23413e-05,-3.39201e-06,2.00173e-05,-1.08869e-05,-5.13336e-06,-3.33209e-06,7
-3.08758e-05,1.32838e-05,-1.08918e-05,-2.65254e-06,2.00332e-05,-9.31071e-06,-7.73915e-06,-5.49737e-05,7
-3.24708e-05,1.4304e-05,-9.64351e-06,-2.00644e-06,1.81985e-05,-7.81074e-06,-6.50639e-06,-8.99956e-05,7
-3.45062e-05,1.53848e-05,-9.23898e-06,-8.51653e-07,1.67006e-05,-8.15332e-06,9.13345e-07,-8.36962e-05,7
-3.50819e-05,1.50696e-05,-1.00968e-05,9.38711e-07,1.73328e-05,-9.29325e-06,1.0766e-05,-4.04138e-05,7
-3.4385e-05,1.42234e-05,-1.13842e-05,3.7052e-06,1.93323e-05,-9.15756e-06,1.6294e-05,6.14599e-06,7
-3.33313e-05,1.5075e-05,-1.182e-05,5.41892e-06,2.09509e-05,-7.39757e-06,1.56135e-05,3.45056e-05,7
-3.15698e-05,1.66473e-05,-1.0846e-05,5.86365e-06,2.11021e-05,-7.03212e-06,1.2239e-05,4.76754e-05,7
-3.03559e-05,1.58117e-05,-8.96815e-06,6.1756e-06,2.19307e-05,-8.3532e-06,9.24992e-06,5.51183e-05,7
-3.09886e-05,1.33698e-05,-6.90185e-06,4.01042e-06,2.38268e-05,-9.17233e-06,8.02424e-06,5.63613e-05,7
-3.13847e-05,1.26142e-05,-5.87729e-06,-2.60481e-06,2.55068e-05,-1.03701e-05,1.25867e-05,4.03363e-05,7
-3.08565e-05,1.31045e-05,-6.39974e-06,-8.08228e-06,2.35881e-05,-1.20571e-05,1.94092e-05,2.446e-06,7
-3.0636e-05,1.37295e-05,-7.14381e-06,-8.72397e-06,1.4855e-05,-1.23483e-05,2.27332e-05,-5.40672e-05,7
-3.11366e-05,1.41304e-05,-5.52965e-06,-7.48625e-06,3.10743e-06,-1.04782e-05,2.70821e-05,-0.000109831,7
-3.07751e-05,1.50084e-05,-2.38114e-06,-5.84215e-06,-3.02292e-06,-7.36892e-06,3.31087e-05,-0.000134349,7
-2.99003e-05,1.55747e-05,-1.69042e-06,-4.61736e-06,3.00161e-06,-3.03621e-06,3.39818e-05,-0.000121925,7
-2.92905e-05,1.49292e-05,-3.1092e-06,-4.32474e-06,1.66221e-05,-1.43783e-07,2.28732e-05,-9.37166e-05,7
-2.85721e-05,1.37616e-05,-4.36459e-06,-6.03151e-06,2.67203e-05,-1.76683e-06,6.15922e-06,-6.68789e-05,7
-2.83776e-05,1.30001e-05,-6.15337e-06,-9.08847e-06,2.69019e-05,-5.45759e-06,-5.33362e-06,-4.07151e-05,7
-2.9265e-05,1.26953e-05,-8.42729e-06,-1.23171e-05,2.12539e-05,-7.98587e-06,-8.01966e-06,-1.53116e-05,7
-3.09809e-05,1.14145e-05,-9.04516e-06,-1.41547e-05,1.58481e-05,-8.08282e-06,-6.3119e-06,6.33827e-06,7
-3.18673e-05,9.28436e-06,-8.57343e-06,-1.55576e-05,1.34337e-05,-8.55663e-06,-6.16362e-06,3.00963e-05,7
-3.19266e-05,7.39077e-06,-7.98898e-06,-1.72714e-05,1.3838e-05,-1.00002e-05,-6.22388e-06,6.35372e-05,7
-3.13544e-05,8.04966e-06,-7.51222e-06,-1.62881e-05,1.5355e-05,-1.06128e-05,-3.68307e-06,9.66933e-05,7
-3.0181e-05,1.02961e-05,-6.43299e-06,-1.05669e-05,1.68051e-05,-9.08247e-06,2.41941e-06,0.000108477,7
-2.88255e-05,1.12188e-05,-5.12532e-06,-1.79915e-06,2.03102e-05,-7.38272e-06,9.86377e-06,9.19029e-05,7
-2.88083e-05,1.02777e-05,-5.1791e-06,6.21688e-06,2.70084e-05,-8.45632e-06,1.51655e-05,5.78938e-05,7
-3.00536e-05,9.38218e-06,-5.99399e-06,1.37428e-05,3.4886e-05,-1.08527e-05,1.71684e-05,1.95286e-05,7
-3.09702e-05,8.83432e-06,-6.14742e-06,2.2613e-05,4.10937e-05,-1.23255e-05,1.85448e-05,-1.69683e-05,7
-3.09299e-05,8.72087e-06,-5.23844e-06,3.1471e-05,4.27722e-05,-1.26968e-05,2.06139e-05,-4.83958e-05,7
