ch1,ch2,ch3,ch4,ch5,ch6,ch7,ch8,class
-3.39403e-05,8.17108e-06,-5.28582e-06,-9.49443e-06,1.48681e-05,-1.30293e-05,1.815e-05,3.09519e-05,7
-3.52578e-05,7.82055e-06,-7.44622e-06,-9.22685e-06,1.40693e-05,-1.40615e-05,2.06855e-05,4.26455e-05,7
-3.63516e-05,8.51441e-06,-9.23676e-06,-5.47618e-06,1.43243e-05,-1.44781e-05,1.96479e-05,4.56977e-05,7
-3.65676e-05,1.03772e-05,-9.03841e-06,-1.78657e-06,1.61326e-05,-1.33058e-05,1.83035e-05,4.37731e-05,7
-3.59973e-05,1.09638e-05,-7.79141e-06,-2.14226e-06,1.66212e-05,-1.17089e-05,1.71103e-05,3.90946e-05,7
-3.61948e-05,1.00011e-05,-7.66556e-06,-4.50858e-06,1.54962e-05,-1.10718e-05,1.5237e-05,3.33623e-05,7
-3.67539e-05,1.07127e-05,-7.76381e-06,-6.33894e-06,1.49521e-05,-1.19774e-05,1.44043e-05,2.64371e-05,7
-3.71708e-05,1.17563e-05,-6.73247e-06,-7.39651e-06,1.51999e-05,-1.20351e-05,1.47545e-05,3.11876e-05,7
-3.78649e-05,8.97837e-06,-5.9998e-06,-8.95717e-06,1.494e-05,-1.06397e-05,1.39655e-05,4.62225e-05,7
-3.88488e-05,4.96862e-06,-8.75214e-06,-1.41073e-05,1.30089e-05,-1.07792e-05,1.31572e-05,4.99439e-05,7
-3.94764e-05,4.44145e-06,-1.53084e-05,-2.04011e-05,9.98e-06,-1.35757e-05,1.30668e-05,4.90206e-05,7
-3.89168e-05,7.40648e-06,-1.88621e-05,-2.12607e-05,5.73988e-06,-1.43585e-05,1.2898e-05,5.33942e-05,7
-3.77533e-05,1.18947e-05,-1.51996e-05,-1.62954e-05,1.27918e-07,-1.13564e-05,9.22621e-06,4.91033e-05,7
-3.59768e-05,1.44065e-05,-9.67056e-06,-1.15785e-05,-3.05563e-06,-9.19525e-06,3.56079e-06,1.37572e-05,7
-3.37493e-05,1.39387e-05,-6.70193e-06,-8.80875e-06,-8.07422e-07,-9.35365e-06,2.90927e-07,-4.27289e-05,7
-3.0872e-05,1.16176e-05,-7.00775e-06,-8.58335e-06,2.94789e-06,-8.99186e-06,-2.42362e-07,-9.37689e-05,7
-2.92918e-05,1.07849e-05,-9.24421e-06,-1.1162e-05,3.59719e-06,-8.14335e-06,4.03396e-07,-0.000118091,7
-2.87127e-05,1.16719e-05,-1.03828e-05,-1.48831e-05,1.81434e-06,-8.24981e-06,1.01621e-06,-0.000111675,7
-2.73612e-05,1.1961e-05,-8.15219e-06,-1.757e-05,2.80799e-06,-8.88733e-06,2.32662e-06,-8.70033e-05,7
-2.57471e-05,1.10446e-05,-4.14668e-06,-1.57643e-05,6.93878e-06,-9.39048e-06,5.95712e-06,-5.89922e-05,7
-2.44381e-05,9.7969e-06,-1.12825e-06,-1.07944e-05,1.01031e-05,-9.63262e-06,1.07504e-05,-3.77317e-05,7
-2.38194e-05,1.02925e-05,-1.05118e-06,-7.43076e-06,1.0663e-05,-9.27758e-06,1.37174e-05,-2.09496e-05,7
-2.42784e-05,1.09597e-05,-3.06303e-06,-5.72771e-06,1.09665e-05,-8.70846e-06,1.35417e-05,-5.45634e-06,7
-2.43897e-05,1.07402e-05,-4.90247e-06,-3.91449e-06,1.30177e-05,-9.25053e-06,9.9359e-06,1.04376e-05,7
-2.31649e-05,1.00282e-05,-5.567e-06,-2.12274e-06,1.48026e-05,-1.03965e-05,4.75118e-06,2.49204e-05,7
-2.26377e-05,9.52164e-06,-5.69246e-06,1.36105e-07,1.46443e-05,-1.13332e-05,-1.36422e-07,3.55804e-05,7
-2.4497e-05,8.93951e-06,-7.12033e-06,4.8864e-06,1.31611e-05,-1.1712e-05,-1.27534e-06,4.141e-05,7
-2.7588e-05,8.19726e-06,-1.05997e-05,1.18764e-05,1.31551e-05,-1.1523e-05,2.48649e-06,4.66925e-05,7
-2.98406e-05,8.73471e-06,-1.37511e-05,1.83293e-05,1.63917e-05,-1.10868e-05,7.89373e-06,5.30202e-05,7
-3.03276e-05,1.17357e-05,-1.28617e-05,2.41091e-05,2.03299e-05,-1.02314e-05,1.06888e-05,5.22013e-05,7
-2.99162e-05,1.44578e-05,-1.11284e-05,2.74643e-05,2.17423e-05,-9.57468e-06,1.19327e-05,4.27626e-05,7
-3.10294e-05,1.41301e-05,-1.21278e-05,2.47525e-05,2.16119e-05,-9.65187e-06,1.50754e-05,3.86537e-05,7
-3.30969e-05,1.01294e-05,-1.33701e-05,1.43534e-05,2.33533e-05,-1.04916e-05,1.74764e-05,2.87932e-05,7
-3.34956e-05,6.28595e-06,-1.24334e-05,-1.89332e-06,2.54051e-05,-1.15339e-05,1.3881e-05,1.33957e-05,7
-3.25068e-05,6.28389e-06,-9.91979e-06,-1.75857e-05,2.20254e-05,-1.14857e-05,5.34822e-06,2.23618e-05,7
-3.16465e-05,6.85025e-06,-9.54916e-06,-2.48173e-05,1.41616e-05,-1.01699e-05,2.83061e-07,4.63577e-05,7
-3.21457e-05,6.38209e-06,-1.29518e-05,-2.34362e-05,8.57044e-06,-9.23971e-06,2.24289e-06,3.9018e-05,7
-3.36258e-05,6.60892e-06,-1.43379e-05,-1.87689e-05,1.05403e-05,-8.29839e-06,6.67961e-06,-3.16102e-05,7
-3.29191e-05,9.93423e-06,-9.47485e-06,-1.46927e-05,1.68108e-05,-5.38485e-06,9.76189e-06,-0.000138313,7
-2.99679e-05,1.50603e-05,-3.19231e-07,-1.2761e-05,2.20096e-05,-2.77283e-06,1.16014e-05,-0.000224174,7
-2.73094e-05,1.83411e-05,7.11083e-06,-1.07589e-05,2.49964e-05,-1.7161e-06,1.34585e-05,-0.000251796,7
-2.54267e-05,1.97687e-05,9.4931e-06,-8.99273e-06,2.54076e-05,-1.38726e-06,1.34505e-05,-0.000213242,7
-2.45123e-05,2.06834e-05,7.48835e-06,-7.75774e-06,2.25299e-05,-1.35395e-06,1.07957e-05,-0.000134078,7
-2.45278e-05,2.06864e-05,2.71668e-06,-9.47892e-06,1.61742e-05,-1.69475e-06,6.93182e-06,-6.33307e-05,7
-2.53687e-05,2.02301e-05,-1.31314e-06,-1.32829e-05,7.44965e-06,-2.56848e-06,3.7521e-06,-2.59171e-05,7
-2.6612e-05,1.96192e-05,-2.02724e-06,-1.50017e-05,-6.96026e-07,-2.60937e-06,2.35817e-06,-1.16872e-05,7
-2.71091e-05,1.92495e-05,-5.06125e-07,-1.37562e-05,-5.14343e-06,-1.57233e-06,3.83438e-06,-3.76268e-06,7
-2.66745e-05,1.84033e-05,2.35136e-06,-1.05123e-05,-5.85782e-06,-1.68819e-06,7.88351e-06,4.83148e-06,7
-2.61251e-05,1.68396e-05,6.32036e-06,-7.52555e-06,-2.90125e-06,-4.27817e-06,1.24667e-05,1.43081e-05,7
-2.64395e-05,1.463e-05,8.44439e-06,-6.4793e-06,2.36295e-06,-7.56811e-06,1.70174e-05,2.32753e-05,7
-2.77074e-05,1.20879e-05,6.66768e-06,-6.71938e-06,8.84972e-06,-1.04615e-05,1.96396e-05,2.82214e-05,7
-2.91744e-05,1.05416e-05,2.84768e-06,-5.2751e-06,1.51082e-05,-1.29307e-05,1.91398e-05,3.10485e-05,7
-3.01052e-05,1.03802e-05,-3.21306e-07,-2.89965e-06,1.85339e-05,-1.43444e-05,1.60738e-05,3.6468e-05,7
-3.01376e-05,1.10195e-05,-2.29301e-06,-4.95787e-07,1.8716e-05,-1.37102e-05,1.27859e-05,4.74096e-05,7
-2.92492e-05,1.14827e-05,-2.87143e-06,2.47466e-06,1.93023e-05,-1.1678e-05,1.08081e-05,6.4563e-05,7
-2.86374e-05,1.21436e-05,-3.65718e-06,5.41197e-06,2.25675e-05,-1.06094e-05,1.13457e-05,8.80416e-05,7
-2.98909e-05,1.31469e-05,-7.0152e-06,3.82451e-06,2.61191e-05,-1.10174e-05,1.22776e-05,0.000109215,7
-3.19679e-05,1.33787e-05,-1.23666e-05,-2.55382e-06,2.78275e-05,-1.16641e-05,1.06529e-05,0.000117339,7
-3.26335e-05,1.23392e-05,-1.60773e-05,-8.41627e-06,2.70112e-05,-1.16329e-05,7.98318e-06,0.00011004,7
-3.26409e-05,1.23033e-05,-1.51515e-05,-8.20058e-06,2.47653e-05,-9.83406e-06,6.98928e-06,8.93083e-05,7
-3.25037e-05,1.40011e-05,-9.86248e-06,-1.39264e-06,2.31048e-05,-7.41731e-06,8.43657e-06,6.0519e-05,7
-3.24465e-05,1.66663e-05,-4.6163e-06,5.9535e-06,2.25012e-05,-6.64882e-06,1.01887e-05,3.09701e-05,7
-3.30469e-05,1.91602e-05,-1.75679e-06,8.60607e-06,2.12951e-05,-7.55175e-06,1.09438e-05,4.73895e-06,7
-3.30687e-05,2.05122e-05,-1.90983e-06,7.05997e-06,1.78792e-05,-8.96328e-06,1.30466e-05,-1.72545e-05,7
-3.35452e-05,1.88477e-05,-5.75806e-06,3.28888e-06,1.15645e-05,-1.03052e-05,1.70172e-05,-3.10866e-05,7
-3.44052e-05,1.52636e-05,-1.1454e-05,-1.69909e-06,6.10612e-06,-1.04146e-05,2.18424e-05,-2.93893e-05,7
-3.62592e-05,1.08559e-05,-1.63472e-05,-4.38635e-06,4.93167e-06,-9.69917e-06,2.42477e-05,-1.65361e-05,7
-3.86885e-05,8.03189e-06,-1.89541e-05,-3.2879e-06,6.90702e-06,-9.05361e-06,2.26014e-05,-6.47717e-06,7
-3.87654e-05,1.00838e-05,-1.81715e-05,1.18542e-06,1.13053e-05,-8.1452e-06,1.78985e-05,-6.75295e-06,7
-3.75234e-05,1.18097e-05,-1.48254e-05,6.46291e-06,1.45e-05,-6.7424e-06,9.81722e-06,-1.40917e-05,7
-3.55236e-05,1.06868e-05,-1.20928e-05,1.03084e-05,1.47933e-05,-4.67735e-06,2.54891e-06,-2.32712e-05,7
-3.37411e-05,1.00229e-05,-1.10517e-05,9.89407e-06,1.41749e-05,-3.34699e-06,2.6947e-07,-3.31829e-05,7
-3.29312e-05,1.24186e-05,-1.00322e-05,3.73819e-06,1.45594e-05,-2.83005e-06,3.59268e-06,-3.9703e-05,7
-3.23113e-05,1.57946e-05,-7.58492e-06,-4.58367e-06,1.59218e-05,-2.56289e-06,8.13802e-06,-3.53808e-05,7
-3.20047e-05,1.76799e-05,-5.26602e-06,-8.2034e-06,1.60136e-05,-3.09874e-06,1.03674e-05,-1.83957e-05,7
-3.24089e-05,1.70247e-05,-3.76366e-06,-4.38785e-06,1.42726e-05,-5.84686e-06,1.1115e-05,1.24471e-06,7
-3.37521e-05,1.48877e-05,-3.20205e-06,-5.47282e-07,1.18798e-05,-9.62112e-06,1.27769e-05,1.49359e-05,7
-3.4827e-05,1.30105e-05,-5.90609e-06,-3.76364e-06,1.0356e-05,-1.29272e-05,1.54487e-05,2.31616e-05,7
-3.44273e-05,1.24781e-05,-1.18094e-05,-1.29145e-05,9.72601e-06,-1.41754e-05,1.85095e-05,2.86241e-05,7
-3.203e-05,1.38898e-05,-1.46202e-05,-2.18251e-05,1.01077e-05,-1.21716e-05,2.10649e-05,2.75991e-05,7
-2.88426e-05,1.65494e-05,-1.09887e-05,-2.56619e-05,1.06479e-05,-8.41897e-06,2.10715e-05,1.80158e-05,7
-2.70105e-05,1.87079e-05,-6.12534e-06,-2.29284e-05,9.65369e-06,-5.99736e-06,1.84506e-05,5.76389e-06,7
-2.67634e-05,1.80531e-05,-7.08915e-06,-1.70037e-05,8.881e-06,-6.44179e-06,1.48834e-05,-3.86536e-06,7
-2.74534e-05,1.52764e-05,-1.28044e-05,-1.24778e-05,1.14512e-05,-7.70646e-06,1.35777e-05,-1.14589e-05,7
-2.91306e-05,1.39575e-05,-1.57111e-05,-9.59369e-06,1.41715e-05,-7.46137e-06,1.57232e-05,-1.80586e-05,7
-3.03356e-05,1.52887e-05,-1.19729e-05,-7.63124e-06,1.26084e-05,-5.66043e-06,1.99234e-05,-1.96988e-05,7
-2.97477e-05,1.6239e-05,-5.93707e-06,-4.60513e-06,9.7632e-06,-5.28226e-06,2.35913e-05,-4.86763e-06,7
-2.89319e-05,1.69065e-05,-4.61794e-06,1.1827e-06,9.25557e-06,-7.3734e-06,2.41839e-05,2.47911e-05,7
-2.86847e-05,1.64491e-05,-7.1175e-06,7.71728e-06,8.53887e-06,-8.95728e-06,2.15323e-05,5.37252e-05,7
-2.84511e-05,1.49574e-05,-8.39252e-06,1.3801e-05,7.87091e-06,-8.32449e-06,1.67616e-05,7.43729e-05,7
-2.75541e-05,1.40471e-05,-5.95183e-06,1.933e-05,9.32098e-06,-7.78467e-06,9.27862e-06,9.56292e-05,7
-2.63022e-05,1.40166e-05,-3.25778e-06,2.43192e-05,1.13828e-05,-7.83247e-06,2.50562e-08,0.000115491,7
-2.46562e-05,1.35693e-05,-4.22829e-06,2.86506e-05,1.22981e-05,-8.37681e-06,-5.84666e-06,0.000114682,7
-2.33798e-05,1.13504e-05,-7.17719e-06,2.94707e-05,1.34154e-05,-9.95044e-06,-3.94358e-06,0.000107146,7
-2.31739e-05,9.8071e-06,-1.01158e-05,2.3189e-05,1.41823e-05,-1.16586e-05,2.11186e-06,8.85826e-05,7
-2.32553e-05,1.0199e-05,-1.13716e-05,1.04291e-05,1.13606e-05,-1.09895e-05,6.62549e-06,3.58289e-05,7
-2.41185e-05,1.16796e-05,-1.15717e-05,-6.45195e-06,5.60899e-06,-8.37319e-06,1.00747e-05,-3.25266e-05,7
-2.54548e-05,1.24719e-05,-1.12316e-05,-2.24598e-05,1.5582e-06,-6.08417e-06,1.37138e-05,-8.13836e-05,7
-2.61991e-05,1.28156e-05,-9.40489e-06,-3.04001e-05,2.98798e-06,-5.32724e-06,1.6863e-05,-0.000106468,7
-2.6514e-05,1.45991e-05,-5.514e-06,-2.93402e-05,7.41367e-06,-5.34493e-06,2.08486e-05,-0.000122978,7
-2.70728e-05,1.70905e-05,-1.06063e-06,-2.48436e-05,1.15518e-05,-4.30637e-06,2.52801e-05,-0.000135933,7
-2.84442e-05,1.80298e-05,-6.60127e-07,-2.20248e-05,1.29517e-05,-3.98552e-06,2.57751e-05,-0.000143192,7
-3.08712e-05,1.64956e-05,-5.99497e-06,-2.06463e-05,1.20889e-05,-5.28037e-06,2.09718e-05,-0.000140207,7
-3.28578e-05,1.47293e-05,-1.24069e-05,-1.77477e-05,1.15632e-05,-7.31959e-06,1.35713e-05,-0.000127379,7
-3.25935e-05,1.48257e-05,-1.38936e-05,-1.19718e-05,1.26517e-05,-8.71804e-06,3.61054e-06,-0.000105026,7
-3.03354e-05,1.67676e-05,-9.97232e-06,-4.2853e-06,1.37802e-05,-8.53561e-06,-7.6057e-06,-7.57283e-05,7
-2.76637e-05,1.87659e-05,-4.64393e-06,4.49981e-06,1.28345e-05,-7.60195e-06,-1.20425e-05,-4.44364e-05,7
-2.62528e-05,1.82976e-05,-1.24317e-06,1.13998e-05,1.02689e-05,-8.23993e-06,-6.76236e-06,-1.98967e-05,7
-2.64558e-05,1.62554e-05,1.34838e-07,1.25415e-05,8.93896e-06,-1.11636e-05,1.64726e-07,-5.87004e-06,7
-2.71104e-05,1.36957e-05,7.38032e-08,8.4613e-06,1.03281e-05,-1.42029e-05,3.16747e-06,-6.40987e-07,7
-2.77239e-05,1.13937e-05,-6.03283e-07,1.61685e-06,1.1474e-05,-1.41492e-05,4.86206e-06,4.20418e-07,7
-2.82359e-05,1.06078e-05,-1.60952e-06,-6.943e-06,1.01597e-05,-1.21692e-05,6.22577e-06,8.24132e-06,7
-2.85915e-05,1.09401e-05,-2.86861e-06,-1.33496e-05,9.04922e-06,-1.0838e-05,7.56198e-06,3.25723e-05,7
-2.80599e-05,1.30181e-05,-2.72494e-06,-1.43463e-05,1.0817e-05,-1.03449e-05,9.93733e-06,6.12223e-05,7
-2.63694e-05,1.50952e-05,9.13337e-07,-1.31621e-05,1.36654e-05,-1.03059e-05,1.31576e-05,7.84643e-05,7
-2.5761e-05,1.41611e-05,4.9998e-06,-1.12566e-05,1.66084e-05,-1.10072e-05,1.77706e-05,8.38732e-05,7
-2.71028e-05,1.11134e-05,5.10652e-06,-5.8977e-06,1.92019e-05,-1.3276e-05,1.99077e-05,7.72116e-05,7
-2.87766e-05,9.25335e-06,-2.46857e-07,1.31014e-06,1.99781e-05,-1.50376e-05,2.00497e-05,6.09517e-05,7
-3.05833e-05,8.69896e-06,-8.78618e-06,6.83643e-06,1.85955e-05,-1.52164e-05,1.97492e-05,3.46574e-05,7
-3.26042e-05,7.43184e-06,-1.52326e-05,1.08247e-05,1.55126e-05,-1.44595e-05,1.62684e-05,-7.27112e-06,7
-3.39241e-05,5.87066e-06,-1.84015e-05,2.12816e-05,1.30488e-05,-1.3896e-05,1.19382e-05,-5.20316e-05,7
-3.44926e-05,4.19718e-06,-1.70834e-05,4.55316e-05,1.34378e-05,-1.3967e-05,9.92233e-06,-6.80882e-05,7
-3.36616e-05,4.17467e-06,-1.15428e-05,7.15466e-05,1.55504e-05,-1.44303e-05,1.22489e-05,-4.69453e-05,7
-3.23977e-05,4.88128e-06,-5.85595e-06,8.03563e-05,1.6239e-05,-1.33677e-05,1.72061e-05,-1.3741e-05,7
-3.24455e-05,6.47908e-06,-4.14139e-06,6.07479e-05,1.45838e-05,-1.10207e-05,2.27256e-05,6.99061e-06,7
-3.32552e-05,8.85762e-06,-6.00074e-06,1.30215e-05,1.21975e-05,-1.01694e-05,2.73265e-05,1.24986e-05,7
-3.35939e-05,1.14123e-05,-6.72655e-06,-5.18734e-05,1.06997e-05,-1.06358e-05,3.08654e-05,9.42635e-06,7
-3.17147e-05,1.46075e-05,-4.07711e-06,-0.000115161,1.24263e-05,-1.13245e-05,3.16614e-05,1.59607e-06,7
-2.82326e-05,1.69282e-05,-3.80813e-07,-0.000151399,1.54344e-05,-1.08577e-05,2.8276e-05,-8.74946e-06,7
-2.60189e-05,1.7995e-05,9.52211e-07,-0.000145469,1.63444e-05,-8.42326e-06,2.327e-05,-1.53838e-05,7
-2.56657e-05,1.78076e-05,-8.6541e-08,-0.000108267,1.68229e-05,-5.44106e-06,1.8994e-05,-1.37466e-05,7
-2.54158e-05,1.73287e-05,-2.67885e-06,-6.62193e-05,1.91297e-05,-4.48666e-06,1.62981e-05,-4.14927e-06,7
-2.48719e-05,1.58254e-05,-5.98062e-06,-3.59763e-05,2.13055e-05,-5.44007e-06,1.60403e-05,7.29221e-06,7
-2.5045e-05,1.33531e-05,-8.7375e-06,-1.80628e-05,2.11314e-05,-6.72129e-06,1.86991e-05,1.18956e-05,7
-2.57999e-05,1.13647e-05,-1.02714e-05,-5.0949e-06,1.89295e-05,-7.56963e-06,2.12952e-05,8.63417e-06,7
-2.65422e-05,1.17578e-05,-9.93843e-06,7.67176e-06,1.63598e-05,-8.27198e-06,2.18407e-05,5.55532e-06,7
-2.77029e-05,1.3418e-05,-8.17215e-06,1.76895e-05,1.33438e-05,-9.06114e-06,1.94361e-05,8.10316e-06,7
-2.96401e-05,1.39514e-05,-6.58039e-06,2.21799e-05,9.13914e-06,-1.05968e-05,1.52832e-05,1.20612e-05,7
-3.06635e-05,1.27466e-05,-5.97821e-06,2.19948e-05,6.94794e-06,-1.21246e-05,1.02746e-05,1.0416e-05,7
-3.0942e-05,1.05986e-05,-5.7073e-06,1.85564e-05,9.53165e-06,-1.27519e-05,4.65396e-06,3.30839e-06,7
-3.0996e-05,9.83079e-06,-5.16099e-06,1.35134e-05,1.69303e-05,-1.47486e-05,-8.12817e-07,-2.95279e-06,7
-2.90161e-05,1.05505e-05,-5.97291e-06,9.92657e-06,2.48797e-05,-1.68803e-05,-5.1876e-06,-5.62056e-06,7
-2.76258e-05,1.30617e-05,-7.224e-06,9.16867e-06,2.6982e-05,-1.70129e-05,-6.91613e-06,-6.73033e-06,7
-2.89356e-05,1.53309e-05,-6.94917e-06,1.03356e-05,2.27717e-05,-1.66404e-05,-6.33075e-06,-5.42674e-06,7
-2.99997e-05,1.41712e-05,-4.94172e-06,1.1223e-05,1.87418e-05,-1.63578e-05,-3.73081e-06,-4.44418e-07,7
-2.97797e-05,1.23629e-05,-3.11416e-06,1.00028e-05,1.7964e-05,-1.52725e-05,2.77731e-06,3.30579e-06,7
-2.87556e-05,1.13306e-05,-4.01943e-06,7.07208e-06,1.77592e-05,-1.29556e-05,1.07052e-05,9.06035e-06,7
-2.74743e-05,1.08132e-05,-6.56626e-06,4.22877e-06,1.68988e-05,-1.07447e-05,1.73767e-05,2.36089e-05,7
-2.70687e-05,9.67287e-06,-8.60581e-06,3.66055e-06,1.46593e-05,-1.00933e-05,2.19619e-05,3.95473e-05,7
-2.72308e-05,9.15512e-06,-7.62997e-06,5.56751e-06,1.03716e-05,-1.06974e-05,2.32195e-05,4.91476e-05,7
-2.79499e-05,9.88482e-06,-6.40291e-06,6.06637e-06,5.12149e-06,-1.16059e-05,2.1891e-05,5.93772e-05,7
-2.8683e-05,1.05795e-05,-7.17068e-06,3.86582e-06,1.43042e-06,-1.19231e-05,1.83192e-05,7.02921e-05,7
-2.79057e-05,1.07945e-05,-9.10983e-06,1.29591e-06,4.82879e-06,-1.07932e-05,1.24231e-05,6.13546e-05,7
-2.60227e-05,1.04303e-05,-1.08594e-05,-1.42985e-06,1.81611e-05,-8.30984e-06,4.21854e-06,2.46802e-05,7
-2.50791e-05,1.04625e-05,-1.02419e-05,-1.86622e-06,3.27906e-05,-6.27369e-06,-8.06049e-07,-1.13565e-05,7
-2.55384e-05,1.0569e-05,-7.51062e-06,1.1028e-06,3.60311e-05,-5.82364e-06,2.42415e-06,-1.64422e-05,7
-2.65262e-05,1.13426e-05,-4.75751e-06,3.27362e-06,2.79049e-05,-7.05407e-06,9.93324e-06,5.26047e-06,7
-2.79489e-05,1.23468e-05,-2.96344e-06,2.23169e-06,1.90165e-05,-9.01914e-06,1.39431e-05,2.93843e-05,7
-2.97696e-05,1.28667e-05,-1.75586e-06,-2.41069e-07,1.57429e-05,-1.00917e-05,1.44083e-05,4.32775e-05,7
-3.16149e-05,1.14905e-05,-2.06904e-06,-4.09173e-06,1.60656e-05,-1.00525e-05,1.53819e-05,4.64615e-05,7
-3.23044e-05,9.7559e-06,-4.05934e-06,-1.02159e-05,1.66698e-05,-1.0359e-05,1.72442e-05,3.64192e-05,7
-3.17599e-05,9.3468e-06,-6.77739e-06,-1.51546e-05,1.74771e-05,-1.0831e-05,1.99693e-05,8.02638e-06,7
-3.06002e-05,1.05585e-05,-8.61609e-06,-1.72658e-05,1.78962e-05,-1.06726e-05,2.33117e-05,-3.80597e-05,7
-2.96094e-05,1.2386e-05,-9.5697e-06,-2.02098e-05,1.65182e-05,-1.07033e-05,2.50259e-05,-9.13933e-05,7
-2.912e-05,1.343e-05,-1.1249e-05,-2.49471e-05,1.49594e-05,-1.00313e-05,2.47421e-05,-0.000138965,7
-2.90384e-05,1.3105e-05,-1.33902e-05,-2.92121e-05,1.50012e-05,-8.60807e-06,2.31058e-05,-0.000163349,7
-2.8533e-05,1.31886e-05,-1.3205e-05,-3.07058e-05,1.54893e-05,-6.43833e-06,1.98126e-05,-0.000149632,7
-2.83462e-05,1.42504e-05,-1.21638e-05,-2.67933e-05,1.51692e-05,-4.92409e-06,1.80968e-05,-0.00010676,7
-3.00169e-05,1.42804e-05,-1.14303e-05,-2.1083e-05,1.40164e-05,-4.82001e-06,2.00827e-05,-6.22881e-05,7
-3.21521e-05,1.39839e-05,-1.1646e-05,-1.48254e-05,1.41321e-05,-4.74819e-06,2.17517e-05,-3.1792e-05,7
-3.28491e-05,1.37573e-05,-1.25255e-05,-4.26514e-06,1.50367e-05,-6.53295e-06,1.99984e-05,-1.30833e-05,7
-3.26302e-05,1.33951e-05,-1.14405e-05,1.10006e-05,1.6269e-05,-7.85718e-06,1.73936e-05,3.83606e-07,7
-3.36528e-05,1.28248e-05,-8.98031e-06,2.66704e-05,1.703e-05,-7.59162e-06,1.46114e-05,1.08536e-05,7
-3.57348e-05,1.31045e-05,-5.16454e-06,3.72007e-05,1.75546e-05,-7.91371e-06,1.27823e-05,1.85225e-05,7
-3.77122e-05,1.36467e-05,-2.32661e-06,4.02636e-05,1.94696e-05,-9.09504e-06,1.15162e-05,2.48273e-05,7
-3.81188e-05,1.3127e-05,-3.22152e-06,3.54221e-05,2.00171e-05,-9.781e-06,7.96861e-06,2.61797e-05,7
-3.78755e-05,1.03533e-05,-9.67868e-06,2.69415e-05,1.75048e-05,-9.55878e-06,4.13272e-06,2.3776e-05,7
-3.78699e-05,6.59846e-06,-1.69592e-05,2.17509e-05,1.39057e-05,-9.3289e-06,2.77191e-06,2.15183e-05,7
-3.8018e-05,5.43553e-06,-1.80386e-05,2.43638e-05,1.37589e-05,-8.36215e-06,4.46473e-06,2.18812e-05,7
-3.69177e-05,6.87626e-06,-1.46255e-05,3.06234e-05,1.61428e-05,-7.7214e-06,8.2621e-06,2.53322e-05,7
-3.46979e-05,8.39045e-06,-1.14898e-05,3.40145e-05,1.8189e-05,-8.51518e-06,1.36438e-05,3.21045e-05,7
-3.3933e-05,9.95965e-06,-9.8885e-06,3.07424e-05,1.99022e-05,-1.00526e-05,1.8101e-05,4.34687e-05,7
-3.41762e-05,1.26631e-05,-7.93985e-06,2.10559e-05,2.16645e-05,-1.08409e-05,1.91949e-05,5.41769e-05,7
-3.50974e-05,1.50904e-05,-5.73792e-06,7.71022e-06,2.17458e-05,-1.16404e-05,1.78707e-05,5.45705e-05,7
-3.67488e-05,1.58847e-05,-5.70151e-06,-6.65733e-06,1.75633e-05,-1.17492e-05,1.56691e-05,4.17062e-05,7
-3.83623e-05,1.55063e-05,-7.70354e-06,-1.86224e-05,1.10576e-05,-1.04122e-05,1.3511e-05,2.48881e-05,7
-3.82567e-05,1.46199e-05,-7.95828e-06,-2.67176e-05,7.47516e-06,-9.22133e-06,1.22256e-05,1.75879e-05,7
-3.62317e-05,1.36708e-05,-4.94682e-06,-3.03852e-05,8.53268e-06,-8.80765e-06,1.14211e-05,2.40511e-05,7
-3.41001e-05,1.31803e-05,-1.29091e-06,-3.02801e-05,1.12524e-05,-8.31543e-06,1.03552e-05,3.23171e-05,7
-3.35282e-05,1.27399e-05,9.95073e-07,-2.90812e-05,1.44581e-05,-8.64234e-06,9.8899e-06,3.00123e-05,7
-3.39942e-05,1.20551e-05,4.22901e-06,-2.96583e-05,1.75278e-05,-1.08334e-05,1.0308e-05,1.90035e-05,7
-3.46484e-05,1.23555e-05,1.05334e-05,-3.01242e-05,1.92751e-05,-1.26424e-05,1.24672e-05,1.03249e-05,7
-3.43297e-05,1.37117e-05,1.64276e-05,-3.05331e-05,1.75889e-05,-1.17052e-05,1.64889e-05,8.31002e-06,7
-3.30274e-05,1.52537e-05,1.4218e-05,-3.32318e-05,1.22845e-05,-8.20444e-06,2.04324e-05,1.18711e-05,7
-3.14683e-05,1.66757e-05,3.622e-06,-3.54772e-05,5.45258e-06,-4.60472e-06,2.19359e-05,1.65928e-05,7
-3.01278e-05,1.67263e-05,-6.10501e-06,-3.25517e-05,-9.56829e-07,-1.19459e-06,2.02472e-05,1.69433e-05,7
-3.08007e-05,1.5025e-05,-8.71466e-06,-2.20646e-05,-4.41969e-06,2.6702e-07,2.07073e-05,1.14411e-05,7
-3.12499e-05,1.43042e-05,-5.01369e-06,-8.80886e-06,-2.51802e-06,-1.61941e-06,2.45297e-05,3.55502e-06,7
-3.0901e-05,1.51808e-05,-5.38009e-07,-2.10689e-06,1.6299e-06,-4.91154e-06,2.81686e-05,-4.47399e-06,7
-3.2135e-05,1.43216e-05,-1.44622e-06,-3.64071e-06,4.88855e-06,-7.12047e-06,3.19421e-05,-1.20249e-05,7
-3.35153e-05,1.25975e-05,-8.12509e-06,-1.07284e-05,7.25162e-06,-7.98158e-06,3.48082e-05,-1.87528e-05,7
-3.29849e-05,1.1667e-05,-1.52084e-05,-1.74778e-05,8.42602e-06,-7.40211e-06,3.37265e-05,-2.44484e-05,7
-2.99787e-05,1.21061e-05,-1.51144e-05,-1.49096e-05,9.97374e-06,-6.2908e-06,2.52014e-05,-2.59695e-05,7
-2.78283e-05,1.29204e-05,-1.14549e-05,-4.88482e-06,1.09407e-05,-7.49911e-06,1.30046e-05,-2.56724e-05,7
-2.82466e-05,1.10174e-05,-1.28912e-05,3.39989e-06,1.18419e-05,-1.01269e-05,5.66127e-06,-2.45568e-05,7
-2.91896e-05,8.27056e-06,-1.57319e-05,7.32633e-06,1.21168e-05,-1.10497e-05,6.04155e-06,-2.09183e-05,7
-2.80777e-05,8.57853e-06,-1.34248e-05,8.9274e-06,1.09985e-05,-9.36259e-06,1.01785e-05,-1.29196e-05,7
-2.53281e-05,1.21661e-05,-6.94185e-06,1.00652e-05,9.1173e-06,-8.39978e-06,1.33942e-05,4.36785e-06,7
-2.33288e-05,1.55761e-05,-2.02411e-06,1.04368e-05,7.68977e-06,-8.54882e-06,1.50846e-05,3.00247e-05,7
-2.24876e-05,1.75166e-05,-7.95426e-07,7.80895e-06,8.23266e-06,-8.64379e-06,1.54481e-05,5.38864e-05,7
-2.27541e-05,1.76281e-05,-3.17209e-06,4.81603e-07,9.7325e-06,-8.18805e-06,1.45051e-05,6.96852e-05,7
-2.43043e-05,1.58131e-05,-6.19914e-06,-8.11811e-06,1.10946e-05,-7.49049e-06,9.40615e-06,7.70362e-05,7
-2.7301e-05,1.38727e-05,-7.36057e-06,-1.15483e-05,1.06136e-05,-7.34411e-06,-3.40373e-06,7.62882e-05,7
-2.95758e-05,1.29461e-05,-7.35708e-06,-9.6183e-06,8.74161e-06,-7.20824e-06,-2.14841e-05,6.64363e-05,7
-2.93653e-05,1.30909e-05,-8.24032e-06,-7.45097e-06,7.62936e-06,-7.41213e-06,-3.51075e-05,4.67851e-05,7
-2.78619e-05,1.35565e-05,-9.41263e-06,-8.52817e-06,8.07642e-06,-8.39185e-06,-3.34739e-05,2.6553e-05,7
-2.7342e-05,1.3488e-05,-8.63335e-06,-1.06481e-05,8.88278e-06,-1.01609e-05,-1.73564e-05,2.60076e-05,7
-2.78845e-05,1.28709e-05,-6.92933e-06,-1.02178e-05,9.89209e-06,-1.07204e-05,9.28602e-07,4.61691e-05,7
-2.93048e-05,1.24223e-05,-6.91113e-06,-7.61117e-06,1.10556e-05,-1.08577e-05,1.23984e-05,6.22054e-05,7
-3.05303e-05,1.22105e-05,-8.32149e-06,-6.68606e-06,1.2317e-05,-1.14457e-05,1.48767e-05,6.80074e-05,7
-3.09983e-05,1.20261e-05,-9.06899e-06,-6.74744e-06,1.26698e-05,-1.25316e-05,1.19533e-05,7.70151e-05,7
-3.05839e-05,1.25714e-05,-8.81556e-06,-5.29564e-06,1.25614e-05,-1.41606e-05,9.0957e-06,8.47664e-05,7
-2.97711e-05,1.43894e-05,-7.46914e-06,-3.04588e-06,1.32078e-05,-1.40616e-05,8.73315e-06,6.10067e-05,7
-2.98e-05,1.4366e-05,-5.8098e-06,-2.83098e-06,1.52147e-05,-1.2729e-05,9.8463e-06,-2.31557e-05,7
-3.0066e-05,1.27024e-05,-4.14253e-06,-7.38741e-06,1.82959e-05,-1.22162e-05,8.10832e-06,-0.000126953,7
-2.95215e-05,1.20422e-05,-4.23678e-06,-1.54533e-05,1.95531e-05,-1.25433e-05,5.42242e-06,-0.000190292,7
-2.82051e-05,1.2356e-05,-6.75727e-06,-2.30054e-05,1.84169e-05,-1.34556e-05,5.92285e-06,-0.000200696,7
-2.71772e-05,1.37443e-05,-1.02788e-05,-2.87212e-05,1.56844e-05,-1.43428e-05,8.19766e-06,-0.000155311,7
-2.75735e-05,1.45034e-05,-1.17721e-05,-3.14174e-05,1.42211e-05,-1.43057e-05,1.15099e-05,-8.87114e-05,7
-2.89041e-05,1.36293e-05,-1.1234e-05,-2.92158e-05,1.42624e-05,-1.4261e-05,1.40593e-05,-4.36522e-05,7
-3.00218e-05,1.25933e-05,-1.06775e-05,-2.20602e-05,1.41327e-05,-1.35688e-05,1.44949e-05,-3.04338e-05,7
-2.96466e-05,1.13893e-05,-1.05686e-05,-1.1604e-05,1.40192e-05,-1.19488e-05,1.45278e-05,-3.28193e-05,7
-2.83019e-05,9.74041e-06,-8.94782e-06,-1.95382e-06,1.37285e-05,-1.03136e-05,1.55233e-05,-3.35207e-05,7
-2.74678e-05,8.91104e-06,-5.87377e-06,3.52092e-06,1.37711e-05,-1.00349e-05,1.61658e-05,-2.84432e-05,7
-2.74605e-05,8.53441e-06,-4.8874e-06,3.71125e-06,1.52337e-05,-1.12866e-05,1.33019e-05,-1.76811e-05,7
-2.8688e-05,8.57047e-06,-6.09287e-06,1.97541e-06,1.75559e-05,-1.23407e-05,9.02884e-06,-2.10892e-06,7
-2.948e-05,8.91693e-06,-7.38103e-06,2.90726e-06,1.90387e-05,-1.23814e-05,6.80913e-06,1.38026e-05,7
-2.973e-05,9.96949e-06,-7.79407e-06,6.96056e-06,2.00331e-05,-1.02672e-05,5.68334e-06,1.66735e-05,7
-2.99404e-05,1.13869e-05,-8.52997e-06,1.1629e-05,2.12314e-05,-7.63217e-06,3.80639e-06,4.39186e-06,7
-3.00261e-05,1.18688e-05,-9.03246e-06,1.5728e-05,2.27777e-05,-6.66691e-06,2.26717e-06,-1.36932e-05,7
-2.89906e-05,1.11421e-05,-9.03781e-06,1.79933e-05,2.34474e-05,-7.26338e-06,5.66601e-06,-2.20083e-05,7
-2.80285e-05,1.06201e-05,-8.97925e-06,1.56063e-05,2.12992e-05,-7.40074e-06,1.5914e-05,-1.3794e-05,7
-2.83912e-05,1.0684e-05,-9.53481e-06,8.15734e-06,1.60722e-05,-7.06493e-06,2.85592e-05,1.02269e-05,7
-2.86078e-05,1.01152e-05,-1.06901e-05,1.27183e-06,1.11278e-05,-7.62364e-06,3.71403e-05,4.13267e-05,7
-2.81226e-05,1.06966e-05,-1.1345e-05,2.90287e-07,1.09512e-05,-8.21158e-06,3.82166e-05,6.3194e-05,7
-2.73074e-05,1.20647e-05,-1.02825e-05,2.16642e-06,1.3592e-05,-8.23989e-06,3.2835e-05,6.38732e-05,7
-2.6014e-05,1.31418e-05,-8.56016e-06,6.54603e-07,1.35883e-05,-8.16748e-06,2.50989e-05,4.61352e-05,7
-2.5672e-05,1.31552e-05,-7.75584e-06,-5.26822e-06,9.90986e-06,-7.98226e-06,1.96174e-05,2.25365e-05,7
-2.70112e-05,1.12203e-05,-7.69017e-06,-9.88493e-06,5.5152e-06,-8.05001e-06,1.80947e-05,6.59466e-06,7
-2.82258e-05,9.3216e-06,-7.7483e-06,-9.33357e-06,4.35178e-06,-7.32406e-06,1.99369e-05,-1.23371e-06,7
-2.92997e-05,9.7066e-06,-5.51052e-06,-5.97266e-06,7.41019e-06,-5.73645e-06,2.25217e-05,-8.37477e-06,7
-2.9566e-05,1.19016e-05,-9.72641e-07,-3.48323e-06,1.14319e-05,-6.07426e-06,2.38277e-05,-1.54279e-05,7
-2.98947e-05,1.14392e-05,1.90872e-06,-2.18869e-06,1.41881e-05,-7.44328e-06,2.34576e-05,-1.97717e-05,7
-3.02502e-05,9.00733e-06,1.36484e-06,-1.08288e-06,1.52244e-05,-8.19533e-06,1.95922e-05,-1.04652e-05,7
-3.14465e-05,8.50304e-06,-1.12659e-06,-1.37707e-06,1.54765e-05,-9.12893e-06,1.31782e-05,2.067e-05,7
-3.35023e-05,8.02661e-06,-4.34966e-06,-9.97577e-07,1.54417e-05,-1.07189e-05,7.24472e-06,6.33212e-05,7
-3.36855e-05,6.90539e-06,-6.71252e-06,3.9099e-06,1.37178e-05,-1.15236e-05,6.78531e-06,0.00010255,7
-3.28365e-05,5.58706e-06,-6.00879e-06,1.25719e-05,1.30016e-05,-1.20791e-05,1.17751e-05,0.000123718,7
-3.27318e-05,5.47439e-06,-2.18388e-06,1.75645e-05,1.67481e-05,-1.43878e-05,1.71525e-05,0.000118128,7
-3.65021e-05,5.02619e-06,5.19932e-07,1.23576e-05,2.1607e-05,-1.9294e-05,2.1642e-05,9.30421e-05,7
-4.26473e-05,1.68647e-06,-2.84225e-06,-1.27284e-06,2.36834e-05,-2.39043e-05,2.5258e-05,5.12418e-05,7
-4.67895e-05,-1.92919e-06,-1.12785e-05,-1.79981e-05,2.39287e-05,-2.50389e-05,2.51424e-05,-9.85905e-06,7
-4.71427e-05,-2.28607e-06,-2.18675e-05,-3.88835e-05,2.26914e-05,-2.14422e-05,1.71334e-05,-7.81431e-05,7
-4.30325e-05,2.09856e-06,-2.84958e-05,-6.31802e-05,1.79153e-05,-1.35632e-05,4.48707e-06,-0.000134034,7
-3.58223e-05,1.05148e-05,-2.12801e-05,-7.88956e-05,9.93856e-06,-3.87095e-06,-5.7726e-06,-0.000166839,7
-2.85927e-05,1.86194e-05,-3.93235e-06,-7.63157e-05,2.65328e-06,3.15721e-06,-8.68112e-06,-0.000169944,7
-2.62396e-05,2.18159e-05,6.95597e-06,-5.91024e-05,-8.48264e-07,4.96192e-06,-4.54261e-06,-0.000145037,7
-2.88053e-05,2.21291e-05,5.14668e-06,-3.81214e-05,9.87502e-07,4.38337e-06,4.18201e-06,-0.00010417,7
-3.13277e-05,2.33966e-05,1.76396e-06,-2.03382e-05,7.32072e-06,4.03577e-06,1.38982e-05,-6.59756e-05,7
-3.06418e-05,2.45757e-05,4.66438e-06,-9.84178e-06,1.39126e-05,4.57197e-06,1.88812e-05,-4.27791e-05,7
-2.93516e-05,2.2791e-05,1.01569e-05,-8.34461e-06,1.76624e-05,4.90455e-06,1.4991e-05,-3.44789e-05,7
-3.08865e-05,1.99582e-05,1.21219e-05,-1.13513e-05,2.00837e-05,5.23273e-06,3.81304e-06,-3.09719e-05,7
-3.31586e-05,1.87444e-05,8.68565e-06,-1.05574e-05,2.36717e-05,6.24166e-06,-7.28159e-06,-2.52016e-05,7
-3.38814e-05,1.87556e-05,3.09207e-06,-1.65388e-06,2.5684e-05,7.19143e-06,-5.62507e-06,-1.69611e-05,7
-3.31485e-05,1.91175e-05,3.20808e-07,1.91295e-05,2.30996e-05,6.99591e-06,1.85748e-05,-1.00315e-05,7
-3.19312e-05,1.87065e-05,4.14601e-06,4.58836e-05,1.68654e-05,4.64014e-06,5.10305e-05,-4.89071e-06,7
-3.19997e-05,1.67887e-05,1.02025e-05,6.26602e-05,9.86247e-06,4.24679e-07,6.68849e-05,7.20786e-06,7
-3.30714e-05,1.53785e-05,1.06095e-05,6.42246e-05,2.46407e-07,-4.99294e-06,5.50268e-05,2.43577e-05,7
-3.37521e-05,1.40121e-05,6.25239e-06,5.68102e-05,-9.55057e-06,-8.77699e-06,3.09814e-05,3.44695e-05,7
-3.39698e-05,1.24742e-05,1.34365e-06,4.61112e-05,-1.21657e-05,-8.76017e-06,1.13376e-05,4.57462e-05,7
-3.48515e-05,1.04898e-05,-5.39619e-06,3.56994e-05,-8.77498e-06,-9.91777e-06,-1.06477e-05,8.30403e-05,7
-3.62108e-05,6.19314e-06,-1.43471e-05,2.59425e-05,-4.07488e-06,-1.43506e-05,-3.45974e-05,0.000127963,7
-3.74467e-05,2.76219e-06,-1.99695e-05,1.53591e-05,-1.09293e-06,-1.7464e-05,-4.80242e-05,0.000140031,7
-3.76037e-05,3.47442e-06,-2.01422e-05,1.06314e-05,3.0865e-06,-1.62149e-05,-4.56969e-05,0.000119026,7
-3.64471e-05,6.56723e-06,-1.62939e-05,1.46586e-05,7.77934e-06,-1.3399e-05,-3.30019e-05,8.50971e-05,7
-3.46388e-05,8.38336e-06,-1.21854e-05,2.16266e-05,1.0636e-05,-1.12021e-05,-2.13307e-05,5.17325e-05,7
-3.19169e-05,8.05899e-06,-1.07558e-05,2.63753e-05,1.12827e-05,-1.10931e-05,-1.62042e-05,2.34718e-05,7
-2.86971e-05,7.80391e-06,-9.23072e-06,2.95252e-05,1.17855e-05,-1.31179e-05,-1.39122e-05,2.69339e-06,7
-2.61565e-05,9.03684e-06,-7.07928e-06,3.12796e-05,1.33386e-05,-1.53269e-05,-1.3109e-05,-9.73258e-06,7
-2.52944e-05,1.17683e-05,-5.9317e-06,2.86033e-05,1.38601e-05,-1.60133e-05,-1.04985e-05,-1.54129e-05,7
-2.50853e-05,1.33838e-05,-7.25776e-06,2.25543e-05,1.42073e-05,-1.48631e-05,-3.9913e-06,-1.27123e-05,7
-2.52919e-05,1.23043e-05,-9.64691e-06,1.60377e-05,1.41767e-05,-1.35954e-05,2.95018e-06,-6.99024e-07,7
-2.57101e-05,1.10689e-05,-1.02216e-05,9.07645e-06,1.43601e-05,-1.33802e-05,7.49466e-06,1.31668e-05,7
-2.56449e-05,1.12042e-05,-7.31624e-06,-7.3938e-07,1.58502e-05,-1.4469e-05,1.00902e-05,1.19242e-05,7
-2.53488e-05,1.22066e-05,-3.62007e-06,-1.72451e-05,1.85417e-05,-1.46669e-05,1.30357e-05,-1.35012e-05,7
-2.59048e-05,1.27355e-05,-4.91963e-06,-4.32058e-05,1.93884e-05,-1.38952e-05,1.59631e-05,-5.47435e-05,7
-2.73037e-05,1.20566e-05,-1.15294e-05,-7.3308e-05,1.67727e-05,-1.30287e-05,1.82334e-05,-9.15208e-05,7
-2.959e-05,1.06331e-05,-1.7633e-05,-9.29075e-05,1.28677e-05,-1.24167e-05,1.96505e-05,-0.000105279,7
-3.12986e-05,1.04373e-05,-1.79381e-05,-8.73949e-05,1.11391e-05,-1.09602e-05,2.13635e-05,-9.28084e-05,7
-3.08087e-05,1.08271e-05,-1.36792e-05,-6.06497e-05,1.15868e-05,-9.5077e-06,2.25237e-05,-6.67221e-05,7
-2.88749e-05,1.05559e-05,-1.05222e-05,-3.22794e-05,1.40648e-05,-8.94586e-06,2.36451e-05,-4.24168e-05,7
-2.6083e-05,1.0932e-05,-9.54425e-06,-1.61049e-05,1.83555e-05,-8.93082e-06,2.49191e-05,-2.88241e-05,7
-2.4091e-05,1.1214e-05,-8.4274e-06,-1.29041e-05,2.00771e-05,-9.68476e-06,2.59277e-05,-2.38105e-05,7
-2.37805e-05,1.12708e-05,-7.32271e-06,-1.56207e-05,1.57384e-05,-1.03709e-05,2.69807e-05,-1.953e-05,7
-2.48353e-05,1.32992e-05,-6.44796e-06,-1.81229e-05,9.09585e-06,-1.09841e-05,2.67872e-05,-1.20938e-05,7
-2.58068e-05,1.56828e-05,-6.981e-06,-1.71181e-05,6.5512e-06,-1.14144e-05,2.38437e-05,-2.75644e-06,7
-2.59809e-05,1.6573e-05,-8.26042e-06,-1.46352e-05,9.14033e-06,-1.07718e-05,1.89513e-05,6.22943e-06,7
-2.60306e-05,1.56372e-05,-8.78089e-06,-1.32103e-05,1.37975e-05,-9.50247e-06,1.64932e-05,1.24228e-05,7
-2.57753e-05,1.53585e-05,-9.04604e-06,-1.13056e-05,1.64139e-05,-9.16413e-06,1.57322e-05,1.33501e-05,7
-2.56517e-05,1.63209e-05,-9.94843e-06,-1.0183e-05,1.59018e-05,-8.83652e-06,1.58897e-05,1.51877e-05,7
-2.60251e-05,1.59745e-05,-1.13744e-05,-9.66089e-06,1.44656e-05,-8.25426e-06,1.82454e-05,2.74503e-05,7
-2.6504e-05,1.46524e-05,-1.16607e-05,-8.84601e-06,1.37971e-05,-8.46982e-06,2.07462e-05,5.04102e-05,7
-2.66123e-05,1.36356e-05,-1.06904e-05,-5.74417e-06,1.37549e-05,-8.84299e-06,2.13462e-05,6.86657e-05,7
-2.61301e-05,1.40215e-05,-1.04768e-05,-1.20532e-06,1.43387e-05,-9.17722e-06,1.97079e-05,7.40576e-05,7
-2.57585e-05,1.40768e-05,-1.10603e-05,1.62604e-06,1.51978e-05,-8.9701e-06,1.8866e-05,7.43783e-05,7
-2.53553e-05,1.34464e-05,-1.03918e-05,3.37548e-06,1.71881e-05,-8.79175e-06,1.97218e-05,7.36915e-05,7
-2.47754e-05,1.30683e-05,-9.51272e-06,4.24944e-06,1.98581e-05,-1.02852e-05,2.13808e-05,6.96718e-05,7
-2.44387e-05,1.35431e-05,-9.23436e-06,2.97146e-06,2.15907e-05,-1.34524e-05,2.34267e-05,5.96764e-05,7
-2.42723e-05,1.40623e-05,-1.00121e-05,-4.89469e-07,2.10043e-05,-1.53292e-05,2.43684e-05,4.50503e-05,7
-2.45989e-05,1.35245e-05,-1.28498e-05,-3.25746e-06,1.81308e-05,-1.35691e-05,2.30877e-05,2.54997e-05,7
-2.59674e-05,1.17886e-05,-1.64142e-05,-3.99334e-06,1.41483e-05,-1.03667e-05,2.06965e-05,-2.62734e-06,7
-2.79553e-05,1.05756e-05,-1.75777e-05,-2.63027e-06,1.08074e-05,-8.98439e-06,1.9012e-05,-3.58552e-05,7
-2.99589e-05,1.05783e-05,-1.55214e-05,2.34159e-07,1.07756e-05,-1.08994e-05,1.78262e-05,-6.12318e-05,7
-3.16428e-05,1.04862e-05,-1.31245e-05,2.09665e-06,1.33334e-05,-1.43573e-05,1.58944e-05,-7.05571e-05,7
-3.27061e-05,1.02069e-05,-1.23627e-05,-5.00314e-07,1.54852e-05,-1.63183e-05,1.11802e-05,-6.716e-05,7
-3.26571e-05,1.0509e-05,-1.14151e-05,-4.9371e-06,1.69664e-05,-1.49323e-05,5.16762e-06,-5.49543e-05,7
-3.12271e-05,1.34969e-05,-7.94271e-06,-7.62884e-06,1.88949e-05,-1.14002e-05,1.67066e-06,-2.85155e-05,7
-2.94264e-05,1.72878e-05,-3.7144e-06,-7.82505e-06,1.94964e-05,-7.76294e-06,2.81709e-06,7.46399e-06,7
-2.87762e-05,1.86955e-05,-2.17881e-06,-8.21506e-06,1.68072e-05,-6.87353e-06,6.94296e-06,3.28821e-05,7
-2.9755e-05,1.6767e-05,-4.61514e-06,-1.21297e-05,1.30745e-05,-8.33402e-06,9.03314e-06,4.84371e-05,7
-3.23542e-05,1.29266e-05,-6.56525e-06,-1.51932e-05,1.10159e-05,-9.18648e-06,9.3841e-06,6.30301e-05,7
-3.45363e-05,1.23091e-05,-6.80303e-06,-1.39721e-05,1.05496e-05,-9.54051e-06,1.16236e-05,6.01142e-05,7
-3.47451e-05,1.38689e-05,-6.6825e-06,-1.06643e-05,1.05955e-05,-9.98487e-06,1.41326e-05,2.48244e-05,7
-3.4482e-05,1.40598e-05,-6.7027e-06,-7.23039e-06,1.15696e-05,-9.99426e-06,1.52153e-05,-2.54575e-05,7
-3.40141e-05,1.38748e-05,-6.14798e-06,-4.5701e-06,1.2826e-05,-1.03299e-05,1.44153e-05,-6.73837e-05,7
-3.25895e-05,1.3364e-05,-4.67248e-06,-3.9137e-06,1.38282e-05,-1.11596e-05,1.33878e-05,-8.66327e-05,7
-3.1017e-05,1.43611e-05,-5.58425e-06,-4.0958e-06,1.59768e-05,-1.07764e-05,1.40627e-05,-7.65288e-05,7
-3.03955e-05,1.55218e-05,-7.52445e-06,-3.78425e-06,1.70269e-05,-9.89296e-06,1.53659e-05,-4.99411e-05,7
-3.02841e-05,1.56359e-05,-9.11005e-06,-1.34457e-06,1.61694e-05,-8.82254e-06,1.55144e-05,-2.383e-05,7
-3.11779e-05,1.44037e-05,-1.07535e-05,1.62423e-06,1.34372e-05,-8.63255e-06,1.5208e-05,-4.79536e-06,7
-3.26858e-05,1.22644e-05,-1.08281e-05,2.86116e-06,7.49129e-06,-9.8733e-06,1.70597e-05,9.14969e-06,7
-3.41071e-05,1.20827e-05,-6.2723e-06,2.71666e-06,-8.81417e-07,-1.13576e-05,1.96566e-05,1.95138e-05,7
-3.5257e-05,1.23763e-05,-8.77624e-07,1.47407e-06,-6.75983e-06,-1.2442e-05,2.03209e-05,2.79768e-05,7
-3.4828e-05,1.32223e-05,-1.00885e-07,2.15902e-06,-2.48959e-06,-1.19035e-05,1.89011e-05,3.36306e-05,7
-3.17689e-05,1.42035e-05,-3.6388e-06,5.86739e-06,1.43202e-05,-9.79101e-06,1.59325e-05,3.42294e-05,7
-2.84845e-05,1.48594e-05,-7.4476e-06,8.193e-06,3.3707e-05,-7.98058e-06,1.22527e-05,3.08462e-05,7
-2.8202e-05,1.54533e-05,-7.46548e-06,3.23131e-06,4.10293e-05,-8.03882e-06,1.10368e-05,2.53031e-05,7
-2.96314e-05,1.54765e-05,-4.20085e-06,-7.74831e-06,3.38195e-05,-9.06959e-06,1.53434e-05,1.92032e-05,7
-3.03959e-05,1.4803e-05,1.49659e-06,-1.79813e-05,2.24642e-05,-9.16934e-06,2.30261e-05,1.45367e-05,7
-3.02305e-05,1.41573e-05,7.4596e-06,-2.35336e-05,1.51826e-05,-8.34865e-06,2.71904e-05,1.3466e-05,7
-2.94403e-05,1.40167e-05,9.48142e-06,-2.54016e-05,1.26835e-05,-8.51743e-06,2.36843e-05,1.35334e-05,7
-2.76788e-05,1.40448e-05,5.17158e-06,-2.48183e-05,1.27424e-05,-9.00952e-06,1.57845e-05,1.21667e-05,7
-2.63925e-05,1.42979e-05,-1.14631e-06,-2.19519e-05,1.18663e-05,-7.96821e-06,1.00879e-05,9.35414e-06,7
-2.65217e-05,1.50336e-05,-5.23152e-06,-1.64368e-05,9.63507e-06,-6.24639e-06,7.86931e-06,6.98861e-06,7
-2.77578e-05,1.64098e-05,-6.93819e-06,-2.33702e-06,8.7504e-06,-5.44997e-06,5.58869e-06,5.924e-06,7
-2.93642e-05,1.66684e-05,-7.54266e-06,2.23152e-05,1.04923e-05,-5.11093e-06,3.6854e-06,4.6421e-06,7
-3.03766e-05,1.54411e-05,-8.1517e-06,4.4594e-05,1.22044e-05,-4.80073e-06,4.77469e-06,2.61852e-06,7
-2.93466e-05,1.4546e-05,-7.83698e-06,5.42581e-05,1.2441e-05,-4.621e-06,7.03034e-06,2.87375e-06,7
-2.64678e-05,1.68308e-05,-4.48487e-06,4.76856e-05,1.41823e-05,-5.28369e-06,9.96414e-06,5.19874e-06,7
-2.42427e-05,2.01598e-05,2.03575e-06,2.70916e-05,1.78329e-05,-6.26518e-06,1.6685e-05,7.5142e-06,7
-2.23715e-05,2.09965e-05,5.96974e-06,-6.33788e-06,1.98038e-05,-5.26446e-06,2.60466e-05,8.83199e-06,7
-2.07334e-05,1.8504e-05,3.25808e-06,-5.11014e-05,1.877e-05,-5.5366e-06,3.11072e-05,1.29063e-05,7
-2.10192e-05,1.49578e-05,-3.35901e-07,-8.44032e-05,1.63574e-05,-7.45669e-06,3.13785e-05,2.22488e-05,7
-2.34369e-05,1.30862e-05,3.06822e-07,-8.66746e-05,1.60083e-05,-9.0514e-06,2.95235e-05,3.77859e-05,7
-2.57851e-05,1.18618e-05,1.28254e-06,-6.30542e-05,1.76878e-05,-1.05283e-05,2.59296e-05,5.42818e-05,7
-2.6064e-05,1.21805e-05,-4.41863e-07,-3.41896e-05,1.91487e-05,-1.13255e-05,2.34538e-05,5.98235e-05,7
-2.59966e-05,1.32387e-05,-2.7894e-06,-1.19993e-05,1.89212e-05,-1.12321e-05,2.09537e-05,5.33028e-05,7
-2.69655e-05,1.40412e-05,-2.9837e-06,3.03977e-06,1.67283e-05,-1.05752e-05,1.68877e-05,3.83253e-05,7
-2.79671e-05,1.45625e-05,-2.30061e-06,1.62228e-05,1.49074e-05,-1.01774e-05,1.25972e-05,1.72878e-05,7
-2.87039e-05,1.39256e-05,-4.23567e-06,3.05218e-05,1.44064e-05,-1.05985e-05,9.76218e-06,-8.6492e-06,7
-2.9492e-05,1.14448e-05,-9.97423e-06,4.28747e-05,1.5459e-05,-1.30501e-05,6.88024e-06,-3.60265e-05,7
-3.03296e-05,8.02034e-06,-1.65195e-05,4.92768e-05,1.6789e-05,-1.62578e-05,2.45522e-06,-6.02181e-05,7
-3.0643e-05,5.82202e-06,-1.94568e-05,4.72693e-05,1.65001e-05,-1.84369e-05,-1.28695e-06,-7.43712e-05,7
-2.98901e-05,4.99887e-06,-1.92327e-05,3.98959e-05,1.41101e-05,-1.81791e-05,-1.25258e-06,-7.34215e-05,7
-2.79285e-05,5.79192e-06,-1.96594e-05,3.0282e-05,1.1051e-05,-1.58572e-05,-4.44283e-07,-5.8545e-05,7
-2.49919e-05,7.38591e-06,-2.13708e-05,2.13199e-05,8.68512e-06,-1.27429e-05,-5.44992e-06,-3.53706e-05,7
-2.16425e-05,9.04616e-06,-2.06575e-05,1.51881e-05,7.62713e-06,-9.35315e-06,-1.53943e-05,-1.12642e-05,7
-2.01613e-05,1.12768e-05,-1.52034e-05,1.21656e-05,7.48459e-06,-7.00249e-06,-2.11744e-05,9.41227e-06,7
-2.12481e-05,1.30653e-05,-8.71402e-06,7.95067e-06,6.55517e-06,-7.23942e-06,-1.65211e-05,2.95812e-05,7
-2.33452e-05,1.3359e-05,-6.22899e-06,3.02903e-06,5.17204e-06,-9.14695e-06,-7.37075e-06,4.91321e-05,7
-2.52008e-05,1.36759e-05,-7.73058e-06,1.10481e-06,6.24276e-06,-1.03114e-05,-2.78134e-06,5.99154e-05,7
-2.58512e-05,1.45386e-05,-1.00274e-05,1.02417e-06,9.81552e-06,-1.0894e-05,-2.47332e-06,6.10628e-05,7
-2.60369e-05,1.46528e-05,-9.56453e-06,-5.53055e-07,1.28115e-05,-1.12126e-05,-1.44629e-06,5.07432e-05,7
-2.62517e-05,1.45855e-05,-5.98628e-06,-3.17529e-06,1.38234e-05,-1.09759e-05,1.53444e-06,2.1864e-05,7
-2.55377e-05,1.49118e-05,-3.09951e-06,-6.4716e-06,1.41625e-05,-1.10036e-05,6.10957e-06,-1.89147e-05,7
-2.43735e-05,1.57833e-05,-3.90975e-06,-1.02256e-05,1.51705e-05,-1.12761e-05,7.8619e-06,-6.30847e-05,7
-2.45682e-05,1.60727e-05,-5.74556e-06,-1.59828e-05,1.5096e-05,-1.10897e-05,7.60483e-06,-9.4816e-05,7
-2.53829e-05,1.47103e-05,-5.91679e-06,-2.19753e-05,1.43185e-05,-1.15809e-05,7.56247e-06,-9.75534e-05,7
-2.59176e-05,1.20105e-05,-5.11306e-06,-2.49943e-05,1.35445e-05,-1.32933e-05,7.14698e-06,-7.01921e-05,7
-2.7092e-05,9.82373e-06,-4.66395e-06,-2.5665e-05,1.25626e-05,-1.39202e-05,9.15263e-06,-2.47057e-05,7
-2.84314e-05,1.01544e-05,-5.64298e-06,-2.33635e-05,1.19803e-05,-1.24164e-05,1.23417e-05,8.01191e-06,7
-2.97732e-05,1.03583e-05,-6.86281e-06,-2.08758e-05,1.16914e-05,-1.16373e-05,1.46591e-05,1.46354e-05,7
-3.17087e-05,9.46401e-06,-7.04178e-06,-1.90387e-05,1.18916e-05,-1.24234e-05,1.60362e-05,-1.44381e-06,7
-3.31103e-05,8.76133e-06,-6.64844e-06,-1.80598e-05,1.18049e-05,-1.25943e-05,1.65754e-05,-2.28781e-05,7
-3.32244e-05,9.63329e-06,-7.289e-06,-1.59405e-05,1.23858e-05,-1.14525e-05,1.69675e-05,-3.57808e-05,7
-3.26071e-05,1.10149e-05,-8.35988e-06,-1.29647e-05,1.39214e-05,-1.13407e-05,1.72368e-05,-3.58257e-05,7
-3.28061e-05,1.0861e-05,-9.12142e-06,-9.80352e-06,1.55016e-05,-1.31525e-05,1.62013e-05,-2.35287e-05,7
-3.36262e-05,9.85569e-06,-1.0347e-05,-6.00802e-06,1.56964e-05,-1.4385e-05,1.52705e-05,-9.27296e-06,7
-3.44832e-05,8.86416e-06,-1.11594e-05,-2.70684e-06,1.37135e-05,-1.30369e-05,1.47114e-05,-1.26986e-06,7
-3.58101e-05,9.04913e-06,-1.06335e-05,3.22802e-07,1.18737e-05,-1.09456e-05,1.36809e-05,3.83229e-08,7
-3.74191e-05,8.60345e-06,-9.79648e-06,2.92027e-06,1.175e-05,-1.02967e-05,1.44196e-05,2.57253e-06,7
-3.85418e-05,7.18217e-06,-9.79039e-06,2.98773e-06,1.31311e-05,-1.11762e-05,1.73842e-05,4.39903e-06,7
-3.87595e-05,6.11953e-06,-1.03062e-05,-3.41466e-07,1.54171e-05,-1.15751e-05,1.96833e-05,1.94926e-06,7
-3.86045e-05,5.69908e-06,-1.03084e-05,-3.46454e-06,1.78351e-05,-9.70709e-06,1.91346e-05,-5.63073e-06,7
-3.80579e-05,5.37497e-06,-9.06952e-06,-5.65008e-06,1.83555e-05,-6.03902e-06,1.59881e-05,-1.34349e-05,7
-3.77663e-05,6.2193e-06,-6.58574e-06,-7.39488e-06,1.65442e-05,-2.97607e-06,1.28134e-05,-1.86746e-05,7
-3.7947e-05,8.9017e-06,-3.22414e-06,-8.99416e-06,1.45577e-05,-3.3323e-06,1.3283e-05,-2.00277e-05,7
-3.86628e-05,1.12294e-05,-3.87885e-07,-1.00527e-05,1.52782e-05,-6.32093e-06,1.66799e-05,-1.37907e-05,7
-3.86793e-05,1.05978e-05,1.2415e-06,-9.16415e-06,1.72779e-05,-9.72731e-06,1.88718e-05,5.32643e-06,7
-3.72472e-05,9.61055e-06,2.32018e-06,-7.61664e-06,1.5745e-05,-1.13951e-05,1.84799e-05,3.1078e-05,7
-3.56911e-05,1.13492e-05,1.6863e-06,-8.5179e-06,1.02406e-05,-1.03807e-05,1.61487e-05,5.46602e-05,7
-3.50519e-05,1.31065e-05,4.76597e-07,-1.20186e-05,5.45752e-06,-8.48667e-06,1.39958e-05,6.9119e-05,7
-3.59213e-05,1.22892e-05,-5.7193e-07,-1.46608e-05,5.54292e-06,-8.17671e-06,1.44221e-05,6.31005e-05,7
-3.66175e-05,9.64891e-06,-1.83833e-06,-1.45965e-05,9.03515e-06,-8.39709e-06,1.6725e-05,3.68934e-05,7
-3.47807e-05,9.03044e-06,-2.58347e-06,-1.35594e-05,1.1255e-05,-8.00095e-06,1.83564e-05,1.34465e-07,7
-3.21581e-05,9.48573e-06,-3.71602e-06,-1.14501e-05,1.0678e-05,-6.62334e-06,1.6634e-05,-4.25103e-05,7
-3.12985e-05,9.10653e-06,-4.34282e-06,-7.32878e-06,9.71725e-06,-6.06094e-06,1.47349e-05,-8.49275e-05,7
-3.22344e-05,8.49739e-06,-4.12906e-06,-2.96387e-06,8.90018e-06,-6.55236e-06,1.63622e-05,-0.000107071,7
-3.27438e-05,7.96796e-06,-4.20526e-06,1.16037e-07,9.32424e-06,-5.95086e-06,1.95023e-05,-0.000103259,7
-3.12446e-05,6.96904e-06,-5.94864e-06,9.74388e-07,1.15865e-05,-5.79346e-06,2.15991e-05,-8.37963e-05,7
-3.10772e-05,7.07705e-06,-8.99596e-06,4.09055e-07,1.38953e-05,-7.72652e-06,2.19603e-05,-6.16067e-05,7
-3.30144e-05,8.83034e-06,-1.23373e-05,-3.02446e-07,1.53058e-05,-1.07489e-05,2.2554e-05,-4.01771e-05,7
-3.40924e-05,1.01692e-05,-1.37135e-05,1.475e-06,1.55673e-05,-1.14055e-05,2.29351e-05,-1.8995e-05,7
-3.33332e-05,1.04357e-05,-1.33243e-05,6.61555e-06,1.61378e-05,-9.1769e-06,1.78602e-05,5.20797e-06,7
-3.24735e-05,9.60506e-06,-1.34093e-05,1.08174e-05,1.54522e-05,-6.07951e-06,4.89349e-06,3.5631e-05,7
-3.26194e-05,8.63615e-06,-1.50296e-05,1.0929e-05,1.21398e-05,-4.18263e-06,-7.95728e-06,6.38589e-05,7
-3.25525e-05,7.55231e-06,-1.69535e-05,6.49791e-06,8.11722e-06,-4.09683e-06,-1.2285e-05,8.28584e-05,7
-3.14269e-05,7.20881e-06,-1.78479e-05,-1.18167e-06,6.09536e-06,-5.08852e-06,-8.77157e-06,9.46775e-05,7
-2.91929e-05,9.56177e-06,-1.7285e-05,-8.1676e-06,5.16524e-06,-5.75364e-06,-2.44041e-06,0.000101302,7
-2.63408e-05,1.3275e-05,-1.28833e-05,-1.1371e-05,3.02329e-06,-5.45961e-06,4.29231e-06,9.8156e-05,7
-2.44912e-05,1.53e-05,-7.36253e-06,-9.85514e-06,1.94624e-06,-5.75551e-06,1.03919e-05,8.91928e-05,7
-2.49215e-05,1.52344e-05,-3.69595e-06,-4.20388e-06,5.45283e-06,-7.83016e-06,1.46664e-05,8.0864e-05,7
-2.59624e-05,1.37698e-05,-1.20851e-06,2.83243e-06,1.30286e-05,-1.08617e-05,1.71999e-05,6.23182e-05,7
-2.60001e-05,1.23495e-05,1.12192e-06,7.73223e-06,1.86351e-05,-1.35214e-05,1.95457e-05,2.95063e-05,7
-2.59615e-05,1.0864e-05,1.10316e-06,5.39725e-06,1.83367e-05,-1.54817e-05,2.36015e-05,1.51215e-05,7
-2.75184e-05,8.82551e-06,-3.92474e-06,-4.51796e-06,1.48793e-05,-1.55923e-05,2.83607e-05,2.90399e-05,7
-2.93242e-05,8.01854e-06,-1.18133e-05,-1.41645e-05,1.27024e-05,-1.4612e-05,3.20358e-05,3.43897e-05,7
-2.9378e-05,8.34274e-06,-1.76217e-05,-1.5265e-05,1.35999e-05,-1.39358e-05,3.01553e-05,2.4975e-05,7
-2.68416e-05,9.62123e-06,-1.86785e-05,-6.503e-06,1.43445e-05,-1.14017e-05,2.25118e-05,2.75185e-05,7
-2.32282e-05,1.44998e-05,-1.55626e-05,1.58653e-06,1.10399e-05,-7.23563e-06,1.39847e-05,3.03976e-05,7
-2.18806e-05,1.91893e-05,-9.99631e-06,3.37869e-06,6.77048e-06,-4.6193e-06,7.24461e-06,-1.02937e-05,7
-2.28313e-05,1.91682e-05,-4.11131e-06,8.38438e-06,5.16637e-06,-3.11353e-06,1.53321e-06,-9.75697e-05,7
-2.41769e-05,1.85963e-05,-1.96271e-07,1.92825e-05,7.11885e-06,-3.72476e-06,-3.20086e-06,-0.000185092,7
-2.43458e-05,2.04432e-05,1.81833e-06,2.56973e-05,1.13143e-05,-5.35798e-06,-1.61512e-06,-0.000231007,7
-2.45481e-05,2.32388e-05,3.12749e-06,2.28826e-05,1.68993e-05,-3.71026e-06,4.13802e-06,-0.000223319,7
-2.54634e-05,2.4097e-05,3.69678e-06,1.15145e-05,2.06283e-05,-6.34601e-07,7.16035e-06,-0.000166037,7
-2.66032e-05,2.2306e-05,1.43442e-06,-8.83238e-06,1.95534e-05,1.10524e-07,5.78857e-06,-8.8701e-05,7
-2.75472e-05,2.05386e-05,-2.6168e-06,-3.12719e-05,1.47685e-05,-1.70154e-06,3.49159e-06,-3.54156e-05,7
-2.85949e-05,1.97082e-05,-5.69007e-06,-4.95102e-05,9.67553e-06,-3.28875e-06,6.62097e-06,-1.20491e-05,7
-3.00327e-05,1.89132e-05,-6.70051e-06,-6.27616e-05,8.06612e-06,-4.28609e-06,1.86517e-05,1.21271e-05,7
-3.08715e-05,1.8322e-05,-5.73633e-06,-7.26016e-05,9.51991e-06,-5.71563e-06,3.35016e-05,5.64033e-05,7
-3.06859e-05,1.76405e-05,-5.24763e-06,-7.9776e-05,1.16316e-05,-6.99215e-06,4.13227e-05,9.224e-05,7
-2.97743e-05,1.7083e-05,-4.60175e-06,-8.02218e-05,1.28865e-05,-7.06644e-06,4.10298e-05,9.02465e-05,7
-2.90983e-05,1.67242e-05,-1.79751e-06,-6.91623e-05,1.47252e-05,-5.925e-06,3.78771e-05,6.12993e-05,7
-2.8918e-05,1.66122e-05,3.77945e-06,-4.64773e-05,1.72215e-05,-5.64983e-06,3.47566e-05,2.8287e-05,7
-2.91539e-05,1.66255e-05,7.40062e-06,-1.65633e-05,1.84975e-05,-7.82123e-06,2.76406e-05,-1.63722e-06,7
-2.98594e-05,1.64038e-05,4.11359e-06,1.43595e-05,1.67065e-05,-1.22528e-05,1.33993e-05,-3.07823e-05,7
-3.14199e-05,1.56352e-05,-3.39476e-06,4.00073e-05,1.33573e-05,-1.56429e-05,-5.62433e-06,-5.52981e-05,7
-3.29616e-05,1.46558e-05,-8.46363e-06,6.07321e-05,1.21099e-05,-1.50479e-05,-2.17878e-05,-6.9432e-05,7
-3.41295e-05,1.43495e-05,-1.04275e-05,7.88203e-05,1.28031e-05,-1.28389e-05,-2.74414e-05,-6.728e-05,7
-3.53161e-05,1.33313e-05,-1.15288e-05,8.70425e-05,1.23941e-05,-1.17051e-05,-2.27816e-05,-4.74236e-05,7
-3.59349e-05,1.1504e-05,-1.12673e-05,7.48155e-05,1.1103e-05,-1.17345e-05,-1.52525e-05,-1.03567e-05,7
-3.49699e-05,1.11441e-05,-9.14951e-06,4.66691e-05,1.05993e-05,-1.24623e-05,-9.04804e-06,3.90352e-05,7
-3.20029e-05,1.20946e-05,-6.56834e-06,1.67265e-05,1.07359e-05,-1.36872e-05,-2.53833e-06,8.13866e-05,7
-2.93709e-05,1.16478e-05,-6.401e-06,-2.13973e-07,9.56779e-06,-1.38964e-05,6.18695e-06,0.000102985,7
-2.98135e-05,9.89187e-06,-6.95801e-06,2.659e-06,7.92046e-06,-1.2623e-05,1.57759e-05,0.00011697,7
-3.05066e-05,9.6061e-06,-5.4586e-06,1.45355e-05,8.8205e-06,-1.11837e-05,2.22181e-05,0.000122071,7
-2.87012e-05,1.12875e-05,-3.54643e-06,1.84882e-05,1.17583e-05,-9.78053e-06,2.24899e-05,9.28821e-05,7
-2.67784e-05,1.30155e-05,-3.02106e-06,1.01306e-05,1.46872e-05,-9.60147e-06,2.1109e-05,2.97473e-05,7
-2.58394e-05,1.35784e-05,-5.59431e-06,-3.05637e-06,1.73003e-05,-9.8088e-06,2.0428e-05,-3.87712e-05,7
-2.5646e-05,1.28741e-05,-9.48501e-06,-1.34353e-05,2.21342e-05,-1.0045e-05,1.4716e-05,-8.6984e-05,7
-2.4483e-05,1.20621e-05,-1.07537e-05,-1.58923e-05,2.8183e-05,-8.85565e-06,8.801e-06,-0.00010027,7
-2.24854e-05,1.17097e-05,-1.00595e-05,-1.32975e-05,3.25494e-05,-5.81229e-06,7.91121e-06,-8.39702e-05,7
-2.22928e-05,1.03392e-05,-8.66169e-06,-1.20154e-05,3.30345e-05,-5.09596e-06,1.14778e-05,-5.35838e-05,7
-2.47389e-05,8.59753e-06,-8.98111e-06,-1.57679e-05,3.01138e-05,-8.64835e-06,1.52866e-05,-2.46747e-05,7
-2.8516e-05,6.69669e-06,-1.09247e-05,-1.85758e-05,2.6458e-05,-1.28249e-05,1.47071e-05,-2.72019e-06,7
-3.12697e-05,5.44141e-06,-1.25391e-05,-1.64491e-05,2.27658e-05,-1.39133e-05,1.04093e-05,1.53494e-05,7
-3.19452e-05,6.74501e-06,-1.36779e-05,-1.22445e-05,1.89474e-05,-1.17325e-05,5.79223e-06,2.76767e-05,7
-3.04447e-05,9.08227e-06,-1.47947e-05,-9.98396e-06,1.32363e-05,-8.46512e-06,4.99783e-06,3.36985e-05,7
-2.8963e-05,1.11538e-05,-1.52376e-05,-1.04468e-05,5.56867e-06,-7.5913e-06,9.92232e-06,3.51444e-05,7
-2.84413e-05,1.18996e-05,-1.39485e-05,-1.13661e-05,-1.44542e-06,-9.09106e-06,1.6316e-05,3.46268e-05,7
-2.91212e-05,1.1803e-05,-1.20018e-05,-1.38517e-05,-5.01978e-06,-1.15357e-05,1.90086e-05,3.25018e-05,7
-3.03427e-05,1.18737e-05,-1.08468e-05,-1.63321e-05,-5.31175e-06,-1.3058e-05,1.83673e-05,3.18541e-05,7
-3.08166e-05,1.28165e-05,-1.11069e-05,-1.83932e-05,-4.59946e-06,-1.22564e-05,1.68887e-05,3.35118e-05,7
-3.1722e-05,1.38933e-05,-1.35105e-05,-1.99619e-05,-4.01662e-06,-1.02616e-05,1.72954e-05,3.54227e-05,7
-3.35903e-05,1.42406e-05,-1.64584e-05,-1.94546e-05,-1.5725e-06,-9.43816e-06,1.91501e-05,3.49198e-05,7
-3.4064e-05,1.56268e-05,-1.58962e-05,-1.38907e-05,4.44063e-06,-8.86817e-06,1.97728e-05,3.20675e-05,7
-3.20413e-05,1.82217e-05,-1.21248e-05,-6.84337e-06,1.16656e-05,-7.68712e-06,1.81813e-05,2.83812e-05,7
-2.98019e-05,1.96676e-05,-8.29117e-06,-3.71841e-06,1.79333e-05,-6.46601e-06,1.57627e-05,2.5987e-05,7
-2.91452e-05,1.88347e-05,-6.31592e-06,-3.25598e-06,2.22825e-05,-6.2381e-06,1.40104e-05,2.37511e-05,7
-3.04476e-05,1.70499e-05,-6.42262e-06,-1.68962e-06,2.53484e-05,-7.04199e-06,1.43618e-05,2.16816e-05,7
-3.11072e-05,1.59205e-05,-7.75831e-06,-1.82212e-07,2.77917e-05,-7.56037e-06,1.47353e-05,2.04783e-05,7
-3.11563e-05,1.56686e-05,-8.29315e-06,-1.05087e-06,2.97087e-05,-8.14524e-06,1.56838e-05,1.9278e-05,7
-3.18179e-05,1.52896e-05,-8.17009e-06,-1.27381e-06,3.02868e-05,-8.8332e-06,1.61592e-05,2.00057e-05,7
-3.24767e-05,1.5261e-05,-9.05664e-06,-1.36146e-06,2.85752e-05,-9.60696e-06,1.45901e-05,2.10406e-05,7
-3.22285e-05,1.51594e-05,-9.08361e-06,-3.63849e-06,2.60716e-05,-9.17262e-06,1.30981e-05,2.00618e-05,7
-3.09885e-05,1.39818e-05,-6.34132e-06,-7.61033e-06,2.21476e-05,-7.76765e-06,1.23641e-05,1.6008e-05,7
-2.9946e-05,1.25221e-05,-2.00265e-06,-1.12863e-05,1.7304e-05,-7.7552e-06,1.35466e-05,1.36631e-05,7
-2.96665e-05,1.22295e-05,5.21743e-07,-1.29959e-05,1.64737e-05,-8.6202e-06,1.54717e-05,1.56265e-05,7
-2.9743e-05,1.12122e-05,4.7166e-07,-1.34667e-05,1.7691e-05,-9.14151e-06,1.71823e-05,1.88248e-05,7
