ch1,ch2,ch3,ch4,ch5,ch6,ch7,ch8,class
-3.25868e-05,1.59294e-05,-7.64631e-06,7.98562e-07,7.06511e-06,-8.54972e-06,1.62867e-05,-2.68305e-05,7
-3.19307e-05,1.41758e-05,-1.0438e-05,-3.68416e-06,9.75418e-06,-1.16947e-05,1.75099e-06,-1.08327e-05,7
-3.097e-05,1.15841e-05,-1.52276e-05,-1.00882e-05,1.12907e-05,-1.39931e-05,-9.70046e-06,-1.27266e-06,7
-3.20064e-05,1.04396e-05,-1.87232e-05,-1.27835e-05,9.11478e-06,-1.1575e-05,-1.05601e-05,2.47158e-06,7
-3.46631e-05,1.1938e-05,-1.81273e-05,-5.13012e-06,6.55194e-06,-7.04735e-06,-5.79633e-06,1.91721e-06,7
-3.63009e-05,1.41504e-05,-1.34503e-05,1.07953e-05,6.77994e-06,-3.94298e-06,-6.91601e-07,-2.95228e-07,7
-3.59239e-05,1.57883e-05,-5.48421e-06,2.27017e-05,8.79546e-06,-3.67245e-06,5.35675e-06,7.03142e-07,7
-3.41791e-05,1.64488e-05,2.6147e-06,2.27004e-05,1.10004e-05,-5.09583e-06,9.38204e-06,1.09595e-05,7
-3.16614e-05,1.5308e-05,5.76918e-06,1.34227e-05,1.31702e-05,-6.58988e-06,6.46144e-06,2.42237e-05,7
-3.09372e-05,1.36583e-05,3.90036e-06,-9.28201e-07,1.4091e-05,-8.06397e-06,-1.71397e-06,3.22471e-05,7
-3.23333e-05,1.29453e-05,8.44518e-07,-1.64279e-05,1.38066e-05,-8.3523e-06,-8.51559e-06,3.78783e-05,7
-3.2176e-05,1.31839e-05,-2.50069e-06,-3.12239e-05,1.26376e-05,-7.85267e-06,-7.02473e-06,4.84552e-05,7
-3.06456e-05,1.30548e-05,-6.0373e-06,-4.71055e-05,1.13241e-05,-8.57036e-06,1.28909e-06,6.42092e-05,7
-2.90939e-05,1.23301e-05,-8.84144e-06,-6.83044e-05,1.19847e-05,-9.46252e-06,1.00216e-05,6.80374e-05,7
-2.98894e-05,1.07772e-05,-1.22701e-05,-9.02916e-05,1.36089e-05,-9.46423e-06,1.77616e-05,4.48608e-05,7
-3.22414e-05,7.23957e-06,-1.5702e-05,-9.54985e-05,1.44742e-05,-8.09051e-06,2.21411e-05,-8.97138e-07,7
-3.31143e-05,5.29872e-06,-1.35314e-05,-7.74446e-05,1.39388e-05,-7.83331e-06,2.09718e-05,-4.78558e-05,7
-3.24946e-05,7.01348e-06,-5.30755e-06,-4.97827e-05,1.27627e-05,-9.90419e-06,1.41692e-05,-7.31411e-05,7
-3.13611e-05,9.21524e-06,3.17226e-06,-2.56664e-05,1.17937e-05,-1.16112e-05,4.03083e-06,-7.03575e-05,7
-3.08673e-05,1.03273e-05,6.4193e-06,-8.64366e-06,1.10813e-05,-1.19517e-05,-4.30069e-06,-5.12673e-05,7
-3.10603e-05,1.08482e-05,4.62505e-06,1.32651e-06,1.14629e-05,-1.09393e-05,-5.48719e-06,-3.07817e-05,7
-3.19425e-05,1.15283e-05,1.08136e-06,6.08011e-06,1.29e-05,-1.07789e-05,2.06388e-06,-1.87267e-05,7
-3.24745e-05,1.20836e-05,-2.04548e-06,7.63715e-06,1.46693e-05,-1.1061e-05,1.3245e-05,-1.48806e-05,7
-3.20312e-05,1.30143e-05,-3.31185e-06,9.63182e-06,1.64604e-05,-1.04935e-05,1.9869e-05,-1.34828e-05,7
-3.1108e-05,1.41417e-05,-3.26718e-06,1.40933e-05,1.7797e-05,-8.29338e-06,2.05077e-05,-6.23481e-06,7
-3.08483e-05,1.39071e-05,-4.15614e-06,1.68894e-05,1.73785e-05,-5.65196e-06,2.00562e-05,1.53171e-05,7
-3.05616e-05,1.2639e-05,-7.89847e-06,1.50121e-05,1.44801e-05,-3.50883e-06,2.08414e-05,4.35958e-05,7
-2.94256e-05,1.16061e-05,-1.14066e-05,1.17274e-05,1.06371e-05,-2.32719e-06,2.09441e-05,5.94841e-05,7
-2.90173e-05,1.04403e-05,-1.23983e-05,1.02746e-05,7.28499e-06,-3.69353e-06,2.00827e-05,5.63445e-05,7
-3.03634e-05,8.17741e-06,-1.24255e-05,1.02366e-05,5.30768e-06,-7.78091e-06,1.88378e-05,4.25059e-05,7
-3.24209e-05,6.4403e-06,-1.27576e-05,1.31251e-05,6.08933e-06,-1.26767e-05,1.42023e-05,2.73145e-05,7
-3.27977e-05,6.46219e-06,-1.19024e-05,2.14086e-05,9.80188e-06,-1.61556e-05,5.04798e-06,1.69553e-05,7
-3.15767e-05,8.25991e-06,-9.5364e-06,3.0214e-05,1.3271e-05,-1.75464e-05,-3.22105e-06,1.16846e-05,7
-3.10144e-05,1.12666e-05,-8.12961e-06,3.29329e-05,1.38644e-05,-1.6064e-05,-3.85256e-06,9.32491e-06,7
-3.11651e-05,1.34622e-05,-7.77375e-06,3.00351e-05,1.13205e-05,-1.1931e-05,2.15077e-06,9.74291e-06,7
-3.16053e-05,1.3817e-05,-7.27955e-06,2.4385e-05,8.10155e-06,-8.17306e-06,8.63296e-06,1.3603e-05,7
-3.17477e-05,1.33608e-05,-4.96152e-06,1.93745e-05,7.92765e-06,-6.34137e-06,1.03512e-05,1.49363e-05,7
-3.06632e-05,1.46634e-05,-3.28419e-08,1.73045e-05,1.09857e-05,-5.21331e-06,1.00016e-05,6.02028e-06,7
-3.10004e-05,1.62573e-05,4.49812e-06,1.61773e-05,1.47653e-05,-5.0543e-06,1.23323e-05,-9.92705e-06,7
-3.23181e-05,1.52465e-05,5.81664e-06,1.20803e-05,1.65669e-05,-5.41969e-06,1.57017e-05,-2.28224e-05,7
-3.24151e-05,1.18325e-05,4.58583e-06,2.64379e-06,1.54649e-05,-6.75006e-06,1.96384e-05,-3.22358e-05,7
-3.18917e-05,8.68645e-06,2.14992e-08,-9.1717e-06,1.27416e-05,-7.30673e-06,2.28753e-05,-4.12853e-05,7
-3.2129e-05,7.0015e-06,-5.57531e-06,-2.01196e-05,1.13074e-05,-6.89155e-06,2.38724e-05,-4.48483e-05,7
-3.25073e-05,6.09315e-06,-7.72296e-06,-2.93055e-05,1.24296e-05,-6.92482e-06,2.24313e-05,-4.29733e-05,7
-3.13529e-05,8.00402e-06,-7.45084e-06,-3.2981e-05,1.54627e-05,-7.05893e-06,1.88167e-05,-3.75798e-05,7
-3.06318e-05,1.18856e-05,-4.61532e-06,-2.94786e-05,1.81087e-05,-7.27115e-06,1.51444e-05,-3.17806e-05,7
-3.08601e-05,1.33555e-05,-2.17024e-06,-2.04479e-05,1.86821e-05,-7.17564e-06,1.46398e-05,-2.61063e-05,7
-3.06906e-05,1.098e-05,-9.92695e-07,-9.70932e-06,1.81981e-05,-7.43136e-06,1.82039e-05,-2.01789e-05,7
-3.00134e-05,8.39537e-06,-1.11418e-06,-2.18653e-07,1.70436e-05,-8.74764e-06,2.35232e-05,-1.5426e-05,7
-3.01921e-05,7.06947e-06,-2.7654e-06,6.78947e-06,1.69565e-05,-1.13436e-05,2.82531e-05,-1.18863e-05,7
-3.14946e-05,6.22432e-06,-3.67685e-06,1.10179e-05,1.78258e-05,-1.33548e-05,3.13156e-05,-9.15582e-06,7
-3.25193e-05,5.96229e-06,-4.31053e-06,1.28908e-05,1.82374e-05,-1.3891e-05,3.15259e-05,-5.80821e-06,7
-3.24811e-05,6.35329e-06,-5.38541e-06,1.15188e-05,1.7592e-05,-1.30773e-05,2.85131e-05,-1.51117e-06,7
-3.18189e-05,7.72867e-06,-7.1249e-06,7.45652e-06,1.63997e-05,-1.17884e-05,2.18942e-05,3.98351e-06,7
-3.15237e-05,1.01481e-05,-6.47108e-06,3.84732e-06,1.67918e-05,-1.10025e-05,1.25182e-05,9.48453e-06,7
-3.17356e-05,1.28843e-05,-3.68021e-06,9.11382e-07,2.10718e-05,-1.10856e-05,4.98332e-06,1.41626e-05,7
-3.15948e-05,1.47932e-05,-2.36503e-06,-5.22172e-06,2.58161e-05,-1.09103e-05,3.07178e-06,1.90499e-05,7
-3.038e-05,1.57659e-05,-5.4895e-06,-1.51933e-05,2.46382e-05,-9.65218e-06,6.95902e-06,2.78035e-05,7
-2.87738e-05,1.62278e-05,-9.34409e-06,-2.53929e-05,1.91448e-05,-8.4077e-06,1.21015e-05,3.58699e-05,7
-2.73915e-05,1.6173e-05,-9.28988e-06,-3.01755e-05,1.51126e-05,-8.0265e-06,1.57297e-05,3.72185e-05,7
-2.72642e-05,1.52988e-05,-7.24313e-06,-2.83163e-05,1.39648e-05,-1.00095e-05,1.89359e-05,3.68853e-05,7
-2.88942e-05,1.41561e-05,-7.96985e-06,-2.55066e-05,1.36101e-05,-1.25947e-05,2.24153e-05,4.53569e-05,7
-3.05491e-05,1.3601e-05,-1.35564e-05,-3.02533e-05,1.39054e-05,-1.31534e-05,2.49484e-05,6.1722e-05,7
-2.98849e-05,1.39602e-05,-2.05577e-05,-4.13296e-05,1.39343e-05,-1.10305e-05,2.47244e-05,7.64282e-05,7
-2.70403e-05,1.48048e-05,-2.29729e-05,-4.69509e-05,1.36292e-05,-8.58036e-06,2.21039e-05,9.0783e-05,7
-2.40809e-05,1.69568e-05,-1.64178e-05,-3.96329e-05,1.32979e-05,-7.57696e-06,1.74875e-05,0.000102602,7
-2.17921e-05,1.96633e-05,-5.90382e-06,-2.30516e-05,1.48063e-05,-8.42678e-06,1.06984e-05,9.37399e-05,7
-2.00589e-05,2.06316e-05,-4.23193e-07,-5.25572e-06,1.76019e-05,-1.07218e-05,7.69118e-06,5.38981e-05,7
-1.93594e-05,1.9395e-05,1.24551e-06,6.72869e-06,1.97542e-05,-1.04462e-05,8.01567e-06,-1.66557e-06,7
-1.97791e-05,1.85732e-05,2.98698e-06,1.20032e-05,2.09614e-05,-8.73244e-06,7.7697e-06,-5.55406e-05,7
-2.06991e-05,1.92823e-05,5.43048e-06,1.32995e-05,2.09043e-05,-7.01339e-06,1.05428e-05,-9.84592e-05,7
-2.18757e-05,1.8514e-05,7.42169e-06,1.00644e-05,2.07174e-05,-6.46228e-06,1.5309e-05,-0.000121979,7
-2.23873e-05,1.64282e-05,7.78389e-06,7.12484e-06,1.87836e-05,-6.12017e-06,1.84467e-05,-0.000133677,7
-2.1988e-05,1.61322e-05,4.93501e-06,8.04333e-06,1.46951e-05,-5.00292e-06,1.80739e-05,-0.000144339,7
-2.19204e-05,1.78017e-05,-4.96895e-07,1.01435e-05,1.06058e-05,-5.48736e-06,1.57396e-05,-0.000145563,7
-2.28516e-05,1.88101e-05,-5.01519e-06,9.11693e-06,9.13733e-06,-7.32998e-06,1.37144e-05,-0.000122833,7
-2.40264e-05,1.84814e-05,-8.20269e-06,3.07149e-06,1.01273e-05,-9.68476e-06,1.27411e-05,-8.01359e-05,7
-2.38685e-05,1.73429e-05,-9.56107e-06,-6.53321e-06,1.22434e-05,-1.1242e-05,1.22217e-05,-3.91032e-05,7
-2.32662e-05,1.66203e-05,-9.47167e-06,-1.52951e-05,1.42806e-05,-1.20875e-05,1.08891e-05,-1.46499e-05,7
-2.36249e-05,1.6288e-05,-7.8947e-06,-1.81489e-05,1.55396e-05,-1.15021e-05,8.64819e-06,-4.76435e-06,7
-2.52153e-05,1.56141e-05,-7.65091e-06,-1.67666e-05,1.5867e-05,-9.8662e-06,6.19736e-06,-1.65198e-07,7
-2.77409e-05,1.52793e-05,-9.74125e-06,-1.52676e-05,1.57975e-05,-8.79196e-06,6.63019e-06,3.64253e-06,7
-2.9717e-05,1.5319e-05,-1.14314e-05,-1.39497e-05,1.50557e-05,-8.77711e-06,1.35797e-05,7.43182e-06,7
-2.96485e-05,1.53925e-05,-1.02945e-05,-1.05325e-05,1.3353e-05,-8.23417e-06,2.54857e-05,1.07117e-05,7
-2.78743e-05,1.53697e-05,-7.87915e-06,-3.48316e-06,1.31386e-05,-6.95898e-06,3.64668e-05,1.3984e-05,7
-2.62673e-05,1.59246e-05,-6.49907e-06,5.67007e-06,1.56012e-05,-5.40977e-06,4.30875e-05,1.76558e-05,7
-2.6686e-05,1.73352e-05,-6.51393e-06,1.1412e-05,1.79189e-05,-3.27536e-06,4.43271e-05,2.13664e-05,7
-2.85743e-05,1.79902e-05,-7.15318e-06,1.03544e-05,1.70237e-05,-2.24331e-06,3.79237e-05,2.38555e-05,7
-3.00235e-05,1.60872e-05,-8.63129e-06,6.35689e-06,1.46401e-05,-4.70043e-06,2.45717e-05,2.46298e-05,7
-3.01257e-05,1.26315e-05,-1.20345e-05,2.70064e-06,1.30753e-05,-9.92167e-06,8.53787e-06,2.59609e-05,7
-2.90881e-05,9.85451e-06,-1.35671e-05,2.80635e-06,1.26179e-05,-1.50552e-05,-4.87833e-06,3.06689e-05,7
-2.75059e-05,8.74461e-06,-1.21345e-05,8.98625e-06,1.22698e-05,-1.65045e-05,-8.17135e-06,4.29605e-05,7
-2.70837e-05,9.26074e-06,-1.14644e-05,1.65021e-05,1.18262e-05,-1.58282e-05,1.93259e-06,6.18862e-05,7
-2.91476e-05,1.01691e-05,-1.32569e-05,2.18582e-05,1.10335e-05,-1.73537e-05,1.78711e-05,7.90439e-05,7
-3.1774e-05,9.12662e-06,-1.50583e-05,2.31634e-05,9.44562e-06,-2.00607e-05,2.48769e-05,8.77724e-05,7
-3.50873e-05,6.45374e-06,-1.61788e-05,1.78645e-05,7.31767e-06,-2.13774e-05,1.84342e-05,8.86426e-05,7
-3.66326e-05,5.60469e-06,-1.66508e-05,6.24995e-06,6.18307e-06,-1.87566e-05,9.22291e-06,8.45954e-05,7
-3.53632e-05,6.92569e-06,-1.70153e-05,-1.82126e-06,7.50463e-06,-1.41863e-05,2.24929e-06,8.35563e-05,7
-3.27173e-05,8.08721e-06,-1.88678e-05,8.12551e-06,9.35418e-06,-1.04082e-05,-5.94879e-06,8.74172e-05,7
-2.99552e-05,8.61781e-06,-2.15687e-05,3.2882e-05,9.2121e-06,-8.81288e-06,-1.4139e-05,7.68872e-05,7
-2.83274e-05,9.21339e-06,-2.15072e-05,5.40583e-05,8.94573e-06,-8.00079e-06,-1.73384e-05,3.98673e-05,7
-2.67288e-05,1.01505e-05,-1.5834e-05,5.87338e-05,1.13024e-05,-7.48408e-06,-1.2057e-05,-1.16996e-05,7
-2.41818e-05,1.12742e-05,-8.98163e-06,3.77859e-05,1.45717e-05,-7.6974e-06,-3.50324e-06,-5.39579e-05,7
-2.16226e-05,1.16156e-05,-5.30815e-06,-7.97736e-06,1.51257e-05,-6.70523e-06,1.30199e-06,-7.39271e-05,7
-2.0527e-05,1.09201e-05,-4.26803e-06,-6.60311e-05,1.26678e-05,-5.18672e-06,2.85457e-06,-7.64886e-05,7
-2.12677e-05,9.80741e-06,-5.56196e-06,-0.000113458,9.60481e-06,-4.94477e-06,2.87888e-06,-7.3129e-05,7
-2.3716e-05,7.8245e-06,-7.45896e-06,-0.000126268,8.8178e-06,-6.98518e-06,1.56098e-06,-7.00477e-05,7
-2.55786e-05,6.59774e-06,-5.45756e-06,-0.000103151,1.06749e-05,-9.87063e-06,-1.23797e-06,-6.48932e-05,7
-2.56004e-05,7.7833e-06,1.52257e-06,-6.54762e-05,1.30669e-05,-1.11356e-05,-4.76326e-06,-5.68887e-05,7
-2.32928e-05,1.04364e-05,8.80732e-06,-3.37413e-05,1.37536e-05,-1.0116e-05,-7.7873e-06,-4.73647e-05,7
-2.07262e-05,1.27581e-05,1.10022e-05,-1.31603e-05,1.07916e-05,-7.42145e-06,-7.57178e-06,-3.81498e-05,7
-2.07627e-05,1.36727e-05,7.51755e-06,-1.26816e-06,7.21487e-06,-4.47245e-06,-3.04456e-06,-2.87219e-05,7
-2.29702e-05,1.29663e-05,2.91779e-06,8.9035e-06,7.46926e-06,-3.80957e-06,3.17911e-06,-1.26016e-05,7
-2.48755e-05,1.21146e-05,6.78362e-07,1.92703e-05,1.07017e-05,-6.8388e-06,8.16598e-06,2.54438e-05,7
-2.63954e-05,1.28514e-05,4.4006e-07,2.67802e-05,1.31211e-05,-1.20805e-05,1.09673e-05,7.92474e-05,7
-2.73682e-05,1.32969e-05,1.85638e-08,2.90051e-05,1.32519e-05,-1.4656e-05,1.18984e-05,0.000106306,7
-2.76403e-05,1.29652e-05,-1.44742e-06,2.44095e-05,1.23911e-05,-1.25754e-05,1.1013e-05,8.82908e-05,7
-2.7454e-05,1.21464e-05,-2.74046e-06,1.52816e-05,1.32726e-05,-9.13587e-06,1.00824e-05,5.23819e-05,7
-2.75771e-05,1.23323e-05,-2.05382e-06,7.79812e-06,1.6231e-05,-7.95589e-06,1.24348e-05,2.40041e-05,7
-2.83396e-05,1.40187e-05,-3.7492e-08,5.11665e-06,1.95229e-05,-9.36667e-06,1.66016e-05,9.38697e-07,7
-2.9176e-05,1.40407e-05,-1.94547e-07,2.62804e-06,1.91167e-05,-1.05196e-05,1.88142e-05,-1.97311e-05,7
-3.05091e-05,1.33373e-05,-4.01287e-06,-4.71593e-06,1.65136e-05,-1.10888e-05,2.30687e-05,-2.82463e-05,7
-3.17565e-05,1.31308e-05,-1.10709e-05,-1.25504e-05,1.60187e-05,-1.18077e-05,3.05463e-05,-2.91215e-05,7
-3.35522e-05,1.23763e-05,-1.70168e-05,-1.66757e-05,1.56957e-05,-1.03038e-05,3.40685e-05,-3.13252e-05,7
-3.57564e-05,1.18924e-05,-1.65451e-05,-1.62192e-05,1.55856e-05,-6.31349e-06,3.16607e-05,-3.58517e-05,7
-3.65295e-05,1.19617e-05,-1.15126e-05,-1.34988e-05,1.53146e-05,-2.81695e-06,2.69085e-05,-3.6414e-05,7
-3.47205e-05,1.15846e-05,-4.25271e-06,-9.9026e-06,1.53506e-05,-1.96877e-06,2.19461e-05,-2.83024e-05,7
-3.325e-05,1.16875e-05,1.82558e-06,-6.34834e-06,1.62674e-05,-3.99627e-06,1.51587e-05,-7.07365e-06,7
-3.37523e-05,1.15951e-05,2.80187e-06,-5.51978e-06,1.66941e-05,-7.02081e-06,7.838e-06,2.68868e-05,7
-3.46775e-05,1.04949e-05,-5.52075e-07,-6.18086e-06,1.65444e-05,-1.01638e-05,3.08746e-06,6.12275e-05,7
-3.50969e-05,9.59758e-06,-3.57521e-06,-6.47158e-06,1.60935e-05,-1.30911e-05,2.43809e-06,8.58703e-05,7
-3.57515e-05,8.9784e-06,-3.9236e-06,-3.82635e-06,1.61882e-05,-1.47369e-05,5.86611e-06,9.51316e-05,7
-3.72376e-05,9.03282e-06,-3.94412e-06,4.15902e-07,1.66517e-05,-1.48972e-05,1.0778e-05,8.85596e-05,7
-3.75531e-05,9.30765e-06,-4.94599e-06,3.83739e-06,1.7414e-05,-1.45399e-05,1.52256e-05,6.99253e-05,7
-3.57156e-05,9.50082e-06,-6.92329e-06,5.20382e-06,1.81609e-05,-1.41332e-05,1.6619e-05,4.43814e-05,7
-3.34759e-05,1.04691e-05,-9.44467e-06,7.52644e-06,1.83107e-05,-1.30685e-05,1.38852e-05,9.18556e-06,7
-3.34273e-05,1.13414e-05,-1.2702e-05,1.09849e-05,1.80316e-05,-1.15206e-05,7.97662e-06,-4.17702e-05,7
-3.55838e-05,1.00093e-05,-1.44289e-05,1.00331e-05,1.71056e-05,-1.10441e-05,1.60238e-06,-0.000101529,7
-3.7688e-05,8.22763e-06,-1.38017e-05,1.91278e-06,1.58494e-05,-1.33206e-05,-2.41786e-06,-0.000148864,7
-3.87128e-05,8.60937e-06,-1.27026e-05,-9.65983e-06,1.52061e-05,-1.63115e-05,-3.71273e-06,-0.000171627,7
-3.85472e-05,1.01079e-05,-1.26131e-05,-1.87912e-05,1.51533e-05,-1.63175e-05,-2.16765e-06,-0.000166969,7
-3.7167e-05,1.15308e-05,-1.25014e-05,-2.24254e-05,1.57553e-05,-1.40482e-05,3.32698e-06,-0.000134871,7
-3.58707e-05,1.30473e-05,-1.23092e-05,-2.19435e-05,1.55421e-05,-1.18496e-05,1.02375e-05,-8.39065e-05,7
-3.60402e-05,1.47392e-05,-1.32356e-05,-2.12003e-05,1.38161e-05,-1.10082e-05,1.4431e-05,-3.26934e-05,7
-3.68051e-05,1.61999e-05,-1.37393e-05,-2.06006e-05,1.30137e-05,-1.09973e-05,1.4668e-05,-2.03769e-06,7
-3.76185e-05,1.64998e-05,-1.17025e-05,-1.608e-05,1.3897e-05,-1.1141e-05,1.33536e-05,6.98771e-06,7
-3.87017e-05,1.54492e-05,-8.01084e-06,-9.42384e-06,1.60361e-05,-1.07795e-05,1.31886e-05,7.94252e-06,7
-3.84399e-05,1.30309e-05,-6.82486e-06,-4.5267e-06,1.80613e-05,-9.23138e-06,1.22598e-05,6.93381e-06,7
-3.78958e-05,1.18227e-05,-7.08653e-06,1.66066e-07,1.91676e-05,-9.48321e-06,9.16718e-06,5.68558e-06,7
-3.7139e-05,1.24054e-05,-6.88591e-06,5.08951e-06,2.03123e-05,-1.07442e-05,8.55378e-06,4.78574e-06,7
-3.67011e-05,1.27306e-05,-7.36235e-06,9.45446e-06,2.11116e-05,-1.17264e-05,1.2629e-05,3.15095e-06,7
-3.68552e-05,1.32245e-05,-8.38783e-06,1.1893e-05,1.94402e-05,-1.26489e-05,1.73568e-05,1.69765e-06,7
-3.46422e-05,1.31268e-05,-9.31807e-06,1.27973e-05,1.75883e-05,-1.24012e-05,2.02875e-05,3.20955e-06,7
-3.25149e-05,1.23865e-05,-1.10015e-05,1.10932e-05,1.67354e-05,-1.19407e-05,2.06158e-05,1.20216e-05,7
-3.16789e-05,1.23296e-05,-1.22411e-05,7.031e-06,1.54065e-05,-1.13405e-05,1.99508e-05,2.62024e-05,7
-3.13642e-05,1.21152e-05,-1.08941e-05,2.7394e-06,1.45889e-05,-1.04254e-05,1.90132e-05,3.88629e-05,7
-3.07068e-05,1.0531e-05,-8.7577e-06,-1.31261e-06,1.44909e-05,-9.87182e-06,1.65012e-05,5.10853e-05,7
-2.97722e-05,9.93753e-06,-7.04385e-06,-2.25268e-06,1.52928e-05,-9.92564e-06,1.23158e-05,6.75612e-05,7
-2.9398e-05,1.11039e-05,-5.4676e-06,2.14201e-06,1.66777e-05,-1.01918e-05,6.94668e-06,8.17514e-05,7
-2.94892e-05,1.37199e-05,-3.94329e-06,8.13117e-06,1.80093e-05,-1.04412e-05,3.24481e-06,8.33101e-05,7
-2.97319e-05,1.58525e-05,-3.62176e-06,1.15109e-05,1.79639e-05,-8.66172e-06,3.93149e-06,7.07446e-05,7
-2.95045e-05,1.69281e-05,-4.19834e-06,1.09735e-05,1.71083e-05,-5.33169e-06,9.61379e-06,5.13074e-05,7
-2.92463e-05,1.75935e-05,-4.18438e-06,6.6342e-06,1.60892e-05,-3.55015e-06,1.72516e-05,3.19948e-05,7
-2.90179e-05,1.82044e-05,-3.23627e-06,6.1383e-08,1.44924e-05,-3.80385e-06,2.16956e-05,1.53739e-05,7
-2.86737e-05,1.90819e-05,-1.68119e-06,-5.94385e-06,1.2464e-05,-4.85763e-06,2.31189e-05,1.1534e-06,7
-2.83799e-05,2.01903e-05,6.37158e-07,-8.42938e-06,1.19352e-05,-6.45134e-06,2.36115e-05,-7.63498e-06,7
-2.86481e-05,2.05445e-05,2.6621e-06,-6.70752e-06,1.34428e-05,-8.88443e-06,2.18403e-05,-4.20372e-06,7
-2.92559e-05,1.82649e-05,2.25525e-06,-4e-06,1.4397e-05,-1.08444e-05,1.69489e-05,1.24444e-05,7
-3.09046e-05,1.55514e-05,1.21226e-06,-3.75165e-06,1.39293e-05,-1.09131e-05,9.91939e-06,2.96324e-05,7
-3.36273e-05,1.41001e-05,8.18399e-07,-5.01744e-06,1.41197e-05,-9.57987e-06,2.45579e-06,3.10022e-05,7
-3.51554e-05,1.48557e-05,-1.75463e-06,-6.51531e-06,1.66335e-05,-8.43969e-06,-2.15346e-06,1.4655e-05,7
-3.3996e-05,1.58839e-05,-8.13293e-06,-7.99714e-06,1.92963e-05,-6.96132e-06,-1.20675e-06,-5.70056e-06,7
-3.24873e-05,1.52532e-05,-1.33754e-05,-6.62505e-06,1.84241e-05,-4.73565e-06,4.21044e-06,-1.76631e-05,7
-3.25971e-05,1.2937e-05,-1.35043e-05,-8.18141e-07,1.32176e-05,-4.22681e-06,8.95425e-06,-1.66227e-05,7
-3.30962e-05,9.80923e-06,-9.11471e-06,4.7355e-06,8.1288e-06,-7.50303e-06,1.02448e-05,-4.01044e-06,7
-3.25303e-05,7.91901e-06,-3.26628e-06,7.29583e-06,8.16263e-06,-1.11911e-05,1.09592e-05,9.52075e-06,7
-3.18429e-05,7.563e-06,-3.00949e-06,7.02082e-06,1.24899e-05,-1.40871e-05,1.29775e-05,1.34722e-05,7
-3.12413e-05,8.49533e-06,-1.07286e-05,4.55851e-06,1.43749e-05,-1.55944e-05,1.43705e-05,6.39497e-06,7
-3.04362e-05,1.05788e-05,-1.94621e-05,2.28742e-06,1.19909e-05,-1.2365e-05,1.23867e-05,-7.16299e-06,7
-2.94476e-05,1.24172e-05,-2.35825e-05,-7.65316e-07,7.39948e-06,-8.59712e-06,6.06102e-06,-2.22443e-05,7
-2.89626e-05,1.38729e-05,-2.30385e-05,-6.95172e-06,3.35579e-06,-7.29648e-06,1.55668e-06,-3.46079e-05,7
-2.80426e-05,1.63286e-05,-1.87402e-05,-1.2569e-05,3.68596e-06,-6.65121e-06,4.79756e-06,-4.27558e-05,7
-2.51361e-05,1.97328e-05,-1.19952e-05,-9.7474e-06,8.48367e-06,-4.61454e-06,1.28991e-05,-4.36725e-05,7
-2.26994e-05,2.22367e-05,-3.92803e-06,-5.13093e-06,1.33505e-05,-1.72717e-06,2.1075e-05,-3.52437e-05,7
-2.15482e-05,2.25838e-05,3.66772e-06,-1.00655e-05,1.43704e-05,-1.2242e-06,2.43319e-05,-2.17121e-05,7
-2.18627e-05,2.11667e-05,7.98884e-06,-2.34445e-05,1.29823e-05,-4.32166e-06,2.2187e-05,-1.02894e-05,7
-2.32623e-05,1.87675e-05,7.2623e-06,-3.62571e-05,1.30998e-05,-8.51345e-06,2.0981e-05,-4.98428e-06,7
-2.44528e-05,1.66976e-05,3.10936e-06,-4.35905e-05,1.50406e-05,-1.19379e-05,2.25688e-05,-6.0431e-06,7
-2.44401e-05,1.56365e-05,-1.92014e-06,-5.11998e-05,1.45409e-05,-1.45133e-05,2.22967e-05,-1.04177e-05,7
-2.38496e-05,1.43091e-05,-6.85265e-06,-6.30238e-05,9.12082e-06,-1.46731e-05,1.74769e-05,-1.46374e-05,7
-2.34643e-05,1.22753e-05,-8.88606e-06,-7.1456e-05,2.53073e-06,-1.17841e-05,1.31415e-05,-1.73113e-05,7
-2.36443e-05,1.12099e-05,-5.65381e-06,-6.73465e-05,-3.87851e-07,-7.95431e-06,1.47608e-05,-1.72251e-05,7
-2.44663e-05,1.10808e-05,-1.32762e-06,-5.28095e-05,1.99305e-07,-5.44909e-06,1.77395e-05,-1.39448e-05,7
-2.45801e-05,1.12902e-05,-7.05245e-07,-3.48448e-05,2.66175e-06,-3.55045e-06,1.54028e-05,-7.75192e-06,7
-2.40943e-05,1.2136e-05,-1.35477e-06,-1.92207e-05,5.69945e-06,-2.67015e-06,9.06938e-06,-1.48078e-06,7
-2.47275e-05,1.28883e-05,5.67419e-07,-7.02546e-06,8.77661e-06,-3.21521e-06,4.81802e-06,1.66471e-06,7
-2.74263e-05,1.26849e-05,2.5172e-06,3.18048e-06,9.75431e-06,-3.98473e-06,7.26004e-06,1.85789e-06,7
-3.04581e-05,1.18103e-05,-6.78033e-07,1.37863e-05,7.78658e-06,-4.0561e-06,1.40392e-05,1.89692e-06,7
-3.15883e-05,9.86547e-06,-6.60043e-06,2.27884e-05,4.80518e-06,-5.39413e-06,1.80656e-05,2.53866e-06,7
-3.19728e-05,7.84249e-06,-9.94059e-06,2.64466e-05,3.41985e-06,-7.74188e-06,1.68444e-05,4.13778e-06,7
-3.21316e-05,6.52834e-06,-1.00417e-05,2.43963e-05,4.97064e-06,-8.82865e-06,1.31254e-05,6.0516e-06,7
-3.0815e-05,6.12718e-06,-1.03176e-05,2.28563e-05,7.50095e-06,-7.63398e-06,8.77198e-06,8.04801e-06,7
-2.89993e-05,6.40699e-06,-1.10073e-05,2.91221e-05,8.98455e-06,-6.31397e-06,4.23955e-06,1.12484e-05,7
-2.70167e-05,7.44029e-06,-1.08128e-05,3.99531e-05,1.03842e-05,-6.97084e-06,-8.53994e-07,1.51111e-05,7
-2.45003e-05,9.47474e-06,-1.12144e-05,4.73849e-05,1.14715e-05,-8.32749e-06,-7.50607e-06,1.54785e-05,7
-2.27991e-05,1.04054e-05,-1.13414e-05,4.74233e-05,9.85722e-06,-1.09666e-05,-1.07083e-05,1.22048e-05,7
-2.32353e-05,9.94319e-06,-1.0051e-05,4.44212e-05,7.09789e-06,-1.20786e-05,-6.5112e-06,1.0509e-05,7
-2.57782e-05,9.08924e-06,-7.24092e-06,4.19738e-05,5.19714e-06,-1.10986e-05,1.65021e-06,9.84034e-06,7
-2.86076e-05,9.09676e-06,-4.41393e-06,3.86541e-05,5.85281e-06,-9.97022e-06,1.01383e-05,7.30614e-06,7
-2.94647e-05,9.52286e-06,-3.28363e-06,3.07419e-05,7.16919e-06,-8.80311e-06,1.75475e-05,3.46098e-06,7
-2.87535e-05,9.99084e-06,-4.88418e-06,1.54274e-05,7.00459e-06,-8.55281e-06,2.08305e-05,9.55168e-07,7
-2.85886e-05,1.10704e-05,-7.11802e-06,-8.18333e-06,7.20372e-06,-9.9712e-06,1.75138e-05,3.15629e-07,7
-2.96659e-05,1.25221e-05,-8.44981e-06,-3.14611e-05,1.00143e-05,-1.14745e-05,1.02549e-05,5.8388e-08,7
-3.07928e-05,1.27737e-05,-8.95673e-06,-4.02751e-05,1.45835e-05,-1.18996e-05,3.05434e-06,-1.51748e-07,7
-3.18446e-05,1.10999e-05,-8.80545e-06,-3.16627e-05,1.77453e-05,-1.08833e-05,-1.75411e-06,8.46471e-07,7
-3.2783e-05,9.02392e-06,-6.82904e-06,-1.60886e-05,1.8905e-05,-8.73285e-06,-2.02512e-06,2.15171e-06,7
-3.25016e-05,7.89464e-06,-2.39134e-06,-6.29962e-06,1.91367e-05,-8.12842e-06,3.10146e-06,5.42563e-06,7
-3.04617e-05,8.19016e-06,2.30508e-06,-6.35285e-06,1.85763e-05,-9.733e-06,1.13672e-05,1.67655e-05,7
-2.87482e-05,9.24381e-06,4.11697e-06,-1.34417e-05,1.70847e-05,-1.22472e-05,1.9529e-05,3.64147e-05,7
-2.90714e-05,1.07918e-05,1.01786e-06,-2.18568e-05,1.59872e-05,-1.34926e-05,2.60604e-05,5.12227e-05,7
-3.05456e-05,1.22831e-05,-4.26111e-06,-2.72523e-05,1.59378e-05,-1.31308e-05,3.08629e-05,5.25533e-05,7
-3.16885e-05,1.27664e-05,-8.63459e-06,-2.75606e-05,1.64839e-05,-1.2374e-05,3.41897e-05,4.56837e-05,7
-3.17764e-05,1.19099e-05,-1.01345e-05,-2.41784e-05,1.56152e-05,-1.18106e-05,3.59115e-05,4.11729e-05,7
-3.19506e-05,1.11709e-05,-9.39295e-06,-1.92383e-05,1.53163e-05,-1.09639e-05,3.45193e-05,4.70267e-05,7
-3.26791e-05,1.07074e-05,-7.32052e-06,-1.30222e-05,1.6706e-05,-9.38953e-06,2.9171e-05,5.49525e-05,7
-3.30837e-05,1.09423e-05,-4.30916e-06,-7.77885e-06,1.69146e-05,-7.70146e-06,2.15009e-05,5.24041e-05,7
-3.3052e-05,1.13356e-05,-1.42195e-06,-5.87822e-06,1.56421e-05,-7.43244e-06,1.46054e-05,3.59708e-05,7
-3.25311e-05,1.17229e-05,-5.65606e-07,-5.32557e-06,1.45986e-05,-8.46987e-06,1.16177e-05,9.90245e-06,7
-3.16285e-05,1.28591e-05,-3.25514e-06,-4.05237e-06,1.57884e-05,-7.58126e-06,1.56596e-05,5.50445e-06,7
-3.07662e-05,1.37051e-05,-5.87534e-06,-5.02041e-06,1.74593e-05,-6.34318e-06,2.12673e-05,3.1452e-05,7
-3.05717e-05,1.24542e-05,-5.65808e-06,-6.80172e-06,1.71619e-05,-8.28488e-06,2.35074e-05,4.90517e-05,7
-3.03436e-05,9.45363e-06,-5.26048e-06,-6.34037e-06,1.65085e-05,-1.16764e-05,2.30851e-05,3.93031e-05,7
-3.03562e-05,8.51831e-06,-6.32517e-06,-5.97368e-06,1.72544e-05,-1.40026e-05,1.98146e-05,6.84278e-06,7
-3.19354e-05,8.92714e-06,-8.50342e-06,-6.07703e-06,1.8769e-05,-1.39191e-05,1.49125e-05,-2.16385e-05,7
-3.28125e-05,1.04943e-05,-1.12319e-05,-6.03312e-06,1.9566e-05,-1.30097e-05,1.00092e-05,-3.61787e-05,7
-3.29903e-05,1.17301e-05,-1.35125e-05,-4.88072e-06,1.87455e-05,-1.32523e-05,4.9314e-06,-4.86451e-05,7
-3.29773e-05,1.12241e-05,-1.39076e-05,-2.85418e-06,1.7163e-05,-1.43509e-05,-1.52601e-06,-6.43276e-05,7
-3.34142e-05,1.10095e-05,-1.41794e-05,-3.79781e-06,1.61699e-05,-1.44555e-05,-6.34828e-06,-8.61255e-05,7
-3.40876e-05,1.1566e-05,-1.58588e-05,-1.09172e-05,1.54638e-05,-1.24202e-05,-6.43974e-06,-0.00010768,7
-3.47657e-05,1.21655e-05,-1.6884e-05,-1.93778e-05,1.41637e-05,-1.01562e-05,-4.22569e-07,-0.000122368,7
-3.4923e-05,1.27515e-05,-1.50043e-05,-2.21684e-05,1.34837e-05,-9.79102e-06,9.2351e-06,-0.000128586,7
-3.42566e-05,1.40652e-05,-1.19255e-05,-1.89811e-05,1.48006e-05,-1.10908e-05,1.74092e-05,-0.000131838,7
-3.47118e-05,1.58145e-05,-1.09166e-05,-1.3575e-05,1.69431e-05,-1.15899e-05,2.12946e-05,-0.000135042,7
-3.63831e-05,1.66164e-05,-1.17351e-05,-8.87387e-06,1.70018e-05,-1.09056e-05,2.21031e-05,-0.000131481,7
-3.8159e-05,1.54886e-05,-1.29964e-05,-5.46543e-06,1.37895e-05,-1.06522e-05,2.25088e-05,-0.000109398,7
-3.86052e-05,1.38319e-05,-1.43438e-05,-3.29378e-06,9.77897e-06,-1.12443e-05,2.33307e-05,-7.33638e-05,7
-3.82129e-05,1.25432e-05,-1.57561e-05,-8.96377e-07,8.24127e-06,-1.14412e-05,2.50334e-05,-3.92139e-05,7
-3.74728e-05,1.26146e-05,-1.5626e-05,2.19094e-06,1.0013e-05,-1.14967e-05,2.88328e-05,-1.55618e-05,7
-3.63513e-05,1.33189e-05,-1.37692e-05,6.25084e-06,1.39445e-05,-1.17353e-05,3.51191e-05,3.70455e-06,7
-3.52417e-05,1.41517e-05,-1.07176e-05,1.11291e-05,1.72876e-05,-1.09422e-05,3.93734e-05,2.73717e-05,7
-3.52855e-05,1.4506e-05,-8.87387e-06,1.47745e-05,1.82151e-05,-9.33207e-06,3.71588e-05,5.5667e-05,7
-3.66986e-05,1.41892e-05,-9.50022e-06,1.50375e-05,1.76389e-05,-7.99992e-06,2.8317e-05,7.24194e-05,7
-3.85399e-05,1.40159e-05,-8.83614e-06,1.29623e-05,1.6888e-05,-7.84153e-06,1.40213e-05,6.38902e-05,7
-3.91117e-05,1.38679e-05,-4.32803e-06,1.02128e-05,1.74454e-05,-8.51989e-06,-1.94948e-06,4.10481e-05,7
-3.8144e-05,1.39776e-05,-1.4028e-06,5.55217e-06,1.84514e-05,-8.86991e-06,-1.77767e-05,1.88354e-05,7
-3.67192e-05,1.3242e-05,-3.69861e-06,-9.44609e-07,1.72903e-05,-8.38714e-06,-2.79445e-05,8.06207e-06,7
-3.60224e-05,1.36302e-05,-7.91779e-06,-7.39321e-06,1.53447e-05,-8.37599e-06,-2.46378e-05,8.48932e-06,7
-3.68665e-05,1.41143e-05,-1.18402e-05,-1.05826e-05,1.46835e-05,-7.70552e-06,-1.10707e-05,1.22916e-05,7
-3.92862e-05,1.30876e-05,-1.54479e-05,-6.3336e-06,1.41291e-05,-5.35267e-06,6.82912e-06,1.56465e-05,7
-4.0654e-05,1.2269e-05,-1.83556e-05,1.4691e-06,1.34246e-05,-3.69638e-06,2.12922e-05,1.5581e-05,7
-4.0308e-05,1.2249e-05,-1.709e-05,7.37352e-06,1.37825e-05,-2.88789e-06,2.68053e-05,1.50384e-05,7
-3.97114e-05,1.36178e-05,-1.2651e-05,1.0563e-05,1.38645e-05,-3.49368e-06,2.63706e-05,1.82658e-05,7
-3.86263e-05,1.38194e-05,-8.20531e-06,1.08496e-05,1.29352e-05,-4.19822e-06,2.3867e-05,2.31186e-05,7
-3.78064e-05,1.20981e-05,-5.23521e-06,1.00968e-05,1.20545e-05,-5.52321e-06,2.04809e-05,2.54952e-05,7
-3.66439e-05,1.04193e-05,-4.14158e-06,8.1702e-06,1.22266e-05,-9.15313e-06,1.73413e-05,2.51586e-05,7
-3.46653e-05,1.06544e-05,-3.15727e-06,3.49514e-06,1.44442e-05,-1.2816e-05,1.2385e-05,2.55586e-05,7
-3.28785e-05,1.15611e-05,-1.03706e-06,-3.13531e-06,1.68529e-05,-1.45213e-05,7.81515e-07,2.59809e-05,7
-3.2212e-05,1.23958e-05,2.79132e-06,-9.36096e-06,1.85254e-05,-1.45305e-05,-1.36151e-05,2.51219e-05,7
-3.23757e-05,1.33635e-05,5.41462e-06,-1.45876e-05,1.97548e-05,-1.32489e-05,-1.8751e-05,2.25932e-05,7
-3.18088e-05,1.37342e-05,4.19427e-06,-1.88518e-05,2.03895e-05,-1.04002e-05,-9.30706e-06,1.94353e-05,7
-2.9866e-05,1.3738e-05,-6.08965e-07,-2.11656e-05,2.00658e-05,-7.21019e-06,5.52441e-06,1.67566e-05,7
-2.74251e-05,1.35745e-05,-5.86812e-06,-2.12455e-05,1.93271e-05,-4.69696e-06,1.53324e-05,1.55183e-05,7
-2.52381e-05,1.3435e-05,-9.27332e-06,-1.96664e-05,1.89498e-05,-4.15012e-06,1.89802e-05,1.46822e-05,7
-2.38854e-05,1.31966e-05,-1.06016e-05,-1.6377e-05,1.86228e-05,-4.34394e-06,2.01183e-05,1.36735e-05,7
-2.34994e-05,1.38937e-05,-1.01736e-05,-1.096e-05,1.7669e-05,-4.2237e-06,1.98531e-05,1.37787e-05,7
-2.32018e-05,1.38335e-05,-6.64372e-06,-5.49169e-06,1.53427e-05,-5.82623e-06,1.75219e-05,1.56276e-05,7
-2.271e-05,1.16142e-05,-1.62303e-06,-3.56545e-06,1.3197e-05,-9.56417e-06,1.44905e-05,1.71372e-05,7
-2.24373e-05,1.02681e-05,-6.95235e-07,-4.29841e-06,1.29993e-05,-1.09077e-05,1.33369e-05,1.68785e-05,7
-2.22611e-05,1.18678e-05,-2.57732e-06,-6.27574e-06,1.43071e-05,-9.66182e-06,1.42265e-05,1.63465e-05,7
-2.12151e-05,1.39206e-05,-2.66362e-06,-7.03622e-06,1.58168e-05,-8.35975e-06,1.49816e-05,1.44888e-05,7
-1.99069e-05,1.5431e-05,-9.15195e-07,-4.2347e-06,1.64965e-05,-5.58945e-06,1.57983e-05,1.17096e-05,7
-1.94701e-05,1.58902e-05,-1.04446e-06,-1.91475e-06,1.62764e-05,-2.29512e-06,1.85234e-05,9.12533e-06,7
-1.86545e-05,1.51634e-05,-2.60164e-06,-2.5823e-06,1.5493e-05,-2.04995e-06,1.98499e-05,8.44701e-06,7
-1.86228e-05,1.39432e-05,-4.12781e-06,-3.53755e-06,1.34941e-05,-5.73971e-06,1.86904e-05,8.91528e-06,7
-1.79232e-05,1.19732e-05,-5.30042e-06,-4.20004e-06,1.07379e-05,-9.19784e-06,1.91349e-05,8.73735e-06,7
-1.73655e-05,1.10176e-05,-6.17777e-06,-7.70765e-06,7.42602e-06,-1.02838e-05,2.00703e-05,8.73593e-06,7
-1.76748e-05,1.07025e-05,-6.42299e-06,-1.23361e-05,5.68198e-06,-9.51633e-06,2.01244e-05,8.27975e-06,7
-1.69075e-05,1.10622e-05,-6.33693e-06,-1.35318e-05,6.67312e-06,-8.20334e-06,1.88605e-05,5.97819e-06,7
-1.69151e-05,1.25247e-05,-6.71973e-06,-9.78216e-06,8.49901e-06,-8.49887e-06,1.53676e-05,3.66746e-06,7
-1.82078e-05,1.32147e-05,-7.07126e-06,-4.49798e-06,1.00758e-05,-1.01128e-05,1.09819e-05,8.70999e-06,7
-1.95884e-05,1.27923e-05,-7.42272e-06,-1.26856e-06,1.02165e-05,-1.11413e-05,1.08944e-05,2.47758e-05,7
-2.08091e-05,1.29156e-05,-7.3721e-06,-2.36629e-06,7.63739e-06,-1.01042e-05,1.6885e-05,4.53591e-05,7
-2.24463e-05,1.35496e-05,-8.02945e-06,-8.70446e-06,3.91259e-06,-7.97213e-06,2.43082e-05,6.41573e-05,7
-2.3966e-05,1.22022e-05,-9.82279e-06,-1.70504e-05,2.75577e-06,-6.65827e-06,2.72666e-05,7.93545e-05,7
-2.55314e-05,9.67109e-06,-1.14701e-05,-2.24557e-05,4.65695e-06,-6.79721e-06,2.29067e-05,9.22744e-05,7
-2.69426e-05,8.14193e-06,-1.27657e-05,-2.13475e-05,7.67334e-06,-7.84035e-06,1.18711e-05,0.000106888,7
-2.88998e-05,7.23848e-06,-1.40635e-05,-1.61148e-05,9.25741e-06,-9.38575e-06,-2.6704e-06,0.000111683,7
-3.05005e-05,6.03795e-06,-1.50127e-05,-1.02143e-05,9.02994e-06,-1.15682e-05,-1.3378e-05,8.50326e-05,7
-3.10009e-05,6.02824e-06,-1.43797e-05,-5.62578e-06,8.67416e-06,-1.29876e-05,-1.46455e-05,2.80056e-05,7
-3.03815e-05,9.03313e-06,-1.15594e-05,-3.19014e-06,1.09023e-05,-1.24331e-05,-6.72218e-06,-3.65638e-05,7
-2.97169e-05,1.29823e-05,-8.75717e-06,-2.44451e-06,1.52088e-05,-1.06909e-05,4.58512e-06,-8.572e-05,7
-2.95662e-05,1.48016e-05,-6.9172e-06,-1.81938e-06,1.64381e-05,-9.38585e-06,1.12332e-05,-0.000109102,7
-2.89793e-05,1.54318e-05,-4.94571e-06,3.88174e-07,1.21477e-05,-8.23975e-06,9.52087e-06,-0.000113909,7
-2.86232e-05,1.57694e-05,-4.33636e-06,5.12427e-06,5.72893e-06,-6.43518e-06,5.13909e-06,-0.000118888,7
-2.97626e-05,1.47491e-05,-5.75103e-06,1.15877e-05,2.83186e-06,-5.57555e-06,6.218e-06,-0.000135607,7
-3.07042e-05,1.46664e-05,-6.91833e-06,1.77191e-05,5.26428e-06,-6.19851e-06,1.16276e-05,-0.000148824,7
-2.98885e-05,1.64933e-05,-6.54688e-06,1.96751e-05,9.57361e-06,-6.73817e-06,1.58449e-05,-0.00013473,7
-2.8975e-05,1.79098e-05,-4.46297e-06,1.69299e-05,1.12087e-05,-7.43769e-06,1.78113e-05,-9.74238e-05,7
-2.83748e-05,1.74542e-05,-1.79145e-06,1.89585e-05,1.04332e-05,-1.05177e-05,1.83353e-05,-5.25103e-05,7
-2.8886e-05,1.55765e-05,2.87748e-08,2.4827e-05,9.98265e-06,-1.4289e-05,2.03961e-05,-2.12635e-05,7
-3.01475e-05,1.40918e-05,-2.83132e-07,2.4051e-05,9.86519e-06,-1.49872e-05,2.22135e-05,-9.91259e-06,7
-3.11993e-05,1.30495e-05,-3.06443e-06,1.56067e-05,1.04115e-05,-1.26825e-05,2.19292e-05,-8.48505e-06,7
-3.06141e-05,1.23024e-05,-5.87408e-06,5.73304e-06,1.1105e-05,-8.73088e-06,2.03993e-05,-1.55848e-05,7
-2.97299e-05,1.25065e-05,-5.64214e-06,1.15966e-06,1.11429e-05,-6.95848e-06,1.77249e-05,-2.0469e-05,7
-3.06315e-05,1.40849e-05,-3.89208e-06,7.47429e-07,1.0957e-05,-7.61631e-06,1.6009e-05,-1.49585e-05,7
-3.27186e-05,1.49005e-05,-3.84178e-06,2.26076e-07,1.20167e-05,-8.08537e-06,1.41613e-05,2.88656e-06,7
-3.56911e-05,1.38823e-05,-5.51159e-06,-1.66257e-06,1.47093e-05,-8.83108e-06,1.10286e-05,2.04367e-05,7
-3.68085e-05,1.3467e-05,-6.25746e-06,-4.50654e-06,1.67305e-05,-9.25515e-06,8.55801e-06,2.67854e-05,7
-3.50625e-05,1.40771e-05,-4.34411e-06,-6.52095e-06,1.68686e-05,-8.70073e-06,9.28422e-06,2.14444e-05,7
-3.28296e-05,1.54069e-05,-1.85393e-06,-6.24032e-06,1.55263e-05,-8.04549e-06,1.31333e-05,1.24132e-05,7
-3.21818e-05,1.53738e-05,-1.5153e-06,-6.02883e-06,1.39995e-05,-8.05249e-06,1.86957e-05,7.60059e-06,7
-3.34958e-05,1.46597e-05,-4.34119e-06,-8.74604e-06,1.26869e-05,-8.21309e-06,2.29101e-05,5.32267e-06,7
-3.53006e-05,1.43511e-05,-8.7633e-06,-1.16364e-05,1.16107e-05,-8.36758e-06,2.32179e-05,2.38786e-06,7
-3.63103e-05,1.47064e-05,-1.1889e-05,-1.10545e-05,1.2233e-05,-8.41974e-06,2.13013e-05,-2.69779e-06,7
-3.61993e-05,1.52818e-05,-1.18195e-05,-7.34245e-06,1.5874e-05,-8.14265e-06,2.07959e-05,-6.86655e-06,7
-3.57354e-05,1.4954e-05,-1.02458e-05,-4.63236e-06,1.93623e-05,-8.08309e-06,2.26762e-05,-9.13421e-06,7
-3.55212e-05,1.41246e-05,-1.01084e-05,-4.22251e-06,1.87562e-05,-8.70788e-06,2.2842e-05,-6.71171e-06,7
-3.55635e-05,1.33723e-05,-1.02419e-05,-3.13147e-06,1.58809e-05,-8.68375e-06,1.84046e-05,-1.89494e-06,7
-3.61396e-05,1.32223e-05,-7.90893e-06,-7.02869e-07,1.49495e-05,-6.86663e-06,1.26441e-05,2.5767e-06,7
-3.73312e-05,1.27738e-05,-5.72199e-06,-2.27107e-08,1.48652e-05,-5.09824e-06,8.77575e-06,3.88371e-06,7
-3.77738e-05,1.23588e-05,-6.18596e-06,-2.45653e-06,1.27428e-05,-4.38796e-06,7.43233e-06,4.91042e-06,7
-3.61124e-05,1.33578e-05,-6.45467e-06,-4.66191e-06,1.04677e-05,-3.35196e-06,8.45918e-06,7.90357e-06,7
-3.39522e-05,1.59903e-05,-3.28418e-06,-1.55128e-06,1.20936e-05,-3.52884e-06,1.03493e-05,1.04836e-05,7
-3.22233e-05,1.8249e-05,1.05238e-06,4.37361e-06,1.63379e-05,-5.17585e-06,1.115e-05,1.12099e-05,7
-3.07408e-05,1.87833e-05,3.2144e-06,8.53367e-06,1.78873e-05,-6.71451e-06,1.01299e-05,1.42358e-05,7
-3.13724e-05,1.57808e-05,2.64961e-06,9.73584e-06,1.59401e-05,-9.20442e-06,9.44997e-06,2.89033e-05,7
-3.28939e-05,1.22304e-05,-2.49243e-06,5.35497e-06,1.23169e-05,-1.17002e-05,1.28148e-05,4.52171e-05,7
-3.46632e-05,9.89102e-06,-8.44561e-06,-5.44758e-07,1.11812e-05,-1.28961e-05,1.40794e-05,4.62431e-05,7
-3.62447e-05,8.58039e-06,-1.09062e-05,-4.36595e-06,1.29563e-05,-1.316e-05,5.92359e-06,3.27806e-05,7
-3.57191e-05,9.44936e-06,-9.55113e-06,-8.59146e-06,1.36579e-05,-1.21115e-05,-5.56597e-06,1.47243e-05,7
-3.44319e-05,1.15766e-05,-5.65539e-06,-1.48957e-05,1.32116e-05,-9.31189e-06,-1.37098e-05,5.17587e-06,7
-3.42406e-05,1.31364e-05,-3.22198e-06,-2.23342e-05,1.25356e-05,-7.0451e-06,-1.79449e-05,5.432e-06,7
-3.47757e-05,1.31811e-05,-9.42983e-07,-2.79408e-05,1.35446e-05,-9.30142e-06,-1.80382e-05,1.32227e-05,7
-3.52781e-05,1.37013e-05,2.83216e-06,-3.40653e-05,1.37078e-05,-1.3153e-05,-1.17348e-05,4.24521e-05,7
-3.57236e-05,1.42915e-05,4.98201e-06,-4.2381e-05,1.19372e-05,-1.32455e-05,-5.35832e-07,9.60061e-05,7
-3.45167e-05,1.53129e-05,3.53003e-06,-4.80866e-05,1.16432e-05,-9.68501e-06,1.17071e-05,0.000134869,7
-3.19082e-05,1.59692e-05,9.08303e-07,-4.54541e-05,1.18912e-05,-6.58661e-06,2.05242e-05,0.000128367,7
-2.98399e-05,1.56938e-05,-3.04284e-07,-3.38874e-05,1.247e-05,-6.21556e-06,2.20783e-05,9.25245e-05,7
-2.89262e-05,1.55369e-05,-9.43569e-07,-1.96059e-05,1.39967e-05,-6.79884e-06,1.86194e-05,5.47413e-05,7
-2.87391e-05,1.49918e-05,-2.53746e-06,-7.60241e-06,1.55246e-05,-7.95869e-06,1.45631e-05,2.16564e-05,7
-2.93808e-05,1.31899e-05,-5.85371e-06,1.69139e-06,1.5699e-05,-9.79435e-06,1.28771e-05,-1.51254e-05,7
-3.03069e-05,1.118e-05,-1.06502e-05,8.60821e-06,1.50221e-05,-1.177e-05,1.40902e-05,-5.36277e-05,7
-3.11068e-05,1.04294e-05,-1.54985e-05,1.15206e-05,1.39001e-05,-1.30722e-05,1.62655e-05,-8.56183e-05,7
-3.18815e-05,1.02314e-05,-1.83202e-05,1.05024e-05,1.25008e-05,-1.30508e-05,1.65486e-05,-0.00010186,7
-3.20385e-05,1.06811e-05,-1.88432e-05,8.81195e-06,1.21353e-05,-1.10843e-05,1.4405e-05,-0.000102425,7
-3.09494e-05,1.11957e-05,-1.69347e-05,8.65145e-06,1.33504e-05,-8.61476e-06,1.30808e-05,-9.27398e-05,7
-2.99653e-05,1.11691e-05,-1.15146e-05,9.32269e-06,1.55264e-05,-7.26719e-06,1.35416e-05,-7.49763e-05,7
-3.04283e-05,1.15278e-05,-4.21593e-06,8.4098e-06,1.7398e-05,-7.56667e-06,1.30278e-05,-4.72725e-05,7
-3.10122e-05,1.27374e-05,-9.58255e-07,3.74376e-06,1.68372e-05,-7.70444e-06,1.29491e-05,-2.02911e-05,7
-3.10847e-05,1.44501e-05,-4.26914e-06,-5.43269e-06,1.44268e-05,-6.48539e-06,1.61812e-05,-4.55831e-06,7
-3.09754e-05,1.51507e-05,-8.84605e-06,-1.65644e-05,1.24662e-05,-5.3109e-06,1.98147e-05,4.98032e-06,7
-3.03682e-05,1.44776e-05,-1.01364e-05,-2.13088e-05,1.26753e-05,-4.52333e-06,2.07027e-05,1.25321e-05,7
-2.89964e-05,1.34405e-05,-7.96805e-06,-1.55533e-05,1.44904e-05,-5.7649e-06,2.03242e-05,1.76786e-05,7
-2.75812e-05,1.33825e-05,-2.74683e-06,-8.01303e-06,1.5486e-05,-7.18955e-06,1.99046e-05,1.43684e-05,7
-2.59734e-05,1.38744e-05,2.46723e-06,-5.98627e-06,1.61766e-05,-7.95679e-06,1.96183e-05,2.13108e-06,7
-2.48368e-05,1.22144e-05,2.91722e-06,-7.60647e-06,1.60765e-05,-8.72871e-06,1.97879e-05,-9.24466e-06,7
-2.47718e-05,1.10054e-05,-9.86901e-07,-9.26669e-06,1.47113e-05,-9.25865e-06,1.92212e-05,-1.44464e-05,7
-2.57617e-05,1.18544e-05,-4.79555e-06,-7.45582e-06,1.38242e-05,-1.08004e-05,1.84399e-05,-1.33543e-05,7
-2.65991e-05,1.27454e-05,-6.11301e-06,-4.09278e-06,1.31652e-05,-1.24726e-05,1.74514e-05,-7.98403e-06,7
-2.59402e-05,1.29287e-05,-6.28134e-06,-1.62867e-06,1.13389e-05,-1.42915e-05,1.82662e-05,-1.49583e-06,7
-2.4606e-05,1.33944e-05,-7.46859e-06,-1.04224e-06,1.03213e-05,-1.54735e-05,2.19315e-05,5.51226e-06,7
-2.42329e-05,1.37296e-05,-1.05707e-05,-1.26147e-06,1.08215e-05,-1.53149e-05,2.38101e-05,1.16205e-05,7
-2.4816e-05,1.27649e-05,-1.47593e-05,-1.34962e-07,1.19392e-05,-1.38871e-05,2.2351e-05,1.68974e-05,7
-2.49832e-05,1.16101e-05,-1.68181e-05,1.10889e-06,1.35135e-05,-1.19106e-05,1.9538e-05,1.74526e-05,7
-2.5028e-05,1.09767e-05,-1.53158e-05,1.51946e-06,1.53395e-05,-1.00117e-05,1.89102e-05,1.17558e-05,7
-2.4856e-05,1.16413e-05,-1.29082e-05,6.12016e-07,1.65297e-05,-8.95092e-06,1.85759e-05,4.42387e-06,7
-2.46842e-05,1.29431e-05,-1.2444e-05,-8.45962e-07,1.55534e-05,-9.4717e-06,1.49103e-05,-5.04587e-07,7
-2.50936e-05,1.27559e-05,-1.45638e-05,-3.3894e-06,1.3036e-05,-1.00947e-05,1.14734e-05,-1.66895e-06,7
-2.61961e-05,1.04333e-05,-1.74547e-05,-4.25786e-06,1.12251e-05,-1.02088e-05,1.23173e-05,7.5875e-07,7
-2.71049e-05,8.78019e-06,-1.78887e-05,-1.98737e-06,1.08048e-05,-1.07156e-05,1.37683e-05,4.2594e-06,7
-2.70334e-05,9.38697e-06,-1.478e-05,-3.20134e-07,1.03071e-05,-1.26754e-05,9.41353e-06,4.04642e-06,7
-2.59159e-05,1.0694e-05,-1.14645e-05,-3.15248e-06,1.07503e-05,-1.43811e-05,4.96005e-07,-2.75461e-07,7
-2.46538e-05,1.13659e-05,-1.13795e-05,-7.42003e-06,1.31377e-05,-1.49907e-05,-6.64731e-06,-5.79861e-06,7
-2.44834e-05,1.18058e-05,-1.37724e-05,-7.76225e-06,1.62594e-05,-1.51046e-05,-7.0335e-06,-9.69955e-06,7
-2.52394e-05,1.13078e-05,-1.55385e-05,-3.38676e-06,1.8797e-05,-1.41884e-05,-3.00133e-06,-9.95686e-06,7
-2.59918e-05,9.21337e-06,-1.53441e-05,2.45063e-06,1.9746e-05,-1.20473e-05,1.19526e-06,-6.18248e-06,7
-2.51041e-05,7.3427e-06,-1.30012e-05,4.90859e-06,1.93108e-05,-1.01025e-05,6.10674e-06,4.03134e-06,7
-2.39299e-05,7.40314e-06,-1.04613e-05,2.55848e-06,1.86346e-05,-9.43182e-06,1.03303e-05,2.37374e-05,7
-2.49463e-05,7.37811e-06,-1.12489e-05,-3.47618e-06,1.80328e-05,-1.14532e-05,1.07726e-05,4.55381e-05,7
-2.68686e-05,5.72165e-06,-1.25321e-05,-8.32835e-06,1.81743e-05,-1.42026e-05,7.95669e-06,5.71314e-05,7
-2.67532e-05,5.65482e-06,-7.46619e-06,-7.96325e-06,1.83921e-05,-1.4851e-05,4.59548e-06,5.45037e-05,7
-2.54684e-05,7.68194e-06,1.02538e-06,-6.7529e-06,1.68286e-05,-1.45997e-05,3.61697e-06,4.55049e-05,7
-2.45986e-05,9.41633e-06,5.95262e-06,-9.7037e-06,1.48194e-05,-1.2402e-05,6.09711e-06,3.96866e-05,7
-2.42445e-05,1.03874e-05,7.77639e-06,-1.32002e-05,1.37659e-05,-1.02341e-05,1.06549e-05,3.40519e-05,7
-2.51861e-05,1.06046e-05,9.7592e-06,-1.24681e-05,1.46938e-05,-1.10232e-05,1.41999e-05,2.46088e-05,7
-2.6099e-05,1.01233e-05,1.18271e-05,-1.13045e-05,1.62836e-05,-1.29949e-05,1.33869e-05,7.7452e-06,7
-2.75804e-05,8.45818e-06,7.47566e-06,-1.67538e-05,1.47704e-05,-1.32361e-05,8.95977e-06,-1.63184e-05,7
-3.08908e-05,6.08139e-06,-2.26963e-06,-2.51601e-05,1.09258e-05,-1.17856e-05,6.21606e-06,-3.90679e-05,7
-3.44035e-05,5.36731e-06,-5.80736e-06,-2.78637e-05,9.14806e-06,-1.04145e-05,9.58706e-06,-5.03177e-05,7
-3.57904e-05,7.80301e-06,-9.91725e-07,-1.93739e-05,1.11029e-05,-9.6189e-06,1.67435e-05,-4.54783e-05,7
-3.45841e-05,1.18531e-05,4.11479e-06,-4.80508e-06,1.47399e-05,-8.35613e-06,2.22962e-05,-2.68354e-05,7
-3.24915e-05,1.4431e-05,4.86618e-06,6.04061e-06,1.76392e-05,-5.8912e-06,2.32917e-05,6.8535e-06,7
-3.14531e-05,1.52856e-05,3.30064e-06,1.02016e-05,1.84789e-05,-4.31923e-06,2.01376e-05,4.40279e-05,7
-3.2152e-05,1.57298e-05,2.52383e-06,1.04196e-05,1.81745e-05,-4.83451e-06,1.71501e-05,6.44742e-05,7
-3.35103e-05,1.68451e-05,1.24001e-06,9.05416e-06,1.79615e-05,-6.82088e-06,1.59107e-05,6.46482e-05,7
-3.49522e-05,1.67187e-05,-3.49365e-06,3.91731e-06,1.78449e-05,-9.31851e-06,1.43655e-05,5.53069e-05,7
-3.63695e-05,1.40675e-05,-1.01292e-05,-4.35101e-06,1.7089e-05,-1.06615e-05,1.19788e-05,4.25596e-05,7
-3.7295e-05,1.1632e-05,-1.38562e-05,-1.11548e-05,1.53715e-05,-9.1176e-06,1.08637e-05,2.1623e-05,7
-3.71861e-05,1.17887e-05,-1.38307e-05,-1.47214e-05,1.4074e-05,-6.20618e-06,1.21045e-05,-9.38867e-06,7
-3.65465e-05,1.29126e-05,-1.36591e-05,-1.66551e-05,1.42567e-05,-4.87178e-06,1.4159e-05,-4.42261e-05,7
-3.68384e-05,1.1915e-05,-1.50362e-05,-1.56797e-05,1.41509e-05,-6.18025e-06,1.51035e-05,-8.12369e-05,7
-3.83754e-05,1.00919e-05,-1.49725e-05,-9.79797e-06,1.1531e-05,-8.78696e-06,1.49336e-05,-0.000115968,7
-3.8912e-05,9.53129e-06,-1.0001e-05,5.80426e-07,7.85475e-06,-1.0931e-05,1.48423e-05,-0.000128559,7
-3.82116e-05,8.42208e-06,-5.1855e-06,1.09417e-05,7.40477e-06,-1.13068e-05,1.42243e-05,-0.000102675,7
-3.72315e-05,7.72183e-06,-4.07209e-06,1.59241e-05,1.0187e-05,-9.34042e-06,1.4114e-05,-4.92952e-05,7
-3.69834e-05,7.57631e-06,-5.18494e-06,1.32972e-05,1.29659e-05,-8.98801e-06,1.37925e-05,-4.74344e-06,7
-3.90967e-05,5.45774e-06,-8.27642e-06,6.82415e-06,1.24005e-05,-1.12028e-05,1.08446e-05,6.63153e-06,7
-3.98558e-05,3.94252e-06,-1.22196e-05,4.66165e-06,9.69467e-06,-1.17179e-05,6.49788e-06,-6.70595e-06,7
-3.66315e-05,6.24937e-06,-1.4461e-05,9.12673e-06,1.09302e-05,-9.44114e-06,3.0098e-06,-2.18887e-05,7
-3.35479e-05,1.08562e-05,-1.10382e-05,1.39017e-05,1.45934e-05,-6.22527e-06,4.06504e-06,-2.64227e-05,7
-3.39257e-05,1.33564e-05,-7.3808e-06,1.21276e-05,1.69532e-05,-5.58715e-06,8.7455e-06,-2.37862e-05,7
-3.6044e-05,1.3345e-05,-7.48619e-06,4.57426e-06,1.72998e-05,-7.61338e-06,1.16597e-05,-1.84563e-05,7
-3.68502e-05,1.24876e-05,-7.43099e-06,-4.38668e-07,1.72681e-05,-8.92702e-06,1.46359e-05,-1.08726e-05,7
-3.6201e-05,1.40632e-05,-5.34138e-06,8.54128e-07,1.7518e-05,-9.45516e-06,1.98321e-05,-3.00265e-06,7
-3.56016e-05,1.65356e-05,-2.69879e-06,3.38071e-06,1.66516e-05,-9.47849e-06,2.35184e-05,2.4169e-06,7
-3.49745e-05,1.58644e-05,-1.76114e-06,2.93696e-06,1.46055e-05,-9.47376e-06,2.41307e-05,1.03201e-05,7
-3.28011e-05,1.37113e-05,-1.75039e-06,1.23136e-06,1.34621e-05,-9.76152e-06,2.33182e-05,2.52318e-05,7
-3.02175e-05,1.24642e-05,-2.43102e-06,1.37311e-06,1.39558e-05,-9.16325e-06,2.19786e-05,4.0455e-05,7
-2.84351e-05,1.31364e-05,-4.15911e-06,2.28172e-06,1.4331e-05,-7.70118e-06,2.10933e-05,4.66655e-05,7
-2.81095e-05,1.42609e-05,-6.25079e-06,3.0773e-06,1.38717e-05,-7.30946e-06,2.0176e-05,4.44537e-05,7
-3.00191e-05,1.4715e-05,-7.59077e-06,2.49277e-06,1.29135e-05,-9.12631e-06,1.7145e-05,3.85798e-05,7
-3.28229e-05,1.42964e-05,-7.73103e-06,-4.51492e-08,1.22772e-05,-1.14948e-05,1.11591e-05,3.00649e-05,7
-3.46203e-05,1.40182e-05,-6.55008e-06,-3.31807e-06,1.22911e-05,-1.17068e-05,5.65519e-06,1.99213e-05,7
-3.48519e-05,1.4377e-05,-5.76571e-06,-6.16897e-06,1.35042e-05,-9.78091e-06,4.35428e-06,1.15226e-05,7
-3.42918e-05,1.47086e-05,-5.95055e-06,-9.89919e-06,1.52276e-05,-8.56336e-06,4.74023e-06,8.00257e-06,7
-3.35714e-05,1.54199e-05,-6.43883e-06,-1.74585e-05,1.78321e-05,-8.82909e-06,1.82707e-06,7.95345e-06,7
-3.33055e-05,1.63411e-05,-7.49862e-06,-2.547e-05,2.07718e-05,-8.59703e-06,-5.3082e-06,8.15872e-06,7
-3.3985e-05,1.67789e-05,-9.09029e-06,-2.75838e-05,2.19802e-05,-6.91379e-06,-9.563e-06,8.36587e-06,7
-3.51062e-05,1.7474e-05,-1.0909e-05,-2.47571e-05,2.08281e-05,-5.28422e-06,-5.33659e-06,2.0883e-05,7
-3.54991e-05,1.71306e-05,-1.34737e-05,-2.17845e-05,1.81737e-05,-6.75255e-06,3.2374e-06,6.07135e-05,7
-3.61679e-05,1.48214e-05,-1.59891e-05,-2.09885e-05,1.50884e-05,-1.10208e-05,9.50659e-06,0.000112937,7
-3.6545e-05,1.1581e-05,-1.63085e-05,-2.18966e-05,1.25229e-05,-1.39552e-05,1.21328e-05,0.000139737,7
-3.72173e-05,1.03782e-05,-1.53671e-05,-2.19133e-05,1.07031e-05,-1.27284e-05,1.4724e-05,0.000136044,7
-3.81489e-05,1.22329e-05,-1.28743e-05,-1.58696e-05,1.12861e-05,-9.69015e-06,2.1568e-05,0.000126385,7
-3.67496e-05,1.4155e-05,-7.84809e-06,-3.45599e-06,1.41902e-05,-9.19525e-06,2.80065e-05,0.000108594,7
-3.34376e-05,1.5216e-05,-3.05671e-06,5.99536e-06,1.72276e-05,-9.535e-06,2.5172e-05,5.657e-05,7
-3.12185e-05,1.52648e-05,-2.00495e-06,9.73332e-06,1.74066e-05,-1.00469e-05,1.36543e-05,-2.49598e-05,7
-3.09816e-05,1.5626e-05,-5.36504e-06,1.14834e-05,1.40058e-05,-1.12577e-05,-6.61848e-07,-0.000109689,7
-3.07246e-05,1.53855e-05,-9.30951e-06,1.41304e-05,1.12482e-05,-1.21956e-05,-1.15705e-05,-0.00017436,7
-2.97778e-05,1.44705e-05,-9.88451e-06,1.48866e-05,1.11349e-05,-1.19234e-05,-1.55393e-05,-0.000188627,7
-2.88831e-05,1.48972e-05,-8.55166e-06,8.04462e-06,1.35354e-05,-1.07779e-05,-1.25142e-05,-0.000146925,7
-2.98012e-05,1.53169e-05,-8.3314e-06,-9.0592e-06,1.50773e-05,-9.73972e-06,-6.77935e-06,-7.82879e-05,7
-3.11424e-05,1.43323e-05,-9.14529e-06,-3.29963e-05,1.4412e-05,-8.98294e-06,-2.33867e-06,-2.10431e-05,7
-3.1997e-05,1.37267e-05,-1.02616e-05,-5.21069e-05,1.32287e-05,-8.50711e-06,-5.26523e-07,1.1012e-06,7
-3.2318e-05,1.36494e-05,-1.19125e-05,-5.68763e-05,1.2741e-05,-7.43627e-06,4.35239e-07,-1.21779e-05,7
-3.21525e-05,1.21561e-05,-1.38364e-05,-4.74648e-05,1.29247e-05,-6.6039e-06,3.75525e-06,-4.74174e-05,7
-3.07067e-05,1.03737e-05,-1.38769e-05,-3.2303e-05,1.24379e-05,-6.54597e-06,8.90522e-06,-8.20445e-05,7
-2.83253e-05,9.69106e-06,-1.13997e-05,-1.88225e-05,1.17488e-05,-8.1036e-06,1.40737e-05,-9.47774e-05,7
-2.76571e-05,1.00204e-05,-9.46796e-06,-1.11115e-05,1.27863e-05,-1.01587e-05,1.8251e-05,-8.13256e-05,7
-2.87305e-05,1.00097e-05,-9.17758e-06,-8.4737e-06,1.46025e-05,-1.0798e-05,2.15891e-05,-5.52426e-05,7
-2.96124e-05,9.5022e-06,-1.04983e-05,-7.60152e-06,1.44078e-05,-9.47624e-06,2.32552e-05,-3.22735e-05,7
-2.92063e-05,9.5899e-06,-1.26599e-05,-5.15919e-06,1.25319e-05,-6.94768e-06,2.24821e-05,-1.81719e-05,7
-2.87013e-05,1.08819e-05,-1.35613e-05,6.07008e-06,1.15999e-05,-4.80862e-06,1.95263e-05,-9.00245e-06,7
-2.8409e-05,1.22601e-05,-1.27169e-05,3.48147e-05,1.19815e-05,-4.4495e-06,1.7782e-05,4.48131e-07,7
-2.79752e-05,1.24839e-05,-1.15589e-05,7.25884e-05,1.06947e-05,-5.76803e-06,2.01416e-05,1.22008e-05,7
-2.7356e-05,1.1981e-05,-1.1056e-05,9.5819e-05,7.54588e-06,-7.41293e-06,2.61657e-05,2.59103e-05,7
-2.7072e-05,1.20055e-05,-1.08038e-05,9.19043e-05,6.59369e-06,-8.4327e-06,3.37347e-05,3.73298e-05,7
-2.62152e-05,1.30829e-05,-9.83367e-06,5.99289e-05,9.21754e-06,-8.81106e-06,3.76797e-05,4.41577e-05,7
-2.49512e-05,1.41645e-05,-7.86896e-06,7.19739e-06,1.19271e-05,-8.57547e-06,3.38904e-05,4.88899e-05,7
-2.32689e-05,1.40536e-05,-6.5611e-06,-5.33046e-05,1.08756e-05,-7.3552e-06,2.58627e-05,4.89765e-05,7
-2.16821e-05,1.36963e-05,-4.89007e-06,-0.000109753,6.89143e-06,-6.83396e-06,1.9542e-05,4.59464e-05,7
-2.16262e-05,1.23686e-05,-1.88059e-06,-0.000127752,6.1287e-06,-8.49765e-06,1.86674e-05,5.17724e-05,7
-2.24349e-05,9.9814e-06,7.56663e-08,-9.99881e-05,8.73959e-06,-1.16739e-05,1.75712e-05,6.34128e-05,7
-2.20353e-05,9.32504e-06,2.46931e-06,-6.66846e-05,1.0388e-05,-1.32026e-05,1.20649e-05,6.62755e-05,7
-1.93651e-05,1.03834e-05,5.32097e-06,-4.55181e-05,1.05814e-05,-1.26157e-05,5.73006e-06,5.86338e-05,7
-1.69191e-05,1.15241e-05,5.92562e-06,-3.31404e-05,1.02307e-05,-1.32758e-05,1.83943e-06,4.48168e-05,7
-1.60972e-05,1.11979e-05,5.83594e-06,-1.83594e-05,9.40124e-06,-1.50791e-05,3.57405e-06,2.89673e-05,7
-1.62586e-05,1.189e-05,6.10581e-06,-5.40327e-07,8.30132e-06,-1.50252e-05,6.27305e-06,1.5367e-05,7
-1.68403e-05,1.38605e-05,6.40334e-06,1.87001e-05,7.09276e-06,-1.35601e-05,8.42804e-06,7.5117e-06,7
-1.89862e-05,1.52592e-05,6.83345e-06,3.38164e-05,5.7681e-06,-1.25401e-05,1.13977e-05,4.25344e-06,7
-2.16747e-05,1.45936e-05,7.14568e-06,3.76181e-05,5.36663e-06,-1.27596e-05,1.60923e-05,9.54462e-07,7
-2.33129e-05,1.20656e-05,7.05023e-06,3.15867e-05,6.44198e-06,-1.39403e-05,2.17329e-05,-3.71672e-06,7
-2.37018e-05,1.02211e-05,5.66846e-06,2.12179e-05,7.62979e-06,-1.53549e-05,2.66325e-05,-6.4382e-06,7
-2.34087e-05,1.00599e-05,2.7765e-06,1.3086e-05,7.16644e-06,-1.65701e-05,3.03413e-05,-3.5569e-06,7
-2.42728e-05,1.07916e-05,-5.01698e-07,7.30155e-06,5.58517e-06,-1.64166e-05,3.08067e-05,1.28407e-06,7
-2.62717e-05,1.15317e-05,-3.72575e-06,3.21777e-06,4.48397e-06,-1.47989e-05,2.52305e-05,2.66838e-06,7
-2.73584e-05,1.25119e-05,-6.30886e-06,9.77195e-07,4.7496e-06,-1.23141e-05,1.40094e-05,4.55125e-08,7
-2.65934e-05,1.27044e-05,-7.82647e-06,3.44392e-06,6.19286e-06,-1.03403e-05,3.12185e-06,-3.78367e-06,7
-2.5268e-05,1.25104e-05,-7.96e-06,6.11504e-06,8.28925e-06,-1.02023e-05,-1.94329e-06,-7.71422e-06,7
-2.43242e-05,1.21858e-05,-7.32429e-06,6.63562e-06,9.84279e-06,-9.77076e-06,-2.79019e-07,-1.04526e-05,7
-2.41985e-05,1.19353e-05,-7.84999e-06,6.50106e-06,1.07116e-05,-6.98115e-06,4.06971e-06,-1.16147e-05,7
-2.43883e-05,1.17207e-05,-1.02217e-05,6.95882e-06,1.19617e-05,-3.93445e-06,9.02525e-06,-1.26342e-05,7
-2.47964e-05,1.08308e-05,-1.29551e-05,4.39118e-06,1.28973e-05,-3.28397e-06,1.31811e-05,-1.33966e-05,7
-2.58235e-05,9.5349e-06,-1.50617e-05,-2.26167e-06,1.268e-05,-4.58576e-06,1.62053e-05,-1.41575e-05,7
-2.7516e-05,8.85998e-06,-1.59756e-05,-9.18668e-06,1.20397e-05,-6.83607e-06,1.85503e-05,-1.38972e-05,7
-2.78339e-05,9.49152e-06,-1.45549e-05,-1.0937e-05,1.22024e-05,-9.26253e-06,1.9689e-05,-9.41927e-06,7
-2.5504e-05,1.0965e-05,-1.06202e-05,-8.04931e-06,1.33325e-05,-9.81323e-06,2.04926e-05,-1.77897e-06,7
-2.34104e-05,1.29512e-05,-5.3915e-06,-5.6889e-06,1.36462e-05,-8.84928e-06,2.03561e-05,4.26233e-06,7
-2.37918e-05,1.48183e-05,-2.60213e-06,-4.61741e-06,1.3815e-05,-9.68659e-06,1.62898e-05,1.04509e-05,7
-2.64252e-05,1.52358e-05,-2.65904e-06,-4.25745e-06,1.40152e-05,-1.0325e-05,1.02466e-05,2.38773e-05,7
