ch1,ch2,ch3,ch4,ch5,ch6,ch7,ch8,class
-2.22584e-05,1.64641e-05,-6.61388e-06,-1.62352e-06,1.78887e-05,-1.00341e-05,1.31647e-05,1.25321e-05,7
-2.34608e-05,1.52534e-05,-7.24509e-06,-7.4684e-06,2.02625e-05,-1.15064e-05,1.11426e-05,-4.5851e-05,7
-2.52776e-05,1.46172e-05,-9.48983e-06,-1.31724e-05,1.87665e-05,-1.12559e-05,8.65785e-06,-9.47071e-05,7
-2.57839e-05,1.46856e-05,-1.11768e-05,-1.37368e-05,1.61173e-05,-9.58163e-06,6.38597e-06,-0.000117326,7
-2.62592e-05,1.54334e-05,-9.1592e-06,-7.23536e-06,1.6081e-05,-7.55521e-06,6.4581e-06,-0.000116153,7
-2.70223e-05,1.53077e-05,-6.89484e-06,-3.30307e-06,1.59998e-05,-5.46217e-06,7.65975e-06,-0.000103635,7
-2.66169e-05,1.38511e-05,-5.22919e-06,-8.6199e-06,1.30015e-05,-4.1783e-06,8.34072e-06,-8.60398e-05,7
-2.68361e-05,1.2902e-05,-1.68525e-06,-1.50677e-05,1.00204e-05,-5.25793e-06,7.3503e-06,-6.32401e-05,7
-2.9433e-05,1.20452e-05,-9.05639e-09,-1.63378e-05,9.22683e-06,-7.36514e-06,3.59511e-06,-4.10264e-05,7
-3.15312e-05,1.12664e-05,-2.63071e-06,-1.61836e-05,9.63884e-06,-9.66693e-06,-2.48684e-06,-2.31462e-05,7
-3.12307e-05,1.16032e-05,-5.48363e-06,-1.40328e-05,1.01052e-05,-1.25201e-05,-5.39266e-06,-8.49334e-06,7
-3.04479e-05,1.33789e-05,-5.7403e-06,-7.40599e-06,1.1276e-05,-1.43019e-05,-3.3148e-06,1.21748e-06,7
-3.11361e-05,1.35865e-05,-5.81072e-06,-1.22798e-06,1.23831e-05,-1.3114e-05,6.20762e-07,4.16948e-06,7
-3.26698e-05,1.17258e-05,-7.11e-06,1.65279e-06,1.15603e-05,-9.84955e-06,2.97369e-06,3.09417e-06,7
-3.36234e-05,1.04743e-05,-9.62661e-06,1.41186e-06,9.85468e-06,-8.08551e-06,3.81356e-06,4.0897e-06,7
-3.36784e-05,1.07897e-05,-1.19946e-05,4.96779e-07,9.58757e-06,-8.56346e-06,6.07029e-06,1.5881e-05,7
-3.1785e-05,1.09384e-05,-1.30326e-05,7.17261e-07,1.09663e-05,-9.5101e-06,1.12589e-05,3.53565e-05,7
-2.99639e-05,1.00419e-05,-1.24379e-05,1.39805e-06,1.28357e-05,-9.50606e-06,1.72131e-05,4.91544e-05,7
-2.96824e-05,9.66727e-06,-1.19592e-05,1.56539e-06,1.43726e-05,-8.8965e-06,2.23824e-05,4.97479e-05,7
-3.07428e-05,9.92885e-06,-1.18463e-05,1.44069e-06,1.4894e-05,-8.31293e-06,2.75704e-05,3.90715e-05,7
-3.19816e-05,1.03132e-05,-1.03199e-05,1.06063e-06,1.44782e-05,-7.46447e-06,3.3025e-05,2.73744e-05,7
-3.20744e-05,9.9719e-06,-8.04757e-06,-2.36528e-06,1.40255e-05,-7.36136e-06,3.94419e-05,2.45356e-05,7
-3.11597e-05,9.72717e-06,-4.74835e-06,-8.03014e-06,1.30641e-05,-7.96484e-06,4.38497e-05,3.37992e-05,7
-3.05386e-05,1.10754e-05,6.07335e-08,-1.28059e-05,1.2181e-05,-7.93147e-06,4.10044e-05,4.92814e-05,7
-3.15523e-05,1.26406e-05,3.91847e-06,-1.50802e-05,1.34091e-05,-7.22781e-06,2.86039e-05,6.42415e-05,7
-3.24765e-05,1.28529e-05,3.58355e-06,-1.37491e-05,1.68212e-05,-7.09565e-06,1.39557e-05,7.32899e-05,7
-3.17609e-05,1.2608e-05,1.27119e-06,-8.60396e-06,2.02192e-05,-7.45674e-06,5.57667e-06,7.73794e-05,7
-3.07056e-05,1.22107e-05,1.0408e-06,-3.50747e-06,2.08285e-05,-7.89933e-06,3.9196e-06,8.90136e-05,7
-3.06276e-05,1.04282e-05,2.63885e-06,-4.09633e-06,1.94184e-05,-8.9197e-06,4.33629e-06,0.000109934,7
-3.09467e-05,8.20351e-06,3.74813e-06,-1.14123e-05,1.86301e-05,-9.5319e-06,4.22199e-06,0.000116295,7
-3.08443e-05,8.26189e-06,2.43583e-06,-2.11179e-05,1.82071e-05,-8.34224e-06,3.17622e-06,9.92059e-05,7
-3.09862e-05,9.90402e-06,-1.3476e-06,-2.76529e-05,1.71858e-05,-7.08457e-06,2.88013e-06,6.55536e-05,7
-3.19954e-05,1.02032e-05,-4.77621e-06,-2.78941e-05,1.57318e-05,-7.61483e-06,4.91845e-06,2.17084e-05,7
-3.27987e-05,1.01057e-05,-6.74431e-06,-2.31316e-05,1.42767e-05,-7.8088e-06,8.84818e-06,-2.6629e-05,7
-3.21842e-05,1.13925e-05,-6.60238e-06,-1.35546e-05,1.2119e-05,-7.12329e-06,1.08967e-05,-6.7223e-05,7
-2.98019e-05,1.29565e-05,-4.69579e-06,1.20252e-06,1.01416e-05,-7.90113e-06,7.41106e-06,-9.45025e-05,7
-2.82335e-05,1.33752e-05,-3.76007e-06,1.5598e-05,1.0335e-05,-9.3684e-06,3.96696e-06,-0.000109625,7
-2.89532e-05,1.36413e-05,-3.12748e-06,2.51208e-05,1.18536e-05,-9.35106e-06,6.0624e-06,-8.68965e-05,7
-3.16228e-05,1.36109e-05,-2.31419e-06,3.13137e-05,1.30007e-05,-8.73629e-06,1.31691e-05,-2.44825e-05,7
-3.32733e-05,1.18382e-05,-2.61927e-06,3.60222e-05,1.28557e-05,-9.60762e-06,1.79527e-05,4.2757e-05,7
-3.21023e-05,1.01865e-05,-2.89805e-06,3.72435e-05,1.27283e-05,-1.14861e-05,1.38595e-05,8.6194e-05,7
-3.05647e-05,9.60922e-06,-4.35373e-06,2.98007e-05,1.46252e-05,-1.20032e-05,4.26982e-06,0.000104391,7
-3.05628e-05,9.77298e-06,-8.25546e-06,9.73844e-06,1.68748e-05,-1.2166e-05,-2.51629e-06,9.91243e-05,7
-3.1632e-05,9.46143e-06,-1.09734e-05,-1.35905e-05,1.73574e-05,-1.24634e-05,-2.10139e-06,6.06003e-05,7
-3.13037e-05,9.86551e-06,-9.95993e-06,-3.03513e-05,1.58223e-05,-1.18983e-05,1.52873e-06,-1.58225e-05,7
-2.91856e-05,1.14501e-05,-7.34981e-06,-3.83176e-05,1.25025e-05,-1.07491e-05,3.78186e-06,-0.00011661,7
-2.67423e-05,1.24499e-05,-7.32556e-06,-3.77781e-05,9.41499e-06,-8.7519e-06,5.32213e-06,-0.000211608,7
-2.54428e-05,1.21043e-05,-9.76608e-06,-3.56481e-05,8.42152e-06,-6.34342e-06,8.38979e-06,-0.000265485,7
-2.58565e-05,1.14798e-05,-1.16441e-05,-3.85155e-05,8.3523e-06,-4.27779e-06,1.33573e-05,-0.00025395,7
-2.84981e-05,1.2963e-05,-1.12954e-05,-4.61495e-05,7.54524e-06,-3.23664e-06,1.80769e-05,-0.000188468,7
-3.14994e-05,1.50555e-05,-9.97335e-06,-5.14404e-05,7.70196e-06,-3.90926e-06,2.09038e-05,-0.000112647,7
-3.25533e-05,1.53218e-05,-8.18255e-06,-4.92294e-05,9.8302e-06,-6.35676e-06,1.99711e-05,-6.09008e-05,7
-3.143e-05,1.46574e-05,-6.05875e-06,-4.08057e-05,1.20261e-05,-8.8557e-06,1.46115e-05,-2.77625e-05,7
-2.98143e-05,1.50014e-05,-3.55187e-06,-3.02037e-05,1.24426e-05,-1.06781e-05,6.56086e-06,7.44439e-07,7
-2.86422e-05,1.52489e-05,-1.5617e-06,-2.0221e-05,1.11783e-05,-1.24637e-05,-7.36834e-07,2.38084e-05,7
-2.79565e-05,1.53181e-05,-2.03396e-06,-1.11085e-05,1.00353e-05,-1.28334e-05,-4.30525e-06,3.79466e-05,7
-2.84527e-05,1.53484e-05,-2.21987e-06,-2.04364e-06,9.86325e-06,-1.15806e-05,-3.87454e-06,5.03578e-05,7
-2.96165e-05,1.50758e-05,-1.59996e-06,9.60402e-06,1.04717e-05,-1.09023e-05,1.52231e-07,6.05612e-05,7
-3.00858e-05,1.5288e-05,-2.52787e-06,2.32554e-05,1.09438e-05,-1.05898e-05,6.06832e-06,6.27251e-05,7
-2.98632e-05,1.54108e-05,-4.89596e-06,3.02817e-05,1.05903e-05,-1.02605e-05,1.09476e-05,5.77616e-05,7
-2.92044e-05,1.40798e-05,-7.08822e-06,2.96351e-05,1.08296e-05,-1.02248e-05,1.50447e-05,5.15578e-05,7
-2.75896e-05,1.30132e-05,-7.85244e-06,2.73281e-05,1.07166e-05,-9.72e-06,2.22445e-05,5.6559e-05,7
-2.64741e-05,1.26449e-05,-6.8782e-06,2.55913e-05,1.03429e-05,-8.2082e-06,3.0172e-05,6.63321e-05,7
-2.68152e-05,1.23168e-05,-6.38178e-06,2.29685e-05,1.14433e-05,-7.02194e-06,3.28807e-05,6.06626e-05,7
-2.7581e-05,1.20137e-05,-8.41738e-06,1.75415e-05,1.26618e-05,-6.88231e-06,2.79799e-05,3.83182e-05,7
-2.79146e-05,1.18813e-05,-1.20056e-05,1.08991e-05,1.29653e-05,-7.76985e-06,1.96534e-05,9.67188e-06,7
-2.82717e-05,1.11025e-05,-1.39182e-05,6.97751e-06,1.34222e-05,-9.08936e-06,1.40077e-05,-1.21582e-05,7
-2.84741e-05,1.04406e-05,-1.19841e-05,8.1695e-06,1.38528e-05,-9.89763e-06,1.27824e-05,-1.86512e-05,7
-2.88245e-05,1.12604e-05,-9.46442e-06,1.1758e-05,1.16751e-05,-1.0585e-05,1.48449e-05,-1.31304e-05,7
-2.87008e-05,1.22738e-05,-8.71361e-06,1.41783e-05,8.11135e-06,-1.17261e-05,1.41743e-05,-4.99056e-06,7
-2.7973e-05,1.38634e-05,-9.09318e-06,1.24954e-05,7.10806e-06,-1.38738e-05,6.91635e-06,-6.14573e-07,7
-2.83666e-05,1.48285e-05,-9.87882e-06,7.42745e-06,9.64177e-06,-1.50198e-05,-1.8567e-06,2.82205e-06,7
-2.93381e-05,1.48203e-05,-1.05815e-05,1.36192e-06,1.25757e-05,-1.41177e-05,-5.75592e-06,8.77912e-06,7
-2.91479e-05,1.50628e-05,-9.44681e-06,-3.70185e-06,1.3403e-05,-1.18669e-05,-4.35071e-06,1.66447e-05,7
-2.79167e-05,1.73113e-05,-5.99817e-06,-6.33341e-06,1.26804e-05,-9.50519e-06,-8.40637e-08,2.47917e-05,7
-2.76367e-05,1.92214e-05,-1.61607e-06,-5.25602e-06,1.24317e-05,-8.1635e-06,5.064e-06,3.14982e-05,7
-2.90297e-05,1.77557e-05,1.12161e-06,-6.66966e-07,1.28555e-05,-9.45553e-06,1.03035e-05,3.37972e-05,7
-3.0845e-05,1.44866e-05,-7.6116e-07,3.74928e-06,1.31334e-05,-1.31035e-05,1.45039e-05,3.30271e-05,7
-3.16985e-05,1.25336e-05,-7.13214e-06,4.69786e-06,1.33516e-05,-1.52756e-05,1.71012e-05,3.05958e-05,7
-3.1015e-05,1.2577e-05,-1.42032e-05,1.70536e-06,1.34868e-05,-1.31742e-05,1.71799e-05,2.52595e-05,7
-2.83812e-05,1.36873e-05,-1.85037e-05,-1.59035e-06,1.25703e-05,-9.49941e-06,1.38407e-05,1.72169e-05,7
-2.60834e-05,1.4332e-05,-2.00759e-05,-6.65149e-07,9.18835e-06,-7.82609e-06,9.45776e-06,1.02166e-05,7
-2.61631e-05,1.28764e-05,-1.86506e-05,4.85152e-06,4.88579e-06,-7.42062e-06,6.65251e-06,5.66721e-06,7
-2.74014e-05,1.05546e-05,-1.48726e-05,1.18715e-05,2.54797e-06,-8.46965e-06,5.59207e-06,6.44702e-06,7
-2.87822e-05,9.03446e-06,-1.09938e-05,1.72817e-05,4.37061e-06,-1.04013e-05,5.78302e-06,1.34034e-05,7
-3.03965e-05,9.46766e-06,-7.98137e-06,2.04582e-05,1.0062e-05,-1.17993e-05,8.51364e-06,1.81025e-05,7
-3.14143e-05,1.05384e-05,-4.68997e-06,2.16914e-05,1.66429e-05,-1.18623e-05,1.21762e-05,1.63718e-05,7
-3.08235e-05,1.2248e-05,-1.90927e-06,1.94361e-05,2.20432e-05,-9.61096e-06,1.15296e-05,1.10884e-05,7
-2.9311e-05,1.19357e-05,-2.02358e-06,7.79827e-06,2.40419e-05,-8.13597e-06,6.5032e-06,4.59821e-06,7
-2.8883e-05,9.40342e-06,-4.9837e-06,-1.13049e-05,2.42953e-05,-8.58228e-06,4.12335e-06,-3.25078e-06,7
-3.03713e-05,9.48077e-06,-9.16301e-06,-2.55388e-05,2.52433e-05,-8.28038e-06,7.88295e-06,-1.02716e-05,7
-3.10487e-05,1.25257e-05,-1.1276e-05,-2.89028e-05,2.52229e-05,-7.97806e-06,1.4721e-05,-1.40711e-05,7
-3.07785e-05,1.6465e-05,-8.41721e-06,-2.47287e-05,2.30452e-05,-7.64958e-06,2.01508e-05,-1.86713e-05,7
-3.00939e-05,1.81767e-05,-4.21259e-06,-2.18669e-05,1.7903e-05,-6.46824e-06,2.14005e-05,-2.23547e-05,7
-2.91129e-05,1.82763e-05,-2.83376e-06,-2.05219e-05,1.08334e-05,-4.96362e-06,2.20558e-05,-1.91694e-05,7
-2.84101e-05,1.65528e-05,-5.7095e-06,-1.74601e-05,3.36368e-06,-5.29036e-06,2.53986e-05,-9.54558e-06,7
-2.8063e-05,1.34248e-05,-8.99647e-06,-1.09313e-05,-2.55729e-06,-7.96166e-06,2.92167e-05,-6.93869e-07,7
-2.85087e-05,1.13509e-05,-1.00197e-05,-2.14968e-06,-6.06457e-06,-1.03223e-05,2.99022e-05,9.45268e-07,7
-2.87571e-05,1.17311e-05,-1.03821e-05,3.32957e-06,-5.19031e-06,-9.60411e-06,2.734e-05,-1.71847e-06,7
-2.8966e-05,1.19977e-05,-1.0959e-05,4.35055e-06,-5.48531e-07,-7.43266e-06,2.46351e-05,-3.63527e-06,7
-2.89547e-05,1.10172e-05,-1.17283e-05,4.18264e-06,4.31026e-06,-7.56776e-06,2.17583e-05,-6.89439e-07,7
-2.9273e-05,1.16845e-05,-1.15418e-05,4.91789e-06,7.86409e-06,-9.49609e-06,1.61381e-05,1.14743e-05,7
-3.02138e-05,1.43504e-05,-1.2039e-05,4.68537e-06,1.03712e-05,-1.08296e-05,7.65852e-06,3.07138e-05,7
-3.09779e-05,1.64936e-05,-1.2855e-05,3.2149e-06,1.28688e-05,-1.09846e-05,1.00638e-06,4.35807e-05,7
-3.1171e-05,1.56437e-05,-1.23782e-05,8.60674e-07,1.43101e-05,-1.05416e-05,-5.55114e-07,4.23057e-05,7
-3.11489e-05,1.39494e-05,-9.22106e-06,-2.76456e-06,1.44038e-05,-1.0429e-05,3.24173e-06,3.05504e-05,7
-3.16043e-05,1.29413e-05,-5.49237e-06,-9.29939e-06,1.37614e-05,-1.12906e-05,9.91956e-06,1.50291e-05,7
-3.29283e-05,1.28702e-05,-3.58177e-06,-1.72356e-05,1.3544e-05,-1.23054e-05,1.61446e-05,-1.59537e-07,7
-3.5571e-05,1.3501e-05,-4.02035e-06,-2.29481e-05,1.33361e-05,-1.35287e-05,2.15342e-05,-1.34616e-05,7
-3.82377e-05,1.37139e-05,-6.91318e-06,-2.40223e-05,1.29594e-05,-1.4465e-05,2.41822e-05,-2.20637e-05,7
-3.91776e-05,1.19403e-05,-1.05589e-05,-2.09605e-05,1.41849e-05,-1.51562e-05,2.1521e-05,-2.47889e-05,7
-3.93433e-05,1.0724e-05,-1.06653e-05,-1.37196e-05,1.86471e-05,-1.66995e-05,1.61086e-05,-2.33758e-05,7
-3.91566e-05,1.16593e-05,-8.44832e-06,-4.41912e-06,2.41641e-05,-1.70032e-05,1.24902e-05,-1.72052e-05,7
-3.81765e-05,1.15228e-05,-9.83214e-06,-2.06072e-06,2.44903e-05,-1.4683e-05,9.38525e-06,2.44357e-06,7
-3.70841e-05,8.43659e-06,-1.46633e-05,-9.43945e-06,1.52783e-05,-1.14956e-05,4.81829e-06,3.53797e-05,7
-3.58803e-05,8.00361e-06,-1.84011e-05,-1.49134e-05,4.12103e-06,-9.5643e-06,5.96508e-06,5.49905e-05,7
-3.45503e-05,1.16085e-05,-1.64178e-05,-1.5819e-05,-3.89447e-07,-9.10803e-06,1.51179e-05,5.15369e-05,7
-3.1798e-05,1.5765e-05,-8.38059e-06,-1.83659e-05,2.85147e-06,-6.35747e-06,2.51045e-05,3.99052e-05,7
-2.75405e-05,1.93226e-05,2.41904e-06,-1.67886e-05,1.58256e-05,-2.91029e-06,3.17034e-05,2.72627e-05,7
-2.57536e-05,1.90283e-05,9.78145e-06,-1.23927e-05,3.04954e-05,-3.21019e-06,3.4254e-05,1.42417e-05,7
-2.69667e-05,1.54189e-05,9.93898e-06,-1.31786e-05,3.54922e-05,-7.04049e-06,3.29899e-05,-5.17144e-06,7
-2.79595e-05,1.2312e-05,5.19634e-06,-1.90869e-05,3.15238e-05,-1.05829e-05,2.8303e-05,-3.53874e-05,7
-2.87146e-05,1.17883e-05,8.01896e-07,-2.3029e-05,2.69526e-05,-1.16976e-05,2.36947e-05,-7.28816e-05,7
-2.90401e-05,1.28339e-05,-1.06934e-06,-2.19445e-05,2.54195e-05,-1.12959e-05,2.23586e-05,-9.66339e-05,7
-2.87875e-05,1.38255e-05,-2.22063e-06,-1.68173e-05,2.48884e-05,-1.08687e-05,2.33457e-05,-8.77386e-05,7
-2.84279e-05,1.30873e-05,-3.84308e-06,-9.05402e-06,2.37154e-05,-1.12739e-05,2.15252e-05,-4.65747e-05,7
-2.86161e-05,1.14968e-05,-4.27094e-06,-3.06278e-06,2.00413e-05,-1.16287e-05,1.73665e-05,9.24122e-06,7
-2.84261e-05,1.02904e-05,-1.39323e-06,-6.06691e-07,1.38623e-05,-1.1565e-05,1.30881e-05,5.55639e-05,7
-2.79563e-05,1.03682e-05,3.15898e-06,8.92918e-07,8.11838e-06,-1.08969e-05,5.52077e-06,8.16977e-05,7
-2.80659e-05,1.13524e-05,6.36545e-06,4.79539e-06,6.53527e-06,-1.0324e-05,-7.268e-06,8.71333e-05,7
-2.91019e-05,1.21302e-05,6.09733e-06,8.51997e-06,8.66716e-06,-9.71609e-06,-2.09611e-05,6.68534e-05,7
-3.16054e-05,1.29716e-05,1.03831e-06,8.098e-06,1.04323e-05,-8.5743e-06,-2.84279e-05,1.07908e-05,7
-3.39893e-05,1.441e-05,-6.25516e-06,5.89079e-06,1.0295e-05,-7.04952e-06,-2.61089e-05,-7.36997e-05,7
-3.44816e-05,1.61785e-05,-9.84076e-06,8.41674e-06,1.06774e-05,-6.18799e-06,-1.61241e-05,-0.000152797,7
-3.3182e-05,1.72436e-05,-9.22207e-06,1.43541e-05,1.25783e-05,-5.60325e-06,-5.62847e-06,-0.000187959,7
-3.20218e-05,1.70546e-05,-8.60764e-06,1.80942e-05,1.42364e-05,-5.84978e-06,2.34916e-06,-0.000163718,7
-3.13166e-05,1.56336e-05,-8.10211e-06,2.12344e-05,1.38741e-05,-7.6263e-06,9.37084e-06,-9.33046e-05,7
-3.11258e-05,1.39732e-05,-6.903e-06,2.61448e-05,1.2597e-05,-9.0867e-06,1.76529e-05,-1.8668e-05,7
-3.2369e-05,1.33407e-05,-6.40098e-06,2.81749e-05,1.22584e-05,-8.50927e-06,2.30293e-05,2.62355e-05,7
-3.47204e-05,1.41681e-05,-8.12065e-06,2.21027e-05,1.22896e-05,-6.56225e-06,2.14541e-05,4.59452e-05,7
-3.47739e-05,1.49409e-05,-1.12868e-05,9.83118e-06,1.28189e-05,-5.93386e-06,1.926e-05,5.14208e-05,7
-3.31863e-05,1.35732e-05,-1.05913e-05,-4.93365e-06,1.4376e-05,-6.26237e-06,1.98834e-05,3.76257e-05,7
-3.19181e-05,1.15593e-05,-7.15513e-06,-1.77137e-05,1.76804e-05,-7.22722e-06,1.99159e-05,5.19086e-06,7
-3.12347e-05,1.19955e-05,-6.39167e-06,-2.60275e-05,2.09326e-05,-8.64423e-06,1.9345e-05,-3.89792e-05,7
-3.17314e-05,1.31273e-05,-6.77478e-06,-2.78226e-05,2.14083e-05,-7.8695e-06,1.73605e-05,-8.19423e-05,7
-3.1596e-05,1.3258e-05,-6.44094e-06,-2.1646e-05,2.04265e-05,-6.95324e-06,1.09625e-05,-0.000100905,7
-3.10742e-05,1.32603e-05,-5.35098e-06,-1.34629e-05,2.26481e-05,-6.70697e-06,4.13253e-06,-8.95043e-05,7
-3.06664e-05,1.30487e-05,-3.92656e-06,-7.86863e-06,2.69289e-05,-6.04743e-06,2.38359e-06,-5.56104e-05,7
-2.92918e-05,1.20874e-05,-2.26328e-06,-4.33854e-06,2.90544e-05,-6.19171e-06,5.86516e-06,-1.6509e-05,7
-2.76911e-05,1.11359e-05,-1.53452e-06,-4.7571e-07,3.03721e-05,-7.26001e-06,1.10208e-05,1.52564e-05,7
-2.59824e-05,1.09231e-05,-3.82486e-06,3.47288e-06,3.0163e-05,-9.13984e-06,1.59004e-05,3.75425e-05,7
-2.57359e-05,1.07299e-05,-8.49489e-06,6.80268e-06,2.67407e-05,-1.07854e-05,2.0939e-05,5.00579e-05,7
-2.77158e-05,1.02467e-05,-1.17648e-05,8.75961e-06,2.08274e-05,-1.08634e-05,2.36626e-05,5.5995e-05,7
-2.95476e-05,9.67164e-06,-1.15058e-05,8.89173e-06,1.69986e-05,-9.67782e-06,2.15091e-05,5.74262e-05,7
-2.9738e-05,9.32927e-06,-8.27719e-06,8.1028e-06,1.63039e-05,-9.15766e-06,1.43374e-05,5.08375e-05,7
-2.88368e-05,9.23486e-06,-3.85949e-06,5.71504e-06,1.60568e-05,-9.34259e-06,7.80518e-06,3.36619e-05,7
-2.84883e-05,9.65278e-06,-1.50291e-06,3.94809e-08,1.53342e-05,-8.96805e-06,6.3622e-06,1.16952e-05,7
-2.83614e-05,1.08687e-05,-3.08231e-06,-8.26856e-06,1.42765e-05,-7.16671e-06,7.82793e-06,-8.54549e-06,7
-2.87239e-05,1.16207e-05,-7.53302e-06,-1.16815e-05,1.40556e-05,-5.60614e-06,1.04005e-05,-2.11946e-05,7
-3.06064e-05,1.03012e-05,-1.20683e-05,-1.86441e-07,1.41323e-05,-6.21463e-06,1.45919e-05,-2.19056e-05,7
-3.46183e-05,7.56736e-06,-1.37112e-05,2.666e-05,1.3469e-05,-8.91629e-06,1.90081e-05,-8.75321e-06,7
-3.86628e-05,5.77388e-06,-1.24889e-05,4.9345e-05,1.16012e-05,-1.21424e-05,1.92066e-05,1.27052e-05,7
-3.99888e-05,5.29636e-06,-1.11095e-05,5.05813e-05,1.01581e-05,-1.42473e-05,1.49276e-05,3.25728e-05,7
-3.77383e-05,6.00767e-06,-9.56348e-06,3.15771e-05,8.89069e-06,-1.39389e-05,1.13093e-05,4.63298e-05,7
-3.36348e-05,9.14254e-06,-6.90729e-06,5.02737e-08,8.05891e-06,-1.20758e-05,1.21484e-05,5.90196e-05,7
-3.04871e-05,1.28626e-05,-2.48967e-06,-3.78707e-05,9.20676e-06,-1.09032e-05,1.66508e-05,6.94122e-05,7
-2.92585e-05,1.45994e-05,9.20983e-07,-7.76526e-05,1.1081e-05,-1.02431e-05,2.23479e-05,6.78794e-05,7
-2.99072e-05,1.56474e-05,1.82022e-06,-0.000103314,1.2864e-05,-9.49168e-06,2.54458e-05,5.91106e-05,7
-3.17962e-05,1.65675e-05,1.32315e-06,-9.29726e-05,1.68285e-05,-7.82075e-06,2.70724e-05,4.82481e-05,7
-3.306e-05,1.70514e-05,-6.56651e-07,-5.61125e-05,2.12513e-05,-7.07672e-06,3.00884e-05,3.18746e-05,7
-3.20253e-05,1.71584e-05,-3.73829e-06,-2.16236e-05,2.35978e-05,-8.22354e-06,3.11844e-05,1.51704e-05,7
-3.02407e-05,1.64829e-05,-6.08117e-06,-3.06604e-06,2.43952e-05,-1.01492e-05,2.81162e-05,1.09965e-05,7
-2.96726e-05,1.49311e-05,-7.67751e-06,-9.80155e-07,2.21656e-05,-1.24672e-05,2.16328e-05,1.9602e-05,7
-3.12082e-05,1.28592e-05,-1.05077e-05,-5.29899e-06,1.69528e-05,-1.24247e-05,1.2016e-05,2.90748e-05,7
-3.36371e-05,1.11013e-05,-1.52812e-05,-4.63879e-06,1.0193e-05,-1.07898e-05,1.44321e-06,3.08964e-05,7
-3.44758e-05,1.052e-05,-1.80115e-05,4.35789e-06,6.80729e-06,-9.39736e-06,-5.43348e-06,2.01919e-05,7
-3.3204e-05,1.18668e-05,-1.43919e-05,1.34428e-05,7.83351e-06,-8.06245e-06,-6.77541e-06,6.54378e-07,7
-3.12397e-05,1.38353e-05,-8.11554e-06,1.31662e-05,8.92018e-06,-6.99517e-06,-4.77489e-06,-1.89689e-05,7
-2.94949e-05,1.42673e-05,-1.96811e-06,6.88368e-06,8.05481e-06,-7.37346e-06,-6.06025e-07,-3.26486e-05,7
-2.80306e-05,1.3585e-05,1.36279e-06,1.91327e-06,5.67015e-06,-9.59109e-06,4.83153e-06,-3.9969e-05,7
-2.69062e-05,1.31158e-05,1.66064e-07,-3.96351e-07,4.55825e-06,-1.18748e-05,1.01094e-05,-4.29896e-05,7
-2.64907e-05,1.22112e-05,-4.81885e-06,-4.06716e-06,5.08216e-06,-1.37497e-05,1.50177e-05,-4.16317e-05,7
-2.74102e-05,1.06105e-05,-1.13804e-05,-1.16915e-05,5.7349e-06,-1.3715e-05,1.97754e-05,-3.37383e-05,7
-2.87942e-05,1.03195e-05,-1.60186e-05,-2.00935e-05,5.31794e-06,-1.1468e-05,2.34755e-05,-1.695e-05,7
-2.85439e-05,1.27108e-05,-1.58513e-05,-2.18023e-05,5.31343e-06,-9.16282e-06,2.52761e-05,6.38503e-07,7
-2.55593e-05,1.61841e-05,-1.1813e-05,-1.56308e-05,6.85795e-06,-8.15402e-06,2.35843e-05,8.1388e-06,7
-2.16646e-05,1.90533e-05,-7.98334e-06,-8.7709e-06,9.37053e-06,-7.61327e-06,1.73459e-05,5.03981e-06,7
-2.00333e-05,2.04367e-05,-5.93449e-06,-6.31005e-06,1.19984e-05,-6.83474e-06,1.00602e-05,-2.54047e-06,7
-2.18422e-05,1.94678e-05,-5.38239e-06,-8.10076e-06,1.25744e-05,-6.36408e-06,6.43571e-06,-9.6608e-06,7
-2.55441e-05,1.66885e-05,-6.43669e-06,-9.90055e-06,1.11435e-05,-6.84195e-06,8.76469e-06,-1.26065e-05,7
-2.85537e-05,1.34671e-05,-8.40877e-06,-8.99194e-06,1.07518e-05,-8.94131e-06,1.47365e-05,-1.14337e-05,7
-2.89109e-05,1.13949e-05,-7.88399e-06,-6.93359e-06,1.22308e-05,-1.1093e-05,1.95298e-05,-9.40201e-06,7
-2.82375e-05,1.15229e-05,-4.43902e-06,-5.39627e-06,1.313e-05,-1.15723e-05,2.05972e-05,-9.57698e-06,7
-2.86315e-05,1.23739e-05,-6.56321e-07,-2.52126e-06,1.20901e-05,-1.17476e-05,1.80284e-05,-1.12509e-05,7
-2.87601e-05,1.20134e-05,8.16696e-07,6.15983e-07,9.24867e-06,-1.19067e-05,1.31368e-05,-1.1243e-05,7
-2.83823e-05,1.17022e-05,4.43964e-07,5.91524e-07,7.38351e-06,-1.0006e-05,7.63645e-06,-5.8945e-06,7
-2.87482e-05,1.11294e-05,-4.04968e-07,-1.94687e-06,8.04056e-06,-8.43383e-06,4.07652e-06,5.83047e-06,7
-2.98351e-05,1.0007e-05,2.01946e-07,-7.4099e-06,8.97774e-06,-1.02037e-05,4.81128e-06,3.81399e-05,7
-3.01283e-05,9.89019e-06,-7.82206e-07,-1.43996e-05,1.11354e-05,-1.2318e-05,8.0952e-06,8.85449e-05,7
-2.81164e-05,1.0382e-05,-5.59874e-06,-2.03267e-05,1.38608e-05,-1.20421e-05,9.36493e-06,0.000120264,7
-2.46947e-05,1.15187e-05,-1.02481e-05,-2.3119e-05,1.34758e-05,-9.17142e-06,7.96853e-06,0.00012763,7
-2.22396e-05,1.22074e-05,-1.2216e-05,-2.32465e-05,9.9119e-06,-6.14977e-06,7.30628e-06,0.000115733,7
-2.21288e-05,1.16071e-05,-1.1332e-05,-2.23668e-05,5.31285e-06,-5.52476e-06,7.73318e-06,8.22173e-05,7
-2.39135e-05,1.13115e-05,-9.94633e-06,-1.8547e-05,3.03239e-06,-6.73735e-06,8.95957e-06,3.40705e-05,7
-2.5447e-05,1.11708e-05,-8.0638e-06,-1.17163e-05,3.59932e-06,-7.95501e-06,1.19897e-05,-1.28422e-05,7
-2.55819e-05,1.05262e-05,-6.5904e-06,-5.05663e-06,5.63915e-06,-8.58861e-06,1.69703e-05,-4.71744e-05,7
-2.4611e-05,1.03308e-05,-5.63529e-06,-3.03273e-07,7.11619e-06,-7.90571e-06,2.13213e-05,-7.12099e-05,7
-2.3288e-05,1.06312e-05,-5.03479e-06,3.4044e-06,7.79852e-06,-6.73559e-06,2.32857e-05,-8.63387e-05,7
-2.26702e-05,1.11929e-05,-4.10801e-06,7.29914e-06,7.40352e-06,-5.60575e-06,2.31187e-05,-9.5486e-05,7
-2.24538e-05,1.27621e-05,-2.49561e-06,1.12551e-05,6.24834e-06,-3.29834e-06,2.12662e-05,-9.50493e-05,7
-2.24182e-05,1.50141e-05,-2.32174e-06,1.26499e-05,5.8847e-06,-9.21904e-07,1.66758e-05,-7.87582e-05,7
-2.3622e-05,1.49597e-05,-4.70901e-06,1.37487e-05,7.02763e-06,-1.05143e-06,8.98646e-06,-5.01787e-05,7
-2.6013e-05,1.19443e-05,-7.9915e-06,1.95532e-05,9.33089e-06,-3.74721e-06,2.95444e-06,-2.4772e-05,7
-2.81015e-05,9.26239e-06,-8.17817e-06,2.89264e-05,1.16523e-05,-6.15214e-06,1.12378e-06,-1.32739e-05,7
-2.91782e-05,9.02098e-06,-5.61421e-06,3.40515e-05,1.33112e-05,-7.98132e-06,2.88676e-06,-1.41565e-05,7
-2.98819e-05,9.76246e-06,-4.46785e-06,2.82424e-05,1.34457e-05,-9.10389e-06,6.61648e-06,-1.91596e-05,7
-3.08004e-05,9.8318e-06,-4.78397e-06,1.16041e-05,1.30009e-05,-1.00583e-05,1.16428e-05,-2.23986e-05,7
-3.16442e-05,9.56316e-06,-3.2609e-06,-9.8816e-06,1.32147e-05,-1.21524e-05,1.73799e-05,-2.36609e-05,7
-3.2524e-05,9.11445e-06,-3.22632e-06,-2.63573e-05,1.52177e-05,-1.35101e-05,2.22539e-05,-2.34835e-05,7
-3.39951e-05,8.221e-06,-7.79598e-06,-2.91432e-05,1.68321e-05,-1.22894e-05,2.46997e-05,-2.1776e-05,7
-3.50166e-05,6.86309e-06,-1.50695e-05,-2.04349e-05,1.74304e-05,-1.12456e-05,2.51653e-05,-1.58307e-05,7
-3.43889e-05,7.03843e-06,-1.99181e-05,-9.03128e-06,1.83691e-05,-1.06563e-05,2.38487e-05,-6.94581e-06,7
-3.35749e-05,9.54882e-06,-1.86606e-05,4.24273e-06,1.77212e-05,-9.40894e-06,1.89854e-05,6.99328e-06,7
-3.31704e-05,1.28194e-05,-1.43117e-05,1.70544e-05,1.54017e-05,-7.5166e-06,1.20777e-05,2.94063e-05,7
-3.21162e-05,1.64047e-05,-7.88182e-06,2.73748e-05,1.35603e-05,-5.77803e-06,6.11045e-06,4.96557e-05,7
-3.03378e-05,1.82617e-05,-4.04016e-06,3.25996e-05,1.43708e-05,-5.71859e-06,3.56302e-06,5.65744e-05,7
-2.86815e-05,1.77348e-05,-5.40441e-06,2.53888e-05,1.75331e-05,-6.88728e-06,2.81248e-06,5.0642e-05,7
-2.83318e-05,1.68464e-05,-7.96663e-06,9.73e-06,1.94271e-05,-7.2939e-06,2.18206e-06,3.99989e-05,7
-2.9034e-05,1.51844e-05,-1.01475e-05,-6.12155e-06,1.72766e-05,-6.93773e-06,5.42931e-06,3.00336e-05,7
-2.97269e-05,1.34187e-05,-9.94982e-06,-1.38181e-05,1.13188e-05,-7.72522e-06,1.18001e-05,2.25008e-05,7
-3.07374e-05,1.26099e-05,-8.74161e-06,-1.36417e-05,8.5084e-06,-1.00078e-05,1.59834e-05,1.98618e-05,7
-3.25573e-05,1.25199e-05,-7.84497e-06,-1.36778e-05,1.18951e-05,-1.34552e-05,1.45785e-05,1.65381e-05,7
-3.4282e-05,1.23205e-05,-8.56536e-06,-1.73844e-05,1.69414e-05,-1.52441e-05,7.78347e-06,8.31692e-06,7
-3.52652e-05,1.29792e-05,-1.10977e-05,-2.45044e-05,1.94286e-05,-1.4838e-05,-6.12229e-08,-3.35813e-07,7
-3.52558e-05,1.43251e-05,-1.33248e-05,-3.17259e-05,1.81562e-05,-1.43681e-05,-3.47772e-06,-3.55592e-06,7
-3.45153e-05,1.44831e-05,-1.3512e-05,-3.64295e-05,1.52813e-05,-1.44062e-05,-1.62346e-06,-5.45628e-06,7
-3.37576e-05,1.3778e-05,-1.09082e-05,-3.49565e-05,1.39881e-05,-1.49914e-05,2.0358e-06,-1.34952e-05,7
-3.37763e-05,1.32157e-05,-7.31872e-06,-2.57671e-05,1.51907e-05,-1.55944e-05,5.32072e-06,-2.58582e-05,7
-3.43681e-05,1.28613e-05,-5.59328e-06,-1.34037e-05,1.63443e-05,-1.53972e-05,6.84862e-06,-3.5859e-05,7
-3.52139e-05,1.30173e-05,-8.35369e-06,-4.75548e-06,1.64402e-05,-1.42576e-05,7.00851e-06,-3.7401e-05,7
-3.54795e-05,1.40761e-05,-1.24518e-05,8.92816e-07,1.56916e-05,-1.24362e-05,7.8612e-06,-3.03565e-05,7
-3.56452e-05,1.41469e-05,-1.35406e-05,6.18111e-06,1.5039e-05,-1.17214e-05,1.02667e-05,-1.98355e-05,7
-3.69249e-05,1.33741e-05,-1.26432e-05,8.37021e-06,1.5468e-05,-1.21396e-05,1.35338e-05,-1.11939e-05,7
-3.84507e-05,1.2423e-05,-1.26636e-05,4.72481e-06,1.72451e-05,-1.1744e-05,1.90421e-05,-7.07773e-06,7
-3.88912e-05,1.20766e-05,-1.31487e-05,-3.07786e-06,1.83314e-05,-1.08187e-05,2.81653e-05,-8.3546e-06,7
-3.64029e-05,1.31415e-05,-1.23398e-05,-1.09043e-05,1.66313e-05,-1.16255e-05,3.54482e-05,-9.26211e-06,7
-3.26037e-05,1.45359e-05,-8.69779e-06,-1.18496e-05,1.23784e-05,-1.35107e-05,3.39898e-05,9.9692e-07,7
-3.12101e-05,1.50078e-05,-4.73511e-06,-4.03472e-06,8.89123e-06,-1.38662e-05,2.68772e-05,2.16844e-05,7
-3.22684e-05,1.54794e-05,-4.51432e-06,3.88676e-06,8.59604e-06,-1.23441e-05,2.20569e-05,4.16212e-05,7
-3.35928e-05,1.62605e-05,-6.62581e-06,6.53346e-06,1.11562e-05,-1.07852e-05,1.94425e-05,5.94273e-05,7
-3.43782e-05,1.64318e-05,-8.4041e-06,5.10459e-06,1.46881e-05,-1.01777e-05,1.16491e-05,6.84398e-05,7
-3.55523e-05,1.58227e-05,-8.49954e-06,2.42308e-06,1.67076e-05,-9.88672e-06,-4.06576e-06,5.33062e-05,7
-3.62205e-05,1.55028e-05,-6.98214e-06,-1.16278e-06,1.7258e-05,-1.08962e-05,-1.66443e-05,1.75165e-05,7
-3.42248e-05,1.6274e-05,-4.30341e-06,-5.32563e-06,1.7393e-05,-1.18483e-05,-1.69507e-05,-1.30668e-05,7
-3.28469e-05,1.61377e-05,-1.55913e-06,-7.23437e-06,1.85955e-05,-1.03146e-05,-7.26758e-06,-7.02084e-06,7
-3.29027e-05,1.47108e-05,-7.51444e-07,-6.91628e-06,2.02173e-05,-8.54887e-06,6.66855e-06,2.97558e-05,7
-3.31572e-05,1.24985e-05,-1.92074e-06,-6.48043e-06,2.0862e-05,-9.46941e-06,1.63033e-05,7.21919e-05,7
-3.3473e-05,1.05251e-05,-3.53025e-06,-7.35661e-06,2.26245e-05,-1.23631e-05,1.48091e-05,0.000110131,7
-3.23411e-05,9.34991e-06,-5.42325e-06,-9.66533e-06,2.51548e-05,-1.3854e-05,6.46321e-06,0.000140485,7
-3.05883e-05,8.3453e-06,-7.11576e-06,-1.17532e-05,2.47883e-05,-1.20619e-05,1.4049e-06,0.000147931,7
-2.96775e-05,8.21586e-06,-7.47318e-06,-1.13467e-05,2.20061e-05,-1.03808e-05,6.80728e-07,0.000104249,7
-3.01141e-05,8.86847e-06,-6.45642e-06,-8.94175e-06,1.97678e-05,-1.11726e-05,-6.90389e-07,1.43042e-05,7
-3.06711e-05,9.23034e-06,-5.61042e-06,-6.88968e-06,1.91402e-05,-1.16664e-05,-3.35555e-06,-8.13209e-05,7
-3.13557e-05,9.23174e-06,-6.82148e-06,-6.61865e-06,1.9066e-05,-9.76219e-06,-2.94577e-06,-0.000140901,7
-3.23263e-05,9.23258e-06,-9.70918e-06,-7.00009e-06,1.88507e-05,-8.11187e-06,1.94676e-06,-0.000150941,7
-3.27294e-05,9.1746e-06,-1.26823e-05,-6.87171e-06,1.85851e-05,-9.51075e-06,7.58981e-06,-0.000126976,7
-3.22208e-05,9.02326e-06,-1.51285e-05,-6.99731e-06,1.81082e-05,-1.20867e-05,9.50118e-06,-0.000104353,7
-3.16489e-05,8.89784e-06,-1.71235e-05,-7.36238e-06,1.61787e-05,-1.25639e-05,8.23792e-06,-0.000108521,7
-3.16439e-05,8.93515e-06,-1.76457e-05,-8.03527e-06,1.21341e-05,-1.15258e-05,1.08877e-05,-0.000125459,7
-3.23304e-05,9.22752e-06,-1.55917e-05,-8.40578e-06,8.58445e-06,-1.14379e-05,2.04059e-05,-0.000123186,7
-3.21427e-05,1.00434e-05,-1.02935e-05,-8.11736e-06,7.97013e-06,-1.12162e-05,2.93551e-05,-9.46709e-05,7
-2.97939e-05,1.08032e-05,-3.49468e-06,-8.61813e-06,8.49005e-06,-1.07788e-05,3.11433e-05,-5.96957e-05,7
-2.76865e-05,9.65667e-06,-5.35077e-07,-1.35238e-05,7.51962e-06,-1.18892e-05,2.83581e-05,-3.58952e-05,7
-2.70997e-05,7.24365e-06,-3.9939e-06,-2.14874e-05,7.0069e-06,-1.31159e-05,2.67085e-05,-2.2707e-05,7
-2.74807e-05,5.85795e-06,-8.39219e-06,-2.70327e-05,9.13178e-06,-1.34785e-05,2.76094e-05,-5.33001e-06,7
-2.83069e-05,6.48085e-06,-8.70171e-06,-2.71789e-05,1.19967e-05,-1.27956e-05,2.79166e-05,1.48818e-05,7
-2.9238e-05,8.40116e-06,-5.43617e-06,-1.92165e-05,1.25947e-05,-8.87121e-06,2.38539e-05,3.12824e-05,7
-2.88211e-05,9.48301e-06,-1.652e-06,-2.83194e-06,1.18907e-05,-5.20319e-06,1.88899e-05,4.97242e-05,7
-2.61894e-05,1.06071e-05,9.37907e-07,1.42439e-05,1.27101e-05,-5.64498e-06,2.034e-05,7.55153e-05,7
-2.42595e-05,1.20302e-05,3.33129e-06,2.22535e-05,1.64303e-05,-6.24464e-06,2.47373e-05,9.55114e-05,7
-2.23545e-05,1.37969e-05,3.63957e-06,1.99103e-05,2.50447e-05,-5.91162e-06,2.49828e-05,9.62431e-05,7
-2.14302e-05,1.58531e-05,5.51136e-07,1.02189e-05,3.01392e-05,-5.00399e-06,1.95773e-05,9.39008e-05,7
-2.32108e-05,1.5865e-05,-6.35346e-06,-5.6649e-06,2.09463e-05,-3.65527e-06,1.53557e-05,0.000101761,7
-2.59864e-05,1.30201e-05,-1.29905e-05,-2.21831e-05,4.16788e-06,-4.38496e-06,1.68974e-05,0.000103294,7
-2.79381e-05,9.18268e-06,-1.51839e-05,-3.05601e-05,-6.78192e-06,-6.95664e-06,2.16352e-05,8.26614e-05,7
-2.64614e-05,8.0573e-06,-1.32536e-05,-2.70563e-05,-8.48041e-06,-9.03664e-06,2.46279e-05,4.22016e-05,7
-2.34301e-05,9.45756e-06,-9.64179e-06,-1.56775e-05,-7.06369e-06,-8.17825e-06,2.07931e-05,-1.51118e-05,7
-2.05347e-05,1.23877e-05,-6.86273e-06,-4.14041e-06,-6.23364e-06,-5.36471e-06,1.05104e-05,-7.85255e-05,7
-1.98609e-05,1.48263e-05,-5.4863e-06,1.77341e-06,-4.03704e-06,-4.09704e-06,-1.3156e-08,-0.000129249,7
-2.08795e-05,1.53475e-05,-6.28986e-06,3.39922e-06,5.53295e-07,-4.70881e-06,-5.25272e-06,-0.000156163,7
-2.17552e-05,1.54299e-05,-7.42734e-06,6.70179e-06,4.85322e-06,-5.33526e-06,-6.67277e-06,-0.000158232,7
-2.165e-05,1.55799e-05,-8.03641e-06,1.53906e-05,6.8969e-06,-5.8932e-06,-6.94412e-06,-0.000139657,7
-2.08764e-05,1.51354e-05,-8.69459e-06,2.65285e-05,8.25027e-06,-6.9086e-06,-5.42339e-06,-0.000106746,7
-2.11707e-05,1.39994e-05,-9.73327e-06,3.07677e-05,1.08647e-05,-7.83592e-06,-5.68191e-08,-6.96874e-05,7
-2.31081e-05,1.36761e-05,-9.3931e-06,2.61592e-05,1.44493e-05,-8.68069e-06,7.52352e-06,-3.73459e-05,7
-2.63916e-05,1.39145e-05,-7.47871e-06,1.84926e-05,1.6944e-05,-1.02628e-05,1.38921e-05,-8.66424e-06,7
-2.94695e-05,1.38752e-05,-5.62817e-06,1.1274e-05,1.67664e-05,-1.20584e-05,1.7271e-05,2.29509e-05,7
-3.12145e-05,1.3465e-05,-4.74491e-06,4.33715e-06,1.45289e-05,-1.30046e-05,1.93995e-05,5.11226e-05,7
-3.05776e-05,1.27067e-05,-4.377e-06,-2.25422e-06,1.30527e-05,-1.34277e-05,2.16446e-05,6.64447e-05,7
-2.91563e-05,1.18784e-05,-4.87882e-06,-7.29287e-06,1.37363e-05,-1.28337e-05,2.11279e-05,6.80615e-05,7
-2.9061e-05,1.1409e-05,-6.09032e-06,-8.04748e-06,1.42968e-05,-1.20893e-05,1.76283e-05,5.82792e-05,7
-3.02612e-05,1.23935e-05,-5.41267e-06,-4.40162e-06,1.3007e-05,-1.09191e-05,1.60152e-05,3.99697e-05,7
-3.04772e-05,1.52711e-05,-1.62021e-06,-4.55126e-07,1.07747e-05,-7.62879e-06,1.73837e-05,1.94982e-05,7
-3.01674e-05,1.75258e-05,2.90332e-06,1.97975e-06,1.0683e-05,-3.87627e-06,1.82225e-05,3.53412e-06,7
-3.11689e-05,1.69133e-05,1.84372e-06,2.6064e-06,1.29359e-05,-3.63851e-06,1.62168e-05,5.83035e-06,7
-3.2534e-05,1.59124e-05,-2.95678e-06,3.83039e-06,1.52068e-05,-6.59435e-06,1.38591e-05,2.61034e-05,7
-3.37629e-05,1.63802e-05,-4.78382e-06,5.98671e-06,1.50336e-05,-9.14723e-06,1.19683e-05,4.41872e-05,7
-3.44072e-05,1.52916e-05,-1.54423e-06,7.82852e-06,1.37888e-05,-1.16509e-05,1.1438e-05,5.57424e-05,7
-3.54781e-05,1.27001e-05,2.91751e-06,9.01375e-06,1.48614e-05,-1.32684e-05,1.10575e-05,6.24374e-05,7
-3.90283e-05,1.01134e-05,3.82948e-07,3.86771e-06,1.61874e-05,-1.36056e-05,7.37294e-06,5.64959e-05,7
-4.25659e-05,8.70442e-06,-1.13339e-05,-8.82199e-06,1.63567e-05,-1.31907e-05,4.60721e-06,2.52817e-05,7
-4.26258e-05,9.38699e-06,-2.28366e-05,-2.39416e-05,1.42285e-05,-1.15292e-05,4.59637e-06,-2.08664e-05,7
-3.96701e-05,1.14722e-05,-2.30883e-05,-3.19227e-05,1.15279e-05,-7.04067e-06,5.46994e-06,-6.10529e-05,7
-3.6244e-05,1.46551e-05,-1.44032e-05,-2.9829e-05,1.13623e-05,-1.34081e-06,4.80749e-06,-7.92567e-05,7
-3.31584e-05,1.72703e-05,-5.07255e-06,-2.47256e-05,1.43733e-05,1.39272e-06,4.2663e-06,-7.22418e-05,7
-3.14843e-05,1.77006e-05,3.15283e-07,-2.15165e-05,1.76695e-05,1.19218e-06,5.97961e-06,-5.15486e-05,7
-3.15889e-05,1.59527e-05,2.38446e-06,-1.98403e-05,1.78827e-05,-1.10605e-06,9.2086e-06,-2.8166e-05,7
-3.21629e-05,1.41079e-05,3.46531e-06,-1.86785e-05,1.64812e-05,-4.34362e-06,1.10081e-05,-5.61021e-06,7
-3.2233e-05,1.2662e-05,2.85784e-06,-2.00885e-05,1.45633e-05,-6.812e-06,1.04231e-05,1.879e-05,7
-3.17773e-05,1.12435e-05,-1.99789e-07,-2.26253e-05,1.1594e-05,-6.99838e-06,9.1809e-06,4.15464e-05,7
-3.17301e-05,1.08804e-05,-3.69672e-06,-2.17464e-05,8.68588e-06,-6.06163e-06,8.13386e-06,5.85698e-05,7
-3.19607e-05,1.23525e-05,-4.54903e-06,-1.49772e-05,8.05586e-06,-5.90346e-06,9.04628e-06,6.70838e-05,7
-3.14232e-05,1.37133e-05,-3.57886e-06,-7.06387e-06,8.68525e-06,-7.38641e-06,1.26028e-05,7.15481e-05,7
-2.98496e-05,1.31497e-05,-3.27848e-06,-2.37032e-06,9.34473e-06,-9.72825e-06,1.5827e-05,7.47477e-05,7
-2.9961e-05,1.2333e-05,-4.84996e-06,2.42187e-07,9.86087e-06,-1.15307e-05,1.69968e-05,6.74511e-05,7
-3.17144e-05,1.25072e-05,-5.87366e-06,2.4101e-06,1.01134e-05,-1.1771e-05,1.8553e-05,4.078e-05,7
-3.25506e-05,1.25504e-05,-5.48153e-06,3.4785e-06,1.11707e-05,-1.05315e-05,1.98738e-05,3.31233e-06,7
-3.22737e-05,1.29656e-05,-4.85664e-06,3.58855e-06,1.30975e-05,-9.32054e-06,2.09106e-05,-2.90651e-05,7
-3.09854e-05,1.46689e-05,-2.44605e-06,3.77849e-06,1.3395e-05,-9.23848e-06,2.11878e-05,-4.58517e-05,7
-2.91647e-05,1.58958e-05,1.45254e-06,3.77198e-06,1.31497e-05,-1.04194e-05,1.90365e-05,-4.62654e-05,7
-2.83868e-05,1.65336e-05,1.61783e-06,-3.27796e-07,1.3622e-05,-1.30215e-05,1.25675e-05,-2.95715e-05,7
-2.83518e-05,1.60252e-05,-2.99313e-06,-1.04136e-05,1.43657e-05,-1.49396e-05,4.20708e-06,-2.75817e-07,7
-2.83763e-05,1.34613e-05,-8.00581e-06,-1.96084e-05,1.65256e-05,-1.45069e-05,1.62224e-08,2.63605e-05,7
-2.8847e-05,1.0755e-05,-1.14137e-05,-2.24895e-05,1.77347e-05,-1.38021e-05,2.06714e-06,3.63621e-05,7
-3.00458e-05,1.07021e-05,-1.19973e-05,-2.189e-05,1.76289e-05,-1.25957e-05,7.60895e-06,2.36618e-05,7
-3.09023e-05,1.1587e-05,-9.73223e-06,-2.05005e-05,1.77564e-05,-1.12782e-05,1.48086e-05,-3.27067e-06,7
-3.01966e-05,1.1067e-05,-4.57833e-06,-1.8366e-05,1.78964e-05,-9.58914e-06,2.11729e-05,-3.12532e-05,7
-2.79968e-05,1.143e-05,5.1265e-07,-1.72439e-05,1.72649e-05,-8.06896e-06,2.13691e-05,-5.01126e-05,7
-2.6157e-05,1.24712e-05,2.53873e-06,-1.61839e-05,1.62212e-05,-7.84074e-06,1.75252e-05,-5.89678e-05,7
-2.46914e-05,1.23913e-05,2.2259e-06,-1.32484e-05,1.5967e-05,-8.69642e-06,1.60497e-05,-5.83896e-05,7
-2.29794e-05,1.18762e-05,9.36077e-07,-5.57138e-06,1.67921e-05,-1.02418e-05,1.91393e-05,-4.94145e-05,7
-2.28356e-05,1.24273e-05,5.07405e-07,1.56942e-05,1.71876e-05,-1.16236e-05,2.13556e-05,-3.72226e-05,7
-2.37786e-05,1.26228e-05,6.66745e-07,4.801e-05,1.58124e-05,-1.29075e-05,1.96097e-05,-2.69205e-05,7
-2.5125e-05,1.12522e-05,-6.70196e-07,7.08949e-05,1.39742e-05,-1.31931e-05,1.59581e-05,-1.80453e-05,7
-2.68801e-05,9.48438e-06,-3.99605e-06,6.8805e-05,1.18129e-05,-1.24862e-05,1.2885e-05,-5.69743e-06,7
-2.81307e-05,9.14073e-06,-7.77233e-06,4.32968e-05,1.01174e-05,-1.16406e-05,1.12409e-05,1.17536e-05,7
-2.84283e-05,1.05431e-05,-1.13113e-05,6.01135e-06,9.09851e-06,-1.10231e-05,9.53584e-06,2.81803e-05,7
-2.81662e-05,1.18871e-05,-1.2652e-05,-3.53852e-05,8.71746e-06,-9.99682e-06,7.89721e-06,4.03728e-05,7
-2.68064e-05,1.24638e-05,-9.95656e-06,-7.44964e-05,8.92605e-06,-9.14973e-06,7.73719e-06,5.30044e-05,7
-2.48312e-05,1.32428e-05,-5.60154e-06,-9.76937e-05,9.3711e-06,-9.23956e-06,9.87441e-06,6.86271e-05,7
-2.42053e-05,1.34444e-05,-2.65899e-06,-9.2359e-05,9.68521e-06,-1.03878e-05,1.22111e-05,8.14002e-05,7
-2.58489e-05,1.17705e-05,-1.87937e-06,-6.49248e-05,9.94912e-06,-1.165e-05,1.13793e-05,7.96462e-05,7
-2.82959e-05,1.04461e-05,-4.39382e-06,-3.43366e-05,1.06143e-05,-1.21738e-05,6.37205e-06,6.13536e-05,7
-2.9135e-05,1.04105e-05,-8.7482e-06,-9.10708e-06,1.12401e-05,-1.28916e-05,2.22337e-06,3.4772e-05,7
-2.94048e-05,1.18331e-05,-1.13246e-05,1.20953e-05,1.38982e-05,-1.3304e-05,2.4482e-06,7.48466e-06,7
-3.0618e-05,1.3167e-05,-1.18579e-05,2.82716e-05,1.76155e-05,-1.35154e-05,3.89598e-06,-1.51764e-05,7
-3.12449e-05,1.24413e-05,-1.25562e-05,3.90327e-05,1.92793e-05,-1.33617e-05,5.02565e-06,-3.38387e-05,7
-3.05156e-05,1.10094e-05,-1.49661e-05,4.60194e-05,1.95935e-05,-1.19502e-05,8.07732e-06,-5.20565e-05,7
-2.9484e-05,1.21438e-05,-1.64453e-05,4.8194e-05,1.88857e-05,-9.74378e-06,1.02663e-05,-6.28512e-05,7
-2.81806e-05,1.46562e-05,-1.37531e-05,4.3162e-05,1.64399e-05,-6.55238e-06,7.37483e-06,-5.96651e-05,7
-2.73565e-05,1.52398e-05,-8.63034e-06,3.10335e-05,1.2949e-05,-3.40038e-06,1.9628e-07,-4.50866e-05,7
-2.846e-05,1.44479e-05,-6.34192e-06,1.89577e-05,9.72112e-06,-2.97678e-06,-6.23879e-06,-2.79484e-05,7
-3.04304e-05,1.34376e-05,-8.52812e-06,1.18377e-05,8.4165e-06,-5.20285e-06,-6.25446e-06,-1.46367e-05,7
-3.14673e-05,1.28415e-05,-1.08498e-05,8.2522e-06,9.29048e-06,-7.15224e-06,-4.08713e-07,-2.24434e-06,7
-3.0813e-05,1.28416e-05,-1.12002e-05,4.88425e-06,1.1135e-05,-8.45657e-06,7.01678e-06,8.2166e-06,7
-3.01372e-05,1.46971e-05,-1.147e-05,6.64362e-07,1.16804e-05,-8.8733e-06,1.26181e-05,1.2552e-05,7
-3.06195e-05,1.66849e-05,-1.17603e-05,-2.26055e-06,1.04529e-05,-8.09765e-06,1.5263e-05,1.11132e-05,7
-3.08919e-05,1.66699e-05,-1.14972e-05,-2.86963e-06,9.3536e-06,-8.53747e-06,1.55671e-05,9.4092e-06,7
-3.05411e-05,1.53726e-05,-1.08118e-05,-2.40438e-06,1.03019e-05,-9.46835e-06,1.62013e-05,9.92964e-06,7
-3.08379e-05,1.42089e-05,-1.08836e-05,-4.64626e-06,1.25731e-05,-1.01356e-05,1.67141e-05,1.00882e-05,7
-3.20993e-05,1.37781e-05,-1.18856e-05,-1.05641e-05,1.44779e-05,-1.06226e-05,1.54711e-05,7.97019e-06,7
-3.38303e-05,1.40116e-05,-1.25338e-05,-1.64343e-05,1.55444e-05,-1.14214e-05,1.15472e-05,5.12852e-06,7
-3.51768e-05,1.42515e-05,-1.13208e-05,-1.83345e-05,1.56758e-05,-1.29673e-05,5.57736e-06,7.99006e-06,7
-3.53115e-05,1.35041e-05,-8.6267e-06,-1.62561e-05,1.53815e-05,-1.40883e-05,2.66201e-06,1.92013e-05,7
-3.52958e-05,1.25405e-05,-6.09252e-06,-1.24128e-05,1.5843e-05,-1.35532e-05,8.80895e-06,3.11771e-05,7
-3.59261e-05,1.22745e-05,-4.04196e-06,-7.2594e-06,1.71803e-05,-1.21738e-05,2.37179e-05,3.5048e-05,7
-3.66544e-05,1.25906e-05,-2.02751e-06,-2.38823e-06,1.78798e-05,-1.12676e-05,3.91567e-05,2.99274e-05,7
-3.65929e-05,1.29921e-05,-1.52414e-06,-9.13778e-07,1.75928e-05,-1.03863e-05,4.81157e-05,1.82202e-05,7
-3.4819e-05,1.30539e-05,-4.73358e-06,-4.21598e-06,1.63588e-05,-9.34548e-06,4.89302e-05,1.38225e-05,7
-3.12537e-05,1.32442e-05,-8.72564e-06,-6.53504e-06,1.47893e-05,-7.90731e-06,4.45067e-05,3.57996e-05,7
-2.93433e-05,1.36919e-05,-9.74675e-06,-8.97944e-07,1.39988e-05,-7.54888e-06,3.51369e-05,6.54056e-05,7
-3.06718e-05,1.30886e-05,-9.95893e-06,6.8536e-06,1.47033e-05,-1.00403e-05,1.61453e-05,7.19544e-05,7
-3.35299e-05,1.21711e-05,-1.19964e-05,1.07843e-05,1.65876e-05,-1.37548e-05,-1.05179e-05,6.40106e-05,7
-3.58407e-05,1.21677e-05,-1.20168e-05,1.32443e-05,1.96185e-05,-1.54177e-05,-3.18196e-05,5.31858e-05,7
-3.70807e-05,1.2591e-05,-7.8435e-06,1.3853e-05,2.2723e-05,-1.45043e-05,-3.31514e-05,3.19308e-05,7
-3.64834e-05,1.35129e-05,-2.63606e-06,1.05313e-05,2.37398e-05,-1.24998e-05,-1.82168e-05,4.14384e-06,7
-3.35422e-05,1.61942e-05,9.58445e-07,7.60229e-06,2.16896e-05,-1.04792e-05,-5.44205e-06,-1.73265e-05,7
-3.09518e-05,1.82591e-05,3.75831e-06,1.08206e-05,1.91947e-05,-9.05616e-06,-8.81672e-07,-3.59922e-05,7
-2.92938e-05,1.73933e-05,5.58968e-06,1.7684e-05,1.93223e-05,-1.06366e-05,6.27778e-07,-5.88002e-05,7
-2.95755e-05,1.4596e-05,3.98735e-06,2.40791e-05,2.06572e-05,-1.3789e-05,1.79924e-06,-8.77364e-05,7
-3.06122e-05,1.14904e-05,-5.22882e-07,2.86379e-05,2.2382e-05,-1.50972e-05,6.09935e-07,-0.000117132,7
-3.07733e-05,9.28816e-06,-3.59288e-06,3.32436e-05,2.35084e-05,-1.5373e-05,-1.41767e-06,-0.000134615,7
-3.09131e-05,7.62484e-06,-3.39347e-06,3.48916e-05,2.14904e-05,-1.53559e-05,-3.95214e-06,-0.000127547,7
-3.13318e-05,6.48348e-06,-2.26939e-06,2.90209e-05,1.74833e-05,-1.49875e-05,-5.70279e-06,-9.6841e-05,7
-3.1576e-05,6.45015e-06,-2.86727e-06,1.28546e-05,1.3723e-05,-1.41574e-05,-3.54372e-06,-5.90786e-05,7
-3.1939e-05,7.40572e-06,-6.7568e-06,-1.85002e-05,1.0692e-05,-1.34158e-05,2.0765e-06,-2.85098e-05,7
-3.33382e-05,7.87376e-06,-1.25686e-05,-6.15032e-05,6.99857e-06,-1.32664e-05,9.3017e-06,-1.31351e-05,7
-3.48769e-05,7.61572e-06,-1.61458e-05,-9.97125e-05,3.68356e-06,-1.34711e-05,1.65904e-05,-1.02473e-05,7
-3.54648e-05,7.3515e-06,-1.50733e-05,-0.000112935,4.78196e-06,-1.33604e-05,2.4311e-05,-1.19542e-05,7
-3.43946e-05,7.78253e-06,-1.16087e-05,-9.95413e-05,1.10923e-05,-1.10307e-05,2.99684e-05,-9.80961e-06,7
-3.19872e-05,9.5507e-06,-7.85881e-06,-7.73484e-05,1.72877e-05,-5.53128e-06,3.20285e-05,-2.39844e-06,7
-2.90906e-05,1.33239e-05,-3.71159e-06,-6.06443e-05,1.84337e-05,1.02954e-06,3.12721e-05,6.62547e-06,7
-2.64106e-05,1.68531e-05,1.30614e-06,-4.92062e-05,1.62452e-05,5.14226e-06,2.88715e-05,1.30215e-05,7
-2.44437e-05,1.79929e-05,4.20676e-06,-4.04521e-05,1.41717e-05,5.01928e-06,2.50765e-05,1.68574e-05,7
-2.49241e-05,1.65763e-05,9.26105e-08,-3.54421e-05,1.33184e-05,1.51862e-06,2.1984e-05,1.98462e-05,7
-2.75861e-05,1.31816e-05,-8.97852e-06,-3.31639e-05,1.24399e-05,-2.62542e-06,1.96553e-05,2.30328e-05,7
-2.91149e-05,1.15436e-05,-1.44298e-05,-2.80824e-05,1.28053e-05,-4.62922e-06,1.69568e-05,2.70122e-05,7
-2.85112e-05,1.3012e-05,-1.41253e-05,-1.82198e-05,1.5039e-05,-3.3997e-06,1.64454e-05,3.09656e-05,7
-2.77737e-05,1.31892e-05,-1.18657e-05,-6.09352e-06,1.73015e-05,-2.19079e-06,2.03082e-05,3.55535e-05,7
-2.80056e-05,1.03436e-05,-9.26959e-06,6.79686e-06,1.90872e-05,-3.65562e-06,2.80963e-05,4.37409e-05,7
-2.89414e-05,7.47075e-06,-8.15363e-06,1.76909e-05,1.87337e-05,-5.07085e-06,3.7814e-05,5.2376e-05,7
-2.9393e-05,7.01422e-06,-1.04652e-05,2.64974e-05,1.72902e-05,-4.48304e-06,4.5843e-05,5.10881e-05,7
-2.8697e-05,8.56134e-06,-1.33751e-05,3.27923e-05,1.75465e-05,-2.39597e-06,4.6486e-05,4.02563e-05,7
-2.81847e-05,1.0078e-05,-1.431e-05,3.67128e-05,1.69187e-05,-1.56602e-06,3.78633e-05,2.75271e-05,7
-2.9323e-05,1.01777e-05,-1.50799e-05,3.96526e-05,1.54746e-05,-1.28239e-06,2.58353e-05,1.58041e-05,7
-3.18369e-05,8.69871e-06,-1.55729e-05,4.01997e-05,1.57267e-05,-2.97888e-06,1.18321e-05,5.66909e-06,7
-3.4061e-05,8.69133e-06,-1.314e-05,3.78172e-05,1.95855e-05,-8.19026e-06,-3.41057e-06,-2.50897e-06,7
-3.44153e-05,1.04653e-05,-8.74439e-06,3.334e-05,2.50183e-05,-1.24015e-05,-1.16187e-05,-8.2343e-06,7
-3.30585e-05,1.29676e-05,-6.57384e-06,2.72723e-05,2.48691e-05,-1.29797e-05,-9.8079e-06,-1.07251e-05,7
-3.15686e-05,1.36423e-05,-7.37744e-06,1.84366e-05,1.90075e-05,-1.01775e-05,-4.26222e-06,-1.23549e-05,7
-3.08446e-05,1.0593e-05,-9.67631e-06,7.5812e-06,1.2286e-05,-7.26111e-06,1.80052e-06,-1.29453e-05,7
-3.01241e-05,7.44977e-06,-1.15499e-05,-3.09584e-06,7.5882e-06,-7.06965e-06,8.33899e-06,-1.12678e-05,7
-2.84493e-05,6.87262e-06,-1.22596e-05,-1.07688e-05,5.36511e-06,-9.13361e-06,1.33505e-05,-7.73495e-06,7
-2.69842e-05,7.8383e-06,-1.14945e-05,-1.36282e-05,5.55383e-06,-1.10343e-05,1.62009e-05,-3.49066e-06,7
-2.70103e-05,9.03996e-06,-9.29253e-06,-1.3107e-05,7.22842e-06,-1.20093e-05,1.56773e-05,1.27054e-06,7
-2.79493e-05,9.67483e-06,-6.283e-06,-1.02084e-05,7.64385e-06,-1.19779e-05,1.32789e-05,5.07898e-06,7
-2.86619e-05,9.62363e-06,-3.87161e-06,-4.98626e-06,4.91372e-06,-1.06495e-05,1.17184e-05,8.09414e-06,7
-2.89024e-05,1.02373e-05,-3.64167e-06,1.2606e-06,1.62808e-06,-9.28771e-06,1.25556e-05,1.4232e-05,7
-2.78224e-05,1.17749e-05,-4.70974e-06,4.36078e-06,2.05966e-06,-8.31209e-06,1.41142e-05,2.44469e-05,7
-2.63331e-05,1.35663e-05,-5.15559e-06,2.8893e-06,6.22316e-06,-7.81329e-06,1.46351e-05,3.36393e-05,7
-2.66315e-05,1.43469e-05,-4.46142e-06,-1.18138e-06,1.03605e-05,-7.80014e-06,1.40662e-05,3.63159e-05,7
-2.87426e-05,1.34205e-05,-4.10263e-06,-5.14499e-06,1.1559e-05,-7.77136e-06,1.23867e-05,4.00432e-05,7
-2.96874e-05,1.1642e-05,-4.20527e-06,-5.72166e-06,1.13935e-05,-7.74571e-06,8.38376e-06,6.16046e-05,7
-2.84899e-05,1.14371e-05,-3.62145e-06,-3.38911e-06,1.20437e-05,-8.24531e-06,3.94313e-06,9.23106e-05,7
-2.74632e-05,1.28071e-05,-2.69935e-06,-4.86066e-06,1.23337e-05,-9.21026e-06,2.87092e-06,0.00010346,7
-2.66812e-05,1.32804e-05,-3.52014e-06,-1.06092e-05,1.12344e-05,-9.2835e-06,3.72393e-06,9.28238e-05,7
-2.56009e-05,1.2565e-05,-5.30931e-06,-1.31448e-05,8.44906e-06,-9.55699e-06,6.16442e-06,8.45008e-05,7
-2.33611e-05,1.17104e-05,-4.5332e-06,-1.06746e-05,5.6606e-06,-1.04733e-05,1.08608e-05,8.91151e-05,7
-2.2156e-05,1.36686e-05,-1.19393e-06,-9.20301e-06,4.2074e-06,-1.14725e-05,1.65113e-05,7.88904e-05,7
-2.23214e-05,1.76353e-05,7.65696e-07,-9.42247e-06,3.49322e-06,-1.28576e-05,2.14236e-05,4.35262e-05,7
-2.33034e-05,1.70867e-05,4.57008e-07,-9.34409e-06,5.20813e-06,-1.38545e-05,2.46756e-05,-4.54738e-06,7
-2.64346e-05,1.29269e-05,-1.30338e-06,-1.26286e-05,7.53151e-06,-1.43018e-05,2.66787e-05,-6.05295e-05,7
-2.76273e-05,9.53499e-06,-4.95364e-06,-1.6733e-05,8.4006e-06,-1.43648e-05,2.65222e-05,-0.00010842,7
-2.65257e-05,9.8157e-06,-9.53263e-06,-1.79681e-05,8.92651e-06,-1.38859e-05,2.48078e-05,-0.000134202,7
-2.52895e-05,1.24198e-05,-1.17653e-05,-1.7368e-05,1.02496e-05,-1.38569e-05,2.2387e-05,-0.000138448,7
-2.45876e-05,1.47201e-05,-9.79666e-06,-1.76046e-05,1.24532e-05,-1.2341e-05,1.81849e-05,-0.000132796,7
-2.4515e-05,1.58241e-05,-6.30975e-06,-1.80363e-05,1.21527e-05,-7.97358e-06,1.21656e-05,-0.000120002,7
-2.49633e-05,1.54164e-05,-3.69789e-06,-1.55254e-05,8.559e-06,-4.21522e-06,8.62647e-06,-9.82271e-05,7
-2.5024e-05,1.53262e-05,-2.14783e-06,-9.78948e-06,5.01214e-06,-4.46033e-06,1.28485e-05,-7.30088e-05,7
-2.4483e-05,1.49095e-05,-1.24931e-06,-3.19778e-06,4.97369e-06,-8.07219e-06,2.01033e-05,-5.15314e-05,7
-2.43515e-05,1.43218e-05,-1.6959e-06,1.9719e-06,9.15381e-06,-1.14372e-05,2.29259e-05,-3.49271e-05,7
-2.52525e-05,1.36317e-05,-3.64943e-06,5.57704e-06,1.35274e-05,-1.35065e-05,1.88667e-05,-2.2861e-05,7
-2.72856e-05,1.21595e-05,-6.42177e-06,6.38592e-06,1.57547e-05,-1.38459e-05,1.1394e-05,-1.58996e-05,7
-2.91155e-05,9.79788e-06,-8.28171e-06,3.34665e-06,1.70569e-05,-1.26372e-05,3.25914e-06,-1.02576e-05,7
-3.00042e-05,8.5744e-06,-7.26966e-06,-1.15608e-06,1.77299e-05,-1.08341e-05,-5.50419e-06,-2.75447e-06,7
-2.97692e-05,8.95808e-06,-5.21368e-06,-4.06915e-06,1.75437e-05,-9.37632e-06,-1.44472e-05,6.66111e-06,7
-2.94329e-05,9.95787e-06,-5.52463e-06,-5.33007e-06,1.65266e-05,-8.77712e-06,-2.03006e-05,1.96195e-05,7
-2.91324e-05,1.01166e-05,-7.41226e-06,-4.64592e-06,1.57189e-05,-8.83745e-06,-1.88146e-05,4.12714e-05,7
-2.9688e-05,8.97205e-06,-7.27842e-06,-2.55132e-06,1.44536e-05,-9.11453e-06,-9.02601e-06,6.62489e-05,7
-3.13436e-05,8.42422e-06,-5.82822e-06,-6.43793e-07,1.06438e-05,-1.08799e-05,4.6954e-06,8.34254e-05,7
-3.35004e-05,9.35442e-06,-6.18545e-06,-1.61687e-06,4.80845e-06,-1.4176e-05,1.26443e-05,9.15314e-05,7
-3.48376e-05,1.09323e-05,-8.58778e-06,-6.60614e-06,1.8936e-06,-1.60929e-05,1.25e-05,0.000104426,7
-3.38328e-05,1.18126e-05,-1.08567e-05,-1.10477e-05,8.43414e-06,-1.54076e-05,1.0014e-05,0.00012884,7
-3.20423e-05,1.15289e-05,-1.15258e-05,-1.16768e-05,2.37165e-05,-1.45551e-05,9.29682e-06,0.000135289,7
-3.1024e-05,1.11707e-05,-1.08803e-05,-1.09104e-05,3.45392e-05,-1.47893e-05,1.06653e-05,9.54325e-05,7
-3.09148e-05,1.23993e-05,-9.40328e-06,-1.28209e-05,3.24646e-05,-1.29808e-05,1.45266e-05,3.12296e-05,7
-3.11541e-05,1.32678e-05,-8.30187e-06,-1.59821e-05,2.50654e-05,-1.13524e-05,1.886e-05,-6.93528e-06,7
-3.09806e-05,1.28512e-05,-5.41595e-06,-1.50228e-05,1.98921e-05,-1.11218e-05,2.10301e-05,-5.74555e-06,7
-3.09764e-05,1.21084e-05,-8.1424e-07,-1.25192e-05,1.90409e-05,-1.10266e-05,2.27319e-05,-9.57962e-06,7
-3.03756e-05,1.09257e-05,4.68861e-08,-1.14589e-05,2.14483e-05,-1.1376e-05,2.29614e-05,-5.75048e-05,7
-3.03904e-05,9.48555e-06,-2.54594e-06,-8.50001e-06,2.41113e-05,-1.17097e-05,2.29365e-05,-0.000140344,7
-3.10505e-05,8.68306e-06,-5.81976e-06,-3.44007e-06,2.51318e-05,-1.2113e-05,2.39461e-05,-0.000210633,7
-3.07938e-05,8.8746e-06,-7.00204e-06,1.78139e-06,2.53595e-05,-1.20159e-05,2.18833e-05,-0.000227101,7
-2.99564e-05,9.37624e-06,-6.78446e-06,4.02719e-06,2.48627e-05,-1.28199e-05,1.6946e-05,-0.000178181,7
-2.89473e-05,9.39083e-06,-8.41678e-06,8.51989e-07,2.27253e-05,-1.41776e-05,1.06911e-05,-9.49145e-05,7
-2.88867e-05,9.73176e-06,-1.02957e-05,-3.65092e-06,1.8492e-05,-1.57714e-05,6.58023e-06,-2.74719e-05,7
-2.92888e-05,1.10852e-05,-1.02652e-05,-6.53035e-06,1.32669e-05,-1.63626e-05,8.16018e-06,1.13371e-05,7
-2.92305e-05,1.27471e-05,-8.78955e-06,-1.21616e-05,8.83456e-06,-1.6432e-05,1.58809e-05,3.20565e-05,7
-2.91654e-05,1.37669e-05,-6.90928e-06,-1.96528e-05,5.21149e-06,-1.6127e-05,2.43572e-05,3.89799e-05,7
-2.97158e-05,1.4357e-05,-5.29545e-06,-2.30824e-05,1.7997e-06,-1.42619e-05,2.69453e-05,3.21367e-05,7
-3.04807e-05,1.54752e-05,-6.20104e-06,-2.0047e-05,-5.86799e-07,-1.06753e-05,2.25119e-05,1.82455e-05,7
-3.08314e-05,1.59597e-05,-9.59703e-06,-1.34299e-05,-3.55693e-07,-6.49962e-06,1.40732e-05,3.67425e-06,7
-2.98026e-05,1.67407e-05,-1.17651e-05,-6.29921e-06,1.11573e-06,-4.525e-06,7.93828e-06,-7.70122e-06,7
-2.82867e-05,1.95732e-05,-1.06266e-05,8.00941e-08,2.16095e-06,-5.07835e-06,7.33178e-06,-1.61162e-05,7
-2.79439e-05,2.22785e-05,-7.98021e-06,4.41351e-06,1.76442e-06,-6.16105e-06,9.76712e-06,-2.08729e-05,7
-2.92566e-05,2.13332e-05,-5.9029e-06,7.68989e-06,1.38089e-06,-6.0165e-06,1.04981e-05,-1.90064e-05,7
-3.12311e-05,1.85853e-05,-6.27293e-06,1.19338e-05,2.573e-06,-6.78516e-06,1.02528e-05,-1.06742e-05,7
-3.30446e-05,1.82407e-05,-9.08374e-06,1.68264e-05,5.15115e-06,-7.98746e-06,1.2288e-05,1.11104e-06,7
-3.41693e-05,1.85527e-05,-1.14256e-05,1.82784e-05,8.4751e-06,-7.82744e-06,1.64012e-05,1.5617e-05,7
-3.36166e-05,1.7607e-05,-1.1404e-05,1.58267e-05,1.20464e-05,-8.1318e-06,1.71834e-05,3.71023e-05,7
-3.30995e-05,1.63448e-05,-8.2391e-06,1.05774e-05,1.3931e-05,-9.96587e-06,1.29604e-05,6.36266e-05,7
-3.36321e-05,1.54862e-05,-2.55043e-06,5.05335e-06,1.33389e-05,-1.16495e-05,7.22796e-06,7.81272e-05,7
-3.20268e-05,1.49951e-05,3.91296e-06,2.90388e-06,1.29205e-05,-1.15757e-05,1.90232e-06,7.21443e-05,7
-2.96278e-05,1.56841e-05,5.82336e-06,1.63279e-06,1.27977e-05,-9.67971e-06,2.22434e-09,5.65819e-05,7
-2.77438e-05,1.7002e-05,1.6076e-06,-1.36908e-06,1.31079e-05,-7.87523e-06,3.22162e-06,4.11365e-05,7
-2.74338e-05,1.66488e-05,-3.25162e-06,-5.07847e-06,1.26168e-05,-6.44208e-06,8.67417e-06,2.61728e-05,7
-2.92688e-05,1.56604e-05,-5.35144e-06,-8.19005e-06,1.14916e-05,-7.1134e-06,1.49964e-05,6.45001e-06,7
-3.11029e-05,1.47487e-05,-5.16336e-06,-8.68521e-06,1.11347e-05,-9.81718e-06,2.4361e-05,-1.7735e-05,7
-3.24925e-05,1.34084e-05,-5.12694e-06,-6.23431e-06,1.25295e-05,-1.21832e-05,3.42542e-05,-4.09637e-05,7
-3.3208e-05,1.27679e-05,-5.94013e-06,-3.654e-06,1.80027e-05,-1.15594e-05,3.95843e-05,-5.68154e-05,7
