ch1,ch2,ch3,ch4,ch5,ch6,ch7,ch8,class
-2.84687e-05,9.61935e-06,-1.72557e-07,-1.52486e-05,1.7612e-05,-9.03278e-06,1.77541e-05,2.15364e-05,7
-2.759e-05,9.84095e-06,-2.37781e-06,-1.91114e-05,1.69815e-05,-8.86801e-06,1.70057e-05,2.22642e-05,7
-2.8961e-05,1.13564e-05,-6.0954e-06,-2.22953e-05,1.63864e-05,-8.73952e-06,1.46694e-05,2.45746e-05,7
-3.03274e-05,1.33421e-05,-9.23603e-06,-2.12476e-05,1.65661e-05,-7.14786e-06,1.17979e-05,3.23992e-05,7
-3.04768e-05,1.57316e-05,-8.32303e-06,-1.54305e-05,1.7343e-05,-4.70454e-06,1.13871e-05,4.175e-05,7
-2.99788e-05,1.83079e-05,-3.16086e-06,-8.08183e-06,1.70706e-05,-3.6716e-06,1.40896e-05,4.60367e-05,7
-3.03487e-05,1.92361e-05,1.10789e-06,-5.67564e-06,1.25287e-05,-4.43303e-06,1.74806e-05,4.28265e-05,7
-3.2716e-05,1.78049e-05,2.40054e-06,-1.20525e-05,4.44322e-06,-5.57626e-06,2.02221e-05,3.53188e-05,7
-3.56055e-05,1.52142e-05,1.39142e-06,-2.15424e-05,-3.04627e-06,-6.75179e-06,2.36472e-05,2.74819e-05,7
-3.63227e-05,1.39045e-05,1.34865e-07,-2.44739e-05,-6.00943e-06,-7.33468e-06,2.85513e-05,2.35074e-05,7
-3.47139e-05,1.42125e-05,2.98888e-07,-2.03822e-05,-6.80739e-07,-6.35216e-06,3.24987e-05,2.19314e-05,7
-3.29184e-05,1.46922e-05,2.15661e-07,-1.57963e-05,1.34538e-05,-5.31114e-06,3.1446e-05,1.27801e-05,7
-3.32646e-05,1.49176e-05,-2.07307e-06,-1.39393e-05,2.70908e-05,-5.78294e-06,2.72341e-05,-7.9203e-06,7
-3.62394e-05,1.48115e-05,-4.44366e-06,-1.33144e-05,2.96459e-05,-6.96403e-06,2.36818e-05,-3.08892e-05,7
-3.90765e-05,1.41117e-05,-4.93357e-06,-1.12384e-05,2.26081e-05,-8.55496e-06,1.9515e-05,-4.55971e-05,7
-3.96293e-05,1.27951e-05,-5.93904e-06,-7.1105e-06,1.41312e-05,-1.08715e-05,1.18732e-05,-5.02252e-05,7
-3.85623e-05,1.05584e-05,-9.34204e-06,-1.57876e-06,8.96959e-06,-1.37385e-05,1.72095e-06,-4.64624e-05,7
-3.83974e-05,8.33695e-06,-1.28175e-05,4.74823e-06,7.45765e-06,-1.54391e-05,-4.85115e-06,-3.30249e-05,7
-3.89675e-05,6.89528e-06,-1.4189e-05,1.16283e-05,8.28549e-06,-1.44458e-05,-3.94725e-06,-1.30593e-05,7
-3.74371e-05,6.71752e-06,-1.34402e-05,1.66199e-05,1.08563e-05,-1.32312e-05,6.79526e-07,4.48723e-06,7
-3.38123e-05,8.37755e-06,-1.09257e-05,1.55621e-05,1.48397e-05,-1.40991e-05,5.94765e-06,1.34256e-05,7
-3.16234e-05,9.76395e-06,-7.92586e-06,9.86371e-06,1.65462e-05,-1.46691e-05,1.09765e-05,9.56156e-06,7
-3.2072e-05,1.00898e-05,-3.4367e-06,5.82066e-06,1.54463e-05,-1.36501e-05,1.51765e-05,-5.71578e-06,7
-3.33982e-05,1.08974e-05,1.17395e-06,6.15307e-06,1.47314e-05,-1.26078e-05,1.86729e-05,-2.22489e-05,7
-3.33768e-05,1.26725e-05,1.9051e-07,4.49945e-06,1.24818e-05,-1.16806e-05,1.69989e-05,-2.75912e-05,7
-3.22518e-05,1.37222e-05,-4.89911e-06,-8.56193e-07,9.07161e-06,-9.34433e-06,1.03043e-05,-2.31324e-05,7
-3.18696e-05,1.31967e-05,-8.80931e-06,-5.61254e-06,6.35026e-06,-7.01073e-06,5.91125e-06,-1.89388e-05,7
-3.06744e-05,1.08452e-05,-1.04951e-05,-8.12589e-06,3.89675e-06,-6.17079e-06,7.86743e-06,-1.48371e-05,7
-2.87132e-05,9.22718e-06,-1.09364e-05,-9.57816e-06,3.75308e-06,-6.00442e-06,1.41614e-05,-1.02095e-05,7
-2.77333e-05,9.95194e-06,-1.05316e-05,-1.15337e-05,5.44359e-06,-6.18151e-06,1.94577e-05,-6.02434e-06,7
-2.85733e-05,1.12626e-05,-1.05628e-05,-1.15363e-05,7.18273e-06,-6.33697e-06,2.24009e-05,-5.66308e-06,7
-3.08654e-05,1.17921e-05,-1.23248e-05,-1.025e-05,9.03974e-06,-6.27701e-06,2.38331e-05,-1.26161e-05,7
-3.26289e-05,1.21548e-05,-1.38411e-05,-1.00166e-05,1.14674e-05,-6.04428e-06,2.3346e-05,-2.35554e-05,7
-3.24053e-05,1.38012e-05,-1.18112e-05,-9.72642e-06,1.47608e-05,-6.8517e-06,1.86938e-05,-3.20768e-05,7
-3.12027e-05,1.55539e-05,-6.3819e-06,-6.54834e-06,1.88171e-05,-6.34919e-06,1.05298e-05,-3.38271e-05,7
-2.9989e-05,1.72157e-05,-1.01135e-06,-2.54522e-06,2.18721e-05,-4.84497e-06,4.45545e-06,-2.95253e-05,7
-2.8827e-05,1.8133e-05,1.46416e-06,-2.97124e-07,2.21939e-05,-5.19125e-06,4.80534e-06,-2.24891e-05,7
-2.84889e-05,1.71548e-05,9.33943e-07,1.17771e-06,1.99229e-05,-7.86685e-06,1.04583e-05,-1.46096e-05,7
-3.00633e-05,1.43305e-05,-3.66678e-07,2.51341e-06,1.73515e-05,-1.1463e-05,1.61328e-05,-3.57918e-06,7
-3.23601e-05,1.15202e-05,-2.31512e-06,6.69638e-06,1.57518e-05,-1.45633e-05,1.78522e-05,1.09795e-05,7
-3.24402e-05,1.04756e-05,-4.22194e-06,2.08347e-05,1.44082e-05,-1.60208e-05,1.51746e-05,2.81236e-05,7
-3.13204e-05,1.17904e-05,-4.11885e-06,4.20643e-05,1.27522e-05,-1.5015e-05,1.1017e-05,4.09573e-05,7
-3.20814e-05,1.48835e-05,-3.09003e-06,5.48939e-05,1.08234e-05,-1.38179e-05,8.19802e-06,4.26251e-05,7
-3.42702e-05,1.65536e-05,-2.49125e-06,4.74458e-05,8.65974e-06,-1.25267e-05,6.54393e-06,3.90886e-05,7
-3.46541e-05,1.56706e-05,-2.91866e-06,1.96809e-05,5.26565e-06,-9.01415e-06,5.16739e-06,3.49509e-05,7
-3.42954e-05,1.38211e-05,-5.00704e-06,-2.29899e-05,2.45971e-06,-5.07433e-06,4.0254e-06,2.67367e-05,7
-3.55377e-05,1.31225e-05,-7.89242e-06,-7.33911e-05,3.44785e-06,-4.69975e-06,3.14159e-07,1.02658e-05,7
-3.64708e-05,1.30885e-05,-1.0129e-05,-0.000116757,1.1706e-05,-7.46188e-06,-9.46972e-06,-2.14862e-05,7
-3.44135e-05,1.29348e-05,-9.67457e-06,-0.000124825,2.06555e-05,-1.06009e-05,-1.75934e-05,-6.27927e-05,7
-3.16903e-05,1.31997e-05,-7.30791e-06,-9.38987e-05,2.15593e-05,-1.25708e-05,-1.67474e-05,-9.28953e-05,7
-3.04763e-05,1.1927e-05,-5.51084e-06,-5.32686e-05,1.86851e-05,-1.41509e-05,-1.23715e-05,-9.34706e-05,7
-3.00158e-05,1.02917e-05,-4.90423e-06,-2.06208e-05,1.61223e-05,-1.57833e-05,-9.5107e-06,-6.61223e-05,7
-2.94215e-05,9.18104e-06,-5.89186e-06,-2.68191e-06,1.44203e-05,-1.6851e-05,-6.94549e-06,-3.44843e-05,7
-2.91316e-05,9.05147e-06,-7.0209e-06,9.34641e-06,1.30034e-05,-1.53251e-05,-1.23294e-06,-1.06812e-05,7
-2.98916e-05,9.92042e-06,-6.89228e-06,2.32193e-05,1.2542e-05,-1.3153e-05,4.93607e-06,6.88248e-06,7
-3.01978e-05,1.11895e-05,-5.54128e-06,3.97786e-05,1.30176e-05,-1.26123e-05,9.31883e-06,1.60801e-05,7
-3.00552e-05,1.13796e-05,-2.15885e-06,5.39788e-05,1.38899e-05,-1.23832e-05,1.34481e-05,1.63568e-05,7
-2.94915e-05,9.84052e-06,2.3519e-06,5.91992e-05,1.4577e-05,-1.23492e-05,2.02996e-05,1.20257e-05,7
-2.92281e-05,9.45763e-06,4.55995e-06,5.53823e-05,1.35873e-05,-1.26558e-05,2.62525e-05,5.58035e-06,7
-2.85005e-05,9.67282e-06,3.14896e-06,4.70953e-05,1.19179e-05,-1.27891e-05,2.59066e-05,-3.34816e-06,7
-2.67932e-05,1.00803e-05,7.3831e-07,4.09772e-05,1.12763e-05,-1.22892e-05,2.11656e-05,-1.56356e-05,7
-2.49966e-05,1.00781e-05,-1.30412e-06,3.63403e-05,1.16541e-05,-1.17428e-05,1.75183e-05,-2.51102e-05,7
-2.46177e-05,9.20191e-06,-4.26733e-06,3.0017e-05,1.15576e-05,-1.21953e-05,1.80667e-05,-2.31008e-05,7
-2.62886e-05,6.94387e-06,-8.21475e-06,2.08488e-05,1.16621e-05,-1.43014e-05,2.0287e-05,-9.65796e-06,7
-2.91216e-05,4.4075e-06,-1.18349e-05,1.19085e-05,1.27463e-05,-1.56877e-05,2.22398e-05,1.1468e-05,7
-3.08619e-05,3.15305e-06,-1.31832e-05,4.55788e-06,1.39724e-05,-1.4724e-05,2.19979e-05,3.69298e-05,7
-2.97846e-05,4.06197e-06,-1.21505e-05,8.08681e-07,1.43959e-05,-1.27042e-05,1.92624e-05,5.73805e-05,7
-2.73231e-05,7.17801e-06,-1.16793e-05,-1.26786e-06,1.37055e-05,-1.17543e-05,1.58701e-05,5.8882e-05,7
-2.49929e-05,1.05593e-05,-1.35362e-05,-2.35666e-06,1.25284e-05,-1.19188e-05,1.52895e-05,3.40698e-05,7
-2.43799e-05,1.17591e-05,-1.48761e-05,-2.14511e-06,1.31873e-05,-1.08289e-05,1.70701e-05,-9.4152e-06,7
-2.45568e-05,1.17263e-05,-1.37303e-05,-1.01091e-06,1.68934e-05,-8.92831e-06,1.89714e-05,-5.59665e-05,7
-2.40328e-05,1.38979e-05,-1.17738e-05,5.27212e-07,1.89114e-05,-8.45125e-06,1.89404e-05,-8.98048e-05,7
-2.30577e-05,1.57578e-05,-9.39649e-06,2.90949e-06,1.42272e-05,-7.64055e-06,2.01718e-05,-9.47338e-05,7
-2.30922e-05,1.50571e-05,-6.86723e-06,6.69364e-06,7.28086e-06,-6.28785e-06,2.39982e-05,-7.30287e-05,7
-2.43151e-05,1.40157e-05,-5.9019e-06,1.10429e-05,3.1161e-06,-6.69667e-06,2.59783e-05,-4.03256e-05,7
-2.47889e-05,1.22909e-05,-7.69949e-06,1.31759e-05,2.89991e-06,-7.29031e-06,2.31555e-05,-1.72953e-05,7
-2.35678e-05,1.09262e-05,-9.06012e-06,1.27411e-05,5.81496e-06,-6.89946e-06,1.79947e-05,-8.81103e-06,7
-2.32334e-05,1.07296e-05,-6.78335e-06,1.28933e-05,9.39159e-06,-7.0071e-06,1.73274e-05,-3.69705e-06,7
-2.48106e-05,1.03705e-05,-5.56669e-06,1.28324e-05,1.2359e-05,-7.8868e-06,2.03876e-05,1.83622e-06,7
-2.70346e-05,1.00128e-05,-7.85171e-06,8.02931e-06,1.47697e-05,-9.76483e-06,1.96298e-05,1.13595e-05,7
-2.91829e-05,9.21387e-06,-1.12359e-05,-2.50662e-06,1.71722e-05,-1.12737e-05,1.26342e-05,2.06787e-05,7
-3.02549e-05,1.05025e-05,-1.25477e-05,-1.35307e-05,1.80188e-05,-1.1465e-05,4.31703e-06,3.06609e-05,7
-3.07437e-05,1.37597e-05,-1.0218e-05,-1.93981e-05,1.79322e-05,-1.05546e-05,-1.0304e-06,4.96364e-05,7
-3.14608e-05,1.60855e-05,-5.68629e-06,-2.10406e-05,1.80563e-05,-8.54349e-06,6.884e-07,8.17384e-05,7
-3.16346e-05,1.65222e-05,-2.5755e-06,-2.67548e-05,1.81438e-05,-6.15738e-06,5.25296e-06,0.000112574,7
-3.24379e-05,1.57983e-05,-3.0165e-06,-3.91479e-05,1.7294e-05,-3.51721e-06,6.12396e-06,0.000122847,7
-3.42729e-05,1.44148e-05,-5.78283e-06,-5.0525e-05,1.60002e-05,-1.81188e-06,4.83438e-06,0.000110763,7
-3.5217e-05,1.30986e-05,-8.37505e-06,-4.99908e-05,1.50036e-05,-2.60875e-06,5.55263e-06,8.52857e-05,7
-3.50148e-05,1.23761e-05,-8.66958e-06,-3.76842e-05,1.48574e-05,-5.1898e-06,7.99022e-06,5.48625e-05,7
-3.45055e-05,1.27193e-05,-6.13371e-06,-2.32579e-05,1.46625e-05,-6.27715e-06,8.70822e-06,1.9445e-05,7
-3.47043e-05,1.40687e-05,-1.42272e-06,-1.44879e-05,1.24328e-05,-5.58517e-06,7.24878e-06,-2.04433e-05,7
-3.56472e-05,1.51007e-05,1.51552e-06,-1.14014e-05,9.02623e-06,-5.13613e-06,5.18706e-06,-6.08469e-05,7
-3.66214e-05,1.46768e-05,5.49088e-07,-1.11141e-05,6.59386e-06,-5.95841e-06,4.26463e-06,-9.74138e-05,7
-3.62432e-05,1.24957e-05,-2.11393e-06,-1.10302e-05,7.08628e-06,-6.85198e-06,5.88993e-06,-0.000120188,7
-3.52754e-05,1.07754e-05,-3.81781e-06,-8.83565e-06,9.763e-06,-6.97487e-06,1.04131e-05,-0.000113451,7
-3.43266e-05,1.12209e-05,-4.52677e-06,-5.064e-06,1.19958e-05,-7.41164e-06,1.5807e-05,-7.50509e-05,7
-3.28652e-05,1.26038e-05,-6.20412e-06,-4.73005e-06,1.37543e-05,-8.70043e-06,1.75628e-05,-2.37358e-05,7
-3.18139e-05,1.3058e-05,-1.0618e-05,-1.1585e-05,1.42116e-05,-1.01857e-05,1.52427e-05,9.62342e-06,7
-3.21478e-05,1.29291e-05,-1.54248e-05,-2.18048e-05,1.14883e-05,-1.08547e-05,1.44292e-05,1.19453e-05,7
-3.24069e-05,1.27113e-05,-1.75468e-05,-2.60454e-05,9.06231e-06,-1.16568e-05,1.38305e-05,-4.61572e-06,7
-3.17891e-05,1.39795e-05,-1.66506e-05,-2.42036e-05,9.3604e-06,-1.28628e-05,1.16211e-05,-2.26775e-05,7
-3.13976e-05,1.58643e-05,-1.28644e-05,-2.37055e-05,1.08226e-05,-1.27058e-05,9.47215e-06,-3.31609e-05,7
-3.05894e-05,1.62775e-05,-7.55734e-06,-2.40658e-05,1.28295e-05,-1.24906e-05,7.58813e-06,-3.52665e-05,7
-2.82269e-05,1.60171e-05,-5.25918e-06,-2.28122e-05,1.55376e-05,-1.24164e-05,6.40494e-06,-3.33582e-05,7
-2.67338e-05,1.56718e-05,-7.71667e-06,-1.85737e-05,1.73013e-05,-1.0324e-05,5.89574e-06,-3.03099e-05,7
-2.58287e-05,1.45474e-05,-1.21222e-05,-1.17115e-05,1.58283e-05,-7.55963e-06,6.59344e-06,-2.42519e-05,7
-2.5603e-05,1.24043e-05,-1.66132e-05,-9.96778e-06,1.09539e-05,-6.30816e-06,7.29943e-06,2.41364e-06,7
-2.73868e-05,1.04807e-05,-1.95562e-05,-1.54033e-05,7.23799e-06,-7.31661e-06,5.55707e-06,6.33393e-05,7
-2.77495e-05,1.02518e-05,-1.89289e-05,-2.07973e-05,6.66416e-06,-9.80278e-06,4.88443e-07,0.000126721,7
-2.61457e-05,1.20038e-05,-1.48189e-05,-2.40497e-05,9.03269e-06,-1.1121e-05,-6.03062e-06,0.000165333,7
-2.30729e-05,1.40731e-05,-8.41859e-06,-2.44067e-05,1.238e-05,-9.72316e-06,-1.02482e-05,0.000184341,7
-2.10888e-05,1.54833e-05,-2.37823e-06,-1.91167e-05,1.33997e-05,-7.58047e-06,-8.38095e-06,0.000187566,7
-2.0506e-05,1.58713e-05,1.21644e-06,-9.82327e-06,1.23863e-05,-6.19382e-06,-1.86347e-06,0.000159459,7
-2.05054e-05,1.50842e-05,1.94696e-06,-2.81865e-06,1.06882e-05,-6.11123e-06,3.465e-06,8.3549e-05,7
-2.12018e-05,1.36401e-05,-1.31956e-07,2.03203e-08,9.93885e-06,-7.15569e-06,4.77482e-06,-3.1917e-05,7
-2.18713e-05,1.2631e-05,-2.44261e-06,1.81376e-06,1.07269e-05,-8.46224e-06,5.52883e-06,-0.00015002,7
-2.26533e-05,1.26688e-05,-3.77785e-06,4.99173e-06,1.24225e-05,-9.14954e-06,1.04303e-05,-0.000224994,7
-2.31068e-05,1.32284e-05,-4.38721e-06,8.28237e-06,1.24102e-05,-9.9741e-06,1.76177e-05,-0.000232293,7
-2.35673e-05,1.33448e-05,-4.35244e-06,1.28727e-05,1.08339e-05,-1.08296e-05,2.27724e-05,-0.000180112,7
-2.45867e-05,1.25781e-05,-2.39196e-06,2.04318e-05,1.05703e-05,-1.02266e-05,2.63411e-05,-0.000109065,7
-2.57173e-05,1.21832e-05,5.42847e-08,2.64806e-05,1.30539e-05,-8.41116e-06,3.08217e-05,-5.79346e-05,7
-2.62986e-05,1.31009e-05,-2.99819e-07,2.51101e-05,1.52434e-05,-7.07567e-06,3.35768e-05,-3.23699e-05,7
-2.86121e-05,1.41603e-05,-3.7134e-06,1.5285e-05,1.32278e-05,-7.68961e-06,3.20754e-05,-1.94882e-05,7
-3.228e-05,1.38299e-05,-7.41223e-06,3.10019e-06,8.29189e-06,-8.45012e-06,3.07574e-05,-1.17451e-05,7
-3.37061e-05,1.24966e-05,-7.91466e-06,-2.76823e-06,5.26499e-06,-6.6457e-06,3.14724e-05,-6.23448e-06,7
-3.28904e-05,1.01024e-05,-3.61978e-06,-5.74132e-07,4.96443e-06,-5.33994e-06,3.20624e-05,-8.05411e-07,7
-3.35885e-05,8.4816e-06,1.48018e-06,1.89479e-06,4.74853e-06,-5.63149e-06,3.02217e-05,1.07586e-05,7
-3.4755e-05,8.3219e-06,1.54522e-06,1.79952e-07,4.2179e-06,-6.50915e-06,2.79666e-05,2.92126e-05,7
-3.55552e-05,7.87774e-06,-3.62812e-06,-4.14226e-06,4.9939e-06,-8.81133e-06,2.62954e-05,4.21123e-05,7
-3.66999e-05,7.8923e-06,-7.06598e-06,-6.85514e-06,6.42805e-06,-8.71443e-06,2.08966e-05,4.80946e-05,7
-3.72772e-05,8.52446e-06,-5.42341e-06,-5.56724e-06,9.12122e-06,-6.66521e-06,1.38661e-05,5.88461e-05,7
-3.72595e-05,9.4317e-06,-3.77403e-06,-2.35286e-06,1.34434e-05,-5.54285e-06,7.7395e-06,7.79367e-05,7
-3.64204e-05,1.09884e-05,-1.62974e-06,1.19759e-06,1.74811e-05,-6.99215e-06,5.07292e-06,0.000100271,7
-3.56846e-05,1.28688e-05,1.63042e-06,5.72751e-06,2.09167e-05,-9.50438e-06,7.62924e-06,0.000101541,7
-3.64217e-05,1.32773e-05,3.68069e-06,1.01686e-05,2.26553e-05,-1.22387e-05,1.21428e-05,6.63682e-05,7
-3.76644e-05,1.20225e-05,9.0086e-07,1.14805e-05,2.21184e-05,-1.48458e-05,1.57672e-05,2.63495e-05,7
-3.61472e-05,1.02825e-05,-6.43237e-06,7.71736e-06,1.78869e-05,-1.5613e-05,1.72279e-05,7.13919e-06,7
-3.33609e-05,9.18036e-06,-1.1326e-05,-5.40611e-07,1.11599e-05,-1.50702e-05,1.62482e-05,-7.98006e-07,7
-3.1415e-05,8.36297e-06,-1.14844e-05,-6.29458e-06,5.24433e-06,-1.47236e-05,1.59092e-05,-1.95038e-05,7
-3.04732e-05,8.12706e-06,-1.05908e-05,-7.44459e-06,3.02131e-06,-1.55607e-05,1.74119e-05,-5.08424e-05,7
-2.9365e-05,9.23167e-06,-1.17123e-05,-6.64363e-06,3.62377e-06,-1.49411e-05,1.71177e-05,-8.29164e-05,7
-2.80263e-05,1.12325e-05,-1.2566e-05,-4.91456e-06,5.29188e-06,-1.19972e-05,1.27676e-05,-0.000104788,7
-2.73904e-05,1.30183e-05,-1.12814e-05,-1.91717e-06,7.63359e-06,-8.63275e-06,6.37555e-06,-0.000106633,7
-2.73878e-05,1.38831e-05,-8.04184e-06,2.35102e-06,1.069e-05,-7.54751e-06,1.431e-06,-8.47552e-05,7
-2.76649e-05,1.35884e-05,-5.92335e-06,5.09854e-06,1.42219e-05,-9.67244e-06,-3.55033e-06,-4.74099e-05,7
-2.84274e-05,1.20119e-05,-7.01346e-06,5.30635e-06,1.78914e-05,-1.2721e-05,-9.86999e-06,-1.32442e-05,7
-3.04748e-05,9.88581e-06,-9.70071e-06,3.54128e-06,2.05215e-05,-1.37391e-05,-1.42527e-05,6.03557e-06,7
-3.22746e-05,8.28413e-06,-1.19058e-05,2.59163e-06,2.01039e-05,-1.23164e-05,-1.17731e-05,1.13676e-05,7
-3.24957e-05,8.20669e-06,-1.17619e-05,3.22518e-06,1.91631e-05,-9.89092e-06,-2.33309e-06,1.3462e-05,7
-3.22513e-05,9.43451e-06,-9.68473e-06,4.00079e-06,2.05979e-05,-9.34508e-06,8.76522e-06,1.52766e-05,7
-3.21124e-05,1.12274e-05,-8.23311e-06,4.49454e-06,2.17718e-05,-1.08998e-05,1.66822e-05,1.53049e-05,7
-3.16024e-05,1.19885e-05,-8.24558e-06,4.54987e-06,1.99526e-05,-1.16389e-05,2.1862e-05,1.54499e-05,7
-3.11874e-05,1.35266e-05,-7.04635e-06,2.18871e-06,1.82845e-05,-9.62845e-06,2.60568e-05,2.25543e-05,7
-3.11335e-05,1.56592e-05,-3.90338e-06,3.54525e-08,1.73247e-05,-6.96997e-06,2.82636e-05,4.02245e-05,7
-3.17296e-05,1.57254e-05,-2.6234e-06,2.35016e-06,1.6512e-05,-7.84829e-06,2.59282e-05,6.47735e-05,7
-3.17268e-05,1.62015e-05,-6.45024e-06,8.44893e-06,1.65377e-05,-1.04376e-05,1.70831e-05,8.8929e-05,7
-3.14493e-05,1.65131e-05,-1.12211e-05,1.43395e-05,1.7467e-05,-1.25333e-05,7.88897e-06,0.000105955,7
-3.1106e-05,1.47169e-05,-1.28873e-05,1.53397e-05,1.86035e-05,-1.32728e-05,5.54125e-06,0.000110259,7
-3.05387e-05,1.32412e-05,-1.16579e-05,6.52742e-06,2.00816e-05,-1.1609e-05,7.60024e-06,9.30055e-05,7
-3.03362e-05,1.28443e-05,-1.08623e-05,-1.55414e-05,2.0615e-05,-1.09128e-05,1.09838e-05,5.63757e-05,7
-3.06298e-05,1.25329e-05,-1.09994e-05,-4.40369e-05,1.93641e-05,-1.15235e-05,1.52542e-05,1.7032e-05,7
-3.00962e-05,1.09935e-05,-1.06258e-05,-6.44727e-05,1.67986e-05,-1.18747e-05,2.01388e-05,-1.61526e-05,7
-2.95106e-05,9.41759e-06,-9.39129e-06,-6.61005e-05,1.37741e-05,-1.11139e-05,2.26449e-05,-3.78125e-05,7
-2.99032e-05,1.01252e-05,-5.91122e-06,-5.08695e-05,1.31179e-05,-1.00931e-05,1.76153e-05,-4.15181e-05,7
-2.9825e-05,1.32866e-05,-1.36023e-06,-2.99943e-05,1.34611e-05,-1.01346e-05,5.84148e-06,-3.07316e-05,7
-2.90422e-05,1.62976e-05,1.63279e-06,-1.27643e-05,1.34186e-05,-9.51897e-06,-5.68225e-06,-1.77858e-05,7
-2.73415e-05,1.70494e-05,1.94545e-07,-2.5719e-06,1.25297e-05,-7.83908e-06,-1.14062e-05,-1.36792e-05,7
-2.59144e-05,1.54057e-05,-3.61325e-06,-2.02358e-06,1.15011e-05,-6.1537e-06,-1.09284e-05,-1.55665e-05,7
-2.5471e-05,1.36328e-05,-6.75306e-06,-1.04786e-05,1.21133e-05,-5.70503e-06,-6.61663e-06,-1.39181e-05,7
-2.60183e-05,1.32225e-05,-8.27791e-06,-2.00507e-05,1.42074e-05,-5.84905e-06,-1.75628e-06,-6.19401e-06,7
-2.698e-05,1.3127e-05,-7.97171e-06,-2.17131e-05,1.58113e-05,-5.95771e-06,3.24785e-06,3.70749e-07,7
-2.78888e-05,1.40602e-05,-6.42418e-06,-1.62718e-05,1.59618e-05,-6.12903e-06,7.99012e-06,3.20977e-06,7
-2.77458e-05,1.63834e-05,-4.43393e-06,-1.10413e-05,1.55278e-05,-6.53369e-06,1.01298e-05,7.61023e-06,7
-2.69775e-05,1.86969e-05,-3.75409e-06,-9.18889e-06,1.40585e-05,-6.84857e-06,8.6387e-06,1.61882e-05,7
-2.68407e-05,1.87085e-05,-4.86563e-06,-9.27969e-06,1.22306e-05,-6.50274e-06,5.76333e-06,2.2605e-05,7
-2.76956e-05,1.70093e-05,-6.60014e-06,-9.39143e-06,1.18532e-05,-5.15262e-06,5.25719e-06,2.29524e-05,7
-2.92817e-05,1.49906e-05,-6.49921e-06,-7.03713e-06,1.2537e-05,-4.55531e-06,9.05227e-06,2.0727e-05,7
-3.04587e-05,1.32155e-05,-4.00979e-06,-1.16367e-06,1.32969e-05,-5.72996e-06,1.51216e-05,1.79377e-05,7
-3.10931e-05,1.17349e-05,-1.82607e-06,4.76317e-06,1.40824e-05,-7.79846e-06,2.11133e-05,1.13253e-05,7
-3.19582e-05,1.02713e-05,-2.91214e-06,7.61061e-06,1.53383e-05,-1.08569e-05,2.567e-05,-1.46358e-06,7
-3.33596e-05,9.79917e-06,-6.6473e-06,8.19423e-06,1.6361e-05,-1.38046e-05,2.86016e-05,-1.63285e-05,7
-3.52196e-05,1.05752e-05,-8.86336e-06,7.20814e-06,1.71142e-05,-1.49318e-05,3.0575e-05,-2.90776e-05,7
-3.58526e-05,1.04464e-05,-7.28088e-06,4.02841e-06,1.60578e-05,-1.43949e-05,3.01445e-05,-4.17872e-05,7
-3.46158e-05,9.44445e-06,-5.51176e-06,-1.8489e-06,1.18363e-05,-1.19303e-05,2.66403e-05,-5.24242e-05,7
-3.27755e-05,9.36635e-06,-9.14555e-06,-1.13018e-05,8.38996e-06,-8.31681e-06,1.84384e-05,-5.03657e-05,7
-3.18701e-05,9.69233e-06,-1.46651e-05,-1.7572e-05,8.46819e-06,-6.17615e-06,6.93288e-06,-3.17976e-05,7
-3.16136e-05,1.01799e-05,-1.71776e-05,-1.85355e-05,1.09809e-05,-5.25093e-06,1.72627e-07,3.32504e-06,7
-3.06147e-05,1.18411e-05,-1.76888e-05,-1.66579e-05,1.19064e-05,-3.87348e-06,2.25668e-06,4.44838e-05,7
-2.95226e-05,1.2082e-05,-1.79985e-05,-1.31951e-05,1.01536e-05,-2.07859e-06,1.05507e-05,7.86117e-05,7
-2.85434e-05,1.1539e-05,-1.87889e-05,-1.23311e-05,7.4723e-06,-1.25775e-06,1.78245e-05,0.000102661,7
-2.80052e-05,1.05909e-05,-1.86537e-05,-1.23557e-05,4.74701e-06,-1.19286e-06,1.99426e-05,0.000108035,7
-2.69211e-05,9.59876e-06,-1.63582e-05,-9.48493e-06,2.25498e-06,-2.25557e-06,1.84077e-05,8.99401e-05,7
-2.52977e-05,1.15545e-05,-9.99694e-06,-2.41307e-06,2.559e-08,-4.82102e-06,1.556e-05,5.18814e-05,7
-2.35026e-05,1.47271e-05,-1.05622e-06,5.84114e-06,-1.44846e-06,-7.19604e-06,1.37895e-05,2.26138e-07,7
-2.1815e-05,1.67777e-05,5.32836e-06,1.24255e-05,2.65397e-06,-7.55367e-06,1.34654e-05,-5.56185e-05,7
-2.09696e-05,1.75341e-05,5.69455e-06,1.69244e-05,1.44161e-05,-6.07079e-06,1.34993e-05,-9.86268e-05,7
-2.23742e-05,1.76579e-05,1.66304e-06,1.9257e-05,2.55044e-05,-5.61466e-06,1.47966e-05,-0.000112929,7
-2.48953e-05,1.63275e-05,-3.73853e-06,2.00037e-05,2.69683e-05,-6.66236e-06,2.05095e-05,-9.89884e-05,7
-2.63244e-05,1.43549e-05,-7.78019e-06,2.09439e-05,1.99888e-05,-7.58318e-06,2.8569e-05,-6.53801e-05,7
-2.7153e-05,1.26508e-05,-8.55036e-06,2.2204e-05,1.35744e-05,-7.38375e-06,3.4884e-05,-1.92727e-05,7
-2.74642e-05,1.22726e-05,-7.92803e-06,2.10826e-05,1.28806e-05,-6.51037e-06,3.68458e-05,2.84255e-05,7
-2.76742e-05,1.27744e-05,-8.53053e-06,1.66822e-05,1.60062e-05,-6.51723e-06,3.38121e-05,6.22871e-05,7
-2.86866e-05,1.20626e-05,-1.01954e-05,1.0999e-05,1.73215e-05,-7.94351e-06,2.59797e-05,7.63344e-05,7
-2.98227e-05,1.06126e-05,-1.14029e-05,6.89015e-06,1.62212e-05,-1.03054e-05,1.43043e-05,7.28591e-05,7
-2.96705e-05,1.02335e-05,-1.10768e-05,4.4974e-06,1.6333e-05,-1.3158e-05,1.75921e-06,5.80124e-05,7
-2.92391e-05,8.68419e-06,-9.29172e-06,2.85742e-06,1.9239e-05,-1.59149e-05,-7.94027e-06,3.22355e-05,7
-2.91629e-05,7.34722e-06,-8.70376e-06,-1.22176e-08,2.21667e-05,-1.72302e-05,-1.06342e-05,-7.42231e-06,7
-2.90548e-05,9.18917e-06,-1.03032e-05,-5.71628e-06,1.99203e-05,-1.69462e-05,-5.19632e-06,-4.98233e-05,7
-2.85782e-05,1.23919e-05,-1.27234e-05,-1.0631e-05,1.43513e-05,-1.57651e-05,2.85009e-06,-7.9433e-05,7
-2.82243e-05,1.38735e-05,-1.44559e-05,-1.19547e-05,1.03038e-05,-1.6306e-05,9.1258e-06,-9.42166e-05,7
-2.8311e-05,1.32812e-05,-1.18235e-05,-1.00476e-05,1.01154e-05,-1.81794e-05,1.22012e-05,-9.62004e-05,7
-2.84029e-05,1.40191e-05,-4.62463e-06,-5.47021e-06,1.44478e-05,-1.78277e-05,1.1701e-05,-8.65972e-05,7
-2.76114e-05,1.46366e-05,7.65112e-07,-3.66053e-06,1.75542e-05,-1.51967e-05,1.03149e-05,-7.49796e-05,7
-2.5635e-05,1.50059e-05,1.38668e-06,-9.09457e-06,1.6349e-05,-1.09187e-05,8.36508e-06,-7.08443e-05,7
-2.39633e-05,1.53887e-05,-8.58332e-07,-1.72983e-05,1.38158e-05,-7.57341e-06,8.90811e-06,-6.78489e-05,7
-2.45194e-05,1.47623e-05,-2.11847e-06,-2.01645e-05,1.41833e-05,-6.4255e-06,1.27694e-05,-5.52662e-05,7
-2.53147e-05,1.54262e-05,-1.83383e-06,-1.56043e-05,1.72534e-05,-6.89091e-06,1.50431e-05,-3.52129e-05,7
-2.49935e-05,1.67931e-05,-6.1252e-07,-9.08129e-06,1.93125e-05,-8.15555e-06,1.52085e-05,-1.25663e-05,7
-2.60528e-05,1.61961e-05,6.07773e-07,-4.88042e-06,1.71608e-05,-9.17999e-06,1.55021e-05,7.18668e-06,7
-2.86312e-05,1.36543e-05,-6.48833e-07,-4.53335e-06,1.23565e-05,-1.09972e-05,1.56798e-05,2.05489e-05,7
-3.13731e-05,1.22275e-05,-4.25876e-06,-8.02358e-06,1.00059e-05,-1.31536e-05,1.57873e-05,2.47328e-05,7
-3.30416e-05,1.28839e-05,-7.23789e-06,-1.42524e-05,1.13199e-05,-1.42053e-05,1.61577e-05,1.9869e-05,7
-3.30456e-05,1.35035e-05,-7.91394e-06,-2.10784e-05,1.43267e-05,-1.33125e-05,1.71051e-05,9.92455e-06,7
-3.23747e-05,1.33852e-05,-7.19781e-06,-2.56593e-05,1.58832e-05,-1.16853e-05,1.85162e-05,2.2941e-06,7
-3.14581e-05,1.33638e-05,-5.98393e-06,-2.72295e-05,1.53942e-05,-1.09444e-05,2.05577e-05,1.39016e-06,7
-3.06033e-05,1.37114e-05,-4.21953e-06,-2.65981e-05,1.43366e-05,-1.10956e-05,2.30537e-05,3.72609e-06,7
-3.11182e-05,1.39606e-05,-2.61865e-06,-2.66419e-05,1.47703e-05,-1.07601e-05,2.43908e-05,6.70283e-06,7
-3.18395e-05,1.38799e-05,-3.61213e-06,-2.893e-05,1.55528e-05,-1.00976e-05,2.33862e-05,9.25348e-06,7
-3.14188e-05,1.32342e-05,-5.26197e-06,-2.88613e-05,1.55346e-05,-9.21207e-06,2.10565e-05,1.20038e-05,7
-3.00551e-05,1.29444e-05,-4.49111e-06,-2.18415e-05,1.51499e-05,-6.91356e-06,1.9288e-05,1.52715e-05,7
-2.83651e-05,1.32394e-05,-1.98684e-06,-1.08499e-05,1.52788e-05,-4.13631e-06,1.66462e-05,1.90147e-05,7
-2.77218e-05,1.38422e-05,1.36374e-07,-1.32098e-06,1.55233e-05,-2.31245e-06,1.32079e-05,2.01635e-05,7
-2.80492e-05,1.40841e-05,7.07655e-08,5.16954e-06,1.63213e-05,-2.56974e-06,1.10055e-05,1.84329e-05,7
-2.83539e-05,1.43336e-05,-2.97098e-06,9.83656e-06,1.9635e-05,-4.97849e-06,8.87816e-06,1.70968e-05,7
-2.8643e-05,1.34547e-05,-4.81618e-06,1.38446e-05,2.42469e-05,-7.59321e-06,5.76781e-06,1.6055e-05,7
-3.00862e-05,1.1321e-05,-5.35016e-06,1.65349e-05,2.63608e-05,-1.02026e-05,4.75616e-06,1.37796e-05,7
-3.29391e-05,1.04942e-05,-8.42394e-06,1.60077e-05,2.88018e-05,-1.29233e-05,7.96386e-06,1.23447e-05,7
-3.41327e-05,1.10018e-05,-1.24336e-05,1.04546e-05,3.40455e-05,-1.28365e-05,1.04853e-05,1.24514e-05,7
-3.34889e-05,1.24146e-05,-1.34281e-05,1.03063e-06,3.90356e-05,-1.01296e-05,8.13377e-06,1.21698e-05,7
-3.43524e-05,1.21549e-05,-1.21292e-05,-5.57866e-06,4.04215e-05,-9.82297e-06,5.09998e-06,1.0562e-05,7
-3.6076e-05,1.05109e-05,-1.03788e-05,-4.11224e-06,3.40381e-05,-1.14251e-05,6.50953e-06,7.12198e-06,7
-3.64593e-05,9.32708e-06,-8.76143e-06,1.67438e-07,2.09544e-05,-1.15198e-05,1.03873e-05,2.63269e-06,7
-3.60738e-05,8.17829e-06,-9.77685e-06,-1.87832e-06,6.59406e-06,-1.13024e-05,1.13827e-05,3.30149e-06,7
-3.54019e-05,7.15031e-06,-1.15245e-05,-6.79958e-06,-3.30236e-06,-1.15258e-05,9.86842e-06,9.52715e-06,7
-3.44591e-05,8.60396e-06,-1.10438e-05,-7.16736e-06,-7.35242e-06,-1.22922e-05,6.66042e-06,1.42796e-05,7
-3.40593e-05,1.14335e-05,-7.77007e-06,-2.81173e-06,-6.74606e-06,-1.19356e-05,3.54901e-06,1.50027e-05,7
-3.40831e-05,1.16082e-05,-4.32177e-06,2.38368e-06,-3.9359e-06,-1.04413e-05,1.39437e-06,1.45454e-05,7
-3.42293e-05,1.10679e-05,-3.5912e-06,4.6933e-06,-1.91157e-07,-8.64691e-06,4.49728e-07,1.44976e-05,7
-3.45682e-05,1.23883e-05,-4.81082e-06,3.81766e-06,3.0098e-06,-8.32927e-06,1.01358e-06,1.67145e-05,7
-3.38909e-05,1.44025e-05,-4.68925e-06,1.57929e-06,4.97567e-06,-8.92077e-06,2.02416e-06,2.3898e-05,7
-3.24937e-05,1.49916e-05,-3.08475e-06,-1.47296e-07,6.41263e-06,-8.60287e-06,4.33666e-06,3.14535e-05,7
-3.18106e-05,1.409e-05,-3.03176e-06,-1.37755e-06,7.47239e-06,-8.21345e-06,7.69551e-06,3.56802e-05,7
-3.07492e-05,1.28414e-05,-5.22754e-06,-2.1374e-06,8.85145e-06,-8.34886e-06,1.17204e-05,3.51462e-05,7
-2.91454e-05,1.20691e-05,-7.96293e-06,-2.73232e-06,1.0526e-05,-9.05423e-06,1.72501e-05,2.99046e-05,7
-2.82757e-05,1.14262e-05,-8.9324e-06,-3.27426e-06,1.15355e-05,-8.70291e-06,2.46152e-05,2.30495e-05,7
-2.8217e-05,1.13424e-05,-7.71482e-06,-3.73712e-06,1.20509e-05,-7.45725e-06,3.00438e-05,1.94947e-05,7
-2.88729e-05,1.26344e-05,-5.84504e-06,-4.09238e-06,1.26283e-05,-6.25696e-06,3.1457e-05,1.85509e-05,7
-3.01261e-05,1.32651e-05,-6.2631e-06,-4.96044e-06,1.2882e-05,-6.14346e-06,3.15397e-05,1.48081e-05,7
-3.15917e-05,1.14788e-05,-9.86142e-06,-4.99371e-06,1.26886e-05,-5.96331e-06,3.07827e-05,3.54582e-06,7
-3.29202e-05,9.67155e-06,-1.47467e-05,-3.67066e-06,1.24202e-05,-5.43203e-06,2.46589e-05,-1.28719e-05,7
-3.4431e-05,9.75272e-06,-1.86208e-05,-4.4168e-06,1.4245e-05,-6.43022e-06,1.33777e-05,-2.99959e-05,7
-3.54263e-05,1.09459e-05,-1.83944e-05,-6.42103e-06,1.61867e-05,-7.90942e-06,3.75786e-06,-4.49986e-05,7
-3.48181e-05,1.29705e-05,-1.47922e-05,-5.76042e-06,1.4868e-05,-8.32371e-06,1.38061e-06,-5.12566e-05,7
-3.38598e-05,1.48561e-05,-1.01797e-05,-2.48502e-06,9.31162e-06,-8.30615e-06,1.35099e-06,-4.32258e-05,7
-3.23292e-05,1.50108e-05,-4.20994e-06,5.95539e-07,3.47302e-06,-8.29699e-06,-1.47399e-06,-2.81933e-05,7
-3.01263e-05,1.43698e-05,1.28447e-06,2.20621e-06,2.18784e-06,-1.01004e-05,-3.21022e-06,-1.76954e-05,7
-2.90651e-05,1.35089e-05,3.34449e-06,1.54221e-06,4.08825e-06,-1.14103e-05,-1.1542e-06,-1.20718e-05,7
-2.96648e-05,1.24687e-05,1.61693e-06,-2.03797e-06,5.23971e-06,-1.22522e-05,1.24855e-06,-9.47783e-06,7
-3.12681e-05,1.1784e-05,-1.26316e-06,-7.24469e-06,6.12673e-06,-1.57499e-05,2.47635e-06,-7.55545e-06,7
-3.33981e-05,1.17522e-05,-3.60437e-06,-1.04681e-05,1.0819e-05,-1.87453e-05,3.16104e-06,-6.54725e-06,7
-3.37396e-05,1.22807e-05,-4.54258e-06,-9.09607e-06,1.88384e-05,-1.77821e-05,4.34793e-06,-5.08119e-06,7
-3.08935e-05,1.30779e-05,-3.82326e-06,-5.45705e-06,2.33066e-05,-1.31434e-05,9.03096e-06,-2.21188e-06,7
-2.7718e-05,1.38485e-05,-2.76684e-06,-3.91615e-06,2.08004e-05,-9.14595e-06,1.34001e-05,1.20974e-06,7
-2.74568e-05,1.33746e-05,-4.33577e-06,-7.9388e-06,1.50044e-05,-8.38953e-06,1.38057e-05,4.52872e-06,7
-2.90562e-05,1.27662e-05,-7.18292e-06,-1.13904e-05,1.06146e-05,-9.4184e-06,1.44456e-05,6.88543e-06,7
-2.94015e-05,1.28121e-05,-5.3694e-06,-5.3048e-06,1.01964e-05,-1.01171e-05,2.07844e-05,8.96845e-06,7
-2.89614e-05,1.30922e-05,8.49232e-07,1.58852e-05,1.28188e-05,-1.07699e-05,3.00929e-05,1.34471e-05,7
-2.92777e-05,1.3294e-05,5.09159e-06,4.53214e-05,1.68282e-05,-1.17577e-05,3.51496e-05,2.97389e-05,7
-3.00196e-05,1.37577e-05,4.45864e-06,6.4402e-05,1.98348e-05,-1.26258e-05,3.36986e-05,5.6376e-05,7
-3.10104e-05,1.41574e-05,2.23284e-06,6.36369e-05,2.08127e-05,-1.26062e-05,2.80765e-05,7.65435e-05,7
-3.27275e-05,1.36457e-05,1.05809e-06,4.487e-05,2.05064e-05,-1.26662e-05,1.96907e-05,7.9994e-05,7
-3.4523e-05,1.22108e-05,3.10076e-07,1.31089e-05,2.05879e-05,-1.36906e-05,9.67274e-06,7.09728e-05,7
-3.51586e-05,1.12306e-05,-7.37839e-07,-2.91151e-05,2.02391e-05,-1.44884e-05,8.89797e-07,5.54519e-05,7
-3.5259e-05,1.00336e-05,-2.63521e-06,-7.49452e-05,1.68128e-05,-1.52698e-05,-4.38931e-06,3.25156e-05,7
-3.73321e-05,7.94886e-06,-8.11314e-06,-0.000108086,1.07543e-05,-1.60477e-05,-5.5308e-06,3.20479e-07,7
-3.95809e-05,7.94764e-06,-1.4914e-05,-0.000109893,6.32995e-06,-1.51286e-05,-1.77693e-06,-3.79894e-05,7
-3.89894e-05,1.06543e-05,-1.74644e-05,-8.21453e-05,6.59742e-06,-1.29742e-05,5.37948e-06,-7.92767e-05,7
-3.67649e-05,1.38574e-05,-1.50126e-05,-5.03e-05,8.63762e-06,-9.96234e-06,1.12013e-05,-0.000108565,7
-3.47089e-05,1.5367e-05,-1.17344e-05,-3.43034e-05,7.78783e-06,-6.57939e-06,1.02691e-05,-0.000107724,7
-3.20924e-05,1.71349e-05,-1.08611e-05,-3.15004e-05,6.16972e-06,-3.9849e-06,4.40194e-06,-8.00928e-05,7
-2.97865e-05,1.77153e-05,-1.20421e-05,-3.0522e-05,7.74581e-06,-4.1422e-06,4.12361e-07,-4.27091e-05,7
-2.81967e-05,1.55412e-05,-1.29494e-05,-1.94151e-05,9.09597e-06,-7.60273e-06,1.04652e-07,-2.11859e-05,7
-2.65267e-05,1.46279e-05,-1.18692e-05,-5.07233e-07,1.06502e-05,-9.81975e-06,3.9267e-06,-1.72873e-05,7
-2.58314e-05,1.40279e-05,-9.01794e-06,1.5034e-05,1.37448e-05,-9.75501e-06,1.28282e-05,-1.49197e-05,7
-2.42419e-05,1.28264e-05,-7.49167e-06,2.26248e-05,1.56456e-05,-8.31519e-06,2.36591e-05,-1.04545e-05,7
-2.37182e-05,1.12339e-05,-9.6992e-06,2.24394e-05,1.64329e-05,-6.67098e-06,2.96349e-05,-4.23228e-06,7
-2.53387e-05,1.06267e-05,-1.24315e-05,1.7203e-05,1.54549e-05,-6.26059e-06,2.99002e-05,6.81505e-07,7
-2.65634e-05,1.13632e-05,-1.3939e-05,1.18307e-05,1.26186e-05,-7.54136e-06,2.73301e-05,4.06564e-06,7
-2.67057e-05,1.12365e-05,-1.3509e-05,1.29453e-05,9.84924e-06,-9.84663e-06,2.30919e-05,1.13478e-05,7
-2.64519e-05,1.11119e-05,-1.17509e-05,1.74881e-05,9.42404e-06,-1.17e-05,1.60799e-05,2.71763e-05,7
-2.83093e-05,1.10405e-05,-9.18033e-06,2.19446e-05,1.12371e-05,-1.2263e-05,7.05645e-06,4.4566e-05,7
-3.04628e-05,1.2897e-05,-5.52981e-06,2.57595e-05,1.50488e-05,-1.19141e-05,-1.60876e-06,5.87809e-05,7
-3.10634e-05,1.53896e-05,-2.6259e-06,2.768e-05,1.93445e-05,-1.11361e-05,-7.67475e-06,7.4468e-05,7
-3.09646e-05,1.62535e-05,-1.92305e-06,2.55973e-05,2.12727e-05,-1.07016e-05,-7.35442e-06,9.14329e-05,7
-3.15629e-05,1.55217e-05,-3.69951e-06,2.02516e-05,2.05048e-05,-1.09221e-05,4.00205e-08,9.70912e-05,7
-3.25013e-05,1.36184e-05,-6.74379e-06,1.53714e-05,1.76291e-05,-1.06545e-05,9.98245e-06,7.93279e-05,7
-3.23925e-05,1.18649e-05,-9.82618e-06,1.27626e-05,1.36393e-05,-1.01652e-05,1.66488e-05,4.00659e-05,7
-3.16794e-05,1.04131e-05,-1.17212e-05,1.20841e-05,9.80477e-06,-9.53252e-06,1.74911e-05,-6.7941e-06,7
-3.10849e-05,1.02783e-05,-1.23528e-05,1.07006e-05,7.64242e-06,-8.72421e-06,1.43522e-05,-4.11317e-05,7
-3.03205e-05,1.12965e-05,-1.25584e-05,6.81097e-06,7.05438e-06,-8.79138e-06,1.2781e-05,-5.47205e-05,7
-2.97537e-05,1.17744e-05,-1.19027e-05,2.35111e-06,7.05453e-06,-1.06116e-05,1.42276e-05,-5.54452e-05,7
-3.00945e-05,1.08901e-05,-8.97142e-06,-7.03243e-07,6.81567e-06,-1.29733e-05,1.56085e-05,-5.42795e-05,7
-3.05547e-05,1.00682e-05,-6.31749e-06,-2.68044e-06,8.73999e-06,-1.54827e-05,1.41205e-05,-5.56459e-05,7
-3.16407e-05,1.11563e-05,-7.45747e-06,-4.66907e-06,1.2502e-05,-1.70253e-05,9.51393e-06,-5.79527e-05,7
-3.20162e-05,1.27521e-05,-1.0855e-05,-9.0036e-06,1.41362e-05,-1.65618e-05,3.51428e-06,-5.85248e-05,7
-2.95382e-05,1.27221e-05,-1.2227e-05,-1.2699e-05,1.30292e-05,-1.50908e-05,-7.36139e-07,-5.49452e-05,7
-2.59638e-05,1.41141e-05,-8.55704e-06,-9.24421e-06,1.32804e-05,-1.45168e-05,1.74497e-06,-4.07096e-05,7
-2.40836e-05,1.78409e-05,-2.97774e-06,-3.46885e-06,1.74009e-05,-1.33046e-05,1.02446e-05,6.30858e-06,7
-2.26219e-05,1.9447e-05,7.51292e-07,-5.59124e-06,2.13065e-05,-9.85847e-06,1.62663e-05,6.74939e-05,7
-2.16392e-05,1.86529e-05,2.13889e-06,-1.25036e-05,2.14187e-05,-7.25606e-06,1.82262e-05,0.000101712,7
-2.21963e-05,1.74369e-05,2.02755e-07,-1.90671e-05,1.86613e-05,-6.40408e-06,1.80753e-05,0.000123492,7
-2.3403e-05,1.52477e-05,-3.33903e-06,-2.57902e-05,1.62324e-05,-4.89444e-06,1.43546e-05,0.000143369,7
-2.49595e-05,1.34673e-05,-4.56762e-06,-2.83156e-05,1.61756e-05,-3.40513e-06,9.11218e-06,0.000143895,7
-2.6552e-05,1.22026e-05,-3.1688e-06,-2.48173e-05,1.70778e-05,-4.73641e-06,2.83053e-06,9.45156e-05,7
-2.67893e-05,1.17929e-05,-1.72615e-06,-1.79594e-05,1.7477e-05,-6.46194e-06,-3.07808e-07,-8.42705e-06,7
-2.58393e-05,1.17716e-05,-3.75019e-07,-1.20403e-05,1.78474e-05,-6.98574e-06,1.3752e-06,-0.000126985,7
-2.59229e-05,1.15362e-05,4.15116e-07,-9.5809e-06,1.80448e-05,-6.49404e-06,3.82261e-06,-0.000210035,7
-2.65937e-05,1.12662e-05,-5.86194e-07,-1.14417e-05,1.75349e-05,-6.70947e-06,5.10868e-06,-0.000226201,7
-2.72308e-05,1.07146e-05,-2.39131e-06,-1.29345e-05,1.62703e-05,-8.7235e-06,6.28945e-06,-0.000177712,7
-2.70964e-05,1.02119e-05,-3.09812e-06,-4.48103e-06,1.60725e-05,-1.15212e-05,9.89804e-06,-9.87581e-05,7
-2.71687e-05,9.8674e-06,-1.36613e-06,9.67482e-06,1.68972e-05,-1.20463e-05,1.46655e-05,-3.64659e-05,7
-2.74958e-05,1.01362e-05,-7.28241e-07,1.71439e-05,1.77426e-05,-8.41545e-06,1.98396e-05,-4.09056e-06,7
-2.71865e-05,1.04206e-05,-3.26707e-06,1.35639e-05,1.85018e-05,-4.86041e-06,2.40636e-05,9.64391e-06,7
-2.57069e-05,1.11674e-05,-6.02486e-06,5.3338e-06,1.83645e-05,-4.67348e-06,2.46866e-05,1.98493e-05,7
-2.36988e-05,1.27957e-05,-6.78633e-06,-3.10521e-06,1.67111e-05,-6.21366e-06,2.07316e-05,2.98263e-05,7
-2.28024e-05,1.42135e-05,-6.87718e-06,-1.1979e-05,1.30251e-05,-7.39853e-06,1.52595e-05,4.11785e-05,7
-2.34374e-05,1.31576e-05,-8.3158e-06,-1.94107e-05,9.01835e-06,-8.70081e-06,1.40339e-05,5.0024e-05,7
-2.45084e-05,1.05233e-05,-1.07892e-05,-2.20904e-05,6.85261e-06,-9.30671e-06,1.88403e-05,4.97676e-05,7
-2.52512e-05,8.10268e-06,-1.22317e-05,-2.10066e-05,5.70709e-06,-8.96276e-06,2.31586e-05,3.93907e-05,7
-2.70553e-05,7.08278e-06,-1.11212e-05,-1.87398e-05,4.77217e-06,-8.32885e-06,2.1559e-05,3.41773e-05,7
-2.88112e-05,7.88858e-06,-7.35433e-06,-1.15463e-05,5.62623e-06,-8.39267e-06,1.8015e-05,4.56665e-05,7
-2.86159e-05,9.40386e-06,-1.57556e-06,3.44769e-07,7.84707e-06,-7.86922e-06,1.77732e-05,6.52085e-05,7
-2.72605e-05,1.15165e-05,3.12813e-06,7.04574e-06,9.2272e-06,-5.96227e-06,1.96177e-05,9.31157e-05,7
-2.7578e-05,1.32714e-05,8.73566e-07,3.93482e-06,1.01279e-05,-4.61159e-06,2.11436e-05,0.000131771,7
-2.83404e-05,1.32609e-05,-8.89911e-06,-3.01075e-06,1.14227e-05,-4.6038e-06,2.26877e-05,0.000158633,7
-2.83839e-05,1.25914e-05,-1.60205e-05,-1.03017e-05,1.14451e-05,-4.38168e-06,2.14918e-05,0.00015384,7
-2.87364e-05,1.16924e-05,-1.64382e-05,-1.84749e-05,1.22406e-05,-3.56159e-06,1.63396e-05,0.000127447,7
-2.9057e-05,9.59864e-06,-1.37362e-05,-2.25026e-05,1.60902e-05,-4.2696e-06,8.27115e-06,7.0215e-05,7
-2.86613e-05,8.6395e-06,-9.84913e-06,-1.59738e-05,1.84749e-05,-5.7993e-06,2.29423e-06,-1.98107e-05,7
-2.79429e-05,1.17567e-05,-7.04514e-06,-2.6591e-06,1.82269e-05,-6.84949e-06,-3.0676e-09,-9.61283e-05,7
-2.75498e-05,1.50562e-05,-4.49855e-06,1.1518e-05,1.73737e-05,-7.91063e-06,-3.61735e-06,-0.000132806,7
-2.74375e-05,1.51723e-05,-9.37764e-07,2.57706e-05,1.69938e-05,-8.4807e-06,-6.31927e-06,-0.000141674,7
-2.76357e-05,1.35447e-05,3.51337e-06,3.80558e-05,1.74494e-05,-8.4237e-06,-5.42896e-06,-0.00014513,7
-2.81635e-05,1.27181e-05,6.96812e-06,4.35776e-05,1.90911e-05,-9.34267e-06,-4.13534e-07,-0.000154548,7
-2.88021e-05,1.2869e-05,5.4478e-06,3.6998e-05,2.15932e-05,-1.05202e-05,8.09636e-06,-0.000163928,7
-2.99436e-05,1.33153e-05,-2.00559e-06,1.48803e-05,2.25893e-05,-1.10894e-05,1.94552e-05,-0.000159232,7
-3.11919e-05,1.28726e-05,-1.16989e-05,-2.0796e-05,2.01932e-05,-1.06967e-05,3.01973e-05,-0.000132575,7
-3.12058e-05,1.18769e-05,-1.80918e-05,-5.46547e-05,1.52135e-05,-9.52448e-06,3.36658e-05,-9.08588e-05,7
-2.98631e-05,1.23517e-05,-1.87846e-05,-6.33449e-05,1.14611e-05,-7.73584e-06,2.89079e-05,-4.43763e-05,7
-2.85888e-05,1.26798e-05,-1.58801e-05,-4.30462e-05,1.13962e-05,-5.79292e-06,2.40938e-05,-7.48224e-06,7
-2.88216e-05,1.22721e-05,-1.36998e-05,-1.52105e-05,1.32521e-05,-3.85735e-06,2.51584e-05,1.00965e-05,7
-2.98844e-05,1.19728e-05,-1.36606e-05,5.96495e-07,1.30287e-05,-1.44513e-06,2.68539e-05,7.49524e-06,7
-3.029e-05,1.30171e-05,-1.31816e-05,3.08954e-06,1.01623e-05,-1.25466e-07,2.35556e-05,-5.04252e-06,7
-2.94003e-05,1.45701e-05,-9.14781e-06,-1.72619e-06,8.33656e-06,-1.48342e-06,1.68012e-05,-1.53107e-05,7
-2.91515e-05,1.58816e-05,-3.67034e-06,-8.48943e-06,9.00909e-06,-4.79234e-06,1.19577e-05,-1.56701e-05,7
-3.09213e-05,1.60005e-05,-1.91993e-06,-1.40624e-05,1.03043e-05,-6.99051e-06,1.01525e-05,-7.28259e-06,7
-3.2881e-05,1.57975e-05,-3.96366e-06,-1.81158e-05,1.13775e-05,-7.56422e-06,1.09718e-05,6.54164e-06,7
-3.23865e-05,1.53979e-05,-6.36639e-06,-2.05092e-05,1.21483e-05,-7.05384e-06,1.24277e-05,1.93505e-05,7
-3.11098e-05,1.50815e-05,-8.14295e-06,-2.17283e-05,1.23032e-05,-6.11193e-06,1.29466e-05,2.62977e-05,7
-3.09452e-05,1.43982e-05,-9.51012e-06,-2.17193e-05,1.19684e-05,-6.3437e-06,1.32902e-05,2.77415e-05,7
-3.02429e-05,1.26731e-05,-9.31873e-06,-2.1302e-05,1.27638e-05,-7.15375e-06,1.23472e-05,2.67505e-05,7
-2.90688e-05,1.2518e-05,-7.79256e-06,-2.02334e-05,1.44258e-05,-7.26696e-06,1.09196e-05,2.62407e-05,7
-2.8745e-05,1.36997e-05,-4.99472e-06,-1.72685e-05,1.4214e-05,-6.12733e-06,1.2477e-05,2.99427e-05,7
-2.90647e-05,1.48266e-05,-2.11585e-06,-1.51169e-05,1.09528e-05,-3.18835e-06,1.38461e-05,3.78475e-05,7
-3.04914e-05,1.47147e-05,-1.29415e-06,-1.45666e-05,6.76896e-06,-2.22619e-06,1.40015e-05,4.07456e-05,7
-3.16033e-05,1.36167e-05,-2.3464e-06,-1.41514e-05,4.94248e-06,-4.84062e-06,1.60517e-05,3.69197e-05,7
-3.23618e-05,1.18357e-05,-3.76751e-06,-1.28813e-05,5.72503e-06,-8.33867e-06,1.78451e-05,2.97548e-05,7
-3.327e-05,9.4381e-06,-5.11131e-06,-9.85605e-06,6.72977e-06,-1.20411e-05,1.81348e-05,2.27204e-05,7
-3.34615e-05,7.02909e-06,-8.2236e-06,-7.88474e-06,7.88675e-06,-1.47932e-05,1.78976e-05,1.68776e-05,7
-3.41905e-05,6.05626e-06,-1.34944e-05,-9.31919e-06,8.55881e-06,-1.55822e-05,1.74272e-05,1.26868e-05,7
-3.46842e-05,6.99222e-06,-1.76299e-05,-1.12423e-05,8.59766e-06,-1.28184e-05,1.45047e-05,1.08014e-05,7
-3.33613e-05,8.87125e-06,-1.78677e-05,-9.63482e-06,1.0417e-05,-8.99718e-06,8.6957e-06,1.26793e-05,7
-3.10268e-05,1.08249e-05,-1.5021e-05,-6.29636e-06,1.27596e-05,-7.47053e-06,7.34401e-07,1.71002e-05,7
-2.99118e-05,1.27357e-05,-1.16628e-05,-4.39974e-06,1.30665e-05,-8.30074e-06,-5.57812e-06,2.13985e-05,7
-2.94136e-05,1.37914e-05,-8.6796e-06,-3.3834e-06,1.14935e-05,-1.0243e-05,-7.23343e-06,2.37018e-05,7
-2.8921e-05,1.29429e-05,-7.1675e-06,-1.29519e-06,9.41765e-06,-1.1991e-05,-6.39585e-06,2.34153e-05,7
-2.8823e-05,1.14662e-05,-6.80379e-06,2.56305e-06,7.35e-06,-1.30809e-05,-4.01834e-06,2.1612e-05,7
-2.86329e-05,1.05414e-05,-6.34437e-06,8.27822e-06,6.1563e-06,-1.39876e-05,3.91861e-07,2.0822e-05,7
-2.7431e-05,1.11536e-05,-6.6106e-06,1.48078e-05,7.87364e-06,-1.51231e-05,6.08579e-06,2.42758e-05,7
-2.61334e-05,1.3008e-05,-7.42383e-06,1.92718e-05,1.52105e-05,-1.47598e-05,1.20908e-05,3.12209e-05,7
-2.6127e-05,1.39792e-05,-6.86279e-06,1.94829e-05,2.62629e-05,-1.21118e-05,1.91547e-05,3.93062e-05,7
-2.71361e-05,1.45133e-05,-4.48302e-06,1.57506e-05,3.15415e-05,-9.44614e-06,2.78543e-05,4.81823e-05,7
-2.77412e-05,1.51158e-05,-2.72501e-06,1.0712e-05,2.64241e-05,-9.15942e-06,3.55889e-05,5.39848e-05,7
-2.66247e-05,1.43612e-05,-4.09185e-06,6.55872e-06,1.84398e-05,-1.10439e-05,3.93362e-05,5.06851e-05,7
-2.60565e-05,1.33994e-05,-7.76535e-06,4.86081e-06,1.25768e-05,-1.36005e-05,3.77022e-05,3.76993e-05,7
-2.707e-05,1.38261e-05,-8.32801e-06,4.96185e-06,1.03221e-05,-1.46265e-05,2.92335e-05,1.9203e-05,7
-2.82924e-05,1.42014e-05,-5.43792e-06,5.74507e-06,1.29971e-05,-1.51588e-05,1.77023e-05,-4.55428e-07,7
-2.93164e-05,1.25376e-05,-4.11804e-06,6.27427e-06,1.61531e-05,-1.47767e-05,8.01819e-06,-1.53215e-05,7
-3.0791e-05,9.96972e-06,-6.58144e-06,3.70338e-06,1.5569e-05,-1.19991e-05,5.04584e-09,-2.36221e-05,7
-3.23097e-05,9.68083e-06,-1.04527e-05,1.72081e-06,1.38513e-05,-9.6712e-06,-2.30294e-06,-2.88594e-05,7
-3.24216e-05,1.20946e-05,-1.06336e-05,4.39648e-06,1.5772e-05,-9.16946e-06,3.3506e-06,-2.98636e-05,7
-3.26098e-05,1.4253e-05,-6.57109e-06,7.38481e-06,1.87389e-05,-8.90305e-06,9.03982e-06,-2.78564e-05,7
-3.31456e-05,1.53578e-05,-3.59318e-06,6.1165e-06,1.88146e-05,-9.24882e-06,9.69748e-06,-2.53583e-05,7
-3.4118e-05,1.57803e-05,-3.87523e-06,1.52801e-06,1.82193e-05,-1.04579e-05,7.66079e-06,-2.25094e-05,7
-3.52343e-05,1.52113e-05,-5.33307e-06,-2.88176e-06,1.75117e-05,-1.18388e-05,7.42362e-06,-1.91806e-05,7
-3.53773e-05,1.41974e-05,-5.33383e-06,-4.34959e-06,1.71269e-05,-1.22999e-05,8.30973e-06,-1.57633e-05,7
-3.56397e-05,1.33297e-05,-2.73404e-06,-1.94578e-06,1.73749e-05,-1.26887e-05,9.32347e-06,-1.29923e-05,7
-3.57444e-05,1.30077e-05,-1.07309e-06,-2.07546e-06,1.64012e-05,-1.19917e-05,1.17007e-05,-1.16573e-05,7
-3.55849e-05,1.27402e-05,-2.18216e-06,-6.09119e-06,1.48258e-05,-9.21006e-06,1.47116e-05,-1.22316e-05,7
-3.54861e-05,1.29141e-05,-4.73845e-06,-9.92928e-06,1.42158e-05,-7.77085e-06,1.50802e-05,-1.20212e-05,7
-3.50613e-05,1.35707e-05,-7.70085e-06,-1.23918e-05,1.5549e-05,-7.89345e-06,1.1233e-05,-5.00505e-06,7
-3.34129e-05,1.35018e-05,-9.42267e-06,-1.42069e-05,1.65954e-05,-8.5641e-06,4.5431e-06,1.12924e-05,7
-3.20211e-05,1.20194e-05,-9.81196e-06,-1.66754e-05,1.59725e-05,-8.50642e-06,-1.37909e-06,2.67209e-05,7
-3.24823e-05,9.95009e-06,-1.00129e-05,-1.75494e-05,1.35159e-05,-8.37405e-06,-1.42267e-06,3.06438e-05,7
-3.42421e-05,8.53763e-06,-1.11254e-05,-1.45243e-05,1.06359e-05,-9.08622e-06,5.50212e-06,2.55277e-05,7
-3.6145e-05,7.86037e-06,-1.36061e-05,-8.10575e-06,1.07144e-05,-1.0581e-05,1.64065e-05,2.04024e-05,7
-3.76731e-05,7.55917e-06,-1.51829e-05,-1.51429e-06,1.40458e-05,-1.16463e-05,2.53725e-05,1.78811e-05,7
-3.83294e-05,8.26598e-06,-1.36104e-05,2.12592e-06,1.77394e-05,-1.15447e-05,2.95364e-05,1.59045e-05,7
-3.63772e-05,9.73721e-06,-1.02607e-05,1.83432e-06,1.94642e-05,-1.03013e-05,2.75938e-05,1.37831e-05,7
-3.38943e-05,1.03343e-05,-6.72136e-06,1.1346e-06,1.77039e-05,-9.13698e-06,2.04134e-05,1.1822e-05,7
-3.39272e-05,1.03582e-05,-3.98862e-06,8.03269e-07,1.19401e-05,-8.84077e-06,1.27808e-05,8.06552e-06,7
-3.37853e-05,9.68184e-06,-3.73025e-06,-1.52915e-06,6.0096e-06,-9.09116e-06,8.93926e-06,-1.05734e-06,7
-3.19277e-05,9.03971e-06,-4.85149e-06,-3.7412e-06,4.95467e-06,-9.99592e-06,6.66897e-06,-1.60485e-05,7
-3.04472e-05,9.65508e-06,-5.57354e-06,-7.4906e-07,8.14314e-06,-9.89476e-06,1.16772e-06,-3.5632e-05,7
-3.00264e-05,1.11411e-05,-6.5533e-06,5.65333e-06,1.18667e-05,-8.71932e-06,-5.97507e-06,-5.18195e-05,7
-3.01983e-05,1.28567e-05,-8.34693e-06,1.11725e-05,1.3384e-05,-7.61121e-06,-9.20287e-06,-5.5369e-05,7
-2.98285e-05,1.45667e-05,-8.86363e-06,1.36596e-05,1.30333e-05,-6.45346e-06,-6.09092e-06,-4.41056e-05,7
-2.86214e-05,1.59138e-05,-7.72999e-06,1.31051e-05,1.51643e-05,-5.30583e-06,1.68028e-06,-2.25315e-05,7
-2.68005e-05,1.59097e-05,-7.61512e-06,1.05585e-05,1.81441e-05,-3.6126e-06,9.87363e-06,-2.25664e-06,7
-2.45847e-05,1.72428e-05,-8.37198e-06,4.74662e-06,1.78928e-05,-1.62615e-06,1.42365e-05,6.56152e-06,7
-2.36542e-05,1.87533e-05,-7.80773e-06,-1.70862e-06,1.383e-05,-1.90992e-06,1.28542e-05,5.57792e-06,7
-2.52255e-05,1.80655e-05,-6.0949e-06,-7.3097e-06,9.80897e-06,-3.74216e-06,1.12504e-05,1.85578e-06,7
-2.79587e-05,1.62562e-05,-4.58283e-06,-7.42368e-06,9.60741e-06,-6.56644e-06,1.48381e-05,-1.68346e-06,7
-3.02849e-05,1.409e-05,-1.66545e-06,-5.91539e-06,1.13915e-05,-8.99311e-06,2.02587e-05,-4.47599e-06,7
-3.14445e-05,1.36022e-05,3.89569e-06,-1.17335e-05,1.3036e-05,-1.01005e-05,2.24201e-05,-5.42122e-06,7
-3.22422e-05,1.4312e-05,7.69953e-06,-2.16249e-05,1.30869e-05,-1.03512e-05,2.01765e-05,-4.37021e-06,7
-3.29166e-05,1.35449e-05,4.7608e-06,-3.02289e-05,1.13439e-05,-1.10152e-05,1.77795e-05,-3.04781e-06,7
-3.31277e-05,1.18606e-05,-2.05786e-06,-3.34142e-05,9.22628e-06,-1.33351e-05,1.82025e-05,-2.79112e-06,7
-3.2962e-05,1.16251e-05,-6.40972e-06,-2.96139e-05,8.08936e-06,-1.53225e-05,1.90234e-05,-3.1491e-06,7
-3.26287e-05,1.17231e-05,-6.11391e-06,-2.09101e-05,8.08395e-06,-1.55752e-05,1.7054e-05,-7.58322e-07,7
-3.29675e-05,1.10532e-05,-2.96165e-06,-1.20498e-05,8.56476e-06,-1.46391e-05,1.38524e-05,5.68118e-06,7
-3.30498e-05,1.06677e-05,1.71771e-07,-5.56578e-06,8.99666e-06,-1.34028e-05,1.16976e-05,1.64591e-05,7
-3.17498e-05,1.08077e-05,1.40657e-06,-6.93001e-07,9.32543e-06,-1.19023e-05,1.05566e-05,3.44137e-05,7
-3.03222e-05,1.06876e-05,9.23807e-07,3.82721e-06,9.78042e-06,-1.19862e-05,1.02361e-05,6.1945e-05,7
-3.10732e-05,1.07857e-05,-1.07049e-06,5.39823e-06,1.03969e-05,-1.35823e-05,9.86617e-06,9.26964e-05,7
-3.29449e-05,1.03208e-05,-5.8831e-06,2.21789e-06,1.08489e-05,-1.51433e-05,7.92166e-06,0.000108755,7
-3.40577e-05,8.85656e-06,-1.0442e-05,1.03922e-07,1.17943e-05,-1.59095e-05,6.78818e-06,0.000101825,7
-3.43574e-05,7.57085e-06,-1.14969e-05,4.02476e-06,1.28809e-05,-1.41865e-05,8.55005e-06,8.29108e-05,7
-3.38077e-05,8.20253e-06,-1.09171e-05,9.75914e-06,1.35161e-05,-1.02018e-05,1.36047e-05,6.49033e-05,7
-3.28237e-05,1.16344e-05,-1.02708e-05,1.0642e-05,1.38643e-05,-7.0029e-06,2.06728e-05,4.62857e-05,7
-3.23264e-05,1.4891e-05,-8.87115e-06,5.83391e-06,1.42428e-05,-4.9901e-06,2.69291e-05,2.35002e-05,7
-3.21493e-05,1.64703e-05,-7.27537e-06,3.79946e-07,1.56229e-05,-3.57601e-06,3.11287e-05,-2.74567e-06,7
-3.22638e-05,1.67323e-05,-7.43929e-06,-2.62843e-06,1.60441e-05,-4.02972e-06,3.3512e-05,-4.37771e-05,7
-3.40744e-05,1.41604e-05,-9.62256e-06,-1.72122e-06,1.53373e-05,-6.96151e-06,3.35234e-05,-8.68725e-05,7
-3.66342e-05,1.04648e-05,-1.26129e-05,5.14834e-06,1.41111e-05,-1.04368e-05,3.09998e-05,-9.80941e-05,7
-3.82362e-05,9.35832e-06,-1.35052e-05,1.18912e-05,1.10431e-05,-1.18988e-05,2.72182e-05,-7.36162e-05,7
-3.75262e-05,1.02991e-05,-1.23949e-05,1.16812e-05,7.65168e-06,-1.25699e-05,2.15315e-05,-3.8935e-05,7
-3.61611e-05,1.21871e-05,-1.05871e-05,5.46306e-06,7.64302e-06,-1.31439e-05,1.71747e-05,-2.02821e-05,7
-3.47732e-05,1.43573e-05,-7.09451e-06,-2.43309e-06,1.03577e-05,-1.34729e-05,1.60296e-05,-2.08739e-05,7
-3.22971e-05,1.55774e-05,-2.78121e-06,-8.05605e-06,1.3122e-05,-1.4229e-05,1.50369e-05,-3.20857e-05,7
-3.07667e-05,1.59774e-05,-4.66793e-07,-1.03915e-05,1.53704e-05,-1.40671e-05,1.3478e-05,-4.23532e-05,7
-3.03662e-05,1.55627e-05,-2.22527e-06,-1.48515e-05,1.59233e-05,-1.27862e-05,1.34629e-05,-4.3096e-05,7
-2.99605e-05,1.49131e-05,-6.96889e-06,-2.47449e-05,1.54407e-05,-1.12305e-05,1.43242e-05,-2.96308e-05,7
-2.94337e-05,1.48485e-05,-1.26413e-05,-3.62556e-05,1.49925e-05,-9.3745e-06,1.32825e-05,-7.84183e-06,7
-2.9617e-05,1.50284e-05,-1.68452e-05,-4.33985e-05,1.42862e-05,-8.27259e-06,8.79345e-06,1.11461e-05,7
-2.95141e-05,1.45217e-05,-1.65106e-05,-4.0957e-05,1.25488e-05,-7.88096e-06,1.99145e-06,2.47487e-05,7
-2.82624e-05,1.44575e-05,-1.21233e-05,-3.03559e-05,1.19875e-05,-7.5604e-06,-3.15196e-06,3.37567e-05,7
-2.65788e-05,1.56706e-05,-8.66386e-06,-1.73368e-05,1.34144e-05,-7.3796e-06,-3.77947e-06,3.18784e-05,7
-2.59158e-05,1.60368e-05,-8.97617e-06,-6.43045e-06,1.43064e-05,-8.38687e-06,-3.95237e-07,6.49411e-06,7
-2.6312e-05,1.49492e-05,-1.15992e-05,8.11717e-07,1.16424e-05,-9.13312e-06,2.10264e-06,-3.91515e-05,7
-2.62914e-05,1.37191e-05,-1.37128e-05,5.10198e-06,5.8848e-06,-7.64422e-06,2.61941e-07,-8.6312e-05,7
-2.602e-05,1.30218e-05,-1.41074e-05,9.14834e-06,1.0154e-06,-5.81437e-06,-1.5062e-06,-0.000114568,7
-2.59754e-05,1.25546e-05,-1.33704e-05,1.40673e-05,-2.74148e-07,-5.86295e-06,1.09473e-06,-0.000114375,7
-2.59642e-05,1.23452e-05,-1.17606e-05,1.60354e-05,1.31395e-07,-7.08581e-06,4.13287e-06,-8.99649e-05,7
-2.6603e-05,1.19613e-05,-8.71928e-06,1.48999e-05,1.17524e-07,-8.45897e-06,3.71394e-06,-5.5196e-05,7
-2.85114e-05,1.19418e-05,-4.50598e-06,1.5404e-05,1.06855e-06,-1.07866e-05,4.26331e-06,-1.97089e-05,7
-3.0003e-05,1.24578e-05,3.98544e-07,1.58272e-05,5.1105e-06,-1.37809e-05,9.55927e-06,1.26015e-05,7
-3.0062e-05,1.31866e-05,4.53034e-06,1.30479e-05,1.39134e-05,-1.55242e-05,1.54709e-05,3.63654e-05,7
-2.97308e-05,1.36178e-05,3.80277e-06,9.84339e-06,2.0823e-05,-1.44896e-05,2.01869e-05,5.39218e-05,7
-2.95574e-05,1.19382e-05,-1.78497e-06,1.38558e-05,2.15468e-05,-1.16266e-05,2.36177e-05,7.11134e-05,7
-2.82106e-05,9.45397e-06,-8.10853e-06,3.15003e-05,1.86372e-05,-7.91442e-06,2.47956e-05,8.00435e-05,7
-2.60031e-05,8.3752e-06,-1.18303e-05,4.89176e-05,1.66899e-05,-4.94661e-06,2.21894e-05,6.70839e-05,7
-2.5091e-05,7.93815e-06,-1.16185e-05,5.10537e-05,1.80076e-05,-4.77308e-06,1.34617e-05,2.77256e-05,7
-2.5021e-05,8.81316e-06,-7.68333e-06,3.75267e-05,2.11852e-05,-7.86462e-06,3.42023e-06,-2.53767e-05,7
-2.61111e-05,1.04881e-05,-1.80901e-06,1.03612e-05,2.42915e-05,-1.10562e-05,-1.41534e-06,-6.95413e-05,7
-2.68453e-05,1.12594e-05,2.30569e-06,-2.78938e-05,2.43199e-05,-1.16775e-05,-1.01145e-06,-8.12729e-05,7
-2.61594e-05,1.15305e-05,2.79788e-06,-7.24983e-05,2.19847e-05,-1.1341e-05,3.23857e-06,-5.18815e-05,7
-2.64541e-05,1.15778e-05,5.38875e-07,-0.000105244,1.92678e-05,-1.14454e-05,8.31816e-06,-4.72758e-06,7
-2.68665e-05,1.1313e-05,-1.68839e-06,-0.000108946,1.68658e-05,-1.14127e-05,1.22899e-05,3.35273e-05,7
-2.68623e-05,1.12262e-05,-3.34753e-06,-8.66179e-05,1.64378e-05,-1.00164e-05,1.75807e-05,5.54042e-05,7
-2.68387e-05,1.21704e-05,-7.04455e-06,-5.69663e-05,1.84568e-05,-8.37289e-06,2.26556e-05,6.09031e-05,7
-2.69548e-05,1.32252e-05,-1.07885e-05,-3.40267e-05,2.11134e-05,-7.7498e-06,2.34596e-05,4.99112e-05,7
-2.70698e-05,1.28906e-05,-1.22444e-05,-1.62324e-05,2.10778e-05,-7.68816e-06,1.94388e-05,3.73429e-05,7
-2.78056e-05,1.14091e-05,-1.18722e-05,6.64318e-07,1.66081e-05,-8.61009e-06,1.44343e-05,3.50984e-05,7
-2.91925e-05,1.01655e-05,-1.16175e-05,1.636e-05,1.07706e-05,-1.01817e-05,1.24466e-05,3.86432e-05,7
-3.03701e-05,8.65144e-06,-1.26599e-05,2.64992e-05,6.19959e-06,-1.14478e-05,1.40621e-05,4.46116e-05,7
-2.99428e-05,7.18944e-06,-1.36074e-05,2.7805e-05,4.09766e-06,-1.22648e-05,1.61417e-05,5.64911e-05,7
-2.75428e-05,8.13737e-06,-1.31515e-05,2.16997e-05,5.12993e-06,-1.20297e-05,1.67321e-05,7.12657e-05,7
-2.46251e-05,1.18347e-05,-1.07544e-05,1.27572e-05,8.56951e-06,-1.05238e-05,1.64354e-05,7.53421e-05,7
-2.25692e-05,1.55874e-05,-7.90963e-06,4.58505e-06,1.32284e-05,-9.20013e-06,1.52999e-05,5.69745e-05,7
