ch1,ch2,ch3,ch4,ch5,ch6,ch7,ch8,class
-2.86717e-05,1.30307e-05,-4.25672e-06,1.95215e-05,3.11972e-05,-1.03946e-05,4.37814e-05,5.91309e-05,7
-2.76591e-05,1.25777e-05,-2.3076e-06,1.77006e-05,2.66439e-05,-1.20557e-05,3.81148e-05,3.90247e-05,7
-2.7579e-05,1.03325e-05,-1.8592e-06,1.97476e-05,1.63888e-05,-1.27152e-05,2.65552e-05,1.26474e-05,7
-2.85843e-05,5.59979e-06,-3.56582e-06,2.41694e-05,3.00051e-06,-1.18026e-05,1.42646e-05,-1.51309e-05,7
-2.98095e-05,2.41935e-06,-7.26325e-06,2.26081e-05,-9.49553e-06,-1.12599e-05,4.32935e-06,-4.61422e-05,7
-3.06981e-05,4.17328e-06,-1.06478e-05,9.92543e-06,-1.74316e-05,-1.18014e-05,-2.88123e-06,-7.75824e-05,7
-3.07557e-05,7.9709e-06,-1.21923e-05,-9.20844e-06,-1.57155e-05,-1.17654e-05,-5.589e-06,-9.80519e-05,7
-2.95565e-05,1.19143e-05,-1.18462e-05,-2.61727e-05,-6.47836e-06,-9.77386e-06,-3.50489e-06,-9.90122e-05,7
-2.65265e-05,1.57985e-05,-7.4922e-06,-3.79631e-05,6.11438e-06,-6.43854e-06,2.03114e-06,-7.77108e-05,7
-2.32332e-05,1.82978e-05,-5.92353e-07,-4.87724e-05,1.8218e-05,-3.79532e-06,1.28752e-05,-4.19456e-05,7
-2.19809e-05,1.87365e-05,4.4466e-06,-6.18627e-05,2.16611e-05,-3.74037e-06,2.92147e-05,-6.0187e-06,7
-2.31791e-05,1.73613e-05,3.88685e-06,-6.41081e-05,1.64331e-05,-5.14614e-06,4.28057e-05,1.37228e-05,7
-2.55973e-05,1.53381e-05,-2.86741e-06,-5.19581e-05,1.06856e-05,-6.25205e-06,5.08185e-05,1.66141e-05,7
-2.70224e-05,1.35613e-05,-9.59569e-06,-3.55973e-05,1.16175e-05,-7.01849e-06,5.5031e-05,1.7797e-05,7
-2.58009e-05,1.39002e-05,-1.12207e-05,-2.30498e-05,1.91266e-05,-8.44458e-06,5.0213e-05,2.13587e-05,7
-2.35261e-05,1.55267e-05,-9.45089e-06,-1.69886e-05,2.59223e-05,-8.79467e-06,3.73999e-05,2.77397e-05,7
-2.29638e-05,1.48085e-05,-1.1093e-05,-1.24736e-05,2.60873e-05,-8.85741e-06,2.20075e-05,2.82882e-05,7
-2.42387e-05,1.22141e-05,-1.49283e-05,-5.59903e-06,2.08551e-05,-1.13064e-05,8.16325e-06,2.01346e-05,7
-2.60703e-05,9.85131e-06,-1.69018e-05,3.74494e-06,1.63564e-05,-1.33671e-05,-2.28789e-06,9.67703e-06,7
-2.61513e-05,8.72702e-06,-1.62235e-05,1.03815e-05,1.65255e-05,-1.2939e-05,-9.08354e-06,2.65011e-06,7
-2.46852e-05,9.55482e-06,-1.40472e-05,1.11203e-05,2.08605e-05,-9.68802e-06,-1.24762e-05,-7.45506e-08,7
-2.34251e-05,1.08059e-05,-1.25643e-05,1.00759e-05,2.48175e-05,-6.44154e-06,-1.20952e-05,1.35761e-07,7
-2.28328e-05,1.15011e-05,-1.09529e-05,9.31708e-06,2.57528e-05,-6.30174e-06,-5.7845e-06,2.2061e-06,7
-2.23871e-05,1.1152e-05,-8.81632e-06,8.83636e-06,2.44472e-05,-8.99743e-06,4.72116e-06,5.33708e-06,7
-2.19197e-05,1.08492e-05,-6.28632e-06,6.06577e-06,2.42594e-05,-1.12827e-05,1.65762e-05,1.22306e-05,7
-2.18278e-05,1.1709e-05,-4.20559e-06,1.98903e-06,2.60608e-05,-1.01582e-05,2.7404e-05,2.03054e-05,7
-2.22033e-05,1.31115e-05,-2.64947e-06,-8.63663e-07,2.8451e-05,-7.11302e-06,3.36877e-05,2.61933e-05,7
-2.31962e-05,1.49744e-05,-1.69282e-06,-3.19379e-07,2.96052e-05,-5.08845e-06,3.34975e-05,2.80233e-05,7
-2.35975e-05,1.68511e-05,-1.84934e-07,2.12978e-06,2.66022e-05,-4.92873e-06,2.90439e-05,3.28472e-05,7
-2.28227e-05,1.71394e-05,2.42222e-07,4.74862e-06,1.94993e-05,-5.96104e-06,2.36308e-05,5.579e-05,7
-2.20894e-05,1.5576e-05,-2.39754e-06,5.81067e-06,1.11997e-05,-7.99774e-06,1.8214e-05,0.000113503,7
-2.25083e-05,1.36946e-05,-5.11932e-06,6.63531e-06,5.51333e-06,-1.0497e-05,1.16476e-05,0.000187629,7
-2.37167e-05,1.26529e-05,-5.12516e-06,7.5402e-06,2.92233e-06,-1.27155e-05,3.03858e-06,0.000231664,7
-2.45298e-05,1.2993e-05,-4.31737e-06,5.48228e-06,1.12942e-06,-1.39189e-05,-4.21827e-06,0.000234777,7
-2.40303e-05,1.3837e-05,-4.37432e-06,1.77039e-06,2.9662e-07,-1.23392e-05,-6.56872e-06,0.000224506,7
-2.44357e-05,1.3967e-05,-2.46049e-06,2.81623e-07,2.17154e-06,-9.46431e-06,-6.28103e-06,0.000217957,7
-2.85779e-05,1.33086e-05,2.49767e-06,-5.05777e-07,3.83475e-06,-1.00819e-05,-5.11582e-06,0.000201283,7
-3.31288e-05,1.19888e-05,5.77659e-06,-4.93522e-06,5.52301e-06,-1.39502e-05,7.97583e-07,0.000127548,7
-3.30988e-05,1.11654e-05,4.3684e-06,-7.99763e-06,6.2862e-06,-1.69289e-05,9.53137e-06,-1.5589e-05,7
-3.01824e-05,1.33477e-05,1.38381e-06,-6.37422e-06,1.79844e-06,-1.68028e-05,1.67964e-05,-0.000187649,7
-2.89398e-05,1.63958e-05,-1.16414e-06,-3.19768e-06,-8.22901e-06,-1.45567e-05,2.09474e-05,-0.000332493,7
-2.85575e-05,1.72988e-05,-4.04803e-06,-1.64545e-06,-2.01695e-05,-1.08179e-05,2.15088e-05,-0.000383625,7
-2.851e-05,1.63448e-05,-4.70822e-06,-4.29558e-07,-2.47336e-05,-7.58193e-06,2.17062e-05,-0.000328617,7
-2.91117e-05,1.51223e-05,-2.49708e-06,2.56464e-06,-1.74671e-05,-6.20518e-06,2.20482e-05,-0.000229141,7
-2.94781e-05,1.58635e-05,-4.81e-07,5.75674e-06,7.04841e-07,-5.11982e-06,2.3801e-05,-0.000153087,7
-3.09156e-05,1.73207e-05,-1.62377e-06,8.40414e-06,2.24785e-05,-5.62673e-06,2.53633e-05,-0.00011031,7
-3.25156e-05,1.64876e-05,-6.84047e-06,1.0016e-05,3.53534e-05,-7.76208e-06,2.47195e-05,-8.55908e-05,7
-3.22029e-05,1.45296e-05,-1.36463e-05,9.69505e-06,3.45595e-05,-8.30454e-06,2.23554e-05,-6.81945e-05,7
-3.10284e-05,1.31837e-05,-1.73612e-05,9.37839e-06,2.56001e-05,-6.15909e-06,2.03279e-05,-5.5496e-05,7
-3.20209e-05,1.27451e-05,-1.53606e-05,1.00481e-05,1.77306e-05,-4.19352e-06,2.39815e-05,-4.83272e-05,7
-3.43436e-05,1.24165e-05,-1.08946e-05,9.27281e-06,1.38915e-05,-5.24153e-06,3.23341e-05,-4.34103e-05,7
-3.53967e-05,1.20434e-05,-7.70622e-06,9.26234e-06,1.37295e-05,-6.91119e-06,3.6262e-05,-3.633e-05,7
-3.49494e-05,1.28592e-05,-6.9081e-06,1.54128e-05,1.60962e-05,-6.34412e-06,2.84896e-05,-2.13555e-05,7
-3.31028e-05,1.45363e-05,-6.86019e-06,2.31295e-05,1.96054e-05,-4.59283e-06,1.18255e-05,-8.31015e-07,7
-3.05702e-05,1.58998e-05,-6.99995e-06,2.32342e-05,2.26101e-05,-4.35829e-06,-3.24144e-06,2.17725e-05,7
-2.91946e-05,1.55269e-05,-7.1389e-06,1.52248e-05,2.28384e-05,-6.66459e-06,-8.33451e-06,4.97323e-05,7
-2.96097e-05,1.42819e-05,-7.04643e-06,2.80517e-06,2.13875e-05,-8.93816e-06,-3.56653e-06,8.36048e-05,7
-3.01857e-05,1.41655e-05,-6.90446e-06,-1.65292e-05,2.17409e-05,-1.06856e-05,5.33252e-06,0.000104512,7
-3.08338e-05,1.52718e-05,-7.19163e-06,-4.64605e-05,2.48815e-05,-1.31169e-05,1.0653e-05,0.000100558,7
-3.18906e-05,1.57731e-05,-7.85791e-06,-8.20596e-05,2.88921e-05,-1.46035e-05,7.9097e-06,7.99373e-05,7
-3.30971e-05,1.56543e-05,-8.14339e-06,-0.000105331,3.19994e-05,-1.32895e-05,-4.96686e-07,5.39351e-05,7
-3.33895e-05,1.58515e-05,-7.13963e-06,-9.93913e-05,3.39295e-05,-1.13648e-05,-8.46102e-06,2.41548e-05,7
-3.35769e-05,1.54137e-05,-3.88855e-06,-6.89729e-05,3.44011e-05,-1.18866e-05,-1.3754e-05,-1.2531e-05,7
-3.38631e-05,1.33812e-05,-1.45053e-06,-3.57241e-05,3.29256e-05,-1.37338e-05,-1.63164e-05,-5.185e-05,7
-3.37796e-05,1.2448e-05,-3.46103e-06,-1.43501e-05,2.86101e-05,-1.51808e-05,-1.45013e-05,-8.83806e-05,7
-3.49202e-05,1.19104e-05,-6.29707e-06,-4.39936e-06,2.18689e-05,-1.35111e-05,-8.74466e-06,-0.000103696,7
-3.49213e-05,1.09792e-05,-6.13566e-06,5.44201e-06,1.63366e-05,-1.01342e-05,-2.34895e-06,-8.77982e-05,7
-3.38928e-05,1.08217e-05,-4.50775e-06,2.16476e-05,1.41605e-05,-8.9151e-06,6.55727e-06,-5.88181e-05,7
-3.33787e-05,1.06745e-05,-3.53868e-06,3.68895e-05,1.5004e-05,-1.02054e-05,1.643e-05,-3.1763e-05,7
-3.3522e-05,1.17054e-05,-4.23301e-06,4.25462e-05,1.63308e-05,-1.2487e-05,2.29826e-05,-1.36119e-05,7
-3.33957e-05,1.26618e-05,-7.05179e-06,3.54117e-05,1.77145e-05,-1.29167e-05,2.59934e-05,-5.93594e-07,7
-3.19372e-05,1.32663e-05,-1.14385e-05,2.30457e-05,1.73648e-05,-1.1504e-05,2.22241e-05,8.0712e-06,7
-3.05093e-05,1.34207e-05,-1.44832e-05,1.48511e-05,1.40591e-05,-7.84435e-06,1.46681e-05,2.12368e-05,7
-2.93584e-05,1.36215e-05,-1.32553e-05,1.47553e-05,1.04061e-05,-4.27142e-06,1.2276e-05,5.83493e-05,7
-2.97416e-05,1.37641e-05,-9.487e-06,1.83051e-05,9.11273e-06,-3.79527e-06,1.83248e-05,0.000105355,7
-3.17011e-05,1.32786e-05,-7.86606e-06,1.81723e-05,9.92038e-06,-4.64046e-06,2.74131e-05,0.000124131,7
-3.40651e-05,1.10737e-05,-9.82757e-06,1.1707e-05,1.13121e-05,-4.9959e-06,3.37319e-05,0.000105708,7
-3.46068e-05,8.57429e-06,-1.24601e-05,8.95931e-07,1.27021e-05,-6.56989e-06,3.48456e-05,6.8776e-05,7
-3.29674e-05,6.91096e-06,-1.32708e-05,-1.12888e-05,1.34883e-05,-8.4695e-06,3.11411e-05,2.91928e-05,7
-3.17585e-05,5.2417e-06,-1.23361e-05,-2.23427e-05,1.49186e-05,-9.25083e-06,2.4476e-05,-4.89934e-06,7
-3.18035e-05,5.1783e-06,-9.51286e-06,-2.9072e-05,1.7171e-05,-1.01041e-05,1.53041e-05,-2.85187e-05,7
-3.18173e-05,7.10667e-06,-5.30541e-06,-3.1488e-05,1.76655e-05,-1.00463e-05,5.48485e-06,-3.82265e-05,7
-3.08967e-05,1.06619e-05,-1.17118e-06,-3.17011e-05,1.49596e-05,-8.52298e-06,-1.30323e-06,-3.93655e-05,7
-2.96614e-05,1.29291e-05,9.0674e-07,-3.10552e-05,1.36766e-05,-6.95602e-06,-4.16993e-06,-3.56358e-05,7
-2.82515e-05,1.22118e-05,5.77612e-07,-2.77184e-05,1.69035e-05,-6.42857e-06,-5.36935e-06,-2.68682e-05,7
-2.62457e-05,1.0671e-05,8.51054e-08,-2.13291e-05,2.14973e-05,-5.61533e-06,-9.69581e-06,-6.05704e-06,7
-2.47768e-05,1.11207e-05,-7.24448e-08,-1.42837e-05,2.18525e-05,-4.37474e-06,-1.92692e-05,2.949e-05,7
-2.52335e-05,1.24831e-05,-2.08862e-06,-1.10029e-05,1.92986e-05,-4.44107e-06,-2.75917e-05,6.20333e-05,7
-2.62621e-05,1.21075e-05,-5.35658e-06,-1.18064e-05,1.83035e-05,-6.18125e-06,-2.59651e-05,6.90018e-05,7
-2.64246e-05,1.11693e-05,-7.30384e-06,-1.33108e-05,1.78502e-05,-7.32275e-06,-1.46596e-05,5.12415e-05,7
-2.62959e-05,1.15966e-05,-8.19889e-06,-1.23342e-05,1.61086e-05,-7.43362e-06,-1.57925e-06,2.49228e-05,7
-2.85816e-05,1.18532e-05,-7.30905e-06,-5.84638e-06,9.50212e-06,-7.75994e-06,8.18169e-06,-2.2015e-06,7
-3.15114e-05,1.05102e-05,-4.1826e-06,2.76607e-06,-1.33885e-07,-7.85616e-06,1.46111e-05,-2.58983e-05,7
-3.26845e-05,8.15401e-06,-2.30407e-06,7.46069e-06,-6.14006e-06,-7.11948e-06,1.95366e-05,-3.95762e-05,7
-3.20098e-05,8.79088e-06,-1.56662e-06,8.91368e-06,-6.70826e-06,-7.03437e-06,2.32544e-05,-4.18828e-05,7
-2.97138e-05,9.91796e-06,-1.15605e-06,1.09664e-05,-3.72785e-06,-7.41936e-06,2.7686e-05,-3.45794e-05,7
-2.79093e-05,1.06738e-05,-1.08806e-06,1.59667e-05,7.9033e-07,-8.46968e-06,3.56271e-05,-2.32801e-05,7
-2.70501e-05,1.29544e-05,-3.21782e-06,2.1365e-05,8.70415e-06,-1.00634e-05,4.47107e-05,-1.05423e-05,7
-2.68648e-05,1.41988e-05,-8.64708e-06,2.10585e-05,1.67547e-05,-9.59746e-06,4.59392e-05,3.25595e-07,7
-2.6161e-05,1.51534e-05,-1.39909e-05,1.5457e-05,1.73723e-05,-5.11709e-06,3.38894e-05,5.75943e-06,7
-2.58339e-05,1.51533e-05,-1.55787e-05,1.14723e-05,1.06361e-05,8.07076e-07,1.36345e-05,5.03479e-06,7
-2.6472e-05,1.42453e-05,-1.34645e-05,2.12577e-05,3.17083e-06,2.01426e-06,-5.32756e-06,2.91105e-07,7
-2.83235e-05,1.30791e-05,-1.06174e-05,4.94288e-05,5.72933e-07,-2.23199e-06,-1.47278e-05,-2.10741e-06,7
-3.08116e-05,1.30553e-05,-9.41841e-06,8.28546e-05,7.71539e-07,-8.20825e-06,-1.25314e-05,1.44649e-06,7
-3.24482e-05,1.38706e-05,-1.12621e-05,0.000106343,-3.94803e-07,-1.19824e-05,-3.89599e-06,1.20944e-05,7
-3.30898e-05,1.45296e-05,-1.40371e-05,0.0001154,-2.53969e-06,-1.07635e-05,3.853e-06,2.12601e-05,7
-3.28608e-05,1.45589e-05,-1.52755e-05,0.000105285,-3.73215e-06,-7.13371e-06,7.89824e-06,2.05941e-05,7
-3.26038e-05,1.42037e-05,-1.41633e-05,6.85645e-05,-2.87159e-06,-5.16138e-06,9.86621e-06,1.1633e-05,7
-3.2476e-05,1.49344e-05,-1.17912e-05,6.40667e-06,6.93684e-07,-4.2563e-06,1.22867e-05,6.04404e-06,7
-3.19353e-05,1.66502e-05,-8.65936e-06,-6.84838e-05,5.60709e-06,-4.13237e-06,1.52717e-05,1.0584e-05,7
-3.05299e-05,1.88584e-05,-5.70641e-06,-0.000135142,8.77468e-06,-5.9246e-06,1.71889e-05,2.03561e-05,7
-3.06783e-05,1.98102e-05,-4.76261e-06,-0.000171825,8.78231e-06,-9.79165e-06,1.92776e-05,2.68161e-05,7
-3.35876e-05,1.74709e-05,-6.71238e-06,-0.000169278,8.1525e-06,-1.22928e-05,2.39952e-05,3.24898e-05,7
-3.69502e-05,1.38541e-05,-9.41957e-06,-0.000139579,9.39262e-06,-1.25007e-05,3.07437e-05,4.07948e-05,7
-3.89928e-05,1.18793e-05,-1.14215e-05,-0.000103879,1.15027e-05,-1.30216e-05,3.59538e-05,4.30686e-05,7
-3.94623e-05,1.23217e-05,-1.15028e-05,-7.02775e-05,1.32385e-05,-1.30015e-05,3.5153e-05,3.65667e-05,7
-3.87936e-05,1.42681e-05,-9.26788e-06,-3.13463e-05,1.43871e-05,-1.15504e-05,3.10953e-05,1.71954e-05,7
-3.84539e-05,1.53117e-05,-6.22566e-06,8.40845e-06,1.2841e-05,-1.04124e-05,2.80353e-05,-1.7193e-05,7
-3.76089e-05,1.45658e-05,-3.81218e-06,3.15672e-05,8.39427e-06,-1.10812e-05,2.26395e-05,-4.98971e-05,7
-3.51772e-05,1.36674e-05,-5.04509e-06,3.02171e-05,6.1637e-06,-1.13811e-05,1.55022e-05,-5.63943e-05,7
-3.29809e-05,1.33191e-05,-9.28092e-06,1.91093e-05,1.01029e-05,-1.02513e-05,1.18622e-05,-3.58447e-05,7
-3.16985e-05,1.2748e-05,-1.30527e-05,1.69694e-05,1.7627e-05,-9.64642e-06,1.3641e-05,-1.35027e-05,7
-3.09428e-05,1.11405e-05,-1.43918e-05,2.44592e-05,2.2678e-05,-1.04913e-05,1.27791e-05,-2.95254e-07,7
-3.01235e-05,1.01897e-05,-1.33754e-05,4.0509e-05,2.3213e-05,-1.19386e-05,5.92487e-06,7.8439e-06,7
-2.8325e-05,1.14016e-05,-1.19826e-05,6.30751e-05,2.22741e-05,-1.27956e-05,-1.39474e-06,1.50451e-05,7
-2.57997e-05,1.35843e-05,-1.09514e-05,8.45216e-05,2.0765e-05,-1.23318e-05,-6.6253e-06,1.7389e-05,7
-2.32067e-05,1.53075e-05,-8.50582e-06,9.47346e-05,1.93751e-05,-1.1729e-05,-6.04001e-06,3.27355e-05,7
-2.28387e-05,1.37412e-05,-5.36883e-06,8.72614e-05,2.13708e-05,-1.34672e-05,-1.89366e-07,7.93789e-05,7
-2.46935e-05,1.09556e-05,-5.21966e-06,6.31685e-05,2.62883e-05,-1.57588e-05,8.97367e-06,0.00013047,7
-2.70624e-05,9.43325e-06,-8.37823e-06,2.5849e-05,2.90953e-05,-1.72874e-05,1.7527e-05,0.000143793,7
-2.97738e-05,8.64026e-06,-1.15644e-05,-2.24764e-05,2.5353e-05,-1.77258e-05,2.34305e-05,0.000108381,7
-3.1918e-05,9.33697e-06,-1.21941e-05,-7.22287e-05,1.5835e-05,-1.74659e-05,2.51955e-05,4.99454e-05,7
-3.20926e-05,1.15803e-05,-1.06999e-05,-0.000109326,5.82682e-06,-1.71823e-05,2.18872e-05,-1.09374e-05,7
-3.02839e-05,1.39639e-05,-9.42385e-06,-0.000128817,3.94124e-06,-1.61434e-05,1.75037e-05,-6.97552e-05,7
-2.82115e-05,1.56095e-05,-8.54755e-06,-0.000128466,1.54429e-05,-1.33708e-05,1.47166e-05,-0.00012473,7
-2.59307e-05,1.71963e-05,-6.22441e-06,-0.000107798,3.41341e-05,-9.25912e-06,1.32358e-05,-0.000165632,7
-2.37621e-05,1.94127e-05,-8.84863e-07,-7.44524e-05,4.61052e-05,-6.03126e-06,1.11946e-05,-0.000185407,7
-2.32651e-05,2.06613e-05,5.95675e-06,-4.2427e-05,4.25421e-05,-4.4689e-06,1.04905e-05,-0.000180295,7
-2.56328e-05,1.86831e-05,9.5663e-06,-1.9593e-05,2.82437e-05,-5.93589e-06,1.13613e-05,-0.000153608,7
-2.85316e-05,1.53323e-05,7.50423e-06,-6.41708e-06,1.4877e-05,-1.00975e-05,1.27801e-05,-0.000114078,7
-2.99705e-05,1.34673e-05,3.10305e-06,-1.10162e-06,7.90577e-06,-1.30489e-05,1.54089e-05,-7.24417e-05,7
-3.0167e-05,1.2572e-05,-1.26933e-06,-5.65115e-07,5.76177e-06,-1.30072e-05,1.80978e-05,-3.24281e-05,7
-3.03695e-05,1.15445e-05,-5.07514e-06,-1.6467e-06,5.2189e-06,-1.22373e-05,1.73746e-05,1.03215e-05,7
-2.99603e-05,1.06784e-05,-9.30779e-06,-2.42342e-06,5.68221e-06,-1.25208e-05,1.30796e-05,4.90969e-05,7
-2.81739e-05,1.04929e-05,-1.36495e-05,-3.78373e-06,8.25525e-06,-1.39803e-05,8.92568e-06,6.84018e-05,7
-2.68188e-05,9.9532e-06,-1.45725e-05,-4.90448e-06,1.31839e-05,-1.40636e-05,9.37948e-06,6.72597e-05,7
-2.71119e-05,8.77589e-06,-1.12969e-05,-6.95033e-06,1.95278e-05,-1.35586e-05,1.4897e-05,5.58108e-05,7
-2.84147e-05,8.33947e-06,-6.97371e-06,-1.04609e-05,2.33725e-05,-1.27541e-05,2.41469e-05,5.30132e-05,7
-2.83083e-05,8.05547e-06,-5.59328e-06,-1.31039e-05,2.39419e-05,-1.09025e-05,3.06784e-05,6.52408e-05,7
-2.68609e-05,8.18422e-06,-6.6387e-06,-1.53645e-05,2.20102e-05,-9.93024e-06,2.90407e-05,7.15171e-05,7
-2.56634e-05,8.68624e-06,-7.93445e-06,-1.75004e-05,1.71122e-05,-9.59074e-06,2.12544e-05,6.65559e-05,7
-2.66008e-05,8.72069e-06,-8.88535e-06,-2.01589e-05,8.85277e-06,-8.40886e-06,1.49361e-05,5.63978e-05,7
-2.88227e-05,8.51449e-06,-1.07013e-05,-2.05622e-05,1.12198e-06,-7.57695e-06,1.47816e-05,3.7949e-05,7
-3.09248e-05,7.81774e-06,-1.31333e-05,-1.70253e-05,-7.7379e-07,-9.27326e-06,1.36337e-05,1.17151e-05,7
-3.26924e-05,6.04645e-06,-1.36796e-05,-9.05928e-06,2.4057e-06,-1.1741e-05,1.15674e-05,-8.76075e-06,7
-3.28117e-05,4.40382e-06,-1.13117e-05,1.87079e-06,7.48102e-06,-1.26399e-05,9.82254e-06,-1.83151e-05,7
-3.01696e-05,5.22366e-06,-7.24652e-06,1.22882e-05,1.08486e-05,-1.12253e-05,3.78373e-06,-2.45821e-05,7
-2.61757e-05,9.80129e-06,-4.01764e-06,2.06112e-05,9.89895e-06,-9.03364e-06,-7.2426e-06,-3.28473e-05,7
-2.36046e-05,1.49486e-05,-3.80566e-06,2.50583e-05,5.8382e-06,-6.27765e-06,-1.57286e-05,-3.86754e-05,7
-2.31115e-05,1.69792e-05,-4.05513e-06,2.84315e-05,3.07837e-06,-3.57116e-06,-1.4021e-05,-3.64334e-05,7
-2.3521e-05,1.57096e-05,-9.76913e-07,3.31064e-05,4.24467e-06,-2.24463e-06,-3.9261e-06,-2.71148e-05,7
-2.46423e-05,1.34687e-05,3.04102e-06,3.66996e-05,6.57306e-06,-3.67544e-06,6.6773e-06,-1.67828e-05,7
-2.72645e-05,1.18628e-05,2.83272e-06,3.34115e-05,6.12323e-06,-6.69767e-06,1.26642e-05,-9.89667e-06,7
-3.01745e-05,1.0121e-05,-2.52527e-06,2.43852e-05,2.72805e-06,-8.19222e-06,1.34595e-05,-6.14091e-06,7
-3.19963e-05,8.98225e-06,-7.92558e-06,1.62681e-05,-3.65462e-06,-8.33847e-06,9.91059e-06,-3.82213e-06,7
-3.20901e-05,8.78004e-06,-1.00527e-05,1.14075e-05,-1.21378e-05,-8.21553e-06,8.08004e-06,-2.81466e-06,7
-3.00605e-05,1.00115e-05,-9.06856e-06,8.07191e-06,-1.70825e-05,-6.61511e-06,1.21894e-05,-2.28938e-06,7
-2.70582e-05,1.2813e-05,-6.82612e-06,5.68759e-06,-1.08694e-05,-2.52782e-06,1.64012e-05,-1.38044e-06,7
-2.42611e-05,1.57542e-05,-4.06923e-06,4.47566e-06,1.00323e-05,1.17632e-06,1.44224e-05,-1.23715e-06,7
-2.15785e-05,1.69206e-05,-5.4155e-07,3.68097e-06,3.48723e-05,9.20008e-07,1.10094e-05,1.07046e-06,7
-1.92765e-05,1.54142e-05,1.74579e-06,1.51077e-06,4.567e-05,-3.03285e-06,1.33157e-05,9.5661e-06,7
-1.94663e-05,1.27792e-05,2.51912e-06,5.99739e-07,4.02972e-05,-6.74428e-06,1.82907e-05,2.04583e-05,7
-2.19851e-05,1.16115e-05,1.56517e-06,1.99051e-06,2.74964e-05,-9.48143e-06,2.16432e-05,2.55696e-05,7
-2.34883e-05,1.26129e-05,-5.50681e-07,-9.93247e-07,1.70545e-05,-1.11264e-05,2.50262e-05,2.23476e-05,7
-2.41254e-05,1.43866e-05,-2.12786e-06,-9.47404e-06,1.26782e-05,-1.16657e-05,2.51475e-05,1.54665e-05,7
-2.4058e-05,1.41747e-05,-3.02865e-06,-1.8546e-05,1.20255e-05,-1.16596e-05,1.82811e-05,1.10603e-05,7
-2.41996e-05,1.18255e-05,-3.45619e-06,-2.0268e-05,1.33443e-05,-1.02561e-05,8.26263e-06,8.88482e-06,7
-2.50767e-05,1.00098e-05,-3.53363e-06,-1.25565e-05,1.51666e-05,-9.58869e-06,2.41216e-06,6.97418e-06,7
-2.61133e-05,1.10279e-05,-2.23985e-06,-2.62541e-06,1.84724e-05,-1.18679e-05,4.20935e-06,8.48497e-06,7
-2.67983e-05,1.25005e-05,4.64754e-08,3.23424e-06,2.10888e-05,-1.46968e-05,1.21622e-05,2.45492e-05,7
-2.74844e-05,1.14502e-05,-1.79217e-07,2.52893e-06,2.13615e-05,-1.56528e-05,2.15547e-05,4.86822e-05,7
-2.90397e-05,8.96586e-06,-4.13939e-06,-3.3755e-06,1.98366e-05,-1.52157e-05,2.52267e-05,6.23168e-05,7
-3.10697e-05,6.62404e-06,-1.06109e-05,-1.03785e-05,1.7547e-05,-1.49326e-05,2.24167e-05,6.23908e-05,7
-3.36097e-05,6.1964e-06,-1.82665e-05,-1.80376e-05,1.43931e-05,-1.45424e-05,1.89454e-05,5.6345e-05,7
-3.43331e-05,8.61753e-06,-2.35541e-05,-2.59078e-05,1.07895e-05,-1.24078e-05,2.24553e-05,4.81674e-05,7
-3.22999e-05,1.27533e-05,-2.21682e-05,-2.88928e-05,9.56711e-06,-8.51266e-06,3.38041e-05,3.14371e-05,7
-2.88904e-05,1.62078e-05,-1.45667e-05,-2.40984e-05,1.4433e-05,-5.11887e-06,4.41116e-05,4.87476e-06,7
-2.71892e-05,1.75338e-05,-6.78015e-06,-1.36492e-05,2.66199e-05,-4.85564e-06,4.69714e-05,-2.57153e-05,7
-2.82055e-05,1.66567e-05,-3.75356e-06,-3.56545e-06,4.01567e-05,-7.53792e-06,4.4253e-05,-5.43517e-05,7
-3.03998e-05,1.51482e-05,-6.84868e-06,-7.30539e-07,4.57337e-05,-9.99161e-06,3.92434e-05,-7.58638e-05,7
-3.18686e-05,1.41356e-05,-1.35319e-05,-5.27905e-06,4.00863e-05,-9.83392e-06,2.96148e-05,-7.95288e-05,7
-3.25629e-05,1.41802e-05,-1.81402e-05,-1.05884e-05,2.77765e-05,-7.60308e-06,1.25719e-05,-5.50564e-05,7
-3.23568e-05,1.34012e-05,-1.7646e-05,-1.19244e-05,1.33421e-05,-5.29711e-06,-8.21736e-06,-1.07042e-05,7
-3.21892e-05,1.13572e-05,-1.39506e-05,-8.76561e-06,-5.33776e-08,-6.09195e-06,-2.34698e-05,2.41108e-05,7
-3.46845e-05,1.04155e-05,-9.23742e-06,-2.59996e-06,-8.15341e-06,-9.58796e-06,-2.36688e-05,3.59526e-05,7
-3.81528e-05,1.04202e-05,-4.9646e-06,4.75678e-06,-9.22299e-06,-1.16292e-05,-8.56314e-06,4.1077e-05,7
-4.0232e-05,1.0663e-05,-2.22897e-06,1.15503e-05,-6.09961e-06,-1.07981e-05,8.43471e-06,5.01815e-05,7
-3.95642e-05,1.16399e-05,-8.19986e-07,1.61381e-05,-6.0414e-07,-8.35572e-06,1.57006e-05,5.71453e-05,7
-3.74159e-05,1.25819e-05,3.36435e-07,1.90763e-05,5.84072e-06,-5.73619e-06,1.48045e-05,4.75162e-05,7
-3.65865e-05,1.17761e-05,9.11735e-07,2.14026e-05,1.25762e-05,-5.65079e-06,1.24989e-05,9.36013e-06,7
-3.77835e-05,1.01083e-05,-6.65052e-07,2.185e-05,1.67127e-05,-7.10756e-06,1.14325e-05,-4.64371e-05,7
-3.98156e-05,8.28048e-06,-3.36671e-06,2.20071e-05,2.06794e-05,-9.03031e-06,1.01309e-05,-8.82499e-05,7
-4.131e-05,6.75042e-06,-5.38493e-06,2.56776e-05,2.78454e-05,-1.12816e-05,9.08441e-06,-9.79705e-05,7
-4.10107e-05,7.69098e-06,-5.64832e-06,2.98247e-05,2.74497e-05,-1.14913e-05,8.39371e-06,-8.31006e-05,7
-3.9236e-05,9.96732e-06,-5.69805e-06,2.99456e-05,1.60079e-05,-1.10368e-05,6.17815e-06,-5.99845e-05,7
-3.97929e-05,1.16962e-05,-8.08022e-06,1.92844e-05,4.18985e-06,-1.12242e-05,3.17209e-06,-3.26927e-05,7
-4.22383e-05,1.23311e-05,-1.09377e-05,-3.74582e-06,-1.6487e-06,-1.20577e-05,9.91428e-07,-4.9079e-06,7
-4.33591e-05,1.20968e-05,-1.06053e-05,-3.15219e-05,-2.01321e-06,-1.23633e-05,-2.24176e-08,1.34626e-05,7
-4.31072e-05,1.19392e-05,-7.43943e-06,-5.35497e-05,-5.17463e-07,-1.12989e-05,1.42308e-06,1.86804e-05,7
-4.19984e-05,1.1626e-05,-4.26566e-06,-5.68578e-05,-2.86511e-06,-1.02912e-05,3.52361e-06,1.68733e-05,7
-4.07129e-05,1.21692e-05,-2.92209e-06,-4.17904e-05,-9.94845e-06,-1.08026e-05,4.11237e-06,1.54851e-05,7
-4.01054e-05,1.31392e-05,-3.47296e-06,-2.28194e-05,-1.59776e-05,-1.20576e-05,3.71829e-06,1.89528e-05,7
-3.89932e-05,1.32356e-05,-4.18676e-06,-1.09024e-05,-1.27458e-05,-1.24293e-05,6.02657e-07,3.02699e-05,7
-3.48209e-05,1.27762e-05,-3.74473e-06,-4.71211e-06,3.0454e-06,-1.12207e-05,-7.72447e-06,4.22494e-05,7
-2.9648e-05,1.29177e-05,-3.40631e-06,-1.89383e-06,2.26284e-05,-9.12963e-06,-1.46502e-05,4.5586e-05,7
-2.76949e-05,1.3263e-05,-4.8092e-06,-2.43075e-06,3.38366e-05,-7.6216e-06,-1.15146e-05,4.22968e-05,7
-2.91757e-05,1.28998e-05,-7.42777e-06,-6.41448e-06,3.4557e-05,-5.80415e-06,-7.72431e-07,4.21675e-05,7
-3.1678e-05,1.19383e-05,-1.02416e-05,-1.36131e-05,3.10278e-05,-4.4444e-06,1.04007e-05,4.55466e-05,7
-3.32271e-05,1.15635e-05,-1.15722e-05,-2.04975e-05,2.88254e-05,-5.4523e-06,1.81814e-05,4.42336e-05,7
-3.2952e-05,1.25854e-05,-9.74621e-06,-2.22755e-05,2.89216e-05,-8.37189e-06,2.39473e-05,3.2835e-05,7
-3.26433e-05,1.23702e-05,-7.28259e-06,-2.04487e-05,3.02014e-05,-1.1941e-05,2.77383e-05,1.35936e-05,7
-3.23244e-05,8.72887e-06,-8.8059e-06,-2.04527e-05,2.98658e-05,-1.50425e-05,2.55546e-05,-1.09294e-05,7
-3.04011e-05,4.96943e-06,-1.40771e-05,-2.19466e-05,2.55144e-05,-1.67607e-05,1.78378e-05,-4.24959e-05,7
-2.77431e-05,4.68765e-06,-1.88315e-05,-2.2413e-05,1.81169e-05,-1.71352e-05,1.0595e-05,-7.88092e-05,7
-2.56821e-05,6.88686e-06,-1.92022e-05,-1.98846e-05,8.69435e-06,-1.56807e-05,8.35188e-06,-0.000105723,7
-2.40408e-05,9.41309e-06,-1.44696e-05,-1.48307e-05,-2.57696e-06,-1.28704e-05,1.19905e-05,-0.000101966,7
-2.35322e-05,1.35233e-05,-7.45411e-06,-8.88868e-06,-1.55517e-05,-9.49181e-06,1.88142e-05,-6.419e-05,7
-2.40353e-05,1.82796e-05,-1.77429e-06,-2.69233e-06,-2.29552e-05,-7.27187e-06,2.39832e-05,-2.24133e-05,7
-2.42212e-05,1.90213e-05,1.13254e-06,2.65544e-06,-1.53916e-05,-6.22485e-06,2.7752e-05,-1.38973e-06,7
-2.54956e-05,1.64574e-05,1.59122e-07,6.62236e-06,3.85797e-06,-3.87514e-06,3.43579e-05,1.03378e-07,7
-2.67866e-05,1.47289e-05,-2.20694e-06,2.14333e-05,1.91812e-05,-3.09391e-06,4.04709e-05,-6.90755e-06,7
-2.70387e-05,1.60225e-05,-3.14974e-06,6.52597e-05,2.16787e-05,-3.07131e-06,4.24338e-05,-1.19158e-05,7
-2.80786e-05,1.6929e-05,-4.16332e-06,0.000126071,1.71788e-05,-1.88789e-06,4.07878e-05,-1.50609e-05,7
-2.98415e-05,1.6097e-05,-4.75745e-06,0.000165358,1.13715e-05,-2.92025e-06,3.34361e-05,-1.89557e-05,7
-3.116e-05,1.36336e-05,-5.07506e-06,0.000157193,8.40128e-06,-7.6655e-06,1.70078e-05,-2.3468e-05,7
-3.25051e-05,1.06736e-05,-5.74511e-06,0.000100517,7.56227e-06,-1.33552e-05,-1.27664e-06,-2.48377e-05,7
-3.30819e-05,8.9571e-06,-6.51691e-06,1.046e-05,6.46692e-06,-1.703e-05,-1.03445e-05,-2.28449e-05,7
-3.19951e-05,9.66616e-06,-5.38918e-06,-8.53452e-05,7.19218e-06,-1.73575e-05,-9.70206e-06,-8.28565e-06,7
-2.98146e-05,1.27983e-05,-3.41201e-06,-0.00015884,1.19106e-05,-1.47132e-05,-7.43037e-06,3.27589e-05,7
-2.7823e-05,1.5585e-05,-3.25679e-06,-0.000195428,1.86401e-05,-1.23914e-05,-8.91703e-06,8.44389e-05,7
-2.70808e-05,1.65276e-05,-4.79721e-06,-0.000191629,2.30347e-05,-1.09805e-05,-9.9712e-06,0.00011695,7
-2.7683e-05,1.60043e-05,-5.52707e-06,-0.000153258,2.37507e-05,-9.26117e-06,-6.42799e-06,0.000129708,7
-2.87019e-05,1.55574e-05,-4.71578e-06,-9.7662e-05,2.22025e-05,-7.49984e-06,-1.42774e-06,0.000132968,7
-2.93188e-05,1.50357e-05,-4.83901e-06,-4.49018e-05,2.12393e-05,-6.97342e-06,-1.82941e-07,0.000121901,7
-2.9513e-05,1.47223e-05,-5.39463e-06,-3.76784e-06,2.1364e-05,-7.16248e-06,-6.16302e-07,9.35337e-05,7
-2.93591e-05,1.51421e-05,-3.71875e-06,2.63576e-05,2.14208e-05,-6.94524e-06,1.39741e-06,5.69836e-05,7
-2.85502e-05,1.6623e-05,6.72975e-08,4.39412e-05,2.04052e-05,-6.40186e-06,6.34938e-06,2.01517e-05,7
-2.78929e-05,1.72448e-05,1.94038e-06,4.53726e-05,1.88254e-05,-5.73005e-06,1.04172e-05,-2.31938e-05,7
-2.86108e-05,1.74387e-05,-5.30453e-07,3.64746e-05,1.66465e-05,-5.56765e-06,1.35701e-05,-7.66065e-05,7
-3.00294e-05,1.70445e-05,-5.86295e-06,2.94951e-05,1.38346e-05,-5.92889e-06,1.75754e-05,-0.000131004,7
-3.16118e-05,1.64855e-05,-8.38012e-06,2.82719e-05,1.2103e-05,-6.40325e-06,2.1491e-05,-0.00016652,7
-3.25618e-05,1.73095e-05,-9.15143e-06,2.80645e-05,1.05968e-05,-5.89298e-06,2.27389e-05,-0.000161489,7
-3.22645e-05,1.69791e-05,-1.10831e-05,2.69591e-05,7.28329e-06,-5.70993e-06,2.0814e-05,-0.000121094,7
-3.19025e-05,1.52639e-05,-1.17887e-05,2.65007e-05,3.68384e-06,-8.46116e-06,1.99565e-05,-5.84189e-05,7
-3.24372e-05,1.31341e-05,-1.02706e-05,2.71915e-05,1.12285e-06,-1.24094e-05,1.82818e-05,1.78679e-06,7
-3.26147e-05,1.19099e-05,-7.65115e-06,2.68327e-05,1.20462e-06,-1.40742e-05,1.53252e-05,2.55379e-05,7
-3.31498e-05,1.29497e-05,-6.09182e-06,2.24439e-05,5.59669e-06,-1.41611e-05,1.50781e-05,1.58686e-05,7
-3.18637e-05,1.38345e-05,-6.54615e-06,1.65075e-05,1.06979e-05,-1.4327e-05,1.74902e-05,-8.32204e-06,7
-2.99839e-05,1.30149e-05,-8.6732e-06,2.74454e-05,1.40049e-05,-1.28906e-05,1.90568e-05,-2.79606e-05,7
-2.84973e-05,1.22856e-05,-9.41732e-06,6.08886e-05,1.91379e-05,-1.04021e-05,1.70283e-05,-4.08507e-05,7
-2.59697e-05,1.38112e-05,-7.70418e-06,9.03117e-05,2.62269e-05,-9.08681e-06,1.29387e-05,-4.72952e-05,7
-2.48032e-05,1.55759e-05,-6.14779e-06,9.42345e-05,3.2326e-05,-8.90819e-06,9.74652e-06,-4.76711e-05,7
-2.48265e-05,1.44374e-05,-6.51798e-06,6.91078e-05,3.70868e-05,-8.619e-06,1.03529e-05,-4.18844e-05,7
-2.54958e-05,1.21717e-05,-7.62267e-06,2.84381e-05,3.95935e-05,-8.8873e-06,1.42678e-05,-2.98191e-05,7
-2.64573e-05,1.12336e-05,-7.21396e-06,-1.71362e-05,3.96237e-05,-1.01748e-05,1.84398e-05,-1.35752e-05,7
-2.84671e-05,1.12598e-05,-5.63536e-06,-6.512e-05,3.84152e-05,-1.07381e-05,2.07847e-05,4.26661e-06,7
-2.98922e-05,1.15148e-05,-4.81822e-06,-0.000106636,3.59779e-05,-1.02396e-05,2.07333e-05,1.61105e-05,7
-3.01609e-05,1.20551e-05,-6.37119e-06,-0.000125127,3.15378e-05,-1.01879e-05,1.90852e-05,2.18696e-05,7
-2.97394e-05,1.27244e-05,-8.65536e-06,-0.000110776,2.52849e-05,-1.08883e-05,1.76529e-05,2.37668e-05,7
-2.87875e-05,1.37814e-05,-8.50146e-06,-7.8511e-05,1.71141e-05,-1.04277e-05,1.86034e-05,2.55412e-05,7
-2.72546e-05,1.45176e-05,-5.83874e-06,-5.24419e-05,8.29227e-06,-9.1548e-06,2.17791e-05,2.57403e-05,7
-2.56332e-05,1.53755e-05,-4.71461e-06,-3.9993e-05,1.36008e-06,-8.4072e-06,2.41895e-05,2.82358e-05,7
-2.48639e-05,1.63565e-05,-6.88527e-06,-2.95775e-05,-2.73141e-06,-8.25758e-06,2.16363e-05,3.5049e-05,7
-2.39459e-05,1.67079e-05,-8.93681e-06,-1.48129e-05,-4.82986e-06,-7.69689e-06,1.5236e-05,4.28506e-05,7
-2.31548e-05,1.63365e-05,-1.00045e-05,-5.85465e-06,-4.05401e-06,-6.84444e-06,9.56408e-06,4.65665e-05,7
-2.30363e-05,1.54179e-05,-1.09614e-05,-1.25674e-05,6.09912e-07,-7.00758e-06,7.71356e-06,4.64771e-05,7
-2.24756e-05,1.39695e-05,-1.14614e-05,-1.86116e-05,8.52191e-06,-7.23418e-06,9.19063e-06,4.55108e-05,7
-2.26091e-05,1.3023e-05,-1.08787e-05,4.26836e-07,1.58209e-05,-5.98296e-06,1.1108e-05,5.54098e-05,7
-2.37062e-05,1.38766e-05,-9.36735e-06,3.59191e-05,1.87432e-05,-5.16072e-06,1.17082e-05,8.362e-05,7
-2.46753e-05,1.5465e-05,-8.82097e-06,5.53756e-05,1.76553e-05,-7.17023e-06,1.01488e-05,0.000107154,7
-2.56606e-05,1.55914e-05,-1.05978e-05,4.34136e-05,1.37181e-05,-9.49895e-06,8.47114e-06,0.000101215,7
-2.59606e-05,1.38751e-05,-1.0633e-05,1.80747e-05,1.07803e-05,-1.16023e-05,9.77895e-06,7.99692e-05,7
-2.54161e-05,1.29317e-05,-6.66319e-06,-2.74646e-06,1.25338e-05,-1.41456e-05,1.33201e-05,7.74437e-05,7
-2.44417e-05,1.27233e-05,-3.36621e-06,-2.71573e-05,1.68004e-05,-1.45057e-05,1.69531e-05,0.000105784,7
-2.45759e-05,1.25199e-05,-3.4756e-06,-5.69572e-05,2.02601e-05,-1.21578e-05,1.95503e-05,0.000125166,7
-2.62664e-05,1.29743e-05,-5.12961e-06,-7.87621e-05,2.30103e-05,-1.00993e-05,2.34555e-05,9.91771e-05,7
-2.9854e-05,1.17172e-05,-5.78099e-06,-8.62525e-05,2.51243e-05,-1.08277e-05,2.99552e-05,4.83049e-05,7
-3.34264e-05,8.51176e-06,-5.66728e-06,-8.68154e-05,2.70566e-05,-1.27177e-05,3.38724e-05,7.89015e-06,7
-3.50218e-05,6.45198e-06,-5.52852e-06,-8.36731e-05,2.63978e-05,-1.40702e-05,3.47472e-05,-3.50584e-06,7
-3.51487e-05,6.87426e-06,-6.72547e-06,-6.88722e-05,2.03536e-05,-1.31507e-05,3.18383e-05,-1.20851e-05,7
-3.44729e-05,7.77483e-06,-1.00436e-05,-3.93435e-05,1.24653e-05,-1.10637e-05,2.3994e-05,-5.46361e-05,7
-3.31574e-05,7.53358e-06,-1.36618e-05,-1.59489e-07,9.75326e-06,-1.0327e-05,1.46917e-05,-0.00013271,7
-3.09418e-05,8.44903e-06,-1.30887e-05,3.37343e-05,1.4046e-05,-9.79859e-06,7.6328e-06,-0.000214487,7
-2.85817e-05,1.18733e-05,-6.77786e-06,4.75446e-05,1.99954e-05,-8.0713e-06,3.31725e-06,-0.00026193,7
-2.80884e-05,1.52176e-05,-2.47978e-07,4.08898e-05,2.33092e-05,-6.47802e-06,-2.73881e-07,-0.000247342,7
-2.88066e-05,1.60344e-05,1.89757e-06,2.45118e-05,2.42995e-05,-6.21995e-06,-1.40429e-06,-0.00017553,7
-2.88114e-05,1.53039e-05,7.89809e-08,8.16975e-06,2.41518e-05,-6.97405e-06,5.58759e-07,-9.13212e-05,7
-2.8155e-05,1.45288e-05,-1.97217e-06,-5.27991e-06,2.34135e-05,-7.9923e-06,3.18556e-06,-3.76954e-05,7
-2.72216e-05,1.39917e-05,-2.82846e-06,-1.61606e-05,2.22899e-05,-8.85252e-06,2.60934e-06,-1.71605e-05,7
-2.63517e-05,1.28513e-05,-3.24082e-06,-2.15192e-05,2.01134e-05,-9.9473e-06,-2.49692e-06,-7.89913e-06,7
-2.60125e-05,1.12158e-05,-4.31827e-06,-1.99005e-05,1.74974e-05,-1.01307e-05,-9.85237e-06,3.14551e-06,7
-2.60197e-05,1.04291e-05,-5.06444e-06,-1.47037e-05,1.44544e-05,-9.63691e-06,-1.45155e-05,1.67801e-05,7
-2.52491e-05,9.69241e-06,-5.68135e-06,-9.91584e-06,1.00582e-05,-9.0464e-06,-1.31517e-05,2.61107e-05,7
-2.52161e-05,7.94361e-06,-7.52889e-06,-5.87199e-06,4.46078e-06,-9.46484e-06,-7.56502e-06,2.74109e-05,7
-2.71204e-05,7.07228e-06,-9.3684e-06,-6.09345e-07,-9.79691e-07,-9.7655e-06,-2.36549e-06,2.41708e-05,7
-2.92026e-05,8.96811e-06,-9.53411e-06,1.00306e-05,-6.61491e-06,-9.06461e-06,-3.84009e-07,2.52232e-05,7
-3.05507e-05,1.24169e-05,-6.76767e-06,2.67948e-05,-1.15677e-05,-6.68313e-06,8.95811e-07,3.54064e-05,7
-3.16681e-05,1.27597e-05,-4.42121e-06,4.24038e-05,-1.19274e-05,-4.46652e-06,6.31252e-06,4.67663e-05,7
-3.05868e-05,1.04395e-05,-6.42408e-06,4.46442e-05,-3.41023e-06,-4.84013e-06,1.18981e-05,5.02033e-05,7
-2.90807e-05,1.09119e-05,-1.15001e-05,3.44911e-05,1.33132e-05,-3.61966e-06,1.51416e-05,4.70407e-05,7
-3.03023e-05,1.21717e-05,-1.45956e-05,2.39149e-05,2.58471e-05,-1.50283e-06,1.88674e-05,4.1857e-05,7
-3.13318e-05,1.19754e-05,-1.37724e-05,1.77807e-05,2.59435e-05,-1.36804e-06,2.22551e-05,3.85352e-05,7
-3.10018e-05,1.1362e-05,-9.31084e-06,1.56231e-05,1.81652e-05,-2.79754e-06,2.78516e-05,3.37487e-05,7
-3.16243e-05,1.08988e-05,-4.20814e-06,1.49867e-05,1.05925e-05,-5.38462e-06,3.49353e-05,2.1988e-05,7
-3.21512e-05,1.11556e-05,-2.59141e-06,1.64235e-05,8.7575e-06,-7.7255e-06,3.87418e-05,4.36937e-06,7
-3.17944e-05,1.13321e-05,-3.50729e-06,1.73537e-05,1.1088e-05,-8.70454e-06,3.48546e-05,-1.5272e-05,7
-3.15802e-05,1.18821e-05,-4.6205e-06,1.70779e-05,1.37969e-05,-9.08197e-06,2.51436e-05,-3.05542e-05,7
-3.15191e-05,1.2794e-05,-5.45092e-06,1.53946e-05,1.391e-05,-9.76009e-06,1.21873e-05,-3.42064e-05,7
-3.20844e-05,1.31818e-05,-6.24518e-06,1.44457e-05,1.25725e-05,-1.08192e-05,-1.94559e-07,-2.5369e-05,7
-3.24546e-05,1.33194e-05,-5.59656e-06,1.53756e-05,1.16362e-05,-1.12686e-05,-7.70307e-06,-1.21193e-05,7
-3.20045e-05,1.39467e-05,-4.28686e-06,1.4953e-05,1.05816e-05,-1.14261e-05,-1.17952e-05,-3.6175e-06,7
-3.02474e-05,1.42343e-05,-4.55434e-06,1.14914e-05,9.25549e-06,-1.28331e-05,-1.47033e-05,-4.94666e-07,7
-2.76533e-05,1.364e-05,-6.66091e-06,6.74835e-06,8.19848e-06,-1.4822e-05,-1.64889e-05,2.12796e-06,7
-2.50368e-05,1.35056e-05,-8.30738e-06,4.70559e-06,8.03315e-06,-1.64836e-05,-1.42937e-05,6.21637e-06,7
-2.3739e-05,1.48956e-05,-8.46184e-06,3.46669e-06,8.98699e-06,-1.76586e-05,-7.13398e-06,1.1388e-05,7
-2.40559e-05,1.66305e-05,-8.11056e-06,1.28279e-06,1.13322e-05,-1.77197e-05,5.23799e-06,1.60713e-05,7
-2.39054e-05,1.6099e-05,-8.0603e-06,-8.56689e-07,1.26314e-05,-1.63542e-05,2.06277e-05,1.79096e-05,7
-2.31634e-05,1.31268e-05,-9.71769e-06,-1.26934e-06,1.19769e-05,-1.38914e-05,3.17572e-05,1.61481e-05,7
-2.21985e-05,1.16936e-05,-1.2732e-05,-1.48752e-06,1.19635e-05,-1.12391e-05,3.29799e-05,1.42684e-05,7
-2.0421e-05,1.41672e-05,-1.3562e-05,-9.45225e-07,1.46113e-05,-9.14853e-06,2.72301e-05,1.56244e-05,7
-1.90524e-05,1.71332e-05,-9.52103e-06,3.48457e-06,1.90304e-05,-8.3688e-06,1.89538e-05,1.828e-05,7
-1.94049e-05,1.75088e-05,-2.09486e-06,9.48246e-06,2.30444e-05,-8.83558e-06,1.20431e-05,2.04705e-05,7
-2.13022e-05,1.5281e-05,3.63057e-06,1.38174e-05,2.54763e-05,-9.83427e-06,7.47703e-06,2.11408e-05,7
-2.46081e-05,1.33248e-05,4.05078e-06,1.62552e-05,2.4357e-05,-1.14422e-05,6.85007e-06,1.95193e-05,7
-2.88848e-05,1.32078e-05,-6.68082e-07,1.38544e-05,1.76832e-05,-1.1564e-05,1.10651e-05,2.1176e-05,7
-3.01635e-05,1.35645e-05,-8.50033e-06,4.35069e-06,1.0131e-05,-9.44582e-06,1.96324e-05,4.06292e-05,7
-2.91272e-05,1.46223e-05,-1.49483e-05,-1.07004e-05,4.73956e-06,-7.96147e-06,3.21809e-05,7.07003e-05,7
-2.97953e-05,1.58211e-05,-1.55465e-05,-2.32618e-05,2.08259e-06,-7.18058e-06,4.27835e-05,8.73812e-05,7
-2.92973e-05,1.75695e-05,-8.98476e-06,-2.68903e-05,1.8801e-06,-7.34255e-06,4.69326e-05,9.87579e-05,7
-2.84977e-05,1.95307e-05,-1.90546e-06,-2.33317e-05,2.26265e-06,-8.78224e-06,4.34568e-05,0.000109988,7
-2.86047e-05,1.90169e-05,7.37081e-07,-1.7878e-05,1.21866e-06,-1.07579e-05,3.82442e-05,0.000106086,7
-3.01162e-05,1.72543e-05,-3.39986e-07,-1.62824e-05,-4.85207e-06,-1.18405e-05,3.60691e-05,7.62697e-05,7
-3.27466e-05,1.49283e-05,-2.06415e-06,-1.79764e-05,-1.41851e-05,-1.01851e-05,3.90179e-05,2.13533e-05,7
-3.429e-05,1.31297e-05,-1.02525e-06,-1.81199e-05,-1.84588e-05,-9.75284e-06,4.48478e-05,-4.2339e-05,7
-3.42666e-05,1.28623e-05,1.78271e-06,-1.63979e-05,-1.07853e-05,-1.08103e-05,4.52566e-05,-8.65043e-05,7
-3.34364e-05,1.29224e-05,1.60087e-06,-1.82613e-05,4.74715e-06,-1.11483e-05,3.65922e-05,-8.92259e-05,7
-3.35787e-05,1.21594e-05,-2.82049e-06,-2.425e-05,1.9472e-05,-9.95044e-06,2.31821e-05,-5.85829e-05,7
-3.38019e-05,1.1256e-05,-6.5277e-06,-2.9206e-05,2.75344e-05,-8.69173e-06,1.20564e-05,-9.92674e-06,7
-3.37662e-05,1.09029e-05,-7.77981e-06,-2.86595e-05,2.8116e-05,-9.82005e-06,4.09666e-06,5.06388e-05,7
-3.39582e-05,1.04429e-05,-8.32281e-06,-2.42472e-05,2.33695e-05,-1.24616e-05,-1.06271e-06,0.000111458,7
-3.45124e-05,1.01514e-05,-9.17485e-06,-1.79631e-05,1.65494e-05,-1.44122e-05,-3.46925e-06,0.000141555,7
-3.42308e-05,9.89757e-06,-9.33938e-06,-9.23476e-06,1.00982e-05,-1.2773e-05,-2.97062e-06,0.000122679,7
-3.22635e-05,1.00916e-05,-8.21091e-06,-6.3335e-07,7.0655e-06,-8.40624e-06,-1.40301e-06,6.67819e-05,7
-2.96301e-05,1.08018e-05,-6.47607e-06,4.24188e-06,9.2663e-06,-4.21981e-06,-1.88714e-06,-1.03467e-05,7
-2.89367e-05,1.15874e-05,-4.84184e-06,6.42929e-06,1.31724e-05,-3.27475e-06,-6.31063e-06,-9.38859e-05,7
-3.03784e-05,1.15235e-05,-3.63659e-06,8.83131e-06,1.41422e-05,-4.64957e-06,-1.19288e-05,-0.000158225,7
-3.25854e-05,1.21649e-05,-4.05617e-06,1.23259e-05,1.26522e-05,-6.5176e-06,-1.1924e-05,-0.000185727,7
-3.49375e-05,1.29522e-05,-5.85211e-06,1.42168e-05,1.19364e-05,-7.26633e-06,-6.0237e-06,-0.000185675,7
-3.6344e-05,1.25219e-05,-8.00613e-06,1.4555e-05,1.27706e-05,-6.23039e-06,1.30021e-06,-0.000173028,7
-3.65799e-05,1.20791e-05,-8.24269e-06,1.67451e-05,1.64765e-05,-4.92404e-06,8.38937e-06,-0.000155022,7
-3.76374e-05,1.26848e-05,-5.82545e-06,1.83129e-05,2.13514e-05,-4.37261e-06,1.19911e-05,-0.000129367,7
-3.96743e-05,1.36582e-05,-3.259e-06,1.52766e-05,2.49305e-05,-4.49606e-06,9.67327e-06,-9.52432e-05,7
-3.94745e-05,1.40801e-05,-1.90695e-06,2.61293e-06,2.48535e-05,-5.74251e-06,3.21671e-06,-6.34268e-05,7
-3.77423e-05,1.50165e-05,-2.59953e-06,-2.14309e-05,2.05814e-05,-8.12865e-06,-4.50757e-06,-4.0577e-05,7
-3.57365e-05,1.36697e-05,-5.41278e-06,-5.11025e-05,1.24337e-05,-1.04226e-05,-9.87919e-06,-2.41036e-05,7
-3.45124e-05,1.13284e-05,-8.69473e-06,-6.41713e-05,5.0841e-06,-1.23269e-05,-1.16283e-05,-1.17204e-05,7
-3.48932e-05,1.10094e-05,-8.94481e-06,-3.68343e-05,5.0265e-06,-1.36098e-05,-1.0676e-05,-4.21964e-06,7
-3.55344e-05,1.16292e-05,-6.91741e-06,1.34297e-05,1.03857e-05,-1.37643e-05,-6.99276e-06,-2.82238e-06,7
-3.63856e-05,1.16647e-05,-5.34705e-06,5.08824e-05,1.73578e-05,-1.242e-05,2.12511e-06,-4.70754e-06,7
-3.59362e-05,1.25895e-05,-3.00003e-06,5.79791e-05,2.23811e-05,-1.00497e-05,1.42231e-05,-6.02887e-06,7
-3.37731e-05,1.57678e-05,-3.6687e-07,3.70998e-05,2.4798e-05,-6.98216e-06,2.75348e-05,-4.21585e-06,7
-3.19458e-05,1.84155e-05,-3.73791e-07,8.97512e-07,2.52655e-05,-4.10883e-06,3.9283e-05,-1.482e-07,7
-3.15158e-05,1.81392e-05,-3.79632e-06,-4.33297e-05,2.42694e-05,-3.23228e-06,4.45582e-05,5.12628e-06,7
-3.23743e-05,1.38179e-05,-8.71503e-06,-8.86968e-05,2.19625e-05,-5.62051e-06,3.87902e-05,8.94258e-06,7
-3.35191e-05,9.48272e-06,-1.19274e-05,-0.000118883,1.84596e-05,-9.42711e-06,2.05409e-05,1.18049e-05,7
-3.46636e-05,8.41799e-06,-1.29242e-05,-0.000117876,1.43655e-05,-1.18181e-05,-5.78929e-07,1.69783e-05,7
-3.50767e-05,9.91775e-06,-1.25639e-05,-9.12136e-05,1.06378e-05,-1.25037e-05,-1.20479e-05,2.5121e-05,7
-3.44663e-05,1.13812e-05,-1.1614e-05,-5.96356e-05,6.81056e-06,-1.27801e-05,-9.19495e-06,3.25119e-05,7
-3.27243e-05,1.1491e-05,-1.09378e-05,-3.69715e-05,1.59938e-06,-1.26342e-05,2.06661e-06,3.45746e-05,7
-3.10782e-05,1.04719e-05,-1.10211e-05,-2.07075e-05,-2.67739e-06,-1.296e-05,1.52725e-05,3.07914e-05,7
-3.07712e-05,8.45547e-06,-1.15215e-05,-3.20454e-06,-3.88055e-06,-1.4546e-05,2.65207e-05,2.38774e-05,7
-3.12953e-05,5.90208e-06,-1.20596e-05,1.55562e-05,-2.18182e-06,-1.60853e-05,3.16325e-05,1.92322e-05,7
-3.13439e-05,3.93615e-06,-1.24912e-05,3.12252e-05,9.84315e-07,-1.52919e-05,2.6081e-05,2.09315e-05,7
-3.05755e-05,4.03029e-06,-1.13486e-05,4.24431e-05,3.28162e-06,-1.15538e-05,1.60714e-05,3.24689e-05,7
-2.97849e-05,5.26768e-06,-9.01155e-06,4.71907e-05,4.29788e-06,-9.12594e-06,1.18841e-05,4.80214e-05,7
-2.93414e-05,5.73509e-06,-8.15407e-06,4.45053e-05,7.06759e-06,-1.04572e-05,1.37207e-05,5.70028e-05,7
-2.95325e-05,5.27826e-06,-8.36343e-06,3.76713e-05,1.2211e-05,-1.20366e-05,1.67265e-05,6.16002e-05,7
-2.92535e-05,6.03701e-06,-9.30485e-06,2.88953e-05,1.58711e-05,-1.16782e-05,1.68384e-05,6.62262e-05,7
-2.76612e-05,8.53591e-06,-1.18265e-05,1.85824e-05,1.72426e-05,-1.09569e-05,1.23408e-05,6.84488e-05,7
-2.58048e-05,1.12914e-05,-1.3481e-05,9.14603e-06,1.95948e-05,-1.02142e-05,9.68783e-07,7.01203e-05,7
-2.43705e-05,1.39971e-05,-1.2366e-05,2.48621e-06,2.12072e-05,-9.35425e-06,-1.50841e-05,7.24696e-05,7
-2.37156e-05,1.68091e-05,-9.98247e-06,4.53816e-06,2.10584e-05,-9.55794e-06,-2.85271e-05,7.13012e-05,7
-2.42872e-05,1.68027e-05,-1.00681e-05,3.45516e-05,1.93315e-05,-1.14523e-05,-3.12942e-05,5.33281e-05,7
-2.34264e-05,1.43916e-05,-1.08933e-05,8.57786e-05,1.97454e-05,-1.18038e-05,-2.23525e-05,1.41975e-05,7
-2.16082e-05,1.31625e-05,-9.23622e-06,0.000124903,2.37608e-05,-9.10174e-06,-1.13384e-05,-3.44863e-05,7
-2.1031e-05,1.38497e-05,-7.56066e-06,0.000132652,2.46556e-05,-4.9123e-06,-4.41958e-06,-7.89187e-05,7
-2.30165e-05,1.59416e-05,-7.62372e-06,0.000112964,2.0501e-05,-1.74062e-06,-3.04789e-07,-0.000104118,7
-2.61154e-05,1.74992e-05,-8.09071e-06,7.71015e-05,1.52619e-05,-2.52596e-06,5.57449e-06,-0.000103361,7
-2.82167e-05,1.63632e-05,-7.87475e-06,2.53095e-05,1.3456e-05,-5.62753e-06,1.16677e-05,-8.31289e-05,7
-2.90094e-05,1.52518e-05,-7.05791e-06,-4.17347e-05,1.32357e-05,-7.6153e-06,1.42248e-05,-5.39375e-05,7
-2.85935e-05,1.62093e-05,-5.32281e-06,-0.000105439,1.34209e-05,-6.45417e-06,1.58589e-05,-2.33037e-05,7
-2.86922e-05,1.77599e-05,-2.38134e-06,-0.000141125,1.49458e-05,-5.21845e-06,1.96585e-05,3.19449e-06,7
-2.95854e-05,1.76208e-05,-3.77726e-08,-0.000145201,1.85089e-05,-5.39889e-06,2.5202e-05,2.08856e-05,7
-3.09744e-05,1.57128e-05,6.89544e-07,-0.00013542,2.32043e-05,-5.74668e-06,3.01645e-05,2.91537e-05,7
-3.23483e-05,1.45804e-05,1.04263e-06,-0.000125113,2.90875e-05,-5.56108e-06,3.32272e-05,3.28917e-05,7
-3.44824e-05,1.45141e-05,5.23813e-07,-0.000106509,3.59913e-05,-4.48758e-06,3.35014e-05,3.63794e-05,7
-3.67677e-05,1.48617e-05,-2.01507e-06,-6.85259e-05,4.04036e-05,-3.45812e-06,3.22542e-05,4.19923e-05,7
-3.83899e-05,1.49583e-05,-5.28261e-06,-2.01584e-05,3.96594e-05,-3.52162e-06,2.87133e-05,4.75842e-05,7
-3.96437e-05,1.46342e-05,-6.37142e-06,1.30897e-05,3.34661e-05,-5.53634e-06,2.14434e-05,4.97448e-05,7
-4.06589e-05,1.43058e-05,-6.05625e-06,1.7994e-05,2.36777e-05,-7.81247e-06,1.33526e-05,4.80717e-05,7
-4.03453e-05,1.39673e-05,-6.20281e-06,6.43098e-06,1.04414e-05,-9.58479e-06,9.00369e-06,4.33968e-05,7
-3.91136e-05,1.36702e-05,-6.09744e-06,-3.66895e-06,-4.92242e-06,-1.04129e-05,8.59613e-06,3.82653e-05,7
-3.8523e-05,1.43092e-05,-5.36201e-06,-6.5365e-06,-1.77066e-05,-9.38266e-06,9.25353e-06,3.59516e-05,7
-3.89656e-05,1.40973e-05,-5.50954e-06,-5.82644e-06,-2.39094e-05,-7.39356e-06,6.93672e-06,3.0679e-05,7
-3.89287e-05,1.21629e-05,-7.34638e-06,-4.27e-06,-2.24534e-05,-7.07696e-06,8.77616e-07,2.00142e-05,7
-3.81009e-05,1.09011e-05,-7.45074e-06,1.20145e-05,-1.16091e-05,-7.87419e-06,-9.50141e-07,7.0451e-06,7
-3.83647e-05,1.10452e-05,-5.97618e-06,5.4248e-05,1.53568e-07,-9.87878e-06,4.18947e-06,-7.54863e-06,7
-3.92438e-05,1.07226e-05,-4.57554e-06,9.56578e-05,4.89508e-06,-1.23783e-05,8.18031e-06,-1.96016e-05,7
-3.97743e-05,1.03678e-05,-2.68037e-06,0.000104294,6.69894e-06,-1.28502e-05,9.93958e-06,-2.81032e-05,7
-3.95177e-05,1.09236e-05,-2.16638e-06,7.38352e-05,9.68764e-06,-1.25894e-05,1.25622e-05,-3.27589e-05,7
-3.90984e-05,1.11025e-05,-2.6677e-06,1.51936e-05,1.59649e-05,-1.22566e-05,1.83003e-05,-3.60116e-05,7
-3.8378e-05,1.07414e-05,-3.93975e-06,-5.66705e-05,2.3816e-05,-1.34408e-05,2.62795e-05,-3.63489e-05,7
-3.71504e-05,1.06505e-05,-7.67842e-06,-0.000120997,3.07081e-05,-1.47366e-05,2.98973e-05,-3.13706e-05,7
-3.61472e-05,1.02931e-05,-1.36377e-05,-0.00014891,3.24416e-05,-1.41118e-05,2.86067e-05,-2.16134e-05,7
-3.52917e-05,9.47168e-06,-1.82659e-05,-0.000133988,3.02951e-05,-1.23946e-05,2.74282e-05,-1.10831e-05,7
-3.34927e-05,1.11515e-05,-1.87735e-05,-9.64929e-05,2.66266e-05,-8.84589e-06,2.9254e-05,-2.90517e-06,7
-3.0506e-05,1.47775e-05,-1.6143e-05,-5.8152e-05,1.9189e-05,-3.73101e-06,3.09565e-05,7.85683e-06,7
-2.66123e-05,1.67615e-05,-1.24221e-05,-2.68754e-05,7.60829e-06,-5.07051e-07,3.07826e-05,1.70467e-05,7
-2.38532e-05,1.65343e-05,-7.98958e-06,4.73435e-07,-3.54341e-06,-2.45683e-06,2.94125e-05,1.47255e-05,7
-2.38947e-05,1.52287e-05,-4.12478e-06,2.48732e-05,-8.35726e-06,-7.03548e-06,2.7224e-05,1.46019e-07,7
-2.5865e-05,1.39563e-05,-3.71371e-06,4.04075e-05,-8.27996e-06,-9.96447e-06,2.26508e-05,-1.65196e-05,7
-2.80406e-05,1.38044e-05,-6.22096e-06,4.11386e-05,-7.51869e-06,-1.12792e-05,1.63681e-05,-2.66555e-05,7
-2.93076e-05,1.43467e-05,-8.62541e-06,3.03509e-05,-7.53161e-06,-1.25562e-05,1.21972e-05,-2.72219e-05,7
-2.92207e-05,1.42812e-05,-7.96538e-06,1.83602e-05,-6.2791e-06,-1.31065e-05,1.0276e-05,-2.04723e-05,7
-2.72997e-05,1.32748e-05,-4.094e-06,1.20183e-05,-2.77487e-06,-1.34445e-05,7.52228e-06,-9.99327e-06,7
-2.47674e-05,1.27541e-05,-6.55247e-07,1.00239e-05,8.30706e-07,-1.48367e-05,2.99873e-06,4.23928e-06,7
-2.31938e-05,1.39819e-05,-6.51435e-07,1.02863e-05,3.09252e-06,-1.64851e-05,2.10495e-07,2.06048e-05,7
-2.29909e-05,1.50309e-05,-1.94793e-06,1.08446e-05,5.0271e-06,-1.75301e-05,2.38693e-06,3.13794e-05,7
-2.31854e-05,1.4545e-05,-1.94647e-06,1.02843e-05,7.75351e-06,-1.67943e-05,8.1499e-06,3.39433e-05,7
-2.3156e-05,1.35893e-05,-1.05608e-06,8.12747e-06,1.02371e-05,-1.50618e-05,1.35074e-05,3.53693e-05,7
-2.17979e-05,1.26712e-05,-5.82305e-07,8.13579e-06,1.17759e-05,-1.4071e-05,1.58941e-05,3.69482e-05,7
-1.97502e-05,1.25207e-05,-1.63191e-06,1.03818e-05,1.57353e-05,-1.41227e-05,1.65816e-05,3.24599e-05,7
-2.00906e-05,1.27804e-05,-3.79461e-06,9.8885e-06,1.98791e-05,-1.31461e-05,1.80366e-05,1.95936e-05,7
-2.23304e-05,1.19482e-05,-5.40261e-06,8.15727e-06,2.23166e-05,-9.95351e-06,1.72866e-05,1.07202e-05,7
-2.35968e-05,1.13736e-05,-5.97312e-06,8.50637e-06,2.22221e-05,-8.34854e-06,1.49512e-05,9.533e-06,7
-2.37737e-05,1.15899e-05,-5.21158e-06,8.88283e-06,1.81506e-05,-7.74748e-06,1.43762e-05,4.47221e-06,7
-2.42112e-05,1.17922e-05,-2.97495e-06,7.53695e-06,1.3555e-05,-6.41387e-06,1.91529e-05,-4.74191e-06,7
-2.4258e-05,1.2856e-05,-1.6579e-06,8.1988e-06,1.25244e-05,-5.41703e-06,3.06785e-05,-1.01757e-05,7
-2.43412e-05,1.35549e-05,-9.07434e-07,9.71395e-06,1.50681e-05,-7.08977e-06,4.19494e-05,-9.98829e-06,7
-2.57802e-05,1.2541e-05,7.11386e-07,8.05036e-06,1.51784e-05,-1.05025e-05,4.72297e-05,-7.38536e-06,7
-2.78478e-05,1.14639e-05,1.28338e-06,1.30091e-06,1.1216e-05,-1.12981e-05,4.45015e-05,-6.84266e-06,7
-2.85687e-05,1.18104e-05,1.13603e-06,-6.99608e-06,7.06464e-06,-8.5007e-06,3.32026e-05,-9.55592e-06,7
-2.70251e-05,1.30539e-05,1.46448e-06,-1.16175e-05,6.94118e-06,-4.07079e-06,1.62857e-05,-1.04626e-05,7
-2.57441e-05,1.40211e-05,1.01824e-06,-1.21652e-05,1.01839e-05,-3.16955e-06,6.84314e-07,-1.05492e-05,7
-2.66834e-05,1.35062e-05,-6.5789e-07,-1.10701e-05,1.38373e-05,-6.18354e-06,-7.09568e-06,-8.5164e-06,7
-2.86313e-05,1.18787e-05,-2.83507e-06,-7.61466e-06,1.35559e-05,-1.011e-05,-7.35126e-06,1.09444e-05,7
-3.01578e-05,1.06033e-05,-4.96054e-06,-3.05024e-06,7.61918e-06,-1.28776e-05,-4.16981e-06,5.1236e-05,7
-3.15338e-05,9.88958e-06,-6.79015e-06,-1.83235e-06,-2.03558e-06,-1.39772e-05,3.87995e-07,8.2523e-05,7
-3.27891e-05,9.47479e-06,-8.57341e-06,-3.63261e-06,-1.09824e-05,-1.3774e-05,7.47659e-06,8.12504e-05,7
-3.31441e-05,9.94093e-06,-1.08561e-05,-6.1119e-06,-1.1934e-05,-1.22213e-05,1.70668e-05,5.76707e-05,7
-3.31107e-05,1.23469e-05,-1.27183e-05,-6.81454e-06,5.99701e-07,-8.86108e-06,2.25377e-05,2.61094e-05,7
-3.28682e-05,1.48077e-05,-1.27484e-05,-4.08711e-06,2.27522e-05,-5.15777e-06,1.61463e-05,-9.90241e-06,7
-3.28351e-05,1.41248e-05,-1.31065e-05,1.00105e-06,4.18086e-05,-5.61941e-06,9.15137e-07,-3.88474e-05,7
-3.40533e-05,1.02219e-05,-1.48098e-05,3.39208e-06,4.95924e-05,-1.08244e-05,-1.19401e-05,-3.69038e-05,7
-3.53506e-05,6.63613e-06,-1.49951e-05,-5.94362e-07,4.80914e-05,-1.48829e-05,-1.91066e-05,-1.86791e-06,7
-3.52664e-05,5.51014e-06,-1.47794e-05,-1.0156e-05,4.37536e-05,-1.36978e-05,-2.2255e-05,2.25821e-05,7
-3.37579e-05,7.24165e-06,-1.61742e-05,-1.65913e-05,4.02275e-05,-1.0512e-05,-2.00787e-05,1.7752e-06,7
-3.2014e-05,1.08952e-05,-1.57766e-05,-1.27895e-05,3.6195e-05,-8.09655e-06,-1.34192e-05,-4.17995e-05,7
-3.1792e-05,1.31665e-05,-1.17603e-05,5.86826e-06,3.00415e-05,-7.13051e-06,-6.86954e-06,-7.80484e-05,7
-3.23801e-05,1.51106e-05,-5.90783e-06,3.51098e-05,2.00874e-05,-7.00676e-06,-2.69842e-06,-9.67292e-05,7
-3.16191e-05,1.6104e-05,-2.00757e-06,5.07884e-05,7.19862e-06,-6.39523e-06,1.61401e-06,-9.63461e-05,7
-3.12381e-05,1.50446e-05,-4.10788e-06,4.42225e-05,-1.14881e-06,-5.99378e-06,8.97176e-06,-8.3162e-05,7
-3.12631e-05,1.41926e-05,-8.90777e-06,2.38524e-05,3.63045e-06,-4.85378e-06,1.73333e-05,-6.79706e-05,7
-2.7897e-05,1.4537e-05,-1.02631e-05,-1.00398e-06,1.85219e-05,-3.24738e-06,2.2159e-05,-5.35752e-05,7
-2.36799e-05,1.51047e-05,-8.11841e-06,-2.48714e-05,2.51595e-05,-2.1224e-06,2.19624e-05,-3.93612e-05,7
-2.23642e-05,1.44985e-05,-6.53517e-06,-4.99037e-05,1.91443e-05,-2.86375e-06,2.21737e-05,-2.16427e-05,7
-2.3882e-05,1.44806e-05,-7.42915e-06,-6.60579e-05,9.72021e-06,-4.90722e-06,2.64143e-05,-1.85967e-07,7
-2.55449e-05,1.52785e-05,-9.10841e-06,-6.31148e-05,5.45487e-06,-4.9508e-06,3.01382e-05,1.46668e-05,7
-2.58914e-05,1.71167e-05,-8.82408e-06,-4.19913e-05,7.08512e-06,-4.58518e-06,3.19945e-05,1.35035e-05,7
-2.5887e-05,1.83339e-05,-6.80042e-06,-1.59393e-05,1.07068e-05,-6.19484e-06,3.24824e-05,-2.3763e-06,7
-2.61282e-05,1.7719e-05,-4.95018e-06,2.1936e-06,1.68595e-05,-9.70813e-06,3.19882e-05,-1.99004e-05,7
-2.66505e-05,1.57305e-05,-4.43318e-06,9.39343e-06,2.40712e-05,-1.36024e-05,3.20732e-05,-2.93358e-05,7
-2.53627e-05,1.39872e-05,-4.40331e-06,1.06588e-05,2.8047e-05,-1.57452e-05,3.30976e-05,-3.04822e-05,7
-2.26949e-05,1.35357e-05,-3.92004e-06,1.16083e-05,2.67026e-05,-1.43678e-05,3.14456e-05,-2.85964e-05,7
-2.06744e-05,1.34858e-05,-4.2862e-06,9.91697e-06,2.3672e-05,-1.04368e-05,2.57934e-05,-2.66271e-05,7
-2.09535e-05,1.33167e-05,-6.43479e-06,4.79148e-06,2.04648e-05,-7.5206e-06,1.96214e-05,-2.46418e-05,7
-2.26553e-05,1.25418e-05,-9.51473e-06,-1.64974e-06,1.58826e-05,-7.97861e-06,1.65441e-05,-1.88328e-05,7
-2.35473e-05,1.18511e-05,-1.20732e-05,-5.22493e-06,8.45179e-06,-9.91347e-06,1.8872e-05,-4.09146e-06,7
-2.30608e-05,1.18646e-05,-1.29376e-05,-4.64348e-06,-2.40585e-07,-1.02697e-05,2.68901e-05,2.06206e-05,7
-2.19853e-05,1.25538e-05,-1.1897e-05,-2.29872e-06,-7.74786e-06,-9.23423e-06,3.86786e-05,4.6804e-05,7
-2.16956e-05,1.22238e-05,-1.04097e-05,-3.19555e-06,-1.10525e-05,-8.06618e-06,4.90147e-05,6.80629e-05,7
-2.20114e-05,1.13643e-05,-9.53696e-06,-5.45715e-06,-9.57506e-06,-7.94725e-06,5.38512e-05,8.08964e-05,7
-2.23491e-05,1.12323e-05,-9.52791e-06,-4.8359e-06,-4.73325e-06,-8.3282e-06,4.99445e-05,7.90991e-05,7
-2.26532e-05,1.18838e-05,-9.16492e-06,-5.18783e-07,2.21e-06,-8.29367e-06,3.57127e-05,5.8706e-05,7
-2.29883e-05,1.17634e-05,-9.42332e-06,4.386e-06,9.5355e-06,-8.32952e-06,1.4985e-05,2.86517e-05,7
-2.31477e-05,1.12866e-05,-9.38879e-06,5.84181e-06,1.58594e-05,-8.44688e-06,-4.49236e-06,1.7381e-06,7
-2.33144e-05,1.13546e-05,-7.73714e-06,4.10425e-06,1.86774e-05,-9.18825e-06,-1.57979e-05,-2.32762e-05,7
-2.41324e-05,1.15872e-05,-6.22191e-06,2.73375e-06,1.87625e-05,-9.80371e-06,-1.49687e-05,-3.67461e-05,7
-2.44672e-05,1.2843e-05,-6.71071e-06,1.05204e-06,1.96755e-05,-1.02012e-05,-9.55693e-06,-2.29318e-05,7
-2.4358e-05,1.40714e-05,-8.82732e-06,-2.69833e-06,2.17348e-05,-9.04009e-06,-4.85272e-06,1.52281e-05,7
