ch1,ch2,ch3,ch4,ch5,ch6,ch7,ch8,class
-3.25733e-05,1.1848e-05,-1.04758e-05,-1.07163e-05,1.63527e-05,-1.40493e-05,6.05667e-06,5.86232e-06,7
-3.14084e-05,1.20906e-05,-8.79782e-06,-1.14432e-05,1.49296e-05,-1.30656e-05,9.30413e-06,-3.86622e-05,7
-3.03038e-05,1.21047e-05,-6.91478e-06,-8.68544e-06,1.42186e-05,-1.27679e-05,1.32003e-05,-8.36924e-05,7
-2.99661e-05,1.11062e-05,-4.43946e-06,-2.45923e-06,1.4575e-05,-1.38086e-05,1.28157e-05,-0.000110114,7
-3.06637e-05,9.78416e-06,-3.98599e-06,2.73784e-06,1.52464e-05,-1.57544e-05,8.98865e-06,-0.000105045,7
-3.03782e-05,8.24815e-06,-5.47129e-06,4.7903e-06,1.59269e-05,-1.69719e-05,7.34155e-06,-7.67631e-05,7
-2.91514e-05,7.88993e-06,-8.0215e-06,3.61518e-06,1.61962e-05,-1.65142e-05,9.6988e-06,-4.52162e-05,7
-2.88773e-05,8.08527e-06,-1.11151e-05,7.94072e-07,1.75746e-05,-1.39094e-05,1.35659e-05,-2.35024e-05,7
-2.97057e-05,8.23324e-06,-1.42911e-05,-1.25844e-06,1.94341e-05,-1.21463e-05,1.67e-05,-9.16697e-06,7
-3.00614e-05,7.70664e-06,-1.79465e-05,-3.62611e-06,2.0171e-05,-1.3501e-05,1.95918e-05,3.39167e-06,7
-3.0339e-05,7.02689e-06,-1.99755e-05,-4.08315e-06,1.78415e-05,-1.60403e-05,1.97688e-05,1.45275e-05,7
-3.14458e-05,7.05563e-06,-1.84822e-05,-4.06103e-07,1.31394e-05,-1.64279e-05,1.59323e-05,2.08897e-05,7
-3.21805e-05,7.90549e-06,-1.40928e-05,4.36694e-06,8.9273e-06,-1.42711e-05,1.05267e-05,2.24767e-05,7
-3.22074e-05,9.81587e-06,-1.04031e-05,4.83888e-06,7.24985e-06,-1.13999e-05,8.792e-06,2.09504e-05,7
-3.18382e-05,1.23426e-05,-8.51091e-06,-8.79003e-08,7.78496e-06,-8.49796e-06,1.54223e-05,1.78307e-05,7
-3.14972e-05,1.49776e-05,-6.16832e-06,-5.86965e-06,7.76062e-06,-5.97608e-06,2.57821e-05,1.4283e-05,7
-3.12941e-05,1.63489e-05,-3.77432e-06,-9.44252e-06,7.11833e-06,-5.77688e-06,3.04133e-05,1.29954e-05,7
-3.19198e-05,1.6533e-05,-3.72452e-06,-9.41183e-06,8.10247e-06,-7.53119e-06,2.67547e-05,1.63931e-05,7
-3.28425e-05,1.62198e-05,-5.70242e-06,-7.5106e-06,1.05505e-05,-8.61285e-06,1.91782e-05,2.27532e-05,7
-3.33738e-05,1.59232e-05,-7.43265e-06,-5.60485e-06,1.13805e-05,-8.41546e-06,1.04472e-05,2.79913e-05,7
-3.3779e-05,1.5511e-05,-8.66636e-06,-4.23486e-06,1.06053e-05,-8.46627e-06,3.11874e-07,3.12301e-05,7
-3.26932e-05,1.43791e-05,-9.23757e-06,-3.79076e-06,1.04041e-05,-9.7699e-06,-1.14365e-05,3.36448e-05,7
-3.10731e-05,1.4005e-05,-7.48617e-06,-3.40509e-06,1.19305e-05,-1.08996e-05,-2.0857e-05,3.52579e-05,7
-2.97616e-05,1.53416e-05,-3.68115e-06,-9.86115e-07,1.53699e-05,-1.08844e-05,-2.04648e-05,3.53634e-05,7
-2.83487e-05,1.7136e-05,-1.57209e-06,8.81479e-07,1.77884e-05,-9.01338e-06,-8.43573e-06,3.00896e-05,7
-2.71841e-05,1.81526e-05,-3.98784e-06,-4.39149e-06,1.73543e-05,-5.82472e-06,5.37386e-06,1.76462e-05,7
-2.71728e-05,1.74299e-05,-8.93093e-06,-1.56154e-05,1.73659e-05,-5.3046e-06,1.29545e-05,9.38865e-08,7
-2.8292e-05,1.5722e-05,-1.20188e-05,-2.3788e-05,1.79291e-05,-7.17562e-06,1.03585e-05,-7.49567e-06,7
-2.78918e-05,1.44035e-05,-1.29684e-05,-2.69522e-05,1.74556e-05,-7.86727e-06,2.64956e-06,-3.09738e-06,7
-2.66074e-05,1.30225e-05,-1.15531e-05,-2.78448e-05,1.78158e-05,-7.62657e-06,-2.12339e-06,1.76537e-06,7
-2.49035e-05,1.15001e-05,-6.44273e-06,-2.60752e-05,1.81624e-05,-8.22967e-06,-1.26487e-06,3.68594e-06,7
-2.36173e-05,1.25658e-05,-2.14765e-06,-2.29025e-05,1.71639e-05,-1.00134e-05,6.07805e-06,1.47635e-07,7
-2.30275e-05,1.51562e-05,-2.71852e-06,-2.05885e-05,1.71684e-05,-1.05524e-05,1.49198e-05,-2.90196e-07,7
-2.23462e-05,1.53785e-05,-5.31477e-06,-1.88116e-05,1.73221e-05,-1.14402e-05,2.23793e-05,7.83521e-06,7
-2.30626e-05,1.2349e-05,-5.37628e-06,-1.7568e-05,1.72515e-05,-1.41608e-05,2.53864e-05,2.95394e-05,7
-2.51484e-05,9.69353e-06,-1.77712e-06,-1.89506e-05,1.68715e-05,-1.61999e-05,2.57971e-05,5.46732e-05,7
-2.7138e-05,9.99173e-06,2.17155e-06,-2.13494e-05,1.58631e-05,-1.66561e-05,2.7724e-05,6.63445e-05,7
-2.70745e-05,1.09556e-05,1.32093e-06,-2.13237e-05,1.57212e-05,-1.46939e-05,3.08409e-05,6.84476e-05,7
-2.64799e-05,1.15196e-05,-4.08592e-06,-1.76615e-05,1.56139e-05,-1.10345e-05,3.29049e-05,6.90473e-05,7
-2.59639e-05,1.24095e-05,-8.75724e-06,-1.03065e-05,1.46641e-05,-7.86112e-06,2.95146e-05,6.3343e-05,7
-2.58824e-05,1.39156e-05,-1.01e-05,-1.34853e-06,1.34263e-05,-7.4121e-06,1.879e-05,4.12524e-05,7
-2.66625e-05,1.38196e-05,-9.31107e-06,5.9791e-06,1.25894e-05,-8.61993e-06,6.65242e-06,6.41054e-06,7
-2.80334e-05,1.27098e-05,-7.21543e-06,9.5123e-06,1.11494e-05,-9.04107e-06,2.29871e-06,-3.00076e-05,7
-2.94752e-05,1.29452e-05,-4.19209e-06,9.82458e-06,9.16875e-06,-8.01249e-06,7.39688e-06,-5.53057e-05,7
-3.02179e-05,1.43569e-05,-1.5817e-06,8.53483e-06,8.04118e-06,-6.45301e-06,1.47577e-05,-6.31358e-05,7
-3.04883e-05,1.49689e-05,-3.58072e-08,7.70777e-06,8.86768e-06,-4.9457e-06,1.64419e-05,-5.81402e-05,7
-3.05896e-05,1.50872e-05,1.38666e-06,8.55022e-06,1.12076e-05,-3.59172e-06,1.28551e-05,-5.35682e-05,7
-3.04636e-05,1.57211e-05,9.09685e-07,6.43097e-06,1.43222e-05,-3.63396e-06,8.58145e-06,-5.63187e-05,7
-3.026e-05,1.55422e-05,-3.31663e-06,-7.86386e-07,1.59621e-05,-6.20363e-06,6.48689e-06,-6.34983e-05,7
-3.00638e-05,1.40889e-05,-6.25207e-06,-7.26046e-06,1.58513e-05,-8.62709e-06,5.72007e-06,-6.70001e-05,7
-2.9415e-05,1.35546e-05,-1.33008e-06,-7.85755e-06,1.51944e-05,-8.06814e-06,4.32649e-06,-6.09804e-05,7
-2.96695e-05,1.44051e-05,7.83513e-06,-2.28525e-06,1.34773e-05,-8.50274e-06,3.61217e-06,-4.71071e-05,7
-3.00406e-05,1.44598e-05,1.16794e-05,3.5749e-06,1.3085e-05,-1.06945e-05,5.53803e-06,-3.28803e-05,7
-2.93642e-05,1.42779e-05,9.86349e-06,5.46134e-06,1.53114e-05,-1.08091e-05,1.17505e-05,-2.38234e-05,7
-2.7238e-05,1.50486e-05,8.01321e-06,5.73091e-06,1.74325e-05,-6.1792e-06,2.1195e-05,-2.03866e-05,7
-2.51138e-05,1.63029e-05,5.82322e-06,3.15378e-06,1.7324e-05,-1.82853e-06,2.88812e-05,-1.92151e-05,7
-2.51353e-05,1.63627e-05,-3.18008e-07,-4.12539e-06,1.39597e-05,-2.85753e-06,3.01812e-05,-1.60248e-05,7
-2.80175e-05,1.34377e-05,-9.34009e-06,-1.37623e-05,8.59359e-06,-8.79703e-06,2.42555e-05,-1.05162e-05,7
-3.1323e-05,8.55551e-06,-1.64915e-05,-2.10425e-05,4.49651e-06,-1.61741e-05,1.38248e-05,-3.46462e-06,7
-3.23121e-05,6.84313e-06,-1.79618e-05,-2.31122e-05,2.35508e-06,-2.0667e-05,-5.18171e-07,1.49029e-05,7
-3.21848e-05,8.1045e-06,-1.47296e-05,-2.01599e-05,2.6165e-06,-2.27626e-05,-1.12449e-05,5.97027e-05,7
-3.26219e-05,8.84833e-06,-1.08234e-05,-1.49683e-05,5.80289e-06,-2.02448e-05,-1.01635e-05,0.000106827,7
-3.34911e-05,8.79902e-06,-8.3322e-06,-1.17589e-05,1.0052e-05,-1.49983e-05,-2.54531e-06,0.000124898,7
-3.28568e-05,1.00126e-05,-7.45061e-06,-1.08926e-05,1.26658e-05,-1.16808e-05,1.81327e-06,0.000117111,7
-3.10597e-05,1.22892e-05,-8.44521e-06,-1.15702e-05,1.25202e-05,-1.12188e-05,2.10767e-06,9.85917e-05,7
-3.027e-05,1.338e-05,-1.17164e-05,-1.1199e-05,1.05985e-05,-1.25223e-05,5.50755e-06,7.95839e-05,7
-3.11858e-05,1.23473e-05,-1.56674e-05,-8.19544e-06,8.39103e-06,-1.41317e-05,1.36734e-05,6.12587e-05,7
-3.19125e-05,9.20843e-06,-1.74694e-05,-4.61062e-06,6.90245e-06,-1.49559e-05,2.21914e-05,3.98685e-05,7
-3.05887e-05,7.18078e-06,-1.54934e-05,-2.98297e-06,6.81338e-06,-1.41288e-05,2.63159e-05,5.53558e-06,7
-2.75806e-05,8.04565e-06,-1.05252e-05,-4.22591e-06,8.61371e-06,-1.07991e-05,2.44234e-05,-4.60504e-05,7
-2.4808e-05,1.07303e-05,-5.62818e-06,-5.51501e-06,1.16491e-05,-5.09464e-06,1.86181e-05,-0.000100803,7
-2.33538e-05,1.33557e-05,-3.80408e-06,-4.60064e-06,1.40505e-05,-4.90149e-07,1.50363e-05,-0.00013856,7
-2.34019e-05,1.47994e-05,-6.24159e-06,-9.26606e-07,1.52735e-05,1.38185e-06,1.60831e-05,-0.000146316,7
-2.44149e-05,1.44347e-05,-9.71977e-06,3.56658e-06,1.56178e-05,7.80607e-07,1.68057e-05,-0.00012006,7
-2.50866e-05,1.35074e-05,-1.08863e-05,4.68581e-06,1.39221e-05,-1.23758e-06,1.22791e-05,-7.33507e-05,7
-2.53425e-05,1.35393e-05,-1.08772e-05,3.24309e-06,9.48058e-06,-3.18147e-06,5.48616e-06,-3.20002e-05,7
-2.45698e-05,1.36793e-05,-1.04217e-05,5.54996e-06,4.53921e-06,-4.14904e-06,3.95245e-06,-9.23551e-06,7
-2.27324e-05,1.37935e-05,-9.16781e-06,1.31058e-05,1.82784e-06,-6.26629e-06,7.57719e-06,2.17467e-07,7
-2.1739e-05,1.33372e-05,-8.20704e-06,2.09497e-05,2.1939e-06,-1.01132e-05,1.00992e-05,2.81208e-06,7
-2.26262e-05,1.20115e-05,-8.23422e-06,2.5487e-05,4.70514e-06,-1.16886e-05,9.30587e-06,-5.33097e-07,7
-2.47648e-05,1.11519e-05,-8.63159e-06,2.80281e-05,8.99136e-06,-1.12239e-05,1.01035e-05,-4.83395e-06,7
-2.53398e-05,1.16822e-05,-9.72186e-06,3.36355e-05,1.23996e-05,-1.09972e-05,1.59453e-05,6.11516e-06,7
-2.36503e-05,1.35869e-05,-1.03907e-05,3.73041e-05,1.39007e-05,-1.00972e-05,2.00695e-05,3.0102e-05,7
-2.29643e-05,1.47976e-05,-1.08649e-05,3.18279e-05,1.54049e-05,-1.00597e-05,1.69754e-05,4.41108e-05,7
-2.3756e-05,1.44698e-05,-1.15273e-05,2.24158e-05,1.64499e-05,-1.17453e-05,1.05448e-05,4.62991e-05,7
-2.58346e-05,1.40976e-05,-1.04371e-05,1.50324e-05,1.66514e-05,-1.41456e-05,8.23717e-06,4.64815e-05,7
-2.76253e-05,1.4656e-05,-7.23173e-06,1.00833e-05,1.44449e-05,-1.54054e-05,1.07357e-05,5.03709e-05,7
-2.74965e-05,1.62025e-05,-3.64387e-06,7.05657e-06,1.29618e-05,-1.46531e-05,1.33461e-05,5.57468e-05,7
-2.77585e-05,1.68405e-05,-2.4713e-06,5.51994e-06,1.36054e-05,-1.32954e-05,1.53232e-05,5.18798e-05,7
-2.94236e-05,1.49046e-05,-4.37709e-06,2.24208e-06,1.45324e-05,-1.12387e-05,1.52276e-05,2.74586e-05,7
-3.27689e-05,1.24137e-05,-8.20719e-06,-3.5697e-06,1.56132e-05,-1.03798e-05,1.38546e-05,-1.89498e-05,7
-3.62582e-05,1.1496e-05,-1.14095e-05,-9.54764e-06,1.63908e-05,-1.10128e-05,1.40027e-05,-7.00259e-05,7
-3.80617e-05,1.15759e-05,-1.39557e-05,-1.50044e-05,1.63147e-05,-1.02593e-05,1.59165e-05,-9.63784e-05,7
-3.774e-05,1.10257e-05,-1.90135e-05,-2.11119e-05,1.37785e-05,-8.05853e-06,1.70024e-05,-8.47684e-05,7
-3.61096e-05,1.05043e-05,-2.51458e-05,-2.21884e-05,1.0006e-05,-6.23473e-06,1.58385e-05,-5.10889e-05,7
-3.45084e-05,1.24741e-05,-2.49514e-05,-5.42379e-06,6.03782e-06,-4.99407e-06,1.39138e-05,-1.97579e-05,7
-3.30995e-05,1.6236e-05,-1.65313e-05,2.85195e-05,3.39873e-06,-4.63821e-06,1.22963e-05,8.64146e-08,7
-3.25714e-05,1.85929e-05,-7.01848e-06,5.76938e-05,3.46967e-06,-5.16047e-06,1.10906e-05,1.83199e-05,7
-3.30741e-05,1.81607e-05,-2.70535e-06,6.33819e-05,5.88587e-06,-5.77418e-06,1.04502e-05,4.09622e-05,7
-3.37182e-05,1.63717e-05,-2.31584e-06,4.16997e-05,8.87631e-06,-5.96815e-06,1.2273e-05,5.68529e-05,7
-3.35766e-05,1.41328e-05,-1.61671e-06,-5.4205e-06,1.0923e-05,-6.63733e-06,1.49731e-05,5.21604e-05,7
-3.28773e-05,1.20739e-05,-2.63133e-07,-6.88523e-05,1.26114e-05,-7.58203e-06,1.43764e-05,3.01344e-05,7
-3.23442e-05,1.16177e-05,7.29631e-07,-0.000127405,1.43235e-05,-7.83153e-06,1.24549e-05,2.22402e-06,7
-3.22009e-05,1.18728e-05,2.2778e-06,-0.000151748,1.51119e-05,-8.62985e-06,1.2597e-05,-2.39679e-05,7
-3.28896e-05,1.18469e-05,4.36417e-06,-0.000131966,1.43406e-05,-9.88712e-06,1.20339e-05,-4.36317e-05,7
-3.44005e-05,1.21761e-05,4.45484e-06,-9.2418e-05,1.3314e-05,-1.08865e-05,1.3022e-05,-4.94712e-05,7
-3.59093e-05,1.08332e-05,1.46736e-06,-6.32661e-05,1.3656e-05,-1.15268e-05,1.90988e-05,-4.0328e-05,7
-3.54077e-05,8.44583e-06,-3.46431e-06,-4.87414e-05,1.37201e-05,-1.13511e-05,2.38025e-05,-2.60434e-05,7
-3.31133e-05,6.6048e-06,-7.64106e-06,-3.64073e-05,1.30966e-05,-1.10321e-05,2.38956e-05,-1.40875e-05,7
-3.11513e-05,6.88954e-06,-8.87971e-06,-1.73437e-05,1.33629e-05,-1.01051e-05,2.26167e-05,-2.96967e-06,7
-2.98071e-05,8.15234e-06,-6.90327e-06,5.96841e-06,1.45466e-05,-8.9345e-06,2.31973e-05,7.18518e-06,7
-2.97296e-05,9.10275e-06,-2.69094e-06,2.48106e-05,1.60201e-05,-9.99662e-06,2.30559e-05,1.27484e-05,7
-3.04844e-05,1.01881e-05,7.57048e-07,3.39024e-05,1.71866e-05,-1.19704e-05,1.62242e-05,1.55643e-05,7
-3.12967e-05,1.01613e-05,2.30758e-06,3.20143e-05,1.8472e-05,-1.39545e-05,4.42177e-06,1.70331e-05,7
-3.09594e-05,8.8777e-06,3.03531e-06,2.36913e-05,1.95161e-05,-1.52963e-05,-3.4603e-06,1.55548e-05,7
-3.05839e-05,6.64801e-06,1.64546e-06,1.47116e-05,2.02289e-05,-1.52134e-05,-3.16235e-06,1.07073e-05,7
-3.10368e-05,5.99356e-06,-2.99687e-06,8.7112e-06,2.10112e-05,-1.38274e-05,2.57455e-06,5.40813e-06,7
-3.16399e-05,6.8794e-06,-8.93595e-06,5.28643e-06,2.28365e-05,-1.16528e-05,9.8286e-06,2.87872e-06,7
-3.1515e-05,9.48695e-06,-1.38235e-05,3.67022e-06,2.37645e-05,-9.35783e-06,1.44441e-05,3.99353e-06,7
-3.05539e-05,1.2377e-05,-1.60371e-05,3.91173e-06,2.13719e-05,-7.11084e-06,1.424e-05,7.76263e-06,7
-2.96608e-05,1.37005e-05,-1.50411e-05,5.14657e-06,1.6171e-05,-6.99265e-06,1.1737e-05,1.1599e-05,7
-2.95373e-05,1.20825e-05,-1.3237e-05,5.19226e-06,1.15504e-05,-1.00795e-05,1.23107e-05,1.38285e-05,7
-3.11626e-05,9.58196e-06,-1.3617e-05,1.47847e-06,9.00807e-06,-1.30799e-05,1.61445e-05,1.49367e-05,7
-3.26537e-05,9.74331e-06,-1.61731e-05,-3.86716e-06,8.29404e-06,-1.24238e-05,1.92172e-05,1.52132e-05,7
-3.3004e-05,1.17243e-05,-1.78726e-05,-6.08409e-06,1.04161e-05,-1.02072e-05,2.01544e-05,1.49676e-05,7
-3.26741e-05,1.30501e-05,-1.70567e-05,-3.67639e-06,1.43857e-05,-9.22152e-06,1.75615e-05,1.4259e-05,7
-3.30286e-05,1.30782e-05,-1.44725e-05,6.64659e-07,1.65957e-05,-9.7551e-06,9.9457e-06,1.24521e-05,7
-3.46593e-05,1.2678e-05,-1.18052e-05,2.83509e-06,1.53255e-05,-1.04619e-05,2.7933e-06,8.8994e-06,7
-3.58768e-05,1.1977e-05,-9.30946e-06,1.27582e-06,1.37451e-05,-1.02144e-05,2.33844e-06,5.4604e-06,7
-3.33316e-05,1.22948e-05,-6.17528e-06,-2.86649e-06,1.38188e-05,-9.76398e-06,7.73567e-06,5.64884e-06,7
-2.89566e-05,1.26997e-05,-3.77476e-06,-7.36349e-06,1.39029e-05,-9.71553e-06,1.51137e-05,8.89433e-06,7
-2.80048e-05,1.26273e-05,-4.1501e-06,-7.13836e-06,1.31082e-05,-8.61407e-06,2.23306e-05,1.39346e-05,7
-2.96381e-05,1.24428e-05,-6.15369e-06,-3.23426e-06,1.41884e-05,-6.98487e-06,2.82777e-05,2.48826e-05,7
-3.03695e-05,1.2998e-05,-7.15392e-06,-2.39969e-06,1.68629e-05,-7.09612e-06,2.99383e-05,3.64548e-05,7
-2.98372e-05,1.38528e-05,-7.26563e-06,-5.77858e-06,2.01994e-05,-8.2711e-06,2.47472e-05,3.69375e-05,7
-3.06661e-05,1.38618e-05,-6.39309e-06,-8.01276e-06,2.28456e-05,-8.22816e-06,1.52014e-05,2.76775e-05,7
-3.37079e-05,1.33142e-05,-5.33764e-06,-7.26245e-06,2.17691e-05,-5.40107e-06,7.40818e-06,1.82244e-05,7
-3.60269e-05,1.36138e-05,-5.53595e-06,-8.89928e-06,1.7794e-05,-2.55989e-06,5.71959e-06,1.28178e-05,7
-3.54454e-05,1.46475e-05,-4.50479e-06,-9.87195e-06,1.37956e-05,-4.59583e-06,8.85044e-06,7.16234e-06,7
-3.30472e-05,1.43286e-05,-1.39259e-06,-2.73613e-06,1.27855e-05,-9.09002e-06,9.71163e-06,3.79991e-06,7
-3.14681e-05,1.29525e-05,2.42452e-07,7.67109e-06,1.52689e-05,-1.13992e-05,4.5125e-06,9.41331e-06,7
-3.14296e-05,1.32923e-05,-1.33625e-06,1.41452e-05,1.85455e-05,-1.21651e-05,-2.90675e-06,2.07357e-05,7
-3.26402e-05,1.50977e-05,-5.76181e-06,1.45807e-05,1.88364e-05,-1.20487e-05,-6.98828e-06,3.42808e-05,7
-3.42836e-05,1.54353e-05,-1.01286e-05,1.37305e-05,1.66353e-05,-1.03579e-05,-4.37896e-06,5.26804e-05,7
-3.57891e-05,1.43635e-05,-1.186e-05,1.69682e-05,1.61297e-05,-7.50673e-06,1.9282e-06,8.04478e-05,7
-3.62096e-05,1.41869e-05,-9.80414e-06,2.24412e-05,1.79361e-05,-5.96435e-06,8.81218e-06,0.000111543,7
-3.55011e-05,1.49712e-05,-4.84063e-06,2.4779e-05,1.93934e-05,-6.61859e-06,1.50826e-05,0.000123993,7
-3.43395e-05,1.59529e-05,-1.01451e-06,1.80868e-05,1.86121e-05,-8.63667e-06,1.86896e-05,0.000102963,7
-3.29561e-05,1.56012e-05,-2.08308e-06,-1.77228e-06,1.72208e-05,-9.82243e-06,1.88407e-05,4.97235e-05,7
-3.2655e-05,1.29723e-05,-8.47924e-06,-3.20843e-05,1.69019e-05,-9.07885e-06,1.58143e-05,-2.11848e-05,7
-3.26964e-05,1.02368e-05,-1.6033e-05,-5.59239e-05,1.64411e-05,-7.61826e-06,1.1985e-05,-8.52826e-05,7
-3.26585e-05,9.55851e-06,-1.92981e-05,-5.69514e-05,1.45602e-05,-7.27982e-06,9.03064e-06,-0.000121738,7
-3.17996e-05,1.07701e-05,-1.48707e-05,-3.77097e-05,1.3421e-05,-8.87958e-06,7.72728e-06,-0.000129938,7
-2.99313e-05,1.1759e-05,-6.80849e-06,-1.45432e-05,1.4932e-05,-1.11725e-05,6.56373e-06,-0.000121852,7
-2.83953e-05,1.09676e-05,-3.67558e-06,-1.7048e-06,1.59655e-05,-1.23497e-05,3.48325e-06,-0.00010533,7
-2.86128e-05,7.59867e-06,-6.95726e-06,-4.12172e-06,1.3634e-05,-1.15797e-05,-9.22888e-07,-8.68545e-05,7
-2.97344e-05,3.41575e-06,-8.44233e-06,-1.64359e-05,1.15145e-05,-1.1118e-05,-1.96663e-06,-6.94082e-05,7
-2.97655e-05,1.74901e-06,-2.79049e-06,-2.77717e-05,1.30262e-05,-1.22267e-05,5.81265e-06,-5.18858e-05,7
-2.80474e-05,3.89313e-06,4.02047e-06,-2.81298e-05,1.55608e-05,-1.21449e-05,1.95874e-05,-3.67369e-05,7
-2.63781e-05,7.24614e-06,5.7363e-06,-1.33593e-05,1.69147e-05,-9.34583e-06,3.01565e-05,-3.04711e-05,7
-2.51456e-05,9.73132e-06,3.59695e-06,3.97572e-06,1.53508e-05,-6.15909e-06,3.23596e-05,-3.09013e-05,7
-2.46204e-05,1.25046e-05,2.71528e-07,7.14143e-06,1.07815e-05,-3.73208e-06,2.78613e-05,-3.28142e-05,7
-2.52479e-05,1.65481e-05,-6.22762e-07,-4.07587e-06,8.48401e-06,-1.77752e-06,2.15139e-05,-3.64274e-05,7
-2.56476e-05,1.90785e-05,1.22867e-07,-1.90054e-05,1.14632e-05,-1.87659e-06,1.25971e-05,-3.98873e-05,7
-2.61739e-05,1.76198e-05,-1.4288e-06,-2.89077e-05,1.52927e-05,-4.68262e-06,2.51697e-06,-3.67295e-05,7
-2.66496e-05,1.58652e-05,-4.68391e-06,-3.28676e-05,1.71136e-05,-7.20888e-06,3.85935e-07,-2.61133e-05,7
-2.68985e-05,1.59813e-05,-6.27376e-06,-2.81711e-05,1.67315e-05,-8.89951e-06,7.63535e-06,-1.5489e-05,7
-2.80133e-05,1.5472e-05,-6.51783e-06,-1.48425e-05,1.42232e-05,-9.7096e-06,1.94454e-05,-6.58383e-06,7
-2.9639e-05,1.47456e-05,-6.29335e-06,1.54424e-06,1.12242e-05,-9.3775e-06,3.02592e-05,4.59518e-06,7
-3.07204e-05,1.50848e-05,-4.60033e-06,1.49072e-05,1.02518e-05,-9.6288e-06,3.64555e-05,1.62323e-05,7
-3.1624e-05,1.56753e-05,-4.03612e-06,2.12557e-05,1.15919e-05,-1.11103e-05,3.55967e-05,2.4675e-05,7
-3.23311e-05,1.44529e-05,-5.16183e-06,2.17484e-05,1.20652e-05,-1.24075e-05,2.64805e-05,3.3138e-05,7
-3.22447e-05,1.32288e-05,-6.80092e-06,2.17826e-05,1.15112e-05,-1.27141e-05,1.35029e-05,5.1394e-05,7
-3.22546e-05,1.32039e-05,-7.93189e-06,2.65864e-05,1.14531e-05,-1.31071e-05,2.77968e-06,7.79564e-05,7
-3.33122e-05,1.30095e-05,-8.67449e-06,3.29056e-05,1.24817e-05,-1.28846e-05,-4.69888e-06,9.55824e-05,7
-3.44399e-05,1.24726e-05,-9.25758e-06,3.49731e-05,1.35815e-05,-1.19841e-05,-9.75008e-06,9.6256e-05,7
-3.52614e-05,1.15299e-05,-9.67669e-06,3.14204e-05,1.46264e-05,-1.10763e-05,-7.72737e-06,8.61358e-05,7
-3.50662e-05,1.04144e-05,-9.34695e-06,2.73277e-05,1.65774e-05,-1.05795e-05,2.47809e-06,7.11446e-05,7
-3.36549e-05,8.85595e-06,-7.79842e-06,2.48739e-05,1.85059e-05,-1.04665e-05,1.21338e-05,4.74979e-05,7
-3.23372e-05,7.8595e-06,-7.58938e-06,2.10773e-05,1.78272e-05,-1.14366e-05,1.3576e-05,8.82721e-06,7
-3.17307e-05,7.76894e-06,-1.11019e-05,1.2369e-05,1.44619e-05,-1.31892e-05,9.1273e-06,-4.33117e-05,7
-3.05552e-05,8.92091e-06,-1.52228e-05,2.18315e-06,1.11484e-05,-1.37294e-05,3.63655e-06,-9.43478e-05,7
-2.91627e-05,1.05791e-05,-1.60269e-05,-3.31487e-06,9.79433e-06,-1.2442e-05,-3.64199e-07,-0.000122939,7
-2.79024e-05,1.15148e-05,-1.38793e-05,-3.82802e-06,1.04107e-05,-9.68239e-06,-1.74417e-06,-0.000118006,7
-2.62562e-05,1.19586e-05,-1.09528e-05,-4.31571e-06,1.16838e-05,-7.78541e-06,-5.52876e-07,-8.87806e-05,7
-2.4908e-05,1.29243e-05,-9.82066e-06,-5.9722e-06,1.36158e-05,-8.97968e-06,3.32433e-06,-5.48237e-05,7
-2.54255e-05,1.37348e-05,-1.03512e-05,-5.54359e-06,1.55247e-05,-1.08618e-05,7.07964e-06,-2.7818e-05,7
-2.60336e-05,1.42298e-05,-9.41259e-06,-4.19443e-06,1.68688e-05,-1.12464e-05,7.18393e-06,-8.6518e-06,7
-2.62523e-05,1.47119e-05,-8.78727e-06,-5.67145e-06,1.53834e-05,-1.12468e-05,3.09024e-06,3.9514e-06,7
-2.81746e-05,1.49449e-05,-1.2436e-05,-1.24301e-05,1.20804e-05,-1.09809e-05,-1.10594e-06,1.0871e-05,7
-2.85902e-05,1.45532e-05,-1.70244e-05,-1.83169e-05,9.19251e-06,-9.47479e-06,-3.71285e-06,2.2288e-05,7
-2.84685e-05,1.27925e-05,-2.00025e-05,-1.71547e-05,7.68158e-06,-7.28947e-06,-4.87523e-06,4.33058e-05,7
-2.8944e-05,1.07844e-05,-1.90597e-05,-8.89215e-06,9.70008e-06,-7.14128e-06,-3.74195e-06,6.1236e-05,7
-3.12604e-05,1.10336e-05,-1.46558e-05,1.37582e-06,1.32609e-05,-8.06414e-06,-3.74142e-08,6.50426e-05,7
-3.35457e-05,1.41982e-05,-9.66163e-06,8.17554e-06,1.50596e-05,-7.88292e-06,5.89856e-06,5.62703e-05,7
-3.23845e-05,1.68282e-05,-4.90795e-06,8.925e-06,1.3185e-05,-7.39643e-06,1.15358e-05,4.42452e-05,7
-2.99745e-05,1.64692e-05,-1.34888e-06,4.85607e-06,9.65803e-06,-7.58874e-06,1.48409e-05,3.48129e-05,7
-2.76583e-05,1.49068e-05,9.21235e-07,-1.52861e-07,6.04578e-06,-8.47799e-06,1.63053e-05,2.80325e-05,7
-2.67154e-05,1.31214e-05,3.03731e-06,-4.87969e-06,4.38128e-06,-9.24655e-06,1.90187e-05,1.89439e-05,7
-2.68812e-05,1.18984e-05,7.21419e-06,-8.43893e-06,6.11876e-06,-9.90131e-06,2.22924e-05,2.68082e-06,7
-2.82466e-05,1.22121e-05,9.904e-06,-1.2445e-05,9.85789e-06,-9.93785e-06,2.43937e-05,-1.87223e-05,7
-2.95873e-05,1.36075e-05,6.64271e-06,-1.90933e-05,1.30459e-05,-7.72143e-06,2.36402e-05,-3.64857e-05,7
-3.0237e-05,1.54e-05,-6.82147e-07,-2.70598e-05,1.37342e-05,-2.62861e-06,2.16155e-05,-4.13276e-05,7
-3.04389e-05,1.69208e-05,-5.57591e-06,-3.20231e-05,1.34964e-05,2.61068e-06,2.24525e-05,-3.12155e-05,7
-3.1648e-05,1.73077e-05,-5.92466e-06,-3.11225e-05,1.45882e-05,4.50414e-06,2.61776e-05,-1.4102e-05,7
-3.33395e-05,1.60417e-05,-5.57113e-06,-2.50037e-05,1.59171e-05,2.72115e-06,2.7668e-05,-1.68986e-06,7
-3.42098e-05,1.36105e-05,-6.60958e-06,-1.74098e-05,1.42288e-05,-1.43871e-06,2.19314e-05,2.13848e-06,7
-3.48616e-05,9.97975e-06,-7.05473e-06,-1.14853e-05,1.1415e-05,-6.3042e-06,1.21536e-05,1.3552e-06,7
-3.53433e-05,7.26393e-06,-4.97741e-06,-7.536e-06,1.00068e-05,-9.89246e-06,5.99875e-06,7.78016e-07,7
-3.61706e-05,7.24304e-06,-2.37037e-06,-5.53525e-06,1.0212e-05,-1.09242e-05,7.40736e-06,1.36922e-06,7
-3.72749e-05,9.32551e-06,-2.99567e-06,-4.66864e-06,1.1273e-05,-9.44086e-06,1.52298e-05,3.87958e-06,7
-3.72767e-05,1.12672e-05,-5.43949e-06,-3.77469e-06,1.20571e-05,-7.45185e-06,2.73514e-05,8.52212e-06,7
-3.50819e-05,1.20671e-05,-5.7671e-06,-2.81561e-06,1.35048e-05,-7.23498e-06,3.65557e-05,1.50666e-05,7
-3.28877e-05,1.24702e-05,-5.58393e-06,-1.1733e-06,1.74434e-05,-9.40024e-06,3.35403e-05,2.78531e-05,7
-3.23047e-05,1.32755e-05,-6.69417e-06,3.28757e-06,2.09033e-05,-1.22328e-05,1.84023e-05,4.63523e-05,7
-3.32862e-05,1.39597e-05,-8.53604e-06,7.47096e-06,1.77686e-05,-1.21666e-05,3.39181e-06,5.66236e-05,7
-3.37603e-05,1.37794e-05,-1.08578e-05,9.89437e-06,1.03749e-05,-1.14525e-05,-1.78533e-06,4.74778e-05,7
-3.39593e-05,1.22363e-05,-1.29834e-05,1.19452e-05,6.48258e-06,-1.34672e-05,5.32077e-07,2.61673e-05,7
-3.45054e-05,1.05375e-05,-1.3581e-05,1.33232e-05,8.16761e-06,-1.46204e-05,9.12702e-06,4.70221e-06,7
-3.36478e-05,1.05585e-05,-1.28704e-05,1.20398e-05,1.17464e-05,-1.23043e-05,2.25841e-05,-9.69542e-06,7
-3.09842e-05,1.09038e-05,-1.32918e-05,9.1716e-06,1.30626e-05,-7.82439e-06,3.02625e-05,-1.41593e-05,7
-2.75338e-05,1.16501e-05,-1.15839e-05,1.00441e-05,1.24915e-05,-3.90484e-06,2.6204e-05,-1.53348e-05,7
-2.46966e-05,1.39795e-05,-4.21131e-06,1.3724e-05,1.34611e-05,-2.57851e-06,1.67278e-05,-1.4332e-05,7
-2.33995e-05,1.7369e-05,2.04609e-06,1.30918e-05,1.56462e-05,-3.3239e-06,1.22718e-05,-1.17209e-05,7
-2.36271e-05,1.94925e-05,2.33619e-06,3.11603e-06,1.72795e-05,-4.99163e-06,1.40364e-05,-8.64851e-06,7
-2.47133e-05,2.02432e-05,-1.77541e-06,-1.25387e-05,1.76605e-05,-6.43671e-06,1.68548e-05,-4.58168e-06,7
-2.52828e-05,1.96632e-05,-5.78707e-06,-2.59447e-05,1.62697e-05,-6.46717e-06,1.69428e-05,-1.24213e-06,7
-2.50833e-05,1.81054e-05,-7.14746e-06,-3.02843e-05,1.59632e-05,-6.26697e-06,1.48815e-05,-6.60618e-08,7
-2.48831e-05,1.61557e-05,-6.33477e-06,-2.66837e-05,1.78476e-05,-7.61134e-06,1.39817e-05,2.26118e-06,7
-2.48626e-05,1.3915e-05,-6.58106e-06,-2.15604e-05,1.91381e-05,-1.04795e-05,1.36255e-05,1.26417e-05,7
-2.55968e-05,1.19177e-05,-9.63304e-06,-1.8368e-05,1.85817e-05,-1.34823e-05,1.47703e-05,2.63361e-05,7
-2.65369e-05,1.00406e-05,-1.26392e-05,-1.73535e-05,1.67967e-05,-1.53569e-05,1.89327e-05,3.84976e-05,7
-2.66164e-05,8.6592e-06,-1.38406e-05,-1.87613e-05,1.3551e-05,-1.60346e-05,2.2864e-05,5.85621e-05,7
-2.54025e-05,7.62093e-06,-1.34392e-05,-2.08876e-05,9.84989e-06,-1.52327e-05,2.2121e-05,8.90108e-05,7
-2.42455e-05,7.19648e-06,-1.20875e-05,-2.03261e-05,8.57083e-06,-1.3547e-05,1.61722e-05,0.000102215,7
-2.40321e-05,8.20329e-06,-1.05411e-05,-1.74563e-05,1.01747e-05,-1.20888e-05,4.78089e-06,8.71324e-05,7
-2.48774e-05,1.00027e-05,-8.74222e-06,-1.38858e-05,1.31892e-05,-1.15732e-05,-9.16056e-06,6.55712e-05,7
-2.62461e-05,1.04287e-05,-5.09853e-06,-9.41265e-06,1.49493e-05,-1.18871e-05,-2.02831e-05,4.75433e-05,7
-2.62768e-05,1.09822e-05,-9.79799e-07,-5.1375e-06,1.52011e-05,-1.23968e-05,-2.71147e-05,2.82752e-05,7
-2.5002e-05,1.15487e-05,8.64859e-07,-4.89035e-06,1.57889e-05,-1.20654e-05,-3.05174e-05,1.17953e-05,7
-2.38138e-05,1.06784e-05,-1.04808e-06,-7.58379e-06,1.55271e-05,-1.15122e-05,-2.76146e-05,1.85996e-06,7
-2.41447e-05,1.04898e-05,-5.59757e-06,-1.12549e-05,1.41826e-05,-1.19289e-05,-1.64393e-05,-1.81017e-05,7
-2.59946e-05,1.11887e-05,-1.20282e-05,-1.58358e-05,1.21168e-05,-1.10952e-05,-1.42933e-06,-6.49476e-05,7
-2.67353e-05,1.18197e-05,-1.58503e-05,-1.42744e-05,1.02731e-05,-8.25467e-06,9.08975e-06,-0.000114392,7
-2.53652e-05,1.27292e-05,-9.07172e-06,1.13562e-05,1.20307e-05,-5.01093e-06,1.36264e-05,-0.000138888,7
-2.44837e-05,1.47097e-05,4.65386e-06,5.28199e-05,1.74871e-05,-2.18483e-06,1.80257e-05,-0.000127996,7
-2.49243e-05,1.66321e-05,1.06419e-05,7.5262e-05,2.18943e-05,-9.59681e-07,2.10977e-05,-8.42949e-05,7
-2.56773e-05,1.59669e-05,4.84092e-06,6.72466e-05,2.16892e-05,-1.77536e-06,2.01401e-05,-3.83492e-05,7
-2.72687e-05,1.38063e-05,-4.94147e-06,3.35859e-05,1.87764e-05,-3.2033e-06,1.77938e-05,-3.50719e-06,7
-2.95604e-05,1.11125e-05,-1.1319e-05,-1.53728e-05,1.55352e-05,-6.60239e-06,2.15644e-05,1.6066e-05,7
-3.20912e-05,7.82472e-06,-1.41908e-05,-6.95793e-05,1.49547e-05,-1.13062e-05,3.06327e-05,1.90756e-05,7
-3.38477e-05,5.58988e-06,-1.69579e-05,-0.000108897,1.57111e-05,-1.42567e-05,3.59284e-05,5.94688e-06,7
-3.42405e-05,5.35662e-06,-1.89021e-05,-0.000109427,1.48696e-05,-1.43429e-05,3.34468e-05,-1.49444e-05,7
-3.43111e-05,6.72989e-06,-1.91099e-05,-7.55806e-05,1.12541e-05,-1.28284e-05,2.54707e-05,-2.55467e-05,7
-3.43535e-05,8.83203e-06,-1.59145e-05,-3.13419e-05,6.72162e-06,-1.14817e-05,1.74974e-05,-2.4396e-05,7
-3.35097e-05,1.23986e-05,-8.98652e-06,2.70409e-06,5.21482e-06,-1.00351e-05,1.22353e-05,-1.93614e-05,7
-3.23428e-05,1.63638e-05,-7.85112e-07,1.97784e-05,6.39494e-06,-8.15749e-06,9.55583e-06,-7.72574e-06,7
-3.17476e-05,1.8063e-05,4.32518e-06,2.31821e-05,8.6169e-06,-7.42976e-06,9.90924e-06,2.51734e-05,7
-3.15872e-05,1.65252e-05,5.76441e-06,2.33653e-05,1.00511e-05,-8.95131e-06,1.33886e-05,7.17466e-05,7
-3.1733e-05,1.39153e-05,5.21113e-06,2.5965e-05,1.0502e-05,-1.05939e-05,1.71694e-05,9.91472e-05,7
-3.27504e-05,1.2522e-05,2.27934e-06,3.00005e-05,1.0328e-05,-1.18148e-05,1.80959e-05,8.83755e-05,7
-3.43163e-05,1.26492e-05,-2.42497e-06,3.06739e-05,1.09545e-05,-1.29908e-05,1.71004e-05,5.1728e-05,7
-3.50363e-05,1.32777e-05,-4.61168e-06,2.36743e-05,1.24131e-05,-1.43819e-05,1.61909e-05,3.20558e-06,7
-3.46713e-05,1.4174e-05,-2.58025e-06,1.29879e-05,1.3621e-05,-1.46555e-05,1.50402e-05,-5.08043e-05,7
-3.4479e-05,1.55712e-05,4.44636e-07,5.45645e-06,1.38254e-05,-1.35444e-05,1.48548e-05,-0.000101421,7
-3.54769e-05,1.54013e-05,1.62561e-06,8.08873e-07,1.306e-05,-1.18743e-05,1.49662e-05,-0.000138773,7
-3.63988e-05,1.49882e-05,1.14187e-06,-2.1939e-06,1.11371e-05,-1.02088e-05,1.48978e-05,-0.000161458,7
-3.70605e-05,1.63413e-05,3.15551e-06,-2.11329e-06,1.05748e-05,-1.03291e-05,1.7862e-05,-0.000169504,7
-3.71261e-05,1.72852e-05,6.94292e-06,7.35669e-07,1.29589e-05,-1.13628e-05,2.38474e-05,-0.000157211,7
-3.77492e-05,1.56487e-05,7.58082e-06,2.90054e-06,1.35016e-05,-1.18664e-05,2.6816e-05,-0.000116412,7
-3.87428e-05,1.27402e-05,2.75172e-06,-4.75317e-07,1.12285e-05,-1.23513e-05,2.31668e-05,-5.98014e-05,7
-3.87663e-05,1.087e-05,-3.90625e-06,-4.66672e-06,9.97489e-06,-1.13214e-05,1.69965e-05,-1.09873e-05,7
-3.92651e-05,1.02344e-05,-7.60063e-06,-7.37964e-06,9.68005e-06,-8.86795e-06,1.48366e-05,1.95103e-05,7
-3.90483e-05,1.07383e-05,-8.11781e-06,-1.07538e-05,1.02091e-05,-7.23746e-06,1.80378e-05,3.28437e-05,7
-3.73171e-05,1.27381e-05,-6.87288e-06,-1.04894e-05,1.09445e-05,-6.1496e-06,2.16323e-05,3.99071e-05,7
-3.55063e-05,1.47426e-05,-7.15666e-06,-4.17028e-06,1.12481e-05,-5.51827e-06,2.09731e-05,4.10439e-05,7
-3.42368e-05,1.47734e-05,-9.07634e-06,4.36275e-06,1.26093e-05,-6.47763e-06,1.84132e-05,3.80554e-05,7
-3.34125e-05,1.372e-05,-1.06307e-05,8.7248e-06,1.36753e-05,-9.45242e-06,2.00558e-05,3.28728e-05,7
-3.26735e-05,1.27667e-05,-9.735e-06,6.62794e-06,1.39575e-05,-1.15487e-05,2.45431e-05,2.63814e-05,7
-3.0839e-05,1.32894e-05,-7.839e-06,-4.45278e-07,1.32092e-05,-1.05055e-05,2.6748e-05,1.77753e-05,7
-2.78507e-05,1.40458e-05,-7.85757e-06,-7.065e-06,1.29165e-05,-8.14e-06,2.38132e-05,9.27925e-06,7
-2.66622e-05,1.30806e-05,-8.55986e-06,-1.0526e-05,1.3408e-05,-7.6578e-06,1.75002e-05,3.8562e-06,7
-2.759e-05,1.1028e-05,-9.45438e-06,-1.36987e-05,1.29688e-05,-9.45511e-06,1.09411e-05,-3.16052e-08,7
-2.83471e-05,9.72836e-06,-1.02602e-05,-1.81616e-05,1.10377e-05,-1.12098e-05,7.12599e-06,-3.43068e-06,7
-2.75972e-05,9.80576e-06,-1.00636e-05,-2.2495e-05,9.82704e-06,-1.19363e-05,9.1044e-06,-7.14618e-06,7
-2.56329e-05,9.66281e-06,-7.47924e-06,-2.50193e-05,1.10957e-05,-1.22303e-05,1.58879e-05,-1.08229e-05,7
-2.47868e-05,9.3833e-06,-5.28486e-06,-2.60884e-05,1.34222e-05,-1.19176e-05,2.44134e-05,-1.40878e-05,7
-2.61059e-05,9.68568e-06,-6.02379e-06,-2.59255e-05,1.51814e-05,-1.13631e-05,3.11188e-05,-1.34978e-05,7
-2.78894e-05,1.00799e-05,-7.76328e-06,-2.4828e-05,1.62164e-05,-1.20914e-05,3.17991e-05,-9.79677e-06,7
-2.85831e-05,9.76516e-06,-7.40048e-06,-2.2263e-05,1.70765e-05,-1.3185e-05,2.2586e-05,-5.64358e-06,7
-2.81357e-05,1.04907e-05,-3.90144e-06,-1.91697e-05,1.60398e-05,-1.34672e-05,4.68477e-06,-3.21124e-06,7
-2.65636e-05,1.21449e-05,-1.02365e-06,-1.65081e-05,1.25857e-05,-1.29242e-05,-1.61687e-05,-8.95331e-07,7
-2.5234e-05,1.2265e-05,-3.58493e-06,-1.47643e-05,9.37997e-06,-1.13322e-05,-2.80357e-05,9.50469e-07,7
-2.61156e-05,1.0476e-05,-9.86893e-06,-1.24678e-05,8.15472e-06,-9.70278e-06,-2.20285e-05,2.69406e-06,7
-2.93341e-05,9.02326e-06,-1.41392e-05,-7.28681e-06,8.35863e-06,-9.47991e-06,-6.37752e-06,6.05587e-06,7
-3.17974e-05,9.83688e-06,-1.48256e-05,-6.052e-07,9.46145e-06,-9.93267e-06,4.972e-06,1.02032e-05,7
-3.07366e-05,1.13503e-05,-1.21236e-05,3.09134e-06,1.18413e-05,-8.79023e-06,8.19101e-06,1.44349e-05,7
-2.82553e-05,1.21272e-05,-9.96969e-06,2.73879e-06,1.36336e-05,-6.79295e-06,9.301e-06,1.94155e-05,7
-2.79303e-05,1.30783e-05,-1.13323e-05,-1.42705e-06,1.21323e-05,-5.66386e-06,1.2772e-05,2.53546e-05,7
-2.89663e-05,1.28512e-05,-1.37512e-05,-6.79443e-06,9.62545e-06,-7.21029e-06,1.69971e-05,3.19615e-05,7
-3.11282e-05,1.12847e-05,-1.45399e-05,-7.43067e-06,9.7293e-06,-1.02718e-05,1.89073e-05,3.88222e-05,7
-3.42298e-05,1.08565e-05,-1.03054e-05,-4.95127e-06,1.31378e-05,-1.24315e-05,1.78931e-05,4.51171e-05,7
-3.62426e-05,1.23325e-05,-4.14681e-06,-4.10793e-06,1.66814e-05,-1.26892e-05,1.6082e-05,4.7933e-05,7
-3.66046e-05,1.49459e-05,-2.62481e-06,-6.90079e-06,1.78998e-05,-1.08789e-05,1.33663e-05,4.68479e-05,7
-3.51134e-05,1.69788e-05,-5.96269e-06,-1.28109e-05,1.5122e-05,-8.11633e-06,8.62973e-06,4.52629e-05,7
-3.35423e-05,1.77438e-05,-7.82405e-06,-1.68911e-05,9.43639e-06,-4.09882e-06,5.25208e-06,4.34954e-05,7
-3.27252e-05,1.7517e-05,-5.47458e-06,-1.38513e-05,5.24161e-06,-1.54082e-06,4.28888e-06,4.01164e-05,7
-3.18909e-05,1.61557e-05,-1.88802e-06,-5.66873e-06,4.689e-06,-1.24367e-06,4.90619e-06,3.45782e-05,7
-3.09324e-05,1.41492e-05,-8.8441e-07,2.58657e-08,6.43669e-06,-2.36164e-06,7.03653e-06,2.86633e-05,7
-3.12316e-05,1.35642e-05,-4.08566e-06,-7.83863e-07,8.99829e-06,-4.05141e-06,9.3773e-06,2.49772e-05,7
-3.37493e-05,1.35132e-05,-8.52584e-06,-4.63717e-06,1.16259e-05,-5.35704e-06,1.16344e-05,2.98547e-05,7
-3.62232e-05,1.21169e-05,-1.1131e-05,-8.04187e-06,1.44019e-05,-6.22649e-06,1.43402e-05,4.26103e-05,7
-3.61593e-05,1.0405e-05,-9.90763e-06,-1.02777e-05,1.72289e-05,-7.68726e-06,1.74522e-05,4.9989e-05,7
-3.41286e-05,1.02446e-05,-6.2054e-06,-1.08319e-05,1.8471e-05,-9.40464e-06,2.04359e-05,4.24053e-05,7
-3.29366e-05,1.17919e-05,-3.04423e-06,-8.90205e-06,1.80056e-05,-9.69754e-06,2.31131e-05,2.40875e-05,7
-3.36978e-05,1.4172e-05,-2.82875e-06,-5.08509e-06,1.72309e-05,-9.38711e-06,2.46004e-05,3.55291e-06,7
-3.50846e-05,1.53519e-05,-4.58669e-06,-1.47286e-06,1.83424e-05,-9.89861e-06,2.43084e-05,-1.15814e-05,7
-3.60339e-05,1.42252e-05,-6.1601e-06,6.8363e-07,2.04095e-05,-1.20076e-05,2.20829e-05,-1.57552e-05,7
-3.60041e-05,1.23657e-05,-6.25594e-06,3.78723e-06,2.15704e-05,-1.46658e-05,1.80195e-05,-9.0804e-06,7
-3.51363e-05,1.0367e-05,-6.29056e-06,9.26284e-06,2.13835e-05,-1.67254e-05,1.25444e-05,2.70701e-06,7
-3.3886e-05,8.65017e-06,-7.30018e-06,1.32801e-05,2.13546e-05,-1.76697e-05,9.25363e-06,1.27755e-05,7
-3.37809e-05,8.35052e-06,-9.20037e-06,1.23189e-05,2.21254e-05,-1.64885e-05,9.34335e-06,1.54473e-05,7
-3.60839e-05,8.72525e-06,-1.20922e-05,7.8799e-06,2.11434e-05,-1.38853e-05,1.10804e-05,8.15002e-06,7
-3.79285e-05,7.77345e-06,-1.55512e-05,3.02242e-06,1.82271e-05,-1.18802e-05,1.30456e-05,-6.57355e-06,7
-3.67551e-05,7.64089e-06,-1.60048e-05,5.32253e-07,1.65558e-05,-9.24516e-06,1.31357e-05,-2.15726e-05,7
-3.35545e-05,1.07286e-05,-1.22687e-05,-3.50025e-06,1.70543e-05,-6.42466e-06,1.34319e-05,-3.33163e-05,7
-3.04419e-05,1.45053e-05,-6.94825e-06,-1.80755e-05,1.83829e-05,-5.05709e-06,1.70959e-05,-3.64597e-05,7
-2.84725e-05,1.663e-05,-3.6763e-06,-3.8563e-05,1.86889e-05,-5.79488e-06,2.21136e-05,-2.6083e-05,7
-2.69449e-05,1.60805e-05,-5.13489e-06,-5.08672e-05,1.91374e-05,-6.66485e-06,2.47519e-05,-1.37916e-05,7
-2.64538e-05,1.4837e-05,-6.09741e-06,-4.57179e-05,1.88432e-05,-6.67687e-06,2.54142e-05,-7.44643e-06,7
-2.7181e-05,1.49404e-05,-4.76338e-06,-2.87592e-05,1.73044e-05,-6.3258e-06,2.36802e-05,-7.78094e-06,7
-2.77399e-05,1.55909e-05,-3.17178e-06,-1.3849e-05,1.6434e-05,-6.57519e-06,1.96343e-05,-1.23833e-05,7
-2.76818e-05,1.49828e-05,-5.61246e-06,-5.79861e-06,1.55796e-05,-6.85213e-06,1.48501e-05,-1.74393e-05,7
-2.6395e-05,1.33983e-05,-9.53072e-06,4.19932e-07,1.45445e-05,-5.6161e-06,1.34437e-05,-2.13902e-05,7
-2.41682e-05,1.34549e-05,-9.12745e-06,7.38721e-06,1.31943e-05,-4.30535e-06,1.66465e-05,-2.34565e-05,7
-2.26939e-05,1.47482e-05,-6.44147e-06,1.37854e-05,1.49413e-05,-4.43943e-06,1.68852e-05,-2.32982e-05,7
-2.2464e-05,1.57885e-05,-5.78442e-06,1.87192e-05,1.92487e-05,-6.79243e-06,8.7267e-06,-1.80815e-05,7
-2.26557e-05,1.50525e-05,-7.47964e-06,2.02024e-05,2.23393e-05,-1.00062e-05,-1.98935e-06,-1.15489e-06,7
-2.27859e-05,1.33641e-05,-7.92465e-06,1.72723e-05,2.20446e-05,-1.24564e-05,-3.30027e-06,2.86186e-05,7
-2.26991e-05,1.23437e-05,-6.74067e-06,9.67114e-06,1.88807e-05,-1.30971e-05,7.12384e-06,5.55649e-05,7
-2.17582e-05,1.30861e-05,-5.4547e-06,5.37584e-07,1.50876e-05,-1.15115e-05,1.81222e-05,6.74157e-05,7
-1.98706e-05,1.4985e-05,-4.93622e-06,-5.50967e-06,1.29546e-05,-7.75618e-06,1.90682e-05,6.60035e-05,7
-1.73267e-05,1.56958e-05,-3.943e-06,-6.63046e-06,1.34313e-05,-4.62656e-06,1.35639e-05,5.54161e-05,7
-1.55246e-05,1.48953e-05,-2.55694e-06,-4.70152e-06,1.5247e-05,-4.68462e-06,9.53569e-06,3.5895e-05,7
-1.529e-05,1.42492e-05,-1.05238e-06,-2.07054e-06,1.67982e-05,-7.37339e-06,7.34335e-06,8.15571e-06,7
-1.59541e-05,1.42345e-05,1.42165e-07,-1.51876e-07,1.74349e-05,-9.79448e-06,4.87307e-06,-2.8299e-05,7
-1.69769e-05,1.38343e-05,5.18765e-08,2.16851e-06,1.72959e-05,-1.01617e-05,3.82423e-06,-6.72936e-05,7
-1.84589e-05,1.28166e-05,-2.20305e-06,5.75839e-06,1.72024e-05,-8.89341e-06,6.05304e-06,-8.43986e-05,7
-2.06756e-05,1.05103e-05,-5.87527e-06,9.25835e-06,1.79241e-05,-7.69247e-06,9.60009e-06,-6.79996e-05,7
-2.15254e-05,7.79206e-06,-8.26456e-06,1.41268e-05,1.72493e-05,-8.04142e-06,1.01515e-05,-3.75374e-05,7
-2.13121e-05,5.71817e-06,-8.76975e-06,2.17122e-05,1.59185e-05,-1.0279e-05,8.88304e-06,-7.70214e-06,7
-2.15866e-05,5.13294e-06,-7.24735e-06,2.44753e-05,1.63278e-05,-1.18715e-05,1.06151e-05,1.32584e-05,7
-2.25762e-05,5.6487e-06,-4.88488e-06,2.05474e-05,1.90889e-05,-1.16483e-05,1.22563e-05,2.24574e-05,7
-2.46466e-05,6.20627e-06,-4.4174e-06,1.6513e-05,2.03534e-05,-1.00984e-05,1.16824e-05,2.3934e-05,7
-2.61587e-05,7.60336e-06,-5.32314e-06,1.36978e-05,1.90319e-05,-8.19555e-06,1.08709e-05,1.87245e-05,7
-2.58949e-05,9.84878e-06,-3.56062e-06,1.33738e-05,1.67777e-05,-7.55369e-06,9.9324e-06,8.98496e-06,7
-2.47779e-05,1.35644e-05,3.15058e-07,1.2264e-05,1.38517e-05,-8.08711e-06,9.40517e-06,-8.14578e-06,7
-2.26634e-05,1.65659e-05,2.19967e-06,9.62263e-06,1.05165e-05,-9.28705e-06,9.20923e-06,-2.72057e-05,7
-2.16223e-05,1.61882e-05,1.26125e-06,5.49568e-06,7.63472e-06,-9.15458e-06,7.99273e-06,-3.74716e-05,7
-2.30224e-05,1.44005e-05,-1.58535e-06,2.49945e-07,6.27593e-06,-8.33391e-06,4.66182e-06,-3.33292e-05,7
-2.42556e-05,1.29389e-05,-6.25863e-06,-6.2826e-06,5.12337e-06,-8.29808e-06,-5.80935e-07,-2.09937e-05,7
-2.38909e-05,1.3257e-05,-1.07967e-05,-1.34806e-05,5.53394e-06,-9.48902e-06,-7.4315e-06,-6.22956e-06,7
-2.23487e-05,1.42407e-05,-1.10028e-05,-1.74844e-05,8.05377e-06,-1.06947e-05,-1.26442e-05,8.55818e-06,7
-2.18904e-05,1.43116e-05,-8.59456e-06,-1.68241e-05,9.994e-06,-1.10987e-05,-1.23965e-05,1.56807e-05,7
-2.31214e-05,1.43453e-05,-8.15798e-06,-1.47562e-05,8.00912e-06,-1.06622e-05,-6.82806e-06,9.74465e-06,7
-2.53531e-05,1.58652e-05,-1.06998e-05,-1.70222e-05,3.67987e-06,-1.03581e-05,8.26003e-07,-5.77787e-06,7
-2.71618e-05,1.76777e-05,-1.24864e-05,-2.04737e-05,1.57711e-06,-1.06805e-05,8.24671e-06,-2.0079e-05,7
-2.88496e-05,1.77852e-05,-1.09808e-05,-2.05529e-05,3.64611e-06,-1.11462e-05,1.48419e-05,-2.73657e-05,7
-3.09567e-05,1.69463e-05,-8.54781e-06,-1.66141e-05,7.3909e-06,-1.22626e-05,1.84778e-05,-2.84407e-05,7
-3.24908e-05,1.5376e-05,-7.0059e-06,-1.2528e-05,9.90746e-06,-1.42446e-05,1.8223e-05,-2.73773e-05,7
-3.30669e-05,1.32908e-05,-6.27667e-06,-1.10032e-05,1.0832e-05,-1.60986e-05,1.43575e-05,-2.38212e-05,7
-3.3001e-05,1.26337e-05,-6.54763e-06,-1.18855e-05,1.04894e-05,-1.5551e-05,7.55082e-06,-1.84535e-05,7
-3.27755e-05,1.35518e-05,-8.57795e-06,-1.43959e-05,1.00526e-05,-1.26828e-05,3.86435e-07,-1.20713e-05,7
-3.26708e-05,1.5156e-05,-1.09555e-05,-1.67555e-05,1.04497e-05,-8.84715e-06,-1.31204e-06,-3.76895e-06,7
-3.26502e-05,1.64125e-05,-1.25657e-05,-1.6233e-05,1.05704e-05,-5.79687e-06,3.95727e-06,5.75362e-06,7
-3.28113e-05,1.70666e-05,-1.31589e-05,-1.35878e-05,9.40116e-06,-4.98557e-06,1.03205e-05,1.86833e-05,7
-3.31177e-05,1.87975e-05,-1.03687e-05,-1.00333e-05,8.05618e-06,-6.71195e-06,1.34635e-05,3.48388e-05,7
-3.28897e-05,1.91096e-05,-5.94765e-06,-5.63248e-06,8.84905e-06,-1.11445e-05,1.34294e-05,5.21975e-05,7
-3.22452e-05,1.62162e-05,-6.164e-06,-1.83565e-06,1.26928e-05,-1.36869e-05,1.10201e-05,6.63582e-05,7
-3.19437e-05,1.30994e-05,-6.19302e-06,1.06995e-06,1.69923e-05,-1.16873e-05,8.92078e-06,7.35237e-05,7
-3.28752e-05,1.23164e-05,-2.82888e-06,2.38053e-06,1.94339e-05,-8.14316e-06,1.02868e-05,7.36383e-05,7
-3.28828e-05,1.28473e-05,-2.27721e-06,1.35915e-06,1.93768e-05,-5.05808e-06,1.39639e-05,6.09822e-05,7
-3.30977e-05,1.28236e-05,-6.89504e-06,-3.12298e-06,1.79462e-05,-4.04837e-06,1.74737e-05,4.06508e-05,7
-3.48023e-05,1.2077e-05,-1.23084e-05,-9.57794e-06,1.45885e-05,-5.75391e-06,2.08438e-05,2.24127e-05,7
-3.61733e-05,1.19254e-05,-1.25953e-05,-1.0471e-05,1.21559e-05,-1.0049e-05,2.4971e-05,1.15145e-05,7
-3.61478e-05,1.26909e-05,-8.14173e-06,-1.57435e-06,1.33555e-05,-1.29386e-05,3.02266e-05,1.13729e-05,7
-3.46763e-05,1.47706e-05,-2.1355e-06,1.06276e-05,1.44165e-05,-1.17514e-05,3.42711e-05,1.73027e-05,7
-3.36371e-05,1.64456e-05,1.51476e-06,1.67312e-05,1.15455e-05,-8.07694e-06,3.4536e-05,1.67243e-05,7
-3.3558e-05,1.64995e-05,1.54526e-06,1.06122e-05,6.37618e-06,-6.17291e-06,3.16071e-05,5.11411e-06,7
-3.34437e-05,1.60127e-05,3.25144e-08,-3.58676e-06,3.47782e-06,-7.38849e-06,2.63754e-05,-8.59363e-06,7
-3.23498e-05,1.51501e-05,-5.73584e-07,-1.59797e-05,4.87054e-06,-9.82233e-06,1.73975e-05,-2.13927e-05,7
-3.15454e-05,1.45162e-05,-1.99579e-07,-2.21152e-05,9.03265e-06,-1.18834e-05,3.91758e-06,-3.15701e-05,7
-3.23615e-05,1.41133e-05,1.79227e-06,-2.55479e-05,1.23075e-05,-1.29111e-05,-8.53721e-06,-2.32535e-05,7
-3.41943e-05,1.34718e-05,4.55237e-06,-2.95713e-05,1.32936e-05,-1.35426e-05,-1.17219e-05,1.53687e-05,7
-3.54703e-05,1.17516e-05,3.8691e-06,-3.35674e-05,1.36351e-05,-1.28736e-05,-2.26785e-06,5.55375e-05,7
-3.48403e-05,9.5924e-06,-1.79154e-06,-3.74579e-05,1.4728e-05,-1.1196e-05,1.22847e-05,6.13976e-05,7
-3.27866e-05,8.20136e-06,-8.36253e-06,-3.83662e-05,1.50677e-05,-9.45197e-06,2.14277e-05,3.62265e-05,7
-3.16428e-05,9.24691e-06,-1.06143e-05,-2.97048e-05,1.45474e-05,-7.80347e-06,2.30733e-05,3.44397e-06,7
-3.23825e-05,1.14047e-05,-8.69179e-06,-1.43321e-05,1.45845e-05,-4.93444e-06,2.05918e-05,-2.98262e-05,7
-3.31998e-05,1.27061e-05,-5.55904e-06,-2.03405e-06,1.4812e-05,-2.59427e-06,1.55806e-05,-6.36299e-05,7
-3.37931e-05,1.2885e-05,-3.36577e-06,4.11787e-06,1.38965e-05,-3.41377e-06,8.64506e-06,-9.0823e-05,7
-3.50409e-05,1.21585e-05,-1.45424e-06,4.30215e-06,1.27975e-05,-6.7438e-06,2.33302e-06,-0.000105539,7
-3.58584e-05,1.06974e-05,-1.9151e-06,2.01268e-07,1.24355e-05,-1.03614e-05,4.04289e-07,-0.00010561,7
-3.74509e-05,9.28324e-06,-6.85271e-06,-2.99737e-06,1.2704e-05,-1.22353e-05,3.25857e-06,-8.50344e-05,7
-4.04813e-05,9.18909e-06,-1.16728e-05,1.19063e-06,1.30751e-05,-1.17244e-05,8.96296e-06,-4.2133e-05,7
-4.28759e-05,1.00559e-05,-1.19855e-05,1.29814e-05,1.24454e-05,-1.01475e-05,1.483e-05,1.04715e-05,7
-4.37696e-05,1.11077e-05,-1.14394e-05,2.38925e-05,9.60184e-06,-9.0117e-06,1.94017e-05,7.0842e-05,7
-4.37906e-05,1.17706e-05,-1.34059e-05,2.79464e-05,6.74949e-06,-8.38629e-06,2.3836e-05,0.000129119,7
-4.33574e-05,1.26588e-05,-1.63106e-05,2.77872e-05,6.47177e-06,-6.54323e-06,2.67395e-05,0.000159761,7
-4.31711e-05,1.36596e-05,-1.76366e-05,2.53298e-05,8.69732e-06,-4.00755e-06,2.65665e-05,0.000144952,7
-4.38044e-05,1.49219e-05,-1.68897e-05,2.09331e-05,1.17902e-05,-2.2339e-06,2.13664e-05,8.15185e-05,7
-4.42748e-05,1.53258e-05,-1.58034e-05,1.70765e-05,1.30138e-05,-1.90251e-06,1.35178e-05,-1.50952e-05,7
-4.47042e-05,1.39609e-05,-1.25068e-05,1.50268e-05,1.38584e-05,-4.48918e-06,6.51853e-06,-0.00012089,7
-4.47206e-05,1.27794e-05,-6.93203e-06,1.19456e-05,1.48518e-05,-8.61927e-06,1.04226e-06,-0.000196537,7
-4.42102e-05,1.30138e-05,-4.18936e-06,5.53768e-06,1.63105e-05,-1.11695e-05,-3.1972e-06,-0.000223723,7
-4.26642e-05,1.41154e-05,-6.62088e-06,-1.2434e-06,1.81496e-05,-1.06555e-05,-4.6346e-06,-0.000211991,7
-4.01423e-05,1.44414e-05,-1.03478e-05,-5.04235e-06,1.84902e-05,-8.75147e-06,7.74341e-07,-0.000173886,7
-3.78481e-05,1.37752e-05,-1.20039e-05,-6.45905e-06,1.70585e-05,-8.11759e-06,1.29533e-05,-0.000122397,7
-3.62324e-05,1.27778e-05,-1.14084e-05,-6.98056e-06,1.54563e-05,-9.66751e-06,2.74451e-05,-7.10998e-05,7
-3.47836e-05,1.21359e-05,-1.03441e-05,-7.4956e-06,1.50145e-05,-1.09408e-05,3.55472e-05,-3.37368e-05,7
-3.28826e-05,1.12613e-05,-1.03679e-05,-8.7155e-06,1.44186e-05,-1.08151e-05,3.17449e-05,-1.3558e-05,7
-3.08094e-05,9.3824e-06,-1.14626e-05,-2.47148e-06,1.25511e-05,-1.05748e-05,1.92977e-05,-5.66206e-06,7
-2.8864e-05,7.76308e-06,-1.17647e-05,2.26353e-05,1.10402e-05,-1.22468e-05,7.9427e-06,-1.33107e-06,7
-2.75907e-05,7.17789e-06,-9.07303e-06,5.82973e-05,1.16341e-05,-1.5539e-05,5.51787e-06,9.8245e-07,7
-2.71048e-05,7.24297e-06,-3.5495e-06,8.34334e-05,1.3156e-05,-1.7114e-05,1.19075e-05,2.4171e-06,7
-2.76827e-05,7.91213e-06,1.2146e-06,8.62557e-05,1.41528e-05,-1.65042e-05,1.99369e-05,4.45868e-06,7
-2.95108e-05,8.64217e-06,4.68067e-07,5.89448e-05,1.52987e-05,-1.64295e-05,2.21241e-05,8.95136e-06,7
-3.14808e-05,9.11811e-06,-5.09845e-06,-1.17051e-06,1.71267e-05,-1.76664e-05,1.82581e-05,1.56512e-05,7
-3.18643e-05,1.02305e-05,-1.0026e-05,-7.99731e-05,1.72698e-05,-1.87871e-05,1.41748e-05,2.3253e-05,7
-3.10358e-05,1.25572e-05,-9.23368e-06,-0.000142284,1.57617e-05,-1.80222e-05,1.12477e-05,2.91523e-05,7
-2.95758e-05,1.48519e-05,-5.35163e-06,-0.00015681,1.56367e-05,-1.55251e-05,6.77264e-06,3.19279e-05,7
-2.81172e-05,1.55599e-05,-3.68529e-06,-0.000131064,1.62994e-05,-1.06987e-05,-1.62029e-06,3.3133e-05,7
-2.79604e-05,1.64355e-05,-4.61905e-06,-9.54121e-05,1.52174e-05,-4.39635e-06,-1.04258e-05,3.68577e-05,7
-2.83402e-05,1.76161e-05,-5.27745e-06,-6.46229e-05,1.43817e-05,-3.09338e-07,-1.17338e-05,4.21351e-05,7
-2.84857e-05,1.82086e-05,-4.14978e-06,-3.89023e-05,1.56076e-05,1.52565e-06,-4.45979e-06,4.46663e-05,7
-2.91358e-05,1.87797e-05,-4.00584e-06,-1.8684e-05,1.69833e-05,1.31316e-06,4.21624e-06,4.36576e-05,7
-3.0111e-05,1.89038e-05,-5.414e-06,-6.31024e-07,1.81169e-05,-9.55889e-08,8.27041e-06,4.10108e-05,7
-2.99874e-05,1.73689e-05,-6.25684e-06,1.51273e-05,1.84203e-05,-3.4447e-06,9.90748e-06,3.97422e-05,7
-2.87242e-05,1.46659e-05,-6.36609e-06,2.63391e-05,1.68167e-05,-7.32419e-06,1.17555e-05,3.79273e-05,7
-2.80651e-05,1.25518e-05,-7.73373e-06,2.95526e-05,1.35389e-05,-9.37155e-06,1.83066e-05,3.66818e-05,7
-2.8509e-05,1.18944e-05,-1.12067e-05,2.07064e-05,1.10668e-05,-1.02163e-05,2.8321e-05,3.51944e-05,7
-2.93125e-05,1.16807e-05,-1.52352e-05,3.05564e-06,1.16495e-05,-1.0733e-05,3.53658e-05,3.27597e-05,7
-3.04512e-05,1.08955e-05,-1.67555e-05,-1.15707e-05,1.37426e-05,-1.08704e-05,3.50019e-05,3.04982e-05,7
-3.13034e-05,1.01935e-05,-1.33574e-05,-1.56058e-05,1.57095e-05,-1.02337e-05,2.79278e-05,3.28037e-05,7
-3.1243e-05,1.0031e-05,-8.65388e-06,-1.36521e-05,1.60453e-05,-1.07842e-05,1.63981e-05,3.97672e-05,7
-3.15825e-05,9.9175e-06,-8.60525e-06,-1.14067e-05,1.41084e-05,-1.25903e-05,1.01813e-06,4.60868e-05,7
-3.21174e-05,8.86766e-06,-1.27666e-05,-9.17984e-06,1.15844e-05,-1.37009e-05,-1.37379e-05,4.87851e-05,7
-3.11078e-05,7.93186e-06,-1.45972e-05,-2.74714e-06,9.92738e-06,-1.37153e-05,-1.97456e-05,4.91666e-05,7
-2.9261e-05,8.66408e-06,-1.05669e-05,7.47295e-06,9.21353e-06,-1.38062e-05,-1.24519e-05,4.68626e-05,7
-2.79037e-05,1.0572e-05,-4.73702e-06,1.74997e-05,9.36534e-06,-1.29082e-05,9.95915e-07,3.96791e-05,7
-2.73654e-05,1.06698e-05,-1.88422e-06,2.38122e-05,1.01664e-05,-1.04275e-05,1.23057e-05,2.90015e-05,7
-2.77785e-05,8.50196e-06,-2.88502e-06,2.6544e-05,1.01909e-05,-8.11164e-06,2.04451e-05,1.69829e-05,7
-2.95444e-05,5.85753e-06,-6.78211e-06,2.61404e-05,9.61757e-06,-7.38605e-06,2.72338e-05,7.02998e-06,7
-3.11665e-05,4.59985e-06,-1.16299e-05,2.25734e-05,9.13407e-06,-7.90066e-06,3.06174e-05,4.92797e-07,7
-3.01596e-05,5.26664e-06,-1.36483e-05,1.79747e-05,9.06952e-06,-7.90638e-06,2.87707e-05,-3.49681e-06,7
-2.70884e-05,6.21318e-06,-1.32651e-05,1.37891e-05,9.5712e-06,-8.3023e-06,2.25709e-05,-5.6937e-06,7
-2.43788e-05,7.28926e-06,-1.35209e-05,9.4509e-06,9.93804e-06,-1.07397e-05,1.50325e-05,-6.03074e-06,7
-2.26636e-05,9.39649e-06,-1.3065e-05,5.32837e-06,1.07665e-05,-1.25434e-05,6.67171e-06,-4.12065e-06,7
-1.9759e-05,1.17818e-05,-9.52753e-06,4.66216e-06,1.02076e-05,-1.30316e-05,-1.31103e-07,8.85851e-07,7
-1.63024e-05,1.41372e-05,-3.65588e-06,6.08276e-06,9.65978e-06,-1.27497e-05,-1.20002e-06,3.33283e-06,7
-1.51468e-05,1.61386e-05,1.88146e-06,6.26838e-06,1.13582e-05,-1.24757e-05,-1.46926e-06,3.01547e-06,7
-1.64718e-05,1.48244e-05,1.75324e-06,3.97376e-06,1.28611e-05,-1.26793e-05,-4.2677e-06,4.53755e-06,7
-1.78336e-05,1.17053e-05,-4.54938e-06,-4.807e-07,1.29225e-05,-1.2285e-05,-6.54006e-06,7.51642e-06,7
-1.82522e-05,9.20896e-06,-1.09845e-05,-5.4982e-06,1.1094e-05,-1.22733e-05,-6.24144e-06,8.18245e-06,7
-1.9705e-05,7.82528e-06,-1.58963e-05,-9.11492e-06,1.05131e-05,-1.23465e-05,-4.31227e-07,3.526e-06,7
-2.16102e-05,7.15521e-06,-1.62905e-05,-1.0121e-05,1.18495e-05,-1.31484e-05,8.59215e-06,-1.97252e-06,7
-2.30498e-05,6.54197e-06,-1.09159e-05,-1.07206e-05,1.35208e-05,-1.43308e-05,1.54038e-05,-7.57043e-06,7
-2.39766e-05,6.6702e-06,-2.28761e-06,-1.44975e-05,1.31313e-05,-1.44128e-05,1.72876e-05,-1.20749e-05,7
-2.46912e-05,8.77641e-06,2.11755e-06,-2.41863e-05,1.02541e-05,-1.20936e-05,1.4506e-05,-1.47095e-05,7
-2.53486e-05,1.34206e-05,-1.86238e-06,-3.52681e-05,7.9115e-06,-8.86429e-06,1.12084e-05,-1.18786e-05,7
-2.56728e-05,1.71929e-05,-7.2714e-06,-3.93293e-05,8.40663e-06,-7.04982e-06,7.8777e-06,1.94878e-06,7
-2.50546e-05,1.85114e-05,-7.9933e-06,-3.49242e-05,1.12768e-05,-6.28369e-06,4.17457e-06,1.97005e-05,7
-2.42413e-05,1.91848e-05,-4.76423e-06,-2.73525e-05,1.30946e-05,-5.046e-06,3.28569e-06,2.909e-05,7
-2.56679e-05,1.92425e-05,-2.79128e-06,-2.03766e-05,1.25225e-05,-3.12799e-06,7.83779e-06,2.67009e-05,7
-2.87879e-05,1.73643e-05,-4.6508e-06,-1.20061e-05,1.0613e-05,-3.70294e-06,1.45099e-05,1.82627e-05,7
-3.12021e-05,1.45548e-05,-9.26159e-06,-2.1884e-06,9.71436e-06,-5.69616e-06,1.87024e-05,7.44409e-06,7
-3.23068e-05,1.26814e-05,-1.20137e-05,5.65791e-06,1.02089e-05,-6.44798e-06,1.87342e-05,-2.07499e-06,7
-3.23055e-05,1.25928e-05,-1.13033e-05,9.63432e-06,1.22867e-05,-6.59815e-06,1.68258e-05,-6.50779e-06,7
-3.15815e-05,1.28518e-05,-9.01135e-06,1.05943e-05,1.61374e-05,-7.19177e-06,1.64011e-05,-3.88979e-06,7
-3.10263e-05,1.24438e-05,-6.97904e-06,1.05633e-05,1.8931e-05,-8.73939e-06,1.7943e-05,2.17195e-06,7
-3.06296e-05,1.2427e-05,-5.66641e-06,1.15211e-05,1.79812e-05,-1.07608e-05,1.85798e-05,4.02271e-06,7
-3.1064e-05,1.25835e-05,-4.26726e-06,1.25491e-05,1.52866e-05,-1.02985e-05,1.89645e-05,-3.48753e-06,7
-3.16295e-05,1.25322e-05,-2.1534e-06,1.14822e-05,1.34547e-05,-8.45489e-06,1.97685e-05,-1.871e-05,7
-3.10755e-05,1.19327e-05,-2.01708e-07,6.75545e-06,1.42766e-05,-7.48351e-06,1.97043e-05,-3.44431e-05,7
-2.95465e-05,1.07135e-05,-1.41568e-07,4.14264e-07,1.39768e-05,-8.19759e-06,2.00301e-05,-4.54313e-05,7
-3.00511e-05,9.7785e-06,-3.8999e-06,-2.00216e-06,1.05552e-05,-8.9827e-06,2.03475e-05,-5.01652e-05,7
-3.27514e-05,9.30535e-06,-9.12709e-06,-1.73565e-08,8.4037e-06,-6.56042e-06,2.12308e-05,-5.14298e-05,7
-3.34763e-05,1.02035e-05,-1.15493e-05,3.20429e-06,1.06842e-05,-6.51534e-06,2.12391e-05,-5.05548e-05,7
-3.23463e-05,1.33233e-05,-1.11619e-05,3.75883e-06,1.54552e-05,-8.47123e-06,2.14443e-05,-4.65897e-05,7
-3.05782e-05,1.63177e-05,-8.23389e-06,-4.20039e-08,1.94642e-05,-9.42574e-06,2.44494e-05,-3.97607e-05,7
-2.8576e-05,1.74904e-05,-4.72019e-06,-3.21595e-06,2.16153e-05,-9.17217e-06,2.76876e-05,-2.62697e-05,7
-2.7428e-05,1.70793e-05,-2.71286e-06,-2.38983e-06,1.87485e-05,-8.02365e-06,2.79757e-05,6.484e-07,7
-2.78953e-05,1.56178e-05,-2.53623e-06,2.00871e-06,1.48343e-05,-8.26636e-06,2.70009e-05,3.01843e-05,7
-2.96922e-05,1.37135e-05,-5.52415e-06,3.66524e-06,1.39414e-05,-8.84879e-06,2.68945e-05,4.50899e-05,7
-3.08729e-05,1.30606e-05,-1.0202e-05,-5.75328e-07,1.5231e-05,-8.74257e-06,2.65663e-05,4.69133e-05,7
-3.03413e-05,1.50305e-05,-1.19484e-05,-4.18642e-06,1.56347e-05,-7.20053e-06,2.36665e-05,4.24602e-05,7
-2.94515e-05,1.69854e-05,-9.59708e-06,-4.8853e-06,1.4735e-05,-6.30519e-06,1.63475e-05,3.34377e-05,7
-2.89054e-05,1.62024e-05,-5.47777e-06,-6.58074e-06,1.46092e-05,-7.80292e-06,6.72976e-06,1.6944e-05,7
-2.84625e-05,1.42452e-05,-2.76057e-06,-1.21006e-05,1.58209e-05,-1.13596e-05,2.25427e-07,-1.02826e-05,7
-2.86958e-05,1.28741e-05,-3.97706e-06,-1.89795e-05,1.77248e-05,-1.34984e-05,1.63685e-06,-4.64116e-05,7
