ch1,ch2,ch3,ch4,ch5,ch6,ch7,ch8,class
-2.50559e-05,1.05215e-05,-5.49553e-06,5.1031e-06,1.38167e-05,-6.83588e-06,1.2952e-05,6.48008e-05,7
-2.47025e-05,1.28385e-05,-4.69139e-06,1.0923e-05,1.5212e-05,-7.98916e-06,1.33097e-05,6.41608e-05,7
-2.52156e-05,1.39197e-05,-5.74096e-06,1.52354e-05,1.67558e-05,-9.34252e-06,1.71333e-05,6.21368e-05,7
-2.64758e-05,1.2458e-05,-7.05273e-06,1.96671e-05,1.76163e-05,-9.02997e-06,2.0218e-05,5.35269e-05,7
-2.66951e-05,9.93393e-06,-8.29445e-06,2.20917e-05,1.76439e-05,-8.78847e-06,2.09968e-05,2.39085e-05,7
-2.53618e-05,8.21683e-06,-8.36161e-06,2.19395e-05,1.64658e-05,-9.03131e-06,2.13297e-05,-2.19684e-05,7
-2.48463e-05,7.78899e-06,-6.66131e-06,1.86008e-05,1.56294e-05,-9.28704e-06,2.3242e-05,-6.86711e-05,7
-2.55024e-05,7.50835e-06,-4.74955e-06,1.29341e-05,1.58803e-05,-9.61279e-06,2.56054e-05,-9.86853e-05,7
-2.57212e-05,6.02801e-06,-5.89284e-06,4.58055e-06,1.68197e-05,-9.83176e-06,2.62126e-05,-0.000101901,7
-2.44886e-05,4.89826e-06,-8.79239e-06,-6.23451e-06,1.70566e-05,-1.1406e-05,2.57778e-05,-8.48179e-05,7
-2.30307e-05,5.5617e-06,-1.12427e-05,-1.64837e-05,1.67847e-05,-1.35224e-05,2.7396e-05,-6.25039e-05,7
-2.29744e-05,7.54665e-06,-1.33353e-05,-2.52153e-05,1.45081e-05,-1.40654e-05,3.33934e-05,-4.54036e-05,7
-2.4121e-05,1.01587e-05,-1.29454e-05,-2.70864e-05,1.09303e-05,-1.26408e-05,4.05796e-05,-3.34898e-05,7
-2.49838e-05,1.30846e-05,-9.12759e-06,-1.89052e-05,8.628e-06,-1.18669e-05,3.91329e-05,-2.19428e-05,7
-2.54126e-05,1.49332e-05,-4.2144e-06,-6.20629e-06,8.63469e-06,-1.2845e-05,2.21978e-05,-1.00041e-05,7
-2.57164e-05,1.59965e-05,-2.25204e-06,9.15226e-08,8.39495e-06,-1.40287e-05,-5.54382e-06,1.57322e-06,7
-2.59443e-05,1.61787e-05,-2.55485e-06,-4.37355e-07,6.61385e-06,-1.35063e-05,-3.00783e-05,1.50289e-05,7
-2.64938e-05,1.51696e-05,-3.81096e-06,-2.94732e-06,8.2769e-06,-1.25565e-05,-4.00894e-05,2.57161e-05,7
-2.73303e-05,1.46566e-05,-5.55276e-06,-3.53668e-06,1.55216e-05,-1.24671e-05,-3.52741e-05,2.75377e-05,7
-2.77994e-05,1.43447e-05,-6.7223e-06,2.50095e-07,2.13263e-05,-1.23883e-05,-2.27825e-05,2.34607e-05,7
-2.84996e-05,1.29368e-05,-6.89961e-06,6.29687e-06,2.06273e-05,-1.15058e-05,-9.64168e-06,2.04818e-05,7
-3.0953e-05,1.16504e-05,-7.17653e-06,8.72587e-06,1.73259e-05,-1.15736e-05,1.67128e-06,2.50062e-05,7
-3.42612e-05,1.12301e-05,-7.25225e-06,6.04831e-06,1.57574e-05,-1.29298e-05,1.13787e-05,3.48514e-05,7
-3.74286e-05,1.13924e-05,-5.82123e-06,-1.69663e-06,1.52503e-05,-1.31999e-05,1.81549e-05,4.37292e-05,7
-3.8301e-05,1.19604e-05,-3.73607e-06,-1.22131e-05,1.09094e-05,-1.33017e-05,1.92783e-05,5.11717e-05,7
-3.65415e-05,1.40557e-05,-3.67622e-06,-2.00079e-05,3.08805e-06,-1.14625e-05,1.61793e-05,5.30998e-05,7
-3.54263e-05,1.5468e-05,-4.5952e-06,-2.39499e-05,-9.2471e-07,-9.66093e-06,1.36902e-05,5.01943e-05,7
-3.58024e-05,1.42832e-05,-5.50427e-06,-2.2835e-05,2.77835e-06,-1.02233e-05,1.13149e-05,4.70133e-05,7
-3.74131e-05,1.34222e-05,-8.45167e-06,-1.65611e-05,8.94537e-06,-1.09871e-05,1.01456e-05,3.90553e-05,7
-3.87646e-05,1.29354e-05,-1.11677e-05,-7.45298e-06,1.33039e-05,-1.21512e-05,1.25015e-05,1.90659e-05,7
-3.92239e-05,1.23171e-05,-1.28567e-05,7.59201e-07,1.58712e-05,-1.28474e-05,1.57616e-05,-8.74091e-06,7
-3.89928e-05,1.1495e-05,-1.45757e-05,6.11457e-06,1.61584e-05,-1.21323e-05,1.74358e-05,-3.49478e-05,7
-3.91043e-05,1.05815e-05,-1.53718e-05,1.09874e-05,1.40039e-05,-1.08031e-05,1.83091e-05,-5.27052e-05,7
-4.036e-05,1.01542e-05,-1.51975e-05,1.76139e-05,1.01659e-05,-1.03136e-05,2.08572e-05,-4.06871e-05,7
-4.13622e-05,1.01458e-05,-1.4501e-05,2.34224e-05,7.62735e-06,-1.03382e-05,2.438e-05,6.93714e-06,7
-4.09558e-05,1.07018e-05,-1.33617e-05,2.51322e-05,7.82217e-06,-1.02277e-05,2.75941e-05,5.65585e-05,7
-3.98915e-05,1.20193e-05,-1.03441e-05,2.52363e-05,9.7759e-06,-1.05299e-05,2.78176e-05,7.896e-05,7
-3.96931e-05,1.30097e-05,-5.98584e-06,2.56123e-05,1.22859e-05,-1.06996e-05,2.45852e-05,7.16847e-05,7
-3.96432e-05,1.20929e-05,-3.21228e-06,2.23684e-05,1.48448e-05,-9.88268e-06,2.24188e-05,4.47664e-05,7
-3.9079e-05,1.02003e-05,-3.50669e-06,1.5535e-05,1.66249e-05,-8.93388e-06,2.33456e-05,1.16321e-05,7
-3.76513e-05,9.23949e-06,-3.92272e-06,1.102e-05,1.66623e-05,-9.47128e-06,2.19229e-05,-1.62177e-05,7
-3.5733e-05,9.22478e-06,-1.66421e-06,1.23133e-05,1.63816e-05,-1.18144e-05,1.30319e-05,-3.75186e-05,7
-3.45342e-05,8.99485e-06,-4.66812e-09,1.42278e-05,1.67045e-05,-1.4489e-05,2.0124e-06,-6.3007e-05,7
-3.49962e-05,8.09404e-06,-1.53603e-06,1.12718e-05,1.69994e-05,-1.45371e-05,-1.19157e-06,-0.000102189,7
-3.6132e-05,7.19062e-06,-5.3256e-06,4.76106e-06,1.66786e-05,-1.23237e-05,3.07735e-06,-0.000148371,7
-3.59269e-05,6.9413e-06,-9.39742e-06,-1.99744e-06,1.64159e-05,-1.09049e-05,5.27577e-06,-0.000186068,7
-3.43833e-05,7.31136e-06,-1.40205e-05,-9.4211e-06,1.55711e-05,-9.69679e-06,2.43006e-06,-0.000199321,7
-3.29995e-05,8.49769e-06,-1.86342e-05,-1.62904e-05,1.41212e-05,-8.17692e-06,-9.31929e-07,-0.000173865,7
-3.16146e-05,1.07573e-05,-1.67359e-05,-1.90895e-05,1.47673e-05,-6.85648e-06,-8.18479e-07,-0.000121212,7
-2.98674e-05,1.28201e-05,-7.28864e-06,-1.56069e-05,1.59709e-05,-6.45022e-06,2.71737e-06,-7.29649e-05,7
-2.86263e-05,1.26015e-05,-6.07427e-09,-7.1316e-06,1.55175e-05,-6.34798e-06,9.99429e-06,-4.21518e-05,7
-2.8327e-05,1.21428e-05,-1.3621e-06,-2.56771e-06,1.51162e-05,-4.1293e-06,1.72105e-05,-2.58917e-05,7
-2.89113e-05,1.24729e-05,-7.04536e-06,-4.88735e-06,1.42265e-05,-2.79812e-06,1.84055e-05,-1.64711e-05,7
-2.87256e-05,1.20053e-05,-1.059e-05,-8.75925e-06,1.19577e-05,-3.20127e-06,1.40318e-05,-8.73658e-06,7
-2.75064e-05,1.23642e-05,-1.20937e-05,-9.77433e-06,9.50669e-06,-2.44656e-06,9.62165e-06,-2.69877e-06,7
-2.70215e-05,1.31187e-05,-1.26905e-05,-9.29444e-06,7.88204e-06,-2.00314e-06,1.1564e-05,4.66106e-06,7
-2.68447e-05,1.36747e-05,-1.14891e-05,-9.71979e-06,8.27837e-06,-3.22425e-06,1.58169e-05,1.07269e-05,7
-2.5421e-05,1.35862e-05,-7.4352e-06,-9.58193e-06,1.07537e-05,-4.77402e-06,1.81094e-05,1.88459e-05,7
-2.41095e-05,1.28829e-05,-4.49223e-06,-9.58886e-06,1.33823e-05,-5.40001e-06,1.82912e-05,3.35488e-05,7
-2.46774e-05,1.30731e-05,-4.36105e-06,-1.0107e-05,1.41084e-05,-6.64268e-06,1.82449e-05,5.03854e-05,7
-2.62454e-05,1.32473e-05,-3.73665e-06,-1.20702e-05,1.3557e-05,-9.08571e-06,1.96739e-05,6.19698e-05,7
-2.78439e-05,1.27816e-05,-6.46471e-07,-1.58324e-05,1.278e-05,-1.13936e-05,2.11706e-05,6.50382e-05,7
-2.92476e-05,1.19339e-05,2.26362e-06,-2.02022e-05,1.14778e-05,-1.2361e-05,2.31801e-05,6.25789e-05,7
-3.02214e-05,1.20145e-05,2.30826e-06,-2.24981e-05,1.04429e-05,-1.17439e-05,2.48866e-05,5.85208e-05,7
-3.07143e-05,1.29685e-05,3.64718e-06,-2.16249e-05,1.08932e-05,-1.13001e-05,2.52115e-05,5.46738e-05,7
-3.09622e-05,1.38842e-05,8.98203e-06,-1.92249e-05,1.26064e-05,-1.21558e-05,2.50356e-05,4.95009e-05,7
-3.19161e-05,1.4364e-05,1.42037e-05,-1.63409e-05,1.40584e-05,-1.35037e-05,2.5979e-05,4.27313e-05,7
-3.3109e-05,1.39818e-05,1.35803e-05,-1.49895e-05,1.48471e-05,-1.44919e-05,2.49481e-05,3.64251e-05,7
-3.31549e-05,1.31278e-05,7.24098e-06,-1.62502e-05,1.66466e-05,-1.53231e-05,1.82511e-05,3.31807e-05,7
-3.21258e-05,1.25954e-05,-4.93607e-07,-1.79986e-05,1.92731e-05,-1.49423e-05,8.45817e-06,3.10376e-05,7
-3.11933e-05,1.21244e-05,-5.00994e-06,-1.61017e-05,1.96124e-05,-1.28319e-05,3.68011e-06,2.85051e-05,7
-3.15417e-05,1.05332e-05,-5.89514e-06,-1.21856e-05,1.75946e-05,-9.07598e-06,7.56482e-06,3.01046e-05,7
-3.26509e-05,1.03674e-05,-5.61476e-06,-1.16543e-05,1.59132e-05,-4.69356e-06,1.40919e-05,5.10696e-05,7
-3.27167e-05,1.36393e-05,-6.30576e-06,-1.32066e-05,1.51348e-05,-1.17263e-06,1.56861e-05,9.81307e-05,7
-3.2095e-05,1.5965e-05,-7.30697e-06,-1.09083e-05,1.50823e-05,9.28041e-07,1.25012e-05,0.000146372,7
-3.2092e-05,1.59507e-05,-6.3136e-06,-6.46394e-06,1.50458e-05,-3.55683e-07,8.27729e-06,0.00016407,7
-3.29253e-05,1.62389e-05,-3.30418e-06,-4.51673e-06,1.39629e-05,-3.30565e-06,6.97634e-06,0.00015456,7
-3.37273e-05,1.57698e-05,-5.97764e-07,-4.40338e-06,1.29214e-05,-5.47886e-06,9.59673e-06,0.000139555,7
-3.40098e-05,1.41657e-05,3.9354e-07,-3.54746e-06,1.18706e-05,-6.81131e-06,1.27839e-05,0.000123834,7
-3.4238e-05,1.30447e-05,1.4901e-07,-2.47717e-06,1.10235e-05,-8.79607e-06,1.73153e-05,0.000103276,7
-3.48404e-05,1.22933e-05,-2.00327e-06,-2.9319e-06,1.22447e-05,-1.01816e-05,2.04167e-05,7.34825e-05,7
-3.66924e-05,1.14291e-05,-7.03202e-06,-4.69622e-06,1.36379e-05,-9.68502e-06,1.96446e-05,1.65448e-05,7
-3.9408e-05,1.044e-05,-1.15861e-05,-4.42981e-06,1.44101e-05,-1.10378e-05,1.89975e-05,-6.87166e-05,7
-3.92632e-05,9.24783e-06,-1.26726e-05,-3.37252e-08,1.40033e-05,-1.36056e-05,2.25145e-05,-0.000138974,7
-3.59597e-05,8.05821e-06,-1.09927e-05,4.53144e-06,1.06507e-05,-1.45265e-05,2.96406e-05,-0.000155528,7
-3.39362e-05,7.68749e-06,-8.82945e-06,7.08066e-06,5.42637e-06,-1.35829e-05,3.38454e-05,-0.00011989,7
-3.33742e-05,7.94691e-06,-7.83708e-06,9.03801e-06,1.78109e-06,-1.23684e-05,3.29732e-05,-7.4736e-05,7
-3.34151e-05,7.50484e-06,-8.25768e-06,1.14014e-05,1.37582e-06,-1.0831e-05,2.96862e-05,-6.42744e-05,7
-3.32387e-05,6.82067e-06,-8.57386e-06,1.24724e-05,3.30924e-06,-1.02371e-05,2.2704e-05,-9.37554e-05,7
-3.23708e-05,6.74759e-06,-8.38289e-06,1.04573e-05,6.65157e-06,-1.01043e-05,1.00686e-05,-0.000134594,7
-3.05107e-05,8.63524e-06,-6.84116e-06,9.07552e-06,9.61961e-06,-1.00159e-05,-2.54977e-06,-0.000152564,7
-2.82555e-05,1.2252e-05,-2.89606e-06,1.15503e-05,1.07796e-05,-1.06001e-05,-8.93837e-06,-0.000139239,7
-2.6466e-05,1.53998e-05,9.96013e-08,1.50074e-05,1.02171e-05,-1.15059e-05,-1.05011e-05,-0.000107732,7
-2.50819e-05,1.56358e-05,-1.56042e-06,1.44034e-05,9.7103e-06,-1.2484e-05,-1.06425e-05,-7.17774e-05,7
-2.50967e-05,1.32231e-05,-7.02031e-06,8.31157e-06,1.03667e-05,-1.1757e-05,-8.33843e-06,-3.79492e-05,7
-2.67524e-05,1.16981e-05,-1.03677e-05,1.20874e-06,1.18764e-05,-9.72911e-06,-9.37646e-07,-1.05503e-05,7
-2.86636e-05,1.29793e-05,-9.76482e-06,-2.90426e-06,1.30039e-05,-8.94545e-06,9.05347e-06,8.99558e-06,7
-2.97903e-05,1.46687e-05,-8.45413e-06,-5.53587e-06,1.35595e-05,-1.01912e-05,1.56056e-05,2.04698e-05,7
-3.0514e-05,1.38639e-05,-8.22393e-06,-9.9348e-06,1.41941e-05,-9.85854e-06,1.61787e-05,2.20819e-05,7
-3.02007e-05,1.28227e-05,-7.77964e-06,-1.23094e-05,1.48644e-05,-9.05021e-06,1.3133e-05,1.52611e-05,7
-2.91855e-05,1.30556e-05,-7.50526e-06,-6.86911e-06,1.44482e-05,-9.93642e-06,7.68194e-06,6.44205e-06,7
-2.89962e-05,1.32547e-05,-8.75574e-06,2.20434e-06,1.17217e-05,-1.11372e-05,2.15636e-06,2.65554e-06,7
-2.98739e-05,1.28722e-05,-1.05323e-05,9.19695e-06,8.96851e-06,-1.10241e-05,9.77319e-07,5.947e-06,7
-3.03317e-05,1.1775e-05,-1.03216e-05,1.28447e-05,8.53388e-06,-1.08185e-05,5.34345e-06,1.2677e-05,7
-3.04151e-05,1.14265e-05,-8.24817e-06,1.09445e-05,9.54297e-06,-1.0983e-05,1.13901e-05,1.78364e-05,7
-3.03589e-05,1.14396e-05,-6.55905e-06,1.81193e-06,1.01477e-05,-1.16432e-05,1.36594e-05,2.31353e-05,7
-3.0898e-05,1.06026e-05,-7.32858e-06,-1.56234e-05,1.06375e-05,-1.273e-05,1.43731e-05,2.70268e-05,7
-3.23476e-05,9.8638e-06,-9.25428e-06,-4.0412e-05,1.15443e-05,-1.2965e-05,1.58475e-05,2.48303e-05,7
-3.33137e-05,9.91525e-06,-1.1614e-05,-6.31283e-05,1.28301e-05,-1.35007e-05,1.33446e-05,1.81861e-05,7
-3.31597e-05,1.08332e-05,-1.26352e-05,-6.78338e-05,1.57402e-05,-1.29368e-05,5.6728e-06,1.13976e-05,7
-3.24073e-05,1.1502e-05,-1.19473e-05,-5.48656e-05,1.79216e-05,-1.01498e-05,-1.19048e-06,1.27287e-05,7
-3.08949e-05,1.28232e-05,-1.20879e-05,-3.71077e-05,1.69623e-05,-7.49069e-06,-1.87676e-06,2.44308e-05,7
-2.93613e-05,1.39574e-05,-1.3017e-05,-2.1903e-05,1.38655e-05,-7.18874e-06,3.56396e-06,3.5371e-05,7
-2.86923e-05,1.47312e-05,-1.32193e-05,-9.6551e-06,1.09814e-05,-8.67871e-06,1.44817e-05,3.80272e-05,7
-2.91146e-05,1.53005e-05,-1.03341e-05,1.42917e-06,1.01191e-05,-1.02318e-05,2.8223e-05,3.34576e-05,7
-3.07328e-05,1.51915e-05,-5.84479e-06,7.30213e-06,1.25597e-05,-1.10383e-05,3.85028e-05,2.49967e-05,7
-3.17048e-05,1.42557e-05,-3.69466e-06,7.78062e-06,1.56997e-05,-1.25135e-05,3.79316e-05,1.49857e-05,7
-3.1601e-05,1.36374e-05,-5.64563e-06,8.54489e-06,1.64899e-05,-1.40148e-05,2.96367e-05,6.41067e-06,7
-3.20311e-05,1.38638e-05,-8.14758e-06,1.25593e-05,1.56061e-05,-1.43906e-05,2.22151e-05,1.73589e-06,7
-3.36461e-05,1.36456e-05,-7.78297e-06,1.53992e-05,1.53931e-05,-1.44357e-05,1.81064e-05,1.53588e-06,7
-3.43152e-05,1.36077e-05,-2.67736e-06,1.12411e-05,1.69893e-05,-1.53743e-05,1.37221e-05,5.53355e-06,7
-3.3206e-05,1.45501e-05,3.44075e-06,-9.37892e-07,1.84126e-05,-1.56246e-05,3.8133e-06,1.12852e-05,7
-3.15765e-05,1.60604e-05,4.29218e-06,-1.19089e-05,1.81627e-05,-1.27985e-05,-9.56886e-06,1.60872e-05,7
-2.99291e-05,1.61831e-05,-3.05825e-07,-5.17475e-06,1.60113e-05,-9.33717e-06,-1.74888e-05,1.65589e-05,7
-2.82994e-05,1.55511e-05,-3.09573e-06,2.1566e-05,1.3379e-05,-7.99379e-06,-1.41886e-05,1.2885e-05,7
-2.72523e-05,1.55044e-05,-1.1945e-07,4.80258e-05,1.12559e-05,-8.43755e-06,-3.5276e-06,7.38813e-06,7
-2.69967e-05,1.60569e-05,3.4982e-06,5.18917e-05,1.15085e-05,-8.82417e-06,7.86942e-06,2.70469e-06,7
-2.73306e-05,1.47202e-05,3.38647e-06,2.57559e-05,1.31686e-05,-8.5402e-06,1.49423e-05,3.16921e-08,7
-2.82189e-05,1.17952e-05,8.6205e-07,-2.1809e-05,1.54455e-05,-7.89969e-06,1.84796e-05,-3.29068e-06,7
-2.98632e-05,1.05213e-05,-2.69286e-06,-7.69808e-05,1.71689e-05,-7.39818e-06,2.14005e-05,-8.47782e-06,7
-2.98996e-05,1.12071e-05,-6.71164e-06,-0.000122758,1.75316e-05,-5.14516e-06,2.20032e-05,-1.45868e-05,7
-2.70925e-05,1.25145e-05,-9.91672e-06,-0.000133383,1.74223e-05,-1.60986e-06,1.63262e-05,-1.77412e-05,7
-2.61035e-05,1.41271e-05,-1.26065e-05,-0.000100594,1.61322e-05,6.07586e-08,1.07716e-05,-1.27994e-05,7
-2.87067e-05,1.40821e-05,-1.35871e-05,-5.18994e-05,1.55875e-05,-1.82775e-06,1.04278e-05,-2.97491e-06,7
-3.14732e-05,1.2125e-05,-1.16126e-05,-1.56546e-05,1.5655e-05,-5.30084e-06,1.0674e-05,6.79963e-06,7
-3.1626e-05,1.18782e-05,-7.61303e-06,2.60724e-07,1.48741e-05,-6.20786e-06,9.80402e-06,1.39022e-05,7
-3.1363e-05,1.46695e-05,-6.54967e-06,1.6352e-06,1.30859e-05,-4.82152e-06,9.73908e-06,1.6782e-05,7
-3.31804e-05,1.59778e-05,-9.10276e-06,4.40013e-06,9.94693e-06,-4.17492e-06,1.04055e-05,1.6689e-05,7
-3.51779e-05,1.39123e-05,-1.06595e-05,1.3051e-05,7.54789e-06,-5.28018e-06,1.12657e-05,1.51648e-05,7
-3.6583e-05,1.23675e-05,-8.20087e-06,2.3892e-05,7.46121e-06,-6.3883e-06,1.25147e-05,1.28475e-05,7
-3.58125e-05,1.33887e-05,-3.80756e-06,2.84268e-05,8.00853e-06,-7.65375e-06,1.24509e-05,1.09069e-05,7
-3.279e-05,1.51815e-05,-3.05449e-06,2.35362e-05,8.57492e-06,-8.25011e-06,1.11249e-05,1.59673e-05,7
-2.92094e-05,1.62589e-05,-6.81486e-06,1.37399e-05,9.55739e-06,-7.87255e-06,9.39034e-06,3.01074e-05,7
-2.70683e-05,1.6037e-05,-1.17647e-05,4.72354e-06,1.06996e-05,-7.49832e-06,8.57109e-06,4.64932e-05,7
-2.5959e-05,1.43938e-05,-1.31329e-05,6.52952e-07,1.13149e-05,-7.07816e-06,1.05335e-05,5.91032e-05,7
-2.53157e-05,1.30511e-05,-1.07349e-05,2.95108e-07,1.10176e-05,-6.94455e-06,1.55809e-05,6.89466e-05,7
-2.51393e-05,1.25553e-05,-8.20121e-06,1.12736e-06,9.88696e-06,-7.41559e-06,2.06542e-05,7.67659e-05,7
-2.43234e-05,1.26196e-05,-8.64846e-06,-1.38788e-06,8.37184e-06,-7.79388e-06,2.41599e-05,7.44811e-05,7
-2.36375e-05,1.26623e-05,-1.33516e-05,-7.23958e-06,7.12253e-06,-7.19914e-06,2.67973e-05,5.40141e-05,7
-2.32857e-05,1.32007e-05,-1.96981e-05,-1.48654e-05,7.01669e-06,-5.86087e-06,2.87569e-05,1.607e-05,7
-2.34542e-05,1.3935e-05,-2.29448e-05,-1.81655e-05,8.21983e-06,-4.13386e-06,2.77501e-05,-3.20817e-05,7
-2.37416e-05,1.43714e-05,-2.12329e-05,-1.31923e-05,9.80083e-06,-3.78621e-06,2.26337e-05,-7.47556e-05,7
-2.44491e-05,1.46964e-05,-1.7347e-05,-4.22514e-06,1.10892e-05,-4.99421e-06,1.53436e-05,-9.36262e-05,7
-2.53985e-05,1.52663e-05,-1.41411e-05,1.05816e-06,1.15904e-05,-6.30736e-06,7.94947e-06,-8.81826e-05,7
-2.80132e-05,1.47706e-05,-1.15257e-05,2.26672e-06,1.16155e-05,-7.21879e-06,4.5265e-06,-7.25481e-05,7
-3.04051e-05,1.48233e-05,-7.82614e-06,9.00978e-07,1.20585e-05,-8.01286e-06,5.88412e-06,-5.91053e-05,7
-2.99131e-05,1.67868e-05,-3.73115e-06,-1.30689e-06,1.38276e-05,-9.44338e-06,6.50104e-06,-4.94465e-05,7
-2.79127e-05,1.76814e-05,-8.27318e-07,-4.79205e-07,1.63976e-05,-1.11544e-05,4.49227e-06,-4.00284e-05,7
-2.84744e-05,1.71715e-05,5.2817e-09,2.53597e-06,1.65231e-05,-1.14609e-05,3.27944e-06,-3.18026e-05,7
-3.01081e-05,1.79972e-05,1.4403e-06,6.0124e-06,1.31923e-05,-1.03193e-05,6.96495e-06,-2.57122e-05,7
-2.89445e-05,1.86209e-05,4.63745e-06,8.60417e-06,9.20091e-06,-9.03894e-06,1.30256e-05,-2.06103e-05,7
-2.8236e-05,1.74756e-05,5.77687e-06,7.63282e-06,5.66574e-06,-9.46864e-06,1.64048e-05,-2.01056e-05,7
-2.88096e-05,1.56344e-05,3.15408e-06,3.1673e-06,3.93425e-06,-9.74533e-06,1.69468e-05,-2.90403e-05,7
-2.87608e-05,1.3837e-05,-9.80649e-07,2.66727e-06,5.2802e-06,-9.66997e-06,1.42305e-05,-4.01988e-05,7
-2.83432e-05,1.30024e-05,-5.74955e-06,7.93131e-06,9.1771e-06,-1.25793e-05,1.01962e-05,-4.68688e-05,7
-2.95296e-05,1.11702e-05,-1.086e-05,1.2026e-05,1.38228e-05,-1.65626e-05,7.45526e-06,-4.8755e-05,7
-3.15441e-05,8.99688e-06,-1.52864e-05,1.18689e-05,1.47543e-05,-1.79558e-05,7.73506e-06,-4.55857e-05,7
-3.25262e-05,7.54291e-06,-1.77203e-05,8.79034e-06,1.21611e-05,-1.61626e-05,1.22334e-05,-3.74732e-05,7
-3.18542e-05,7.48055e-06,-1.61613e-05,5.86434e-06,1.01781e-05,-1.3001e-05,1.84418e-05,-2.50578e-05,7
-3.06304e-05,8.30606e-06,-1.26313e-05,3.64658e-06,1.13777e-05,-9.89377e-06,2.18406e-05,-1.32897e-05,7
-2.97482e-05,9.26726e-06,-9.25875e-06,1.79343e-06,1.43223e-05,-7.95979e-06,2.0107e-05,-4.33315e-06,7
-2.93637e-05,1.01058e-05,-6.24474e-06,5.53783e-07,1.63431e-05,-7.21369e-06,1.30737e-05,8.68395e-06,7
-2.95819e-05,1.15963e-05,-3.24793e-06,-2.04047e-06,1.69688e-05,-7.34839e-06,3.21662e-06,3.01155e-05,7
-2.96713e-05,1.35907e-05,-2.00452e-06,-6.11645e-06,1.63285e-05,-7.67077e-06,-4.51221e-06,5.14818e-05,7
-2.90242e-05,1.38636e-05,-3.53159e-06,-6.98889e-06,1.5131e-05,-7.76488e-06,-6.73034e-06,6.43371e-05,7
-2.77666e-05,1.29132e-05,-6.74399e-06,-1.15746e-06,1.53777e-05,-7.28002e-06,-3.83766e-06,7.17847e-05,7
-2.63077e-05,1.24228e-05,-9.80214e-06,5.65086e-06,1.81547e-05,-6.35259e-06,5.11201e-07,7.90871e-05,7
-2.49913e-05,1.34541e-05,-1.02643e-05,7.62942e-06,2.13024e-05,-5.90608e-06,3.13976e-06,8.06725e-05,7
-2.45101e-05,1.5453e-05,-7.78751e-06,5.85062e-06,2.25664e-05,-6.39323e-06,4.35256e-06,6.3544e-05,7
-2.39347e-05,1.68694e-05,-5.30822e-06,4.82086e-06,2.09387e-05,-6.66506e-06,7.01375e-06,2.43229e-05,7
-2.3164e-05,1.62685e-05,-6.29227e-06,6.39696e-06,1.89132e-05,-5.48944e-06,1.225e-05,-2.41063e-05,7
-2.30546e-05,1.36511e-05,-1.00606e-05,1.09506e-05,1.89938e-05,-4.46829e-06,1.70048e-05,-6.55133e-05,7
-2.35537e-05,9.49062e-06,-1.40854e-05,1.71366e-05,1.99441e-05,-4.88353e-06,1.85821e-05,-8.41819e-05,7
-2.47254e-05,7.4788e-06,-1.68924e-05,2.13958e-05,2.03291e-05,-6.17778e-06,1.91752e-05,-6.97478e-05,7
-2.53829e-05,7.76079e-06,-1.71576e-05,1.91893e-05,2.05922e-05,-7.42838e-06,1.98497e-05,-3.35258e-05,7
-2.51793e-05,8.51126e-06,-1.41925e-05,1.06347e-05,2.17816e-05,-8.06422e-06,1.52653e-05,2.95416e-06,7
-2.58324e-05,9.03069e-06,-9.73256e-06,3.70832e-06,2.18905e-05,-8.97287e-06,6.35859e-06,2.95008e-05,7
-2.71471e-05,9.54709e-06,-5.78765e-06,9.70991e-07,1.99592e-05,-1.10397e-05,8.03745e-07,6.81121e-05,7
-2.69459e-05,1.11999e-05,-4.0413e-06,-1.85372e-06,1.80646e-05,-1.22868e-05,-3.39089e-07,0.00011247,7
-2.63237e-05,1.16636e-05,-3.97994e-06,-3.54365e-06,1.79624e-05,-1.33479e-05,2.1647e-06,0.000119766,7
-2.78679e-05,1.07563e-05,-3.37331e-06,-2.18681e-06,1.89019e-05,-1.44582e-05,7.95086e-06,9.0502e-05,7
-3.00558e-05,9.04843e-06,-2.28754e-06,-8.42231e-07,1.84822e-05,-1.40358e-05,1.68336e-05,4.50197e-05,7
-3.05632e-05,8.0177e-06,-2.31565e-06,-3.24018e-06,1.80794e-05,-1.26144e-05,2.46628e-05,9.41336e-07,7
-2.9651e-05,7.03653e-06,-3.13116e-06,-7.99092e-06,1.68066e-05,-1.07744e-05,2.62086e-05,-3.83681e-05,7
-2.89146e-05,6.02957e-06,-5.27431e-06,-1.14189e-05,1.48326e-05,-9.77048e-06,2.14267e-05,-7.02532e-05,7
-2.82709e-05,5.47553e-06,-9.14446e-06,-1.52299e-05,1.42118e-05,-9.57181e-06,1.10831e-05,-9.22536e-05,7
-2.80014e-05,5.80832e-06,-1.25699e-05,-1.96422e-05,1.48096e-05,-9.2381e-06,-4.2882e-07,-0.000102778,7
-2.85274e-05,7.05948e-06,-1.34907e-05,-2.02856e-05,1.59386e-05,-7.67888e-06,-6.93423e-06,-9.80206e-05,7
-2.8849e-05,7.9287e-06,-1.06449e-05,-1.55102e-05,1.56328e-05,-5.07612e-06,-3.3825e-06,-8.21077e-05,7
-2.86909e-05,8.9199e-06,-5.19327e-06,-9.43068e-06,1.38703e-05,-3.95189e-06,6.99787e-06,-5.64552e-05,7
-2.81813e-05,9.7789e-06,8.6919e-08,-6.71989e-06,1.30123e-05,-6.11896e-06,1.54129e-05,-2.09622e-05,7
-2.77169e-05,1.11805e-05,2.60494e-06,-9.49476e-06,1.44469e-05,-1.0221e-05,1.8214e-05,1.62296e-05,7
-2.7165e-05,1.22352e-05,1.98711e-06,-1.50806e-05,1.63761e-05,-1.26833e-05,1.95767e-05,3.61249e-05,7
-2.68134e-05,1.19453e-05,4.92424e-07,-1.6521e-05,1.76288e-05,-1.22071e-05,2.23884e-05,3.91732e-05,7
-2.7417e-05,1.09967e-05,-1.22889e-06,-1.13543e-05,1.76916e-05,-1.12476e-05,2.33188e-05,4.23417e-05,7
-2.89636e-05,1.00435e-05,-4.62917e-06,-5.64665e-06,1.7563e-05,-1.14206e-05,1.97069e-05,5.30454e-05,7
-2.99058e-05,8.96238e-06,-8.91472e-06,-2.14196e-06,1.85688e-05,-1.22785e-05,1.0955e-05,5.49181e-05,7
-3.00779e-05,8.98862e-06,-1.25794e-05,4.96797e-06,1.92603e-05,-1.36932e-05,1.8507e-07,3.75108e-05,7
-3.03944e-05,1.01347e-05,-1.63065e-05,1.41669e-05,1.61913e-05,-1.46363e-05,-7.05388e-06,9.90187e-06,7
-3.06614e-05,1.23896e-05,-1.83858e-05,1.3313e-05,1.0813e-05,-1.31184e-05,-5.32752e-06,-1.55476e-05,7
-3.03701e-05,1.52291e-05,-1.57393e-05,1.28124e-07,8.49549e-06,-1.01672e-05,3.18201e-06,-3.5684e-05,7
-2.91973e-05,1.73945e-05,-1.10317e-05,-1.7095e-05,1.02431e-05,-1.0281e-05,9.47451e-06,-4.68764e-05,7
-2.59031e-05,1.97249e-05,-4.19551e-06,-3.23436e-05,1.39866e-05,-1.1769e-05,8.98906e-06,-4.26146e-05,7
-2.17394e-05,2.25417e-05,6.70231e-06,-4.01223e-05,1.59788e-05,-1.08139e-05,7.1664e-06,-3.03669e-05,7
-2.036e-05,2.40108e-05,1.23661e-05,-3.9599e-05,1.51109e-05,-8.65287e-06,8.31209e-06,-2.32512e-05,7
-2.1925e-05,2.10081e-05,7.80795e-06,-3.67834e-05,1.38952e-05,-8.1741e-06,9.88413e-06,-2.19052e-05,7
-2.49156e-05,1.64426e-05,-5.20069e-07,-3.33288e-05,1.42079e-05,-9.36075e-06,9.5177e-06,-1.44505e-05,7
-2.68364e-05,1.45184e-05,-5.81843e-06,-2.70507e-05,1.6768e-05,-1.04578e-05,8.32388e-06,3.13993e-07,7
-2.76226e-05,1.52383e-05,-5.19544e-06,-1.71752e-05,1.86191e-05,-1.1234e-05,8.8181e-06,1.15189e-05,7
-2.90251e-05,1.71931e-05,-4.83185e-06,-6.35557e-06,1.86407e-05,-1.13929e-05,1.08096e-05,1.5413e-05,7
-3.00712e-05,1.8212e-05,-7.264e-06,3.7457e-06,1.89383e-05,-1.04833e-05,1.45639e-05,1.75928e-05,7
-2.96373e-05,1.76257e-05,-9.15494e-06,1.48123e-05,2.02526e-05,-8.88735e-06,2.05868e-05,2.37464e-05,7
-2.91008e-05,1.69311e-05,-8.89022e-06,2.74496e-05,2.16234e-05,-9.30275e-06,2.81471e-05,3.03567e-05,7
-2.96999e-05,1.63836e-05,-6.71439e-06,3.6398e-05,2.23095e-05,-1.03939e-05,3.42149e-05,3.0283e-05,7
-3.12942e-05,1.54785e-05,-4.53193e-06,3.45552e-05,2.09909e-05,-9.9947e-06,3.74463e-05,2.73111e-05,7
-3.35313e-05,1.46617e-05,-4.52305e-06,2.20589e-05,1.69189e-05,-8.27585e-06,3.65097e-05,2.87778e-05,7
-3.64914e-05,1.38767e-05,-7.35009e-06,6.21365e-06,1.33531e-05,-7.04482e-06,2.92352e-05,3.67547e-05,7
-3.9323e-05,1.26722e-05,-1.05258e-05,-5.63322e-06,1.27715e-05,-7.07517e-06,1.53202e-05,5.25164e-05,7
-4.03248e-05,1.17404e-05,-1.09888e-05,-1.09373e-05,1.49014e-05,-8.84921e-06,-2.77656e-07,8.09969e-05,7
-3.96912e-05,1.21638e-05,-7.61848e-06,-1.05365e-05,1.78986e-05,-1.13148e-05,-8.53773e-06,0.000117123,7
-3.82627e-05,1.27731e-05,-2.99002e-06,-8.61834e-06,1.92717e-05,-1.17502e-05,-6.74893e-06,0.000147984,7
-3.70311e-05,1.23485e-05,3.76054e-07,-7.6503e-06,1.79638e-05,-1.06948e-05,6.94916e-07,0.000164615,7
-3.64806e-05,1.17442e-05,1.34691e-06,-6.54992e-06,1.77423e-05,-9.44717e-06,8.59264e-06,0.000160629,7
-3.60803e-05,1.11574e-05,-1.77848e-08,-4.15377e-06,2.00748e-05,-9.19292e-06,1.4939e-05,0.00012685,7
-3.59236e-05,1.1141e-05,-4.73719e-06,-3.26938e-06,2.22707e-05,-1.01427e-05,1.79511e-05,5.85513e-05,7
-3.69669e-05,1.19037e-05,-1.0128e-05,-5.62849e-06,2.26481e-05,-1.07858e-05,1.70121e-05,-2.73682e-05,7
-3.84077e-05,1.21008e-05,-1.18989e-05,-7.6678e-06,2.08028e-05,-9.39858e-06,1.50718e-05,-0.000107107,7
-3.91229e-05,1.07219e-05,-1.14267e-05,-5.67128e-06,1.68895e-05,-9.11553e-06,1.45793e-05,-0.000176003,7
-3.96941e-05,8.96815e-06,-1.08066e-05,-7.02474e-08,1.34172e-05,-9.62345e-06,1.53675e-05,-0.00022303,7
-3.94388e-05,9.79054e-06,-9.46146e-06,4.13384e-06,1.31307e-05,-9.52315e-06,1.85306e-05,-0.000223869,7
-3.83594e-05,1.20091e-05,-8.52011e-06,3.73128e-06,1.57337e-05,-1.01283e-05,1.8931e-05,-0.000183209,7
-3.69649e-05,1.28757e-05,-7.8559e-06,1.349e-06,1.78749e-05,-9.03819e-06,1.02587e-05,-0.000131704,7
-3.654e-05,1.20651e-05,-6.90154e-06,-3.73773e-06,1.59674e-05,-7.32987e-06,-5.9968e-07,-8.80248e-05,7
-3.80724e-05,1.05771e-05,-7.39927e-06,-9.45082e-06,1.2214e-05,-8.19951e-06,-4.89127e-06,-5.36687e-05,7
-4.02763e-05,9.51883e-06,-9.81204e-06,-1.30274e-05,9.05575e-06,-1.06645e-05,-2.10149e-06,-2.59574e-05,7
-4.11952e-05,8.22957e-06,-1.39336e-05,-1.61245e-05,8.10599e-06,-1.34591e-05,3.06621e-06,-5.56818e-06,7
-4.03076e-05,7.13732e-06,-1.64153e-05,-1.77009e-05,8.523e-06,-1.47406e-05,5.42943e-06,5.23136e-06,7
-4.03533e-05,7.85298e-06,-1.38695e-05,-1.52841e-05,9.17851e-06,-1.3187e-05,6.2597e-06,4.82176e-06,7
-3.99017e-05,9.54685e-06,-7.31973e-06,-6.79854e-06,1.12021e-05,-9.60525e-06,9.5083e-06,-5.56144e-06,7
-3.79316e-05,1.14486e-05,-2.04168e-06,2.91721e-06,1.30457e-05,-7.05247e-06,1.92095e-05,-1.95833e-05,7
-3.58449e-05,1.39371e-05,-1.68615e-06,7.45234e-06,1.25696e-05,-6.80249e-06,3.33005e-05,-3.0502e-05,7
-3.56668e-05,1.37519e-05,-7.04423e-06,4.62349e-06,9.53243e-06,-7.96332e-06,4.23735e-05,-3.51283e-05,7
-3.73037e-05,9.50985e-06,-1.41601e-05,-1.63347e-06,7.08312e-06,-9.48253e-06,4.00132e-05,-3.39998e-05,7
-3.7852e-05,6.01315e-06,-1.84135e-05,-7.18629e-06,7.16545e-06,-1.02007e-05,2.78543e-05,-2.51601e-05,7
-3.60935e-05,6.77398e-06,-1.86127e-05,-1.07674e-05,8.94613e-06,-1.05191e-05,1.2142e-05,-8.57633e-06,7
-3.34327e-05,9.35734e-06,-1.64311e-05,-1.33629e-05,1.00596e-05,-1.14064e-05,-3.03076e-06,1.01559e-05,7
-3.1535e-05,1.026e-05,-1.44628e-05,-1.56009e-05,1.00244e-05,-1.23061e-05,-1.31585e-05,2.32261e-05,7
-2.92763e-05,1.04954e-05,-1.33972e-05,-1.43884e-05,9.86959e-06,-1.09119e-05,-1.4847e-05,2.91582e-05,7
-2.69672e-05,1.14268e-05,-1.17076e-05,-6.30268e-06,9.85476e-06,-9.11088e-06,-8.84205e-06,3.05248e-05,7
-2.64457e-05,1.20751e-05,-7.47694e-06,6.8058e-06,1.04135e-05,-1.15734e-05,-1.45467e-06,3.01653e-05,7
-2.8674e-05,1.13736e-05,-2.47008e-06,1.74026e-05,1.15374e-05,-1.70872e-05,3.74897e-06,2.89936e-05,7
-3.11509e-05,9.91231e-06,9.07005e-07,2.01137e-05,1.30728e-05,-1.94246e-05,8.47779e-06,2.69486e-05,7
-3.26066e-05,9.26494e-06,5.19485e-07,1.46789e-05,1.30788e-05,-1.80654e-05,1.2697e-05,2.73426e-05,7
-3.23582e-05,9.55791e-06,-1.28813e-06,7.25637e-06,1.16201e-05,-1.50746e-05,1.54221e-05,3.12578e-05,7
-3.07402e-05,9.86505e-06,-2.92466e-06,5.33464e-06,9.79064e-06,-1.29445e-05,1.87459e-05,3.4582e-05,7
-2.87618e-05,9.63609e-06,-5.03305e-06,9.71712e-06,8.79761e-06,-1.261e-05,2.18313e-05,3.45749e-05,7
-2.57525e-05,1.03324e-05,-5.20741e-06,1.31459e-05,1.11534e-05,-1.12046e-05,2.70331e-05,3.27775e-05,7
-2.29146e-05,1.23461e-05,-2.13273e-06,8.45172e-06,1.4828e-05,-9.09606e-06,3.67274e-05,3.19899e-05,7
-2.20409e-05,1.34731e-05,6.30727e-07,-4.19296e-06,1.7772e-05,-8.29847e-06,4.23878e-05,3.23891e-05,7
-2.24858e-05,1.27678e-05,4.75853e-07,-2.30725e-05,1.92286e-05,-8.33922e-06,3.72045e-05,3.23737e-05,7
-2.30695e-05,1.09945e-05,-1.12319e-06,-4.3565e-05,1.64564e-05,-8.99518e-06,2.16524e-05,3.27621e-05,7
-2.36164e-05,1.1059e-05,-4.05221e-06,-5.99074e-05,1.17997e-05,-9.3023e-06,7.14002e-06,3.38245e-05,7
-2.43056e-05,1.2292e-05,-7.02275e-06,-6.87443e-05,7.89268e-06,-8.53524e-06,4.25132e-06,3.40115e-05,7
-2.44253e-05,1.25681e-05,-8.36056e-06,-6.56281e-05,5.74743e-06,-7.59055e-06,9.08897e-06,3.18087e-05,7
-2.39203e-05,1.24137e-05,-7.97557e-06,-5.4367e-05,7.35127e-06,-6.78952e-06,1.3432e-05,2.88795e-05,7
-2.29366e-05,1.25865e-05,-6.13956e-06,-4.24071e-05,8.8367e-06,-7.09481e-06,1.37016e-05,2.6628e-05,7
-2.21832e-05,1.43502e-05,-3.69021e-06,-3.28535e-05,7.45201e-06,-8.62032e-06,1.33694e-05,2.48813e-05,7
-2.29277e-05,1.64492e-05,-1.19852e-06,-2.41898e-05,5.06719e-06,-1.07262e-05,1.4659e-05,2.18699e-05,7
-2.37248e-05,1.69835e-05,1.77564e-06,-1.49755e-05,3.75692e-06,-1.14708e-05,1.41691e-05,1.73235e-05,7
-2.34983e-05,1.60521e-05,5.88325e-06,-7.69043e-06,4.92158e-06,-9.77241e-06,1.15372e-05,1.3143e-05,7
-2.28569e-05,1.49585e-05,1.01529e-05,-4.15279e-06,8.00319e-06,-8.25658e-06,8.79648e-06,1.24759e-05,7
-2.30997e-05,1.42632e-05,1.02189e-05,-4.26483e-06,1.07857e-05,-9.35382e-06,7.21775e-06,2.00298e-05,7
-2.46688e-05,1.37178e-05,3.65804e-06,-6.12316e-06,1.1131e-05,-1.25945e-05,7.06461e-06,3.5017e-05,7
-2.71934e-05,1.30843e-05,-4.30403e-06,-5.54863e-06,1.03096e-05,-1.51677e-05,9.0263e-06,4.83148e-05,7
-2.89073e-05,1.26985e-05,-6.93683e-06,3.70925e-06,1.03633e-05,-1.42671e-05,1.26281e-05,5.23543e-05,7
-2.84255e-05,1.34114e-05,-3.64102e-06,2.15585e-05,1.01368e-05,-9.97883e-06,1.62167e-05,4.81734e-05,7
-2.64577e-05,1.51962e-05,-1.7536e-07,3.76193e-05,6.90457e-06,-4.144e-06,1.79635e-05,3.84188e-05,7
-2.4952e-05,1.61119e-05,-1.99082e-06,4.14901e-05,2.68203e-06,9.03438e-07,1.83808e-05,2.4647e-05,7
-2.45395e-05,1.50479e-05,-7.54871e-06,3.42577e-05,2.0947e-06,2.46969e-06,2.08875e-05,8.67745e-06,7
-2.57309e-05,1.3097e-05,-1.14174e-05,2.54485e-05,4.48443e-06,1.81047e-08,2.58345e-05,-8.18827e-06,7
-2.85704e-05,1.15456e-05,-1.26326e-05,2.15405e-05,5.97117e-06,-3.70962e-06,2.95576e-05,-1.8932e-05,7
-3.04839e-05,1.06577e-05,-1.35953e-05,1.96822e-05,6.99227e-06,-6.71003e-06,2.94053e-05,-1.52081e-05,7
-3.01573e-05,1.02113e-05,-1.52351e-05,1.46921e-05,8.73607e-06,-8.2114e-06,2.56283e-05,-4.73457e-06,7
-2.84485e-05,1.13515e-05,-1.46521e-05,6.62362e-06,9.84425e-06,-8.37482e-06,2.09603e-05,3.81943e-06,7
-2.74745e-05,1.41374e-05,-1.02765e-05,7.54991e-07,9.16245e-06,-9.58844e-06,1.84118e-05,1.30381e-05,7
-2.78414e-05,1.73959e-05,-5.36828e-06,6.4039e-08,9.73132e-06,-9.59581e-06,1.5718e-05,2.6217e-05,7
-2.83484e-05,1.88993e-05,-1.07183e-06,5.61099e-06,1.20014e-05,-9.23442e-06,1.31313e-05,3.54544e-05,7
-2.86028e-05,1.84452e-05,7.81663e-07,1.4699e-05,1.24755e-05,-8.97504e-06,1.23651e-05,2.29723e-05,7
-2.80425e-05,1.70481e-05,-1.71126e-06,1.99068e-05,1.28444e-05,-7.33029e-06,1.02305e-05,-1.61334e-05,7
-2.7833e-05,1.56698e-05,-5.85809e-06,2.21304e-05,1.3149e-05,-8.17449e-06,8.45457e-06,-7.31673e-05,7
-2.81984e-05,1.57801e-05,-9.37849e-06,2.37387e-05,1.40764e-05,-9.30226e-06,9.63202e-06,-0.000128134,7
-2.84615e-05,1.70114e-05,-1.18281e-05,2.26489e-05,1.594e-05,-8.99466e-06,1.16085e-05,-0.000157967,7
-2.85507e-05,1.83289e-05,-1.31593e-05,1.26712e-05,1.73639e-05,-8.23068e-06,1.41364e-05,-0.000153585,7
-2.86871e-05,1.80881e-05,-1.4129e-05,-9.63686e-06,1.68657e-05,-9.20028e-06,1.66043e-05,-0.000123613,7
-2.93853e-05,1.61564e-05,-1.44549e-05,-3.74601e-05,1.53912e-05,-1.06812e-05,2.01638e-05,-8.58999e-05,7
-3.01656e-05,1.36678e-05,-1.40991e-05,-5.53014e-05,1.54394e-05,-1.15122e-05,2.54452e-05,-5.35695e-05,7
-3.00696e-05,1.28818e-05,-1.32359e-05,-5.22386e-05,1.64023e-05,-1.2815e-05,2.97201e-05,-2.97219e-05,7
-2.89109e-05,1.35797e-05,-1.18686e-05,-3.53623e-05,1.72068e-05,-1.38537e-05,2.99852e-05,-1.20252e-05,7
-2.81695e-05,1.41412e-05,-1.13815e-05,-2.06878e-05,1.69027e-05,-1.33414e-05,2.54191e-05,7.78371e-07,7
-2.81214e-05,1.41154e-05,-1.15589e-05,-1.52867e-05,1.5334e-05,-1.11315e-05,1.81445e-05,9.21439e-06,7
-2.85697e-05,1.37709e-05,-1.21049e-05,-1.36259e-05,1.23528e-05,-8.57783e-06,9.49842e-06,1.37224e-05,7
-2.90417e-05,1.33522e-05,-1.43737e-05,-1.09146e-05,9.70474e-06,-6.48617e-06,2.51733e-07,1.56519e-05,7
-2.90241e-05,1.21195e-05,-1.77504e-05,-7.14109e-06,8.92051e-06,-6.74121e-06,-6.55172e-06,1.55969e-05,7
-2.81404e-05,1.15315e-05,-1.72712e-05,-2.71876e-06,9.71328e-06,-8.5146e-06,-7.79738e-06,1.42694e-05,7
-2.71086e-05,1.30265e-05,-1.00507e-05,2.66531e-06,1.11081e-05,-9.64184e-06,-4.03349e-06,1.32219e-05,7
-2.68049e-05,1.58167e-05,4.52332e-07,6.78378e-06,1.36438e-05,-8.27338e-06,3.08256e-06,1.38605e-05,7
-2.6233e-05,1.74446e-05,7.02796e-06,7.77837e-06,1.5303e-05,-6.80704e-06,9.75915e-06,1.61338e-05,7
-2.6245e-05,1.64619e-05,5.38854e-06,7.1366e-06,1.57567e-05,-8.02166e-06,1.25544e-05,1.91245e-05,7
-2.73492e-05,1.45847e-05,1.67193e-06,3.71298e-06,1.60334e-05,-1.18526e-05,1.21866e-05,2.0586e-05,7
-2.91592e-05,1.44645e-05,1.82253e-06,-1.24265e-06,1.49875e-05,-1.31761e-05,1.24451e-05,2.1135e-05,7
-3.25716e-05,1.47115e-05,4.49468e-06,-5.56578e-06,1.44817e-05,-1.23123e-05,1.46216e-05,3.07556e-05,7
-3.44898e-05,1.35986e-05,4.63808e-06,-1.30324e-05,1.53258e-05,-1.32949e-05,1.70315e-05,4.82611e-05,7
-3.39437e-05,1.37091e-05,-9.34287e-07,-2.28254e-05,1.65461e-05,-1.23622e-05,1.58971e-05,6.25911e-05,7
-3.37648e-05,1.32247e-05,-5.39903e-06,-3.00026e-05,1.62466e-05,-9.72668e-06,9.08758e-06,7.92771e-05,7
-3.38724e-05,1.16968e-05,-4.68594e-06,-3.02827e-05,1.6634e-05,-7.72925e-06,1.24726e-06,9.3749e-05,7
-3.23305e-05,1.24344e-05,-3.27176e-06,-2.40863e-05,1.76506e-05,-6.88087e-06,-3.01559e-06,9.07258e-05,7
-3.07422e-05,1.29132e-05,-2.49904e-06,-1.64033e-05,1.70025e-05,-6.19511e-06,-3.81418e-06,7.62263e-05,7
-3.03948e-05,1.2891e-05,-9.01716e-07,-1.11551e-05,1.6166e-05,-4.26356e-06,-3.13234e-06,6.42427e-05,7
-3.09372e-05,1.34373e-05,1.02383e-07,-7.44887e-06,1.72814e-05,-3.48252e-06,-3.371e-07,5.71474e-05,7
-3.2009e-05,1.45036e-05,-1.06448e-06,-5.29173e-06,2.07941e-05,-3.38284e-06,7.90326e-06,4.05765e-05,7
-3.28836e-05,1.54113e-05,-3.94842e-06,-5.18399e-06,2.40948e-05,-2.79473e-06,1.81944e-05,6.834e-06,7
-3.29682e-05,1.48528e-05,-7.95622e-06,-6.05513e-06,2.42364e-05,-2.05956e-06,2.36535e-05,-3.11988e-05,7
-3.20348e-05,1.22087e-05,-1.20683e-05,-7.4016e-06,1.94528e-05,-1.77546e-06,2.49925e-05,-6.15835e-05,7
-3.21221e-05,8.54581e-06,-1.46907e-05,-5.70598e-06,1.21225e-05,-3.34886e-06,2.5329e-05,-7.88658e-05,7
-3.27813e-05,6.30024e-06,-1.44753e-05,1.25724e-07,7.05445e-06,-5.8605e-06,2.37178e-05,-7.9014e-05,7
-3.30697e-05,6.25696e-06,-1.23451e-05,5.24439e-06,7.38885e-06,-8.26653e-06,1.80768e-05,-6.50348e-05,7
-3.24043e-05,8.26665e-06,-1.03489e-05,3.86191e-06,1.09776e-05,-9.61778e-06,1.08371e-05,-4.66678e-05,7
-3.17627e-05,9.99384e-06,-1.039e-05,-2.59741e-06,1.30239e-05,-9.53118e-06,6.53958e-06,-2.9829e-05,7
-3.19692e-05,1.07441e-05,-1.25602e-05,-8.9299e-06,1.20222e-05,-7.47888e-06,4.56862e-06,-1.26734e-05,7
-3.25923e-05,1.20471e-05,-1.38143e-05,-9.22632e-06,9.94868e-06,-4.2631e-06,8.80017e-07,1.38371e-06,7
-3.24758e-05,1.40212e-05,-9.90393e-06,-4.11621e-06,8.68494e-06,-2.94926e-06,-3.66306e-06,1.19533e-06,7
-3.23248e-05,1.49103e-05,-2.93953e-06,-8.85555e-07,8.72548e-06,-3.94419e-06,-6.64799e-06,-1.37987e-05,7
-3.24552e-05,1.4812e-05,-2.40712e-07,-2.58058e-06,8.56533e-06,-5.38696e-06,-7.57572e-06,-2.95791e-05,7
-3.24246e-05,1.48657e-05,-3.04033e-06,-5.51257e-06,8.89086e-06,-7.38877e-06,-5.69222e-06,-3.67036e-05,7
-3.28965e-05,1.45517e-05,-6.95996e-06,-6.80226e-06,1.11978e-05,-8.57335e-06,-9.25279e-07,-3.76542e-05,7
-3.18594e-05,1.34052e-05,-7.87322e-06,-6.47542e-06,1.31883e-05,-7.65053e-06,4.94258e-06,-3.65925e-05,7
-3.01271e-05,1.3141e-05,-5.37317e-06,-6.14673e-06,1.39142e-05,-5.8425e-06,9.43586e-06,-3.59923e-05,7
-2.94275e-05,1.33561e-05,-2.70955e-06,-4.62464e-06,1.39461e-05,-6.00008e-06,1.14834e-05,-3.35619e-05,7
-2.90711e-05,1.31844e-05,-2.10216e-06,-1.74595e-06,1.48406e-05,-7.96387e-06,1.24485e-05,-2.47418e-05,7
-2.83865e-05,1.28119e-05,-1.36851e-06,-2.80842e-06,1.61619e-05,-8.86295e-06,1.254e-05,-7.56125e-06,7
-2.77492e-05,1.25845e-05,1.01309e-06,-6.82113e-06,1.55654e-05,-9.36471e-06,1.05145e-05,1.5352e-05,7
-2.78178e-05,1.35678e-05,3.27168e-06,-9.59672e-06,1.50328e-05,-1.08148e-05,6.66265e-06,3.30884e-05,7
-2.75457e-05,1.38931e-05,3.09172e-06,-9.66372e-06,1.5635e-05,-1.16864e-05,2.71219e-06,3.77382e-05,7
-2.80419e-05,1.29672e-05,-9.82194e-07,-8.35408e-06,1.64091e-05,-1.11727e-05,1.12864e-06,3.01703e-05,7
-2.89772e-05,1.16139e-05,-5.65479e-06,-7.44101e-06,1.6762e-05,-1.00771e-05,4.90186e-06,1.62493e-05,7
-2.83819e-05,1.12413e-05,-7.88132e-06,-7.40257e-06,1.57787e-05,-8.72988e-06,1.39948e-05,-4.93669e-08,7
-2.67661e-05,1.08943e-05,-9.67316e-06,-7.7573e-06,1.4711e-05,-7.94026e-06,2.40255e-05,-1.4614e-05,7
-2.58454e-05,1.04446e-05,-1.30731e-05,-7.02462e-06,1.40748e-05,-8.56957e-06,2.87931e-05,-2.41514e-05,7
-2.76417e-05,1.07682e-05,-1.65934e-05,-4.22751e-06,1.4663e-05,-1.00184e-05,2.46267e-05,-2.76114e-05,7
-2.94735e-05,1.15058e-05,-1.89087e-05,-5.67332e-07,1.55393e-05,-1.07777e-05,1.69435e-05,-2.44914e-05,7
-2.97717e-05,1.18297e-05,-1.9362e-05,2.60576e-06,1.45987e-05,-1.12378e-05,1.28018e-05,-1.70076e-05,7
-2.97105e-05,1.08699e-05,-1.93554e-05,7.1674e-06,1.25171e-05,-1.15297e-05,1.32265e-05,-6.92681e-06,7
-3.03593e-05,1.02413e-05,-2.03259e-05,2.02946e-05,1.10108e-05,-1.18114e-05,1.44927e-05,4.35931e-06,7
-2.99562e-05,1.05751e-05,-2.02805e-05,4.6609e-05,1.17081e-05,-1.1357e-05,1.5479e-05,1.63475e-05,7
-2.76498e-05,1.06344e-05,-1.76814e-05,7.48403e-05,1.4658e-05,-1.00175e-05,1.63504e-05,2.75268e-05,7
-2.63244e-05,9.37842e-06,-1.30342e-05,8.71689e-05,1.71917e-05,-9.8223e-06,1.41216e-05,3.95886e-05,7
-2.85122e-05,8.72751e-06,-7.97061e-06,7.60655e-05,1.80753e-05,-1.218e-05,6.92297e-06,6.50744e-05,7
-3.24445e-05,9.09878e-06,-3.13167e-06,4.16745e-05,1.8398e-05,-1.50065e-05,-1.38593e-06,0.000113727,7
-3.45317e-05,8.67498e-06,-1.21676e-07,-1.16846e-05,1.74379e-05,-1.45822e-05,-3.69017e-06,0.00015642,7
-3.43495e-05,7.13732e-06,1.45847e-06,-7.10039e-05,1.59868e-05,-1.20293e-05,8.52712e-07,0.000154328,7
-3.37562e-05,6.08143e-06,2.75541e-06,-0.000113898,1.57999e-05,-1.15613e-05,6.30571e-06,0.000118331,7
-3.35719e-05,6.86931e-06,2.26604e-06,-0.000118442,1.72152e-05,-1.32948e-05,9.21357e-06,8.31787e-05,7
-3.35777e-05,7.48159e-06,-3.9852e-06,-9.00425e-05,1.74149e-05,-1.40513e-05,9.67606e-06,5.39332e-05,7
-3.38617e-05,7.0161e-06,-1.21197e-05,-5.69346e-05,1.59976e-05,-1.26534e-05,9.03413e-06,2.25301e-05,7
-3.25519e-05,7.75253e-06,-1.31139e-05,-3.38131e-05,1.4806e-05,-9.08595e-06,9.22147e-06,-1.97969e-05,7
-3.25241e-05,7.61075e-06,-8.91153e-06,-1.82669e-05,1.31284e-05,-6.56309e-06,1.13491e-05,-7.89248e-05,7
-3.46612e-05,6.07934e-06,-5.5636e-06,-3.87467e-06,1.28158e-05,-9.00064e-06,1.58129e-05,-0.000137457,7
-3.56052e-05,5.82354e-06,-7.07179e-06,9.97761e-06,1.37445e-05,-1.22864e-05,2.00862e-05,-0.000167939,7
-3.38892e-05,7.07648e-06,-1.26771e-05,2.03311e-05,1.18725e-05,-1.22174e-05,2.01669e-05,-0.000161874,7
-3.24887e-05,7.91582e-06,-1.78395e-05,2.66478e-05,6.35403e-06,-1.09129e-05,1.3911e-05,-0.000135296,7
-3.25826e-05,6.42419e-06,-2.09893e-05,2.6885e-05,2.42114e-06,-1.11807e-05,7.4215e-06,-0.000106947,7
-3.28118e-05,5.3062e-06,-2.03781e-05,2.09059e-05,3.73528e-06,-1.23944e-05,6.13244e-06,-9.17389e-05,7
-3.2565e-05,7.26737e-06,-1.65892e-05,1.33273e-05,8.5809e-06,-1.19755e-05,8.96081e-06,-8.41552e-05,7
-3.08567e-05,1.09645e-05,-1.35169e-05,6.71827e-06,1.23413e-05,-9.44499e-06,1.10651e-05,-7.37493e-05,7
-2.88486e-05,1.46027e-05,-1.09125e-05,1.82802e-06,1.30515e-05,-6.33617e-06,9.78779e-06,-5.61117e-05,7
-2.71471e-05,1.86228e-05,-7.09652e-06,-4.65223e-07,1.35943e-05,-4.79149e-06,8.40141e-06,-3.13261e-05,7
-2.73259e-05,2.12741e-05,-2.98709e-06,-1.65771e-06,1.58598e-05,-5.43682e-06,9.50143e-06,-8.19345e-06,7
-2.88628e-05,2.09661e-05,-6.19443e-07,-2.65992e-06,1.81499e-05,-7.40096e-06,1.15911e-05,3.15301e-06,7
-3.04908e-05,1.87829e-05,1.55569e-07,-3.94655e-06,1.71079e-05,-8.40378e-06,1.15e-05,-2.04134e-07,7
-3.09064e-05,1.60054e-05,-1.03084e-06,-4.22925e-06,1.35967e-05,-8.91996e-06,1.02956e-05,-1.2194e-05,7
-3.07484e-05,1.29057e-05,-4.19627e-06,-2.3832e-06,1.14049e-05,-1.11509e-05,1.13091e-05,-2.5492e-05,7
-3.18217e-05,1.01094e-05,-6.41319e-06,-6.70841e-07,1.19788e-05,-1.3999e-05,1.56037e-05,-3.15235e-05,7
-3.35175e-05,9.08776e-06,-6.05032e-06,-1.48958e-06,1.32764e-05,-1.49842e-05,1.92773e-05,-2.65848e-05,7
-3.47e-05,1.03068e-05,-4.58614e-06,-3.71599e-06,1.41864e-05,-1.38273e-05,1.91318e-05,-1.05269e-05,7
-3.45221e-05,1.21742e-05,-3.4669e-06,-4.46715e-06,1.49589e-05,-1.1852e-05,1.57553e-05,1.03388e-05,7
-3.4809e-05,1.29121e-05,-2.75932e-06,-2.60881e-06,1.45908e-05,-1.04416e-05,1.13078e-05,2.88668e-05,7
-3.70101e-05,1.28596e-05,-2.38358e-06,5.51724e-07,1.34319e-05,-1.02318e-05,8.28016e-06,4.09768e-05,7
-3.79921e-05,1.22101e-05,-2.15533e-06,3.08869e-06,1.3924e-05,-1.02475e-05,8.14361e-06,4.5576e-05,7
-3.67201e-05,1.03732e-05,-2.33912e-06,4.00881e-06,1.60559e-05,-9.12576e-06,1.03498e-05,4.26481e-05,7
-3.64158e-05,8.97004e-06,-3.68631e-06,4.85409e-06,1.63604e-05,-7.91271e-06,1.29706e-05,3.59985e-05,7
-3.76169e-05,1.00258e-05,-7.12104e-06,7.55851e-06,1.47323e-05,-9.65258e-06,1.3793e-05,2.76706e-05,7
-3.87102e-05,1.0685e-05,-1.13215e-05,1.00703e-05,1.29899e-05,-1.24551e-05,1.51017e-05,1.90536e-05,7
-3.90845e-05,9.17063e-06,-1.41972e-05,1.06375e-05,1.21794e-05,-1.24386e-05,1.70348e-05,2.61147e-05,7
-3.91189e-05,8.48265e-06,-1.49132e-05,9.37483e-06,1.3082e-05,-1.11005e-05,1.6496e-05,5.39988e-05,7
-3.78837e-05,9.86043e-06,-1.17592e-05,6.73587e-06,1.56458e-05,-1.06144e-05,1.61707e-05,7.87607e-05,7
-3.49253e-05,1.12916e-05,-4.75439e-06,5.58652e-06,1.87145e-05,-1.0344e-05,1.79978e-05,8.75268e-05,7
-3.15384e-05,1.25084e-05,1.11719e-06,5.84631e-06,2.03718e-05,-9.76051e-06,1.9466e-05,8.61886e-05,7
-2.9231e-05,1.3651e-05,4.35505e-06,5.71008e-06,2.09865e-05,-1.0702e-05,1.98062e-05,8.18432e-05,7
-2.84766e-05,1.35316e-05,4.79606e-06,6.56661e-06,2.01426e-05,-1.2086e-05,1.98306e-05,7.16839e-05,7
-2.91362e-05,1.0906e-05,1.63181e-06,7.85037e-06,1.8989e-05,-1.10214e-05,1.95736e-05,5.07024e-05,7
-3.07751e-05,7.61059e-06,-2.65118e-06,1.06313e-05,1.89219e-05,-9.65037e-06,2.04142e-05,2.15017e-05,7
-3.132e-05,7.94769e-06,-4.43771e-06,1.3641e-05,1.97325e-05,-9.05716e-06,2.21178e-05,-1.67908e-05,7
-3.03718e-05,1.13874e-05,-3.47703e-06,1.35329e-05,2.01899e-05,-8.56291e-06,2.29556e-05,-5.80763e-05,7
-2.91877e-05,1.39139e-05,-3.80376e-06,8.30215e-06,1.9626e-05,-8.30194e-06,2.02031e-05,-8.38706e-05,7
-2.85956e-05,1.39778e-05,-6.39554e-06,-3.11863e-07,1.84923e-05,-8.88404e-06,1.53884e-05,-7.68325e-05,7
-2.94314e-05,1.34726e-05,-9.65954e-06,-6.99834e-06,1.56324e-05,-1.02179e-05,1.35269e-05,-4.52912e-05,7
-3.11675e-05,1.33261e-05,-1.04515e-05,-1.01212e-05,1.17476e-05,-1.15729e-05,1.56059e-05,-1.32662e-05,7
-3.24224e-05,1.32464e-05,-7.35991e-06,-1.36297e-05,8.72889e-06,-1.23052e-05,1.6646e-05,3.34822e-06,7
-3.19209e-05,1.2965e-05,-3.34328e-06,-2.32891e-05,8.35646e-06,-1.25651e-05,1.26565e-05,6.31189e-06,7
-2.96815e-05,1.32523e-05,-1.28503e-06,-3.77341e-05,1.01172e-05,-1.3266e-05,6.73539e-06,4.08741e-06,7
-2.68388e-05,1.46857e-05,-4.30877e-07,-4.96546e-05,1.30878e-05,-1.4589e-05,5.92246e-06,2.09877e-06,7
-2.48366e-05,1.64428e-05,-1.47614e-06,-5.32038e-05,1.61725e-05,-1.54797e-05,1.32194e-05,1.04611e-06,7
-2.48749e-05,1.77137e-05,-4.88992e-06,-5.14989e-05,1.84562e-05,-1.37053e-05,2.22867e-05,-2.94327e-07,7
-2.59335e-05,1.8195e-05,-7.86788e-06,-4.63744e-05,1.89906e-05,-1.02158e-05,2.57474e-05,-2.45802e-06,7
-2.72977e-05,1.81236e-05,-8.91317e-06,-3.34893e-05,1.79143e-05,-6.81084e-06,2.40629e-05,-4.343e-06,7
-2.85184e-05,1.85341e-05,-8.91209e-06,-1.5868e-05,1.67545e-05,-3.90165e-06,2.27235e-05,-6.15719e-06,7
-2.84191e-05,1.92877e-05,-9.17328e-06,-2.58951e-06,1.69579e-05,-2.37562e-06,2.32678e-05,-9.31312e-06,7
-2.86157e-05,1.87226e-05,-8.98059e-06,3.96066e-06,1.71048e-05,-1.5875e-06,2.39786e-05,-1.11099e-05,7
-3.02807e-05,1.7734e-05,-8.9656e-06,3.87061e-06,1.51905e-05,-8.98727e-07,1.99219e-05,-9.85101e-06,7
-3.22057e-05,1.64865e-05,-9.4038e-06,-2.10086e-07,1.32881e-05,-2.5051e-06,8.99133e-06,-4.69836e-06,7
-3.28667e-05,1.56557e-05,-6.72964e-06,-1.28207e-06,1.38866e-05,-7.52689e-06,-3.90873e-06,1.42505e-06,7
-3.30024e-05,1.61106e-05,-3.86635e-06,-1.53431e-06,1.52147e-05,-1.17855e-05,-1.20573e-05,4.86918e-06,7
-3.31047e-05,1.68079e-05,-4.25231e-06,-7.4958e-06,1.56817e-05,-1.076e-05,-1.16659e-05,6.46676e-06,7
-3.32537e-05,1.71969e-05,-6.36706e-06,-1.60548e-05,1.58308e-05,-6.80447e-06,-6.60724e-06,8.23909e-06,7
-3.36755e-05,1.69787e-05,-1.08299e-05,-1.72634e-05,1.44395e-05,-5.47915e-06,-4.15626e-06,9.83089e-06,7
-3.24971e-05,1.6136e-05,-1.25025e-05,-9.65727e-06,1.30731e-05,-7.45028e-06,-5.07273e-06,1.05123e-05,7
-2.93129e-05,1.5456e-05,-8.43557e-06,-8.88502e-07,1.16866e-05,-1.03082e-05,-2.34165e-06,1.24316e-05,7
-2.70265e-05,1.50964e-05,-1.68378e-06,5.0296e-06,9.83859e-06,-1.11984e-05,7.17044e-06,2.09165e-05,7
-2.69182e-05,1.44034e-05,2.68413e-06,8.00013e-06,8.866e-06,-8.519e-06,1.95029e-05,3.0394e-05,7
-2.634e-05,1.31139e-05,1.92181e-06,6.82582e-06,1.0449e-05,-4.13479e-06,2.53466e-05,3.58465e-05,7
-2.53865e-05,1.1476e-05,-2.30707e-06,2.5065e-06,1.32616e-05,-1.60099e-06,2.23864e-05,4.25456e-05,7
-2.50036e-05,1.03767e-05,-7.11558e-06,-1.47497e-06,1.35762e-05,-2.56181e-06,1.54868e-05,5.5755e-05,7
-2.54064e-05,1.04577e-05,-9.96462e-06,-3.04743e-06,1.08037e-05,-5.2674e-06,8.51152e-06,6.97109e-05,7
-2.64789e-05,1.1729e-05,-1.12426e-05,-4.67835e-06,7.51646e-06,-6.95995e-06,5.30047e-06,6.96063e-05,7
-2.73822e-05,1.35378e-05,-1.0026e-05,-9.04541e-06,7.22396e-06,-6.35534e-06,7.12512e-06,5.01335e-05,7
-2.69416e-05,1.49857e-05,-5.9076e-06,-1.38652e-05,1.10013e-05,-4.8565e-06,1.30904e-05,2.08642e-05,7
-2.50707e-05,1.49791e-05,-1.01375e-06,-1.57513e-05,1.48058e-05,-3.8506e-06,1.87569e-05,-6.59342e-06,7
-2.32826e-05,1.38841e-05,8.44288e-07,-1.64042e-05,1.45494e-05,-4.03983e-06,2.13944e-05,-3.05996e-05,7
-2.20845e-05,1.27582e-05,-6.14589e-07,-1.80301e-05,1.16538e-05,-5.7247e-06,2.11058e-05,-4.93976e-05,7
-2.0656e-05,1.16753e-05,-3.16843e-06,-1.78701e-05,8.83301e-06,-8.50458e-06,1.73107e-05,-6.07325e-05,7
-1.8835e-05,1.03258e-05,-5.88691e-06,-1.48025e-05,7.67533e-06,-1.0956e-05,1.05336e-05,-6.25712e-05,7
-1.89401e-05,9.75189e-06,-9.05175e-06,-9.32563e-06,6.2511e-06,-1.20659e-05,8.27866e-06,-5.44707e-05,7
-2.13133e-05,9.1663e-06,-1.24885e-05,-3.04085e-06,4.0757e-06,-1.22481e-05,1.28005e-05,-4.34739e-05,7
-2.36081e-05,7.15513e-06,-1.4487e-05,3.26184e-06,3.98402e-06,-1.21111e-05,1.55254e-05,-3.82356e-05,7
-2.53494e-05,7.25515e-06,-1.60346e-05,1.10297e-05,6.14665e-06,-1.22142e-05,1.37446e-05,-3.84405e-05,7
-2.64689e-05,1.07984e-05,-1.675e-05,2.16552e-05,8.20881e-06,-1.29663e-05,1.11209e-05,-4.07861e-05,7
-2.65588e-05,1.39765e-05,-1.28314e-05,3.06514e-05,9.72158e-06,-1.41157e-05,1.07412e-05,-4.35018e-05,7
-2.63656e-05,1.54042e-05,-5.78317e-06,3.26977e-05,1.05042e-05,-1.42191e-05,1.33204e-05,-4.4716e-05,7
-2.59863e-05,1.64055e-05,-9.08284e-07,2.77912e-05,1.03357e-05,-1.2681e-05,1.82135e-05,-4.70113e-05,7
-2.60298e-05,1.7143e-05,2.04835e-06,1.82389e-05,8.92089e-06,-9.66527e-06,2.37113e-05,-5.14235e-05,7
-2.6812e-05,1.73069e-05,4.27837e-06,8.82404e-06,1.00173e-05,-5.93196e-06,2.68068e-05,-5.44212e-05,7
-2.78955e-05,1.55734e-05,1.6248e-06,-9.87458e-07,1.45185e-05,-5.03442e-06,2.26936e-05,-4.91448e-05,7
-2.92547e-05,1.23899e-05,-6.00774e-06,-1.09816e-05,1.71429e-05,-8.46615e-06,1.05121e-05,-3.3187e-05,7
-3.0217e-05,1.04144e-05,-1.2576e-05,-1.68008e-05,1.74512e-05,-1.21467e-05,-9.60973e-07,-1.63002e-05,7
-3.11109e-05,9.70504e-06,-1.49366e-05,-1.62853e-05,1.6056e-05,-1.34549e-05,-5.4386e-06,-5.602e-06,7
-3.16718e-05,9.65106e-06,-1.48175e-05,-1.23434e-05,1.38711e-05,-1.35971e-05,-4.29729e-06,-9.75724e-07,7
-3.24293e-05,9.50052e-06,-1.57499e-05,-8.09631e-06,1.23868e-05,-1.36772e-05,1.21459e-07,3.15129e-06,7
-3.38812e-05,9.74871e-06,-1.81847e-05,-4.17994e-06,1.31065e-05,-1.384e-05,6.32656e-06,1.14114e-05,7
-3.45457e-05,1.15526e-05,-1.94164e-05,4.24988e-07,1.43062e-05,-1.3224e-05,1.38886e-05,2.08231e-05,7
-3.46683e-05,1.38401e-05,-1.91482e-05,7.12332e-06,1.47265e-05,-1.10217e-05,2.23846e-05,2.90449e-05,7
-3.45988e-05,1.5092e-05,-1.91844e-05,1.41892e-05,1.47004e-05,-9.00502e-06,2.87952e-05,3.88716e-05,7
-3.39951e-05,1.51749e-05,-1.7524e-05,1.94664e-05,1.39485e-05,-9.24437e-06,3.02399e-05,5.07114e-05,7
-3.26024e-05,1.52547e-05,-1.11076e-05,2.32694e-05,1.28973e-05,-1.06104e-05,2.64202e-05,5.64709e-05,7
-3.13639e-05,1.53366e-05,-2.06093e-06,2.57471e-05,1.17791e-05,-1.09611e-05,1.84692e-05,5.08884e-05,7
-3.11861e-05,1.54559e-05,3.31814e-06,2.41691e-05,1.11827e-05,-9.5133e-06,1.03451e-05,3.58981e-05,7
-3.17208e-05,1.56175e-05,1.57287e-06,1.75096e-05,1.08503e-05,-6.75028e-06,5.59021e-06,1.74015e-05,7
-3.20604e-05,1.56038e-05,-3.5894e-06,3.74924e-06,1.07236e-05,-5.79602e-06,4.37162e-06,2.92183e-07,7
-3.28737e-05,1.55644e-05,-6.34638e-06,-1.7001e-05,1.12978e-05,-8.95556e-06,6.23227e-06,-1.20405e-05,7
-3.45552e-05,1.51094e-05,-5.68726e-06,-4.20138e-05,1.23119e-05,-1.35499e-05,8.49584e-06,-1.8908e-05,7
-3.64478e-05,1.3612e-05,-4.19684e-06,-6.76072e-05,1.29963e-05,-1.57413e-05,8.41616e-06,-2.17953e-05,7
-3.72782e-05,1.16607e-05,-3.43708e-06,-8.05015e-05,1.29337e-05,-1.43271e-05,9.39779e-06,-2.35857e-05,7
-3.65059e-05,1.06223e-05,-3.59314e-06,-6.86e-05,1.17264e-05,-1.07933e-05,1.10478e-05,-2.44806e-05,7
-3.55356e-05,1.10832e-05,-5.54579e-06,-4.08812e-05,1.21467e-05,-8.7268e-06,1.12385e-05,-2.06747e-05,7
-3.47948e-05,1.21645e-05,-8.37934e-06,-1.95943e-05,1.35616e-05,-6.88503e-06,1.07264e-05,-1.30916e-05,7
-3.49801e-05,1.34294e-05,-8.52369e-06,-1.08538e-05,1.43431e-05,-2.89726e-06,9.21114e-06,1.2156e-07,7
-3.44092e-05,1.47682e-05,-5.83883e-06,-5.74789e-06,1.49765e-05,-6.93819e-07,9.25181e-06,2.47119e-05,7
-3.27504e-05,1.53014e-05,-4.32071e-06,-7.00149e-07,1.34806e-05,-2.51612e-06,1.31201e-05,4.86912e-05,7
-3.24644e-05,1.58099e-05,-4.46855e-06,4.56299e-06,1.05397e-05,-5.05837e-06,1.60062e-05,5.82877e-05,7
-3.34622e-05,1.68188e-05,-3.98828e-06,4.54075e-06,7.9173e-06,-5.95843e-06,1.76562e-05,6.14904e-05,7
-3.40672e-05,1.81745e-05,-2.83172e-06,-2.32518e-07,8.07601e-06,-6.86551e-06,2.26373e-05,6.69726e-05,7
-3.30759e-05,1.8661e-05,-2.88192e-06,-4.19649e-06,1.12726e-05,-7.05734e-06,2.70483e-05,6.70715e-05,7
-3.07889e-05,1.7873e-05,-5.35667e-06,-6.01262e-06,1.39305e-05,-6.55986e-06,2.59291e-05,4.53801e-05,7
-2.87068e-05,1.69229e-05,-8.92474e-06,-5.36385e-06,1.39071e-05,-7.0057e-06,1.97828e-05,1.40536e-06,7
-2.85234e-05,1.5801e-05,-1.11944e-05,-4.48571e-06,1.35526e-05,-8.8532e-06,1.33081e-05,-4.85922e-05,7
-2.91992e-05,1.38654e-05,-1.12538e-05,-4.30966e-06,1.43461e-05,-1.06541e-05,8.24058e-06,-8.3573e-05,7
-2.89403e-05,1.25894e-05,-1.13521e-05,-4.92384e-06,1.37509e-05,-1.10482e-05,4.74775e-06,-8.93868e-05,7
-2.79917e-05,1.30525e-05,-1.16301e-05,-6.31286e-06,1.10907e-05,-1.13009e-05,4.01284e-06,-6.9376e-05,7
-2.72448e-05,1.37893e-05,-1.09165e-05,-9.08198e-06,7.96753e-06,-1.14871e-05,7.9105e-06,-3.392e-05,7
-2.72538e-05,1.36793e-05,-9.80318e-06,-1.09159e-05,5.88313e-06,-1.08353e-05,1.59471e-05,1.44315e-05,7
-2.7807e-05,1.29578e-05,-8.19335e-06,-9.53271e-06,5.4985e-06,-8.97353e-06,2.45691e-05,6.91028e-05,7
